 $NMID ID='MM_0lb_SNR50_7hz_g55_48.RAW', FMTDAT='(8E13.5)'
 TRAMP=1., VOLUME=1. $END
  3.06022E+05  1.20157E+03  3.41813E+05  2.50514E+05  8.64659E+04  3.34153E+05 -1.34511E+05  2.51674E+05
 -1.93363E+05  8.57587E+04 -1.13871E+05 -3.43534E+04  3.13164E+03 -5.38873E+04  5.80287E+04  1.20314E+04
  3.31077E+04  4.83209E+04 -9.92087E+03  6.99336E+04 -6.18917E+04  6.90043E+04 -8.23981E+04  3.31186E+04
 -8.89788E+04 -8.21986E+03 -6.46590E+04 -5.21395E+04 -9.39109E+03 -6.72342E+04  3.21071E+04 -4.31142E+04
  4.97413E+04 -1.69017E+02  1.10712E+04  4.71522E+04 -3.37850E+04  4.65460E+04 -6.82753E+04 -4.05627E+03
 -5.24810E+04 -5.98707E+04 -1.28674E+04 -7.34094E+04  4.02978E+04 -6.17022E+04  5.68072E+04 -1.78516E+04
  5.19507E+04  1.37873E+04  3.70277E+04  2.94199E+04  1.98907E+04  3.25040E+04 -7.61877E+03  2.37706E+04
 -2.47883E+04  8.68824E+03 -1.71622E+04 -6.30575E+03  1.53874E+04 -1.04443E+04  2.35871E+04  1.93464E+04
  1.05688E+04  3.88929E+04 -3.86124E+04  4.37873E+04 -6.95936E+04 -4.71433E+03 -6.04841E+04 -3.88274E+04
 -1.42508E+04 -6.62968E+04  4.09770E+04 -4.70194E+04  6.13521E+04 -5.07933E+03  3.59850E+04  3.52933E+04
 -1.36155E+04  3.47033E+04 -3.88129E+04  2.39459E+04 -3.65385E+04 -3.83211E+03 -2.01126E+04 -1.42902E+04
 -1.82903E+04 -1.30397E+04 -3.07240E+03 -2.20501E+04  1.05540E+04 -3.19498E+04  1.69485E+04 -1.62083E+04
  7.22039E+03 -5.85632E+02 -8.60926E+03  1.54580E+04 -2.39717E+04 -1.27463E+03 -9.68952E+03 -4.65890E+04
  1.89071E+04 -4.56849E+04  5.16528E+04 -2.57738E+04  5.49121E+04  2.54263E+04  1.84871E+04  3.93085E+04
 -1.78782E+04  4.51950E+04 -2.25491E+04  1.42806E+03 -1.76110E+04 -3.39937E+04  1.92608E+04 -3.57897E+04
  4.12163E+04 -1.28129E+04  3.92056E+04  2.64437E+04  2.46206E+04  5.07700E+04  1.43847E+02  5.82400E+04
 -3.86995E+04  4.17032E+04 -5.38485E+04  1.06412E+04 -4.64328E+04 -1.95806E+04 -3.27221E+04 -4.05454E+04
  4.32469E+03 -4.64842E+04  4.21145E+04 -1.71081E+04  3.27958E+04  6.05461E+03  5.45457E+03  2.50558E+04
 -2.21210E+04  4.92688E+03 -1.25229E+04 -1.35866E+04 -1.26610E+02 -1.36711E+04  1.06609E+04  1.36020E+04
  1.81193E+04  1.81341E+04 -7.53527E+03  3.32243E+04 -2.38581E+04  1.20429E+04 -3.48832E+04 -3.38690E+03
 -2.38474E+04 -1.20586E+04 -1.58387E+04 -2.77295E+04  6.60403E+03 -2.43949E+04  1.66569E+04 -2.40001E+04
  2.93986E+04 -1.45865E+04  4.35480E+04  1.01892E+03  2.89854E+04  2.59260E+04  3.27173E+03  3.91974E+04
 -1.57561E+04  4.05416E+04 -3.52876E+04  1.80856E+04 -2.00583E+04 -1.15127E+04 -1.55254E+04 -8.98092E+03
 -1.47263E+03  2.91662E+03 -5.82586E+03  1.04614E+04 -2.27129E+04  1.26868E+03 -3.39202E+04 -1.88060E+04
 -1.11939E+04 -2.08028E+04  7.67379E+03 -2.65903E+04  1.92160E+04 -1.40009E+04  2.44491E+04 -5.69910E+03
  1.90356E+04  1.42632E+04 -9.73850E+03  2.73377E+04 -2.28906E+04  1.78058E+04 -2.33770E+04 -4.15868E+03
 -2.14826E+04 -2.31900E+04 -7.78227E+03 -3.25446E+04  1.93456E+04 -2.72489E+04  1.78798E+04 -1.06644E+04
  3.18555E+04  4.29412E+02  1.81746E+04  3.23593E+03  1.12526E+04  3.50511E+03  1.26558E+04 -9.00550E+03
  2.81526E+04  8.01332E+03  2.95982E+04  1.81542E+04  2.25532E+04  4.46780E+04 -4.22370E+03  5.48487E+04
 -3.37394E+04  3.84086E+04 -4.47003E+04  2.01136E+04 -5.32153E+04 -2.51624E+03 -2.95786E+04 -1.74405E+04
 -1.90161E+04 -4.24288E+04  1.69620E+04 -3.06638E+04  3.19567E+04 -1.38954E+04  3.13037E+04  8.53117E+03
  1.00627E+04  2.76784E+04 -1.81357E+04  1.50720E+04 -2.48103E+04  2.45330E+03 -6.56866E+03 -8.60686E+03
  9.38414E+02 -2.21970E+04  1.47888E+04 -1.87073E+04  1.72973E+04  2.78745E+02  2.40629E+03  8.54332E+03
 -1.22004E+04  1.35112E+04 -1.10287E+04 -1.11510E+04 -1.70120E+03 -1.94848E+04  1.76596E+04 -1.70902E+04
  2.41864E+04 -1.57765E+04  3.19709E+04  2.57647E+03  2.55844E+04  1.86499E+04  5.40302E+03  4.39123E+04
 -5.72969E+03  4.16271E+04 -3.37233E+04  2.48895E+04 -2.15791E+04  9.78202E+03 -1.54776E+04 -5.69939E+03
 -1.11670E+04 -7.95507E+03 -1.82535E+03 -2.41993E+03  1.57248E+03  2.57003E+03 -3.25828E+03  8.52935E+03
 -1.89814E+04  9.66494E+00 -1.48615E+04 -1.39684E+04 -1.94313E+03 -1.96189E+04  1.65433E+04 -1.49675E+04
  1.35613E+04 -7.46561E+03  8.42313E+03  9.18819E+03  6.91558E+03  8.66819E+03 -9.75670E+03 -1.44588E+03
 -6.85445E+03 -1.40571E+04 -4.07678E+03 -2.02688E+04  8.72680E+03 -2.23195E+04  2.70642E+04 -1.17916E+04
  2.65074E+04  8.75115E+03  1.53678E+04  1.48414E+04  2.82529E+03  2.87019E+04 -1.33344E+04  1.49737E+04
 -1.15747E+04 -2.68239E+01 -1.30771E+04 -7.23783E+03  4.22917E+03 -5.01947E+03  1.19270E+04 -2.31236E+02
  2.53444E+03  9.41247E+03  4.88756E+03  1.18518E+04 -1.10311E+04  1.72353E+04 -1.48457E+04 -1.39597E+03
 -1.41622E+04 -8.74528E+03 -6.22686E+03 -1.82052E+04  1.66205E+04 -1.20736E+04  1.47796E+04  1.21751E+03
 -2.63744E+02  6.21058E+03 -1.32833E+04  1.82551E+04 -1.96259E+04  6.79657E+03 -1.26593E+04  3.88071E+03
 -1.14703E+04 -1.84880E+04  5.28908E+03 -1.67447E+04  1.99006E+04 -1.29984E+04  2.39009E+04  2.18480E+03
  1.90229E+04  1.60450E+04 -4.56139E+03  1.59841E+04 -9.90012E+03  1.52724E+04 -1.99324E+04  4.09019E+03
 -1.69801E+04 -1.43232E+04  1.75503E+03 -1.61033E+04  9.06817E+03 -1.36845E+04  4.57636E+03  7.78542E+02
  2.63796E+03  6.11062E+03 -1.00821E+04  1.41015E+04 -2.75591E+03  3.03172E+02  7.43177E+03 -7.22553E+03
  1.41040E+04 -8.49686E+03  2.29014E+04  3.51925E+03  2.43528E+04  7.65955E+03  1.27765E+04  2.38814E+04
 -5.93474E+03  2.45752E+04 -1.93281E+04  1.54746E+04 -3.45958E+04  2.54697E+03 -3.14931E+04 -1.52001E+04
 -1.06973E+04 -1.75449E+04  9.81091E+02 -1.39320E+04  9.34433E+03 -1.08751E+04  5.02634E+03 -4.28741E+03
  4.58552E+02 -1.73530E+04 -4.98188E+03 -6.42939E+02  2.24441E+03 -9.20377E+03  7.87584E+03  2.78277E+03
  9.39522E+03  4.62621E+03  1.05734E+04  1.25775E+04  2.34706E+02  1.64424E+04 -7.92015E+03  1.86280E+04
 -1.51273E+04 -4.37919E+03 -1.16968E+04 -1.56147E+04 -3.61269E+03 -1.67817E+04  8.63899E+03 -1.74297E+04
  2.84319E+04 -9.44359E+03  2.16136E+04  3.14002E+03  2.07162E+04  1.32838E+04 -4.86110E+03  2.49281E+04
 -1.33069E+04  1.75352E+04 -1.77845E+04 -1.04311E+03 -1.00254E+04 -3.42398E+03 -9.43243E+03 -4.76993E+03
  9.66004E+02 -1.97074E+03 -1.67029E+03 -6.97740E+03 -9.70667E+03 -8.93620E-01 -1.84386E+04 -1.28135E+03
 -1.58976E+04 -2.27412E+04 -6.97072E+03 -1.58926E+04  1.34533E+04 -2.07339E+04  2.38187E+04 -3.71520E+03
  1.97986E+04  9.59996E+03  2.94873E+03  2.18676E+04 -1.05784E+03  1.56202E+04 -1.13133E+04  2.08419E+04
 -1.75915E+04 -3.93026E+03 -2.28355E+04 -1.67632E+04 -3.96679E+03 -7.97048E+03  2.63458E+03 -1.74167E+04
  1.45839E+04 -7.29072E+03  1.57085E+03  4.04193E+03  4.45862E+03  9.49267E+03  1.45210E+03 -3.59902E+03
  6.66038E+03 -2.78757E+03  5.31353E+03 -3.50203E+03  4.84883E+03  4.84074E+03  8.88511E+03  1.12305E+04
 -1.01588E+04  1.41715E+04 -1.98244E+04  1.48548E+04 -2.68885E+04  2.72384E+03 -2.93785E+04 -1.00835E+04
 -8.84382E+03 -2.18338E+04  3.55857E+03 -2.40752E+04  1.75736E+04 -2.37265E+04  1.48023E+04 -1.24305E+04
  1.33102E+04  1.65918E+04  2.97246E+03  7.16972E+03 -4.44251E+03  1.43439E+04 -1.31344E+04 -9.78695E+03
 -7.19953E+03 -2.42637E+03  3.35117E+03 -1.12377E+04  1.32555E+04 -2.66736E+03  1.42135E+04  8.70150E+02
 -1.26489E+03  5.92845E+03  6.42592E+03  2.80464E+03 -6.57507E+03  1.09355E+03  4.71497E+03  4.42687E+03
  4.44866E+03 -3.41116E+03  8.53101E+03  3.80014E+03 -4.74840E+02  9.01596E+03  2.12368E+03  1.19781E+04
 -8.74230E+03  1.63134E+04 -1.40800E+04 -5.44519E+02 -1.21614E+04 -4.46343E+03 -5.96243E+03 -1.08852E+04
 -5.41131E+03 -1.18492E+04  6.67111E+03 -2.33140E+03  9.01353E+03  1.17721E+03 -1.95523E+03  2.49141E+03
 -1.57749E+04  5.72192E+03 -9.31730E+03 -2.72873E+03 -4.06439E+03 -1.19766E+04 -4.86589E+01 -1.38310E+04
  7.52684E+03 -2.97351E+03  9.73114E+03 -4.45222E+03  7.03130E+03  6.37941E+03 -3.41458E+03  3.08380E+03
 -8.56367E+03 -1.98655E+02  1.57724E+03  4.37412E+02  3.46230E+03 -8.35077E+03  7.00863E+03 -1.47907E+04
  1.14446E+04  4.21470E+02  1.28006E+04 -5.36346E+01  4.27840E+03  9.80981E+03 -3.79704E+03  1.38164E+04
 -6.65415E+03 -4.02297E+03 -8.83024E+03 -4.24993E+03 -7.29437E+03 -1.16948E+04  5.16914E+03 -7.40876E+03
  1.27857E+04 -4.75752E+03  4.10907E+03  4.14454E+03  2.69253E+03  5.18255E+03  2.30798E+03  1.56382E+03
 -6.25438E+03  4.69537E+02 -5.77078E+03 -2.71675E+03 -5.09321E+03  3.21948E+03 -5.10728E+03 -3.18873E+03
 -7.30816E+03  3.19668E+03 -9.11876E+03  8.10031E+03 -1.64773E+04 -2.09152E+03 -1.28251E+04 -1.32458E+04
 -1.37652E+04 -2.27265E+04 -3.14702E+03 -2.39401E+04  9.04352E+03 -1.36859E+04  1.52620E+04 -4.32862E+03
  1.54710E+04  8.71785E+02  9.39434E+03  1.46973E+04 -6.06865E+03  1.85017E+04 -4.87855E+03  1.33199E+04
 -1.08561E+04  2.46419E+03 -5.79900E+03  1.38912E+02  7.78540E+02 -6.40614E+03  3.99427E+03 -1.92146E+03
 -1.60841E+03 -4.32731E+03  5.99610E+02  1.37003E+03  2.57578E+03 -1.36101E+04 -9.46106E+02 -1.70869E+03
  9.38386E+03 -2.85682E+03  9.31586E+03  5.03956E+03  2.37992E+03  9.51477E+03  1.09985E+04  1.50308E+04
 -5.10539E+03  1.92463E+04 -8.77357E+03  1.18501E+04 -1.75769E+04  8.16092E+01 -9.72496E+03 -7.42073E+03
 -2.79109E+03 -1.25637E+04  6.50224E+03 -1.05625E+04  1.86752E+04 -1.03287E+04  1.14474E+04  4.29111E+03
  1.01271E+04  6.24934E+03 -1.92826E+03  8.58471E+03 -1.56252E+02 -2.65931E+03 -4.87462E+03 -1.09512E+03
  2.48947E+03  4.28188E+02  4.26759E+03  1.03872E+03  6.70973E+03  4.46250E+03 -3.49569E+02  1.89551E+04
 -1.07363E+04  7.49005E+03 -9.81236E+03 -4.21083E+02 -6.47986E+03 -1.48276E+03 -5.41488E+03 -9.47731E+03
  1.19549E+04 -1.17903E+04  1.06415E+04  2.50114E+03  2.10164E+04  5.40587E+03  5.60651E+03  1.12424E+04
 -1.24984E+03  1.31613E+03  5.19881E+03  1.43303E+03 -1.35960E+04  8.36980E+03 -5.92452E+03  2.72362E+03
 -5.45625E+03  1.47260E+03 -3.72464E+03  2.47523E+03 -3.83204E+03 -4.54925E+03 -1.39635E+04  2.08193E+03
 -5.88409E+03 -7.43350E+03  1.29633E+03 -1.10855E+04  6.77229E+03 -1.78888E+04  7.25074E+03  1.44094E+03
  1.18619E+04 -8.05121E+02  7.41702E+03  4.15975E+03  3.29150E+03  8.21357E+03 -2.72464E+03  1.34360E+04
