 $NMID ID='MM_0lb_SNR50_15hz_g55_67.RAW', FMTDAT='(8E13.5)'
 TRAMP=1., VOLUME=1. $END
  3.08504E+05  9.05705E+01  3.34929E+05  2.50054E+05  8.15469E+04  3.33429E+05 -1.34307E+05  2.46693E+05
 -1.87538E+05  8.47625E+04 -1.14499E+05 -3.11978E+04  3.38338E+03 -4.90198E+04  5.54071E+04 -3.39711E+03
  3.87038E+04  5.34216E+04 -1.50362E+04  7.66746E+04 -6.45725E+04  6.12744E+04 -8.44122E+04  3.56717E+04
 -8.01944E+04 -1.07297E+04 -6.05950E+04 -4.99771E+04 -1.83667E+04 -7.08551E+04  2.87857E+04 -4.91494E+04
  4.23753E+04  6.74885E+03  1.60146E+04  4.94174E+04 -3.69459E+04  4.58331E+04 -6.31084E+04  1.27264E+02
 -5.53887E+04 -5.41898E+04 -6.00892E+03 -7.29446E+04  3.77975E+04 -5.57943E+04  4.62358E+04 -1.30393E+04
  4.64091E+04  1.53096E+04  3.03742E+04  2.56684E+04  1.20116E+04  3.11396E+04 -4.95569E+03  2.85203E+04
 -2.45535E+04  9.70608E+03 -1.43647E+04 -7.66592E+03  6.11602E+03 -8.22233E+03  2.20728E+04  1.03796E+04
  5.99257E+03  3.18520E+04 -2.99619E+04  3.92369E+04 -6.44245E+04 -5.39440E+03 -5.40633E+04 -3.87864E+04
 -1.04516E+04 -6.54672E+04  3.57996E+04 -4.68112E+04  5.70412E+04 -1.16247E+03  3.49811E+04  3.07105E+04
 -7.58399E+03  3.76211E+04 -3.17839E+04  1.29290E+04 -2.88324E+04 -7.96321E+03 -1.54331E+04 -1.27156E+04
 -1.12461E+04 -9.06814E+03 -1.97596E+03 -1.49554E+04  8.73876E+03 -1.89628E+04  1.25082E+04 -1.18177E+04
  9.58000E+03  2.94738E+03 -1.28137E+04  1.62570E+04 -2.19124E+04 -4.50924E+03 -1.15475E+04 -3.58522E+04
  2.11821E+04 -4.71015E+04  4.61486E+04 -1.73445E+04  4.67313E+04  2.24950E+04  1.91858E+04  4.25490E+04
 -1.43474E+04  3.58459E+04 -3.03277E+04  5.57161E+03 -8.24336E+03 -2.96425E+04  2.24177E+04 -3.49609E+04
  4.44047E+04 -9.98170E+03  3.69766E+04  2.68205E+04  1.47768E+04  5.17060E+04 -1.07804E+04  5.06143E+04
 -2.88364E+04  3.47747E+04 -4.46730E+04  1.05437E+04 -4.16144E+04 -2.12019E+04 -2.64993E+04 -4.07436E+04
  6.08166E+03 -3.97827E+04  3.16239E+04 -2.13241E+04  2.93470E+04  1.05229E+04  2.68771E+03  1.22155E+04
 -1.61544E+04  1.09140E+04 -6.84260E+03 -9.38367E+03  8.00290E+03 -1.08582E+04  1.78274E+04  7.28673E+03
  1.45963E+04  1.93094E+04 -8.45283E+03  2.78857E+04 -2.24126E+04  1.53897E+04 -2.82249E+04 -6.33605E+03
 -1.98869E+04 -1.51488E+04 -1.13374E+04 -2.05104E+04  9.59608E+02 -1.68655E+04  1.42519E+04 -2.14453E+04
  2.49970E+04 -1.22529E+04  3.47627E+04 -6.56427E+02  1.87200E+04  2.04020E+04  2.66012E+03  3.41001E+04
 -1.77190E+04  3.23519E+04 -2.75079E+04  9.70814E+03 -2.17606E+04 -1.16835E+04 -3.24997E+03 -1.34484E+04
  4.73395E+03 -6.84812E+03 -6.44887E+03  7.26939E+03 -1.53486E+04  7.71987E+03 -1.92600E+04 -4.35222E+03
 -9.21963E+03 -2.19155E+04 -7.01759E+02 -2.51901E+04  1.67515E+04 -2.28287E+04  1.70001E+04 -3.54574E+03
  1.03473E+04  1.47084E+04 -1.48224E+03  1.72038E+04 -1.16970E+04  8.66310E+03 -1.87327E+04 -2.83582E+03
 -1.62161E+04 -1.75730E+04 -2.12292E+02 -2.22805E+04  1.27182E+04 -1.67303E+04  2.18836E+04 -6.57729E+03
  1.44687E+04  3.15474E+03  1.02401E+04  2.21031E+02  6.27089E+03  3.21066E+03  6.92584E+03  4.12851E+03
  1.73124E+04  3.31905E+03  1.76826E+04  1.80132E+04  1.28777E+04  2.60691E+04 -6.55485E+03  3.03170E+04
 -1.78174E+04  2.63186E+04 -3.52201E+04  1.48779E+04 -3.06818E+04 -2.22324E+03 -2.96481E+04 -1.74111E+04
 -1.24565E+04 -2.54920E+04  4.51285E+03 -2.77670E+04  1.89668E+04 -1.44656E+04  1.74264E+04  4.73136E+03
  4.17633E+03  1.24355E+04 -7.56957E+03  7.34277E+03 -1.79786E+04  5.33942E+03 -9.70712E+03 -1.06514E+04
 -1.26979E+03 -1.46284E+04  9.00723E+03 -1.48138E+04  7.61444E+03 -1.28156E+03  3.25879E+03  3.07036E+03
 -6.48793E+03  2.36118E+03 -3.08577E+03 -3.32537E+03 -1.72307E+03 -1.57077E+04  5.27509E+03 -1.28044E+04
  1.44311E+04 -6.39247E+03  2.37198E+04  1.54257E+03  1.46258E+04  1.23091E+04  2.02962E+03  2.25622E+04
 -3.71817E+03  2.28972E+04 -1.29323E+04  1.42054E+04 -1.77784E+04 -5.56532E+02 -5.60332E+03 -2.73445E+03
 -6.84045E+03 -3.27094E+03 -6.18446E+02 -2.87258E+03 -2.01030E+03  7.34630E+02 -4.13384E+03  4.91942E+03
 -6.08165E+03  7.79365E+02 -1.34152E+04 -9.78015E+03 -4.12288E+03 -1.92971E+04  4.43083E+03 -1.15286E+04
  1.30725E+04 -9.48131E+03  5.94953E+03  2.19528E+03 -3.34640E+03  5.62070E+03 -6.97358E+03  5.18338E+03
 -1.17615E+04 -8.39010E+03 -1.76704E+03 -1.17633E+04  6.05643E+03 -1.15374E+04  1.22744E+04 -8.18695E+03
  1.69312E+04  1.04334E+03  1.31650E+04  7.31393E+03  6.38824E+03  1.01745E+04 -2.42646E+03  9.28563E+03
 -1.27793E+04  1.90740E+03 -3.56809E+03  4.40413E+03  6.66182E+02 -4.02940E+03  3.20110E+03  9.83561E+02
  7.31907E+03  7.17451E+03 -4.35382E+00  7.92283E+03 -3.96350E+03  9.21211E+03 -1.01191E+04  1.89914E+03
 -1.00727E+04 -7.37570E+03  1.71515E+03 -7.36450E+03  2.12301E+03 -3.06998E+03  4.73172E+03  2.03061E+03
 -2.17827E+03  2.74111E+03 -3.85523E+03  7.59050E+03 -5.77460E+03  1.61488E+03 -6.84659E+03 -7.19568E+03
 -6.91190E+03 -1.21141E+04  3.07921E+03 -1.30009E+04  7.55640E+03 -5.72031E+03  6.00136E+03  4.94594E+02
  3.71668E+03  9.62208E+03 -1.87972E+03  6.80283E+03 -7.27672E+03  7.40696E+03 -7.21943E+03  3.02792E+03
 -1.08705E+04 -7.24270E+03  2.26865E+03 -9.70082E+03  3.16583E+03 -6.40470E+03  7.42301E+02  1.22084E+03
  2.34208E+03  1.57848E+03  1.75687E+03  3.92944E+03 -1.57827E+03  1.61942E+03 -1.24980E+03 -2.34295E+03
  7.36049E+03  1.81565E+03  1.12192E+04 -2.46083E+03  1.15700E+04  5.38763E+03  7.28297E+03  9.90987E+03
 -1.94696E+02  1.06130E+04 -1.54796E+04  1.11374E+04 -1.51925E+04 -2.94434E+03 -1.48723E+04 -2.22125E+03
 -6.47734E+03 -6.83932E+03  7.84814E+02 -1.11028E+04  2.46925E+03 -1.41996E+03  1.53645E+02 -9.17342E+01
  4.23813E+03  1.30601E+02  2.39585E+03 -3.20737E+03  2.58076E+03 -5.59457E+03  6.32140E+03  1.61492E+03
  8.08835E+03  1.42264E+03  5.80987E+03  4.53232E+03  6.01830E+02  6.03570E+03 -8.99325E+03  6.30508E+03
 -8.34555E+03  2.31682E+03 -6.52174E+03 -4.04924E+03 -2.17424E+02 -8.71134E+03  8.25583E+03 -6.95136E+02
  8.86430E+03 -3.72561E+03  1.13174E+04  2.87681E+03  6.00654E+03  5.76296E+03  3.69804E+03  3.67699E+03
 -7.87097E+01  8.32066E+03 -5.00348E+03 -2.51191E+03 -1.69518E+03 -6.95943E+02  2.80665E+03 -1.72011E+03
  3.95960E+02 -2.94843E+02  4.05305E+03  6.99396E+03 -2.28632E+03  5.96459E+03 -1.79895E+03  9.46350E+02
 -2.34902E+03 -4.13323E+03  2.46382E+03 -6.19967E+03  7.31646E+03 -6.86075E+03  6.34761E+03 -3.34205E+03
  7.40812E+03  4.24295E+03  2.03406E+03  5.44201E+02 -4.01152E+03  5.17014E+03 -3.62671E+02  4.52113E+03
 -1.19116E+04 -1.92544E+03 -6.43368E+03 -2.57745E+03 -9.97063E+01 -9.90439E+03  4.44945E+03 -5.39570E+03
  4.55463E+03  6.33233E+02  1.58800E+01  2.36236E+03  2.15786E+03  5.91469E+03  4.04103E+03  3.58535E+03
 -8.91383E+02  2.76815E+03  1.53745E+03 -3.15558E+03 -1.22952E+03  3.66805E+03  2.17546E+03  6.43398E+03
 -4.29633E+03  4.54967E+03 -6.96008E+03  6.46362E+03 -9.36461E+03 -3.36405E+03 -7.40281E+03 -6.43321E+03
 -2.32618E+03 -5.84157E+03  1.55730E+03 -6.83626E+03  6.47850E+03 -4.29835E+03  2.91359E+03 -4.46170E+03
  5.96640E+03 -7.13376E+01 -1.67851E+03  3.45261E+03  1.25451E+03  1.06570E+03  1.83779E+03 -9.22559E+02
 -1.64042E+03 -1.85107E+03  5.58364E+03 -2.85822E+03 -2.25088E+03 -5.58812E+02  5.88353E+02  8.71726E+02
  2.42403E+03  2.07868E+03  8.35305E+02 -4.65292E+03 -4.00727E+03 -1.17793E+02  1.60695E+03 -3.78288E+03
  2.05366E+03  3.17395E+03  2.72770E+03 -1.97887E+03 -7.99933E+02  4.57560E+02 -2.38691E+03  8.05834E+03
 -1.91766E+03 -3.11738E+02 -5.52717E+03 -1.27528E+03 -6.80126E+03 -5.10858E+03  1.36852E+03 -1.45096E+03
  4.71470E+03 -3.25343E+03 -5.44316E+03  4.79517E+03 -1.21264E+03  1.07577E+03 -4.05244E+03  2.28051E+03
 -7.02444E+03 -1.44645E+03  2.41804E+03 -2.43612E+03 -2.86856E+03 -1.35194E+03  2.47455E+03 -2.00636E+03
  3.60112E+02 -7.09912E+02  4.60905E+03  1.87266E+03  3.46128E+03 -2.80214E+03 -4.75337E+03  3.10539E+03
 -7.17725E+01  1.89601E+03  1.54349E+03 -1.83284E+03 -5.13640E+03 -1.80061E+03  5.31061E+01 -2.73700E+03
  9.22221E+02 -1.31790E+03  2.45278E+03  6.89090E+02  2.77461E+03  6.03361E+03 -1.90219E+03  5.24434E+03
  7.24205E+02  3.35051E+02  9.71960E+02 -2.40361E+03  1.99339E+03 -1.02396E+03  1.84569E+03 -4.44192E+03
  2.78605E+03  2.66305E+03  3.58297E+02 -1.02974E+02  2.78184E+03  3.38238E+03  1.08897E+03  6.13224E+03
 -5.47856E+03  8.57208E+01 -4.57886E+03 -1.12359E+03  2.90537E+03  8.72376E+02  2.64753E+03  1.02780E+03
  9.74709E+02  1.08814E+02 -6.62756E+03  6.37787E+02 -4.35146E+03 -1.47398E+03 -2.64104E+03 -8.66997E+02
  2.81432E+02 -5.67148E+03 -1.36024E+03 -6.92818E+03 -1.85202E+03 -4.02499E+03  1.37211E+03  8.32175E+02
  3.84209E+03 -2.19981E+03  7.11969E+01  5.97989E+03 -1.11226E+03  6.01226E+03  7.55352E+02  5.07561E+03
 -4.00547E+03  3.82441E+03 -2.94443E+03 -6.79571E+03  1.42034E+03  7.02906E+01 -5.82872E+03  9.59483E+02
  1.84266E+03 -4.65508E+03 -7.85100E+02 -2.17161E+03  1.04527E+03 -2.61948E+03 -1.62235E+03 -8.70481E+02
 -7.04551E+01 -1.23130E+03 -5.78003E+02 -1.85101E+03 -1.59843E+03 -6.83584E+02 -2.34951E+03  1.41218E+03
 -2.69304E+03  3.09910E+03 -4.45192E+03  4.06628E+03 -8.16189E+03  2.93764E+03 -7.82224E+03 -1.92659E+03
 -5.23784E+03 -3.62012E+03  4.66610E+03 -7.15214E+03  2.42944E+03 -6.57300E+03  5.55313E+03 -6.05168E+02
  1.07629E+03 -2.85625E+02 -6.54923E+02  8.22726E+02 -6.29805E+03 -3.65235E+03 -7.81911E+02 -1.58432E+03
  2.25556E+03  2.88136E+03  3.73497E+03  1.38992E+03 -9.81862E+02  2.74290E+03 -2.70409E+03  3.97558E+03
 -7.36964E+03  4.22799E+03 -4.34936E+03  7.22483E+02 -3.73587E+01  7.12923E+02  1.08123E+03 -2.79474E+03
  8.82061E+02  3.49784E+03  2.72816E+03 -2.22771E+03 -1.35814E+03 -1.81073E+03  1.26487E+03  6.47011E+03
  5.21903E+03  3.53690E+03  6.93948E+02  2.57783E+03 -3.94710E+03 -2.81010E+02  3.31428E+02 -1.03633E+03
 -2.74926E+03  2.87300E+03  3.56508E+03  3.27123E+02  1.96537E+03  4.29661E+02 -2.87930E+02 -2.23382E+03
 -5.00818E+03 -4.65639E+03 -5.82624E+02 -3.32238E+03 -2.64252E+03 -8.66977E+03 -1.21673E+03  2.50105E+03
  2.32537E+03 -9.17023E+01 -2.85953E+03  6.56598E+03  3.85140E+02 -9.68383E+02  1.19702E+03  8.80698E+02
