 $NMID ID='MM_0lb_SNR50_16hz_g60_53.RAW', FMTDAT='(8E13.5)'
 TRAMP=1., VOLUME=1. $END
  3.10128E+05  7.86359E+02  3.37897E+05  2.50234E+05  8.62728E+04  3.38271E+05 -1.30661E+05  2.52425E+05
 -1.92531E+05  8.38154E+04 -1.13439E+05 -3.09541E+04  2.43907E+03 -5.42389E+04  5.31428E+04 -1.69439E+03
  3.77200E+04  4.81427E+04 -1.65907E+04  6.82801E+04 -6.15564E+04  6.59889E+04 -8.07886E+04  3.57225E+04
 -8.09242E+04 -1.13852E+04 -6.37040E+04 -5.48964E+04 -1.60474E+04 -6.79124E+04  2.85599E+04 -4.94015E+04
  3.85141E+04  4.57541E+03  1.46906E+04  5.01467E+04 -3.68585E+04  4.49056E+04 -6.51511E+04 -4.06759E+03
 -5.28383E+04 -5.92952E+04 -2.33575E+03 -7.51195E+04  4.00316E+04 -4.95637E+04  4.83906E+04 -2.04402E+04
  4.53002E+04  1.16748E+04  3.22154E+04  2.75031E+04  2.04215E+04  2.81026E+04 -2.42711E+03  2.43201E+04
 -2.17803E+04  1.27088E+04 -1.54601E+04 -5.48020E+03  4.31782E+03 -4.04797E+03  2.14907E+04  1.05207E+04
  4.25325E+03  3.97975E+04 -2.96464E+04  3.39375E+04 -6.55967E+04 -2.77600E+02 -5.69185E+04 -4.74651E+04
 -1.19781E+04 -6.89133E+04  4.12540E+04 -4.16879E+04  5.86131E+04 -5.98707E+03  3.65159E+04  3.40062E+04
 -7.78890E+03  3.85665E+04 -2.57198E+04  1.73059E+04 -2.66234E+04 -8.66427E+03 -1.58657E+04 -1.03608E+04
 -7.59531E+03 -1.20034E+04  3.55524E+03 -1.31539E+04  4.86538E+03 -2.55200E+04  1.34355E+04 -1.10710E+04
  1.08831E+04  6.37726E+03 -4.81093E+03  1.40831E+04 -2.16402E+04 -4.83301E+03 -6.45796E+03 -3.22434E+04
  2.55570E+04 -4.39474E+04  5.03043E+04 -1.35766E+04  4.35244E+04  2.14930E+04  1.72875E+04  4.52721E+04
 -1.51645E+04  3.18082E+04 -2.41424E+04  1.72453E+02 -1.26425E+04 -2.57516E+04  1.91549E+04 -3.52305E+04
  3.87337E+04 -1.15214E+04  3.86673E+04  2.38826E+04  1.59216E+04  4.87534E+04 -9.62925E+03  5.30340E+04
 -3.50564E+04  3.22329E+04 -4.59431E+04  7.74668E+03 -4.53988E+04 -2.11793E+04 -2.49335E+04 -3.70830E+04
  7.74813E+03 -3.85516E+04  3.26805E+04 -1.45323E+04  2.38552E+04  8.86349E+03  5.70325E+02  1.81517E+04
 -1.51989E+04  1.07747E+04 -1.52146E+04 -9.62189E+03  7.88248E+03 -1.13713E+04  1.56509E+04  4.03854E+03
  1.15401E+04  2.60123E+04 -8.45988E+03  2.71651E+04 -2.32043E+04  1.30960E+04 -2.47458E+04 -7.43593E+03
 -2.05895E+04 -1.71668E+04 -8.51103E+03 -2.02712E+04  3.29237E+03 -2.20572E+04  1.45582E+04 -1.92508E+04
  2.96999E+04 -1.33034E+04  3.45058E+04  8.92007E+02  2.46532E+04  1.74628E+04  7.38147E+03  3.73974E+04
 -1.89910E+04  2.92385E+04 -3.15661E+04  1.04868E+04 -1.96797E+04 -8.06683E+03 -2.61565E+03 -1.65613E+04
  2.02860E+03 -2.02960E+03 -9.13945E+03  9.63483E+03 -1.37426E+04  4.67619E+03 -1.57433E+04 -2.84653E+02
 -1.19345E+04 -1.93251E+04  3.66583E+03 -2.11626E+04  1.17279E+04 -2.00659E+04  2.15623E+04 -6.00340E+02
  1.16543E+04  1.24825E+04 -1.83877E+03  1.56308E+04 -1.28206E+04  8.83007E+03 -1.93239E+04 -2.65812E+03
 -1.17752E+04 -1.51403E+04 -3.46342E+03 -2.52268E+04  9.05727E+03 -2.10025E+04  1.05615E+04 -8.95121E+03
  1.28788E+04  1.30492E+02  1.66276E+04  8.06010E+03  8.09547E+03  3.68640E+03  1.11395E+04 -6.89643E+02
  1.96830E+04  6.88976E+03  2.00120E+04  1.69682E+04  1.20545E+04  3.00507E+04  1.55740E+03  2.85591E+04
 -1.65711E+04  2.72381E+04 -2.94466E+04  1.20802E+04 -3.50476E+04 -8.01128E+02 -3.07933E+04 -1.58886E+04
 -1.01424E+04 -2.16436E+04  6.32840E+03 -2.47094E+04  1.97082E+04 -1.42201E+04  2.18644E+04  7.41832E+03
  6.21764E+03  1.42611E+04 -5.22248E+03  1.40972E+04 -1.29050E+04  4.81238E+03 -1.70925E+04 -1.14537E+04
  1.75425E+03 -1.53006E+04  6.51293E+03 -1.22765E+04  1.10532E+04 -3.93013E+03  5.17920E+03  5.75645E+03
 -6.74326E+03 -3.98819E+03 -1.28134E+03 -5.83855E+03 -3.52446E+03 -1.40819E+04  8.92331E+03 -1.89753E+04
  1.58681E+04 -5.28752E+03  1.74190E+04 -2.80319E+03  1.44157E+04  1.16196E+04  8.00380E+03  1.84347E+04
 -1.80256E+03  2.03494E+04 -1.73256E+04  1.10441E+04 -1.23214E+04  3.19872E+02 -1.54737E+04 -4.78176E+03
 -2.46140E+03 -8.62296E+03 -2.40883E+03 -2.57357E+03 -3.55813E+03  4.08758E+03 -3.11008E+03  7.52465E+03
 -1.40091E+04 -4.52687E+03 -1.01619E+04 -1.14236E+04 -5.34265E+02 -1.22376E+04  3.39111E+03 -1.22303E+04
  1.30595E+04 -2.17169E+03  8.08675E+03  4.40167E+03  5.33423E+02  2.52959E+03 -3.86030E+03  8.27155E+02
 -1.33998E+03 -8.06358E+03  1.00862E+03 -9.44165E+03  1.42217E+03 -1.46894E+04  1.33678E+04 -6.18155E+03
  1.70704E+04  6.43039E+02  1.49723E+04  1.24531E+04  1.69496E+03  1.59340E+04 -6.75187E+03  1.38627E+04
 -7.30848E+03  3.02038E+03 -5.13390E+03 -1.42533E+03  4.47850E+02 -7.99310E+03  5.67673E+03 -4.84679E+03
  6.84634E+03  5.42018E+03  3.70437E+03  5.76861E+03 -6.84847E+03  9.76938E+03 -8.86976E+03  2.65658E+03
 -5.05469E+03 -4.46114E+03 -1.48771E+03 -8.82614E+03  5.06399E+03 -5.83411E+03  2.48817E+03 -4.66899E+02
 -1.80629E+03  3.38462E+02 -1.09392E+04  2.18988E+03 -6.08172E+03  5.27260E+03 -9.26794E+03 -2.40709E+03
 -3.49722E+03 -8.43536E+03 -1.29096E+02 -1.05736E+04  1.14578E+04 -4.34984E+03  6.69311E+03 -1.86852E+03
  3.72406E+03  7.65541E+03 -3.50307E+03  6.76187E+03 -5.28214E+03  7.33982E+03 -7.67762E+03  4.04735E+03
 -9.22287E+03 -1.00327E+04 -8.46193E+01 -2.82593E+03  4.47564E+03 -5.76234E+03  7.28665E+02 -6.58533E+03
  5.93114E+03 -6.68047E+02 -7.62176E+02  6.25679E+02 -6.46353E+02 -3.36847E+03 -8.03164E+02 -5.47672E+03
  5.47616E+03 -8.74593E+02  1.10065E+04  1.62562E+03  6.30551E+03  3.24554E+03  1.24889E+04  1.55398E+04
 -3.79182E+03  9.09545E+03 -1.04176E+04  1.10688E+04 -1.09171E+04  3.57301E+03 -1.05111E+04 -1.84221E+03
 -1.66169E+03 -2.74297E+03  4.59996E+03 -8.32322E+03 -1.03029E+03 -3.45549E+02  1.48413E+03 -8.85556E+02
  3.91914E+03 -1.98940E+03  9.76926E+02 -3.69761E+03  7.81851E+03  2.77539E+02  8.65562E+02  7.35760E+01
  4.32372E+03 -5.92810E+02  6.31408E+03  4.16520E+03 -1.53453E+03  1.79461E+03 -7.92972E+03  4.08119E+03
 -7.27075E+03  2.52408E+03 -3.84160E+03 -4.60509E+03  1.55297E+03 -9.09726E+03  3.10940E+03 -6.84604E+03
  1.02319E+04 -4.46494E+03  9.58348E+03 -6.32278E+02  8.21407E+03  7.95671E+03  1.83011E+03  5.88581E+03
 -3.74352E+03  1.05771E+04 -4.76839E+03  6.01868E+02 -3.03332E+03 -1.94457E+03 -2.16112E+02 -2.35357E+03
  4.49189E+02 -2.48917E+03 -4.25430E+03  1.49578E+02  7.36116E+02  5.09659E+02 -5.54733E+03 -5.15888E+02
  3.81964E+03 -2.42892E+02  2.07184E+03 -7.62656E+03  7.14054E+03 -7.17966E+03  1.14539E+03 -5.54189E+02
  8.17480E+03  4.89788E+03  9.41480E+02  8.71824E+03 -1.68804E+03  8.93127E+03 -3.84160E+03  6.21683E+03
 -5.18714E+03  2.14387E+03 -1.16005E+03 -1.30951E+03 -1.12555E+02 -4.01383E+03  3.28883E+03 -2.78893E+03
  5.71267E+03 -1.70517E+03  6.11923E+03  1.77368E+03  2.47308E+03  8.74479E+01 -1.46182E+02 -2.13460E+03
  5.60700E+01 -8.38732E+02 -5.18463E+03 -4.18844E+02  4.86661E+03  2.35274E+03  1.66111E+03  4.22914E+03
 -2.21512E+03  4.25497E+03 -6.86009E+03  4.28197E+03 -5.44624E+03  4.67675E+03 -1.04005E+04 -1.69120E+03
 -5.81661E+02 -6.88485E+03  1.72203E+02 -6.45521E+03  3.61599E+03 -6.09619E+03 -2.99026E+02 -5.14121E+03
 -2.31018E+03  6.17689E+03  2.53186E+03  3.16190E+03  1.76007E+03  3.39126E+03 -5.55406E+03 -1.33099E+03
  3.65976E+03 -3.58421E+03  2.98078E+03 -3.93828E+03  1.06176E+03 -7.53208E+02 -1.98736E+03  3.98944E+02
  2.08578E+03  4.82670E+02  1.19974E+03 -1.08834E+03  6.70364E+03  2.85833E+03  3.58780E+03 -1.95387E+03
  7.32190E+03 -3.92676E+03  9.94346E+02 -1.57993E+03 -1.48999E+02  5.72867E+03 -3.23136E+03  1.55908E+03
 -2.67375E+02  5.17812E+02 -3.25493E+03 -3.90832E+02 -1.18563E+03 -2.22980E+03 -4.30629E+03  2.59742E+02
 -4.70848E+02 -3.64740E+03  1.50931E+03  1.23495E+03  8.11906E+02 -2.74694E+03  1.71115E+03  8.71990E+02
 -5.95116E+03  6.82171E+02 -5.21532E+03 -3.15302E+03 -2.91866E+02 -6.98818E+03 -1.87136E+03 -4.15999E+03
 -2.96900E+03 -5.86874E+01  1.42525E+03  2.34610E+02  3.45191E+03 -1.46419E+03  6.11043E+03  2.31540E+03
 -3.23238E+03  8.51110E+02 -1.98712E+03 -3.59906E+03 -1.33806E+03  1.03933E+03  2.80563E+03 -1.68032E+03
  7.73464E+02  6.58806E+02  1.47480E+03  3.66690E+03  2.43823E+03  2.58439E+03 -4.53300E+03  1.27606E+03
  1.01224E+03  9.43085E+02 -6.18592E+03 -7.83505E+02 -2.94508E+03 -3.30345E+03 -1.00873E+03 -1.37993E+03
  4.05882E+03  2.96288E+03 -1.36020E+03 -5.19669E+03 -1.11436E+03 -3.54494E+03 -4.38534E+02  3.55537E+03
  1.40405E+02  5.75885E+03  4.46347E+02 -1.97623E+03  2.51121E+03  1.33294E+03 -2.52835E+03  5.81109E+02
 -5.66323E+02  1.76087E+03 -1.00017E+03  2.17370E+03 -1.61892E+03 -4.30938E+03 -2.37240E+03  4.74185E+02
 -5.66080E+03 -8.38480E+02 -2.55609E+03 -4.43176E+03 -2.34996E+01  1.57283E+02  8.30161E+03  1.74686E+03
  2.23861E+03  2.56594E+03  4.94971E+03  6.07435E+03 -1.87937E+03  3.42814E+03 -7.14275E+02  1.49733E+03
 -4.40641E+02  4.41496E+03  2.10625E+03  4.95379E+03 -2.41737E+03  2.26371E+03 -1.39374E+03 -6.65612E+02
  2.82786E+03 -1.94768E+03  1.13730E+03  3.62328E+03  2.24948E+03  5.27757E+02 -9.25049E+02 -2.39283E+02
 -2.13923E+02 -4.05065E+02  7.47924E+02 -7.91104E+02 -1.22042E+01  2.55553E+02  1.14023E+03  3.25184E+02
  1.45476E+02  4.69026E+03 -7.85724E+02  3.55978E+03 -1.50149E+03  1.02222E+03 -6.17361E+03  1.05824E+03
  1.88842E+03 -2.63895E+03  5.55186E+03 -3.06435E+02 -2.24600E+03  9.70080E+02 -2.65942E+03  3.61429E+03
  2.02615E+03  7.44759E+02  1.03919E+03  2.93354E+03 -1.26104E+03  1.59661E+03 -8.62874E+02  7.91691E+02
  3.27487E+03  6.57258E+02  1.09470E+03 -1.39438E+03 -2.85287E+02 -3.33794E+03  1.23242E+03  2.23733E+02
  1.18462E+03  1.62596E+03 -1.99809E+03  2.10616E+03  9.14831E+02  2.51023E+01  1.41264E+03 -4.16584E+03
  1.11450E+03 -2.75477E+03  3.80470E+03 -1.48742E+03  2.71419E+03 -2.22925E+03  9.07578E+02  1.79487E+02
  2.31577E+03  5.08061E+03 -2.83938E+03  1.65765E+03 -5.64222E+00  2.72327E+03  2.32328E+03 -3.55736E+03
 -1.13141E+03  2.72640E+02 -4.04099E+03  2.15832E+03 -3.26721E+03  3.04486E+03 -1.07638E+03 -6.87777E+02
 -2.86394E+03 -3.84936E+02  1.81008E+03 -9.13540E+02  2.07621E+03 -2.69208E+03 -1.09667E+03 -2.29221E+03
  8.94308E+01 -7.17777E+02 -1.39291E+03  1.02766E+03 -4.48714E+03 -1.72332E+03  3.49758E+03 -4.04639E+02
