 $NMID ID='MM_0lb_SNR50_8hz_g50_8.RAW', FMTDAT='(8E13.5)'
 TRAMP=1., VOLUME=1. $END
  3.12163E+05  2.80386E+03  3.40235E+05  2.50833E+05  7.34313E+04  3.30302E+05 -1.30909E+05  2.48711E+05
 -1.93473E+05  8.56340E+04 -1.16700E+05 -2.63249E+04  4.40967E+03 -5.23797E+04  6.29618E+04 -1.55438E+03
  3.70688E+04  5.31333E+04 -2.11555E+04  7.33522E+04 -6.33966E+04  6.36580E+04 -8.71767E+04  2.59082E+04
 -8.12231E+04 -1.59647E+04 -6.48545E+04 -5.04479E+04 -1.76816E+04 -7.30753E+04  2.39262E+04 -5.30435E+04
  4.26298E+04  1.75160E+03  9.58809E+03  5.10163E+04 -3.39684E+04  5.21593E+04 -6.83074E+04  1.33261E+03
 -5.39741E+04 -5.19670E+04 -1.51245E+04 -8.53060E+04  3.06036E+04 -4.78116E+04  5.02387E+04 -2.02839E+04
  4.81999E+04  4.94142E+03  3.29371E+04  2.65745E+04  1.91466E+04  2.84319E+04 -1.13585E+04  2.83744E+04
 -2.89870E+04  1.50468E+04 -1.88680E+04 -3.44091E+03  1.97117E+03 -8.41856E+03  3.08513E+04  4.59932E+03
  4.04233E+03  3.45483E+04 -3.80241E+04  3.28176E+04 -7.09905E+04  6.07033E+03 -5.36384E+04 -4.45138E+04
 -1.40276E+04 -6.04155E+04  4.28635E+04 -4.63910E+04  7.05624E+04 -2.99581E+02  2.83739E+04  3.16217E+04
 -3.99772E+03  3.63344E+04 -2.89287E+04  2.17014E+04 -2.84893E+04 -2.51512E+03 -1.82158E+04 -6.32787E+03
 -1.11151E+04 -1.11711E+04 -6.74109E+03 -1.97764E+04  1.01834E+04 -2.05725E+04  1.68845E+04 -1.10987E+04
  5.77147E+03  4.80240E+03 -4.93080E+03  1.42339E+04 -2.35174E+04 -3.02718E+03 -9.35252E+03 -4.05698E+04
  3.04841E+04 -4.89257E+04  5.40474E+04 -2.25316E+04  5.38418E+04  1.98636E+04  1.81176E+04  5.31608E+04
 -1.66775E+04  4.07958E+04 -3.19576E+04  2.79963E+03 -1.76227E+04 -2.68105E+04  1.90381E+04 -3.72343E+04
  4.96598E+04 -3.49368E+03  3.63999E+04  2.84462E+04  2.12102E+04  4.63824E+04 -9.69001E+03  5.93481E+04
 -3.70493E+04  4.51524E+04 -5.08682E+04  6.50282E+03 -5.19631E+04 -2.20018E+04 -2.32051E+04 -3.91105E+04
  9.46558E+03 -4.54298E+04  3.76812E+04 -1.45659E+04  3.68143E+04  6.90406E+03  1.14413E+03  2.07916E+04
 -1.16039E+04  8.77910E+03 -1.55414E+04 -1.44181E+04  4.04658E+03 -1.26232E+04  1.80332E+04  3.19628E+03
  1.62614E+04  2.00814E+04 -1.13079E+03  2.35938E+04 -1.77637E+04  1.31901E+04 -4.09313E+04 -3.22022E+03
 -2.81708E+04 -1.77077E+04 -7.77644E+03 -2.56523E+04  7.67765E+03 -3.16341E+04  2.73733E+04 -2.20110E+04
  3.15979E+04 -1.50354E+04  4.36775E+04  9.44147E+03  2.70440E+04  1.73394E+04  5.05802E+03  4.20025E+04
 -2.56869E+04  4.11502E+04 -3.54625E+04  1.35252E+04 -2.13071E+04 -1.04941E+04 -8.18946E+03 -1.01643E+04
  2.02886E+03 -1.76289E+02 -5.56138E+03  5.98848E+03 -1.93639E+04  1.36100E+02 -2.04002E+04 -1.66141E+04
 -1.86247E+04 -2.98129E+04 -1.72647E+03 -3.34153E+04  2.30798E+04 -1.91741E+04  2.10520E+04  3.93642E+03
  1.37185E+04  1.46427E+04  7.56649E+02  2.89651E+04 -1.35193E+04  1.10193E+04 -2.91357E+04 -2.55158E+03
 -1.33362E+04 -2.22531E+04 -5.16022E+02 -3.24808E+04  1.70691E+04 -2.54929E+04  2.65978E+04 -1.27351E+04
  2.95430E+04 -1.33945E+02  1.68437E+04  4.57372E+03  1.18343E+04  9.87741E+03  2.92715E+03 -7.84580E+02
  2.11149E+04  2.74005E+03  2.75527E+04  2.72444E+04  1.76684E+04  3.41511E+04 -4.98946E+02  4.59096E+04
 -2.30342E+04  3.20575E+04 -4.21014E+04  2.21012E+04 -4.42317E+04 -9.67676E+03 -3.85327E+04 -2.61918E+04
 -1.41290E+04 -3.98341E+04  2.24805E+04 -3.04786E+04  2.70313E+04 -1.19195E+04  2.09365E+04  1.08274E+04
  1.16333E+04  1.80465E+04 -9.54300E+03  1.45356E+04 -2.25276E+04  9.07148E+03 -1.88768E+04 -1.65320E+04
 -2.67701E+03 -2.21644E+04  8.15227E+03 -8.44059E+03  1.74054E+04  7.55620E+02  6.53059E+03  4.99734E+03
 -9.85277E+03  7.99496E+03 -4.97389E+03 -9.83342E+03  3.31653E+03 -1.88154E+04  1.14882E+04 -2.24864E+04
  2.77137E+04 -8.56419E+03  3.02241E+04  3.05114E+03  2.95226E+04  2.34420E+04  1.20929E+04  3.06232E+04
 -4.15741E+03  2.82169E+04 -1.97582E+04  1.74717E+04 -2.72471E+04  7.19887E+03 -1.42647E+04 -2.77863E+03
 -1.11082E+04 -1.17304E+04  3.88274E+03  2.78152E+02 -5.85033E+03  5.39041E+03 -9.33226E+03  7.26692E+03
 -1.73360E+04 -1.55564E+03 -1.71870E+04 -1.15743E+04 -4.69035E+03 -2.40841E+04  8.37402E+03 -1.14289E+04
  1.36406E+04 -9.56742E+03  9.35738E+03  1.25573E+04 -4.62347E+03  5.76514E+03 -1.61534E+04  7.54072E+02
 -1.05131E+04 -8.76971E+03 -2.15301E+03 -1.69068E+04  1.30350E+04 -2.09525E+04  2.04110E+04 -1.34924E+04
  2.14967E+04  1.23805E+03  1.89831E+04  1.13387E+04 -4.86037E+03  1.68641E+04 -4.73280E+03  1.64654E+04
 -9.09084E+03  4.22855E+03 -4.86057E+03 -5.79288E+01 -2.17660E+03 -2.07972E+03  4.29536E+03 -1.19720E+03
  1.10229E+04  9.05425E+03 -3.19885E+03  4.16074E+03 -3.11330E+03  1.32493E+04 -1.59047E+04  7.04120E+02
 -1.29483E+04 -9.80826E+03  7.94372E+01 -1.45604E+04  1.44840E+04 -7.94173E+03  1.63163E+03  8.87405E+03
  7.96452E+02  7.89518E+03 -1.07634E+04  1.80825E+04 -1.15421E+04  1.32405E+04 -1.32100E+04 -5.50145E+03
 -1.26362E+03 -8.39405E+03  2.54605E+03 -2.15756E+04  2.12363E+04 -1.38579E+04  1.73882E+04  8.39974E+02
  6.54997E+03  1.69653E+04 -2.83859E+03  1.98505E+04 -8.09472E+03  3.02461E+03 -1.44592E+04  3.27869E+03
 -1.72219E+04 -1.19488E+04 -1.15254E+03 -1.70995E+04  3.90143E+03 -1.12323E+04  1.03993E+04 -3.91175E+03
  1.14671E+04  5.93837E+03  4.89715E+03 -2.76608E+03  2.41334E+02  4.04561E+03 -4.09612E+03 -9.39467E+03
  1.03505E+04 -4.91177E+03  2.42456E+04  5.65029E+03  8.40900E+03  1.09455E+04  4.11891E+03  2.17467E+04
 -5.73545E+03  3.25617E+04 -1.65579E+04  2.44657E+04 -3.19614E+04  1.04617E+04 -2.26371E+04 -1.37444E+04
 -8.87810E+03 -1.42055E+04  3.34541E+03 -1.52938E+04  9.59704E+03 -9.71542E+03  1.08370E+04 -5.49908E+03
  4.79546E+03 -1.09701E+04  3.78441E+03 -1.58721E+03 -3.62943E+03 -5.57344E+03  9.98538E+03 -3.24394E+03
  1.34161E+04  3.30888E+03  3.99757E+03  5.68507E+03  3.69677E+02  1.23890E+04 -8.75699E+03  7.42965E+03
 -1.50909E+04 -2.79100E+03 -1.32250E+04 -1.87361E+04 -2.15518E+03 -1.93691E+04  1.23134E+04 -1.95403E+04
  1.84723E+04 -9.46594E+03  2.12145E+04  4.95045E+03  1.31635E+04  1.52944E+04  2.77946E+03  2.11037E+04
 -5.47555E+03  5.79077E+03 -1.13548E+04  9.34676E+03 -4.80684E+02 -4.57969E+03  1.96830E+03  9.33928E+02
 -2.09544E+03  5.81495E+02 -8.20880E+02 -1.31550E+03 -1.96991E+03  2.02287E+03 -6.76485E+03 -6.82832E+03
 -1.12739E+04 -1.26991E+04 -3.72218E+03 -1.70302E+04  1.13652E+04 -1.45016E+04  1.48967E+04 -6.54642E+03
  1.29899E+04  2.19323E+03  5.37116E+03  2.28707E+04  3.10213E+02  1.43941E+04 -1.33701E+04  8.90105E+03
 -1.85535E+04  3.40969E+03 -1.44155E+04 -5.56652E+03  5.34571E+03 -1.29121E+04  1.14227E+04 -1.41196E+04
  1.18168E+04 -3.43426E+03  3.29889E+03  4.66771E+03  1.21493E+04  5.32947E+03  2.83321E+03  6.12867E+02
  4.87089E+03  1.47195E+03 -1.17429E+03  2.79265E+03 -4.82653E+02 -8.33190E+02  5.24762E+03  5.62565E+03
 -6.60799E+03  1.23704E+04 -1.34541E+04  1.06778E+04 -1.60227E+04 -1.41572E+02 -1.84058E+04 -6.50020E+03
 -7.62382E+03 -1.64328E+04  1.70402E+02 -2.28460E+04  1.47563E+04 -1.36559E+04  1.90888E+04 -5.85668E+03
  7.45382E+03  7.89277E+03  8.29846E+03  1.25552E+04 -1.05601E+04  4.74620E+03 -2.62071E+03 -3.52165E+03
  7.12882E+02 -2.90876E+03 -8.85918E+02 -8.12478E+03  6.09350E+03 -8.27573E+03  4.43632E+03  5.25276E+03
  5.46900E+03  1.01518E+04  3.87605E+03  6.47276E+02 -8.22703E+02  3.87380E+03  1.81206E+03  2.77079E+03
 -1.25892E+03  8.89237E+03  4.75789E+03 -3.43624E+03  3.03205E+03  1.45597E+04  1.20108E+03  1.14441E+04
 -6.19890E+03  8.00016E+03 -6.45714E+03  6.17550E+03 -1.50062E+04 -3.85916E+03 -6.01569E+03 -8.77872E+03
  1.93441E+03 -9.40278E+03  9.19067E+03 -4.51364E+03  4.24739E+03  1.17994E+04 -1.56493E+03  5.49982E+03
 -5.67891E+03 -9.11324E+02 -6.67203E+03 -4.04326E+03 -7.97241E+02 -6.30314E+03  3.85313E+03 -1.13967E+04
  2.89604E+03 -1.19102E+04  4.20478E+03 -9.98729E+02  3.73887E+03  1.04927E+03 -3.73637E+03  2.53829E+03
  6.78134E+02  5.08434E+03 -1.93864E+03 -2.19958E+03  2.04207E+03 -1.13051E+04  1.86667E+03 -1.56297E+04
  1.13164E+04  5.35875E+02  7.11192E+03  6.02564E+03  6.06748E+03  1.43243E+04 -3.88042E+02  2.11741E+04
 -7.32549E+03  1.13093E+04 -5.52818E+03 -1.97940E+03 -7.65896E+03 -2.45106E+03 -6.27587E+03 -3.64403E+03
  1.04132E+04 -1.45820E+03  1.41411E+04  1.36737E+03  6.98223E+03  7.17342E+03 -4.07003E+03 -5.20928E+02
 -4.97387E+03  2.50861E+03  2.49128E+03  6.38726E+03 -1.33999E+03  2.93137E+03 -6.02011E+03  9.35761E+03
 -3.91590E+03 -1.21626E+03 -7.79175E+03  3.11337E+02 -1.44031E+04 -3.33762E+03 -4.59704E+03 -1.02050E+04
 -3.93004E+03 -1.12080E+04 -2.10049E+03 -1.77176E+04  9.82128E+03 -1.95071E+04  1.79696E+04 -5.71291E+03
  1.38276E+04  1.01727E+03  1.03927E+04  1.09044E+04 -7.29419E+02  8.32744E+03 -2.72484E+03  9.39156E+03
 -7.17189E+03  3.05664E+03 -8.37895E+03  4.98917E+03 -1.79646E+03  7.05745E+03  9.21259E+02  6.12177E+03
 -2.20286E+02  3.96048E+03  1.60256E+03  9.45722E+03  1.62517E+03 -2.61245E+03 -2.19111E+03 -6.50347E+03
  1.18894E+04  1.05556E+03  1.22371E+04  5.28244E+03  5.06443E+03  7.17430E+03  7.52007E+03  1.70580E+04
 -1.57421E+03  1.87097E+04 -8.83556E+03  6.17688E+03 -7.45232E+03 -4.37097E+03 -1.20714E+04 -1.52248E+04
 -4.38193E+03 -1.44587E+04  2.92006E+03 -8.52748E+03  7.73555E+03 -5.40974E+03  4.96102E+03 -1.22104E+03
  5.05141E+02  6.22930E+03 -8.34611E+03  2.16202E+03 -4.69266E+03  7.50833E+03  3.59942E+03  5.60476E+03
  6.84687E+03 -5.94156E+03  1.08331E+04  2.99598E+03  2.94729E+02  1.85542E+03 -7.48778E+03  1.11611E+04
 -4.30685E+03  3.42445E+03 -1.12170E+04 -5.06459E+02 -6.40153E+03 -7.78573E+03  4.65843E+02 -7.94959E+03
  1.63360E+03 -3.10885E+03  1.41114E+04  9.30436E+01  9.47632E+03 -2.72739E+03  7.77887E+03  6.34839E+03
 -1.27571E+01  1.04355E+04 -2.46683E+03  6.77303E+03 -3.04676E+03  1.27535E+03 -2.80557E+03 -6.89330E+02
 -6.49355E+03  3.15629E+03 -5.24398E+03  4.24100E+03 -8.40548E+03  4.79780E+03 -3.68554E+03 -7.78905E+02
 -1.70945E+03 -5.80551E+03  2.14566E+03 -1.16714E+04 -5.67359E+03 -4.05892E+03  8.27827E+03 -6.05202E+03
  1.17854E+04 -3.94960E+03  4.60372E+03  3.82351E+03 -5.64150E+03  7.20174E+03 -5.82065E+03  6.20784E+03
