 $NMID ID='MM_0lb_SNR50_8hz_g50_93.RAW', FMTDAT='(8E13.5)'
 TRAMP=1., VOLUME=1. $END
  3.11086E+05  2.18915E+03  3.38046E+05  2.48364E+05  8.75003E+04  3.41638E+05 -1.39353E+05  2.49426E+05
 -1.89796E+05  8.58734E+04 -1.15305E+05 -3.63091E+04 -6.66984E+03 -5.14482E+04  4.86894E+04 -4.91204E+03
  3.27450E+04  5.73354E+04 -1.83760E+04  6.70815E+04 -5.93564E+04  6.34468E+04 -8.37622E+04  3.32940E+04
 -8.13732E+04 -9.12398E+03 -6.16560E+04 -4.85744E+04 -2.22294E+04 -7.09299E+04  2.49496E+04 -4.45673E+04
  4.37984E+04  4.93877E+03  1.76641E+04  4.25116E+04 -3.75466E+04  5.18604E+04 -6.86514E+04 -1.11919E+03
 -5.26714E+04 -6.11665E+04 -8.27608E+03 -8.00475E+04  3.44980E+04 -5.53328E+04  5.10488E+04 -2.14817E+04
  4.59147E+04  1.51595E+04  4.22254E+04  2.60268E+04  1.24229E+04  3.71793E+04 -3.43975E+03  2.44451E+04
 -2.02821E+04  1.58507E+04 -2.11563E+04  1.53026E+03  8.64861E+03 -1.14877E+04  2.19250E+04  1.69099E+04
  3.41565E+03  4.48547E+04 -3.04211E+04  3.64435E+04 -6.96148E+04  7.86003E+03 -5.82823E+04 -4.30689E+04
 -1.35432E+04 -6.78363E+04  3.96558E+04 -4.66989E+04  6.08251E+04 -2.92953E+03  3.77849E+04  2.86777E+04
 -1.24486E+03  3.92357E+04 -2.77367E+04  1.68412E+04 -3.29821E+04 -3.99405E+03 -2.02742E+04 -1.41838E+04
 -9.57836E+03 -1.38288E+04 -1.57998E+03 -2.72136E+04  8.39709E+03 -2.82177E+04  1.72743E+04 -8.64438E+03
  1.40970E+04  5.17484E+03 -1.10809E+04  1.61233E+04 -2.41248E+04 -4.84568E+03 -1.26572E+04 -3.70775E+04
  2.68750E+04 -5.12937E+04  5.69022E+04 -2.52355E+04  5.43047E+04  2.02577E+04  2.01286E+04  5.42487E+04
 -1.45528E+04  3.95446E+04 -2.66946E+04  2.11868E+03 -9.24677E+03 -2.81964E+04  1.40235E+04 -4.00470E+04
  4.52279E+04 -1.10501E+04  4.95975E+04  2.85454E+04  2.17702E+04  4.35385E+04 -4.52339E+03  5.01977E+04
 -3.82813E+04  3.71576E+04 -4.86680E+04  8.26138E+03 -4.92454E+04 -1.92066E+04 -2.99071E+04 -4.23814E+04
  1.20509E+04 -4.33681E+04  2.59673E+04 -1.93905E+04  3.03781E+04  9.72657E+03  1.82976E+03  1.85065E+04
 -7.91618E+03  1.20720E+04 -1.45366E+04 -8.29549E+03  8.65846E+03 -4.96392E+03  2.15487E+04  5.84200E+03
  1.77366E+04  2.07491E+04 -2.87210E+03  2.55668E+04 -2.28265E+04  1.45052E+04 -2.70886E+04  2.66451E+03
 -3.18071E+04 -1.68293E+04 -1.18227E+04 -2.48697E+04  8.32281E+03 -3.12877E+04  1.99711E+04 -2.41597E+04
  3.14255E+04 -1.56594E+04  4.03322E+04  6.65644E+03  2.59591E+04  2.34972E+04  1.29291E+04  4.51337E+04
 -2.33604E+04  3.16966E+04 -3.03374E+04  1.86582E+04 -2.33803E+04 -7.81260E+03 -6.50915E+03 -7.71004E+03
  4.62993E+03 -3.88339E+03  3.44150E+02  1.36379E+03 -2.16980E+04 -2.52884E+03 -2.61197E+04 -1.14400E+04
 -1.57701E+04 -2.38962E+04  1.01147E+04 -3.18142E+04  1.40416E+04 -2.35016E+04  2.39628E+04  1.06529E+03
  1.99381E+04  1.70450E+04  1.47510E+03  2.29955E+04 -1.54807E+04  1.12929E+04 -2.91399E+04 -6.09984E+03
 -1.31228E+04 -2.33988E+04 -5.55112E+03 -2.90616E+04  1.39246E+04 -2.13245E+04  2.76823E+04 -1.57175E+04
  2.41049E+04 -1.94411E+03  2.15261E+04  7.20887E+03  2.97117E+03  9.08251E+02  1.73854E+04 -4.96736E+03
  2.72111E+04 -1.76679E+03  2.93698E+04  2.40934E+04  1.50835E+04  4.08658E+04  8.95877E+02  5.80329E+04
 -2.61546E+04  4.04049E+04 -4.67940E+04  2.24545E+04 -4.45331E+04 -3.16928E+03 -4.03465E+04 -2.67005E+04
 -1.58793E+04 -3.67319E+04  1.49875E+04 -3.77453E+04  3.57175E+04 -1.42839E+04  2.59175E+04  1.04042E+04
  7.15206E+03  2.20322E+04 -9.04880E+03  1.24499E+04 -1.82289E+04  4.24126E+03 -1.30234E+04 -1.06086E+04
 -3.87396E+03 -1.96287E+04  1.15375E+04 -1.16977E+04  2.12581E+04  2.53220E+03  8.70498E+03  8.79909E+03
 -7.18223E+03  8.80317E+03 -1.52493E+04 -7.76399E+03  1.30108E+03 -1.27219E+04  1.01836E+04 -1.83702E+04
  2.83245E+04 -3.92128E+03  2.92717E+04  7.50797E+02  2.69331E+04  2.33276E+04  1.08624E+04  2.52657E+04
 -1.42112E+04  3.35037E+04 -2.30939E+04  1.91300E+04 -2.68526E+04  3.65806E+03 -1.95378E+04 -3.61982E+03
 -6.68851E+03 -1.57296E+04 -4.22312E+02  3.12088E+03 -7.54663E+03  1.20821E+03 -7.78118E+03  6.43074E+03
 -1.07826E+04  1.84185E+03 -2.09640E+04 -6.65048E+03 -8.67899E+03 -2.28104E+04  1.91358E+03 -7.67232E+03
  1.21154E+04 -2.22844E+03  7.87301E+03  7.66994E+03 -1.86826E+03 -2.51548E+02 -3.69975E+03 -1.86518E+03
 -1.03984E+04 -6.07292E+03 -7.33065E+02 -1.23026E+04  6.95459E+03 -1.51981E+04  1.84690E+04 -1.47218E+04
  3.06333E+04  2.93620E+03  1.91947E+04  1.63577E+04  9.77019E+03  2.76864E+04 -9.00593E+03  8.11876E+03
 -1.22464E+04  1.09207E+03 -1.01431E+04 -7.44663E+03  1.82270E+03  2.69397E+03  3.09606E+03  2.80155E+03
  3.87314E+03  9.04921E+03  4.26819E+03  1.06098E+04 -1.27327E+04  1.07058E+04 -1.49046E+04  1.04177E+04
 -1.60619E+04 -2.57073E+03 -3.78703E+03 -1.56639E+04  1.76519E+03 -6.19091E+03  1.12348E+04  8.38944E+03
 -6.72666E+02  7.36962E+03 -1.08745E+04  8.38466E+03 -2.10421E+04  6.81422E+03 -2.13289E+04 -7.46922E+03
 -7.06329E+03 -1.95286E+04  6.73752E-01 -2.29442E+04  1.61416E+04 -1.32605E+04  1.73724E+04  1.65305E+03
  7.67057E+03  1.02810E+04 -4.21816E+03  1.48702E+04 -1.88995E+04  1.47102E+04 -1.80412E+04 -5.50255E+03
 -6.30050E+03 -1.65376E+04 -4.51081E+03 -1.20435E+04  2.24076E+03 -8.61941E+03  1.05905E+04 -3.51208E+03
  2.98791E+03 -6.93173E+03 -4.79015E+03  2.80809E+03  3.98875E+02 -3.06217E+03  2.15006E+03 -4.62996E+03
  8.71164E+03 -1.54913E+04  1.52924E+04  1.37025E+03  1.53211E+04  1.16843E+04  9.87397E+03  2.12766E+04
 -6.03129E+03  2.12917E+04 -2.05527E+04  2.36710E+04 -3.08265E+04  7.56609E+03 -2.64160E+04 -1.47826E+04
 -9.50399E+03 -2.25437E+04  1.03798E+03 -2.00923E+04  6.33233E+03 -6.96022E+03  9.13563E+03 -5.90552E+03
  1.06965E+04  5.36647E+02  1.27042E+04 -9.53424E+03  1.02080E+04 -4.51733E+03  1.39142E+04 -4.78316E+03
  1.27775E+04  4.69035E+03  4.58353E+03  1.81057E+04 -4.75381E+03  1.42417E+04 -1.49246E+04  1.01691E+04
 -1.51348E+04 -7.01549E+03 -6.64651E+03 -1.50869E+04 -5.53438E+03 -2.22682E+04  5.92001E+03 -1.85717E+04
  1.05204E+04 -1.30701E+04  2.38729E+04  7.04997E+03  9.94778E+03  1.23290E+04 -1.10443E+03  1.57115E+04
 -1.36355E+04  1.50660E+04 -6.99245E+03 -7.11573E+03 -9.91647E+03 -2.37135E+03 -6.75735E+03 -4.19782E+03
  2.40839E+03 -2.35003E+03 -3.72768E+03  8.68110E+02  3.97812E+03  3.05168E+03 -6.22797E+03 -3.44652E+03
 -1.35120E+04 -6.81655E+03 -7.89370E+02 -1.86910E+04  1.63358E+04 -1.12751E+04  1.34991E+04 -2.64010E+03
  1.71910E+04  4.19867E+03  5.97351E+03  1.24087E+04 -2.14616E+03  1.65207E+04 -7.79922E+03  1.25429E+04
 -1.65217E+04  3.70775E+02 -1.31513E+04 -1.16867E+04 -4.23137E+03 -1.25363E+04  1.14159E+04 -7.32980E+03
  1.07561E+04 -8.81825E+03  5.34885E+03  6.45721E+03  2.02699E+03  4.63572E+03 -1.07661E+03  3.21962E+03
  1.29130E+04  7.41537E+03  5.51321E+03  7.10506E+03  5.88872E+03  2.87839E+03  5.52242E+03  1.36934E+04
 -4.98520E+03  1.17261E+04 -1.21329E+04  1.25923E+04 -2.17059E+04  6.53408E+03 -1.39096E+04 -7.19474E+03
 -7.98087E+03 -1.31127E+04  2.22783E+03 -1.40461E+04  1.32696E+04 -3.89066E+03  2.09066E+04 -7.52849E+03
  9.95342E+03  8.77977E+03  4.13122E+03  9.53900E+03 -5.58705E+03  7.04846E+03 -8.99194E+03  3.10718E+03
 -2.44181E+03 -8.15968E+03  7.47750E+03 -1.67024E+04  7.40151E+03 -3.05115E+03  1.39003E+03  2.12656E+03
  8.52695E+03  2.68343E+03  2.67513E+03 -1.11376E+02 -6.17150E+03  1.91447E+03  1.46661E+03  3.93810E+03
  8.84595E+02 -9.73868E+03  9.18842E+03  6.74126E+02  8.56032E+03  1.11040E+04  2.82843E+03  9.25768E+03
 -1.73739E+04  2.29302E+03 -1.91905E+04 -8.56679E+03 -1.12036E+04 -7.83817E+03 -6.86317E+03 -4.08874E+03
  1.54596E+03 -1.18128E+04  5.35178E+03  2.49697E+03  8.22210E+03  5.15716E+03 -5.79353E+03  1.53214E+03
 -1.00499E+04  3.82241E+03 -8.93041E+03 -3.25539E+03  2.40201E+03 -1.00631E+04  1.57273E+03 -1.28928E+04
  1.29962E+03 -3.20144E+03  1.25872E+04  4.46963E+02  2.91112E+03  7.42137E+03 -2.32454E+03  1.98195E+03
 -5.22396E+03  1.39765E+03  1.32091E+02 -7.40475E+03  4.41504E+03 -3.36302E+03  9.20337E+03 -3.29484E+03
  1.42201E+04 -1.75402E+03  7.04407E+03  8.47764E+03  1.17662E+03  1.24500E+04 -5.33190E+03  1.25980E+04
 -1.53462E+04  6.13344E+03 -1.45383E+04 -3.51436E+03 -4.18329E+03 -6.62631E+03 -9.13390E+02 -6.30102E+03
  7.71945E+03 -6.37040E+03 -2.99362E+02 -7.05241E+01  2.95725E+03  8.44272E+03  1.79553E+03 -2.40640E+03
 -1.17736E+04 -4.59886E+03  1.30153E+02  1.06584E+00 -2.70554E+03 -3.97835E+03 -7.75938E+03 -5.62957E+03
  2.43397E+03  6.67342E+03 -1.08245E+04  7.66664E+03 -2.91313E+03  1.53278E+03 -1.60542E+04 -9.29570E+03
 -9.63340E+03 -9.85135E+03 -3.54895E+03 -1.23758E+04  9.60622E+03 -1.13354E+04  2.12428E+04 -1.72291E+03
  1.88412E+04  6.83617E+02  7.93069E+03  1.28202E+04 -6.52127E+03  1.24955E+04 -2.86310E+03  1.82471E+04
 -2.63313E+02  2.06527E+03  2.17650E+03  4.12001E+03 -5.10787E+03 -4.33934E+03 -3.22933E+03  4.75830E+03
 -1.10492E+03  3.76983E+03 -3.80078E+03 -3.05363E+03 -8.57391E+02 -5.57524E+03  3.61939E+03 -1.88393E+03
  1.30244E+03 -2.48355E+03  9.18198E+03 -9.74464E+02  1.77050E+03  7.01023E+03  4.45882E+03  6.82039E+03
 -7.06975E+03  1.47898E+04 -9.81467E+03  1.58520E+04 -1.38364E+04  1.83528E+03 -1.29197E+04 -1.56051E+04
 -5.07029E+02 -1.45253E+04  5.20794E+03 -1.17803E+04  1.36332E+04 -4.10760E+02  5.22355E+03  3.76339E+03
  4.07987E+03 -2.86109E+03  1.41878E+03  3.99505E+03 -7.38151E+03 -8.09038E+02  5.49531E+02 -4.50458E+03
  4.22393E+03 -1.02619E+04  2.60902E+02 -8.10872E+03  1.03937E+02  5.41412E+03 -1.89410E+03  5.90881E+02
 -7.16529E+03  6.20775E+03 -1.39922E+04 -5.61063E+03 -9.18698E+03 -6.02232E+03 -1.60095E+03 -7.10785E+03
  2.84331E+03 -1.05994E+04  1.35897E+04 -9.49121E+03  4.13891E+03 -4.78094E+03  7.66902E+03  6.67807E+03
  6.28331E+03  8.70787E+03 -6.66751E+03 -4.10626E+02 -5.76410E+03  2.41440E+03 -8.89238E+03  4.07593E+03
 -1.74640E+03  3.12515E+03 -4.90413E+03 -6.74269E+03 -5.11897E+03  2.47180E+03 -4.39005E+03 -2.88306E+03
 -1.12318E+04 -3.33406E+02 -1.49903E+03 -9.48233E+03 -2.72186E+03 -7.19969E+03  1.79227E+04  2.76693E+03
  1.03904E+04 -2.10685E+03  3.90153E+03  6.16208E+03  8.18457E+02  9.15488E+03 -3.31287E+03  2.34813E+03
