 $NMID ID='MM_0lb_SNR50_7hz_g55_62.RAW', FMTDAT='(8E13.5)'
 TRAMP=1., VOLUME=1. $END
  3.14305E+05 -2.69735E+03  3.35771E+05  2.48547E+05  8.35930E+04  3.42220E+05 -1.30778E+05  2.54945E+05
 -1.93392E+05  8.45561E+04 -1.24013E+05 -3.13616E+04 -1.10520E+03 -5.49833E+04  5.31088E+04 -4.66057E+03
  3.49449E+04  5.06313E+04 -1.58984E+04  8.10418E+04 -5.83821E+04  6.51855E+04 -8.66104E+04  3.50943E+04
 -8.33580E+04 -9.38288E+03 -5.70688E+04 -5.62437E+04 -2.20569E+04 -7.09111E+04  3.15358E+04 -4.15522E+04
  4.18764E+04  3.85591E+03  1.16067E+04  4.46498E+04 -3.89761E+04  4.11432E+04 -6.44801E+04  3.26014E+02
 -4.80235E+04 -5.33599E+04 -3.70534E+03 -7.52877E+04  3.26212E+04 -6.17673E+04  4.05236E+04 -1.51015E+04
  4.43525E+04  5.10184E+03  2.68249E+04  2.33298E+04  1.45864E+04  2.68042E+04 -4.67079E+03  2.92927E+04
 -1.69168E+04  1.22183E+04 -2.11169E+04 -3.84167E+03  9.00509E+03 -1.04744E+04  1.59547E+04  1.92348E+04
  4.37189E+03  3.69889E+04 -3.59744E+04  3.64767E+04 -6.40982E+04  1.56895E+03 -6.02658E+04 -4.48935E+04
 -8.99588E+03 -6.56747E+04  4.31708E+04 -4.09942E+04  6.18705E+04 -3.37143E+03  4.20637E+04  3.30212E+04
 -7.01768E+03  4.80815E+04 -3.33456E+04  1.89045E+04 -3.67394E+04  7.35677E+03 -2.69211E+04 -1.27809E+04
 -1.34971E+04 -1.59512E+04  4.31463E+03 -1.68984E+04  9.03014E+03 -2.08185E+04  1.47914E+04 -1.09422E+04
  7.31076E+03  6.65184E+03 -1.06750E+04  1.04087E+04 -3.00958E+04 -9.40014E+03 -9.95272E+03 -3.84443E+04
  2.33129E+04 -4.09687E+04  5.54673E+04 -2.27131E+04  5.25507E+04  2.44096E+04  2.26076E+04  4.93969E+04
 -2.09681E+04  3.28388E+04 -2.84675E+04 -1.94703E+03 -1.25883E+04 -3.47403E+04  2.38580E+04 -3.64435E+04
  4.55231E+04 -1.31246E+04  4.74157E+04  3.09895E+04  2.24768E+04  5.90134E+04 -8.31051E+03  5.74816E+04
 -3.67878E+04  2.96599E+04 -4.89438E+04  1.46988E+04 -4.49294E+04 -2.86731E+04 -2.00965E+04 -3.49853E+04
  7.99128E+03 -4.96915E+04  4.01929E+04 -1.88628E+04  3.58196E+04  1.53063E+04  5.26448E+03  2.44867E+04
 -9.94617E+03  7.17453E+03 -1.06154E+04 -7.36618E+03  2.98940E+03 -1.67156E+04  2.16728E+04 -2.16781E+03
  1.03619E+04  2.42778E+04 -2.72519E+02  2.41399E+04 -2.92382E+04  1.82958E+04 -3.18903E+04 -5.24150E+03
 -2.54271E+04 -1.69601E+04 -1.61375E+04 -3.10370E+04 -1.43892E+02 -2.04878E+04  2.29083E+04 -2.67125E+04
  3.63382E+04 -1.34746E+04  4.26730E+04  2.28850E+03  2.75350E+04  2.42531E+04  4.22637E+03  4.04569E+04
 -2.25456E+04  4.56262E+04 -3.06716E+04  1.48367E+04 -1.82486E+04 -3.70632E+03 -1.26480E+04 -1.25764E+04
 -5.56997E+03 -5.80292E+03 -1.28203E+04  1.16168E+04 -2.41758E+04  8.69294E+03 -2.53374E+04 -6.71593E+03
 -9.88704E+03 -2.67109E+04  7.45524E+03 -2.96277E+04  2.42726E+04 -1.95562E+04  2.01786E+04 -2.38444E+03
  1.38710E+04  2.13353E+04 -7.67559E+03  2.44966E+04 -1.96539E+04  8.21712E+03 -2.88867E+04 -3.16716E+03
 -2.28950E+04 -2.37343E+04  7.71087E+02 -3.54259E+04  1.60916E+04 -2.24593E+04  2.99764E+04 -1.95813E+04
  2.21519E+04  5.87197E+02  1.24540E+04  1.37183E+04  1.35336E+04 -1.38668E+03  1.21568E+04 -2.18885E+03
  2.33156E+04 -1.33259E+03  2.83155E+04  2.43254E+04  1.14660E+04  4.17087E+04 -6.11895E+03  4.94210E+04
 -3.00511E+04  4.40976E+04 -4.84251E+04  2.00940E+04 -4.88371E+04 -9.93763E+03 -4.57768E+04 -2.65655E+04
 -2.00869E+04 -3.76928E+04  9.17969E+03 -3.48826E+04  2.58164E+04 -1.65944E+04  2.77821E+04  2.08351E+04
  9.73162E+03  2.72372E+04 -1.43468E+04  2.09207E+04 -1.66632E+04 -3.34911E+02 -1.81903E+04 -1.04057E+04
 -1.10761E+04 -1.83354E+04  1.10488E+04 -1.65586E+04  1.22429E+04 -9.51911E+03  9.58083E+03  4.03922E+03
 -1.69443E+04  9.80878E+02 -6.48593E+03 -1.10858E+04 -3.98917E+03 -2.00320E+04  1.23629E+04 -2.03268E+04
  1.89772E+04 -1.15633E+04  2.83735E+04  2.98589E+03  2.12974E+04  2.54712E+04  6.02860E+03  4.12225E+04
 -1.25041E+04  4.10439E+04 -2.61286E+04  2.85232E+04 -2.50888E+04  7.17127E+03 -1.94308E+04 -9.70295E+03
 -1.21931E+04 -1.07489E+04  1.46226E+03 -3.68060E+02  2.01191E+03  4.82356E+03 -9.39284E+03 -1.22083E+03
 -9.38942E+03 -1.06831E+04 -2.34194E+04 -1.72374E+04 -2.58389E+03 -2.25411E+04  4.65650E+03 -2.22117E+04
  2.42863E+04 -1.00554E+04  1.17305E+04  7.63037E+02  2.01398E+03  4.59884E+03 -8.61728E+03  4.65180E+03
 -1.27902E+04 -1.23538E+04 -2.50339E+03 -2.19246E+04  8.70777E+03 -1.65365E+04  1.98285E+04 -7.65251E+03
  2.68995E+04  2.56845E+03  2.40671E+04  1.64187E+04  3.20174E+03  2.63001E+04 -9.58639E+03  1.93539E+04
 -9.40964E+03 -2.94180E+03 -8.98890E+03 -2.07202E+03  9.48146E+03 -3.82923E+03  1.22729E+04  1.09080E+03
  4.92189E+03  1.30527E+04  7.93089E+03  1.91341E+04 -6.43871E+03  1.30749E+04 -1.89390E+04  1.24720E+04
 -9.03925E+03 -4.52283E+03  2.14684E+03 -1.98834E+04  4.25218E+03 -1.19171E+04  1.19544E+04  1.60125E+03
  3.68875E+03  1.28620E+04 -1.25796E+04  7.55608E+03 -1.47711E+04  1.04624E+04 -2.77323E+04 -1.05303E+04
 -3.43945E+03 -1.79372E+04  4.63603E+03 -2.23733E+04  1.98961E+04 -8.06769E+03  2.03526E+04  4.84284E+03
  1.58749E+04  2.04270E+04 -2.50218E+03  1.98094E+04 -1.75754E+04  9.90127E+03 -1.28827E+04  2.55089E+03
 -1.55284E+04 -8.64037E+03 -2.58142E+03 -1.50327E+04  1.31649E+04 -1.73881E+04  1.63589E+04  8.37809E+02
 -2.07355E+03  4.07823E+03 -7.99009E+03  4.71942E+03  6.38197E+03 -9.52392E+03  1.01747E+02 -1.30622E+04
  1.72625E+04 -8.42502E+03  1.70820E+04  4.37353E+03  1.92984E+04  1.40426E+04  1.50180E+04  2.75918E+04
 -7.22805E+03  2.70990E+04 -1.74121E+04  2.23201E+04 -2.89527E+04  5.22687E+03 -2.63899E+04 -1.26112E+04
 -1.68446E+04 -2.13050E+04 -3.48637E+03 -1.78381E+04  2.68914E+03 -3.78743E+03  7.01251E+02 -4.29048E+03
  2.47076E+03  2.59787E+01  5.48943E+03  1.06839E+03  1.84446E+03 -3.76491E+03  1.15205E+04 -1.34197E+03
  1.80058E+04 -4.64694E+03  8.61873E+03  7.22755E+03 -4.37082E+03  1.80477E+04 -1.73230E+04  8.06635E+03
 -2.16052E+04 -4.74157E+03 -1.00930E+04 -6.63941E+03  7.00476E+02 -2.40919E+04  6.37477E+03 -1.48254E+04
  2.19731E+04 -8.35341E+03  2.79891E+04  1.52160E+03  1.29574E+04  1.59577E+04  6.75232E+03  1.62573E+04
 -1.10672E+04  1.51693E+04 -1.10046E+04  9.38610E+03 -3.99271E+03 -8.95757E+03 -9.99272E+03 -1.24124E+03
 -3.55819E+03 -2.76392E+03 -2.95727E+03  6.49934E+03 -7.97981E+03  6.27761E+03 -1.11984E+04 -7.17410E+03
 -1.46507E+04 -6.21079E+03 -2.57125E+03 -1.60064E+04  1.14251E+04 -1.84770E+04  1.47624E+04 -8.16775E+03
  1.91021E+04 -1.06148E+03  6.38585E+03  1.94260E+04 -8.02330E+03  1.56109E+04 -1.90149E+04  1.22074E+04
 -1.03555E+04  2.76534E+03 -1.51966E+04 -9.16606E+03 -4.36197E+02 -1.30166E+04  2.09693E+04 -1.71503E+04
  1.57658E+04 -2.95659E+03  7.69717E+03  6.15060E+03  1.01011E+03  1.98453E+03  1.18022E+03  4.54932E+03
 -5.91512E+02  6.18918E+03  1.89335E+03 -1.04759E+04  4.13292E+03  9.59038E+03  1.08544E+04  6.11766E+03
  2.77430E+03  1.49309E+04 -1.59400E+04  2.19464E+04 -1.83573E+04  9.74682E+03 -1.87536E+04 -1.36581E+04
 -1.00095E+04 -2.48724E+04  3.24177E+03 -1.97640E+04  8.68304E+03 -1.14824E+04  1.25622E+04 -5.94498E+03
  1.18047E+04  1.09951E+03  9.12778E+03  1.42976E+04 -8.34611E+03  9.30738E+03 -1.24147E+04  1.23846E+03
 -3.23636E+03 -4.40213E+03  4.75811E+03 -7.97249E+03  1.06853E+04 -7.19409E+03  1.04289E+04  4.03656E+02
  5.30866E+03  4.60915E+03  7.57890E+02  1.26396E+04 -2.74068E+03  4.24293E+03  5.76941E+03 -1.72910E+03
  1.04930E+04  1.01605E+03  1.07097E+04  2.90721E+03  1.18760E+04  1.49037E+04  3.35207E+03  1.17328E+04
 -7.89222E+03  1.64023E+04 -1.13397E+04 -1.65210E+03 -9.90810E+03 -4.08057E+03 -2.54076E+03 -9.74718E+03
  7.30892E+02 -1.36677E+03  5.74089E+03  5.58567E+02  7.48659E+03  5.09033E+03 -2.19376E+03  8.00133E+03
 -1.03379E+04  6.39545E+03 -1.03994E+04 -7.70513E+03 -9.41783E+03 -1.20539E+04  9.33036E+03 -2.17119E+04
  1.28516E+04 -1.35874E+04  1.19753E+03 -3.87690E+03  9.62695E+03  5.93101E+03 -1.46538E+03  8.73419E+03
 -6.45948E+02 -1.87265E+03 -8.55569E+03 -6.21032E+03  6.05151E+03 -1.46112E+04  1.06766E+04 -7.40838E+03
  1.00286E+04  6.51661E+03  8.25106E+03  1.01470E+04 -1.43355E+03  1.48328E+04 -2.73797E+03  2.02486E+04
 -1.55460E+04  4.67516E+03 -1.35489E+04  1.58362E+03 -7.08523E+03 -1.19313E+04  2.87268E+02 -9.93724E+03
  9.01212E+03 -1.68076E+03  4.32844E+03  8.91982E+02 -1.48399E+03  1.91013E+03 -9.07086E+02  7.53843E+03
 -1.01384E+04  3.67129E+03  1.97758E+03 -4.89071E+03  7.41096E+03 -5.46618E+02 -6.04322E+03  6.21799E+03
 -7.07851E+03  8.48472E+03 -8.63742E+03  2.52071E+03 -1.14279E+04  9.87227E+02 -1.52292E+04 -1.11257E+04
 -5.26320E+03 -2.01886E+04  3.94706E+03 -1.96183E+04  1.09254E+04 -1.79260E+04  1.90258E+04 -3.83716E+03
  2.75314E+04 -6.92146E+02  4.68329E+03  1.29733E+04 -5.38543E+02  2.20178E+04 -7.02346E+03  8.55862E+03
 -8.02504E+03  1.78751E+03 -8.90177E+03  1.57084E+03 -2.50907E+03 -5.41957E+03 -8.91994E+02 -4.23919E+03
  4.49116E+02  2.02197E+03 -7.29414E+03 -4.69915E+03 -2.76993E+03  1.12344E+03 -1.42127E+03 -6.39188E+03
  5.16235E+03  2.69488E+03  1.65422E+04  2.17668E+03  1.56810E+04  9.82306E+03 -1.07706E+03  1.25947E+04
 -1.49701E+03  1.67054E+04 -1.57958E+04  1.50706E+04 -2.11183E+04 -6.81946E+02 -1.74300E+04 -7.62597E+03
 -8.93752E+03 -1.55848E+04  1.66423E+02 -1.95088E+04  9.50736E+03 -1.60917E+04  1.16201E+04 -2.82220E+03
  7.55287E+03  9.91052E+03 -8.56268E+03  8.69116E+02 -6.02851E+03 -2.47166E+03 -3.66116E+03 -4.75594E+03
  7.97887E+03 -1.04335E+04  5.43942E+03  9.59655E+02  3.56332E+02  3.61954E+03 -6.04325E+03  6.97914E+02
  4.04118E+03 -5.26049E+02 -1.15907E+04 -3.02945E+01 -1.24500E+04 -1.30592E+04  1.68417E+03 -1.05617E+04
  3.59302E+03 -9.08544E+03  1.38575E+04 -3.92022E+03  1.08283E+04 -4.76053E+03  7.88235E+03  7.55503E+03
  1.08121E+02  1.44591E+04 -2.81959E+03  7.17009E+03 -9.81552E+03  7.61375E+03 -3.75865E+03 -2.80327E+03
 -6.41129E+03  2.36683E+03 -9.93507E+03  2.58546E+02  1.57240E+03 -1.35439E+03 -1.72852E+04 -4.09494E+03
 -6.02483E+03 -4.04094E+03  6.88992E+02 -7.64700E+03  7.09292E+03 -1.17948E+04  1.01169E+04  1.96456E+03
  8.41603E+03  3.27323E+03  1.31933E+04  1.41267E+04  7.59054E+02  1.59283E+04 -1.20628E+04  9.17883E+03
