 $NMID ID='MM_0lb_SNR50_18hz_g40_41.RAW', FMTDAT='(8E13.5)'
 TRAMP=1., VOLUME=1. $END
  3.13019E+05  1.89176E+02  3.32958E+05  2.47278E+05  8.78426E+04  3.35491E+05 -1.34849E+05  2.48080E+05
 -1.87048E+05  8.12098E+04 -1.08567E+05 -3.20001E+04 -3.34073E+03 -5.29671E+04  5.60033E+04  3.41380E+03
  3.66026E+04  5.28198E+04 -1.71361E+04  7.23726E+04 -5.83519E+04  6.32740E+04 -8.27041E+04  3.48988E+04
 -7.69787E+04 -8.57914E+03 -5.03760E+04 -4.97691E+04 -1.59042E+04 -6.78800E+04  2.78485E+04 -4.31619E+04
  4.32609E+04  4.59150E+03  1.29946E+04  4.50848E+04 -3.35669E+04  4.52172E+04 -6.68483E+04  4.84982E+02
 -5.24951E+04 -5.89204E+04 -7.43031E+03 -7.96834E+04  3.41364E+04 -5.13457E+04  4.57897E+04 -1.49206E+04
  4.32993E+04  1.37522E+04  2.84182E+04  2.59271E+04  1.17925E+04  2.93373E+04 -6.81188E+03  2.66803E+04
 -2.83922E+04  1.23981E+04 -1.70219E+04  2.33380E+03  2.40362E+03 -7.01608E+03  2.36918E+04  9.50328E+03
  6.27219E+03  2.66080E+04 -2.95942E+04  3.75718E+04 -6.26370E+04  9.19713E+02 -5.38859E+04 -3.81368E+04
 -1.10832E+04 -6.13565E+04  3.68730E+04 -4.28183E+04  5.39349E+04 -3.40767E+03  3.72076E+04  3.00835E+04
 -8.25255E+03  3.38042E+04 -2.93683E+04  9.92397E+03 -2.85109E+04 -5.55071E+03 -1.10203E+04 -1.27809E+04
 -4.82519E+03 -1.30014E+04 -1.36542E+03 -1.57115E+04  7.04716E+03 -2.30159E+04  1.41972E+04 -1.46940E+04
  1.49841E+04  3.18411E+03 -5.32658E+03  1.04075E+04 -1.84737E+04 -9.65571E+02 -9.59318E+03 -3.01130E+04
  2.01233E+04 -4.32479E+04  4.39640E+04 -1.84747E+04  4.02556E+04  1.67404E+04  1.10765E+04  3.85889E+04
 -1.43753E+04  3.05259E+04 -2.17631E+04  3.89553E+03 -9.47698E+03 -2.54890E+04  1.89676E+04 -3.28545E+04
  3.82456E+04 -5.80655E+03  3.82054E+04  1.97705E+04  1.73330E+04  4.23947E+04 -6.42456E+03  4.36159E+04
 -2.65822E+04  2.94973E+04 -3.43734E+04  8.83219E+03 -3.95819E+04 -1.16194E+04 -1.98444E+04 -3.60444E+04
  1.06314E+04 -3.22994E+04  3.04970E+04 -1.61533E+04  2.50215E+04  1.08712E+04  1.16752E+03  1.69252E+04
 -1.64003E+04  4.34307E+03 -7.07066E+03 -9.52674E+03  5.43898E+03 -1.11915E+04  1.50067E+04  7.72925E+03
  1.01990E+04  2.06042E+04 -7.39361E+03  2.27963E+04 -2.33303E+04  1.11739E+04 -2.73043E+04 -4.66849E+03
 -1.26333E+04 -1.55435E+04 -1.04008E+04 -1.91711E+04  6.36898E+03 -1.71224E+04  1.29486E+04 -1.30949E+04
  2.26448E+04 -1.40492E+04  2.54898E+04  1.88141E+02  1.86606E+04  1.71199E+04  6.37974E+03  3.44764E+04
 -1.58073E+04  2.93059E+04 -2.83160E+04  1.17627E+04 -2.20653E+04 -8.53378E+03 -5.12930E+03 -1.55538E+04
  5.13701E+01 -3.55586E+03 -2.18767E+03  3.14733E+03 -1.23457E+04  7.33183E+03 -1.44763E+04 -4.32487E+03
 -8.07321E+03 -1.33394E+04  4.46144E+03 -2.35916E+04  1.22655E+04 -1.18966E+04  1.74340E+04 -2.09923E+03
  9.15554E+03  7.34516E+03  2.62462E+03  1.30224E+04 -8.16697E+03  9.37535E+03 -1.41412E+04 -3.85982E+03
 -9.13148E+03 -8.15308E+03  4.34954E+03 -1.67316E+04  7.19044E+03 -1.62975E+04  1.65887E+04 -4.42772E+03
  1.50319E+04  2.90321E+03  1.24421E+04  2.13819E+03  5.80239E+03  8.57085E+02  1.29679E+04  7.36679E+03
  1.41336E+04  1.56733E+03  1.27214E+04  1.18902E+04  3.25624E+03  2.46453E+04  1.40661E+03  3.04720E+04
 -1.39857E+04  1.63655E+04 -2.06563E+04  8.17816E+03 -2.49712E+04  3.85687E+03 -2.28560E+04 -1.31017E+04
 -1.57865E+04 -2.25509E+04  3.62400E+03 -1.69589E+04  2.32975E+04 -3.82080E+03  1.56354E+04  4.34293E+03
  7.17546E+03  1.23776E+04 -1.04277E+04  1.25195E+04 -1.39685E+04  4.12138E+02 -1.08273E+04 -5.35626E+03
  9.53789E+02 -1.30750E+04  6.94906E+03 -4.82009E+03  8.10067E+03  2.47116E+03 -6.73404E+02  4.21411E+03
 -6.21333E+03 -8.92473E+02 -6.00583E+03 -6.34172E+03 -3.79383E+03 -8.43881E+03  8.03348E+03 -1.20445E+04
  1.49458E+04 -1.58561E+03  1.16211E+04  4.50927E+03  9.92282E+03  6.51138E+03  2.20875E+03  1.18906E+04
  4.64790E+03  1.33457E+04 -1.07515E+04  1.20563E+04 -6.77609E+03  3.38681E+03 -9.88294E+03  1.68098E+03
 -3.71711E+03 -3.02321E+03 -1.82366E+03 -1.85686E+03  1.12660E+03  1.93520E+03 -1.96320E+03  7.74492E+03
 -1.04258E+04  2.91931E+02 -7.34518E+03 -6.49547E+03 -3.85186E+02 -1.31065E+04  8.51941E+02 -8.46195E+03
  6.99377E+03 -6.29558E+03  3.06781E+03  1.32549E+03  2.03874E+03  1.28835E+03 -4.71384E+03  2.47083E+03
 -4.91558E+03 -6.72246E+03  2.70516E+02 -9.52334E+03  5.87526E+03 -6.51665E+03  4.03255E+03 -1.75164E+03
  9.56156E+03 -1.51418E+03  7.63481E+03  4.39826E+03 -6.33960E+03  5.85133E+03 -6.41609E+03  6.00073E+03
 -3.58209E+03 -1.35747E+03 -2.40957E+03 -6.39469E+02 -2.60077E+03 -2.41226E+03  6.25976E+03 -1.31802E+03
  8.17071E+03  1.69009E+03  3.91816E+03  6.51102E+03 -2.70511E+03  5.38671E+03 -9.36297E+03  7.32562E+02
 -7.51565E+03 -5.88610E+03  1.59018E+02 -8.09015E+03  5.84817E+03 -3.02407E+03  8.31343E+03  1.68509E+02
  1.37601E+03  1.76989E+03 -1.77994E+03  3.66807E+03 -8.11875E+03 -4.76110E+01 -4.85422E+03 -3.43703E+03
 -3.18839E+03 -8.61445E+03  1.31240E+03 -1.03541E+04  5.85510E+03 -3.45360E+03  2.33785E+03 -1.59610E+02
  6.61930E+03  2.09005E+03  8.72480E+02  5.13278E+03 -2.46148E+03  6.23393E+03 -6.76630E+03  4.50513E+03
 -9.89128E+03 -7.89224E+03 -4.38388E+03 -4.94619E+03  1.80221E+03 -7.16636E+03 -2.00039E+03 -1.56082E+03
  5.27881E+03 -1.63033E+03  1.81274E+03 -1.64013E+03  1.32289E+03  3.82564E+03  7.11045E+02 -2.10375E+03
  1.16826E+04 -4.81560E+03  3.22401E+03  9.47862E+01  4.00960E+03  6.30803E+03  7.82770E+03  7.16889E+03
 -2.84467E+03  7.10302E+03 -6.90443E+03  3.80185E+03 -1.11995E+04  3.37811E+03 -1.09228E+04 -1.30800E+03
 -5.10143E+03 -6.76458E+03  5.69556E+02 -3.90334E+03  3.38028E+03 -5.67847E+03  6.31986E+02  2.08608E+03
 -1.66842E+03 -3.62345E+03  1.06330E+03 -1.40884E+03  1.75661E+03 -6.92119E+02  5.93550E+02  7.24671E+01
  1.77365E+03 -1.10243E+03  5.40210E+02  4.80377E+03 -3.64306E+03  7.50898E+02 -2.74953E+03  2.99678E+03
 -3.47305E+03  2.46373E+03  4.23914E+02 -5.52357E+03  2.83477E+03 -4.30640E+03  1.92216E+03 -7.53019E+03
  9.75823E+03 -1.03092E+03  2.21763E+03 -2.07764E+02  5.85352E+03  6.87002E+02 -1.48306E+03  5.88388E+03
 -1.74855E+03  1.32769E+04  3.78703E+03 -2.05421E+03 -2.87681E+03 -6.80135E+02 -1.49926E+03 -1.16472E+03
 -8.02184E+02  3.54142E+03  1.38981E+03  9.27070E+02 -9.87882E+02  5.60500E+03 -4.95046E+03  4.70550E+03
 -8.47482E+02 -4.73099E+03  2.17365E+03 -4.86669E+03  1.41074E+03 -5.54888E+02  8.95642E+03 -9.07135E+02
  6.60051E+03  2.90350E+03  5.42410E+03  4.91940E+03 -1.40731E+03  3.65355E+03 -2.90214E+03  6.29023E+03
 -4.58857E+03 -6.19062E+03  9.73043E+02 -8.57585E+02  1.59459E+03 -5.22311E+03  2.88695E+03 -4.19531E+03
 -2.89816E+03  3.57581E+03  4.89805E+03  1.37833E+03  1.71272E+03  4.13606E+03  1.61521E+03  1.77222E+03
  2.64666E+03  1.05467E+03  2.17946E+03 -1.98950E+03  8.41532E+03  3.16206E+03  2.80873E+03  2.34986E+03
 -1.36000E+03  3.47824E+03 -9.43501E+02  6.64457E+03 -3.83513E+03  9.99933E+02 -1.53339E+03 -1.43553E+03
  4.37271E+02 -7.45416E+03  1.58798E+03 -4.74475E+03  1.68296E+03 -5.74790E+03  2.66282E+03 -8.69583E+02
  1.15014E+03 -1.85881E+03 -3.86580E+02  2.03319E+03 -1.19956E+03  3.31642E+03 -2.50942E+03  8.28974E+02
 -4.30207E+03 -3.53855E+03 -5.71502E+03 -1.27633E+02 -3.73807E+02 -1.26579E+03  1.32813E+03 -2.18047E+03
  2.17866E+03  3.45817E+03  7.28215E+02 -1.14626E+03  1.50623E+03 -2.41640E+03 -4.02003E+02  1.12897E+03
 -7.90148E+02 -2.94080E+03  1.64183E+02 -1.77157E+03  9.43455E+02  3.51240E+03  2.06139E+03 -1.76697E+03
 -3.24064E+03 -1.04580E+03 -1.73606E+03  1.86567E+03 -3.40114E+03 -9.81810E+02 -2.33031E+03 -4.40525E+03
 -2.25922E+03 -2.30830E+03 -8.31041E+02 -3.36529E+03  4.51214E+03  1.14456E+03 -4.00292E+03 -5.53622E+02
  6.74962E+02 -3.21333E+03 -1.59500E+03 -2.88421E+03 -5.05727E+03  1.68169E+03  2.40531E+03 -3.63155E+03
  1.53495E+03  9.30763E+02 -4.74846E+02 -5.10551E+03  4.83597E+03 -2.10323E+03  3.02710E+03  1.82538E+03
  1.53242E+03  3.08892E+03  2.89526E+02  3.15559E+03  1.55005E+03  2.63464E+03  3.59124E+03 -2.26237E+03
  1.25806E+02 -1.48542E+03  5.56043E+03  3.28398E+03  1.71874E+03  4.29677E+03  1.77450E+03  2.27659E+03
  1.70242E+03 -4.29609E+03 -8.54142E+02 -2.86386E+03  1.43021E+03 -6.95391E+03 -1.27053E+03 -2.04258E+03
  5.40339E+03  2.49441E+03  2.55612E+03  1.90160E+02  1.41831E+03 -2.82788E+03 -6.91199E+02  5.59105E+02
 -1.81982E+03  1.33435E+03  7.45890E+02 -1.37255E+03  8.21557E+02  9.88913E+01  5.07266E+03  3.37701E+01
  2.58257E+00  1.72548E+03 -9.23942E+02 -1.30580E+03 -4.45595E+03 -1.74065E+03 -2.52518E+03  2.71470E+03
 -2.89737E+03 -4.20132E+03  8.20570E+02 -5.38480E+03  1.18663E+02 -3.74851E+03  3.30727E+03 -5.15664E+03
  2.51143E+03  1.13422E+03 -7.16132E+02  1.21014E+03  4.27552E+03  1.72996E+03  1.18956E+02  6.54632E+02
  5.66375E+02 -8.94922E+02 -1.15104E+03  4.71484E+03  9.96989E+01 -1.06233E+03 -2.37617E+02  2.29158E+03
 -4.99093E+03  3.08877E+02 -2.87228E+03 -2.48415E+02  1.42427E+02 -5.53283E+03 -2.56842E+03  1.10744E+03
  8.28246E+02 -2.19952E+03  4.95505E+03  8.63440E+02  6.33219E+03  1.69826E+02 -9.62263E+02  4.53350E+03
  1.60424E+03  5.36399E+03  2.20720E+03  4.71967E+03 -3.41189E+03 -1.87779E+03 -3.06149E+03 -2.28494E+03
 -1.49550E+03  1.22289E+03  3.17935E+03 -4.04696E+03 -3.20759E+02 -1.67009E+03  4.59311E+02  8.69766E+02
  3.48329E+03 -1.06143E+03 -6.06325E+02 -3.13960E+03 -8.34880E+02 -8.16940E+02 -3.38467E+03 -9.55932E+01
  1.74719E+02 -2.62098E+03  2.25944E+03 -3.88157E+02  1.61136E+03  5.21520E+02 -2.30664E+03  2.32367E+02
 -1.23414E+03  2.94338E+03  7.49208E+01 -1.75169E+02 -5.74333E+03  3.06208E+03  9.61456E+02  9.12368E+02
  1.31514E+03 -7.70403E+02 -3.58651E+02  2.17188E+03 -5.76962E+02  1.97565E+03 -1.86777E+03  2.32677E+03
  4.27236E+03  1.34662E+02 -2.26247E+03  6.44429E+02  1.93070E+03  2.46047E+03 -2.88642E+03 -1.08069E+03
 -3.32640E+03  3.27154E+03 -2.19947E+03 -6.46147E+02  6.63996E+03 -1.91425E+03  3.36496E+03 -1.48670E+03
 -4.32385E+03  2.55140E+02 -4.92606E+02 -2.71351E+02  4.26856E+02 -3.26797E+02  1.62630E+02 -1.39972E+03
 -1.06585E+03 -2.69288E+03  1.00313E+02 -3.96312E+03  1.42460E+03  1.00809E+03  3.00018E+02 -8.48228E+02
