 $NMID ID='MM_0lb_SNR50_14hz_g55_9.RAW', FMTDAT='(8E13.5)'
 TRAMP=1., VOLUME=1. $END
  3.08682E+05 -1.86236E+03  3.42783E+05  2.50568E+05  8.61023E+04  3.39468E+05 -1.33115E+05  2.58400E+05
 -1.93399E+05  8.61974E+04 -1.07598E+05 -3.80193E+04  4.45204E+03 -4.94305E+04  5.31204E+04 -2.39994E+02
  3.60699E+04  5.51904E+04 -1.91353E+04  7.35720E+04 -5.83538E+04  6.07000E+04 -8.22521E+04  3.24385E+04
 -7.96595E+04 -1.24223E+04 -6.22895E+04 -5.03638E+04 -1.30981E+04 -6.91232E+04  2.77527E+04 -4.59715E+04
  4.30323E+04  3.62916E+03  1.36911E+04  4.91485E+04 -3.27886E+04  4.73993E+04 -6.82581E+04  1.45520E+03
 -5.74470E+04 -5.93009E+04 -8.73486E+03 -7.80429E+04  2.75267E+04 -5.72423E+04  5.00172E+04 -1.59562E+04
  4.68079E+04  1.13418E+04  3.36134E+04  2.64268E+04  1.50469E+04  2.63161E+04 -9.31530E+02  2.96291E+04
 -1.83526E+04  1.26803E+04 -2.32922E+04 -6.23145E+03  7.45565E+03 -2.92267E+03  2.11426E+04  1.10465E+04
  5.53973E+03  3.45241E+04 -3.15240E+04  3.36516E+04 -6.58898E+04 -9.60816E+02 -5.54050E+04 -4.73731E+04
 -1.09040E+04 -6.71080E+04  3.75624E+04 -4.47408E+04  5.89420E+04 -1.66407E+03  3.58772E+04  2.97306E+04
 -9.40125E+03  3.84826E+04 -3.06436E+04  1.37467E+04 -2.78836E+04 -7.04480E+02 -1.41440E+04 -8.11866E+03
 -4.14162E+03 -1.27271E+04 -3.25104E+03 -1.33893E+04  8.18364E+03 -2.11250E+04  1.63209E+04 -9.77598E+03
  1.35577E+04  2.40939E+03 -1.23110E+04  1.46167E+04 -2.64622E+04 -4.18048E+03 -7.71510E+03 -3.97413E+04
  1.85922E+04 -4.29477E+04  4.85874E+04 -1.88776E+04  5.11857E+04  2.15798E+04  1.05144E+04  4.30606E+04
 -1.88792E+04  3.55973E+04 -2.18958E+04  4.75892E+02 -1.77076E+04 -3.25713E+04  2.18704E+04 -3.06344E+04
  3.98162E+04 -6.60332E+03  3.85319E+04  2.80280E+04  2.23055E+04  4.82369E+04 -9.39830E+03  5.15919E+04
 -3.52572E+04  2.81930E+04 -4.90623E+04  1.01511E+04 -4.77668E+04 -1.95573E+04 -2.22414E+04 -4.21778E+04
  5.75261E+03 -3.59152E+04  3.58005E+04 -1.38009E+04  3.11910E+04  1.18964E+04  3.29549E+03  1.85095E+04
 -1.44859E+04  7.30619E+03 -1.46536E+04 -7.84786E+03  3.84137E+03 -5.12913E+03  1.55229E+04  5.96292E+03
  1.39604E+04  1.67547E+04 -9.91239E+03  2.51345E+04 -2.54704E+04  1.46832E+04 -2.68487E+04 -3.28701E+03
 -2.16227E+04 -2.29797E+04 -9.46717E+03 -1.58433E+04  4.76861E+03 -2.04870E+04  1.50003E+04 -1.86086E+04
  2.92217E+04 -9.50071E+03  3.01142E+04  3.51738E+03  2.67389E+04  1.57361E+04  2.06772E+03  3.38370E+04
 -2.34199E+04  3.33751E+04 -2.92294E+04  9.59950E+03 -2.19708E+04 -1.15757E+04 -3.66729E+03 -1.36986E+04
 -1.63064E+03 -6.33691E+03 -5.27711E+03  1.00857E+04 -1.39449E+04  4.91676E+02 -1.91536E+04 -2.57810E+03
 -1.34017E+04 -1.78029E+04  7.29572E+02 -2.49477E+04  1.55993E+04 -1.65383E+04  1.56841E+04 -2.51512E+03
  1.08409E+04  1.05672E+04 -9.93049E+02  1.98586E+04 -1.74710E+04  7.75903E+03 -2.17097E+04 -4.16715E+03
 -1.92603E+04 -1.53279E+04 -4.84967E+03 -2.49644E+04  1.25662E+04 -2.25470E+04  2.00692E+04 -7.08294E+03
  1.75623E+04  1.07852E+03  1.76197E+04  4.07996E+03  1.10866E+04 -2.75329E+03  5.61154E+03 -7.68524E+02
  1.92090E+04 -9.69638E+02  1.78039E+04  1.76810E+04  1.44339E+04  3.55940E+04 -1.60305E+03  3.20347E+04
 -1.85254E+04  3.03850E+04 -3.21275E+04  1.43621E+04 -3.65421E+04  1.56786E+03 -3.00094E+04 -2.16951E+04
 -9.14894E+03 -3.27215E+04  1.43618E+04 -2.42145E+04  2.69345E+04 -1.48576E+04  2.06413E+04  5.18858E+03
  1.04804E+04  1.41205E+04 -9.20979E+03  1.16077E+04 -1.77202E+04  3.09278E+03 -1.25985E+04 -7.94239E+03
  2.92948E+03 -1.35092E+04  1.27113E+04 -8.09977E+03  1.50749E+04  1.99322E+03  4.54062E+02  6.58768E+03
 -5.59850E+03  1.44312E+03 -5.15489E+03 -7.85099E+03 -2.58469E+03 -1.46265E+04  6.61344E+03 -1.11468E+04
  2.06259E+04 -6.92638E+03  2.32475E+04  9.19929E+03  1.69134E+04  1.07513E+04  1.24716E+04  2.01274E+04
 -2.04889E+03  2.62201E+04 -1.61563E+04  1.52679E+04 -1.57810E+04  3.21279E+03 -1.27888E+04 -1.73320E+03
 -5.23847E+03 -6.63450E+03  1.71869E+03  2.66185E+03 -4.32935E+03 -9.59327E+01 -4.95537E+03  3.74703E+03
 -8.51706E+03 -1.09520E+03 -9.34592E+03 -6.59947E+03 -1.00638E+04 -1.30585E+04  9.04623E+03 -1.32588E+04
  8.39309E+03 -1.08382E+04  1.17281E+04  5.18866E+03  3.45300E+02 -5.74114E+02 -5.55424E+03 -4.81472E+02
 -5.31629E+03 -5.56449E+03  3.17743E+03 -1.05713E+04  7.33142E+03 -7.42574E+03  2.09358E+04 -1.06323E+04
  1.42885E+04 -1.11585E+03  8.87539E+03  1.12473E+04  8.10850E+02  1.11643E+04 -5.40414E+03  1.51119E+04
 -1.29991E+04  1.49029E+02 -6.34774E+03 -1.68642E+02  7.56334E+02 -4.70354E+03  7.26864E+03  1.04565E+03
  6.02186E+03  1.67387E+03  6.89844E+02  1.17790E+04 -7.59862E+03  6.70567E+03 -9.17837E+03 -5.61010E+02
 -7.22820E+03  3.09798E+02  1.40812E+03 -1.13551E+04  4.12088E+03 -2.39907E+03  8.35910E+02 -1.14237E+02
  5.90265E+03  2.19244E+03 -7.01027E+03  4.60440E+03 -7.61501E+03  9.58905E+03 -7.19514E+03 -1.01187E+03
 -2.16930E+03 -8.03803E+03  3.76641E+03 -1.16494E+04  1.12328E+04 -1.42684E+04  7.81256E+03  1.33368E+03
  5.59282E+03  6.60778E+03  2.08232E+03  7.44202E+03 -6.46967E+03  7.24679E+03 -8.75547E+03 -9.02202E+02
 -6.35537E+03 -1.05617E+04 -1.73875E+03 -1.09128E+04  5.34290E+03 -1.55190E+03  3.61635E+03 -1.34827E+03
  1.47655E+03  2.18111E+03  2.15015E+03 -8.74281E+02  2.51297E+03 -3.72815E+03  5.71443E+03 -6.21466E+03
  1.07304E+04 -2.80036E+03  1.23428E+04 -4.91108E+02  7.58854E+03  8.74631E+03  1.18410E+04  1.49146E+04
 -1.33410E+03  1.44889E+04 -1.53296E+04  1.24561E+04 -1.69964E+04  2.30124E+03 -1.14237E+04 -5.44156E+03
 -3.55871E+03 -1.17894E+04 -5.26079E+03 -7.61339E+03  3.26988E+03 -5.10598E+03  5.75580E+03 -1.01676E+03
  2.86631E+03 -4.77551E+03  4.29645E+03 -1.87615E+03  2.44489E+03  4.09927E+03  3.75606E+03  5.99378E+03
  7.70256E+03  3.81933E+03  7.39988E+03  8.66265E+03  1.25562E+02  4.31116E+03 -5.38750E+03  9.57433E+03
 -1.29472E+04 -1.31902E+03 -4.56988E+03 -5.34970E+03 -3.57320E+03 -9.53002E+03  4.65054E+03 -5.80055E+03
  1.28173E+04 -8.56261E+01  1.17513E+04  2.99149E+03  3.96076E+03  6.28043E+03  2.30293E+03  1.17031E+04
 -4.99211E+03  1.44081E+04 -3.97244E+03 -1.12204E+03 -2.83561E+03 -1.27122E+02  1.38753E+01 -3.33841E+03
  2.35176E+03 -5.46983E+02 -7.32117E+02 -8.34025E+02  7.71142E+02  1.83236E+03 -5.17133E+03  2.97096E+03
 -8.39080E+03 -5.24311E+03  1.88104E+03 -9.53566E+03 -1.17735E+03 -5.60588E+03  9.17208E+03 -2.77726E+03
  8.04629E+03 -7.53883E+02  6.08807E+03  1.05004E+04 -2.25171E+03  4.84990E+03 -7.59171E+03  7.26981E+03
 -9.90409E+03  1.74690E+03 -5.18280E+03 -6.82317E+03  8.88033E+02 -5.32736E+03  7.42097E+03 -7.01758E+03
  5.47774E+03 -4.29664E+03  4.58013E+03  9.40167E+01 -6.83131E+03  4.53290E+03  1.30823E+03  4.77353E+03
  2.32662E+03 -3.15227E+02  9.00653E+02  6.30755E+03  2.62268E+03  6.11280E+03 -1.32579E+03  2.58980E+03
 -3.75154E+03  8.43098E+03 -4.51106E+03  5.17124E+03 -3.51357E+03  2.67967E+03 -8.56442E+03  2.90982E+02
 -4.28078E+03 -3.57964E+03  5.18265E+03 -6.02786E+03  7.60730E+03 -9.65246E+03  8.48636E+03 -3.19507E+03
  8.02812E+03  1.43070E+03  5.46556E+03  3.47037E+03 -2.87646E+03  6.77232E+03 -2.28766E+03 -2.77980E+03
 -4.80640E+03 -2.53843E+02  5.02804E+03 -9.37196E+02  5.50161E+03 -2.12183E+03  2.19397E+03 -2.67589E+03
  8.68012E+03 -2.06171E+03  4.62702E+03 -2.22874E+03 -4.19858E+02 -1.54183E+02  9.16385E+02  4.46664E+02
  7.12038E+02  2.72091E+03  5.50441E+03  6.38399E+03  4.45557E+03  2.05584E+03  1.80184E+03  1.12130E+03
 -8.76314E+01  2.22328E+03 -4.03363E+03 -1.11426E+03 -4.24027E+03 -5.67295E+03 -1.49197E+03 -6.02462E+03
 -7.65725E+02 -5.83966E+03  1.48946E+03 -1.33825E+03 -2.87506E+02  5.31477E+03 -1.71549E+02  2.95451E+03
 -2.14422E+03  3.90365E+03 -2.76158E+02 -6.31600E+03 -1.44173E+03 -1.77597E+03  4.34570E+02 -1.75508E+03
  2.95235E+03 -4.58552E+03  4.47404E+03  1.63260E+03  3.05149E+03  4.05314E+02 -1.38590E+03  3.66643E+02
  7.85225E+02 -6.56733E+03 -4.59749E+03 -1.87818E+03  2.55476E+03 -2.25474E+03  8.39523E+03 -1.84435E+03
  5.61613E+03  4.04441E+03  4.46085E+03  3.52306E+03 -1.43904E+03  2.94416E+03 -9.47449E+03  2.56474E+03
 -4.66331E+03 -2.74534E+03  2.52181E+03 -3.97820E+02 -1.87938E+03 -5.13252E+03  4.49846E+03 -1.37601E+03
  6.30737E+03 -1.64975E+03  3.77823E+02  4.05225E+03  5.97814E+03  4.43451E+03 -8.96405E+02  6.64881E+02
 -9.45652E+02  4.48421E+03  4.59808E+01 -3.21282E+03  1.02626E+03  1.89546E+03 -4.24901E+03 -2.40677E+03
 -3.94500E+02  2.54019E+03 -8.52441E+03  4.98220E+03 -1.10372E+03 -1.05440E+03 -5.10857E+03  7.00746E+02
 -7.38918E+02 -5.12833E+03  8.00543E+02 -2.73130E+03  3.60342E+02 -4.63487E+03  9.24734E+03 -7.68012E+03
  6.31686E+03 -1.37843E+02  3.51040E+03  4.64726E+03 -1.80561E+02  6.24911E+03 -2.60699E+03  2.19921E+03
 -6.16748E+03  5.24926E+03  2.13725E+03  4.49822E+02  7.09256E+01  4.79670E+03  1.18217E+03 -2.96940E+03
 -4.85944E+03  4.75724E+03 -1.09388E+03 -2.98745E+03 -1.38655E+03 -1.20175E+02  3.07135E+03 -7.56711E+03
  2.10820E+03 -4.56929E+03 -1.57044E+02 -5.78989E+03 -1.25741E+03  5.53595E+03  1.50596E+03  6.30907E+03
 -3.85265E+03  2.56605E+03 -8.29492E+03 -2.62956E+03 -2.54420E+03 -2.83177E+03 -5.89391E+03 -6.56200E+03
 -5.05113E+03 -3.69387E+03 -2.60253E+03 -3.12964E+03 -1.29980E+03 -5.59456E+03  9.97956E+03  9.77481E+02
  3.19010E+02  2.71741E+03 -3.52835E+03  2.54643E+03 -2.35259E+03 -1.10340E+03 -6.00654E+02 -2.29518E+03
  1.67999E+03  3.14837E+03  2.50779E+03 -2.46790E+03  2.84130E+03  6.31188E+03 -2.26832E+03  4.72293E+03
 -5.88322E+02  6.38074E+03 -5.79978E+03 -3.46686E+03 -2.91262E+03 -2.93020E+03 -5.97182E+02 -7.02455E+02
  9.51979E+00 -5.25417E+03  4.21946E+02  1.20111E+02  3.14703E+03  4.32587E+02 -1.20463E+03  4.94719E+03
 -5.57179E+02  1.23345E+03 -7.12408E+03 -2.63170E+03  1.85076E+03  2.80454E+03  7.45480E+02 -6.76273E+00
  3.62667E+03  4.26690E+03 -8.33845E+02 -2.73329E+02 -9.80406E+01  7.42433E+02 -3.96375E+03 -1.63091E+03
  1.71566E+03 -7.78564E+03 -3.58703E+03 -8.03779E+03 -2.49375E+02 -4.06384E+03  4.94785E+03 -2.12600E+03
 -3.61502E+02  2.44163E+02 -3.11086E+03  1.24087E+03  7.04273E+02  7.61552E+03 -3.41113E+03  7.11221E+02
