 $NMID ID='MM_0lb_SNR50_11hz_g55_66.RAW', FMTDAT='(8E13.5)'
 TRAMP=1., VOLUME=1. $END
  3.08290E+05  3.77142E+03  3.36556E+05  2.54606E+05  8.65784E+04  3.40422E+05 -1.34156E+05  2.50810E+05
 -1.88669E+05  8.44378E+04 -1.12121E+05 -3.13569E+04  1.18146E+03 -4.91589E+04  5.31335E+04 -5.94451E+02
  3.49417E+04  5.10237E+04 -1.81737E+04  7.50772E+04 -6.26417E+04  6.41211E+04 -8.73636E+04  3.29685E+04
 -8.16778E+04 -1.01689E+04 -5.60524E+04 -5.33535E+04 -1.82132E+04 -7.10464E+04  3.08090E+04 -4.23909E+04
  3.74865E+04  4.61746E+03  9.12907E+03  5.51771E+04 -3.38629E+04  4.10128E+04 -7.28901E+04  1.15273E+02
 -5.32756E+04 -5.98229E+04 -1.03638E+03 -7.78188E+04  3.59157E+04 -5.81268E+04  5.67337E+04 -2.10955E+04
  4.12086E+04  1.19073E+04  3.80514E+04  2.04875E+04  1.39507E+04  3.36786E+04 -2.99635E+03  3.22540E+04
 -2.35932E+04  1.03547E+04 -1.90029E+04 -4.88340E+03  5.78275E+03 -5.64854E+03  2.14707E+04  7.44613E+03
  5.50820E+03  3.71947E+04 -3.46190E+04  3.73251E+04 -6.31219E+04  5.08517E+03 -6.11632E+04 -4.72331E+04
 -1.43736E+04 -7.05219E+04  4.19358E+04 -4.84482E+04  5.60883E+04 -5.81608E+03  3.42451E+04  3.31014E+04
 -3.68361E+03  4.26252E+04 -3.21128E+04  1.88244E+04 -3.12528E+04 -6.06488E+03 -2.09620E+04 -1.32036E+04
 -9.35070E+03 -1.78240E+04 -2.54109E+03 -1.88200E+04  5.87957E+03 -2.48292E+04  1.71778E+04 -1.47161E+04
  9.98448E+03  2.90958E+03 -5.98037E+03  1.03558E+04 -2.42344E+04 -5.59216E+03 -8.80267E+03 -3.11816E+04
  2.24088E+04 -4.08718E+04  4.72101E+04 -1.69292E+04  4.65126E+04  2.39438E+04  1.90025E+04  4.48470E+04
 -1.66264E+04  3.68191E+04 -2.30516E+04  1.37757E+03 -1.57554E+04 -2.96224E+04  2.55485E+04 -3.65106E+04
  4.37133E+04 -1.09174E+04  3.73032E+04  2.37628E+04  1.76760E+04  5.02777E+04 -4.30177E+03  6.19215E+04
 -3.29138E+04  3.38464E+04 -4.42965E+04  9.81756E+03 -4.30343E+04 -1.60078E+04 -2.40950E+04 -3.84277E+04
  9.37953E+03 -4.02937E+04  3.44670E+04 -1.54532E+04  3.62284E+04  1.31369E+04  7.34534E+03  2.29864E+04
 -1.30896E+04  1.25052E+04 -1.22587E+04 -9.71839E+03  5.82737E+03 -1.20807E+04  2.12627E+04  9.30441E+03
  1.00635E+04  1.97209E+04  3.28858E+02  2.23559E+04 -2.13321E+04  1.36507E+04 -2.98111E+04 -3.72190E+03
 -2.27978E+04 -1.98944E+04 -1.62090E+04 -1.92969E+04  4.24064E+03 -2.82082E+04  2.17071E+04 -1.94723E+04
  2.62438E+04 -1.24509E+04  3.31022E+04  2.25379E+03  3.04254E+04  2.46184E+04  7.38519E+03  4.08813E+04
 -1.69798E+04  3.44636E+04 -2.53873E+04  8.37544E+03 -2.12403E+04 -1.14944E+04 -6.05862E+03 -1.49301E+04
 -1.17590E+03 -3.97084E+02 -6.63573E+03  7.32591E+03 -1.69750E+04  3.66219E+03 -2.30325E+04 -9.25874E+03
 -1.35031E+04 -1.63776E+04  4.19762E+03 -3.41513E+04  1.22014E+04 -1.46472E+04  2.09088E+04 -1.58395E+03
  7.67763E+03  1.78080E+04 -2.85961E+02  2.13179E+04 -1.67757E+04  1.17287E+04 -2.07729E+04 -8.14947E+03
 -1.80208E+04 -1.50731E+04 -1.70114E+03 -1.91100E+04  1.37146E+04 -1.93453E+04  2.36035E+04 -7.81573E+03
  1.67047E+04  2.95036E+03  9.79685E+03  2.71040E+03  8.04128E+03  1.46198E+03  1.17790E+04 -4.24860E+03
  1.98199E+04  7.72376E+03  2.34189E+04  2.29648E+04  1.52147E+04  3.49717E+04 -5.16549E+03  4.05341E+04
 -2.46299E+04  4.39511E+04 -3.81762E+04  1.94757E+04 -4.32653E+04 -3.16361E+03 -3.91650E+04 -2.21428E+04
 -1.21054E+04 -3.77359E+04  4.93251E+03 -2.60476E+04  2.53358E+04 -1.38880E+04  2.56214E+04  7.88717E+03
  6.88672E+03  2.04929E+04 -1.65789E+04  1.95002E+04 -2.02223E+04  6.44867E+03 -1.00952E+04 -1.69009E+04
  5.75593E+03 -1.80181E+04  1.16714E+04 -1.44898E+04  1.50679E+04 -2.39156E+02  3.67428E+03  8.15574E+03
 -6.29620E+03  8.73936E+03 -1.04999E+04 -8.01004E+03 -8.87844E+03 -1.39932E+04  8.71928E+03 -1.64763E+04
  1.90287E+04 -7.99605E+03  2.63232E+04  6.02448E+03  2.16806E+04  1.13233E+04  9.87371E+03  2.39174E+04
 -9.10213E+03  2.83024E+04 -1.10659E+04  1.60222E+04 -2.27501E+04  3.38446E+03 -1.72649E+04 -7.33843E+03
 -9.78277E+03 -3.85862E+03  1.03804E+03  7.49707E+03 -4.42277E+03  1.16554E+04 -1.02032E+04  7.55367E+03
 -1.26915E+04 -1.60172E+03 -1.24145E+04 -9.80958E+03 -6.60586E+03 -1.62680E+04  9.56098E+03 -1.18119E+04
  9.62541E+03 -1.33684E+04  4.85129E+03 -1.29977E+03  2.57630E+03  8.88271E+03 -4.55628E+03 -3.08139E+03
 -6.41368E+03 -5.44758E+02  4.87948E+02 -1.03268E+04  1.08280E+04 -2.27025E+04  1.68790E+04 -6.52350E+03
  1.64138E+04  5.42532E+02  9.97957E+03  1.64474E+04  1.29282E+03  2.28325E+04 -6.01435E+03  1.05568E+04
 -8.52665E+03  3.62256E+03 -5.75718E+03 -5.78067E+03 -6.53099E+01 -7.38184E+03  7.30226E+03 -6.23752E+03
  6.58463E+03  6.71559E+03 -1.52401E+03  1.34081E+04 -7.90691E+03  1.35673E+04 -1.34617E+04  2.87451E+03
 -1.18901E+04 -1.59657E+04  6.54352E+03 -1.20212E+04  1.34400E+04 -8.68090E+03  7.29475E+03  2.36639E+03
  5.40772E+01  9.25172E+03 -5.37789E+03  4.71287E+03 -1.05929E+04 -5.40595E+02 -1.50426E+04 -2.33936E+03
 -4.16694E+03 -1.79867E+04  4.76760E+03 -1.19484E+04  1.35527E+04 -1.60738E+04  1.89056E+04  5.56859E+03
  9.54439E+03  1.67132E+04  5.93252E+03  6.63143E+03 -8.66533E+03  9.34394E+03 -1.02682E+04  4.18997E+03
 -7.13685E+03 -9.90139E+03  7.62197E+02 -1.52269E+04  2.69092E+03 -1.19506E+04  1.03191E+04 -5.97054E+03
  7.41943E+02  1.37263E+03 -6.76217E+02 -2.22228E+03 -3.70326E+03 -5.09988E+02  4.21673E+03 -8.72706E+03
  8.01643E+03 -1.72102E+03  1.65735E+04  6.10839E+03  1.79792E+04  1.14131E+04 -3.01680E+02  1.27491E+04
 -2.05848E+03  1.34652E+04 -1.63706E+04  1.29819E+04 -1.61588E+04  9.96439E+02 -1.90360E+04 -9.46133E+03
 -1.19946E+04 -1.58739E+04  1.69379E+03 -1.81159E+04  2.91665E+03 -6.62725E+03  1.75369E+03 -6.91640E+03
  2.67334E+03 -5.36075E+03  1.02956E+04 -6.96484E+03  2.47166E+03 -6.62425E+03  9.19292E+03  3.30569E+03
  4.98546E+03  5.93046E+03  9.31049E+03  1.17141E+04 -2.98486E+03  1.32545E+04 -8.59981E+03  1.18647E+04
 -1.13965E+04 -3.18826E+03 -7.40203E+03 -1.31902E+04 -1.88365E+03 -1.35965E+04  9.80552E+03 -1.13912E+04
  1.57897E+04 -7.53557E+03  1.08557E+04  5.00326E+03  1.49368E+04  8.12345E+03  2.26765E+03  1.24257E+04
 -6.31570E+03  1.37850E+04 -9.33117E+03  6.03931E+03 -1.15005E+04 -3.17616E+03 -1.76789E+03 -4.28715E+03
 -3.74892E+03 -1.99919E+03 -5.29118E+03 -2.46768E+03 -5.91065E+03  6.31348E+03 -3.47624E+03 -2.18528E+02
 -1.38536E+03 -9.89765E+03 -5.36936E+02 -1.13827E+04  8.04542E+03 -1.71829E+04  9.18606E+03  3.06089E+03
  1.05623E+04  4.41443E+03  8.04128E+03  1.25407E+04 -1.61812E+03  1.36003E+04 -2.24158E+03  9.28080E+03
 -1.18049E+04  8.35094E+02 -6.02371E+02 -6.58719E+03  3.12349E+03 -1.02669E+04  8.99455E+03 -7.46622E+03
  7.62161E+03 -1.32283E+03  3.55950E+03 -2.60956E+03  4.14530E+03  1.61149E+03 -1.52411E+03  5.28920E+03
  4.12404E+03  9.03645E+01  2.68037E+03  4.06155E+03  4.39203E+02  3.84380E+03  2.27165E+03 -1.08024E+03
 -8.05794E+03  6.95953E+03 -7.05982E+03  1.56818E+04 -1.37229E+04  7.91077E+03 -1.22270E+04 -4.07540E+03
 -5.11159E+03 -1.38612E+04  3.91151E+03 -1.06729E+04  5.33809E+03 -1.07434E+04  8.19663E+03 -5.74747E+03
  6.86695E+03  2.52826E+03 -6.15191E+02  6.44018E+03 -4.11777E+03  4.43483E+03 -3.76235E+03 -2.47355E+03
  6.61015E+03 -5.30422E+03  8.93363E+02  2.01930E+03  8.53880E+03 -3.88869E+03  2.27856E+03 -4.78926E+03
  5.80257E+03  6.00344E+02 -6.01895E+02  2.11483E+03 -2.29374E+03 -4.26441E+03  8.28010E+02 -2.91867E+03
  3.27514E+03 -3.47117E+03  3.16863E+03  5.03648E+03  5.67239E+03  1.01612E+04  1.93784E+03  9.25587E+03
 -1.01584E+04  3.75377E+03 -9.99102E+03 -7.83045E+02 -4.67175E+03 -8.34443E+02 -3.55918E+03  3.98299E+02
  4.99290E+03 -3.55243E+03  4.26291E+03  5.65487E+03 -7.69137E+02  4.69506E+03 -4.69528E+03  5.06422E+03
 -9.09463E+03  5.77845E+03 -9.32254E+03 -1.75956E+03 -2.44212E+03 -1.29918E+04 -1.77459E+03 -2.70336E+03
  3.95402E+03 -4.20466E+03  3.51413E+03 -7.71468E+02  2.71531E+03 -2.86006E+03  9.32625E+02 -2.36472E+03
 -7.29893E+03 -8.01047E+02  9.27573E+02 -8.95925E+03  3.77997E+03 -1.04412E+03  2.32534E+03 -4.33692E+03
  7.04422E+03 -2.52462E+02  5.28196E+03  3.20232E+03 -2.07851E+03  5.46722E+03 -1.67484E+03  6.68807E+03
 -6.74043E+03  8.71471E+02 -7.34318E+03 -5.92077E+03 -2.51203E+02 -3.57172E+03  5.56141E+03 -1.49564E+03
  6.80850E+03 -6.76286E+02  5.04872E+03 -1.89024E+03  9.04252E+02  5.87378E+03  1.30898E+03 -3.23091E+02
  1.80761E+03  5.72733E+03  3.74482E+02 -2.81092E+03  3.04218E+03  1.89455E+03 -3.16227E+02  4.13174E+03
 -1.89988E+03  2.97670E+03 -8.78554E+03  5.98986E+03 -6.87250E+03  3.88549E+02 -8.18193E+03 -2.07547E+03
 -5.13400E+03 -1.12844E+04  2.20991E+03 -1.02129E+04  8.79133E+03 -9.78348E+03  1.34157E+04 -6.36074E+03
  1.20038E+04  8.17955E+02  1.17990E+04  5.85483E+03  2.10053E+03  1.21907E+04 -2.80453E+03  1.09832E+04
 -1.91305E+03  7.88053E+03 -3.68193E+03 -1.41036E+02 -6.04361E+03 -4.56584E+03 -7.15877E+03  2.28790E+03
  2.91964E+03 -5.97071E+03  4.92097E+03  1.85171E+03 -5.27555E+03  9.05338E+02 -4.92932E+03  3.23784E+03
  3.58615E+03 -4.85827E+02  3.63998E+03  9.18207E+03  5.25682E+03  2.24789E+03 -9.46276E+01  9.77704E+03
 -6.80734E+03  9.88780E+03 -1.14182E+04  4.48097E+02  3.08606E+01 -2.56063E+03 -9.80534E+03 -9.34426E+03
 -5.12736E+03 -8.26766E+03 -1.83580E+03 -4.28872E+03  2.93627E+03  1.41257E+03  3.72186E+03 -5.97417E+02
  1.99763E+03  2.00991E+03  1.85942E+02  5.63677E+03  4.36630E+03  1.44717E+02  4.15311E+02 -1.19580E+03
  6.35359E+03 -1.39405E+03  2.61446E+03 -3.12341E+03  7.71959E+02 -8.39453E+02 -1.98976E+03  4.07657E+03
 -3.40703E+03  7.30527E+03 -2.00930E+03 -2.37289E+03 -3.13280E+03 -1.39933E+03 -6.42658E+03 -5.93992E+03
  1.99673E+03 -6.80847E+03  3.97650E+03 -5.72605E+01  3.90504E+03  5.85309E+03  1.95858E+03  9.30269E+03
  2.70134E+03  7.37570E+03 -1.02513E+02  9.04681E+03 -6.28700E+03  3.88179E+03 -9.03541E+02  6.21399E+03
 -7.86229E+02 -6.01579E+03  1.35128E+03 -9.00100E+02 -2.78968E+03  1.51090E+02 -8.25351E+03  1.44888E+03
 -3.94962E+03  1.57974E+03 -2.76390E+02 -1.04501E+04  1.07599E+04 -8.30065E+03  5.63814E+03 -3.40257E+03
  6.13889E+03  2.28681E+03  2.98052E+03  4.79539E+02 -1.90461E+03  6.04675E+03 -3.65821E+03  3.89904E+03
