 $NMID ID='MM_0lb_SNR50_8hz_g40_98.RAW', FMTDAT='(8E13.5)'
 TRAMP=1., VOLUME=1. $END
  3.04684E+05  3.40297E+03  3.34684E+05  2.49894E+05  8.34754E+04  3.38102E+05 -1.30473E+05  2.51909E+05
 -1.90090E+05  8.46312E+04 -1.16079E+05 -3.32513E+04  1.71335E+03 -4.80134E+04  4.30136E+04 -6.61487E+03
  3.76682E+04  5.44436E+04 -1.30979E+04  7.54861E+04 -6.01464E+04  6.38909E+04 -9.46138E+04  3.40861E+04
 -7.62179E+04 -5.69122E+03 -5.59722E+04 -4.96972E+04 -1.24071E+04 -7.81100E+04  2.54629E+04 -5.27217E+04
  3.75151E+04  1.36971E+04  2.22404E+04  5.36050E+04 -3.48479E+04  4.75923E+04 -6.76668E+04 -9.26297E+02
 -5.68996E+04 -5.63729E+04 -5.59230E+03 -8.06083E+04  3.75333E+04 -5.69683E+04  5.55434E+04 -2.02506E+04
  3.90176E+04  1.36167E+04  3.37936E+04  2.09979E+04  1.90630E+04  3.12300E+04 -5.25018E+03  3.10070E+04
 -2.17640E+04  7.14617E+03 -2.36320E+04 -6.68271E+03  1.05756E+04 -1.04838E+04  2.18163E+04  1.56192E+04
  4.69316E+03  4.10398E+04 -3.49527E+04  2.49118E+04 -6.03191E+04  8.50329E+03 -5.96329E+04 -4.60034E+04
 -6.78357E+03 -6.42344E+04  4.46201E+04 -4.84682E+04  5.81378E+04 -5.49717E+03  4.11050E+04  2.91230E+04
 -4.21574E+03  3.75276E+04 -3.23615E+04  1.30502E+04 -3.24564E+04 -3.03714E+02 -2.27318E+04 -4.88963E+03
 -1.37002E+04 -2.00477E+04 -2.26781E+03 -1.49134E+04  3.60517E+03 -1.97321E+04  1.92519E+04 -1.35361E+04
  1.54934E+04  3.36214E+03 -9.67664E+03  1.10891E+04 -2.34595E+04 -8.54828E+03 -8.20450E+03 -4.29089E+04
  2.63344E+04 -4.82090E+04  5.44230E+04 -2.18718E+04  5.30375E+04  1.77292E+04  1.95736E+04  4.61871E+04
 -1.57674E+04  3.62309E+04 -2.83729E+04 -1.74264E+03 -1.05997E+04 -3.26705E+04  2.14989E+04 -3.96789E+04
  3.40860E+04 -1.97840E+04  4.27678E+04  2.97489E+04  2.13883E+04  5.15202E+04 -3.51583E+03  5.54513E+04
 -3.13064E+04  3.03092E+04 -4.91501E+04  7.04619E+03 -4.58383E+04 -1.98741E+04 -2.94175E+04 -4.15422E+04
  7.92838E+03 -4.36650E+04  3.34934E+04 -1.82386E+04  2.74198E+04  1.01307E+04  9.03813E+03  2.31120E+04
 -1.78593E+04  5.10477E+03 -1.24468E+04 -6.82199E+03  1.08849E+04 -1.47636E+04  1.54026E+04  4.95013E+03
  1.82052E+04  2.59453E+04 -3.74387E+03  2.08260E+04 -2.60987E+04  5.89999E+03 -3.53082E+04 -4.02128E+03
 -2.81826E+04 -2.13301E+04 -1.08011E+04 -2.51796E+04 -7.51592E-02 -2.24265E+04  1.90813E+04 -2.27713E+04
  2.85253E+04 -1.44981E+04  3.49344E+04  4.26614E+03  2.94735E+04  2.45477E+04  3.11207E+03  3.89945E+04
 -1.89845E+04  4.15868E+04 -3.34758E+04  7.95409E+03 -1.78460E+04 -1.22158E+04 -9.13236E+03 -1.38398E+04
  1.78124E+03  1.45831E+03 -4.03776E+03  8.05041E+03 -2.26018E+04 -2.89928E+01 -1.83211E+04 -4.86242E+03
 -9.61932E+03 -2.38685E+04  3.43067E+03 -2.62915E+04  1.26650E+04 -1.67640E+04  2.75476E+04  5.65194E+03
  1.09842E+04  1.40914E+04 -3.32072E+03  2.51616E+04 -1.80458E+04  1.60908E+04 -2.43102E+04 -3.29115E+03
 -2.29413E+04 -1.67383E+04 -3.42715E+03 -2.54698E+04  9.75594E+03 -2.47647E+04  2.54751E+04 -1.08034E+04
  2.63406E+04 -4.65284E+03  1.63087E+04  5.35144E+03  1.37892E+04  6.69723E+03  1.09972E+04 -7.85407E+03
  2.38321E+04  4.85280E+03  3.23328E+04  1.62749E+04  1.89681E+04  4.28164E+04 -5.16868E+03  4.62187E+04
 -2.75610E+04  3.38583E+04 -4.86688E+04  1.70733E+04 -4.77170E+04 -3.88061E+03 -3.31219E+04 -2.95206E+04
 -1.26119E+04 -3.23862E+04  1.61727E+04 -2.92375E+04  3.05748E+04 -2.31051E+04  1.86673E+04  2.93717E+03
  3.37964E+03  1.86940E+04 -1.18053E+04  1.37914E+04 -1.59230E+04  1.75740E+03 -1.62827E+04 -1.41551E+04
 -1.30198E+03 -1.36029E+04  1.23818E+04 -1.21644E+04  1.20508E+04  2.86860E+02 -7.81015E+02  5.31338E+03
 -8.94509E+03  7.50437E+03 -1.57983E+04 -5.73288E+03 -9.59162E+03 -2.28796E+04  2.14940E+04 -2.64851E+04
  2.06177E+04 -1.23180E+04  2.70066E+04  4.83832E+03  2.03034E+04  1.84043E+04  1.43915E+04  3.55375E+04
 -6.81060E+03  2.87144E+04 -2.39851E+04  1.68498E+04 -1.57817E+04 -2.01439E+03 -1.30787E+04 -9.26140E+03
 -3.79107E+03 -4.91708E+03  3.00060E+03 -4.24289E+03 -6.97593E+03  6.35189E+03 -9.42797E+03  5.38124E+03
 -8.67979E+03 -2.60364E+03 -1.24763E+04 -4.44365E+03 -1.50400E+04 -2.04580E+04  4.95534E+03 -1.51927E+04
  1.23403E+04 -3.51929E+03  7.92510E+03 -4.89726E+02  7.53743E+03  5.51250E+03 -6.23791E+03  4.30420E+03
 -4.40459E+03 -1.42287E+04 -3.44208E+03 -1.37134E+04  3.11192E+03 -2.16240E+04  2.18447E+04 -4.14853E+03
  2.61378E+04  1.51383E+03  2.34281E+04  8.72143E+03  7.85797E+03  2.17951E+04 -7.35195E+03  1.03739E+04
 -1.43207E+04  9.32180E+02 -6.72647E+03 -2.74076E+03  1.26624E+03 -3.24689E+03  1.68257E+04 -6.51046E+03
  7.21836E+03  5.17589E+03  7.38093E+03  6.69232E+03 -1.23214E+04  1.08936E+04 -1.80186E+04  1.36188E+03
 -1.25847E+04 -4.81567E+03  6.31829E+03 -1.19296E+04  6.26635E+03 -2.01259E+03  5.97025E+03  9.97231E+03
  1.43009E+03  1.11201E+04 -1.63538E+04  1.10501E+04 -1.38784E+04  8.26623E+03 -1.76857E+04 -1.13000E+04
 -1.05354E+04 -1.32317E+04 -6.76178E+02 -1.45834E+04  1.75189E+04 -1.57738E+04  2.28807E+04 -2.73617E+03
  1.08948E+04  1.47395E+04  6.38418E+02  1.42905E+04 -1.09072E+04  6.60451E+03 -1.39961E+04 -9.54094E+02
 -1.12448E+04 -7.38644E+03  3.06165E+03 -1.71717E+04 -2.08008E+02 -1.45449E+04  1.12011E+04  1.64398E+03
  2.46222E+03 -4.87791E+03  4.48544E+03  1.13737E+01  4.61962E+02 -3.03968E+03  3.50065E+03 -6.05111E+03
  1.79193E+04 -4.17612E+02  1.81901E+04  8.21736E+03  9.39819E+03  2.19310E+04  1.20758E+04  2.02027E+04
 -8.53431E+03  3.09212E+04 -2.41872E+04  1.91785E+04 -2.20336E+04  5.99641E+03 -2.14951E+04 -1.16706E+04
 -1.68335E+04 -1.42377E+04  1.73627E+03 -1.63258E+04  1.18713E+04 -4.55761E+03  8.79261E+02 -1.50414E+03
  5.28593E+03 -4.93110E+03  5.93014E+03 -4.26073E+03 -1.07221E+03 -6.62541E+03  9.49296E+03  7.32492E+02
  9.55185E+03  4.27979E+03 -2.20057E+03  6.25188E+03  6.02149E+02  1.11854E+04 -6.02807E+03  1.19079E+04
 -1.22137E+04 -5.56722E+03 -8.96625E+03 -7.82961E+03 -3.86005E+03 -1.46223E+04  8.79653E+03 -2.16729E+04
  1.66848E+04 -1.08807E+04  1.84190E+04 -2.53571E+03  1.59784E+04  1.64031E+04  4.59884E+03  1.41956E+04
 -2.21296E+03  1.91629E+04 -8.36752E+03  2.59809E+03 -4.21154E+03  2.79996E+03  1.59728E+01  5.13538E+02
 -4.39418E+02  8.60503E+02  9.24074E+02  5.99815E+03 -6.87752E+03  2.01129E+03 -7.98867E+03 -1.75682E+03
 -1.43607E+04 -5.40448E+03 -5.47770E+03 -1.66593E+04  1.05382E+04 -1.26108E+04  1.78398E+04 -7.30439E+03
  1.86695E+04  1.37647E+04  1.44666E+04  1.37608E+04 -1.06650E+04  2.12860E+04 -1.42988E+04  1.16893E+04
 -1.53124E+04 -1.02948E+02 -1.31836E+04 -1.34246E+04  6.69818E+03 -1.17591E+04  8.27588E+03 -1.04463E+04
  8.98252E+03 -2.45141E+03  1.06823E+04 -1.90457E+03  3.00463E+03  6.88999E+03  5.33393E+03  2.88355E+03
  8.36494E+02  3.75108E+03  1.47099E+03 -2.76562E+03  3.23772E+03  6.55334E+03  3.03754E+03  1.11828E+04
 -4.77314E+03  1.20695E+04 -1.42337E+04  7.74142E+03 -1.74873E+04  2.89660E+03 -1.54504E+04 -9.95950E+03
 -5.77489E+03 -1.55816E+04 -1.43731E+03 -1.43815E+04  1.02747E+04 -6.75629E+03  1.18499E+04 -4.14820E+02
  9.99160E+03  3.07599E+03 -2.64857E+02  3.77680E+03 -2.29049E+03  8.73042E+02 -1.00569E+04 -1.01813E+04
 -1.07352E+03 -1.18420E+04 -6.55295E+03 -8.16917E+03 -1.94658E+03 -9.98508E+03  1.47090E+04  7.78820E+03
  4.50907E+03  1.11727E+04 -4.50365E+03 -5.42178E+03 -4.61657E+03  6.82469E+02  5.54969E+03  1.24384E+03
  2.91987E+03  3.36773E+03  5.83209E+02  1.06010E+03  1.97362E+03  9.79380E+03 -2.50931E+03  1.61001E+04
 -8.09992E+03  4.82175E+03 -5.78454E+03  4.06204E+03 -1.19953E+04 -3.33823E+03 -4.23177E+03 -1.22833E+04
  5.38569E+03 -4.46636E+03  4.43058E+03 -3.60438E+03  4.50081E+03  3.27950E+03  4.79297E+02  2.97858E+03
 -9.48453E+02 -4.18129E+02 -6.67267E+03 -7.23917E+03 -9.57720E+03 -1.22943E+04  1.79032E+03 -1.64564E+04
  5.56396E+03 -3.19592E+03  1.02330E+04 -7.43357E+03  6.38582E+02  6.74356E+03 -1.35381E+03  2.22026E+03
 -2.87116E+03 -4.19384E+01 -1.03677E+04 -2.89580E+03 -2.71769E+03 -5.83881E+03  1.45986E+04 -3.15652E+03
  9.55741E+03 -9.36533E+02  8.47972E+03  1.14676E+04  6.68560E+03  1.13912E+04 -1.73211E+03  9.06112E+03
 -1.07682E+04  4.72853E+02 -1.22469E+04 -3.31931E+03 -1.12674E+03 -7.78475E+03  2.38979E+01 -4.21063E+03
  8.22496E+03 -4.96503E+03  8.81475E+03  2.78622E+02 -5.54849E+03  6.78260E+03 -2.16135E+03  3.14648E+03
 -9.12828E+02  3.28913E+03 -4.56175E+03  5.80583E+03 -7.33298E+03  2.93218E+03 -2.39901E+03  2.56701E+03
 -5.15133E+02  3.45742E+03 -4.76190E+03  5.74792E+03 -6.38653E+03 -1.96604E+03 -8.45879E+03 -9.39696E+03
 -1.29208E+04 -1.26692E+04  5.87978E+03 -1.54957E+04  1.54083E+04 -1.11419E+04  1.59437E+04 -4.66197E+03
  1.54880E+04  1.71710E+03  6.93495E+03  7.90230E+03 -3.72623E+03  1.76973E+04 -4.27196E+03  8.24877E+03
 -3.79423E+03  4.04008E+03  6.47071E+02  7.51853E+03  8.68695E+02  1.39584E+03 -9.45713E+03 -4.57894E+02
  3.94585E+03  1.24738E+03  3.79654E+02 -5.87057E+03 -2.90319E+03 -2.93893E+03  2.17732E+03 -7.79403E+03
  4.31972E+03 -6.09767E+03  9.26020E+03  1.55394E+03  1.39867E+04  3.76279E+03  7.56816E+03  1.13261E+04
 -4.04510E+03  1.47109E+04 -9.93592E+03  1.41288E+04 -1.64021E+04 -2.49106E+03 -1.51367E+04 -1.29218E+04
 -6.44016E+03 -1.40558E+04  3.32631E+03 -9.06498E+03  4.42083E+03 -3.74319E+03  7.95103E+03  6.44590E+02
  7.38658E+03  8.05259E+03 -2.95385E+03  5.29292E+03 -5.10358E+02  5.09716E+03  1.78624E+03 -3.86302E+03
 -5.01005E+03  3.57196E+03  9.10254E+03 -3.24860E+02  4.62479E+02  1.06943E+04 -2.93831E+02  1.20586E+04
 -3.26631E+03  9.50668E+03 -1.00329E+04 -5.09150E+02 -7.70654E+03 -6.28630E+03  1.66579E+03 -1.54665E+04
  8.85102E+03 -3.94710E+03  1.05534E+04  2.58523E+03  5.62834E+03  6.26103E+03  5.64176E+03  8.70469E+03
 -1.22660E+02  9.26351E+03  2.53571E+03  8.91926E+03 -5.98514E+03  2.09078E+03 -8.36484E+03  2.51949E+03
 -4.12794E+03  1.10149E+02 -1.05085E+03 -4.20007E+03 -2.91419E+03  5.61071E+03 -1.48176E+04 -3.76857E+03
 -8.23284E+03 -5.68095E+03  3.55914E+03 -1.16076E+04  1.47194E+03 -1.11805E+04  7.48225E+03 -9.08392E+03
  6.68335E+03  3.51147E+03  6.62139E+03  4.49004E+03 -3.13858E+03  9.98537E+03 -3.29683E+03  8.54138E+03
