 $NMID ID='MM_0lb_SNR50_11hz_g45_87.RAW', FMTDAT='(8E13.5)'
 TRAMP=1., VOLUME=1. $END
  3.07507E+05  2.15543E+03  3.38750E+05  2.53337E+05  8.36420E+04  3.39399E+05 -1.24698E+05  2.56527E+05
 -1.86065E+05  8.22396E+04 -1.08705E+05 -2.99590E+04  5.77858E+03 -4.99703E+04  5.50573E+04  2.34758E+02
  3.33431E+04  5.39724E+04 -1.61075E+04  7.08712E+04 -6.03075E+04  5.67440E+04 -8.96866E+04  3.16479E+04
 -8.32619E+04 -1.20206E+04 -5.78507E+04 -4.97334E+04 -1.83749E+04 -6.87359E+04  2.32515E+04 -4.90045E+04
  3.75045E+04 -9.26859E+02  1.50475E+04  4.61990E+04 -3.50684E+04  4.59025E+04 -6.41695E+04 -5.87453E+03
 -6.06481E+04 -5.97639E+04 -7.51601E+03 -7.49727E+04  3.78380E+04 -6.07464E+04  5.22202E+04 -1.51067E+04
  4.70647E+04  1.16877E+04  3.43687E+04  2.53895E+04  1.35182E+04  3.22253E+04 -8.97444E+03  2.43495E+04
 -2.34879E+04  1.58781E+04 -1.85592E+04 -3.19542E+03  1.41043E+04 -3.61414E+03  2.17840E+04  9.11408E+03
  5.87542E+03  3.44316E+04 -3.25940E+04  3.66285E+04 -6.84722E+04  5.55495E+02 -5.60452E+04 -4.47440E+04
 -1.37262E+04 -7.03051E+04  3.84774E+04 -4.39619E+04  5.58153E+04 -3.99550E+03  3.40886E+04  3.24264E+04
 -4.58750E+03  3.80505E+04 -3.23789E+04  1.87088E+04 -3.04284E+04 -7.48993E+03 -1.53029E+04 -1.16617E+04
 -5.87200E+03 -1.49374E+04  5.42950E+02 -1.35892E+04  1.28600E+04 -2.47312E+04  1.31118E+04 -7.93442E+03
  5.95484E+03 -2.97995E+03 -1.44122E+04  1.93756E+04 -1.96774E+04  1.48183E+03 -1.15930E+04 -3.51339E+04
  2.08384E+04 -4.58115E+04  4.86036E+04 -1.97244E+04  4.28918E+04  2.44738E+04  1.59069E+04  5.02810E+04
 -1.99933E+04  2.86890E+04 -2.85613E+04  2.29845E+02 -8.75720E+03 -2.37558E+04  1.59548E+04 -3.45496E+04
  4.15961E+04 -8.40207E+03  3.93719E+04  2.44255E+04  1.52950E+04  5.00269E+04 -5.71258E+03  5.11006E+04
 -3.09974E+04  3.49634E+04 -4.04393E+04  1.17713E+04 -4.58403E+04 -1.87025E+04 -1.70545E+04 -4.42187E+04
  4.56925E+03 -3.89618E+04  3.09319E+04 -1.71012E+04  3.39195E+04  8.90024E+03  2.98133E+03  2.02631E+04
 -1.02858E+04  9.90274E+03 -1.16636E+04 -5.72104E+03  8.10872E+03 -9.08472E+03  1.59445E+04  3.69915E+03
  1.42557E+04  2.85719E+04 -1.03736E+03  3.30614E+04 -2.40501E+04  1.40626E+04 -3.26372E+04 -3.79941E+03
 -2.55500E+04 -1.49065E+04 -2.69826E+03 -1.91350E+04  5.36878E+03 -1.91773E+04  1.77936E+04 -1.99663E+04
  3.15495E+04 -1.96131E+04  3.74207E+04  7.69801E+03  2.61751E+04  2.11093E+04  4.71600E+03  4.07168E+04
 -2.02090E+04  3.08841E+04 -2.79883E+04  1.29687E+04 -1.91400E+04 -4.99567E+03 -4.58221E+03 -1.63839E+04
 -6.55103E+03  2.07633E+03 -8.05761E+03  5.75371E+02 -1.79422E+04  8.95414E+02 -1.74924E+04 -1.34475E+04
 -1.20740E+04 -1.40598E+04  2.47936E+02 -2.59541E+04  1.57152E+04 -1.83637E+04  1.86120E+04 -1.57376E+03
  9.30871E+03  1.81669E+04  1.23517E+03  2.38397E+04 -1.67900E+04  1.07501E+04 -3.07622E+04 -7.29434E+02
 -1.52090E+04 -1.59675E+04  4.75206E+03 -2.67433E+04  1.17862E+04 -2.36727E+04  2.00950E+04 -1.22364E+04
  1.87361E+04  2.91663E+03  1.52700E+04  6.52764E+03  8.58474E+03  1.83191E+03  1.56414E+04 -1.43425E+03
  1.89212E+04 -5.62248E+02  2.43660E+04  1.93960E+04  2.12077E+04  3.60374E+04 -4.70928E+03  3.74165E+04
 -2.13231E+04  2.96940E+04 -3.61523E+04  1.37780E+04 -4.06704E+04 -4.72043E+03 -3.25046E+04 -1.74482E+04
 -9.41046E+03 -3.60861E+04  9.62520E+03 -2.93456E+04  2.61256E+04 -1.43094E+04  2.36129E+04  1.07998E+04
  8.70897E+03  1.14380E+04 -3.91712E+03  1.05507E+04 -1.96469E+04  2.21348E+03 -1.10152E+04 -1.22822E+04
 -3.42287E+03 -2.00295E+04  1.11202E+04 -6.01235E+03  1.12986E+04  3.14351E+02  1.68392E+03  3.89884E+03
 -8.12701E+03  6.04076E+03 -1.04146E+04 -8.20774E+03  3.76673E+03 -1.32309E+04  1.38627E+04 -1.49546E+04
  1.76628E+04 -1.21368E+04  2.31322E+04  3.65284E+03  2.10625E+04  1.76373E+04  8.83669E+03  2.25263E+04
 -2.61283E+02  2.76742E+04 -1.83167E+04  1.20727E+04 -2.16078E+04  2.80168E+03 -1.56827E+04 -4.83568E+03
 -1.59155E+03 -6.04713E+03  2.51025E+03  1.20180E+03 -2.31652E+03  4.63867E+03 -4.63689E+03  3.96794E+03
 -7.73210E+03 -1.24166E+03 -1.02613E+04 -6.85302E+03 -7.84569E+03 -1.45144E+04  2.58438E+03 -9.89866E+03
  1.03593E+04 -5.75609E+03  9.07682E+03  8.66189E+03  1.61552E+03  4.72762E+03 -9.94479E+03  5.26361E+02
 -6.84612E+03 -1.18972E+04 -2.03274E+02 -2.20376E+04  1.22471E+04 -1.12272E+04  2.48601E+04 -1.17694E+04
  2.20456E+04  3.31546E+03  1.36176E+04  1.29428E+04 -1.04616E+02  1.83915E+04 -1.02829E+04  1.18874E+04
 -1.51849E+04 -7.70646E+02 -2.42834E+03 -5.27463E+03  7.32622E+02 -3.76226E+03  9.03692E+02 -5.49036E+03
  6.02436E+03  8.43841E+03  5.76512E+03  8.06504E+03 -8.11137E+03  1.04351E+04 -1.53314E+04  7.49590E+03
 -9.68510E+03 -1.07957E+04 -1.11209E+03 -1.57767E+04  3.65955E+03 -6.97744E+03  6.13165E+03  2.01027E+03
  1.35152E+03  6.62230E+03 -6.33669E+03  1.10067E+04 -9.52272E+03  8.34934E+03 -9.52174E+03 -3.43743E+03
 -5.62927E+03 -1.10605E+04 -4.30904E+02 -1.84396E+04  1.65643E+04 -7.17270E+03  1.44200E+04 -5.87132E+02
  1.12625E+04  1.20342E+04 -6.03150E+03  1.77954E+04 -7.61263E+03  8.16720E+03 -1.26649E+04  4.75350E+03
 -1.03181E+04 -9.39909E+03  4.11538E+03 -6.29151E+03  3.69188E+03 -1.17871E+04  1.75116E+03 -6.82173E+03
  6.47586E+03  3.19488E+03 -8.77361E+02  2.69386E+02 -9.39030E+02 -1.84135E+03  6.14154E+03 -1.15914E+04
  8.03235E+03 -7.54619E+03  1.04841E+04 -1.35762E+03  1.45090E+04  9.16697E+03  8.87214E+03  1.63701E+04
 -9.17301E+03  2.13448E+04 -1.67906E+04  9.55256E+03 -1.80403E+04 -2.46398E+03 -1.28147E+04 -6.84858E+03
 -1.18849E+04 -1.03199E+04 -7.16704E+02 -1.57111E+04  4.07277E+03 -7.67103E+03  4.93516E+03 -9.41670E+03
  4.91237E+03 -3.68744E+03 -2.27193E+03 -1.51736E+03  3.47933E+03  3.53776E+03  5.96058E+02 -6.53624E+02
  9.82922E+03 -8.22225E+02  4.61472E+03  5.48476E+03  1.60444E+03  2.08537E+03 -1.04841E+04  5.86305E+03
 -9.34169E+03  1.25840E+03 -2.78475E+03 -3.73046E+03  3.89272E+03 -1.57037E+04  8.92231E+03 -1.08698E+04
  1.21611E+04 -9.94132E+02  1.26493E+04  7.33113E+03  1.43867E+04  8.18051E+03 -3.62662E+03  1.43161E+04
 -7.01534E+03  1.33387E+04 -1.03232E+04  3.17138E+03 -7.66532E+03 -3.74946E+02 -3.77303E+03 -1.30039E+03
  3.01419E+03  2.40808E+03  4.85995E+03  3.20653E+03 -6.15054E+03  1.32826E+03 -1.48351E+04 -6.48972E+00
 -7.56282E+03 -1.07422E+04  4.40894E+02 -1.17293E+04  5.45366E+03 -9.62489E+03  1.56842E+04 -5.77723E+03
  9.82039E+03  1.38734E+03  7.34057E+03  7.27041E+03 -1.29433E+03  1.34584E+04 -8.90557E+03  5.30747E+02
 -1.26632E+04  9.07939E+02 -1.16309E+04 -3.21806E+03 -1.36825E+03 -6.20878E+03  4.76962E+03 -2.34573E+03
  3.02511E+03 -4.60379E+02  7.49249E+03  6.67442E+03  5.99054E+03  8.41722E+03  2.00522E+03  3.19776E+03
  1.95933E+03 -1.75562E+03  6.98459E+03  4.34894E+03  4.08312E+03 -1.86645E+03  7.55818E+03  6.24785E+03
 -5.37803E+03  8.31335E+03 -7.25517E+03  4.75963E+03 -1.58066E+04  1.95438E+03 -1.41333E+04 -4.14433E+03
 -5.76466E+03 -1.14452E+04  1.38609E+03 -7.03150E+03  3.48672E+03 -8.96587E+03  6.27694E+03 -3.16742E+03
  6.40591E+03  9.64169E+02  1.38142E+03  4.32531E+03  2.75292E+02  1.24273E+03 -6.69991E+03  3.14837E+03
  1.50153E+02 -4.55632E+02  2.49986E+01 -5.08161E+03  2.90152E+03 -2.39537E+03  5.15225E+03  8.91631E+02
  9.07137E+03  3.80807E+03 -4.35023E+03  4.36706E+03  2.48989E+03 -4.29594E+03  1.36989E+03  6.00469E+03
  1.37885E+03 -4.26413E+03  2.50999E+03 -1.47990E+03 -1.33239E+03  7.59451E+03 -4.21854E+03  7.74273E+03
 -4.31445E+03  4.25734E+03 -2.04999E+03 -1.33856E+03 -6.14010E+03 -1.46606E+03  6.88584E+02 -1.20557E+03
 -2.76554E+03 -8.75470E+02  2.20907E+03 -2.91135E+03  3.64644E+03 -4.98702E+02 -4.54824E+03 -1.28721E+03
 -2.07686E+03  4.18471E+03 -1.00340E+04  1.05500E+03  1.00190E+03 -4.72753E+03 -2.09596E+03 -1.07849E+04
  5.44879E+03 -8.62973E+02  1.24002E+03 -3.85329E+03  1.50933E+03  5.98244E+03  3.30872E+03  1.54092E+03
 -6.04901E+03 -1.50516E+03 -2.37388E+03  1.03089E+03  7.35094E+03 -4.10168E+03  5.62560E+03 -5.14509E+03
  4.90288E+03  3.96823E+03  9.23698E+03  6.40933E+03  3.30231E+03  1.42783E+04 -3.37779E+03  5.65962E+03
 -3.20004E+01  4.31090E+03 -5.03830E+03  6.90951E+02 -5.79253E+03 -4.38344E+03 -5.35260E+02 -7.77678E+03
  1.06574E+03 -6.67768E+01  9.31724E+03  5.40672E+03  4.03085E+03  1.87470E+03 -2.00582E+03  4.93216E+03
  3.80824E+03 -1.83904E+03  3.55563E+02  5.92292E+03 -3.63124E+02 -5.17403E+03 -6.66050E+03  2.18268E+03
 -1.62211E+03  2.23260E+03 -4.73518E+03 -6.24050E+02 -7.12428E+03 -3.51339E+03 -8.84351E+03 -7.31479E+03
 -8.30055E+02 -8.50450E+03  5.11450E+02 -8.06272E+03  1.05576E+04 -9.02884E+03  1.34277E+04 -4.74876E+03
  1.04908E+04  2.96473E+03  3.45356E+03  7.42201E+03 -1.06783E+03  1.22505E+04 -5.30820E+03  1.06836E+04
 -8.09546E+02  3.36387E+03 -4.57402E+03 -6.31089E+03 -4.72200E+03  3.02615E+03 -5.22647E+02  2.89122E+03
 -2.84548E+03  3.76166E+03 -5.67457E+02 -4.65329E+03 -3.69561E+03  4.84557E+03 -6.52052E+02 -4.94858E+03
  1.91242E+03 -4.55618E+03  4.35408E+03  1.10150E+03  4.51687E+03  6.09234E+03  1.56623E+03  6.62392E+03
 -7.32189E+03  1.18624E+04 -7.31805E+03  6.82068E+03 -1.05905E+04  4.88861E+02 -6.38599E+03 -8.86570E+03
 -1.06174E+03 -1.08441E+04  9.66762E+01 -4.49479E+03  5.13750E+03 -5.94056E+03  8.09889E+03  4.95291E+03
  2.26465E+03  2.20339E+03 -8.36287E+01 -1.02722E+03 -1.39320E+03  4.59485E+03  1.22650E+03  2.82914E+03
  5.39168E+03  1.44821E+03  5.30291E+03  4.61486E+03 -4.18281E+03  1.82449E+03 -2.32300E+03  2.09964E+03
  7.17341E+02  2.11189E+03 -7.32837E+03 -9.55777E+02  1.31850E+03 -1.85157E+03  1.54374E+02 -1.33552E+03
  6.25022E+03 -6.02737E+03  7.79651E+03 -5.28547E+03  6.41570E+03  9.45971E+03  3.71783E+03  6.78927E+03
  3.73584E+03  2.79376E+03 -3.05053E+03  9.94125E+02 -3.39861E+03  5.53089E+03 -1.05518E+03  2.51613E+03
 -3.24779E+03 -2.86981E+03 -9.77042E+01 -1.15180E+03 -5.36153E+03  5.09161E+03 -2.57858E+03 -5.12778E+03
 -4.76297E+03 -2.41853E+02  8.04730E+02 -6.50647E+03 -4.18476E+02 -5.27765E+03  7.65794E+03 -6.35201E+03
  5.90059E+03 -2.56200E+03  7.72466E+02  3.77077E+03 -4.80367E+03  6.91797E+03  3.92504E+03  1.91541E+03
