 $NMID ID='MM_0lb_SNR50_10hz_g45_88.RAW', FMTDAT='(8E13.5)'
 TRAMP=1., VOLUME=1. $END
  3.09898E+05 -2.99906E+03  3.32081E+05  2.56302E+05  8.46293E+04  3.34898E+05 -1.32387E+05  2.53315E+05
 -1.93197E+05  8.68593E+04 -1.18476E+05 -2.97277E+04  4.04338E+03 -5.34341E+04  5.19121E+04  4.47435E+03
  3.51401E+04  4.97430E+04 -1.80744E+04  7.46571E+04 -5.94669E+04  6.49859E+04 -8.66198E+04  3.25763E+04
 -7.90951E+04 -1.27046E+04 -5.45725E+04 -5.31823E+04 -1.38073E+04 -7.40583E+04  2.88876E+04 -4.37774E+04
  4.64325E+04  4.03267E+03  1.79985E+04  4.37409E+04 -2.75502E+04  5.25676E+04 -6.92222E+04  1.13307E+03
 -5.27823E+04 -5.68898E+04 -4.87519E+03 -7.94799E+04  3.25266E+04 -5.31577E+04  4.88439E+04 -1.81206E+04
  4.53660E+04  7.10205E+03  3.47870E+04  2.81796E+04  9.10443E+03  2.57356E+04 -5.41163E+03  2.19716E+04
 -1.58273E+04  1.02295E+04 -1.19012E+04 -4.02072E+03  6.49540E+03 -1.03329E+04  2.17165E+04  1.19342E+04
  9.81311E+03  3.68793E+04 -3.52169E+04  3.07931E+04 -6.61635E+04  1.53057E+03 -5.75117E+04 -4.75803E+04
 -1.62854E+04 -7.27830E+04  4.42963E+04 -4.76021E+04  6.02323E+04  8.63004E+02  3.57024E+04  3.36637E+04
 -3.04931E+03  3.58103E+04 -2.67359E+04  1.29058E+04 -3.28466E+04 -3.72086E+03 -2.13151E+04 -9.93765E+03
 -9.96629E+03 -1.49590E+04  1.09037E+03 -1.56074E+04  1.34450E+04 -2.07046E+04  1.79977E+04 -1.46336E+04
  1.20562E+04  1.11742E+03 -1.08550E+04  9.92935E+03 -2.45025E+04 -3.20660E+03 -7.04106E+03 -3.55214E+04
  2.56004E+04 -4.72815E+04  5.27508E+04 -1.65240E+04  4.61613E+04  2.45345E+04  1.45231E+04  4.41078E+04
 -1.60465E+04  3.35391E+04 -2.57823E+04  1.45760E+03 -1.18833E+04 -2.53749E+04  1.77460E+04 -3.52238E+04
  3.90574E+04 -1.31444E+04  3.43517E+04  2.51962E+04  2.86011E+04  4.97419E+04 -8.46021E+03  5.96335E+04
 -4.07161E+04  3.67572E+04 -4.69518E+04  8.23258E+03 -4.45147E+04 -1.50710E+04 -2.80635E+04 -4.69633E+04
  7.75910E+03 -4.17232E+04  3.21584E+04 -1.70373E+04  3.73446E+04  1.26286E+04  4.39944E+03  2.27326E+04
 -2.01093E+04  1.28578E+04 -1.16730E+04 -3.92733E+03  1.44777E+04 -3.87790E+03  2.20789E+04  1.32443E+04
  1.24620E+04  2.68291E+04  2.60840E+03  2.33346E+04 -2.31410E+04  2.35683E+04 -3.11277E+04  3.19078E+02
 -2.31050E+04 -2.26608E+04 -1.72636E+04 -2.38839E+04  4.85525E+03 -1.83385E+04  1.27723E+04 -2.08686E+04
  3.16710E+04 -1.46121E+04  3.43165E+04  3.28996E+03  2.29760E+04  1.98288E+04  7.83546E+03  4.05860E+04
 -1.65263E+04  3.69018E+04 -2.44149E+04  7.60396E+03 -2.05131E+04 -1.08464E+04 -3.32361E+02 -9.97690E+03
  7.98409E+02 -7.88876E+03 -1.49737E+03  7.81512E+03 -2.05503E+04  6.53689E+03 -1.52414E+04 -1.14146E+04
 -9.71650E+03 -2.33657E+04  4.39145E+03 -2.30377E+04  1.94790E+04 -2.34338E+04  3.35999E+04 -1.91060E+03
  1.82855E+04  1.61253E+04  1.54776E+03  2.32206E+04 -1.39660E+04  1.26596E+04 -2.32369E+04  2.70222E+03
 -1.37819E+04 -2.63265E+04 -5.56665E+03 -2.06997E+04  8.06308E+03 -2.19848E+04  1.64091E+04 -1.05889E+04
  1.66551E+04  5.27631E+03  2.04378E+04  2.74005E+03  1.24675E+04 -1.95901E+03  1.15651E+04  2.57318E+03
  2.07937E+04  4.57651E+02  2.33086E+04  1.57314E+04  1.29794E+04  3.70615E+04 -2.61007E+03  3.99104E+04
 -3.02144E+04  3.46123E+04 -3.59261E+04  1.42087E+04 -3.86889E+04 -6.03698E+03 -3.82302E+04 -2.94348E+04
 -1.47126E+04 -3.34367E+04  8.80139E+03 -3.10334E+04  2.54690E+04 -1.15796E+04  2.10152E+04  1.31295E+04
  1.03750E+04  2.25292E+04 -1.27209E+04  1.69691E+04 -2.00543E+04 -3.48254E+03 -1.49612E+04 -1.41608E+04
  3.09204E+03 -1.46140E+04  4.14878E+03 -1.62372E+04  1.44610E+04 -1.12909E+03  2.72517E+03  1.14654E+04
 -1.05068E+04  2.00387E+03 -6.70320E+03 -1.48367E+03 -1.26438E+03 -1.30429E+04  1.00431E+04 -1.66522E+04
  1.55895E+04 -1.06715E+04  2.59876E+04  7.82874E+03  2.35306E+04  1.39966E+04  1.39816E+04  2.66735E+04
 -7.64080E+03  2.80572E+04 -1.93786E+04  1.41100E+04 -1.79743E+04  8.40217E+02 -1.24056E+04 -8.12609E+03
 -4.54072E+03 -1.40272E+04  1.28217E+03 -6.83490E+02 -2.86338E+03 -3.16972E+02 -8.10228E+03  7.96599E+02
 -1.84196E+04 -2.03796E+03 -2.15321E+04 -1.31659E+04 -8.23582E+03 -1.43964E+04  9.52885E+03 -1.18449E+04
  1.62536E+04 -8.23885E+03  1.02732E+04  2.28676E+03  1.84725E+02  9.35923E+03 -2.10306E+03  8.33127E+02
 -9.17458E+03 -5.44250E+03  4.16395E+03 -8.85196E+03  1.18054E+04 -1.47061E+04  1.72157E+04 -9.06455E+03
  1.90244E+04  4.41607E+03  1.18196E+04  1.43897E+04  2.79884E+03  1.86704E+04 -7.77726E+03  1.78648E+04
 -1.24653E+04  5.16190E+03 -8.23168E+03 -5.39020E+03  8.22083E+03  1.04662E+03  6.99073E+03 -6.37463E+03
  7.82645E+03  1.05302E+04 -6.20610E+03  1.72137E+04 -5.70437E+03  1.01126E+04 -1.71794E+04  5.18223E+03
 -7.94463E+03 -9.05697E+03 -6.73555E+02 -1.40205E+04  8.86405E+03 -4.84126E+03  9.67895E+03  2.48999E+03
  7.47521E+02  9.56962E+03 -7.45769E+03  4.52518E+03 -7.56351E+03  3.19008E+03 -1.05448E+04 -3.82851E+03
 -9.42339E+03 -1.28030E+04  4.91937E+03 -1.38380E+04  1.49110E+04 -5.25707E+03  1.70062E+04  2.13226E+03
  4.96325E+03  6.25961E+03  2.31217E+01  1.78662E+04 -9.84042E+03  1.32241E+04 -1.18347E+04 -2.36678E+03
 -1.16288E+04 -8.90145E+03 -2.86128E+03 -1.19533E+04  5.98549E+03 -2.71759E+03  9.34249E+03 -7.25502E+02
  3.78452E+02  3.76062E+03  2.33365E+03  1.93197E+03 -2.17695E+03 -2.76579E+03 -5.92891E+02 -6.65542E+03
  1.20251E+04  1.04419E+03  1.26282E+04 -3.21126E+03  1.46523E+04  1.40521E+04  1.31148E+04  2.46333E+04
 -3.59659E+03  2.49475E+04 -1.57760E+04  1.60982E+04 -2.24054E+04  1.00506E+04 -2.00930E+04 -5.92883E+03
 -9.22616E+03 -1.60489E+04 -8.54730E+03 -1.21891E+04  4.27887E+02 -6.50306E+03  4.58407E+03  8.96760E+01
  7.22734E+03  4.61636E+02  1.17906E+02 -2.21087E+03  2.27628E+03 -5.60956E+03  7.23549E+03 -3.91122E+03
  1.31029E+04  2.15702E+03 -1.16841E+03  1.10529E+04 -4.63443E+03  8.96579E+03 -8.87262E+03  1.12176E+04
 -7.34657E+03 -6.60073E+02 -7.37127E+03 -2.30329E+03  2.56389E+03 -1.26461E+04  6.41291E+03 -1.82888E+04
  1.36143E+04 -8.70851E+03  1.60513E+04  5.32141E+03  1.33498E+04  1.11731E+04 -2.09733E+03  1.75191E+04
 -8.44910E+03  1.44941E+04 -1.24552E+04  6.70334E+03 -7.93166E+03 -3.96840E+02  2.23839E+03  3.59684E+02
  2.16200E+03 -6.84413E+02 -5.92814E+03  1.29916E+03 -5.95006E+03  5.14078E+02 -1.09673E+04 -3.41903E+03
 -3.47083E+03 -1.00361E+04 -2.34192E+03 -7.51721E+03  9.69466E+03 -1.53388E+04  1.64048E+04 -5.84139E+03
  1.43888E+04  5.26084E+03  6.86247E+03  1.21641E+04 -6.24018E+03  1.31552E+04 -1.08458E+04  8.90273E+03
 -1.30432E+04  2.66076E+03 -1.15079E+04 -1.24131E+04 -1.84176E+03 -1.32835E+04  1.20120E+04 -2.63892E+03
  1.08079E+04 -3.63925E+02  4.22740E+03  7.11028E+03  4.12781E+03  5.90658E+03  1.80734E+03  1.88829E+03
  2.09652E+02  3.71570E+02  1.04318E+03  5.41482E+03  3.76294E+03  1.23766E+03 -2.56585E+03  7.02454E+03
 -5.30696E+03  5.16900E+03 -1.58926E+04  1.21550E+04 -1.48484E+04  5.37727E+02 -1.78112E+04 -3.23733E+03
 -7.97134E+03 -7.97333E+03  2.36029E+03 -6.50781E+03  5.75093E+03 -6.42518E+03  1.01767E+04 -2.09217E+03
  9.31095E+03  7.78011E+03  6.81673E+02  6.32075E+03 -6.91890E+03 -4.35150E+03 -2.65891E+03 -6.62276E+02
  1.37589E+03 -7.77029E+03 -1.07654E+03 -7.08055E+03  3.37611E+03 -5.30358E+03  5.27180E+03 -2.22946E+03
  7.78765E+03 -1.23953E+03 -4.43815E+02  6.86666E+03 -9.64638E+02  1.61069E+03 -2.06511E+03 -2.15951E+02
  2.24146E+03 -3.32341E+03  1.37656E+03 -2.83560E+03 -2.06138E+03  8.39866E+03  8.28140E+02  1.01875E+04
 -2.94251E+03  9.79699E+03 -4.69638E+03  3.43089E+03 -9.83139E+03 -5.03382E+03  1.92604E+03 -6.45552E+03
  5.73021E+03 -1.43329E+03 -2.58498E+03 -5.52541E+03  8.35956E+03  3.91398E+03 -1.87339E+02  1.15444E+03
 -6.63098E+03  1.19451E+03 -1.00822E+04 -2.00715E+03 -3.55931E+03  1.15322E+02  4.63459E+03 -5.75817E+03
  5.26761E+03 -2.16946E+03  4.75744E+03 -1.43120E+03 -2.24181E+02  1.51915E+03 -8.13629E+02  7.05565E+03
 -4.04142E+03  2.07266E+03 -3.40473E+03 -4.38470E+03  6.25527E+03 -9.07540E+03  4.99951E+03 -1.11320E+04
  5.72507E+03  6.03549E+03  1.46467E+04  6.16152E+03 -7.99859E+01  9.09372E+03 -6.39752E+03  4.63652E+03
 -4.25887E+03  3.54743E+03 -8.45792E+03  3.33160E+03 -5.64310E+03 -4.38407E+03 -1.22491E+03 -1.44583E+03
  9.49566E+03 -1.82623E+03  6.36155E+03  3.11768E+03  3.49366E+03  6.20984E+03 -2.41473E+02  4.86761E+03
  2.40803E+03  3.25172E+03 -2.22441E+03  5.02963E+03 -3.25742E+03 -1.09790E+03 -1.62628E+03 -8.14071E+03
  3.77545E+03  1.31961E+03 -7.20696E+03  3.48982E+02 -6.14855E+03 -2.49817E+03 -1.12306E+04 -7.59376E+03
 -7.18264E+03 -1.06599E+04  1.58640E+03 -1.73834E+04  7.36032E+03 -1.11033E+04  1.44204E+04 -8.09195E+03
  1.11150E+04  5.50505E+02  4.16886E+02  4.46985E+03  2.91045E+03  8.37292E+03 -2.32628E+02  1.03089E+04
  1.72902E+03  3.32821E+03 -4.29473E+03 -5.10573E+03  1.50302E+03 -4.64624E+03 -4.17747E+03  3.39685E+03
 -1.82742E+03  4.10716E+03  2.93247E+03 -6.01316E+03  4.21571E+03 -1.75124E+03  3.97665E+03 -3.19122E+03
  4.45454E+03 -7.24550E+03  4.54500E+03  3.20764E+03  7.36995E+03 -1.34410E+03  3.18563E+03  1.05037E+04
 -5.62761E+03  9.52171E+03 -1.35035E+04  4.31344E+03 -7.12695E+03 -3.83384E+03 -1.62345E+04 -4.35396E+03
 -9.43548E+03 -2.18881E+03  1.54743E+03 -4.63312E+03  3.59562E+03 -5.89203E+03  4.38338E+03  5.25720E+03
  6.49386E+02  4.74676E+03 -5.30820E+03 -6.89662E+02 -7.15654E+02  3.75800E+03 -2.92565E+03  1.87012E+03
  1.27584E+03  2.92659E+01  8.32097E+03 -2.09084E+03  4.22260E+03  9.33769E+03  1.31695E+03  2.48687E+03
 -2.84038E+03  6.97169E+03 -3.09285E+03  5.51641E+02 -8.43705E+03 -1.03228E+04  1.70380E+03 -5.68811E+03
 -1.31650E+03 -4.68041E+03  2.41878E+03  5.46572E+03  7.15973E+03  6.44463E+03  1.97187E+03  8.57740E+03
  3.31578E+03  1.70010E+03 -4.41085E+03  6.03903E+03 -5.22730E+03  7.28000E+02 -1.57488E+03  9.61847E+02
 -2.69421E+03 -1.79288E+03 -4.13185E+03  5.81572E+02  8.46555E+02  4.49119E+03 -8.97880E+01  5.24679E+03
 -4.40540E+03 -6.75941E+03  1.32938E+03 -5.12066E+03 -4.99122E+03 -1.12578E+04  6.45390E+03  4.89439E+01
  6.03556E+03  3.86414E+03  1.26847E+02  7.23177E+03 -7.48108E+02  3.05132E+03 -5.55030E+03  5.03167E+03
