 $NMID ID='MM_0lb_SNR50_15hz_g40_83.RAW', FMTDAT='(8E13.5)'
 TRAMP=1., VOLUME=1. $END
  3.08777E+05 -1.67707E+03  3.35104E+05  2.50864E+05  8.21148E+04  3.38016E+05 -1.29390E+05  2.50797E+05
 -1.87443E+05  8.23898E+04 -1.11120E+05 -3.01452E+04  1.83808E+03 -4.79808E+04  5.23379E+04  3.68720E+03
  3.44246E+04  4.77831E+04 -1.87042E+04  7.38816E+04 -6.12666E+04  6.33625E+04 -8.09187E+04  2.98535E+04
 -7.77418E+04 -1.45293E+04 -6.05200E+04 -5.22931E+04 -1.20868E+04 -6.91167E+04  2.58290E+04 -4.20671E+04
  3.86067E+04  2.09520E+03  1.43697E+04  4.75293E+04 -3.44189E+04  4.22884E+04 -6.72894E+04  7.86636E+02
 -5.23516E+04 -5.76311E+04 -7.36092E+03 -8.04242E+04  3.22823E+04 -5.11405E+04  4.75230E+04 -1.74105E+04
  4.15141E+04  9.25708E+03  3.36751E+04  2.68001E+04  1.92692E+04  2.78182E+04 -4.11740E+03  2.39951E+04
 -2.58332E+04  1.39595E+04 -1.82205E+04 -7.24381E+02  8.59256E+03 -7.30818E+03  2.37656E+04  1.31441E+04
  5.71039E+03  3.53823E+04 -2.83289E+04  3.11491E+04 -6.03202E+04  1.46083E+03 -5.54730E+04 -4.33417E+04
 -1.33008E+04 -5.80408E+04  3.59881E+04 -4.72230E+04  6.10470E+04 -6.12284E+03  3.06250E+04  2.75650E+04
 -8.12369E+03  3.44766E+04 -2.71886E+04  1.45032E+04 -2.72485E+04 -2.36627E+03 -1.47626E+04 -1.02806E+04
 -8.20610E+03 -7.53674E+03  1.35333E+03 -1.81841E+04  5.50633E+03 -2.14326E+04  1.49316E+04 -1.42032E+04
  7.71094E+03  8.39327E+03 -1.02505E+04  1.03100E+04 -2.11486E+04 -6.94150E+03 -9.12039E+03 -3.31005E+04
  1.88708E+04 -4.45497E+04  4.28476E+04 -1.90341E+04  4.15027E+04  2.32161E+04  1.53018E+04  4.55181E+04
 -1.11713E+04  3.66637E+04 -2.83750E+04 -1.33134E+02 -8.95445E+03 -2.39242E+04  2.16536E+04 -3.23976E+04
  3.81891E+04 -7.46972E+03  3.62058E+04  2.40287E+04  1.76426E+04  4.46348E+04 -5.09151E+03  4.44357E+04
 -3.15287E+04  3.21824E+04 -4.23509E+04  4.79979E+03 -4.19649E+04 -1.40671E+04 -2.46265E+04 -3.31848E+04
  7.42168E+03 -3.86617E+04  3.38939E+04 -1.67672E+04  2.80705E+04  1.22852E+04  1.64257E+03  1.80985E+04
 -8.15681E+03  8.69152E+03 -1.14789E+04 -7.19432E+03  7.35653E+03 -8.84565E+03  1.95207E+04  6.98168E+03
  1.31736E+04  2.06249E+04 -8.62084E+03  2.73998E+04 -2.75938E+04  9.31253E+03 -3.09397E+04 -5.37492E+03
 -2.28341E+04 -1.49166E+04 -9.33955E+03 -2.07153E+04  3.87062E+03 -1.76341E+04  1.58815E+04 -1.59218E+04
  2.39300E+04 -1.35958E+04  2.95350E+04  5.34295E+03  2.22081E+04  2.08702E+04  6.68559E+03  3.13363E+04
 -8.79078E+03  2.47218E+04 -2.69746E+04  1.39741E+04 -2.23924E+04 -1.05200E+04 -2.08135E+03 -1.72377E+04
  3.78721E+03 -5.51279E+03 -6.64169E+03  4.85091E+03 -1.29644E+04  7.59695E+03 -1.69379E+04 -9.00494E+03
 -7.59891E+03 -1.46318E+04  5.77273E+03 -2.33629E+04  1.49120E+04 -1.72027E+04  1.68569E+04 -1.22043E+03
  3.50548E+03  1.33571E+04 -4.06412E+03  1.78263E+04 -1.63871E+04  1.10580E+04 -1.85840E+04 -1.34385E+02
 -1.52542E+04 -1.46638E+04  2.38243E+03 -2.31313E+04  1.01365E+04 -2.06644E+04  1.74433E+04 -1.06825E+04
  1.21577E+04 -2.04123E+03  1.07055E+04  9.01895E+03  3.79215E+03  8.01048E+02  6.13030E+03 -8.85199E+02
  1.91086E+04  1.83683E+03  1.30773E+04  1.22188E+04  1.25274E+04  2.74222E+04 -4.72091E+03  2.87115E+04
 -1.85894E+04  2.86015E+04 -3.19658E+04  9.99412E+03 -2.47599E+04 -2.04085E+03 -2.57592E+04 -1.93591E+04
 -1.44863E+04 -2.24209E+04  8.53241E+03 -2.04704E+04  1.86229E+04 -9.86715E+03  1.38586E+04  4.17793E+03
  7.69341E+03  1.42132E+04 -8.29808E+03  1.50392E+04 -1.24133E+04  7.06695E+03 -1.52663E+04 -5.39702E+03
 -1.70126E+03 -1.53325E+04  1.05029E+04 -6.87803E+03  8.91962E+03  3.18681E+03 -8.28031E+02  7.25571E+03
 -8.18688E+03 -2.33256E+03 -6.00480E+03 -7.98022E+03  4.85273E+03 -9.16300E+03  8.30835E+03 -9.56300E+03
  1.16655E+04 -8.69166E+03  1.08925E+04  1.03387E+03  1.20069E+04  1.28933E+04  8.74611E+03  1.58009E+04
 -2.86144E+03  2.04974E+04 -1.33114E+04  1.01269E+04 -1.27602E+04  4.67301E+03 -1.30451E+04 -4.06689E+03
 -6.79598E+03 -3.40032E+03 -5.77162E+02 -6.06562E+02 -6.74511E+02  3.30950E+03 -1.42221E+03  3.66844E+03
 -9.21585E+03 -5.31347E+03 -8.85042E+03 -1.01268E+04 -8.49180E+03 -1.32523E+04  3.47515E+03 -1.26092E+04
  4.99973E+03  1.67955E+03  8.24081E+03  2.68129E+03  3.95048E+03  4.98876E+03 -6.98935E+03 -3.41678E+03
 -4.22627E+03 -3.37537E+03 -6.42722E+03 -8.76151E+03  3.34454E+03 -9.21917E+03  1.31141E+04 -5.29391E+03
  1.37668E+04 -1.32963E+03  1.00759E+04  1.15245E+04 -4.03760E+02  7.56169E+03 -3.58425E+03  7.26514E+03
 -9.40969E+03  5.47849E+03 -4.07383E+03 -2.97719E+03  9.26877E+02 -2.23376E+03  5.02043E+03 -8.17733E+02
  4.22662E+03  7.58556E+03 -3.14870E+02  5.04344E+03 -9.80228E+03  9.98546E+03 -1.43216E+04  5.97771E+02
 -9.45118E+03 -5.21919E+03 -1.43186E+03 -8.48648E+03  6.79426E+03 -5.00322E+03  6.26546E+03  2.23222E+03
  1.74723E+03  7.36697E+03 -2.83194E+03  5.67470E+03 -3.53103E+03  7.18313E+03 -5.93623E+03  7.69808E+03
 -1.19634E+03 -5.99151E+03  3.95340E+03 -1.29509E+04  4.96429E+03 -4.86463E+03  5.32616E+03 -6.02435E+02
  5.06028E+03  7.03205E+03 -1.26571E+03  1.12193E+04 -6.79682E+03  1.18285E+04 -3.13789E+03  1.42825E+03
 -7.42524E+03 -5.92758E+03 -2.33172E+03 -8.57096E+03  6.53800E+02 -9.98478E+03  9.13919E+03 -8.01300E+03
  6.28346E+03  5.10827E+03 -1.34731E+03  1.52823E+03 -1.54170E+03 -5.18384E+03 -2.71486E+03 -3.88776E+03
  5.87250E+03 -2.37075E+03  8.45053E+03  2.62338E+03  7.09041E+03  3.11971E+03  4.70597E+03  1.28486E+04
 -4.97729E+03  9.50289E+03 -1.01038E+04  1.06948E+04 -1.41189E+04  2.27881E+03 -1.16915E+04 -1.34170E+03
 -4.43687E+03 -8.15461E+03 -1.04212E+03 -7.73575E+03  2.42512E+03 -4.08016E+03  6.06125E+03 -4.62673E+03
  5.10643E+03 -2.28235E+03  3.64331E+03 -6.31860E+03  1.33487E+04 -3.92854E+03  6.38286E+03 -1.35320E+03
  5.51664E+03 -3.80128E+03  2.18141E+02  4.16093E+03 -6.78530E+03  3.37270E+03 -6.74711E+03  4.80686E+03
 -6.40638E+03  7.81578E+02 -3.46539E+03 -4.47260E+03 -6.88384E+02 -4.27823E+03  3.07905E+03 -5.05242E+03
  4.37907E+03 -6.05069E+03  7.87003E+03  1.29687E+03  5.92345E+03  4.16004E+03  2.54389E+03  9.88233E+03
 -5.43957E+03  6.60005E+03 -7.82224E+03 -2.53033E+03 -7.19257E+03  1.50550E+03 -4.09561E+02  7.68865E+02
 -2.81581E+03  8.68548E+02  2.02337E+02 -1.96075E+03 -3.01170E+03  6.20971E+03 -3.35757E+03  2.62356E+03
 -2.49173E+03 -3.89900E+03  4.46053E+02 -4.06322E+03 -4.05524E+02 -3.61836E+03  3.56928E+03 -2.60060E+03
  6.47780E+03  3.55414E+03  3.91087E+03  9.60693E+03 -2.43718E+02  7.20133E+03 -1.75275E+03  6.91646E+03
 -6.68288E+03 -7.16032E+02 -3.97820E+03 -7.55262E+03 -1.86157E+03 -5.31300E+03  1.57545E+03 -4.77048E+03
  4.83192E+03 -2.69058E+03  4.90756E+03  2.24236E+03  5.90109E+02  5.87929E+03  3.08821E+03  3.32282E+02
  3.08160E+03 -7.05063E+02  1.99941E+02 -1.24656E+03  4.19640E+03  6.60746E+02  6.52476E+02  2.76482E+03
 -8.36782E+02  4.18349E+03 -5.43054E+03  4.51801E+03 -1.25390E+04  4.00752E+02 -8.84686E+03 -9.35524E+02
 -4.63064E+03 -8.45459E+03  2.11452E+03 -5.44853E+03  4.77120E+03 -3.38621E+03  5.14297E+03  2.20624E+03
  4.87564E+03  8.58444E+03 -9.36598E+02  7.45162E+03 -2.86566E+03  1.81004E+02  2.20615E+03  1.34579E+03
 -5.23900E+03 -5.67441E+03  4.29911E+03 -3.78069E+03  2.11324E+03 -1.34839E+03  4.76615E+03 -1.15427E+02
 -2.83212E+03 -2.04541E+02 -2.94494E+03  1.80380E+01  3.49918E+03  2.80298E+03  2.35988E+03  1.15126E+03
 -3.27864E+03 -4.16410E+02  7.96298E+02 -1.47114E+03  1.94699E+03  4.07220E+03 -4.76844E+03  1.84584E+03
 -4.66997E+03  4.44691E+03 -5.84973E+03  1.83463E+03 -4.08201E+03 -2.46980E+03 -5.14664E+03 -7.80729E+03
  4.92686E+03 -7.27096E+03  1.26965E+03 -7.67443E+03  5.52510E+03  2.16660E+03 -1.18472E+03  2.96126E+03
 -6.90267E+03 -1.90543E+03 -4.58319E+03 -3.10131E+03 -2.07345E+03 -4.44282E+03 -4.32446E+03 -3.80213E+03
  1.14896E+03 -2.52414E+03  4.15597E+03 -2.09751E+03  2.62479E+03 -3.87245E+03  4.33396E+03  4.15180E+03
 -3.53778E+03 -3.33666E+03  1.08992E+03  1.22498E+03 -6.22979E+02 -2.15485E+03  3.01711E+03 -4.45864E+03
 -1.65760E+01  1.37150E+03  6.19931E+03  7.50182E+03  1.51797E+03  1.05803E+03 -6.03464E+02  5.87234E+03
 -5.14046E+03  1.41513E+02 -8.51130E+02  7.79714E+02 -3.53993E+02  3.29386E+02  2.06606E+03 -4.29047E+03
  3.55382E+03 -3.24137E+03  1.56750E+03  1.34871E+03  7.83478E+02  1.49410E+03  2.36005E+03  3.48945E+03
 -1.13670E+03  5.77448E+03 -9.05158E+02 -1.64207E+03 -3.50328E+03  3.46057E+03 -1.03250E+01  5.17057E+02
 -6.62556E+02  1.04937E+03 -2.09235E+03  1.04826E+02 -7.03275E+03  3.78732E+02 -1.15080E+03 -5.41073E+02
 -1.44398E+02 -5.41174E+03 -8.47682E+02 -4.05063E+03  1.81659E+03 -3.70993E+03  4.72883E+03 -4.20746E+03
  6.35339E+03  2.14921E+03  1.36207E+03 -1.44947E+03  4.53666E+03  6.82036E+03  1.62873E+03  3.96735E+03
 -1.97034E+03  4.41660E+03  4.50932E+02  1.21264E+03 -2.43051E+03  5.22007E+02  1.65551E+03 -2.74995E+03
 -5.57642E+03 -2.70271E+03 -1.77887E+03  3.79083E+02 -6.30844E+03 -2.05504E+03  1.39137E+03 -1.89269E+03
 -1.74813E+03 -6.08765E+03  2.98344E+03 -1.46156E+03  3.84149E+03  1.22012E+03  1.32694E+03 -1.47353E+03
 -5.08372E+03  4.32599E+03 -2.73017E+03  3.39496E+03 -1.39918E+03  8.42284E+02 -6.03956E+03  1.11756E+03
  6.87588E+02 -6.92606E+02 -1.29732E+03 -1.36860E+03 -3.95319E+02  2.21531E+02  1.58493E+03 -2.07407E+03
  1.00234E+03  1.91358E+03  2.29597E+03  2.39597E+03 -8.94847E+02 -2.21860E+03 -3.78250E+03 -2.66667E+03
  4.22324E+03 -3.91981E+03  3.04215E+03 -2.59981E+03 -1.43135E+03 -3.20676E+02 -2.33010E+03  5.40352E+03
 -4.08998E+03  4.62034E+03 -3.16529E+03 -1.01991E+03  7.99531E+02 -6.46068E+03 -4.25824E+03  4.37862E+03
  7.91002E+03 -4.35624E+03  8.37540E+03 -1.07255E+03  2.66148E+02  7.63119E+01  2.26491E+03  6.64315E+03
  1.99236E+03  2.36789E+03 -2.06211E+03  3.61347E+03 -2.23812E+03  4.31401E+02 -2.01588E+02 -3.59093E+03
 -1.43518E+03  8.42100E+02  1.08044E+03  4.95008E+03 -1.78436E+03  6.21249E+03 -7.85516E+02 -1.05160E+03
 -2.39586E+03  2.09386E+03 -2.50031E+02  1.13203E+03  1.61955E+03 -2.41758E+03  1.70556E+03  3.43759E+02
 -1.02318E+03 -2.14300E+03  2.24991E+02  1.08369E+03 -1.33060E+02  4.30150E+02 -9.29334E+02  3.04970E+03
