 $NMID ID='MM_0lb_SNR50_17hz_g55_36.RAW', FMTDAT='(8E13.5)'
 TRAMP=1., VOLUME=1. $END
  3.15399E+05 -3.71087E+02  3.38359E+05  2.48780E+05  8.21069E+04  3.41121E+05 -1.31303E+05  2.50755E+05
 -1.84432E+05  8.14245E+04 -1.15845E+05 -3.10525E+04  3.42746E+03 -4.72154E+04  5.77271E+04 -2.53731E+03
  3.37477E+04  5.40040E+04 -1.45294E+04  7.82957E+04 -6.28819E+04  6.08875E+04 -8.47991E+04  3.53814E+04
 -8.10304E+04 -9.96021E+03 -5.27233E+04 -5.33876E+04 -1.61246E+04 -6.45317E+04  2.86043E+04 -4.89980E+04
  4.03492E+04  5.39418E+02  1.44209E+04  4.35561E+04 -3.44306E+04  4.93841E+04 -7.01719E+04  5.96197E+02
 -5.39956E+04 -5.55804E+04 -1.03080E+04 -7.67862E+04  3.42089E+04 -6.00612E+04  4.29015E+04 -1.45944E+04
  4.02142E+04  1.03028E+04  3.04331E+04  3.07198E+04  1.78998E+04  2.45477E+04 -5.73764E+03  3.10584E+04
 -2.14917E+04  1.35983E+04 -1.56022E+04 -4.55759E+03  6.01705E+03 -5.38842E+03  2.53172E+04  1.25054E+04
  6.19414E+03  3.48048E+04 -3.07701E+04  3.40971E+04 -6.14506E+04  9.21865E+02 -5.73439E+04 -4.47858E+04
 -1.39135E+04 -6.03045E+04  3.86290E+04 -4.19710E+04  5.48119E+04 -2.67263E+03  3.48878E+04  3.23930E+04
 -7.84505E+03  3.32475E+04 -2.42742E+04  1.73275E+04 -3.05318E+04 -4.18560E+03 -1.82626E+04 -7.64878E+03
 -1.37307E+04 -1.26928E+04  1.18966E+03 -1.56164E+04  1.06574E+04 -2.31189E+04  1.67751E+04 -1.08319E+04
  9.92677E+03  7.35010E+03 -8.21233E+03  1.37264E+04 -2.11936E+04 -6.97145E+03 -8.65065E+03 -3.13876E+04
  2.41893E+04 -4.22383E+04  4.77587E+04 -1.73445E+04  4.63974E+04  1.87490E+04  1.17330E+04  4.34332E+04
 -1.54205E+04  3.40434E+04 -2.03446E+04 -3.75836E+02 -9.18045E+03 -2.57553E+04  2.03870E+04 -3.44533E+04
  4.13178E+04 -4.05008E+03  3.50365E+04  2.53954E+04  1.44644E+04  4.57006E+04 -6.68938E+03  5.00679E+04
 -3.02412E+04  3.49567E+04 -4.60733E+04  2.75448E+03 -4.71670E+04 -1.58455E+04 -2.50793E+04 -3.51303E+04
  5.69296E+03 -3.24350E+04  2.85701E+04 -1.79068E+04  2.71595E+04  1.25588E+04  5.08843E+02  1.71832E+04
 -1.47380E+04  8.55559E+03 -1.19273E+04 -7.75329E+03  8.11252E+03 -1.33015E+04  1.52314E+04  6.95724E+03
  7.32625E+03  1.79756E+04 -6.44778E+03  1.91812E+04 -1.93367E+04  1.30748E+04 -2.67098E+04 -7.02036E+03
 -1.60710E+04 -1.43486E+04 -1.19252E+04 -1.64586E+04  4.24768E+03 -1.98243E+04  1.51973E+04 -1.67416E+04
  3.02772E+04 -1.14580E+04  3.00639E+04  6.77686E+02  2.31987E+04  1.95490E+04  4.58214E+03  3.18423E+04
 -1.96745E+04  2.82687E+04 -2.32174E+04  9.82316E+03 -2.17259E+04 -1.39952E+04 -2.23399E+03 -1.41525E+04
 -2.51124E+03 -2.78052E+03 -5.56404E+03  3.61287E+03 -1.39386E+04  6.59907E+03 -1.29139E+04 -2.73769E+03
 -8.01960E+03 -1.77352E+04  8.99448E+03 -1.99567E+04  9.32585E+03 -1.49591E+04  1.60811E+04 -3.54287E+03
  1.05846E+04  1.48855E+04  2.76672E+03  1.79807E+04 -1.10284E+04  8.79305E+03 -1.08149E+04 -6.50305E+03
 -1.73291E+04 -1.77728E+04 -3.28937E+02 -1.58560E+04  7.71866E+03 -2.16960E+04  1.68279E+04 -1.20751E+04
  2.04807E+04 -1.38840E+02  1.08838E+04  9.73067E+03  8.56168E+03  3.58925E+03  8.29024E+03 -1.92091E+03
  1.52157E+04 -1.81025E+02  1.51653E+04  1.36425E+04  7.30595E+03  2.64446E+04  5.18238E+02  3.27234E+04
 -1.70645E+04  2.06549E+04 -2.81626E+04  1.37588E+04 -2.66487E+04 -3.08731E+03 -2.81305E+04 -1.78182E+04
 -1.13232E+04 -2.62141E+04  8.51548E+03 -1.96665E+04  2.17551E+04 -1.62264E+04  1.85745E+04  2.58551E+03
  4.58896E+03  1.36180E+04 -1.00994E+04  1.52078E+04 -1.85175E+04 -3.59877E+03 -9.17836E+03 -6.39876E+03
  3.38387E+03 -1.67174E+04  4.99555E+03 -1.04575E+04  1.00203E+04 -1.44861E+03 -1.62273E+03  7.50260E+02
 -3.31577E+03 -7.77950E+02 -4.10685E+03 -3.21802E+03  2.12994E+03 -1.10074E+04  8.82931E+03 -1.13116E+04
  1.51296E+04 -8.73340E+03  1.24396E+04  4.86119E+03  8.89724E+03  1.33722E+04  9.43354E+03  1.95036E+04
 -1.22952E+03  2.06617E+04 -1.12880E+04  8.75444E+03 -1.64201E+04  2.51764E+03 -1.26164E+04 -4.82095E+03
 -3.04482E+02 -4.89650E+03  1.65921E+03  3.18311E+03 -2.41500E+03  6.45496E+03 -6.06393E+03  8.21403E+03
 -1.23817E+04  3.14981E+03 -1.02548E+04 -7.34556E+03 -4.75994E+03 -1.32683E+04  5.06078E+03 -2.40245E+03
  8.10955E+03 -6.03192E+03  5.76337E+03  3.87878E+03  2.65376E+03  5.68448E+03 -8.40120E+03 -8.40892E+02
 -1.87028E+03 -5.47779E+03  3.05863E+03 -8.01633E+03  3.11944E+03 -1.09586E+04  1.12547E+04 -4.46549E+03
  1.45030E+04  6.19492E+02  1.11910E+04  5.13870E+03  1.69352E+03  1.19834E+04 -6.21994E+03  1.10944E+04
 -8.23561E+03  1.33805E+03 -1.76423E+03  4.10994E+01 -1.21151E+03 -5.88820E+03  3.10068E+03 -3.33102E+03
  7.44043E+03  5.03224E+02  2.40803E+03  8.35658E+03 -6.62478E+03  5.22764E+03 -1.18075E+04  7.95732E+02
 -7.70958E+03  4.12914E+02  5.32222E+02 -7.31939E+03  5.51139E+03 -4.16712E+03  5.44243E+03  3.02146E+03
  3.42183E+03  3.16696E+03 -4.41730E+03  5.07519E+02 -5.12794E+03  5.05736E+03 -5.82047E+03 -1.20055E+03
 -8.17583E+03 -5.88019E+03  3.24267E+03 -7.40282E+03  8.38385E+03 -5.01737E+03  9.15129E+03  2.80613E+01
  1.77434E+03  6.49613E+03 -2.45371E+03  5.23884E+03 -8.25478E+03  4.20298E+03 -3.24565E+03 -8.08777E+02
 -6.88223E+03 -2.85123E+03 -1.61853E+03 -6.92337E+03 -1.50315E+03 -8.02939E+03 -2.06997E+03 -5.19136E+03
  3.02530E+03  1.55508E+03 -6.04817E+02  1.40735E+03  1.43542E+02 -2.98045E+03  2.61919E+03 -3.76511E+03
  4.80341E+03 -3.10430E+03  1.18657E+04 -8.18844E+02  5.97335E+03  4.36673E+03  3.56387E+03  1.13117E+04
  3.83794E+02  1.36670E+04 -8.33929E+03  5.51105E+03 -1.15899E+04  7.60055E+03 -1.42838E+04 -1.04469E+03
 -3.07840E+03 -5.94703E+03  3.36630E+02 -1.18641E+04  9.03716E+02 -2.54136E+03  2.89192E+03 -4.25838E+03
  2.85720E+03 -3.36527E+03  2.21264E+03  4.90595E+02  6.27828E+03  1.76360E+03  3.49681E+03 -1.36996E+03
  8.99815E+03  5.88080E+03  3.31477E+03  2.63399E+03 -2.30455E+02  6.33397E+03 -5.25571E+03  7.77475E+03
 -7.50968E+03  2.61387E+03 -3.88514E+03 -2.12034E+03  5.41211E+03 -4.64145E+03  8.00034E+03 -4.81625E+03
  1.19958E+03 -2.94948E+03  9.85637E+03  1.29472E+03  5.52970E+03  2.79288E+03 -1.58365E+02  7.73094E+03
  9.94215E+02  7.10993E+03 -3.52432E+03  1.41754E+03 -6.06894E+03 -2.65976E+03  6.64481E+02 -3.21767E+03
  7.62593E+02 -1.24926E+03 -7.29860E+02  1.73677E+03 -8.43908E+02  1.11047E+03 -8.12109E+03  1.15169E+03
  1.77845E+03 -7.44150E+03 -1.02138E+03 -6.40139E+03  1.00276E+03 -6.05176E+03  6.04819E+03 -4.12048E+02
  5.03100E+03  9.26139E+02  7.54702E+03  4.24716E+03 -1.26655E+03  4.63861E+03 -2.36337E+03 -2.58760E+02
 -5.06714E+03 -1.54872E+03 -4.49508E+03 -7.16262E+03  4.18136E+02 -3.79637E+03  2.64692E+02 -3.03918E+03
  6.49342E+03 -2.31376E+03  3.63324E+03 -1.46640E+03 -1.58473E+03  2.24475E+03  6.81497E+02  6.90227E+03
 -1.14162E+03  2.25511E+02  8.44198E+03  1.47791E+03  3.51152E+03 -1.63763E+03 -5.66162E+02  3.32829E+03
 -5.38212E+02  4.34926E+03 -4.05548E+03  4.01288E+03 -4.70284E+03 -5.59955E+02 -6.43019E+03 -2.24343E+03
  7.62025E+02 -4.07700E+03 -5.59765E+02 -7.37093E+03  2.07583E+03 -4.80528E+03  7.72842E+03 -3.75810E+03
  6.15215E+03  3.58403E+03  3.67449E+02  2.03042E+03 -3.67319E+03 -1.05778E+03 -5.22894E+03  1.26547E+03
  3.86899E+03 -4.14680E+03 -2.54857E+03  3.97307E+02  5.16281E+03  3.11450E+01  1.93749E+03  8.05497E+02
 -3.14486E+03 -2.51728E+03 -1.11271E+01 -5.21365E+03 -9.03955E+02  2.59992E+03 -4.55319E+02 -3.78783E+03
  3.06817E+02 -2.02863E+03  4.03738E+03 -3.57191E+03  1.90267E+03  3.17963E+03 -3.49452E+03  4.95547E+03
 -3.21371E+03  9.57530E+01 -3.94111E+03 -5.21626E+03 -2.74470E+03  1.36366E+03  2.10337E+03 -6.74138E+01
  5.04164E+03 -3.02762E+03 -8.58495E+01  3.49902E+03  3.49682E+03  3.80687E+03 -2.96313E+03  4.68357E+03
 -1.86502E+03  1.36047E+03 -2.46176E+03 -6.44458E+03 -5.08008E+03 -5.95992E+03  8.26932E+01 -2.96745E+03
 -5.50056E+02  2.22884E+03  4.83504E+03 -6.31325E+02  2.68925E+03  1.90684E+03  3.99583E+02 -2.29941E+03
  4.41036E+03  3.09979E+03  1.23121E+03  1.70691E+02  4.44095E+03 -2.86079E+03  6.05187E+03 -3.89837E+03
  3.45231E+03  4.86928E+03  1.65083E+03  2.79479E+03  2.38964E+03  3.09870E+03 -5.25639E+03  1.83246E+03
 -1.42359E+03 -4.72281E+02 -3.07020E+03 -1.95863E+03 -8.03724E+02 -1.97398E+02 -6.62982E+02 -1.38344E+03
  2.97656E+03  6.01076E+02  2.53360E+03  2.06926E+02 -3.44876E+02  1.24488E+03  2.56451E+03  2.27107E+03
  3.95957E+03  4.63071E+03  4.88509E+03  2.30896E+03  1.44690E+03  1.49551E+03 -2.45981E+02 -2.61542E+03
 -6.32348E+02  2.16492E+03 -5.62280E+02  3.64996E+03 -1.06017E+03  3.23017E+03 -1.95880E+03  1.24667E+03
  8.06170E+02  1.93360E+02  6.34028E+02 -8.25006E+03  3.75804E+03 -1.32839E+03  3.71522E+03  3.85265E+03
  2.49117E+03 -1.76709E+03  1.02711E+02  3.44212E+03  1.61076E+03  5.50008E+03 -7.88073E+02  2.63578E+02
 -2.68928E+03 -2.34293E+03 -3.28909E+03 -1.08507E+03 -1.74713E+03  1.95961E+03  1.02508E+02 -2.55480E+03
 -1.63822E+03 -1.38588E+03 -1.38341E+03 -1.07908E+03  8.73463E+02  7.28077E+02 -2.23965E+03 -5.41665E+03
 -2.65300E+03 -1.15256E+03 -3.99603E+02  2.01422E+03 -3.13968E+03  4.35793E+03  7.95772E+01  1.37186E+03
 -1.10349E+03  2.62893E+03 -1.64094E+03  4.42399E+03 -5.85270E+02  3.61705E+02 -1.54453E+03 -4.22932E+03
 -7.16574E+02 -3.58101E+03  1.44083E+03 -2.95301E+01 -5.65956E+02 -1.17571E+03  2.34759E+03 -3.98619E+02
 -4.67391E+03  9.60600E+02 -4.91123E+03  1.80097E+03 -8.59035E+02 -4.94521E+02 -1.41183E+03 -1.39884E+02
  2.97895E+03  4.55486E+02  1.81610E+03  1.66675E+03  9.08973E+02  2.96788E+03  4.74474E+02  2.07000E+03
 -1.50908E+03 -4.31010E+03 -5.37310E+03  2.25710E+03  3.15972E+03 -2.43585E+03 -8.60464E+02 -3.40426E+03
  4.05277E+03 -3.65037E+02  2.94000E+03  1.84809E+03  4.65962E+03 -2.13322E+03 -3.80768E+02  1.84882E+03
 -3.02243E+03  5.08658E+03 -1.35406E+03  3.77056E+03 -9.20156E+01  1.25380E+03 -1.33283E+03 -6.70967E+02
  1.87885E+03  1.29705E+02  3.50158E+03 -2.04435E+03 -1.46875E+03 -2.96266E+03  1.24557E+03  3.15238E+03
 -4.39737E+02  4.51726E+03 -3.10367E+03  2.00308E+01  1.56154E+03 -1.01149E+03  2.70845E+03 -3.20328E+03
  3.47635E+03  1.50920E+03 -1.77757E+03  3.82861E+02 -8.24449E+02  2.89170E+03  2.11886E+03 -9.31343E+02
