 $NMID ID='MM_0lb_SNR50_10hz_g40_14.RAW', FMTDAT='(8E13.5)'
 TRAMP=1., VOLUME=1. $END
  3.10082E+05  7.14203E+03  3.36242E+05  2.48513E+05  8.90912E+04  3.37787E+05 -1.36277E+05  2.53234E+05
 -1.89441E+05  7.93654E+04 -1.12388E+05 -3.34693E+04 -1.58304E+03 -4.13602E+04  6.02419E+04  3.02496E+03
  3.27211E+04  5.37438E+04 -1.31314E+04  7.90581E+04 -6.47722E+04  6.98874E+04 -8.34271E+04  2.61826E+04
 -8.50905E+04 -1.24801E+04 -5.46353E+04 -5.54819E+04 -1.40316E+04 -7.13428E+04  3.13491E+04 -5.04631E+04
  4.46036E+04  1.41220E+03  1.73598E+04  4.81276E+04 -3.46872E+04  4.97560E+04 -6.78146E+04 -1.00963E+02
 -5.67138E+04 -5.64881E+04 -7.75416E+03 -7.69881E+04  3.34071E+04 -5.54505E+04  4.53647E+04 -1.95429E+04
  3.86720E+04  6.43007E+03  3.35055E+04  2.43994E+04  1.31099E+04  3.25669E+04 -1.55610E+03  2.38374E+04
 -1.99747E+04  1.11000E+04 -1.95559E+04 -2.33483E+03  9.59725E+03 -1.18725E+04  2.57788E+04  1.02538E+04
  5.87874E+03  3.76047E+04 -3.35594E+04  3.56328E+04 -6.79197E+04  5.26235E+03 -5.18536E+04 -4.56682E+04
 -1.09294E+04 -6.13877E+04  4.17127E+04 -4.61831E+04  6.20072E+04 -8.80049E+03  4.29091E+04  4.02635E+04
  2.15948E+03  4.31430E+04 -3.63695E+04  2.14233E+04 -2.89875E+04 -8.17486E+02 -1.43639E+04 -1.55651E+04
 -9.08033E+03 -1.36484E+04  1.48284E+01 -1.90429E+04  9.30851E+03 -2.26557E+04  1.57078E+04 -1.19534E+04
  1.04344E+04  7.84274E+03 -1.34543E+04  1.25226E+04 -2.36561E+04 -8.62648E+03 -6.76125E+03 -3.93185E+04
  2.44706E+04 -4.55015E+04  5.32304E+04 -1.77801E+04  4.30871E+04  2.48962E+04  2.27569E+04  4.33702E+04
 -1.49289E+04  2.84084E+04 -2.62864E+04 -2.78309E+02 -4.42184E+03 -3.00272E+04  1.88694E+04 -3.46749E+04
  4.13529E+04 -7.74679E+03  3.56908E+04  2.23541E+04  1.76824E+04  5.27035E+04 -8.30732E+03  4.99658E+04
 -3.37740E+04  4.03186E+04 -4.71072E+04  1.02655E+04 -4.40097E+04 -2.08852E+04 -2.99690E+04 -4.27250E+04
  1.00150E+04 -3.97350E+04  3.71068E+04 -1.27075E+04  2.88489E+04  1.09357E+04  4.02492E+03  2.42548E+04
 -1.40669E+04  9.23619E+03 -9.23674E+03 -8.71071E+03  7.70131E+03 -1.35883E+04  2.10486E+04  5.94490E+03
  1.36809E+04  2.53053E+04 -7.05804E+03  2.25834E+04 -1.66063E+04  1.16290E+04 -3.09722E+04 -5.67724E+03
 -2.85969E+04 -2.27955E+04 -1.45713E+04 -2.57171E+04  8.07451E+03 -2.48894E+04  1.53671E+04 -2.13637E+04
  2.84814E+04 -9.89986E+03  3.19105E+04  9.14944E+03  2.84575E+04  2.47814E+04  3.36192E+03  3.65228E+04
 -1.81648E+04  2.98946E+04 -2.29278E+04  1.48932E+04 -2.10606E+04 -1.09917E+04 -5.00952E+03 -1.32267E+04
  5.04913E+03 -3.57711E+03 -8.92482E+03  4.58268E+03 -1.41656E+04  3.76552E+03 -1.42636E+04 -1.48159E+04
 -1.17917E+04 -1.91091E+04  3.70953E+03 -2.32439E+04  2.06736E+04 -2.13443E+04  1.62233E+04 -3.87901E+03
  9.55122E+03  1.86766E+04  2.01415E+02  2.45483E+04 -1.66057E+04  1.12927E+04 -1.49624E+04 -2.62017E+03
 -2.16075E+04 -2.30843E+04  1.73318E+03 -2.89275E+04  1.48585E+04 -2.46731E+04  1.92928E+04 -8.58080E+03
  1.70115E+04  5.98326E+03  1.18499E+04  8.90035E+03  4.62396E+03 -5.29029E+03  1.27077E+04 -7.01073E+02
  1.74977E+04  2.34298E+03  2.14955E+04  2.33282E+04  1.73818E+04  3.42153E+04 -1.23296E+03  4.05275E+04
 -1.98446E+04  3.52178E+04 -3.85416E+04  1.72602E+04 -4.25729E+04 -2.18652E+03 -3.53391E+04 -2.63569E+04
 -1.56800E+04 -2.86504E+04  1.01665E+04 -2.68201E+04  2.56919E+04 -1.30998E+04  1.91133E+04  9.21090E+03
 -1.34222E+03  1.78638E+04 -5.88487E+03  1.24921E+04 -1.83383E+04  1.62813E+03 -2.11509E+04 -1.68268E+04
 -6.74009E+02 -1.65269E+04  2.96362E+03 -1.82220E+04  1.27647E+04 -5.39935E+03  1.14449E+03  1.30720E+04
 -9.41636E+03  5.24900E+02 -6.77877E+03 -1.05801E+04 -2.56223E+03 -1.03782E+04  8.97803E+03 -2.44049E+04
  2.39537E+04 -8.53824E+03  1.97995E+04  1.21407E+03  2.00169E+04  1.42643E+04  1.01521E+04  2.69693E+04
 -3.97457E+03  2.42010E+04 -2.03701E+04  1.40376E+04 -2.95088E+04  4.17767E+03 -2.17251E+04 -3.90869E+03
 -1.13911E+04 -1.18376E+04  3.51306E+03  2.83221E+03  1.37139E+03  9.79028E+01 -1.14394E+04  3.28565E+03
 -8.27809E+03  1.40568E+03 -1.44101E+04 -4.36830E+03  1.03980E+03 -1.81354E+04  2.02170E+03 -8.72654E+03
  1.36686E+04 -1.10999E+04  7.70134E+03  3.23537E+03 -2.61107E+03  4.46436E+03 -3.34488E+03  5.00756E+03
 -8.02583E+03 -9.56387E+03 -1.06855E+03 -7.90899E+03  1.30604E+04 -1.66372E+04  1.03603E+04 -9.59080E+03
  2.58649E+04  1.23959E+03  1.35594E+04  1.53151E+04 -1.23473E+03  1.70914E+04 -8.96365E+03  1.82806E+04
 -8.67664E+03  2.10539E+03 -7.69567E+03 -4.85173E+03  3.98424E+02 -4.40334E+03  7.40308E+03  3.08486E+03
  1.32695E+04  5.94134E+03  5.82027E+01  1.04828E+04 -1.10531E+04  1.32464E+04 -1.70403E+04  2.19637E+03
 -1.34324E+04 -4.55973E+03 -1.71899E+03 -9.06017E+03  8.25462E+03 -4.38216E+03  8.14980E+03 -5.34404E+01
 -4.08593E+03  7.56220E+03 -8.07736E+03  1.35272E+04 -1.20654E+04  4.59007E+03 -1.42789E+04 -3.85991E+03
 -5.89715E+03 -1.07993E+04  5.47272E+03 -1.40408E+04  1.33258E+04 -1.27876E+04  2.08010E+04  4.61127E+03
  6.37430E+03  1.26578E+04 -9.81330E+02  1.37157E+04 -1.09099E+04  7.27051E+03 -1.37787E+04  3.96689E+02
 -9.61663E+03 -8.69273E+03  2.25120E+02 -8.38057E+03  6.60978E+03 -8.17104E+03  7.84149E+03 -2.37058E+03
  1.99924E+03 -6.87976E+03  4.73557E+02 -8.82860E+02 -1.52667E+03 -2.85561E+03  3.88244E+03 -4.11978E+03
  5.61458E+03 -8.62748E+02  2.25644E+04  6.09761E+02  1.51903E+04  1.00125E+04  1.10681E+04  1.62409E+04
 -2.33721E+03  1.68719E+04 -2.07088E+04  1.22888E+04 -2.75637E+04  4.74194E+03 -2.13906E+04 -1.20754E+04
 -1.02344E+04 -9.29460E+03 -2.40387E+03 -1.22108E+04 -1.38934E+02 -1.04993E+04  9.90730E+03 -1.11279E+04
 -2.19313E+03  2.16656E+03  1.45279E+03 -3.61828E+03  6.02111E+03 -3.71769E+03  4.12464E+03  3.72067E+03
  8.74245E+03  4.42718E+02  2.88072E+03  6.04236E+03 -4.03175E+03  1.18548E+04 -8.77101E+03  1.20653E+04
 -1.47768E+04 -1.17747E+03 -1.11972E+04 -4.40320E+03 -2.71672E+03 -1.13847E+04  3.04117E+03 -1.51883E+04
  1.11475E+04 -8.52984E+03  1.70094E+04 -2.47310E+03  1.05711E+04  1.22553E+04  4.43015E+03  1.19057E+04
 -1.03766E+04  9.68543E+03 -8.95928E+03  7.32107E+03 -4.05473E+03  1.04491E+03 -6.75940E+03 -7.24278E+03
 -2.84053E+03  5.00547E+03 -3.81403E+03 -2.92973E+02 -9.99755E+02  4.19025E+03 -1.21700E+04  2.14112E+03
 -5.14455E+03 -7.58879E+03  3.91052E+03 -1.23806E+04  1.06523E+04 -1.19857E+04  1.16733E+04 -7.11238E+03
  1.52705E+04  5.94683E+02  4.89967E+03  9.13305E+03 -1.98409E+03  1.15539E+04 -1.17019E+04  4.07512E+03
 -1.36137E+04  1.39837E+03 -9.32087E+03 -3.82047E+03 -2.23100E+02 -1.15702E+04  4.59514E+03 -6.82366E+03
  1.09168E+04  2.16062E+01  2.44295E+03  8.33811E+03  1.63926E+03  2.99000E+03  2.55684E+03  7.40190E+02
  5.38175E+02  5.68830E+01 -1.25438E+03  1.73506E+03  1.43256E+03  1.77325E+03 -8.01032E+02  9.18235E+03
 -1.26893E+03  1.01329E+04 -4.73372E+03  1.17236E+04 -1.05590E+04  1.02169E+03 -1.53039E+04 -4.51946E+03
 -7.99636E+03 -1.11554E+04  2.00637E+03 -1.52692E+04  9.24061E+03 -9.26570E+03  1.46674E+04 -2.07792E+03
  1.14094E+04  4.49646E+03 -4.04096E+03  8.00998E+03 -2.31641E+03  1.81423E+03 -2.66056E+03 -2.99915E+03
 -5.41152E+03 -9.93880E+03  1.88857E+03 -3.27896E+03  7.34637E+03 -1.17039E+03  5.27837E+03  2.08045E+03
  3.42414E+03  3.31063E+03  5.17886E+03  3.46622E+03  6.57935E+02 -1.73113E+03  3.10576E+03 -3.30672E+03
  6.80240E+03 -3.75624E+03  8.31329E+03  6.07782E+03  2.99226E+03  5.77410E+03 -5.07182E+03  7.14235E+03
 -4.40846E+03  7.78919E+03 -1.95315E+03  6.20408E+03 -1.03801E+04  7.63993E+02 -1.79778E+03 -2.89666E+03
  5.83133E+03  2.69013E+03  4.13911E+03 -6.02257E+03  4.10141E+03  3.22973E+03  8.58153E+02  2.90156E+02
 -6.48264E+03  1.94477E+03 -1.95105E+04 -1.29269E+03 -1.12527E+03 -5.79230E+03  2.59752E+03 -3.75341E+03
  3.26297E+03 -6.88736E+03  1.41608E+03 -1.82524E+03  2.54194E+03 -1.37324E+03 -2.49062E+03  6.06471E+03
 -2.72520E+03  6.04445E+02  3.66989E+03 -2.78968E+03  4.45075E+03 -4.50130E+03  6.52101E+03 -1.98337E+03
  8.59527E+03 -1.56887E+03  1.07518E+04  7.99956E+03 -2.56231E+03  1.22607E+04 -1.88814E+03  6.33628E+03
 -3.93377E+03  7.50328E+03 -3.36371E+03 -7.53681E+03 -5.93087E+03 -2.00449E+03 -4.24209E+03 -2.99508E+03
  4.68105E+03 -1.83444E+03  4.65533E+03  4.62488E+03  2.26762E+03  1.93373E+03 -7.33136E+02  4.03413E+03
 -3.51987E+03 -5.88054E+02 -9.34765E+02  2.99446E+03 -5.24415E+03  6.20811E+02  2.52263E+03  1.58646E+03
 -8.61506E+02  2.77453E+03 -3.52259E+03  3.33769E+03 -6.26876E+03 -3.94314E+03 -9.99847E+03  5.64093E+01
 -2.37031E+03 -9.79347E+03  3.68445E+03 -1.44279E+04  4.02825E+03 -9.69753E+03  1.57578E+04 -2.91067E+03
  1.28582E+04  1.64738E+03  1.56077E+04  5.67424E+03  1.23224E+03  9.17416E+03 -3.46267E+03  6.42398E+03
 -7.74863E+03  1.87424E+03 -1.03727E+03  5.41017E+03 -8.65334E+02  6.99373E+03 -3.92810E+03  2.12981E+03
 -3.13056E+02  9.90193E+01 -6.63196E+03 -3.49349E+01  3.17457E+03  1.03569E+03  3.26833E+03  4.91559E+02
  6.60460E+03  3.25957E+03  8.28110E+03 -5.03376E+03  5.63849E+03  8.32644E+03 -1.15033E+03  8.78178E+03
 -9.25697E+03  1.37224E+04 -1.43976E+04  8.83669E+03 -1.20336E+04 -1.76466E+03 -7.05894E+03 -2.96138E+03
 -8.86319E+03 -9.55439E+03  1.67579E+03 -8.07391E+03  8.80067E+03 -1.21596E+04  1.45097E+03  2.91710E+01
  5.43012E+03  8.10463E+03 -6.14595E+02 -8.98870E+02 -4.25907E+03  5.09134E+02  4.30786E+03  4.69162E+03
  4.42417E+03 -2.81617E+03  7.70242E+03 -2.69373E+03  1.14560E+03  6.63702E+03  2.92828E+03  4.31074E+03
  1.41356E+03  1.22903E+04 -8.97765E+03  2.16964E+03 -8.06515E+03 -2.64131E+03  5.58307E+03 -5.85867E+03
  4.36421E+03 -6.55926E+03  6.78515E+03 -3.21076E+03  1.01165E+04  2.36070E+03  3.11055E+03  8.98503E+03
  2.38047E+03  9.43581E+03 -3.75864E+03  3.47347E+03 -1.58644E+03  4.56005E+03  2.99139E+03  8.52146E+02
 -3.05571E+03  2.71728E+03  1.12471E+03  2.02184E+03 -1.39959E+03 -2.46193E+03 -6.19389E+03 -2.20251E+03
  9.25173E+02 -5.11409E+03 -2.84324E+02 -5.25889E+03  6.68334E+03 -1.40521E+03  3.11906E+03  1.67573E+03
  5.41389E+03  1.83506E+03  1.71128E+03  6.09251E+03  4.28313E+02  7.55938E+02  1.85229E+03  5.41264E+03
