 $NMID ID='MM_0lb_SNR50_17hz_g55_86.RAW', FMTDAT='(8E13.5)'
 TRAMP=1., VOLUME=1. $END
  3.09479E+05  3.84889E+03  3.39037E+05  2.49161E+05  8.63042E+04  3.37493E+05 -1.30083E+05  2.51887E+05
 -1.86662E+05  7.70786E+04 -1.15413E+05 -3.08836E+04  1.47148E+03 -5.25228E+04  5.18941E+04  1.11575E+02
  3.39802E+04  5.72286E+04 -1.53690E+04  7.75973E+04 -6.15835E+04  6.54559E+04 -8.62386E+04  2.76208E+04
 -8.27710E+04 -1.24521E+04 -5.81751E+04 -5.12093E+04 -1.54303E+04 -7.15274E+04  2.55026E+04 -4.33816E+04
  4.12091E+04  2.70293E+03  1.86574E+04  4.56630E+04 -3.32486E+04  5.11900E+04 -6.57689E+04 -3.95141E+03
 -5.44486E+04 -5.59977E+04 -7.22197E+03 -7.90813E+04  3.20372E+04 -5.50461E+04  4.99551E+04 -1.70932E+04
  4.14133E+04  9.25741E+03  3.10807E+04  2.83327E+04  1.27066E+04  2.68437E+04 -3.98170E+03  2.59421E+04
 -2.42853E+04  1.23881E+04 -2.24118E+04 -9.87168E+02  2.73084E+03 -2.23146E+03  2.04240E+04  1.64949E+04
  4.35250E+03  3.79053E+04 -3.50167E+04  3.29516E+04 -5.96817E+04  2.49184E+03 -5.43274E+04 -3.94722E+04
 -1.09501E+04 -6.41734E+04  4.20979E+04 -4.19555E+04  5.99043E+04 -4.81115E+03  2.93748E+04  3.01332E+04
 -9.03073E+03  3.59126E+04 -2.81448E+04  1.36703E+04 -2.88081E+04 -5.63608E+03 -1.44962E+04 -7.76879E+03
 -8.49490E+03 -1.56637E+04 -4.47987E+03 -1.82355E+04  2.07119E+03 -2.17425E+04  1.64899E+04 -1.31452E+04
  9.19466E+03  5.23021E+03 -8.28653E+03  8.70494E+03 -1.83582E+04 -3.94147E+03 -7.59091E+03 -3.45135E+04
  2.08939E+04 -4.17386E+04  4.67711E+04 -1.79127E+04  4.34497E+04  1.75936E+04  1.35591E+04  4.44005E+04
 -1.12178E+04  3.68335E+04 -2.53708E+04  1.12668E+03 -9.96587E+03 -2.87122E+04  1.88016E+04 -2.91788E+04
  3.78329E+04 -6.77052E+03  3.25789E+04  2.41202E+04  1.66936E+04  4.21276E+04 -6.87545E+03  4.50874E+04
 -3.26837E+04  3.23664E+04 -4.19155E+04  7.96852E+03 -3.98382E+04 -1.55367E+04 -2.02099E+04 -3.27034E+04
  6.74090E+03 -3.11761E+04  2.99486E+04 -1.15538E+04  2.88175E+04  1.17703E+04  4.90150E+03  1.48858E+04
 -1.41562E+04  1.09516E+04 -9.31729E+03 -8.08757E+03  4.95372E+03 -1.37765E+04  1.84055E+04  9.11633E+03
  1.11658E+04  2.42106E+04 -5.33189E+03  1.97208E+04 -2.88509E+04  9.02320E+03 -2.84358E+04 -7.59569E+03
 -1.88674E+04 -1.86804E+04 -1.05672E+04 -1.84418E+04  3.21037E+03 -1.72926E+04  1.31946E+04 -1.39462E+04
  2.14355E+04 -1.23893E+04  3.13270E+04  5.28735E+01  2.19405E+04  1.65248E+04  4.61819E+03  3.52292E+04
 -1.60675E+04  2.92740E+04 -2.44004E+04  1.42508E+04 -1.63350E+04 -8.59752E+03 -5.42070E+03 -1.60513E+04
 -2.46414E+03 -3.40242E+03 -2.03815E+03  2.97593E+03 -1.68964E+04  6.21744E+03 -1.19618E+04 -4.89461E+03
 -1.15315E+04 -1.50354E+04  4.72037E+03 -2.19752E+04  1.33751E+04 -1.54365E+04  2.00762E+04 -1.13394E+03
  1.16459E+04  1.01063E+04 -1.13470E+03  1.76374E+04 -1.35394E+04  6.49219E+03 -1.55886E+04 -8.28173E+03
 -1.15899E+04 -1.95001E+04 -2.67742E+03 -2.03163E+04  1.18661E+04 -1.83584E+04  2.10256E+04 -8.94382E+03
  1.83052E+04  1.19438E+03  1.00993E+04  2.16773E+03  8.14274E+03  1.11790E+03  1.03207E+04  2.46397E+03
  1.51179E+04 -6.39319E+02  1.61474E+04  1.35653E+04  9.43291E+03  2.50329E+04 -5.55891E+02  2.88610E+04
 -1.74087E+04  2.26427E+04 -3.02402E+04  1.03107E+04 -2.64119E+04 -4.69394E+03 -2.22867E+04 -1.32519E+04
 -1.31611E+04 -2.36136E+04  4.87560E+03 -2.04585E+04  2.16378E+04 -1.23951E+04  1.77796E+04  2.58143E+03
  7.46673E+03  9.53481E+03 -5.65658E+03  1.26130E+04 -1.81760E+04  2.51208E+03 -1.08685E+04 -8.09456E+03
  7.81362E+02 -1.23603E+04  5.00911E+03 -9.21736E+03  7.59463E+03 -1.83993E+03  3.27691E+03  6.18061E+03
 -1.05510E+04  6.17750E+03 -4.15519E+03 -7.14707E+03  3.56661E+03 -1.04795E+04  1.08696E+04 -8.87485E+03
  1.34312E+04 -6.12575E+03  1.91532E+04  5.14697E+03  1.90061E+04  1.01270E+04  6.40840E+03  1.82814E+04
 -7.12204E+02  1.92821E+04 -1.39979E+04  1.14437E+04 -1.57896E+04  8.71987E+03 -1.40540E+04 -5.32453E+03
 -9.41128E+03 -4.36065E+03  3.14807E+03  2.02701E+03 -3.04147E+03 -1.66983E+03 -5.27401E+03  7.22440E+02
 -8.82537E+03  3.79411E+03 -1.03619E+04 -5.48626E+03 -4.12513E+03 -1.54576E+04  4.69898E+03 -1.01811E+04
  1.32082E+04 -4.07444E+03  5.00776E+03  5.64021E+03  3.80157E+03  1.90614E+03 -3.01124E+03  1.63303E+02
 -3.78380E+02 -4.87939E+03 -1.47600E+03 -6.72956E+03  6.18327E+03 -1.24934E+04  1.12624E+04 -4.95361E+03
  1.45038E+04  1.99780E+03  8.83611E+03  1.00539E+04  1.15614E+03  1.00094E+04 -5.62998E+03  1.25983E+04
 -7.58972E+03  2.77224E+03 -6.36366E+03 -7.72802E+03  2.23490E+03  1.01057E+03  9.93523E+03  5.48721E+03
  5.22886E+03  2.44903E+03 -3.15400E+03  6.79048E+03 -4.76898E+03  8.93945E+03 -8.47838E+03  4.12318E+03
 -6.35546E+03 -2.99328E+03 -2.49243E+03 -6.46942E+03  5.11325E+03 -6.81280E+03  6.29784E+03  2.05499E+03
  4.95765E+02  3.65634E+03 -3.26569E+03  7.94093E+03 -4.08950E+03  3.31832E+03  3.42343E+02 -2.95627E+03
 -3.81224E+03 -8.96110E+03  2.19244E+03 -8.56636E+03  8.50011E+03 -7.71181E+03  6.39322E+03  3.68225E+03
  3.63960E+03  7.69746E+03 -1.95053E+03  7.18440E+03 -1.56287E+03  2.22796E+03 -4.24790E+03 -3.92814E+03
 -4.96428E+03 -7.98584E+03 -1.35711E+03 -9.97877E+03  3.63599E+03 -3.18265E+03  4.52691E+03  3.34922E+02
  3.81818E+03 -1.41062E+03 -3.26556E+03 -1.52864E+03  8.97675E+02 -9.60834E+02 -2.35711E+02  1.25610E+03
  9.78132E+03 -7.05440E+03  4.20993E+03  2.76230E+03  6.65127E+03  1.13388E+04  2.50839E+03  1.01396E+04
 -6.42284E+02  1.09432E+04 -9.49789E+03  6.96431E+03 -1.56832E+04  2.57297E+03 -9.52660E+03 -6.75297E+03
 -2.66319E+03 -5.49235E+03  1.62666E+03 -9.05722E+03  2.90241E+03 -4.64456E+03  3.72830E+03 -1.72904E+03
  4.44531E+02 -3.92408E+03  2.54954E+03 -5.39205E+03  6.22920E+03  6.74165E+02  4.18640E+03  2.87251E+03
  5.01611E+03 -3.85544E+03  7.27272E+02  5.55036E+03 -4.30320E+02  6.16090E+03 -3.64057E+03 -3.20798E+03
 -9.15697E+03  3.99614E+03  1.24036E+03 -7.18235E+03 -1.39495E+03 -7.65045E+03  5.22758E+03 -4.33625E+03
  5.06529E+03 -6.43453E+03  7.51168E+03  3.34367E+03  3.08761E+03  6.26608E+03 -6.53810E+02  8.57363E+03
  2.49140E+02  9.25257E+03 -7.38562E+03  8.39720E+02  9.15270E+02 -2.03622E+03  2.43663E+03 -2.13890E+03
  3.02582E+03 -3.67957E+03  2.35138E+03  3.54574E+03 -4.99485E+03  4.13004E+03 -3.94762E+03  4.60903E+03
 -2.80737E+03  5.03684E+02 -6.88868E+02 -5.09351E+03  1.56716E+03 -5.34523E+03  7.85712E+03  1.83816E+03
  5.81050E+03  1.53507E+03  2.54545E+02  6.39740E+03 -1.47590E+03  2.57391E+03 -5.36491E+03  7.67838E+03
 -4.46603E+03  4.11166E+03 -6.90042E+03 -4.44083E+03 -2.07873E+03 -2.64291E+03  9.37801E+02 -3.08696E+03
  4.19953E+03 -3.82985E+03  1.68376E+03 -2.70343E+03  1.16538E+03  3.79350E+03  4.69227E+03 -5.76448E+03
  1.73967E+03  5.12403E+03  7.27589E+02  1.12578E+03  3.90845E+03  3.74306E+03  5.01601E+03  5.10280E+02
 -1.64973E+03  4.79274E+03 -7.20904E+03  4.54426E+03 -3.04717E+03  3.68167E+03 -4.37963E+03 -9.61464E+02
 -5.20050E+03 -5.90982E+03  2.75740E+03 -4.86132E+03  4.27612E+03 -3.97911E+03  2.13400E+03  8.33492E+01
  3.76981E+03  1.70263E+03 -1.93386E+03  3.91939E+03  1.55597E+03  3.03699E+03 -3.59578E+03 -2.10118E+03
 -3.42986E+02 -4.70867E+03 -7.10902E+02 -4.76462E+03 -3.02386E+03 -4.15326E+03  4.65756E+03 -5.64467E+02
  3.46003E+03 -3.19422E+03 -9.08271E+02 -1.22636E+03 -4.11324E+03  3.69561E+03 -1.42970E+02 -1.30307E+03
  6.24550E+03  9.30272E+02 -8.20590E+02  2.82194E+03  1.25304E+03 -8.88982E+02 -8.25775E+02  5.76174E+03
  3.81520E+02  2.31945E+03 -3.48188E+03 -4.37280E+02 -8.82201E+02 -1.11113E+03  1.03702E+03 -1.79229E+02
  4.13228E+03  2.16241E+03  2.80107E+03 -4.81476E+03  2.34013E+03 -1.52003E+03 -3.07988E+03  4.50371E+03
 -4.85461E+02  1.83065E+02 -1.66698E+03 -1.71864E+03 -1.98453E+03 -3.98590E+03  1.81423E+03 -3.59490E+03
  2.64393E+03 -8.40874E+02  2.75234E+02 -2.22539E+03  7.33016E+02  1.54670E+03  2.43374E+03  4.40919E+03
 -3.38852E+02  3.85063E+03 -8.97065E+02  1.86954E+03  3.85358E+03  4.77322E+02  2.36356E+03  4.37909E+02
  2.49991E+03  7.47013E+02  4.05842E+03  3.32825E+03  1.64032E+03  1.75560E+03 -6.90854E+03  3.52444E+02
 -2.38342E+03 -8.34059E+02 -1.08433E+02 -1.44043E+03 -4.02973E+03  1.63944E+03  6.85373E+01 -4.35455E+03
  1.65387E+03  1.31977E+03  3.11015E+03 -6.90341E+02  3.36858E+03 -7.88803E+02  2.66510E+03  4.62761E+03
 -1.88066E+03  3.54972E+03  3.84924E+02 -5.32340E+01  8.04959E+02  3.06907E+03 -1.37663E+03 -5.34659E+01
  4.05098E+03  6.84542E+03 -4.79672E+03 -2.50815E+03 -3.10426E+02 -9.85218E+02 -9.43852E+02 -3.70254E+03
 -2.80510E+03 -5.08185E+03  9.80930E+01 -5.40178E+03 -1.20097E+03 -5.25288E+03  2.20785E+03 -5.42901E+03
  4.55969E+03 -2.63325E+03 -3.67807E+02  2.70924E+03 -2.97552E+03 -3.51903E+02 -3.62096E+03  4.33786E+02
  2.29583E+03 -5.72433E+03  4.60521E+03 -3.20043E+03 -2.09324E+03  4.06666E+01  1.52388E+03 -1.21725E+03
  2.28286E+03 -4.02741E+03 -3.80542E+03 -4.18029E+03  1.13215E+03 -3.43151E+03  6.32215E+02 -1.91133E+03
  4.05791E+03 -4.35559E+03  1.74196E+03 -6.25953E+02 -2.06849E+03  2.13661E+03 -5.24469E+02  4.23545E+03
  2.22072E+03  2.53835E+03 -5.30131E+03 -1.42246E+02 -2.91614E+02  1.82504E+03 -1.24035E+03 -3.56805E+03
 -6.12549E+03 -4.88784E+03  9.91455E+02 -1.24286E+03  1.12514E+03  2.43651E+03 -4.66778E+03 -2.24637E+02
 -1.60461E+03  2.52414E+03  2.85873E+03  3.67036E+02  6.79763E+02 -1.91244E+03  1.08891E+03  1.16455E+03
 -2.03904E+03  4.16611E+03  3.92893E+03  5.09152E+03  5.19735E+01  8.79962E+02  1.39704E+03  4.41033E+02
 -7.81490E+00 -2.35735E+03  4.85515E+02 -3.73750E+03 -2.83447E+03 -2.50646E+02  2.10498E+02 -4.61825E+03
 -2.41984E+03 -1.82655E+03 -1.04225E+03 -4.64870E+03  6.10379E+03 -2.39574E+03  2.52854E+03  2.19898E+03
  8.43443E+02 -4.15977E+02  1.16077E+02  7.13948E+03  3.04770E+03  1.62754E+03  8.44918E+02 -2.98923E+02
 -1.78566E+03  3.67106E+03 -4.23783E+02  4.30720E+03  1.18960E+03 -2.95998E+03 -6.09452E+03  4.33380E+03
  7.80281E+02 -8.56860E+02  2.86229E+03 -2.99675E+02  2.73996E+03  6.00789E+00  2.06272E+03  2.33305E+03
  2.92820E+03  1.39093E+03 -1.70770E+03  1.60372E+03 -9.38079E+02  1.61071E+03 -2.85840E+03 -2.60269E+03
