 $NMID ID='MM_0lb_SNR50_14hz_g50_27.RAW', FMTDAT='(8E13.5)'
 TRAMP=1., VOLUME=1. $END
  3.12242E+05 -2.30859E+03  3.39849E+05  2.49199E+05  8.55599E+04  3.35910E+05 -1.36860E+05  2.46764E+05
 -1.92403E+05  8.40427E+04 -1.08364E+05 -3.74237E+04 -6.47963E+02 -4.72115E+04  5.30167E+04 -7.49113E+02
  3.50986E+04  5.03589E+04 -1.92659E+04  7.34080E+04 -6.38665E+04  6.68369E+04 -8.19691E+04  2.94127E+04
 -7.99974E+04 -1.50330E+04 -5.85250E+04 -4.96075E+04 -1.63861E+04 -6.86893E+04  2.97646E+04 -4.49868E+04
  4.09048E+04  6.30857E+03  1.51996E+04  4.88984E+04 -3.50879E+04  4.73790E+04 -6.13424E+04 -5.86949E+01
 -5.79330E+04 -5.64196E+04 -1.14779E+04 -7.72818E+04  3.00656E+04 -5.53378E+04  4.41836E+04 -1.89156E+04
  4.53635E+04  1.38580E+04  3.10084E+04  3.19352E+04  1.52081E+04  2.98197E+04 -6.08645E+03  2.81913E+04
 -2.26951E+04  1.16608E+04 -1.33765E+04 -4.81920E+03  3.85407E+03 -8.88946E+03  1.65481E+04  8.59065E+03
  8.56490E+03  2.83751E+04 -3.19059E+04  3.00153E+04 -6.39967E+04 -4.98222E+02 -5.66245E+04 -3.98303E+04
 -1.30999E+04 -6.54976E+04  3.92879E+04 -4.43418E+04  5.92862E+04 -6.60869E+02  3.00129E+04  3.02285E+04
 -5.32720E+03  3.37562E+04 -3.26443E+04  1.48311E+04 -2.87538E+04 -5.07881E+03 -2.00662E+04 -1.42236E+04
 -5.50339E+03 -1.59506E+04  3.06594E+03 -2.03598E+04  9.66348E+03 -1.76048E+04  1.58815E+04 -9.85021E+03
  1.24871E+04  9.66758E+03 -1.27228E+04  1.29303E+04 -2.02725E+04 -1.80565E+03 -6.78032E+03 -3.42401E+04
  2.51787E+04 -4.44442E+04  4.96822E+04 -2.03464E+04  4.79897E+04  2.05584E+04  1.38939E+04  4.59041E+04
 -1.51549E+04  2.85639E+04 -2.22876E+04 -3.90790E+03 -7.45663E+03 -2.58446E+04  1.89708E+04 -3.64740E+04
  4.15094E+04 -8.88333E+03  3.55224E+04  2.68705E+04  1.76613E+04  5.11718E+04 -5.99029E+03  4.73985E+04
 -3.11660E+04  3.23574E+04 -4.11043E+04  7.54727E+03 -4.99844E+04 -1.47937E+04 -2.54951E+04 -4.09526E+04
  8.23871E+03 -3.72193E+04  2.86102E+04 -1.24745E+04  3.09772E+04  1.16217E+04  4.92370E+03  1.38686E+04
 -1.11524E+04  7.48762E+03 -1.08443E+04 -6.36724E+03  4.26717E+03 -1.05062E+04  1.84423E+04  7.66265E+03
  9.90467E+03  2.27471E+04 -7.83051E+03  2.74353E+04 -2.17447E+04  8.88770E+03 -2.70856E+04 -5.63135E+03
 -2.06862E+04 -1.90267E+04 -1.15943E+04 -2.20981E+04  1.46708E+02 -2.12556E+04  1.60794E+04 -2.24073E+04
  2.40779E+04 -1.45638E+04  3.38678E+04  4.60662E+03  1.83151E+04  2.02101E+04  7.83709E+01  3.47157E+04
 -1.32801E+04  2.96544E+04 -2.65048E+04  1.41847E+04 -1.93154E+04 -1.32636E+04 -3.16451E+03 -1.39112E+04
  2.33504E+03 -6.35807E+02 -9.12772E+02  1.29868E+04 -1.80270E+04  7.35787E+03 -1.81312E+04 -5.89943E+03
 -1.05091E+04 -2.01894E+04  1.40844E+03 -2.61319E+04  2.21434E+04 -2.22722E+04  1.93729E+04  4.04929E+03
  1.05345E+04  1.48828E+04  8.77772E+02  1.90803E+04 -1.38918E+04  1.53164E+04 -2.05610E+04 -5.44311E+03
 -1.26926E+04 -1.47947E+04 -4.67845E+03 -2.66091E+04  1.08276E+04 -1.67393E+04  1.48768E+04 -9.13489E+03
  1.64227E+04  4.00005E+02  1.66578E+04  8.08160E+03  3.56595E+03  6.18186E+03  8.38297E+03  2.21573E+02
  1.34581E+04  4.01699E+03  2.11999E+04  1.65617E+04  1.01139E+04  2.98942E+04  5.12130E+03  3.21459E+04
 -1.99705E+04  2.60768E+04 -3.70710E+04  1.62676E+04 -3.23976E+04 -2.10754E+02 -2.64156E+04 -1.75764E+04
 -1.57766E+04 -2.94302E+04  1.01215E+04 -2.62619E+04  1.95139E+04 -1.27665E+04  1.72719E+04  1.17296E+04
  8.95441E+03  1.33280E+04 -6.72616E+03  1.18022E+04 -1.37325E+04  3.60055E+03 -1.31568E+04 -1.18577E+04
 -3.94775E+03 -1.83562E+04  1.14433E+04 -1.37145E+04  1.29735E+04 -8.86623E+02  5.51571E+03  9.81185E+03
 -9.38695E+03  1.29483E+03 -5.68765E+03 -9.37579E+02  3.60477E+03 -1.51146E+04  7.39676E+03 -1.51678E+04
  1.93208E+04 -1.03341E+04  1.50774E+04  2.51781E+03  1.76198E+04  1.41159E+04  8.02462E+03  2.14511E+04
 -1.19921E+03  2.52763E+04 -1.50143E+04  1.35235E+04 -1.43872E+04  1.68574E+03 -8.76269E+03 -2.08326E+03
 -3.11969E+03 -4.51563E+03  3.57471E+03  1.52799E+03 -1.44891E+02  2.33080E+03 -8.20787E+03  4.98872E+03
 -1.01398E+04 -5.41226E+03 -1.32002E+04 -6.58774E+03 -2.96621E+03 -2.01444E+04  3.75078E+03 -9.79349E+03
  7.81000E+03 -4.95132E+03  6.04759E+03 -3.37732E+02 -3.69833E+03  4.61181E+03 -4.13753E+03  2.51269E+03
 -5.64358E+03 -2.55665E+03  5.37909E+03 -1.29286E+04  9.60941E+03 -9.65745E+03  8.04786E+03 -5.53466E+03
  1.45555E+04 -1.53518E+03  7.33736E+03  1.14875E+04 -2.84905E+03  1.64201E+04 -4.16437E+03  1.26837E+04
 -9.61078E+03  9.30515E+02 -3.12057E+03  2.60955E+03  2.13267E+03 -2.80175E+03  9.07244E+03 -2.30464E+03
  7.80443E+03  4.85901E+03  3.45339E+03  5.10604E+03 -5.65594E+03  5.65477E+03 -9.65453E+03 -2.23145E+03
 -4.30337E+03 -4.50507E+03 -1.26161E+03 -1.25868E+04  8.12807E+03 -2.02544E+03  3.02591E+03 -4.31865E+03
 -5.16108E+02  4.43463E+03 -1.16441E+04  7.53866E+03 -6.02582E+03  2.00189E+03 -6.31300E+03 -2.09032E+03
 -5.42061E+03 -1.48713E+04  2.54245E+03 -1.01033E+04  6.70658E+03 -1.15296E+04  1.50283E+04 -7.76897E+02
  9.98190E+03  1.62232E+04 -1.08589E+03  1.18158E+04 -6.76724E+03  1.90738E+03 -9.35607E+03 -3.72141E+03
 -7.59612E+03 -8.54468E+03 -7.24111E+02 -1.24038E+04  7.94599E+03 -4.09879E+03  2.42775E+03  1.11112E+03
 -4.47834E+01  3.19325E+03 -5.99586E+02 -3.50875E+03 -7.18669E+02 -5.56624E+03 -4.52621E+02 -7.47337E+03
  5.56340E+03 -1.04985E+03  1.22590E+04  9.30519E+02  8.64781E+03  4.63057E+03  4.64072E+03  8.58600E+03
 -5.70600E+03  1.27414E+04 -1.16562E+04  1.08210E+04 -1.81032E+04  2.37181E+03 -1.30247E+04 -5.35753E+03
 -3.76117E+03 -1.65282E+04 -3.60100E+03 -1.20615E+04  6.54305E+03 -2.13198E+03  2.48942E+03 -3.89052E+03
  2.02882E+03 -2.76743E+03  3.48676E+03 -4.02374E+03  4.64150E+02  4.56732E+02  1.24929E+04 -1.94795E+03
  9.60549E+03  1.52389E+03  9.46694E+02  4.66666E+03 -4.29991E+03  3.44226E+03 -1.30299E+03  3.57710E+03
 -1.40522E+04 -2.35923E+03 -2.80493E+03 -4.59842E+03  6.69130E+01 -1.17011E+04  6.13862E+03 -7.31406E+03
  8.97706E+03 -6.00453E+03  1.02079E+04 -2.70694E+02  4.70559E+03  1.08495E+04  4.90084E+03  6.43534E+03
 -3.55891E+03  6.67144E+03 -8.56565E+03  3.45100E+01 -6.91183E+03 -1.27046E+03 -4.58659E+03 -5.97480E+03
  2.72558E+03  2.05247E+03 -5.66129E+03  4.04619E+03 -2.08019E+03  3.44925E+03 -8.68784E+03 -2.92039E+03
 -1.70870E+03 -8.34048E+03  7.30957E+03 -7.97976E+03  3.66392E+03 -6.20207E+03  1.14594E+04 -7.48196E+02
  3.25003E+03  4.81315E+03  6.75317E+03  6.68143E+03 -4.64751E+03  5.16496E+03 -6.95281E+03  4.97229E+03
 -3.76932E+03  1.07348E+03 -1.90302E+03  7.75538E+02 -5.61412E+03 -5.62611E+03  2.71554E+03 -8.11770E+03
  9.34915E+03  2.03951E+03  4.34484E+03 -9.27676E+02  5.47171E+03  6.70490E+03 -2.23410E+02  1.58704E+03
  3.23030E+02 -3.47350E+03 -1.72947E+03 -3.68672E+03  3.91191E+02  2.61728E+03  1.48351E+03  1.10796E+03
 -1.07624E+03  8.96539E+03 -4.38295E+03  5.59748E+03 -7.63724E+03  3.88408E+03 -6.90964E+03 -6.29196E+03
 -1.37186E+03 -8.47333E+03 -3.28638E+03 -7.40711E+03  3.70936E+03 -9.18729E+03  6.39135E+03 -8.33265E+02
  6.09687E+03  1.87752E+03  2.36062E+03  7.71790E+03 -5.35142E+03  4.54010E+03 -4.87870E+03 -1.79256E+03
 -8.82661E+03  2.12610E+03  5.51924E+03 -7.01102E+03  1.05230E+03 -6.29533E+03  3.15867E+03 -4.95739E+03
  2.69040E+03  2.27918E+03 -3.05553E+03 -1.05639E+03 -1.72143E+03  7.21805E+02 -1.36760E+03  1.28954E+00
  4.70298E+03 -1.26539E+03  4.78339E+03  1.77183E+03  2.42278E+02  4.62269E+03 -2.45558E+03  5.22182E+03
 -1.49505E+03  3.95190E+03 -2.26661E+03 -2.28473E+02 -2.27900E+03 -2.68846E+03 -1.53441E+03 -3.51313E+03
  2.29832E+03 -4.54556E+03  1.07170E+03 -1.21164E+03  4.61148E+03  1.74893E+03 -4.00266E+03  4.67618E+03
 -2.51173E+03  3.80709E+03 -5.40327E+03 -6.42949E+03  2.54998E+03 -2.33864E+03 -1.50412E+03 -1.97226E+03
  3.31943E+03 -8.85152E+02  7.43381E+03 -4.75181E+03  4.74514E+03 -2.91926E+03 -1.39946E+03  1.83370E+03
 -5.16249E+03  3.07497E+03 -5.97044E+03 -9.95990E+02  5.84486E+03  9.60241E+01  4.21638E+03  2.79978E+03
  9.13284E+03  1.91652E+03  1.93322E+03 -9.61626E+02  2.64335E+03  6.89181E+03 -3.16873E+03  7.28148E+03
 -5.18485E+03  2.02321E+03 -3.89470E+03 -3.08352E+03  2.90277E+02 -5.33591E+03  1.04012E+03 -5.98081E+03
  7.98559E+03  8.80237E+01  6.20119E+03  6.59790E+03  5.77208E+03  2.45549E+03  9.12222E+02 -7.81590E+02
 -2.41177E+03  4.19489E+03 -1.17784E+03 -3.57040E+03  2.23407E+03 -7.75477E+02 -2.22310E+03  1.26757E+03
 -4.41197E+03  4.71914E+03 -4.98213E+03  7.17261E+03 -8.15082E+03 -1.62329E+03 -4.80507E+03  6.36215E+02
 -1.89745E+03 -9.67399E+02 -2.33873E+03 -6.27095E+03  4.88938E+03 -1.01600E+03  2.97049E+03 -8.65762E+03
  5.48545E+03  1.36749E+03  1.91584E+03  1.56294E+03  2.80934E+03  4.05395E+03 -2.42986E+02  7.33323E+03
 -3.77706E+03  2.07474E+03 -5.34226E+02 -1.84487E+03  6.53848E+02  1.34189E+03  2.11150E+02 -5.39012E+03
 -1.21279E+02 -1.49288E+03 -3.92161E+02 -1.75592E+03 -1.66004E+03 -6.10797E+03 -6.65742E+02 -1.97945E+03
  3.91817E+03 -1.98598E+03  3.99165E+02 -1.41454E+03  8.81764E+03 -2.64592E+02  1.72289E+03 -5.63270E+02
 -3.62070E+03  7.09925E+03 -2.51624E+03  4.98044E+03 -6.66446E+03 -1.18441E+03 -5.24790E+03  1.23646E+03
 -1.18771E+03 -3.92536E+03 -9.91684E+02 -1.51012E+03  9.74007E+02 -5.70244E+03  3.78774E+03  4.17186E+03
  1.76018E+03  3.44943E+03 -2.23844E+03 -1.19578E+03 -5.78877E+03  1.59697E+03 -1.73403E+03  2.24132E+03
  1.11380E+03  1.85622E+03  1.13494E+03  3.08387E+03  6.03629E+03  2.29033E+03  6.52009E+02  1.45461E+03
  2.34351E+03 -1.18559E+02 -4.75794E+03  4.51763E+03 -5.42786E+03 -1.98367E+03  5.38051E+03 -6.69898E+03
  3.89980E+03 -2.87434E+03  1.03776E+03  3.60741E+03 -1.19549E+03 -2.20173E+02 -3.79427E+01  2.54141E+03
 -3.37513E+03 -4.29524E+02  2.74191E+03  1.02511E+03  1.67809E+03  2.42240E+02 -5.17606E+03  2.64656E+03
 -6.07769E+02 -1.30415E+03  1.55425E+01 -4.75977E+02  2.39220E+03  1.21246E+03 -2.64889E+03 -1.10873E+03
  1.35640E+03 -2.92660E+03 -2.36149E+03 -2.78344E+03 -6.36685E+01 -3.94703E+03 -2.03661E+03 -2.74075E+03
  1.97038E+03 -6.70314E+03 -3.99195E+02  1.90653E+03  2.09253E+03  3.34578E+03 -1.46277E+03  2.03455E+03
