 $NMID ID='MM_0lb_SNR50_7hz_g45_75.RAW', FMTDAT='(8E13.5)'
 TRAMP=1., VOLUME=1. $END
  3.10428E+05  1.65387E+03  3.34701E+05  2.50063E+05  8.91842E+04  3.36286E+05 -1.30258E+05  2.40448E+05
 -1.93643E+05  8.13722E+04 -1.10467E+05 -2.93550E+04  1.18033E+04 -5.05442E+04  5.23461E+04  1.99220E+03
  2.99949E+04  5.40167E+04 -1.49719E+04  7.14241E+04 -6.68984E+04  6.83363E+04 -8.17773E+04  3.47605E+04
 -8.24661E+04 -1.22907E+04 -5.72543E+04 -4.82988E+04 -9.57813E+03 -7.18847E+04  3.21842E+04 -5.03058E+04
  3.80760E+04  9.06870E+03  1.26744E+04  5.33253E+04 -3.91362E+04  4.55884E+04 -6.11154E+04  2.72146E+03
 -5.95535E+04 -5.68205E+04 -3.65791E+03 -7.58679E+04  3.56348E+04 -6.08800E+04  4.47636E+04 -1.99926E+04
  4.74851E+04  1.10603E+04  2.90798E+04  2.65918E+04  1.38469E+04  2.54848E+04 -3.26760E+03  2.57899E+04
 -2.48086E+04  1.04167E+04 -1.86452E+04 -4.04999E+03  9.17791E+03 -1.28382E+04  2.42952E+04  1.42133E+04
  8.28141E+03  3.52403E+04 -3.19767E+04  3.77597E+04 -6.30430E+04  3.04649E+03 -5.57296E+04 -4.08932E+04
 -1.05742E+04 -6.12730E+04  3.55532E+04 -4.95488E+04  6.31466E+04  2.19724E+03  3.63955E+04  3.20758E+04
 -3.30594E+03  4.06006E+04 -3.55011E+04  2.13429E+04 -2.90434E+04  1.63848E+03 -1.77523E+04 -1.17439E+04
 -1.06431E+04 -1.84021E+04  3.05351E+02 -2.41076E+04  5.68025E+03 -2.45738E+04  2.01126E+04 -5.76185E+03
  7.89172E+03  1.01796E+04 -1.50151E+04  1.59892E+04 -2.38524E+04 -5.29507E+03 -1.34034E+03 -4.25433E+04
  2.23828E+04 -5.18079E+04  5.18900E+04 -2.67312E+04  4.58817E+04  1.68144E+04  1.50883E+04  4.90389E+04
 -2.21497E+04  3.58055E+04 -2.68812E+04  6.82354E+03 -1.23435E+04 -2.41384E+04  2.54086E+04 -4.57600E+04
  4.66165E+04 -1.90905E+04  3.73259E+04  2.48292E+04  2.23344E+04  5.01890E+04 -2.32664E+03  6.07290E+04
 -3.98949E+04  4.00497E+04 -4.84169E+04  4.24750E+02 -4.77106E+04 -4.40193E+03 -2.31722E+04 -4.61112E+04
  9.97495E+03 -4.58803E+04  3.70849E+04 -2.14749E+04  2.86360E+04  1.07708E+04  7.29497E+03  2.15451E+04
 -1.43109E+04  1.35745E+04 -3.40025E+03 -1.05129E+04  1.55536E+03 -6.86717E+03  1.79958E+04  6.26316E+03
  2.11902E+04  2.49091E+04 -1.72043E+03  2.84208E+04 -2.37955E+04  3.78907E+03 -3.91065E+04 -1.47231E+03
 -2.06357E+04 -2.46089E+04 -7.69111E+03 -2.85417E+04  6.70135E+03 -2.80606E+04  2.09363E+04 -2.86766E+04
  3.33072E+04 -1.49742E+04  3.60336E+04  2.66861E+03  2.47066E+04  3.12917E+04 -7.42674E+02  4.80398E+04
 -1.89461E+04  3.45458E+04 -2.97141E+04  1.62360E+04 -2.85207E+04 -1.17201E+04 -3.55912E+03 -9.95037E+03
  1.01558E+03  2.24355E+03 -1.17744E+04  1.00621E+04 -2.05309E+04  2.34598E+03 -2.40034E+04 -1.58429E+04
 -1.41885E+04 -2.88720E+04  1.21281E+03 -2.69522E+04  2.00008E+04 -1.96530E+04  2.02425E+04 -3.78899E+03
  1.28354E+04  1.57838E+04  1.75157E+03  3.40728E+04 -2.20288E+04  1.26573E+04 -2.44293E+04 -3.85480E+03
 -1.71364E+04 -1.99520E+04 -3.06566E+03 -2.76290E+04  1.10043E+04 -2.81000E+04  2.32174E+04 -1.21037E+04
  1.90784E+04 -5.48793E+02  1.39543E+04  1.12165E+04  1.05738E+04  7.83545E+02  9.32566E+03 -8.04123E+03
  2.33725E+04  9.77411E+03  3.08358E+04  1.40786E+04  2.60902E+04  4.20229E+04 -2.37589E+02  5.10066E+04
 -2.42385E+04  4.32864E+04 -4.86785E+04  2.17362E+04 -5.33526E+04 -2.90889E+03 -3.55868E+04 -2.81835E+04
 -1.49093E+04 -3.76104E+04  1.26929E+04 -2.93412E+04  2.98162E+04 -1.36482E+04  2.40241E+04  1.19009E+04
  8.86652E+03  1.98833E+04 -1.08648E+04  1.92575E+04 -2.31643E+04  2.62190E+03 -1.76082E+04 -5.67465E+03
 -6.02040E+01 -2.11618E+04  1.56592E+04 -1.44812E+04  1.29809E+04 -2.50402E+02  1.61025E+03  1.44194E+04
 -8.92456E+03  9.06241E+03 -1.28846E+04 -8.62685E+03 -4.58740E+03 -1.99517E+04  1.65453E+04 -1.51302E+04
  2.89731E+04 -1.35676E+04  3.32213E+04  1.41195E+03  2.61622E+04  1.82165E+04  1.22702E+04  3.34456E+04
 -1.07266E+04  3.69381E+04 -2.23941E+04  2.45942E+04 -2.36535E+04  8.01305E+03 -1.50089E+04 -4.77646E+03
 -1.79085E+03 -8.61975E+03  2.13133E+03  1.37256E+03 -2.90627E+03  3.05687E+02 -7.32872E+03  6.09508E+03
 -1.25868E+04  1.53327E+03 -1.92684E+04 -7.85962E+03 -6.01660E+03 -2.18784E+04  2.33068E+03 -2.39684E+04
  1.54303E+04 -4.11507E+03  1.32540E+04  2.38333E+03  3.05068E+03  8.66348E+03 -1.11332E+04 -3.74796E+03
 -4.74694E+03 -9.26551E+03  5.81535E+03 -1.93078E+04  9.09967E+03 -2.02428E+04  1.65642E+04 -1.76002E+04
  2.37050E+04 -3.47841E+03  1.58569E+04  9.32597E+03  3.71909E+03  2.28728E+04 -1.35312E+04  2.21853E+04
 -1.53155E+04  6.10049E+03 -5.28884E+03 -2.60034E+03  2.72941E+03 -4.92451E+03  1.36080E+04 -6.01518E+03
  6.43904E+03  8.43473E+03  3.94175E+03  8.61587E+03 -5.06324E+03  1.39034E+04 -2.05743E+04  4.62733E+03
 -1.42912E+04 -9.05337E+03 -1.07377E+03 -2.35372E+04  1.19565E+04 -5.26171E+03  1.17846E+04  1.08353E+04
  2.23948E+03  1.34965E+04 -1.53651E+04  2.01686E+04 -2.17285E+04  6.18947E+03 -1.36519E+04 -6.46200E+03
 -5.45611E+03 -1.78418E+04  6.73698E+03 -2.64486E+04  2.13020E+04 -1.39752E+04  1.74742E+04  7.79507E+03
  1.11257E+04  1.13163E+04 -2.53059E+03  1.78420E+04 -1.11330E+04  8.82157E+03 -1.22528E+04 -7.68562E+02
 -1.59751E+04 -1.07374E+04 -1.01506E+03 -6.80865E+03  4.57265E+03 -1.59373E+04  4.87077E+03 -1.60544E+03
  9.63248E+03  1.10011E+04 -1.17049E+03  3.92780E+03  3.75853E+02 -4.50831E+03  8.11129E+03 -5.89940E+03
  1.14451E+04 -6.37284E+03  1.67454E+04 -9.46580E+02  1.30831E+04  1.40044E+04  1.07503E+04  2.84757E+04
 -9.48388E+03  2.76467E+04 -2.67440E+04  1.68179E+04 -3.11901E+04  6.10995E+03 -2.15328E+04 -1.10101E+04
 -1.56714E+04 -2.32639E+04 -3.04955E+03 -1.60311E+04 -1.28107E+03 -3.37488E+03  4.48149E+03 -8.80518E+02
  1.25520E+04  5.88054E+02  3.56620E+03 -8.75821E+03  1.26013E+04 -8.41779E+03  7.09656E+03 -3.35522E+03
 -8.40600E+02  8.71036E+03  7.01935E+03  4.23233E+03 -5.39974E+03  1.26042E+04 -1.48394E+04  7.37114E+03
 -1.90219E+04  1.15557E+02 -9.12650E+03 -8.70644E+03  3.40473E+03 -1.85007E+04  1.33448E+04 -1.19663E+04
  2.76030E+04 -1.38187E+04  2.26129E+04  2.90570E+03  2.31603E+04  2.02035E+04  3.96287E+02  2.08996E+04
 -1.43936E+04  2.16300E+04 -1.39631E+04  3.49578E+03 -1.23997E+04 -4.78610E+03 -2.32579E+03 -3.39722E+03
 -4.41084E+03 -4.80020E+02 -3.95472E+03  2.35720E+03 -1.23042E+04  5.19855E+03 -1.90910E+04 -7.54949E+03
 -8.30675E+03 -8.00615E+03 -6.15550E+03 -1.72895E+04  5.23501E+03 -1.66507E+04  1.50804E+04 -6.97961E+03
  1.37661E+04  5.74451E+03  1.97180E+03  1.97259E+04  9.66488E+00  1.54935E+04 -1.68235E+04  1.30750E+04
 -1.40456E+04  7.68523E+03 -1.75458E+04 -1.44796E+04  2.37223E+03 -1.40747E+04  6.24349E+03 -1.05620E+04
  8.35574E+03  5.18908E+02  7.58886E+03  2.97365E+03  2.09908E+03  3.10764E+03 -5.31300E+03  4.58362E+03
  3.71694E+03 -3.37010E+03 -3.51079E+03 -8.70286E+03  2.07136E+03  1.12272E+04  5.92971E+03  8.26520E+03
 -4.32944E+03  1.13282E+04 -1.65056E+04  8.53427E+03 -1.76271E+04  2.21811E+03 -1.87852E+04 -7.77457E+03
 -1.12361E+04 -1.90026E+04  3.08505E+03 -1.27870E+04  8.12505E+03 -1.89095E+03  1.80998E+04 -1.22712E+04
  8.99043E+03  1.03757E+04  7.13803E+03  7.99223E+03 -8.29340E+03  8.83109E+03 -3.56966E+03 -4.58128E+03
 -1.84697E+03 -1.39478E+04  3.90250E+03 -2.23044E+03  8.99943E+03 -6.45298E+03  8.37580E+03 -4.41303E+03
  1.03087E+04  3.00233E+03  5.91857E+03  8.24787E+03 -1.48461E+04  1.01637E+03  3.35165E+03  1.85106E+03
  2.32747E+03 -2.66558E+03  1.25571E+04  5.83698E+03  1.01881E+04  8.19569E+03 -3.04590E+02  2.01710E+04
 -1.64106E+04  2.51504E+03 -9.67135E+03  4.16673E+03 -1.28895E+04 -2.89166E+03 -3.49775E+03  2.86587E+03
  6.50560E+02 -1.26344E+04  9.29823E+03 -5.74340E+03  3.49423E+03  4.10016E+03 -4.73741E+03  5.90621E+03
 -1.36931E+04  6.04041E+03 -1.51301E+04 -1.07919E+04 -1.15162E+04 -3.89278E+03  1.77428E+03 -1.89640E+04
  7.40296E+03 -8.37442E+03  1.19117E+04 -9.21580E+03  1.04668E+04  3.74174E+03 -2.87493E+03  6.93970E+03
 -5.38060E+03  7.76275E+02 -2.42179E+03  6.35722E+03  9.09926E+03 -9.14976E+03  1.43205E+04 -3.07179E+03
  1.17488E+04  3.89009E+02  8.42621E+03  5.01127E+03  9.25144E+03  1.19569E+04 -2.04516E+03  1.13486E+04
 -1.20221E+04  5.38082E+03 -1.26603E+04 -3.02336E+03 -2.91357E+03 -8.20465E+03 -1.16021E+04 -1.72455E+04
  6.01268E+03 -6.91129E+03  1.56577E+03  9.03945E+02  1.13165E+04  1.75361E+02  7.39254E+03  4.89227E+03
 -1.76237E+02  7.62436E+03 -3.19110E+03 -6.28141E+02  3.46545E+03  1.23239E+03  1.77640E+03 -1.24354E+03
 -4.87394E+03  1.14043E+04 -6.12221E+03 -1.39514E+03 -7.13156E+03  3.36446E+03 -1.38250E+04 -1.13696E+04
 -7.88500E+03 -1.02716E+04  5.76326E+03 -2.09097E+04  1.32007E+04 -1.36492E+04  2.66724E+04 -6.51666E+02
  1.82249E+04  8.91914E+03  1.24271E+04  9.38568E+03  5.70524E+03  1.31637E+04 -1.39592E+04  6.92181E+03
 -1.29880E+04  1.12490E+04 -9.28228E+03 -1.61031E+03  1.07262E+03 -7.82497E+03 -3.00782E+03 -2.30963E+03
 -2.92541E+03  8.41703E+03 -4.96162E+03  3.29032E+03 -2.27312E+03 -6.62026E+02  3.97688E+03 -1.14896E+03
  6.03216E+03 -3.20694E+03  1.42492E+04 -5.39202E+03  5.62164E+03  5.09634E+03 -4.36635E+03  1.52719E+04
 -1.06087E+04  2.43941E+04 -2.03647E+04  1.25268E+04 -1.58097E+04 -2.81166E+03 -5.94686E+03 -1.79943E+04
 -1.73077E+03 -9.96896E+03  3.11233E+03 -1.22010E+04  5.82714E+03 -1.13179E+04  1.12803E+04 -5.00283E+03
  1.36097E+03  9.96987E+03 -1.89399E+03  8.51681E+03  4.43430E+03 -7.58902E+03  1.71723E+03 -2.81943E+03
  5.63049E+03 -1.21397E+04  1.20698E+04 -3.73195E+02 -6.75593E+03  9.77272E+02 -1.47607E+03  9.80626E+03
 -1.02437E+04  5.35948E+03 -9.30737E+03  6.65349E+02 -8.50977E+03 -1.29783E+04  1.99924E+03 -1.02267E+04
  1.11474E+03 -8.59734E+03  1.69726E+04  6.55970E+02  1.93994E+04  9.41625E+03  8.70648E+03  7.80307E+03
  7.00716E+03  1.80937E+04 -3.07884E+03  7.25662E+03 -5.99934E+03  4.22511E+03 -5.49136E+03 -2.82936E+03
 -4.57553E+03  4.05698E+03 -3.00944E+03  3.95409E+03 -8.35030E+03  3.65664E+03 -9.84308E+03  2.59143E+03
 -1.31805E+04 -2.60455E+03 -5.40244E+03 -1.42132E+04  4.84433E+03 -1.57846E+04  9.22686E+03 -6.01675E+03
  1.43682E+04  5.15168E+03  8.24037E+03  3.39881E+03 -6.69403E+03  9.69500E+03 -9.34942E+03  8.29189E+03
