 $NMID ID='MM_0lb_SNR50_12hz_g45_88.RAW', FMTDAT='(8E13.5)'
 TRAMP=1., VOLUME=1. $END
  3.13077E+05 -8.09544E+02  3.37929E+05  2.48211E+05  8.30550E+04  3.39178E+05 -1.29871E+05  2.49473E+05
 -1.90424E+05  9.07480E+04 -1.14532E+05 -3.43802E+04  7.34761E+03 -5.00148E+04  5.01875E+04 -3.07786E+03
  3.23467E+04  5.29148E+04 -1.46995E+04  7.46272E+04 -6.27347E+04  6.78229E+04 -8.90491E+04  3.56226E+04
 -7.93424E+04 -1.00951E+04 -5.74774E+04 -4.74307E+04 -1.01724E+04 -7.19090E+04  2.98163E+04 -4.14140E+04
  3.87445E+04  2.82330E+03  2.03294E+04  4.75356E+04 -3.81517E+04  4.51576E+04 -6.26814E+04  2.68988E+03
 -5.25378E+04 -5.39633E+04 -9.05768E+03 -7.35795E+04  3.27707E+04 -5.56009E+04  5.22738E+04 -1.83860E+04
  4.94331E+04  1.43269E+04  2.93748E+04  2.69866E+04  1.43851E+04  2.68957E+04 -3.58310E+03  3.04015E+04
 -2.53954E+04  7.36940E+03 -1.46537E+04  1.62488E+03  7.31117E+03 -6.68594E+03  1.97673E+04  1.22345E+04
  5.63488E+03  3.80379E+04 -2.84744E+04  4.06820E+04 -6.99738E+04 -3.61720E+03 -5.32846E+04 -3.96583E+04
 -1.22810E+04 -6.58244E+04  4.09508E+04 -4.60780E+04  6.09196E+04 -5.76336E+02  3.56583E+04  3.42789E+04
 -4.12232E+03  3.64235E+04 -2.82396E+04  1.25498E+04 -3.31274E+04 -1.12792E+04 -1.29657E+04 -9.20734E+03
 -8.44226E+03 -1.76698E+04 -4.98930E+03 -1.95203E+04  7.19858E+03 -1.90034E+04  1.69386E+04 -1.26827E+04
  1.03831E+04  2.77463E+03 -6.70287E+03  1.52325E+04 -2.46842E+04 -1.49012E+03 -6.50652E+03 -3.34185E+04
  2.47238E+04 -4.23913E+04  4.37101E+04 -2.48664E+04  4.76020E+04  1.75092E+04  1.19207E+04  3.89356E+04
 -1.30387E+04  3.32048E+04 -2.15029E+04  3.25946E+03 -4.09795E+03 -2.47471E+04  2.30239E+04 -3.50816E+04
  4.02907E+04 -6.10058E+03  3.41733E+04  2.25043E+04  1.40597E+04  4.66906E+04 -1.12187E+04  4.66128E+04
 -2.82168E+04  3.44186E+04 -4.19306E+04  8.04711E+03 -5.03029E+04 -1.67527E+04 -2.98998E+04 -4.30462E+04
  5.40338E+03 -4.51343E+04  3.27898E+04 -1.61072E+04  3.41544E+04  9.84388E+03  2.10241E+03  1.69176E+04
 -1.53058E+04  4.67369E+03 -1.25101E+04 -9.76503E+03  6.79825E+03 -1.19675E+04  1.82586E+04 -1.24887E+03
  1.10390E+04  2.41799E+04 -2.87995E+03  2.80584E+04 -2.26195E+04  1.16498E+04 -2.99240E+04 -2.27937E+03
 -1.98156E+04 -1.36098E+04 -1.38486E+04 -1.98984E+04  1.73861E+03 -2.27725E+04  1.44936E+04 -1.75042E+04
  2.79012E+04 -8.87367E+03  3.51653E+04  9.02866E+02  2.65082E+04  2.08253E+04  5.97262E+03  3.43028E+04
 -1.76716E+04  3.12694E+04 -2.79517E+04  9.04001E+03 -2.08398E+04 -8.28527E+03 -6.62062E+03 -1.33090E+04
  5.86351E+03 -4.23478E+03 -1.14828E+04  7.00526E+03 -1.99484E+04  5.26670E+03 -1.86980E+04 -6.34115E+03
 -1.41379E+04 -1.89018E+04  6.18890E+03 -2.66811E+04  1.99388E+04 -1.69389E+04  1.59345E+04 -2.07194E+03
  1.23883E+04  1.45695E+04 -3.45182E+03  1.96556E+04 -1.78919E+04  1.42073E+04 -2.10334E+04 -5.10986E+03
 -1.82567E+04 -1.55226E+04 -5.46582E+03 -2.24169E+04  6.98642E+03 -1.87737E+04  2.11021E+04 -1.35539E+04
  1.76646E+04  1.81222E+03  9.47023E+03  5.91844E+03  9.79691E+03  5.57242E+03  1.21279E+04 -3.14966E+03
  2.13762E+04  5.52876E+03  1.42095E+04  1.50766E+04  1.46089E+04  2.88516E+04  2.94548E+03  3.46599E+04
 -2.55513E+04  2.88745E+04 -3.58416E+04  8.27924E+03 -3.59050E+04 -2.97236E+03 -3.30200E+04 -2.43141E+04
 -1.33335E+04 -2.79541E+04  1.16729E+04 -2.46347E+04  1.77588E+04 -1.18344E+04  2.23832E+04  1.62093E+02
  4.87535E+03  1.84006E+04 -7.22128E+03  1.15035E+04 -1.84555E+04  4.61298E+03 -1.38753E+04 -1.16196E+04
  3.12234E+03 -1.45264E+04  7.38605E+03 -1.31733E+04  1.13713E+04 -7.19064E+02 -1.65737E+03  9.16319E+03
 -8.10701E+03 -6.42773E+02 -1.15356E+04 -4.36728E+03 -9.18758E+02 -2.09212E+04  1.31086E+04 -1.69042E+04
  1.55840E+04 -6.20203E+03  1.89686E+04  3.98238E+03  1.19475E+04  1.77274E+04  1.06863E+04  1.92022E+04
 -1.94322E+03  2.67101E+04 -1.80268E+04  2.07586E+04 -1.97483E+04  1.93107E+03 -1.18497E+04 -4.55269E+03
 -7.22571E+03 -3.70008E+03  1.79713E+03  2.11823E+03 -5.58868E+03 -1.40882E+03 -4.59059E+03  1.06410E+04
 -1.48912E+04  1.64847E+03 -1.06577E+04 -1.06927E+04 -5.03699E+03 -1.57712E+04  7.32163E+03 -1.57658E+04
  1.34532E+04 -5.11013E+03  1.11446E+04  3.04333E+03  2.40479E+03  3.06889E+03 -7.32977E+03  2.58448E+03
 -4.84251E+03 -8.80522E+03 -3.83791E+03 -1.56409E+04  4.28564E+03 -1.75622E+04  1.30946E+04 -3.93702E+03
  2.24443E+04  5.07827E+03  1.19369E+04  1.02841E+04  8.91045E+02  1.30339E+04 -7.45314E+03  1.29332E+04
 -1.15014E+04  4.11263E+03 -8.16184E+03 -1.94524E+03  1.70806E+03 -3.31295E+03  4.80923E+03 -2.16957E+02
  6.12096E+03  6.52733E+03  6.22835E+03  5.59681E+03 -7.76046E+03  1.08282E+04 -1.18458E+04  3.44855E+03
 -1.05376E+04 -6.43974E+03  6.12691E+03 -1.10098E+04  6.72586E+03 -2.40425E+03  9.86793E+03  2.53901E+03
  2.54949E+03  7.90836E+03 -2.47800E+03  1.09249E+04 -4.15421E+03  6.48701E+03 -7.19178E+03 -3.43271E+02
 -8.93456E+03 -1.17469E+04  1.00980E+03 -1.50237E+04  9.30622E+03 -4.73903E+03  1.46184E+04  2.98853E+03
  1.14999E+04  7.68924E+03  6.85258E+02  7.15413E+03 -8.23791E+03  7.23691E+03 -9.71683E+03  1.79554E+03
 -5.14182E+03 -9.58646E+03 -4.72577E+02 -1.26523E+04  1.69362E+03 -9.95442E+03  4.85623E+03  5.84411E+02
  1.86561E+03 -2.72043E+03 -6.12849E+03 -7.16144E+02 -7.49602E+02 -7.32106E+02  2.63431E+03 -2.67971E+03
  7.67203E+03  1.07349E+03  1.31065E+04  5.35412E+01  9.50528E+03  5.82130E+03  9.80715E+03  1.06782E+04
 -4.99830E+03  1.77690E+04 -1.09553E+04  1.05828E+04 -1.73358E+04  2.73455E+03 -1.15368E+04 -9.41110E+03
  2.31083E+02 -6.96938E+03 -2.42054E+03 -8.05453E+03  2.82504E+03 -3.96025E+03  3.48344E+03 -9.92661E+02
  3.01452E+01 -9.04386E+02  6.15608E+03 -2.09405E+03  5.33115E+03  4.62705E+03  7.49062E+03  5.17043E+02
  8.75017E+03 -1.21054E+03  1.61735E+03  8.43886E+03 -1.62100E+03  7.36155E+03 -9.74536E+03  6.20250E+03
 -9.29679E+03 -4.10408E+03 -1.14347E+04 -7.52578E+03 -1.16408E+03 -1.38829E+04  5.93626E+03 -1.02229E+04
  1.29325E+04 -5.94834E+03  1.90314E+04  3.47432E+02  1.14079E+04  9.36115E+03  2.80874E+03  1.20542E+04
 -2.87605E+03  9.86710E+03 -8.92913E+03  5.49539E+03 -7.71512E+03 -3.88287E+03 -7.15675E+03  4.41790E+03
 -4.61965E+03  6.93913E+02 -8.21916E+03 -2.06152E+03 -2.82690E+03 -6.88095E+02 -1.51820E+04 -2.12292E+03
 -9.46354E+02 -1.16169E+04  6.18229E+03 -8.01449E+03  6.42369E+03 -1.09201E+04  1.37153E+04 -1.92936E+03
  7.99098E+03  3.34786E+03  4.41113E+03  6.92950E+03 -6.61314E+03  1.05427E+04 -8.06729E+03  8.95915E+03
 -8.23242E+03 -3.29542E+01 -9.50136E+03 -1.27142E+04  5.59459E+03 -7.83921E+03  4.16032E+03 -6.45765E+03
  4.24599E+03 -3.82549E+03  5.57030E+03 -3.54507E+03 -1.33100E+03  4.04734E+03 -4.79636E+02  3.34163E+03
  2.34738E+02  4.14404E+03  1.74787E+02  6.85907E+02  8.70692E+02 -3.75635E+02  7.81628E+03  1.91913E+02
 -6.36814E+03  5.25832E+03 -3.03003E+02  9.67823E+03 -1.57048E+04  2.99848E+03 -1.38635E+04 -3.80583E+03
 -2.22810E+03 -8.38820E+03  3.96910E+02 -1.03273E+04  2.10699E+03 -7.41935E+03  8.90354E+03 -4.56613E+03
  8.74741E+03  2.12070E+03  7.77604E+02  4.42240E+03 -4.20534E+03  5.24013E+03 -6.72232E+03  1.23193E+03
  3.18233E+03 -3.55740E+03  3.01359E+02 -6.01097E+03 -8.09445E+02  1.19179E+02  6.65979E+03 -2.91429E+03
 -9.52941E+02  2.35553E+03 -5.97829E+03  7.18914E+02 -9.18772E+02  1.28395E+03  1.54064E+03  1.34214E+03
  8.73281E+00 -3.01023E+03  4.31709E+03  5.09144E+03 -2.61106E+03  1.49862E+03 -2.17917E+02  7.07824E+03
 -7.87745E+03  1.04503E+03 -2.21665E+03 -8.23806E+02 -4.95713E+03 -9.22459E+02 -5.50075E+02  1.11114E+03
 -2.11501E+03 -2.01479E+03  6.12390E+03 -2.25569E+03  7.15925E+02  1.01352E+03  1.85424E+03  5.26709E+03
 -2.86574E+03 -1.66152E+03 -3.67665E+03 -5.84901E+02 -3.45507E+03 -3.24099E+03  3.67885E+03 -9.99055E+03
  3.72328E+02 -6.09731E+03  5.10481E+03 -1.16067E+03  3.25290E+03  9.68066E+02  4.83387E+03  5.22438E+03
 -1.47997E+02  4.96822E+03 -4.15508E+03  1.28067E+02  8.32793E+03 -8.73537E+03  7.42155E+03 -3.41314E+03
  2.41918E+03  3.98363E+02  9.94732E+03  1.19862E+03  7.47199E+02  5.36490E+03 -3.98120E+03  2.01426E+03
 -1.05206E+04 -3.51073E+03 -1.76566E+03 -9.67194E+02  2.55634E+03 -5.73729E+03 -2.91835E+03  2.01026E+03
  3.05868E+03 -2.42556E+03  1.00085E+04  6.68636E+02  6.41190E+03 -1.61493E+03 -3.03058E+03  9.47785E+00
 -2.84759E+03  1.41377E+03 -8.28851E+02  2.08285E+03 -1.50045E+02 -2.38302E+03 -1.46037E+03  2.75542E+03
 -2.23740E+03  2.31324E+03 -1.20674E+04  7.70730E+02  3.51211E+03  8.20736E+02 -8.24830E+03 -4.73932E+03
 -3.62549E+03 -2.96738E+03  1.96583E+02 -8.18532E+03  1.49907E+03 -4.27047E+03  8.43452E+03  2.75943E+03
  9.65539E+03  4.44367E+03  1.80795E+03  6.00021E+03  7.31570E+02  6.56404E+03 -3.84650E+02  2.87045E+03
 -6.09903E+03  4.08365E+03 -3.73330E+03  1.36587E+03  6.47368E+02  7.61060E+03 -2.37580E+03 -4.98237E+02
 -6.01028E+03  4.07352E+03  1.52045E+03  2.89100E+03  1.27854E+03  2.45644E+03 -1.69478E+03 -7.67479E+03
  2.95838E+03 -4.20408E+03  3.09382E+03 -4.17770E+03  4.91316E+03  3.02782E+03  3.58959E+03  8.39099E+03
  1.33576E+03  2.12615E+03 -7.13374E+03  1.48557E+03 -6.56522E+03 -1.93458E+03 -6.10479E+03 -2.57767E+03
 -1.03908E+03 -1.24035E+04  3.88618E+02  6.79654E+02  5.28195E+03  3.16696E+03  3.37880E+03  2.26460E+03
  3.37134E+03  1.92645E+03 -2.34675E+03  2.76973E+03 -3.93632E+03  4.60299E+03 -2.76602E+01  3.70017E+02
  5.63528E+03 -2.66128E+03  1.19421E+03  2.73648E+03  5.07798E+03  6.22868E+03 -9.23371E+02  3.04031E+03
 -2.38735E+03  1.04122E+03 -1.71455E+03  3.51923E+02 -9.28980E+02 -8.38293E+02  2.44590E+03 -7.16714E+03
  2.18979E+03 -9.23913E+03  4.27820E+02  3.40373E+03  8.60759E+03  1.41371E+03 -1.38720E+03  6.19772E+03
  8.58161E+03 -1.69204E+03 -4.55935E+03  3.01739E+03 -1.30305E+03 -5.11456E+03  5.89707E+02  2.17708E+03
  4.54239E+02 -1.76916E+03  1.63422E+03 -1.76810E+02 -7.99467E+03  3.28823E+03 -8.16205E+03  4.90573E+03
  2.39475E+01 -2.47833E+03 -1.86487E+03  4.46558E+02  1.06608E+04 -2.25888E+03  3.05177E+03 -7.08924E+02
 -1.03275E+03  2.32958E+03 -1.12022E+03  4.73954E+03 -3.26161E+02  5.93240E+03 -5.27115E+03  6.36241E+03
