 $NMID ID='MM_0lb_SNR50_16hz_g45_100.RAW', FMTDAT='(8E13.5)'
 TRAMP=1., VOLUME=1. $END
  3.06110E+05 -6.29889E+03  3.36402E+05  2.49299E+05  8.26053E+04  3.38922E+05 -1.30550E+05  2.54807E+05
 -1.88692E+05  8.46659E+04 -1.09947E+05 -3.21789E+04  3.83850E+01 -5.04655E+04  5.19682E+04  1.87174E+03
  3.12614E+04  5.26071E+04 -1.63195E+04  7.69897E+04 -6.03671E+04  6.14839E+04 -8.77675E+04  3.22475E+04
 -7.46206E+04 -1.56138E+04 -5.74783E+04 -4.62018E+04 -1.28167E+04 -6.83743E+04  2.78065E+04 -5.03702E+04
  3.92400E+04  4.24957E+03  1.80294E+04  4.91756E+04 -3.20747E+04  4.63707E+04 -6.28115E+04 -3.31075E+03
 -5.28371E+04 -6.11585E+04 -6.79765E+03 -7.76572E+04  3.45348E+04 -5.49166E+04  4.38729E+04 -1.79872E+04
  3.95652E+04  9.63166E+03  3.30058E+04  2.30281E+04  1.69801E+04  2.73874E+04 -7.13978E+03  2.74679E+04
 -1.89234E+04  1.18736E+04 -1.78582E+04  4.26024E+02  4.48338E+03 -8.01749E+03  2.29772E+04  4.44392E+03
  6.77370E+03  3.11975E+04 -3.72823E+04  3.73327E+04 -6.15195E+04  1.23498E+03 -5.48803E+04 -4.23153E+04
 -9.41178E+03 -5.61090E+04  3.82369E+04 -4.12404E+04  5.74894E+04 -3.88401E+03  3.14446E+04  3.54047E+04
  1.32277E+03  2.83488E+04 -2.62559E+04  1.52054E+04 -2.58609E+04 -2.26258E+01 -1.36664E+04 -1.13324E+04
 -5.04744E+03 -1.18352E+04 -2.23603E+02 -1.92769E+04  1.22757E+04 -2.24779E+04  1.51992E+04 -1.41208E+04
  1.07152E+04  3.89062E+03 -9.12101E+03  1.63101E+04 -2.20617E+04 -7.10326E+02 -9.70430E+03 -2.98879E+04
  2.18606E+04 -4.19304E+04  4.83294E+04 -1.93183E+04  3.90911E+04  2.03957E+04  1.26424E+04  4.48372E+04
 -1.77986E+04  3.33968E+04 -2.53257E+04  3.60133E+03 -1.09660E+04 -2.66176E+04  2.33281E+04 -2.90136E+04
  3.33948E+04 -6.91022E+03  3.52564E+04  1.99346E+04  1.66769E+04  4.53416E+04 -1.08141E+04  4.43936E+04
 -3.26609E+04  3.22187E+04 -4.05965E+04  8.40815E+03 -4.07323E+04 -1.60826E+04 -2.42051E+04 -4.00708E+04
  5.09681E+03 -3.67038E+04  2.79796E+04 -1.26505E+04  2.40374E+04  1.08285E+04  4.34342E+03  1.90095E+04
 -1.32491E+04  5.37133E+03 -8.64101E+03 -6.67840E+03  7.69162E+03 -1.16535E+04  1.47135E+04  6.61428E+03
  1.28549E+04  1.86905E+04 -8.48282E+03  2.61123E+04 -1.98157E+04  1.19647E+04 -2.62386E+04 -4.01504E+03
 -1.49306E+04 -1.74132E+04 -3.93735E+03 -2.07163E+04  3.44159E+03 -2.02279E+04  1.37425E+04 -1.88728E+04
  2.60925E+04 -1.06635E+04  3.14806E+04  6.87869E+03  2.07194E+04  1.92351E+04  2.55251E+03  3.31878E+04
 -1.56366E+04  3.16857E+04 -2.85861E+04  1.12275E+04 -2.01001E+04 -1.04827E+04 -4.30734E+03 -1.63549E+04
  1.50788E+03 -3.83764E+03 -7.24447E+03  3.12681E+03 -1.24217E+04  7.14124E+03 -1.66080E+04 -1.08965E+04
 -9.61068E+03 -1.74242E+04  3.88028E+03 -2.04058E+04  1.04943E+04 -1.29958E+04  1.81126E+04 -3.09739E+03
  1.00645E+04  1.32066E+04 -1.14020E+03  1.41426E+04 -1.08932E+04  6.14062E+03 -1.33706E+04  9.50751E+01
 -1.48029E+04 -2.03828E+04 -2.72313E+03 -1.93531E+04  5.95653E+03 -1.98369E+04  1.73193E+04 -8.89280E+03
  1.50612E+04  2.38860E+03  1.05946E+04 -1.41163E+03  5.14837E+03  1.65396E+03  1.06828E+04 -3.58185E+03
  1.33139E+04  2.59654E+02  1.66226E+04  1.41209E+04  1.09349E+04  2.81015E+04 -3.19485E+03  3.04796E+04
 -1.64717E+04  2.21033E+04 -2.57878E+04  9.97870E+03 -2.77296E+04 -1.37897E+03 -2.34920E+04 -2.12788E+04
 -1.40710E+04 -2.26568E+04  6.14096E+03 -2.45078E+04  1.60921E+04 -1.14262E+04  1.70687E+04  2.80288E+03
  1.59223E+03  1.60500E+04 -4.95366E+03  8.87942E+03 -1.80717E+04  1.90607E+03 -1.26134E+04 -6.05014E+03
 -3.53058E+03 -1.46527E+04  1.20596E+04 -9.49427E+03  1.11135E+04 -3.16586E+03  1.86587E+03  7.76675E+03
 -7.64694E+03  6.37128E+03 -5.76721E+03 -2.70495E+03 -1.22283E+03 -1.20345E+04  9.48334E+03 -1.04665E+04
  1.43865E+04 -5.31961E+03  1.65382E+04  5.89499E+03  1.22966E+04  1.16257E+04  1.10388E+04  1.60669E+04
 -7.86529E+02  1.83084E+04 -1.38427E+04  1.34039E+04 -1.61225E+04  2.60413E+03 -1.09023E+04 -3.49511E+03
 -4.62241E+02 -8.54661E+03  8.59745E+02  2.13593E+03 -1.25524E+02  2.91740E+03 -4.43807E+03  3.46115E+03
 -8.77746E+03  4.09244E+03 -1.03450E+04 -8.57896E+03 -5.46360E+03 -1.68448E+04  8.09108E+03 -1.29911E+04
  7.59143E+03 -4.08151E+03  9.29221E+03  4.00056E+03 -2.21898E+03  6.04693E+03 -1.42718E+03 -2.36531E+03
 -8.18634E+03 -7.15799E+03 -5.15186E+03 -1.31435E+04  1.86799E+03 -1.08358E+04  1.02693E+04 -3.99873E+03
  1.17697E+04 -8.62252E+02  7.04459E+03  7.31894E+03  5.14395E+02  9.09634E+03 -7.55254E+03  5.62724E+03
 -9.66802E+03  2.64450E+03 -3.23922E+03 -6.23649E+03  1.48294E+03 -3.26294E+03  8.10713E+03  2.35966E+02
  3.18272E+03  3.78045E+03  3.47615E+03  9.74732E+03 -4.69141E+03  1.10342E+04 -5.22489E+03  3.55255E+03
 -4.89537E+03 -8.03267E+03 -1.69094E+03 -7.95120E+03  4.79705E+03 -5.14400E+03  5.81964E+03  2.51756E+03
  1.81187E+03  6.20907E+02 -7.07482E+03  8.40743E+03 -5.09549E+03  1.76358E+03 -6.08533E+03 -4.61108E+03
 -5.92354E+03 -6.24140E+03  2.83446E+03 -9.71939E+03  6.26666E+03 -1.03476E+04  8.74873E+03  2.41141E+03
  8.54156E+03  6.12895E+03 -5.00316E+03  8.65533E+03 -5.46817E+03  7.30730E+03 -6.33741E+03 -4.60500E+03
 -2.18042E+03 -5.35795E+03 -3.37567E+03 -7.01301E+03  1.30210E+03 -9.14354E+03  2.25610E+03 -3.19975E+03
  8.61079E+02  4.26457E+02  1.75340E+03  2.88834E+03  1.77954E+03 -1.16963E+01 -1.20873E+03 -1.29797E+03
  6.33441E+03  1.41673E+02  1.10654E+04  1.22130E+03  1.18667E+04  7.34159E+03  6.88802E+03  6.14069E+03
 -6.42633E+03  1.23715E+04 -1.15197E+04  8.57037E+03 -8.62485E+03  1.10701E+03 -8.38251E+03 -3.91845E+03
 -8.01309E+03 -9.87682E+03 -5.63822E+03 -6.12686E+03  3.50645E+03 -5.43942E+03  4.18472E+03 -2.28171E+03
 -2.22553E+03 -3.33131E+03  4.08040E+03 -1.08011E+03 -4.55218E+02 -2.87281E+03  6.38981E+03 -1.16266E+03
  7.39202E+03  1.19353E+03  1.80157E+03  1.64073E+03 -8.45990E+03  2.82515E+03 -8.89517E+03  6.32270E+03
 -3.40798E+03  1.56978E+03 -1.45358E+03  9.67493E+01 -2.98206E+03 -6.48223E+03  4.79566E+03 -1.09713E+04
  4.25003E+03 -6.04518E+03  8.75091E+03 -3.00183E+02  7.69836E+03  8.74046E+03 -2.47187E+03  8.95712E+03
 -8.87692E+03  6.48994E+03 -5.02075E+03  3.68792E+03 -3.26528E+03 -7.13664E+02  3.88089E+01  2.49573E+03
  6.83486E+02 -2.00177E+03 -1.74927E+03  2.75598E+03 -4.56156E+03 -5.94896E+02 -2.72159E+03  1.56549E+03
  3.34544E+02 -6.62931E+03  2.51218E+03 -5.38135E+03  2.09811E+03 -9.38386E+03  7.21420E+03  3.69003E+02
  8.75597E+03  7.53458E+03 -3.77427E+03  3.78350E+03 -3.77300E+03  6.99721E+03 -5.24409E+03  5.26917E+03
 -8.73715E+03 -4.91264E+02 -9.06359E+03 -3.69981E+03  1.85017E+03 -7.35787E+03  1.39251E+03  1.85361E+03
  1.70683E+03  1.48157E+02  1.11500E+03 -1.80477E+03  2.67223E+03 -7.02748E+02 -1.36366E+03  3.40583E+03
  2.10320E+03  2.19988E+03  2.93529E+03 -1.78044E+02  8.48700E+02  2.74009E+03  3.63615E+03  2.81576E+03
 -2.19111E+03  8.72821E+03 -1.19138E+03  3.81241E+03 -5.28343E+03  5.06608E+03 -5.18337E+03 -5.97104E+03
  1.81589E+03 -8.94009E+03  1.81277E+03 -8.83059E+03 -6.88834E+02  2.39551E+02  2.94897E+03 -8.08622E+02
  1.11344E+03  3.73932E+03  3.84581E+03 -1.86748E+02  1.05004E+03  4.16505E+03 -2.98143E+03 -2.86230E+03
 -3.46220E+03  1.72090E+02  4.34271E+03 -2.92248E+03  1.68887E+03 -4.89630E+03  1.39920E+03  1.34096E+03
  1.18977E+03  5.82496E+02  6.32143E+02 -4.51459E+03 -1.69755E+03  2.93688E+03  1.89700E+03 -2.83023E+02
 -2.66013E+03 -2.53658E+03 -1.56391E+03 -7.17113E+02  3.61958E+03  3.16767E+03 -1.62608E+03  1.98204E+03
 -2.07714E+03 -9.43046E+02 -6.32605E+03  2.69867E+03 -1.55678E+03 -3.91662E+03 -1.43296E+03  2.29285E+03
  5.07730E+03 -4.54191E+03  2.40337E+03  5.24738E+02  8.17303E+02  2.92857E+02  2.47596E+03 -3.10199E+03
 -2.13884E+03  2.46412E+03 -3.00632E+03 -3.94839E+03  1.35454E+02 -4.73182E+03  8.76481E+02 -3.51726E+03
  3.71643E+02  9.62118E+02  8.10553E+01  2.40785E+03  2.35744E+03  3.76217E+03 -7.04448E+02 -4.72939E+02
  8.79767E+02  5.06101E+02  5.99024E+02 -1.21408E+03 -1.04800E+03 -3.24357E+02  1.75190E+03 -1.90238E+03
  1.06437E+03  3.28596E+03  2.01302E+03 -1.33109E+03  7.66006E+02  2.77663E+03 -2.67809E+02  3.38479E+03
 -2.89608E+03 -2.06298E+03  1.43852E+03 -8.23421E+01 -3.87632E+03 -1.96067E+03  1.05147E+03 -8.34330E+01
  4.02364E+03 -1.12915E+01 -3.26641E+03  5.47932E+02 -3.13655E+03  5.34283E+03 -7.87790E+02 -1.29501E+03
  5.87319E+02  2.43598E+03  2.04618E+02  3.86309E+03 -4.35094E+02 -2.14105E+03  1.58906E+03 -2.32596E+03
 -9.22411E+02  3.22625E+02  2.73260E+03  4.64809E+03 -1.04126E+03  2.12788E+03 -5.46628E+03 -8.80481E+02
 -3.64950E+02 -9.79766E+02  3.96638E+03 -1.31364E+03  2.84688E+03 -7.73425E+03  2.38976E+03 -2.18975E+03
  1.17303E+04 -3.97362E+03  5.23034E+03  1.73121E+03 -5.73272E+03  2.33637E+03 -2.54652E+03  3.23852E+03
  3.63165E+03 -1.14328E+03 -1.61954E+02  3.10905E+02  4.11754E+03  5.32631E+01 -4.69396E+03 -1.60906E+03
  1.91912E+03 -2.92575E+03  1.91824E+03  8.29781E+02 -4.10659E+02 -1.80244E+03  9.26856E+02  2.66329E+03
  2.04185E+03 -1.75351E+03  2.61747E+03  6.53551E+02  2.72501E+03  2.68381E+03 -8.26842E+03  2.42322E+03
 -9.80118E+02  6.59851E+02 -1.27454E+03  5.60643E+03  1.39962E+03  8.07291E+02 -1.93674E+03 -3.14876E+02
 -1.68107E+03  4.23264E+02  4.58250E+03  2.43188E+03  2.46931E+03  1.12074E+03  5.28813E+03  3.36455E+03
  1.83228E+03 -1.70323E+03  1.06878E+03  1.76307E+03 -1.22767E+03  2.67230E+02  2.59992E+03  2.51669E+03
  2.03444E+03 -7.76041E+02  6.85200E+02  1.30058E+03  2.30962E+03 -1.33852E+02  4.50610E+03  1.01628E+02
 -1.06621E+03  1.97392E+03 -3.41841E+03 -6.91244E+02  6.29809E+01 -3.70807E+03 -1.53977E+03 -4.62109E+03
  4.01217E+03  1.92997E+03 -1.45257E+03 -1.99920E+03 -9.31910E+02 -3.32649E+02 -6.52099E+02  4.35992E+03
  1.48093E+03  4.25713E+03 -1.52095E+03 -6.08229E+02  1.81159E+02  3.99361E+02 -2.47015E+03  4.77535E+03
 -1.60404E+03 -3.65224E+02 -8.90722E+02 -2.84495E+03 -3.23498E+03 -2.12567E+02 -1.89882E+02 -1.46841E+03
 -2.06188E+03 -1.68593E+03 -4.63859E+03 -2.78109E+03 -3.46635E+03 -2.91875E+03  6.26151E+02 -2.08046E+03
 -3.21150E+03 -2.47361E+03  7.66711E+02  6.65133E+02  1.78804E+02  1.79146E+02 -3.16019E+02 -2.81457E+03
