 $NMID ID='MM_0lb_SNR50_15hz_g40_84.RAW', FMTDAT='(8E13.5)'
 TRAMP=1., VOLUME=1. $END
  3.08752E+05 -2.92691E+03  3.38349E+05  2.45687E+05  8.32446E+04  3.39180E+05 -1.29116E+05  2.51164E+05
 -1.96156E+05  8.51725E+04 -1.09333E+05 -3.23194E+04  1.18275E+03 -4.77491E+04  5.43001E+04 -3.82008E+03
  3.54368E+04  5.82349E+04 -1.75687E+04  7.47718E+04 -6.37136E+04  5.98092E+04 -7.88321E+04  3.49030E+04
 -7.97335E+04 -1.37556E+04 -5.76078E+04 -5.19237E+04 -1.37854E+04 -7.02530E+04  2.93704E+04 -4.67377E+04
  3.51125E+04  3.36333E+03  1.37777E+04  4.52380E+04 -3.67621E+04  4.78269E+04 -6.45834E+04  3.10309E+03
 -5.31629E+04 -5.48896E+04 -9.70118E+03 -7.76803E+04  3.33764E+04 -5.40933E+04  5.01009E+04 -1.59516E+04
  4.11253E+04  7.09017E+03  3.02808E+04  2.48851E+04  2.00697E+04  3.34857E+04 -3.56336E+03  2.81189E+04
 -2.53880E+04  1.31557E+04 -2.24969E+04 -2.76633E+03  1.20041E+03 -8.09719E+03  2.28755E+04  1.41131E+04
  1.02954E+04  3.82445E+04 -3.15047E+04  3.50005E+04 -6.15555E+04 -4.31496E+02 -5.63599E+04 -4.22626E+04
 -1.32436E+04 -6.29090E+04  3.90773E+04 -4.63185E+04  5.45129E+04 -5.84981E+03  3.49033E+04  3.32548E+04
 -9.64190E+03  3.39834E+04 -2.62470E+04  1.70801E+04 -2.95024E+04 -5.63796E+03 -1.77074E+04 -1.25507E+04
 -9.55627E+03 -1.20153E+04  2.61866E+02 -1.57543E+04  5.65706E+03 -2.54333E+04  1.45908E+04 -1.14746E+04
  1.38276E+04  2.31018E+03 -2.64656E+03  1.13123E+04 -1.73993E+04  2.80037E+02 -9.49535E+03 -3.29879E+04
  2.17760E+04 -3.54261E+04  4.41120E+04 -1.42694E+04  4.20384E+04  1.40179E+04  1.36821E+04  4.27594E+04
 -1.61575E+04  3.51374E+04 -2.06491E+04 -2.35459E+02 -3.61115E+03 -2.95803E+04  2.40210E+04 -3.32410E+04
  3.76962E+04 -7.69150E+03  3.20764E+04  2.27783E+04  1.23980E+04  4.30836E+04 -9.92639E+03  4.71989E+04
 -3.15628E+04  3.17403E+04 -4.01653E+04  5.78564E+03 -4.19318E+04 -1.82605E+04 -2.03949E+04 -3.80310E+04
  6.96212E+03 -3.87357E+04  3.53123E+04 -9.58435E+03  2.81473E+04  1.40059E+04  7.31237E+02  2.42361E+04
 -1.40256E+04  1.01564E+04 -6.08423E+03 -6.29784E+03  8.49493E+03 -3.22506E+03  1.78637E+04  1.03831E+04
  1.27726E+04  1.85991E+04 -6.91160E+03  2.49084E+04 -2.35317E+04  1.13048E+04 -2.57102E+04 -5.93043E+03
 -1.37966E+04 -1.50354E+04 -7.08744E+03 -1.73038E+04  5.20574E+03 -1.99859E+04  1.50731E+04 -1.75972E+04
  2.37354E+04 -1.32482E+04  2.92127E+04  5.96736E+03  2.04810E+04  1.83254E+04  4.25165E+03  3.45055E+04
 -1.49669E+04  2.71225E+04 -2.55714E+04  7.18367E+03 -2.13659E+04 -1.14482E+04  3.66498E+02 -1.42190E+04
  4.88391E+03 -6.29105E+03 -4.75236E+03  5.01240E+03 -1.64581E+04  5.96118E+03 -1.62983E+04 -9.78181E+03
 -8.68481E+03 -1.95738E+04  3.62523E+03 -2.23225E+04  1.20283E+04 -1.80882E+04  1.66449E+04 -3.91490E+03
  1.18277E+04  1.04659E+04  1.18010E+03  1.50635E+04 -1.16089E+04  1.46399E+04 -1.71643E+04 -6.17964E+03
 -1.31126E+04 -1.72578E+04 -6.70459E+03 -1.99813E+04  1.18356E+04 -2.13294E+04  1.76841E+04 -7.51789E+03
  1.70217E+04  1.76853E+03  7.46547E+03  5.74684E+03  4.61210E+03 -3.08618E+03  8.21051E+03  1.50107E+03
  1.31795E+04  7.07804E+03  1.65683E+04  1.45312E+04  1.11192E+04  2.21886E+04 -2.60843E+03  2.93366E+04
 -1.42704E+04  2.58337E+04 -3.21448E+04  8.44081E+03 -2.75038E+04 -5.31267E+02 -2.73955E+04 -1.64053E+04
 -1.24307E+04 -2.67177E+04  5.22127E+03 -2.27945E+04  1.89960E+04 -7.90235E+03  1.92927E+04  3.36907E+03
  4.39872E+03  1.22183E+04 -1.16189E+04  6.80456E+03 -1.52253E+04  3.21165E+03 -1.12019E+04 -1.23943E+04
  1.93124E+03 -1.38587E+04  4.61282E+03 -1.10683E+04  1.03067E+04  1.70661E+02  2.55041E+03  3.98325E+03
 -4.22607E+03  1.40422E+03 -3.03986E+03 -2.79485E+03  2.76286E+01 -1.30420E+04  6.83714E+03 -5.61055E+03
  1.30059E+04 -5.31202E+03  1.79050E+04  4.37970E+03  1.40973E+04  1.25917E+04  5.84858E+03  1.43683E+04
 -1.58051E+03  1.91416E+04 -1.17075E+04  9.63631E+03 -1.75721E+04 -6.78565E+02 -9.65606E+03 -6.67583E+02
 -7.73456E+03 -5.89002E+03  3.35520E+03  6.46061E+03 -5.68301E+03  1.63856E+03 -2.43520E+03  7.89278E+03
 -1.02258E+04 -2.91352E+03 -9.09560E+03 -8.98937E+03 -3.30476E+03 -1.30816E+04  5.63988E+03 -1.24578E+04
  1.09149E+04 -6.30741E+03  6.41147E+03 -4.00026E+02 -3.27659E+03  2.06015E+03 -6.57078E+03  1.36127E+03
 -5.15833E+03 -7.27797E+03 -1.24734E+03 -5.80680E+03  3.56183E+03 -1.25327E+04  7.51547E+03 -1.69355E+03
  1.66995E+04 -8.20768E+02  1.29097E+04  9.16018E+03 -6.85110E+02  7.17806E+03 -5.55994E+03  1.24096E+04
 -7.28476E+03 -2.05894E+02 -2.90591E+03 -3.26925E+03 -5.08096E+02 -2.47070E+03  6.75168E+03 -5.22412E+03
  5.66781E+03  4.72318E+03 -2.35140E+03  8.12574E+03 -1.55770E+03  6.81784E+03 -6.02164E+03  6.52112E+03
 -3.09001E+03 -5.20207E+03 -2.10927E+03 -7.65445E+03  3.64564E+03  2.13584E+03  5.71399E+03  3.77152E+03
  2.32366E+02  5.62228E+03 -1.14099E+04  7.99716E+03 -8.25971E+03  5.37519E+03 -3.78085E+03 -2.65749E+03
 -5.35112E+03 -5.74850E+03  1.71550E+03 -1.01165E+04  1.28424E+04 -1.20323E+04  3.48491E+03  4.93766E+03
  6.54857E+03  1.04775E+04 -3.47494E+02  8.23274E+03 -6.54155E+03  5.40895E+03 -5.71360E+03 -4.60475E+02
 -9.55355E+03 -1.04724E+04 -2.37075E+03 -8.12391E+03  5.27940E+03 -5.25011E+03  1.36829E+03  7.31134E+01
  1.78579E+03 -6.05209E+02  8.74136E+01  1.45319E+03  3.09289E+03 -2.94970E+01  3.28827E+03 -3.74024E+03
  8.64627E+03 -3.98760E+03  9.41393E+03  1.57324E+03  3.01289E+03  4.11744E+03  5.23149E+03  1.09443E+04
 -9.84567E+01  1.72028E+04 -1.41562E+04  1.37983E+04 -1.61374E+04 -9.81974E+02 -7.47260E+03  1.58412E+03
 -2.49708E+03 -1.03468E+04 -2.83790E+03 -4.38124E+03  5.15181E+03 -1.62483E+03  5.67803E+03 -4.33402E+03
  1.34692E+03 -1.62597E+03 -5.34082E+00 -2.31989E+03  3.08451E+03  1.77128E+03  4.87767E+03  4.15707E+03
  7.91434E+03  5.56543E+03  3.49070E+03  7.01555E+03 -1.70932E+03  4.70019E+03 -6.62576E+03  5.70211E+03
 -4.33364E+03 -2.88638E+03 -5.76279E+03 -3.10135E+03 -3.02374E+03 -9.18843E+03  4.73842E+03 -1.10584E+04
  5.66498E+03 -1.18001E+03  9.42038E+03  5.79610E+03  1.14078E+04  4.87348E+03 -3.62207E+03  7.80110E+03
 -6.12848E+03  2.68808E+03 -2.72627E+03 -7.39685E+02  1.79784E+03 -4.37543E+03 -5.47474E+03  1.28011E+03
 -8.03265E+02 -7.23178E+02 -2.12413E+03  5.26091E+03 -8.62576E+02 -2.14384E+03 -4.04294E+03 -4.40517E+03
  5.86471E+02 -2.34439E+03 -4.26432E+01 -8.62844E+03  5.37217E+03 -6.60403E+03  4.50252E+03  8.51586E+02
  8.90498E+03  1.10586E+03  1.67833E+03  7.55629E+03 -4.69763E+03  9.30530E+03 -1.78467E+03  9.83107E+03
 -7.58006E+03  1.64591E+03 -1.93259E+03 -2.84431E+03 -1.26664E+03 -1.12634E+04  3.39573E+03 -5.85445E+03
  3.85981E+03  5.91521E+02 -1.53040E+03  8.41607E+03  2.22484E+03  6.69599E+03  1.57778E+03  9.39765E+02
  5.00949E+03  1.37504E+03 -8.64447E+02  5.76329E+02 -8.65906E+02  2.48760E+03  3.01315E+03  3.87275E+03
 -5.02054E+03  2.10714E+03 -6.21818E+03  3.93671E+03 -8.12524E+03  1.09946E+03 -6.21659E+03  3.06280E+03
 -2.20794E+03 -6.44590E+03 -3.56627E+03 -9.17989E+03  2.47617E+03 -2.57733E+03  7.23957E+03  5.61679E+02
 -1.88472E+02  3.47447E+03  4.17093E+03  6.70705E+03 -1.41697E+03  1.57539E+03  3.29554E+03 -2.87308E+03
 -2.32181E+03 -5.05257E+03  3.56208E+01 -1.28609E+03  2.18531E+03  1.45516E+03  1.21670E+03 -2.04332E+01
 -1.07047E+03  3.41432E+03  1.90116E+03  3.31147E+03 -2.22035E+03 -4.14269E+03 -3.95500E+02 -7.39790E+02
  5.40006E+02  8.74864E+02  5.81160E+03  5.95983E+02  2.38897E+03  1.13567E+03  1.63241E+03  8.44448E+03
 -4.17471E+03  4.46452E+03 -1.79940E+02 -2.94631E+03 -2.32623E+03 -2.04242E+03  3.37697E+03 -1.09150E+03
  2.37915E+03 -2.11354E+03  1.74788E+03  1.83006E+03  7.20650E+03  3.08827E+03  1.68103E+03  2.45721E+03
 -6.48772E+03  3.94371E+03 -2.34317E+03 -1.14494E+02 -9.58887E+02 -4.00939E+03 -1.30150E+03  1.44121E+03
  1.16142E+03 -6.30595E+03  3.39544E+03 -3.82905E+03  9.12759E+02  1.63879E+03 -2.17845E+03  2.89420E+03
 -1.32527E+02 -5.19720E+03 -9.36422E+01  3.05482E+03  1.01315E+03 -3.82039E+03  1.50195E+03  8.62131E+02
  8.88322E+02 -2.09117E+03  5.26147E+03  1.21534E+03  5.22446E+03  3.81792E+03 -8.52879E+02  5.04951E+03
 -2.33943E+03  4.33221E+03 -3.87916E+03 -3.89064E+03 -7.91647E+03 -1.16108E+03 -5.01865E+02  1.61808E+03
  8.54757E+03 -3.48405E+03  3.36289E+03 -3.12975E+03 -1.11305E+03  3.56511E+03 -3.08589E+03  5.87718E+03
  2.15751E+02  5.46605E+03 -4.82657E+02  1.60298E+02  6.38979E+02  5.79601E+03 -3.46121E+03  1.17965E+03
  3.14304E+03  5.54785E+02 -2.55323E+03 -1.81328E+03 -4.87363E+03  1.41903E+03 -2.40650E+03 -6.52751E+03
 -6.90896E+03 -9.69223E+03 -2.44659E+03 -5.86069E+03  1.15865E+03 -2.95235E+03  2.10783E+03  7.13668E+02
  1.13465E+03 -1.62157E+03  3.21345E+03 -8.36690E+02 -1.45311E+03  4.33425E+03 -5.84150E+03 -6.97095E+02
 -2.68681E+03  9.84322E+02  1.17967E+03 -3.21250E+03  2.06338E+03 -4.27477E+02 -1.81897E+03  3.41295E+03
 -3.25929E+03  1.34117E+03  2.03807E+03 -3.27896E+03  4.90440E+01  5.53247E+02 -1.99222E+03  6.22138E+02
  3.78173E+03  2.72545E+03 -8.57400E+02  2.19664E+03  5.26242E+02  3.83096E+03  5.91558E+03  5.63532E+03
 -2.53762E+03  9.00447E+03 -6.31518E+03  3.68099E+03  5.79148E+02 -1.52968E+03 -1.04181E+03 -1.19263E+03
  3.37579E+03  1.63209E+03  9.95422E+02  2.22485E+03 -3.12746E+02 -3.41123E+03  2.01593E+03  3.08610E+03
  4.74862E+03  1.15751E+03  3.88614E+03  2.40958E+03  2.04108E+03  1.69219E+03 -3.36403E+03 -5.93805E+03
  5.43005E+02  2.53703E+03  2.73177E+01 -4.46040E+02  2.80612E+03 -1.21962E+03  2.91120E+02 -2.55448E+03
 -6.05047E+02  3.84507E+03 -3.74129E+03  1.28126E+03 -8.17337E+02 -3.50264E+03 -2.29579E+02 -3.97684E+03
  2.11193E+02 -5.87717E+01 -4.72396E+02 -6.89334E+02 -2.50974E+03  1.24891E+03 -1.13078E+03  2.23210E+02
  8.82018E+02  3.64947E+03 -6.13886E+03  3.44519E+03 -1.58805E+03  1.16545E+03 -1.29167E+03  4.73131E+02
 -4.69555E+03 -1.54458E+03 -4.09978E+03  5.91092E+03  2.23605E+03  9.05716E+02 -4.60042E+03  4.69325E+03
 -4.00954E+03  3.50806E+03 -1.18212E+03 -4.16429E+03  2.02262E+03 -8.57181E+03  1.61312E+03  1.38441E+03
  1.99580E+03  2.07349E+03  2.82728E+03  9.54106E+02 -7.34720E+02  3.70801E+03  2.95201E+02 -2.23117E+02
