 $NMID ID='MM_0lb_SNR50_19hz_g45_86.RAW', FMTDAT='(8E13.5)'
 TRAMP=1., VOLUME=1. $END
  3.11498E+05  2.74118E+02  3.39410E+05  2.51416E+05  8.16764E+04  3.38151E+05 -1.33074E+05  2.49953E+05
 -1.89065E+05  8.48336E+04 -1.14207E+05 -3.28236E+04  5.57325E+03 -4.97964E+04  5.55089E+04 -2.38994E+03
  3.74609E+04  4.97782E+04 -2.06684E+04  7.31504E+04 -6.35939E+04  6.34210E+04 -8.37595E+04  2.96806E+04
 -7.89759E+04 -7.75160E+03 -5.54910E+04 -5.06467E+04 -1.28957E+04 -6.56366E+04  2.69730E+04 -4.36657E+04
  4.36443E+04  5.84893E+03  1.68086E+04  4.64089E+04 -3.64870E+04  5.22978E+04 -6.32981E+04  1.33715E+03
 -5.21113E+04 -5.90337E+04 -6.51652E+03 -8.01398E+04  3.49252E+04 -5.04054E+04  4.68732E+04 -1.52600E+04
  3.88317E+04  1.30701E+04  2.72330E+04  2.19015E+04  1.93562E+04  2.46887E+04 -6.57778E+03  2.90808E+04
 -1.60098E+04  1.23123E+04 -1.74975E+04 -1.89535E+03  2.23858E+03 -6.63844E+03  2.20833E+04  8.71237E+03
  6.95312E+03  3.07085E+04 -2.57729E+04  3.57741E+04 -5.81975E+04 -2.77011E+02 -5.58054E+04 -4.19144E+04
 -1.29786E+04 -5.82781E+04  3.49142E+04 -4.27048E+04  5.59500E+04 -2.42630E+03  3.18223E+04  2.97830E+04
 -6.01270E+03  2.98402E+04 -2.53549E+04  1.03513E+04 -2.53104E+04 -3.47168E+03 -1.35243E+04 -1.04203E+04
 -9.05736E+03 -8.06492E+03 -1.60314E+03 -1.48415E+04  6.55863E+03 -2.43009E+04  1.48892E+04 -1.34638E+04
  1.51918E+04  7.08808E+03 -5.64971E+03  1.26966E+04 -2.08971E+04  1.28977E+03 -9.41041E+03 -3.04523E+04
  2.26475E+04 -3.93866E+04  4.57851E+04 -1.59418E+04  4.27762E+04  2.16797E+04  1.16859E+04  4.35710E+04
 -1.54024E+04  3.33040E+04 -2.20026E+04  1.32546E+03 -8.03448E+03 -3.19355E+04  1.82033E+04 -3.32279E+04
  3.60242E+04 -9.60104E+03  2.67334E+04  2.37936E+04  1.28968E+04  3.90901E+04 -6.11471E+03  4.38735E+04
 -3.34995E+04  3.09689E+04 -3.61646E+04  1.07793E+04 -3.86479E+04 -1.27751E+04 -2.27094E+04 -3.30168E+04
  5.14664E+03 -3.56936E+04  2.68459E+04 -1.19462E+04  2.74519E+04  8.32927E+03  4.46461E+03  1.59979E+04
 -1.66580E+04  9.08654E+03 -1.04024E+04 -6.44881E+03  3.69837E+03 -9.13878E+03  1.94719E+04  1.81558E+03
  1.30037E+04  2.44318E+04 -6.82048E+03  2.59511E+04 -2.20776E+04  5.11344E+03 -2.14531E+04 -4.96808E+03
 -1.80993E+04 -1.52062E+04 -1.80975E+03 -2.15424E+04  2.22820E+03 -1.71974E+04  1.05690E+04 -1.26833E+04
  2.60896E+04 -9.77779E+03  2.85712E+04 -2.58095E+03  1.96722E+04  1.91632E+04  3.91679E+03  2.78600E+04
 -1.74249E+04  3.03325E+04 -2.53192E+04  8.40786E+03 -2.33178E+04 -7.87859E+03 -6.02962E+03 -1.42038E+04
  4.14232E+03 -2.93249E+03 -2.67104E+03  4.88265E+03 -1.17749E+04  7.31975E+03 -1.41021E+04 -1.81680E+03
 -5.44609E+03 -1.43004E+04  5.72190E+03 -1.85255E+04  1.20878E+04 -9.21715E+03  1.53731E+04  1.52182E+03
  1.02852E+04  1.13550E+04 -1.80735E+03  1.47080E+04 -1.20889E+04  1.06967E+04 -1.16705E+04 -6.75322E+03
 -1.16662E+04 -1.20886E+04  2.01547E+02 -1.96334E+04  1.36641E+04 -1.80101E+04  1.53751E+04 -5.72243E+03
  1.12666E+04  1.59179E+03  9.31335E+03  4.02555E+03  5.63179E+03 -6.15506E+01  1.06777E+04 -2.56406E+03
  1.78612E+04  3.54128E+03  1.05096E+04  1.51360E+04  8.87490E+03  2.20063E+04 -9.41081E+03  2.59327E+04
 -1.53988E+04  1.36209E+04 -2.42928E+04  1.15551E+04 -1.98981E+04 -2.95792E+03 -1.89377E+04 -1.55665E+04
 -8.41936E+03 -1.70123E+04  6.31452E+03 -1.99379E+04  1.59470E+04 -1.23868E+04  1.41007E+04  3.33689E+03
  8.51828E+03  8.84204E+03 -7.61852E+03  1.12797E+04 -8.72427E+03  7.75360E+02 -8.37712E+03 -8.10663E+03
  1.25072E+03 -1.10385E+04  9.91395E+03 -9.71195E+03  1.44234E+04 -2.13488E+03  1.60729E+03  6.41554E+03
 -4.19350E+03  5.97881E+02 -1.37077E+02 -6.19149E+03  1.94370E+03 -1.01354E+04  6.12925E+03 -1.04013E+04
  8.68846E+03 -1.11251E+03  7.67572E+03  8.42867E+02  8.05412E+03  1.02721E+04  2.64374E+03  1.49952E+04
 -2.96996E+03  1.14507E+04 -1.13345E+04  1.38239E+04 -1.07088E+04  2.97180E+03 -8.01126E+03 -1.69833E+03
 -5.67280E+03 -5.42723E+03  4.15097E+03  9.74314E+02  5.90644E+02  2.09825E+03 -2.45779E+03  7.40020E+02
 -4.95324E+03 -2.41374E+03 -8.44514E+03 -4.09230E+03  4.14027E+01 -1.02341E+04 -5.57829E+02 -4.34463E+03
  6.00336E+03 -3.14642E+03  2.76484E+03 -7.98059E+02  1.15744E+02  5.01713E+03  7.36499E+02 -2.09490E+02
 -3.82564E+03 -4.48755E+03  2.64235E+03 -6.83775E+03  6.71972E+03 -6.60904E+03  1.18028E+04 -2.72375E+03
  1.04929E+04 -2.66189E+03  4.61415E+03  9.17436E+03  9.49609E+02  1.05004E+04 -4.93485E+03  8.38870E+03
 -4.15628E+03  2.96143E+03 -7.12142E+02 -2.30276E+02  2.87132E+03 -4.08705E+03  8.14603E+03 -2.75841E+02
  5.55533E+03  2.05616E+03 -4.60624E+02  4.32652E+03 -9.59351E+02  7.14914E+03 -6.96321E+03  5.23761E+02
 -2.56104E+03 -2.19559E+03  8.14128E+01 -3.92809E+03  5.42225E+03 -3.39035E+03  3.61066E+03  3.98067E+03
  1.76116E+03  1.83363E+03 -4.94159E+03  3.92137E+03 -6.37854E+03  7.93115E+03 -2.75149E+03  1.48506E+03
 -5.58752E+02 -2.84406E+03  3.60356E+03 -7.12127E+03  9.12872E+03 -5.95468E+03  3.49422E+03  8.57596E+02
  4.81810E+03  3.85654E+03 -2.55772E+03  7.11401E+03 -2.12090E+03  4.59985E+03 -1.26461E+03 -2.07159E+03
 -5.31402E+03 -7.31611E+03 -6.36442E+02 -5.85520E+03  1.19953E+02 -3.92564E+03 -4.11129E+02 -5.27503E+02
  3.95642E+03 -2.75352E+02 -4.69537E+03 -1.05743E+03 -1.35263E+03 -3.55262E+02 -2.51268E+03 -7.13399E+02
  1.17886E+03 -2.60288E+03  3.27371E+03 -2.61073E+02  1.15164E+03  7.32113E+03  1.13467E+02  5.98428E+03
 -3.89043E+02  4.50626E+03 -7.75171E+03  2.39738E+03 -1.30042E+04  4.70490E+03 -8.87422E+03 -1.21322E+03
 -2.82695E+03 -2.55948E+03  2.47456E+03 -1.70871E+03  2.74934E+03 -4.84529E+03  1.17660E+03 -1.85324E+03
 -2.16079E+02 -4.31763E+03  7.43393E+02 -1.61990E+03  6.27489E+03 -2.57511E+03  8.57433E+03  6.73437E+02
  5.64170E+03  1.26952E+02 -1.25908E+03  2.49460E+03 -1.25206E+03  5.83254E+03 -8.76477E+02  4.18224E+03
 -8.26191E+03  2.53388E+03 -6.16901E+02 -5.61719E+03  2.85388E+03 -4.34396E+03  9.36236E+02 -2.58207E+03
  3.23126E+03  2.14253E+02  7.14132E+03 -1.42041E+02  3.22437E+03  5.29667E+03  1.50552E+02  4.82175E+03
  4.11117E+02  4.21662E+03 -1.67703E+03  1.79316E+03  1.42722E+01 -2.38180E+02  3.81682E+02 -1.55508E+03
 -1.54375E+03  7.30974E+02  6.54153E+02  3.23331E+03 -5.23860E+03  1.34972E+03 -2.27516E+03 -2.98357E+02
 -2.61208E+03 -2.45464E+03 -1.09379E+03 -4.85461E+03 -2.71751E+03 -9.16404E+03  2.20524E+03 -1.07563E+03
  5.80208E+03  2.29774E+02  9.00745E+03  2.10263E+03 -1.93732E+03  3.58691E+03 -3.93281E+03  2.57508E+03
 -3.77055E+03  7.07824E+02 -5.24718E+03 -6.68603E+02 -5.16865E+02 -8.75924E+03  4.79580E+03  1.14346E+03
  2.68941E+03 -1.17870E+03 -1.15939E+02 -4.20435E+02 -1.56493E+02 -2.39994E+03  1.67891E+03  2.46127E+02
  1.24579E+02  3.88033E+03 -9.63821E+02 -8.46657E+02  6.14993E+03  1.10669E+03  9.34333E+02  4.38238E+03
 -1.01895E+03 -1.45236E+01 -2.64381E+03  6.28093E+03  1.27389E+03 -1.42057E+03 -3.83698E+03  1.98969E+03
 -5.21485E+03 -3.00325E+03 -3.04683E+02 -4.48631E+03 -1.78376E+02 -4.67737E+03  6.43927E+03 -1.19292E+03
  1.93429E+03  2.17747E+03 -2.40524E+03  5.76698E+03 -1.58061E+03  3.16719E+03 -2.29089E+02  3.18885E+03
  1.03320E+03 -1.39700E+03  8.89086E+02 -7.90928E+03  2.71707E+03 -5.64377E+03 -1.90908E+03  9.60278E+02
  7.38348E+03  2.01709E+03  1.03239E+03 -8.36151E+02 -1.00834E+03  7.10951E+01  1.85228E+03  1.67257E+03
  3.66643E+03 -4.40969E+03  1.19998E+03 -1.47381E+03  2.11182E+02  1.83983E+03  4.74822E+02  5.26675E+03
 -2.06510E+03  1.73271E+03 -9.80299E+02 -6.02219E+02  1.08254E+03 -2.20191E+03 -2.10268E+03 -2.01143E+03
  4.21420E+03 -1.05295E+03  4.01893E+03  1.62312E+03  1.93327E+02  4.60437E+02 -7.43914E+02 -1.89363E+03
 -1.88380E+03  1.59443E+03 -1.72873E+02 -1.55934E+03 -1.76611E+03 -3.23809E+03  5.31650E+02  1.42169E+03
  1.89510E+02  1.22052E+03  3.89400E+03 -7.36102E+02  4.77309E+03  7.25914E+02 -5.83010E+02 -2.02430E+03
 -9.93940E+02  2.46524E+02  1.28983E+03  8.55290E+02 -4.62959E+02 -2.26673E+03  2.64006E+03 -1.27919E+03
 -6.35133E+02 -5.77209E+02  1.51833E+03 -2.50318E+02  2.59137E+03  5.52928E+03  1.40792E+03  2.76353E+03
  1.10803E+03  3.35159E+03 -3.39823E+03 -1.05241E+02 -1.57181E+03 -3.70289E+03  4.14595E+03 -2.86345E+02
  1.30422E+03 -1.19149E+03  1.53202E+03  1.00798E+03 -2.24188E+02 -4.60345E+02  7.42372E+02  1.39526E+03
  4.45582E+03 -9.33558E+02 -1.29032E+03 -1.15374E+03  1.51190E+03 -7.32447E+01  1.28395E+02  5.97935E+02
 -2.41391E+03 -2.63911E+02  4.72430E+02 -3.15527E+03 -1.28325E+03 -2.75084E+03 -3.55404E+03 -5.36244E+03
 -1.12330E+03  1.50342E+03 -3.78657E+03 -8.65413E+02 -9.75260E+02 -3.44973E+03  3.13671E+03 -1.71144E+03
  2.78328E+03  2.81748E+02  2.67473E+03  1.77123E+03  1.36139E+03  3.00455E+03  6.98604E+02  7.15104E+03
  1.77681E+03 -1.06043E+03 -9.51418E+02 -3.89373E+03  1.73098E+03  4.07135E+03  2.28779E+03 -1.17685E+03
 -7.27818E+02 -3.83600E+03  8.07271E+02 -2.89780E+03 -2.29607E+03 -1.15668E+03  4.06150E+03 -3.48186E+03
 -2.78092E+03 -6.58934E+02  7.78883E+02  1.93034E+03  4.28464E+03  1.35267E+03 -1.07075E+03  4.51573E+03
 -6.12660E+03  7.51221E+02 -4.48153E+03  2.88003E+03 -1.76772E+03 -1.49266E+03 -2.44438E+02 -1.98394E+03
  5.85231E+02 -8.10189E+02 -1.05300E+03 -1.43691E+03  1.95557E+03 -2.00313E+03 -4.36495E+02 -1.52776E+03
  2.57184E+03  4.48175E+02  3.57942E+03  3.73151E+02 -6.65622E+02  3.25699E+03 -2.29670E+03  2.38539E+03
  4.27401E+02  7.47956E+02  4.78987E+03  2.49655E+03 -2.46487E+03 -2.32310E+03  3.78471E+03 -8.01278E+02
  5.74669E+03  3.89812E+03 -1.15053E+03  1.99300E+03 -3.15952E+03  3.96359E+03  1.05997E+03 -1.45803E+03
  7.76210E+02 -3.75787E+03  2.45320E+03 -3.62705E+03  3.64800E+01  1.71953E+03 -1.45451E+03  3.55234E+03
 -2.62413E+03  2.19374E+03 -3.20167E+02  2.10435E+03  3.99713E+03 -3.76138E+03 -8.55045E+02  5.92113E+01
 -6.78687E+02  1.81576E+03  1.93352E+03  3.70312E+03 -4.33647E+03  1.18511E+02  9.64666E+01  2.04638E+03
  1.66762E+03  3.28426E+03 -3.11143E+03 -2.42766E+03  9.62190E+02 -6.38610E+03  2.82732E+01 -8.83660E+02
 -1.25552E+03 -5.03376E+02 -3.58883E+03 -1.70086E+03  3.06491E+03  1.88678E+03  1.43905E+02  7.49246E+02
