 $NMID ID='MM_0lb_SNR50_12hz_g60_83.RAW', FMTDAT='(8E13.5)'
 TRAMP=1., VOLUME=1. $END
  3.14503E+05  2.63507E+03  3.40329E+05  2.47687E+05  8.33580E+04  3.38769E+05 -1.38913E+05  2.55076E+05
 -1.88545E+05  8.46759E+04 -1.10824E+05 -3.51037E+04 -4.67858E+03 -4.99017E+04  5.37143E+04 -2.56861E+03
  3.60016E+04  5.40350E+04 -1.68792E+04  8.04093E+04 -6.50232E+04  6.32258E+04 -7.94868E+04  3.69115E+04
 -7.96500E+04 -1.48356E+04 -5.39713E+04 -5.18864E+04 -1.64267E+04 -7.25260E+04  2.87676E+04 -4.34680E+04
  3.98733E+04  1.05794E+03  9.67595E+03  4.59970E+04 -3.08081E+04  4.91828E+04 -7.08958E+04  2.31380E+03
 -5.95877E+04 -5.60595E+04 -9.37927E+03 -7.83684E+04  3.46836E+04 -5.92020E+04  5.30971E+04 -1.32832E+04
  4.05185E+04  9.01012E+03  3.43497E+04  2.31081E+04  1.53203E+04  2.72626E+04 -3.70580E+03  2.66226E+04
 -2.24520E+04  1.57606E+04 -1.46857E+04 -5.46439E+03  7.79355E+03 -7.00011E+03  2.02373E+04  1.47511E+04
  7.14166E+03  3.62354E+04 -2.95748E+04  3.91042E+04 -5.94450E+04 -1.78414E+03 -5.65266E+04 -4.35714E+04
 -1.32387E+04 -6.27476E+04  3.74434E+04 -4.20222E+04  6.05984E+04 -1.02360E+03  4.00420E+04  3.39626E+04
 -5.78661E+03  3.58225E+04 -3.04344E+04  1.69480E+04 -2.86605E+04 -5.85907E+03 -1.66759E+04 -5.69746E+03
 -3.89331E+03 -1.78160E+04  3.55775E+03 -2.37263E+04  3.69368E+03 -1.98446E+04  1.83482E+04 -8.16114E+03
  1.56224E+04  6.69355E+03 -1.14758E+04  4.96731E+03 -2.26239E+04 -8.96741E+03 -8.20718E+03 -4.29170E+04
  2.76374E+04 -4.48646E+04  5.01038E+04 -2.76191E+04  4.98306E+04  2.50141E+04  1.49959E+04  4.73594E+04
 -1.38626E+04  3.58388E+04 -2.47119E+04 -2.56090E+03 -7.64931E+03 -3.43527E+04  2.46534E+04 -3.33754E+04
  4.03736E+04 -1.33004E+04  3.70986E+04  2.59306E+04  2.19122E+04  5.38874E+04 -9.01072E+03  5.20736E+04
 -3.93892E+04  3.08320E+04 -4.82931E+04  5.98608E+03 -4.68197E+04 -8.99111E+03 -2.59357E+04 -4.14238E+04
  6.42592E+03 -4.55294E+04  3.40228E+04 -2.03997E+04  3.41412E+04  1.19793E+04  5.18888E+03  2.39847E+04
 -1.85207E+04  7.25083E+03 -1.66954E+04 -6.92106E+03  4.96667E+03 -9.88479E+03  2.03941E+04  1.01794E+04
  1.26707E+04  2.05346E+04 -6.06260E+03  3.02857E+04 -2.55149E+04  1.23068E+04 -2.77028E+04 -1.43926E+03
 -1.89711E+04 -1.57880E+04 -9.05714E+03 -2.36576E+04  6.20010E+03 -2.43792E+04  1.44429E+04 -2.31692E+04
  3.51556E+04 -1.63402E+04  4.13371E+04  3.15291E+03  2.40522E+04  2.49733E+04  3.14771E+03  4.00468E+04
 -1.99884E+04  3.35453E+04 -2.52213E+04  1.19865E+04 -1.94877E+04 -6.07524E+03 -4.51284E+03 -1.74895E+04
  5.92064E+02 -2.16646E+03 -5.57367E+03  8.82986E+03 -1.69180E+04  3.27161E+03 -1.87253E+04 -7.22823E+03
 -1.52252E+04 -2.27881E+04  9.12675E+02 -2.64392E+04  2.15928E+04 -2.09378E+04  1.91834E+04  4.45635E+03
  1.23703E+04  1.45156E+04 -3.51811E+03  2.22353E+04 -1.56736E+04  1.59542E+04 -2.67518E+04 -1.34428E+03
 -1.86341E+04 -1.25712E+04 -3.31938E+03 -2.98163E+04  1.06911E+04 -2.31986E+04  2.52304E+04 -7.63979E+03
  1.84993E+04 -9.28419E+02  1.91252E+04  9.61845E+03  1.08364E+04 -5.40653E+03  9.85458E+03 -6.14352E+03
  1.72099E+04  3.37888E+03  2.45121E+04  1.35108E+04  1.56324E+04  4.32669E+04 -4.55442E+03  4.20566E+04
 -2.04172E+04  3.42145E+04 -3.29855E+04  1.46624E+04 -3.93866E+04 -2.11758E+03 -3.19407E+04 -1.99358E+04
 -1.55392E+04 -3.63506E+04  9.55052E+03 -3.53071E+04  2.18799E+04 -1.09263E+04  2.48124E+04  6.93843E+03
  1.07497E+04  1.48996E+04 -1.40610E+04  1.28444E+04 -1.92282E+04  1.50466E+03 -1.41742E+04 -1.38857E+04
 -1.36510E+03 -1.45140E+04  1.36397E+04 -7.21583E+03  1.08967E+04 -5.92911E+03  8.00755E+02  5.15330E+03
 -6.86186E+03  3.40388E+03 -1.09484E+04 -1.21300E+04  3.18377E+02 -1.32898E+04  1.32457E+04 -1.51446E+04
  2.22646E+04 -7.08065E+03  2.19840E+04  2.45219E+03  2.26973E+04  1.70665E+04  3.52743E+03  2.90935E+04
 -3.69518E+03  2.73676E+04 -2.32028E+04  2.24520E+04 -1.92967E+04  1.06830E+03 -1.51070E+04 -1.48965E+03
 -8.43923E+03 -7.83761E+03 -2.75622E+03  3.28755E+03 -7.23748E+02  5.96623E+03 -7.20214E+03  1.05481E+04
 -1.54032E+04 -5.45004E+03 -1.37065E+04 -2.16438E+03 -6.01170E+03 -1.34510E+04  4.81751E+03 -1.71084E+04
  1.17043E+04 -2.01033E+03  1.05514E+04  8.35272E+03  2.16148E+03  2.04807E+03 -7.35387E+03 -4.55674E+03
 -3.27225E+03 -9.95066E+03 -1.96902E+03 -9.39553E+03  6.46806E+03 -1.76843E+04  1.70020E+04 -4.24692E+03
  1.76476E+04  5.64808E+03  1.50646E+04  6.81624E+03 -9.25423E+02  1.83174E+04 -1.28875E+04  1.59146E+04
 -1.51774E+04  2.50338E+03 -9.37911E+03 -4.35880E+03  1.44296E+03 -2.76833E+03  1.07482E+04 -1.60014E+03
  8.28131E+03  5.44052E+03  2.15239E+03  1.47275E+04 -1.11219E+04  1.01524E+04 -1.35073E+04  6.98518E+02
 -8.51582E+03 -1.04150E+04 -5.31493E+03 -1.42976E+04  1.33227E+04 -3.03133E+03  6.27084E+03  7.29648E+03
 -2.33302E+03  7.25039E+03 -6.13293E+03  1.34469E+04 -1.21683E+04 -4.54841E+02 -8.97322E+03 -1.69155E+03
 -2.31752E+03 -8.89486E+03  4.83756E+02 -1.24148E+04  1.27395E+04 -1.29217E+04  1.75920E+04  2.82093E+03
  1.28506E+04  1.05036E+04 -9.44003E+02  1.51291E+04 -6.22492E+03  5.31987E+03 -4.91366E+03  5.59993E+02
 -8.74539E+03 -7.59575E+03 -2.60093E+03 -1.10656E+04  3.96537E+03 -6.63316E+03  2.17603E+03 -2.52033E+03
  4.09900E+03  6.53018E+03 -1.85979E+03  5.88273E+02 -2.01607E+03 -5.41110E+03  2.44091E+03 -3.65018E+03
  8.38885E+03  7.81370E+02  7.29343E+03  4.10460E+02  7.76948E+03  8.05747E+03  8.74304E+03  1.56337E+04
 -2.37692E+03  1.51481E+04 -1.20291E+04  1.25512E+04 -2.41422E+04  5.18989E+03 -9.98193E+03 -3.62621E+03
 -1.28361E+04 -1.57650E+04  1.50227E+03 -8.76972E+03 -2.73477E+03 -5.37341E+03  8.73452E+03 -3.03424E+03
 -1.54459E+03  6.65306E+02  1.17965E+03 -2.78546E+03  5.15193E+03  2.80430E+03  8.94097E+03  1.43651E+03
  1.04788E+04  2.44983E+03  4.83871E+03  9.11965E+03 -2.18754E+03  8.46989E+03 -8.07758E+03  6.15822E+03
 -1.09278E+04  1.43267E+03 -7.78193E+03 -5.79626E+03  1.42105E+03 -1.53280E+04  4.51409E+03 -9.25114E+03
  1.19269E+04 -8.10986E+03  9.45782E+03  1.94198E+03  1.23506E+04  1.35759E+04  2.83590E+03  1.40691E+04
 -9.90398E+03  8.07347E+03 -8.40322E+03  1.10933E+04 -5.07342E+03 -4.22585E+03  9.83149E+02  5.33955E+03
 -2.14935E+03 -3.25619E+03 -3.23833E+03  8.30486E+02 -1.98009E+03  3.19143E+03 -3.50820E+03 -1.55941E+03
 -7.85953E+03 -1.21786E+04  6.10880E+03 -7.18815E+03  5.22985E+03 -9.57757E+03  9.73295E+03 -2.99345E+03
  1.10056E+04  1.17606E+04  3.56371E+03  1.14154E+04 -8.17853E+03  1.41333E+04 -5.05300E+03  1.50069E+04
 -9.61212E+03  7.20655E+03 -7.19876E+03 -8.59943E+03 -9.50371E+02 -1.00841E+04  1.18616E+04 -6.42398E+03
  7.12727E+03  7.31596E+02  1.72039E+03  3.89200E+03  4.52359E+02  8.61205E+03  7.21521E+03  1.35897E+03
 -3.90426E+02  2.51797E+03  4.88310E+03  2.58513E+03 -3.25904E+03  4.69642E+03  2.24476E+03  9.33333E+03
 -4.75864E+03  5.16601E+03 -1.35649E+04  1.44218E+04 -9.16958E+03  5.30719E+03 -1.25595E+04  2.77752E+03
 -7.90658E+03 -1.12914E+04 -2.86235E+03 -1.11423E+04  4.84330E+03 -1.03136E+04  5.80764E+03 -3.00478E+03
  5.73548E+03  5.92234E+03  2.05100E+03  8.06590E+03 -6.84021E+03  2.56462E+03 -5.21062E+03  4.94950E+02
  2.50573E+02 -9.80817E+03  3.71023E+03 -3.47714E+03  1.29284E+03  8.40754E+02  5.65840E+03  4.36875E+03
  4.41125E+03  6.91817E+03 -4.94057E+02  3.71160E+03  8.01298E+02  5.81468E+02  3.04583E+02 -3.15207E+03
 -6.38046E+02  2.99621E+03  5.52730E+03 -7.97856E+02  4.38660E+03  6.22976E+03 -8.09861E+02  5.34844E+03
 -6.69742E+03  3.87790E+03 -2.63277E+03 -1.91097E+03 -7.45499E+03 -1.98147E+03 -3.20104E+03 -4.52839E+03
 -4.63866E+03 -4.33708E+03 -3.39952E+03 -2.14805E+03  3.29678E+03  6.17664E+02 -1.68322E+03  3.01985E+03
 -5.07687E+03  2.83774E+03 -5.34132E+03 -7.03911E+03 -2.58971E+03 -7.21345E+03 -1.43822E+03 -1.23358E+04
  4.08426E+02  3.58193E+03  4.80651E+03  3.18201E+03  2.70487E+03  2.73197E+03  5.38010E+03  5.99827E+03
  9.58249E+02  2.01607E+03 -2.98096E+03  1.09890E+03  1.17194E+03 -8.85774E+03  3.09446E+03 -3.84405E+03
  9.83317E+03  3.17025E+03  1.22705E+04  1.17175E+04  6.74879E+03  1.66267E+03 -3.90035E+03  6.28291E+03
 -6.12795E+03  3.01921E+01 -5.73554E+03  8.77054E+02 -1.50009E+03 -3.40366E+03  1.48496E+03 -5.19110E+03
  2.59317E+03  3.16426E+03  5.83049E+01  7.70041E+03  1.39452E+03 -1.80409E+03 -6.96623E+02  2.60338E+03
 -4.63806E+03  1.10808E+03 -4.69502E+03 -1.68103E+03 -4.82481E+03 -4.15472E+02  2.86382E+03  2.71622E+03
 -4.26858E+03 -3.75346E+03 -7.85060E+03 -1.05552E+03 -9.20471E+03  1.39293E+02 -1.10296E+04 -7.79540E+03
 -1.25866E+04 -5.68929E+03  1.52427E+02 -9.10556E+03  7.85346E+03 -9.07468E+03  6.32881E+03 -4.23474E+03
  1.15224E+04  1.97119E+03  8.49827E+03  4.47168E+03 -1.86201E+03  5.03731E+03  4.07768E+03 -1.96474E+03
 -3.83756E+03  2.15756E+03 -8.29605E+02  1.52840E+03 -1.81188E+03  3.56310E+02 -7.45981E+03  4.90973E+02
 -1.00207E+03  1.45322E+03 -2.31821E+03 -3.89673E+03 -4.49527E+03  1.51498E+03  2.52997E+03 -2.87870E+03
  2.96083E+03  5.81416E+02  4.19640E+03 -1.60655E+03  5.10304E+03 -7.72927E+02  1.88601E+03  9.10022E+03
 -4.18452E+03  3.81833E+03 -7.27989E+03  1.99157E+03 -7.63519E+03  1.44037E+03 -1.91861E+03 -1.83811E+03
 -7.21495E+03 -3.23604E+03 -2.32494E+02 -5.72934E+03  1.01035E+04 -1.64037E+03  6.22490E+03 -7.63092E+02
  4.07101E+03  1.78342E+02 -7.59804E+03 -1.77311E+03 -3.98991E+02 -4.96463E+03 -1.38281E+02 -8.01941E+02
  3.67180E+02  5.11118E+03  4.30079E+03 -4.01034E+03  1.06346E+03  4.53678E+03  1.25594E+03  6.99269E+03
 -1.98143E+03  5.30741E+03  8.72715E+01 -1.19413E+03 -7.83016E+02  1.64745E+03  3.25904E+03 -5.90024E+03
 -2.15834E+03 -2.65619E+03  7.87235E+02 -5.13443E+03  3.31889E+03  1.30012E+03 -6.68165E+02  4.56070E+03
  7.16882E+02  3.83785E+03 -2.54880E+03  7.64250E+03 -6.37924E+01  1.05164E+03 -1.98828E+03  1.27684E+03
  2.86596E+03 -6.67787E+03  3.21495E+03 -7.55552E+03 -7.76031E+03 -3.44185E+03 -5.24465E+03 -2.62552E+03
 -4.39209E+03 -3.90442E+03  6.53885E+02 -3.58030E+03  5.53395E+03 -4.02022E+03  2.63492E+03 -6.93138E+03
  7.32435E+03  4.25762E+03  3.51325E+03  4.59242E+03 -3.69568E+03  3.17712E+03  2.52905E+02 -1.58170E+02
