 $NMID ID='MM_0lb_SNR50_19hz_g40_25.RAW', FMTDAT='(8E13.5)'
 TRAMP=1., VOLUME=1. $END
  3.07177E+05  3.11637E+03  3.37437E+05  2.51620E+05  8.46043E+04  3.32358E+05 -1.32993E+05  2.48994E+05
 -1.88771E+05  8.33668E+04 -1.12200E+05 -3.40488E+04  3.87007E+03 -5.06226E+04  5.57178E+04  4.92325E+03
  3.68087E+04  5.27020E+04 -1.54936E+04  7.03797E+04 -5.98672E+04  6.23554E+04 -8.03991E+04  2.81609E+04
 -8.21913E+04 -9.27493E+03 -5.92868E+04 -4.76515E+04 -1.34154E+04 -6.74285E+04  2.71757E+04 -4.49854E+04
  3.79898E+04  4.42722E+03  1.57966E+04  4.69241E+04 -3.16852E+04  4.73668E+04 -6.22382E+04 -1.17028E+02
 -5.23576E+04 -5.39270E+04 -5.41948E+03 -7.73100E+04  3.40207E+04 -5.25847E+04  4.91626E+04 -1.54296E+04
  3.72007E+04  1.28591E+04  3.08433E+04  2.32339E+04  1.40550E+04  2.79735E+04 -5.07341E+03  2.50008E+04
 -1.98369E+04  1.29051E+04 -1.93362E+04 -5.94984E+03  3.90021E+03 -6.38645E+03  2.31914E+04  6.16434E+03
  5.57653E+03  3.60936E+04 -3.07149E+04  3.16171E+04 -6.20464E+04  3.52733E+03 -5.59003E+04 -4.28607E+04
 -8.90747E+03 -6.45598E+04  4.06417E+04 -4.55731E+04  5.25814E+04 -3.39002E+03  3.10137E+04  3.21560E+04
 -4.31316E+03  2.80151E+04 -2.51025E+04  1.02707E+04 -2.85374E+04 -1.68352E+03 -1.49357E+04 -1.23362E+04
 -8.05589E+03 -1.46395E+04 -3.67128E+03 -1.41891E+04  8.00580E+03 -2.25996E+04  1.72246E+04 -1.44444E+04
  1.24493E+04  1.87120E+03 -6.21809E+03  1.57688E+04 -1.94935E+04 -3.13688E+02 -8.25074E+03 -3.27280E+04
  2.09926E+04 -4.22525E+04  4.29508E+04 -1.89811E+04  4.06866E+04  1.96389E+04  1.18949E+04  4.40404E+04
 -1.77218E+04  3.11707E+04 -2.95901E+04  1.06644E+03 -5.83932E+03 -2.53332E+04  1.99610E+04 -3.25899E+04
  3.50837E+04 -9.10419E+03  2.96552E+04  2.19128E+04  1.41524E+04  3.76795E+04 -9.04848E+03  4.61186E+04
 -3.07392E+04  2.73371E+04 -3.62325E+04  5.89347E+03 -3.35092E+04 -1.49552E+04 -1.83471E+04 -3.66111E+04
  7.81411E+03 -3.63445E+04  2.96450E+04 -1.45289E+04  2.47449E+04  1.33756E+04  2.38033E+03  1.71446E+04
 -1.30922E+04  9.65988E+03 -1.02482E+04 -5.51598E+03  4.93619E+03 -1.08264E+04  1.57832E+04  6.04045E+03
  1.15149E+04  2.53021E+04 -8.25057E+03  1.94420E+04 -2.03330E+04  8.23989E+03 -2.66264E+04 -9.96630E+03
 -1.85942E+04 -1.62144E+04 -2.83360E+03 -1.82264E+04  8.40681E+01 -1.20753E+04  1.04503E+04 -1.33388E+04
  2.05490E+04 -1.48769E+04  2.68921E+04  1.69150E+03  1.67181E+04  1.49290E+04  8.94759E+03  3.11947E+04
 -1.75075E+04  2.84478E+04 -2.06042E+04  9.33316E+03 -1.52494E+04 -1.04712E+04 -5.14322E+03 -1.29245E+04
  3.44345E+03 -3.13048E+03 -4.09918E+03  9.57711E+02 -1.23146E+04  9.80935E+03 -1.11107E+04 -2.59963E+03
 -6.54501E+03 -1.40431E+04  4.57471E+03 -1.93457E+04  1.64957E+04 -1.51461E+04  1.22784E+04 -5.12578E+03
  3.74720E+03  8.09128E+03  3.83402E+02  1.73366E+04 -7.61059E+03  5.54991E+03 -1.72486E+04 -2.27866E+03
 -9.85254E+03 -1.48050E+04 -2.33084E+03 -1.78595E+04  7.80583E+03 -1.85281E+04  1.46064E+04 -4.97856E+03
  1.49817E+04  3.72339E+03  3.84299E+03  2.60549E+03  3.44928E+03 -5.43585E+02  6.77268E+03  1.50537E+03
  1.51721E+04  2.30586E+03  1.45691E+04  8.65699E+03  7.63571E+03  2.91200E+04 -6.42763E+03  2.76951E+04
 -1.38941E+04  2.08694E+04 -2.24614E+04  9.36427E+03 -2.80428E+04 -3.60404E+03 -2.19488E+04 -1.19343E+04
 -8.76634E+03 -1.86395E+04  2.10582E+03 -1.67535E+04  1.95472E+04 -1.22007E+04  1.62172E+04  5.80730E+03
  4.54334E+03  1.34662E+04 -1.07365E+04  1.30382E+04 -1.44942E+04  3.31085E+03 -1.02566E+04 -8.19233E+03
 -1.92852E+03 -1.14410E+04  4.69467E+03 -1.31672E+04  9.90102E+03  5.45932E+00  5.12146E+03  3.30987E+03
 -4.59884E+03  1.22835E+03 -6.66256E+02 -5.88126E+03  2.58491E+03 -1.16609E+04  7.32670E+03 -5.56490E+03
  1.14575E+04 -7.23486E+03  9.60626E+03  4.50237E+03  1.06980E+04  8.95654E+03  3.65710E+03  1.24509E+04
  2.29804E+03  1.40919E+04 -8.24257E+03  9.72292E+03 -1.18494E+04 -7.00118E+02 -8.48838E+03 -2.28886E+03
 -3.30253E+03 -2.69684E+03 -3.53277E+03  3.86208E+03 -3.90603E+03  1.65719E+03 -1.68949E+03  9.26148E+02
 -6.52550E+03 -1.70887E+02 -8.01251E+03 -5.82555E+03 -2.79950E+03 -9.16070E+03  1.44327E+03 -7.60090E+03
  4.08908E+03 -1.24925E+03  2.61780E+03  1.33240E+03  3.88482E+03 -1.16034E+03  3.01206E+02 -2.09312E+03
 -6.95754E+03 -3.40653E+03 -3.85355E+03 -4.02340E+03  3.21242E+03 -6.80973E+03  1.02411E+04 -3.91998E+03
  1.24722E+04 -1.93244E+03  9.48146E+03  6.96506E+03 -8.77640E+02  7.37235E+03 -3.65817E+03  5.95478E+03
 -3.11154E+03  2.90338E+03 -6.34329E+03 -1.52421E+03  7.60112E+02 -1.32378E+03  2.49716E+03 -2.65131E+03
  3.32791E+03 -1.30495E+03 -1.09642E+03  5.45722E+03 -5.18878E+03  3.21126E+03 -5.12149E+03 -9.98057E+02
 -2.65104E+03 -1.17994E+03 -6.52918E+02 -8.67861E+03  5.96370E+03 -9.49307E+02  3.91710E+03 -1.43668E+03
  6.16303E+02  3.14250E+03 -5.52873E+03  5.52090E+03 -4.97322E+03  2.38981E+03 -3.62641E+03 -2.33157E+03
 -3.71270E+03 -1.20770E+03  4.52508E+02 -7.08649E+03  4.92542E+03 -2.68271E+03  7.13105E+03 -2.35978E+02
  2.30224E+03  5.61984E+03  1.29377E+03  3.49197E+03 -6.19447E+03  3.20266E+03 -8.41701E+03 -3.76558E+03
 -5.16616E+03 -4.32273E+03 -1.58037E+03 -2.04702E+03  6.84872E+02 -6.75318E+03 -2.86790E+02 -5.83758E+02
 -6.68319E+02  2.28435E+03 -1.18900E+03  2.39410E+03 -3.21314E+03  2.58146E+03 -2.90576E+03 -4.02389E+03
  1.09644E+03  1.48769E+03  5.87698E+03  2.62757E+02  5.76755E+03  1.15606E+03  6.99992E+03  3.28029E+03
  7.74881E+02  5.05290E+03 -9.12944E+03  7.57132E+03 -8.45223E+03  1.11059E+03 -1.08612E+04 -8.20505E+02
 -2.73897E+03 -7.74552E+03 -1.15699E+03 -6.11744E+03  4.14710E+03 -5.21127E+03  5.48961E+03 -3.15979E+03
  1.47844E+03  4.28572E+03  2.22918E+03  1.45091E+03  2.75102E+03 -8.15876E+02  7.12804E+03 -3.21781E+03
  4.85764E+03  3.28791E+03 -1.49004E+03  2.07362E+03 -2.33482E+03  2.10174E+03 -3.30844E+03  3.14718E+03
 -4.98445E+03 -1.00299E+03 -6.47502E+03 -4.34167E+02  1.46806E+02 -6.68416E+03  3.64360E+03 -8.50686E+03
  1.36323E+03  3.79418E+02  3.78881E+03 -1.10246E+03  3.01273E+03  3.47402E+03  2.13862E+03  1.49124E+03
 -2.45939E+03  6.80543E+03 -7.33623E+03  2.11957E+03 -4.75849E+03  2.42152E+03 -5.46114E+03  5.76019E+02
 -2.58917E+03  3.30853E+03 -2.56770E+02  1.28969E+03 -6.39980E+03  4.59198E+03 -8.05741E+03 -1.57343E+03
 -8.94474E+02 -1.95761E+03  5.89366E+02 -5.99530E+03  2.68162E+03 -5.79567E+03 -2.05750E+02 -1.73305E+03
  3.03339E+03 -1.13914E+03  3.65131E+03  3.12758E+03  1.50554E+03  1.95587E+03 -4.82598E+03  3.82240E+03
 -7.57218E+03 -2.58243E+03 -4.28412E+03 -6.08438E+03  1.38547E+03 -5.40531E+02  2.51621E+03 -2.88159E+03
  3.35488E+03  2.63274E+03 -3.61835E+03 -2.36520E+03  1.41480E+03  5.44884E+03 -2.65395E+03  2.67476E+03
  9.63782E+02  6.85037E+00  3.58630E+03  6.29722E+01 -2.73919E+03  1.44486E+03  9.06249E+02  1.19610E+03
 -3.61832E+03  4.77036E+03 -7.85422E+03  4.82626E+03 -6.17965E+02  4.69015E+02 -2.45600E+03  6.53755E+02
 -1.31526E+03 -4.08762E+03 -2.21625E+02 -4.00510E+03  9.97126E+02 -7.61720E+02 -3.06495E+03 -3.56140E+03
  5.90879E+03  4.67171E+02 -2.41374E+03  4.40427E+03 -5.79248E+03  3.67535E+02  2.43446E+03 -1.55254E+03
 -3.00401E+02 -3.18552E+03  3.68109E+03 -3.99045E+03 -1.14876E+03 -4.71758E+03  4.12385E+03 -1.62740E+03
 -1.50765E+03 -4.03387E+02 -9.90161E+02 -1.54335E+03 -2.95464E+03 -1.97563E+03 -6.39624E+02  6.10716E+02
 -2.50647E+03 -8.09880E+02  2.52836E+03 -1.91879E+03  4.14624E+03  6.94671E+02  2.12189E+03 -8.33053E+01
 -2.89476E+03 -1.50012E+03  1.20991E+03 -3.58025E+02 -1.32025E+03  5.39460E+02  2.21514E+03 -1.24733E+03
  1.26825E+03 -2.68641E+03 -7.52324E+02 -1.46100E+03 -1.44326E+03  1.88734E+03 -3.30731E+02  2.18393E+03
 -6.07497E+02  3.60176E+01 -1.42015E+03 -4.56594E+03  8.28437E+02 -2.95992E+03  1.42428E+03  7.68729E+02
 -2.79218E+03  2.69103E+03 -1.30394E+03  4.44686E+02  3.38567E+03  3.46810E+03  3.24374E+03  1.94311E+03
  3.22369E+02 -1.81238E+03  4.93790E+03  6.57223E+02  1.36231E+03 -3.00978E+03  3.89325E+03  1.23161E+03
  4.16182E+03 -2.82639E+03  6.02582E+03 -3.04973E+03  2.16901E+03  2.22515E+03  5.15077E+02  2.51859E+03
 -9.70463E+02  4.05660E+03 -5.25457E+02 -1.35951E+03 -1.90087E+03  3.05765E+02 -4.45067E+03 -3.51727E+03
 -9.87456E+02  3.70742E+02 -1.13745E+03  2.52904E+02  1.45324E+03  1.22763E+03  3.23413E+03  5.67974E+02
 -3.36703E+02  4.42609E+02  3.11451E+03 -3.85997E+02 -3.45846E+03 -6.57027E+02  1.44427E+03 -6.36840E+02
 -2.64625E+03  1.46019E+03 -3.84217E+03  1.22164E+03 -1.09607E+03  2.14602E+03  8.23915E+02  2.10430E+03
 -1.04055E+03 -3.49185E+03  4.57072E+03 -1.51263E+03  1.72614E+03 -6.12226E+01  1.40539E+03 -2.60358E+03
  2.85849E+03  8.23718E+02  1.11019E+03  2.25388E+03  2.01249E+03  1.93524E+02 -5.99144E+02  3.77470E+03
  4.88621E+03 -1.04941E+03  1.43080E+03 -7.09093E+02  2.47445E+03 -1.77389E+03 -1.56265E+03  3.01259E+03
 -3.63147E+03  2.47452E+03 -5.11883E+03  1.12314E+03  2.29560E+03 -3.78297E+03 -3.63175E+03  4.38246E+03
 -3.37598E+02  1.33055E+03 -6.86638E+02  1.18764E+03  3.98057E+03  3.19785E+03 -8.79353E+02 -1.57726E+03
 -1.65085E+03  2.80949E+03  7.65251E+02  4.20890E+02 -3.41095E+03  1.82068E+03 -2.40399E+03 -4.74465E+03
  8.11975E+02  1.69330E+01 -1.98521E+03  2.31522E+03  6.35654E+02  2.07360E+03  4.91459E+02  6.32211E+03
 -3.13313E+03 -3.22118E+03 -3.42454E+03  1.41123E+03  3.81437E+03  8.38684E+03  6.59129E+02 -1.47216E+03
  7.24663E+02  4.47259E+03  2.48384E+03 -4.10413E+03  3.87106E+03  2.05402E+03  1.81481E+02  3.78157E+02
  7.63024E+02 -2.04068E+03  3.71500E+02  8.34989E+02 -3.34927E+03 -4.60407E+02 -4.57853E+02 -2.61286E+03
 -1.09198E+03 -3.94674E+03 -1.13601E+03 -2.15596E+03  2.36795E+03  2.46966E+02  9.46062E+02  1.21704E+03
  7.10145E+02  2.14100E+02 -2.15671E+03  1.49328E+03 -2.58099E+03  1.00001E+03  1.58632E+03 -6.87324E+02
  1.61303E+03  2.13983E+03 -2.18753E+03 -1.81970E+03  3.63210E+03  1.52045E+03  1.47873E+03  1.33313E+03
 -2.94686E+03 -4.02821E+03  2.49173E+03 -1.63427E+03  3.02476E+03 -1.25169E+03 -2.23036E+03 -1.81012E+03
  4.73657E+02  1.64323E+03 -4.53186E+02 -4.67131E+02 -3.88924E+01  2.48581E+03  2.82936E+03  5.13227E+03
