 $NMID ID='MM_0lb_SNR50_9hz_g45_40.RAW', FMTDAT='(8E13.5)'
 TRAMP=1., VOLUME=1. $END
  3.05889E+05 -1.39710E+03  3.33825E+05  2.51912E+05  8.57406E+04  3.38651E+05 -1.34598E+05  2.50697E+05
 -1.83371E+05  8.48746E+04 -1.13554E+05 -3.30393E+04  4.44703E+03 -4.97648E+04  5.55551E+04  2.99664E+03
  3.64084E+04  4.92865E+04 -1.48097E+04  7.46691E+04 -6.61893E+04  7.16637E+04 -8.27505E+04  3.31757E+04
 -7.94540E+04 -1.71295E+04 -5.65438E+04 -5.17749E+04 -1.82745E+04 -7.45818E+04  3.24000E+04 -4.67619E+04
  4.28518E+04  3.63200E+03  1.37687E+04  5.66884E+04 -3.19291E+04  4.88596E+04 -6.75121E+04  2.62819E+03
 -5.51834E+04 -5.95639E+04 -5.22718E+03 -7.94005E+04  3.08484E+04 -5.53829E+04  5.37323E+04 -2.29101E+04
  3.71262E+04  3.80165E+03  2.96162E+04  2.75180E+04  2.00672E+04  3.38173E+04 -7.71159E+03  3.10595E+04
 -2.67349E+04  1.70028E+04 -1.89420E+04  2.79879E+03  4.26916E+03 -6.33568E+03  1.96805E+04  1.27312E+04
  8.46205E+03  3.54239E+04 -2.59973E+04  3.40545E+04 -6.53251E+04 -3.54203E+03 -6.39855E+04 -4.67286E+04
 -1.24735E+04 -6.64639E+04  4.43567E+04 -4.86545E+04  5.99337E+04 -3.87546E+03  3.40065E+04  2.98707E+04
 -8.90788E+03  4.14331E+04 -2.66243E+04  1.58316E+04 -3.07101E+04 -3.41094E+03 -1.57146E+04 -6.10210E+03
 -1.16624E+04 -1.09549E+04  9.58798E+02 -2.27583E+04  8.15106E+03 -2.08495E+04  1.53451E+04 -2.20364E+04
  5.88174E+03  3.49064E+03 -9.15522E+03  1.11809E+04 -2.72863E+04 -5.64704E+03 -9.18615E+03 -4.35486E+04
  2.28124E+04 -4.47165E+04  5.36123E+04 -2.28924E+04  4.28953E+04  2.37147E+04  1.46077E+04  5.10595E+04
 -1.34938E+04  3.18511E+04 -2.44274E+04  1.26911E+03 -1.42983E+04 -3.02714E+04  2.19420E+04 -3.77934E+04
  4.24428E+04 -1.55750E+04  4.07454E+04  2.32975E+04  1.19357E+04  4.78419E+04 -9.37747E+03  5.52888E+04
 -3.66067E+04  3.73274E+04 -4.59803E+04  9.41386E+03 -4.50568E+04 -1.36686E+04 -2.65482E+04 -4.07537E+04
  8.30606E+03 -4.25947E+04  3.17377E+04 -1.62213E+04  3.71730E+04  4.95584E+03  5.00750E+03  2.29765E+04
 -1.49204E+04  9.50810E+03 -1.50603E+04 -1.25399E+04  5.07877E+03 -1.58334E+04  1.91785E+04  2.93426E+03
  1.18975E+04  1.74105E+04 -6.51716E+03  3.12583E+04 -2.03102E+04  1.34460E+04 -3.38427E+04  5.93579E+02
 -1.93193E+04 -1.79977E+04 -5.45714E+03 -2.71472E+04 -4.41964E+03 -2.53735E+04  1.76809E+04 -2.19072E+04
  3.74612E+04 -1.28909E+04  3.84056E+04  4.26441E+02  2.34297E+04  1.63526E+04  5.75114E+03  3.30107E+04
 -1.63196E+04  3.57760E+04 -2.76951E+04  1.05961E+04 -2.43026E+04 -1.29926E+04 -7.80578E+03 -1.21352E+04
 -1.17977E+03 -6.23880E+03 -4.29941E+03  5.04534E+03 -1.90266E+04  7.25650E+03 -1.60878E+04 -1.16857E+04
 -4.89536E+03 -1.45124E+04  8.52430E+03 -2.87994E+04  2.08190E+04 -2.00729E+04  2.24502E+04 -1.05594E+03
  1.56773E+04  2.11821E+04 -4.55435E+03  1.96986E+04 -1.79146E+04  1.23558E+04 -2.61642E+04 -1.80790E+03
 -1.67680E+04 -2.29693E+04  2.14785E+03 -2.36464E+04  1.55836E+04 -2.54377E+04  2.01656E+04 -1.55980E+04
  1.91102E+04  7.68213E+02  1.29415E+04  5.59928E+03  9.45575E+03  2.44033E+03  1.41293E+04 -2.26617E+03
  2.59621E+04  2.68379E+03  2.49679E+04  1.80816E+04  1.85889E+04  2.86526E+04 -3.73241E+03  4.60566E+04
 -2.68783E+04  3.02669E+04 -3.54932E+04  2.05130E+04 -4.54533E+04 -2.81908E+03 -3.66258E+04 -2.72775E+04
 -1.14753E+04 -3.82511E+04  1.42527E+04 -2.75003E+04  3.23298E+04 -2.03799E+04  2.12566E+04  3.66598E+03
  1.13022E+04  2.13017E+04 -1.08659E+04  1.58120E+04 -2.16199E+04  3.43503E+03 -1.33620E+04 -1.66727E+04
 -4.10621E+03 -2.17356E+04  9.17368E+03 -1.42590E+04  6.37732E+03  7.07388E+02 -9.63170E+01  9.94410E+03
 -1.02177E+04  7.28953E+03 -1.66109E+04 -4.01917E+03 -2.96499E+03 -1.87532E+04  1.71752E+04 -2.32868E+04
  2.12621E+04 -1.15101E+04  2.01399E+04  8.24251E+03  2.98702E+04  2.43950E+04  1.36415E+04  2.18760E+04
 -4.50753E+03  3.06132E+04 -2.16019E+04  1.65613E+04 -2.00706E+04  4.16763E+03 -1.55077E+04 -3.65181E+03
 -1.01099E+03 -1.56109E+04 -7.12698E+02  4.69273E+03  1.61081E+03  7.98389E+03 -4.37142E+03  6.74985E+03
 -8.74390E+03  1.30722E+03 -1.39152E+04 -1.55726E+04 -4.91844E+03 -1.77646E+04  2.29608E+03 -1.79148E+04
  1.46835E+04 -3.38205E+03  8.28111E+03  7.35782E+03 -1.39673E+03  8.32103E+03 -7.11716E+03 -1.11984E+03
 -1.33892E+04 -5.48342E+03 -3.29541E+03 -1.49478E+04  9.45122E+03 -1.85858E+04  1.73751E+04 -1.90998E+04
  2.54641E+04 -2.05517E+03  1.97673E+04  1.04449E+04 -5.76649E+02  1.73816E+04 -1.10709E+04  1.36688E+04
 -9.61343E+03 -1.60464E+03 -1.54092E+03  9.51794E+02  5.46215E+03 -7.33219E+03  1.27031E+04  2.20398E+03
  8.82006E+03  5.29435E+03  1.75120E+03  1.42136E+04 -6.77812E+03  1.47687E+04 -1.30244E+04 -2.33244E+02
 -1.45845E+04 -8.23250E+03 -2.23566E+03 -1.54829E+04  1.12563E+04 -7.55634E+03  7.53824E+03 -1.16754E+02
  3.16087E+03  6.67990E+03  3.56779E+03  1.38204E+04 -1.37663E+04  7.43880E+02 -7.77206E+03 -2.50339E+03
 -5.31802E+03 -1.85764E+04  3.41402E+03 -1.55479E+04  1.11084E+04 -7.20570E+03  1.40320E+04  2.72203E+03
  8.04243E+03  6.62221E+03  2.81791E+03  1.79658E+04 -1.48862E+04  8.45607E+03 -1.38086E+04 -2.34726E+03
 -1.38238E+04 -9.67323E+03  5.69242E+02 -1.35187E+04  3.80907E+03 -8.09637E+03  4.26066E+03 -4.43434E+03
  1.74428E+03  5.35665E+03 -1.04951E+03 -4.46170E+02 -1.56588E+03 -6.54378E+02  1.54283E+03 -1.21800E+04
  1.05770E+04 -6.10983E+03  8.70554E+03 -1.33330E+03  1.40347E+04  7.57288E+03  5.35508E+03  2.18836E+04
 -6.84606E+02  2.18957E+04 -2.29626E+04  1.81064E+04 -2.46823E+04  5.32213E+02 -1.76159E+04 -5.42117E+03
 -6.67595E+03 -1.87686E+04  2.06942E+03 -1.51683E+04  2.97951E+02 -1.65010E+04  1.08991E+04 -6.78053E+03
  5.33794E+02 -1.67521E+03 -9.30376E+02 -1.34961E+03  6.49368E+03 -1.70871E+03  1.19840E+04  5.58544E+03
  1.20132E+04  3.77490E+03  4.16370E+03  1.34494E+04  2.78429E+03  1.11269E+04 -8.89177E+03  1.17303E+04
 -9.80454E+03 -3.42131E+03 -2.00127E+03 -1.19047E+04 -3.15819E+03 -1.56050E+04  9.42246E+03 -2.33858E+04
  2.24822E+04 -9.54371E+03  2.02807E+04  5.18731E+03  7.11944E+03  1.52018E+04 -2.36946E+03  1.67465E+04
 -8.54090E+03  1.38716E+04 -7.54804E+03  6.13785E+03 -9.13467E+03 -5.29032E+03  3.30805E+03 -1.61118E+02
 -2.03922E+03  2.60359E+03 -3.84082E+02  4.66668E+03 -5.02417E+03  3.96418E+03 -7.41802E+03 -8.34346E+02
 -1.06276E+04 -6.03995E+03 -3.22216E+03 -1.34543E+04  1.62935E+03 -1.54639E+04  2.18322E+04 -5.39101E+03
  1.39331E+04  5.62836E+03  4.36760E+03  1.22257E+04 -2.23353E+03  1.29962E+04 -1.66184E+04  8.78745E+03
 -1.30534E+04  1.93427E+03 -1.05042E+04 -1.07121E+04 -1.41768E+02 -1.11376E+04  9.22615E+03 -9.38018E+03
  1.20250E+04  7.89810E+02  3.49726E+03  2.22996E+03 -2.05399E+03  8.84638E+03  1.44679E+03  2.95539E+03
  5.41153E+03  7.74026E+03 -8.95559E+02 -3.57780E+02  2.22653E+03  1.06499E+04  5.16576E+03  6.20617E+03
 -2.29119E+03  2.52723E+03 -1.49911E+04  5.49123E+03 -1.08150E+04  7.03439E+03 -1.72785E+04 -5.96236E+03
 -1.43280E+04 -1.52896E+04  3.39746E+03 -1.70044E+04  1.08334E+04 -8.78261E+03  1.27074E+04 -4.61859E+03
  5.78012E+03  1.15940E+04  6.48720E+02  8.38910E+03 -2.75663E+03 -1.90866E+02 -2.51212E+03  3.16617E+02
 -6.26985E+02 -8.04343E+03  7.16317E+03 -3.75859E+03  4.27783E+03 -4.55389E+03  7.02193E+03  3.07530E+03
 -4.59967E+02  1.36540E+03 -5.20772E+02  3.29491E+03  2.80647E+03  6.05723E+03 -3.41855E+03 -8.58051E+02
  7.22291E+03  1.70437E+03  6.59290E+03  9.58726E+02  4.26814E+03  8.23433E+03  7.12449E+03  9.29093E+03
 -4.66326E+03  7.78203E+03 -9.82051E+03 -3.15203E+03 -7.90458E+03 -6.67231E+03 -5.15388E+03 -1.06960E+04
 -8.17588E+02 -6.04717E+02 -2.57112E+03 -2.57214E+03  1.96967E+03  1.79904E+03 -3.39157E+03  4.39349E+03
 -1.02885E+04  2.47474E+03 -3.58494E+03 -4.80639E+03 -6.73813E+03 -8.43261E+03  2.87663E+03 -7.95597E+03
 -5.60851E+02 -9.78540E+03  1.03103E+04  2.40769E+03  4.97916E+03  8.61613E+02 -1.10475E+03  1.02141E+04
 -1.97728E+03  5.74760E+03  1.83329E+03 -4.16655E+03 -1.27467E+03 -1.04689E+04  1.29340E+04 -3.41972E+03
  3.75802E+03 -2.20427E+03  1.24654E+04  5.02395E+03  4.66098E+02  1.04951E+04 -4.59181E+03  1.23619E+04
 -1.15027E+04  3.10521E+03 -5.36622E+03 -5.28755E+03 -8.46537E+01 -8.06354E+03  1.15302E+03 -2.59874E+03
  1.05723E+04 -7.67206E+03  2.18070E+03  7.94551E+03  6.67099E+03  6.87064E+03 -1.34586E+03  2.32050E+03
 -3.33232E+03  4.95557E+03  1.10752E+03 -1.09942E+03 -7.77049E+03  9.93655E+02 -1.93422E+03  6.22852E+03
 -6.43737E+03  9.95562E+03 -4.97516E+03 -4.95328E+02 -9.44187E+03 -5.15518E+03 -5.23063E+03 -9.01343E+03
 -9.57933E+03 -1.01783E+04  8.84668E+03 -1.10170E+04  1.02340E+04 -1.67718E+04  1.54832E+04 -6.36277E+03
  1.37299E+04 -1.98880E+03  9.42120E+03  7.00673E+03 -2.27452E+02  7.79266E+03 -5.71309E+03  1.11146E+04
 -6.16429E+03 -2.05559E+03 -7.78803E+03 -5.55566E+03 -3.02048E+03 -3.68306E+03 -4.14606E+03 -1.43132E+03
  2.74742E+03  2.95339E+03 -1.50495E+02 -4.12920E+03  1.49056E+03 -3.71431E+03  1.99353E+03 -5.12356E+03
  9.21966E+03 -4.53330E+03  4.53369E+03  3.74377E+03  1.02703E+04  4.98611E+03  5.27274E+03  1.14347E+04
 -3.58645E+03  1.09403E+04 -8.80227E+03  6.55142E+03 -9.84628E+03  6.99564E+02 -1.13389E+04 -6.53741E+03
 -3.07154E+03 -6.75301E+03 -8.78357E+02 -7.11503E+03  5.95258E+02 -4.42289E+03  9.27192E+03  4.90752E+02
  5.33893E+03  4.14070E+03  3.67585E+03  4.79645E+03 -6.88718E+03  4.50020E+02  3.39497E+03  2.08613E+03
  1.26816E+04 -1.60799E+03  3.55507E+02 -3.75418E+03  1.34614E+04  6.18824E+03 -3.37051E+03  1.40002E+04
 -6.46566E+03  1.64865E+03 -7.26635E+02 -3.31771E+03 -1.19172E+04 -2.64832E+03 -6.64607E+03 -1.61626E+04
  4.15795E+03 -1.25807E+04  1.11566E+04 -3.97015E+03  6.40344E+03  4.17306E+03  4.52708E+03  5.11028E+03
  1.99129E+02  1.00162E+04 -8.69658E+02  4.85044E+03 -1.20325E+03  1.65813E+03 -3.90631E+03 -1.62957E+03
  6.05572E+03  5.51022E+03 -7.00057E+03  1.01470E+03  7.02313E+01  6.07208E+02 -9.97529E+03 -5.49235E+03
 -1.10450E+04 -4.86433E+03  8.58887E+01 -9.01996E+03  1.37484E+03 -2.64645E+03  8.33188E+03 -2.42921E+03
  9.91686E+03  6.91313E+03  7.99905E+03  5.05809E+03 -2.45975E+03  1.00651E+04 -1.24186E+04  2.20947E+03
