 $NMID ID='MM_0lb_SNR50_19hz_g45_48.RAW', FMTDAT='(8E13.5)'
 TRAMP=1., VOLUME=1. $END
  3.10867E+05 -8.17586E+02  3.32143E+05  2.48395E+05  8.45525E+04  3.39519E+05 -1.29486E+05  2.50923E+05
 -1.91599E+05  8.05512E+04 -1.13589E+05 -3.33385E+04  2.89817E+03 -5.14667E+04  5.72230E+04 -2.84718E+02
  3.56110E+04  5.03862E+04 -2.00785E+04  7.23094E+04 -5.91724E+04  6.01474E+04 -8.02926E+04  2.96380E+04
 -8.08541E+04 -1.04421E+04 -5.81059E+04 -4.88618E+04 -1.85304E+04 -7.01296E+04  2.99843E+04 -4.98510E+04
  4.07633E+04  4.14669E+02  1.78468E+04  4.71296E+04 -2.79546E+04  4.69728E+04 -6.51877E+04 -1.29668E+02
 -4.96099E+04 -5.48856E+04 -7.04024E+03 -7.27936E+04  3.39560E+04 -5.60436E+04  4.38564E+04 -1.77199E+04
  4.29680E+04  1.13032E+04  3.22804E+04  2.39185E+04  1.34993E+04  2.67809E+04 -4.89718E+03  2.37814E+04
 -2.55374E+04  8.00479E+03 -1.82122E+04 -3.64052E+03  1.28107E+03 -2.03253E+03  2.18490E+04  7.64802E+03
  1.20938E+04  3.04917E+04 -3.21788E+04  3.09879E+04 -6.37965E+04  4.87599E+03 -5.60515E+04 -4.06314E+04
 -1.18608E+04 -6.16966E+04  3.45401E+04 -4.04985E+04  5.38587E+04 -2.80008E+03  3.41708E+04  3.49978E+04
 -4.92710E+03  3.21796E+04 -3.05053E+04  1.10050E+04 -2.72633E+04 -1.93273E+03 -1.22143E+04 -8.33853E+03
 -9.16773E+03 -1.30212E+04 -9.47777E+02 -2.12713E+04  8.56440E+03 -2.25867E+04  1.30884E+04 -1.47549E+04
  1.01224E+04  1.02016E+04 -5.79104E+03  1.28935E+04 -1.76441E+04 -1.59526E+03 -8.50367E+03 -3.55744E+04
  2.18817E+04 -3.88047E+04  4.56795E+04 -2.15425E+04  4.26830E+04  1.39981E+04  1.45466E+04  3.82920E+04
 -1.75525E+04  3.18695E+04 -2.26430E+04  2.43187E+03 -1.08141E+04 -3.18020E+04  1.65803E+04 -2.96537E+04
  3.81037E+04 -4.35216E+03  3.08949E+04  2.39345E+04  1.80889E+04  4.20893E+04 -5.87295E+03  4.89991E+04
 -2.53237E+04  2.93023E+04 -3.56608E+04  9.31159E+03 -3.48612E+04 -1.58588E+04 -2.27109E+04 -3.25178E+04
  7.02476E+03 -3.43617E+04  2.83122E+04 -1.18733E+04  2.93008E+04  1.07339E+04  4.15453E+03  1.31712E+04
 -1.17808E+04  5.67857E+03 -9.33556E+03 -5.60543E+03  4.08288E+03 -9.13118E+03  1.43771E+04  7.58872E+03
  1.12799E+04  2.11726E+04 -9.02639E+03  2.50102E+04 -1.95452E+04  8.31945E+03 -2.73569E+04 -9.00580E+03
 -1.12180E+04 -1.51037E+04 -8.54124E+03 -1.91613E+04  6.60741E+03 -9.89783E+03  1.27426E+04 -1.36261E+04
  2.16839E+04 -1.42513E+04  3.00808E+04  3.94639E+03  2.16691E+04  1.49638E+04  5.60791E+03  3.19514E+04
 -1.46800E+04  2.63405E+04 -2.75527E+04  1.21100E+04 -1.95270E+04 -9.01375E+03 -2.04646E+03 -1.14014E+04
  1.42865E+03 -9.90710E+03 -1.63447E+03  6.44112E+03 -1.14849E+04  5.68762E+03 -1.21916E+04 -1.32085E+03
 -6.28686E+03 -1.64851E+04  4.38035E+03 -1.99510E+04  1.48116E+04 -1.39707E+04  1.03324E+04 -2.02108E+03
  6.52712E+03  7.70464E+03 -1.41586E+03  1.58138E+04 -1.20531E+04  1.22713E+04 -1.61306E+04 -6.10190E+03
 -1.15161E+04 -1.67551E+04 -3.42754E+03 -1.45758E+04  6.29809E+03 -1.89542E+04  1.50128E+04 -3.11029E+03
  1.29335E+04  5.45633E+03  1.26339E+04  5.41721E+03  6.67258E+03  7.37948E+02  8.29162E+03 -6.75535E+02
  1.03389E+04  1.97858E+03  1.69613E+04  1.30244E+04  9.11753E+03  2.33235E+04 -3.39132E+03  2.49319E+04
 -1.18976E+04  2.26550E+04 -2.26737E+04  8.88103E+03 -2.32845E+04 -2.93613E+03 -2.47798E+04 -1.46968E+04
 -9.65372E+03 -1.93903E+04  6.06100E+03 -2.10040E+04  1.37014E+04 -9.25414E+03  1.24469E+04  4.17144E+03
  4.53982E+03  1.21733E+04 -6.46295E+02  1.05024E+04 -1.26608E+04  2.36601E+03 -1.17768E+04 -7.76683E+03
 -3.27675E+03 -1.24640E+04  6.28250E+03 -6.46800E+03  1.19969E+04 -2.60721E+03 -1.18541E+02  3.77559E+03
 -5.28470E+03  4.60069E+03  9.30857E+02 -5.59619E+03  1.35002E+03 -8.68032E+03  7.63665E+03 -1.12301E+04
  1.06939E+04 -6.79738E+03  1.21053E+04  2.37480E+03  1.16225E+04  9.90717E+03  8.08900E+03  1.87413E+04
 -1.44822E+03  1.39709E+04 -4.71477E+03  9.45213E+03 -1.14840E+04  3.24011E+03 -8.08538E+03 -7.43110E+03
 -3.50911E+03 -3.14348E+03 -1.07887E+03  4.91968E+03 -4.04662E+03 -4.18416E+02  6.50303E+02  4.02662E+03
 -6.21952E+03  4.88609E+02 -6.86578E+03 -7.37389E+03 -3.49763E+03 -1.05631E+04  7.17813E+03 -4.19050E+03
  1.01465E+04 -3.02657E+03  2.74960E+03  1.31177E+03 -3.05792E+03  4.12997E+03 -1.81760E+03  1.03605E+03
  9.69206E+02 -2.12518E+03 -1.10492E+03 -4.56037E+03  5.23735E+03 -1.09196E+04  9.83103E+03 -1.01035E+03
  1.26146E+04 -2.72463E+03  9.29253E+03  6.50845E+03  6.50644E+03  5.94431E+03 -7.53930E+03  1.30782E+04
 -5.28957E+03  5.05179E+03 -5.37076E+03  2.56280E+02  7.75064E+02 -1.23556E+03  4.81725E+03  4.71935E+02
  6.25121E+03  2.74386E+03  2.06809E+03  9.86837E+03 -8.51195E+03  3.57143E+03 -8.47439E+03  3.79992E+02
  8.55034E+02 -2.84634E+03 -5.96303E+02 -7.75865E+03 -4.26474E+02 -3.38323E+03  4.77705E+02  2.56429E+02
 -1.95255E+03  1.55252E+03 -3.95770E+03  2.77302E+03 -2.37012E+03  4.88540E+03 -1.79489E+03  8.30206E+02
 -2.68511E+03 -7.33242E+03  4.42923E+03 -2.85685E+03  7.03688E+03 -3.23381E+03  9.86475E+03 -2.44187E+03
  1.26079E+02  6.84715E+03  8.06987E+02  6.31152E+03 -5.66480E+03  5.01365E+03 -3.15623E+03 -2.09961E+03
 -5.72897E+03 -3.12051E+03  1.39942E+03 -5.76000E+03  5.32725E+03 -3.90633E+03  3.81247E+03 -2.00355E+03
  1.06749E+03  1.16931E+03 -9.40664E+02 -4.43491E+03 -2.37597E+03  2.02314E+03 -2.78534E+03 -1.39234E+03
  7.27481E+03 -1.44963E+03  5.56156E+03  3.07422E+03  6.15860E+03  8.17202E+02  6.94360E+03  5.87532E+03
  5.43992E+02  5.54227E+03 -8.25482E+03  3.28479E+03 -9.21844E+03  4.42291E+03 -6.45447E+03  8.82279E+02
 -2.87710E+03 -8.11381E+03 -2.85025E+02 -6.50270E+03 -1.31965E+03 -4.02306E+03  5.82221E+03 -1.52735E+03
 -8.73600E+02 -1.95555E+03 -4.21255E+02 -1.57451E+02  4.69472E+03 -8.33075E+02  3.55721E+03  4.29948E+03
  1.49286E+03  5.69243E+03  2.42164E+02  3.20240E+03 -1.66258E+03  1.26514E+03 -5.95770E+03  3.64950E+03
 -2.71472E+03 -3.54121E+03 -1.74543E+03 -4.61758E+03  2.99991E+03 -6.47541E+03  3.01472E+03 -8.43233E+03
  7.71744E+03 -3.68926E+03  8.81114E+03  1.98132E+03  7.92507E+03  4.46159E+03 -1.25151E+03  7.75995E+03
 -2.15606E+03  8.69864E+03  5.44371E+02  2.19737E+03 -5.13841E+03 -3.11888E+03 -1.48761E+03  4.60576E+02
 -6.98907E+02  7.10138E+01 -6.27833E+02  3.63998E+03 -5.01847E+03  5.31205E+03 -4.41629E+03  2.48731E+03
 -3.04396E+02 -5.37429E+03  3.69974E+03 -6.22847E+03  4.93002E+03 -4.70915E+03  4.95456E+03 -3.38184E+03
  5.75850E+03  8.79908E+02  7.67362E+02  7.75127E+03  5.69813E+02 -1.99416E+01 -5.58355E+03  1.02587E+03
 -3.23129E+03  1.79055E+03 -6.27151E+03  1.64031E+02  2.20097E+03 -4.05128E+03 -1.65182E+03 -2.63083E+03
  2.01502E+03  5.51421E+02  3.33268E+03  1.14900E+03  3.49103E+02  1.29038E+03  1.40461E+03 -3.29184E+03
  3.98808E+03  3.33641E+02  1.44905E+03  1.55432E+03 -1.56561E+02  3.40118E+03 -6.50779E+02 -2.47126E+03
  2.87394E+02  2.01018E+03 -5.56142E+02  5.40373E+03 -1.15423E+03 -3.68196E+03 -5.88287E+03  8.23468E+02
 -5.09859E+03 -5.09745E+03  5.71742E+03 -1.84808E+03  1.65620E+03  1.01873E+03 -1.33660E+03 -1.00315E+03
  1.48330E+03 -3.47403E+03 -1.00108E+03  1.90277E+03  4.55210E+03  2.50303E+03 -3.82021E+03 -2.05302E+03
 -2.03318E+03  3.01861E+02 -3.50023E+03  5.66745E+01  2.84833E+03 -2.49190E+03 -2.23494E+03  4.85495E+02
 -3.36812E+02  8.42975E+02  4.52855E+03  3.47183E+02  2.83530E+02 -3.51413E+02  5.26856E+02  1.75597E+03
 -1.04008E+03 -7.73286E+02  7.02369E+03 -1.52589E+03  8.16023E+02 -1.11859E+03  4.84473E+02 -1.24064E+03
 -2.96560E+03 -2.30042E+03  1.41461E+03 -2.53977E+03  1.17043E+03 -1.69453E+03  2.68003E+02  3.52684E+03
  1.91030E+02  8.75805E+02  3.21593E+03 -4.52523E+02 -6.50695E+02  7.93229E+03 -3.27182E+02  9.75306E+02
 -1.65335E+03  1.38909E+03 -3.40252E+01 -7.70589E+02  2.43934E+03 -4.66660E+03  3.21707E+03 -1.54594E+03
  2.72855E+03 -6.68374E+02 -2.33264E+03  4.92324E+02  3.39108E+03 -1.65814E+03 -7.96340E+02 -1.57506E+03
  1.66990E+03 -5.29557E+03  2.19948E+03  2.94890E+01  1.61700E+03  2.07786E+03  1.13503E+03 -1.08452E+03
 -2.60595E+03  6.98790E+02  2.42613E+03 -3.19050E+03  2.35905E+03  9.59044E+02  6.56949E+02  9.67287E+02
 -5.72335E+03 -7.20192E+02  1.28673E+03  3.67259E+03  7.75051E+02 -4.91154E+03 -1.30679E+03 -1.24999E+03
  5.63288E+02  1.78713E+02  1.48893E+03  1.93906E+03 -2.34412E+03 -1.36447E+02 -1.96724E+03  1.84263E+03
 -9.59935E+02 -1.58799E+03  2.25293E+03  1.04181E+03  3.14074E+03  6.59804E+02 -3.18777E+03 -1.84100E+03
 -1.29646E+03 -6.04220E+02 -2.68958E+03  1.39254E+03 -3.43062E+02 -1.28629E+03 -3.16861E+03 -2.31758E+03
 -5.21843E+02  3.46403E+02  2.97086E+01 -2.53484E+03 -4.69692E+02 -2.66152E+03 -5.35220E+02 -3.84081E+02
  3.08683E+03  4.48386E+02 -5.56819E+01  2.71035E+03  5.65380E+02  9.15315E+02 -6.24802E+03  4.32005E+03
  2.54471E+03  2.04682E+03 -5.58417E+02 -1.87706E+03 -4.80019E+03  1.68205E+03 -1.49965E+03 -1.82619E+03
 -2.50897E+03  2.02434E+03  3.41563E+03  1.62880E+03  6.58337E+02  3.49612E+03  3.57139E+03  1.16031E+03
 -2.38738E+02 -6.69917E+02  4.64397E+02 -1.51691E+03  4.99859E+03  1.44542E+01  1.31072E+03  9.33240E+01
  8.39820E+02 -2.78613E+03 -2.73967E+03  1.16016E+03  4.27072E+02 -2.76554E+03 -2.85169E+03 -2.34921E+03
  6.08104E+02 -1.25687E+03  1.37452E+03 -9.35748E+02  3.34081E+02 -3.47809E+00 -2.57111E+03 -8.77639E+02
  1.16451E+03  1.59988E+02  9.77923E+02 -1.42151E+03 -4.64710E+02 -1.25948E+03 -3.51236E+03 -3.61478E+02
 -1.38070E+03  3.06022E+03  5.56760E+02  2.21590E+03  3.40366E+02  1.08560E+03  1.85011E+03 -1.54134E+03
  1.59828E+03 -2.76997E+02  2.71157E+03  2.25757E+03 -4.70815E+02 -9.21285E+02  1.84418E+03  3.97537E+01
  1.50015E+03 -1.11322E+00 -2.05164E+03  1.93633E+03  7.43427E+02  1.50347E+02  1.29236E+03 -2.21606E+03
  5.47371E+03  2.91076E+03 -4.53578E+03 -1.50068E+02  2.02644E+03  5.46661E+02 -1.91693E+03  6.52474E+02
 -3.15708E+03 -1.17741E+03  1.59040E+03  1.05961E+03  3.33272E+03 -4.96769E+03  1.29724E+03 -3.14922E+03
  2.00156E+03 -1.28706E+02 -3.59467E+03 -3.05682E+03  6.17466E+02 -3.00170E+03  2.91296E+03  3.95998E+03
 -2.55991E+03 -1.07047E+03 -9.48969E+02  9.70496E+02 -2.97509E+02  2.57474E+03  1.57873E+03  1.31455E+03
