 $NMID ID='MM_0lb_SNR50_7hz_g40_92.RAW', FMTDAT='(8E13.5)'
 TRAMP=1., VOLUME=1. $END
  3.14550E+05 -3.98332E+03  3.35872E+05  2.47880E+05  8.08611E+04  3.44039E+05 -1.29151E+05  2.52382E+05
 -1.93607E+05  8.77793E+04 -1.11119E+05 -2.42751E+04  9.81810E+02 -5.40552E+04  5.87190E+04 -7.19658E+03
  3.03566E+04  5.07517E+04 -1.66477E+04  7.66311E+04 -5.87765E+04  6.31762E+04 -8.58831E+04  3.51833E+04
 -7.96622E+04 -1.16325E+04 -6.05955E+04 -5.00060E+04 -1.82604E+04 -6.93926E+04  2.81559E+04 -4.67809E+04
  4.62334E+04  6.16644E+03  1.80027E+04  4.90770E+04 -3.74821E+04  4.60099E+04 -6.77505E+04 -2.00762E+03
 -5.70276E+04 -6.09076E+04 -5.87285E+03 -7.83459E+04  4.47973E+04 -6.14936E+04  4.66163E+04 -1.64669E+04
  5.14234E+04  1.20349E+04  3.81769E+04  2.70381E+04  1.41639E+04  3.45912E+04 -1.04913E+04  1.78001E+04
 -2.54262E+04  7.07419E+03 -1.41239E+04 -6.82646E+03  1.04741E+04 -5.03769E+03  2.85362E+04  1.72186E+04
  1.37484E+04  3.49379E+04 -3.95823E+04  3.74477E+04 -6.05342E+04 -1.42337E+03 -5.75445E+04 -4.56416E+04
 -1.51324E+04 -5.93224E+04  3.74075E+04 -4.94278E+04  6.21111E+04 -4.40326E+03  4.21028E+04  3.36001E+04
 -8.01901E+03  4.15826E+04 -2.75504E+04  1.00836E+04 -4.00959E+04 -2.88961E+03 -2.49751E+04 -1.12582E+04
 -9.12453E+03 -7.57843E+03  5.52335E+03 -2.03202E+04  1.32538E+04 -1.35287E+04  1.72437E+04 -1.17913E+04
  9.83541E+03  3.86573E+03 -7.90425E+03  1.82601E+04 -3.37488E+04 -3.30648E+03 -1.03412E+04 -3.75548E+04
  2.31469E+04 -4.08792E+04  5.19132E+04 -2.55036E+04  4.99822E+04  2.50157E+04  1.32748E+04  4.82541E+04
 -1.95584E+04  3.50068E+04 -2.39329E+04 -3.20614E+03 -8.77576E+03 -2.65327E+04  2.32699E+04 -3.84296E+04
  4.75272E+04 -8.33717E+03  4.06385E+04  2.71377E+04  2.36650E+04  5.58795E+04 -9.72944E+03  5.58455E+04
 -3.77887E+04  3.75310E+04 -5.54146E+04  9.78355E+03 -5.02582E+04 -1.69341E+04 -2.58714E+04 -3.77205E+04
  1.26424E+04 -3.99441E+04  3.63772E+04 -1.42145E+04  3.72655E+04  1.02734E+04  3.91316E+03  2.23948E+04
 -1.41389E+04  1.33508E+04 -7.74692E+03 -7.65150E+03  2.95213E+03 -5.52791E+03  2.84933E+04  4.03064E+03
  2.71015E+04  2.28805E+04 -8.19790E+03  2.78252E+04 -2.77821E+04  1.58961E+04 -2.72109E+04 -6.27162E+03
 -2.34158E+04 -2.25048E+04 -1.42110E+04 -2.52063E+04  7.53160E+03 -2.59518E+04  2.04775E+04 -3.17675E+04
  3.68554E+04 -1.80936E+04  4.05687E+04  9.22860E+03  2.48967E+04  2.39470E+04  5.30557E+03  4.54116E+04
 -1.65385E+04  3.97370E+04 -3.32335E+04  1.00100E+04 -2.58431E+04 -9.04256E+03 -4.86375E+03 -1.48436E+04
  5.98564E+03 -4.86345E+03 -1.66427E+03  2.16329E+03 -2.64755E+04  7.32060E+03 -2.08459E+04 -7.96790E+03
 -1.70039E+04 -3.02813E+04  1.43263E+04 -2.73002E+04  1.80009E+04 -1.39899E+04  2.82918E+04 -9.52027E+02
  1.81609E+04  1.25403E+04 -3.81471E+02  2.14229E+04 -1.50098E+04  1.78692E+04 -2.21603E+04 -1.12707E+04
 -1.45768E+04 -2.30150E+04 -2.75786E+03 -3.09669E+04  9.87180E+03 -2.71481E+04  3.57607E+04 -1.15732E+04
  2.28359E+04  3.85532E+01  1.64774E+04 -4.54314E+03  1.40653E+04  4.29574E+03  8.58181E+03  2.71574E+02
  2.90383E+04 -3.11216E+03  2.52019E+04  1.22080E+04  1.58351E+04  3.62430E+04  7.08051E+02  5.36401E+04
 -2.66304E+04  3.57670E+04 -4.31274E+04  2.30760E+04 -4.82582E+04 -6.38521E+03 -3.48260E+04 -3.05997E+04
 -1.29959E+04 -3.90892E+04  1.87662E+04 -3.61576E+04  2.83921E+04 -1.63679E+04  2.76408E+04  1.10185E+04
  1.33495E+04  1.43177E+04 -8.59909E+03  1.62653E+04 -1.91736E+04  1.89398E+03 -2.19882E+04 -1.38070E+04
 -3.38190E+03 -1.19388E+04  1.05753E+04 -1.33165E+04  1.48310E+04  4.57339E+03  1.74002E+03  9.97123E+03
 -1.08862E+04  7.69703E+03 -9.45213E+03 -4.51681E+03 -2.16102E+03 -2.63279E+04  1.28827E+04 -1.91667E+04
  2.95343E+04 -1.93194E+04  2.38171E+04  2.05574E+03  2.85904E+04  2.45584E+04  1.49113E+04  2.65154E+04
 -4.63952E+03  3.29187E+04 -1.83575E+04  1.80418E+04 -1.98262E+04  1.16808E+03 -1.53767E+04 -5.92300E+03
 -1.17362E+04 -2.37752E+03  1.88234E+03  2.54606E+03 -2.19996E+03  5.01742E+02 -2.26409E+03  5.21598E+03
 -1.27005E+04 -5.91982E+03 -9.30871E+03 -1.27831E+04 -1.34764E+04 -1.46610E+04  1.20759E+04 -1.84086E+04
  1.48990E+04 -5.40672E+03  6.49278E+03 -5.19991E+03 -2.00735E+03  1.39373E+04 -4.06588E+01  4.45804E+03
 -1.26841E+04 -1.59986E+04  2.86230E+03 -1.58152E+04  1.13429E+04 -1.85210E+04  2.22235E+04 -8.93807E+03
  2.62348E+04  5.51904E+03  2.24595E+04  6.95193E+03  2.66284E+03  2.02023E+04 -1.81235E+04  1.98735E+04
 -1.48292E+04  8.50211E+03 -4.11868E+03 -1.82971E+03  3.73775E+03 -9.98479E+03  1.28064E+04 -5.33452E+03
  8.70157E+03  1.19597E+04 -1.23164E+02  1.78474E+04 -1.26508E+04  1.70058E+04 -1.93772E+04  8.20348E+03
 -8.44475E+03 -7.30792E+03  2.25716E+03 -1.81788E+04  1.07924E+04 -5.62471E+03  1.08196E+04  1.56540E+03
  2.50696E+03  1.37912E+04 -1.00985E+04  1.30065E+04 -1.57696E+04  3.81353E+03 -2.50587E+04 -7.31103E+03
 -1.27594E+04 -1.48863E+04  1.13408E+04 -2.16721E+04  2.30858E+04 -2.00800E+04  2.03000E+04  4.55428E+03
  9.98699E+03  1.21912E+04 -4.85645E+03  2.03431E+04 -1.61994E+04  7.69106E+03 -1.36457E+04 -4.32655E+03
 -1.42088E+04 -1.34270E+04 -4.82749E+03 -6.49084E+03  5.53243E+03 -1.39976E+04  9.38568E+03 -5.76930E+03
  7.47589E+03 -1.67425E+03 -3.03451E+03  5.62690E+03 -3.41042E+03  1.70309E+03  4.72070E+03 -6.27992E+03
  7.66957E+03 -7.79228E+03  1.02128E+04  3.89074E+03  1.62442E+04  6.00862E+03  1.71844E+04  1.96272E+04
 -8.01561E+03  2.34985E+04 -2.75284E+04  1.46319E+04 -3.37471E+04  8.62765E+02 -2.52884E+04 -6.24007E+03
 -1.22582E+04 -1.81631E+04 -6.77080E+03 -1.69643E+04  3.88250E+03 -7.98714E+03  2.98270E+03 -8.11600E+03
  1.29363E+04 -6.84258E+03  9.77780E+03 -3.06526E+03  5.60839E+03 -3.15977E+03  1.21906E+04  2.15122E+03
  1.97455E+04 -9.56903E+02  8.62065E+03  6.02788E+03 -6.90574E+02  1.67279E+04 -1.42189E+04  7.92837E+03
 -1.87797E+04 -5.86279E+03 -1.47295E+04 -8.79186E+03 -3.09993E+03 -1.65185E+04  3.35469E+03 -2.82391E+04
  1.83465E+04 -8.89468E+03  3.00611E+04  6.78470E+03  1.43861E+04  1.58153E+04 -5.64056E+02  2.24222E+04
 -4.11261E+03  2.48128E+04 -7.62485E+03  1.06960E+04 -8.51942E+03  6.25170E+03 -5.12648E+03  2.67713E+03
  1.68536E+03  2.04004E+03 -8.10712E+03  1.21417E+04 -4.21834E+02  6.15489E+02 -6.33733E+03 -6.05403E+02
 -8.07980E+03 -1.20005E+04 -3.24844E+03 -2.06666E+04  1.29829E+04 -1.71221E+04  1.60721E+04  7.21834E+02
  2.30835E+04  9.87802E+03  1.22626E+04  8.36810E+03  3.12624E+02  2.17588E+04 -1.29165E+04  8.05517E+03
 -2.58782E+04 -1.87296E+03 -7.02101E+03 -6.79396E+03  1.92040E+03 -1.23452E+04  1.51054E+04 -8.60522E+03
  7.13430E+03 -5.65873E+02  8.50148E+03  7.47468E+02  5.22212E+03  7.61187E+03 -2.11318E+03  2.23092E+02
  4.50847E+03  4.35447E+03  2.95785E+03 -8.73932E+02  7.66453E+03  7.79903E+02  2.94396E+03  1.38249E+04
 -2.88181E+03  1.03191E+04 -9.72424E+03  1.49088E+04 -1.47801E+04  6.34616E+03 -1.64045E+04 -1.36220E+04
 -1.43337E+04 -1.59658E+04 -3.62928E+03 -2.19414E+04  1.13022E+04 -1.43522E+04  1.23164E+04 -1.26169E+04
  8.28219E+03  9.72371E+03 -3.95203E+01  7.00622E+03 -5.76973E+03  9.88335E+03 -8.08015E+03  2.71868E+03
 -4.81863E+03 -3.56617E+03 -4.77750E+02 -7.58194E+03  9.83985E+02 -1.43599E+03  4.75911E+03  1.61962E+03
  2.82101E+03  1.15714E+03  7.47257E+03  7.10852E+03 -4.03811E+03 -1.13434E+03 -7.35092E+03 -4.16349E+03
  5.63847E+03  1.96086E+03  7.40060E+03  1.38370E+03  7.51904E+03  1.12811E+04 -7.95493E+03  1.17230E+04
 -1.01510E+04  5.23054E+03 -1.33662E+04  1.05378E+04 -8.81851E+03 -2.35394E+03 -7.11676E+03  3.00119E+03
 -7.63048E+03 -1.04516E+04  4.12386E+03 -9.01895E+02  1.35577E+03  1.22119E+04 -1.09239E+04  1.39062E+04
 -1.12108E+04  8.35277E+03 -7.43262E+03 -3.44082E+02 -3.52211E+03 -5.97138E+03  5.37087E+03 -8.36503E+03
  3.17026E+03 -2.40830E+03  4.26407E+03  1.50267E+03  1.04937E+04  4.49441E+02  3.54710E+03  5.79794E+03
  6.49339E+02 -3.35724E+03 -9.59207E+02  5.04676E+03  6.69244E+03 -9.88205E+03  4.86749E+03 -8.06903E+03
  1.73961E+04 -3.65725E+03  1.82548E+04  5.03076E+03 -1.55383E+02  9.53912E+03 -4.56306E+03  1.08788E+04
 -1.06138E+04  6.99599E+03 -7.58780E+03 -2.57285E+03 -4.13485E+03 -1.22457E+04 -3.85367E+03 -7.39526E+03
  6.22393E+03 -2.85499E+03  3.21275E+03 -3.66137E+03  1.15116E+03  1.38051E+04 -1.98793E+03  7.81307E+03
 -1.39370E+03  2.49095E+03 -5.01191E+03  3.74531E+03  1.35068E+03 -1.71949E+03  1.13265E+03  3.74591E+03
 -5.81505E+03  1.13864E+04 -1.08110E+04  7.86919E+03 -1.10949E+04 -6.43557E+03 -1.84971E+04 -5.53344E+03
 -1.24714E+04 -1.78549E+04  7.68857E+03 -2.40691E+04  1.39512E+04 -1.91676E+04  2.63654E+04 -8.62211E+03
  2.13305E+04  7.29401E+03  7.35729E+03  1.68484E+04  6.74973E+02  1.42570E+04 -6.80161E+03  8.76998E+03
 -1.09713E+04  1.18241E+04  2.86632E+02  3.99071E+02 -4.40327E+02 -3.23912E+03  2.00847E+02  3.76349E+03
 -1.67462E+03 -2.08461E+02 -8.56365E+03 -1.39500E+03 -4.44167E+03 -7.19278E+02  7.95590E+03 -6.91207E+03
  6.77718E+03 -2.19400E+02  1.35325E+04 -5.39437E+03  1.30439E+04  6.50457E+03  5.80511E+03  1.98117E+04
 -1.43108E+04  8.36798E+03 -1.36609E+04  5.43878E+03 -2.51978E+04 -4.62001E+03 -1.50412E+04 -1.31991E+04
 -3.86076E+03 -2.19683E+04 -1.26151E+03 -8.04085E+03  9.23218E+03 -5.88719E+03  1.45231E+04 -2.94961E+03
  8.46074E+03  5.00372E+03  4.88742E+02 -5.51146E+03 -1.26540E+04  7.20084E+03 -2.86172E+03 -6.08526E+03
  7.21178E+03  1.40952E+03  7.20287E+03  8.26037E+02  4.38069E+03  5.03502E+03 -9.49827E+03  6.16710E+03
 -8.34711E+03  3.77169E+03 -1.23844E+04  2.99443E+03 -9.27959E+03 -3.69919E+03  5.69308E+02 -1.05983E+04
  4.27379E+03 -8.95065E+03  7.24216E+03 -1.17889E+04  9.65604E+03  1.60163E+03 -9.93541E+02  4.76643E+03
  4.97586E+03  8.98091E+03 -8.41329E+03  8.38243E+03  1.16325E+03 -1.86813E+03 -6.64438E+03 -5.17074E+03
 -5.86660E+03  1.03361E+03  7.10594E+02 -1.48166E+03 -1.04660E+04 -5.74406E+03 -4.39132E+03 -3.70637E+03
 -8.98576E+03 -6.36081E+03 -1.33750E+04 -1.24585E+04  2.28598E+03 -8.15101E+03  1.30264E+04  3.48768E+03
  7.10436E+03 -4.06979E+03  5.73808E+03  8.04654E+03 -3.28586E+03  1.10986E+04 -4.52941E+03  5.56986E+03
