 $NMID ID='MM_0lb_SNR50_18hz_g50_42.RAW', FMTDAT='(8E13.5)'
 TRAMP=1., VOLUME=1. $END
  3.09007E+05 -1.92493E+03  3.37718E+05  2.48556E+05  8.75032E+04  3.31915E+05 -1.33132E+05  2.47673E+05
 -1.87526E+05  8.39615E+04 -1.07766E+05 -3.35223E+04  6.72731E+02 -5.12360E+04  5.43496E+04 -2.68417E+03
  3.74792E+04  5.13898E+04 -1.64782E+04  7.60404E+04 -6.01940E+04  6.14704E+04 -8.37980E+04  3.18708E+04
 -8.28962E+04 -1.23163E+04 -5.40183E+04 -5.07136E+04 -1.57697E+04 -7.13392E+04  2.44993E+04 -4.13274E+04
  3.79165E+04  2.13881E+03  2.10189E+04  4.27872E+04 -3.23205E+04  4.76091E+04 -6.34505E+04  1.74475E+03
 -5.22908E+04 -5.80370E+04 -8.06244E+03 -7.80150E+04  3.07811E+04 -5.54470E+04  4.69671E+04 -1.91221E+04
  4.26946E+04  1.18553E+04  3.31124E+04  2.29187E+04  2.06280E+04  2.76949E+04 -7.50696E+03  2.79304E+04
 -2.21083E+04  1.05812E+04 -2.46410E+04 -2.00689E+03  6.28804E+03 -8.86439E+03  2.19704E+04  9.24581E+03
  3.26527E+03  3.28268E+04 -2.61335E+04  3.19523E+04 -6.24900E+04  2.11931E+03 -5.39119E+04 -4.29440E+04
 -1.30460E+04 -5.75544E+04  3.83364E+04 -4.76067E+04  5.60910E+04 -2.78322E+02  3.35707E+04  2.87083E+04
 -9.24243E+03  3.27682E+04 -2.86551E+04  1.29573E+04 -3.23930E+04 -4.83554E+03 -1.58151E+04 -1.11889E+04
 -9.03143E+03 -1.25983E+04 -5.90938E+03 -1.53603E+04  6.98502E+03 -2.03587E+04  1.49306E+04 -8.72085E+03
  8.00322E+03  3.35162E+03 -3.06852E+03  1.45151E+04 -2.25471E+04 -4.45066E+03 -7.83826E+03 -3.50915E+04
  2.22540E+04 -4.09982E+04  4.66434E+04 -1.90450E+04  4.32665E+04  2.01823E+04  1.26291E+04  3.99755E+04
 -1.76301E+04  3.12804E+04 -2.25401E+04  2.29228E+03 -7.82700E+03 -2.45294E+04  1.94224E+04 -3.03874E+04
  3.91690E+04 -6.83873E+03  2.97379E+04  1.94099E+04  1.56321E+04  4.27156E+04 -8.88480E+03  4.48047E+04
 -2.75416E+04  3.21213E+04 -4.25891E+04  5.55964E+03 -3.64363E+04 -1.59137E+04 -2.28869E+04 -3.80035E+04
  4.29759E+03 -3.76304E+04  3.13226E+04 -1.40406E+04  2.64619E+04  9.96872E+03  5.21189E+03  2.01836E+04
 -1.26471E+04  2.91574E+03 -1.18981E+04 -8.13315E+03  2.95866E+03 -1.33834E+04  1.75906E+04  6.97539E+03
  1.23526E+04  2.25216E+04 -4.92151E+03  2.02095E+04 -2.64349E+04  9.96715E+03 -2.59473E+04 -5.62427E+03
 -1.99901E+04 -1.47195E+04 -8.37393E+03 -1.69454E+04  9.97259E+02 -1.49070E+04  1.04502E+04 -1.68733E+04
  1.93551E+04 -1.21037E+04  2.68623E+04 -1.06508E+03  2.54873E+04  1.33140E+04  7.07352E+03  3.32138E+04
 -2.06730E+04  2.70757E+04 -2.54962E+04  1.23790E+04 -1.80581E+04 -5.80893E+03 -3.76848E+03 -1.57582E+04
  2.54341E+03 -1.55689E+03  4.03783E+03  4.62936E+03 -1.09584E+04  5.04676E+03 -1.45500E+04 -5.66638E+03
 -1.02032E+04 -1.77256E+04  2.15842E+02 -2.75620E+04  1.33128E+04 -1.26997E+04  1.76531E+04 -3.62613E+03
  7.84850E+03  1.05979E+04  1.23925E+03  1.79816E+04 -1.81212E+04  1.14363E+04 -1.47032E+04  6.03447E+02
 -1.36586E+04 -1.54161E+04  2.52489E+02 -1.84852E+04  9.90844E+03 -1.60648E+04  1.28589E+04 -9.01022E+03
  1.39760E+04  1.54763E+03  1.03213E+04  1.37497E+03  2.53643E+03  1.45045E+03  5.36389E+03  6.22444E+02
  1.29451E+04  1.96054E+03  1.64343E+04  9.19326E+03  1.04753E+04  2.76368E+04 -3.38879E+03  2.81279E+04
 -1.62492E+04  1.93488E+04 -2.70693E+04  1.07132E+04 -2.56409E+04  8.09958E+02 -2.42033E+04 -1.27068E+04
 -7.40991E+03 -2.51288E+04  7.31811E+03 -1.81460E+04  2.10503E+04 -1.17525E+04  1.25591E+04  7.77945E+03
  1.19829E+04  1.05186E+04 -8.71966E+03  7.48420E+03 -1.86122E+04  2.04007E+02 -9.31318E+03 -9.34374E+03
 -2.43432E+03 -1.29255E+04  3.31322E+03 -8.04464E+03  7.00061E+03  6.01085E+02 -7.62905E+02  4.24364E+03
 -4.70150E+03  1.29628E+03 -2.39485E+03 -3.79484E+03  3.64735E+02 -1.20956E+04  7.67408E+03 -1.12569E+04
  1.00933E+04 -2.17491E+03  1.23701E+04  2.72529E+03  1.22503E+04  9.72756E+03  5.75252E+03  1.44972E+04
  2.42971E+03  1.79268E+04 -1.23239E+04  1.12074E+04 -9.94009E+03 -3.71787E+02 -4.95150E+03 -1.94627E+03
 -5.25560E+03 -3.14767E+03 -1.85745E+03  4.41737E+03 -6.81644E+03  3.84283E+01 -1.43478E+03  2.46990E+03
 -5.50527E+03 -1.24572E+03 -1.03965E+04 -6.13442E+03 -4.63878E+03 -8.76900E+03  2.66767E+03 -7.49448E+03
  1.06575E+04 -4.47537E+03  2.31871E+03  3.59981E+03  3.10351E+02  9.13200E+02 -8.42904E+03  7.52204E+01
 -5.46081E+03 -6.05164E+03 -1.99428E+03 -6.83641E+03  1.15034E+03 -8.03986E+03  1.56239E+04 -2.71690E+03
  1.39883E+04  4.35230E+03  8.68408E+03  4.67602E+03  2.86362E+03  6.06938E+03 -5.77247E+03  6.15294E+03
 -5.89435E+03  2.29599E+03 -1.92555E+03 -1.62075E+03  2.41513E+01  4.55610E+02  4.52226E+03 -4.80064E+02
  4.58785E+03  2.88402E+03  3.03137E+03  9.34881E+03 -3.04897E+03  1.58024E+03 -1.09579E+04  3.55956E+03
 -5.06396E+03  3.35456E+02  2.49833E+03 -8.80945E+03  1.55675E+03 -6.98670E+03  2.93447E+03  1.61575E+03
 -1.80378E+03 -1.16399E+03 -8.09968E+03  4.71125E+03 -4.15407E+03  2.37266E+03 -2.95456E+03 -1.58329E+03
 -2.38484E+03 -6.66658E+03  4.54726E+03 -7.45197E+03  1.83100E+03 -1.48201E+03  9.16741E+03  3.58639E+03
  3.83374E+03  2.74152E+03 -1.86134E+03  8.97443E+03 -6.58398E+03  5.90804E+03 -8.25884E+03 -2.64265E+03
 -4.39280E+03 -8.55419E+03 -7.60589E+02 -4.94999E+03  2.55970E+03 -7.27081E+03  3.47541E+03 -2.99573E+03
  2.89950E+03  6.21480E+01  4.56193E+03  4.40787E+03  3.36812E+03 -1.73628E+03 -2.62866E+03 -2.92806E+02
  3.30113E+03  2.36044E+03  9.95056E+03 -2.30941E+03  8.89783E+03  3.12050E+03  9.29370E+03  8.09925E+03
 -1.57729E+03  9.69288E+03 -5.77220E+03  7.68847E+03 -1.12272E+04  2.22396E+03 -6.18495E+03 -2.66039E+03
 -6.10789E+03 -8.46058E+03  3.87630E+01 -8.38000E+03  2.70817E+03 -2.55627E+03  1.29584E+03 -4.19705E+03
  1.08716E+03 -2.03825E+03  4.21133E+02  2.34924E+03  2.05984E+02 -6.15908E+03  5.03547E+02  6.71160E+02
  3.34409E+03  2.20177E+03  2.03351E+03  5.25715E+03 -6.27999E+02  5.32675E+03 -5.64202E+03  2.06871E+03
 -7.03887E+03 -3.12588E+03 -3.77530E+03 -1.08961E+04  2.56750E+03 -7.98384E+03  7.97057E+03 -4.76861E+03
  1.03270E+04 -4.76381E+03  5.82747E+03  5.75384E+03  6.56537E+03  4.47574E+03  3.07880E+03  3.76456E+03
 -1.10307E+03  8.13153E+03 -1.12649E+03  5.12727E+02 -2.27154E+03  2.31335E+03 -3.98002E+02  1.86774E+02
  8.32702E+02  2.19394E+03  1.49163E+03  3.18108E+03 -2.98153E+03 -6.23896E+02 -5.40499E+03  1.43778E+03
 -7.05345E+03 -8.38652E+02  1.73619E+03 -4.45387E+03  5.34774E+03 -9.38687E+03  4.88951E+03 -2.58038E+03
  4.93335E+03  1.97667E+03  6.82235E+01 -2.67193E+02  7.40988E+02  4.53380E+03  1.41571E+02 -2.54622E+03
 -8.66066E+03  1.57974E+02 -7.14264E+03 -4.65547E+03  2.07615E+03 -5.80167E+03  4.07252E+03 -3.82188E+03
  4.30979E+03 -1.10475E+03  6.60358E+03 -2.32462E+03  3.69124E+02  1.01261E+03  2.78733E+03 -4.71142E+03
  4.38568E+03  1.45494E+03 -2.78468E+03  1.82198E+02 -1.53007E+03  4.58216E+03  2.55967E+03  2.48866E+03
 -3.69374E+03  6.55998E+03 -2.98239E+03  2.29565E+03 -7.94978E+03  1.18346E+03 -4.23580E+03 -2.06000E+03
 -1.47477E+03 -2.75512E+03  1.86211E+03 -1.10643E+04 -2.58045E+03 -2.85098E+03  4.83057E+03  1.20085E+03
  2.33828E+03  1.00330E+03 -1.52953E+03  4.48808E+03 -2.66433E+03  1.72281E+03 -6.50775E+03 -4.79475E+03
  2.99013E+03 -4.66722E+02  1.69197E+03 -4.89033E+03 -1.05263E+03  1.61004E+03  2.96999E+03  4.19678E+03
  2.00141E+03  6.52967E+03  1.88568E+03  4.25351E+03  1.59479E+03  7.24451E+02 -1.56190E+02  7.08940E+02
  2.04480E+03 -2.87060E+03  4.01756E+03  9.47839E+02  2.02652E+03 -1.30831E+03 -4.77644E+03  4.89206E+03
 -5.08972E+02  3.39386E+03  1.12285E+03  1.18795E+03 -3.44814E+03  9.91910E+01 -4.02600E+03  2.92870E+02
 -1.50029E+02  3.58038E+03 -1.82889E+03 -1.25511E+03  1.06634E+03 -2.76442E+03  1.95937E+03  3.36776E+03
 -1.26150E+02 -2.34566E+03 -3.31386E+03  1.86688E+03 -5.09342E+02  1.07611E+03  1.48540E+03 -4.13683E+02
 -5.00713E+02 -6.32477E+02  3.13520E+02  1.06270E+03  3.46126E+02  1.13123E+03  1.45338E+02 -1.93033E+03
  4.91038E+03  4.48161E+03  3.80479E+02  1.81557E+03  6.77260E+02  5.92896E+03  1.66692E+03 -2.06224E+03
  1.87873E+03  2.57797E+03  3.18335E+03  3.87330E+02  1.82158E+03 -7.42546E+02 -2.48662E+02  6.93266E+03
 -3.01385E+03  5.77787E+03 -2.80518E+03 -9.25018E+02 -5.60668E+03 -3.92499E+03  4.21538E+03 -1.36302E+03
  3.90494E+03 -2.59249E+03  1.69481E+03 -7.25880E+02  3.46499E+03  2.35654E+03 -3.34015E+03  1.14455E+03
 -2.30279E+03 -7.11002E+02 -5.09970E+02  1.29437E+03 -1.70346E+03  1.96123E+03 -3.25824E+02  3.87391E+01
 -7.76559E+03 -2.02596E+03 -1.16208E+02  1.38167E+03  1.74533E+03  5.43776E+02 -6.01614E+02  1.56253E+03
  1.91237E+02 -4.79273E+03 -4.08580E+03 -3.11263E+03  5.12049E+02  1.33079E+03  2.97133E+03 -1.50775E+03
 -1.52037E+03  1.10959E+02  3.23580E+03  2.91636E+02 -8.28688E+02  8.51701E+02 -2.86229E+03  5.00755E+03
  7.63265E+02  1.78745E+03  2.11624E+03 -2.43160E+03 -2.47249E+03  6.86511E+02  6.19156E+02  2.58010E+03
 -1.39424E+03  1.98204E+03 -9.40315E+01 -2.91156E+03 -4.23368E+02  2.13943E+02  1.11615E+03  3.15260E+02
 -1.08075E+03 -2.91349E+03  2.50880E+03 -3.25213E+03  4.25092E+03  7.76157E+02 -1.39380E+03  6.80485E+02
  4.14194E+03  2.46577E+03 -2.52070E+03  4.77753E+03 -1.04093E+04 -6.33626E+03  5.22791E+02  2.94091E+02
  2.17105E+01 -2.07418E+03 -1.90142E+03 -3.69865E+03 -1.80699E+03 -2.84975E+03 -1.26217E+03 -1.19558E+03
  2.54731E+03  2.73307E+03  3.52970E+03  2.17491E+03  2.92276E+02  8.54898E+02 -5.11528E+02 -1.23147E+03
 -3.51015E+03  8.80439E+02  4.44993E+03  2.15836E+03  1.04124E+03 -9.05274E+02  3.67860E+02 -3.47062E+02
  1.24827E+03  1.96915E+03  3.30379E+03 -6.24562E+02 -1.53158E+03  2.08755E+02 -2.60423E+03 -3.06154E+03
  2.52690E+03 -1.37690E+03  1.70052E+03 -6.55700E+03  5.05518E+03 -6.56071E+02 -5.37658E+03  3.12980E+02
  1.36621E+02  1.10817E+03 -2.58199E+03  4.94208E+02  3.05432E+03  1.44796E+02  4.24116E+02 -4.04334E+03
  3.31529E+03  1.08667E+03  3.63619E+02  9.54236E+02 -2.47389E+03 -1.38462E+03  7.89858E+02 -1.63807E+03
 -4.69197E+02  1.81685E+03 -2.75943E+03 -9.77267E+02 -1.25064E+03 -4.89209E+02 -9.38079E+02 -7.25448E+02
  8.60043E+02 -3.62046E+03  3.63958E+03 -6.62823E+01  1.65152E+03  2.45731E+03  3.04468E+01  3.01098E+03
