 $NMID ID='MM_0lb_SNR50_7hz_g45_43.RAW', FMTDAT='(8E13.5)'
 TRAMP=1., VOLUME=1. $END
  3.05539E+05 -2.06716E+03  3.41038E+05  2.50161E+05  9.58889E+04  3.33225E+05 -1.30833E+05  2.49550E+05
 -1.91054E+05  8.39284E+04 -1.09779E+05 -3.45644E+04 -1.27571E+02 -5.17706E+04  5.73137E+04 -3.35941E+02
  3.60877E+04  5.61126E+04 -1.82037E+04  6.78547E+04 -6.08887E+04  6.44150E+04 -8.60842E+04  2.31066E+04
 -9.08928E+04 -1.38072E+04 -6.47578E+04 -5.19830E+04 -5.15363E+03 -7.07558E+04  3.06181E+04 -4.92184E+04
  4.47678E+04  7.39659E+03  1.11427E+04  4.93587E+04 -3.90052E+04  5.30771E+04 -6.58268E+04  9.87253E+02
 -5.74833E+04 -5.60917E+04 -6.96886E+03 -7.59155E+04  2.88169E+04 -5.91915E+04  4.03171E+04 -1.94981E+04
  4.28774E+04  1.80330E+04  3.43477E+04  2.39099E+04  1.39370E+04  2.97088E+04 -6.63821E+03  2.90464E+04
 -2.37910E+04  1.33286E+04 -1.73694E+04 -9.48843E+02  2.74317E+03 -7.10899E+03  2.78227E+04  1.45644E+04
  1.15830E+04  3.56714E+04 -3.26192E+04  4.03781E+04 -7.11389E+04 -9.60292E+02 -6.28189E+04 -4.68345E+04
 -9.57171E+03 -6.84277E+04  4.08859E+04 -5.32932E+04  5.94063E+04 -9.46797E+02  3.77475E+04  4.03558E+04
 -4.03477E+03  4.17837E+04 -2.24061E+04  2.14936E+04 -3.44007E+04 -1.84265E+03 -2.71306E+04 -1.67172E+04
 -1.12406E+04 -1.22447E+04  4.34205E+03 -1.72968E+04  7.70147E+03 -3.09732E+04  1.34770E+04 -1.37401E+04
  1.29133E+04  2.65965E+03 -4.48768E+03  1.46249E+04 -2.63183E+04 -6.02002E+03 -8.75575E+03 -3.76555E+04
  2.72013E+04 -3.85387E+04  4.94874E+04 -2.38021E+04  5.41686E+04  2.51682E+04  2.00318E+04  5.40291E+04
 -1.42756E+04  4.09554E+04 -2.43388E+04  4.66252E+03 -1.10560E+04 -2.74105E+04  2.45460E+04 -4.38643E+04
  4.08283E+04 -1.10373E+04  4.13581E+04  2.55725E+04  2.11224E+04  4.74597E+04 -7.38070E+03  5.82033E+04
 -3.24363E+04  3.76098E+04 -5.23655E+04  7.15078E+03 -4.67865E+04 -1.87950E+04 -2.29646E+04 -4.77943E+04
  9.03063E+03 -4.01036E+04  3.01295E+04 -1.37933E+04  3.10210E+04  8.91708E+03  7.03096E+03  2.71408E+04
 -1.68715E+04  8.68596E+03 -1.15480E+04  1.95560E+03  3.80550E+03 -7.39446E+03  1.60756E+04 -4.87442E+02
  1.63421E+04  1.78263E+04  7.12777E+02  2.23168E+04 -2.55141E+04  1.66336E+04 -3.53863E+04 -1.28850E+04
 -2.47105E+04 -1.49425E+04 -1.20303E+04 -3.03275E+04  2.40538E+03 -3.26449E+04  1.97423E+04 -2.82045E+04
  3.48031E+04 -1.83125E+04  4.37303E+04  4.24331E+03  2.92802E+04  3.21869E+04  1.00216E+04  4.71484E+04
 -2.97191E+04  2.88034E+04 -3.00629E+04  8.67595E+03 -2.18065E+04 -7.47326E+03 -1.15443E+04 -1.71640E+04
 -4.87118E+02 -2.15773E+03 -3.36983E+03  6.30559E+03 -2.28129E+04  3.63245E+03 -2.25605E+04 -1.11827E+04
 -1.09529E+04 -2.72600E+04  9.44080E+03 -3.09002E+04  1.99782E+04 -1.79620E+04  1.85504E+04 -2.81871E+03
  1.53190E+04  1.67203E+04 -7.24418E+03  1.81111E+04 -2.25881E+04  1.69371E+04 -2.59955E+04 -5.18750E+03
 -1.85799E+04 -2.28671E+04 -8.46928E+03 -2.93811E+04  2.71293E+03 -2.88395E+04  2.67033E+04 -1.60467E+04
  2.35377E+04  9.17478E+02  1.80634E+04  5.65827E+03  7.78230E+03 -7.69670E+02  1.43759E+04  4.59225E+03
  2.43911E+04  1.14990E+04  1.87766E+04  1.92893E+04  1.80539E+04  4.49698E+04  9.92673E+03  4.71938E+04
 -2.71409E+04  3.54286E+04 -4.29643E+04  2.78386E+04 -5.16534E+04 -3.34472E+03 -4.67480E+04 -2.06486E+04
 -1.77123E+04 -3.94353E+04  1.53284E+04 -3.30930E+04  2.30189E+04 -1.24603E+04  2.86565E+04  7.87827E+03
  1.93066E+03  2.59478E+04 -1.66896E+04  1.85343E+04 -1.89383E+04  7.65587E+02 -7.06189E+03 -1.25609E+04
 -1.36877E+03 -1.96241E+04  1.19882E+04 -1.35849E+04  1.49909E+04  9.57520E+01  2.80911E+03  1.03060E+04
 -7.10936E+03  9.05950E+03 -4.83498E+03 -2.08072E+03 -2.30513E+03 -2.04606E+04  1.62919E+04 -2.46343E+04
  2.98121E+04 -1.85793E+04  2.35965E+04  9.61745E+03  2.93360E+04  2.09661E+04  1.32626E+04  3.30562E+04
 -5.00192E+03  3.38107E+04 -2.38974E+04  2.78769E+04 -3.26050E+04  7.78834E+03 -2.08341E+04 -1.48414E+04
 -3.03754E+03  2.26154E+03 -1.46786E+03  6.87017E+03 -4.54115E+03  1.07237E+04 -2.69106E+03  7.83841E+03
 -1.55393E+04 -7.01368E+03 -1.80581E+04 -2.00998E+04 -6.21660E+03 -2.19927E+04  4.30807E+03 -2.21525E+04
  1.26792E+04 -1.42218E+03  8.94366E+03  8.71388E+03  2.10858E+03  7.20575E+03 -6.04111E+03 -5.10743E+03
 -1.00619E+04 -1.21056E+04  2.48989E+03 -2.27044E+04  5.45566E+03 -2.09478E+04  1.61082E+04 -1.32396E+04
  2.33922E+04  7.89786E+03  1.64464E+04  1.09682E+04  4.78484E+03  2.46240E+04 -1.40959E+04  6.83796E+03
 -1.08202E+04  4.41213E+03 -8.94630E+03 -9.19038E+03  4.94215E+03 -6.09327E+03  1.22718E+04 -6.35648E+03
  5.23526E+03  1.82887E+03  2.64472E+03  1.68536E+04 -1.23151E+04  1.06489E+04 -1.36874E+04  3.19807E+03
 -1.49733E+04 -4.72120E+03  2.07764E+03 -1.22281E+04  1.09033E+04 -7.24535E+03  1.80660E+04  1.03857E+03
  1.35452E+03  1.43112E+04 -1.22633E+04  1.01877E+04 -1.30429E+04  5.82077E+03 -1.57051E+04 -2.28079E+03
 -1.04231E+04 -2.19007E+04  5.55628E+03 -1.72421E+04  1.63754E+04 -1.18369E+04  2.33025E+04  5.75116E+02
  1.40001E+04  5.71896E+03  2.10073E+03  1.02667E+04 -1.47127E+04  3.82497E+03 -1.91171E+04 -1.60292E+03
 -1.66662E+04 -1.09322E+04  1.38839E+03 -9.33287E+03  5.85415E+03 -3.83744E+03  1.00141E+04  8.62381E+02
  5.99536E+03  3.41368E+03 -1.74786E+03 -2.83318E+02  4.27191E+03  2.86674E+01  5.52351E+03 -1.17584E+04
  7.00142E+03 -1.13683E+04  1.36838E+04  1.30151E+03  1.77932E+04  1.40100E+04  1.52540E+04  2.80404E+04
 -5.28324E+03  3.03353E+04 -2.35471E+04  2.23970E+04 -2.20888E+04  4.27699E+03 -2.51461E+04 -7.75522E+03
 -1.39052E+04 -2.61859E+04  1.45901E+03 -1.17442E+04  8.19594E+03 -1.16240E+04  7.17760E+03 -5.62513E+03
  2.37354E+03 -1.00468E+04  9.66319E+03  3.57246E+03  1.64081E+03  9.25638E+02  6.24700E+03  3.12465E+03
  1.12222E+04  3.51104E+03  8.87525E+03  7.50502E+03 -9.37700E+03  1.32469E+04 -1.56472E+04  1.27067E+04
 -2.25953E+04  1.19319E+03 -5.91162E+03 -1.55616E+04 -6.27803E+03 -1.64614E+04  1.85801E+04 -1.16673E+04
  1.73236E+04 -1.69850E+04  2.44422E+04  8.14921E+03  1.29341E+04  2.62392E+04  3.93704E+03  2.33623E+04
 -8.11860E+03  1.08533E+04 -1.72101E+04  6.92351E+03 -1.12105E+04 -1.73919E+03 -7.11279E+03 -1.06686E+04
 -2.41608E+03  3.06674E+03  3.22654E+03  8.01111E+03 -7.86838E+03  1.05216E+04 -1.75540E+04  2.39823E+03
 -1.19138E+04 -1.20783E+04  4.14079E+03 -1.29819E+04  1.56065E+04 -2.00428E+04  1.96657E+04  1.35599E+03
  1.47363E+04  3.37164E+03  1.18796E+04  2.30153E+04 -6.61117E+03  1.83235E+04 -1.10216E+04  1.24225E+04
 -2.05577E+04  1.77432E+03 -1.45563E+04 -8.85858E+03 -2.02945E+02 -1.39696E+04  9.20445E+03 -6.40155E+03
  1.62607E+04 -2.39651E+03  3.82981E+03  4.65023E+03  1.49016E+03  1.09685E+04  4.15407E+03  4.73844E+03
 -5.05621E+01  2.81996E+03  5.09891E+03  7.19330E+03  8.09698E+03  6.41536E+03  7.55156E+02  9.50715E+03
 -4.77681E+03  1.63613E+04 -1.68156E+04  1.12638E+04 -1.80889E+04 -5.41720E+02 -2.51663E+04 -1.32446E+04
 -7.80103E+03 -1.27586E+04  5.36287E+03 -2.24609E+04  6.26029E+03 -1.92106E+04  1.05085E+04  2.57974E+02
  5.17719E+03  1.36050E+04  1.42202E+02  7.34940E+03 -8.55444E+03 -1.09575E+03 -7.88640E+03 -1.13282E+03
 -6.50991E+03 -5.36860E+03  1.59391E+02 -3.44424E+03  7.14725E+03 -2.04860E+03  8.39498E+03  1.82950E+03
  2.70614E+03  7.28277E+03  1.94723E+03  8.29081E+03  1.07629E+03  1.29960E+03  3.23504E+03  1.33019E+03
 -7.60501E+03 -9.79899E+03  9.57452E+03  1.43444E+04  6.15350E+03  1.46806E+04 -4.17038E+03  1.33003E+04
 -1.03883E+04  1.41980E+04 -1.57851E+04 -5.06144E+02 -5.95282E+03 -3.92990E+03 -4.18441E+03 -5.47514E+03
  1.13728E+04 -9.75631E+03  2.49892E+03 -8.61107E+03  2.53932E+02 -4.64445E+03  3.47036E+02  5.29642E+03
 -9.39449E+03  5.65918E+03 -1.11121E+04 -8.49986E+03  4.42178E+03 -1.23120E+04  7.86974E+03 -7.54065E+03
  5.71029E+03 -5.83317E+03  6.81110E+03 -1.22324E+03  1.14470E+04  8.59483E+03  3.84864E+02  5.82468E+03
 -1.34062E+03  1.72648E+03 -8.61115E+03 -5.75789E+03  1.00478E+04 -1.13710E+04  1.11524E+04 -1.48893E+04
  1.61914E+04  1.05307E+03  1.15168E+04  1.04158E+04  1.98062E+02  1.44190E+04 -7.68343E+03  1.08554E+04
 -1.15874E+04  2.10618E+03 -5.20872E+03  1.29867E+03 -6.35492E+03 -6.71702E+03  3.34855E+03 -6.71592E+03
  8.11663E+03 -4.04605E+03  5.69089E+02  1.04514E+03  6.71422E+03  7.20246E+03  1.46506E+03  2.60138E+03
 -1.95542E+03  9.84365E+03 -1.07731E+03 -2.44255E+03 -4.46039E+03 -1.60629E+03 -4.79757E+03  3.46420E+03
 -5.20700E+03  9.14490E+03 -1.49954E+04  3.98051E+03 -7.08221E+03  6.16169E+03 -1.68786E+04 -3.91149E+03
 -8.49839E+03 -1.57829E+04  1.03616E+04 -1.93946E+04  1.43842E+04 -1.85463E+04  1.98553E+04 -2.42454E+03
  2.00309E+04  8.36411E+03  1.33552E+04  2.00977E+04 -3.54703E+03  1.55542E+04 -6.80629E+03  1.26465E+04
 -5.04466E+03 -3.71156E+03 -1.15945E+04  2.97191E+03 -1.45231E+02  2.53994E+03 -1.71153E+03  1.41766E+03
 -7.11932E+02  1.20600E+04 -9.23767E+03  7.48832E+03 -4.09646E+03 -2.41934E+03 -4.08658E+03 -1.01273E+03
  3.57991E+03  3.64049E+03  1.37439E+04  2.39786E+03  9.73506E+03  1.33956E+04  3.32516E+03  1.77074E+04
 -8.11868E+03  1.61584E+04 -1.92992E+04  1.65832E+04 -2.55172E+04 -9.46029E+02 -1.60464E+04 -9.93097E+03
 -1.06945E+04 -1.38066E+04  8.09412E+03 -1.45031E+04  1.76816E+04 -3.33620E+03  1.23404E+04  4.08973E+02
  1.05190E+03  5.43949E+03 -1.04639E+03  8.65471E+03  5.22044E+01  7.92021E+02  5.75277E+03 -3.09538E+03
  6.80343E+02  3.30775E+03  3.30347E+03 -4.23931E+02 -5.10321E+02  4.03416E+03 -9.31217E+02  9.62792E+03
 -6.48839E+02  4.19088E+03 -1.40812E+04  5.61017E+02 -1.51507E+04 -1.10987E+04 -3.72600E+02 -8.53166E+03
  7.33899E+03 -1.21610E+04  1.40880E+04 -2.61345E+02  1.02682E+04  1.39460E+03  1.29428E+03  6.71475E+03
 -1.18351E+03  1.30823E+04  1.44390E+03  4.46806E+03  3.31526E+03  4.95185E+03 -5.17614E+03 -3.49232E+03
 -8.38837E+02 -1.05067E+03  1.16002E+03  6.20918E+03 -9.53005E+03  2.00868E+03 -1.06367E+04  1.47537E+03
 -4.02959E+03 -1.49741E+04 -4.43262E+03 -1.25676E+04  6.46411E+03 -5.82249E+03  2.47738E+03 -5.91765E+03
  1.37896E+04  3.13255E+02  9.98303E+03  6.04287E+03  4.11665E+03  9.08026E+03 -5.46507E+03  1.11835E+04
