 $NMID ID='MM_0lb_SNR50_18hz_g55_62.RAW', FMTDAT='(8E13.5)'
 TRAMP=1., VOLUME=1. $END
  3.07754E+05  2.03678E+02  3.35912E+05  2.50721E+05  8.40149E+04  3.38922E+05 -1.31483E+05  2.46310E+05
 -1.89266E+05  8.18136E+04 -1.11811E+05 -3.61116E+04 -2.48117E+03 -4.94100E+04  4.98527E+04 -4.13670E+03
  3.15843E+04  5.15836E+04 -1.27971E+04  7.59502E+04 -5.91039E+04  6.28188E+04 -8.62260E+04  3.06992E+04
 -8.05514E+04 -1.25089E+04 -6.04800E+04 -5.58185E+04 -1.31282E+04 -6.44883E+04  2.42110E+04 -4.58674E+04
  4.08525E+04  7.21850E+03  9.71378E+03  4.88183E+04 -3.37786E+04  4.44799E+04 -6.97898E+04  8.29149E+02
 -5.15088E+04 -5.97447E+04 -7.08725E+03 -7.79767E+04  3.48208E+04 -5.23924E+04  4.82497E+04 -1.91205E+04
  4.29629E+04  6.52525E+03  3.38187E+04  2.84373E+04  1.59565E+04  2.60104E+04 -7.86612E+03  2.97443E+04
 -1.85614E+04  1.48158E+04 -2.04368E+04 -4.82341E+03  1.45571E+03 -8.39204E+03  1.92778E+04  1.29211E+04
  7.00258E+03  3.28170E+04 -3.32767E+04  3.52552E+04 -5.91889E+04  4.16917E+03 -5.48503E+04 -4.21572E+04
 -1.60026E+04 -6.22522E+04  3.90403E+04 -4.50242E+04  5.26280E+04 -3.33041E+03  3.40221E+04  3.24479E+04
 -5.49764E+03  3.81974E+04 -2.73804E+04  1.07539E+04 -2.91216E+04 -4.60513E+03 -1.50885E+04 -1.40003E+04
 -4.98768E+03 -5.15519E+03 -1.11081E+03 -1.35774E+04  9.13830E+03 -1.98913E+04  1.62497E+04 -8.47146E+03
  1.09728E+04  3.16075E+03 -8.09133E+03  1.24508E+04 -1.92779E+04 -5.03850E+03 -8.14837E+03 -3.42789E+04
  2.59799E+04 -4.43084E+04  4.54125E+04 -1.88462E+04  3.94969E+04  1.76275E+04  1.63987E+04  4.57851E+04
 -1.75118E+04  2.85521E+04 -2.48891E+04 -1.07982E+03 -6.88231E+03 -2.67739E+04  2.04860E+04 -2.73586E+04
  4.04156E+04 -9.46974E+03  3.20572E+04  2.19670E+04  1.72091E+04  5.12130E+04 -1.05931E+04  4.69314E+04
 -3.22569E+04  2.74595E+04 -3.95765E+04  9.17633E+03 -3.87230E+04 -1.81951E+04 -2.11571E+04 -3.43876E+04
  2.71160E+03 -3.58916E+04  2.88524E+04 -1.47683E+04  2.96231E+04  1.28705E+04  5.49318E+03  2.24568E+04
 -1.42757E+04  9.56521E+03 -9.25223E+03 -9.36798E+03  7.32080E+03 -8.50948E+03  1.82337E+04  8.06882E+03
  1.39613E+04  2.42408E+04 -6.57344E+03  2.25160E+04 -2.26921E+04  1.07391E+04 -2.57737E+04 -4.34406E+03
 -1.52003E+04 -2.03482E+04 -7.91401E+03 -2.32315E+04  6.54557E+03 -1.46230E+04  1.79311E+04 -1.70397E+04
  2.09708E+04 -1.28607E+04  2.90955E+04  8.03960E+02  2.19196E+04  1.26168E+04  4.81175E+03  3.23719E+04
 -1.65838E+04  2.70028E+04 -2.51005E+04  1.01745E+04 -1.95126E+04 -4.82081E+03  2.13113E+02 -2.02265E+04
  1.42092E+03 -3.94682E+03 -6.74611E+03  7.38083E+03 -9.82056E+03  8.02178E+03 -1.29505E+04 -5.84758E+03
 -1.23767E+04 -2.00586E+04  5.31482E+03 -1.89008E+04  1.38027E+04 -1.42884E+04  1.87088E+04  1.03530E+03
  1.16026E+04  1.02515E+04  3.77336E+03  1.92537E+04 -1.30647E+04  7.69333E+03 -1.96917E+04 -3.48422E+03
 -1.28685E+04 -1.49078E+04  2.06899E+02 -2.04826E+04  9.67859E+03 -2.09076E+04  1.97234E+04 -7.86132E+03
  1.47688E+04  2.57425E+03  1.03299E+04  2.35613E+03  6.73292E+03  1.00096E+02  6.30829E+03 -3.13533E+03
  1.27640E+04  5.37615E+03  1.78095E+04  1.44960E+04  9.53105E+03  2.60603E+04  5.04397E+03  3.11255E+04
 -1.37122E+04  2.46677E+04 -2.60416E+04  9.84533E+03 -2.58774E+04 -7.58614E+02 -2.55072E+04 -1.74599E+04
 -9.48570E+03 -2.81127E+04  5.59748E+03 -1.92122E+04  1.65015E+04 -1.48600E+04  1.82510E+04  5.16009E+03
  1.10894E+04  1.10383E+04 -5.93558E+03  1.14971E+04 -1.52594E+04  2.21486E+03 -9.15105E+03 -9.31346E+03
  1.78395E+03 -1.02957E+04  7.76481E+03 -1.00813E+04  7.36656E+03 -3.80065E+02  7.07564E+02  6.64424E+03
 -3.80001E+03  2.57251E+03 -1.61072E+03 -6.89160E+03 -2.72659E+03 -1.20028E+04  8.32407E+03 -9.16699E+03
  1.40461E+04 -4.42106E+02  1.32146E+04  5.61850E+03  7.01011E+03  1.07881E+04  5.55871E+03  1.67936E+04
 -4.38871E+03  2.03767E+04 -1.14130E+04  1.61684E+04 -1.54050E+04  2.07861E+03 -6.08408E+03 -7.99025E+02
 -5.25942E+03 -9.48471E+03 -3.56445E+03  7.67403E+03 -9.93533E+02 -1.78887E+03 -7.80500E+03  4.60981E+03
 -1.07080E+04  5.54927E+01 -9.13049E+03 -6.63002E+03 -3.42074E+03 -1.31025E+04  3.82191E+03 -6.93922E+03
  1.13013E+04 -3.48468E+03  4.90583E+03  8.23683E+01 -3.21013E+02  6.53628E+01  8.13520E+01 -1.96194E+03
 -6.25083E+03 -6.73908E+03 -1.39064E+03 -4.95300E+03  2.80712E+03 -7.48934E+03  1.12291E+04 -6.24044E+03
  1.05267E+04 -2.63878E+03  8.18762E+03  7.99484E+03  1.49382E+03  8.86457E+03 -6.50713E+03  9.23992E+03
 -7.39286E+03  2.13670E+03 -2.46771E+03 -3.69938E+03  2.74684E+03 -4.34065E+03  6.77352E+03  1.07620E+03
  2.04066E+03  3.59904E+03 -6.08630E+02  5.27664E+03 -1.98796E+03  5.61223E+03 -1.02833E+04  1.60935E+03
 -2.85838E+03 -5.41798E+03 -1.56093E+03 -4.20262E+03  7.29760E+03 -4.76541E+03  3.04654E+03 -3.63063E+03
  6.65097E+02  2.61841E+03 -5.08569E+03  5.60969E+03 -5.38921E+03  3.53048E+03 -3.84212E+03 -2.95790E+03
 -1.82402E+03 -9.26419E+03 -4.99283E+01 -7.76626E+03  1.06086E+04 -6.56991E+03  6.12593E+03  2.12662E+03
  4.76801E+03  1.15214E+04  6.35270E+03  7.66342E+03 -2.34396E+02  8.22355E+03 -7.05017E+03 -4.04138E+03
 -1.02680E+04 -6.07587E+03 -2.87729E+03 -4.71588E+03  1.82747E+03 -2.96317E+03  6.07350E+03 -1.57152E+03
  4.86498E+03  3.63037E+03 -1.02971E+02  1.14570E+03  4.33589E+03  8.97717E+02  6.56495E+02 -2.24884E+03
  5.70138E+03  1.40801E+03  5.78288E+03  1.84047E+03  6.51003E+03  1.54945E+03  5.71848E+03  5.97134E+03
 -1.12028E+02  1.15148E+04 -1.20914E+04  1.15358E+04 -1.10432E+04  5.90185E+03 -9.95644E+03  2.37429E+03
 -6.74073E+03 -7.34685E+03 -1.23907E+02 -1.99746E+03  6.54101E+03 -3.73088E+03  3.11796E+03  2.19778E+03
  4.81007E+02 -4.48735E+03  7.54506E+02 -4.15746E+03  4.52629E+03 -2.91682E+03  3.37470E+03 -4.14687E+03
  6.18028E+03  2.17591E+03 -1.10016E+03  4.39560E+03 -2.94342E+03 -3.15191E+03 -1.03793E+04 -4.74321E+01
 -4.29525E+03  8.56030E+02  2.93913E+02 -6.10075E+03 -1.32115E+03 -4.35819E+03  3.23532E+02 -9.12191E+03
  7.66466E+03 -3.61510E+03  3.54824E+03  6.38137E+01  8.82962E+03  4.06801E+03  2.11590E+03  1.04876E+04
 -3.10036E+03  7.21118E+03 -5.41737E+03  2.23716E+03  2.65465E+03 -5.54187E+02  3.31300E+03 -1.56422E+03
 -2.06753E+02  1.41261E+03 -5.01678E+02  6.55709E+03  1.75141E+03 -3.01049E+03 -8.09554E+03 -4.06510E+03
 -2.02919E+03 -3.88757E+03  4.33752E+03 -6.11710E+03  2.21453E+03 -6.95352E+03  1.29699E+03 -2.30966E+03
 -4.41363E+02  5.69026E+02  4.38205E+03  6.22840E+03  7.85206E+02  8.25557E+03 -1.90466E+03  7.83622E+03
 -2.93043E+03  5.20100E+03 -5.94264E+03 -6.19134E+03  1.10490E+03 -5.28577E+03  3.28979E+03 -5.10710E+03
  3.82499E+02 -9.49715E+02  1.06820E+02  6.82677E+02 -2.30456E+03  2.83652E+03 -2.64935E+03  4.91424E+02
 -2.76350E+03  1.40261E+03 -1.22756E+03  7.00895E+02  2.32393E+03  3.43966E+03  7.55027E+03  4.47388E+03
 -1.68069E+03  1.85810E+03 -4.22153E+03  2.52520E+03 -3.12349E+03  4.96167E+03 -2.29260E+03 -4.61780E+02
  1.90069E+03 -2.84644E+03  4.37548E+03 -3.81719E+03 -2.28268E+03 -4.96163E+03  1.53102E+03 -1.60486E+03
  4.64079E+03 -4.75234E+02  3.85388E+03 -1.93560E+03 -5.67516E+02  1.85670E+02  5.21812E+02 -2.19876E+00
  2.47211E+01  2.06093E+03 -4.05727E+03  1.61105E+03 -8.97494E+02 -4.39519E+03 -1.85527E+02 -1.73519E+03
  2.91099E+03 -4.43542E+02 -3.44131E+03 -2.45952E+03 -1.49825E+03  3.76702E+03  4.07708E+03 -8.57486E+02
 -4.60778E+03 -3.51087E+03  6.10765E+03 -1.32409E+03  3.27142E+03  3.81457E+03 -3.50786E+03 -7.68268E+02
  1.44349E+03  4.49852E+03 -2.16760E+02 -1.64938E+03 -7.31884E+03 -1.84832E+03  2.22043E+03 -2.02794E+03
  1.14255E+03 -3.53455E+02  3.64284E+03  7.84972E+02  5.17226E+00  2.29299E+03  2.36635E+03  4.01639E+03
  1.32063E+03  3.95451E+03 -2.35369E+02 -1.56617E+03  2.09444E+03 -6.50788E+03 -1.19599E+03  4.06304E+02
  2.93295E+02 -2.44750E+03  5.87474E+03  1.34114E+03  2.80395E+03 -9.73900E+02  4.62154E+01 -7.20540E+02
 -3.01567E+03  8.31437E+01  3.97809E+02  2.35854E+03  1.01466E+03 -7.54327E+02  5.45443E+02 -2.90739E+03
 -1.97411E+03  2.28476E+03  1.87422E+03  7.24412E+02  1.70386E+03 -2.44884E+03  1.01632E+03 -2.87946E+03
 -2.25513E+03 -1.26944E+03 -1.42464E+03  4.23100E+03 -1.97306E+03 -1.41621E+03 -7.93208E+02  6.86096E+03
  2.46114E+03  1.19881E+03  9.55620E+02  9.62313E+02 -3.93682E+02 -1.61320E+03 -4.80810E+02 -2.43270E+03
 -2.67056E+03 -3.42722E+03  2.42379E+03  2.24056E+02 -4.41834E+03 -2.34578E+03  3.57655E+02  2.34323E+03
 -4.81790E+02  1.32665E+03 -4.07655E+02  3.15494E+03 -3.14483E+02 -1.72189E+02 -2.44088E+03  6.02644E+02
  1.12827E+03 -1.03671E+03  1.85539E+03 -6.91352E+03  1.82610E+03 -6.82181E+03  6.82927E+03  2.36424E+03
  3.28520E+03 -9.76563E+01  2.51804E+03  3.77534E+02 -1.93916E+03 -1.63898E+03 -1.82913E+03 -1.79333E+03
 -1.93747E+03 -4.54935E+02 -6.88610E+02 -4.90808E+02 -2.66176E+03 -1.09344E+03 -4.45436E+03  1.55078E+03
 -2.98651E+03 -5.42617E+03 -1.24927E+03 -1.75788E+03 -5.40623E+02  2.68638E+03 -1.14692E+03  3.83799E+03
  6.43897E+02 -3.35762E+03 -5.89560E+02 -3.15419E+03 -2.49879E+03 -1.72368E+03  2.40432E+03  1.85875E+03
  3.72511E+03  1.06691E+03  2.42435E+03 -9.00790E+01 -5.27567E+03 -9.61424E+02 -2.02219E+03 -1.46829E+03
 -2.80620E+03  4.49463E+02 -3.46375E+03 -1.44381E+03 -2.48265E+03 -5.35500E+03 -1.74117E+03  1.19316E+03
  2.14037E+03  1.47181E+03  4.32067E+03  3.37515E+03  6.32306E+02 -2.83808E+02  4.66034E+03 -8.62470E+02
  1.67417E+03 -3.57389E+03  5.95805E+02  2.91055E+03 -9.59714E+02  3.54251E+03  7.93208E+02  4.85928E+02
 -7.28266E+02  9.48844E+02 -9.94340E+01  8.71277E+02 -6.69880E+02  1.74827E+03  2.91706E+03 -2.04845E+03
  1.95222E+03  1.03455E+03 -3.22065E+03 -2.74836E+02  1.89772E+03 -1.47837E+03 -5.99930E+02  1.18964E+03
  4.80268E+02 -9.42180E+02 -3.11117E+03 -1.56751E+03  4.91015E+02  2.00380E+03  3.13072E+03 -5.63339E+02
 -6.59814E+03  3.70310E+03  2.01060E+03  1.87909E+02  2.92085E+03 -1.17350E+03  1.65312E+03 -1.05994E+03
 -4.75838E+02  2.55048E+03 -2.34909E+02 -4.46758E+03  1.14014E+03  4.64802E+02  4.25750E+02  1.02044E+03
  1.27142E+03  1.76930E+00  3.79301E+02  4.85824E+03 -1.37350E+02  1.26710E+03 -5.54392E+02 -2.44058E+03
