 $NMID ID='MM_0lb_SNR50_12hz_g40_31.RAW', FMTDAT='(8E13.5)'
 TRAMP=1., VOLUME=1. $END
  3.08983E+05 -1.83115E+03  3.36833E+05  2.48559E+05  8.66058E+04  3.38405E+05 -1.29102E+05  2.51384E+05
 -1.91141E+05  8.25071E+04 -1.13525E+05 -3.72351E+04 -4.75488E+03 -4.96265E+04  5.65043E+04 -2.87341E+03
  3.74232E+04  5.29363E+04 -1.59976E+04  7.73034E+04 -6.20456E+04  5.86801E+04 -8.11883E+04  3.51639E+04
 -8.15209E+04 -1.70076E+04 -6.04045E+04 -4.88284E+04 -1.15271E+04 -6.76612E+04  2.90480E+04 -4.39660E+04
  4.23855E+04  1.78231E+03  2.20028E+04  4.27087E+04 -3.00475E+04  4.49972E+04 -6.61922E+04 -2.95462E+03
 -5.63586E+04 -5.95942E+04 -1.10758E+04 -7.99801E+04  3.54741E+04 -5.12973E+04  4.68861E+04 -2.36405E+04
  4.03946E+04  1.30265E+04  3.15817E+04  2.78326E+04  1.87238E+04  3.16605E+04 -5.10967E+03  2.66917E+04
 -2.21824E+04  3.97134E+03 -1.90277E+04 -3.11884E+03  3.35720E+03 -9.90707E+03  2.56498E+04  1.20762E+04
 -2.15147E+03  3.71502E+04 -3.43575E+04  3.58387E+04 -6.24932E+04  3.73384E+03 -6.11465E+04 -4.18781E+04
 -1.51657E+04 -6.29059E+04  4.28742E+04 -4.65616E+04  5.77081E+04 -5.17075E+02  3.92616E+04  3.21430E+04
 -6.82487E+03  3.79853E+04 -2.86104E+04  1.71548E+04 -2.46836E+04 -5.29465E+03 -1.64043E+04 -1.20689E+04
 -7.55740E+03 -9.07102E+03  5.05725E+03 -2.09633E+04  5.67025E+03 -2.49320E+04  1.64084E+04 -8.28663E+03
  1.96592E+04  4.14649E+03 -1.05850E+04  1.87944E+04 -2.26161E+04 -1.89156E+03 -4.89817E+03 -3.73320E+04
  2.53077E+04 -4.75097E+04  5.07666E+04 -2.08450E+04  4.45121E+04  2.40639E+04  1.84497E+04  4.57759E+04
 -1.35565E+04  2.44779E+04 -2.79181E+04 -2.08028E+02 -1.05989E+04 -3.09146E+04  2.31516E+04 -3.21958E+04
  4.16602E+04 -1.00365E+04  4.06039E+04  2.57344E+04  1.72941E+04  4.90609E+04 -1.01765E+04  5.59172E+04
 -3.50306E+04  3.76403E+04 -4.10503E+04  5.91103E+03 -4.00467E+04 -9.61067E+03 -2.73998E+04 -3.92855E+04
  6.26076E+03 -3.59541E+04  2.77883E+04 -1.05772E+04  3.27377E+04  8.78601E+03  3.39182E+03  2.02520E+04
 -1.36520E+04  1.02898E+04 -9.00871E+03 -3.17041E+03  4.56210E+03 -1.11470E+04  1.78490E+04  6.80823E+03
  1.28805E+04  1.81348E+04 -3.83998E+03  2.39541E+04 -2.16901E+04  1.41073E+04 -2.32738E+04 -4.93942E+03
 -2.63226E+04 -1.75607E+04 -5.83629E+03 -2.04972E+04  3.86826E+03 -2.46245E+04  1.92051E+04 -2.14636E+04
  2.62905E+04 -1.38085E+04  3.79879E+04  6.67972E+03  2.55914E+04  2.12722E+04  4.33612E+03  3.48501E+04
 -2.10727E+04  2.90689E+04 -2.77680E+04  7.72125E+03 -2.01583E+04 -1.11005E+04 -5.33184E+03 -1.53379E+04
  3.70663E+03 -1.35148E+03 -8.56235E+03  6.43624E+03 -1.42685E+04  2.19438E+03 -1.45664E+04 -4.11168E+03
 -7.37288E+03 -1.92939E+04  8.13687E+03 -2.04519E+04  2.12036E+04 -1.99682E+04  1.89816E+04 -6.56691E+03
  1.24604E+04  8.99653E+03 -3.90943E+03  2.57526E+04 -1.50514E+04  1.21967E+04 -1.99284E+04 -4.04520E+03
 -1.45184E+04 -2.18656E+04  1.69680E+03 -2.42740E+04  9.91736E+03 -2.12422E+04  1.80390E+04 -1.20339E+04
  1.69349E+04  1.38680E+03  1.14582E+04  6.36230E+03  7.60588E+03  1.05021E+03  1.21680E+04 -4.64278E+03
  1.83305E+04 -6.24160E+02  2.10764E+04  1.82035E+04  8.03338E+03  3.19954E+04  1.61714E+03  3.83254E+04
 -1.61338E+04  2.84965E+04 -3.22794E+04  1.48459E+04 -3.63801E+04 -1.34984E+03 -2.53038E+04 -1.94271E+04
 -1.15502E+04 -3.21886E+04  1.40291E+04 -2.45415E+04  2.17896E+04 -1.10560E+04  2.73803E+04  7.74297E+03
  5.71682E+03  1.39219E+04 -1.12506E+04  9.75682E+03 -1.75500E+04  3.32242E+03 -7.32174E+03 -1.06366E+04
 -5.22162E+02 -1.31281E+04  7.84753E+03 -1.51368E+04  1.15983E+04  5.56742E+03  3.80985E+03  1.16800E+04
 -2.89431E+03 -1.18373E+03 -8.39934E+03 -4.79525E+03 -4.75287E+03 -1.52756E+04  1.05262E+04 -1.40427E+04
  1.88004E+04 -8.62461E+03  2.07725E+04 -9.96218E+02  1.34638E+04  1.39365E+04  3.33721E+03  2.22321E+04
 -2.65604E+03  2.29485E+04 -1.49228E+04  1.26953E+04 -2.09606E+04  6.38556E+03 -1.36618E+04  6.63821E+02
 -1.15712E+04 -2.35074E+03 -3.84549E+03  2.11224E+03 -1.64659E+03  3.15482E+03 -8.67510E+03  4.08013E+03
 -1.06918E+04  2.19780E+02 -1.22116E+04 -1.22008E+04 -6.92071E+03 -1.90588E+04  4.70258E+03 -1.37923E+04
  1.18269E+04 -3.16825E+03  7.22412E+02  5.47561E+03  2.34111E+03  8.05297E+03 -3.75453E+03 -6.43376E+02
 -9.71186E+03 -1.05667E+04 -2.37668E+03 -8.42520E+03  5.29557E+03 -1.09892E+04  1.50240E+04 -4.09237E+03
  1.26397E+04 -4.29257E+02  1.44325E+04  1.24388E+04  4.40536E+02  1.35229E+04 -7.46907E+02  1.20714E+04
 -8.17802E+03  5.05847E+03 -1.16750E+04 -2.69078E+03  4.46137E+03 -2.65347E+03  8.72575E+03  6.59675E+02
  7.03845E+03  6.77878E+03  5.36567E+03  1.28067E+04 -5.52488E+03  4.03832E+03 -1.50968E+04  3.12924E+02
 -9.60646E+03 -6.28133E+03 -1.02771E+03 -4.71789E+03  4.11119E+03 -5.52897E+03  1.02174E+04  7.12839E+03
  7.34036E+02  7.38007E+03 -5.39985E+03  7.08915E+03 -3.46341E+03  3.53271E+03 -9.27081E+03 -1.63830E+03
 -5.13241E+03 -5.32099E+03  4.55341E+03 -1.68030E+04  1.35351E+04 -5.91292E+03  1.39674E+04 -2.56390E+03
  3.66784E+03  1.37648E+04  6.87991E+01  1.24661E+04 -7.83166E+03  3.93124E+03 -7.85156E+03  5.14877E+03
 -8.43465E+03 -1.13744E+04 -8.93484E+02 -9.42636E+03  9.07617E+03 -4.52605E+03  2.14234E+03 -3.81209E+03
  3.10817E+03 -2.51415E+03 -2.44753E+03 -5.00611E+02  3.08474E+03  1.61874E+03 -1.43197E+03 -1.08404E+04
  7.13304E+03 -4.45144E+03  1.64959E+04  4.77333E+03  1.11719E+04  7.27812E+03  1.12411E+04  1.44115E+04
 -9.90366E+02  1.31800E+04 -1.58499E+04  1.30398E+04 -1.93118E+04  2.93104E+03 -1.26417E+04 -5.07326E+03
 -2.70143E+03 -1.55812E+04 -6.98001E+02 -4.04797E+03  6.10164E+03 -4.28055E+03 -1.74464E+03 -2.52802E+03
 -2.12104E+02 -2.01056E+02  2.41351E+03 -3.34423E+03  3.15849E+03 -2.53435E+03  5.19471E+03 -8.58125E+03
  7.16719E+03 -1.71808E+03  1.80842E+03  2.76123E+03 -9.29405E+03  5.91410E+03 -8.37962E+03 -1.05969E+03
 -4.59674E+03 -7.64063E+03 -6.61607E+03 -2.68460E+03 -3.19373E+03 -9.79323E+03  9.10332E+03 -1.28194E+04
  8.20734E+03 -5.20001E+03  1.32485E+04  4.66198E+03  1.20290E+04  7.09787E+03  3.18434E+03  6.99338E+03
 -6.09368E+03  9.87647E+03 -7.86192E+03  9.39840E+03 -5.38387E+03 -2.31116E+03 -1.68741E+03 -1.96100E+03
  2.92283E+03 -1.45802E+03 -1.58749E+03  4.08429E+03  3.00661E+03 -4.13300E+02 -4.81015E+03  3.76435E+03
 -4.94276E+03 -1.39472E+04 -2.67685E+03 -1.26474E+04  6.29785E+03 -8.95802E+03  1.32056E+04 -2.97325E+03
  1.31106E+04  6.30188E+03  4.77109E+03  6.87895E+03  9.31566E+02  1.21096E+04 -8.36338E+03  8.60403E+03
 -7.60202E+03 -4.60246E+03 -8.23267E+03 -1.15071E+04  1.38503E+03 -2.17296E+03  3.64708E+03 -4.53458E+03
  8.21043E+03 -9.81412E+02  1.57625E+03  3.91501E+03 -1.61311E+03  9.35209E+02  2.65832E+03  4.88702E+02
  1.98335E+03  2.26325E+03 -2.49510E+03 -1.81138E+03  3.31757E+03 -2.07393E+03 -1.54395E+03  1.43351E+03
 -5.58494E+01  4.94762E+03 -5.79215E+02  7.74677E+03 -6.12471E+03  6.71093E+03 -8.13025E+03 -9.28366E+03
 -6.48869E+03 -1.10756E+04  5.79185E+02 -1.10080E+04  2.64850E+03 -5.76001E+03  8.98812E+03  6.85148E+02
  6.97701E+03  4.82876E+03  1.00282E+03  4.86582E+03 -5.06387E+03  4.10895E+03  2.21913E+03  1.41699E+03
 -1.15596E+02 -6.84154E+03 -9.98556E+02 -2.28518E+03  4.15914E+03 -5.99796E+03  2.44591E+03  3.14854E+03
  9.97425E+02  2.44164E+03  7.25777E+02 -2.48854E+03 -2.23777E+03 -4.03041E+03  8.23159E+01  8.09061E+02
  9.14622E+02  4.09150E+02  9.82876E+03  3.77591E+03  1.37386E+03  6.64919E+03  3.95050E+02  9.08281E+03
 -9.69095E+03 -1.98458E+03 -5.85675E+03  4.16067E+03 -6.37943E+03 -5.72556E+02 -2.35828E+03 -1.66677E+03
  1.88145E+02 -4.09807E+03 -3.02660E+03 -2.33767E+03  6.02451E+03  3.83426E+03 -1.33201E+03  4.91378E+03
 -2.50121E+03  3.86536E+03 -6.69350E+03 -4.85954E+03 -1.14018E+03 -1.50997E+03  5.08476E+02 -3.90057E+03
  2.44171E+03 -5.61813E+03  1.52146E+03  1.01222E+03  1.86827E+03  3.75192E+02 -5.53721E+02  1.45386E+03
 -3.35118E+03  3.71962E+03 -1.03240E+03 -1.39828E+03  7.06742E+03 -4.50062E+01  8.10458E+03 -8.86475E+03
  6.22596E+03  6.41627E+02  3.36250E+03  8.12810E+03  3.83528E+01  1.11474E+04 -8.46983E+03  3.83588E+03
 -2.37191E+01  1.52711E+02 -3.84052E+03 -2.10522E+03 -2.62808E+03 -6.23270E+03  2.49102E+03 -7.84133E+03
  5.22152E+03 -4.98605E+03  9.68554E+02  5.23611E+03  3.35483E+02  2.61226E+03 -1.54402E+03  1.19040E+04
 -9.69986E+03 -1.60507E+03  2.82967E+03 -2.13583E+03 -3.24175E+03 -6.13201E+02  3.57817E+02 -9.02157E+02
 -4.01715E+03  6.00709E+02 -8.73759E+03  1.03607E+04 -2.80761E+03  8.80190E+02 -8.05773E+03  1.48829E+03
 -1.80394E+03 -7.91730E+03 -1.66952E+02 -5.67578E+03  8.00476E+03 -9.39537E+03  7.22739E+03 -5.72007E+03
  7.73935E+03  4.43638E+03 -1.79442E+02  2.40989E+03 -5.76707E+02  8.67565E+03 -5.97869E+03  3.48225E+03
 -3.36680E+03 -7.65856E+02 -3.79436E+02  1.30528E+03 -4.61644E+03 -5.27741E+03 -3.79708E+03 -6.06978E+02
  2.70039E+03  2.73151E+03 -8.38447E+02  4.59550E+03 -1.44649E+03  1.43899E+03  2.24419E+03 -5.25963E+03
  9.83313E+03 -6.79788E+03  2.03782E+03 -2.87431E+03  6.86710E+03  5.66468E+03 -4.63892E+03  8.36236E+03
 -7.49131E+03 -3.97989E+03 -7.88772E+03  4.11102E+02  9.34362E+01 -4.35108E+03 -5.71570E+03  2.42892E+02
 -3.99478E+03 -1.04424E+04 -8.24656E+02 -4.71816E+03  2.77431E+03 -5.77702E+03 -9.43867E+02 -1.11015E+03
  2.33830E+02  2.29538E+03 -2.06823E+03  5.57865E+03 -3.57176E+03  1.21960E+03  2.12249E+03 -1.45465E+03
  1.74088E+03  9.12639E+02  3.79773E+03 -1.74594E+03 -1.68605E+03  2.05925E+03  9.90809E+02  2.09409E+03
 -8.49893E+03  1.24262E+03 -2.48140E+03  2.21226E+03 -5.05161E+03 -7.02924E+03 -4.06060E+02 -1.88732E+03
  5.24314E+03 -6.37507E+03  2.57518E+03 -4.18487E+03  2.41227E+03 -4.60442E+03  1.86143E+03  8.73007E+03
  4.51872E+03  1.50196E+03 -2.10485E+02  2.82844E+03 -6.80464E+03  4.89652E+03 -4.52209E+03  2.96947E+02
  4.32683E+03 -1.82512E+03 -1.54398E+03 -2.50173E+03 -3.71189E+03 -3.68060E+03  2.82981E+03 -3.83403E+03
 -1.74195E+03  5.92164E+02 -1.46931E+03 -2.79066E+03  2.57086E+03 -8.15452E+03  4.93327E+03  1.56505E+03
  4.16129E+03  8.37164E+03  1.19348E+03  5.10995E+02  4.04891E+03  3.82619E+03 -1.57357E+03  1.71788E+03
