 $NMID ID='MM_0lb_SNR50_11hz_g50_10.RAW', FMTDAT='(8E13.5)'
 TRAMP=1., VOLUME=1. $END
  3.09747E+05 -3.21512E+03  3.32536E+05  2.50304E+05  8.29588E+04  3.46994E+05 -1.29110E+05  2.55044E+05
 -1.90551E+05  8.31512E+04 -1.15978E+05 -3.02245E+04 -3.94481E+03 -5.04461E+04  5.72161E+04  7.49554E+02
  3.53756E+04  5.13948E+04 -2.37912E+04  7.92246E+04 -6.28135E+04  6.71547E+04 -8.70472E+04  3.32621E+04
 -8.39052E+04 -8.36059E+03 -5.40129E+04 -5.62529E+04 -1.30430E+04 -7.08606E+04  2.51252E+04 -5.07467E+04
  4.80446E+04 -3.45226E+02  1.94256E+04  4.97158E+04 -3.82126E+04  4.95108E+04 -6.47013E+04 -4.34906E+03
 -5.13483E+04 -6.20145E+04 -3.83001E+03 -7.83065E+04  3.70469E+04 -5.70018E+04  5.38668E+04 -1.65340E+04
  4.49413E+04  9.02016E+03  3.35846E+04  2.52172E+04  1.10079E+04  3.37753E+04 -9.06001E+03  2.35703E+04
 -2.70208E+04  1.25807E+04 -1.58912E+04 -5.50160E+03  1.26138E+04 -9.35963E+03  1.98412E+04  1.15086E+04
  1.06258E+04  3.11576E+04 -3.27354E+04  3.11627E+04 -6.49517E+04  1.46864E+03 -5.85503E+04 -4.25032E+04
 -9.91697E+03 -6.67734E+04  3.48876E+04 -4.12987E+04  5.95505E+04  8.77827E+01  3.61816E+04  3.81614E+04
  2.20375E+03  3.50639E+04 -3.13050E+04  1.81084E+04 -3.06874E+04 -1.53431E+03 -1.59557E+04 -9.54871E+03
 -1.24157E+04 -1.76460E+04 -9.02391E+03 -1.78993E+04  1.07279E+04 -2.44647E+04  7.22199E+03 -1.40203E+04
  1.98524E+04  6.76095E+03 -1.00931E+04  1.35858E+04 -2.13094E+04 -5.91494E+03 -9.49286E+03 -3.88240E+04
  2.71495E+04 -4.71524E+04  5.19604E+04 -2.22695E+04  4.90816E+04  2.30030E+04  1.68255E+04  4.24620E+04
 -1.90978E+04  3.91488E+04 -3.21142E+04 -1.86168E+03 -1.16261E+04 -2.69958E+04  2.16770E+04 -3.61771E+04
  4.00584E+04 -8.13763E+03  3.83910E+04  2.91012E+04  2.22630E+04  4.96052E+04 -9.04239E+03  5.41805E+04
 -3.05810E+04  2.90207E+04 -4.89023E+04  1.28272E+04 -4.60793E+04 -1.98779E+04 -2.72139E+04 -3.86845E+04
  9.73090E+03 -3.70191E+04  3.11629E+04 -1.96211E+04  2.78759E+04  1.12250E+04  1.70722E+03  2.52416E+04
 -1.89552E+04  1.10205E+04 -1.43364E+04 -8.76613E+03 -6.37542E+02 -1.04191E+04  1.76153E+04  8.22419E+03
  9.60143E+03  2.32328E+04 -2.66617E+03  2.19779E+04 -2.33681E+04  1.38392E+04 -3.24295E+04 -3.28469E+03
 -1.79005E+04 -2.14897E+04 -2.92042E+03 -2.64386E+04 -1.24406E+03 -2.82544E+04  2.57298E+04 -2.11450E+04
  2.46301E+04 -1.72429E+04  3.04271E+04  3.83391E+03  2.72079E+04  2.07662E+04  3.46020E+03  3.55920E+04
 -1.94045E+04  3.57898E+04 -2.79721E+04  1.14020E+04 -1.83923E+04 -8.52113E+03 -2.99487E+03 -1.32314E+04
 -1.63866E+03 -3.62138E+02 -7.30302E+03  1.89093E+03 -1.42689E+04  2.87788E+03 -2.40152E+04 -7.40359E+03
 -1.36478E+04 -2.04091E+04  7.13900E+03 -2.11284E+04  1.89805E+04 -1.89040E+04  2.07490E+04  7.16882E+02
  7.25582E+03  1.49929E+04 -8.66108E+02  1.94339E+04 -2.35196E+04  1.91897E+04 -2.45911E+04 -8.24770E+02
 -1.77960E+04 -1.59627E+04  2.29097E+03 -2.76433E+04  6.77895E+03 -2.00188E+04  2.04037E+04 -1.32855E+04
  1.46193E+04 -3.62480E+03  1.19436E+04  3.35900E+03  3.54015E+03 -2.32403E+03  8.84279E+03  7.86460E+02
  1.37312E+04  5.96682E+03  2.40615E+04  2.06747E+04  1.17023E+04  2.78177E+04 -2.14086E+03  3.98500E+04
 -2.57917E+04  3.59418E+04 -3.59997E+04  1.64043E+04 -3.95281E+04 -2.26579E+03 -2.83299E+04 -2.24540E+04
 -1.57708E+04 -2.59127E+04  1.22453E+04 -3.19836E+04  2.20375E+04 -1.48525E+04  1.89858E+04  6.47319E+03
  1.02713E+04  1.36418E+04 -2.18009E+04  1.29859E+04 -1.22711E+04  4.10654E+02 -1.36504E+04 -6.81242E+03
  1.73665E+03 -1.50883E+04  1.27764E+04 -1.35439E+04  1.20862E+04 -7.04268E+03  1.03685E+03  1.10732E+04
 -3.14675E+03  5.34529E+03 -6.39348E+03 -9.16039E+03 -1.71469E+03 -1.83692E+04  1.00707E+04 -1.75277E+04
  2.30857E+04 -1.07999E+04  2.71933E+04 -5.68408E+02  1.81276E+04  1.80080E+04  1.08426E+04  2.37483E+04
 -5.97728E+03  2.54193E+04 -1.60169E+04  1.95251E+04 -2.08586E+04  2.81892E+02 -1.59644E+04 -3.85582E+03
 -8.27488E+03 -5.11272E+03  1.36122E+03  2.19458E+02  2.12538E+03  4.27987E+03 -1.28008E+04  4.32137E+03
 -1.53035E+04 -1.80703E+03 -1.66543E+04 -1.33937E+04 -4.09103E+03 -1.52044E+04  4.04683E+03 -1.36517E+04
  1.13621E+04 -1.00887E+04  7.50719E+03 -1.54244E+03  5.77002E+02  4.83226E+03 -7.62465E+03  2.96283E+03
 -6.18619E+03 -3.94366E+03 -3.33411E+03 -1.20428E+04  1.16316E+04 -2.26588E+04  1.73330E+04 -1.01114E+04
  2.00197E+04  1.75591E+03  1.72524E+04  1.19199E+04  1.96001E+03  1.92974E+04 -6.11507E+03  1.85762E+04
 -1.45497E+04  3.23377E+03 -8.43450E+03 -9.97152E+03 -7.92868E+02 -6.18167E+03  4.76971E+03 -3.94513E+03
  2.21662E+03  8.07632E+03  2.36666E+03  1.08685E+04 -9.16043E+03  9.82927E+03 -1.63379E+04 -2.94328E+03
 -7.30610E+03 -6.31787E+03  2.34293E+03 -1.59262E+04  7.51519E+03 -6.53994E+03  8.30757E+03  3.93355E+03
 -3.14308E+03  4.62751E+03 -6.83908E+03  8.58218E+03 -7.93177E+03  4.19414E+03 -1.07799E+04 -5.12371E+03
 -5.97654E+03 -1.15308E+04  1.18429E+03 -1.37512E+04  1.09740E+04 -1.13396E+03  1.17167E+04  1.30160E+03
  8.35992E+03  1.15439E+04  1.80517E+03  1.65114E+04 -8.20091E+03  8.75836E+03 -1.16467E+04  3.81178E+03
 -1.07710E+04 -5.93318E+03 -6.14432E+03 -1.31102E+04  1.01794E+04 -9.73135E+03  8.35295E+03 -8.73364E+02
 -1.36209E+03  6.22579E+03  5.12173E+03 -1.60153E+03  5.98241E+03 -3.62699E+03  6.08344E+03 -6.25735E+03
  1.19870E+04 -4.08467E+03  1.48222E+04 -3.60479E+03  1.15688E+04  1.17296E+04  9.75138E+03  1.56448E+04
 -2.94824E+03  2.10720E+04 -1.80841E+04  1.61360E+04 -1.91180E+04 -9.79035E+01 -1.47103E+04 -3.47611E+03
 -1.56358E+04 -1.05723E+04 -2.37726E+03 -1.01594E+04  5.73025E+03 -8.40562E+03  6.94512E+03 -9.25011E+03
  5.31061E+02 -4.91784E+03  4.31989E+03 -5.25688E+03  5.18848E+03 -3.55611E+03  4.30896E+03  1.74361E+03
  1.02377E+04  6.33156E+03  4.39920E+03  1.51744E+04 -1.63483E+03  7.49751E+03 -7.26578E+03  1.30492E+04
 -1.12727E+04 -4.17047E+02 -7.82283E+03 -8.13141E+03  3.53128E+02 -1.23570E+04  1.47164E+03 -8.33564E+03
  1.15451E+04 -3.43708E+03  1.68234E+04 -1.36216E+03  1.50173E+04  1.29526E+04  9.75453E+02  1.16242E+04
 -3.60953E+03  1.03312E+04 -2.49119E+03  2.99616E+03 -6.90450E+03 -5.88692E+03 -2.37282E+03 -3.85222E+02
 -2.46535E+03 -9.86613E+02 -2.22715E+03  3.12009E+03 -2.32972E+02 -9.27360E+02 -8.66592E+03  1.19577E+03
 -6.54672E+03 -8.90666E+03 -4.77655E+03 -6.86856E+03  5.53683E+03 -1.49856E+04  8.72002E+03 -7.90522E+03
  1.72273E+04  8.23410E+03  1.03844E+04  1.14603E+04  2.27761E+03  1.01171E+04 -1.35136E+04  1.44805E+04
 -1.14621E+04  2.65827E+03 -1.00657E+04 -3.64474E+03 -7.32976E+03 -1.51190E+04  5.62990E+03 -8.64392E+03
  9.90117E+03 -2.30521E+02  1.22853E+04  2.94937E+03  1.76156E+03  1.89379E+03  9.21469E+02  4.76682E+02
  5.98461E+03  2.52268E+03 -8.61383E+02  3.51967E+02  3.95669E+03  8.51010E+03  3.72698E+03  5.33510E+03
 -1.50231E+03  3.27479E+03 -9.48968E+03  1.10413E+04 -8.98901E+03  5.75789E+02 -1.20794E+04 -4.43816E+03
 -5.52904E+03 -1.60305E+04  5.43280E+03 -9.96643E+03  1.03294E+04 -4.12317E+03  9.35014E+03  1.73479E+03
  9.42184E+03 -1.06603E+03 -2.46798E+03  1.24739E+04 -7.67919E+02  1.27625E+04 -2.00115E+03 -4.86774E+03
 -2.86682E+03 -1.86468E+03  6.54473E+03 -8.69416E+03  3.13420E+03 -4.86113E+03  6.48831E+03 -1.12890E+03
  9.28911E+03  3.76597E+03  3.90047E+03  3.86565E+03 -1.01129E+03 -2.72651E+02  1.63270E+03 -5.17088E+03
  3.24602E+03  4.43212E+03  6.95784E+03  3.83698E+03  5.05438E+03  4.89667E+03  8.56862E+02  4.12209E+03
 -4.95298E+03  7.25975E+03 -5.41255E+03 -5.71523E+03 -6.00856E+03  3.60406E+03 -1.80336E+03 -5.53783E+03
  1.24910E+03 -5.32922E+03  2.17142E+03 -2.47856E+03  7.97248E+03  6.96191E+02 -5.15050E+03  5.07239E+03
  1.51869E+02  6.54355E+02 -2.71226E+03 -1.97630E+03 -7.97104E+03 -9.20079E+03 -8.50546E+02 -5.88231E+03
  6.93318E+03 -5.18493E+03  2.18786E+03  6.41696E+02 -3.47832E+03  2.02273E+03  2.77313E+03 -1.10296E+03
 -2.18435E+03  3.47024E+03  2.23493E+03 -4.58290E+03  3.27782E+03 -4.67264E+03  6.82765E+03 -4.36229E+03
  4.97527E+03 -6.10167E+03  8.98662E+03  1.31744E+03  9.50026E+02  8.78485E+03 -8.82199E+02  5.36878E+03
 -4.05399E+03  5.11596E+03 -5.38225E+03 -3.98567E+03 -2.67439E+03 -6.58290E+03 -1.24204E+03 -7.77895E+03
  3.85277E+03 -1.91249E+03  5.30082E+03  7.82581E+02  5.23178E+03 -2.29378E+03  9.25374E+02  1.77173E+03
  3.14189E+03  5.07064E+03 -5.69133E+03 -3.21914E+03 -3.99004E+02 -5.40983E+02  1.63379E+03 -2.54906E+03
 -4.99127E+03 -6.49601E+03 -1.51607E+03  1.90511E+03 -3.99682E+03 -8.66165E+02 -5.97934E+03 -3.40616E+03
 -2.96734E+03 -8.78507E+03  1.74806E+03 -1.00335E+04  1.02364E+04 -1.29878E+04  8.45931E+03 -4.16045E+03
  1.18165E+04  8.69446E+02  1.34620E+04  6.42378E+03  2.66081E+03  7.27489E+03 -9.69577E+02  2.33186E+03
 -1.21092E+04  1.84846E+02 -1.04508E+04  1.58498E+03 -1.88168E+02  8.95418E+02 -4.87228E+03 -9.31026E+02
 -3.18026E+03 -2.91189E+03 -3.88199E+02 -1.97093E+03 -1.21263E+03  3.46440E+01  9.60774E+00 -4.79348E+03
 -2.76614E+02  1.90280E+03  8.27329E+03  5.74283E+03  2.76651E+03  1.48851E+03  1.01632E+03  6.86593E+03
 -5.38082E+03  3.25530E+03 -1.18780E+04  5.63240E+03 -1.16901E+04 -8.23348E+02 -6.19538E+03 -9.12776E+03
 -4.56736E+03 -2.36125E+03  3.41140E+03 -9.26843E+03  9.14109E+03 -3.63666E+03  1.17485E+03 -2.00203E+03
  1.74023E+02 -1.53264E+03 -4.07240E+03  6.83268E+03  3.54761E+03  2.47255E+01  2.58046E+03 -4.99926E+03
  3.11460E+03 -1.19108E+03  4.52476E+03 -6.11440E+01 -7.39780E+02  5.59720E+03  1.72193E+03  8.26462E+03
 -3.49711E+03  1.68614E+03 -6.33576E+03  3.28345E+02 -4.84468E+03 -5.94486E+03  3.05612E+03 -8.34995E+03
  8.83453E+03 -5.26813E+03  9.51976E+03 -1.59340E+03  4.93078E+03  3.10535E+03  5.91377E+03  2.80689E+03
  1.51305E+03  7.70346E+03 -3.28782E+03  2.20484E+03 -2.44340E+02 -1.07336E+03 -9.45206E+02 -1.67540E+03
 -4.59664E+03  1.69521E+03  1.30722E+02  1.41603E+03 -4.20502E+03  3.15447E+03 -8.42167E+03 -3.65440E+03
  2.62841E+03 -4.44775E+02  3.99924E+02 -6.31920E+03  3.53363E+03 -8.05887E+03  2.40403E+03 -2.39801E+03
  1.70109E+03  5.96235E+03  2.27316E+02  5.69592E+03 -9.33061E+02 -1.22973E+02 -4.43828E+03  2.29746E+03
