 $NMID ID='MM_0lb_SNR50_10hz_g50_49.RAW', FMTDAT='(8E13.5)'
 TRAMP=1., VOLUME=1. $END
  3.08705E+05  1.88942E+03  3.36568E+05  2.49052E+05  8.14678E+04  3.36503E+05 -1.26285E+05  2.50371E+05
 -1.86964E+05  8.85837E+04 -1.13788E+05 -3.18503E+04  2.15412E+03 -4.79376E+04  5.14308E+04  8.22989E+02
  3.88521E+04  5.46426E+04 -2.13607E+04  8.17542E+04 -6.58828E+04  6.28669E+04 -8.40193E+04  3.70716E+04
 -8.40991E+04 -1.29667E+04 -6.03256E+04 -5.10553E+04 -1.04458E+04 -7.20535E+04  2.94296E+04 -4.63454E+04
  4.17638E+04  5.25484E+02  1.64153E+04  4.46825E+04 -3.58010E+04  4.53069E+04 -6.87316E+04 -1.76577E+03
 -5.64781E+04 -6.42990E+04 -1.01138E+04 -7.46223E+04  3.26357E+04 -5.98819E+04  4.86641E+04 -2.30532E+04
  4.52395E+04  7.28258E+03  3.50025E+04  2.61856E+04  1.57953E+04  3.15305E+04 -4.17086E+03  2.00004E+04
 -2.20333E+04  1.31668E+04 -2.21823E+04 -8.49373E+03  9.92623E+03 -8.88769E+03  1.90791E+04  1.73183E+04
  2.33368E+03  3.95763E+04 -3.20469E+04  3.41579E+04 -5.80051E+04  2.01568E+03 -5.93656E+04 -4.44049E+04
 -1.96980E+04 -6.98454E+04  4.17090E+04 -5.03539E+04  6.46174E+04 -3.33938E+03  3.68180E+04  3.48826E+04
 -7.06547E+03  3.40562E+04 -3.06144E+04  1.51011E+04 -3.49960E+04 -3.03363E+03 -2.64730E+04 -1.51429E+04
 -9.43006E+03 -1.81712E+04  6.31031E+02 -1.87546E+04  7.60258E+03 -2.09805E+04  1.36803E+04 -1.82653E+04
  1.30829E+04 -4.18810E+03 -1.38992E+04  7.57464E+03 -2.39364E+04 -7.93953E+03 -1.05173E+04 -3.84196E+04
  3.13510E+04 -3.92685E+04  4.68619E+04 -1.94718E+04  4.58789E+04  1.81367E+04  1.96942E+04  4.85465E+04
 -1.88374E+04  3.83171E+04 -2.84132E+04  3.61154E+03 -1.40984E+04 -2.92314E+04  2.06655E+04 -3.49496E+04
  3.91621E+04 -1.06711E+04  4.32215E+04  2.44116E+04  2.74716E+04  5.41042E+04 -1.06955E+04  6.14391E+04
 -3.73385E+04  3.24212E+04 -4.80095E+04  1.14124E+04 -3.97704E+04 -1.78662E+04 -2.15075E+04 -4.31016E+04
  1.48340E+04 -3.91677E+04  3.32432E+04 -2.08735E+04  2.72708E+04  9.40356E+03  7.38331E+01  2.11195E+04
 -9.36908E+03  1.34152E+04 -1.56882E+04 -8.19565E+03  7.47612E+03 -1.82789E+04  1.65074E+04  8.69812E+03
  1.31336E+04  2.08271E+04 -5.86428E+03  2.44772E+04 -2.82368E+04  1.68540E+04 -3.62298E+04 -4.69687E+03
 -3.12726E+04 -2.12511E+04 -1.10340E+04 -2.34729E+04  9.14629E+03 -2.09426E+04  1.78839E+04 -2.02297E+04
  3.07371E+04 -1.26512E+04  3.93245E+04  8.65495E+03  2.61958E+04  2.06851E+04  8.39899E+03  3.74825E+04
 -1.81828E+04  3.28555E+04 -3.14998E+04  1.58776E+04 -2.74136E+04 -1.60780E+04 -3.02959E+03 -5.48678E+03
  4.25629E+03 -9.12620E+02 -8.23832E+03  1.16852E+04 -1.89112E+04  7.68059E+03 -1.95315E+04 -3.93253E+03
 -1.21062E+04 -2.11584E+04  4.23988E+03 -2.74118E+04  1.32770E+04 -2.19120E+04  2.73767E+04 -3.00718E+03
  1.15461E+04  1.16870E+04 -7.55247E+03  1.81713E+04 -1.48072E+04  1.83193E+04 -2.64121E+04 -3.86958E+03
 -1.91171E+04 -1.86182E+04 -6.19610E+03 -2.69582E+04  1.21168E+04 -2.03424E+04  2.22452E+04 -1.51757E+04
  1.84635E+04 -7.06679E+03  1.62569E+04  4.84048E+03  1.37866E+04  8.20927E+03  1.25626E+04  2.74031E+03
  2.75114E+04 -1.35323E+03  2.09223E+04  1.52718E+04  1.53330E+04  3.88286E+04 -2.67427E+03  4.80430E+04
 -1.99964E+04  3.01900E+04 -3.96960E+04  2.10402E+04 -4.32192E+04 -5.17846E+03 -3.20239E+04 -3.11943E+04
 -1.62421E+04 -2.77451E+04  1.23869E+04 -3.48615E+04  2.90377E+04 -1.27376E+04  2.59370E+04  1.02746E+04
  9.29288E+03  2.35236E+04 -1.08073E+04  1.49975E+04 -1.99816E+04  2.13181E+03 -1.47156E+04 -9.83606E+03
  2.30648E+03 -2.14761E+04  1.28114E+04 -1.20271E+04  5.39336E+03 -2.96723E+03 -8.70873E+02  6.16241E+03
 -8.92210E+03  4.52811E+03 -9.40457E+03 -5.21022E+03  2.04952E+03 -1.44148E+04  1.25905E+04 -2.16143E+04
  1.72174E+04 -5.39461E+03  2.08671E+04  2.63962E+03  1.90086E+04  1.86977E+04  7.00382E+03  2.27616E+04
 -4.82923E+03  3.19780E+04 -2.01913E+04  2.27606E+04 -1.90173E+04  3.68988E+03 -1.75475E+04 -5.30603E+03
 -2.24406E+03 -1.23560E+04 -3.49865E+03  4.65419E+03 -3.05989E+03  1.04457E+03 -7.35805E+03  6.11773E+03
 -2.03120E+04 -3.03145E+02 -1.19339E+04 -1.65528E+04 -2.00052E+03 -1.28289E+04  1.00100E+04 -1.38580E+04
  1.31792E+04 -6.19305E+03  8.17826E+03  8.33767E+03  4.47826E+03  8.38921E+03 -9.33533E+03  1.63123E+03
 -9.67815E+03 -1.32644E+04 -3.41442E+03 -1.50345E+04  1.11580E+04 -1.87753E+04  2.16828E+04 -1.19288E+04
  2.05507E+04 -1.31170E+03  1.82209E+04  1.13748E+04  1.02431E+03  2.19895E+04 -3.64016E+03  1.51966E+04
 -1.00471E+04  5.43172E+03 -5.28712E+03 -2.56236E+03  3.19130E+03 -7.81798E+03  9.35842E+03  3.29926E+03
  7.19877E+03  7.81408E+03  2.81842E+03  6.80112E+03 -2.75797E+03  1.15443E+04 -1.64483E+04  3.60053E+03
 -3.47024E+03 -3.79245E+03  1.92471E+03 -1.48111E+04  1.15601E+04 -8.50862E+03  1.16398E+04 -1.16740E+03
 -1.77187E+03  6.74506E+03 -1.04082E+03  1.34000E+04 -1.41326E+04  2.54283E+03 -9.79759E+03 -3.32676E+03
 -3.89589E+03 -1.66862E+04  9.36941E+03 -1.94471E+04  1.44486E+04 -1.70066E+04  1.62095E+04  7.73576E+03
  1.09089E+04  1.80117E+04  2.43161E+03  1.79376E+04 -1.06965E+04  9.01038E+03 -1.49028E+04 -5.85675E+03
 -1.03730E+04 -7.42705E+03 -3.20120E+03 -1.33963E+04  5.24935E+03 -5.17993E+03  4.15719E+03 -5.58095E+03
  1.66047E+03  1.55533E+03  2.03634E+03  7.00663E+03  1.76785E+03 -5.79539E+02  7.11460E+02 -1.00688E+04
  8.89598E+03 -1.83209E+03  7.93272E+03 -1.74650E+03  1.70345E+04  6.79839E+03  4.55938E+03  1.67073E+04
 -1.35456E+03  2.06985E+04 -2.09206E+04  1.69560E+04 -2.55808E+04  4.21597E+03 -2.35073E+04 -1.13961E+04
 -8.98035E+03 -1.02580E+04 -4.88743E+01 -1.30817E+04  1.34479E+03 -1.22172E+03  4.84326E+03  3.62207E+02
  4.71984E+03 -2.61152E+03  9.22034E+02 -5.13474E+03  5.93122E+03 -2.58265E+03  5.18977E+03 -5.56592E+02
  7.59009E+03  1.12832E+03  3.11946E+03  9.67394E+03 -3.47831E+03  2.63402E+03 -8.12510E+03  9.67581E+03
 -1.56711E+04 -7.57214E+02 -4.96766E+03 -8.80727E+03 -5.34677E+03 -1.37387E+04  2.98508E+03 -1.63838E+04
  1.80900E+04 -6.68677E+03  2.20366E+04  1.99793E+02  1.46499E+04  1.25863E+04 -1.73715E+03  1.96186E+04
 -1.06667E+04  1.05940E+04 -1.36837E+04  8.22857E+03 -1.29266E+04 -4.29868E+03 -6.78285E+03 -2.06836E+03
 -8.16482E+02  6.52168E+03 -5.87570E+03  2.58616E+03 -1.03949E+03  1.90747E+03 -1.12129E+04 -1.99825E+03
 -1.03301E+04 -4.95350E+03  1.30600E+03 -1.32975E+04  5.12480E+03 -1.48762E+04  1.46371E+04 -3.84087E+03
  1.47527E+04  3.36808E+03  1.94242E+03  1.30712E+04 -2.48182E+03  2.05534E+04 -7.09858E+03  8.46362E+03
 -1.24050E+04 -3.41113E+03 -7.99683E+03 -7.83729E+03 -2.23297E+02 -1.04553E+04  4.84203E+03 -4.12062E+03
  8.74944E+03  2.03386E+03  4.05305E+03  5.98884E+02  2.84353E+03 -8.67013E+02 -3.91533E+03 -3.57522E+03
  3.01298E+03  5.16304E+03  4.30897E+03 -1.59663E+03  4.91565E+03  3.76573E+03  1.08706E+03  1.31818E+04
  3.31774E+01  1.32156E+04 -1.09439E+04  1.58913E+04 -1.01619E+04  5.04389E+03 -1.64190E+04 -2.13278E+03
 -9.20693E+03 -1.55267E+04 -5.64967E+02 -1.30868E+04  5.70817E+03 -8.99000E+03  1.13559E+04  2.26033E+03
  9.77167E+03 -8.86321E+02 -8.54642E+02  4.26661E+03 -6.34228E+03  9.88525E+02 -8.00760E+03  3.75639E+03
 -1.02716E+04 -5.49656E+03 -6.20057E+02 -1.82503E+03  2.81882E+03 -1.50748E+03  5.42024E+03  1.94205E+03
 -2.12809E+03  1.46459E+03  3.79792E+03 -5.44618E+03 -1.05754E+03  2.73895E+03 -1.79627E+01 -9.07938E+02
  4.67617E+03 -1.25037E+03  1.77903E+03  1.46345E+03  5.66793E+03  4.75993E+03 -2.85217E+03  1.45377E+04
 -5.26447E+03  8.97551E+03 -6.33650E+03  3.43248E+03 -1.03443E+04 -5.81061E+03 -5.36481E+03 -1.37065E+03
  2.00604E+03 -1.91785E+03 -1.01760E+03 -5.89321E+03  6.65993E+03  3.89431E+01 -1.99870E+03  4.72905E+03
 -3.70608E+03  6.50884E+03 -2.77303E+03 -6.18536E+03 -5.04700E+03 -8.05512E+03  7.11289E+03 -7.38771E+03
  5.84482E+02 -2.96933E+03  7.06133E+03  3.19435E+02  7.06593E+03  6.50043E+03 -1.63037E+02  2.43819E+03
 -2.59852E+03 -4.53879E+02 -6.37275E+03 -7.30479E+03  7.80483E+03 -6.76220E+03  8.39514E+03 -2.86286E+03
  7.48188E+03  8.61722E+02  9.67285E+03  2.67197E+03  2.63707E+03  7.69832E+03 -3.68616E+03  8.16801E+03
 -1.13656E+04  5.87743E+03 -5.16542E+03 -3.29988E+03 -5.11972E+03  2.89784E+02  6.24561E+03 -9.68282E+03
  4.66402E+03 -4.61873E+03 -2.19509E+02  8.76742E+03 -4.82758E+03  6.92066E+03  6.65095E+03  6.70113E+03
 -2.58941E+03  1.53910E+03 -1.77864E+03  1.49757E+02  1.79132E+03 -4.96500E+03 -9.56862E+03  3.17175E+03
 -4.86546E+03  6.36374E+03 -6.63972E+03  7.35156E+03 -1.50174E+04 -3.22641E+03 -8.33654E+03 -5.36487E+03
 -8.58933E+02 -1.17116E+04  8.03615E+02 -1.06842E+04  6.80431E+03 -3.95919E+03  1.60708E+04 -6.43955E+03
  1.07475E+04  5.79604E+03  9.55106E+03  1.16787E+04  6.17774E+02  3.65616E+03 -4.82631E+03  4.07779E+03
 -1.29921E+03  5.28909E+03 -4.10614E+03 -1.18812E+03 -4.35541E+03  2.90539E+03  1.27187E+03 -1.94128E+03
 -2.16495E+02 -1.12437E+03 -1.98912E+03 -5.33518E+03  7.61515E+02 -1.63841E+03  6.11403E+02 -6.05370E+03
  3.54386E+03 -5.69553E+03  6.57513E+02 -5.77321E+02  9.50745E+03  7.94641E+03 -1.70964E+03  1.28618E+04
  1.89436E+03  1.40410E+04 -6.92639E+03  2.35432E+03 -1.13368E+04  2.61263E+03 -6.14184E+03 -1.21948E+03
 -2.84830E+03 -1.18904E+04  4.57595E+03 -1.02600E+04  7.54987E+03 -2.92648E+03  1.06845E+04  1.00244E+03
 -1.60546E+03  2.21052E+03  5.41267E+03  2.07742E+02 -3.62404E+03  7.58865E+03  3.08250E+03  1.74208E+03
  3.41229E+03 -1.46950E+03  4.34555E+03  1.91664E+03  2.63484E+03  5.03785E+03  4.33926E+02 -4.69934E+02
 -7.49752E+03  8.74501E+03 -2.24013E+03 -1.53417E+03 -6.19924E+03 -5.97999E+03  1.58357E+03 -1.00125E+04
  6.69723E+03 -6.03551E+03  3.91451E+03 -7.71220E+03  6.91625E+03  1.54892E+03  6.48993E+03  6.09342E+03
  6.31283E+03  6.35644E+03 -2.47287E+03  8.50916E+03 -8.54263E+03  3.54621E+03  9.77787E+02 -8.53181E+02
 -3.46170E+03  1.12294E+03 -6.74189E+03  3.96689E+03 -4.67282E+03  1.62754E+03 -6.52731E+03 -9.79734E+02
 -1.07936E+03 -5.05522E+03 -1.75612E+03 -3.43358E+03 -1.70343E+03 -7.46665E+03  5.32916E+03 -3.32498E+03
  6.38132E+03 -6.65826E+03  3.85043E+03  3.61149E+03  3.44112E+03  8.43727E+03 -3.44639E+03  2.67162E+03
