 $NMID ID='MM_0lb_SNR50_19hz_g60_38.RAW', FMTDAT='(8E13.5)'
 TRAMP=1., VOLUME=1. $END
  3.07140E+05  1.00997E+03  3.36918E+05  2.48340E+05  8.76075E+04  3.38490E+05 -1.37014E+05  2.48095E+05
 -1.88379E+05  8.30341E+04 -1.12181E+05 -2.88307E+04  4.38589E+03 -5.05350E+04  5.15950E+04  2.12377E+03
  3.07884E+04  5.11550E+04 -1.59666E+04  7.41002E+04 -5.85303E+04  5.77457E+04 -8.28531E+04  3.11545E+04
 -8.09051E+04 -1.02610E+04 -5.78352E+04 -4.98475E+04 -1.21057E+04 -7.02805E+04  2.92565E+04 -4.27068E+04
  4.22590E+04  3.03372E+03  1.66186E+04  4.79885E+04 -3.69066E+04  4.70759E+04 -6.49608E+04  8.06633E+02
 -4.86213E+04 -5.71134E+04 -7.96337E+03 -7.73296E+04  3.07325E+04 -5.54819E+04  5.11952E+04 -1.76704E+04
  4.20915E+04  1.00086E+04  3.22117E+04  2.62027E+04  1.37472E+04  3.28984E+04 -6.55444E+03  2.69157E+04
 -2.18972E+04  1.12398E+04 -1.78447E+04 -5.55264E+03  4.33539E+03 -4.44515E+03  1.86123E+04  1.10113E+04
  4.33067E+03  3.55362E+04 -2.89754E+04  3.96689E+04 -6.16786E+04  9.76853E+02 -5.82090E+04 -4.36548E+04
 -7.77792E+03 -5.64555E+04  3.87246E+04 -4.89460E+04  5.53482E+04 -3.43935E+03  3.33929E+04  3.37783E+04
 -9.04669E+03  3.12024E+04 -2.87683E+04  1.26332E+04 -2.93542E+04 -6.94457E+03 -1.59764E+04 -9.89104E+03
 -7.32752E+03 -1.08426E+04  1.66653E+03 -1.58747E+04  8.44341E+03 -2.37960E+04  1.28705E+04 -1.41241E+04
  9.13945E+03  3.49848E+03 -4.53130E+03  9.80689E+03 -1.75369E+04 -7.34293E+03 -8.54725E+03 -3.04491E+04
  2.09205E+04 -4.40645E+04  4.52865E+04 -2.10706E+04  4.29788E+04  2.12373E+04  1.76027E+04  4.41116E+04
 -1.69874E+04  3.41479E+04 -2.64135E+04 -5.36670E+02 -1.61405E+04 -2.59371E+04  1.93996E+04 -3.15886E+04
  4.04200E+04 -7.94096E+03  3.45618E+04  1.95805E+04  1.77393E+04  4.39374E+04 -7.28183E+03  4.66978E+04
 -2.53151E+04  3.12550E+04 -4.01381E+04  1.30770E+04 -3.83669E+04 -1.36074E+04 -2.18005E+04 -3.49149E+04
  3.36602E+03 -3.59025E+04  2.85783E+04 -1.19619E+04  3.10675E+04  9.35496E+03  5.49299E+03  1.80417E+04
 -1.16400E+04  9.96641E+03 -8.70268E+03 -7.45801E+03  3.61628E+03 -1.16507E+04  1.85566E+04  7.73123E+03
  1.44593E+04  2.61812E+04 -6.97826E+03  2.39488E+04 -2.25341E+04  8.02873E+03 -2.31928E+04 -4.70797E+03
 -1.87129E+04 -1.72342E+04 -5.57276E+03 -1.79055E+04  7.28767E+03 -1.29042E+04  1.86166E+04 -1.40203E+04
  2.48384E+04 -1.42585E+04  3.13854E+04  2.33215E+03  2.57365E+04  1.88309E+04  2.79457E+03  3.11170E+04
 -1.29546E+04  2.74670E+04 -2.74739E+04  5.31578E+03 -1.57903E+04 -1.29264E+04 -9.56514E+03 -1.47209E+04
  5.19235E+03 -4.03356E+03 -4.33228E+03  4.14467E+03 -1.76606E+04  3.09203E+03 -1.18119E+04 -6.64506E+03
 -9.68943E+03 -1.62390E+04  5.22780E+03 -1.72921E+04  1.28589E+04 -2.01734E+04  1.36938E+04 -3.94205E+03
  1.26654E+04  1.21095E+04 -3.72428E+03  1.67975E+04 -1.00043E+04  1.17756E+04 -1.46482E+04 -6.63236E+03
 -1.30840E+04 -1.33046E+04 -3.60004E+03 -1.61469E+04  6.05295E+03 -1.40152E+04  1.53197E+04 -8.84033E+03
  2.13256E+04 -1.80114E+03  1.51835E+04  1.21761E+03  1.91657E+03  5.04028E+03  7.79660E+03 -1.09530E+03
  1.59325E+04  2.58734E+03  1.52704E+04  1.54609E+04  1.22820E+04  2.56305E+04 -1.52835E+03  2.98350E+04
 -1.84119E+04  2.10574E+04 -2.27469E+04  1.25344E+04 -2.69479E+04 -3.11397E+03 -2.33559E+04 -1.37036E+04
 -1.20758E+04 -2.11447E+04  8.66829E+03 -1.72076E+04  1.71917E+04 -1.21942E+04  1.69437E+04  5.15057E+03
  1.11089E+04  1.33461E+04 -7.46968E+03  4.55005E+03 -1.28132E+04  1.89611E+03 -1.31358E+04 -8.50078E+03
 -3.62763E+03 -1.19799E+04  4.94539E+03 -6.97955E+03  8.47635E+03 -4.22153E+03  1.54649E+03  6.95982E+03
 -6.99263E+03  2.65759E+03 -1.08820E+04 -4.68528E+03 -8.26109E+02 -1.36700E+04  6.35094E+03 -7.14847E+03
  1.50461E+04 -4.54201E+03  1.26783E+04  4.75577E+03  1.34110E+04  1.13744E+04  5.58789E+03  1.57618E+04
 -2.21477E+03  1.75491E+04 -9.68968E+03  1.39902E+04 -1.19847E+04  1.11845E+03 -9.60648E+03 -6.86476E+02
 -5.20620E+03 -5.12037E+03  3.43930E+03  2.53639E+03 -2.27706E+03  5.03749E+02 -4.17986E+03  4.78464E+03
 -7.66913E+03 -4.85425E+03 -8.60603E+03 -1.52834E+04 -5.52946E+03 -1.19197E+04  1.27149E+03 -7.89865E+03
  1.13034E+04  6.68054E+02  3.28748E+03  7.88368E+03  8.37989E+02 -3.05078E+03 -3.77106E+03  4.37747E+03
 -4.30246E+03 -4.19869E+03 -2.68497E+03 -1.09423E+04  7.41551E+03 -8.84640E+03  1.04254E+04 -5.34211E+03
  1.14296E+04 -1.13281E+03  9.55923E+03  6.05044E+03  2.94916E+03  8.12501E+03 -4.74159E+03  1.04541E+04
 -6.21768E+03  4.18978E+03 -3.31374E+03 -3.43950E+03 -2.60061E+03 -2.45380E+03  8.83885E+03  1.66513E+03
  1.65275E+03  4.24486E+03  2.71979E+03  6.52133E+03 -4.26811E+03  5.83056E+03 -4.55670E+03  5.76354E+03
 -4.00392E+03 -4.03799E+03  5.01061E+02 -5.51159E+03  2.44271E+03  1.26175E+03  3.90109E+03 -2.62670E+03
  7.77540E+02  3.83832E+03 -4.01145E+03  6.28916E+03 -3.46092E+03  7.16311E+03 -4.68094E+03  2.03235E+03
 -2.12404E+03 -6.73916E+03  1.62966E+03 -7.82882E+03  2.91278E+03 -5.12260E+03  2.33408E+03  2.34963E+03
  5.39762E+03  5.54990E+03 -1.92826E+02  5.04437E+03 -6.40279E+03  3.29321E+03 -9.09468E+03 -4.80956E+02
 -6.69761E+03 -1.68063E+03 -2.31294E+03 -4.20774E+03 -7.51497E+02 -7.18734E+02  3.67263E+03  1.23770E+03
  2.42634E+03 -2.54031E+03  3.30192E+03  4.39686E+02 -3.95096E+03  3.89865E+03 -7.65900E+02  3.93178E+02
  1.78233E+02 -7.88200E+02  3.73669E+03 -3.44870E+03  7.92047E+03  3.30728E+03  8.50401E+03  5.11055E+03
  4.66699E+03  5.09245E+03 -6.31908E+03  8.30554E+03 -7.52811E+03  4.54884E+03 -1.25402E+04 -3.85049E+03
 -1.08042E+04 -8.69190E+03 -7.37844E+02 -1.51699E+03  4.43326E+03 -1.94439E+03 -3.95461E+03 -1.49920E+03
  5.86088E+03  2.90581E+03  1.18718E+03  8.95162E+02  3.69904E+03  3.72100E+02  4.06508E+03 -1.47100E+03
  4.00087E+03  5.96127E+03  5.07731E+02  6.33071E+03  1.60328E+02  1.50405E+03 -1.42727E+03  9.29509E+03
 -7.35337E+03  1.35202E+02 -4.47602E+03 -5.01746E+03 -4.53443E+02 -3.41225E+03  8.23071E+03 -5.30456E+03
  3.25376E+03 -9.22684E+03  8.86781E+03  1.28258E+03  4.85044E+03  5.10237E+03 -1.60071E+03  7.64292E+03
 -2.13687E+03  5.38455E+03  2.60267E+02 -4.13210E+01 -3.94857E+03 -9.48070E+02 -2.73934E+03  2.58333E+03
 -2.76891E+03 -1.39302E+02  1.67222E+03  4.03121E+03 -6.21074E+03  3.34183E+03 -3.17577E+03  1.05260E+02
 -4.06914E+02 -7.48326E+02 -3.75099E+03 -1.67814E+03  2.16394E+03 -4.90031E+03  7.77048E+03 -4.67308E+03
  7.62420E+03  2.65670E+03  2.39158E+03  6.49816E+03 -7.98692E+02  3.80379E+03 -2.95039E+03  2.52990E+03
 -4.45183E+03  2.38066E+03 -6.99408E+03  2.18153E+03  2.50051E+02  2.33858E+03  3.73327E+03 -1.68672E+03
  4.47358E+03 -6.76085E+03  2.37064E+03 -9.46823E+02  3.67674E+03  1.66753E+03  7.51751E+02  3.78552E+03
  2.96706E+03 -3.57957E+03  3.52507E+03  9.24825E+02  3.05068E+02 -1.03267E+02  1.77292E+03  3.63587E+03
  6.81696E+02  5.80292E+03 -7.29714E+02  1.24053E+03 -5.13225E+03  2.57119E+03 -5.09055E+03  1.77594E+02
  2.56293E+03 -1.12797E+03  3.69371E+01 -6.38876E+03  2.49426E+03 -3.83070E+03  5.63915E+02 -9.17835E+01
 -8.79837E+02 -9.30334E+02 -2.20490E+03 -2.19324E+03  2.43762E+03  4.75008E+02  2.49747E+03 -1.62387E+03
 -4.67013E+03 -3.09365E+03 -4.92521E+02  1.54070E+03  7.30313E+03  6.24193E+02 -1.50859E+03 -2.20744E+02
  1.46503E+03  2.25903E+03  4.17712E+03  1.02481E+03  2.42997E+03  3.52157E+03 -9.60088E+02  2.90789E+02
  1.33698E+03  1.05522E+03  3.02709E+03  3.73288E+03 -2.04394E+03  3.14222E+03 -4.88741E+03  2.00525E+03
 -5.73266E+03  4.23383E+03  3.76007E+03  5.25883E+03  4.66394E+03 -3.70446E+03 -3.28691E+03 -1.88151E+03
 -5.14125E+02 -1.30540E+03 -7.78970E+02 -1.37612E+03  8.54622E+02  2.63684E+03 -3.87409E+03  1.95402E+03
  1.76520E+03 -1.93976E+02 -3.78934E+02 -3.44962E+03  1.34836E+03 -7.39763E+03 -1.11112E+03 -3.94679E+03
 -1.77470E+03  2.19117E+03  3.48557E+03 -3.54138E+03  3.64293E+03 -4.22560E+03 -2.56240E+02  5.40324E+02
  3.61938E+03  1.78386E+03 -1.05896E+03  4.56636E+03  2.28362E+02 -2.44117E+03 -8.75761E+02  2.45545E+02
 -1.84192E+03 -2.07663E+03  6.85494E+03 -9.11021E+01  1.85415E+02  5.66697E+03 -5.32895E+03 -1.13433E+03
  6.54700E+02 -1.59326E+03 -1.30731E+03  3.94149E+02 -1.81715E+03 -4.52890E+03  7.19740E+02  7.78456E+02
 -2.40518E+03 -2.11870E+03 -2.08460E+03 -6.53399E+02  2.26800E+03  1.65706E+03 -1.10527E+03  2.57658E+03
  1.66478E+03  2.00239E+03  7.61432E+02 -1.45836E+03  3.79937E+03 -3.23987E+03 -1.05742E+03  5.78445E+02
  1.57908E+03  2.82168E+03 -4.29014E+03 -2.68574E+03 -6.63157E+02 -2.57307E+02  6.11311E+02  1.18649E+03
  2.23198E+03 -1.83117E+03  2.64741E+03 -1.19536E+02  3.07396E+03 -4.68104E+03  4.92834E+03 -4.34052E+03
  2.90218E+03 -8.25488E+02  2.97854E+03  2.06215E+02 -1.55287E+03 -3.27972E+03  5.59222E+03  3.60255E+03
  3.05396E+02 -2.96376E+03 -2.07456E+03 -4.93181E+03 -3.44742E+03  3.29106E+03 -1.59557E+03  1.74103E+03
  3.14884E+03  5.74888E+03  1.23304E+03  5.19907E+02  4.80053E+03  1.39924E+03 -1.21784E+03 -2.21224E+03
  1.31115E+03 -5.24843E+02 -2.67683E+03  1.24743E+03  3.12902E+01  4.23724E+03  1.37238E+03  6.57830E+03
 -1.50775E+03  3.12313E+03 -4.00214E+03  5.60736E+02  1.04264E+03 -1.54711E+02 -5.08360E+03  8.11961E+02
  2.70570E+03 -1.96870E+02 -1.14273E+03 -7.06402E+03  4.64230E+03 -4.41312E+03 -7.00510E+01  2.30865E+03
  2.31264E+03 -1.36824E+03 -5.27138E+01 -9.35067E+02 -4.08508E+03 -1.47693E+03 -1.14070E+03  1.73316E+03
 -3.01791E+03  1.91869E+03  2.45222E+03 -1.37062E+03  6.88636E+02  7.95417E+02  3.22270E+02 -1.79212E+03
 -1.26047E+03  4.90808E+01 -4.20146E+03 -9.55975E+02  1.39113E+03  4.08299E+02 -3.95253E+02 -1.34299E+03
 -1.88343E+03 -4.02527E+03 -4.51346E+03  1.43548E+03  2.61772E+03  4.40811E+02  2.60842E+02  4.18285E+02
 -3.12931E+03 -2.21302E+01 -2.62488E+02  4.92853E+02 -1.98710E+03 -9.49089E+02 -1.92801E+03 -3.53681E+03
  1.02170E+03  2.37576E+03 -8.46196E+02  8.93390E+02 -1.90877E+03  7.22284E+02 -2.92744E+03 -2.55575E+03
 -2.21924E+03  2.35419E+03  4.15764E+03 -4.44493E+03 -8.14030E+02 -2.19105E+03 -9.22919E+02 -4.93819E+03
  4.05817E+03 -1.89966E+03  3.50969E+02  4.45586E+03  2.23673E+03  5.84711E+02  4.45656E+02 -6.78970E+02
