 $NMID ID='MM_0lb_SNR50_18hz_g60_21.RAW', FMTDAT='(8E13.5)'
 TRAMP=1., VOLUME=1. $END
  3.09007E+05  3.22398E+03  3.38584E+05  2.53170E+05  8.13231E+04  3.37088E+05 -1.34640E+05  2.49562E+05
 -1.92077E+05  8.29472E+04 -1.09053E+05 -2.81742E+04  1.39870E+03 -4.55354E+04  5.40110E+04 -2.72898E+03
  3.16381E+04  5.26681E+04 -1.77266E+04  7.79258E+04 -6.16366E+04  6.29804E+04 -8.38779E+04  3.04254E+04
 -8.24236E+04 -8.17107E+03 -5.74154E+04 -4.86851E+04 -1.54276E+04 -6.77966E+04  2.87435E+04 -4.73271E+04
  4.19490E+04  3.44995E+03  1.40658E+04  5.13602E+04 -3.26881E+04  4.75634E+04 -6.41710E+04  1.11084E+03
 -5.43505E+04 -5.21226E+04 -7.29100E+03 -7.51989E+04  3.38539E+04 -5.66915E+04  4.98454E+04 -2.12776E+04
  4.43730E+04  1.15586E+04  3.30986E+04  2.36662E+04  1.90093E+04  2.52976E+04 -6.70130E+03  2.49061E+04
 -2.08571E+04  1.33962E+04 -1.67716E+04 -4.80546E+03  2.90441E+03 -8.00236E+03  2.16913E+04  1.18829E+04
  4.84961E+03  3.51179E+04 -3.07190E+04  3.34915E+04 -6.74268E+04  4.08769E+02 -5.70257E+04 -4.72596E+04
 -1.64249E+04 -6.70798E+04  3.85576E+04 -4.43090E+04  5.72350E+04  8.62836E+02  3.28497E+04  2.90249E+04
 -6.62527E+03  2.97090E+04 -2.98871E+04  1.65064E+04 -3.67079E+04 -8.64356E+03 -1.71551E+04 -5.98244E+03
 -1.08692E+04 -1.71459E+04 -3.68738E+02 -1.71075E+04  8.11769E+03 -2.56689E+04  1.69573E+04 -1.24492E+04
  8.96783E+03  7.49132E+03 -5.64849E+03  1.27621E+04 -2.00116E+04 -3.52007E+03 -8.26949E+03 -3.02806E+04
  1.98255E+04 -3.74165E+04  4.73376E+04 -1.87283E+04  4.14483E+04  1.70734E+04  1.87830E+04  4.11983E+04
 -1.10595E+04  3.20365E+04 -2.55937E+04  2.09445E+03 -9.77900E+03 -2.80609E+04  2.05123E+04 -3.10741E+04
  4.30437E+04 -7.75947E+03  3.32777E+04  2.34146E+04  2.07427E+04  4.30580E+04 -8.61053E+03  4.87466E+04
 -2.87098E+04  3.22139E+04 -3.71383E+04  7.84095E+03 -4.40556E+04 -1.58443E+04 -2.16330E+04 -3.66952E+04
  6.34289E+03 -3.46086E+04  2.95290E+04 -1.15506E+04  2.56002E+04  9.74051E+03  5.05059E+03  1.92583E+04
 -1.72432E+04  6.48072E+03 -9.59032E+03 -5.10287E+03  7.40610E+03 -1.33792E+04  2.16557E+04  4.40238E+03
  1.60185E+04  2.25022E+04 -4.95336E+03  2.33388E+04 -2.36758E+04  1.33355E+04 -2.46905E+04 -7.57694E+03
 -1.78191E+04 -1.53126E+04 -6.17064E+03 -1.69293E+04  4.90685E+03 -1.63173E+04  1.64845E+04 -1.10284E+04
  2.52734E+04 -1.39092E+04  2.94735E+04  4.27600E+03  2.16762E+04  1.55943E+04  9.77924E+03  3.83606E+04
 -1.62998E+04  3.05179E+04 -2.50618E+04  9.37563E+03 -2.19229E+04 -1.11321E+04 -1.92276E+03 -1.27892E+04
 -3.08171E+02 -3.62773E+03 -1.58108E+02  6.67116E+03 -1.20370E+04  5.12651E+03 -1.50576E+04 -4.05451E+03
 -2.98681E+03 -1.74292E+04  5.52818E+03 -2.27968E+04  1.20271E+04 -1.33825E+04  1.71457E+04  3.17853E+03
  9.48912E+03  1.28831E+04 -3.58645E+03  1.92256E+04 -1.10221E+04  1.07208E+04 -1.90810E+04  1.50278E+03
 -1.33886E+04 -1.28016E+04 -1.41507E+03 -2.34374E+04  7.91944E+03 -2.14187E+04  1.69280E+04 -7.73912E+03
  1.91177E+04 -5.04096E+02  1.21549E+04  3.09288E+03  4.73167E+03 -2.26065E+03  9.98364E+03  8.29277E+02
  1.55498E+04 -4.62727E+03  1.39963E+04  7.85499E+03  9.33193E+03  2.43461E+04 -2.20602E+03  2.69475E+04
 -2.11513E+04  2.63459E+04 -2.21598E+04  8.15225E+03 -2.92949E+04  3.01489E+03 -2.20408E+04 -1.77301E+04
 -9.64139E+03 -2.33295E+04  9.15430E+03 -1.84732E+04  1.61701E+04 -9.56751E+03  1.56195E+04  2.25250E+03
  7.38254E+03  1.25381E+04 -9.72250E+03  1.07200E+04 -1.78494E+04  2.29822E+03 -9.85594E+03 -9.57363E+03
  2.39786E+03 -1.42239E+04  6.95305E+03 -7.15148E+03  1.09839E+04 -3.12449E+03  3.20781E+03  4.28490E+03
 -1.00483E+03  1.95533E+03 -1.93959E+03 -3.02830E+03 -1.87905E+03 -5.31589E+03  5.32063E+03 -1.38786E+04
  1.81928E+04 -4.25596E+03  1.27503E+04  5.93731E+03  1.16467E+04  7.31942E+03  5.51061E+03  1.62866E+04
  2.56559E+02  2.15179E+04 -1.11035E+04  1.20012E+04 -1.26071E+04  4.18026E+03 -9.36923E+03 -6.15193E+03
 -6.62904E+03 -4.36180E+03  2.26178E+03  2.44966E+03  2.18474E+02  2.60585E+02 -5.41219E+03 -1.98194E+03
 -1.10891E+04 -1.37964E+03 -4.38749E+03 -8.38132E+03 -1.45075E+03 -1.17499E+04  7.29016E+02 -1.23957E+04
  7.04609E+03 -6.78489E+03  7.16686E+03  2.65779E+03  4.40843E+03  6.43176E+03 -1.93598E+03 -4.08745E+03
 -6.39828E+03 -2.89729E+03 -3.40478E+03 -1.50476E+04  3.41207E+03 -8.11035E+03  1.32991E+04 -4.37886E+03
  1.25032E+04  3.38143E+03  1.07494E+04  4.30660E+03  7.59712E+03  6.10982E+03 -5.37595E+03  7.64277E+03
 -7.48827E+03  1.90485E+03  8.04130E+02 -7.77348E+02  4.30061E+03 -5.58831E+03  6.46396E+03  3.09051E+03
  8.84680E+03  1.35032E+03  1.30070E+03  6.28410E+03 -7.31859E+03  6.94398E+03 -3.99671E+03  1.01008E+03
 -1.89065E+03 -9.86458E+02 -1.23009E+03 -6.90205E+03  9.06350E+03 -4.23817E+03  4.39839E+03  6.26584E+02
  1.08979E+03  2.90162E+03 -5.69560E+03  5.41007E+03 -4.04785E+03  7.62723E+02 -7.21478E+03 -2.66686E+03
 -1.32814E+03 -7.93667E+03  5.18209E+03 -1.13949E+04  5.89461E+03 -1.59851E+03  9.52681E+03  4.13751E+03
  9.22115E+03  5.44358E+03 -1.35354E+03  1.17207E+04 -4.06803E+03  1.28307E+03 -6.55746E+03  3.30679E+03
 -5.48461E+03 -6.69806E+03 -2.90389E+03 -1.13282E+04 -5.52321E+02 -4.29738E+03 -1.40186E+03 -1.72209E+03
  3.18503E+03  3.25200E+03 -7.98311E+02  3.24627E+03  1.04033E+03 -5.06125E+03  4.70531E+03  5.67282E+02
  4.75734E+03  2.88441E+03  3.83760E+03 -1.49211E+03  1.01035E+04  5.17170E+03  3.21052E+03  1.06632E+04
 -4.92717E+03  1.45714E+04 -6.02008E+03  4.89271E+03 -7.77682E+03 -1.28495E+03 -4.64548E+03 -4.71208E+03
 -6.28646E+03 -6.45113E+03 -3.23537E+03 -3.27911E+03  2.48007E+03 -5.06119E+03  1.20790E+03 -1.49209E+03
 -1.66947E+02 -1.86182E+02 -3.69342E+02 -1.32110E+03  8.36000E+03 -3.60968E+03  7.63577E+03  1.52073E+02
  1.00813E+04  3.95734E+03  1.06193E+03  4.92145E+03 -8.39125E+03  1.30014E+03 -8.09647E+03  2.38363E+03
 -4.09796E+03  3.43255E+03 -4.38464E+03 -6.69812E+03  7.07596E+02 -3.14713E+03  5.36057E+03 -2.44208E+03
  1.49267E+04 -9.55944E+01  3.99967E+03  1.05520E+03  1.38594E+04  1.76570E+03 -1.85264E+03  2.29183E+03
  9.94816E+02  5.30132E+03 -3.26473E+03 -5.52618E+02  1.47112E+03  1.43880E+03 -1.59114E+03 -5.27810E+02
 -8.50667E+02  2.03962E+03 -2.56367E+03  1.51779E+03 -4.92427E+03  5.51700E+03 -5.90378E+03 -3.62546E+03
 -3.81360E+03 -2.07684E+03 -6.41873E+01 -6.71922E+03  2.35099E+03 -2.49086E+03 -7.52513E+00 -2.85348E+03
  6.33498E+03  7.58580E+03 -8.41829E+02  6.32199E+03  1.88981E+03  5.38206E+03 -5.03682E+03  5.74520E+03
 -7.36041E+03  2.44859E+03 -2.73442E+03 -2.55982E+03  1.54802E+03 -2.31604E+03  1.25895E+03 -5.42446E+03
  2.81269E+03 -7.00988E+02  4.59125E+03  7.97450E+02  1.80798E+03  5.13299E+02 -2.68063E+02 -2.40437E+03
  3.58041E+03  9.27181E+02  2.76028E+03  5.24977E+03 -1.75135E+03  2.61233E+03  1.55196E+03  6.62506E+02
 -5.19531E+03  7.86769E+03 -1.23367E+03  2.78979E+03 -4.52938E+03  2.26503E+03 -2.82477E+03  4.27532E+03
 -1.06340E+03 -3.12122E+03  9.20637E+02 -2.86882E+03  7.53443E+03 -1.61176E+03  2.75469E+03 -7.63479E+02
  4.93803E+03 -1.76852E+03  3.61370E+03  2.64665E+03 -6.22632E+03  2.84719E+03  1.02372E+03  4.58499E+03
  2.34694E+03 -1.20023E+03  3.07852E+02 -8.33751E+03  1.93418E+03 -4.17245E+03  3.68974E+03 -8.56645E+02
 -2.93506E+02  2.87924E+03 -4.11728E+02  2.44501E+02 -4.89085E+03  2.24820E+03  1.36310E+03  4.28384E+03
 -1.21328E+03  4.82993E+03  2.32556E+03 -1.71095E+02  5.22548E+03  5.51430E+02 -5.91570E+02  4.14339E+03
 -2.20513E+03  7.06143E+02  7.15536E+02  3.99319E+03  5.25090E+02 -1.32389E+03 -1.57888E+03 -4.79933E+03
  2.23674E+01 -2.51978E+03 -4.06133E+03 -1.00317E+03 -2.17341E+03 -7.20038E+03 -1.53626E+03 -1.03559E+01
 -2.46037E+03  4.66137E+03 -1.85905E+03 -4.56294E+03 -3.77359E+02 -7.11010E+03  7.90562E+03 -1.11941E+02
  8.29014E+02 -1.86528E+03  2.46494E+03  3.64750E+03  6.04636E+03  8.14784E+02  1.17666E+03  8.39378E+02
 -9.25588E+02 -5.91672E+02  4.05667E+03 -2.72633E+03  1.86268E+02 -1.09271E+03  1.68218E+03  1.43129E+03
  2.18066E+03 -2.05889E+03  4.82636E+03  3.07087E+03  2.68613E+03  4.05977E+01  2.19214E+03  1.68742E+03
 -2.52577E+02 -1.11142E+01 -3.10135E+03  6.74555E+02  7.17804E+01 -1.74067E+02 -1.75872E+03 -3.50780E+03
  4.21268E+03  4.01580E+02  2.39724E+02  5.51311E+03 -2.73289E+03 -1.91009E+03  2.46643E+03 -1.93794E+03
 -1.66320E+03  3.26592E+03  3.42557E+03 -2.77611E+03 -2.70866E+03  5.16885E+03 -2.23103E+03  7.39863E+02
 -5.40497E+03  2.73619E+02 -1.44869E+03  2.13200E+03 -7.56083E+03 -1.86238E+03 -5.37360E+02 -1.87003E+03
 -7.18069E+02 -2.96134E+03  2.76132E+02 -2.48073E+03  6.46622E+03 -4.44669E+03  5.32898E+03 -1.06475E+03
 -1.05851E+03 -3.70307E+03  4.24959E+03  1.96780E+03  8.77997E+02 -8.43442E+02 -8.27956E+02  6.63389E+02
  2.18227E+03  7.62488E+02 -5.33422E+03 -1.60605E+03  1.25416E+02  4.55805E+03  1.96907E+03 -8.70611E+02
 -4.29680E+03 -9.44971E+02  4.06582E+03 -1.29101E+03  3.18232E+03 -7.69445E+01 -2.30750E+03  1.95389E+03
  5.17122E+03 -3.02178E+03  3.62235E+02  2.23592E+03  4.94219E+02  5.15184E+03 -1.10923E+02  4.80704E+03
  6.51419E+02  3.13891E+03 -1.45459E+03  3.18699E+03 -4.14463E+03 -4.01954E+03 -3.36398E+03  5.21400E+02
  2.62810E+03 -3.86988E+02 -1.04330E+03 -2.59277E+01  1.33274E+03 -3.45186E+03 -1.42689E+03 -1.73929E+02
 -2.99716E+03  1.66487E+03  2.17552E+03  2.43094E+03 -1.77715E+03  7.36549E+02  2.49987E+03  4.05597E+03
  1.81597E+03 -1.43442E+03 -5.25265E+03  2.24571E+03 -5.83931E+02 -9.94772E+00  2.49418E+03 -1.64205E+03
  5.96582E+03 -1.91427E+03 -1.44095E+03  2.38511E+03 -1.13242E+03 -3.52778E+03 -6.39628E+02  2.49954E+03
 -8.39064E+02  6.80534E+02  6.00918E+02 -1.27942E+03  2.34839E+03 -2.40573E+03 -1.49567E+03 -5.06490E+03
  1.01873E+03 -2.72248E+03 -1.12930E+03  5.06572E+03 -2.71820E+02 -3.03204E+03 -9.73404E+02 -4.98098E+02
  2.29998E+03  1.49562E+03  4.15977E+03 -2.44590E+03 -3.67052E+03  6.09229E+02 -1.87429E+03 -3.11960E+03
 -6.15069E+03  2.12014E+03 -1.67626E+03  2.00440E+03  2.28950E+03 -2.48058E+03  4.08063E+03  2.65472E+03
  5.49031E+02  7.64840E+02 -1.05543E+02  9.06807E+02 -1.89536E+03  2.83887E+03  1.19513E+03  5.08117E+03
