 $NMID ID='MM_0lb_SNR50_7hz_g45_13.RAW', FMTDAT='(8E13.5)'
 TRAMP=1., VOLUME=1. $END
  3.05606E+05 -5.67782E+03  3.39770E+05  2.52385E+05  9.31173E+04  3.36240E+05 -1.38128E+05  2.56437E+05
 -1.91170E+05  7.98315E+04 -1.14938E+05 -3.57159E+04 -2.16968E+03 -5.25414E+04  4.99452E+04  2.03371E+03
  3.84681E+04  5.76354E+04 -1.91047E+04  7.55625E+04 -5.90567E+04  6.22576E+04 -7.56601E+04  2.89556E+04
 -8.50043E+04 -1.09236E+04 -5.49639E+04 -5.22631E+04 -1.35460E+04 -7.86316E+04  2.05517E+04 -4.77446E+04
  4.19392E+04  5.87225E+03  1.85507E+04  5.54977E+04 -3.67116E+04  4.67653E+04 -6.19485E+04  2.90059E+02
 -6.08157E+04 -5.85299E+04 -2.71341E+03 -8.67719E+04  3.10763E+04 -6.27414E+04  5.40601E+04 -1.74975E+04
  4.71482E+04  1.57041E+04  3.05138E+04  2.77926E+04  1.63427E+04  2.52676E+04 -7.96345E+03  3.37269E+04
 -2.47195E+04  1.03707E+04 -1.22773E+04 -1.48908E+04  4.20662E+03 -4.73745E+03  2.06581E+04  1.99108E+04
  5.43706E+03  3.85798E+04 -3.27936E+04  3.45824E+04 -6.71935E+04  1.82154E+03 -5.87855E+04 -3.28455E+04
 -1.55873E+04 -7.25040E+04  4.09101E+04 -5.34342E+04  6.78948E+04  2.57383E+03  3.99224E+04  4.60738E+04
  1.62072E+03  4.56581E+04 -3.08432E+04  2.16302E+04 -3.01852E+04  3.98500E+01 -2.42932E+04 -8.18524E+03
 -4.97020E+03 -1.58202E+04  3.89783E+03 -1.80141E+04  5.95378E+03 -3.07780E+04  1.18852E+04 -1.61794E+04
  1.15334E+04  9.44814E+03 -1.07316E+04  1.06126E+04 -2.23103E+04 -1.08819E+04 -5.89915E+03 -4.22423E+04
  2.42530E+04 -4.42120E+04  6.28173E+04 -2.37381E+04  4.26545E+04  2.56640E+04  2.21485E+04  4.33475E+04
 -1.86898E+04  3.27716E+04 -2.27420E+04  7.87735E+03 -1.76325E+04 -2.69746E+04  2.66355E+04 -3.65166E+04
  4.51902E+04 -6.32987E+03  3.94212E+04  2.90059E+04  2.40235E+04  5.42459E+04 -1.05448E+04  6.19930E+04
 -3.93884E+04  3.49862E+04 -4.90716E+04  2.15180E+04 -4.81275E+04 -1.89258E+04 -2.04144E+04 -4.51026E+04
  1.14177E+04 -3.57718E+04  4.18834E+04 -1.57586E+04  3.74226E+04  1.44051E+04  7.52635E+03  1.98993E+04
 -1.27578E+04  3.63816E+03 -1.00382E+04 -9.47061E+03  4.35838E+03 -1.29444E+04  2.08282E+04  4.55436E+03
  1.63282E+04  3.19363E+04 -1.61961E+03  3.05944E+04 -2.17320E+04  1.28649E+04 -3.41468E+04 -5.04723E+03
 -2.92401E+04 -2.75634E+04 -1.25471E+04 -2.61527E+04  1.35059E+03 -2.95604E+04  1.87073E+04 -2.08209E+04
  3.48351E+04 -1.03144E+04  4.31315E+04  8.76266E+03  2.45470E+04  2.65284E+04  3.08810E+03  4.49577E+04
 -1.70811E+04  4.17093E+04 -3.25082E+04  8.09089E+03 -2.67093E+04  2.08704E+03 -9.54983E+03 -7.53312E+03
 -1.07201E+03  3.54092E+02 -9.38611E+03  6.61258E+03 -1.47640E+04  1.03126E+04 -1.79906E+04 -1.45309E+04
 -5.44597E+03 -2.72461E+04  2.01015E+03 -2.90152E+04  1.33484E+04 -1.70532E+04  1.34281E+04  3.03046E+03
  1.58819E+04  1.96684E+04 -5.30910E+02  2.46486E+04 -1.00290E+04  1.78808E+04 -2.48205E+04 -3.47580E+02
 -1.90028E+04 -2.51485E+04  3.04009E+02 -3.15367E+04  1.51912E+04 -2.36968E+04  2.65019E+04 -1.33442E+04
  1.89798E+04 -1.18960E+03  1.80591E+04  2.91404E+03  1.36412E+04 -1.10762E+03  1.28095E+04 -2.26917E+03
  2.31426E+04 -5.40970E+01  2.48114E+04  1.53047E+04  2.32394E+04  3.87083E+04 -5.59599E+03  5.14446E+04
 -2.05045E+04  4.52298E+04 -4.11143E+04  2.11503E+04 -6.12840E+04 -7.63534E+02 -4.89210E+04 -2.38598E+04
 -1.98260E+04 -3.69872E+04  1.42823E+04 -3.33711E+04  3.49113E+04 -1.56734E+04  1.98851E+04  2.04076E+04
  7.01424E+03  2.00133E+04 -1.06782E+04  1.77482E+04 -2.95272E+04  2.25343E+03 -1.94216E+04 -1.69259E+04
  2.90810E+02 -1.78666E+04  1.03082E+04 -1.63453E+04  9.51772E+03  3.05888E+03  3.85222E+03  1.00930E+04
 -6.69327E+03  8.28471E+03 -1.68176E+04 -7.05308E+03 -3.15021E+03 -1.41815E+04  1.34787E+04 -2.30630E+04
  1.89137E+04 -1.52062E+04  3.35583E+04  6.99358E+03  2.52059E+04  2.52103E+04  1.70382E+04  3.18537E+04
 -1.16203E+04  3.02783E+04 -1.99822E+04  1.77144E+04 -3.10926E+04  6.42277E+03 -2.02088E+04 -1.22117E+04
 -4.96082E+03 -9.15789E+03 -2.85122E+03  4.18935E+03 -8.13362E+03  4.40586E+03 -6.74368E+02  3.46905E+03
 -1.94077E+04  1.51948E+03 -1.82863E+04 -1.18613E+04 -1.30951E+04 -2.56692E+04  9.44549E+03 -2.55254E+04
  1.25574E+04 -5.59478E+03  9.45598E+03 -1.37146E+03  1.34767E+03  5.25267E+03 -5.11624E+03 -2.04442E+03
 -5.40045E+03 -7.36745E+03 -5.65606E+00 -1.81024E+04  1.33679E+04 -1.78394E+04  2.54166E+04 -1.36500E+04
  2.61663E+04 -1.61127E+03  1.47612E+04  1.52563E+04  2.23716E+02  2.47882E+04 -7.93386E+03  1.70414E+04
 -1.32709E+04  2.14123E+03 -1.00326E+04 -7.03663E+03 -1.10124E+03 -6.08031E+03  2.28920E+03 -2.94564E+03
  8.30404E+02  1.08513E+04  1.08523E+02  1.46838E+04 -1.04851E+04  1.51125E+04 -1.59338E+04  6.73846E+03
 -1.58112E+04 -1.08579E+04  2.98671E+03 -1.82658E+04  6.91791E+03 -8.14553E+03  9.71584E+03 -1.47333E+02
  2.82085E+03  6.03099E+03 -6.33029E+03  1.52242E+04 -1.26059E+04  5.96669E+03 -1.93107E+04 -2.90436E+03
 -7.63796E+03 -1.19236E+04  1.25235E+04 -1.35251E+04  1.51478E+04 -1.18667E+04  1.66714E+04  2.05213E+03
  2.02110E+04  1.96944E+04 -8.32067E+03  1.18676E+04 -1.14748E+04  1.04974E+04 -1.26047E+04 -4.33485E+03
 -8.26504E+03 -8.92720E+03  5.08433E+03 -1.90037E+04  5.27431E+03 -7.75402E+03  1.06785E+04  2.40791E+03
  4.51669E+03 -1.91037E+03 -5.51844E+03  5.07723E+03 -5.52208E+03 -3.58355E+03  3.07425E+03 -1.23239E+04
  1.90765E+04 -2.48902E+03  1.80792E+04  6.69567E+00  1.65293E+04  5.50204E+03  1.24855E+04  2.65507E+04
 -5.10661E+03  2.50727E+04 -2.42185E+04  1.57572E+04 -3.47813E+04  1.65790E+03 -2.16373E+04 -1.29363E+04
 -8.81853E+03 -1.81592E+04  2.60633E+03 -9.84645E+03  8.21323E+03 -1.30039E+04  3.86016E+03 -6.10625E+03
  3.44757E+03 -1.27104E+03  5.15017E+03 -3.60151E+03  3.64151E+03 -9.00278E+03  1.13242E+04  1.60130E+03
  9.79463E+03  5.92997E+03  4.81383E+03  1.31374E+04 -3.47719E+03  1.11489E+04 -1.30653E+04  1.41850E+04
 -1.15825E+04  3.23240E+03 -1.00491E+04 -9.71292E+03  6.07125E+03 -1.53909E+04  1.32280E+04 -1.90943E+04
  1.57150E+04 -1.38161E+04  2.18388E+04  4.71400E+03  2.04091E+04  1.82064E+04  6.56351E+03  2.18931E+04
 -8.96174E+03  1.02949E+04 -1.53340E+04  6.49962E+03 -9.98873E+03 -8.94228E+03 -1.85485E+03 -2.07939E+03
  7.96315E+02 -8.19062E+03 -5.25109E+03  5.83943E+03 -4.85048E+03 -8.02843E+02 -1.08718E+04  3.22130E+03
 -1.47698E+04 -4.53273E+03 -5.88884E+03 -1.43466E+04  4.95631E+03 -1.85115E+04  1.20163E+04 -8.61843E+03
  2.04856E+04  1.23305E+04  1.89288E+04  1.74158E+04 -3.74074E+03  2.16054E+04 -7.57431E+03  8.68896E+03
 -1.85207E+04 -1.90159E+03 -1.10145E+04 -1.58649E+04  2.57102E+02 -1.74723E+04  1.90179E+03 -1.08346E+04
  8.58314E+03 -6.25060E+03  1.52685E+04  9.21860E+03  6.04562E+03  1.63066E+03  9.03131E+03 -5.42540E+01
 -4.43371E+03  3.87366E+03  3.81491E+03  4.91627E+03  1.29361E+04  4.60375E+03 -2.29471E+03  7.71364E+03
 -2.35710E+02  1.11532E+04 -1.02369E+04  1.44067E+04 -1.94572E+04  9.12761E+03 -1.94904E+04 -1.33955E+04
 -4.41853E+03 -2.23489E+04 -4.62685E+03 -2.02768E+04  9.76916E+03 -2.11614E+04  7.46010E+03  2.29285E+03
  2.00392E+04  1.17706E+04  4.35353E+03  4.79820E+03 -6.21378E+03  5.91311E+03 -1.21809E+04  1.00783E+03
 -1.57715E+03 -5.91553E+03  1.33541E+03 -9.79480E+03  9.24145E+03 -1.16477E+02  1.65881E+04 -5.93256E+03
  7.24126E+03  1.15784E+04  2.60814E+03  7.68803E+03  3.77370E+03 -7.60605E+03 -2.85778E+02 -3.11094E+03
 -1.15354E+03 -6.48487E+02  3.19542E+03  3.42623E+03  6.06291E+03  1.11993E+04 -5.88348E+03  1.28985E+04
 -5.40023E+03  7.22094E+03 -1.06485E+04  1.74921E+03 -4.99488E+03  2.39925E+02 -3.89016E+03 -7.32163E+02
  3.26389E+03 -9.30138E+03  2.47095E+02 -7.51225E+03  6.12323E+03  1.91734E+03 -1.33484E+03  1.15321E+04
 -3.22990E+03  8.57562E+03 -3.27469E+02 -1.22481E+04  7.00188E+02 -2.49134E+03 -1.94918E+02 -1.22911E+04
  6.24318E+03 -8.24466E+03  1.02057E+04  1.24489E+03  1.82507E+03  6.58491E+03  6.13861E+03  9.33990E+03
 -6.52114E+03  5.99881E+03  3.70054E+03 -3.03583E+03  3.30204E+03 -4.50887E+03  1.31247E+04 -1.19291E+04
  1.16309E+04 -7.33581E+03  1.78888E+04  8.16174E+03  2.54759E+03  1.59138E+04 -1.44776E+03  5.33514E+03
 -1.63346E+04  4.23763E+03 -1.61532E+04 -5.83943E+03 -6.96659E+03 -7.06976E+03  3.72603E+03 -4.11523E+03
  1.25169E+04 -8.60459E+03  1.41540E+04  2.11957E+03 -1.11927E+03  8.84589E+03  3.60602E+03  9.02536E+03
 -1.98772E+03  5.46005E+03 -6.36255E+03  1.77116E+03  3.02074E+03 -9.97164E+02 -4.11157E+03  3.61078E+03
 -7.42179E+03  1.07941E+03 -1.31478E+04  5.72689E+03 -1.37984E+04 -1.39235E+03 -1.18712E+04 -9.27143E+03
 -4.60602E+03 -1.27164E+04  2.29301E+03 -2.04190E+04  1.76752E+04 -1.71883E+04  2.08226E+04 -8.87454E+03
  1.85944E+04  5.28838E+03  9.02523E+03  1.49743E+04  7.55222E+01  1.70617E+04 -8.72553E+02  1.15289E+04
 -8.19347E+03  6.99662E+03 -1.04751E+04 -6.40899E+03  9.17539E+03  3.36562E+03  3.72923E+03  2.85833E+03
  5.03705E+03 -3.63809E+03 -4.83910E+02  3.88440E+03 -5.74476E+03  5.23389E+03  8.97153E+01  5.21761E+03
  8.47545E+03 -6.79161E+03  4.32308E+03  5.46899E+03  1.19709E+04  1.76102E+04  3.80249E+03  1.54900E+04
  2.73625E+01  1.83565E+04 -1.05105E+04  1.29104E+04 -1.94917E+04 -4.82612E+03 -1.57995E+04 -1.44527E+04
 -5.79866E+03 -9.11815E+03  4.76070E+03 -1.64333E+04  1.09946E+04 -9.93818E+03  1.24595E+03  3.47516E+02
  2.99119E+03  7.72786E+03 -2.47753E+03  6.60684E+03 -1.57041E+03 -2.14664E+03 -4.01553E+03 -7.58180E+03
  5.70274E+03 -8.05683E+01  8.87412E+03  2.30372E+03  7.52895E+03  1.16661E+04  5.51909E+03  2.18944E+03
 -4.61936E+03  1.60214E+04 -1.24204E+04 -3.05056E+02 -6.77408E+03 -3.25034E+03 -1.81321E+03 -3.31289E+03
  1.05725E+04 -4.85986E+03  5.39598E+03  1.07786E+03  9.12143E+03  3.96304E+03  5.73700E+03  1.56272E+04
  6.60653E+03  1.25356E+04 -3.03597E+03  8.44049E+03 -1.25318E+04  5.88533E+03 -1.87946E+03 -2.82519E+03
 -4.89139E+03 -2.98625E+03 -6.70099E+03 -3.10349E+03 -7.97850E+03  4.81181E+03 -9.24995E+03 -3.12516E+03
 -4.38324E+03 -7.46751E+03 -6.03247E+03 -8.04076E+03  1.19343E+04 -1.64402E+04  4.97220E+03 -1.15550E+04
  8.33897E+03  4.11821E+03  8.51964E+03  1.33484E+04 -1.69797E+03  5.94091E+03 -1.40259E+04  6.10960E+03
