 $NMID ID='MM_0lb_SNR50_16hz_g55_1.RAW', FMTDAT='(8E13.5)'
 TRAMP=1., VOLUME=1. $END
  3.12128E+05 -3.34836E+03  3.37004E+05  2.49640E+05  8.08450E+04  3.38739E+05 -1.33076E+05  2.51927E+05
 -1.92327E+05  8.57773E+04 -1.11641E+05 -3.63918E+04 -3.36813E+03 -5.12660E+04  5.58454E+04  2.75561E+03
  2.90429E+04  5.47578E+04 -2.04067E+04  7.87125E+04 -6.16855E+04  6.17134E+04 -8.31636E+04  3.18740E+04
 -7.71256E+04 -1.38972E+04 -5.70898E+04 -5.56219E+04 -1.25709E+04 -7.06373E+04  2.65034E+04 -4.57379E+04
  4.07657E+04  2.89157E+03  1.52954E+04  4.75285E+04 -3.61261E+04  4.18574E+04 -6.67090E+04 -3.76216E+03
 -5.33464E+04 -5.49375E+04 -7.16157E+03 -7.18030E+04  3.36338E+04 -5.61236E+04  5.16443E+04 -1.32106E+04
  3.87387E+04  1.30439E+04  3.28025E+04  2.12398E+04  1.70909E+04  2.63677E+04 -1.23494E+03  2.80779E+04
 -1.86325E+04  1.25133E+04 -1.77634E+04 -3.50401E+03  7.44071E+03 -7.56296E+03  2.61965E+04  1.00298E+04
  5.55919E+03  3.37735E+04 -3.65570E+04  3.30111E+04 -6.28837E+04  1.42611E+03 -5.40884E+04 -4.23659E+04
 -1.20845E+04 -6.10362E+04  4.29441E+04 -4.50622E+04  5.77001E+04 -3.37431E+03  3.52921E+04  3.47955E+04
 -9.32434E+03  3.55620E+04 -3.01323E+04  1.45627E+04 -2.95935E+04 -6.00681E+03 -1.77251E+04 -1.11780E+04
 -3.48023E+03 -1.32347E+04 -8.88121E+02 -1.97142E+04  6.48473E+03 -2.53374E+04  1.39845E+04 -1.36046E+04
  9.58779E+03  3.91919E+03 -6.55587E+03  1.59593E+04 -2.24902E+04  3.92297E+02 -7.54350E+03 -3.17965E+04
  1.95381E+04 -4.26841E+04  4.64801E+04 -1.94822E+04  4.68607E+04  2.04293E+04  1.51443E+04  4.92498E+04
 -1.05758E+04  3.55702E+04 -2.66437E+04 -2.48602E+02 -6.50810E+03 -3.12912E+04  2.42848E+04 -3.33147E+04
  4.13559E+04 -9.18713E+03  3.88686E+04  2.16409E+04  2.31151E+04  4.87663E+04 -2.19085E+03  4.82990E+04
 -2.79035E+04  3.21271E+04 -3.86552E+04  9.50907E+03 -4.28134E+04 -1.59131E+04 -2.43156E+04 -3.90930E+04
  6.72219E+03 -3.58859E+04  3.39090E+04 -1.68519E+04  2.76589E+04  8.21750E+03  5.20219E+03  1.34774E+04
 -1.14568E+04  1.37374E+04 -9.17019E+03 -6.09478E+03  5.36966E+03 -8.69610E+03  1.79284E+04  2.37293E+03
  1.31658E+04  1.87839E+04 -7.79655E+03  2.22799E+04 -1.81483E+04  1.16889E+04 -2.57138E+04 -7.50755E+03
 -1.90833E+04 -1.46043E+04 -1.15367E+04 -1.74962E+04  2.25661E+03 -1.70165E+04  1.53820E+04 -1.53841E+04
  2.51870E+04 -1.51536E+04  3.22953E+04  2.73000E+03  2.45819E+04  1.93728E+04  3.34753E+03  3.55030E+04
 -2.10465E+04  2.77941E+04 -3.00624E+04  6.96289E+03 -1.72441E+04 -1.34313E+04 -8.45200E+03 -1.55854E+04
  6.10587E+02 -4.37553E+03 -2.63445E+03  8.77370E+03 -1.30143E+04  7.42436E+03 -1.86037E+04 -8.71206E+03
 -9.11673E+03 -1.70800E+04  7.20540E+03 -1.86743E+04  1.52449E+04 -1.51107E+04  1.51942E+04 -2.36998E+03
  8.75339E+03  1.06158E+04 -2.41282E+03  1.66153E+04 -8.39577E+03  1.09824E+04 -1.72574E+04  6.47467E+02
 -1.22741E+04 -1.55854E+04 -2.39069E+03 -2.17871E+04  5.65103E+03 -1.85663E+04  1.81296E+04 -7.61186E+03
  1.94478E+04 -2.04418E+03  1.17230E+04  2.07222E+03  7.16247E+03  1.62820E+03  1.08718E+04 -5.70347E+02
  1.82059E+04  2.56349E+03  1.66636E+04  1.54460E+04  1.24265E+04  2.55378E+04 -2.51443E+03  3.17996E+04
 -1.91194E+04  3.06886E+04 -2.81796E+04  1.32725E+04 -3.14220E+04 -1.18162E+03 -3.03718E+04 -1.82736E+04
 -1.04619E+04 -2.44103E+04  5.65935E+03 -2.35803E+04  2.07796E+04 -1.48994E+04  2.12229E+04  7.44832E+03
  4.89461E+03  1.42467E+04 -1.46000E+04  8.10636E+03 -1.59764E+04 -1.65009E+03 -1.46042E+04 -4.61468E+03
  2.58646E+03 -2.08820E+04  8.22594E+03 -1.36602E+04  5.83105E+03  8.46028E+02  4.05466E+03  7.43552E+03
 -9.92623E+03  7.17057E+03 -5.80928E+03 -7.83696E+03  2.93789E+03 -1.37904E+04  6.55801E+03 -1.29522E+04
  1.63030E+04 -5.64537E+03  2.06903E+04  3.47628E+03  1.18828E+04  1.33922E+04  6.89627E+03  1.88669E+04
 -2.92566E+03  2.12549E+04 -1.47131E+04  1.61094E+04 -1.55573E+04  1.06009E+03 -1.21821E+04 -1.94072E+03
 -6.66461E+03 -3.76295E+03  4.15265E+02  5.71919E+03 -1.46342E+03  3.50694E+03 -3.13104E+03  1.83506E+03
 -1.02678E+04 -3.16775E+03 -1.07954E+04 -8.87367E+03 -5.68252E+03 -1.16263E+04  1.57541E+03 -9.38156E+03
  3.75176E+03 -8.61414E+02  7.43037E+03  3.88296E+03  5.70838E+01  7.54620E+03 -2.00608E+03 -5.53659E+02
 -6.60683E+03 -1.01978E+04  4.87010E+02 -1.16282E+04  3.86539E+03 -1.00523E+04  9.86000E+03 -4.58360E+03
  1.82031E+04 -5.78287E+03  1.01037E+04  8.92316E+03  6.09487E+03  1.38677E+04 -5.90424E+03  1.05620E+04
 -1.12354E+04  5.78268E+03 -4.35666E+03 -1.02280E+03  1.98942E+03 -3.86066E+03  8.49001E+03 -1.99046E+03
  3.40390E+03  6.43040E+03  8.77002E+02  1.18567E+04 -1.17648E+04  3.73933E+03 -6.42257E+03 -1.85998E+03
 -1.13075E+04 -1.30670E+03 -1.62670E+03 -5.42920E+03  3.55205E+03 -2.89524E+03  2.49645E+03  2.10587E+03
  2.64821E+02  2.17517E+03 -4.60476E+03  5.76837E+03 -4.76893E+03  2.26741E+03 -6.05371E+03 -1.58097E+03
 -3.91327E+03 -9.73812E+03  4.46292E+03 -1.13863E+04 -1.54621E+03 -2.59084E+03  1.19554E+04 -1.65842E+03
  6.93442E+03  7.87710E+03 -3.64499E+03  9.78421E+03 -7.21273E+03  1.60954E+03 -5.17202E+03  3.15285E+02
 -4.44161E+03 -8.12206E+03 -2.87300E+03 -3.19861E+03  3.40001E+03 -4.07528E+03  1.09843E+03 -4.65704E+03
 -1.93637E+02 -2.73597E+03  2.19081E+02 -1.83579E+03 -4.96474E+01 -2.11324E+03  1.35908E+02 -2.43254E+03
  4.22177E+03 -1.85963E+03  1.01960E+04  2.13267E+03  4.34248E+03  3.72375E+03  6.27577E+03  8.04105E+03
 -2.12648E+03  1.04762E+04 -1.29611E+04  8.58040E+03 -1.29305E+04  2.49979E+03 -8.82787E+03 -4.65938E+03
 -3.78025E+03 -7.52046E+03  6.49077E+02 -9.10247E+03 -6.66712E+01 -3.28229E+03  1.66808E+03 -5.84942E+03
  2.70493E+03  8.59857E+02  2.48429E+03 -1.21985E+03  4.13288E+03 -7.66384E+03  2.04764E+03 -4.80952E+02
  3.78787E+03  2.81287E+03  2.27537E+03  6.46577E+03 -3.20680E+03  8.89574E+03 -4.08999E+03  3.98414E+03
 -4.62238E+03  4.00389E+03 -3.28975E+03 -6.21478E+03 -3.38529E+03 -7.09509E+03  1.76015E+03 -6.78932E+03
  5.94544E+03 -7.29506E+03  6.72306E+03 -2.10712E+02  2.26408E+03  9.17256E+03  1.80543E+03  8.93214E+03
 -4.75951E+03  2.18654E+03 -1.69671E+03  2.18579E+03  1.58910E+02  1.10340E+03 -1.46838E+03  3.19412E+03
 -7.16827E+03  3.13801E+03 -7.75391E+02  1.63334E+03 -6.28951E+03 -8.10433E+02 -2.48534E+03 -9.34276E+01
 -5.68676E+03 -1.80768E+03 -1.02979E+03 -8.40881E+03 -1.14377E+03 -7.39707E+03  6.76558E+03 -7.51133E+02
  9.54111E+03  5.51740E+03  7.75781E+03  9.03575E+03  1.29649E+03  6.42403E+03 -1.77228E+03  2.61415E+03
 -1.12681E+04 -1.35167E+03 -5.16892E+03 -7.83136E+03 -4.45728E+03 -2.29095E+03 -2.16220E+02 -7.69626E+03
  5.05180E+03 -4.71827E+03  4.31411E+03  1.45821E+03  2.51485E+03  2.39077E+03 -2.87378E+03 -3.56075E+03
  1.85821E+03  2.21005E+03  2.83014E+03  1.80318E+03  2.29245E+03  5.86906E+03  1.88255E+03  7.74273E+03
 -2.46869E+03  4.09974E+03 -6.07075E+03  9.62940E+03 -7.31408E+03  4.86229E+03 -4.30980E+03 -4.56458E+03
 -3.38743E+03 -3.71569E+03  2.60008E+03 -6.97225E+03 -1.27269E+03 -4.77812E+03  1.61259E+03 -4.05325E+03
  5.13354E+03 -1.41405E+03  2.65158E+03  1.46395E+03 -4.02335E+03 -7.70216E+02 -1.73612E+03 -4.17755E+01
 -1.34928E+03 -8.20196E+02  1.84526E+03 -4.54220E+03  3.34169E+03 -2.12171E+02 -7.26125E+02  2.42256E+03
 -2.09575E+03  1.47024E+03  1.67258E+03  3.41587E+02  1.29005E+03 -5.87629E+02  4.25842E+03 -2.02978E+03
 -2.79281E+03 -3.85689E+03  6.18243E+03 -1.38768E+03 -9.11766E+02  2.23035E+03 -2.54290E+03  7.03436E+03
 -6.60496E+03 -3.24083E+02 -7.39541E+03  6.14917E+01 -1.96643E+03  1.10483E+03  2.23934E+02 -6.19279E+03
  1.14632E+03  1.10013E+03  2.16278E+03 -5.27743E+03 -2.44377E+03  1.87474E+03  1.73957E+03 -2.16434E+03
 -1.11019E+03  3.20337E+03 -1.90742E+03 -1.17864E+03 -8.39581E+03 -1.83832E+03  7.50600E+02 -6.75057E+03
  2.25677E+03  1.45419E+03 -6.20531E+02 -1.05252E+03  4.03908E+03 -2.25652E+03  3.15486E+03  1.47714E+03
 -3.18658E+03 -9.85583E+02 -2.48769E+03  1.45391E+03  1.05885E+03 -3.75280E+03 -3.47965E+02 -3.19586E+03
  4.58429E+03 -5.43211E+03  4.84361E+03  3.43590E+03  3.37826E+03 -2.26240E+03 -1.39386E+03 -1.32552E+03
 -2.34384E+03  6.73268E+02 -4.87705E+03  1.88803E+03 -3.98987E+02 -9.54297E+02 -1.96424E+03 -3.58879E+03
  4.68795E+02  1.53331E+02 -2.63259E+03  9.22401E+02 -1.18126E+03  3.48499E+03 -2.92166E+03  3.45540E+03
  5.98180E+03  1.10938E+03  1.42564E+03 -8.44137E+02  2.01770E+03 -1.86170E+03  9.79882E+02 -5.66238E+03
  4.35058E+02 -5.02997E+03 -2.81361E+03  7.00622E+03 -5.62748E+03  8.50515E+02 -1.91772E+03  1.09754E+03
 -7.09115E+02  2.66241E+01 -2.64506E+03 -7.04829E+03 -8.13512E+02 -1.75522E+03  3.27956E+02 -2.36075E+03
  6.39825E+02 -1.12900E+03  2.51899E+03  3.12270E+03  6.42780E+02  5.56521E+03 -2.32380E+03  2.79356E+03
 -4.37011E+03 -2.81761E+03  2.54033E+03 -7.37680E+02 -7.94970E+02 -1.58311E+02 -1.55554E+03 -2.31341E+03
 -1.42491E+03  1.29016E+03 -1.14806E+03  5.64817E+02 -5.22964E+02 -3.13187E+03 -1.30705E+02 -1.11497E+03
  1.58624E+03 -1.95002E+02  1.39689E+03 -1.19985E+03  5.13075E+03  6.85056E+02 -1.63394E+03 -2.52904E+03
 -4.30360E+03  1.96148E+02 -8.07419E+02 -1.38087E+03 -1.92428E+03 -2.35523E+03 -6.32338E+03 -2.52412E+03
 -1.38526E+02 -7.22141E+02  1.83189E+03 -5.91137E+03 -2.75703E+03 -6.77175E+02  5.93584E+03 -3.97004E+03
  4.10442E+03  1.02328E+01  3.66118E+03 -2.17633E+03  4.18522E+03 -3.22826E+03 -8.36928E+02  3.29301E+02
 -4.33317E+03  4.05927E+03  8.81117E+02 -2.01778E+03 -8.30052E+01  6.96940E+03  4.02514E+03  4.29293E+03
 -2.52926E+02  4.12633E+03  8.52985E+02 -1.94821E+03 -2.93767E+03 -2.43322E+03  2.14398E+03  3.83577E+03
  2.34800E+03 -9.99416E+02  5.05476E+03 -3.49531E+03  1.86590E+03  8.36967E+02 -9.92866E+02  6.77796E+03
  9.58722E+02 -2.32986E+02 -3.56554E+02 -2.64984E+03 -2.03254E+03 -2.78085E+03  2.83984E+03 -5.02934E+02
 -1.25473E+03  4.17323E+03 -2.46257E+03 -7.79603E+02 -1.77701E+03 -4.18267E+02 -3.31068E+03 -3.80628E+02
 -4.63739E+03 -1.79213E+03  3.22481E+03 -1.79290E+02  4.16881E+03 -5.91167E+02 -1.04095E+03  4.88635E+03
 -1.63722E+02 -4.27968E+02 -1.59855E+03  4.26125E+03  2.45445E+03 -1.49356E+03  3.36119E+03  1.86954E+03
