 $NMID ID='MM_0lb_SNR50_17hz_g40_25.RAW', FMTDAT='(8E13.5)'
 TRAMP=1., VOLUME=1. $END
  3.11159E+05  5.22912E+03  3.38479E+05  2.50219E+05  8.38060E+04  3.37380E+05 -1.31864E+05  2.48788E+05
 -1.93401E+05  8.22786E+04 -1.11585E+05 -3.51842E+04 -2.20981E+02 -5.01974E+04  5.02017E+04  3.31182E+02
  3.38823E+04  5.10731E+04 -1.65699E+04  7.62122E+04 -6.01165E+04  6.14126E+04 -8.44930E+04  3.06850E+04
 -7.96722E+04 -1.05367E+04 -5.30213E+04 -5.09920E+04 -1.77044E+04 -6.65144E+04  2.75676E+04 -4.51327E+04
  3.59333E+04  2.53192E+03  1.33378E+04  4.71394E+04 -3.36944E+04  4.72229E+04 -6.39211E+04  2.08072E+03
 -4.90957E+04 -5.29175E+04 -1.04898E+04 -7.40426E+04  3.68749E+04 -4.93127E+04  4.59239E+04 -1.54185E+04
  4.45094E+04  1.13420E+04  2.95149E+04  2.73204E+04  1.08442E+04  3.05891E+04 -3.92241E+03  2.68312E+04
 -1.89187E+04  1.46565E+04 -1.97899E+04  6.92723E+02  4.27895E+03 -6.68509E+03  2.11549E+04  1.20500E+04
  5.60582E+03  3.05112E+04 -3.24697E+04  3.29094E+04 -6.20322E+04 -1.63285E+03 -5.24857E+04 -4.15846E+04
 -1.47203E+04 -6.37651E+04  3.78873E+04 -4.37971E+04  5.26799E+04  3.98362E+02  3.24753E+04  3.30668E+04
 -3.46067E+03  3.49438E+04 -2.71258E+04  1.47185E+04 -2.33566E+04 -5.00431E+03 -1.45057E+04 -9.50415E+03
 -9.91591E+03 -9.11787E+03  6.59654E+02 -1.74960E+04  7.39916E+03 -2.43385E+04  1.55793E+04 -1.98288E+04
  1.27995E+04  3.77008E+03 -4.99369E+03  1.27687E+04 -1.50061E+04  2.42588E+03 -7.85567E+03 -3.00005E+04
  1.80005E+04 -3.97754E+04  4.65815E+04 -2.00077E+04  3.97106E+04  1.75463E+04  1.25260E+04  4.20698E+04
 -2.12699E+04  3.29026E+04 -2.19721E+04  1.15937E+03 -8.53262E+03 -2.48065E+04  1.75037E+04 -3.52475E+04
  3.79892E+04 -8.77588E+03  2.94700E+04  2.66686E+04  1.57584E+04  4.15608E+04 -1.03101E+04  4.36078E+04
 -2.81388E+04  3.00306E+04 -3.35078E+04  5.53149E+03 -4.16539E+04 -1.69385E+04 -2.07899E+04 -3.56701E+04
  8.14391E+03 -3.52162E+04  3.04351E+04 -1.35163E+04  2.88099E+04  8.09593E+03  5.28936E+03  1.91396E+04
 -1.33954E+04  9.45710E+03 -9.84447E+03 -1.03331E+04  6.82955E+02 -1.42519E+04  1.94276E+04  5.72463E+03
  1.37336E+04  2.24835E+04 -4.70161E+03  2.23855E+04 -2.29346E+04  9.60517E+03 -2.32239E+04 -1.74043E+03
 -1.43202E+04 -1.82790E+04 -6.39455E+03 -2.00632E+04  5.92965E+03 -1.45333E+04  9.10485E+03 -1.42455E+04
  2.04534E+04 -1.06936E+04  2.29087E+04  8.76795E+02  2.09215E+04  1.82658E+04  2.69423E+03  3.23161E+04
 -1.58275E+04  2.69863E+04 -2.74143E+04  1.10865E+04 -1.97275E+04 -1.20959E+04 -9.24186E+03 -1.66636E+04
  3.79849E+03 -4.00704E+03 -1.54567E+03  9.57879E+03 -1.11219E+04  1.18911E+04 -1.06777E+04 -5.65628E+03
 -6.26008E+03 -1.42756E+04  3.55408E+03 -2.11838E+04  1.42027E+04 -1.32385E+04  1.24966E+04 -2.07228E+03
  1.02912E+04  8.68984E+03 -6.38900E+02  2.13043E+04 -1.08290E+04  7.11451E+03 -1.62349E+04  1.52333E+02
 -1.42441E+04 -1.37828E+04  8.78899E+02 -2.20082E+04  9.95338E+03 -1.57111E+04  1.77577E+04 -7.58204E+03
  2.15811E+04 -6.35579E+02  7.33145E+03  4.33011E+03  3.63031E+03  3.40546E+03  9.01919E+03 -6.05519E+03
  9.78970E+03  4.86443E+03  1.55558E+04  1.16905E+04  1.32006E+04  2.41796E+04 -9.29034E+02  2.43862E+04
 -1.55768E+04  2.07892E+04 -2.58998E+04  1.23891E+04 -2.29937E+04 -2.39513E+03 -2.23062E+04 -1.15152E+04
 -1.48720E+04 -2.02612E+04  4.49684E+03 -1.82702E+04  1.70591E+04 -1.04850E+04  1.40877E+04  5.43684E+03
  6.27234E+03  1.40875E+04 -5.72809E+03  9.65560E+03 -1.36332E+04  4.42666E+02 -7.70873E+03 -9.26176E+03
 -1.40712E+03 -1.42149E+04  5.31190E+03 -7.93607E+03  6.14140E+03 -5.03324E+02 -8.86454E+02  5.09698E+03
 -3.78852E+03 -1.58771E+03 -8.65947E+03 -5.93901E+03  1.88350E+03 -7.85619E+03  1.10989E+04 -7.48430E+03
  9.90966E+03 -4.70099E+03  1.26313E+04  3.42491E+03  1.63045E+04  5.69915E+03  7.20836E+03  1.34149E+04
 -8.40466E+02  1.75515E+04 -4.48649E+03  9.87088E+03 -1.37565E+04  4.46631E+03 -4.51992E+03 -1.55334E+03
 -5.21568E+03 -7.08594E+03  3.40045E+03  1.07374E+03 -8.03890E+03  1.00152E+03 -7.34162E+03  6.26190E+03
 -1.13943E+04  9.76983E+02 -1.13648E+04 -7.15230E+03 -5.06541E+03 -6.74731E+03  8.69663E+01 -8.18372E+03
  7.33183E+03 -2.98755E+03  2.44436E+03  3.21188E+03  7.33256E+02  3.51851E+03  4.15854E+02 -1.26886E+02
 -1.57397E+03 -3.17971E+03  7.32930E+02 -4.55476E+03  4.14823E+03 -5.55955E+03  1.22244E+04 -5.44556E+03
  1.54167E+04  1.52514E+03  7.45790E+03  7.01406E+03 -2.72444E+02  6.39712E+03 -9.41189E+03  9.23523E+03
 -5.72985E+03  1.76164E+03 -5.32614E+03 -5.38298E+02  1.29164E+03 -4.09238E+03  6.46292E+03 -9.74891E+02
  7.42385E+03  4.69385E+03 -9.51751E+02  3.03114E+03 -1.72710E+03  9.61620E+02 -6.28489E+03  5.25916E+03
 -7.58398E+03 -4.51022E+03  7.99552E+02 -1.04305E+04  6.66273E+03 -4.92675E+03  3.02535E+03  1.44236E+03
  7.47576E+02  2.57096E+03 -4.47420E+03  2.28859E+03 -2.03694E+03  4.47528E+03 -4.94710E+03  2.68609E+03
 -1.32355E+03 -8.71622E+03 -3.82623E+02 -1.29711E+04  9.02851E+03 -7.41073E+03  5.17838E+03  1.67354E+03
  3.82416E+03  8.76251E+03  1.59213E+03  5.11349E+03 -4.34190E+03  2.16254E+03 -7.57406E+03 -3.97453E+03
 -6.52432E+03 -1.83581E+03 -1.60281E+03 -8.86491E+03  7.10342E+03 -7.37948E+03  3.33319E+03 -2.51742E+03
  1.14181E+03 -3.52361E+03  3.21673E+03 -2.24385E+03 -1.93049E+03  1.46774E+03  9.61830E+02 -2.26688E+02
  2.66602E+03 -3.23482E+03  8.20049E+03  3.99050E+03  7.14560E+03  4.09890E+03  7.68015E+03  5.15924E+03
 -1.38864E+03  1.13935E+04 -7.88586E+03  6.41351E+03 -7.84459E+03  2.24809E+03 -7.57816E+03 -3.28866E+03
 -2.81375E+03 -1.06549E+04 -1.76892E+03 -3.25967E+03  1.65792E+03 -3.57274E+03  7.83564E+03 -1.16751E+03
 -1.16461E+01  3.14749E+02  1.01200E+02 -6.59785E+03  5.38869E+03 -1.01382E+03  1.25097E+03  2.40223E+03
  5.54109E+03  3.35276E+02  3.68403E+02  6.10693E+03 -4.54034E+03  1.39125E+03 -6.89513E+03  9.68833E+03
 -1.60293E+03 -7.27629E+03 -5.30174E+02 -6.91676E+03 -1.18021E+03 -1.74394E+03  1.73212E+03 -7.08920E+03
  4.88234E+03 -1.75662E+03  9.61095E+03  1.59825E+03  9.66507E+03  7.68469E+03  2.39604E+02  6.47082E+03
 -2.05115E+03  3.89125E+03 -5.03981E+03  2.22496E+03 -3.70363E+03  1.83297E+03  1.41389E+03  5.83482E+01
 -1.17639E+03  4.80351E+03 -1.58530E+03  8.98020E+02 -7.52094E+03 -2.57960E+01 -9.32824E+03  8.16853E+02
 -6.47836E+02 -2.52956E+03  4.62265E+03 -5.93475E+03  2.59470E+03 -7.11454E+03  6.04197E+03 -2.08606E+03
  1.08647E+04  2.40726E+03  1.87409E+03  6.84460E+03  2.86575E+03  6.20004E+03 -6.38881E+03  2.45378E+03
 -6.00678E+03 -1.74672E+03 -4.35360E+03 -5.61616E+03 -7.19225E+02 -5.81077E+03 -1.90106E+03 -2.27477E+03
  6.23446E+03 -2.46123E+03  1.64388E+03  2.03615E+03  5.48227E+03  1.07322E+03 -9.65184E+02 -4.35465E+03
  4.19294E+03  2.55103E+03 -1.47771E+03  1.12428E+03  2.03193E+03 -1.61137E+03 -1.19431E+03  7.57414E+02
  2.90982E+03  3.50514E+03 -1.49922E+03  2.92239E+03  3.44657E+02 -6.90059E+01 -6.55985E+03 -5.66730E+02
  6.12417E+02 -4.45482E+03  3.71242E+03 -2.26054E+03  2.71158E+03 -3.98666E+03  9.34737E+03 -2.49520E+03
  3.53881E+03  4.08578E+03  2.02577E+03  7.26477E+03  1.43433E+03  5.35525E+02 -6.58162E+02 -1.94781E+03
 -9.48982E+02 -3.20631E+03 -1.63059E+02 -6.37099E+02 -5.08754E+02  9.02195E+02  7.80607E+00 -2.71423E+03
  3.03319E+03 -6.52975E+03 -3.34177E+03  5.33932E+02 -4.41403E+03 -2.42164E+03 -6.68292E+02 -8.15017E+02
  2.81247E+03 -5.18514E+03  1.78375E+03 -2.49192E+03 -4.22461E+02 -9.47635E+02  2.71364E+03  4.91158E+03
 -7.84480E+02  4.93164E+03 -3.25451E+03  3.64810E+03  1.30346E+01 -5.12835E+02  6.16772E+02 -9.59130E+02
 -1.39363E+03 -1.23295E+03 -2.17304E+03  5.34681E+03 -3.32730E+03  2.33492E+03  1.57241E+03  1.70034E+03
 -6.97747E+02  1.43046E+03 -3.08086E+03 -2.02949E+03  2.87450E+02  1.70592E+03  1.63873E+03  3.33201E+02
 -6.28385E+02  1.36573E+03  1.00870E+03 -7.51738E+02  3.89390E+03  1.21579E+03 -1.66995E+03 -1.57768E+03
 -1.26711E+03  1.48952E+03 -8.48357E+02  2.18902E+03  1.50551E+03 -5.16901E+02  3.55033E+03 -1.74813E+01
  1.90374E+03  3.59753E+03  2.17995E+03  5.06656E+02  2.14946E+03  2.39595E+03  1.11712E+03  2.95163E+03
 -7.95529E+03  8.88218E+02 -4.05976E+03 -4.65985E+02  1.71008E+03  7.51083E+02 -2.55742E+03 -1.33920E+03
  1.23434E+03 -2.96240E+03  3.05072E+02  2.99901E+01  3.39052E+02 -1.29873E+03 -1.25676E+03  5.30702E+03
  3.80753E+02  2.28927E+03  3.93227E+02 -1.13771E+03 -2.98999E+03  4.84914E+02  2.48554E+03 -2.04845E+03
  1.26780E+03  8.61694E+03  6.13890E+02  1.63894E+03  9.99958E+02 -2.11578E+03 -8.49290E+02 -4.32495E+03
  2.70167E+03  9.15968E-01 -1.36232E+03 -5.17083E+03 -8.94300E+02 -3.78696E+03  2.02491E+03 -2.19887E+03
  3.58018E+02 -1.69234E+02 -2.15653E+03 -5.18478E+02  4.50426E+03  3.10779E+03 -5.91980E+02  1.51570E+03
 -3.20216E+03  5.71797E+03 -2.16907E+03 -3.03055E+03  3.33538E+03 -1.97566E+03 -5.59461E+02  1.98393E+03
 -5.64558E+02  1.43379E+03 -1.52975E+02  8.98358E+02  8.82717E+02  5.32290E+02 -3.82142E+03 -7.31912E+02
  2.02944E+01  2.86938E+03  1.41316E+03 -1.64438E+02 -3.00881E+03 -9.06797E+02 -1.11308E+03  4.31681E+03
 -2.70019E+02  1.77613E+03 -1.66181E+02  1.15410E+03 -8.61869E+03 -2.42471E+03 -5.39031E+03 -2.71516E+03
  9.49844E+02 -2.35989E+03 -1.17923E+02 -5.58875E+02  6.28540E+03 -2.01958E+03  1.92505E+03  2.26520E+03
 -2.41084E+03 -3.24188E+03  6.85054E+02 -1.80857E+03 -2.04428E+02 -6.36334E+02 -1.34909E+01 -1.31051E+03
 -3.24674E+03 -2.40370E+03  1.55965E+03  2.42810E+03  2.34495E+03 -2.58542E+03 -5.08273E+03 -2.79904E+03
 -3.70963E+03  2.47615E+03 -3.01200E+03 -9.72876E+02  1.38677E+03 -2.90864E+02  2.01396E+03 -6.22009E+03
  2.84403E+03  4.74976E+02  7.73133E+01 -6.98885E+02  1.77710E+03 -2.52249E+03  6.74415E+03  9.53832E+02
 -7.62897E+02  4.56522E+02 -1.46059E+03 -5.32110E+02  8.29455E+02 -2.92653E+03 -1.18207E+03  1.41381E+03
 -3.43376E+03 -4.34730E+03 -1.87900E+03  1.46331E+03 -5.51109E+02  3.47247E+03 -1.01776E+02 -8.88332E+02
 -2.99982E+02 -1.54457E+03 -3.42929E+03 -8.62519E+02 -7.72101E+02 -1.11084E+03  3.08722E+03  4.12910E+03
  1.21160E+02 -4.22720E+03  4.94124E+02 -1.61188E+03  2.06662E+03 -2.28705E+03  1.77005E+03  1.80373E+03
