 $NMID ID='MM_0lb_SNR50_12hz_g40_47.RAW', FMTDAT='(8E13.5)'
 TRAMP=1., VOLUME=1. $END
  3.11549E+05  4.18514E+03  3.37204E+05  2.44713E+05  8.22812E+04  3.36631E+05 -1.30601E+05  2.52129E+05
 -1.90526E+05  8.27859E+04 -1.13157E+05 -3.09161E+04 -5.29001E+02 -5.09787E+04  5.83564E+04  3.36333E+03
  3.42602E+04  4.85170E+04 -1.78656E+04  7.68928E+04 -6.34880E+04  6.36742E+04 -8.38300E+04  2.93149E+04
 -8.14554E+04 -1.14322E+04 -5.81858E+04 -4.75526E+04 -1.31568E+04 -7.23364E+04  2.75473E+04 -4.26555E+04
  3.88926E+04  2.15357E+03  1.74040E+04  5.27713E+04 -3.12596E+04  4.87868E+04 -7.19490E+04 -5.69543E+03
 -5.22439E+04 -5.47572E+04 -1.19120E+04 -7.82049E+04  3.27963E+04 -5.39978E+04  5.05102E+04 -1.06229E+04
  4.22790E+04  8.18377E+03  2.64625E+04  2.49750E+04  1.66279E+04  3.31542E+04 -2.88250E+03  2.95752E+04
 -2.39225E+04  1.63718E+04 -2.42292E+04 -7.63055E+03  6.02406E+03 -1.06505E+04  2.40392E+04  1.14876E+04
  1.10596E+03  3.92437E+04 -3.51678E+04  3.39332E+04 -6.43575E+04  1.07535E+03 -6.08112E+04 -4.41101E+04
 -1.22465E+04 -6.76429E+04  4.17668E+04 -4.51161E+04  5.98225E+04 -1.38765E+03  3.45425E+04  3.12159E+04
 -5.20297E+03  3.29812E+04 -2.41093E+04  1.58076E+04 -2.99322E+04 -5.55482E+03 -1.86854E+04 -1.28323E+04
 -1.19979E+04 -1.02513E+04  5.09298E+02 -2.51360E+04  9.76874E+03 -2.13623E+04  1.62909E+04 -1.43182E+04
  1.14726E+04  3.39918E+03 -1.06426E+04  8.30350E+03 -2.21825E+04 -4.85889E+02 -6.73165E+03 -3.97004E+04
  2.38291E+04 -4.71154E+04  4.83025E+04 -1.67581E+04  4.73653E+04  2.06363E+04  1.59519E+04  4.48921E+04
 -1.18367E+04  3.27051E+04 -2.97983E+04  1.09164E+03 -1.60297E+04 -2.48250E+04  2.30691E+04 -3.52167E+04
  3.90626E+04 -5.55941E+03  3.71442E+04  1.94717E+04  1.96286E+04  4.30914E+04 -4.72544E+03  5.17837E+04
 -3.60294E+04  3.63834E+04 -4.21003E+04  1.22787E+04 -4.34791E+04 -1.76980E+04 -2.47205E+04 -3.41349E+04
  8.89433E+03 -4.42271E+04  3.35234E+04 -1.52976E+04  2.99440E+04  1.24106E+04  6.81992E+03  2.15861E+04
 -1.53365E+04  1.05534E+04 -9.54707E+03 -1.05038E+04  4.04015E+03 -1.33218E+04  1.77844E+04  5.56535E+03
  1.02669E+04  2.22081E+04 -4.17015E+03  2.42406E+04 -2.22655E+04  1.37094E+04 -2.97190E+04 -3.79195E+03
 -2.42563E+04 -1.20798E+04 -1.03364E+04 -2.06949E+04  5.34235E+03 -1.98551E+04  1.83512E+04 -1.80736E+04
  2.89760E+04 -1.61270E+04  3.65242E+04  5.03248E+03  2.39482E+04  1.95148E+04  5.37961E+03  3.16918E+04
 -1.85394E+04  3.17587E+04 -3.07050E+04  1.15126E+04 -2.29080E+04 -8.49761E+03 -9.95747E+03 -1.42990E+04
  3.41160E+03  1.08455E+03 -3.30348E+03  5.11322E+03 -2.08693E+04  4.71411E+03 -1.28368E+04 -2.51627E+03
 -9.73745E+03 -1.74242E+04  4.13397E+03 -2.74305E+04  1.37926E+04 -1.56379E+04  2.04757E+04 -3.47258E+03
  9.66957E+03  9.71849E+03  1.05007E+02  1.98204E+04 -1.35498E+04  8.39216E+03 -2.11916E+04 -2.52419E+03
 -1.22634E+04 -1.57095E+04 -1.75080E+03 -2.45173E+04  1.41836E+04 -1.63981E+04  1.95221E+04 -8.24625E+03
  2.11576E+04  6.62767E+02  1.44619E+04  5.56044E+03  6.77132E+03  4.06966E+03  9.58230E+03 -4.41275E+03
  2.05211E+04  3.76810E+03  1.65595E+04  1.16432E+04  1.19590E+04  2.90246E+04 -4.06489E+02  4.22613E+04
 -2.51232E+04  2.40613E+04 -3.28426E+04  1.62307E+04 -3.49259E+04 -2.38989E+03 -2.96142E+04 -2.16613E+04
 -1.05626E+04 -3.07100E+04  7.82304E+03 -2.98180E+04  1.94382E+04 -1.50394E+04  2.52684E+04  5.40859E+03
  2.86484E+03  1.79784E+04 -5.64771E+03  6.70318E+03 -1.53463E+04  5.86354E+03 -1.38167E+04 -9.24821E+03
  1.93114E+03 -1.19402E+04  8.25834E+03 -9.74960E+03  9.58082E+03  1.44471E+03  2.15032E+03  5.80645E+03
 -1.08560E+04  5.09650E+03 -8.74736E+03 -1.11469E+04  1.31438E+03 -1.23954E+04  6.02756E+03 -1.90883E+04
  1.55918E+04 -6.72572E+03  1.96676E+04 -1.11463E+03  1.87283E+04  1.48401E+04  8.57226E+03  2.31312E+04
 -1.24126E+03  2.25588E+04 -1.36891E+04  1.42230E+04 -1.91847E+04  7.10758E+03 -1.36248E+04 -8.44996E+02
 -9.47051E+03 -5.71499E+03 -1.40438E+03  6.15021E+03  3.56238E+03  6.50078E+03 -1.22612E+04  7.30493E+03
 -1.66912E+04  3.22181E+03 -1.03452E+04 -9.69672E+03 -8.40390E+03 -1.74718E+04  5.65830E+03 -9.10940E+03
  1.37818E+04 -6.62355E+03  7.30431E+03  2.61826E+03 -6.82897E+02  5.44140E+03 -4.40337E+03  2.50427E+03
 -8.60274E+03 -1.07236E+04  1.20967E+03 -1.14054E+04  4.01304E+03 -1.62931E+04  1.15269E+04 -5.14786E+03
  1.56572E+04 -4.13904E+03  1.47511E+04  1.23784E+04  2.47634E+03  1.56610E+04 -6.14875E+03  1.44194E+04
 -1.41692E+04  2.22372E+02 -6.76127E+03 -1.89728E+03 -2.56902E+03 -3.66522E+03  4.35380E+03  1.38285E+03
  3.70864E+03  3.98954E+03 -7.09385E+02  1.61043E+04 -2.46997E+03  5.62708E+03 -1.26077E+04  1.00634E+03
 -4.63218E+03 -4.85346E+03 -3.82194E+03 -9.02509E+03  5.27678E+03 -6.56855E+03  5.70955E+03  1.07998E+03
 -1.89911E+03  1.13788E+04 -5.52329E+03  6.54020E+03 -1.28130E+04  2.26765E+02 -9.04420E+03 -8.34203E+02
 -6.54502E+03 -9.38693E+03  9.79288E+03 -1.04917E+04  9.52931E+03 -9.15771E+03  1.30104E+04  4.03564E+03
  4.79703E+03  6.22119E+03 -1.74041E+03  1.27596E+04 -2.40494E+03  7.16708E+03 -1.24217E+04 -7.96962E+02
 -4.05943E+03 -8.03304E+03 -2.57921E+03 -9.20864E+03  1.87287E+03 -8.61133E+03  3.26546E+03 -2.15088E+03
 -1.04076E+03 -9.77935E+02 -5.68703E+03  5.08424E+02 -2.46562E+03 -5.40961E+03 -2.18455E+03 -4.43057E+03
  1.13815E+04 -6.52893E+03  8.22066E+03 -4.44672E+00  1.16598E+04  1.07251E+04  8.69333E+03  1.71410E+04
 -4.35382E+03  1.84948E+04 -1.42179E+04  1.12377E+04 -1.59341E+04  2.20704E+03 -1.68765E+04 -4.51156E+03
 -7.54464E+03 -1.22448E+04  2.69574E+03 -8.81483E+03  4.27172E+03 -6.16014E+03  2.04728E+03 -3.69203E+03
  7.65507E+03 -1.77868E+02  1.89715E+03 -8.18641E+03  6.70369E+02 -9.58488E+02  3.26906E+03 -2.13338E+03
  7.16664E+03  2.17909E+03  3.00888E+01  9.24722E+03 -2.91275E+03  2.09178E+03 -4.96360E+03  6.84392E+03
 -1.69019E+04 -4.27972E+03 -1.13785E+03 -9.36859E+03 -5.52527E+03 -6.02522E+03  6.69091E+03 -9.22094E+03
  9.68900E+03 -1.08676E+03  1.19972E+04  2.84039E+03  3.49227E+03  1.14066E+04  2.02233E+03  1.40250E+04
 -2.81186E+03  5.33782E+03 -1.39654E+04  2.24621E+03 -5.65998E+03 -6.74562E+03  1.49800E+03 -1.96788E+03
 -1.48200E+01  8.50362E+02  1.07162E+03  1.55055E+03 -1.09010E+04  1.20975E+03 -8.92269E+03  2.84121E+03
  3.78636E+03 -1.01511E+04  3.30612E+02 -1.05932E+04  4.18727E+03 -7.02953E+03  1.56651E+04 -3.45613E+03
  1.37319E+04  2.39565E+03  4.31976E+03  7.56974E+03  1.11895E+03  9.32118E+03 -8.98027E+03  4.28776E+03
 -1.17261E+04 -1.20768E+03 -1.52000E+03 -5.44515E+03  3.12191E+02 -8.99296E+03  1.33021E+03 -5.52031E+03
  8.44755E+03 -5.05680E+03  8.23068E+03  1.28407E+03  2.61458E+03  3.77395E+03  2.33913E+03  2.46635E+03
  4.03839E+03  2.63237E+03  2.32893E+03 -4.49723E+02  2.80400E+03  4.67085E+03  2.89590E+03  1.71283E+03
 -1.93042E+02  6.96283E+03 -1.01195E+04  8.26837E+03 -1.09213E+04  1.63721E+03 -1.00198E+04 -3.78902E+03
 -2.58145E+03 -4.13484E+03  2.81516E+03 -1.37299E+04  4.83796E+03 -3.88879E+03  1.04664E+04  1.69227E+03
  4.65527E+03  5.06818E+03  3.95127E+03  2.91885E+03 -4.91326E+03 -3.33708E+03 -3.88586E+02  4.55431E+03
 -6.39033E+03 -6.32535E+03  1.07081E+03 -2.94748E+03  4.47012E+03 -1.70809E+03  2.77142E+03  2.71645E+02
  5.03565E+03  1.21760E+03  2.63407E+03  2.08359E+03  9.43336E+02  2.08929E+02  1.83270E+03 -5.67300E+02
  5.25654E+03  1.94853E+03  6.19659E+03  3.17844E+03  6.79139E+03  7.84752E+03  1.78326E+03  3.73518E+03
 -6.23249E+03  6.25801E+03 -2.40866E+03  1.61216E+03 -5.93870E+03 -5.24586E+02 -2.90427E+03 -6.60278E+03
 -1.44018E+03 -6.73650E+03  1.92176E+02 -3.27029E+03  2.75890E+03  6.02225E+03  6.74732E+02  1.27892E+03
 -3.83418E+03  3.81610E+03 -2.06740E+03 -6.00325E+03 -3.90667E+03 -5.16777E+03  3.43691E+03 -2.34516E+03
  4.55102E+03 -1.28801E+02  2.37483E+03 -4.35902E+03  3.32723E+03  4.78072E+03 -3.46864E+03  1.85419E+03
 -4.54645E+03  2.74964E+02 -6.30642E+02  5.76061E+02  3.44291E+03 -8.23037E+02  4.02344E+03 -3.08856E+03
  7.44648E+03 -2.16610E+03  7.30614E+03  7.11355E+03  1.12852E+03  6.67382E+03 -6.23471E+03  4.87595E+03
 -7.78503E+03  5.40188E+03 -3.11404E+03  1.82945E+03 -2.72598E+03 -2.18749E+03 -5.86860E+03 -2.59637E+03
  4.94977E+03 -3.27592E+03  2.87571E+03  6.59827E+03  1.17660E+03  3.28948E+03  1.08697E+03  1.37010E+03
  6.11554E+03  5.02591E+02  9.80842E+01 -2.43905E+02  1.28832E+03  1.92627E+03 -2.04252E+03 -1.76228E+03
 -2.63593E+03  4.90505E+03 -6.13554E+03 -2.01603E+03 -3.82574E+03 -4.05851E+03 -6.55863E+03 -1.05041E+04
 -5.54004E+03 -1.01042E+04  1.79266E+03 -4.99439E+03  7.30216E+03 -1.12465E+04  7.68029E+03  1.22097E+03
  7.88389E+03  2.80700E+03  8.44105E+03  6.92621E+03 -5.39767E+03  3.34023E+03 -3.15091E+03  3.28541E+03
 -4.90463E+02  1.79837E+03 -2.49374E+03  3.84622E+03 -1.85925E+03  1.71231E+03 -2.11141E+03  4.27388E+03
 -1.49636E+03  6.70434E+02 -5.35804E+03  4.09554E+03  2.81326E+02 -1.97068E+03 -1.10804E+03 -5.41431E+03
  5.85224E+03  9.08727E+02 -6.07678E+02  2.76063E+03  8.39699E+03 -5.52631E+03 -1.50846E+02  5.19781E+03
 -5.26920E+03  6.63526E+03 -3.99636E+03  7.74800E+03 -4.87437E+02 -4.92556E+03 -2.30851E+03 -4.74340E+03
 -5.41029E+02 -1.22192E+04  3.55859E+01 -5.47544E+03  7.41607E+03 -5.01682E+02  5.47082E+03 -4.96957E+02
  5.33110E+03  2.47964E+03  3.40669E+03  8.60420E+03  7.38385E+02  3.92396E+03  7.54214E+03  2.40318E+03
 -1.26489E+03 -7.79260E+03  2.06277E+03  9.69523E+02  4.02817E+03  1.83637E+03  2.26277E+03 -8.52980E+01
 -6.23067E+03 -3.33740E+03 -8.29364E+02 -3.53933E+03 -6.88060E+03 -3.98312E+03 -1.64422E+03 -5.39062E+03
  1.52471E+03 -1.52826E+03  8.93106E+02 -4.19805E+03  8.35393E+03  2.34117E+03  2.23436E+03  1.39267E+03
  2.64930E+03 -2.42093E+02  4.49682E+02 -3.46868E+02  3.89621E+02  2.95754E+03 -4.83224E+03 -2.49658E+02
 -2.96046E+03 -1.53302E+03  4.26637E+03 -1.79842E+03 -3.05369E+03  1.75960E+03 -3.87965E+03 -6.91627E+01
  2.12179E+03  1.16619E+03  2.54841E+03 -2.14102E+03  5.89307E+03 -9.91903E+03  9.56355E+01  4.32740E+03
  8.69604E+02  1.52127E+03  2.41848E+03  1.47277E+03  1.42384E+03  2.55731E+03 -1.22831E+03  5.48406E+03
