 $NMID ID='MM_0lb_SNR50_11hz_g45_26.RAW', FMTDAT='(8E13.5)'
 TRAMP=1., VOLUME=1. $END
  3.07753E+05 -3.12051E+03  3.37283E+05  2.49924E+05  8.31131E+04  3.34946E+05 -1.29235E+05  2.49831E+05
 -1.90363E+05  8.12236E+04 -1.10086E+05 -2.96235E+04  4.82666E+02 -5.04428E+04  5.38163E+04 -5.54579E+02
  3.58244E+04  5.35094E+04 -1.41001E+04  7.70115E+04 -6.35020E+04  6.19914E+04 -8.43803E+04  3.65846E+04
 -8.09533E+04 -1.62121E+04 -5.64311E+04 -5.05590E+04 -1.56408E+04 -6.79327E+04  2.84869E+04 -4.82014E+04
  4.02189E+04  6.13587E+03  1.70438E+04  5.07648E+04 -2.99342E+04  4.63785E+04 -6.75119E+04 -7.31957E+03
 -5.45361E+04 -5.33774E+04 -6.18587E+03 -7.37997E+04  3.37584E+04 -6.16930E+04  5.18650E+04 -1.71103E+04
  4.46010E+04  1.53564E+04  3.08187E+04  2.85170E+04  1.81478E+04  2.69836E+04 -1.31290E+03  2.43468E+04
 -1.91412E+04  8.97597E+03 -1.27823E+04 -5.30549E+03  1.20923E+04 -3.65668E+03  2.12891E+04  9.34173E+03
  9.51686E+03  3.64746E+04 -3.80587E+04  3.68625E+04 -6.16009E+04  2.13880E+03 -5.92190E+04 -3.84844E+04
 -1.44704E+04 -6.32252E+04  4.12685E+04 -3.92086E+04  6.03231E+04 -2.90365E+03  2.88119E+04  3.51866E+04
 -5.79181E+03  3.88282E+04 -2.96489E+04  1.23653E+04 -3.29639E+04 -4.18408E+03 -1.35900E+04 -1.02374E+04
 -1.02746E+04 -7.47876E+03 -9.81523E+01 -1.52698E+04  6.30476E+03 -1.96805E+04  1.29168E+04 -1.33951E+04
  8.06342E+03  5.20307E+03 -9.89198E+03  9.88281E+03 -2.46136E+04 -4.88242E+03 -9.69153E+03 -3.54009E+04
  2.14850E+04 -4.74831E+04  5.27885E+04 -2.05105E+04  4.88209E+04  1.68434E+04  1.65040E+04  4.22226E+04
 -1.78325E+04  3.53194E+04 -2.45600E+04  5.38992E+02 -7.20669E+03 -2.76495E+04  1.75131E+04 -3.27989E+04
  4.22100E+04 -9.85385E+03  3.26345E+04  2.76081E+04  1.89545E+04  5.21599E+04 -5.81662E+03  5.23388E+04
 -3.02387E+04  3.39029E+04 -4.54065E+04  1.21368E+04 -4.35267E+04 -1.48722E+04 -2.56567E+04 -3.47553E+04
  5.51004E+03 -3.90644E+04  3.29347E+04 -1.74925E+04  3.10530E+04  9.81485E+03  6.32976E+03  1.72737E+04
 -1.37292E+04  1.11057E+04 -9.61402E+03 -7.61124E+03  1.18204E+03 -1.40498E+04  2.03144E+04  6.57577E+03
  1.14326E+04  2.45248E+04 -6.87422E+03  2.47189E+04 -1.99480E+04  1.29149E+04 -3.22655E+04 -6.33878E+03
 -1.52031E+04 -2.37982E+04 -6.65669E+03 -2.09300E+04  3.89951E+02 -2.45266E+04  1.39843E+04 -2.55347E+04
  2.73460E+04 -9.44979E+03  3.45811E+04  3.22687E+03  2.42406E+04  2.60316E+04  3.66824E+02  3.79852E+04
 -2.15056E+04  3.34899E+04 -3.00683E+04  6.33448E+03 -1.95977E+04 -1.01567E+04 -6.07369E+03 -1.42636E+04
  4.40211E+01 -6.26349E+03 -4.49012E+03  5.87368E+03 -1.78143E+04  5.40082E+03 -1.69555E+04 -6.72995E+03
 -1.49817E+04 -2.29003E+04  9.66272E+03 -2.47353E+04  1.56352E+04 -1.04739E+04  1.65145E+04 -5.29346E+02
  1.44146E+04  1.47825E+04 -2.16188E+03  1.86477E+04 -1.54499E+04  1.50059E+04 -2.34580E+04  3.61428E+02
 -1.67943E+04 -1.47758E+04 -3.12631E+03 -3.38015E+04  1.24598E+04 -1.81425E+04  2.02066E+04 -6.58445E+03
  2.05566E+04  1.63264E+03  1.54670E+04  5.31057E+03  6.85291E+03  4.75827E+02  7.45662E+03  1.10325E+03
  1.91923E+04  7.45714E+03  2.18823E+04  1.28241E+04  1.30458E+04  3.37791E+04 -5.02444E+03  3.82984E+04
 -1.89066E+04  2.75887E+04 -4.17340E+04  1.48596E+04 -3.97045E+04 -3.16587E+03 -3.22549E+04 -2.73937E+04
 -1.14782E+04 -2.99825E+04  1.38719E+04 -2.85550E+04  2.60746E+04 -2.16078E+04  2.50665E+04  5.90912E+03
  9.30102E+03  1.66584E+04 -8.98455E+03  1.27882E+04 -2.13175E+04  4.48348E+03 -1.04024E+04 -1.69390E+04
  4.49081E+03 -1.03471E+04  7.83498E+03 -8.04328E+03  1.26324E+04 -5.63616E+03  4.63511E+03  8.25835E+03
 -7.73421E+03  6.10136E+02 -9.48141E+03  1.80509E+03 -2.50013E+03 -1.22387E+04  5.64693E+03 -2.14763E+04
  1.96051E+04 -8.67693E+03  2.35643E+04  2.47413E+03  1.86474E+04  1.59139E+04  8.05159E+03  1.76796E+04
 -9.50382E+03  2.36541E+04 -1.88023E+04  1.92856E+04 -2.51250E+04  6.58458E+03 -1.63166E+04 -5.63268E+03
 -6.69507E+03 -1.31718E+03 -4.55493E+03 -1.74842E+03 -4.62463E+03  2.37053E+03 -9.94039E+03  1.08233E+04
 -1.71413E+04 -2.31084E+03 -1.29829E+04 -1.49680E+04 -2.36079E+03 -1.98945E+04  5.52840E+03 -1.16942E+04
  5.20831E+03  1.45628E+03  7.93694E+03  3.80885E+03  2.18768E+03  6.91599E+03 -9.96733E+03 -1.00070E+04
 -7.45318E+03 -9.28495E+03 -7.04089E+02 -1.39202E+04  6.52474E+03 -1.51731E+04  1.30440E+04 -8.46360E+03
  1.63671E+04 -7.47421E+02  2.25777E+04  9.50092E+03 -2.44128E+03  1.63852E+04 -7.65682E+03  1.26933E+04
 -1.28807E+04  4.51560E+03 -4.35374E+03  5.93826E+02  2.14444E+03  1.31663E+03  1.23535E+04  3.09638E+02
  5.49217E+03  2.76145E+03 -3.31734E+02  1.28302E+04 -5.84783E+03  9.68902E+03 -1.80041E+04  6.73526E+03
 -9.61618E+03 -8.02136E+03 -8.07254E+02 -6.88744E+03  9.26654E+03 -9.62008E+03  6.09710E+03  6.01690E+03
 -2.78842E+03  7.03111E+03 -6.85470E+03  1.00649E+04 -1.37757E+04  7.70648E+03 -1.03875E+04 -7.45193E+03
 -7.09767E+03 -1.26524E+04  6.11767E+03 -1.31036E+04  1.30791E+04 -8.26199E+03  1.53519E+04  5.86074E+03
  8.79753E+03  1.07123E+04  3.34140E+03  1.08272E+04 -1.30886E+04  4.53830E+03 -1.13213E+04 -3.10581E+03
 -7.43067E+03 -1.17807E+04 -7.17309E+02 -9.24918E+03  2.08605E+03 -8.92446E+03  2.55866E+03 -5.32111E+03
 -4.84698E+00  2.02680E+03 -1.62355E+03  1.50730E+03 -4.77098E+03 -6.38712E+03 -3.12593E+03 -8.87495E+03
  1.19335E+04 -2.73923E+03  1.68737E+04 -4.23999E+02  5.53644E+03  1.03244E+04  6.37583E+03  1.68875E+04
 -1.96454E+03  1.82684E+04 -1.73247E+04  1.48778E+04 -1.75859E+04  1.21600E+03 -1.29830E+04 -6.39377E+03
 -9.35166E+03 -1.18797E+04 -2.42841E+03 -1.32332E+04  7.88173E+03 -9.53922E+03  2.95153E+03 -6.36700E+02
 -1.60736E+03 -4.13095E+03  4.06139E+03 -6.06602E+03  4.08985E+03 -6.83861E+03  1.34985E+04 -7.28927E+03
  1.25383E+04  2.87540E+03  4.93676E+03  9.28726E+03  3.69605E+03  7.51725E+03 -1.05296E+04  9.14643E+03
 -1.46063E+04 -4.05357E+03 -1.18740E+04 -9.42410E+03 -6.58347E+02 -1.27725E+04  7.86426E+02 -1.79504E+04
  1.69570E+04 -3.51777E+03  2.02248E+04  4.54746E+03  9.45681E+03  1.34049E+04 -1.03215E+03  1.06867E+04
 -8.37986E+03  1.17076E+04 -6.77555E+03  2.77052E+03 -4.54057E+03 -1.34141E+03 -3.87321E+03 -8.04648E+03
  1.06524E+02 -7.93622E+02  2.63228E+02  4.96869E+03 -4.86862E+03  4.75724E+03 -7.37768E+03  1.57519E+03
  1.28631E+03 -5.31494E+03  3.77579E+03 -8.58095E+03  8.62446E+03 -1.15246E+04  1.51641E+04 -8.23897E+02
  1.41751E+04  5.13341E+03 -4.00282E+02  3.75146E+02 -3.74235E+03  1.51685E+04 -2.54347E+03  5.53164E+03
 -7.71735E+03  1.59670E+03 -1.89266E+03 -3.38615E+03  6.60263E+03 -5.57035E+03  7.41104E+03 -5.05466E+03
 -1.97951E+02 -9.61631E+02  3.15113E+03  1.07552E+03 -4.99825E+03  2.46563E+03 -1.98482E+03  2.78428E+03
 -1.39059E+03  4.16973E+03  6.53972E+03 -1.24539E+03  7.50587E+02  7.98391E+03  3.57633E+03  6.42701E+03
 -1.00592E+04  1.09019E+04 -8.77625E+03  1.12273E+04 -1.10529E+04  5.34001E+03 -1.19388E+04 -4.69322E+03
 -5.31743E+03 -1.18657E+04  1.97036E+03 -8.80233E+03  2.62402E+03 -1.09171E+04  9.47615E+03 -2.60419E+03
  5.35006E+03  1.10127E+04  2.97238E+02  4.65303E+03 -4.81517E+03  4.29333E+03 -6.71073E+03 -6.15724E+02
 -5.17578E+02 -7.29515E+03  7.42058E+03 -5.96439E+03  1.89140E+03  2.19717E+03  3.86705E+03 -4.28261E+01
  8.38008E+02  1.52274E+03  2.75918E+03  3.33692E+03  6.50055E+02 -1.49531E+03 -1.85323E+03  2.78813E+03
 -2.17551E+03  2.34697E+03  1.19839E+04  1.29641E+03 -2.01757E+03  1.14686E+04 -1.73898E+03  1.37045E+04
 -1.12784E+04  1.08837E+04 -2.52541E+03 -2.07744E+03 -6.51049E+03  1.77831E+03 -2.21698E+03 -6.88270E+03
  1.10793E+03 -3.63748E+03  3.88321E+03  2.83687E+03  3.97303E+03  2.07003E+03 -2.93533E+03 -1.17131E+02
  1.40862E+03  4.51499E+03 -7.12506E+03 -1.35390E+03 -6.50561E+03 -6.83240E+03  2.62239E+03 -7.54625E+03
  4.87385E+02 -9.18142E+02  3.64066E+03 -8.68108E+03  5.19351E+03 -4.29026E+02  3.24120E+03  1.32827E+02
 -1.85528E+03  3.95363E+02 -2.81303E+02 -6.41092E+03  1.08523E+04 -6.88194E+03  9.66294E+03 -6.03772E+02
  5.29601E+03  4.42376E+03  6.61134E+03  4.11476E+03  2.79646E+03  1.15489E+04 -7.96330E+03  8.92501E+03
 -2.50847E+03  4.87267E+03 -4.38691E+03 -5.94248E+03 -4.51908E+03 -2.79046E+02 -1.99378E+03  7.14766E+02
  5.61391E+03  1.58581E+03  2.22472E+03  3.46716E+03  2.81675E+03  2.78724E+03 -6.62703E+03  8.72126E+03
 -9.05201E+03  1.21358E+03  2.47166E+03  1.85548E+03  4.92764E+03 -2.46183E+03 -3.84114E+03  1.30264E+03
 -5.85745E+02 -1.02484E+03 -5.78634E+03  8.72950E+02 -7.28262E+03  6.33414E+03 -3.03082E+03 -4.95496E+03
 -5.40160E+02 -1.14461E+04  3.99920E+03 -7.56772E+03  9.88246E+03 -1.46749E+04  8.22954E+03 -4.94079E+03
  8.08672E+03 -5.85780E+03  9.81808E+03  4.29078E+03 -2.91490E+03  7.00387E+03 -3.85665E+03  4.15334E+03
 -1.70674E+03  1.41122E+03 -1.53424E+03  2.08598E+03 -1.94382E+02  4.95824E+03 -2.70014E+02  3.72867E+02
 -2.28770E+03 -6.39636E+02 -1.05876E+04  1.36780E+03  2.11890E+03 -2.10462E+03  3.38771E+02 -1.28354E+03
  7.36165E+03  1.45437E+02  7.23033E+03  2.08490E+03  3.12809E+03 -3.00165E+02  5.36266E+02  1.13544E+04
 -2.54115E+02  6.04117E+03 -3.33330E+03  1.45541E+03 -1.14016E+04 -6.03963E+02 -9.75224E+03 -4.47816E+03
  1.49974E+03 -2.80997E+03  3.45741E+03 -6.68609E+03 -1.50257E+03 -7.20789E+03  5.64495E+03  2.02027E+03
  5.66265E+03  2.02344E+03  5.74652E+03 -9.58214E+01  9.07187E+02 -4.33162E+03 -1.77521E+03  1.43302E+03
 -6.83259E+02 -1.43486E+03 -2.09488E+03  5.50096E+03 -1.37617E+03 -2.46268E+03  3.88620E+03  7.76260E+03
 -3.01117E+03  9.78415E+03 -5.89326E+03  5.26109E+03 -2.62953E+03 -1.26694E+03  9.43617E+02 -9.43573E+03
  2.23302E+03 -1.03915E+04  4.36067E+03  2.71755E+03  3.90928E+03  9.91945E+02  8.94274E+03  4.55971E+03
 -6.29384E+02  3.50245E+03 -3.61864E+03  8.99671E+03 -2.55809E+03 -2.17011E+03  1.89966E+03  3.93949E+02
 -9.18014E+02 -2.21719E+03 -5.06971E+03  1.70605E+03  6.46189E+02 -2.46843E+03 -4.16899E+03  2.30280E+02
 -1.81060E+03 -4.06199E+03  1.06584E+02 -4.23738E+03  2.87591E+03 -3.50662E+03  2.62128E+03 -4.97489E+03
  4.44579E+03  4.75070E+03  1.54609E+03  2.51244E+03 -3.60831E+03  8.31566E+03 -3.03072E+03 -2.39214E+03
