 $NMID ID='MM_0lb_SNR50_11hz_g40_27.RAW', FMTDAT='(8E13.5)'
 TRAMP=1., VOLUME=1. $END
  3.10200E+05 -1.45559E+03  3.36011E+05  2.48334E+05  8.37727E+04  3.35514E+05 -1.32686E+05  2.54349E+05
 -1.90967E+05  8.31994E+04 -1.13567E+05 -2.94908E+04 -1.13039E+03 -5.51292E+04  5.13416E+04  4.92920E+03
  3.80151E+04  5.54938E+04 -2.01988E+04  7.62182E+04 -6.37288E+04  6.67518E+04 -8.06604E+04  3.20225E+04
 -8.11297E+04 -1.45262E+04 -5.85166E+04 -4.79477E+04 -1.83993E+04 -7.41696E+04  2.38952E+04 -4.68587E+04
  4.15693E+04  6.38721E+03  1.77422E+04  4.72923E+04 -3.71279E+04  5.19623E+04 -6.50421E+04 -4.26635E+03
 -5.10548E+04 -5.43644E+04 -4.56453E+03 -8.42794E+04  3.76661E+04 -5.46349E+04  5.22998E+04 -1.50109E+04
  4.16695E+04  1.14265E+04  3.18224E+04  2.09018E+04  1.81587E+04  3.11511E+04 -8.24161E+03  2.82621E+04
 -1.94573E+04  1.32980E+04 -1.56579E+04 -6.04942E+03  1.21438E+04 -7.38706E+03  2.53709E+04  1.38663E+04
  2.48947E+03  3.52482E+04 -3.45330E+04  3.43150E+04 -6.72925E+04  5.00509E+03 -6.00196E+04 -4.60762E+04
 -1.45867E+04 -6.75034E+04  3.96108E+04 -4.68810E+04  5.17995E+04 -2.53705E+03  3.18115E+04  3.15544E+04
 -8.55180E+03  3.28355E+04 -4.53825E+04  1.68850E+04 -3.13599E+04 -5.40980E+03 -1.43470E+04 -1.05626E+04
 -1.25291E+04 -2.16354E+04 -1.08557E+03 -1.65937E+04  9.35991E+03 -1.99879E+04  1.31260E+04 -8.85799E+03
  1.08649E+04  9.52264E+03 -7.79223E+03  1.28805E+04 -2.07228E+04 -5.05351E+03 -5.92789E+03 -3.56272E+04
  2.42931E+04 -4.47000E+04  5.00418E+04 -1.97266E+04  5.06450E+04  1.79251E+04  1.55562E+04  4.53221E+04
 -1.34355E+04  3.31110E+04 -3.49111E+04  2.89582E+03 -9.27904E+03 -2.61996E+04  2.31832E+04 -3.80565E+04
  4.54172E+04 -7.56952E+03  3.88920E+04  2.45556E+04  2.22686E+04  4.88788E+04 -1.08466E+04  5.14970E+04
 -3.05681E+04  4.37415E+04 -4.71847E+04  9.13421E+03 -4.38574E+04 -1.74282E+04 -1.98251E+04 -3.41950E+04
  8.45057E+03 -3.82375E+04  3.41524E+04 -1.40040E+04  3.35086E+04  1.71228E+04  6.40480E+03  2.53923E+04
 -1.28350E+04  9.50871E+03 -1.14229E+04 -5.58752E+03  7.48513E+03 -1.65593E+04  2.03072E+04  2.70767E+03
  1.18792E+04  2.36945E+04 -8.96685E+03  2.63404E+04 -2.21643E+04  1.01239E+04 -3.03080E+04 -4.47379E+03
 -2.16082E+04 -2.22102E+04 -6.53372E+03 -2.38360E+04  2.63903E+03 -2.28779E+04  1.70020E+04 -2.24824E+04
  2.48554E+04 -1.08782E+04  3.51991E+04  7.38348E+03  2.75526E+04  1.79932E+04  1.97776E+03  3.80501E+04
 -1.61774E+04  3.25688E+04 -3.31685E+04  1.15669E+04 -1.80602E+04 -8.28958E+03 -6.05596E+03 -1.07360E+04
 -2.77363E+03 -4.23002E+03  6.18287E+01  9.60241E+03 -2.14910E+04  5.04218E+03 -1.61730E+04 -1.11933E+04
 -4.40613E+03 -1.90627E+04  3.03242E+03 -2.61783E+04  1.22557E+04 -2.28229E+04  2.35073E+04 -2.15473E+03
  9.85490E+03  1.72028E+04  1.92481E+03  2.03022E+04 -7.79600E+03  1.11032E+04 -2.12303E+04  2.22042E+03
 -1.87549E+04 -1.79141E+04 -4.90263E+03 -2.43966E+04  1.07521E+04 -1.71759E+04  2.28686E+04 -9.69415E+03
  2.23203E+04 -1.12080E+03  1.14765E+04  2.42520E+03  8.19419E+03 -3.02367E+03  1.54287E+04 -9.05691E+02
  1.93213E+04  7.07503E+03  2.32199E+04  1.53097E+04  1.33934E+04  3.27756E+04 -3.31384E+03  3.80526E+04
 -2.24912E+04  3.23265E+04 -3.90597E+04  1.18605E+04 -3.85598E+04 -3.88074E+03 -3.75877E+04 -1.54885E+04
 -6.31775E+03 -3.04982E+04  8.89776E+03 -3.00027E+04  2.62677E+04 -1.23830E+04  2.47239E+04 -1.64597E+02
  7.70539E+03  1.43699E+04 -1.24043E+04  1.64248E+04 -1.67261E+04  5.31377E+03 -7.22983E+03 -1.70997E+04
 -4.75260E+03 -1.32941E+04  1.31129E+04 -1.25034E+04  1.24872E+04 -7.72503E+01  9.57392E+03  4.42455E+03
 -5.63405E+03 -3.48711E+01 -8.47056E+03 -7.19823E+03  3.77600E+02 -1.66985E+04  1.42140E+04 -1.31079E+04
  1.78016E+04 -8.87551E+03  2.29194E+04  3.88316E+03  1.62950E+04  1.08081E+04  7.56761E+03  2.59440E+04
 -8.23372E+03  2.68275E+04 -1.62986E+04  2.13148E+04 -1.49633E+04  9.08234E+03 -1.48635E+04 -5.74102E+03
 -6.47347E+03 -7.14845E+03  1.44671E+03  2.15718E+03 -4.06317E+03 -4.71844E+02 -3.47796E+03 -1.18763E+03
 -1.13465E+04 -2.12127E+03 -1.28951E+04 -7.29892E+03 -1.01402E+04 -1.45601E+04  4.99727E+03 -1.24000E+04
  1.27235E+04 -5.05764E+03  6.81747E+03  4.21905E+03  1.69413E+03  5.41296E+03 -5.36365E+03 -7.34934E+03
 -6.62695E+03 -8.28855E+03 -3.66939E+03 -1.44550E+04  8.12203E+03 -1.64570E+04  1.57297E+04 -7.70552E+03
  1.73601E+04  1.35732E+03  1.86544E+04  1.29432E+04 -1.01581E+03  1.39842E+04 -1.22788E+04  1.00675E+04
 -1.20628E+04  4.40848E+03 -8.34847E+03 -1.99348E+03  1.90409E+03 -3.45878E+03  8.12235E+03  2.70560E+03
  1.65452E+03  7.47498E+03  1.33913E+03  1.26878E+04 -9.34955E+03  2.40289E+03 -9.70928E+03  7.02728E+03
 -6.12950E+03 -9.36458E+03  4.13944E+02 -8.36370E+03  8.40309E+03 -5.06608E+03  2.70704E+03  5.06185E+03
  1.52436E+03  7.53173E+03 -3.44640E+03  6.29710E+03 -9.89139E+03  3.83970E+03 -1.11327E+04 -5.27681E+03
 -7.97459E+03 -1.22731E+04 -7.55208E+02 -1.64654E+04  1.07529E+04 -8.05344E+03  1.18961E+04  4.42856E+03
  1.33762E+04  4.28518E+03 -3.04606E+02  1.52330E+04 -7.19576E+03  4.80622E+03 -6.11287E+03 -3.39022E+03
 -1.48652E+04 -8.56482E+03 -3.51779E+03 -1.17828E+04  1.04678E+04 -8.77900E+03  6.02093E+03 -1.98012E+03
  4.98597E+03  1.95674E+03  4.25837E+03  5.70912E+02 -4.62707E+03 -3.72308E+03 -6.34229E+02 -5.33615E+03
  1.02010E+04 -3.92830E+03  9.82408E+03  5.00332E+03  1.12644E+04  4.22207E+03  5.87063E+03  1.40670E+04
 -1.09549E+03  2.03302E+04 -1.36974E+04  1.10077E+04 -1.88102E+04 -1.11857E+02 -1.27114E+04 -1.04328E+04
 -6.68741E+03 -2.11761E+04  6.41280E+03 -1.13242E+04  4.60503E+03 -3.35738E+03 -1.46149E+02 -1.90790E+03
  6.03453E+03 -6.86769E+03 -1.91468E+03 -5.73279E+03  6.86957E+03 -3.25564E+03  8.38888E+03 -2.86273E+03
  1.46734E+04 -2.51043E+03  4.37685E+02  4.22213E+03  1.35370E+03  4.98256E+03 -8.17889E+03  2.81813E+03
 -1.06237E+04  3.24037E+03 -4.99872E+03 -8.26463E+03 -6.59572E+02 -8.53267E+03  4.43568E+03 -1.12303E+04
  1.34625E+04 -9.87033E+03  2.06172E+04  3.89365E+03  7.41683E+03  8.22863E+03 -1.73093E+03  9.26133E+03
 -5.83789E+03  1.40253E+04 -1.51996E+04  9.04089E+03 -6.63885E+03 -4.88692E+03 -5.12654E+02  1.26282E+03
 -4.55472E+03 -1.00251E+03 -4.85465E+03  8.66258E+03 -1.14309E+03  5.36709E+03 -1.20754E+04 -2.59345E+03
  1.56515E+01 -4.91641E+03 -5.42074E+03 -4.92476E+03  8.00393E+03 -6.58629E+03  1.04382E+04 -7.13515E+03
  9.51156E+01  6.60917E+03  7.26892E+03  5.67441E+03  2.01807E+02  8.52825E+03 -1.08915E+04  7.08219E+03
 -1.05120E+04 -3.42906E+03 -9.49244E+03 -6.69066E+03  4.14344E+03 -1.62384E+04  8.62138E+03 -5.07009E+03
  8.29246E+03  3.74105E+03  6.77570E+03  4.54157E+03  2.67503E+03  4.05147E+03  1.81463E+03 -2.13180E+03
  3.64079E+03 -5.92955E+03  2.40376E+03  2.44314E+03  4.01107E+03 -1.55742E+03  2.72734E+03  3.53865E+03
 -1.02696E+03  1.27259E+04 -8.13171E+03  8.28449E+03 -8.15585E+03  4.97165E+03 -9.39602E+03 -3.79565E+03
 -3.70274E+03 -1.57639E+04  2.35331E+03 -1.11812E+04  5.33642E+03 -1.02627E+04  8.67037E+03 -1.48761E+03
  2.08995E+03  7.40371E+03  4.76192E+02  4.64477E+03 -1.91684E+03  1.44204E+03 -4.39282E+03 -2.00528E+03
  1.86215E+03 -3.73364E+03  5.26363E+03 -1.78733E+03  1.45144E+03 -2.71583E+03  4.61555E+02 -1.19385E+03
  4.65340E+03  2.03047E+03 -2.75953E+02 -4.39650E+02 -3.70640E+03  1.55897E+03  2.48878E+03  1.62242E+02
  2.22351E+03  5.88185E+03  1.84718E+03  8.85153E+03  1.93071E+03  7.08773E+03 -1.12755E+03  9.02274E+03
 -8.74797E+02  3.63525E+03 -9.68655E+03  3.77680E+03 -7.99668E+03 -1.42439E+03  1.88612E+03 -8.05034E+03
 -4.18019E+02 -9.85951E+03  1.04195E+03 -3.06511E+03  4.81889E+03  3.83156E+03  3.49516E+03  4.08303E+03
 -5.69997E+03  8.43909E+02 -2.93417E+03 -2.28512E+03 -3.99247E+03 -4.83724E+03  4.62236E+02 -6.12509E+03
  5.96130E+03 -4.36749E+03  9.98873E+02  4.33247E+03  1.17567E+04  1.07644E+03  4.94577E+03 -3.08992E+03
 -8.92289E+02  2.63875E+03 -1.34213E+03  5.35540E+03  8.35311E+03 -7.38486E+03  7.51112E+03 -1.07555E+04
  4.29609E+03 -1.45279E+03  8.27265E+03  9.46092E+03  5.54586E+03  8.12369E+03 -1.49495E+03  6.73048E+03
 -4.81601E+03 -3.88504E+03 -4.60509E+03  3.20303E+03 -7.32666E+03 -3.59759E+03  3.17547E+03 -6.86370E+03
  2.27281E+03 -2.65418E+01  3.24810E+03  1.56950E+03 -3.62217E+03  1.08593E+04 -5.26740E+02  3.18925E+03
 -2.82005E+03  9.88422E+03 -4.36000E+03  1.58800E+01  7.17944E+02  1.03271E+03 -7.33258E+03  1.78045E+03
 -3.14120E+03  1.25882E+03 -1.73072E+03  4.58140E+03 -8.42493E+03  4.60627E+03 -9.04297E+03 -7.13207E+03
 -5.37071E+03 -1.32329E+04  2.80751E+03 -1.12414E+04  4.57185E+03 -7.52411E+03  7.59746E+03 -4.45272E+03
  1.80150E+04  2.20113E+03  2.57030E+03  1.05732E+04  4.67713E+03  8.05141E+03 -4.30289E+03  1.41398E+03
 -9.71801E+03 -1.68799E+02  1.55509E+03 -4.61534E+03 -1.12446E+03  3.38395E+03 -6.16550E+03  3.60922E+03
  2.08706E+03 -6.14702E+02 -1.42343E+03  6.70329E+03 -8.33162E+03 -3.86312E+02 -2.55209E+03  2.29443E+02
 -1.40755E+02 -5.33099E+03  6.99147E+03  5.74879E+03  2.52057E+03 -3.71894E+03  8.34418E+03  3.89623E+03
 -4.12934E+03  1.06600E+04 -7.48043E+03  7.96621E+03 -7.35163E+03  1.60642E+02 -1.16617E+04 -8.32336E+03
  1.18356E+03 -5.67741E+02  1.45446E+03 -7.05114E+03 -1.41242E+02 -1.19887E+02  3.73552E+03 -2.83298E+03
  5.95002E+02  1.15345E+02  5.57232E+02  6.53135E+02 -1.15919E+03  4.58094E+03 -1.52256E+03 -3.92446E+03
  1.29584E+03  3.51938E+03  5.80871E+03 -3.08716E+02  1.57308E+03  5.08840E+03 -2.80469E+02 -3.35909E+03
 -2.49816E+02  2.37486E+03 -7.16512E+03  2.80956E+03 -2.99455E+03 -4.30937E+03  3.12253E+02 -1.05658E+04
 -1.23240E+03 -3.03948E+03  8.26166E+03 -1.20917E+03  7.24408E+03 -4.84866E+03  1.97878E+03  8.94618E+02
 -4.17222E+00  7.51072E+03  1.16227E+03  7.24979E+03 -4.03623E+03  3.30881E+03 -3.73264E+03  5.84325E+02
 -3.03823E+03  1.30237E+02 -1.38664E+03 -2.07226E+03  1.23143E+03  3.16930E+03 -1.30219E+03 -2.20455E+03
 -3.52794E+03 -4.03137E+03 -2.69614E+03 -5.10051E+03  7.76917E+02 -8.25543E+03  2.09896E+03  5.06925E+03
  2.72981E+03 -3.59274E+03  4.95876E+03  2.77534E+03 -3.26278E+03  7.25845E+03 -1.60190E+03  1.49581E+03
