 $NMID ID='MM_0lb_SNR50_15hz_g40_6.RAW', FMTDAT='(8E13.5)'
 TRAMP=1., VOLUME=1. $END
  3.12432E+05 -6.56253E+02  3.37613E+05  2.53552E+05  7.96476E+04  3.37411E+05 -1.34953E+05  2.52779E+05
 -1.89893E+05  8.66862E+04 -1.10217E+05 -3.18560E+04 -2.38949E+03 -4.99978E+04  5.66791E+04 -3.11608E+03
  3.92494E+04  5.01053E+04 -1.36191E+04  7.52780E+04 -6.14929E+04  6.12992E+04 -7.99033E+04  3.32562E+04
 -8.20976E+04 -1.23418E+04 -5.49019E+04 -5.58628E+04 -1.14395E+04 -7.01003E+04  2.81977E+04 -4.28734E+04
  4.36931E+04  3.72823E+03  1.74765E+04  4.60291E+04 -3.42098E+04  4.97592E+04 -7.02866E+04  8.09690E+02
 -4.90255E+04 -5.74996E+04 -7.26766E+03 -7.75396E+04  3.41141E+04 -5.77029E+04  4.52809E+04 -1.67041E+04
  4.48665E+04  1.02404E+04  2.93806E+04  2.28766E+04  1.03465E+04  2.69961E+04 -6.11023E+03  2.81878E+04
 -2.62079E+04  1.36052E+04 -2.08668E+04 -7.47438E+03  1.22347E+03 -1.18820E+04  2.31066E+04  1.04548E+04
  2.60396E+03  3.52863E+04 -3.18158E+04  3.48892E+04 -6.08240E+04 -8.34956E+02 -5.26186E+04 -4.51975E+04
 -9.49009E+03 -6.14285E+04  3.67119E+04 -4.56319E+04  5.83741E+04 -2.83857E+03  3.35999E+04  2.96821E+04
 -8.81324E+03  3.96727E+04 -3.01127E+04  1.77320E+04 -2.98180E+04 -5.96866E+03 -1.95359E+04 -1.10518E+04
 -4.25434E+03 -1.40726E+04  7.57443E+02 -1.59218E+04  2.08717E+03 -2.70251E+04  1.05243E+04 -1.12475E+04
  1.25305E+04  4.10226E+03 -9.48694E+03  9.01467E+03 -2.31853E+04 -9.49858E+03 -1.03715E+04 -3.30764E+04
  1.99357E+04 -4.23708E+04  4.64333E+04 -1.55508E+04  4.38945E+04  1.55049E+04  1.45785E+04  4.10311E+04
 -1.02012E+04  2.90866E+04 -2.15871E+04 -1.56806E+01 -1.54273E+04 -2.89893E+04  2.30555E+04 -3.23650E+04
  3.89355E+04 -4.42551E+03  3.17531E+04  2.12617E+04  1.85564E+04  4.35569E+04 -1.00705E+04  4.44200E+04
 -2.93560E+04  3.09353E+04 -4.48657E+04  1.06720E+04 -3.80019E+04 -1.39070E+04 -2.25143E+04 -3.88943E+04
  7.00075E+03 -3.89240E+04  2.65793E+04 -7.51622E+03  2.76063E+04  1.22191E+04  1.87792E+03  1.59584E+04
 -1.56649E+04  8.56252E+03 -8.64895E+03 -9.38076E+03  1.03625E+04 -8.45097E+03  1.90850E+04  5.10314E+03
  1.32895E+04  1.94763E+04 -5.71718E+03  2.64317E+04 -1.70673E+04  1.12303E+04 -2.79537E+04 -7.28509E+03
 -2.18587E+04 -1.92756E+04 -9.03099E+03 -2.04182E+04  4.37283E+03 -1.93734E+04  1.56502E+04 -1.26200E+04
  2.20883E+04 -1.29434E+04  2.71073E+04  1.60029E+03  2.19915E+04  1.96542E+04  7.48216E+03  3.45828E+04
 -1.87400E+04  2.65066E+04 -2.63299E+04  4.63205E+03 -1.78292E+04 -1.33545E+04 -5.17025E+03 -1.39312E+04
 -5.09783E+02 -1.00740E+04 -2.98784E+03  6.77079E+03 -1.16658E+04  5.27065E+03 -1.62208E+04 -6.26745E+03
 -7.63752E+03 -1.97524E+04 -7.88957E+02 -2.03649E+04  1.40136E+04 -1.45243E+04  1.76584E+04  8.85944E+02
  8.71638E+03  1.35663E+04  1.70343E+02  1.69222E+04 -9.30468E+03  8.48365E+03 -1.58774E+04  1.17457E+02
 -1.03364E+04 -1.45670E+04 -6.17348E+02 -2.02253E+04  7.46337E+03 -1.33529E+04  2.12496E+04 -7.45291E+03
  1.80933E+04 -8.30800E+02  7.18850E+03  7.45002E+03  9.45854E+03  2.47013E+03  6.94582E+03 -2.37749E+03
  1.49304E+04  2.08117E+03  1.37269E+04  2.30485E+04  1.55380E+04  2.54287E+04 -3.20074E+03  2.90233E+04
 -1.75748E+04  2.02470E+04 -2.68611E+04  1.47260E+04 -2.54624E+04  3.97490E+03 -2.43186E+04 -1.73304E+04
 -1.13461E+04 -2.47146E+04  4.00897E+03 -2.21872E+04  2.15057E+04 -1.18912E+04  1.75186E+04  5.89740E+03
  4.90519E+03  9.18891E+03 -7.51250E+03  1.29043E+04 -1.64414E+04  3.22340E+03 -1.24616E+04 -7.99697E+03
 -4.67125E+03 -1.39773E+04  3.25382E+03 -9.74004E+03  1.67923E+04  1.43848E+03  2.25665E+02  6.56679E+03
 -4.71501E+03  1.79862E+03 -3.11989E+03 -7.05490E+03  1.90565E+02 -1.30061E+04  1.23043E+04 -8.87808E+03
  1.69316E+04 -5.79672E+03  1.35094E+04  3.28104E+03  1.42299E+04  1.06901E+04  6.76953E+03  1.63409E+04
 -6.77225E+03  2.04920E+04 -1.28951E+04  8.56909E+03 -1.86435E+04  5.87818E+02 -9.07832E+03 -1.71620E+03
 -2.27401E+03 -5.50013E+03  1.64006E+03  4.03322E+03 -7.13338E+02 -8.38093E+02 -2.99832E+03  4.58490E+03
 -1.25295E+04 -4.68088E+02 -8.04875E+03 -7.13057E+03 -7.56033E+03 -1.11293E+04  1.93811E+03 -1.23490E+04
  1.25274E+04 -1.26456E+03  4.41002E+03 -1.54837E+03  1.40806E+03  9.22354E+02 -3.20478E+03  1.62737E+03
 -5.16014E+03 -7.01308E+03 -6.59483E+03 -1.20337E+04  4.18072E+03 -8.91697E+03  1.02492E+04 -9.32063E+03
  1.35845E+04  8.22619E+03  1.49256E+04  4.94758E+03  1.59343E+03  9.92300E+03 -5.83283E+03  4.00614E+03
 -6.20184E+03  2.66427E+03 -5.50932E+03 -5.32096E+03 -3.62470E+02 -4.17147E+02  4.07394E+03 -2.94107E+03
  7.35203E+03  6.58416E+03  2.27319E+03  2.45661E+03 -9.57316E+03  1.21832E+04 -1.01571E+04  4.32097E+03
 -6.20075E+03 -6.65353E+03  1.16334E+03 -4.69958E+03  4.09433E+03 -3.98259E+03  4.11995E+03  2.71544E+03
  2.62087E+03  6.80519E+03 -3.20096E+03  6.10201E+03 -7.02373E+03  2.57340E+03 -4.02585E+03 -3.09477E+03
 -2.18267E+03 -8.73863E+03  1.80707E+02 -1.35570E+04  5.43682E+03 -6.94204E+03  1.07144E+04 -1.34356E+02
  3.91861E+03  8.86240E+03 -2.52252E+03  7.78786E+03 -3.17014E+03  1.05385E+04 -7.78726E+03 -5.60533E+03
 -5.52158E+03 -1.89389E+03 -1.59164E+03 -5.19473E+03  2.76405E+03 -1.14558E+04  8.28423E+03 -2.34911E+03
  1.73207E+03  4.70372E+02  1.65917E+03  1.12266E+03  4.81970E+03 -7.56004E+03 -4.43901E+03 -2.01153E+03
  6.91450E+03  8.78360E+02  4.82038E+03  2.58254E+03  4.25889E+03  9.10358E+03  3.56231E+03  1.11248E+04
 -3.35036E+03  1.17144E+04 -1.15396E+04  4.60466E+03 -1.77254E+04  1.63948E+02 -7.94810E+03  1.68687E+02
 -4.74379E+03 -9.46691E+03 -7.14602E+02 -4.87275E+03 -7.35437E+02 -2.60505E+03  2.89721E+03 -5.58597E+03
  6.69910E+03 -6.12303E+03  2.30727E+03 -2.19460E+03  5.51632E+03  1.10210E+03  2.11411E+03 -3.05381E+03
  7.28127E+03 -1.29987E+02  7.29581E+03  3.68467E+03 -2.35578E+03  1.95889E+03 -8.85267E+03  1.89251E+03
 -4.90955E+03  1.99054E+03 -1.91518E+03 -7.88807E+03 -3.46818E+03 -7.67031E+03 -3.75503E+02 -7.26997E+03
  9.28839E+03 -3.09002E+03  9.77314E+03  1.79845E+02  1.00778E+02  8.54104E+03 -2.67662E+03  8.63940E+03
 -1.68479E+03  9.37433E+03 -5.41742E+03  7.25767E+03 -4.49716E+03 -2.80572E+03  1.02603E+03 -6.77414E+02
 -8.95770E+02 -9.44530E+02 -1.50497E+03  2.14225E+03 -3.99467E+03 -3.13100E+03 -5.83169E+03 -2.23272E+03
 -3.06846E+03 -9.15670E+03  4.89266E+03 -5.53146E+03  4.99201E+03 -7.01247E+03  7.34495E+03  3.01905E+02
  9.20552E+03  7.19138E+03  6.28266E+03  6.52531E+03 -3.29918E+03  1.12273E+04 -8.65482E+03  6.70091E+03
 -6.80621E+03  1.43363E+02 -7.45257E+03 -3.02083E+03  9.79849E+02 -8.87640E+03  4.36267E+03 -5.63371E+03
  4.65940E+03 -6.33512E+03  4.12651E+03  6.28970E+02  6.47214E+03  3.78093E+03  1.50847E+03  2.63510E+03
  3.99490E+03  1.86598E+03  2.68053E+03  8.88854E+02  5.00982E+03  1.49230E+03  4.58909E+03  3.85975E+03
  1.10562E+03  7.16592E+03 -6.66302E+03  7.83920E+03 -5.33484E+03  6.79049E+02 -2.78218E+03 -4.53067E+03
 -5.12792E+03 -5.91075E+03 -2.91215E+03 -6.99767E+03  6.85276E+03 -2.00234E+03  2.13219E+03 -3.52238E+02
  3.37812E+03  1.60350E+03  4.61611E+03  9.61719E+03 -2.78249E+03  2.71962E+03  2.58506E+03 -2.42083E+03
 -1.40400E+03 -9.34866E+02  7.40579E+01 -3.70811E+03  4.74364E+03 -5.16597E+03  9.26701E+02  1.93691E+03
 -7.83116E+02  1.50094E+03 -3.09382E+02  1.71666E+03 -2.18792E+03 -1.89865E+03  1.74334E+03 -1.34533E+03
 -1.41540E+03  1.94248E+03  3.59449E+03  4.03678E+03  1.69084E+03  5.68962E+03 -4.54617E+02  7.21763E+03
 -1.41467E+03  2.54570E+03 -9.01245E+02 -1.91456E+03 -1.98998E+03 -2.73723E+03 -1.77760E+03 -2.29982E+03
 -2.39800E+03 -2.39532E+03  5.14273E+03 -4.25968E+03 -1.15564E+03  1.09503E+03  6.39682E+02  2.83780E+03
 -5.87370E+02 -1.34352E+03 -3.67553E+03 -1.28809E+02  3.01157E+03  1.73293E+03 -2.52242E+03 -1.75559E+03
  3.94512E+03 -2.24169E+03  3.52121E+02  3.84079E+03  2.63678E+03 -1.90878E+03  9.24672E+02 -1.67641E+03
 -4.61212E+03 -1.00375E+03 -2.63483E+03  4.68228E+02 -5.52993E+03 -4.69599E+03  2.39326E+03 -1.59849E+03
  3.41369E+03  3.47391E+03  7.52941E+03  5.11067E+03  6.03878E+02  4.48202E+03  8.19933E+02  3.64125E+03
 -2.66607E+03  4.43677E+03 -5.69973E+03  6.29208E+01 -3.35717E+03 -2.33981E+03  2.86286E+03  2.87636E+03
  8.58461E+02 -6.13923E+03 -1.11175E+03  4.66982E+03  1.78496E+03  4.37116E+03 -3.56470E+02 -9.51403E+02
 -3.11546E+03  2.13916E+03 -2.70122E+03 -2.43441E+03 -4.35628E+03 -1.66141E+03 -9.66689E+02  1.46869E+03
 -1.54601E+03  1.50401E+03  2.06953E+02 -1.71730E+03  1.04994E+03  1.89935E+03 -3.02350E+03 -3.78862E+03
 -5.34688E+03 -4.91596E+03 -3.34984E+03 -3.53176E+03  1.33014E+03 -1.34669E+04  4.21385E+03 -4.02633E+03
  3.24913E+03 -1.92187E+03  2.02895E+03  3.12368E+03 -2.17377E+03  3.84208E+03 -1.53869E+03 -1.81825E+02
  2.09473E+03  2.15491E+03  5.59359E+03 -6.94585E+02  4.82391E+02  3.86850E+03  1.51002E+03  2.15569E+03
  3.95633E+03 -1.30969E+03 -1.03461E+03  2.19968E+03 -1.84059E+03 -4.18198E+02  1.07328E+03 -4.11120E+03
  3.79069E+03 -1.55901E+03  3.17933E+03  2.68495E+03  1.47245E+03  5.80655E+03  1.03443E+03  2.38842E+03
 -4.03336E+03  6.27175E+03 -6.46359E+03  2.55610E+03 -3.64841E+03  2.31029E+03 -5.30684E+03 -2.91853E+03
  9.59744E+02 -3.36133E+03 -1.78617E+03  1.53591E+03  3.14562E+03 -6.38661E+02  2.47017E+03  2.25785E+03
 -3.78762E+02 -1.36641E+03 -3.27929E+03 -7.33668E+02 -4.11495E+03  1.89381E+03  4.96267E+02 -8.35486E+02
  1.21182E+03 -8.27139E+02 -1.89739E+03  6.22170E+01  2.07070E+03  1.53103E+03 -1.53475E+03 -3.56546E+03
  1.66340E+03  3.88938E+03 -2.27855E+03 -7.63536E+02 -4.17718E+03 -4.17903E+03 -1.37069E+03 -5.56539E+03
  2.17002E+03 -3.47891E+03  3.73827E+03 -4.85429E+03  7.10973E+03  2.84488E+03 -4.09711E+03  2.67286E+03
 -1.24006E+03  5.80117E+03 -5.09077E+03 -1.28059E+03 -1.89210E+02  2.40734E+03 -1.04618E+03  1.05103E+03
  2.57931E+03  2.17820E+03 -1.64636E+02 -8.85904E+02  2.66628E+03  1.94161E+03 -1.60717E+03  2.43071E+03
 -1.87937E+03 -3.70109E+03 -4.56189E+03 -2.89773E+03  2.05487E+03  1.81200E+03  1.54632E+03  4.41770E+02
  4.14343E+03 -2.41411E+03 -1.33515E+03 -4.17741E+02  5.69474E+02  3.70058E+03  7.99523E+02  4.51979E+03
