 $NMID ID='MM_0lb_SNR50_17hz_g45_57.RAW', FMTDAT='(8E13.5)'
 TRAMP=1., VOLUME=1. $END
  3.09019E+05  1.14948E+02  3.34323E+05  2.48192E+05  8.13625E+04  3.35940E+05 -1.24543E+05  2.54216E+05
 -1.90647E+05  8.36845E+04 -1.10375E+05 -3.47402E+04  3.21642E+03 -5.01873E+04  5.00638E+04  2.74270E+03
  3.48549E+04  5.20066E+04 -1.17823E+04  7.56984E+04 -6.16306E+04  6.48101E+04 -8.40594E+04  3.16203E+04
 -7.90725E+04 -1.02596E+04 -5.79230E+04 -5.34201E+04 -1.87951E+04 -6.94992E+04  2.71869E+04 -4.07942E+04
  4.20343E+04  2.15085E+03  1.96747E+04  5.12746E+04 -3.44305E+04  4.29414E+04 -6.24096E+04  2.90608E+03
 -5.15238E+04 -5.70983E+04 -6.64666E+03 -7.34186E+04  3.26263E+04 -5.29795E+04  4.67282E+04 -1.83869E+04
  4.21349E+04  5.55231E+03  2.95569E+04  2.55171E+04  1.34504E+04  2.83938E+04 -6.06782E+03  2.51019E+04
 -2.31460E+04  9.97743E+03 -1.75956E+04 -2.16980E+03  8.19074E+03 -3.82516E+03  2.34095E+04  1.27112E+04
  5.65918E+03  3.73270E+04 -3.51103E+04  3.52499E+04 -6.16776E+04  9.82888E+03 -5.37174E+04 -4.09730E+04
 -1.53358E+04 -6.07253E+04  3.46414E+04 -4.11118E+04  5.41942E+04  1.03004E+03  3.25667E+04  2.92396E+04
 -5.87325E+03  3.48797E+04 -2.80382E+04  1.21973E+04 -3.05382E+04 -6.15022E+02 -1.83395E+04 -3.97532E+03
 -5.06008E+03 -6.91887E+03  1.49632E+03 -1.74546E+04  7.40062E+03 -2.41221E+04  2.04556E+04 -1.42406E+04
  1.32925E+04  4.49075E+03 -7.80183E+03  1.21007E+04 -1.97389E+04 -1.92886E+03 -8.95466E+03 -3.11292E+04
  1.80242E+04 -3.83913E+04  4.87777E+04 -2.16697E+04  4.09133E+04  2.43761E+04  1.45801E+04  4.08633E+04
 -1.67395E+04  3.25430E+04 -2.67187E+04  4.88933E+03 -5.82104E+03 -2.87136E+04  2.17730E+04 -3.36743E+04
  3.87825E+04 -9.09256E+03  3.29657E+04  1.91870E+04  1.71223E+04  4.12675E+04 -9.04711E+03  4.41162E+04
 -2.75352E+04  3.33755E+04 -3.71094E+04  1.08260E+04 -3.77689E+04 -1.53361E+04 -1.75933E+04 -3.71411E+04
  1.01999E+04 -3.50567E+04  3.48753E+04 -1.53826E+04  3.00377E+04  1.04039E+04  5.45356E+03  1.63137E+04
 -1.76897E+04  9.84458E+03 -2.64317E+03 -8.66349E+03  5.09069E+03 -1.16319E+04  2.39790E+04  8.07043E+03
  1.62239E+04  1.86296E+04 -8.57882E+03  2.16895E+04 -2.67036E+04  1.19093E+04 -2.67673E+04 -5.51158E+03
 -2.08447E+04 -1.28865E+04 -6.09073E+03 -1.55995E+04  2.19730E+03 -1.57060E+04  1.61416E+04 -1.43368E+04
  2.39068E+04 -1.14929E+04  2.77685E+04  8.15183E+02  2.31676E+04  1.81478E+04  3.07820E+03  2.92439E+04
 -1.87540E+04  2.71840E+04 -2.23756E+04  1.21621E+04 -2.17127E+04 -1.03675E+04 -2.69487E+03 -1.32986E+04
  1.44899E+03 -5.70521E+03 -3.04818E+03  1.05974E+03 -1.41332E+04  9.99064E+02 -1.68406E+04 -2.18596E+03
 -9.61258E+03 -1.40679E+04  3.49586E+03 -2.18817E+04  1.38086E+04 -1.30462E+04  1.65013E+04 -5.86808E+03
  1.17252E+04  1.18118E+04  1.22846E+03  1.71908E+04 -7.24646E+03  1.08860E+04 -1.76628E+04 -5.01466E+03
 -1.27837E+04 -1.77464E+04  3.85909E+02 -1.66540E+04  4.27342E+03 -1.75447E+04  1.91193E+04 -1.25148E+04
  1.49327E+04 -3.06757E+03  1.89598E+04  3.60526E+03  5.37685E+03  1.96714E+03  8.63984E+03 -4.75232E+03
  1.47959E+04 -2.47286E+03  1.70062E+04  1.68259E+04  1.15895E+04  2.43615E+04 -3.01191E+03  2.49419E+04
 -1.42149E+04  2.19325E+04 -2.73711E+04  9.83337E+03 -2.83235E+04 -4.26448E+03 -1.81752E+04 -1.05793E+04
 -9.69064E+03 -2.22548E+04  7.37735E+03 -2.02428E+04  1.88798E+04 -1.45788E+04  1.78675E+04  2.80980E+03
  7.57315E+03  1.04668E+04 -9.86321E+03  1.00310E+04 -1.33250E+04  1.41620E+03 -1.30045E+04 -1.10250E+04
  3.97926E+03 -1.36245E+04  3.72992E+03 -1.16129E+04  9.03855E+03 -1.82637E+03  3.51780E+03  7.01634E+03
 -1.09177E+04  2.29021E+03 -1.08942E+04 -2.92162E+03 -1.75127E+03 -1.09824E+04  6.94096E+03 -1.60315E+04
  1.15531E+04 -6.95544E+03  1.39731E+04  9.70989E+02  9.17647E+03  8.40738E+03  6.76212E+03  1.48507E+04
 -2.74400E+03  1.90097E+04 -1.26573E+04  1.30268E+04 -9.99389E+03  2.56476E+03 -6.96083E+03 -1.90621E+03
 -2.85539E+03 -5.00679E+03 -2.81159E+03  2.92259E+03 -3.04473E+03  2.79067E+03 -7.44215E+03  2.96968E+03
 -8.01006E+03  3.29533E+03 -8.87332E+03 -6.58374E+03 -5.78312E+03 -9.76453E+03  5.99528E+03 -2.41671E+03
  7.87382E+03 -4.52136E+03  9.06923E+03  4.19587E+02  1.90550E+01  4.83501E+03 -3.24512E+03  3.49021E+02
 -5.72484E+03 -1.79804E+03  1.08445E+03 -8.82222E+03  6.86329E+03 -8.18718E+03  1.46650E+04 -5.32771E+03
  1.00520E+04  4.78895E+02  9.53306E+03  7.48126E+03  5.32628E+03  1.14060E+04 -1.34268E+04  8.36663E+03
 -1.03277E+04  3.76653E+03 -3.95543E+03 -7.53166E+02 -1.86362E+03 -2.10162E+03  2.82905E+03 -2.12590E+03
  9.30110E+02  1.19828E+03  7.35374E+02  3.54031E+03 -5.96475E+03  6.97162E+03 -1.04124E+04  2.56041E+03
 -8.28365E+03 -6.83566E+03  1.34692E+03 -7.15877E+03  4.15043E+03 -5.99396E+03  9.19417E+02 -1.93763E+03
 -6.04388E+03  2.74748E+03  8.69847E+02  8.09371E+03 -4.65701E+03  4.45143E+03 -1.71730E+03 -1.54860E+03
 -5.01961E+03 -8.03643E+03  1.28923E+03 -8.38591E+03  8.90334E+03 -9.91626E+03  4.88773E+03  4.70362E+02
  8.55442E+03  6.49389E+03 -1.38037E+03  1.60875E+03 -5.35935E+03  7.03056E+03 -8.06694E+03 -4.91813E+03
 -8.36046E+03 -4.62046E+03 -4.70012E+02 -4.91650E+03  6.06875E+03 -4.14968E+03  5.77635E+03 -1.68986E+03
  5.65355E+03  1.78528E+03 -1.37474E+03  2.49338E+03 -4.07944E+03 -6.73949E+02  1.08813E+03 -5.16209E+03
  4.65925E+03  7.39783E+02  7.08021E+03  1.55437E+03  8.93702E+03  3.41156E+03  5.28368E+03  9.11720E+03
 -3.81501E+03  8.71651E+03 -8.61932E+03  6.39665E+03 -1.54115E+04  3.49064E+03 -8.50204E+03 -4.10857E+03
 -4.53478E+03 -7.07207E+03  3.63986E+03 -3.40708E+03  1.33581E+03 -2.73427E+03 -2.34250E+02 -5.89238E+03
  8.29316E+02 -2.72727E+03 -1.39435E+03 -4.66754E+03  3.38459E+03  4.71755E+02  3.87126E+03  2.40692E+03
  4.30923E+03  4.74518E+03  1.43631E+03  4.08181E+03 -1.43486E+03  2.07559E+03 -5.82503E+03  2.43917E+03
 -6.60011E+03 -2.88766E+02  2.01536E+03 -1.34210E+03  9.58701E+02 -8.62464E+03  4.35849E+03 -7.58608E+03
  5.73526E+03 -6.84328E+02  4.85649E+03  9.31980E+02  3.44083E+03  8.60660E+03 -9.27154E+02  6.51605E+03
  6.23597E+02  9.64113E+03 -4.45797E+03  2.50115E+03 -7.14039E+03 -2.49050E+03  1.20312E+03 -3.52868E+03
  4.13144E+03 -2.73740E+03  3.08587E+03  3.84571E+03 -8.66648E+03 -1.66200E+03 -2.89338E+03  4.65690E+01
 -4.60390E+03 -1.73226E+03 -3.43187E+02 -6.47149E+03  2.19284E+03 -5.74149E+03  2.63613E+03  2.77180E+02
  4.25560E+03  4.59454E+03  5.75764E+03  7.06527E+02  1.44483E+03  7.96936E+03 -4.89497E+03  4.00531E+03
 -5.13290E+03 -6.61554E+02 -5.15416E+03 -3.60676E+03  1.89152E+03 -3.64677E+03  4.28584E+03 -2.94281E+03
  1.26140E+03  4.52236E+03  6.83149E+02 -9.27924E+02 -2.89908E+02 -5.29965E+03  1.63289E+03  7.69754E+02
  5.39803E+03  1.73916E+02  1.90313E+03  2.29108E+03  3.16835E+03  1.60011E+03  3.76160E+03  2.54769E+03
 -5.20129E+02 -3.84701E+03 -2.07441E+03  6.02266E+03 -4.12551E+03  8.78436E+01 -5.20004E+03 -1.11691E+03
 -2.79410E+03 -4.99865E+03 -1.39266E+03 -3.42987E+03  1.26856E+03 -3.24054E+03  3.33466E+03 -3.89929E+00
  5.91093E+03  2.98305E+03  1.42726E+03  2.47066E+03 -6.20692E+03 -3.45556E+03  9.94332E+02  6.23068E+02
  1.73416E+03 -4.23859E+03 -1.63923E+03 -2.08078E+03 -3.57494E+03 -1.22549E+03 -3.50921E+03  4.17018E+03
  2.14417E+03  1.38526E+03  1.30428E+03  5.98503E+02 -2.30520E+03  1.07091E+03 -1.22210E+03  3.06852E+03
 -8.46762E+02  3.01302E+03  4.44542E+03  2.16712E+03 -2.01322E+03  4.20679E+03 -2.77333E+03  2.79484E+03
  1.22511E+02  1.29680E+03 -2.67601E+03  3.36896E+03 -3.39986E+03  2.73751E+03  3.61658E+03  3.71782E+02
 -4.74274E+02  1.24419E+03  6.65655E+02  3.98938E+02  2.06186E+03  3.85402E+03  2.94283E+03  2.96789E+03
  2.98365E+02 -2.27712E+03  3.29653E+03  1.85337E+03  2.15838E+02 -1.28038E+03  3.93146E+03 -3.56266E+03
  4.39222E+03  8.96908E+02  1.55162E+03  3.78528E+02  1.10969E+03 -1.82234E+01 -2.30550E+03  4.22665E+03
 -8.19323E+02  2.54267E+02  4.04262E+03 -8.32647E+02  2.68460E+03 -4.07999E+03  1.02388E+03 -2.82602E+03
  4.82955E+03  9.15920E+02  1.52950E+03  3.39098E+03  7.10249E+02 -9.64161E+02 -8.08938E+02  2.43466E+03
 -1.42603E+03 -2.07362E+02 -2.17492E+03 -3.81096E+03 -3.26614E+03 -2.55836E+03  3.78372E+03  1.78326E+03
  3.55815E+03 -9.68744E+02  3.24477E+03  6.22351E+02 -3.56408E+03  6.19400E+03  2.28278E+03 -2.09186E+03
  4.91917E+03  2.49540E+02 -6.98329E+02 -2.36437E+02 -1.83358E+03  3.38618E+03 -4.00496E+03 -1.29104E+03
 -3.24465E+03  4.05846E+03  2.18121E+03  2.11193E+03 -3.49883E+03  4.53568E+02 -7.75306E+03 -5.36720E+03
  4.66484E+01 -6.25511E+02  2.44085E+03 -4.35510E+02  6.99232E+03 -8.59149E+02  5.17652E+03 -2.06657E+03
  1.23889E+03  6.72273E+02 -1.74293E+03  4.06818E+03 -2.73692E+03  5.89145E+03 -4.51203E+03  1.90256E+03
 -1.55386E+03  3.00417E+03  1.53231E+03  3.96103E+02 -1.10665E+03 -1.73334E+03  6.45384E+02 -2.81148E+02
 -3.63408E+03 -1.03632E+03  2.91312E+03 -1.23834E+03 -4.64175E+03 -2.21003E+03  4.95542E+02 -2.50320E+03
  5.43900E+02 -4.98371E+03  3.49183E+03 -4.60907E+02 -2.96615E+03  5.75839E+03 -1.87956E+02 -1.59965E+03
  5.59487E+02  5.01817E+03 -5.21588E+03  1.02475E+03  1.13146E+03  2.00557E+03 -2.42370E+03 -4.04488E+03
 -5.67214E+02 -3.14396E+03  1.58897E+03 -7.55358E+02  7.03651E+03 -5.90715E+03  1.86464E+02  5.15079E+02
  1.06136E+03  1.03094E+03  2.36524E+03 -1.06828E+00  4.83372E+02  1.47209E+03  1.55078E+03 -4.55528E+02
 -2.84590E+02 -4.46610E+03  4.23521E+03  4.18228E+03  1.26436E+03 -8.86379E+02  8.88235E+02  1.24222E+03
 -8.61985E+02  1.97112E+03 -9.34867E+02  1.05690E+03  6.43072E+02  1.02136E+03  4.78279E+02 -4.79061E+03
 -3.25956E+02 -6.67843E+02  2.00376E+03 -1.09331E+03  8.96851E+02  1.10536E+03  2.90760E+03  4.28103E+03
  7.73038E+02  4.96432E+03 -6.56605E+02 -8.01846E+01  1.42378E+03 -4.92257E+02 -3.41045E+03 -8.74100E+02
  1.60714E+03 -1.45026E+03 -1.96590E+02  2.21675E+03 -3.16253E+03  4.48232E+03 -1.93002E+03 -1.78793E+02
 -3.77266E+03 -4.92864E+03 -4.27175E+02 -7.06245E+03  2.31589E+03 -1.64181E+03  1.83014E+03 -3.98610E+02
 -1.64399E+03 -2.99569E+03  1.53651E+03  4.75712E+03  1.10258E+02 -1.51890E+03 -2.82503E+03  4.65242E+03
