 $NMID ID='MM_0lb_SNR50_9hz_g40_10.RAW', FMTDAT='(8E13.5)'
 TRAMP=1., VOLUME=1. $END
  3.08583E+05 -6.85278E+02  3.38444E+05  2.49437E+05  8.20023E+04  3.39544E+05 -1.35150E+05  2.52595E+05
 -1.97592E+05  8.72020E+04 -1.14735E+05 -2.91818E+04 -4.41637E+03 -5.14617E+04  5.64302E+04 -1.25739E+03
  3.50323E+04  5.74036E+04 -1.75916E+04  7.83133E+04 -6.80551E+04  6.15885E+04 -8.21345E+04  3.22612E+04
 -8.12305E+04 -1.71437E+04 -5.42407E+04 -5.78185E+04 -1.31810E+04 -6.45620E+04  2.63449E+04 -4.90357E+04
  4.08578E+04  3.26863E+03  1.48600E+04  4.35746E+04 -4.18441E+04  4.29104E+04 -6.51462E+04  2.57033E+03
 -5.48338E+04 -5.97653E+04 -5.01237E+03 -8.05768E+04  3.57745E+04 -5.92301E+04  5.00618E+04 -1.27039E+04
  4.47603E+04  7.02895E+03  3.44647E+04  2.61578E+04  1.71858E+04  2.85545E+04 -5.05917E+03  2.96371E+04
 -2.57047E+04  7.23508E+03 -1.35298E+04 -8.46572E+03  9.99986E+03 -1.42223E+04  2.06150E+04  1.32880E+04
  5.86495E+03  3.96089E+04 -3.27155E+04  3.69706E+04 -6.47486E+04  5.09092E+03 -5.68093E+04 -4.18423E+04
 -1.09986E+04 -6.46670E+04  4.01325E+04 -5.44311E+04  6.36577E+04 -7.41730E+02  3.12341E+04  3.51019E+04
 -8.33672E+03  4.23008E+04 -3.64657E+04  1.25389E+04 -2.95617E+04 -5.42047E+03 -1.61041E+04 -1.15093E+04
 -8.85562E+03 -1.66819E+04 -8.14364E+02 -2.87815E+04  5.54141E+03 -2.09516E+04  1.80596E+04 -1.31926E+04
  9.84059E+03  3.34696E+03 -9.72833E+03  1.36277E+04 -2.46100E+04  1.95555E+03 -1.55658E+04 -3.55056E+04
  2.38871E+04 -5.12946E+04  5.56090E+04 -2.01123E+04  4.30213E+04  2.12433E+04  1.30669E+04  5.04228E+04
 -1.75784E+04  3.14669E+04 -2.71926E+04  2.64799E+03 -1.07166E+04 -2.61276E+04  2.10216E+04 -4.08346E+04
  4.31901E+04 -7.34749E+03  4.05390E+04  2.63256E+04  1.50029E+04  5.03148E+04 -9.64931E+03  5.17650E+04
 -3.80116E+04  3.80735E+04 -4.41241E+04  7.56037E+03 -5.16506E+04 -1.63306E+04 -1.90918E+04 -3.80515E+04
  3.20225E+03 -3.70248E+04  3.46748E+04 -1.36637E+04  2.83049E+04  1.30296E+04 -6.93434E+02  1.57023E+04
 -1.21466E+04  1.46602E+04 -1.55200E+04 -1.09252E+04  3.60952E+03 -7.52630E+03  1.67515E+04  9.38946E+02
  1.23416E+04  1.93881E+04  2.68661E+03  2.82358E+04 -2.64204E+04  1.49540E+04 -2.83238E+04  3.97348E+03
 -3.07731E+04 -2.27225E+04 -1.61464E+04 -2.12170E+04  8.54630E+03 -2.78235E+04  1.91617E+04 -2.42901E+04
  3.48315E+04 -1.21845E+04  4.33332E+04  1.28075E+04  2.92486E+04  2.51849E+04  1.59667E+03  3.21711E+04
 -1.43509E+04  3.23067E+04 -2.63411E+04  1.56588E+04 -2.20502E+04 -1.19040E+04 -8.16965E+02 -8.43298E+03
  1.43681E+03 -5.85910E+03 -2.66111E+03  4.96444E+03 -1.93768E+04  5.40863E+03 -2.15439E+04 -8.64253E+03
 -1.71464E+04 -2.66954E+04 -3.03461E+03 -2.11863E+04  2.05821E+04 -1.51043E+04  2.61486E+04 -1.23351E+03
  1.49448E+04  1.30629E+04 -4.34750E+03  2.23881E+04 -1.43085E+04  1.40526E+04 -2.17132E+04 -1.62207E+03
 -1.66416E+04 -1.59179E+04 -7.62589E+01 -2.59889E+04  1.60849E+04 -2.43744E+04  2.65578E+04 -1.62968E+04
  1.66010E+04 -1.97973E+03  1.05928E+04  7.63109E+03  4.02552E+03  8.52443E+02  4.38052E+03  1.26454E+03
  1.79807E+04 -2.33035E+03  1.32468E+04  1.60501E+04  1.39401E+04  3.85266E+04 -1.26292E+01  4.71445E+04
 -2.38904E+04  3.61623E+04 -4.33634E+04  2.63876E+04 -3.83451E+04 -5.65030E+03 -3.89418E+04 -2.65305E+04
 -1.93179E+04 -2.42136E+04  1.02041E+04 -3.06287E+04  2.55732E+04 -1.80019E+04  2.43335E+04  7.56404E+03
  4.65130E+03  2.28695E+04 -6.35248E+03  2.00866E+04 -1.62356E+04  2.93785E+03 -1.83001E+04 -9.40711E+03
  4.57977E+03 -2.07361E+04  1.02013E+04 -1.54804E+04  1.34433E+04 -3.24555E+03  9.07690E+03  1.08607E+04
 -1.40627E+04  8.95679E+02 -7.52264E+03 -1.11144E+04 -7.85024E+02 -1.47204E+04  1.00676E+04 -2.00673E+04
  2.32414E+04 -1.16766E+04  2.23696E+04  4.43036E+03  1.51800E+04  1.66938E+04  5.96174E+03  2.41240E+04
 -1.64839E+03  2.42182E+04 -2.66914E+04  1.40312E+04 -1.91142E+04  9.68545E+03 -1.57648E+04 -9.34779E+03
 -4.86682E+03 -5.55652E+03 -2.92957E+03 -2.28796E+02 -1.49245E+03  3.12828E+03 -9.12067E+03  3.34425E+03
 -1.81521E+04 -9.62576E+03 -1.44813E+04 -1.39372E+04 -2.37535E+03 -1.93655E+04  7.34536E+03 -1.54536E+04
  6.80616E+03 -4.36581E+03  3.46434E+03  2.87610E+03  5.00185E+03  1.09356E+04 -1.12237E+04  3.18540E+03
 -1.63789E+04 -1.06221E+04 -6.91408E+03 -1.08813E+04  5.55473E+03 -1.98950E+04  1.30004E+04 -6.46440E+03
  2.48545E+04 -5.57216E+02  1.78614E+04  1.07916E+04  8.18200E+03  1.44428E+04 -1.16910E+04  1.25811E+04
 -1.67962E+04  3.43919E+03 -4.27763E+03 -8.04343E+03  5.56672E+02  3.35979E+03  5.92941E+03 -1.96314E+03
  7.33455E+02  7.60263E+03  1.59025E+03  1.51805E+04 -7.85407E+03  1.43647E+04 -1.32191E+04 -2.18785E+03
 -1.12998E+04 -1.01929E+04 -1.38016E+03 -1.25354E+04  9.44335E+03 -4.74541E+03  7.71002E+03  6.60913E+03
  7.22943E+03  1.02638E+04 -9.13395E+03  7.47930E+03 -1.38312E+04  6.78166E+03 -6.12569E+03 -5.71538E+03
 -3.85210E+03 -1.02836E+04  1.25642E+04 -2.33934E+04  2.31856E+04 -1.04714E+04  1.44746E+04  2.38006E+03
  6.90383E+03  8.34675E+03 -3.46959E+03  2.16057E+04 -1.60306E+04  4.90597E+03 -1.62834E+04  1.59568E+03
 -7.51021E+03 -3.59255E+03 -4.41506E+03 -1.39240E+04  3.83939E+03 -9.00615E+03  2.89129E+03 -3.80316E+03
  3.09252E+03  1.46072E+03 -8.74688E+03 -1.82286E+02 -4.10426E+03 -2.72967E+03  5.08977E+03 -8.09690E+03
  1.14379E+04 -8.64266E+03  1.76039E+04  2.73680E+02  1.47968E+04  1.02313E+04  1.13456E+04  1.81589E+04
 -3.40141E+03  2.31942E+04 -1.52695E+04  1.91796E+04 -3.19057E+04  9.46929E+03 -1.51699E+04 -9.30477E+03
 -6.08964E+03 -1.92103E+04  5.26525E+03 -1.33691E+04  4.11780E+03 -4.29090E+03  3.02897E+03 -3.36023E+03
  5.56011E+03 -4.80607E+03  9.48765E+03 -3.93429E+03  3.13368E+03 -4.77588E+03  4.19562E+03 -4.23070E+02
  1.36608E+04  2.16898E+03  5.91475E+03  8.02948E+03 -5.38101E+02  1.23112E+04 -1.09818E+04  6.37638E+03
 -1.55357E+04 -2.90517E+03 -9.49814E+03 -3.24655E+03 -1.37570E+03 -1.83867E+04  1.01892E+04 -1.36435E+04
  1.49273E+04 -1.14165E+04  1.41808E+04  5.65999E+03  1.47361E+04  1.26318E+04 -2.86208E+01  1.86411E+04
 -9.75608E+03  8.05726E+03 -3.54332E+03  4.80071E+03 -6.62823E+03  3.97488E+03 -2.67051E+03 -3.34692E+02
  4.88017E+02 -2.66116E+03 -3.67738E+03  5.05098E+03  1.42098E+03 -5.78623E+02 -1.11899E+04 -7.15777E+02
 -6.55271E+03 -1.06507E+04 -2.30010E+03 -1.02055E+04  2.92155E+03 -1.37811E+04  8.54557E+03 -5.63555E+03
  1.02160E+04  6.15493E+02  1.18099E+04  9.95112E+03  1.99078E+03  9.08585E+03 -7.26973E+03  8.06006E+03
 -1.10013E+04 -6.09669E+03 -1.24250E+04 -7.03633E+03 -1.15600E+03 -1.00679E+04  2.50467E+03 -1.22519E+04
  1.05575E+04 -2.36671E+03  8.63639E+03  5.74311E+02  4.26618E+03  4.96481E+03  1.22794E+03 -2.17115E+03
  5.29789E+03  1.05859E+03  6.88956E+03  1.72478E+03 -1.49178E+03  3.39223E+03  1.25655E+04  4.88489E+03
 -8.83063E+03  1.16118E+04 -3.94461E+03  1.44083E+04 -1.47412E+04  1.51139E+03 -1.54436E+04 -7.73891E+03
 -7.12689E+03 -1.00939E+04  5.61610E+03 -1.87405E+04  6.27810E+03 -1.24725E+04  1.14909E+04 -1.55220E+03
  7.92705E+03  5.26331E+03  1.64944E+03  4.66287E+03  8.05894E+02  4.42573E+03 -3.69408E+03 -2.22248E+03
 -5.04080E+03 -3.04165E+03  2.76653E+03 -5.46284E+02  2.76295E+03  3.02753E+03  8.20187E+03 -3.47196E+03
  3.85057E+03 -9.25943E+03  1.12415E+03  9.20317E+02  1.38323E+03  3.85776E+03  5.86388E+03 -1.76586E+03
  5.52983E+03 -5.23082E+03  6.81788E+03  2.95594E+03 -3.09359E+03  9.87101E+03 -1.26098E+04  1.33931E+04
 -3.27581E+03  9.04225E+03 -9.01257E+03  6.47430E+03 -3.43335E+03 -7.29693E+02 -2.24784E+03 -2.30477E+03
  4.85349E+03 -7.04513E+03  3.74306E+03 -1.98503E+03  1.82686E+03  2.59471E+03  1.22238E+03  9.55696E+03
 -1.09952E+04  2.89705E+03 -9.99406E+03 -4.04162E+02 -4.91201E+03 -9.65848E+03  7.66422E+03 -6.83136E+03
  3.93999E+03 -4.04570E+03  7.53747E+03 -4.89065E+03  3.65361E+03  1.08296E+04 -3.54615E+03  8.65992E+02
  1.66436E+03  1.73742E+03  4.98933E+02 -8.59957E+03  7.68215E+03 -5.92810E+03  4.31375E+03 -6.48169E+03
  1.09411E+04 -2.83545E+03  7.65169E+03  5.43625E+03  7.20577E+03  7.83357E+03  2.53690E+03  1.04252E+04
 -3.82443E+03 -1.49370E+03 -4.76962E+03  7.75568E+02 -2.28391E+03 -1.60509E+03  9.83094E+02 -6.90688E+03
  2.85206E+03 -1.05812E+03 -3.67414E+03  3.34165E+03  7.33112E+03  6.51242E+03  9.70181E+01 -1.18131E+03
  3.24745E+02  1.41412E+03 -2.89415E+03  5.94390E+03  2.60169E+02  1.48986E+03 -8.28993E+03  4.81971E+02
 -1.39203E+03 -2.06948E+03 -5.49864E+03  9.94509E+02 -1.37935E+04 -5.17564E+03 -9.40897E+03 -5.91772E+02
 -4.59497E+03 -1.35835E+04  6.26335E+03 -5.04489E+03  9.51042E+03 -1.30610E+04  1.21993E+04 -3.47466E+03
  1.33814E+04 -1.70660E+03  1.15305E+04  4.16141E+03  2.43379E+03  1.54285E+03 -5.29225E+03  1.23368E+03
 -4.94211E+03  5.39833E+03 -3.91710E+03 -6.14922E+03 -7.41939E+03 -2.13510E+03 -5.55141E+03 -2.21886E+03
  1.50136E+03 -1.55571E+03  1.09033E+03 -1.39335E+03 -1.40772E+03 -3.77153E+03  6.92046E+03 -7.46086E+03
  8.02761E+03 -1.06460E+04  5.52007E+03 -1.47871E+03  5.76047E+03  6.67219E+03  4.09538E+03  1.16901E+04
 -6.69976E+03  9.89082E+03 -1.11547E+04  6.89691E+03 -1.15023E+04  4.70270E+03 -8.85398E+03 -5.13881E+03
 -7.41016E+03 -7.50578E+02  3.70944E+03 -6.99014E+03  1.24699E+04 -4.40803E+03  4.41767E+03  2.58756E+03
  5.65844E+03  5.09321E+03  6.62623E+03  1.99601E+03 -5.15245E+03  1.39040E+02  4.33278E+03 -6.64097E+03
  1.00049E+04  6.39171E+02  4.86015E+03  2.15023E+03  1.84195E+03  2.18669E+03 -1.33470E+02  4.15309E+03
  9.65501E+02  4.72617E+03 -9.50654E+03  1.76816E+03 -6.72941E+03 -6.50760E+03 -7.70223E+01 -6.79553E+03
  2.65432E+03 -4.68896E+03  5.59764E+03 -6.56999E+03  1.25044E+04  7.41429E+03  9.78360E+03  3.84338E+03
 -5.93318E+03  7.02384E+03  8.48949E+02  8.83044E+03 -3.87672E+03 -1.96362E+03 -7.98310E+03  1.14003E+03
  3.05523E+02 -2.75428E+03 -1.24926E+03 -2.10462E+03 -1.01160E+03  7.29255E+02 -9.67976E+03 -1.42862E+01
 -2.80142E+03 -3.60240E+03 -6.99995E+02 -9.60539E+03  5.82705E+03 -7.44823E+03  9.60254E+03  7.25555E+02
  6.70918E+03  6.31606E+03  2.57526E+03  6.87817E+03 -1.91614E+03  4.94873E+03 -6.28221E+03  1.03544E+04
