 $NMID ID='MM_0lb_SNR50_15hz_g55_18.RAW', FMTDAT='(8E13.5)'
 TRAMP=1., VOLUME=1. $END
  3.09693E+05 -1.56502E+03  3.40079E+05  2.47716E+05  8.45268E+04  3.35987E+05 -1.33244E+05  2.52415E+05
 -1.88535E+05  8.02622E+04 -1.05571E+05 -3.08343E+04  3.23610E+03 -5.19245E+04  5.32350E+04 -1.34288E+03
  3.74192E+04  4.99092E+04 -1.73242E+04  7.42137E+04 -6.43874E+04  6.44899E+04 -7.93782E+04  3.54100E+04
 -7.89861E+04 -8.22161E+03 -5.93000E+04 -5.01056E+04 -1.62225E+04 -7.43567E+04  2.80874E+04 -4.72908E+04
  3.90101E+04  2.59101E+03  1.30586E+04  4.69358E+04 -3.45452E+04  4.16534E+04 -6.88827E+04 -1.42797E+03
 -5.67003E+04 -5.80979E+04 -5.65982E+03 -7.34193E+04  3.49940E+04 -5.59085E+04  4.79758E+04 -2.03249E+04
  4.53356E+04  1.12528E+04  3.20193E+04  2.49714E+04  1.31641E+04  3.12341E+04 -4.07933E+03  2.78263E+04
 -2.50425E+04  9.03754E+03 -2.08990E+04 -4.51693E+03  3.97282E+03 -9.65555E+03  1.75374E+04  4.94909E+03
  5.70535E+03  4.04492E+04 -3.66204E+04  3.53002E+04 -6.53273E+04  3.48184E+03 -6.23401E+04 -3.96811E+04
 -1.22063E+04 -6.16909E+04  4.08591E+04 -4.94081E+04  5.52567E+04 -4.46870E+03  2.81607E+04  2.84929E+04
  8.43360E+01  3.27434E+04 -2.90185E+04  1.58095E+04 -2.76521E+04 -3.87441E+03 -1.95991E+04 -8.56221E+03
 -7.03591E+03 -1.71910E+04  1.90195E+03 -1.91734E+04  4.45629E+03 -2.81723E+04  1.94955E+04 -9.02425E+03
  9.96427E+03  3.32526E+03 -9.48117E+03  1.22158E+04 -2.01302E+04 -8.66994E+03 -8.87396E+03 -3.60887E+04
  2.17649E+04 -4.67925E+04  4.57615E+04 -2.11466E+04  4.72832E+04  2.33845E+04  1.62641E+04  4.39989E+04
 -1.77963E+04  3.19376E+04 -2.06618E+04  9.35720E+02 -1.46181E+04 -2.76465E+04  1.98967E+04 -3.05916E+04
  4.38959E+04 -6.89877E+03  3.77764E+04  1.99836E+04  2.53344E+04  4.43569E+04 -8.19266E+03  5.12425E+04
 -3.48945E+04  2.76487E+04 -4.14372E+04  8.21618E+03 -4.35566E+04 -1.51948E+04 -2.92284E+04 -4.26899E+04
  8.27159E+03 -4.27247E+04  2.88555E+04 -1.94672E+04  2.91754E+04  1.02834E+04  2.19124E+03  1.93018E+04
 -1.46949E+04  4.26369E+03 -1.18768E+04 -1.38750E+04  5.22652E+03 -1.32199E+04  1.68306E+04  5.78783E+03
  1.07850E+04  2.10865E+04 -6.86656E+03  2.37001E+04 -1.86587E+04  6.71283E+03 -2.60873E+04 -3.27027E+03
 -2.23356E+04 -1.94874E+04 -6.75174E+03 -2.14383E+04  6.36530E+03 -1.92514E+04  1.72509E+04 -1.71698E+04
  2.51200E+04 -1.39555E+04  3.67082E+04  3.85820E+03  2.19812E+04  2.16262E+04  8.08091E+03  3.70046E+04
 -2.13951E+04  3.16630E+04 -2.83669E+04  8.25226E+03 -2.10707E+04 -9.32553E+03 -5.42506E+03 -1.34441E+04
  6.70255E+03 -8.68838E+01 -3.67358E+03  2.70275E+03 -1.37153E+04  5.78104E+03 -1.59343E+04 -1.31447E+04
 -8.03564E+03 -1.83522E+04  4.76722E+03 -2.33832E+04  1.94927E+04 -1.76231E+04  1.38191E+04  2.99946E+03
  7.13763E+03  1.29364E+04 -2.19811E+03  1.61856E+04 -1.58106E+04  9.73851E+03 -2.08538E+04 -8.23633E+02
 -1.76078E+04 -1.99338E+04 -1.95834E+02 -2.37705E+04  1.68229E+04 -2.22718E+04  1.95031E+04 -5.92128E+03
  1.74123E+04  2.64652E+03  1.46631E+04  3.14037E+03  2.51862E+03 -2.51883E+03  8.18039E+03 -2.00251E+03
  1.61004E+04  2.58834E+03  1.57816E+04  1.38147E+04  1.65694E+04  3.11000E+04  1.03624E+03  3.60213E+04
 -2.14956E+04  2.89624E+04 -3.18024E+04  1.15824E+04 -3.35588E+04 -1.32998E+03 -2.73348E+04 -2.11418E+04
 -1.42237E+04 -2.95439E+04  8.95437E+03 -2.43593E+04  1.89680E+04 -1.03698E+04  1.58163E+04  5.48644E+03
  4.44538E+03  1.63604E+04 -7.47361E+03  1.41376E+04 -1.71112E+04 -2.97570E+03 -1.08172E+04 -1.38995E+04
 -5.71577E+02 -1.02827E+04  6.62377E+03 -1.24584E+04  8.25357E+03 -9.33507E+02  2.33725E+03  6.21209E+03
 -9.52230E+03 -5.71042E+03 -5.73761E+03 -2.71501E+03 -1.32135E+03 -1.01860E+04  1.46617E+04 -1.32500E+04
  1.55484E+04 -9.25627E+03  1.74478E+04  1.84619E+03  1.33287E+04  1.48667E+04  5.17914E+03  2.20464E+04
 -2.32104E+03  2.60851E+04 -1.75550E+04  1.16093E+04 -1.74329E+04 -7.09505E+02 -1.38905E+04 -6.84690E+03
  1.33335E+03 -3.42984E+03 -3.95427E+03  3.06170E+03  1.53394E+03 -1.84225E+02 -2.11314E+03  7.96544E+03
 -1.01508E+04  1.22353E+03 -1.33447E+04 -7.38237E+03 -5.20740E+03 -1.12525E+04  2.45214E+03 -9.78239E+03
  1.20243E+04 -3.69168E+03  5.27348E+03  1.96025E+03  9.35787E+02  3.24647E+03 -3.34779E+03  4.87598E+03
 -5.76007E+03 -6.85546E+03 -1.33346E+03 -1.61433E+04  4.80815E+03 -1.32590E+04  1.51844E+04 -5.39886E+03
  1.52423E+04  2.06851E+03  1.50733E+04  1.03052E+04  4.63624E+03  1.75487E+04 -1.54436E+03  1.60525E+04
 -6.31671E+03  9.72568E+01 -1.72010E+03 -1.81961E+03 -1.99052E+03 -2.16900E+03  7.62949E+03 -3.93049E+03
  8.97118E+03  9.92679E+03 -3.96664E+03  9.98466E+03 -2.37973E+03  1.06653E+04 -1.20672E+04  2.09588E+03
 -6.67049E+03 -1.33351E+03 -1.21019E+03 -6.98907E+03  5.11681E+02 -6.84697E+03  4.38265E+03 -5.43174E+01
 -2.18483E+02  6.48811E+03 -4.77069E+03  6.10355E+03 -1.18559E+04  2.46847E+02 -1.38599E+04 -1.85195E+02
 -6.89071E+03 -9.80413E+03  1.73506E+03 -1.16790E+04  9.21389E+03 -6.18606E+03  1.24177E+04 -9.31432E+02
  9.39769E+03  1.17273E+04  1.86314E+03  1.25394E+04 -5.21860E+03  6.02883E+03 -7.01696E+03  1.91115E+03
 -5.39910E+03 -5.87595E+03  1.81837E+03 -9.19013E+03  5.13758E+03 -5.33658E+03  6.84027E+03  6.54874E+02
  4.62662E+03  2.10164E+03 -4.57522E+03  3.60256E+03  1.84277E+02 -7.06010E+03  2.71074E+03 -6.16802E+03
  4.62296E+03 -1.65020E+03  8.95166E+03 -4.41919E+02  4.57790E+03  6.59501E+03  8.59661E+03  1.09778E+04
  5.37647E+02  1.65148E+04 -1.15521E+04  9.02452E+03 -1.90872E+04  5.42900E+02 -1.06591E+04 -2.17934E+03
 -4.87001E+03 -9.73209E+03 -1.76756E+03 -5.10925E+03  2.07161E+03 -1.83494E+02  5.81667E+03 -4.14641E+03
  2.55867E+03 -3.61970E+03  2.60428E+03 -6.09409E+03  4.55444E+03 -1.88989E+03  4.39930E+03  2.34571E+03
  1.51019E+03 -1.90383E+03  7.66638E+02  1.17875E+04  4.06357E+03  3.88407E+03 -2.78830E+03  3.86124E+03
 -7.44250E+03  3.44626E+02 -6.61732E+03 -6.15750E+03 -3.80556E+03 -6.99972E+03  1.86114E+03 -8.96250E+03
  1.17336E+04 -2.54901E+03  1.19536E+04  4.46709E+03  4.16337E+03  5.81163E+03  2.96615E+03  9.36894E+03
 -4.44177E+03  3.18793E+03 -4.36250E+03  5.99639E+03 -2.11979E+03  4.46503E+03  3.71523E+03  3.40365E+03
  1.73887E+03  1.96769E+03 -1.38720E+03 -5.61421E+03 -1.27638E+03 -1.12926E+03 -4.67308E+03 -6.10326E+02
 -2.29975E+03 -7.57860E+03  6.09872E+03 -9.51744E+03  3.85357E+03 -7.19829E+03  9.60951E+03 -7.22799E-01
  4.04750E+03  3.38483E+02  6.11142E+03  7.05470E+03 -6.90122E+02  7.44742E+03 -4.12989E+03 -1.29605E+03
 -6.47839E+03  1.86827E+03 -4.57037E+03 -1.24310E+03 -2.84176E+03 -7.59011E+03  5.33236E+03 -8.79017E+03
  5.64607E+03 -1.14498E+03  4.06428E+03 -1.04340E+03  6.74737E+02 -3.42587E+02  2.71850E+03  2.02910E+03
 -1.39825E+03 -4.62905E+02  2.68272E+03 -3.43307E+02  2.42210E+03  6.41346E+03  1.97793E+03  5.90481E+03
 -1.35914E+03  7.19331E+03 -2.20165E+03  4.69678E+03 -1.11978E+04  4.78791E+03 -8.19423E+03 -2.36735E+03
 -6.50231E+03 -1.67387E+03  1.56393E+03 -9.80632E+03  6.87395E+03 -3.71148E+02  5.43847E+03 -1.02472E+03
  6.66008E+03  5.21956E+03  3.39808E+03  7.15519E+03 -2.65343E+03 -3.30840E+03 -2.12319E+03 -2.47120E+03
 -6.09736E+03 -5.19226E+03  4.25540E+03 -4.57588E+02  7.76976E+03  7.35948E+02  6.79719E+03  2.46636E+03
 -1.92474E+03  3.94909E+03 -1.89587E+03 -2.52581E+02 -3.04361E+03  2.84513E+03  3.57817E+03  1.72000E+02
 -8.47440E+02  2.71068E+03  5.45633E+03 -4.64146E+03 -3.20152E+03  2.51490E+03 -1.55065E+03  1.30824E+01
 -1.12845E+03  4.08809E+03 -3.54595E+03 -4.05609E+03  6.58824E+02 -3.84120E+02  1.42198E+02 -1.78774E+03
  1.51395E+03 -5.54494E+03  4.71495E+03 -1.61206E+03  4.37866E+02 -1.64655E+02 -5.66884E+03  2.31671E+03
 -6.55603E+02 -2.17027E+02 -1.04451E+03 -4.51975E+03 -2.29908E+03 -5.79195E+03 -3.50561E+03 -2.61100E+03
  6.05173E+02 -4.09900E+02  6.88741E+03 -2.11028E+02  1.08880E+03 -1.72695E+03  2.07893E+03  5.74152E+03
 -1.13142E+03  2.81964E+02 -2.16574E+03  2.96373E+03  3.17651E+03  1.22042E+02  4.43022E+03  3.33160E+02
  3.02799E+03 -1.45980E+03  8.78794E+03 -4.75501E+03  2.71406E+03  6.66358E+03 -1.14188E+03  1.17279E+03
 -1.45348E+03  3.15256E+03 -3.25243E+03  2.15007E+03 -3.23471E+03 -3.96253E+03 -1.28541E+03  2.67571E+02
  1.55848E+03 -5.36254E+03  3.54402E+02  6.29293E+03 -1.63840E+03  2.74694E+03 -2.15485E+03 -1.13012E+03
  2.79788E+03  5.44672E+03 -1.68610E+03 -2.66327E+03  3.35004E+03  8.38580E+01 -1.61239E+03 -3.20100E+02
 -2.67533E+03 -8.66171E+02  2.91173E+03  1.85297E+02 -4.05599E+03  4.90073E+03 -2.37830E+03 -6.04255E+03
 -5.78538E+03 -5.52641E+03 -1.90733E+03 -8.61099E+03  3.23447E+03 -5.88989E+03  5.87913E+03  6.22934E+02
  5.88294E+03  3.86569E+02  4.90183E+03 -9.10342E+02 -1.16922E+03  2.90082E+03 -1.30852E+03 -5.62194E+02
 -1.71731E+01  9.36317E+02 -1.50727E+03  5.14643E+03 -1.27386E+03  1.80741E+03 -1.66910E+03 -1.50601E+03
  7.80003E+01 -5.53889E+03 -2.89399E+03 -8.14355E+01 -3.77329E+02  1.11597E+03  9.99024E+01 -3.95924E+03
 -3.86085E+03  1.63617E+02  2.30494E+03 -2.97908E+03  3.49965E+03  1.28678E+03 -3.05062E+03  1.72867E+02
 -5.81466E+02  3.99572E+03 -4.43387E+03  8.39424E+02 -8.72859E+03  2.26973E+03 -4.48495E+03 -5.93344E+03
 -2.96393E+03 -8.66663E+03 -2.32648E+03  1.84357E+03 -1.89050E+03 -5.35147E+03  1.39631E+03  1.22093E+03
  7.61239E+02 -3.65469E+03 -3.43356E+03  6.66289E+03 -6.36688E+03  2.43995E+03  2.66398E+03 -7.25543E+02
  2.85973E+03  2.57399E+03 -4.13725E+03 -2.40813E+03  1.76723E+03  2.06683E+03 -2.43784E+02 -4.98228E+02
 -3.33220E+03  4.74185E+03  1.49821E+03 -3.84847E+02 -6.60395E+03  1.47894E+03  1.92322E+02 -5.44215E+03
  2.76486E+03 -1.52660E+03  2.22743E+03  2.77743E+03  2.35167E+03  1.01279E+03 -2.72720E+03  1.38788E+03
  9.96090E+02  6.88767E+02  2.99040E+03  4.38447E+03 -8.15406E+02  3.62765E+03 -1.01808E+03  2.03589E+03
 -5.97220E+01 -2.09456E+03 -8.70516E+02 -6.95461E+01  1.02033E+03  5.94749E+03 -7.05322E+03  3.11223E+02
 -3.08727E+03 -5.10958E+02  2.19126E+03  1.55614E+03 -7.46847E+02 -2.65896E+03  2.04489E+01 -6.39416E+03
  7.16575E+03  1.23832E+02 -1.58875E+03  4.47583E+03 -1.09658E+03  2.07790E+03 -7.23370E+02  5.52925E+03
