 $NMID ID='MM_0lb_SNR50_9hz_g40_83.RAW', FMTDAT='(8E13.5)'
 TRAMP=1., VOLUME=1. $END
  3.11728E+05  2.96454E+03  3.40692E+05  2.44167E+05  8.53998E+04  3.33431E+05 -1.30682E+05  2.45037E+05
 -1.85992E+05  7.95531E+04 -1.05616E+05 -2.99070E+04 -2.28230E+03 -5.50332E+04  5.76471E+04 -3.36875E+03
  3.13661E+04  5.37706E+04 -1.69092E+04  8.45068E+04 -6.00149E+04  6.39977E+04 -8.51664E+04  3.32717E+04
 -9.19565E+04 -9.03585E+03 -5.93409E+04 -5.56083E+04 -1.79326E+04 -7.18351E+04  2.47882E+04 -4.04864E+04
  4.19708E+04  7.76778E+03  2.11712E+04  5.50431E+04 -3.49028E+04  5.22854E+04 -6.62551E+04  3.61396E+03
 -5.01484E+04 -5.74935E+04 -1.33928E+04 -7.74686E+04  4.18381E+04 -5.85338E+04  4.97121E+04 -1.88502E+04
  4.35811E+04  1.52600E+04  3.08270E+04  2.63693E+04  1.68806E+04  3.13991E+04 -3.07976E+03  2.42531E+04
 -1.89520E+04  1.26907E+04 -1.23350E+04 -7.53574E+03  2.86443E+03 -1.12076E+04  2.14583E+04  1.69804E+04
  9.95954E+03  4.29191E+04 -3.21015E+04  3.70216E+04 -6.32341E+04 -1.12818E+02 -5.85394E+04 -4.30545E+04
 -6.64362E+03 -6.76995E+04  4.14409E+04 -5.81402E+04  5.71686E+04 -7.53394E+03  2.92693E+04  3.07575E+04
 -1.19896E+04  3.94708E+04 -2.68337E+04  1.68801E+04 -2.87247E+04  2.91184E+02 -1.73805E+04 -1.62994E+04
 -8.19638E+03 -1.89792E+04 -4.74484E+03 -2.21021E+04  3.30667E+03 -2.08065E+04  1.75072E+04 -1.34163E+04
  1.19830E+04  6.60882E+03 -1.35647E+04  1.72251E+04 -2.25908E+04 -6.76811E+03 -5.96515E+03 -3.40144E+04
  2.58448E+04 -4.65950E+04  4.59066E+04 -2.66166E+04  4.38258E+04  1.80807E+04  1.30311E+04  5.29105E+04
 -1.25904E+04  3.30854E+04 -3.37788E+04 -4.32096E+02 -1.68921E+04 -2.77859E+04  1.85875E+04 -2.84301E+04
  4.38579E+04 -1.14909E+04  3.97472E+04  2.23170E+04  1.48341E+04  5.02284E+04 -4.61082E+03  5.93894E+04
 -3.68250E+04  3.65073E+04 -4.35924E+04  1.03875E+04 -4.77254E+04 -1.62736E+04 -2.18034E+04 -4.11023E+04
  6.55214E+03 -3.90057E+04  3.30870E+04 -1.48048E+04  2.99166E+04  5.13562E+03  4.33398E+03  1.98309E+04
 -1.44021E+04  5.77493E+03 -1.42183E+04 -7.30128E+03  8.40245E+03 -1.38017E+04  1.72861E+04  6.15585E+03
  1.27154E+04  2.44225E+04 -7.20417E+03  2.17364E+04 -1.88548E+04  1.22726E+04 -3.30246E+04 -3.31691E+03
 -2.28787E+04 -2.13464E+04 -7.59498E+03 -2.19673E+04 -1.53062E+03 -2.79373E+04  2.60098E+04 -1.66124E+04
  3.36502E+04 -7.87434E+03  3.83278E+04  5.35640E+02  2.36852E+04  2.20520E+04  7.81293E+03  4.06947E+04
 -2.22766E+04  3.00393E+04 -3.00340E+04  6.94930E+03 -2.89909E+04 -9.64204E+03 -1.60191E+03 -2.07726E+04
 -5.22112E+02  1.18702E+01 -8.66635E+03  8.24318E+03 -2.23588E+04  4.14678E+03 -1.58427E+04 -5.88714E+03
 -8.39804E+03 -2.32739E+04  5.18839E+03 -2.52286E+04  1.58883E+04 -2.22032E+04  1.81022E+04 -5.91407E+02
  2.21802E+04  1.77475E+04 -2.32809E+03  2.52578E+04 -1.57793E+04  9.83582E+03 -2.53649E+04 -3.32881E+03
 -1.37302E+04 -1.66788E+04 -5.04047E+02 -3.32139E+04  9.29695E+03 -2.58584E+04  2.43191E+04 -1.35240E+04
  2.39844E+04 -3.29624E+03  1.69857E+04  2.02660E+02  1.25650E+04 -4.63212E+03  1.28703E+04 -6.83352E+03
  1.88684E+04  7.50549E+03  1.67479E+04  1.41232E+04  1.73889E+04  3.83386E+04 -8.79571E+03  4.39273E+04
 -2.61206E+04  3.30457E+04 -3.78052E+04  2.00871E+04 -4.41510E+04  1.99648E+01 -3.28526E+04 -1.97336E+04
 -1.73089E+04 -3.81842E+04  1.60768E+04 -3.32872E+04  2.91468E+04 -1.65960E+04  2.70298E+04  8.33199E+03
  1.53549E+04  2.21670E+04 -1.05626E+04  1.48197E+04 -1.69038E+04  4.78081E+03 -1.33453E+04 -1.44587E+04
  2.93727E+03 -2.26355E+04  9.20769E+03 -1.58118E+04  1.24154E+04 -4.07065E+03  9.44687E+02  1.36664E+04
 -2.31971E+03  2.87347E+03 -1.63144E+04 -8.37087E+03 -4.35711E+03 -1.92281E+04  8.01059E+03 -2.08946E+04
  2.15029E+04 -9.29523E+03  2.44672E+04  1.48563E+03  2.05285E+04  1.68044E+04  3.67680E+03  2.56387E+04
 -5.78968E+03  3.25778E+04 -2.11556E+04  2.35275E+04 -2.00375E+04 -3.18811E+03 -1.45844E+04 -6.13589E+03
 -2.35449E+03 -5.49835E+03 -4.72701E+03  2.85573E+03 -6.52929E+03 -4.18724E+03 -1.10224E+04  7.21129E+03
 -1.24414E+04 -3.95678E+03 -1.41530E+04 -1.27372E+04 -5.71070E+03 -1.56248E+04  9.22506E+03 -1.40934E+04
  1.12302E+04 -6.25051E+03  3.55623E+03  3.93362E+03  2.11833E+03  8.15292E+03 -8.78087E+03  1.95518E+03
 -1.26691E+04 -7.78868E+03 -5.96273E+03 -1.76545E+04  7.67591E+03 -1.22245E+04  1.62625E+04 -1.02751E+04
  1.91749E+04 -1.78388E+02  1.99040E+04  1.09860E+04  6.58407E+03  1.77487E+04 -1.19900E+04  1.40008E+04
 -6.36009E+03  8.42793E+03 -3.97578E+03 -5.44751E+03 -3.84241E+03  1.20962E+03  6.16538E+03 -3.16162E+03
  5.42694E+03  7.42804E+03  8.19677E+01  1.23849E+04 -5.81833E+03  1.57976E+04 -1.03482E+04  2.24934E+03
 -4.24129E+03 -3.87679E+03 -1.73889E+03 -1.26201E+04  1.21716E+04 -9.90134E+03  1.26345E+04  9.58298E+03
  9.02991E+03  1.05590E+04 -5.52087E+03  9.10317E+03 -1.41154E+04  4.94669E+03 -1.05582E+04 -2.93444E+03
 -6.99711E+03 -1.97952E+04  6.62830E+03 -1.18264E+04  9.22544E+03 -5.86885E+03  2.07538E+04  2.59785E+03
  1.02382E+04  2.08498E+04  1.57311E+03  1.27680E+04 -9.85662E+03  1.81815E+04 -9.59811E+03  1.12474E+03
 -5.13141E+03 -1.19077E+04 -3.89682E+03 -1.87613E+04  1.82654E+03 -8.65540E+03  4.73390E+03 -3.88090E+03
  3.87273E+03  1.98718E+03 -4.87383E+03 -4.23260E+03 -1.98868E+03  4.12696E+03  4.60167E+03 -7.29115E+03
  1.17462E+04 -5.65144E+03  1.71564E+04 -1.36461E+03  1.23768E+04  1.75579E+04  4.60236E+03  1.38411E+04
 -3.06150E+03  2.14636E+04 -1.84844E+04  1.52970E+04 -2.88236E+04  8.28284E+03 -1.96150E+04 -9.81702E+03
 -1.14511E+04 -1.84719E+04 -1.78441E+03 -1.61060E+04  5.54824E+03 -1.04541E+04  8.72484E+03  2.35166E+03
  1.18986E+04 -1.92339E+03  5.61699E+03 -6.33568E+03  1.28213E+04 -5.35342E+03  1.14809E+04  3.71031E+03
  9.70221E+03  2.10535E+03  9.11467E+03  1.00871E+04 -5.88914E+03  1.39359E+04 -9.31374E+03  6.44706E+03
 -1.46492E+04  3.14642E+03 -7.06056E+03 -6.70498E+03 -7.12617E+03 -1.62064E+04  7.36731E+03 -1.81174E+04
  1.81784E+04 -8.32395E+03  2.00469E+04  1.84135E+03  1.01935E+04  1.21749E+04 -1.58742E+03  1.63005E+04
 -4.26711E+03  1.16831E+04 -8.65713E+03  2.99426E+03 -2.49575E+03  2.29346E+03 -6.21323E+03 -8.22589E+03
 -2.77502E+03 -1.33992E+02 -2.39403E+02  3.71914E+03 -4.99723E+03 -2.52256E+03 -1.26408E+04  2.18871E+03
 -8.91479E+03 -5.44595E+03 -5.24499E+02 -1.26951E+04  6.92037E+03 -1.51163E+04  7.65664E+03 -6.94471E+03
  1.60946E+04  6.99077E+03  9.59104E+03  9.13653E+03  1.91861E+02  1.58668E+04 -7.91881E+03 -8.34187E+02
 -1.00277E+04  4.66296E+03 -8.69778E+03 -4.35711E+03 -1.62589E+03 -5.07345E+03  5.69402E+03 -1.26150E+04
  7.46835E+03  1.35360E+03  5.75690E+03  1.09943E+03  3.47947E+03  2.85283E+03  7.76681E+03  1.51422E+03
  3.61299E+03  6.36764E+02  6.75918E+03  9.02113E+03  2.48928E+02  1.28192E+03  6.37273E+03  5.97193E+03
 -5.02431E+03  9.73118E+03 -9.64560E+03  7.76115E+03 -1.84413E+04  6.97700E+03 -1.59770E+04 -5.58475E+03
 -1.44473E+04 -1.26404E+04  2.47512E+03 -1.41650E+04  6.76406E+03 -7.90178E+03  1.08557E+04 -5.23915E+03
  8.50092E+03  1.19222E+04 -3.44809E+03  1.23618E+04 -1.83192E+03  1.99944E+03 -7.58721E+03 -9.73699E+02
  3.87488E+03 -6.48922E+03  3.02428E+03 -3.61005E+03  6.38368E+03 -3.77724E+03  3.53146E+03  5.92851E+02
  3.67670E+03  2.99535E+03  1.56292E+03 -8.64400E+03  4.22378E+02  5.03862E+03  1.30856E+03  4.37207E+03
 -9.67262E+02  2.27747E+03  4.96093E+03  5.18085E+03 -2.07121E+03  1.07168E+04 -2.07125E+03  7.89217E+03
 -7.37946E+03  2.30537E+03 -1.15753E+04  8.96601E+03 -8.65795E+03 -3.30276E+03 -2.28218E+03 -8.98047E+03
  3.20378E+03 -1.67339E+03  8.39767E+03 -2.02506E+03  2.41629E+03  2.87073E+03 -1.25600E+03 -1.51642E+03
 -9.78218E+03  8.11883E+03 -2.90567E+03 -4.71647E+03 -3.88582E+02 -1.13033E+04  1.27381E+03 -6.17720E+03
  6.12883E+03 -3.82738E+03  3.82296E+03 -3.76602E+03  9.09844E+02  1.15505E+03  3.72911E+03  4.91928E+03
 -1.77934E+03 -2.72898E+03 -1.31628E+03 -1.42223E+03 -5.80309E+03 -2.68032E+03  8.12302E+03 -5.89148E+03
  1.37592E+04 -3.83794E+03  1.09754E+04  1.21910E+04  8.49600E+03  1.09782E+04  3.18100E+03  1.28433E+04
 -6.51460E+03  6.29402E+03 -5.70617E+03 -4.62240E+03 -7.04775E+03 -2.33158E+03  3.13690E+03 -8.80703E+03
  2.20918E+03 -4.21016E+03  3.53293E+03  3.07692E+03  5.47858E+03  1.61811E+03 -1.59332E+03  3.40915E+03
 -7.91322E+02  5.11158E+03 -1.35956E+03  1.38186E+03  3.55178E+03  6.83476E+03 -4.41393E+03  7.69445E+03
 -3.11340E+03  2.81609E+03 -9.69165E+03  6.82671E+03 -1.11567E+04  1.03967E+02 -1.18641E+04 -8.79821E+03
 -1.52286E+04 -1.25330E+04  2.40066E+03 -1.39074E+04  5.68538E+03 -1.27465E+04  1.39614E+04 -6.74742E+03
  1.94469E+04  7.98385E+03  1.16722E+04  8.34617E+03  1.64749E+03  5.28665E+03 -7.83768E+03  1.56591E+04
 -1.22859E+04  2.35302E+03 -2.53763E+03  4.00047E+02 -4.27202E+03 -4.49852E+03 -4.77824E+03 -1.19105E+03
 -1.99779E+03  4.04660E+03  1.02421E+03 -3.24024E+03 -5.48152E+03  1.48678E+03 -2.63797E+03 -5.93304E+02
  1.41950E+03 -4.39047E+03  2.57007E+03  4.17962E+03  2.90065E+03  5.28249E+03 -2.34862E+02  7.24277E+03
 -1.03885E+03  1.44238E+04 -9.46349E+03  5.61501E+03 -1.17994E+04 -1.29171E+03 -1.10595E+04 -9.01361E+03
 -6.72651E+02 -5.80933E+03  1.25344E+03 -1.06036E+04  4.93876E+03 -6.52538E+03  8.34745E+03  1.47379E+03
 -1.45864E+03  8.40600E+03  2.41826E+03  7.22046E+03 -5.02885E+03 -4.49541E+03 -9.85744E+03 -1.28922E+03
  1.07116E+04 -7.35686E+03 -2.00510E+03 -3.83669E+03  4.71788E+03  2.88011E+03 -3.21827E+02  7.83455E+03
 -9.31987E+03  3.31297E+03 -4.87176E+03 -2.15354E+03 -2.93356E+03  1.70856E+03  3.32968E+03 -2.71647E+03
 -1.97128E+02 -4.77335E+03  6.47173E+03 -1.24920E+03  7.22719E+03  5.58715E+03 -1.01070E+03  4.39291E+03
  5.77032E+03  2.27453E+02 -1.09704E+04  3.53592E+03 -1.82989E+03 -3.20182E+03 -4.36108E+03  1.82321E+03
  1.52434E+03 -1.13859E+03 -1.65393E+03 -4.10471E+03  6.74169E+02  2.38367E+03 -3.29626E+03  1.09848E+02
 -4.15806E+03 -3.14849E+03 -2.20230E+03 -6.04805E+03  4.55315E+03 -3.94998E+03  8.35231E+03 -1.41209E+03
  7.10711E+03  2.15191E+03  7.22894E+03  4.57000E+03 -1.65214E+03  6.25203E+03 -6.57611E+03  3.86742E+03
