 $NMID ID='MM_0lb_SNR50_14hz_g40_74.RAW', FMTDAT='(8E13.5)'
 TRAMP=1., VOLUME=1. $END
  3.10628E+05 -8.46598E+02  3.40272E+05  2.50439E+05  7.95914E+04  3.34855E+05 -1.35566E+05  2.48653E+05
 -1.90731E+05  8.17575E+04 -1.14442E+05 -3.46983E+04  3.63375E+03 -5.58882E+04  5.54260E+04 -3.18050E+02
  3.79119E+04  5.12954E+04 -2.11552E+04  7.53681E+04 -6.36912E+04  6.18907E+04 -8.37644E+04  3.26908E+04
 -8.28120E+04 -8.08073E+03 -5.61763E+04 -5.35245E+04 -1.48201E+04 -7.12152E+04  2.87020E+04 -4.45182E+04
  4.26467E+04  1.83516E+02  1.78929E+04  5.04350E+04 -3.75065E+04  4.33012E+04 -6.60439E+04  2.34337E+03
 -5.73720E+04 -5.93929E+04 -8.35247E+03 -7.73783E+04  3.29406E+04 -5.10591E+04  4.98113E+04 -1.67466E+04
  4.07663E+04  1.34956E+04  3.17743E+04  2.92821E+04  1.50341E+04  2.89762E+04 -4.98118E+03  2.67275E+04
 -2.10608E+04  9.30022E+03 -1.42002E+04 -2.31874E+03  6.57287E+03 -7.86823E+03  2.23559E+04  1.10089E+04
  7.04853E+03  3.80363E+04 -3.38345E+04  3.18612E+04 -5.97525E+04 -5.47569E+03 -5.13391E+04 -4.23806E+04
 -1.39737E+04 -6.47747E+04  3.96226E+04 -4.47758E+04  5.82503E+04 -8.62729E+02  3.29361E+04  3.15953E+04
 -4.14744E+03  3.78453E+04 -2.98188E+04  1.80195E+04 -2.72664E+04 -2.86374E+03 -1.65706E+04 -1.01853E+04
 -1.16897E+04 -1.60725E+04 -5.53053E+03 -1.75021E+04  4.90505E+03 -2.37942E+04  1.51219E+04 -1.27401E+04
  6.09947E+03  8.03203E+03 -1.07066E+04  1.32077E+04 -2.10163E+04 -3.15692E+03 -5.83661E+03 -3.53734E+04
  2.58788E+04 -4.65670E+04  4.80393E+04 -2.03762E+04  4.65199E+04  2.14383E+04  1.73956E+04  4.45288E+04
 -1.53040E+04  3.04450E+04 -2.69034E+04  1.24520E+03 -1.27991E+04 -2.72147E+04  2.00712E+04 -3.35678E+04
  4.49319E+04 -8.16163E+03  3.17121E+04  1.99957E+04  2.00665E+04  4.40223E+04 -4.72539E+03  5.28133E+04
 -2.88283E+04  3.87960E+04 -3.61951E+04  1.05962E+04 -3.93544E+04 -1.54602E+04 -1.87472E+04 -3.60213E+04
  6.25785E+03 -3.66364E+04  3.11203E+04 -1.34808E+04  2.40521E+04  1.29984E+04  4.84002E+03  2.35267E+04
 -1.41154E+04  7.17396E+03 -8.77596E+03 -5.08277E+03  6.57365E+03 -5.36603E+03  1.85817E+04  7.53623E+03
  1.52301E+04  2.22055E+04 -2.08900E+03  2.50253E+04 -2.21479E+04  8.19687E+03 -2.56810E+04 -7.61571E+03
 -2.00777E+04 -1.55234E+04 -5.68308E+03 -1.80667E+04  5.80530E+03 -1.91955E+04  1.60009E+04 -2.12275E+04
  2.41645E+04 -1.65466E+04  2.90971E+04  1.83975E+02  2.78750E+04  1.81058E+04 -1.59573E+03  3.62524E+04
 -1.76007E+04  2.62400E+04 -2.88162E+04  6.01708E+03 -1.87517E+04 -6.61193E+03 -7.76295E+03 -1.65276E+04
  2.08886E+03 -2.97711E+03 -3.63349E+03  3.96171E+03 -1.84684E+04  6.10736E+02 -1.42320E+04 -9.16597E+03
 -1.04724E+04 -1.69879E+04  3.25361E+03 -1.74856E+04  1.59992E+04 -1.61460E+04  1.90204E+04  1.10795E+03
  1.38975E+04  1.01880E+04 -1.16102E+03  2.21250E+04 -1.33289E+04  7.07566E+03 -2.03632E+04 -3.90150E+02
 -1.50295E+04 -1.55088E+04 -2.80796E+03 -2.07374E+04  9.43593E+03 -1.56416E+04  1.82131E+04 -1.15679E+04
  1.75800E+04  8.45548E+02  1.30548E+04  7.24625E+03  5.05929E+03  9.95395E+02  9.68094E+03 -3.35818E+03
  1.26476E+04  4.53301E+03  1.87791E+04  1.12489E+04  1.27725E+04  3.21586E+04 -5.17044E+02  3.24537E+04
 -1.54812E+04  2.58214E+04 -3.12088E+04  1.40718E+04 -3.03617E+04 -1.33440E+03 -2.81542E+04 -2.06149E+04
 -1.51238E+04 -3.08566E+04  8.94352E+03 -2.64289E+04  1.83399E+04 -1.06178E+04  2.15318E+04  7.99777E+03
  3.47386E+03  1.17244E+04 -7.04056E+03  8.48866E+03 -1.56184E+04  6.34385E+03 -9.14534E+03 -9.46693E+03
 -7.36468E+02 -1.66186E+04  4.56653E+03 -1.07405E+04  6.93743E+03 -4.25498E+03 -1.14409E+03  8.34695E+03
 -5.90946E+03  1.56735E+03 -7.74294E+03 -5.29007E+03  1.92331E+03 -1.84594E+04  1.18685E+04 -1.31815E+04
  1.80154E+04 -6.70395E+03  1.58840E+04  4.92748E+03  1.61012E+04  1.59257E+04  6.82323E+03  1.23930E+04
 -6.00037E+03  2.19442E+04 -1.50267E+04  9.93821E+03 -1.30984E+04  5.70686E+03 -1.24577E+04 -5.02227E+03
 -4.61780E+03 -7.86031E+03  8.09083E+02  1.92544E+03 -2.18328E+03  2.16143E+03 -4.16026E+03  9.07007E+03
 -1.43440E+04  2.02622E+03 -1.13539E+04 -1.00329E+04 -5.47524E+03 -1.22540E+04  1.10009E+04 -1.74059E+04
  1.02409E+04 -6.02442E+03  5.08504E+03  4.26997E+03 -3.63799E+02  3.21941E+03 -4.69416E+03  1.30439E+03
 -6.72036E+03 -5.70644E+03 -2.42402E+03 -7.70486E+03  6.67135E+03 -1.49132E+04  1.31369E+04 -3.65660E+03
  1.63931E+04  5.70723E+03  6.65203E+03  9.69023E+03  3.68789E+03  1.25168E+04 -8.30741E+03  1.01998E+04
 -8.69257E+03  3.01068E+03 -5.94515E+03 -7.29086E+03  5.09627E+03 -7.51621E+03  7.74770E+03 -1.82546E+03
  9.58097E+03 -7.93913E+02 -2.00923E+03  8.56156E+03 -4.05705E+03  1.14987E+04 -1.23650E+04  4.83161E+03
 -1.21617E+04 -2.29177E+03 -4.62873E+03 -2.72393E+03  7.45334E+03 -4.45912E+03  6.93255E+03 -1.19764E+03
  5.59359E+03  1.02649E+04 -1.08439E+04  1.12121E+04 -9.32092E+03  4.01026E+03 -6.79159E+03 -5.96314E+03
 -4.95000E+03 -7.97578E+03  1.96826E+03 -1.19753E+04  2.87399E+03 -8.56820E+03  1.09174E+04  3.68789E+03
  1.15654E+03  5.65933E+03  4.21752E+03  1.30873E+04 -1.69945E+03  4.78594E+03 -7.82268E+03 -3.36172E+03
 -6.24942E+03 -1.19724E+04 -3.19164E+03 -4.17976E+03  3.76955E+03 -5.62907E+03  3.31470E+03  3.97739E+02
  3.73322E+03 -2.68283E+03 -1.58568E+03  1.49106E+03 -1.03589E+03 -1.31968E+02  2.56496E+03 -1.11157E+03
  7.04863E+03 -2.06898E+03  9.05588E+03 -1.95178E+03  9.52462E+03  6.68857E+03  2.94008E+03  1.57900E+04
 -4.92135E+02  1.52437E+04 -1.18010E+04  7.14842E+03 -1.30743E+04  2.98759E+03 -1.53989E+04  2.28354E+02
 -8.14000E+03 -1.13835E+04  4.25858E+03 -6.05073E+03  4.99264E+03 -2.41165E+03  3.19174E+03 -2.41608E+03
 -1.88146E+03 -5.66816E+03  2.47966E+03 -2.61043E+02  3.06455E+03 -5.35982E+03  2.36364E+03 -4.82006E+03
  6.82598E+03  4.63111E+03  4.07953E+03  7.22173E+03 -3.68389E+03  3.04558E+03 -7.91711E+03  4.61125E+03
 -1.09500E+04  1.52395E+03 -6.12494E+03 -3.56139E+03 -2.32837E+03 -7.81563E+03  5.13825E+03 -6.37612E+03
  9.44166E+03 -2.80918E+03  4.58051E+03  3.24952E+02  7.06552E+03  4.98552E+03 -5.18802E+02  8.19764E+03
 -4.10738E+03  1.13145E+04 -7.13771E+03  1.74017E+03 -9.45608E+03 -1.00578E+03 -3.35469E+03 -3.51216E+03
  3.30992E+03 -2.20732E+03 -2.09307E+03  1.06470E+03 -1.49969E+03  5.54068E+03 -8.64747E+03  1.13668E+03
 -3.29234E+03 -8.61912E+03 -1.97997E+03 -8.71701E+03  6.84699E+03 -5.27775E+03  8.59682E+03  6.95968E+02
  4.78172E+03  4.41798E+03  3.53584E+03  8.96418E+03 -2.93257E+03  5.01216E+03 -5.91542E+03  7.46220E+03
 -9.40805E+03  1.13597E+03 -7.04937E+03 -6.68494E+03 -3.94667E+03 -1.38399E+04  3.68283E+03  9.71867E+02
  7.38142E+03 -6.07155E+03  5.50212E+03  4.50225E+03  2.20138E+03 -2.67428E+03 -1.53124E+03  3.27461E+03
  3.19292E+03  5.78261E+03 -9.77887E+02  2.07179E+03 -4.09622E+03 -3.74384E+02  3.36200E+03  2.45310E+03
  8.74979E+02 -1.21287E+03 -7.58404E+03  3.62047E+03 -9.65604E+03  4.48069E+03 -6.29121E+03 -2.74261E+03
 -3.86907E+03 -4.57152E+03 -2.25946E+03 -4.49706E+03  7.81112E+03 -2.15006E+03  5.13460E+03  2.43353E+03
  5.95693E+03  3.06460E+03  6.79606E+03  5.91723E+03 -2.08783E+03  2.12842E+03 -4.54643E+03  4.92435E+02
  3.14892E+03 -6.00610E+03  6.03215E+03  1.15463E+03  3.45768E+03 -5.53410E+02  6.31938E+03 -1.45684E+03
  5.23182E+03  5.17872E+03  1.51680E+02  5.39940E+03 -1.32706E+02  2.97179E+03 -6.13152E+02 -1.86092E+03
 -5.29306E+02  4.30321E+02 -1.08311E+03  8.27940E+03  4.89035E+03 -7.65272E+02 -3.25263E+03  1.68271E+03
 -5.66790E+03  7.08381E+02 -1.76060E+03  1.70502E+03 -5.45117E+03  4.19058E+03  1.90315E+03 -6.12966E+03
  7.82608E+02 -7.76394E+03  1.37204E+03  1.55421E+03  1.56465E+03  1.09814E+03 -1.00597E+03  1.26586E+02
 -5.36110E+03  3.03503E+03 -2.46307E+03 -3.08600E+03 -3.51580E+03 -7.46986E+03 -5.91906E+02  5.58127E+02
  5.13658E+02 -4.74852E+03  7.96802E+02 -7.19117E+02  2.01084E+03  1.65655E+03  3.54358E+03  4.16507E+03
 -7.71284E+02 -3.34606E+02 -1.73751E+02 -2.83989E+03  1.87091E+03 -2.74609E+03  2.03188E+03 -5.63655E+03
  3.53891E+03  2.41690E+03  1.69147E+03  1.43797E+03  6.81856E+03  6.49508E+03 -6.06549E+02  1.23902E+02
 -7.13849E+03  7.28930E+02 -1.78497E+03  1.25679E+03  7.61007E+02 -6.33122E+03  4.14419E+02  2.34527E+02
  5.54638E+03  1.55005E+02  2.29134E+03 -1.53352E+03  2.51360E+03  3.59483E+03  1.59794E+03  6.94608E+03
 -2.30439E+03  1.80626E+02 -1.92663E+03  8.51568E+02 -3.08369E+02  3.33301E+03 -2.35285E+03  2.32989E+03
  1.25941E+03 -1.69788E+03 -2.16827E+03 -2.11245E+03 -1.48747E+03 -7.71033E+02 -5.86534E+03 -8.59106E+02
 -3.03259E+03 -2.46154E+03 -2.75077E+03 -1.08022E+04  5.82077E+02 -6.53120E+03  6.58511E+02 -1.98403E+03
  2.76648E+03 -1.58968E+03  2.01504E+03  1.45355E+03  5.10127E+03  2.19771E+03 -2.22482E+03  3.69578E+03
 -4.63157E+03  2.59108E+03 -2.85571E+03 -1.31114E+03 -1.66124E+03  5.30298E+03 -3.66147E+02  1.30066E+03
 -8.19054E+02  4.48353E+03  4.87701E+02  3.64009E+02  1.68438E+03 -1.39432E+03  9.87632E+01 -1.44183E+02
  2.51934E+03 -3.13806E+03  6.86204E+03  4.34099E+03  3.95730E+03  4.91593E+02  9.18955E+02 -6.52429E+02
 -4.42685E+03  3.26131E+03 -7.63520E+03  4.37130E+03 -2.79388E+03 -3.03307E+03  1.03391E+02  1.20405E+03
 -3.67544E+03 -8.79265E+02 -2.95718E+03 -4.55143E+03  2.99187E+03 -2.16695E+03  2.19325E+03  2.51641E+02
 -8.70980E+02 -9.37276E+02 -2.42519E+02 -7.78547E+02  3.29228E+03  3.92219E+03 -2.14118E+03 -3.51400E+03
  3.31802E+03  9.75612E+02 -1.30881E+03  3.89059E+03  3.62660E+03  3.90973E+03  1.09880E+03  1.33807E+03
 -2.62285E+03  7.35885E+01 -2.72702E+03  3.47017E+03 -4.33695E+03 -1.58407E+03 -5.10065E+03 -6.10309E+03
  5.51982E+03 -1.60175E+03 -1.44542E+03  2.72443E+03 -1.21365E+03  1.32362E+03  2.33293E+03 -1.23360E+03
  1.99069E+03  4.64093E+03 -9.94693E+02  1.42707E+03 -3.42021E+02  8.00045E+01 -3.93072E+03 -3.37108E+02
 -1.74683E+03  1.42361E+03  4.92983E+03  2.93722E+03  2.20839E+03  1.20032E+03  8.97167E+01  1.58710E+03
 -2.31310E+03 -1.33691E+03 -1.41409E+03 -1.30461E+03  4.93126E+03 -9.36495E+03  1.70380E+03 -6.60535E+03
 -8.07589E+02  5.57225E+03 -3.55240E+03 -4.95319E+02 -4.33689E+03 -3.44672E+03  3.04163E+03 -9.88491E+02
