 $NMID ID='MM_0lb_SNR50_9hz_g60_3.RAW', FMTDAT='(8E13.5)'
 TRAMP=1., VOLUME=1. $END
  3.08095E+05  1.98312E+03  3.41426E+05  2.43210E+05  9.01346E+04  3.39561E+05 -1.31415E+05  2.52111E+05
 -1.92817E+05  8.26993E+04 -1.09995E+05 -3.53544E+04 -3.48781E+03 -5.26218E+04  4.77447E+04 -6.24122E+03
  2.96173E+04  5.26557E+04 -1.63433E+04  7.79771E+04 -5.45144E+04  7.26027E+04 -8.21699E+04  2.69230E+04
 -8.21040E+04 -1.01444E+04 -4.89756E+04 -5.39261E+04 -1.14264E+04 -7.86907E+04  2.87090E+04 -4.50270E+04
  3.97628E+04  4.08715E+03  1.45331E+04  4.79367E+04 -3.29705E+04  4.46455E+04 -6.81228E+04  1.83721E+03
 -6.06256E+04 -5.96645E+04 -7.57753E+03 -8.08704E+04  3.64504E+04 -5.16822E+04  5.21260E+04 -2.03809E+04
  4.54783E+04  8.45955E+03  3.84414E+04  2.68463E+04  1.63385E+04  2.74830E+04 -1.03488E+04  3.50497E+04
 -2.47773E+04  1.19679E+04 -1.74506E+04 -4.22633E+03  5.75961E+03 -9.84833E+03  2.45850E+04  1.10981E+04
  1.38355E+04  3.94209E+04 -3.24184E+04  3.72466E+04 -6.57364E+04 -4.86707E+03 -5.55481E+04 -3.18532E+04
 -1.33627E+04 -6.55125E+04  4.68091E+04 -5.15597E+04  6.27618E+04 -5.31353E+03  3.80957E+04  3.98417E+04
 -3.94188E+03  4.45896E+04 -2.72648E+04  1.94910E+04 -3.66875E+04 -1.14945E+03 -1.75983E+04 -1.08560E+04
 -9.41282E+03 -2.33599E+04 -5.62135E+03 -2.03264E+04  7.85780E+03 -2.87667E+04  1.89356E+04 -1.55774E+04
  8.54107E+03  1.30076E+04 -1.07592E+04  9.39538E+03 -2.43331E+04 -1.03649E+04 -6.90529E+03 -3.81468E+04
  2.64939E+04 -4.53692E+04  5.23842E+04 -2.41641E+04  5.46491E+04  1.57212E+04  1.93318E+04  5.26478E+04
 -1.45815E+04  3.32660E+04 -2.04733E+04  2.66834E+03 -8.09652E+03 -2.77699E+04  2.65104E+04 -4.70713E+04
  3.99172E+04 -9.07176E+03  4.18992E+04  2.73935E+04  2.22077E+04  4.74397E+04 -7.66177E+03  5.85467E+04
 -4.22009E+04  4.63872E+04 -4.98644E+04  4.61733E+03 -4.29612E+04 -2.23648E+04 -1.96029E+04 -4.08712E+04
  9.44340E+03 -4.92317E+04  3.99640E+04 -1.87567E+04  3.36629E+04  1.29614E+04  2.14033E+03  2.28576E+04
 -1.09803E+04  1.07154E+04 -1.33212E+04 -2.29599E+03  2.75113E+03 -1.58215E+04  1.82394E+04  5.16668E+03
  1.36247E+04  2.40390E+04 -4.48818E+03  2.58712E+04 -2.21139E+04  1.51455E+04 -3.22505E+04 -1.72093E+03
 -2.76881E+04 -1.34699E+04 -1.14263E+04 -2.39840E+04  5.72527E+03 -2.73765E+04  2.02598E+04 -2.01665E+04
  3.23816E+04 -1.23118E+04  4.30120E+04  6.39651E+03  3.06898E+04  2.84229E+04  5.34103E+03  4.15841E+04
 -2.37397E+04  3.44808E+04 -2.94223E+04  1.24092E+04 -1.36819E+04 -9.53781E+03 -6.62515E+03 -1.29292E+04
 -2.47349E+03 -5.60628E+03 -7.47792E+03  1.02003E+04 -1.95047E+04  4.37469E+03 -2.25962E+04 -9.06899E+03
 -7.36642E+03 -2.40839E+04  3.96537E+03 -2.48915E+04  1.91663E+04 -1.95036E+04  2.32402E+04 -2.87173E+03
  1.63674E+04  1.80441E+04  1.29986E+03  2.88666E+04 -1.46160E+04  1.91249E+04 -2.15313E+04 -1.62284E+03
 -1.68276E+04 -2.21081E+04 -4.55149E+03 -2.90144E+04  1.88740E+04 -2.48149E+04  3.29531E+04 -8.75481E+03
  2.47533E+04  4.66037E+03  1.65394E+04  8.81598E+03  9.12041E+03 -5.11349E+03  7.16998E+03 -4.93233E+03
  2.79442E+04 -3.18634E+03  2.74011E+04  1.75659E+04  1.72993E+04  4.14198E+04 -5.07166E+03  5.07416E+04
 -2.66331E+04  3.76835E+04 -3.67981E+04  2.59716E+04 -4.88338E+04 -6.30641E+03 -3.41009E+04 -2.78674E+04
 -1.50919E+04 -3.85524E+04  1.41949E+04 -2.74170E+04  3.26815E+04 -1.98572E+04  2.71980E+04  8.99281E+03
  5.28402E+03  2.43922E+04 -1.93911E+04  2.10719E+04 -2.16331E+04  2.38591E+03 -1.13995E+04 -1.23034E+04
 -4.14261E+02 -1.78645E+04  7.27462E+03 -1.43347E+04  9.70952E+03 -6.13774E+02  7.56903E+03  1.35085E+04
 -1.22818E+04  6.81794E+03 -1.08942E+04 -1.25588E+04  2.18237E+03 -1.51544E+04  9.13572E+03 -1.81006E+04
  2.04646E+04 -1.08716E+04  2.74536E+04  1.25511E+03  2.30540E+04  1.98350E+04  1.03639E+04  2.88086E+04
 -9.29905E+03  3.53587E+04 -2.68150E+04  2.12582E+04 -1.89018E+04  2.92189E+03 -1.42150E+04 -4.37481E+03
 -7.81712E+03 -6.26762E+03  1.83139E+03  7.17560E+03 -3.35661E+03  2.11743E+03 -1.02336E+04  8.16740E+03
 -1.08748E+04 -4.47785E+03 -1.49216E+04 -9.16919E+03 -1.04172E+04 -1.32750E+04  1.15079E+04 -1.74344E+04
  9.15406E+03 -1.05080E+04  8.64686E+03  6.87989E+02  1.29012E+03  9.44076E+03 -1.35974E+04 -6.73096E+03
 -8.79027E+02 -6.35725E+03 -3.65073E+03 -1.56111E+04  1.09124E+04 -2.09232E+04  2.86945E+04 -6.56798E+03
  2.35783E+04  5.57034E+03  1.86933E+04  1.46442E+04  5.06822E+03  2.37954E+04 -1.63885E+04  1.59809E+04
 -1.20761E+04  9.66327E+03 -9.70784E+03 -6.14311E+03  4.16368E+02 -3.03184E+03  8.99404E+03  7.18993E+03
  1.11960E+04  1.31047E+04  4.12225E+03  1.47511E+04 -1.38117E+04  2.02688E+04 -2.15244E+04  1.67587E+03
 -8.66012E+03 -6.71812E+03 -8.27789E+02 -1.60073E+04  7.57310E+03 -9.46193E+03  1.36566E+04  1.70301E+03
 -6.62394E+03  2.00113E+04 -8.68673E+03  1.63002E+04 -1.60223E+04  1.69766E+04 -6.45974E+03 -1.20390E+04
 -1.53889E+04 -2.23147E+04 -4.52907E+03 -2.13758E+04  1.18352E+04 -1.01164E+04  1.72586E+04  7.02181E+03
  8.14805E+03  7.24609E+03 -2.81357E+02  1.41751E+04 -1.34192E+04  1.55667E+04 -1.56994E+04 -6.03771E+03
 -1.01108E+04 -1.11919E+04 -1.18192E+03 -1.41931E+04  6.04936E+03 -5.89299E+03  1.27443E+04 -4.60298E+03
  7.55988E+03  4.90205E+03  3.53362E+03 -1.08514E+03 -4.34731E+03 -1.84361E+02  4.04063E+02 -4.95476E+03
  8.00115E+03 -3.85787E+03  1.84751E+04  4.58063E+03  1.77902E+04  1.32885E+04  1.68378E+04  2.98433E+04
 -2.02361E+03  2.16956E+04 -1.93400E+04  1.29862E+04 -3.55158E+04  1.08058E+03 -2.68382E+04 -1.54359E+04
 -1.52928E+04 -2.17981E+04  2.04755E+03 -1.82646E+04  4.81248E+03 -4.55834E+03  8.86202E+03 -5.31506E+03
 -5.52095E+02 -6.88811E+03  8.08056E+03 -3.04502E+03  7.47235E+03 -1.41848E+03  5.89981E+03 -4.34029E+03
  7.63764E+03  3.28491E+03  6.92820E+03  1.01998E+04  6.14605E+03  1.71913E+04 -1.49194E+04  1.54352E+04
 -1.38304E+04 -8.96069E+02 -1.16001E+04 -1.15004E+04 -3.72754E+03 -1.73230E+04  7.09930E+03 -1.43523E+04
  1.54018E+04 -1.66723E+04  1.64537E+04  5.56104E+03  1.69933E+04  1.61915E+04  2.09561E+02  1.95384E+04
 -1.23712E+04  2.31580E+04 -1.17841E+04  3.52801E+03 -1.72731E+03 -8.26816E+03 -5.51781E+03 -4.27723E+03
 -6.64404E+03  4.48570E+03 -6.30520E+03 -3.89754E+03 -8.08464E+03  5.54166E+03 -1.20122E+04 -3.91489E+03
 -7.51577E+03 -1.18247E+04  9.67212E+02 -1.71745E+04  8.44354E+03 -8.27349E+03  1.06312E+04  7.49517E+02
  1.68649E+04  8.40313E+03  6.37313E+03  8.40084E+03 -5.57999E+03  1.86824E+04 -1.34376E+04  1.12504E+04
 -1.85809E+04  5.23904E+01 -1.53844E+04 -6.38662E+03  7.80124E+02 -1.22758E+04  4.24398E+03 -1.36980E+04
  1.27623E+04 -4.88539E+03  9.07018E+03  3.17304E+03  6.63923E+03  5.44574E+02  2.84800E+03  4.11966E+03
  3.25191E+03  3.78021E+03  2.95194E+03 -2.08378E+03  5.98497E+03  5.58689E+03  3.32202E+03  4.72296E+03
 -2.32543E+03  7.65312E+03 -1.13428E+04  1.52575E+04 -1.97394E+04 -1.13082E+03 -2.58003E+04 -8.63361E+03
 -2.12563E+03 -1.78897E+04  4.24695E+03 -1.61968E+04  8.65742E+03 -1.28127E+04  1.29075E+04 -3.97360E+03
  1.24813E+04  4.13796E+03  3.86763E+03  5.67532E+03 -7.95729E+03  7.03772E+03 -4.59209E+03 -5.28942E+03
  1.54383E+03 -1.70630E+03  2.59549E+03 -5.37730E+03  5.10028E+02 -2.05281E+03  9.30641E+03  7.68330E+03
  3.49638E+03 -1.42446E+03  4.27761E+03  1.66718E+03 -1.38425E+03  5.37703E+03  9.73096E+02 -4.39513E+03
  4.90649E+03 -6.89846E+03  4.84687E+03  1.37939E+03 -9.99664E+01  1.15795E+04 -5.46001E+03  1.03268E+04
 -5.51090E+03  6.53470E+03 -1.06901E+04  1.06132E+03 -1.94760E+03 -4.76068E+03  1.78046E+03 -4.37957E+03
  6.94385E+03 -6.69385E+03  5.56979E+03 -2.33310E+03  2.66593E+03  4.38205E+03 -6.14824E+03  1.21943E+04
 -3.52094E+03  1.57820E+03 -4.99177E+03 -2.60036E+03 -4.81532E+03 -1.15852E+04  5.35343E+03 -1.41859E+04
  5.09816E+03 -8.32541E+03  2.60466E+03  2.21269E+03 -6.70276E+00  1.92763E+03 -6.17345E+02  6.64812E+03
 -4.29859E+03  3.52873E+03 -4.73807E+03 -1.54587E+03  3.34897E+03 -2.41363E+02  9.33772E+03 -9.48584E+03
  1.22091E+04 -5.73165E+03  2.30261E+03  1.01567E+04  7.46299E+03  1.02232E+04 -9.15159E+03  1.66925E+04
 -7.48722E+03  3.01098E+03 -5.47115E+03 -3.69594E+03 -2.71241E+03 -4.72487E+03  2.52311E+03 -1.21459E+04
  6.89846E+03 -6.80751E+03  9.54442E+03  6.88000E+02 -1.27193E+03  5.23390E+03 -7.10661E+03  7.68796E+03
 -2.97036E+03  1.78541E+03 -2.80408E+03  3.92665E+03 -1.27457E+03 -2.77925E+02 -3.29889E+03  1.10815E+04
  4.74246E+02  2.55711E+02 -2.48196E+03  9.03665E+03 -8.74369E+03 -2.21390E+03 -1.25286E+04 -7.02514E+03
 -8.24874E+03 -1.43809E+04  3.65330E+03 -1.87994E+04  4.84661E+03 -1.52341E+04  1.25855E+04 -6.88477E+03
  9.14340E+03  4.96825E+03  8.96569E+03  7.77624E+02  5.30050E+03  1.40930E+04 -7.88200E+03  5.24910E+03
 -9.72872E+02 -1.99418E+03  3.06889E+03 -1.01227E+04  7.47024E+02  5.45415E+03 -4.72134E+03  2.27992E+03
 -2.76409E+03 -3.40340E+03 -3.35106E+02  6.35915E+02 -7.54920E+03 -2.93006E+03  2.95081E+03 -6.09191E+03
  6.10062E+03 -3.48361E+03  4.39924E+03  2.57718E+03  1.61966E+03  8.38874E+03 -6.79524E+02  1.20212E+04
 -6.17807E+03  9.95684E+03 -5.86464E+03  6.19022E+03 -1.57683E+04  4.08122E+03 -1.09082E+04 -9.89746E+03
 -7.61308E+03 -1.51110E+04  8.24748E+03 -1.00769E+04  6.30310E+03 -2.54007E+03  7.97889E+03  2.74801E+03
  1.12981E+03  6.36304E+03  9.52565E+03  1.35805E+03 -3.33357E+03  1.90316E+03 -5.46119E+02 -2.65168E+02
  3.21522E+03 -3.55697E+03  5.48836E+03  1.19357E+03 -1.57761E+03  8.62377E+02 -1.72232E+03  9.67442E+02
 -9.70339E+03  5.61374E+03 -8.97421E+03 -2.60156E+02 -1.18346E+04 -6.73315E+03 -8.48346E+02 -1.29027E+04
  3.29798E+03 -1.17921E+04  2.53666E+03 -5.02529E+03  7.90008E+03  7.32213E+03  5.10906E+03  8.72114E+03
  2.91283E+02  5.53525E+03 -5.51666E+03  5.11045E+03 -6.97713E+03  2.71588E+03 -7.24213E+03  3.30176E+03
 -3.12805E+03  1.88257E+03  6.54939E+03  7.83313E+02 -3.64603E+03  4.68332E+03 -8.04183E+03  3.46709E+03
 -9.32118E+03 -8.00285E+03 -7.35517E+03 -3.06284E+03  6.20697E+03 -6.31139E+03  5.30598E+03 -9.72695E+03
  5.61565E+03 -4.46205E+02  5.09915E+03  4.99691E+03  1.49501E+03  5.29218E+03 -1.52294E+04  7.32313E+03
