 $NMID ID='MM_0lb_SNR50_10hz_g45_43.RAW', FMTDAT='(8E13.5)'
 TRAMP=1., VOLUME=1. $END
  3.16545E+05  2.15364E+03  3.39544E+05  2.47073E+05  8.23297E+04  3.37580E+05 -1.34676E+05  2.54214E+05
 -1.86784E+05  8.33318E+04 -1.09689E+05 -3.10056E+04  6.35836E+02 -5.40854E+04  5.91597E+04 -2.51526E+03
  3.29840E+04  4.87907E+04 -1.14545E+04  7.32535E+04 -6.18909E+04  6.89117E+04 -8.69186E+04  3.86124E+04
 -8.17528E+04 -1.09569E+04 -5.92978E+04 -5.10546E+04 -1.59664E+04 -7.13927E+04  2.89808E+04 -4.60938E+04
  4.21031E+04  3.93684E+03  1.09095E+04  4.57233E+04 -3.70818E+04  5.08239E+04 -6.82102E+04  9.21889E+02
 -5.04620E+04 -6.03002E+04 -7.06683E+03 -7.85676E+04  3.73992E+04 -4.90538E+04  4.88838E+04 -1.71852E+04
  4.85572E+04  8.22759E+03  3.57347E+04  2.45144E+04  1.72761E+04  2.39796E+04 -7.10104E+03  2.93552E+04
 -2.47520E+04  1.38159E+04 -1.92548E+04 -9.72289E+03  8.54698E+03 -6.74439E+03  1.43769E+04  1.67019E+04
  8.27800E+03  3.22767E+04 -3.43406E+04  3.85948E+04 -6.47153E+04  8.18540E+02 -5.85813E+04 -4.52230E+04
 -7.69668E+03 -6.62061E+04  4.41249E+04 -4.36787E+04  5.91428E+04  5.05689E+03  3.24248E+04  3.07693E+04
 -3.59669E+03  3.51379E+04 -3.11165E+04  1.63177E+04 -3.34459E+04 -4.47685E+03 -2.11565E+04 -1.02487E+04
 -3.75397E+03 -1.71949E+04 -3.96684E+03 -2.37878E+04  1.07714E+04 -1.87323E+04  1.50631E+04 -1.61422E+04
  1.10247E+04  6.17250E+03 -1.02218E+04  1.36071E+04 -1.48471E+04 -3.18214E+03 -1.03229E+04 -3.79406E+04
  2.48880E+04 -4.62386E+04  5.07560E+04 -2.23911E+04  4.36247E+04  1.57852E+04  1.54053E+04  4.89050E+04
 -1.89856E+04  3.21504E+04 -2.53373E+04  1.43284E+03 -1.50222E+04 -2.89119E+04  2.57046E+04 -3.04213E+04
  4.60564E+04 -1.20265E+04  3.79883E+04  2.35615E+04  2.25858E+04  4.76686E+04 -1.25368E+04  5.82217E+04
 -3.27648E+04  3.95793E+04 -4.75923E+04  1.42097E+04 -4.65438E+04 -2.26490E+04 -2.54579E+04 -3.96791E+04
  8.20944E+03 -3.69078E+04  3.24653E+04 -1.63291E+04  2.84112E+04  9.82402E+03  3.47912E+03  1.78345E+04
 -1.27582E+04  7.65062E+03 -1.41229E+04 -1.57630E+03 -7.65525E+02 -1.10969E+04  2.42258E+04  9.17165E+03
  1.59504E+04  2.91930E+04 -1.04375E+04  2.50566E+04 -1.77054E+04  9.19712E+03 -3.53232E+04 -7.09852E+03
 -2.46198E+04 -1.44540E+04 -9.29564E+03 -2.75175E+04  7.63729E+03 -1.48209E+04  2.23837E+04 -1.67985E+04
  2.55326E+04 -1.78934E+04  4.19259E+04  5.46238E+03  2.68249E+04  2.21957E+04  5.48932E+03  3.83041E+04
 -1.73352E+04  2.84488E+04 -2.84140E+04  1.66073E+04 -2.21223E+04 -6.12214E+03 -3.91545E+03 -8.21290E+03
 -1.68715E+03  1.28845E+03 -1.21476E+04  1.00438E+04 -1.93554E+04  6.51840E+03 -1.51656E+04 -9.18556E+03
 -7.78857E+03 -2.32839E+04  6.17187E+03 -2.11709E+04  1.85005E+04 -1.77671E+04  1.92108E+04  2.11278E+03
  1.31122E+04  1.24624E+04  1.84234E+03  2.09115E+04 -1.86435E+04  1.50346E+04 -2.47250E+04  4.58130E+02
 -1.76219E+04 -1.61874E+04 -6.44421E+03 -2.63990E+04  1.43383E+04 -2.37586E+04  2.00876E+04 -1.36983E+04
  2.44652E+04 -4.75155E+03  1.64229E+04  1.13417E+04  6.81380E+03  1.10375E+03  7.72280E+03 -1.60377E+03
  1.87975E+04  3.02798E+03  2.48091E+04  1.51128E+04  1.96062E+04  3.13295E+04 -1.51385E+03  5.00721E+04
 -2.16075E+04  3.45921E+04 -3.86145E+04  1.99657E+04 -3.81475E+04  1.43232E+03 -4.24455E+04 -2.27526E+04
 -1.35896E+04 -2.71623E+04  1.01888E+04 -2.54917E+04  2.03436E+04 -1.55098E+04  2.27316E+04  1.62500E+03
  8.06258E+03  1.04520E+04 -1.43827E+04  1.67425E+04 -1.47504E+04  2.38786E+02 -1.31210E+04 -9.61758E+03
  1.16943E+02 -2.14566E+04  1.20772E+04 -1.22026E+04  1.49193E+04  3.89295E+02  8.04319E+03  9.20864E+03
 -1.35259E+04  2.85929E+03 -4.72732E+03 -9.76792E+03 -1.61807E+02 -1.94159E+04  1.43030E+04 -2.05685E+04
  1.78720E+04 -1.31630E+04  2.31994E+04  1.16857E+03  2.00180E+04  1.12985E+04  6.18229E+03  2.08909E+04
 -8.11236E+03  1.94412E+04 -2.14688E+04  2.03909E+04 -2.11679E+04  1.19289E+04 -1.77566E+04 -6.28960E+03
 -6.76643E+03 -2.07024E+03  2.34019E+03 -2.89145E+03 -3.78343E+03  6.43501E+02 -6.09967E+03  4.74036E+03
 -1.49880E+04 -1.89923E+03 -7.50048E+03 -1.24597E+04 -2.52404E+03 -1.58768E+04  9.44337E+03 -1.55239E+04
  1.09746E+04 -7.15804E+03  7.67579E+03  6.12692E+03 -2.89057E+03  2.67956E+03 -5.55698E+03 -5.47021E+02
 -9.09754E+03 -9.58360E+03 -3.58316E+03 -1.55155E+04  1.07463E+04 -1.58629E+04  2.14295E+04 -6.45920E+03
  2.46594E+04 -1.65727E+03  1.03829E+04  1.49890E+04  4.32949E+02  2.18726E+04 -6.70004E+03  1.38765E+04
 -1.68577E+04  6.07011E+03 -6.36826E+03 -3.83053E+03  6.54152E+03  2.96951E+02  3.54386E+03 -1.25142E+03
  6.18514E+03  7.11539E+03 -6.34928E+03  9.78468E+03 -5.76088E+03  1.04622E+04 -1.42138E+04  4.26091E+03
 -9.71408E+03 -9.37549E+03 -2.97624E+03 -1.09931E+04  3.58745E+03 -1.05974E+04  1.77195E+04  6.50993E+03
  2.30659E+03  1.36155E+04 -4.46578E+03  1.40413E+04 -1.03802E+04  5.19000E+03 -1.22623E+04 -5.35670E+03
 -6.11860E+03 -1.20458E+04  1.64914E+03 -1.22839E+04  1.31451E+04 -1.10346E+04  1.37832E+04  7.24542E+03
  7.41102E+03  8.02864E+03 -2.93337E+02  1.19222E+04 -1.46509E+04  1.47544E+04 -1.11971E+04 -1.15192E+03
 -9.49113E+03 -8.88168E+03 -5.12151E+03 -7.90604E+03  5.80511E+03 -1.46772E+04  7.80941E+03 -1.95001E+03
  6.43632E+03  2.85380E+03  1.02813E+03  2.00085E+03 -1.63609E+03 -1.21898E+02  1.09393E+03 -2.68991E+03
  1.10740E+04  6.07029E+02  1.87740E+04  1.18730E+03  1.66397E+04  8.01493E+03  1.05476E+04  2.06488E+04
  2.67509E+03  2.39539E+04 -1.63956E+04  2.01636E+04 -1.80628E+04  5.63575E+03 -1.42902E+04 -4.46695E+03
 -9.63561E+03 -1.47767E+04  3.89412E+03 -1.14851E+04  1.00716E+04 -1.66521E+03  5.60158E+03 -4.61091E+03
  3.83392E+03 -5.92828E+03 -1.19448E+03 -3.06922E+03  4.72881E+03 -3.24313E+03  3.65523E+03  3.02772E+03
  6.56219E+03  6.25859E+03  4.74346E+02  1.03659E+04 -3.21410E+03  6.28443E+03 -5.14518E+03  1.03552E+04
 -1.56351E+04 -1.62528E+03 -1.39002E+04 -8.93519E+03 -1.07956E+03 -1.46716E+04  4.21499E+03 -1.41421E+04
  1.81322E+04 -3.29596E+03  1.26637E+04 -2.79595E+03  1.28109E+04  1.47550E+04  4.03274E+03  7.37140E+03
 -4.23090E+03  9.34226E+03 -1.05360E+04  4.26867E+03 -6.04014E+03 -2.72232E+03 -9.22147E+02 -1.23285E+03
  5.63388E+03  2.66213E+02  8.76061E+02  1.79723E+03 -6.37962E+03  8.59952E+03 -7.05127E+03 -2.26506E+03
 -8.19284E+03 -5.89906E+03  2.22917E+03 -1.32128E+04  8.14337E+03 -1.38210E+04  9.84008E+03 -4.18526E+03
  7.06718E+03  7.77529E+03 -9.31305E+02  1.27074E+04 -4.25371E+03  1.19206E+04 -6.10241E+03  8.50860E+03
 -1.54569E+04 -1.17661E+03 -8.79111E+03 -9.71756E+03  2.15816E+03 -1.50892E+04  5.50291E+03 -8.21960E+03
  5.77039E+03 -5.24217E+03  1.94011E+03 -2.76952E+03  8.89533E+03  7.45548E+03 -1.79386E+02  3.47708E+03
 -1.48286E+03 -1.21020E+03  1.27218E+04 -7.59555E+01  2.67513E+03  8.82045E+03  2.54085E+03  6.97675E+02
 -4.09816E+02  9.30500E+03 -8.81928E+03  9.93819E+03 -1.04566E+04  2.04998E+03 -7.68096E+03 -5.36015E+03
 -1.11195E+04 -4.64131E+03  5.57868E+02 -1.55669E+04  5.36127E+03 -7.76832E+03  3.77554E+03 -3.40752E+03
  8.60877E+03  4.82094E+03 -1.97329E+03  1.06618E+04 -1.91691E+03  4.72947E+03  2.22567E+03  1.95328E+03
  9.92968E+02 -6.86439E+03  4.99798E+03  2.66871E+03  7.53702E+03  9.37943E+02  8.23123E+03 -1.49321E+03
  1.14684E+03  2.83255E+03  1.38626E+03  2.70154E+03  2.29814E+03  3.81511E+03  3.44313E+02  3.09905E+03
  3.28461E+03 -3.71201E+02  6.58561E+03 -3.53797E+02  1.23277E+03  8.77852E+03 -4.17910E+03  3.35951E+03
 -1.04461E+04  1.24989E+03 -5.71162E+03 -2.27577E+02 -8.64706E+03  6.34311E+02  4.31237E+02 -7.83309E+02
  4.57741E+03 -5.95583E+03  1.49325E+03 -5.44822E+03 -3.21432E+03 -2.66211E+03 -1.27148E+03 -1.83216E+03
 -5.31881E+03  6.04428E+03 -2.15072E+03 -8.16044E+03 -5.33685E+03 -1.21250E+04 -4.13959E+02 -6.36938E+03
 -8.16546E+02 -1.51709E+03  7.87950E+03 -5.72306E+03  6.21143E+03  3.72066E+03 -6.29570E+02  7.21025E+03
 -3.35479E+03  5.98521E+03 -3.53279E+03  1.91931E+03  8.45118E+03 -5.80618E+03  1.10743E+04  6.55904E+03
  8.12734E+03  1.47779E+03  1.09733E+04  5.03963E+03  5.52423E+03  1.13297E+04  2.64254E+02  3.18934E+03
 -3.86343E+03  2.77023E+03 -4.26583E+03  9.07022E+02  9.29000E+02 -4.37124E+03  1.81861E+03  1.42542E+02
  5.23033E+02 -7.79167E+03 -1.96551E+03  5.64019E+03  4.22590E+03  1.24938E+03  7.77365E+02  2.01336E+03
  1.15733E+03  1.10014E+03 -1.25458E+03 -3.73330E+03  3.21931E+03 -4.17202E+03 -6.58391E+03  3.06283E+03
  5.13336E+03  5.14023E+03 -6.53209E+03 -2.90540E+03 -8.70592E+03 -6.37582E+03 -6.66164E+03 -8.45394E+03
 -4.75308E+03 -1.23645E+04  7.00889E+03 -1.60380E+04  9.43075E+03 -1.18508E+04  1.48653E+04  1.01182E+02
  1.42872E+04  1.60001E+02  8.09931E+03  1.28237E+04 -1.33333E+03  1.50774E+04 -3.66805E+03  3.92641E+03
 -8.96866E+03  9.94675E+03 -3.50188E+03 -1.67182E+03 -3.50751E+02  2.12542E+02 -4.11151E+03 -5.16586E+03
 -4.95783E+03  7.34927E+03 -1.13152E+03  4.40498E+03 -3.60992E+03  1.87795E+02  5.91775E+02 -6.73466E+03
  6.24266E+03 -1.23791E+03  3.15399E+03  1.70369E+03  8.32039E+03 -1.40025E+03  4.59210E+03  9.70154E+03
 -1.89049E+03  1.11590E+04 -1.12717E+04  5.33426E+03 -7.94318E+03 -6.04882E+02 -5.36865E+03 -5.44444E+03
  3.29514E+02 -9.03760E+03  4.30529E+03 -5.64466E+03  7.72809E+03 -5.36319E+03  4.54077E+03  2.69774E+03
  1.54247E+03  2.82499E+03 -1.68439E+03  1.87105E+03 -4.33799E+03 -1.39364E+03  1.69856E+03 -7.90057E+02
  3.47561E+03 -7.87537E+03  4.66161E+03  1.41649E+02 -2.27034E+03  4.76346E+03  5.50862E+03  5.07115E+03
 -6.61720E+03  1.83168E+03 -7.97710E+03 -4.27804E+03 -9.03676E+03  1.03371E+03 -2.27234E+03 -1.16464E+04
  3.74484E+03 -2.62726E+03  3.97366E+03  3.11361E+03  6.34446E+03  6.18658E+01  6.98891E+03  2.98735E+03
 -6.05756E+03  1.51351E+03 -2.13019E+03  8.50527E+03 -4.47153E+03  3.68532E+03 -2.34575E+02  5.18498E+03
  4.56758E+03  3.95929E+02  1.65118E+03 -3.60134E+03  1.96969E+02  3.02821E+03 -1.98829E+03 -3.09386E+03
 -1.02895E+04 -6.36611E+03 -3.47096E+03 -8.87938E+03 -4.05287E+03 -7.35112E+03 -2.90278E+02 -3.33426E+03
  2.24754E+03  2.44969E+03  1.53919E+03  7.68752E+03  2.91161E+03  6.46487E+03 -8.25716E+03  5.82314E+03
