 $NMID ID='MM_0lb_SNR50_16hz_g55_70.RAW', FMTDAT='(8E13.5)'
 TRAMP=1., VOLUME=1. $END
  3.12028E+05 -5.01990E+01  3.33707E+05  2.50945E+05  8.17687E+04  3.36844E+05 -1.33674E+05  2.50398E+05
 -1.86866E+05  7.89436E+04 -1.13384E+05 -3.89078E+04  2.61693E+03 -5.13201E+04  5.34083E+04 -3.48216E+03
  3.46716E+04  5.66212E+04 -1.82281E+04  7.33088E+04 -5.64341E+04  6.51938E+04 -8.11357E+04  3.21159E+04
 -8.07515E+04 -1.21620E+04 -5.60855E+04 -4.83240E+04 -1.51894E+04 -6.59600E+04  2.31283E+04 -4.55122E+04
  3.63156E+04 -2.63280E+02  1.91280E+04  4.29903E+04 -3.52685E+04  5.02570E+04 -6.47963E+04 -4.69030E+03
 -5.75177E+04 -5.26733E+04 -7.71940E+03 -8.05028E+04  3.70441E+04 -5.42607E+04  5.02114E+04 -2.06450E+04
  4.10297E+04  1.54873E+04  2.77694E+04  2.30756E+04  1.98558E+04  3.31097E+04 -1.00250E+04  2.45533E+04
 -2.13390E+04  1.24397E+04 -1.73671E+04 -5.10815E+03  3.62411E+03 -7.64934E+03  2.09287E+04  9.39635E+03
  3.88251E+03  3.51468E+04 -3.35339E+04  3.59866E+04 -6.41982E+04  7.62306E+03 -5.39002E+04 -4.34559E+04
 -1.81392E+04 -6.29044E+04  3.75544E+04 -4.27346E+04  5.49674E+04 -3.67380E+03  3.34771E+04  3.07140E+04
 -7.17893E+03  3.90820E+04 -3.18395E+04  1.55645E+04 -2.92942E+04 -7.33262E+03 -1.62318E+04 -1.18797E+04
 -5.94023E+03 -1.54651E+04 -5.48544E+03 -1.31927E+04  7.93523E+03 -2.11742E+04  1.69211E+04 -7.51142E+03
  1.13340E+04  5.20858E+03 -3.37839E+03  7.87082E+03 -1.55675E+04 -5.96113E+03 -8.00167E+03 -2.74354E+04
  1.75364E+04 -4.78592E+04  4.83559E+04 -1.92393E+04  4.25773E+04  2.03754E+04  1.62316E+04  4.68941E+04
 -1.76876E+04  2.97293E+04 -2.44567E+04  2.67447E+03 -7.34838E+03 -2.95703E+04  2.21994E+04 -3.49721E+04
  4.18324E+04 -9.75326E+03  3.65751E+04  1.95230E+04  1.84972E+04  4.70222E+04 -3.95245E+03  4.49066E+04
 -2.98159E+04  3.14778E+04 -3.66331E+04  5.52827E+03 -4.16212E+04 -1.55321E+04 -2.56234E+04 -3.45715E+04
  6.90326E+03 -4.19690E+04  2.82188E+04 -1.41856E+04  2.81963E+04  4.24081E+03  6.37517E+03  2.12466E+04
 -1.33096E+04  5.12363E+03 -1.13136E+04 -1.01515E+04  4.18509E+03 -8.66558E+03  1.63734E+04  9.92334E+03
  1.33764E+04  2.31592E+04 -6.94573E+03  2.20442E+04 -2.38509E+04  1.14175E+04 -3.05622E+04 -4.83388E+03
 -2.09774E+04 -1.53752E+04 -6.81736E+03 -1.92330E+04  3.46903E+03 -1.80940E+04  1.99492E+04 -1.94178E+04
  2.23646E+04 -8.82853E+03  3.33574E+04  4.04986E+03  2.31731E+04  2.36310E+04  5.35641E+03  3.51455E+04
 -1.78823E+04  3.04309E+04 -2.62677E+04  1.44870E+04 -2.19017E+04 -7.01810E+03 -6.36231E+03 -1.69455E+04
 -1.07115E+03 -7.20577E+03 -6.44460E+03  7.28250E+03 -1.31373E+04  5.31417E+03 -1.65761E+04 -5.64933E+03
 -6.43838E+03 -1.82240E+04  4.37775E+03 -1.86770E+04  1.72762E+04 -1.54920E+04  1.59284E+04 -1.08829E+02
  1.32993E+04  9.48775E+03  1.03294E+03  1.88490E+04 -1.44130E+04  7.90294E+03 -1.36251E+04 -2.85049E+03
 -1.33484E+04 -1.45758E+04 -4.62768E+03 -2.59010E+04  1.08800E+04 -1.61099E+04  1.85463E+04 -1.03933E+04
  1.75665E+04  6.86671E+02  1.11047E+04  4.15612E+03  5.75854E+03  3.94768E+03  1.10349E+04 -1.29420E+03
  1.64644E+04  5.00832E+02  1.57622E+04  1.61530E+04  1.11768E+04  2.99771E+04  7.24534E+02  3.20836E+04
 -1.68631E+04  2.77250E+04 -3.09454E+04  1.35251E+04 -3.07452E+04 -5.26320E+03 -2.73537E+04 -1.46551E+04
 -1.14913E+04 -2.49301E+04  7.06674E+03 -1.89156E+04  2.08687E+04 -1.29240E+04  2.12909E+04  2.33912E+03
  8.78243E+03  1.37256E+04 -7.70524E+03  1.14164E+04 -1.40713E+04  3.06451E+03 -1.06177E+04 -9.20040E+03
 -3.74437E+02 -1.08423E+04  1.04890E+04 -1.03843E+04  9.60751E+03 -3.42904E+03  5.40211E+03  4.13814E+03
 -9.15500E+03  8.13919E+02 -3.25528E+03 -5.62490E+03  3.84587E+03 -1.27407E+04  3.17559E+03 -1.61341E+04
  1.94986E+04 -5.12848E+03  2.01136E+04  1.41581E+03  1.56372E+04  1.60797E+04  1.09666E+04  1.76196E+04
 -4.29367E+03  1.90050E+04 -1.53668E+04  1.29987E+04 -1.45473E+04  4.84332E+03 -1.40515E+04 -7.38805E+02
 -8.96473E+03 -5.74032E+03  3.43206E+03 -1.19441E+03  1.36493E+03  1.53225E+03 -6.65012E+03  2.57729E+03
 -8.99674E+03 -3.24409E+03 -8.61422E+03 -9.78089E+03 -6.20060E+03 -1.37427E+04  4.75891E+03 -7.49878E+03
  9.43670E+03  4.25664E+02  7.29999E+03  4.40166E+03 -2.64855E+02  6.14265E+03 -6.31310E+03 -7.01533E+02
 -6.97264E+03 -8.00413E+03 -2.15626E+03 -9.46979E+03  4.55435E+03 -1.07815E+04  1.29474E+04 -7.65517E+03
  1.37189E+04 -1.18015E+03  1.03893E+04  9.17016E+03  4.05270E+03  1.15321E+04 -6.93291E+03  1.22817E+04
 -9.32211E+03  6.11717E+03 -1.38544E+04 -3.17093E+03  2.58544E+03 -3.25766E+03  3.33558E+02  1.84682E+02
  4.90890E+03  5.63358E+03 -1.57917E+02  6.47010E+03 -6.61904E+03  8.80026E+03 -8.63621E+03  2.50044E+03
 -1.04921E+04 -4.68587E+03 -2.21364E+03 -7.64977E+03  4.63897E+03 -4.30710E+03  4.89031E+03  2.71723E+03
 -3.25227E+03  9.61490E+03 -3.10793E+03  5.00762E+03 -9.57609E+03  4.59817E+03  4.23031E+02 -2.38970E+03
 -6.91246E+03 -9.16024E+03 -5.53797E+02 -1.44334E+04  7.55919E+03 -7.45282E+03  1.20563E+04  2.32118E+03
  1.00420E+04  7.92743E+03 -3.94252E+02  6.03045E+03 -9.78630E+03  3.85917E+03 -6.05882E+03  1.55062E+03
 -5.21428E+03 -3.76133E+03 -5.28293E+02 -8.92968E+02  3.52710E+03 -4.19981E+03  3.51881E+03 -5.53458E+03
  1.28255E+03 -2.26411E+03  1.27606E+03  1.51088E+03  1.67178E+03  2.16818E+03  2.68510E+03 -3.77787E+03
  8.05408E+03  4.30148E+03  3.93518E+03 -1.36579E+02  5.21018E+03  8.44133E+03  6.16260E+03  9.89719E+03
 -3.61390E+03  1.45604E+04 -1.24364E+04  3.81377E+03 -1.59687E+04  2.72062E+03 -8.36893E+03 -5.02423E+03
 -1.09396E+04 -6.30990E+03 -1.09276E+03 -7.84958E+03  4.28130E+03 -3.43289E+03  2.63519E+03 -8.05057E+03
  3.30974E+03 -2.63608E+03  1.58904E+03 -7.14928E+03  6.23391E+03 -2.59304E+03  7.10148E+03  1.71974E+03
  8.00429E+03 -2.16176E+01  1.35247E+03  1.84657E+03  1.02742E+03  1.17515E+03 -2.71135E+03  7.61915E+02
 -4.53866E+03 -1.23277E+03  1.18629E+03 -1.02958E+03  1.13953E+03 -1.02689E+04  4.65064E+03 -3.37331E+03
  3.88354E+03 -5.98487E+03  8.60796E+03  1.60675E+02  5.08350E+03  9.20486E+03  7.36239E+03  1.26315E+04
 -3.60543E+03  1.08394E+04 -7.66387E+03  3.33900E+03  6.64991E+02 -3.66667E+03 -9.03227E+01 -4.93138E+02
  2.40435E+02 -3.60078E+03 -2.29955E+03  1.25012E+02 -5.07788E+03  3.05241E+03 -5.76197E+03  1.25981E+03
 -5.50883E+03 -7.59352E+03 -1.02919E+03 -7.87866E+03  8.55637E+03 -4.11919E+03  6.45094E+03  1.17149E+03
  1.39000E+04  6.87878E+03  9.04606E+03  1.06219E+04  2.27747E+03  7.52552E+03 -3.58301E+03  4.22218E+03
 -5.23267E+03 -1.77206E+02 -8.36534E+03 -3.71339E+03 -2.54503E+03 -5.42851E+03  3.74427E+03 -2.79398E+03
  1.45204E+03 -2.82487E+03  6.48488E+03  7.05425E+03 -4.46484E+03  1.77822E+03  3.70390E+03 -4.92562E+02
  3.57726E+03 -2.01354E+03 -6.84884E+02 -4.14318E+03  1.03822E+03  1.26955E+03  4.94044E+03  3.92930E+03
 -3.14778E+03  2.80437E+03 -5.62500E+03  5.24667E+03 -6.73400E+03  5.25590E+02 -2.37048E+03  3.16265E+03
 -3.78535E+03 -5.50936E+03  1.82196E+03 -5.51489E+03  5.74568E+03 -4.00367E+03  4.31860E+03  1.00216E+03
  1.50410E+03  2.93154E+03  4.58863E+03  4.11649E+03 -1.58023E+03  4.81518E+02 -1.26664E+03 -3.44663E+03
 -2.74838E+03 -1.29696E+02 -8.72981E+01 -2.86195E+03 -1.70460E+03 -1.38988E+03 -2.06392E+02  5.13524E+03
 -2.40919E+03  5.44934E+03  3.51051E+03 -2.66130E+03  1.20681E+03 -1.72044E+03  4.05134E+03  2.29837E+02
 -6.57035E+02 -3.71402E+03  2.58316E+03  2.61621E+03  1.08891E+03 -7.23628E+02  5.74275E+02  1.85225E+03
 -5.79064E+02  2.17083E+03 -2.09764E+03 -1.83849E+03 -1.86211E+03  9.53031E+02 -3.23497E+03  1.89485E+01
 -7.16455E+02 -2.25644E+03  2.15695E+03  3.27148E+03  2.64177E+03  1.77221E+03  2.35648E+03  4.29943E+03
  1.40776E+03  2.36528E+02 -2.44095E+03  1.70848E+03 -4.19771E+03 -2.45819E+03  4.76786E+03 -2.51186E+03
  1.25240E+03 -2.66169E+02  7.00645E+02 -2.64157E+03  2.50759E+02 -9.05335E+02  4.90889E+02  2.34277E+03
  1.92506E+03  1.17990E+03 -7.37020E+01 -2.05965E+03 -3.16423E+03  8.17121E+02  5.27745E+03 -4.99918E+03
  5.06302E+03 -7.73604E+02  4.26296E+03  1.72806E+03  2.39036E+03  4.29860E+02 -2.76306E+03  5.35641E+03
  4.55884E+02  2.90735E+03 -1.35320E+03 -2.15050E+03  8.89630E+02 -1.55741E+03  2.53170E+03 -7.06546E+02
  5.88050E+03  3.25601E+03  1.82833E+02  5.84767E+03 -1.46240E+02  2.69505E+03 -1.13276E+03 -5.02194E+03
  3.19045E+02  1.22737E+02 -5.95771E+02 -1.90615E+02 -1.61831E+03 -1.85161E+03 -4.76275E+01  1.71048E+03
  3.06924E+03  2.12752E+03 -2.86585E+03  2.76389E+03 -1.58954E+03 -1.33710E+03 -1.13322E+03  3.22705E+02
 -1.97739E+03 -4.96967E+03 -2.47898E+03 -3.48475E+03  5.88283E+03 -7.48387E+02  3.18763E+03  6.89228E+02
  1.03339E+04 -5.46352E+02 -1.05542E+02  5.33497E+03 -3.61935E+03  3.91008E+03 -2.25887E+03 -3.91729E+03
 -1.03561E+03  7.78591E+02 -1.19606E+03 -3.10997E+02 -1.84773E+02 -1.29075E+03 -2.71724E+03  1.71164E+03
 -2.57129E+03  5.80725E+03 -8.07577E+02  5.20361E+03  3.80209E+02  4.16990E+02  2.40199E+03 -8.64381E+03
 -1.21705E+02 -1.07048E+03  1.67947E+03  4.11358E+03  6.40333E+02  7.25759E+02  4.12320E+03  3.10140E+03
 -6.85524E+03  4.30100E+03 -3.68363E+03 -4.04495E+03 -3.40494E+03 -1.28061E+03  4.18943E+02 -6.28029E+03
 -3.69808E+03 -4.46641E+03  1.80086E+03 -1.42525E+03  4.83291E+03  2.87690E+03 -1.64585E+03 -1.71654E+03
  1.22809E+03  2.49471E+03  3.83208E+03  1.40049E+03  1.69240E+03 -6.44333E+02  2.71889E+03 -5.84297E+02
  2.61745E+03 -3.67789E+03  9.07133E+02  2.99503E+03 -1.82020E+03 -1.24868E+03  1.15583E+03  3.21822E+02
  4.12242E+03 -2.55947E+03 -4.19547E+03  2.02742E+03  4.95943E+02  3.90702E+03 -2.38506E+03 -4.47356E+03
  3.22918E+03 -1.70188E+02  4.33133E+03  1.22841E+03 -1.05320E+03  4.03577E+03  3.06249E+03 -3.08103E+03
 -2.36054E+03 -2.94493E+02 -8.79360E+02 -7.30681E+02  3.54197E+02 -2.90698E+03  1.47840E+03 -9.35311E+02
 -3.10972E+03 -7.72863E+02 -2.30046E+03  3.05450E+03 -4.47305E+03 -1.37825E+03 -1.23167E+03 -4.40638E+03
 -4.19884E+03 -4.40777E+03 -2.43462E+03 -7.54361E+03 -1.69169E+03 -1.19987E+03  2.67369E+03  2.17254E+03
  4.21544E+03 -3.51084E+03  1.41477E+03  6.28551E+01  2.54070E+03  1.51817E+03  1.65695E+03  1.85383E+03
