 $NMID ID='MM_0lb_SNR50_11hz_g40_42.RAW', FMTDAT='(8E13.5)'
 TRAMP=1., VOLUME=1. $END
  3.12147E+05  4.13183E+03  3.37368E+05  2.46882E+05  8.52389E+04  3.40465E+05 -1.33296E+05  2.48883E+05
 -1.91359E+05  8.19192E+04 -1.13609E+05 -3.88294E+04 -5.21091E+02 -4.87679E+04  5.83056E+04  2.47159E+03
  3.34019E+04  4.74777E+04 -1.59518E+04  7.83545E+04 -5.72660E+04  6.78246E+04 -8.25961E+04  3.09391E+04
 -8.35752E+04 -7.81229E+03 -5.88111E+04 -5.33668E+04 -1.19285E+04 -7.40785E+04  3.10535E+04 -4.85665E+04
  3.68064E+04  4.28883E+03  1.68772E+04  5.00926E+04 -2.96293E+04  5.51402E+04 -6.67723E+04 -6.08443E+03
 -4.77375E+04 -5.53266E+04 -6.49605E+03 -7.86819E+04  3.09937E+04 -5.38102E+04  4.56338E+04 -2.08392E+04
  4.56062E+04  9.95923E+03  2.95931E+04  2.28394E+04  1.86480E+04  2.90411E+04 -8.59517E+02  2.27333E+04
 -2.08356E+04  1.20899E+04 -2.22290E+04 -4.97104E+03  4.81913E+03 -6.70650E+03  2.28907E+04  1.03073E+04
  7.96678E+03  3.75728E+04 -3.40980E+04  3.48610E+04 -6.44018E+04 -1.32316E+03 -5.86571E+04 -4.61116E+04
 -1.12530E+04 -5.87062E+04  3.97093E+04 -4.98038E+04  5.75873E+04 -5.96990E+03  4.34933E+04  3.66882E+04
 -3.00626E+03  3.73271E+04 -3.06262E+04  1.71170E+04 -2.89366E+04 -5.49862E+03 -1.36938E+04 -8.70364E+03
 -5.21298E+03 -1.31132E+04  2.59267E+03 -1.90694E+04  8.50103E+03 -2.34602E+04  1.58259E+04 -1.06881E+04
  1.41797E+04  1.67328E+03 -8.82045E+03  1.21516E+04 -1.82647E+04 -1.62614E+03 -8.47060E+03 -3.43778E+04
  2.47155E+04 -4.12174E+04  4.67300E+04 -1.83473E+04  4.67136E+04  2.00220E+04  1.76123E+04  4.81320E+04
 -1.24823E+04  3.84945E+04 -2.11464E+04 -3.32777E+02 -8.11647E+03 -2.98863E+04  2.21840E+04 -3.44740E+04
  4.50064E+04 -6.11089E+03  4.03648E+04  1.79552E+04  2.11944E+04  4.77738E+04 -2.51171E+03  5.75855E+04
 -3.46209E+04  3.61944E+04 -4.07948E+04  9.67831E+03 -4.75465E+04 -1.88195E+04 -2.65132E+04 -3.90856E+04
  8.00778E+03 -3.73426E+04  3.27959E+04 -1.85685E+04  3.40872E+04  1.58766E+04  2.26464E+03  1.99131E+04
 -1.82553E+04  4.44975E+03 -1.23055E+04 -5.77531E+03  7.49318E+03 -1.34877E+04  1.89342E+04  7.79269E+03
  1.12001E+04  1.88796E+04 -7.90577E+03  2.66677E+04 -2.41008E+04  9.73611E+03 -2.82019E+04 -7.72754E+03
 -2.36844E+04 -1.48564E+04 -9.01620E+03 -1.69880E+04  4.48266E+03 -1.96692E+04  1.83146E+04 -1.97481E+04
  2.15149E+04 -1.55612E+04  3.74113E+04  3.53447E+03  2.59930E+04  2.70046E+04  1.76716E+03  4.21545E+04
 -2.01813E+04  2.63653E+04 -2.99216E+04  1.53805E+04 -2.88222E+04 -1.16454E+04 -5.47197E+03 -1.22233E+04
 -2.43609E+03  2.07919E+03 -3.97838E+03  7.12331E+03 -1.93959E+04  4.92949E+03 -1.99757E+04 -6.11697E+03
 -1.46954E+04 -2.12896E+04  1.08443E+04 -2.59359E+04  1.30618E+04 -1.78565E+04  2.15473E+04 -1.54013E+03
  1.38520E+04  1.19707E+04 -8.94326E+02  1.87040E+04 -1.41301E+04  1.02439E+04 -2.42885E+04 -4.22719E+03
 -1.66859E+04 -1.50750E+04 -9.43323E+02 -1.78293E+04  6.56938E+03 -1.94815E+04  2.01730E+04 -1.12774E+04
  2.00689E+04  1.05943E+03  2.15130E+04  5.26360E+03  1.20499E+04  1.90011E+03  6.12477E+03  2.35690E+03
  1.48794E+04  2.06041E+03  1.97492E+04  1.02925E+04  1.16418E+04  3.74392E+04 -3.64928E+03  3.79173E+04
 -1.85316E+04  3.63365E+04 -4.04278E+04  1.88525E+04 -3.97646E+04 -6.73392E+03 -2.53087E+04 -1.72723E+04
 -1.00035E+04 -2.61876E+04  1.04692E+04 -2.87150E+04  1.94501E+04 -1.21053E+04  2.18152E+04 -1.86973E+03
  5.25579E+03  1.82704E+04 -7.82416E+03  1.17651E+04 -1.58744E+04  5.54886E+03 -1.53785E+04 -1.10797E+04
  4.31088E+02 -1.62102E+04  9.66916E+03 -6.01069E+03  1.64716E+04  6.48924E+02  3.96114E+03  1.06353E+04
 -4.08461E+03 -7.83305E+02 -9.05890E+03 -3.03307E+03 -4.51658E+02 -1.25770E+04  1.27516E+04 -1.43835E+04
  1.78305E+04 -8.60477E+03  1.89173E+04 -6.98900E+02  1.55382E+04  1.62038E+04  9.65122E+03  2.34151E+04
 -7.59686E+02  2.51788E+04 -1.39516E+04  1.58949E+04 -1.63314E+04  4.15290E+03 -2.17282E+04 -2.71351E+03
 -8.09808E+03 -3.24507E+03  2.39772E+03  5.01065E+03 -2.97285E+03  8.38922E+03 -9.96128E+03  7.46770E+03
 -1.20355E+04  1.02850E+03 -1.45388E+04 -3.61012E+03 -4.92220E+03 -1.72613E+04  8.32895E+03 -1.03697E+04
  9.96647E+03 -6.99708E+03  2.80185E+01  1.03169E+03 -1.59255E+03  4.90159E+03 -4.30889E+03  1.08619E+03
 -9.09280E+03 -1.09802E+04  1.76709E+03 -1.20155E+04  5.74327E+03 -1.11983E+04  1.90992E+04 -7.39316E+03
  1.60493E+04  2.92082E+03  1.54289E+04  2.25273E+04  8.65004E+03  1.87422E+04 -5.81893E+03  1.27179E+04
 -1.04950E+04  6.06282E+03 -5.94250E+03 -5.41043E+03  6.87010E+02 -6.48697E+03  5.84414E+03 -5.20769E+02
  2.29607E+03  1.03624E+04  2.20209E+03  6.60417E+03 -7.94303E+03  1.21150E+04 -8.87552E+03 -5.45721E+02
 -1.19209E+04 -8.38577E+03  1.31833E+03 -1.38256E+04  9.55172E+03 -6.06403E+03  1.14381E+04  4.22810E+03
  1.01135E+03  8.42353E+03 -6.64937E+03  1.30486E+04 -1.07383E+04 -2.88815E+03 -1.80809E+04 -1.48717E+03
 -4.93104E+03 -7.96414E+03  5.67246E+03 -1.17787E+04  1.14058E+04 -6.28616E+03  1.81016E+04  6.47445E+03
  5.07140E+03  1.26682E+04  1.79306E+03  1.52136E+04 -4.43291E+03  7.97058E+03 -1.86926E+04  1.12484E+03
 -8.95580E+03 -7.96312E+03 -3.63875E+03 -1.20473E+04 -1.62570E+03 -5.39254E+03  4.84929E+03 -7.27231E+03
  9.84887E+03 -1.03672E+03 -4.86141E+03  3.01476E+03 -3.98196E+03 -2.70589E+03  2.82218E+03 -1.27722E+03
  7.56952E+03 -1.63335E+03  1.72549E+04 -7.96408E+02  1.07503E+04  8.42484E+03  8.09024E+03  1.64844E+04
 -5.46369E+03  2.26060E+04 -1.25809E+04  1.46593E+04 -1.66770E+04 -2.16783E+03 -1.35562E+04 -3.01073E+03
 -1.18850E+04 -1.56084E+04 -7.49259E+02 -1.00933E+04  2.82173E+03 -9.20499E+03  4.68629E+03 -1.78771E+03
  1.70016E+03 -3.56921E+03  3.09104E+03 -7.05320E+03  2.81291E+03 -4.52978E+03  4.23382E+03 -6.89785E+03
  1.04990E+04  2.75887E+03  3.79102E+03  9.23933E+03 -3.70315E+03  9.12236E+03 -1.11513E+04  8.22300E+03
 -1.16291E+04 -4.17375E+03 -5.21841E+03 -1.10917E+03  3.58540E+03 -1.26622E+04  1.53590E+03 -1.18284E+04
  4.38005E+03 -5.40571E+03  1.50741E+04  2.93425E+03  1.46847E+04  3.96126E+03  1.00525E+03  1.40148E+04
 -2.75783E+03  1.32872E+04 -9.04377E+03  7.05959E+03 -2.00197E+03 -2.10644E+03  7.17152E+02 -1.71507E+03
  3.96360E+03 -1.21292E+03 -5.61303E+03 -1.06382E+03 -1.29142E+03  4.00237E+03 -6.48390E+03 -5.97212E+03
 -7.52927E+03 -1.46061E+04 -2.87842E+03 -1.22179E+04  5.53934E+03 -1.22550E+04  9.18689E+03 -4.72737E+03
  1.28492E+04  6.40002E+03  4.82770E+03  1.28940E+04 -4.46049E+03  1.04975E+04 -7.03113E+02  5.75130E+03
 -1.13610E+04 -7.55279E+01 -9.95443E+03 -6.34771E+03 -1.72909E+03 -8.03019E+03  6.96284E+03 -1.03936E+04
  3.20993E+03 -1.96503E+03  6.63691E+03  1.82523E+03  1.82224E+03  3.64661E+03 -5.91822E+02  6.91922E+02
  4.89255E+03 -1.95413E+03  5.12926E+03 -3.76950E+03  3.13088E+03  7.05951E+03 -1.05559E+03  7.07469E+03
 -2.23686E+03  4.75880E+03 -9.12062E+03  5.14670E+03 -1.00193E+04  5.05813E+03 -8.26129E+03 -5.54094E+03
 -1.10401E+03 -1.01944E+04  3.07995E+03 -1.13772E+04  5.67768E+03 -8.20416E+03  9.51991E+03 -5.02711E+03
  6.00618E+03  5.37710E+03 -6.69891E+02  2.77378E+03 -6.74479E+03  5.85918E+03 -3.43180E+03  1.76768E+03
 -1.35550E+03 -1.00810E+03  4.94353E+03 -4.41808E+03 -1.75626E+02 -5.18005E+03  7.46322E+03  3.95727E+03
  3.21145E+03 -2.71470E+03 -9.14299E+02  1.40454E+03 -2.22976E+03  1.18723E+03  3.65924E+03 -5.88551E+03
  3.32348E+03 -1.23396E+03  7.40786E+03  3.12179E+03  2.21815E+03  1.09391E+03  6.44044E+02  1.07242E+04
 -6.28757E+03  6.23897E+03 -4.26034E+03  1.47685E+03 -8.50405E+03 -3.34965E+03 -8.42665E+03 -2.89616E+03
  4.61659E+03 -2.43737E+03  3.35237E+03 -2.01090E+03  8.34226E+02 -1.35491E+03 -7.37185E+03  3.02477E+03
 -5.56646E+03  4.21259E+03 -1.38396E+03 -3.15293E+03 -4.08388E+03 -7.06772E+03  1.17440E+03 -8.34482E+03
  3.91173E+03 -6.85515E+02  4.27953E+03  4.33683E+03  7.64784E+03  1.45433E+03 -7.00436E+03  2.22162E+03
  1.83604E+03  1.86073E+02 -1.84355E+03 -1.42111E+03  5.50291E+03 -4.67720E+03  5.61367E+03  3.02185E+02
  3.15973E+03 -4.65791E+03  1.24679E+04  6.41935E+03  2.52787E+03  4.69238E+03 -5.58480E+03  7.45464E+03
 -1.04971E+04  5.42644E+03 -4.83819E+03 -9.26206E+02 -4.06642E+03 -4.60674E+03  1.30171E+03  2.31688E+03
  2.13518E+03 -5.11667E+03  5.61678E+03  3.94549E+03  1.15547E+03  3.07002E+03  3.91087E+03  3.92789E+03
 -3.35126E+03  4.79157E+03 -4.87122E+03  4.90867E+03 -3.29734E+03 -3.20235E+03 -7.51348E+02  1.35571E+03
 -5.63543E+03  6.49445E+03 -1.00805E+04  5.20339E+03 -8.60324E+03  6.82713E+02 -8.91659E+03  8.72909E+02
 -7.91466E+03 -1.10054E+04  3.92073E+03 -8.04808E+03  3.33822E+03 -1.21561E+04  1.16394E+04 -1.27152E+03
  7.42044E+03  7.73628E+03  9.72149E+02  9.34407E+03  5.80231E+03  8.22018E+03 -1.82609E+02  8.81598E+03
 -8.01387E+03  1.96037E+03 -2.38024E+03 -2.21567E+03  2.66497E+03 -1.69510E+03  6.23003E+02 -5.59190E+03
  1.19535E+02 -4.02277E+03 -8.51645E+03 -2.12749E+03  4.81189E+02  3.79714E+03 -5.99426E+02  1.50859E+03
  8.51414E+01 -4.04732E+03  7.18764E+03  2.19875E+03  4.89084E+03  6.94338E+03  2.76659E+03  8.49544E+03
 -3.79216E+03  9.73780E+03 -6.38718E+03  3.67454E+03 -1.14105E+04  1.84513E+03 -8.26983E+03 -1.71263E+03
  3.19360E+02 -7.35626E+03  5.86617E+03  3.10693E+02  3.27133E+03 -1.97980E+03  4.05866E+03 -2.35404E+03
  6.31977E+03  2.51551E+03  8.99089E+02  6.23640E+03 -2.03529E+03  3.43504E+03  3.99868E+03 -4.01078E+03
  1.23240E+03 -1.97594E+03 -1.96872E+02 -6.94081E+03  3.14307E+03  6.78444E+03  3.27643E+03  3.61249E+03
 -3.75960E+03  2.09201E+03 -4.41392E+03 -6.05745E+03 -2.42805E+03 -6.49989E+03  5.51501E+02 -7.17636E+03
  5.11352E+03 -4.93586E+03  7.04647E+03  4.56574E+02  1.59780E+03  5.70265E+03 -7.36953E+02  3.99134E+03
  6.79039E+01  2.82128E+03  2.26928E+03  1.07806E+04 -2.51044E+03 -4.25503E+03 -5.30545E+03  2.35719E+03
 -1.91882E+03  8.13964E+02 -4.03539E+03 -1.89500E+03 -1.81137E+03 -9.25938E+02 -3.61121E+03  1.50015E+03
 -1.60577E+03 -3.91377E+03  3.07887E+03 -2.22165E+02  4.44783E+03 -9.78311E+02  5.53817E+02 -4.85266E+03
  4.23306E+03 -7.33186E+03  1.60317E+03  4.39041E+03  6.49145E+02 -2.82724E+02  1.19687E+03  3.64937E+03
