 $NMID ID='MM_0lb_SNR50_20hz_g50_69.RAW', FMTDAT='(8E13.5)'
 TRAMP=1., VOLUME=1. $END
  3.04491E+05 -4.26327E+03  3.35200E+05  2.45620E+05  8.73446E+04  3.37981E+05 -1.33004E+05  2.53380E+05
 -1.86012E+05  8.51712E+04 -1.07003E+05 -3.14206E+04  3.54923E+03 -5.13484E+04  5.15983E+04 -5.27337E+02
  3.56024E+04  5.18109E+04 -1.91350E+04  7.57174E+04 -6.10983E+04  6.13155E+04 -8.59770E+04  2.98184E+04
 -7.95802E+04 -1.13001E+04 -5.65665E+04 -5.16967E+04 -1.37344E+04 -6.60609E+04  2.67893E+04 -4.33401E+04
  4.24067E+04  4.25526E+03  1.42758E+04  4.57151E+04 -3.46091E+04  4.85406E+04 -6.54675E+04 -1.70420E+03
 -4.96732E+04 -6.25729E+04 -4.24906E+03 -7.41339E+04  2.97848E+04 -5.36406E+04  4.30977E+04 -1.63122E+04
  4.39646E+04  1.24828E+04  3.28215E+04  2.49711E+04  1.69514E+04  3.06212E+04 -3.20991E+03  2.53845E+04
 -2.32419E+04  1.19568E+04 -2.37152E+04 -5.06164E+03  1.33359E+03 -9.14505E+03  1.97195E+04  1.25850E+04
  9.89325E+03  3.47730E+04 -3.11517E+04  3.62772E+04 -6.37799E+04  1.20029E+02 -5.22919E+04 -3.67840E+04
 -1.48642E+04 -6.34005E+04  3.75909E+04 -4.40832E+04  5.81898E+04 -1.46935E+03  3.02496E+04  3.14174E+04
 -5.69206E+03  3.43262E+04 -2.63281E+04  1.14359E+04 -2.75056E+04 -7.04926E+03 -1.62124E+04 -1.13240E+04
 -5.32563E+03 -1.24688E+04 -2.52327E+03 -1.47462E+04  4.80430E+03 -2.01626E+04  1.30041E+04 -1.44431E+04
  1.11698E+04  4.95234E+03 -4.35789E+03  1.41009E+04 -2.33276E+04  2.32570E+03 -8.60975E+03 -3.34637E+04
  1.95045E+04 -4.25373E+04  4.18879E+04 -1.73093E+04  4.22347E+04  1.69982E+04  1.41200E+04  4.18689E+04
 -1.31997E+04  3.02712E+04 -2.32153E+04 -1.00755E+03 -5.45144E+03 -2.43782E+04  2.16530E+04 -2.78179E+04
  3.85660E+04 -7.78497E+03  3.20919E+04  2.90866E+04  1.36021E+04  3.90265E+04 -5.49556E+03  4.12710E+04
 -2.83821E+04  2.93361E+04 -3.62592E+04  4.74468E+03 -3.96278E+04 -1.06919E+04 -2.05947E+04 -3.13317E+04
  1.04275E+04 -3.33977E+04  3.04215E+04 -1.35999E+04  2.71843E+04  8.20208E+03  5.79536E+03  2.11344E+04
 -9.82476E+03  3.54522E+03 -1.19763E+04 -1.42170E+04  7.53362E+03 -1.00231E+04  1.68555E+04  8.58343E+03
  1.05134E+04  1.90991E+04 -8.71256E+03  1.59047E+04 -2.31663E+04  6.07601E+03 -2.45039E+04 -2.53988E+03
 -1.62705E+04 -1.92050E+04 -7.67711E+03 -1.57589E+04  7.02983E+03 -1.45602E+04  1.23146E+04 -1.26821E+04
  2.14855E+04 -1.42866E+04  2.51018E+04 -3.02635E+02  2.18762E+04  1.46910E+04  3.63479E+03  2.79464E+04
 -1.80944E+04  2.51688E+04 -2.25029E+04  1.39941E+04 -2.48353E+04 -8.64263E+03 -6.39018E+03 -1.52122E+04
  6.12840E+03 -4.63309E+03 -5.69381E+03  2.21535E+03 -1.19181E+04  3.97498E+03 -1.47184E+04 -7.53364E+03
 -8.05277E+03 -1.50462E+04  4.61457E+03 -1.61422E+04  1.19722E+04 -1.29191E+04  1.44659E+04 -2.58364E+03
  1.37824E+04  8.93094E+03  2.66812E+01  1.27483E+04 -7.98634E+03  6.95721E+03 -1.66060E+04 -2.83799E+03
 -1.51808E+04 -1.47451E+04 -1.41875E+01 -1.63148E+04  7.43092E+03 -1.55703E+04  1.80116E+04 -6.64224E+03
  1.01448E+04 -1.61426E+03  8.94795E+03  2.43500E+03  3.58876E+03  1.23248E+03  3.15366E+03 -1.90976E+02
  7.90994E+03  7.07166E+03  1.52991E+04  1.53582E+04  8.19964E+03  2.05547E+04 -6.41927E+03  2.43640E+04
 -2.02875E+04  1.74367E+04 -2.35803E+04  1.09434E+04 -2.25450E+04 -2.38454E+03 -1.97921E+04 -1.19740E+04
 -1.41022E+04 -1.85127E+04  5.69465E+03 -1.96870E+04  1.09375E+04 -1.46543E+04  1.05832E+04  4.37067E+02
  5.81000E+03  1.04430E+04 -8.18807E+03  4.82165E+03 -1.32701E+04  7.40602E+02 -1.09260E+04 -9.50343E+03
  2.38995E+03 -1.06891E+04  6.15957E+03 -9.67891E+03  1.19663E+04 -2.26425E+03 -3.01871E+03  6.62926E+03
 -5.90267E+03 -1.26798E+03 -2.58532E+03 -6.82776E+03 -1.40291E+03 -1.22106E+04  9.60983E+03 -1.16023E+04
  1.06274E+04 -2.17006E+03  1.05477E+04  1.00081E+03  9.75870E+03  6.66908E+03  4.04378E+03  1.77728E+04
  1.78511E+03  1.67611E+04 -1.14386E+04  1.01076E+04 -1.09498E+04  1.55953E+03 -6.55961E+03 -4.54317E+02
 -4.61410E+03  1.54410E+03 -3.17872E+03  1.61229E+03 -3.25552E+03  2.07563E+03 -1.07439E+03  2.66388E+03
 -7.98831E+03 -2.16077E+03 -5.91491E+03 -6.99345E+03 -4.97046E+03 -1.37463E+04  3.25828E+03 -8.19839E+03
  6.66465E+03 -8.10973E+03  7.91347E+03  3.29083E+03  1.53829E+03  4.20842E+03 -4.55932E+03 -1.74628E+03
 -4.28241E+03 -5.59662E+03 -1.13135E+03 -7.10013E+03  3.92103E+03 -6.29254E+03  6.77890E+03 -9.82247E+02
  1.46818E+04  2.95216E+01  4.72609E+03  1.54323E+03 -3.01172E+03  1.10171E+04 -5.48704E+03  8.45346E+03
 -8.41683E+03  1.66238E+03 -1.77172E+03 -1.21929E+03 -1.14028E+03 -5.69083E+03  8.02960E+03 -2.49393E+03
  1.42880E+03  5.63818E+03 -2.19256E+03  9.24125E+03 -3.29083E+03  6.02868E+03 -1.06609E+04  1.00540E+03
 -5.50404E+03 -1.10422E+03  5.16810E+02 -5.79439E+03  1.82514E+02  2.13355E+02  5.76488E+03  1.37898E+03
  3.14306E+03  7.56370E+02 -9.90973E+03  3.60560E+03 -3.45953E+03  2.34473E+03 -2.03151E+03 -5.36480E+03
 -2.03378E+03 -7.35518E+03  1.39132E+01 -6.89870E+03  6.46147E+03 -1.39657E+03  6.38659E+03  2.07159E+03
  2.40811E+03  9.03720E+03  1.89597E+03  7.96734E+03 -6.53627E+03  3.46897E+03 -2.85406E+03 -2.53685E+03
 -8.01713E+03 -6.39134E+03 -1.97855E+02 -9.69537E+03  6.40439E+03 -4.39559E+03  3.24149E+03 -2.21953E+03
  2.70790E+03  3.53900E+03  1.04747E+03  2.19454E+03  1.75379E+03 -6.85105E+02  5.80939E+01 -2.10909E+03
  4.42777E+03 -1.03819E+03  3.56687E+03 -3.44071E+03  7.08963E+03  5.16345E+02  3.27122E+03  4.76060E+03
 -1.09881E+03  7.05208E+03 -4.96034E+03  3.19505E+03 -6.91300E+03  3.06965E+03 -4.11383E+03 -6.62034E+02
 -8.52198E+03 -5.79623E+03  4.71858E+03 -5.60854E+03  2.15789E+03 -1.83345E+03 -5.92853E+01 -4.81205E+03
 -2.17570E+03 -3.04183E+03  2.08087E+03 -4.05427E+03  3.45938E+03  1.15733E+03  5.05484E+03  4.17752E+03
  3.51882E+03  1.44203E+03 -1.27980E+03 -1.35820E+01 -2.50213E+03  1.91630E+03 -3.01258E+03  1.12369E+03
 -5.48135E+03 -5.89969E+03 -2.40099E+03 -1.95878E+03  5.54740E+02 -8.37426E+03  7.03313E+03 -2.13250E+03
  2.95399E+03 -2.05828E+03  5.92276E+03  2.81953E+03  5.67707E+03 -4.37058E+02  4.79753E+03  2.59350E+03
 -5.89330E+03  3.40739E+03 -2.86648E+03 -8.01799E+01 -9.43926E+02 -2.48347E+03  3.25388E+03 -3.24689E+02
  2.78911E+03 -2.41938E+02  1.45426E+03 -2.11019E+03 -2.30475E+03 -1.90510E+03 -2.78815E+03  1.08171E+03
  1.41842E+03 -6.80822E+03 -1.30169E+03  2.40652E+03  4.95365E+03 -1.29040E+03  1.66860E+03  2.81884E+03
  5.62011E+03  3.19929E+03  1.71994E+03  2.53969E+03  2.10168E+02  3.99675E+03 -1.70898E+03  2.10171E+03
 -4.68595E+03  1.55606E+03 -4.00133E+03 -3.17129E+03  1.64656E+03 -4.27102E+03 -6.78021E+02 -7.38509E+03
  7.17285E+02 -2.90138E+03  3.75423E+03  3.11269E+02 -4.79278E+02  1.36570E+03  3.80628E+03  5.93079E+02
  2.43408E+03 -2.96758E+03  3.00454E+03  3.53762E+03  5.95731E+02  3.63252E+03  5.06039E+03  9.56444E+02
 -2.39995E+03 -6.33364E+02  2.26103E+03  3.79179E+03 -2.31765E+02 -1.96999E+03 -3.77407E+03  7.16003E+03
  1.06420E+03 -2.94028E+03  3.97535E+03 -2.63116E+03  3.52343E+03 -3.41402E+03  6.38428E+02 -2.64643E+03
  4.41765E+03  1.08849E+03 -1.21994E+03  5.15835E+03 -2.53952E+03 -8.67182E+02  8.00212E+02 -2.52780E+03
  2.25344E+02 -1.99445E+03  1.59070E+03 -1.57302E+02  3.47456E+02  5.58089E+02 -2.19563E+03 -6.64187E+01
 -3.82544E+02  4.61781E+03  1.28064E+03  3.27506E+02  2.74897E+03  2.91994E+03  2.30258E+03 -1.96094E+03
  6.75407E+02  1.40128E+03  1.77942E+03 -4.00336E+03 -1.65886E+03  4.47313E+03 -6.59020E+02  4.25298E+02
  1.93787E+03  1.79365E+03 -2.38201E+03 -9.66533E+02  1.80494E+03 -3.20754E+03 -2.84964E+02  3.03608E+02
  5.47604E+03  5.41454E+01 -1.10386E+03 -2.77785E+03  5.46270E+03  6.22758E+01  1.28282E+03  2.74992E+03
 -3.71530E+03  2.34181E+03  4.69159E+02  1.48830E+03 -3.33268E+03  2.70911E+03 -1.70791E+03 -2.75047E+03
 -8.12767E+02  1.47791E+03  2.86484E+03 -5.92681E+02  8.57485E+01 -2.64367E+03 -1.23014E+03 -1.38923E+03
  5.39399E+02  1.28649E+03  8.84936E+01 -4.57266E+03  4.92122E+02 -6.62568E+03  1.48627E+03  1.76643E+03
  2.81537E+03 -2.53213E+03 -2.61719E+01  8.54370E+02  4.62561E+03 -2.54791E+03  3.85113E+03  2.03838E+03
  1.75711E+02 -1.92562E+03 -9.03895E+01  3.47956E+03 -2.35387E+03  3.45153E+03 -1.45202E+03  9.12526E+01
  3.12059E+03 -5.65627E+03  3.70066E+03 -8.48807E+01  2.47044E+03  2.18122E+03 -1.14753E+03 -2.10387E+03
 -3.82301E+03  1.59003E+03  2.30114E+02 -1.29940E+03 -6.19737E+02  6.72596E+02  6.37896E+02 -2.64496E+03
  4.42626E+03  2.62370E+03 -4.17925E+03  1.46804E+03 -5.08296E+02  3.49715E+03 -4.09887E+03 -1.25277E+03
  1.53280E+03 -5.11232E+03 -8.73372E+02 -1.52574E+03 -2.36063E+03  1.89198E+03  2.14633E+03 -4.41558E+03
  2.23610E+03  1.11052E+03 -2.76977E+03  4.85627E+03 -1.95110E+03  1.41524E+03  2.58645E+02  2.31271E+03
 -1.74914E+03 -9.38400E+02  4.36705E+03  4.94083E+03 -9.82409E+01 -4.12688E+03 -1.88810E+03  2.25014E+03
  6.99908E+02 -7.25133E+02 -4.68247E+03  3.24217E+03  2.61952E+03 -2.68971E+03  1.63637E+03 -1.64336E+03
  3.93373E+03 -3.94639E+03  8.30569E+02 -3.27082E+03  7.49376E+02 -1.41731E+03  3.32565E+03  4.57812E+02
 -3.09794E+02  2.76967E+03 -8.36150E+02  2.36421E+03  4.22604E+03  2.48074E+03  1.38938E+02  4.48496E+03
 -5.44652E+03 -1.09435E+03 -2.51194E+02 -1.99432E+03  8.31124E+02 -3.22283E+02 -1.21060E+03 -1.74755E+03
  3.03817E+03 -3.99898E+02 -1.83388E+02 -6.37016E+02  2.50434E+03  2.78590E+03  3.85584E+03  1.29292E+02
  3.95492E+02  2.77369E+03 -2.76430E+03 -9.56672E+02 -1.39159E+03  3.60318E+02  2.78398E+03 -6.43170E+03
 -3.79728E+03 -9.02614E+02  2.96604E+02  4.65986E+03  1.00612E+03  4.70376E+03  1.40032E+03 -5.59582E+02
  2.25183E+03  2.41676E+03 -1.28792E+03 -3.43482E+03  2.83022E+03 -6.58927E+02  1.46217E+03 -1.41907E+03
  1.13889E+03  1.68957E+03  4.33780E+02 -2.59571E+02 -2.16843E+03  3.32155E+03 -8.57104E+02  2.35099E+03
 -1.13612E+03  1.97620E+03 -3.78497E+03 -2.23403E+03 -3.38843E+03  3.28039E+03  2.15915E+02  5.29951E+02
 -2.23931E+03  2.48067E+03 -4.22290E+03  1.40746E+03 -1.23636E+03 -9.38685E+02 -3.23241E+03 -1.93986E+03
 -2.79517E+03 -3.37084E+03  2.50526E+03  1.35165E+03  4.44581E+03  6.36210E+02  1.14384E+03  1.26705E+03
