 $NMID ID='MM_0lb_SNR50_13hz_g60_29.RAW', FMTDAT='(8E13.5)'
 TRAMP=1., VOLUME=1. $END
  3.12384E+05  2.75106E+03  3.40564E+05  2.50070E+05  8.36057E+04  3.38406E+05 -1.39400E+05  2.46293E+05
 -1.89978E+05  8.44078E+04 -1.12587E+05 -3.66615E+04  9.52135E+02 -4.62527E+04  5.23066E+04 -1.00583E+03
  3.72303E+04  5.85220E+04 -1.90177E+04  7.73609E+04 -5.95365E+04  6.39750E+04 -8.89476E+04  3.43769E+04
 -8.50001E+04 -1.19584E+04 -6.16437E+04 -5.15473E+04 -1.63999E+04 -7.20796E+04  2.60461E+04 -4.75482E+04
  3.97401E+04  3.60799E+03  1.74457E+04  4.49826E+04 -3.45814E+04  4.46783E+04 -6.86911E+04  5.40680E+03
 -5.40000E+04 -5.39958E+04 -8.07435E+03 -7.60132E+04  3.27377E+04 -5.76121E+04  5.03372E+04 -1.29725E+04
  4.58226E+04  2.03739E+04  3.65062E+04  2.31269E+04  1.41346E+04  2.70017E+04 -5.40398E+03  2.39219E+04
 -1.94545E+04  1.12917E+04 -1.92687E+04 -1.02303E+04  8.88313E+03 -1.28883E+04  2.04908E+04  1.57330E+04
  7.79609E+03  3.25259E+04 -3.47802E+04  3.31799E+04 -6.96530E+04  3.15933E+03 -5.70932E+04 -4.53987E+04
 -1.28224E+04 -6.80287E+04  4.15956E+04 -4.81039E+04  5.80070E+04 -7.94878E+02  3.44273E+04  3.45878E+04
 -5.03913E+03  3.76236E+04 -3.05674E+04  1.78567E+04 -3.32869E+04  4.15637E+02 -1.59125E+04 -9.33017E+03
 -1.43993E+04 -1.45846E+04 -1.22324E+03 -2.00393E+04  3.83873E+03 -2.24454E+04  1.42719E+04 -1.05255E+04
  1.37328E+04  3.12298E+03 -1.05085E+04  1.72113E+04 -2.52603E+04 -9.66823E+03 -9.10211E+03 -3.17947E+04
  2.01359E+04 -4.55744E+04  5.00449E+04 -2.51358E+04  4.85311E+04  1.91006E+04  1.74407E+04  4.58582E+04
 -2.11305E+04  3.75924E+04 -2.58079E+04 -2.07389E+02 -1.59410E+04 -3.06208E+04  1.83997E+04 -3.21813E+04
  3.96341E+04 -1.76917E+04  3.78655E+04  2.64279E+04  1.68805E+04  4.44151E+04 -1.39539E+04  6.02658E+04
 -3.15458E+04  3.34779E+04 -4.72754E+04  7.72271E+03 -4.58815E+04 -1.54983E+04 -2.44348E+04 -4.44094E+04
  4.88858E+03 -3.89690E+04  3.07847E+04 -1.15732E+04  3.43522E+04  1.02134E+04  4.47784E+03  2.05924E+04
 -1.63606E+04  1.24758E+04 -1.15949E+04 -8.24186E+03  1.49251E+03 -9.41616E+03  1.88031E+04  4.66663E+03
  2.00611E+04  2.09953E+04 -1.08352E+04  2.62193E+04 -2.37774E+04  1.61377E+04 -2.81348E+04 -4.05785E+03
 -2.32431E+04 -1.88620E+04 -7.13517E+03 -2.46986E+04  9.90660E+02 -2.30835E+04  1.81954E+04 -2.16422E+04
  2.61700E+04 -1.45109E+04  3.28584E+04  1.53347E+03  2.58752E+04  2.04427E+04  1.39415E+03  3.49066E+04
 -1.50559E+04  3.03259E+04 -2.67310E+04  1.38537E+04 -1.77342E+04 -6.29268E+03 -6.48925E+03 -1.49575E+04
  5.51826E+03  9.95176E+02 -8.59731E+03  4.62218E+03 -1.50870E+04  6.76300E+03 -1.76335E+04 -1.04322E+04
 -8.15056E+03 -2.02750E+04  6.89825E+03 -2.81220E+04  1.88958E+04 -1.96474E+04  1.35116E+04  2.86398E+03
  1.27411E+04  1.67569E+04 -3.87458E+03  2.42260E+04 -1.14232E+04  1.54252E+04 -2.18150E+04 -7.43366E+03
 -1.17525E+04 -1.74933E+04  1.81117E+02 -2.84459E+04  9.62631E+03 -2.07570E+04  1.75728E+04 -9.73394E+03
  2.39881E+04  4.55465E+03  1.36680E+04  5.80879E+03  2.51225E+03  2.93679E+03  1.25759E+04 -3.01397E+03
  2.21700E+04  4.61421E+03  2.18121E+04  1.23593E+04  1.17386E+04  3.32198E+04  1.54891E+02  3.80078E+04
 -1.84600E+04  3.16589E+04 -3.22443E+04  1.46480E+04 -3.78711E+04 -4.22934E+03 -3.65364E+04 -2.25115E+04
 -1.37655E+04 -2.97788E+04  1.06125E+04 -2.10769E+04  2.77752E+04 -1.10377E+04  2.35781E+04  5.71484E+03
  4.14085E+03  1.67614E+04 -8.97597E+03  1.69317E+04 -1.69143E+04  6.43033E+03 -1.22841E+04 -1.38666E+04
 -2.01348E+02 -2.35931E+04  8.62223E+03 -9.94265E+03  1.41498E+04  4.30037E+03  6.17868E+03  9.45801E+03
 -6.68172E+03  4.43662E+03 -7.00613E+03 -1.22742E+04 -2.11886E+03 -9.26029E+03  1.33412E+04 -1.66096E+04
  2.58760E+04 -7.92262E+03  2.32451E+04  2.31160E+03  2.19359E+04  1.77464E+04  7.47292E+03  2.04431E+04
 -4.16418E+03  2.58258E+04 -1.61925E+04  1.70546E+04 -1.68180E+04  1.90651E+03 -1.21957E+04 -1.93570E+03
 -8.58235E+03 -3.10824E+03  1.72239E+03  8.34240E+02  4.33294E+03  4.97390E+03 -4.69471E+03  2.45553E+03
 -1.02314E+04  4.91435E+01 -1.45535E+04 -9.43969E+03 -5.81524E+03 -1.49764E+04  4.69106E+01 -1.88219E+04
  9.96237E+03 -4.20656E+03  3.64880E+03 -1.25456E+03  2.33693E+02  8.59261E+03 -4.91113E+03  2.58115E+03
 -1.27039E+04 -1.15546E+04 -1.47446E+03 -1.30612E+04  7.55246E+03 -8.47957E+03  1.80675E+04 -3.92455E+03
  2.02039E+04 -2.08238E+02  1.63808E+04  1.33822E+04  2.50870E+03  1.29785E+04 -7.05455E+03  8.99768E+03
 -1.19314E+04  3.17625E+03  3.05447E+03 -5.64523E+03  3.33813E+03 -1.20496E+04  6.93744E+03 -1.18813E+03
  5.79307E+03  7.33334E+03 -1.67857E+03  9.87453E+03 -8.03956E+03  1.61743E+04 -1.59054E+04  2.37299E+03
 -6.18607E+03 -1.09474E+03 -9.37143E+02 -1.15849E+04  5.02117E+03 -3.06873E+03  1.65993E+03  7.46408E+03
  3.44261E+03  7.24186E+03 -5.46219E+03  1.40801E+04 -1.27177E+04  7.11709E+03 -1.40568E+04 -1.18535E+04
 -9.08253E+03 -1.10533E+04  2.77516E+03 -1.49548E+04  1.23586E+04 -8.07116E+03  7.62975E+03  3.53461E+02
  8.22093E+03  1.69706E+04 -5.92545E+03  1.21912E+04 -7.54852E+03  8.94443E+03 -1.09170E+04  1.96433E+03
 -8.44461E+03 -5.98126E+03  2.51469E+02 -9.08348E+03  4.95879E+03 -2.20693E+03 -1.10243E+03  2.14399E+03
  2.93624E+03  5.53148E+03 -5.06434E+03 -7.87916E+02  1.60140E+03 -2.67782E+03  3.00853E+03 -9.70419E+02
  1.00026E+04 -4.12005E+03  1.24255E+04  8.62390E+03  1.27461E+04  7.27247E+03  7.79453E+03  1.17890E+04
 -4.06573E+03  1.74825E+04 -1.32129E+04  1.13810E+04 -1.96803E+04  1.41797E+03 -1.30197E+04 -4.65403E+03
 -1.49012E+04 -1.10671E+04  8.68089E+02 -5.26312E+03  4.69849E+03 -1.27678E+03  3.41861E+03 -7.67540E+02
  4.67339E+03  4.50956E+03  3.00663E+03  3.67706E+03  1.24153E+03 -2.12455E+03  1.21569E+04 -3.88485E+03
  5.04116E+03 -1.26576E+03 -8.98904E+02  9.74456E+03  3.79395E+03  6.86715E+03 -4.35756E+03  5.17503E+03
 -1.26349E+04 -6.02968E+03 -6.31316E+03 -7.12582E+03 -6.15935E+03 -9.92092E+03  4.85906E+03 -1.07420E+04
  4.47261E+03 -8.86379E+03  1.28011E+04  2.81033E+03  1.11526E+04  2.41974E+03 -6.19383E+03  1.39806E+04
 -3.96383E+03  1.01423E+04 -3.19137E+03  6.89600E+03 -1.56291E+02 -5.00260E+03 -4.95605E+03 -1.83754E+03
  1.74369E+03  3.67902E+03 -2.60851E+03  4.57889E+03 -4.25777E+03 -7.86342E+03 -5.10661E+03  1.06467E+03
 -9.16944E+03 -1.11018E+04  5.46427E+03 -1.14975E+04  6.07688E+03 -9.76693E+03  6.79525E+03 -3.71332E+02
  1.25631E+04  6.69875E+03  5.65995E+03  1.06247E+04 -2.24696E+03  9.38523E+03 -3.85239E+03  3.18576E+03
 -5.25280E+03  9.74500E+02 -6.64445E+03 -8.16080E+03  2.11135E+03 -1.06234E+04  3.67557E+03 -1.16654E+04
  1.00551E+04 -1.14047E+03  4.93387E+03  6.95794E+02  4.46444E+03  6.97958E+03  9.53212E+02  3.48336E+03
 -1.25518E+03 -1.93028E+03  1.34845E+03  1.29993E+03  3.39344E+03  1.36012E+03  6.37619E+03  3.32255E+03
 -1.19797E+03  1.07476E+04 -4.89869E+03  9.60769E+03 -1.07539E+04  3.99667E+03 -1.24832E+04 -8.62194E+03
 -3.02659E+03 -1.02036E+04  1.29729E+03 -1.03441E+04  2.94954E+03 -8.20710E+03  1.30078E+04  6.76860E+02
  9.24748E+03  5.25982E+02  1.40502E+03  4.43590E+03  3.69548E+03  7.60079E+03 -2.80905E+03  3.03763E+03
 -2.08411E+03 -4.25899E+03  3.68158E+03 -4.31843E+03  4.26480E+03  5.95038E+02  1.22231E+04  1.54878E+03
  9.30936E+02  1.26989E+03  5.83683E+02  1.12443E+02 -1.66127E+03  4.39667E+03  1.75548E+03  7.83381E+02
  5.95180E+03 -1.43362E+03  6.05999E+03  5.70314E+03 -4.79265E+03  1.59016E+03 -2.03603E+03  3.97589E+03
 -7.96628E+03  2.98328E+03 -3.60752E+03  1.59721E+03 -4.69915E+03 -4.69967E+03 -6.64244E+03 -2.07047E+03
  6.27726E+02 -4.72380E+03 -1.59218E+03 -6.13407E+03  6.28727E+03 -2.45038E+03 -6.77416E+03 -6.53193E+02
 -5.80112E+03  4.54208E+03 -1.57032E+03 -4.53699E+03 -2.80699E+03 -8.72193E+03 -5.42461E+02 -1.43824E+03
  3.24926E+03 -7.25527E+03  3.89085E+03  3.47867E+03  3.13199E+03  1.32806E+03  2.10409E+02  3.23342E+02
 -3.85413E+03  1.44441E+03 -2.28068E+03  2.93933E+03  3.10797E+02  6.69792E+02  6.18011E+03  1.79979E+03
  5.25619E+03  1.50410E+03  3.21208E+02  1.56349E+03 -7.51276E+02 -5.03106E+02 -2.64911E+03  8.61804E+03
 -6.65191E+00  2.89221E+02  4.21207E+03 -3.45301E+02 -1.64528E+03 -1.50708E+03  1.38558E+03 -4.33158E+03
 -2.38586E+02 -6.50718E+03  8.21348E+02  5.81125E+03  5.64620E+03  3.24521E+03 -2.84331E+03  4.86895E+03
  1.42103E+03  4.07637E+03  1.16726E+03 -1.16843E+03 -2.01253E+03  3.03171E+03  3.27152E+03 -1.11906E+03
 -4.89640E+03  3.20684E+03 -2.56864E+03  5.36473E+03 -5.20197E+03  4.91534E+03 -9.13189E+02 -4.50256E+03
 -4.80854E+03 -6.72439E+03  1.81890E+03 -8.37696E+03  6.31078E+03 -8.10838E+03  1.01083E+04 -1.03206E+04
  6.00779E+03 -1.36451E+03  5.83298E+03  6.76372E+03  1.95057E+02  5.74128E+03 -4.97214E+03  4.93258E+02
 -5.28273E+03  1.55941E+03  5.48085E+01  1.32611E+02 -1.09656E+01 -8.50828E+02  5.22484E+01  5.79492E+03
 -2.03210E+03 -4.45332E+03  3.60741E+01 -1.70200E+03  2.73660E+01 -1.06731E+03 -5.06322E+02 -7.13920E+03
  5.13327E+03 -3.12488E+03  4.81659E+03  4.14541E+02  6.24383E+03  3.71939E+03  4.85845E+02  1.75534E+03
 -2.58826E+03  4.44487E+03 -8.73143E+03  3.33933E+03 -9.05183E+03 -3.82387E+03 -2.80353E+02 -5.86867E+03
 -5.43467E+03 -7.69481E+03  2.25798E+03 -8.19392E+03  7.55329E+03  1.85699E+03  2.99413E+03  5.20703E+01
  3.46652E+03 -4.38765E+02  2.78745E+03  4.20899E+03 -3.46132E+03  1.35452E+03 -2.05019E+03 -2.09422E+02
  2.21411E+03  2.39373E+03  5.98599E+03  8.18166E+02  4.20287E+01 -4.10240E+03  4.09190E+03  4.60354E+03
  1.86354E+03  1.45720E+03 -2.30221E+03  6.20329E+03 -2.92647E+03 -3.50312E+03  3.29593E+03 -2.90268E+03
  3.56942E+03 -9.73729E+02  1.77134E+03 -3.13493E+03 -5.61809E+02 -8.40477E+02  1.68793E+03 -2.79383E+03
  7.14195E+03  5.86836E+03 -6.38510E+03  2.78781E+03 -2.42974E+03  4.05034E+03 -5.55212E+03  9.17220E+02
 -6.60584E+02 -4.09411E+03 -7.95739E+02  2.88998E+03 -2.53422E+03 -6.41820E+02  1.50641E+02  4.23596E+03
 -6.19159E+03  8.51596E+02 -3.84923E+03  2.36033E+03  1.81543E+03 -7.24189E+03  3.11264E+03 -1.59021E+03
  3.57502E+03 -3.00565E+03  2.48062E+02 -8.96661E+02  1.83948E+03  3.21300E+03 -6.08695E+03 -1.48202E+03
