 $NMID ID='MM_0lb_SNR50_19hz_g60_43.RAW', FMTDAT='(8E13.5)'
 TRAMP=1., VOLUME=1. $END
  3.10364E+05  2.23325E+03  3.37647E+05  2.52001E+05  8.76474E+04  3.36510E+05 -1.31655E+05  2.50432E+05
 -1.91394E+05  8.18279E+04 -1.12152E+05 -3.65551E+04  1.22186E+03 -4.93679E+04  5.44079E+04 -3.06702E+03
  3.72709E+04  5.46385E+04 -1.71517E+04  7.39262E+04 -6.17075E+04  6.72856E+04 -8.43091E+04  3.36450E+04
 -8.34180E+04 -1.20532E+04 -5.43195E+04 -5.06014E+04 -1.22828E+04 -6.30011E+04  3.19846E+04 -4.47405E+04
  4.08103E+04  2.74327E+03  1.33016E+04  4.50707E+04 -3.63410E+04  4.42545E+04 -6.53717E+04 -1.07856E+03
 -5.35505E+04 -5.57062E+04 -1.15806E+04 -7.67816E+04  3.12418E+04 -5.24714E+04  5.15887E+04 -1.95717E+04
  4.32032E+04  1.45591E+04  3.16430E+04  2.47775E+04  1.84171E+04  2.77696E+04 -4.58770E+03  2.55077E+04
 -2.59055E+04  1.55382E+04 -2.30491E+04 -6.07413E+03  6.04234E+03 -1.12571E+04  1.88158E+04  1.01418E+04
  4.80114E+03  3.86525E+04 -3.64757E+04  3.90387E+04 -6.64604E+04  9.44599E+02 -5.71157E+04 -4.54792E+04
 -1.39895E+04 -5.98539E+04  4.09697E+04 -4.13219E+04  5.58327E+04 -6.47237E+02  3.74808E+04  3.44745E+04
 -3.12058E+03  3.61777E+04 -2.42401E+04  1.48093E+04 -2.77905E+04 -5.66232E+03 -1.36200E+04 -7.72680E+03
 -3.78730E+03 -1.06307E+04 -4.59639E+03 -1.63966E+04  7.11410E+03 -2.19744E+04  1.74008E+04 -9.77366E+03
  1.26898E+04  7.54566E+03 -9.72113E+03  1.14734E+04 -2.03931E+04  6.17709E+01 -6.31396E+03 -3.26616E+04
  1.90085E+04 -3.88718E+04  4.63914E+04 -1.78262E+04  3.72631E+04  1.98452E+04  1.66860E+04  4.24616E+04
 -2.11434E+04  3.15097E+04 -2.76718E+04  1.92818E+03 -7.34170E+03 -2.43367E+04  1.70156E+04 -2.99596E+04
  3.82236E+04 -6.88570E+03  3.35731E+04  2.04104E+04  1.68833E+04  4.80303E+04 -8.10290E+03  4.96226E+04
 -3.01807E+04  3.24180E+04 -4.42321E+04  1.45125E+04 -4.17673E+04 -1.40404E+04 -2.16466E+04 -3.61265E+04
  7.28534E+03 -3.95167E+04  2.88476E+04 -1.49025E+04  2.75359E+04  1.07733E+04  4.42253E+03  1.51436E+04
 -1.21315E+04  9.93076E+03 -9.65551E+03 -7.78501E+03  1.14799E+03 -1.10724E+04  1.80534E+04  1.72753E+03
  1.11828E+04  1.82185E+04 -1.02585E+04  2.20060E+04 -2.17101E+04  1.23754E+04 -2.47583E+04 -5.37257E+03
 -1.44947E+04 -1.96735E+04 -5.68988E+03 -2.30959E+04  9.47296E+03 -1.60639E+04  1.08641E+04 -1.87542E+04
  2.18924E+04 -1.01942E+04  3.12312E+04 -4.79643E+02  2.04573E+04  1.49255E+04  5.70417E+03  2.88382E+04
 -1.72400E+04  2.31480E+04 -2.67283E+04  6.32468E+03 -2.01850E+04 -1.44077E+04 -5.59521E+03 -1.35102E+04
  2.15819E+03 -2.37979E+03 -1.90459E+03  1.78863E+03 -1.41499E+04 -2.37973E+02 -1.13635E+04 -6.01228E+03
 -1.14590E+04 -1.95436E+04  5.79043E+03 -1.88543E+04  1.22850E+04 -1.65683E+04  1.84503E+04 -2.66839E+03
  7.79882E+03  1.21876E+04 -1.33945E+02  1.58281E+04 -9.91181E+03  7.98435E+03 -1.82875E+04 -3.96712E+03
 -1.07788E+04 -1.24495E+04 -3.40543E+03 -2.09087E+04  7.34385E+03 -1.86709E+04  1.23348E+04 -8.50164E+03
  1.52195E+04  5.13329E+02  1.33964E+04  2.14828E+03  5.97202E+03 -7.78143E+02  9.38649E+03 -1.60129E+03
  1.28810E+04  7.75656E+01  1.69625E+04  1.52293E+04  6.74420E+03  2.60840E+04 -2.84625E+03  2.90601E+04
 -1.94757E+04  2.26206E+04 -2.21370E+04  9.68960E+03 -2.65207E+04 -1.56605E+03 -1.84847E+04 -1.67797E+04
 -1.06721E+04 -2.04046E+04  5.21297E+03 -1.87640E+04  1.71080E+04 -9.72266E+03  1.21194E+04  8.97805E+03
  5.34570E+03  1.59043E+04 -6.88735E+03  1.09393E+04 -1.60437E+04  5.67253E+03 -8.56903E+03 -1.07676E+04
 -2.85417E+03 -1.25589E+04  1.32850E+04 -9.03211E+03  8.41526E+03 -7.47571E+01 -1.24776E+03  3.25845E+03
 -1.30889E+03  2.45304E+03 -7.86458E+03 -6.93307E+03 -1.46322E+03 -9.60893E+03  1.07020E+04 -1.09278E+04
  1.17076E+04 -5.37287E+03  1.75908E+04  2.68088E+03  1.28321E+04  1.12731E+04  1.00558E+04  1.63902E+04
 -1.89902E+03  1.70074E+04 -9.01497E+03  8.77672E+03 -1.17631E+04  5.15044E+03 -8.89116E+03 -5.71494E+03
 -5.21892E+03 -6.18538E+03 -1.50920E+03 -1.17942E+03 -4.95101E+02  1.49694E+03 -3.58387E+03  5.57085E+03
 -1.07839E+04  2.24205E+03 -6.41585E+03 -7.84069E+03 -1.66500E+03 -1.17827E+04  2.00339E+03 -9.88129E+03
  4.78674E+03 -3.84234E+03  7.71064E+03  1.72702E+03 -9.98524E+02  5.91878E+03 -4.37794E+03  2.87404E+03
 -1.54642E+03 -4.66405E+03  7.07490E+02 -6.13457E+03  8.02411E+03 -7.71068E+03  1.27930E+04 -3.52455E+03
  1.62446E+04 -1.67748E+03  6.67240E+03  4.62107E+03 -1.60438E+03  1.20998E+04 -5.02373E+03  9.01521E+03
 -7.74074E+03  2.89327E+03 -8.77716E+02 -3.72651E+03  5.53423E+03 -1.64684E+03  1.06393E+03 -5.33076E+03
  2.96094E+03  5.95924E+03  6.60121E+02  8.20695E+03 -4.35894E+03  7.91438E+03 -8.45166E+03  3.32468E+03
 -4.99835E+03 -7.07618E+03 -2.59351E+03 -9.79171E+03  2.88745E+03 -4.64856E+03  5.16181E+02  2.11935E+03
  3.55374E+01  1.97274E+03 -3.82057E+03  4.76391E+03 -8.71344E+03 -3.88175E+00 -8.05732E+03  2.17969E+03
 -3.55112E+03 -8.08633E+03  1.94914E+03 -1.05858E+04  7.22290E+03 -6.39785E+03  1.03556E+04  3.01202E+03
  3.23800E+03  3.58835E+03 -2.66447E+03  8.59102E+03 -3.81586E+03  3.75312E+03 -1.82611E+03 -3.20315E+03
 -1.08857E+04 -5.25059E+03  3.34800E+02 -7.39864E+03  2.67077E+03 -5.96689E+03  1.57561E+03 -7.79789E+03
  2.06495E+03  4.18544E+03  1.67717E+03  2.50258E+02  5.22994E+02 -1.63837E+03  3.12329E+03 -3.07024E+03
  4.59713E+03 -1.92379E+03  4.43183E+03 -3.35600E+02  6.52549E+03  2.36300E+03  5.64036E+03  7.31176E+03
  8.83895E+02  1.07451E+04 -8.63026E+03  3.36418E+03 -1.30701E+04  2.76842E+03 -8.02759E+03 -3.26634E+03
 -1.61411E+03 -9.46333E+03 -1.98894E+03 -5.11581E+03  4.15654E+03 -2.81751E+03  2.14092E+03  4.60673E+02
  5.77309E+02 -3.39193E+03  4.13884E+03 -2.58797E+03  4.04455E+03 -7.75893E+02  2.73336E+03  3.39781E+03
  2.68814E+03  2.53156E+03  4.85673E+03  3.04197E+03 -7.40492E+02  1.56380E+03 -5.41422E+03  2.56524E+03
 -5.19385E+03 -1.25746E+03 -2.28554E+03 -5.09903E+03  8.20054E+03 -3.56127E+03  2.97551E+03 -2.75871E+03
  3.03987E+03 -5.63773E+03  5.47512E+03  1.71783E+03  7.97769E+03  6.72536E+03 -8.63469E+02  5.14408E+03
 -2.00696E+03  9.02569E+03  1.74339E+03  4.71147E+03 -1.77799E+01  1.23994E+03 -3.34715E+03 -1.18342E+03
  2.50826E+03 -3.93057E+02 -1.32420E+03  3.05037E+03 -1.05926E+03  3.29878E+03 -4.36603E+03 -2.23889E+03
 -3.75107E+03 -1.89027E+03  1.30536E+03 -5.92470E+03  3.34824E+03 -3.90928E+03  5.94673E+01  7.05992E+02
  4.33397E+03  4.56654E+03 -2.44905E+03  3.81691E+03 -2.15975E+03  4.19378E+03 -2.36609E+03  5.05647E+03
 -3.75188E+03 -1.10125E+03 -3.14318E+03 -3.86838E+03 -7.58173E+02 -5.93555E+03 -1.74614E+03 -5.04370E+03
  2.61174E+03  1.19211E+03  6.85520E+02  2.51764E+03 -5.85621E+02 -7.93185E+02 -3.08303E+03  1.18483E+03
 -1.77519E+03 -2.93868E+03  3.10851E+03  1.06583E+03 -2.26738E+03  3.13847E+03  1.79626E+03  3.06760E+03
  1.69703E+03 -1.67510E+03  2.91410E+02 -4.11025E+02 -2.51413E+03  1.16199E+02 -1.43103E+03 -1.35152E+03
 -2.72503E+03  1.17230E+03 -1.03075E+03 -4.15828E+03  1.34778E+03  7.57829E+02  7.66777E+03 -6.74125E+03
 -1.91016E+03 -2.83833E+03 -6.49372E+02  2.58869E+03 -1.64932E+03 -2.57975E+03 -1.63756E+03 -1.97557E+03
 -2.62091E+03 -8.57387E+02  6.74741E+02 -8.18896E+01 -2.44892E+03 -1.37071E+03  2.46813E+03 -1.68652E+03
  3.37222E+03  8.08307E+02  1.06333E+03 -2.55776E+03 -6.10924E+02  3.39478E+03 -2.18278E+03 -1.77251E+03
 -8.08599E+02  3.00757E+02 -5.78309E+02 -1.32339E+03  2.24262E+02 -9.39525E+01  1.53485E+03  6.18874E+03
 -1.75674E+03  9.91945E+02  6.62541E+02 -1.05910E+03 -4.88565E+03 -4.46634E+03  3.39511E+03 -4.84549E+03
  1.82715E+03 -1.66175E+03 -1.45824E+03  2.05055E+03  4.08671E+03  5.05976E+03  6.15552E+02  2.64672E+03
 -9.62899E+02  3.83706E+03 -2.66361E+03 -3.11750E+03  1.11899E+03 -5.49677E+03  5.19137E+03 -1.91609E+03
  1.80708E+03 -3.76871E+03 -1.47273E+02 -6.56729E+02  2.45911E+03 -5.23583E+03  2.86597E+03 -1.17227E+03
  2.93565E+03  1.34790E+03 -1.19026E+02 -7.81662E+02  7.50422E+02  3.06901E+03  1.70751E+03 -3.52419E+03
  2.55534E+03 -2.32518E+03  2.50351E+03 -1.04011E+03  6.24277E+02  1.73908E+03 -4.62648E+03  1.81169E+02
  3.46269E+03  3.44284E+03 -6.24141E+03  2.29867E+02 -1.38370E+03 -2.49342E+03  5.15326E+02  3.33438E+03
  2.35267E+03 -1.48165E+03  2.25967E+03  1.70423E+03 -1.56687E+03  6.22464E+02  4.42348E+02  1.85116E+01
  8.12876E+02  9.66509E+02 -3.27209E+02 -1.18671E+03 -2.75476E+03  1.90005E+03  1.06405E+02  4.14405E+03
  1.59332E+03  2.67814E+03 -2.10563E+03 -2.66881E+02 -4.40105E+03 -1.11950E+03 -3.39492E+03 -2.81967E+03
  1.06393E+03 -2.02610E+02  1.85115E+03 -1.39495E+03  3.83815E+03  2.64577E+03 -1.62201E+03 -6.63388E+02
 -2.53573E+03 -2.56371E+03  4.95595E+02  6.23414E+02  5.81080E+02  4.52361E+03  4.19778E+03 -9.10775E+02
 -1.30969E+03  1.99034E+03  4.78470E+02  8.41065E+01  3.83411E+03  4.26418E+03 -1.44248E+03 -1.52541E+03
 -1.62206E+03  1.66390E+03  1.39375E+03 -5.74027E+02  3.01169E+03  1.64441E+03 -7.57481E+02 -9.14094E+02
  4.63969E+03 -1.08916E+03  1.14864E+03 -4.68401E+02  3.13654E+03  7.01993E+02 -2.43753E+03  1.05287E+03
 -3.74206E+02 -2.57399E+03  1.30124E+03 -2.17144E+02 -2.69160E+03 -4.78732E+03  1.48923E+03  1.14221E+03
 -2.35445E+03 -1.90502E+03  3.82381E+03 -1.09697E+02 -2.10100E+03  2.23344E+03 -2.41668E+03 -2.41072E+02
 -1.75767E+02 -2.89284E+03  3.69372E+03  8.78362E+02 -9.60711E+02  3.63011E+03 -2.17229E+03 -2.54222E+03
  3.87133E+02 -2.86722E+03  1.36772E+03  1.80778E+03  4.29710E+03  3.47230E+03  1.10040E+03 -6.17712E+02
 -2.32396E+03  2.92970E+03 -8.52078E+03 -3.07882E+02 -3.29967E+03 -1.08046E+03  2.93617E+03  1.54803E+03
 -1.81197E+03 -1.24380E+03  1.24405E+03  2.49595E+03  3.97478E+03 -1.28492E+03  2.32035E+03  2.73382E+03
 -9.66875E+01 -5.24171E+02  1.99780E+03 -1.26198E+03 -1.44276E+03  1.24179E+03 -2.36031E+03 -1.61427E+03
 -8.38324E+02  2.93030E+03 -3.92993E+03  3.29670E+03 -8.80808E+02 -9.38038E+02 -1.67037E+03  5.88774E+02
 -1.27711E+03 -1.35654E+03  3.04711E+03  4.94385E+03  2.26258E+03 -2.16321E+03 -2.73802E+03 -3.90956E+03
 -1.80804E+02  2.69058E+03  1.14015E+03 -1.81236E+03 -1.81491E+03  1.77345E+03 -3.25135E+03  1.75688E+03
