 $NMID ID='MM_0lb_SNR50_16hz_g50_98.RAW', FMTDAT='(8E13.5)'
 TRAMP=1., VOLUME=1. $END
  3.14192E+05 -3.32123E+03  3.33384E+05  2.51222E+05  8.44598E+04  3.38651E+05 -1.32585E+05  2.51049E+05
 -1.86506E+05  8.07035E+04 -1.12936E+05 -3.44519E+04  2.35335E+03 -5.30921E+04  5.30422E+04  3.50710E+02
  3.50911E+04  5.47125E+04 -2.31301E+04  7.46815E+04 -6.00244E+04  6.17844E+04 -8.37455E+04  2.89047E+04
 -8.02452E+04 -8.95688E+03 -5.76174E+04 -5.18136E+04 -1.53503E+04 -7.12502E+04  2.54328E+04 -4.64827E+04
  4.19043E+04  1.68361E+03  2.03980E+04  4.47417E+04 -3.50218E+04  4.92064E+04 -6.77704E+04  2.44610E+03
 -5.28717E+04 -5.79508E+04 -6.59146E+03 -7.63274E+04  3.45953E+04 -6.02799E+04  4.57811E+04 -1.87189E+04
  4.45575E+04  1.83705E+03  2.93281E+04  3.07286E+04  1.43513E+04  2.76852E+04 -7.76442E+03  2.95970E+04
 -2.03235E+04  1.41194E+04 -1.95035E+04 -7.85018E+03  4.37794E+03 -4.61390E+03  2.25791E+04  1.09526E+04
  6.57099E+03  3.39072E+04 -3.31315E+04  3.69525E+04 -6.05891E+04 -7.17120E+01 -5.44454E+04 -4.04356E+04
 -1.50495E+04 -6.00755E+04  3.57078E+04 -4.62572E+04  5.55545E+04  1.10331E+03  3.52194E+04  2.87187E+04
 -6.44815E+03  3.58178E+04 -2.82592E+04  1.45724E+04 -2.79416E+04 -7.65395E+03 -1.58599E+04 -1.37816E+04
 -1.12675E+04 -1.54837E+04  5.36371E+02 -1.89564E+04  4.42176E+03 -1.67745E+04  1.73746E+04 -1.06970E+04
  5.97540E+03  2.51252E+03 -7.23759E+03  1.28031E+04 -2.07006E+04 -8.87961E+03 -3.87647E+03 -3.05208E+04
  1.98419E+04 -4.17643E+04  5.14241E+04 -2.03725E+04  4.34719E+04  2.17939E+04  1.58272E+04  4.28025E+04
 -1.71512E+04  3.02472E+04 -2.61159E+04  8.87785E+02 -9.18263E+03 -2.58423E+04  2.26761E+04 -3.52215E+04
  4.01582E+04 -8.91825E+03  2.90084E+04  2.16704E+04  1.61876E+04  4.20050E+04 -1.04046E+04  5.00655E+04
 -3.22411E+04  2.92850E+04 -4.25419E+04  3.76123E+03 -4.04931E+04 -1.45186E+04 -2.09379E+04 -3.96483E+04
  7.82111E+03 -3.62145E+04  2.86865E+04 -1.78271E+04  3.10580E+04  1.01270E+04  4.22902E+03  1.81282E+04
 -1.09468E+04  4.97362E+03 -9.63729E+03 -9.52889E+03  9.19941E+03 -1.31054E+04  1.92078E+04  6.04593E+03
  1.38118E+04  2.18496E+04 -1.10505E+04  2.72374E+04 -2.20962E+04  1.16131E+04 -2.82767E+04 -5.25146E+03
 -1.92517E+04 -1.66273E+04 -1.45541E+04 -2.03631E+04  2.35528E+03 -1.93017E+04  1.43817E+04 -1.22123E+04
  2.54732E+04 -1.00210E+04  2.83247E+04  2.66147E+03  2.68836E+04  1.58431E+04  3.51061E+03  3.34654E+04
 -1.67342E+04  2.83677E+04 -2.66382E+04  1.11203E+04 -1.83182E+04 -1.26633E+04 -6.28116E+03 -1.47096E+04
  6.23555E+03 -4.31782E+03 -1.52370E+03  8.29018E+03 -1.39808E+04  5.17847E+03 -1.48261E+04 -7.64634E+03
 -8.96365E+03 -1.72151E+04  5.23005E+03 -2.28734E+04  1.46232E+04 -1.44761E+04  1.37873E+04  2.51267E+03
  1.19666E+04  1.08085E+04  1.00617E+03  1.84646E+04 -1.35132E+04  1.06002E+04 -1.83900E+04 -6.35193E+03
 -1.24652E+04 -1.06534E+04 -4.10975E+03 -1.40355E+04  8.57707E+03 -1.80380E+04  1.88670E+04 -1.28431E+04
  1.56526E+04 -2.32383E+03  1.25083E+04  5.03828E+03  5.27847E+03 -3.84797E+01  1.07054E+04 -4.16695E+03
  1.75972E+04  5.30030E+03  1.74373E+04  1.22349E+04  1.40456E+04  2.77701E+04 -8.47646E+03  3.49430E+04
 -1.99396E+04  2.13835E+04 -3.45450E+04  1.08200E+04 -3.27638E+04  2.20102E+03 -2.49101E+04 -2.04775E+04
 -1.67443E+04 -2.23668E+04  8.76771E+03 -2.18690E+04  2.37329E+04 -1.45754E+04  2.38260E+04  6.67472E+03
  5.94250E+03  8.69067E+03 -1.42274E+04  1.35593E+04 -1.55470E+04 -1.33963E+02 -6.77624E+03 -7.78541E+03
 -4.22419E+03 -1.16118E+04  7.12217E+03 -8.87898E+03  9.20351E+03 -2.61994E+03  3.69425E+02  9.06581E+03
 -7.58753E+03  3.33994E+03 -7.06749E+03 -4.76341E+03 -4.07843E+02 -1.25070E+04  8.63523E+03 -6.86799E+03
  1.51854E+04 -1.05717E+04  1.41954E+04  2.38186E+02  1.50842E+04  9.14831E+03  6.53382E+03  1.96182E+04
 -6.48926E+03  2.13379E+04 -9.63091E+03  1.68675E+04 -9.88765E+03  6.82233E+03 -1.16297E+04  8.13560E+02
 -4.73380E+03 -5.36516E+03 -2.86047E+03 -4.00922E+03 -3.60728E+02  6.23427E+02 -6.61298E+03  1.50924E+03
 -1.05165E+04 -2.28870E+03 -6.95643E+03 -3.38080E+03 -4.63474E+03 -1.04901E+04  5.17927E+03 -1.09684E+04
  1.09833E+04 -8.72425E+03  4.10899E+03  3.14779E+03  4.56310E+03  2.02566E+03 -8.41266E+03  1.72428E+03
 -5.53509E+03 -6.88801E+03 -2.11976E+03 -7.51918E+03  1.73101E+03 -1.19178E+04  1.28803E+04 -4.06414E+03
  1.53764E+04  1.35140E+02  9.65362E+03  4.58682E+03  3.59770E+03  1.11797E+04 -4.71886E+03  9.15496E+03
 -8.15645E+03  6.40766E+03  1.06590E+03 -1.43181E+03  1.38674E+02 -3.13863E+03  9.92316E+03  1.57430E+03
  6.55275E+03  8.10861E+03  6.49716E+03  5.36858E+03 -7.43300E+03  5.85827E+03 -8.72562E+03 -1.43691E+03
 -9.00987E+03 -5.57357E+03 -4.69313E+02 -6.41944E+03  6.03913E+03 -5.99424E+03  4.06003E+03  4.91215E+03
  9.19277E+02  3.77957E+03 -3.91029E+03  5.16323E+03 -1.04217E+04  1.63956E+03 -3.77796E+03  5.39650E+02
  6.08653E+02 -7.38468E+03  3.32245E+03 -7.56220E+03  7.63644E+03 -5.83832E+03  6.02499E+03 -3.59001E+03
  5.74580E+03  8.36965E+03 -3.51484E+03  4.04617E+03 -2.48258E+03  5.65578E+03 -7.90020E+03 -5.39449E+03
 -8.05720E+03 -3.51098E+03 -1.30154E+03 -4.79832E+03  6.67212E+02 -6.25675E+03  5.49455E+03 -4.29366E+03
 -5.50358E+02  4.79483E+03  2.63897E+03  5.09602E+03 -4.19951E+03 -2.70847E+03  1.78003E+03  2.35493E+03
  4.43543E+03 -3.28649E+03  8.85557E+03  1.33659E+03  7.47053E+03 -8.69826E+02  5.13031E+03  1.18504E+04
 -9.85304E+02  1.71563E+04 -1.22099E+04  1.02870E+04 -1.09402E+04  1.86091E+03 -8.71721E+03 -6.61358E+03
 -4.85558E+03 -4.22284E+03 -1.31796E+03 -7.95174E+03  2.46078E+03 -5.88358E+03 -7.46508E+02  2.89393E+03
  2.70246E+03 -7.84358E+03  4.58001E+03 -5.75969E+03  9.13030E+02 -6.28548E+02  7.63531E+03 -3.88632E+03
  7.60377E+03  3.12170E+02  4.27537E+02  7.93343E+03 -2.07840E+03  9.27436E+03 -6.83556E+03 -1.39075E+03
 -8.10749E+03 -2.87701E+03 -5.15533E+03 -3.26555E+03 -6.02306E+02 -7.44642E+03  5.83337E+03 -6.00361E+03
  7.17574E+03 -6.61977E+03  1.06741E+04  2.62147E+03  4.37206E+03  6.42670E+03  2.17158E+03  4.08506E+03
  4.00027E+02  6.25839E+03 -4.87014E+03  5.82346E+03 -8.25168E+03  9.63681E+02 -4.16966E+03 -5.72162E+01
 -3.57137E+02  3.97239E+03 -5.62537E+02  1.88584E+03 -2.05930E+03 -9.08571E+01 -3.38116E+03 -2.99919E+02
 -4.70355E+03 -6.90926E+03 -1.90967E+03 -9.12871E+03 -3.97578E+02 -4.62695E+03  6.19373E+03 -2.70536E+03
  6.41895E+03  6.80779E+03  3.39353E+03  3.83508E+03 -5.96736E+03  8.14413E+03 -1.17116E+03  5.43186E+03
 -5.72051E+03  9.42600E+02 -3.82169E+03 -1.45509E+03 -1.82277E+03 -4.68593E+03  3.79894E+03 -1.32842E+03
  2.38727E+03 -1.33602E+03  1.88035E+03  3.25596E+02  2.46167E+03 -3.28971E+03  1.92660E+00 -2.34884E+03
  1.74851E+03 -1.69455E+03  2.55015E+03 -3.84411E+00  6.24071E+03  6.74053E+03 -1.65633E+03  4.18935E+03
 -6.16470E+02  2.12262E+02 -4.50654E+03  1.05023E+04 -4.54221E+03  3.76951E+03 -1.12726E+04  2.19086E+03
  7.55014E+02 -9.60065E+03  2.39344E+03 -4.93326E+03  1.90237E+03 -4.33167E+03  7.30220E+03 -3.11747E+03
  3.38432E+03  4.75152E+03  4.13617E+03  1.46742E+03  6.21439E+03  3.48287E+03 -1.00224E+02  3.27811E+02
 -4.52924E+03  1.25589E+03  1.02915E+03 -3.36013E+03 -9.18450E+02 -2.79312E+03  1.84637E+03  2.55958E+03
 -7.78283E+01 -2.38704E+03  2.28920E+03  1.82127E+02  4.30942E+03  2.40088E+03  1.61256E+03 -2.15550E+03
  5.55189E+03  2.01816E+03 -1.59508E+03  2.12952E+02  3.97058E+03  2.10003E+03 -3.73122E+03  7.07507E+02
 -1.99204E+03  7.45073E+02 -8.20006E+02  2.55122E+03 -2.85147E+03 -2.53164E+03 -1.45147E+03 -2.93111E+03
  6.85633E+03 -1.90867E+03  1.21300E+03 -2.28147E+03  3.08004E+02  1.17684E+00 -4.56660E+03  1.29659E+03
 -1.66887E+03  9.44167E+02 -1.13665E+03 -5.05930E+03 -5.46297E+02 -4.82579E+03  2.37593E+03 -1.12912E+03
  3.69961E+03 -1.65267E+03  3.52699E+03 -3.25669E+03  5.71405E+03  9.19188E+02 -2.57382E+03  4.21933E+03
 -1.20613E+03 -7.89088E+02 -3.20313E+03  1.50005E+03  4.93294E+03  1.83811E+03  4.13089E+03 -6.85259E+02
  7.48810E+02  1.29015E+03  4.96907E+03 -2.30380E+02  4.85548E+03  3.65898E+03 -1.59031E+03  4.16456E+03
 -3.43477E+03 -1.37669E+03 -1.73266E+03 -1.45309E+02  1.49608E+03 -6.32558E+03  3.65804E+02 -3.76253E+03
  8.39609E+02  9.61393E+01 -7.86631E+02  1.90163E+02  5.02606E+03  1.43029E+03  1.61116E+02  2.49646E+03
  1.78111E+03  4.96563E+02  3.96392E+02  1.26365E+03 -2.51496E+03  4.74594E+02  4.93155E+03  1.72652E+03
  1.33739E+03  2.93899E+03 -4.23417E+03  1.51735E+03 -2.79979E+03  1.75560E+03 -3.32833E+03 -3.12353E+03
 -2.68280E+03 -4.02652E+03  4.92557E+03 -1.07064E+04  5.38296E+02 -6.92691E+02  5.23080E+03 -9.57294E+02
  9.20442E+03  4.76395E+02  1.89833E+03  5.30609E+02 -2.74041E+03  5.57394E+03 -1.86187E+03  2.82574E+03
 -5.15563E+03 -1.41441E+03 -3.68248E+03 -2.73017E+03  2.71905E+03  3.85506E+03  2.67335E+03 -5.06801E+03
 -1.04534E+03  1.12290E+03 -1.40361E+03  1.85391E+03 -2.56334E+03 -1.78408E+03  3.50908E+03 -6.57853E+03
  3.13196E+03  2.94280E+03  1.73747E+03 -2.67031E+03  1.58496E+03  5.26067E+03  4.61833E+02  2.09812E+03
 -1.49931E+03  2.87773E+03 -3.53997E+03 -2.87175E+02 -2.23043E+03  5.12637E+02 -2.43009E+03 -4.13412E+03
 -7.39246E+02 -3.04435E+03  2.20260E+03 -2.70180E+03  4.56228E+03 -2.54921E+03  4.46487E+03 -5.83256E+02
  4.96308E+03 -1.32288E+03 -6.42925E+02 -3.18109E+01 -3.48574E+03  2.69834E+03  2.24798E+02  1.64292E+03
  6.10326E+02  1.51873E+03  1.18692E+03 -1.66418E+03  1.21817E+03  1.77063E+03  5.72892E+02  2.43608E+03
 -2.39603E+03 -2.39001E+03 -2.56853E+03  5.35655E+02 -2.19072E+03 -2.21657E+03  2.69943E+03 -1.57144E+03
  3.05141E+03 -9.45118E+02  1.71805E+03 -9.75238E+02  3.08638E+03 -2.16404E+03  5.86990E+02  4.88360E+03
  9.96381E+02 -2.42553E+03 -2.80066E+03  2.86612E+03 -1.95188E+03  2.09909E+03 -2.77073E+03 -2.95339E+02
  3.86965E+02  6.63701E+01 -2.04824E+03 -3.85254E+03  1.43610E+02  6.56034E+02 -4.29038E+03 -5.35537E+03
 -5.41926E+02 -1.04190E+02  2.26838E+03 -1.36213E+03  1.67121E+03 -2.34924E+03  2.34140E+03 -1.45554E+03
 -1.94800E+03 -3.75572E+02  4.51376E+03  4.43911E+03 -4.19454E+03  4.96863E+03  7.75509E+02  3.32101E+03
