 $NMID ID='MM_0lb_SNR50_10hz_g60_75.RAW', FMTDAT='(8E13.5)'
 TRAMP=1., VOLUME=1. $END
  3.09223E+05  3.61000E+03  3.41874E+05  2.46632E+05  8.32905E+04  3.40494E+05 -1.34208E+05  2.45975E+05
 -1.95079E+05  8.51582E+04 -1.09841E+05 -3.13807E+04 -4.48707E+03 -5.33172E+04  5.47279E+04  6.61057E+03
  4.07911E+04  5.33632E+04 -1.45426E+04  7.74910E+04 -7.00462E+04  6.48935E+04 -8.33094E+04  3.85541E+04
 -7.69104E+04 -1.46307E+04 -5.99025E+04 -5.13536E+04 -1.09202E+04 -6.85680E+04  2.94192E+04 -4.59257E+04
  4.50743E+04  3.17214E+03  1.44932E+04  4.84919E+04 -3.77247E+04  5.13278E+04 -6.58622E+04  2.24633E+03
 -5.92995E+04 -5.73900E+04 -1.45061E+04 -7.90468E+04  3.26879E+04 -5.84995E+04  4.57335E+04 -2.09764E+04
  4.55104E+04  1.06660E+04  3.37193E+04  2.17946E+04  1.68243E+04  3.13148E+04 -1.28426E+04  2.61593E+04
 -1.83796E+04  9.30877E+03 -1.74457E+04 -1.19009E+04  6.06692E+03 -1.33959E+04  1.94809E+04  1.49173E+04
  4.98362E+03  3.42678E+04 -3.09919E+04  3.01548E+04 -7.12460E+04  7.51290E+03 -6.15735E+04 -4.09397E+04
 -1.66599E+04 -6.62364E+04  4.74472E+04 -4.68288E+04  5.54754E+04 -9.45361E+02  3.73826E+04  3.48027E+04
 -3.19532E+03  3.86823E+04 -2.83901E+04  1.91367E+04 -3.27077E+04 -3.34507E+03 -2.18705E+04 -1.08840E+04
 -1.01465E+04 -1.08299E+04 -1.80795E+03 -2.25265E+04  5.31252E+03 -3.03876E+04  1.52832E+04 -7.98495E+03
  1.08533E+04  5.59181E+03 -9.08451E+03  1.28200E+04 -2.21859E+04 -2.87805E+03 -3.53327E+03 -4.38050E+04
  2.42188E+04 -4.83158E+04  5.42225E+04 -2.23531E+04  5.08449E+04  1.51046E+04  1.47534E+04  4.76794E+04
 -1.62466E+04  3.13592E+04 -3.71866E+04  4.70329E+03 -8.55713E+03 -2.98595E+04  2.47869E+04 -3.94157E+04
  4.66883E+04 -1.23607E+04  4.49434E+04  2.52810E+04  2.08198E+04  5.00695E+04 -9.32201E+03  5.11279E+04
 -3.53242E+04  3.11199E+04 -5.03919E+04  1.06354E+04 -4.76430E+04 -1.76828E+04 -2.12743E+04 -4.14375E+04
  9.83787E+03 -3.76330E+04  3.35928E+04 -1.95086E+04  2.73257E+04  8.75199E+03  2.53504E+03  2.82149E+04
 -1.46996E+04  7.67254E+03 -7.57010E+03 -6.72403E+03  5.75942E+03 -1.34866E+04  2.32772E+04  4.07782E+03
  1.51042E+04  2.92939E+04 -2.12680E+03  2.66821E+04 -2.29624E+04  1.62237E+04 -3.80572E+04 -5.29217E+03
 -2.60501E+04 -1.21121E+04 -1.75238E+04 -1.80903E+04  7.30594E+03 -2.34443E+04  1.76382E+04 -2.35204E+04
  3.83669E+04 -1.37036E+04  3.64132E+04  6.00808E+03  2.79566E+04  1.85353E+04  5.15242E+03  3.79841E+04
 -1.94657E+04  3.44518E+04 -2.75983E+04  6.87870E+03 -2.54407E+04 -9.08251E+03 -2.92844E+03 -1.33771E+04
  4.08701E+03 -3.06630E+03 -9.09899E+03  7.52662E+03 -2.54578E+04  1.18630E+03 -1.49778E+04 -9.90028E+03
 -1.41192E+04 -2.83898E+04  5.01389E+03 -3.06790E+04  1.93555E+04 -2.10945E+04  2.32819E+04 -7.73836E+02
  1.49597E+04  2.16206E+04 -1.00769E+03  2.06623E+04 -2.44646E+04  1.36382E+04 -2.47524E+04  5.20476E+03
 -1.87801E+04 -2.23703E+04 -4.82235E+02 -2.58110E+04  1.29243E+04 -2.03126E+04  2.49380E+04 -1.15574E+04
  1.90955E+04  3.65086E+03  1.58697E+04  9.41280E+03  9.43019E+03  3.60403E+03  1.28255E+04 -6.45641E+02
  3.01102E+04  7.71508E+03  2.66035E+04  1.93802E+04  2.40301E+04  3.70428E+04 -1.83891E+03  4.62605E+04
 -2.27400E+04  3.61634E+04 -3.50801E+04  2.49914E+04 -4.55800E+04 -5.35201E+03 -4.17864E+04 -3.18527E+04
 -1.37252E+04 -3.95453E+04  1.24192E+04 -3.44451E+04  3.13633E+04 -1.32422E+04  2.54398E+04  9.83145E+03
  1.48444E+04  1.90829E+04 -1.58784E+04  1.30255E+04 -1.34625E+04  3.19800E+03 -1.57687E+04 -1.94302E+04
  2.04331E+03 -2.30244E+04  1.14105E+04 -1.43231E+04  1.07758E+04  4.78941E+03  5.69068E+03  5.68277E+03
 -3.36002E+03  2.86146E+03 -5.39062E+03 -5.14018E+03 -6.91062E+03 -1.67197E+04  1.50423E+04 -1.62664E+04
  2.60440E+04 -1.52758E+04  2.93320E+04  2.27040E+03  1.64336E+04  1.82343E+04  1.26842E+04  2.53554E+04
 -9.64205E+03  3.37053E+04 -2.11612E+04  2.21829E+04 -2.55442E+04  2.82361E+03 -1.70272E+04 -1.04320E+04
 -2.56210E+02 -7.99778E+03  5.28121E+03 -2.02272E+03  7.29915E+03  2.48070E+03 -9.80338E+02  3.22889E+03
 -1.76531E+04 -1.42518E+02 -1.61186E+04 -1.40227E+04 -7.21229E+03 -2.03163E+04  9.23460E+03 -1.12969E+04
  1.50934E+04 -7.64193E+03  1.25138E+04  9.10574E+03 -3.41199E+03  8.67472E+03 -1.28147E+04 -3.89353E+03
 -5.48511E+03 -1.24212E+04 -2.10605E+03 -1.01103E+04  9.82058E+03 -1.93656E+04  1.71136E+04 -3.45371E+03
  2.31232E+04  1.72595E+03  1.82911E+04  1.32187E+04  9.83250E+03  1.90428E+04 -7.59399E+03  1.27540E+04
 -1.37216E+04  6.83789E+03 -1.45060E+04 -1.20353E+03 -1.38851E+03 -4.64229E+03  7.27885E+03 -9.82410E+02
  9.59979E+03  9.22092E+03 -1.96912E+03  1.29291E+04 -8.85133E+03  1.06349E+04 -2.10072E+04  2.65584E+03
 -1.36671E+04 -1.05551E+04  2.43225E+03 -1.82697E+04  8.92481E+03 -6.55253E+03  4.91621E+02  4.49101E+03
  4.33125E+03  6.02245E+03 -1.02746E+04  1.27945E+04 -1.43719E+04  1.86631E+03 -1.29267E+04  1.31339E+02
 -8.25445E+03 -1.44278E+04  3.07745E+03 -2.19734E+04  1.54138E+04 -7.91781E+03  2.06478E+04  6.05980E+03
  1.69923E+04  1.41399E+04 -1.87159E+03  1.47158E+04 -1.17251E+04  1.49443E+04 -1.63500E+04 -5.10775E+03
 -1.25651E+04  9.25131E+02 -4.94157E+03 -1.22314E+04  7.90935E+03 -1.46530E+04  1.77806E+03 -7.98359E+03
  3.17896E+03  5.84970E+03 -4.16577E+03  1.53352E+03 -4.90130E+03 -1.59005E+03  4.58945E+03 -4.89577E+03
  7.42005E+03 -7.84970E+03  1.94204E+04 -2.86734E+03  1.20278E+04  1.34609E+04  9.92534E+03  1.91999E+04
 -4.38510E+03  2.23730E+04 -1.51085E+04  1.58947E+04 -2.53033E+04  5.69176E+03 -1.34215E+04 -8.09746E+03
 -8.38983E+03 -1.79188E+04  3.97694E+03 -1.18256E+04  9.28546E+03 -8.79050E+03  5.09223E+03 -3.63033E+03
  3.44182E+03 -5.11410E+03  2.27752E+03 -3.60196E+03  5.34733E+03 -4.22626E+03  4.85967E+03 -3.78127E+03
  1.05600E+04  8.34588E+03  9.53961E+03  7.96743E+03 -4.30541E+03 -1.11042E+03 -1.21703E+04  1.46970E+03
 -1.43468E+04 -2.90029E+02 -1.13694E+04 -1.11628E+04 -2.23324E+03 -1.60791E+04  7.37916E+03 -1.47738E+04
  1.97507E+04 -1.18608E+04  1.82152E+04  3.17363E+03  1.40189E+04  1.22399E+04  6.31144E+03  1.90291E+04
 -5.77518E+03  1.52714E+04 -1.35974E+04  3.51568E+03 -7.48487E+03  7.94984E+02 -4.78613E+03 -3.25334E+02
 -2.38493E+03 -6.72198E+02  1.54259E+03  4.98002E+03 -7.28910E+03  1.97266E+03 -1.18124E+04  9.18254E+02
 -5.86500E+03 -1.02872E+04  3.34277E+03 -1.72176E+04  7.61942E+03 -1.08372E+04  6.27109E+03 -1.52729E+03
  1.33090E+04  8.28463E+03  6.06882E+03  1.04061E+04 -4.86903E+03  1.88722E+04 -1.16236E+04  7.21141E+03
 -1.26692E+04 -5.48176E+03 -8.19908E+03 -2.89674E+03  5.99675E+03 -8.83205E+03  6.98062E+03 -1.08393E+04
  8.87911E+03 -4.73212E+03  7.87706E+03  1.48615E+03  2.49964E+02  5.23915E+03 -6.13257E+03  2.98955E+03
  2.54939E+03 -4.35174E+03  1.61970E+03  3.77292E+03  7.74553E+03  6.48005E+03  6.58824E+03  8.47993E+03
 -3.68949E+03  1.09605E+04 -1.27455E+04  1.10753E+04 -1.69656E+04  1.43198E+03 -1.58646E+04 -5.80555E+03
 -3.30321E+03 -2.00669E+04  2.02601E+03 -1.72081E+04  8.37801E+03 -1.01316E+04  1.80593E+04 -6.34432E+03
  2.05132E+04  1.15330E+04  1.32661E+03  9.79398E+03 -9.86843E+03  3.24836E+03 -4.18091E+03  6.98164E+03
 -5.03823E+03 -5.59074E+03 -5.39205E+03 -4.54570E+03  1.02481E+04 -2.07474E+03  3.72592E+03 -4.92720E+03
  2.63848E+03  1.79735E+03  1.38422E+03  5.52381E+03 -1.80025E+03  4.46554E+03  5.52884E+03 -4.96904E+03
  2.52467E+03  2.83545E+03  7.82143E+03  5.85126E+03  2.04054E+03  1.54632E+03  8.53887E+02  1.61767E+04
 -6.87386E+03  1.04010E+04 -5.98557E+03  6.38284E+03 -7.33531E+03 -1.55513E+03  5.61697E+02  1.35721E+03
  3.70214E+03 -1.40575E+02  2.39780E+03 -2.11480E+03  5.36971E+03  2.46932E+03 -3.92527E+03  1.88774E+03
 -9.38833E+03  6.91705E+03 -9.38953E+03  6.88080E+02 -4.69613E+03 -3.71789E+03  4.81890E+03 -9.02281E+03
  2.15049E+03 -1.36996E+03  7.49148E+03 -3.82735E+03  4.15821E+03 -1.00640E+03  8.48266E+02  8.23282E+02
 -3.19521E+03 -2.07718E+03  1.59771E+03  8.16212E+02  5.90359E+02 -9.00596E+03  6.90467E+03 -4.10903E+03
  5.77886E+03  7.34119E+03  1.06475E+04  6.94246E+03  2.61835E+03  8.03065E+03  1.51621E+03  9.38588E+03
 -7.63954E+03  2.50136E+03 -7.97432E+03 -1.85916E+03 -4.56589E+03 -5.27878E+03 -1.34104E+03 -5.19102E+03
  4.53808E+03 -1.77846E+03  7.99378E+02  6.16112E+03  2.25669E+03  6.44144E+03 -2.78409E+02 -5.27559E+02
 -5.10400E+03  2.67094E+03 -4.26578E+03  1.94359E+03 -3.58606E+03 -1.82209E+03 -8.80827E+02  9.71187E+03
 -7.98769E+02  6.38463E+03 -7.23199E+02  2.45216E+03 -9.18084E+03 -3.26058E+03 -1.12735E+04 -6.44921E+03
 -6.19135E+03 -1.14622E+04  2.18386E+03 -1.47376E+04  6.86300E+02 -1.61042E+04  1.78025E+04 -6.85624E+03
  1.03461E+04  1.22102E+03  5.69673E+03  8.90991E+03 -1.37008E+03  7.28925E+03 -7.35389E+03  3.14237E+03
 -5.88793E+03  2.63562E+03 -3.91144E+03  1.34133E+03 -2.62602E+03  1.13887E+03 -7.56617E+02  3.13966E+03
 -7.79513E+03 -2.82021E+03 -3.29713E+03 -2.36069E+03 -1.87722E+03 -6.39244E+03  8.86592E+03 -5.81197E+03
  5.70370E+03 -7.34263E+03  3.47800E+03 -1.59416E+03  1.50795E+04  5.86663E+03  5.64194E+03  1.61551E+04
 -9.40919E+02  1.10586E+04 -1.04937E+04  8.22224E+03 -1.45934E+04 -3.95998E+03 -1.01229E+04 -2.87876E+03
 -4.39071E+03 -6.77623E+03  3.99158E+03 -1.48785E+04  6.04649E+03 -3.11880E+03  2.27148E+03  1.83496E+03
  7.75353E+03 -8.00292E+03 -2.52134E+03  1.56952E+03  8.57995E+02  1.17574E+03 -1.87314E+03 -3.31817E+03
  7.58516E+03 -2.41895E+03  3.56773E+03 -4.30619E+03  4.94646E+03  3.20664E+03  4.28022E+03  4.22747E+03
 -6.98065E+03  2.98374E+03 -5.77954E+03  4.62378E+03 -9.75402E+03 -7.75598E+03 -4.24920E+03 -1.35104E+04
  5.93471E+03 -7.91584E+03  3.48607E+03 -1.17470E+03  7.23479E+03 -5.35687E+03  5.38436E+03  7.56248E+03
  2.64123E+03  4.32251E+03 -1.13592E+03  6.00936E+03  3.96411E+02  4.57559E+03 -4.75033E+03  9.43532E+02
  3.96076E+03 -1.39195E+03 -2.58559E+03 -5.95860E+03 -3.08317E+03 -3.29719E+03 -8.06662E+03 -7.22203E+02
 -6.18318E+03 -1.20819E+04 -3.66474E+03 -7.47220E+03  7.55365E+03 -1.48792E+04  5.63952E+03 -6.66884E+03
  5.57901E+03  2.19068E+03  3.16761E+03  7.36146E+03 -3.67134E+03  2.38309E+03 -3.48136E+03  6.71693E+03
