 $NMID ID='MM_0lb_SNR50_19hz_g50_49.RAW', FMTDAT='(8E13.5)'
 TRAMP=1., VOLUME=1. $END
  3.07806E+05 -2.18614E+03  3.38968E+05  2.48361E+05  8.45269E+04  3.33433E+05 -1.25768E+05  2.45629E+05
 -1.85992E+05  8.45870E+04 -1.06648E+05 -3.04619E+04  2.42556E+03 -5.02122E+04  5.44730E+04  1.14073E+02
  3.22428E+04  4.87705E+04 -1.50203E+04  7.32995E+04 -6.27582E+04  6.36660E+04 -8.21402E+04  3.39820E+04
 -7.95552E+04 -1.15512E+04 -5.40057E+04 -4.72594E+04 -1.65079E+04 -6.61034E+04  2.78364E+04 -4.46242E+04
  3.86456E+04  7.86816E+03  1.40669E+04  4.70067E+04 -3.68790E+04  4.27666E+04 -6.32755E+04 -3.39690E+03
 -5.08550E+04 -5.12513E+04 -5.37883E+03 -7.35084E+04  3.16629E+04 -5.28359E+04  4.56748E+04 -1.77954E+04
  4.32912E+04  1.44030E+04  3.12924E+04  2.35007E+04  1.18631E+04  2.79232E+04 -1.50802E+03  2.70275E+04
 -2.10978E+04  1.18686E+04 -1.66751E+04 -1.31703E+03  6.29838E+03 -7.78404E+03  2.29996E+04  9.49799E+03
  9.33189E+03  3.38532E+04 -2.92545E+04  3.44485E+04 -6.50465E+04  6.84931E+02 -5.68675E+04 -4.05406E+04
 -1.48498E+04 -6.07575E+04  4.01844E+04 -4.53347E+04  5.44032E+04  2.00918E+03  3.29133E+04  2.99107E+04
 -6.71229E+03  3.41292E+04 -2.70477E+04  1.47230E+04 -2.88860E+04 -5.79858E+03 -1.18295E+04 -1.61586E+04
 -8.55165E+03 -1.19859E+04 -6.24039E+00 -1.52013E+04  8.27416E+03 -1.80672E+04  1.69396E+04 -1.77747E+04
  1.59568E+04  2.81189E+03 -5.60589E+03  6.38448E+03 -2.36305E+04  1.15126E+03 -9.23194E+03 -3.24475E+04
  2.24741E+04 -3.65322E+04  4.53239E+04 -2.18719E+04  4.02616E+04  1.54355E+04  1.71897E+04  4.16141E+04
 -1.69021E+04  3.05348E+04 -2.41630E+04  2.76219E+02 -6.54959E+03 -2.43271E+04  1.99307E+04 -3.20700E+04
  3.80864E+04 -8.53122E+03  3.18913E+04  2.53437E+04  1.54430E+04  3.90513E+04 -4.55088E+03  4.15988E+04
 -3.13434E+04  3.11483E+04 -4.17916E+04  5.50783E+03 -3.72981E+04 -1.25471E+04 -1.96923E+04 -3.57668E+04
  8.03805E+03 -3.24719E+04  2.74693E+04 -1.51275E+04  2.40823E+04  1.07485E+04  2.61606E+03  1.38754E+04
 -1.37688E+04  5.56596E+03 -1.20537E+04 -7.63775E+03  8.24507E+03 -9.79865E+03  1.59393E+04  6.08882E+03
  1.07296E+04  2.23989E+04 -6.68600E+03  2.50723E+04 -2.16202E+04  1.17790E+04 -2.54358E+04 -1.13784E+04
 -1.67557E+04 -1.81849E+04 -5.87460E+03 -1.62415E+04  3.71007E+03 -1.51048E+04  1.24674E+04 -1.62262E+04
  1.88312E+04 -1.50196E+04  2.72977E+04  4.16354E+03  1.87596E+04  1.78613E+04  2.63787E+03  3.24962E+04
 -1.44903E+04  2.47793E+04 -2.72673E+04  5.07721E+03 -2.33830E+04 -1.21706E+04 -8.53835E+03 -1.13880E+04
  5.94121E+03 -6.33536E+03 -1.67027E+03  2.68719E+03 -1.61476E+04  5.36788E+03 -1.45796E+04 -7.61945E+03
 -9.22216E+03 -1.90575E+04 -1.26604E+02 -1.61218E+04  1.20353E+04 -1.06637E+04  1.20775E+04 -9.26189E+02
  9.34370E+03  9.62648E+03  5.86429E+02  1.75404E+04 -1.10979E+04  7.56753E+03 -1.77571E+04 -1.93228E+03
 -1.00481E+04 -1.56405E+04 -1.23149E+03 -1.88460E+04  9.40484E+03 -1.55504E+04  1.47038E+04 -1.32472E+04
  1.65504E+04  2.86772E+03  5.07795E+03  4.47663E+02  6.83158E+03  3.02940E+03  8.96235E+03 -3.81136E+03
  8.80482E+03  2.98422E+03  1.52383E+04  1.27302E+04  8.96536E+03  2.09305E+04 -3.99639E+03  2.65335E+04
 -1.25549E+04  1.80436E+04 -2.08941E+04  1.34860E+04 -2.41562E+04 -4.20444E+02 -2.15280E+04 -1.32691E+04
 -1.04752E+04 -2.03895E+04  8.18992E+03 -2.19677E+04  1.72289E+04 -7.89661E+03  1.68018E+04  4.75087E+03
  3.86976E+03  1.21386E+04 -3.79400E+03  1.09476E+04 -1.30908E+04 -8.06861E+02 -1.05587E+04 -7.40162E+03
 -2.37281E+03 -1.65465E+04  5.34965E+03 -1.05382E+04  1.11308E+04  5.18405E+02  1.39992E+03  6.21652E+03
 -4.33718E+03  2.75854E+03 -2.64689E+03 -5.44721E+03  7.64442E+02 -9.77701E+03  7.30245E+03 -8.05894E+03
  1.19481E+04 -4.29862E+03  1.02287E+04  4.63864E+03  1.01967E+04  4.91333E+03  3.02090E+03  1.41375E+04
  1.92172E+03  1.52620E+04 -7.48664E+03  1.37312E+04 -1.38564E+04  1.74970E+03 -4.64328E+03 -1.60018E+03
 -3.27250E+03 -6.87906E+02 -6.68179E+03  2.85223E+03 -1.30254E+03  8.17260E+02 -3.21540E+03 -1.90155E+03
 -9.11744E+03  1.61590E+03 -8.13938E+03 -8.40394E+03 -1.61869E+03 -9.14312E+03  5.68057E+03 -1.07699E+04
  6.21522E+03 -2.77184E+03  7.97960E+03 -3.18161E+02 -5.34849E+02  2.55467E+03 -5.29698E+03  1.30671E+03
 -2.89544E+03 -3.34178E+03 -2.43663E+03 -8.43508E+03  4.34740E+03 -3.91857E+03  9.53513E+03 -4.54266E+03
  9.25511E+03 -2.76831E+02  7.41586E+03  4.19039E+03  6.16749E+03  1.20372E+04 -8.56983E+03  6.58471E+03
 -6.60115E+03  4.62214E+03 -6.75313E+02  2.92720E+02  3.75199E+03 -4.18005E+03  1.59495E+03 -1.44433E+02
  3.03925E+03  5.51859E+03 -8.53226E+02  9.36500E+03 -6.28947E+03  5.64474E+03 -1.01400E+04  1.75979E+03
 -3.74362E+03 -2.00559E+03  2.45441E+03 -4.20645E+03  1.97508E+03 -8.39739E+02  3.88169E+03 -2.74264E+03
  1.23366E+03  4.50028E+03 -4.06802E+03  2.83381E+03 -7.82293E+03  4.03090E+03 -8.75456E+03 -3.37641E+03
 -1.55204E+03 -6.45275E+03  1.29729E+03 -8.10547E+03  6.55877E+03 -6.48699E+03  7.24041E+03 -3.54019E+01
  6.75471E+03  1.05429E+04  2.71430E+03  9.11969E+03 -9.71944E+03  9.89466E+02 -2.16034E+03 -2.31567E+02
 -5.96813E+03 -2.94551E+03 -1.28711E+01 -7.03323E+03  2.57992E+03 -6.48283E+03  7.12523E+03 -3.15485E+03
  3.58391E+03  3.40127E+02 -2.60053E+03  1.35663E+03  1.34445E+03  1.04148E+03 -1.54993E+03 -1.92513E+03
  2.44625E+03 -2.51327E+03  4.67904E+03  3.31146E+03  4.92838E+03  2.27749E+03  4.86533E+03  8.21851E+03
 -1.87723E+03  7.82849E+03 -8.40808E+03  6.33715E+03 -1.15579E+04 -2.02128E+03 -8.89252E+03  4.90019E+02
 -5.21161E+03 -1.68513E+03 -1.54812E+03 -2.07861E+03  8.40813E+03 -2.59752E+03  3.43991E+02 -3.20206E+03
  2.92044E+03 -1.93805E+03  1.07290E+03 -3.22419E+03  5.32142E+03 -2.28880E+03  7.09010E+03  1.35361E+03
  2.07835E+03  2.36710E+03  4.75801E+03  3.27720E+02  1.28698E+03  6.07645E+03 -5.51807E+03 -7.83133E+02
 -7.60366E+03 -2.33517E+03 -4.83665E+02 -7.52978E+03 -2.99965E+03 -8.40208E+03  2.86996E+03 -2.99007E+03
  7.15105E+03 -1.03930E+03  4.31646E+03  1.32435E+03  2.82791E+03  3.03429E+03  7.48205E+03  2.89555E+03
 -3.44900E+03  5.38506E+03 -6.60450E+03  3.86135E+03 -9.51050E+02 -2.10295E+03 -1.40838E+03  2.37279E+03
 -5.25597E+02  1.24108E+03 -2.59980E+03  2.34142E+03 -3.82107E+03 -2.76274E+03 -4.08856E+03  2.23052E+03
  4.00262E+02  1.10653E+03  5.45188E+02 -1.59104E+03  2.83156E+03 -5.38964E+03  3.82905E+03 -3.94335E+03
  5.74468E+03  2.66583E+03 -2.15188E+03  2.31968E+03 -1.12384E+02 -2.85824E+02  2.00725E+03  4.92336E+03
 -3.94433E+03 -2.29419E+02 -3.01466E+01 -2.02071E+03  9.94400E+02  4.63292E+02  2.82163E+03 -4.94770E+03
  5.60244E+03  1.68295E+03 -1.31680E+03 -4.36165E+02  3.17098E+03 -1.97412E+03 -4.49344E+03  3.74737E+03
 -1.47420E+03 -2.45310E+03 -1.76248E+03 -3.91612E+03  3.90249E+03  3.54441E+03 -8.78777E+02  4.31120E+03
 -2.20175E+03  9.74280E+02 -4.37867E+03  4.39005E+03 -3.65585E+03 -3.06924E+03 -6.40361E+03  2.11195E+03
 -5.86676E+02 -7.88986E+03 -1.27980E+03 -8.24894E+03  1.47588E+03 -4.00603E+03 -2.10555E+03 -5.55084E+03
  4.48590E+03  2.65102E+03 -2.90548E+03  2.58129E+03 -2.77667E+03  1.99944E+03  8.82682E+02 -2.55637E+03
  3.41595E+03 -9.30900E+02  2.06434E+03 -2.20377E+03 -3.57332E+03 -3.96657E+03  5.15278E+02 -7.98376E+02
  2.02002E+03 -1.10495E+03  3.23384E+03  1.93846E+03  2.26293E+02  1.64510E+03  2.54456E+03 -2.10123E+02
 -2.44977E+03 -1.75009E+03  3.93695E+03 -2.29927E+02 -6.43950E+02  3.33842E+03 -2.31274E+03  4.58671E+03
 -6.38571E+03  1.71461E+03  3.75086E+02 -1.84470E+02 -1.64262E+03 -5.96408E+03 -2.25435E+02  2.16178E+03
  1.57246E+03 -2.16545E+03  2.87887E+03  2.29698E+03 -6.40627E+02  5.62390E+02 -3.33656E+03  1.78369E+03
  3.78856E+03  1.65975E+03  2.72732E+02 -3.57233E+03  2.30969E+03 -2.03286E+03  1.72361E+03 -2.13558E+03
 -7.30038E+02  1.96956E+03 -1.77920E+03  1.17247E+03  6.23258E+02 -1.35478E+03 -2.36826E+03  2.38782E+01
  2.13938E+03  4.21999E+02 -2.22776E+03 -3.50849E+03  2.43135E+03 -3.10962E+03  3.58737E+03 -2.72142E+03
  3.15401E+03 -3.84904E+03  4.74407E+02 -7.87592E+02  2.95521E+03  5.82436E+03 -3.63862E+03 -3.38169E+02
 -3.76540E+03 -1.12411E+03  4.02974E+02 -1.81935E+03 -2.05257E+02 -3.02051E+03 -5.03696E+02 -2.92197E+02
  2.79133E+03  2.37224E+03 -3.39196E+03  1.01469E+03 -8.99498E+02 -2.28079E+03 -7.21128E+02  2.77588E+03
 -2.00967E+03  6.29884E+03 -2.21693E+03  6.30908E+03 -1.84810E+03  2.31362E+03 -8.47651E+02  1.85756E+03
 -1.93168E+03  3.10579E+03 -3.71094E+03  1.83946E+03  1.34113E+03 -1.31647E+03  2.19610E+03 -6.20812E+02
  2.87772E+03 -3.23409E+03  4.47097E+03 -3.63903E+03 -3.55091E+03 -4.71919E+03  6.83186E+03 -1.96667E+03
  2.52391E+02  1.93560E+03 -1.41964E+03 -3.10827E+02  7.34962E+02  4.06304E+03  1.19868E+03 -9.13605E+01
 -2.71989E+03  2.30763E+03 -2.43219E+03  2.74876E+03 -1.94184E+03  3.52689E+03 -1.28264E+03 -1.90387E+03
  5.28882E+01  2.85604E+03 -1.98489E+03  1.55721E+03 -4.87877E+03  1.91516E+02  5.19201E+02 -1.49847E+03
 -1.74211E+03 -6.71832E+02 -1.32916E+03  1.59989E+03  1.30673E+01  2.73141E+03 -2.22834E+03 -2.17509E+03
  3.79987E+02  2.82351E+03 -4.95730E+03  1.65617E+03 -3.02952E+03 -2.44786E+03  7.35736E+02 -7.94729E+02
  3.41476E+03  4.44279E+03  7.29559E+02  3.68571E+03  2.96900E+02 -8.62359E+01  2.29597E+03 -2.64110E+03
  1.94401E+03  2.14244E+03 -3.27118E+03 -3.68524E+03  1.60354E+03 -2.81052E+03  2.85165E+02 -1.60849E+03
  1.66519E+03  8.91464E+02 -1.17186E+03 -1.59388E+03 -3.09276E+03  7.70664E+02  3.20303E+03 -3.74389E+03
 -4.39615E+02 -1.82598E+03 -1.50508E+03  1.97196E+03 -5.37180E+02 -1.38158E+02  2.41126E+03 -1.02942E+03
  1.85870E+03 -2.46162E+03  1.19480E+03 -3.04119E+03 -7.47757E+02 -2.20840E+03 -1.93040E+03  8.12776E+02
  1.53060E+03  1.10570E+03 -7.40446E+02 -3.66416E+02 -1.11583E+03  4.52537E+03 -2.71344E+03 -3.06861E+03
  3.67360E+03  2.88180E+03 -2.24901E+03  1.17288E+03 -1.05832E+03  1.39605E+03  8.32251E+02  7.27334E+02
 -8.94131E+02  3.36531E+03 -1.33259E+03 -1.35853E+03 -1.19882E+03 -4.61763E+03  2.01992E+03  4.23872E+02
 -2.55695E+03 -2.65764E+03 -1.41044E+03  1.37704E+03 -1.14673E+03 -2.49960E+03 -1.74688E+03  6.30280E+02
