 $NMID ID='MM_0lb_SNR50_7hz_g50_13.RAW', FMTDAT='(8E13.5)'
 TRAMP=1., VOLUME=1. $END
  3.09573E+05 -4.87830E+02  3.36097E+05  2.52401E+05  8.41701E+04  3.36821E+05 -1.29541E+05  2.55869E+05
 -1.96460E+05  8.36135E+04 -1.10405E+05 -3.64500E+04 -1.45130E+03 -4.77032E+04  6.42295E+04 -4.12718E+03
  3.34100E+04  5.57069E+04 -1.77212E+04  7.26808E+04 -6.59347E+04  6.49076E+04 -8.35180E+04  2.82313E+04
 -8.16463E+04 -1.45666E+04 -6.25601E+04 -5.61545E+04 -9.38032E+03 -6.85187E+04  3.02591E+04 -5.54481E+04
  3.40876E+04  4.69032E+03  1.72392E+04  4.90690E+04 -3.23382E+04  4.59210E+04 -7.03189E+04  1.08822E+03
 -4.95045E+04 -5.52806E+04 -7.23378E+03 -7.26391E+04  3.17804E+04 -5.39566E+04  5.95586E+04 -1.59079E+04
  4.53455E+04  1.83488E+04  3.64429E+04  2.38060E+04  1.33521E+04  3.21125E+04 -7.55241E+03  2.99247E+04
 -1.71146E+04  2.61300E+03 -1.54714E+04  4.90673E+02 -9.63152E+02 -1.16791E+04  2.22973E+04  1.51237E+04
  4.06899E+03  4.04677E+04 -3.24918E+04  3.48722E+04 -6.68093E+04 -1.55223E+03 -5.60384E+04 -4.12755E+04
 -1.42716E+04 -6.87352E+04  4.21002E+04 -4.72225E+04  6.50383E+04 -3.40075E+03  3.51934E+04  3.67785E+04
 -4.11597E+03  3.99367E+04 -3.40951E+04  2.18970E+04 -3.89447E+04  2.12789E+03 -2.28889E+04 -8.54713E+03
 -1.60118E+04 -1.33614E+04  7.11599E+02 -2.22502E+04  7.22550E+03 -1.60139E+04  9.73386E+03 -1.38667E+04
  1.21346E+04 -4.40382E+02 -1.92679E+03  1.21553E+04 -2.07556E+04 -7.31421E+03 -1.60207E+04 -3.54429E+04
  2.61971E+04 -5.21131E+04  5.62974E+04 -1.35310E+04  5.47164E+04  1.48887E+04  1.50131E+04  4.93944E+04
 -1.37580E+04  3.50082E+04 -2.76436E+04  5.94531E+03 -1.34684E+04 -3.14253E+04  2.32480E+04 -3.66536E+04
  4.50128E+04 -1.46037E+04  4.85230E+04  2.58354E+04  1.89416E+04  5.18360E+04 -1.78863E+04  6.25446E+04
 -3.42317E+04  4.17153E+04 -5.68983E+04  5.75229E+03 -4.72212E+04 -1.80512E+04 -3.95747E+04 -4.55576E+04
  1.27924E+04 -4.29145E+04  3.07303E+04 -2.47591E+04  2.89699E+04  1.28421E+04  1.11018E+04  1.57023E+04
 -1.43404E+04  1.27355E+04 -1.39801E+04 -1.16996E+04  3.01309E+03 -1.10979E+04  2.58798E+04  1.29433E+04
  1.93776E+04  2.11105E+04  2.36997E+03  2.72258E+04 -2.71350E+04  1.64110E+04 -3.38219E+04 -6.56089E+03
 -2.82233E+04 -1.75983E+04 -6.69588E+03 -3.44098E+04  6.48137E+03 -2.73930E+04  2.23836E+04 -1.88845E+04
  3.05091E+04 -1.87795E+04  4.08126E+04  3.21600E+03  3.58061E+04  2.56880E+04 -2.48666E+03  4.77803E+04
 -2.22567E+04  3.65763E+04 -2.82989E+04  1.34676E+04 -2.14628E+04 -1.34286E+04 -5.45128E+03 -1.17353E+04
  7.78158E+03  2.31511E+03 -1.12923E+04  7.40238E+03 -2.12650E+04  4.94659E+03 -2.54998E+04 -7.64223E+03
 -1.16543E+04 -1.79479E+04  3.12626E+03 -2.28959E+04  1.46653E+04 -2.46292E+04  2.41565E+04 -1.31008E+03
  1.96912E+04  2.33536E+04 -1.08756E+03  2.16974E+04 -2.10308E+04  1.44099E+04 -2.94061E+04 -1.72309E+03
 -2.09370E+04 -2.80132E+04  8.96369E+02 -2.70105E+04  1.31788E+04 -2.55408E+04  2.05304E+04 -1.26859E+04
  2.25508E+04 -4.83566E+03  2.17336E+04  1.04911E+03  1.54662E+04  3.78609E+03  1.00736E+04 -4.02572E+03
  2.42161E+04  3.26696E+03  1.94206E+04  2.08583E+04  2.27767E+04  4.04601E+04 -3.39060E+03  4.43629E+04
 -3.09717E+04  3.87736E+04 -4.81986E+04  1.98320E+04 -4.27956E+04 -4.54503E+03 -4.40293E+04 -2.68527E+04
 -1.25119E+04 -4.24613E+04  1.54922E+04 -3.83567E+04  2.76683E+04 -1.42857E+04  3.09804E+04  6.07801E+03
  4.31095E+03  2.04353E+04 -1.16942E+04  1.67907E+04 -1.66889E+04  3.09209E+03 -1.72834E+04 -2.33881E+04
 -8.46823E+03 -2.56715E+04  1.44872E+04 -1.12555E+04  1.64747E+04  9.43549E+03  5.93096E+03  2.21676E+03
 -1.09510E+04  4.46930E+03 -9.36351E+03 -7.92523E+03 -3.07064E+03 -1.95067E+04  1.85821E+04 -2.57163E+04
  2.42735E+04 -1.24432E+04  3.01247E+04  7.28791E+03  2.24869E+04  1.46579E+04  1.08700E+04  2.58234E+04
 -3.63753E+03  3.47541E+04 -2.02568E+04  1.52352E+04 -2.76330E+04  1.61202E+03 -2.47467E+04 -4.48459E+03
 -2.90388E+03 -1.62503E+04  3.45804E+03  6.87885E+03 -6.82849E+03  5.92478E+02 -1.69768E+04  5.82104E+02
 -1.33285E+04 -5.36755E+03 -2.10609E+04 -1.54183E+04 -1.68179E+03 -1.97269E+04  7.75042E+03 -1.57226E+04
  5.04838E+03 -1.19037E+04  9.82445E+03  7.99283E+03  3.98164E+02  7.24823E+02 -4.99237E+03 -2.20928E+03
 -6.84746E+03 -1.22407E+04 -1.23200E+03 -2.00582E+04  1.04894E+04 -1.67012E+04  2.99211E+04 -1.47644E+04
  2.05333E+04 -1.71264E+03  2.18085E+04  1.99215E+04  7.26329E+03  2.87683E+04 -1.29157E+04  1.76784E+04
 -1.42234E+04  2.32844E+03 -1.13440E+04 -3.96517E+03  7.40503E+03 -6.74583E+03  9.14151E+03  1.67131E+03
  7.65605E+03  4.75052E+03  5.55545E+03  1.49064E+04 -1.34733E+04  1.69356E+04 -1.40660E+04 -3.58882E+03
 -1.19664E+04 -9.18158E+03  3.14762E+03 -2.22374E+04  1.66282E+04 -8.33509E+03  1.33619E+04  8.47276E+03
 -2.68567E+03  1.54119E+04 -1.52623E+04  9.04129E+03 -1.58781E+04  4.98764E+03 -2.13714E+04 -6.70105E+03
 -1.37348E+04 -2.25165E+04  5.84249E+03 -2.03165E+04  2.33691E+04 -9.53579E+03  2.97139E+04  6.95349E+03
  1.35903E+04  7.25289E+03 -6.21339E+03  2.19050E+04 -1.26616E+04  1.15810E+04 -1.33342E+04  3.00267E+03
 -1.39849E+04 -3.95641E+03 -3.45763E+03 -2.04874E+04  5.36146E+03 -6.57072E+03  1.04018E+04 -5.82404E+03
  7.68455E+03  4.74228E+03 -7.04413E+03  6.72273E+02 -5.16490E+03 -4.45268E+03  2.84948E+03 -1.21780E+04
  1.51548E+04 -8.94617E+03  2.44605E+04  4.22184E+03  2.09549E+04  9.61190E+03  2.39621E+04  2.98946E+04
 -5.64762E+03  3.45807E+04 -2.84783E+04  2.23805E+04 -2.32771E+04 -1.61618E+03 -2.87353E+04 -1.23848E+04
 -2.28071E+04 -1.62019E+04  3.71024E+03 -1.95617E+04  1.36795E+03 -1.79698E+04  2.80253E+03 -9.62498E+03
  7.25713E+03  8.59492E+01  6.62316E+03 -1.45674E+03  7.55431E+03 -4.25276E+03  6.44185E+03 -3.02137E+03
  1.87900E+04 -1.24662E+03  3.28774E+03  9.93641E+03  7.97205E+02  1.62213E+04 -1.94764E+04  9.54277E+03
 -2.25233E+04 -3.75458E+01 -1.26504E+04 -1.59335E+04 -5.30204E+03 -1.91821E+04  4.40165E+03 -1.76785E+04
  1.50962E+04 -9.32840E+03  1.73623E+04 -5.24289E+03  1.36495E+04  1.35524E+04  4.29228E+03  2.78855E+04
 -9.99284E+03  1.37720E+04 -1.69741E+04  5.24299E+03 -6.48724E+03  3.22265E+03 -5.22618E+03 -8.85206E+02
  3.12678E+03  8.87241E+03 -3.18567E+03  8.50781E+03 -4.28571E+03 -1.07876E+03 -9.15785E+03 -1.12505E+04
 -7.48801E+03 -1.23148E+04  1.08619E+03 -1.52596E+04  1.36202E+04 -1.89833E+04  2.25636E+04 -8.57199E+03
  1.94868E+04  1.52665E+04  6.76480E+03  2.48058E+04 -7.22643E+02  2.17550E+04 -1.33521E+04  1.91415E+04
 -1.59322E+04 -1.86074E+03 -1.66659E+04 -1.27280E+04 -7.37096E+02 -1.73490E+04  3.76432E+03 -1.59037E+04
  1.33079E+04 -2.17759E+03  1.08635E+04  8.27960E+03  7.26863E+03  5.64042E+03 -4.18593E+03  5.10266E+03
  2.56220E+03 -7.52121E+03  3.07563E+03 -2.71305E+02  5.14791E+03  1.09405E+04  7.05426E+03  1.22493E+04
 -7.48139E+03  1.29087E+04 -1.07497E+04  1.49761E+04 -2.23311E+04  6.20187E+03 -2.38865E+04 -7.97827E+03
 -1.95892E+03 -1.93011E+04  4.75930E+03 -2.19381E+04  7.11163E+03 -8.17336E+03  1.47173E+04 -3.54590E+03
  1.06180E+04  1.31345E+04  6.71890E+03  1.03318E+04 -2.32753E+03  8.02481E+03 -1.13260E+04 -3.74311E+03
 -2.57521E+03 -6.84567E+03  2.60344E+01 -9.60204E+02  1.27007E+04  1.20414E+03  7.36077E+03 -1.64502E+03
  2.22664E+03  1.01212E+03 -6.59278E+02  4.55239E+03 -2.25088E+03  1.15358E+03  6.10993E+02  2.04545E+03
 -1.96583E+03  2.22367E+03  6.01671E+03 -1.51730E+03  1.04931E+04  1.40012E+04 -2.90626E+03  8.15373E+03
 -1.68681E+04  6.49188E+03 -2.04341E+04  3.21650E+02 -1.06684E+04 -3.19542E+03 -1.01380E+04 -7.48347E+03
  4.06109E+03 -1.13164E+04  5.35866E+03 -4.78412E+03  7.39667E+03  4.69119E+03 -1.63996E+03  6.73490E+02
 -8.98250E+03  3.60696E+03 -1.39560E+04 -7.59186E+03 -1.14895E+03 -9.14232E+03 -9.64525E+02 -8.81748E+03
  5.21725E+03 -1.17779E+04  9.37213E+03 -9.79820E+02  6.35172E+03  2.16947E+02 -5.58339E+03  8.58559E+03
 -3.43256E+03  6.26819E+03 -3.53129E+02 -6.72429E+03  3.09474E+03 -9.95546E+03  6.81597E+03 -1.79750E+03
  1.28671E+04 -6.05966E+03  8.81539E+03  1.55410E+04  1.65030E+02  1.73827E+04  4.19020E+03  1.45604E+04
 -1.15365E+04 -3.53351E+03 -1.61405E+04  3.28861E+03 -2.92919E+03 -8.81782E+03  2.71214E+03 -8.21904E+03
  9.37987E+03  2.90882E+02  5.88109E+03  5.32383E+03  9.45748E+03  1.31875E+03 -2.57296E+03 -6.90483E+01
 -6.56780E+03  6.74917E+03 -1.80605E+03 -1.64032E+03  3.64956E+03  3.35291E+03  3.80250E+03  1.19268E+02
  7.11684E+02  7.56793E+03 -4.23339E+03  6.81019E+03 -1.72770E+04  2.97560E+03 -1.45913E+04 -8.80177E+03
 -1.57288E+04 -1.84920E+04 -1.01719E+03 -1.68924E+04  1.09444E+04 -1.81865E+04  1.69500E+04 -9.08760E+03
  1.92538E+04  6.61009E+03  7.50576E+03  1.40247E+04  5.97555E+03  1.18085E+04 -3.50888E+03  1.03642E+04
 -1.26823E+04  2.30771E+03 -6.70919E+03 -5.71414E+03  5.55531E+03 -3.30319E+03 -4.43683E+03 -3.12087E+03
 -2.77102E+03  1.59539E+03  1.73889E+03  5.25011E+03  3.21957E+03 -3.90625E+03 -4.71251E+03 -4.75276E+03
  5.90677E+03 -9.18345E+03  1.46751E+04  6.57614E+03  1.39099E+04  4.20583E+03  3.99407E+03  1.91598E+04
 -5.57991E+03  1.45200E+04 -1.50966E+04  1.03423E+04 -1.49544E+04 -4.15744E+03 -1.18501E+04 -1.14358E+04
 -6.74885E+03 -1.57453E+04  9.90090E+03 -1.49443E+04  1.17214E+04 -1.01908E+04  1.48636E+04  1.90859E+03
  3.78825E+03  6.45429E+03  2.53247E+03  2.81800E+03 -3.24138E+03  2.35431E+02  4.40419E+03 -2.85338E+03
  6.92008E+03 -1.22654E+04  7.14393E+03  4.00817E+03  5.29988E+03  5.55819E+03 -5.54854E+03  3.26761E+03
 -1.27564E+03  1.88071E+04 -1.13451E+04  4.57682E+03 -7.93532E+03 -7.49168E+03  1.46804E+03 -1.54590E+04
  1.50996E+04 -1.08582E+04  6.27288E+03 -6.96966E+03  1.17438E+04  2.56544E+03  1.90892E+03  8.48862E+03
  2.58548E+03  1.03681E+04 -1.31604E+03  4.27084E+03 -9.06626E+03  5.17330E+03 -3.33632E+03 -3.65542E+03
 -5.41666E+03  5.72012E+03 -1.50074E+03  8.04773E+03 -7.92124E+03  1.87259E+03 -1.20070E+04  3.24755E+03
 -1.33479E+04 -4.03757E+02 -1.71889E+03 -1.49966E+04  6.63751E+03 -2.04889E+04  9.95764E+03 -5.63295E+03
  9.36193E+03  4.50511E+02  4.05353E+03  9.98162E+03  4.82613E+03  1.56868E+04 -5.81260E+03  1.28645E+04
