 $NMID ID='MM_0lb_SNR50_19hz_g40_10.RAW', FMTDAT='(8E13.5)'
 TRAMP=1., VOLUME=1. $END
  3.10746E+05 -4.15579E+03  3.38219E+05  2.48375E+05  8.40501E+04  3.36807E+05 -1.33789E+05  2.49376E+05
 -1.89616E+05  8.05702E+04 -1.08398E+05 -3.36508E+04 -1.24825E+02 -4.66095E+04  5.49165E+04  1.02297E+03
  3.18868E+04  5.25914E+04 -1.52895E+04  7.78672E+04 -5.70480E+04  6.04076E+04 -8.25402E+04  3.60880E+04
 -7.81855E+04 -9.10052E+03 -5.54709E+04 -5.12383E+04 -1.43091E+04 -6.85381E+04  2.53632E+04 -4.62004E+04
  3.68149E+04  3.88599E+03  1.77309E+04  4.66354E+04 -4.07614E+04  4.70928E+04 -6.83001E+04 -2.31516E+02
 -4.94559E+04 -5.79921E+04 -7.65275E+03 -7.76037E+04  3.14351E+04 -5.27302E+04  4.54643E+04 -1.99195E+04
  4.45212E+04  1.12263E+04  3.45121E+04  2.55013E+04  1.65922E+04  2.89474E+04 -3.99046E+03  2.31183E+04
 -2.07477E+04  1.32439E+04 -2.24753E+04 -3.16387E+03  2.27907E+03 -5.54915E+03  2.11572E+04  1.01382E+04
  1.11371E+04  3.70647E+04 -2.89405E+04  3.38048E+04 -6.05570E+04  2.95913E+03 -5.66625E+04 -3.77134E+04
 -1.07556E+04 -5.57008E+04  3.91121E+04 -4.45764E+04  5.51435E+04  1.36498E+03  3.05232E+04  3.19858E+04
 -5.85196E+03  3.70388E+04 -2.83203E+04  1.16642E+04 -2.66262E+04 -7.48709E+03 -1.30444E+04 -1.23274E+04
 -8.31101E+03 -1.32767E+04  4.35507E+02 -1.48231E+04  4.86100E+03 -2.28867E+04  1.24971E+04 -1.81839E+04
  1.88538E+04  5.66735E+03 -2.63576E+03  1.73300E+04 -2.10974E+04  5.91426E+02 -3.42609E+03 -2.65260E+04
  2.17362E+04 -3.75639E+04  4.48617E+04 -1.76994E+04  4.16047E+04  2.01266E+04  1.05885E+04  3.60189E+04
 -1.64784E+04  2.95958E+04 -1.94924E+04 -1.95885E+03 -8.05260E+03 -2.34842E+04  1.98276E+04 -3.47180E+04
  3.83567E+04 -5.79098E+03  2.92389E+04  2.43515E+04  1.34883E+04  4.08338E+04 -9.87611E+03  4.59977E+04
 -2.76317E+04  2.82893E+04 -3.67077E+04  4.93195E+03 -3.56572E+04 -1.38579E+04 -2.27504E+04 -3.09876E+04
  8.97018E+03 -3.41431E+04  2.84125E+04 -1.03482E+04  2.53116E+04  1.06058E+04  3.28678E+03  1.50048E+04
 -1.49930E+04  7.88490E+03 -6.89631E+03 -1.12006E+04  4.13842E+03 -5.46999E+03  1.76609E+04  3.22777E+03
  1.47584E+04  1.99121E+04 -8.50495E+03  2.55859E+04 -2.74585E+04  1.08924E+04 -1.89649E+04 -4.33720E+03
 -1.30829E+04 -1.57557E+04 -5.12853E+03 -1.66265E+04  2.25042E+03 -1.39302E+04  1.23037E+04 -1.57643E+04
  1.77284E+04 -9.62503E+03  2.57800E+04 -7.97171E+02  1.84658E+04  1.13438E+04  7.84318E+03  3.54705E+04
 -1.24511E+04  2.82694E+04 -2.35601E+04  9.08965E+03 -2.00968E+04 -8.94901E+03 -6.88476E+03 -1.13661E+04
  7.40269E+02 -9.37976E+03 -5.50134E+03  6.65716E+03 -9.04132E+03  4.43399E+03 -1.20801E+04 -6.58146E+03
 -9.35945E+03 -1.56070E+04  4.54590E+03 -2.14039E+04  8.00161E+03 -9.96327E+03  1.51262E+04 -2.15830E+03
  9.35230E+03  1.15178E+04 -7.18134E+02  2.04019E+04 -6.06587E+03  4.71081E+03 -1.38854E+04 -4.67800E+03
 -9.48857E+03 -1.49448E+04 -3.29913E+03 -1.64797E+04  8.10468E+03 -1.86962E+04  1.56584E+04 -1.04988E+04
  1.43378E+04  2.00787E+03  1.38296E+04  2.53877E+03  7.79407E+03 -1.68786E+03  8.43993E+03  2.36538E+03
  1.69000E+04  9.62596E+02  1.33901E+04  1.29398E+04  1.01969E+04  2.53716E+04 -4.17295E+03  2.04162E+04
 -1.37856E+04  2.16179E+04 -2.36852E+04  7.73472E+03 -1.66631E+04 -4.99102E+03 -2.01627E+04 -1.22615E+04
 -1.01403E+04 -2.13538E+04  5.86208E+03 -1.73295E+04  1.61034E+04 -6.69093E+03  1.56800E+04  4.20422E+03
  7.36915E+03  1.21314E+04 -3.36168E+03  1.05467E+04 -9.54747E+03  3.15464E+03 -9.47532E+03 -9.12184E+03
 -9.74766E+02 -7.19574E+03  9.94520E+03 -9.34456E+03  5.88533E+03 -2.25885E+03  1.76207E+03  3.70063E+03
 -5.82809E+03  3.07122E+03  3.27400E+02 -6.43047E+03  1.54403E+03 -1.24525E+04  7.77121E+03 -9.26636E+03
  8.36305E+03 -5.11354E+03  1.32367E+04  4.90903E+03  1.07296E+04  9.02344E+03  2.07020E+03  1.21362E+04
 -3.88443E+03  1.27492E+04 -1.01630E+04  8.58070E+03 -8.34429E+03  2.01181E+03 -7.11188E+03 -1.02383E+03
 -5.52099E+03 -5.06460E+03  3.93317E+02  2.68618E+03 -4.38057E+03  1.06348E+03 -1.51569E+03  3.85536E+03
 -1.07408E+04 -1.54232E+02 -1.04666E+04 -7.52318E+03 -2.00013E+03 -7.69754E+03  1.80325E+03 -8.27488E+03
  3.24351E+03 -3.52107E+02  5.49575E+02  5.26684E+03  1.16472E+03  2.92128E+03 -5.28305E+03  5.74408E+02
 -2.12503E+01 -5.49562E+03 -2.78835E+03 -9.49988E+03  3.72979E+03 -7.55873E+03  1.03233E+04 -1.37008E+03
  9.65006E+03  2.25550E+03  7.45892E+03  3.91300E+03  3.29892E+03  8.75319E+03 -4.29421E+03  7.42606E+03
 -3.65174E+03  6.68705E+02 -2.09591E+03  3.31536E+03  2.15370E+03 -5.10877E+03  2.26888E+03  2.90337E+03
  3.12645E+03  1.45492E+03  2.31674E+03  2.95732E+03 -2.83849E+03  5.17425E+03 -6.42701E+03 -3.61853E+02
 -6.52697E+03 -5.24193E+03  1.76105E+03 -1.23013E+03  2.95339E+03 -2.47199E+03  2.42109E+03 -6.45558E+03
  8.47299E+02  3.70217E+03 -3.50755E+03  6.38365E+03 -4.30439E+03  3.08129E+03 -7.29829E+03 -4.55008E+03
 -3.07742E+03 -3.59870E+03  1.95552E+03 -6.57328E+03  5.74310E+03 -5.01422E+03  8.46771E+03  8.68049E+02
  5.82921E+03  3.02079E+03  3.12308E+02  6.27363E+03 -5.73166E+03  2.87753E+03 -8.31086E+03 -3.73998E+03
 -2.87985E+03 -1.12339E+03 -3.65465E+02 -6.14113E+03 -1.55520E+03 -4.37198E+03  1.25181E+02 -2.06555E+03
 -1.36185E+03  5.18725E+03  7.22331E+02  1.15352E+03 -4.50564E+03  1.79445E+03 -3.25462E+03 -1.33388E+03
  4.57973E+03 -1.94122E+02  4.36723E+03  3.52701E+03  7.66272E+03  1.73772E+03  6.40050E+03  5.37748E+03
 -1.66111E+03  4.36155E+03 -6.16138E+03  6.69934E+03 -6.67403E+03 -1.82258E+02 -4.87013E+03 -3.07860E+03
 -5.84129E+03 -8.10832E+03 -2.05627E+03 -3.71700E+03  2.39224E+01 -1.31867E+03  3.64969E+03 -2.29359E+03
  1.88066E+03 -1.68542E+03  1.36496E+03 -4.73432E+03  1.24048E+03 -9.26466E+02  2.53989E+03 -5.69304E+02
  3.49242E+03 -7.07213E+02  2.09361E+03  5.14075E+03 -2.33594E+03  3.06700E+03 -6.26851E+03  3.00990E+03
 -5.48573E+03  8.05758E+02 -7.69256E+02 -3.62885E+03 -1.20523E+03 -3.90356E+03  4.01905E+03 -3.67925E+03
  7.19537E+03 -5.28637E+03  4.48258E+03 -2.40874E+03  2.70373E+03  6.45601E+03  3.93602E+03  3.66222E+03
 -3.35628E+03  1.84533E+03 -7.29609E+03 -1.37220E+03 -1.14598E+03 -2.49639E+03 -3.05558E+03 -1.58145E+03
  2.54626E+03  4.72886E+02 -6.31628E+02  2.68133E+03 -1.49826E+03  3.35432E+03 -1.56808E+03 -1.20364E+03
 -3.84501E+03 -4.31828E+03  2.77512E+02 -7.21446E+03  8.17090E+02 -7.00860E+03 -1.58976E+03  2.16811E+03
  2.12702E+03  5.13002E+03  5.95528E+03  3.83793E+03 -1.64473E+03  4.96648E+02 -2.58860E+03  2.33684E+03
  3.02296E+03 -7.27130E+02 -8.70652E+03  1.49374E+03  7.86257E+01 -5.29867E+03  5.42670E+01  2.50645E+02
  2.62824E+03  2.06015E+03  2.97853E+03 -1.32525E+03 -4.74730E+03  3.55345E+02  1.10306E+03 -1.78477E+03
  2.22050E+03  2.16334E+03  3.42190E+03  1.55943E+03 -1.41858E+03  3.01498E+03  3.62710E+03  1.49506E+03
 -5.79023E+02  6.45823E+03 -7.62441E+02  6.58946E+03 -4.36643E+03 -1.96746E+03 -5.32290E+03 -1.06318E+03
 -2.77794E+03 -7.27033E+03 -8.52281E+02 -7.38937E+03 -6.40130E+01 -1.25022E+03  1.88949E+03  2.34651E+03
 -1.72129E+03  4.02730E+03  1.45816E+02 -3.32256E+02  5.88016E+02 -1.11976E+03  2.49046E+02  2.97174E+03
  3.95711E+02 -1.22392E+03  1.91807E+03 -4.43206E+03  2.17365E+03 -6.31092E+02  1.10799E+03  3.94360E+03
 -2.21134E+03  1.91139E+03  1.49007E+03 -5.47610E+01 -1.72827E+03 -1.35508E+03  1.15375E+03  8.07703E+02
 -1.45502E+03  2.06736E+03  1.06227E+03 -3.21536E+03  2.25676E+02 -2.98769E+03  7.04355E+02  1.99940E+03
 -4.49327E+03  1.27101E+03 -1.10918E+02  4.32906E+03 -2.04197E+02  5.95276E+02 -1.56429E+03  1.06084E+03
  3.57901E+03  9.50037E+02  1.05114E+03  1.42298E+02 -1.08479E+03  3.14545E+02  1.31644E+03 -1.98027E+03
  1.31207E+03 -3.52346E+02 -3.24272E+03  1.06528E+02  1.03104E+03 -2.53546E+03  6.41060E+02 -3.53348E+03
  1.28053E+03  2.68923E+03 -4.38957E+02  1.08750E+03 -9.22633E+02  2.46952E+03  1.70073E+03  1.92746E+03
 -3.88257E+03 -3.07878E+03  3.84696E+02  2.65633E+03  8.61353E+02 -5.56532E+02  2.53309E+02 -3.38767E+03
  1.58751E+03  1.88181E+03 -1.75585E+03  4.29338E+03  3.59401E+03  3.42064E+03  1.65340E+03 -2.80412E+02
 -4.50045E+03  1.69565E+03  3.49154E+03  7.81172E+02  1.35106E+03 -1.98641E+03 -7.20671E+02 -3.34643E+02
 -1.03190E+03  1.11538E+03  4.74222E+03 -1.06339E+03  2.40942E+03 -4.07147E+02  1.30958E+03  3.54899E+03
 -6.55163E+03  1.45080E+03  5.00641E+02  3.92589E+03  2.52019E+03  2.73533E+03 -1.00167E+03 -1.12555E+03
 -3.79366E+03 -3.13246E+02 -4.59163E+03 -2.08880E+03 -7.08973E+03 -5.64923E+02 -1.79333E+03 -3.42787E+03
 -1.69798E+03 -1.77947E+03  3.03802E+03 -6.36360E+03 -1.00457E+03  1.49147E+02  2.41653E+03 -3.24845E+03
 -2.24598E+03  2.16603E+03  6.02904E+01  4.76744E+01 -1.23885E+03  4.08554E+03  3.24742E+03  1.87064E+03
 -4.81398E+03  5.66512E+02  4.91238E+02  9.51561E+01  2.42327E+03  2.38235E+02  1.74058E+03 -4.55344E+03
  3.43826E+02  5.08021E+02  6.75755E+01  5.92898E+02  2.14515E+03  4.49518E+03  2.35468E+02 -3.70728E+03
  1.39570E+03  6.36559E+02  1.24652E+03 -3.57436E+02  3.39858E+03  2.79588E+02  5.08022E+01 -2.44621E+03
  9.13947E+02  9.77084E+02 -4.10528E+02  4.28886E+03  2.13012E+02  2.26890E+03  2.49016E+03 -2.12472E+02
 -7.42587E+02  1.36522E+03  4.96141E+02  1.59981E+03  3.95320E+00  5.70341E+02  5.26661E+03  1.33813E+03
  7.42813E+02 -6.88523E+02 -3.73374E+02  1.61552E+03  1.99947E+03  2.32249E+03  3.26324E+02 -4.69488E+03
 -1.15972E+02  1.13503E+03  1.14939E+03  3.39193E+03 -1.55524E+03  4.46935E+01  5.51882E+02  1.38224E+03
 -3.19447E+03 -3.10458E+03  6.46844E+02 -1.93302E+03 -2.09543E+03 -1.02038E+03 -1.04134E+03 -1.34340E+03
  1.43205E+03 -1.00641E+03  1.62773E+03 -1.36538E+03 -7.58449E+02  4.19303E+03  3.16392E+03  3.91792E+03
 -1.11462E+03  3.03947E+03  2.71418E+02 -1.68532E+03 -3.25918E+03  2.57075E+03 -1.39912E+03  8.41498E+02
  3.25321E+03 -1.76083E+03 -1.80076E+03 -4.05752E+02 -6.31343E+02 -9.50878E+02 -5.37260E+02  3.54193E+02
 -1.77802E+03  3.95596E+03  1.03086E+03 -4.09348E+03 -2.73870E+03 -4.01053E+03  1.66432E+03 -3.19281E+03
 -3.30372E+02 -3.44429E+02  3.66820E+03  2.16325E+03  9.38945E+02  1.39601E+03 -1.87282E+03 -2.95435E+03
