 $NMID ID='MM_0lb_SNR50_20hz_g60_82.RAW', FMTDAT='(8E13.5)'
 TRAMP=1., VOLUME=1. $END
  3.11736E+05 -1.79862E+03  3.36613E+05  2.49343E+05  8.54427E+04  3.38704E+05 -1.36513E+05  2.51474E+05
 -1.88171E+05  8.40087E+04 -1.13911E+05 -2.68415E+04 -1.91479E+03 -5.13558E+04  5.27627E+04 -2.65195E+03
  3.47513E+04  5.01443E+04 -1.60146E+04  7.48007E+04 -6.07378E+04  6.02931E+04 -8.14595E+04  3.04821E+04
 -8.15623E+04 -1.30884E+04 -5.28130E+04 -5.10227E+04 -1.75528E+04 -6.74808E+04  2.82389E+04 -4.48978E+04
  4.06734E+04 -2.47864E+01  1.14725E+04  4.45995E+04 -3.37301E+04  5.08433E+04 -6.07344E+04  1.98911E+01
 -5.33602E+04 -5.62010E+04 -6.78452E+03 -7.37467E+04  3.51656E+04 -5.42457E+04  4.52817E+04 -1.49356E+04
  4.37551E+04  1.20553E+04  3.56410E+04  2.60137E+04  1.79640E+04  2.58391E+04 -7.21680E+03  2.87505E+04
 -2.07147E+04  1.31493E+04 -1.55256E+04 -2.43527E+03  2.73455E+03 -7.04622E+03  1.95394E+04  1.47647E+04
  7.06108E+03  3.94198E+04 -2.91153E+04  3.94021E+04 -6.33214E+04  6.21553E+02 -5.73382E+04 -4.21175E+04
 -1.87149E+04 -5.85186E+04  3.88065E+04 -4.15540E+04  5.30055E+04 -4.49423E+03  3.48988E+04  2.69680E+04
 -1.12526E+04  3.49726E+04 -2.93919E+04  1.20655E+04 -3.15204E+04 -1.75222E+03 -1.42210E+04 -8.97172E+03
 -8.17612E+03 -1.10300E+04  1.43752E+03 -1.54442E+04  6.41523E+03 -2.07488E+04  1.61170E+04 -1.62028E+04
  1.41630E+04  3.79228E+03 -7.34208E+03  1.16570E+04 -1.49426E+04 -5.18179E+03 -1.10017E+04 -3.29797E+04
  2.45485E+04 -4.06670E+04  4.60436E+04 -1.72658E+04  4.66137E+04  2.09372E+04  1.58720E+04  4.59096E+04
 -1.67192E+04  2.71288E+04 -2.15673E+04 -3.16995E+03 -9.85921E+03 -2.52523E+04  2.17405E+04 -3.34558E+04
  3.86658E+04 -1.10664E+04  3.39412E+04  2.24169E+04  1.37686E+04  4.76000E+04 -8.99427E+03  4.39233E+04
 -2.94128E+04  3.26041E+04 -3.66486E+04  9.10441E+03 -3.57890E+04 -1.75642E+04 -1.87559E+04 -3.44343E+04
  6.39624E+03 -3.23919E+04  2.95685E+04 -1.56631E+04  2.56403E+04  6.85157E+03  4.69793E+03  1.66385E+04
 -1.30630E+04  1.06118E+04 -1.08458E+04 -8.51542E+03 -3.24766E+02 -1.02814E+04  1.82196E+04  4.60462E+03
  1.31662E+04  1.97694E+04 -4.90844E+03  2.43767E+04 -2.75438E+04  8.69676E+03 -2.75133E+04 -6.62048E+03
 -1.92951E+04 -1.96115E+04 -8.31088E+03 -1.76417E+04  3.91528E+03 -1.53437E+04  1.13073E+04 -1.46922E+04
  2.13094E+04 -1.42848E+04  3.05229E+04 -1.56692E+03  2.05549E+04  1.53100E+04  6.23350E+03  3.17018E+04
 -1.75613E+04  2.67799E+04 -2.61648E+04  8.04712E+03 -1.96333E+04 -1.02728E+04 -4.42579E+03 -1.71795E+04
  3.25540E+03 -3.67259E+03 -1.25775E+03  5.23500E+03 -1.28964E+04  8.19346E+03 -1.61234E+04 -5.43437E+03
 -1.21106E+04 -1.68358E+04  6.37148E+03 -2.08173E+04  9.31710E+03 -1.45686E+04  1.71540E+04 -1.51022E+03
  9.51699E+03  9.53331E+03 -1.58426E+03  1.69867E+04 -9.53804E+03  8.74229E+03 -1.51997E+04 -3.77487E+03
 -1.19093E+04 -1.33805E+04 -2.40765E+03 -2.13461E+04  8.32697E+03 -1.29153E+04  1.55533E+04 -4.78662E+03
  1.20248E+04  3.82023E+03  8.11370E+03  3.71563E+03  9.48018E+03 -4.55768E+03  8.13737E+03 -2.24877E+02
  1.43719E+04  3.09967E+03  1.05397E+04  1.59936E+04  7.65076E+03  2.53279E+04 -2.28585E+03  3.06761E+04
 -1.73633E+04  2.02972E+04 -2.19170E+04  1.13618E+04 -3.04504E+04 -3.13152E+03 -2.54383E+04 -1.35929E+04
 -1.15291E+04 -1.90237E+04  2.61994E+03 -2.00001E+04  1.49980E+04 -9.48857E+03  1.54508E+04  3.74599E+03
  7.99855E+03  1.16277E+04 -7.53793E+03  1.39092E+04 -1.52036E+04  4.27041E+03 -1.12463E+04 -9.19640E+03
  2.15660E+03 -1.08632E+04  7.43133E+03 -8.24995E+03  1.00739E+04 -3.57008E+03  6.43306E+02  5.25105E+03
 -6.20743E+03  4.58805E+03 -4.52898E+03 -6.55606E+03  2.34606E+03 -1.03063E+04  6.26581E+03 -1.03099E+04
  9.03781E+03 -5.03855E+03  1.32286E+04  2.15398E+03  1.20150E+04  8.48719E+03  3.76643E+03  1.46485E+04
 -3.66502E+03  1.38881E+04 -7.75233E+03  7.38828E+03 -1.21217E+04 -1.65915E+03 -7.69551E+03 -2.48171E+03
 -6.60996E+03 -5.90076E+03  3.84763E+02 -1.15761E+03  3.76002E+03  2.71716E+03 -2.39028E+03  2.59859E+03
 -1.26709E+04  6.22502E+01 -6.46377E+03 -1.09885E+04 -3.85200E+03 -9.97559E+03  4.87460E+03 -8.58629E+03
  8.52926E+03 -4.35166E+03  5.27250E+03  2.25106E+03 -3.67601E+03  3.87662E+03 -3.02187E+03 -5.00841E+03
 -2.61923E+03 -5.23040E+03 -4.60135E+03 -1.05576E+04  2.84437E+03 -1.03811E+04  9.20406E+03 -3.39128E+03
  9.38849E+03  1.64632E+03  3.77851E+03  6.32504E+03 -2.76964E+03  7.30567E+03 -4.86031E+03  6.67548E+03
 -7.79946E+03  4.90751E+03 -2.21557E+03  6.43656E+02  8.88159E+02  9.84802E+02  2.89353E+03  5.53703E+03
  6.06633E+03  7.48812E+03  2.76169E+03  8.89969E+03 -7.41642E+03  7.81617E+03 -6.91912E+03  2.59024E+03
 -5.03863E+03 -6.90073E+03  6.69584E+02 -8.26399E+03  4.11571E+03 -3.08776E+03  4.35248E+03  4.17948E+02
 -8.48445E+02  2.23218E+03 -8.99167E+03  1.29720E+03 -3.64972E+03  6.90710E+03 -2.71134E+03 -2.19143E+03
  2.40774E+03 -4.52435E+03 -8.38158E+02 -8.71614E+03  4.43973E+03 -4.39816E+03  5.57360E+03 -2.68062E+03
  3.59511E+03  2.55917E+03 -1.94876E+03  5.67422E+03 -3.37312E+03  7.52811E+03 -8.91116E+02  6.64774E+02
 -3.25376E+03 -7.02487E+03 -1.53109E+03 -4.72902E+03  2.69428E+03 -5.50657E+03  2.14452E+03 -5.15553E+03
  5.13286E+03  3.78736E+03 -1.87632E+03  2.88754E+03 -1.62463E+03 -3.19307E+03  3.71028E+03 -1.59954E+03
  4.02912E+03 -9.21906E+02  9.99571E+03 -2.27285E+03  2.27054E+03  3.97342E+03  2.18025E+03  4.26514E+03
 -8.40589E+02  4.53591E+03 -5.64028E+03  2.46803E+03 -8.20948E+03  2.13473E+03 -2.65231E+03 -2.78511E+03
 -3.80739E+03 -1.95484E+03 -6.73239E+02 -3.96598E+03  9.28179E+02 -5.05289E+02  4.41518E+03 -8.07128E+02
  4.69405E+02 -1.85512E+03  3.42201E+03 -2.86242E+03  5.73928E+03  1.24625E+02  2.20365E+03 -2.97818E+03
  4.31841E+03  2.17942E+03 -1.54794E+03  5.26229E+03 -3.08294E+03  1.88367E+03 -2.60647E+03  5.20901E+03
 -6.20106E+03 -1.03492E+03 -2.19044E+03 -1.26287E+03  2.83947E+03 -3.87053E+03  2.22138E+03 -4.90979E+02
 -1.20271E+03  1.73568E+03  4.96373E+03 -4.59716E+02  6.09747E+03  1.91650E+03  3.60023E+03  8.27348E+03
 -2.19402E+02  7.40500E+03 -1.43693E+03  7.58019E+01  8.35499E+02 -4.73827E+02  8.29277E+02 -1.14987E+03
  2.33522E+02  3.00048E+03 -1.62088E+03  3.99303E+03 -3.60020E+03  3.21728E+03 -3.95744E+03  2.59888E+03
  1.46455E+03 -3.76958E+03  1.93617E+03 -3.49376E+03  6.62573E+03 -1.47944E+03  3.53285E+03 -1.39190E+03
  4.35805E+03 -8.46035E+02 -1.59456E+03  2.61503E+03 -2.28987E+03  3.88415E+03 -5.37380E+03  7.02416E+02
 -5.48593E+03  1.06123E+03 -3.78513E+03  2.48516E+03  5.21034E+02 -3.11317E+03  3.35181E+03 -3.26887E+03
  7.37221E+02  1.27157E+03  8.78388E+02  3.27735E+03  2.69473E+02  2.55383E+03 -7.21939E+02 -3.86097E+03
  1.94989E+03  3.60172E+03  6.71808E+02  1.57944E+03  4.15289E+03  2.42116E+02  5.25659E+03 -1.66963E+03
 -2.17383E+02  1.42668E+03 -1.52169E+02  5.76934E+03 -3.06119E+03  1.61146E+03 -1.61025E+03  2.81629E+03
 -2.70441E+03  2.26225E+02 -1.51089E+03 -1.13316E+03  2.52106E+03 -3.21030E+03 -9.08912E+02  3.22039E+03
  3.35422E+02  2.07180E+03  2.40049E+03  9.27279E+02 -1.81349E+02  2.05857E+03 -4.24033E+03  2.16173E+01
 -1.08639E+03 -1.58929E+03  2.87449E+03 -1.45429E+03  2.35614E+03  2.12618E+02 -1.23883E+03 -1.21132E+03
  6.18478E+03 -4.32555E+03  4.01120E+02  1.25548E+03  1.18002E+03  2.03920E+02  1.71631E+03  1.43530E+03
 -5.79099E+02 -3.89950E+02  1.13088E+03 -2.60206E+03  4.44561E+03  3.72802E+03  4.59159E+02  3.90004E+03
 -2.69389E+03  1.41146E+03  1.24250E+03  4.93381E+02  1.13317E+03  2.81341E+02  2.90709E+03 -2.50391E+03
  2.50191E+03 -7.00781E+02 -2.11378E+03  3.64283E+02 -1.56416E+03  4.90429E+02 -2.94786E+02  2.85661E+03
 -1.45388E+03  2.76397E+03 -4.47305E+02 -2.56673E+03  5.40399E+03 -5.76276E+03  6.79829E+02  5.41976E+02
 -1.23757E+03 -7.88942E+02  2.49335E+03 -2.16387E+03 -2.00081E+03 -2.70903E+03  8.07085E+02 -2.34506E+01
  4.16129E+03 -5.09801E+02 -2.32323E+03 -1.62689E+03 -3.99606E+03  9.90078E+02  6.11789E+02 -4.82434E+02
 -5.45848E+02  1.84263E+02  3.92030E+02 -3.91039E+03  1.30462E+03  1.75345E+03 -7.43596E+02 -3.87636E+02
 -3.74879E+03 -2.30008E+01  6.78888E+02 -2.83085E+03 -2.40194E+02 -3.13323E+03 -1.86100E+03  1.35364E+03
  1.62150E+02  6.41409E+02  2.87613E+03  3.23130E+03  2.03674E+03 -5.26773E+02 -1.01778E+03 -2.78114E+03
  2.80256E+02  1.48421E+03 -4.04106E+03  5.40005E+01  3.00706E+03  1.48502E+03 -1.08136E+03 -1.76973E+03
  5.22499E+03  1.00654E+03 -2.55384E+03 -1.03783E+03  3.81262E+03 -3.65203E+03 -1.51264E+02 -1.21539E+03
  4.13199E+03 -1.45394E+01 -3.01575E+03 -4.11134E+03 -1.20786E+03 -6.53288E+02 -1.07763E+03 -1.74475E+03
 -3.09074E+02  5.94441E+02  2.59640E+03  1.63241E+03  1.29420E+03 -2.38889E+03 -4.51858E+03 -2.47146E+03
 -7.76687E+02  1.70994E+03 -5.96269E+02  3.13980E+02 -7.43552E+03  4.02958E+03 -1.55083E+03  1.27970E+02
  2.13868E+03 -4.64293E+02  1.00264E+03  6.82264E+02 -1.65387E+03  1.93798E+02 -3.51986E+03  1.44903E+03
  1.05358E+03  1.89096E+03 -6.75115E+02 -1.50780E+02  4.02396E+03  7.26014E+02  2.21358E+03  2.88145E+03
 -3.42450E+03  2.19498E+03 -7.22760E+02  1.10610E+03  6.01847E+03 -3.31593E+03  1.57609E+02  5.49118E+02
 -1.78681E+03  1.29119E+03 -1.40637E+03 -1.93001E+03  5.48425E+02 -1.64396E+03 -8.08925E+02 -2.05438E+03
  9.84760E+02  7.59536E+01 -2.35269E+03  1.54495E+03 -1.73935E+03 -2.76195E+03 -2.85553E+03 -1.44375E+03
 -8.12560E+02 -3.99664E+02  3.83908E+03  1.41148E+03  2.24434E+03  2.90270E+03 -1.72644E+03  1.33608E+03
 -5.76564E+02 -4.61408E+03  1.51682E+03 -8.10601E+02  4.60203E+03 -1.05858E+02  3.93494E+03 -4.77416E+02
  1.09920E+03  1.78559E+03 -3.03450E+03 -1.00002E+03 -4.70105E+03 -2.18138E+03 -6.71490E+01 -1.11852E+03
 -2.46439E+03  3.13455E+03 -2.06309E+02  2.74732E+02  2.57707E+03  7.93594E+02 -9.46682E+02  2.17586E+03
  8.75004E+02  1.12031E+03 -3.55109E+02 -2.15776E+03  5.66368E+02 -2.54901E+03  3.96119E+03  1.73133E+03
 -3.24388E+02 -1.77126E+03  1.49718E+03 -9.77271E+02  1.42127E+03  2.59099E+02 -3.37732E+02 -4.82326E+03
  2.31351E+03  8.91052E+02 -4.55199E+03 -1.82340E+03  1.10424E+03  2.36908E+03 -1.80686E+03 -6.27100E+02
