 $NMID ID='MM_0lb_SNR50_13hz_g45_83.RAW', FMTDAT='(8E13.5)'
 TRAMP=1., VOLUME=1. $END
  3.07668E+05  2.64914E+03  3.40880E+05  2.46927E+05  7.93604E+04  3.43933E+05 -1.32149E+05  2.47112E+05
 -1.87582E+05  8.77580E+04 -1.10930E+05 -3.29496E+04  1.00241E+03 -5.30990E+04  5.57841E+04  1.95549E+03
  3.53462E+04  5.23064E+04 -1.74626E+04  7.40032E+04 -6.62844E+04  6.46290E+04 -8.74400E+04  3.28158E+04
 -8.16555E+04 -1.29166E+04 -5.72659E+04 -4.81110E+04 -1.80242E+04 -7.08573E+04  2.71418E+04 -4.23627E+04
  3.99508E+04 -1.81556E+03  1.35953E+04  4.52648E+04 -3.36422E+04  4.83236E+04 -6.69993E+04 -8.53764E+02
 -5.26068E+04 -6.12437E+04 -6.23296E+03 -7.88441E+04  3.27416E+04 -5.64513E+04  5.03841E+04 -2.22676E+04
  4.29250E+04  1.26026E+04  3.42551E+04  2.47811E+04  1.87020E+04  2.69383E+04 -2.90024E+03  2.59571E+04
 -2.12973E+04  1.15426E+04 -2.13554E+04 -8.02187E+03  6.67331E+03 -1.00399E+04  2.11175E+04  1.89780E+04
  4.20313E+03  3.14043E+04 -3.17558E+04  3.50785E+04 -6.54397E+04  1.71182E+03 -5.80964E+04 -3.82482E+04
 -1.13126E+04 -6.88752E+04  4.26389E+04 -4.24617E+04  5.87543E+04 -8.68329E+02  3.06947E+04  3.44173E+04
 -7.95055E+03  3.66967E+04 -3.11298E+04  1.83109E+04 -3.39172E+04 -6.12339E+03 -1.54924E+04 -1.50257E+04
 -1.00049E+04 -1.24150E+04  2.56701E+03 -1.72741E+04  5.19545E+03 -2.51888E+04  1.45803E+04 -8.83289E+03
  1.44912E+04  1.08652E+04 -1.04112E+04  1.10945E+04 -2.04732E+04 -4.55247E+03 -1.25233E+04 -3.37908E+04
  2.73736E+04 -4.40428E+04  4.74771E+04 -2.28773E+04  4.47277E+04  1.49833E+04  1.72218E+04  4.21607E+04
 -1.82938E+04  3.22486E+04 -2.47441E+04  4.91983E+02 -1.00381E+04 -2.60366E+04  1.89350E+04 -3.14031E+04
  4.12599E+04 -1.18882E+04  3.22820E+04  2.72162E+04  2.05970E+04  4.34666E+04 -1.15176E+04  5.65209E+04
 -2.55657E+04  2.90773E+04 -4.53474E+04  1.25297E+04 -4.22132E+04 -1.34783E+04 -2.66601E+04 -4.20816E+04
  9.05322E+03 -3.85232E+04  2.69900E+04 -1.68614E+04  3.02409E+04  6.17179E+03  8.12736E+03  2.25784E+04
 -2.01207E+04  1.10165E+04 -5.35605E+03 -3.87086E+03  2.10582E+03 -9.69792E+03  1.57771E+04  1.33094E+04
  1.06897E+04  2.27092E+04 -6.92035E+03  2.34947E+04 -1.66056E+04  9.69800E+03 -3.35534E+04 -6.38840E+03
 -2.27354E+04 -1.63249E+04 -7.00990E+03 -2.17527E+04  3.10674E+03 -2.66010E+04  1.42398E+04 -2.04837E+04
  2.88419E+04 -1.33455E+04  3.53423E+04  2.70043E+03  2.74284E+04  1.96013E+04  4.68814E+03  3.67705E+04
 -1.11409E+04  2.78587E+04 -2.67488E+04  1.00752E+04 -2.35855E+04 -8.02273E+03 -6.88544E+03 -1.63713E+04
 -1.91456E+02 -1.36573E+03 -5.73331E+03  5.34184E+03 -1.26328E+04  2.84168E+03 -1.27956E+04 -6.91654E+03
 -1.01093E+04 -1.72442E+04  9.59036E+02 -2.77718E+04  1.26836E+04 -1.83183E+04  1.60525E+04  1.19553E+03
  1.32039E+04  1.41573E+04 -3.96582E+03  1.98056E+04 -1.28927E+04  8.03868E+03 -1.43287E+04 -3.54371E+03
 -1.36918E+04 -2.12544E+04 -1.83715E+03 -2.33290E+04  8.79444E+03 -1.68665E+04  1.68697E+04 -7.33424E+03
  1.73200E+04  1.74196E+03  1.02670E+04  2.88310E+03  8.36026E+03  2.78234E+02  4.98296E+03  4.70803E+03
  2.07479E+04  1.29944E+02  2.11969E+04  1.41124E+04  1.55312E+04  2.92441E+04 -3.79536E+03  3.41311E+04
 -1.80653E+04  2.35946E+04 -3.34807E+04  1.72351E+04 -3.40226E+04 -1.49420E+03 -2.78495E+04 -2.11005E+04
 -1.20958E+04 -2.75811E+04  1.57198E+04 -2.77837E+04  1.86492E+04 -1.52264E+04  1.68471E+04  1.08266E+04
  1.29119E+04  1.02886E+04 -1.40567E+04  8.20738E+03 -1.59738E+04  8.19513E+02 -1.21709E+04 -1.16091E+04
 -6.36502E+02 -1.83479E+04  1.08318E+04 -5.74869E+03  1.39823E+04 -1.94018E+03  1.84023E+03  4.64936E+03
 -5.79394E+03  6.65675E+02 -6.97984E+03 -1.03789E+04 -4.69821E+03 -1.32076E+04  1.13714E+04 -2.07075E+04
  1.91689E+04 -4.05021E+03  1.83850E+04  2.47491E+03  1.40498E+04  9.30324E+03  3.73257E+03  2.36389E+04
 -5.19632E+03  2.55687E+04 -1.76458E+04  1.50825E+04 -1.30496E+04  2.20979E+03 -5.88114E+03 -5.24493E+03
 -8.49456E+03 -9.30261E+03  4.80301E+02  5.29084E+03 -1.57433E+03  7.58757E+03 -7.65839E+03  6.42200E+03
 -1.02327E+04  1.28407E+03 -1.10276E+04 -1.34201E+04 -5.74299E+03 -1.71456E+04  4.60642E+03 -1.21431E+04
  8.41387E+03 -6.81007E+03  4.21757E+03  6.04337E+03 -1.00758E+03  2.81589E+03 -4.38405E+03 -3.70800E+03
 -7.82306E+03 -1.13561E+04 -6.26305E+00 -8.81633E+03  2.67830E+03 -1.42291E+04  1.81155E+04 -6.86191E+03
  1.87522E+04  4.96642E+03  1.52314E+04  8.34757E+03  2.26992E+03  1.81480E+04 -7.94341E+03  1.40412E+04
 -1.08938E+04  2.92345E+03 -1.05736E+04 -2.90819E+03  3.99752E+03 -2.78114E+03  9.84273E+03 -1.72407E+03
  8.61153E+03 -1.33075E+03  1.00581E+03  9.42664E+03 -6.83039E+03  6.51078E+03 -1.22570E+04  3.17907E+03
 -8.32773E+03 -3.69486E+03 -9.33641E+02 -9.96072E+03  5.41779E+03 -6.55246E+03  7.35848E+03  8.38971E+03
  1.11156E+03  8.62399E+03 -9.60662E+03  5.62151E+03 -6.37625E+03  5.14914E+03 -4.62204E+03 -2.51574E+03
 -3.16850E+03 -1.12955E+04  2.63465E+03 -1.42811E+04  1.14837E+04 -5.47476E+03  1.33791E+04  1.84395E+03
  9.59742E+03  1.10505E+04 -2.16353E+03  1.41840E+04 -1.05326E+04  5.45758E+03 -7.17174E+03  2.43782E+03
 -4.05770E+03 -9.67218E+03  3.28344E+02 -1.19979E+04  5.91264E+03 -7.87541E+03  4.90438E+03 -4.16815E+03
  6.02046E+03 -1.79952E+03 -2.57516E+02  1.57386E+03  6.86166E+02 -1.08201E+03  7.07620E+03 -7.37295E+03
  3.46215E+03  9.34289E+02  6.94321E+03 -3.89785E+03  1.23786E+04  6.32285E+03  1.04661E+04  9.48823E+03
 -1.15869E+03  1.79394E+04 -1.04774E+04  9.83094E+03 -1.20843E+04 -1.44251E+03 -1.59950E+04 -6.41576E+03
 -8.53188E+03 -9.63987E+03  3.36169E+03 -8.42571E+03 -1.80586E+03 -5.95497E+03  3.37921E+03 -2.03292E+03
  5.26480E+03 -3.56975E+03  2.06721E+03  3.22094E+02  8.02205E+03 -8.57763E+03  7.46235E+03  5.99179E+02
  8.90902E+03  4.49726E+03  9.68124E+01  5.24972E+03 -7.19169E+01  7.62397E+03 -8.40803E+03  2.53507E+03
 -8.78234E+03  1.07563E+03 -3.67530E+03 -6.46323E+03 -2.28233E+03 -7.35268E+03  9.05839E+03 -6.51936E+03
  1.00716E+04 -5.32400E+03  1.14019E+04  4.98516E+03  1.55088E+04  9.86637E+03 -1.87017E+03  1.38286E+04
 -4.96064E+03  9.07805E+03 -1.39486E+04  3.64870E+03 -4.28799E+03 -4.01328E+03 -3.59248E+03 -3.62187E+03
  1.14627E+03  1.27636E+03  2.13610E+02  3.86550E+03 -2.23750E+03  2.93773E+03 -1.29608E+04 -1.69902E+03
 -9.81334E+03 -1.10290E+04  2.71725E+03 -8.05060E+03  5.61265E+03 -1.11393E+04  4.55254E+03 -1.81642E+02
  8.79166E+03  4.67110E+03  5.06551E+03  8.23566E+03 -2.88174E+03  8.28786E+03 -5.61332E+03  6.52693E+03
 -1.01479E+04  1.87752E+03 -3.01735E+03 -5.64975E+03  8.97170E+02 -9.68784E+03 -2.65815E+02 -4.53342E+03
  1.16466E+04 -9.57035E+02  5.07907E+03 -3.10633E+03  6.90102E+02  5.47080E+02  3.28379E+03  2.38183E+03
 -8.75073E+02  1.43512E+03 -9.24260E+02  1.89694E+03  4.77613E+03  2.82362E+03  5.35243E+02  2.57714E+03
  4.88961E+03  7.17799E+03 -1.00824E+04  9.93864E+03 -1.19356E+04  2.26612E+03 -8.62983E+03 -7.16227E+03
 -2.01092E+03 -7.70434E+03 -1.57643E+03 -1.10824E+04  2.96071E+03 -6.20564E+03  3.19547E+03 -3.28202E+03
  2.84722E+03  1.92634E+03  1.22672E+03  6.63064E+03 -6.80197E+03  1.71613E+03 -3.92280E+03 -1.19176E+03
  4.19143E+03 -4.32012E+03 -1.75553E+03 -4.03558E+03  4.11085E+03 -4.88779E+03  5.66731E+03  5.47604E+02
 -3.63326E+01  3.83033E+03 -6.46945E+03  2.56645E+02  3.70671E+03  4.19577E+02  1.49716E+03  4.73402E+02
  2.01337E+03 -2.80136E+03  9.57572E+03  3.74010E+02 -1.39075E+02  9.21876E+03 -1.26151E+03  4.17295E+03
 -7.65770E+02  9.04517E+03 -9.98390E+03 -3.34511E+03 -4.49183E+03  3.58438E+03  1.57792E+03 -4.69792E+03
 -5.03557E+03 -4.71364E+02  6.28688E+03 -2.84719E+03  1.58805E+03  3.99087E+03  3.64286E+03  5.29411E+03
 -7.45133E+03  6.98237E+01 -8.25886E+03 -1.52648E+03 -5.34412E+03 -3.04255E+03  2.01019E+03 -6.95669E+03
 -2.49511E+03 -6.26463E+03  3.87881E+03 -6.00521E+02 -1.38715E+03  3.11464E+03 -2.50196E+03 -3.75242E+02
  1.73761E+03  3.29157E+02 -4.35813E+03 -5.07508E+03  3.66640E+03 -1.35449E+02  5.75828E+03 -8.24255E+03
  5.10061E+03  4.39732E+03  4.32946E+03  4.49749E+03 -2.18914E+03  4.70534E+03 -4.09154E+03  8.33387E+03
 -6.99470E+03  2.56826E+03 -1.83050E+03 -2.39710E+03 -4.87544E+03 -7.29016E+03  1.40908E+03 -3.77414E+03
  1.07116E+03 -3.38480E+03  3.09033E+02 -1.56733E+03  3.77773E+03  7.57776E+02  9.26737E+02  4.11054E+03
 -1.96147E+03  1.18742E+02 -3.21439E+03  7.48647E+02 -6.73695E+02 -2.45589E+03  4.05122E+03  1.97189E+03
  6.94734E+01  4.55810E+03 -1.03011E+03  2.27527E+03 -3.05858E+03 -3.62097E+03 -4.23782E+03 -5.06618E+03
 -1.88310E+03 -9.93822E+03  6.92736E+02 -5.07915E+03  6.13094E+03 -8.55395E+03  8.88857E+03  3.67374E+01
  4.38333E+03  9.17894E+02  8.07468E+03  2.12896E+03 -2.75390E+03  5.65307E+03 -2.07088E+03  6.48649E+03
 -8.36076E+02  3.15613E+03 -2.23528E+03  6.97423E+01  3.15823E+03 -3.77984E+03  1.30114E+03  2.09886E+03
 -5.19976E+03 -2.00818E+03 -1.13788E+03  8.46980E+02 -5.22280E+02 -3.18181E+03 -4.78474E+03 -6.31596E+02
  7.52882E+02 -2.55824E+03  6.64799E+03 -3.68683E+03 -2.05974E+03  2.97300E+03  1.66321E+03  2.25050E+03
 -2.68530E+03  6.09591E+03 -2.96733E+03  2.41975E+03 -2.02008E+03 -1.86726E+03 -7.36512E+03 -6.78069E+03
 -2.98184E+03 -7.43413E+03  1.24608E+03 -6.60442E+03  1.24932E+03 -3.93758E+03  1.99609E+01 -3.61320E+03
 -1.34413E+03  5.70496E+03  5.86766E+03 -1.29965E+03  7.43289E+02  4.74258E+03  4.44204E+02 -5.76426E+02
  5.09916E+03  2.00946E+03  1.44586E+03  3.99370E+01  1.10180E+03  2.59652E+03  3.11928E+03  1.02122E+03
 -4.53673E+03 -2.64183E+02  2.38765E+02  2.88008E+03 -2.66907E+03 -3.33637E+03 -5.24648E+03 -6.09612E+03
  1.08984E+03 -1.41334E+03  5.88608E+03 -6.25917E+03  1.68006E+03  1.26306E+03  1.91598E+03  6.08754E+03
  2.02572E+03  6.52160E+03 -2.59296E+03  3.87325E+03 -2.46663E+03  2.42325E+03 -4.36543E+03  4.24139E+03
 -9.86301E+02  3.26791E+03  1.06163E+03  2.24271E+03  7.15832E+02  4.80054E+02  2.59544E+03 -2.64962E+03
 -1.09505E+04  3.99023E+03 -4.13403E+03  3.27328E+03  2.29814E+03 -5.53181E+03 -1.04699E+03  2.75860E+03
  3.14827E+03 -9.26199E+02  1.99078E+03 -8.42887E+02 -2.66715E+03  2.11278E+03  3.12842E+03  5.15523E+03
