 $NMID ID='MM_0lb_SNR50_12hz_g55_56.RAW', FMTDAT='(8E13.5)'
 TRAMP=1., VOLUME=1. $END
  3.09383E+05  5.56935E+03  3.36392E+05  2.49797E+05  8.30070E+04  3.40058E+05 -1.31574E+05  2.51752E+05
 -1.91873E+05  8.83020E+04 -1.10466E+05 -3.18937E+04  8.88009E+02 -5.09730E+04  5.18363E+04 -4.94908E+03
  3.56579E+04  5.60623E+04 -1.49492E+04  7.40634E+04 -6.66374E+04  6.41658E+04 -8.32580E+04  3.05129E+04
 -7.67468E+04 -7.76254E+03 -5.59931E+04 -5.32601E+04 -1.41367E+04 -7.30924E+04  2.97982E+04 -4.95522E+04
  4.00270E+04  4.56771E+03  2.28727E+04  4.33031E+04 -3.36148E+04  5.03477E+04 -6.50102E+04 -4.18570E+03
 -5.99024E+04 -5.79753E+04 -5.21936E+03 -8.27566E+04  2.94964E+04 -5.64388E+04  4.79682E+04 -1.67428E+04
  4.73962E+04  1.07419E+04  3.20859E+04  2.80998E+04  1.78037E+04  3.09370E+04 -6.71080E+03  3.00569E+04
 -2.05048E+04  1.22221E+04 -2.06953E+04 -3.22000E+03  1.56161E+03 -8.78857E+03  1.83482E+04  1.06940E+04
  7.74046E+03  3.76745E+04 -2.95909E+04  3.79775E+04 -6.42059E+04 -9.40385E+01 -5.40493E+04 -4.26169E+04
 -1.44358E+04 -5.83423E+04  4.12671E+04 -4.59311E+04  6.21890E+04 -8.65198E+03  3.59446E+04  3.67078E+04
 -5.03535E+03  3.57261E+04 -3.00611E+04  1.92706E+04 -3.16536E+04 -3.12886E+03 -1.45807E+04 -9.21062E+03
 -9.01628E+03 -8.03922E+03 -4.49205E+03 -1.71701E+04  1.12336E+04 -2.22834E+04  1.77822E+04 -1.37902E+04
  1.03734E+04  1.00292E+04 -1.15497E+04  1.30192E+04 -2.03751E+04 -8.82547E+03 -3.15834E+03 -3.44600E+04
  2.56271E+04 -4.41767E+04  4.78017E+04 -2.34572E+04  4.55821E+04  2.42770E+04  1.51519E+04  4.12144E+04
 -1.57617E+04  3.37309E+04 -2.23546E+04  2.82342E+02 -1.23129E+04 -2.97455E+04  1.45917E+04 -3.52678E+04
  4.42889E+04 -1.42182E+04  3.79985E+04  2.36590E+04  2.31569E+04  5.24450E+04 -8.74311E+03  5.06996E+04
 -2.50144E+04  3.48814E+04 -4.70368E+04  1.87649E+04 -4.85507E+04 -1.71265E+04 -2.76234E+04 -3.20436E+04
  4.38793E+03 -3.77770E+04  3.11225E+04 -1.52186E+04  3.34133E+04  6.46205E+03  8.67874E+03  2.08907E+04
 -9.90918E+03  1.45927E+04 -1.20496E+04 -6.63811E+03  2.35563E+03 -1.36854E+04  2.26996E+04  2.73704E+03
  1.73318E+04  2.91309E+04 -2.99806E+03  2.27957E+04 -1.93657E+04  1.10240E+04 -2.91540E+04 -8.81076E+03
 -2.47347E+04 -1.77492E+04 -8.83684E+03 -1.97613E+04  5.84551E+03 -2.76012E+04  1.66248E+04 -2.54250E+04
  2.72800E+04 -1.12933E+04  3.71720E+04  3.85335E+03  2.57996E+04  2.17577E+04  6.96719E+03  3.59459E+04
 -2.32768E+04  3.39584E+04 -3.07930E+04  5.31856E+03 -2.23667E+04 -3.37371E+03 -2.65480E+03 -1.41120E+04
 -3.57181E+03 -3.69725E+02 -5.07030E+03  9.39566E+03 -1.72767E+04  5.12623E+03 -2.12584E+04 -1.16925E+04
 -6.67305E+03 -2.07909E+04  2.89131E+03 -2.66665E+04  1.38119E+04 -2.20480E+04  1.89180E+04 -2.73562E+02
  8.64177E+03  2.13696E+04  8.01627E+01  2.18798E+04 -1.92216E+04  9.04310E+03 -1.95179E+04 -5.28732E+03
 -2.17202E+04 -2.09528E+04  2.18125E+03 -2.72955E+04  1.18567E+04 -2.57797E+04  2.05502E+04 -8.57952E+03
  1.84000E+04  1.13047E+03  1.26006E+04  7.22558E+03  7.37859E+03 -2.31797E+03  1.17097E+04 -3.82582E+03
  2.14375E+04 -1.34276E+03  2.34829E+04  1.30993E+04  1.03600E+04  2.95517E+04 -5.08427E+03  3.69985E+04
 -2.31410E+04  3.63971E+04 -3.87667E+04  1.49622E+04 -3.84851E+04 -5.60082E+03 -3.58445E+04 -1.72888E+04
 -1.24873E+04 -3.55065E+04  7.78430E+03 -3.00364E+04  2.79394E+04 -1.53388E+04  1.97262E+04  3.41451E+03
  7.85359E+03  1.62226E+04 -1.18932E+04  1.68927E+04 -2.01369E+04 -8.00076E+02 -1.84513E+04 -1.28830E+04
 -2.92381E+02 -1.59076E+04  3.55849E+03 -1.05108E+04  1.16811E+04 -2.99172E+03  2.18393E+03  5.41036E+03
 -8.58787E+03  2.60746E+03 -1.13405E+04 -2.18996E+03 -4.32152E+03 -1.70612E+04  1.48234E+04 -1.78697E+04
  2.30133E+04 -1.44992E+04  2.32657E+04 -3.60591E+03  1.77266E+04  1.50576E+04  1.03307E+04  2.40439E+04
 -7.86510E+03  2.35997E+04 -1.59364E+04  1.75288E+04 -1.27018E+04  1.72466E+03 -1.60241E+04 -1.02907E+04
  5.26690E+02 -4.86989E+03  3.62735E+02  2.63688E+02  1.55100E+03  5.80103E+03 -7.04604E+03  5.17561E+02
 -1.61355E+04 -4.69677E+03 -1.62900E+04 -1.31715E+04 -8.27540E+03 -1.62870E+04  2.46795E+03 -1.29953E+04
  1.22147E+04 -6.12177E+03  4.54274E+03 -4.70469E+03 -1.43311E+03  6.09391E+03 -3.04358E+03  1.89126E+03
 -3.44630E+03 -4.38582E+03  5.98513E+02 -1.37496E+04  1.02835E+04 -1.09565E+04  1.45244E+04 -4.11551E+03
  2.41287E+04 -1.43502E+03  1.90088E+04  1.19349E+04  4.92684E+03  1.58678E+04 -9.85940E+03  1.41893E+04
 -1.09700E+04  4.76259E+03 -4.10125E+03  3.20588E+02  2.33451E+03 -7.09706E+02  5.05880E+03 -5.60441E+03
  1.59312E+03  5.80703E+03  1.23956E+03  1.01239E+04 -8.06253E+03  5.63340E+03 -1.17835E+04  7.34770E+02
 -1.06303E+04 -1.00377E+04 -9.46142E+02 -1.34381E+04  9.27286E+03 -4.10884E+03  8.23119E+02  7.28177E+03
 -2.55688E+03  1.04999E+03 -6.61149E+03  3.48101E+03 -8.85528E+03  5.88338E+03 -1.14904E+04 -2.35920E+03
 -1.13956E+04 -1.37968E+04  6.70147E+03 -6.48306E+03  8.08376E+03 -1.00402E+04  1.73252E+04  3.59015E+03
  1.13630E+04  1.59193E+04 -4.86559E+03  1.01788E+04 -4.62066E+03  4.64075E+03 -1.02113E+04  4.04808E+03
 -7.26883E+03 -7.77513E+03 -5.60681E+03 -1.57996E+04  4.92085E+03 -1.38594E+04  5.10673E+03 -1.41596E+03
  2.67859E+02  3.16903E+02 -1.80752E+03 -1.05155E+03  2.34351E+03 -2.07253E+03 -9.29715E+02 -4.63202E+03
  8.58541E+03 -1.02078E+03  1.20762E+04  3.50175E+03  1.59326E+04  7.16374E+03  7.18137E+03  1.97680E+04
 -3.02225E+03  1.64769E+04 -1.66827E+04  1.52721E+04 -2.28144E+04  4.66106E+03 -1.32225E+04 -6.56311E+03
 -7.43089E+03 -1.54622E+04 -3.20162E+03 -9.11046E+03  9.69714E+03 -3.24839E+03 -1.60133E+03 -3.72305E+03
  5.18837E+03 -1.70428E+03  3.38622E+03  1.36058E+02 -8.44063E+02 -3.42120E+03  8.40253E+03  3.87841E+02
  1.07834E+04  5.00836E+03  4.98879E+03  5.93634E+03 -6.86717E+02  3.20957E+03 -9.61924E+03  3.67409E+03
 -1.33373E+04 -1.27375E+03 -1.04478E+04 -8.53180E+03 -3.07318E+03 -8.08369E+03  6.74551E+03 -1.08360E+04
  1.00117E+04 -4.00544E+03  1.61104E+04  5.33852E+03  1.58539E+04  8.21097E+03  2.51693E+03  1.05471E+04
 -1.03861E+04  1.17446E+04 -1.47987E+04  3.57089E+03 -9.89957E+03 -1.82257E+03 -7.32402E+03  4.80862E+03
 -1.89080E+03  2.51078E+03 -2.41888E+03 -3.07999E+02 -2.42833E+03  2.54977E+03 -3.48893E+03 -2.68180E+03
 -5.45190E+03 -5.46705E+03 -1.84391E+03 -1.04390E+04  1.60020E+03 -1.04086E+04  7.53599E+03  1.27288E+01
  6.90481E+03  9.47747E+03  3.09822E+03  3.06419E+03  7.19230E+01  1.25943E+04 -8.83303E+03  5.80136E+03
 -1.62670E+04  8.21821E+01 -7.49505E+03 -5.36613E+03  2.73796E+02 -1.21626E+04  4.22111E+03 -4.74735E+03
  1.34131E+04 -1.07974E+03  3.81041E+03  1.79213E+03  3.23327E+02  1.80424E+03  2.07370E+03 -9.36721E+02
 -6.74042E+02  4.12117E+03 -2.49028E+03  2.77643E+02  5.73543E+03  6.03327E+03 -2.29902E+03 -2.22556E+03
 -3.21827E+03  1.31624E+04 -8.99993E+03  8.09989E+03 -1.26909E+04 -1.96117E+03 -5.52060E+03  6.52363E+02
 -5.36600E+03 -7.92996E+03  5.04489E+03 -1.77300E+04  3.51610E+03 -4.17950E+03  5.74504E+03 -2.92393E+02
  5.88660E+03  4.36263E+03  2.76937E+03  4.31561E+03 -1.09567E+04  4.49750E+03  3.61381E+03 -1.48243E+02
 -2.07688E+03 -5.05460E+03  9.24803E+03 -7.43381E+03  3.84358E+03 -2.53655E+03  3.74310E+03  2.13196E+03
  1.11262E+03  4.28568E+03 -2.06939E+03  2.60977E+03 -5.39724E+02  5.44935E+03  6.04774E+03 -3.81295E+03
  6.22229E+02  7.73017E+02  2.90725E+03  6.42668E+03  2.54318E+03  2.93469E+03  4.30282E+03  7.91351E+03
 -2.79800E+03  5.29840E+03 -9.25103E+03  6.16772E+03 -4.10835E+03 -2.69501E+03 -9.06703E+03 -2.18144E+03
  2.98026E+03 -2.33514E+03  3.22079E+03 -7.45766E+02  3.75513E+03  7.09891E+03  1.41743E+03  4.98624E+03
 -3.89137E+03 -4.22164E+03 -7.87650E+03 -9.85827E+03 -3.60543E+03 -6.98392E+03  3.38826E+03 -5.98817E+03
  1.24727E+03 -3.08963E+03  2.26247E+02  6.22398E+02  2.65070E+03  8.66069E+02 -8.04999E+02  3.87433E+03
 -5.17777E+03 -1.83786E+03  2.15537E+02  4.57672E+03 -2.31595E+03 -2.25427E+03  8.10248E+03 -2.83440E+03
  5.86368E+03 -3.56932E+03  6.21684E+03  1.01452E+03 -6.83993E+02  8.15200E+03  5.50206E+02  9.15007E+01
 -8.56418E+03  1.08042E+03 -3.11202E+03  1.90007E+03 -4.91886E+03 -9.93826E+03  6.14892E+02  2.45268E+03
 -1.14315E+03 -5.55358E+03  4.44844E+03 -1.54767E+02  1.89733E+03  3.31428E+03  1.37741E+03  5.95661E+03
 -3.29766E+03 -8.41098E+02 -9.12104E+02 -3.67868E+03 -2.18126E+03  1.96449E+03  4.13309E+01  1.00788E+04
  5.02595E+02 -5.91740E+01 -9.84028E+02 -1.09010E+03  2.39405E+03  3.49522E+03 -9.75340E+03 -1.27140E+03
 -4.33084E+03 -3.13667E+03  6.67719E+03 -2.64505E+03  1.27353E+03 -1.00758E+04  7.67522E+03 -6.02228E+03
  8.75147E+03 -4.01126E+03  1.27082E+03  6.47774E+03  1.62729E+03  7.44847E+03 -3.79735E+03  5.64576E+03
 -2.91363E+02  4.43360E+03 -4.26334E+03 -2.09978E+02 -7.46317E+02  2.48756E+03 -4.13455E+02 -2.49091E+03
 -3.89283E+03 -1.87367E+02 -3.21794E+02  1.44244E+03 -4.41831E+01 -3.78904E+03 -1.84416E+03 -6.13825E+03
  1.47542E+03  8.37987E+02 -2.26563E+02 -4.66346E+02  3.35611E+03  2.24481E+03  9.66404E+02  9.79152E+03
 -3.43093E+03  6.24091E+03 -7.09864E+03  4.81955E+03 -8.15775E+03  3.63337E+03 -7.42488E+03 -4.60859E+03
  2.36219E+02 -5.34897E+03  2.01590E+03 -4.67369E+03  5.85507E+03 -4.45806E+03  3.08611E+03  1.63606E+03
  5.35599E+03  7.27979E+03 -2.80206E+03  4.92171E+03 -1.52318E+03 -2.22097E+03 -9.69331E+01 -4.54623E+03
  4.93170E+03 -3.33515E+03  5.40579E+03  5.66684E+03 -3.56183E+03  2.98247E+03  1.66344E+03  2.11595E+03
  1.04930E+03 -1.57770E+03  1.21209E+03  1.04426E+03 -1.40764E+03 -1.62512E+03 -1.54342E+03 -4.14368E+03
  3.55517E+03 -1.05032E+03  4.50559E+03 -3.07944E+03  4.79678E+03 -6.27384E+03  1.23346E+03  7.77184E+03
 -1.20589E+03  4.27271E+03 -2.92309E+03 -1.36885E+03 -4.69969E+03  5.12193E+03 -5.63127E+03 -2.60673E+03
 -1.16577E+03  2.21275E+03 -1.25507E+03  1.94260E+03 -5.26196E+02 -1.01061E+03 -6.76287E+02 -3.92313E+03
  7.67982E+02 -5.90669E+03  7.06918E+02 -3.11708E+02  3.41833E+03 -4.50017E+03  1.93400E+03 -3.20947E+03
  4.92352E+03  1.69989E+03  3.57499E+03  6.65138E+03  7.28756E+02 -9.06107E+02  3.33709E+03  8.04229E+03
