 $NMID ID='MM_0lb_SNR50_16hz_g45_26.RAW', FMTDAT='(8E13.5)'
 TRAMP=1., VOLUME=1. $END
  3.07876E+05 -2.42281E+03  3.44427E+05  2.51636E+05  8.57901E+04  3.40951E+05 -1.34216E+05  2.52976E+05
 -1.91816E+05  7.99457E+04 -1.11887E+05 -3.23748E+04 -1.51488E+03 -4.98633E+04  5.30457E+04 -4.76003E+02
  3.89367E+04  5.51565E+04 -1.95766E+04  7.61142E+04 -5.77268E+04  6.62423E+04 -8.40141E+04  3.27919E+04
 -7.98455E+04 -9.11454E+03 -5.74309E+04 -5.07203E+04 -1.37881E+04 -6.49338E+04  2.91760E+04 -4.77983E+04
  3.42771E+04  5.02411E+03  1.66080E+04  4.71111E+04 -3.27245E+04  4.47657E+04 -6.40728E+04  1.36335E+03
 -5.72008E+04 -5.22948E+04 -7.65920E+03 -7.75414E+04  3.53997E+04 -5.93356E+04  4.32271E+04 -1.87356E+04
  3.58649E+04  7.97649E+03  3.10367E+04  2.74453E+04  1.51677E+04  2.95425E+04  2.06950E+02  2.45018E+04
 -2.18328E+04  8.60696E+03 -1.97153E+04  7.83727E+02  6.27267E+03 -8.91008E+03  1.81126E+04  1.50036E+04
  1.07658E+04  3.64464E+04 -3.62150E+04  4.09190E+04 -6.36978E+04  4.20964E+03 -5.64517E+04 -4.28202E+04
 -8.32957E+03 -6.00482E+04  3.70698E+04 -4.55423E+04  5.70453E+04 -5.89464E+02  3.40124E+04  3.26478E+04
 -1.21813E+04  3.77496E+04 -3.07040E+04  9.13310E+03 -2.77580E+04 -2.90808E+03 -2.00496E+04 -9.96848E+03
 -6.61202E+03 -1.65906E+04 -9.35349E+02 -1.43602E+04  3.39060E+03 -2.39210E+04  1.68939E+04 -1.52279E+04
  1.34584E+04  5.66430E+03 -6.11546E+03  8.64688E+03 -1.74843E+04 -3.97627E+03 -7.83415E+03 -2.74549E+04
  2.35890E+04 -4.30547E+04  4.91017E+04 -1.72418E+04  4.23767E+04  1.96038E+04  1.69074E+04  4.24691E+04
 -1.45523E+04  3.60455E+04 -2.60379E+04 -5.00836E+03 -1.03163E+04 -2.64403E+04  1.89197E+04 -3.54652E+04
  3.99612E+04 -8.63946E+03  3.29828E+04  1.81202E+04  2.07980E+04  4.52257E+04 -7.53463E+03  4.70649E+04
 -2.74540E+04  2.68384E+04 -3.78228E+04  9.96711E+03 -3.83437E+04 -1.68266E+04 -2.36334E+04 -3.45103E+04
  9.50879E+03 -3.57460E+04  2.74682E+04 -1.51050E+04  3.46704E+04  7.70577E+03  3.74835E+03  1.75639E+04
 -1.77554E+04  1.25566E+04 -9.50912E+03 -1.23579E+04  6.52228E+03 -8.20730E+03  1.75343E+04  7.98373E+03
  1.65064E+04  2.26063E+04 -3.97631E+03  2.00712E+04 -1.81032E+04  9.89838E+03 -2.08980E+04 -7.12517E+03
 -1.94322E+04 -2.03734E+04 -4.99328E+01 -2.50004E+04  2.88236E+03 -1.86729E+04  1.23480E+04 -1.26594E+04
  1.95201E+04 -1.06141E+04  2.98992E+04  3.07571E+03  1.64729E+04  1.49398E+04  7.76037E+03  3.51388E+04
 -1.98368E+04  2.79502E+04 -2.46219E+04  9.01913E+03 -1.96515E+04 -1.34112E+04 -7.01346E+03 -1.37682E+04
 -1.78321E+03 -5.06351E+03 -2.90122E+03  5.49246E+03 -1.50641E+04  1.00316E+04 -1.06585E+04 -2.26930E+03
 -8.91353E+03 -1.44308E+04  6.01939E+03 -2.27115E+04  1.75881E+04 -1.15722E+04  1.66898E+04 -6.16786E+02
  9.66326E+03  1.07841E+04  4.72585E+02  1.92486E+04 -1.38081E+04  8.32290E+03 -2.20121E+04 -1.65555E+03
 -1.35989E+04 -1.68263E+04 -2.55293E+03 -2.53197E+04  9.78461E+03 -1.74628E+04  1.71752E+04 -8.45644E+03
  1.71310E+04  2.96695E+03  1.35043E+04  7.88672E+03  3.80629E+03  3.81356E+02  9.32420E+03 -1.14516E+03
  1.43702E+04  1.70970E+03  2.10018E+04  1.39077E+04  1.11122E+04  2.80258E+04 -3.90779E+03  2.76068E+04
 -1.89946E+04  2.47393E+04 -2.86578E+04  5.82736E+03 -3.12586E+04  3.37464E+03 -2.40627E+04 -1.56676E+04
 -1.11108E+04 -2.83686E+04  8.92953E+03 -1.86063E+04  1.31541E+04 -1.26940E+04  1.32745E+04  7.35293E+02
  4.04624E+03  1.14541E+04 -7.16900E+03  1.41696E+04 -1.54787E+04  3.86674E+03 -8.59235E+03 -1.43639E+04
 -1.08315E+03 -1.39217E+04  1.11296E+04 -7.08757E+03  7.09975E+03  7.87763E+02  1.48932E+03  4.31762E+03
 -4.85789E+03  3.27842E+02 -5.79610E+03 -5.44343E+03 -1.81318E+03 -1.29931E+04  9.48531E+03 -1.26506E+04
  1.63373E+04 -6.43981E+03  1.50965E+04 -8.96941E+02  1.50935E+04  9.59972E+03  1.28049E+04  1.88957E+04
 -4.33020E+03  1.87585E+04 -1.62093E+04  1.20363E+04 -1.49681E+04  2.25430E+03 -8.55368E+03 -3.07261E+03
 -1.65619E+03 -1.90106E+03 -3.65747E+02  3.73410E+03 -3.98675E+03 -2.34650E+03 -5.79339E+03  1.07065E+04
 -8.77062E+03 -2.36821E+03 -7.67397E+03 -7.03137E+03 -2.27354E+03 -1.70013E+04  6.97695E+03 -9.51121E+03
  1.03772E+04 -8.04577E+03  5.95391E+03  2.07610E+03  3.17946E+03  2.22373E+03 -8.59034E+03 -6.89862E+02
 -3.65808E+03 -1.05971E+04 -3.54801E+03 -6.19367E+03  7.58267E+03 -1.22394E+04  1.30881E+04 -4.71807E+03
  1.37865E+04  8.92706E+02  9.13628E+03  1.03034E+04  4.34495E+03  7.01306E+03 -1.58200E+03  7.85426E+03
 -1.16717E+04  4.38340E+03 -1.35292E+03 -2.43013E+03  3.39908E+03 -4.44636E+03  4.70272E+03  4.56020E+03
  5.99163E+03  2.75701E+03  1.08980E+03  8.16273E+03 -5.25235E+03  8.53053E+03 -5.73591E+03  2.01282E+03
 -8.64514E+03 -2.26888E+03  1.07231E+03 -3.81063E+03  2.44992E+03 -3.43848E+03  5.69884E+03 -2.30750E+02
 -1.46235E+03  4.28070E+03 -4.71747E+03  7.45539E+03 -8.85910E+03  7.19722E+03 -4.71223E+03 -3.24476E+03
 -4.23094E+03 -1.03876E+04  5.36064E+03 -5.92620E+03  1.05757E+04 -6.18960E+03  6.66713E+03  2.92657E+03
  1.30255E+04  1.19481E+04 -1.62682E+02  9.09361E+03 -6.13082E+03  2.86152E+03 -5.28387E+03 -7.65432E+02
 -7.26373E+03 -5.63936E+03  2.65056E+03 -4.62945E+03  1.94216E+03 -8.91354E+03  2.39937E+03 -1.13685E+03
  4.69182E+03  3.58069E+03  3.64007E+03 -3.59123E+03  9.48967E+00 -2.03707E+03  1.45349E+03 -5.78970E+02
  2.27162E+03  4.27416E+03  6.55149E+03 -1.09689E+03  7.03380E+03  6.90363E+03  2.21107E+03  7.50181E+03
 -5.22225E+03  7.73012E+03 -1.17257E+04  7.46930E+03 -1.70752E+04  1.95034E+03 -8.78367E+03  1.84619E+03
 -4.13947E+03 -1.11848E+04 -1.67801E+03 -5.63223E+03  6.94564E+03 -1.93598E+03 -4.76086E+02 -3.44022E+03
  1.44777E+03 -3.28853E+03  4.71644E+03 -2.26839E+03  4.70341E+03 -2.91467E+03  3.61282E+03 -4.77343E+02
  5.65516E+03  3.95330E+01  2.09011E+03  1.44381E+03 -2.09019E+03  3.60188E+03 -4.27559E+03  4.67930E+03
 -4.74056E+03  5.65616E+02 -4.25273E+03 -4.86051E+03 -3.26379E+03 -1.03578E+04  4.29431E+03 -8.08947E+03
  9.21974E+03 -5.74299E+03  6.14663E+03  3.43889E+03  4.73396E+03  9.76377E+03  4.25101E+03  9.41011E+03
 -4.33388E+03  8.75176E+03 -3.94530E+03  3.12565E+03 -1.99380E+03 -4.22727E+03 -1.98185E+03 -2.14318E+03
  1.32250E+03 -2.14191E+02 -8.57949E+02  2.01089E+03 -5.28985E+02  3.71003E+02 -9.07663E+03  3.06147E+03
 -8.29458E+02 -9.12653E+03  1.75928E+03 -5.83137E+03  5.78892E+03 -7.97577E+03 -3.54059E+02  1.61166E+03
  1.03173E+04 -2.04569E+03  2.55226E+01  1.16320E+03 -3.68241E+03  7.86216E+03 -2.74312E+03  5.55200E+03
 -1.03425E+04 -1.15685E+03 -6.39674E+03 -2.73638E+03 -4.25518E+03 -4.73384E+03  5.15533E+03 -5.50776E+03
  6.57849E+03 -3.54229E+03  1.72011E+02  6.92667E+03  4.90800E+03  1.76894E+03  1.64009E+02  3.71830E+03
 -7.33944E+02 -5.34805E+02 -2.62590E+03 -2.65116E+02  4.31189E+02  1.38592E+03  3.02716E+03 -5.51562E+01
  5.87509E+02  5.66981E+03 -5.78419E+03  7.68228E+03 -5.95257E+02 -3.85309E+03 -5.64180E+03 -4.64888E+03
 -5.78298E+03 -5.92584E+03  3.40967E+03 -1.03141E+04 -6.44363E+02 -4.45490E+03  4.22196E+03  7.39911E+02
  2.73208E+03  3.14175E+03  3.76221E+03  6.07473E+03  1.13788E+03 -4.10349E+02 -2.17651E+03 -8.91739E+02
  2.84612E+03 -5.68168E+03  5.65939E+03 -6.81470E+03  1.00811E+03 -1.90811E+02  1.72584E+03 -1.70111E+02
  5.19676E+03 -8.31654E+02  1.22305E+02  5.31057E+02 -1.32786E+03  4.91393E+03 -1.63339E+03  3.55011E+03
  4.22607E+03 -4.43684E+01  3.66265E+03 -6.32415E+03  2.33571E+03 -1.45223E+03 -1.84880E+03  5.70362E+03
 -1.06780E+03  8.01369E+02 -3.38204E+03  1.08247E+03 -4.66396E+03  1.12837E+03 -5.40456E+02 -2.16235E+03
  8.09721E+02 -6.62702E+03 -6.68331E+02 -4.21925E+03  2.46210E+03  2.98314E+03  8.39918E+02  4.95221E+03
 -2.47335E+03  6.17824E+02 -6.91185E+02 -1.96378E+03 -1.63438E+03 -1.27077E+03  6.97859E+02 -5.30369E+02
  1.83742E+03  1.72616E+02  1.19749E+03  5.99605E+02  1.79157E+03  3.66884E+03 -4.05902E+03  5.39443E+03
 -2.15664E+03 -6.87997E+02 -6.68888E+03  1.35769E+03  4.00449E+03 -5.91708E+03  1.96411E+03 -2.66652E+02
  8.92982E+01 -2.57382E+03  7.35366E+03  2.56766E+03  5.92240E+02  8.36806E+02 -3.40883E+03  3.52393E+03
 -8.48962E+02  5.37362E+03 -2.34095E+03  1.53377E+03 -1.12227E+03 -2.69747E+03  1.55983E+03  8.03956E+02
  1.92368E+02  2.53018E+02  2.29747E+03  2.60101E+03 -1.01926E+03  5.76614E+03  3.26165E+03  4.14934E+03
 -4.13003E+03 -7.20554E+02 -1.19651E+03 -1.61613E+03  2.43511E+02 -4.85932E+02  2.43065E+02  1.26741E+03
 -4.49151E+03 -1.55389E+03 -2.81913E+03 -5.51577E+02 -6.16578E+03 -6.86686E+02 -6.09480E+02 -2.48832E+03
  4.59978E+03 -4.67114E+03  1.23309E+03 -3.56944E+03 -3.57664E+02 -4.12924E+03  3.78695E+03 -1.52707E+03
  3.78847E+02  1.28867E+03  6.23437E+03  4.29365E+03 -1.19978E+03  3.62658E+03 -1.84493E+03  1.41790E+03
 -6.49476E+03  2.05265E+03 -1.13049E+03  1.35749E+03 -1.58017E+03 -2.21018E+03  3.67772E+03 -2.74376E+03
  2.91076E+03  1.42116E+03 -3.24072E+03  2.75375E+03  1.01053E+03  4.03404E+02  1.66501E+03  1.73851E+03
  4.24083E+03 -5.22901E+03  2.73532E+03  3.79859E+02  8.58039E+02  2.36875E+03  8.52548E+02  3.94883E+03
 -3.87427E+03  1.27237E+03 -1.29764E+02  3.81983E+03 -3.66288E+03  7.58120E+02 -4.91417E+02 -2.37410E+03
 -1.23573E+03  2.92754E+03 -2.37795E+03 -1.79218E+02 -2.17404E+02  3.35200E+03  2.19695E+03  7.60320E+01
 -6.16144E+02  2.14405E+03 -4.02390E+03  1.95452E+03 -4.62870E+03 -3.64987E+03 -2.63430E+03 -2.19557E+03
 -2.39485E+03  2.66290E+03  1.02705E+03  1.37356E+03  3.12690E+03 -3.89340E+03 -2.95049E+02 -1.37331E+03
 -6.65124E+03  9.63710E+02 -8.66110E+02  3.41105E+03 -1.52277E+03  4.07550E+02 -5.10252E+03 -5.59384E+03
  3.78888E+03  1.76065E+03  3.96475E+03 -2.86367E+03  2.75976E+03 -3.20050E+03  1.76355E+03  4.26617E+03
  3.20312E+03  5.74760E+03  1.74139E+03  1.99294E+03 -5.28853E+02 -1.68224E+03 -2.00478E+03  7.91542E+02
 -4.83571E+03 -1.13283E+03  8.80705E+01 -6.56485E+02 -1.39625E+03 -2.64095E+03 -6.49453E+02  1.78837E+03
 -2.56566E+03 -3.35703E+03  1.63551E+03 -3.82004E+03  1.01886E+03 -1.55482E+03 -2.80027E+03  2.89126E+03
  6.11698E+03  3.06641E+03  1.64945E+03 -8.06874E+02  2.25841E+03  3.27581E+03  4.87486E+03  3.66835E+03
