 $NMID ID='MM_0lb_SNR50_18hz_g45_39.RAW', FMTDAT='(8E13.5)'
 TRAMP=1., VOLUME=1. $END
  3.11543E+05  1.52095E+03  3.34007E+05  2.48262E+05  8.11687E+04  3.36688E+05 -1.29334E+05  2.44487E+05
 -1.86197E+05  8.20936E+04 -1.12087E+05 -3.06375E+04  5.95609E+03 -5.28102E+04  5.47058E+04 -1.87647E+03
  3.70637E+04  5.13387E+04 -2.08025E+04  7.31054E+04 -6.12231E+04  6.36722E+04 -8.31515E+04  2.85498E+04
 -8.01971E+04 -6.62912E+03 -5.72912E+04 -4.75863E+04 -1.26163E+04 -7.24448E+04  2.93389E+04 -4.49991E+04
  3.90473E+04  6.71629E+03  1.44107E+04  4.43576E+04 -3.36205E+04  4.58442E+04 -6.23687E+04 -3.00577E+03
 -5.49697E+04 -5.94013E+04 -8.91706E+03 -7.53526E+04  3.42628E+04 -5.56081E+04  4.67601E+04 -1.67866E+04
  4.46421E+04  1.06041E+04  3.00963E+04  2.51844E+04  1.67165E+04  2.70364E+04 -8.64366E+03  2.82615E+04
 -2.30036E+04  1.26705E+04 -1.93933E+04 -2.90088E+03  3.92685E+03 -1.17905E+04  2.64233E+04  1.12987E+04
  1.10332E+04  3.01541E+04 -3.34884E+04  3.54472E+04 -6.03594E+04  2.65479E+03 -5.78416E+04 -3.93292E+04
 -9.46187E+03 -6.34080E+04  3.59406E+04 -4.12803E+04  5.77843E+04  1.16481E+03  3.10701E+04  3.37188E+04
 -5.18179E+03  3.42375E+04 -3.02850E+04  1.07923E+04 -3.05919E+04 -3.28658E+03 -1.49097E+04 -1.05094E+04
 -5.84367E+03 -9.20368E+03 -3.93334E+02 -1.59049E+04  4.51430E+03 -1.79303E+04  1.27624E+04 -1.25485E+04
  1.12492E+04  2.86835E+03 -1.00812E+04  1.39866E+04 -2.35872E+04 -2.04041E+03 -3.63581E+03 -3.05907E+04
  2.52506E+04 -4.06942E+04  4.45186E+04 -1.68244E+04  4.51226E+04  1.27612E+04  1.02054E+04  4.63096E+04
 -1.63249E+04  3.31730E+04 -2.37150E+04 -1.07085E+03 -1.00427E+04 -2.36696E+04  2.63092E+04 -2.79707E+04
  3.76508E+04 -4.35803E+03  3.30628E+04  2.64446E+04  1.61849E+04  4.51052E+04 -1.24482E+04  4.56018E+04
 -2.47512E+04  3.31312E+04 -3.20644E+04  9.90083E+03 -3.39640E+04 -1.31763E+04 -2.23392E+04 -3.32725E+04
  4.20125E+03 -3.50148E+04  3.15767E+04 -1.48346E+04  2.65625E+04  1.23170E+04  1.20809E+03  1.83073E+04
 -1.62269E+04  5.01376E+03 -1.16320E+04 -8.20359E+03  5.80485E+03 -8.11821E+03  1.94052E+04  4.63098E+03
  1.77185E+04  2.17283E+04 -7.20406E+03  2.37831E+04 -1.87909E+04  8.97246E+03 -2.85295E+04 -4.77080E+03
 -1.86789E+04 -1.13058E+04 -5.43111E+03 -1.82638E+04  1.71593E+03 -1.73785E+04  1.26714E+04 -1.22397E+04
  2.61321E+04 -1.40643E+04  2.88691E+04  2.18919E+03  2.03446E+04  1.28280E+04  2.50056E+03  3.05580E+04
 -1.92666E+04  2.82094E+04 -2.48407E+04  4.17557E+03 -2.16627E+04 -9.88000E+03 -2.08641E+03 -1.71518E+04
  2.66147E+03 -4.63235E+03 -3.22597E+03  6.28839E+03 -1.65787E+04  7.26048E+03 -1.46259E+04 -4.95279E+03
 -7.53766E+03 -1.75978E+04  5.86946E+03 -2.12669E+04  1.04144E+04 -1.76711E+04  1.34804E+04 -8.54721E+02
  9.48083E+03  1.43651E+04 -4.35939E+03  1.65335E+04 -9.21403E+03  1.08206E+04 -1.62658E+04 -6.95157E+03
 -1.08417E+04 -1.70310E+04 -4.89824E+03 -1.99643E+04  7.58557E+03 -1.41449E+04  1.63534E+04 -9.82650E+03
  1.21880E+04  2.02616E+03  8.60603E+03  6.66810E+03  6.11136E+03 -4.85929E+03  1.04215E+04  1.26653E+03
  1.43537E+04  4.96397E+03  1.32766E+04  1.25769E+04  1.09730E+04  2.64964E+04 -3.76060E+03  2.41448E+04
 -1.61471E+04  2.41148E+04 -2.27150E+04  1.10510E+04 -2.48864E+04 -7.11466E+01 -2.34041E+04 -1.39126E+04
 -1.00699E+04 -2.41195E+04  6.94098E+03 -2.17590E+04  1.32112E+04 -1.12946E+04  1.73706E+04  5.25980E+03
  1.24092E+03  9.30432E+03 -6.62725E+03  1.11322E+04 -1.36164E+04  2.25958E+03 -9.86048E+03 -1.15814E+04
  8.95841E+02 -1.62013E+04  4.45468E+03 -1.07913E+04  1.29734E+04 -1.44655E+03  2.54265E+03  6.35075E+03
 -4.40554E+03 -2.32083E+03 -2.40654E+03 -4.83323E+03  4.96555E+02 -1.01727E+04  4.33077E+03 -1.11161E+04
  1.24313E+04 -9.18197E+03  1.64936E+04  4.70945E+03  9.23576E+03  1.13614E+04  5.49981E+03  1.26392E+04
  1.31592E+02  2.08374E+04 -8.04925E+03  1.45798E+04 -1.42756E+04  3.49469E+03 -4.05547E+03  8.45408E+02
 -9.48245E+03 -5.65675E+03 -6.88058E+03  1.69015E+03 -1.61106E+03  2.55855E+03 -1.05519E+03  2.29562E+02
 -8.04322E+03 -8.26365E+02 -4.08502E+03 -8.21251E+03 -5.06282E+03 -1.17604E+04  5.44911E+03 -6.86580E+03
  4.65812E+03 -8.23409E+02  8.29490E+03  7.07717E+01  2.28294E+03  3.33393E+03 -3.61590E+03 -2.25842E+03
 -5.04800E+03 -4.02608E+03  1.47990E+03 -6.17461E+03  5.68340E+03 -4.68238E+03  1.03318E+04 -8.67793E+03
  1.38478E+04 -2.14906E+03  1.04217E+04  1.03622E+04  1.47570E+03  6.73741E+03 -2.84805E+03  9.49959E+03
 -5.30145E+03  2.80750E+03 -2.53019E+03 -2.75244E+03 -1.40525E+02  1.23484E+03  6.06195E+03 -3.28851E+03
  3.33199E+03  4.42658E+03 -1.99871E+03  7.39110E+03 -4.67963E+03  1.18742E+04 -9.68789E+03 -7.73956E+02
 -1.91501E+03 -5.57821E+03 -1.77212E+03 -4.03934E+03  3.09420E+03 -4.27584E+03  5.66294E+03 -2.64741E+03
 -1.29186E+03  6.70591E+02 -2.40949E+03 -2.90251E+02 -5.35844E+03 -2.56769E+03 -3.78879E+03 -2.86399E+03
 -1.10979E+03 -9.98740E+03  3.54086E+03 -6.37818E+03  8.21219E+03 -4.63344E+03  7.96974E+03  1.25857E+03
  6.56323E+03  4.71946E+03  3.23350E+03  6.56549E+03 -8.99132E+03  6.32087E+03 -8.67338E+03  9.46242E+02
 -5.94080E+03  1.59946E+03  5.60936E+02 -3.26190E+03  1.33781E+03  3.14528E+01 -1.35232E+03 -1.35424E+03
  3.66738E+03 -9.19695E+02  1.78986E+03  4.35538E+03  5.40771E+02  4.17330E+03  2.62804E+02 -7.79391E+02
  4.33349E+03  9.56077E+02  6.81616E+03  5.13266E+02  3.85549E+03  4.71418E+03  7.43360E+03  9.78560E+03
 -1.31319E+03  9.91585E+03 -1.39881E+04  4.62512E+03 -1.34462E+04  1.39914E+02 -7.45487E+03  6.88615E+02
 -5.47297E+03 -4.16864E+03 -2.81282E+02 -5.96926E+03  1.25670E+03 -8.87243E+02  1.50867E+03 -3.94560E+03
  2.65141E+03  1.35300E+01  9.11977E+01 -1.48921E+03  3.89185E+03 -5.03626E+03  4.11726E+03 -3.95283E+02
  7.38199E+03 -2.67718E+03 -2.02511E+03 -8.10803E+02 -4.52652E+02  2.09295E+03 -2.89083E+03 -2.79031E+03
 -4.78108E+03  4.03356E+02 -1.24436E+03 -4.02420E+03 -7.70226E+02 -4.76664E+03  5.03617E+02 -2.46651E+03
  4.55202E+03 -2.98178E+03  5.91501E+03 -4.84775E+01  5.63072E+03  4.94298E+03 -8.74238E+02  3.74209E+03
 -4.82266E+03  5.35358E+03 -5.07827E+03 -3.80871E+01  1.30307E+03  1.54279E+03 -3.67703E+03 -2.72313E+02
  6.26440E+02  1.85162E+03 -3.16483E+03 -3.98005E+03 -6.57685E+03 -1.64752E+03 -6.76563E+03 -4.05511E+03
 -3.75525E+03 -4.31056E+03  1.40499E+03 -5.76424E+03  1.26750E+03 -8.52976E+03  4.14556E+03 -3.50236E+03
  4.44029E+03  5.84769E+03  1.63511E+03  4.43132E+03 -1.99099E+03  1.71220E+03 -6.87331E+03  6.11532E+03
 -8.13639E+03  1.19881E+03 -6.60058E+03  1.31112E+03 -4.33283E+03 -6.40307E+03  2.43104E+03  1.23807E+03
 -4.70655E+01  1.19246E+03  2.65965E+03  4.00052E+03 -1.54172E+03  4.30561E+03 -2.39611E+00  3.13294E+02
  3.92353E+03  2.96593E+03  2.01094E+03  3.95872E+03  4.26964E+03  5.44541E+02  1.63889E+03 -2.86562E+03
 -3.33484E+03 -1.48117E+03 -3.92850E+03  6.51124E+03 -8.11000E+02  4.40153E+03 -4.05197E+03  3.63055E+03
 -6.31282E+03 -7.92846E+03 -2.15463E+03 -3.50930E+03 -6.32633E+02 -1.23664E+03  4.23016E+03 -5.56041E+02
  2.34222E+03  1.99490E+03 -2.73666E+03  4.94849E+03 -4.34798E+03  1.00783E+03  2.55091E+02 -4.37911E+03
 -2.20609E+03 -4.16610E+03  2.57099E+03 -1.27219E+03  1.71674E+03 -4.06657E+02  5.19751E+03 -2.81933E+03
  1.19645E+02  1.29393E+02 -1.25452E+03  2.35317E+03 -2.48751E+03 -1.15357E+03  2.62957E+03  1.56765E+03
  1.75069E+03  3.27774E+02  3.11591E+03  1.50258E+03  4.77066E+03  4.61999E+03  5.64504E+02  4.49092E+03
 -5.10840E+02  3.14746E+03  3.01071E+02  7.40495E+01 -5.82687E+03 -3.54347E+03 -5.46302E+02  1.70030E+03
 -1.57285E+03 -1.28939E+02 -9.34033E+01 -8.51084E+02 -4.90237E+02  8.92604E+02  1.02617E+03  1.46485E+03
 -2.33210E+03  2.31033E+02  9.89868E+02  1.92800E+02 -3.52713E+03 -1.47065E+03 -1.16439E+01 -1.25114E+03
  8.97632E+02  3.24486E+03  6.79903E+03  4.08108E+03 -1.94506E+03 -1.51042E+03 -6.02920E+02  2.09281E+03
 -2.38223E+03  1.37460E+03  3.12634E+02 -1.03887E+03 -1.21113E+03 -2.40780E+03  2.23673E+03  8.59074E+01
  2.64665E+03 -1.22890E+03  1.61108E+03  1.34521E+03  6.32117E+02  5.47447E+03 -3.18858E+03  3.26926E+03
  4.19678E+03 -3.78710E+03  2.28867E+03  1.48428E+03 -2.88041E+02 -5.88674E+02 -1.53863E+03 -1.49837E+03
  2.60859E+03  1.96216E+03  5.77259E+02 -1.10663E+03 -6.39285E+02  1.49505E+02  3.13247E+01  4.17590E+03
 -4.25318E+03  2.05446E+03  1.83941E+03  2.57401E+02 -3.75173E+02  2.57731E+03  6.92488E+02  6.69236E+02
  3.14860E+03  1.95684E+03 -2.85636E+03  2.96959E+03  2.00654E+03  6.61754E+02  1.05168E+03 -3.37269E+03
 -5.97157E+02 -6.76304E+02  2.27157E+03  6.47532E+02  1.07904E+03 -9.32989E+02  1.23009E+03  4.71933E+02
  3.80921E+03 -1.27584E+03  1.98640E+03  2.24598E+03 -4.47886E+03  5.09877E+02 -1.75263E+03  9.16377E+02
  6.79136E+01 -4.25575E+02 -3.55096E+03 -2.55381E+02 -3.05320E+03 -5.39767E+03 -2.01044E+03 -1.82965E+03
  3.09514E+02  1.44581E+03 -4.83381E+03 -7.80727E+02  1.16414E+03 -7.00058E+02 -2.38575E+03  4.82643E+03
  1.07652E+03 -3.20703E+03  9.78787E+02  1.54428E+03  4.32815E+03  3.66855E+03  1.72846E+03  5.42042E+03
  1.35025E+01  3.45159E+03 -3.66508E+03 -6.76308E+02 -3.38341E+03  5.73712E+03 -4.31204E+02 -5.79106E+03
  2.17518E+03 -3.89507E+03 -2.06715E+03  2.46891E+03 -3.85818E+03 -1.66906E+03  3.59169E+03  2.07878E+03
 -1.31629E+03 -9.67752E+02 -1.23672E+03  2.08964E+03 -5.07921E+03 -4.73295E+03  1.51010E+03 -7.23648E+02
 -1.31118E+03 -1.31245E+03 -3.18889E+01 -3.90443E+03  1.97031E+03 -1.67394E+03  1.18108E+02  1.28443E+03
  2.41353E+03  1.60629E+03 -6.86985E+02  2.57188E+03  4.88477E+03 -1.89944E+02  2.32522E+03 -4.76079E+03
  2.70646E+03 -8.01733E+02  8.38634E+02  2.55806E+03  5.84134E+03 -2.05348E+03  6.45478E+01  1.06987E+03
 -2.89195E+03 -2.74236E+03 -1.90178E+03  5.39305E+02 -2.10743E+03 -2.76094E+03  1.79818E+02 -1.11095E+02
 -1.76001E+02  2.24103E+02 -1.45313E+03 -1.53460E+03  4.69056E+02  3.74823E+03  2.43213E+03  2.32235E+03
 -9.11003E+01 -5.68142E+03 -2.11968E+03 -2.97223E+03  1.42526E+03 -3.22067E+03  1.63967E+03 -2.45910E+03
  1.53207E+03 -1.63917E+03  2.47171E+03 -1.11090E+03  1.22079E+03  8.72264E+02 -4.40828E+03  2.96623E+02
