 $NMID ID='MM_0lb_SNR50_10hz_g45_57.RAW', FMTDAT='(8E13.5)'
 TRAMP=1., VOLUME=1. $END
  3.10070E+05  3.91886E+03  3.35985E+05  2.47964E+05  8.21354E+04  3.41883E+05 -1.30296E+05  2.53137E+05
 -1.85038E+05  8.29196E+04 -1.07059E+05 -2.46326E+04  2.50581E+03 -4.99605E+04  5.07925E+04 -5.15727E+02
  2.86813E+04  5.38234E+04 -1.63356E+04  7.49100E+04 -6.50904E+04  6.65831E+04 -8.27012E+04  3.58897E+04
 -7.40053E+04 -8.66611E+03 -5.80168E+04 -5.15232E+04 -1.72491E+04 -6.86239E+04  2.57788E+04 -5.27250E+04
  3.85162E+04  4.93868E+03  1.18382E+04  5.01310E+04 -3.31755E+04  4.88873E+04 -7.10781E+04  4.92974E+03
 -5.69981E+04 -6.03152E+04 -7.56821E+03 -7.66363E+04  3.64458E+04 -5.45460E+04  5.02894E+04 -2.14802E+04
  4.60020E+04  1.13019E+04  3.31756E+04  3.28367E+04  1.47594E+04  2.88471E+04 -5.54150E+03  2.39151E+04
 -2.53329E+04  1.78601E+04 -1.63569E+04 -6.13470E+03  8.71158E+03 -1.21772E+04  2.68817E+04  7.60880E+03
  7.13955E+03  3.82402E+04 -3.10224E+04  3.41568E+04 -6.98575E+04  3.57846E+03 -5.94981E+04 -4.26604E+04
 -1.66516E+04 -6.38020E+04  4.01946E+04 -4.08409E+04  6.49732E+04 -5.98047E+03  3.34700E+04  3.44001E+04
 -2.12519E+03  4.08586E+04 -3.04393E+04  2.02581E+04 -3.10167E+04 -6.75769E+03 -1.52486E+04 -5.87536E+03
 -9.09810E+03 -1.28580E+04 -2.27022E+03 -1.31610E+04  4.79905E+03 -1.69848E+04  1.31998E+04 -1.04860E+04
  1.94360E+04  1.15008E+04 -1.08975E+04  1.46848E+04 -2.07453E+04 -8.98864E+03 -5.84921E+03 -3.63006E+04
  2.27480E+04 -4.87965E+04  4.46110E+04 -2.21327E+04  4.60416E+04  2.12016E+04  1.93025E+04  3.91374E+04
 -1.66574E+04  3.03544E+04 -3.10557E+04  7.11729E+03 -1.00193E+04 -2.78381E+04  2.07422E+04 -3.32931E+04
  3.62313E+04 -6.95817E+03  3.66713E+04  2.68360E+04  2.35191E+04  4.40757E+04 -1.07147E+04  5.81455E+04
 -3.67009E+04  4.14563E+04 -4.67478E+04  1.27372E+04 -4.21557E+04 -1.89770E+04 -2.34603E+04 -3.91999E+04
  8.92973E+03 -3.90485E+04  3.36132E+04 -1.54747E+04  3.02602E+04  1.44425E+04  8.59518E+03  2.50977E+04
 -1.13800E+04  5.65700E+03 -9.56549E+03 -1.07022E+04  2.45783E+03 -5.90596E+03  2.07932E+04  1.30597E+04
  1.42166E+04  2.01982E+04 -8.84542E+03  2.65397E+04 -2.27205E+04  1.64251E+04 -3.35366E+04  6.78544E+02
 -2.58744E+04 -1.32954E+04 -1.60960E+04 -2.37788E+04  4.34297E+03 -2.43221E+04  2.19503E+04 -1.77881E+04
  2.71091E+04 -6.61471E+03  3.71078E+04  6.47054E+03  2.35936E+04  2.27745E+04  1.28432E+03  3.50035E+04
 -1.93780E+04  3.38378E+04 -3.36026E+04  1.27558E+04 -1.52018E+04 -2.22450E+04  1.00419E+03 -1.27928E+04
 -2.87116E+03 -4.02402E+03 -3.13803E+03  9.28999E+03 -2.31111E+04  7.49970E+01 -1.41022E+04 -7.79836E+03
 -7.67052E+03 -2.51928E+04  7.92391E+03 -2.70963E+04  1.25308E+04 -1.91994E+04  2.42024E+04  1.26808E+02
  1.50271E+04  1.50441E+04  5.54976E+02  2.23375E+04 -1.32800E+04  1.26362E+04 -2.00623E+04 -1.63077E+03
 -1.56332E+04 -1.72182E+04  3.26560E+02 -2.54250E+04  9.12670E+03 -1.52526E+04  2.43928E+04 -1.01962E+04
  1.80530E+04 -2.87050E+02  1.18246E+04  8.17290E+03  3.12272E+03 -2.21662E+03  8.42921E+03 -2.17444E+03
  1.93954E+04  2.73054E+03  2.32404E+04  2.05925E+04  1.55996E+04  3.36972E+04 -4.28572E+03  4.26437E+04
 -1.58593E+04  2.75899E+04 -4.29329E+04  1.96966E+04 -3.72848E+04 -2.78774E+03 -3.37605E+04 -2.79925E+04
 -1.18877E+04 -3.52949E+04  5.93686E+03 -2.90856E+04  3.24649E+04 -1.64905E+04  2.02337E+04  1.55571E+03
  4.75624E+03  1.93725E+04 -9.15696E+03  1.85901E+04 -2.02542E+04  2.75466E+03 -8.61734E+03 -9.08642E+03
  9.19284E+02 -2.32858E+04  8.74093E+03 -1.57770E+04  1.01802E+04 -3.83537E+03  6.89236E+03  8.56825E+03
 -9.69221E+03  1.90173E+03 -5.12462E+03 -1.31312E+04 -1.10807E+03 -1.80565E+04  9.70066E+03 -1.64198E+04
  1.88652E+04 -1.43999E+04  2.66473E+04 -4.04669E+03  1.78308E+04  1.70894E+04  1.38150E+04  2.92401E+04
 -6.48528E+03  3.08953E+04 -2.01649E+04  1.29292E+04 -2.24634E+04  3.06260E+03 -8.80705E+03 -3.61003E+03
 -1.20890E+04 -9.76807E+03 -1.06898E+03  5.89960E+03 -4.29132E+03  7.96749E+03 -1.06558E+04 -2.06458E+03
 -1.25393E+04  2.27919E+03 -1.25986E+04 -1.40690E+04 -8.50417E+03 -1.86625E+04  1.07328E+04 -1.68617E+04
  1.01949E+04  2.16085E+03  1.23957E+04  1.72436E+03 -1.62645E+03  9.62037E+02 -6.89035E+03 -9.92862E+01
 -4.59357E+03 -1.52287E+04  2.76192E+03 -1.12187E+04  1.95543E+03 -1.45532E+04  1.61424E+04 -8.09547E+03
  2.12929E+04  6.49188E+03  1.25626E+04  1.04556E+04  5.16530E+03  1.47675E+04 -1.62933E+04  2.06967E+04
 -8.56996E+03  9.34444E+01 -2.23068E+03 -8.73422E+03  5.32544E+03 -6.77341E+03  2.53984E+03 -8.56031E+02
  6.80327E+03  7.79851E+03  3.79424E+02  1.15043E+04 -9.40806E+03  9.21221E+03 -1.56649E+04  4.88075E+03
 -1.47480E+04 -1.24469E+04 -7.09550E+02 -1.83433E+04  5.91801E+03 -1.27872E+04  9.02846E+03  2.64993E+03
  1.86508E+03  1.00912E+04 -5.11535E+03  1.08669E+04 -1.20850E+04  2.33053E+02 -1.01981E+04 -8.33964E+03
 -6.12617E+03 -8.49617E+03  2.54790E+03 -2.01433E+04  7.77219E+03 -1.00833E+04  1.63762E+04  4.40537E+03
  6.78866E+03  9.72907E+03 -3.64661E+03  1.33372E+04 -9.24635E+03  1.22976E+04 -1.13136E+04  9.43818E+02
 -1.00633E+03 -8.22550E+03  1.15979E+03 -1.12584E+04 -2.55878E+02 -9.95387E+03  7.85725E+03  2.53611E+03
  3.40796E+03  1.09102E+03 -3.88419E+03  4.16403E+03 -6.44163E+03 -2.33541E+03  8.42698E+02 -8.02966E+03
  1.00014E+04 -3.93073E+03  2.26962E+04  1.21287E+03  1.44746E+04  1.25389E+04  1.01585E+04  1.85584E+04
 -7.36174E+03  2.26198E+04 -2.06610E+04  1.95171E+04 -2.35935E+04  4.66130E+03 -1.85529E+04 -8.79847E+03
 -6.18127E+03 -1.41654E+04  1.57546E+03 -7.89318E+03  3.86426E+03 -3.69908E+03  2.89473E+03 -3.82288E+03
  1.68451E+03 -3.26863E+01  6.11723E+03  1.91253E+03  6.52457E+03 -6.01745E+03  1.20508E+04 -3.45262E+03
  1.28276E+04  9.45107E+03  6.45768E+03  9.39214E+03  8.90139E+02  1.11082E+04 -1.40474E+04  4.96071E+03
 -1.29110E+04 -3.78730E+03 -6.15477E+03 -7.31737E+03 -5.82635E+02 -9.84953E+03 -1.71833E+03 -6.00778E+03
  1.80104E+04 -5.65252E+03  1.87158E+04  2.46789E+03  9.28563E+03  1.43085E+04 -6.91739E+02  1.41970E+04
 -3.76716E+03  1.67505E+04 -7.87856E+03  3.82955E+03 -5.35264E+03  2.20643E+03 -4.10547E+03 -9.71455E+02
 -9.46683E+02 -1.14999E+03 -4.27329E+03  1.10049E+03 -1.30933E+04  7.57018E+03 -1.29507E+04  4.79239E+01
 -6.09904E+03 -6.03718E+03  2.30334E+03 -1.53845E+04  8.68383E+03 -6.19008E+03  9.70743E+03 -5.61740E+02
  1.43304E+04  5.91795E+03  6.46183E+03  6.40149E+03  9.91788E+02  1.05982E+04 -7.66713E+03  1.22587E+04
 -1.42703E+04 -6.64443E+02 -9.59516E+03 -6.25886E+03 -4.98976E+03 -1.07476E+04  8.72320E+03 -6.81061E+03
  6.80245E+03  5.65005E+03 -5.11757E+02  8.41385E+03  3.16772E+03  1.80199E+03  2.82837E+03  3.66579E+03
  2.04538E+03 -7.84323E+03  4.07778E+03 -6.45944E+02  7.01277E+02  1.78682E+03  8.22918E+02  1.02537E+04
 -4.76440E+03  1.21784E+04 -5.04247E+03  5.75301E+03 -6.86912E+03  3.30528E+03 -1.59288E+04 -6.77800E+03
 -8.38231E+03 -9.78832E+03 -1.82247E+02 -1.14863E+04  1.00081E+04 -1.26216E+04  9.99922E+03 -4.45509E+03
  7.52490E+03  7.53964E+03  6.57556E+03  8.53302E+03 -5.44210E+03  3.58950E+03 -3.69297E+03  2.97574E+03
 -3.72214E+03 -5.28271E+03  3.59384E+03 -9.85356E+03  5.25373E+03  2.51329E+02  7.57267E+03  6.22628E+03
 -3.17493E+02  2.86322E+03 -3.49565E+03  2.15047E+03 -6.43242E+02 -3.78647E+02 -4.25565E+03 -3.13544E+03
  2.23032E+03 -3.42844E+03  5.22610E+03  4.43205E+03  2.13449E+03  9.25748E+03 -6.30775E+01  1.17789E+04
 -1.27385E+04  5.86528E+02 -1.05462E+04 -4.92332E+02 -5.35061E+03 -2.12807E+03 -1.68703E+03 -1.64096E+03
 -2.96339E+03 -1.37166E+03  6.26970E+03 -2.53135E+03 -1.73684E+03  2.74025E+03  2.09255E+03  3.37599E+03
 -7.08223E+03  2.95122E+02 -3.83056E+03 -6.35690E+03  2.41186E+03 -9.36388E+03  8.30275E+03 -7.72046E+03
  3.56443E+03 -2.28257E+03  1.08630E+04 -3.07857E+03  6.19019E+02 -1.93079E+03 -1.28979E+02  5.22035E+03
  3.44511E+03 -2.36019E+03 -8.28283E+03 -2.91715E+03  5.43189E+03 -5.90228E+03  5.04178E+03 -2.66714E+03
  9.40924E+03  3.26017E+02  5.32576E+03  9.36541E+03  7.28691E+02  8.23004E+03 -5.89628E+03  7.80905E+03
 -1.97411E+02  4.92119E+03 -6.86487E+03 -2.93251E+03 -6.71600E+02 -6.97361E+02  1.71244E+03 -4.08859E+03
  7.21622E+03 -5.60897E+03  8.01459E+03 -1.68199E+02 -2.35862E+02  3.90240E+03 -1.81778E+03  4.99722E+03
 -7.27381E+03  5.10087E+03 -4.91206E+02  3.72423E+03  4.61635E+03  2.39969E+03 -4.32772E+03  7.51075E+03
 -6.89746E+03  5.63426E+03 -4.40939E+03  5.31394E+03 -7.68899E+03 -7.18968E+02 -5.45709E+03 -4.55031E+03
 -1.04288E+04 -1.23243E+04  2.17402E+02 -7.82506E+03  9.41981E+03 -6.13558E+03  1.30706E+04 -2.20094E+03
  7.93278E+03  6.96807E+03  6.79460E+03  9.51548E+03  4.65707E+03  1.31054E+04 -4.98220E+03  4.82484E+03
 -2.22136E+03  4.04560E+03 -6.18981E+03  1.34356E+03  3.68069E+03 -4.61881E+03 -4.00141E+02  4.12405E+03
 -3.23654E+03 -1.67973E+03 -3.77899E+03 -3.94434E+03  2.06049E+03  1.32025E+03  3.17131E+03 -6.22656E+03
  1.57695E+03 -1.34765E+03  4.44068E+02  4.91409E+03  6.60185E+03  3.09211E+03  3.12581E+03  7.71508E+03
 -3.62294E+03  8.41062E+03 -9.91504E+03  7.73042E+03 -1.12543E+04 -2.10543E+03 -7.65974E+03 -6.10880E+03
 -4.89953E+02 -1.19707E+04  2.44225E+03 -9.06136E+03  7.55363E+03 -2.48946E+03  5.24325E+03  3.85952E+03
  7.39292E+03 -6.80170E+02 -6.56826E+03  2.30600E+03 -1.32869E+03  2.79020E+03  1.24348E+03 -5.27155E+03
  4.00285E+03 -8.12850E+02  1.68495E+03 -3.06881E+02  5.19948E+03  1.06545E+04 -6.19261E+02  6.07106E+03
 -3.45450E+03  1.76993E+03 -3.35590E+03 -1.74798E+03 -2.87489E+03 -3.63016E+03 -1.30158E+03 -5.11183E+03
  6.04128E+03 -6.18320E+03  4.09392E+03  8.27429E+02  1.09015E+04  2.61181E+03  5.58990E+03  6.85548E+03
  5.32951E+03  8.01828E+03 -5.51135E+03 -3.92484E+02 -2.45030E+03  8.62331E+03 -1.20051E+03 -3.22527E+03
 -7.75020E+03  1.41161E+03 -8.21740E+03 -1.21261E+03 -1.35950E+03  1.08449E+03 -4.51740E+03  9.33872E+02
 -2.65929E+03 -1.19697E+03 -1.51024E+03 -6.47886E+03  2.68151E+03 -3.52158E+02  5.67731E+03 -1.66045E+03
  7.78004E+03 -8.56048E+02  2.27811E+03  3.53991E+03  1.43717E+03  4.12730E+03 -1.37625E+04  4.30086E+03
