 $NMID ID='MM_0lb_SNR50_14hz_g40_65.RAW', FMTDAT='(8E13.5)'
 TRAMP=1., VOLUME=1. $END
  3.12968E+05 -1.08031E+03  3.37658E+05  2.45312E+05  8.20933E+04  3.40632E+05 -1.29020E+05  2.47644E+05
 -1.88673E+05  8.23694E+04 -1.13561E+05 -3.09672E+04  1.49456E+03 -5.15664E+04  5.96869E+04 -1.56979E+03
  3.63574E+04  5.55284E+04 -1.54110E+04  7.76180E+04 -5.71966E+04  6.35074E+04 -8.46393E+04  2.70100E+04
 -7.94855E+04 -1.34856E+04 -5.68820E+04 -4.57772E+04 -2.13755E+04 -7.09503E+04  2.31130E+04 -4.43708E+04
  4.35937E+04  6.85734E+03  1.86717E+04  4.83724E+04 -3.84938E+04  4.44431E+04 -6.35972E+04 -2.69731E+02
 -5.46260E+04 -5.77221E+04 -9.01773E+03 -7.96488E+04  3.36361E+04 -5.54161E+04  4.90702E+04 -1.68115E+04
  4.24600E+04  7.30062E+03  2.93413E+04  2.41337E+04  1.85533E+04  2.64994E+04 -6.16869E+03  2.87860E+04
 -2.17072E+04  8.47852E+03 -2.56344E+04 -1.93641E+03  7.51464E+03 -9.47884E+03  2.18100E+04  1.16231E+04
  7.92504E+03  3.30889E+04 -3.11905E+04  3.33745E+04 -5.95285E+04  5.90309E+03 -5.78118E+04 -4.02641E+04
 -1.36083E+04 -5.64716E+04  4.19580E+04 -4.59622E+04  5.72969E+04  9.15835E+02  2.98601E+04  3.19203E+04
 -5.45947E+03  3.58697E+04 -2.84720E+04  2.01424E+04 -3.28892E+04  2.38874E+03 -1.72772E+04 -1.24571E+04
 -9.07823E+03 -1.17229E+04  1.43730E+03 -1.66025E+04  3.14234E+03 -2.09266E+04  1.87898E+04 -1.34757E+04
  1.29502E+04  2.05276E+03 -1.02733E+04  1.11271E+04 -1.89945E+04 -5.19646E+03 -8.82208E+03 -3.24390E+04
  2.16328E+04 -4.58628E+04  4.65824E+04 -1.86393E+04  4.35636E+04  2.15996E+04  1.66124E+04  4.26892E+04
 -1.46937E+04  3.16645E+04 -2.69909E+04  1.57870E+03 -7.17952E+03 -2.76480E+04  1.91506E+04 -3.10799E+04
  3.89753E+04 -1.11882E+04  3.48179E+04  1.90070E+04  1.70479E+04  4.20870E+04 -8.52860E+03  4.78531E+04
 -2.74548E+04  3.55828E+04 -4.26819E+04  1.31291E+04 -4.32456E+04 -1.12241E+04 -1.78221E+04 -4.09606E+04
  4.41225E+03 -4.47651E+04  2.73983E+04 -1.47545E+04  2.47766E+04  1.17158E+04  5.37966E+03  1.94356E+04
 -1.52204E+04  4.62964E+03 -1.17878E+04 -8.76957E+03  5.69480E+03 -7.96645E+03  1.49346E+04  7.52411E+03
  1.29505E+04  1.98313E+04 -9.26195E+03  2.42027E+04 -2.07936E+04  1.33170E+04 -2.62973E+04 -5.17884E+03
 -2.04667E+04 -1.60382E+04 -9.79259E+03 -2.21226E+04 -2.21399E+01 -1.64400E+04  1.67296E+04 -1.68601E+04
  2.19901E+04 -1.18908E+04  2.89279E+04  4.12057E+03  2.65184E+04  1.57766E+04  2.92270E+03  4.07216E+04
 -1.79513E+04  2.64577E+04 -2.63847E+04  1.20891E+04 -2.12512E+04 -1.10580E+04 -4.48976E+03 -6.62020E+03
  3.23277E+03 -3.97470E+03 -3.71367E+03  8.62254E+03 -1.40133E+04  4.52482E+03 -1.17905E+04 -1.10401E+04
 -1.05168E+04 -1.86101E+04  5.30332E+03 -2.67197E+04  8.91765E+03 -1.44657E+04  1.71990E+04 -3.27126E+03
  1.06002E+04  1.77764E+04 -7.36005E+02  1.90368E+04 -1.30926E+04  1.15159E+04 -2.22117E+04 -7.09356E+03
 -1.05919E+04 -1.57160E+04 -2.97229E+03 -2.21632E+04  4.78523E+03 -2.29102E+04  1.93870E+04 -7.37337E+03
  1.78121E+04  1.42113E+02  1.40197E+04  1.26326E+03  4.34656E+03  9.73122E+02  5.97516E+03  3.27562E+03
  1.53447E+04  4.97601E+03  1.75569E+04  7.99293E+03  8.13363E+03  2.80782E+04 -4.17244E+03  3.28318E+04
 -1.78854E+04  2.13621E+04 -2.78908E+04  9.97654E+03 -2.71383E+04 -3.31694E+03 -2.96253E+04 -1.97179E+04
 -9.63847E+03 -2.72250E+04  8.80747E+03 -2.76065E+04  1.99866E+04 -1.34321E+04  2.14208E+04 -1.58913E+03
  6.07370E+03  1.44123E+04 -5.61929E+03  1.34989E+04 -1.90831E+04 -2.60252E+02 -9.33117E+03 -1.04755E+04
  1.16921E+03 -1.69490E+04  9.87934E+03 -1.27569E+04  9.90671E+03  1.20697E+03  2.51329E+03  6.63363E+03
 -3.22928E+03  1.24592E+03 -4.56109E+03 -5.14928E+03 -2.93906E+03 -1.29929E+04  1.22687E+04 -1.22258E+04
  2.41710E+04 -5.02366E+03  1.24281E+04  3.25601E+03  1.24825E+04  1.17293E+04  4.79756E+03  2.10382E+04
 -4.13187E+03  1.98526E+04 -1.52136E+04  1.36618E+04 -1.58702E+04  3.13699E+03 -1.25237E+04  1.94680E+03
 -7.85160E+03 -5.40797E+03 -1.11599E+03  4.84638E+03 -3.21674E+03  5.69176E+03 -6.45045E+03 -1.31609E+01
 -7.67838E+03 -2.39708E+02 -1.07979E+04 -1.10654E+04 -5.06839E+03 -1.24237E+04  4.41498E+03 -1.23623E+04
  7.36809E+03 -4.41754E+03  5.75985E+03  5.28851E+03  1.00910E+03  5.75917E+03 -4.77752E+03  3.26560E+01
 -1.74006E+03 -7.35011E+03  2.03988E+02 -4.23762E+03  5.91184E+03 -9.84044E+03  8.57535E+03  1.47737E+03
  1.44439E+04 -1.62413E+03  1.14246E+04  8.24568E+03  1.49353E+03  1.12361E+04 -4.01004E+03  8.84187E+03
 -1.07493E+04  9.16275E+02 -5.05440E+03  2.17746E+03  1.17363E+03 -3.74620E+03  3.92816E+03 -3.39560E+03
  3.48836E+02  5.07226E+03 -2.06023E+02  6.16099E+03 -3.98090E+03  7.91009E+03 -9.85425E+03  2.21573E+03
 -1.01375E+04 -7.98584E+03  3.48517E+03 -1.09582E+04  5.40817E+03 -2.70680E+03  9.30927E+03  3.54014E+03
  1.41407E+03  4.82887E+03 -7.51406E+03  7.14230E+03 -5.36320E+03  8.09147E+03 -5.39115E+03 -2.28182E+03
 -1.75274E+02 -8.52378E+03  2.28081E+03 -1.78575E+04  1.02714E+04 -3.93671E+03  1.14353E+04 -1.14088E+03
  8.14602E+03  6.08886E+03 -5.56961E+02  1.04754E+04 -6.00182E+03  8.39621E+03 -8.56865E+03  2.86752E+03
 -2.15920E+03 -6.05617E+03 -2.20336E+03 -7.55575E+03  3.48575E+03 -7.37366E+03  1.28853E+03 -5.23300E+03
  4.35235E+03  2.42919E+03 -1.13130E+03  4.55210E+03 -2.78257E+03 -4.55878E+03 -1.22574E+03 -4.89737E+03
  8.30864E+03 -3.75720E+03  6.87458E+03  1.49096E+03  9.85835E+03  5.19403E+03  7.93701E+03  1.39750E+04
 -7.62721E+02  1.24160E+04 -1.18200E+04  7.32737E+03 -1.62611E+04  3.56249E+03 -1.22284E+04 -7.28022E+03
 -4.67890E+03 -1.20819E+04 -1.39069E+03 -5.58683E+03  1.17456E+03 -3.60697E+03  5.71155E+03 -4.15725E+03
  1.96206E+03 -1.38060E+03 -2.42141E+03  4.97468E+01  6.13392E+03 -3.70645E+02  1.28256E+03 -1.72300E+03
  7.22778E+03  1.01376E+03  7.52806E+03 -1.36584E+02 -1.70002E+03  7.04227E+03 -9.11650E+03  3.29314E+01
 -8.60363E+03 -1.31221E+03 -3.64101E+02 -2.26987E+03 -3.52552E+03 -3.17034E+03  3.99816E+03 -8.46090E+03
  1.46460E+04 -4.97709E+03  9.16042E+03  5.70660E+02  8.57901E+03  5.12252E+03 -3.48150E+03  9.25984E+03
 -3.03478E+03  1.37725E+04 -6.24367E+03  1.23803E+03 -5.20825E+03 -2.37541E+03 -9.71582E+02  2.03277E+03
  7.64638E+02 -2.05831E+03 -2.27353E+03  3.15548E+03 -1.88717E+03  2.28407E+03 -4.15622E+03 -2.02234E+03
 -4.95560E+02 -4.28752E+03 -3.02761E+02 -5.63444E+03  6.19197E+03 -7.59908E+03  8.57475E+03 -3.44860E+03
  4.14376E+03  4.12542E+03  4.77927E+03  7.61567E+03 -4.45289E+03  5.74556E+03 -4.96906E+03  7.75170E+03
 -7.72188E+03 -8.75996E+02 -9.81580E+03 -2.18014E+03 -2.05682E+03 -6.13796E+03  4.63771E+03 -4.62349E+03
  2.93231E+03  1.76922E+03  3.56995E+03 -8.73428E+02  1.81299E+03  2.39929E+03 -6.50054E+02  7.53198E+02
  3.99251E+03 -1.56879E+03  5.20486E+02  5.02331E+03 -1.39530E+03  2.85189E+03  6.47604E+03  6.07302E+03
 -3.50365E+03  3.44634E+03 -6.84712E+03  2.96300E+03 -6.88724E+03 -1.51566E+03 -1.22773E+04 -6.73923E+01
 -9.70164E+03 -1.05672E+04 -9.69614E+02 -7.44997E+03  2.39530E+03 -1.99228E+03  6.37226E+03 -4.37259E+03
  1.58188E+03  4.00853E+03  3.00918E+03  7.04194E+03 -5.25895E+03 -8.49001E+02 -8.99676E+03 -4.95272E+03
 -4.22936E+03 -2.09043E+03 -2.55839E+03 -3.36627E+03  3.22769E+03 -5.50950E+03  1.43605E+03  3.10660E+02
  2.45848E+03  5.33616E+02  3.94097E+03 -4.47170E+02 -1.01588E+03  1.04516E+03  4.04299E+03 -2.99722E+02
  1.13735E+02  4.60690E+02  3.21047E+03  5.69872E+02  6.32922E+02  3.46819E+03 -1.42874E+03  8.20596E+03
 -2.78820E+02 -1.17372E+03 -4.66804E+03  2.53981E+03 -5.83348E+03 -2.56255E+03  2.01313E+01 -6.52782E+03
  1.03143E+03 -7.55859E+03  9.91777E+02 -4.43168E+03  3.16346E+03  9.19481E+03 -3.73473E+03  1.77436E+02
  3.13693E+03  8.87199E+03 -6.79469E+01 -2.79864E+03  6.28090E+03 -3.33899E+03  2.43786E+03  1.12772E+03
  3.82520E+03 -5.55200E+02  9.14348E+02 -1.40886E+03  3.56205E+03  1.11988E+03 -4.38366E+03  4.83944E+03
  2.23962E+03 -3.75898E+03  2.20228E+03  1.79783E+03 -2.91369E+03 -2.15111E+03  2.97389E+03 -1.17337E+02
  4.73410E+03  1.16073E+03  6.33158E+03  6.88042E+02  2.71552E+03  7.13563E+03  1.79879E+03  6.28925E+03
 -3.55523E+03 -1.00627E+03 -5.72066E+03 -3.24626E+03 -3.06479E+03 -2.58709E+02  1.69531E+03 -3.02643E+03
  9.94552E+02 -7.75815E+02  5.38872E+02  1.10608E+03 -9.41817E+02  4.20204E+03 -8.86816E+02  3.19000E+03
 -1.13038E+03  5.55879E+03 -3.54145E+03  1.29171E+03 -3.84876E+03  2.85375E+01 -3.91132E+03 -2.26610E+01
  2.62109E+02  5.20482E+03 -7.69595E+03  6.94240E+02 -6.34461E+03 -5.13569E+02 -5.35292E+03 -3.51473E+03
 -1.13414E+03 -2.02492E+03  2.46037E+03 -8.77413E+03  2.80352E+03 -7.37193E+03  7.46002E+03 -2.64020E+03
  8.35024E+03  1.13696E+03  5.71142E+03 -2.90021E+02 -2.08926E+03  8.15580E+02  1.58615E+03  2.02335E+03
 -3.28891E+03  3.79504E+03  5.73297E+02 -9.58164E+02 -2.63251E+03 -2.27782E+03  1.41582E+03  5.67747E+03
  7.51962E+02  4.02689E+03 -2.33596E+02  2.75924E+02 -3.23215E+02 -1.37873E+03 -2.31684E+03  1.14960E+03
 -1.38104E+03 -3.51996E+03 -3.04208E+03 -1.80029E+03  4.20161E+03  2.55406E+03 -2.45829E+03  6.64875E+03
 -4.99774E+03  5.98577E+03 -3.38349E+03  1.48881E+03 -1.66675E+03 -3.96778E+03 -4.51719E+03 -2.59552E+03
 -3.36585E+03 -5.64328E+03  2.66042E+03 -3.27857E+03  5.44097E+03 -1.08209E+03 -1.39453E+03  3.12564E+03
 -9.52625E+01 -1.29769E+03 -1.72460E+02 -1.02719E+02 -6.10743E+03 -1.62438E+03 -2.40294E+03  3.21553E+03
 -8.31621E+02 -3.11923E+03 -2.94923E+03  1.90006E+03 -1.42887E+03  2.87271E+03 -1.22238E+03 -4.66544E+02
 -1.24842E+03  4.79050E+03 -1.70551E+03  2.81830E+03 -1.06630E+03 -3.91407E+03  5.60141E+02  1.42326E+03
 -8.23918E+02 -3.25072E+03  5.23888E+01  7.08569E+02  1.21237E+03 -3.19067E+02  8.61927E+02  2.86235E+03
  7.73636E+03  4.73064E+03 -1.92062E+03  5.07997E+03  4.50233E+02  2.38190E+02  5.10674E+02  2.90576E+03
 -3.53786E+02 -1.45419E+03 -2.62457E+03 -5.56706E+02 -3.86483E+03 -1.01231E+03 -5.42721E+03 -2.00636E+03
 -4.54501E+03 -2.11545E+03 -1.17740E+03 -9.41034E+02 -2.45805E+01 -6.81251E+03 -1.66612E+03 -2.22782E+03
 -8.73340E+02 -1.99981E+03 -2.08253E+01  6.53072E+03  4.85681E+02 -2.37601E+03 -6.39817E+01  2.77526E+02
