 $NMID ID='MM_0lb_SNR50_15hz_g40_21.RAW', FMTDAT='(8E13.5)'
 TRAMP=1., VOLUME=1. $END
  3.11650E+05 -6.29954E+01  3.41992E+05  2.50517E+05  8.45130E+04  3.38117E+05 -1.32952E+05  2.50237E+05
 -1.87816E+05  8.79099E+04 -1.11003E+05 -3.13074E+04  6.95582E+03 -4.86883E+04  5.21169E+04  1.42854E+03
  3.93804E+04  5.15495E+04 -1.62113E+04  7.30498E+04 -5.82805E+04  6.28313E+04 -8.45541E+04  3.47627E+04
 -7.88834E+04 -1.19413E+04 -6.04177E+04 -5.18883E+04 -1.12176E+04 -6.41137E+04  2.40207E+04 -4.14513E+04
  4.02257E+04  7.88909E+03  1.36581E+04  4.94333E+04 -3.24955E+04  4.70566E+04 -6.48321E+04  2.06767E+03
 -5.16095E+04 -5.55628E+04 -3.45197E+03 -8.15820E+04  3.45004E+04 -6.12464E+04  4.64500E+04 -1.75083E+04
  4.37276E+04  1.09555E+04  2.83126E+04  2.96644E+04  1.50492E+04  2.85696E+04 -6.62801E+03  2.64121E+04
 -1.98521E+04  8.49887E+03 -1.68914E+04 -4.49702E+03  2.10987E+03 -5.17309E+03  2.08533E+04  1.33788E+04
  4.83831E+03  3.41584E+04 -3.11228E+04  3.89303E+04 -6.67225E+04 -1.89789E+03 -5.92993E+04 -4.39514E+04
 -1.09024E+04 -6.52945E+04  3.59345E+04 -3.92325E+04  5.57615E+04 -6.41101E+03  2.95647E+04  3.06515E+04
 -6.86673E+03  3.51365E+04 -2.69222E+04  1.42610E+04 -2.80712E+04 -5.26304E+03 -1.39479E+04 -1.32231E+04
 -9.77090E+03 -8.16713E+03 -9.75969E+02 -2.01007E+04  9.24296E+03 -2.41862E+04  1.28587E+04 -1.14774E+04
  9.55513E+03  5.11872E+03 -6.97210E+03  1.58992E+04 -1.83847E+04 -3.77397E+03 -8.82607E+03 -3.31638E+04
  2.16687E+04 -4.23791E+04  4.68836E+04 -2.14760E+04  4.48255E+04  1.41891E+04  1.56552E+04  4.62605E+04
 -1.34475E+04  3.04132E+04 -2.65895E+04  1.15811E+03 -6.92226E+03 -2.59302E+04  2.16135E+04 -3.41480E+04
  3.76862E+04 -1.07748E+04  3.22381E+04  2.38394E+04  1.94575E+04  4.99151E+04 -3.81846E+03  5.42276E+04
 -2.99632E+04  3.61265E+04 -4.13434E+04  5.25495E+03 -4.63657E+04 -1.84453E+04 -2.30409E+04 -3.77142E+04
  7.37794E+03 -3.79684E+04  3.04069E+04 -1.39759E+04  2.90148E+04  5.59080E+03  5.35625E+02  2.04694E+04
 -1.75861E+04  5.42160E+03 -8.86721E+03 -4.01930E+03  4.00185E+03 -1.20176E+04  2.02139E+04  1.00225E+04
  1.20114E+04  2.55819E+04 -8.98374E+03  2.16245E+04 -2.36415E+04  8.47253E+03 -2.27646E+04 -3.27281E+03
 -1.48781E+04 -1.93094E+04 -8.33897E+03 -1.61263E+04  5.27626E+03 -2.34147E+04  1.09580E+04 -1.57691E+04
  2.97938E+04 -1.54897E+04  2.98344E+04 -1.91013E+02  2.32856E+04  1.98624E+04  4.23937E+03  3.26012E+04
 -2.37402E+04  2.87654E+04 -2.80687E+04  5.40891E+03 -1.91426E+04 -1.62579E+04 -9.74802E+03 -1.53217E+04
  6.23980E+01 -6.67129E+03 -7.17622E+03  5.61260E+03 -1.42363E+04  3.82657E+03 -1.49722E+04 -9.38097E+03
 -1.21374E+04 -1.54960E+04  4.32655E+03 -1.98042E+04  1.06772E+04 -1.10359E+04  1.12966E+04 -2.51752E+03
  1.24810E+04  1.13936E+04  8.42749E+02  2.04094E+04 -1.01693E+04  1.08269E+04 -1.65132E+04 -1.92637E+03
 -9.80010E+03 -1.13777E+04 -2.16841E+03 -2.21538E+04  1.08991E+04 -1.73149E+04  1.88355E+04 -5.77671E+03
  1.47060E+04 -2.01792E+03  1.57338E+04  3.63840E+03  4.88265E+03  3.84519E+03  6.79482E+03 -3.16409E+03
  2.25707E+04  4.05022E+03  1.56320E+04  1.74184E+04  8.00515E+03  2.80783E+04 -1.69773E+03  3.46659E+04
 -2.10277E+04  2.23751E+04 -3.01645E+04  8.25932E+03 -3.34022E+04  1.24493E+03 -2.60247E+04 -1.41034E+04
 -1.01642E+04 -2.69008E+04  1.03174E+04 -1.97750E+04  1.56321E+04 -8.14421E+03  1.96281E+04  6.25218E+03
  3.76161E+03  1.47534E+04 -1.26902E+04  6.54282E+03 -1.53287E+04  7.01707E+03 -9.34353E+03 -9.00462E+03
 -1.63627E+03 -1.23799E+04  7.13698E+03 -7.39103E+03  1.17023E+04  5.75941E+01  3.62538E+03  3.15453E+03
 -5.43886E+03  2.77775E+02 -4.60532E+03 -6.94075E+03  3.01224E+03 -1.03101E+04  1.10077E+04 -1.24195E+04
  1.53976E+04 -3.22529E+03  1.10116E+04 -3.15229E+01  9.90135E+03  9.56619E+03  5.15881E+03  1.26298E+04
 -4.23412E+02  1.90092E+04 -9.04859E+03  1.03994E+04 -1.44004E+04  5.86912E+03 -8.76187E+03  6.22548E+03
 -2.67164E+03 -2.52798E+03  9.00107E+02 -9.81331E+02 -2.85591E+03  4.51544E+03 -6.16546E+03  4.53619E+03
 -1.22454E+04 -1.75445E+03 -7.23655E+03 -7.00683E+03 -7.83550E+03 -1.24715E+04  6.51555E+03 -7.00888E+03
  8.26929E+03 -6.75587E+03  4.28413E+03  2.33103E+03  3.68673E+03  5.37698E+03 -1.77543E+03  3.26357E+03
 -8.70948E+03 -7.10830E+03 -4.23745E+03 -5.66246E+03  3.76301E+03 -9.34913E+03  7.59144E+03 -4.58621E+03
  1.33699E+04  4.43719E+02  8.14974E+03  8.46207E+03  3.80880E+03  9.83474E+03 -5.84242E+03  7.73223E+03
 -8.93960E+03  3.95800E+03 -3.31826E+03  1.17023E+03  3.99993E+03 -3.59200E+03  8.39390E+03 -3.65052E+03
  3.18236E+03  9.03320E+03  4.77140E+03  3.46512E+03 -3.42924E+03  7.29328E+03 -5.41538E+03  5.26250E+03
 -3.26132E+03 -4.17487E+03  3.06436E+03 -8.74461E+03  2.90796E+03  5.53450E+02  6.62678E+03  3.36289E+03
  1.86529E+02  1.13265E+04 -5.25423E+03  6.12413E+03 -3.96738E+03  4.21274E+03 -5.15544E+03 -3.02522E+03
 -1.26602E+03 -8.26162E+03  4.03379E+03 -1.43662E+04  1.00742E+04 -8.00468E+03  9.76664E+03 -3.86898E+02
  7.02892E+03  8.38924E+03 -2.42846E+03  8.37384E+03 -7.66042E+03  4.92647E+03 -6.10286E+03 -3.81637E+03
 -1.30365E+04 -7.63603E+03 -3.94064E+03 -5.14772E+03  5.86965E+02 -4.93172E+03  6.16245E+03 -1.16427E+03
  3.98180E+03  2.40366E+03  8.16545E+02  1.22319E+03  3.98704E+03  5.16571E+03  3.18236E+03 -3.05682E+03
  3.16156E+03 -3.65390E+03  5.87378E+03  1.21315E+02  4.98431E+03  3.17707E+03  1.01613E+04  6.24567E+03
 -5.47550E+02  1.21931E+04 -1.26391E+04  5.30968E+03 -1.52030E+04  4.22620E+03 -1.87102E+04 -3.38582E+03
 -6.37242E+03 -8.41997E+03  3.51799E+02 -4.71032E+03 -3.19244E+03 -3.83543E+03  3.86488E+03  2.52335E+02
  1.97207E+03 -9.96165E+02 -1.22069E+03 -5.41672E+03  4.74194E+03 -2.15791E+03  1.81200E+03 -1.61543E+03
  8.35442E+03 -3.37299E+03  3.65381E+03  8.22007E+03  3.17178E+03  1.05176E+04 -9.52500E+03  4.17372E+03
 -7.66457E+03 -2.65419E+03 -3.75751E+03 -1.12455E+03  1.73698E+03 -7.86366E+03  3.70979E+02 -8.04548E+03
  7.41218E+03 -3.35722E+03  1.05538E+04 -3.17904E+03  4.53281E+03  5.78478E+03 -7.01766E+02  6.53576E+02
 -3.35887E+03  7.36576E+03 -4.02749E+03  9.36297E+02 -2.29443E+03 -3.37498E+03 -1.79528E+03 -2.21087E+03
  1.26817E+03 -6.28833E+02 -2.40068E+02  3.04611E+03 -1.59167E-02  4.42550E+03 -2.57316E+03 -3.46236E+03
  2.88473E+02 -2.94973E+03  9.33599E+02 -5.91117E+03  4.16894E+03 -7.93161E+03  9.53301E+03 -2.43388E+03
  9.26610E+03  7.09674E+03  4.25442E+03  7.31604E+03 -3.46024E+03  4.26704E+03  1.53807E+03  3.83762E+03
 -5.18186E+03 -1.78612E+03 -3.46365E+03 -3.17726E+03 -1.22535E+03 -8.10593E+03  3.89703E+03 -4.26591E+03
 -1.90667E+03 -4.64408E+03  2.94974E+03  1.04414E+03  1.15549E+03  4.16206E+03  1.41466E+03  1.35938E+03
 -1.70935E+03  4.44467E+03 -7.07432E+01  1.13460E+03  6.63722E+03  7.40257E+03  5.39277E+03  4.73548E+02
 -8.33056E+02  7.03732E+03 -2.18408E+03  3.30835E+03  3.72920E+02  1.99786E+03 -6.62114E+03 -3.82135E+03
 -8.02066E+02 -3.99821E+03  5.60757E+03 -7.80906E+03  5.42279E+03 -5.83005E+03  9.01203E+03 -3.05756E+03
  8.05194E+03 -1.71912E+03 -4.33748E+03  6.10830E+03 -3.31083E+03 -4.98275E+02 -5.19192E+03  1.32832E+03
 -3.21683E+03  3.34030E+03  6.45216E+01 -4.81028E+03 -1.97574E+03 -4.00360E+02  6.52854E+03 -6.81176E+02
  3.18310E+03 -3.45471E+03  1.84640E+02  4.22103E+03 -7.08935E+02  2.61517E+03 -7.08552E+02 -4.12250E+03
  4.42423E+02 -2.85543E+03  7.02930E+03  2.13546E+03 -3.12552E+03  1.10322E+03  1.11173E+03  7.08506E+03
 -3.61058E+03  1.82238E+03 -2.40571E+02  4.98915E+03 -4.18768E+03  1.48661E+03  3.43644E+03 -1.35698E+03
 -2.85279E+02 -6.12915E+03  6.17203E+03 -1.61941E+03 -2.45468E+03  3.18345E+03 -1.77235E+03  1.07507E+03
 -6.34165E+02  2.39224E+03 -1.61589E+03 -2.12924E+03 -1.48092E+03  1.44031E+03  5.20652E+03 -5.30034E+03
  3.24807E+03  3.16179E+03  8.49645E+02  5.02913E+03  8.98813E+02  3.58979E+03 -1.51278E+03  2.05494E+03
  2.20515E+03  5.93388E+03 -7.83672E+02 -6.85243E+02 -2.36223E+02 -6.09094E+03 -1.08118E+03 -3.88146E+03
  6.57951E+03  2.98537E+03 -3.49348E+03  3.96697E+03 -9.42328E+02  2.54867E+03  2.35740E+03  4.96220E+03
 -2.11022E+03  8.93843E+02 -3.68867E+03 -1.68153E+03  4.56044E+01 -9.51260E+01  2.99710E+03 -1.21456E+03
  1.69712E+01 -5.01626E+02  3.96156E+03  3.34498E+03 -5.65708E+02  1.49782E+03 -3.63332E+03  2.87525E+03
  2.11214E+03  1.84858E+03  3.33371E+02  4.05318E+02 -3.08554E+03  5.63999E+03 -2.89002E+03  9.70086E+02
 -1.75717E+03  1.39066E+03 -1.16926E+03  1.52719E+03 -3.99380E+03 -1.38275E+03 -3.16230E+03 -1.44260E+03
  2.10361E+02 -3.71196E+03  3.17267E+03 -2.77301E+03  4.14582E+03 -3.61011E+03  4.40501E+03 -1.86117E+03
  3.61624E+03 -2.68692E+03  5.24696E+03  7.00138E+03 -5.74364E+02  5.66038E+03  2.31684E+03 -8.31231E+01
  1.74708E+03  2.23754E+03 -1.03018E+03  1.18068E+02 -4.89409E+02 -1.59969E+02 -5.55042E+03  1.91985E+03
  1.19790E+03 -4.49346E+03 -4.09206E+03 -4.05456E+03  3.55454E+03 -1.26360E+03 -1.40977E+02 -1.91651E+03
  1.77492E+03 -2.96522E+03  4.65196E+03 -1.37322E+03  3.41247E+03  1.89616E+03  1.02670E+03 -3.20794E+02
 -1.04001E+03  3.31025E+03  2.32702E+03  1.34303E+03 -2.53373E+03  3.88673E+02 -4.61794E+03  1.97499E+03
 -1.58479E+03 -6.74755E+03  3.65966E+03  3.40220E+03  4.16651E+03 -2.26444E+03  1.05609E+03 -4.29311E+03
  1.46012E+03 -2.06875E+03  2.34387E+02  6.44128E+03 -1.65254E+03 -1.95710E+03 -2.10701E+03  1.84516E+03
 -5.11235E+02 -3.18064E+03 -2.50951E+03 -1.45585E+03  2.68365E+03 -9.55155E+02 -1.44293E+03  3.52334E+03
 -2.94498E+03  1.25870E+03 -1.04935E+03 -8.39671E+02 -7.54134E+02 -8.00427E+02  9.63302E+02  5.88656E+02
  5.60805E+03 -1.54235E+03  7.07875E+03  1.88251E+02  3.76775E+03  1.43305E+03 -8.22236E+02  5.26486E+02
 -4.10036E+03  2.18865E+03 -8.82671E+03  3.93104E+03 -3.67142E+03  1.37302E+03  4.96113E+03 -3.15633E+03
 -3.20825E+03 -1.69091E+03 -2.88704E+03 -1.28215E+02  2.55007E+03 -8.10882E+02 -5.02365E+03 -2.74292E+02
 -5.77801E+03  3.22912E+01  1.11697E+02 -1.50595E+03  2.27160E+03 -5.74937E+02  2.37496E+03 -6.71040E+03
  2.89207E+03  4.72027E+02 -2.69558E+03 -1.05293E+03 -2.09225E+03  5.09882E+03 -7.33016E+02 -4.76039E+02
