 $NMID ID='MM_0lb_SNR50_11hz_g50_57.RAW', FMTDAT='(8E13.5)'
 TRAMP=1., VOLUME=1. $END
  3.09442E+05 -9.14931E+03  3.36660E+05  2.53505E+05  8.50749E+04  3.39733E+05 -1.31081E+05  2.56148E+05
 -1.92458E+05  8.96044E+04 -1.11203E+05 -3.37162E+04  6.50399E+03 -4.91948E+04  5.16345E+04  2.87660E+03
  4.01048E+04  5.67602E+04 -1.41044E+04  7.64308E+04 -5.85418E+04  6.14613E+04 -9.11596E+04  3.22437E+04
 -8.14908E+04 -1.30115E+04 -6.36558E+04 -5.76119E+04 -1.67391E+04 -7.21623E+04  2.84174E+04 -4.41033E+04
  4.06571E+04  3.14724E+03  1.58846E+04  4.73732E+04 -3.62113E+04  4.48047E+04 -6.85301E+04  1.43896E+03
 -5.79229E+04 -5.36692E+04 -8.99745E+03 -8.12029E+04  3.27673E+04 -5.44302E+04  5.00779E+04 -1.79693E+04
  4.39064E+04  8.60016E+03  3.62335E+04  3.23178E+04  1.81481E+04  3.43406E+04 -6.62012E+03  2.66125E+04
 -1.70205E+04  1.14642E+04 -2.06985E+04 -5.63408E+03  1.03212E+04 -3.70728E+03  2.38697E+04  9.03159E+03
  4.46002E+03  3.30686E+04 -3.81566E+04  3.15190E+04 -6.33305E+04  3.28707E+03 -5.75268E+04 -4.54116E+04
 -1.09440E+04 -6.51439E+04  4.41054E+04 -4.65003E+04  6.41663E+04 -5.80946E+03  4.36133E+04  3.19761E+04
 -6.64787E+03  3.66060E+04 -3.70393E+04  2.18769E+04 -3.19740E+04 -6.58210E+03 -2.20229E+04 -9.78341E+03
 -1.29671E+04 -1.32253E+04 -4.23101E+03 -2.00776E+04  6.56152E+03 -2.78238E+04  1.74070E+04 -1.81399E+04
  1.04792E+04  5.38652E+03 -5.79535E+03  1.20828E+04 -2.29734E+04 -4.14273E+03 -5.83568E+03 -3.48993E+04
  2.12130E+04 -4.28168E+04  5.19203E+04 -1.98097E+04  4.66559E+04  2.18849E+04  1.43792E+04  4.14150E+04
 -2.14940E+04  4.18430E+04 -2.76720E+04  7.25099E+03 -1.42871E+04 -3.18821E+04  2.37731E+04 -3.97983E+04
  4.58578E+04 -1.49555E+04  3.51844E+04  2.27516E+04  2.01639E+04  4.31211E+04 -1.13205E+04  4.88478E+04
 -3.14648E+04  3.65195E+04 -4.21383E+04  9.27023E+03 -4.22450E+04 -1.79298E+04 -2.44879E+04 -3.50754E+04
  7.34648E+03 -3.49201E+04  3.56492E+04 -1.76837E+04  3.21121E+04  6.16715E+03  5.93970E+03  1.80563E+04
 -1.22481E+04  8.99322E+03 -1.25597E+04 -3.94036E+03  3.62206E+03 -1.03140E+04  1.73258E+04  5.58984E+03
  1.57531E+04  2.64707E+04 -9.86005E+03  2.80976E+04 -2.59704E+04  1.46278E+04 -3.56552E+04 -3.71502E+03
 -1.39122E+04 -1.72219E+04 -1.12734E+04 -2.05146E+04  2.42235E+03 -2.27498E+04  1.60127E+04 -2.52271E+04
  2.86336E+04 -1.25983E+04  3.96384E+04  5.45281E+03  2.90890E+04  2.11587E+04 -1.42769E+03  4.13376E+04
 -1.31455E+04  3.12502E+04 -2.98159E+04  1.11848E+04 -2.05933E+04 -1.34663E+04 -5.08589E+03 -1.18479E+04
  4.38205E+03  2.70309E+03 -7.21933E+03  1.01967E+04 -2.44823E+04  4.26758E+03 -2.21754E+04 -1.57792E+04
 -1.09314E+04 -2.20110E+04  7.30322E+03 -2.60614E+04  1.92451E+04 -2.10029E+04  2.24803E+04 -6.45246E+03
  1.37030E+04  1.30322E+04 -5.91086E+03  2.32022E+04 -2.20775E+04  2.36857E+03 -1.75357E+04 -9.96065E+03
 -1.38168E+04 -1.96222E+04 -4.73365E+03 -2.72304E+04  7.37530E+03 -2.38693E+04  2.07106E+04 -9.44359E+03
  1.57896E+04  4.13809E+03  1.19926E+04  3.42201E+03  3.70149E+03  3.18793E+03  1.05382E+04 -3.87889E+03
  1.71118E+04 -1.58523E+03  2.28962E+04  1.89975E+04  1.61923E+04  3.26549E+04  3.95636E+02  3.81668E+04
 -2.76421E+04  3.20006E+04 -4.32662E+04  1.64698E+04 -3.60024E+04 -4.32216E+03 -3.70808E+04 -2.10565E+04
 -1.94316E+04 -3.44734E+04  1.22856E+04 -2.80932E+04  2.55903E+04 -1.64665E+04  1.73487E+04  8.02330E+03
  1.21555E+04  1.26836E+04 -8.82974E+03  1.62126E+04 -2.15305E+04 -6.21625E+02 -1.93634E+04 -7.51380E+03
 -2.21793E+02 -2.29989E+04  1.41507E+04 -1.28117E+04  1.12641E+04 -7.97309E+02  9.37943E+03  1.21031E+04
 -7.05664E+03  1.63945E+03 -6.78906E+03 -7.89236E+03 -3.11399E+03 -2.08477E+04  1.11986E+04 -1.54401E+04
  2.38008E+04 -1.54795E+04  1.93006E+04  2.07113E+03  1.68498E+04  1.49982E+04  3.67999E+03  2.19988E+04
 -4.43347E+03  2.22696E+04 -1.75828E+04  1.80089E+04 -1.24392E+04  4.86390E+03 -1.01616E+04 -8.67954E+03
 -5.48796E+03 -5.56316E+03 -3.40438E+03 -1.81096E+02 -1.52414E+03  1.19147E+03 -7.73028E+03  4.08615E+03
 -1.45284E+04 -1.83709E+03 -1.24470E+04 -1.53911E+04 -6.03409E+03 -1.47779E+04  5.44132E+03 -1.35955E+04
  1.15364E+04 -7.49566E+03  7.45387E+03  3.23300E+03 -7.74166E+02  8.00783E+03 -2.96775E+03 -2.09448E+03
 -5.69180E+03 -1.23470E+04 -4.97636E+03 -1.63823E+04  5.88443E+03 -1.47387E+04  1.97546E+04 -3.79053E+03
  2.52718E+04  1.48565E+03  1.39586E+04  1.81766E+04  1.05977E+03  1.64978E+04 -1.48945E+04  9.51866E+03
 -7.92406E+03  8.33829E+03 -1.35673E+03  1.02103E+03 -2.79867E+03 -6.22585E+03  8.71982E+03  1.77373E+02
  4.41713E+03  2.33413E+03  1.73961E+03  1.22852E+04 -6.59665E+03  1.02567E+04 -1.30713E+04  2.50618E+03
 -1.08131E+04 -6.32424E+03  6.34490E+03 -1.08968E+04  8.19045E+03 -9.44602E+03  4.34910E+03  3.02792E+03
  3.77744E+03  7.25962E+03 -9.74768E+03  1.23323E+04 -1.17882E+04  3.47745E+03 -7.54030E+03 -1.18032E+03
 -7.59222E+03 -1.28704E+04  3.66841E+03 -1.18898E+04  1.80919E+04 -1.11947E+04  1.54571E+04 -3.95209E+03
  8.85730E+03  1.94985E+04 -7.07216E+03  1.38534E+04 -8.89207E+03  7.53497E+03 -7.99983E+03 -9.08472E+03
 -1.56987E+04 -6.77371E+03 -2.64382E+02 -1.44207E+04  5.09464E+03 -1.08122E+04  9.99730E+03 -1.72940E+03
  3.34700E+03  1.83820E+03  3.76189E+03  3.90977E+02  2.72118E+03 -8.81732E+02  1.04381E+04 -5.49848E+03
  1.35513E+04 -1.12255E+03  1.28942E+04  9.86233E+02  1.05558E+04  1.04473E+04  7.96742E+03  1.13951E+04
 -4.29309E+03  1.71840E+04 -4.32709E+03  1.01448E+04 -1.74627E+04 -1.49265E+03 -1.99163E+04 -8.86635E+03
 -1.06771E+04 -1.17188E+04  4.28144E+03 -1.36655E+04 -8.14509E+02 -1.15938E+04  1.01834E+02 -7.16976E+03
  3.68313E+03 -8.19875E+03 -1.04186E+03 -3.79496E+03  1.07231E+04  5.39618E+02  2.72778E+03  2.27426E+01
  7.83973E+03 -2.17287E+03  6.04449E+03  9.97156E+03 -5.99309E+02  6.38583E+03 -1.06375E+04  6.41071E+03
 -1.36060E+04 -1.10705E+02 -7.23208E+03 -8.91240E+03 -1.30794E+03 -1.47590E+04  6.55690E+03 -8.23918E+03
  1.76641E+04 -8.48840E+03  2.24674E+04 -1.15034E+03  8.36063E+03  1.25833E+04  1.16777E+03  1.85776E+04
 -7.73901E+03  1.26639E+04 -2.67229E+03  4.42502E+03 -6.37950E+03  4.24706E+03  2.48135E+03 -3.08030E+03
  1.70161E+02 -1.24501E+03 -2.55882E+03  2.69293E+03 -4.01321E+03  4.25293E+03 -8.34713E+03  1.07211E+03
 -5.83126E+03 -1.18859E+04  1.24790E+03 -1.37565E+04  9.51223E+03 -6.81603E+03  1.52861E+04 -8.13156E+03
  1.23853E+04  5.27892E+03  3.10471E+03  1.46779E+03 -5.70882E+03  1.25583E+04 -8.75290E+03  1.05717E+04
 -4.16354E+03 -2.31490E+02 -9.54341E+03 -6.24117E+03 -3.01065E+03 -8.09297E+03  1.77155E+03 -5.72854E+03
  2.62401E+03 -3.62808E+03  4.91967E+03  1.62072E+03  2.72706E+03  5.94974E+03  6.00738E+03 -6.68774E+03
  4.43935E+03 -1.60492E+03  1.24772E+03  4.59923E+03  5.06085E+03  4.01825E+03  6.90864E+03  5.76424E+03
  1.52231E+03  8.70506E+03 -1.52582E+04  9.74438E+03 -1.26317E+04  1.24223E+03 -1.44204E+04 -2.56070E+03
 -8.53868E+03 -1.22512E+04  4.54917E+03 -1.21667E+04  4.51711E+03 -7.42503E+03  6.40350E+03 -1.28421E+03
  7.64465E+03  4.78565E+03  5.11325E+03  1.19024E+03 -1.14982E+03  1.19918E+03 -7.34845E+03  9.60544E+00
 -4.69660E+03 -3.77341E+03  1.74302E+03 -3.06341E+03  8.74197E+03 -6.94040E+03  5.17810E+03 -5.10006E+02
  1.04224E+03 -6.40848E+02  2.87367E+03  2.53373E+03 -1.22827E+03 -2.41543E+02 -6.19625E+03 -8.70098E+02
  3.14259E+03 -2.34153E+03  7.33711E+03  6.16898E+03  3.08339E+03  4.99314E+03 -8.74470E+02  8.17093E+03
 -7.81940E+03  9.82459E+03 -5.40031E+03  3.84698E+03 -1.07119E+04 -7.06351E+03  1.54317E+03 -4.44473E+03
  6.45254E+02 -6.69267E+03  4.54899E+03 -3.31727E+03  1.50137E+03  3.46728E+03  3.67776E+02  5.41236E+03
 -6.08339E+03  2.38203E+03 -6.66722E+03 -2.89835E+03 -2.96081E+03 -8.39535E+03 -9.21142E+02 -1.46741E+03
  1.13860E+04 -1.05158E+04  2.92015E+03 -4.94179E+03  3.50165E+03  3.63030E+03  6.77727E+02  1.19679E+03
  2.01228E+03  3.32266E+03 -2.84540E+03 -7.71576E+03  4.78156E+03 -1.64325E+03  7.70355E+03 -4.35669E+03
  4.20224E+03 -1.49315E+03  1.26954E+04  5.82609E+03 -5.78783E+03  3.42731E+03 -2.33018E+03  6.92443E+03
  4.94911E+01 -2.46114E+03 -5.92431E+03 -5.10434E+03 -3.35782E+03 -4.35118E+03  2.73861E+03 -5.96969E+01
  3.46931E+03 -3.58640E+03  6.14297E+03  4.85360E+03 -1.98152E+03  2.03562E+03  1.05147E+03 -4.19550E+03
 -3.50388E+03  2.46915E+03 -2.48555E+03  5.82942E+03 -7.67408E+03  1.50313E+03  2.58881E+03  5.42449E+03
 -6.72005E+02  1.48898E+03 -3.96482E+03  3.90176E+03 -3.75967E+03  1.08643E+03 -1.32602E+04 -7.86110E+03
 -2.64237E+03 -9.56085E+03  1.60812E+03 -1.18071E+04  6.96614E+03 -1.07239E+04  1.10951E+04 -6.34745E+03
  1.20968E+04  3.33569E+03  7.96160E+02  4.60497E+03 -5.83234E+02  7.10936E+03  2.68103E+03  3.82249E+03
 -4.98648E+02  4.25927E+03 -3.72004E+03 -2.31964E+03  4.30173E+03 -2.30774E+03 -3.75730E+03  5.31802E+03
  1.78587E+03  6.44675E+03 -3.56677E+03  4.36952E+02 -7.66335E+03 -6.12719E+03 -1.84255E+03 -2.20572E+03
  2.38310E+03 -4.31832E+03  3.03240E+03  1.52485E+03  4.99097E+03  3.31725E+03  6.88007E+03  5.09465E+03
 -3.71302E+03  1.09132E+04 -1.17901E+04  2.15482E+03 -8.72935E+03 -1.14506E+03 -7.50084E+03 -1.15581E+04
 -3.14638E+03 -9.53457E+03  1.98723E+03 -7.75787E+03  3.96198E+03 -4.59290E+03  1.77099E+03 -3.63557E+03
  3.54827E+03 -1.77602E+03  5.62447E+03  5.23604E+03 -4.13032E+03  5.07847E+03  1.88005E+03 -1.63573E+03
  2.57645E+03  2.67424E+03 -6.75398E+02  2.21980E+03  4.63268E+03  3.35473E+03  4.94770E+03  4.69387E+03
 -2.17660E+03  6.21028E+02 -3.32332E+03 -2.88667E+03 -5.79402E+03  4.14285E+02  3.47091E+02 -2.85201E+03
  6.75922E+02  1.31594E+03  6.12581E+03  3.48211E+02  7.87268E+03  1.15757E+03  7.08828E+03  7.94292E+03
 -2.70520E+02  4.91815E+03 -2.56934E+03  5.50719E+03 -4.54279E+03 -7.04402E+03 -5.92029E+03 -3.46083E+03
 -1.34179E+03 -1.73674E+03  1.35359E+03  3.23062E+02 -1.22831E+03 -6.42974E+03 -1.41665E+03 -3.19003E+03
  1.42429E+03  4.07162E+03 -5.25606E+03 -2.78792E+03  2.28070E+03 -7.91991E+02  6.83822E+03  1.08867E+03
  9.63136E+03 -1.20954E+03  3.99544E+03  5.60976E+03  1.76575E+03  1.62242E+03 -1.72911E+03  4.83872E+03
