 $NMID ID='MM_0lb_SNR50_19hz_g55_31.RAW', FMTDAT='(8E13.5)'
 TRAMP=1., VOLUME=1. $END
  3.11854E+05 -3.18480E+02  3.37268E+05  2.52224E+05  8.40541E+04  3.35099E+05 -1.34985E+05  2.45984E+05
 -1.91882E+05  8.23357E+04 -1.10146E+05 -3.12027E+04 -3.54511E+03 -4.60693E+04  5.00473E+04  2.65618E+03
  3.39995E+04  5.44221E+04 -1.57254E+04  7.18619E+04 -5.88803E+04  6.47320E+04 -8.48249E+04  3.52887E+04
 -7.93439E+04 -9.66282E+03 -5.68105E+04 -4.84697E+04 -1.24160E+04 -6.80223E+04  2.35850E+04 -4.41506E+04
  4.27090E+04  3.47479E+03  1.47371E+04  4.88244E+04 -3.23339E+04  4.89734E+04 -6.22528E+04 -3.52778E+03
 -5.20743E+04 -5.85306E+04 -6.35189E+03 -7.94021E+04  3.54496E+04 -5.13642E+04  4.74955E+04 -1.80019E+04
  4.18933E+04  1.45393E+04  3.23976E+04  2.61872E+04  1.95014E+04  2.92707E+04 -5.94658E+03  2.60460E+04
 -2.00695E+04  1.38610E+04 -2.27508E+04 -5.42776E+03  2.33360E+03 -7.45208E+03  2.21280E+04  1.36260E+04
  6.94662E+03  3.33444E+04 -3.37917E+04  3.04739E+04 -5.81852E+04  3.51436E+03 -5.71661E+04 -4.04207E+04
 -1.44295E+04 -6.46521E+04  3.99369E+04 -4.49593E+04  5.71559E+04 -3.23038E+03  3.58313E+04  2.62046E+04
 -3.34811E+03  3.21746E+04 -3.39619E+04  1.15359E+04 -3.22295E+04 -4.39698E+03 -1.24336E+04 -8.39442E+03
 -4.91569E+03 -1.44826E+04 -1.76190E+03 -1.62361E+04  8.76872E+03 -2.51952E+04  1.25636E+04 -1.55051E+04
  1.19789E+04  5.10501E+03 -7.68056E+03  1.63731E+04 -2.22288E+04 -2.77722E+03 -6.83660E+03 -3.29273E+04
  1.90991E+04 -3.93486E+04  4.36472E+04 -2.11498E+04  4.29950E+04  2.20584E+04  1.67159E+04  4.21562E+04
 -1.60831E+04  3.38514E+04 -2.36094E+04  3.17100E+02 -1.03558E+04 -2.32452E+04  1.74972E+04 -3.55325E+04
  3.99920E+04 -9.10103E+03  3.32153E+04  2.33490E+04  1.31116E+04  4.29869E+04 -9.23796E+03  4.30148E+04
 -3.34830E+04  3.10585E+04 -3.84613E+04  1.05608E+04 -3.81697E+04 -1.51484E+04 -2.02086E+04 -3.18508E+04
  4.72810E+03 -3.57177E+04  3.01854E+04 -1.77613E+04  2.93581E+04  1.02393E+04  4.69613E+03  1.68054E+04
 -1.36931E+04  7.92797E+03 -6.18956E+03 -1.06884E+04  7.93256E+03 -9.60087E+03  2.46882E+04  4.51059E+03
  1.69815E+04  2.01737E+04 -9.41309E+03  2.89294E+04 -2.46473E+04  9.68251E+03 -2.23023E+04 -6.92679E+03
 -1.88129E+04 -1.33541E+04 -6.94956E+03 -1.68992E+04  2.52708E+03 -1.69334E+04  1.44007E+04 -1.37810E+04
  2.46911E+04 -8.44924E+03  2.96346E+04  3.76302E+03  1.99284E+04  2.36520E+04  4.31145E+03  2.90240E+04
 -1.77652E+04  2.79057E+04 -2.66179E+04  8.51799E+03 -1.46682E+04 -1.29876E+04 -2.22853E+03 -1.24840E+04
  2.65762E+02  7.32527E+02 -4.12919E+03  6.43947E+03 -1.22565E+04  5.19961E+03 -1.06061E+04 -4.19073E+03
 -7.09391E+03 -1.56821E+04  7.84886E+03 -2.09355E+04  1.46221E+04 -1.30365E+04  1.56076E+04 -9.75467E+02
  1.00340E+04  9.18680E+03  8.74225E+02  1.34919E+04 -5.04813E+03  7.01423E+03 -1.55641E+04 -4.45824E+03
 -8.19725E+03 -1.34739E+04  1.50342E+03 -1.94110E+04  1.07050E+04 -1.62576E+04  1.56132E+04 -8.75767E+03
  1.23224E+04  1.89811E+03  1.35603E+04  8.29156E+02  3.71823E+03 -1.16926E+01  1.08603E+04 -9.26527E+02
  1.85036E+04  4.28697E+03  1.55909E+04  1.21527E+04  9.85998E+03  2.37772E+04  5.26355E+02  2.52049E+04
 -2.06628E+04  2.15956E+04 -2.66436E+04  1.00083E+04 -2.39386E+04  7.75573E+02 -1.93394E+04 -1.72617E+04
 -1.57843E+04 -2.19739E+04  1.28814E+04 -2.36446E+04  1.32079E+04 -1.48621E+04  1.55196E+04 -2.71669E+03
  8.66966E+03  1.37135E+04 -8.62645E+03  1.19754E+04 -1.52902E+04  5.90806E+03 -9.58459E+03 -1.23029E+04
 -2.64421E+03 -1.78309E+04  2.57549E+03 -1.02512E+04  1.03559E+04 -4.27238E+03  3.73840E+03  8.45141E+03
 -2.59220E+03  2.14769E+03 -6.65254E+03 -2.07495E+03  5.34900E+03 -1.52500E+04  4.28444E+03 -1.22600E+04
  1.36454E+04 -6.57570E+03  1.60732E+04  3.69045E+03  9.76174E+03  9.70839E+03  5.27589E+03  1.87249E+04
 -5.32031E+03  1.45431E+04 -9.45319E+03  8.91724E+03 -1.12465E+04  3.84522E+03 -8.19898E+03 -1.20649E+03
 -2.07681E+03 -9.92314E+02 -3.73660E+03 -9.60440E+02 -1.99358E+03  2.05117E+03 -2.43280E+03  5.72026E+03
 -7.37186E+03 -1.74446E+03 -1.21012E+04 -8.93526E+03 -5.06421E+03 -7.39050E+03  3.29956E+03 -7.41603E+03
  8.14246E+03 -3.68840E+03  8.42692E+03  2.59835E+03  3.13213E+03  2.39071E+03 -3.22942E+03 -3.52985E+03
 -5.81131E+03 -6.62800E+03 -4.12146E+03 -8.80848E+03  7.61757E+03 -6.09550E+03  1.10126E+04 -7.04563E+03
  1.47946E+04  2.75696E+03  9.76172E+03  7.89209E+03  6.05805E+02  1.28793E+04 -5.43261E+03  1.05624E+04
 -2.45292E+03  1.93076E+03 -8.87157E+02 -1.26128E+02 -3.90207E+03  2.85259E+03  2.24466E+03  1.59937E+03
 -1.38607E+03  4.46724E+03  3.04416E+03  5.51297E+03 -7.47609E+03  6.95240E+03 -7.37809E+03 -1.63528E+03
 -5.22482E+03 -5.04453E+03  1.85566E+03 -6.98498E+03  2.39524E+03 -2.39631E+03  5.59048E+03  2.88231E+03
  1.75052E+03  2.46220E+03 -4.58479E+03  5.43516E+03 -3.74385E+03  7.06496E+03 -6.09562E+03 -4.42186E+03
 -5.50112E+03 -7.35384E+03  2.74389E+03 -6.32353E+03  4.95946E+03 -1.08671E+03  7.42889E+03  4.23394E+03
  4.73091E+03  4.46982E+03  1.66087E+03  1.07389E+04 -6.82705E+03  8.54867E+03  6.23235E+01 -3.04905E+03
 -5.85729E+03 -3.65063E+03 -2.45936E+03 -1.21558E+03 -7.85474E+02 -1.90343E+03 -3.95711E+02 -5.85335E+02
  3.50245E+03 -2.61152E+03  3.26929E+03 -1.60594E+03  2.33256E+03 -1.05652E+03 -1.39111E+03 -2.36193E+03
  1.38178E+02  3.10251E+02  3.92389E+03 -2.57756E+03  6.05175E+03 -1.04787E+03  1.07034E+04  9.06282E+03
 -4.21337E+03  8.03838E+03 -4.20888E+03  8.84359E+03 -1.20999E+04 -8.62288E+02 -4.69942E+03 -5.43711E+03
 -7.32979E+03 -8.55266E+03  1.42367E+03 -4.27029E+03 -2.49002E+03 -6.17119E+03  5.52224E+03  6.86974E+01
  4.38265E+03 -3.95361E+03 -1.14234E+03  5.35098E+02  1.20656E+03 -1.53081E+03  8.81747E+03  3.86815E+03
  6.25354E+03  6.30874E+03 -4.12930E+02  6.59588E+03 -1.44235E+03  2.30509E+03 -3.32927E+03  3.96552E+03
 -5.01143E+03 -5.61003E+03  3.08589E+03 -6.49655E+03 -9.60952E+02 -3.99592E+03  6.90497E+03 -5.31747E+03
  9.18065E+03 -6.23750E+01  1.04747E+04 -6.85725E+02  5.33544E+03  9.19827E+01 -1.46220E+03  6.13022E+03
 -3.13767E+03  7.38547E+03  5.79766E+02  1.41397E+03  2.28232E+03 -1.72998E+03 -2.79508E+03  4.36235E+02
 -3.52042E+03 -1.97082E+03 -6.02051E+03  4.52737E+03  8.60595E+02  1.32178E+03 -8.88754E+03  3.45129E+03
 -1.97894E+03 -3.13915E+03 -1.08409E+01  2.22781E+03  1.03021E+02 -6.44825E+03  5.22087E+03  2.58439E+02
  8.93839E+02  2.01253E+03  2.11143E+03 -5.07284E+01 -3.93545E+03  5.12521E+03  1.74088E+03  2.95765E+03
 -6.68385E+03  2.63785E+03 -3.36201E+03 -4.52800E+03 -1.94435E+03 -4.38939E+03 -1.12504E+03 -2.61723E+03
  3.67271E+02 -3.44486E+03  6.35174E+03 -2.58527E+03  1.43649E+03  1.70395E+03 -1.42122E+03 -7.78657E+01
  2.99090E+03 -3.98019E+02 -1.87614E+03  6.47465E+03 -3.31343E+02  1.52983E+03  5.69245E+02  8.23123E+02
  5.30931E+02  1.83598E+03 -1.26234E+03  4.35241E+03 -2.74824E+03  4.10290E+02 -1.92118E+03  4.82244E+02
 -4.57198E+03 -2.11161E+03 -1.42961E+03 -4.89993E+03 -7.38136E+02 -4.19665E+03  6.73193E+03 -1.78099E+03
 -6.31129E+02 -2.30045E+03  1.55704E+03 -2.41813E+02  9.81968E+02 -1.78456E+03 -3.59711E+03 -1.65053E+03
  8.04502E+02  1.00541E+01  8.51910E+02 -4.35368E+02  2.27614E+03  3.13381E+02  8.98538E+02 -3.67268E+03
 -6.30515E+00  4.63924E+03  8.73148E+02  1.10600E+03  2.89733E+03  5.33968E+03 -3.50478E+02 -4.04427E+03
  3.37856E+03 -2.45857E+03  1.17431E+03 -3.19128E+03 -5.39400E+02  1.54226E+03 -3.39571E+03  5.30533E+03
 -3.52927E+02 -3.42087E+03 -4.76443E+03  1.99433E+03 -6.43063E+03 -2.04516E+00 -1.68206E+03 -1.74926E+03
 -1.44697E+03 -1.58598E+03  1.25271E+03  2.84003E+03 -2.29546E+03  3.52955E+03 -3.63946E+03  1.98501E+03
  1.34225E+03  1.33544E+03 -2.84606E+03  1.34106E+03  5.04876E+03 -1.56028E+03 -4.61148E+02 -3.11293E+03
  1.16110E+03 -1.06425E+03 -1.58960E+03  1.89092E+02 -1.33217E+01  2.52837E+03 -2.60395E+02  1.45097E+02
 -2.01608E+03 -3.23943E+03 -1.53078E+03 -1.59461E+03 -1.07265E+03  6.63932E+02  2.11271E+03 -3.52585E+03
 -3.11624E+03 -3.53791E+03  2.17725E+03  5.87516E+02 -7.83925E+02  2.12517E+03  4.10381E+03  4.05931E+03
 -1.75809E+03  2.27700E+02 -3.15930E+03 -1.57479E+02  2.42931E+03 -1.55331E+03  1.38485E+03 -2.11949E+03
  2.81868E+03 -4.63753E+03  9.75042E+02  2.19476E+03 -2.00657E+03  1.86629E+03  5.37547E+02  5.12759E+03
  7.50017E+01 -1.61339E+02  2.68846E+03  3.50874E+03 -3.90069E+03  1.00167E+03  2.67423E+03 -1.70914E+03
  1.33454E+03  4.21297E+03 -2.52619E+03  1.10583E+03 -9.45368E+02  6.14172E+02 -9.24514E+01  1.28679E+03
 -1.84754E+03 -1.98425E+03 -2.60933E+03 -3.61227E+03  5.34197E+03 -2.84884E+03  2.71947E+03 -3.17946E+03
 -4.00303E+02 -3.99594E+03 -4.26091E+03  3.82656E+03 -1.55038E+02  1.64098E+03 -6.59118E+03 -2.57609E+03
  2.18664E+03 -2.49080E+03 -4.72256E+03  3.70220E+03 -2.36219E+03 -9.55614E+02 -6.34412E+03 -2.38545E+03
 -2.73892E+03  3.22210E+03 -3.04262E+03 -2.03859E+03  1.94267E+03  9.34814E+02 -3.06685E+03  6.15914E+03
  6.18973E+02  4.61413E+02  3.86831E+03  3.81585E+03  9.46181E+02 -1.35539E+03 -9.49613E+02 -2.37716E+03
 -5.97555E+03 -1.87774E+03  2.58750E+02 -2.04587E+03 -5.70298E+03 -1.86669E+03 -7.11992E+02 -2.02816E+03
 -1.00256E+03 -2.44963E+03  2.58320E+03  1.53156E+03  9.60312E+02 -6.37989E+03  1.75255E+03  6.30887E+03
  1.99929E+03 -2.36978E+03  5.57418E+02 -7.98965E+02 -1.99743E+03  4.90206E+02 -6.51548E+02 -2.11752E+03
 -1.19638E+03 -1.54619E+03 -9.46248E+02  1.41006E+02 -8.80239E+02  7.44300E+02  4.37448E+03 -3.76281E+03
  5.77168E+02 -2.21488E+02 -2.58919E+03 -4.96769E+02  2.23452E+03 -2.23089E+03 -5.88962E+02 -3.03607E+03
  3.50583E+03  1.39878E+03  1.18649E+03  4.70134E+03  8.74285E+00 -2.81586E+03  1.18911E+03  2.40285E+03
 -1.71497E+03  4.30475E+01 -4.04924E+03  1.01540E+03  2.66734E+03  1.22271E+03 -2.38082E+03 -1.55814E+01
  6.35153E+02  3.74436E+03 -2.28871E+03 -5.30584E+02  1.93393E+02  2.49034E+03 -3.73374E+02 -2.38230E+03
 -1.51928E+03 -1.33106E+03 -8.56072E+02 -2.12077E+03 -1.61177E+03 -4.82804E+03  1.64257E+03 -3.16410E+02
  1.03603E+03  4.14406E+03 -4.71206E+02 -9.03866E+02  1.48699E+03 -4.25141E+03 -3.24820E+03 -1.43043E+03
