 $NMID ID='MM_0lb_SNR50_14hz_g45_100.RAW', FMTDAT='(8E13.5)'
 TRAMP=1., VOLUME=1. $END
  3.13694E+05 -1.08499E+03  3.36951E+05  2.52914E+05  8.76722E+04  3.40515E+05 -1.31276E+05  2.57698E+05
 -1.88805E+05  8.70323E+04 -1.12889E+05 -3.35344E+04 -5.15714E+02 -4.98838E+04  4.95145E+04  1.15018E+03
  3.52592E+04  5.07368E+04 -1.67567E+04  7.50102E+04 -5.82207E+04  6.77274E+04 -8.38097E+04  2.72041E+04
 -8.14962E+04 -1.29635E+04 -5.69083E+04 -5.47159E+04 -1.44950E+04 -7.09096E+04  2.44871E+04 -4.69000E+04
  4.43866E+04  6.41312E+03  1.77768E+04  4.60484E+04 -3.46604E+04  4.69531E+04 -6.53528E+04 -6.76308E+03
 -5.12233E+04 -5.54344E+04 -1.26360E+03 -7.91830E+04  3.23999E+04 -5.51450E+04  4.64576E+04 -1.81584E+04
  4.41254E+04  1.35104E+04  3.12416E+04  2.57281E+04  8.98302E+03  3.16512E+04 -1.05422E+04  2.61247E+04
 -1.92456E+04  1.58221E+04 -1.19698E+04 -1.81824E+03  5.35704E+03 -1.01954E+04  2.43009E+04  1.37333E+04
  1.13753E+04  3.90496E+04 -3.04252E+04  4.11599E+04 -6.68338E+04  1.20248E+03 -5.70515E+04 -3.94307E+04
 -1.19518E+04 -6.14046E+04  3.91013E+04 -4.46594E+04  5.56837E+04 -5.57320E+03  3.64855E+04  3.53691E+04
 -5.05179E+03  3.66832E+04 -3.10317E+04  2.15191E+04 -3.03269E+04 -3.78555E+03 -1.82152E+04 -9.72496E+03
 -3.97419E+03 -1.49206E+04  1.64728E+03 -1.91684E+04  9.50914E+03 -2.16691E+04  1.32748E+04 -1.74942E+04
  1.05808E+04  7.66715E+03 -1.08459E+04  9.53213E+03 -1.79447E+04 -1.75677E+03 -8.55332E+03 -3.21835E+04
  1.96118E+04 -4.93360E+04  4.46112E+04 -1.94867E+04  4.15639E+04  1.82886E+04  1.76865E+04  4.22902E+04
 -1.47567E+04  3.24957E+04 -2.63670E+04  5.71760E+03 -1.81230E+04 -2.16066E+04  2.08657E+04 -3.38728E+04
  4.53097E+04 -5.92345E+03  3.15521E+04  2.77072E+04  1.35402E+04  4.52589E+04 -1.06363E+04  4.80855E+04
 -3.01115E+04  3.37516E+04 -3.96709E+04  7.79230E+03 -4.05104E+04 -1.19707E+04 -2.07930E+04 -3.97233E+04
  1.25652E+04 -3.62936E+04  2.87225E+04 -1.13245E+04  2.67941E+04  1.41643E+04  2.88626E+03  2.37396E+04
 -1.75277E+04  1.52376E+04 -1.20881E+04 -5.08205E+03  8.07422E+03 -6.94757E+03  1.78096E+04  9.11482E+03
  1.17095E+04  2.55517E+04 -6.18074E+03  2.57444E+04 -2.01576E+04  1.61211E+04 -2.62577E+04 -7.21225E+03
 -1.63043E+04 -1.70340E+04 -8.90072E+03 -1.84385E+04  4.57091E+03 -1.53054E+04  1.37624E+04 -1.61569E+04
  2.69427E+04 -1.08708E+04  2.80299E+04  3.24954E+03  2.00564E+04  1.93945E+04  2.79265E+03  3.47821E+04
 -1.59375E+04  3.13096E+04 -3.26257E+04  7.15515E+03 -1.99777E+04 -1.52560E+04 -2.74411E+03 -1.11070E+04
  6.52445E+03  4.34091E+02 -1.06264E+04  9.36236E+03 -8.08121E+03  6.94637E+03 -1.43289E+04 -8.03854E+03
 -1.08504E+04 -1.68656E+04  6.92071E+03 -2.34472E+04  1.58179E+04 -1.94537E+04  1.86457E+04 -3.31956E+03
  9.95407E+03  1.48889E+04  4.39319E+03  1.76528E+04 -1.45781E+04  1.24729E+04 -2.05750E+04 -3.27355E+03
 -9.19981E+03 -1.76854E+04 -3.18565E+03 -2.46763E+04  8.89226E+03 -1.44773E+04  2.08288E+04 -1.19579E+04
  1.76681E+04 -3.93111E+03  8.49285E+03  5.58431E+03  6.97178E+03 -3.37596E+01  8.65743E+03 -3.79272E+03
  1.70725E+04  4.66644E+03  1.99302E+04  9.83502E+03  1.07694E+04  2.69528E+04 -3.65990E+03  3.63080E+04
 -2.04428E+04  2.47277E+04 -3.28606E+04  7.09755E+03 -2.91885E+04 -5.67478E+00 -3.05545E+04 -2.12396E+04
 -1.29605E+04 -2.34438E+04  5.18864E+03 -2.01124E+04  2.11261E+04 -1.03248E+04  1.84371E+04  7.67612E+03
  7.93913E+03  1.40957E+04 -9.87603E+03  9.49201E+03 -1.78635E+04  4.80103E+03 -1.49996E+04 -1.13361E+04
 -2.87869E+03 -1.15507E+04  4.86020E+03 -1.35246E+04  1.03050E+04  5.97862E+02  4.86802E+03  8.35376E+03
 -8.32348E+03  2.87128E+03 -5.60697E+03 -2.62466E+03  3.22922E+03 -1.62105E+04  1.14591E+04 -1.50176E+04
  1.34564E+04 -1.03189E+04  1.18701E+04  5.08273E+02  1.51394E+04  1.45933E+04  4.32660E+03  1.98753E+04
  8.98460E+02  2.19965E+04 -1.30856E+04  1.44890E+04 -1.47894E+04  2.81497E+03 -1.28025E+04 -3.40374E+03
 -8.37180E+03 -9.79280E+03 -3.34078E+03 -6.41142E+03 -3.63459E+03 -1.00486E+03 -5.41255E+03  2.48531E+03
 -1.01850E+04 -2.31304E+02 -1.23059E+04 -4.57651E+03  2.58801E+03 -1.03159E+04  7.11160E+03 -1.75703E+04
  8.56310E+03 -5.36131E+03  8.86027E+03  3.69848E+03  6.80768E+02  6.82514E+03 -5.47944E+03  8.76282E+02
 -6.54691E+03 -6.73288E+03 -2.92735E+03 -1.56626E+04  6.54084E+03 -1.34037E+04  1.55808E+04 -6.30834E+03
  1.73154E+04  5.37621E+03  1.43819E+04  7.70422E+03  2.84894E+03  9.02545E+03 -1.03688E+04  1.31552E+04
 -5.65024E+03  5.01546E+03 -4.47761E+03 -2.13450E+03 -4.51633E+03 -5.26931E+03  4.70527E+03 -3.30982E+03
  4.21217E+03  7.04475E+03 -1.69812E+03  1.01792E+04 -9.18072E+03  7.38450E+03 -7.01105E+03  4.80936E+03
 -6.17284E+03 -3.70536E+03  3.43230E+02 -7.58473E+03  1.29998E+04 -3.80918E+03  1.08789E+04 -1.21581E+03
  3.42503E+03  6.62391E+03 -6.48802E+03  3.16505E+03 -9.41755E+03  8.36643E+02 -8.27112E+03 -9.03575E+03
  1.73831E+03 -1.13979E+04 -9.05319E+02 -9.25691E+03  8.24684E+03 -8.99600E+03  1.43423E+04 -7.30475E+02
  8.81696E+03  6.53367E+03 -1.19043E+03  1.18255E+04 -1.15454E+04  4.68602E+03 -1.02914E+04 -6.34788E+02
 -5.69536E+03 -7.41881E+03 -1.68862E+03 -1.01567E+04  1.57854E+03 -6.60118E+03  7.07704E+03 -4.76661E+03
  2.03849E+03  2.18678E+03  2.58801E+03  2.97366E+03  3.53570E+03 -1.31460E+03 -8.89605E+02 -2.33764E+03
  4.74252E+03 -1.34654E+03  8.05133E+03  1.38902E+03  1.06040E+04  3.57608E+03  6.43070E+03  1.16367E+04
 -1.70825E+03  1.13894E+04 -8.63049E+03  9.33365E+03 -1.45173E+04  2.69739E+03 -1.42585E+04 -3.61103E+03
 -2.90069E+03 -9.55214E+03  4.32213E+02 -8.97940E+03  3.86233E+02 -2.18836E+03  2.25007E+03 -6.11995E+03
 -2.21615E+03 -5.26862E+03  4.13245E+02 -6.05494E+03  6.54487E+03 -4.37043E+03  7.56538E+03  8.57853E+02
  3.14846E+03  6.46743E+03  4.42026E+03  7.22070E+03  1.32586E+03  3.07674E+03 -9.07334E+03  1.05148E+03
 -1.23891E+04 -1.39472E+02 -5.86482E+03 -4.69609E+03  2.87413E+03 -7.62829E+03  7.96640E+03 -1.26047E+04
  1.25706E+04 -1.19648E+04  1.38963E+04  1.59919E+03  1.22175E+04  3.61744E+03  1.64423E+03  1.19143E+04
 -3.85470E+03  9.74930E+03 -6.53885E+03  1.37261E+03 -2.07511E+03 -2.72185E+03 -4.28287E+03 -2.00845E+03
  2.88997E+03  1.48874E+03 -5.39470E+03  2.99932E+02 -3.77216E+03 -2.10557E+02 -4.41565E+03 -1.00876E+02
 -6.23679E+03 -2.51180E+03  7.90329E+03 -1.03035E+04  4.01683E+03 -4.42430E+03  8.94612E+03 -2.24867E+03
  5.56295E+03  4.38079E+03  5.33532E+03  1.03630E+04 -2.34353E+03  9.11187E+03 -4.72366E+03  3.23687E+03
 -4.15375E+03  1.41091E+03 -7.58487E+03 -7.18956E+03 -9.43324E+02 -6.03880E+03  1.26404E+03 -5.16684E+03
  3.26344E+03 -1.09781E+03  5.61913E+03  2.84245E+03 -1.21862E+03  2.19945E+03  3.85888E+03  2.49835E+03
  3.99030E+03  7.03872E+03  5.69399E+03  1.31523E+03 -1.19659E+03  3.68107E+03  2.42226E+03  3.92745E+02
  9.34987E+02  1.50166E+03 -4.56154E+03  5.46243E+03 -7.43930E+03  5.54078E+03 -2.75180E+03 -5.07004E+02
 -9.28579E+03 -6.51948E+03  5.03337E+03 -4.47391E+03  1.49685E+03 -7.17526E+03  9.38675E+03 -1.63187E+03
  4.49870E+03  2.92077E+03  4.09701E+02  1.65142E+03  1.54407E+03  1.39129E+03 -5.37715E+02 -7.04988E+03
 -2.07317E+03 -2.09211E+03  2.38360E+03 -3.26062E+03  2.90303E+03 -3.72543E+03 -7.69089E+03  5.94612E+03
 -3.96717E+02 -7.68411E+02 -1.99571E+03 -1.83934E+03  3.03159E+03 -8.29669E+02 -2.52223E+03  5.56351E+02
 -4.63932E+03  5.75110E+03  5.07767E+03 -1.17493E+03 -3.01631E+03  5.07665E+03 -2.75480E+03  4.84270E+03
 -3.56333E+03  3.37906E+03 -5.41328E+03  1.63678E+02 -2.16351E+03  5.76637E+01  2.31082E+03 -6.30176E+03
 -3.92170E+02 -3.48655E+03  2.38938E+03  9.82806E+02 -5.84058E+02  2.92709E+03 -1.93434E+03  7.89670E+03
 -1.48730E+03  1.01889E+02 -5.10375E+03  2.45874E+03 -3.32159E+03 -7.70467E+03  1.62892E+03 -7.64860E+03
 -1.43649E+03 -1.95918E+03  5.67920E+02  3.75943E+02 -3.64694E+03  1.54036E+03  6.69037E+03  3.21722E+03
  1.34816E+03  6.80641E+01 -3.83936E+02 -1.84687E+03 -7.01847E+01  1.57850E+03  7.42500E+03 -3.77317E+03
  2.25530E+03 -1.57443E+03  3.64257E+03  1.90616E+03  5.67061E+03  6.79453E+03  1.09546E+03  2.75691E+03
 -1.46947E+03  5.59667E+03 -2.38691E+03  3.90571E+03 -4.04806E+03 -5.21988E+03  4.80347E+03  7.72968E+01
  5.26186E+03 -6.57897E+01  3.79581E+03 -2.25322E+03  3.53982E+02  5.03205E+03 -5.40850E+02  4.85922E+03
 -4.64479E+03 -1.59220E+03  2.08194E+02  3.63964E+03 -7.41270E+02  3.20807E+03 -1.11951E+03  1.04839E+04
 -3.25583E+03 -1.76265E+03 -1.41077E+03 -1.34051E+03 -2.85925E+03 -1.57270E+03  1.09382E+03 -4.63535E+03
 -4.11403E+03 -3.67977E+03 -3.99624E+02 -6.27515E+03  2.47922E+02 -9.18985E+03  8.06361E+03 -2.92637E+03
  4.67178E+03  2.35865E+03  8.97635E+03  4.38453E+03  1.57597E+03  1.82625E+03 -2.17345E+03  6.40140E+02
 -5.30116E+03  1.75243E+03 -2.63653E+03 -3.66579E+03 -1.11851E+03 -4.88345E+03 -3.49770E+03 -3.53876E+02
  1.36064E+03  2.03356E+03 -2.84351E+03  5.25981E+03 -8.71560E+03 -4.29527E+03  5.96846E+02  4.30073E+03
  3.42956E+03  1.48059E+03  2.11263E+03 -1.48827E+03  2.49575E+03  3.77406E+03 -1.78702E+03  4.86429E+03
  9.33676E+02  3.39305E+03 -5.64475E+03  2.73698E+03 -4.93655E+03  3.73589E+02 -5.78964E+02  5.80689E+03
  4.37138E+03 -5.67946E+03  8.61742E+02 -2.44412E+03  3.77409E+03 -2.68558E+03  1.99165E+03 -9.53579E+02
  1.01545E+03  1.43402E+03 -3.65897E+03 -2.46518E+03 -4.36743E+03 -2.44567E+03  4.14118E+03 -6.01261E+02
 -2.05805E+03 -3.88716E+03  2.30276E+03  2.74481E+03 -1.74312E+03  2.42184E+03 -4.62701E+03  1.12430E+02
 -5.42014E+03  1.72592E+03 -3.16694E+03  1.09641E+03 -3.28924E+03 -1.43377E+03 -2.60650E+03 -1.26328E+03
  1.13681E+03 -1.68767E+03  8.82517E+03  3.19169E+03  2.57977E+03 -2.50686E+03  1.65013E+03  6.85379E+03
  4.75475E+02  6.76348E+02 -4.46325E+03  7.77011E+03  1.27530E+03  5.64062E+03  2.33508E+03  8.11768E+02
 -3.21630E+03 -1.37479E+03  6.73907E+02  4.29603E+03 -1.30212E+03 -3.09469E+01  2.75160E+03  3.59503E+03
 -2.59905E+03  2.80637E+03  5.85843E+03 -2.87481E+03  4.41144E+03  6.12571E+02 -1.41932E+03 -1.33705E+03
  1.09471E+02 -2.80971E+03  1.61887E+03  5.68629E+03 -3.54566E+03  1.97939E+03 -1.86873E+03 -2.85686E+03
