 $NMID ID='MM_0lb_SNR50_15hz_g50_13.RAW', FMTDAT='(8E13.5)'
 TRAMP=1., VOLUME=1. $END
  3.16252E+05  1.52132E+03  3.37209E+05  2.46676E+05  8.74467E+04  3.38527E+05 -1.34048E+05  2.50888E+05
 -1.91332E+05  8.35933E+04 -1.11495E+05 -3.13349E+04  1.53861E+02 -4.68153E+04  5.47678E+04  1.88138E+03
  3.38797E+04  5.13244E+04 -1.35460E+04  7.40592E+04 -5.93365E+04  6.07904E+04 -8.51450E+04  3.37841E+04
 -8.28788E+04 -9.74719E+03 -5.52208E+04 -5.27748E+04 -1.34921E+04 -6.68940E+04  2.40605E+04 -4.51272E+04
  3.80251E+04  2.01269E+03  1.82949E+04  4.61791E+04 -3.34255E+04  4.51329E+04 -6.52150E+04  3.30978E+02
 -5.81827E+04 -5.70191E+04 -2.65492E+03 -8.37779E+04  3.99243E+04 -5.27921E+04  4.88786E+04 -1.61299E+04
  3.86062E+04  1.22979E+04  3.82584E+04  1.91254E+04  1.41914E+04  2.86169E+04 -3.35310E+03  2.86086E+04
 -2.44766E+04  1.43740E+04 -1.63867E+04 -1.60530E+03  3.82749E+03 -9.24913E+03  2.14670E+04  1.03636E+04
  1.15134E+04  3.52885E+04 -3.08305E+04  3.52387E+04 -6.26045E+04 -1.57130E+03 -5.81739E+04 -4.21312E+04
 -7.61825E+03 -6.07768E+04  4.32664E+04 -4.62589E+04  5.56608E+04  9.36548E+02  3.32151E+04  3.48869E+04
 -6.95407E+03  3.76476E+04 -3.05541E+04  1.94124E+04 -3.09698E+04 -6.32701E+03 -1.46926E+04 -1.47511E+04
 -8.56502E+03 -9.00784E+03  3.57199E+03 -1.60605E+04  7.02834E+03 -2.31146E+04  1.61004E+04 -1.12346E+04
  1.62913E+04  9.70896E+03 -9.99699E+03  1.39733E+04 -2.27931E+04 -3.33345E+02 -5.20206E+03 -3.22173E+04
  2.23464E+04 -4.45602E+04  4.32981E+04 -2.44738E+04  4.65042E+04  1.78841E+04  1.96041E+04  4.54031E+04
 -1.30104E+04  3.34011E+04 -2.57867E+04  6.86625E+02 -1.07518E+04 -2.58148E+04  2.17839E+04 -2.90739E+04
  3.86327E+04 -7.42549E+03  3.40503E+04  1.87641E+04  1.99800E+04  4.39928E+04 -1.19331E+04  4.71537E+04
 -2.71555E+04  2.89977E+04 -4.38387E+04  8.46299E+03 -3.97705E+04 -1.81852E+04 -2.34546E+04 -3.01381E+04
  8.97433E+03 -3.60469E+04  3.15489E+04 -2.08603E+04  2.99437E+04  1.20501E+04  5.54217E+02  2.57725E+04
 -1.20989E+04  7.89355E+03 -7.54207E+03 -6.90241E+03  6.06995E+03 -1.09757E+04  1.82851E+04  7.34464E+03
  1.46639E+04  2.49567E+04 -7.35668E+03  2.45650E+04 -2.18739E+04  1.40091E+04 -2.45872E+04 -5.83476E+03
 -2.24896E+04 -1.95162E+04 -6.74857E+03 -1.76829E+04  2.12056E+03 -1.89554E+04  1.76021E+04 -1.82376E+04
  2.34816E+04 -1.44306E+04  2.82702E+04  3.22644E+03  2.53972E+04  2.37481E+04  4.55149E+03  3.25412E+04
 -1.37199E+04  2.68410E+04 -2.92012E+04  1.14167E+04 -2.31531E+04 -1.45698E+04 -4.51137E+03 -1.33665E+04
  5.02244E+03 -4.18420E+03 -6.43500E+03  1.07019E+04 -1.41307E+04  2.58613E+03 -1.52030E+04 -7.07800E+03
 -1.16906E+04 -1.73738E+04  5.17010E+03 -2.28708E+04  1.48259E+04 -1.75530E+04  1.18447E+04 -1.68291E+03
  1.20352E+04  1.33872E+04 -4.98073E+03  2.14495E+04 -1.11908E+04  2.86472E+03 -1.71480E+04 -1.02299E+04
 -9.86762E+03 -1.74237E+04 -3.42404E+03 -2.29991E+04  6.89753E+03 -1.35884E+04  2.00830E+04 -1.16467E+04
  1.86118E+04  1.25385E+03  1.15795E+04  1.12011E+04  9.86443E+03  3.84154E+02  6.32426E+03  2.04594E+03
  1.63199E+04  3.83269E+03  2.30113E+04  1.05514E+04  1.33376E+04  3.13890E+04 -2.07135E+03  3.46433E+04
 -2.10676E+04  2.18184E+04 -3.14936E+04  1.08409E+04 -3.56216E+04  4.81356E+02 -2.38038E+04 -1.79608E+04
 -1.04012E+04 -2.63602E+04  7.22658E+03 -2.40124E+04  1.94265E+04 -1.19048E+04  1.93801E+04  5.18888E+03
  7.06058E+03  9.83626E+03 -8.82473E+03  1.40632E+04 -1.17276E+04  7.61405E+03 -1.22046E+04 -1.10074E+04
  8.56173E+02 -1.55211E+04  1.08957E+04 -8.56600E+03  9.51072E+03 -5.69199E+03  6.82981E+03  5.65855E+03
 -1.07462E+04  6.52905E+03 -8.23318E+03 -8.04359E+03 -2.90257E+03 -1.31242E+04  9.13794E+03 -1.06121E+04
  1.40031E+04 -9.61518E+03  2.05790E+04  3.74942E+03  1.62289E+04  1.38197E+04  5.67474E+03  1.75173E+04
 -5.90569E+03  1.87299E+04 -1.14347E+04  1.59744E+04 -1.49546E+04  1.22540E+02 -1.52879E+04  4.56376E+03
 -4.65813E+03 -2.64367E+02  9.66479E+02  6.70357E+03  1.87591E+02  4.25660E+03 -5.81456E+03  6.60020E+03
 -1.16946E+04 -1.27514E+03 -8.17269E+03 -9.16603E+03 -4.11867E+03 -1.42285E+04  1.15617E+04 -8.03874E+03
  9.37300E+03 -4.22124E+03  4.15984E+03 -2.47910E+03  3.25661E+03  1.85225E+03 -4.91931E+03 -1.35411E+03
 -5.31827E+03 -4.30660E+03  7.82220E+02 -1.09256E+04  6.48070E+03 -7.61439E+03  1.55033E+04 -9.63654E+03
  1.48480E+04  3.94364E+03  1.55115E+04  1.09825E+04  1.63878E+02  1.06393E+04 -2.90822E+03  9.02424E+03
 -8.38735E+03  5.92447E+03 -7.07259E+03  9.00157E+00  3.16967E+03 -2.76585E+03  2.25448E+03 -1.23120E+03
  3.88169E+03  5.68611E+03  1.71031E+03  7.63534E+03 -1.31702E+04  8.58753E+03 -1.36857E+04  2.69672E+03
 -5.65868E+03 -5.10066E+03  3.43865E+03 -7.85037E+03  1.12917E+03 -2.15642E+03  2.14483E+03  8.84059E+02
 -1.41173E+03  5.21240E+03 -9.25211E+03  8.29275E+03 -8.69871E+03  7.07122E+03 -7.27226E+03 -4.63259E+03
 -7.40720E+03 -8.48945E+03  2.98857E+03 -7.10472E+03  5.37995E+03 -6.61506E+03  1.00910E+04  8.49659E+02
  8.60916E+03  5.32413E+03  1.20983E+03  1.04356E+04 -8.62327E+03  1.15003E+03 -4.56328E+03 -1.12719E+03
 -5.49539E+03 -4.64530E+03 -3.16829E+03 -1.06224E+04  5.19376E+03 -7.71789E+03  7.28722E+03 -2.29017E+03
  2.22715E+03 -3.21546E+03  1.32148E+03 -1.12749E+03  1.79711E+03 -5.45443E+01  5.25518E+03 -7.26778E+03
  1.18843E+04 -2.84088E+03  5.80413E+03 -2.12717E+03  8.02090E+03  4.90766E+03  7.38078E+03  1.20882E+04
 -2.59850E+03  1.14121E+04 -8.31912E+03  1.50119E+04 -1.13891E+04  5.66810E+03 -8.94157E+03 -5.08238E+03
 -5.69561E+03 -8.25939E+03 -7.30713E+02 -9.86351E+03  1.96972E+03 -3.45899E+03  1.50867E+03 -7.27899E+03
  1.07508E+03 -5.50933E+02  5.07632E+03 -4.92824E+03  3.73928E+03  2.55926E+03  9.75072E+03 -2.33378E+03
  5.42219E+03  5.92341E+02  5.85056E+03  2.25000E+03 -3.73899E+03  6.78516E+03 -7.30376E+03  9.42624E+02
 -1.01991E+04 -9.66413E+02 -7.67824E+03 -6.38563E+03  3.70878E+03 -1.73703E+03  4.55674E+03 -5.63222E+03
  9.39583E+03 -5.34285E+03  1.36442E+04 -1.10259E+03  8.71561E+03  6.23659E+03  7.77331E+03  7.02744E+03
 -5.23232E+03  8.61869E+03 -4.47247E+03  6.12977E+03 -1.40528E+03 -9.23764E+02 -3.59740E+03 -5.66954E+03
 -2.65603E+03  1.35252E+02 -7.71839E+01  5.16476E+03 -7.04988E+03 -1.18620E+03 -6.65928E+03  2.83404E+02
 -4.56521E+03 -1.50693E+03  2.51821E+03 -7.66379E+03  4.88752E+03 -1.01405E+04  7.99726E+03 -1.72007E+03
  9.84890E+03 -3.83838E+03  5.59688E+03  6.42287E+03 -3.69624E+03  7.50146E+03 -5.15044E+03  4.43547E+03
 -2.90484E+03  4.93253E+03 -4.11676E+03 -5.53456E+03 -1.42969E+03 -3.47623E+03  4.73289E+03 -4.86486E+03
  4.30017E+03  1.76354E+03  2.48384E+03  1.85261E+03  5.35632E+03  1.84526E+02 -4.18094E+03 -3.09694E+03
  2.92707E+02  7.00627E+02  1.92810E+03  6.10870E+03 -8.42521E+02 -1.82342E+02 -9.02855E+02  5.69381E+03
  1.96221E+03  8.02027E+03 -6.48649E+02  9.84745E+03 -1.11448E+04  2.92063E+03 -4.26053E+03 -2.16242E+03
 -1.83095E+03 -1.05832E+04  3.94288E+03 -7.31396E+03  3.38063E+03 -7.34664E+03  5.68156E+03  1.00143E+03
  4.29737E+03 -1.11619E+02 -1.55949E+03  7.28141E+03 -1.36107E+03  6.86163E+03 -9.84737E+02  2.49044E+03
 -2.71242E+03  5.87059E+02  3.20086E+03 -2.03707E+03  4.70843E+03 -1.20639E+03  6.85481E+03 -5.62993E+02
  2.09047E+03  5.95185E+03  6.04327E+01 -7.29940E+02 -3.61936E+01  2.48702E+03  1.20734E+03  5.83639E+02
 -1.00018E+03 -2.17663E+03  1.10227E+03  1.32147E+03  4.61370E+02  7.93178E+03 -1.36124E+03  1.99489E+03
  3.64295E+03 -4.48589E+02 -5.66278E+03  3.60880E+03 -3.15187E+03  1.32166E+03 -7.69453E+02 -5.25377E+03
 -5.51509E+02 -5.10622E+03  4.95807E+03  1.07151E+03 -5.21789E+03  9.15580E+02  8.52491E+01 -3.37548E+03
 -6.52569E+03  6.92454E+03 -5.47565E+03  3.50388E+03 -3.84479E+03 -1.42468E+03  1.16351E+03 -1.53885E+03
  3.73814E+03 -6.39585E+03  4.75348E+03 -3.94009E+03 -6.07534E+02  2.28116E+03  3.11623E+03  2.58738E+03
 -1.63002E+02 -8.43741E+02  3.16056E+03 -1.22350E+03  4.44643E+03 -1.34775E+03  2.87730E+03 -4.35858E+03
  3.35127E+03  1.77103E+03  4.38861E+03  2.91462E+03  3.88942E+03  1.43176E+03  1.60909E+03  3.84083E+03
  3.23892E+02  5.59471E+03 -4.07011E+02  6.81733E+02 -1.03006E+03 -2.48558E+03 -3.44749E+03 -1.20992E+03
  1.76510E+03 -2.95981E+03  5.14262E+03  4.09072E+03 -3.28171E+02  1.77957E+03  4.38597E+02  2.69855E+03
 -1.83809E+03 -1.47243E+03 -2.69572E+03 -2.05266E+03 -3.67526E+02 -1.59049E+03 -5.21084E+03 -2.51676E+03
 -1.48743E+03  6.37465E+03 -9.51331E+02 -1.26892E+03 -6.67168E+03 -5.17764E+03 -7.80497E+03 -7.30496E+02
 -5.88089E+03 -4.92272E+03 -2.43270E+02 -8.97981E+03  2.60016E+03 -6.85818E+03  7.97313E+03 -3.23825E+02
  4.18867E+03  4.83138E+03  2.87713E+03  6.39449E+03 -3.27543E+03  1.46345E+03 -5.84922E+03  7.60015E+03
 -3.44090E+03 -6.43204E+01 -5.70891E+02 -2.87179E+03 -1.07151E+02 -7.18472E+02 -2.78238E+02 -4.76718E+02
 -6.79769E+02  4.62652E+03  2.11668E+03  3.96906E+03  1.31407E+03 -2.65443E+03  7.18435E+02 -6.30151E+01
  4.36959E+03 -1.00159E+03  4.22220E+03 -4.10581E+02  1.96449E+03  3.80871E+03  3.16894E+03  3.19699E+03
  3.20643E+02  7.15021E+03 -3.66682E+03  1.14550E+03  2.99142E+02  4.65855E+03 -3.59755E+03  8.38251E+02
  1.08946E+03 -4.61921E+03  4.71328E+03 -3.43032E+03  6.35141E+03 -2.20616E+03 -4.06100E+02  2.51989E+03
 -4.90952E+02  1.34223E+03 -1.97546E+03 -1.71589E+03 -3.22558E+03 -5.13180E+02  4.08988E+03  1.46631E+03
  6.13776E+03 -2.99347E+03  1.70151E+03  2.10472E+03  3.65606E+03  6.22509E+03 -1.83867E+03  1.84805E+03
 -7.49511E+03 -1.25046E+03 -2.25511E+02 -2.07876E+03 -2.68342E+03  1.34761E+03  7.79070E+02  5.19814E+02
  1.86899E+03  2.29864E+03  4.57184E+02  8.74121E+02  3.19052E+03 -1.71719E+03  2.96744E+03  1.04043E+03
 -3.94273E+02 -1.01158E+03  3.99071E+01 -1.54947E+01 -1.36163E+03  1.75294E+03  3.01176E+03  5.26770E+03
 -2.90077E+03 -6.14444E+01  2.42209E+01 -1.19828E+03  2.13018E+03  1.32227E+03 -9.63104E+03 -1.46989E+03
 -1.88547E+03 -1.60189E+03 -1.27497E+03 -5.86019E+02  8.88213E+02 -3.26070E+03  3.64310E+03  4.00304E+02
  5.03652E+02  9.76922E+02 -4.05284E+02 -1.75672E+03  2.20477E+03  1.97698E+03  6.53030E+02 -2.30348E+03
