 $NMID ID='MM_0lb_SNR50_9hz_g50_11.RAW', FMTDAT='(8E13.5)'
 TRAMP=1., VOLUME=1. $END
  3.07895E+05  2.96224E+03  3.37137E+05  2.52538E+05  8.47646E+04  3.38690E+05 -1.39529E+05  2.50988E+05
 -1.84903E+05  8.52511E+04 -1.04790E+05 -3.22067E+04 -4.38754E+02 -5.08880E+04  5.51260E+04  3.92334E+03
  3.51451E+04  6.29455E+04 -2.05004E+04  7.80368E+04 -6.41723E+04  5.84375E+04 -8.17897E+04  3.18039E+04
 -8.05744E+04 -1.16386E+04 -5.86615E+04 -5.45605E+04 -1.72578E+04 -7.30104E+04  2.16535E+04 -4.70279E+04
  4.41876E+04  4.50451E+03  1.61913E+04  5.12553E+04 -3.60158E+04  4.99245E+04 -6.89039E+04 -2.25827E+03
 -5.52981E+04 -6.38537E+04 -3.68052E+03 -7.40167E+04  3.49698E+04 -5.34455E+04  5.38097E+04 -1.51956E+04
  3.88234E+04  1.40679E+04  3.42208E+04  2.45624E+04  1.61557E+04  2.67104E+04 -9.43288E+03  3.01506E+04
 -2.40891E+04  3.03706E+03 -1.97421E+04 -2.64337E+03  6.49940E+03 -8.60021E+03  2.30992E+04  1.80939E+04
  9.13410E+03  3.29019E+04 -3.13866E+04  4.39319E+04 -6.62048E+04 -1.00887E+03 -6.05400E+04 -4.54589E+04
 -1.88442E+04 -6.00927E+04  4.66913E+04 -5.00780E+04  5.77121E+04 -6.62201E+03  3.43529E+04  3.34697E+04
 -5.92516E+03  3.51448E+04 -3.20355E+04  1.65387E+04 -3.60316E+04 -6.84849E+03 -2.38483E+04 -1.10608E+04
 -8.10957E+03 -1.64330E+04 -2.27847E+03 -1.71667E+04  1.34445E+04 -2.44161E+04  1.51904E+04 -1.27255E+04
  7.71752E+03  5.63188E+03 -1.08557E+04  1.22726E+04 -1.55362E+04 -7.47080E+03 -1.19000E+04 -3.47589E+04
  2.46729E+04 -4.33199E+04  5.26523E+04 -2.35233E+04  4.01623E+04  1.84026E+04  1.64323E+04  4.61943E+04
 -1.91467E+04  4.26295E+04 -2.40421E+04  2.39173E+03 -6.23539E+03 -2.69804E+04  2.36533E+04 -3.97923E+04
  4.04626E+04 -6.19297E+03  4.58356E+04  2.36282E+04  2.38702E+04  4.63671E+04 -9.77089E+03  5.63382E+04
 -3.77071E+04  3.74233E+04 -4.29535E+04  1.03492E+04 -4.67768E+04 -2.00046E+04 -2.76830E+04 -4.79688E+04
  2.39926E+03 -4.04567E+04  3.90992E+04 -1.83360E+04  2.78192E+04  9.43579E+03  1.37620E+03  2.24799E+04
 -1.41214E+04  1.82217E+04 -1.35497E+04 -4.66100E+03  3.35678E+03 -1.09990E+04  2.15094E+04 -1.75581E+02
  1.74703E+04  2.21722E+04 -7.38448E+03  2.67168E+04 -2.56057E+04  1.09492E+04 -2.91330E+04 -2.06390E+03
 -2.57524E+04 -2.21355E+04 -7.70154E+03 -2.25246E+04  9.52801E+03 -2.36289E+04  1.41567E+04 -2.27394E+04
  2.92226E+04 -1.80742E+04  3.87103E+04  9.50357E+03  2.37346E+04  2.13555E+04  4.90393E+03  4.16096E+04
 -2.00332E+04  3.18646E+04 -3.14726E+04  9.43250E+03 -2.60977E+04 -8.60533E+03 -6.71593E+03 -1.26640E+04
 -3.01674E+03 -2.36942E+02 -3.98756E+03  1.52288E+04 -2.30052E+04  2.04236E+03 -2.20929E+04 -1.15063E+04
 -1.34974E+04 -1.78232E+04  1.04138E+04 -2.78962E+04  2.08479E+04 -2.35236E+04  2.82190E+04  2.02064E+03
  1.94384E+04  1.08573E+04  5.36594E+03  2.23246E+04 -1.78372E+04  1.59761E+04 -2.27508E+04 -6.86059E+03
 -1.69438E+04 -2.07007E+04  2.48554E+03 -2.86617E+04  1.66200E+04 -2.04153E+04  2.54557E+04 -7.48505E+03
  2.44579E+04 -5.00084E+03  2.05270E+04  5.03413E+03  7.22069E+03  3.90821E+03  1.90585E+04 -5.90505E+03
  2.79831E+04 -5.84739E+03  2.09851E+04  1.99033E+04  1.43443E+04  3.26238E+04  2.50994E+03  4.55036E+04
 -3.10566E+04  3.45055E+04 -4.54290E+04  2.27272E+04 -4.07983E+04 -3.52102E+03 -3.70686E+04 -2.98269E+04
 -1.97250E+04 -3.85612E+04  1.83427E+04 -3.22915E+04  2.78012E+04 -1.22538E+04  2.58533E+04  8.04744E+03
  4.49070E+03  1.79286E+04 -7.51023E+03  1.43551E+04 -2.11752E+04  3.94525E+03 -1.96654E+04 -1.32790E+04
  8.39760E+02 -2.14010E+04  1.28689E+04 -1.27786E+04  8.86973E+03  6.28609E+01 -1.99585E+03  1.00294E+04
 -8.87131E+03  6.92509E+03 -3.80724E+03  1.06980E+03 -5.58062E+02 -1.67111E+04  1.35516E+04 -1.96279E+04
  2.17895E+04 -1.47417E+04  2.63752E+04  1.41841E+03  2.49023E+04  2.14205E+04  1.54135E+04  2.46163E+04
 -3.69983E+03  2.90758E+04 -1.94628E+04  2.50573E+04 -2.41705E+04  3.06490E+02 -1.15192E+04 -7.56985E+03
 -2.94787E+03 -1.25634E+04 -4.99245E+03 -8.77415E+02  5.94096E+03  1.12057E+03 -8.96993E+03  4.74279E+03
 -1.66480E+04 -2.60535E+03 -1.61571E+04 -6.40440E+03 -6.05277E+03 -1.65396E+04  1.10105E+04 -1.29442E+04
  1.71676E+04 -3.02640E+03  5.12665E+03  4.89435E+03 -3.36950E+03  1.09017E+04 -1.01283E+04 -2.81724E+03
 -2.37453E+03 -9.53806E+03  5.52395E+03 -1.33515E+04  5.34524E+03 -1.76735E+04  2.46482E+04 -1.12050E+04
  2.55788E+04  3.98231E+02  1.12638E+04  2.09162E+04  3.47531E+03  2.27654E+04 -7.60195E+03  1.26481E+04
 -1.33472E+04  4.23146E+03 -1.02279E+04 -7.68872E+03  4.47132E+03 -3.25078E+03  2.02191E+03 -5.99567E+02
  5.75846E+02  9.65762E+03 -3.70937E+03  2.12349E+04 -1.02965E+04  2.11458E+04 -2.14986E+04 -2.27338E+03
 -1.40850E+04 -1.38347E+04  6.62258E+03 -1.10126E+04  9.09014E+03 -1.63648E+04  9.70596E+03  1.25688E+03
  4.17084E+03  8.79646E+03 -8.49428E+03  9.32556E+03 -8.33650E+03  6.47304E+03 -1.85079E+04  1.61892E+03
 -1.70675E+03 -1.86175E+04  9.10693E+03 -1.60195E+04  2.05749E+04 -1.60906E+04  2.02378E+04  2.10525E+03
  1.48583E+04  1.57334E+04 -7.21059E+03  1.99124E+04 -1.05083E+04  1.12439E+04 -1.26306E+04  3.75384E+02
 -1.29701E+04 -1.63192E+04  2.20152E+03 -1.48201E+04  9.46499E+03 -8.62562E+03  7.94636E+03 -3.39934E+03
  1.25104E+04  5.70956E+03 -6.18149E+01  4.49199E+03 -3.88046E+03 -4.22691E+03  5.36564E+03 -5.00417E+03
  1.29304E+04 -6.46482E+03  1.73522E+04  5.05213E+02  1.24401E+04  5.60425E+03  1.01070E+04  2.12888E+04
 -3.04285E+03  2.29900E+04 -1.65582E+04  1.84421E+04 -2.18274E+04  3.73622E+02 -1.65355E+04 -8.81856E+03
 -1.71146E+04 -1.65735E+04 -1.93643E+03 -1.32947E+04  8.46131E+03 -9.08376E+03  8.18496E+03 -5.41775E+03
  8.14885E+03 -4.00177E+03  1.62839E+03 -1.01784E+04 -8.58311E+02 -4.60916E+03  8.63254E+03 -1.98578E+03
  1.60152E+04 -6.85751E+02  9.62542E+03  7.70432E+03  3.87372E+02  1.37783E+04 -1.42451E+04  5.71100E+03
 -1.16310E+04 -5.84446E+03 -7.76165E+03 -7.58955E+03 -9.04279E+03 -1.89461E+04  8.42008E+03 -1.59993E+04
  2.12634E+04 -6.86391E+03  1.08352E+04  5.30584E+02  1.42784E+04  1.12564E+04  1.87807E+03  1.55839E+04
 -9.92122E+03  1.05108E+04 -8.65190E+03  7.36508E+03 -6.64353E+03 -5.85704E+03 -8.75860E+03 -1.66651E+02
 -3.43234E+03 -4.49886E+03 -2.53981E+03 -4.07584E+01 -4.82581E+03 -3.83843E+03 -1.45467E+04  5.44067E+02
 -6.17732E+03 -9.50060E+03 -2.71640E+03 -1.74949E+04  9.92907E+03 -1.34348E+04  1.35834E+04  8.40228E+02
  1.74744E+04  7.07307E+03 -1.74379E+03  1.21613E+04  7.54866E+03  1.10456E+04 -1.21857E+04  1.09612E+04
 -1.60689E+04 -2.13538E+03 -6.47983E+03 -1.09276E+04 -4.49159E+03 -1.19316E+04  1.02160E+04 -1.36327E+04
  3.60359E+03 -6.46596E+02  4.12057E+03 -2.14727E+03  3.42313E+03  2.49395E+03  4.85341E+03  1.72037E+03
  4.67292E+03 -1.02497E+03  1.00032E+04  9.56550E+02  7.40809E+03  5.53771E+03  2.73313E+03  1.42355E+04
 -1.78224E+03  1.16278E+04 -1.59760E+04  1.66793E+04 -1.07007E+04  4.27217E+03 -1.19017E+04 -3.97883E+03
 -2.49536E+03 -1.71329E+04 -1.59935E+03 -1.52365E+04  8.98194E+03 -1.29813E+04  1.15944E+04 -3.24541E+02
  7.91046E+03  8.72028E+03  1.74764E+03  8.59978E+02 -1.70379E+03  5.26458E+03 -8.16792E+02 -3.85878E+03
 -3.89023E+03 -5.19241E+03  2.31141E+03 -7.15652E+03  6.76919E+03  4.45459E+03  1.27032E+03 -7.22129E+02
  5.36387E+03  4.88644E+03  1.97497E+03  2.23656E+03  2.38043E+03  4.22882E+03 -3.35254E+03 -1.31831E+03
  2.92908E+03  4.21233E+03  2.04508E+03  1.76348E+03 -4.79147E+02  5.00116E+03  2.17966E+03  9.91356E+03
 -3.54940E+03  7.95342E+03 -3.99093E+03  1.73051E+03 -1.43127E+04 -4.97223E+03 -5.01174E+03 -6.03892E+02
  4.66959E+03 -1.85967E+03  5.80860E+03 -3.09238E+03  1.78959E+02  4.39782E+03 -1.15347E+03  7.33015E+03
 -6.44701E+03  4.43351E+03 -1.12390E+04 -6.49720E+03 -1.84807E+03 -8.06161E+03  2.23984E+03 -7.60111E+03
  6.23208E+03 -1.07619E+04  1.19651E+04  7.36639E+02  2.38331E+03  2.82922E+03 -4.38118E+03  3.67120E+03
 -5.07180E+03  2.92026E+03 -9.84985E+02 -3.97406E+03 -7.44980E+02 -9.71571E+03  1.15044E+04 -5.04332E+03
  6.58331E+03  5.15869E+03  9.41750E+03  4.59382E+03  3.93183E+03  8.48383E+03 -4.04971E+03  1.32929E+04
 -9.19643E+03  1.07039E+03 -8.17579E+03 -4.95737E+03 -6.84742E+03 -7.62745E+03 -3.52507E+03 -7.85844E+03
  1.03593E+04 -2.74336E+03  3.18943E+03 -5.06047E+02  3.46142E+03  4.26649E+03  3.89696E+03  5.88927E+03
 -1.31371E+03  6.63625E+03 -9.73625E+03 -1.59816E+03 -1.88399E+03 -1.01510E+03 -6.37563E+02  1.24232E+03
  4.39497E+03  1.83052E+03 -1.39414E+04  6.53940E+03 -1.64779E+04  4.22193E+03 -1.44448E+04 -3.73627E+03
 -2.46818E+03 -1.51558E+04  5.12452E+03 -1.21908E+04  1.02430E+04 -1.43902E+04  1.55298E+04 -2.51961E+03
  1.98813E+04  1.01262E+03  1.08012E+04  6.70242E+03  4.22003E+03  9.16535E+03 -8.31142E+03  1.13170E+04
 -8.38847E+03  8.63045E+02 -3.14639E+03 -1.89972E+03 -4.28607E+03  3.00840E+03  6.56668E+02  4.06024E+03
 -8.88210E+03  2.22270E+03  2.70191E+02 -1.16590E+03 -5.69999E+02 -3.31281E+03  4.45458E+03 -1.72494E+03
  9.63423E+03 -2.88022E+03  9.93747E+03 -3.88818E+02  5.08730E+03  1.51732E+04  4.01139E+02  7.42832E+03
 -6.70942E+03  9.19664E+03 -1.16764E+04  1.21854E+04 -1.27769E+04  9.14027E+02 -1.24704E+04 -9.55877E+03
 -9.37092E+02 -7.31429E+03 -3.01864E+03 -5.87210E+03  8.60801E+03 -4.91927E+03  7.42016E+03  6.15696E+03
  3.33747E+03  3.08772E+03  7.61791E+03  6.89140E+02 -1.00917E+03  9.03267E+03 -4.83862E+03 -7.70552E+03
  4.07759E+03 -3.53607E+03  6.16318E+03 -2.58281E+03  1.62347E+03  7.07763E+03  9.21268E+02  2.42939E+03
 -7.23272E+03  4.53609E+03 -9.74022E+03 -3.12271E+03 -2.71721E+03 -3.19687E+03 -6.44548E+03 -1.05920E+04
  7.55040E+03 -7.64726E+03  1.44797E+04 -5.00597E+03  1.65413E+04 -1.32696E+03  3.98322E+03  8.80261E+03
 -1.56239E+03  1.51372E+04  1.28799E+03  7.79305E+03 -1.76189E+03  6.65671E+03 -8.52659E+03  4.66607E+02
  9.50478E+02 -1.34293E+03  1.04124E+03 -1.05447E+02 -9.39066E+03  2.28142E+01 -4.51635E+03 -4.15114E+03
 -2.78394E+03 -6.21771E+02 -5.71351E+01 -8.95534E+03  6.89451E+03 -1.23197E+04  7.29422E+03 -8.11529E+03
  5.71525E+03  5.02554E+03  5.55884E+03  5.03492E+03 -4.52783E+03  4.52790E+03 -4.37283E+03  4.53031E+03
