 $NMID ID='MM_0lb_SNR50_9hz_g55_23.RAW', FMTDAT='(8E13.5)'
 TRAMP=1., VOLUME=1. $END
  3.06741E+05  4.44754E+03  3.42142E+05  2.52918E+05  8.18397E+04  3.35970E+05 -1.33064E+05  2.51463E+05
 -1.91406E+05  8.13512E+04 -1.07563E+05 -3.41200E+04  1.91485E+03 -5.02790E+04  5.59790E+04  3.44742E+03
  3.19374E+04  5.93267E+04 -1.93134E+04  7.57718E+04 -6.43691E+04  6.31032E+04 -8.62400E+04  3.24132E+04
 -8.16897E+04 -1.21348E+04 -5.84836E+04 -5.05147E+04 -1.50342E+04 -7.72441E+04  2.83184E+04 -4.81417E+04
  4.49708E+04  3.71643E+03  1.51632E+04  4.24643E+04 -3.71620E+04  4.77972E+04 -7.37141E+04 -5.01824E+02
 -5.09510E+04 -5.71411E+04 -1.32554E+04 -8.58578E+04  3.70827E+04 -6.03254E+04  4.87009E+04 -1.68780E+04
  4.65759E+04  1.23798E+04  3.33500E+04  2.79353E+04  1.62181E+04  2.40795E+04 -9.61232E+03  2.76505E+04
 -2.48596E+04  7.65847E+03 -1.41325E+04 -7.17153E+03  7.17582E+03 -4.55214E+03  2.81325E+04  1.26867E+04
  7.50516E+03  3.79782E+04 -3.17996E+04  4.06717E+04 -6.66543E+04  1.10607E+04 -5.82690E+04 -5.10237E+04
 -8.45137E+03 -6.30295E+04  3.60919E+04 -4.26418E+04  5.98339E+04 -6.11893E+03  3.61857E+04  3.41182E+04
 -1.17883E+04  4.40050E+04 -3.50613E+04  1.68119E+04 -3.44811E+04 -3.64416E+03 -1.94877E+04 -1.21201E+04
 -9.03711E+03 -1.70825E+04  6.87525E+02 -2.67129E+04  1.59196E+04 -2.20320E+04  1.75025E+04 -8.97662E+03
  8.47965E+03  3.17750E+03 -1.49117E+04  1.50395E+04 -1.59445E+04 -2.49683E+03 -9.59812E+03 -3.77083E+04
  2.76806E+04 -4.91535E+04  4.67221E+04 -2.14540E+04  4.57864E+04  1.87047E+04  1.52455E+04  4.98324E+04
 -1.39502E+04  3.77698E+04 -2.27461E+04 -2.88768E+03 -1.06486E+04 -2.99859E+04  1.80505E+04 -3.52243E+04
  5.93498E+04 -4.92052E+03  3.67412E+04  2.38258E+04  2.16437E+04  4.96908E+04 -5.62081E+03  5.34902E+04
 -3.35019E+04  3.84693E+04 -4.82643E+04  1.07381E+04 -4.55120E+04 -2.10567E+04 -3.06833E+04 -4.43241E+04
  3.71554E+03 -4.46089E+04  2.91856E+04 -1.39808E+04  3.39509E+04  5.69291E+03  7.39736E+03  1.87743E+04
 -1.60610E+04  1.24542E+04 -8.96142E+03 -1.49444E+04  1.06264E+04 -1.07835E+04  1.61680E+04  5.58119E+03
  7.09971E+03  2.20192E+04 -3.61531E+03  2.87234E+04 -2.73153E+04  1.17451E+04 -3.55316E+04  6.19021E+02
 -2.70988E+04 -2.03451E+04 -1.09424E+04 -3.02060E+04  6.03673E+03 -3.17915E+04  2.24394E+04 -2.83739E+04
  3.68895E+04 -8.20512E+03  3.58373E+04  7.20493E+03  2.81977E+04  2.78428E+04  6.97826E+03  3.98594E+04
 -1.69823E+04  4.11247E+04 -3.15946E+04  8.17790E+03 -1.94064E+04 -1.44661E+04 -1.01591E+04 -1.04710E+04
  2.10861E+03 -1.36178E+02 -3.90087E+03  4.55007E+03 -2.12348E+04  5.59222E+02 -1.95228E+04 -1.16138E+04
 -1.67199E+03 -3.07442E+04  1.69653E+03 -2.77807E+04  1.93330E+04 -2.54963E+04  2.83006E+04 -1.56710E+02
  1.75807E+04  1.19935E+04 -1.51237E+03  2.35035E+04 -2.16793E+04  1.21428E+04 -1.87479E+04 -2.32973E+03
 -2.35866E+04 -2.07449E+04 -1.82072E+03 -3.26573E+04  1.28587E+04 -2.29865E+04  1.99571E+04 -1.89283E+04
  2.08994E+04 -3.61627E+02  2.19892E+04  5.50765E+03  3.74021E+03 -2.96854E+03  1.38024E+04 -2.43176E+03
  2.05793E+04  3.35080E+03  2.90939E+04  2.18837E+04  1.49174E+04  4.08226E+04 -8.13492E+02  4.57042E+04
 -2.28505E+04  3.32403E+04 -4.02706E+04  1.43291E+04 -3.86228E+04 -5.49058E+03 -3.71814E+04 -2.33891E+04
 -1.49248E+04 -3.68106E+04  8.68335E+03 -3.08993E+04  2.74954E+04 -1.42881E+04  1.97047E+04  2.44059E+03
  1.40178E+04  2.20681E+04 -5.14165E+03  1.64471E+04 -1.94603E+04  4.59398E+03 -1.58277E+04 -1.50824E+04
 -5.20029E+02 -1.79745E+04  4.92387E+03 -2.14140E+04  1.54650E+04 -5.81987E+03  3.34041E+03  7.25474E+03
 -1.44330E+04  7.35638E+03 -1.19757E+04 -4.95267E+03  2.05806E+03 -1.98061E+04  1.20017E+04 -2.00232E+04
  2.49953E+04 -8.05635E+03  3.28478E+04  1.76195E+03  2.00214E+04  1.62454E+04  1.11292E+04  3.12245E+04
 -8.93535E+02  2.70604E+04 -1.49304E+04  1.80286E+04 -2.70236E+04  9.63528E+03 -1.52823E+04 -7.03832E+03
 -8.22071E+03 -4.58414E+03  1.72358E+03  3.06081E+03 -1.94633E+03  1.91110E+03 -6.11098E+03  1.05806E+04
 -1.04761E+04 -1.56798E+02 -1.85794E+04 -1.43742E+04 -9.71619E+03 -1.62558E+04  1.04769E+04 -2.53156E+04
  1.60948E+04 -6.55724E+03  8.17236E+03  7.38080E+03 -4.61611E+03  1.29201E+04 -1.13405E+04 -6.87432E+02
 -7.92495E+03 -5.63701E+03 -5.54868E+03 -1.92976E+04  1.13862E+04 -1.14303E+04  1.49750E+04 -9.98051E+03
  2.01806E+04  5.21988E+03  1.38265E+04  1.24455E+04  1.51953E+03  1.43610E+04 -7.75721E+03  1.45482E+04
 -1.61524E+04 -4.88857E+03 -6.96469E+03 -2.73640E+03 -8.64639E+02 -7.36229E+03  7.82852E+03 -2.73151E+03
  6.43976E+03  4.48393E+03 -2.94630E+03  1.10602E+04 -1.19319E+04  1.42540E+04 -2.10551E+04  2.20531E+03
 -1.22199E+04 -1.22148E+04 -2.93205E+03 -1.11688E+04  8.51358E+03 -6.79892E+03  1.07075E+04  5.31472E+03
  9.96669E+03  1.26075E+04 -1.13006E+04  1.25667E+04 -8.91542E+03  1.46255E+04 -1.38260E+04 -5.53445E+03
 -9.37476E+03 -1.72772E+04  3.24835E+03 -2.19669E+04  1.07176E+04 -1.05181E+04  1.78138E+04  4.97713E+03
  1.11472E+04  1.80953E+04 -4.63406E+03  1.68269E+04 -1.31724E+04  7.42630E+03 -1.28171E+04 -2.92827E+03
 -1.07458E+04 -1.56746E+04 -5.56090E+03 -1.64475E+04  3.57393E+03 -6.95976E+03  1.07188E+04 -2.10261E+03
  3.02940E+02  3.24249E+03  1.80769E+03 -6.04305E+03  3.41628E+03 -3.91403E+03  7.15982E+03 -4.41998E+03
  1.22437E+04 -2.08245E+03  2.07280E+04  2.69585E+03  2.12984E+04  1.42721E+04  1.06985E+04  2.24085E+04
 -4.88442E+03  2.16521E+04 -2.08032E+04  1.74546E+04 -3.25538E+04  1.22098E+03 -2.66207E+04 -1.12800E+04
 -9.87667E+03 -2.07567E+04 -1.05591E+03 -1.68260E+04  2.09911E+03 -1.24175E+04  2.81412E+03 -7.08543E+03
  5.69222E+03 -5.10373E+03 -2.11599E+03 -4.97092E+03  2.51546E+03 -1.31023E+03  1.34409E+03  6.43590E+02
  9.11755E+03 -2.83785E+03  7.26690E+03  9.37682E+03 -1.52256E+03  3.80920E+03 -1.07592E+04  9.70148E+03
 -8.34891E+03 -1.52258E+03 -7.65783E+03 -1.34214E+04 -2.11592E+03 -2.43208E+04  1.38945E+04 -2.41411E+04
  1.53842E+04 -1.31028E+04  2.31422E+04  4.92188E+03  1.70189E+04  7.48383E+03  4.38652E+03  2.20005E+04
 -1.14262E+04  1.77511E+04 -1.00469E+04  7.05976E+03 -9.56736E+03  5.19784E+03 -3.16431E+03 -4.50123E+03
  2.23236E+03  3.11876E+03 -1.18408E+03  1.51633E+03 -8.61393E+03  4.70152E+03 -6.74856E+03  1.86747E+03
 -5.83466E+03 -1.42364E+04  2.44669E+03 -1.50174E+04  7.34767E+03 -1.71775E+04  9.36639E+03  8.30194E+02
  8.72397E+03  8.87529E+03  9.57253E+03  1.50748E+04 -3.88459E+03  1.64721E+04 -8.38255E+03  1.03967E+04
 -2.01131E+04  7.33776E+03 -9.02219E+03 -1.16274E+04 -9.08173E+03 -1.49356E+04  7.83033E+03 -3.36952E+03
  5.60957E+03  7.25199E+02  7.82766E+03  4.09754E+03  2.36165E+03  1.80334E+03  5.97359E+03  6.39341E+03
  4.81022E+03  1.17456E+03  2.54666E+03  3.14698E+03  2.29615E+03  3.82124E+03  5.52459E+03  8.61889E+03
 -6.77656E+03  6.71406E+03 -8.87421E+03  9.90981E+03 -1.74833E+04  6.64469E+03 -1.86873E+04 -6.32526E+03
 -1.08242E+04 -2.17640E+04 -5.17924E+03 -2.04792E+04  1.70250E+04 -1.62298E+04  1.48774E+04  2.01310E+03
  1.25126E+04  1.02303E+03 -2.52310E+03  1.20118E+04 -1.78444E+03  3.82196E+03 -2.22780E+03  5.02121E+02
  1.61071E+02 -3.20889E+03  5.11789E+03 -5.11668E+03  6.57517E+03 -6.63275E+03  5.20400E+03 -1.38895E+03
  4.86163E+03  4.53131E+03  6.40362E+02 -4.62216E+02  2.09355E+03  5.87206E+02  1.19087E+03  2.07783E+03
  1.99982E+03 -3.93666E+03  7.57759E+03  4.34221E+03  4.03409E+02  1.20718E+04 -7.99222E+02  1.36239E+04
 -1.61227E+04  7.36762E+03 -1.28107E+04 -2.36744E+03 -7.07196E+03 -5.72966E+03 -1.47566E+03 -3.40954E+03
  5.72980E+03 -9.48115E+03  2.16586E+02 -8.17481E+02  3.64578E+03  1.25514E+04  2.62806E+03  4.26362E+03
 -1.30782E+04  3.60857E+03 -1.02633E+03 -2.11566E+03 -7.41886E+03 -1.01548E+04  1.72219E+03 -1.27207E+04
  7.10895E+03 -1.17530E+04  1.95462E+03 -4.41064E+03 -1.43254E+03  3.18931E+03  1.28763E+03  6.16100E+03
 -3.25971E+03 -3.78179E+03 -4.74429E+01 -7.46080E+03  6.10375E+02 -5.04500E+03  5.23571E+03 -8.92982E+03
  2.93332E+03 -4.08611E+03  7.92736E+03  5.58406E+03  3.80553E+03  6.97482E+03 -3.39779E+03  1.44728E+04
 -3.51576E+03  3.34812E+03 -7.49895E+03 -4.42936E+02 -8.62258E+03 -1.44426E+03  6.38949E+02 -6.24645E+03
  2.96133E+03 -3.83583E+03  4.25662E+01  1.67380E+03  3.58551E+03  8.45958E+03 -4.15443E+02  8.47044E+03
  1.87984E+03  1.95793E+03 -1.44734E+03  4.81644E+03  8.50685E+03  2.93679E+03  2.92889E+03  1.99579E+03
  2.45319E+02  3.16594E+03 -9.52812E+03  7.31061E+03 -1.39541E+04  5.12324E+02 -1.08931E+04 -6.68068E+03
 -6.41774E+03 -1.57037E+04  2.62444E+03 -1.21033E+04  1.12940E+04 -1.82515E+04  1.81228E+04 -3.97966E+03
  1.19580E+04  6.36598E+03  1.33694E+04  6.15595E+03  1.73604E+03  8.58288E+03 -6.76562E+03  7.46551E+03
 -7.28409E+03  2.77367E+03 -7.05233E+03  1.49463E+01  2.40442E+03  2.49209E+03 -2.13907E+03 -2.93822E+03
 -2.31856E+03 -2.16564E+03 -7.11352E+03  2.77950E+03 -3.28969E+03 -9.40582E+02 -1.68578E+03 -8.12012E+03
  3.62482E+03 -2.73590E+03  2.54863E+03  3.24570E+03  1.15145E+04  4.08346E+03  1.94615E+02  1.44502E+04
 -2.57741E+03  9.19214E+03 -1.79423E+04  6.28534E+03 -1.34431E+04  6.17123E+02 -6.90680E+03 -6.33405E+03
 -1.43874E+04 -1.28656E+04  7.11125E+03 -1.14544E+04  1.11093E+04 -4.23429E+03  5.16808E+03  3.39998E+03
  1.62641E+03  7.48922E+03  4.48231E+02 -1.40599E+02  1.08105E+03  4.85654E+02  3.84776E+03 -3.92155E+03
  2.90424E+03 -6.47389E+03  3.44626E+03  1.59462E+03  3.21483E+03  3.59041E+03 -5.20597E+03  8.56523E+03
 -3.12977E+03  6.95477E+03 -1.15858E+04  2.31369E+03 -1.13592E+04 -2.42956E+03 -1.67711E+03 -6.80991E+03
  5.50219E+03 -1.48230E+04  5.77946E+03 -1.80338E+03  6.73619E+03  1.24895E+03  9.53299E+03  1.24571E+04
 -3.75484E+02 -4.27701E+03 -1.19706E+03  2.80571E+03 -4.93045E+03 -2.53332E+03 -8.18876E+03 -2.90747E+03
 -3.56294E+03 -1.08253E+03  2.82379E+03  7.13186E+03 -4.52265E+03 -2.37245E+03 -7.06997E+02 -4.03195E+03
 -5.36761E+03 -4.14274E+03  3.55418E+03 -5.07479E+03 -8.84513E+02 -7.53455E+03  1.00828E+04 -1.36901E+03
  5.16408E+03  2.10522E+02  8.36643E+02  9.18495E+03  1.77949E+02  4.10356E+03 -5.05549E+03  8.82581E+03
