 $NMID ID='MM_0lb_SNR50_14hz_g50_26.RAW', FMTDAT='(8E13.5)'
 TRAMP=1., VOLUME=1. $END
  3.06525E+05 -2.33533E+03  3.36505E+05  2.46899E+05  8.19866E+04  3.41298E+05 -1.31087E+05  2.51141E+05
 -1.88778E+05  8.15159E+04 -1.11282E+05 -3.59047E+04  2.98906E+03 -5.11298E+04  5.12515E+04  1.86706E+02
  4.05672E+04  4.93926E+04 -1.20724E+04  7.80326E+04 -5.80526E+04  6.48656E+04 -8.27189E+04  2.89811E+04
 -8.32566E+04 -1.15758E+04 -5.73274E+04 -5.07741E+04 -2.13950E+04 -6.88787E+04  2.86493E+04 -5.41534E+04
  3.79965E+04  4.04922E+03  1.15881E+04  4.41516E+04 -3.51318E+04  4.52350E+04 -6.78012E+04  2.25375E+03
 -5.42574E+04 -5.48302E+04 -5.68011E+03 -7.36029E+04  3.24416E+04 -5.80605E+04  4.20765E+04 -1.62203E+04
  4.49129E+04  1.19838E+04  2.97826E+04  2.79597E+04  1.53330E+04  3.32346E+04 -6.56290E+03  2.48923E+04
 -2.02188E+04  1.23814E+04 -1.80212E+04 -7.58353E+03  8.49820E+03 -7.74383E+03  2.29012E+04  9.91836E+03
  8.70936E+03  3.98438E+04 -2.97319E+04  3.89441E+04 -6.24767E+04  6.42509E+01 -5.76473E+04 -4.07378E+04
 -1.98352E+04 -6.06309E+04  4.06568E+04 -5.15306E+04  5.68538E+04  2.90577E+03  3.91212E+04  3.26487E+04
 -4.10117E+03  3.06219E+04 -2.82175E+04  1.73203E+04 -2.90613E+04  1.08356E+03 -1.73002E+04 -1.25185E+04
 -4.50750E+03 -1.68901E+04 -5.47769E+03 -1.76874E+04  6.88708E+03 -2.20202E+04  1.47271E+04 -8.59095E+03
  9.66685E+03  7.34057E+03 -7.34445E+03  1.37370E+04 -1.90726E+04 -6.22386E+03 -4.84907E+03 -3.19472E+04
  2.09554E+04 -4.10511E+04  4.80657E+04 -2.23142E+04  4.40481E+04  2.42974E+04  1.24041E+04  4.28675E+04
 -1.55059E+04  3.70262E+04 -2.34914E+04  3.63412E+03 -7.80472E+03 -2.79464E+04  1.68808E+04 -3.39210E+04
  3.94908E+04 -5.36708E+03  3.68294E+04  2.50649E+04  1.77247E+04  4.50636E+04 -9.67292E+03  5.29853E+04
 -3.02089E+04  3.49483E+04 -3.74365E+04  7.87507E+03 -4.51648E+04 -1.76760E+04 -2.12815E+04 -4.16567E+04
  7.54749E+03 -4.04077E+04  2.90309E+04 -1.70309E+04  3.17945E+04  1.63093E+04  6.05430E+03  1.98055E+04
 -8.81926E+03  8.25579E+03 -1.18657E+04 -6.70198E+03  5.30440E+03 -1.33677E+04  1.48748E+04  4.12158E+03
  1.35698E+04  2.36343E+04 -5.88506E+03  2.57853E+04 -2.43850E+04  1.21474E+04 -3.15831E+04 -3.88976E+03
 -2.29183E+04 -1.53913E+04 -1.57639E+04 -2.31350E+04  7.00363E+03 -1.76263E+04  2.06305E+04 -1.67225E+04
  2.78484E+04 -1.30334E+04  3.12351E+04  4.02465E+03  2.87449E+04  1.90524E+04  2.93053E+03  3.21360E+04
 -2.13305E+04  3.30580E+04 -2.52831E+04  8.39960E+03 -1.90594E+04 -1.05237E+04 -2.70651E+03 -1.44137E+04
  7.76138E+03 -5.44977E+03 -2.83944E+03  8.39051E+03 -1.51233E+04  1.36607E+04 -1.98969E+04 -1.28099E+04
 -8.58382E+03 -1.78457E+04  6.22068E+03 -2.41587E+04  1.46745E+04 -1.81276E+04  1.36493E+04 -4.55728E+03
  1.30129E+04  1.24676E+04  3.68323E+02  2.56893E+04 -1.50843E+04  1.16665E+04 -2.39090E+04 -8.42083E+03
 -1.12917E+04 -1.66607E+04 -2.29410E+03 -2.49401E+04  1.24847E+04 -2.03350E+04  1.91230E+04 -9.47939E+03
  1.88044E+04  3.56006E+03  1.46442E+04  4.31009E+02  4.75618E+03  4.95841E+03  7.51986E+03 -3.99129E+02
  1.73446E+04 -2.37680E+03  1.83410E+04  1.30430E+04  1.32731E+04  2.95557E+04 -4.33916E+03  3.41750E+04
 -1.99687E+04  2.80076E+04 -3.34109E+04  8.25097E+03 -3.36402E+04  6.78173E+02 -2.86066E+04 -2.12494E+04
 -1.52770E+04 -2.40041E+04  1.45956E+04 -2.24559E+04  1.90455E+04 -1.66184E+04  1.91536E+04  5.79957E+03
  9.22449E+03  1.50673E+04 -2.77292E+03  7.57723E+03 -1.91763E+04  8.01261E+01 -1.31383E+04 -1.48339E+04
  6.12225E+02 -1.81655E+04  5.51924E+03 -7.63083E+03  1.08629E+04  1.97540E+03  5.77037E+03  7.49492E+03
 -9.48710E+03  2.66795E+03 -7.66556E+03 -8.16481E+03 -4.82936E+02 -1.11849E+04  9.19232E+03 -1.46444E+04
  1.64268E+04 -6.58254E+03  1.76327E+04  4.06159E+03  1.66091E+04  1.37173E+04  4.33473E+03  1.53051E+04
 -2.93028E+03  2.16538E+04 -1.11006E+04  1.16026E+04 -1.79991E+04  3.51288E+02 -1.04149E+04 -5.78090E+03
 -2.89911E+03 -3.84481E+03 -2.13838E+03  1.50792E+03 -4.40416E+03  7.44107E+03 -6.40913E+02  6.00780E+03
 -9.73595E+03 -1.63487E+03 -1.02308E+04 -1.37060E+04 -5.35251E+03 -1.30987E+04  5.57593E+03 -1.78978E+04
  8.91446E+03 -5.57518E+03  8.93787E+03  4.51772E+03  3.09539E+03  8.92729E+03 -4.40238E+03 -1.55373E+03
 -5.48246E+03 -7.98061E+03  2.01849E+03 -1.05766E+04  1.17946E+04 -1.14760E+04  1.20463E+04 -8.13889E+03
  1.83762E+04  1.21108E+03  1.31540E+04  1.45671E+04  1.63260E+03  1.27025E+04 -7.68915E+03  1.21211E+04
 -8.19654E+03  3.54509E+03 -4.57966E+03  1.05026E+02  4.56984E+03  1.92139E+03  5.73538E+03 -2.72926E+03
  3.34788E+03  4.38518E+03 -1.55193E+03  1.22852E+04 -4.77099E+03  1.46197E+04 -1.66333E+04  4.32842E+03
 -6.59058E+03 -6.45189E+03 -9.39965E+02 -9.52147E+03  3.97985E+03 -4.39390E+03  6.73914E+03  4.57618E+03
 -3.88704E+02  1.36355E+04 -9.38507E+03  2.88045E+03 -6.71015E+03 -1.55496E+02 -3.76898E+03  1.37949E+03
 -3.76476E+03 -1.05260E+04  5.43117E+03 -1.04576E+04  8.54700E+03 -7.48608E+03  1.03369E+04 -1.43984E+03
  7.47239E+03  5.20531E+03  1.25375E+03  7.81463E+03 -1.51957E+04  6.26470E+03 -1.36862E+04 -5.57140E+03
 -9.54487E+03 -7.37661E+03 -1.71741E+02 -9.36012E+03 -1.35149E+03 -2.88402E+03  1.53425E+03 -6.01214E+03
 -2.67614E+02  3.50350E+03  2.92157E+03  5.95946E+02  3.31331E+03 -3.91692E+03  1.39138E+01 -4.75315E+03
  8.14414E+03 -5.37773E+03  1.01335E+04  2.99512E+03  4.59248E+03  9.10749E+03  7.26738E+03  1.33760E+04
 -3.97403E+03  1.38100E+04 -1.05171E+04  1.67399E+04 -1.97169E+04  5.18987E+03 -9.75044E+03 -5.50363E+03
 -4.76864E+03 -8.84542E+03 -3.47627E+03 -2.26167E+03  2.60452E+03 -6.98970E+03  8.01877E+03 -6.13866E+03
  1.84300E+03 -7.40198E+02  2.35936E+03 -4.51726E+02  6.41119E+03 -5.86543E+02  1.29553E+03 -3.20343E+02
  5.01546E+03  1.10834E+02  3.42624E+03  1.38731E+04 -7.08840E+03  1.56593E+03 -9.36605E+03 -1.14536E+03
 -1.11793E+04  2.96321E+03 -1.58292E+03 -2.00486E+03 -2.04606E+03 -1.35610E+04  5.02271E+02 -4.57843E+03
  1.20456E+04 -4.11784E+03  1.01984E+04 -9.08746E+02  8.75831E+03  9.30751E+03  1.86339E+03  1.75993E+04
 -1.12901E+03  6.03558E+03 -5.12399E+03  3.85971E+03 -5.74750E+03 -3.14715E+03 -3.15778E+02 -3.24998E+03
 -3.80394E+03 -2.17199E+03  3.31857E+01  4.32731E+03 -4.82484E+03  3.02302E+03 -3.49569E+03 -2.31981E+03
 -3.54445E+03 -8.68157E+03  3.28995E+03 -1.18896E+04  8.75814E+03 -8.09711E+03  1.03599E+03 -5.08962E+03
  1.12254E+04  5.81313E+03  3.33858E+03  6.61357E+03 -2.94253E+02  1.00290E+04 -4.70038E+03  7.29942E+02
 -5.61419E+03  1.00958E+03 -7.70006E+02 -2.39258E+03  8.35512E+01 -1.34234E+04  3.19214E+03 -3.04356E+03
  7.00109E+03 -5.93135E+03  4.55007E+03  4.54224E+03 -2.43280E+03  5.83738E+03  3.09580E+03  3.59131E+03
  4.51305E+03 -1.96290E+03  4.58799E+03  3.95493E+03  5.15571E+03  9.07819E+03  6.17191E+03  1.65818E+03
 -9.17704E+02  7.52155E+03 -4.83732E+03  8.65949E+03 -2.06637E+02  3.17284E+03 -3.77994E+03 -3.07292E+03
 -2.11982E+03 -5.43722E+03  3.08921E+03 -1.13843E+04  6.87474E+03 -8.34105E+03  5.09866E+03 -5.93601E+03
  4.36092E+03  2.05230E+03  4.24255E+03  3.33158E+03 -4.39338E+03  4.20954E+03 -2.04686E+03  2.61368E+00
 -4.57503E+03 -6.75915E+03  3.96606E+03 -3.13799E+02  7.13516E+03 -1.90005E+03  7.25965E+03 -2.01598E+03
  5.88612E+03  5.43095E+02  4.03960E+03 -1.83054E+03 -5.60643E+03 -2.79250E+02 -2.34181E+03 -1.00420E+03
 -1.60020E+03 -3.58629E+03  3.13638E+03  2.74597E+03  6.42099E+02 -3.02993E+03 -2.48344E+02  5.47782E+03
 -4.94165E+03  1.95175E+03 -5.92855E+03  3.21985E+03 -3.87127E+03 -2.74933E+03  5.88975E+02 -6.75068E+02
  1.33961E+03 -4.90188E+03  1.57680E+03  1.09403E+03  3.16693E+03  9.02770E+02 -5.51461E+03  6.71161E+02
  3.12990E+03  1.87017E+03 -6.01359E+03 -1.82819E+03 -6.00141E+02 -5.75198E+03 -3.56096E+02 -2.49065E+03
  4.91230E+03 -1.32022E+03  3.67074E+02 -1.50490E+03  1.36972E+03 -3.37428E+02  1.73904E+03 -1.45540E+03
  8.37748E+00 -8.82323E+02 -5.30843E+03 -2.06839E+03  4.49319E+03 -2.61461E+03  3.16540E+03  6.16194E+02
  8.40568E+03  5.11597E+03  4.91238E+03  7.05177E+03  2.22056E+03 -2.88651E+02 -3.67744E+03  5.86319E+03
 -1.99557E+03  9.30001E+02 -3.85281E+03  3.23054E+02 -2.25398E+03 -4.21115E+02 -3.02746E+03 -2.09594E+03
  3.42062E+03 -3.02561E+03  5.28588E+03  4.65168E+03  4.16757E+03  4.53794E+03 -1.45150E+03  4.81695E+02
 -1.20954E+03  8.31209E+03 -6.46196E+03 -2.04709E+03 -3.59055E+03 -2.45145E+03 -1.94752E+03 -2.16158E+03
 -2.56032E+03  8.51585E+02 -4.10884E+03 -7.05645E+03 -2.34346E+03 -1.46903E+03 -8.88284E+03  4.04448E+02
 -2.00095E+03 -6.59075E+03 -1.45989E+03 -7.83023E+03 -7.80370E+02 -5.21318E+03  1.34355E+03 -3.99059E+03
  6.28574E+03  2.56191E+03  4.30304E+03  1.45656E+02  5.30419E+02  1.04032E+04 -3.01136E+02  5.07707E+03
 -7.48364E+02 -2.88640E+03  1.63472E+03 -2.38063E+03  1.36576E+03  9.08835E+02 -6.38927E+03 -6.79528E+02
 -6.39878E+03 -1.22519E+03 -2.15086E+02 -5.96639E+03  8.15830E+02  2.69624E+03 -1.10422E+03 -1.57892E+03
  4.23194E+03 -9.72671E+02  4.96312E+02  3.63109E+03  6.48356E+02  1.98567E+03 -1.90855E+03  4.40819E+03
 -3.01043E+03  8.86832E+03 -4.60247E+03 -3.62693E+02 -3.45026E+03 -4.11768E+03 -6.57519E+03  3.16644E+02
  3.10466E+03 -3.47697E+03  4.21739E+03 -3.09974E+03  3.90902E+03 -9.87742E+03  1.76219E+03 -3.54122E+03
  4.23496E+03 -3.66956E+03 -1.07347E+03  1.49702E+03 -2.21337E+03  1.56042E+03  6.62897E+02  2.29387E+03
 -1.67827E+03  6.93174E+02 -7.12183E+01  1.71086E+03  1.48977E+03  5.91676E+02 -3.57982E+02  6.73858E+02
 -8.39916E+02 -5.91294E+02 -1.59290E+03  2.88514E+03 -2.63587E+03 -2.25613E+03  3.25922E+02 -4.11220E+02
 -1.30858E+03 -3.32171E+03 -2.39125E+02 -4.77734E+03  4.23496E+02  8.46902E+02  5.29658E+03  4.16215E+02
 -1.06702E+03  7.04627E+02 -1.52275E+03  6.89712E+03 -9.36139E+02  1.83928E+03  2.75030E+03  7.88113E+02
  2.15255E+02  1.58147E+03 -6.97286E+03  4.40249E+03 -5.45885E+03 -4.17573E+03 -6.46607E+03 -2.21595E+02
 -2.13011E+03  4.42999E+02 -6.38387E+02  1.70360E+03  1.27763E+03 -4.86467E+03 -3.15104E+02 -6.96335E+02
 -2.79791E+03 -2.09756E+03  5.11397E+03  3.13496E+03  7.22751E+01  1.21487E+03 -2.08899E+03 -6.22125E+02
