 $NMID ID='MM_0lb_SNR50_20hz_g40_57.RAW', FMTDAT='(8E13.5)'
 TRAMP=1., VOLUME=1. $END
  3.06181E+05  2.63650E+02  3.36733E+05  2.49671E+05  8.45225E+04  3.38255E+05 -1.35740E+05  2.51725E+05
 -1.87673E+05  8.07602E+04 -1.11450E+05 -2.94220E+04  5.11011E+03 -5.30796E+04  5.70282E+04 -7.76668E+02
  3.28416E+04  4.75914E+04 -1.72483E+04  7.60756E+04 -5.77600E+04  6.52935E+04 -8.06377E+04  3.27507E+04
 -7.67856E+04 -1.41036E+04 -5.63036E+04 -4.73616E+04 -1.80437E+04 -6.94710E+04  2.46705E+04 -4.04273E+04
  3.85634E+04  3.85483E+03  1.62544E+04  4.33613E+04 -3.47886E+04  4.45192E+04 -6.18351E+04  4.88275E+02
 -5.00908E+04 -5.27590E+04 -2.00898E+03 -7.04014E+04  3.08836E+04 -5.14872E+04  4.61019E+04 -1.67046E+04
  3.57419E+04  1.16940E+04  3.05653E+04  2.08731E+04  1.49142E+04  2.74761E+04 -4.71786E+03  2.45376E+04
 -1.95565E+04  1.39445E+04 -2.40184E+04 -4.24923E+03  1.83310E+03 -6.54490E+03  2.08451E+04  1.22811E+04
  5.21279E+03  2.99563E+04 -2.88318E+04  3.05937E+04 -6.15467E+04  3.26042E+03 -5.80835E+04 -3.65546E+04
 -9.81694E+03 -5.75373E+04  3.74926E+04 -3.93858E+04  5.47488E+04 -6.35860E+03  3.19300E+04  2.74730E+04
 -7.55702E+03  3.49114E+04 -2.64963E+04  1.32041E+04 -2.48332E+04 -2.98853E+03 -1.48321E+04 -6.92344E+03
 -9.02291E+03 -7.80998E+03 -3.04751E+03 -1.43427E+04  5.48742E+03 -2.05546E+04  1.19540E+04 -1.69495E+04
  1.51850E+04  5.29530E+03 -6.75682E+03  1.74057E+04 -1.95830E+04  2.08536E+03 -8.92956E+03 -2.89655E+04
  1.93236E+04 -3.96851E+04  4.45066E+04 -1.88241E+04  3.63525E+04  1.62053E+04  1.52367E+04  3.76068E+04
 -1.53714E+04  2.85486E+04 -2.24154E+04  2.12171E+03 -7.50092E+03 -2.23113E+04  1.93476E+04 -3.13927E+04
  3.31107E+04 -3.94063E+03  3.19087E+04  2.15369E+04  1.27918E+04  4.08769E+04 -9.48014E+03  3.91466E+04
 -2.60019E+04  3.02039E+04 -3.59161E+04  6.64881E+03 -4.06059E+04 -1.40777E+04 -1.89852E+04 -3.43266E+04
  8.02585E+03 -3.51268E+04  2.30133E+04 -9.62813E+03  2.54096E+04  1.10080E+04  9.28660E+02  1.74113E+04
 -1.59407E+04  5.93440E+03 -7.82943E+03 -4.72001E+03  8.14482E+03 -8.78776E+03  1.28366E+04  1.01192E+04
  1.30685E+04  1.94961E+04 -6.63542E+03  2.31530E+04 -2.27863E+04  8.35150E+03 -2.59493E+04 -7.32812E+03
 -1.71598E+04 -1.64872E+04 -9.58937E+03 -1.67789E+04  3.70520E+03 -1.38049E+04  1.35083E+04 -1.42699E+04
  1.97085E+04 -1.18121E+04  2.42779E+04 -9.19695E+02  2.17606E+04  1.38877E+04  5.19082E+03  2.81288E+04
 -1.89215E+04  2.59938E+04 -2.89535E+04  1.08168E+04 -1.99240E+04 -1.05312E+04 -2.42614E+03 -1.11702E+04
  1.38069E+03 -6.54445E+03 -3.21925E+03  3.42720E+03 -1.49176E+04  4.62802E+03 -1.39994E+04 -4.45447E+03
 -8.22520E+03 -1.44195E+04  6.45349E+03 -1.69108E+04  1.10992E+04 -1.35986E+04  1.48887E+04 -2.58394E+03
  6.23875E+03  7.61607E+03 -2.64431E+03  1.60030E+04 -7.81897E+03  7.40507E+03 -1.42872E+04 -5.60982E+03
 -1.20435E+04 -9.00832E+03 -2.76786E+03 -2.01353E+04  9.64943E+03 -9.20244E+03  1.33086E+04 -2.97471E+03
  1.53224E+04  2.09614E+03  9.30167E+03  6.30880E+03  2.84002E+03  1.40689E+03  7.45775E+03 -8.09609E+02
  1.17110E+04  4.88749E+03  1.44352E+04  9.84852E+03  9.27440E+03  2.47395E+04 -1.60164E+03  2.32043E+04
 -1.61564E+04  1.96336E+04 -2.13603E+04  1.05669E+04 -2.12852E+04  7.37492E+02 -1.83476E+04 -1.44046E+04
 -1.11883E+04 -1.76191E+04  3.57729E+02 -1.62370E+04  1.22934E+04 -9.83814E+03  1.56549E+04  1.96519E+03
  5.95446E+03  7.94085E+03 -5.87594E+03  1.48586E+04 -1.01209E+04  8.22205E+03 -1.02151E+04 -5.95530E+03
  3.47534E+03 -1.20267E+04  1.77072E+03 -9.53595E+03  7.32659E+03 -1.30101E+03  1.99752E+03  7.45537E+03
 -2.85385E+03  1.90222E+03 -2.09371E+03 -4.92238E+03  3.78275E+03 -1.01047E+04  9.71123E+03 -7.94437E+03
  1.26770E+04 -8.25535E+03  1.16612E+04 -2.64240E+03  8.79683E+03  9.72546E+03  2.45211E+03  1.30121E+04
 -1.92786E+03  1.29537E+04 -9.01175E+03  9.83047E+03 -1.18622E+04  9.82657E+03 -6.18187E+03  3.23627E+03
 -4.51412E+03 -3.01551E+03 -3.42025E+03  3.10336E+03 -1.19698E+03  1.69297E+03 -2.97663E+03  2.27987E+03
 -8.77437E+03 -4.34344E+02 -5.20488E+03 -6.61588E+03 -4.25976E+03 -1.02386E+04  1.65736E+03 -8.56857E+03
  7.83760E+03 -4.30788E+03  3.25609E+03  2.29934E+02 -1.69572E+03  4.23376E+03 -4.08362E+03  3.44999E+02
 -1.88650E+03 -7.83424E+03  1.05548E+03 -7.15715E+03  4.36825E+03 -7.47050E+03  4.63480E+03 -5.37870E+03
  1.09756E+04  3.73054E+03  5.45284E+03  4.06121E+03  3.94784E+03  6.88324E+03 -3.84633E+03  5.95650E+03
 -4.37887E+03  2.55495E+03 -3.38026E+03 -2.53662E+03  2.36812E+03 -3.22208E+03  3.84697E+03 -9.96485E+02
  2.93876E+03  3.97105E+03 -7.53348E+02  7.50255E+03 -6.13202E+03  6.07640E+03 -7.17981E+03  2.36441E+03
 -5.23948E+03 -6.07913E+03 -9.15834E+02 -4.74587E+03  4.60157E+03 -6.06999E+02  2.97983E+03 -1.91616E+03
  2.23962E+02  4.23425E+03 -2.89192E+03  5.22084E+03 -1.47122E+03  1.04492E+03 -2.03945E+03  1.43626E+03
 -2.25545E+03 -1.76437E+03 -2.62590E+03 -1.71997E+03  5.34272E+03 -6.21386E+03  3.52395E+03 -2.58022E+03
  4.01734E+03  5.79837E+03 -2.27800E+03  4.99075E+03 -3.81933E+03  3.14777E+03 -6.39085E+03 -3.11055E+03
 -7.10404E+03 -4.56454E+03 -8.70178E+02 -4.18761E+03  1.80393E+03 -3.67548E+03  9.54243E+02 -2.83993E+03
  3.73933E+03  5.49971E+02  4.27254E+03  5.80502E+02 -9.76552E+02  3.69063E+03  5.41122E+02 -2.57407E+03
  2.21389E+03  2.30379E+03  4.12019E+03  1.66379E+03  5.75739E+03 -8.06487E+02 -2.36642E+03  1.38184E+03
 -2.98372E+03  1.01951E+04 -6.65505E+03  3.35847E+03 -7.88397E+03  5.03670E+00 -7.77929E+03 -5.59988E+03
 -4.02884E+03 -6.35066E+03  2.25006E+03 -2.98956E+03 -1.55905E+03 -5.25806E+03  3.15503E+03  1.21454E+03
  1.80103E+03  9.98150E+02  1.49882E+03  2.63041E+03  1.23627E+03 -1.99515E+03  2.39563E+03 -1.07996E+03
  6.30337E+03 -1.03307E+03 -9.08332E+02  2.78482E+03  1.81503E+03  4.72770E+03 -2.41871E+02 -1.84273E+03
 -7.65928E+03 -3.28747E+03 -1.99944E+03 -3.27059E+03 -4.76618E+02 -5.94989E+03 -1.50008E+03 -4.37971E+03
  2.94069E+03  1.47133E+03  7.23612E+03  1.46636E+03  2.40349E+03  9.27520E+03 -2.58133E+03  5.99873E+03
  2.76171E+03  5.11239E+03 -4.14132E+03 -1.21241E+03 -5.47056E+03 -1.56205E+03 -1.91076E+02  2.18390E+03
  2.01820E+02 -9.62365E+02  2.42503E+03  4.65706E+03 -3.47177E+03 -1.96243E+03 -5.57651E+03  1.35596E+03
  2.25803E+03 -2.68340E+03 -1.14101E+03 -1.50216E+03  2.82274E+03 -1.01705E+03  7.14581E+03 -6.79492E+02
  5.99287E+03 -2.03047E+03  3.55266E+03 -3.31444E+03  8.59941E+01  1.88981E+03 -4.80748E+03 -1.72834E+03
 -6.35354E+03 -1.37364E+03 -4.07480E+03  8.47620E+02 -4.29617E+03 -2.71844E+02 -7.94578E+01 -2.27411E+03
  8.94232E+02  1.16219E+03  3.72168E+03 -1.64306E+03 -2.18151E+03  1.13153E+03  2.28004E+02  9.42140E+02
  1.11473E+03  2.89977E+03 -1.02755E+03 -2.79016E+03  7.17580E+02  1.43478E+03  3.66425E+03  2.48800E+02
 -1.52000E+03 -3.32668E+02 -2.06955E+03  3.67837E+03  1.47444E+03 -4.11920E+02 -5.08113E+03  6.55632E+01
 -3.70155E+03 -5.97918E+03 -1.78353E+03 -2.11913E+03 -6.23926E+02  7.93849E+02  1.26083E+03 -1.46876E+03
  3.03217E+03  4.52801E+03  1.48609E+02  9.98524E+02 -4.20926E+03 -2.99865E+03 -1.94745E+03  1.08661E+03
 -5.86108E+02 -2.22581E+03  1.98980E+03 -5.65405E+02  2.41720E+03 -1.72344E+03  3.86564E+03 -7.51831E+02
 -2.49183E+03 -2.50347E+03  1.33953E+03 -1.65965E+02  2.39170E+03 -1.59067E+03 -7.20633E+02  1.22160E+03
 -4.02340E+02 -3.70589E+03  1.59976E+02  2.53478E+03  3.68180E+02  4.50800E+03  2.33578E+03  2.37696E+03
  1.03995E+01 -5.42087E+02 -3.29558E+03  1.20219E+03 -2.45415E+03 -2.30663E+03 -1.76325E+03 -6.77171E+02
 -2.41951E+03 -3.14256E+03 -1.35534E+03  2.27292E+03 -1.02707E+03  4.11857E+03  1.53670E+02 -1.17267E+03
 -1.66788E+02 -4.05232E+03 -4.27534E+03  8.33497E+02  4.62800E+03 -5.26084E+03  7.28265E+02 -1.01250E+03
  1.82113E+03 -1.33316E+03  2.24142E+03  3.95086E+03  1.42887E+03 -3.69047E+02  2.83646E+03  1.20581E+03
 -1.29272E+03  1.92965E+03  1.19283E+03 -2.50198E+03 -3.73641E+03 -1.96228E+03  4.26579E+03 -1.24738E+03
  1.42453E+03 -1.52981E+02  2.90649E+03 -1.46782E+03 -3.04342E+03  4.29373E+03  8.64943E+02  1.72243E+03
 -6.12725E+03 -5.37762E+03 -2.87575E+03 -3.81687E+03  8.83723E+02 -2.40355E+03 -3.82404E+01  1.83938E+03
  6.04736E+02 -2.67279E+03  3.27201E+03  8.94317E+02 -6.17000E+01  3.53034E+02  1.81407E+03 -1.06491E+03
 -2.40108E+03  5.57505E+03 -5.82795E+02 -7.16000E+02  6.75065E+02 -2.68650E+03 -4.44512E+03  3.69017E+02
  1.55314E+03 -5.31372E+02  1.14498E+03 -7.84250E+02 -4.70225E+03  2.24941E+03  1.14700E+03  4.47520E+03
 -3.59484E+03 -3.72978E+03  7.02087E+03 -8.18498E+02  5.28396E+03 -6.80042E+02  4.61199E+03 -2.11129E+02
  2.51160E+03 -9.84469E+02  8.18429E+01  2.47827E+03 -1.08098E+03 -9.60305E+02  5.51152E+03  2.49748E+03
  2.65554E+03  2.33409E+03 -3.09115E+03 -3.75845E+03 -7.67827E+02  1.91178E+03  7.47072E+02  1.23505E+03
 -7.08727E+03  1.97416E+03 -7.97221E+01  7.66345E+02 -4.92766E+02  2.05905E+03 -9.58497E+02 -3.10511E+03
  1.99532E+03 -1.29198E+03  1.29558E+03 -1.74388E+03  2.74124E+03  5.39103E+02  3.61288E+02  1.32525E+03
  9.87706E+02  6.03101E+03 -1.34209E+03  6.10917E+02  1.13539E+03  2.85565E+03 -9.24515E+02  4.03288E+03
 -1.41414E+03 -4.05095E+03  2.66724E+02 -2.76351E+03 -7.02616E+02 -5.18503E+02  8.46239E+02 -1.75540E+03
  1.82081E+03  1.55424E+03  4.55818E+02  4.33382E+03  6.75711E+02  3.76143E+03 -1.72774E+03 -2.64154E+03
 -7.09758E+02  6.63998E+02  1.56173E+03 -1.43161E+03  2.63262E+02  2.54000E+02  2.62112E+03 -1.67783E+03
 -1.18689E+02 -2.77531E+03  1.56997E+03 -7.96959E+02 -2.11469E+03  2.45751E+03 -3.43551E+03  5.96958E+03
  7.21423E+02 -1.02474E+03 -9.78302E+02  2.71957E+03 -1.81300E+03 -4.89972E+02  3.80573E+01 -5.60800E+02
 -1.52931E+03  9.16812E+01 -3.57847E+03  2.79260E+03 -1.59492E+03  5.80566E+02  1.28867E+03 -2.37630E+03
  6.26038E+02 -7.14105E+02  3.17732E+03  7.29492E+02 -2.46281E+02 -8.79624E+02 -1.92881E+03 -8.53630E+02
 -1.64283E+03  2.69371E+03  4.34524E+02 -4.99500E+02 -1.81658E+03 -3.70392E+03  2.54326E+02 -3.42503E+03
 -1.59677E+03 -1.50823E+03 -4.25310E+03  4.05877E+03 -1.95499E+03  2.81123E+03  5.51130E+03  4.63956E+02
