 $NMID ID='MM_0lb_SNR50_9hz_g50_16.RAW', FMTDAT='(8E13.5)'
 TRAMP=1., VOLUME=1. $END
  3.12311E+05 -3.73587E+03  3.35422E+05  2.42504E+05  9.14017E+04  3.41596E+05 -1.32743E+05  2.50247E+05
 -1.86952E+05  8.60144E+04 -1.10465E+05 -3.50207E+04 -2.00071E+03 -5.05056E+04  4.96504E+04  5.80605E+03
  3.44044E+04  5.49417E+04 -1.27419E+04  7.52959E+04 -6.34686E+04  6.39598E+04 -8.67527E+04  3.40209E+04
 -8.72215E+04 -9.71152E+03 -5.96655E+04 -5.06038E+04 -1.48757E+04 -6.70295E+04  2.70967E+04 -4.39134E+04
  4.19617E+04 -1.52942E+03  1.40389E+04  5.20931E+04 -3.75114E+04  4.62939E+04 -6.88476E+04 -4.68968E+03
 -5.31943E+04 -5.82589E+04 -1.65903E+03 -8.17231E+04  4.02167E+04 -5.90569E+04  5.39245E+04 -1.38260E+04
  4.49001E+04  1.22695E+04  3.17840E+04  2.44643E+04  2.50166E+04  3.27788E+04  5.73566E+03  2.57126E+04
 -2.03003E+04  8.59590E+03 -1.35753E+04 -7.71118E+03  1.03493E+04 -1.33797E+04  2.85691E+04  1.76317E+04
  3.88438E+03  3.59987E+04 -3.37423E+04  4.27859E+04 -6.76988E+04  5.70716E+01 -6.03443E+04 -4.83759E+04
 -1.14984E+04 -6.14569E+04  3.98689E+04 -5.29927E+04  5.46555E+04 -6.13988E+03  4.34144E+04  2.57957E+04
 -6.45860E+03  4.51753E+04 -3.23362E+04  1.92215E+04 -2.66772E+04 -2.47401E+03 -2.20835E+04 -1.57670E+04
 -9.17457E+03 -1.53908E+04  2.41374E+03 -2.57685E+04  1.41032E+04 -2.30074E+04  1.56808E+04 -1.14081E+04
  6.17102E+03  4.56910E+03 -9.50094E+03  1.30486E+04 -2.02241E+04 -9.44518E+03 -1.05481E+04 -3.92142E+04
  2.36343E+04 -4.94256E+04  5.34209E+04 -2.32553E+04  5.27935E+04  1.77955E+04  1.95997E+04  4.83715E+04
 -2.08642E+04  3.88295E+04 -2.86764E+04 -2.20756E+03 -1.78587E+04 -2.67678E+04  1.76055E+04 -3.96812E+04
  4.27110E+04 -5.96657E+03  3.98880E+04  2.97559E+04  1.65362E+04  5.24407E+04 -3.33424E+03  5.48805E+04
 -3.74013E+04  3.83483E+04 -5.01142E+04  8.40416E+03 -4.39360E+04 -2.22522E+04 -2.79586E+04 -4.35609E+04
  7.55138E+03 -4.03432E+04  3.29143E+04 -1.48802E+04  2.64170E+04  8.87805E+03  1.89479E+03  2.42928E+04
 -1.69923E+04  1.07017E+04 -6.07774E+03 -4.95192E+03  2.99830E+03 -1.76383E+04  1.35684E+04  1.15093E+04
  1.53293E+04  2.34356E+04  6.75997E+02  2.55103E+04 -2.34874E+04  2.07201E+04 -3.62075E+04 -5.54614E+03
 -2.48715E+04 -1.51161E+04 -6.44680E+03 -2.77792E+04  4.80887E+03 -2.90904E+04  1.50755E+04 -1.85954E+04
  3.28323E+04 -1.49808E+04  4.02461E+04  3.99070E+03  2.63280E+04  2.32077E+04  7.70536E+03  4.11641E+04
 -1.33891E+04  3.12834E+04 -3.31527E+04  1.20946E+04 -2.32991E+04 -1.07726E+04  2.70725E+03 -1.54109E+04
  1.69085E+03 -1.88959E+03 -9.98911E+03  7.42178E+03 -2.40956E+04  2.25972E+03 -2.04063E+04 -5.73784E+03
 -1.21568E+04 -2.30643E+04  1.12363E+04 -3.12467E+04  2.29436E+04 -1.44630E+04  2.46999E+04 -7.64756E+03
  1.38187E+04  1.55765E+04 -8.17719E+03  2.13065E+04 -1.58068E+04  1.22296E+04 -2.97566E+04 -8.18151E+03
 -2.08368E+04 -2.12440E+04 -3.90595E+03 -2.45744E+04  7.81382E+03 -1.99940E+04  2.95907E+04 -8.52787E+03
  3.01218E+04 -4.34881E+03  1.65592E+04  9.48322E+03  8.39430E+03 -8.57496E+02  5.90033E+03 -4.19267E+03
  1.81171E+04  2.47396E+03  1.79165E+04  1.97585E+04  1.91672E+04  4.41375E+04 -4.13555E+03  4.43137E+04
 -2.94943E+04  4.58308E+04 -4.09487E+04  2.22127E+04 -4.98438E+04 -3.47294E+03 -3.61758E+04 -3.38944E+04
 -1.13701E+04 -4.04248E+04  1.50986E+04 -2.92179E+04  3.08573E+04 -1.07342E+04  2.71523E+04  1.06493E+04
  8.62410E+03  2.17751E+04 -7.88249E+03  2.25807E+04 -2.02080E+04 -4.13903E+02 -1.52891E+04 -9.95333E+03
 -2.73103E+03 -1.67645E+04  1.47339E+04 -1.10490E+04  1.89074E+04  1.42776E+02  5.00230E+03  4.48330E+03
 -1.05583E+04  3.72345E+03 -5.52323E+03 -6.63637E+03 -2.46584E+03 -1.42856E+04  1.24841E+04 -1.89809E+04
  2.15405E+04 -1.25883E+04  3.03620E+04  7.71886E+03  2.83539E+04  1.75386E+04  4.10935E+03  2.82837E+04
 -1.21204E+04  2.85416E+04 -2.45689E+04  2.02819E+04 -2.13030E+04 -3.91748E+02 -1.42881E+04 -3.11939E+03
 -6.90987E+02 -2.59205E+03 -8.09903E+03  2.39150E+03 -7.36941E+03  1.10730E+03 -9.70470E+03  6.13128E+03
 -1.05778E+04 -8.11004E+02 -1.70672E+04 -1.45586E+04 -8.45500E+03 -2.28896E+04  6.12133E+03 -2.06293E+04
  1.74311E+04 -5.25204E+03  9.72179E+03  6.51787E+03 -2.95586E+03  6.35791E+03 -1.34430E+04 -9.63483E+03
 -8.25822E+03 -1.17666E+04  1.58188E+03 -8.26497E+03  7.06039E+03 -1.35676E+04  2.27523E+04 -6.18705E+03
  2.16162E+04  2.83217E+03  2.43094E+04  1.22603E+04  4.16260E+02  1.62745E+04 -5.18642E+03  1.77466E+04
 -8.40566E+03  9.74553E+02 -8.95725E+03 -2.50973E+03  1.85236E+03 -8.81307E+03  1.02986E+04  1.22025E+03
  9.40230E+03  4.09587E+03  7.38166E+03  1.27710E+04 -8.64336E+03  8.63719E+03 -1.95205E+04  1.77872E+02
 -9.77056E+03 -4.37743E+03 -9.38626E+01 -1.11409E+04  6.90534E+03 -9.43115E+03  7.70603E+03  2.90930E+03
  3.66216E+03  9.62279E+03 -2.62930E+03  1.08191E+04 -1.28302E+04  3.70453E+03 -1.05726E+04 -4.65196E+03
 -1.28525E+04 -1.96988E+04  9.45498E+03 -1.59226E+04  1.79348E+04 -1.26649E+04  2.01346E+04  1.18015E+03
  9.15718E+03  1.34789E+04  1.89271E+03  2.25968E+04 -9.81199E+03  1.55201E+04 -9.07977E+03 -1.45854E+02
 -1.18481E+04 -1.16418E+04 -4.54280E+03 -1.78205E+04  5.06909E+03 -4.24330E+03  9.66020E+03 -7.43573E+02
  4.39655E+03  9.28828E+03 -2.47985E+03  2.64667E+02 -5.43486E+02 -1.06562E+03  9.69338E+02 -7.22219E+03
  2.12785E+04 -8.80136E+03  1.34923E+04  7.44050E+03  1.25334E+04  7.79308E+03  4.86179E+03  2.77532E+04
 -9.32387E+03  2.60864E+04 -1.70112E+04  1.93751E+04 -2.43744E+04  1.34375E+03 -2.01978E+04 -9.54971E+03
 -6.28395E+03 -1.67579E+04  1.75054E+03 -2.02846E+04  2.38580E+03 -9.30643E+03  7.17326E+03 -1.03928E+04
 -2.28131E+03 -4.09639E+03  3.29190E+03 -1.51506E+03  6.28306E+03 -4.85759E+03  7.53414E+03 -2.64466E+03
  1.19755E+04  5.20644E+03  5.04249E+02  5.10633E+03 -7.45805E+03  6.57927E+03 -7.59988E+03  1.00621E+04
 -1.44371E+04  4.31869E+02 -1.49600E+04 -1.03008E+04 -5.24439E+03 -1.84394E+04  9.56313E+03 -1.66033E+04
  1.10741E+04 -9.64211E+03  1.72509E+04  4.74963E+03  1.91841E+04  1.49444E+04 -6.11156E+03  1.89382E+04
 -4.08335E+03  1.70766E+04 -1.33314E+04  6.10865E+03 -9.83402E+03 -6.77855E+03 -4.69619E+03 -2.10254E+03
 -5.88696E+03 -3.16842E+03 -1.25648E+03  1.27469E+03 -7.12611E+03  1.48873E+03 -1.02329E+04 -5.01930E+03
 -9.84873E+03 -9.78721E+03  6.87321E+03 -1.69438E+04  1.02929E+04 -1.27146E+04  2.13403E+04 -5.04975E+03
  1.22548E+04  2.60529E+03  5.07155E+03  1.02306E+04 -6.53315E+03  6.21136E+03 -1.37383E+04  1.30099E+03
 -7.69179E+03  7.57383E+03 -1.01321E+04 -1.00971E+04 -5.20191E+03 -1.51946E+04  9.45781E+03 -6.73636E+03
  4.54317E+03 -4.41988E+03  1.17854E+04  7.23690E+03  7.92284E+03  3.97489E+03 -2.58534E+03 -3.57103E+02
  2.73164E+03  1.68016E+03  1.99632E+03  5.78620E+03  5.98229E+03 -2.65033E+02  1.54029E+03  1.02316E+04
 -7.77936E+03  1.52766E+04 -1.11209E+04  8.61878E+03 -1.18224E+04 -1.85185E+03 -1.76703E+04 -7.75400E+03
 -1.02478E+04 -1.10538E+04  1.50024E+03 -2.18870E+04  9.18766E+03 -1.28841E+04  1.39923E+04 -5.96759E+03
  9.14285E+03  1.41380E+04  8.96686E+02  6.17186E+03 -6.50515E+03  5.58520E+03 -5.77345E+03  1.96643E+03
 -4.85111E+02 -2.76839E+03 -6.48432E+00 -6.45684E+03  8.77931E+02 -2.47920E+02  6.89692E+03  6.02567E+03
 -5.41133E+02  1.60935E+03  4.74877E+03  3.03173E+02 -3.22519E+03  1.15377E+03 -5.75069E+02 -1.74532E+03
  4.04291E+03 -3.75034E+03  1.12816E+04  9.66988E+03  3.78710E+03  1.23370E+04 -5.58765E+03  1.25510E+04
 -1.46611E+04  7.69444E+03 -1.28275E+04 -1.99561E+02 -1.33424E+04 -2.14110E+03 -5.90314E+03 -2.86033E+03
 -4.95373E+03 -5.59978E+03  2.91786E+03 -2.93386E+03  5.36945E+03  1.96864E+03 -2.71276E+03  3.25032E+03
 -7.10880E+03  6.25438E+03 -1.27853E+04 -1.12068E+03  1.46858E+03 -7.42944E+03  4.53096E+02 -4.25100E+03
  5.27094E+03 -3.54711E+03  9.77909E+03 -3.70911E+03  7.88088E+03  2.73136E+03  1.05339E+04  1.43725E+03
 -4.02659E+03 -6.07596E+03 -3.46783E+03 -2.18609E+03  3.99255E+03 -9.52323E+03  8.94317E+03 -9.61124E+03
  1.03636E+04  2.80757E+03  1.25276E+04  3.83306E+03  3.98547E+03  1.57878E+04 -5.89007E+03  1.77918E+04
 -8.17653E+03 -2.13644E+03 -6.64784E+03 -9.36233E+03 -8.58334E+03 -9.37262E+03  2.57781E+03 -1.85453E+03
  1.00336E+04  5.63543E+02  7.02712E+03  5.35596E+03  2.11729E+03  4.43877E+03  3.42110E+03  6.28559E+03
 -3.20558E+03 -4.63209E+03 -1.43676E+03  1.30904E+04 -5.69938E+03 -9.13345E+02  4.23540E+03 -3.74778E+02
 -1.60526E+03  1.78813E+03 -8.15817E+03  6.05104E+03 -8.26431E+03 -5.21831E+03 -1.53730E+04 -6.96944E+03
 -1.39662E+04 -1.05913E+04 -1.77006E+03 -1.44986E+04  1.10882E+04 -8.67446E+03  1.26872E+04 -9.23282E+03
  1.55317E+04  3.48212E+03  1.72560E+04  1.81593E+03  1.48730E+03  9.77580E+03 -8.01477E+03  5.61612E+03
 -4.90961E+03  9.78500E+03 -5.83755E+03  1.19171E+03 -1.23453E+03 -3.82321E+03 -3.85256E+03  6.13124E+03
  5.57165E+03  6.53736E+03 -7.23630E+03 -4.91081E+02 -2.50228E+03 -4.23980E+03 -2.44509E+02 -2.94820E+03
  1.77872E+03 -2.47329E+03  1.33855E+04 -2.44825E+01  8.14562E+03  5.15126E+03  5.72048E+03  1.20770E+04
 -2.38020E+03  1.08277E+04 -1.43660E+04  1.37242E+04 -1.70183E+04 -4.58049E+03 -7.23374E+03 -7.93904E+03
 -5.11770E+03 -7.01429E+03  3.45248E+03 -1.13346E+04  8.73251E+03 -2.52836E+03  7.19663E+03  2.67657E+03
  5.69859E+03 -2.65366E+03 -6.72450E+03  6.65195E+03 -7.54365E+03 -3.52985E+01  1.13018E+03 -5.19410E+03
 -6.25553E+02 -5.53670E+03  6.04647E+03 -1.83748E+03  1.08236E+04  4.96692E+03  1.65088E+03  9.22541E+03
 -6.29795E+03  1.33059E+04 -8.50329E+03 -6.45111E+02 -5.07994E+03 -1.02615E+04 -3.22613E+03 -9.56630E+03
  5.21863E+03 -1.08631E+04  5.39034E+02 -2.03806E+03  1.48871E+04  8.26856E+03  6.53373E+03  9.37838E+03
  3.07060E+03  7.61138E+03  3.05239E+03  9.07681E+03 -8.91868E+03  5.06662E+03 -5.51840E+03  3.90132E+03
  4.25537E+03 -5.69011E+03 -9.51037E+03 -3.61318E+02 -4.74042E+03  2.18988E+03 -6.12551E+03 -1.60647E+03
 -6.77873E+03 -3.33122E+03  1.85346E+03 -9.64409E+03  3.40280E+03 -5.22149E+03  5.32705E+03 -2.66148E+03
  2.10908E+02  9.01257E+03  5.02669E+03  5.54476E+03 -4.57951E+03  1.21763E+04 -8.69376E+03  5.00299E+03
