 $NMID ID='MM_0lb_SNR50_12hz_g55_38.RAW', FMTDAT='(8E13.5)'
 TRAMP=1., VOLUME=1. $END
  3.05716E+05 -4.43747E+02  3.32760E+05  2.46067E+05  8.29484E+04  3.38757E+05 -1.35352E+05  2.52344E+05
 -1.93275E+05  8.49922E+04 -1.10675E+05 -3.42939E+04 -2.15415E+03 -4.87836E+04  5.16156E+04 -3.23390E+03
  3.68303E+04  5.36816E+04 -1.98401E+04  7.76219E+04 -6.07466E+04  6.56724E+04 -8.70336E+04  3.21758E+04
 -8.19359E+04 -2.06179E+04 -5.74859E+04 -5.45932E+04 -1.07474E+04 -7.41427E+04  2.26112E+04 -5.03862E+04
  3.66900E+04 -1.86203E+03  1.43808E+04  5.27870E+04 -3.69714E+04  4.70371E+04 -6.79753E+04 -2.72666E+03
 -5.64914E+04 -5.76973E+04 -7.70352E+03 -8.03613E+04  3.76912E+04 -5.40812E+04  4.74048E+04 -2.02787E+04
  4.02925E+04  1.57154E+04  3.13663E+04  2.56368E+04  1.79450E+04  3.44267E+04 -1.93603E+03  2.29200E+04
 -2.15036E+04  1.10103E+04 -1.89634E+04 -2.03270E+03  1.68720E+03 -1.05809E+04  2.85775E+04  1.56206E+04
  1.34753E+04  3.60005E+04 -3.65417E+04  3.23713E+04 -6.23064E+04  4.70049E+03 -5.38381E+04 -3.92508E+04
 -1.48401E+04 -6.89981E+04  4.05604E+04 -4.84381E+04  6.02233E+04 -4.67779E+02  3.10376E+04  4.10014E+04
 -5.82660E+03  4.09215E+04 -3.42724E+04  8.40927E+03 -3.63435E+04  1.37507E+02 -1.68818E+04 -7.21639E+03
 -8.06603E+03 -1.49885E+04 -2.49870E+03 -1.54049E+04  4.62662E+03 -1.70334E+04  1.27355E+04 -1.80111E+04
  7.66970E+03  6.29562E+03 -1.43744E+04  1.67557E+04 -2.09128E+04 -3.32102E+03 -6.12341E+03 -3.55179E+04
  2.43570E+04 -4.70003E+04  4.73193E+04 -1.73979E+04  4.76849E+04  2.27254E+04  2.18848E+04  4.81550E+04
 -1.74807E+04  3.57720E+04 -2.49565E+04  1.22150E+03 -1.37042E+04 -2.65436E+04  1.55631E+04 -3.71920E+04
  4.73469E+04 -1.09583E+04  3.60898E+04  2.61851E+04  1.70719E+04  4.40642E+04 -4.02829E+03  4.80959E+04
 -4.07369E+04  2.96787E+04 -4.89052E+04  8.55898E+03 -4.75879E+04 -1.89363E+04 -2.53421E+04 -3.94901E+04
  6.33832E+03 -3.94777E+04  3.19006E+04 -1.48557E+04  3.01786E+04  1.28908E+04  1.76174E+03  2.26114E+04
 -1.43377E+04  8.76220E+03 -1.06886E+04 -8.15425E+03  2.93000E+03 -1.38969E+04  1.88285E+04  6.23498E+03
  1.21427E+04  2.23917E+04 -5.66197E+03  3.17524E+04 -2.27115E+04  1.48292E+04 -2.73758E+04 -5.99445E+03
 -2.04083E+04 -1.44647E+04 -1.32005E+04 -2.39739E+04  3.29213E+03 -2.16852E+04  1.47165E+04 -1.64746E+04
  3.51718E+04 -1.42164E+04  3.33251E+04  8.16772E+02  2.81560E+04  1.60518E+04  5.44338E+03  4.24917E+04
 -1.89187E+04  3.69935E+04 -2.81609E+04  6.21013E+03 -2.38796E+04 -5.68551E+03 -4.79680E+03 -1.36596E+04
  1.56848E+03 -2.89327E+03 -3.46615E+03  5.39325E+03 -1.30058E+04  2.82356E+03 -2.04551E+04 -7.02317E+03
 -1.07762E+04 -1.97583E+04  3.02576E+03 -2.33303E+04  1.81638E+04 -1.66754E+04  2.11211E+04 -9.61893E+02
  1.57962E+04  1.07952E+04 -3.56067E+03  2.01620E+04 -9.42451E+03  1.36708E+04 -1.86647E+04 -4.05583E+03
 -1.11983E+04 -2.46174E+04 -2.24819E+02 -2.68748E+04  1.56840E+04 -2.11064E+04  1.82974E+04 -7.69396E+03
  1.43252E+04 -1.72270E+03  1.33023E+04  6.31128E+03  2.54883E+03  5.53704E+03  1.35746E+04 -4.83958E+02
  1.91028E+04 -1.63802E+03  1.87683E+04  1.71320E+04  1.05070E+04  2.85289E+04 -5.18258E+03  3.73026E+04
 -1.99827E+04  3.75873E+04 -3.53971E+04  2.15564E+04 -4.24281E+04 -8.14713E+03 -2.68387E+04 -2.22618E+04
 -1.50844E+04 -2.90131E+04  1.01280E+04 -2.60116E+04  2.81297E+04 -1.13873E+04  2.10355E+04  6.58918E+03
  1.24640E+04  1.58818E+04 -1.35062E+04  1.35738E+04 -1.52293E+04  2.71616E+03 -1.36179E+04 -1.02145E+04
 -3.74212E+03 -1.51887E+04  1.08466E+04 -9.28242E+03  1.45452E+04 -1.22113E+03  3.08322E+03  1.23363E+04
 -1.35534E+04  8.00981E+03 -9.94552E+03 -3.07819E+03  3.01864E+03 -1.45685E+04  1.54927E+04 -1.69335E+04
  2.18121E+04 -8.17626E+03  1.80945E+04  2.07964E+03  1.58949E+04  1.83206E+04  9.79233E+03  2.49888E+04
 -1.87336E+03  2.75483E+04 -1.94172E+04  1.70061E+04 -2.06384E+04  3.60789E+03 -9.98052E+03 -7.72616E+03
 -5.62176E+03 -3.70853E+03 -3.15647E+02  4.38100E+02 -3.72061E+03 -1.03406E+03 -5.19122E+03  3.21124E+03
 -1.84744E+04  9.77157E+02 -9.46332E+03 -1.31302E+04  1.64315E+03 -1.45392E+04  7.55841E+03 -1.30733E+04
  7.52551E+03 -7.43499E+03  7.04194E+03  1.75876E+03 -1.74840E+03  1.09956E+04 -3.11432E+03 -2.88162E+02
 -5.67312E+03 -4.39675E+03  1.50107E+03 -9.38106E+03  3.33591E+03 -1.65966E+04  1.56236E+04 -7.19248E+03
  2.02533E+04  1.23773E+03  1.37255E+04  1.03823E+04  7.32374E+03  1.53364E+04 -4.22894E+03  1.14177E+04
 -1.63858E+04 -1.16972E+03 -7.85200E+03 -5.67972E+02 -3.75444E+03 -5.52289E+03  8.53487E+03  3.97241E+03
  1.26815E+03  8.23362E+03 -2.08013E+03  9.10062E+03 -7.85408E+03  8.57651E+03 -1.18060E+04  4.16183E+03
 -4.12249E+03 -4.71715E+03  4.63375E+03 -1.37533E+04  7.50703E+03 -5.38385E+03  7.37654E+03  3.00859E+03
 -2.60783E+02  3.06583E+03 -1.17331E+04  1.07199E+04 -1.36655E+04 -1.59770E+03 -7.80654E+03 -2.88690E+03
 -4.67908E+03 -6.28942E+03  6.52127E+03 -1.61524E+04  7.34957E+03 -1.34787E+04  1.06436E+04  3.18231E+03
  1.64953E+03  6.11095E+03 -1.25576E+03  1.23675E+04 -6.27139E+03  8.65598E+03 -8.34201E+03  5.84817E+01
 -9.02315E+03 -1.78341E+03  1.53237E+03 -9.31892E+03  7.25081E+03 -8.20226E+03  4.50352E+03 -7.55297E+03
  9.10142E+03  2.28655E+03 -1.83924E+03  2.92134E+03  1.35927E+03  2.08141E+03 -2.05836E+03 -1.01280E+04
  9.99159E+03 -1.69887E+03  1.07207E+04  4.54871E+03  8.13460E+03  4.79502E+03  8.41230E+03  1.34013E+04
 -6.49468E+03  1.80158E+04 -1.46247E+04  1.56084E+04 -1.12776E+04  4.78607E+03 -1.08091E+04 -5.42787E+03
 -1.32406E+04 -9.59102E+03  9.05725E+02 -1.08260E+04  6.42911E+03  2.21064E+03  7.61954E+02  1.29622E+03
  4.18172E+03 -3.19107E+02  5.98046E+03 -3.07082E+03  3.27729E+02 -1.06846E+03  4.93481E+03  1.26074E+03
  1.23635E+04  3.89187E+03  3.08778E+03  8.58132E+03  1.24566E+03  8.82695E+03 -7.39724E+03  7.45479E+03
 -6.41241E+03 -3.37086E+03 -4.69811E+03 -5.60648E+03  2.30145E+02 -1.60088E+04  1.09065E+03 -1.53384E+04
  9.33425E+03 -4.99716E+02  1.48642E+04  3.52540E+03  7.29261E+03  1.18508E+04 -8.27410E+02  7.65206E+03
 -2.38034E+03  1.37807E+04 -7.24453E+03  3.03735E+03 -9.97720E+03 -5.34494E+03  8.35813E+02  5.92624E+03
 -3.14807E+02  5.30488E+03 -3.01429E+03  2.77970E+03 -4.49908E+03  2.16055E+03 -8.60130E+03  9.38529E+02
 -5.04076E+03 -8.44526E+03  1.08092E+03 -1.26985E+04  5.58936E+03 -7.15853E+03  5.72080E+03 -6.14441E+03
  1.07319E+04  6.56649E+03  2.18793E+03  8.27111E+03 -1.48647E+02  4.44494E+03 -5.23419E+03  6.69393E+03
 -6.84638E+03 -1.43950E+03 -9.23217E+03 -1.55003E+03 -1.25806E+03 -7.02692E+03  3.00530E+03 -1.19270E+04
  6.04003E+03 -7.16327E+03  7.64806E+03  4.39697E+03  2.20714E+03  4.05868E+03 -4.07735E+03 -6.43204E+03
  2.39827E+03  3.18444E+03  9.51522E+02  1.80839E+03  3.67409E+03  5.61310E+03  6.29139E+03  6.24883E+03
 -1.08806E+03  7.99921E+03 -8.29735E+03  7.47050E+03 -1.22256E+04  1.12993E+02 -1.27347E+04 -8.04850E+03
 -7.94858E+03 -1.13629E+04  7.33929E+03 -1.32957E+04  4.64032E+03 -6.80986E+03  1.17854E+04 -4.20224E+03
  5.40043E+03  5.30093E+03  3.88331E+03  2.97214E+03 -9.80828E+01  6.11361E+03  6.58009E+02  9.17226E+02
 -3.02529E+03 -2.14647E+03  2.91236E+03 -3.82886E+03  5.70651E+03 -8.16975E+03  5.56360E+03 -2.02948E+03
  1.80927E+03  7.68353E+03  2.15071E+03  1.98894E+02 -1.07403E+03  7.46133E+03  2.57681E+03 -2.38928E+03
 -2.99933E+02 -1.93647E+03  1.14897E+04 -3.39186E+02  7.66295E+03  9.01129E+03 -1.73865E+03  3.01065E+03
 -2.26484E+03  8.92217E+02 -7.15565E+03  4.97458E+02 -3.83451E+03 -4.85868E+03 -8.09224E+02 -2.43814E+03
  7.83927E+03 -7.36289E+03 -5.67823E+02 -2.97449E+03  2.79486E+03  4.03800E+03 -1.14529E+03  5.62368E+03
 -2.12399E+03  7.04998E+03 -5.91489E+03 -4.11582E+03 -2.67080E+03 -9.73382E+03 -1.75657E+02 -5.74497E+03
  1.78996E+03 -4.38528E+03  2.53717E+03  1.48567E+03  2.07496E+03  1.75245E+03 -2.38567E+03  4.32403E+03
 -4.20418E+03 -8.24782E+03  1.76678E+03 -3.45510E+03 -1.35721E+03 -3.07438E+03  3.36598E+03 -3.96386E+03
  1.68972E+03 -1.97958E+03  6.90395E+03  5.65051E+03  3.34327E+03  9.61853E+03  2.69776E+03 -2.98665E+03
 -3.96454E+03  6.83960E+03 -4.19955E+03 -3.87464E+02 -6.31252E+03  3.86796E+03 -3.56477E+03  1.19835E+03
  6.73707E+03 -4.48954E+03  3.50884E+03  1.18737E+03  2.15741E+03  4.92583E+03 -1.09058E+03  8.24691E+03
 -6.99081E+02  1.44634E+01 -6.42064E+02 -7.99683E+02 -4.33658E+02  5.11565E+02 -2.50454E+03 -2.33373E+03
  1.86732E+02  4.22513E+03 -3.66429E+03  3.11537E+03 -8.09125E+03 -4.89579E+03 -4.36720E+03 -7.94310E+00
 -2.54532E+03 -6.69678E+03  3.96431E+03 -1.46216E+04  2.73030E+03 -2.83428E+03  3.82875E+03 -4.76743E+03
  1.01436E+04  2.80269E+03  6.53683E+03  1.63701E+03 -7.98297E+02  2.80684E+03 -8.57194E+03  9.32374E+03
 -9.46412E+02 -7.02349E+03  3.63387E+03 -1.97646E+03  1.43921E+03 -7.79248E+02 -5.34446E+02  3.64571E+03
  2.63358E+03  7.52671E+02 -3.82256E+03 -3.45532E+03  6.86798E+02 -3.91299E+03  5.89549E+01  2.94622E+03
  2.23423E+03 -3.01913E+03  3.10143E+03  2.31199E+03  9.67875E+03  9.00558E+02  9.19970E+02  1.07978E+04
 -3.61108E+03  1.23035E+03 -6.78749E+03  3.56051E+03 -9.94382E+03  1.24328E+03 -2.47245E+03 -5.26218E+03
 -4.64619E+03 -4.02192E+03  2.16242E+03 -6.87255E+03  8.22468E+02  4.50597E+03  3.74801E+03  4.91743E+02
  1.51257E+03  4.88034E+03  8.91756E+02  2.37255E+03 -1.96993E+03  3.11977E+02  3.63545E+03 -7.76590E+03
  3.33268E+02  1.97631E+03  3.96607E+03 -9.28121E+02 -5.52829E+02  1.78065E+03 -1.21586E+03  7.56052E+03
 -2.02928E+03  3.88764E+03 -9.76496E+02 -5.67489E+03 -4.67255E+02 -3.54889E+03  3.19045E+02 -5.77257E+03
  4.18652E+03 -5.80971E+03  4.04131E+03 -1.97372E+01  5.45824E+03  7.59297E+02  6.51629E+03 -1.56912E+02
 -1.08633E+03  3.43637E+03  2.94549E+02  2.97658E+03 -5.63889E+03  2.93543E+03 -2.63246E+03  1.36046E+03
 -4.96616E+03 -3.51639E+03 -5.00306E+03  4.40270E+03 -5.62049E+03 -1.41291E+02 -3.65538E+03 -7.42627E+02
 -2.97457E+03 -3.20577E+03 -1.67272E+03 -1.05087E+03 -3.46013E+03 -3.07018E+03  4.61581E+03  2.18500E+03
  8.48660E+03 -9.68905E+02 -1.83434E+02 -1.00168E+03 -1.00335E+03  2.22966E+03 -4.27686E+03  2.87033E+02
