 $NMID ID='MM_0lb_SNR50_13hz_g40_16.RAW', FMTDAT='(8E13.5)'
 TRAMP=1., VOLUME=1. $END
  3.08650E+05  3.09633E+03  3.39880E+05  2.50772E+05  8.34705E+04  3.36582E+05 -1.27102E+05  2.47644E+05
 -1.87410E+05  8.78921E+04 -1.13506E+05 -3.42269E+04  8.71468E+02 -5.39224E+04  5.83377E+04 -1.54219E+02
  3.36726E+04  4.77014E+04 -2.11024E+04  7.77099E+04 -5.69362E+04  6.64878E+04 -8.37478E+04  3.12542E+04
 -7.86573E+04 -1.52625E+04 -5.48484E+04 -4.97729E+04 -2.17756E+04 -7.29409E+04  2.75314E+04 -4.50956E+04
  4.30693E+04  6.60726E+03  1.79535E+04  5.33128E+04 -3.62102E+04  4.53483E+04 -6.69835E+04 -1.28991E+03
 -5.46101E+04 -5.59128E+04 -8.21303E+03 -8.02370E+04  3.13143E+04 -5.83696E+04  4.65690E+04 -2.01985E+04
  3.87473E+04  9.35382E+03  3.78722E+04  1.96225E+04  1.17599E+04  2.84907E+04 -7.53120E+03  2.92360E+04
 -2.11896E+04  1.23384E+04 -2.18290E+04 -6.17511E+03  4.51661E+03 -5.33451E+03  2.22774E+04  1.50707E+04
  9.02185E+03  3.63538E+04 -3.81935E+04  3.63393E+04 -6.47746E+04  3.28660E+02 -5.73221E+04 -4.55337E+04
 -1.68796E+04 -5.92038E+04  3.52519E+04 -4.60087E+04  5.68642E+04 -4.48178E+03  3.28353E+04  3.20083E+04
 -1.00667E+04  3.92201E+04 -2.89536E+04  1.62127E+04 -2.80371E+04  1.22098E+03 -1.53606E+04 -9.09638E+03
 -9.16799E+03 -1.49787E+04  4.43570E+03 -2.16541E+04  9.19091E+03 -2.31308E+04  9.79207E+03 -7.95865E+03
  1.06833E+04  5.92634E+03 -5.23406E+03  1.57486E+04 -1.98241E+04 -5.35911E+03 -7.03601E+03 -3.06464E+04
  2.47081E+04 -4.50482E+04  4.71400E+04 -2.18304E+04  4.67167E+04  1.91859E+04  1.69101E+04  4.79410E+04
 -1.55035E+04  2.97514E+04 -2.61855E+04  2.44199E+03 -1.32058E+04 -2.75365E+04  2.28492E+04 -3.28271E+04
  4.07509E+04 -6.66022E+03  3.39248E+04  2.10605E+04  1.75660E+04  4.61491E+04 -9.36239E+03  4.55792E+04
 -3.32165E+04  3.33703E+04 -4.25645E+04  1.36099E+04 -4.60158E+04 -1.42943E+04 -2.34641E+04 -3.47646E+04
  8.07733E+03 -3.41578E+04  3.27971E+04 -1.54391E+04  2.84825E+04  1.70745E+04  5.05743E+03  1.62355E+04
 -1.17901E+04  1.17276E+04 -1.40396E+04 -5.11111E+03  5.87425E+03 -1.05713E+04  1.60437E+04  3.93906E+03
  1.33579E+04  1.89669E+04 -6.83390E+03  2.70872E+04 -2.20126E+04  1.63525E+04 -2.26817E+04 -2.36721E+03
 -2.25959E+04 -1.90352E+04 -8.38638E+03 -1.96541E+04  4.51257E+03 -1.91472E+04  1.51299E+04 -2.20356E+04
  2.72880E+04 -1.54775E+04  2.93158E+04  4.94208E+03  2.92537E+04  2.00353E+04  3.23001E+03  3.49082E+04
 -2.20533E+04  3.28602E+04 -2.42019E+04  1.17745E+04 -1.93416E+04 -7.55750E+03 -4.03014E+03 -1.48472E+04
 -9.17577E+02 -3.28623E+03 -4.57747E+03  9.31053E+03 -1.60134E+04  9.72975E+03 -1.45534E+04 -7.44038E+03
 -5.44898E+03 -2.40103E+04  6.06886E+03 -2.09611E+04  1.79275E+04 -1.87689E+04  1.39345E+04 -7.17220E+03
  1.15036E+04  1.21466E+04 -1.14379E+03  1.97935E+04 -1.32270E+04  1.34420E+04 -1.76126E+04 -1.20296E+03
 -1.24566E+04 -1.43528E+04  1.68345E+03 -2.09956E+04  1.52215E+04 -1.41860E+04  2.14235E+04 -8.41536E+03
  1.28640E+04  9.24684E+02  1.54210E+04 -1.39554E+03  5.54055E+03  1.90333E+02  1.05092E+04 -4.08699E+03
  1.89458E+04  9.41987E+03  1.72168E+04  1.69968E+04  1.69026E+04  3.21805E+04 -4.54565E+03  3.24032E+04
 -2.03964E+04  3.10278E+04 -3.30487E+04  1.44881E+04 -2.97329E+04 -1.15417E+03 -2.78975E+04 -2.19559E+04
 -1.20327E+04 -2.61934E+04  1.47513E+04 -2.46837E+04  2.04198E+04 -1.60883E+04  1.74920E+04 -2.84736E+02
  7.94935E+03  1.36991E+04 -5.82168E+03  1.06498E+04 -1.56447E+04  4.15832E+03 -1.45725E+04 -1.09828E+04
  1.35338E+03 -1.48542E+04  9.04964E+03 -1.34676E+04  9.66437E+03  3.34348E+03  7.15238E+03  3.99344E+03
 -5.65616E+03  2.30435E+03 -3.63743E+03 -7.70562E+02 -1.40672E+03 -1.29488E+04  9.93852E+03 -1.50772E+04
  1.52268E+04 -7.20488E+03  1.47037E+04  1.74572E+03  1.84346E+04  1.57692E+04  4.45319E+03  2.54536E+04
 -3.12417E+03  2.24258E+04 -1.40285E+04  1.99869E+04 -1.68711E+04  2.21697E+03 -9.32340E+03 -5.52581E+03
 -6.52372E+03 -5.92602E+03  4.40037E+02  7.46920E+02 -2.74479E+01  2.63061E+03 -4.99368E+03  2.54864E+03
 -1.04464E+04 -2.74844E+03 -9.33609E+03 -1.17725E+04 -1.81028E+03 -1.30266E+04  8.13897E+03 -9.20798E+03
  4.23096E+03 -3.48424E+03  8.87435E+03  4.21613E+03 -3.57830E+01 -1.33576E+03 -4.11948E+03  2.75031E+03
 -4.91776E+03 -8.43886E+03 -2.30088E+02 -9.25958E+03  3.89077E+03 -8.74483E+03  1.43285E+04 -4.85271E+03
  1.83917E+04 -4.12464E+02  1.05920E+04  5.90279E+03  4.94861E+03  1.21096E+04 -6.36120E+03  1.49491E+04
 -9.90461E+03  3.53346E+03 -3.01569E+03 -5.89805E+03  3.96845E+03 -2.67935E+03  5.20819E+03  3.49008E+03
  5.69090E+03  2.63127E+03  3.13320E+03  6.72846E+03  1.01846E+03  1.09626E+04 -1.76433E+04  1.55456E+03
 -1.00471E+04 -7.77672E+03 -9.13709E+02 -1.02203E+04  1.01824E+04 -6.44857E+03  1.86469E+03  6.95943E+03
  5.23247E+03  6.27912E+03 -3.56640E+03  8.48732E+03 -1.04245E+04  1.11861E+03 -7.66536E+03 -2.33246E+03
 -3.40310E+03 -1.58175E+04  2.72882E+03 -1.34773E+04  1.17966E+04 -9.70071E+03  9.19735E+03  1.56571E+03
  3.85010E+03  5.81801E+03 -2.80031E+03  1.03885E+04 -9.41873E+03  7.94477E+03 -6.44991E+03 -4.24014E+03
 -5.78500E+03 -4.71820E+03 -4.23323E+03 -5.95853E+03  4.67711E+03 -3.43317E+03 -1.58540E+03 -3.47765E+03
  6.19395E+03  3.41011E+03  3.28722E+03  6.69382E+02 -1.70545E+03 -5.58225E+02  8.91310E+02 -6.84584E+02
  8.64255E+03 -1.15878E+02  7.72772E+03 -2.04630E+03  9.86732E+03  7.34499E+03  2.52982E+03  1.56500E+04
 -6.25159E+02  1.56413E+04 -1.25289E+04  1.27930E+04 -1.99018E+04  1.06648E+04 -1.02055E+04 -5.36324E+03
 -8.30260E+03 -1.02267E+04 -1.19100E+03 -1.08227E+04  7.73661E+02 -4.00578E+03  6.38191E+03 -4.04179E+03
 -1.69822E+03 -9.80261E+02  7.95657E+02 -3.54510E+03  3.24563E+03  2.43731E+03  7.37754E+03 -1.06321E+03
  2.90609E+03  1.21629E+03  8.56177E+02  9.53837E+03 -2.22917E+02  4.75843E+03 -6.96759E+03  5.69436E+03
 -8.28395E+03 -4.32897E+03  1.13818E+02 -7.34350E+03  1.21063E+03 -8.71792E+03  7.21538E+03 -6.62369E+03
  1.11441E+04 -8.23472E+02  1.55155E+04  7.72058E+02  1.12769E+04  8.81143E+03  4.95739E+03  8.35274E+03
 -1.19771E+03  5.14748E+03 -3.05203E+03  6.71016E+03 -8.38753E+03  3.41665E+03  4.17499E+03 -6.46667E+03
 -5.86412E+02 -2.12375E+03  2.07919E+03 -3.94832E+03 -5.19019E+03  6.85191E+02 -5.29711E+03  1.02589E+03
 -4.81465E+03 -6.04143E+03  3.06396E+03 -9.16377E+03  9.98183E+03 -1.03773E+04  5.91615E+03 -2.44745E+03
  9.20829E+03  5.24513E+03  3.24135E+03  9.80546E+03  1.28721E+03  8.28983E+03 -2.79819E+03  8.57738E+02
 -6.65757E+03  7.71523E+02 -5.31802E+03 -2.59115E+03  4.25046E+03 -5.04115E+03  3.00884E+03 -3.78882E+03
  4.69989E+03 -4.65588E+03  2.50174E+03  8.81284E+01 -3.34951E+03  4.34155E+03  1.87515E+03 -2.79887E+03
  1.75853E+03  1.71088E+03 -9.62738E+02  2.11534E+03  9.11058E+03  5.26808E+03  3.51779E+03  7.28953E+03
  1.45348E+03  8.65449E+03 -6.76651E+03  8.47549E+03 -7.42287E+03  7.46290E+02 -7.62848E+03 -3.70168E+03
 -7.78018E+03 -1.02133E+04  2.51499E+03 -9.85978E+03  5.79627E+03 -1.17578E+04  5.51299E+03 -7.33068E+03
 -8.87899E+01 -6.67018E+03  2.27237E+02 -1.08791E+03 -5.27709E+03  3.59146E+03 -2.09851E+03  2.61243E+02
  1.40516E+03 -7.56962E+03  5.15074E+03 -4.53151E+03  4.09636E+03 -3.58247E+03  2.17376E+03 -3.99851E+03
  7.26731E+02 -2.01319E+03  2.44060E+02  1.64255E+03 -3.85817E+03  1.09973E+04  3.10152E+03  6.76465E+02
  3.30674E+03 -6.62767E+03  5.97503E+03  4.48126E+03  2.07895E+03  6.76703E+03  1.49325E+03  6.11523E+03
 -3.98734E+03  4.74194E+03 -3.35871E+03  2.94092E+03 -6.36386E+03  2.57859E+03 -9.10134E+02 -2.01485E+03
  5.71361E+02 -3.34257E+03  1.09217E+03  6.67254E+02  2.65587E+02 -1.81540E+03 -1.93300E+03  4.05490E+03
 -3.10325E+02 -7.72583E+02 -3.05398E+03 -1.88392E+03 -3.39456E+03 -3.52737E+03 -2.32550E+03 -3.15268E+03
  2.26058E+03 -2.46035E+03  5.89797E+03 -4.37684E+03  3.33947E+03 -1.39794E+03  5.27607E+03 -4.66657E+03
 -3.02314E+03  1.49943E+03 -1.49394E+03  2.86167E+03 -3.83401E+03 -2.01557E+03  5.22313E+03 -3.96977E+03
  5.99389E+03  2.07412E+02  5.51699E+03  4.71305E+03 -1.77169E+03  6.73053E+03 -2.08715E+03  3.41469E+03
  1.92639E+01  1.66870E+03 -9.02294E+01 -9.84148E+02 -3.72354E+03 -7.19848E+02  2.02090E+02 -3.58528E+03
  3.71701E+03  7.63611E+02  1.13902E+03 -5.09966E+02  5.81300E+03 -2.73745E+03 -2.37576E+03  4.71077E+03
  2.62957E+03  1.92479E+03  2.87124E+03  9.37070E+02 -8.09882E+01  3.83433E+03 -1.94256E+03 -1.05072E+03
 -3.28608E+03  3.61818E+03  2.84888E+01  2.24008E+03 -4.50768E+03  3.08581E+03 -8.78029E+03 -5.13025E+03
 -6.16929E+03 -1.54953E+03  1.36087E+03 -8.03751E+03  3.87949E+03 -8.64763E+03  1.17124E+04 -3.31754E+02
  1.04311E+04 -1.51704E+03  4.53622E+03  3.86166E+03  7.33443E+03 -2.91079E+03 -3.66449E+03  3.40621E+03
 -2.27652E+02 -4.36165E+02 -5.53506E+03 -8.63306E+02  2.92592E+03  2.42811E+03 -1.45972E+03 -4.15566E+03
 -5.63935E+03  2.97845E+03 -8.70273E+02 -4.20353E+03 -1.61315E+03 -2.63668E+03 -1.71437E+03 -3.54698E+03
  2.22917E+03 -4.22705E+02 -1.18352E+03  8.34193E+02  2.66091E+03  7.73142E+02 -1.86411E+03  7.27233E+02
 -3.92526E+03  7.30885E+03 -5.24247E+03  3.39804E+02 -8.61677E+03 -2.00533E+03 -6.36346E+03 -5.75260E+03
  2.43128E+03 -2.42597E+03 -2.65319E+02 -4.84597E+03  3.75994E+03 -4.01307E+03  2.23912E+03  8.53800E+02
 -1.44898E+03  4.09603E+03  1.49846E+03  2.92498E+03 -2.03104E+03 -3.21306E+03  2.38050E+03  1.76234E+03
  1.26413E+03 -8.10653E+02  2.40621E+03  6.18857E+03  4.60363E+03  3.01728E+03 -2.78489E+03 -3.21354E+03
 -4.24664E+03  4.32661E+03 -3.59641E+03 -3.73213E+03 -3.11032E+03 -6.35855E+03  3.46592E+03 -4.88316E+03
 -1.03039E+03 -9.25015E+03  2.66625E+03 -2.16281E+03  7.11871E+03  3.13165E+03 -1.44360E+03  6.20809E+03
 -1.18835E+03  2.58637E+03  1.75832E+03 -2.58926E+03 -6.60698E+03  1.88877E+03 -7.98723E+03  1.08740E+04
 -9.25621E+02 -1.94838E+03 -5.74125E+03 -4.39269E+03  2.79668E+02  5.81795E+03 -7.34615E+03  3.79248E+03
 -1.97744E+03 -1.42041E+03 -1.56458E+03 -6.04301E+03  4.11759E+02 -5.33800E+02  3.36284E+03  1.52706E+03
  1.16004E+03 -3.83942E+02  2.49299E+02  2.73218E+03  2.22307E+03 -1.14162E+03  7.40573E+02  4.08170E+03
