 $NMID ID='MM_0lb_SNR50_9hz_g40_9.RAW', FMTDAT='(8E13.5)'
 TRAMP=1., VOLUME=1. $END
  3.16126E+05  3.08538E+02  3.39056E+05  2.47980E+05  7.93077E+04  3.39111E+05 -1.34277E+05  2.48519E+05
 -1.92273E+05  8.09682E+04 -1.11251E+05 -3.25139E+04 -2.89484E+03 -5.12224E+04  5.49259E+04 -4.59406E+02
  2.96140E+04  5.05340E+04 -1.40956E+04  8.27003E+04 -5.68718E+04  7.14092E+04 -7.98454E+04  3.19933E+04
 -8.20276E+04 -1.21246E+04 -5.12259E+04 -5.47112E+04 -1.09324E+04 -6.85425E+04  2.86953E+04 -4.75876E+04
  3.74200E+04  6.47458E+03  1.71869E+04  5.03507E+04 -3.81350E+04  4.97238E+04 -6.73465E+04 -3.01410E+01
 -5.59026E+04 -5.90748E+04 -1.47621E+03 -8.19381E+04  3.12260E+04 -5.31546E+04  4.43361E+04 -1.45232E+04
  3.99764E+04  1.17121E+04  3.11734E+04  2.89954E+04  2.34011E+04  2.95734E+04 -2.15566E+03  2.58851E+04
 -2.67045E+04  9.92721E+03 -1.36977E+04 -3.04976E+03  1.03757E+04 -5.97423E+03  2.56126E+04  1.81886E+04
  8.90161E+03  4.00530E+04 -3.81049E+04  4.34699E+04 -5.80157E+04 -2.56646E+03 -5.79334E+04 -4.66567E+04
 -1.08567E+04 -7.03378E+04  4.08378E+04 -5.17945E+04  5.86912E+04 -3.29335E+03  3.17021E+04  3.83885E+04
 -4.54473E+03  4.00239E+04 -2.85552E+04  1.84065E+04 -3.19310E+04 -1.29459E+03 -1.64289E+04 -1.04023E+04
 -1.14525E+04 -1.40616E+04  6.08155E+03 -2.25576E+04  5.17804E+03 -2.10260E+04  1.72893E+04 -1.58394E+04
  9.55637E+03  3.80067E+03 -1.27900E+04  7.31165E+03 -2.15122E+04 -1.03501E+04 -5.16017E+03 -4.70183E+04
  2.78569E+04 -4.62005E+04  4.88988E+04 -1.24237E+04  5.32720E+04  1.92925E+04  1.80970E+04  5.03816E+04
 -1.35785E+04  3.30333E+04 -2.61837E+04  3.09973E+03 -9.79410E+03 -2.90871E+04  2.10368E+04 -3.37986E+04
  4.55531E+04 -1.61654E+04  3.69256E+04  2.89605E+04  1.97928E+04  5.10585E+04 -7.37796E+03  5.52298E+04
 -4.00373E+04  3.28756E+04 -4.60489E+04  6.42104E+03 -4.37062E+04 -1.88428E+04 -2.34254E+04 -3.96914E+04
  4.64369E+03 -4.15993E+04  3.83343E+04 -1.16027E+04  3.26664E+04  6.67093E+03  6.77384E+03  1.74938E+04
 -1.21816E+04  1.39569E+04 -1.44247E+04 -1.32528E+04  5.30221E+03 -7.84817E+03  2.46101E+04  8.40433E+03
  1.30920E+04  2.27098E+04 -6.26002E+03  2.36014E+04 -2.14714E+04  5.21489E+03 -2.96685E+04  7.66938E+02
 -2.86317E+04 -1.55828E+04 -1.05439E+04 -2.04633E+04  5.53228E+03 -1.98810E+04  2.10601E+04 -1.80282E+04
  2.90140E+04 -1.58548E+04  3.44176E+04  4.68800E+03  2.34008E+04  2.23444E+04  5.31477E+03  3.49606E+04
 -2.22696E+04  2.96229E+04 -3.05894E+04  9.50851E+03 -1.56970E+04 -1.25877E+04 -3.88433E+03 -1.14799E+04
 -1.95809E+03 -5.63674E+03 -9.94615E+03  4.76895E+03 -2.42878E+04  1.79232E+03 -2.05137E+04 -9.71617E+03
 -1.34778E+04 -2.42921E+04  9.29909E+03 -2.98916E+04  1.52147E+04 -1.84105E+04  2.35503E+04  6.73644E+03
  1.60997E+04  1.92627E+04  3.70716E+03  1.96513E+04 -9.80473E+03  1.33263E+04 -2.41205E+04 -3.03298E+03
 -1.78254E+04 -2.27909E+04 -1.65284E+03 -2.60355E+04  1.43822E+04 -1.74202E+04  1.89955E+04 -1.67405E+04
  2.42431E+04  2.02422E+03  1.87340E+04  3.77434E+03  1.10167E+04  1.52977E+03  1.45965E+04 -5.13805E+03
  2.45035E+04 -1.38051E+03  2.58298E+04  2.41696E+04  1.69459E+04  3.70211E+04 -1.09603E+04  4.91590E+04
 -3.00017E+04  3.83196E+04 -4.46158E+04  2.21974E+04 -4.06325E+04  9.77326E+02 -3.06792E+04 -2.67893E+04
 -1.56373E+04 -4.05947E+04  1.38727E+04 -3.51517E+04  2.64582E+04 -1.44289E+04  2.88305E+04  3.36663E+03
  5.96390E+03  1.88293E+04 -1.45243E+04  1.15955E+04 -1.69577E+04  3.35483E+03 -1.75869E+04 -1.54825E+04
 -4.22527E+03 -1.77319E+04  1.45184E+04 -9.77675E+03  1.14683E+04 -2.44408E+02  7.38239E+03  1.20700E+04
 -1.36070E+04  4.08553E+03 -3.96381E+03 -5.97397E+03 -1.62279E+03 -1.86738E+04  1.08563E+04 -1.80868E+04
  1.77878E+04 -8.37365E+03  2.50376E+04  1.87093E+03  2.27052E+04  1.71993E+04  6.81946E+03  2.89019E+04
 -6.79966E+03  3.28988E+04 -1.26508E+04  2.26744E+04 -1.40465E+04  4.93757E+03 -1.22341E+04 -4.67777E+03
 -6.69754E+03 -7.02245E+03 -5.41235E+03  2.04809E+03 -1.23199E+03  9.73866E+03 -4.08197E+03  9.16549E+03
 -1.56806E+04  4.91591E+03 -1.71922E+04 -1.20235E+04 -2.69695E+03 -1.81549E+04 -5.49869E+01 -5.14002E+03
  7.95757E+03 -5.98487E+03  7.03702E+03  1.07465E+04 -1.36212E+03  5.22118E+03 -1.01021E+04 -4.05858E+02
 -1.35328E+04 -6.81195E+03 -4.66623E+03 -1.33320E+04  9.21732E+03 -2.15337E+04  1.92433E+04 -9.31272E+03
  2.10955E+04 -2.07973E+03  1.84626E+04  1.03162E+04  5.20389E+03  2.14741E+04 -7.36838E+03  1.97874E+04
 -1.52879E+04  6.81166E+03 -7.85347E+03 -4.60858E+02 -2.62009E+03 -5.99014E+03  1.20066E+04 -5.37947E+03
  6.14408E+03  5.60112E+03  5.35077E+03  8.55288E+03 -1.06659E+04  7.61099E+03 -1.34976E+04  7.59581E+02
 -3.06048E+03 -4.49402E+03  1.62825E+02 -4.05111E+03  1.13043E+04 -1.03230E+04  6.98270E+03  7.55577E+03
  4.48624E+03  8.76970E+03 -1.05326E+04  5.74838E+03 -1.30030E+04  5.97948E+03 -1.17663E+04 -3.24812E+02
 -3.04886E+03 -1.64797E+04  6.42702E+03 -1.40974E+04  2.01060E+04 -6.33760E+03  1.14092E+04  9.07141E+02
  1.28982E+04  1.31490E+04 -4.68596E+03  2.00004E+04 -1.42699E+04  3.34995E+03 -1.53528E+04 -1.69692E+02
 -8.12246E+03 -7.22186E+03 -1.21347E+03 -1.18003E+04  1.42010E+03 -8.30291E+03  1.29516E+04  2.45063E+03
  6.91423E+03  2.76516E+03 -5.32102E+03  4.12125E+03  1.97769E+02  1.52452E+03  2.64118E+03 -8.22431E+03
  1.47237E+04 -6.21770E+03  8.35626E+03  3.91544E+03  2.30682E+04  9.66741E+03  7.68323E+02  2.11779E+04
 -9.72477E+02  2.35213E+04 -1.81723E+04  1.38945E+04 -2.48188E+04  2.96503E+03 -1.94723E+04 -6.20772E+03
 -5.63862E+03 -1.56746E+04  1.86657E+03 -1.07953E+04  7.60233E+03 -1.09731E+04  4.58558E+03 -8.32150E+03
  2.85355E+02 -2.35743E+03  5.82132E+03 -9.74098E+03  2.90625E+03 -5.48309E+03  9.20958E+03  1.05740E+03
  1.74586E+04  3.30567E+03  4.17248E+02  1.10103E+04 -1.31828E+03  4.10748E+03 -8.13896E+03  3.92990E+03
 -9.67254E+03 -4.16266E+03 -6.30430E+03 -9.82734E+03 -1.19758E+04 -1.12984E+04  2.05219E+03 -1.36965E+04
  2.18386E+04 -4.54656E+03  2.40847E+04 -2.22792E+03  1.12678E+04  1.95195E+04  3.28233E+03  1.27487E+04
 -1.08663E+04  1.14361E+04 -6.51840E+03  3.36712E+03 -5.96548E+03 -2.80023E+02  1.15756E+03  2.49803E+03
  1.87398E+03  3.79216E+03 -3.47809E+03  1.03254E+03 -3.58556E+03  2.29082E+03 -7.47468E+03  2.89208E+03
 -5.85615E+03 -6.27725E+03  1.33589E+03 -1.12196E+04  1.13754E+04 -1.00972E+04  1.28461E+04 -4.68937E+03
  1.33985E+04  4.53279E+03  6.36387E+03  1.44089E+04  5.06788E+02  1.51316E+04 -1.13224E+04  2.10131E+03
 -1.44162E+04  2.75572E+02 -1.01533E+04 -8.74720E+03 -4.09321E+03 -7.33263E+03  9.52431E+03 -6.88950E+03
  1.34317E+04 -6.44446E+03  9.32167E+03  1.72660E+02 -4.55500E+03  3.37509E+03  2.16751E+03 -1.03343E+03
 -2.52288E+03 -1.90280E+03  3.92888E+03  7.70601E+03 -3.22508E+03  6.22227E+03  3.63306E+03  3.79760E+03
 -4.95428E+03  1.51213E+04 -1.42919E+04  6.71959E+03 -1.16406E+04  1.93437E+03 -1.87765E+04  5.27150E+03
 -6.63358E+03 -1.03956E+04  2.35898E+03 -1.06543E+04  6.01087E+03 -5.45481E+03  7.21560E+03 -7.39736E+03
  9.50872E+03  6.43754E+03  5.46006E+03  8.74308E+03 -8.90117E+03  9.94350E+03 -1.37183E+04 -5.56539E+03
  3.35833E+03 -1.22287E+04  1.06594E+02 -3.28593E+03  4.27888E+03 -5.31249E+03  9.29576E+03  3.71581E+03
  7.17542E+03  1.17472E+03 -4.54122E+03 -2.56100E+02 -3.30902E+02  4.92396E+03  7.55061E+03  3.74151E+03
  4.31972E+03 -3.70174E+03  6.21508E+03  2.82669E+03  6.70444E+03  4.93647E+03 -3.45773E+03  9.38513E+03
 -1.55937E+04  3.57274E+03 -6.68959E+03 -3.04547E+03 -7.09601E+03 -3.60365E+03 -1.06956E+04 -7.32608E+03
 -2.85854E+03 -5.96135E+03  6.50649E+03 -8.16762E+03  4.66944E+03  1.49378E+03  4.34580E+03  6.89593E+03
 -3.92230E+03  2.24323E+03 -1.05882E+04 -3.64035E+02 -1.66634E+03 -8.19344E+03 -1.68706E+03 -4.68549E+03
  2.95815E+02 -4.94370E+03  1.12982E+04 -1.67282E+03  6.01079E+03  3.44536E+03 -2.32221E+03  5.33337E+03
 -5.55682E+03 -4.02412E+03 -1.05822E+04  2.26463E+03  4.39829E+03 -8.07845E+03  1.24020E+04 -9.68474E+03
  1.05395E+04  5.61792E+03  7.11120E+03  5.63877E+03  3.73663E+03  7.04586E+03 -1.94760E+03  7.19521E+03
 -7.81959E+03 -1.33709E+02 -2.58457E+03  2.31718E+03 -2.89280E+03 -9.53107E+03  3.98030E+03 -4.42975E+02
  1.19677E+04 -3.90977E+03  8.94343E+03  5.31634E+03  3.49427E+03  8.11903E+03 -2.39791E+03  5.08056E+03
 -6.38405E+03  6.33010E+03 -4.93029E+03  2.05966E+03 -3.37130E+03 -6.95957E+03  1.58170E+03  2.30885E+03
 -1.35664E+03  7.21387E+03 -4.84474E+03  2.08786E+03 -1.39159E+04 -5.28461E+03 -1.43428E+04 -1.11822E+04
 -6.28284E+01 -1.35489E+04 -4.97605E+03 -2.26601E+04  6.27533E+03 -1.58033E+04  1.51575E+04 -6.23539E+03
  1.03482E+04 -1.33619E+03  3.60196E+03  5.41467E+03 -4.32732E+03  6.71922E+03 -1.50591E+03  7.41173E+03
 -4.18531E+03  6.67899E+03 -1.98661E+02  1.27068E+03 -3.85949E+03 -8.88624E+02 -4.26998E+03 -7.82420E+02
  2.10135E+03  5.68143E+03  9.07640E+02 -4.86143E+03  2.38394E+03  1.87013E+03  7.18685E+02 -8.19545E+03
  4.60023E+03  1.81485E+03  4.93031E+03  2.57081E+02  7.16986E+03  4.94608E+03 -3.00587E+03  4.04375E+03
 -5.15065E+03  1.22414E+04 -4.39219E+03  3.79020E+03 -1.53690E+04  9.27828E+02 -9.21138E+03 -5.88484E+03
  2.01621E+03 -1.01909E+04  6.77253E+03 -8.37171E+03 -1.42018E+03 -4.71983E+03  1.03257E+04 -2.65356E+03
  4.88817E+03  8.74173E+02  2.17222E+03  5.35370E+02 -2.57069E+03  4.55355E+03  4.12115E+03 -3.43450E+03
  2.61094E+03  5.59659E+03  4.85805E+03  4.41620E+03 -1.04935E+03  4.39162E+03  3.82941E+03  7.06662E+03
 -4.43947E+02  6.07084E+03 -7.68536E+03 -7.86880E+03 -6.10471E+03 -4.79105E+03 -3.11870E+02 -8.66003E+03
  6.23073E+03 -2.83758E+03  3.30655E+03 -3.25174E+03  8.80499E+03 -3.02936E+03  2.13973E+03  4.96954E+03
  4.68344E+03  6.07425E+03 -6.31806E+02  8.59532E+02 -4.15991E+03  4.72297E+03 -5.92987E+03  1.33322E+02
 -1.11669E+03 -5.92757E+00 -1.48509E+03  2.07409E+03 -3.55061E+03  4.38074E+02 -6.27292E+03 -1.83748E+01
 -2.43616E+03 -5.79811E+03 -3.61672E+03 -5.80513E+03 -2.76759E+01 -1.39710E+04  8.98239E+03 -3.67669E+03
  1.69964E+03  1.63851E+03  2.56615E+03  7.40630E+03 -4.81328E+03  5.74664E+03 -7.02107E+03  6.91684E+03
