 $NMID ID='MM_0lb_SNR50_7hz_g55_73.RAW', FMTDAT='(8E13.5)'
 TRAMP=1., VOLUME=1. $END
  3.10432E+05  2.07784E+03  3.29419E+05  2.45359E+05  8.23665E+04  3.28524E+05 -1.33207E+05  2.56089E+05
 -1.96172E+05  8.92558E+04 -1.09120E+05 -2.91555E+04  1.99966E+03 -5.00041E+04  5.89750E+04 -6.31169E+02
  3.48328E+04  5.51642E+04 -1.49984E+04  7.12089E+04 -6.66274E+04  7.00481E+04 -8.04362E+04  3.94666E+04
 -9.42641E+04 -4.79206E+03 -5.34229E+04 -5.30326E+04 -8.47672E+03 -7.29611E+04  2.53009E+04 -4.22851E+04
  4.16691E+04 -1.73445E+03  1.42113E+04  5.08655E+04 -3.77064E+04  5.45950E+04 -6.15887E+04 -1.53742E+03
 -5.69526E+04 -5.68813E+04 -7.22298E+03 -7.42000E+04  2.98125E+04 -6.43735E+04  4.93986E+04 -1.07315E+04
  3.88630E+04  8.74441E+03  3.35135E+04  2.53926E+04  1.47554E+04  2.31501E+04 -4.10069E+03  3.27899E+04
 -2.55252E+04  1.35604E+04 -1.83666E+04 -2.02083E+03  1.65254E+04 -1.16504E+04  2.56351E+04  1.27613E+04
  1.10589E+03  4.15563E+04 -3.56294E+04  3.07839E+04 -6.54529E+04 -1.70993E+03 -6.10575E+04 -4.14753E+04
 -1.22211E+04 -6.81819E+04  3.27688E+04 -4.36749E+04  6.29357E+04  4.10657E+03  3.80421E+04  3.88354E+04
 -4.91263E+03  4.56051E+04 -3.43168E+04  2.40894E+04 -3.40954E+04 -5.04349E+03 -1.53669E+04 -1.13608E+04
 -7.65700E+03 -2.04396E+04  2.83512E+03 -1.99622E+04  6.44470E+03 -2.06728E+04  1.49003E+04 -1.55641E+04
  1.16708E+04  9.30527E+03 -1.45786E+04  2.27756E+04 -2.60210E+04 -1.37789E+04 -6.39685E+03 -3.12780E+04
  2.75699E+04 -4.96272E+04  5.32255E+04 -3.07256E+04  5.18440E+04  2.20465E+04  1.69792E+04  4.77007E+04
 -1.76839E+04  4.36661E+04 -3.05962E+04  6.18069E+03 -2.11299E+04 -3.44183E+04  2.48652E+04 -3.94363E+04
  4.46635E+04 -2.03797E+04  4.72092E+04  2.34392E+04  1.94529E+04  5.18819E+04 -1.61052E+04  5.69887E+04
 -3.95351E+04  3.41246E+04 -5.36644E+04  5.93447E+03 -5.35032E+04 -2.02906E+04 -2.05426E+04 -3.94303E+04
 -2.55314E+02 -4.33758E+04  3.68834E+04 -1.93710E+04  3.92515E+04  1.28544E+04  5.93329E+03  2.30059E+04
 -2.19001E+04  5.71232E+03 -1.06584E+04 -6.29802E+03  2.72579E+03 -1.54239E+04  1.46295E+04  8.69021E+03
  1.87755E+04  2.10497E+04 -7.54326E+03  2.35953E+04 -1.86099E+04  1.75667E+04 -3.14673E+04  1.94172E+03
 -3.04112E+04 -2.05294E+04 -1.69901E+04 -3.07633E+04  7.68955E+02 -3.17445E+04  1.68742E+04 -3.06431E+04
  3.85544E+04 -1.27792E+04  3.99492E+04  4.82593E+03  3.07415E+04  2.65152E+04  5.67293E+03  4.83415E+04
 -2.28453E+04  3.61759E+04 -3.23729E+04  9.52676E+03 -1.84217E+04 -5.89702E+03 -5.54518E+03 -1.26916E+04
  1.53827E+03  6.05825E+03 -1.27471E+04  9.21483E+03 -2.32014E+04  1.02605E+04 -1.78075E+04 -1.12751E+04
 -1.67105E+04 -2.26984E+04  5.83079E+03 -3.30093E+04  1.78131E+04 -1.61559E+04  2.86032E+04  3.99974E+02
  1.84407E+04  1.40659E+04  3.74858E+03  2.84694E+04 -1.82779E+04  1.75004E+04 -2.68846E+04 -1.22642E+02
 -2.48853E+04 -2.07890E+04  1.11118E+03 -2.99463E+04  1.75569E+04 -2.36924E+04  2.23261E+04 -1.66384E+04
  2.26795E+04  5.26802E+03  1.28837E+04  3.71304E+03  3.06381E+03  1.48912E+03  1.29135E+04  1.74464E+03
  2.12644E+04  8.08451E+03  2.52532E+04  1.80439E+04  1.85300E+04  4.24496E+04 -7.37782E+03  5.12184E+04
 -2.15809E+04  4.03229E+04 -4.89015E+04  3.03851E+04 -5.06416E+04 -1.02724E+03 -4.69754E+04 -2.98352E+04
 -1.75787E+04 -3.61815E+04  1.88446E+04 -3.87678E+04  3.19882E+04 -2.07720E+04  2.36656E+04  2.07811E+03
  1.00251E+04  1.62935E+04 -1.33034E+04  1.79116E+04 -9.56918E+03 -1.99792E+03 -2.34001E+04 -1.07524E+04
  3.07050E+03 -2.31245E+04  7.51834E+03 -1.49220E+04  1.73919E+04 -2.35237E+03  8.41574E+03  1.09872E+04
 -1.27653E+04  7.33268E+03 -3.68054E+03 -9.50963E+03  8.28861E+03 -2.29135E+04  7.42682E+03 -2.12993E+04
  2.33808E+04 -1.35955E+04  2.28899E+04  6.48725E+03  2.28750E+04  1.62207E+04  1.13049E+04  3.72809E+04
 -2.96085E+03  2.59805E+04 -2.90573E+04  2.63113E+04 -2.72195E+04  3.99348E+03 -1.67112E+04 -4.32374E+03
 -1.01708E+03 -5.37466E+03 -7.92359E+03  1.59182E+03  1.35117E+03  3.06831E+03 -5.16383E+03  7.58229E+03
 -1.31858E+04 -1.03161E+03 -1.55820E+04 -1.44089E+04 -5.26223E+03 -1.53223E+04  1.33370E+04 -2.13124E+04
  2.38007E+04 -5.78183E+03  1.53560E+04  5.45399E+03 -3.69549E+03  2.35511E+03 -6.97096E+03 -2.36581E+03
 -8.08499E+03 -1.15710E+04  3.95074E+03 -2.06921E+04  1.24678E+04 -2.27154E+04  1.59020E+04 -2.13036E+02
  2.92145E+04  1.41854E+04  1.86002E+04  1.52802E+04 -1.42019E+03  2.33005E+04 -9.70626E+03  2.09337E+04
 -1.66147E+04 -4.59380E+03 -7.96286E+03 -2.92609E+03 -2.93024E+03  2.78403E+02  2.93102E+03 -5.05281E+03
  4.18038E+03  1.18809E+04  1.63538E+03  1.58654E+04 -8.86777E+03  1.74450E+04 -1.61169E+04  9.96778E+02
 -1.66884E+04 -9.76859E+03  5.64854E+02 -1.89455E+04  8.32907E+03 -1.14550E+04  1.38517E+04 -8.14827E+03
 -1.39588E+03  7.80900E+03 -1.18837E+04  1.25804E+04 -1.71062E+04  5.00044E+03 -1.24021E+04 -1.67103E+04
 -6.40390E+03 -1.89952E+04  1.61284E+03 -2.14970E+04  1.87392E+04 -1.09225E+04  2.08560E+04 -3.65030E+03
  1.22148E+04  1.28515E+04 -3.37315E+03  1.75831E+04 -6.99417E+03  1.21644E+04 -1.58632E+04 -2.57634E+03
 -1.97110E+04 -1.15480E+04 -5.92556E+03 -1.09211E+04  2.25738E+03 -8.15015E+03  1.24533E+04 -6.61369E+03
 -1.68487E+03  9.39644E+03  5.34192E+03 -4.34376E+03  3.54727E+02 -1.07385E+04 -5.37518E+00 -1.09125E+04
  1.40358E+04 -1.01310E+04  1.94972E+04 -1.69072E+03  1.83168E+04  1.84727E+04  1.32249E+04  2.49572E+04
 -6.33937E+03  3.11901E+04 -2.49995E+04  2.46448E+04 -3.52122E+04  7.04035E+02 -2.64533E+04 -8.98725E+03
 -1.61902E+04 -1.37215E+04 -2.60945E+03 -1.97663E+04  7.07630E+03 -9.34694E+03  6.72330E+03 -9.13096E+03
  2.31421E+03 -3.54818E+02  6.34589E+03 -5.35643E+03  2.57173E+03 -4.33143E+03  1.29932E+04 -7.31651E+03
  9.05042E+03  7.56762E+03  1.31962E+04  1.89769E+04 -7.03960E+03  1.12296E+04 -2.12345E+04  1.65784E+04
 -1.76734E+04 -3.48262E+03 -1.74857E+04 -1.09514E+04 -6.14381E+02 -1.68788E+04  8.59604E+03 -2.09627E+04
  2.55129E+04 -1.20928E+04  2.58026E+04  7.62829E+03  1.73723E+04  1.05076E+04  1.45159E+03  2.46660E+04
 -8.30411E+03  1.58879E+04 -1.75759E+04  9.65869E+03 -1.28071E+04 -6.54574E+03 -3.50813E+03 -7.04228E+03
 -2.12168E+03  5.80282E+02 -4.12404E+03  1.52676E+04 -1.90342E+03  2.48011E+03 -1.05495E+04 -2.28180E+03
 -3.64122E+03 -1.60984E+04  4.20164E+03 -1.63308E+04  1.84076E+04 -1.84271E+04  1.75480E+04 -1.13625E+04
  1.84017E+04  5.42103E+03  9.22416E+03  1.20630E+04  1.30055E+03  2.82363E+04 -1.87331E+04  3.31522E+03
 -1.36814E+04 -1.28455E+03 -1.87710E+04 -5.49810E+03  8.36109E+01 -1.35466E+04  7.72662E+03 -1.37804E+04
  4.13567E+03 -4.02894E+03  5.03142E+03  1.02857E+04  3.37758E+03  7.02854E+03 -6.36938E+03  5.69617E+03
  5.22363E+03  2.37730E+03  4.96955E+03 -3.22352E+03  3.32326E+03  4.47927E+03  5.99359E+03  1.32593E+04
  1.14437E+03  1.47102E+04 -9.71584E+03  9.60760E+03 -2.06750E+04  6.42777E+03 -2.09652E+04 -1.09885E+04
 -1.49869E+04 -2.28565E+04  1.46416E+03 -1.94452E+04  1.77003E+04 -1.53306E+04  2.63200E+04 -2.85758E+03
  8.73047E+03  4.18308E+03  5.63979E+03  1.49143E+04 -1.49973E+03  1.01328E+04 -1.63235E+04 -2.11563E+02
  2.95936E+03 -8.05410E+03  8.17362E+03 -1.13129E+04  8.51917E+03 -3.92071E+02  6.01601E+03 -1.96466E+02
  7.77958E+03  4.97737E+03 -3.87444E+03  8.78355E+03 -9.10718E+02 -2.18813E+03  9.59078E+02  2.11117E+03
  6.26329E+03  3.30614E+03  9.13497E+03  3.03640E+03 -3.85934E+03  1.12345E+04  3.36716E+03  1.68743E+04
 -8.14296E+03  1.21215E+04 -1.67445E+04  4.98596E+03 -2.03174E+04 -8.80500E+02 -6.57220E+03 -3.97176E+03
  1.63048E+02 -2.75436E+03  1.01000E+04 -2.95836E+03  7.11049E+03  1.27159E+04 -9.72658E+03  6.50083E+03
 -1.35881E+04 -1.38850E+03 -1.54349E+03 -6.91443E+02 -9.23243E+03 -1.43401E+04  7.46103E+03 -2.14339E+04
  6.54012E+03 -9.40076E+03  5.90888E+03 -3.70113E+03  4.51823E+03 -1.59967E+03  5.19024E+03  4.99365E+03
 -6.85943E+03  2.81970E+03 -8.88943E+03 -5.46813E+03  8.31632E+02 -1.36403E+04  6.10559E+03 -9.89492E+03
  1.55182E+04  7.63728E+03  1.34856E+04  1.07881E+04 -2.91978E+03  1.56902E+04 -7.78166E+03  1.61780E+04
 -9.63085E+03  1.26604E+03 -7.73900E+03 -3.26813E+03  3.22729E+03 -1.59157E+04  6.36073E+02 -5.88131E+03
  6.93764E+03 -3.00621E+03  9.59905E+03  3.07231E+02  1.37633E+03  1.15320E+04 -3.88471E+03  7.93946E+03
 -1.00414E+04  8.51505E+03 -4.39004E+03  1.08617E+04 -5.29953E+03  2.92789E+03 -6.60270E+03  3.81163E+03
 -1.19434E+03  8.84312E+03 -1.36738E+04  5.80163E+03 -1.94904E+04 -4.83795E+03 -2.34885E+04  1.10864E+03
 -8.27867E+02 -1.60142E+04 -1.07792E+04 -2.28122E+04  1.00936E+04 -1.28309E+04  2.21694E+04 -2.05552E+03
  2.28633E+04 -7.13806E+02  1.06607E+04  1.76486E+04 -4.29899E+01  1.15492E+04 -5.37082E+03  1.35450E+04
 -7.83760E+03 -2.12830E+03 -2.26389E+03 -1.22329E+03  1.67399E+03  5.52272E+02  2.96680E+02 -9.86839E+02
 -5.84872E+02  2.66088E+03 -1.06439E+04 -2.78187E+03 -7.58755E+03 -5.56066E+03  5.26176E+03 -6.50464E+03
  1.31464E+04  3.29637E+03  1.52762E+04  5.74072E+02  1.53916E+04  2.46716E+03 -4.09470E+02  1.88802E+04
 -1.76713E+04  1.56274E+04 -1.66732E+04  4.63769E+03 -2.30706E+04  1.25751E+03 -1.80144E+04 -1.23063E+04
 -9.96300E+03 -1.23008E+04  9.78402E+02 -1.37260E+04  1.19082E+04 -9.58133E+03  7.05476E+03 -1.23111E+03
  1.23074E+04  4.74073E+03 -2.65798E+03  5.70434E+02  3.10281E+03 -5.68563E+03  6.73634E+03 -3.21797E+03
  3.07576E+03  1.66058E+03 -4.15903E+01  2.70090E+03  6.98549E+03  5.66367E+03 -3.82741E+02  4.48609E+03
 -8.26542E+03  1.13906E+04 -7.83900E+03  3.03231E+03 -9.31138E+03 -1.92219E+03 -2.61879E+03 -1.24196E+04
  1.47643E+04 -1.13301E+04  9.73624E+03 -2.81188E+02  1.77739E+04  6.42792E+03  2.81767E+03  9.80195E+03
 -1.88358E+03  6.07875E+03 -5.88055E+03  1.02853E+04 -4.88544E+03  4.70487E+03 -5.48850E+03  3.64034E+02
 -1.99377E+03  6.78227E+02  8.29934E+02  3.89115E+03 -5.89558E+03  5.75446E+03 -6.22834E+03  7.37000E+01
 -8.76805E+03  2.71028E+03 -6.45645E+02 -1.79016E+04  1.08456E+04 -9.29366E+03  1.61881E+04 -4.89390E+03
  1.08623E+04  2.42891E+03  6.37342E+03  7.17437E+03 -5.96479E+03  5.81179E+03 -8.71556E+03  4.54633E+03
