 $NMID ID='MM_0lb_SNR50_20hz_g40_23.RAW', FMTDAT='(8E13.5)'
 TRAMP=1., VOLUME=1. $END
  3.11307E+05  1.37615E+03  3.37419E+05  2.51864E+05  8.50945E+04  3.38598E+05 -1.30566E+05  2.53342E+05
 -1.89564E+05  8.10601E+04 -1.10506E+05 -3.72708E+04  2.01276E+03 -4.99957E+04  5.51239E+04  2.06858E+02
  3.42599E+04  5.32951E+04 -2.06858E+04  7.42883E+04 -5.97471E+04  6.10467E+04 -8.28451E+04  3.01349E+04
 -7.80401E+04 -9.60627E+03 -5.64578E+04 -4.97301E+04 -1.46223E+04 -6.88026E+04  2.59644E+04 -4.10593E+04
  3.68415E+04  1.41631E+03  1.49498E+04  4.38023E+04 -3.42788E+04  4.69492E+04 -6.77072E+04 -1.13342E+03
 -5.16506E+04 -5.48923E+04 -4.82313E+03 -7.52161E+04  3.07809E+04 -5.57140E+04  4.72440E+04 -1.79358E+04
  3.94202E+04  1.67084E+04  2.81828E+04  2.56374E+04  1.48053E+04  3.01909E+04 -3.07748E+03  2.13873E+04
 -1.82616E+04  1.36526E+04 -1.92984E+04 -2.08841E+03  2.14327E+03 -5.22027E+03  1.96667E+04  1.30690E+04
  4.33429E+03  3.12973E+04 -2.75723E+04  3.67935E+04 -5.84377E+04  2.06062E+03 -5.22568E+04 -4.02966E+04
 -1.44636E+04 -6.03682E+04  3.71388E+04 -4.13896E+04  5.30749E+04 -2.09779E+03  2.71140E+04  3.13416E+04
 -5.21410E+03  3.15612E+04 -2.79690E+04  1.37101E+04 -2.39176E+04 -7.28898E+03 -1.56916E+04 -6.96848E+03
 -7.54150E+03 -9.49447E+03  1.83264E+03 -1.40512E+04  6.18127E+03 -2.14054E+04  1.70184E+04 -1.75708E+04
  8.83711E+03  4.78663E+03 -9.18934E+03  1.10543E+04 -1.90401E+04 -4.59480E+03 -7.63767E+03 -2.98399E+04
  2.05873E+04 -3.93632E+04  4.43391E+04 -1.93675E+04  3.97453E+04  1.69757E+04  1.53569E+04  3.86531E+04
 -1.92464E+04  3.26443E+04 -2.45819E+04  4.91138E+03 -5.68076E+03 -2.36740E+04  1.83374E+04 -2.85146E+04
  3.68465E+04 -5.95570E+03  2.82166E+04  2.37611E+04  1.22971E+04  4.15567E+04 -6.24169E+03  4.46214E+04
 -2.83482E+04  2.49593E+04 -3.53434E+04  6.51918E+03 -3.68003E+04 -1.11096E+04 -2.37888E+04 -3.46468E+04
  5.52903E+03 -3.51224E+04  2.53531E+04 -9.67403E+03  2.30903E+04  9.27277E+03  4.60674E+03  1.85832E+04
 -1.61954E+04  6.87802E+03 -7.54452E+03 -5.52277E+03  5.35482E+03 -8.00578E+03  1.97801E+04  5.33812E+03
  1.05648E+04  2.03747E+04 -7.07063E+03  1.97127E+04 -2.17099E+04  8.24908E+03 -2.31810E+04 -6.67247E+03
 -1.46886E+04 -1.72110E+04 -1.91425E+03 -1.46049E+04  2.15140E+03 -1.67042E+04  1.20277E+04 -1.48600E+04
  1.93300E+04 -9.29945E+03  2.48057E+04 -3.58157E+03  1.84953E+04  1.60128E+04  3.90944E+03  3.12012E+04
 -1.46266E+04  3.04497E+04 -2.38836E+04  6.65254E+03 -1.98294E+04 -1.07177E+04 -3.74405E+03 -1.56991E+04
  3.59636E+03 -8.14083E+03 -8.73756E+02  4.27826E+03 -1.09375E+04  3.06268E+03 -1.48906E+04 -4.36751E+03
 -7.64004E+03 -1.21269E+04  5.85767E+03 -1.94381E+04  1.25197E+04 -1.30581E+04  1.31778E+04 -4.23416E+03
  6.98594E+03  1.42443E+04  2.53151E+03  1.81740E+04 -1.00001E+04  3.20523E+03 -1.43208E+04 -6.18310E+03
 -7.96152E+03 -1.06473E+04 -2.22759E+03 -1.78859E+04  7.79041E+03 -1.61024E+04  1.83733E+04 -7.49801E+03
  1.74794E+04  1.99474E+02  5.86751E+03  7.10160E+03  9.28448E+03  1.40849E+03  8.29581E+03 -4.74740E+01
  9.03769E+03  3.46442E+02  1.14597E+04  8.49697E+03  6.38412E+03  2.09375E+04 -3.80988E+03  2.34110E+04
 -1.39011E+04  1.79716E+04 -1.98171E+04  8.86913E+03 -2.35523E+04 -4.97058E+03 -2.01638E+04 -1.23625E+04
 -1.12065E+04 -1.99395E+04  4.95363E+03 -1.88026E+04  1.73694E+04 -1.30072E+04  9.56023E+03  3.62708E+03
  6.99514E+03  7.20379E+03 -7.22365E+03  8.10909E+03 -1.02316E+04 -3.82123E+02 -1.05636E+04 -7.91728E+03
  2.08466E+03 -1.20002E+04  2.21388E+03 -6.63981E+03  1.27034E+04 -1.31983E+03  2.08926E+03  5.01692E+03
 -7.00632E+03 -3.49087E+03 -1.34240E+03 -7.65534E+03  3.91593E+02 -4.09458E+03  8.19482E+03 -9.95353E+03
  1.20631E+04 -5.59577E+03  8.74834E+03  3.02363E+03  6.95255E+03  9.67604E+03  5.30457E+03  8.34126E+03
  2.44488E+03  1.30612E+04 -5.11267E+03  7.61754E+03 -4.13676E+03 -1.77488E+02 -7.05948E+03  2.66592E+03
 -3.53447E+03 -5.58011E+02  6.56098E+02  5.18547E+03 -2.12236E+03  1.85467E+03  2.29746E+03  1.13337E+03
 -5.38181E+03  1.15233E+03 -7.26004E+03 -7.66456E+03 -3.32705E+03 -7.45448E+03  5.41405E+03 -6.00541E+03
  3.71241E+03 -4.37426E+03  4.45031E+03  2.47461E+03 -2.14604E+03  2.25445E+03 -1.74678E+03  2.44172E+03
 -2.13471E+03 -3.39463E+03 -2.05336E+03 -5.05259E+03  8.13978E+03 -5.88364E+03  9.44227E+03 -3.85872E+03
  9.28468E+03  9.33157E+02  6.41976E+03  4.82597E+03  3.43778E+02  6.66691E+03 -6.39714E+03  6.72909E+03
 -9.14903E+03 -2.43265E+02 -6.14030E+03 -2.66380E+03  1.49105E+03 -5.09079E+03  7.44168E+03 -8.40262E+02
  3.64623E+03  3.60273E+03  2.66412E+03  6.79870E+03 -3.53337E+02  2.90682E+03 -7.27972E+03 -2.35212E+02
 -7.66968E+03 -2.32533E+03  7.64228E+02 -4.95417E+03  5.34964E+03 -4.93993E+03  1.47613E+03  1.82518E+03
  1.36741E+03  2.67338E+03 -2.75332E+03  4.11228E+03  6.53546E+01  2.08083E+03 -3.77579E+03  1.96033E+03
 -1.00329E+03  8.50314E+02 -4.48010E+03 -4.12836E+03  5.05452E+03 -5.63643E+03  5.06026E+03 -2.51035E+02
  2.18994E+03  3.84657E+03 -1.50782E+03  7.16908E+03 -3.35745E+01  6.35338E+03 -5.24745E+03 -1.80722E+03
 -2.10981E+03 -6.71927E+03 -1.10405E+03 -7.58911E+03  1.13683E+03 -6.86251E+03  7.24710E+03 -3.04007E+03
  5.09588E+03 -2.86992E+03  7.41037E+02  6.58378E+03  1.03543E+03  2.01341E+02  6.07656E+02 -6.39918E+02
  7.81364E+02  2.97468E+03  1.94092E+03  2.02240E+03  3.93171E+03  3.54575E+03  4.74051E+03  3.84397E+03
 -1.01349E+03  5.88516E+03 -7.81327E+03  7.50913E+03 -9.53340E+03  1.66794E+03 -9.29483E+03 -3.03939E+03
 -2.23431E+03 -2.90077E+03  8.44786E+01 -4.65232E+03  7.15563E+02 -2.33229E+03  2.54435E+03 -1.41557E+03
 -3.58956E+02 -4.25007E+03  1.15282E+03 -3.84936E+03  6.29092E+03 -3.60409E+03  4.57574E+03  3.36507E+03
  7.31642E+03 -2.48261E+03 -1.89355E+03  2.25537E+03 -2.60878E+03  1.21612E+03 -2.67863E+03 -1.14520E+02
 -3.18364E+03 -2.12719E+03 -3.00582E+03 -6.68512E+03  1.83487E+03 -6.92215E+02  7.17274E+02 -5.26364E+03
  6.36272E+03  1.73643E+03  6.29757E+03  8.09284E+02  5.53758E+03  1.74396E+03 -1.18476E+03  5.55976E+03
 -2.92842E+03  3.02173E+03 -2.86845E+03  2.30312E+03 -1.13149E+03 -4.27138E+01  2.68557E+03 -1.36765E+03
 -1.05554E+03  3.16803E+03 -5.04107E+03  3.79169E+03 -6.08573E+03  1.19241E+03 -3.12868E+03 -2.67884E+03
 -1.60338E+03 -2.24176E+03  4.10680E+03 -2.30401E+03  2.04284E+03 -6.55201E+03  8.08640E+02 -3.90918E+03
  3.79900E+03  5.98124E+03  5.14146E+03  1.16162E+03 -5.74532E+03  7.33890E+03  2.57786E+03 -2.08190E+03
 -2.69197E+03 -2.73360E+03 -3.11231E+03  2.31854E+03  9.19585E+02 -4.72883E+03  2.88389E+03 -1.63331E+03
  3.33907E+03  1.70930E+03  1.98466E+03 -1.19470E+03  1.50582E+03  1.60920E+03 -1.05577E+03 -1.22559E+03
  5.09675E+03  1.29733E+03  1.81999E+03 -2.51330E+03 -4.35011E+03  3.29857E+03  1.31330E+03 -2.10106E+03
 -1.15223E+03  1.20100E+03  3.15888E+03  1.09969E+03  8.04392E+02 -4.06476E+02 -4.22564E+03 -3.54761E+03
  4.98296E+02 -7.42334E+03 -9.77437E+02 -4.00512E+03 -2.67998E+03 -2.84878E+03  4.29391E+03 -9.14982E+02
  2.32115E+03  2.72763E+03  2.33639E+03  3.25529E+03 -2.38132E+03  5.13153E+02 -1.12319E+03 -6.19238E+01
 -2.29406E+03 -8.50413E+02  1.62426E+03 -1.70973E+03 -2.27346E+03 -6.78216E+02 -2.53019E+03  1.99679E+03
 -3.72542E+03  5.63771E+03  1.89272E+02 -1.71935E+03  1.92568E+02  3.34350E+03  3.74051E+03 -4.58761E+02
 -2.21913E+02 -1.78190E+03 -3.84331E+03  1.24823E+03 -1.18493E+03  4.73564E+03  4.60041E+02  2.73640E+02
  4.35273E+02 -1.20402E+03 -6.18293E+02  2.61804E+03 -5.23025E+03  3.35570E+03  2.34843E+03  9.72980E+02
 -6.21022E+02  6.72247E+02  6.44439E+03 -4.68789E+02 -1.38871E+03 -1.09944E+03 -2.46669E+03 -1.20103E+03
  3.04562E+03 -4.96383E+03 -4.67227E+03 -1.93329E+03 -2.38360E+03 -3.57097E+03  3.54387E+03  1.01865E+03
  3.63040E+02 -4.44053E+03 -7.99459E+02  1.10653E+03  2.86085E+03 -2.89489E+03  2.11722E+03 -7.91280E+02
  1.99335E+03 -6.09051E+02  1.34086E+03  1.99486E+03  1.61046E+03 -1.14940E+03 -2.66040E+03 -1.35397E+03
  3.15503E+03 -1.69444E+03  1.04597E+03 -5.14946E+02  1.93939E+03 -9.37656E+01 -2.40940E+03  2.08998E+03
  2.69266E+02  9.98301E+02 -3.77591E+03  5.16191E+03  1.43819E+03 -7.06584E+02  2.32584E+03  1.40614E+02
  3.12699E+03  2.34696E+03  1.47588E+02  3.80115E+03 -2.65260E+02  2.74330E+03  1.94961E+03 -3.16667E+03
  1.71313E+03 -2.62437E+03 -4.93341E+02 -1.99048E+03 -3.62418E+03  1.58116E+03 -2.88286E+03  2.50257E+03
 -2.78562E+03  7.00772E+01 -2.02846E+03  1.39413E+03 -1.49833E+03  1.98083E+03 -1.60268E+03 -2.53678E+03
 -1.98135E+03 -1.86864E+03 -1.03417E+03 -3.82089E+03 -1.26752E+03 -4.06940E+02  5.47008E+03 -2.43719E+03
  3.02172E+03 -2.77918E+03 -4.67920E+02  2.42530E+03  4.04948E+02 -1.44556E+03  2.12752E+03  8.22699E+02
 -3.05958E+03 -1.16887E+03 -3.77553E+03 -4.18983E+02 -1.00848E+03 -4.61380E+02 -3.42737E+03 -1.84837E+03
  1.23128E+03 -7.49817E+02  2.06934E+03 -2.51660E+03  2.12013E+03  9.09338E+00 -2.70222E+03  6.72255E+02
  9.06564E+02  4.68514E+02 -1.85748E+03 -2.93136E+03 -2.16982E+03  8.17168E+02  1.54742E+03  1.97084E+03
  1.03545E+03  3.09035E+03 -1.10813E+03  8.40781E+02 -2.76654E+03 -1.00748E+03  1.48955E+03 -7.17841E+02
 -3.26332E+03  1.91533E+03 -3.69420E+02 -1.62856E+02 -1.95451E+03  3.31900E+03 -4.63472E+03  3.42667E+03
  3.91535E+02 -2.36586E+03 -3.32805E+03 -3.71943E+03  3.40935E+03 -1.08315E+03  1.81346E+02  1.58637E+03
 -1.47819E+03  1.51406E+03 -2.84096E+03  8.11423E+02 -2.60617E+02  3.60288E+03 -7.77615E+02  1.34748E+03
 -5.45320E+03  1.73176E+03 -1.11053E+03  1.46244E+03  1.68372E+03  6.35534E+02  2.03424E+03  1.49281E+03
  1.68147E+03  1.84561E+03  4.61610E+03 -3.72831E+03 -2.02339E+02  6.80869E+02 -1.62403E+03  6.45489E+02
 -1.58853E+03  6.24785E+03 -5.79551E+02 -2.92356E+03 -1.79347E+03 -5.94392E+02 -1.25792E+03  2.98605E+03
 -6.15793E+02  8.55582E+02 -5.82214E+03  4.55262E+03  3.04745E+03  3.90470E+03 -4.22891E+03  1.73384E+03
  2.14778E+03 -9.40703E+02  3.11202E+03  7.23150E+02  4.21477E+03  4.18756E+02  6.14662E+03 -1.59638E+03
  3.04795E+03  1.20767E+03  1.98269E+03  6.29175E+02  3.05305E+03  2.92560E+03  1.82491E+03 -8.66849E+02
