 $NMID ID='MM_0lb_SNR50_18hz_g60_52.RAW', FMTDAT='(8E13.5)'
 TRAMP=1., VOLUME=1. $END
  3.13828E+05 -3.68804E+03  3.37519E+05  2.47199E+05  8.24622E+04  3.34962E+05 -1.36827E+05  2.48556E+05
 -1.90598E+05  7.90463E+04 -1.10837E+05 -3.17432E+04  3.16117E+03 -5.14413E+04  5.35806E+04 -2.03888E+03
  3.67885E+04  5.25159E+04 -1.55842E+04  7.30926E+04 -6.17691E+04  6.52003E+04 -8.33400E+04  3.46506E+04
 -7.89874E+04 -1.49423E+04 -5.54388E+04 -5.52336E+04 -1.14385E+04 -6.71294E+04  3.08545E+04 -4.64556E+04
  3.94528E+04  6.00806E+03  1.83640E+04  5.12607E+04 -3.47672E+04  4.55998E+04 -5.97611E+04 -2.29235E+03
 -5.04993E+04 -5.61076E+04 -5.01666E+03 -7.82971E+04  3.21506E+04 -5.34952E+04  5.15711E+04 -1.52842E+04
  3.84795E+04  1.16604E+04  3.25654E+04  2.22781E+04  1.80000E+04  2.92996E+04 -8.13469E+02  2.72560E+04
 -2.61476E+04  9.83777E+03 -1.48788E+04 -3.27063E+03  4.67979E+03 -1.13265E+04  2.40157E+04  1.45611E+04
  5.56694E+03  3.52529E+04 -3.32318E+04  3.79249E+04 -6.22933E+04 -1.86923E+03 -5.57243E+04 -4.48349E+04
 -1.33533E+04 -5.87506E+04  3.90503E+04 -4.20346E+04  5.74510E+04 -1.30237E+03  3.18627E+04  3.16433E+04
 -6.24775E+02  3.66584E+04 -3.19267E+04  1.53169E+04 -2.80022E+04 -3.93656E+03 -1.89330E+04 -1.19653E+04
 -9.78290E+03 -1.01807E+04  1.65773E+02 -1.97178E+04  6.73963E+03 -2.18339E+04  1.44784E+04 -1.47662E+04
  1.31790E+04  4.27113E+03 -9.70037E+03  1.31709E+04 -2.14752E+04 -2.22977E+03 -5.06830E+03 -3.01624E+04
  2.18029E+04 -4.26608E+04  4.87358E+04 -2.21990E+04  4.33751E+04  1.67663E+04  1.52386E+04  3.99323E+04
 -2.06768E+04  3.35271E+04 -2.27746E+04 -2.46925E+02 -7.50605E+03 -2.69773E+04  2.16771E+04 -3.13342E+04
  4.08378E+04 -1.15249E+04  3.33479E+04  2.26751E+04  1.57433E+04  4.92619E+04 -8.47076E+03  5.18430E+04
 -3.15485E+04  3.27437E+04 -4.09160E+04  4.29395E+03 -4.68187E+04 -1.42773E+04 -2.46402E+04 -3.66386E+04
  7.32135E+03 -3.15302E+04  3.04218E+04 -9.83297E+03  2.69922E+04  9.72895E+03  8.86613E+03  1.43225E+04
 -1.01513E+04  7.92288E+03 -7.81668E+03 -4.81817E+03  7.25073E+03 -1.06496E+04  2.28587E+04  3.99373E+03
  1.68920E+04  2.17777E+04 -5.89072E+03  2.49165E+04 -2.15430E+04  6.97774E+03 -2.37707E+04 -5.10685E+03
 -1.56212E+04 -1.80007E+04 -5.34943E+03 -1.82714E+04  6.25706E+03 -1.70701E+04  1.46665E+04 -1.84427E+04
  1.79589E+04 -1.58732E+04  2.96282E+04  1.00108E+02  2.18592E+04  1.37938E+04  6.45655E+03  3.28664E+04
 -1.37381E+04  3.28564E+04 -3.21315E+04  8.43604E+03 -1.73053E+04 -1.01117E+04 -6.36002E+03 -1.42952E+04
 -3.30891E+03 -7.19346E+03 -1.38565E+03  3.48262E+03 -1.13000E+04  5.37338E+03 -1.09043E+04 -3.74218E+03
 -1.35131E+04 -1.76670E+04  6.66336E+03 -2.29107E+04  1.23765E+04 -8.82212E+03  1.99078E+04  2.68680E+02
  7.79544E+03  1.16174E+04  1.39254E+03  1.79530E+04 -1.00168E+04  4.71716E+03 -2.38605E+04 -1.37541E+03
 -1.54107E+04 -1.70963E+04 -2.94753E+03 -2.04767E+04  7.78000E+03 -1.68540E+04  1.96549E+04 -5.52337E+03
  1.58792E+04 -3.97522E+03  1.33171E+04  4.30638E+03  6.88084E+03 -4.37970E+03  4.82552E+03 -2.18205E+03
  1.65362E+04  4.97479E+03  1.52749E+04  1.46186E+04  1.12342E+04  2.64011E+04  1.55202E+03  3.07003E+04
 -1.79219E+04  2.20277E+04 -2.58488E+04  1.29705E+04 -2.74315E+04 -1.26122E+03 -2.24153E+04 -1.81859E+04
 -1.21906E+04 -2.42382E+04  7.45848E+03 -2.24993E+04  1.88861E+04 -1.27702E+04  1.20300E+04  4.41067E+03
  5.57741E+03  8.56412E+03 -6.10409E+03  1.27472E+04 -1.34389E+04  6.16695E+03 -8.33817E+03 -1.07296E+04
 -3.27367E+03 -1.43566E+04  4.37360E+03 -1.07070E+04  1.04159E+04 -9.56169E+02  4.16854E+03  2.67442E+03
 -9.24954E+03  1.10025E+04 -4.82606E+02 -8.64579E+03 -4.72451E+02 -1.43047E+04  5.57811E+03 -9.26801E+03
  1.49469E+04 -5.58068E+03  1.51727E+04  3.72916E+03  1.52186E+04  1.09164E+04  5.96054E+03  1.66911E+04
 -8.34491E+03  1.93510E+04 -8.81015E+03  1.24694E+04 -1.60325E+04  3.12741E+03 -1.12683E+04 -3.69197E+03
 -6.84368E+03 -1.88553E+03 -3.73139E+03  1.60629E+03  2.80387E+03  8.85534E+02 -6.96177E+03  3.27286E+03
 -1.09030E+04 -5.27421E+01 -9.67588E+03 -6.95324E+03 -3.72020E+03 -1.37059E+04  2.95508E+03 -1.32054E+04
  7.82964E+03 -4.62827E+03  2.14644E+03 -1.68662E+03  3.58899E+03  4.47832E+03 -5.99861E+03 -2.83594E+03
 -7.19241E+03 -5.09142E+03 -2.45171E+03 -9.17518E+03  7.85467E+03 -9.91019E+03  5.07327E+03 -6.15786E+03
  1.04470E+04  1.71655E+03  1.16786E+04  1.24286E+04  1.66715E+03  1.15259E+04 -5.10419E+03  9.35401E+03
 -6.79477E+03  3.18938E+03 -2.51071E+02  1.52614E+03 -1.52456E+03 -2.12681E+03  1.61472E+03 -2.53829E+03
  4.21715E+03  2.96544E+03  1.61935E+02  5.61551E+03 -2.66827E+03  5.87028E+03 -7.02830E+03 -1.36031E+02
 -6.73438E+03 -4.29022E+03  3.08152E+03 -7.93137E+03  1.49188E+03 -2.89197E+03  6.42272E+03  2.79296E+03
  2.42018E+03  5.50989E+03 -3.59582E+03  5.56573E+03 -4.65074E+03  3.24713E+03 -5.56492E+03 -5.94134E+03
 -4.49091E+03 -6.04678E+03  1.33505E+03 -9.15400E+03  9.36522E+03 -5.66185E+03  8.30594E+03  1.64752E+03
  5.03133E+03  2.43532E+03  1.47536E+03  1.07819E+04 -8.25302E+03  4.90465E+03 -9.11213E+03 -1.51040E+03
 -1.00606E+04 -5.42488E+03 -1.01030E+03 -8.57105E+03  5.65167E+03 -6.91198E+03  4.05104E+03 -2.17071E+03
  4.82956E+02  1.13444E+03  2.65447E+03  3.25861E+02  5.05595E+03 -4.62718E+03  7.13361E+02 -5.97434E+03
  4.03422E+03 -2.99815E+03  4.48331E+03  2.43625E+03  2.48592E+03 -1.61573E+03  4.38228E+03  9.34275E+03
 -3.23656E+02  8.65210E+03 -1.33461E+04  2.11571E+03 -1.12474E+04  2.43238E+02 -7.07898E+03  6.22618E+02
 -8.77162E+03 -4.49397E+03  4.29001E+02 -2.11303E+03  1.15448E+03 -5.87056E+03  4.95408E+03 -1.48311E+02
  6.45239E+03 -3.67041E+03  5.09610E+03 -4.66403E+02  4.19644E+03 -3.37323E+03  4.00815E+03 -1.62671E+03
  1.76074E+03  4.31850E+02  1.99983E+03 -8.97039E+02 -5.04485E+01 -3.67352E+02 -4.31825E+03  2.38974E+03
 -4.80357E+03 -1.39344E+03 -3.75979E+02 -2.35311E+03 -6.54661E+02 -6.54177E+03  2.01522E+03 -6.25179E+03
  3.95737E+03 -8.00094E+03  1.05820E+04  3.22174E+03  4.63892E+03  7.99702E+03 -2.01897E+03  2.28767E+03
 -2.48513E+03  6.43757E+03 -1.01196E+04 -1.40424E+03 -3.88711E+03 -2.15508E+03 -3.10463E+03 -3.07204E+03
 -1.65554E+03  1.98322E+03  1.09844E+03  1.63359E+03 -1.02317E+03  3.51496E+03 -5.11935E+03 -3.22691E+03
 -1.49987E+03 -6.85351E+03  2.44775E+03 -3.03663E+03  4.60881E+03 -7.46391E+03  4.18514E+03 -1.44830E+03
  5.36230E+02 -1.28606E+03  2.01368E+03  3.21545E+03 -3.70915E+03  7.72697E+03 -8.29460E+02  2.56108E+03
 -8.70055E+03  3.33601E+03 -3.41232E+01 -3.24649E+03  6.61900E+02 -6.65499E+03  5.21466E+03 -3.11603E+03
  5.03274E+03 -4.82714E+03 -1.29358E+03 -4.00135E+03 -7.33038E+02  4.10158E+03  4.02300E+03 -3.24346E+03
  8.39768E+02 -8.31347E+02 -6.67761E+02  1.00695E+03  3.85700E+03  7.45453E+03  4.30622E+02  5.21705E+02
 -1.33161E+03  3.27722E+03  7.03199E+02  4.56049E+03 -7.84561E+03  9.37745E+02 -1.95128E+03 -2.76616E+03
 -4.18161E+03 -6.47401E+03  3.05896E+03 -6.89800E+03  2.33844E+03 -2.06432E+03  4.81317E+01 -3.81793E+02
  8.39792E+03 -1.49760E+03  5.19813E+02  1.08149E+03  1.43008E+03  2.01172E+03 -3.75937E+03 -6.26509E+02
  4.11791E+03 -2.79169E+03  1.58916E+03 -2.93625E+03  2.38257E+03 -3.39002E+03  2.00119E+03  6.41998E+02
  4.96196E+02 -2.55016E+03 -1.35535E+03  2.68885E+02  1.17231E+03 -1.07275E+03  3.36810E+03 -2.07241E+03
  1.52717E+03 -4.50058E+03  3.02180E+03  2.80744E+03  4.87751E+01  1.48484E+03  3.48331E+03  3.97074E+03
 -1.28732E+03 -4.39598E+02  2.27609E+03 -1.70844E+03  8.05045E+02 -3.84333E+03  1.64318E+03  1.03437E+03
 -9.60167E+02  1.26756E+03  3.93386E+03 -1.80479E+02  6.27294E+03 -5.28732E+03 -1.71093E+02  2.43925E+03
 -1.67905E+03 -2.46872E+03  4.64212E+02 -3.71009E+03 -1.28180E+03 -1.01485E+03 -1.80637E+03 -1.84170E+03
 -4.36125E+01  4.14148E+03  3.54962E+03 -4.93331E+02  3.09182E+03 -9.63641E+02  2.95060E+03  2.58036E+03
 -8.99378E+02 -9.11470E+02 -3.05482E+02  6.52085E+02 -1.71251E+03 -1.02244E+03  6.82742E+02  2.67073E+03
  1.92352E+03  6.42774E+02  5.08291E+03  2.86991E+03  1.37437E+03  3.42193E+03 -2.17106E+03  1.86256E+03
 -2.08400E+03  3.63629E+03  7.03007E+02  1.18008E+02 -1.75975E+03 -1.97029E+03 -6.63178E+02 -1.11081E+03
  1.95427E+03 -2.88576E+02  2.81026E+03 -3.21424E+02  3.97382E+03  2.24324E+02 -1.99221E+03  1.69973E+03
 -1.71614E+03 -1.14304E+03 -3.21374E+03  6.26344E+02 -6.82131E+02  2.11128E+03 -2.51431E+02 -3.40320E+03
  1.78116E+03  7.48884E+02 -2.08179E+02  1.59326E+03 -2.24909E+03 -2.14119E+03 -1.35670E+03  6.59987E+02
  1.82681E+03 -4.77822E+03  1.52787E+03 -2.32725E+03 -5.35279E+02  5.13748E+02  2.29688E+03 -2.00861E+03
  8.31035E+03 -1.12888E+03  1.49232E+03  7.93432E+02 -2.48614E+03 -4.84273E+02 -5.54025E+03  2.79742E+03
  7.95026E+02  1.54992E+03 -3.06315E+02  2.67631E+03 -8.60700E+02 -4.35044E+03  2.01550E+03 -4.13510E+03
  1.69790E+03 -1.19057E+03 -1.81899E+03 -1.72041E+03 -1.27603E+03 -2.57115E+03  2.10247E+03  5.60112E+02
  1.95205E+03 -3.32526E+03  3.53575E+03  3.06817E+01 -1.47914E+03  5.33011E+01 -1.00552E+03  1.96870E+03
  5.99964E+02  1.50644E+03 -7.38913E+03  2.13386E+03 -1.36096E+03  1.30568E+03  1.54573E+03 -7.73784E+02
 -4.99656E+03 -3.77430E+03 -1.72291E+03  4.18812E+02 -2.97293E+03 -1.07945E+03 -1.71059E+03  3.06972E+03
  2.89283E+03 -1.16544E+03 -3.68060E+03 -3.21551E+03  1.79607E+03 -4.87640E+02 -1.25478E+03 -1.09828E+03
  5.28530E+02 -4.18932E+03 -1.75392E+03 -3.04332E+02  1.36107E+02 -2.81314E+03 -1.98445E+03 -1.24688E+03
 -6.02495E+02  3.29721E+03 -3.57176E+03  3.82853E+03 -4.74424E+03  7.76648E+02 -3.64645E+03 -1.45070E+03
  7.92363E+02 -4.91380E+02  6.51267E+02  3.37278E+03  1.08138E+03 -6.70777E+01 -3.33241E+03  1.69564E+03
  9.39460E+02  3.93346E+03 -4.64096E+02  9.84345E+02 -2.45984E+03  1.02574E+03  2.83764E+03 -5.35975E+03
 -3.74310E+02  8.70331E+02  2.36233E+03  2.42721E+03 -9.31374E+02  1.63633E+03  3.40280E+00 -1.05182E+03
 -4.19812E+03 -3.56055E+03  2.13290E+02  1.27612E+03  1.85534E+03 -5.64496E+03  4.21106E+03  6.66891E+02
 -1.63705E+03  1.50698E+03 -3.99612E+03  8.75785E+02  3.70412E+03  6.33990E+03 -1.20039E+02 -3.42082E+02
