 $NMID ID='MM_0lb_SNR50_16hz_g55_71.RAW', FMTDAT='(8E13.5)'
 TRAMP=1., VOLUME=1. $END
  3.09104E+05 -1.00544E+03  3.35841E+05  2.45793E+05  8.21972E+04  3.37930E+05 -1.30973E+05  2.49992E+05
 -1.88764E+05  7.69847E+04 -1.10219E+05 -3.38312E+04  2.86893E+03 -4.83824E+04  5.40630E+04  2.24282E+02
  3.44789E+04  5.66143E+04 -1.51653E+04  7.74846E+04 -5.68431E+04  6.42984E+04 -8.53543E+04  3.18024E+04
 -8.23174E+04 -1.73392E+04 -5.93376E+04 -5.02722E+04 -1.53579E+04 -6.57593E+04  2.78772E+04 -4.68486E+04
  3.87817E+04  3.86811E+03  1.58450E+04  4.95664E+04 -3.58941E+04  4.88076E+04 -6.67617E+04 -1.70525E+03
 -5.49143E+04 -5.24134E+04 -4.84238E+03 -7.52779E+04  3.07086E+04 -5.63826E+04  4.88149E+04 -1.65420E+04
  3.99834E+04  9.64153E+03  3.33570E+04  3.13395E+04  1.59015E+04  2.95874E+04 -5.31783E+03  2.92238E+04
 -2.16024E+04  1.28282E+04 -1.61950E+04 -1.55674E+03  5.83135E+03 -6.26874E+03  2.22587E+04  8.85441E+03
  6.47823E+03  3.42453E+04 -3.28768E+04  3.40757E+04 -5.90536E+04  3.44260E+03 -5.97198E+04 -4.08893E+04
 -7.80815E+03 -6.02527E+04  3.66332E+04 -4.77696E+04  5.91766E+04  3.69077E+02  3.47083E+04  3.47258E+04
 -6.02149E+03  3.55461E+04 -2.81687E+04  1.96875E+04 -3.13100E+04 -3.40365E+03 -1.31385E+04 -1.40454E+04
 -5.77585E+03 -1.27147E+04 -5.24261E+02 -1.89361E+04  6.02118E+03 -1.81931E+04  1.31737E+04 -1.19929E+04
  9.04355E+03  4.91776E+03 -9.55867E+03  1.42496E+04 -2.46003E+04 -6.22533E+03 -6.52915E+03 -3.09173E+04
  2.48384E+04 -4.07797E+04  4.43386E+04 -1.69189E+04  4.29482E+04  1.88471E+04  1.58822E+04  4.33062E+04
 -1.43919E+04  3.55607E+04 -2.32794E+04  8.52615E+03 -7.20917E+03 -2.83233E+04  1.95466E+04 -3.11211E+04
  4.08615E+04 -1.09460E+04  3.38784E+04  2.50561E+04  2.00407E+04  4.68216E+04 -1.02848E+04  5.01358E+04
 -2.93387E+04  3.03814E+04 -4.63569E+04  9.73155E+03 -4.16883E+04 -2.19706E+04 -2.45713E+04 -3.61407E+04
  5.62664E+03 -3.67047E+04  2.75206E+04 -1.70240E+04  2.87150E+04  9.69806E+03  2.95407E+03  1.62647E+04
 -1.17265E+04  1.26260E+04 -6.72218E+03 -1.06573E+04  2.90472E+03 -1.58309E+04  1.73858E+04  9.68287E+03
  1.48332E+04  2.10470E+04 -7.01086E+03  2.73033E+04 -2.30631E+04  9.72876E+03 -2.90921E+04 -6.86731E+03
 -2.45439E+04 -1.78253E+04 -6.94439E+03 -2.00006E+04  4.92200E+03 -1.64490E+04  1.19122E+04 -1.97749E+04
  2.77012E+04 -1.53111E+04  2.60948E+04  2.04751E+02  2.33174E+04  1.97475E+04  2.41078E+02  3.81730E+04
 -2.12064E+04  3.00802E+04 -3.01223E+04  1.46257E+04 -2.09697E+04 -1.22131E+04 -6.44554E+03 -1.58502E+04
  1.53144E+03 -7.60053E+03 -2.13156E+03  8.38176E+03 -1.50866E+04  1.40856E+03 -1.60217E+04 -9.11573E+03
 -1.12360E+04 -1.91881E+04  5.64192E+03 -1.68797E+04  1.33995E+04 -1.73642E+04  1.81216E+04 -1.97380E+03
  1.29275E+04  1.14041E+04 -2.31469E+03  1.78835E+04 -1.04712E+04  1.15456E+04 -1.93596E+04  1.40302E+03
 -1.47432E+04 -1.39182E+04 -6.84770E+02 -2.24839E+04  8.37162E+03 -1.87226E+04  1.70486E+04 -1.08346E+04
  1.73641E+04  1.47063E+03  1.77872E+04  1.03044E+04  4.98448E+03 -1.37440E+03  4.02775E+03  4.21734E+02
  1.64173E+04  4.95088E+03  1.79434E+04  1.63445E+04  1.43335E+04  2.70297E+04  1.56516E+03  3.12286E+04
 -1.93674E+04  2.41988E+04 -2.56008E+04  1.60838E+04 -3.32414E+04 -2.25682E+03 -2.38507E+04 -1.81896E+04
 -9.30408E+03 -2.50602E+04  5.94717E+03 -2.53298E+04  1.61749E+04 -1.26299E+04  2.31530E+04  5.49072E+03
  8.13775E+03  1.18219E+04 -5.34457E+03  1.12332E+04 -1.55281E+04 -2.75705E+02 -1.62882E+04 -1.07374E+04
  5.02718E+03 -1.82553E+04  7.27926E+03 -1.05966E+04  9.10081E+03 -1.12683E+03 -4.45387E+02  3.57056E+03
 -8.99694E+03  2.79564E+02 -4.84064E+03 -2.99221E+03 -8.57779E+02 -1.35136E+04  7.68352E+03 -1.77735E+04
  1.63897E+04 -1.18093E+04  1.47825E+04  5.29731E+03  1.30604E+04  1.17009E+04  3.89475E+03  1.50843E+04
 -1.44466E+03  2.44162E+04 -1.24907E+04  1.14147E+04 -1.47869E+04  3.30690E+03 -1.01650E+04 -3.48626E+03
 -1.05596E+03 -4.66559E+03  4.14597E+03 -3.74768E+03 -1.94931E+03  4.38914E+03 -6.38940E+03 -6.62811E+02
 -7.08548E+03 -1.92879E+03 -8.56225E+03 -7.56288E+03 -1.76038E+03 -1.00168E+04  5.34890E+03 -8.88483E+03
  1.08986E+04  8.62224E+01  6.90316E+03  1.40345E+03 -7.20079E+02  7.26998E+03 -4.83368E+03 -1.08077E+03
 -6.73653E+03 -8.63941E+03 -3.60762E+03 -5.76509E+03  8.77347E+03 -7.81297E+03  8.56439E+03 -3.75587E+03
  2.00753E+04  1.74830E+03  6.35616E+03  6.25039E+03 -3.57174E+03  6.70427E+03 -8.21488E+03  9.69341E+03
 -8.30176E+03  1.44714E+03 -7.16742E+03 -2.76187E+03  4.61299E+03  3.19436E+02  7.76259E+03 -6.76770E+03
  4.19564E+03  6.54235E+03  3.87934E+03  5.83145E+03 -6.72699E+03  6.55896E+03 -1.27386E+04  5.48196E+03
 -7.46981E+03 -1.06041E+04  7.99290E+03 -7.43687E+03  6.81846E+03 -6.37955E+03  8.27418E+03 -1.49840E+03
  2.21174E+03  4.68417E+03 -4.10796E+03  2.64153E+03 -7.58087E+03  1.42275E+03 -9.80158E+03 -1.88051E+03
 -5.79675E+03 -1.04857E+04  4.09280E+02 -1.01108E+04  1.07296E+04 -2.21273E+03  1.07683E+04 -8.05848E+02
  7.18912E+03  7.12350E+03 -1.07312E+03  7.20409E+03 -6.36561E+03  7.50565E+03 -5.48784E+03 -3.22132E+03
 -1.57245E+03 -9.44107E+03 -1.47968E+03 -5.99045E+03  6.60128E+03 -7.60462E+03  3.08908E+03 -6.16772E+03
  2.43736E+03 -2.04188E+03  2.37140E+03  1.29937E+03 -4.69694E+03 -1.61393E+03  1.07214E+03 -2.40923E+03
  5.25790E+03 -1.12102E+02  1.04284E+04 -6.31231E+02  7.84178E+03  1.46055E+03  6.39227E+03  8.17701E+03
 -3.39122E+03  1.43717E+04 -6.45942E+03  8.57233E+03 -1.57134E+04  2.16932E+03 -8.84225E+03 -1.72311E+01
 -8.02335E+03 -9.53650E+03  4.32818E+02 -4.78797E+03  4.93171E+03 -4.92785E+03  4.04273E+03 -3.40132E+03
  4.20657E+03 -3.80676E+03  1.54655E+03 -5.36506E+03  1.19062E+03 -3.67440E+03  2.08296E+03  2.40123E+03
  2.85950E+03  1.80447E+03 -1.16341E+03  3.95567E+03 -3.98392E+03  9.80599E+03 -6.13183E+03  3.47418E+02
 -6.59460E+03 -9.28015E+02 -9.89277E+02 -3.57311E+03  1.98872E+03 -4.75913E+03  1.05087E+04 -4.57919E+03
  8.40297E+03 -1.94526E+03  9.68286E+03 -5.37466E+02  5.95636E+03  7.44178E+03 -8.17256E+02  4.07838E+03
 -3.37191E+03  8.33513E+03 -5.74243E+03 -1.45304E+03 -1.83051E+03 -3.04878E+03 -1.59692E+02  1.87107E+03
 -1.66618E+03 -1.21000E+03  5.59756E+02  4.49067E+03 -4.79095E+02 -1.20597E+03 -6.46110E+03 -1.43263E+03
 -4.25856E+03 -4.42602E+03 -8.52657E+02 -9.84363E+03  4.80452E+03 -4.69376E+03  5.05294E+03 -3.38480E+03
  9.23207E+03  5.27523E+03  2.99906E+03  8.40569E+03 -2.67843E+03  7.98673E+03 -7.29196E+03  8.56106E+03
 -8.46061E+03  5.90256E+03 -7.23508E+03 -3.38108E+03 -1.27314E+02 -6.46604E+03  5.73075E+03 -5.83061E+03
  6.32331E+03 -4.20256E+03  3.06321E+03 -1.38005E+03  1.77672E+03 -1.39898E+03  1.36038E+03  7.48169E+02
  4.27565E+03  4.41939E+03  1.80355E+03  1.25144E+03  8.67690E+02  1.06889E+03  2.25385E+03  2.07683E+03
  2.96799E+02  2.59490E+03 -2.89649E+03  6.60558E+03 -3.47794E+03 -2.87636E+03 -1.19771E+03 -1.38688E+03
  1.44784E+03 -2.82060E+03  8.04404E+02 -6.87281E+03  2.75981E+03 -6.04386E+03  5.42430E+03 -2.35630E+03
  7.30875E+03  4.46916E+03  5.52940E+03  1.69370E+03 -4.77085E+02 -1.23698E+03 -1.55403E+03 -1.41322E+03
 -5.03938E+03 -4.12473E+03 -7.98661E+02 -3.08450E+03  8.70192E+02 -5.73545E+03  4.33652E+03 -1.08279E+03
 -3.59093E+03  3.32869E+03 -1.61613E+03  3.32787E+03  9.75390E+02  1.55964E+03 -1.68464E+03 -2.98443E+03
  1.40048E+03 -2.18954E+03  1.78827E+03  8.75549E-01  1.65411E+03  5.19107E+03 -2.56415E+02  1.30543E+03
 -2.34940E+03  7.91542E+03 -2.66114E+03 -5.91013E+02 -3.23262E+03 -1.12522E+03 -1.95313E+03 -5.19540E+02
 -1.04364E+02 -3.06568E+02  3.15221E+03 -1.42045E+03 -1.39737E+03  6.59271E+03  3.50798E+03  1.49097E+03
 -1.33104E+03 -3.19187E+03  2.12347E+02  1.36920E+03 -2.17007E+03 -4.74048E+03 -1.49833E+03  3.26120E+03
  7.11146E+03  3.09323E+02 -2.49419E+03 -3.29625E+03 -6.62507E+02 -5.26904E+01 -6.21622E+02  3.72472E+02
 -3.61384E+02  4.67451E+01 -7.54614E+02 -3.04436E+03  5.47002E+02 -1.59513E+03 -1.82915E+03  2.60775E+03
  1.76659E+03 -1.57962E+03  6.61972E+03  4.36706E+03  1.69431E+03  1.87010E+03  2.44092E+03  1.64021E+03
 -2.34064E+03 -2.98785E+03 -1.16506E+03 -1.28995E+03 -2.47959E+03 -4.65757E+03 -1.99675E+03 -4.57525E+03
  2.85299E+03 -3.27304E+03 -1.55568E+03  1.61281E+03 -1.47318E+03 -1.53486E+01 -3.24750E+03  2.31679E+03
 -4.20099E+03  4.02103E+03  8.57598E+02 -3.72019E+03  3.81289E+03  3.75743E+03 -4.49486E+03 -5.41792E+02
 -1.73043E+03 -1.43026E+03 -4.00052E+03  1.03739E+03 -4.76242E+02 -5.88929E+02 -4.32051E+03 -8.29121E+02
 -4.68413E+03 -7.92632E+02  2.79767E+03 -3.87162E+03  2.69973E+03 -1.90787E+03  9.12186E+03 -2.92261E+03
  9.13625E+03 -9.00864E+02  2.66932E+03  8.49714E+03  2.85658E+03  2.75795E+03 -3.52914E+03  9.28602E+02
 -5.40266E+03  1.73741E+03 -1.71113E+03  5.12225E+03 -1.91234E+03  1.04743E+02 -9.36392E+02  3.82247E+02
  1.53931E+03  3.25618E+03 -2.25611E+03  7.06884E+02  4.75788E+02 -4.11900E+03 -8.71980E+02 -4.28520E+03
  4.97586E+01 -1.42177E+03  1.55385E+03  3.61781E+03 -2.83443E+03  1.03287E+03 -2.84485E+03  6.80928E+02
 -2.94466E+03  3.18203E+03 -5.73136E+03 -4.39960E+03 -2.15254E+03 -2.68701E+03 -3.47694E+03 -2.60393E+03
  2.08692E+03 -4.26330E+03  1.30214E+03  2.32547E+03  2.48253E+03 -7.91291E+03  6.94647E+02  3.80621E+03
 -7.33472E+02  6.08178E+03  9.52355E+02  1.61359E+03 -3.36063E+03  2.01804E+03 -7.28137E+02 -9.52342E+02
  9.04674E+01 -2.24404E+03 -3.91365E+03 -5.89472E+01  4.16782E+03  1.71848E+03 -2.71571E+03 -2.00399E+03
  1.63641E+03  1.20039E+03 -2.54458E+03 -6.08047E+02 -1.05794E+03 -2.07742E+03 -6.49223E+03  7.02101E+01
  3.62181E+03 -1.26101E+03  8.57742E+02  1.87397E+03  3.63871E+02 -2.73851E+03  3.74692E+03  6.95873E+03
  4.71056E+03  1.74203E+03  3.82189E+02  2.32810E+03 -1.72416E+03  4.64745E+03 -1.88823E+03 -1.17263E+03
  1.02703E+03 -6.13378E+03 -9.37693E+01 -1.91761E+03  6.54738E+01  7.87544E+02 -3.27952E+03 -2.72151E+03
 -1.00337E+03 -4.10094E+02  2.09839E+02 -2.74606E+03  2.51302E+03  4.41421E+02 -1.68205E+03 -3.09929E+03
 -1.11878E+03  2.98775E+03  1.88332E+03  6.78554E+02 -4.05611E+03  4.60532E+03 -3.34181E+03  5.24071E+03
