 $NMID ID='MM_0lb_SNR50_16hz_g45_22.RAW', FMTDAT='(8E13.5)'
 TRAMP=1., VOLUME=1. $END
  3.09596E+05 -6.51843E+02  3.38306E+05  2.49612E+05  8.60841E+04  3.35865E+05 -1.30362E+05  2.46048E+05
 -1.90859E+05  7.73569E+04 -1.12053E+05 -3.29213E+04  1.08233E+03 -4.64241E+04  5.70811E+04  2.06652E+03
  3.58708E+04  5.14898E+04 -1.59792E+04  8.06538E+04 -6.60371E+04  6.21176E+04 -8.25913E+04  3.01966E+04
 -7.95319E+04 -9.48532E+03 -6.06678E+04 -4.87345E+04 -1.54721E+04 -7.17397E+04  2.83666E+04 -4.46242E+04
  3.91565E+04  2.89367E+03  1.53469E+04  5.07138E+04 -3.47589E+04  4.83416E+04 -6.43772E+04 -3.44926E+03
 -5.17226E+04 -5.27429E+04 -2.24723E+02 -7.56377E+04  3.76224E+04 -5.57342E+04  4.72705E+04 -1.80036E+04
  4.14868E+04  1.21727E+04  3.26015E+04  2.22121E+04  1.45298E+04  3.35484E+04 -3.60999E+03  2.88718E+04
 -2.40127E+04  1.29085E+04 -1.41357E+04 -3.63623E+03  5.61166E+03 -8.32240E+03  2.26741E+04  1.18412E+04
  9.61773E+03  3.32112E+04 -3.36775E+04  3.98864E+04 -6.05794E+04 -1.91881E+03 -5.66470E+04 -4.03199E+04
 -1.42683E+04 -5.87371E+04  3.70082E+04 -4.94520E+04  5.92376E+04 -6.38917E+03  2.78203E+04  3.22376E+04
 -6.17396E+03  3.09926E+04 -3.07584E+04  1.59583E+04 -2.85609E+04 -4.28130E+03 -1.35413E+04 -9.40629E+03
 -4.79216E+03 -1.13522E+04 -5.31454E+02 -1.78574E+04  1.16146E+04 -2.26627E+04  1.25195E+04 -1.73075E+04
  1.57856E+04  4.59601E+03 -1.18045E+04  1.20199E+04 -2.02626E+04 -1.46044E+03 -5.73599E+03 -3.40904E+04
  2.58944E+04 -4.15921E+04  4.31076E+04 -2.07320E+04  4.50214E+04  2.35497E+04  1.56384E+04  4.22282E+04
 -1.37527E+04  3.02058E+04 -2.47354E+04  5.56417E+02 -9.19110E+03 -2.76136E+04  1.90471E+04 -3.64233E+04
  3.99766E+04 -4.17475E+03  3.36062E+04  2.18484E+04  1.73878E+04  4.71532E+04 -4.00422E+03  4.67475E+04
 -3.26060E+04  3.14919E+04 -3.79943E+04  7.83877E+03 -4.24394E+04 -1.88373E+04 -2.21769E+04 -3.47776E+04
  9.64516E+03 -3.60888E+04  3.55650E+04 -1.39447E+04  2.63855E+04  9.74746E+03  4.44406E+03  1.88311E+04
 -1.22956E+04  8.75687E+03 -1.04169E+04 -7.14068E+03  3.97302E+03 -7.09572E+03  1.65601E+04  5.73237E+03
  8.56240E+03  2.15264E+04 -8.30185E+03  2.90206E+04 -2.07616E+04  1.23265E+04 -2.56641E+04 -7.01438E+03
 -1.96775E+04 -2.12502E+04 -6.40083E+03 -2.06765E+04  6.31464E+02 -1.54583E+04  1.50776E+04 -2.10776E+04
  2.27070E+04 -9.00232E+03  3.35950E+04  8.35580E+02  2.31597E+04  1.66312E+04  6.07000E+03  3.65176E+04
 -1.48238E+04  3.07678E+04 -2.32550E+04  1.10588E+04 -2.17191E+04 -1.04324E+04 -5.28225E+03 -1.41820E+04
 -1.33427E+03  8.33580E+02 -4.07480E+03  7.55720E+03 -1.85282E+04  6.88686E+03 -1.66187E+04 -9.12698E+03
 -1.09367E+04 -1.55691E+04  8.98704E+03 -2.25992E+04  1.46010E+04 -1.53433E+04  1.87187E+04 -7.62561E+02
  1.11380E+04  9.20407E+03 -4.82148E+03  1.95467E+04 -1.25620E+04  5.36134E+03 -2.08251E+04 -4.55296E+03
 -1.86568E+04 -1.59619E+04 -3.74131E+03 -2.49769E+04  8.53406E+03 -1.76868E+04  1.57321E+04 -9.25985E+03
  2.01964E+04  2.18164E+03  1.14885E+04  2.53829E+03  2.93146E+03  4.28487E+03  1.02710E+04  2.52493E+03
  1.23910E+04  5.44318E+02  1.40970E+04  1.49973E+04  1.09463E+04  2.98271E+04 -5.34819E+03  3.47044E+04
 -1.83625E+04  2.54327E+04 -2.85890E+04  1.42689E+04 -3.00017E+04 -1.63139E+03 -2.90573E+04 -1.95504E+04
 -9.48852E+03 -2.31581E+04  1.06271E+04 -1.99022E+04  1.87937E+04 -1.37176E+04  1.41375E+04  4.45530E+03
  7.21835E+03  1.43987E+04 -6.31496E+03  8.41889E+03 -1.63272E+04  9.10789E+02 -7.31720E+03 -1.07882E+04
 -2.67165E+03 -1.57445E+04  8.54056E+03 -9.56824E+03  1.18947E+04  3.51168E+03  6.55438E+02  6.80068E+03
 -2.76766E+03  5.78992E+03 -2.17794E+03 -7.76634E+03  5.41068E+02 -7.90698E+03  1.02610E+04 -1.67225E+04
  1.39288E+04 -5.61732E+03  1.88136E+04  4.07766E+03  1.12085E+04  6.84104E+03  9.82172E+03  1.07523E+04
 -5.76350E+03  1.64900E+04 -8.56648E+03  1.36686E+04 -1.19843E+04  1.46878E+03 -1.02812E+04 -1.52623E+03
 -6.52827E+03 -7.24069E+02  1.36609E+03 -3.16960E+03 -1.43687E+03  2.78315E+03 -4.49894E+03 -1.28160E+03
 -5.85500E+03  2.66927E+02 -9.90670E+03 -9.76000E+03 -7.88922E+03 -1.15404E+04  9.97853E+03 -1.05277E+04
  9.17989E+03 -5.46299E+03  6.79734E+03  6.06119E+02  8.21610E+02 -3.98430E+02 -4.42938E+03  4.77903E+03
 -5.22384E+03 -4.55833E+03  3.56458E+03 -1.14423E+04  3.88754E+02 -7.17328E+03  9.69221E+03 -1.07851E+04
  1.72808E+04 -3.32908E+02  8.21464E+03  7.35128E+03 -1.56310E+03  6.84389E+03 -5.58419E+03  6.37073E+03
 -7.95727E+03  3.35151E+03 -2.62589E+03  1.76056E+02  1.78195E+03 -2.15087E+03  4.43664E+03  1.91090E+03
  5.19809E+03  5.87978E+03  1.10266E+03  8.33179E+03 -8.90711E+03  9.76451E+03 -8.63927E+03  1.08862E+03
 -5.88356E+03 -7.01533E+03  6.28767E+02 -3.66433E+03  4.53766E+03 -6.16278E+03  3.32567E+03  3.21417E+03
 -1.53682E+03  1.40550E+03 -8.11396E+02  4.87375E+03 -5.57106E+03  2.24643E+03 -5.42511E+03 -3.08805E+02
 -7.74270E+03 -6.65173E+02 -2.40591E+03 -9.22004E+03  7.63734E+03 -9.19461E+03  7.35827E+03 -6.99768E+02
  2.01629E+03  7.38721E+03  1.42923E+03  6.67903E+03 -5.75296E+03  6.08858E+03 -1.06303E+04  1.74200E+03
 -1.03791E+04 -6.28083E+03 -2.83748E+02 -8.57225E+03  3.78433E+03 -5.49534E+03  5.70915E+03 -5.27152E+03
  3.68883E+03  2.08690E+03  3.41583E+03 -1.26175E+03 -3.72570E+02  5.93863E+02 -2.68875E+03 -2.88491E+03
  6.04187E+03 -8.26872E+02  3.52046E+03 -1.24683E+03  6.29788E+03  4.78422E+03  5.20056E+03  1.00690E+04
 -4.27228E+02  1.40842E+04 -9.76252E+03  3.96578E+03 -1.39812E+04 -3.34091E+03 -8.39832E+03 -1.81125E+03
 -7.88746E+03 -8.39613E+03 -1.80183E+03 -1.08132E+04  4.55299E+03 -5.51664E+03  2.98005E+03 -1.40491E+03
 -6.05124E+01 -3.40788E+03  4.29247E+03 -4.26495E+03  9.88418E+03 -3.66202E+03  8.03702E+03 -7.31593E+02
  1.04773E+04  4.43832E+03  5.77229E+03  7.78374E+02  4.77937E+01  3.49239E+03 -7.81607E+03  4.39216E+03
 -8.43635E+03 -7.81304E+02 -1.55761E+03 -3.65372E+03  1.85490E+03 -5.75289E+03  1.28793E+03 -1.01011E+04
  8.89340E+03 -3.97136E+03  1.06385E+04  1.54236E+01  5.83230E+03  6.52948E+03  1.43240E+03  8.66406E+03
  1.47856E+03  6.43992E+03 -1.50652E+03  4.48633E+03  3.13690E+03 -6.18514E+03  1.14379E+03  3.40572E+03
 -2.71421E+03  2.33009E+03  1.62202E+03  1.49029E+03 -1.47542E+03 -6.49092E+02 -2.65652E+03 -1.88564E+03
 -4.84077E+02 -4.03037E+03  7.34453E+01 -7.15010E+03  3.21945E+03 -3.31969E+03  4.80170E+03  2.86448E+03
  7.77512E+03  2.36931E+03 -8.75149E+02  4.31988E+03  7.18591E+02  6.30881E+03 -5.34815E+03  2.97579E+03
 -2.30186E+03  3.89080E+02 -4.12036E+03 -1.00278E+03 -5.27243E+02 -1.92141E+03  2.80887E+03 -1.25477E+03
  2.98056E+03 -7.15656E+02  4.44567E+03  1.46113E+03  1.46778E+03 -8.32484E+02  2.22026E+03 -1.21059E+03
  3.80403E+03  1.52797E+03  3.40769E+03  4.73161E+03  5.43429E+03  3.61680E+03  8.44812E+02  2.36566E+03
 -2.82513E+03  4.80595E+03 -1.91583E+03  3.93599E+03 -6.79470E+03  2.18420E+03 -5.65694E+03  3.80465E+02
 -2.84621E+03 -1.01993E+04 -2.21203E+03 -4.38330E+03  1.39811E+03 -6.38208E+03  3.76450E+03 -3.69154E+03
  6.95508E+03  6.66419E+03  2.42123E+03  4.14764E+03 -4.66287E+03  5.31229E+03  3.08960E+03  1.52482E+03
  3.61606E+02 -2.17609E+03 -4.50693E+03 -5.44290E+03  1.64785E+03  3.63086E+03  1.89736E+03 -5.45477E+03
 -5.34028E+02  5.69729E+02  1.66952E+03 -2.13348E+02  2.18380E+03 -4.50812E+02  4.97493E+03  4.86560E+03
  2.55292E+03  4.56830E+03 -1.32141E+03  5.05536E+03  2.52027E+03  3.57126E+03 -2.01757E+03  7.85580E+03
  3.13533E+03  5.89751E+03 -5.61327E+03  1.78063E+03  1.35741E+03 -4.45091E+03  1.37245E+03 -5.99031E+02
  3.69713E+03 -5.05865E+03 -4.53447E+02 -4.16407E+03  3.34283E+03  9.46686E+03 -7.79332E+02  4.76306E+02
 -1.99710E+03  1.24177E+03 -3.98132E+03 -2.92627E+03 -6.10217E+02 -1.75185E+03  1.75996E+03  1.39195E+03
  5.39904E+03 -1.75351E+03 -2.43393E+02 -1.12377E+03  2.50704E+03  4.49854E+02 -2.21278E+03  2.91709E+03
  6.15515E+03 -1.14184E+03  1.90137E+03 -1.89651E+03  4.52270E+03  2.33279E+03 -2.01789E+03 -2.27475E+03
  3.65756E+03 -1.22873E+03  3.08408E+03 -1.55902E+03  3.05715E+03  3.27599E+03 -1.14936E+03  3.74228E+03
 -3.25885E+03  2.38375E+03 -1.82852E+03 -1.42656E+03 -1.11205E+03 -2.06810E+03 -4.19250E+02 -5.04458E+03
  8.79188E+02 -1.50013E+03 -1.95666E+02 -2.43029E+02  1.98754E+03  2.75357E+01  3.08784E+03  1.81639E+02
 -1.82504E+02  3.89766E+03  3.64579E+03  1.36061E+03 -1.88201E+03  6.74423E+02 -3.27975E+03 -6.41196E+01
 -2.09420E+03 -1.69164E+02 -2.41874E+03  3.64427E+03  1.10040E+03 -7.69856E+02 -4.12320E+03  4.95683E+02
 -9.28411E+02 -3.95949E+03 -5.46679E+02 -4.17894E+03  4.49838E+03 -4.37491E+03  2.25456E+03 -2.26027E+03
  8.12176E+03  3.09695E+03  3.96701E+03  1.35692E+03  4.49666E+02  2.01852E+03 -2.11052E+02  3.18083E+03
  5.59977E+01  4.23189E+02  2.17919E+03 -2.63639E+03 -6.62197E+02  1.47194E+03  1.40988E+03 -9.74292E+01
 -1.55674E+02 -1.58208E+02 -1.69728E+03 -1.65063E+03 -4.37672E+03 -7.66870E+02  1.40870E+03 -1.36963E+03
  4.86346E+03 -5.11925E+03  4.95988E+03 -2.82721E+03  4.00969E+03  5.46642E+02 -2.07650E+03  2.15361E+03
 -7.09632E+02  5.10210E+02 -1.28438E+03  1.65440E+03 -2.62496E+03  1.28720E+03 -9.96762E+03 -2.80774E+03
  1.44679E+03 -3.82831E+03  1.85818E+03 -3.19224E+03  6.56716E+03  1.36352E+03  3.87278E+03  3.10229E+02
  3.22498E+03 -1.03612E+03  1.94047E+03  1.05642E+03  7.92860E+02  5.58546E+03  1.68738E+03 -3.44188E+03
  3.23149E+02  8.97146E+03  2.03134E+03 -1.02392E+03 -1.24651E+02 -2.58895E+03 -1.46762E+03  3.25281E+03
 -1.04955E+02  6.97121E+03 -1.35720E+03 -4.34108E+03 -1.93660E+03 -1.48658E+03  1.59646E+03 -1.93413E+03
 -1.41741E+01 -2.03760E+03 -3.46991E+02 -3.94905E+02  2.01404E+02  1.66569E+03 -6.81883E+02  2.08482E+03
  3.70620E+03  3.04008E+03 -1.24585E+03  2.81292E+03 -2.51660E+03  5.09907E+02  1.76111E+02 -3.38628E+03
 -1.25440E+03  6.13587E+02  1.23345E+02  7.41436E+03 -1.61717E+03 -9.61695E+02 -2.65636E+03  2.15423E+02
 -4.69154E+03  2.95357E+03  1.04930E+03 -1.39282E+03  2.31371E+03 -3.97643E+03  1.15634E+03 -1.99446E+03
  4.92932E+03  2.07848E+02 -1.28652E+03  1.79991E+03  1.79065E+03  3.84590E+03 -2.18939E+03 -3.31899E+03
