 $NMID ID='MM_0lb_SNR50_20hz_g45_88.RAW', FMTDAT='(8E13.5)'
 TRAMP=1., VOLUME=1. $END
  3.06560E+05 -3.52541E+02  3.42712E+05  2.49569E+05  7.96645E+04  3.40743E+05 -1.31324E+05  2.46369E+05
 -1.90998E+05  8.22900E+04 -1.07184E+05 -3.38941E+04  7.62990E+02 -4.54791E+04  5.46361E+04  4.58866E+03
  3.42384E+04  5.25420E+04 -1.76360E+04  7.50823E+04 -5.77138E+04  6.47330E+04 -8.07085E+04  3.21577E+04
 -8.10776E+04 -1.14741E+04 -6.07844E+04 -4.76762E+04 -1.50801E+04 -6.76735E+04  2.74683E+04 -4.82545E+04
  4.06079E+04  1.38595E+03  1.42104E+04  4.68550E+04 -3.25643E+04  4.33694E+04 -6.26115E+04 -3.47689E+03
 -5.21564E+04 -5.55232E+04 -1.34279E+04 -6.90930E+04  3.47226E+04 -5.22930E+04  4.79787E+04 -1.53236E+04
  4.32362E+04  8.95925E+03  2.85362E+04  2.01508E+04  1.69209E+04  2.89394E+04 -1.50919E+03  2.76017E+04
 -2.04174E+04  1.30645E+04 -1.98278E+04 -2.79281E+03  8.04454E+03 -6.91801E+03  2.05804E+04  8.20288E+03
  5.74791E+03  3.34143E+04 -3.08978E+04  3.74125E+04 -5.81936E+04  3.46150E+03 -5.95922E+04 -3.94626E+04
 -1.08658E+04 -6.02625E+04  3.49564E+04 -4.39881E+04  5.31492E+04 -1.47936E+03  3.62172E+04  3.31271E+04
 -5.42494E+03  3.14677E+04 -2.43176E+04  1.22328E+04 -2.85875E+04 -1.79510E+02 -1.25330E+04 -1.02140E+04
 -7.45671E+03 -1.14524E+04 -2.43824E+03 -1.93649E+04  9.76980E+03 -2.19692E+04  1.42607E+04 -1.48171E+04
  7.86301E+03  6.05668E+03 -1.07787E+04  9.10902E+03 -1.44055E+04 -1.08216E+03 -8.20115E+03 -2.88857E+04
  1.97512E+04 -4.04771E+04  4.00125E+04 -1.60559E+04  4.13561E+04  1.45298E+04  1.36992E+04  3.88494E+04
 -1.39758E+04  3.00223E+04 -2.24999E+04  3.12390E+03 -9.17367E+03 -2.96827E+04  2.01846E+04 -2.89994E+04
  3.64139E+04 -7.88245E+03  3.13800E+04  2.09504E+04  1.31240E+04  3.98576E+04 -5.84964E+03  4.70757E+04
 -2.65122E+04  2.37813E+04 -3.52200E+04  1.16785E+04 -3.71975E+04 -1.32377E+04 -2.18139E+04 -3.38732E+04
  7.18845E+03 -3.20567E+04  2.63994E+04 -1.38424E+04  2.66825E+04  9.76609E+03  2.66393E+03  1.89992E+04
 -1.43776E+04  8.75960E+03 -9.19994E+03 -6.42137E+03  6.53727E+03 -8.82572E+03  1.56329E+04  6.57579E+03
  1.14616E+04  2.28853E+04 -6.65573E+03  2.36246E+04 -1.80321E+04  7.21255E+03 -2.71230E+04 -3.42950E+03
 -1.19797E+04 -9.86565E+03 -2.94011E+02 -1.78239E+04  3.93452E+03 -6.36502E+03  1.09295E+04 -1.52130E+04
  2.16834E+04 -1.21558E+04  2.70289E+04  2.17799E+03  2.49132E+04  1.64536E+04  6.03958E+03  2.80631E+04
 -1.39877E+04  2.74112E+04 -2.33171E+04  1.08578E+04 -2.08375E+04 -9.76341E+03 -3.03841E+03 -1.36282E+04
 -3.24910E+02 -8.52702E+03 -4.35189E+03  4.50394E+03 -1.23720E+04  7.48573E+03 -1.29465E+04 -5.07035E+03
 -7.24196E+03 -1.31691E+04  6.19059E+03 -1.56440E+04  1.39066E+04 -1.69778E+04  1.34929E+04 -5.13853E+03
  6.89485E+03  4.41160E+03 -5.51609E+02  1.43048E+04 -8.91736E+03  7.19310E+03 -1.53740E+04 -4.84454E+03
 -1.13499E+04 -1.61553E+04 -3.53748E+03 -2.40158E+04  7.68653E+03 -1.58098E+04  1.81316E+04 -6.69604E+03
  8.75471E+03  4.82713E+02  9.28880E+03  4.22331E+03  2.77233E+03  2.76716E+03  5.89711E+03 -2.94551E+03
  1.45744E+04  5.44186E+03  1.23709E+04  1.13472E+04  5.71720E+03  2.37188E+04 -7.01995E+03  2.45887E+04
 -1.23783E+04  2.04420E+04 -2.35518E+04  8.18558E+03 -2.36176E+04 -2.60232E+03 -2.12173E+04 -8.78969E+03
 -6.47928E+03 -1.76941E+04  9.25711E+03 -1.80309E+04  1.14653E+04 -6.80150E+03  1.65874E+04  2.55051E+03
  4.77620E+03  1.38766E+04 -8.06703E+03  1.19563E+04 -1.42070E+04  2.78823E+03 -1.21425E+04 -8.75148E+03
  2.96936E+03 -4.85589E+03  4.74316E+03 -1.14726E+04  6.79182E+03 -2.21713E+02 -2.43175E+03  4.11054E+03
 -9.05868E+03  1.22105E+03 -4.19118E+03 -2.62003E+03 -2.03789E+02 -1.09402E+04  1.05743E+04 -8.15144E+03
  1.12046E+04 -1.88620E+03  7.85070E+03  4.65017E+03  8.03059E+03  8.44780E+03  7.04386E+03  1.04717E+04
 -1.05931E+03  1.56432E+04 -6.96049E+03  9.43745E+03 -1.26429E+04  6.23836E+03 -9.34344E+03 -2.51232E+03
 -6.64074E+03  1.03979E+03 -2.13582E+03 -8.88903E+02 -4.94444E+02  1.24418E+03 -5.29438E+02 -7.17013E+02
 -5.60522E+03  2.47852E+03 -1.00976E+04 -5.27710E+03 -1.51461E+03 -1.26925E+04  4.28303E+03 -5.62922E+03
  5.43617E+03 -6.10559E+03  1.95450E+03  2.27900E+03 -4.05744E+02 -4.81446E+02 -1.82720E+03 -4.05409E+02
 -5.38314E+03 -1.83930E+03  7.01829E+01 -6.03424E+03  4.07469E+03 -7.67032E+03  7.96867E+03 -5.66310E+02
  8.86824E+03  3.34352E+03  7.78210E+03  1.91164E+03  1.34383E+03  5.49189E+03 -7.33217E+03  5.67388E+03
 -1.16248E+04  4.46033E+03 -1.27962E+03  1.85100E+03  2.84569E+03 -5.02540E+03  7.78643E+03  5.15510E+02
  6.17127E+03  5.55164E+03  1.05748E+02  5.11368E+03 -3.41274E+03  2.06991E+03 -5.04657E+03 -5.26539E+02
 -5.54321E+03 -1.76763E+03 -3.39689E+03 -4.11306E+03  1.60586E+03 -4.96601E+03  5.97804E+02  1.81539E+03
  9.27509E+01  2.37589E+03 -6.51008E+03  4.98973E+03 -3.49077E+03  4.99924E+03 -4.16982E+03  2.37230E+03
 -2.22429E+03 -6.68420E+03  3.19300E+03 -7.05899E+03  1.04182E+04 -3.14019E+03  5.23504E+03 -1.20570E+03
  3.45218E+03  6.24670E+03  3.14304E+02  3.98276E+03 -5.90966E+03  4.83999E+03 -2.63686E+03 -1.87730E+03
 -4.65885E+03 -2.89228E+03 -3.96459E+03 -1.25747E+03  2.17900E+03  1.81138E+03  5.27317E+03 -6.03461E+03
  1.56682E+03  1.15926E+03 -1.59187E+03  2.46110E+03  3.14656E+03 -3.54126E+03  8.70713E+02  8.01188E+02
  1.62883E+03  7.79693E+02  2.88513E+03  3.37692E+01  1.08293E+04  5.24191E+03  9.11784E+02  4.82113E+03
  1.99511E+03  6.36591E+03 -2.54116E+03  8.68266E+03 -9.48259E+03  2.16029E+03 -5.83871E+03 -5.38361E+03
 -8.13101E+02 -6.49371E+03  2.09583E+03 -2.88737E+03  1.58370E+03 -2.18575E+02 -1.17669E+03  1.67311E+03
 -1.05476E+03 -4.00670E+03  3.03594E+03 -4.37598E+02  5.20078E+03  2.46673E+02  2.61904E+03  1.18433E+03
  7.08628E+03 -1.34727E+03  1.15430E+03 -9.49962E+02 -2.94952E+03  2.64474E+03 -5.29791E+03  6.44659E+03
 -7.72705E+01 -5.08679E+03 -2.25413E+03 -2.62061E+03  2.28835E+03 -5.06825E+03  4.88135E+03 -2.17164E+03
 -7.37653E+02 -3.87800E+03  3.17095E+03 -2.27091E+03  5.28540E+03  5.97832E+02  2.52612E+03  3.95633E+03
  9.66989E+02  2.28740E+03 -9.27921E+02  4.07142E+03 -1.40479E+03 -3.83290E+03 -2.79143E+03 -9.52261E+02
  1.39635E+02  2.62075E+02 -1.47303E+03  2.30141E+03 -4.00514E+03  3.05888E+03 -4.19425E+03 -1.09659E+03
 -1.77391E+03 -1.90718E+03  2.33415E+03 -6.21461E+03  4.00564E+03 -2.94142E+03 -1.23280E+03 -1.86933E+03
  5.55490E+03  4.44427E+03  2.59183E+03  2.23273E+03  1.06883E+02  4.34465E+03  1.53595E+03  3.24678E+03
 -3.33940E+03  1.26163E+03 -6.77310E+02 -4.68187E+03 -2.76238E+03 -9.84080E+02  1.47430E+03 -3.02598E+03
  1.54548E+03 -2.28289E+03 -9.03467E+01 -7.14038E+02 -1.24075E+03  8.78764E+01 -3.79049E+03  7.84451E+02
  1.82419E+03  5.41158E+02  9.45762E+02 -3.48058E+03 -1.51296E+03  3.25074E+03  2.22390E+03 -1.02719E+03
 -3.71480E+03  1.33964E+03  9.50007E+02  4.63485E+03 -2.16244E+03 -9.60653E+02 -1.34605E+03 -1.55729E+03
 -2.22271E+03 -2.62730E+03 -3.74087E+03 -1.73038E+03  2.83330E+03 -3.42619E+03 -5.70830E+02 -1.19931E+03
  1.19346E+03  1.44563E+03  5.04669E+03 -1.67012E+03 -9.87485E+02  3.17198E+03  2.76604E+03 -8.38963E+01
  1.11912E+03 -1.54080E+03  1.91072E+03 -1.96430E+03 -1.58043E+02 -1.20020E+03  1.08104E+03  3.14739E+03
 -4.65629E+03 -3.34398E+00  5.33900E+02  3.78991E+02  2.65174E+03 -1.03680E+03 -2.77860E+02  1.73693E+03
 -2.68576E+03  4.59322E+03 -1.51701E+03  7.47294E+01 -3.10741E+03  3.17756E+02 -3.00201E+02  1.26601E+03
 -9.96207E+02  7.85309E+01 -1.66749E+03  2.50202E+03  4.28779E+01  1.61716E+03  1.46721E+02  1.48826E+03
  4.47445E+03  2.74169E+03 -2.24968E+03  5.82996E+02 -9.20534E+02  2.14731E+03 -4.76732E+03 -6.74507E+02
  2.64572E+03  1.06394E+03 -7.67319E+02 -3.36237E+03  4.06665E+02 -4.59948E+03  1.28684E+03 -6.56513E+02
 -1.47976E+03 -2.17234E+03  2.44501E+03 -2.69231E+03  4.77490E+03  4.65083E+03 -5.02611E+02  4.22735E+03
  2.88448E+03  1.53733E+03 -7.14174E+03 -1.38671E+03  1.65171E+03 -1.07509E+03  1.46939E+03  6.35715E+02
  8.27604E+02  3.31812E+03  3.70116E+03  8.47217E+02 -8.06282E+02  2.30922E+03  1.07918E+03  6.27370E+03
 -6.01936E+03 -4.02612E+03 -2.12939E+03 -9.63746E+02 -1.67664E+03  1.68382E+03 -2.12395E+03 -2.49543E+03
 -9.36100E+02  4.24209E+03  1.61218E+03  1.12298E+03  5.34807E+03  3.67802E+03  1.44382E+03  2.95502E+03
  3.27942E+02  3.29010E+03 -1.05896E+02  2.19433E+02 -5.27415E+03  2.03695E+02  2.08073E+03 -2.22751E+03
  1.18270E+03  3.80106E+03  5.57270E+02 -2.83051E+03 -9.65923E+02 -2.96177E+03 -3.85396E+03  1.68904E+03
  9.21268E+02 -2.11826E+03  5.79721E+02 -4.08539E+03  8.40886E+02  1.63434E+03  4.41001E+03 -3.35628E+02
  5.14744E+03  2.45258E+03 -5.54600E+02 -4.31400E+02  2.93590E+02  2.46114E+03  1.96199E+03 -2.29552E+03
  5.87739E+02 -5.38407E+02 -4.02692E+02  1.73040E+02 -2.50699E+03  2.39299E+03 -3.66483E+03  3.58874E+03
 -7.21696E+02 -9.36936E+02  2.08206E+03 -9.57372E+02  2.37946E+03 -4.39239E+02 -5.85188E+02 -2.81565E+02
  2.55048E+03 -1.55954E+03  2.13106E+03  1.93039E+03 -1.75127E+03  3.14413E+03  5.10664E+02 -5.55726E+02
 -4.01270E+03  3.45091E+03 -8.23515E+02 -1.52971E+03 -1.88993E+03 -5.16913E+02  7.11455E+02 -2.02028E+03
  2.67700E+03 -4.77745E+02  7.74118E+02  2.81613E+03 -4.83970E+02 -1.96981E+03 -2.71500E+03 -3.31803E+03
 -5.36698E+01 -9.79783E+02  3.32697E+03  2.50495E+03  1.04705E+03  1.18195E+03 -1.56187E+03  1.26509E+02
  1.87502E+03  6.71075E+02  1.54401E+03 -2.63328E+03  2.13254E+02 -2.49311E+03  1.76130E+03 -2.34893E+03
 -1.51219E+03 -3.19321E+03  9.76793E+02  1.48710E+03 -3.99802E+03 -3.87731E+03 -3.74183E+03  1.25158E+03
 -2.53634E+03  2.87388E+03 -3.68586E+03  2.92658E+02  9.18061E+02 -4.97432E+02  1.96864E+02 -3.10769E+03
  1.47523E+02  4.25328E+03 -2.37395E+03  1.22853E+03 -3.30778E+03 -1.15381E+03 -1.09279E+03  1.64307E+03
  1.54234E+03 -7.63873E+02  9.71380E+01 -6.30036E+02 -2.25264E+03  1.29861E+03 -3.47910E+03  1.54869E+03
  5.08199E+02  7.06855E+02 -7.94269E+02  2.59172E+03  2.03461E+03 -4.44257E+03 -1.50964E+03 -4.77486E+03
 -1.30881E+03 -1.26876E+03 -1.35499E+03 -9.29698E+02 -1.14098E+03  2.88433E+03 -3.77866E+03  1.56656E+03
