 $NMID ID='MM_0lb_SNR50_7hz_g60_100.RAW', FMTDAT='(8E13.5)'
 TRAMP=1., VOLUME=1. $END
  3.06630E+05  3.83199E+03  3.41833E+05  2.49812E+05  8.24284E+04  3.35076E+05 -1.24090E+05  2.58765E+05
 -1.87826E+05  8.12350E+04 -1.10425E+05 -3.61138E+04  2.95484E+03 -4.84540E+04  4.71093E+04  4.43450E+03
  3.13928E+04  6.02382E+04 -1.91918E+04  7.37100E+04 -6.12648E+04  6.75302E+04 -9.11888E+04  3.39927E+04
 -8.75206E+04 -1.68471E+04 -5.18865E+04 -6.08644E+04 -1.84261E+04 -8.16256E+04  3.13956E+04 -4.69564E+04
  3.77875E+04  3.61201E+03  1.67733E+04  4.63867E+04 -3.56392E+04  5.03075E+04 -6.33223E+04  1.52885E+03
 -5.63205E+04 -5.53402E+04  1.21203E+03 -7.79535E+04  4.19218E+04 -5.49486E+04  4.85982E+04 -1.86331E+04
  5.17124E+04  1.87692E+04  3.43372E+04  2.46703E+04  1.77023E+04  3.67443E+04 -5.16827E+02  2.10477E+04
 -1.79648E+04  9.57897E+03 -2.24076E+04 -5.38305E+03  1.93018E+04 -1.13825E+04  2.65046E+04  1.20685E+04
  1.05375E+04  4.56563E+04 -3.40759E+04  3.61568E+04 -7.46375E+04  1.87663E+03 -5.09791E+04 -3.68571E+04
 -1.54401E+04 -6.18595E+04  4.28014E+04 -4.73695E+04  6.53307E+04 -5.86356E+03  3.57367E+04  4.00678E+04
 -1.05782E+04  4.28484E+04 -3.83565E+04  2.19382E+04 -3.55219E+04  4.82836E+03 -2.64355E+04 -1.29478E+04
 -1.06644E+04 -1.84418E+04 -3.15030E+03 -2.46616E+04  1.00281E+04 -2.39584E+04  1.11623E+04 -2.87426E+03
  1.01453E+04  4.50752E+03 -5.91710E+03  9.15782E+03 -2.61785E+04 -8.27318E+03 -2.28019E+03 -3.51011E+04
  3.05963E+04 -4.83332E+04  5.39200E+04 -1.93706E+04  5.06953E+04  1.35900E+04  2.15204E+04  4.67184E+04
 -1.38561E+04  3.55729E+04 -3.15804E+04 -3.40670E+03 -1.08756E+04 -2.59731E+04  2.31016E+04 -3.86499E+04
  5.25942E+04 -1.32645E+04  3.89036E+04  2.05030E+04  2.37475E+04  5.14952E+04 -1.07638E+04  6.29525E+04
 -3.25089E+04  4.12117E+04 -4.34302E+04  5.62128E+03 -4.69350E+04 -1.15842E+04 -2.54921E+04 -4.01585E+04
  2.89621E+03 -4.28467E+04  3.31944E+04 -2.32768E+04  4.02895E+04  6.08760E+03  7.43828E+03  2.55339E+04
 -1.99088E+04  1.27758E+04 -1.18031E+04 -1.20299E+02 -1.20841E+02 -9.37483E+03  2.37546E+04  4.02059E+03
  1.52693E+04  2.93454E+04 -2.58116E+03  2.44486E+04 -2.14160E+04  1.59747E+04 -3.81072E+04  8.33983E+02
 -3.04124E+04 -2.23177E+04 -1.37668E+04 -2.44749E+04  1.30928E+04 -2.71046E+04  2.30811E+04 -2.56418E+04
  3.91657E+04 -1.68121E+04  4.19323E+04  4.10818E+03  2.02544E+04  2.96281E+04  4.02358E+03  3.94933E+04
 -1.66388E+04  3.81402E+04 -2.05961E+04  7.21283E+03 -3.13149E+04 -1.43841E+04 -2.38441E+03 -1.71238E+04
 -1.33387E+03  9.04774E+02 -9.48198E+03  1.20924E+04 -2.42413E+04  6.37395E+03 -2.19486E+04 -1.05591E+04
 -1.11138E+04 -3.12685E+04  2.79260E+03 -2.57127E+04  1.57686E+04 -2.48356E+04  2.36360E+04 -1.04852E+03
  1.58321E+04  8.78675E+03 -1.10280E+04  2.59972E+04 -1.62493E+04  1.27111E+04 -2.43762E+04 -1.26012E+04
 -1.48762E+04 -1.41036E+04 -4.83824E+03 -3.21452E+04  1.65032E+04 -2.25999E+04  3.41784E+04 -1.48819E+04
  1.88034E+04  2.97874E+03  1.44143E+04  7.29501E+03  1.05654E+04 -3.25041E+03  6.43320E+03  1.69256E+03
  2.89523E+04  5.38088E+03  2.85879E+04  2.45367E+04  1.81035E+04  4.64769E+04 -3.07514E+03  4.82155E+04
 -2.39090E+04  3.93015E+04 -4.97457E+04  2.47914E+04 -5.22630E+04  4.53119E+02 -3.76187E+04 -3.03534E+04
 -1.56725E+04 -4.04896E+04  1.54734E+04 -3.73132E+04  2.69891E+04 -1.77677E+04  3.23035E+04  6.34422E+03
  8.40940E+03  3.31888E+04 -1.34879E+04  1.05995E+04 -2.66627E+04  5.72861E+03 -1.66971E+04 -1.69277E+04
 -1.75425E+03 -2.77166E+04  1.34372E+04 -1.74906E+04  1.25728E+04  4.24457E+03  3.84974E+03  5.57083E+03
 -7.95490E+03  1.24055E+04 -1.01110E+04 -8.03544E+03 -7.00212E+03 -1.93342E+04  2.08742E+04 -2.39553E+04
  2.43569E+04 -1.79498E+04  3.26426E+04  8.27453E+03  3.67660E+04  2.09059E+04  1.24151E+04  3.40709E+04
 -8.21541E+03  3.30803E+04 -2.36835E+04  2.18268E+04 -2.91029E+04  5.23004E+03 -1.81663E+04 -1.97711E+03
 -8.57109E+03 -7.04490E+03 -6.27413E+03 -8.48618E+01 -8.59490E+03  8.95578E+03 -5.40028E+03 -1.24850E+03
 -1.96212E+04 -7.54120E+02 -1.51483E+04 -9.29299E+03 -3.44293E+03 -2.62762E+04  4.28614E+03 -2.17616E+04
  1.59587E+04 -2.55305E+03  1.17661E+04  3.71317E+03 -3.63244E+03  6.65189E+03 -7.90747E+02 -2.70784E+03
 -8.44040E+03 -1.19022E+04  2.49618E+02 -1.79205E+04  5.68634E+03 -2.09631E+04  2.07473E+04 -1.50772E+04
  3.04145E+04  5.24919E+03  2.21245E+04  2.14349E+04  1.17744E+03  2.30845E+04 -1.00585E+04  2.31754E+04
 -1.61906E+04  5.92350E+03 -1.24762E+04 -1.57049E+04  5.28392E+03  7.20374E+03  1.21543E+04 -2.22899E+03
  8.73150E+03  3.23842E+03  8.82807E+03  2.80295E+04 -1.69196E+04  1.57537E+04 -1.94807E+04  7.94380E+03
 -8.40285E+03 -4.95304E+03  1.50711E+03 -1.35710E+04  7.10660E+03 -5.09584E+03  1.70224E+04  6.68688E+03
 -2.74692E+03  7.29502E+03 -9.98940E+03  1.36535E+04 -1.58946E+04  8.48788E+03 -1.65863E+04 -8.07680E+03
 -1.78504E+04 -2.15753E+04  4.67637E+03 -2.47586E+04  1.81136E+04 -1.00852E+04  1.97301E+04  1.33997E+04
  1.53886E+04  2.58373E+04  6.75755E+03  1.78968E+04 -1.33826E+04  4.39857E+03 -1.69758E+04 -1.70387E+03
 -1.32098E+04 -7.07095E+03  2.56920E+03 -1.51545E+04  8.48863E+03 -1.80836E+04  1.18164E+04 -6.67151E+03
  5.79476E+03  4.54137E+02  7.11916E+03  7.78830E+03 -6.71883E+02 -8.00700E+03  3.75438E+03 -1.52741E+04
  1.61529E+04 -1.12861E+04  2.73657E+04 -2.85737E+00  3.17209E+04  9.81161E+03  1.11174E+04  3.19919E+04
 -7.62132E+03  2.88507E+04 -2.13067E+04  2.66631E+04 -3.80299E+04  2.83668E+02 -2.31880E+04 -5.07426E+03
 -1.72169E+04 -2.43058E+04  1.50832E+03 -2.25107E+04  9.91569E+03 -1.12063E+04  2.00627E+03 -5.78160E+03
  7.87257E+03 -8.50026E+02  6.04134E+03 -7.70564E+03  3.43309E+03 -3.79075E+03  1.19416E+04 -1.14047E+03
  1.41972E+04  3.47178E+03  1.18860E+04  9.23359E+03 -5.66437E+02  2.08959E+04 -2.08927E+04  8.60682E+03
 -1.97287E+04 -4.30593E+03 -1.38038E+04 -1.52618E+04 -2.95800E+03 -1.78054E+04  1.00606E+04 -2.46014E+04
  1.25879E+04 -1.02145E+04  2.37373E+04 -1.91774E+03  1.03343E+04  2.22972E+04  1.70182E+03  1.65153E+04
 -1.01732E+04  1.69059E+04 -7.93361E+03  2.17967E+03 -7.84574E+03 -8.29887E+03 -2.10943E+03  4.41118E+03
 -5.38813E+03  4.07515E+03 -3.77120E+03  4.55575E+03 -8.19754E+03  7.75865E+03 -1.73978E+04  2.42806E+03
 -1.25152E+04 -9.09175E+03  7.36892E+02 -2.07975E+04  1.16707E+04 -1.64768E+04  1.62581E+04 -1.53547E+03
  1.60361E+04  5.88380E+03  1.30820E+04  1.15979E+04  2.05579E+03  2.44754E+04 -1.28237E+04  2.06087E+04
 -1.77323E+04 -4.93906E+03 -1.16154E+04 -1.42235E+04 -1.07653E+04 -2.14086E+04 -1.25012E+02 -9.64347E+03
  8.75896E+03 -8.45797E+03  6.11453E+03  1.38324E+03  3.39014E+03  3.31674E+03  3.16279E+03  1.48885E+04
  4.98313E+03  7.60585E+03  5.81046E+03 -1.01457E+03  8.84802E+03  5.29552E+03  8.95504E+03  1.48772E+04
 -3.30424E+03  1.25061E+04 -1.15693E+04  1.16916E+04 -2.71721E+04  5.90537E+03 -1.80343E+04 -1.12984E+04
 -1.18398E+04 -2.68828E+04 -2.10948E+03 -1.59602E+04  6.04172E+03 -1.07461E+04  1.58410E+04 -3.87986E+03
  1.32579E+04  9.29502E+03 -1.57331E+01  1.10387E+04 -1.09225E+04  6.74889E+03 -6.16096E+03  3.70268E+03
 -1.33614E+04 -1.15895E+04  1.44775E+04 -9.64352E+02  6.11681E+03 -1.53221E+04  1.38850E+04  6.63685E+03
  8.07413E+03  4.39595E+03  1.66792E+03  1.55200E+03 -3.63499E+02  1.34572E+03  8.52597E+03  4.61897E+03
 -3.83112E+02 -4.33794E+03  1.20907E+04  7.93165E+02  2.99129E+03  1.28564E+04 -4.95594E+02  1.80417E+04
 -1.26586E+04  5.76767E+03 -1.19453E+04  1.86244E+03 -9.82446E+03 -5.98674E+03 -4.03300E+03 -9.87601E+03
  2.53833E+03 -1.12753E+04  1.83592E+03 -1.04452E+04  3.69428E+03  1.24608E+04 -7.07171E+03  9.52764E+03
 -9.82615E+03  9.76269E+03 -2.12829E+04  8.10364E+03 -3.57051E+03 -1.31726E+04  2.51556E+03 -1.23329E+04
  5.72761E+03 -8.18440E+03  1.55725E+04 -1.57970E+03  8.05127E+03  3.56891E+03  3.73655E+03  7.48808E+03
 -6.14551E+03  5.59976E+02 -7.97977E+02 -1.08238E+03  1.31841E+03 -6.58379E+03  1.31717E+04 -5.20515E+03
  7.58184E+03  3.04670E+03  1.26658E+04  9.65039E+03  2.38528E+03  8.75710E+03 -4.03270E+03  7.96315E+03
 -1.50351E+04  6.55040E+03 -1.48820E+04 -2.33935E+03 -1.16183E+04 -9.43135E+03  2.55455E+03 -6.96221E+03
  9.67410E+03 -1.30374E+04  8.84320E+03  1.37810E+03 -3.40669E+02  4.19108E+03 -3.55932E+03  9.86942E+03
 -5.74538E+03  3.00910E+03 -7.90629E+03  2.87560E+03 -7.77256E+03  2.83149E+03 -3.17918E+03  1.41456E+03
 -1.28250E+02  1.01743E+04 -4.69153E+03  2.63430E+03 -1.82848E+04 -5.21885E+03 -1.73876E+04 -8.86064E+03
 -1.04924E+04 -2.24923E+04  6.92800E+03 -2.56231E+04  1.25387E+04 -2.12349E+04  1.75288E+04 -8.56441E+03
  2.63304E+04  3.37843E+03  1.14796E+04  1.38459E+04  4.99532E+03  1.70287E+04 -4.14930E+03  1.63326E+04
 -7.18209E+03  6.56613E+03 -4.06373E+03 -3.02874E+03  2.99819E+03 -2.08697E+03  5.15333E+03 -6.20314E+03
 -2.40439E+03  3.07194E+03 -5.32302E+03 -6.55800E+03  2.86403E+02 -6.76001E+03 -1.89737E+03 -2.45436E+03
  3.70527E+03 -5.29324E+02  1.07178E+04 -2.72076E+03  7.07500E+03  6.71980E+03 -7.43573E+02  1.38384E+04
 -8.74222E+03  1.45051E+04 -1.84593E+04  8.39628E+03 -2.27090E+04 -2.07214E+03 -1.32170E+04 -1.60029E+04
 -7.33452E+03 -1.42061E+04  1.20343E+04 -1.92026E+04  7.55778E+03 -1.09853E+04  1.13894E+04  1.49086E+03
  6.26360E+03  6.94438E+03  4.29184E+02  3.30993E+03 -6.32808E+03  1.43272E+03  5.11950E+03 -2.67214E+03
  9.89472E+03 -1.08895E+04  1.08443E+04  4.71727E+03  5.05464E+02  1.30550E+04 -6.93918E+03  1.45413E+03
 -4.54169E+03  8.75862E+03 -1.05488E+04  4.77931E+03 -2.54562E+03 -1.32619E+04  2.77383E+03 -1.55446E+04
  1.31132E+04 -8.93189E+03  2.04919E+04 -1.97216E+03  1.39104E+04  4.72847E+03  9.54715E+03  1.09412E+04
  7.29715E+03  1.35183E+04  1.46784E+03  1.24606E+04 -6.47630E+03 -2.28588E+02 -6.53446E+03  2.86325E+03
  7.38842E+03  6.85143E+02  1.88561E+03  6.45906E+02 -5.75336E+03 -1.23518E+03 -8.73838E+03 -2.97113E+02
 -8.43538E+03 -1.03945E+04 -2.97171E+03 -1.18661E+04 -2.36042E+03 -1.09911E+04  3.54774E+03 -1.30394E+04
  3.50288E+03 -6.93637E+03  4.29488E+03  7.06509E+03  5.97488E+03  1.13614E+04 -1.82092E+03  1.08146E+04
