 $NMID ID='MM_0lb_SNR50_13hz_g50_45.RAW', FMTDAT='(8E13.5)'
 TRAMP=1., VOLUME=1. $END
  3.13482E+05  2.93159E+03  3.46033E+05  2.49220E+05  8.27484E+04  3.33420E+05 -1.29690E+05  2.49306E+05
 -1.96119E+05  8.43872E+04 -1.13966E+05 -3.29298E+04  4.46946E+03 -4.45370E+04  5.47480E+04 -4.29137E+03
  3.52232E+04  4.87987E+04 -1.62889E+04  7.77774E+04 -5.86887E+04  6.24812E+04 -8.12005E+04  3.40864E+04
 -8.03811E+04 -9.38365E+03 -6.02281E+04 -5.08242E+04 -1.48872E+04 -7.27735E+04  2.60248E+04 -4.90813E+04
  4.10519E+04  6.85837E+03  1.51368E+04  4.99934E+04 -3.86352E+04  4.83520E+04 -6.52300E+04  8.23929E+02
 -5.30615E+04 -5.43550E+04 -1.18137E+04 -7.61943E+04  3.15692E+04 -5.83785E+04  4.56437E+04 -1.84516E+04
  4.86195E+04  1.22653E+04  3.51549E+04  2.73694E+04  1.89480E+04  2.88310E+04 -3.37499E+03  2.86767E+04
 -2.31168E+04  1.13351E+04 -1.47467E+04 -5.87740E+03  1.57653E+03 -4.04200E+03  2.42699E+04  1.25094E+04
  1.00467E+04  3.58945E+04 -3.12509E+04  3.43186E+04 -6.58794E+04  3.11043E+03 -5.71336E+04 -4.20209E+04
 -1.34199E+04 -5.79296E+04  4.32587E+04 -4.88164E+04  5.83980E+04 -3.32294E+03  3.50281E+04  2.99123E+04
 -7.62420E+03  3.48663E+04 -3.38775E+04  1.47002E+04 -2.69116E+04 -4.00667E+03 -2.10492E+04 -1.13802E+04
 -5.55783E+03 -1.52600E+04  2.10976E+03 -1.46780E+04  6.01700E+03 -1.76201E+04  1.95562E+04 -1.27284E+04
  1.33652E+04  4.66420E+03 -8.41247E+03  1.45822E+04 -1.93548E+04 -9.11835E+03 -7.02649E+03 -3.39393E+04
  2.36018E+04 -4.40878E+04  4.59619E+04 -2.07068E+04  4.88916E+04  1.89442E+04  1.04226E+04  4.10301E+04
 -1.84272E+04  3.41856E+04 -2.27988E+04 -2.12264E+03 -1.59896E+04 -2.65582E+04  2.22171E+04 -3.09731E+04
  4.10914E+04 -6.91452E+03  3.69206E+04  2.51666E+04  1.24193E+04  4.99419E+04 -1.06726E+04  4.95404E+04
 -3.16102E+04  3.21373E+04 -4.52077E+04  9.31501E+03 -4.28920E+04 -1.68438E+04 -2.38955E+04 -4.33082E+04
  7.45118E+03 -4.08720E+04  3.11253E+04 -1.23897E+04  2.76411E+04  1.09888E+04 -1.83665E+03  1.91000E+04
 -1.91111E+04  1.33156E+04 -1.06352E+04 -6.68558E+03  7.54921E+03 -1.17771E+04  1.89364E+04  3.02050E+03
  1.16711E+04  2.26453E+04 -1.00118E+04  3.20653E+04 -2.24390E+04  1.19111E+04 -2.31748E+04 -4.30728E+03
 -2.12959E+04 -1.51786E+04 -5.32655E+03 -2.07203E+04  4.59385E+03 -1.95258E+04  1.41079E+04 -2.11372E+04
  2.71572E+04 -1.50372E+04  3.40829E+04  3.60279E+03  2.21572E+04  1.89333E+04  5.27933E+03  3.72404E+04
 -1.69886E+04  3.36392E+04 -2.67212E+04  1.52904E+04 -1.64802E+04 -9.61370E+03 -2.95486E+03 -1.21780E+04
  5.99068E+03 -1.28849E+03  3.53398E+03  7.82395E+03 -1.59073E+04  7.02598E+03 -1.84120E+04 -9.12097E+03
 -1.03726E+04 -2.26017E+04  2.87591E+03 -2.35213E+04  1.66418E+04 -1.52193E+04  1.22668E+04  1.86499E+03
  1.16267E+04  1.07858E+04  1.96596E+03  1.85507E+04 -1.11990E+04  1.35899E+04 -1.90740E+04 -3.65786E+03
 -9.05917E+03 -1.75584E+04 -3.91612E+03 -2.39957E+04  9.49723E+03 -2.03018E+04  2.28068E+04 -1.23920E+04
  1.58399E+04 -6.25854E+02  1.47825E+04  6.89650E+03  2.31154E+03  3.12195E+03  9.85340E+03 -1.37398E+02
  1.54926E+04  2.77541E+03  1.75119E+04  1.32368E+04  1.06970E+04  3.12432E+04 -2.47685E+02  3.72981E+04
 -2.76368E+04  3.14008E+04 -3.75762E+04  1.23647E+04 -3.31129E+04 -4.11479E+02 -2.80832E+04 -2.26198E+04
 -9.03404E+03 -2.66259E+04  9.39508E+03 -2.65892E+04  2.17490E+04 -1.10446E+04  2.06453E+04  1.07898E+04
  9.04722E+03  1.46554E+04 -1.23414E+04  1.07778E+04 -1.43775E+04  1.38917E+03 -1.52677E+04 -1.06059E+04
 -4.20196E+01 -1.89462E+04  7.37377E+03 -1.81336E+04  9.86448E+03  4.88384E+03  1.28322E+03  8.96639E+03
 -5.92553E+03  3.05354E+03 -6.15915E+03 -2.69551E+03 -1.46200E+03 -1.46294E+04  1.22031E+04 -1.81477E+04
  1.90425E+04 -1.20730E+04  2.15848E+04  4.34482E+03  1.46585E+04  1.41894E+04  7.32134E+03  2.22257E+04
 -2.07581E+03  1.74067E+04 -1.37843E+04  1.60432E+04 -1.68810E+04 -2.41821E+03 -1.47619E+04  5.22088E+01
 -1.12744E+04 -5.02042E+03  3.65606E+03 -1.09049E+03 -3.57355E+03  2.15881E+03 -5.25240E+03  3.84647E+03
 -8.85697E+03 -3.52954E+03 -1.39446E+04 -8.81065E+03 -4.08174E+03 -1.63264E+04  9.55693E+03 -1.24837E+04
  1.32457E+04 -5.73067E+03  4.88121E+03 -4.91041E+02  6.68436E+03  1.09957E+03 -7.01977E+03 -1.49599E+03
 -1.77547E+03 -9.83965E+03  6.64007E+03 -9.45559E+03  1.12794E+04 -1.56305E+04  2.08094E+04 -8.36203E+03
  1.82374E+04 -2.60227E+03  1.47844E+04  1.41564E+04  9.37604E+02  1.31860E+04 -5.90316E+03  1.04397E+04
 -9.71608E+03  4.85236E+03 -6.97276E+03 -3.36272E+03  5.39734E+03 -6.70847E+03  7.81578E+03  3.04933E+03
  2.70878E+03 -3.08637E+02 -1.21171E+03  6.16649E+03 -1.18235E+04  1.03971E+04 -1.72933E+04  5.83376E+03
 -7.33631E+03 -9.51766E+03 -1.85553E+03 -8.92482E+03  9.29625E+03 -6.16826E+03  8.16168E+03  3.06320E+03
 -3.53440E+03  7.18997E+03 -4.61019E+03  7.03131E+03 -6.02098E+03  3.28513E+03 -8.75955E+03 -4.67082E+03
 -6.77933E+03 -1.20694E+04  5.54977E+03 -1.29048E+04  9.72244E+03 -6.83079E+03  1.85339E+04 -2.57971E+02
  7.76830E+03  4.94347E+02 -4.06134E+03  8.38111E+03 -9.53005E+03  7.27612E+03 -8.90536E+03  5.40369E+02
 -9.56816E+03 -1.48240E+04 -3.71097E+03 -8.61534E+03  3.08841E+03 -5.50443E+03  8.39853E+03 -1.83542E+03
  5.98944E+03 -1.40094E+02 -3.81703E+02  5.54542E+03  6.60272E+02 -4.76128E+03  1.92117E+03 -9.86444E+03
  5.44658E+03 -1.49845E+03  1.09644E+04  1.83474E+03  1.25368E+04  9.54614E+03  8.48856E+03  1.32369E+04
 -1.73532E+03  1.70418E+04 -1.16180E+04  1.61154E+04 -1.77821E+04  3.23243E+03 -1.59118E+04 -5.00693E+03
 -8.22461E+03 -1.17963E+04 -3.23323E+03 -9.88721E+03  3.89700E+03 -5.64376E+03  8.86494E+03 -3.39359E+03
  4.21346E+03 -2.33007E+03  1.53920E+03 -4.23040E+03  5.43491E+03 -6.12876E+02  4.42475E+03  7.71086E+02
  9.92952E+03  3.35489E+03  6.24204E+03  8.69887E+03  4.78877E+03  6.43549E+03 -7.05535E+03  5.18855E+03
 -9.24375E+03 -6.32607E+03 -9.34461E+03 -7.23530E+03 -4.64625E+02 -1.39640E+04  5.85539E+03 -1.81267E+04
  7.26108E+03 -8.79445E+03  1.68649E+04  1.99716E+03  6.11822E+03  5.55741E+03  6.27234E+03  1.30397E+04
  3.87161E+02  7.08120E+03 -4.89056E+03  2.64921E+03 -4.79817E+03 -3.45989E+03 -7.98874E+03 -1.86113E+03
 -3.74220E+03 -4.28849E+03 -2.73611E+03  4.82984E+03 -5.91154E+03 -1.20671E+03 -2.60634E+03 -1.31463E+03
 -1.29127E+03 -8.91415E+03  4.17629E+03 -4.19485E+03  8.27579E+03 -7.45050E+03  7.62721E+03 -2.00096E+03
  9.43046E+03  1.56114E+03 -7.96824E+02  5.35413E+03 -1.82571E+03  1.21220E+04 -7.95902E+02  7.47273E+03
 -9.36744E+03 -1.31497E+03 -1.24245E+04 -8.78737E+03 -3.19181E+03 -1.28666E+04  5.00285E+03 -2.73652E+03
  4.95722E+03  3.85368E+02  5.35367E+03  1.39704E+03  7.40384E+02  3.81148E+03 -2.78268E+03  1.33011E+03
  8.39341E+03  2.90380E+03 -1.60740E+03 -5.26609E+03  6.95716E+03  2.28324E+03  4.41460E+03  7.43578E+03
  8.99520E+02  8.71177E+03 -4.07894E+03  3.85615E+03 -1.07382E+04  3.70483E+03 -1.17388E+04 -8.00912E+03
 -4.37901E+03 -1.19018E+04  1.69961E+03 -9.15264E+03  5.89249E+03 -9.03070E+03  9.35983E+03 -2.65186E+03
  1.29918E+03  2.72555E+03  6.28768E+02  3.14372E+03 -1.41727E+03  2.81149E+03 -5.41217E+03 -2.31093E+03
 -2.14395E+03 -4.67097E+03  2.43200E+03  2.77906E+03  6.97462E+02  6.79703E+02  3.19243E+03 -9.65649E+02
  4.23127E+03 -3.94048E+02  7.21260E+02  1.35432E+03  1.16269E+03  1.03449E+03  1.71801E+03 -3.40945E+03
 -2.43918E+01  2.47726E+03  6.33212E+03  6.50538E+03  7.13263E+03  9.41356E+03  1.16518E+03  5.05943E+03
 -4.65934E+03  2.99612E+03 -4.52769E+03  3.46152E+03 -5.46513E+03 -1.32972E+03 -4.21132E+02 -5.64298E+03
  5.31570E+03  1.42347E+03  3.01560E+03  2.86742E+02  2.16147E+02  8.59021E+03 -3.62958E+03  6.08472E+03
 -4.83636E+03  7.19406E+03 -3.28494E+03  6.49625E+02 -8.55225E+02 -1.83226E+03  1.50036E+03 -7.63187E+03
  2.48911E+03 -2.53661E+03  1.89993E+03  1.03393E+03  7.99388E+03  2.44657E+03  4.09817E+03  3.11943E+03
 -4.01742E+03 -5.07389E+03 -1.41524E+03 -3.66347E+03 -2.62996E+01 -2.58581E+03  7.40574E+03 -6.36374E+03
  8.96724E+03  7.11327E+02  6.47561E+02  2.96775E+03 -2.35121E+03  2.75830E+03 -5.16057E+03  7.11352E+03
 -4.37130E+03  4.63781E+03 -8.40400E+03  1.64801E+03 -2.75299E+03 -8.56615E+03  1.33153E+03 -4.73031E+03
  3.49179E+03  1.12902E+03  8.92148E+02 -2.90266E+03  2.77060E+03  7.66856E+03 -2.23532E+03  3.85522E+03
 -2.66501E+03  4.27197E+03 -3.61992E+03  1.56764E+03 -3.09946E+03 -1.69980E+03 -5.59819E+02  8.28941E+02
 -8.98428E-01  2.19164E+03 -4.76363E+03  9.37952E+02 -5.39055E+03 -8.66706E+02 -3.32521E+03 -2.67295E+02
 -5.47256E+03 -7.17947E+03  1.29447E+03 -8.83349E+03  5.03916E+03 -1.05995E+04  9.24859E+03  4.06191E+02
  4.35644E+03  2.60958E+03  3.71713E+02  2.87771E+03 -2.19531E+03  7.50420E+03 -3.08145E+03  1.30162E+03
 -3.24496E+03  2.94564E+03 -7.22940E+02 -9.89713E+02  2.66878E+02  1.99902E+03 -2.94802E+03  5.49751E+03
 -5.90093E+03  1.31462E+03  3.26362E+02  4.07961E+03  1.33994E+03 -1.69617E+03  1.77463E+02 -3.16789E+02
 -2.31763E+03 -1.68852E+03 -2.79620E+03 -3.82242E+03 -1.47499E+03  1.72757E+03  4.64993E+03  6.36964E+03
  1.11934E+03  9.85895E+03 -1.04756E+04  3.89774E+03 -6.06542E+03 -4.84909E+02 -4.73881E+03  1.07022E+03
 -2.46788E+03 -3.89660E+03  8.26856E+02 -6.11748E+03  9.04264E+02  1.45779E+03  2.48948E+03  6.08382E+03
  3.84893E+03 -3.95404E+03  2.18561E+03 -1.23657E+03  5.15180E+03 -6.13794E+02  6.67947E+03  1.16213E+03
  4.75409E+03 -9.69634E+02  5.63816E+02  7.87299E+02  9.21981E+02  2.78754E+03 -8.20458E+02  1.59540E+03
  8.12400E+02  4.96549E+03 -3.88153E+03  6.88518E+01  6.66968E+03  1.11111E+02 -1.85520E+03 -4.17817E+03
  6.10282E+03 -7.01576E+01  4.79435E+03 -3.87703E+03  9.20150E+02  1.94958E+03 -8.05664E+01  2.03673E+03
  7.04965E+03  5.39374E+03 -3.23093E+03  3.86223E+02 -2.99947E+03 -4.95135E+03  3.76772E+02  3.42275E+03
 -1.20384E+03 -3.97433E+02 -2.98715E+03 -3.10678E+03 -1.97029E+03  2.34399E+03 -5.86217E+03  2.56983E+03
  3.41349E+02 -3.56978E+03  5.45276E+02 -8.79736E+02  2.23515E+03 -5.40133E+03 -1.15016E+03  9.50182E+02
  2.19148E+03 -4.84085E+02 -1.69573E+03  4.48531E+03 -1.61579E+03 -4.94621E+03 -4.35151E+03  5.52267E+02
