 $NMID ID='MM_0lb_SNR50_14hz_g55_91.RAW', FMTDAT='(8E13.5)'
 TRAMP=1., VOLUME=1. $END
  3.12149E+05  1.17484E+03  3.40572E+05  2.49840E+05  8.30828E+04  3.40492E+05 -1.27905E+05  2.56422E+05
 -1.90843E+05  7.98310E+04 -1.11362E+05 -3.21254E+04  1.07467E+03 -5.09057E+04  4.89283E+04 -2.34479E+02
  2.94744E+04  5.31427E+04 -1.64093E+04  7.45412E+04 -5.93659E+04  6.17074E+04 -8.71160E+04  3.39064E+04
 -7.66579E+04 -9.35831E+03 -5.64492E+04 -5.09277E+04 -1.68700E+04 -6.81813E+04  2.41259E+04 -4.57217E+04
  4.02535E+04  2.23434E+03  1.53863E+04  4.59208E+04 -3.48097E+04  4.40081E+04 -7.13541E+04  2.62459E+03
 -5.77132E+04 -5.54597E+04 -1.07615E+04 -8.16782E+04  4.06453E+04 -5.60053E+04  4.82396E+04 -1.95160E+04
  4.65728E+04  1.11145E+04  3.13485E+04  1.97645E+04  1.90545E+04  3.05793E+04 -8.82507E+03  3.06959E+04
 -2.50608E+04  1.03188E+04 -1.91555E+04 -5.41548E+03  4.10328E+03 -3.69556E+03  2.11309E+04  1.30474E+04
  1.10736E+03  3.98347E+04 -2.95907E+04  3.92032E+04 -6.10443E+04  8.67414E+02 -5.77864E+04 -4.68726E+04
 -1.93329E+04 -6.15060E+04  3.81312E+04 -4.34493E+04  6.12544E+04 -4.96999E+03  3.19207E+04  3.20330E+04
 -5.05684E+03  3.22678E+04 -3.18171E+04  1.32518E+04 -2.87117E+04 -2.59989E+03 -2.20863E+04 -1.15036E+04
 -7.31100E+03 -1.28984E+04  4.34950E+01 -1.81075E+04  4.21482E+03 -1.87615E+04  1.83578E+04 -1.65267E+04
  1.01164E+04  5.05676E+03 -8.35563E+03  1.65695E+04 -2.15456E+04 -3.08605E+03 -5.23214E+03 -3.33866E+04
  2.67942E+04 -3.90314E+04  5.22412E+04 -1.84361E+04  4.31570E+04  2.11908E+04  1.67835E+04  4.81821E+04
 -1.42788E+04  3.02562E+04 -2.76328E+04  2.56587E+02 -6.08876E+03 -2.65861E+04  1.87335E+04 -3.12968E+04
  4.16296E+04 -7.15855E+03  3.86622E+04  2.32510E+04  1.59874E+04  4.80590E+04 -7.94293E+03  4.57686E+04
 -3.15387E+04  3.19776E+04 -4.67572E+04  1.17581E+04 -4.55715E+04 -1.69057E+04 -2.40505E+04 -3.88026E+04
  8.87426E+03 -3.53081E+04  3.45941E+04 -1.29771E+04  2.75213E+04  1.32117E+04  2.83041E+03  1.06629E+04
 -1.36279E+04  9.66849E+03 -1.18544E+04 -2.77503E+03  5.42775E+03 -1.05701E+04  1.95697E+04  6.85047E+03
  1.27389E+04  1.86798E+04 -6.05233E+03  3.13297E+04 -1.96995E+04  1.29549E+04 -2.89425E+04 -3.94454E+03
 -2.07484E+04 -2.30313E+04 -4.99318E+03 -2.05921E+04  3.52761E+03 -1.61409E+04  1.37195E+04 -1.60375E+04
  2.94549E+04 -1.18168E+04  3.48726E+04  3.10232E+03  2.75293E+04  2.06621E+04  7.06449E+03  4.04664E+04
 -1.94320E+04  3.10808E+04 -2.86487E+04  1.22129E+04 -1.38903E+04 -1.53321E+04 -9.01144E+03 -1.53562E+04
  9.80236E+02 -1.80813E+03 -4.49380E+03  6.31957E+03 -2.01501E+04  5.27362E+03 -1.84073E+04 -3.38011E+03
 -1.16368E+04 -1.56561E+04 -8.98763E+02 -2.56327E+04  1.39157E+04 -1.68750E+04  1.85958E+04 -3.44276E+03
  8.11245E+03  1.59249E+04  6.96154E+02  1.79256E+04 -1.11604E+04  8.71277E+03 -1.67209E+04 -5.12368E+03
 -1.24365E+04 -1.81557E+04  3.56515E+02 -2.76281E+04  1.04541E+04 -2.18409E+04  1.44459E+04 -1.24758E+04
  2.01455E+04  2.67627E+03  1.27096E+04  1.67052E+03  6.33370E+03  2.05040E+02  8.35697E+03 -3.75605E+03
  1.73958E+04  6.09226E+03  2.66124E+04  1.59160E+04  1.41196E+04  2.69406E+04 -6.75786E+03  3.60968E+04
 -1.92089E+04  2.58886E+04 -3.47553E+04  1.37647E+04 -3.85259E+04 -8.87520E+02 -2.74461E+04 -1.90647E+04
 -1.48636E+04 -3.34168E+04  5.08618E+03 -2.61703E+04  2.31068E+04 -1.17236E+04  1.71585E+04  5.04328E+03
  3.96868E+02  1.14575E+04 -7.35711E+03  1.46674E+04 -1.55919E+04  5.13619E+02 -1.85562E+04 -9.17673E+03
  3.76628E+03 -1.45281E+04  1.11995E+04 -1.14668E+04  1.64918E+04  1.37168E+03 -1.36542E+02  3.29699E+03
 -1.24502E+04  9.39099E+02 -1.89173E+03 -1.55662E+03 -1.77910E+03 -1.24815E+04  9.77786E+03 -1.47301E+04
  2.08094E+04 -5.79662E+03  2.13067E+04 -9.26273E+02  1.37437E+04  1.50829E+04  8.43126E+03  2.27248E+04
 -5.52032E+03  2.41583E+04 -1.68597E+04  1.53837E+04 -2.05187E+04  3.76694E+03 -1.13692E+04 -5.80204E+03
 -8.74317E+03 -1.10868E+04  7.16666E+02  2.64062E+02 -4.74918E+03  4.82660E+03 -4.35626E+03  5.38194E+03
 -4.93372E+03  3.65496E+03 -1.47481E+04 -3.80124E+03 -1.43840E+03 -1.80239E+04  4.15644E+03 -1.17795E+04
  1.16530E+04 -1.05710E+03  7.24607E+03  4.10280E+03  5.22274E+02  7.40922E+03 -6.29966E+03 -1.46266E+03
 -3.95121E+03 -8.04041E+03 -2.13003E+03 -1.18602E+04  1.09178E+04 -1.17603E+04  2.02778E+04 -9.67675E+03
  2.10248E+04  3.28630E+03  8.74371E+03  1.26105E+04  4.74981E+02  1.52747E+04 -7.32112E+03  1.87363E+04
 -9.15027E+03  4.94016E+03 -3.99306E+03 -1.03014E+03  4.37037E+03 -5.78957E+03  4.94332E+03 -2.45071E+03
  8.63623E+03  2.21289E+03  3.16975E+03  8.35209E+03 -4.86695E+03  6.87896E+03 -8.46187E+03 -1.23685E+03
 -1.01249E+04 -5.83090E+03  1.27740E+03 -7.95333E+03  2.41931E+03 -2.54996E+03  4.11899E+03  3.36472E+03
  4.96169E+03  2.96099E+03 -4.93872E+03  5.83125E+03 -5.58017E+03 -2.53210E+03 -1.40072E+04 -3.26851E+03
 -1.53511E+03 -1.27712E+04  4.07496E+03 -1.49474E+04  5.95195E+03 -2.79205E+03  5.58373E+03  1.88541E+03
  7.55542E+03  8.96866E+03 -2.57027E+03  1.27421E+04 -6.69245E+03  6.80324E+03 -1.02824E+04 -2.66841E+03
 -3.96236E+03 -1.10032E+04  3.23578E+03 -7.46462E+03  5.00778E+03 -7.31043E+03  3.79203E+03 -5.57251E+03
  4.72119E+03 -2.17886E+02 -1.57310E+03 -1.72662E+02  5.39981E+02 -1.70162E+03  3.14789E+03 -7.50675E+03
  5.99986E+03 -3.78923E+03  8.19069E+03  3.65696E+03  1.23415E+04  8.03179E+03  4.86898E+03  1.52418E+04
  3.22089E+03  1.47654E+04 -6.82944E+03  8.59207E+03 -2.07102E+04 -6.30760E+02 -1.18972E+04 -2.53465E+03
 -8.61254E+03 -1.12732E+04 -1.97701E+03 -1.39791E+04  3.02878E+03 -8.57294E+03 -1.02738E+03  1.07759E+03
  6.44059E+03 -5.01175E+03  3.19816E+03 -1.00185E+03  5.21807E+03 -1.29793E+03  2.73683E+03 -1.29785E+03
  2.85173E+03  5.95588E+02  2.09811E+03  2.29170E+03 -9.78746E+02  7.33822E+03 -6.28810E+03  4.60807E+03
 -1.19797E+04 -4.47856E+03 -8.14221E+03 -1.01335E+04 -1.03762E+03 -8.98558E+03  5.90636E+03 -8.40845E+03
  1.14249E+04 -6.94725E+03  1.55561E+04  3.68210E+03  9.14918E+03  5.01548E+03  3.26172E+03  7.83974E+03
 -6.78762E+03  6.98081E+03 -3.41351E+03  2.37155E+03 -6.00632E+03 -5.89885E+00 -2.08702E+03  4.14941E+02
 -3.62837E+03 -1.90800E+03 -4.21302E+03  4.94909E+03 -5.93051E+03  2.56217E+03 -2.50996E+03 -4.01867E+03
  4.45347E+02 -5.22049E+03 -6.13025E+02 -1.12185E+04  6.94284E+03 -1.11519E+04  8.68524E+03 -5.94266E+03
  6.92936E+03  7.37209E+03  3.27270E+03  9.34324E+03  2.02303E+03  1.05516E+04 -4.37455E+03  7.57357E+03
 -4.89005E+03 -4.91560E+02 -6.62919E+03 -4.10949E+03 -2.10104E+03 -7.30573E+03  5.03410E+03 -5.04830E+03
  8.78135E+03 -3.88551E+03 -3.51292E+02  4.42755E+03  4.32206E+03 -5.52481E+02  7.12621E+02  5.10568E+03
  2.99863E+03  2.48134E+03  7.45590E+03 -1.06510E+03  5.12052E+03  8.20108E+03  1.23811E+02 -1.85003E+03
  2.57238E+03  2.17653E+03 -6.34824E+03  5.93625E+03 -4.89980E+03  3.83567E+03 -6.59653E+03 -2.46907E+03
 -1.98179E+03 -9.98191E+03 -6.45610E+03 -1.07295E+04  3.75006E+03 -6.95926E+03  6.19340E+03 -4.16534E+02
  6.98060E+03  2.43083E+03  3.24079E+03  3.40463E+03  6.78574E+02  1.02655E+03 -3.32636E+03 -7.61766E+03
  3.74933E+02 -1.92151E+03  1.37389E+03  6.06832E+02  3.17541E+03 -2.54541E+03  4.56065E+03 -1.81659E+03
  1.84925E+03 -4.09136E+03  3.16845E+03 -1.98332E+03  2.39367E+03  3.51685E+03  1.19551E+03 -5.32405E+03
 -2.89993E+02 -3.45278E+02  1.03441E+04  5.16295E+03 -3.61155E+02  3.47059E+03  1.25266E+02  9.08029E+03
 -7.49451E+03  5.01203E+03 -6.67889E+03  1.39728E+03 -1.10303E+03 -6.10503E+03 -5.25840E+03 -6.95975E+03
  4.70973E+03 -2.69789E+03  2.03288E+03 -2.26767E+03 -1.79469E+03  1.83670E+03 -9.81880E+02  2.58701E+03
  4.63470E+01  1.66897E+03 -4.58792E+03 -6.00113E+03 -3.73712E+03 -4.58950E+03 -4.92553E+03 -1.10348E+04
  1.50159E+03 -3.45195E+03  2.45636E+03 -4.55098E+03  7.02594E+03  5.20810E+03  2.78943E+03  8.33772E+01
 -6.93061E+02  2.06447E+03 -1.75121E+03 -2.18265E+03 -1.12515E+03 -3.32823E+03  4.19709E+03  3.18958E+02
  7.27107E+02  2.34046E+03  6.53137E+03  6.37900E+03  1.42214E+03  6.30242E+03 -6.70499E+03  6.46229E+03
 -6.78650E+03  2.24896E+03 -8.69264E+02  3.44690E+03  1.17878E+03 -4.24595E+03  3.83739E+03 -4.65140E+03
  1.76424E+03  2.72756E+02  4.74250E+03  3.48813E+03 -1.27141E+03  2.06951E+03  5.78489E+02  8.07658E+03
  4.44295E+02 -7.93198E+02  2.58068E+03  4.71134E+03  2.18195E+03 -7.87017E+02  2.92030E+03 -4.59942E+03
  3.00413E+03 -2.17542E+03 -4.27419E+03  1.95681E+03  3.17037E+02  5.05857E+03 -4.11178E+03 -7.03624E+03
 -4.63579E+03 -6.71249E+03  1.02706E+03 -5.91775E+03  3.29056E+03 -5.13779E+03  2.80891E+03 -3.70757E+03
  1.06853E+03  3.73326E+03  4.11445E+03  6.15395E+03  1.08312E+03  4.07598E+03 -7.63393E+03  3.87067E+02
 -1.72718E+03  2.54007E+02  4.46595E+02  3.14278E+03  2.40396E+03 -3.97081E+03  1.63917E+03 -2.46695E+02
  8.46289E+02  5.50357E+02 -5.61956E+03 -2.11903E+03  1.59002E+03 -1.97078E+03  1.73982E+03 -9.99665E+02
 -1.63639E+03 -6.08475E+02 -6.87121E+02 -3.55714E+03  2.11512E+03  2.60416E+03 -1.77202E+03  8.24974E+03
  7.75723E+00  6.04773E+03 -4.97984E+03  5.99173E+03 -3.75887E+03 -1.63231E+03 -3.85263E+03 -4.61222E+03
 -4.58969E+03 -4.10735E+03 -2.25391E+03 -1.76516E+03  2.49724E+03 -4.27631E+03  5.43668E+02  3.61861E+03
  1.99298E+03  1.52942E+03  4.46079E+02 -4.20466E+03 -1.09475E+03 -8.82294E+00 -2.65563E+03  2.71976E+03
 -4.38999E+02  5.56091E+03  4.03120E+03 -1.85358E+03 -1.74371E+03 -7.12905E+03  1.39010E+03  4.42186E+03
 -1.89277E+03  9.17799E+02 -2.43882E+03  8.64543E+02 -3.45676E+03 -5.08403E+03 -2.49101E+03 -1.06270E+03
  1.90016E+03 -8.07667E+03  1.32941E+02 -4.09194E+03  4.75188E+03 -2.48293E+03  1.18834E+03  7.91113E+02
 -3.34244E+03  4.96613E+03 -2.26227E+03 -2.44931E+03  6.55107E+02  4.19516E+03 -9.03795E+03 -2.06086E+03
  1.03276E+03 -2.20274E+03 -2.25588E+03  2.30822E+03  1.15870E+03 -1.86199E+03 -3.16120E+03 -6.00460E+03
 -2.26268E+03 -2.89003E+03 -9.25516E+01 -1.81556E+03  4.69081E+01 -4.84453E+03 -1.19311E+01 -1.66599E+03
  3.55960E+03  1.98195E+03  2.65484E+03  5.53824E+03 -2.85376E+03  7.12021E+03 -5.41010E+03  2.27290E+03
