 $NMID ID='MM_0lb_SNR50_10hz_g55_81.RAW', FMTDAT='(8E13.5)'
 TRAMP=1., VOLUME=1. $END
  3.05828E+05 -1.45413E+03  3.40137E+05  2.49441E+05  8.43610E+04  3.37622E+05 -1.29480E+05  2.47995E+05
 -1.88954E+05  8.31263E+04 -1.14190E+05 -3.51625E+04  4.88594E+03 -4.74917E+04  5.11443E+04  3.61066E+03
  3.89572E+04  4.67556E+04 -2.44199E+04  7.41968E+04 -6.71191E+04  6.65963E+04 -8.38290E+04  2.83313E+04
 -7.94416E+04 -1.34194E+04 -5.96914E+04 -5.26299E+04 -1.73720E+04 -6.75262E+04  3.14473E+04 -4.83286E+04
  4.11777E+04  2.91056E+03  1.29434E+04  4.99426E+04 -3.08996E+04  5.10948E+04 -7.39497E+04  5.29608E+03
 -5.24115E+04 -5.86097E+04 -4.80154E+03 -8.37357E+04  3.40248E+04 -5.62410E+04  5.04369E+04 -1.16071E+04
  4.51086E+04  1.55224E+04  3.26689E+04  2.59381E+04  1.20224E+04  3.03334E+04 -6.00553E+03  3.22861E+04
 -2.02341E+04  1.27327E+04 -1.59346E+04 -3.11548E+03  6.25066E+03 -7.73267E+03  1.91503E+04  1.58833E+04
 -5.60119E+02  3.82402E+04 -3.39669E+04  3.83466E+04 -6.28093E+04  4.78243E+03 -5.64133E+04 -4.33509E+04
 -1.21874E+04 -7.04396E+04  4.24602E+04 -4.60832E+04  6.63159E+04 -2.75513E+03  4.02135E+04  3.52467E+04
 -8.04130E+03  3.89592E+04 -3.01609E+04  1.92248E+04 -2.97993E+04 -5.66129E+03 -2.01475E+04 -1.28804E+04
 -8.53681E+03 -1.73654E+04 -3.13989E+02 -2.16346E+04  8.56331E+03 -2.42453E+04  1.85839E+04 -9.73854E+03
  1.14311E+04  5.41245E+03 -1.30275E+04  1.55063E+04 -2.36301E+04 -3.52421E+03 -1.12882E+04 -3.97805E+04
  2.00035E+04 -4.24834E+04  5.22419E+04 -2.70760E+04  4.51837E+04  1.98252E+04  1.71428E+04  4.53154E+04
 -1.39962E+04  3.84895E+04 -3.52382E+04  7.07964E+03 -1.76898E+04 -2.95275E+04  2.58531E+04 -3.90677E+04
  4.21316E+04 -5.31783E+03  4.28963E+04  2.60314E+04  2.08237E+04  5.09936E+04 -1.03025E+04  5.84838E+04
 -3.43247E+04  3.61388E+04 -4.78325E+04  9.92889E+03 -4.50916E+04 -2.52343E+04 -2.78835E+04 -4.04043E+04
  1.27823E+04 -3.72489E+04  3.61830E+04 -1.45788E+04  2.47215E+04  1.07627E+04  6.52167E+03  1.99174E+04
 -1.49511E+04  1.33935E+04 -1.38725E+04 -1.00645E+04  9.34629E+03 -1.28634E+04  2.06390E+04  1.39756E+04
  1.59558E+04  2.32287E+04 -2.19222E+03  2.32429E+04 -1.59350E+04  1.75569E+04 -3.06358E+04  2.55743E+03
 -3.24366E+04 -1.90775E+04 -1.21324E+04 -2.12666E+04  2.86716E+03 -2.08408E+04  1.40549E+04 -2.28733E+04
  3.65232E+04 -1.01495E+04  3.49666E+04  6.27720E+03  1.70490E+04  2.27341E+04  6.12897E+03  4.35936E+04
 -1.86888E+04  3.41581E+04 -2.76941E+04  7.19215E+03 -2.21428E+04 -1.47268E+04  2.57624E+03 -1.50109E+04
  4.60352E+03 -1.52143E+03 -6.88677E+03  6.66919E+03 -1.30020E+04  5.64711E+03 -2.29949E+04 -8.76452E+03
 -1.11955E+04 -1.49124E+04  7.38570E+03 -2.90329E+04  2.25126E+04 -2.13764E+04  2.18737E+04  3.51393E+03
  1.39307E+04  1.68570E+04  2.42687E+03  2.45947E+04 -1.16202E+04  8.61796E+03 -2.25426E+04 -3.65455E+03
 -1.47172E+04 -1.67054E+04 -5.05124E+01 -2.51499E+04  1.47741E+04 -2.06629E+04  1.71322E+04 -7.77913E+03
  2.61157E+04 -4.29427E+03  1.04595E+04  7.18062E+03  8.67032E+03 -2.65543E+03  7.70841E+03  9.42231E+02
  1.24071E+04  7.42705E+03  2.77994E+04  1.95633E+04  1.56598E+04  4.08510E+04  1.36657E+03  4.63151E+04
 -2.33888E+04  3.13792E+04 -3.89201E+04  1.91670E+04 -4.02072E+04 -1.72852E+03 -3.35266E+04 -2.89915E+04
 -1.47669E+04 -4.09184E+04  4.34339E+03 -3.07676E+04  2.95165E+04 -1.75613E+04  2.19221E+04  4.17055E+03
  1.26325E+04  2.27568E+04 -9.03379E+03  1.54421E+04 -1.84018E+04  8.33305E+02 -1.63603E+04 -1.42324E+04
 -1.20745E+03 -2.19643E+04  1.18634E+04 -1.64642E+04  1.05312E+04 -1.06572E+03  1.89979E+03  9.40338E+03
 -1.00935E+04  9.62093E+03 -7.33744E+03 -1.11537E+04  1.43552E+03 -2.03195E+04  8.15509E+03 -2.10847E+04
  1.24963E+04 -1.26307E+04  2.72735E+04  5.91170E+03  2.71443E+04  2.11248E+04  9.80300E+03  2.72026E+04
  2.72184E+03  2.99204E+04 -1.85110E+04  1.98619E+04 -1.83525E+04  8.90634E+03 -1.52488E+04 -8.82810E+03
 -5.15893E+03 -6.97886E+03  3.14653E+03 -2.20260E+02  2.64516E+03  1.15294E+03 -4.76083E+03  8.10370E+03
 -1.74510E+04 -5.73755E+03 -1.38952E+04 -4.38019E+03 -1.57136E+03 -1.91550E+04  6.94687E+03 -1.69217E+04
  1.69909E+04 -3.58781E+03  5.71967E+03  9.56811E+03 -5.20939E+02  7.04602E+03 -7.79541E+03 -1.03786E+03
 -1.93593E+03 -1.11887E+04  2.42006E+03 -1.44986E+04  1.20954E+04 -1.62910E+04  2.58526E+04 -9.04479E+03
  2.31887E+04  1.62769E+03  2.24915E+04  2.17377E+04  7.13847E+02  2.57107E+04 -1.14057E+04  1.24289E+04
 -1.14303E+04  6.28242E+03 -1.37603E+04 -2.75939E+03 -5.49246E+02 -1.13217E+04  1.02534E+04  9.53449E+02
  2.97474E+03  7.50599E+03 -2.76465E+03  1.48214E+04 -9.68500E+03  1.33501E+04 -1.52099E+04  1.17454E+03
 -1.11258E+04 -6.97306E+03 -6.16909E+03 -1.21624E+04  1.25340E+04 -5.78145E+03  6.71684E+03  9.22896E+03
  8.31726E+02  5.72112E+03 -1.38763E+04  1.26658E+04 -8.14315E+03 -1.83763E+03 -1.57489E+04 -6.88670E+03
 -2.00245E+03 -1.32937E+04  1.74823E+03 -1.94253E+04  1.51328E+04 -1.44715E+04  1.37522E+04  1.02030E+04
  1.17606E+04  1.33355E+04 -5.61314E+03  1.96616E+04 -1.58574E+04  1.35147E+04 -9.79357E+03 -3.48724E+03
 -7.99191E+03 -6.55539E+03 -3.90144E+02 -9.90468E+03  8.23252E+03 -1.27195E+04  6.69167E+03 -3.16071E+03
  2.18068E+03  6.94051E+03 -1.06567E+03  7.22401E+03 -8.65324E+03 -8.69638E+03  1.49538E+03 -5.84352E+03
  8.24161E+03 -4.15646E+03  1.58448E+04  6.15872E+03  1.47937E+04  1.29017E+04  1.06489E+04  2.35462E+04
 -8.71677E+02  2.20236E+04 -1.42396E+04  1.87751E+04 -2.27992E+04 -1.58954E+03 -2.70709E+04 -9.82668E+03
 -7.95942E+03 -1.72360E+04  1.81156E+03 -1.67254E+04  1.88690E+03 -1.01516E+04  1.55046E+03  1.09980E+03
  5.86635E+03 -5.79625E+03 -1.77027E+02 -4.02830E+03  5.17191E+03  3.83312E+02  5.33657E+03 -1.11056E+03
  7.07563E+03  2.75116E+03  3.75743E+03  9.31418E+03 -1.62093E+03  6.86270E+03 -1.63310E+04  1.66807E+04
 -1.54373E+04 -3.90199E+03 -9.51363E+03 -1.15471E+04  9.72925E+02 -1.35965E+04  3.57320E+03 -1.68681E+04
  1.43362E+04 -9.62319E+03  1.58613E+04  5.00112E+03  8.91637E+03  1.12518E+04 -6.02039E+03  1.57593E+04
 -1.26430E+04  3.92027E+03 -5.67806E+03  5.53564E+03 -1.21818E+04  3.97041E+03 -6.10814E+02  3.28040E+03
 -2.31829E+03 -6.32295E+02 -2.54361E+03  1.30686E+03 -8.21667E+03  2.37731E+03 -1.29227E+04 -2.37773E+03
 -5.39703E+03 -9.56497E+03 -8.02811E+02 -2.13821E+04  1.41601E+03 -7.05008E+03  1.19979E+04 -1.48837E+03
  1.43866E+04  5.71847E+03 -1.86429E+03  1.70594E+04 -5.84524E+03  1.61147E+04 -1.24815E+04  5.12432E+03
 -1.26083E+04 -1.94819E+02 -9.92749E+03 -1.56053E+04  1.47858E+03 -1.00957E+04  1.03370E+04 -9.32079E+03
  6.34636E+03  3.08454E+02  8.57815E+03  5.00014E+03 -4.54697E+02  3.82081E+03 -9.69623E+02  4.37469E+03
  4.51703E+03  2.62430E+02 -4.81629E+02 -4.97507E+03  6.59249E+02  1.77843E+03  3.86926E+03  6.22913E+03
 -7.21845E+02  9.81244E+03 -6.26922E+03  1.10744E+04 -1.17352E+04  5.86564E+03 -1.64818E+04 -5.94830E+03
 -6.61094E+03 -1.04329E+04  4.23635E+03 -1.26430E+04  1.10286E+04 -1.14643E+04  1.07740E+04 -4.43092E+03
  8.65942E+03  7.63119E+03 -1.92742E+03  6.08593E+03 -1.64500E+03  2.71347E+03 -5.67023E+03  5.69525E+02
 -9.25733E+03  1.27483E+03 -2.22197E+03 -1.09150E+04  6.81203E+03  1.68280E+03  8.50589E+03  2.62335E+03
  7.42326E+03  3.31057E+03 -2.21378E+03  7.26003E+03  9.54395E+02  5.27399E+03  5.16380E+02  6.97429E+02
  4.69103E+03  4.14331E+03  3.08499E+03  5.37818E+02 -9.79014E+02  1.09257E+04  2.02305E+03  8.20255E+03
 -6.45376E+03  1.20378E+04 -1.28371E+04 -2.77624E+03 -2.44606E+03 -7.28146E+02  5.47403E+02 -4.69022E+03
  6.66823E+03 -9.59134E+03  3.06675E+03 -3.48118E+03 -3.06570E+03  4.02972E+03  2.64715E+02  1.01159E+04
 -5.19181E+03  1.21596E+03 -1.10671E+04  2.64747E+03 -1.00462E+03 -6.29366E+03  4.48823E+01 -4.35858E+03
  7.80589E+03 -2.27003E+03  8.97674E+03 -1.18483E+03  1.07385E+03  5.90082E+02  1.41548E+03  6.51589E+03
  6.66591E+02 -3.45436E+03 -7.18938E+03 -1.38563E+03 -1.36884E+03 -5.59057E+02  3.59958E+03  3.57178E+02
  7.04500E+03 -1.66659E+03  5.02563E+03  8.99018E+03 -2.99309E+03  8.51231E+03 -6.53716E+02  1.26799E+04
 -4.87687E+03 -1.21771E+03 -7.13630E+03 -4.75570E+03 -9.19849E+03 -6.47923E+03 -2.74425E+03 -3.77751E+03
  8.53489E+03 -3.26568E+03  5.02527E+03  3.49107E+03 -7.89067E+02  4.26182E+03  4.40020E+03  1.02386E+04
  2.55903E+03  6.68067E+03  1.54846E+03  2.99103E+03  3.46334E+03 -5.90308E+03 -7.87807E+03  1.17974E+02
  3.42883E+03  4.79276E+03 -1.14807E+04  4.12982E+03 -5.46950E+03 -1.22152E+02 -1.00505E+04 -3.53675E+01
 -9.35652E+03 -9.19213E+03  2.18851E+03 -1.77106E+04  9.49738E+02 -9.81817E+03  6.43990E+03 -9.14016E+03
  1.64209E+04  2.76873E+03  8.30792E+03  4.11818E+03  4.50540E+03  1.69045E+03 -7.39134E+03  5.08381E+03
  2.16593E+03  5.59372E+03 -1.06981E+03 -6.39873E+02 -3.59455E+03 -2.99750E+03 -1.68625E+03  4.53704E+03
 -3.70057E+03 -6.77650E+03 -6.72147E+02 -2.70592E+03 -2.90325E+02 -1.97528E+03 -1.23301E+03 -3.87553E+03
  6.27393E+03 -2.93347E+03  3.01800E+03 -4.04665E+03  8.56048E+03 -1.48305E+03  2.24199E+03  1.33436E+04
 -4.74046E+03  4.48506E+03 -9.02724E+03  9.46844E+03 -5.68971E+03 -2.67167E+03 -7.70544E+03 -5.28259E+03
 -1.33846E+02 -9.33267E+03  3.29792E+03 -1.35423E+04  1.09600E+04 -2.19687E+03  9.59702E+03  1.64931E+03
  5.60110E+02  6.24008E+03 -5.87821E+03  6.67419E+03 -1.13319E+03 -2.92289E+02 -9.28066E+02  4.20328E+03
  1.87720E+03  6.35848E+02  4.68947E+03  3.00995E+03  2.43937E+03  4.10407E+03  2.54046E+02  5.00716E+03
 -5.89652E+03  3.95904E+02 -4.02314E+03 -3.55530E+03 -9.22062E+03 -8.81007E+03 -1.77476E+03 -2.49868E+03
  3.95093E+03 -1.75804E+03  1.30288E+04 -5.20255E+03  8.37299E+03  5.93571E+02  6.42898E+03  5.54425E+03
  2.49562E+03  4.21057E+03 -1.87949E+03  1.92799E+03 -3.54856E+03 -2.10172E+03 -1.76887E+03  3.69622E+03
  1.28276E+03 -1.98745E+02  2.66483E+03 -3.89542E+03 -3.75012E+03  6.64203E+03 -3.05045E+02 -3.92629E+02
 -7.81312E+03 -8.47165E+02 -2.65096E+03 -8.64571E+03  5.13481E+03 -7.23905E+03  3.92737E+03 -3.38149E+03
  2.84812E+03  3.25480E+03  1.09523E+04  6.71912E+03  3.89317E+03  3.69445E+03 -1.83481E+03  5.05027E+03
