 $NMID ID='MM_0lb_SNR50_8hz_g55_36.RAW', FMTDAT='(8E13.5)'
 TRAMP=1., VOLUME=1. $END
  3.19290E+05  4.92894E+02  3.38401E+05  2.50440E+05  8.53733E+04  3.33308E+05 -1.36004E+05  2.57386E+05
 -1.92024E+05  8.32060E+04 -1.17533E+05 -3.26872E+04  2.21207E+03 -5.11689E+04  5.10068E+04 -4.81925E+03
  3.76723E+04  4.70577E+04 -9.31834E+03  7.60013E+04 -6.09963E+04  6.02265E+04 -8.57194E+04  3.20031E+04
 -8.48747E+04 -1.13997E+04 -6.00098E+04 -5.62255E+04 -1.48564E+04 -7.32278E+04  3.10589E+04 -4.21850E+04
  4.32222E+04 -7.48175E+03  1.87740E+04  4.49363E+04 -3.00160E+04  5.25795E+04 -7.49177E+04 -1.39841E+03
 -4.95609E+04 -6.10543E+04 -8.93995E+03 -7.99240E+04  3.56569E+04 -6.13826E+04  5.18128E+04 -1.99290E+04
  3.90842E+04  1.71691E+04  2.99496E+04  2.58988E+04  1.38824E+04  3.46978E+04 -4.74957E+03  3.37633E+04
 -1.59944E+04  1.49682E+04 -2.64739E+04 -1.07768E+04  1.47607E+04 -5.51605E+03  2.79440E+04  5.05343E+03
  9.74886E+03  2.64762E+04 -3.50324E+04  3.58173E+04 -6.75931E+04  1.06372E+04 -6.11159E+04 -4.66776E+04
 -8.42155E+03 -6.44004E+04  3.70766E+04 -5.30994E+04  5.63961E+04 -1.24097E+04  3.67220E+04  3.02124E+04
 -4.58751E+03  3.86012E+04 -2.68776E+04  2.11694E+04 -3.26651E+04 -1.09264E+04 -1.35851E+04 -1.56182E+04
 -4.64529E+03 -1.64261E+04  1.45135E+03 -2.00324E+04  8.87322E+03 -2.64431E+04  1.84207E+04 -1.68951E+04
  8.00388E+03  4.18705E+03 -1.56939E+04  1.50552E+04 -2.32745E+04 -1.05172E+04 -1.16160E+04 -3.32835E+04
  2.67949E+04 -4.74035E+04  5.88674E+04 -1.56662E+04  4.30893E+04  1.87324E+04  1.27472E+04  4.64956E+04
 -1.54423E+04  3.10803E+04 -2.57463E+04  1.91843E+03 -1.09310E+04 -2.95848E+04  1.71546E+04 -4.17645E+04
  5.30585E+04 -1.58518E+04  4.53424E+04  2.25827E+04  2.33368E+04  5.33980E+04 -2.58860E+03  5.98590E+04
 -3.21715E+04  3.97170E+04 -4.07028E+04  1.11809E+04 -4.74241E+04 -2.48415E+04 -3.04581E+04 -4.71301E+04
  1.22413E+04 -4.84701E+04  3.91279E+04 -2.09916E+04  3.24533E+04  9.32958E+03 -4.07312E+02  1.92297E+04
 -1.31821E+04  1.53795E+04 -1.71734E+04 -1.53858E+04  5.36504E+03 -1.31609E+04  2.09766E+04  2.23775E+03
  1.28381E+04  2.41282E+04 -8.37687E+03  3.15310E+04 -2.18777E+04  1.51752E+04 -3.62568E+04  4.22491E+03
 -2.44401E+04 -2.06529E+04 -1.31646E+04 -2.38542E+04 -4.43099E+02 -2.84027E+04  2.17163E+04 -1.85809E+04
  2.72622E+04 -1.28821E+04  3.78033E+04  1.57493E+03  3.04617E+04  2.60524E+04  4.67511E+03  4.54937E+04
 -2.92302E+04  3.98600E+04 -3.02031E+04  1.35067E+04 -2.09526E+04 -6.86008E+03 -1.12394E+03 -1.82747E+04
 -2.84918E+03  9.84279E+03 -1.04742E+04  1.35683E+04 -1.51122E+04  5.31542E+03 -2.71067E+04 -1.01219E+04
 -6.59353E+03 -3.03406E+04  1.40742E+04 -2.52861E+04  2.05295E+04 -2.62839E+04  2.52289E+04 -5.21576E+03
  1.35651E+04  7.92456E+03 -4.39628E+03  2.52481E+04 -1.48531E+04  2.40670E+04 -2.52449E+04 -1.79758E+03
 -1.81214E+04 -1.49630E+04 -4.51616E+02 -2.15681E+04  1.71000E+04 -2.24818E+04  2.00091E+04 -1.24717E+04
  2.56496E+04  2.87493E+02  1.93694E+04  5.32632E+03  1.25405E+04 -3.86443E+03  6.44080E+03 -3.45724E+03
  2.29703E+04  2.33328E+03  2.33417E+04  2.14692E+04  1.86085E+04  3.94086E+04 -1.28023E+03  4.91719E+04
 -3.06468E+04  3.94017E+04 -4.41655E+04  1.69540E+04 -5.35611E+04 -5.49922E+03 -3.86330E+04 -3.27899E+04
 -1.34444E+04 -3.87347E+04  2.03421E+04 -3.69762E+04  3.23064E+04 -2.25081E+04  3.33795E+04  5.96682E+03
  4.68089E+03  1.97227E+04 -7.80872E+03  8.59364E+03 -2.04326E+04  2.40218E+02 -1.78979E+04 -1.44344E+04
 -2.50556E+03 -1.41408E+04  1.75000E+04 -9.50886E+03  1.68533E+04  4.89490E+03  7.55872E+02  1.17761E+04
 -4.03833E+03  6.01290E+03 -1.55727E+04 -7.13453E+03 -8.84198E+02 -2.21055E+04  1.47354E+04 -1.99780E+04
  2.84513E+04 -8.93505E+03  2.58141E+04  9.59140E+03  2.50336E+04  2.32674E+04  1.97094E+04  3.06071E+04
 -6.81455E+03  3.55873E+04 -1.65029E+04  2.14316E+04 -1.89045E+04  6.56370E+03 -1.44020E+04 -4.46210E+03
 -6.10157E+03 -1.33118E+04 -2.89996E+03 -2.22250E+02 -2.04434E+03  3.72977E+03 -7.01917E+03  8.99659E+02
 -1.71868E+04  7.94445E+02 -1.14562E+04 -1.78959E+04 -9.59287E+03 -2.49846E+04  7.12370E+03 -1.84925E+04
  1.81159E+04 -4.31145E+03  1.15311E+04  3.45940E+03  2.15107E+03  5.21462E+03 -1.21512E+04  2.82976E+02
 -1.10202E+04 -1.35918E+04  1.13508E+03 -1.85926E+04  9.03091E+03 -1.50083E+04  2.34761E+04 -1.31743E+04
  2.54264E+04  6.91807E+03  1.69607E+04  8.99983E+03  9.89577E+03  1.94222E+04 -1.39879E+04  1.61588E+04
 -1.13810E+04 -9.23598E+02 -7.64939E+03  2.18721E+03  9.12693E+02 -8.48789E+03  4.74373E+03 -5.49448E+03
  1.13006E+04  4.76156E+03 -1.63092E+03  1.30152E+04 -8.04846E+03  1.51506E+04 -1.73646E+04  3.99108E+03
 -1.44097E+04 -1.60910E+04  8.08235E+02 -1.03664E+04  1.11014E+04 -6.36868E+03  8.53363E+03  5.33351E+03
 -1.14864E+03  1.41577E+04 -9.89709E+03  1.83065E+04 -9.61356E+03  9.20082E+03 -1.34539E+04 -4.10153E+03
 -5.21998E+03 -1.96369E+04 -2.31703E+03 -1.70825E+04  2.17012E+04 -1.87525E+04  1.50002E+04 -3.05944E+03
  1.66411E+04  1.26917E+04  2.17484E+03  1.34427E+04 -1.56136E+04  1.20269E+04 -1.53293E+04 -8.94462E+02
 -1.01909E+04 -1.62108E+04 -8.07104E+03 -1.93365E+04  1.02558E+04 -1.22701E+04  1.06558E+04 -4.63181E+03
  8.11577E+03  2.12792E+03 -3.65089E+03  3.58926E+03 -1.27729E+02 -1.18850E+03 -5.47338E+02 -6.76251E+03
  1.85886E+04 -6.59016E+03  2.02255E+04  6.35526E+03  1.50056E+04  1.36438E+04  1.04776E+04  2.08198E+04
 -1.61412E+03  2.33181E+04 -2.59460E+04  2.37985E+04 -2.62784E+04  5.19339E+03 -1.98769E+04 -1.47424E+04
 -1.32584E+04 -2.28459E+04 -2.74754E+03 -1.99453E+04  3.72578E+03 -1.42019E+04  7.01829E+03 -6.55837E+03
  1.84790E+03 -9.21391E+02  1.68193E+04 -5.85546E+03  1.07440E+04 -3.98825E+03  6.01644E+03  1.65474E+02
  1.43695E+04  6.55597E+03  3.22087E+03  1.07376E+04 -9.11301E+03  1.21154E+04 -7.30482E+03  3.41423E+03
 -1.37687E+04  2.52816E+02 -1.48628E+04 -1.27003E+04 -1.33012E+03 -1.98161E+04  1.28289E+04 -1.56370E+04
  1.60509E+04 -1.17158E+04  1.98398E+04  4.02440E+03  2.02186E+04  1.59102E+04 -2.06464E+03  1.66193E+04
 -1.75768E+04  1.26864E+04 -1.18022E+04  6.46200E+03 -1.16394E+04 -3.79757E+03 -2.49234E+03  4.91470E+02
  6.63636E+03  5.41800E+01  5.45322E+03  1.70467E+04 -9.90256E+03  8.51649E+03 -1.13191E+04 -2.58121E+03
 -1.20137E+04 -1.02863E+04 -6.76342E+02 -1.99582E+04  9.56706E+03 -1.21316E+04  1.34871E+04 -6.91169E+03
  2.06651E+04  6.31980E+03  1.04236E+04  1.47473E+04 -4.85542E+03  1.60828E+04 -1.15787E+04  1.56301E+04
 -2.09942E+04  5.77336E+03 -1.57539E+04 -1.56180E+04  3.61985E+03 -1.37178E+04  9.53542E+03 -6.69735E+03
  3.58759E+03 -7.83347E+03  6.73537E+02  4.90111E+03  2.34764E+03  5.74698E+03  9.11429E+01  1.69872E+02
 -5.48330E+03 -4.12573E+02  3.83052E+03 -1.99574E+03 -6.06220E+02  6.22031E+03  7.40743E+03  6.73070E+03
 -4.05565E+03  1.67278E+04 -1.19617E+04  1.95961E+04 -1.83471E+04  3.56407E+03 -1.66766E+04 -7.40366E+03
 -4.27458E+03 -1.32763E+04  1.27458E+04 -1.57631E+04  8.48519E+03 -1.10775E+04  1.68946E+04 -2.07780E+03
 -2.85852E+02  4.60181E+02  3.65640E+03  1.38390E+04 -6.71596E+03  8.82040E+03 -1.33063E+04 -1.50215E+03
 -2.76452E+03 -4.04231E+03  1.34114E+03 -1.02633E+04  5.41072E+03 -1.22299E+03  6.36959E+03  2.48182E+03
  3.47418E+03 -4.82985E+01  1.20504E+03  1.77178E+03  3.55984E+03  1.43030E+03 -3.59872E+03  1.79680E+03
  5.21526E+03 -2.89421E+03  5.27743E+03 -2.73683E+03  4.18696E+03  1.05684E+04  3.39338E+03  1.33481E+04
 -7.82910E+03  1.18690E+04 -9.57442E+03  6.30276E+03 -1.66008E+04 -4.13579E+03 -1.20147E+04 -1.32148E+04
  2.07380E+03 -1.29381E+04  3.40877E+03 -4.22929E+03  5.87943E+03 -3.42296E+03 -8.34575E+02  2.99231E+03
 -8.24364E+03 -2.28086E+03 -1.10448E+04 -1.01987E+04 -7.47190E+03 -7.70323E+03  9.16677E+02 -1.65897E+03
  1.11995E+04 -9.52576E+03  1.05140E+04 -1.96862E+03  1.25633E+04  2.14209E+03 -1.82987E+03  6.16883E+03
 -5.67416E+03 -3.27933E+03  4.63248E+02  1.17872E+03  1.20635E+03 -1.60726E+04  1.16699E+04 -8.95010E+03
  1.36177E+04 -8.22358E+03  1.12069E+04  1.17976E+04  5.46094E+03  1.11374E+04 -3.08202E+03  1.17927E+04
 -9.79554E+03  6.41696E+03 -1.04695E+04  1.12803E+03 -8.08369E+03 -4.79374E+03  4.91576E+03 -8.19559E+03
  1.12054E+04  3.22643E+03  7.75185E+03  5.60743E+03  5.85972E+03  5.09343E+03 -7.92644E+03  5.66382E+03
 -5.60723E+03  4.62458E+03 -6.35822E+02 -3.59899E+03 -2.90291E+03  3.33817E+03 -6.48341E+03  2.84404E+03
 -2.83084E+03  6.47993E+03 -1.67281E+04  2.31051E+03 -1.42965E+04 -8.12787E+03 -1.09496E+04 -1.23795E+04
 -5.87015E+03 -1.16994E+04  1.15743E+04 -2.14499E+04  1.33819E+04 -1.39061E+04  2.37484E+04 -6.76238E+03
  1.84146E+04  2.60024E+03  1.37236E+04  1.17572E+04  5.88841E+03  1.21315E+04 -1.39029E+02  2.09668E+03
 -5.77171E+03 -1.05240E+03 -1.47541E+03 -2.80222E+03  3.42131E+03 -2.06747E+03 -3.44090E+03 -2.01868E+03
 -2.93624E+03  2.12533E+03 -1.18395E+03 -1.34578E+03  6.89926E+02 -2.57864E+03  9.12407E+03 -1.65579E+03
  6.85946E+03 -3.06784E+03  7.95966E+03  8.25471E+01  6.96806E+03  1.63418E+03  6.08392E+03  8.61793E+03
 -9.38720E+03  1.68863E+04 -1.25138E+04  1.03357E+04 -1.49019E+04 -5.92261E+03 -1.27496E+04 -1.28195E+04
 -3.10657E+03 -5.98977E+03  2.63406E+03 -2.04549E+04  8.31946E+03 -6.14235E+03  1.42077E+04 -9.74051E+03
  4.81168E+03  2.62285E+03 -1.94223E+03  1.03051E+04 -4.57025E+03  1.94029E+03  4.75910E+03 -2.13065E+03
  1.08194E+03 -4.71384E+02  7.15531E+03  7.60496E+03  9.03750E+03  7.12185E+03 -2.58951E+03  9.58830E+03
 -9.04838E+03  8.93923E+03 -1.18434E+04  2.85988E+03 -4.64728E+03 -3.78991E+03  1.49237E+03 -1.55912E+04
  3.71400E+03 -1.82981E+04  1.23456E+04 -7.48873E+03  5.94035E+03 -8.47230E+02  1.22977E+04  2.57765E+03
 -1.98350E+03  1.16361E+04  8.11678E+02  7.56978E+03 -5.87314E+03 -1.91017E+03 -7.51075E+02 -2.09578E+03
 -1.21362E+02  6.10880E+03 -3.16490E+03  3.86049E+03 -2.76369E+03  3.29296E+03 -8.75467E+02 -3.12671E+03
 -4.74202E+03 -4.74485E+03  3.13021E+03 -1.46116E+04 -2.80114E+03 -1.15909E+04  1.09575E+04 -3.75923E+03
  6.40945E+03  1.20428E+03  4.06710E+03  9.20359E+03  9.06128E+02  8.76409E+03 -1.02906E+04  5.35315E+03
