 $NMID ID='MM_0lb_SNR50_14hz_g55_85.RAW', FMTDAT='(8E13.5)'
 TRAMP=1., VOLUME=1. $END
  3.08000E+05  1.45488E+03  3.36105E+05  2.48546E+05  8.86350E+04  3.39690E+05 -1.28665E+05  2.50130E+05
 -1.89444E+05  8.26865E+04 -1.06311E+05 -3.33535E+04 -2.55374E+03 -5.52509E+04  5.54260E+04 -3.21872E+03
  3.91856E+04  5.38690E+04 -1.72138E+04  7.62229E+04 -5.94304E+04  6.47611E+04 -8.40530E+04  2.89221E+04
 -8.64865E+04 -1.16703E+04 -6.25521E+04 -5.42179E+04 -1.44244E+04 -6.95298E+04  2.68116E+04 -4.43598E+04
  3.88543E+04  3.76219E+03  1.64926E+04  4.88443E+04 -3.49484E+04  4.38249E+04 -6.63258E+04 -1.70595E+02
 -4.87548E+04 -5.62316E+04 -8.93920E+03 -7.23837E+04  3.15156E+04 -5.97695E+04  4.55471E+04 -1.34521E+04
  4.58746E+04  9.08771E+03  3.22069E+04  2.33624E+04  1.65249E+04  2.90009E+04 -5.42371E+03  2.86164E+04
 -2.43340E+04  1.26348E+04 -1.97994E+04 -8.03559E+03  7.41516E+03 -1.10144E+04  2.54122E+04  1.00258E+04
  5.82753E+03  3.08394E+04 -2.99048E+04  3.24463E+04 -6.36245E+04  2.50438E+03 -5.86792E+04 -4.54805E+04
 -9.74915E+03 -6.59204E+04  3.94988E+04 -4.95981E+04  5.99773E+04 -6.48212E+03  3.28920E+04  3.31375E+04
 -5.71089E+03  3.88739E+04 -2.55156E+04  1.39929E+04 -3.32226E+04 -2.58833E+03 -1.50179E+04 -9.95889E+03
 -8.33708E+03 -1.46457E+04  1.76987E+03 -2.08328E+04  8.88262E+03 -1.95410E+04  2.28523E+04 -1.11076E+04
  1.37914E+04  6.57575E+03 -8.35837E+03  1.34303E+04 -2.40088E+04 -2.74284E+03 -6.56776E+03 -3.40594E+04
  2.47671E+04 -4.21378E+04  5.53294E+04 -2.12144E+04  4.43258E+04  1.63100E+04  1.15428E+04  4.59486E+04
 -1.70119E+04  3.39365E+04 -2.70819E+04 -6.15204E+02 -4.43106E+03 -2.37453E+04  2.58373E+04 -3.24364E+04
  4.12615E+04 -1.17590E+04  4.28145E+04  2.00994E+04  2.62694E+04  4.86286E+04 -7.36666E+03  5.06334E+04
 -3.39220E+04  3.80154E+04 -4.31277E+04  6.58992E+03 -4.29749E+04 -1.45429E+04 -1.87527E+04 -3.70653E+04
  7.86300E+03 -3.64520E+04  3.24712E+04 -1.18724E+04  3.52789E+04  1.06567E+04  5.69342E+03  1.93393E+04
 -8.68223E+03  7.20053E+03 -6.78428E+03 -4.12096E+03  6.24283E+03 -1.57997E+04  1.89105E+04  5.47556E+03
  1.52209E+04  2.02109E+04 -8.20503E+03  2.41797E+04 -2.21428E+04  1.42314E+04 -2.58995E+04 -5.28967E+03
 -2.29221E+04 -1.55708E+04 -9.56739E+03 -1.90552E+04  2.79291E+03 -2.27986E+04  1.57381E+04 -1.63309E+04
  2.59334E+04 -1.43926E+04  3.32791E+04  3.53636E+02  2.33383E+04  2.00469E+04  5.71323E+02  2.77539E+04
 -2.38503E+04  3.20425E+04 -2.20877E+04  7.70471E+03 -2.34157E+04 -9.92492E+03 -4.38808E+03 -1.44292E+04
  9.20827E+02 -6.26254E+03 -5.75116E+03  5.64185E+03 -1.80559E+04 -3.06654E+02 -1.85640E+04 -1.06803E+04
 -1.53986E+04 -2.13192E+04  7.22910E+02 -2.57466E+04  1.47020E+04 -2.02531E+04  1.27069E+04 -2.88774E+03
  9.21513E+03  1.61380E+04 -4.29437E+03  1.96273E+04 -1.30279E+04  8.94632E+03 -1.53452E+04 -3.90938E+03
 -1.90555E+04 -1.89390E+04 -1.37181E+03 -2.46811E+04  1.39324E+04 -1.89885E+04  1.88958E+04 -8.41167E+03
  2.32726E+04 -5.26602E+03  9.92552E+03  5.02661E+03  9.10820E+02 -3.39199E+02  9.55570E+03 -6.37854E+02
  2.18052E+04  2.07981E+03  1.65972E+04  1.58298E+04  1.09186E+04  3.17018E+04  6.11579E+02  3.49517E+04
 -1.67500E+04  2.37926E+04 -3.49458E+04  6.49219E+03 -3.79047E+04 -2.63294E+03 -3.42550E+04 -2.08767E+04
 -9.29310E+03 -2.92815E+04  1.03858E+04 -2.10141E+04  2.46452E+04 -1.33801E+04  1.87593E+04  4.97622E+03
  7.00969E+03  1.51902E+04 -1.11602E+04  1.09014E+04 -1.48139E+04  4.37096E+03 -8.96199E+03 -5.24429E+03
  4.54714E+02 -2.19094E+04  5.98527E+03 -1.19170E+04  6.25169E+03  7.71618E+02  9.83397E+02  2.47998E+03
 -3.63443E+03  2.83157E+03 -4.75696E+03 -6.43453E+03  5.83883E+03 -1.27512E+04  1.41429E+04 -1.49389E+04
  1.73931E+04 -8.18391E+03  1.45533E+04  2.27574E+03  1.74267E+04  1.15018E+04  7.87479E+03  2.45059E+04
 -5.60402E+03  1.63601E+04 -9.56961E+03  1.73306E+04 -1.59907E+04  3.67765E+03 -1.33897E+04 -3.09353E+03
 -2.66669E+03 -5.09794E+03  8.64847E+02  8.02265E+02 -4.05672E+03 -1.67807E+03 -8.79281E+03  7.54866E+03
 -1.31096E+04  3.86489E+03 -1.01965E+04 -1.21264E+04 -4.62716E+03 -1.28517E+04 -7.97928E+01 -1.29406E+04
  6.85526E+03 -5.37634E+03  9.44885E+03  2.41948E+03 -1.84424E+03  6.10970E+03 -1.04280E+04 -3.57381E+03
 -4.05776E+03 -9.73251E+03 -1.07747E+03 -1.11060E+04  3.95958E+03 -1.07863E+04  1.91062E+04 -3.73752E+03
  1.63408E+04  3.20283E+03  1.72440E+04  8.89896E+03  2.80243E+03  1.36980E+04 -4.29386E+03  1.03739E+04
 -1.39004E+04  4.38357E+03 -7.05755E+03 -5.69142E+03  1.12356E+03 -4.51949E+03  8.05440E+03 -1.03541E+03
  2.03580E+03  7.62373E+03  9.60222E+02  1.10974E+04 -9.28495E+03  1.01018E+04 -9.32960E+03  1.94368E+03
 -1.24538E+04 -5.13435E+03 -1.21418E+03 -6.52510E+03  4.89339E+03 -2.69410E+02  7.24363E+03  4.95281E+03
  1.67005E+03  6.36232E+03 -4.16698E+03  7.44509E+03 -1.10938E+04  4.36150E+03 -1.04623E+04  3.48931E+03
 -4.41319E+03 -1.07171E+04  3.61404E+03 -7.15559E+03  1.09426E+04 -4.94502E+03  1.25330E+04  2.84748E+03
  6.90873E+03  9.28118E+03  1.97056E+03  1.22791E+04 -2.42830E+03  1.42489E+04 -5.40077E+03  4.04940E+03
 -6.95650E+03 -5.64441E+03  1.19414E+03 -5.57751E+03  3.36924E+03 -8.82147E+03  4.06188E+03 -3.08111E+03
  6.23949E+03 -8.28068E+02 -6.53637E+02  1.63718E+03  6.11028E+02  4.30824E+03  4.07574E+03 -1.00810E+03
  6.72435E+03 -3.90527E+03  9.99500E+03 -3.23981E+03  1.21779E+04  2.97983E+03  6.00491E+03  1.08211E+04
  3.06414E+03  1.58569E+04 -1.95978E+04  1.20979E+04 -1.63119E+04  6.39432E+03 -1.15517E+04 -5.84371E+03
 -4.67607E+03 -6.42834E+03 -7.36987E+02 -1.13129E+04  3.78903E+03 -2.38237E+03  2.79935E+03 -6.45311E+03
  7.47353E+03  1.99293E+03  1.59917E+03 -6.66075E+02  9.29215E+03 -2.21890E+03  3.07032E+03  2.65584E+03
  9.38643E+03  8.53194E+01  3.34241E+03  6.56705E+03 -4.51070E+03 -8.04959E+00 -1.00478E+04  4.75067E+03
 -7.68768E+03 -2.97854E+03 -7.33551E+03 -6.28124E+03 -2.23407E+03 -1.43043E+04  2.78329E+03 -7.04368E+03
  7.90977E+03 -1.82110E+03  1.00710E+04  3.27479E+02  2.80371E+03  5.70351E+03  5.09358E+03  8.57625E+03
 -2.83920E+03  8.40966E+03 -1.04130E+04  7.99115E+03 -4.29930E+03  3.15385E+03 -3.46689E+03 -1.39444E+03
 -3.32025E+03  5.30786E+02 -2.86942E+03  2.94455E+03 -3.20320E+03  3.36425E+03 -8.90484E+03 -2.55020E+03
 -9.06388E+03 -4.78388E+03 -3.84096E+02 -1.13011E+04  8.99831E+03 -1.05081E+04  4.32006E+03 -3.51810E+02
  7.86562E+03 -2.09489E+03  7.63956E+03  2.02306E+03  8.81873E+02  7.71236E+03 -5.91335E+03  7.28472E+03
 -4.62072E+03  1.04109E+03 -5.24595E+03 -3.96559E+03 -3.38314E+03 -1.14176E+04 -3.42784E+02 -5.01267E+03
  7.96304E+03 -2.55451E+03  1.12261E+03  5.70072E+03 -3.02220E+03 -3.44086E+02  1.04030E+03  2.52953E+03
  2.60325E+03  1.45164E+03  3.82465E+03  3.39138E+03  2.12877E+03  1.66082E+03  4.59327E+03  5.19410E+03
 -1.37490E+03  2.75590E+03 -3.06737E+03  8.79585E+03 -4.60121E+03 -3.67865E+02 -8.43805E+03 -4.71849E+02
 -3.15566E+03 -1.00136E+04 -2.90283E+03 -7.38853E+03  7.22516E+03 -4.39144E+03  6.36722E+03 -3.73567E+02
  7.97015E+03  4.86212E+03  3.54303E+03  4.95520E+03  1.79623E+03  1.02760E+03 -5.11769E+03  1.24752E+03
 -2.98707E+03 -9.07651E+02 -1.10478E+03 -2.56900E+03  3.53914E+03 -1.47911E+03 -1.08448E+03  4.45824E+03
 -2.58490E+03  3.87804E+03 -8.54638E+02 -8.19162E+02  2.71227E+01  3.09110E+02  1.45854E+03 -5.33132E+03
 -1.38661E+03 -4.19307E+03  8.44009E+03  1.32410E+03 -2.97810E+03  5.14762E+03  1.67439E+03  5.16134E+03
 -4.42009E+03 -3.22535E+02 -4.72875E+03 -1.21070E+03 -6.35688E+03 -2.05919E+03 -5.15956E+02 -6.83399E+03
  4.74946E+03 -3.75844E+03 -2.12741E+03 -6.07897E+03  1.55061E+03  3.30248E+03  6.75842E+02  3.47317E+03
  7.73101E+02  3.99833E+03 -3.82281E+03  3.18989E+03 -2.61529E+03 -3.51015E+03 -1.96388E+03 -3.88336E+03
  2.66927E+02 -4.84073E+02  1.43696E+03  3.53364E+03 -2.94873E+03 -3.31623E+03  4.69292E+02  1.23973E+03
 -3.43437E+03  4.55436E+03  9.40964E+02 -6.70342E+03  2.83944E+03 -6.19645E+03  1.77564E+03 -1.39901E+02
  3.91563E+03 -3.00404E+03  3.49676E+03  2.89237E+03 -9.45075E+02  5.51105E+03  1.08876E+03  5.26898E+03
 -2.46507E+03  2.59349E+03 -5.79554E+03 -3.77578E+03 -1.13466E+03  2.53149E+03 -2.61046E+03  3.69367E+02
  1.76034E+03  1.36028E+03  4.43340E+03 -3.19749E+03  2.34669E+02  8.05827E+03 -2.37260E+03  4.66061E+02
 -1.05746E+03  7.95511E+03  1.36688E+03  3.80739E+03 -2.85708E+03 -1.97448E+03 -3.68039E+03  2.94758E+03
  1.24725E+03  9.42582E+02 -2.77050E+03 -2.74364E+03 -3.75813E+03 -2.82940E+03 -3.85491E+03  5.46719E+01
  2.69916E+02 -8.38347E+03  3.78245E+03 -4.82710E+03  3.07297E+03 -5.33138E+03  7.33750E+03 -4.04953E+02
  5.75533E+03  2.71458E+03  5.01802E+03 -2.55579E+03  2.74407E+03  3.64246E+03 -7.82143E+02  1.62856E+02
 -5.95233E+03 -1.91285E+03 -5.61421E+03 -2.77489E+03 -1.10141E+03  1.63323E+03 -1.67574E+03  3.09417E+01
 -2.85528E+03 -2.24094E+03  1.43235E+03 -6.41758E+01  5.14433E+03 -3.93825E+03  5.63049E+03 -2.43706E+03
  3.89480E+03 -1.84997E+03 -2.30722E+03 -2.68766E+03 -5.72947E+02  5.18696E+03 -2.48416E+02  3.94806E+01
  2.52948E+02  1.09900E+04 -5.84124E+03  2.36326E+03 -3.38056E+03 -3.73957E+03  1.27509E+03 -2.19129E+03
 -5.70478E+03 -4.43808E+03 -1.96812E+03 -2.45741E+03  6.53118E+03 -3.87348E+03  2.05540E+03  4.05108E+03
 -3.86356E+03  2.04559E+03  1.14794E+03  3.52670E+03 -1.74275E+03  1.13625E+03  2.09338E+03 -2.56981E+03
 -7.16413E+02  3.78055E+02  1.37426E+03  2.17723E+02  3.64919E+03  4.31360E+03  1.11064E+03  4.73709E+03
  2.34540E+03  7.67729E+02 -7.69290E+03 -2.19186E+03 -3.60455E+03 -1.93996E+03 -5.36030E+03 -3.06625E+03
  9.94083E+03 -3.24685E+03  4.71025E+03  2.74645E+03 -2.89595E+03  4.80141E+02  3.76425E+03  1.09718E+03
  3.88806E+03  9.12413E+03  1.76487E+03  2.89058E+03  2.62484E+02  1.50852E+03  1.84240E+03 -2.64082E+03
  3.32054E+03 -1.85348E+02 -2.63253E+03  2.36911E+03 -1.67123E+03  4.22454E+03 -1.30505E+03  1.27379E+03
  8.69910E+02  4.84853E+03 -6.05867E+03 -2.11014E+03  1.26238E+02 -1.05161E+03  4.72213E+02  2.43619E+03
  1.62581E+03 -2.04915E+02  3.86607E+03  4.10020E+03 -1.66748E+03  2.38567E+03 -5.29744E+02  2.73918E+03
