 $NMID ID='MM_0lb_SNR50_13hz_g50_64.RAW', FMTDAT='(8E13.5)'
 TRAMP=1., VOLUME=1. $END
  3.06028E+05 -5.38238E+03  3.38193E+05  2.51588E+05  8.64601E+04  3.38266E+05 -1.30409E+05  2.50586E+05
 -1.93857E+05  8.47456E+04 -1.06784E+05 -2.92566E+04 -3.62051E+03 -5.20575E+04  5.29242E+04 -9.08871E+02
  3.88074E+04  5.50305E+04 -1.62594E+04  7.98466E+04 -6.55667E+04  6.38369E+04 -8.90856E+04  3.03592E+04
 -8.34579E+04 -1.12945E+04 -5.65713E+04 -4.83240E+04 -1.35882E+04 -6.70126E+04  2.41614E+04 -4.54678E+04
  4.39723E+04  2.59884E+03  1.91732E+04  4.85913E+04 -3.24178E+04  4.42771E+04 -6.78488E+04 -3.76776E+03
 -5.59762E+04 -5.63658E+04 -5.43385E+03 -7.89337E+04  3.22906E+04 -5.55434E+04  4.34859E+04 -1.87225E+04
  3.52646E+04  9.13045E+03  3.06443E+04  2.76981E+04  1.78319E+04  3.05346E+04 -1.04091E+03  2.45098E+04
 -2.07015E+04  1.50469E+04 -1.77786E+04 -7.71458E+03  1.13604E+04 -1.06011E+04  2.20870E+04  1.46240E+04
  3.58465E+03  3.50037E+04 -3.58953E+04  3.42613E+04 -5.86296E+04 -3.53569E+03 -4.98086E+04 -4.11819E+04
 -1.24672E+04 -6.19089E+04  4.10318E+04 -4.49333E+04  5.91524E+04  3.76454E+02  3.49412E+04  3.19386E+04
 -7.11646E+03  3.67702E+04 -3.10530E+04  1.61679E+04 -2.87940E+04 -1.60928E+03 -2.16794E+04 -1.04963E+04
 -8.75807E+03 -1.13660E+04  5.54571E+03 -1.91999E+04  6.30300E+03 -1.86972E+04  1.20384E+04 -1.33277E+04
  1.13812E+04  4.19882E+03 -6.42440E+03  1.10765E+04 -2.02128E+04 -4.96499E+03 -9.59566E+03 -3.56881E+04
  1.83191E+04 -4.25814E+04  4.78974E+04 -1.97424E+04  4.71592E+04  1.85444E+04  1.16122E+04  4.30944E+04
 -1.66211E+04  2.97847E+04 -2.27526E+04 -1.37366E+03 -8.36643E+03 -2.93226E+04  1.82216E+04 -3.49107E+04
  4.21116E+04 -7.12297E+03  3.02462E+04  2.04106E+04  2.27680E+04  5.06801E+04 -6.80943E+03  5.11294E+04
 -3.43211E+04  2.89622E+04 -4.13058E+04  8.88805E+03 -4.17501E+04 -1.83206E+04 -2.59537E+04 -3.92359E+04
  5.39219E+03 -3.80200E+04  3.48059E+04 -1.53667E+04  2.57908E+04  1.53129E+04  1.71776E+03  1.68815E+04
 -1.41902E+04  4.75170E+03 -7.47632E+03 -9.23300E+03  5.23174E+03 -1.26830E+04  1.39089E+04  2.62460E+03
  1.11118E+04  2.42705E+04 -4.85305E+03  2.98987E+04 -2.25947E+04  9.54845E+03 -2.86722E+04 -4.07321E+03
 -2.12175E+04 -1.81025E+04 -7.69071E+03 -2.22494E+04  7.54251E+03 -1.72920E+04  1.64139E+04 -1.94650E+04
  2.79783E+04 -1.28714E+04  3.02115E+04 -1.96051E+03  2.36416E+04  1.86005E+04  1.35906E+03  3.60974E+04
 -1.93645E+04  2.95943E+04 -3.39137E+04  1.52994E+04 -1.96357E+04 -9.47977E+03 -9.22909E+03 -1.18852E+04
  1.76399E+03 -1.24876E+02 -5.56616E+03  7.43217E+03 -1.20769E+04  9.13213E+03 -1.57258E+04 -7.35267E+03
 -5.95760E+03 -2.22494E+04  1.14099E+04 -2.53995E+04  2.08445E+04 -1.05459E+04  2.16731E+04 -3.05985E+03
  1.53835E+04  1.59510E+04  9.19493E+02  1.54156E+04 -1.04418E+04  8.97152E+03 -1.81416E+04 -5.80254E+03
 -1.34361E+04 -1.83655E+04 -3.94736E+03 -2.29870E+04  1.32137E+04 -1.65163E+04  2.41843E+04 -1.11077E+04
  1.71787E+04  5.93412E+03  1.32233E+04  8.11359E+03  1.28170E+04  4.29597E+02  9.47976E+03 -4.93787E+03
  1.20316E+04  6.93058E+03  1.87113E+04  1.32006E+04  1.04852E+04  2.99014E+04 -6.46673E+03  3.95812E+04
 -2.19814E+04  2.98917E+04 -3.48250E+04  1.28918E+04 -3.97026E+04 -1.90936E+03 -2.82403E+04 -1.80524E+04
 -7.81913E+03 -3.25001E+04  7.68023E+03 -2.24099E+04  2.84697E+04 -1.39400E+04  2.40380E+04  1.02156E+04
  5.03475E+03  1.98457E+04 -7.70579E+03  1.63015E+04 -1.86977E+04  2.19331E+03 -1.60278E+04 -1.16223E+04
  1.17033E+03 -1.57624E+04  8.43051E+03 -1.83782E+04  5.83923E+03  2.67907E+03  5.06574E+03  7.38560E+03
 -6.52095E+03  5.63614E+03 -1.06319E+04 -7.92114E+03  3.57713E+03 -1.56429E+04  3.80082E+03 -1.33290E+04
  1.66684E+04 -1.06779E+04  2.21160E+04  5.99591E+03  1.63647E+04  1.40807E+04  1.12901E+04  1.96492E+04
 -4.38595E+03  1.93588E+04 -1.52234E+04  1.40166E+04 -1.78655E+04  3.92812E+03 -1.81418E+04 -8.41417E+03
 -7.22565E+03 -5.71793E+03  5.05529E+02  3.92849E+03 -3.20661E+03 -3.27634E+03 -8.14897E+03  5.83353E+03
 -1.02052E+04 -9.02300E+02 -1.46280E+04 -1.12285E+04 -6.75394E+03 -2.24727E+04  1.40126E+03 -1.25363E+04
  9.91140E+03 -5.19434E+03  8.36773E+03 -1.26788E+03 -7.26866E+02 -1.84500E+03 -1.19182E+04 -1.96480E+03
 -7.52780E+03 -9.27424E+03  3.04013E+02 -6.46868E+03  7.75300E+03 -1.25189E+04  1.28009E+04 -6.45802E+03
  1.97941E+04  1.96891E+03  1.29558E+04  1.22323E+04  2.69513E+03  1.83378E+04 -3.72673E+03  1.34257E+04
 -9.57154E+03  3.20693E+03 -3.62030E+03  1.04478E+03  1.16727E+03 -9.00033E+02  6.42977E+03 -2.40793E+03
  4.69075E+03  3.83730E+03  2.59671E+03  1.04240E+04 -3.61626E+03  6.58789E+03 -1.51029E+04  1.13128E+03
 -1.06359E+04 -8.03532E+03  7.11114E+03 -1.06055E+04  1.12539E+04 -5.60029E+03  3.97814E+03  7.70753E+02
  2.40679E+03  7.71645E+03 -6.43524E+03  1.16256E+04 -9.77691E+03  7.68618E+03 -9.77583E+03 -9.99390E+02
 -4.63277E+03 -1.31300E+04  2.42137E+03 -1.09266E+04  8.95968E+03 -9.70968E+03  1.18000E+04  3.90244E+03
  6.08731E+03  4.04781E+03  2.05681E+03  8.32562E+03 -5.54467E+03  5.55259E+03 -8.13804E+03 -2.36715E+02
 -1.17102E+04 -5.61986E+03 -9.14423E+02 -4.66643E+03 -1.71596E+03 -1.54934E+04  3.20929E+03 -1.82691E+03
  1.34260E+03 -3.82985E+03 -1.28033E+03  4.78292E+03 -1.70478E+02  5.74059E+02  7.93370E+01 -6.40814E+03
  5.79605E+03 -2.68490E+03  9.53410E+03  2.02751E+03  6.21364E+03  6.46043E+03  5.40105E+03  9.33426E+03
 -6.00415E+03  1.45819E+04 -1.42993E+04  1.52471E+04 -1.62642E+04 -4.45592E+02 -1.23124E+04 -3.29123E+03
 -5.01721E+03 -9.77461E+03 -5.06280E+03 -1.17579E+04  7.54120E+03 -4.15058E+03  5.63610E+03 -4.94214E+03
  3.79982E+03  7.90663E+02  8.26732E+02 -4.90260E+03  2.50463E+03 -1.51738E+03  6.10617E+03  2.09565E+01
  3.45526E+03  6.53477E+03  3.98609E+03  7.70149E+02 -6.11318E+02  4.98109E+03 -9.21937E+03  7.16952E+03
 -1.07350E+04 -2.00048E+03 -5.86187E+03 -3.56028E+03  3.61002E+03 -1.10929E+04  9.55145E+03 -9.86378E+03
  1.07811E+04 -5.65744E+03  1.14850E+04  2.52782E+03  9.26066E+03  5.90774E+03  1.63716E+03  1.00204E+04
 -8.37026E+03  6.42522E+03 -1.15736E+04  6.96316E+03  2.35371E+03 -3.27218E+03 -1.07990E+03 -5.55005E+02
 -2.34194E+03  6.62772E+01 -2.54646E+03  2.12380E+03 -4.57337E+03  6.95437E+03 -8.88283E+03 -4.20498E+03
 -6.35560E+03 -5.22794E+03  4.08354E+02 -1.04177E+04  5.89689E+03 -8.05666E+03  1.07599E+04 -2.59497E+03
  1.11219E+04  1.87632E+03  1.81524E+03  8.20162E+03 -4.62510E+03  1.00277E+04 -6.63038E+03  1.06772E+04
 -6.55306E+03 -3.49871E+02 -2.92108E+03 -5.42458E+03 -1.41320E+03 -5.67122E+03  7.91312E+03 -2.26682E+03
  4.95049E+03  1.49487E+02  4.56699E+03  2.63720E+03  3.57727E+03  3.42272E+03  7.24741E+03 -8.65857E+02
  3.76493E+03 -2.11581E+03  3.26925E+03  2.01298E+03 -6.89210E+02 -8.53176E+01  6.74305E+03  4.08048E+03
 -2.89529E+02  9.47240E+03 -5.00692E+03  8.35126E+03 -3.10017E+03  3.16202E+03 -7.25734E+03 -4.62510E+03
 -3.55878E+03 -1.60309E+04  4.36205E+02 -8.00306E+03  4.30918E+03 -1.01656E+03  8.68144E+03 -7.13772E+02
  6.70552E+03  6.31006E+03  4.63650E+02  1.60714E+03 -2.98860E+03 -1.27582E+03 -2.72577E+03 -2.90828E+03
 -1.69566E+03 -7.65227E+03  4.89038E+03 -1.88310E+03  3.41508E+03 -3.33413E+03 -5.91978E+02 -3.26189E+03
  5.00274E+03 -2.80426E+03  1.22769E+03  6.40283E+03  3.22253E+03  6.66912E+03  2.00997E+03  8.11743E+03
  3.81177E+03  1.78916E+03  5.64620E+03  3.89731E+03  2.97906E+03  7.13331E+03  2.16587E+03  4.00604E+01
 -4.38163E+03  7.07903E+03 -5.59506E+03  5.46331E+03 -1.39712E+03  7.18776E+02 -3.08259E+02 -2.47848E+03
 -1.60164E+03 -3.65513E+03  1.10276E+03 -2.63354E+03  4.57627E+01  1.78827E+02  1.99602E+03  6.80620E+02
 -1.04213E+03  2.97034E+03  2.35360E+03 -1.40844E+03  2.79587E+03 -3.54374E+03  1.23380E+03 -6.78472E+03
  3.44170E+03  3.79996E+03  3.28013E+03  4.80684E+03  1.24774E+03 -4.37467E+03  3.53963E+03  2.27213E+03
 -2.55455E+03  1.08410E+03 -3.97215E+02 -1.10318E+03  5.60561E+03 -4.73995E+03  2.42513E+03 -3.89485E+03
  5.19617E+03  6.72062E+03  5.07457E+03  7.08827E+02 -4.74897E+02  3.43968E+03  8.36176E+02  3.10072E+03
 -6.47478E+03  1.45504E+03 -3.41474E+03  6.41483E+02 -2.19366E+03 -4.45839E+03 -6.21776E+02  1.43277E+03
  3.33755E+03  4.33585E+03  2.56455E+03  4.21706E+03  4.46592E+03 -2.89132E+03 -1.15835E+03  2.77232E+03
 -1.41604E+03  2.93426E+03 -2.51307E+02  8.94952E+02 -4.79737E+03  4.39962E+03  1.64188E+03 -2.39305E+02
 -4.93022E+03  1.48609E+03 -2.91876E+03  5.45048E+03 -8.35593E+02  2.80959E+03 -2.81153E+03 -1.57426E+03
  3.20877E+02 -4.58476E+03 -2.63849E+03 -4.21786E+03  6.72431E+03 -2.14517E+03  9.23853E+03 -3.83666E+03
  8.43319E+03 -9.63203E+02  1.33598E+03  6.28912E+03  2.17694E+03  5.62591E+03  2.51853E+03  3.13062E+03
  1.29637E+03 -2.53877E+03 -9.75099E+02 -2.75877E+03  9.36152E+02 -2.07885E+03  1.36988E+03 -3.42965E+03
 -9.80502E+02 -2.65965E+03  5.98725E+02 -3.75218E+02  3.24849E+03  1.94456E+03  6.01772E+03 -3.23878E+03
  1.30410E+03  1.77611E+02  6.62364E+03  2.18854E+03  9.84809E+02  2.81422E+03 -1.38316E+03  5.41364E+03
 -1.84476E+03  7.01800E+03 -2.31184E+03  2.58007E+03 -8.49927E+03 -6.28082E+02 -8.09903E+03 -4.68972E+03
  1.71921E+03 -2.45910E+03 -3.69269E+03 -1.70618E+03  5.83380E+03 -4.79059E+03  4.01373E+03  4.99193E+03
 -3.31591E+03 -1.69082E+02 -1.47864E+01  1.75473E+03 -1.83590E+02 -2.33891E+03  5.53116E+03 -1.27595E+03
  2.98437E+03 -1.91116E+03  2.92610E+03  3.40816E+03  4.47326E+03 -3.85852E+03  4.33611E+03  3.26914E+02
 -3.61578E+03  2.52401E+03 -4.24916E+03 -2.06701E+03 -2.17198E+03 -3.68317E+02 -3.04936E+01 -3.40543E+03
 -1.83568E+03 -6.11394E+03  2.90734E+03  3.18689E+03  5.41591E+03  1.08903E+03  2.22343E+03  3.68431E+03
  1.09770E+03  1.73598E+03 -4.35851E+02  2.34355E+03 -1.77596E+03 -3.07337E+02 -4.44438E+03  2.36617E+03
  2.82124E+03  2.60989E+03 -6.08420E+03 -2.09947E+03 -1.34892E+03  3.48161E+03 -4.94542E+03 -2.53929E+03
 -4.60448E+03 -2.88666E+03 -6.01764E+02  1.28133E+03 -1.36950E+03 -2.44357E+03  5.17020E+03  1.94060E+03
  4.26730E+03  7.29109E+02  1.38498E+03 -2.34068E+03 -2.77594E+03  3.31842E+01 -8.65856E+02  5.55830E+03
