 $NMID ID='MM_0lb_SNR50_10hz_g55_4.RAW', FMTDAT='(8E13.5)'
 TRAMP=1., VOLUME=1. $END
  3.09855E+05 -1.86213E+03  3.34651E+05  2.50130E+05  8.52517E+04  3.37263E+05 -1.33325E+05  2.51852E+05
 -1.85079E+05  7.65340E+04 -1.14162E+05 -3.12478E+04  4.70061E+02 -5.45996E+04  5.47456E+04 -3.96093E+03
  3.41158E+04  4.89558E+04 -1.25860E+04  7.57828E+04 -6.15730E+04  6.85013E+04 -9.11449E+04  2.83720E+04
 -7.53862E+04 -1.05352E+04 -5.87543E+04 -5.79099E+04 -1.29772E+04 -6.97314E+04  3.10868E+04 -4.73246E+04
  4.10946E+04  3.38421E+03  1.52728E+04  4.26178E+04 -3.09210E+04  5.18117E+04 -6.52149E+04  6.49077E+02
 -5.13635E+04 -5.94963E+04 -4.91556E+03 -7.90132E+04  2.52308E+04 -5.43842E+04  4.83992E+04 -2.17673E+04
  4.87785E+04  1.74035E+04  3.21449E+04  2.71647E+04  1.46805E+04  3.27278E+04 -5.48845E+03  3.17629E+04
 -1.99869E+04  1.72719E+04 -1.97720E+04 -3.08176E+03  4.17721E+03 -7.48680E+03  2.12511E+04  1.46190E+04
  5.66561E+03  3.72568E+04 -3.54076E+04  3.41086E+04 -6.43619E+04  2.44630E+03 -5.77970E+04 -4.78926E+04
 -1.11020E+04 -6.96083E+04  4.17746E+04 -4.76699E+04  5.31898E+04 -5.73363E+03  3.79279E+04  3.44564E+04
 -4.84411E+03  4.12180E+04 -3.41385E+04  1.94200E+04 -3.54500E+04 -6.66693E+03 -2.12133E+04 -1.03053E+04
 -6.80916E+03 -1.57092E+04 -3.60380E+03 -9.61137E+03  1.31475E+04 -1.82664E+04  1.35108E+04 -1.24641E+04
  9.05008E+03  1.73412E+03 -5.97063E+03  1.84938E+04 -2.87124E+04 -5.32000E+03 -3.99125E+03 -3.08835E+04
  1.66489E+04 -5.05646E+04  5.26265E+04 -2.32312E+04  4.34741E+04  2.22354E+04  1.67253E+04  4.53247E+04
 -1.41530E+04  3.58895E+04 -2.44005E+04  6.77654E+03 -9.69339E+03 -3.07757E+04  1.98747E+04 -3.41347E+04
  4.19395E+04 -1.64182E+04  4.69189E+04  2.97919E+04  2.21991E+04  5.86436E+04 -5.12692E+03  5.84650E+04
 -4.16293E+04  4.04748E+04 -4.43867E+04  1.39598E+04 -4.55579E+04 -1.42233E+04 -1.89450E+04 -4.33392E+04
  7.12080E+03 -4.42498E+04  3.06271E+04 -1.58497E+04  3.03887E+04  1.07492E+04  3.94747E+03  1.92773E+04
 -1.53635E+04  1.78720E+04 -1.32376E+04 -2.78974E+03  5.17229E+03 -1.09149E+04  1.96985E+04  8.54694E+03
  1.20803E+04  2.81290E+04 -5.11615E+03  3.11904E+04 -2.27167E+04  1.18005E+04 -3.38803E+04 -3.82987E+03
 -2.41921E+04 -1.87575E+04 -1.15537E+04 -2.64387E+04  5.07709E+03 -2.98250E+04  1.49598E+04 -2.36542E+04
  3.31915E+04 -1.53292E+04  3.34790E+04  3.32565E+03  2.30232E+04  2.82009E+04  4.22365E+03  3.90453E+04
 -2.06959E+04  3.54061E+04 -2.87039E+04  9.21470E+03 -2.09073E+04 -1.44813E+04 -4.13540E+03 -1.12564E+04
  3.92938E+03 -2.82970E+03 -6.45313E+03  6.84697E+03 -2.65983E+04  3.69595E+03 -1.87621E+04 -5.03383E+03
 -1.64280E+04 -2.67827E+04  1.62005E+03 -2.46446E+04  2.29845E+04 -1.83849E+04  2.31969E+04 -8.04909E+03
  1.72128E+04  1.54317E+04  2.80073E+03  2.38924E+04 -1.23136E+04  1.01061E+04 -2.53813E+04 -2.58778E+03
 -1.91443E+04 -2.75938E+04 -4.77807E+03 -2.60321E+04  1.63721E+04 -1.83043E+04  2.32434E+04 -9.09088E+03
  2.03717E+04  2.82272E+03  1.70861E+04  6.52120E+03  1.16392E+04  3.23374E+03  1.57139E+04 -4.65263E+03
  2.27562E+04 -4.79176E+01  2.40812E+04  2.10656E+04  1.76074E+04  3.38720E+04 -5.05512E+03  4.22274E+04
 -2.97451E+04  3.49996E+04 -4.00604E+04  1.69387E+04 -4.56602E+04 -2.21941E+02 -3.76538E+04 -2.46932E+04
 -1.09331E+04 -3.73403E+04  1.61948E+04 -3.22822E+04  2.92308E+04 -1.72553E+04  2.51625E+04  9.16353E+03
  1.15530E+04  1.51105E+04 -1.00077E+04  1.91511E+04 -1.79585E+04  4.93374E+03 -1.62845E+04 -1.45175E+04
 -2.34805E+03 -1.90151E+04  1.07065E+04 -1.92510E+04  1.57900E+04  1.38648E+03 -5.67260E+02  9.28512E+03
 -1.19977E+04  4.64097E+03 -8.86802E+03 -5.67462E+03  1.96113E+02 -1.88629E+04  1.43929E+04 -1.94412E+04
  2.30401E+04 -1.35552E+04  2.73162E+04  4.59462E+03  2.42134E+04  1.71403E+04  5.79935E+03  3.31218E+04
 -1.80720E+03  2.62403E+04 -1.07840E+04  2.14001E+04 -1.37602E+04  5.13909E+03 -1.55623E+04 -9.51358E+03
 -3.09396E+03 -5.92213E+03  2.03432E+03  1.73455E+03  6.15154E+02  6.71883E+03 -9.33656E+03  1.00546E+04
 -8.98717E+03 -3.15012E+03 -1.35685E+04 -1.49440E+04 -6.31624E+03 -1.90960E+04  8.19868E+03 -1.99708E+04
  1.61294E+04 -6.86331E+03  1.05050E+04  7.42336E+03  6.49302E+02  2.46010E+03 -8.40170E+03  6.86323E+01
 -7.96712E+03 -1.59508E+04  4.19341E+03 -1.49127E+04  1.01548E+04 -1.50071E+04  2.12096E+04 -1.39341E+04
  1.81833E+04  7.93015E+03  9.37813E+03  1.11378E+04  2.23401E+03  1.88971E+04 -5.53303E+03  1.18908E+04
 -9.84726E+03  1.98207E+03 -7.77368E+03 -2.49797E+03  1.93671E+03  1.48450E+03  6.43117E+03 -7.09289E+03
  9.15999E+03  1.04234E+04 -1.25212E+03  1.04789E+04 -9.16909E+03  9.37629E+03 -1.17169E+04 -1.51581E+03
 -1.12945E+04 -1.02566E+04  2.03962E+03 -1.23249E+04  1.25417E+04 -9.66018E+03  1.14625E+04  2.57464E+03
  2.61509E+03  1.17511E+04 -1.27365E+04  1.41476E+04 -1.85025E+04  2.55435E+03 -1.19772E+04 -4.96338E+03
 -1.83911E+04 -2.14973E+04  5.71945E+03 -1.10049E+04  1.95357E+04 -1.44241E+04  1.98097E+04  4.73605E+02
  9.78309E+03  1.28562E+04 -3.01577E+03  1.06470E+04 -9.68165E+03  1.14442E+04 -8.62751E+03  3.90811E+02
 -6.37929E+03 -1.04955E+04 -7.18802E+03 -4.46839E+03  1.28853E+03 -1.11778E+04  3.02400E+03 -5.31012E+03
  5.14202E+03 -1.89586E+03  4.42038E+03 -1.20390E+03 -1.99043E+03 -4.49709E+03  1.46745E+03 -3.82636E+03
  1.00729E+04  2.23603E+03  1.60307E+04  3.26894E+03  5.53146E+03  1.42295E+04  1.11201E+04  2.17651E+04
 -1.81255E+03  1.92648E+04 -2.48775E+04  1.34627E+04 -2.61728E+04  9.66510E+03 -2.26563E+04 -9.57842E+03
 -1.03340E+04 -8.70804E+03  5.75842E+03 -1.79082E+04  3.58605E+03 -6.49174E+03  7.23210E+03 -4.42786E+03
  7.16361E+03 -4.64727E+03  6.52705E+03 -2.90149E+03  4.08963E+03 -1.58407E+03  5.29847E+03  2.64592E+03
  5.43271E+03  4.99777E+03  5.99106E+03  7.65505E+03 -5.52952E+03  1.08855E+04 -6.34015E+03  7.70613E+03
 -1.06928E+04  5.13948E+02 -1.35616E+04 -1.21944E+04 -1.39741E+03 -1.14379E+04  9.20917E+03 -1.40665E+04
  1.26381E+04 -5.68815E+03  1.22045E+04  1.19330E+02  9.61308E+03  1.01947E+04 -2.70019E+02  1.87418E+04
 -4.54768E+03  1.04379E+04 -8.79132E+03  6.98091E+03 -1.36567E+04 -2.37583E+03 -4.89169E+03  9.64277E+02
 -1.42772E+03  2.60966E+03 -9.46543E+03  6.59212E+03 -1.07466E+03  7.38028E+03 -6.04809E+03 -3.33769E+03
 -6.11519E+03 -7.94821E+03  3.97846E+03 -1.65038E+04  7.45146E+03 -1.47771E+04  1.36380E+04 -5.87286E+03
  1.09758E+04  7.93249E+03  4.16119E+03  1.19003E+04 -1.26163E+03  1.53745E+04 -1.12131E+04  8.53618E+03
 -1.03530E+04 -5.80901E+03 -1.37447E+04 -1.40111E+04 -4.04225E+03 -1.32881E+04  1.06433E+03 -1.08094E+04
  8.83859E+03 -5.67842E+02  1.53914E+03 -1.26342E+01  6.97431E+03  2.70583E+03  5.36128E+03  4.13160E+03
  1.41280E+03  3.01239E+03  7.05556E+03  1.77982E+03  3.54068E+03  2.74203E+03 -1.21157E+03  4.60792E+03
  3.82456E+03  4.12054E+03 -6.34879E+03  6.43139E+03 -1.49884E+04  4.30699E+03 -1.49086E+04 -8.27373E+03
 -2.17965E+03 -1.49057E+04  2.08975E+03 -7.88787E+03  6.28622E+03 -1.28976E+04  6.80919E+03 -7.29512E+03
  1.50405E+04  5.39072E+03  1.56174E+03  5.73305E+03 -6.21548E+03  6.45814E+03 -5.04316E+03  3.23074E+02
 -6.47882E+03 -5.50815E+03  5.09754E+03 -8.36186E+03  1.23922E+04 -3.14260E+03  6.85698E+03  9.48377E+02
  3.53777E+03  6.79819E+03  6.19419E+03  1.08145E+03 -9.06300E+03  9.72813E+02  3.11535E+03  4.04805E+03
  4.65869E+03 -8.72387E+03  6.91516E+03  7.29123E+03 -1.87612E+03  1.10272E+04  5.64938E+02  1.24920E+04
 -5.42718E+03  9.61653E+03 -1.01390E+04 -1.79151E+03 -9.34853E+03 -2.02136E+03 -5.59389E+03 -4.16527E+03
 -3.72158E+03 -9.70750E+03  1.16154E+03 -1.69892E+03  5.02074E+03  5.11770E+03  6.25002E+01  1.06361E+04
 -3.38343E+03  3.12759E+03  4.28552E+02  3.77045E+02 -8.42493E+03 -6.27596E+03 -6.56685E+02 -8.65689E+03
  3.34864E+03 -5.65890E+03  9.28978E+03 -5.54106E+02  5.80763E+03  1.08303E+04 -3.31372E+03  1.02689E+03
  3.58605E+03  6.42999E+02 -7.82892E+03 -1.75366E+03  1.84831E+03 -1.03856E+04  4.01667E+03 -3.41070E+03
  1.45595E+04  3.42744E+03  3.13001E+03  4.87782E+03  3.36279E+03  1.74177E+03 -3.75104E+03  7.22229E+03
 -4.35336E+03  9.64936E+01 -1.23716E+04  3.72932E+03 -7.14360E+03 -9.56991E+03  3.46429E+03 -1.93861E+03
  1.31692E+03 -4.31923E+02  8.07175E+03 -3.34212E+02  6.54161E+03  4.14690E+03 -4.18990E+03  5.61222E+03
 -1.96309E+03  1.40861E+03 -1.94950E+03 -5.89943E+03  4.14792E+03  3.04736E+03 -5.24100E+03 -3.13101E+02
  3.38214E+02  2.89583E+03 -6.06443E+01 -1.17486E+03 -1.03887E+04  4.75085E+03 -1.30045E+04 -1.88112E+03
 -5.54040E+03 -4.26615E+03  1.37590E+03 -1.55450E+04  1.42386E+04 -1.23456E+04  7.46737E+03  4.08485E+02
  1.34031E+04  4.23996E+03  6.53588E+03  4.32770E+03 -9.23634E+01  1.54228E+03 -6.69940E+03  5.26802E+03
  8.40918E+02  1.25941E+03 -8.77352E+03 -2.62819E+03 -9.97278E+02  1.82832E+03  5.67863E+03  1.26542E+02
 -1.67531E+03 -3.68000E+03 -7.57513E+02 -5.99149E+03  4.90700E+02 -3.95580E+03  8.41333E+02 -1.25801E+03
  5.53092E+03 -2.32786E+03  1.39214E+03  3.91025E+03  3.88276E+03  1.32537E+04 -3.73459E+03  2.62050E+03
 -6.72758E+03  6.67084E+03 -1.36367E+04  1.34041E+04 -1.63153E+04 -1.29889E+03 -4.24103E+03 -6.79667E+03
 -2.81769E+03 -3.00309E+03  1.86303E+03 -1.10288E+04  7.49936E+03 -4.97512E+03  4.73959E+03 -3.55823E+03
 -1.12315E+03  5.40768E+03  1.48556E+03 -1.45914E+03 -8.06563E+02  4.62480E+02 -3.75144E+03  6.95091E+02
  4.99287E+03 -3.38672E+02  6.59761E+03 -1.30456E+03  5.29599E+03 -7.12836E+03 -1.37319E+03  6.72261E+03
 -5.75978E+03  8.09127E+03 -8.11798E+03  3.10462E+03  4.18659E+03  1.41552E+03  1.41002E+03 -2.94811E+03
 -3.43186E+02 -5.31774E+03  9.41920E+03 -8.21911E+00  2.09627E+03  3.45453E+03  4.06831E+03  5.04709E+03
  5.45760E+03  8.48291E+03 -1.43623E+03  4.65745E+03 -7.99524E+03 -1.96422E+03 -1.24102E+03  1.87794E+03
 -3.69653E+03 -4.80778E+03  1.52034E+03  1.80064E+03 -7.16776E+02 -1.57574E+03 -1.89718E+01 -6.20402E+03
 -5.35633E+03 -2.93943E+03 -3.21969E+03 -1.23722E+03 -8.59331E+02 -2.05246E+03  1.25816E+04 -8.93432E+03
 -1.03339E+03  1.21594E+03  2.09208E+02  2.95097E+03 -4.09449E+03  7.55816E+03 -4.24049E+03  8.53913E+02
