 $NMID ID='MM_0lb_SNR50_18hz_g60_85.RAW', FMTDAT='(8E13.5)'
 TRAMP=1., VOLUME=1. $END
  3.10024E+05 -1.22417E+03  3.39758E+05  2.47662E+05  8.89947E+04  3.38912E+05 -1.31712E+05  2.53575E+05
 -1.88840E+05  8.07945E+04 -1.09095E+05 -2.82070E+04 -3.14106E+02 -5.31766E+04  5.72318E+04 -3.03233E+03
  2.96512E+04  5.18828E+04 -1.47023E+04  7.48360E+04 -6.23493E+04  6.15623E+04 -8.70110E+04  3.32109E+04
 -7.75590E+04 -1.04307E+04 -5.91232E+04 -5.01669E+04 -1.53118E+04 -6.90663E+04  2.32851E+04 -4.37614E+04
  3.92379E+04  2.01230E+03  1.88619E+04  4.73774E+04 -3.53587E+04  4.43328E+04 -6.74779E+04  8.40960E+02
 -5.60140E+04 -6.08254E+04 -2.54078E+03 -7.63141E+04  3.36543E+04 -5.23909E+04  5.17303E+04 -2.11245E+04
  3.92395E+04  1.04285E+04  3.22686E+04  2.26405E+04  1.92119E+04  2.61356E+04 -2.76865E+03  3.03690E+04
 -2.52676E+04  9.50688E+03 -2.21169E+04 -5.25068E+03  1.00556E+04 -1.02378E+04  2.27871E+04  1.44014E+04
  7.68127E+03  3.68917E+04 -2.99648E+04  3.85137E+04 -6.16249E+04  4.95313E+03 -5.69274E+04 -4.44778E+04
 -1.51873E+04 -6.19017E+04  3.87260E+04 -4.73117E+04  5.42733E+04  4.71738E+03  3.20198E+04  3.59683E+04
 -5.35704E+03  3.40042E+04 -3.23728E+04  1.51918E+04 -3.08256E+04 -8.09663E+03 -1.44666E+04 -8.75555E+03
 -8.29079E+03 -1.24363E+04 -8.93492E+02 -1.91356E+04  8.54800E+03 -2.29165E+04  1.70166E+04 -1.84451E+04
  1.19905E+04  9.65865E+03 -1.28856E+04  1.14754E+04 -1.95246E+04 -1.86809E+03 -8.53953E+03 -3.47473E+04
  2.14060E+04 -4.36061E+04  4.72938E+04 -2.04858E+04  4.42140E+04  1.71054E+04  1.23249E+04  4.41324E+04
 -1.70747E+04  3.49472E+04 -2.62060E+04  3.39220E+03 -5.49347E+03 -2.93466E+04  1.68549E+04 -3.14785E+04
  3.91994E+04 -5.14713E+03  3.53653E+04  2.44067E+04  1.48021E+04  4.25215E+04 -6.07852E+03  4.91327E+04
 -3.65851E+04  3.12542E+04 -3.70116E+04  7.91298E+03 -4.01865E+04 -1.67642E+04 -2.10048E+04 -3.66082E+04
  1.31810E+04 -3.91405E+04  3.21900E+04 -1.28889E+04  2.70003E+04  9.95200E+03  5.06958E+03  1.47946E+04
 -1.22599E+04  7.32513E+03 -9.29513E+03 -8.19387E+03  6.48663E+03 -9.78091E+03  1.56665E+04  1.21499E+04
  9.69495E+03  1.97412E+04 -5.74813E+03  2.67622E+04 -2.52905E+04  1.12612E+04 -2.71916E+04 -6.96147E+03
 -1.64441E+04 -1.98793E+04 -5.75935E+03 -1.60907E+04  7.45235E+03 -1.90276E+04  1.32603E+04 -1.40384E+04
  2.27453E+04 -9.43034E+03  2.59737E+04  1.82166E+03  2.30585E+04  2.05922E+04  4.11440E+03  3.14006E+04
 -1.81261E+04  2.84697E+04 -2.75671E+04  1.08135E+04 -1.79683E+04 -8.84334E+03 -1.78430E+03 -1.31593E+04
  3.98401E+03 -3.56021E+03 -1.38188E+03  4.76277E+03 -1.21607E+04  7.07289E+03 -1.83534E+04 -9.04603E+03
 -1.13242E+04 -1.38473E+04  6.36402E+03 -2.21084E+04  1.75687E+04 -1.45760E+04  1.42855E+04 -3.93899E+03
  7.14721E+03  9.98399E+03  1.35830E+03  1.70019E+04 -1.09333E+04  1.00860E+04 -1.57963E+04 -3.98165E+03
 -1.34520E+04 -1.53103E+04  2.89961E+03 -2.35336E+04  4.29961E+03 -1.43742E+04  1.62314E+04 -1.06527E+04
  2.24178E+04  5.28460E+03  1.60128E+04  3.40204E+03  5.56145E+03 -1.05076E+02  1.02387E+04 -1.86008E+03
  1.83303E+04  4.39642E+03  1.75302E+04  1.46101E+04  6.21101E+03  2.73334E+04  7.56714E+02  2.94119E+04
 -1.55434E+04  2.37023E+04 -2.67978E+04  1.03598E+04 -2.74842E+04 -4.56397E+03 -2.89234E+04 -1.92220E+04
 -9.21405E+03 -1.99383E+04  3.80726E+03 -1.81971E+04  2.01845E+04 -1.38938E+04  2.23892E+04  9.46897E+03
  6.79645E+03  1.02733E+04 -8.74535E+03  9.34272E+03 -1.40863E+04  3.18641E+03 -9.65103E+03 -4.48140E+03
 -2.85959E+01 -1.15306E+04  9.78775E+03 -1.19644E+04  6.59898E+03 -9.04663E+02  1.21652E+03  1.06038E+04
 -6.30564E+03  3.72639E+03 -6.37110E+03 -8.92529E+03 -2.62243E+03 -1.04721E+04  1.08311E+04 -1.12063E+04
  1.28612E+04 -4.17713E+03  1.22309E+04  5.52460E+02  1.55157E+04  1.57519E+04  1.06657E+04  1.68711E+04
 -4.58954E+03  1.49076E+04 -1.01805E+04  1.30473E+04 -1.40642E+04  7.08478E+03 -9.47531E+03  2.33556E+03
 -2.27071E+02 -2.15448E+03  1.05592E+03  8.97642E+02 -1.87446E+03  3.03147E+03 -4.88470E+03  6.19378E+02
 -1.31394E+04  1.04876E+03 -3.30918E+03 -7.42579E+03 -6.54737E+02 -8.68936E+03  1.97320E+03 -1.13824E+04
  1.05179E+04 -4.25120E+03  1.18157E+04  3.35373E+03 -2.91178E+03  5.65550E+03 -5.18406E+03 -2.01993E+02
 -6.35535E+03 -3.77081E+03 -8.40455E+02 -9.59329E+03  2.40823E+03 -6.87851E+03  1.23513E+04 -5.58489E+03
  1.04061E+04  1.63309E+03  1.36066E+04  7.17438E+03  4.11019E+03  8.60463E+03 -3.19448E+03  9.04497E+03
 -6.54940E+03  2.75010E+03 -8.30716E+03  3.00908E+03  1.52565E+02 -1.29910E+03  2.56127E+03 -1.90470E+03
  4.99207E+03  6.18692E+03  9.97819E+02  1.30921E+04 -6.84518E+03  8.03584E+03 -4.59079E+03  5.56470E+03
 -4.61540E+03 -5.95383E+03 -2.97766E+02 -6.54694E+03  6.47447E+03 -3.90603E+03  1.97862E+03  2.24256E+02
 -1.90058E+03  2.68444E+02 -5.77627E+03  4.04218E+03 -4.44186E+03 -1.45712E+03 -4.91019E+03 -3.07063E+03
 -3.26184E+03 -6.88209E+03  9.86015E+02 -8.16213E+03  4.04929E+03 -1.07645E+04  5.05294E+03  9.65582E+02
  5.00877E+03  6.24365E+03  1.06287E+03  9.70560E+03 -1.02442E+04  7.81298E+03 -4.25948E+03 -1.49081E+03
 -2.66030E+03 -8.50230E+03  1.28352E+03 -5.36909E+03  4.18701E+03 -5.21834E+03  4.90322E+03 -1.55186E+03
  3.04619E+03  6.71344E+02  4.42360E+03  4.86984E+03  5.80994E+02  3.10517E+03 -1.00145E+03 -4.07789E+02
  7.13950E+02 -4.18015E+03  6.96008E+03  3.99881E+03  7.16840E+03  7.90449E+03  8.65829E+03  1.22242E+04
 -4.09868E+03  1.05021E+04 -7.33719E+03  9.28254E+03 -1.11157E+04  4.90226E+03 -4.93089E+03 -2.67732E+03
 -2.36703E+03 -8.74128E+03  5.28555E+02 -1.21519E+04 -1.56711E+03 -4.42915E+03 -2.87296E+03 -1.78098E+03
 -1.23491E+03 -3.53773E+03  7.49882E+03 -4.56193E+03  1.18119E+03 -1.15825E+02  5.42177E+03 -2.59569E+02
 -1.02208E+03  1.58367E+03  5.98910E+03  3.56412E+03 -2.94790E+03  6.83314E+03 -4.56152E+03  2.72626E+03
 -9.38377E+03 -6.69777E+02 -2.73431E+03 -8.09432E+03 -1.96341E+03 -4.73795E+03  6.84911E+03 -4.75838E+03
  2.21264E+03 -4.01059E+02  7.22177E+03  4.56567E+03  9.73561E+03  9.72857E+02  1.80814E+02  1.10169E+04
  6.05240E+02  5.29121E+03 -8.80077E+02  3.51426E+03  1.34998E+02 -3.32009E+03 -3.67890E+03 -2.58263E+02
 -1.92433E+02  1.57154E+03 -3.98376E+03  4.78221E+03 -3.64316E+02  1.92323E+03 -4.41114E+03 -6.89859E+02
 -4.64349E+03 -9.20953E+03 -1.73495E+03 -6.98300E+03  7.31565E+03 -5.44319E+03  1.57667E+03  1.30971E+03
  1.15477E+04  1.82353E+03  5.06787E+02  3.37011E+03 -1.99785E+03  1.22578E+03 -1.29389E+02  1.41362E+03
 -3.05860E+03 -1.10140E+03 -6.64184E+03 -1.90782E+03 -2.18068E+03 -4.78367E+03  9.93466E+02 -5.54956E+03
  1.79262E+03 -4.24549E+03 -1.51249E+03  3.06916E+03  3.58641E+03  1.31348E+03 -5.07181E+02 -1.27758E+03
  5.60317E+03 -1.81794E+03  5.72438E+03 -4.34158E+03  4.05415E+03 -7.26680E+01  3.93011E+03  5.82945E+03
  2.22614E+01  2.63594E+03  3.75276E+03  5.16506E+03 -6.97718E+03  3.30674E+02 -3.01771E+03 -2.02770E+03
  1.16154E+03 -4.95438E+03  5.58761E+03 -4.39444E+03  3.80521E+03 -5.29101E+03  1.23043E+02  1.02139E+03
  2.65689E+03  2.00896E+03 -5.64730E+03 -1.77371E+03 -3.69634E+03  7.00776E+02  1.36557E+03 -3.07550E+03
  6.16336E+03 -2.41559E+03 -1.42408E+03  1.13020E+03  2.93752E+03 -1.81812E+02  3.48563E+03  1.17806E+03
  3.29554E+03 -5.38146E+02  1.77188E+03  9.65644E+02  5.47917E+02 -1.21733E+03  2.84184E+03  7.87075E+02
 -4.29971E+03 -1.54937E+02  2.52868E+03  1.96411E+03  1.72298E+03 -9.81469E+01 -2.84646E+03 -7.60178E+02
 -4.72503E+02  4.70367E+02 -1.93993E+03  4.45820E+02  3.48838E+03 -5.63081E+02  1.78998E+03  9.27519E+02
  1.84451E+03 -1.62988E+03  4.85074E+03 -8.11942E+02 -4.24969E+03  3.23824E+03 -2.09671E+03  2.52838E+03
 -3.08553E+03 -2.20760E+03 -1.47875E+03  2.66911E+02 -4.07867E+02 -1.54283E+03 -3.02265E+02  5.00974E+02
 -7.23871E+02 -4.01988E+03 -7.00098E+01 -4.12544E+02  1.67558E+03  2.82858E+03  3.50879E+03 -2.89094E+02
  4.48215E+02 -1.24383E+03  2.08630E+03  1.69538E+03  1.06755E+03  4.56656E+03  5.19607E+01 -5.01592E+03
  6.35540E+02 -2.61777E+02  8.30510E+03  2.75416E+03 -7.76665E+02  2.20887E+03 -1.41260E+03  4.32080E+03
 -1.02956E+03  1.84137E+03 -5.75876E+03  1.81780E+03  2.82760E+03  4.11143E+03 -1.56427E+03 -2.00718E+03
  4.73322E+03 -1.11511E+03  2.10888E+03 -5.00019E+02 -5.47937E+03  7.28453E+02  3.89407E+03 -2.24935E+03
  1.31424E+03  2.78918E+03 -3.19868E+03 -9.76260E+02 -2.62398E+03  4.52514E+03 -2.57117E+03  4.36491E+03
 -4.68150E+03  7.88743E+02 -4.26441E+03 -2.08381E+03 -4.66725E+03 -1.00342E+03  1.70746E+03 -7.38892E+02
 -2.57463E+03  2.12248E+03  5.41227E+03  1.85748E+02 -8.52014E+02 -1.61525E+03  1.36320E+03 -4.80610E+03
  1.63883E+02  6.25838E+02  3.26152E+03  6.36719E+03 -1.92121E+03 -2.80432E+03  2.11802E+03  3.66862E+03
 -8.89441E+02 -8.30106E+02  1.49424E+03  2.02409E+03  1.60298E+03 -3.46967E+03 -4.40883E+02 -2.63982E+03
 -9.71081E+02 -8.03933E+02  1.62205E+03  2.07418E+02 -4.46390E+03 -1.26161E+03  6.89550E+02 -3.59038E+03
 -6.46814E+02  5.35649E+02  5.74875E+02  4.57522E+02  1.10526E+03  1.99159E+03 -1.59370E+03  4.28346E+03
  1.63539E+02  2.50876E+03 -1.65913E+03 -3.44062E+03 -2.20581E+03 -2.40042E+03 -2.18865E+03 -2.62331E+03
  5.69459E+02 -1.42689E+03  4.16192E+02 -7.92384E+03  1.36700E+01  1.71323E+03 -2.07342E+03 -7.67675E+02
  1.80305E+03 -1.18148E+03  2.39735E+03  4.48693E+03 -4.04629E+02  9.27351E+02 -4.95397E+03 -9.56374E+02
  2.11444E+03 -5.44294E+03  3.03275E+02 -2.49764E+03 -4.18590E+03 -2.47194E+03  3.03026E+03 -3.69775E+02
 -3.37434E+02  4.02764E+01  1.53913E+03  2.40443E+03  3.76758E+02  3.46923E+03  3.88034E+02 -2.81651E+03
 -2.44150E+03 -1.43849E+03 -1.39776E+02  3.30190E+03  4.09853E+03 -1.51019E+03 -1.33679E+03  4.16544E+03
 -1.60426E+03  3.16895E+03  8.32339E+02 -3.40701E+03  1.59609E+03 -1.25999E+03 -1.80939E+02  1.32953E+03
 -2.68678E+03  2.93599E+03 -8.16237E+03  1.32195E+03 -1.31347E+03 -6.18583E+02 -1.61640E+02  5.04882E+02
  1.20056E+03 -3.54676E+03  4.30658E+03  4.19352E+03  2.32870E+03 -6.96962E+03  3.99380E+03 -4.42021E+03
  2.34584E+03  9.32178E+02  3.78170E+03 -5.24494E+03  2.05012E+03 -1.73196E+03  1.40457E+03  3.34662E+03
