 $NMID ID='MM_0lb_SNR50_10hz_g60_18.RAW', FMTDAT='(8E13.5)'
 TRAMP=1., VOLUME=1. $END
  3.09050E+05  4.74936E+03  3.33066E+05  2.50484E+05  8.42161E+04  3.40948E+05 -1.35654E+05  2.54961E+05
 -1.95129E+05  8.13211E+04 -1.07054E+05 -3.59467E+04  4.22201E+03 -5.27751E+04  5.80410E+04  2.42050E+03
  3.17462E+04  5.58374E+04 -1.03152E+04  8.21970E+04 -5.50237E+04  5.98868E+04 -8.90875E+04  3.70766E+04
 -8.11203E+04 -1.20789E+04 -5.81821E+04 -5.39750E+04 -9.78472E+03 -7.38944E+04  3.38165E+04 -4.88061E+04
  4.03971E+04  5.81108E+03  2.07715E+04  5.55484E+04 -4.11580E+04  5.22592E+04 -6.66446E+04 -5.45905E+03
 -6.11960E+04 -5.14952E+04 -1.18632E+04 -8.07160E+04  3.30088E+04 -5.82597E+04  5.11657E+04 -2.47771E+04
  4.69853E+04  1.38050E+04  3.38472E+04  2.86749E+04  9.49757E+03  2.92645E+04  5.76915E+03  2.43698E+04
 -1.99244E+04  2.05624E+04 -1.71614E+04 -6.42003E+03  4.77125E+03 -1.60884E+04  1.86344E+04  1.41353E+04
  8.39131E+03  3.60541E+04 -2.73919E+04  3.55339E+04 -7.00551E+04  4.32121E+03 -6.26263E+04 -4.58661E+04
 -1.29239E+04 -6.36106E+04  4.51621E+04 -4.61054E+04  5.93968E+04 -2.81516E+03  3.91498E+04  3.74509E+04
 -5.16719E+03  3.32687E+04 -3.53276E+04  2.03150E+04 -2.56179E+04 -2.21778E+02 -2.00787E+04 -7.34232E+03
 -1.21981E+04 -2.17828E+04 -6.71997E+03 -2.52861E+04  5.58311E+03 -1.89341E+04  1.35378E+04 -1.57063E+04
  9.98411E+03  3.92935E+03 -8.97906E+03  1.20734E+04 -2.44777E+04 -3.01067E+03 -7.64066E+03 -3.28605E+04
  2.35715E+04 -4.07314E+04  5.32938E+04 -3.12789E+04  5.25070E+04  2.27336E+04  1.69413E+04  4.47299E+04
 -2.99415E+04  3.39670E+04 -2.53334E+04  6.32913E+03 -1.57697E+04 -3.48824E+04  2.31128E+04 -3.21216E+04
  3.95232E+04 -1.79049E+04  4.22440E+04  2.34211E+04  2.05345E+04  5.10981E+04 -1.23350E+04  5.10202E+04
 -3.29873E+04  4.05843E+04 -4.71136E+04  1.42767E+04 -5.35645E+04 -1.77048E+04 -2.90404E+04 -4.22537E+04
  6.84579E+03 -4.03606E+04  3.34769E+04 -1.13794E+04  2.97426E+04  8.58279E+03  5.37293E+03  2.11579E+04
 -1.28107E+04  2.69938E+03 -1.17959E+04 -1.21447E+03  8.39839E+03 -9.68196E+03  1.76587E+04  1.06684E+04
  1.70771E+04  2.03615E+04 -1.09308E+04  2.92126E+04 -2.54156E+04  1.86961E+04 -3.05202E+04 -9.26927E+03
 -2.39435E+04 -1.78912E+04 -1.15565E+04 -2.07488E+04  3.47665E+03 -2.61544E+04  2.47276E+04 -2.16462E+04
  3.36910E+04 -7.91878E+03  3.89181E+04  5.27799E+03  2.67513E+04  2.42085E+04  7.65955E+03  4.03857E+04
 -1.37498E+04  3.00894E+04 -3.04633E+04  1.93899E+04 -2.69857E+04 -1.26289E+04 -4.00881E+03 -1.71094E+04
  3.53107E+03 -3.86855E+03 -6.69868E+03  7.04149E+03 -2.66593E+04  1.87229E+03 -1.44717E+04 -9.90535E+03
 -6.45132E+03 -1.56789E+04  8.85890E+03 -2.13028E+04  2.37308E+04 -1.68775E+04  1.77643E+04 -5.47087E+03
  8.41208E+03  1.40931E+04  3.49892E+03  2.74138E+04 -2.31870E+04  2.09472E+04 -2.63110E+04 -3.77553E+03
 -2.40344E+04 -2.19643E+04  1.52205E+03 -3.02010E+04  1.07447E+04 -2.59096E+04  2.15919E+04 -1.62767E+04
  2.48853E+04 -5.46614E+03  1.28975E+04  9.43586E+03  7.30840E+03 -1.29060E+03  1.20852E+04 -5.39869E+02
  2.49359E+04  5.05332E+03  2.13636E+04  1.82732E+04  1.85659E+04  3.68217E+04 -3.80766E+03  5.10217E+04
 -2.53765E+04  3.67370E+04 -4.13750E+04  1.96960E+04 -3.91035E+04 -2.61847E+03 -3.54427E+04 -2.47501E+04
 -1.51145E+04 -3.77316E+04  1.57395E+04 -3.05454E+04  2.45304E+04 -1.42729E+04  3.07814E+04  8.36124E+03
  6.34769E+03  1.89043E+04 -1.00492E+04  1.39302E+04 -1.80580E+04  3.99325E+03 -1.92017E+04 -1.60291E+04
 -4.16385E+03 -1.43890E+04  9.60676E+03 -1.66319E+04  8.27759E+03 -7.34079E+03  6.65966E+03  1.13703E+04
 -1.68920E+03  5.70043E+03 -5.21003E+03 -1.08133E+04 -2.29774E+03 -1.96978E+04  4.86357E+03 -1.44527E+04
  2.67389E+04 -1.38809E+04  2.03085E+04  6.26503E+03  2.12406E+04  2.23766E+04  1.11598E+04  3.05221E+04
 -1.05853E+04  3.30831E+04 -2.16704E+04  1.34324E+04 -2.70642E+04  5.94101E+03 -1.55199E+04 -8.36693E+03
 -7.95208E+03 -5.84560E+03 -2.55228E+03  1.93332E+03  1.80350E+03  4.27911E+03 -9.73069E+03  6.42240E+03
 -1.76201E+04 -1.26516E+03 -1.38413E+04 -1.42681E+04 -8.92662E+02 -2.36268E+04  1.04139E+04 -2.52266E+04
  1.67767E+04 -2.69220E+03  1.04770E+04  8.39848E+03  3.34461E+03  5.13349E+03 -6.57965E+03 -4.69391E+03
 -1.04782E+04 -9.75954E+03 -1.89690E+03 -1.28624E+04  7.54977E+03 -1.68762E+04  2.17024E+04 -9.16485E+03
  2.32807E+04  4.77752E+03  1.59116E+04  1.32474E+04 -1.55760E+03  2.01626E+04 -7.37186E+03  1.94890E+04
 -1.95441E+04 -2.29561E+02 -5.00367E+03 -3.72045E+03  2.78113E+03 -6.05553E+03  9.90307E+03 -2.35520E+03
  7.65476E+03  9.52372E+03 -2.79435E+03  1.28557E+04 -9.18876E+03  1.00617E+04 -6.76028E+03  7.93779E+02
 -1.45432E+04 -8.07396E+03  1.03179E+03 -9.81949E+03  1.00858E+04 -6.72586E+03  9.07839E+03  6.75850E+03
  1.00116E+03  1.27799E+04 -1.44635E+04  6.23806E+03 -1.42266E+04  5.70730E+03 -1.74736E+04 -5.69756E+02
 -1.10644E+04 -1.32432E+04  1.20251E+03 -1.66373E+04  1.25952E+04 -1.35222E+04  1.31671E+04  5.36939E+03
  9.64272E+03  1.04104E+04  2.81344E+03  1.82540E+04 -1.36456E+04  4.96546E+03 -1.60703E+04  2.30143E+03
 -1.28500E+04 -1.14030E+04 -6.93788E+02 -1.20288E+04  9.76757E+03 -6.65000E+03  6.58793E+03  7.49061E+02
  7.06373E+03  1.02841E+03 -2.64397E+03  3.62162E+03 -3.66738E+03 -2.26465E+02  6.34711E+03 -8.06412E+03
  1.11944E+04 -6.81431E+03  1.39735E+04  4.69552E+03  2.14680E+04  8.70377E+03  1.04278E+04  2.27166E+04
 -7.34550E+03  2.77906E+04 -1.99244E+04  1.42388E+04 -2.81672E+04  2.78009E+03 -2.01875E+04 -1.21637E+04
 -7.90747E+03 -1.69471E+04 -1.62359E+03 -1.58377E+04  2.60412E+03 -8.17525E+03  8.12748E+03 -1.43666E+03
  2.04720E+03 -3.40915E+03  3.00074E+03 -6.70077E+03  3.31561E+03 -7.06801E+03  7.14501E+03 -2.63309E+02
  1.42770E+04  5.87144E+03  5.28983E+03  6.55630E+03 -7.03864E+03  7.71918E+03 -1.13228E+04  3.02262E+03
 -1.58956E+04 -1.95955E+02 -5.89612E+03 -1.17549E+04 -7.14689E+03 -1.51521E+04  5.19081E+03 -1.87898E+04
  1.10291E+04 -1.16445E+04  1.69136E+04  1.58977E+03  9.17448E+03  8.78365E+03  2.70263E+03  1.89337E+04
 -7.45852E+03  1.32603E+04 -4.52468E+03  8.58673E+03  4.87140E+02 -5.64300E+03  4.65522E+02 -6.47148E+03
  5.69343E+03 -1.59016E+03 -4.42944E+03 -2.64404E+03 -7.83324E+03  1.56806E+03 -9.98625E+03 -2.10664E+03
 -1.02466E+04 -1.14155E+04 -1.76469E+03 -1.68315E+04  3.97380E+03 -1.48624E+04  1.47388E+04 -4.71407E+02
  1.23240E+04 -8.71197E+02  3.64795E+03  1.29756E+04 -2.84328E+03  1.79323E+04 -1.04809E+04  9.59149E+03
 -1.04377E+04  2.11297E+03 -8.50641E+03 -1.20624E+04 -4.52181E+03 -9.61569E+03  3.32830E+03 -9.39093E+03
  5.75846E+03  1.76987E+03  1.24409E+04  6.88975E+03  2.73761E+03  5.63738E+03  2.51664E+03  2.82223E+03
  5.34855E+03  1.53574E+03  5.36752E+03  2.11274E+03 -9.33228E+02  5.08041E+02  3.43595E+03  8.82927E+03
 -4.27444E+03  6.76585E+03 -7.17964E+03  1.38396E+04 -1.85988E+04  2.95205E+03 -8.36417E+03 -4.77890E+03
 -7.65819E+03 -1.81942E+04  6.78020E+01 -1.72614E+04  8.31080E+03 -5.66520E+03  1.30587E+04 -3.53315E+03
  9.83208E+03  8.54902E+03  6.45007E+03  8.33652E+03 -4.38288E+03  1.39899E+03  2.00556E+03 -3.00485E+02
 -2.24937E+03 -6.58039E+03  5.09428E+03  8.66072E+02  6.13103E+03  6.64525E+02  2.66130E+03  2.34862E+03
  2.06593E+03  3.09398E+03  4.25983E+03 -2.89373E+03 -1.83853E+03 -5.21606E+03  1.09735E+03  3.57731E+03
 -3.63369E+03  2.16073E+03  4.50046E+03 -2.44166E+02  1.16129E+03  8.31926E+03 -4.47567E+02  1.16359E+04
 -3.61407E+03  6.38287E+02 -8.06069E+03  9.82723E+02 -8.23187E+03 -3.27596E+03  6.08769E+02 -6.15729E+03
  1.02563E+03 -1.01873E+04 -7.50546E+02 -4.36097E+03  6.57474E+03  3.92273E+03 -3.34331E+03  6.28830E+03
 -5.27321E+03 -6.55782E+02 -1.10014E+03 -6.78536E+03 -3.94713E+03 -3.22844E+03  2.07261E+03 -1.04636E+04
 -3.00227E+03 -2.89948E+03  8.58981E+02  3.83847E+03  2.80934E+03 -4.87931E+03  3.11188E+03  7.73160E+03
 -3.14892E+03  2.73431E+03 -3.99002E+03 -1.08072E+04 -3.83233E+03 -9.89648E+03  1.16747E+04 -2.96634E+03
  7.81075E+03  6.55238E+02  5.88201E+03  7.61598E+03  7.79232E+03  8.92092E+03 -3.85173E+03  1.29081E+04
 -9.43685E+03  3.38529E+03 -8.21905E+03 -3.40873E+03 -3.44027E+03 -6.31790E+03 -1.11396E+03 -8.76935E+03
  8.62934E+02  7.10569E+03  2.92359E+03 -1.60062E+03  6.59282E+02  2.66942E+03 -1.77444E+03  9.06935E+03
 -6.15906E+03  4.94804E+03 -1.55471E+03 -1.65758E+03  6.92037E+02 -6.21030E+03  2.23579E+03 -4.66458E+03
 -7.37974E+03  6.41440E+03 -8.57558E+03  6.25706E+03 -5.52387E+03  1.12327E+03 -1.34483E+04 -2.13437E+03
 -4.75971E+03 -1.10139E+04 -1.79760E+03 -1.89575E+04  8.94991E+03 -1.08682E+04  8.28281E+03 -7.81932E+03
  1.33850E+04  1.19692E+03  2.75271E+02  8.53222E+03  2.45021E+02  7.81136E+03 -1.31253E+03  4.35794E+03
 -7.80251E+03 -1.95114E+03 -4.03639E+03 -2.70345E+03 -4.30839E+03 -3.18494E+03 -4.31586E+03  3.62660E+03
  9.45179E+02 -7.07876E+02  5.58015E+02 -3.46102E+03 -5.35264E+03 -4.82076E+03 -1.47886E+03 -7.06022E+03
  6.27027E+03 -4.91617E+03  6.17324E+03  2.17224E+03  2.76156E+03  3.89773E+03  1.14595E+03  6.22554E+03
  3.09574E+03  6.88696E+03 -6.39138E+03 -9.74017E+02 -1.04471E+04  5.92857E+03 -1.13389E+04 -1.22253E+04
 -2.79459E+03 -1.31575E+04  5.79439E+02 -1.68959E+04  9.71600E+03  1.30555E+03  3.27741E+03 -6.93750E+03
  1.93782E+03  8.03167E+03 -9.52831E+02 -3.29019E+03 -5.60325E+03 -2.39331E+03  8.03250E+02 -5.19197E+02
 -7.40067E+03 -2.23801E+03  1.00948E+04 -6.44033E+02  2.81615E+03  6.61921E+03 -3.14053E+03  7.54263E+03
 -5.22785E+03  5.41028E+03 -1.08393E+04  2.81122E+03 -6.09245E+02 -9.89077E+03  4.63648E+02 -3.90792E+03
  2.48933E+03 -4.28166E+03 -1.00308E+02 -9.45555E+02  4.73909E+03  1.23900E+03  6.66840E+03  6.28716E+03
 -4.04086E+03  8.82229E+03 -9.07529E+03  2.91331E+03 -8.92587E+02  1.10538E+03 -6.17878E+03  6.92122E+03
  6.81488E+02  5.29467E+02  6.27955E+02  1.95464E+03 -8.91165E+01 -1.48293E+03 -4.89863E+03 -2.41562E+03
 -1.33472E+03 -7.83484E+03  3.19955E+03 -1.27201E+04  1.58941E+03 -5.52862E+03  7.80116E+03 -2.85301E+03
  9.65331E+03  4.58893E+03  2.73849E+03  1.39921E+03  2.80430E+03  8.49491E+03 -8.98026E+03  3.95785E+03
