 $NMID ID='MM_0lb_SNR50_13hz_g45_75.RAW', FMTDAT='(8E13.5)'
 TRAMP=1., VOLUME=1. $END
  3.14340E+05 -3.63791E+03  3.44025E+05  2.47318E+05  8.16442E+04  3.38227E+05 -1.32099E+05  2.53064E+05
 -1.89572E+05  8.37251E+04 -1.10431E+05 -2.93118E+04  2.06618E+03 -4.74791E+04  5.67803E+04  2.08325E+03
  2.80567E+04  4.91521E+04 -1.45167E+04  7.76470E+04 -5.97675E+04  6.43693E+04 -8.40312E+04  3.43641E+04
 -7.81987E+04 -7.19982E+03 -5.24421E+04 -5.51380E+04 -8.74542E+03 -6.77528E+04  2.52126E+04 -4.89578E+04
  3.94168E+04  6.84508E+03  1.46144E+04  4.40690E+04 -3.38943E+04  4.98300E+04 -6.43217E+04  4.75522E+03
 -5.14748E+04 -5.78864E+04 -4.79532E+03 -7.61532E+04  3.69314E+04 -5.40507E+04  4.58094E+04 -1.46764E+04
  4.13526E+04  8.44374E+03  3.46594E+04  2.66449E+04  1.41533E+04  3.21922E+04 -7.58382E+03  2.88136E+04
 -2.46239E+04  1.23753E+04 -2.02864E+04 -8.56451E+03  6.20304E+03 -1.12818E+04  2.33765E+04  1.41692E+04
  7.18237E+03  3.36972E+04 -2.96043E+04  3.62269E+04 -6.08222E+04  1.34543E+03 -6.15748E+04 -4.30564E+04
 -1.40260E+04 -6.02979E+04  4.04572E+04 -4.47216E+04  5.99908E+04 -6.85012E+03  3.47830E+04  3.27796E+04
 -5.28877E+03  3.50714E+04 -2.87485E+04  1.57222E+04 -3.31107E+04 -6.12945E+03 -1.89607E+04 -1.18257E+04
 -1.44497E+04 -6.13110E+03  1.60409E+03 -1.88676E+04  8.60856E+03 -2.61701E+04  1.54327E+04 -8.06355E+03
  1.38675E+04  7.44643E+03 -1.60166E+04  1.26681E+04 -2.31263E+04 -3.86627E+03 -1.18052E+04 -3.26859E+04
  2.13847E+04 -4.34593E+04  4.54383E+04 -2.07227E+04  4.58704E+04  1.92030E+04  8.87156E+03  4.02418E+04
 -1.48881E+04  3.26922E+04 -2.30007E+04 -2.03689E+03 -7.25925E+03 -2.75545E+04  2.29788E+04 -3.93293E+04
  3.95904E+04 -1.03050E+04  3.61394E+04  2.35154E+04  1.67213E+04  4.73876E+04 -6.32276E+03  4.88695E+04
 -3.52400E+04  3.35997E+04 -4.36166E+04  4.23807E+03 -4.46661E+04 -1.38626E+04 -2.28138E+04 -3.60353E+04
  5.29582E+03 -4.03324E+04  3.30435E+04 -1.31351E+04  3.02248E+04  1.05291E+04  1.01883E+03  1.77283E+04
 -1.16330E+04  1.02460E+04 -7.94286E+03 -8.27213E+03  6.23892E+03 -1.07338E+04  2.15701E+04  5.04206E+03
  1.53797E+04  2.54308E+04 -5.32396E+03  2.25702E+04 -2.13853E+04  9.07195E+03 -2.76613E+04 -7.47281E+02
 -1.83911E+04 -1.68718E+04 -9.65186E+03 -1.78130E+04  1.63348E+03 -2.17010E+04  1.28718E+04 -1.80379E+04
  2.67324E+04 -1.58126E+04  3.73090E+04  5.55046E+03  2.31182E+04  2.00035E+04  4.23600E+03  3.91477E+04
 -1.48964E+04  3.03752E+04 -3.07761E+04  1.13294E+04 -1.77985E+04 -6.79157E+03 -5.50382E+03 -1.24813E+04
  1.82618E+03 -4.85759E+03 -4.27874E+03  8.97258E+03 -1.96591E+04  3.47170E+03 -1.99490E+04 -8.20789E+03
 -1.10032E+04 -1.71149E+04  2.16359E+03 -3.39633E+04  1.88926E+04 -1.77093E+04  2.17038E+04  1.48713E+03
  1.10416E+04  1.26800E+04 -3.20415E+03  1.63113E+04 -1.11737E+04  1.00478E+04 -1.67677E+04 -5.63641E+03
 -1.46386E+04 -2.07512E+04 -6.58991E+03 -2.41788E+04  8.13486E+03 -1.99685E+04  2.45920E+04 -1.05036E+04
  2.01117E+04  1.60269E+03  1.43410E+04  3.66686E+03  9.94104E+03  4.61626E+03  4.30809E+03 -7.95074E+03
  1.70041E+04  2.36545E+03  1.91600E+04  1.02248E+04  1.31736E+04  2.69409E+04  2.00013E+03  3.61621E+04
 -1.74838E+04  2.87891E+04 -2.78125E+04  1.53382E+04 -3.10268E+04 -1.36499E+03 -3.00327E+04 -1.94669E+04
 -1.43055E+04 -2.86036E+04  9.83716E+03 -2.51212E+04  2.24307E+04 -1.49741E+04  2.31962E+04  7.58662E+03
  2.24717E+03  1.10538E+04 -7.88992E+03  1.23836E+04 -1.30843E+04  2.46358E+03 -1.46377E+04 -9.22206E+03
  2.18219E+03 -1.50536E+04  7.20329E+03 -1.24508E+04  1.29933E+04 -1.19305E+03  3.89487E+03  2.65754E+03
 -8.10998E+03 -1.34968E+03 -5.57853E+03 -9.47111E+03  2.32129E+03 -1.63321E+04  8.23808E+03 -1.67114E+04
  1.72500E+04 -9.33100E+03  2.00910E+04  3.97209E+03  1.65291E+04  1.19583E+04  7.50784E+03  2.29082E+04
 -7.22378E+02  2.43848E+04 -1.39850E+04  1.49359E+04 -1.44820E+04 -2.31923E+03 -1.47795E+04 -3.05306E+03
 -7.79515E+03 -6.13260E+03 -1.99176E+03 -1.65808E+02 -5.63573E+03 -2.43069E+02 -5.37120E+03 -1.53558E+03
 -9.93966E+03 -2.06847E+02 -1.01508E+04 -1.14387E+04 -7.79531E+03 -1.75491E+04  5.01473E+03 -1.11216E+04
  1.58737E+04 -3.39050E+03  3.00305E+03  4.43201E+03  2.27162E+03  3.43130E+03 -3.97352E+02  2.77890E+02
 -5.11350E+03 -5.05178E+03 -3.14357E+03 -1.27828E+04  6.29146E+03 -9.23518E+03  1.54362E+04 -3.44623E+03
  1.53840E+04 -1.88309E+02  1.31172E+04  9.19120E+03  6.62248E+02  1.07984E+04 -6.79705E+03  1.05051E+04
 -1.07499E+04  7.70376E+03 -3.49608E+03 -2.19802E+03  3.05406E+03 -6.28955E+02  4.96931E+03 -3.42120E+03
  4.20373E+03  2.28223E+03  2.42610E+02  1.02919E+04 -6.67349E+03  9.69266E+03 -1.07137E+04  2.31795E+03
 -8.82803E+03 -3.45755E+03  3.35864E+03 -1.15379E+04  7.70196E+03 -1.02865E+04  3.68234E+03  4.36944E+03
  6.26852E+03  7.07237E+03 -5.86650E+03  5.46880E+03 -1.08773E+04  5.42655E+03 -8.01149E+03 -4.40796E+03
 -6.34930E+03 -1.17330E+04  4.63981E+03 -1.12941E+04  5.06776E+03 -8.40083E+03  1.29591E+04  1.74627E+03
  7.05758E+03  5.74630E+03 -2.73942E+03  1.14004E+04 -1.59333E+04  5.23705E+03 -5.85507E+03 -7.93040E+03
 -3.02467E+03 -1.33957E+04  7.16768E+02 -7.90122E+03  4.33267E+02 -5.79052E+03  2.98751E+03 -9.04460E+02
  1.30549E+03  2.78700E+03 -2.83125E+03  2.16860E+03 -4.57208E+03 -1.76953E+03  2.66611E+03 -1.15784E+03
  3.43340E+03 -4.01587E+03  7.83951E+03 -2.89026E+03  1.51632E+04  6.83466E+03  1.21427E+04  9.65009E+03
 -8.72993E+02  1.84613E+04 -7.70280E+03  1.33748E+04 -1.64676E+04  1.04481E+03 -1.64011E+04 -2.49182E+03
 -1.11075E+04 -1.19774E+04 -3.88276E+03 -7.42674E+03  4.69650E+03 -6.20403E+03  1.45961E+03 -8.71387E+01
  1.24727E+03 -5.65203E+03 -1.73440E+03 -2.22812E+03  3.93834E+03 -1.81671E+03  2.70400E+03 -3.23199E+03
  3.63382E+03  1.86439E+02  6.01446E+02  5.47701E+03  2.35192E+03  2.50853E+03 -6.48786E+03  4.44759E+03
 -9.26709E+03 -5.29683E+03 -3.29337E+03 -1.29126E+03 -5.00744E+03 -7.70974E+03  5.25389E+03 -1.00214E+04
  1.06479E+04 -4.16793E+03  1.57479E+04  4.86736E+03  1.00649E+04  1.05688E+04  1.29862E+03  6.51884E+03
 -8.52793E+03  5.66026E+03 -5.46278E+03 -7.02569E+02 -4.47465E+03 -1.16960E+03 -9.51624E+02 -4.43158E+02
  5.53443E+03  1.23071E+03  1.32047E+03  4.18257E+03 -4.61900E+02  5.45223E+03 -6.71957E+03 -1.80551E+03
 -5.76461E+03 -8.36165E+03  1.32579E+03 -5.84149E+03  3.23001E+03 -6.95667E+03  9.62740E+03 -5.21318E+03
  1.11944E+04  1.25962E+03  1.25480E+03  1.07099E+04  6.48193E+02  8.62364E+03 -9.37894E+03  4.76673E+03
 -8.05062E+03 -8.20739E+01 -7.11429E+03 -9.58855E+03  2.71242E+03 -6.37640E+03  1.55720E+03 -2.79425E+03
  9.40189E+03 -3.01662E+03  4.13953E+03  5.65407E+02  9.89244E+02  4.24348E+03  3.32387E+03  3.72563E+03
  4.14665E+03 -2.02481E+03  7.30274E+03  6.51360E+01  8.18590E+02  2.29377E+03 -2.45764E+02  1.12619E+04
  6.38738E+02  5.27795E+03 -4.95452E+03  5.91877E+03 -1.33612E+04 -1.55078E+03 -9.74914E+03 -3.60443E+03
  1.33424E+03 -5.33310E+03  2.35610E+03 -6.97011E+03  8.38098E+03 -7.65137E+03  1.12018E+04  1.60429E+03
  7.98368E+03  5.35263E+02  2.79866E+03  7.39507E+03 -2.64816E+03  6.67126E+03 -3.31695E+03 -3.29712E+03
  8.86873E+02 -2.77126E+03  9.75157E+02 -1.66014E+03  4.13843E+03 -3.10671E+03  2.16122E+03 -2.20704E+03
  4.11231E+03 -1.79604E+03  2.55988E+03  6.16154E+03 -1.43949E+02  1.94220E+03  4.66245E+03  4.65317E+03
  9.02501E+03  4.02124E+03  4.72952E+02  5.61335E+03 -1.37648E+03  5.24396E+03 -2.47685E+03  5.62885E+03
 -5.38886E+02 -2.10916E+03 -3.72797E+03  4.63138E+02 -6.72294E+03  8.94985E+02 -2.28563E+03 -1.93901E+03
 -2.08201E+03 -3.88862E+03 -2.12403E+03  5.32382E+03  3.11355E+03 -2.31573E+03  6.46597E+02 -1.80425E+03
 -3.96254E+03  3.41757E+02 -3.15733E+03 -1.32098E+03  1.26702E+03 -4.93250E+03  1.56817E+02 -6.33993E+03
  3.71073E+03 -1.12164E+03  5.38970E+03  2.73080E+02  3.53447E+03  1.75175E+03 -8.60308E+01  5.15557E+03
 -2.07746E+03 -2.34516E+03 -3.82578E+03 -3.02926E+03 -7.08432E+02 -9.00405E+03  2.75182E+02 -1.85866E+03
  4.62371E+03 -5.04838E+01  3.52254E+03  2.47314E+03  1.63895E+03  7.07957E+03  1.00812E+03  7.66556E+03
 -2.89690E+03  6.48551E+02 -8.40117E+03 -2.73799E+03 -2.05420E+03 -4.68841E+02 -4.75490E+02 -4.50177E+03
  9.43949E+02 -5.65038E+02  3.35723E+03 -1.79380E+03  1.32017E+03  5.52709E+01  9.98333E+02 -1.32199E+02
 -3.81022E+03  3.88720E+03 -1.80297E+03  1.34974E+03 -6.78999E+02  5.70347E+03  2.48372E+03 -5.06783E+03
 -2.93499E+03  4.10425E+03 -4.12353E+03  2.49625E+03 -8.70260E+03  1.95046E+03 -1.07476E+04 -3.85513E+03
  1.56727E+03 -1.20534E+04 -4.81212E+02 -4.70823E+03  3.45243E+03  2.76888E+03  9.55551E+03 -3.84369E+03
 -4.55257E+02  2.31877E+03  4.68243E+03  8.64506E+03 -2.20223E+03  5.32022E+03 -6.84190E+03  2.93901E+03
 -4.09585E+03 -2.17576E+03 -3.95733E+03 -4.62117E+03  1.16943E+01 -6.65254E+03 -2.15390E+03 -3.81000E+03
 -5.93880E+03 -2.42969E+03 -1.42390E+02  6.64165E+03 -1.90747E+03 -7.94699E+02  5.17208E+01  1.89735E+03
  1.43379E+03 -5.52125E+03  1.58943E+03 -4.60224E+03  1.94131E+03  2.10060E+03 -2.64397E+03  3.45836E+03
  7.29212E+01  6.36561E+03 -1.03529E+04  1.86624E+03 -5.90088E+03  3.64676E+03  1.48012E+03 -6.69711E+03
 -4.12606E+03 -4.35868E+03  3.58404E+02 -5.40619E+03  3.58622E+03 -7.10086E+03  2.62760E+03 -3.54140E+03
  3.08850E+03  7.54893E+02  1.79172E+03 -3.78973E+03 -3.53247E+03 -5.56170E+03 -2.32383E+03 -2.45275E+03
  2.10524E+03 -2.42129E+03 -9.59044E+01  1.24845E+03  3.54219E+03  7.45945E+03  1.73688E+03  1.48652E+03
  1.32351E+03  3.64340E+03 -2.56576E+03 -3.01923E+03 -3.08666E+03 -6.20672E+02 -3.60601E+03 -3.07162E+03
  2.37792E+03 -5.06152E+03  9.66079E+03 -2.00667E+03 -1.92708E+03  7.05797E+02  2.40499E+03  1.66373E+03
  2.18729E+02  2.90794E+03  2.23697E+03  8.39339E+02  1.07672E+03 -1.90146E+03 -4.03156E+02  7.32563E+02
 -1.75834E+03 -2.40134E+03 -3.69093E+02  3.21259E+03 -4.96571E+03  3.86510E+02 -1.36520E+03 -1.52606E+03
 -8.07188E+02 -2.11223E+02  2.48724E+03 -7.20375E+03  7.25222E+02 -5.00457E+03  3.33197E+03 -8.97107E+03
  1.08628E+03  2.61876E+03  6.55369E+03  3.19951E+03  9.89635E+02  3.42712E+03 -4.81776E+02 -1.76265E+03
