 $NMID ID='MM_0lb_SNR50_8hz_g60_79.RAW', FMTDAT='(8E13.5)'
 TRAMP=1., VOLUME=1. $END
  3.06069E+05  3.38216E+03  3.34964E+05  2.47127E+05  8.91636E+04  3.44329E+05 -1.33068E+05  2.54090E+05
 -1.91409E+05  8.50633E+04 -1.12321E+05 -3.03689E+04 -5.94175E+02 -4.94533E+04  5.53355E+04 -2.89092E+03
  3.81241E+04  5.52443E+04 -1.41827E+04  7.75945E+04 -6.01065E+04  6.54634E+04 -9.23918E+04  2.69297E+04
 -8.22367E+04 -1.13673E+04 -6.13112E+04 -5.35461E+04 -1.86597E+04 -6.43894E+04  2.74085E+04 -4.67395E+04
  4.14779E+04 -4.03630E+02  1.39546E+04  5.06869E+04 -3.93409E+04  5.67506E+04 -6.64995E+04 -6.57451E+03
 -5.23326E+04 -5.44065E+04 -9.15354E+03 -7.88340E+04  3.77924E+04 -5.96718E+04  5.31371E+04 -1.46072E+04
  4.59354E+04  1.68077E+04  3.83631E+04  3.12009E+04  1.45607E+04  3.12765E+04 -5.37588E+03  3.15030E+04
 -1.56236E+04  1.53801E+04 -1.87292E+04 -7.98982E+03  8.81980E+03 -9.77680E+03  1.68672E+04  1.55688E+04
  7.25700E+03  3.88797E+04 -3.35881E+04  3.74022E+04 -6.59460E+04 -1.10847E+02 -6.30815E+04 -4.16868E+04
 -1.11381E+04 -7.15015E+04  4.96423E+04 -4.96039E+04  6.11351E+04 -6.56110E+03  3.62144E+04  3.53541E+04
 -9.01211E+03  3.74382E+04 -3.50024E+04  1.35192E+04 -3.50616E+04  4.35963E+03 -2.08859E+04 -1.46668E+04
 -7.05029E+03 -1.89575E+04 -5.62803E+03 -1.45369E+04  6.43032E+03 -2.28199E+04  1.40071E+04 -1.26343E+04
  3.39303E+03  8.93392E+03 -1.29455E+04  1.06783E+04 -2.44315E+04 -4.02984E+03 -4.90846E+03 -3.68732E+04
  3.28891E+04 -4.80664E+04  5.05425E+04 -2.01497E+04  5.18281E+04  2.26191E+04  1.45608E+04  4.72928E+04
 -1.50302E+04  3.67578E+04 -2.63074E+04  6.27478E+03 -9.69309E+03 -2.27686E+04  2.20321E+04 -3.77359E+04
  5.34536E+04 -1.52983E+04  4.31744E+04  2.63056E+04  2.53909E+04  5.85834E+04 -8.02826E+03  5.63309E+04
 -3.29417E+04  4.26693E+04 -4.60239E+04  7.70520E+03 -5.30750E+04 -1.30993E+04 -2.87122E+04 -3.93763E+04
  2.57592E+03 -4.34810E+04  3.34035E+04 -1.84994E+04  3.29445E+04  7.40934E+03  4.41227E+03  2.58668E+04
 -1.57096E+04  1.48738E+04 -9.70694E+03 -5.90044E+03  1.22018E+04 -1.54017E+04  2.12365E+04  6.95351E+02
  1.92141E+04  2.22964E+04  3.91352E+02  2.73873E+04 -2.79179E+04  1.63301E+04 -3.43022E+04 -7.05874E+03
 -2.76170E+04 -1.75635E+04 -9.08901E+03 -3.22064E+04 -7.04617E+03 -2.30031E+04  2.10785E+04 -2.56800E+04
  3.66268E+04 -9.12883E+03  4.08707E+04  5.07809E+03  3.28885E+04  2.66060E+04  8.17811E+03  4.09084E+04
 -2.26753E+04  3.17052E+04 -3.26570E+04  1.31934E+04 -2.09039E+04 -6.08752E+03 -1.40890E+03 -7.17157E+03
  3.35634E+03 -2.56094E+03 -7.20662E+03  7.67889E+03 -2.13579E+04  8.18470E+03 -1.88742E+04 -1.70327E+04
 -1.59549E+04 -1.77957E+04  6.06845E+03 -2.95339E+04  1.53621E+04 -2.22463E+04  2.38584E+04  5.83867E+03
  1.11893E+04  1.78506E+04  2.00144E+03  2.51031E+04 -1.60596E+04  2.24341E+04 -2.79041E+04 -6.40357E+03
 -1.31606E+04 -1.64695E+04 -1.11288E+03 -3.16024E+04  1.39927E+04 -2.85602E+04  2.96971E+04 -6.30463E+03
  2.13480E+04  2.12753E+03  1.69464E+04  2.44727E+03  1.26140E+04  8.83618E+03  1.59996E+04 -1.02589E+04
  2.83393E+04 -1.56846E+03  2.50044E+04  2.14581E+04  2.05736E+04  3.95107E+04 -7.24567E+03  4.87882E+04
 -2.73766E+04  4.13534E+04 -4.20259E+04  1.53567E+04 -4.71849E+04  4.52258E+02 -3.22983E+04 -3.91360E+04
 -1.14045E+04 -3.82854E+04  1.32491E+04 -3.74375E+04  2.80729E+04 -2.03701E+04  2.59794E+04  9.30022E+03
  5.66716E+03  1.92003E+04 -1.20204E+04  1.53509E+04 -2.27703E+04  2.15073E+03 -1.13398E+04 -1.42448E+04
  3.59752E+03 -1.54227E+04  1.06534E+04 -1.00934E+04  7.32594E+03 -2.07660E+03  6.72287E+03  5.72682E+03
 -6.13240E+03  7.63543E+03 -5.43932E+03 -2.59424E+03 -5.46172E+03 -2.52839E+04  1.15247E+04 -1.49636E+04
  2.91395E+04 -1.08685E+04  2.36685E+04  6.14749E+03  3.26034E+04  2.21138E+04  1.21539E+04  3.55700E+04
 -2.31493E+03  2.70434E+04 -2.01788E+04  2.38963E+04 -2.95608E+04  2.73441E+02 -2.40844E+04 -6.70577E+03
 -1.89473E+03 -9.08161E+03 -9.25431E+03 -2.46924E+03  2.24422E+03  2.50240E+03 -1.00274E+04  1.10109E+04
 -6.40718E+03 -3.92953E+03 -1.37864E+04 -1.51744E+04 -7.08487E+03 -2.41778E+04  7.72756E+03 -1.12596E+04
  1.04440E+04  4.50166E+02  8.86079E+03  6.38108E+03 -3.86357E+03  1.40887E+04 -6.00172E+03  6.22291E+03
 -4.33262E+03 -4.32467E+03  1.31249E+02 -2.03103E+04  1.92259E+04 -2.02679E+04  1.89244E+04 -1.74398E+04
  2.30127E+04  6.50107E+03  1.86402E+04  1.96326E+04  4.38535E+03  1.97043E+04 -1.28256E+04  2.10565E+04
 -1.82722E+04  8.65899E+03 -1.05519E+04 -1.11714E+04  1.49832E+03 -8.73631E+03  1.27261E+04  1.51854E+03
  6.42298E+03  4.71615E+03  6.97708E+02  1.14442E+04 -6.83961E+03  2.34279E+04 -1.50912E+04  9.21048E+03
 -1.84063E+04 -3.95935E+03 -3.64538E+03 -1.37559E+04  1.22649E+04 -5.00380E+03  1.22393E+04  1.05011E+04
  3.20664E+03  1.45142E+04 -1.08154E+04  1.34415E+04 -2.27515E+04  3.89123E+03 -1.81427E+04  7.32379E+01
 -1.05622E+04 -1.88151E+04 -1.54018E+02 -2.43078E+04  1.44423E+04 -8.12936E+03  1.81413E+04  3.36668E+02
  6.48018E+03  2.45111E+04 -2.74369E+03  1.27726E+04 -1.53661E+04  8.49471E+03 -1.70570E+04 -2.91147E+03
 -1.20057E+04 -6.78063E+03 -1.23257E+03 -1.63291E+04  9.57158E+03 -1.12382E+04  7.97010E+03  3.12255E+03
  3.28628E+03  2.64454E+03 -4.12035E+02 -2.27117E+03 -1.29110E+03 -5.28295E+03  6.79582E+03 -1.31774E+04
  1.38152E+04 -3.88374E+03  1.41544E+04  1.29579E+03  2.64368E+04  1.58454E+04  4.37210E+03  3.03609E+04
 -4.44330E+03  1.89974E+04 -1.74475E+04  2.75171E+04 -2.63593E+04  6.27443E+03 -2.42893E+04 -1.05634E+04
 -1.54485E+04 -2.22543E+04  7.33843E+03 -2.08849E+04  5.27554E+03 -6.87976E+03  8.61249E+03 -6.20779E+03
  8.22973E+03 -5.93544E+03  1.26534E+04 -2.32885E+03  1.10530E+04 -1.11946E+04  4.93650E+03 -4.16602E+03
  1.24885E+04  2.95445E+03  7.16243E+03  9.11018E+03  3.86699E+03  1.66908E+04 -1.35232E+04  6.51068E+03
 -2.16410E+04 -3.48106E+03 -9.61388E+02 -1.86803E+04 -3.25115E+03 -2.72659E+04  1.03608E+04 -2.29083E+04
  1.48655E+04 -9.87349E+03  1.96436E+04  7.80700E+03  1.31276E+04  7.02746E+03  7.06147E+03  1.60014E+04
 -8.90437E+03  1.54779E+04 -1.19520E+04  6.58987E+03 -9.51436E+03 -1.88456E+03 -9.44838E+03  2.00788E+03
 -4.18466E+03  9.51510E+02 -1.60936E+03  5.21485E+03 -2.09458E+03  8.53831E+03 -1.13313E+04  2.56788E+03
 -2.06631E+04 -1.01787E+04 -1.92903E+03 -1.43773E+04  1.20358E+04 -1.63933E+04  1.87915E+04  5.70204E+02
  2.06195E+04  8.97256E+03  1.47109E+04  1.46512E+04 -7.81561E+03  1.43785E+04 -1.22473E+04  9.53979E+03
 -6.07709E+03  1.27680E+03 -1.82484E+04 -8.24570E+03 -1.65329E+03 -1.23852E+04  1.22970E+04 -8.99141E+03
  9.22211E+03 -8.05022E+03  1.01046E+04  4.84735E+03  1.93444E+03  5.30001E+03  7.16727E+02  4.19449E+03
  4.30087E+03  4.95714E+03  3.29764E+03  6.04005E+02  3.51967E+03  4.53599E+03  1.12241E+03  2.32058E+03
  3.23421E+02  1.59495E+04 -1.29203E+04  1.57800E+04 -1.66336E+04  9.06001E+03 -1.87907E+04 -1.08496E+04
 -9.55680E+03 -2.55725E+04  4.35304E+03 -2.23063E+04  9.07098E+03 -1.44359E+04  1.66940E+04 -3.54245E+03
  1.18915E+04  1.16598E+04  6.03166E+02  5.48021E+03 -1.47793E+04  4.47714E+03 -8.75800E+03 -4.35895E+03
 -1.02412E+03 -7.05139E+03  7.29421E+03 -5.60125E+03  7.13593E+03 -7.04556E+03  6.34193E+03 -4.67177E+03
  5.37183E+03  9.23079E+03  7.65514E+03  2.83228E+03 -1.98699E+03  1.25104E+03  2.05204E+03 -8.30492E+03
  3.38112E+02  1.73409E+03  3.00718E+03 -9.56993E+02  7.51666E+03  1.65280E+04 -5.48401E+03  1.06809E+04
 -2.34569E+03  4.61657E+03 -8.56876E+03  7.90900E+03 -1.28455E+04 -1.76075E+04 -1.74734E+03 -5.59342E+03
  2.18984E+03 -5.96334E+03  8.27794E+03 -2.12200E+03 -3.98176E+03  3.58039E+03 -9.59560E+03  8.74705E+03
 -9.26930E+03  5.06367E+02 -9.18433E+03 -4.57164E+03 -6.97770E+03 -9.84441E+03 -6.16179E+02 -1.31253E+04
  4.91705E+03 -9.10547E+03  8.82030E+03  3.33456E+03  1.06080E+04  4.93585E+03  3.34119E+03  3.09786E+03
  3.57001E+02  5.33698E+03 -1.81784E+03 -7.54586E+03  1.62272E+03 -3.09990E+03  8.86115E+03 -1.06212E+03
  1.17883E+04  1.02079E+03  1.20976E+04  8.23218E+03  5.17037E+03  1.20279E+04 -4.43330E+03  1.36108E+04
 -1.08604E+04  1.09918E+04 -1.38310E+04  6.95095E+02  8.06245E+02 -1.31790E+04  5.56130E+03 -1.02860E+04
  9.30334E+03 -1.27985E+03  1.46895E+04  6.86329E+02  2.79519E+03  5.02500E+03 -3.07091E+03  9.61107E+03
 -4.21924E+02  2.30456E+03  1.18325E+03  9.84960E+02 -6.33310E+03  8.57100E+03 -1.94646E+03  6.93985E+03
 -4.71604E+03  2.85036E+03 -1.20488E+04  3.63908E+02 -9.06495E+03 -1.44337E+03 -1.77156E+04 -1.47199E+04
 -1.39750E+04 -2.09499E+04  1.37004E+03 -1.53220E+04  1.09046E+04 -1.82158E+04  2.55333E+04 -6.37850E+03
  1.26926E+04  6.40267E+03  6.67952E+03  5.22453E+03  7.68710E+02  6.58425E+03 -1.06650E+04  8.78192E+03
 -1.06741E+03  9.04183E+02 -4.90422E+03 -9.87697E+02 -1.57119E+03 -7.90772E+02  5.70023E+02  3.48380E+03
  7.73744E+03 -1.89872E+03 -8.51717E+03 -3.70834E+03 -9.53982E+03 -4.30702E+03 -9.57534E+02  3.14405E+03
  3.69699E+03 -6.89031E+03  6.18329E+03 -5.44696E+02  3.86186E+03  2.81406E+03  5.48894E+03  1.32513E+04
 -2.87917E+03  2.02344E+04 -1.61243E+04  1.45449E+04 -1.32374E+04  2.03960E+03 -9.64829E+03 -1.53220E+04
 -6.38040E+03 -1.94567E+04  5.91130E+03 -7.73461E+03  1.95090E+04 -6.54520E+03  1.08205E+04 -3.83354E+03
  6.59683E+03  7.40949E+03 -7.17815E+03  8.63117E+02 -3.28245E+03  1.70828E+03  9.95983E+02 -4.05313E+03
  7.24854E+03 -1.00203E+03  5.08952E+03  3.34588E+03 -3.38160E+02  2.14267E+03 -9.92465E+02  8.20416E+03
 -8.19267E+03  6.36423E+03 -1.25062E+04 -1.78632E+03 -6.94172E+03 -8.04573E+03 -3.43275E+03 -1.56994E+04
  9.50152E+03 -5.60082E+03  1.29315E+04  2.13392E+03  7.38596E+03  1.31868E+03  1.18481E+04  1.08695E+04
 -4.02591E+03  6.18875E+03  4.79804E+02  6.79849E+03 -2.83987E+03 -1.51677E+02 -4.54587E+03  4.41068E+03
  2.99033E+02 -7.49834E+03  3.62030E+03 -1.68056E+02 -6.01445E+03 -1.37509E+03 -1.03398E+04 -7.79404E+03
 -8.03835E+03 -4.12287E+03 -6.25941E+03 -3.35624E+03  1.00809E+04 -1.35475E+04  4.18701E+03 -1.00945E+04
  1.45731E+04  1.28588E+03  1.81683E+03  7.08288E+02  4.03751E+03  1.13377E+04 -7.10621E+03  1.29686E+04
