 $NMID ID='MM_0lb_SNR50_17hz_g45_75.RAW', FMTDAT='(8E13.5)'
 TRAMP=1., VOLUME=1. $END
  3.09520E+05  1.26622E+03  3.38253E+05  2.49447E+05  8.60520E+04  3.38298E+05 -1.31448E+05  2.50687E+05
 -1.88330E+05  8.09958E+04 -1.14001E+05 -3.62070E+04  1.30832E+03 -4.79178E+04  4.95129E+04 -4.43363E+03
  3.27424E+04  5.76569E+04 -1.73453E+04  7.27977E+04 -6.23846E+04  6.25365E+04 -8.12244E+04  3.25966E+04
 -7.86782E+04 -1.04247E+04 -5.95552E+04 -5.09617E+04 -1.48625E+04 -6.88685E+04  2.46246E+04 -4.29087E+04
  3.90170E+04 -7.42396E+02  1.59120E+04  5.01189E+04 -3.34301E+04  4.49541E+04 -6.84549E+04  1.11716E+03
 -5.45830E+04 -5.55522E+04 -7.04304E+03 -7.93267E+04  3.86184E+04 -5.65203E+04  5.10711E+04 -1.69122E+04
  4.39773E+04  1.17556E+04  3.17661E+04  2.70327E+04  1.40177E+04  3.06823E+04 -6.22160E+03  2.95449E+04
 -2.15143E+04  1.16694E+04 -1.89710E+04 -3.82175E+03  1.54117E+02 -5.42903E+03  2.16982E+04  1.03393E+04
  4.49002E+03  2.97903E+04 -3.38959E+04  3.48784E+04 -6.02458E+04  1.39003E+03 -5.55110E+04 -4.57296E+04
 -1.32427E+04 -6.10662E+04  3.55791E+04 -4.39454E+04  5.41078E+04 -3.72310E+02  3.41593E+04  2.92084E+04
 -6.82764E+02  3.37582E+04 -2.80609E+04  1.50597E+04 -2.65721E+04 -2.54828E+03 -1.72407E+04 -8.36387E+03
 -9.92613E+03 -1.21564E+04 -4.57080E+03 -1.79038E+04  5.20168E+03 -2.16006E+04  1.65136E+04 -1.58628E+04
  1.46556E+04  7.16217E+03 -4.87934E+03  1.02208E+04 -2.05958E+04 -2.02673E+03 -9.15083E+03 -3.16811E+04
  1.84164E+04 -4.04850E+04  4.31793E+04 -1.97731E+04  4.03587E+04  1.94411E+04  1.65119E+04  4.59061E+04
 -1.83556E+04  2.73371E+04 -2.40197E+04 -4.56982E+02 -8.79236E+03 -2.32805E+04  2.24696E+04 -2.98973E+04
  3.87406E+04 -9.69052E+03  3.65427E+04  2.29187E+04  1.61153E+04  4.37184E+04 -4.94967E+03  4.88039E+04
 -3.07468E+04  2.97990E+04 -3.83887E+04  1.16995E+04 -4.02869E+04 -1.70363E+04 -2.54538E+04 -3.22310E+04
  8.26513E+03 -3.61546E+04  3.00974E+04 -1.52641E+04  2.47885E+04  7.77839E+03  2.49902E+03  1.69186E+04
 -1.52453E+04  6.14669E+03 -6.55300E+03 -8.46065E+02  3.85737E+03 -1.64391E+04  1.90931E+04  8.15718E+03
  1.11501E+04  1.69112E+04 -4.13534E+03  2.38010E+04 -2.40908E+04  1.23126E+04 -2.94670E+04 -6.51756E+03
 -1.98653E+04 -1.57846E+04 -8.87744E+03 -1.65867E+04  3.22178E+03 -1.74686E+04  1.76355E+04 -1.57642E+04
  1.85450E+04 -6.61555E+03  3.06152E+04  2.14194E+03  2.52583E+04  1.85176E+04  5.81286E+03  3.35455E+04
 -1.76988E+04  2.81873E+04 -2.34951E+04  7.23909E+03 -2.24795E+04 -1.16825E+04 -1.61629E+03 -1.30504E+04
  3.66835E+03 -6.41750E+03 -2.05083E+03  2.51710E+03 -1.71229E+04  7.19481E+03 -1.82816E+04 -4.95637E+03
 -1.35561E+04 -1.56521E+04  4.06221E+03 -2.55243E+04  1.66049E+04 -1.60211E+04  1.54862E+04 -3.43000E+03
  1.09243E+04  1.39087E+04  2.04951E+03  1.95963E+04 -1.16170E+04  9.20918E+03 -1.61315E+04 -1.74406E+03
 -1.38493E+04 -1.30737E+04 -6.76834E+03 -1.94717E+04  8.42300E+03 -1.66073E+04  1.59199E+04 -5.70361E+03
  1.66394E+04  2.89829E+03  1.06911E+04  6.36305E+03  3.12027E+03  3.07727E+03  8.09294E+03  1.57193E+03
  1.28114E+04 -3.49387E+03  1.39782E+04  1.40130E+04  1.22763E+04  2.77807E+04 -7.26089E+03  2.90106E+04
 -1.66765E+04  1.87420E+04 -2.59150E+04  7.43863E+03 -2.83855E+04  6.22041E+02 -2.70599E+04 -1.66638E+04
 -9.25379E+03 -2.20125E+04  9.05522E+03 -1.87201E+04  1.95242E+04 -1.00384E+04  1.62431E+04  4.02211E+03
  3.33463E+03  8.87202E+03 -6.52795E+03  1.05019E+04 -1.50587E+04 -5.26564E+02 -5.95558E+03 -1.10968E+04
  1.21829E+03 -1.13197E+04  4.82851E+03 -1.49926E+04  8.69659E+03 -4.06521E+03  3.84085E+03  8.17411E+03
 -4.62066E+03  3.69481E+03 -6.00352E+03 -3.70216E+03  5.19151E+02 -1.10335E+04  8.82329E+03 -7.23004E+03
  1.52264E+04 -5.34402E+03  1.25638E+04  2.61699E+03  1.45563E+04  5.50814E+03  5.32884E+03  1.89132E+04
 -8.97598E+02  1.48958E+04 -1.11514E+04  1.06639E+04 -1.09479E+04  3.10798E+03 -1.01114E+04 -3.27919E+03
 -4.65723E+03 -4.65942E+03  1.04649E+03  7.32585E+03 -1.09934E+03  1.24712E+02 -4.76129E+03  3.53393E+03
 -4.77071E+03 -2.38940E+03 -1.03867E+04 -7.80639E+03 -3.67924E+03 -1.30893E+04  7.32312E+03 -7.45808E+03
  1.21157E+04 -2.93673E+03  8.70602E+03  3.55368E+03 -8.74356E+02  2.55351E+03 -9.96535E+02  2.06464E+03
 -2.61152E+03 -8.54141E+03  1.24472E+03 -8.53217E+03  3.62851E+03 -9.08975E+03  8.31389E+03 -8.73010E+03
  1.37941E+04  2.11888E+02  1.15001E+04  9.57077E+03 -9.48978E+02  9.90424E+03 -6.69244E+03  1.28295E+04
 -8.06122E+03  3.23434E+03 -5.80588E+03  1.59496E+03 -5.57990E+02 -8.26625E+02  3.19416E+03 -1.11162E+03
  5.02963E+03  8.04349E+03  5.61340E+03  6.58220E+03 -2.62482E+03  8.33825E+03 -1.07477E+04  4.03634E+03
 -8.81715E+03  1.28320E+03 -1.22243E+03 -2.57018E+03  1.85959E+03 -7.57642E+03  3.10236E+03  1.06355E+03
 -8.08288E+02  5.72259E+03 -3.94327E+03  5.82750E+03 -6.10955E+03  2.28504E+03 -6.77418E+03  2.89303E+03
 -3.83921E+03 -1.10058E+04 -1.07169E+03 -6.20183E+03  7.74947E+03 -2.89383E+03  1.10384E+04  1.27787E+03
  4.51566E+03  6.02174E+03  1.28642E+03  8.13617E+03 -8.09970E+03  6.75167E+03 -9.43021E+03 -1.15976E+03
 -5.46255E+03 -8.68917E+03 -3.22634E+02 -8.02443E+03  9.34814E+02 -2.39600E+03  2.32376E+03 -2.80698E+03
  3.30192E+03 -8.13169E+02  6.01826E+02  2.78095E+03  1.81522E+03 -4.45444E+03 -4.72216E+02 -2.01045E+03
  5.72439E+03  2.75497E+03  1.07599E+04 -1.66176E+03  6.79034E+03  3.61124E+03  4.90257E+03  6.61416E+03
 -1.58521E+03  7.65541E+03 -7.84297E+03  1.22701E+04 -1.23023E+04 -5.85305E+02 -3.93555E+03 -3.86957E+03
 -4.94317E+03 -8.85229E+03 -2.43264E+03 -4.51941E+03 -1.11461E+03  4.14887E+02 -1.26221E+02 -5.41383E+03
  2.04370E+03 -4.07733E+02  2.86969E+03 -4.64585E+03 -1.53098E+03  8.39635E+01  3.81627E+03  9.80610E+02
  4.65886E+03  3.55097E+03  6.86594E+02  3.69084E+03  7.64484E+02  2.56659E+03 -1.80118E+03  4.71064E+03
 -8.96090E+03 -1.06920E+03 -3.23063E+03 -5.00614E+03 -6.32907E+03 -5.95933E+03  5.18460E+03 -3.67255E+03
  7.15063E+03 -5.90779E+03  7.21586E+03 -2.52344E+02  8.48802E+03  4.00713E+03  4.14648E+03  2.91759E+03
 -3.40277E+03  3.57188E+03  1.81268E+03  5.71627E+03 -1.79750E+03 -8.71434E+02  1.40913E+03  2.97233E+03
 -4.59461E+03 -2.27218E+03 -2.85567E+03  4.25985E+03 -2.20760E+03  2.40709E+03 -5.86873E+03 -2.84196E+03
 -7.26133E+03 -2.63169E+03 -2.70925E+02 -3.95990E+03  3.36983E+03 -5.43628E+03 -7.53672E+02 -1.51209E+03
  5.69944E+03  2.32301E+03 -5.95609E+02  4.51114E+03 -8.22878E+02  9.01942E+03 -4.02323E+03  1.58254E+02
 -9.69837E+03  2.02634E+03  4.64045E+02 -3.24289E+03 -1.59143E+03 -2.09159E+03  2.18648E+03 -1.46527E+03
  3.39168E+03  2.37812E+03 -1.43639E+03  5.15438E+03 -2.60983E+03  1.61034E+03  2.82370E+02  2.21240E+03
  4.21141E+03  1.07015E+03 -1.34757E+03  2.95134E+03  2.93638E+03  2.73393E+03  3.93556E+03  2.36034E+03
 -6.64216E+02  6.03914E+03 -5.21604E+03  8.90188E+03 -7.23387E+03  1.03754E+03 -1.27596E+04 -5.98232E+02
  3.57824E+02 -5.69640E+03  2.49870E+03 -4.83051E+03  8.69521E+02  8.13467E+02 -7.16458E+02 -8.88443E+02
  6.32357E+03  6.28422E+03  6.05735E+02  6.66996E+03 -1.96795E+03  1.12984E+03 -4.51625E+03 -2.30165E+03
  5.55342E+02  1.38726E+02 -1.33935E+02 -4.37152E+03 -1.56106E+03 -2.15511E+03  5.95964E+03  1.93738E+03
  3.57131E+02  3.88605E+03  2.06951E+03 -3.86520E+02 -1.93671E+03  7.60127E+02  6.77450E+02 -1.01820E+03
 -8.43159E+02  2.58713E+03  3.72479E+03  1.85875E+03 -1.70199E+03  1.07225E+02 -1.28732E+01  5.68343E+03
 -2.00702E+03 -1.90632E+03 -6.81417E+02  3.35343E+03 -7.65984E+03  2.78684E+03 -3.00241E+03  1.80036E+03
 -5.76967E+02 -4.35744E+03 -2.32828E+03  2.86367E+03 -3.82546E+03  3.99899E+03 -1.71488E+03  2.09073E+03
 -1.59502E+03 -9.03295E+02  3.64626E+03 -6.30800E+03 -4.14028E+02  1.76468E+03  5.07937E+02 -3.26013E+03
  2.06173E+03  6.50026E+02 -1.17015E+02 -5.00763E+03  3.24847E+03  3.77673E+03 -2.57256E+03  3.67078E+03
 -1.55657E+03 -2.70153E+03  7.37904E+02  4.92997E+02  5.61192E+03 -2.73014E+03  2.45753E+02 -3.63037E+02
 -1.25165E+03 -6.79926E+02  5.68715E+03 -1.98711E+03  2.63945E+03 -1.35839E+03 -5.62179E+02  1.22041E+03
 -6.92353E+02 -6.12590E+03 -7.18485E+02  1.31002E+03  6.00241E+02 -2.19236E+03  2.66846E+03 -1.39922E+03
  2.74914E+03 -7.80202E+02 -1.09642E+03  2.73931E+02  8.90923E+02  1.21657E+03  4.01894E+03 -1.50971E+02
  1.27365E+03  4.15536E+03 -3.89714E+03 -3.00724E+03  1.64499E+03 -1.56635E+02  2.20286E+03  2.10235E+03
 -2.40973E+03  4.04981E+03 -4.06201E+03  3.59023E+03 -4.26910E+03 -2.95404E+03 -5.12153E+03  4.45506E+02
 -4.13071E+02 -1.31162E+03 -1.15376E+03 -3.48118E+03  4.29379E+01 -2.48654E+03  4.28230E+03 -5.55957E+03
  2.57612E+03  4.02807E+03  2.05431E+03  8.27240E+03  6.88222E+02 -1.02167E+03 -2.27509E+03 -9.08643E+02
  1.69564E+03 -6.61982E+02 -2.73889E+03 -4.43851E+02 -1.40856E+03  2.89633E+02 -2.90695E+03  1.50926E+03
 -2.94113E+02 -3.43704E+03  5.10715E+02 -1.12392E+03 -3.06827E+03 -5.05424E+02 -3.11668E+03  1.51143E+03
  3.17383E+03 -1.97625E+03  2.54829E+03 -3.92384E+03  9.42495E+03  5.14910E+03 -5.19722E+03  4.82820E+03
 -4.90177E+03  1.24887E+03 -3.69405E+03 -1.71619E+03 -6.33852E+03  6.72949E+02 -1.66534E+03 -2.22604E+03
  1.93925E+03 -5.52390E+03 -7.19669E+02 -3.79307E+02 -1.39142E+03 -1.28732E+03  3.10858E+03  2.75129E+02
  1.25188E+03 -2.33833E+03  1.63673E+03 -6.36194E+00 -2.69611E+03  1.06593E+03 -1.34369E+03 -2.59138E+03
 -5.64126E+02  6.33574E+02 -3.42417E+03  2.44566E+03 -1.47119E+03 -8.62112E+02 -2.63166E+03  9.68613E+02
 -6.74819E+02  2.18109E+02 -3.65545E+03 -6.21141E+02  1.55651E+03  7.46411E+02 -4.26802E+03  1.55074E+03
  8.22210E+02 -1.90629E+03  2.46018E+03  2.10547E+03 -2.02237E+03 -3.87893E+03 -1.85717E+03  4.25666E+03
  1.34688E+01  2.02537E+03 -1.37626E+03  3.29219E+03 -2.56384E+03  2.05572E+03 -2.76796E+03 -2.43823E+03
  3.29896E+02 -5.93694E+03  7.88756E+01 -1.78050E+03 -3.25413E+03 -1.18109E+03 -1.81403E+03  1.39727E+03
 -2.64525E+03  2.67681E+03  1.44878E+03 -1.43638E+03 -7.55833E+02  2.52622E+03 -2.71675E+03  2.04554E+03
  2.41494E+03  1.07295E+03  4.32370E+02  5.08904E+02  1.22283E+03  5.84599E+02  2.22202E+02  1.51121E+01
