 $NMID ID='MM_0lb_SNR50_15hz_g45_16.RAW', FMTDAT='(8E13.5)'
 TRAMP=1., VOLUME=1. $END
  3.09796E+05  2.30940E+03  3.39438E+05  2.49100E+05  8.30126E+04  3.34660E+05 -1.30301E+05  2.49342E+05
 -1.88880E+05  8.39784E+04 -1.07194E+05 -3.23553E+04  2.91590E+02 -5.10269E+04  5.30579E+04 -1.12486E+03
  3.49833E+04  5.20753E+04 -1.95265E+04  7.46924E+04 -5.57661E+04  6.58890E+04 -8.68704E+04  3.09817E+04
 -7.99628E+04 -9.66825E+03 -5.68329E+04 -4.77526E+04 -1.44475E+04 -6.66647E+04  3.00294E+04 -4.21784E+04
  4.02899E+04 -7.83541E+02  1.74226E+04  4.99623E+04 -3.79845E+04  4.61934E+04 -6.79440E+04 -6.36272E+02
 -5.24148E+04 -5.64629E+04 -7.08842E+03 -8.02635E+04  3.56919E+04 -5.42814E+04  4.14555E+04 -1.53577E+04
  4.48671E+04  1.31018E+04  3.27607E+04  2.43297E+04  1.69607E+04  3.02018E+04 -3.71973E+03  2.92504E+04
 -2.51795E+04  1.17799E+04 -2.04808E+04 -4.99483E+03  4.68615E+03 -9.52260E+03  2.06411E+04  1.52485E+04
  6.75915E+03  3.49047E+04 -3.01416E+04  3.43629E+04 -6.03190E+04  3.67092E+03 -5.62488E+04 -4.40535E+04
 -1.10479E+04 -6.61326E+04  4.04896E+04 -4.88520E+04  5.87835E+04  4.23170E+02  3.44879E+04  2.72328E+04
 -4.63630E+03  3.76277E+04 -2.93272E+04  1.71191E+04 -2.82125E+04 -1.66612E+03 -1.99418E+04 -1.10850E+04
 -7.09542E+03 -1.05324E+04  1.33612E+03 -1.55482E+04  5.05217E+03 -1.72969E+04  1.00717E+04 -1.30004E+04
  1.31259E+04  3.34853E+03 -6.39497E+03  1.21750E+04 -2.39120E+04 -3.74775E+03 -5.72401E+03 -3.07226E+04
  1.97609E+04 -4.12269E+04  4.90313E+04 -1.80454E+04  4.46553E+04  2.37420E+04  1.56733E+04  3.78387E+04
 -2.02593E+04  3.47097E+04 -3.08886E+04  1.30770E+03 -1.10408E+04 -2.94322E+04  2.08017E+04 -3.00457E+04
  4.29601E+04 -8.73319E+03  3.48483E+04  3.02284E+04  1.43022E+04  4.29124E+04 -9.45085E+03  5.27248E+04
 -3.06424E+04  3.45570E+04 -4.39206E+04  8.09149E+03 -3.70679E+04 -2.52266E+04 -2.27465E+04 -3.88418E+04
  4.56377E+03 -3.29140E+04  3.47278E+04 -1.63643E+04  2.80569E+04  1.06392E+04  8.80846E+03  1.89294E+04
 -1.23458E+04  1.18263E+04 -1.16636E+04 -1.01734E+04  5.39005E+03 -1.00217E+04  1.65699E+04  2.77637E+03
  1.34575E+04  2.21007E+04 -1.12302E+04  2.01907E+04 -2.06978E+04  9.39023E+03 -2.93081E+04 -6.38686E+03
 -2.68235E+04 -1.46979E+04 -6.62063E+03 -1.54907E+04  6.24623E+02 -1.73275E+04  1.37641E+04 -1.59011E+04
  2.58295E+04 -1.07606E+04  3.40505E+04 -4.32760E+03  2.01086E+04  1.73362E+04  9.39668E+03  3.41092E+04
 -1.98035E+04  2.75369E+04 -2.73515E+04  1.04188E+04 -2.16699E+04 -7.66114E+03 -2.49506E+03 -1.17877E+04
  6.60374E+03  6.86084E+02 -3.25135E+03  6.96087E+03 -1.68737E+04  4.10393E+03 -1.24076E+04 -4.48732E+03
 -5.52712E+03 -1.55743E+04  4.88430E+03 -1.94152E+04  1.25531E+04 -1.50000E+04  1.42615E+04 -1.97648E+03
  9.46525E+03  1.43136E+04  7.13505E+02  1.95384E+04 -1.42222E+04  8.89725E+03 -1.31137E+04 -5.80256E+03
 -1.29942E+04 -1.84035E+04 -1.43055E+03 -2.29383E+04  1.10269E+04 -1.47147E+04  2.09358E+04 -1.18131E+04
  1.60972E+04  2.20706E+03  9.54914E+03  2.22478E+03  5.95648E+03  4.73217E+02  7.66243E+03 -3.13355E+03
  1.86396E+04  5.11506E+03  2.07764E+04  1.34173E+04  1.26994E+04  3.43702E+04  1.76564E+03  3.16791E+04
 -1.87049E+04  2.36381E+04 -2.37740E+04  1.73613E+04 -3.26606E+04  1.67577E+03 -2.43771E+04 -1.65319E+04
 -1.01981E+04 -2.46847E+04  4.96291E+03 -2.44351E+04  2.41909E+04 -1.20666E+04  1.55077E+04  5.54289E+03
  7.04327E+03  1.41692E+04 -6.98310E+03  1.12696E+04 -1.63046E+04  2.54733E+03 -1.34449E+04 -7.92300E+03
 -1.45328E+03 -1.53646E+04  6.55177E+03 -8.57826E+03  1.17818E+04 -1.77467E+03  3.86068E+03  8.69185E+03
 -5.04163E+03  5.73513E+03 -7.92481E+03 -3.94847E+03  5.71825E+03 -1.62547E+04  1.43210E+04 -1.24308E+04
  1.40460E+04 -1.41498E+04  1.23498E+04  4.34154E+03  1.29056E+04  1.14396E+04  1.30576E+04  2.07442E+04
 -4.55410E+02  2.21832E+04 -1.26120E+04  1.53920E+04 -1.23549E+04  1.32540E+03 -7.32200E+03 -2.81667E+03
 -5.10213E+03 -3.37975E+03 -6.44600E+02 -1.30339E+03 -2.20304E+03  6.84338E+03 -1.28457E+03  5.68297E+03
 -1.65153E+04  1.93722E+03 -1.33975E+04 -5.61012E+03 -2.72279E+03 -1.35821E+04  4.01337E+03 -7.95882E+03
  8.56034E+03 -8.86824E+03  1.99054E+03  5.10851E+03 -5.13939E+03  6.55435E+03 -8.01575E+03  2.83039E+03
 -7.09390E+03 -6.18357E+03 -2.15816E+03 -1.00138E+04  2.35041E+03 -1.20902E+04  1.51019E+04 -5.74501E+03
  1.68877E+04  6.56435E+03  1.20883E+04  1.07639E+04  2.07497E+03  1.22350E+04 -2.41100E+03  4.12385E+03
 -1.14675E+04  3.40454E+03 -5.63590E+03  1.61053E+03  2.92761E+03 -6.61266E+02  6.23803E+03  1.32579E+03
  4.47503E+03  4.09757E+03  1.80306E+03  8.49836E+03 -6.76820E+03  1.28596E+04 -1.23551E+04  3.43308E+03
 -4.63238E+03 -9.69985E+03 -1.20911E+02 -8.92310E+03  4.33814E+03 -3.41549E+03  5.94826E+03  8.03978E+02
 -3.78291E+03  1.46171E+03 -4.94062E+03  4.08143E+03 -8.68475E+03  3.18442E+03 -6.96060E+03 -5.10214E+03
 -6.37671E+03 -8.64090E+03 -4.51406E+03 -5.69740E+03  9.87208E+03 -9.58180E+03  8.47772E+03 -1.18574E+02
  6.38718E+03  7.22526E+03 -2.25444E+03  9.22124E+03 -3.38663E+03  5.69799E+03 -9.21979E+03  1.58620E+02
 -9.26054E+03 -8.56150E+03 -1.13864E+03 -6.35038E+03  9.30100E+03 -6.31453E+03  1.59078E+03 -4.46508E+03
  6.01178E+01 -7.76845E+02 -3.62172E+03  1.85840E+03  1.52838E+02 -1.53695E+03 -3.33777E+03  5.24780E+01
  4.86674E+03 -3.98120E+03  1.12155E+04 -4.73920E+02  5.24873E+03  7.88498E+03  4.63219E+03  8.84324E+03
 -1.14006E+03  1.50965E+04 -1.19396E+04  8.06263E+03 -1.01792E+04  8.30885E+02 -8.56169E+03 -7.31578E+03
 -5.33660E+03 -8.29912E+03 -6.28506E+02 -8.41857E+03  7.13388E+03 -2.74975E+03  1.32612E+03 -1.73709E+03
  4.48565E+03  4.35530E+02  1.85106E+03  1.81018E+03  5.41050E+03 -1.79063E+03  8.31685E+02  5.47474E+03
  2.26677E+03  2.39115E+03  9.75081E+02  8.01600E+03 -1.98728E+03  8.12721E+03 -8.06835E+03  3.64693E+03
 -8.54348E+03 -7.44853E+01 -4.68616E+03 -3.20049E+03  5.38031E+03 -4.18897E+03  4.70322E+03 -6.99843E+03
  1.02440E+04 -2.39477E+03  1.05394E+04 -5.43862E+03  5.28972E+03  5.86078E+03  4.77039E+02  1.27250E+04
 -5.47639E+03  3.74182E+03 -6.65091E+03  1.80199E+03 -3.34456E+03 -9.41710E+02 -5.06874E+03 -2.68030E+03
  5.32991E+03 -1.92125E+03 -4.75264E+03 -2.18515E+03  8.69963E+02  4.21672E+03 -1.04000E+04  1.15440E+03
 -4.55118E+03 -9.04313E+03 -1.40730E+03 -9.52115E+03  5.76316E+03 -5.17759E+03  8.36105E+03 -4.22517E+03
  7.44809E+03  6.20564E+03  1.58882E+03  5.36135E+03 -4.31608E+03  9.29202E+03 -9.74193E+03  2.52110E+03
 -5.75780E+03  3.36441E+03 -3.73174E+03 -4.51459E+03  1.62660E+03 -6.20356E+03  7.32093E+03 -8.17278E+03
  3.12902E+03 -1.10706E+03  1.71906E+03 -2.93679E+03  7.68104E+02  8.45830E+01 -1.43936E+03 -6.05086E+02
 -1.46751E+03  5.54317E+03 -2.37054E+03 -1.74310E+02  4.08195E+03  3.66253E+03  3.05277E+02  6.16127E+03
 -2.15101E+03  6.56274E+03  2.19019E+03  6.61583E+03 -8.48880E+03  2.30290E+03 -5.35581E+03 -2.33127E+03
  6.15784E+01 -4.34712E+03 -8.79584E+02 -6.33161E+03  2.10210E+03 -3.48162E+03  9.03590E+03 -2.36619E+03
 -2.76998E+02  6.72730E+03 -1.26295E+02  6.38733E+03 -1.43556E+03  2.88973E+03  8.69525E+02 -6.71278E+03
  2.32602E+02 -5.39411E+03  2.60641E+03 -5.30872E+03  3.42695E+03 -2.84628E+03  7.74822E+03 -1.15459E+02
  5.51396E+02  3.80738E+03  6.65572E+02  7.51427E+02 -5.01366E+03 -5.29704E+02  2.57683E+03  6.60373E+02
  9.57932E+01  4.87194E+02  4.40022E+03  3.30189E+03 -1.95432E+02  4.27427E+03 -5.14243E+03  6.51661E+03
 -3.84990E+03  2.18782E+03  1.86469E+03  6.89274E+02 -4.31273E+03 -3.77654E+03 -8.48686E+02 -5.23821E+03
 -2.27759E+03 -4.88777E+03  7.37418E+03 -2.23112E+03 -2.71116E+03  2.58127E+03 -1.36706E+03  2.47089E+03
 -9.45847E+02  1.88193E+03  1.48995E+03 -3.57501E+03 -1.54580E+03 -5.14621E+03 -2.29440E+03 -4.33693E+03
  1.44906E+03 -3.37991E+03 -1.93414E+03 -2.22701E+02  2.59180E+03  3.54476E+02 -1.41711E+03  3.95137E+03
  1.05606E+03  2.77376E+02 -6.14088E+02 -1.94429E+03  1.38692E+03  4.78108E+02  5.73827E+03  3.96242E+03
 -1.60632E+03 -8.51776E+02  1.86355E+03  1.16559E+03  5.41312E+03  7.57652E+03 -3.64783E+02  2.45488E+03
 -1.00158E+02 -8.16361E+02 -5.78167E+03  3.93088E+03  1.82541E+03 -4.91708E+03  2.69540E+03 -6.85946E+03
 -6.26957E+02  2.94950E+02  1.55357E+02  2.86136E+03  4.61218E+03  1.92791E+03 -2.30111E+03  7.54425E+03
 -4.99957E+02  1.71466E+03  1.38537E+03 -4.38191E+03 -3.31306E+03  2.36388E+03 -7.79308E+02 -9.29994E+02
  3.89954E+01  2.70517E+02 -9.64441E+02  3.28497E+03 -3.38140E+03  3.11546E+03 -8.70331E+03 -1.43359E+03
 -3.45166E+03 -6.71826E+03  3.49697E+03 -7.75244E+03 -1.61055E+03 -6.54469E+03  6.36720E+03 -5.29436E+03
  8.18640E+03 -2.50551E+03 -5.61087E+02  4.01383E+03 -1.02779E+03  1.05896E+03 -2.42186E+02  8.21267E+03
  6.34286E+02 -2.52086E+03 -2.50519E+03 -3.57151E+03 -3.67668E+03 -2.91104E+03 -3.94025E+03 -1.97324E+03
  2.24950E+03 -2.93276E+03 -1.25823E+03  1.25346E+03 -4.35051E+03 -3.37865E+02  1.73739E+03 -6.33662E+03
  4.08134E+02 -8.62426E+02 -3.01857E+02  3.05074E+03  4.12218E+03 -4.89172E+02  5.27078E+03  2.17513E+03
 -1.73388E+03  8.62755E+03 -5.41794E+03  2.08202E+03 -2.81411E+03 -4.81231E+03 -1.66918E+02 -3.05084E+03
  2.27103E+03 -4.74411E+03  1.11163E+03 -3.61608E+03  2.53307E+03 -1.45892E+03 -6.32911E+01  2.64367E+03
 -4.93287E+02 -2.29392E+03 -7.22228E+01  1.97964E+03 -3.20524E+03 -4.50747E+02 -1.85297E+03  1.75687E+03
 -2.18718E+03  2.10625E+03 -4.41406E+02 -2.71041E+03  2.67648E+03  2.44153E+03  2.13136E+02  5.12864E+03
  1.34101E+03 -1.33334E+03 -3.07835E+02  5.26584E+02 -4.76595E+03  2.18859E+03  2.20114E+03  4.97611E+03
  2.67868E+03 -2.59037E+03  1.27450E+03  2.49108E+03 -1.13349E+03 -4.07385E+03  9.51410E+02 -2.47875E+02
 -3.87293E+03  1.30105E+03 -5.51099E+03  3.54212E+03 -1.76681E+03  1.55660E+03 -3.15763E+03 -3.46205E+03
  1.00958E+03  1.09477E+03 -2.99238E+03  1.19438E+03  3.25052E+03  2.78527E+03 -1.31268E+03  2.81427E+03
 -3.03205E+03 -7.42960E+02  4.21374E+03 -4.32677E+03  9.42390E+03  3.55415E+03  2.64212E+03  2.09383E+03
  5.31348E+03  1.03416E+03 -4.71253E+02 -1.92032E+03 -2.21886E+03 -5.58728E+03 -4.18228E+03  2.21296E+03
