 $NMID ID='MM_0lb_SNR50_14hz_g45_97.RAW', FMTDAT='(8E13.5)'
 TRAMP=1., VOLUME=1. $END
  3.04541E+05  3.40720E+03  3.42695E+05  2.50550E+05  8.40411E+04  3.42134E+05 -1.32508E+05  2.53034E+05
 -1.86557E+05  8.30710E+04 -1.06813E+05 -3.35322E+04 -1.85684E+02 -4.16156E+04  5.16672E+04  2.96964E+03
  3.74874E+04  5.45862E+04 -1.82714E+04  7.98825E+04 -6.00242E+04  6.54766E+04 -8.20183E+04  3.16356E+04
 -7.88898E+04 -1.53397E+04 -5.85103E+04 -5.23083E+04 -1.16480E+04 -6.94166E+04  3.23818E+04 -4.29147E+04
  3.81457E+04  4.09647E+03  1.57003E+04  5.06044E+04 -3.30146E+04  5.06623E+04 -6.38266E+04 -1.68149E+03
 -5.33038E+04 -6.14037E+04 -7.00207E+03 -7.46596E+04  3.14015E+04 -5.71424E+04  4.88023E+04 -1.68484E+04
  4.25607E+04  1.08442E+04  3.48962E+04  3.10081E+04  1.54566E+04  2.71707E+04 -2.12578E+03  3.05372E+04
 -2.59744E+04  1.62298E+04 -1.56379E+04 -7.33635E+03  3.89490E+03 -1.35916E+04  1.85314E+04  1.42431E+04
  6.31389E+03  2.87826E+04 -3.40415E+04  3.56438E+04 -6.25624E+04  5.48274E+03 -5.61364E+04 -3.87171E+04
 -1.38056E+04 -6.48020E+04  3.94526E+04 -4.29269E+04  5.77628E+04 -5.88783E+03  3.37012E+04  3.30380E+04
 -3.78268E+03  4.04911E+04 -2.75027E+04  1.93999E+04 -3.11436E+04 -1.92332E+03 -1.62511E+04 -9.44177E+03
 -4.78810E+03 -1.15619E+04 -4.99465E+02 -1.14389E+04  7.29507E+03 -2.45017E+04  1.51086E+04 -1.40548E+04
  1.57984E+04  1.17539E+04 -7.26107E+03  1.24294E+04 -1.81301E+04 -3.11120E+03 -7.84452E+03 -3.38965E+04
  2.19785E+04 -4.61051E+04  4.84353E+04 -1.65752E+04  4.20904E+04  2.29580E+04  1.71420E+04  4.24185E+04
 -1.54900E+04  3.54350E+04 -2.83613E+04  1.85596E+03 -6.32963E+03 -2.81243E+04  1.59649E+04 -3.35860E+04
  4.01791E+04 -5.73434E+03  3.61781E+04  2.95450E+04  1.52621E+04  4.75011E+04 -6.55899E+03  4.89413E+04
 -3.58190E+04  3.40010E+04 -4.33427E+04  8.61464E+03 -4.73146E+04 -1.58317E+04 -2.50561E+04 -3.47573E+04
  9.96047E+03 -3.85955E+04  3.27267E+04 -1.40478E+04  3.46804E+04  1.38366E+04  5.01933E+03  1.79607E+04
 -1.57264E+04  7.67215E+03 -9.17627E+03 -5.17698E+03  5.76298E+03 -9.77796E+03  1.65131E+04  4.37583E+03
  1.49089E+04  2.05983E+04 -4.54897E+03  2.27623E+04 -2.58811E+04  6.97154E+03 -3.05198E+04 -3.56585E+03
 -2.34298E+04 -1.42648E+04 -7.66703E+03 -1.96270E+04 -2.15154E+03 -2.60491E+04  1.72034E+04 -1.58601E+04
  2.43858E+04 -1.73240E+04  3.82880E+04  6.82342E+03  3.25129E+04  1.67154E+04  7.22807E+03  3.33032E+04
 -1.56554E+04  3.25307E+04 -3.22319E+04  1.35237E+04 -2.11739E+04 -1.18338E+04 -4.61957E+03 -1.44761E+04
  1.91368E+02 -3.59863E+03 -7.30642E+03 -3.46177E+02 -1.63607E+04  5.90855E+03 -1.62898E+04 -4.90742E+03
 -1.56219E+04 -2.47980E+04  5.64526E+03 -2.73842E+04  1.38800E+04 -1.70832E+04  1.35613E+04 -3.81103E+03
  8.49322E+03  1.53418E+04  3.41394E+03  2.35511E+04 -1.66630E+04  8.21200E+03 -1.36625E+04 -4.41495E+03
 -1.54510E+04 -1.59740E+04  3.93488E+02 -2.63409E+04  1.03106E+04 -1.41836E+04  1.48675E+04 -7.47616E+03
  1.79184E+04  2.22241E+03  1.26244E+04  1.81746E+03  7.33176E+03  1.49167E+03  1.03544E+04 -5.63169E+03
  1.54678E+04 -3.93463E+01  2.01181E+04  1.75360E+04  9.70206E+03  2.99703E+04 -4.41702E+03  3.32148E+04
 -2.09930E+04  2.93065E+04 -3.13491E+04  1.28714E+04 -3.56153E+04 -3.93190E+03 -2.23765E+04 -1.90826E+04
 -1.34547E+04 -2.78253E+04  5.28976E+03 -2.34931E+04  2.51511E+04 -1.89702E+04  1.98565E+04  6.23543E+03
  3.31736E+03  1.35725E+04 -1.56497E+04  1.01546E+04 -1.65601E+04  7.84823E+03 -1.17929E+04 -1.25117E+04
 -5.57352E+03 -1.33997E+04  8.31707E+03 -1.37939E+04  1.36122E+04 -4.01287E+03  1.52563E+03  3.71890E+03
 -6.86279E+03  4.61850E+03 -8.22579E+03 -9.27921E+03 -6.54420E+03 -1.09639E+04  8.93346E+03 -1.74508E+04
  1.26393E+04 -9.93921E+03  1.37493E+04  9.77067E+02  1.22948E+04  1.19650E+04  2.63998E+03  1.81398E+04
 -4.47527E+03  2.18612E+04 -1.27354E+04  1.75892E+04 -1.84814E+04  7.21889E+03 -7.87193E+03 -3.73314E+03
 -2.95070E+03 -8.84659E+02 -2.10057E+03  1.69997E+03 -3.49949E+03 -5.92429E+02 -5.99227E+03 -3.93498E+02
 -6.71390E+03 -2.49758E+03 -1.42125E+04 -6.22408E+03 -3.94229E+03 -1.61576E+04  4.37223E+03 -7.28995E+03
  9.14108E+03 -7.59345E+03  4.80424E+03  5.56412E+03 -2.11352E+03  4.13282E+03 -5.84016E+03 -1.98742E+03
 -7.33002E+03 -7.16984E+03 -5.95205E+03 -1.46144E+04  5.89761E+03 -9.22553E+03  1.09151E+04 -6.74815E+03
  1.61645E+04 -8.78247E+01  1.52086E+04  1.14556E+04 -2.82729E+02  6.42651E+03 -3.72792E+03  1.41798E+04
 -1.26966E+04  3.71572E+03 -5.70487E+03 -2.05721E+03  8.05388E+02  2.75459E+03  5.81675E+03  6.36184E+02
  1.05501E+04  1.44416E+03  4.40252E+03  1.44889E+04 -6.31279E+03  9.11163E+03 -8.98578E+03  1.97975E+03
 -7.23912E+03 -1.09255E+04 -1.55940E+03 -1.00955E+04  2.02833E+03 -2.75010E+03  5.24040E+03  1.81051E+03
  4.17248E+03  9.32538E+03 -6.38712E+03  5.46020E+03 -1.01519E+04  5.25950E+03 -6.08336E+03 -3.25355E+03
 -6.53356E+03 -7.91542E+03  4.21134E+03 -1.35238E+04  1.01914E+04 -4.20364E+03  8.57540E+03  4.72725E+03
  4.81050E+03  6.59042E+03 -6.78779E+02  1.41544E+04 -3.03158E+03  6.83367E+03 -1.00512E+04  1.47196E+03
 -4.31231E+03 -2.23831E+03 -6.08279E+03 -1.41416E+04  3.83637E+03 -4.55030E+03  1.00290E+04 -2.63434E+03
  1.81694E+03  8.77904E+02 -9.41007E+02  1.25051E+03  4.72964E+03  3.07462E+03  2.61439E+03 -3.52983E+03
  4.90111E+03 -4.13322E+03  9.30930E+03 -2.50523E+03  1.32045E+04  5.44492E+03  9.92396E+03  1.44688E+04
 -2.81949E+03  1.30023E+04 -1.01736E+04  8.90745E+03 -2.17903E+04 -1.75889E+03 -8.69856E+03 -7.84195E+02
 -6.39707E+03 -8.81956E+03  2.89613E+03 -9.17854E+03  3.52570E+02 -9.00110E+03  3.21260E+03 -4.21314E+03
  3.78674E+03  2.86056E+03  1.90489E+03 -2.94458E+03  6.75194E+03 -2.90529E+03  7.87599E+03 -5.12372E+02
  8.13001E+03  1.18355E+03  4.99335E+03  1.03829E+04 -4.82031E+03  5.45384E+03 -5.18786E+03  6.24282E+03
 -1.13591E+04  3.06946E+02 -2.28554E+03 -2.36279E+03  1.84936E+03 -1.25644E+04  3.98164E+03 -8.40032E+03
  5.85119E+03 -1.63080E+03  1.62606E+04  2.61075E+03  1.16031E+04  1.30875E+04  3.42601E+03  1.00285E+04
  1.84363E+03  9.41925E+03 -4.46382E+03  2.38054E+03 -7.00571E+03  1.94122E+03  3.54406E+03 -1.73517E+03
 -5.48172E+03 -5.31390E+03  2.42927E+02  9.17833E+03 -2.56963E+03 -2.15486E+03 -6.87685E+03 -3.97661E+03
 -8.87496E+03 -7.61704E+03  1.65403E+03 -6.16669E+03  6.93530E+03 -1.07145E+04  5.38253E+03  1.54044E+03
  5.94970E+03 -3.65915E+02  6.59760E+03  4.98689E+03 -3.55123E+03  8.70432E+03 -4.28406E+03  8.36734E+03
 -5.50053E+03  2.90543E+03 -4.96552E+03 -5.83247E+03  3.96480E+03 -6.81712E+03  1.39200E+02 -3.15329E+02
  3.17374E+03  1.31366E+03 -4.06632E+02  5.72505E+02 -1.38598E+02  3.68552E+03  1.26454E+03 -6.37089E+02
  6.18653E+03  1.32770E+03  1.57281E+03  3.28316E+03  4.24372E+03  7.17654E+02  3.08686E+03  6.74801E+03
 -1.39188E+03  1.67715E+03 -5.21636E+03  7.54986E+03 -7.18328E+03  2.94745E+03 -4.53507E+03 -5.13884E+03
 -3.02440E+03 -4.85909E+03 -6.18927E+01 -5.80402E+03  4.88740E+03 -1.13161E+04  1.41434E+03 -8.44297E+02
  5.12562E+03  1.08229E+03  6.05293E+03 -1.89531E+02 -7.37202E+03 -4.96114E+02 -5.28197E+03  1.06657E+03
 -6.31026E+02 -3.52860E+03  4.98973E+02 -1.90414E+03  6.60181E+03 -1.91350E+02  8.18113E+03 -2.09463E+03
  2.61043E+03 -1.97879E+03  4.71476E+03  4.52184E+03 -2.41855E+03  4.55721E+02  4.74271E+03  1.54546E+02
  3.18497E+03 -2.47362E+03  2.96494E+03  1.55707E+03  2.23782E+03  6.50825E+03 -1.83605E+03  8.68573E+02
 -4.03982E+03  3.08022E+03 -5.38256E+03  3.79248E+03 -1.68692E+03  1.29095E+03 -3.10603E+03 -3.20197E+03
  2.38539E+02  1.64538E+03 -2.65699E+03  1.41991E+02 -1.01323E+03  2.12517E+03  2.39054E+03  5.97570E+03
  6.05506E+03 -5.27332E+03 -3.04199E+03  3.30646E+03  2.00271E+03 -7.86558E+02 -6.52870E+02 -3.12060E+03
 -4.20818E+02 -2.38854E+03 -2.52102E+03 -8.85158E+02  4.58470E+03 -1.98535E+02  4.02967E+03  3.99657E+03
 -6.79880E+03 -3.36168E+03 -1.68434E+03 -5.60135E+03  6.08239E+03 -3.23119E+03  3.25271E+03  3.34892E+02
  7.03481E+03 -1.30184E+03  5.97705E+03  3.98184E+03  5.71577E+03  3.44684E+03  6.84211E+03  2.64845E+03
 -3.84170E+03 -1.19152E+03 -5.71335E+03  3.34423E+02 -1.84906E+03 -9.32231E+03  4.66913E+03 -1.56143E+03
 -7.22763E+02 -3.74314E+03 -4.90825E+02 -1.88647E+03  1.58812E+03  5.73270E+03  3.10975E+03  1.61158E+02
 -2.28901E+03 -2.74683E+03 -1.04473E+03  1.72972E+03 -3.21649E+03  2.56945E+03  1.10903E+03  1.82097E+03
  1.50701E+02  2.00065E+03 -7.67946E+03  4.68885E+03  3.61932E+02  3.61853E+03 -3.01884E+03 -3.15525E+03
 -2.75419E+03 -1.01412E+04  4.28286E+03 -1.07488E+04  3.59788E+01 -6.00528E+03  7.88295E+03 -3.32778E+03
  6.41344E+03  8.48788E+02  2.09555E+03  3.08036E+03 -2.02204E+02  3.25426E+03 -2.92531E+03  6.94373E+03
 -3.66367E+03  9.40781E+02 -1.62772E+00 -2.20998E+03  2.39960E+03  2.89297E+02 -1.44713E+03 -2.61240E+01
 -2.57866E+03  3.42262E+03  9.48374E+02 -8.86502E+02  2.25162E+03 -2.82112E+03 -6.74103E+02 -2.11068E+03
  1.86942E+03 -1.05820E+03  4.52132E+03  3.49887E+03  2.67745E+03 -1.21451E+03  5.74659E+03  1.54470E+03
 -1.00601E+03  6.38116E+03 -5.44245E+03  4.49376E+03 -6.67078E+03  9.84972E+01 -1.86050E+03 -3.86744E+02
 -3.83753E+03 -9.86136E+03  4.21942E+02 -6.79174E+03  2.26752E+03 -4.32435E+03 -4.79887E+03 -2.34300E+03
  1.39174E+03  7.11888E+02  1.13066E+03  1.41396E+03  8.85560E+02 -2.75470E+03 -2.71218E+03 -4.03669E+03
 -2.02262E+03 -3.10436E+03  1.32944E+03  1.45681E+03 -6.61171E+01  4.26499E+03  2.85483E+03  4.96861E+03
 -1.70589E+03  3.57930E+03 -2.49893E+03  1.96551E+03  1.89222E+03 -4.50093E+03  3.33185E+03 -3.29971E+03
  4.65731E+03 -4.03948E+03  6.10925E+03  4.69315E+03  8.13606E+03  1.23749E+03 -8.50217E+02  2.75991E+03
 -2.59629E+03  3.22266E+03  3.63758E+02  7.66908E+00 -2.69564E+01 -6.00621E+02 -4.01917E+02  1.81419E+03
  3.36338E+03  7.71396E+02 -1.15637E+03 -9.53707E+02 -2.58824E+03  5.48394E+02 -3.64987E+03  1.67537E+02
 -3.06405E+03 -5.21071E+03 -3.22039E+03 -5.65886E+03  3.39097E+03 -3.51847E+03 -1.81916E+02  2.23731E+03
 -1.78138E+03  8.50509E+02 -2.70225E+03 -5.14415E+02  2.20034E+03  2.48027E+03 -1.98671E+03  2.39629E+03
