 $NMID ID='MM_0lb_SNR50_17hz_g60_45.RAW', FMTDAT='(8E13.5)'
 TRAMP=1., VOLUME=1. $END
  3.07497E+05 -3.31418E+02  3.35713E+05  2.46268E+05  8.51747E+04  3.33943E+05 -1.27843E+05  2.52614E+05
 -1.87757E+05  8.11685E+04 -1.13888E+05 -3.21641E+04 -3.68152E+01 -4.98096E+04  5.51150E+04 -1.07654E+03
  3.58205E+04  5.08795E+04 -1.69404E+04  7.71839E+04 -6.09090E+04  6.67245E+04 -8.09486E+04  2.80103E+04
 -7.70057E+04 -1.10777E+04 -6.08429E+04 -5.31068E+04 -1.43930E+04 -7.00589E+04  2.61897E+04 -4.78810E+04
  4.05810E+04  3.31539E+03  1.76053E+04  4.82266E+04 -3.41627E+04  4.43437E+04 -6.13566E+04 -2.04470E+03
 -5.43126E+04 -5.58780E+04 -8.68813E+03 -7.70926E+04  3.50509E+04 -5.27000E+04  4.60322E+04 -1.55889E+04
  4.15136E+04  1.25204E+04  3.37581E+04  2.25023E+04  1.56585E+04  2.37106E+04 -6.19036E+03  2.41424E+04
 -2.60661E+04  1.19679E+04 -2.06886E+04 -4.57094E+03  5.32687E+03 -7.87541E+03  2.16958E+04  1.03649E+04
  6.35753E+03  3.15479E+04 -3.12560E+04  3.32802E+04 -6.40965E+04  1.51337E+03 -5.22631E+04 -4.46741E+04
 -9.52799E+03 -5.98004E+04  3.72260E+04 -4.02459E+04  5.80007E+04 -2.87455E+03  3.43717E+04  3.02237E+04
 -1.21664E+04  3.22208E+04 -3.15253E+04  1.49710E+04 -3.44640E+04 -4.76304E+03 -1.73586E+04 -1.01013E+04
 -8.15821E+03 -1.42504E+04  2.07646E+03 -2.31765E+04  8.04887E+02 -2.60629E+04  1.24897E+04 -9.81063E+03
  1.07078E+04  5.81902E+03 -5.87842E+03  1.05136E+04 -2.12520E+04 -3.27679E+03 -8.66620E+03 -2.93639E+04
  2.30105E+04 -3.88641E+04  4.58279E+04 -1.68378E+04  4.92658E+04  2.28355E+04  1.46349E+04  4.55515E+04
 -1.58991E+04  3.82158E+04 -2.59669E+04 -2.30855E+03 -5.96112E+03 -2.36572E+04  2.15583E+04 -3.14732E+04
  3.88868E+04 -9.48242E+03  3.62731E+04  2.66766E+04  1.98166E+04  4.39013E+04 -5.03563E+03  5.02160E+04
 -3.04018E+04  3.19219E+04 -3.81600E+04  1.01539E+04 -4.16370E+04 -1.49463E+04 -2.28118E+04 -3.37878E+04
  6.41622E+03 -4.08577E+04  3.66569E+04 -1.56385E+04  3.03066E+04  1.04258E+04  4.72525E+03  2.01638E+04
 -1.47127E+04  6.78983E+03 -1.02350E+04 -9.82764E+03  1.49516E+03 -1.05749E+04  2.01607E+04  4.35406E+03
  1.01638E+04  1.89478E+04 -2.14947E+03  2.01017E+04 -2.59528E+04  1.78515E+04 -2.14096E+04 -6.51955E+03
 -1.86798E+04 -1.65828E+04 -6.92479E+03 -2.00524E+04  4.24588E+03 -1.70163E+04  1.41911E+04 -2.48939E+04
  2.62592E+04 -1.08304E+04  3.41784E+04  3.29508E+03  2.58646E+04  1.54816E+04  7.69008E+03  3.43114E+04
 -1.66627E+04  2.77645E+04 -2.85817E+04  1.02362E+04 -2.41644E+04 -1.43580E+04 -5.37327E+03 -8.82733E+03
  3.86998E+03 -4.48940E+03 -4.68912E+03  6.76349E+03 -1.86844E+04  5.21424E+03 -1.77645E+04 -6.69258E+02
 -9.74057E+03 -2.26999E+04  2.88623E+03 -1.82838E+04  1.43736E+04 -1.33752E+04  1.57820E+04  4.41592E+03
  1.38648E+04  9.42845E+03  3.67970E+03  1.72286E+04 -1.20450E+04  8.47917E+03 -2.02450E+04 -1.39023E+03
 -1.42132E+04 -1.50811E+04  3.11839E+03 -2.12357E+04  1.17714E+04 -2.07131E+04  2.07395E+04 -5.83027E+03
  2.00314E+04 -3.55650E+02  1.27694E+04  5.57124E+03  4.93491E+03  1.55764E+03  7.58151E+03  8.13606E+02
  1.79001E+04  5.08391E+03  1.44888E+04  9.47188E+03  7.44002E+03  2.84515E+04 -2.84473E+03  2.68154E+04
 -2.06706E+04  2.63171E+04 -2.55583E+04  9.73878E+03 -3.40837E+04 -1.84897E+03 -3.05864E+04 -1.65267E+04
 -1.14759E+04 -2.26387E+04  7.23810E+03 -1.96519E+04  1.97679E+04 -1.41956E+04  2.02062E+04  4.26160E+03
  1.18622E+04  1.46367E+04 -9.84929E+03  1.52363E+04 -1.34182E+04  2.89218E+03 -9.35734E+03 -1.41668E+04
 -4.67528E+03 -1.50759E+04  9.68991E+03 -1.10738E+04  3.77254E+03  6.13174E+02  7.43233E+02  4.56284E+03
 -9.27739E+03  1.89129E+03 -5.63482E+03 -5.47106E+03  1.14102E+03 -1.17004E+04  1.04499E+04 -1.43978E+04
  1.38619E+04 -6.59070E+03  1.71241E+04  7.96759E+03  1.29471E+04  9.97821E+03  9.02802E+03  1.34799E+04
 -4.69979E+02  2.06234E+04 -1.25608E+04  1.29777E+04 -1.59501E+04  4.10973E+03 -8.28007E+03 -2.00979E+03
 -3.54172E+03 -8.08867E+03  1.41257E+03  1.34057E+03 -2.69348E+03  6.70595E+02 -3.04089E+03  1.06968E+04
 -6.86049E+03 -3.02506E+03 -9.55200E+03 -1.08129E+04 -9.76163E+03 -1.73945E+04  3.50874E+03 -1.52314E+04
  1.25149E+04 -3.26192E+03  2.41973E+03  2.19571E+03  1.93170E+03  9.73361E+03 -4.61173E+03  5.84974E+02
 -1.84740E+03 -7.05817E+03 -3.93380E+03 -1.34422E+04  7.87134E+03 -1.25796E+04  1.00986E+04 -1.76684E+03
  1.32209E+04  2.87297E+03  9.22548E+03  1.46449E+04  6.69003E+02  1.26855E+04 -7.25609E+03  1.02058E+04
 -1.02166E+04  1.87145E+02 -4.80820E+03  2.23937E+03  1.20042E+03 -5.77534E+03  6.65417E+03 -4.58018E+03
  4.21681E+03  2.06992E+03  6.15168E+03  6.69642E+03 -6.71953E+03  3.38430E+03 -7.47971E+03  4.56595E+03
 -6.69977E+03  4.50649E+02  4.57519E+03 -8.16106E+03  6.56008E+03 -1.90909E+03  6.88570E+03  2.40795E+03
  2.77830E+03  3.45867E+03 -6.16867E+03  2.41932E+03 -4.30613E+03  6.59538E+03 -8.70665E+03 -3.38681E+03
 -8.63728E+02 -9.97081E+03  4.38043E+03 -1.03218E+04  6.35017E+03 -6.55254E+03  7.97349E+03  3.48184E+03
  7.28246E+03  3.03277E+03 -2.67961E+03  8.32102E+03 -1.04858E+04  7.02094E+03 -3.68000E+03 -2.28404E+03
 -3.34757E+03 -8.50496E+03 -3.42428E+03 -8.29790E+03  3.12140E+03 -7.53671E+03  2.15112E+03 -6.74709E+03
  2.46849E+03 -1.84302E+03  8.22208E+02  9.10182E+02  3.51309E+03 -5.28588E+01  3.40063E+03 -1.78130E+03
  6.16651E+03 -1.96943E+03  3.98185E+03  1.62500E+03  4.47465E+03  4.68200E+03  6.74477E+03  9.83561E+03
 -6.09166E+03  8.33320E+03 -7.34245E+03  7.33575E+03 -1.59560E+04  2.78580E+03 -1.26515E+04 -4.07889E+03
 -1.02367E+04 -7.80348E+03 -2.19799E+03 -1.03905E+04  4.10316E+03 -5.81454E+03  6.09695E+03  1.13277E+03
  3.63533E+03  2.65179E+03  4.12165E+03 -3.04599E+03 -5.86193E+02 -2.45415E+03  3.98736E+03  7.94018E+02
  3.57464E+03 -7.48730E+02  5.88639E+03  4.78792E+03  4.51866E+03  4.12700E+03 -9.39152E+03  3.67879E+03
 -5.99981E+03 -2.18750E+03 -6.10373E+03  2.35938E+03  1.82593E+03 -6.61988E+03  8.61850E+02 -6.54516E+03
  5.37308E+03 -3.29291E+03  1.20672E+04  1.18723E+03  6.21370E+03  6.93086E+03  7.41046E+02  7.13408E+03
 -4.43389E+03  1.73800E+04 -4.71465E+03  4.85479E+03 -1.41032E+03 -2.22549E+03 -1.78503E+03  3.88551E+03
 -1.12917E+02 -2.48119E+03  2.20755E+03  3.14566E+03 -4.10425E+03  4.36623E+03 -8.29992E+03 -1.86729E+03
 -2.00107E+03 -5.19108E+03 -1.57066E+03 -3.59780E+03  5.56419E+03 -4.62158E+03  4.75896E+03  9.45441E+01
  7.45686E+03  5.90258E+03 -8.19500E+00  5.04149E+03 -1.84916E+02  5.64894E+03 -4.72162E+03  3.19656E+02
 -3.93841E+03  3.80828E+02 -3.83907E+03 -2.24539E+02  2.45953E+03 -3.20676E+03 -3.80864E+03 -1.73672E+03
  1.05281E+04 -1.58300E+03  8.71730E+02 -2.83230E+03 -1.15782E+03  4.07247E+03  9.74955E+02  5.07051E+03
 -1.52286E+03 -4.34463E+02  4.93974E+02 -3.61761E+03  1.32920E+03  6.02735E+02  1.42298E+03  5.16465E+03
 -1.32348E+03  7.53744E+03 -8.92530E+03  5.26670E+03 -3.59491E+03  3.95440E+02 -1.38662E+04 -2.84203E+03
 -6.41697E+02 -5.72598E+03  1.77121E+03 -4.81627E+03  1.04579E+03 -3.66870E+03  6.82117E+02  3.64816E+03
  2.77238E+03  3.69465E+03 -3.09687E+03  6.33545E+03 -2.16411E+03  3.73988E+03  9.61783E+02  6.49186E+03
 -7.87918E+02 -2.84747E+03  5.67900E+03 -1.43720E+03 -9.22054E+02  5.68938E+02  3.86298E+03 -3.80816E+01
 -2.51175E+03  3.46602E+02  1.52332E+03 -3.58968E+03 -5.35527E+02 -1.60769E+03  4.93474E+03 -6.98686E+02
  3.98756E+02  4.28997E+03  2.45330E+03  5.06506E+03  2.88836E+03  1.25781E+03 -1.22103E+03  1.29920E+03
 -1.65950E+03 -2.28704E+03 -6.19321E+03  2.35254E+03  1.87658E+03 -2.57913E+03  2.77460E+03 -6.43109E+01
  3.79905E+03 -2.38650E+03 -2.14784E+03 -2.46478E+03  2.77226E+03  4.76012E+03 -3.55101E+03 -1.14916E+03
 -1.18895E+03  2.76364E+03 -4.23189E+03 -2.59520E+03 -1.37115E+03  6.59812E+02  2.06991E+03 -4.51435E+03
 -1.87505E+03  1.43225E+03  1.01328E+03  8.16751E+02 -2.99686E+03 -5.85883E+02  2.31782E+03  1.87812E+02
  2.52151E+03  3.67693E+03  7.87586E+02 -3.20341E+03  4.52226E+03 -3.02005E+03  5.79586E+03  4.80154E+03
  3.87986E+03 -4.03564E+03  3.84630E+03 -2.75705E+03  1.10439E+01 -2.92186E+03 -1.94657E+03  5.29134E+03
 -4.93384E+03  1.70709E+03 -2.53172E+03  1.19099E+03  1.99804E+03 -2.32429E+03  6.16866E+03 -6.93470E+02
  2.68673E+03 -3.39160E+03  5.53853E+03 -6.38499E+02 -9.50153E+02  1.80799E+03 -1.84120E+03  3.17714E+02
 -6.52071E+02 -1.58830E+02 -1.96886E+03  7.36596E+03  4.68102E+02  2.53585E+03  2.54708E+03  2.65898E+02
 -3.82482E+03  9.10167E+02 -4.70281E+03 -9.03457E+02  2.68895E+03  5.02646E+02 -2.40768E+03  1.12464E+03
  3.10062E+03 -5.77292E+03 -1.84599E+03 -8.04684E+02  4.24407E+03 -3.60570E+03  5.00816E+03  6.47257E+01
 -1.42252E+02 -7.27596E+02 -4.35174E+02 -7.97100E+02  2.72942E+03  5.93145E+03 -1.71439E+03  2.70064E+03
 -4.26348E+02  4.23000E+03 -9.01255E+02  1.16071E+03  1.77892E+03  1.08528E+03  4.49442E+03 -1.92266E+03
 -4.69427E+03 -9.07203E+02  1.05272E+03 -8.98848E+02  1.74228E+02 -3.93740E+03 -3.13014E+03  3.81708E+03
 -4.87596E+03 -3.75302E+03  2.31807E+03  1.99774E+03  4.16595E+03  4.66582E+03  3.21709E+02 -4.37945E+02
 -2.19981E+03  3.29951E+03  8.30420E+01 -2.58083E+03  2.90819E+02  4.17990E+03 -5.13231E+02 -3.44067E+03
 -5.42929E+03 -5.33323E+03 -6.17281E+02 -4.23772E+03  9.92262E+02 -1.88636E+03  1.11940E+03  3.22270E+03
 -1.79170E+03  5.71259E+03 -2.38732E+03  4.44248E+02 -7.69063E+02 -5.05113E+03 -1.08845E+03 -6.84531E+02
  1.89413E+03 -8.24430E+02 -6.74197E+02  5.64269E+02  3.64395E+02 -1.80025E+03  1.94665E+03 -2.35469E+03
  8.64996E+02 -2.46428E+02  8.02353E+01 -3.24536E+02 -4.69597E+02  2.31061E+03  2.23454E+03  3.53483E+02
  2.19481E+03  4.35905E+03  2.39632E+03 -4.39664E+03  3.13136E+03 -2.57626E+03 -2.78848E+03  3.86167E+02
 -3.51752E+03  3.65348E+03 -2.55157E+03  3.39599E+03 -4.71982E+02 -4.95010E+02 -1.51231E+03 -2.87887E+03
  1.33766E+03 -4.23855E+02  2.74927E+03  2.26248E+03 -2.12714E+03 -6.65108E+01 -3.95909E+02  5.80575E+02
  2.30818E+03 -2.60136E+03 -3.43655E+03 -8.05785E+01  2.72289E+02  1.93746E+03 -8.34353E+02 -2.23581E+03
  2.06018E+03 -1.73760E+03 -2.62774E+03 -7.99833E+02 -5.79169E+02  1.53407E+02  2.67272E+03  2.25148E+03
