 $NMID ID='MM_0lb_SNR50_16hz_g40_34.RAW', FMTDAT='(8E13.5)'
 TRAMP=1., VOLUME=1. $END
  3.10194E+05  3.08734E+03  3.43329E+05  2.46874E+05  8.49113E+04  3.38647E+05 -1.30059E+05  2.52467E+05
 -1.87417E+05  8.81383E+04 -1.08298E+05 -3.14772E+04 -1.13837E+03 -5.23987E+04  5.57179E+04 -2.30849E+03
  3.37715E+04  5.04713E+04 -1.93796E+04  7.71938E+04 -6.05090E+04  6.35431E+04 -8.48187E+04  3.19544E+04
 -8.14646E+04 -9.53144E+03 -5.94621E+04 -5.68855E+04 -1.51984E+04 -7.32348E+04  2.33871E+04 -4.34328E+04
  3.92719E+04  9.94011E+02  1.28730E+04  4.67581E+04 -3.59290E+04  4.93479E+04 -6.69059E+04  9.07350E+02
 -4.85983E+04 -5.37042E+04 -6.55003E+03 -7.47748E+04  3.67191E+04 -5.37179E+04  4.19015E+04 -1.44135E+04
  4.74558E+04  1.22745E+04  2.90038E+04  2.02189E+04  1.60467E+04  2.91235E+04 -4.15737E+03  2.40703E+04
 -1.94568E+04  1.37774E+04 -1.91662E+04 -3.23883E+03  6.99617E+01 -4.54726E+03  2.26120E+04  1.17647E+04
  1.35355E+04  3.36123E+04 -3.27733E+04  3.48742E+04 -6.29620E+04  5.76365E+03 -5.96878E+04 -4.62566E+04
 -8.38500E+03 -6.06064E+04  3.91069E+04 -4.50369E+04  5.50005E+04  2.64605E+01  2.94819E+04  3.07437E+04
 -6.59970E+03  3.81559E+04 -2.86671E+04  1.71915E+04 -2.71273E+04 -7.73613E+03 -1.68079E+04 -7.59183E+03
 -1.00744E+04 -1.02681E+04 -2.02856E+02 -1.57396E+04  8.48792E+03 -2.31707E+04  1.23563E+04 -1.44495E+04
  1.22834E+04  6.26095E+03 -8.79689E+03  1.69423E+04 -2.21130E+04 -4.43773E+01 -4.36858E+03 -2.98363E+04
  2.78400E+04 -3.69172E+04  4.76225E+04 -2.10481E+04  3.95596E+04  1.64996E+04  1.59685E+04  4.32819E+04
 -1.70773E+04  2.87674E+04 -2.11750E+04 -1.75906E+03 -1.21121E+04 -2.95475E+04  2.15314E+04 -3.05677E+04
  3.66437E+04 -8.74361E+03  3.38115E+04  2.66787E+04  1.92018E+04  3.97177E+04 -7.35765E+03  4.49736E+04
 -2.52883E+04  3.01171E+04 -3.91580E+04  5.80988E+03 -4.11662E+04 -1.30548E+04 -2.24725E+04 -3.61270E+04
  5.02851E+03 -3.77630E+04  2.86306E+04 -1.12094E+04  3.02324E+04  8.27229E+03  2.97386E+03  1.67548E+04
 -1.30587E+04  8.22717E+03 -7.12542E+03 -8.47043E+03  4.81199E+03 -9.23727E+03  1.60839E+04  5.33135E+03
  1.25301E+04  2.53979E+04 -7.57159E+03  2.68579E+04 -1.66878E+04  1.07957E+04 -2.86915E+04 -3.76271E+02
 -1.79781E+04 -1.55149E+04 -1.03464E+04 -1.62033E+04  8.70591E+03 -1.43079E+04  1.51929E+04 -1.59612E+04
  2.36915E+04 -1.89410E+04  3.04879E+04  5.53253E+03  2.36863E+04  1.50659E+04  1.87926E+03  2.98048E+04
 -1.93519E+04  2.87556E+04 -2.54614E+04  1.07588E+04 -2.02292E+04 -9.97332E+03 -3.71423E+03 -1.21865E+04
  6.69336E+01 -5.93000E+03 -6.19172E+03  1.34971E+03 -1.63320E+04  6.68356E+03 -1.39112E+04 -4.48630E+03
 -1.18063E+04 -1.04624E+04  6.31554E+03 -2.00916E+04  1.63359E+04 -2.01715E+04  1.60419E+04 -6.66872E+02
  6.83627E+03  1.12696E+04 -2.22131E+03  1.75716E+04 -8.88098E+03  1.03135E+04 -1.54557E+04 -4.32258E+03
 -1.16287E+04 -1.52237E+04 -1.62184E+03 -2.06347E+04  1.13374E+04 -1.64777E+04  1.99454E+04 -8.90022E+03
  1.68098E+04  1.12462E+02  1.14743E+04  4.74804E+03  5.75382E+03 -1.49073E+03  7.28360E+03  3.74728E+03
  1.39546E+04  2.81186E+03  1.56280E+04  1.29169E+04  1.09504E+04  2.62374E+04 -1.78828E+03  3.12036E+04
 -1.96045E+04  2.03629E+04 -2.51471E+04  1.32928E+04 -2.34771E+04 -7.67840E+02 -2.12347E+04 -1.73115E+04
 -9.10938E+03 -2.78021E+04  9.04898E+03 -1.98791E+04  1.72272E+04 -1.18523E+04  1.83643E+04  3.73117E+03
  6.91491E+03  1.26596E+04 -8.16640E+03  1.25552E+04 -1.21600E+04  5.18443E+03 -1.28499E+04 -1.27975E+04
  2.49127E+03 -1.43847E+04  8.13373E+03 -1.33187E+04  7.84396E+03  8.37731E+02  2.10919E+03  9.35598E+03
 -7.67630E+03 -1.01271E+03 -3.15874E+03 -2.64298E+03  1.38243E+02 -1.06872E+04  7.39530E+03 -1.18814E+04
  1.52017E+04 -5.97233E+03  1.53787E+04  4.50587E+02  1.18901E+04  1.06887E+04  9.20710E+03  1.36510E+04
 -4.63416E+03  2.28247E+04 -1.08885E+04  1.27494E+04 -1.23093E+04  5.23333E+03 -9.76814E+03 -5.67003E+03
 -2.34880E+03 -4.55941E+03  1.14234E+03  2.63721E+03 -7.37200E+02  6.89418E+02  4.99900E+02  7.23620E+03
 -9.38663E+03 -1.04988E+03 -7.61306E+03 -7.72487E+03 -4.48787E+03 -1.46253E+04  6.61665E+03 -1.00717E+04
  1.05904E+04 -3.69475E+03  8.00340E+03 -4.18021E+02  6.88256E+02  1.63861E+03 -4.17625E+03 -4.71551E+03
 -3.75791E+03 -6.63910E+03  1.82321E+03 -1.15432E+04  5.00272E+03 -1.21369E+04  1.13655E+04 -8.57805E+03
  1.44022E+04 -3.54952E+03  1.07342E+04  9.58086E+03 -1.23565E+03  9.13365E+03 -7.54972E+03  8.00001E+03
 -5.87965E+03  3.14503E+03 -5.21220E+03  1.99070E+03 -1.21020E+03 -4.90434E+03  4.95766E+02 -5.76084E+03
  8.08103E+03  8.49793E+03  1.33826E+03  4.84783E+03 -3.64614E+03  1.01126E+04 -8.30418E+03 -6.64662E+02
 -3.48220E+03 -7.98832E+03 -1.50509E+03 -2.79576E+03  2.36042E+03 -9.13413E+03  1.02180E+04 -3.32473E+03
 -1.60181E+03  3.80832E+03 -5.02027E+03  7.09990E+03 -6.70242E+03  3.82628E+03 -2.87702E+03 -4.74650E+03
 -2.04542E+03 -7.88200E+03  3.95911E+03 -9.46020E+03  3.30796E+03 -9.40944E+03  9.35806E+03  1.31632E+03
  5.73106E+03  6.59973E+03 -1.41660E+02  9.31210E+03 -5.50703E+03  4.38865E+03 -1.00372E+04  5.96473E+02
 -4.14894E+03 -6.17200E+03  6.94608E+02 -5.02745E+03  4.89457E+03 -7.70935E+03  2.48375E+03 -2.03151E+03
  4.73155E+03  1.15040E+03 -1.53181E+03  1.11326E+03  2.45287E+03  2.72482E+03  2.02807E+03 -1.22619E+03
  1.18872E+03 -1.08251E+03  7.36240E+03  2.23959E+03  6.76665E+03 -1.40608E+03  1.00275E+04  3.67761E+03
 -1.25144E+03  9.26964E+03 -1.00652E+04  1.09999E+04 -1.56154E+04  3.21013E+03 -8.84565E+03 -3.78642E+03
 -8.59964E+03 -1.17197E+04  6.85802E+02 -7.56536E+03  2.87507E+03 -1.07348E+03 -8.01769E+01 -4.70134E+03
 -9.44645E+02 -4.13502E+03 -9.27053E+02 -4.21232E+02  6.66773E+03 -4.18759E+03  2.93106E+03 -4.73731E+03
  4.71814E+03  4.00875E+03  1.74311E+03 -7.16656E+02 -8.44038E+03  1.91994E+03 -2.72634E+03  5.83917E+03
 -9.35716E+03  6.48905E+02 -1.65053E+03 -1.02571E+04 -2.92067E+03 -6.92692E+03  5.37978E+03 -4.11054E+03
  6.83508E+03 -1.70178E+03  7.13736E+03 -4.41655E+03  8.69389E+03  5.70326E+03  4.99635E+02  9.76908E+03
 -3.16416E+03  7.04183E+03 -3.36359E+03  2.36655E+03 -4.07211E+03 -7.94925E+03  8.42504E+02  2.19305E+03
  1.90935E+03  3.73518E+03  2.85801E+03  1.98003E+03  5.50399E+02  3.00871E+03 -8.18513E+03 -2.06947E+03
 -5.74537E+03 -6.50289E+03  1.52782E+03 -2.45777E+03  6.19301E+03 -2.97928E+03  4.26150E+03 -1.56627E+03
  6.33904E+03  3.90959E+03  9.41681E+02  2.72149E+03 -3.52055E+02  5.04978E+03 -1.55290E+02  5.45517E+03
 -5.22970E+03  3.11718E+03 -3.29642E+03 -5.18585E+03  9.52742E+02 -6.66600E+03  1.29390E+03 -3.48449E+03
  5.13465E+03  5.81260E+02  9.16781E+02  1.39491E+03  3.25834E+03  5.41246E+03 -8.72065E+02 -2.11609E+03
  1.92081E+03 -2.60495E+03  3.11225E+02  9.02591E+01 -3.24022E+01  8.20299E+03  1.80766E+03  6.53226E+02
 -2.26371E+03 -3.37866E+02 -3.40909E+03  4.36441E+03 -1.01886E+03  1.55379E+03  9.20784E+02  1.37248E+03
 -4.78478E+03 -8.57024E+03 -2.93538E+03 -3.59731E+03  4.56139E+03 -7.24007E+02  5.25606E+03 -1.91904E+03
  4.00680E+03  1.78775E+02 -3.29546E+03  3.86442E+03 -9.10036E+03  4.02475E+03  1.54399E+03  1.25622E+03
 -5.87417E+03 -4.40610E+03  4.05192E+03 -4.68782E+03  1.88793E+03  4.17711E+02  5.91599E+03  9.12611E+02
 -2.46555E+03 -1.06858E+03  1.90252E+03 -3.59742E+03 -3.24992E+03  5.73930E+02  2.35190E+03 -8.94165E+02
 -2.79200E+03  3.41054E+03  5.44250E+02  7.88708E+02 -1.94636E+03  5.91309E+02  1.37848E+02  7.00027E+03
 -1.33949E+03  3.75597E+03 -3.60458E+03  1.62634E+03 -2.41302E+03  3.59486E+02 -6.61308E+01  1.64928E+02
 -6.94211E+02  1.87939E+03  2.00998E+03  4.71608E+02  7.05045E+03  1.48916E+03 -1.74644E+03  1.30527E+03
 -3.84846E+02  2.30834E+03 -3.87300E+03 -2.26139E+03  2.22992E+03 -4.34178E+03 -2.32934E+02 -6.78896E+03
  3.45637E+02 -3.67044E+03  1.16734E+03  2.67206E+03  3.76629E+01 -5.84693E+02  9.47082E+02  5.00586E+03
 -2.26674E+03 -7.83561E+02 -2.43204E+03 -2.96552E+03  3.13317E+03 -3.58597E+03  1.47010E+02 -1.88940E+03
  3.84317E+03  4.44198E+02  1.96221E+03 -2.50545E+03  2.53060E+03  5.09996E+03  5.49377E+03  4.08930E+03
 -2.44561E+03  4.88363E+03 -3.73688E+03 -3.03987E+03 -7.22417E+03 -5.03482E+03 -1.28818E+03 -8.49470E+02
  2.57903E+03 -1.45678E+03  1.06987E+03 -2.14807E+01  3.48482E+03 -2.54214E+02 -2.10624E+02  1.87963E+03
  1.96104E+03  2.95813E+03  2.83130E+02 -3.01363E+03  5.79940E+02 -4.00255E+03 -1.72551E+03 -1.05063E+03
 -5.92904E+02  2.83538E+03 -1.75705E+03  4.10492E+03 -8.40312E+03  1.28744E+03 -1.23913E+03  9.57167E+02
  8.68819E+02 -3.89035E+03  5.11615E+03 -3.24204E+03  5.35008E+03 -5.66742E+02  5.81541E+03 -1.58026E+03
  5.11521E+03 -7.27563E+02  5.02225E+03  2.91370E+03 -2.44890E+03  4.50818E+03  8.09163E+02  4.99696E+03
 -1.03837E+03  3.95440E+03  1.12526E+03  3.73664E+02 -1.66287E+03  3.76761E+03  1.51683E+02 -2.36909E+03
  2.06809E+03  2.88062E+03 -8.86976E+02  4.59747E+02  1.56045E+03 -1.10449E+03 -1.35825E+03 -9.48657E+02
  4.64598E+03 -2.11386E+03  4.54639E+03  6.21055E+03  6.49001E+03  9.77011E+02 -3.79622E+02  2.64025E+03
 -1.51006E+03 -8.11765E+02 -4.19779E+03 -2.76880E+02  7.03202E+01  3.73607E+03 -2.31140E+02  8.62685E+02
 -1.86796E+03  1.68726E+02  6.79542E+03  6.75004E+02 -7.45018E+02 -2.03100E+03  2.05379E+03 -4.36696E+02
 -5.64998E+02 -1.29187E+03  1.48388E+03  4.30726E+03  1.25075E+03 -4.15815E+03  1.83657E+03  2.41267E+03
 -2.28223E+03 -3.70309E+03  3.41657E+03 -6.32457E+03  1.62724E+03  1.75896E+02  7.71893E+02  2.24904E+03
  2.94269E+02  1.83269E+03 -3.84344E+03  5.86057E+02 -2.27015E+03  3.66025E+03  3.72733E+03 -4.17481E+03
  6.10655E+02 -8.62796E+02  3.43483E+02 -2.87859E+03  7.10551E+03  2.04603E+03 -3.71303E+01 -7.39010E+02
 -3.27062E+03  3.68441E+03  6.27197E+02  1.21340E+03 -1.30624E+03  5.94404E+03 -4.87967E+03 -1.57770E+03
 -6.53595E+02  3.54815E+03 -1.27159E+01 -5.18256E+03 -2.17160E+03  1.14910E+03 -1.28072E+03 -2.25254E+03
  5.28468E+02 -2.68881E+03 -6.61610E+03 -2.64905E+03  6.77362E+02  5.61733E+02  1.26858E+03  1.64211E+03
  4.34623E+03  3.38514E+03 -1.49559E+03 -1.63677E+03 -5.32508E+03  3.70233E+03 -2.11300E+03  2.53394E+03
