 $NMID ID='MM_0lb_SNR50_15hz_g55_69.RAW', FMTDAT='(8E13.5)'
 TRAMP=1., VOLUME=1. $END
  3.09175E+05 -6.03244E+02  3.37261E+05  2.50125E+05  8.85622E+04  3.36205E+05 -1.29037E+05  2.45247E+05
 -1.93614E+05  8.53569E+04 -1.12390E+05 -3.39823E+04  2.53490E+03 -4.93468E+04  5.48937E+04 -2.60866E+03
  3.01748E+04  5.33734E+04 -1.64605E+04  7.59520E+04 -6.48587E+04  6.23035E+04 -8.65264E+04  3.30304E+04
 -8.26045E+04 -9.94547E+03 -5.53508E+04 -5.68263E+04 -1.33534E+04 -7.13120E+04  2.82144E+04 -4.93032E+04
  3.98233E+04  6.96698E+03  1.55422E+04  4.80249E+04 -3.13258E+04  4.65093E+04 -6.16329E+04 -1.60860E+03
 -5.61944E+04 -5.23861E+04 -5.04027E+03 -7.70256E+04  3.69018E+04 -5.53914E+04  4.74974E+04 -1.81520E+04
  3.90778E+04  1.05228E+04  3.24907E+04  2.73347E+04  1.68806E+04  3.10751E+04 -8.52747E+03  2.87307E+04
 -2.00713E+04  8.36093E+03 -1.76759E+04 -5.38558E+03  4.60999E+03 -5.44762E+03  2.38514E+04  1.22558E+04
  1.49137E+04  3.50850E+04 -3.39636E+04  3.33027E+04 -6.57776E+04  2.93452E+02 -5.17229E+04 -4.10849E+04
 -1.51320E+04 -6.31728E+04  4.07681E+04 -3.97664E+04  5.97180E+04 -5.43536E+03  3.59798E+04  3.30592E+04
 -1.27599E+03  3.54633E+04 -3.04783E+04  1.58810E+04 -2.96689E+04 -8.49259E+03 -1.89836E+04 -1.10731E+04
 -8.02158E+03 -1.49642E+04 -1.80011E+03 -1.67597E+04  4.74273E+03 -2.19981E+04  1.82501E+04 -1.59669E+04
  1.31864E+04 -1.72214E+02 -3.83487E+03  1.64417E+04 -1.87415E+04  1.51354E+02 -7.30280E+03 -3.53779E+04
  2.49943E+04 -4.48980E+04  5.16424E+04 -2.20821E+04  4.47358E+04  2.08647E+04  1.77776E+04  3.89136E+04
 -1.52967E+04  3.27586E+04 -2.72210E+04  1.29328E+03 -8.32815E+03 -2.35662E+04  2.43520E+04 -3.39584E+04
  4.25662E+04 -7.02191E+03  3.72422E+04  2.64112E+04  1.94628E+04  4.51929E+04 -1.06837E+04  5.16971E+04
 -3.15139E+04  3.18410E+04 -3.98663E+04  7.04120E+03 -4.47709E+04 -1.49372E+04 -2.16982E+04 -3.99201E+04
  1.19543E+04 -3.55154E+04  2.93186E+04 -1.61027E+04  2.86901E+04  1.08240E+04  7.92066E+03  2.05487E+04
 -7.41298E+03  9.77119E+03 -1.10938E+04 -1.06554E+04  1.00476E+04 -1.13680E+04  1.54733E+04  7.76133E+03
  1.40820E+04  2.20780E+04 -2.53819E+03  2.44339E+04 -2.45150E+04  1.28922E+04 -2.45233E+04 -1.67790E+03
 -1.89805E+04 -1.97121E+04 -6.21182E+03 -1.80076E+04  5.36612E+03 -2.36788E+04  1.71414E+04 -2.02899E+04
  2.41709E+04 -1.89126E+04  2.93670E+04  1.54819E+03  2.57043E+04  2.66289E+04 -6.01229E+02  3.35752E+04
 -1.97511E+04  2.86161E+04 -2.84243E+04  1.10754E+04 -1.73355E+04 -1.16721E+04 -5.94402E+03 -1.25308E+04
  1.84203E+03 -2.49629E+03 -2.56655E+03  3.11008E+03 -1.94722E+04  5.86820E+03 -1.88794E+04 -6.61048E+03
 -7.56042E+03 -1.98862E+04  2.86500E+03 -1.82819E+04  1.30567E+04 -1.24909E+04  2.12714E+04 -3.42217E+01
  1.17962E+04  9.21519E+03 -3.89294E+03  1.50211E+04 -9.89407E+03  9.38091E+03 -1.20853E+04 -5.00284E+03
 -7.58842E+03 -1.81251E+04  7.29111E+02 -1.78202E+04  9.51678E+03 -1.99913E+04  2.25560E+04 -1.18169E+04
  1.93544E+04  4.14075E+03  9.05586E+03  1.63423E+03  8.17930E+03 -1.02367E+02  8.59435E+03 -2.18858E+02
  2.48815E+04  5.11742E+03  1.61319E+04  1.88439E+04  1.24999E+04  3.09745E+04 -5.94629E+03  3.23818E+04
 -2.36047E+04  3.10920E+04 -3.06929E+04  1.18549E+04 -2.98219E+04 -3.54175E+03 -3.15720E+04 -1.81753E+04
 -1.29866E+04 -2.50968E+04  9.25883E+03 -2.78375E+04  2.54513E+04 -1.30390E+04  2.35622E+04  5.09777E+03
  7.76066E+03  1.22548E+04 -4.23973E+03  1.14137E+04 -1.83858E+04 -3.27864E+02 -1.28759E+04 -9.56056E+03
  4.37269E+03 -1.72431E+04  5.82246E+03 -1.12235E+04  2.06183E+04  4.50646E+03  3.23616E+03  8.95357E+03
 -1.20249E+03  1.95127E+03 -6.24362E+03 -8.45446E+03 -2.71208E+03 -1.27631E+04  7.76211E+03 -1.46417E+04
  1.42911E+04 -3.83280E+03  1.70023E+04  3.21720E+02  1.46232E+04  1.51301E+04  9.57039E+03  2.34547E+04
 -4.75388E+02  2.61457E+04 -1.87827E+04  1.43746E+04 -1.69388E+04  6.37580E+03 -5.78845E+03 -2.46397E+03
 -5.07345E+03 -5.59288E+03 -1.23334E+03 -5.53090E+02  1.79566E+03  5.16867E+03 -5.56654E+03  1.93557E+03
 -4.66670E+03 -3.01091E+03 -1.04483E+04 -8.67275E+03 -1.07463E+03 -1.61651E+04  6.41479E+03 -1.41870E+04
  7.69978E+03 -3.08127E+03  8.49195E+03  3.41733E+03  3.24816E+03  4.46533E+03 -4.86077E+03 -2.05009E+03
 -3.09425E+03 -3.09199E+03 -2.06698E+03 -6.21499E+03  3.59174E+03 -1.00291E+04  1.20238E+04 -2.89722E+03
  1.53800E+04  3.72486E+02  1.23481E+04  9.34367E+03 -3.95252E+02  1.19797E+04 -8.25255E+03  5.17798E+03
 -6.86726E+03  4.94650E+03 -5.11931E+03 -4.63720E+03  1.16727E+03 -2.05635E+03  4.76787E+03  2.65513E+02
  4.63996E+03  6.68707E+03 -1.17819E+03  8.26867E+03 -3.41745E+03  7.34306E+03 -7.24662E+03  1.88344E+03
 -1.24434E+04 -4.21551E+03 -2.48281E+03 -6.22234E+03  2.94068E+03  4.43454E+03  8.02120E+03  5.42831E+03
 -2.32624E+03  1.08038E+04 -4.56050E+03  4.36341E+03 -8.79034E+03  4.33522E+03 -1.31278E+04 -8.87608E+03
 -6.50435E+03 -9.63492E+03  1.15551E+03 -8.12925E+03  8.97182E+03 -7.54444E+03  1.10537E+04 -2.43920E+03
  1.05297E+04  1.00653E+04 -7.12914E+02  4.76894E+03 -7.48257E+03  4.74260E+03 -2.86166E+03  5.65790E+02
 -7.29367E+03 -3.18503E+03  1.44805E+03 -9.85364E+03 -4.07146E+02 -4.01087E+03  5.92133E+03 -1.85897E+03
  7.25485E+03 -2.00901E+02 -9.79994E+02  5.50398E+03  2.37903E+03 -3.10781E+03  4.83733E+03 -7.01475E+03
  2.30193E+03 -2.67464E+03  7.07506E+03  3.24882E+03  7.81430E+03  7.54402E+03  3.75196E+03  8.41921E+03
 -2.14415E+03  1.06527E+04 -9.83935E+03  1.43513E+04 -1.43371E+04  3.40984E+03 -8.93336E+03 -5.16593E+02
 -5.76838E+03 -7.83495E+03 -2.44526E+03 -6.10538E+03  4.50204E+03 -7.53038E+03 -6.44034E+02 -4.96311E+03
  3.47556E+03 -3.35529E+02  4.57142E+03 -4.16734E+03 -3.07696E+03 -5.86807E+03  2.99451E+03 -3.47255E+03
  5.27529E+03  5.21500E+03  1.08116E+03  6.44268E+03  6.88420E+02  7.96884E+03 -7.19472E+03  7.88364E+02
 -5.52300E+03  4.56935E+03 -2.71983E+03 -2.99935E+03  1.29285E+03 -8.90557E+03 -5.27996E+02 -7.11839E+03
  8.06241E+03 -6.13548E+03  7.01168E+03 -2.98818E+03  8.18657E+03  1.04230E+04  1.16500E+03  9.74629E+03
 -4.62041E+03  8.15295E+03 -5.92917E+03 -2.55376E+02 -1.02609E+02  1.05276E+03  3.32105E+03  6.01495E+02
 -6.13080E+03  2.55225E+03 -3.86810E+03  1.74172E+03 -3.09267E+03 -1.23396E+03 -4.69017E+03  2.19632E+03
 -2.32284E+03 -4.29128E+03 -1.49760E+03 -1.01364E+04  4.80136E+03 -5.94927E+03  6.87302E+03 -3.22521E+03
  9.40587E+03 -1.36262E+03  9.16429E+02  4.72378E+03  3.82313E+03  1.18038E+03 -2.63423E+03  6.26062E+03
 -5.99954E+03  1.15200E+03 -9.51686E+03 -3.55664E+02  1.28322E+03 -8.53343E+03  3.91931E+03 -7.21302E+02
  6.06732E+03 -9.38873E+02  5.26876E+03  2.22717E+03  4.29083E-01  4.23852E+03  3.28077E+03  1.35013E+03
  1.86901E+03  1.64090E+03 -5.15429E+03  1.72230E+03  8.12919E+02  4.18612E+03  3.57229E+03  2.29080E+03
 -4.03493E+02  7.76977E+03 -1.19947E+03  3.29147E+03 -7.64474E+03 -6.92547E+02 -1.03602E+04  6.33974E+02
 -1.24194E+03 -9.71983E+03 -7.20669E+02 -8.64283E+03  3.62707E+03 -4.13512E+03  6.88175E+03 -3.27252E+03
  6.56840E+03  2.86022E+03  1.69193E+03  3.94264E+03 -1.97558E+03  5.56718E+03  3.05862E+03 -6.13870E+02
  2.66342E+03 -2.13451E+03 -3.12657E+03  4.17670E+02  1.04511E+03 -3.08791E+03  1.21667E+03  2.19866E+03
  1.60636E+03  3.13419E+03  2.47270E+03  2.38480E+03  2.81746E+03  2.30987E+03 -3.32470E+03  1.64874E+03
  7.06838E+03  7.46729E+02  3.51206E+03 -3.70329E+03  2.66881E+03  5.76970E+03 -4.85126E+03  5.71955E+03
 -3.81947E+03  4.99751E+03 -4.24582E+03  5.84003E+03  2.63996E+02  1.23932E+03 -5.96189E+02 -1.07846E+03
  2.71554E+03 -3.14481E+03 -1.42573E+03  3.74318E+03  5.61387E+03  5.39242E+03  1.51893E+03 -1.06385E+03
 -2.96435E+03  4.39553E+03 -2.63935E+03 -4.91892E+03 -1.16478E+03 -3.63160E+03 -3.18539E+03 -2.19324E+03
 -4.40922E+03 -6.24428E+02  2.80369E+03  3.26755E+02  5.12627E+03  4.39925E+03  2.01875E+03  4.64202E+01
  2.12292E+03  3.56046E+03  4.46173E+03  2.66058E+03  2.26603E+03 -2.13117E+03  9.46303E+02 -7.70752E+03
  4.45214E+03 -2.32812E+02  5.29806E+03  8.25880E+02  2.85033E+03  3.77372E+03 -1.83982E+03  2.58814E+02
 -4.18254E+03  2.24095E+03 -4.40186E+03 -1.43924E+03  6.09747E+01  2.97012E+03 -3.22755E+03 -3.96373E+03
 -2.05854E+03 -1.45750E+03 -1.71571E+02  2.95770E+02 -2.03365E+02  2.95437E+03  3.37835E+03  7.06593E+03
 -2.04503E+03  2.00749E+03 -4.60612E+02  7.23206E+02  2.01609E+03  1.62758E+03 -1.47581E+03  2.06908E+03
 -2.15650E+03  5.48730E+02 -3.15672E+03  1.36807E+03 -4.01086E+03 -1.40280E+03 -6.57940E+03 -6.10408E+03
  4.98619E+03 -3.88129E+02  4.29891E+03 -5.54323E+02 -1.71371E+03 -5.84529E+03  5.32292E+03 -3.71164E+03
  6.40418E+02 -2.75622E+03  1.22484E+03  3.67167E+03  1.11638E+03  4.75191E+03 -1.24858E+03 -3.38858E+03
  2.46451E+03 -4.93469E+03 -2.50623E+03  5.24484E+03 -3.48392E+03  1.21296E+02 -9.25167E+02  2.10264E+02
  2.17687E+03  1.38572E+03  3.05222E+03 -4.79779E+03  6.38298E+02 -3.48638E+03 -9.25426E+02 -1.54356E+03
  3.65960E+02 -3.00798E+03  2.52717E+03 -1.95845E+03  4.77997E+03  1.24644E+03 -8.19564E+02  3.26849E+03
  6.55890E+02  5.97150E+03 -2.37889E+03  4.66085E+03 -2.10650E+03 -2.38656E+01 -5.00862E+03 -2.17790E+01
 -7.89531E+02 -1.66817E+03  2.38068E+03 -4.58780E+03  1.81816E+03 -2.06255E+03  1.83138E+03  2.95739E+03
 -2.73769E+03  1.15395E+03  3.63946E+03  2.70987E+03 -2.15034E+03  1.56947E+03  5.26932E+03  6.97912E+02
  1.61010E+03  6.18140E+03  2.49469E+02 -2.34762E+03  1.53341E+03  1.06404E+03 -2.46733E+03  1.18608E+03
 -5.00731E+03  4.60971E+03 -7.32691E+01  3.55197E+03 -6.76938E+03 -2.30409E+03  4.67884E+03 -4.48832E+03
  2.62229E+03 -5.11523E+03 -1.83094E+03 -1.39230E+03  3.47129E+03  3.12275E+03  1.36398E+03  3.59135E+03
 -4.50399E+02  4.48342E+03 -5.02040E+02 -1.62946E+03 -1.12792E+03  1.70341E+03 -1.97314E+01 -5.62506E+02
  2.17698E+03 -1.34195E+03 -8.55224E+02 -2.74283E+03 -2.44188E+02  1.19529E+03  3.47158E+02  1.98150E+03
 -2.31333E+03 -2.77123E+03 -6.94989E+01 -7.94784E+02  4.80456E+02 -4.85824E+02 -3.38747E+02 -1.35770E+03
  1.68505E+03  1.22561E+03  1.21478E+03  4.04783E+03 -4.39562E+03  2.55802E+03 -6.46266E+03  1.66255E+03
