 $NMID ID='MM_0lb_SNR50_17hz_g40_44.RAW', FMTDAT='(8E13.5)'
 TRAMP=1., VOLUME=1. $END
  3.07845E+05  6.24934E+03  3.37954E+05  2.48851E+05  7.99963E+04  3.36375E+05 -1.30797E+05  2.48263E+05
 -1.87768E+05  8.33403E+04 -1.13946E+05 -3.44425E+04  5.27067E+03 -5.20597E+04  4.88607E+04 -1.26800E+02
  3.39705E+04  4.99466E+04 -2.00093E+04  7.52145E+04 -6.06648E+04  5.97545E+04 -8.62328E+04  3.12774E+04
 -7.73933E+04 -9.01943E+03 -6.09751E+04 -5.50605E+04 -1.28277E+04 -6.99646E+04  2.85845E+04 -4.43792E+04
  3.83826E+04  6.41833E+03  1.16700E+04  4.99899E+04 -3.54928E+04  4.79389E+04 -6.43991E+04  2.50439E+03
 -4.89874E+04 -5.51100E+04 -1.36354E+03 -7.09159E+04  3.29812E+04 -5.37635E+04  4.48875E+04 -1.52367E+04
  4.52016E+04  7.77380E+03  2.97527E+04  2.94335E+04  1.63467E+04  2.62981E+04 -3.94188E+03  2.58523E+04
 -2.29831E+04  1.38984E+04 -1.89030E+04 -4.69544E+03  8.15827E+03 -9.55790E+03  2.21046E+04  1.16440E+04
  1.91488E+03  3.21842E+04 -2.58168E+04  3.28961E+04 -5.90561E+04  2.82919E+03 -5.58339E+04 -4.24386E+04
 -1.40261E+04 -6.31278E+04  3.92942E+04 -4.63273E+04  5.27841E+04 -1.04606E+02  3.13759E+04  2.94942E+04
 -6.10272E+03  3.46513E+04 -2.78096E+04  1.18444E+04 -2.36800E+04 -5.63327E+03 -1.49401E+04 -7.92504E+03
 -5.41467E+03 -1.02297E+04 -6.83149E+02 -1.55118E+04  5.80399E+03 -2.11882E+04  1.11032E+04 -1.48581E+04
  1.28031E+04  4.40246E+03 -9.74709E+03  1.31727E+04 -2.34959E+04 -1.54451E+03 -8.05689E+03 -3.40885E+04
  2.55471E+04 -4.09441E+04  4.31620E+04 -1.57408E+04  4.45476E+04  1.65328E+04  1.77398E+04  4.24113E+04
 -1.45339E+04  3.25460E+04 -2.72043E+04  2.63864E+03 -6.90785E+03 -3.04435E+04  1.99501E+04 -3.20175E+04
  4.51013E+04 -9.86217E+03  3.40532E+04  2.05994E+04  1.66397E+04  4.33306E+04 -1.13909E+04  4.49618E+04
 -2.82534E+04  2.85425E+04 -3.47837E+04  8.16696E+03 -3.41318E+04 -1.61644E+04 -2.15187E+04 -3.39204E+04
  1.35847E+03 -3.06048E+04  2.65626E+04 -1.57281E+04  2.14393E+04  1.20888E+04  6.91479E+03  1.77530E+04
 -1.26656E+04  6.88682E+03 -1.14316E+04 -2.13451E+03  5.52484E+03 -7.86157E+03  1.43200E+04  4.11614E+03
  8.33149E+03  2.42532E+04 -4.51480E+03  2.24838E+04 -1.95033E+04  1.12343E+04 -2.56801E+04 -5.39628E+03
 -1.64986E+04 -1.43618E+04 -1.08566E+04 -1.83405E+04  8.28714E+02 -1.29686E+04  1.11408E+04 -1.75712E+04
  2.27140E+04 -1.23861E+04  2.93253E+04  1.09272E+03  2.34733E+04  1.45586E+04  8.22793E+03  3.88027E+04
 -1.64057E+04  2.64766E+04 -2.54119E+04  8.89483E+03 -2.00811E+04 -4.28211E+03 -1.19252E+03 -1.23113E+04
  3.84908E+03 -2.67317E+03 -2.61911E+03  2.65033E+03 -1.51770E+04  6.53785E+03 -9.38029E+03 -3.69946E+03
 -1.05117E+04 -1.38159E+04  5.57482E+03 -2.05663E+04  1.00248E+04 -1.28312E+04  1.58443E+04 -4.97492E+03
  1.41299E+04  1.32691E+04 -3.53685E+03  1.69797E+04 -1.70799E+04  7.99567E+03 -2.04283E+04 -5.76132E+03
 -1.21554E+04 -1.41041E+04 -2.68165E+03 -1.61558E+04  8.38858E+03 -1.52617E+04  1.84526E+04 -6.60346E+03
  1.53023E+04  8.95823E+02  9.42786E+03  7.18926E+03  4.61322E+03 -2.83824E+03  6.24153E+03 -3.32793E+03
  9.16940E+03  1.48470E+03  1.92168E+04  1.71260E+04  1.03567E+04  2.55382E+04 -2.37403E+03  2.72303E+04
 -1.53178E+04  2.46318E+04 -2.87819E+04  1.01735E+04 -2.87267E+04 -1.98969E+03 -2.20853E+04 -1.40867E+04
 -1.41666E+04 -2.04149E+04  5.40224E+03 -2.02461E+04  1.54523E+04 -1.66627E+04  1.28428E+04  4.61753E+03
  1.05046E+04  1.15467E+04 -1.03438E+04  1.12061E+04 -1.68074E+04  1.38475E+03 -8.80133E+03 -4.57391E+03
  1.95223E+03 -1.17372E+04  4.25214E+03 -1.21997E+04  5.79831E+03  4.41031E+03  5.37616E+02  4.51645E+03
 -5.25460E+03 -1.20395E+03 -4.67436E+03 -3.30049E+03  5.34866E+03 -7.50967E+03  1.05626E+04 -1.91119E+04
  7.50073E+03 -9.46811E+03  1.55526E+04  1.36565E+03  8.49329E+03  1.07473E+04  8.42464E+03  1.97303E+04
 -2.73156E+03  1.53504E+04 -1.36673E+04  8.01540E+03 -1.08130E+04  6.15294E+02 -8.86677E+03 -1.31307E+03
 -2.32919E+03 -8.32342E+03  1.87785E+03  1.47303E+02 -5.60843E+02  9.81886E+02 -3.48399E+03  2.52423E+03
 -1.04482E+04  3.82703E+03 -5.18505E+03 -1.22680E+04 -5.34952E+03 -1.39392E+04  5.38035E+03 -1.11427E+04
  6.90769E+03 -6.21983E+03  8.38000E+03 -4.08916E+02 -3.11218E+03  4.36013E+03 -8.61033E+02  1.31309E+03
 -2.36625E+03 -8.32046E+03 -3.80003E+03 -7.59194E+03  3.27742E+03 -9.67974E+03  6.64982E+03 -2.91516E+03
  1.08413E+04 -1.03746E+03  6.66849E+03  7.66356E+03  2.75511E+03  1.03344E+04 -5.44423E+03  9.28664E+03
 -3.16147E+03  9.02437E+03 -2.73143E+03 -4.42508E+03 -8.96560E+02 -4.09042E+03  5.15512E+03 -2.08702E+03
  6.60784E+03  3.25866E+03 -4.09570E+02  9.66888E+03 -6.26969E+03  6.97763E+03 -6.54077E+03 -1.51590E+03
 -1.17571E+04 -5.42718E+03  2.73964E+03 -6.71775E+03  3.53389E+03 -1.11910E+03  3.29701E+03  2.21751E+02
  1.27012E+03  4.11455E+03 -7.63628E+03  3.71788E+03 -1.12247E+04  5.61860E+02 -8.60829E+03 -2.27909E+03
 -3.87453E+02 -1.24998E+04  4.62307E+03 -7.79670E+03  5.17874E+03 -7.38397E+03  8.24279E+03  5.59139E+02
  6.03753E+03  6.82413E+03 -8.79231E+02  4.46663E+03 -6.85681E+03  5.51287E+03 -2.99996E+03 -1.59762E+03
 -3.92899E+03 -4.98788E+03 -1.50106E+03 -7.03855E+03  2.88439E+03 -6.97142E+03  6.31795E+03 -2.58479E+03
  2.67401E+03  4.50017E+03  2.43498E+03 -7.41185E+02  3.32268E+03 -1.29559E+03 -1.29910E+03 -2.50642E+03
  6.24683E+03 -2.53997E+03  7.19301E+03 -1.11467E+03  9.81913E+03  1.84907E+03  3.37786E+03  5.28783E+03
 -7.21403E+03  1.39887E+04 -1.08130E+04  4.80921E+03 -1.50246E+04 -2.46170E+03 -6.65566E+03 -1.67771E+03
 -1.07193E+03 -1.09348E+04 -1.62337E+03 -5.66617E+03  1.54235E+03 -4.34732E+03 -1.51188E+03 -3.98699E+03
  4.04668E+03 -4.28870E+03  8.55794E+02 -3.30552E+03  5.24471E+03 -2.30748E+03  6.91571E+03 -4.99777E+03
  3.70089E+03 -3.24262E+03  5.44462E+03  3.32827E+03 -3.88210E+03  3.42126E+03 -1.39713E+03  2.71576E+03
 -8.11991E+03  2.14112E+03 -2.63929E+03 -6.97075E+03 -1.36822E+03 -4.97083E+03  4.94693E+03 -6.32624E+03
  5.70130E+03 -2.32851E+03  1.00668E+04 -1.82126E+03  2.99196E+03  8.27536E+03  5.17432E+03  4.65363E+03
 -4.02390E+03  8.37520E+03 -4.89546E+03  1.72015E+03 -2.77492E+03  1.32100E+03 -1.28461E+02  2.45496E+03
 -1.35134E+01  1.91415E+03  3.41699E+02  5.34831E+03 -6.69151E+03  1.13604E+02 -4.11456E+03 -1.54080E+03
 -5.86450E+03 -3.11174E+03 -2.06557E+03 -6.25362E+03  4.65469E+03 -1.32465E+03  6.98920E+03 -3.36786E+03
  9.03215E+03  1.34338E+03 -1.29648E+03  4.64657E+03 -4.00207E+03  5.27576E+03 -3.23144E+03  4.26726E+03
 -2.87798E+03  1.75742E+03 -1.50255E+03 -7.45726E+03  9.09333E+02 -5.47558E+03 -9.59297E+02 -4.24170E+03
  5.64950E+03 -2.61012E+03  6.89942E+03  3.33825E+03  2.10381E+02  2.41411E+03  2.13142E+03  3.18777E+03
 -3.87922E+03  2.71310E+03  1.13802E+03 -6.54096E+02  2.61094E+02  4.23395E+03 -6.16685E+02  2.88265E+03
 -1.41608E+03  3.08098E+02  1.31143E+02  3.44317E+03 -3.14953E+03  7.17473E+02 -5.83763E+03  2.05923E+03
 -2.87653E+03 -5.47631E+03  2.00809E+03 -6.27839E+03  3.83638E+02 -2.40150E+03  6.69812E+03 -2.16996E+03
  3.42909E+03  1.88368E+03  1.11996E+02  9.34736E+02 -1.99197E+00  2.93583E+03  1.63536E+03  4.53292E+03
 -6.24328E+01 -1.66280E+03 -3.68706E+02  6.92420E+02  1.55278E+03 -1.82796E+03  2.02111E+03  2.58740E+03
  2.35653E+03 -3.73394E+02  2.68365E+03 -8.55439E+02  8.04967E+02  7.34204E+02  2.67687E+03 -2.54288E+03
  1.92421E+03 -1.03067E+03  4.79716E+03 -5.02096E+03  1.23595E+03 -9.65156E+02 -1.52885E+03  4.80831E+03
  1.69630E+03  6.84258E+03 -1.02145E+03  2.54476E+03  1.19620E+03 -3.17969E+03  6.74225E+02 -3.89780E+03
 -1.99237E+03 -3.88543E+03  3.57890E+03 -3.46019E+02  1.83891E+03  1.10667E+03  3.54921E+03 -8.74829E+02
 -1.92563E+03  4.28493E+03 -3.44084E+03  3.30917E+02 -2.83016E+01 -3.81009E+03  1.22250E+03 -3.13029E+03
  5.60662E+03 -3.04869E+03 -2.90605E+03 -2.52092E+03  3.23613E+03 -1.00547E+03  3.38197E+02  3.41668E+03
  1.26997E+02  2.40559E+02 -1.66332E+03 -4.58645E+03 -6.63590E+02  2.25612E+03 -2.27187E+03 -5.42963E+03
 -1.13534E+03 -1.22524E+03  3.67629E+03 -2.95178E+02  6.26290E+02 -2.43558E+02 -8.64671E+02 -3.14799E+02
 -7.57667E+03  9.78900E+00 -7.42868E+02  2.61163E+03 -2.73966E+03 -5.32065E+03  2.24113E+03 -2.90159E+03
 -3.87390E+03 -2.48035E+03  3.30446E+03  1.73325E+03 -2.11861E+03 -1.69623E+03  2.57427E+03  3.97990E+03
  1.48634E+03 -8.48237E+02 -1.61955E+03 -2.67348E+03  2.97650E+03  4.34496E+03  4.12598E+02  3.29877E+03
  2.79866E+03  1.06728E+02 -6.31743E+03  2.62869E+03  2.45693E+03  1.33914E+03 -3.13734E+03 -2.99174E+03
 -3.94410E+03 -2.81255E+03  2.52685E+03 -8.42499E+02  5.29089E+03 -1.40320E+03  3.17534E+03  2.25012E+03
  3.37721E+03 -2.70253E+02  4.71058E+03  9.02171E+02 -3.08860E+03  4.20489E+03  3.76194E+03  2.37348E+03
 -6.40475E+03  1.04423E+03 -4.62517E+03 -2.63804E+02 -3.13883E+02  3.36795E+03  1.03097E+03  3.20295E+03
 -5.36935E+03  5.00636E+02 -1.74796E+03 -3.89982E+02 -7.51035E+02  4.26746E+02 -2.86006E+03  3.90851E+02
  2.12927E+03 -5.35704E+03  1.29566E+03 -7.89693E+02  1.77556E+03 -4.09665E+03 -3.20628E+03  2.12194E+03
 -3.21423E+03  1.65791E+03 -6.08890E+03  5.21719E+03 -3.28362E+03  2.84252E+03 -3.29003E+03  4.70060E+02
 -4.45803E+03  5.23431E+02  4.10744E+03 -2.32177E+03  1.16683E+03 -3.23262E+03  2.56531E+03  1.84632E+03
  5.66819E+02  4.12025E+03  1.75774E+02  7.02114E+02 -8.21246E+02 -4.77811E+03  1.10527E+03  2.85893E+03
 -8.13327E+02  1.61227E+03 -3.76346E+02  3.36581E+03 -1.05503E+03 -1.66515E+03  2.25703E+03 -3.05345E+02
  6.58761E+02 -2.54460E+03 -1.23920E+03  3.41863E+03 -3.76288E+03  6.54334E+02 -1.10014E+03 -3.96915E+03
 -5.54084E+02 -5.21098E+01 -2.42902E+02  9.35024E+02 -5.34096E+02 -9.36766E+02  1.46983E+02 -4.43976E+02
 -5.15219E+03  5.59801E+02 -2.82944E+03  3.73971E+03 -2.75558E+03 -1.19866E+03 -4.05394E+03 -3.73975E+03
 -4.33935E+03 -1.64492E+03 -2.77117E+03  3.18999E+03 -2.40781E+03 -2.85124E+03 -1.45850E+03  2.08908E+02
 -3.97081E+03  2.39247E+01  2.52387E+02 -5.10094E+03  5.16998E+03 -4.94499E+03  2.20167E+03 -1.87833E+03
  4.04172E+02 -6.19056E+02 -1.22706E+03  6.26562E+03 -2.20798E+03  5.66991E+03 -1.19187E+03  1.78741E+03
