 $NMID ID='MM_0lb_SNR50_19hz_g50_46.RAW', FMTDAT='(8E13.5)'
 TRAMP=1., VOLUME=1. $END
  3.09302E+05  4.07456E+03  3.41282E+05  2.52346E+05  8.65262E+04  3.33434E+05 -1.35696E+05  2.47977E+05
 -1.89835E+05  8.17573E+04 -1.09514E+05 -3.08657E+04 -1.02395E+03 -4.63726E+04  5.72675E+04 -2.62001E+03
  3.54743E+04  5.49217E+04 -1.89406E+04  7.33935E+04 -5.68366E+04  6.13381E+04 -7.71202E+04  3.33960E+04
 -7.89637E+04 -1.10320E+04 -5.78524E+04 -4.59253E+04 -1.75575E+04 -6.82914E+04  2.67306E+04 -4.53349E+04
  3.79965E+04  5.95291E+03  1.83993E+04  4.69006E+04 -3.28278E+04  4.68635E+04 -6.32603E+04 -1.40376E+03
 -4.93736E+04 -5.76547E+04 -5.82138E+03 -7.59501E+04  3.19319E+04 -5.46232E+04  4.33979E+04 -1.73106E+04
  4.09494E+04  1.40786E+04  2.57724E+04  2.27573E+04  1.65295E+04  3.08038E+04 -3.90155E+03  2.94368E+04
 -2.11813E+04  1.48864E+04 -1.66282E+04 -1.13136E+03  6.62525E+03 -8.34385E+03  2.34746E+04  1.42696E+04
  8.51793E+03  3.53577E+04 -3.45952E+04  3.18457E+04 -6.30183E+04  2.00290E+03 -5.22834E+04 -4.53295E+04
 -1.06147E+04 -6.19660E+04  3.61606E+04 -4.49966E+04  5.59335E+04 -1.68874E+03  3.39930E+04  2.96961E+04
 -7.96324E+03  3.71504E+04 -2.84093E+04  1.38927E+04 -3.01184E+04 -3.21499E+03 -1.99639E+04 -9.04163E+03
 -8.98469E+03 -1.02421E+04 -1.41514E+03 -1.34610E+04  5.35135E+03 -2.36872E+04  1.26763E+04 -9.37516E+03
  1.01382E+04  6.71756E+03 -2.01231E+03  1.32162E+04 -2.16268E+04 -1.99076E+03 -7.21346E+03 -3.09960E+04
  2.09905E+04 -4.36415E+04  4.28823E+04 -1.86649E+04  3.82133E+04  1.72310E+04  1.31464E+04  4.46522E+04
 -1.92462E+04  3.06150E+04 -2.48490E+04 -5.11465E+02 -1.13701E+04 -2.51168E+04  2.10516E+04 -3.22316E+04
  3.40145E+04 -1.03478E+04  3.39462E+04  2.01376E+04  1.64940E+04  4.39282E+04 -1.13397E+04  5.01569E+04
 -2.76694E+04  2.91663E+04 -3.97172E+04  8.32736E+03 -4.20190E+04 -1.43386E+04 -2.32962E+04 -3.22559E+04
  5.88148E+03 -3.72839E+04  2.79248E+04 -1.55944E+04  3.01866E+04  8.85984E+03 -1.40092E+03  1.78205E+04
 -9.85060E+03  1.72983E+03 -5.92619E+03 -9.75087E+03  8.00107E+03 -1.02842E+04  2.04485E+04  8.72722E+03
  1.35155E+04  2.48663E+04 -9.78737E+03  2.07515E+04 -2.03509E+04  9.73757E+03 -2.64768E+04 -5.65478E+03
 -1.84900E+04 -1.66341E+04 -8.48446E+03 -1.93286E+04  1.44477E+03 -1.47163E+04  1.32904E+04 -1.23220E+04
  2.27454E+04 -1.05694E+04  2.52354E+04  7.92845E+02  2.04638E+04  1.59869E+04  6.60385E+03  2.73669E+04
 -1.60548E+04  2.84438E+04 -2.75316E+04  9.28759E+03 -2.18861E+04 -8.56475E+03 -1.16556E+03 -1.67645E+04
  6.42473E+03 -6.41703E+03 -4.52068E+03  6.97698E+03 -1.16516E+04  4.81028E+03 -1.36969E+04 -9.06772E+03
 -9.25371E+03 -1.42095E+04  4.57693E+03 -1.70565E+04  9.27905E+03 -1.59734E+04  1.54653E+04 -1.96806E+03
  1.14149E+04  1.17208E+04 -2.15631E+03  1.77030E+04 -8.89364E+03  1.20789E+04 -1.57837E+04 -5.12560E+03
 -7.57932E+03 -1.35087E+04  4.36128E+03 -1.62472E+04  9.04451E+03 -1.68660E+04  1.62291E+04 -9.32136E+03
  1.01133E+04  2.65293E+03  1.17229E+04  6.63265E+03  4.91857E+03 -7.20385E+02  6.76354E+03 -5.45257E+03
  1.53076E+04  2.37289E+03  1.60012E+04  1.24352E+04  6.89312E+03  2.54971E+04 -5.36458E+03  2.30062E+04
 -1.42033E+04  2.05746E+04 -2.35491E+04  9.66134E+03 -2.22161E+04 -2.83340E+03 -2.09592E+04 -1.61299E+04
 -8.80785E+03 -2.20598E+04  7.26724E+03 -2.09806E+04  1.37762E+04 -1.46099E+04  1.70741E+04  4.30938E+03
  7.51194E+03  8.73576E+03 -9.35565E+03  1.09519E+04 -1.31614E+04  5.03133E+03 -9.19899E+03 -8.96974E+03
  5.92741E+02 -1.22102E+04  2.77687E+03 -4.89217E+03  5.46853E+03 -1.21865E+03  5.74810E+02  5.46809E+03
 -5.64603E+03 -2.31345E+03 -1.77256E+03 -4.90161E+03  3.21529E+03 -7.98435E+03  1.34389E+04 -1.15913E+04
  1.23412E+04  2.71838E+02  1.09914E+04  2.35636E+03  7.68379E+03  9.54239E+03  6.46426E+03  1.11848E+04
 -3.79072E+03  1.65288E+04 -9.18862E+03  1.35858E+04 -7.05694E+03 -6.94541E+02 -8.40331E+03 -1.79745E+03
 -7.21593E+03 -2.87566E+02 -1.43233E+03  3.16977E+02  8.81397E+02  2.52311E+03 -2.98677E+03  3.20008E+03
 -8.83708E+03 -1.60159E+03 -1.11869E+04 -8.75314E+03 -7.59710E+03 -1.13570E+04  1.17756E+03 -9.17009E+03
  2.68109E+03 -2.37182E+03  2.17394E+03  9.69312E+02  2.09738E+02  4.04944E+03 -3.06398E+03  4.86540E+03
 -5.46395E+03 -3.92673E+03 -7.31945E+02 -1.03994E+04  3.37913E+03 -1.04352E+04  9.56287E+03 -1.79158E+03
  1.23897E+04  5.26449E+03  7.96182E+03  4.26282E+03  3.74771E+03  9.33152E+03 -8.68713E+03  5.58542E+03
 -2.79252E+03  4.12959E+03 -6.50324E+03  3.20370E+02 -1.66517E+03 -1.89969E+03  4.24165E+03 -2.39801E+03
  4.77758E+03  5.50354E+03 -1.58390E+02  5.77904E+03 -4.24576E+03  7.32672E+03 -1.10325E+04 -5.84056E+02
 -3.00379E+03 -3.06727E+03 -2.21635E+03 -5.29459E+03  4.64579E+03 -1.85475E+03  2.92177E+03  3.90767E+03
 -9.15241E+02  5.32017E+02 -2.16927E+03  4.84718E+02 -5.02497E+03  9.09198E+02 -5.12362E+03 -4.50131E+03
 -3.30958E+03 -4.36590E+03  2.49130E+03 -1.08309E+04  6.87794E+03 -1.46612E+03  8.62542E+03  1.18585E+03
  6.02942E+03  2.42765E+03 -4.25753E+01  6.84979E+03 -1.80435E+03  1.95480E+03 -5.58712E+03  1.71977E+03
 -3.89473E+03 -2.52149E+03 -1.69278E+03 -6.07291E+03  2.16306E+03 -9.72123E+03  5.86198E+03 -3.58451E+03
 -2.44713E+02 -2.69904E+03  1.20816E+03 -2.24718E+03  1.81657E+03 -2.12775E+03  5.04919E+02 -1.91778E+03
  4.63114E+03 -3.38179E+03  4.09516E+03  4.34094E+02  4.00006E+03  4.33089E+03  7.25759E+03  5.36635E+03
 -4.19129E+03  8.05109E+03 -7.31844E+03  5.46303E+03 -1.21036E+04  5.30778E+03 -4.49231E+03  2.11412E+02
 -2.40949E+03 -7.82220E+03 -1.95351E+03 -2.08480E+03 -8.55590E+02 -3.19725E+02  1.85684E+03 -3.91596E+03
  4.33579E+03 -3.13227E+02  3.42550E+03 -2.94291E+03  6.17170E+03 -2.09575E+03  1.74804E+03 -1.42238E+03
  5.14666E+03  1.74330E+03  2.32688E+03  1.63673E+03 -9.55348E+02  2.95863E+03 -2.19652E+03  2.16692E+03
 -5.14292E+03 -1.36214E+03  4.09442E+02 -1.82357E+03 -3.57704E+03 -5.93857E+03  7.06683E+03 -2.84686E+03
  1.58447E+03 -5.76040E+03  1.04434E+04  1.64937E+03  4.06398E+03  4.11233E+03 -3.55388E+02  7.35634E+03
  4.83924E+03  1.52324E+03 -1.17981E+03  2.13131E+03 -2.57298E+03  1.64854E+03  3.57066E+03 -2.08438E+03
 -2.54932E+03  3.39649E+03 -3.51392E+03  1.47323E+03 -9.88220E+03  3.16839E+03 -6.10333E+03 -3.85798E+03
 -5.18546E+03 -6.57970E+02  1.99557E+03 -7.85497E+02  3.54595E+03 -2.06400E+03  7.25404E+03 -1.71819E+03
  3.02968E+02  4.80695E+03  1.75314E+03  2.29542E+03  1.05781E+03  2.14559E+03 -7.12930E+03  2.46190E+03
 -3.57786E+03  1.87782E+03 -6.70245E+03 -9.41377E+03 -2.14896E+03 -2.85173E+03  3.87536E+03 -3.93783E+03
  1.73192E+02  8.95070E+01  4.40418E+03  3.97379E+03 -3.60486E+02 -4.46532E+03 -2.82327E+03  1.50517E+03
 -2.29723E+03 -7.82222E+02  1.47235E+03  3.29562E+03  2.24686E+03  1.19787E+03  2.87975E+03  2.05753E+03
  2.24650E+03  2.45578E+03 -2.84421E+03 -6.12816E+02 -5.03534E+03  7.86671E+02 -5.68021E+03 -2.26566E+03
  3.34468E+03 -5.63127E+03 -1.60389E+03 -5.72772E+03  2.41377E+03 -1.35825E+03  1.51503E+03  1.25691E+03
  4.80589E+03  8.12648E+02  5.96447E+02  2.73575E+03 -5.79709E+03  7.51810E+03 -3.44657E+03 -4.63620E+03
 -3.16508E+03 -8.28411E+03  4.87827E+03 -3.96071E+03  1.63039E+03 -4.40561E+03  2.93943E+02  2.93498E+02
 -4.71762E+02  2.41983E+02  9.07958E+02 -9.75302E+02 -2.47200E+03  9.05154E+02  3.90263E+02 -9.05362E+02
  2.27716E+03 -1.13623E+03  8.51434E+03  4.28991E+03  4.43787E+03  5.49286E+03 -2.97442E+03  2.45614E+03
 -1.42492E+02  4.09075E+03 -3.46836E+03 -1.00381E+03 -5.89421E+03 -1.63857E+03 -3.52831E+03 -7.44640E+01
 -7.25229E+02 -1.76384E+02 -1.09026E+03  1.92937E+03  6.92512E+02 -1.92462E+02 -2.40392E+03  1.22127E+03
  2.11332E+03  6.67514E+03 -2.19128E+03  3.00699E+03 -5.26390E+02 -4.60793E+03  1.34007E+03 -3.01600E+03
 -2.53919E+03  4.35407E+03  3.05264E+03  1.87865E+02  6.49673E+02 -9.34745E+01  1.23605E+03  3.81915E+03
  2.88404E+02  1.37145E+03  1.00215E+03 -2.73445E+03 -1.59273E+03 -5.47578E+02  5.91487E+03 -3.38395E+02
 -1.89749E+03  6.41808E+02  5.23536E+03  2.62480E+03  2.84923E+03  2.91518E+03  5.15551E+03  6.47686E+03
 -1.31929E+03 -9.95745E+02 -4.92595E+03 -8.50494E+02  2.58761E+03 -6.55210E+02  9.48570E+02 -1.03705E+03
  3.25308E+03  4.82295E+03  3.38075E+02 -2.23362E+03 -1.57524E+03  8.68050E+02  6.90755E+02 -3.81069E+02
 -7.65547E+03  1.15155E+03 -3.87191E+03  7.25150E+02  1.88878E+03  6.58430E+02  4.40097E+02 -9.58093E+02
 -4.73516E+03 -3.08683E+03 -2.90450E+03 -1.75798E+03  3.32581E+03 -5.09276E+03 -3.90803E+03 -2.84214E+03
  1.47902E+03 -1.88708E+03 -1.80227E+03 -7.28334E+02 -2.08115E+03 -3.15088E+03  2.57240E+02 -9.51977E+02
  4.44844E+02 -2.90364E+03 -9.13236E+02  1.33502E+03 -3.41300E+02  2.36825E+03 -1.24146E+03  9.13067E+02
 -1.86779E+03  3.34223E+02 -2.77423E+03 -5.42607E+03  3.36426E+03 -1.78657E+03  6.58278E+02  1.18119E+03
  1.87960E+01 -1.13713E+03  1.26922E+03 -5.58524E+03 -2.48749E+02  1.80754E+03  1.20226E+03 -1.07985E+03
 -3.50899E+02 -2.20076E+03  5.23266E+03  1.77592E+03 -2.32057E+03 -2.00282E+03 -2.63885E+03  2.58245E+03
 -4.63324E+03  2.14331E+03 -1.86926E+03  3.83765E+02  3.94120E+01  1.36321E+03  9.82326E+02 -2.91676E+03
 -2.58983E+03  1.37979E+03  1.11334E+03 -4.68342E+03 -5.72398E+02  4.29473E+03  6.97929E+02  1.67729E+03
  3.01830E+02 -3.34163E+03 -2.10810E+03  1.54060E+03 -2.88030E+03 -9.18418E+02  6.44004E+02 -1.57851E+03
  3.58721E+03 -1.11683E+03 -1.29110E+03 -4.52451E+02  5.44886E+03 -2.01051E+03  8.33526E+02  1.95500E+03
 -7.14215E+02  1.28431E+02 -2.39514E+02 -2.80460E+03 -1.34578E+03  1.46694E+03 -2.07097E+03  5.64227E+02
  3.70031E+03  2.87548E+02 -4.42808E+03  1.78830E+03  2.20585E+03 -1.89573E+03 -4.07493E+03  9.80272E+02
 -2.91880E+03  1.75485E+03 -1.60518E+03  3.05338E+02  4.65238E+03  6.64585E+02  1.37178E+03  3.65111E+03
  1.76681E+03 -4.20842E+03 -2.31606E+03 -1.36089E+03 -3.31142E+02 -4.58457E+03 -6.81597E+02  1.55831E+03
  9.49928E+02 -1.12182E+03  3.13704E+03 -4.49310E+03  1.62316E+03 -2.85183E+03 -4.79046E+02 -2.86278E+03
 -3.49319E+03 -6.47665E+03 -3.76715E+03 -1.71475E+03 -8.94743E+02  2.39499E+03 -3.05238E+02 -3.66472E+03
