 $NMID ID='MM_0lb_SNR50_10hz_g55_31.RAW', FMTDAT='(8E13.5)'
 TRAMP=1., VOLUME=1. $END
  3.10014E+05 -3.38951E+02  3.41356E+05  2.53824E+05  8.29176E+04  3.35412E+05 -1.31981E+05  2.58277E+05
 -1.86570E+05  7.97514E+04 -1.07420E+05 -3.16690E+04  6.44126E+03 -4.72813E+04  5.33163E+04  4.36441E+03
  3.88638E+04  5.34383E+04 -2.01626E+04  7.60790E+04 -5.63219E+04  6.32721E+04 -9.15036E+04  3.45580E+04
 -8.32443E+04 -1.14469E+04 -5.63683E+04 -4.95507E+04 -1.05902E+04 -7.09098E+04  2.89328E+04 -4.50056E+04
  4.12930E+04 -1.93687E+03  1.39501E+04  4.05282E+04 -3.51057E+04  4.58950E+04 -6.32585E+04 -3.27356E+03
 -5.39752E+04 -5.80050E+04 -8.11270E+03 -7.89054E+04  3.56500E+04 -5.27906E+04  5.22103E+04 -1.33613E+04
  4.78885E+04  1.01060E+04  3.31774E+04  2.88222E+04  1.47227E+04  2.96537E+04 -2.07187E+03  3.24505E+04
 -2.08365E+04  1.32348E+04 -2.19787E+04 -7.86717E+03  7.64394E+03 -6.53765E+03  3.13191E+04  1.28468E+04
  2.31626E+03  3.89099E+04 -3.59553E+04  4.13379E+04 -6.23826E+04 -2.88779E+02 -5.67478E+04 -4.19063E+04
 -1.02876E+04 -6.09850E+04  4.22759E+04 -4.27169E+04  6.39268E+04 -3.48066E+03  3.96345E+04  3.48198E+04
 -5.56796E+03  3.79308E+04 -2.79177E+04  1.58866E+04 -2.90601E+04 -7.66793E+03 -1.60654E+04 -1.47825E+04
 -1.59632E+04 -1.27517E+04 -1.53209E+03 -1.33207E+04  4.61846E+03 -2.98608E+04  1.64705E+04 -7.61929E+03
  8.34724E+03  3.70606E+03 -8.98117E+03  1.04805E+04 -1.93640E+04 -1.01215E+04 -3.09216E+03 -4.06188E+04
  2.84413E+04 -4.74689E+04  5.43751E+04 -2.42192E+04  4.69971E+04  1.66187E+04  1.78087E+04  4.99205E+04
 -1.54767E+04  3.63412E+04 -2.89174E+04  1.54176E+03 -1.23888E+04 -3.10287E+04  2.56653E+04 -3.35872E+04
  4.98025E+04 -1.12644E+04  4.14404E+04  2.55633E+04  2.26945E+04  5.51818E+04 -7.97751E+03  5.80783E+04
 -3.49789E+04  4.00349E+04 -4.89123E+04  8.74110E+03 -4.63787E+04 -1.43046E+04 -2.48999E+04 -4.36405E+04
  1.12000E+04 -3.79940E+04  3.29792E+04 -1.07402E+04  3.58887E+04  1.25379E+04  6.00916E+03  2.64399E+04
 -1.12122E+04  7.43126E+03 -5.75881E+03 -9.40013E+03  8.78749E+03 -9.34852E+03  1.62384E+04  5.41763E+03
  1.53635E+04  1.76345E+04 -1.51728E+03  2.12133E+04 -2.11268E+04  6.82688E+03 -2.61646E+04 -6.27366E+03
 -2.69620E+04 -2.15024E+04 -1.17861E+04 -2.39964E+04  9.17491E+03 -1.91411E+04  1.47065E+04 -2.38311E+04
  3.24257E+04 -1.68180E+04  3.75046E+04  8.50608E+03  2.63157E+04  2.56249E+04  5.51314E+03  4.08222E+04
 -2.01942E+04  2.96683E+04 -2.95598E+04  8.47863E+03 -2.02689E+04 -4.17642E+03  1.01455E+03 -9.41187E+03
  3.41511E+03  6.66732E+03 -7.62239E+03  8.94295E+03 -2.29635E+04  6.57810E+03 -1.83799E+04 -9.33941E+03
 -6.87383E+03 -2.51200E+04  1.18297E+04 -2.50797E+04  2.16972E+04 -2.17327E+04  2.40629E+04 -1.33032E+03
  1.53716E+04  1.26690E+04 -3.45446E+03  2.19270E+04 -1.50250E+04  8.19808E+03 -1.87498E+04 -6.72351E+03
 -2.36247E+04 -1.99741E+04 -3.84360E+03 -2.83283E+04  1.09832E+04 -2.28359E+04  1.67865E+04 -1.10893E+04
  1.73200E+04 -4.96530E+03  1.53660E+04  6.95717E+03  9.41602E+03 -6.77698E+02  9.88685E+03 -4.99113E+03
  2.52596E+04  4.57463E+03  1.79162E+04  1.69873E+04  2.03736E+04  3.78054E+04 -2.72305E+03  4.09417E+04
 -2.04875E+04  3.52141E+04 -4.23406E+04  2.73081E+04 -3.84555E+04 -6.52670E+03 -3.59859E+04 -3.19377E+04
 -1.49246E+04 -3.62327E+04  1.43696E+04 -3.04170E+04  2.76945E+04 -2.14416E+04  2.08383E+04  6.68135E+03
  2.25061E+03  1.90522E+04 -8.89498E+03  1.88219E+04 -2.28668E+04  1.01373E+03 -2.02955E+04 -1.22468E+04
 -1.45813E+03 -1.99498E+04  1.61954E+04 -1.80391E+04  8.90612E+03 -9.65088E+03  3.86976E+03  1.21286E+04
 -1.18631E+04  1.31822E+03 -5.29483E+03 -5.21015E+03  9.82132E+02 -1.36580E+04  1.36695E+04 -2.06480E+04
  1.99877E+04 -9.94466E+03  2.35235E+04  2.47991E+03  2.50305E+04  2.25323E+04  1.38948E+04  2.62296E+04
 -3.69717E+03  2.93776E+04 -2.78652E+04  2.08568E+04 -2.03696E+04  2.86941E+03 -1.53083E+04 -5.87478E+03
 -5.19606E+03 -7.80492E+03 -3.79250E+01  6.88766E+03 -1.14442E+03  9.81901E+03 -5.22686E+03  4.72969E+03
 -1.35889E+04 -1.16171E+03 -1.08178E+04 -8.91412E+03 -7.66895E+03 -2.25389E+04  4.46378E+03 -1.08762E+04
  7.93029E+03 -5.20515E+03  8.53919E+03  1.98162E+02  8.77552E+02  9.79572E+03 -6.36359E+03  2.56777E+03
 -5.81926E+03 -1.09304E+04  5.24839E+03 -1.24281E+04  1.12704E+04 -1.36244E+04  1.60137E+04 -6.83853E+03
  2.58691E+04  2.59339E+03  1.00886E+04  1.58597E+04 -2.95055E+03  2.08565E+04 -1.14775E+04  1.39238E+04
 -7.38550E+03  3.76880E+03 -6.29076E+03 -5.45086E+03  2.64695E+03 -5.71350E+03  6.68491E+03  3.78584E+03
  9.36410E+03  6.72722E+03 -1.33692E+03  1.23943E+04 -5.51489E+03  1.65544E+04 -9.53560E+03  4.37169E+02
 -6.36855E+03 -4.50043E+03 -1.09133E+04 -1.08718E+04  1.01477E+04 -1.59417E+03  1.21747E+03  3.35093E+03
  6.56366E+03  1.16160E+04 -8.48798E+03  1.07177E+04 -9.27205E+03  9.60447E+02 -1.45508E+04 -2.09504E+03
 -1.16807E+04 -1.54456E+04  5.38829E+03 -1.30567E+04  7.73552E+03 -8.14058E+03  1.46092E+04  1.93936E+03
  1.05480E+04  1.13140E+04  2.62209E+03  1.54739E+04 -1.11203E+04  6.90998E+03 -1.03473E+04 -3.12856E+03
 -9.84062E+03 -9.80922E+03  2.47944E+03 -8.39965E+03  1.24007E+03 -1.20043E+04  5.77772E+03 -5.47561E+03
  6.28006E+03  2.78437E+03  3.66706E+03 -2.91731E+02 -5.21332E+03 -2.66123E+03  3.77721E+03 -3.48686E+03
  1.38121E+04 -1.55933E+03  1.24274E+04 -2.58661E+03  1.38149E+04  7.68805E+03  7.19924E+03  1.74065E+04
 -2.90953E+03  1.95407E+04 -2.57168E+04  1.93400E+04 -1.92637E+04  6.90002E+03 -1.91819E+04 -1.26231E+04
 -1.14916E+04 -1.41132E+04 -2.01224E+03 -1.89799E+04  3.34776E+03 -4.05407E+03  7.02898E+03  3.88587E+03
  2.35739E+03 -1.03756E+04 -3.80660E+02 -5.70499E+03  1.16603E+04  3.21480E+01  9.15946E+03  8.55428E+03
  1.29688E+04  5.15466E+03  4.67989E+03  3.90239E+03 -1.10740E+03  1.29185E+04 -9.41759E+03  8.73501E+03
 -9.85978E+03  3.14499E+02 -6.03301E+03 -1.47021E+04  7.77773E+02 -1.24523E+04  1.17039E+04 -1.96027E+04
  1.43993E+04 -4.50543E+03  2.35294E+04  2.33864E+03  1.64461E+04  9.57695E+03  4.78071E+03  1.62630E+04
 -1.08529E+04  7.69552E+03 -1.15307E+04  8.52415E+03 -3.45762E+03 -1.17415E+03 -7.43764E+03 -2.51831E+03
 -2.40188E+03 -1.91360E+03 -3.01151E+03  6.43448E+02 -5.56614E+03  4.36572E+03 -1.06921E+04 -5.28340E+03
 -6.23251E+03 -4.26565E+03 -7.96106E+02 -1.47492E+04  9.16211E+03 -1.32358E+04  1.23722E+04 -6.43026E+03
  9.90110E+03  1.02508E+04  7.07027E+03  9.46794E+03 -4.34406E+03  1.15314E+04 -6.75850E+03  1.25094E+04
 -1.14865E+04  3.87762E+03 -9.48503E+03 -8.62957E+03 -7.90491E+02 -9.91692E+03  6.74935E+03 -4.82704E+03
  1.54607E+04 -3.16382E+03 -1.37670E+03  4.49657E+03  1.42917E+03  6.51473E+03  4.54326E+03  3.29106E+03
  1.35569E+03  4.31375E+03 -5.37828E+02  1.24291E+03  1.53330E+03  6.31440E+03 -3.32597E+03  4.73055E+03
 -1.81161E+03  8.17906E+03 -1.22270E+04  9.37674E+03 -1.18268E+04  2.78587E+03 -1.79290E+04 -4.48890E+03
 -9.26994E+03 -1.35134E+04  1.23139E+03 -1.52978E+04  9.77593E+03 -1.51851E+04  8.48219E+03 -5.79634E+02
  1.22390E+04  3.70421E+03 -2.18010E+03  9.89116E+03 -5.81557E+03  7.04475E+03 -3.14611E+03 -2.10224E+03
 -3.94455E+02 -5.38239E+03  3.84987E+03 -8.33614E+03  1.55279E+03 -2.75073E+03  3.27824E+03  4.66126E+03
  7.83927E+03 -3.74706E+03 -4.32682E+03  1.64474E+03  2.26100E+03  2.42668E+01 -4.67148E+03  2.22672E+03
  2.97063E+03  8.45098E+02 -2.71062E+03  2.26260E+03  4.49584E+03  6.62897E+03 -1.89181E+03  1.32231E+04
 -4.89327E+03  3.03978E+03 -8.18050E+03 -3.87594E+02 -1.24795E+04 -1.08094E+04 -2.76352E+03 -4.48378E+03
 -1.45960E+03 -3.70022E+03 -1.21709E+03 -1.43030E+03  1.78114E+03  2.23817E+03 -5.14349E+03  3.20972E+03
 -4.12484E+03  1.73869E+03  1.53787E+03 -3.37896E+03 -4.25468E+03 -7.79852E+03 -1.85037E+03  3.84483E+02
 -4.60879E+01 -1.49637E+03  4.59159E+03  6.09704E+03  9.48406E+03 -1.96468E+02  2.81624E+03  1.04761E+03
 -1.43216E+02  2.56256E+03 -3.05930E+03 -7.54801E+03  2.56568E+03 -7.48476E+03  1.95338E+02  5.54015E+02
  7.07590E+03  1.22841E+03  1.18518E+04  6.67491E+03 -1.04689E+03  4.49074E+03  1.63887E+01  6.91871E+03
 -1.19587E+03 -1.40676E+02 -5.73930E+03  1.00669E+03 -7.67585E+03 -3.53558E+03 -4.33940E+03 -1.81613E+02
  2.34305E+03 -2.90958E+03  6.55598E+03  7.54305E+03  2.04045E+03  1.11394E+04 -1.77707E+03  4.97185E+03
 -1.99180E+03  3.12517E+03  1.64846E+03  2.26441E+03  2.70162E+03  2.38262E+03 -7.60171E+03  5.83744E+02
 -3.22730E+03  1.01906E+04 -1.29533E+04  1.65183E+03 -1.27216E+04  2.18463E+03 -8.27262E+03 -1.09759E+04
 -7.42976E+03 -1.13033E+03  5.22238E+03 -8.75074E+03  6.33117E+03 -9.74782E+03  1.38135E+04 -3.46002E+02
  1.31239E+04 -4.62606E+03  5.10581E+03  7.34391E+03 -1.35813E+03  1.37133E+04  3.58247E+03  8.70944E+03
 -3.74619E+03 -3.45152E+02 -6.59268E+03  3.20513E+03 -2.98990E+03  2.99125E+03 -5.14404E+03 -1.70701E+03
 -3.07756E+03 -3.02591E+03 -7.78766E+02 -7.52142E+02 -6.71817E+03 -4.27391E+02 -2.00332E+03  1.62686E+03
  7.42842E+03 -3.96465E+03  4.51905E+03 -1.63463E+03  5.90869E+03  4.07640E+03  2.27945E+03  7.88197E+03
 -5.88568E+03  1.42774E+04 -3.92822E+03  1.95536E+03 -1.29762E+04  1.73898E+03 -5.01193E+03 -5.93256E+03
 -4.94267E+03 -1.43058E+04 -2.68735E+02 -3.97561E+03  7.77189E+03 -3.23420E+03  6.19704E+03 -2.87635E+03
  5.31063E+03 -9.79859E+02 -7.90806E+02  9.11212E+03 -3.13873E+03 -3.23510E+03 -7.30144E+03 -1.03013E+03
  6.81560E+03  2.92920E+02  3.76858E+03  1.10076E+03  7.91603E+03  1.73998E+03  1.13435E+03  7.47168E+03
 -1.64501E+03  8.55902E+03 -8.53062E+03  1.46844E+03 -7.91587E+03 -7.19331E+03 -5.66061E+02 -1.10539E+04
  2.40143E+03 -2.96681E+02  6.11882E+03 -3.19997E+03  8.36263E+03  4.05887E+02  1.56693E+03  8.11089E+03
 -7.11165E+03  6.05675E+03 -5.26205E+03  8.36368E+03 -8.84389E+03  6.27783E+03 -9.50798E+03  2.94696E+02
 -6.59522E+02  7.80757E+02  1.79709E+03 -3.08344E+03 -9.52448E+02  3.92820E+03 -2.31961E+03 -2.47014E+03
 -1.53507E+03  2.80328E+03  4.27897E+03 -6.75357E+03  9.07040E+03 -1.44311E+03  2.93634E+02 -8.55369E+03
  1.57084E+04  1.57784E+03  6.72405E+03  5.25809E+03 -5.48159E+03  5.39184E+03 -5.73663E+03 -9.78820E+02
