 $NMID ID='MM_0lb_SNR50_8hz_g60_40.RAW', FMTDAT='(8E13.5)'
 TRAMP=1., VOLUME=1. $END
  3.10524E+05  7.90109E+02  3.33942E+05  2.42386E+05  9.23819E+04  3.31878E+05 -1.34251E+05  2.56283E+05
 -1.90229E+05  8.59135E+04 -1.17929E+05 -3.17858E+04 -1.72761E+02 -4.73277E+04  5.55910E+04 -4.14013E+03
  3.36494E+04  4.70691E+04 -1.89888E+04  8.13613E+04 -6.06583E+04  6.12866E+04 -8.01046E+04  3.25579E+04
 -8.35435E+04 -5.69300E+03 -5.08291E+04 -6.04275E+04 -2.01877E+04 -7.18595E+04  3.17321E+04 -4.08628E+04
  4.80945E+04  3.21753E+03  1.68127E+04  5.22931E+04 -3.26791E+04  5.09866E+04 -7.15717E+04  6.04955E+02
 -6.04119E+04 -5.58950E+04 -6.95079E+03 -7.56501E+04  3.36082E+04 -5.88050E+04  5.21060E+04 -1.99396E+04
  4.65644E+04  1.44497E+04  3.12691E+04  2.67791E+04  1.45072E+04  3.10528E+04 -7.77073E+03  2.91412E+04
 -1.67059E+04  1.15495E+04 -1.66544E+04 -2.31526E+03  1.23152E+04 -4.81471E+03  2.09806E+04  1.08481E+04
  1.34155E+04  3.89768E+04 -3.19370E+04  3.38378E+04 -6.36642E+04  6.26658E+03 -6.11977E+04 -4.91253E+04
 -3.47710E+03 -6.31271E+04  4.43599E+04 -5.33671E+04  5.85216E+04 -3.90241E+03  4.15596E+04  3.55887E+04
 -8.28292E+03  4.25484E+04 -2.99247E+04  1.87487E+04 -3.67164E+04  2.82835E+03 -2.08239E+04 -7.79161E+03
 -1.58431E+03 -1.55322E+04  5.58145E+03 -1.10554E+04  9.12440E+03 -1.61952E+04  1.64681E+04 -1.85416E+04
  1.45349E+04 -4.87230E+02 -1.60800E+04  1.49579E+04 -2.05899E+04 -1.00780E+04 -4.79386E+03 -3.72863E+04
  2.30073E+04 -4.61917E+04  5.23595E+04 -2.91606E+04  5.35378E+04  2.00034E+04  2.56527E+04  5.39542E+04
 -1.78060E+04  3.69523E+04 -3.07366E+04  8.11960E+02 -1.57375E+04 -3.10259E+04  2.15302E+04 -3.63980E+04
  4.19665E+04 -8.76553E+03  3.57676E+04  2.18226E+04  2.54775E+04  5.23753E+04 -3.67145E+03  5.69279E+04
 -3.12123E+04  3.77098E+04 -5.30111E+04  1.15419E+04 -4.79168E+04 -1.34458E+04 -2.81513E+04 -4.00406E+04
  9.47896E+03 -4.28700E+04  3.16384E+04 -2.09359E+04  3.35735E+04  9.85401E+03  5.09662E+03  1.75621E+04
 -9.85337E+03  1.49871E+04 -1.03061E+04 -3.53084E+03  5.73769E+03 -1.01904E+04  1.12931E+04  8.40811E+03
  1.93631E+04  2.12602E+04 -7.47653E+03  2.58805E+04 -2.77358E+04  1.89518E+04 -3.50040E+04  5.92927E+03
 -2.97335E+04 -1.87752E+04 -1.22519E+04 -3.00899E+04  3.95290E+03 -2.80045E+04  1.60693E+04 -2.03797E+04
  3.42931E+04 -1.21936E+04  4.20402E+04  8.90715E+03  2.86320E+04  2.12913E+04  5.07567E+03  4.09048E+04
 -2.01276E+04  3.39826E+04 -3.19397E+04  1.20269E+04 -2.75233E+04 -3.09425E+03 -8.30566E+03 -1.32466E+04
  1.88389E+03 -3.15208E+03 -4.12998E+03  1.26027E+04 -1.64214E+04  2.19337E+03 -2.07702E+04 -2.57162E+03
 -6.23367E+03 -2.42884E+04  1.42001E+04 -2.57990E+04  2.07934E+04 -2.47363E+04  2.20109E+04 -7.26433E+03
  1.82675E+04  1.62994E+04  4.94973E+02  2.50721E+04 -2.06799E+04  2.62162E+04 -1.86573E+04 -8.81579E+03
 -2.75450E+04 -2.70312E+04 -4.75386E+02 -2.93117E+04  2.17817E+04 -1.42837E+04  2.88839E+04 -1.25738E+04
  2.73640E+04 -4.36127E+02  1.70316E+04  8.35572E+03  8.82877E+03  3.05369E+03  1.05155E+04  1.97318E+03
  2.34221E+04  7.81682E+03  2.66623E+04  2.05914E+04  2.34444E+04  3.81495E+04 -5.87518E+03  4.15226E+04
 -2.76393E+04  4.29050E+04 -5.06070E+04  1.87685E+04 -4.65873E+04 -3.88620E+03 -4.03020E+04 -2.34381E+04
 -1.95851E+04 -4.08404E+04  2.05215E+04 -3.70610E+04  3.14168E+04 -1.31005E+04  3.14094E+04  6.37808E+03
  1.53700E+04  1.70940E+04 -1.16943E+04  1.66066E+04 -2.15097E+04  3.41935E+03 -1.45003E+04 -1.02659E+04
 -1.37406E+03 -1.68764E+04  8.77267E+03 -1.62055E+04  1.22950E+04 -4.96983E+03  8.30325E+03  9.20365E+03
 -5.14813E+03  4.24265E+03 -1.48737E+04 -8.23653E+03 -2.37970E+01 -1.62178E+04  1.72719E+04 -1.78137E+04
  2.55332E+04 -1.35746E+04  2.59781E+04  6.94624E+03  2.32163E+04  2.85363E+04  8.99023E+03  3.04416E+04
 -1.08864E+04  3.20084E+04 -2.17804E+04  1.49294E+04 -2.38625E+04  6.02794E+03 -1.46669E+04 -7.40708E+03
 -1.61926E+04 -1.87233E+04  1.73401E+03 -5.71660E+02 -9.22893E+03  4.05065E+03 -6.24927E+03  6.04821E+03
 -1.16785E+04  3.49551E+03 -1.44164E+04 -1.14673E+04 -1.25982E+04 -2.55071E+04  1.36179E+04 -2.00290E+04
  1.02366E+04 -4.34157E+03  1.33665E+04  7.61743E+03 -1.76230E+03 -5.42468E+02 -1.26724E+04 -2.53121E+03
 -8.89996E+03 -1.19972E+04  1.34304E+03 -1.67047E+04  7.14023E+03 -1.47085E+04  1.80413E+04 -1.44301E+04
  2.71756E+04  4.35942E+03  1.67334E+04  1.96818E+04  6.28678E+03  1.56648E+04 -1.68731E+03  1.71994E+04
 -9.81564E+03  1.06812E+04 -8.89452E+03 -1.74526E+03  5.12388E+02 -3.29112E+03  6.96601E+03  3.21752E+03
  6.75629E+03  5.17217E+03  1.73833E+03  1.37965E+04 -8.80424E+03  1.45100E+04 -2.00105E+04  1.12847E+03
 -9.81776E+03 -9.12753E+03 -6.34914E+03 -1.84236E+04  4.87553E+03  5.25488E+03  7.78396E+03  1.70578E+03
  8.04670E+03  1.73681E+04 -1.20037E+04  1.83050E+04 -1.58065E+04  8.52470E+03 -1.94612E+04 -3.68267E+03
 -1.09703E+04 -2.26155E+04  7.79764E+03 -2.19959E+04  2.31184E+04 -1.10419E+04  1.76942E+04 -3.22856E+02
  6.87649E+03  1.73448E+04 -4.62775E+03  1.66494E+04 -1.41104E+04  1.19253E+04 -1.88425E+04 -5.00334E+03
 -1.79146E+04 -1.70339E+04 -5.07355E+03 -1.41242E+04  6.81303E+03 -1.17269E+04  1.29198E+04 -1.77598E+03
  9.56872E+03  6.06661E+03  3.45085E+02  8.65946E+03 -4.82452E+03 -6.98244E+02  3.26701E+02 -1.42030E+04
  1.15157E+04 -2.77341E+03  1.45273E+04  3.63867E+03  1.42181E+04  1.71375E+04  1.49036E+04  2.70336E+04
 -2.56465E+03  3.07877E+04 -2.29165E+04  2.40977E+04 -2.82379E+04  6.55700E+03 -2.25759E+04 -2.89132E+03
 -7.88007E+03 -1.78658E+04  3.20352E+03 -2.52250E+04  5.25795E+03 -9.93054E+03  7.83704E+03 -6.54110E+03
  2.59904E+03 -6.41378E+03  6.90198E+03 -7.30687E+03  3.68039E+03 -3.11056E+03  1.24827E+04  1.78583E+02
  1.14973E+04  1.34551E+04  7.70218E+03  1.44370E+04  2.86725E+03  1.58682E+04 -1.24819E+04  1.17724E+04
 -1.52118E+04  2.77164E+03 -1.39870E+04 -6.39558E+03 -1.13772E+04 -1.98545E+04  4.83598E+03 -1.66325E+04
  2.57556E+04 -5.35478E+03  2.41871E+04  2.04625E+03  1.83396E+04  1.71892E+04  2.40624E+03  2.26130E+04
 -1.05332E+04  1.91600E+04 -1.54589E+04  9.61396E+03 -8.14745E+03 -2.55770E+03  1.66807E+03 -5.59241E+01
  1.44596E+03  1.08858E+04  2.15076E+03  4.25190E+03 -8.22691E+03  5.97542E+03 -5.83592E+03 -3.25822E+03
 -1.05373E+04 -1.59525E+04 -6.31156E+03 -1.35481E+04  1.61894E+04 -1.69372E+04  2.39214E+04 -5.27791E+03
  1.58195E+04  8.51872E+03  1.20063E+04  1.26167E+04 -8.59378E+03  1.29611E+04 -1.96133E+04  1.33055E+04
 -1.95034E+04  8.14163E+02 -1.18477E+04 -8.07179E+03 -5.10871E+03 -1.52346E+04  9.14647E+03 -1.03640E+04
  1.08573E+04 -7.69727E+03  6.38970E+03  9.03016E+03  4.25453E+03  6.93380E+03  7.24964E+03  2.66007E+03
 -2.46784E+03  7.97153E+02  7.14333E+03  4.30955E+03  1.16072E+04  3.18198E+03  5.39927E+03  1.05766E+04
  2.77109E+03  1.67951E+04 -1.92293E+04  1.15637E+04 -1.63648E+04 -9.67372E+02 -1.97430E+04 -1.69232E+04
 -3.53248E+03 -2.39105E+04  8.09240E+03 -2.24027E+04  1.01803E+04 -6.29665E+03  1.90453E+04 -7.75346E+03
  1.08653E+04  5.12495E+03  3.27440E+03  1.19324E+04 -1.01836E+04  5.65534E+03 -6.10163E+03 -3.81671E+03
 -3.00492E+03 -9.60566E+03  7.06705E+03 -8.97159E+03  8.10431E+03 -9.58285E+02  3.39382E+02  4.47015E+03
  2.84879E+03  6.75449E+03  4.15493E+03  4.89092E+03  8.57796E+03  2.31465E+03  3.65873E+03  6.82288E+03
  8.79543E+03  1.89638E+03  4.72376E+03  2.03078E+03  5.61418E+03  7.04111E+03 -4.01900E+02  1.84061E+04
 -8.28010E+03  1.46747E+04 -5.03747E+03  2.42513E+03 -1.27616E+04 -5.42513E+03 -5.75790E+03 -8.47640E+03
  1.86743E+03 -6.13606E+03  3.91642E+03 -8.60543E+03  4.37241E+03  2.39620E+03  1.99391E+03  6.87260E+03
 -6.08982E+03  3.75986E+03 -1.30152E+04  4.59475E+03 -3.56440E+03 -1.22557E+04 -1.31269E+03 -9.48189E+03
  8.17156E+03  2.06135E+03 -6.66131E+02 -1.73025E+02  1.22562E+04  3.50229E+03 -2.13087E+03  1.01738E+04
 -7.70805E+03  1.32028E+03  3.38880E+03  6.94171E+02  3.49730E+03 -2.97718E+03  1.45088E+04 -7.89660E+03
  1.33537E+04 -4.61595E+02  6.55547E+03  1.04903E+04  8.74236E+02  1.56267E+04 -3.41951E+03  5.87686E+03
 -6.20343E+03  6.67341E+03 -1.43934E+04 -1.80048E+03 -4.78070E+03 -4.36588E+03  3.49111E+03 -7.90808E+03
  1.26339E+04  7.48830E+02  1.01105E+04  4.52839E+03  2.68766E+03  9.99548E+03  2.66205E+03  3.64167E+03
  2.91144E+03  3.94560E+03 -7.61424E+03  7.56731E+03 -3.66639E+03 -2.05102E+03 -1.53402E+02  5.80666E+03
 -8.08094E+03  5.21644E+03 -3.66923E+03  1.70981E+03 -1.23588E+04  1.42661E+03 -1.30835E+04 -9.77036E+03
 -7.50894E+03 -1.37603E+04  8.83299E+03 -2.45679E+04  1.16087E+04 -1.50188E+04  2.28339E+04 -1.10699E+04
  1.71219E+04  2.70781E+03  4.57141E+03  1.00807E+04  3.58056E+03  1.09512E+04 -5.63655E+03  1.64015E+04
 -1.05329E+04 -1.97715E+03 -7.08997E+03 -1.32027E+04  2.96260E+03 -3.05920E+03  1.22360E+03 -3.43330E+03
 -3.89966E+03  2.66834E+03 -2.67439E+03  2.77978E+03  5.59925E+03  5.16748E+03  7.41086E+02 -4.77397E+03
  5.35100E+03 -4.83777E+03  1.17588E+04  2.47488E+03  7.89607E+03  3.16924E+03 -9.23260E+02  1.37139E+04
 -1.20052E+04  2.13108E+04 -2.16296E+04  8.38862E+03 -2.04174E+04 -8.46193E+03 -5.16920E+03 -1.00667E+04
 -1.41938E+03 -1.07543E+04  6.20404E+03 -8.65984E+03 -1.19235E+03 -6.37012E+03  8.03486E+03  2.96939E+03
  8.56459E+03  1.05563E+04 -5.74749E+02  6.63307E+03 -2.81448E+03 -8.32002E+03 -1.98903E+03  2.47476E+03
  5.28747E+03 -4.27119E+02  5.61002E+03 -1.64537E+03  1.59226E+03  4.95219E+03 -6.41811E+03  5.15463E+03
  2.27354E+02  1.43693E+04 -2.96656E+03  5.39599E+03 -1.42717E+04 -1.18065E+04 -2.44412E+03 -8.46614E+03
  7.77929E+03 -6.62166E+03  1.55859E+04 -8.87711E+02  9.10516E+03  4.03497E+03  1.65628E+04  5.39312E+03
  3.41066E+03  1.23667E+04 -5.68253E+03  9.96561E+03 -5.57783E+03  7.38274E+03 -1.00678E+04 -5.25157E+02
 -7.73427E+03 -1.01171E+03  5.43802E+03  1.08165E+04 -2.41720E+03  4.64178E+03 -1.35107E+03  2.80321E+03
 -7.80895E+03 -4.53958E+03  1.28051E+03 -1.45338E+04  1.98644E+03 -7.58869E+03  1.17581E+04 -8.84585E+03
  1.50987E+04  1.87816E+03  5.03289E+03  6.89915E+03  3.70153E+03  8.47871E+03 -6.40138E+03  8.83853E+03
