 $NMID ID='MM_0lb_SNR50_15hz_g55_32.RAW', FMTDAT='(8E13.5)'
 TRAMP=1., VOLUME=1. $END
  3.08967E+05 -3.21303E+03  3.39478E+05  2.47824E+05  8.75023E+04  3.35892E+05 -1.27760E+05  2.45976E+05
 -1.87526E+05  8.27458E+04 -1.09913E+05 -3.47504E+04  9.66420E+02 -5.26130E+04  5.17140E+04  1.48878E+03
  3.49491E+04  5.22592E+04 -1.83970E+04  7.87250E+04 -5.71385E+04  6.31503E+04 -8.69525E+04  3.31227E+04
 -7.76512E+04 -1.58869E+04 -6.01370E+04 -5.27077E+04 -1.58057E+04 -6.46084E+04  2.58254E+04 -4.61747E+04
  3.85975E+04  5.36783E+03  1.67249E+04  5.01781E+04 -2.84360E+04  4.73208E+04 -6.46227E+04  4.55969E+03
 -5.19445E+04 -5.48634E+04 -9.76448E+03 -7.50679E+04  3.33128E+04 -5.59165E+04  4.90286E+04 -1.88815E+04
  4.61583E+04  1.26002E+04  2.88953E+04  2.78108E+04  1.66559E+04  2.90377E+04 -6.63496E+03  2.45945E+04
 -2.10350E+04  1.12248E+04 -2.15649E+04 -5.06365E+03  4.04684E+03 -7.38814E+03  2.25929E+04  1.31607E+04
  7.70176E+03  3.54894E+04 -2.88720E+04  3.65202E+04 -6.08640E+04  1.59180E+03 -5.78436E+04 -4.40599E+04
 -8.97646E+03 -6.16969E+04  3.87764E+04 -4.35396E+04  5.49641E+04  3.97077E+02  3.49610E+04  3.48797E+04
 -7.43165E+03  3.39418E+04 -2.67812E+04  1.57274E+04 -2.68879E+04 -6.02068E+03 -1.80333E+04 -1.79138E+04
 -9.29529E+03 -1.46778E+04 -2.09794E+03 -1.50247E+04  8.47414E+03 -2.74511E+04  1.53749E+04 -1.04133E+04
  1.63158E+04  5.75449E+03 -1.11573E+04  1.48907E+04 -2.29437E+04 -2.83402E+03 -7.98161E+03 -2.82605E+04
  2.23399E+04 -4.44057E+04  5.00186E+04 -1.71185E+04  4.45037E+04  1.72301E+04  1.33673E+04  4.90538E+04
 -1.50420E+04  3.24031E+04 -2.64972E+04  5.61147E+02 -4.92614E+03 -2.90068E+04  2.33589E+04 -3.57154E+04
  4.08390E+04 -1.01543E+04  3.84389E+04  2.23545E+04  1.85577E+04  4.12827E+04 -7.72906E+03  4.72125E+04
 -3.33814E+04  3.29785E+04 -4.05176E+04  1.07997E+04 -4.63471E+04 -1.66652E+04 -2.82344E+04 -3.91321E+04
  6.19326E+03 -3.87452E+04  3.37174E+04 -1.29375E+04  3.06155E+04  1.03551E+04  3.26738E+03  1.68131E+04
 -1.39502E+04  8.51797E+03 -1.16594E+04 -7.08065E+03  1.08118E+04 -9.94637E+03  1.72199E+04  2.51191E+03
  1.33508E+04  2.41733E+04 -4.68606E+03  2.59813E+04 -2.38935E+04  1.02812E+04 -2.86354E+04 -3.75761E+02
 -1.78687E+04 -1.12561E+04 -6.67743E+03 -2.27459E+04  5.15278E+03 -1.58265E+04  1.63575E+04 -1.92380E+04
  3.07740E+04 -1.43507E+04  3.04354E+04  7.05717E+03  2.41454E+04  2.40277E+04  3.58696E+03  3.72474E+04
 -2.00790E+04  3.06676E+04 -2.19484E+04  8.01328E+03 -1.91858E+04 -1.48860E+04 -7.15141E+03 -1.41541E+04
  2.30159E+03 -8.23863E+03 -8.04230E+03  8.66374E+03 -1.74696E+04  4.08984E+03 -2.14370E+04 -1.01097E+04
 -1.53726E+04 -1.78176E+04  8.87664E+03 -2.31604E+04  1.53003E+04 -1.35246E+04  1.85763E+04 -5.27810E+03
  1.08762E+04  1.46334E+04 -2.54465E+03  2.00532E+04 -1.15229E+04  1.00908E+04 -1.65101E+04 -2.94999E+03
 -1.38595E+04 -2.08671E+04  4.58664E+02 -2.14995E+04  1.12569E+04 -1.85436E+04  1.56198E+04 -1.26410E+04
  1.75428E+04 -5.47160E+02  1.07218E+04  3.05698E+02  1.07101E+04  1.30132E+02  9.95323E+03 -3.07986E+02
  1.92434E+04  1.93194E+02  1.59094E+04  1.56901E+04  1.14860E+04  2.78433E+04 -2.00514E+03  3.54269E+04
 -2.25898E+04  2.78105E+04 -2.84147E+04  1.37768E+04 -3.44904E+04 -3.29157E+03 -3.04179E+04 -2.52105E+04
 -1.49731E+04 -2.98020E+04  1.10864E+04 -2.92016E+04  2.23356E+04 -1.24335E+04  2.05367E+04  6.57397E+03
  3.94864E+03  1.29895E+04 -3.59447E+03  1.30110E+04 -1.47065E+04  3.54617E+03 -1.13828E+04 -1.01455E+04
 -9.19577E+02 -2.22432E+04  5.22225E+03 -1.18956E+04  1.07951E+04 -1.59044E+03  2.88961E+03  6.07742E+03
 -4.50956E+03  4.25599E+03 -7.49944E+03 -7.07198E+03 -1.08131E+03 -6.58555E+03  8.10414E+03 -1.62944E+04
  1.72559E+04 -3.16963E+03  2.53324E+04  3.69049E+03  1.70978E+04  1.21594E+04  5.06227E+03  2.05703E+04
  1.80846E+02  1.86929E+04 -1.26825E+04  1.24956E+04 -1.42099E+04  6.63761E+03 -8.02273E+03 -3.76459E+03
 -7.37864E+03 -4.93717E+03 -1.76713E+03  2.64050E+03 -2.44922E+03  1.34647E+03 -4.46018E+03  6.77463E+02
 -1.59190E+04  1.36330E+03 -1.29673E+04 -9.03684E+03 -6.77593E+03 -1.23692E+04  3.39750E+03 -1.35051E+04
  1.01063E+04 -1.22262E+03  9.31027E+03  4.16109E+03  2.00359E+03  3.12005E+03 -7.20811E+03  1.95535E+03
 -2.17718E+03 -8.55713E+03  1.31968E+03 -7.56983E+03  2.86084E+03 -1.15478E+04  1.79839E+04 -9.13506E+03
  1.50176E+04  4.15282E+03  1.34260E+04  7.62476E+03 -4.97522E+02  9.27853E+03 -9.40305E+03  1.29305E+04
 -8.51428E+03  3.37126E+02 -3.85000E+03 -3.18892E+03 -4.06594E+03 -3.52191E+03  4.68649E+03 -3.24469E+03
  7.76205E+03  8.38355E+03  2.29588E+03  9.47767E+03 -1.13046E+04  4.12939E+03 -1.00413E+04  5.71596E+03
 -1.09621E+04 -3.72755E+03  1.72516E+03 -9.74300E+03  8.00765E+03 -4.26613E+03  1.08025E+04  1.83124E+03
 -4.33915E+03  6.37092E+03 -5.52545E+03  8.15417E+03 -7.26141E+03  7.44426E+03 -5.36096E+03 -2.32432E+03
 -7.58343E+03 -1.06811E+04  5.87424E+03 -9.54656E+03  1.35368E+04 -1.87103E+03  1.29626E+04  2.26329E+03
  3.43706E+03  9.48676E+03  1.03052E+02  7.70493E+03 -3.11234E+03  6.12388E+03 -8.04463E+03 -2.67805E+03
 -1.62790E+03 -4.61343E+03 -3.99369E+03 -2.95428E+03  2.60612E+03 -2.56396E+03  1.21606E+03 -1.77050E+02
  2.76707E+03  3.48951E+03 -9.41988E+02  5.43818E+03 -7.13899E+03  2.05103E+03  1.78068E+03 -7.21258E+03
  6.26002E+03 -2.76410E+03  7.41686E+03  4.71579E+03  6.04492E+03  9.77886E+03  1.05535E+04  1.30528E+04
 -3.05560E+03  1.61826E+04 -8.03094E+03  7.53191E+03 -1.03561E+04 -3.12716E+03 -1.16182E+04 -4.42171E+03
 -4.33167E+03 -7.11857E+03  7.44829E+02 -5.92644E+03  7.07907E+03 -5.65465E+03  2.25472E+03 -1.79150E+02
  1.57536E+03 -4.07498E+03  3.28326E+03 -3.59110E+03  2.88534E+03 -2.82148E+03  3.24119E+03  3.20933E+03
  1.15876E+04  2.70438E+03  1.97796E+02  7.80288E+03 -1.37878E+03  5.31240E+03 -3.95043E+03  5.40687E+03
 -1.19713E+04 -4.59497E+03 -9.21932E+02 -6.07959E+03  2.36495E+03 -7.63507E+03  4.64422E+03 -6.30323E+03
  1.31460E+04 -5.46398E+03  5.15026E+03  1.50097E+03  9.40971E+03  1.05099E+04  3.73856E+03  6.07197E+03
 -5.77239E+03  5.54101E+03 -4.81938E+03  7.41592E+03 -2.66516E+03 -1.10820E+03 -3.95008E+03 -2.73851E+03
 -9.05165E+02 -1.88925E+03 -2.72111E+03  1.63813E+03  9.65658E+02 -2.36850E+03 -8.92676E+03  1.98812E+03
 -4.44665E+02 -6.05395E+03  1.68196E+03 -1.50064E+04  7.64088E+03 -7.42972E+03  8.31982E+03 -4.78512E+03
  7.70653E+03  3.89739E+03  3.18952E+03  5.12373E+03  1.91630E+03  1.08508E+04 -6.58299E+03  5.50875E+03
 -9.60383E+03  1.41001E+02 -9.54797E+03 -8.98260E+03  9.61464E+02 -4.39026E+03 -5.47753E+02 -1.06425E+03
  5.64287E+03 -2.27179E+03  4.00782E+03 -1.23621E+03 -1.37345E+03  8.96487E+01  1.01746E+03  1.18614E+03
  2.17280E+03  1.35528E+03  4.95595E+03 -3.21003E+03  3.10991E+03  2.58021E+03  6.30865E+03  7.99087E+03
  9.29404E+01  9.50191E+02 -5.56428E+03  3.97639E+03 -6.30798E+03 -3.82572E+02 -6.31487E+03  2.66789E+03
 -4.20861E+03 -8.07268E+03 -1.60004E+03 -8.96403E+03  6.69418E+03 -9.48739E+03  5.46051E+03 -9.69150E+02
  6.84075E+03  4.42807E+03 -1.30845E+03  7.87513E+03 -6.94495E+03  2.95941E+03 -5.36385E+03 -2.79265E+02
 -2.39341E+03 -1.76301E+03  2.88481E+03 -4.37247E+03  3.14926E+03 -4.32146E+03  4.73339E+03 -1.97739E+03
  4.63217E+03 -2.98741E+03  7.46084E+03  2.26610E+02  2.68948E+03  2.43629E+03 -1.17016E+03 -2.76452E+03
  5.92596E+03 -9.34686E+02  3.79289E+03  2.42678E+03  5.73627E+03  3.83564E+03  9.14259E+02  2.75839E+03
 -6.11813E+03  2.53489E+03 -4.38413E+03  2.84004E+03 -4.25636E+03  7.26531E+02 -2.65839E+02  6.79823E+02
 -9.29355E+02  2.12820E+03  2.50611E+03 -3.90177E+03  6.08438E+03  4.07840E+03 -8.15372E+02 -3.65162E+03
 -1.93160E+03  6.65653E+03 -3.02710E+03 -4.93245E+03  1.43629E+03 -2.26540E+03 -2.18088E+03 -5.34416E+03
  2.14777E+02 -4.87451E+03  2.46070E+03 -8.72534E+02  1.56651E+03 -3.68229E+03 -3.14698E+03  3.55709E+03
 -1.22268E+03 -1.52350E+03 -5.50241E+03 -1.35438E+03 -2.06258E+02 -5.72579E+03  1.85392E+03 -3.97400E+03
  8.10115E+03  2.09530E+03  4.21941E+03  3.61722E+03  5.70376E+02  6.14896E+03  4.97354E+03  4.41251E+03
 -5.22093E+02  6.10092E+03 -1.65155E+03  1.40656E+03 -3.10676E+03 -4.06782E+03  4.33285E+03 -1.91978E+03
  3.65982E+03 -4.21223E+03 -2.10276E+02  1.72099E+03 -4.46098E+03  1.50906E+03 -2.70269E+03  6.59033E+03
 -2.82642E+03 -7.06626E+02 -1.07029E+03 -5.20622E+03  4.27437E+03 -3.47819E+03  6.21026E+02  1.95127E+03
  5.95067E+03  2.95771E+01 -3.99802E+03  1.40018E+03 -6.84969E+03  3.85334E+03 -1.03524E+04 -5.79591E+03
  6.66937E+02 -8.46892E+03  1.61219E+03 -1.02319E+04  6.97382E+03 -5.93421E+03  2.69495E+03 -5.27989E+03
  5.28871E+03  6.30529E+03  8.64104E+03  5.63708E+03  1.22758E+03  5.65731E+03 -3.63217E+02  5.20694E+03
 -3.59658E+03 -1.29540E+03  1.32158E+03  6.80375E+02  6.47690E+02 -2.73825E+03  1.32688E+03 -3.82862E+02
 -2.09102E+02 -5.30292E+03 -1.38518E+03  1.11288E+03  5.03686E+02 -2.29521E+03 -1.04031E+04  2.96260E+01
  1.34337E+03  1.88815E+01  9.98615E+02  3.03069E+02  1.79575E+03  5.92533E+03 -3.44813E+01  4.66826E+03
 -1.77164E+03  7.72508E+03  1.49363E+01  7.27293E+03 -3.08482E+03 -1.01059E+03 -1.48336E+03 -4.87832E+03
 -2.65684E+03 -3.18299E+03  8.63841E+02 -2.26253E+03  3.93321E+03 -3.00536E+03  8.93319E+02 -3.84632E+03
 -1.38149E+03  4.49475E+03 -2.43083E+03 -4.50635E+02 -1.24630E+03 -1.89832E+03 -2.45830E+03  1.04836E+03
  5.67560E+02 -3.20743E+03  1.94818E+03 -1.97231E+03  3.01008E+03  2.49587E+03 -5.71384E+03 -4.35525E+03
 -2.82519E+03  4.95677E+03  2.88932E+02 -6.10210E+01  7.30553E+02 -3.69845E+03 -1.20904E+03 -2.69343E+03
 -2.06423E+03 -3.92526E+03  2.52213E+03 -3.52199E+03  9.38024E+02 -1.04917E+02  3.36959E+03  3.77337E+03
 -1.34348E+03  1.73273E+03  1.19484E+02 -3.15628E+03 -2.13409E+03 -5.90691E+03 -2.00098E+03 -3.42173E+03
  1.03990E+02 -2.34495E+03  4.22172E+02  1.55988E+03  8.75732E+02  1.55115E+03  2.51931E+03  3.70644E+02
 -9.71962E+02  5.84060E+02 -3.58379E+01 -5.60389E+03  4.90247E+03 -1.10461E+03  2.65513E+03  3.18919E+03
  2.85306E+03  5.91050E+02  2.04970E+03  1.85143E+03  2.33215E+03 -3.36850E+02 -8.58717E+02 -6.47402E+03
