 $NMID ID='MM_0lb_SNR50_17hz_g45_65.RAW', FMTDAT='(8E13.5)'
 TRAMP=1., VOLUME=1. $END
  3.08715E+05 -3.20733E+02  3.40973E+05  2.44918E+05  8.60805E+04  3.35199E+05 -1.36578E+05  2.48257E+05
 -1.92259E+05  8.15332E+04 -1.15497E+05 -2.91716E+04  1.22073E+03 -5.07513E+04  5.81366E+04 -6.52717E+03
  3.37337E+04  5.19792E+04 -1.64456E+04  7.10338E+04 -6.12367E+04  6.34941E+04 -8.00578E+04  2.98572E+04
 -7.71072E+04 -1.18906E+04 -5.30397E+04 -5.02234E+04 -1.42288E+04 -6.89664E+04  2.84919E+04 -4.47601E+04
  4.29213E+04  3.98754E+03  2.00796E+04  4.56487E+04 -3.27510E+04  4.55402E+04 -6.43739E+04 -2.22756E+03
 -5.53899E+04 -5.52840E+04 -6.47862E+03 -7.64521E+04  3.62541E+04 -5.56903E+04  4.96249E+04 -1.51577E+04
  4.12095E+04  1.25386E+04  2.99320E+04  2.65928E+04  1.43454E+04  2.79292E+04 -7.02972E+03  2.92552E+04
 -1.73720E+04  1.33322E+04 -1.98275E+04 -5.37357E+03  4.02559E+03 -4.84625E+03  2.41625E+04  1.58565E+04
  1.18247E+04  3.52289E+04 -2.57794E+04  3.11738E+04 -6.28594E+04  2.95003E+03 -5.28774E+04 -4.56185E+04
 -1.22165E+04 -5.99967E+04  3.78154E+04 -4.35501E+04  5.56154E+04 -2.82415E+03  3.40715E+04  2.90434E+04
 -4.45201E+03  3.19011E+04 -2.92294E+04  1.30294E+04 -2.71643E+04 -4.52991E+03 -1.41719E+04 -1.33918E+04
 -7.61980E+03 -1.31642E+04 -5.12312E+01 -1.93254E+04  7.35816E+03 -2.15070E+04  1.26021E+04 -1.34545E+04
  9.98030E+03  6.36615E+03 -4.66933E+03  1.32443E+04 -2.04031E+04 -3.61386E+03 -1.28516E+04 -2.97032E+04
  2.09060E+04 -4.23269E+04  4.04427E+04 -1.85061E+04  4.28328E+04  2.03344E+04  1.98398E+04  4.36669E+04
 -2.05863E+04  3.36221E+04 -2.52810E+04  1.62183E+03 -6.49410E+03 -2.37000E+04  1.63699E+04 -2.72852E+04
  3.61185E+04 -6.96060E+03  3.23648E+04  2.46329E+04  1.91765E+04  4.11584E+04 -7.68213E+03  5.00455E+04
 -3.22417E+04  3.00811E+04 -3.61853E+04  8.42570E+03 -4.10423E+04 -1.88051E+04 -1.91149E+04 -3.78638E+04
  8.03072E+03 -3.59571E+04  2.95016E+04 -1.80069E+04  3.01792E+04  6.61928E+03  6.45804E+03  2.17542E+04
 -8.28152E+03  7.98139E+03 -1.11919E+04 -7.58122E+03  4.62525E+03 -1.23456E+04  1.38441E+04  4.69174E+03
  1.43657E+04  2.50766E+04 -5.88408E+03  2.51215E+04 -2.27164E+04  1.06519E+04 -3.00057E+04 -7.64551E+03
 -1.80114E+04 -1.74224E+04 -6.05765E+03 -2.05675E+04  7.70847E+03 -1.56087E+04  1.08036E+04 -1.83196E+04
  2.42839E+04 -1.41049E+04  3.04635E+04  1.63722E+03  2.15643E+04  1.73325E+04  3.92077E+03  3.71287E+04
 -1.15622E+04  2.54109E+04 -2.49583E+04  8.75114E+03 -1.95474E+04 -1.18233E+04 -4.73924E+03 -1.20386E+04
  3.65952E+03 -2.52801E+03 -4.36434E+03  6.35633E+03 -1.40058E+04  1.10828E+04 -5.40055E+03 -4.08421E+03
 -1.08748E+04 -1.82415E+04  2.04443E+03 -1.85447E+04  1.76712E+04 -1.47378E+04  1.85538E+04 -1.26831E+03
  1.40407E+04  1.21249E+04 -5.96631E+03  1.70956E+04 -1.14020E+04  1.05107E+04 -1.37676E+04 -3.23544E+03
 -1.24370E+04 -1.42793E+04 -2.96665E+02 -2.33764E+04  7.64578E+03 -1.84993E+04  1.78791E+04 -7.61753E+03
  1.95934E+04 -1.10922E+03  8.26790E+03  6.06047E+03  3.41069E+03  3.44258E+03  4.26140E+03  3.60294E+01
  1.09483E+04  2.27737E+02  1.47878E+04  1.45610E+04  1.07764E+04  3.25537E+04  1.11863E+03  2.65712E+04
 -1.50045E+04  2.19498E+04 -2.43873E+04  6.70502E+03 -3.06649E+04  2.51790E+03 -2.60336E+04 -1.32947E+04
 -1.03029E+04 -2.40919E+04  6.60806E+03 -2.49439E+04  1.69387E+04 -1.65591E+04  1.54450E+04  3.36156E+03
  3.13324E+03  1.01194E+04 -8.27890E+03  7.25437E+03 -1.47858E+04  3.56579E+03 -1.06150E+04 -9.13483E+03
  2.74661E+03 -1.32168E+04  7.67914E+03 -5.27362E+03  7.99715E+03  2.28681E+03  1.96497E+03  7.15212E+03
 -6.78371E+03 -4.50927E+03 -2.28915E+03 -8.11183E+03  5.48838E+03 -1.04980E+04  9.41987E+03 -9.82874E+03
  1.40770E+04 -4.13089E+03  1.52457E+04  3.95353E+03  1.16610E+04  1.07328E+04  1.14744E+04  1.42387E+04
 -1.25376E+03  1.39294E+04 -1.06615E+04  1.08574E+04 -1.01650E+04  1.95371E+03 -7.97575E+03 -1.13082E+03
 -4.78494E+03 -5.68349E+03  8.36627E+02  4.91086E+01 -4.35419E+03  9.84943E+02 -5.81987E+03  1.29818E+03
 -9.52254E+03 -2.57863E+03 -7.09315E+03 -1.06527E+04 -4.29582E+03 -1.27575E+04  4.20323E+03 -9.01706E+03
  4.94724E+03  2.17830E+03  4.92303E+03  1.63755E+02 -1.98200E+03  8.06598E+03 -2.94675E+03  5.59561E+03
 -2.14418E+03 -4.50936E+03  1.59005E+03 -5.21455E+03 -1.92464E+03 -1.28236E+04  6.74976E+03 -4.37634E+03
  1.38562E+04  2.23103E+03  8.31784E+03  1.15355E+04  2.42850E+03  1.06081E+04 -1.57012E+03  1.18885E+04
 -6.84916E+03  4.74912E+03 -2.44975E+03 -4.96019E+03 -2.32306E+03 -2.16665E+03  6.44910E+03 -2.02929E+03
  6.46466E+03  7.71349E+03 -3.12797E+03  9.48467E+03 -5.70388E+03  7.62633E+03 -7.57261E+03 -2.35758E+03
 -6.04658E+03 -5.69540E+03  1.66968E+03 -8.63901E+03  4.16701E+03 -4.22438E+02  3.02078E+03 -6.43194E+02
  3.00084E+03  4.02299E+03 -6.14569E+03  3.82295E+03 -6.43608E+03  3.57863E+03 -4.00516E+03 -1.28423E+03
 -5.42834E+03 -9.42124E+03  2.92214E+03 -9.41214E+03  4.96199E+02 -4.04815E+03  7.58438E+03  2.11237E+03
  3.25532E+03  9.11489E+03  2.15072E+03  4.31040E+03  5.43628E+02  8.62109E+02 -9.49496E+03 -2.18687E+03
 -6.57779E+03 -5.21834E+03 -1.82965E+03 -2.96984E+03  2.11854E+03 -3.80453E+03  4.30117E+03 -1.64256E+03
  1.05089E+03  8.63826E+02  2.08958E+02  1.95769E+03 -2.56958E+02  1.44161E+03  2.29555E+03  3.40161E+03
  4.10133E+03 -4.38499E+03  7.37405E+03  4.04558E+03  1.16932E+04  2.09714E+03  9.80099E+03  6.57400E+03
  1.64599E+03  6.97430E+03 -6.87508E+03  1.12867E+04 -9.14851E+03  2.24686E+03 -9.17226E+03 -4.38164E+03
 -1.15954E+03 -1.15453E+04 -5.21481E+02 -8.11438E+03  7.01173E+03  3.90406E+03  2.64344E+03 -3.29070E+03
  8.05781E+02 -1.28443E+03  2.83830E+03 -3.34311E+03  2.97249E+03 -4.84720E+03  2.08544E+03 -4.83644E+02
  4.16087E+03  1.22236E+02 -3.39251E+03  6.13570E+03 -1.50021E+03  5.97831E+02 -4.82516E+03  6.21858E+01
 -8.69113E+03  1.62393E+02 -5.68397E+02 -8.22898E+03  4.66577E+03 -4.28327E+03  3.25378E+03 -7.89922E+03
  7.21298E+03 -6.37499E+03  3.96775E+03 -4.29999E+02  1.84249E+03  5.13379E+03  1.68477E+03  7.75358E+03
 -3.94754E+03  4.77615E+03 -5.29265E+03 -1.21353E+03  3.59092E+03  9.19871E+01 -4.72256E+03 -2.08767E+03
  2.02498E+02  4.63832E+03  2.28966E+03  1.17582E+03 -1.06930E+03  3.18804E+03 -7.06721E+03  1.53533E+02
 -6.17662E+02 -4.10909E+03 -4.72675E+03 -5.24140E+03  4.11809E+03 -4.18352E+03  9.15140E+03 -1.63728E+03
  1.62699E+03  6.92433E+02 -3.64463E+02  2.08118E+03 -1.31901E+03  6.76284E+03 -2.49931E+03  7.37008E+03
 -4.05884E+03  1.79817E+03 -5.11639E+03 -2.71525E+03 -4.59447E+03 -6.39698E+03  1.90098E+03 -3.72880E+03
  3.50333E+03 -4.00324E+03  3.64356E+03 -3.11980E+02  7.10381E+02  1.79352E+03  1.07974E+03 -7.36271E+02
 -4.47731E+03  4.40035E+02  1.10325E+03 -3.08824E+02  7.15271E+03  4.84942E+03  3.03448E+03 -5.25424E+02
 -3.01139E+02  2.84630E+03  1.50155E+03  6.58177E+02 -1.54525E+03 -8.76671E+02 -6.96870E+03 -1.17326E+03
 -1.99613E+03 -3.51722E+03 -1.55126E+03 -6.78161E+03  6.65833E+03 -4.84921E+03  5.92298E+03 -2.30433E+03
  4.84197E+03  1.14594E+03  8.18102E+02  1.28109E+03  3.99883E+03  2.79671E+03 -1.27688E+03 -3.95449E+03
  1.34340E+03 -2.46752E+03 -1.37989E+03 -2.26060E+03  1.97648E+02  4.42878E+03  4.87180E+03 -3.77228E+03
  1.80048E+03  9.60019E+01  1.55630E+03  2.55344E+03 -5.01910E+03  1.18883E+03  4.54731E+02  2.15757E+03
 -3.29035E+03  8.85787E+02  1.76684E+03  1.02359E+03  5.18414E+02  4.76942E+03  1.39794E+03  3.67200E+03
  2.77847E+03 -1.19651E+03 -1.72907E+03 -1.51640E+02 -1.66165E+03 -1.74920E+03 -6.00518E+02  2.55424E+03
 -1.48888E+03 -4.96732E+03  5.62672E+03  9.26374E+02 -3.13989E+02  2.57486E+03 -5.42307E+02  1.33085E+03
 -2.41905E+03  1.68477E+03  1.08700E+03 -2.04807E+03 -4.39453E+03 -2.84639E+03  7.36895E+02  7.98396E+02
 -7.91814E+02 -5.58195E+03  6.98977E+02 -5.54977E+02 -1.70442E+03  5.75801E+03 -7.81057E+02  2.33685E+03
  1.95233E+03 -9.86473E+02 -2.84238E+03  2.46139E+03 -6.76082E+02 -2.50054E+03  2.82538E+02  6.04097E+02
  1.55847E+03 -4.14848E+02  2.98898E+03 -3.68452E+03  4.65664E+03  4.66657E+03 -3.41613E+03 -2.55528E+03
 -6.31729E+02 -3.91832E+03 -2.13284E+03  2.08832E+03 -7.91609E+02 -2.60935E+03  3.62010E+03 -1.57974E+03
  3.74207E+03  2.49559E+03  5.88133E+03  2.25151E+03 -3.39134E+03  7.54851E+02  1.33841E+02  4.06074E+03
 -1.79511E+03 -4.74754E+03 -1.77285E+03  1.81392E+02  1.81806E+03  1.99134E+02  3.22031E+02  6.10710E+02
  2.49890E+03  3.72274E+03 -2.64863E+03 -6.57140E+02 -7.93355E+03 -1.14069E+03 -6.24348E+03 -4.20651E+03
 -2.13296E+02  1.05277E+03  4.76676E+03 -2.03091E+03  1.43645E+02 -3.93411E+03  6.83691E+03 -4.26280E+03
  6.04775E+03 -1.34706E+03 -9.30767E+02  2.24576E+03  8.30487E+02 -7.06369E+02 -9.54662E+02  1.69412E+03
 -2.39855E+02 -6.73944E+02  5.86581E+02  4.25981E+02  4.45592E+03  1.93033E+03 -1.45214E+03 -1.96585E+03
 -3.34874E+03  1.24417E+03 -1.55654E+02  6.13846E+02 -2.27265E+02  2.52328E+03 -3.38822E+03 -5.13595E+02
  3.07274E+03 -3.04693E+02 -2.80545E+03  1.05801E+02  3.65110E+03  2.62464E+03  5.37722E+02  5.72480E+02
 -3.45510E+03  3.34511E+03 -4.64897E+03  8.77662E+02 -8.65355E+03 -5.38324E+02  1.57971E+03 -4.23820E+03
 -3.05683E+03  4.11678E+02  1.93425E+03 -3.10762E+03  1.71597E+03  4.05607E+02  6.65219E+01  5.22501E+03
 -3.22980E+03  2.86212E+03  4.91450E+02  4.46262E+03  5.23519E+02 -2.69292E+01  6.38073E+02  1.81849E+03
  2.76932E+03  1.57429E+03  2.44882E+03  2.75735E+03 -9.22576E+01  4.09162E+03  3.02254E+03 -3.52996E+03
 -3.59560E+03  2.48350E+03 -1.12689E+03  3.85095E+03 -1.44990E+03 -4.29687E+03 -1.72965E+03 -7.02224E+03
 -7.98635E+02 -3.72935E+03  1.53500E+03  1.86599E+03  3.23035E+03 -1.46202E+03 -1.42794E+03 -2.06234E+03
  5.54153E+03  1.66177E+02  5.30544E+02 -7.03181E+02 -5.73283E+02  1.92787E+03  7.70981E+02  2.15853E+03
 -3.24079E+03 -1.15847E+03  5.38803E+03 -4.26402E+02 -7.46882E+02  1.21886E+03 -1.29670E+03 -2.60626E+03
  6.54315E+02 -1.00709E+03 -5.67493E+01  6.34581E+01 -1.90932E+03  4.15357E+02  4.25753E+01 -5.71881E+03
  1.58727E+03 -3.00340E+03  6.90123E+02 -9.01316E+02 -1.72449E+03 -7.49964E+02  1.30309E+03 -1.23271E+03
