 $NMID ID='MM_0lb_SNR50_9hz_g50_72.RAW', FMTDAT='(8E13.5)'
 TRAMP=1., VOLUME=1. $END
  3.03089E+05  2.42347E+03  3.33459E+05  2.56975E+05  8.27519E+04  3.41878E+05 -1.31101E+05  2.52064E+05
 -1.95559E+05  9.27088E+04 -1.13974E+05 -2.93328E+04 -1.55572E+02 -5.30356E+04  5.91337E+04  6.65429E+03
  4.09146E+04  5.65026E+04 -1.61387E+04  7.77738E+04 -6.04283E+04  6.95576E+04 -8.99798E+04  3.67986E+04
 -8.36317E+04 -1.32937E+04 -5.89836E+04 -5.41409E+04 -2.08509E+04 -6.92853E+04  2.72660E+04 -5.09015E+04
  4.83511E+04  4.06764E+03  1.50249E+04  4.58793E+04 -3.47862E+04  5.62155E+04 -6.06107E+04 -1.44752E+03
 -5.49592E+04 -5.44068E+04 -7.60210E+03 -7.58228E+04  3.27585E+04 -4.99561E+04  4.81121E+04 -2.41700E+04
  4.48731E+04  7.17763E+03  2.73280E+04  2.38484E+04  1.30718E+04  2.95985E+04 -1.08069E+04  3.09949E+04
 -2.38775E+04  9.36426E+03 -2.06376E+04 -5.59792E+03  6.53415E+03 -1.89423E+03  2.19664E+04  9.80187E+03
  8.54404E+03  3.85405E+04 -3.22756E+04  4.03502E+04 -6.73846E+04 -5.64163E+02 -5.98372E+04 -5.11981E+04
 -9.96410E+03 -6.87656E+04  4.22781E+04 -4.87094E+04  6.67011E+04  1.25016E+03  4.09855E+04  3.41980E+04
 -3.27623E+03  3.86257E+04 -3.14840E+04  9.41954E+03 -2.94875E+04  4.03727E+03 -2.30151E+04 -1.28965E+04
 -1.33264E+04 -1.76740E+04 -1.54281E+03 -2.85510E+04  6.77728E+03 -2.25326E+04  1.22489E+04 -1.24984E+04
  8.89249E+03  2.83843E+03 -1.07543E+04  1.61482E+04 -2.12017E+04 -1.13254E+04 -1.06588E+04 -3.25911E+04
  2.07498E+04 -4.89954E+04  4.94377E+04 -1.89607E+04  4.89312E+04  2.10933E+04  1.46750E+04  5.44865E+04
 -1.85958E+04  3.85660E+04 -2.57486E+04  5.04752E+03 -1.74336E+04 -2.61617E+04  1.87319E+04 -3.37833E+04
  5.25851E+04 -8.29836E+03  3.81371E+04  2.59416E+04  1.84638E+04  4.66639E+04 -6.34390E+03  6.04968E+04
 -3.28214E+04  3.78065E+04 -4.85208E+04  1.05536E+04 -4.44607E+04 -1.98573E+04 -2.67398E+04 -3.99248E+04
  5.90131E+03 -4.49174E+04  3.29275E+04 -1.68863E+04  2.82482E+04  1.16310E+04  5.48723E+03  2.18694E+04
 -1.49220E+04  1.23388E+04 -1.77163E+04 -1.24343E+04  4.37779E+03 -1.18655E+04  1.68916E+04  1.06093E+04
  1.55932E+04  2.81810E+04  1.02640E+03  2.42422E+04 -2.27379E+04  1.47709E+04 -2.84044E+04 -2.52019E+03
 -2.11444E+04 -2.13720E+04 -7.48054E+03 -2.96282E+04 -1.64202E+03 -2.90695E+04  1.99769E+04 -2.46999E+04
  3.73830E+04 -1.38803E+04  3.70061E+04  1.19360E+02  2.46203E+04  2.10785E+04  1.45093E+04  4.28110E+04
 -1.87859E+04  3.49452E+04 -3.55879E+04  1.22556E+04 -2.68853E+04 -7.96187E+03 -1.15898E+04 -1.01191E+04
  6.09158E+03 -2.80955E+02 -4.40466E+03  4.59493E+03 -2.25322E+04  2.17809E+03 -1.75497E+04 -8.61267E+03
 -1.13528E+04 -2.08441E+04  2.98177E+03 -2.85220E+04  1.95883E+04 -1.66984E+04  2.07098E+04  3.28854E+03
  2.30665E+04  8.61448E+03  1.58720E+03  2.49132E+04 -1.26070E+04  1.60479E+04 -2.65640E+04 -5.03286E+03
 -1.54275E+04 -1.77791E+04 -5.30469E+03 -2.76109E+04  1.10016E+04 -1.80185E+04  2.10902E+04 -1.10089E+04
  2.16160E+04  4.28239E+03  2.09059E+04 -1.54899E+01  6.24613E+03  1.37787E+03  8.91624E+03 -5.99642E+01
  2.83200E+04  4.88432E+02  2.58788E+04  2.59344E+04  1.58997E+04  4.52090E+04 -2.26422E+03  4.65761E+04
 -2.69550E+04  3.86191E+04 -4.32839E+04  2.27546E+04 -4.20788E+04 -4.54991E+03 -3.12651E+04 -3.16281E+04
 -1.03359E+04 -3.80824E+04  1.88657E+04 -2.63047E+04  2.30104E+04 -2.16619E+04  2.27820E+04  9.62225E+03
  5.31717E+03  2.14195E+04 -1.17817E+04  1.94187E+04 -1.60209E+04 -4.51306E+03 -1.14102E+04 -1.61543E+04
 -8.17044E+03 -1.90557E+04  7.22086E+03 -1.88129E+04  1.82455E+04 -1.00814E+03  3.69012E+03  1.10766E+04
 -1.27151E+04  6.98863E+03 -1.10379E+04 -7.08689E+03 -2.56674E+03 -2.00869E+04  8.31323E+03 -1.32461E+04
  2.49994E+04 -6.40177E+03  2.36780E+04  8.99977E+03  2.55778E+04  2.34685E+04  9.46269E+03  3.21706E+04
 -2.29300E+03  3.32526E+04 -1.78112E+04  2.03017E+04 -2.21339E+04 -2.46258E+03 -1.56341E+04 -8.84337E+03
 -7.77274E+03 -1.00326E+04  5.44851E+02 -2.67117E+03  3.05824E+03  1.28528E+03 -1.11256E+04  1.77053E+03
 -1.54336E+04  6.72621E+03 -1.27364E+04 -1.34094E+04 -1.17729E+04 -2.04914E+04  3.40429E+03 -1.51365E+04
  1.53140E+04 -9.37528E+03  4.00005E+03  4.01840E+03  4.59169E+03  6.52163E+03 -4.56346E+03  5.10337E+03
 -1.13127E+04 -1.25338E+04 -2.98205E+03 -1.82774E+04  9.98528E+03 -1.44656E+04  2.49956E+04 -8.84879E+03
  1.83461E+04 -1.00745E+03  2.16794E+04  1.80415E+04  2.28931E+03  1.85894E+04 -1.10207E+04  1.48811E+04
 -1.42212E+04  4.17177E+03 -1.06496E+04 -3.45608E+03 -6.74510E+02 -7.69065E+03  3.76830E+03 -3.01809E+03
  8.87685E+03  1.03118E+04 -5.03998E+03  1.10968E+04 -5.68685E+03  1.41223E+04 -1.36221E+04  1.27779E+04
 -1.15069E+04 -8.24245E+03 -1.84105E+02 -1.29234E+04  1.43493E+03 -9.09239E+03  7.51979E+03 -4.07583E+02
  6.19435E+03  9.73948E+03 -8.80104E+03  1.34437E+04 -1.56211E+04 -1.71226E+03 -1.63241E+04 -4.62824E+02
 -1.03997E+04 -2.56582E+04  7.50800E+03 -1.81105E+04  9.57891E+03 -1.00769E+04  1.67005E+04  8.00653E+03
  1.16916E+04  1.21979E+04 -9.90296E+02  1.44692E+04 -1.14406E+04  6.41342E+03 -1.27977E+04 -9.30523E+03
 -1.12254E+04 -1.15915E+04  1.61170E+03 -1.16756E+04  4.90978E+03 -4.05991E+03  1.12208E+04 -5.66013E+03
  5.23137E+03  3.96151E+03 -1.51719E+03  6.70833E+03 -5.79385E+03 -4.25270E+03  1.49853E+03 -4.63478E+03
  7.17693E+03 -6.17049E+03  1.58994E+04 -2.59764E+03  1.37818E+04  1.37429E+04  3.59717E+03  1.93623E+04
 -1.11991E+03  2.44225E+04 -2.02339E+04  2.30605E+04 -2.30102E+04 -3.64629E+03 -1.77118E+04 -4.13308E+03
 -1.78372E+04 -1.71285E+04 -4.91710E+03 -1.18290E+04  5.35364E+03 -9.09706E+03  5.63371E+03 -1.98666E+03
 -3.94894E+02  4.97886E+03  4.78825E+03 -1.88180E+03  3.99093E+03 -2.05557E+03  1.02058E+04 -1.74736E+03
  1.11598E+04  6.19869E+03  1.01564E+04  7.58317E+03  4.61910E+02  6.61764E+03 -1.19441E+04  8.52518E+03
 -1.04348E+04  1.83850E+03 -4.99138E+03 -5.02128E+03 -1.18838E+03 -1.38718E+04  9.27004E+03 -1.20893E+04
  1.93365E+04 -8.01811E+03  1.69196E+04  5.02044E+03  1.38185E+04  1.65615E+04  5.00623E+03  1.43189E+04
 -3.26223E+03  1.86020E+04 -9.36047E+03 -3.78746E+02 -1.00748E+04 -4.30832E+03  2.98093E+02 -7.59333E+03
  1.62513E+03  1.52604E+03 -1.61298E+03  1.48077E+03 -1.12715E+04  6.20879E+03 -8.16585E+03 -2.62234E+03
 -1.19742E+04 -8.05065E+03 -2.15238E+03 -1.66392E+04  7.83528E+03 -1.33909E+04  1.29288E+04 -2.02558E+03
  1.72157E+04  1.14505E+03  6.65712E+03  7.32584E+03 -5.61365E+02  1.33342E+04 -1.15542E+04  9.58806E+03
 -1.15463E+04 -2.89562E+03 -9.84357E+03 -8.90919E+03 -4.40283E+01 -1.63267E+04  6.24369E+03 -5.60997E+03
  7.89901E+03 -2.77547E+03  1.87484E+03  4.06008E+03  1.55156E+03  1.05072E+04 -9.58124E+02  7.14999E+03
 -2.63792E+03  1.14367E+02  3.91204E+03 -2.07581E+02 -4.38252E+03  1.05364E+03  2.78600E+03  3.17101E+03
 -4.81224E+03  1.59119E+04 -1.34337E+04  1.24006E+04 -1.58590E+04  8.41233E+03 -1.79580E+04 -2.60437E+02
 -1.28438E+04 -1.12364E+04  6.93641E+03 -1.08590E+04  1.29032E+04 -1.14782E+04  1.97436E+04 -2.68699E+03
  9.70357E+03  5.03520E+03  5.65514E+03  1.19694E+04 -3.11610E+03  2.47537E+03 -5.74806E+03  5.11105E+03
 -5.48843E+03 -1.26460E+03  1.49615E+03 -7.25778E+03 -2.38149E+02 -2.82231E+03  4.62581E+03  2.29389E+03
 -5.99387E+03  2.89147E+03  7.55851E+03  5.05783E+03  2.16569E+03  3.80876E+03  4.29409E+03 -3.74814E+02
  3.88455E+03  1.87371E+02  4.30896E+03 -3.13577E+02  3.94725E+03  7.74991E+03 -9.39104E+02  1.10641E+04
 -3.10508E+03  4.91961E+03 -1.25036E+04 -2.58710E+03 -1.19962E+04 -6.32886E+03 -2.22632E+03 -6.64173E+03
  5.22145E+03 -2.85120E+03  4.73923E+03 -6.34356E+03  4.79921E+03 -1.35289E+03 -2.31395E+03 -8.42548E+02
 -5.65294E+03  8.86340E+03 -6.50041E+03 -2.57482E+03 -1.52494E+03 -1.03927E+04  1.85513E+03 -9.93836E+03
  7.60010E+03 -8.11719E+03  4.90550E+03 -3.00718E+03  4.44508E+03 -4.65865E+03 -5.65014E+03  3.69396E+03
  6.19253E+02  7.18703E+02 -7.55817E+03 -1.93488E+03  3.65874E+03 -8.06662E+03  1.25487E+04 -2.46767E+03
  5.69182E+03 -1.62880E+03  8.81468E+03  8.12207E+03  8.19231E+03  9.07717E+03 -6.10686E+03  9.31372E+03
 -8.96809E+03  1.57797E+03 -7.35096E+03 -3.94158E+03 -3.93346E+03 -1.05984E+04  1.56862E+03 -1.23931E+03
  5.59735E+02 -2.35424E+03  5.22959E+03  5.19075E+03 -3.71627E+02  8.75990E+03 -1.84616E+03  9.06441E+03
 -6.85363E+03  9.19361E+03 -9.82963E+03  7.34083E+03 -3.54340E+03 -2.22903E+03 -2.04779E+03 -4.06807E+03
  2.59837E+03  1.15306E+04 -9.52291E+03  1.58895E+03 -9.52547E+03  4.29659E+02 -1.14421E+04 -9.50717E+03
 -4.45150E+03 -1.57782E+04  1.20894E+03 -1.69610E+04  7.28735E+03 -1.23790E+04  9.09272E+03 -4.79460E+03
  1.64127E+04 -7.37334E+01  1.25876E+04  5.95073E+03  2.84662E+03  7.27543E+03 -5.10427E+03  1.07733E+04
 -6.91945E+03  3.51702E+03 -2.07512E+03  3.00176E+03 -2.64038E+03  4.36290E+03  1.33344E+02 -5.87538E+03
  1.38334E+03  1.27746E+03 -4.82057E+03  2.35511E+02 -1.76199E+03  6.53608E+02  1.09241E+03 -2.07903E+03
  1.63176E+03 -4.76289E+03  8.15281E+03  2.38371E+03  6.24292E+03  5.28194E+03  8.18012E+03  1.00272E+04
 -3.27922E+03  1.43576E+04 -1.21268E+04  1.19139E+04 -1.83930E+04 -5.19877E+03 -1.40302E+04 -7.13327E+03
 -2.32669E+03 -1.04723E+04  4.16558E+03 -1.02807E+04  3.86184E+03  3.72585E+02  9.87132E+03 -3.96628E+03
  7.15245E+03  5.68978E+03 -2.43836E+03  3.04462E+03 -3.41877E+02  5.13681E+02 -2.57985E+03 -7.37668E+03
  6.12830E+02 -2.22153E+03  6.74469E+02  3.32011E+02  5.24675E+03  7.98370E+03  5.90791E+03  3.04509E+03
 -4.82193E+03  4.82352E+03 -1.00465E+04 -6.04433E+03 -6.52313E+03 -3.52095E+03  8.76290E+02 -9.17070E+03
  2.15453E+02 -1.23107E+04  5.67919E+03 -6.62426E+02  5.89570E+03  8.84795E+03  8.62442E+03  2.74418E+03
 -7.61367E+01  4.95659E+03 -9.03560E+03  3.07213E+03 -1.04337E+04  8.25859E+03 -4.80142E+03  1.88858E+03
 -7.34524E+03 -2.00801E+02 -5.23373E+03  7.28249E+02 -8.14397E+02 -8.07417E+01 -1.40083E+03 -1.08158E+03
 -3.99608E+03  2.91983E+03 -4.63756E+03 -8.52823E+03  4.40146E+03 -9.89334E+03  8.28580E+03 -3.38681E+02
  8.57894E+03  5.39134E+03  6.36828E+03 -2.91474E+03 -1.97632E+03  7.17407E+03 -4.06947E+03  2.18143E+03
