 $NMID ID='MM_0lb_SNR50_12hz_g45_48.RAW', FMTDAT='(8E13.5)'
 TRAMP=1., VOLUME=1. $END
  3.08922E+05 -2.64382E+03  3.32622E+05  2.52373E+05  8.84743E+04  3.38142E+05 -1.29580E+05  2.47976E+05
 -1.89319E+05  8.62294E+04 -1.14349E+05 -3.72991E+04 -1.03948E+03 -5.06541E+04  5.63801E+04 -3.96587E+02
  3.45773E+04  5.38577E+04 -2.25272E+04  8.02263E+04 -5.94312E+04  6.88151E+04 -8.45324E+04  3.59137E+04
 -7.99840E+04 -1.37950E+04 -6.11660E+04 -5.41907E+04 -1.49290E+04 -7.16329E+04  2.66584E+04 -4.25343E+04
  3.88404E+04  7.37083E+03  1.31778E+04  4.27732E+04 -3.19072E+04  4.62815E+04 -6.18979E+04 -5.50854E+03
 -4.98849E+04 -5.81993E+04 -9.50662E+03 -7.69857E+04  3.53319E+04 -6.08059E+04  4.46462E+04 -1.60466E+04
  3.96618E+04  1.22031E+04  2.72359E+04  2.58844E+04  1.19618E+04  3.34492E+04 -6.28347E+03  2.44747E+04
 -2.37009E+04  1.04535E+04 -1.73095E+04 -2.67215E+03  1.08050E+04 -1.42701E+03  2.37504E+04  1.12009E+04
 -3.43420E+02  3.71779E+04 -3.10408E+04  3.27469E+04 -6.68756E+04  6.94595E+02 -5.25447E+04 -4.13216E+04
 -1.32923E+04 -6.45895E+04  3.43210E+04 -4.43134E+04  5.94285E+04 -1.53113E+03  3.69895E+04  3.46432E+04
 -3.15866E+03  3.33541E+04 -3.08162E+04  1.57259E+04 -2.25074E+04 -3.33845E+03 -2.13170E+04 -1.07678E+04
 -8.46585E+03 -1.11341E+04  8.73411E+02 -2.12237E+04  8.19257E+03 -2.59524E+04  1.51291E+04 -1.31382E+04
  9.87631E+03  6.99386E+03 -6.28446E+03  1.02430E+04 -2.07990E+04 -5.99559E+03 -8.82058E+03 -3.27793E+04
  2.68824E+04 -3.93382E+04  4.65189E+04 -1.96468E+04  5.06798E+04  1.91102E+04  1.83858E+04  4.25580E+04
 -1.75135E+04  3.79941E+04 -2.38826E+04  4.41831E+03 -9.31326E+03 -3.03939E+04  1.89433E+04 -3.67424E+04
  4.25451E+04 -6.85930E+03  3.85243E+04  1.98888E+04  2.06062E+04  4.56837E+04 -8.00562E+03  4.86275E+04
 -3.29393E+04  3.67451E+04 -4.93036E+04  1.04729E+04 -3.93406E+04 -1.74323E+04 -3.01373E+04 -3.79588E+04
  5.26679E+03 -3.81877E+04  2.98315E+04 -1.58635E+04  2.95137E+04  1.07659E+04  1.95638E+03  1.66997E+04
 -1.20145E+04  9.34522E+03 -1.09447E+04 -4.95859E+03  8.67441E+03 -1.62990E+04  2.12229E+04  8.70758E+03
  1.11802E+04  2.42173E+04 -1.58626E+03  2.63445E+04 -2.61188E+04  1.47825E+04 -3.01210E+04 -6.21463E+01
 -2.41074E+04 -1.69878E+04 -6.48232E+03 -2.56832E+04  5.97129E+03 -1.94664E+04  1.57899E+04 -1.53880E+04
  2.84387E+04 -1.79502E+04  2.85977E+04  5.78084E+03  2.23486E+04  1.98534E+04  7.53415E+02  3.55685E+04
 -2.02677E+04  3.11712E+04 -2.94197E+04  5.30056E+03 -2.14435E+04 -1.17545E+04 -1.61790E+03 -9.28255E+03
 -6.78499E+02 -4.45581E+03 -2.92993E+03  9.91598E+03 -1.63403E+04  9.60930E+03 -1.59658E+04 -6.31359E+03
 -1.07615E+04 -2.24589E+04 -6.49105E+01 -2.89772E+04  1.43262E+04 -1.36553E+04  2.00324E+04 -4.21734E+03
  1.43017E+04  1.26587E+04  3.96917E+03  2.25885E+04 -1.60432E+04  9.31831E+03 -1.51188E+04 -9.54322E+03
 -1.51897E+04 -2.30433E+04 -1.98733E+03 -2.44939E+04  1.37088E+04 -1.86418E+04  1.77759E+04 -8.95328E+03
  1.85996E+04 -7.15112E+03  1.47169E+04  5.28621E+03  7.55818E+03  5.09138E+03  1.15238E+04 -1.15996E+03
  2.22571E+04  3.24241E+03  2.04607E+04  1.88416E+04  1.21518E+04  3.62537E+04 -6.53440E+03  4.17836E+04
 -1.91307E+04  3.49213E+04 -3.29701E+04  1.71883E+04 -3.91802E+04  3.59624E+02 -3.38921E+04 -2.07914E+04
 -1.03113E+04 -3.06175E+04  6.05505E+03 -2.72588E+04  2.26781E+04 -1.58156E+04  2.03494E+04  5.47029E+03
  8.14208E+03  1.22685E+04 -9.64654E+03  1.85431E+04 -1.21639E+04  2.51187E+01 -1.35460E+04 -8.85647E+03
 -2.71438E+03 -1.39860E+04  6.78759E+03 -1.69916E+04  4.29234E+03 -5.60765E+03  8.40624E+02  9.87969E+03
 -1.06364E+04  5.67559E+03 -1.21194E+04 -4.34189E+03 -1.66746E+03 -1.61082E+04  1.44380E+04 -1.81561E+04
  1.91062E+04 -9.56092E+03  1.79536E+04  4.52356E+03  2.06797E+04  1.78301E+04  1.05340E+04  2.26396E+04
 -6.57825E+03  2.03487E+04 -1.30306E+04  1.45676E+04 -1.74135E+04  5.20155E+03 -1.44574E+04 -6.89685E+03
 -5.09186E+03 -4.08108E+03 -1.51534E+03 -6.83597E+02  1.76491E+03  3.68774E+02 -4.96257E+03  9.73907E+03
 -1.24969E+04  1.34974E+03 -8.90604E+03 -1.12903E+04 -4.67674E+03 -1.33986E+04  6.61169E+03 -1.46826E+04
  6.70760E+03 -4.57334E+03  9.46869E+03  5.88685E+03 -9.17703E+02  1.14888E+04 -8.75665E+03  1.19402E+03
 -6.17071E+03 -4.42109E+03 -5.77597E+03 -1.13279E+04  9.45761E+03 -1.32066E+04  1.49586E+04 -1.17426E+04
  1.71140E+04  5.84751E+03  1.31152E+04  9.89397E+03 -1.88050E+02  1.32966E+04 -7.14930E+03  1.45055E+04
 -1.00462E+04  2.05399E+03 -4.07137E+03 -1.74343E+02  1.50341E+03 -4.59245E+03  6.61908E+03 -4.59257E+03
  1.41778E+04  4.66532E+03 -2.82977E+02  3.03983E+02 -3.61019E+03  9.44952E+03 -1.30673E+04  4.93422E+03
 -5.58249E+03 -6.45084E+03  2.53473E+03 -9.04087E+03  9.07180E+03 -9.32746E+03  3.81431E+03  5.83771E+03
  4.92177E+03  6.26973E+03 -2.68266E+03  8.89925E+03 -1.16151E+04  8.53079E+03 -1.19353E+04 -7.13466E+03
 -5.73303E+03 -1.03826E+04  4.50791E+03 -1.49724E+04  8.44087E+03 -7.50660E+03  1.09523E+04 -2.37863E+03
  3.92875E+03  8.66752E+03 -1.78774E+03  1.27209E+04 -7.28287E+03  5.63679E+03 -1.13971E+04  2.92927E+03
 -1.28378E+04 -9.13797E+03 -4.36709E+03 -6.62076E+03  1.06044E+03 -1.11212E+04  2.22423E+03 -7.83999E+03
  2.50896E+03  2.03913E+03 -1.96589E+03  5.57928E+03  2.91286E+02 -3.03022E+03  4.71371E+03 -9.65538E+03
  1.32704E+04 -6.69132E+03  1.33025E+04  2.48395E+03  9.48306E+03  8.78525E+03  7.42653E+03  1.32775E+04
 -4.67876E+03  9.86725E+03 -1.36242E+04  1.12360E+04 -2.10875E+04  6.37784E+03 -1.56194E+04 -5.81467E+03
 -1.05183E+04 -1.36763E+04  1.75550E+03 -9.40286E+03  2.87590E+03 -1.13136E+04 -4.08010E+02 -1.06555E+04
 -3.13583E+02 -5.05725E+03 -3.54663E+03  1.76059E+03  8.38099E+03  1.20389E+02  8.80206E+03 -1.23636E+03
  8.62669E+03  1.28576E+02  3.44235E+03  9.74742E+03 -5.26228E+03  7.89212E+03 -9.52535E+03  8.83806E+03
 -9.89729E+03 -1.17209E+03 -7.64445E+03 -7.81664E+03  5.23403E+02 -1.05350E+04  6.68585E+03 -1.04154E+04
  1.37969E+04 -7.75039E+03  1.00891E+04  8.18039E+03  7.50373E+03  1.19688E+04  4.64670E+03  1.41366E+04
 -4.32432E+03  8.84190E+03 -4.67028E+03  5.45239E+03 -7.55747E+03 -4.75385E+03 -6.73185E+02 -8.40897E+03
 -3.59077E+03 -4.75768E+03  1.06296E+03 -9.90786E+02 -8.50949E+03 -2.92403E+03 -6.84333E+03  9.82407E+02
 -2.59590E+03 -9.64697E+03 -2.83581E+03 -1.36407E+04  7.76881E+03 -8.68870E+03  1.17564E+04 -1.70335E+01
  9.07184E+03  1.10667E+03  7.50341E+03  1.11056E+04  3.72371E+03  1.31073E+04 -8.18869E+03  4.93141E+03
 -8.14046E+03 -1.91402E+02 -4.07877E+03 -7.17388E+03  2.70597E+03 -6.34972E+03  5.32717E+03 -4.22594E+03
  4.71624E+03 -1.09147E+03  4.07852E+03  4.74952E+03  2.07275E+02  4.29875E+03 -2.73795E+03 -1.48852E+03
  2.33273E+01  1.77851E+03  2.01693E+03  4.58077E+03  2.70361E+03  8.44621E+03  6.48028E+03  8.80910E+03
 -2.03193E+03  9.57526E+03 -3.15410E+03  1.18707E+04 -1.12989E+04 -1.41850E+03 -1.68510E+04 -7.71160E+03
 -1.07927E+03 -9.36596E+03 -1.60320E+03 -1.19792E+04  1.86993E+03 -8.47005E+03  2.36780E+03 -1.33769E+03
  8.51366E+03  2.75828E+03  4.57673E+03  9.13640E+03 -2.69835E+03  2.68440E+03 -7.40030E+03 -2.20493E+02
 -4.36451E+03 -1.74975E+03  1.95554E+03 -4.13492E+03  6.58623E+03 -4.11336E+02  3.26742E+03  1.31248E+03
  6.33617E+03  4.52908E+03  9.05062E+03 -3.16336E+03 -5.89908E+03  5.83026E+03 -2.93152E+02  3.32193E+02
 -6.52752E+03  3.43989E+03  5.14227E+03 -2.51326E+03 -3.59081E+03  6.19812E+03  1.22733E+03  4.24403E+03
 -6.02223E+03  2.66045E+03 -4.39888E+03 -1.95242E+03 -4.99622E+03  1.93801E+03 -4.61580E+03 -4.64991E+03
  7.93929E+02 -5.46348E+03  3.17593E+03 -1.85020E+03  7.19290E+02  2.27400E+03  1.06377E+03 -1.04309E+03
 -8.36857E+02  3.03125E+03 -6.20493E+03  2.24217E+03 -1.86358E+03 -6.52465E+03  1.28268E+03 -4.41127E+03
  3.32325E+03 -7.35761E+03  5.15016E+03 -1.79966E+03  4.69774E+03  3.45334E+03  1.89352E+03  1.03210E+03
 -3.35235E+03  7.83937E+02 -3.75077E+03 -8.42289E+03 -5.79603E+03  3.81058E+03  1.65061E+03 -4.39618E+03
  4.90490E+03  6.24095E+03  8.20570E+03  5.84890E+03  1.76511E+02  4.20967E+03 -1.35344E+02  5.09660E+03
 -3.50399E+03 -1.54246E+03 -7.99520E+03 -1.47574E+02  3.76880E+02 -8.68732E+03 -1.46655E+02 -4.59749E+03
  3.24709E+03 -1.41757E+03  4.28745E+03  3.85941E+02 -6.51470E+03  4.43816E+03  3.64631E+03  1.01433E+03
  8.86815E+02  3.61247E+03 -1.77072E+03  6.04344E+03 -1.86486E+03 -7.12353E+03  1.75490E+03  5.37977E+03
 -5.85337E+03  3.46622E+03 -4.21450E+03  4.07204E+02  2.67202E+03  1.01922E+02 -7.32433E+03 -4.12648E+03
 -6.27186E+03 -8.93386E+03  6.67303E+03 -8.76103E+03  4.25275E+03 -7.77999E+03  2.56397E+03 -5.26283E+03
  4.91128E+03  3.06114E+03  7.12623E+03  3.21196E+03  1.96294E+03  6.11100E+03  3.20245E+03  1.15852E+03
 -1.51352E+03  2.31925E+03 -6.74968E+03  1.09070E+03 -4.59766E+03 -3.65649E+03  4.83342E+02  5.93237E+03
 -1.01757E+03 -8.54294E+01  1.11546E+03  8.53696E+02  6.67329E+02  9.17812E+01 -1.74423E+03 -8.46390E+03
  7.77957E+03  1.14242E+03 -2.32888E+03  2.71214E+01 -1.97940E+03  2.18953E+03  3.84709E+03  1.14938E+04
 -4.95199E+03  6.89834E+03 -4.56740E+03  1.13969E+03 -4.28220E+03  1.21889E+03 -2.74684E+03 -5.35939E+03
 -3.37964E+03 -1.06389E+04  1.31412E+03 -9.17049E+03  2.91087E+02 -3.45260E+03  7.16868E+03 -3.54375E+03
  2.21650E+03 -1.19600E+03 -3.86746E+03  1.51801E+03  2.08237E+03 -3.39083E+03  4.07931E+03 -7.62822E+03
  9.66171E+03 -3.11420E+03  8.36415E+03  3.03526E+03  3.53967E+03  2.95444E+03  1.85142E+03 -1.70283E+03
  3.26473E+03 -4.07345E+03 -3.79992E+03 -2.12525E+02 -5.91373E+02 -1.13151E+03 -2.82566E+03 -1.05169E+04
  9.03829E+02 -3.81518E+03  6.41799E+03 -5.55753E+03 -4.54117E+02  1.76766E+03 -1.55160E+03  8.20545E+02
 -1.75836E+00  4.46363E+03 -3.21731E+03  3.16605E+02 -6.24573E+03  1.09419E+03  5.10944E+03  3.16677E+02
 -8.60466E+03  7.28503E+01 -4.52697E+02  2.11966E+03 -5.53546E+02 -1.05314E+03 -3.06272E+02 -3.38224E+03
  1.14732E+03  4.12900E+03 -4.91558E+02 -2.50202E+03  4.54666E+03 -4.32329E+03 -1.72342E+03 -3.55466E+03
  7.57595E+03  2.91368E+03  3.24209E+03  8.03352E+02 -2.27760E+02  4.15817E+03 -6.39200E+03 -4.50591E+03
