 $NMID ID='MM_0lb_SNR50_7hz_g50_39.RAW', FMTDAT='(8E13.5)'
 TRAMP=1., VOLUME=1. $END
  3.13873E+05 -3.33236E+03  3.33229E+05  2.52043E+05  8.44058E+04  3.37394E+05 -1.32983E+05  2.46670E+05
 -1.83952E+05  8.18097E+04 -1.11761E+05 -3.46213E+04 -2.06932E+03 -4.48194E+04  5.53550E+04 -4.08572E+03
  2.89546E+04  5.66228E+04 -1.86000E+04  8.03798E+04 -6.11004E+04  5.94336E+04 -8.40093E+04  3.23260E+04
 -8.39722E+04 -4.71412E+03 -5.08920E+04 -5.56623E+04 -1.31648E+04 -7.59603E+04  2.70116E+04 -4.12140E+04
  4.07617E+04  3.61934E+03  1.29239E+04  5.12593E+04 -3.58239E+04  5.17069E+04 -7.75271E+04 -5.12747E+02
 -5.64819E+04 -5.13601E+04 -5.02330E+03 -7.94924E+04  4.23346E+04 -4.97774E+04  4.91079E+04 -2.34923E+04
  4.40585E+04  8.18817E+03  3.39274E+04  2.47715E+04  1.38298E+04  3.45056E+04 -9.27742E+03  3.07545E+04
 -2.42673E+04  1.41629E+04 -1.73248E+04 -6.74802E+03  7.05319E+03 -8.02837E+03  2.24601E+04  1.70323E+04
  4.21008E+03  3.33891E+04 -3.51704E+04  3.35989E+04 -6.44371E+04  5.07850E+03 -5.75655E+04 -4.51659E+04
 -1.12254E+04 -7.10904E+04  3.89515E+04 -5.47416E+04  6.00204E+04 -2.49106E+03  3.99803E+04  4.14641E+04
 -5.70295E+03  4.06241E+04 -3.20001E+04  1.88078E+04 -3.52635E+04  2.01864E+03 -1.58585E+04 -1.57971E+04
 -1.16033E+04 -1.05919E+04  4.34449E+03 -2.14370E+04  6.00335E+03 -2.70625E+04  1.75568E+04 -1.66010E+04
  1.16007E+04  8.61201E+03 -9.91357E+03  1.10420E+04 -3.15225E+04 -1.12340E+04 -1.31940E+04 -3.52659E+04
  3.09374E+04 -4.70877E+04  5.19604E+04 -1.93963E+04  5.08834E+04  1.95925E+04  1.41685E+04  5.12823E+04
 -1.90156E+04  4.07537E+04 -3.00897E+04 -7.63363E+01 -1.12465E+04 -2.58778E+04  2.65423E+04 -3.42386E+04
  4.78798E+04 -1.54820E+04  4.61495E+04  3.00366E+04  1.83104E+04  5.57836E+04 -1.12213E+04  5.21775E+04
 -3.31394E+04  3.66122E+04 -4.86096E+04  2.13999E+03 -5.58393E+04 -1.71516E+04 -2.55892E+04 -4.31641E+04
  6.89544E+03 -4.49662E+04  3.12398E+04 -1.82944E+04  3.88327E+04  1.18562E+04  6.83310E+03  1.48113E+04
 -1.10783E+04  1.07632E+04 -3.53447E+03 -1.34640E+04  3.46940E+03 -1.46378E+04  1.68867E+04  3.42818E+03
  7.48274E+03  1.84052E+04 -8.55594E+03  2.34339E+04 -2.38605E+04  2.10461E+04 -3.83405E+04 -7.59434E+03
 -2.52925E+04 -1.19967E+04 -1.77117E+04 -2.32260E+04  6.42789E+03 -1.92413E+04  2.52321E+04 -2.70602E+04
  3.91775E+04 -6.82323E+03  4.43719E+04  7.76341E+03  2.43439E+04  2.96233E+04  8.89837E+03  4.06630E+04
 -2.41428E+04  3.95732E+04 -3.50968E+04  3.93819E+02 -2.36836E+04 -1.31330E+04 -7.31701E+03 -1.84100E+04
  2.51812E+03 -3.85137E+03 -5.05454E+03  8.36618E+03 -1.65524E+04  8.98324E+02 -2.46082E+04 -9.86571E+03
 -1.81635E+04 -2.56757E+04  8.31640E+03 -2.73886E+04  2.03958E+04 -1.55000E+04  1.95976E+04 -1.79896E+03
  2.32146E+04  1.76565E+04 -5.96611E+03  3.04527E+04 -2.71937E+04  1.68567E+04 -2.50696E+04 -1.01616E+04
 -1.71692E+04 -2.16253E+04 -3.52048E+03 -2.63035E+04  8.65571E+03 -1.73286E+04  2.02118E+04 -1.08856E+04
  2.76697E+04 -4.88629E+03  2.32504E+04  4.32457E+03  9.07147E+03  2.14363E+03  1.56418E+04 -1.97305E+03
  2.00918E+04  3.03357E+03  2.17888E+04  1.72472E+04  1.30329E+04  4.02989E+04 -2.66462E+03  3.76771E+04
 -2.97537E+04  3.96829E+04 -4.26195E+04  2.29693E+04 -5.60313E+04 -2.43828E+03 -4.08359E+04 -2.54328E+04
 -1.63989E+04 -2.69816E+04  1.58288E+04 -3.72583E+04  2.48520E+04 -1.69031E+04  2.66228E+04  1.25344E+04
  1.25022E+04  2.52983E+04 -1.62668E+04  2.09309E+04 -1.95269E+04  6.10041E+03 -1.39092E+04 -1.68926E+04
  1.84904E+02 -2.41256E+04  1.18938E+04 -1.98758E+04  1.40667E+04  6.43552E+02 -2.98543E+03  8.82550E+03
 -1.86677E+04 -1.23236E+03 -1.67976E+04 -2.84490E+03 -1.11284E+03 -1.93766E+04  1.00954E+04 -2.34480E+04
  2.51620E+04 -1.09705E+04  3.13201E+04  4.46292E+03  2.69165E+04  1.99001E+04  1.23479E+04  2.41022E+04
 -1.17677E+04  3.72239E+04 -2.67205E+04  2.60440E+04 -2.90594E+04  1.09795E+03 -1.68135E+04 -7.52391E+03
 -1.07453E+04 -7.70182E+03 -5.85444E+03 -3.07758E+03  1.35876E+03  7.47336E+03 -5.20257E+03  8.84508E+03
 -1.81847E+04  3.44153E+03 -2.03147E+04 -1.21284E+04 -9.60692E+03 -2.12300E+04  4.76199E+03 -2.12506E+04
  1.48044E+04 -3.77590E+03  1.06723E+04  4.56687E+03  1.82006E+03  7.95616E+03 -1.42733E+04 -1.25458E+03
 -6.38208E+03 -8.79750E+03 -1.36023E+03 -1.62206E+04  1.23434E+04 -9.42555E+03  3.06246E+04 -1.04951E+04
  2.96444E+04  5.90879E+03  2.69368E+04  1.38720E+04  4.93429E+03  2.36302E+04 -7.00532E+03  2.33262E+04
 -1.08508E+04  5.17689E+03 -1.11351E+04 -1.71430E+03  4.77670E+03 -5.54409E+03  1.26133E+04 -1.26042E+03
  8.74047E+03  4.86165E+03  3.20619E+03  1.11169E+04 -3.05973E+03  1.82073E+04 -1.97768E+04  3.71997E+03
 -9.09068E+03 -8.23729E+03  4.22493E+03 -1.28983E+04  1.62062E+04 -9.66162E+03  1.50840E+04  6.66880E+03
  8.33590E+03  1.40063E+04 -1.75793E+04  1.56964E+04 -7.91984E+03  8.10825E+03 -1.02234E+04 -2.49801E+03
 -1.77247E+04 -1.88546E+04  3.74658E+03 -1.82437E+04  2.28186E+04 -1.52874E+04  2.22591E+04  1.12819E+04
  1.12107E+04  1.62590E+04 -7.03245E+03  1.96785E+04 -1.46509E+04  5.46349E+03 -1.56457E+04 -6.55393E+03
 -1.24277E+04 -1.31146E+04 -4.26635E+03 -1.41167E+04  2.89758E+03 -1.87399E+04  8.61115E+03 -3.38912E+03
  1.35386E+04  6.73778E+03 -5.50223E+03 -1.25314E+03 -8.32726E+03 -1.85047E+03  3.92541E+03 -6.47140E+03
  1.64705E+04 -7.82602E+03  1.74658E+04 -3.91014E+02  2.60082E+04  1.33027E+04  8.09799E+03  3.11624E+04
 -2.27124E+03  3.00204E+04 -2.19980E+04  2.12858E+04 -2.42052E+04 -1.47744E+03 -3.12763E+04 -1.13376E+04
 -1.01258E+04 -1.66440E+04 -1.42008E+02 -2.22015E+04  4.62174E+03 -6.37753E+03  1.55236E+04 -7.96323E+03
  3.95067E+03 -7.87624E+03 -3.05879E+03 -2.80651E+03  1.18371E+04 -8.51234E+03  1.47039E+03 -1.90787E+03
  1.51380E+04  4.24218E+03  8.32671E+03  1.25661E+04  1.51077E+03  1.27966E+04 -1.79406E+04  8.98177E+03
 -2.18593E+04  4.96322E+03 -9.48693E+03 -1.90557E+04 -7.94558E+00 -1.54119E+04  9.00000E+03 -1.59493E+04
  1.56604E+04 -8.07697E+03  2.68973E+04  1.10779E+03  1.56987E+04  2.28197E+04  3.27669E+02  2.83975E+04
 -1.03145E+04  1.72362E+04 -1.04811E+04  1.42109E+03 -1.69748E+03 -1.45652E+03 -4.71520E+03 -4.96278E+03
 -7.03582E+03  2.05147E+03 -5.14704E+03 -2.96411E+02 -8.79422E+03  1.63168E+03 -1.72330E+04 -4.07532E+03
 -9.91880E+03 -7.03329E+03  3.58277E+03 -1.79927E+04  9.38878E+03 -1.50242E+04  1.66789E+04 -7.92506E+03
  2.10928E+04  7.73103E+03  6.23649E+03  9.39487E+03 -1.58167E+03  2.32144E+04 -1.81587E+04  6.61093E+03
 -2.15414E+04 -5.29109E+03 -1.09782E+04 -2.02251E+04 -3.85825E+03 -7.33731E+03  6.67924E+03 -6.54141E+03
  1.93181E+04 -1.71537E+03  6.14135E+03  7.87135E+02 -3.24344E+02  5.38391E+03  6.70585E+03  3.22190E+03
  4.71071E+03 -8.32321E+02  5.08433E+02 -1.25011E+03  8.76389E+03  8.91410E+03  9.73482E+03  8.84893E+03
  4.70128E+02  1.19432E+04 -1.36380E+04  2.54751E+04 -1.88842E+04 -6.14218E+02 -2.03841E+04 -6.15474E+03
 -1.76967E+04 -2.21109E+04  2.21582E+03 -2.25620E+04  1.29940E+04 -1.15046E+04  1.08714E+04 -1.06421E+03
  1.40461E+04  3.68678E+03 -1.61489E+03  7.81947E+03 -4.11498E+03  1.81452E+03 -5.60800E+03 -6.91084E+03
 -4.89018E+03  5.85131E+02  1.44580E+04 -1.21954E+04  5.06495E+03 -3.03620E+03  3.97903E+03  6.00597E+03
 -6.60541E+01 -4.96658E+03 -9.21008E+03  3.88859E+03  8.78622E+02  4.91073E+03  5.47360E+03 -1.37896E+03
 -3.74530E+02 -1.23372E+04  1.10387E+04  6.55478E+03  5.90958E+03  5.16153E+03  8.79922E+02  1.34034E+04
 -1.27515E+04  1.49700E+04 -9.16532E+03  9.59780E+03 -9.27771E+03 -1.43438E+03 -4.98757E+03 -3.56859E+03
 -3.73981E+03 -1.74338E+04  4.07272E+03 -1.20888E+04  4.51176E+03  1.23751E+03 -5.02081E+03 -1.41103E+01
 -9.39590E+03  1.13502E+04 -9.19669E+03 -1.99806E+03 -6.33045E+02 -1.96068E+04 -6.49295E+02 -4.86284E+03
  1.76224E+03 -6.62870E+03  1.29206E+04 -4.23566E+02  1.17258E+04  4.02420E+03 -1.30465E+03  4.55110E+03
  2.97663E+03  6.55481E+02 -3.47202E+03 -2.74685E+03  2.63428E+03 -1.06066E+04  6.42784E+03 -7.05010E+03
  1.61657E+04 -1.27337E+03  1.47941E+04  1.55446E+04  3.98731E+03  1.29907E+04  1.70650E+03  1.50006E+04
 -1.86548E+04  9.99362E+03 -1.27331E+04 -1.54753E+03 -7.98031E+03 -8.52241E+03  1.25979E+03 -6.94571E+03
  6.45470E+03 -4.51489E+03  9.96407E+03  3.34914E+03  3.61306E+03  1.08233E+04 -3.93029E+03  8.33047E+03
 -5.71838E+03  6.26232E+03  1.96547E+03  4.79687E+02  8.23921E+02  2.08075E+03 -1.50378E+03  1.32166E+04
  1.45671E+03  4.16741E+03 -1.42456E+04 -2.66287E+03 -1.13520E+04  4.11603E+03 -1.77648E+04 -1.17506E+04
  8.93594E+02 -1.97152E+04  1.17347E+03 -2.31545E+04  1.48095E+04 -1.77266E+04  1.90562E+04 -2.47277E+03
  2.08034E+04  7.87192E+03  1.58361E+04  1.15343E+04  8.26215E+03  1.31242E+04 -2.82509E+03  1.49701E+04
  1.32662E+03  8.73449E+03 -2.89175E+03  7.41314E+03 -4.10355E+03  4.60080E+01 -6.41362E+03  4.81159E+03
 -2.21698E+03 -1.93027E+03 -6.07930E+03  2.40329E+03 -6.22196E+03 -2.47135E+03 -2.72067E+03 -4.83724E+03
  5.50019E+03 -3.73201E+03  8.69647E+03 -4.08934E+03  2.17502E+04  7.86840E+03 -1.91492E+03  1.86293E+04
 -4.50438E+03  2.01216E+04 -2.03086E+04  1.06466E+04 -1.45555E+04 -2.37306E+03 -8.30230E+03 -1.99748E+04
 -2.66920E+03 -5.64201E+03 -7.94561E+02 -1.84801E+04  1.27094E+04 -1.56073E+04  9.50572E+03  5.45099E+03
  2.78438E+03  4.87061E+03 -3.91730E+03  4.65848E+03 -5.28722E+03  6.18013E+03 -3.65607E+03 -1.18009E+04
 -1.45112E+03 -6.33889E+03  8.90710E+03 -3.14692E+03  4.07499E+03  1.08624E+04  2.01778E+03  2.14701E+03
 -2.14227E+04  2.44669E+03 -1.00300E+04  6.36887E+03 -1.16754E+04 -2.42950E+03 -3.33052E+03 -7.20119E+03
  4.31230E+03 -1.64234E+04  5.03374E+03 -1.04003E+03  2.35125E+04  1.37255E+03  3.36076E+03  1.33512E+04
  4.06742E+03  1.04209E+04 -5.24918E+03  1.42416E+04 -5.99144E+03 -2.29997E+03 -1.64657E+03  4.03396E+03
  3.91178E+02 -8.60126E+03  4.84448E+03  6.12281E+02 -3.00967E+03 -3.70090E+03 -9.27604E+03  2.04957E+02
 -1.06580E+04 -4.34361E+03 -3.95730E+03 -1.22018E+04  1.35545E+03 -1.25028E+04  1.02536E+04 -6.15604E+03
  8.24121E+03  5.57900E+03  9.69392E+03  7.76239E+03 -5.23544E+03  5.36693E+03 -4.56339E+03  7.22272E+03
