 $NMID ID='MM_0lb_SNR50_13hz_g55_85.RAW', FMTDAT='(8E13.5)'
 TRAMP=1., VOLUME=1. $END
  3.07469E+05  1.24820E+03  3.34616E+05  2.52977E+05  8.58721E+04  3.34155E+05 -1.35964E+05  2.56035E+05
 -1.91550E+05  8.65082E+04 -1.06339E+05 -3.47307E+04 -4.53814E+03 -4.60067E+04  4.97590E+04  2.30417E+03
  3.08990E+04  5.26082E+04 -2.00166E+04  7.11726E+04 -6.00284E+04  5.92385E+04 -8.62010E+04  3.25298E+04
 -8.45093E+04 -1.18901E+04 -5.74247E+04 -5.12776E+04 -1.45842E+04 -7.22943E+04  2.22715E+04 -4.66436E+04
  4.44347E+04  4.78848E+03  1.57098E+04  4.90078E+04 -3.49257E+04  4.81964E+04 -6.21342E+04  1.12256E+03
 -5.90214E+04 -6.18669E+04 -5.05156E+03 -7.52698E+04  2.89722E+04 -5.82577E+04  4.94620E+04 -1.58434E+04
  4.65595E+04  1.13417E+04  3.79430E+04  2.78457E+04  1.51380E+04  3.70519E+04 -3.60820E+03  2.49864E+04
 -1.97132E+04  1.78328E+04 -2.05959E+04 -6.69784E+03  3.74281E+03 -8.30654E+03  2.40939E+04  1.28207E+04
  3.08927E+03  3.51954E+04 -3.15228E+04  3.24756E+04 -7.10207E+04 -3.66390E+03 -5.73849E+04 -4.60872E+04
 -7.73408E+03 -6.32181E+04  4.45720E+04 -4.77844E+04  5.51412E+04 -3.59741E+03  3.39730E+04  2.89663E+04
 -4.06115E+03  3.73551E+04 -2.87795E+04  1.64017E+04 -3.01505E+04 -8.97261E+03 -1.74426E+04 -1.16405E+04
 -7.03751E+03 -1.50908E+04  8.02170E+02 -1.73462E+04  5.15044E+03 -2.71808E+04  1.41541E+04 -1.33926E+04
  8.92093E+03  6.97111E+03 -9.36410E+03  1.11108E+04 -2.08786E+04 -6.44254E+03 -1.17591E+04 -3.54891E+04
  2.24348E+04 -3.80228E+04  5.17974E+04 -1.87584E+04  4.86450E+04  1.88354E+04  2.10487E+04  4.65570E+04
 -1.52086E+04  3.22507E+04 -2.44134E+04  4.39989E+03 -1.51924E+04 -2.78731E+04  2.00680E+04 -2.86360E+04
  4.10673E+04 -6.98068E+03  3.87409E+04  2.28779E+04  1.78730E+04  4.56999E+04 -2.45746E+03  5.58803E+04
 -2.97245E+04  4.07033E+04 -4.19384E+04  9.71613E+03 -4.83936E+04 -1.85527E+04 -2.65200E+04 -4.08833E+04
  8.68201E+03 -3.82212E+04  2.84786E+04 -1.10777E+04  3.11470E+04  1.25983E+04  2.38156E+03  2.05823E+04
 -1.38062E+04  1.02554E+04 -9.51394E+03 -7.73287E+03  4.76099E+03 -1.55237E+04  1.59786E+04  4.71854E+03
  1.93291E+04  2.28746E+04  1.13593E+02  2.92858E+04 -2.08476E+04  1.45553E+04 -3.00759E+04 -4.40667E+02
 -1.70577E+04 -2.06938E+04 -8.04469E+03 -2.15289E+04  6.15358E+03 -2.72658E+04  1.50105E+04 -1.73412E+04
  3.09059E+04 -1.15540E+04  3.72645E+04  2.61487E+03  2.79590E+04  2.86658E+04  3.09472E+03  3.74689E+04
 -2.17521E+04  3.50972E+04 -2.68528E+04  8.17117E+03 -2.19505E+04 -5.63362E+03 -2.97649E+03 -1.07159E+04
 -3.92828E+02 -3.71069E+03 -1.46280E+04  6.09928E+03 -1.51668E+04  3.73509E+03 -1.81271E+04 -8.38158E+03
 -1.63183E+04 -1.43529E+04  6.18100E+03 -2.23219E+04  1.68544E+04 -1.70277E+04  2.27201E+04 -2.84978E+03
  1.09986E+04  1.64986E+04 -1.46174E+03  1.83901E+04 -1.42201E+04  1.14084E+04 -2.34897E+04 -6.87785E+03
 -1.83576E+04 -1.80617E+04 -1.76338E+03 -2.41289E+04  9.29305E+03 -2.51603E+04  2.16451E+04 -1.42798E+04
  1.81112E+04 -1.54515E+03  1.57047E+04  3.81586E+03  4.18998E+03  1.61139E+02  1.18935E+04 -4.55267E+02
  1.92850E+04  1.73755E+03  2.01082E+04  1.75295E+04  1.07781E+04  3.75969E+04 -3.00297E+03  3.79322E+04
 -2.41818E+04  2.95978E+04 -3.30057E+04  1.77075E+04 -3.86976E+04 -4.52196E+03 -3.46162E+04 -2.79546E+04
 -1.65259E+04 -3.27506E+04  1.14438E+04 -2.61303E+04  2.42283E+04 -1.06688E+04  2.21345E+04  9.72405E+03
  4.89761E+03  1.70535E+04 -1.15044E+04  1.35891E+04 -1.56736E+04  9.41040E+02 -1.58967E+04 -5.31361E+03
  1.01506E+03 -1.42905E+04  5.92396E+03 -9.87371E+03  1.42058E+04  2.02029E+03  6.47198E+02  7.66771E+03
 -9.19381E+03  6.01870E+03 -6.60193E+03 -4.20299E+03 -8.42297E+02 -1.54162E+04  7.77615E+03 -1.26440E+04
  1.91809E+04 -5.99807E+03  2.29810E+04  3.74904E+03  1.42228E+04  2.05450E+04  1.14889E+04  2.12853E+04
 -4.98150E+03  2.42203E+04 -1.40175E+04  1.26161E+04 -1.67384E+04  9.13780E+03 -9.17073E+03 -1.90643E+02
 -6.03761E+03 -6.81440E+03 -4.54722E+03  5.48272E+03  6.53632E+02  2.57538E+03 -3.31926E+03  2.22214E+03
 -1.49821E+04 -2.41833E+03 -8.38359E+03 -5.94122E+03 -2.18295E+03 -1.65167E+04  1.86723E+03 -1.33334E+04
  6.04311E+03 -5.99183E+03  1.00849E+04  1.89006E+03 -5.45317E+03  6.65037E+03 -9.26902E+03 -6.71175E+03
 -8.58059E+03 -7.81835E+03 -1.48677E+02 -1.13541E+04  6.28278E+03 -1.44187E+04  1.33932E+04 -6.74796E+03
  2.30275E+04  3.88824E+03  1.58522E+04  1.10258E+04  7.26210E+03  1.32097E+04 -8.03155E+03  1.39251E+04
 -8.40981E+03  5.77877E+03 -5.16827E+03  7.48647E+02 -8.08341E+02 -1.63134E+03  5.20424E+03  3.25258E+03
  3.62572E+03  7.17063E+03  5.55890E+02  1.21793E+04 -8.47006E+03  1.20027E+04 -1.33439E+04  3.90458E+03
 -1.95072E+03 -2.90358E+03  5.85239E+02 -7.15614E+03  8.68137E+03 -7.63805E+03  4.18636E+03  3.42340E+03
 -1.18543E+03  7.14362E+03 -4.21997E+03  7.70996E+03 -8.26158E+03  5.33010E+03 -9.37690E+03 -8.49145E+03
 -3.30971E+03 -1.01557E+04  3.71656E+03 -1.94264E+04  1.30780E+04 -7.60591E+03  1.46767E+04 -1.44409E+03
  9.33090E+03  1.25941E+04 -3.52330E+03  1.02480E+04 -9.46143E+03  7.92663E+03 -9.33724E+03  3.01447E+02
 -1.13704E+04 -5.13404E+03 -7.36879E+02 -1.19920E+04  5.65052E+03 -5.61773E+03  6.80939E+03 -4.74554E+03
  6.98668E+03  3.88522E+03  6.45191E+02  2.47334E+03 -1.81105E+03 -4.91411E+03  2.44156E+03 -7.61002E+03
  1.17020E+04 -3.33677E+03  1.54106E+04  2.98328E+03  8.82940E+03  7.84108E+03  8.39075E+03  1.42069E+04
 -6.02433E+03  1.82912E+04 -8.50832E+03  1.37012E+04 -1.88078E+04 -8.89367E+02 -8.85215E+03 -7.33592E+03
 -7.55366E+03 -1.03811E+04 -1.64843E+03 -7.30696E+03  7.55919E+03 -5.26320E+03  3.18772E+03 -1.52842E+03
  1.59622E+03 -4.69415E+03  4.36183E+03 -5.20313E+03  3.25608E+03 -2.27670E+03  8.46347E+03  6.76399E+03
  1.39622E+04  5.86100E+03  6.25431E+03  5.07293E+03 -3.24554E+03  4.85752E+03 -6.46661E+03  3.90635E+03
 -8.20521E+03 -6.38970E+02 -1.54912E+03 -4.36580E+03  2.45351E+03 -6.83193E+03  7.65126E+03 -9.69327E+03
  1.15179E+04 -7.45467E+03  1.12040E+04  1.47775E+03  6.27659E+03  8.82434E+03 -2.99401E+03  6.96225E+03
 -6.87471E+03  9.44815E+03 -1.05875E+04  8.78255E+03 -4.94972E+03 -3.36930E+03 -2.59463E+03 -1.44667E+03
 -1.88219E+03  1.74134E+03 -8.46844E+02  6.76687E+03 -1.00177E+04 -6.71186E+02 -8.98861E+03  3.32108E+02
 -9.33832E+03 -7.08181E+03  2.03606E+03 -1.34873E+04  6.61570E+03 -1.38653E+04  9.42013E+03 -2.08921E+03
  9.97415E+03  7.15662E+03  3.73924E+03  1.14770E+04 -5.05105E+03  1.36735E+04 -1.00920E+04  1.05835E+04
 -8.69373E+03  1.67467E+03 -3.68760E+03 -5.94296E+03 -6.54269E+03 -1.22203E+04  3.30607E+03 -1.23598E+04
  6.79025E+03 -1.70202E+03  6.55216E+03  3.74549E+03  2.76426E+03  3.17652E+03  5.65978E+03  2.22391E+03
  4.80778E+03  3.24600E+03  1.92485E+03  4.12142E+03  2.91575E+03  4.09607E+03  3.67408E+03  2.81276E+02
  4.85515E+02  5.22456E+03 -9.08341E+03  8.72953E+03 -7.87190E+03  1.96532E+03 -5.98592E+03 -6.21493E+03
  6.54233E+02 -6.47629E+03  2.35417E+03 -1.02919E+04  4.08428E+03 -3.96357E+03  8.90612E+03  1.48535E+03
  5.01379E+03  5.78338E+03  4.20656E+03  3.55877E+03  1.26902E+03  2.08308E+03 -3.05409E+03  1.34746E+02
 -6.85786E+03 -3.34453E+03  3.18052E+03 -7.66712E+03  3.98300E+03 -1.75690E+03  4.99803E+03  2.97158E+03
  2.45077E+03 -1.18329E+03  1.64337E+03  2.14712E+02 -5.15656E+03  1.79756E+03  3.73865E+03 -6.48918E+02
  2.70527E+03  8.91979E+01  6.69712E+03  2.98543E+03 -2.21695E+00  1.00202E+04 -4.70612E+03  5.66818E+03
 -2.70251E+03  3.72145E+03  6.30322E+02  4.15837E+03 -1.19571E+03 -2.73309E+03 -1.66048E+03 -2.89376E+03
  3.89347E+03 -7.73398E+03  2.94921E+03 -3.92216E+03  1.82481E+03 -7.55094E+02 -7.38971E+03  6.12709E+03
 -3.70259E+03  3.82420E+03 -5.78676E+03 -3.63434E+03  3.46265E+03 -5.74304E+03  3.95282E+03 -8.65124E+03
  5.02889E+03 -3.00855E+03  6.02896E+03 -3.83756E+02  1.35768E+03 -5.67240E+02  2.09007E+03  4.87645E+03
  8.55834E+02  4.62126E+03 -5.50103E+03 -2.06811E+03 -3.33033E+02 -2.12189E+03  8.56955E+03 -1.18732E+03
  2.48914E+03  3.58884E+03  4.55889E+03  1.64739E+03  9.42318E+02  6.84842E+02 -4.54005E+02 -6.64093E+02
 -6.54351E+03  1.84655E+03 -1.48363E+02 -3.59072E+03 -6.30343E+03  5.62699E+02  4.12171E+03 -3.57750E+03
  7.31727E+03 -8.44086E+03  6.78880E+03 -7.11655E+02  1.22843E+03  4.87097E+03 -2.38371E+03  7.88410E+03
 -3.96006E+02 -6.61671E+01 -5.12144E+03 -1.33605E+03 -1.03989E+02  4.08809E+02  1.75137E+03 -1.64355E+03
  2.98153E+03  7.06703E+02 -1.53253E+03  7.27547E+03 -3.44134E+03  1.54223E+03 -8.88634E+03 -3.48511E+03
  3.85069E+03 -6.53619E+03  1.18658E+03 -6.18872E+03  2.74644E+03 -7.76300E+03  1.15704E+04 -2.72465E+02
  8.07131E+03  7.60449E+02  2.53164E+03  2.69217E+03  7.33992E+02  1.01496E+04 -6.16257E+02  3.54927E+03
 -4.16587E+03  9.86109E+03 -5.95374E+03 -2.49831E+03 -5.87535E+02  8.72189E+02 -3.89701E+02  1.49770E+03
 -4.10888E+03 -3.11729E+03 -2.65395E+03 -1.45969E+03 -3.25148E+03 -1.18929E+03  1.09542E+03 -3.80700E+03
  2.55437E+03  2.20921E+03  2.18963E+03 -3.83707E+03  1.70318E+03 -8.96336E+02  2.59804E+03  4.42879E+03
 -8.79041E+03  7.63635E+03  4.33513E+02  6.47633E+03 -5.31521E+03 -3.96867E+03 -7.34637E+03 -4.73560E+03
  1.35997E+03 -3.54025E+03  2.94753E+03 -6.74318E+02  7.74505E+02 -4.76312E+03  5.51145E+03 -2.71112E+03
 -7.67853E+02  2.86018E+03  3.96590E+03  4.16110E+02 -2.70875E+03 -3.81964E+03 -9.29766E+02  3.53306E+03
  4.25546E+03  3.35195E+03 -3.61771E+02  1.52371E+03 -4.01928E+03  3.81105E+03  1.58698E+03  5.98570E+02
 -5.91562E+03 -6.64568E+02 -1.62828E+03  5.80511E+02 -3.14237E+03 -1.21216E+03  1.33957E+03 -4.10592E+03
  2.06892E+02 -6.18656E+03  7.59128E+03 -2.37803E+02  5.50426E+03  2.52045E+03  3.17629E+03  1.43523E+03
  1.06704E+03 -2.61227E+03 -7.70595E+02  3.46794E+03 -4.23245E+03  4.57522E+01 -2.14202E+03 -6.57573E+02
 -4.26707E+02  6.51458E+03 -3.53607E+03  1.76007E+03 -2.74373E+03  7.34679E+02 -1.77517E+02  1.16670E+03
 -3.70062E+03 -1.84025E+03  3.00270E+03 -6.90714E+03 -1.15510E+03 -2.64367E+03  3.67698E+03  2.12130E+02
 -1.04036E+02  4.14942E+03 -3.92951E+03 -4.79811E+03  9.94200E+02  6.38934E+02  3.46661E+03  6.98772E+03
