 $NMID ID='MM_0lb_SNR50_18hz_g50_88.RAW', FMTDAT='(8E13.5)'
 TRAMP=1., VOLUME=1. $END
  3.10871E+05 -4.78672E+03  3.35327E+05  2.52572E+05  8.52948E+04  3.37810E+05 -1.28702E+05  2.50949E+05
 -1.87597E+05  8.92937E+04 -1.08304E+05 -3.22027E+04  1.73673E+03 -4.77691E+04  5.51258E+04 -1.02476E+03
  3.50550E+04  5.47191E+04 -1.96826E+04  7.69500E+04 -6.18942E+04  6.02232E+04 -8.20152E+04  3.84192E+04
 -8.32732E+04 -1.18090E+04 -5.79259E+04 -5.17599E+04 -1.59231E+04 -6.31411E+04  2.88945E+04 -4.22359E+04
  4.33498E+04  4.05859E+03  1.61974E+04  4.42963E+04 -4.13651E+04  4.77461E+04 -6.81721E+04 -6.33497E+03
 -5.14420E+04 -5.51614E+04 -7.94163E+03 -7.80263E+04  3.36076E+04 -5.33370E+04  4.60496E+04 -1.52500E+04
  4.26283E+04  9.47720E+03  2.90400E+04  2.25338E+04  1.20413E+04  2.34121E+04 -8.82062E+03  2.90805E+04
 -2.22193E+04  1.09860E+04 -1.93906E+04 -1.16904E+03  5.59507E+03 -7.75849E+03  1.85146E+04  1.40500E+04
  6.74239E+03  3.11929E+04 -3.10269E+04  3.24086E+04 -6.07468E+04  3.02774E+03 -5.89809E+04 -3.73857E+04
 -1.52909E+04 -6.60243E+04  3.84943E+04 -4.10056E+04  5.79164E+04 -8.55340E+02  3.04214E+04  2.95774E+04
 -6.91883E+03  3.19694E+04 -2.66332E+04  1.23471E+04 -2.91301E+04 -3.53898E+03 -1.69221E+04 -1.14012E+04
 -5.96326E+03 -1.14731E+04 -2.31031E+03 -2.10210E+04  9.56202E+03 -2.18783E+04  1.58795E+04 -1.57396E+04
  8.94552E+03  4.14808E+03 -7.53932E+03  1.13516E+04 -1.91468E+04 -2.48061E+01 -8.23744E+03 -3.00332E+04
  2.25730E+04 -4.42138E+04  4.59635E+04 -1.74998E+04  4.39908E+04  1.57457E+04  1.14276E+04  4.35193E+04
 -1.51947E+04  2.93776E+04 -2.03723E+04 -1.24040E+02 -7.99478E+03 -2.49443E+04  1.91897E+04 -2.90317E+04
  3.95898E+04 -8.05299E+03  3.22593E+04  2.60494E+04  1.62401E+04  4.31153E+04 -9.55284E+03  4.44230E+04
 -3.35889E+04  3.01724E+04 -4.00788E+04  5.27997E+03 -4.30743E+04 -1.02729E+04 -2.03387E+04 -3.64218E+04
  5.25575E+03 -3.98051E+04  2.78144E+04 -1.12251E+04  2.48392E+04  8.70441E+03  2.18317E+03  1.44860E+04
 -1.10873E+04  5.97787E+03 -1.17899E+04 -3.03713E+03  5.56717E+03 -1.26577E+04  2.00910E+04  1.58938E+03
  1.18786E+04  2.12131E+04 -8.00587E+03  1.95269E+04 -2.38772E+04  1.20456E+04 -2.41520E+04 -5.94253E+03
 -1.92178E+04 -1.81899E+04 -9.78770E+03 -1.98579E+04  1.92231E+03 -1.16722E+04  1.34637E+04 -1.58394E+04
  2.20134E+04 -1.05965E+04  3.11298E+04 -3.01297E+03  2.42915E+04  2.07191E+04  4.90754E+02  3.01747E+04
 -2.04442E+04  3.07502E+04 -2.85776E+04  9.98858E+03 -2.04126E+04 -1.07413E+04 -6.61296E+03 -1.38858E+04
  4.08606E+03 -2.54125E+03 -6.39491E+03  1.03204E+04 -1.44587E+04  7.38552E+03 -1.26221E+04 -1.09273E+03
 -1.33619E+04 -1.76985E+04  6.00649E+03 -2.15235E+04  1.23683E+04 -1.27246E+04  1.77133E+04  6.31849E+02
  8.38536E+03  1.18350E+04 -3.07135E+03  1.31641E+04 -1.23987E+04  1.02207E+04 -1.55049E+04 -1.92018E+03
 -1.30762E+04 -1.84217E+04 -1.18459E+03 -1.69952E+04  6.83121E+03 -1.39775E+04  1.82334E+04 -9.62649E+03
  1.43922E+04 -3.98967E+03  1.27372E+04  4.88554E+02  3.00726E+03  1.08811E+03  4.66005E+03 -8.21184E+01
  1.56274E+04  1.28113E+03  1.64502E+04  8.73385E+03  1.45013E+04  2.07032E+04 -2.10952E+03  2.64942E+04
 -1.62424E+04  2.27459E+04 -2.63536E+04  8.54274E+03 -2.76055E+04 -3.35383E+03 -2.20883E+04 -1.47052E+04
 -8.77946E+03 -2.07151E+04  8.65558E+03 -1.75877E+04  1.43775E+04 -9.25695E+03  1.93197E+04  2.72862E+03
  1.80024E+03  1.16449E+04 -1.05363E+04  7.89501E+03 -1.25935E+04  3.05321E+03 -8.51369E+03 -1.24389E+04
 -2.84754E+02 -1.11365E+04  9.38104E+03 -1.29764E+04  6.71703E+03 -4.68985E+03 -3.47104E+03  5.49214E+02
 -4.07748E+03  1.27781E+03 -5.78504E+03 -6.10377E+03  3.16173E+03 -1.16321E+04  5.71300E+03 -1.08318E+04
  1.22087E+04 -3.78082E+03  8.29140E+03  8.60964E+03  7.99246E+03  1.32420E+04  8.70571E+03  1.53400E+04
 -1.31576E+03  1.60765E+04 -9.81725E+03  1.28952E+04 -1.25741E+04  8.38946E+02 -9.22226E+03 -9.38952E+02
 -6.29958E+03 -7.22782E+03 -3.89109E+03  7.81296E+02 -1.09169E+02 -8.75927E+02 -4.75799E+03  2.64996E+03
 -7.94862E+03  1.92846E+03 -5.53741E+03 -1.09255E+04 -9.78951E+03 -1.32863E+04  3.43375E+03 -1.01188E+04
  4.65066E+03 -4.33853E+03  5.07499E+03  2.76349E+03  7.51423E+01  7.51636E+03 -5.80878E+03  1.07171E+03
 -5.51456E+03 -3.71073E+03  3.82212E+02 -4.96869E+03  7.98010E+03 -1.11654E+04  9.05357E+03 -5.95572E+03
  1.32144E+04 -9.58432E+02  7.05800E+03  6.79521E+03  1.71969E+03  8.05682E+03 -6.16488E+03  8.25270E+03
 -8.09971E+03 -1.81648E+03 -1.02954E+04 -1.37644E+03  2.53146E+03 -4.40896E+03  4.99671E+03 -5.68007E+03
  7.00109E+03  5.74166E+03  2.89260E+03  4.66622E+03 -3.39477E+03  7.70916E+03 -9.72770E+03  2.33181E+03
 -5.56750E+03 -3.58130E+03  3.90257E+02 -8.78781E+03  5.96788E+03 -2.56234E+03  4.87969E+03  5.93792E+03
 -2.88247E+03  3.41920E+03 -1.93014E+03  2.66750E+03 -2.01710E+03  4.92622E+02 -2.71418E+03 -2.47818E+02
 -5.47508E+03 -7.02755E+03  4.10222E+02 -5.56846E+03  5.89778E+03 -3.38959E+03  6.42742E+03 -4.12750E+02
  4.42568E+03  8.04165E+03  1.84356E+03  1.02784E+04 -2.56982E+03  4.27133E+03 -5.64737E+03 -2.71395E+03
 -1.64312E+03 -1.67430E+03 -1.68732E+03 -8.43414E+03  5.51085E+03 -3.19161E+02  5.64530E+03 -4.66232E+03
  3.76978E+03  2.81274E+03  1.15470E+03 -9.19285E+02 -7.00467E+02  1.51695E+03 -3.16164E+03  3.04813E+03
  2.65584E+03 -3.96685E+03  4.69420E+03  5.10000E+03  8.22987E+03  2.84388E+03  5.24218E+03  8.70733E+03
 -2.09729E+03  1.00699E+04 -9.47401E+03  1.05390E+04 -9.73936E+03 -3.98002E+01 -7.53995E+03 -4.70409E+03
 -2.74396E+03 -5.10400E+03 -3.24710E+03 -6.04792E+03  1.79481E+03  8.87059E+02  3.79696E+03 -3.10081E+03
 -4.27298E+02  6.10583E+02  2.23777E+03 -3.39520E+03  2.44212E+03 -5.13437E+02  1.95823E+03  2.03014E+03
  5.83027E+03 -1.18050E+03  4.29896E+03  2.84900E+03 -3.15899E+03  2.60279E+03 -5.26760E+03  6.22336E+03
 -8.87520E+03 -2.77817E+03 -1.24424E+03 -1.68694E+03  4.90800E+03 -6.95641E+03  3.43566E+03 -8.15004E+03
  8.85394E+03 -3.58158E+03  6.11609E+03  3.53052E+01  3.86249E+03  5.88982E+03 -1.96395E+03  4.16044E+03
 -1.43030E+03 -1.14866E+03 -5.06963E+03 -4.22662E+02 -6.40903E+03 -3.18017E+02 -5.09779E+03 -2.88131E+03
 -2.58538E+02  1.38318E+03 -5.76589E+03  2.68898E+03 -2.47933E+03  7.60705E+02 -5.92692E+02 -3.55693E+03
 -9.22992E+02 -3.76578E+03  4.73454E+03 -2.30468E+03 -5.09551E+02 -3.67765E+03  2.50935E+03  7.19632E+02
  7.96355E+03  3.36484E+03  3.01272E+03  1.95108E+03 -5.78010E+03  7.65073E+03  4.58219E+02  5.56927E+03
  1.13418E+03  7.32846E+02 -6.93400E+03 -3.97479E+03 -1.90056E+03 -3.48949E+03  2.24807E+03 -6.11206E+03
  1.02787E+03 -5.59711E+03  5.40545E+03 -8.03284E+02  1.83449E+03  1.36197E+03  3.40931E+03  4.69873E+03
  5.23129E+02 -3.66160E+02  1.25674E+03 -1.75417E+03  1.81696E+03  1.40511E+03  3.59569E+03  2.51540E+03
 -2.93420E+03  1.86191E+03  6.93538E+02  5.99093E+03 -3.59154E+03  1.32052E+03 -7.36906E+01 -2.51960E+02
 -2.82372E+03 -3.13249E+03  1.57165E+03 -4.45566E+03  1.56543E+03 -1.88638E+02  5.39567E+03  3.29388E+02
  1.29531E+03 -1.69714E+03  2.18311E+03  3.72415E+03 -2.72452E+03  1.30382E+03  1.20360E+02 -8.37256E+02
  4.65976E+02 -1.89039E+03 -3.23182E+03 -8.97556E+02  1.04939E+03 -1.71301E+03  7.23658E+02  1.25136E+03
  3.61678E+03  8.45236E+02  4.82882E+03 -1.31423E+03  4.28689E+03  1.09188E+03  2.24907E+03  1.05760E+03
  3.07095E+02 -9.49970E+02  2.93212E+03  1.69029E+03  5.56573E+02  1.55544E+03 -9.46159E+02  2.91495E+02
 -4.25510E+03  5.23455E+02 -3.33027E+03  1.84726E+03 -7.14599E+03 -6.08765E+02  4.15151E+03 -3.13380E+03
 -5.40108E+02  3.13811E+03  1.67692E+03 -1.36237E+03 -1.66050E+03  3.19423E+03 -5.99787E+03 -1.60459E+03
 -3.19345E+03  2.27553E+03 -1.11329E+01 -3.63784E+03  1.66068E+03 -3.34553E+03 -2.36534E+01 -3.38501E+03
  1.27486E+02  4.31126E+02 -1.55287E+03  1.68188E+03  5.18759E+03  2.36077E+03 -3.02293E+03 -2.29682E+03
  9.58113E+02 -1.12693E+03  8.30510E+02 -3.98309E+03 -1.90508E+03  4.00850E+03 -4.74865E+03 -6.52113E+02
  2.66712E+03  5.75206E+02  2.20445E+03  6.97008E+03  2.02336E+03  2.09517E+00  2.11044E+03  5.11740E+03
  4.10060E+03  1.71436E+03  1.65130E+03 -1.06339E+03  1.15312E+02 -7.70485E+02 -2.47362E+03 -5.40668E+03
 -7.90122E+02 -1.87569E+03  1.37365E+03  7.94841E+02  4.66807E+02  6.28989E+02  6.13982E+02 -1.93659E+03
 -2.56599E+03  2.20491E+03 -4.37989E+02  2.30129E+03  5.80026E+02 -5.66494E+02  5.67860E+02  9.87855E+02
  6.03885E+01  3.24541E+03  7.52505E+02 -5.31608E+01 -7.99127E+02 -2.05404E+03 -2.28116E+03 -1.91535E+03
 -3.10887E+03 -6.87744E+02  2.72511E+03 -6.20261E+03 -1.23056E+03  1.19776E+02 -1.18678E+03 -3.12169E+03
  1.63636E+03 -3.54279E+03 -7.39643E+02  7.86809E+02  9.82758E+02  1.89054E+03 -1.89429E+03  3.47403E+01
 -3.80667E+03 -2.22404E+03 -3.85451E+03 -2.14228E+03 -2.67000E+03 -2.92855E+03  4.40966E+02 -3.39604E+03
  2.24469E+03  1.74631E+03  1.56197E+03  2.52814E+03  7.10211E+02  9.46141E+01 -2.71290E+03 -2.03013E+03
 -3.64271E+02 -1.89404E+02 -2.57427E+02 -1.87379E+03  3.74621E+03  3.21740E+03 -2.05011E+03 -5.24166E+02
  1.29401E+01  5.74722E+02 -3.08641E+03  2.03623E+03 -2.36625E+03 -1.35529E+03 -9.53680E+02 -6.26918E+03
  3.96431E+03 -3.23211E+03 -3.33666E+03  9.91851E+02 -1.45841E+02  1.62656E+03  5.06353E+01 -1.62899E+03
 -5.10898E+02  8.45385E+02 -5.29187E+02 -2.06533E+03 -2.19762E+03 -8.17448E+02 -3.33914E+03  2.15471E+01
 -4.79322E+03 -1.66033E+03  1.79529E+03  3.45334E+03 -6.78111E+02  1.39432E+03  4.02438E+03 -2.63086E+03
  2.00981E+03  6.23960E+02 -3.82308E+03  1.29842E+03 -7.11416E+03 -1.20708E+03  2.45734E+03 -3.94820E+03
  1.08218E+03 -4.95662E+03 -4.89296E+03 -1.76924E+03  4.07551E+03  1.04118E+03  3.15263E+02 -7.46891E+00
  1.30813E+03 -6.86357E+02 -2.90333E+03 -8.20940E+02 -3.55110E+03  6.54348E+02 -3.21897E+03 -2.17833E+03
  3.21558E+02 -2.82049E+03  1.99152E+03 -1.96527E+03 -1.54357E+02 -8.38559E+03  1.59731E+03  2.58727E+03
 -4.90943E+03  3.16261E+03  7.01234E+01  1.62821E+03  2.58262E+03 -1.54756E+03  9.40284E+02  2.15359E+03
  2.38602E+02 -7.18187E+03  3.02366E+03  1.28227E+03  2.14894E+03  1.03250E+03 -1.11804E+02  1.90602E+03
