 $NMID ID='MM_0lb_SNR50_7hz_g50_49.RAW', FMTDAT='(8E13.5)'
 TRAMP=1., VOLUME=1. $END
  3.14682E+05  7.32694E+03  3.47483E+05  2.49320E+05  8.32294E+04  3.38416E+05 -1.34406E+05  2.61340E+05
 -1.93253E+05  9.17223E+04 -1.10424E+05 -3.16214E+04  2.73525E+03 -5.11480E+04  5.33055E+04  2.94946E+03
  3.45263E+04  5.82281E+04 -2.09644E+04  7.80419E+04 -5.93607E+04  6.77044E+04 -8.05556E+04  3.53961E+04
 -8.11354E+04 -1.10988E+04 -5.33729E+04 -4.73553E+04 -1.31527E+04 -7.02143E+04  3.35303E+04 -4.48345E+04
  4.47108E+04  9.94655E+03  2.15440E+04  5.27066E+04 -3.45059E+04  5.58237E+04 -6.56413E+04  3.11570E+03
 -4.74865E+04 -5.59393E+04 -4.74369E+03 -8.61194E+04  4.07343E+04 -5.09326E+04  5.14284E+04 -1.60314E+04
  4.91971E+04  5.36944E+03  3.59251E+04  2.79942E+04  1.49540E+04  2.92339E+04 -7.69940E+03  2.82213E+04
 -1.67384E+04  1.04725E+04 -1.25532E+04 -4.17653E+03  4.52836E+03 -6.51334E+03  2.54072E+04  1.87890E+04
  4.86488E+03  3.44571E+04 -3.51190E+04  3.46864E+04 -5.83529E+04  2.51646E+03 -5.91194E+04 -4.79281E+04
 -7.14678E+03 -6.58771E+04  4.34595E+04 -4.38449E+04  5.92948E+04 -1.26112E+03  3.64529E+04  3.72208E+04
 -2.71495E+03  4.02471E+04 -4.25276E+04  1.70624E+04 -3.74055E+04 -6.16691E+03 -2.21881E+04 -1.86867E+04
 -9.68045E+03 -9.68686E+03 -1.22485E+03 -2.11717E+04  4.99579E+03 -2.41647E+04  1.81975E+04 -8.04342E+03
  1.02925E+04  2.03468E+03 -4.28878E+03  1.14254E+04 -2.73778E+04 -1.01057E+04 -1.27786E+04 -3.90255E+04
  2.79238E+04 -5.33991E+04  5.48363E+04 -2.29120E+04  4.79458E+04  2.48923E+04  1.71235E+04  4.91903E+04
 -1.40925E+04  3.63781E+04 -2.88115E+04  2.08595E+03 -1.83372E+04 -3.24399E+04  1.97562E+04 -4.82459E+04
  4.36576E+04 -8.89613E+03  3.87469E+04  2.38991E+04  2.00890E+04  5.21158E+04 -3.78303E+03  5.80126E+04
 -3.65944E+04  4.14019E+04 -4.65487E+04  1.04682E+04 -4.71191E+04 -1.75112E+04 -3.01512E+04 -4.29600E+04
  1.25132E+04 -4.29517E+04  3.45568E+04 -1.84812E+04  3.31095E+04  5.59344E+03  7.62407E+03  1.83509E+04
 -1.26654E+04  4.34727E+03 -8.77258E+03 -5.72672E+03  1.47948E+04 -1.58886E+04  2.06729E+04  1.66782E+03
  1.90676E+04  2.12702E+04  7.48562E+02  2.34137E+04 -2.77768E+04  2.13491E+04 -2.78091E+04 -3.75316E+03
 -4.31337E+04 -2.64869E+04 -1.40343E+04 -2.74776E+04  5.60688E+03 -2.73971E+04  1.86229E+04 -2.66971E+04
  3.08434E+04 -1.33705E+04  3.82751E+04  9.69560E+02  2.30617E+04  2.13824E+04  7.11684E+03  3.56780E+04
 -1.70194E+04  4.34586E+04 -2.75608E+04  2.09309E+04 -2.32595E+04 -4.41661E+03 -6.89717E+03 -1.19384E+04
  5.82278E+03  9.09232E+03 -3.13343E+03  1.03554E+04 -2.23622E+04  6.47668E+03 -2.14380E+04 -9.33052E+03
 -1.57950E+04 -2.25358E+04  2.64586E+02 -2.43793E+04  1.84043E+04 -2.38057E+04  2.67535E+04 -5.43196E+03
  1.92535E+04  2.15643E+04  6.69890E+03  2.90162E+04 -1.58780E+04  6.14846E+03 -2.97936E+04 -1.03953E+04
 -1.64849E+04 -1.56334E+04 -2.67795E+03 -3.59551E+04  1.71783E+04 -2.86593E+04  2.35472E+04 -1.41496E+04
  2.18597E+04  5.70715E+03  1.69907E+04  1.56439E+03  1.77620E+04 -3.00766E+03  1.26541E+04 -1.45569E+03
  2.47110E+04 -1.54143E+03  2.53417E+04  2.13315E+04  1.47044E+04  4.06605E+04 -3.24570E+03  4.74975E+04
 -2.62603E+04  3.80732E+04 -4.56339E+04  1.96380E+04 -4.33522E+04  2.25934E+03 -4.44229E+04 -2.30306E+04
 -1.13251E+04 -4.32925E+04  7.93483E+03 -3.90930E+04  3.09786E+04 -2.21481E+04  2.84077E+04  4.17082E+03
  1.13101E+04  1.88826E+04 -1.02691E+04  2.53523E+04 -2.58487E+04  2.28246E+03 -1.71295E+04 -1.26385E+04
 -2.19791E+03 -2.36289E+04  9.78416E+03 -1.16722E+04  1.63345E+04  4.18668E+03  5.41707E+03  1.06512E+04
 -8.45138E+03  9.05659E+03 -1.06327E+04 -6.83534E+03 -6.12952E+03 -1.72475E+04  1.41577E+04 -2.25144E+04
  2.93823E+04 -1.10272E+04  3.28086E+04  4.47957E+03  2.45720E+04  1.29097E+04  8.02182E+03  2.54006E+04
 -1.54956E+03  4.22505E+04 -3.42693E+04  2.02380E+04 -2.34795E+04  5.37113E+03 -1.59301E+04 -6.58281E+03
 -6.85803E+03 -7.65419E+03 -3.90070E+03  3.69691E+03 -1.07349E+04  7.77350E+03 -9.28071E+03  9.44836E+03
 -9.75206E+03 -2.88599E+03 -1.73628E+04 -1.43434E+04 -9.58517E+03 -2.50020E+04  4.51396E+03 -1.55096E+04
  1.38791E+04 -5.71469E+03  8.76474E+03  7.42543E+03 -9.89546E+01  6.45687E+03 -3.29166E+03  5.40096E+03
 -1.49838E+04 -1.89676E+04  2.50188E+03 -1.35071E+04  1.01307E+04 -1.75683E+04  2.55270E+04 -1.11271E+04
  2.45919E+04  1.26061E+03  1.75670E+04  1.43182E+04  2.99914E+03  1.64320E+04 -9.54899E+03  2.14173E+04
 -1.90957E+04 -6.19022E+03 -9.51317E+03 -2.06022E+03  4.08526E+03 -8.92974E+03  1.64691E+04  6.21993E+02
  1.07029E+04  1.20192E+04 -4.85452E+03  1.81025E+04 -1.25551E+04  1.12054E+04 -2.07241E+04  4.37039E+03
 -1.37636E+04 -1.38602E+04 -4.28650E+02 -1.47520E+04  2.30678E+03 -5.90244E+03  6.06205E+03 -1.02777E+03
  4.77518E+03  1.44197E+04 -1.44425E+04  1.68465E+04 -1.65613E+04  5.56071E+03 -1.58238E+04 -7.62508E+03
 -1.81303E+04 -1.83389E+04  1.89084E+03 -2.33227E+04  1.46163E+04 -9.49604E+03  2.30907E+04  5.23186E+03
  5.58399E+03  2.27022E+04  4.23153E+03  1.91613E+04 -1.30243E+04  1.30370E+04 -9.21424E+03 -1.55159E+03
 -1.46281E+04 -2.10564E+04 -2.29339E+03 -1.52241E+04  8.40083E+03 -1.23997E+04  7.44981E+03 -6.83476E+03
 -3.23074E+03  4.57452E+03 -6.30021E+03  4.49377E+02 -6.81228E+02 -3.55430E+03 -4.94084E+03 -1.21387E+04
  1.04445E+04 -4.90905E+03  1.45982E+04  6.75867E+03  2.35141E+04  1.12170E+04  1.45030E+04  2.26884E+04
 -4.14627E+03  3.02056E+04 -2.84590E+04  2.30357E+04 -3.14156E+04  2.03528E+03 -2.37806E+04 -1.07261E+04
 -1.67425E+04 -2.12841E+04 -1.78941E+03 -2.24224E+04  1.13102E+04 -1.14480E+04  5.38755E+03 -2.82127E+03
  5.86337E+03 -1.22129E+04  2.69619E+02 -6.52933E+03  1.18049E+04 -8.80464E+03  1.34664E+04 -7.68500E+03
  8.29787E+03  3.40284E+02  3.54081E+03  2.03995E+04 -3.14236E+03  1.50037E+04 -1.02769E+04  1.46756E+04
 -2.38576E+04 -1.50204E+03 -1.23462E+04 -1.71393E+04 -1.82947E+03 -1.53441E+04  1.49225E+04 -1.41187E+04
  1.76454E+04 -1.03972E+04  2.91848E+04  2.13074E+03  1.41467E+04  1.81202E+04 -3.31974E+03  1.92658E+04
 -8.39486E+03  1.60774E+04 -8.61764E+03  1.28208E+04 -1.14277E+04 -9.36028E+02 -1.19199E+04 -1.43453E+03
 -1.18245E+03  2.84652E+03 -6.25684E+03  2.38304E+03 -1.00374E+04  1.46136E+03 -1.41650E+04  3.25809E+03
 -6.45775E+03 -5.90491E+03 -1.29179E+03 -1.64877E+04  1.69878E+04 -1.43506E+04  1.92557E+04 -1.74666E+03
  2.80126E+04  6.01836E+03  6.41864E+03  1.67073E+04 -4.05103E+03  1.63756E+04 -1.87767E+04  8.33530E+03
 -1.32265E+04  9.77790E+02 -1.39283E+04 -6.85076E+03  2.93214E+02 -1.86785E+04  8.60413E+03 -1.00454E+04
  1.43445E+04 -9.88969E+03  1.21617E+04  4.74669E+03  8.59299E+02  2.43525E+03  3.45761E+03  5.60283E+03
  4.52013E+03 -1.07146E+03  8.25692E+03  2.65488E+03  2.69505E+03  3.86509E+03  2.94449E+03  9.43078E+03
 -7.42961E+03  1.04189E+04 -1.20052E+04  1.42607E+04 -2.01632E+04  3.71975E+03 -1.78088E+04 -7.33434E+03
 -1.32742E+04 -2.31356E+04  6.58397E+03 -2.03115E+04  1.41884E+04 -1.54895E+04  1.77089E+04 -1.22943E+04
  1.00320E+04  5.78998E+03 -2.27437E+03  8.17071E+03 -1.03740E+04  1.32751E+04 -7.44973E+03 -4.34505E+03
 -5.49935E+03 -4.16097E+03  5.53221E+03 -9.41189E+03  1.36211E+04  1.19083E+03  1.06891E+04 -5.61163E+03
  1.22732E+04  7.26144E+03 -2.90577E+02  3.59415E+03  2.41832E+03  4.09173E+03  4.95512E+03 -2.83287E+02
  6.86380E+03  6.31048E+02  4.76434E+03 -2.04109E+03  2.33157E+03  1.02119E+04 -4.74962E+03  1.87067E+04
 -5.72458E+03  1.46420E+04 -1.67802E+04 -2.74650E+02 -1.17080E+04  6.23996E+02 -1.16338E+04 -7.08706E+03
  3.12424E+03 -1.30274E+04  1.43608E+04 -1.01505E+04  6.68950E+03  6.94474E+03 -2.93178E+03  1.08456E+04
 -3.94029E+03 -2.40909E+03 -8.91209E+03 -5.86523E+03 -6.49618E+03 -7.97403E+03  5.18598E+03 -1.43951E+04
  6.28434E+03 -7.67466E+03  6.98965E+03 -6.93346E+03  1.34197E+04  5.07646E+03  9.26474E+02  8.10322E+03
 -2.98830E+03  1.55929E+03 -3.32397E+03 -3.67462E+03  2.33734E+03 -5.47766E+03  1.58356E+04 -6.62946E+03
  1.30226E+04 -3.48469E+03  1.09789E+04  1.30261E+04 -1.32879E+03  1.15206E+04  3.50493E+03  1.68398E+04
 -1.42115E+04  2.75612E+03 -1.15897E+04  3.41549E+03 -6.45429E+03 -1.53243E+04 -2.27477E+02 -2.39859E+02
  6.54261E+03  4.16764E+03  2.14888E+03  6.20392E+03 -3.36143E+02  7.33532E+03 -6.74478E+02  2.59027E+03
 -1.59557E+03  7.47359E+03  5.79448E+03 -3.18211E+03 -1.02535E+04  2.10895E+03 -1.34607E+03  8.73989E+02
 -7.12794E+03  1.71183E+03 -6.38743E+03  2.17101E+03 -1.36535E+04 -2.09707E+02 -1.95475E+04 -3.81514E+03
 -1.18750E+04 -2.21149E+04 -3.71928E+02 -1.31475E+04  1.49966E+04 -1.52033E+04  2.12024E+04 -5.29514E+03
  2.14760E+04 -1.09813E+02  1.49964E+04  1.93970E+04  2.97757E+03  1.52457E+04 -9.72044E+03  1.32471E+04
 -7.88400E+03  2.48379E+03 -6.27187E+03 -2.36024E+03 -2.43202E+03 -6.53015E+02  3.59363E+03  8.82907E+02
  3.65850E+03 -5.80068E+02 -3.12911E+02 -2.76710E+03  1.01461E+02 -6.64619E+02 -7.23754E+03 -1.26697E+04
  9.93539E+03 -9.30253E+03  5.22037E+03 -1.08060E+03  1.39077E+04  1.64947E+03  4.47521E+03  1.72937E+04
 -7.30008E+03  1.89388E+04 -2.00694E+04 -1.55919E+02 -2.28966E+04 -2.14817E+03 -1.23333E+04 -1.52829E+04
 -3.86729E+03 -1.07965E+04  6.55110E+02 -1.66410E+04  1.68421E+04 -3.32050E+03  8.29304E+03  1.28720E+04
  8.00174E+03  8.66754E+03 -3.18374E+03  3.89364E+03 -2.90344E+03 -1.38227E+03 -6.13432E+02 -2.46528E+02
  3.39690E+03  2.15403E+03  1.27455E+04  4.13998E+03  1.64836E+04  4.74477E+03  1.54352E+03  4.27868E+03
 -6.36339E+03  1.67793E+03 -1.30291E+04 -4.77372E+02 -4.57839E+03 -9.50400E+03  5.95575E+03 -1.18852E+04
  5.12433E+03 -1.46681E+04  7.99888E+03 -5.92150E+03  1.59778E+04  1.01068E+03  3.00896E+03  9.32458E+03
  3.97770E+03  6.54998E+03  1.26192E+03 -3.59599E+03 -1.02591E+04  2.32943E+03  3.79269E+03  5.13131E+02
 -6.47546E+03  5.23639E+03 -6.65147E+03  3.38272E+02 -8.26757E+02  7.02218E+03  1.07267E+03 -7.74816E+03
 -5.53329E+03 -5.72784E+03  6.65384E+02 -1.38482E+04  8.12365E+03 -1.30798E+04  1.78346E+03  1.74906E+03
  8.52596E+03  3.82209E+03  8.08930E+03 -4.13184E+02 -2.27076E+01  1.33748E+04 -4.96658E+03  1.21960E+04
