 $NMID ID='MM_0lb_SNR50_13hz_g40_96.RAW', FMTDAT='(8E13.5)'
 TRAMP=1., VOLUME=1. $END
  3.08608E+05 -2.34220E+03  3.35093E+05  2.46853E+05  8.31566E+04  3.36337E+05 -1.33441E+05  2.54569E+05
 -1.89972E+05  8.26085E+04 -1.13525E+05 -3.42639E+04 -8.32094E+02 -4.49472E+04  5.52377E+04 -2.26033E+03
  3.19456E+04  5.54197E+04 -1.47242E+04  7.37924E+04 -5.89119E+04  6.57361E+04 -8.20611E+04  3.01686E+04
 -7.56283E+04 -1.05963E+04 -6.05090E+04 -5.24340E+04 -1.77130E+04 -6.96524E+04  2.91996E+04 -4.86844E+04
  3.72152E+04  8.01015E+03  1.32794E+04  5.03307E+04 -3.52558E+04  4.73511E+04 -6.52185E+04  4.00261E+02
 -5.86070E+04 -5.17868E+04 -7.17873E+03 -7.85604E+04  2.96840E+04 -5.62588E+04  4.28105E+04 -1.65142E+04
  3.92204E+04  1.64637E+04  2.92830E+04  2.32849E+04  1.56252E+04  2.70964E+04 -8.86758E+03  2.56081E+04
 -2.09547E+04  1.34552E+04 -1.65396E+04 -5.63608E+03  5.59052E+03 -1.14655E+04  2.46966E+04  1.52693E+04
  3.87804E+03  3.60143E+04 -3.47628E+04  3.58632E+04 -5.97697E+04  2.35515E+03 -5.59397E+04 -4.16632E+04
 -1.44073E+04 -6.10157E+04  3.88500E+04 -4.68802E+04  5.84725E+04 -3.26377E+03  3.21247E+04  3.34158E+04
 -1.12005E+04  3.83889E+04 -2.46806E+04  1.51853E+04 -2.58409E+04 -3.59263E+03 -1.57645E+04 -1.07474E+04
 -9.06082E+03 -1.42647E+04 -8.22985E+02 -1.94126E+04  8.47589E+03 -2.40162E+04  1.99555E+04 -1.26037E+04
  7.11541E+03  2.45556E+03 -5.41556E+03  1.17156E+04 -2.19045E+04  7.17356E+02 -1.34703E+04 -3.75476E+04
  2.35780E+04 -4.52936E+04  4.43644E+04 -1.67915E+04  4.36073E+04  2.01210E+04  1.44639E+04  4.89008E+04
 -1.62491E+04  3.46128E+04 -2.48023E+04  1.14156E+03 -6.50682E+03 -2.76629E+04  2.02386E+04 -2.95478E+04
  3.93508E+04 -8.91233E+03  3.52373E+04  2.34679E+04  2.10950E+04  4.57153E+04 -1.12331E+04  5.03120E+04
 -3.72055E+04  3.04097E+04 -4.45142E+04  1.24896E+04 -4.19207E+04 -1.57134E+04 -2.33415E+04 -3.46668E+04
  7.33931E+03 -4.03521E+04  3.43586E+04 -1.12220E+04  3.02492E+04  1.23075E+04  7.14306E+03  2.24234E+04
 -1.11035E+04  6.67695E+03 -7.96660E+03 -1.04568E+04  6.42126E+03 -1.10670E+04  1.60405E+04  5.13398E+03
  1.23648E+04  1.98480E+04 -4.44124E+03  1.71576E+04 -2.51438E+04  1.41556E+04 -2.35754E+04 -6.09504E+03
 -1.91594E+04 -1.86457E+04 -1.30507E+04 -2.30354E+04  3.89192E+03 -1.64594E+04  1.85626E+04 -2.08009E+04
  2.68443E+04 -9.81670E+03  3.37052E+04  1.64575E+03  2.56668E+04  2.55935E+04  7.90261E+03  3.20443E+04
 -1.93179E+04  3.34090E+04 -3.36534E+04  1.16881E+04 -2.14563E+04 -1.09249E+04 -6.22755E+03 -9.74501E+03
  5.85503E+03 -9.29708E+02 -3.05180E+03  6.60047E+03 -1.81240E+04  5.69435E+03 -1.80462E+04 -1.00396E+04
 -1.08076E+04 -1.66022E+04  5.61693E+03 -2.37015E+04  1.65269E+04 -1.62176E+04  2.05892E+04 -4.56410E+03
  1.06580E+04  1.38631E+04 -6.93880E+02  2.50298E+04 -9.42293E+03  9.63630E+03 -1.68680E+04 -6.17858E+03
 -1.19538E+04 -9.88990E+03 -1.02455E+03 -2.05216E+04  7.05773E+03 -1.56553E+04  1.85933E+04 -9.43733E+03
  1.74551E+04  5.73752E+01  8.54507E+03 -2.33025E+03  7.09387E+03 -1.07802E+03  8.45652E+03 -5.38894E+03
  2.08526E+04  5.99172E+03  2.25291E+04  1.47483E+04  1.44132E+04  3.06745E+04 -3.23379E+03  3.44644E+04
 -1.71112E+04  3.35073E+04 -3.32116E+04  1.02678E+04 -2.88015E+04 -5.55289E+03 -2.51694E+04 -1.87748E+04
 -1.24104E+04 -3.07944E+04  1.01053E+04 -2.77970E+04  2.08497E+04 -1.24292E+04  2.20744E+04  7.28676E+03
  4.00044E+03  1.16365E+04 -9.23302E+03  9.88588E+03 -1.99510E+04  1.13662E+03 -1.06048E+04 -1.25704E+04
  1.86559E+03 -1.59374E+04  1.09464E+04 -1.39510E+04  8.36849E+03 -1.98200E+03  2.57755E+03  5.09970E+03
 -5.08549E+03 -9.62366E+02 -5.55684E+03 -6.71138E+03 -6.47870E+02 -1.57942E+04  4.89191E+03 -1.65853E+04
  1.65657E+04 -3.69786E+03  1.33710E+04 -9.24099E+02  1.59838E+04  1.28929E+04  1.12233E+04  2.29633E+04
 -4.34501E+03  1.69280E+04 -1.32973E+04  1.72515E+04 -1.62800E+04  1.95045E+03 -9.19529E+03 -5.49064E+03
 -4.50134E+03 -8.39898E+03 -2.53993E+03 -6.38351E+02 -9.05611E+01  4.64650E+03  2.01517E+03  3.12492E+03
 -6.34226E+03 -1.53578E+03 -1.12321E+04 -4.45417E+03  4.92739E+02 -1.23677E+04  4.48601E+03 -1.70681E+04
  1.23987E+04 -6.76189E+03  1.14030E+04 -3.28865E+01 -5.40232E+03  7.22554E+03 -6.38332E+03  3.75886E+02
 -8.15269E+03 -4.74067E+03 -3.43475E+03 -1.22128E+04  1.10161E+04 -9.83361E+03  1.62104E+04 -4.60984E+03
  1.89244E+04  1.30834E+03  9.64468E+03  1.06255E+04  4.09237E+03  1.31042E+04 -5.96946E+03  9.65576E+03
 -1.04316E+04  1.68105E+03 -6.59962E+03 -1.24823E+03 -2.08148E+03 -2.90917E+03  6.37477E+03  3.15985E+02
  7.29834E+03  3.53288E+03 -4.47832E+03  1.14728E+04 -9.02991E+03  1.11320E+04 -1.21702E+04 -1.71299E+03
 -9.71404E+03 -7.39311E+03  3.90663E+03 -4.28372E+03  4.37079E+03 -7.86021E+03  9.82289E+03 -2.66350E+03
 -2.26323E+03  6.12181E+03 -6.61543E+03  7.89787E+03 -1.02786E+04  9.75397E+01 -1.34755E+04 -5.81135E+03
 -7.39952E+03 -3.85697E+03 -1.21259E+03 -1.09832E+04  9.17547E+03 -7.61893E+03  1.03686E+04  7.46795E+03
  8.40177E+03  8.08787E+03  3.81706E+03  6.30114E+03 -4.63358E+03  7.52995E+03 -1.03882E+04 -1.47821E+03
 -9.18889E+03 -1.16513E+04 -3.14758E+03 -7.94781E+03  2.60015E+03 -1.57649E+04  7.09944E+03 -3.73932E+03
  1.29516E+03  1.30931E+03  1.27353E+01 -7.95290E+02 -1.62880E+03 -3.30367E+03  6.85523E+02  2.60726E+03
  8.27375E+03  2.51872E+03  9.43438E+03 -7.16666E+02  6.17717E+03  5.62998E+03  6.60136E+03  9.18039E+03
 -6.20438E+02  1.03658E+04 -1.33502E+04  1.12193E+04 -1.77694E+04  2.73106E+03 -1.38831E+04 -5.26843E+03
 -8.81386E+03 -1.25260E+04 -3.92748E+03 -1.07806E+04  5.18154E+03 -7.52581E+03  2.79000E+03 -8.75006E+03
  3.79347E+03  5.39384E+02  2.14575E+03 -4.78079E+03  7.44791E+03 -1.67867E+03  9.38439E+03 -5.37410E+03
  7.48606E+03  3.80911E+03  5.87444E+03  6.84803E+03  1.62183E+03  1.01743E+04 -6.20630E+03  4.32123E+03
 -9.94188E+03 -7.73122E+03 -9.61911E+02 -3.07606E+03  7.05747E+02 -1.31974E+04  2.50804E+03 -9.47632E+03
  9.02488E+03 -1.07213E+04  1.33454E+04  2.36025E+03  6.70622E+03  7.18242E+03  1.98412E+03  6.72076E+03
 -4.51746E+03  1.35013E+04 -2.65529E+03  4.03681E+03 -8.82949E+02  4.15352E+03 -2.01875E+03 -1.07454E+03
 -1.14227E+03 -1.46494E+03  2.12417E+03  1.78104E+03 -3.97177E+03  3.93155E+03 -1.21779E+04  1.12176E+03
 -2.90686E+03 -2.54858E+02 -3.99063E+03 -1.15358E+04  8.83746E+03 -7.24246E+03  5.73894E+03  4.79728E+02
  5.67302E+03  7.05530E+03  4.50434E+03  7.43036E+03  4.51735E+03  8.57798E+03 -5.88990E+03  3.60298E+03
 -8.16873E+03  1.59445E+03 -6.75537E+03 -2.43612E+03  3.43784E+02 -2.52309E+03  3.00109E+03 -9.30329E+03
  4.04698E+03 -5.91187E+02  4.47631E+03  4.98715E+02  2.23928E+03  4.53259E+03  3.79793E+03  5.54293E+03
  7.19905E+02 -8.17887E+02  4.13290E+02  3.14496E+03  2.37506E+03  5.76609E+03  2.40581E+03  4.39851E+03
 -4.45780E+03  9.02531E+03 -2.99916E+03  6.16208E+03 -9.50654E+03 -2.99674E+02 -7.11099E+03 -3.11997E+03
 -2.30020E+03 -5.37233E+03  4.43163E+03 -7.95960E+03  3.92687E+03 -6.82638E+02  5.49295E+03 -1.89313E+03
  7.09737E+03  4.66332E+03  4.24342E+03  8.49923E+03 -7.00915E+02  6.25958E+03 -5.18816E+03 -6.60224E+03
 -1.39448E+03 -2.59758E+03  5.15919E+03 -7.07403E+03 -4.05960E+02 -2.44124E+03  1.96080E+03  4.14557E+03
  3.71137E+03 -3.30504E+03  6.26191E+03  5.60872E+02  1.56457E+03  5.27484E+03 -1.26000E+03 -3.77651E+02
  3.12428E+03  6.79901E+03 -1.86949E+03  1.71144E+02  3.00024E+03  6.48416E+03 -4.36442E+03  3.29914E+03
 -7.31655E+03  5.28670E+03 -2.22995E+03 -3.10312E+02 -3.82424E+03 -3.19138E+02 -3.65766E+03  9.13930E+02
  4.85911E+02 -6.27195E+03 -1.98618E+02 -1.36918E+03 -9.02551E+01  1.98667E+03 -6.43175E+03  1.87029E+03
 -2.98931E+03  4.92057E+03 -1.30242E+03 -1.07614E+03 -1.70025E+03 -3.18347E+03  3.33955E+03 -4.61383E+03
  2.88831E+03  2.80278E+02  5.41212E+01  3.97761E+03  5.22029E+03 -6.55673E+02 -7.14256E+02  2.10120E+03
  3.03769E+02 -1.29396E+03 -2.74956E+03  2.90518E+03  1.97469E+03 -7.32240E+03  4.29145E+03 -9.71259E+02
  5.16142E+03 -4.92322E+03  8.31400E+03  3.75007E+03 -1.11978E+02  7.08550E+03 -6.52156E+03  6.72886E+03
 -1.16632E+03 -3.25903E+03 -4.47612E+03  1.30045E+03 -3.86921E+03 -1.53118E+03  1.38468E+02 -1.33849E+03
 -4.84463E+02 -3.64545E+03  2.92796E+03 -5.37035E+03  2.38181E+03  2.12194E+03  2.76904E+03  1.03135E+04
  1.01848E+03  7.15199E+01 -2.92029E+03 -1.46119E+03  1.81469E+02  3.20284E+03 -8.19020E+03 -4.09202E+02
  2.16672E+03 -1.15171E+03 -4.62837E+02 -1.53741E+03 -9.01144E+03  1.27041E+03 -4.29476E+03  3.95482E+02
 -2.92644E+03 -6.53627E+03  4.09174E+03 -5.54911E+03  3.74849E+03 -6.63719E+03  4.92701E+03 -1.94019E+03
  8.96862E+03 -2.29504E+03  3.66082E+03  4.67782E+03  2.23985E+03  5.24272E+03 -3.98052E+01  4.47781E+03
  4.18847E+02 -2.49497E+02 -3.93933E+03  4.56376E+02 -4.52297E+03  1.27289E+03 -5.29699E+03 -3.46183E+03
 -3.78332E+03  1.45050E+03  2.93383E+03 -4.64665E+03 -1.48476E+03 -1.89569E+03 -2.14511E+03 -6.33441E+03
  2.61162E+03 -2.50332E+03  7.53728E+03  1.71546E+03  5.34147E+03  2.95531E+03  1.18903E+03 -1.74666E+02
 -3.84192E+03  6.27122E+03 -6.18472E+03  2.97308E+03 -1.23885E+03 -7.86963E+02 -5.49976E+03  1.27791E+03
 -8.29368E+02 -2.85153E+03  6.77690E+02 -4.95826E+03  1.02176E+03  4.56996E+01  1.98589E+03  2.50795E+03
  3.71618E+03  2.00478E+03 -6.71263E+02  2.35438E+03  6.76496E+02  1.48645E+03  2.09695E+03 -7.16977E+03
  2.38658E+03  4.57483E+03  7.23037E+03 -2.14945E+03 -8.19289E+02 -1.66079E+03  6.92700E+03  4.15784E+03
 -2.40581E+03  4.70077E+03  9.62573E+02  3.00705E+03 -1.13870E+03 -3.39503E+03 -8.02147E+01 -5.18881E+03
 -1.83952E+03 -5.44265E+03  6.22365E+02 -2.60894E+03  9.83392E+02 -5.10948E+03 -2.09866E+03  6.26202E+03
 -1.17763E+03  2.64692E+03 -1.55116E+03  3.63197E+03  1.29947E+03  6.94157E+02 -5.94223E+02  4.31391E+03
  2.45598E+03  1.14689E+03  1.80843E+03  2.45229E+03  7.83825E+02 -8.48714E+02 -1.12227E+03  2.15215E+03
 -1.74686E+03 -2.34492E+03  1.62613E+03  1.51228E+03  2.37114E+03 -1.85160E+03  4.40221E+03 -5.07629E+03
 -1.14734E+03  1.17251E+03 -3.45009E+03  1.45952E+03 -3.86688E+03  4.61829E+03 -3.91331E+03  9.16118E+03
