 $NMID ID='MM_0lb_SNR50_9hz_g60_64.RAW', FMTDAT='(8E13.5)'
 TRAMP=1., VOLUME=1. $END
  3.08662E+05  3.83521E+03  3.36689E+05  2.59187E+05  8.67002E+04  3.44322E+05 -1.25629E+05  2.55949E+05
 -1.97178E+05  7.80625E+04 -1.15144E+05 -3.87958E+04 -5.42287E+02 -4.89660E+04  5.63403E+04  4.99855E+03
  3.60654E+04  5.03473E+04 -1.32271E+04  7.42455E+04 -6.26662E+04  6.17376E+04 -8.77784E+04  3.00568E+04
 -8.61020E+04 -9.00733E+03 -6.16431E+04 -5.17360E+04 -1.67007E+04 -6.74288E+04  2.59390E+04 -4.76876E+04
  4.33571E+04  6.27124E+03  1.53258E+04  5.13148E+04 -3.39519E+04  4.74794E+04 -6.46073E+04 -4.52239E+03
 -5.92463E+04 -5.79020E+04 -3.83510E+03 -8.07627E+04  4.17085E+04 -5.45232E+04  5.30085E+04 -2.04140E+04
  4.73293E+04  1.59126E+04  3.28021E+04  3.29020E+04  1.76026E+04  3.56456E+04 -1.38467E+04  2.83972E+04
 -1.65275E+04  9.83046E+03 -1.93835E+04 -1.05417E+04 -5.71769E+02 -1.05681E+04  2.02549E+04  1.70631E+04
  9.73831E+03  3.44223E+04 -3.30440E+04  3.61078E+04 -6.80587E+04  1.10553E+02 -5.79367E+04 -4.76582E+04
 -1.60472E+04 -5.68460E+04  3.77442E+04 -5.29847E+04  6.23702E+04 -3.57672E+03  3.25002E+04  3.31571E+04
 -8.65660E+03  3.71306E+04 -3.58638E+04  2.18871E+04 -3.39039E+04 -5.35776E+03 -2.56111E+04 -1.27961E+04
 -7.38270E+03 -1.95421E+04  4.64507E+02 -2.35804E+04  1.34280E+04 -1.51982E+04  1.65445E+04 -1.32884E+04
  1.13364E+04  1.43162E+04 -1.59992E+04  1.17368E+04 -2.20501E+04 -7.31719E+03 -1.27633E+04 -4.10913E+04
  2.20227E+04 -5.02306E+04  5.33386E+04 -1.63297E+04  5.41813E+04  2.30627E+04  2.64004E+04  4.49200E+04
 -1.58032E+04  3.77886E+04 -2.94614E+04 -1.12044E+03 -4.30083E+03 -3.27735E+04  2.43590E+04 -3.83263E+04
  4.67415E+04 -7.41439E+03  4.63558E+04  2.14557E+04  2.19619E+04  5.16923E+04 -6.10286E+03  5.65655E+04
 -3.94951E+04  4.24652E+04 -4.80416E+04  9.52962E+03 -4.64530E+04 -2.42292E+04 -3.23719E+04 -4.20724E+04
  8.54204E+03 -4.67053E+04  3.55140E+04 -2.39713E+04  3.04558E+04  4.63738E+03  1.22546E+04  2.39009E+04
 -1.73367E+04  1.62342E+04 -6.17329E+03 -8.32415E+03  3.10235E+03 -1.22962E+04  1.88724E+04  1.03168E+04
  1.95018E+04  2.40069E+04 -6.37621E+03  3.30262E+04 -2.40469E+04  1.41085E+04 -2.62222E+04 -7.11575E+03
 -2.29370E+04 -1.36268E+04 -1.76485E+04 -2.96811E+04  1.01493E+04 -2.84359E+04  2.19386E+04 -3.09143E+04
  3.89258E+04 -1.39387E+04  4.08266E+04  8.55720E+03  2.85061E+04  2.56919E+04  7.95943E+03  4.61819E+04
 -2.36712E+04  3.31526E+04 -2.85052E+04  1.05658E+04 -2.32279E+04 -9.95664E+03 -5.29842E+03 -1.35707E+04
  3.47008E+03  1.15004E+02 -5.41905E+03  9.71815E+03 -1.84043E+04  6.95978E+03 -2.01736E+04 -6.17362E+03
 -1.51927E+04 -1.92612E+04  1.06047E+04 -3.02954E+04  2.04502E+04 -1.73446E+04  2.53394E+04 -8.10292E+03
  1.41229E+04  1.09610E+04 -3.16988E+03  2.15674E+04 -2.19878E+04  1.88833E+04 -2.61112E+04 -1.14224E+04
 -1.42306E+04 -2.17596E+04  9.69450E+02 -2.59779E+04  1.30094E+04 -2.40933E+04  2.33178E+04 -8.34368E+03
  2.15162E+04  2.26213E+03  2.08538E+04  2.74586E+03  1.62119E+04  3.19316E+03  7.86086E+03  1.23073E+02
  2.21546E+04  5.44964E+03  2.91112E+04  1.52139E+04  2.14424E+04  3.88626E+04 -4.37962E+03  4.74035E+04
 -2.63630E+04  4.38644E+04 -4.43982E+04  1.98700E+04 -4.76493E+04 -4.44136E+03 -3.87865E+04 -2.17871E+04
 -9.03698E+03 -4.10473E+04  1.63587E+04 -3.50235E+04  3.07442E+04 -1.69269E+04  1.92817E+04  7.56244E+03
  7.73885E+03  1.16515E+04 -1.29404E+04  1.55426E+04 -2.35523E+04 -2.35554E+03 -1.15929E+04 -1.20621E+04
  2.39218E+03 -2.30577E+04  7.07530E+03 -6.06096E+03  1.57573E+04  6.78921E+02  4.35787E+03  8.09385E+03
 -1.33450E+04  6.38065E+03 -7.99944E+03 -1.09850E+04 -1.92258E+03 -1.55762E+04  1.46723E+04 -2.16675E+04
  2.58992E+04 -1.28999E+04  2.68852E+04  2.65692E+03  1.93894E+04  2.46469E+04  9.93067E+03  2.73101E+04
  2.73473E+03  3.74896E+04 -2.32101E+04  1.96039E+04 -2.28388E+04  6.96307E+03 -1.98252E+04 -1.02469E+04
 -7.46862E+03 -4.72117E+03  2.23894E+02  6.45868E+02 -1.56778E+03  1.03644E+04  3.37455E+02  5.98212E+02
 -1.67812E+04 -5.89923E+03 -1.47516E+04 -1.10146E+04 -8.78946E+03 -1.64289E+04  8.11919E+03 -1.69954E+04
  1.14212E+04 -1.01541E+04  9.86316E+03 -1.27606E+03 -6.70250E+03  1.62677E+03 -1.19880E+04  3.17057E+03
 -1.45152E+04 -1.13753E+04 -8.69878E+01 -1.79099E+04  6.58781E+03 -1.88416E+04  3.06752E+04 -1.09980E+04
  3.46123E+04  4.97600E+02  1.96988E+04  1.97800E+04  4.79576E+03  2.27852E+04 -8.56138E+03  1.50529E+04
 -1.32388E+04  3.81069E+03 -1.14239E+04 -4.41864E+03 -6.55430E+02 -4.09659E+02  1.22403E+04 -8.59251E+02
  1.24743E+04  3.56283E+03  1.09735E+04  1.52782E+04 -7.04821E+03  1.84158E+04 -1.80875E+04  4.14524E+03
 -1.29064E+04 -1.22257E+04  3.78868E+03 -1.73522E+04  1.31081E+04 -7.00090E+03  4.08813E+03  5.48396E+03
  3.66908E+03  1.34684E+04 -1.21299E+04  1.02524E+04 -1.21092E+04  2.24237E+03 -1.32885E+04 -7.77252E+03
 -1.47126E+04 -1.47493E+04  2.64448E+03 -2.15537E+04  1.47351E+04 -1.17882E+04  1.68342E+04  2.67307E+03
  1.32694E+04  1.44586E+04 -3.51359E+03  1.33601E+04 -1.75940E+04  1.08553E+04 -1.43577E+04 -4.81421E+03
 -1.11579E+04 -1.07404E+04 -1.99157E+03 -7.08600E+03  8.83193E+03 -1.16352E+04  3.03183E+03 -3.25348E+03
  4.52627E+03 -7.13334E+01 -3.67504E+03  8.03513E+02 -5.48235E+03 -8.83588E+03  4.41683E+03 -9.16354E+03
  1.35464E+04 -5.62773E+03  1.50641E+04 -9.32929E+02  1.20056E+04  7.94205E+03  8.71749E+03  2.07262E+04
 -6.20913E+03  2.40751E+04 -1.93625E+04  2.12926E+04 -2.30740E+04  1.10405E+03 -2.23211E+04 -1.94190E+03
 -1.22633E+04 -2.17454E+04  5.20739E+02 -1.51202E+04  4.11020E+03 -8.09260E+03  1.63919E+02 -1.63300E+03
  5.89359E+03 -1.91547E+03  2.12173E+02 -5.14538E+03  9.01268E+03 -2.34716E+03  1.40110E+04 -4.14834E+03
  1.38239E+04 -1.75483E+03  1.09301E+04  3.78299E+03 -6.54599E+03  1.55146E+04 -1.51288E+04  1.36663E+04
 -1.09808E+04  5.57045E+03 -1.16820E+04 -1.16375E+04 -2.13420E+03 -1.53209E+04  8.07855E+03 -2.03547E+04
  2.32334E+04 -1.37163E+04  1.67761E+04  8.62166E+03  1.25786E+04  1.86656E+04 -1.79715E+03  1.18981E+04
 -1.17716E+04  1.23159E+04 -8.83957E+03  1.71607E+03 -1.04017E+04 -5.14580E+02 -4.26799E+03 -5.90636E+03
 -6.75829E+03 -2.51849E+03 -4.22658E+03  1.66813E+04 -9.81613E+03  6.30600E+03 -1.93316E+04 -1.46277E+03
 -1.67039E+03 -1.45080E+04  1.62727E+03 -1.23147E+04  1.21554E+04 -1.29037E+04  1.16902E+04 -5.07742E+03
  1.91933E+04  3.89624E+03  1.17590E+04  1.11527E+04 -1.38623E+03  1.74499E+04 -9.09121E+03  6.51256E+03
 -1.97909E+04  4.98836E+03 -1.17729E+04 -4.57744E+03 -3.78879E+03 -1.40298E+04  1.12107E+04 -1.24516E+04
  1.25328E+04  1.94793E+03  4.54511E+03  1.79942E+03  9.20957E+03  7.40551E+03 -1.45229E+03 -1.26026E+03
  3.55239E+03  1.60318E+03  4.18000E+03 -2.11022E+03  8.55351E+03  1.18587E+03 -7.04069E+02  5.33655E+03
 -5.18890E+03  1.44838E+04 -9.84478E+03  1.63160E+04 -1.69515E+04  2.42077E+03 -1.58968E+04 -5.66821E+03
 -8.43242E+03 -1.74781E+04  6.07324E+03 -2.26675E+04  1.07755E+04 -7.75233E+03  1.13515E+04 -5.33717E+03
  1.46794E+04  7.04569E+03  7.35594E+02  1.04410E+04 -1.47289E+03  6.38361E+03 -7.27650E+03  6.15663E+03
  2.18706E+03 -2.59562E+03  3.37487E+03 -4.05726E+03  9.67512E+03 -2.71164E+03  5.25791E+03 -2.02926E+03
  4.44692E+03  1.39667E+03  6.43509E+03 -1.89661E+02 -9.17841E+02  5.74146E+03  1.32110E+03 -2.57385E+03
  8.31160E+03 -5.30211E+03  9.03926E+03 -7.41765E+02 -3.20731E+02  6.72710E+03 -2.59999E+03  1.09908E+04
 -6.38460E+03  1.21451E+04 -1.36106E+04 -3.23311E+03 -1.16720E+04 -7.35016E+03  2.24515E+03 -1.80923E+03
 -3.39182E+03 -4.21444E+03  2.72578E+03 -8.89954E+02 -2.29624E+03  2.72539E+03 -7.02635E+03  6.78784E+03
 -7.13532E+03  5.60819E+03 -5.97582E+03 -6.80909E+03 -8.13743E+03 -5.03013E+03 -1.68266E+03 -9.85321E+03
  4.71289E+03 -7.01827E+03  8.46188E+03  5.35015E+03  7.44977E+03  5.91786E+03 -1.59343E+03  1.25483E+04
 -4.51262E+03  2.52282E+03 -9.39443E+03 -3.94509E+03  9.45440E+02 -1.17530E+04  9.73086E+03 -7.04515E+03
  1.00736E+04  8.53466E+03  1.46891E+04  8.74731E+03  1.74255E+03  1.04383E+04 -5.38396E+02  1.21210E+04
 -1.01196E+04 -1.40212E+03 -9.80294E+03  1.31556E+03 -8.90865E+03 -4.31003E+03  5.25296E+02 -1.02180E+04
  2.68728E+03 -3.50588E+03  5.23398E+03 -6.03183E+02  6.05888E+03  7.49075E+03  5.32695E+02  7.27207E+03
 -4.58444E+03 -3.10802E+03 -3.37028E+03 -7.11584E+03 -7.91674E+03  3.89313E+03 -4.70900E+03  4.36555E+03
 -4.31296E+02  4.64434E+03 -7.40350E+03  8.02333E+03 -9.61495E+03  2.99740E+03 -1.57891E+04 -6.05399E+03
 -6.83996E+03 -1.54153E+04  5.20727E+03 -2.00183E+04  1.28922E+04 -1.10902E+04  1.51491E+04 -3.80103E+03
  1.20589E+04  4.14104E+03  9.04342E+03  4.82959E+02  1.17442E+03  8.86083E+03 -3.91854E+03  4.96036E+03
 -8.67251E+03  2.30614E+01  3.94597E+02 -2.93438E+01 -3.29518E+03 -3.80387E+03 -5.72300E+03  1.98469E+03
 -7.39693E+03 -5.38815E+03 -2.70600E+03 -3.83907E+03  4.97947E+03 -7.88309E+01 -5.64183E+03 -7.70639E+03
  9.63157E+03 -8.39027E+03  1.23874E+04 -1.42994E+03  6.09775E+03  8.70806E+03  2.56129E+03  9.12260E+03
 -1.27882E+04  1.38816E+04 -2.11831E+04 -9.09450E+02 -1.55003E+04  9.45474E+02 -1.16519E+04 -4.67320E+03
 -6.06369E+03 -1.35773E+04  4.36490E+03 -1.04348E+04  9.33351E+03 -7.09273E+03  7.80052E+03  2.31798E+03
  1.44422E+03  8.23477E+03 -4.96718E+03  3.34221E+03 -9.27553E+02 -1.18099E+03 -6.00179E+02 -8.83333E+03
  5.00816E+03  2.17215E+03  7.32269E+03  6.13864E+03  3.77879E+03 -1.08761E+03 -4.88753E+03  1.61828E+03
 -3.75390E+03  1.46031E+02 -1.67453E+03 -1.95740E+03 -1.28981E+04 -7.78120E+03 -1.19658E+04 -1.09316E+04
  2.02931E+03 -5.94348E+03  1.38503E+04 -5.20938E+03  7.73241E+03 -2.25135E+02  5.20684E+03  5.24566E+03
 -1.81453E+03  1.00874E+04 -6.72032E+03  8.29297E+03 -4.47387E+03  1.29063E+04 -8.69279E+03 -3.46063E+03
 -2.74175E+03  1.21349E+03 -9.61992E+03 -7.51723E+03  2.71794E+03  3.61224E+03 -1.20645E+04  1.56189E+03
 -2.00248E+04 -5.80928E+03 -7.08917E+03 -8.72127E+03  3.68944E+03 -6.25735E+03  6.09930E+03 -4.30156E+03
  8.80051E+03  5.37728E+02  7.34577E+02 -3.04555E+03 -2.18696E+03  2.35449E+03 -3.23468E+03  6.74503E+03
