 $NMID ID='MM_0lb_SNR50_18hz_g50_82.RAW', FMTDAT='(8E13.5)'
 TRAMP=1., VOLUME=1. $END
  3.10161E+05 -1.19862E+03  3.38295E+05  2.49719E+05  8.48460E+04  3.37020E+05 -1.32639E+05  2.53455E+05
 -1.90592E+05  8.53875E+04 -1.17806E+05 -3.00575E+04 -5.24831E+03 -5.31545E+04  5.41546E+04 -2.72147E+03
  4.04711E+04  5.24968E+04 -2.11192E+04  7.37563E+04 -6.05261E+04  6.23782E+04 -8.17374E+04  3.28257E+04
 -7.89965E+04 -1.04990E+04 -5.50206E+04 -5.02635E+04 -1.37123E+04 -7.22988E+04  2.28382E+04 -4.54000E+04
  3.68054E+04  9.66866E+02  1.38807E+04  4.54518E+04 -3.62477E+04  4.88236E+04 -6.60798E+04 -8.23720E+02
 -5.55236E+04 -5.25729E+04 -1.14248E+04 -7.52648E+04  3.57259E+04 -5.16512E+04  4.43456E+04 -1.69291E+04
  4.36125E+04  1.03152E+04  3.47529E+04  2.67889E+04  1.63113E+04  3.24322E+04 -4.97365E+03  2.23230E+04
 -2.14689E+04  1.24981E+04 -1.82304E+04 -8.50739E+03  6.70942E+03 -7.47041E+03  2.29328E+04  1.17991E+04
  7.01703E+03  2.88123E+04 -3.26154E+04  3.04164E+04 -6.20520E+04  4.32967E+03 -5.92486E+04 -3.99945E+04
 -1.28129E+04 -5.74139E+04  3.87834E+04 -4.61980E+04  5.58604E+04 -2.69104E+03  2.96536E+04  2.97733E+04
 -7.67129E+03  3.29943E+04 -2.85913E+04  1.61089E+04 -2.75126E+04 -2.77403E+03 -1.44938E+04 -7.91448E+03
 -7.65362E+03 -9.12047E+03 -1.40394E+03 -1.37824E+04  5.94359E+03 -2.46441E+04  1.61293E+04 -1.51680E+04
  1.19999E+04  4.29247E+03 -7.36792E+03  1.25116E+04 -1.91371E+04 -1.83157E+03 -1.08075E+04 -3.10981E+04
  2.37190E+04 -3.97391E+04  4.64802E+04 -1.91780E+04  4.29607E+04  1.94277E+04  8.41310E+03  4.14894E+04
 -1.43331E+04  3.41025E+04 -2.73078E+04  4.19034E+02 -1.05333E+04 -2.28681E+04  1.64501E+04 -3.49323E+04
  3.73424E+04 -8.42798E+03  2.74429E+04  2.44029E+04  1.24287E+04  4.16864E+04 -1.02408E+04  4.73306E+04
 -3.23829E+04  2.85424E+04 -3.63383E+04  6.45781E+03 -3.89571E+04 -1.87931E+04 -2.52289E+04 -3.27241E+04
  6.58029E+03 -3.72521E+04  2.58480E+04 -1.00217E+04  2.78738E+04  8.65866E+03  1.72444E+03  1.42277E+04
 -1.51671E+04  3.30909E+03 -8.97200E+03 -4.59617E+03  5.78855E+03 -1.22495E+04  1.59849E+04  5.49220E+03
  1.25842E+04  2.00358E+04 -4.93041E+03  2.29464E+04 -2.63838E+04  1.32584E+04 -2.71892E+04 -9.58789E+03
 -1.71552E+04 -1.93655E+04 -7.88194E+03 -2.07562E+04  3.57015E+03 -1.38150E+04  1.51413E+04 -1.68947E+04
  2.26159E+04 -1.33310E+04  3.16046E+04 -2.78895E+03  2.16408E+04  1.94706E+04  2.45774E+03  3.25492E+04
 -1.41347E+04  2.71075E+04 -2.38102E+04  1.02029E+04 -1.89557E+04 -7.69480E+03 -2.86310E+03 -1.55884E+04
 -1.41758E+03 -1.01725E+03 -3.81350E+03  6.82447E+03 -1.30173E+04  7.18191E+03 -1.03402E+04 -3.19970E+03
 -7.32499E+03 -1.61449E+04  3.11087E+03 -1.61006E+04  1.60415E+04 -1.44410E+04  1.76217E+04 -1.03836E+03
  8.38008E+03  1.27357E+04 -1.67052E+03  1.72746E+04 -9.38721E+03  1.04112E+04 -1.63056E+04 -4.37467E+03
 -9.65594E+03 -1.70425E+04 -3.44184E+03 -1.73732E+04  9.35591E+03 -1.43392E+04  1.25873E+04 -9.41836E+03
  1.24627E+04  3.17081E+03  1.19246E+04  3.03930E+03  2.28765E+03 -2.55245E+03  6.39589E+03 -1.25672E+03
  1.70822E+04  3.63208E+02  1.21396E+04  1.34224E+04  1.31879E+04  2.19527E+04 -5.62326E+03  3.10107E+04
 -2.27560E+04  2.38528E+04 -2.84461E+04  1.36692E+04 -2.87989E+04 -3.26659E+02 -2.68697E+04 -1.50814E+04
 -1.36105E+04 -2.08030E+04  3.52151E+03 -1.71687E+04  1.67354E+04 -1.53213E+04  1.37993E+04  3.19872E+03
  7.71630E+03  1.21010E+04 -1.05055E+04  1.36083E+04 -1.33114E+04  5.43417E+01 -6.41855E+03 -7.74345E+03
 -3.82141E+03 -1.46261E+04  7.08363E+03 -9.69431E+03  8.61372E+03 -3.20095E+02  1.44570E+03  5.13121E+03
 -7.95704E+03 -2.28306E+03 -2.17040E+03 -8.33881E+03  2.33112E+03 -1.18146E+04  8.02056E+03 -9.80937E+03
  1.21411E+04 -6.48846E+03  1.51975E+04  2.33448E+02  1.12190E+04  1.28491E+04  1.89028E+03  1.42785E+04
 -4.57354E+03  1.79235E+04 -1.16230E+04  1.32538E+04 -1.08930E+04 -1.27836E+03 -1.04948E+04 -2.46535E+03
 -6.63893E+03 -2.94643E+03  1.70755E+03  4.77923E+03 -3.23300E+03  2.23045E+03 -6.42914E+03  4.55658E+03
 -1.30718E+04  6.05007E+02 -9.91173E+03 -8.59925E+03 -1.32909E+03 -1.37041E+04  6.15959E+03 -1.07714E+04
  9.56776E+03 -9.64849E+02  8.18147E+03  4.99836E+03  4.50094E+02  2.75965E+03 -4.33605E+03  3.11207E+03
 -7.70279E+03 -5.28929E+03  2.07270E+02 -5.50183E+03  4.59490E+03 -5.76989E+03  8.28612E+03 -3.41088E+03
  9.59270E+03 -1.63314E+03  9.22931E+03  4.55875E+03  3.18714E+03  7.68322E+03 -1.98199E+03  7.84606E+03
 -8.77496E+03  5.99650E+03 -9.09476E+02 -1.63578E+03  5.30090E+01 -5.41147E+03 -6.54893E+01  1.99464E+03
  5.61381E+03  2.18380E+03 -1.20819E+03  3.46928E+03 -6.83599E+03  7.71126E+03 -8.40467E+03 -1.98093E+03
 -8.29770E+03 -7.60291E+03 -2.50832E+03 -7.98945E+03  3.15609E+03 -3.34086E+03  1.51317E+03  1.86989E+03
  3.09757E+03  3.28854E+03 -4.90604E+03  4.58131E+03 -4.75912E+03  1.99384E+03 -4.32979E+03  2.86580E+03
 -6.55734E+02 -9.30621E+03  2.88428E+03 -6.12949E+03  1.02149E+04 -7.87339E+03  9.45660E+03  9.48211E+02
  6.05194E+03  2.91276E+03 -2.30221E+03  6.38636E+03 -1.58004E+03  3.91727E+03 -7.02712E+03 -2.68279E+03
 -1.63318E+03 -1.11420E+04 -2.55956E+03 -5.46521E+03  1.18244E+03 -2.36448E+03  4.59840E+03 -3.54524E+03
  5.83773E+03  3.49337E+02  8.39875E+02  6.58604E+03 -1.07844E+03 -3.44077E+03  1.83742E+03  1.71743E+03
  4.43884E+03 -5.37100E+03  5.03990E+03  2.43022E+02  7.63556E+03  1.26534E+03  6.10945E+03  7.57100E+03
 -4.64851E+03  8.16077E+03 -1.14965E+04  6.83902E+03 -1.00184E+04  1.31997E+03 -1.43513E+04 -3.58133E+03
 -3.43792E+03 -3.23659E+03 -3.17490E+03 -2.71682E+03  2.24589E+03 -2.85407E+03  4.76355E+03 -1.83924E+03
  4.03373E+02  1.74255E+02  1.30754E+03 -6.87916E+02  6.26284E+03 -3.74858E+03  3.64221E+03  3.38893E+03
  4.88986E+03 -1.29523E+03 -2.30015E+03  2.96218E+03 -1.85940E+03  3.03509E+03 -6.08519E+03  4.88602E+03
 -4.84357E+03 -1.44446E+03  7.86311E+02 -1.65593E+03 -1.75293E+03 -4.79122E+03  4.93064E+03 -5.92524E+03
  7.02532E+03 -7.61407E+03  9.31207E+03 -2.49423E+03  8.55623E+03  3.43330E+03  7.10377E+02  6.20460E+03
 -2.37556E+03  8.70098E+03 -3.82201E+03  4.65234E+03 -2.74157E+03 -2.97250E+02 -3.27682E+03  1.63187E+03
  2.49728E+03  4.14625E+01 -7.91903E+01  3.61830E+03 -4.06280E+03  1.17420E+03 -3.76471E+03 -1.68444E+03
 -4.99724E+02 -5.33427E+03  3.02443E+03 -4.76026E+03  3.87539E+03 -4.94839E+03  1.95036E+03 -4.75867E+02
  5.11540E+02  2.42803E+03 -6.72368E+02  8.93570E+02 -8.22489E+02  5.32168E+03  6.24450E+02 -2.23240E+03
 -7.47047E+03  3.11983E+03 -2.50167E+03 -2.76085E+03 -4.00449E+03  2.76504E+02  3.83642E+03 -2.40608E+03
 -3.40552E+02 -6.81561E+02  3.06656E+03 -6.07371E+02 -4.09054E+02 -1.60290E+00  5.08709E+02  1.27313E+03
  2.40317E+03  3.11775E+03  1.63696E+03  3.40330E+03  1.92343E+03  3.57929E+03 -1.93813E+03  1.64620E+03
 -6.39766E+02  3.64965E+03  2.76501E+03  7.51341E+03 -3.90763E+02  4.94934E+03 -2.50073E+03  2.49433E+03
 -5.18568E+03 -1.42369E+03  3.77862E+03 -5.15021E+03 -3.50169E+03 -4.07860E+03  5.94756E+03  3.38638E+01
  2.30914E+03  3.16296E+03  4.62515E+02  4.02726E+03  4.93319E+03 -6.79959E+02 -4.61775E+03 -3.98006E+03
  4.33971E+02 -2.49044E+02  2.20486E+03 -1.38982E+03  2.49562E+03 -1.01683E+03 -1.98395E+03 -1.27595E+03
 -3.37512E+03 -8.50968E+02 -1.61543E+02 -5.45165E+02 -1.27017E+03 -4.04649E+03 -2.67648E+00  2.40290E+03
 -1.32414E+03 -3.17170E+03 -5.92339E+02  2.06634E+03  2.16890E+03  1.55336E+03  5.37177E+03  1.17452E+03
 -7.36332E+03  1.65982E+03  2.33383E+03 -2.46968E+02 -2.52771E+03 -1.94619E+03 -4.13041E+03  5.53615E+02
  2.85900E+02  3.05697E+03  3.57821E+03  1.46071E+03 -3.10080E+02 -1.36217E+03 -1.53940E+03 -1.23236E+03
 -3.96039E+03  1.78141E+03 -7.49444E+02  1.90159E+03 -2.65511E+02 -1.50619E+03 -5.33973E+03 -1.69082E+03
 -2.95173E+03 -2.94812E+03  4.28294E+03 -1.93036E+03  5.08550E+02 -2.28084E+03  2.40401E+03 -3.69427E+03
 -1.25015E+03 -4.51468E+03 -3.82547E+03 -3.85700E+03 -7.43916E+02  3.22482E+03  4.56721E+03 -2.51167E+02
 -1.21019E+03 -1.10410E+03 -2.73858E+02 -2.62390E+03  1.59976E+03  1.73564E+02 -1.84298E+03  1.35114E+03
 -3.77540E+03  6.72086E+03 -2.70118E+03 -7.88375E+02 -9.47960E+02 -4.03803E+03  1.45867E+03  1.77206E+03
  3.39363E+03 -3.70708E+03  3.15589E+03  8.38183E+02  1.94443E+03 -2.86672E+03  1.85536E+03  4.10564E+02
  1.56776E+03  4.47549E+02  1.01040E+03 -1.22014E+03 -2.52232E+03  3.74604E+03  2.18939E+02  3.61008E+03
 -7.66320E+02  2.59962E+03 -1.56197E+03  2.25900E+03 -6.98876E+03 -1.20161E+03 -4.96706E+03 -1.99850E+03
 -1.22191E+03  1.71611E+03 -1.63582E+02 -4.87560E+03 -1.77778E+02 -1.46802E+03  1.10130E+02  3.01167E+03
 -4.85784E+02  4.44332E+03  1.46372E+03  2.00630E+02  1.49555E+03  6.28726E+03  3.22218E+02  3.25729E+03
 -2.92054E+03  3.42599E+02 -1.04929E+03  3.90926E+03  2.34957E+02  4.31544E+03 -1.91325E+03 -3.44976E+03
  5.96997E+02  2.50709E+03 -1.76719E+03 -5.28272E+03 -9.65036E+02 -7.90795E+02 -1.61506E+03  2.33150E+02
  1.23865E+02 -2.17372E+03  3.86760E+02  1.92724E+03  1.29260E+03  2.51749E+03 -1.60199E+03  3.98730E+03
  5.32910E+02  9.90589E+02 -4.59924E+02  1.55170E+03 -3.35934E+03 -1.96626E+03  5.07096E+02  3.98118E+02
 -2.03102E+03 -9.62286E+02 -2.51688E+03 -5.43238E+03 -3.88646E+03  6.50273E+02 -1.13804E+03  6.63570E+02
 -1.85328E+03  1.27336E+03  5.06808E+03  2.41538E+03 -4.23434E+03 -1.74396E+03  3.59136E+03  5.25820E+03
 -6.58635E+01  6.29568E+02 -2.88484E+03  1.55809E+03 -8.28074E+02  2.80990E+01  1.52495E+03  4.44375E+03
  4.35360E+03  2.73582E+03 -3.42839E+02  4.72054E+03 -8.30800E+01  1.24064E+03  1.00902E+03 -1.53836E+03
  7.03297E+01  1.44914E+02  3.13304E+03 -2.50299E+03  3.02404E+03  3.19779E+02 -2.79576E+03 -2.42974E+03
  4.31859E+03 -3.21286E+02  4.49990E+03 -1.23374E+03 -4.08211E+03 -1.25949E+03 -7.09062E+02 -1.80796E+02
  2.19757E+02  8.48710E+00 -4.00132E+02 -1.39467E+02  2.33211E+03 -3.65526E+03 -4.27887E-01 -2.16452E+02
 -1.03573E+03  1.51890E+03 -4.76307E+03  3.26985E+03 -8.92576E+02  1.25783E+03 -8.65525E+02  1.86324E+03
 -3.13711E+03 -2.59676E+03  6.29892E+02  9.05090E+02 -1.07555E+03 -1.02644E+03  3.79690E+01  2.24482E+03
