 $NMID ID='MM_0lb_SNR50_12hz_g60_3.RAW', FMTDAT='(8E13.5)'
 TRAMP=1., VOLUME=1. $END
  3.09318E+05  3.75030E+02  3.42749E+05  2.46103E+05  7.98511E+04  3.39099E+05 -1.40474E+05  2.50240E+05
 -1.90263E+05  8.48047E+04 -1.08239E+05 -3.09851E+04 -2.42467E+02 -4.89631E+04  5.75020E+04 -7.51517E+02
  3.69630E+04  5.44464E+04 -1.66593E+04  7.88768E+04 -6.17786E+04  6.70574E+04 -8.18999E+04  3.10774E+04
 -8.29903E+04 -1.32849E+04 -5.84715E+04 -5.59414E+04 -1.26542E+04 -7.22685E+04  3.15282E+04 -4.96048E+04
  3.92757E+04 -2.99063E+02  1.89001E+04  4.96116E+04 -3.25620E+04  4.80255E+04 -6.62189E+04  8.00229E+02
 -5.89872E+04 -5.96107E+04 -1.14495E+04 -7.80024E+04  3.54843E+04 -5.23453E+04  5.48420E+04 -1.44292E+04
  4.42911E+04  1.15046E+04  3.71388E+04  2.91455E+04  1.77455E+04  2.32437E+04 -1.25228E+04  3.02749E+04
 -2.29016E+04  1.29507E+04 -1.46863E+04 -4.83291E+03  6.74873E+03 -5.41330E+03  2.70260E+04  1.21734E+04
  6.35591E+03  3.37998E+04 -3.47262E+04  3.94092E+04 -6.15134E+04  7.10246E+02 -5.46102E+04 -4.28364E+04
 -9.28305E+03 -6.13848E+04  4.11603E+04 -4.61876E+04  5.91247E+04  2.00972E+02  3.74633E+04  2.92877E+04
 -5.66944E+03  4.39143E+04 -2.82261E+04  2.08514E+04 -3.12996E+04 -7.94359E+03 -2.10800E+04 -1.15632E+04
 -9.93860E+03 -7.71076E+03  3.41985E+03 -1.85642E+04  8.74588E+03 -2.14145E+04  1.15170E+04 -1.29997E+04
  3.01464E+03  8.53115E+03 -8.58057E+03  1.48733E+04 -2.56006E+04 -1.14536E+04 -9.45544E+03 -3.64428E+04
  2.31068E+04 -4.43190E+04  5.07501E+04 -2.40886E+04  4.66947E+04  1.30719E+04  1.47859E+04  4.84467E+04
 -1.08699E+04  3.15054E+04 -2.10195E+04  1.79000E+03 -1.77832E+04 -2.32682E+04  2.27840E+04 -3.59238E+04
  4.12722E+04 -6.96647E+03  4.00293E+04  2.69636E+04  1.94820E+04  5.00525E+04 -8.23247E+03  5.13570E+04
 -3.71944E+04  3.25249E+04 -4.88862E+04  9.59889E+03 -4.57072E+04 -1.99958E+04 -2.88731E+04 -4.35000E+04
  6.40067E+03 -4.24490E+04  3.94097E+04 -1.37784E+04  2.99179E+04  9.55730E+03 -1.83024E+03  1.87710E+04
 -1.24746E+04  1.13916E+04 -6.95260E+03 -3.26132E+03  7.31318E+03 -1.04835E+04  1.53959E+04  1.09451E+04
  1.46751E+04  2.38102E+04 -5.48443E+03  2.68411E+04 -1.82296E+04  1.17364E+04 -3.34517E+04 -2.19479E+03
 -2.30884E+04 -2.05305E+04 -9.88176E+03 -2.55592E+04  5.99232E+03 -1.94932E+04  2.12883E+04 -3.02139E+04
  2.92780E+04 -1.14282E+04  3.22057E+04  2.88013E+03  2.56891E+04  2.26702E+04  7.47785E+03  4.49387E+04
 -2.09751E+04  3.02364E+04 -2.68112E+04  9.12977E+03 -2.38256E+04 -1.33331E+04 -4.85607E+03 -1.34137E+04
  4.17885E+03  8.01986E+02 -7.78851E+03  8.40691E+03 -2.23136E+04  5.71855E+03 -1.95210E+04 -1.30910E+04
 -9.06754E+03 -2.71151E+04  5.12943E+03 -2.79410E+04  2.26079E+04 -1.96965E+04  1.95647E+04 -8.87596E+03
  1.29760E+04  1.22464E+04  1.93610E+03  2.70080E+04 -1.84885E+04  1.66382E+04 -2.43192E+04  1.34822E+03
 -1.46522E+04 -2.34324E+04  2.42513E+03 -2.22502E+04  1.16275E+04 -2.10257E+04  1.90700E+04 -1.15962E+04
  1.96958E+04  6.95406E+02  1.45700E+04  2.76889E+03  1.35522E+04  1.28841E+02  9.89970E+03 -8.13683E+01
  1.65235E+04  1.79436E+03  2.57548E+04  1.98116E+04  1.83311E+04  3.42958E+04  3.58510E+03  4.74968E+04
 -2.11062E+04  3.32527E+04 -3.53404E+04  2.29209E+04 -4.04729E+04 -2.26518E+03 -3.16061E+04 -1.81206E+04
 -7.57615E+03 -3.30393E+04  1.44306E+04 -3.42404E+04  2.56645E+04 -1.51185E+04  2.14076E+04  9.94770E+03
  6.79437E+03  1.39157E+04 -9.93952E+03  1.34945E+04 -1.74591E+04  5.20782E+03 -1.48317E+04 -1.65000E+04
 -5.12282E+03 -1.61516E+04  1.26323E+04 -1.05438E+04  1.28609E+04 -4.31504E+02  4.23363E+03  8.31425E+03
 -8.56305E+03  9.30190E+02 -1.07427E+04 -2.03855E+03 -6.42616E+02 -2.19633E+04  9.69491E+03 -2.00486E+04
  2.06567E+04 -8.45753E+03  2.46396E+04 -6.33683E+02  2.53929E+04  1.62155E+04  1.16361E+04  2.74881E+04
 -4.56083E+03  2.87558E+04 -2.27008E+04  1.77590E+04 -1.75096E+04  7.19373E+03 -1.33632E+04 -8.24024E+03
 -3.60534E+03 -5.42955E+03 -2.53147E+03 -1.82608E+03 -2.41208E+03  7.95033E+03 -6.66245E+03  2.83275E+03
 -9.78752E+03  1.25103E+03 -1.43594E+04 -1.12444E+04 -5.67263E+03 -2.18300E+04  2.46170E+03 -1.19941E+04
  9.22444E+03 -9.40910E+03  4.75007E+03  4.81959E+03  1.13012E+01  4.25019E+03 -3.88599E+03  1.96539E+03
 -7.00283E+03 -1.09720E+04 -1.66179E+02 -1.18620E+04  9.61845E+03 -1.64343E+04  1.81055E+04 -9.48127E+03
  2.45062E+04  1.66809E+03  1.42394E+04  1.18592E+04  3.22740E+02  1.65630E+04 -1.16703E+04  1.61240E+04
 -5.77058E+03  3.91658E+03 -7.18032E+03 -1.82605E+03  3.41468E+03 -4.19462E+03  8.52030E+03 -1.75486E+03
  1.01202E+03  2.84055E+03  5.30484E+03  1.28741E+04 -8.64681E+03  1.29360E+04 -1.32235E+04  6.37522E+01
 -3.89283E+03 -9.75112E+03  5.05618E+03 -9.78680E+03  9.07503E+03 -8.36635E+02  1.16065E+04  1.02783E+03
  1.93794E+03  6.04995E+03 -6.49865E+03  1.17201E+04 -1.19489E+04 -3.95377E+03 -7.29208E+03 -3.57206E+03
 -7.87850E+03 -1.86884E+04 -1.13044E+03 -1.31532E+04  1.09853E+04 -1.43066E+04  1.75015E+04 -3.45149E+03
  5.91076E+03  1.04765E+04 -2.16801E+03  9.38996E+03 -1.39647E+04  9.40201E+03 -1.21112E+04  1.30652E+03
 -1.32914E+04 -5.12950E+03 -9.02014E+03 -5.68265E+03  2.79888E+03 -4.03879E+03  1.11429E+04 -1.50792E+03
  6.85943E+03  1.25183E+03 -4.79406E+01  3.00912E+03 -2.97831E+02 -4.70492E+03  4.41680E+03 -7.35249E+03
  8.98853E+03 -5.09449E+03  1.36945E+04  4.38991E+03  1.14958E+04  7.26942E+03  7.26639E+03  1.67506E+04
 -4.85113E+03  1.72724E+04 -1.48502E+04  2.17811E+04 -2.03726E+04  4.67697E+03 -1.20292E+04 -1.09163E+03
 -7.43955E+03 -1.60700E+04  3.48155E+03 -1.02943E+04  5.84446E+03 -9.78117E+03 -2.49453E+03 -5.54850E+03
  3.13734E+03 -1.82083E+03  1.05120E+03 -6.27520E+03  8.13241E+03 -2.22514E+02  1.05764E+04  2.15607E+03
  1.44021E+04  4.34504E+03  4.17761E+03  6.64158E+03 -6.01805E+03  1.07035E+04 -6.70909E+03  6.05934E+03
 -1.48207E+04 -4.38368E+03 -9.52799E+03 -3.47051E+03 -2.79736E+03 -1.21605E+04  1.03313E+04 -1.15274E+04
  1.07685E+04 -6.46675E+03  1.44755E+04  2.74864E+03  1.18833E+04  1.21735E+04  2.19743E+03  1.75377E+04
 -8.44075E+03  9.70612E+03 -3.70225E+03  6.02206E+03 -4.65517E+03  1.60755E+03  3.26278E+02 -4.06956E+03
  4.31308E+02 -3.56855E+03 -3.33404E+03  1.74783E+03 -6.88572E+03 -4.66626E+02 -5.96038E+03 -9.86603E+02
 -2.15219E+03 -1.26612E+04  1.77692E+03 -6.17196E+03  9.30273E+03 -1.90700E+04  9.87590E+03  7.72474E+01
  1.14730E+04  8.18776E+03  5.70864E+03  1.49155E+04 -3.37517E+03  1.66400E+04 -7.69099E+03  4.67348E+03
 -1.15785E+04  3.09482E+03 -3.98948E+03  1.28600E+03 -3.61820E+03 -1.25161E+04  5.75648E+03 -1.10772E+04
  4.44753E+03 -6.08950E+03  1.03226E+03  5.66793E+02 -1.42655E+02  5.85291E+03  6.87396E+03 -2.66530E+03
  8.62337E+03  1.84041E+03  3.84076E+03  1.41399E+03  2.34688E+03  4.74351E+03  6.67657E+03  7.73526E+03
 -3.19773E+03  6.26946E+03 -5.57753E+03  6.41053E+03 -9.76423E+03 -3.78686E+03 -1.11196E+04 -4.17334E+03
 -8.33433E+03 -1.19693E+04 -1.42725E+02 -1.03430E+04  4.98094E+03 -1.13039E+04  6.89972E+03 -2.68668E+03
  1.07749E+04  2.65825E+03 -6.38510E+02  3.29608E+03  1.74224E+03  3.20815E+03 -5.93598E+03 -6.93554E+02
 -1.14297E+03 -8.70763E+03 -2.61845E+03 -6.96664E+03  6.05565E+03 -4.77027E+03  2.36277E+03 -2.39975E+03
  9.70916E+02 -2.83928E+03 -3.67137E+03 -4.65324E+02  1.10249E+03  2.82614E+03  6.54696E+02  5.35322E+03
 -3.19419E+03 -3.47891E+03  5.74167E+03  6.81013E+02  2.31060E+03  3.58820E+03 -6.09380E+03  7.02426E+03
 -3.37845E+03  2.16512E+03  2.78708E+02  2.08581E+03 -7.07184E+03  5.80315E+03 -4.60747E+03 -9.38517E+02
  4.67779E+03 -4.21520E+03  5.18529E+03 -1.58629E+03  1.39871E+03  4.07596E+03 -2.90635E+02 -3.83623E+03
 -6.46137E+03 -1.09121E+03 -5.65477E+03 -2.22024E+03 -2.72731E+03 -4.69550E+03 -5.58889E+03 -7.70501E+03
  1.91184E+03 -5.64254E+03  9.96067E+03  3.95193E+03  5.80543E+03  2.57837E+02  3.01714E+03  4.19915E+03
 -8.05118E+03  1.57100E+03 -9.33814E+03  1.78026E+03 -4.07185E+03 -6.27280E+03  8.08421E+03  2.34363E+03
  4.09711E+03 -1.50976E+03  5.13224E+03  1.00846E+04  5.86400E+02  1.00015E+04 -2.25943E+03  3.83254E+03
 -3.88846E+03  5.88194E+03  1.40749E+03  9.71565E+02 -6.29838E+03 -4.78384E+03  6.43491E+03 -9.68177E+03
  9.29166E+03 -6.22638E+03  3.89433E+03  4.87168E+03 -2.06530E+03  5.23154E+03 -3.05165E+03  6.24347E+03
 -3.95223E+03  8.45685E+03  1.20620E+03 -4.14609E+03  5.80433E+03  5.24770E+03 -7.97926E+02  5.86963E+03
 -3.35666E+03  2.33991E+03  1.29131E+03  9.22450E+02 -5.56257E+03  3.33362E+02 -4.42277E+03 -1.22544E+04
 -5.32252E+03 -1.48917E+04 -2.27969E+03 -1.30448E+04  9.27907E+03 -1.45053E+03  6.83723E+03 -6.00600E+02
  7.04734E+03  2.42452E+03  7.38778E+03  3.25109E+03 -1.26737E+03  9.16319E+03  5.63650E+02  9.48057E+02
 -6.57807E+03 -6.50894E+02 -3.49163E+03 -2.23075E+03 -2.03555E+03 -4.89305E+03  5.36033E+03  3.82644E+03
  1.94715E+03 -1.41407E+03 -8.31390E+02 -1.22410E+03  5.26262E+02 -4.25897E+03 -2.59485E+03 -1.45924E+03
  5.15503E+03  3.79374E+03  5.41039E+03 -4.56808E+01  1.96740E+03  2.55392E+03  1.29671E+03  8.13334E+03
  3.99321E+03  2.23488E+03 -1.10544E+04  5.51130E+03 -6.22898E+03 -6.70708E+02 -8.01816E+03 -3.90944E+03
  7.92914E+03 -9.04528E+03 -2.83902E+03 -4.31610E+03  7.72434E+03 -5.66831E+03  1.08797E+04 -2.44603E+03
  9.84291E+03  5.03158E+03 -2.13839E+03  1.07866E+03 -1.95379E+03 -9.83272E+02 -1.80885E+03 -6.08667E+03
 -5.36530E+03  1.97535E+03 -3.99232E+02 -3.47775E+03  1.99051E+03  3.13908E+03  4.71493E+03  4.51587E+03
 -2.24653E+02  3.58326E+03 -3.05590E+03 -9.11334E+03 -2.72808E+01 -6.54108E+03  1.07849E+03 -3.65943E+03
  2.45796E+03 -1.50808E+03  5.53441E+03 -1.15710E+03  7.44279E+03  1.26986E+03  4.60525E+03  4.74728E+03
  9.82109E+02  5.38647E+03 -5.67712E+03  9.64579E+01 -5.26721E+03  7.86253E+02  6.04572E+02 -3.65577E+03
  9.05510E+01  4.33498E+02  9.19921E+02  7.06162E+02 -1.09016E+02 -3.09650E+03 -5.28411E+03 -1.89640E+03
 -7.18179E+03 -4.27939E+03 -1.63661E+03  5.93955E+01  5.73858E+03 -4.52908E+03  2.31688E+03 -2.35810E+03
  3.50020E+03  1.60832E+03 -1.33469E+03 -2.24960E+02  2.23193E+03  1.03680E+04 -5.25930E+03  5.03150E+03
