 $NMID ID='MM_0lb_SNR50_20hz_g55_6.RAW', FMTDAT='(8E13.5)'
 TRAMP=1., VOLUME=1. $END
  3.13428E+05  2.05453E+03  3.34339E+05  2.52800E+05  8.70006E+04  3.33246E+05 -1.34591E+05  2.49918E+05
 -1.93610E+05  8.22889E+04 -1.11487E+05 -2.98869E+04 -2.81168E+03 -4.62593E+04  5.16899E+04 -1.14372E+03
  3.63965E+04  5.48854E+04 -1.76339E+04  7.88468E+04 -6.49244E+04  6.41260E+04 -7.85341E+04  3.06143E+04
 -7.80300E+04 -1.32074E+04 -5.59859E+04 -5.44547E+04 -1.67634E+04 -6.97925E+04  2.44893E+04 -4.25964E+04
  3.60727E+04  5.27622E+03  1.21258E+04  4.92219E+04 -3.41503E+04  4.96850E+04 -6.29245E+04 -3.00639E+03
 -5.24718E+04 -5.77822E+04 -1.11327E+03 -7.69276E+04  3.68521E+04 -5.60440E+04  4.62485E+04 -1.71092E+04
  4.60511E+04  8.87162E+03  3.12985E+04  2.48038E+04  2.02654E+04  2.49778E+04 -2.29404E+03  2.68699E+04
 -1.65833E+04  1.26591E+04 -1.87064E+04 -4.47950E+03  5.14157E+03 -9.04274E+03  1.67342E+04  5.95394E+03
  7.66243E+03  2.94879E+04 -2.91679E+04  3.09266E+04 -5.67412E+04  3.56519E+03 -5.18830E+04 -4.37427E+04
 -1.28490E+04 -6.23867E+04  3.75450E+04 -4.20641E+04  5.60911E+04 -6.95238E+02  3.26104E+04  2.55461E+04
 -1.02424E+04  3.51704E+04 -2.93482E+04  1.05508E+04 -3.33541E+04 -6.57993E+03 -1.53777E+04 -1.37575E+04
 -1.00445E+04 -1.02735E+04  3.68167E+03 -1.86512E+04  5.37699E+03 -2.25003E+04  1.55813E+04 -1.15659E+04
  1.38200E+04  3.68227E+03 -8.30029E+03  1.05432E+04 -1.77716E+04 -3.72675E+03 -9.58220E+03 -3.01233E+04
  2.20497E+04 -4.14983E+04  4.38392E+04 -1.87061E+04  4.26357E+04  1.89113E+04  1.12591E+04  3.92951E+04
 -1.78639E+04  3.45878E+04 -2.38993E+04  1.21143E+03 -9.47123E+03 -2.89584E+04  2.03155E+04 -3.32851E+04
  3.79262E+04 -7.54766E+03  2.98522E+04  2.34362E+04  1.59939E+04  4.48967E+04 -9.71062E+03  4.59975E+04
 -2.80121E+04  2.87279E+04 -3.77013E+04  9.40577E+03 -3.97806E+04 -1.70582E+04 -2.04595E+04 -3.42659E+04
  5.01445E+03 -3.38157E+04  3.12647E+04 -1.43018E+04  2.35065E+04  9.80500E+03  2.75455E+02  1.49527E+04
 -1.11355E+04  5.21604E+03 -1.33765E+04 -4.89720E+03  7.82563E+03 -4.73009E+03  1.55685E+04  6.27431E+03
  1.27405E+04  2.30557E+04 -5.44157E+03  1.99486E+04 -2.53318E+04  1.38495E+04 -2.73545E+04 -4.75421E+03
 -1.93268E+04 -1.28952E+04 -5.62648E+03 -1.34586E+04  4.56610E+02 -1.38784E+04  1.20300E+04 -1.22114E+04
  1.70492E+04 -1.27940E+04  2.88561E+04  6.11809E+03  2.07067E+04  1.59806E+04  3.04769E+01  3.22301E+04
 -1.37840E+04  2.94647E+04 -2.43755E+04  8.66785E+03 -1.82535E+04 -8.21632E+03 -3.59809E+03 -1.16380E+04
 -1.32143E+03 -5.63567E+03 -5.30308E+03  3.38983E+03 -1.60632E+04  8.87354E+03 -1.76287E+04 -5.08562E+03
 -9.76198E+03 -1.63350E+04  7.16697E+03 -1.72166E+04  1.36253E+04 -1.14384E+04  9.46718E+03  7.78788E+02
  1.01961E+04  1.13176E+04  2.44129E+03  1.71621E+04 -1.22756E+04  9.55607E+03 -1.45623E+04 -3.77098E+03
 -1.18414E+04 -1.38881E+04 -1.50988E+03 -2.03092E+04  8.57569E+03 -1.65518E+04  1.38738E+04 -1.51915E+03
  1.41554E+04  3.57735E+02  1.20849E+04  2.90894E+03  9.87948E+03  9.06363E+02  3.41441E+03 -2.38066E+02
  1.14752E+04  6.65444E+03  1.52066E+04  9.11147E+03  1.10210E+04  2.49676E+04 -4.06907E+03  2.47062E+04
 -1.58412E+04  1.84589E+04 -2.60960E+04  7.72613E+03 -2.35390E+04  6.44000E+03 -2.46390E+04 -1.47004E+04
 -7.11438E+03 -2.10065E+04  9.05876E+03 -1.84405E+04  1.61865E+04 -6.59812E+03  1.47270E+04  2.63618E+03
  3.30286E+03  1.40469E+04 -8.27380E+03  1.09034E+04 -1.48638E+04  4.21380E+03 -8.19970E+03 -7.46576E+02
 -5.32538E+01 -1.19117E+04  1.22945E+04 -1.36766E+04  8.82928E+03 -1.47654E+03  3.27087E+03  2.42947E+03
 -5.35649E+03  3.15899E+03 -2.82572E+02 -2.99384E+03 -5.68823E+02 -7.19707E+03  6.42854E+03 -1.45086E+04
  1.45106E+04 -1.28995E+03  1.02783E+04  1.24527E+03  1.00505E+04  6.90745E+03  3.42634E+03  1.73831E+04
 -9.15173E+02  1.27040E+04 -1.03060E+04  1.29615E+04 -9.44322E+03  4.97695E+02 -8.68076E+03  3.00638E+03
 -4.14826E+03 -2.43892E+03  1.99686E+03  1.39385E+03 -6.98860E+03 -2.36001E+03 -2.29045E+03  6.00814E+03
 -7.83357E+03  2.95200E+03 -9.18298E+03 -7.36084E+03 -4.23363E+03 -1.07225E+04  1.76291E+03 -1.02010E+04
  8.26109E+03 -5.63819E+03  3.63328E+03 -1.03080E+03  6.23443E+02  6.22777E+03 -2.07125E+03 -2.79299E+03
 -6.58043E+02 -1.70681E+03 -2.46488E+03 -1.09370E+04  1.26792E+03 -1.01058E+04  1.05544E+04 -4.32747E+03
  9.58522E+03 -4.94617E+00  1.07606E+04  3.18906E+03  1.39560E+03  6.19429E+03 -6.45327E+03  7.84400E+03
 -9.78730E+03  1.57688E+03 -1.15421E+03  7.67680E+02  6.33848E+01 -3.32555E+02  3.57766E+03 -7.06821E+03
  8.57310E+03  3.57375E+03  1.89477E+03  5.97187E+03 -3.11492E+03  8.49446E+03 -5.67626E+03  2.24900E+03
 -4.45643E+03 -1.14040E+03  2.22250E+03 -1.59839E+03  2.72453E+03 -5.82012E+02  5.03907E+03  1.72413E+03
  8.73356E+01 -6.05027E+02 -3.17079E+03  3.52964E+03 -2.79177E+03  6.32871E+03 -4.01243E+03  1.00788E+03
 -3.44163E+03 -8.24465E+03  7.12498E+02 -3.98486E+03  5.64184E+03 -4.07313E+03  2.55728E+03  5.95889E+03
  2.34158E+03  6.87382E+03 -3.79174E+03  4.86597E+03 -2.04497E+03  1.33833E+03 -1.76926E+03  1.52443E+03
 -9.24811E+03 -5.35459E+03 -2.77246E+03 -7.74637E+03  3.82360E+03 -2.61682E+03  1.32113E+03 -2.17305E+03
  3.08757E+03 -2.43104E+03 -4.33633E+03  2.94922E+03 -2.92257E+03 -1.05323E+03  1.71348E+02 -1.15328E+03
  3.62540E+03  1.14770E+03  1.76386E+03 -1.65404E+03  4.62455E+03  2.75176E+03  3.15987E+03  9.19680E+03
 -3.82224E+03  3.32743E+03 -7.33593E+03  2.68594E+03 -9.49828E+03 -8.30654E+02 -2.86295E+03 -9.93850E+02
 -1.51698E+03 -6.71534E+03 -1.91421E+02 -4.47789E+03  8.02580E+02 -1.45884E+03  3.04946E+03 -4.42877E+03
  6.06119E+03  1.82921E+03 -1.42058E+03 -1.46185E+03  5.01080E+03 -3.53854E+03  3.78232E+03  1.72636E+03
  4.71752E+03 -1.58740E+02  1.51040E+03 -1.23962E+03 -1.33616E+03  1.67510E+03 -3.81681E+03  1.73214E+03
 -5.71466E+03 -4.44804E+02  1.54729E+03 -1.52399E+03  7.30815E+02 -3.75045E+03  4.57697E+03 -3.00852E+03
  5.54445E+03 -1.67152E+03  1.07659E+04  1.62557E+03  3.52862E+03  7.30038E+02  2.02020E+03  8.29917E+03
 -3.21281E+03  6.09910E+03 -5.22042E+02  4.94609E+02 -2.28911E+03 -8.09917E+02  3.30882E+03 -3.24162E+03
 -1.07963E+03  1.44049E+02  4.23240E+02  5.06118E+02 -6.40001E+03 -2.99347E+03 -3.01920E+03  4.17575E+03
 -3.20142E+03 -6.26814E+03 -6.67947E+00 -5.39522E+03  1.75847E+03 -3.90152E+03 -1.12264E+03  6.18561E+03
  1.00989E+03 -1.95297E+02  3.14732E+03  4.40457E+03 -6.29605E+02  4.61271E+03 -2.75513E+02  2.29524E+03
 -3.12941E+03 -1.07961E+03 -4.35221E+03 -3.38879E+03  2.11836E+03 -2.19143E+03 -5.98628E+02 -2.42828E+03
  1.77647E+03 -2.79972E+03  3.15169E+03  1.75390E+03  1.08836E+03  2.94717E+03  5.63384E+01 -4.41832E+03
  2.29206E+03  3.02889E+03  1.18887E+03 -6.82936E+01  2.80750E+03 -6.50569E+02 -9.78236E+01  2.57064E+03
 -2.53387E+03  4.03276E+03 -3.06728E+03  2.60851E+03 -2.79055E+03 -1.44473E+03 -1.27600E+03  1.81892E+03
  2.05703E+03  1.02299E+03  2.70348E+03 -4.16901E+03  1.04320E+03 -4.04580E+03  1.38915E+03  6.23313E+02
  3.39674E+03 -2.81897E+03  1.22380E+03  2.88761E+03  1.39699E+03  8.12653E+02 -1.03648E+02  3.15856E+02
  1.15440E+03 -4.79164E+03  3.01587E+02  1.39995E+03 -3.44627E+03 -6.89535E+02  4.63227E+03 -1.13587E+03
  3.11053E+03  4.53648E+01  4.10693E+03 -1.19018E+03  1.03257E+03 -7.74174E+00  6.69600E+02  1.66857E+03
  3.25566E+01  1.23734E+03  1.36862E+03  2.70745E+03  3.81516E+03  1.41690E+03 -9.60286E+02  5.74613E+03
 -1.57057E+03  2.56926E+03  2.51836E+03 -1.82953E+03  6.31506E+02 -1.56061E+03  1.81867E+03 -1.30552E+02
 -2.40588E+02 -2.96949E+03 -7.80528E+02 -2.53315E+03  4.14411E+03  4.76342E+03 -2.67881E+03  4.86740E+03
  2.15007E+03  1.13877E+03 -7.57259E+02  1.96908E+02 -4.50802E+03  8.83318E+02  1.21035E+03 -6.02889E+00
  1.47024E+03 -2.23197E+03  4.05087E+03  5.60897E+02 -9.51882E+02 -2.47586E+03 -3.86473E+03 -2.08848E+03
  1.19533E+03  2.05587E+03 -1.72385E+03 -2.50079E+02  2.76569E+03 -5.10174E+02  9.75768E+02  3.51960E+02
  4.71987E+02  3.03589E+02 -1.03960E+03 -2.13436E+03  1.03429E+02  1.76472E+03 -1.51068E+03  7.75101E+02
  1.34727E+03 -1.65421E+03 -1.82202E+02 -6.47648E+03  3.08457E+03  2.56053E+02 -1.35557E+03  3.82060E+02
  9.72575E+02 -2.63642E+03 -1.62826E+03  3.83517E+03 -4.09217E+02 -2.53043E+02  6.58569E+03  2.55074E+02
 -2.87134E+02 -2.92211E+03 -2.03788E+02  3.75829E+03 -1.04735E+03 -3.47841E+03  1.13119E+03 -5.27710E+02
  1.44094E+03  1.97210E+03 -3.67505E+03 -1.61283E+03 -1.47708E+03  2.44865E+03 -2.94863E+03 -1.09259E+03
  1.50971E+03 -1.87903E+03 -3.57418E+03 -1.57507E+03 -4.60432E+03 -4.73770E+02  6.31955E+03  1.47821E+03
  4.16802E+03  3.64826E+03  5.75115E+02  1.89125E+03 -8.98951E+02  2.42558E+03 -6.47342E+02 -2.59900E+03
 -1.56902E+03  7.76976E+02 -3.78719E+00 -3.19281E+02  2.34810E+03  3.77224E+03 -9.50905E+02 -2.53447E+03
  9.84293E+01  3.09675E+03  1.57332E+03 -7.43929E+02  2.43347E+02 -9.57136E+02 -8.07968E+02 -6.74801E+02
  8.88043E+01 -3.44239E+03 -1.43817E+02  1.72880E+03 -1.07935E+03 -8.65201E+02 -2.46379E+03 -6.71537E+02
 -2.07363E+03  2.90803E+03  1.90865E+03  1.98081E+03 -5.42113E+03  1.63258E+03  2.64493E+02 -1.39809E+03
 -5.09760E+02 -2.19890E+02  6.92193E+02  3.40005E+03 -3.41836E+03 -9.73624E+02  1.48733E+03 -1.22023E+03
 -6.61817E+02 -2.71986E+03 -5.31254E+03 -3.52249E+02  3.58814E+03 -1.00076E+03  1.12870E+02 -5.38985E+02
  2.41722E+03 -1.19923E+02 -6.50522E+02  9.49358E+02 -2.07018E+03 -1.37315E+02  2.25008E+03 -2.34289E+03
 -1.29455E+03 -4.46271E+03  5.36717E+01 -6.00287E+03  1.40699E+02 -1.60001E+03 -1.00185E+03 -2.65886E+03
  2.63657E+03 -1.82323E+03 -3.30519E+02 -1.89584E+03  3.62040E+03 -5.54203E+02  9.67670E+02  1.24387E+03
  7.93347E+02 -8.24661E+02 -3.62564E+03  8.06229E+02  2.31746E+03  3.63741E+03  2.09934E+03 -1.58277E+03
  1.89647E+03  1.56770E+03  1.11990E+03 -1.51436E+00 -2.98719E+03 -2.29942E+03  3.70190E+03 -2.75836E+03
  1.88454E+03 -5.30465E+03 -3.03048E+03  1.92899E+03  1.95231E+03  2.13025E+03 -4.40541E+03 -1.42597E+03
 -1.72242E+03 -2.65478E+02 -3.11773E+03 -7.85637E+02 -7.61374E+02 -2.78351E+03  1.58070E+03 -3.30183E+03
