 $NMID ID='MM_0lb_SNR50_12hz_g40_53.RAW', FMTDAT='(8E13.5)'
 TRAMP=1., VOLUME=1. $END
  3.12847E+05  1.99432E+03  3.35628E+05  2.49319E+05  8.30621E+04  3.36187E+05 -1.29746E+05  2.51614E+05
 -1.88919E+05  8.88015E+04 -1.12418E+05 -2.90185E+04  2.89219E+03 -4.54252E+04  5.53708E+04 -7.41268E+01
  3.55924E+04  5.03203E+04 -1.87827E+04  8.06361E+04 -6.16543E+04  6.12190E+04 -7.84810E+04  3.44580E+04
 -7.98826E+04 -9.78131E+03 -5.84771E+04 -5.24416E+04 -9.44131E+03 -7.41465E+04  2.54756E+04 -4.57541E+04
  3.89264E+04 -6.31217E+02  1.09385E+04  4.84713E+04 -3.48604E+04  4.59476E+04 -6.90283E+04  2.54240E+03
 -5.28765E+04 -6.16720E+04 -9.15569E+03 -7.59465E+04  3.29604E+04 -5.68089E+04  4.65213E+04 -1.87123E+04
  4.13326E+04  1.17675E+04  3.42173E+04  2.60584E+04  1.66453E+04  2.40621E+04 -5.22991E+03  3.27885E+04
 -1.80919E+04  1.81069E+04 -1.88871E+04 -6.03858E+03  5.36847E+03 -3.24052E+03  2.24395E+04  4.92272E+03
  3.13648E+03  3.28180E+04 -3.25055E+04  3.70829E+04 -6.67904E+04  3.14073E+03 -5.56740E+04 -4.00977E+04
 -1.38190E+04 -6.31341E+04  4.02204E+04 -4.71602E+04  6.10397E+04  1.81868E+03  3.66727E+04  3.34319E+04
 -5.81760E+02  3.33350E+04 -2.92695E+04  2.13470E+04 -2.34020E+04 -4.22009E+03 -1.61228E+04 -1.16591E+04
 -2.85025E+03 -1.09218E+04  1.36245E+02 -2.38218E+04  9.76933E+03 -2.46602E+04  1.49037E+04 -9.23253E+03
  1.62356E+04  3.29643E+02 -8.96578E+03  1.17352E+04 -1.94528E+04  1.89811E+02 -7.99082E+03 -3.14810E+04
  2.23553E+04 -4.31230E+04  5.06022E+04 -1.81154E+04  4.97693E+04  2.33845E+04  1.97117E+04  4.74175E+04
 -2.29661E+04  3.58860E+04 -2.88895E+04  1.37042E+03 -1.48698E+04 -3.47618E+04  2.37718E+04 -3.59809E+04
  4.02715E+04 -6.47326E+03  4.04755E+04  1.89011E+04  1.94378E+04  4.79823E+04 -6.62030E+03  4.99808E+04
 -2.71313E+04  3.39620E+04 -4.60819E+04  6.86220E+03 -4.02176E+04 -1.44620E+04 -2.70899E+04 -3.83704E+04
  1.06964E+04 -3.74767E+04  3.19720E+04 -7.11312E+03  2.80175E+04  1.18686E+04  6.20434E+03  1.89506E+04
 -1.58837E+04  8.56925E+03 -1.44463E+04 -2.46651E+03  8.69998E+03 -1.10172E+04  2.18120E+04  4.55178E+03
  1.30461E+04  1.89310E+04 -6.20705E+03  2.62822E+04 -1.78037E+04  9.23325E+03 -2.80498E+04 -4.68274E+03
 -2.11884E+04 -2.33378E+04 -1.13074E+04 -2.43454E+04  4.98773E+03 -2.41812E+04  2.05142E+04 -2.54176E+04
  2.55284E+04 -1.29695E+04  3.72319E+04  3.50062E+03  2.12030E+04  2.26388E+04  8.38315E+03  3.60968E+04
 -2.09075E+04  2.89398E+04 -2.49217E+04  1.05941E+04 -2.26935E+04 -1.03432E+04 -4.25716E+03 -1.55612E+04
  6.98134E+02 -3.10870E+03 -1.90748E+03  5.82031E+03 -2.13049E+04  1.12217E+04 -1.48756E+04 -8.50112E+03
 -8.31219E+03 -2.18515E+04  4.31472E+03 -2.19445E+04  2.03729E+04 -1.66382E+04  1.91905E+04 -1.40789E-01
  7.67932E+03  1.25506E+04 -3.06194E+03  1.74650E+04 -1.36399E+04  8.65232E+03 -2.16231E+04 -6.01542E+03
 -1.73281E+04 -1.55277E+04 -6.41364E+02 -2.43907E+04  9.91917E+03 -1.95873E+04  1.96362E+04 -9.60079E+03
  2.25154E+04  9.01799E+02  1.36732E+04 -1.97901E+03  1.24364E+04  2.15634E+03  1.05847E+04 -5.36949E+03
  1.68555E+04  2.14872E+03  2.31638E+04  1.54383E+04  1.41340E+04  2.86555E+04 -5.97500E+03  3.62205E+04
 -2.05456E+04  2.99170E+04 -3.48647E+04  1.22174E+04 -3.25162E+04 -1.39618E+03 -2.41203E+04 -1.96918E+04
 -1.13343E+04 -2.85555E+04  1.27485E+04 -2.65815E+04  3.19724E+04 -1.29185E+04  2.61947E+04  9.42075E+03
  6.52585E+03  1.71366E+04 -8.99937E+03  5.56726E+03 -1.45093E+04  2.50336E+03 -1.16470E+04 -7.40576E+03
  4.90487E+03 -1.91054E+04  9.71405E+03 -1.14473E+04  8.26810E+03  7.77795E+02  3.62752E+03  4.77346E+03
 -1.09526E+04  2.51909E+03 -5.95050E+03 -9.13876E+03  8.85752E+02 -1.85163E+04  1.01283E+04 -1.67013E+04
  2.22070E+04 -8.19720E+03  2.19167E+04  3.93641E+01  2.50672E+04  1.64763E+04  6.16646E+03  2.08731E+04
  7.49924E+01  2.61695E+04 -1.64267E+04  1.31839E+04 -1.38299E+04  7.39021E+03 -1.15205E+04 -6.68139E+03
 -4.15289E+03 -2.71882E+03 -3.92949E+03  4.68486E+03  3.48263E+02  4.50829E+03 -9.42510E+03  3.98893E+03
 -5.82573E+03 -5.16526E+03 -1.29409E+04 -1.19332E+04 -3.75484E+03 -1.60708E+04  6.94138E+03 -1.55780E+04
  7.04251E+03 -4.70617E+03  8.31405E+03  4.63935E+03 -2.06409E+03  5.67085E+03 -9.32965E+03  4.66229E+03
 -9.64892E+01 -7.84726E+03 -6.43819E+03 -1.27826E+04  1.11151E+04 -9.36633E+03  1.46986E+04 -3.64369E+03
  1.47344E+04 -7.67967E+02  7.36353E+03  1.00756E+04  2.34217E+03  1.61390E+04 -5.30811E+03  1.05947E+04
 -8.43967E+03  2.85999E+03 -6.51762E+03 -1.29559E+04  3.73873E+03 -6.70574E+03  4.79672E+03  3.42920E+03
  7.76749E+03  7.24512E+03 -1.88263E+03  4.95908E+03 -1.13042E+04  1.11751E+04 -1.62313E+04  2.43913E+02
 -4.95960E+03 -1.00032E+04  4.83707E+03 -6.99678E+03  1.42525E+04 -5.79058E+03  8.63147E+03  2.63734E+03
  5.30976E+03  9.90769E+03 -6.42699E+03  1.10008E+04 -1.22042E+04  4.63174E+03 -1.49707E+04 -4.66008E+03
 -1.93317E+03 -1.60949E+04  3.11211E+02 -1.45363E+04  1.63566E+03 -6.93366E+03  1.11598E+04  3.50230E+03
  1.16208E+04  5.96421E+03  3.75446E+02  1.07727E+04 -3.27052E+03  8.75276E+03 -7.28352E+03 -1.77679E+03
 -7.56098E+03 -7.94284E+03  1.27544E+03 -6.84753E+03  7.60136E+03 -5.78571E+03  3.59605E+03 -1.18471E+03
  4.14672E+03 -2.56374E+03 -2.06736E+03  5.05829E+03 -2.99331E+03 -4.42748E+03 -2.56251E+03 -5.79240E+03
  1.10638E+04 -5.11684E+01  1.28339E+04  6.62952E+03  9.14381E+03  9.60778E+03  9.52272E+03  1.28475E+04
 -3.25123E+03  1.43864E+04 -1.81724E+04  1.10272E+04 -1.85410E+04  2.54319E+03 -1.82748E+04 -8.66954E+03
 -5.14403E+03 -9.91848E+03 -5.75936E+03 -8.39224E+03  3.45784E+03 -3.69299E+03  7.81932E+03 -3.03029E+03
  9.12169E+03 -4.78848E+03  6.62637E+03 -5.06725E+02  5.88993E+03  1.09252E+00  6.67944E+03 -4.83416E+03
  5.10271E+03 -3.89643E+03  5.67553E+03  9.38954E+03 -6.76842E+03  4.26765E+03 -3.44860E+03  8.13200E+03
 -1.28749E+04 -6.59529E+03 -1.12932E+04 -6.89943E+03 -8.71816E+02 -1.16780E+04  8.43797E+03 -1.14107E+04
  1.03000E+04 -2.22442E+03  1.40792E+04  1.95271E+03  9.96667E+03  1.16284E+04 -7.84153E+02  1.42985E+04
 -3.36556E+03  8.91190E+03 -3.50074E+03 -6.84384E+02 -9.33739E+03 -3.43893E+03 -2.69374E+03 -4.58208E+03
 -2.52455E+03 -4.34354E+03 -2.42389E+03  2.81341E+03 -4.15453E+03  3.25610E+03 -4.88600E+03 -3.43034E+03
 -3.32229E+03 -7.53601E+03 -6.66316E+02 -7.09944E+03  8.08825E+03 -9.50497E+03  7.86083E+03  1.36473E+03
  1.25104E+04  4.56503E+03  1.09557E+04  4.90476E+03 -2.73135E+03  5.50887E+03 -5.17914E+03  6.54700E+03
 -9.79732E+03 -1.10026E+03 -2.58500E+03  7.69091E+02 -3.40267E+03 -7.01347E+03  3.31852E+03 -7.97732E+03
  7.87202E+03 -4.42835E+03  1.12256E+04 -7.48810E+01  5.47063E+03  3.61514E+03  3.06696E+03 -2.38908E+03
 -3.92435E+03 -3.71834E+03 -1.29916E+03  2.41409E+03  1.56879E+03 -1.56362E+02  8.77153E+03  2.90395E+03
  1.30158E+03  7.81122E+03 -6.06941E+03  1.15418E+04 -3.70799E+03  1.89870E+03 -1.07244E+04 -7.29426E+03
 -7.67701E+03 -4.77988E+03 -3.93886E+03 -1.59132E+04  2.43482E+03 -6.08686E+03  1.58517E+04 -2.06256E+03
  1.06303E+04  1.57392E+03  2.83876E+03  3.91644E+03 -3.29603E+03  5.49246E+03 -9.64164E+02 -9.93713E+02
 -1.60465E+03 -4.74335E+03  3.37923E+03 -4.18318E+03  8.69920E+03  2.91205E+03  7.20465E+03  3.02848E+03
  5.77879E+03  3.71955E+03  4.80919E+03  9.09089E+02 -5.25325E+02 -1.58287E+03  1.60314E+03  4.50940E+03
 -6.38481E+01 -2.90726E+03 -2.85150E+03  2.79948E+03 -1.88688E+02  5.02336E+03 -2.82222E+03  8.69720E+03
 -4.98630E+03  5.48551E+03 -3.91666E+01  1.96498E+03 -4.82340E+03 -2.72488E+03 -4.98498E+03 -6.50084E+03
 -2.71644E+02 -6.81374E+03  5.32734E+02 -4.48130E+03  1.02467E+03  3.11445E+03 -2.91031E+03  9.54151E+02
 -3.70022E+03  2.03923E+03  2.10260E+02 -1.69215E+03 -2.31910E+03 -2.29616E+03 -3.87699E+02 -8.26353E+03
  4.16805E+03 -4.16891E+03  5.22083E+03 -3.46244E+03  3.76324E+03  2.21453E+03  1.68650E+03  5.25276E+03
 -1.84699E+03 -6.63243E+03 -5.37030E+03 -3.44572E+03  5.76409E+02 -5.25610E+03  3.92447E+03 -5.74490E+03
  9.25438E+02 -9.07896E+02  2.42771E+03  3.48789E+03  4.47022E+03  8.70901E+02  3.67666E+03  3.27689E+03
 -5.34491E+03  4.35100E+03 -5.78257E+03  1.48233E+03  5.37398E+01 -5.95770E+03  9.62307E+02 -4.69389E+03
  1.52880E+03 -2.99073E+03  5.38645E+03  1.40499E+03 -1.92532E+01  2.76419E+03 -1.57876E+03  3.54136E+03
  4.38387E+03  3.54027E+00 -2.72866E+03 -8.79512E+02 -1.06177E+03 -7.63104E+03  9.87100E+02  7.24542E+02
 -6.51642E+02  1.28138E+03  1.46260E+03 -5.44695E+01 -4.86987E+03 -1.03562E+03 -4.58795E+03 -5.86288E+03
 -2.39008E+03 -1.10940E+04  1.94800E+03 -4.17504E+03  3.17679E+03 -2.20568E+03  7.49107E+03 -1.64281E+03
  6.31323E+03  4.55170E+02  2.99656E+01  2.43245E+03  1.52743E+03  8.54529E+03 -3.09955E+02  6.25495E+03
 -5.35951E+03  2.21750E+03 -6.27224E+03 -1.68594E+03  1.86764E+03 -8.17663E+02 -1.85077E+03 -1.14285E+03
  2.54783E+03 -4.28477E+03  3.73657E+02 -4.72934E+03 -5.56816E+03 -3.73393E+03  1.80370E+02 -1.50282E+03
  3.45796E+03  6.93529E+03  4.86355E+03 -4.47754E+03  4.83274E+03  5.71170E+03  1.12747E+03  2.86144E+02
 -4.50974E+03  2.12960E+03 -8.74074E+03  2.33880E+03 -9.02886E+03 -3.04564E+03 -6.47844E+03 -3.22893E+03
 -4.79675E+03 -9.13582E+03  1.78923E+03 -7.59714E+02  5.55336E+03 -2.84869E+03  5.14484E+03  3.95337E+03
  6.22856E+03 -1.60329E+03 -2.77082E+03  1.20517E+02 -1.24594E+03  3.99618E+03 -1.21102E+03  3.93937E+03
  2.39087E+03 -4.77480E+03  3.02437E+03  7.88692E+02 -1.91410E+03  4.56142E+03  2.07378E+03 -1.45402E+03
 -8.10066E+03 -1.39779E+03 -7.53358E+03  3.35553E+03 -8.44168E+03 -4.76635E+03 -3.72358E+02 -5.45090E+03
  6.57747E+03 -3.48360E+03  2.55886E+03 -2.33952E+03  2.74529E+03  1.36395E+03  1.59785E+03  4.21954E+03
  2.28242E+03  5.01045E+03 -8.98206E+02  3.10864E+03 -5.60012E+03  2.29990E+03 -7.45107E+02  4.65460E+03
  1.95069E+03 -2.58704E+03 -1.99850E+03 -3.88083E+03  4.64188E+02 -2.62255E+03 -1.35008E+01 -2.88694E+03
  8.01484E+01 -5.66906E+02  1.52170E+03 -9.90646E+03  4.24440E+03 -1.13593E+03  8.86332E+03 -2.36843E+03
  5.66467E+03  5.02821E+03  5.21943E+03  4.07702E+03 -2.72744E+03  1.95854E+03  1.06440E+03 -2.82211E+03
