 $NMID ID='MM_0lb_SNR50_9hz_g60_42.RAW', FMTDAT='(8E13.5)'
 TRAMP=1., VOLUME=1. $END
  3.07971E+05 -1.27987E+03  3.35361E+05  2.54902E+05  9.17338E+04  3.32507E+05 -1.37563E+05  2.56586E+05
 -1.88666E+05  7.98968E+04 -1.11605E+05 -3.27043E+04 -1.05002E+03 -5.15281E+04  5.40912E+04  5.62352E+03
  3.73599E+04  6.12819E+04 -1.91150E+04  7.56422E+04 -5.68939E+04  6.66558E+04 -8.56810E+04  2.58847E+04
 -8.14385E+04 -7.73115E+03 -5.92660E+04 -5.10230E+04 -1.28496E+04 -7.03596E+04  2.74030E+04 -5.17560E+04
  4.13018E+04  3.51419E+03  1.72034E+04  4.92220E+04 -3.51477E+04  5.06034E+04 -7.20415E+04  4.68381E+03
 -5.04872E+04 -4.93982E+04 -4.76303E+03 -8.34858E+04  3.86779E+04 -6.30089E+04  4.73025E+04 -2.41829E+04
  4.62959E+04  1.37862E+04  3.78118E+04  2.50491E+04  1.19278E+04  3.28376E+04 -6.19254E+03  2.14836E+04
 -1.53178E+04  1.18787E+04 -1.40670E+04 -1.34327E+04  1.09114E+04 -9.51923E+03  1.96329E+04  1.73066E+04
  4.95041E+03  3.14829E+04 -4.00876E+04  3.10209E+04 -6.50835E+04  6.30718E+03 -6.22102E+04 -4.73495E+04
 -7.72488E+03 -6.22309E+04  4.97458E+04 -4.65880E+04  6.74386E+04 -6.62449E+03  3.32765E+04  3.18133E+04
  9.75086E+02  3.92784E+04 -2.56650E+04  1.63159E+04 -3.39431E+04 -4.05748E+03 -2.20798E+04 -8.47747E+03
 -9.40909E+03 -1.67280E+04 -5.70836E+02 -2.00021E+04  6.82528E+03 -2.55544E+04  9.74124E+03 -8.47684E+03
  9.91774E+03  5.36119E+03 -1.30478E+04  1.37657E+04 -2.50224E+04 -3.58436E+03 -8.31511E+03 -3.59777E+04
  2.32127E+04 -4.80202E+04  4.33241E+04 -1.40819E+04  4.39876E+04  2.04971E+04  1.90696E+04  4.52194E+04
 -1.50321E+04  3.01601E+04 -2.62407E+04  6.32319E+02 -7.54427E+03 -3.61637E+04  1.88057E+04 -3.24445E+04
  4.32243E+04 -1.06523E+04  4.35116E+04  2.47701E+04  2.66998E+04  4.68429E+04 -6.99871E+03  5.38641E+04
 -3.57994E+04  3.71072E+04 -5.11303E+04  1.01267E+04 -4.82247E+04 -1.71417E+04 -2.20895E+04 -4.29331E+04
  1.08642E+04 -4.11833E+04  3.91474E+04 -1.51258E+04  2.97313E+04  1.26636E+04  7.77918E+03  2.05197E+04
 -1.57308E+04  9.83263E+03 -1.26926E+04 -1.19291E+04  3.00314E+03 -7.40814E+03  2.10068E+04  9.73746E+03
  1.31181E+04  2.29956E+04 -1.29374E+03  2.11782E+04 -2.16728E+04  1.57839E+04 -3.24881E+04  6.91746E+02
 -3.14431E+04 -2.08268E+04 -9.22980E+03 -2.84377E+04  1.58631E+03 -2.07994E+04  2.56263E+04 -2.98171E+04
  3.71974E+04 -1.55206E+04  4.21291E+04  6.20941E+03  2.89528E+04  2.92260E+04  7.40728E+03  4.07684E+04
 -2.23514E+04  3.26043E+04 -3.37074E+04  2.07837E+04 -2.20643E+04 -1.35759E+04 -3.59360E+01 -1.59472E+04
 -1.47554E+03 -6.06369E+03 -1.52749E+04  9.75403E+03 -2.17407E+04  8.28215E+03 -1.89574E+04 -4.39271E+03
 -1.85436E+04 -2.50932E+04  5.56973E+03 -3.04784E+04  1.86063E+04 -2.15623E+04  1.40851E+04  3.30528E+03
  1.42938E+04  1.95499E+04 -1.04604E+04  1.53864E+04 -1.45075E+04  1.74762E+04 -2.39306E+04 -6.96558E+03
 -1.70566E+04 -2.12607E+04 -5.63271E+03 -3.19996E+04  7.38839E+03 -2.61111E+04  2.22355E+04 -1.94796E+04
  1.90254E+04  3.46126E+03  1.54671E+04  5.65138E+03  5.68191E+03  4.96585E+03  9.37610E+03 -7.19497E+03
  2.32765E+04  1.23392E+03  2.48967E+04  1.46926E+04  1.64239E+04  3.80393E+04 -3.38050E+03  4.10814E+04
 -2.07905E+04  4.30124E+04 -4.58783E+04  1.79294E+04 -5.64783E+04 -2.89741E+03 -4.12314E+04 -2.71849E+04
 -1.71596E+04 -4.00551E+04  1.21807E+04 -3.41720E+04  3.15945E+04 -1.62168E+04  2.04588E+04  8.15775E+03
  9.92862E+03  1.85041E+04 -1.32580E+04  2.03877E+04 -2.58619E+04  8.83009E+02 -1.47409E+04 -1.91781E+04
  8.53997E+02 -1.72865E+04  1.05071E+04 -1.33026E+04  1.52667E+04  8.83625E+00  4.93693E+03  2.06664E+04
 -1.34071E+04  5.58272E+03 -1.14861E+04 -8.04114E+03  3.26314E+03 -1.76349E+04  1.65240E+04 -1.08224E+04
  2.29290E+04 -1.91328E+04  2.41995E+04  6.64782E+03  2.65793E+04  2.04155E+04  1.15868E+04  2.80531E+04
 -7.10075E+03  3.15412E+04 -2.54594E+04  2.19444E+04 -2.43772E+04  2.95136E+03 -1.91983E+04 -4.72120E+03
 -8.60105E+03 -8.38524E+03  5.10899E+03  2.71588E+03 -3.22751E+03  1.00158E+04 -8.15936E+03  1.11747E+04
 -1.52161E+04  2.73698E+03 -1.45342E+04 -1.43777E+04 -6.27102E+03 -1.93395E+04  1.09065E+04 -1.62815E+04
  1.23522E+04 -1.05605E+04  7.04972E+03  9.37261E+02 -1.92715E+03  5.38991E+03 -1.78663E+03  6.17781E+03
 -1.07037E+04 -1.31618E+04 -5.94172E+03 -1.55475E+04  1.45370E+04 -1.69310E+04  1.86621E+04 -5.66375E+03
  2.77697E+04  1.37544E+03  1.97920E+04  8.92451E+03  5.31259E+03  1.55450E+04 -5.49549E+03  2.35433E+04
 -1.08785E+04  2.46702E+03 -6.19611E+03 -8.58824E+03  2.44081E+03 -4.13993E+03  1.09367E+04  4.46221E+03
  9.15829E+03  2.56909E+03  3.24468E+03  1.52330E+04 -9.51211E+03  1.27576E+04 -2.04250E+04  1.67036E+03
 -1.14938E+04 -7.32485E+03 -1.38051E+03 -1.26451E+04  1.44109E+04 -1.19950E+04  1.39543E+04  1.14375E+04
  1.13504E+04  1.32014E+04 -9.63906E+03  1.44684E+04 -1.48880E+04  8.05838E+03 -1.60265E+04 -7.13045E+03
 -1.29014E+04 -1.29741E+04  7.66435E+03 -2.17638E+04  2.20440E+04 -8.48857E+03  1.65215E+04 -6.34431E+03
  7.86630E+03  9.13158E+03 -4.58574E+03  2.08236E+04 -1.05036E+04  1.23651E+04 -1.31364E+04 -5.89210E+01
 -1.05932E+04 -1.24756E+04 -1.61462E+03 -1.15947E+04  4.50715E+03 -8.77423E+03  1.24503E+04 -5.04849E+03
  9.66964E+03  4.40757E+03 -1.66103E+03  7.84542E+03 -1.31382E+02 -4.38666E+03  8.90065E+03 -7.84119E+03
  1.05054E+04 -2.62282E+03  1.57915E+04 -7.02490E+03  1.85524E+04  8.58234E+03  8.88323E+03  2.48482E+04
 -3.40018E+03  2.58291E+04 -2.92412E+04  1.75982E+04 -2.51218E+04  1.77016E+03 -2.70034E+04 -8.66917E+03
 -1.50204E+04 -1.86328E+04 -8.57912E+03 -1.48302E+04  6.90735E+03 -5.41004E+03  1.30596E+04 -3.30342E+03
 -6.12994E+02  8.90690E+02  4.82989E+03 -5.45718E+03 -1.08104E+02 -7.93257E+03  7.34744E+03 -5.49995E+03
  1.36816E+04  1.54699E+03  7.76041E+03  9.83021E+03 -2.18433E+03  9.58754E+03 -1.07432E+04  5.25808E+03
 -1.46741E+04  3.22365E+03 -1.31655E+04 -9.19710E+03 -3.87094E+03 -1.90049E+04  1.59675E+04 -2.18590E+04
  1.81247E+04 -7.92783E+03  2.04256E+04  1.84996E+03  1.75062E+04  1.41597E+04  4.22044E+03  1.93041E+04
 -6.64667E+03  1.32201E+04 -7.40718E+03  5.68526E+03 -6.22439E+03 -1.05727E+03 -1.81079E+03 -2.14095E+02
 -6.02765E+03 -4.54331E+03  1.93432E+03  4.75703E+03 -6.02930E+03  4.73795E+03 -8.73056E+03 -4.72576E+02
 -1.49112E+04 -7.96491E+03  1.62838E+03 -1.25020E+04  3.99515E+03 -1.89947E+04  1.57315E+04 -5.00904E+03
  1.35590E+04  7.65020E+03  1.03436E+04  1.34425E+04 -2.40837E+03  2.31023E+04 -8.43344E+03  8.18196E+03
 -1.95219E+04  1.78280E+03 -1.55587E+04 -8.39791E+03 -3.60867E+03 -1.64551E+04  5.26216E+03 -8.92559E+03
  4.95791E+03 -6.36230E+03  1.05835E+04  1.02808E+04  2.48459E+03  1.15069E+04  4.11293E+03 -1.17447E+03
  4.45391E+03 -1.09586E+03  9.83361E+02  2.44141E+03 -5.84631E+01  2.98899E+03  7.72921E+02  6.59885E+03
 -6.60764E+03  1.44475E+04 -7.72684E+03  1.18775E+04 -1.96034E+04  3.79248E+02 -1.39687E+04 -6.95213E+03
 -7.09714E+03 -1.58268E+04  6.94496E+02 -2.33509E+04  6.15218E+03 -1.19317E+04  1.99327E+04 -4.35503E+03
  6.34590E+03  8.18728E+03  1.01937E+03  1.50020E+03 -8.17961E+03  8.57292E+03  3.78007E+02 -1.19916E+01
 -1.02235E+03 -4.36338E+03  4.39516E+03 -8.81270E+03  5.05831E+03 -1.63492E+03  2.03845E+03  1.58237E+03
  8.39777E+03  6.05139E+03  7.20012E+02  6.89454E+03  3.37351E+03  3.94021E+03  3.73002E+02 -3.70854E+02
  2.88778E+02  1.09128E+03  6.22529E+03 -6.07169E+03  4.63216E+03  1.15855E+04  4.39945E+03  8.42380E+03
 -8.08417E+03  6.35843E+03 -1.14376E+04  7.17122E+03 -5.21630E+03  5.81064E+02 -2.73083E+03 -4.96047E+03
  3.43287E+03 -4.70798E+03  2.70132E+03 -1.00386E+02  6.71491E+03 -1.91245E+02 -3.36276E+03  1.07897E+04
 -1.43812E+04  4.45546E+03 -6.80664E+03 -1.93871E+02 -3.52928E+03 -1.04046E+04  1.01185E+04 -6.02595E+03
 -1.87172E+03 -7.70086E+03  3.54361E+03 -7.53500E+03  2.12364E+03  6.13241E+03  2.07701E+03  3.95992E+03
 -5.49409E+01 -2.41460E+03 -1.89653E+03 -6.19614E+02 -8.48553E+03 -8.15643E+03  1.58989E+04 -2.33657E+03
  1.55888E+04 -5.54088E+03  5.56167E+03  9.76746E+03  4.91798E+03  1.87608E+04 -4.45594E+03  4.84174E+03
 -8.88604E+03  4.82514E+03 -1.33833E+04  6.46656E+02  1.60764E+03 -1.14728E+04  3.63503E+03 -1.24863E+04
  8.90890E+03 -1.25088E+04  5.63818E+03  7.68748E+03  1.42730E+04  7.27687E+03 -4.20279E+03  1.21022E+04
  2.46124E+03 -5.02502E+03  3.41678E+03 -1.26265E+03  1.59434E+03  2.67727E+03  8.25249E+02  6.36993E+03
 -6.39381E+03  6.76156E+03 -8.18492E+03 -3.56773E+03 -8.48798E+03  6.32809E+03 -1.00009E+04 -1.14157E+04
 -8.46359E+03 -1.86248E+04  3.91080E+02 -1.73391E+04  7.46475E+03 -1.35055E+04  1.32576E+04  2.43137E+03
  1.29538E+04  5.42264E+03  5.96163E+03  9.24298E+03  1.89965E+03  1.02716E+04 -5.01521E+03  1.30731E+04
 -1.30101E+04 -9.32364E+02 -5.61927E+03  6.05675E+02  1.41833E+03 -5.22361E+03  3.82399E+03 -1.02334E+03
  5.15865E+02 -1.98073E+03 -1.22859E+02  9.85372E+02  1.43347E+03 -1.52619E+03  5.60851E+03 -6.60180E+03
  4.46172E+03 -3.91705E+03  6.33637E+03 -4.47500E+03  9.85596E+03  2.74953E+03  3.51424E+03  1.00939E+04
 -3.49781E+03  9.30397E+03 -1.23640E+04 -2.07622E+03 -1.71179E+04 -1.29486E+03 -5.75876E+03 -1.13695E+04
 -1.70066E+03 -1.31023E+04  6.02099E+03 -1.30110E+04  9.00197E+03 -9.41949E+03  5.42124E+03 -1.06992E+03
  7.17205E+03  4.85464E+03 -1.15133E+03  2.07236E+02 -4.02158E+02 -1.80618E+03 -1.54120E+03  5.76798E+02
 -3.35299E+03 -6.79335E+03  4.93787E+03  4.32998E+03  2.18227E+03  4.21586E+03  9.15977E+02  8.64574E+03
 -7.01209E+03  6.74248E+03 -5.56150E+03 -2.15818E+03 -1.00528E+04 -3.43337E+03 -1.87474E+03 -1.63123E+04
  3.54383E+03 -1.03754E+04  1.03019E+04 -4.68545E+03  1.31583E+04  5.11626E+03  4.98334E+03  6.55251E+03
  5.15467E+02  1.42204E+04 -1.04245E+03  3.86579E+03 -1.02016E+03  3.00817E+03 -7.06346E+03 -6.35017E+03
 -7.58182E+02  3.13265E+03 -7.56330E+03  1.43249E+03 -6.13281E+03 -4.14489E+03 -9.14710E+03  4.10134E+02
 -3.23285E+03  3.63115E+03 -2.15892E+03 -6.53872E+03 -2.94282E+03 -3.15469E+03  8.75226E+03  4.84645E+03
  1.32680E+04 -6.99721E+03  1.03966E+04  7.60238E+03  3.44496E+02  5.45576E+03 -6.36644E+03  2.90159E+03
