 $NMID ID='MM_0lb_SNR50_12hz_g55_60.RAW', FMTDAT='(8E13.5)'
 TRAMP=1., VOLUME=1. $END
  3.10318E+05  3.86498E+03  3.42469E+05  2.51033E+05  9.09828E+04  3.37283E+05 -1.32109E+05  2.51242E+05
 -1.97497E+05  7.97642E+04 -1.16326E+05 -3.38420E+04 -4.26779E+02 -5.12922E+04  5.92642E+04 -4.55862E+02
  3.72993E+04  5.36491E+04 -1.49723E+04  7.87453E+04 -5.67689E+04  6.46556E+04 -8.41424E+04  3.19407E+04
 -8.22094E+04 -1.10541E+04 -5.68631E+04 -4.97560E+04 -1.44113E+04 -7.29881E+04  2.63477E+04 -4.26948E+04
  4.66556E+04  2.62425E+03  1.82552E+04  5.03575E+04 -3.56669E+04  4.67971E+04 -7.10107E+04  1.38566E+03
 -5.65890E+04 -5.24545E+04 -5.69191E+03 -8.38518E+04  3.03046E+04 -6.14015E+04  4.96409E+04 -2.00719E+04
  4.51283E+04  1.52747E+04  2.59182E+04  2.30632E+04  1.50257E+04  3.04576E+04 -3.10599E+03  2.65812E+04
 -2.59820E+04  1.40519E+04 -1.57969E+04 -6.30830E+03  2.71258E+03 -5.95812E+03  2.27438E+04  7.28215E+03
  1.03166E+04  3.32097E+04 -3.28015E+04  3.83888E+04 -6.15718E+04  6.56861E+03 -5.74984E+04 -4.15287E+04
 -1.18425E+04 -6.36514E+04  4.25408E+04 -4.66593E+04  6.08735E+04 -3.42122E+03  3.49585E+04  3.10176E+04
 -3.36447E+03  3.34096E+04 -2.62580E+04  1.91096E+04 -3.15199E+04 -2.96488E+03 -1.87002E+04 -1.32171E+04
  1.51254E+03 -1.18964E+04  3.58033E+03 -1.77722E+04  6.40038E+03 -2.30697E+04  1.23297E+04 -1.18215E+04
  1.40678E+04  4.20077E+03 -1.29880E+04  4.83884E+03 -2.44744E+04 -8.67683E+03 -7.87543E+03 -3.99846E+04
  2.26505E+04 -4.58454E+04  5.07843E+04 -2.43566E+04  5.03219E+04  2.39767E+04  1.99006E+04  4.18357E+04
 -1.06182E+04  3.88548E+04 -3.13022E+04  4.43080E+03 -7.96708E+03 -2.87396E+04  2.19791E+04 -3.35115E+04
  4.29146E+04 -1.02257E+04  3.60491E+04  2.51086E+04  2.03072E+04  4.79371E+04 -1.08746E+04  5.32141E+04
 -3.34885E+04  3.59374E+04 -4.53006E+04  1.21471E+04 -4.68281E+04 -1.97748E+04 -2.79160E+04 -3.41590E+04
  5.09072E+03 -3.66619E+04  3.43086E+04 -1.93840E+04  3.04126E+04  5.96727E+03  5.35262E+03  2.30055E+04
 -2.13852E+04  1.12111E+04 -9.42620E+03 -8.06638E+03  6.86379E+03 -1.12805E+04  1.94517E+04  1.49895E+03
  2.37371E+04  1.75166E+04 -5.55106E+03  2.80960E+04 -2.66972E+04  1.14850E+04 -2.71322E+04 -7.48130E+03
 -2.73502E+04 -2.37994E+04 -1.11694E+04 -2.41047E+04  2.69691E+03 -2.58600E+04  2.36473E+04 -2.03559E+04
  3.04577E+04 -1.41962E+04  4.16419E+04  1.69335E+02  2.63019E+04  2.08570E+04  3.65522E+03  3.98962E+04
 -1.76579E+04  3.27663E+04 -2.83294E+04  1.17319E+04 -2.44796E+04 -1.31713E+04 -8.30401E+03 -1.15717E+04
 -7.51321E+02 -2.59752E+03 -3.85964E+03  9.40994E+03 -1.72004E+04  1.06233E+04 -1.41572E+04 -5.88528E+03
 -9.36197E+03 -2.24598E+04  1.06861E+04 -2.39003E+04  1.75578E+04 -1.71172E+04  2.55275E+04 -4.31637E+03
  1.74743E+04  1.44578E+04 -7.49857E+03  2.14736E+04 -1.46083E+04  1.31285E+04 -1.65797E+04 -4.80177E+03
 -1.58339E+04 -2.06283E+04  4.25107E+03 -2.43584E+04  7.71097E+03 -2.33869E+04  1.95579E+04 -1.34519E+04
  1.69662E+04 -5.57198E+03  1.18717E+04  3.43728E+03  6.03399E+03 -4.10233E+03  1.07781E+04  1.04547E+03
  1.80938E+04  4.06644E+03  1.92409E+04  1.41520E+04  1.84814E+04  3.41047E+04 -4.53045E+03  4.07656E+04
 -1.26335E+04  2.97892E+04 -3.47320E+04  1.71654E+04 -4.23158E+04 -2.14528E+03 -3.39284E+04 -2.63266E+04
 -7.37306E+03 -3.41737E+04  1.02967E+04 -2.77154E+04  2.25213E+04 -2.26717E+04  1.86902E+04  8.66151E+03
  6.71703E+03  1.82385E+04 -1.15534E+04  1.61406E+04 -1.75077E+04  7.28447E+03 -5.64641E+03 -9.43604E+03
  6.11937E+02 -1.64801E+04  7.58945E+03 -8.11172E+03  1.10811E+04 -2.94568E+03 -2.80116E+03  8.19561E+03
 -1.32684E+04  3.71498E+03 -5.93573E+03 -5.66524E+03  5.39028E+01 -1.35855E+04  1.25781E+04 -1.56743E+04
  1.04920E+04 -1.26295E+04  2.44208E+04  6.44375E+03  1.46283E+04  1.72760E+04  9.78783E+03  1.98726E+04
 -7.37149E+03  2.45963E+04 -1.63171E+04  1.76252E+04 -2.47914E+04  1.07409E+04 -8.57114E+03 -3.29225E+03
 -2.73639E+03 -9.32613E+03 -3.36317E+03 -5.39271E+02 -5.23453E+03  3.12139E+03 -3.50577E+03  7.12168E+03
 -1.11865E+04  5.00512E+03 -1.55786E+04 -8.36573E+03 -2.26592E+03 -1.70285E+04  7.49052E+03 -1.34743E+04
  5.00556E+03 -8.97000E+03  6.11453E+03  2.24279E+03  6.64953E+02  5.96664E+03 -5.83395E+03  1.38980E+03
 -7.57799E+03 -4.75064E+03  2.67096E+03 -1.46165E+04  3.46782E+03 -1.29027E+04  1.58634E+04 -6.72620E+03
  1.77093E+04 -2.92968E+03  1.50232E+04  1.26482E+04  1.26216E+03  1.53293E+04 -6.64918E+03  1.62959E+04
 -7.39277E+03  2.21946E+03 -3.80656E+03 -2.83073E+03  3.23103E+03 -2.28018E+03  1.06737E+04 -5.42207E+03
  7.13023E+03  5.15711E+03  1.13174E+03  1.29940E+04 -2.68765E+03  1.40149E+04 -1.20479E+04  1.36096E+03
 -6.96769E+03 -1.62844E+03  2.49840E+03 -1.06038E+04 -4.40047E+03 -9.10636E+03  7.87327E+03  5.35540E+03
 -4.06013E+02  6.38208E+03 -3.86119E+03  1.09659E+04 -1.33901E+04  2.31113E+03 -8.59340E+03 -4.07518E+03
 -9.18781E+03 -4.60755E+03  3.22767E+03 -1.27519E+04  9.47884E+03 -1.24357E+04  1.25745E+04  7.43414E+02
  5.34843E+03  1.11383E+04  2.23449E+03  1.67789E+04 -9.25156E+03  8.54209E+03 -7.52954E+03 -2.46419E+03
 -1.15711E+04 -8.60446E+03  1.32676E+03 -1.30872E+04  9.92087E+03 -8.88834E+03  4.45674E+03 -7.61361E+03
  2.63984E+03 -9.95602E+02 -6.11266E+03  4.82854E+03 -6.40700E+02 -1.27739E+02 -6.23919E+02 -3.20242E+02
  6.98835E+03  1.05084E+03  1.32206E+04  1.04133E+03  8.64855E+03  7.75888E+03  3.35432E+03  2.04768E+04
 -7.16901E+03  1.49749E+04 -1.52747E+04  1.86664E+04 -1.86118E+04  7.29562E+02 -1.86673E+04 -9.02810E+03
 -1.19640E+04 -1.27555E+04  2.06937E+02 -1.20944E+04  1.01621E+03 -5.17137E+03  6.65568E+03 -8.79333E+03
  3.02228E+03  3.18711E+02 -1.34432E+03 -9.07368E+03  8.63264E+03 -2.09509E+03  8.43084E+03 -4.58750E+03
  1.28989E+04  2.74431E+03  5.14073E+03  3.12589E+03 -4.79246E+03  1.30762E+04 -1.22938E+04  3.78787E+03
 -5.16401E+03 -5.62331E+03 -5.71630E+03  1.72500E+02  1.36671E+03 -1.05939E+04  7.68346E+03 -1.79643E+04
  1.71515E+04 -9.50153E+03  1.37831E+04 -4.27580E+03  1.79151E+04  9.02849E+03  1.17089E+03  1.36047E+04
 -1.79378E+02  7.34331E+03 -1.05967E+04  4.58728E+03 -6.17105E+03 -5.21633E+03  1.98791E+03  2.46590E+03
  9.80532E+01 -2.43115E+02 -2.77751E+03  1.70541E+03 -3.38769E+03 -3.12888E+03 -6.47118E+03  4.08531E+03
 -7.02420E+03 -8.25115E+03  2.31881E+03 -1.24350E+04  3.62163E+03 -5.70348E+03  1.34274E+04 -4.83309E+03
  1.02266E+04  5.90348E+03  2.88425E+03  1.12347E+04 -1.88264E+03  1.26099E+04 -7.59397E+03  7.69320E+03
 -1.13170E+04  3.49503E+03 -9.76599E+03 -1.00905E+04 -7.42117E+03 -9.08323E+03  4.98284E+03 -5.51264E+03
  8.04200E+03 -1.54245E+03  1.17145E+03 -1.53248E+03  2.93914E+03  2.34520E+03  4.57048E+03  1.77846E+03
  6.41715E+03 -3.04615E+03  4.13831E+03  5.11573E+03  1.69131E+03 -1.60535E+03 -1.44764E+03  1.12244E+04
 -2.22466E+03  5.23553E+03 -7.33658E+03  8.20500E+03 -1.30178E+04 -1.93166E+03 -7.87824E+03 -5.10270E+03
 -6.35989E+03 -7.01237E+03 -1.67956E+03 -7.30947E+03  3.03571E+03 -1.31032E+04  6.33186E+03 -3.04529E+03
  6.24984E+03  3.20861E+03  4.04715E+03  7.48909E+03 -3.69473E+03  5.42722E+03 -3.89657E+03 -8.92249E+03
 -5.74303E+03  1.30314E+03  1.91319E+03  1.10263E+03  1.86589E+03 -3.71809E+03  3.27105E+03  2.89887E+03
 -1.43889E+03  2.98546E+03 -7.94182E+02 -4.54246E+02 -3.35074E+02  7.73802E+03  5.24278E+03 -1.35822E+03
 -1.56810E+03  2.59647E+02  1.95852E+03  2.83794E+02  7.05600E+01  9.82276E+03 -6.46375E+02  8.45792E+03
 -8.11231E+03  6.15784E+03 -5.05508E+03  4.60269E+03 -1.27214E+04 -4.47371E+03 -3.68035E+03 -7.01437E+03
  3.74618E+03 -5.11072E+03  5.92813E+03 -8.33780E+03  1.99810E+03  6.49878E+03 -4.42127E+03  2.94595E+03
 -4.38455E+03  3.87117E+03 -6.02087E+03 -4.20214E+03 -3.55635E+03 -9.32081E+03 -2.72511E+03 -8.78381E+03
  6.22564E+03  2.35407E+03  1.24396E+03 -4.30941E+03  2.47004E+03  3.59873E+03  3.42280E+03 -1.37758E+03
 -4.33958E+03  3.16999E+03  3.67584E+02 -1.65326E+03 -2.38625E+03 -6.39470E+03  3.92646E+03 -5.00682E+03
  1.32881E+04 -5.52185E+02  3.88730E+03 -2.64894E+03  3.81598E+03  1.08477E+04 -2.07768E+03  7.87260E+03
 -4.54894E+03  6.64950E+03 -7.32158E+03 -7.29526E+02 -2.50870E+03 -4.51780E+03 -2.78385E+03 -2.16013E+03
  5.04767E+03  2.18102E+02  3.06085E+03 -2.44648E+03 -1.47923E+03  7.89223E+03 -3.28895E+03  6.05543E+02
 -2.36700E+03  5.05998E+02 -3.47563E+03 -1.83437E+03  2.70377E+03 -3.21581E+03 -3.52434E+03  3.30737E+03
 -3.93827E+03  5.22645E+03 -5.36919E+03  5.59962E+03 -6.90949E+03  1.47056E+03 -8.90778E+03 -1.66457E+03
 -1.21051E+03 -1.03917E+04  7.31682E+02 -1.04807E+04  2.12012E+03 -1.12648E+04  1.16347E+04 -5.11207E+03
  7.06395E+03  1.55578E+03  7.22670E+03  4.54375E+03 -2.02672E+03  2.95907E+03 -3.10191E+03  7.38938E+03
 -2.10532E+03 -7.48147E+02 -6.33467E+03 -2.48552E+02 -3.99237E+03  2.47429E+03 -2.44969E+03 -1.10513E+03
 -2.69585E+03  3.29967E+03  1.48658E+03  1.41067E+03 -3.86647E+03 -4.48039E+03 -1.17481E+03 -3.22679E+02
  8.09342E+03  1.44550E+03  4.26868E+03 -3.02251E+03  2.54999E+03  5.71631E+03  3.13038E+03  5.84031E+03
 -4.01179E+03  5.57355E+03 -1.02754E+04  9.92127E+03 -8.30268E+03  7.33572E+02 -8.82679E+03 -9.04548E+03
 -1.38518E+03 -1.08352E+03 -1.21117E+03 -9.74093E+03  7.18156E+03 -3.54732E+03  1.67967E+03  2.13709E+03
  6.78589E+03  6.08206E+03  3.42487E+03  4.18014E+03  2.21311E+02 -2.50984E+03  5.52549E+02 -3.85390E+03
  2.17878E+03 -6.73285E+03  1.31586E+03  2.61357E+01 -1.82491E+03  2.79546E+03  6.22477E+02  4.95360E+03
 -6.60095E+03  4.21642E+03 -4.28214E+03  1.97951E+03  1.31837E+03  2.62451E+01  9.30114E+02 -5.59872E+03
  2.98795E+02 -1.77105E+03 -1.25521E+03  6.06627E+02  7.66028E+03  2.60704E+03  1.03324E+04  5.46220E+03
  2.13632E+03  5.39797E+03 -6.69456E+03 -4.10138E+02 -2.66578E+03  1.97280E+03 -2.62939E+03  1.40400E+03
  2.05128E+03 -4.37038E+02  1.40779E+03  1.33532E+03 -7.25450E+02  5.14969E+03 -9.51389E+02  3.58156E+03
 -3.50705E+03 -2.50454E+03 -4.64385E+03 -4.96297E+03  1.91362E+03 -2.59238E+03  7.33579E+02 -4.61989E+03
 -3.70600E+03  6.04621E+03 -5.07194E+03  9.99771E+03  6.23744E+02  6.55581E+03 -2.00453E+03  2.98015E+03
