 $NMID ID='MM_0lb_SNR50_20hz_g40_56.RAW', FMTDAT='(8E13.5)'
 TRAMP=1., VOLUME=1. $END
  3.12113E+05 -1.78351E+03  3.37621E+05  2.53344E+05  8.23005E+04  3.34672E+05 -1.28131E+05  2.47653E+05
 -1.89366E+05  8.28714E+04 -1.10298E+05 -3.42491E+04  4.21005E+03 -4.87693E+04  5.55470E+04 -7.53187E+02
  3.52819E+04  5.03029E+04 -1.91174E+04  7.36138E+04 -5.64370E+04  6.20656E+04 -8.44760E+04  3.18862E+04
 -7.74171E+04 -1.35342E+04 -5.63716E+04 -4.95074E+04 -1.42085E+04 -6.98391E+04  2.98561E+04 -4.25969E+04
  3.98808E+04  1.00189E+02  1.27149E+04  4.45644E+04 -3.45825E+04  4.92711E+04 -6.94400E+04  5.32533E+02
 -5.41260E+04 -5.53035E+04 -5.81615E+03 -7.36752E+04  3.28282E+04 -4.95795E+04  4.59736E+04 -1.80081E+04
  4.10888E+04  1.20673E+04  3.02649E+04  2.52450E+04  1.48717E+04  2.67560E+04 -3.38191E+03  2.56555E+04
 -2.57997E+04  1.37576E+04 -2.06734E+04 -6.56580E+03 -1.18726E+02 -7.92102E+03  2.08670E+04  1.40395E+04
  7.36283E+03  3.31063E+04 -3.12124E+04  3.54321E+04 -5.80074E+04  3.48762E+01 -5.20303E+04 -3.84413E+04
 -1.24904E+04 -5.86182E+04  3.80920E+04 -4.53496E+04  5.47327E+04 -2.98501E+02  2.97328E+04  2.72600E+04
 -7.65966E+03  3.07458E+04 -3.13534E+04  5.66085E+03 -2.76553E+04 -7.02307E+03 -1.11355E+04 -7.01565E+03
 -1.93165E+03 -1.10326E+04 -8.00530E+02 -1.99873E+04  7.42926E+03 -2.11048E+04  1.37990E+04 -1.27515E+04
  1.47382E+04  3.22034E+03 -7.76752E+03  1.34523E+04 -1.91767E+04 -4.10932E+03 -9.68706E+03 -2.92670E+04
  1.63173E+04 -4.07394E+04  4.27762E+04 -1.54488E+04  4.39305E+04  1.97553E+04  1.70167E+04  3.71488E+04
 -1.55608E+04  2.84591E+04 -2.20894E+04  6.82509E+01 -5.93016E+03 -2.58676E+04  2.00495E+04 -2.96915E+04
  3.52402E+04 -6.88938E+03  2.83383E+04  2.17824E+04  1.25639E+04  3.97212E+04 -8.89374E+03  4.37811E+04
 -2.78285E+04  2.51624E+04 -3.56134E+04  5.99337E+03 -3.46729E+04 -1.26134E+04 -1.96950E+04 -3.57596E+04
  7.11657E+03 -3.10719E+04  2.50421E+04 -1.02291E+04  2.25990E+04  1.05261E+04  2.22935E+03  1.95430E+04
 -1.36622E+04  5.16853E+03 -1.09076E+04 -5.79149E+03  7.80570E+03 -4.96096E+03  1.78041E+04  5.46102E+03
  9.77536E+03  2.04735E+04 -8.93458E+03  2.50747E+04 -2.23594E+04  4.67191E+03 -2.34669E+04 -6.36428E+03
 -1.71112E+04 -1.51882E+04 -9.23570E+03 -1.51574E+04  1.73879E+03 -9.57312E+03  1.07985E+04 -1.53229E+04
  1.70653E+04 -1.39898E+04  2.88973E+04 -4.24808E+03  1.94331E+04  1.31695E+04  4.20327E+03  2.97125E+04
 -1.03359E+04  2.49662E+04 -2.65238E+04  7.11132E+03 -1.92651E+04 -1.12692E+04 -9.08725E+03 -1.57735E+04
  4.35820E+03 -3.89245E+03 -2.59397E+02  5.50389E+03 -1.02948E+04  5.13025E+03 -1.27353E+04 -2.24436E+03
 -7.82545E+03 -1.40648E+04  2.70903E+03 -1.45188E+04  1.16934E+04 -9.04986E+03  1.55037E+04 -2.35714E+03
  9.91869E+03  1.23899E+04  6.56245E+01  9.99873E+03 -1.19538E+04  8.22717E+03 -1.39586E+04 -3.60178E+03
 -8.97747E+03 -1.00473E+04  1.04165E+03 -1.90700E+04  5.67832E+03 -1.13452E+04  1.49399E+04 -6.64006E+03
  1.53053E+04  6.60481E+02  7.73125E+03  3.48422E+03  3.35915E+03  2.07760E+02  7.05906E+03 -2.92306E+03
  1.10049E+04  4.87904E+03  1.00877E+04  1.45424E+04  8.31147E+03  2.24567E+04 -3.48180E+03  2.01327E+04
 -1.36938E+04  1.54955E+04 -2.53061E+04  9.40804E+03 -2.41253E+04 -8.28723E+02 -1.88135E+04 -1.28909E+04
 -1.10084E+04 -1.70346E+04  2.59707E+03 -2.05057E+04  1.45657E+04 -9.98835E+03  1.77928E+04  1.40185E+03
  4.59033E+03  1.32099E+04 -6.45905E+03  9.83022E+03 -1.54089E+04  3.48097E+03 -9.78766E+03 -3.27362E+03
  1.23068E+03 -8.00444E+03  9.04414E+03 -7.15748E+03  9.39582E+03 -2.42604E+03  3.96857E+03  3.76217E+03
 -2.73987E+03  3.14912E+03 -1.19608E+03 -3.17539E+03  7.30531E+02 -7.17672E+03  5.54666E+03 -1.02446E+04
  7.63343E+03 -9.03135E+02  9.47802E+03  3.22611E+03  1.04544E+04  5.47861E+03  3.47685E+03  5.77029E+03
 -1.30231E+03  1.86859E+04 -6.03533E+03  1.21322E+04 -1.46198E+04  8.03307E+02 -4.87675E+03 -1.73693E+03
 -5.99675E+03 -3.27751E+03 -2.29605E+03  6.81474E+02  2.35607E+03 -1.85271E+03 -1.08481E+03  4.60537E+03
 -4.79453E+03  4.46419E+02 -5.80263E+03 -8.08223E+03 -6.72084E+03 -1.02726E+04  5.08143E+03 -6.70443E+03
  6.61191E+03 -3.20624E+03  9.07446E+03 -2.83709E+03 -2.19841E+03  2.10510E+03 -6.85802E+03  4.41180E+02
 -2.74813E+03 -6.37231E+03  1.12241E+03 -5.62696E+03  1.24299E+01 -4.99409E+03  1.03899E+04 -4.51004E+03
  5.72148E+03  1.46624E+03  3.58497E+03  6.94110E+03 -1.70881E+03  7.60218E+03 -5.09596E+03  5.61227E+03
 -4.70930E+03  1.92512E+03 -2.00330E+03 -3.37021E+03 -1.50273E+03 -1.06973E+02 -2.49240E+03  9.24332E+02
  3.78517E+03 -3.70938E+02  8.21326E+02  5.31926E+03 -5.98950E+03  8.34537E+03 -6.43970E+03  1.30711E+03
 -5.33990E+03 -5.05651E+03 -1.19837E+03 -8.28744E+03  2.52576E+03 -3.68206E+03  1.57428E+03 -4.42049E+02
 -9.73278E+02  2.44164E+02 -3.08217E+03  6.47529E+03 -2.05423E+03  4.45465E+03 -2.68316E+03 -1.15128E+03
 -8.05116E+02 -8.35576E+02  1.37418E+03 -5.19986E+03  5.92407E+03 -7.02017E+02  3.60311E+03 -3.35727E+03
  7.57196E+03  5.97318E+03  1.01511E+03  1.15607E+04 -3.74912E+03  4.92085E+03 -2.83006E+03  1.51516E+03
 -3.24108E+03 -6.65207E+03 -2.58096E+03 -1.08462E+04  5.15141E+03 -7.36248E+03 -3.51679E+02 -3.96865E+03
 -4.95671E+02  3.42183E+03  5.63623E+03  1.02979E+03  1.12246E+03  2.86301E+03  2.29907E+03 -3.75160E+03
  4.68491E+03 -1.09304E+03  5.28711E+03 -2.30727E+03  2.65230E+03  2.51613E+03  5.19800E+03  7.75749E+03
 -1.32512E+03  7.10081E+03 -8.62681E+03  3.74670E+03 -4.91606E+03  3.53624E+03 -5.53515E+03  2.81845E+02
 -5.86775E+03 -5.04415E+03 -8.94612E+02 -5.48952E+03  1.41240E+03 -1.41430E+03  2.07821E+03 -1.37785E+02
  3.56979E+03  1.20630E+02  4.13260E+03 -4.78589E+03  4.44988E+03 -1.30475E+03  1.55458E+03  7.31367E+02
  1.35800E+02 -1.92612E+03 -1.85798E+03  1.68760E+03 -1.91571E+02  1.31467E+03 -4.19704E+03  4.28665E+03
 -1.90570E+03 -4.14523E+02 -1.48965E+03 -7.85786E+03 -2.01415E+03 -3.54860E+03 -1.50474E+03 -3.16346E+03
  1.99097E+03 -9.24227E+02  4.13844E+03 -2.01345E+03  3.05052E+03 -6.43505E+02  1.17344E+03  1.24839E+03
 -1.05394E+02  2.82703E+03 -4.51891E+03  1.83639E+01  3.89090E+03  1.19110E+02  2.73045E+03  3.73203E+03
 -7.01925E+02 -1.66064E+03 -2.14032E+03  2.84923E+03 -3.68353E+03 -1.36653E+03 -3.53568E+03 -4.29152E+03
 -2.58869E+03 -4.47725E+03  3.14109E+03 -7.09523E+02  3.72314E+03 -4.57750E+03  8.11829E+02  1.51519E+03
  4.27416E+03  1.90768E+03  2.21739E+03 -1.23045E+03 -3.67836E+03  2.39616E+03  1.16476E+03  1.55173E+02
 -3.21600E+03  8.42120E+02  2.78410E+01 -5.84657E+03 -7.59841E+01  8.97270E+02 -3.24481E+02 -8.59614E+02
  1.15880E+03 -1.32790E+03  9.06429E+02  3.75568E+03  4.98429E+02 -5.82854E+02  5.55472E+02 -1.29990E+03
  3.77214E+03 -4.95290E+03  1.82911E+03  2.60500E+03  1.00494E+03  1.01266E+03  5.40562E+03  3.51332E+03
 -1.76569E+03 -1.71557E+02 -5.18984E+03  3.12321E+03 -1.31923E+03 -3.11712E+03 -5.94396E+03  2.19475E+03
 -2.54376E+03 -8.38346E+03  3.61745E+03  1.22675E+02  1.64108E+03  1.36325E+03  3.77875E+03  2.03465E+01
  4.21479E+03 -2.86177E+03  1.15273E+03  7.56155E+02 -1.26193E+03  2.13749E+03  1.35632E+03  1.04890E+02
 -2.47972E+03 -8.13943E+02  5.77757E+02  1.33803E+03  2.59016E+02 -3.89783E+03 -1.74987E+03 -1.89613E+02
 -6.82671E+02 -2.32300E+02  1.68172E+03  1.66954E+03 -7.21872E+02 -1.44656E+03  2.25798E+03  1.25975E+03
  3.06784E+03  6.59141E+02  3.20525E+03 -1.44918E+03 -2.09457E+03  5.16090E+03 -3.36156E+02 -1.42096E+03
 -2.85437E+03  9.16638E+02  1.34407E+03 -1.13663E+03 -4.65308E+03  3.70247E+03 -2.90743E+02  1.24408E+03
  6.76254E+02 -1.33573E+03 -1.02918E+03  5.39065E+02  2.07610E+03  1.35898E+03  1.68209E+03 -4.18579E+03
 -2.65947E+03  2.56955E+03 -4.77155E+03 -4.98719E+02 -6.18867E+02 -7.37032E+03  2.14804E+03 -2.51977E+03
 -1.26839E+03  1.55463E+03  1.38924E+03 -1.66780E+03  5.74016E+03 -2.99052E+03 -2.37575E+03  3.66117E+03
  6.84481E+02  4.36078E+03 -2.41702E+02  7.71727E+02 -1.93998E+03 -3.39685E+03 -8.15110E+02 -8.96449E+02
  1.25099E+03  1.28853E+03  3.53611E+03 -2.70239E+03  7.80536E+02  1.06396E+03  3.23966E+02  4.64364E+03
 -8.49301E+02  1.47903E+02 -1.25700E+03  2.33158E+01  2.59402E+03 -6.34629E+02 -1.48466E+03 -1.06582E+03
 -1.52211E+03  2.11926E+03 -1.77735E+03  1.97597E+03 -5.23115E+02  2.18700E+03 -2.01104E+03 -2.75720E+03
 -1.09581E+03  2.93472E+03 -2.19690E+03  3.72581E+02 -9.45397E+02  3.42592E+03 -1.33513E+03 -2.76217E+03
 -2.60167E+03  1.35231E+02 -5.88775E+02  3.85054E+03 -2.61522E+03  4.29123E+02 -1.53275E+03 -2.41545E+03
 -6.36631E+01 -2.87153E+02  2.60873E+03  7.69217E+01 -1.42354E+02  1.02452E+03  2.34296E+03  1.77327E+03
  3.75361E+03 -1.27327E+03 -2.32150E+02  1.69777E+03  3.78930E+03  5.33995E+03 -7.34583E+02 -6.73906E+02
  2.38971E+03 -1.41951E+02  5.37899E+03 -1.92553E+03 -1.09916E+03  3.41518E+03 -1.22311E+03 -4.02847E+02
  1.05526E+03  2.16986E+03  1.60036E+03  1.10245E+03 -1.27548E+01 -9.75678E+02  1.78178E+03 -1.45684E+03
  6.85661E+02  2.86688E+03 -2.53241E+03 -6.42604E+02  3.32620E+03  2.44130E+03  1.53440E+02  1.59531E+03
  2.67232E+02  4.41448E+03  1.19921E+03 -5.04850E-01 -1.82451E+03 -1.76454E+03  7.98538E+00 -3.53747E+03
  1.96173E+03 -1.60658E+02 -8.20060E+02 -1.39237E+03  2.58369E+03  3.50830E+03 -1.37275E+03  1.07160E+03
 -2.57140E+03 -2.56009E+03  1.57708E+03  3.97466E+02  1.35420E+02  1.14715E+03  1.33017E+03  6.49907E+02
 -1.34706E+03 -1.59282E+03 -7.42454E+02  2.19029E+03  2.17898E+03  1.87810E+03 -2.65642E+02  5.11583E+02
 -3.13276E+03 -4.01222E+03 -4.70018E+02  2.89607E+03  8.83515E+01 -1.15312E+03 -4.17429E+02 -3.54865E+03
 -2.29769E+03 -3.51656E+02 -1.16002E+03  5.96260E+01 -5.61474E+02  2.25524E+03  3.95158E+02 -4.44025E+02
 -4.39021E+02  1.01290E+03 -3.63203E+03 -1.33055E+03  2.65383E+03  2.78080E+03  1.12388E+03  7.97273E+02
  1.15405E+03  5.18457E+02 -1.90531E+03 -1.56751E+03 -1.85815E+03 -1.78044E+03  7.78713E+02  8.82827E+02
  2.53324E+03  3.72121E+03  4.04718E+03  4.33192E+03  4.44159E+03 -3.70608E+03  8.88944E+02 -3.66953E+03
 -1.83597E+03 -2.21872E+03 -3.78912E+03 -2.08886E+03  6.83083E+02 -1.51917E+03 -1.13367E+03  1.43302E+03
