 $NMID ID='MM_0lb_SNR50_15hz_g40_45.RAW', FMTDAT='(8E13.5)'
 TRAMP=1., VOLUME=1. $END
  3.14749E+05 -9.60135E+02  3.41086E+05  2.52609E+05  8.46578E+04  3.37057E+05 -1.32269E+05  2.53414E+05
 -1.91446E+05  8.19050E+04 -1.09748E+05 -3.32178E+04  4.54953E+02 -5.35530E+04  5.16646E+04 -2.39373E+03
  3.44482E+04  4.59768E+04 -1.98299E+04  7.61811E+04 -5.89865E+04  6.31986E+04 -8.11094E+04  3.18176E+04
 -7.79798E+04 -1.34648E+04 -5.63187E+04 -5.68448E+04 -1.58603E+04 -7.05017E+04  2.38066E+04 -4.76958E+04
  4.07898E+04  6.55731E+03  1.99112E+04  4.69294E+04 -3.36866E+04  4.87926E+04 -6.46737E+04  1.40943E+03
 -5.48041E+04 -5.37520E+04 -3.95571E+03 -7.20734E+04  3.62716E+04 -5.33057E+04  4.59260E+04 -1.86441E+04
  4.24687E+04  1.13049E+04  2.88907E+04  2.60614E+04  1.15938E+04  2.87847E+04 -9.17823E+03  2.85139E+04
 -2.09644E+04  1.61223E+04 -2.08234E+04 -4.51920E+03  8.99836E+03 -4.85324E+03  2.48615E+04  9.85087E+03
  6.46366E+03  3.79509E+04 -3.04982E+04  3.61112E+04 -6.29922E+04  2.44539E+03 -5.82554E+04 -4.25872E+04
 -1.35368E+04 -6.16739E+04  3.92037E+04 -4.44435E+04  5.31358E+04 -5.76640E+03  3.14794E+04  3.20377E+04
 -6.06553E+03  3.50737E+04 -2.47533E+04  1.74068E+04 -2.55180E+04 -1.93363E+03 -1.58780E+04 -8.02562E+03
 -8.56552E+03 -7.89898E+03 -2.71453E+02 -1.87406E+04  8.53324E+03 -2.55381E+04  1.64659E+04 -1.18919E+04
  1.09463E+04  7.86771E+03 -8.34632E+03  1.30796E+04 -1.93374E+04  1.20756E+03 -8.51231E+03 -3.13268E+04
  2.06179E+04 -4.17183E+04  4.67098E+04 -1.68849E+04  4.20533E+04  1.71466E+04  1.35540E+04  4.11870E+04
 -1.42882E+04  3.55485E+04 -2.54152E+04 -6.71978E+02 -1.18534E+04 -2.38781E+04  1.75409E+04 -3.53160E+04
  4.03615E+04 -1.07227E+04  3.51938E+04  2.03048E+04  1.69015E+04  4.85529E+04 -6.46978E+03  4.65402E+04
 -2.75944E+04  3.08025E+04 -4.17033E+04  1.41141E+04 -3.99478E+04 -1.43134E+04 -2.17571E+04 -3.81187E+04
  7.25795E+03 -3.95014E+04  3.16626E+04 -1.34154E+04  2.82127E+04  7.87923E+03  1.80183E+02  1.93854E+04
 -1.56766E+04  1.18391E+04 -9.00893E+03 -6.02396E+03  7.01967E+03 -1.32511E+04  1.75578E+04  1.11878E+04
  1.32716E+04  1.90065E+04 -7.67757E+03  2.63243E+04 -2.67405E+04  1.38370E+04 -2.80647E+04 -5.46727E+03
 -1.87444E+04 -2.07565E+04 -1.24471E+04 -1.93220E+04  4.71530E+03 -1.90047E+04  1.68620E+04 -1.22494E+04
  2.27281E+04 -1.33285E+04  2.88266E+04  1.25219E+03  2.41598E+04  1.97800E+04  3.62851E+03  3.10753E+04
 -1.53684E+04  3.29917E+04 -2.62700E+04  2.64874E+03 -2.39840E+04 -1.14639E+04 -7.13011E+03 -1.68630E+04
  1.95578E+03 -1.95104E+03 -2.36696E+03  6.13094E+03 -1.60381E+04  1.81344E+03 -1.57984E+04 -8.11986E+03
 -7.70000E+03 -1.89229E+04  4.89741E+03 -2.19891E+04  1.01855E+04 -2.03102E+04  1.70333E+04 -5.92335E+02
  9.13589E+03  1.51779E+04 -1.44525E+03  1.83986E+04 -1.03829E+04  1.04652E+04 -1.71224E+04 -7.60281E+03
 -1.13212E+04 -1.59055E+04  6.22872E+01 -2.14821E+04  6.89686E+03 -1.75138E+04  1.65423E+04 -9.79732E+03
  1.63380E+04 -4.79149E+03  1.31711E+04  2.67165E+03  6.39798E+03 -4.07901E+02  7.01513E+03 -2.40758E+03
  1.37589E+04 -1.03396E+03  2.18308E+04  1.32884E+04  1.14501E+04  2.70157E+04 -1.22405E+03  3.31663E+04
 -1.89856E+04  2.16588E+04 -2.16524E+04  1.27666E+04 -3.06396E+04 -5.14591E+02 -2.65664E+04 -2.13932E+04
 -1.06433E+04 -2.12158E+04  9.76846E+03 -2.73165E+04  2.17231E+04 -1.07355E+04  1.27760E+04  4.73186E+03
  6.16715E+03  1.48485E+04 -1.03635E+04  7.62899E+03 -1.83269E+04 -2.67910E+03 -1.09334E+04 -9.93607E+03
  1.40271E+03 -1.13004E+04  1.36764E+04 -6.09294E+03  9.32236E+03 -1.24874E+03  2.76244E+03  1.24745E+04
 -4.87131E+03  4.93270E+03 -4.32385E+03 -3.67086E+03  1.69184E+03 -1.28533E+04  1.06670E+04 -1.51648E+04
  1.28532E+04 -8.13983E+03  2.18147E+04  1.94838E+03  1.42975E+04  1.09947E+04  5.75527E+03  1.48721E+04
 -7.74730E+03  2.03436E+04 -9.07646E+03  1.20948E+04 -1.09445E+04  1.67020E+03 -7.76296E+03 -4.76156E+03
 -3.33025E+03  1.31208E+03  1.65230E+02  6.15246E+02 -3.74379E+03  6.65714E+02 -7.17113E+03  9.46783E+02
 -8.07251E+03 -1.77590E+03 -8.88301E+03 -7.46230E+03 -3.65728E+03 -1.50584E+04  5.60944E+03 -1.19794E+04
  1.16823E+04 -5.66755E+03  4.69861E+03  7.44136E+03 -3.99334E+03  5.37842E+03 -6.27719E+03  1.39306E+03
 -1.81359E+03 -6.58934E+03  3.17815E+02 -1.14708E+04  6.55287E+03 -1.14662E+04  1.38240E+04 -1.36922E+03
  1.22507E+04  1.45869E+03  8.31337E+03  1.01624E+04  4.60496E+03  1.25761E+04 -9.21613E+03  8.28932E+03
 -8.41412E+03  4.65758E+03 -5.17005E+03  1.17935E+03 -3.30651E+02 -6.17991E+03  8.12363E+03 -9.92124E+02
  2.95038E+03  7.36823E+03  2.66331E+03  8.05238E+03 -5.85844E+03  8.33414E+03 -9.61551E+03  2.66420E+03
 -5.02964E+03 -2.57143E+03 -3.51905E+02 -7.56530E+03  3.29130E+03 -6.12368E+02 -1.94180E+03  5.36619E+03
 -4.01896E+02  4.43858E+03 -5.26485E+03  9.42353E+03 -7.84427E+03 -1.76883E+03 -6.65045E+03 -6.66227E+03
 -2.28394E+03 -9.00220E+03  4.08628E+03 -6.29238E+03  9.32962E+03 -5.28833E+03  1.03658E+04 -2.45263E+02
  3.73445E+03  6.10042E+03  2.73171E+03  1.25015E+04 -7.70678E+03  6.88017E+03 -8.83492E+03 -2.21658E+03
 -9.32876E+03 -5.69948E+03 -4.80357E+03 -9.81914E+03  7.47128E+03 -3.15843E+03  5.30147E+03 -9.68697E+02
  3.22997E+03  3.04977E+03  3.07900E+03  4.34968E+03  6.02572E+02 -9.10202E+03  3.24710E+03 -1.84945E+03
  1.08842E+04  5.69260E+02  1.12305E+04 -1.39388E+03  7.24057E+03  2.45658E+03  4.69055E+03  8.09353E+03
 -2.09937E+02  1.48344E+04 -1.23156E+04  1.23888E+04 -1.17803E+04  7.31109E+02 -1.05988E+04 -2.13324E+03
 -2.86703E+03 -1.19650E+04 -4.81782E+01 -4.63326E+03  4.41478E+03 -4.51620E+03 -7.47297E+02 -1.41879E+03
  5.39505E+02 -8.04663E+02  1.74709E+03 -3.04934E+03  5.14604E+03 -1.14423E+02  9.13390E+03  4.38333E+02
  9.35407E+03 -5.49781E+01 -2.35382E+03  1.11121E+03 -6.42317E+03  5.59365E+03 -7.39350E+03  2.51538E+03
 -7.09031E+03 -5.10041E+03 -5.08109E+03 -4.42138E+03  1.33854E+03 -1.35308E+04  7.42487E+02 -8.88026E+03
  7.57927E+03 -1.73871E+03  9.34417E+03  6.04068E+02  5.38019E+03  6.28365E+03  2.12217E+03  7.44728E+03
 -1.63183E+02  1.24551E+04 -7.63449E+03  1.38358E+03 -6.06248E+03 -1.00674E+03 -2.86872E+03 -3.17548E+03
 -2.11654E+03  1.87024E+03 -5.65424E+03  5.57224E+03 -1.56618E+03 -1.47444E+03 -4.91556E+03  1.82694E+01
 -2.52711E+03 -6.51691E+03  3.97648E+02 -5.34634E+03  5.40260E+03 -6.58110E+03  9.94026E+03 -8.49304E+02
  9.39366E+03  3.40615E+03  6.34973E+03  4.78237E+03 -4.33942E+03  2.62242E+03 -4.49292E+03  3.51521E+03
 -1.09345E+04  6.64458E+02 -9.49960E+03 -1.24188E+02 -1.27918E+03 -7.36131E+03  1.78063E+03 -6.30175E+03
  3.34644E+03  1.93405E+03  5.28334E+03  2.39296E+03  2.83855E+03  4.86373E+03  1.89318E+03 -8.54339E+02
 -5.12218E+03 -1.94835E+03 -2.03571E+02 -2.07952E+02  8.54077E+02  6.04615E+03  5.56075E+03  4.50414E+03
 -4.34377E+03  5.35420E+03  1.86985E+03  5.75268E+03 -4.05058E+03  2.81253E+03 -1.14555E+04 -7.06804E+03
 -3.58687E+03 -9.43342E+03  3.97021E+03 -8.50751E+03  1.30351E+03 -5.57175E+03  5.88250E+03  1.34970E+02
  8.69727E+03  2.20599E+03 -2.15318E+03  6.71906E+03  7.33179E+02 -1.24437E+03 -2.69430E+03 -3.08478E+03
  4.79624E+01 -4.01991E+03  2.00302E+02 -3.67437E+03  1.63669E+03 -2.53710E+03  6.04477E+03 -1.43397E+03
  2.00491E+03  5.58968E+02  3.19741E+03  5.48002E+03 -2.37685E+03  5.49548E+02  5.12855E+03  1.50732E+03
  1.60183E+03 -3.94055E+02 -2.10904E+03  6.49221E+03 -3.03305E+02  3.78922E+03 -2.04657E+02  8.35716E+02
 -9.72337E+03 -8.35467E+02 -6.61285E+03  2.91115E+01 -3.70154E+03 -5.41109E+02  1.20417E+03  3.38677E+03
  7.00832E+02  3.03762E+02 -1.42425E+02 -1.69795E+03  4.87163E+03 -1.44549E+03 -6.92702E+02  2.54384E+03
 -4.61886E+03  1.99927E+03  1.43966E+03 -6.23422E+03 -6.37299E+02 -1.66798E+03 -1.49443E+02 -2.47541E+03
  7.36824E+03  8.21168E+02 -8.55144E+02 -8.57555E+02  4.15554E+02  1.68667E+02 -3.00735E+02  8.38386E+02
  4.09179E+02  3.12319E+02 -3.87780E+03 -2.42365E+03  2.92351E+03 -4.71284E+03  6.83634E+03 -1.07664E+03
  2.28730E+03 -1.29739E+02  7.25548E+01  5.57261E+03  2.42694E+03  2.44546E+03 -3.90714E+00  5.33658E+03
 -7.05315E+03  3.31142E+03 -2.59489E+03  4.38477E+03 -3.55915E+03 -2.01157E+03 -9.29995E+02 -1.85598E+03
  1.21385E+02  3.16498E+02  5.07668E+03  1.06423E+03 -1.06992E+03  1.62739E+03 -4.84071E+03  2.07137E+03
 -6.80650E+02  7.92767E+02 -4.30128E+03  2.19713E+03 -1.70581E+03  7.75736E+02  8.77701E+02  5.61079E+03
 -4.42047E+03  2.70687E+03 -3.54232E+03  1.25189E+03 -2.59423E+03 -2.07612E+03 -4.12950E+03 -1.46223E+03
  1.86943E+03  9.96355E+01  3.76213E+03 -5.16514E+03  3.44478E+03 -7.79356E+03  7.19873E+03 -5.91155E+03
  6.35451E+03  3.39764E+03  5.19987E+03  3.30680E+03  5.89810E+02  4.31540E+03 -8.50240E+01  6.09024E+02
  1.97979E+03  2.09579E+03  2.77273E+03  1.41242E+03  3.18020E+03 -3.54305E+03  1.75574E+03  2.41849E+03
 -1.41227E+03 -4.80749E+02 -6.45293E+03  3.78753E+03 -1.11911E+03 -2.40951E+03 -3.53374E+03 -1.92753E+03
  7.35100E+03 -9.28462E+02  1.21639E+03  2.78386E+03  1.39106E+03  4.91845E+03  2.84983E+03  5.62031E+03
 -1.82593E+03  4.46714E+03 -2.84652E+03  1.15663E+03 -6.24956E+03 -5.16253E+03 -3.58635E+03 -6.05041E+03
 -1.48874E+03 -2.68456E+03  2.42079E+03  6.27908E+03  3.41212E+03  7.93926E+02  3.63615E+02 -3.10992E+03
  2.81372E+03 -4.47514E+03 -8.39647E+02  8.93525E+02 -1.50460E+03 -2.21879E+03 -2.26215E+03  5.44697E+03
 -1.02694E+03 -2.08149E+02  3.28886E+03  3.39894E+03 -2.22848E+03 -6.91982E+02  1.83734E+02 -1.93025E+03
  3.74090E+03  1.85599E+03 -2.44711E+03 -3.89337E+03 -1.33571E+03 -2.30032E+02 -1.43506E+03 -1.30328E+03
  1.70441E+03 -2.43116E+03  2.01255E+03 -1.52632E+03  4.05050E+03 -1.18261E+03  2.24438E+03  7.89909E+03
 -3.82818E+02  5.84172E+03 -1.50104E+03  5.15609E+02 -3.17196E+03  3.05562E+03 -5.26326E+03  2.81360E+03
  2.85314E+03 -1.84629E+03 -7.51009E+02 -4.09541E+03 -2.31592E+03  2.45948E+02 -5.28845E+03  2.50257E+03
 -3.02931E+03 -9.25450E+02  3.78403E+03 -7.06654E+02 -9.13055E+02 -5.19837E+03  5.71757E+03 -4.37971E+03
  3.82481E+03  9.49964E+02 -3.27528E+02 -1.25241E+03 -3.22522E+03  3.08026E+03  1.39463E+03  5.03956E+03
