 $NMID ID='MM_0lb_SNR50_19hz_g45_94.RAW', FMTDAT='(8E13.5)'
 TRAMP=1., VOLUME=1. $END
  3.11331E+05  2.27987E+03  3.32800E+05  2.45926E+05  8.65371E+04  3.37156E+05 -1.30604E+05  2.50415E+05
 -1.88010E+05  8.12728E+04 -1.12660E+05 -2.99019E+04  5.56509E+02 -5.15524E+04  5.59507E+04 -2.05341E+03
  3.41608E+04  4.96529E+04 -2.07036E+04  7.20300E+04 -6.40248E+04  6.22039E+04 -8.15839E+04  3.30149E+04
 -7.82132E+04 -1.31181E+04 -5.61494E+04 -5.18155E+04 -1.48629E+04 -6.70238E+04  2.84535E+04 -4.28589E+04
  3.83871E+04  4.30759E+03  1.25621E+04  4.86567E+04 -3.55172E+04  4.14877E+04 -6.62713E+04 -3.59588E+03
 -5.15875E+04 -5.19377E+04 -8.16082E+02 -7.45383E+04  3.00800E+04 -5.47543E+04  4.44210E+04 -1.77555E+04
  4.34511E+04  1.21461E+04  2.89587E+04  1.98188E+04  1.39657E+04  2.88340E+04 -2.34059E+03  2.77670E+04
 -2.20585E+04  1.59591E+04 -1.89039E+04 -6.08189E+03  2.31494E+03 -6.11040E+03  2.17697E+04  1.10383E+04
  6.81677E+03  3.54091E+04 -2.65821E+04  3.61718E+04 -5.95223E+04  1.85750E+03 -5.73858E+04 -3.89527E+04
 -1.10308E+04 -5.94196E+04  3.83606E+04 -4.06578E+04  5.02881E+04 -1.89510E+03  3.12824E+04  3.34607E+04
 -2.69073E+03  3.44347E+04 -2.72244E+04  1.63981E+04 -2.40036E+04 -6.33602E+03 -1.36329E+04 -8.76194E+03
 -7.05889E+03 -8.00216E+03 -6.54083E+03 -1.51023E+04  4.49321E+03 -2.10377E+04  1.71103E+04 -1.33336E+04
  1.48113E+04  4.37703E+03 -8.77939E+03  9.97833E+03 -1.94500E+04 -3.07718E+03 -7.17350E+03 -3.06335E+04
  2.05451E+04 -3.89298E+04  4.28301E+04 -1.64438E+04  4.37539E+04  2.22350E+04  1.60713E+04  3.81560E+04
 -1.63977E+04  3.52834E+04 -1.78396E+04  1.22375E+03 -6.30248E+03 -2.94965E+04  2.15383E+04 -3.31584E+04
  3.84403E+04 -7.45252E+03  3.05210E+04  2.39738E+04  1.63153E+04  3.81775E+04 -6.85969E+03  4.57805E+04
 -2.75493E+04  3.23296E+04 -4.01119E+04  7.92985E+03 -3.81652E+04 -1.53052E+04 -2.01757E+04 -3.17393E+04
  9.01137E+03 -3.48752E+04  3.18540E+04 -7.36809E+03  2.66883E+04  7.47960E+03  4.28079E+03  1.96871E+04
 -1.33941E+04  8.87783E+03 -9.05571E+03 -9.60108E+03  7.32001E+03 -1.31815E+04  1.68338E+04  5.96445E+03
  1.09290E+04  1.89403E+04 -7.41840E+03  2.10691E+04 -2.14380E+04  8.10425E+03 -2.47940E+04 -6.89029E+03
 -1.99793E+04 -1.89366E+04 -4.18475E+03 -1.51703E+04  4.52695E+03 -1.64126E+04  1.18506E+04 -1.64473E+04
  2.10294E+04 -1.02317E+04  2.76226E+04  4.13249E+02  2.16676E+04  1.49739E+04  4.71506E+03  2.63298E+04
 -1.73551E+04  2.56138E+04 -2.52066E+04  6.53015E+03 -1.82965E+04 -9.99189E+03 -1.82025E+03 -1.47550E+04
  2.79479E+03 -4.53032E+03 -3.03458E+03  3.81762E+03 -1.09889E+04  9.03392E+03 -1.31498E+04 -3.87708E+03
 -1.03977E+04 -1.31442E+04  5.60656E+03 -1.93956E+04  1.19324E+04 -1.00160E+04  1.04420E+04 -3.50581E+02
  8.96467E+03  1.04872E+04  3.61233E+03  1.54484E+04 -1.11405E+04  3.05291E+03 -1.57931E+04 -7.38242E+02
 -1.05793E+04 -1.38744E+04 -1.15179E+02 -2.04940E+04  9.69916E+03 -1.32162E+04  2.16527E+04 -8.08089E+03
  1.63337E+04  1.99513E+03  1.09865E+04  3.86711E+03  6.72297E+03  1.59502E+03  3.74214E+03 -7.85442E+02
  1.44563E+04  1.18710E+03  1.86036E+04  1.33938E+04  7.63706E+03  2.44684E+04 -1.23102E+03  2.62280E+04
 -1.57713E+04  1.78722E+04 -2.47494E+04  5.86600E+03 -2.21060E+04 -4.16106E+03 -2.09921E+04 -1.61920E+04
 -1.33101E+04 -2.19495E+04  2.71622E+03 -1.96842E+04  1.18594E+04 -1.04758E+04  1.25439E+04  1.26964E+01
  3.23625E+03  1.28775E+04 -6.94391E+03  1.44259E+04 -1.36103E+04  5.09222E+03 -8.85920E+03 -1.16849E+04
 -1.19536E+03 -1.49186E+04  5.34169E+03 -1.14191E+04  7.01107E+03 -1.45928E+03 -2.83478E+02  5.46432E+03
 -4.26707E+03 -9.39833E+01 -2.36030E+03 -4.71167E+03  3.55598E+03 -6.77954E+03  7.37404E+03 -1.08200E+04
  1.10234E+04 -2.88810E+03  1.06285E+04  4.17421E+03  1.16020E+04  1.02361E+04  2.71439E+03  1.49106E+04
 -1.61899E+03  1.15967E+04 -9.54166E+03  1.17226E+04 -1.15926E+04  2.62383E+03 -1.05801E+04 -4.96419E+03
 -2.05640E+03 -5.63816E+03  6.93072E+02  2.71856E+03 -5.58581E+03  4.19292E+03 -5.93518E+03  4.58061E+03
 -7.09635E+03  3.29140E+03 -7.92758E+03 -8.26155E+03 -6.86819E+03 -1.59707E+04  5.88441E+03 -1.36646E+04
  4.97724E+03 -7.31815E+03  4.57598E+03 -3.22280E+03 -5.22840E+03  4.71460E+03 -4.86580E+03 -2.55679E+03
 -1.21625E+03 -1.31734E+03  1.25023E+02 -7.69819E+03  4.72488E+03 -6.73582E+03  6.92868E+03 -5.18325E+03
  9.06538E+03  2.26916E+03  6.13421E+03  2.06756E+03 -6.94038E+02  1.09559E+04 -7.28812E+03  5.99638E+03
 -6.35833E+03  3.70854E+03 -2.20949E+03 -1.63951E+03  2.18109E+02 -2.01231E+03  3.88130E+03 -1.83991E+03
  7.99701E+03  3.30690E+03  2.46678E+03  4.84569E+03 -3.18738E+03  1.40479E+03 -8.85021E+03  6.17399E+03
 -4.06818E+03 -1.36088E+03  1.47580E+03 -7.37081E+03  2.92226E+03  3.22394E+02  4.37089E+03  8.54044E+02
  2.45681E+03  6.19189E+03 -4.72646E+03  2.70177E+03 -4.17885E+03  1.72266E+03 -2.36406E+03 -6.61720E+02
  2.04015E+02 -1.49695E+03 -3.11549E+03 -5.35903E+03  6.74702E+03 -2.91610E+03  6.75113E+03  4.89297E+03
 -2.98643E+02  8.35777E+02  2.20458E+03  9.21398E+03 -3.21550E+03  1.73357E+03 -5.46238E+03  1.83867E+03
 -5.55337E+03 -2.73179E+03 -4.72185E+02  1.30374E+02  2.36534E+03 -1.13620E+03  1.68860E+03  5.25321E+02
  4.60043E+02 -9.85367E+02 -2.90451E+03  3.66256E+03 -4.99419E+02  1.77004E+02  9.02039E+02  9.79998E+01
  2.93161E+03 -2.59782E+03  8.72704E+03 -3.17895E+03  7.12607E+03  8.73754E+02  5.39304E+03  3.53599E+03
 -7.44182E+03  1.12526E+04 -8.85845E+03  8.12557E+03 -1.07031E+04 -1.35827E+03 -7.28758E+03 -1.57278E+03
 -4.17560E+03 -7.98280E+03 -1.49413E+03 -7.25932E+03  6.04627E+03 -2.49664E+03  1.25726E+03 -1.96123E+03
  2.90197E+03 -2.81606E+01  4.18340E+03 -6.13226E+03  1.92996E+03  9.62682E+02  4.90397E+02 -2.40296E+03
  5.44927E+03 -2.47371E+03  1.74510E+03  4.76831E+03  2.51725E+03  3.57902E+03 -3.30211E+03 -2.22777E+01
 -7.87092E+03 -5.49010E+02 -3.22896E+03 -1.17940E+03 -2.37974E+03 -7.27544E+03  3.89592E+03 -7.26743E+03
  4.48721E+03 -3.32414E+03  5.49465E+03 -2.92800E+03  3.50230E+03  2.36361E+03  8.18828E+02  7.32864E+03
 -1.51520E+03  7.68495E+03 -7.25416E+02  4.13284E+03 -6.16343E+02 -2.32571E+03 -3.51911E+03  1.33039E+03
  1.71772E+03 -5.57677E+02 -1.75111E+03  1.28689E+03 -2.79166E+03 -1.25636E+03 -2.07247E+03  1.03073E+03
 -1.76786E+03 -1.31301E+03  5.13542E+03 -7.67467E+03  3.54796E+03 -5.43128E+03  4.52811E+03 -1.81194E+03
 -1.41529E+03  1.57387E+03 -2.44538E+02 -1.09926E+02 -5.11243E+02  2.14534E+03 -3.08967E+03  2.92126E+03
 -1.29612E+03  5.62585E+03 -4.09701E+03 -2.52442E+03  2.82647E+03 -4.17701E+03  2.90953E+03 -2.82313E+03
  4.74443E+03  7.95262E+02  6.60437E+03 -9.00138E+02 -2.53276E+02  1.98284E+03  9.06990E+02  3.13363E+03
  6.30841E+02  3.68286E+02  4.08641E+03 -2.47139E+03 -3.01797E+03 -6.97914E+02  2.87521E+03  4.95768E+03
 -1.28478E+03  2.71978E+03 -2.34816E+03  4.17787E+03  1.41159E+01 -1.64410E+03 -7.40857E+03  1.71880E+03
 -1.89880E+03 -3.32934E+03 -2.59370E+03 -3.65554E+03  3.74173E+03 -7.79669E+02  5.46965E+03 -3.64409E+02
  2.01730E+03  1.63176E+02  1.54064E+03  3.71515E+03  9.07025E+02  1.59704E+03 -2.12850E+03  1.75294E+03
 -1.42511E+02 -2.97932E+03  4.60653E+03  1.63119E+03  2.91921E+03 -1.18047E+03  1.27672E+03  1.36218E+03
  2.37167E+03 -1.96104E+03 -9.20211E+02  2.99348E+03 -1.06620E+03  3.09026E+03  2.24201E+03 -1.52202E+03
  2.19313E+03 -3.49102E+02  5.35672E+03 -1.93208E+03 -2.16139E+03 -7.13476E+02 -7.75089E+02  1.60522E+03
 -3.64701E+03  3.47721E+03  3.03074E+02 -4.40017E+02 -4.74457E+03 -2.40811E+03  8.62843E+02  1.10476E+03
  3.63976E+03 -4.27699E+03  4.28135E+03 -8.78968E+02  3.56000E+02  4.68416E+03  2.25418E+03  3.12333E+03
 -6.07254E+03  5.76198E+02  5.48452E+03 -4.13553E+03  2.18626E+02 -2.48821E+03  1.00522E+03 -4.52524E+03
 -3.13040E+01  1.90904E+03 -6.19014E+02  4.55405E+03 -3.41271E+03  8.53389E+02 -5.15398E+02  2.88376E+03
 -2.22273E+03  2.37124E+03 -2.60809E+03 -5.49654E+03  3.21694E+02 -3.22109E+02  3.40715E+03  8.50736E+02
  1.06604E+02  2.54700E+03  5.17283E+03 -4.81571E+02 -1.68112E+03  1.15828E+03 -3.44377E+03  2.33848E+03
 -2.12462E+03 -9.00601E+01 -2.23705E+03 -1.06978E+03  1.81345E+03 -3.80788E+03 -1.42762E+03  2.26470E+03
 -1.76353E+03 -3.27257E+03  1.66263E+03  2.48055E+03  9.26464E+02  4.08867E+03  1.98786E+03  4.88946E+03
 -8.69542E+02  1.08490E+03 -8.99609E+02 -2.32073E+03 -3.09329E+03  1.24916E+03  2.23819E+03 -3.17034E+03
 -1.42506E+02  3.94874E+01 -5.04403E+03  1.43503E+03  2.74799E+03  5.28498E+03 -5.54497E+03 -3.64701E+02
 -4.32795E+03 -2.16546E+03 -2.57882E+03 -2.30550E+03  3.61157E+03 -3.13810E+03  1.79023E+03 -1.39323E+03
  1.51661E+03  1.83930E+03 -1.94510E+03  1.95947E+03 -6.80566E+02  6.37070E+02 -2.31981E+03  3.07949E+03
  2.06687E+02  3.01140E+02 -2.66018E+02  1.12001E+03 -1.92350E+03 -2.86053E+03 -1.15553E+03 -3.19085E+03
  1.82792E+03  1.22312E+03  9.94536E+02 -2.73336E+03 -6.01370E+03  7.54719E+02  4.09753E+02 -1.69247E+03
  1.66801E+03 -3.83361E+03  1.79856E+03  2.35964E+02  2.14739E+02 -9.80324E+02  9.08035E+00  6.50483E+02
 -1.41768E+03  6.72536E+03 -4.41122E+03 -3.14151E+03 -9.86128E+02 -4.32897E+03 -2.15769E+03 -8.12407E+02
 -1.23388E+03  3.85497E+03  1.10047E+03 -4.64541E+03 -1.88648E+03  2.86879E+03 -2.55768E+03  1.86957E+03
 -2.53787E+03  1.97843E+03 -5.41212E+02 -2.10677E+03 -6.20220E+02  1.72424E+03  2.70945E+03 -1.99490E+03
 -5.11230E+02 -2.62633E+03  5.60084E+02  2.21850E+03  8.58463E+02  5.21605E+02  2.87571E+03 -3.21213E+03
  1.67816E+01 -3.64914E+02  2.56733E+02 -2.43401E+03  8.66024E+02 -4.14263E+03  2.47978E+03  7.03324E+02
  4.09380E+03 -2.88559E+01  3.37302E+03 -3.14866E+03 -1.59245E+02  7.20499E+02 -2.80752E+02 -2.20774E+01
  2.07807E+03  2.18695E+03 -2.02837E+03  1.20081E+03  4.69984E+02  5.53214E+03 -3.59224E+03 -1.27762E+03
  5.34954E+02  4.53362E+03 -1.03699E+03 -7.01118E+03  9.32418E+02 -4.59155E+02  2.41662E+03 -1.21173E+03
 -5.12536E+03 -1.14175E+03 -4.94455E+03 -1.36958E+02  1.90759E+03 -3.33738E+03 -3.15290E+03 -2.90952E+03
  4.01953E+03 -4.81898E+02  1.16685E+03 -2.94483E+03 -4.10975E+02  2.22835E+03 -4.93616E+03 -3.76081E+03
