 $NMID ID='MM_0lb_SNR50_8hz_g55_62.RAW', FMTDAT='(8E13.5)'
 TRAMP=1., VOLUME=1. $END
  3.09809E+05  1.80710E+03  3.37843E+05  2.55604E+05  8.21209E+04  3.32390E+05 -1.32233E+05  2.44085E+05
 -1.89845E+05  8.21431E+04 -1.11244E+05 -3.73730E+04  5.58826E+02 -5.46696E+04  5.50339E+04  1.60269E+03
  3.56923E+04  5.98342E+04 -1.24314E+04  8.43154E+04 -6.37830E+04  6.60919E+04 -8.28354E+04  3.11329E+04
 -7.42006E+04 -1.39142E+04 -5.99510E+04 -5.64205E+04 -1.37096E+04 -7.18535E+04  3.01980E+04 -5.18533E+04
  4.29375E+04  6.60246E+03  1.34007E+04  4.99462E+04 -2.98988E+04  4.82224E+04 -7.14042E+04  5.78635E+03
 -5.60880E+04 -5.57418E+04 -1.39034E+04 -7.63745E+04  3.64464E+04 -6.26034E+04  4.61670E+04 -1.94382E+04
  4.65408E+04  9.08883E+03  3.39462E+04  2.92239E+04  1.72474E+04  2.71641E+04 -9.62331E+03  2.62226E+04
 -2.97543E+04  1.62380E+04 -2.17430E+04 -8.50510E+03  1.36387E+04 -7.78507E+03  2.67272E+04  1.15238E+04
  5.59567E+03  3.59544E+04 -3.50055E+04  3.69874E+04 -7.11849E+04 -5.21763E+03 -5.40821E+04 -5.25402E+04
 -1.09696E+04 -6.11255E+04  3.62988E+04 -4.85197E+04  5.73966E+04 -1.77273E+03  4.23084E+04  3.40217E+04
 -2.66579E+03  3.98413E+04 -2.94448E+04  1.85362E+04 -3.43195E+04  1.84596E+03 -3.04333E+04 -1.47751E+04
 -5.30975E+03 -1.39790E+04  4.38902E+03 -1.70782E+04  1.10911E+04 -2.33414E+04  1.58960E+04 -1.23699E+04
  1.09476E+04  1.06061E+04 -1.30663E+04  1.56371E+04 -2.07010E+04 -6.65330E+03 -5.33415E+03 -4.23655E+04
  2.63143E+04 -5.12357E+04  5.44534E+04 -1.99668E+04  5.14615E+04  2.27472E+04  1.59044E+04  5.02938E+04
 -1.48977E+04  3.69547E+04 -2.86256E+04  1.36928E+03 -4.66573E+03 -3.24300E+04  2.67853E+04 -3.72780E+04
  4.99251E+04 -1.26369E+04  4.45497E+04  2.62076E+04  2.25190E+04  4.91813E+04 -9.91406E+03  5.21199E+04
 -3.40680E+04  3.81053E+04 -4.61597E+04  2.79753E+03 -4.46955E+04 -9.73748E+03 -2.69231E+04 -5.29228E+04
  2.50730E+03 -4.43486E+04  3.07770E+04 -2.01271E+04  3.20148E+04  8.65616E+03  3.25003E+03  2.50058E+04
 -1.01811E+04  6.67642E+03 -1.36299E+04 -5.71373E+03  1.67967E+03 -8.59015E+03  2.42471E+04  9.97851E+02
  6.85030E+03  2.23182E+04 -4.47744E+03  2.90952E+04 -1.84883E+04  1.23085E+04 -3.05167E+04 -3.23914E+03
 -2.35834E+04 -2.62230E+04 -1.80135E+04 -2.36666E+04 -1.42134E+03 -2.57820E+04  1.96396E+04 -2.67019E+04
  3.26563E+04 -1.47300E+04  4.16988E+04 -3.01937E+02  2.08847E+04  2.44264E+04  5.79673E+03  4.04003E+04
 -1.62054E+04  3.00330E+04 -2.80386E+04  9.67753E+03 -2.22724E+04 -1.01075E+04 -1.87154E+03 -7.36042E+03
  4.93665E+03 -3.25397E+03 -1.06272E+04  8.53364E+03 -2.65473E+04  2.94166E+03 -1.98368E+04 -6.46040E+03
 -2.06112E+04 -2.87118E+04 -1.42051E+02 -2.37533E+04  1.89565E+04 -9.86561E+03  2.61638E+04 -2.84987E+03
  1.59580E+04  1.47463E+04 -7.56558E+03  2.76139E+04 -2.02665E+04  1.12534E+04 -2.29795E+04  6.50587E+02
 -1.68990E+04 -1.50841E+04 -4.60912E+03 -2.89208E+04  1.30175E+04 -2.62864E+04  1.83396E+04 -2.11306E+04
  2.28512E+04  2.28894E+03  1.66401E+04  2.58663E+03  5.96957E+03  9.72289E+03  1.41472E+04 -1.97330E+03
  2.38198E+04  1.50459E+03  2.58201E+04  2.76611E+04  2.46680E+04  4.66557E+04 -6.97372E+03  4.31676E+04
 -2.78397E+04  3.53241E+04 -4.06360E+04  2.44711E+04 -5.65350E+04  2.05210E+02 -3.79912E+04 -2.04652E+04
 -1.60344E+04 -4.67462E+04  2.06665E+04 -3.56454E+04  2.61068E+04 -1.08070E+04  2.84059E+04  1.64356E+04
  8.33691E+03  1.83376E+04 -1.09460E+04  1.96171E+04 -1.80670E+04  4.75068E+03 -1.41806E+04 -1.45949E+04
  4.65619E+03 -2.07264E+04  6.49237E+03 -1.39790E+04  1.31095E+04 -1.80070E+03  1.04509E+04  1.11655E+04
 -6.82479E+03  5.02010E+03 -5.72483E+03 -5.85995E+03  2.00080E+02 -1.90499E+04  1.24909E+04 -2.54973E+04
  3.10856E+04 -1.93282E+04  2.78713E+04  5.88346E+03  1.96856E+04  1.19637E+04  1.09310E+04  3.07235E+04
 -4.03831E+03  3.98685E+04 -2.33668E+04  2.40050E+04 -2.85025E+04  3.97948E+03 -1.75699E+04  3.47120E+03
 -7.14943E+03 -5.73020E+03  3.60485E+03  4.74530E+03 -1.46905E+03  8.14576E+02 -1.14040E+04  1.30340E+04
 -1.79900E+04 -8.54444E+03 -1.72193E+04 -1.14216E+04 -1.06984E+04 -1.99141E+04  1.48277E+04 -1.83396E+04
  1.16071E+04 -9.31678E+03  2.76786E+03  1.02378E+04  2.45532E+02  4.90159E+03 -1.04335E+04 -4.58135E+03
 -1.21499E+04 -8.32579E+03 -6.43067E+03 -1.74470E+04  1.24142E+04 -1.83203E+04  2.04519E+04 -1.25689E+04
  2.42493E+04  4.39148E+03  1.72394E+04  1.99242E+04 -6.97594E+02  2.07297E+04 -1.38545E+04  2.13552E+04
 -1.15681E+04  4.33876E+03  2.65316E+03  5.99233E+02  6.39678E+01  2.17348E+03  9.58062E+03  7.98650E+02
  5.96691E+03  1.14932E+04 -3.24574E+03  1.58101E+04 -8.03942E+03  1.23841E+04 -1.78985E+04  1.65003E+03
 -1.45959E+04 -1.15790E+04 -4.11436E+03 -1.94777E+04  1.45565E+04 -1.20167E+04  2.62404E+03  1.24467E+04
  1.52999E+03  3.75525E+03 -6.80848E+03  7.99470E+03 -1.82409E+04  5.93104E+03 -1.23711E+04  4.09830E+02
 -9.57359E+03 -1.69628E+04 -3.93481E+03 -2.14176E+04  9.71864E+03 -8.48113E+03  1.87145E+04  4.06647E+03
  8.90149E+03  1.56751E+04  1.75144E+02  2.52396E+04 -6.29883E+03  9.08423E+03 -8.98670E+03 -1.54701E+03
 -1.45992E+04 -1.02725E+04 -1.32876E+03 -1.45045E+04 -8.85717E+02 -1.71759E+04  5.15031E+03 -2.27165E+03
  5.59929E+03  9.21877E+03  7.56731E+02  6.69365E+02  1.75397E+03 -6.71476E+03  5.53278E+03 -8.24046E+03
  9.20797E+03 -8.89528E+03  1.21561E+04  4.88196E+03  2.11619E+04  1.58622E+04  1.46951E+04  2.35485E+04
 -1.04510E+04  2.65520E+04 -2.20065E+04  2.41337E+04 -3.41502E+04  5.98767E+03 -2.21777E+04 -7.87877E+03
 -1.94516E+04 -8.77826E+03  3.30220E+03 -1.24042E+04  1.04116E+04 -1.41751E+04 -1.62829E+03 -5.71819E+03
  3.49558E+03 -2.07981E+01  5.85656E+03 -8.11243E+03  7.14301E+03 -7.99216E+02  4.61614E+02  8.23230E+03
  1.38760E+04  1.21770E+03  7.47936E+03  6.07058E+03 -1.80445E+03  1.50935E+04 -1.67272E+04  8.61138E+03
 -1.48313E+04 -3.47762E+03 -1.13632E+04 -1.16224E+04  5.06925E+03 -1.78219E+04  1.32493E+04 -1.23535E+04
  1.66551E+04 -1.07544E+04  1.96686E+04  8.73605E+02  2.30304E+04  1.99124E+04  4.45869E+03  2.11048E+04
 -1.52910E+04  1.22112E+04 -8.18823E+03  1.32312E+04 -1.14211E+04  6.73850E+03 -1.01487E+02 -1.29786E+02
 -4.80338E+03  2.22810E+03 -5.43725E+03  3.27614E+03 -8.82694E+03  4.29360E+03 -1.04850E+04 -5.27184E+03
 -1.16004E+04 -9.92663E+03 -1.26812E+03 -2.08137E+04  7.79766E+03 -1.26767E+04  1.62088E+04 -2.79008E+03
  1.29160E+04  4.93054E+03  7.91663E+03  1.78311E+04 -5.39479E+03  1.79540E+04 -1.25902E+04  9.93829E+03
 -2.09282E+04  3.38420E+03 -1.44123E+04 -8.16577E+03 -3.31283E+03 -1.70675E+04  9.07204E+03 -1.13351E+04
  1.24461E+04 -6.43276E+03  7.44999E+03 -1.08947E+03  1.27052E+03 -3.43521E+02 -1.28089E+03  1.13391E+03
  5.65623E+03  1.89145E+03  1.21247E+03  1.60179E+02  3.80795E+03  8.09764E+03 -1.32186E+03  1.96523E+04
 -4.94695E+03  1.35963E+04 -1.17380E+04  1.69787E+04 -1.94412E+04 -2.46172E+02 -1.91073E+04 -8.71384E+03
  2.11620E+03 -1.77636E+04  5.53321E+03 -1.81817E+04  1.45152E+04 -1.56995E+04  1.63593E+04 -7.00449E+02
  1.47967E+04  1.30817E+04  4.03614E+03  4.67251E+03 -5.39981E+03  1.25146E+04 -1.02123E+03  1.64785E+03
 -8.72607E+03 -7.80039E+03  5.29504E+03 -7.18677E+03  1.02542E+03 -5.31286E+03  1.13373E+04 -2.85728E+03
  6.67090E+03  1.78926E+03 -4.61292E+03  2.87747E+03 -2.03286E+02  2.11536E+02 -6.37300E+02 -1.54303E+03
  2.38999E+03  3.67710E+02  1.34461E+04  1.65748E+02  7.11027E+03  1.22986E+04 -1.47866E+02  1.74924E+04
 -6.67100E+03  1.29523E+04 -7.38634E+03  1.36651E+03 -1.61497E+04 -1.72694E+03 -1.13232E+04 -4.15353E+03
  2.73546E+03 -1.27640E+04  8.78798E+03  3.06644E+03  2.98184E+03  4.35491E+03  1.22794E+03  9.84984E+03
 -1.27051E+04  8.05289E+03 -1.30916E+04 -1.94560E+03 -4.52630E+02 -1.28090E+04  5.07612E+03 -7.04793E+03
  1.08603E+04 -2.44099E+03  9.10167E+03  1.26337E+03  9.19004E+03  8.09519E+02 -6.32571E+01 -8.26639E+00
 -4.84227E+03 -4.47412E+03  2.80211E+02 -2.07788E+03  3.34827E+03 -1.24893E+04  7.25300E+03 -3.88184E+03
  1.69304E+04 -1.38826E+03  1.47989E+04  1.06067E+04  8.17754E+03  1.72719E+04 -4.24947E+03  1.83820E+04
 -1.22772E+04  4.84910E+03 -9.12387E+03 -4.71648E+03 -6.91723E+03 -7.76000E+03 -2.12610E+03 -7.47501E+03
  1.08964E+04 -3.05756E+03  3.31410E+03  7.60909E+02  2.71191E+03  8.31946E+03  5.96174E+02  2.98854E+03
 -1.88880E+02  8.82282E+03 -4.03287E+03 -5.25576E+02  2.22623E+03 -2.33786E+03 -2.47001E+03  7.39659E+03
 -1.14170E+04  1.02691E+04 -8.98849E+03 -9.41462E+02 -1.01799E+04 -2.71953E+03 -1.06988E+04 -1.14273E+04
  6.00451E+02 -1.34894E+04  1.63220E+03 -2.24471E+04  1.33700E+04 -1.71123E+04  2.39663E+04 -3.85797E+03
  1.74896E+04  6.54827E+03  8.31051E+03  8.29381E+03  6.82476E+03  6.16503E+03 -1.07571E+04  7.59048E+03
 -9.02029E+03  5.56801E+03 -6.94145E+03 -2.63699E+03  3.56814E+03  5.28923E+03 -2.28999E+03  7.21828E+02
 -3.48447E+03 -1.85173E+02 -3.07283E+03 -5.45127E+03  2.07053E+03 -1.02445E+04 -7.01808E+03 -2.75354E+03
  7.81119E+03 -9.42860E+03  4.49972E+03 -5.70258E+03  8.42610E+03  3.33638E+03  7.78652E+03  1.22180E+04
 -1.48880E+04  1.55131E+04 -1.85094E+04  5.72587E+03 -1.52605E+04  6.95226E+02 -8.07100E+03 -9.39164E+03
 -2.76812E+03 -1.06478E+04  7.83592E+03 -1.69580E+04  8.69270E+03 -1.78108E+03  1.12704E+04  2.52204E+02
  1.61827E+03  4.41015E+03  2.78008E+03  4.52628E+02  3.07561E+03 -8.16078E+02 -1.32422E+03  1.70853E+02
 -1.41938E+03 -7.41176E+02  9.56709E+03 -1.70190E+02  6.20757E+03  8.66348E+03  2.66033E+03  2.72843E+03
 -6.89168E+03  5.11812E+03 -1.62853E+04  4.51708E+02 -2.87873E+03 -8.59777E+03  3.25593E+02 -1.22519E+04
  1.34225E+04 -1.25783E+04  7.94522E+03 -3.60260E+03  1.02299E+04  6.74772E+03  1.42620E+04  7.57749E+03
 -1.54725E+03  8.72874E+03 -4.60238E+03  7.67302E+03 -9.55889E+03  2.30736E+03 -4.64679E+03 -3.43119E+02
 -5.73090E+03  3.27757E+03  8.82042E+02  2.46916E+03 -7.90499E+02 -2.12667E+02 -8.94667E+03  3.01547E+03
 -9.54844E+03 -6.40472E+03 -5.06021E+03 -1.23690E+04  6.39251E+03 -8.31439E+03  6.70906E+03 -2.86027E+03
  1.28571E+04  1.74576E+03  8.94915E+02  1.05574E+04  2.24979E+02  1.41836E+04 -3.01106E+03  1.02393E+04
