 $NMID ID='MM_0lb_SNR50_15hz_g50_64.RAW', FMTDAT='(8E13.5)'
 TRAMP=1., VOLUME=1. $END
  3.09947E+05 -2.03528E+03  3.36330E+05  2.52203E+05  9.08872E+04  3.37466E+05 -1.33168E+05  2.51550E+05
 -1.90870E+05  8.54077E+04 -1.13194E+05 -3.37166E+04  2.95517E+03 -4.82332E+04  5.37134E+04 -1.58645E+03
  3.16222E+04  4.92138E+04 -2.02748E+04  7.80788E+04 -6.11557E+04  6.31609E+04 -9.03517E+04  3.30111E+04
 -7.73804E+04 -1.20059E+04 -6.26551E+04 -4.95487E+04 -1.33085E+04 -6.92512E+04  2.30599E+04 -4.79759E+04
  4.33253E+04  7.89554E+03  1.49435E+04  4.32662E+04 -3.52964E+04  4.83143E+04 -6.92846E+04 -9.42762E+02
 -5.21535E+04 -5.94882E+04 -4.92094E+03 -7.73297E+04  3.48899E+04 -5.31011E+04  4.81242E+04 -1.97099E+04
  4.29416E+04  1.07436E+04  2.80538E+04  2.28873E+04  1.25195E+04  2.77184E+04 -6.28932E+03  2.78206E+04
 -2.20349E+04  1.05057E+04 -1.59172E+04  1.73105E+03  8.38755E+03 -4.69689E+03  2.18989E+04  1.24676E+04
  4.01036E+03  3.60206E+04 -2.93956E+04  3.50611E+04 -6.56130E+04  2.21641E+03 -5.79383E+04 -4.42526E+04
 -1.06171E+04 -6.57994E+04  4.29193E+04 -4.71357E+04  6.01107E+04 -2.59962E+02  3.80399E+04  2.77673E+04
 -8.28691E+03  3.52105E+04 -2.99832E+04  1.49983E+04 -2.89059E+04 -5.75819E+03 -1.71894E+04 -1.18387E+04
 -9.01053E+03 -1.80684E+04  2.29338E+03 -1.83232E+04  5.01137E+03 -2.58204E+04  1.31492E+04 -1.37003E+04
  1.17238E+04  2.96778E+02 -1.18185E+04  1.56104E+04 -2.06839E+04 -3.78310E+03 -8.60860E+03 -3.24595E+04
  2.33519E+04 -4.23937E+04  4.72630E+04 -2.14954E+04  4.48212E+04  1.54754E+04  1.73157E+04  4.23636E+04
 -1.83465E+04  3.37042E+04 -2.48331E+04 -2.80275E+03 -6.26124E+03 -2.84613E+04  2.28146E+04 -2.91627E+04
  4.63728E+04 -7.19972E+03  3.49272E+04  2.82765E+04  1.79594E+04  4.72985E+04 -9.65411E+03  5.31080E+04
 -3.37678E+04  3.65321E+04 -4.03469E+04  6.23133E+03 -3.99630E+04 -1.70262E+04 -2.01827E+04 -3.94354E+04
  2.28221E+03 -3.24733E+04  2.90582E+04 -7.29906E+03  2.55408E+04  1.46971E+04  4.84575E+03  1.73211E+04
 -1.05123E+04  8.42336E+03 -8.89595E+03 -8.01815E+03  8.42400E+03 -7.16056E+03  1.69048E+04  1.83642E+03
  1.72609E+04  2.26115E+04 -1.11549E+04  2.50238E+04 -2.24939E+04  1.00469E+04 -2.75089E+04 -3.63049E+03
 -1.89021E+04 -2.02528E+04 -1.08752E+04 -1.90179E+04  4.20978E+03 -2.11075E+04  1.49191E+04 -1.50164E+04
  2.58305E+04 -1.63825E+04  3.42017E+04  6.14557E+03  1.77045E+04  1.96330E+04  1.36846E+03  3.38798E+04
 -1.99277E+04  3.13012E+04 -2.39456E+04  9.82591E+03 -2.34306E+04 -1.08791E+04 -4.28768E+03 -1.57571E+04
  1.27377E+02 -6.12901E+03 -5.88953E+03  4.77041E+03 -1.83882E+04  6.59368E+03 -1.29971E+04 -6.22583E+03
 -9.20995E+03 -1.57914E+04  3.62510E+03 -2.36366E+04  1.17786E+04 -1.40914E+04  1.96276E+04 -3.59959E+03
  1.30403E+04  1.11643E+04 -9.62933E+01  2.07165E+04 -1.02547E+04  7.38965E+03 -1.73903E+04 -3.94824E+03
 -1.65583E+04 -1.19881E+04  7.03474E+02 -1.92898E+04  6.93965E+03 -2.15986E+04  1.93279E+04 -1.19919E+04
  1.70937E+04  1.43855E+03  1.23946E+04  7.52398E+03  6.56625E+03 -3.31433E+03  1.41357E+04  1.34878E+03
  1.33429E+04 -1.71637E+03  1.75855E+04  1.55223E+04  1.05983E+04  3.05579E+04 -1.90492E+03  3.38136E+04
 -2.25748E+04  2.82317E+04 -2.84989E+04  7.60309E+03 -3.18016E+04 -1.23024E+03 -2.51524E+04 -1.49129E+04
 -1.46152E+04 -2.52367E+04  7.60922E+03 -2.17991E+04  1.65689E+04 -1.28106E+04  1.49963E+04  6.39695E+03
  8.63301E+03  1.25165E+04 -5.61376E+03  1.11969E+04 -2.19841E+04  3.85264E+03 -9.95576E+03 -1.06420E+04
 -4.33895E+02 -1.36572E+04  9.16391E+03 -1.31422E+04  1.34451E+04 -1.52366E+03  5.26353E+02  6.57891E+03
 -4.87139E+03  2.64711E+03 -2.51826E+03 -6.50437E+03  4.00367E+03 -1.12497E+04  1.25517E+04 -1.31769E+04
  1.41362E+04 -4.13857E+03  1.06303E+04  5.76220E+03  1.69493E+04  1.11442E+04  7.79934E+03  1.97357E+04
 -2.27719E+03  2.32202E+04 -1.73213E+04  1.16651E+04 -1.46599E+04  1.27893E+03 -1.35234E+04 -3.30999E+03
 -8.98833E+03 -3.96863E+03 -1.84841E+03  5.60111E+03 -1.99114E+03  5.31093E+03 -1.95353E+03  2.91911E+03
 -1.10489E+04 -5.33178E+03 -1.08006E+04 -1.00153E+04 -4.21685E+03 -1.49299E+04 -8.95022E+02 -1.01321E+04
  7.58308E+03  6.43913E+01  2.64660E+03  7.24977E+02 -7.53271E+02  4.58379E+03  1.90633E+03  3.92270E+03
 -7.74125E+03 -1.06150E+04  7.03538E+02 -7.41465E+03  3.00035E+03 -1.17232E+04  1.04687E+04 -4.51763E+03
  1.09106E+04 -2.75557E+03  8.60228E+03  8.06336E+03 -1.74848E+03  1.33324E+04 -6.52634E+03  1.20799E+04
 -6.58619E+03  9.08088E+03 -2.22900E+03 -1.68315E+03 -1.76180E+03 -9.39423E+02  9.41109E+03 -2.14777E+03
  5.65428E+03  6.29005E+03  5.13750E+03  1.07845E+04 -6.16288E+03  6.86933E+03 -1.30660E+04  3.97357E+02
 -1.03270E+04 -3.37536E+03 -1.54190E+03 -7.35472E+03  8.35341E+03 -6.92446E+03  3.76413E+03 -4.36998E+03
  5.66973E+02  6.17131E+03 -7.05897E+03  5.22326E+03 -6.66064E+03  1.59968E+03 -4.37948E+03 -4.18161E+03
 -6.96065E+03 -4.49407E+03  2.35933E+03 -9.25276E+03  1.08692E+04 -1.80172E+03  8.03854E+03  3.80223E+03
  7.52558E+03  8.50357E+03  3.81161E+02  1.16901E+04 -6.11149E+03  5.97332E+03 -6.72132E+03 -3.11847E+03
 -8.90257E+03 -2.85829E+03 -5.04143E+01 -7.36037E+03  3.28970E+03 -1.06207E+04  7.98788E+03 -3.33705E+03
  2.25693E+03  9.04461E+01  1.75144E+03  9.43717E+02 -2.61415E+03 -5.02925E+03  1.36385E+03 -1.65381E+03
  7.03779E+03 -2.06064E+03  3.80712E+03 -1.49337E+03  6.80776E+03  9.10617E+03  5.51032E+03  8.56845E+03
 -4.77119E+02  1.12116E+04 -1.19001E+04  7.83047E+03 -1.94927E+04  6.46044E+02 -9.99384E+03 -7.23279E+03
 -2.60209E+03 -1.00650E+04 -2.45006E+03 -1.20502E+04 -2.82286E+02 -3.27545E+03  1.39832E+03 -6.33742E+03
  4.66724E+03 -3.72185E+03  6.37489E+03 -2.43273E+02 -4.97635E+02  1.61160E+02  4.57369E+03  6.03250E+03
  9.18326E+03  3.81642E+03  6.15263E+03  7.32246E+03  9.64936E+02 -6.13484E+02 -6.15764E+03  2.13367E+03
 -1.28858E+04 -1.57204E+03 -5.00381E+03 -7.23131E+03  1.93421E+03 -5.67787E+03  3.02048E+03 -1.30940E+04
  9.54131E+03 -5.62844E+03  9.00314E+03  9.65844E+01  6.97319E+03  3.63727E+03  6.95969E+02  9.01636E+03
 -3.83375E+02  6.86706E+03 -4.19362E+03  3.21191E+03  2.28165E+02 -3.24946E+03  1.53263E+03 -1.22469E+03
 -1.75879E+03  2.21087E+03 -7.37487E+03 -1.15863E+03 -5.43242E+03  7.81140E+01 -8.50450E+03  1.60418E+03
 -4.24523E+03 -4.54831E+03  3.21092E+03 -8.92133E+03 -5.47384E+01 -6.04587E+03  8.25566E+03 -4.43156E+03
  5.76159E+03  5.29345E+03  6.50644E+03  7.54623E+03 -3.21448E+03  7.96640E+03 -7.78144E+03  4.73289E+02
 -5.19416E+03 -3.03489E+03 -7.92371E+03 -3.76568E+03  2.04875E+03 -6.35127E+03  6.24695E+03 -1.68084E+03
  7.85710E+03 -1.35446E+03  3.78295E+03  4.28531E+03  3.27125E+03  5.08900E+03  1.90106E+03  2.32331E+03
  1.30667E+03 -1.53285E+03  5.07943E+03  5.21081E+03  5.08487E+02  3.93576E+03  6.52792E+03  3.32278E+03
 -3.76029E+03  3.42831E+02 -6.29624E+02  3.36761E+03 -3.50158E+03 -9.83394E+02 -1.03455E+04 -2.26810E+01
 -4.28649E+03 -5.05992E+03  1.72149E+03 -6.76302E+03  2.83624E+03 -5.52442E+03  6.21032E+03  2.03215E+03
 -2.23947E+02  1.88825E+03  4.03144E+03  2.06983E+03 -5.06830E+03  1.38264E+03 -6.08297E+02 -4.07677E+02
 -4.08303E+02 -1.33961E+03 -1.95445E+03 -2.73433E+03  5.27531E+02 -9.50546E+02  7.14017E+02  5.66854E+03
 -3.49370E+02  3.36524E+02 -8.85573E+02 -3.26822E+03 -2.80762E+03 -1.07340E+03  1.61760E+03 -1.96798E+03
  2.70772E+03 -6.86746E+02  5.37724E+03  6.17701E+02  5.39176E+03  4.89087E+02 -3.64879E+03  5.51968E+03
 -4.25394E+03  3.80929E+03 -1.09862E+03 -1.82067E+03 -3.29484E+03 -3.49834E+03  1.29995E+03  1.98158E+02
 -2.44785E+03 -2.58683E+03  1.04589E+02 -2.61322E+02  1.84308E+03  4.89778E+02  1.32011E+03  3.09496E+03
 -3.31640E+03 -1.71198E+03 -6.06798E+03 -1.51566E+03  2.04921E+03 -3.53230E+03 -2.43710E+03 -6.74588E+03
  7.57805E+02 -4.65565E+03  8.59253E+02 -2.46992E+03  2.12425E+03  1.12139E+03  9.66460E+02 -3.02691E+03
 -2.39322E+03  2.43995E+03 -3.18919E+02 -2.72897E+03  6.67063E+02 -1.60837E+03  2.79732E+03 -3.71482E+03
  1.77415E+03  1.81740E+03  7.73173E+03  4.96232E+03  2.31930E+03  5.60354E+03 -3.41825E+03  7.69138E+02
  2.62194E+03 -7.15798E+02 -5.79478E+03 -3.00617E+03  3.88488E+03 -3.43608E+03  2.02488E+03 -7.11521E+02
  2.26428E+02 -3.52626E+03 -2.50962E+02  3.34491E+03  2.36079E+03  3.16072E+03 -7.26551E+03  2.14938E+03
  1.40432E+03 -9.50705E+02 -6.47944E+02  5.40276E+02  3.28163E+03  4.45369E+03 -1.87012E+03 -2.82161E+03
 -8.22417E+02  3.56935E+03 -3.80247E+03 -1.18432E+03  2.95440E+03  1.17349E+03 -4.81941E+03 -5.77504E+03
 -2.74553E+03 -2.67462E+03  3.52718E+03 -3.65194E+03  3.26373E+03 -6.68722E+03  1.03906E+04 -4.31030E+03
  3.25331E+03  2.05841E+02 -8.08669E+02 -1.02967E+03  9.21765E+02  3.29451E+02 -2.24918E+03 -1.60958E+03
 -2.19533E+03 -1.79801E+02 -2.09304E+03 -1.64528E+03 -1.55756E+03 -2.70357E+03  4.66358E+03 -6.65169E+02
 -4.21478E+03  9.66241E+02 -1.70254E+03  7.16969E+03  1.22362E+03 -2.96148E+03 -4.52509E+03 -2.06563E+03
 -2.44775E+01  2.36769E+03  6.94199E+02  1.73999E+03  7.88353E+01  4.89082E+03 -7.95303E+02  5.39955E+03
 -2.33308E+03 -1.74991E+03 -5.13433E+03 -3.09182E+03 -4.94310E+03 -9.47093E+02 -6.49933E+03 -2.63629E+03
  5.23561E+02  5.30580E+02  4.46061E+03 -8.46270E+03  3.91071E+03 -7.47181E+02  2.80492E+03 -1.28849E+03
 -2.47154E+03 -2.48017E+03  1.17691E+03  6.37712E+02  1.00356E+02 -2.79500E+03 -2.37242E+03 -3.16013E+03
  3.81059E+03  1.63224E+03  1.72765E+03 -1.17609E+03 -1.90362E+03  1.74664E+03  1.87109E+03  4.06427E+03
  1.93182E+03  1.90055E+03 -6.31172E+03 -1.88431E+03 -2.75635E+01 -3.62403E+03  7.29816E+03 -2.66565E+03
  2.18911E+03 -1.23378E+03 -3.17240E+02  2.02599E+03  2.22810E+03  2.73268E+02 -4.72126E+02  3.31901E+03
 -2.75015E+03  1.80642E+03 -7.04913E+03  7.20616E+02 -1.91898E+03  1.97498E+03 -6.25569E+02  1.08599E+03
  1.80783E+03 -5.13610E+02 -3.99051E+03 -3.88123E+03  1.94300E+01 -2.11136E+03 -1.62444E+03 -9.32222E+02
  2.42009E+03 -1.10183E+03 -5.22036E+02 -2.44475E+02  3.83574E+03 -2.92159E+03  8.95919E+01  1.03576E+03
  1.17846E+03 -1.89252E+02 -6.92708E+02 -1.79322E+03  3.62213E+03  5.21258E+02 -6.11580E+02  5.48131E+03
