 $NMID ID='MM_0lb_SNR50_20hz_g45_47.RAW', FMTDAT='(8E13.5)'
 TRAMP=1., VOLUME=1. $END
  3.06309E+05 -1.33382E+03  3.39722E+05  2.50161E+05  8.15132E+04  3.35987E+05 -1.29114E+05  2.49252E+05
 -1.87052E+05  7.89317E+04 -1.11073E+05 -3.01058E+04  2.78268E+03 -5.16331E+04  5.26161E+04 -1.34982E+03
  3.44634E+04  5.23668E+04 -1.99174E+04  7.32790E+04 -6.27217E+04  6.06884E+04 -7.99569E+04  2.86567E+04
 -7.56852E+04 -9.17111E+03 -5.93994E+04 -4.75707E+04 -1.24738E+04 -6.78281E+04  2.94564E+04 -4.19428E+04
  3.95217E+04  3.00247E+03  1.81817E+04  4.97475E+04 -3.50578E+04  4.27242E+04 -6.94627E+04  1.68661E+03
 -5.17494E+04 -6.10193E+04 -3.06777E+03 -7.77301E+04  3.17970E+04 -5.31964E+04  4.68957E+04 -1.66245E+04
  4.78115E+04  1.56634E+04  2.72315E+04  2.41868E+04  1.69520E+04  2.67521E+04 -4.28868E+03  2.76421E+04
 -2.04662E+04  1.70251E+04 -2.11853E+04 -5.60157E+03  2.94470E+03 -9.83238E+03  2.38027E+04  1.05669E+04
  1.06937E+04  3.19650E+04 -3.20849E+04  3.19950E+04 -6.33071E+04  4.40640E+03 -5.40502E+04 -4.12601E+04
 -1.21468E+04 -5.76133E+04  3.87430E+04 -4.52272E+04  5.61493E+04 -2.37004E+03  2.60332E+04  2.82527E+04
 -2.15526E+03  2.96710E+04 -2.65640E+04  1.18539E+04 -2.81765E+04 -7.06625E+03 -1.15028E+04 -8.71644E+03
 -1.03338E+04 -8.40973E+03  8.48239E+02 -1.77974E+04  5.75206E+03 -2.33089E+04  1.85179E+04 -1.68042E+04
  1.22756E+04  3.23457E+03 -8.00346E+03  1.23256E+04 -2.34329E+04 -3.28526E+01 -6.59315E+03 -3.17721E+04
  2.13299E+04 -3.89100E+04  4.48467E+04 -1.63581E+04  4.36404E+04  1.77135E+04  1.70760E+04  4.22335E+04
 -1.55015E+04  2.80905E+04 -2.34654E+04  2.48985E+03 -1.21406E+04 -2.83017E+04  2.18021E+04 -3.31623E+04
  3.54688E+04 -3.71806E+03  3.03755E+04  2.55461E+04  1.70438E+04  4.61535E+04 -6.04215E+03  4.22601E+04
 -2.82543E+04  2.41173E+04 -3.61269E+04  8.69887E+03 -3.97511E+04 -1.37156E+04 -2.08049E+04 -3.41670E+04
  4.39832E+03 -3.18063E+04  2.95352E+04 -9.59079E+03  2.27773E+04  9.66542E+03  1.64802E+03  1.81017E+04
 -1.19859E+04  7.23652E+03 -4.40630E+03 -9.37872E+03  7.65194E+03 -1.23998E+04  1.70903E+04  3.86293E+03
  1.51680E+04  2.38537E+04 -4.84633E+03  2.13624E+04 -2.31654E+04  9.89674E+03 -2.21490E+04 -7.31752E+03
 -1.64422E+04 -1.69971E+04 -4.20955E+03 -1.75143E+04  2.79693E+03 -1.15771E+04  1.10116E+04 -1.42742E+04
  2.25173E+04 -1.23942E+04  2.84191E+04  1.07883E+03  2.22872E+04  1.36330E+04  6.58486E+03  3.18717E+04
 -1.27568E+04  2.52861E+04 -2.31196E+04  6.00594E+03 -2.19718E+04 -6.73634E+03 -8.52753E+02 -1.33860E+04
  4.78749E+03 -7.57273E+03  1.67818E+03  4.88174E+03 -1.39996E+04  1.08180E+04 -1.45376E+04 -1.25892E+03
 -5.90142E+03 -1.63358E+04  3.98842E+03 -1.62089E+04  1.46852E+04 -1.41620E+04  1.56102E+04  3.18838E+03
  3.82251E+03  8.91185E+03  7.11973E+02  1.47402E+04 -1.00774E+04  7.61441E+03 -1.63513E+04 -4.36440E+03
 -1.35420E+04 -1.29491E+04 -2.01652E+03 -1.70029E+04  9.07420E+03 -1.39822E+04  1.45959E+04 -4.65406E+03
  1.61029E+04  1.55691E+02  9.78363E+03  5.49455E+02  4.12923E+03 -8.40391E+02  1.93819E+03 -3.44217E+03
  1.39870E+04 -1.20732E+02  1.52536E+04  1.30487E+04  9.00983E+03  2.41128E+04 -3.76870E+03  2.52735E+04
 -1.50449E+04  2.19738E+04 -2.20570E+04  8.98213E+03 -2.03955E+04 -5.17159E+02 -1.72332E+04 -1.45359E+04
 -1.23197E+04 -1.87084E+04  6.35397E+03 -1.75037E+04  1.62544E+04 -8.81430E+03  9.77926E+03  2.52022E+03
  2.67135E+03  9.16733E+03 -6.67663E+03  7.39559E+03 -7.87453E+03 -4.21789E+02 -1.25512E+04 -6.00725E+03
  1.99767E+02 -1.17777E+04  7.30064E+03 -3.27365E+03  8.51396E+03 -3.06993E+02  8.68005E+01  4.07891E+03
 -4.25488E+03  3.30505E+02 -6.34841E+02 -4.14445E+03  2.08128E+03 -1.04795E+04  5.97597E+03 -7.11783E+03
  8.66583E+03 -7.92814E+03  1.20923E+04  1.59891E+03  1.27743E+04  1.30750E+04  7.15149E+03  1.10577E+04
  9.67619E+02  1.38336E+04 -6.92863E+03  1.18104E+04 -1.13872E+04 -2.19873E+02 -9.82507E+03 -4.33449E+03
 -5.08690E+03 -2.98489E+03 -9.24071E+02  6.91361E+02 -3.18675E+03  1.79552E+03 -4.38143E+03  2.88210E+03
 -8.77267E+03 -6.45208E+02 -5.92960E+03 -3.96670E+03 -3.14551E+03 -1.08240E+04  4.37159E+03 -4.98341E+03
  8.56894E+03 -4.77525E+03  4.99562E+03  5.86571E+03 -2.73054E+03  7.52566E+02 -1.70863E+03 -6.01249E+02
 -3.80816E+03 -5.74809E+03  2.32127E+03 -2.18332E+03  4.31972E+03 -7.76714E+02  1.20912E+04 -5.98470E+03
  8.94792E+03  2.40177E+03  7.07213E+03  4.52788E+03  2.37023E+03  9.88733E+03 -5.33702E+03  7.29483E+03
 -6.28161E+03  4.35454E+03  2.41485E+02 -1.67317E+03  2.32349E+03 -1.86908E+03  7.11451E+03  1.41932E+03
  4.20071E+03  2.36679E+03  3.25814E+03  9.98156E+03  1.39246E+03  6.39450E+03 -4.35261E+03 -5.14210E+02
 -4.45694E+03 -2.09188E+03 -7.04816E+02 -5.97268E+03  6.77013E+03  2.38495E+03  3.74483E+03  6.25927E+01
  1.87819E+03  2.52703E+03 -2.10964E+03  6.11346E+03 -3.53913E+03  1.42182E+03 -2.18030E+03 -8.94232E+01
 -4.84865E+03 -5.61576E+03  4.92587E+03 -3.80087E+03  4.93773E+03 -3.25616E+03  3.03144E+03  4.09328E+02
  5.19794E+03  9.78847E+03 -1.47444E+03  7.75643E+03 -4.26361E+03  6.33636E+03 -1.65590E+03 -3.70435E+03
 -1.23227E+03  2.85278E+01 -3.15888E+03 -5.79618E+03  2.18290E+03 -2.09113E+03  5.00881E+03 -6.58203E+03
  1.37241E+03  6.72421E+02 -2.18771E+03  2.28938E+03 -5.25299E+03  8.02842E+02  2.64730E+03  1.66595E+03
  3.16869E+03 -7.41854E+02  4.49417E+03  3.65976E+03  3.03463E+02 -1.51535E+02  4.38365E+03  8.32540E+03
 -2.18751E+03  1.22588E+04 -6.63916E+03  7.23506E+03 -7.56649E+03  2.67111E+03 -5.54582E+03 -1.28572E+03
 -5.91582E+03 -5.27318E+03 -2.92477E+03 -4.24633E+03  2.82334E+02  1.48700E+03  5.74836E+03 -2.84852E+03
  6.72275E+02  1.78639E+03  5.75100E+02  2.78539E+02  5.54330E+03 -2.95949E+03  2.97950E+03  2.27269E+03
  5.20665E+03  3.93538E+03  1.95471E+03  5.92525E+03 -4.85797E+03  2.02076E+02 -3.37221E+03  2.15100E+03
 -4.82590E+02  2.38320E+02 -3.37674E+03 -5.56318E+03  3.03720E+03 -4.65184E+03  4.90878E+03 -3.95807E+03
  5.12668E+03 -2.15786E+03  3.81787E+03  2.41520E+03  2.81208E+03  1.44977E+02 -4.70291E+03  3.80918E+03
 -3.06082E+01  4.61970E+03 -2.68227E+03  1.60822E+03 -1.72783E+03 -1.65380E+03  1.93334E+03  2.49335E+02
 -2.64132E+03 -3.73046E+03 -3.66551E+02  1.44851E+03 -1.33487E+03  1.81794E+03 -1.36187E+03  6.41617E+01
 -1.76131E+03 -6.36235E+03 -1.87214E+03 -6.25000E+02  1.23097E+03 -1.81292E+03  1.41399E+03 -2.76818E+03
  3.32455E+03  1.88376E+03 -1.72359E+03  3.98824E+02 -1.95379E+03  3.87148E+03 -4.58933E+03 -9.27035E+01
 -1.17911E+03 -1.08468E+03  1.03665E+02 -2.48377E+02 -2.47073E+03  2.25751E+03  3.55589E+03  8.20080E+02
  3.31609E+03 -2.82943E+03  1.97063E+03  4.61344E+03  3.43220E+03 -7.06476E+02  1.39201E+02  3.82297E+03
  3.35547E+03 -9.00791E+02  4.74016E+03 -2.15622E+02 -2.10367E+02 -1.58854E+02 -2.53039E+02 -2.07950E+03
  2.09490E+03  4.35104E+03 -1.70283E+03  4.39621E+03 -1.01822E+03 -1.88804E+03 -5.49894E+03 -4.38269E+03
  1.05133E+03 -1.28234E+03 -4.47213E+02 -4.32185E+03  6.75324E+03 -4.20055E+03  3.62549E+03 -1.12316E+03
 -2.10895E+02  1.98670E+02  2.72581E+03  6.68775E+03  2.02871E+03 -3.73718E+00  3.85503E+02 -3.68155E+03
  1.58941E+03 -2.47424E+03  1.19254E+03 -2.36023E+03  1.49146E+03 -4.85176E+03  2.72606E+03 -1.15722E+03
 -1.26235E+03  1.45957E+03  5.00039E+03  2.11238E+03 -3.40521E+03  3.61239E+03  3.02151E+02  4.71712E+03
 -4.46730E+02 -1.97198E+02  2.43408E+03  1.51304E+03 -9.62250E+02  5.41856E+03 -2.08819E+03 -4.95065E+02
  2.47032E+03  3.80853E+03 -1.97216E+03  4.08188E+02 -4.10950E+03 -1.96805E+03 -2.85727E+03 -3.29392E+03
 -3.66010E+03  1.00369E+03 -6.83103E+02  1.26582E+03  2.65537E+03  1.60332E+02 -2.43012E+03  1.75536E+03
 -2.71619E+03 -2.49713E+03  2.05667E+03 -2.47563E+03 -4.39006E+02 -3.15216E+02 -2.60621E+02  3.30988E+02
  9.11807E+02 -1.54531E+03 -1.70946E+03 -1.65518E+03  2.09951E+03  5.80417E+02 -7.51128E+02  3.48701E+03
 -5.15109E+02 -1.08196E+03  8.03627E+02  2.57851E+03  9.81444E+02 -3.89843E+03  5.91716E+02  1.31433E+03
  2.50619E+03  1.41082E+03 -1.57508E+03 -1.32440E+03  3.47324E+03  2.89553E+03 -3.48961E+03  2.33976E+03
 -9.56574E+02 -1.75100E+03 -2.57945E+02  1.70833E+03 -7.75624E+02 -1.23166E+03  8.29519E+02 -7.43050E+02
  1.24150E+03 -3.18400E+03 -6.21534E+02  1.33992E+03 -3.19810E+03  4.64604E+03 -2.15433E+03  5.14805E+03
 -3.88426E+02 -1.18698E+03 -1.53927E+03 -9.26350E+02  5.04218E+02 -3.02015E+03  2.65660E+02 -8.15027E+02
  8.33732E+02 -1.73013E+03  2.14514E+03 -1.57868E+02 -1.50316E+03  2.74064E+03 -1.00768E+03 -1.81092E+03
 -1.46650E+03  2.62832E+02  4.57749E+03 -3.01709E+03 -6.89745E+02 -1.17621E+03  1.01723E+03  6.77023E+02
  3.04398E+03  1.27663E+03  2.72230E+03  3.71834E+03 -2.74576E+03  2.01966E+03 -9.34536E+02 -4.14370E+03
  4.15733E+03 -1.40521E+03  1.75070E+03  2.52924E+03  1.13816E+02  2.81618E+03 -2.40262E+03  2.16672E+03
 -1.38734E+03  2.44459E+03 -1.35898E+03 -2.52312E+03  4.72749E+03 -1.19987E+03  1.01280E+03  1.95544E+03
  4.00666E+03 -7.21325E+02 -9.64579E+02 -1.55513E+02  1.96953E+03  6.54165E+03 -9.92941E+02  4.27832E+02
  3.45348E+03  4.88090E+02  3.44098E+02 -8.86363E+02 -3.27672E+03 -1.95540E+03 -2.38011E+03 -2.64174E+03
  9.63643E+02 -2.86716E+03  4.28027E+03 -6.36879E+02  1.43761E+03 -1.14532E+03  1.06603E+03  1.41677E+03
  1.24006E+03 -5.82416E+02 -1.16755E+03 -8.99320E+02 -1.01516E+03  2.71279E+03  1.81995E+03  3.86219E+02
  2.74799E+03  4.32363E+03  3.58448E+02  2.86577E+03  1.98096E+03 -2.21203E+03 -6.25092E+02 -2.77438E+03
 -4.85478E+03 -8.38198E+02 -2.89705E+03  1.83955E+03  1.08311E+03 -2.43106E+03  6.95682E+02  1.84166E+03
  1.83905E+03 -2.55371E+03 -7.33655E+02 -2.09258E+03  1.14643E+03 -5.50544E+03  1.67285E+03  1.55300E+03
  2.00429E+03  3.01741E+03 -4.53693E+02  2.84267E+03 -1.43612E+03  9.45913E+02 -1.03752E+03 -7.28489E+01
 -4.68896E+02  2.49871E+03 -3.23836E+03 -2.79975E+03  2.45344E+03 -2.21994E+03 -2.83192E+02 -4.50995E+03
 -1.81026E+03 -3.08921E+02 -2.55180E+03 -1.73348E+03  2.41190E+03 -2.64648E+03  2.52709E+01  3.63694E+03
  6.84853E+02  2.08451E+03 -1.06238E+02 -2.02866E+03  3.91860E+03  3.99948E+01  1.72062E+03 -2.01978E+03
