 $NMID ID='MM_0lb_SNR50_18hz_g50_31.RAW', FMTDAT='(8E13.5)'
 TRAMP=1., VOLUME=1. $END
  3.05937E+05 -1.22404E+01  3.37208E+05  2.50580E+05  8.26250E+04  3.36887E+05 -1.29767E+05  2.54039E+05
 -1.91069E+05  8.42449E+04 -1.14026E+05 -3.30829E+04  1.67886E+03 -5.13508E+04  5.38296E+04  1.11720E+03
  3.23582E+04  5.12374E+04 -1.39729E+04  7.39531E+04 -6.01471E+04  6.41179E+04 -8.52827E+04  2.43749E+04
 -8.08567E+04 -1.04634E+04 -5.40758E+04 -5.09846E+04 -1.49451E+04 -7.01800E+04  2.04543E+04 -4.83899E+04
  4.09986E+04  6.37316E+03  1.19513E+04  5.29128E+04 -3.34498E+04  5.01022E+04 -6.86429E+04  8.12271E+02
 -5.30814E+04 -5.41390E+04 -4.73821E+03 -7.58541E+04  3.40963E+04 -5.29122E+04  4.47430E+04 -1.47832E+04
  4.17826E+04  1.58249E+04  2.81019E+04  2.54631E+04  2.10766E+04  2.87028E+04 -8.62507E+03  2.79843E+04
 -1.99067E+04  1.27883E+04 -1.80390E+04 -4.66178E+03  6.17922E+03 -7.35470E+03  1.92547E+04  1.13793E+04
  7.75499E+03  3.59992E+04 -2.86516E+04  3.74309E+04 -6.26397E+04 -2.15409E+03 -5.82607E+04 -3.76907E+04
 -1.18606E+04 -6.04922E+04  4.00338E+04 -4.05389E+04  5.89063E+04 -8.95478E+03  3.39740E+04  2.45066E+04
 -6.36758E+03  3.29487E+04 -2.77457E+04  1.73678E+04 -2.60176E+04 -5.23616E+03 -1.50255E+04 -1.25058E+04
 -8.47480E+03 -1.06007E+04 -2.18697E+03 -1.60501E+04  6.33651E+03 -2.26691E+04  1.56672E+04 -1.60095E+04
  1.24425E+04  3.81802E+03 -7.06743E+03  1.45731E+04 -1.53702E+04 -4.19280E+03 -5.45180E+03 -2.78481E+04
  2.45652E+04 -3.88155E+04  4.16791E+04 -1.95058E+04  4.78737E+04  1.50088E+04  1.55227E+04  3.91040E+04
 -1.71729E+04  3.12855E+04 -2.65550E+04  6.88218E+02 -9.85677E+03 -3.02060E+04  2.32560E+04 -3.32279E+04
  4.16441E+04 -8.94785E+03  3.26437E+04  2.26233E+04  1.54290E+04  4.21736E+04 -9.26090E+03  4.82606E+04
 -2.65667E+04  3.03912E+04 -4.07081E+04  9.98582E+03 -4.41210E+04 -1.34381E+04 -2.25537E+04 -3.48119E+04
  6.26763E+03 -3.04452E+04  2.66942E+04 -1.34836E+04  2.79102E+04  1.05239E+04  4.68638E+03  2.28616E+04
 -1.60955E+04  6.74879E+03 -1.01063E+04 -7.74630E+03  8.08440E+03 -8.51191E+03  2.09331E+04  4.59361E+03
  1.32749E+04  1.82005E+04 -6.87152E+03  2.10313E+04 -2.43641E+04  1.07907E+04 -3.21876E+04 -7.46908E+03
 -1.90345E+04 -1.51864E+04 -2.55456E+03 -2.17628E+04  1.27372E+03 -1.57071E+04  1.64605E+04 -1.21355E+04
  1.90425E+04 -1.40917E+04  3.07328E+04 -9.39666E+02  1.95470E+04  1.74997E+04  6.17926E+03  3.56983E+04
 -1.63027E+04  2.79149E+04 -2.95913E+04  7.90625E+03 -1.91665E+04 -1.10608E+04 -1.14540E+03 -1.23617E+04
  2.37138E+03 -1.81992E+03 -3.79197E+03  1.01724E+04 -1.32807E+04  4.56141E+03 -1.10039E+04 -7.20444E+03
 -5.67639E+03 -1.60554E+04  6.94291E+03 -2.26790E+04  1.34114E+04 -1.67141E+04  1.49474E+04 -1.55075E+03
  1.22801E+04  5.23783E+03  2.04788E+03  1.60555E+04 -1.01469E+04  7.78960E+03 -1.73534E+04 -2.59508E+03
 -1.32871E+04 -1.52328E+04 -7.03353E+03 -2.26148E+04  9.50088E+03 -1.59731E+04  1.69881E+04 -9.19575E+03
  2.06046E+04 -9.95977E+02  1.68351E+04  5.06187E+03  9.93872E+03 -9.30708E+02  9.42550E+03  1.01856E+03
  1.64153E+04  5.18836E+02  1.80639E+04  7.97358E+03  8.85847E+03  2.69963E+04 -8.35827E+02  2.59591E+04
 -2.01935E+04  2.49719E+04 -2.62901E+04  1.13275E+04 -2.86456E+04  4.21493E+03 -2.15540E+04 -1.25282E+04
 -1.09479E+04 -1.92407E+04  7.35326E+03 -1.82106E+04  2.10902E+04 -1.03901E+04  1.47598E+04  8.09706E+03
  4.85770E+03  1.40251E+04 -7.47275E+03  9.05981E+03 -1.19913E+04 -6.82628E+02 -1.05608E+04 -1.00719E+04
  3.94048E+02 -1.32874E+04  6.24596E+03 -1.05136E+04  9.50495E+03 -2.49063E+03 -9.52090E+02  5.83030E+03
 -3.12622E+03  2.71371E+03 -3.91686E+03 -2.69121E+03  2.08605E+03 -1.01301E+04  7.02834E+03 -1.16551E+04
  1.11758E+04 -2.28108E+03  1.15127E+04  1.99968E+03  6.85609E+03  1.11060E+04  7.56673E+03  1.78924E+04
 -5.29771E+03  1.96392E+04 -9.39512E+03  1.27534E+04 -1.25935E+04  2.60246E+03 -4.56728E+03 -2.12565E+03
 -7.82562E+03 -4.86743E+03  9.69444E+02  5.27579E+02 -5.42248E+03  3.55551E+03 -4.54361E+03  3.22633E+03
 -1.04808E+04 -3.39552E+03 -1.06441E+04 -9.15240E+03 -2.20695E+03 -1.18234E+04  3.07248E+03 -1.14356E+04
  7.54289E+03 -5.03670E+03  7.70441E+03 -2.09819E+03  8.58174E+02  6.32611E+03 -4.21992E+03 -4.37259E+01
 -4.10841E+03 -8.52109E+03 -4.19684E+02 -8.65371E+03  1.11664E+03 -1.12144E+04  1.14930E+04 -7.84570E+03
  1.51221E+04  9.77362E+02  9.30353E+03  6.36922E+03  3.60017E+03  8.40649E+03 -2.91413E+03  5.90992E+03
 -8.27847E+03  3.10052E+03  5.01870E+01  2.14189E+03 -4.07727E+02  6.44076E+02  5.47748E+03  1.37362E+03
  3.28824E+03  1.96880E+03  2.92092E+03  8.03468E+03 -6.23176E+03  8.30020E+03 -6.80921E+03 -1.19721E+03
 -8.61189E+03 -3.69022E+02 -1.43125E+03 -6.33835E+03  3.07240E+03  4.43126E+02  2.96111E+03  1.52499E+03
  6.42884E+03  4.71491E+03 -4.13799E+03  5.74890E+03 -6.06908E+03  1.95238E+03 -3.49391E+03 -1.34973E+03
 -3.26847E+03 -4.17333E+03  4.13363E+03 -5.15389E+03  9.76136E+03 -4.81560E+03  5.79590E+03  7.28686E+01
  5.36333E+03  5.10340E+03  9.54825E+01  1.03691E+04 -6.32762E+03  8.38461E+03 -6.07710E+03 -1.40082E+03
 -4.56968E+03 -3.24579E+03  1.87125E+03 -6.95116E+03  4.36101E+03 -5.51780E+03  3.42075E+03 -4.14883E+03
  8.58377E+02  1.35331E+03  1.32729E+03  2.17424E+03 -1.20788E+03  1.62303E+03  8.93679E+02  6.12712E+02
  3.84314E+03  1.49862E+03  7.35825E+03 -1.17310E+03  3.44806E+03  1.98925E+02  7.18058E+03  5.19315E+03
 -4.65691E+03  8.14507E+03 -9.09428E+03  6.22808E+03 -1.21095E+04  3.87452E+03 -4.82784E+03 -5.91462E+03
 -4.73683E+03 -7.13559E+03 -3.16663E+03 -8.47264E+03  1.69051E+03 -3.96401E+03  3.47404E+03 -7.34744E+02
  2.54586E+02 -1.61484E+03  1.12954E+03 -1.95863E+03 -1.15332E+01 -1.66169E+03  3.27168E+03  3.62995E+02
  9.88473E+03 -3.66826E+03  1.81115E+03  5.11413E+03 -1.80367E+02 -3.92080E+02 -4.58138E+03  3.88951E+03
 -6.09317E+03 -2.26648E+03 -2.39787E+03 -5.77182E+03 -1.90999E+03 -5.49471E+03 -9.57609E+02 -6.85482E+03
  2.97205E+03 -4.05536E+03  5.90353E+03  1.40279E+02  6.97337E+03  8.14147E+03  1.13066E+03  1.19871E+04
  1.80661E+03  1.05604E+04 -3.48378E+03  2.23152E+03 -7.27733E+03  1.01818E+02 -5.36313E+03 -9.01187E+02
  2.19603E+03  2.27686E+03 -2.26228E+03  3.38211E+03 -2.79343E+02 -3.95175E+03 -2.53108E+03  1.28291E+03
 -2.22925E+03 -2.33101E+03  1.23676E+03 -4.26865E+03  1.48824E+03 -6.29596E+03  5.61623E+03 -2.00990E+02
  4.91402E+03  2.35554E+03  2.00084E+03  5.91389E+03  1.99031E+03  6.60556E+03 -2.37677E+03 -7.91751E+02
 -5.81406E+03  7.81877E+02 -5.80778E+03 -1.09172E+04  1.02726E+03 -3.74730E+03  1.66692E+03  2.99955E+02
  3.41102E+03 -5.08926E+03 -1.77646E+02  2.50759E+02  9.00999E+02 -1.49516E+02  3.10939E+02  2.78167E+02
  7.48648E+02  9.02723E+02 -2.11127E+03  3.57891E+03 -1.78247E+03  5.31195E+03 -5.55605E+02  4.26747E+02
 -1.50637E+03  2.23722E+03 -6.46185E+02  2.93659E+03 -7.01760E+02  3.44703E+03 -6.56841E+03 -1.47365E+03
 -2.52032E+03 -7.43484E+03 -1.99618E+03 -3.38391E+03  6.42953E+03  6.79914E+02  3.01560E+02  5.35353E+02
  1.44215E+03 -7.15238E+02  8.66871E+02 -1.85626E+03  4.25435E+03  1.13810E+03 -4.37347E+03 -3.20261E+03
  2.02108E+03 -3.07251E+03 -2.12068E+02 -5.10796E+03 -3.20604E+03  8.98732E+02  7.29064E+03  1.35273E+02
  3.22069E+03 -4.53027E+02  3.00446E+03  1.61922E+03 -2.69425E+03  1.20079E+03  2.01908E+03  7.83699E+02
  1.02928E+03  1.89295E+02 -2.46773E+03  1.36271E+03 -1.20096E+03  6.23645E+03 -1.78608E+03  7.86857E+02
 -4.41568E+03  1.40069E+03 -6.31509E+03  5.23227E+03  1.44452E+03 -1.11238E+03 -1.76742E+03  2.39514E+03
  3.48298E+02  2.18373E+03  2.31330E+03  4.54322E+03 -4.63770E+03  4.58774E+03 -1.04149E+02  2.29914E+03
  2.00568E+03  3.32136E+03  6.27035E+02 -5.04224E+03 -1.61353E+03  1.38867E+03  4.35049E+03 -1.86059E+03
  1.48434E+03 -2.42849E+03  6.64963E+03 -2.60371E+03  3.31666E+03  2.98122E+03  2.62616E+03  4.86532E+03
 -5.91327E+03  2.43826E+03 -1.40976E+03  5.16252E+03 -6.89548E+02  2.78174E+03  8.75099E+02 -5.49926E+02
  4.65299E+02  4.48326E+03  5.72406E+03 -2.41937E+03  3.12307E+03  6.65837E+02  2.03004E+02  3.13443E+03
 -1.34414E+03 -4.27211E+02 -1.99926E+03 -3.61780E+03  2.12283E+03  3.32106E+03 -5.12605E+02 -1.55004E+03
 -7.07358E+02 -3.30261E+03  2.47413E+03  3.23866E+03 -2.95329E+02 -7.44397E+02  2.20149E+02  2.67671E+02
  5.01227E+02  4.85067E+02 -8.60108E+02 -2.02201E+03  6.33087E+02  3.67325E+03 -1.39173E+03  3.96593E+03
 -4.82069E+01  1.08581E+03 -2.70224E+03  7.75599E+02  1.68338E+03 -2.71653E+01 -4.32118E+03  1.16670E+03
  1.01151E+03 -5.37015E+03 -4.06996E+03  2.12094E+03 -3.01712E+03  2.28060E+03  4.68000E+03 -4.76385E+03
  4.87447E+03  1.13024E+03  5.50534E+03  3.00013E+03  2.76507E+03  2.37408E+03  4.50647E+03  4.30708E+03
 -9.56055E+00  1.12881E+03  4.18166E+03  2.01217E+03 -1.76270E+03  7.38001E+02 -1.03305E+03  1.16039E+03
 -4.66957E+03  3.32408E+03 -1.27796E+03 -1.80944E+03  1.43911E+03  4.08858E+03 -1.45359E+03 -3.27786E+03
  1.55133E+03  4.28478E+03  2.88218E+03  2.30871E+02 -2.60216E+03  6.22409E+03 -2.66383E+02  3.79985E+03
  6.84697E+02 -2.98412E+03  1.54241E+02  1.82761E+03 -2.89969E+03  1.02125E+03 -1.63711E+03  1.62228E+03
 -6.06122E+02 -4.57202E+03  1.88425E+03 -1.01198E+03 -3.14669E+03  3.12449E+03  7.78654E+02  7.15560E+02
 -1.86281E+03  2.08701E+03 -1.55912E+03 -1.29641E+03 -3.82068E+03 -3.02270E+03  1.82821E+03  1.20789E+03
  5.18865E+02 -4.43141E+03  1.29879E+03 -6.82729E+02  2.66855E+03  1.89016E+03  1.37807E+03 -3.61976E+03
  1.62312E+03  8.24357E+02 -3.44115E+02 -1.83547E+03 -2.12746E+03  9.96514E+02 -2.82536E+03 -3.24503E+03
 -3.26713E+03 -1.28668E+03 -1.68000E+03 -1.04488E+03  4.31435E+03 -1.44566E+03  3.71499E+03 -2.73209E+03
  4.47696E+03  4.44247E+03 -2.19386E+03 -2.39435E+03 -1.25877E+03  2.43104E+03 -7.59206E+02  3.47394E+03
  2.95457E+03 -1.94069E+03 -4.55127E+03 -1.72684E+03  2.19216E+02  5.90395E+02 -3.71599E+03 -4.11249E+03
 -7.20966E+02  4.52853E+03  6.73971E+02 -4.64193E+02  4.91495E+02 -3.25360E+03 -1.00015E+03 -5.13926E+01
  1.48249E+03 -2.12172E+03  2.16462E+03  6.24622E+02 -1.09201E+03  4.58628E+03 -1.44889E+02  1.14392E+03
