 $NMID ID='MM_0lb_SNR50_12hz_g55_83.RAW', FMTDAT='(8E13.5)'
 TRAMP=1., VOLUME=1. $END
  3.06980E+05  2.18533E+03  3.38228E+05  2.51971E+05  8.76401E+04  3.39855E+05 -1.37564E+05  2.55260E+05
 -1.91500E+05  8.39638E+04 -1.12636E+05 -3.02487E+04 -6.90338E+02 -4.80696E+04  5.32823E+04  3.15380E+03
  3.49263E+04  5.00824E+04 -1.84168E+04  7.49239E+04 -6.32577E+04  6.33781E+04 -8.70414E+04  2.98346E+04
 -8.70075E+04 -1.13946E+04 -5.64971E+04 -4.28600E+04 -1.24958E+04 -6.95204E+04  2.52961E+04 -4.72903E+04
  4.40142E+04  5.22635E+03  1.52677E+04  5.13726E+04 -3.24784E+04  5.15909E+04 -6.79283E+04  2.71687E+03
 -5.15679E+04 -5.66374E+04 -4.43268E+03 -7.32160E+04  3.29630E+04 -6.13307E+04  4.97953E+04 -1.86697E+04
  5.16171E+04  7.26653E+03  3.48513E+04  2.71333E+04  1.31396E+04  2.61089E+04 -5.47928E+03  3.02110E+04
 -2.69589E+04  1.33565E+04 -1.90320E+04 -5.52267E+03  8.67335E+03 -1.23413E+04  2.44253E+04  1.00089E+04
  4.90587E+03  3.80788E+04 -2.98450E+04  3.49800E+04 -6.70418E+04 -2.73415E+03 -5.32459E+04 -4.10484E+04
 -5.66169E+03 -6.48168E+04  3.91651E+04 -4.61913E+04  5.86552E+04 -3.08031E+03  3.84877E+04  3.19084E+04
 -6.62032E+03  3.38707E+04 -2.90971E+04  1.71680E+04 -3.40173E+04  3.18653E+03 -1.44822E+04 -9.44446E+03
 -1.08981E+04 -1.39120E+04  2.81445E+03 -1.80022E+04  6.43912E+03 -2.85120E+04  1.31377E+04 -1.16346E+04
  1.17731E+04  8.44569E+03 -9.78722E+03  6.67777E+03 -2.53509E+04 -7.92500E+03 -1.13973E+04 -3.08909E+04
  2.59381E+04 -4.45816E+04  4.66918E+04 -2.31004E+04  4.54899E+04  2.70046E+04  2.19382E+04  4.97187E+04
 -1.71577E+04  4.33525E+04 -2.57466E+04 -1.62846E+03 -9.89402E+03 -2.71909E+04  1.69818E+04 -3.43409E+04
  4.07636E+04 -1.29277E+04  4.47665E+04  2.35017E+04  1.35850E+04  5.34594E+04 -8.46448E+03  5.76241E+04
 -3.43889E+04  3.28455E+04 -4.68789E+04  8.63732E+03 -5.11906E+04 -1.63319E+04 -3.05789E+04 -3.92499E+04
  5.19694E+03 -4.22636E+04  3.36160E+04 -1.94703E+04  3.26981E+04  1.52737E+04  9.25968E+03  2.14166E+04
 -1.67080E+04  1.18976E+04 -1.07376E+04 -7.83049E+03  7.13277E+03 -1.42049E+04  1.53040E+04  3.09811E+03
  1.93481E+04  1.99548E+04 -4.49355E+03  3.31395E+04 -2.93759E+04  1.08558E+04 -3.14568E+04 -6.79960E+03
 -2.45793E+04 -1.22918E+04 -1.14458E+04 -1.98738E+04  3.19160E+03 -3.13700E+04  1.63571E+04 -2.06011E+04
  2.53430E+04 -1.21103E+04  3.46207E+04  2.64699E+03  2.90964E+04  2.50679E+04  2.06026E+03  4.20127E+04
 -1.51679E+04  3.57081E+04 -3.14470E+04  1.07271E+04 -2.56831E+04 -4.63432E+02 -6.42076E+03 -1.49441E+04
 -8.78521E+02 -2.36107E+03 -9.79460E+03  2.24142E+03 -1.90563E+04  8.94297E+03 -1.75479E+04 -6.59480E+03
 -7.21047E+03 -2.80278E+04  3.70414E+03 -2.46928E+04  2.08815E+04 -1.86266E+04  1.99580E+04 -7.12601E+03
  1.53064E+04  1.20924E+04  1.80452E+03  2.23831E+04 -1.61383E+04  1.67150E+04 -2.38419E+04 -4.40263E+03
 -1.71864E+04 -2.16183E+04 -2.81984E+03 -2.67401E+04  1.10208E+04 -1.85254E+04  2.13068E+04 -1.07781E+04
  1.87652E+04 -3.04423E+03  1.80887E+04  3.67747E+03  1.06360E+04  2.14279E+02  1.97747E+04  3.77035E+03
  1.43873E+04  1.12968E+03  2.54332E+04  2.66095E+04  1.39568E+04  3.18246E+04 -3.86228E+03  3.64537E+04
 -1.89772E+04  3.07786E+04 -3.64386E+04  1.94597E+04 -3.85303E+04 -3.91352E+03 -3.17075E+04 -2.45718E+04
 -1.39264E+04 -3.40133E+04  7.46332E+03 -2.78476E+04  2.35433E+04 -1.76722E+04  2.17933E+04  7.93693E+03
  7.72217E+03  1.58119E+04 -8.59760E+03  1.43680E+04 -1.83492E+04  2.61042E+03 -1.55150E+04 -1.08773E+04
 -3.21484E+03 -2.07817E+04  1.06733E+04 -1.42041E+04  6.69956E+03 -4.85484E+03  2.21345E+03  6.21324E+03
 -9.14003E+03  1.95261E+03 -6.20839E+03 -2.93327E+03 -2.04619E+03 -6.85497E+03  1.05897E+04 -1.77562E+04
  2.20601E+04 -5.01087E+03  2.12066E+04  5.25582E+03  1.63496E+04  1.72466E+04  1.48337E+04  2.54869E+04
  3.79257E+01  2.93568E+04 -2.16376E+04  1.74489E+04 -2.23094E+04  4.45489E+03 -9.78725E+03 -5.42699E+03
 -8.52839E+03 -3.05776E+03  2.54962E+03 -2.68067E+03 -1.04693E+03  7.74098E+02 -4.92313E+03  1.83200E+03
 -8.73985E+03  3.69347E+02 -1.17978E+04 -8.59987E+03 -8.13651E+03 -1.08155E+04  6.53276E+03 -9.81522E+03
  1.29921E+04 -1.34205E+04  9.08497E+03  3.67357E+03 -2.67669E+03  7.06690E+03  1.18526E+03 -1.38895E+02
 -4.67174E+03 -8.73466E+03 -4.01845E+03 -1.05271E+04  7.56447E+03 -8.82823E+03  1.82496E+04 -8.20221E+03
  1.65025E+04 -3.17197E+03  1.48007E+04  1.10815E+04  6.59547E+03  1.74283E+04 -5.54455E+03  1.30032E+04
 -1.21793E+04  6.83592E+03 -4.09594E+03  1.13403E+03 -3.27114E+03 -3.55811E+03  6.20356E+03 -2.00890E+03
  4.11026E+03  2.37214E+03  1.95014E+03  9.21493E+03 -8.65113E+03  1.07807E+04 -1.17953E+04  5.93311E+03
 -5.78296E+03 -4.47795E+03  4.99738E+03 -7.73869E+03  3.10640E+03 -1.07488E+03  3.57509E+03 -1.56804E+03
  5.26898E+03  1.01565E+04 -1.04184E+04  9.30170E+03 -8.51674E+03  3.43882E+03 -5.40177E+03 -2.50313E+03
 -3.25029E+03 -1.42980E+04  1.69203E+03 -9.85816E+03  8.53087E+03 -9.10235E+03  1.54230E+04  1.77347E+03
  4.95845E+03  1.19843E+04 -6.45107E+03  1.48168E+04 -1.14640E+04  5.03924E+03 -1.06632E+04 -7.19251E+03
 -8.04532E+03 -1.02357E+04  2.16209E+03 -1.14488E+04  4.15050E+03 -5.99550E+03  8.79257E+03  7.68453E+02
  3.77254E+03  3.68874E+03 -1.44476E+03  2.78180E+03 -1.28500E+03 -6.44469E+03  5.03829E+02 -3.01143E+03
  1.05059E+04 -4.60792E+03  6.00757E+03 -4.81460E+02  9.72157E+03  5.28033E+03  1.47211E+04  1.74332E+04
 -2.69387E+03  2.02767E+04 -1.59655E+04  1.27795E+04 -2.23468E+04  2.53018E+03 -1.37120E+04 -4.60839E+03
 -6.89374E+03 -1.54394E+04  5.47574E+03 -1.26359E+04  3.01519E+03 -8.28667E+03  8.08923E+03 -3.52014E+03
  3.34910E+03 -1.02922E+04  2.49450E+03 -6.21113E+03  8.47498E+03  1.27551E+01  5.51791E+03  2.68432E+03
  5.78270E+03  8.90572E+02  1.69991E+03  5.94758E+03 -1.58777E+03  1.09032E+04  6.14724E+02  8.64222E+03
 -9.20475E+03 -3.42202E+02 -1.25001E+04 -4.72910E+03  4.10281E+03 -9.16435E+03  7.08894E+03 -1.31366E+04
  8.01149E+03 -1.21441E+04  1.69976E+04 -4.81497E+02  1.31018E+04  9.37551E+03  4.24564E+03  9.06070E+03
 -8.86205E+03  1.72854E+04 -9.68047E+03  2.15490E+03 -5.82368E+03  6.68430E+02 -5.13052E+03 -5.63487E+02
 -4.40613E+03  4.34001E+02  2.44373E+03  5.43908E+03  7.91470E+02  2.03524E+03 -6.97123E+03  6.94341E+02
 -4.87263E+03 -2.37376E+03  5.70097E+03 -1.34489E+04  7.70558E+03 -7.18742E+03  4.14829E+03 -1.91261E+03
  2.05106E+04 -2.19474E+03  1.31413E+03  1.36660E+04 -4.28042E+02  8.47182E+03 -7.27233E+03  6.36225E+03
 -1.47067E+04 -2.47897E+03 -6.29827E+03 -5.66352E+03 -1.57403E+03 -4.13745E+03  5.06761E+03  2.00633E+02
  3.08198E+03 -3.93789E+03  5.74502E+03 -2.76288E+02  6.27381E+03  2.13337E+03  2.23821E+02  4.39091E+03
 -4.54451E+02  2.82763E+02  6.70995E+02  9.35895E+02 -6.28887E+02  4.02358E+01 -2.28393E+02 -2.24218E+03
  1.16750E+02  1.06057E+04 -8.61745E+03  9.25819E+03 -9.37478E+03  6.30940E+03 -1.43637E+04 -4.47590E+03
 -7.18527E+03 -1.68145E+04 -5.09946E+00 -1.11591E+04  3.97243E+03 -6.79938E+03  1.01756E+04 -7.04972E+03
  4.96158E+03 -6.63994E+03  6.85732E+03  8.28320E+03 -2.91038E+03  8.06636E+03 -4.04449E+03 -8.72185E+02
 -5.43665E+03 -3.53746E+03 -9.42062E+02 -2.16515E+03  5.24843E+03  9.72876E+02  3.86257E+03  2.70795E+03
  1.58833E-01  5.24409E+03  6.73641E+02 -7.37011E+03  1.92597E+03  7.75638E+02  3.80287E+03  3.26768E+03
 -2.52585E+03  1.55179E+03  2.73637E+03  2.34556E+03 -3.05358E+03  6.90728E+03 -3.54402E+03  1.34312E+04
 -4.14466E+03  1.45646E+03 -4.42524E+03  2.23653E+03 -8.95199E+03  1.23677E+03 -3.03284E+03 -3.56101E+03
  5.75047E+00 -4.93550E+03 -3.99354E+02 -1.71025E+03 -3.10519E+03  4.04173E+03  2.02870E+03  5.76807E+03
  5.55043E+01  1.09854E+03 -7.08236E+03 -2.21261E+03  2.34343E+03 -2.93610E+03 -2.91577E+03 -7.94520E+03
  3.78012E+03 -1.43364E+03  7.95845E+03  5.24486E+02  2.26641E+03 -2.85862E+03  3.46752E+03  7.17843E+03
  2.96549E+03  5.26206E+02 -2.91093E+03 -6.88059E+03  7.42154E+03  5.01759E+02  5.15596E+03 -4.02184E+03
  1.15358E+04  1.72722E+03  3.93238E+03 -7.90376E+02  4.56224E+03  5.38859E+03  3.36860E+03  7.38832E+03
 -2.51932E+03 -2.96488E+03 -7.17485E+03 -3.82675E+03 -5.26938E+03 -3.68560E+03 -5.71060E+02 -2.09112E+03
 -3.82076E+03 -2.60509E+03  5.06136E+03 -9.10200E+01  4.07618E+03 -1.93642E+02 -2.26593E+03  5.31608E+03
 -8.23533E+02  6.65831E+03 -1.97850E+03  2.50527E+03  2.60009E+03  3.38138E+03 -1.82067E+03 -1.65561E+03
 -6.16031E+03 -1.75296E+03 -4.07234E+03  3.64606E+03 -4.43229E+03 -3.78854E+03 -1.27838E+04 -6.34663E+03
 -6.08231E+03 -9.31592E+03  2.09168E+03 -1.18478E+04  1.25952E+04 -3.40461E+03  1.06022E+04 -4.16857E+03
  1.11666E+04  4.40697E+03  2.19944E+03  4.70888E+03 -1.38932E+03  5.67685E+03 -6.72032E+03  2.49124E+03
 -6.92890E+03  2.93541E+03  1.26082E+03  6.47050E+03 -8.39152E+03  4.26160E+03 -2.22616E+03  3.97581E+03
  2.44989E+03  7.53722E+03 -2.17556E+03 -5.65288E+03  7.69278E+02  1.00804E+03  2.14182E+03  1.19935E+03
  1.14621E+02 -5.07877E+03 -1.61323E+03  4.38817E+03  6.82154E+03 -2.37902E+02 -2.01378E+02  3.41751E+03
 -2.48680E+03  8.09151E+03 -5.64413E+03  9.53800E+02 -3.45368E+03 -4.46928E+03 -6.36143E+03 -2.68105E+03
 -5.72545E+03 -8.93865E+03 -1.30374E+02 -3.61575E+03  4.34752E+03 -3.82332E+03  1.70575E+03  1.33483E+03
  2.52349E+03  4.41239E+03  2.93996E+03  2.06984E+03  2.50053E+03  2.31595E+02 -1.53969E+03 -4.35213E+02
  6.58610E+03 -1.82268E+03  2.53253E+03  2.28709E+03  1.49798E+03  3.34669E+03 -1.20410E+03  6.25352E+03
 -1.02081E+03  2.83874E+03 -4.37001E+02  2.89236E+03 -4.65954E+02  7.27383E+02 -4.50917E+02 -4.56670E+03
  3.23462E+03 -5.06412E+02  1.37034E+03  5.01425E+02  7.12946E+03  5.88987E+03  3.82358E+03  6.65577E+03
 -4.88228E+03  1.05016E+03  1.46671E+02  4.93693E+03 -1.86868E+03  2.57818E+03 -9.44732E+03  8.83153E+01
 -1.61098E+03  1.60881E+03  6.46451E+02  8.68819E+02  1.43031E+02  2.29496E+03 -6.07904E+03 -2.05662E+03
 -1.61961E+03 -2.54856E+03 -2.62893E+03 -1.25690E+03  3.66572E+03  4.53239E+03 -5.69852E+02 -3.45145E+02
  4.99278E+03 -6.75054E+02 -2.02829E+03  9.81501E+03 -1.23746E+03  6.76067E+03  2.02829E+03  1.07730E+02
