 $NMID ID='MM_0lb_SNR50_17hz_g50_77.RAW', FMTDAT='(8E13.5)'
 TRAMP=1., VOLUME=1. $END
  3.12605E+05  4.61834E+03  3.40337E+05  2.48599E+05  8.42000E+04  3.40140E+05 -1.31522E+05  2.49291E+05
 -1.92301E+05  8.84768E+04 -1.08717E+05 -3.28917E+04  4.55394E+03 -5.48611E+04  5.26603E+04 -4.54001E+03
  3.50424E+04  4.90575E+04 -1.53573E+04  7.89438E+04 -6.55697E+04  6.27021E+04 -8.34475E+04  3.13443E+04
 -7.63699E+04 -1.20100E+04 -5.82151E+04 -5.39688E+04 -9.36076E+03 -7.20165E+04  2.82313E+04 -4.40585E+04
  3.59217E+04  3.36276E+03  1.77663E+04  4.76722E+04 -3.31854E+04  4.76580E+04 -6.71025E+04 -1.29169E+03
 -5.16609E+04 -6.08918E+04 -3.36018E+03 -7.73856E+04  3.41937E+04 -5.45173E+04  4.84616E+04 -1.63930E+04
  4.75782E+04  7.81009E+03  3.13977E+04  2.57689E+04  1.66851E+04  2.54601E+04 -1.42855E+03  2.03239E+04
 -1.89426E+04  1.16892E+04 -1.98500E+04 -4.54088E+03  4.94734E+03 -8.91694E+03  2.50882E+04  1.38643E+04
  9.95784E+03  3.26421E+04 -3.16500E+04  3.37985E+04 -6.24779E+04  5.77919E+03 -5.14995E+04 -4.72489E+04
 -1.10661E+04 -6.11346E+04  3.77372E+04 -4.26173E+04  5.97514E+04 -3.83659E+03  3.31691E+04  2.96417E+04
 -5.86952E+03  3.12491E+04 -2.65210E+04  1.27178E+04 -3.14489E+04 -2.57256E+03 -1.47915E+04 -1.16233E+04
 -4.94400E+03 -1.49638E+04  2.09468E+03 -1.56949E+04  5.51366E+03 -2.64176E+04  1.39726E+04 -1.16664E+04
  1.16104E+04  6.11613E+03 -7.23014E+03  1.57954E+04 -2.24534E+04 -1.89593E+03 -1.22738E+04 -3.22211E+04
  2.09721E+04 -3.87421E+04  4.40801E+04 -1.84332E+04  4.37175E+04  2.10560E+04  1.45726E+04  4.27606E+04
 -1.78934E+04  3.53214E+04 -2.27207E+04  2.10429E+03 -1.12785E+04 -2.45134E+04  1.61393E+04 -3.49173E+04
  3.69177E+04 -1.15865E+04  3.13423E+04  2.01171E+04  1.70192E+04  4.21157E+04 -9.26824E+03  4.62125E+04
 -3.28648E+04  2.81019E+04 -4.05331E+04  8.63097E+03 -4.23057E+04 -1.58582E+04 -2.21592E+04 -3.58848E+04
  1.17567E+04 -3.16170E+04  2.97935E+04 -1.65910E+04  3.04372E+04  1.22422E+04  6.13325E+03  2.14480E+04
 -1.40879E+04  8.87700E+03 -5.80822E+03 -1.26044E+04  5.67438E+03 -1.03083E+04  2.07713E+04  4.54507E+03
  1.10345E+04  1.81839E+04 -5.84886E+03  2.65234E+04 -2.10218E+04  9.02807E+03 -2.63128E+04 -4.63498E+03
 -1.99844E+04 -1.52091E+04 -4.87579E+03 -2.00561E+04  7.04673E+03 -1.53507E+04  1.40169E+04 -1.22439E+04
  2.18165E+04 -1.39182E+04  3.06885E+04  1.25432E+03  2.33455E+04  2.20309E+04  7.12413E+03  3.25692E+04
 -1.68288E+04  3.24034E+04 -2.29107E+04  1.13698E+04 -1.91964E+04 -5.42058E+03  7.82035E+02 -1.19522E+04
  8.44530E+02 -1.88372E+03 -2.31669E+03  6.66853E+03 -1.80920E+04  1.06411E+04 -1.31992E+04 -4.30711E+03
 -7.60679E+03 -1.45747E+04  5.13080E+03 -2.17017E+04  1.32806E+04 -2.14102E+04  1.46379E+04 -2.86973E+03
  1.37244E+04  1.10522E+04 -1.24047E+03  1.83508E+04 -8.78776E+03  1.08220E+04 -1.78749E+04 -3.98138E+03
 -1.25796E+04 -1.48002E+04 -7.24432E+02 -2.03753E+04  1.15869E+04 -1.36106E+04  1.39577E+04 -4.45902E+03
  1.58064E+04 -7.54775E+02  9.71836E+03  2.88622E+03  7.42575E+03  9.41741E+02  1.01769E+04 -5.87647E+03
  1.23751E+04  8.33929E+01  1.54245E+04  1.47797E+04  9.81910E+03  2.60383E+04 -4.28683E+03  2.90269E+04
 -1.66002E+04  2.49257E+04 -2.82624E+04  8.58147E+03 -2.73466E+04  6.19071E+02 -2.41213E+04 -1.49426E+04
 -8.76507E+03 -2.27694E+04  9.57681E+03 -2.36657E+04  2.30868E+04 -1.34242E+04  1.52135E+04  6.34754E+03
  8.80078E+03  1.07666E+04 -4.39002E+03  7.73099E+03 -1.12292E+04  3.27027E+03 -7.64668E+03 -1.02417E+04
  9.63877E+01 -1.62248E+04  9.43359E+03 -8.33995E+03  6.45219E+03 -5.95193E+02  2.34348E+03  8.22766E+03
 -5.73214E+03  3.54169E+03 -3.74819E+03 -4.71209E+03  2.63490E+03 -1.21555E+04  1.21071E+04 -1.01403E+04
  1.70957E+04 -1.07567E+04  1.18069E+04 -6.69514E+02  1.30347E+04  1.35428E+04  5.94222E+03  1.39641E+04
  1.97357E+03  1.84950E+04 -9.84236E+03  1.05175E+04 -1.14203E+04  1.80230E+03 -1.22558E+04 -1.76022E+03
 -2.08918E+03 -3.18006E+03  4.82822E+01  1.87507E+03 -1.43896E+03  4.76274E+03 -6.26019E+03  3.86855E+03
 -1.25663E+04  1.27958E+02 -1.34764E+04 -1.16003E+04 -7.38459E+03 -1.29861E+04  3.02140E+03 -1.09857E+04
  4.80646E+03 -5.34027E+03  7.23266E+03  2.81543E+03 -1.25039E+03  3.43859E+03 -1.55590E+03 -3.15705E+02
 -2.41828E+03 -5.18122E+03 -2.94203E+03 -8.77284E+03  8.34121E+03 -1.02073E+04  1.29431E+04 -6.52984E+03
  1.37597E+04 -2.37321E+03  7.32682E+03  5.73287E+03  4.07142E+03  1.26618E+04 -3.48940E+03  1.14990E+04
 -8.65356E+03  2.23219E+03 -5.58112E+03  1.03010E+03  2.20408E+03 -7.25420E+03  5.15611E+03 -4.02905E+03
  3.30226E+03  4.76476E+03  4.34566E+03  1.01950E+04 -3.39566E+03  8.13576E+03 -6.26812E+03  3.11631E+03
 -9.41376E+03 -6.03638E+03  5.69742E+03 -8.12676E+03  7.44835E+03 -3.34744E+03  5.89179E+03  4.45244E+03
  2.40240E+03  1.05816E+04 -5.35990E+03  6.65590E+03 -5.03005E+03  3.84420E+03 -2.28306E+03 -4.02845E+03
 -6.69193E+03 -1.01988E+04  6.23941E+03 -4.06056E+03  4.29616E+03 -5.28899E+03  9.02098E+03 -2.05086E+03
  5.76347E+03  9.14602E+03  3.31417E+03  1.04915E+04 -9.88286E+03  2.87553E+03 -8.24943E+03  5.66021E+02
 -2.98510E+03 -2.75550E+03 -3.68592E+03 -9.12325E+03  3.71383E+03 -6.40248E+03  2.25756E+03  4.39344E+02
  2.32949E+03  4.13400E+03 -8.05443E+01 -1.09908E+03 -3.70736E+02 -1.25954E+03  1.62960E+03 -2.35398E+03
 -1.64791E+03 -1.73742E+03  9.27010E+02 -1.08407E+03  3.97516E+03  8.70023E+03  3.55397E+03  4.54796E+03
  8.92956E+02  9.05625E+03 -1.01289E+04  7.90080E+03 -9.21279E+03  5.61180E+02 -8.01458E+03 -4.72470E+03
 -5.20552E+03 -1.27194E+04 -2.22914E+03 -4.24468E+03  1.40285E+03 -4.92078E+03  7.00529E+02 -1.68855E+03
 -8.62584E+02 -2.92803E+03 -1.49582E+03 -4.46000E+03  1.08701E+03 -2.62593E+03  5.99872E+03  7.55663E+02
  6.03369E+03  3.09948E+03  5.51437E+02  1.28587E+03  1.03428E+02  2.14200E+03  9.37043E+02  4.22015E+03
 -5.13361E+03 -2.93399E+03 -7.20625E+02 -3.50497E+03  2.71513E+02 -5.73452E+03  1.51164E+03 -4.37099E+03
  4.54589E+03 -1.79695E+02  1.12435E+04  2.12612E+03  2.81796E+03  6.28480E+03  1.69574E+03  6.80224E+03
 -1.48945E+03  5.37578E+03 -6.55405E+03  7.31631E+02 -3.10541E+03 -4.18849E+03  1.62474E+03  1.49014E+02
 -4.70656E+03 -4.33731E+02 -1.33856E+03  6.56722E+03 -2.96139E+03  3.18556E+03 -2.95319E+03 -1.07789E+03
  2.41296E+03 -4.90061E+03 -2.55816E+03 -6.86829E+03  2.65321E+03 -2.87292E+03  4.13404E+03 -8.21283E+02
  2.58541E+03  1.85829E+03  3.68381E+03  4.85136E+03  4.98267E+02  2.99679E+03 -1.63230E+03  4.10448E+03
 -1.18730E+04  3.95972E+03 -4.45509E+02 -3.97013E+03 -2.54873E+03 -1.22166E+03  4.01572E+03 -8.82406E+03
  6.60016E+03 -2.35182E+03  5.14252E+03  2.00461E+03  1.29080E+03  2.59709E+03  2.95781E+03  4.67411E+02
 -1.74982E+03  2.07162E+03  2.99043E+03  3.97186E+03 -1.25598E+03  6.39095E+03  3.07995E+03  1.47810E+03
 -4.01180E+03  4.40876E+03 -2.06965E+03  2.92899E+03 -3.84618E+03 -5.14885E+02 -4.29817E+03 -4.33333E+01
 -2.58721E+03 -9.11889E+03 -5.44852E+03 -5.34823E+03  6.18848E+03 -4.75740E+03  3.45411E+03 -1.95044E+03
  5.54820E+03  1.15998E+03  2.66721E+03  2.88246E+03 -1.81064E+03 -3.08542E+02 -5.01548E+03 -1.97419E+03
 -1.34423E+03 -5.51069E+03  1.50435E+03 -2.24022E+03 -1.91760E+03 -3.21753E+03  1.16612E+03  6.36751E+02
 -2.30440E+03  3.06657E+03 -1.95228E+03 -1.04978E+03  9.86105E+02  1.22453E+03 -2.47915E+03 -3.87362E+03
 -4.73710E+03 -8.42815E+02  2.65529E+03 -3.95334E+03 -5.85435E+02  2.41573E+03  1.26171E+03  7.47590E+03
 -3.67742E+03 -3.61264E+02  5.49714E+02 -1.23567E+02 -3.55286E+02 -1.97296E+03 -4.21148E+03 -3.69159E+03
 -2.78043E+03 -4.10980E+02  2.98608E+03 -1.34018E+03 -1.04307E+03  4.99633E+01 -2.98187E+03  1.09678E+03
  1.34629E+03  1.55643E+03  9.49006E+02 -4.87872E+03  8.49935E+02 -6.26182E+03  4.16499E+01  1.59015E+03
  5.29031E+01 -2.43782E+03  5.14556E+02  7.17896E+01 -7.35319E+02  1.14021E+03 -8.95422E+01  3.66329E+03
  6.39159E+02 -9.10000E+02 -9.24491E+02  1.23176E+03  5.67319E+02  7.52056E+02 -2.28871E+03 -1.38315E+03
  1.56197E+03 -4.87155E+02  4.29199E+03  3.20925E+03  6.62515E+03  1.34130E+02  3.15447E+02  4.16781E+03
  1.79751E+03  9.89749E+02 -7.99129E+03 -6.19071E+02 -5.38462E+02  4.00318E+03  1.05560E+03  1.87130E+03
  2.63438E+03  5.92175E+02  1.40178E+03 -1.19197E+03 -3.22054E+03  5.98997E+03 -5.53163E+02  1.93523E+03
 -3.40510E+03 -6.12364E+02 -3.09868E+03  3.92316E+02 -5.49420E+02 -2.06169E+03  2.67616E+03 -2.31981E+03
 -2.70950E+03 -1.45015E+03 -2.90988E+03 -9.70886E+02 -4.06842E+03  9.49246E+02 -1.87202E+03 -1.97564E+03
  3.21292E+03 -4.20148E+03  1.39150E+03 -4.90091E+03  5.24582E+03 -5.66852E+03 -2.90048E+02 -2.97655E+03
  4.92147E+03 -1.51617E+03  4.40112E+02  2.20654E+03 -4.00572E+03  1.84133E+03 -1.32378E+03  1.52526E+03
 -4.91563E+03  2.17717E+03 -5.83581E+02  3.23377E+03  4.85419E+01 -3.62816E+03 -3.40921E+03 -6.98833E+03
  1.25940E+03 -1.87598E+03 -1.21256E+03 -3.66769E+03  2.36363E+03  2.82690E+03 -2.10982E+03 -3.22889E+03
  2.20756E+02 -3.94744E+03 -2.93617E+03 -4.02170E+02  1.38174E+03  2.57991E+03  2.98004E+03 -2.42511E+02
 -2.70299E+03  5.86798E+02 -4.71222E+03  6.03680E+03 -6.66007E+03 -5.71900E-01 -1.84672E+03 -1.73039E+03
 -1.01182E+03  1.96865E+03  3.05668E+03  3.07947E+02  4.88836E+03 -9.51935E+02 -8.01062E+02 -1.57416E+03
  5.99836E+03  5.24128E+02  7.92059E+02  6.03706E+03 -1.52531E+03 -2.00067E+03 -3.42780E+03  6.32315E+02
  2.49564E+03 -4.35414E+02  1.96188E+03  6.38784E+02  5.65975E+02 -3.09263E+03 -4.33388E+03  3.49975E+03
 -6.45570E+03  6.01270E+03 -9.54478E+02  7.14706E+03  6.50288E+01 -1.87751E+03  1.62757E+03 -2.64916E+03
 -4.10510E+02 -1.89836E+03 -5.12536E+02 -1.04792E+03 -7.60991E+02  8.62707E+02  1.08835E+03  5.62705E+02
  3.49734E+03 -2.62565E+03  1.97873E+03  4.31016E+02  9.92147E+02  1.57115E+02 -2.84619E+03 -1.84551E+03
 -2.85189E+02  1.79696E+03 -1.13626E+03 -2.01711E+02 -1.00872E+03  4.92419E+03  9.21157E+02 -4.41432E+03
 -3.93463E+03 -1.64084E+03 -2.65957E+02  6.99310E+02  2.10536E+01 -3.60340E+03  4.20806E+03  3.27539E+03
 -9.37742E+02 -5.96678E+03  1.81152E+03  2.33152E+03 -1.60434E+03 -5.57263E+02 -1.59926E+03  2.56017E+03
