 $NMID ID='MM_0lb_SNR50_13hz_g60_17.RAW', FMTDAT='(8E13.5)'
 TRAMP=1., VOLUME=1. $END
  3.08062E+05 -2.55429E+03  3.37891E+05  2.49480E+05  8.41119E+04  3.31931E+05 -1.35881E+05  2.55887E+05
 -1.93117E+05  8.20234E+04 -1.10745E+05 -3.33785E+04  3.59807E+03 -5.50631E+04  5.65331E+04  9.36242E+02
  2.95125E+04  5.23464E+04 -1.32285E+04  7.93639E+04 -5.85762E+04  6.57901E+04 -8.33696E+04  3.22668E+04
 -8.03195E+04 -1.56832E+04 -5.77320E+04 -4.80474E+04 -1.82465E+04 -6.80138E+04  2.59539E+04 -4.24459E+04
  3.68048E+04  3.77945E+03  1.55126E+04  4.46817E+04 -3.15446E+04  4.62334E+04 -7.04662E+04  1.61282E+03
 -5.75832E+04 -5.69039E+04 -3.19717E+03 -8.09442E+04  3.84916E+04 -5.45674E+04  4.35693E+04 -1.62149E+04
  4.26290E+04  8.21172E+03  3.12867E+04  2.77413E+04  1.54086E+04  2.81111E+04 -3.68109E+03  3.33246E+04
 -1.86496E+04  1.79691E+04 -2.08983E+04 -9.32332E+02  4.08752E+03 -6.21297E+03  2.11806E+04  1.43436E+04
  2.61835E+03  3.45535E+04 -3.84513E+04  3.30425E+04 -6.53687E+04  4.51917E+03 -5.26676E+04 -4.65001E+04
 -2.09670E+04 -7.00135E+04  3.62739E+04 -4.44915E+04  5.89514E+04  2.57237E+03  3.75345E+04  3.32867E+04
 -2.70001E+03  4.03192E+04 -3.20490E+04  1.73046E+04 -3.19562E+04 -5.48857E+03 -1.63699E+04 -6.80070E+03
 -8.99505E+03 -1.67043E+04 -6.18570E+02 -1.82697E+04  7.40764E+03 -1.94723E+04  1.54557E+04 -1.44496E+04
  8.97180E+03  4.77162E+03 -8.69388E+03  1.42232E+04 -2.27750E+04 -6.48392E+03 -9.07040E+03 -4.24084E+04
  2.35616E+04 -4.59949E+04  4.91967E+04 -2.06398E+04  5.31713E+04  2.31788E+04  2.37679E+04  4.58600E+04
 -1.63485E+04  3.28627E+04 -2.68592E+04  3.43046E+03 -7.71285E+03 -2.97478E+04  1.40237E+04 -4.13645E+04
  4.46793E+04 -1.43341E+04  3.31017E+04  2.77969E+04  2.10065E+04  4.95549E+04 -9.68840E+03  5.22508E+04
 -3.11828E+04  3.29723E+04 -4.21885E+04  1.07203E+04 -4.44541E+04 -1.69200E+04 -1.80093E+04 -3.99460E+04
  4.08762E+03 -4.50337E+04  3.99188E+04 -1.67749E+04  3.25161E+04  1.31060E+04  6.52217E+03  9.97179E+03
 -1.26785E+04  7.36806E+03 -1.35154E+04 -3.34736E+03  5.03086E+03 -9.36442E+03  1.85286E+04  6.91171E+03
  1.57683E+04  2.17523E+04 -4.47424E+03  2.56862E+04 -2.66236E+04  1.22648E+04 -3.17000E+04 -2.58640E+03
 -2.40869E+04 -1.69753E+04 -9.09398E+03 -2.22927E+04  1.97467E+03 -2.15219E+04  1.80057E+04 -2.11711E+04
  2.75481E+04 -9.37544E+03  3.77476E+04  3.38211E+03  2.19458E+04  2.58691E+04  9.18189E+03  3.62320E+04
 -1.45188E+04  3.49048E+04 -2.69255E+04  5.24225E+03 -2.32845E+04 -5.43253E+03 -2.88851E+03 -1.17734E+04
 -2.20734E+02 -5.29188E+03 -6.84568E+03  9.22142E+03 -1.54585E+04  5.40339E+03 -1.51571E+04 -8.77128E+03
 -1.01483E+04 -2.31379E+04  7.59054E+02 -2.22088E+04  1.69199E+04 -2.10613E+04  1.53429E+04 -3.97889E+02
  1.60744E+04  1.41550E+04  1.04452E+00  2.27174E+04 -1.37394E+04  1.07296E+04 -1.44215E+04  2.67219E+02
 -1.23268E+04 -1.77139E+04  2.08118E+03 -2.41663E+04  1.57587E+04 -2.16732E+04  1.90472E+04 -9.80069E+03
  1.76721E+04  1.78773E+03  1.34077E+04 -2.63160E+02  7.46295E+03  2.09652E+03  1.22802E+04  7.03879E+02
  2.44466E+04  5.33463E+03  2.11753E+04  1.24136E+04  9.46233E+03  2.95491E+04  3.33929E+03  4.00894E+04
 -2.67570E+04  3.58337E+04 -3.55857E+04  1.87845E+04 -4.25417E+04 -1.45023E+03 -3.61428E+04 -2.39303E+04
 -1.43117E+04 -3.29870E+04  1.61617E+04 -2.65660E+04  2.38020E+04 -1.41246E+04  2.01227E+04  7.91023E+03
  1.25914E+04  1.21050E+04 -7.31939E+03  1.57074E+04 -2.04638E+04  4.69320E+02 -1.63525E+04 -1.16620E+04
 -3.06318E+03 -1.67102E+04  5.42244E+03 -1.53785E+04  9.57671E+03 -3.29415E+02  5.11003E+03  9.56805E+03
 -5.41128E+03  4.30396E+03 -8.64198E+03 -8.41394E+03 -6.59434E+02 -1.36307E+04  1.25623E+04 -1.53887E+04
  1.48327E+04 -9.17937E+03  2.01620E+04  3.76190E+03  1.99460E+04  1.39214E+04  1.33508E+04  2.08220E+04
  3.49394E+02  2.13453E+04 -1.57667E+04  1.42969E+04 -1.51956E+04  7.36947E+03 -1.44621E+04 -3.86534E+03
 -9.71075E+03 -6.27367E+03  5.68666E+02  1.33436E+03 -3.81483E+03  1.97031E+03 -5.56588E+03  3.91874E+03
 -1.36216E+04 -2.48155E+03 -9.53176E+03 -1.46197E+04 -6.49977E+03 -1.57685E+04  1.86115E+03 -1.06614E+04
  1.24799E+04 -3.17777E+03  3.54730E+03  7.81461E+03 -3.84952E+03  3.01059E+03 -5.06049E+03  3.79438E+03
 -8.89717E+03 -7.16485E+03  1.32540E+03 -1.59036E+04  8.90063E+03 -1.02985E+04  1.65633E+04 -4.83539E+03
  1.96070E+04 -1.28515E+03  1.49732E+04  1.30160E+04  2.89284E+03  1.83506E+04 -7.54916E+03  1.28441E+04
 -1.43790E+04  1.96606E+03 -2.39159E+03 -7.17077E+03  3.80576E+03 -4.85443E+03  1.17910E+04 -2.30601E+02
  7.12496E+03 -1.44806E+02  8.77556E+02  1.23667E+04 -1.07145E+04  1.29252E+04 -1.05317E+04 -1.75597E+03
 -1.01189E+04 -6.94680E+03  1.60920E+02 -1.28111E+04  1.96655E+03  5.12517E+02  7.25621E+03  2.35281E+03
  4.36132E+02  7.83670E+03 -5.62203E+03  8.27594E+03 -1.14486E+04  3.24207E+03 -1.01458E+04 -9.15814E+02
 -7.40529E+03 -1.55236E+04  4.13447E+03 -1.16117E+04  1.38559E+04 -8.46708E+03  1.24004E+04  7.71856E+02
  7.04797E+03  1.83016E+04 -2.46124E+03  1.30462E+04 -1.06769E+04  6.59671E+03 -9.44692E+03 -5.02629E+03
 -1.37242E+04 -7.31798E+03 -7.05399E+02 -6.77599E+03  1.84016E+03 -6.49584E+03  2.91870E+03 -3.11002E+03
  9.60562E+02 -1.78740E+03  7.01998E+02 -1.09344E+03  2.77975E+02 -7.96934E+02  1.81177E+03 -6.69375E+03
  7.54700E+03 -2.84159E+03  1.15624E+04  5.57493E+03  6.94427E+03  7.56247E+03  7.07795E+03  1.47488E+04
 -2.87704E+03  1.89818E+04 -1.40803E+04  8.14628E+03 -1.68843E+04  5.35840E+02 -1.85291E+04 -1.25624E+04
 -6.39152E+03 -1.36268E+04 -5.98865E+01 -1.27287E+04  8.89135E+03 -6.92516E+03  1.49867E+03 -6.11221E+03
  6.93683E+03  3.67872E+02  3.50316E+03 -3.55110E+03  6.93821E+03 -1.61274E+03  7.07980E+03 -9.91033E+02
  7.56115E+03 -1.65001E+03  5.71009E+03  5.87232E+03 -6.80912E+03  1.10952E+04 -9.88818E+03  3.49836E+02
 -1.09135E+04  1.30283E+03  2.53893E+03 -1.07869E+04  3.59428E+03 -1.50640E+04  3.78912E+03 -1.36928E+04
  1.16814E+04 -4.44344E+03  1.39308E+04 -1.26785E+03  5.37594E+03  2.52528E+03 -4.37097E+03  8.00822E+03
 -9.84095E+03  9.68022E+03 -1.13576E+04  2.74878E+03 -4.77784E+02 -1.48733E+03 -1.17085E+03 -2.57903E+03
 -8.16718E+03  3.77706E+03  3.72474E+02  1.61188E+03 -4.02772E+03  7.56282E+02 -9.00433E+03 -1.38589E+03
 -7.31461E+03 -5.87996E+03 -1.10029E+03 -1.05566E+04  9.46775E+03 -1.13474E+04  1.12203E+04 -5.52557E+02
  1.05327E+04  3.31705E+03  2.20106E+03  9.21396E+03  7.81035E+02  7.40748E+03 -7.77308E+03  7.07500E+03
 -8.15043E+03  4.09835E+02 -1.41151E+04 -6.04450E+03 -4.42486E+02 -1.07187E+04  5.71584E+03 -1.21389E+04
  4.80088E+03 -5.00845E+03  4.76491E+03  4.20754E+03 -3.24277E+03  1.84824E+03 -2.92579E+03  1.42725E+03
  2.83698E+03  7.31868E+02  2.75789E+03 -2.35641E+03  2.10099E+03  6.01977E+03  6.76314E+03  7.98651E+03
 -2.00515E+02  7.06869E+03 -7.68734E+03  8.92128E+03 -1.17584E+04  2.79440E+03 -9.62359E+03 -4.46213E+03
 -9.11636E+03 -7.47820E+03  4.14301E+02 -7.55066E+03  3.41609E+03 -1.40206E+04  9.98045E+03  2.15806E+03
  1.01097E+04  6.55770E+03  3.78306E+03  7.48333E+03 -2.55507E+03  2.11905E+03 -4.51487E+03  1.10498E+02
 -3.48907E+03 -3.86426E+03  5.49311E+03 -3.21752E+03 -5.19440E+02 -3.68908E+03  3.51672E+03  1.45223E+03
  8.06037E+02  2.03996E+03 -1.46739E+03 -2.06327E+03 -2.29949E+03  9.27360E+03  1.89249E+03 -3.08721E+03
 -2.22637E+03  3.17989E+03  2.10644E+03  1.85744E+03 -9.97317E+02  3.86516E+03 -3.27052E+03  5.54616E+03
 -8.40484E+03  1.18139E+03 -5.40607E+03 -9.92633E+02 -5.83735E+03 -2.05775E+03 -4.89807E+03 -2.88018E+03
  8.41174E+02 -3.17177E+03 -6.65926E+02 -2.17109E+03 -2.42549E+03  1.92596E+03 -5.95892E+03  5.32114E+03
 -3.48845E+03 -1.34835E+03 -2.47799E+03  7.12495E+02 -2.45231E+03 -5.51300E+03 -7.20301E+02 -1.02146E+04
  5.21214E+03  4.89451E+01  1.09621E+03 -5.76225E+03  3.37016E+03 -4.79292E+02  7.49366E+02 -3.12432E+02
 -1.49035E+03  5.44863E+03 -1.44986E+03 -2.83857E+03 -8.96571E+02 -2.87865E+03  1.21735E+03 -4.16529E+03
  4.62394E+03 -2.87467E+03  6.93764E+03  3.13276E+03  4.62376E+03  2.29954E+03  1.80673E+03  3.03353E+03
 -8.03355E+03  8.76077E+03 -1.33046E+03  4.33663E+03 -2.24831E+03 -4.85009E+03 -1.95502E+03 -1.40173E+03
  3.04947E+03 -4.61828E+03 -7.95423E+02 -2.84253E+03  3.50776E+02  4.22457E+03  1.21716E+03 -2.04412E+03
 -7.50378E+03 -5.26325E+02  4.76532E+01  4.38660E+03 -2.07522E+03 -7.92903E+02 -3.90240E+03  8.97995E+02
 -3.54629E+03  2.47748E+03 -1.10120E+03  1.51197E+03 -1.47286E+03 -2.99066E+03 -6.50723E+03 -3.10946E+03
 -2.08670E+03 -7.69332E+03  4.02183E+02 -3.79336E+03  4.85028E+03 -5.46785E+03  8.48965E+02  3.00847E+03
  1.21763E+04  1.08008E+03  4.43462E+03  7.28559E+03  1.36800E+03  4.31676E+03  2.59547E+03  4.60127E+03
 -1.66174E+03 -5.43351E+02 -1.11253E+03 -1.42640E+03  4.21246E+01 -4.88226E+03 -3.12452E+03 -4.84440E+03
 -6.96437E+03 -2.17602E+03  2.22393E+03 -2.18968E+03  5.94213E+02 -3.84594E+03  2.05890E+03  1.77439E+03
  9.61197E+02  4.36398E+01  8.00610E+01 -2.51079E+03  5.40973E+03  3.89816E+03  6.12481E+02  5.85106E+03
  5.39278E+02  7.38206E+02 -8.27552E+03  4.10562E+03 -7.92217E+03 -3.34829E+03 -4.99295E+03 -8.05890E+02
 -1.85517E+03 -8.48805E+03  8.49431E+02 -6.05209E+03  6.00145E+03 -2.74775E+03  4.05906E+03  2.61350E+02
  2.18949E+03  3.49140E+03  3.40703E+03  9.29868E+02 -7.64982E+02 -1.09352E+03 -6.86543E+02  2.66848E+02
  5.24884E+03 -3.07950E+03 -5.58363E+01  8.04638E+02 -4.61324E+03  6.40194E+03  2.14238E+03  3.31913E+01
 -9.84971E+03 -3.45640E+03 -4.54877E+03  1.13446E+03 -3.60681E+02 -1.27055E+03 -1.72950E+03 -1.40344E+03
  1.55872E+02 -4.33862E+03  9.78947E+03 -2.90119E+03  7.24173E+03 -1.36810E+03  2.46437E+02  4.76618E+03
  2.26654E+03  5.39030E+02 -2.07805E+03 -1.50532E+03  2.47624E+03  2.58416E+03 -5.80073E+03  9.66334E+02
 -1.62712E+03 -1.07066E+03  2.73363E+03  1.48060E+03 -4.61837E+02  1.51154E+03  3.68032E+02 -2.35323E+03
 -5.23066E+03 -4.77912E+02 -4.49277E+03 -5.04781E+03  6.45349E+02 -4.14548E+03  2.39981E+03 -2.48874E+03
  2.58303E+03  5.03769E+03  2.55513E+03  1.83713E+03 -3.58149E+03  6.76493E+03 -3.44156E+02  2.83493E+03
