 $NMID ID='MM_0lb_SNR50_7hz_g40_8.RAW', FMTDAT='(8E13.5)'
 TRAMP=1., VOLUME=1. $END
  3.06299E+05  3.45576E+03  3.36147E+05  2.40460E+05  8.18040E+04  3.34836E+05 -1.26129E+05  2.52993E+05
 -1.86946E+05  8.43730E+04 -1.13544E+05 -3.29385E+04  2.71031E+03 -4.68663E+04  5.74971E+04 -6.68889E+03
  3.16016E+04  5.12437E+04 -1.14591E+04  7.47625E+04 -5.70101E+04  6.43524E+04 -8.58208E+04  3.74033E+04
 -8.21493E+04 -2.73187E+03 -5.48163E+04 -5.05826E+04 -1.43143E+04 -6.20489E+04  2.77560E+04 -4.73673E+04
  3.77301E+04  7.97317E+03  1.36484E+04  4.39347E+04 -3.55448E+04  4.34646E+04 -6.63553E+04  6.38374E+03
 -5.37531E+04 -5.80642E+04 -7.37967E+03 -8.22200E+04  3.88386E+04 -5.51913E+04  4.76821E+04 -1.81716E+04
  3.99779E+04  1.33027E+04  3.30673E+04  2.64631E+04  2.03591E+04  2.94362E+04 -6.35921E+03  3.15861E+04
 -1.75984E+04  1.11965E+04 -1.61675E+04 -4.36937E+03  8.38336E+03 -1.08909E+04  1.83197E+04  1.28899E+04
  1.09316E+04  4.15455E+04 -3.50875E+04  3.80585E+04 -6.66570E+04 -3.69288E+01 -6.35550E+04 -4.46616E+04
 -6.25232E+03 -5.88016E+04  4.78994E+04 -5.08155E+04  6.00838E+04 -1.69511E+03  4.38378E+04  3.96725E+04
 -1.03855E+04  4.27493E+04 -3.30704E+04  1.94948E+04 -3.82914E+04  1.07702E+03 -1.70898E+04 -1.12386E+04
 -7.91826E+03 -2.08580E+04 -2.77736E+03 -2.15092E+04  1.69465E+03 -2.48556E+04  1.45642E+04 -1.09761E+04
  1.26301E+04  8.29704E+03 -7.56526E+03  1.49861E+04 -2.18407E+04 -3.42024E+03 -9.95539E+03 -3.56002E+04
  2.52143E+04 -5.29355E+04  5.13737E+04 -1.67042E+04  4.68889E+04  1.64185E+04  1.22571E+04  4.52345E+04
 -7.13106E+03  2.80960E+04 -2.62709E+04  1.09649E+02 -1.43701E+04 -2.58511E+04  2.81248E+04 -3.73180E+04
  4.93432E+04 -1.04636E+04  4.48930E+04  2.44623E+04  2.24198E+04  4.79273E+04 -1.17055E+04  6.19006E+04
 -3.14416E+04  3.95246E+04 -4.75177E+04  1.38571E+04 -5.49474E+04 -2.01560E+04 -3.61883E+04 -4.47379E+04
  1.03793E+04 -4.15769E+04  3.64430E+04 -2.04926E+04  2.87695E+04  7.24270E+03  8.66419E+03  2.38151E+04
 -1.65215E+04  6.08366E+03 -8.44151E+03 -9.19846E+03  7.08494E+03 -8.09045E+03  2.31504E+04 -2.94856E+02
  1.52481E+04  2.23972E+04 -5.16933E+03  2.58509E+04 -2.64315E+04  2.41011E+04 -2.60967E+04 -1.56579E+03
 -2.74629E+04 -1.61774E+04 -1.21309E+04 -2.53793E+04  7.52283E+03 -3.10556E+04  2.22833E+04 -2.27708E+04
  2.96807E+04 -1.60514E+04  4.44327E+04 -1.74225E+03  2.34187E+04  2.79453E+04  7.97804E+03  4.44157E+04
 -2.13885E+04  3.23234E+04 -3.07205E+04  1.26322E+04 -2.28593E+04 -8.16484E+03 -7.15447E+03 -1.08317E+04
 -1.42898E+04  1.78002E+02 -6.75228E+02  5.65378E+03 -1.88436E+04  1.06791E+04 -2.34418E+04 -7.56682E+03
 -1.75932E+04 -1.74538E+04  5.39969E+03 -3.05641E+04  1.88790E+04 -1.85551E+04  2.58190E+04  2.60047E+03
  1.55637E+04  1.09178E+04  1.17858E+03  2.20054E+04 -1.53560E+04  1.75690E+04 -2.48057E+04 -5.80125E+03
 -1.69256E+04 -1.76006E+04  2.29646E+03 -2.25590E+04  1.34633E+04 -2.88713E+04  2.35660E+04 -1.40460E+04
  2.58307E+04 -1.80550E+03  2.22296E+04  1.34659E+04  1.07666E+04  1.92854E+02  1.41871E+04 -1.30285E+03
  2.80115E+04  1.73297E+03  2.50238E+04  1.94684E+04  2.10330E+04  4.17727E+04 -2.05107E+03  4.71811E+04
 -2.64132E+04  4.16192E+04 -4.40849E+04  2.52198E+04 -4.82942E+04 -2.55925E+03 -4.02488E+04 -3.04977E+04
 -1.68753E+04 -3.67892E+04  1.13107E+04 -3.67367E+04  3.40140E+04 -2.05944E+04  2.45140E+04  1.55773E+04
  2.94192E+03  1.88185E+04 -1.11332E+04  1.19719E+04 -2.93456E+04  1.31190E+04 -1.55130E+04 -1.30513E+04
  2.86469E+03 -1.97069E+04  8.30715E+03 -1.88905E+04  1.07222E+04 -2.56417E+03  5.57988E+03  1.44738E+04
 -9.06780E+03  8.24281E+03 -9.10860E+03 -1.00142E+04 -6.72750E+03 -1.63217E+04  1.60228E+04 -1.80109E+04
  2.74129E+04 -1.18201E+04  3.27416E+04  6.01924E+03  2.79917E+04  1.83628E+04  1.64093E+04  3.67330E+04
 -6.80749E+03  3.06150E+04 -1.77906E+04  1.55541E+04 -3.12326E+04  1.10026E+04 -1.61708E+04  1.51309E+02
 -1.40338E+03 -7.37321E+03  6.90258E+03 -1.19484E+04 -1.68473E+03  4.30360E+03 -5.44722E+03  8.82676E+03
 -1.56986E+04  1.52604E+03 -1.59603E+04 -1.10565E+04 -6.29135E+03 -2.16894E+04  7.37455E+03 -1.20801E+04
  1.39355E+04 -5.98067E+03  1.34797E+04  7.49486E+03  2.99522E+03  6.52527E+03 -5.56885E+03 -4.67990E+03
 -5.70524E+03 -1.51046E+04 -1.36890E+03 -1.22421E+04  7.53536E+03 -1.56465E+04  2.02414E+04 -1.94562E+04
  2.40561E+04 -5.30828E+03  1.27775E+04  1.82723E+04  2.85597E+03  2.59418E+04 -3.63784E+03  7.72228E+03
 -1.54736E+04  7.96421E+03 -2.15747E+04  1.15016E+03 -1.50632E+03 -9.47552E+03  6.75951E+03 -2.01876E+03
  3.80850E+03  1.25512E+04 -2.97983E+03  1.56855E+04 -8.15942E+03  1.27738E+04 -1.57370E+04  4.95250E+03
 -1.12573E+04 -6.65181E+03 -2.54572E+03 -1.21031E+04  7.75455E+03 -7.85790E+03  6.43042E+03  8.06921E+03
  4.94737E+03  1.24844E+04 -1.38519E+04  1.29608E+04 -1.83154E+04  4.35777E+03 -2.06665E+04  4.29753E+03
 -1.23394E+04 -2.12602E+04  2.81313E+03 -1.29627E+04  1.80538E+04 -9.06720E+03  2.61714E+04  2.99917E+03
  6.48721E+03  1.19291E+04  5.55315E+02  2.04763E+04 -1.19918E+04  6.99937E+03 -1.18036E+04  5.43445E+03
 -1.47953E+04 -1.33766E+04 -4.15515E+03 -1.08916E+04  4.38610E+03 -1.10376E+04  1.36242E+04  2.60926E+03
  5.02205E+02  4.78197E+03 -1.84373E+03  2.97611E+03 -9.89114E+03 -6.31154E+02 -1.18084E+03 -5.52760E+03
  1.05102E+04 -6.78878E+03  1.67816E+04  3.17383E+03  2.04320E+04  1.51273E+04  1.79929E+04  2.21936E+04
 -5.96776E+03  2.84822E+04 -3.12382E+04  2.30279E+04 -2.53496E+04  2.62573E+03 -2.33450E+04 -1.06907E+04
 -1.17560E+04 -1.66498E+04  2.75453E+03 -1.78348E+04  4.25133E+03 -7.99374E+03  6.38021E+03 -5.20530E+02
  9.76062E+03  2.65875E+03  1.13517E+04 -3.80703E+03  7.43925E+03 -8.14803E+03  8.41153E+03  4.29045E+01
  2.21873E+04  1.66112E+03  3.26119E+03  1.02889E+04 -1.99033E+03  1.43220E+04 -1.24112E+04  4.73197E+03
 -2.05736E+04  1.06203E+03 -4.09866E+03 -6.25724E+03  5.35663E+03 -1.39674E+04  7.70998E+03 -1.54060E+04
  1.90089E+04 -1.21672E+04  2.37491E+04  3.98539E+03  2.10812E+04  1.73748E+04  6.09009E+03  2.09418E+04
 -9.11239E+03  1.14076E+04 -1.35746E+04  7.24932E+03 -1.29982E+04 -5.58023E+03 -3.83733E+03  1.48884E+03
  4.09255E+03  1.13176E+03 -2.16019E+03  1.95253E+03 -6.35210E+03 -9.67077E+01 -1.75375E+04 -1.26604E+03
 -8.92430E+03 -1.10891E+04 -5.80510E+03 -1.82610E+04  1.53236E+04 -1.33922E+04  2.17914E+04 -1.36836E+02
  1.78725E+04  9.84979E+03  5.60806E+03  1.84653E+04  5.01938E+03  1.66500E+04 -1.00345E+04  1.33218E+04
 -1.43777E+04 -1.22763E+03 -5.64239E+03 -9.72221E+03 -7.06966E+02 -8.21105E+03  5.59071E+03 -1.50172E+04
  1.38513E+04 -3.61617E+03  1.11075E+04  5.88209E+03 -2.04832E+03  5.65410E+02  7.27018E+03  2.97732E+03
  4.79765E+03 -9.59020E+01  7.32723E+03  2.17144E+03  1.17327E+04  4.46263E+03  5.37285E+03  1.08376E+04
 -1.39486E+03  1.25839E+04 -1.00938E+04  4.73616E+03 -2.57129E+04  6.86780E+03 -2.06542E+04 -8.86214E+03
 -8.91692E+03 -2.06910E+04  3.27454E+03 -1.60118E+04  6.93779E+03 -1.91217E+04  2.09532E+04 -5.47041E+03
  2.07623E+04  4.20764E+03  4.81001E+03  1.17003E+04 -2.93737E+03  1.46723E+04 -8.39659E+03 -3.06575E+03
  3.47857E+03  5.41413E+03  2.33028E+03 -6.57863E+03  5.53904E+03 -8.12969E+03 -2.60292E+03 -1.55032E+03
  7.75754E+03  4.44349E+02 -1.89168E+03  9.89418E+02 -4.98936E+03  2.22965E+03  6.74106E+03  1.91686E+03
  9.88395E+02 -5.40713E+03  1.17186E+04  2.48437E+03  4.00828E+03  5.07576E+03 -3.25539E+03  1.19494E+04
 -7.36098E+03  1.08124E+04 -1.23408E+04  1.47631E+03 -1.20615E+04 -1.12056E+03 -3.43425E+03 -8.79658E+02
 -1.38291E+03  1.17804E+03  3.09769E+03 -6.05346E+03 -1.47703E+03  5.65935E+03 -1.17378E+03  1.01511E+04
 -7.89522E+03  5.26126E+03 -1.30349E+04 -8.55928E+03 -1.02468E+04 -9.71888E+03 -4.45017E+03 -1.82186E+03
  3.10322E+02 -7.89617E+03  7.77402E+03 -2.47846E+03  8.93000E+03 -7.36476E+01  4.91951E+03  1.61448E+03
 -5.46176E+03  1.23670E+03 -4.96375E+03 -6.93256E+03  3.04975E+03 -4.09236E+03  3.39634E+03 -3.29213E+03
  9.53001E+03 -1.36775E+03  1.41778E+04  8.11015E+03  2.08584E+03  1.35385E+04 -2.36920E+03  9.66109E+03
 -1.07527E+04  6.02061E+03 -6.23967E+03 -3.80535E+03 -1.05322E+04 -2.87834E+03 -4.85301E+02 -2.56541E+03
  7.28199E+03 -8.05959E+03  7.65368E+03  5.06587E+03 -4.13303E+02  8.89220E+03 -1.63976E+03  1.19443E+04
 -1.27797E+04  1.13292E+04 -2.01583E+03 -4.24402E+02 -2.34168E+02 -4.22363E+03 -3.08696E+03 -5.51170E+03
 -1.06271E+03  1.51834E+03 -1.33058E+04 -1.83702E+03 -1.80206E+04 -2.65203E+03 -1.69132E+04 -7.35143E+03
 -5.66131E+03 -1.63801E+04 -1.66963E+03 -1.92557E+04  2.14241E+04 -1.49151E+04  2.23134E+04 -8.91122E+03
  1.98197E+04  3.05351E+03  8.89959E+03  2.02886E+04 -4.63818E+03  1.10939E+04 -6.44336E+03  1.19588E+04
 -4.51397E+03  4.26100E+03 -9.56055E+03 -1.06024E+03  2.85202E+02 -3.75474E+03  1.54309E+03  3.49025E+03
 -7.54992E+03 -2.52133E+03  2.30030E+03  5.27491E+03 -4.16319E+03 -2.69141E+03  4.32287E+03 -1.33276E+04
 -4.47871E+03 -4.67699E+03  6.69744E+03 -1.34905E+02  9.31801E+03  1.06708E+04  4.36622E+03  1.23009E+04
 -2.45691E+03  1.65993E+04 -1.73400E+04  5.92909E+03 -1.40923E+04 -6.19823E+03 -1.19423E+04 -1.49038E+04
 -9.67754E+03 -1.45705E+04  7.80354E+03 -1.66157E+04  1.16015E+04 -2.32849E+03  1.22216E+04  1.23068E+03
 -3.31595E+03  4.41278E+03 -3.33867E+03 -2.13012E+03 -7.22706E+03 -3.75842E+03  6.47802E+02 -1.47958E+03
  7.28096E+03 -6.73170E+02  9.58832E+03  1.13049E+03  7.94374E+03  1.05567E+04  1.06204E+02  4.40573E+03
 -5.44158E+03  1.68433E+04 -7.86603E+03 -2.23435E+03 -1.07774E+04 -5.76436E+03  1.23230E+03 -1.74124E+04
  3.53168E+03 -1.36650E+04  1.14917E+04 -3.42459E+02  9.66344E+03  4.42762E+03  1.62539E+03  6.75327E+02
 -1.10502E+03  7.62195E+03 -8.52175E+03  5.06309E+03 -8.77485E+03 -4.63319E+03 -9.00416E+03 -4.88409E+03
  2.02370E+03  5.22822E+03 -8.35727E+03 -8.38061E+02 -3.63205E+03 -1.15348E+03 -5.17399E+03  2.29936E+03
 -5.20339E+03 -5.57019E+03 -5.56076E+03 -7.43924E+03  7.52692E+03 -7.76200E+03  1.06674E+04 -7.37345E+03
  9.83358E+03  7.88048E+03  5.03516E+03  2.25336E+03 -2.53047E+02  1.33686E+04 -1.12667E+04  8.41748E+03
