 $NMID ID='MM_0lb_SNR50_13hz_g50_82.RAW', FMTDAT='(8E13.5)'
 TRAMP=1., VOLUME=1. $END
  3.04561E+05  1.13903E+03  3.37589E+05  2.46855E+05  8.13896E+04  3.36699E+05 -1.27073E+05  2.48392E+05
 -1.91793E+05  8.64302E+04 -1.11235E+05 -3.34480E+04  1.76866E+03 -5.11559E+04  5.01221E+04 -1.15702E+03
  3.28635E+04  5.66751E+04 -1.52468E+04  7.79969E+04 -5.90466E+04  6.42083E+04 -8.26250E+04  3.14646E+04
 -7.72487E+04 -1.04394E+04 -5.49235E+04 -5.05146E+04 -1.57223E+04 -7.32971E+04  2.74673E+04 -4.54674E+04
  4.18613E+04  2.32587E+03  1.96990E+04  4.61751E+04 -3.24769E+04  4.71856E+04 -7.05705E+04  6.62766E+02
 -5.48080E+04 -5.64269E+04 -4.52303E+03 -7.90673E+04  4.02216E+04 -5.75669E+04  5.18791E+04 -1.71795E+04
  4.68542E+04  1.14637E+04  2.96631E+04  2.37031E+04  1.27448E+04  3.35767E+04 -5.87486E+03  2.69236E+04
 -1.84576E+04  1.23667E+04 -1.71755E+04 -3.63544E+03  6.37317E+03 -7.43053E+03  2.71797E+04  1.78171E+04
  7.08708E+03  3.83417E+04 -3.63004E+04  3.39570E+04 -6.58759E+04  4.89397E+03 -6.27719E+04 -4.22766E+04
 -1.41699E+04 -5.98517E+04  3.66196E+04 -4.67800E+04  6.54862E+04 -2.17695E+03  3.41704E+04  3.27047E+04
 -4.57273E+03  3.31751E+04 -3.21588E+04  1.30394E+04 -3.21220E+04 -4.76203E+03 -1.45511E+04 -1.38130E+04
 -5.75226E+03 -1.56131E+04  4.88479E+02 -1.42993E+04  8.38252E+03 -2.43028E+04  1.62943E+04 -1.72805E+04
  8.39636E+03  7.55939E+03 -9.72920E+03  1.53567E+04 -2.34318E+04 -8.77361E+03 -4.38533E+03 -3.25557E+04
  2.46448E+04 -4.66613E+04  4.61193E+04 -2.06898E+04  4.80927E+04  1.80826E+04  1.05238E+04  5.17309E+04
 -1.80317E+04  3.44450E+04 -2.91285E+04 -3.32329E+03 -1.28979E+04 -2.98991E+04  1.77548E+04 -3.48952E+04
  3.85280E+04 -1.09602E+04  3.18261E+04  2.76152E+04  1.65223E+04  5.18949E+04 -9.26211E+03  5.08850E+04
 -3.06288E+04  3.87082E+04 -3.66136E+04  1.22433E+04 -4.44354E+04 -1.50460E+04 -2.93827E+04 -4.18212E+04
  1.55532E+04 -3.99804E+04  3.55521E+04 -1.47850E+04  3.32416E+04  1.20861E+04  6.55224E+03  2.14637E+04
 -1.67052E+04  1.05761E+04 -4.24550E+03 -7.37953E+03  1.64281E+03 -8.65389E+03  1.63204E+04  6.30783E+03
  1.95904E+04  2.37369E+04 -5.56433E+03  2.37914E+04 -2.11188E+04  1.34723E+04 -2.84891E+04 -7.67657E+03
 -2.43842E+04 -1.81739E+04 -4.16076E+03 -2.09787E+04  2.81144E+03 -1.94643E+04  1.78857E+04 -2.25130E+04
  2.61425E+04 -1.55396E+04  2.97880E+04  5.18472E+03  2.69524E+04  1.80143E+04  7.79445E+03  3.69981E+04
 -1.96418E+04  2.56643E+04 -2.45959E+04  7.54069E+03 -2.11946E+04 -1.01991E+04 -1.36595E+03 -1.64157E+04
 -5.78200E+02 -1.75204E+03 -5.08739E+03  3.96335E+03 -1.83282E+04 -6.13049E+02 -1.79469E+04 -5.06806E+03
 -1.10121E+04 -1.98668E+04  4.60781E+03 -2.40846E+04  1.65821E+04 -1.55965E+04  2.39092E+04 -6.42549E+03
  1.12260E+04  1.39607E+04  2.36662E+03  1.68021E+04 -1.47681E+04  1.27251E+04 -2.45654E+04 -3.47426E+03
 -1.35604E+04 -1.63550E+04 -4.40291E+03 -2.72172E+04  8.87483E+03 -2.15213E+04  1.97513E+04 -1.36231E+04
  1.98783E+04  7.37075E+02  1.92087E+04  1.15976E+03  7.62907E+03 -4.13817E+02  7.98669E+03 -5.79694E+03
  1.53374E+04  2.00031E+03  1.62473E+04  1.14717E+04  1.71637E+04  3.45310E+04  2.97057E+03  3.74111E+04
 -1.81597E+04  2.59570E+04 -3.58338E+04  1.36439E+04 -3.59027E+04  1.50480E+03 -2.73171E+04 -2.42800E+04
 -1.11445E+04 -2.73883E+04  9.07234E+03 -2.73245E+04  2.45953E+04 -1.34060E+04  1.96750E+04  1.02204E+04
  6.15566E+03  1.32245E+04 -1.17273E+04  8.49834E+03 -1.73942E+04  3.70577E+03 -9.24488E+03 -1.21797E+04
  2.01437E+03 -1.56478E+04  1.02010E+04 -1.39201E+04  1.24062E+04 -4.50451E+02  9.40980E+02  7.69671E+03
 -8.61072E+03  7.86943E+03 -2.88434E+03 -1.11399E+04  2.57812E+03 -1.44307E+04  4.56091E+03 -1.44455E+04
  1.92730E+04 -1.59014E+04  1.69493E+04  5.03031E+03  1.59250E+04  1.04611E+04  7.56027E+03  2.71989E+04
 -3.44929E+03  1.99740E+04 -1.46740E+04  1.19574E+04 -1.38014E+04  2.20714E+03 -1.06539E+04 -6.48998E+03
 -7.95746E+03 -4.28398E+03 -2.54261E+03  9.25617E+03 -3.42599E+03  4.55751E+03 -6.57351E+03  6.29813E+03
 -1.09745E+04 -2.98099E+02 -1.83660E+04 -6.26615E+03 -4.96610E+03 -1.51580E+04  5.16413E+03 -8.34832E+03
  8.23407E+03 -4.30664E+03  3.43052E+03  4.75532E+03  5.23750E+03  1.09203E+04 -1.12162E+03  1.55050E+03
 -4.87907E+03 -9.87998E+03 -4.65606E+03 -1.24225E+04  9.07033E+03 -1.54018E+04  1.60187E+04 -1.40863E+04
  1.71070E+04  1.91938E+02  9.41837E+03  1.52064E+04  1.54900E+03  1.87146E+04 -9.61974E+03  1.31511E+04
 -6.52507E+03  3.80352E+03 -7.88849E+03 -4.11780E+03 -4.07909E+03 -4.58065E+03  9.17322E+03 -2.70845E+02
  5.64836E+03  6.30101E+03  1.48158E+03  4.09669E+03 -7.78901E+03  1.12440E+04 -1.48192E+04  4.07755E+03
 -1.12101E+04 -2.48972E+03 -2.94024E+03 -8.15754E+03  6.82167E+03 -5.86965E+03  6.24526E+03  2.45499E+03
 -2.85337E+03  3.83350E+03 -5.92442E+03  3.79065E+03 -5.74100E+03  6.06414E+03 -1.13757E+04  1.31188E+03
 -5.51678E+03 -1.02919E+04  5.17735E+03 -1.78776E+04  1.38598E+04 -1.02232E+04  1.13446E+04  5.19179E+02
  6.54149E+03  1.02991E+04 -3.13626E+03  1.03514E+04 -9.91223E+03  7.39557E+03 -3.96464E+03 -8.26519E+03
 -4.67442E+03  2.49048E+02 -1.19132E+03 -1.20714E+04  6.56662E+03 -5.80224E+03  3.34596E+03 -4.45073E+03
  2.10420E+03  3.75990E+03 -1.76464E+03  1.84140E+03  3.71013E+03 -2.67584E+03 -1.69639E+03 -6.30640E+03
  8.89764E+03 -3.48932E+03  1.25964E+04 -3.60104E+03  1.21905E+04  7.87702E+03  6.29518E+03  7.72000E+03
 -2.86375E+03  2.00385E+04 -1.36138E+04  1.13775E+04 -1.49877E+04  1.64826E+03 -1.73923E+04 -8.61826E+03
 -7.26159E+03 -1.53016E+04  1.74213E+03 -1.26756E+04  5.52466E+03 -3.35716E+03  3.71662E+03 -3.44876E+03
 -1.28625E+03 -4.99652E+03  2.84477E+03 -5.50097E+03  7.28446E+03 -3.82348E+03  1.23452E+04  3.45908E+03
  6.18803E+03  7.30337E+03  3.06581E+03  6.48302E+03 -3.55516E+03  1.06134E+04 -6.89976E+03  2.93948E+03
 -7.09769E+03 -1.07476E+03 -6.46368E+03 -5.30912E+03 -1.68200E+03 -5.22214E+03  9.26109E+03 -5.59931E+03
  2.66285E+03 -9.65179E+03  9.02761E+03  2.47442E+03  1.06435E+04  5.09626E+03 -2.46700E+03  1.19309E+04
 -1.94323E+03  1.23970E+04 -9.16406E+03  4.42132E+03 -5.23354E+03 -2.64271E+02 -2.48459E+02  8.19370E+02
  3.54384E+03 -2.79816E+03  3.67377E+03 -3.52197E+03 -7.23927E+03 -3.60692E+03 -1.45048E+03  1.31326E+03
 -5.85432E+03 -7.82646E+03  2.58504E+03 -1.06292E+04  3.17488E+03 -8.71842E+03  1.00723E+04 -2.05774E+03
  9.90970E+03  1.47041E+02  4.58297E+03  4.70000E+03 -1.29346E+03  8.11680E+03 -8.49551E+03  7.24159E+03
 -5.81542E+03  2.37744E+03 -1.03242E+04  4.62191E+02  4.32394E+03 -7.92697E+03  1.07426E+03 -5.40717E+03
  6.02698E+03 -2.66729E+03  2.82738E+03  5.81825E+02 -5.67825E+02  5.23590E+03 -2.51240E+03  3.18408E+03
  3.36985E+03 -3.79763E+03  7.16770E+03  2.24792E+03  3.38138E+03  3.50782E+03  4.98830E+03  6.75406E+03
 -2.10155E+03  8.32604E+03 -7.30278E+03  8.79526E+03 -7.94968E+03 -4.21475E+02 -1.14384E+04 -8.94959E+03
 -7.37498E+03 -2.25422E+03  2.31783E+03 -6.49630E+03  1.50542E+03 -4.53673E+03  3.04037E+03 -4.65508E+03
  3.77643E+03  1.60449E+03 -2.31474E+03  7.20100E+03 -1.88267E+03  1.81401E+03 -7.86852E+03 -4.75592E+02
  1.73820E+03 -3.84769E+03  2.33559E+03 -4.02709E+03  2.20883E+03 -2.53366E+03  9.71792E+03  1.33776E+03
  1.60024E+03 -3.00437E+03  2.64916E+03  3.81141E+03 -1.90593E+03 -2.59039E+03  9.87016E+02 -2.51741E+03
 -2.42656E+03  5.82711E+02  3.40800E+03  4.94072E+03  2.17516E+03  8.42315E+03  5.94054E+03  9.06146E+03
 -8.60425E+03  7.09758E+03 -5.86358E+03  1.20850E+03 -5.18651E+03 -3.40321E+03  1.26309E+03 -3.91860E+03
 -2.24754E+03 -6.65080E+03  1.09973E+03  1.08175E+03  2.44159E+03  6.56308E+03  3.53259E+03  3.31138E+03
 -5.33489E+03  3.57393E+03  2.14013E+03 -3.10647E+03 -1.54103E+02 -3.65699E+03 -2.83830E+03 -2.78724E+03
  6.86901E+03 -6.93621E+03  6.45012E+02  4.19880E+03  4.83883E+03  3.41696E+03  7.32486E+03  7.16401E+03
 -4.81480E+01  6.95839E+02 -4.04974E+02 -2.51092E+03 -1.23734E+03 -3.46583E+03  5.22975E+03 -4.32948E+03
  1.75168E+03 -4.87655E+03  6.43030E+03  1.77396E+03  3.51593E+03  1.13211E+04 -4.75600E+03  4.20267E+03
 -1.38627E+03  3.81973E+03 -5.00647E+03 -5.07829E+03 -3.33783E+03 -4.57933E+00  5.50806E+03 -1.49919E+03
  5.00763E+03 -3.22255E+02 -2.83981E+03  1.85095E+03  3.63348E+03  6.32396E+03  1.76193E+02  5.01430E+03
 -2.30509E+03 -2.32167E+03 -1.39135E+03  7.45498E+02  7.58136E+02  8.06505E+02 -1.46825E+02  7.10435E+02
 -3.61318E+03  5.88374E+03 -2.78004E+03 -2.02055E+01 -2.60316E+03 -3.83294E+02 -5.39898E+03 -3.76836E+03
 -7.05302E+03 -9.49596E+03 -2.17595E+03 -1.13617E+04  6.94522E+03  5.46210E+02  6.38339E+03 -3.33868E+03
  7.99212E+03 -2.32540E+03  4.19957E+03  1.90817E+03 -1.76014E+03  1.42303E+03 -4.45462E+03  3.60846E+03
 -5.85434E+03  8.27344E+03 -4.53966E+03 -3.78215E+03 -2.95761E+03  3.71056E+03 -3.36541E+03  9.14889E+02
 -2.19952E+03 -2.85326E+03 -8.30247E+02  2.85494E+03  4.68173E+03 -2.92399E+03 -2.69650E+02 -5.08212E+03
 -1.07046E+02 -7.63316E+03  3.35403E+03  6.88357E+02  5.57241E+03  1.42097E+03  3.08459E+03  6.42710E+03
 -4.22541E+03  7.49644E+03 -6.32348E+03  3.37826E+03 -3.54857E+03 -3.42577E+02 -8.79341E+03 -3.37360E+03
 -5.30979E+03 -5.73317E+03 -2.84679E+02 -7.16894E+03  2.67432E+02 -4.08537E+03 -8.71923E+01  6.10311E+03
  5.52432E+03 -2.26073E+03  2.81778E+03 -5.31904E+02 -2.70713E+03 -6.39149E+03  1.17575E+03 -3.44502E+03
  7.33170E+03  1.90295E+03  1.26386E+03  3.54318E+03  3.73845E+03 -1.84663E+03  3.72092E+03  7.21925E+03
 -2.05031E+03  5.16491E+03 -7.35782E+03  4.33743E+03 -2.33221E+03 -5.99441E+01  1.88487E+02 -5.24403E+03
  2.01672E+03 -1.19510E+03  5.43270E+03 -2.39258E+03  5.38053E+03 -2.01936E+03 -6.85453E+02  4.26493E+03
  6.33706E+03  1.47781E+03  1.81268E+02  4.43240E+03 -6.11951E+03 -8.29962E+02  7.16514E+02 -9.73922E+02
 -1.50480E+03 -2.24119E+03 -3.39876E+03  3.38433E+03 -1.36191E+03  3.42095E+03 -9.88834E+02 -5.91374E+03
 -1.16846E+03 -2.27730E+03  1.03146E+03 -2.60957E+03  1.35880E+03  2.63729E+03  5.42477E+03  1.81409E+03
  2.23868E+03 -4.31148E+03  6.64062E+03 -3.90022E+03  2.62959E+03  9.47494E+03 -5.53535E+02 -6.44657E+02
