 $NMID ID='MM_0lb_SNR50_11hz_g40_37.RAW', FMTDAT='(8E13.5)'
 TRAMP=1., VOLUME=1. $END
  3.08074E+05  9.33962E+01  3.42275E+05  2.54896E+05  8.71607E+04  3.39695E+05 -1.35196E+05  2.52467E+05
 -1.88532E+05  8.35339E+04 -1.14548E+05 -2.58046E+04 -3.39267E+03 -5.04750E+04  5.03724E+04  2.22876E+03
  2.90692E+04  5.56550E+04 -1.73850E+04  7.32355E+04 -5.64743E+04  5.75637E+04 -8.19916E+04  3.72428E+04
 -7.70474E+04 -1.06548E+04 -5.79242E+04 -4.67995E+04 -1.19788E+04 -7.00526E+04  2.80947E+04 -4.88233E+04
  4.41283E+04  3.62261E+03  1.52923E+04  4.63058E+04 -3.83351E+04  4.71773E+04 -6.95029E+04  4.33771E+02
 -5.47602E+04 -6.46149E+04 -9.09219E+03 -7.84528E+04  3.57832E+04 -5.35088E+04  4.82381E+04 -1.97400E+04
  4.81052E+04  1.10960E+04  3.51676E+04  2.32436E+04  1.35006E+04  2.43883E+04 -1.12880E+04  2.55766E+04
 -2.54815E+04  7.76778E+03 -1.45983E+04 -1.53042E+03  1.33408E+04 -7.63501E+03  2.35858E+04  1.41061E+04
  6.79198E+03  3.44372E+04 -3.52892E+04  3.74733E+04 -6.39880E+04 -2.79772E+03 -5.79342E+04 -4.56635E+04
 -1.35058E+04 -6.43268E+04  4.27234E+04 -5.02454E+04  6.33139E+04 -3.45983E+03  3.66440E+04  2.82998E+04
 -5.92773E+03  3.64055E+04 -2.97411E+04  2.07165E+04 -3.68107E+04 -6.65709E+03 -1.24230E+04 -9.64869E+03
 -1.12822E+04 -9.59754E+03 -6.83089E+03 -1.86001E+04  6.30249E+03 -2.23361E+04  1.73104E+04 -1.32066E+04
  5.16107E+03  8.56891E+03 -1.21184E+04  1.56042E+04 -2.18430E+04 -5.43048E+03 -7.32582E+03 -3.75709E+04
  2.22866E+04 -4.30657E+04  5.69320E+04 -2.12805E+04  4.98142E+04  1.68983E+04  1.09797E+04  5.04985E+04
 -1.59053E+04  3.68180E+04 -2.35617E+04 -5.76540E+02 -8.94901E+03 -2.78769E+04  2.11161E+04 -3.26618E+04
  4.52712E+04 -7.68419E+03  3.65278E+04  2.83696E+04  2.22010E+04  4.88442E+04 -5.36296E+03  4.87727E+04
 -3.21344E+04  3.62983E+04 -3.53072E+04  9.59251E+03 -4.38125E+04 -2.03753E+04 -2.42818E+04 -4.13273E+04
  9.13077E+03 -4.17291E+04  3.08639E+04 -2.13571E+04  2.07630E+04  1.18893E+04  6.42948E+02  1.43896E+04
 -1.19046E+04  8.63875E+03 -6.46340E+03 -8.80135E+03  7.84447E+03 -1.59460E+04  1.84630E+04  8.96140E+03
  1.53332E+04  2.38726E+04 -1.98343E+03  2.76050E+04 -2.15650E+04  1.55386E+04 -2.66828E+04 -1.55501E+03
 -2.00934E+04 -1.64626E+04 -7.38412E+03 -2.12466E+04  2.18345E+03 -2.36238E+04  1.50060E+04 -1.56074E+04
  2.63474E+04 -1.13079E+04  3.73835E+04  5.52906E+03  2.67954E+04  1.81456E+04  4.69224E+03  3.96209E+04
 -2.16616E+04  3.01826E+04 -2.99081E+04  1.04566E+04 -2.39107E+04 -1.33763E+04 -3.07392E+03 -1.57690E+04
  7.31672E+02  1.86315E+03 -1.01250E+04  1.07840E+04 -1.01652E+04  2.17799E+03 -1.67463E+04 -1.01163E+04
 -7.39051E+03 -1.83419E+04  1.25578E+04 -2.79656E+04  1.81561E+04 -2.13202E+04  2.57705E+04  8.98280E+02
  1.21683E+04  1.94679E+04 -3.80333E+02  2.02818E+04 -1.86954E+04  8.97998E+03 -2.19987E+04 -5.97664E+02
 -1.03967E+04 -1.78900E+04 -3.65475E+02 -2.14819E+04  8.56233E+03 -2.22917E+04  1.71736E+04 -8.36494E+03
  2.07961E+04 -1.16040E+03  1.81154E+04  5.74482E+03  2.09156E+03 -2.61474E+03  1.15290E+04  1.35543E+03
  2.18904E+04  1.65803E+03  2.40670E+04  1.56552E+04  1.39951E+04  3.72600E+04 -6.55259E+03  4.00977E+04
 -2.34026E+04  2.94356E+04 -3.83883E+04  1.58180E+04 -3.62572E+04 -1.06948E+04 -3.15882E+04 -1.84314E+04
 -3.49728E+03 -2.81726E+04  6.46536E+03 -2.57011E+04  1.81403E+04 -2.05645E+04  2.28446E+04  5.52799E+03
  9.47256E+03  1.50171E+04 -8.71701E+03  1.03389E+04 -2.20943E+04 -9.41265E+02 -1.50844E+04 -8.84759E+03
 -4.23958E+03 -1.89630E+04  1.15618E+04 -1.25290E+04  9.93090E+03  1.47738E+03  1.13625E+03  3.92690E+03
 -8.42123E+03  6.17312E+03 -1.01366E+04 -4.12404E+03  7.32929E+03 -1.56977E+04  6.60840E+03 -1.49498E+04
  1.47680E+04 -7.72541E+03  2.35917E+04  3.89364E+03  2.03749E+04  1.41139E+04  6.18035E+03  2.37619E+04
 -1.88267E+03  2.81970E+04 -1.52040E+04  2.08248E+04 -1.59156E+04 -2.97369E+03 -1.03063E+04 -6.22532E+03
 -1.19271E+03 -1.13966E+04  6.12929E+03  6.64441E+03 -7.48159E+03 -2.51174E+03 -3.47706E+02  6.03284E+03
 -1.21955E+04 -3.65522E+03 -1.18240E+04 -9.70258E+03 -4.42144E+03 -1.52277E+04  5.70754E+03 -1.67093E+04
  9.50384E+03 -1.41167E+03  7.67364E+03  8.38735E+03 -1.76951E+03 -8.81701E+02 -8.81586E+03  1.81977E+03
 -9.40028E+03 -8.42288E+03  2.92530E+03 -1.48331E+04  6.81189E+03 -1.33189E+04  1.57774E+04 -9.34932E+03
  2.45396E+04  4.38169E+03  1.58775E+04  1.28509E+04 -4.74793E+02  2.05455E+04 -4.74774E+03  1.59248E+04
 -6.79163E+03  2.51515E+03 -7.05693E+03 -7.84040E+03  1.87940E+03 -1.02298E+03  1.42246E+04 -4.44885E+03
  5.40670E+03  3.80502E+03  1.16937E+03  8.77469E+03 -5.27373E+03  5.61834E+03 -1.93403E+04  4.76123E+03
 -7.54234E+03 -3.39281E+03 -2.01540E+03 -1.26197E+04  1.11822E+04 -3.48798E+03  3.99966E+03  2.79764E+03
  3.98712E+03  7.79816E+03 -5.53795E+03  1.07050E+04 -1.21526E+04  7.10610E+03 -1.27477E+04 -3.17747E+03
 -3.06477E+03 -1.44009E+04 -1.45047E+03 -8.21760E+03  1.24333E+04 -1.08163E+04  3.30002E+03  6.13416E+03
  7.97539E+03  1.22322E+04 -3.90197E+03  1.45988E+04 -1.06975E+04  6.05254E+03 -9.75641E+03 -3.69152E+03
 -1.54475E+04 -1.08764E+04 -1.97159E+03 -1.34422E+04  6.96534E+03 -6.31177E+03  9.78544E+03 -1.73332E+03
  8.68814E+03 -2.00048E+03 -1.50855E+03  5.67119E+02  4.09906E+02 -2.03031E+03  4.00179E+03 -7.03409E+03
  5.65004E+03 -9.60462E+03  1.36383E+04 -6.60594E+01  1.25533E+04  6.92794E+03  7.07812E+03  2.02262E+04
 -8.91176E+03  1.55189E+04 -2.02927E+04  1.51801E+04 -1.91944E+04  5.11595E+03 -2.04126E+04 -1.07764E+04
 -1.24711E+04 -1.64634E+04  1.88950E+03 -8.65079E+03  5.76791E+03 -5.67807E+03  8.87564E+03 -2.55969E+03
  9.21122E+03 -5.12190E+03  3.39635E+03 -3.19839E+03  2.40767E+03 -2.55172E+03  9.44418E+03 -1.24046E+03
  3.42751E+03  1.78641E+02  8.43303E+03  4.35113E+03 -5.81432E+03  9.04688E+03 -8.42560E+03  6.04903E+03
 -1.35573E+04 -3.37046E+03 -6.55925E+03 -6.12413E+03 -1.76741E+03 -1.22453E+04  8.85515E+03 -1.37234E+04
  1.07552E+04 -5.73118E+03  1.46423E+04 -3.64238E+03  1.01925E+04  5.17909E+03  4.18621E+03  2.18794E+04
 -5.22136E+03  1.55345E+04 -5.11388E+03  1.61701E+03  1.19778E+03  1.54740E+03 -6.05074E+03 -2.13387E+03
 -5.38485E+03 -1.16311E+03 -3.17779E+03  5.31116E+03 -4.81967E+03 -6.88187E+02 -7.36524E+03 -5.21904E+03
 -3.62388E+03 -5.68632E+03 -1.86311E+03 -7.93746E+03  5.81436E+03 -1.30457E+04  1.23019E+04 -5.77265E+03
  1.32685E+04  9.70338E+02  7.25554E+03  9.84820E+03 -2.03127E+03  1.16198E+04 -9.48288E+03  4.61738E+03
 -8.76857E+03  5.01847E+02 -8.68928E+03 -9.51231E+03  1.27905E+02 -8.09167E+03  3.86069E+03 -5.20850E+03
  1.02494E+04 -5.99069E+03 -1.17306E+03  4.63846E+02  5.96028E+03  1.71702E+03 -4.96761E+03 -1.46399E+03
  7.40791E+02  1.69340E+03  3.85273E+03  5.73543E+03  8.60788E+02  5.14036E+03  4.07682E+03  5.39794E+03
 -4.58650E+03  1.15325E+04 -2.73166E+03  1.14111E+04 -3.48109E+03  6.32724E+03 -1.38113E+04 -4.61183E+03
 -4.64926E+03 -1.15368E+04  5.69620E+03 -6.81913E+03  1.09820E+04 -3.77468E+03  8.48315E+03 -1.07998E+03
  7.83012E+03  4.40472E+03 -3.60875E+03  9.14543E+03 -5.97607E+03 -8.37445E+02  9.62897E+02 -2.11405E+03
 -4.86249E+03  5.32218E+02  4.49384E+03 -4.24622E+03  7.07310E+03  2.12937E+03  7.87501E+03 -3.98488E+03
  4.50150E+03  1.55550E+03  2.68080E+03 -1.19499E+03 -1.23062E+03 -2.71627E+02  2.09386E+03  2.23086E+03
  5.01248E+03  3.07949E+03  6.16119E+03  8.14015E+02 -2.79668E+03  3.52679E+03 -1.36297E+03  5.08131E+03
 -2.46495E+03  6.42622E+03 -7.51335E+03  2.25685E+03 -1.05460E+04  5.91101E+03 -6.55857E+03 -6.34626E+03
 -2.07212E+03 -6.76852E+03  3.70562E+03  3.83932E+03  4.46356E+03  3.24641E+03 -7.73467E+03  2.73987E+03
 -6.95998E+03 -3.83407E+03 -3.08803E+02 -2.40952E+03 -5.61971E+03 -6.67882E+03  2.92422E+03 -6.77456E+03
  8.70410E+02  9.40252E+02  1.20382E+03 -1.37611E+03  5.87390E+03  5.22387E+03 -3.35330E+03  5.24306E+03
  1.49661E+03  4.73197E+03 -9.74483E+03 -1.60125E+03  2.81297E+03 -9.34909E+02  2.01388E+03 -5.05775E+03
  4.28971E+03  5.70381E+03  9.40124E+03  2.46105E+03  4.37064E+03  6.04698E+03 -2.02114E+02  9.82369E+03
 -2.60118E+03 -2.47069E+02 -2.42097E+03 -2.06487E+03 -5.35238E+03 -3.25114E+03  4.76105E+03 -8.08167E+03
  6.61925E+03 -4.03376E+03  2.12117E+03  1.92908E+03  1.44465E+03  2.82889E+02 -2.24744E+03 -2.54769E+02
 -2.98629E+03  3.40913E+03  3.62959E+03  3.95601E+03 -5.46756E+03  1.33423E+02 -2.13911E+03  3.94994E+03
 -1.89246E+02  5.83860E+03 -5.36272E+03 -2.71991E+03 -5.24224E+03 -5.69649E+03 -7.46408E+03 -4.90490E+03
 -8.82574E+03 -7.49006E+03  9.21975E+03 -9.64643E+03  2.25691E+03 -4.25805E+03  9.88861E+03 -4.28206E+03
  1.60163E+03  3.60200E+03  1.94668E+03  6.67738E+03  7.99038E+01  8.55008E+03 -4.53754E+03  7.72681E+03
 -5.46100E+03  3.40537E+03 -4.46079E+03 -1.00873E+03 -5.04372E+02 -4.28057E+03  1.46286E+03  2.64321E+03
 -2.71563E+03 -2.58799E+03 -3.02833E+02 -1.15995E+03 -1.84756E+03 -1.01115E+04  2.16387E+03 -2.47083E+03
  6.09760E+03 -6.41860E+01  1.42107E+03  2.06369E+03  8.78249E+03  2.45080E+03  2.35560E+03  4.89248E+03
 -7.67634E+02  8.98187E+02 -1.04278E+04  3.82102E+03 -6.72610E+03  3.58070E+03 -1.37317E+03 -9.45911E+03
 -5.70849E+03 -6.55938E+03  7.61134E+02 -6.34295E+03  1.23745E+03 -7.81451E+03 -1.55299E+03 -5.12752E+03
 -1.24391E+02  4.00882E+03 -1.91060E+03  3.60186E+03 -6.85854E+03  3.16862E+03 -2.59694E+03 -3.54446E+03
 -2.30114E+02 -2.30873E+03  5.23029E+03  1.71208E+03  2.93269E+03  3.56444E+03  1.76943E+03 -6.45835E+02
 -7.15611E+03  2.29420E+03  9.02936E+02  2.61678E+03 -1.99807E+03 -2.91591E+03  9.76698E+02 -2.10679E+03
  6.55564E+03 -7.53968E+03  2.46403E+03  3.08418E+03  7.40772E+03  4.09620E+02  7.68326E+03  9.61253E+03
  3.65935E+03  3.79163E+03 -4.74327E+03  2.95501E+03 -1.09760E+03  3.75176E+03 -4.06744E+03 -7.95717E+02
 -2.24473E+03  3.44727E+03 -5.76312E+03  2.79451E+03 -7.15855E+03 -1.15115E+03 -6.38078E+03  6.29465E+02
 -4.74274E+03  1.66113E+03 -1.32920E+03 -2.60434E+03 -9.55452E+02 -1.22327E+04  1.51939E+03 -9.39152E+03
 -1.47398E+03  4.10180E+03  2.54570E+03  9.92127E+02 -2.35080E+03  3.09790E+03 -6.43136E+03  3.00141E+03
