 $NMID ID='MM_0lb_SNR50_17hz_g40_50.RAW', FMTDAT='(8E13.5)'
 TRAMP=1., VOLUME=1. $END
  3.08776E+05 -3.32045E+03  3.39985E+05  2.49741E+05  8.51112E+04  3.35783E+05 -1.34258E+05  2.46891E+05
 -1.88308E+05  8.09613E+04 -1.14772E+05 -3.34987E+04  1.47935E+03 -5.02886E+04  5.00950E+04 -2.73159E+03
  3.28669E+04  4.98020E+04 -1.93442E+04  7.85362E+04 -6.19650E+04  6.15641E+04 -8.19021E+04  3.00874E+04
 -8.05457E+04 -1.10761E+04 -5.45987E+04 -4.97669E+04 -1.75352E+04 -6.61780E+04  2.60487E+04 -4.02054E+04
  3.26759E+04  5.12524E+03  1.09341E+04  4.22478E+04 -3.54174E+04  4.62167E+04 -6.52963E+04  1.00718E+02
 -5.24382E+04 -5.39479E+04 -2.93228E+03 -7.41896E+04  3.41041E+04 -5.44182E+04  4.68700E+04 -1.71178E+04
  4.27874E+04  9.98327E+03  3.08626E+04  2.39338E+04  1.33923E+04  2.45910E+04 -5.15150E+03  2.73700E+04
 -1.80684E+04  1.15226E+04 -1.96875E+04 -2.48447E+01  5.56822E+03 -1.09516E+04  1.75414E+04  1.30726E+04
  9.38323E+03  3.23627E+04 -2.91701E+04  3.55107E+04 -6.29104E+04  2.40928E+03 -5.73172E+04 -4.32644E+04
 -1.11947E+04 -5.89348E+04  3.54529E+04 -4.27349E+04  5.59463E+04 -3.75941E+03  2.99897E+04  2.71511E+04
 -9.42289E+03  3.45583E+04 -2.99115E+04  1.51911E+04 -2.77490E+04 -7.13255E+03 -1.94080E+04 -8.21300E+03
 -5.12592E+03 -1.26627E+04 -1.71163E+02 -1.88126E+04  7.14289E+03 -2.26799E+04  1.32296E+04 -1.40838E+04
  9.99044E+03  1.84153E+03 -9.57174E+03  1.28663E+04 -1.94053E+04 -3.35948E+03 -6.17434E+03 -3.31027E+04
  2.45408E+04 -3.82629E+04  4.65732E+04 -2.07983E+04  4.23088E+04  1.80345E+04  1.40513E+04  4.27117E+04
 -1.20398E+04  2.66469E+04 -2.48748E+04  2.89793E+03 -7.11236E+03 -3.02043E+04  2.16722E+04 -3.05595E+04
  3.48149E+04 -6.90822E+03  3.47585E+04  2.00513E+04  1.82545E+04  4.41789E+04 -9.51090E+03  4.59785E+04
 -2.45843E+04  2.92387E+04 -3.95404E+04  6.81064E+03 -3.60223E+04 -1.40742E+04 -2.26569E+04 -3.29815E+04
  3.11021E+03 -3.03120E+04  3.24586E+04 -1.36523E+04  3.04742E+04  9.25491E+03  4.64800E+03  1.99158E+04
 -1.22206E+04  9.03725E+03 -9.84980E+03 -3.88049E+03  5.86048E+03 -1.04300E+04  1.72917E+04  6.44005E+03
  1.34329E+04  2.32115E+04 -4.56216E+03  2.62244E+04 -2.31527E+04  8.10483E+03 -2.36792E+04 -8.89591E+03
 -1.61513E+04 -1.60522E+04 -7.86016E+03 -1.34527E+04  5.92496E+03 -1.79180E+04  1.13731E+04 -1.54273E+04
  1.98235E+04 -9.81305E+03  3.15555E+04  2.82288E+03  2.00335E+04  1.11757E+04  1.65188E+03  3.46445E+04
 -1.80944E+04  3.12206E+04 -2.54913E+04  1.48664E+04 -1.86387E+04 -1.20734E+04 -2.43720E+03 -1.53978E+04
  2.66101E+03 -3.82088E+03 -3.17355E+03  9.58330E+03 -1.87990E+04  3.61811E+03 -1.15736E+04 -4.03164E+03
 -7.51785E+03 -1.15091E+04  3.87701E+03 -1.80652E+04  1.49928E+04 -1.47963E+04  1.74049E+04 -6.16218E+03
  1.26612E+04  9.64003E+03  2.50762E+03  1.77051E+04 -1.50364E+04  1.29000E+04 -1.49612E+04 -3.33908E+03
 -1.45251E+04 -1.43375E+04 -3.44073E+03 -2.27227E+04  1.16066E+04 -1.67303E+04  1.38858E+04 -7.46782E+03
  1.50289E+04 -4.98569E+02  1.08441E+04  2.38226E+03  3.41589E+03  7.02161E+02  5.05311E+03 -3.75986E+03
  1.36262E+04 -9.33322E+02  1.34188E+04  1.40086E+04  1.21440E+04  2.65749E+04 -2.89710E+02  2.76026E+04
 -1.78777E+04  2.07872E+04 -2.51824E+04  1.18061E+04 -2.34423E+04 -1.62453E+03 -2.22873E+04 -1.99432E+04
 -1.11889E+04 -1.77400E+04  5.55928E+03 -1.85561E+04  1.92081E+04 -9.12514E+03  1.52851E+04  2.67305E+03
  4.98341E+03  1.15128E+04 -1.03648E+04  9.33802E+03 -1.51981E+04  2.08004E+03 -1.01071E+04 -8.24901E+03
 -1.02466E+03 -1.13626E+04  7.95336E+03 -1.22940E+04  1.12146E+04  2.55049E+03  1.84202E+03  6.30226E+03
 -3.97840E+03 -3.24991E+03 -4.24560E+02 -7.46582E+03  2.95544E+03 -1.19216E+04  8.36545E+03 -7.40251E+03
  1.71352E+04 -2.87992E+03  1.44857E+04 -1.14652E+03  8.96331E+03  1.15139E+04  4.13733E+03  1.16616E+04
 -4.13741E+03  1.73844E+04 -1.16253E+04  8.42160E+03 -1.45021E+04  3.25169E+03 -1.04486E+04 -7.80576E+02
 -6.17751E+03 -5.92219E+03 -2.82193E+03  2.71162E+03 -3.59894E+03  4.33143E+02 -6.34193E+03  1.69582E+03
 -5.49444E+03  9.00212E+02 -1.07438E+04 -7.60394E+03 -8.60440E+02 -1.15144E+04  4.17914E+03 -9.02751E+03
  1.16446E+04 -5.90762E+03  4.66118E+03 -1.11598E+03  2.71645E+03  4.96945E+03 -3.66515E+03 -5.36264E+03
 -5.33876E+03 -3.53134E+03  7.99398E+01 -4.41631E+03  5.34641E+03 -1.01250E+04  1.43167E+04 -1.78281E+02
  1.04556E+04  6.73258E+02  1.08813E+04  2.46016E+03 -7.58404E+02  7.68175E+03  1.10139E+03  1.33971E+04
 -5.63824E+03 -3.24418E+01 -3.32933E+03  1.20812E+02  4.14835E+03 -7.21092E+02  4.46657E+03 -9.65048E+02
  4.84737E+03  5.40154E+03  1.50699E+03  8.58221E+03 -2.05066E+03  8.23588E+03 -9.35372E+03  2.16950E+03
 -3.05516E+03 -3.21626E+03  8.82932E+01 -4.48252E+03  2.72825E+03 -4.95142E+03 -5.77563E+02 -9.21513E+02
 -5.14780E+03  2.95180E+01 -5.31855E+03 -5.15491E+02 -4.33724E+03  1.20390E+03 -4.21198E+03 -1.94772E+03
 -1.13483E+03 -1.17365E+04  2.42188E+03 -1.05851E+04  8.69393E+03 -1.23854E+03  6.55037E+03  4.15262E+02
  4.11460E+03  6.22853E+03 -2.17198E+02  6.77758E+03 -8.10314E+03  3.24831E+03 -7.19011E+03  4.08178E+03
 -5.37767E+03 -8.24098E+03  8.28150E+02 -7.29889E+03  5.43837E+03 -3.83685E+03  1.17282E+03 -3.72585E+03
  3.42836E+03  1.43309E+03  4.27109E+02 -6.21576E+02 -1.85526E+03  2.61025E+03  2.92384E+03 -2.10087E+03
  4.03370E+03 -3.20921E+03  4.87568E+03  2.26308E+03  7.09573E+03  7.40101E+03  6.75485E+03  5.48433E+03
 -1.91269E+03  5.98826E+03 -7.66870E+03  8.62702E+03 -9.22379E+03  2.14770E+03 -4.44022E+03 -4.20183E+03
 -3.64037E+03 -1.06916E+04 -5.02939E+02 -6.21868E+03 -3.45694E+02 -4.09489E+03 -8.36921E+02  3.82101E+02
  2.28291E+03 -1.78181E+03  1.52689E+03 -6.98943E+02 -3.71717E+01 -2.44254E+03  3.63692E+03  7.91270E+01
  3.57715E+03  1.34106E+03  4.22576E+03  2.38744E+03 -1.78145E+03  2.08281E+03 -5.40123E+03  4.40622E+03
 -9.41345E+03 -6.50653E+03 -1.69342E+03 -3.37242E+03 -2.33151E+03 -5.44698E+03  1.19738E+03 -8.53788E+03
  2.52171E+03 -5.32231E+03  7.03492E+03 -1.84775E+03  8.70971E+03  4.79714E+03  5.94138E+03  5.79356E+03
 -6.55905E+03  7.23280E+03 -1.69241E+03  2.30798E+03 -6.53705E+02 -3.85311E+03  2.35539E+02 -5.70241E+03
 -1.85344E+03 -8.64541E+02 -3.49161E+03 -1.38115E+03 -2.52254E+03  2.57336E+03 -6.72792E+03  1.00397E+03
 -4.97016E+03 -6.10604E+03  6.16249E+02 -9.88239E+02  3.61238E+03 -6.73860E+03  3.35513E+03  8.57146E+02
  2.44340E+03 -2.05139E+01  4.69932E+03  4.56053E+03  7.02596E+02  4.57372E+03 -4.79184E+03  2.76946E+03
 -5.50808E+03  4.31305E+02 -2.21911E+03 -4.20385E+03 -3.99550E+03 -5.60770E+03  2.09337E+03 -4.53076E+03
  4.62386E+03 -3.95770E+03  3.87865E+03  1.43685E+03 -4.98389E+02  1.31550E+03  1.43187E+02  1.46515E+03
  2.27872E+03  3.55915E+03  4.89639E+03 -1.33577E+03 -9.63988E+02  2.42206E+03 -3.12403E+02  2.73961E+03
 -1.14340E+03  4.56334E+03 -5.26345E+03  9.03941E+03 -8.01323E+02 -9.62029E+02 -5.55660E+03  5.83514E+02
 -4.45804E+03 -3.64660E+03  4.18811E+03 -5.03494E+03  3.25035E+03 -6.02910E+03  4.98507E+03 -3.70605E+03
  3.94297E+03 -2.31373E+03  9.64167E+02  3.34125E+03 -1.28886E+03 -2.12576E+03 -5.31276E+03 -2.06981E+03
 -1.72784E+03 -3.75672E+03  3.92561E+03 -3.35777E+03  2.10487E+03 -3.21663E+03  1.65408E+03 -2.96160E+03
 -6.21700E+01 -5.83775E+02  4.38865E+03 -5.98100E+02  3.46536E+02  3.82452E+03  4.86968E+03  3.90615E+03
  2.24284E+03  1.91556E+03  7.54258E+02 -2.09506E+02  1.18817E+03  1.19623E+03  2.29497E+02  4.42345E+03
 -5.78295E+03  9.14413E+02  2.13535E+03  3.00629E+03 -2.54809E+03  7.64656E+02 -1.49376E+03  1.62974E+03
  3.32565E+03 -1.86544E+03 -3.72846E+03 -2.66350E+03  3.32605E+03 -1.90941E+03  5.21470E+03  6.18056E+02
 -2.23968E+03  1.41979E+02 -1.92122E+03 -1.40788E+03 -1.33974E+03 -6.01687E+03 -4.37817E+03 -2.34765E+03
 -2.38386E+03 -1.67112E+03 -1.34717E+03 -2.18683E+03 -1.29019E+02 -9.16534E+02  1.96136E+03  2.54054E+03
  1.46806E+03 -2.36986E+03  1.86209E+02  1.57528E+03  2.53476E+03  2.55904E+03  3.60504E+03 -6.06940E+02
  8.56708E+02  5.89051E+01  3.43788E+03  2.20716E+03  1.53793E+03  2.95827E+03 -3.07467E+03  1.09774E+03
 -2.95676E+03  1.40305E+03 -1.35257E+02  3.65693E+03 -2.52218E+03 -2.26814E+03  4.92273E+02  3.31090E+03
  5.07885E+03  3.99662E+02  2.74864E+02  3.71641E+03  2.84126E+03 -1.02667E+02 -2.30203E+03  3.95654E+03
  4.25015E+02  2.15674E+03  1.66791E+03  3.90759E+02  8.40332E+02 -8.23609E+01  8.96021E+02  1.94205E+03
 -3.82392E+03  3.58028E+02 -2.89590E+03  1.98332E+03  5.02603E+02 -6.05016E+02 -5.03795E+02 -1.97115E+03
 -4.49163E+03 -2.51974E+03 -8.10208E+02 -5.95531E+03  1.41223E+03 -2.86657E+03  1.06325E+03 -4.61680E+03
  4.09148E+03 -1.63379E+03  4.47237E+03 -4.13469E+02 -1.05228E+03  2.09628E+03 -3.50813E+03  2.95929E+03
  4.44468E+02  2.90778E+03 -6.39347E+02  2.77037E+03  8.70286E+01  9.57557E+02 -1.47314E+03  4.08317E+03
 -4.13514E+02  3.62677E+02 -5.11833E+03  4.11103E+03 -1.25579E+02 -5.19557E+03  2.08575E+03 -4.53511E+03
  1.69923E+03 -2.79759E+03 -7.13773E+02 -9.28783E+02  2.02927E+03 -5.24013E+02 -2.36802E+02 -9.95647E+02
 -1.26870E+03  4.93755E+03 -2.76676E+03  1.02270E+03 -5.52079E+03  1.32038E+03  2.46938E+02 -3.14745E+03
 -8.59657E+02 -1.37686E+03  2.08556E+03 -4.71102E+03  1.50955E+03 -3.33383E+03  2.59627E+03  1.02451E+03
  5.88642E+03 -2.63469E+02 -1.57334E+03  2.29129E+03  1.07194E+02 -1.81568E+03 -5.61220E+03 -2.45772E+03
 -1.82946E+03 -1.86744E+03  1.38884E+03  1.25902E+03  2.06287E+03 -2.32483E+03  1.46751E+03  3.35014E+03
  1.80202E+03 -2.47065E+02 -2.53042E+03 -2.50074E+03 -9.14701E+02  2.16581E+03  2.65156E+03 -2.24712E+03
 -1.30323E+02 -3.63034E+03 -9.65233E+02 -1.88441E+03  2.03064E+03  1.63344E+03 -5.33202E+01  2.06803E+03
  4.21736E+03  8.01334E+01 -5.26167E+03  1.50891E+03 -8.05559E+02  2.38425E+03  8.88743E+02  3.26732E+03
  2.49477E+03  3.51029E+01  1.09692E+03  5.54544E+03 -4.92581E+03  3.53520E+03 -1.61368E+03 -2.14555E+02
  2.78624E+03  2.06640E+03 -1.71354E+03 -2.26410E+02 -2.01727E+03 -5.05913E+02 -4.75654E+03  1.92346E+03
  1.10135E+03 -3.26591E+03  7.10073E+02 -2.38506E+03 -3.38028E+03  3.54711E+03 -4.24787E+03  4.67311E+01
