 $NMID ID='MM_0lb_SNR50_12hz_g55_6.RAW', FMTDAT='(8E13.5)'
 TRAMP=1., VOLUME=1. $END
  3.08566E+05  2.57645E+03  3.37563E+05  2.55635E+05  8.37390E+04  3.36656E+05 -1.37054E+05  2.51161E+05
 -1.92926E+05  7.99600E+04 -1.12440E+05 -3.23798E+04 -1.93802E+03 -5.10680E+04  5.30485E+04  1.11916E+03
  3.51186E+04  5.65568E+04 -1.79382E+04  7.88694E+04 -5.88940E+04  6.15618E+04 -8.51014E+04  3.39995E+04
 -8.12065E+04 -1.02449E+04 -5.58095E+04 -5.24888E+04 -1.90839E+04 -6.76144E+04  1.94493E+04 -4.46938E+04
  4.04211E+04  3.48771E+03  1.73478E+04  4.86525E+04 -3.31041E+04  5.04266E+04 -6.92825E+04 -1.08793E+03
 -5.41752E+04 -5.48923E+04 -2.62577E+03 -7.52717E+04  3.42642E+04 -5.82126E+04  4.69307E+04 -1.80614E+04
  4.08573E+04  1.34615E+04  3.01895E+04  2.91731E+04  1.54485E+04  2.84010E+04 -5.24087E+03  2.91782E+04
 -1.68891E+04  1.54392E+04 -1.67700E+04 -3.45155E+03  3.35660E+03 -5.87521E+03  2.94965E+04  1.20771E+04
 -1.29250E+03  3.80959E+04 -3.11429E+04  3.89175E+04 -6.58270E+04  4.52898E+03 -5.79560E+04 -4.59870E+04
 -1.30775E+04 -6.39630E+04  4.17490E+04 -4.62791E+04  5.88663E+04 -2.69355E+03  3.56716E+04  3.15337E+04
 -4.72700E+02  3.39580E+04 -2.78294E+04  1.96666E+04 -3.44140E+04  1.26694E+03 -1.94103E+04 -6.84183E+03
 -5.88373E+03 -1.66544E+04 -6.83837E+02 -2.00106E+04  7.37126E+03 -2.50382E+04  1.44237E+04 -1.81178E+04
  1.12663E+04  1.00100E+04 -1.08281E+04  1.15786E+04 -2.01142E+04 -5.56878E+03  1.15296E+03 -3.36551E+04
  3.11472E+04 -4.75613E+04  4.88733E+04 -2.42018E+04  4.68966E+04  2.36463E+04  1.46771E+04  4.28176E+04
 -2.31597E+04  3.71847E+04 -2.85672E+04  4.34901E+03 -1.32267E+04 -2.62956E+04  1.78244E+04 -3.17686E+04
  4.20832E+04 -1.05313E+04  3.54049E+04  2.65023E+04  2.04719E+04  4.81070E+04 -6.76553E+03  5.10649E+04
 -3.62650E+04  4.02467E+04 -4.89473E+04  6.52628E+03 -4.43419E+04 -1.74942E+04 -2.80401E+04 -3.87985E+04
  7.68205E+03 -4.01135E+04  3.24341E+04 -1.82932E+04  3.17503E+04  1.03609E+04  6.21079E+02  2.22285E+04
 -1.04353E+04  1.13415E+04 -1.12311E+04 -1.08286E+04  3.59056E+03 -9.53999E+03  1.57546E+04  1.09701E+03
  1.74044E+04  1.89085E+04 -4.13786E+03  2.51561E+04 -1.71864E+04  1.13147E+04 -3.33244E+04 -7.95861E+03
 -1.30553E+04 -1.61695E+04 -1.28690E+04 -2.40995E+04  8.49535E+03 -2.78275E+04  1.93004E+04 -2.05366E+04
  2.97633E+04 -1.53362E+04  3.27810E+04  8.39892E+03  2.27108E+04  1.79506E+04  1.03895E+03  3.70483E+04
 -1.69257E+04  2.66513E+04 -2.81679E+04  8.60312E+03 -1.94857E+04 -9.79406E+03 -8.66405E+03 -1.28640E+04
  2.19217E+03  1.17669E+03 -5.63998E+03  7.98205E+03 -1.80861E+04  2.71149E+03 -1.95176E+04 -9.48423E+03
 -9.72936E+03 -2.31159E+04  3.01341E+03 -2.62106E+04  1.62068E+04 -2.03944E+04  1.70424E+04  5.84721E+02
  1.23015E+04  1.77782E+04 -3.49474E+03  2.36344E+04 -1.43986E+04  1.04834E+04 -2.03407E+04 -3.28745E+03
 -1.84685E+04 -2.21283E+04 -1.92765E+03 -2.31565E+04  1.20518E+04 -2.03560E+04  2.36041E+04 -6.86723E+03
  1.72913E+04 -1.15925E+02  1.19828E+04  4.70538E+03  5.90026E+03  6.35193E+02  1.37328E+04  5.54676E+02
  1.86438E+04  6.29898E+03  2.76458E+04  1.67514E+04  1.36216E+04  3.27788E+04 -4.36130E+03  4.23895E+04
 -2.55800E+04  3.32088E+04 -3.23413E+04  1.44276E+04 -4.06466E+04  4.20287E+03 -3.42456E+04 -1.66202E+04
 -1.35738E+04 -3.03122E+04  1.44118E+04 -2.89945E+04  2.36948E+04 -1.85837E+04  1.99055E+04  1.00082E+03
  1.28701E+04  1.97723E+04 -1.19490E+04  1.43598E+04 -1.82155E+04  1.00197E+03 -1.14643E+04 -1.30352E+04
 -7.29519E+03 -2.09305E+04  1.13847E+04 -1.18022E+04  6.58658E+03  4.12221E+02  3.19763E+03  1.26863E+04
 -1.01477E+04  2.56802E+03 -7.84624E+03 -7.98488E+03 -1.43768E+03 -1.38411E+04  1.07279E+04 -1.58979E+04
  2.27039E+04 -1.01472E+04  2.49289E+04  1.65869E+03  2.04341E+04  1.48135E+04  6.14326E+03  2.64935E+04
 -2.64265E+03  2.37446E+04 -2.08634E+04  1.76537E+04 -1.66161E+04  4.29068E+03 -1.00570E+04 -1.98106E+03
 -4.76393E+03 -1.00089E+04  1.81278E+03 -1.79334E+03  4.08786E+02  3.05373E+03 -5.99986E+03  5.23495E+03
 -1.12857E+04  1.69117E+03 -1.60689E+04 -7.44926E+03 -7.58276E+03 -1.31435E+04  4.25869E+03 -6.94890E+03
  1.44693E+04 -4.70219E+03  1.03336E+04 -1.39989E+03  2.86577E+02  3.40903E+03 -6.67811E+03 -4.72243E+03
 -4.42158E+03 -4.91815E+03  2.05772E+03 -1.22253E+04  7.33185E+03 -9.31493E+03  1.53353E+04 -2.20291E+03
  1.96310E+04  2.09223E+03  1.42312E+04  1.25117E+04  2.14951E+03  1.09154E+04 -9.81703E+03  1.36117E+04
 -1.10903E+04  5.58304E+03 -7.80144E+03 -3.81072E+03  1.45285E+03 -2.67792E+03  9.90553E+03 -1.55409E+03
  2.88889E+03  1.01213E+04 -8.29957E+02  9.41450E+03 -8.19169E+03  1.30996E+04 -1.35251E+04  4.79293E+03
 -5.31708E+03 -8.04553E+03 -4.56602E+03 -9.74210E+03  7.19018E+03 -9.63017E+03  7.16158E+03  2.23030E+03
  4.20092E+03  9.12382E+03 -4.79628E+03  1.15664E+04 -1.08709E+04  2.36239E+03 -5.91056E+03 -6.67001E+03
 -5.19768E+03 -1.17188E+04  5.51959E+03 -1.63310E+04  1.42103E+04 -7.47168E+03  1.11843E+04  3.59224E+03
  5.94284E+03  1.42512E+04 -2.05346E+03  1.32300E+04 -7.29958E+03  9.64646E+03 -1.08733E+04 -6.27654E+03
 -6.79105E+03 -6.15781E+03  6.90544E+02 -7.78925E+03  1.52423E+03 -7.96252E+03  9.97241E+03 -8.41780E+03
  9.07008E+03 -3.86239E+03 -1.13042E+03  3.47902E+03 -1.95811E+03 -1.47850E+03  5.45312E+03 -3.64399E+03
  6.36226E+03 -1.63353E+03  1.29388E+04  3.95713E+03  1.29964E+04  6.39918E+03  1.16133E+04  1.35986E+04
  1.05834E+02  1.83451E+04 -1.81414E+04  1.17487E+04 -1.69040E+04  5.50274E+03 -1.61043E+04 -8.80463E+03
 -7.53031E+03 -1.37948E+04 -1.84477E+03 -9.49441E+03  6.06733E+03 -8.61208E+03  9.16575E+02 -5.15298E+03
 -6.14036E+02 -3.57962E+03  2.92944E+03 -2.20594E+03  5.37534E+03 -2.38290E+03  2.62246E+03 -2.75645E+03
  1.13473E+04 -6.60269E+02  3.53991E+03  1.00622E+04  9.05861E+02  3.51609E+03 -4.22184E+03  6.41743E+03
 -1.35266E+04 -2.56454E+03 -6.20288E+03 -1.38991E+04 -5.57084E+03 -1.41169E+04  6.54724E+03 -1.27605E+04
  7.54428E+03 -5.57651E+03  1.52180E+04  1.64494E+03  1.30903E+04  1.35420E+04  2.14352E+03  1.63837E+04
 -2.74889E+03  9.74301E+03 -1.08056E+04 -2.69822E+02 -5.70938E+03 -3.76720E+02 -4.64901E+03 -2.91923E+03
 -3.12593E+03 -1.58674E+03  8.35569E+02  6.72924E+03 -4.19339E+03  3.95561E+02 -1.03783E+04  5.06744E+03
 -4.43706E+03 -5.39450E+03  2.91274E+03 -1.30725E+04  4.44019E+03 -6.74450E+03  1.27626E+04 -2.45892E+03
  1.01992E+04  4.27795E+03  7.56718E+03  1.05918E+04 -1.67110E+02  1.40968E+04 -9.26521E+03  6.05828E+03
 -1.41506E+04  1.96149E+03 -7.29538E+03 -6.56321E+03 -2.84650E+03 -8.33985E+03  5.49521E+03 -5.98361E+03
  4.42102E+03 -4.79425E+02  1.26695E+03  4.45001E+03  1.95542E+03  1.94424E+03 -8.23410E+02 -2.75945E+02
  7.58376E+03  3.79353E+03  4.20564E+03  5.04426E+03  1.57425E+03  2.76141E+03  2.81528E+03  1.17485E+03
  2.58211E+03  1.30356E+04 -3.78894E+03  8.67254E+03 -9.09520E+03  3.47001E+02 -1.25631E+04 -4.66445E+03
 -5.40986E+03 -1.14322E+04  1.04270E+03 -1.23439E+04  2.06209E+03 -7.54175E+03  9.11789E+03 -5.01578E+02
  6.39336E+03  4.82428E+03  3.48796E+03  6.95159E+03  1.61224E+02  1.04389E+04 -5.28259E+03  1.43069E+03
 -7.13588E+02 -4.44292E+03  6.62684E+03 -1.18650E+03  6.60388E+03  3.57105E+03  2.91418E+03  2.45728E+03
  2.10191E+03 -4.62199E+02  2.76802E+02  1.75451E+03 -2.28207E+03 -8.72526E+02 -3.60538E+02 -9.44405E+02
  7.13339E+03 -9.53988E+02  2.28419E+02  8.13310E+01  7.58312E+03  6.18448E+03 -1.80347E+03  4.70724E+03
 -3.49441E+02  8.28382E+03 -5.56102E+03  1.39665E+03 -1.02926E+04 -5.06454E+03 -6.38545E+03 -5.94306E+02
 -1.75275E+03  2.54647E+03 -1.71613E+03 -8.58584E+03  1.53766E+03  4.51509E+02 -2.32179E+03  4.61580E+03
 -6.00896E+03  6.12309E+02 -3.34583E+03 -4.86579E+03 -4.72676E+03 -5.98681E+03 -6.60009E+02 -8.95860E+03
 -1.75167E+03 -3.63827E+03  6.68726E+03  3.29658E+02  7.04473E+03  1.94414E+03  1.39498E+03  5.00021E+03
  2.93864E+03  3.26360E+02 -3.67727E+03 -4.25195E+03  4.48686E+03 -4.21690E+03  4.96127E+03 -6.50234E+03
  5.87408E+03  2.28016E+02  2.77852E+03  8.04667E+03  2.38666E+03  8.38617E+03  2.99715E+03  8.27090E+03
 -5.12750E+03 -5.74989E+03  8.77163E+02  1.09076E+03 -3.82211E+03 -1.59592E+03  1.75131E+03 -3.26057E+03
  7.74291E+03  6.31389E+03 -2.62191E+02  4.15591E+03  4.29647E+03 -3.50219E+03  1.24495E+03  6.35201E+03
 -4.52091E+02  2.19518E+03 -5.68076E+00  6.38198E+03 -4.57702E+03  3.60074E+03 -6.29583E+03  4.49143E+03
 -2.22327E+03  2.92903E+03 -7.21486E+03  3.62253E+03 -1.21149E+04 -1.76421E+03 -1.28471E+04 -3.44849E+03
 -2.74582E+03 -7.62710E+03  1.11393E+04 -1.16667E+04  9.00413E+03 -1.26932E+04  7.42023E+03 -8.87377E+01
  1.01178E+04 -2.25130E+03  3.08006E+03  3.47014E+03 -2.54760E+03  1.75351E+03 -5.76835E+03  6.78326E+03
 -4.94235E+03  7.08397E+03 -3.78178E+03 -4.23656E+03 -2.52545E+03 -7.28262E+03  3.64338E+03 -4.80198E+03
 -4.28273E+02  5.40859E+03  3.80557E+02 -5.49766E+03 -1.64766E+02  8.69556E+01 -5.25536E+03 -4.50805E+03
  2.45350E+03 -7.40816E+03  2.97868E+03  1.23370E+03  9.66778E+03  1.75197E+03  2.26427E+03  4.46228E+03
 -6.87171E+03  8.25054E+03 -9.21960E+03  2.58078E+03 -6.43856E+03 -5.56375E+03 -7.10727E+03 -5.25347E+03
 -5.53816E+03 -3.70498E+03  3.41308E+03 -1.15655E+04  2.20366E+03 -3.02711E+03  8.65871E+03 -9.40572E+02
  2.93752E+02 -3.96116E+03 -4.69461E+03 -4.66588E+02 -4.16747E+03  8.08708E+03  4.68588E+03 -4.95547E+03
  3.52969E+03  4.27915E+03 -3.88682E+02 -2.30269E+03  3.60431E+03  2.80101E+03  2.30675E+03 -4.71109E+02
  1.66326E+03  5.89933E+03 -2.69044E+03 -1.35552E+03 -6.94804E+02 -5.90977E+03  4.68030E+03 -6.27271E+03
 -1.54019E+02 -4.98772E+02  7.14531E+03  9.07421E+00  1.07999E+03  4.95727E+03 -1.46644E+03  3.73220E+03
 -2.16057E+03 -1.51692E+03 -6.29978E+03  4.66622E+03 -3.97102E+03  2.76940E+03 -1.92716E+03 -2.14967E+03
 -2.43908E+03  2.21181E+03  2.37131E+03 -2.26613E+03 -5.66244E+03 -4.72765E+02  8.27318E+02 -2.66340E+03
 -4.04011E+03 -1.07461E+02 -2.42731E+03 -7.11567E+03  2.22838E+03 -4.97351E+03  8.44650E+03 -6.12271E+03
  2.98621E+02 -1.86266E+03  4.31358E+03  1.97480E+03 -1.10614E+02  5.90266E+03 -4.55586E+03  6.46730E+03
