 $NMID ID='MM_0lb_SNR50_18hz_g50_18.RAW', FMTDAT='(8E13.5)'
 TRAMP=1., VOLUME=1. $END
  3.08152E+05 -6.22880E+02  3.34229E+05  2.47860E+05  8.33837E+04  3.40620E+05 -1.32191E+05  2.49863E+05
 -1.90631E+05  7.91107E+04 -1.10587E+05 -3.34674E+04  4.72463E+02 -4.89477E+04  5.06717E+04  1.49155E+03
  3.42754E+04  4.69874E+04 -1.66841E+04  7.34616E+04 -5.83802E+04  6.39927E+04 -8.04106E+04  3.21835E+04
 -7.74455E+04 -1.25239E+04 -5.41987E+04 -5.41387E+04 -1.72001E+04 -6.29404E+04  2.30511E+04 -4.76256E+04
  3.93699E+04  3.59494E+03  1.23795E+04  4.17208E+04 -3.77870E+04  4.31613E+04 -6.35172E+04 -3.82775E+03
 -5.31253E+04 -5.83749E+04 -5.49266E+03 -7.41479E+04  3.12121E+04 -5.83255E+04  4.28681E+04 -1.90653E+04
  4.19351E+04  1.07247E+04  3.03763E+04  2.27394E+04  1.58893E+04  2.98789E+04 -4.47146E+03  2.68536E+04
 -2.09513E+04  1.24002E+04 -1.90301E+04 -3.93657E+03  2.92185E+03 -7.56324E+03  2.12850E+04  1.19574E+04
  6.09955E+03  3.14157E+04 -3.25700E+04  3.26109E+04 -6.45934E+04 -1.03013E+03 -5.28080E+04 -4.05307E+04
 -1.57410E+04 -5.88737E+04  3.85692E+04 -4.46101E+04  5.31328E+04  2.21056E+03  3.52210E+04  2.88891E+04
 -5.03080E+03  3.28781E+04 -3.13582E+04  1.28663E+04 -2.76289E+04 -6.39789E+03 -1.67457E+04 -7.01312E+03
 -2.09399E+03 -1.48936E+04 -1.75609E+03 -1.76774E+04  9.83611E+03 -2.58392E+04  1.83264E+04 -1.29982E+04
  1.26955E+04  5.15365E+03 -1.08184E+04  7.31178E+03 -2.22705E+04 -9.16568E+02 -7.72208E+03 -3.09655E+04
  2.46617E+04 -3.96460E+04  4.32583E+04 -2.15199E+04  4.06568E+04  2.01505E+04  1.29926E+04  4.24995E+04
 -1.60704E+04  2.93026E+04 -2.68558E+04 -7.41251E+02 -6.57141E+03 -2.77704E+04  2.16624E+04 -3.10194E+04
  4.08007E+04 -5.75334E+03  3.39546E+04  2.00690E+04  1.68261E+04  4.21088E+04 -9.09195E+03  4.69746E+04
 -2.82329E+04  3.24028E+04 -3.99628E+04  6.63521E+03 -3.83562E+04 -1.92962E+04 -2.34109E+04 -3.60142E+04
  4.91819E+03 -3.24638E+04  2.76238E+04 -1.44913E+04  2.82945E+04  8.60385E+03 -1.41915E+02  2.21731E+04
 -1.67038E+04  7.12061E+03 -1.07392E+04 -4.28679E+03  9.25438E+03 -6.87167E+03  2.09109E+04 -1.57152E+01
  1.41232E+04  2.02268E+04 -2.97106E+02  1.86002E+04 -2.16031E+04  8.92594E+03 -2.70906E+04 -8.66601E+03
 -2.07385E+04 -2.02415E+04 -2.73187E+03 -2.25540E+04  1.89724E+03 -1.67187E+04  1.03472E+04 -1.58331E+04
  1.96823E+04 -9.50740E+03  2.50249E+04  1.10327E+03  1.92869E+04  1.56233E+04  1.04534E+03  3.41273E+04
 -1.41966E+04  2.87863E+04 -2.62800E+04  7.33223E+03 -2.41449E+04 -8.49737E+03 -2.98981E+03 -1.49584E+04
  2.64693E+03  1.29624E+03 -4.66333E+03  5.96983E+03 -1.39466E+04  5.10924E+03 -1.38886E+04 -5.61425E+03
 -8.51098E+03 -1.79662E+04  6.19725E+03 -2.05796E+04  9.84953E+03 -1.49437E+04  1.63939E+04 -6.54043E+03
  7.53640E+03  8.41090E+03 -1.97984E+01  2.02000E+04 -1.01591E+04  9.42303E+03 -1.72952E+04 -1.26360E+03
 -1.11010E+04 -1.70546E+04 -3.10170E+03 -2.52879E+04  1.05453E+04 -1.48669E+04  1.41774E+04 -9.71615E+03
  1.20074E+04  4.24850E+03  8.08642E+03  6.13914E+03  1.02951E+04  4.05833E+02  6.88246E+03 -1.34131E+03
  1.44392E+04  4.51373E+03  1.99032E+04  1.25956E+04  1.14637E+04  2.32669E+04 -6.86904E+03  2.81899E+04
 -1.98507E+04  2.02150E+04 -2.42780E+04  1.07635E+04 -2.63208E+04 -3.80335E+03 -2.44524E+04 -1.67800E+04
 -1.25497E+04 -2.58230E+04  9.56598E+03 -2.22894E+04  1.51767E+04 -1.32553E+04  1.70782E+04  4.13408E+03
  1.14962E+04  1.49837E+04 -9.66273E+03  1.33978E+04 -1.24320E+04  2.14083E+02 -7.39020E+03 -9.33772E+03
 -2.96916E+03 -1.00423E+04  5.88213E+03 -8.59295E+03  8.81439E+03 -5.80784E+03  3.20556E+03  8.36651E+03
 -2.81042E+03  5.53669E+03 -3.92785E+03 -8.59185E+03  3.17406E+03 -1.28204E+04  4.38441E+03 -1.23520E+04
  1.04747E+04 -7.61777E+03  1.32162E+04  2.69268E+03  1.17986E+04  8.39126E+03  6.35243E+03  1.22701E+04
  2.15208E+03  1.72430E+04 -8.61059E+03  1.04122E+04 -1.48698E+04  4.79260E+03 -9.85717E+03 -4.20817E+03
 -6.20888E+03 -4.12136E+03  3.93950E+02  1.82842E+03 -9.09723E+03  2.27273E+03 -4.01280E+03  8.35953E+03
 -2.09044E+03 -4.49161E+03 -3.52318E+03 -7.72548E+03 -5.39616E+03 -1.19659E+04  1.93097E+03 -9.21858E+03
  5.97565E+03  5.50844E+00 -9.23193E+02  3.31992E+03 -4.01869E+02  7.50835E+03 -3.44127E+02  3.77774E+03
 -2.91869E+03 -4.53629E+03 -3.88237E+03 -7.47750E+03  6.91570E+03 -3.64135E+03  6.77567E+03 -4.82225E+03
  1.09175E+04  3.03989E+03  1.11475E+04  9.69395E+03  3.37740E+02  9.60074E+03 -8.10147E+03  7.38211E+03
 -8.43569E+03  7.44852E+02 -3.12615E+03 -4.31223E+02 -1.83932E+02 -3.46079E+03  7.09226E+03  2.10856E+02
  4.00364E+03  4.81285E+03  2.01281E+03  9.18272E+03  9.72488E+01  9.02061E+03 -6.03761E+03  1.61114E+03
 -6.87779E+03 -1.19255E+02  1.37717E+03 -8.71906E+03  1.32394E+03 -1.40428E+03  4.62301E+03  2.83908E+02
 -4.00078E+03  3.77508E+02 -2.51586E+03  9.59564E+03 -3.67099E+03 -2.36449E+03 -4.54580E+03 -1.07943E+02
 -2.75075E+03 -5.60014E+03  4.77929E+03 -5.86187E+03  9.55506E+03  7.56447E+02  4.67732E+03 -4.87224E+02
  1.17327E+04  6.79258E+03  2.02101E+03  4.47049E+03 -8.39712E+03  1.00288E+03 -8.26853E+03 -8.34075E+02
 -4.50479E+03 -4.72271E+03 -2.42870E+03 -3.30603E+03  3.66276E+03 -4.95962E+03  3.39449E+03 -4.63511E+03
  3.52822E+03  1.81305E+03  8.02014E+02 -1.63532E+03  1.16937E+03  2.22118E+03 -1.80007E+03 -6.82827E+03
  4.19872E+03 -2.72381E+03  8.56811E+03 -2.43830E+03  1.02643E+04  1.58629E+03  4.76473E+03  1.06557E+04
 -2.11232E+03  5.92376E+03 -8.12659E+03  7.37643E+03 -1.27771E+04  1.82386E+03 -9.25823E+03 -1.49606E+03
 -7.37221E+03 -1.24095E+04 -5.67058E+03 -7.50137E+03  3.81882E+03 -3.16208E+03  2.10606E+03 -1.46952E+03
  4.74278E+03 -9.82583E+02  2.46237E+03 -2.29625E+03 -1.45149E+02 -4.94855E+03  2.32983E+03  1.31888E+03
  4.06127E+03  1.37827E+03 -9.13603E+02  9.85653E+02 -3.98763E+03  2.46763E+02 -5.01501E+03  2.89201E+03
 -2.84379E+03  1.74286E+03  2.02814E+03 -4.11394E+03 -2.03312E+03 -4.05258E+03  3.34793E+03 -9.70713E+03
  3.40709E+03 -2.93853E+03  6.34802E+03 -9.10536E+02  3.62518E+03  1.01348E+02  5.38868E+01  7.37031E+03
 -4.03469E+03  6.09526E+03 -8.56012E+03  2.35981E+03 -3.53881E+03 -6.17226E+03 -8.74201E+02  1.68488E+03
  5.43320E+02 -2.27759E+02 -1.46831E+03  2.38512E+03 -3.49156E+03 -1.45954E+03 -4.98893E+03 -1.73971E+03
  1.28567E+02 -3.98650E+03  8.27182E+02 -4.42351E+03  2.82743E+03 -7.25237E+03  6.63788E+03  8.15607E+02
  4.00992E+02  4.89700E+03  3.42290E+03  1.38310E+03 -8.41258E+02  5.31157E+02 -3.86365E+03  6.86260E+02
 -5.19161E+03 -2.90364E+03  2.20378E+03 -2.14396E+03  5.57785E+02 -2.90879E+03  1.01224E+03 -3.94791E+03
 -2.42093E+03 -4.43729E+03  5.55690E+03 -3.44709E+03  3.92974E+03  7.28000E+02  2.52724E+03  5.55083E+03
 -1.09423E+03 -1.33662E+03  1.38814E+03  2.58366E+03  3.63403E+03 -4.01884E+03 -1.53057E+03 -7.70346E+02
 -3.54326E+03  4.62766E+03 -5.58628E+03  2.80064E+03 -4.66965E+03  4.97708E+03 -7.55940E+03  2.38239E+02
 -2.39387E+03  9.27016E+01 -1.04880E+03 -4.84978E+03  4.17919E+03 -5.54151E+03  5.04100E+03 -1.32861E+03
  1.10607E+03 -8.06125E+02 -1.92290E+03  8.79946E+03 -8.28456E+02  1.93699E+03  3.39111E+02 -1.33721E+01
  1.02030E+03 -3.39708E+03  3.29087E+03 -4.54472E+03  5.08018E+02 -1.00065E+03  4.05442E+03  8.96487E+02
  2.89049E+03 -6.57043E+02  8.76497E+02 -1.45340E+03  2.11545E+03 -2.76166E+02 -1.38363E+03  6.42973E+02
  1.99926E+03  3.53761E+02  8.95512E+02  6.61351E+02  1.94836E+02  4.21698E+03 -3.37869E+03 -2.44982E+03
 -8.74873E+02  4.27188E+02  1.10285E+03  3.21350E+03 -3.24172E+03  2.03221E+02  3.76032E+03 -2.46840E+03
 -2.07954E+03 -2.73798E+03  3.66841E+03 -1.49861E+02  4.50028E+02  4.70938E+03 -3.77856E+03 -2.58858E+03
 -7.33934E+03  1.44320E+03 -7.52774E+02 -3.98870E+03  7.20365E+02 -1.45337E+03 -1.66043E+03 -2.68231E+03
  4.22276E+03 -6.14606E+02  1.75605E+03  3.87122E+03 -4.24542E+03  6.25932E+01 -1.88786E+02 -4.06248E+02
 -1.54077E+03  1.81678E+02 -2.25025E+03 -1.89445E+03  4.07354E+03  2.32864E+03  4.61812E+01 -1.13732E+03
  5.85356E+03  3.38472E+03  5.10524E+03  1.13321E+03  1.20793E+03 -4.36125E+03  1.53082E+03  3.05587E+03
 -5.83635E+02 -6.79844E+02  4.76986E+02  1.59251E+03 -5.73968E+02 -1.49869E+02 -8.17227E+02 -7.97641E+02
 -2.59027E+02 -1.16978E+03  6.44118E+03 -1.64605E+03  1.67494E+02  6.64893E+02 -1.07997E+03  8.20480E+02
 -8.31533E+02  2.92760E+03 -2.18918E+02  1.10064E+03 -1.20353E+03  2.17812E+03 -5.25314E+03  5.05018E+02
 -1.31806E+03  9.11849E+02  2.83807E+03  7.33104E+02  3.79955E+02  2.63184E+03 -6.69840E+01  1.36936E+03
  1.46449E+03 -4.03433E+03  4.07063E+03 -1.48292E+03  2.57992E+03  2.12032E+03  5.61257E+03 -7.52328E+02
  1.05169E+03  6.50802E+02  9.18155E+02  1.30149E+03  3.72051E+02 -3.02656E+03  6.77630E+02  1.11047E+03
 -1.43738E+03 -4.94369E+01 -4.99906E+02 -3.01406E+02  6.12673E+03  2.38324E+03 -1.44458E+03  7.62408E+02
 -1.56257E+03  3.12772E+03 -3.24134E+03  6.42647E+02 -2.03728E+03  2.76066E+02 -3.82259E+03  6.85995E+02
  4.45846E+03 -2.42822E+03  2.46693E+03  2.48556E+03  8.69520E+02  5.22452E+02  3.23292E+03  8.83924E+02
  1.77958E+03  2.13682E+03 -5.83718E+03  2.78544E+03 -2.42760E+03  6.98470E+02 -3.54835E+03  8.33309E+02
  1.00891E+03  1.60312E+03 -1.65078E+03 -1.29008E+03 -2.94985E+02 -2.31068E+03  4.62062E+02 -4.05266E+03
  1.48033E+02 -4.74601E+03 -3.14834E+03  1.43756E+03  3.26916E+03  8.67735E+02 -2.32570E+03 -5.59451E+02
  1.34090E+03  3.67510E+02  2.76224E+03  4.56033E+03 -2.90079E+03  3.51855E+03  9.11137E+02  3.16964E+02
  3.99680E+03 -9.70611E+02 -2.13746E+03  1.03241E+03  1.60624E+03 -3.80502E+03  7.96023E+02  6.44538E+02
 -1.69343E+03  3.27325E+03 -3.34128E+03  5.00151E+02  3.51629E+03  1.97531E+03 -1.36192E+03 -2.29184E+03
 -4.04218E+03  1.83426E+03  2.98544E+03  6.91980E+03  5.87046E+02  1.73909E+02 -5.44659E+02 -8.36853E+02
 -1.32643E+03 -5.36677E+03  2.01433E+03 -6.51121E+03 -8.34094E+02 -2.18727E+03  1.25810E+02 -4.85617E+03
 -1.92664E+03  1.19223E+02  2.37745E+03 -3.07166E+03  6.95094E+03 -2.04207E+02  6.71536E+02  1.79959E+02
 -2.61168E+03 -4.69392E+02 -2.72275E+03  2.28739E+03  6.51504E+02  1.29846E+03 -4.86955E+03 -8.50841E+02
