 $NMID ID='MM_0lb_SNR50_13hz_g55_61.RAW', FMTDAT='(8E13.5)'
 TRAMP=1., VOLUME=1. $END
  3.13708E+05 -7.67343E+02  3.34108E+05  2.49700E+05  8.82655E+04  3.41024E+05 -1.33172E+05  2.52634E+05
 -1.91332E+05  8.45546E+04 -1.10151E+05 -3.61455E+04 -4.91159E+01 -5.50496E+04  5.52100E+04 -5.63907E+03
  3.58541E+04  4.92724E+04 -1.64615E+04  7.43834E+04 -6.03512E+04  6.86613E+04 -8.52349E+04  3.27525E+04
 -7.98037E+04 -1.07782E+04 -5.98656E+04 -5.55767E+04 -1.40130E+04 -6.77608E+04  2.97291E+04 -3.92120E+04
  3.67188E+04  6.84382E+03  1.32541E+04  4.91717E+04 -3.31831E+04  4.87726E+04 -6.47423E+04 -3.38454E+03
 -5.28365E+04 -6.08937E+04 -7.21940E+03 -7.05376E+04  3.29577E+04 -5.56772E+04  4.65250E+04 -1.86962E+04
  4.13560E+04  8.32931E+03  2.94885E+04  2.51404E+04  1.21963E+04  3.57715E+04 -7.09385E+02  2.53371E+04
 -2.64421E+04  5.48307E+03 -1.80057E+04 -5.49216E+03  3.82729E+03 -9.88755E+03  2.38717E+04  1.32614E+04
  1.09344E+04  3.38179E+04 -3.52825E+04  3.79383E+04 -6.47875E+04 -1.47040E+03 -5.86449E+04 -4.58903E+04
 -1.29610E+04 -6.37481E+04  4.21301E+04 -4.76691E+04  5.92020E+04 -3.47425E+03  3.81881E+04  3.01859E+04
 -6.22403E+03  4.39555E+04 -2.91600E+04  1.91832E+04 -3.26769E+04 -1.08055E+04 -1.65521E+04 -8.42743E+03
 -1.12220E+04 -1.43549E+04  6.74076E+02 -1.51034E+04  4.95149E+03 -2.69379E+04  1.75918E+04 -9.36853E+03
  1.62787E+04  5.60604E+03 -1.73402E+04  9.20049E+03 -2.19093E+04 -7.54130E+03 -7.10532E+03 -3.76263E+04
  2.47899E+04 -4.60117E+04  4.84942E+04 -2.55089E+04  4.35465E+04  1.27708E+04  2.10424E+04  4.32934E+04
 -1.36433E+04  3.85745E+04 -2.62926E+04  4.12755E+02 -9.52837E+03 -2.68696E+04  2.20287E+04 -2.99830E+04
  3.97673E+04 -1.27937E+04  3.63404E+04  2.66024E+04  1.65858E+04  5.09117E+04 -8.25823E+03  5.07846E+04
 -2.95286E+04  3.22689E+04 -4.49948E+04  8.65488E+03 -4.49242E+04 -1.64888E+04 -2.90146E+04 -4.36265E+04
  4.40928E+03 -3.66244E+04  2.66414E+04 -1.69942E+04  3.12345E+04  1.20592E+04  5.45342E+03  1.75427E+04
 -1.25782E+04  6.68801E+03 -7.84838E+03 -1.35409E+04  7.33403E+03 -1.34700E+04  1.58709E+04  8.75208E+03
  1.29677E+04  2.29747E+04 -1.49456E+03  2.34475E+04 -2.54624E+04  1.69591E+04 -2.91362E+04 -5.81828E+03
 -2.52594E+04 -2.29498E+04 -1.27075E+04 -1.96791E+04 -1.70492E+03 -1.96914E+04  1.90814E+04 -2.23342E+04
  2.91384E+04 -1.47823E+04  3.18694E+04  3.08259E+03  2.87556E+04  2.17964E+04  2.64718E+03  3.79904E+04
 -1.74043E+04  3.85674E+04 -2.94536E+04  1.13169E+04 -2.37897E+04 -1.33976E+04 -3.24666E+03 -1.33170E+04
 -9.54446E+02 -4.52164E+03 -4.62258E+03  4.64196E+03 -2.50395E+04  1.90831E+03 -2.43884E+04 -6.73095E+03
 -1.26533E+04 -2.33318E+04  5.90087E+03 -2.77590E+04  1.45035E+04 -2.14828E+04  2.13247E+04 -7.92432E+01
  1.37037E+04  1.31226E+04 -6.99802E+03  1.63103E+04 -1.13574E+04  1.06284E+04 -2.17467E+04 -1.42841E+03
 -2.02385E+04 -1.96561E+04 -4.68795E+02 -2.28867E+04  8.55098E+03 -2.12819E+04  2.02871E+04 -1.15608E+04
  1.95285E+04  3.44292E+03  1.66805E+04  6.22719E+03  7.88254E+03  3.96656E+03  1.02462E+04 -4.20159E+03
  1.55078E+04  5.02354E+03  1.69335E+04  1.76919E+04  1.54350E+04  2.95120E+04  4.28289E+02  3.65212E+04
 -2.03532E+04  3.28862E+04 -3.31145E+04  1.35609E+04 -3.67955E+04 -3.85701E+03 -2.54025E+04 -1.82182E+04
 -8.33306E+03 -2.76358E+04  9.59633E+03 -2.57352E+04  2.21686E+04 -1.41489E+04  1.77704E+04  8.47116E+03
  8.64762E+03  1.06783E+04 -9.00783E+03  8.93662E+03 -2.45607E+04  2.44072E+03 -1.40583E+04 -6.51465E+03
 -3.49012E+03 -2.00096E+04  5.11096E+03 -1.00930E+04  1.00705E+04 -3.13565E+03  2.21556E+03  6.53531E+03
 -7.10153E+03  3.61417E+03 -2.28584E+03 -6.72822E+03  2.92641E+03 -1.56216E+04  1.09637E+04 -9.19726E+03
  1.54219E+04 -5.17283E+03  2.39491E+04  1.05558E+03  1.47271E+04  1.78689E+04  1.38188E+04  2.35700E+04
 -5.23760E+03  2.33524E+04 -1.44004E+04  1.47643E+04 -1.77116E+04  3.50706E+03 -1.20278E+04  5.02423E+02
 -6.09517E+02 -2.77842E+03 -4.23779E+03  2.22247E+03 -3.29311E+03  4.84832E+03 -7.59823E+03  9.58485E+03
 -1.29456E+04  9.75451E+02 -1.09011E+04 -1.36666E+04 -9.33516E+03 -1.76107E+04  4.16256E+03 -1.55223E+04
  9.01279E+03 -4.14799E+03  3.97566E+03  3.03949E+03 -6.60798E+02 -1.75176E+02 -6.81076E+03  1.57104E+03
 -7.53554E+03 -7.65043E+03 -2.80188E+03 -6.02264E+03  7.91545E+03 -1.39645E+04  1.42857E+04 -8.41059E+03
  1.97397E+04 -8.62522E+02  1.69976E+04  1.49459E+04  8.91309E+02  1.21852E+04 -3.50387E+03  1.20796E+04
 -9.28295E+03  2.37437E+03 -8.17410E+03  2.31804E+03  3.30035E+03 -9.72178E+02  1.18049E+04  1.43156E+03
  5.13385E+03  4.25287E+03 -1.24741E+03  1.17066E+04 -7.01645E+03  4.75312E+03 -1.01899E+04  8.20585E+03
 -5.77875E+03 -1.18706E+04  2.22066E+02 -9.24781E+03  9.03779E+03 -4.38938E+03  3.52257E+03  1.88255E+03
  1.65262E+02  3.24053E+03 -1.36678E+04  1.08028E+04 -8.48698E+03  3.69306E+03 -1.04424E+04 -4.52383E+03
 -8.52923E+03 -9.59560E+03 -3.92707E+02 -1.45856E+04  1.01434E+04 -5.47828E+03  1.30507E+04  3.41646E+03
  9.01523E+03  1.09659E+04 -3.89409E+02  9.96921E+03 -6.06506E+03  8.34657E+03 -8.47972E+03 -9.76564E+02
 -9.64784E+03 -6.82156E+03 -1.82894E+02 -1.31909E+04  3.51142E+03 -5.49827E+03  2.84815E+03 -1.60778E+03
  7.19232E+03  2.98835E+03 -4.34227E+03  1.66500E+03 -1.92813E+03 -5.17545E+02  1.12158E+03 -7.90577E+03
  8.27876E+03 -5.10656E+03  7.68874E+03  2.62504E+03  1.35251E+04  4.68896E+03  1.26696E+03  1.23921E+04
 -4.72744E+03  1.60797E+04 -1.83113E+04  1.38207E+04 -1.54093E+04 -2.01469E+03 -1.85508E+04 -6.64421E+03
 -8.79877E+03 -1.60853E+04  2.71494E+03 -9.06422E+03  3.54658E+03 -6.10337E+03  1.65160E+03 -5.83922E+03
 -4.80539E+02  1.89052E+03  2.54463E+03 -6.24788E+03  7.98039E+02 -8.48334E+02  4.35954E+03  4.29856E+03
  8.66111E+03  9.09186E+02  1.03819E+03  5.96172E+03  2.89023E+03  6.04582E+03 -8.42214E+03  6.18089E+03
 -1.08329E+04 -1.83219E+03 -5.53826E+03 -7.74820E+03  1.15914E+03 -1.02614E+04  2.68438E+03 -1.28193E+04
  9.42800E+03 -8.53573E+03  1.68337E+04 -1.03610E+03  6.79270E+03  1.47589E+04 -3.22692E+02  1.30373E+04
 -6.72655E+03  1.31777E+04 -7.13470E+03  2.55729E+03 -5.33071E+03 -2.48510E+03 -2.08733E+03 -2.63000E+03
 -2.35055E+03 -5.86767E+03 -6.04246E+03  3.19841E+03 -5.42279E+03  3.61719E+03 -7.94227E+03 -1.60846E+03
 -4.14664E+03 -1.04536E+04  2.40858E+03 -1.25310E+04  2.13322E+03 -6.60385E+03  1.36468E+04 -4.10999E+03
  1.06968E+04  1.90407E+03  3.66852E+03  6.33942E+03 -4.67659E+03  2.67978E+03 -8.48934E+03  4.50021E+03
 -1.19911E+04  8.25850E+02 -9.47819E+03 -7.63487E+03 -4.12655E+03 -9.03717E+03  5.42761E+03 -7.50042E+03
  5.37368E+03 -2.67905E+03  3.26099E+03  3.89069E+03 -3.77479E+02  2.32193E+02 -9.18101E+02  3.77370E+03
  2.16115E+02  2.85605E+03  5.17997E+03 -6.31984E+02  8.56577E+03 -3.51855E+02  3.01880E+03  3.85681E+03
 -4.63738E+03  9.56323E+03 -8.03598E+03  7.45518E+03 -7.80930E+03  5.68302E+03 -6.23828E+03  5.76025E+02
 -2.38518E+03 -1.02134E+04  9.36285E+02 -1.02368E+04  1.15706E+03 -6.94025E+03  6.48991E+03  1.00781E+02
  4.19319E+03  6.52394E+03 -1.82956E+02  1.06867E+04 -2.04365E+03  1.19161E+03 -3.56602E+03 -1.42205E+03
  2.84575E+01 -1.47762E+03  2.10164E+02 -7.52332E+03  2.93057E+03 -4.80642E+03  4.70036E+03  2.26994E+03
 -7.22661E+02  2.35403E+03  3.45766E+03 -1.99199E+03 -1.90962E+03 -3.24520E+03  5.54687E+03 -3.98817E+01
  1.60173E+02 -1.57003E+03  9.94906E+03 -4.45579E+03  3.63784E+03  7.55894E+03 -1.09987E+03  5.84036E+03
 -6.23667E+03  2.17100E+03 -6.88123E+03  4.43065E+03 -7.57596E+03 -4.65107E+02 -4.91916E+03 -3.51608E+03
 -2.78918E+02 -7.49282E+03  4.60422E+01 -1.67364E+03  4.44371E+03  1.90960E+03  8.09225E+02  7.40699E+02
 -3.44530E+03  6.69985E+02 -2.73914E+03 -2.09341E+03 -2.36160E+03 -3.97073E+03 -1.17111E+03 -8.85214E+03
  2.49679E+03 -4.91104E+03  8.28150E+03  8.81828E+02  1.93219E+03 -9.10597E+02  3.25616E+03  4.17213E+03
  1.59811E+03 -2.36475E+03 -5.09723E+03 -1.09761E+03 -3.26959E+03 -7.69546E+03  8.97027E+02  3.31882E+02
  9.52017E+02  9.84884E+02  8.71389E+03  3.39061E+03  1.22098E+03  1.45477E+02 -1.82544E+03  3.46163E+03
 -3.46229E+03  2.04584E+03 -2.19135E+03 -4.35777E+03 -1.50396E+03 -3.67258E+03 -4.86376E+03 -2.10787E+03
  7.46324E+03  6.97610E+02  4.83786E+03 -1.97155E+03  3.33595E+03  6.65602E+03  2.77259E+01  2.20277E+03
 -4.83927E+03  1.79137E+03  2.50451E+03 -2.11158E+03  8.32322E+01  3.19150E+03  7.35010E+01  5.65742E+03
 -5.48257E+03  5.48101E+03 -2.58140E+03  7.01062E+03 -3.63316E+03 -7.21171E+02 -3.51488E+03 -3.53165E+02
 -5.79616E+03 -8.51822E+03 -2.33125E+03 -6.94315E+03  7.01414E+03 -2.25224E+03  1.00755E+04  3.38571E+03
  5.55440E+03  2.00282E+03  5.11780E+03  6.60115E+03  7.10053E+02  5.19948E+03 -4.48888E+03  8.49398E+03
 -1.42346E+03  1.42141E+03 -1.81981E+03  3.77101E+01 -1.13791E+03 -5.91881E+03 -1.55622E+03  2.91104E+01
 -2.28176E+03 -7.83751E+02 -3.19523E+03 -3.13725E+03  2.09951E+03  1.21954E+03  8.58074E+02 -4.29040E+03
 -5.88124E+02 -6.33370E+02  3.09577E+03 -3.38307E+03  9.61322E+03  9.68478E+03  1.09877E+02  3.08421E+03
 -3.57170E+03  1.08516E+04 -4.13616E+03 -3.11068E+03 -4.88135E+03 -6.93341E+03 -5.55100E+03 -3.46310E+03
 -2.23045E+02 -7.24820E+03 -1.79957E+03 -2.40035E+02 -1.06581E+03 -2.46220E+03  4.48092E+03 -4.56138E+03
  6.44469E+01  7.93746E+03 -4.31335E+02  2.32775E+03 -5.63279E+02 -5.31053E+03 -4.80698E+02  2.30840E+03
  1.51577E+03 -1.28241E+03  2.42371E+03  5.97007E+03  4.48987E+03  3.09538E+03 -1.30587E+03  2.33101E+03
 -3.51364E+03 -4.07574E+02  2.27568E+02  2.06035E+01 -7.61623E+02 -5.09672E+03 -3.14302E+03 -9.12582E+03
  3.10380E+03 -5.72248E+01  5.11649E+03  1.38057E+03  4.65539E+03 -6.14570E+02  3.88831E+03  2.03666E+03
  3.53339E+03  6.06203E+03 -1.57419E+03  6.85833E+03 -5.37626E+03 -1.34202E+03 -3.92536E+03  2.53292E+03
  1.61413E+03  1.47151E+03 -2.96276E+03  6.82065E+02  7.90396E+02 -1.14425E+03 -3.89231E+03  8.08124E+02
 -4.24081E+03 -3.08017E+03 -5.35842E+01 -1.48262E+03 -1.80829E+02 -4.68500E+03  2.59751E+03 -6.36437E+01
  1.93487E+03  2.69175E+03 -1.50458E+03  4.14630E+02  1.56435E+03  7.88949E+03 -1.77467E+03 -4.00652E+03
