 $NMID ID='MM_0lb_SNR50_14hz_g60_62.RAW', FMTDAT='(8E13.5)'
 TRAMP=1., VOLUME=1. $END
  3.09561E+05  1.03069E+03  3.38542E+05  2.52289E+05  7.75222E+04  3.36395E+05 -1.35918E+05  2.54324E+05
 -1.87279E+05  8.50475E+04 -1.10327E+05 -3.02327E+04  9.43389E+02 -5.12658E+04  5.30747E+04  2.35916E+02
  3.56875E+04  5.62946E+04 -1.72678E+04  7.64001E+04 -6.15990E+04  6.47648E+04 -8.70456E+04  3.12524E+04
 -7.92519E+04 -1.40659E+04 -5.92675E+04 -5.62018E+04 -1.44357E+04 -7.30056E+04  2.86633E+04 -4.63138E+04
  4.21401E+04  2.90701E+03  1.76222E+04  4.66961E+04 -3.44264E+04  5.07930E+04 -6.49751E+04  2.03166E+03
 -5.63842E+04 -5.79996E+04 -8.69651E+03 -7.60452E+04  3.73812E+04 -5.50772E+04  4.41440E+04 -1.98978E+04
  4.21800E+04  1.17718E+04  3.57827E+04  2.67269E+04  1.35724E+04  3.06188E+04 -5.14091E+03  2.49782E+04
 -2.10243E+04  1.21127E+04 -1.58338E+04 -8.92918E+03  3.74336E+03 -1.14353E+04  2.67101E+04  1.46794E+04
  1.53155E+03  3.90276E+04 -3.20639E+04  3.62837E+04 -5.50783E+04  1.89234E+03 -5.48225E+04 -4.46350E+04
 -1.28183E+04 -6.86143E+04  4.09035E+04 -4.90652E+04  6.35338E+04 -5.83639E+03  3.24604E+04  3.83839E+04
 -5.97016E+03  3.96934E+04 -3.09076E+04  1.38941E+04 -3.41419E+04 -5.34320E+03 -1.41852E+04 -1.16031E+04
 -5.33338E+03 -1.12210E+04  8.40662E+02 -2.23939E+04  1.00875E+04 -2.12010E+04  1.77310E+04 -8.75801E+03
  1.01197E+04 -7.87509E-01 -1.02352E+04  1.19213E+04 -2.42045E+04 -6.31346E+03 -1.13823E+04 -3.22503E+04
  2.45052E+04 -4.53140E+04  4.81596E+04 -2.08199E+04  4.42854E+04  1.63506E+04  1.64109E+04  4.81919E+04
 -1.15734E+04  3.27270E+04 -2.93472E+04 -1.07340E+03 -1.21728E+04 -3.07324E+04  2.42196E+04 -3.44029E+04
  4.17850E+04 -9.86814E+03  4.33207E+04  2.38869E+04  2.01775E+04  4.88899E+04 -9.60368E+03  5.04841E+04
 -3.16417E+04  3.73360E+04 -4.20579E+04  1.53205E+04 -4.34786E+04 -1.68185E+04 -2.55694E+04 -3.68356E+04
  1.26889E+04 -3.93054E+04  3.28952E+04 -1.43636E+04  2.93647E+04  6.06508E+03  5.66666E+03  1.92968E+04
 -1.29094E+04  9.27149E+03 -7.31099E+03 -6.10603E+03  9.60368E+03 -9.67548E+03  1.51634E+04  6.45974E+03
  1.08761E+04  2.50286E+04 -4.67225E+03  2.23671E+04 -2.18622E+04  1.35560E+04 -2.90943E+04 -3.98610E+03
 -1.37697E+04 -1.46898E+04 -5.55322E+03 -1.67359E+04  3.68443E+03 -2.45351E+04  1.82081E+04 -1.98843E+04
  2.80268E+04 -1.13294E+04  3.03106E+04  3.04375E+03  2.16863E+04  2.18630E+04  3.46774E+03  3.89151E+04
 -2.08461E+04  2.86041E+04 -2.99901E+04  1.20045E+04 -2.59165E+04 -1.05444E+04 -3.98356E+03 -1.03043E+04
  2.96743E+03 -5.20492E+03 -7.15674E+03  8.70258E+03 -1.58935E+04  6.92878E+03 -1.93195E+04 -1.08079E+04
 -8.86187E+03 -1.63893E+04  2.56686E+03 -1.90267E+04  1.31359E+04 -1.78468E+04  1.20982E+04  3.13058E+02
  1.32278E+04  1.26362E+04 -1.23810E+03  2.50566E+04 -1.36944E+04  1.09903E+04 -2.12283E+04 -9.56166E+03
 -1.37045E+04 -2.00490E+04  3.41178E+03 -2.59978E+04  1.22725E+04 -1.36059E+04  2.09603E+04 -1.14023E+04
  1.47214E+04  1.05228E+03  1.50349E+04  5.50452E+03  9.34390E+03 -2.61347E+03  1.09151E+04  1.02822E+03
  1.61716E+04  7.47727E+03  2.12434E+04  1.90441E+04  1.27925E+04  2.87850E+04 -2.57029E+03  3.47321E+04
 -1.92261E+04  3.02439E+04 -3.21155E+04  1.38413E+04 -3.90100E+04 -4.45646E+03 -2.96150E+04 -2.25145E+04
 -1.54274E+04 -3.19148E+04  1.22189E+04 -2.94314E+04  2.20041E+04 -1.14503E+04  2.37550E+04  8.74036E+03
  7.36495E+03  1.67340E+04 -1.39448E+04  1.39346E+04 -2.23807E+04  1.65765E+03 -1.42856E+04 -8.15197E+03
  1.06189E+03 -2.02930E+04  5.24664E+03 -1.07395E+04  1.20042E+04 -4.96881E+02  3.56599E+03  9.45280E+03
 -5.66581E+03  5.20859E+01 -5.29685E+03 -4.63856E+03  1.84638E+03 -1.66768E+04  1.28850E+04 -1.17702E+04
  1.95749E+04 -6.25500E+03  2.10668E+04  4.03312E+03  1.25194E+04  1.75127E+04  1.02980E+04  2.55094E+04
 -5.10944E+03  2.39962E+04 -1.42300E+04  1.48160E+04 -1.74374E+04  5.39866E+03 -1.65620E+04 -1.02645E+03
 -1.57806E+03 -1.51387E+03 -3.93172E+03 -1.68585E+03  2.25517E+03  1.81991E+03 -3.46159E+03  5.10719E+03
 -8.13656E+03  4.45528E+03 -1.31537E+04 -4.16318E+03 -8.95555E+03 -1.19582E+04  4.26666E+03 -1.39913E+04
  8.00247E+03 -4.26678E+03  1.12455E+04  2.38670E+03  2.28037E+03  4.30153E+03 -7.01928E+03 -1.33408E+03
 -2.94013E+03 -8.10995E+03  3.94216E+03 -1.08128E+04  2.88576E+03 -1.39524E+04  1.44369E+04 -3.48733E+03
  2.10016E+04  1.54493E+03  9.26177E+03  1.17637E+04  3.00783E+03  1.16012E+04 -9.51441E+03  1.45241E+04
 -9.13527E+03  6.16968E+03 -1.14532E+04 -2.01282E+03 -1.08238E+03 -2.17021E+03  9.07937E+03  5.15909E+03
  6.70221E+03  5.58238E+03  9.89822E+01  9.24531E+03 -8.23309E+03  9.62895E+03 -9.61439E+03  2.24316E+03
 -7.02414E+03 -8.73242E+03 -2.81721E+03 -1.10611E+04  8.67511E+03 -6.36172E+03  9.90677E+03 -1.25919E+03
  2.84838E+03  8.28578E+03 -1.02982E+04  9.83472E+03 -9.67790E+03  5.31987E+03 -1.23273E+04 -3.21245E+03
 -6.26390E+03 -1.13358E+04  2.32561E+03 -9.56729E+03  9.79041E+03 -3.78405E+03  1.27159E+04  1.62092E+03
  8.59690E+03  7.20151E+03 -6.89343E+02  1.32897E+04 -6.73777E+03  4.12692E+03 -1.01049E+04 -4.86013E+02
 -7.30916E+03 -7.72303E+03 -2.20963E+02 -1.03267E+04  2.35168E+03 -7.61605E+03  8.44687E+03 -3.74709E+03
  4.11016E+03  7.79926E+02 -9.70691E+01 -3.22662E+03  1.48998E+03  7.18981E+02  1.39717E+03 -6.85405E+03
  1.40096E+04 -6.99125E+03  1.14007E+04  4.16964E+03  7.03106E+03  5.14176E+03  7.62336E+03  1.18497E+04
 -2.87158E+03  1.80859E+04 -1.21023E+04  1.21033E+04 -2.06924E+04  5.38196E+03 -1.17461E+04 -1.18200E+03
 -1.05190E+04 -9.30839E+03 -2.50936E+03 -1.09751E+04 -4.94305E+02 -1.01216E+04  1.20239E+03  1.18691E+03
 -2.68747E+03 -1.32504E+03  5.52176E+03 -1.55299E+03  6.07576E+03  1.05237E+03  5.97330E+03  2.75405E+03
  1.14046E+04  2.01428E+03  2.33915E+03  6.32663E+03  7.73715E+02  8.49780E+03 -6.79778E+03  6.31926E+03
 -7.46984E+03 -2.11548E+03 -2.66683E+03 -7.59012E+03 -4.77025E+03 -1.05025E+04  4.74581E+03 -1.02149E+04
  1.19864E+04 -4.21046E+03  1.16182E+04 -3.73386E+03  6.46828E+03  8.30754E+03  2.24081E+03  1.89693E+04
 -1.30431E+03  7.21684E+03 -9.09394E+03  1.90489E+01 -4.64348E+03  9.00532E+02  7.43229E+02 -3.51620E+03
 -1.32138E+03  1.12334E+03  1.38022E+03  9.57452E+02 -1.79878E+03  5.77668E+03 -1.06114E+04  3.76530E+02
 -4.04468E+03 -5.48366E+03  7.89557E+02 -1.19797E+04  2.80184E+03 -8.68494E+03  8.94610E+03  8.61166E+02
  9.60944E+03 -6.31278E+02  2.10034E+03  1.08892E+04 -8.86052E+02  3.94478E+03 -4.51314E+03  7.23822E+03
 -4.42826E+03  1.61459E+03 -5.51517E+03 -1.79116E+03  1.80499E+03 -6.58869E+03  5.94932E+03 -6.54848E+03
  5.73073E+03 -5.26012E+02  2.84283E+02 -3.79202E+03  1.29447E+03  4.41920E+03 -3.51377E+03  2.19287E+03
  6.35184E+03 -1.39807E+03  8.85354E+02  5.24429E+03  5.07322E+03  2.66785E+03  1.43795E+03  4.26992E+03
 -8.01486E+00  4.25952E+03 -2.49166E+03  9.41165E+03 -1.16336E+04 -2.05451E+03 -9.47464E+03 -6.89144E+03
  2.20114E+02 -9.93581E+03  6.74216E+02 -1.05670E+04  2.81759E+03 -3.49724E+03  1.81626E+03 -2.28186E+03
  4.61370E+03  3.05736E+03  2.35363E+03  9.05215E+03 -1.85001E+03  1.17491E+03 -2.97969E+03 -3.77127E+03
 -1.51243E+03 -5.62812E+03 -5.98159E+02 -5.28514E+03  5.63575E+03 -3.84537E+03 -3.25537E+03  6.01000E+03
  2.03283E+03 -2.20792E+03  1.54375E+03 -4.35421E+02 -2.77154E+03 -4.65171E+02  1.10355E+03  2.73432E+03
 -2.14946E+03 -4.19921E+03  2.58147E+03 -2.72916E+03  2.18302E+03  1.83182E+03 -3.27439E+03  4.83659E+03
 -5.98066E+03  2.30473E+03 -5.31679E+03 -1.14890E+03 -1.79867E+03  3.21350E+03 -3.69039E+03 -2.32427E+03
  1.92928E+03 -7.10856E+03  2.26225E+03  3.44895E+03  1.10368E+03  7.65424E+03 -3.21410E+03  9.57746E+03
 -6.91044E+03 -1.06486E+03  7.78085E+02 -1.95348E+03 -2.21861E+03 -1.53712E+03 -1.26175E+03 -7.48934E+03
 -3.47959E+03 -5.05231E+03  3.15182E+03  4.29662E+03 -4.79677E+02  1.61033E+03 -6.20483E+02  2.61433E+03
  1.57166E+02 -3.45933E+03  1.38119E+03 -2.09148E+03  6.75435E+03 -3.72570E+03  5.48987E+03 -8.25330E+03
  4.85877E+03 -1.22117E+03  8.32356E+03  5.41758E+03  2.90721E+03  5.65105E+03 -4.16750E+03  5.82437E+03
  1.50198E+03  3.60091E+03  4.53164E+02  1.37637E+03  1.53504E+03 -1.72172E+03  3.80730E+02 -4.07926E+03
  1.29082E+03  1.62779E+03  4.59537E+03 -6.96579E+02  3.76032E+03  5.03100E+03 -1.01974E+03  7.12373E+03
  6.17391E+02  2.66670E+03  2.54651E+03 -2.58845E+03 -2.15114E+03 -5.00675E+02 -5.41685E+02 -1.20752E+02
  2.78885E+03  5.01009E+03 -3.70913E+02  1.21432E+03 -4.46993E+03  5.35736E+03 -8.17619E+03 -1.20669E+03
  5.50745E+02 -4.26116E+03  2.99208E+03 -1.03691E+04  4.66721E+03 -4.75291E+03  1.08854E+04 -2.17087E+03
  7.98335E+03 -2.03699E+02  5.10252E+03  6.19641E+03 -3.80103E+03  1.03873E+04 -2.12706E+03  6.10325E+03
 -2.52236E+03  3.32610E+03  3.85481E+02 -2.66073E+03 -1.13366E+03  1.51693E+03  9.77006E+02  2.65035E+03
  6.07893E+02 -1.33714E+03 -2.79210E+03 -1.30658E+03 -1.62066E+03 -4.81038E+02 -2.93518E+03  1.71262E+03
 -1.08928E+03 -1.25962E+02  1.72660E+03 -1.51315E+03  1.38456E+03  3.29853E+03  3.36382E+02  7.91522E+03
 -4.43931E+03  4.98308E+03 -7.52876E+03  5.26175E+03 -6.25470E+03 -7.45903E+02 -4.63077E+03 -4.92624E+03
 -6.25170E+03 -2.46797E+03  2.76129E+03 -1.47004E+03 -4.46453E+02 -3.14197E+03  4.70015E+03 -5.15156E+03
  2.00389E+03  8.99083E+02 -1.37742E+03  4.60210E+01 -2.61204E+02  4.26052E+03  7.15357E+02 -4.33401E+02
 -1.19348E+03  3.13349E+03  4.13481E+03  2.61112E+03 -1.91786E+03 -9.80702E+02  2.07279E+03 -4.82845E+02
 -1.25337E+03  7.17135E+02 -9.19713E+02  2.70703E+03  1.82314E+03 -4.72728E+03  3.99904E+03 -8.29047E+03
 -1.95843E+03 -6.11776E+03  2.23566E+03 -2.36436E+03  4.96365E+03  5.91828E+03 -5.48153E+02  4.16283E+03
  1.43297E+03  4.46042E+03 -4.80638E+03 -5.08895E+02 -6.23492E+03 -1.00997E+03 -6.20209E+02  5.43401E+03
  5.78314E+03  2.07058E+03 -5.34636E+02  3.68760E+03 -1.39369E+03 -1.23539E+02 -1.66995E+03  7.25912E+02
  1.09040E+03  7.15108E+02 -2.16345E+03 -6.95955E+02  3.74621E+03 -3.02985E+02  3.63166E+03  1.51517E+03
  9.08318E+03 -7.31105E+02  2.10132E+03 -1.75120E+02  2.58860E+02  1.97817E+03 -5.02474E+03 -4.39071E+03
