 $NMID ID='MM_0lb_SNR50_17hz_g55_50.RAW', FMTDAT='(8E13.5)'
 TRAMP=1., VOLUME=1. $END
  3.09339E+05 -2.48643E+02  3.35566E+05  2.53948E+05  8.22424E+04  3.41912E+05 -1.37342E+05  2.53999E+05
 -1.87198E+05  8.40652E+04 -1.06954E+05 -3.23553E+04 -5.55549E+02 -5.23537E+04  5.23898E+04  3.52221E+03
  3.59235E+04  5.59550E+04 -1.54022E+04  7.69972E+04 -6.46890E+04  6.41383E+04 -8.03220E+04  3.17027E+04
 -8.37745E+04 -1.52149E+04 -5.52847E+04 -5.44569E+04 -1.53935E+04 -6.87510E+04  3.15953E+04 -4.53751E+04
  3.62975E+04  1.68305E+03  1.60018E+04  4.82406E+04 -3.63794E+04  4.86145E+04 -6.48581E+04 -5.88879E+03
 -5.52028E+04 -5.81621E+04 -5.40098E+03 -7.89536E+04  3.44051E+04 -6.21874E+04  4.62922E+04 -2.04598E+04
  4.37689E+04  1.24182E+04  3.22412E+04  2.63452E+04  1.51501E+04  3.04859E+04 -2.90561E+03  2.41454E+04
 -2.35673E+04  9.51984E+03 -1.66580E+04 -7.32885E+03  3.74312E+03 -9.83720E+03  1.96223E+04  1.67154E+04
  9.38864E+03  2.98903E+04 -2.90613E+04  3.54034E+04 -6.12713E+04  5.96826E+03 -5.52107E+04 -3.93022E+04
 -1.21000E+04 -6.32440E+04  3.79465E+04 -4.30385E+04  5.75022E+04 -3.73519E+02  3.25830E+04  3.19682E+04
 -5.53399E+03  3.36563E+04 -2.45952E+04  1.14096E+04 -2.83289E+04 -1.01739E+04 -1.48580E+04 -7.01462E+03
 -7.15490E+03 -1.36130E+04 -2.44127E+03 -1.04133E+04  3.03120E+03 -2.15400E+04  1.56936E+04 -8.23929E+03
  1.66061E+04  3.76418E+03 -7.75981E+03  8.92681E+03 -2.24954E+04 -4.47046E+03 -4.09216E+03 -3.39017E+04
  2.44113E+04 -4.05401E+04  4.56756E+04 -1.78700E+04  4.23491E+04  1.98246E+04  1.78997E+04  4.55776E+04
 -1.52786E+04  3.36220E+04 -2.34332E+04 -5.09953E+02 -1.27094E+04 -2.32704E+04  1.89565E+04 -3.39687E+04
  3.77779E+04 -7.10597E+03  3.55299E+04  2.27478E+04  1.68834E+04  4.57384E+04 -6.41300E+03  4.83288E+04
 -3.04546E+04  3.25367E+04 -3.97794E+04  1.05093E+04 -4.06977E+04 -1.50694E+04 -2.17406E+04 -4.10947E+04
  8.81478E+03 -3.77756E+04  2.84608E+04 -1.74551E+04  2.44572E+04  1.02717E+04 -1.90512E+03  2.00265E+04
 -1.41181E+04  6.20296E+03 -7.84533E+03 -8.11141E+03  5.70987E+03 -8.73128E+03  1.64784E+04  4.14753E+03
  1.39943E+04  2.56431E+04 -3.13867E+03  2.11677E+04 -2.34123E+04  9.37039E+03 -2.70788E+04 -6.00487E+03
 -1.64479E+04 -1.86213E+04 -5.24215E+03 -2.42598E+04  7.43067E+03 -1.75164E+04  1.34862E+04 -1.87415E+04
  2.65159E+04 -9.61102E+03  2.95184E+04  8.78047E+02  2.13797E+04  1.23659E+04  2.72705E+03  3.92092E+04
 -1.71976E+04  2.72625E+04 -2.62946E+04  1.10169E+04 -2.21619E+04 -1.09841E+04 -4.51471E+03 -1.20788E+04
  1.15451E+03  2.25342E+03 -9.06314E+03  2.82036E+03 -1.52146E+04  4.15106E+03 -1.43904E+04 -6.37021E+03
 -7.95010E+03 -1.84291E+04  4.84247E+03 -1.96356E+04  8.18789E+03 -1.59002E+04  1.35104E+04  2.58185E+03
  8.97721E+03  1.63084E+04 -1.68627E+03  2.15195E+04 -1.12019E+04  7.94268E+03 -1.60450E+04 -6.35255E+03
 -1.51630E+04 -1.75318E+04 -2.77916E+03 -1.93104E+04  8.98018E+03 -1.53781E+04  1.79296E+04 -1.02647E+04
  1.99438E+04  1.48397E+03  8.14731E+03  2.78989E+03  4.21601E+03  4.82600E+03  7.00093E+03 -2.92551E+02
  1.44645E+04  1.42373E+03  1.67784E+04  1.52911E+04  1.20249E+04  2.58568E+04 -6.61917E+03  2.88914E+04
 -1.31132E+04  2.93307E+04 -2.76843E+04  9.11141E+03 -2.55167E+04  1.35812E+03 -2.77823E+04 -1.96059E+04
 -1.15471E+04 -2.48480E+04  8.71823E+03 -2.40109E+04  2.26380E+04 -1.28724E+04  1.76526E+04  4.08217E+03
  6.97947E+03  1.58707E+04 -5.61325E+03  1.46243E+04 -1.46416E+04  1.89705E+03 -9.77609E+03 -7.38965E+03
  2.92138E+03 -1.20539E+04  5.72471E+03 -1.28918E+04  1.26253E+04 -6.23536E+02  4.15386E+03  2.09166E+03
 -5.49974E+03  4.72250E+03 -6.04916E+03 -4.55015E+03  3.72400E+03 -1.18247E+04  9.10745E+03 -1.15789E+04
  1.53147E+04 -5.55668E+03  9.68331E+03  3.11574E+03  1.13147E+04  7.21108E+03  5.80407E+03  1.39132E+04
 -2.26193E+03  2.18440E+04 -1.33582E+04  1.61009E+04 -1.13352E+04  2.50764E+03 -6.17682E+03 -3.30487E+03
 -2.84043E+03 -6.35987E+03 -5.36095E+01 -4.95501E+03 -3.44652E+03  2.75338E+03 -3.32691E+03  5.01383E+03
 -5.00771E+03 -6.14861E+02 -8.28423E+03 -6.74712E+03 -2.57900E+03 -1.57916E+04  2.43462E+03 -8.81901E+03
  5.55275E+03 -5.76704E+03  3.94469E+03 -1.31903E+03  3.63739E+03 -4.78276E+03  3.36099E+03  2.25095E+03
 -3.92246E+03 -9.18981E+03  1.72919E+02 -6.34710E+03  7.82403E+03 -7.26069E+03  1.09570E+04 -7.17547E+03
  1.68273E+04  3.09780E+03  1.10493E+04  6.56708E+03  4.10036E+03  1.07032E+04 -6.96756E+03  9.26273E+03
 -5.75858E+03  2.33785E+03 -4.61357E+03  1.98611E+03  2.06668E+03 -4.23083E+03  1.86370E+03  2.91243E+03
  2.39436E+03  3.23291E+03 -3.03013E+03  8.25478E+03 -2.70243E+03  9.68665E+03 -1.33652E+04 -1.98790E+03
 -6.94347E+03 -6.52920E+03 -2.26987E+03 -5.47747E+03  4.74657E+03 -5.38404E+03  5.01315E+03 -1.82009E+02
  2.10920E+03  1.08343E+03 -7.40504E+03  5.30486E+03 -8.77331E+02  2.46746E+03 -8.66885E+03 -4.25297E+03
 -2.72604E+03 -5.94870E+03  5.50569E+02 -9.68038E+03  1.44175E+04 -6.30462E+03  8.90892E+03 -3.40098E+03
  7.51691E+03  3.72626E+03  1.52184E+03  8.09329E+03 -6.29876E+03  2.01095E+03 -6.09634E+03  7.49404E+02
 -7.96926E+03 -4.76588E+03 -5.46523E+02 -5.64090E+03  2.09805E+03 -6.32949E+03  4.16323E+03 -1.17222E+03
  5.51474E+03  5.19583E+03 -5.05931E+03 -3.08242E+02  2.96345E+03  3.93925E+03  2.17785E+03 -3.41279E+03
  1.19325E+04 -2.50285E+03  7.60434E+03 -3.95309E+02  9.30891E+03  6.72260E+03  4.85978E+03  5.21794E+03
 -2.71074E+01  1.01131E+04 -1.22318E+04  4.77870E+03 -1.69919E+04  3.67481E+03 -6.92289E+03  9.28747E+02
 -1.23248E+03 -8.19249E+03  5.39138E+03 -9.06834E+03  9.54762E+02  4.41872E+03  1.63911E+03  3.37154E+03
 -8.56421E+02 -4.27179E+03  4.52646E+03  3.46401E+03  3.02759E+02  8.91320E+02  1.11473E+04  3.12975E+03
  7.95846E+03  2.59422E+03  6.76872E+01  4.76794E+03 -7.84977E+02  5.17014E+03 -5.87070E+03  4.03666E+03
 -4.78579E+03 -1.41299E+02  1.85162E+03 -4.58453E+03  2.04726E+03 -4.15369E+03  5.43164E+03 -8.94862E+03
  8.71143E+03 -2.88785E+03  1.03217E+04  1.98705E+03  2.43756E+03  7.06086E+03  8.34352E+03  3.56308E+03
 -4.96754E+03  5.25025E+03 -2.55256E+03  2.68207E+03 -4.21312E+03 -1.29868E+03 -1.03952E+03  9.65948E+02
  2.94791E+03 -2.21515E+03 -1.91360E+03  5.64580E+03 -5.40581E+03  1.88195E+03 -1.35853E+02  2.69178E+03
  4.02985E+03 -5.04406E+03 -1.56792E+03 -4.69580E+03  6.33131E+03 -4.51898E+03  2.25977E+03 -5.72950E+02
  2.44498E+03  2.87950E+03 -4.89572E+02  3.52342E+03 -3.76363E+03  3.82410E+03 -3.64533E+03  8.34389E+02
 -5.79871E+03 -5.35575E+02 -5.87057E+03 -1.91844E+03 -2.41604E+03 -5.90356E+03  1.49512E+03 -6.69296E+03
  1.79589E+03 -2.52226E+03  2.15654E+03  1.73071E+03 -4.97893E+03  1.65926E+03  3.61693E+03 -4.66951E+03
 -7.52608E+02  1.35997E+03 -1.38790E+03 -2.87770E+03  1.21899E+03  6.41744E+03  1.15769E+04  2.38942E+03
  1.72502E+03  7.17403E+03  1.63163E+02  3.43858E+03 -2.78439E+03  5.25485E+03 -6.26171E+03  1.70493E+03
  2.02379E+03 -2.69451E+03  1.18559E+03 -7.50227E+03  1.45619E+03 -5.07086E+03  6.93469E+03 -1.23852E+03
  1.83733E+03  3.08038E+03  5.08140E+03  2.47677E+03  2.69849E+03 -2.42885E+03 -2.67676E+03 -2.28898E+03
  3.64705E+03 -5.12086E+03  4.34131E+03 -2.18108E+03  1.00201E+03  9.30910E+02 -4.16546E+03  1.14466E+02
  2.66044E+03  5.05718E+03  8.39090E+01  2.16844E+03  5.24964E+03 -1.96146E+03 -1.90358E+03 -4.39701E+03
  5.44008E+02 -2.65861E+02  6.03924E+03  9.73148E+01  2.09415E+03  2.49408E+03 -2.20457E+03 -5.19020E+00
 -4.66132E+02 -9.01921E+02 -7.22435E+01  2.52845E+03 -1.37173E+03 -2.79416E+02  1.78494E+01  2.72262E+03
 -2.00158E+03 -4.39128E+03 -4.53847E+02 -3.43496E+03  1.23631E+03  3.49032E+03 -4.19322E+03  2.36854E+01
 -3.55773E+02  4.35792E+02 -1.31392E+03  2.83165E+02 -5.90216E+03 -2.40042E+03 -2.72566E+03  1.13197E+03
 -2.55074E+03  2.31506E+01  2.67196E+03 -1.12864E+03 -1.19898E+03 -2.90435E+03  1.44640E+02  5.28869E+03
 -2.21000E+03  4.13021E+02 -1.41446E+01 -2.53783E+03  4.08700E+03 -6.52608E+03  1.34312E+03 -1.92066E+03
  3.26060E+03  9.82101E+02 -2.68711E+02  2.23495E+03  3.02383E+03  4.67127E+03 -1.24590E+03  5.49624E+03
 -2.38610E+03 -2.65097E+02 -4.09040E+03 -1.68810E+03  1.43993E+03 -3.14791E+02  1.40162E+03  3.09873E+03
  5.50592E+02 -1.40612E+03  5.87936E+03  5.90048E+03  1.05137E+03  1.67670E+03 -2.80448E+03  1.46900E+03
 -2.74956E+02 -2.16646E+03  3.03317E+02  2.43153E+02  2.02444E+03 -2.04119E+03  1.67936E+03 -2.39497E+03
 -8.08223E+02 -3.00236E+03 -1.43599E+03  5.01899E+03 -3.15081E+03 -1.98901E+03 -1.99925E+03 -1.68037E+03
 -2.74176E+03  1.72830E+03 -5.72457E+02 -9.59159E+02  1.75087E+03 -3.59934E+03  4.65962E+03  4.86923E+01
  6.06564E+03  9.52959E+02  2.39354E+03  2.97094E+03 -1.41317E+03  3.34528E+03 -3.14582E+02 -3.40850E+03
  1.53260E+02  4.71879E+03 -4.59264E+03 -4.21124E+02 -1.73433E+03  2.57001E+03 -1.21358E+03 -5.09187E+03
 -1.20621E+03  4.44922E+02 -2.15548E+02  2.95763E+03  1.92360E+03  6.51317E+03  4.36676E+02  3.66267E+03
 -1.21285E+02  3.35061E+02  1.04120E+03 -3.16232E+03  1.48066E+03  1.53138E+03 -1.40415E+03  2.29288E+03
 -4.17186E+03  1.11329E+03  2.74824E+03 -2.31761E+03  1.09994E+03 -2.49688E+03 -1.39275E+03  2.07303E+03
 -6.17697E+03  2.07340E+02  2.01876E+03 -6.17478E+02  2.63745E+03 -2.68279E+03 -1.28482E+03  4.58533E+03
  2.12383E+03 -1.33835E+03 -1.55500E+02  1.01219E+03  4.89218E+03  4.14239E+03  2.19997E+03 -1.46538E+03
 -3.25757E+03 -8.75586E+02  1.75639E+03 -1.89942E+03  1.07946E+03 -9.02193E+02 -4.72650E+02  9.48007E+02
  1.20056E+03  1.95649E+03 -3.94882E+03 -1.44456E+03 -2.76698E+03  2.32535E+03  6.80069E+03  1.78914E+03
 -2.14190E+03 -1.14055E+03  9.18790E+03 -3.67896E+02  1.49874E+03  5.80690E+01 -7.65400E+02  6.20306E+03
 -7.92943E+02  5.75839E+02  3.81496E+03  2.32895E+03  4.21396E+03  2.14023E+03 -2.33755E+03  3.36485E+03
 -4.52881E+03  9.53617E+02 -4.05003E+03 -1.34662E+03  4.92167E+02  1.88018E+03 -9.61858E+02  1.93672E+03
 -4.81838E+03 -1.10563E+03  4.55709E+03 -2.19620E+03  2.48232E+03 -1.12932E+03  1.34787E+02  7.23759E+02
 -5.37744E+02  3.14778E+03  5.16171E+03  1.94422E+03 -8.78314E+02  2.44336E+03  5.10214E+02  9.79800E+02
