 $NMID ID='MM_0lb_SNR50_12hz_g45_67.RAW', FMTDAT='(8E13.5)'
 TRAMP=1., VOLUME=1. $END
  3.12650E+05 -3.50939E+03  3.34827E+05  2.47087E+05  8.36760E+04  3.36182E+05 -1.30108E+05  2.58237E+05
 -1.91848E+05  8.20873E+04 -1.14347E+05 -3.26357E+04  1.88238E+03 -4.94890E+04  5.60579E+04  2.62767E+03
  3.66357E+04  5.39979E+04 -1.37250E+04  7.14434E+04 -6.25970E+04  5.97202E+04 -8.59369E+04  3.24038E+04
 -8.44022E+04 -9.13145E+03 -5.95242E+04 -5.78971E+04 -2.16435E+04 -7.02641E+04  2.63461E+04 -4.61155E+04
  3.93119E+04  7.97920E+02  1.63669E+04  4.71495E+04 -3.44202E+04  4.68717E+04 -6.61388E+04 -9.85795E+02
 -5.35792E+04 -5.76584E+04 -1.01778E+04 -7.16564E+04  3.59974E+04 -5.16781E+04  5.48387E+04 -1.58800E+04
  4.57124E+04  1.16658E+04  3.17029E+04  2.70314E+04  1.71672E+04  2.60257E+04 -6.58382E+03  2.78266E+04
 -2.21482E+04  1.29776E+04 -1.73908E+04 -3.63785E+03  8.62433E+03 -8.21349E+03  1.87839E+04  1.49643E+04
  6.08543E+03  3.52988E+04 -2.96654E+04  3.64504E+04 -6.05019E+04  5.47238E+01 -5.23697E+04 -3.90824E+04
 -1.38482E+04 -6.31610E+04  3.64577E+04 -4.70503E+04  5.84117E+04 -1.13905E+03  3.64887E+04  3.55308E+04
 -1.02265E+04  4.01645E+04 -3.03690E+04  2.24373E+04 -2.58927E+04 -4.61094E+03 -1.80110E+04 -1.30524E+04
 -5.71592E+03 -1.13525E+04  3.22604E+03 -1.95804E+04  5.66473E+03 -2.14953E+04  1.22963E+04 -1.43793E+04
  7.97103E+03  8.71789E+03 -1.30774E+04  1.57641E+04 -1.85792E+04 -9.05284E+03 -9.32075E+03 -4.08570E+04
  2.34714E+04 -3.95255E+04  4.78731E+04 -2.21957E+04  4.24972E+04  2.00990E+04  1.89447E+04  4.56988E+04
 -1.48761E+04  3.35812E+04 -2.31598E+04  5.52611E+02 -4.60345E+03 -2.70583E+04  1.70683E+04 -3.02153E+04
  4.64841E+04 -7.70161E+03  3.96440E+04  2.54964E+04  1.90151E+04  5.17974E+04 -6.69377E+03  5.30102E+04
 -3.40224E+04  3.49402E+04 -4.27915E+04  1.54486E+04 -4.06874E+04 -8.03089E+03 -2.27107E+04 -4.24722E+04
  9.48206E+03 -4.48826E+04  3.66132E+04 -1.79830E+04  2.78120E+04  1.12718E+04  1.34540E+02  1.42098E+04
 -1.43522E+04  7.33741E+03 -8.32037E+03 -1.05021E+04  5.81296E+03 -5.16104E+03  2.47924E+04  2.21479E+03
  1.31916E+04  2.61608E+04 -6.96096E+02  2.57566E+04 -2.74830E+04  1.67393E+04 -3.42713E+04 -2.13918E+03
 -1.66928E+04 -1.78098E+04 -1.09889E+04 -2.30545E+04  2.55966E+02 -2.16886E+04  1.82363E+04 -2.04777E+04
  2.63472E+04 -1.25638E+04  3.68216E+04  9.02953E+03  1.87484E+04  2.45154E+04  4.67792E+03  3.92789E+04
 -1.80327E+04  3.01223E+04 -2.70072E+04  4.85902E+03 -2.33676E+04 -4.33909E+03 -1.00916E+03 -1.22671E+04
  6.89763E+03  1.14458E+03 -8.69402E+03  5.59371E+03 -1.48185E+04  7.24631E+03 -1.62691E+04 -4.37393E+03
 -5.22417E+03 -1.92355E+04  1.01761E+04 -2.59685E+04  1.82268E+04 -1.72528E+04  1.69403E+04 -1.74567E+03
  1.23899E+04  1.08397E+04 -7.67988E+02  2.04149E+04 -1.55689E+04  1.23267E+04 -2.47616E+04 -4.86825E+03
 -1.33463E+04 -1.55150E+04 -2.18564E+03 -2.54134E+04  1.12276E+04 -1.93553E+04  2.13008E+04 -8.67345E+03
  1.62916E+04  2.17964E+03  1.49787E+04  5.52430E+03  4.67761E+03 -9.86259E+02  1.15144E+04  2.59765E+02
  1.57067E+04  1.62713E+03  2.14940E+04  1.57360E+04  1.71196E+04  2.97844E+04 -5.93008E+02  3.70449E+04
 -2.53966E+04  2.86565E+04 -3.32397E+04  1.19223E+04 -3.57112E+04 -5.48699E+03 -2.77083E+04 -2.26221E+04
 -1.07457E+04 -2.52538E+04  7.93522E+03 -3.14295E+04  2.40350E+04 -1.54636E+04  1.56091E+04  8.74047E+03
  5.29584E+03  1.45042E+04 -6.32344E+03  1.19191E+04 -1.52686E+04  1.53587E+03 -1.04745E+04 -1.31325E+04
 -2.17520E+03 -2.12531E+04  7.10130E+03 -1.22470E+04  1.25411E+04  1.90198E+03  6.14250E+03  7.92846E+03
 -6.22724E+03  1.84664E+03 -5.78938E+03 -1.00286E+04 -3.65302E+02 -1.67045E+04  6.57467E+03 -1.07031E+04
  1.73666E+04 -7.63173E+03  2.37382E+04  2.56684E+03  1.61838E+04  1.89244E+04  2.85734E+03  2.51163E+04
 -5.91100E+03  2.47255E+04 -1.96008E+04  1.18900E+04 -1.33610E+04  1.59450E+03 -1.35236E+04 -1.26655E+03
 -6.48869E+03 -7.69328E+03  2.87603E+03  3.58951E+01  6.38757E+03  5.24298E+03 -1.11432E+04  4.20159E+03
 -1.43793E+04  6.43705E+02 -9.59213E+03 -6.67452E+03 -2.91136E+03 -1.41761E+04  2.45072E+03 -1.10509E+04
  1.53141E+04 -6.39933E+03  9.35390E+03  7.85924E+03  6.35962E+03  7.57889E+03 -7.36297E+03  2.92759E+03
 -6.76277E+03 -1.03607E+04 -5.85020E+03 -1.14650E+04  7.98645E+03 -1.41042E+04  1.49068E+04 -5.75136E+03
  2.06333E+04 -1.35702E+03  9.80366E+03  9.16736E+03  5.25810E+03  1.53792E+04 -7.83419E+03  1.16589E+04
 -5.89455E+03  9.77896E+03 -9.54056E+03 -1.06638E+04  3.19329E+02  1.44540E+03  5.07672E+03  1.25124E+03
  6.28855E+03  5.14587E+03 -6.35627E+02  1.45565E+04 -8.14594E+03  1.15048E+04 -1.24993E+04  5.40040E+03
 -5.75820E+03 -4.21852E+03 -8.68153E+02 -8.93556E+03  2.32169E+03 -5.75006E+03  7.45801E+03  1.79871E+03
  1.86033E+03  5.32242E+03 -8.92203E+03  8.24563E+03 -9.80365E+03  3.12613E+03 -9.39953E+03  4.79408E+02
 -4.32170E+03 -9.80582E+03  4.11006E+03 -1.28281E+04  4.27641E+03 -6.61641E+03  1.21338E+04 -1.59604E+03
  9.18865E+03  1.26579E+04 -5.87323E+03  6.40803E+03 -1.11175E+04  2.48248E+03 -2.41350E+03 -6.17400E+03
 -9.36407E+03 -4.97985E+03 -1.90740E+03 -8.74407E+03  1.98282E+03 -5.37203E+03  3.47335E+03 -1.17911E+03
  6.87204E+03 -6.49092E+02 -1.90470E+03  5.08114E+03 -2.05961E+03 -5.80550E+03  4.82569E+03 -6.81778E+03
  7.02535E+03 -2.00207E+03  6.04475E+03  5.81309E+03  1.14014E+04  8.26569E+03  1.21486E+04  1.53307E+04
  2.38661E+02  2.12104E+04 -1.53848E+04  9.44783E+03 -1.88038E+04 -1.22054E+03 -1.53472E+04 -7.95821E+03
 -8.19327E+03 -1.35737E+04 -1.12387E+03 -1.01879E+04  3.99319E+03 -5.17848E+03  1.02163E+04 -2.00977E+03
 -4.73872E+03 -5.81196E+03  2.41790E+03 -5.65862E+03  1.45480E+03 -4.43372E+03  4.63399E+03 -2.42538E+03
  4.97414E+03 -3.12970E+02  2.85525E+03  5.61552E+03 -1.74168E+03  6.50254E+03 -9.88345E+03  1.64172E+03
 -1.40666E+04 -2.30666E+03 -3.33213E+03 -3.38183E+03 -7.50632E+01 -5.38532E+03  7.35819E+03 -1.07229E+04
  1.11265E+04 -3.13627E+03  1.85582E+04  2.07199E+03  9.23216E+03  1.37384E+04  6.82329E+03  1.40576E+04
 -6.28352E+02  9.20245E+03 -6.26868E+03  4.41953E+03 -6.92125E+03  3.38114E+03 -9.68194E+03 -2.02157E+03
 -2.61363E+03 -2.74032E+03 -8.55935E+02  5.00666E+03 -3.32989E+03 -3.71742E+03 -5.81545E+03  1.01614E+03
 -6.58136E+03 -1.09456E+04  2.08618E+03 -7.78103E+03  3.41785E+03 -9.39847E+03  9.27457E+03  8.41494E+02
  1.33130E+04  8.52623E+03  5.29266E+02  5.56351E+03 -4.10260E+03  6.68396E+03 -6.89092E+03  4.87841E+03
 -1.21614E+04  2.33905E+03 -8.03397E+03 -3.36074E+03 -1.71245E+00 -9.26748E+03 -2.82491E+03 -9.69877E+03
  7.78714E+03  8.83696E+02  7.87153E+03  3.62243E+03 -1.01971E+03  2.27964E+03 -3.81855E+03  1.22798E+03
  1.73455E+03  2.64325E+03  4.03242E+02  1.45139E+03 -2.22739E+03  1.30347E+03  3.17908E+03  3.63735E+03
 -3.50902E+03  8.01761E+03 -1.05034E+04  8.74453E+03 -8.12936E+03  4.46909E+03 -6.57783E+03 -3.81363E+03
 -3.52845E+03 -8.27886E+03 -7.08016E+02 -1.31533E+04  7.13877E+03 -6.46805E+03  1.17106E+04 -3.20766E+03
  6.70846E+03 -1.10212E+03  3.39875E+03  8.92857E+03 -3.25917E+03 -7.70534E+02 -5.68352E+03  2.01561E+03
  8.64546E+02 -1.95256E+03  6.69382E+03 -3.89687E+03  7.01045E+03 -4.98844E+03  3.68813E+03 -2.53798E+03
  2.05305E+03  7.36130E+03  1.80542E+03 -1.96808E+03 -2.32917E+03  4.20970E+03  2.96713E+02  2.13075E+02
 -1.19954E+03  1.81389E+02  6.35198E+03 -1.56697E+03  2.88918E+03  6.32132E+03 -1.58352E+03  3.80984E+03
 -4.89885E+03  6.61763E+03 -7.53279E+03 -1.61475E+03 -5.36987E+03 -1.41501E+03 -1.78059E+03 -4.23307E+03
  1.93231E+03 -4.99675E+03  5.68900E+02 -1.44667E+03 -3.96155E+02  3.51218E+03 -1.00698E+03  5.29788E+03
 -7.60124E+03  9.61558E+01 -5.38362E+03 -4.62773E+03 -3.05945E+03 -7.33346E+03  3.36143E+03 -4.42942E+03
  3.22995E+03 -8.06128E+02  1.01492E+03  8.61803E+03  3.49954E+03 -4.33928E+03 -6.24548E+02  7.53809E+03
 -1.48847E+03 -2.38221E+02 -1.24779E+02 -5.17535E+03  1.63346E+03 -1.02871E+03 -1.08438E+03 -1.66312E+02
  2.93803E+03  3.44956E+03 -4.30040E+02  8.88377E+02  3.43237E+03  6.97081E+03  2.07231E+03  1.02209E+04
 -2.23526E+03  7.00630E+02 -5.66357E+03 -4.05708E+02 -5.85163E+02 -2.42138E+03 -2.85264E+03 -1.18701E+03
  2.84843E+03 -5.63846E+02  1.67042E+03  4.54959E+03  5.29895E+02  2.75317E+03 -2.25465E+03 -4.84575E+03
  8.09347E+03 -4.56143E+03 -4.14713E+03 -2.50932E+03 -3.33000E+03 -2.45711E+03  6.87614E+03  1.02885E+03
 -4.20576E+03 -1.40119E+03 -6.92359E+03  1.91499E+03 -7.20236E+03 -4.25664E+03 -6.00380E+03 -6.83753E+02
 -2.97438E+03 -1.29250E+04  5.00295E+03 -8.28329E+03  2.18018E+03 -1.01750E+04  3.36350E+03 -1.52274E+03
  6.26800E+03  3.34325E+02  5.36002E+03  6.69207E+03  2.93809E+03  3.87318E+03 -3.80853E+03  4.23372E+03
  1.85680E+03  4.51755E+03 -6.76879E+03  2.67555E+03 -3.87434E+03  9.03017E+02 -4.52370E+03  1.89349E+02
  1.70981E+03 -4.05534E+03 -7.93950E+03 -6.47763E+01  7.46482E+03 -1.25313E+03  2.27782E+02 -4.94772E+03
  4.17254E+03  1.70967E+03  6.29769E+03  3.00679E+03  6.44806E+03  2.29326E+03 -2.76238E+03  8.04221E+03
 -7.92316E+03  5.87672E+03 -5.15818E+03  1.53241E+03 -7.79773E+03  4.38808E+03 -7.70556E+03 -1.10039E+03
 -4.40839E+03 -2.26507E+03 -1.43176E+03 -3.81224E+03  8.24539E+03 -9.14400E+03  2.57084E+03 -3.98346E+03
  1.06039E+03  8.22942E+03 -4.95059E+02  2.17261E+03 -3.39790E+03 -4.95876E+03 -3.52137E+03 -8.96916E+03
 -2.34645E+03 -2.20777E+03  3.88733E+03 -3.20200E+03  7.98277E+02  5.59285E+03  3.66989E+03  6.41556E+03
 -1.21373E+03  4.76744E+03 -8.79471E+03  2.99114E+03 -3.36196E+03  1.51323E+02 -3.24144E+03 -9.32476E+03
  2.60128E+03 -8.16898E+03  1.72276E+02  4.15425E+03  2.62755E+03 -3.73843E+03  7.38268E+02  9.34433E+03
 -1.94398E+02  3.48247E+03  2.59209E+03  6.14910E+03 -2.84419E+03  2.60751E+02  3.29856E+02  6.36718E+02
  6.27230E+02 -5.43845E+02  1.99732E+03 -4.12063E+03  4.30332E+03 -3.29154E+02 -4.96257E+03  4.25524E+02
 -2.06272E+03  3.26390E+03  9.93890E+02  1.01005E+02  4.06751E+03 -5.37791E+03  6.87620E+03 -4.65456E+03
 -5.14344E+02 -2.81250E+03 -3.22831E+03 -2.13095E+03 -1.64472E+03  2.77242E+03 -2.96057E+02  4.07120E+03
