 $NMID ID='MM_0lb_SNR50_14hz_g45_84.RAW', FMTDAT='(8E13.5)'
 TRAMP=1., VOLUME=1. $END
  3.07558E+05 -5.91200E+03  3.38618E+05  2.52916E+05  8.72031E+04  3.38078E+05 -1.35347E+05  2.52786E+05
 -1.94675E+05  8.00558E+04 -1.13760E+05 -3.96236E+04 -1.96205E+03 -5.19220E+04  5.08152E+04 -2.71402E+03
  3.58289E+04  5.39549E+04 -1.81312E+04  7.82225E+04 -6.45377E+04  6.25501E+04 -8.19674E+04  3.61840E+04
 -8.34597E+04 -1.34310E+04 -6.11886E+04 -5.26140E+04 -1.23077E+04 -6.55065E+04  2.64216E+04 -4.42438E+04
  3.74652E+04  4.31260E+03  1.65375E+04  4.72412E+04 -3.27553E+04  4.96739E+04 -6.49399E+04 -4.24875E+03
 -5.26560E+04 -5.70630E+04 -5.41810E+03 -8.08498E+04  3.12649E+04 -5.10406E+04  4.92417E+04 -1.47707E+04
  4.68108E+04  8.95455E+03  3.62630E+04  2.17572E+04  1.18419E+04  2.78338E+04 -5.83745E+03  2.41992E+04
 -2.24395E+04  1.22614E+04 -1.70446E+04 -5.98293E+03  5.23369E+03 -1.02291E+04  1.31940E+04  8.97408E+03
  5.34955E+03  4.07252E+04 -3.40360E+04  3.47945E+04 -6.19308E+04  4.66177E+03 -5.45625E+04 -4.37170E+04
 -1.71273E+04 -6.51622E+04  4.27624E+04 -4.30639E+04  5.15702E+04 -1.93166E+03  3.29319E+04  3.46895E+04
 -8.11853E+03  3.71311E+04 -2.75936E+04  1.28871E+04 -2.73418E+04 -6.99163E+03 -1.35487E+04 -6.83451E+03
 -3.17140E+03 -1.73709E+04  2.27831E+03 -1.40484E+04  4.95013E+03 -2.28391E+04  1.81737E+04 -1.03120E+04
  1.01206E+04  4.49660E+03 -1.05572E+04  1.30956E+04 -2.02960E+04 -8.87343E+03 -5.85668E+03 -3.69036E+04
  1.93590E+04 -4.47094E+04  4.92948E+04 -1.78412E+04  4.50890E+04  1.35997E+04  1.14307E+04  4.16720E+04
 -1.31666E+04  3.42956E+04 -2.74502E+04  5.16776E+03 -8.99374E+03 -2.39093E+04  2.37291E+04 -3.10584E+04
  4.57845E+04 -6.09645E+03  3.18222E+04  2.32999E+04  1.46008E+04  4.39322E+04 -1.19692E+04  5.06622E+04
 -3.55342E+04  3.92098E+04 -4.39715E+04  6.14253E+03 -4.41647E+04 -1.76327E+04 -2.51746E+04 -3.61472E+04
  8.82199E+03 -3.96043E+04  3.28280E+04 -1.80280E+04  2.72827E+04  1.08658E+04 -4.52735E+03  1.92370E+04
 -7.03004E+03  7.00124E+03 -1.00338E+04 -1.38958E+04  7.20640E+03 -1.00744E+04  2.21542E+04  8.92198E+03
  1.14302E+04  2.25750E+04 -9.02964E+03  2.51711E+04 -1.64412E+04  1.41683E+04 -2.77188E+04 -6.33518E+03
 -1.79668E+04 -2.12750E+04 -6.41550E+03 -2.02571E+04  3.93424E+03 -1.46093E+04  1.11462E+04 -1.73127E+04
  2.38045E+04 -1.45797E+04  3.94316E+04 -4.23556E+03  2.28074E+04  1.61413E+04  4.94041E+03  3.50559E+04
 -1.85740E+04  2.96492E+04 -3.01924E+04  1.42301E+04 -1.94769E+04 -1.24404E+04 -9.14728E+03 -6.85369E+03
  6.78043E+03 -5.38716E+03 -5.50305E+03 -2.04671E+02 -1.90797E+04  5.15428E+03 -1.57312E+04 -2.05652E+03
 -1.04248E+04 -1.50774E+04  7.21144E+03 -2.12304E+04  1.31770E+04 -1.71980E+04  1.75343E+04 -3.54655E+03
  1.37931E+04  1.11766E+04 -5.29476E+02  1.85704E+04 -1.13461E+04  9.67373E+03 -1.75845E+04 -4.06270E+03
 -1.81662E+04 -1.73885E+04 -3.60494E+03 -2.13660E+04  8.01213E+03 -1.16109E+04  1.77080E+04 -1.08693E+04
  1.38079E+04  5.28364E+02  1.28233E+04  1.54575E+03  7.32864E+03 -3.61368E+02  9.95337E+03 -1.63254E+03
  1.68624E+04  5.16194E+03  1.94565E+04  1.17966E+04  1.21287E+04  3.67637E+04 -3.16528E+03  3.25243E+04
 -1.99660E+04  2.85133E+04 -3.17434E+04  1.24546E+04 -3.54437E+04  1.58223E+03 -2.77509E+04 -1.72354E+04
 -1.07690E+04 -2.92815E+04  6.68253E+03 -2.63476E+04  2.16383E+04 -7.64189E+03  2.12049E+04  6.78562E+03
  5.70802E+03  9.97534E+03 -6.92601E+03  1.19466E+04 -1.34141E+04  2.68148E+03 -7.40856E+03 -1.20076E+04
  9.41533E+02 -8.93850E+03  6.50579E+03 -7.31372E+03  1.46551E+04  1.48437E+03 -9.01540E+02  7.46602E+03
 -6.26875E+03  1.12833E+03 -3.45036E+03 -1.43500E+03 -6.10037E+02 -1.19530E+04  1.11842E+04 -1.34676E+04
  1.37558E+04 -7.90757E+03  1.31334E+04  5.49040E+03  1.99889E+04  1.27282E+04  5.40362E+03  2.05964E+04
 -4.49132E+03  2.16882E+04 -1.40427E+04  1.58735E+04 -1.16027E+04  2.76930E+03 -1.10508E+04  9.31954E+02
 -1.49767E+03 -5.02072E+03  1.05673E+01 -6.16872E+02 -4.61658E+03  2.62550E+03 -8.34406E+03  6.75580E+03
 -8.46950E+03 -1.11666E+03 -8.04998E+03 -7.07093E+03 -2.42230E+03 -1.13962E+04  8.04111E+03 -8.78179E+03
  4.85328E+03 -4.49686E+03  9.72735E+03  1.01938E+04  2.33107E+03  3.51140E+03  1.89323E+02 -1.28555E+03
 -3.88533E+03 -7.00188E+03 -1.70778E+03 -1.07456E+04  3.31369E+03 -1.24782E+04  1.11939E+04 -8.16747E+03
  1.30606E+04  9.34701E+02  8.72675E+03  8.40968E+03  4.20654E+03  1.63125E+04 -8.02506E+03  1.59551E+04
 -7.80544E+03  3.07607E+03 -7.98512E+03 -5.35555E+03 -1.34536E+02 -2.33176E+03  8.03245E+03 -2.92732E+03
  8.66327E+03  4.96175E+03  3.55913E+03  7.78599E+03 -3.69690E+03  1.42012E+04 -8.89839E+03 -2.09180E+03
 -5.52945E+03 -8.88546E+03  2.27321E+03 -8.61907E+03  6.57238E+03 -1.16963E+03  5.29189E+03  4.19680E+03
  2.60704E+03  9.39204E+03 -6.75991E+03  1.31863E+04 -6.21763E+03  1.94514E+03 -4.54020E+03  1.50382E+03
 -2.75320E+03 -8.62929E+03  5.45058E+02 -8.54615E+03  9.21070E+03 -8.30846E+03  9.70383E+03  2.00196E+03
  5.03354E+03  5.70562E+03 -1.19695E+01  6.98564E+03 -8.86068E+03  7.64458E+03 -3.78784E+03 -9.21182E+01
 -8.50893E+03 -6.30593E+03 -1.25172E+03 -1.14545E+04  2.29529E+03 -4.32683E+03 -3.30195E+02 -3.81676E+03
  1.40770E+03 -7.68934E+02 -2.41071E+03 -5.19165E+02  9.09566E+02  3.37870E+03  7.88537E+02 -4.76432E+03
  1.03332E+04 -3.30901E+03  7.63387E+03  6.64144E+02  1.40457E+04  5.64193E+03  6.63992E+03  1.35696E+04
 -4.92239E+03  1.32377E+04 -1.55733E+04  6.67444E+03 -1.16660E+04  3.78515E+03 -9.64448E+03 -4.65142E+03
 -1.01980E+04 -1.34935E+04  6.63233E+02 -9.52341E+03  2.09460E+03 -2.45661E+03  1.44383E+03 -1.73412E+03
  1.82134E+03 -3.30307E+03  3.33913E+03 -1.18041E+03 -1.89617E+03 -2.21815E+03  1.09058E+04 -2.94407E+03
  5.77187E+03  5.43742E+03  3.15313E+02  1.04257E+03 -2.74682E+03  3.94336E+03 -1.48356E+03  4.82311E+03
 -9.93062E+03 -3.33458E+03 -4.87608E+03 -4.23183E+03  2.32216E+03 -7.54853E+03  1.11518E+04 -1.17881E+04
  1.34800E+04 -6.94702E+03  8.34127E+03  5.04487E+03  6.77272E+03  8.40176E+03 -3.53431E+03  1.05378E+04
  2.45133E+02  9.57981E+02 -8.55155E+03  8.95473E+03 -1.67424E+03  1.91227E+02 -7.43148E+01  2.07718E+03
  4.87687E+03 -1.84156E+03 -5.27048E+03  2.58904E+03 -3.29236E+03 -1.54168E+03 -6.33906E+03  1.34041E+03
 -5.72791E+03 -2.48974E+03  2.84747E+02 -9.20841E+03  2.06546E+03 -5.56214E+03  8.38634E+03 -5.69844E+02
  3.91356E+03  6.20959E+03  5.57659E+03  8.30556E+03 -1.43753E+03  1.01606E+04 -7.47421E+03  2.85794E+03
 -8.01692E+03 -3.79571E+03 -8.52888E+03 -5.67730E+03 -3.11292E+02 -5.86928E+03  2.31075E+03 -7.36809E+03
  5.45488E+03 -2.72295E+03  2.88744E+03 -1.28167E+03  6.09053E+03  6.56525E+03 -9.05610E+02  5.80397E+03
 -3.64792E+02  1.19179E+03  4.26058E+03  3.56584E+03  1.47659E+03  6.08122E+03  6.06088E+03  1.04816E+03
 -3.26202E+03  7.56351E+03 -4.32691E+03  4.98039E+03 -3.78133E+03  2.13725E+03 -7.56405E+03 -6.23780E+02
 -6.87813E+03 -8.32076E+03 -4.64834E+03 -4.92651E+03  4.91000E+03 -6.60148E+03  6.27926E+03 -4.89723E+02
  2.66548E+03 -7.54372E+02  6.01758E+03  2.55792E+03 -4.11930E+03  5.57151E+03 -1.03173E+03 -3.69130E+03
 -2.96852E+03 -4.50544E+03 -3.05169E+03 -7.15960E+03  5.78855E+03 -3.25459E+03  2.30235E+03  1.23800E+03
  3.96344E+03  3.17664E+03 -1.00789E+03 -2.09970E+03 -3.63469E+03  5.44604E+03  8.12025E+03  2.08784E+03
 -3.33548E+03 -1.33135E+03  3.31868E+03 -1.35484E+03  2.87563E+03  5.28972E+03  2.29250E+03  5.67756E+03
 -3.45151E+03 -1.42795E+02  7.06482E+02 -2.85975E+02 -3.72162E+03  2.45731E+03  3.02328E+03 -4.26149E+02
  3.44395E+03 -2.42912E+03 -2.41874E+02 -2.15291E+03 -3.10427E+03  9.19276E+02  1.81109E+03  3.00734E+03
 -7.58009E+02  1.44778E+03 -6.84888E+03  1.40088E+03 -5.27975E+03  2.70045E+02 -2.82114E+03  1.40874E+02
  4.89413E+03  2.60150E+03  6.39756E+02 -2.28723E+03  3.40906E+03 -3.76463E+03 -1.66573E+02  4.22551E+03
  3.69866E+03 -2.43741E+03 -2.74155E+03  6.74697E+02 -6.63351E+03 -5.13842E+03  3.97628E+03 -5.47574E+02
  1.53416E+03  2.92101E+03  6.41525E+03  2.22396E+03  3.26816E+03  3.34070E+03  6.07414E+02  6.43699E+03
 -5.74031E+03  1.08900E+03  9.38073E+02 -1.44185E+03 -3.51692E+03 -1.52672E+03  2.28910E+03 -1.84963E+03
  4.98422E+03 -3.00096E+03  2.67947E+02  1.49799E+03 -3.80062E+03  3.84557E+03 -6.47058E+02  5.27782E+03
 -2.53459E+03  1.29393E+03 -4.99728E+03 -1.75654E+03 -2.51878E+03  2.44957E+03 -1.09904E+03  4.12945E+03
 -2.97093E+03  4.05694E+03 -3.88684E+03 -1.07869E+03 -6.13178E+03  4.97777E+02 -3.66617E+03 -4.38572E+03
  1.39521E+03 -4.90593E+03  2.95587E+03 -7.31458E+03  6.52943E+03 -2.82640E+03  9.51412E+03 -6.48455E+03
  9.39979E+03 -2.70495E+03 -4.29505E+03  1.04810E+04 -2.04367E+02  6.58882E+03  2.74576E+03 -3.30155E+02
 -2.25885E+03  7.21975E+02 -1.13801E+04 -2.62319E+03 -6.81732E+02 -6.65203E+02  4.29043E+02  2.09352E+03
  1.43643E+03  4.74229E+03 -2.01597E+03 -1.15371E+03  8.63880E+02  2.22691E+03  1.08991E+03 -1.47137E+03
  5.16336E+03 -5.19571E+03 -4.53090E+03  1.07834E+03  2.56321E+03  3.55492E+03  2.59996E+03  2.97515E+03
  7.89490E+02  3.69596E+03 -6.69222E+03  9.26768E+02 -2.46139E+03 -1.73769E+03 -4.45958E+03 -3.10594E+03
 -3.47626E+03 -7.49069E+03  1.52752E+03 -3.98642E+03 -1.16523E+03 -2.12284E+03  4.43443E+03  2.37489E+02
  2.83537E+03  1.63745E+03  1.41704E+03  1.70364E+03 -2.18652E+03 -3.59760E+02 -1.15856E+03  4.48137E+03
  6.22272E+02 -1.83615E+03  1.81516E+03  2.03817E+03 -2.16165E+02 -1.91587E+03 -8.70258E+02  4.42453E+03
 -5.67660E+02  2.04677E+03 -4.17333E+03  8.94669E+02 -3.30342E+03  3.38972E+03  5.47470E+02 -2.35496E+03
 -1.38772E+03 -5.20932E+03  3.03959E+03  2.35279E+03  2.49896E+03 -2.32013E+03 -8.87541E+02  4.14009E+03
  4.29368E+03  3.94238E+03 -1.75978E+03  4.08687E+03 -3.45821E+03  2.06155E+03  1.98305E+03  3.07737E+02
  1.23429E+03 -6.40823E+03  5.74939E+03  2.21563E+02 -3.58694E+03 -2.33669E+03 -7.44937E+02  6.66075E+01
 -5.88039E+03  4.45967E+03  5.48100E+02 -4.42489E+03  4.10137E+02 -2.40125E+03  9.33362E+02  1.73258E+03
 -1.50357E+03 -2.50824E+03  6.45066E+01  6.95455E+02 -5.74432E+02  9.77834E+03 -1.14236E+03  2.80033E+03
