 $NMID ID='MM_0lb_SNR50_11hz_g40_54.RAW', FMTDAT='(8E13.5)'
 TRAMP=1., VOLUME=1. $END
  3.06909E+05  3.30922E+03  3.37062E+05  2.53153E+05  8.23953E+04  3.44284E+05 -1.30894E+05  2.49331E+05
 -1.90799E+05  8.53453E+04 -1.15547E+05 -2.99482E+04  2.96925E+03 -5.04344E+04  5.67230E+04 -2.43151E+03
  3.71527E+04  5.30088E+04 -1.90452E+04  7.71767E+04 -6.02066E+04  6.09851E+04 -7.87833E+04  3.05024E+04
 -7.46705E+04 -1.12885E+04 -5.97667E+04 -5.11351E+04 -1.20032E+04 -7.18870E+04  2.92790E+04 -4.56104E+04
  4.07094E+04  2.84889E+03  1.78541E+04  4.89321E+04 -3.17600E+04  4.79862E+04 -6.54367E+04  2.42473E+03
 -5.44058E+04 -5.78455E+04 -5.22541E+03 -7.38471E+04  3.57355E+04 -5.26083E+04  4.33777E+04 -2.16048E+04
  4.58502E+04  1.39864E+04  3.51008E+04  2.66440E+04  1.76786E+04  3.65324E+04 -6.51016E+03  3.02491E+04
 -2.87564E+04  1.66394E+04 -1.95799E+04 -4.62677E+03  2.97466E+03 -9.16661E+03  2.51440E+04  1.13051E+04
  6.09788E+03  3.93234E+04 -3.26846E+04  3.77748E+04 -5.98192E+04  3.61157E+03 -6.04560E+04 -4.24754E+04
 -8.58671E+03 -6.53999E+04  3.90619E+04 -4.71855E+04  6.14703E+04  3.31010E+03  4.05222E+04  2.93154E+04
 -8.69705E+03  3.72369E+04 -3.03611E+04  1.39552E+04 -3.33043E+04 -5.47533E+03 -1.54219E+04 -9.89807E+03
 -8.13295E+03 -1.15240E+04 -4.00624E+03 -2.03536E+04  1.04338E+04 -2.63952E+04  1.31200E+04 -1.68860E+04
  1.44405E+04  6.62315E+03 -1.46782E+04  1.57420E+04 -2.29755E+04 -1.27787E+04 -1.28440E+04 -4.14195E+04
  2.11737E+04 -4.67904E+04  4.50990E+04 -2.23934E+04  4.56813E+04  1.74349E+04  1.52387E+04  4.65563E+04
 -1.71741E+04  2.98721E+04 -2.93102E+04 -3.88926E+03 -8.78569E+03 -2.58321E+04  1.81540E+04 -3.62217E+04
  3.64170E+04 -4.87608E+03  3.60037E+04  2.73387E+04  1.43734E+04  5.06313E+04 -9.02940E+03  5.09883E+04
 -3.72536E+04  3.90027E+04 -3.95386E+04  1.09729E+04 -4.45853E+04 -1.67341E+04 -2.32882E+04 -3.58106E+04
  7.83583E+03 -4.14066E+04  2.87537E+04 -1.60179E+04  2.45383E+04  1.12090E+04  1.62973E+03  2.05533E+04
 -1.79021E+04  6.32805E+03 -1.72590E+04 -6.54315E+03  6.34276E+03 -5.18509E+03  2.19978E+04  6.88438E+03
  1.38666E+04  2.18627E+04 -3.55380E+03  2.50105E+04 -2.60434E+04  1.57014E+04 -2.96094E+04  3.58858E+02
 -2.71624E+04 -1.61068E+04 -1.26659E+04 -2.64466E+04  3.52655E+03 -2.07231E+04  1.73931E+04 -2.44765E+04
  3.07378E+04 -1.06185E+04  2.92083E+04  5.98186E+03  2.06359E+04  2.41604E+04  7.89237E+03  4.17772E+04
 -2.17623E+04  3.13479E+04 -2.67709E+04  1.23979E+04 -1.71732E+04 -7.77321E+03 -5.21101E+03 -1.29832E+04
  2.45512E+03 -3.55511E+03 -1.26089E+04  1.17958E+04 -1.81405E+04  5.33383E+03 -2.26639E+04 -8.84267E+03
 -1.30978E+04 -1.91428E+04  1.15689E+04 -2.71562E+04  1.95342E+04 -1.73003E+04  1.83243E+04 -3.98963E+03
  1.40919E+04  1.07090E+04 -4.03335E+03  1.82279E+04 -1.90623E+04  5.99562E+03 -2.34589E+04 -4.88624E+03
 -1.06333E+04 -1.66719E+04 -8.84978E+03 -2.68300E+04  8.06132E+03 -2.36700E+04  2.16188E+04 -5.69587E+03
  1.94436E+04 -9.67924E+02  1.35591E+04  6.77907E+03  6.82430E+03 -4.48622E+02  1.10398E+04 -1.65873E+03
  1.66406E+04  7.26744E+02  2.00851E+04  1.38422E+04  1.27898E+04  3.38550E+04 -3.39514E+03  3.71715E+04
 -2.69953E+04  3.71224E+04 -4.07091E+04  9.54340E+03 -3.29262E+04 -3.10569E+03 -2.87780E+04 -2.19808E+04
 -9.92680E+03 -3.42930E+04  9.23901E+03 -2.53341E+04  1.93182E+04 -9.91740E+03  2.69592E+04  7.62013E+03
  7.47926E+03  1.39953E+04 -1.17656E+04  1.24972E+04 -2.60125E+04  2.47782E+03 -1.05778E+04 -6.53287E+03
 -4.38182E+03 -1.96846E+04  1.10020E+04 -1.59537E+04  6.47489E+03 -3.90218E+03  2.15631E+03  1.43813E+04
 -9.31266E+03  8.42317E+02 -6.40684E+03 -5.87128E+03 -5.47777E+03 -1.73331E+04  1.41404E+04 -1.77994E+04
  1.60489E+04 -1.25067E+04  2.28328E+04  8.58588E+03  2.15519E+04  1.61207E+04  1.31991E+04  2.73673E+04
 -5.75870E+03  2.34501E+04 -1.63815E+04  1.62591E+04 -1.65422E+04  5.73187E+03 -1.50435E+04 -6.96343E+03
 -1.45166E+04 -2.62452E+03 -1.93738E+03 -4.66331E+03 -5.22517E+02  1.57807E+03 -2.86934E+03  6.66291E+03
 -1.70835E+04  2.79091E+03 -1.25580E+04 -4.83555E+03 -1.28835E+04 -1.51612E+04  7.40191E+03 -1.42889E+04
  7.90238E+03 -3.37302E+03  9.57674E+03  2.17393E+03  1.16096E+03  5.71686E+03 -1.19281E+04 -5.49919E+03
 -7.96650E+03 -9.04553E+03 -2.88107E+03 -1.60600E+04  5.03115E+03 -8.28810E+03  1.47145E+04 -4.99260E+03
  2.28731E+04  5.68967E+03  1.43025E+04  9.58097E+03  5.14513E+02  1.54457E+04 -3.39141E+03  1.35572E+04
 -1.16574E+04  6.28573E+01 -1.26582E+03  5.03661E+03  4.20188E+03 -1.77865E+03  5.95061E+03  1.42458E+03
  7.54585E+03  4.61934E+03 -1.33977E+03  8.10554E+03 -6.43816E+03  6.29353E+03 -1.62400E+04  2.69826E+03
 -7.96196E+03 -8.39376E+03  5.56240E+03 -7.67201E+03  9.63847E+03 -8.43970E+03  3.84697E+03  7.75383E+02
  4.84051E+03  1.03022E+04 -1.08929E+04  1.20621E+04 -1.17100E+04  6.70426E+03 -1.02964E+04 -7.61931E+03
 -9.25988E+03 -9.57503E+03  1.66284E+03 -1.79717E+04  1.20535E+04 -1.03116E+04  1.48184E+04  3.63738E+03
  1.12258E+04  9.77801E+03  6.99399E+02  1.50954E+04 -7.43689E+03  8.19307E+03 -8.61755E+03 -2.82422E+03
 -8.65186E+03  8.26858E+02 -4.68411E+01 -1.58301E+04  4.06703E+03 -4.80428E+03  1.29709E+04 -5.97024E+03
  5.40972E+03 -2.32622E+03 -5.10010E+03  1.94052E+03 -4.81422E+03 -1.63980E+03  4.41863E+03 -7.81462E+03
  8.35749E+03 -4.82757E+03  1.94745E+04 -1.68039E+03  1.53121E+04  1.10745E+04  1.33926E+04  1.22062E+04
 -1.16938E+03  1.63722E+04 -1.54838E+04  7.95356E+03 -1.86011E+04  3.19201E+03 -1.17242E+04 -6.33094E+03
 -3.63774E+03 -1.02251E+04 -2.54581E+03 -1.03204E+04  4.48450E+03 -1.02516E+04  5.44847E+03 -3.12006E+03
  6.96773E+03 -2.97549E+03  3.82668E+03 -4.15604E+02  5.14195E+03 -4.77619E+03  1.11333E+03 -6.24278E+03
  8.29316E+03  1.14077E+03  3.32381E+02  5.44327E+03 -4.45629E+03  8.42463E+03 -9.77146E+03  5.12708E+03
 -9.05038E+03 -6.91458E+03 -6.77259E+03 -1.15869E+04 -2.06696E+03 -8.32070E+03  1.03163E+04 -1.08910E+04
  1.15886E+04 -6.09287E+03  1.42416E+04  5.62107E+03  1.34624E+04  1.04315E+04  8.57405E+01  1.69015E+04
 -2.40704E+03  1.39796E+04 -1.31078E+04  4.84233E+03 -7.63792E+03  1.72988E+03 -5.18337E+03  5.81380E+02
  1.88071E+03  2.69556E+03 -1.04025E+03  8.01129E+03 -5.56272E+03  5.28854E+03 -3.08705E+03  1.31350E+03
 -1.38731E+03 -4.69256E+03 -1.24163E+02 -1.07467E+04  4.02425E+03 -1.29234E+04  1.30710E+04 -2.33585E+03
  1.42075E+04  8.55734E+03  2.59176E+02  1.14140E+04 -6.00462E+03  1.50892E+04 -6.84632E+03  9.36733E+03
 -8.87990E+03  3.60863E+02 -1.14258E+04 -8.37454E+02  4.54215E+03 -9.65366E+03  3.69727E+03 -5.13435E+03
  1.24385E+04 -9.19385E+03  6.26927E+03  1.30561E+03  1.69616E+03  2.85654E+03  8.42208E+02  2.70462E+03
  1.37389E+03 -3.48142E+03  2.88497E+03  5.87376E+03  4.55860E+03  3.43967E+03  3.31398E+02  2.43177E+03
  1.67663E+03  8.80009E+03 -8.00596E+03  9.29709E+03 -1.26760E+04 -9.76408E+02 -1.17640E+04 -4.94132E+03
 -7.99038E+03 -1.05365E+04 -1.17774E+03 -1.36306E+04  4.37704E+03 -7.76553E+03  1.19121E+04 -5.73356E+03
  8.99891E+03  6.06896E+03 -1.06869E+03  5.71692E+03 -2.63257E+03  2.42256E+03 -2.75568E+03 -4.19941E+03
 -3.58410E+03 -6.15243E+03  3.39136E+03 -4.14272E+03  3.41196E+03 -7.64338E+03  2.52001E+03 -1.14413E+02
  8.99047E+03  6.10426E+03 -3.64694E+03  2.56959E+03 -4.22043E+03  4.78361E+03  4.07551E+03  2.82736E+03
  2.84841E+03 -2.40076E+02 -1.95612E+03  1.97355E+03  5.75564E+01  3.60930E+03  1.99330E+03  5.21507E+03
 -9.50486E+03  3.27426E+03 -5.55450E+03 -1.89850E+03 -5.20449E+03 -4.75629E+02 -1.47461E+03 -3.95715E+03
  1.88669E+03 -7.16500E+03  5.83668E+03 -1.58512E+03  1.70554E+03  6.86581E+03 -1.51290E+03  5.32688E+03
 -1.04741E+02  1.54196E+03 -2.91687E+03 -4.28171E+03  1.28852E+03 -5.27538E+03  5.25763E+03 -6.78189E+03
  3.10352E+03 -4.37782E+03  6.45793E+03 -1.48578E+03 -4.61488E+03  2.34446E+03  3.45252E+03 -4.62573E+02
 -3.27933E+03 -1.79454E+03 -3.51723E+03 -4.37228E+03  7.00244E+03 -1.93607E+03  6.91048E+03 -4.89513E+03
  7.27399E+03  1.51969E+03  1.15209E+04  1.05931E+04  5.70772E+01  2.77632E+03 -1.09605E+03  1.84899E+02
 -9.12256E+03  3.86187E+03 -4.27283E+03 -4.69808E+03 -1.09526E+02 -5.48376E+03  1.86510E+02 -8.43018E+03
  5.79613E+03 -4.25695E+03 -2.38992E+02  1.67881E+03 -2.30994E+03  4.94437E+03  2.75365E+03 -9.24002E+02
  5.04348E+02  5.71258E+03  3.04752E+03  2.35209E+03  3.53347E+03  2.72105E+03 -1.93729E+03  5.14316E+03
 -3.04717E+03  5.43176E+03 -3.16631E+03  2.61445E+03 -3.70014E+03 -1.17840E+03 -6.97226E+03 -6.59445E+03
  5.52264E+02 -1.47580E+04  1.19625E+03 -1.53773E+04  6.59598E+03 -6.21444E+03  8.68912E+03 -3.63585E+03
  9.46149E+03  2.52118E+03  8.10588E+03  1.01957E+04 -4.62308E+03  6.50072E+03 -5.53732E+03  4.83071E+03
 -5.11793E+03  2.56302E+03  1.24812E+03 -4.62645E+02 -2.79360E+03 -3.78214E+03 -4.20261E+03 -3.09600E+03
 -3.78984E+03  1.35486E+03  5.84490E+02 -1.03211E+03  5.66524E+03 -6.07430E+02 -4.66374E+03 -1.08875E+03
  3.60233E+03 -4.12723E+03  7.11968E+03 -2.70545E+03  3.45253E+03  6.48672E+03 -7.05851E+02  5.08637E+03
 -2.59881E+03  7.72002E+03 -5.73813E+03  5.24705E+03 -4.96725E+03  2.69657E+03 -6.15470E+03 -6.83586E+02
 -2.54777E+03 -4.56059E+03  4.39943E+02 -6.78047E+03  6.76153E+03 -1.09657E+03  1.66995E+03 -3.70739E+03
  5.14547E+03  3.40918E+03 -1.39446E+03  1.21413E+03 -3.57500E+03  1.47032E+03  2.71748E+02 -6.06649E+03
  1.24045E+03  1.89053E+03  2.65096E+03 -9.95683E+02  1.78483E+03  1.64844E+01 -3.72190E+03  3.63422E+03
 -3.38832E+03 -7.94821E+02 -2.35616E+03 -3.12124E+03 -7.99172E+03 -4.88000E+03 -2.22477E+03 -2.89080E+03
  7.87713E+03 -2.61944E+03  5.24472E+03 -2.31593E+03  5.36327E+03  4.86329E+03  4.57913E+02  2.19066E+03
  4.72141E+03  1.02743E+04 -6.45254E+03 -1.20046E+03 -8.57126E+02  5.07004E+03 -2.33360E+03 -4.80239E+03
 -5.02170E+03  3.11579E+03 -1.63611E+03  2.95846E+03 -2.71033E+03 -5.37244E+02 -2.41697E+03  1.09313E+03
  8.49031E+01  3.37266E+03 -2.86111E+03  1.63254E+03  7.52737E+02 -7.25849E+03  3.30546E+03 -9.38252E+03
 -1.81152E+03  2.20076E+03 -1.27689E+03  2.29694E+02  5.01849E+03  2.20739E+03  1.24481E+03  5.87382E+03
