 $NMID ID='MM_0lb_SNR50_19hz_g55_77.RAW', FMTDAT='(8E13.5)'
 TRAMP=1., VOLUME=1. $END
  3.10126E+05 -2.93619E+03  3.33245E+05  2.50619E+05  8.15123E+04  3.35428E+05 -1.32074E+05  2.51358E+05
 -1.88826E+05  8.27509E+04 -1.11111E+05 -3.21058E+04  8.40348E+02 -5.13215E+04  4.95221E+04  1.29000E+02
  3.51833E+04  5.30774E+04 -1.83101E+04  7.81413E+04 -5.89374E+04  6.00192E+04 -8.81306E+04  2.90788E+04
 -8.14999E+04 -1.31508E+04 -5.70743E+04 -5.19270E+04 -1.27498E+04 -6.80557E+04  2.89297E+04 -4.50460E+04
  4.06554E+04  4.30534E+03  1.57619E+04  4.36961E+04 -3.47784E+04  4.22276E+04 -6.52092E+04  2.79124E+03
 -5.29261E+04 -5.51590E+04 -6.36454E+03 -7.71781E+04  3.23775E+04 -5.37572E+04  4.78350E+04 -1.36052E+04
  4.26062E+04  9.62105E+03  3.29427E+04  2.45053E+04  1.80676E+04  3.04240E+04 -4.24804E+03  2.57300E+04
 -2.04636E+04  1.34340E+04 -1.83766E+04 -2.49276E+03  7.34480E+03 -9.47490E+03  2.33493E+04  1.29781E+04
  6.82012E+03  3.28583E+04 -2.85931E+04  3.22299E+04 -6.26565E+04  2.71399E+03 -5.73729E+04 -3.88252E+04
 -7.35754E+03 -5.97101E+04  4.11588E+04 -4.51104E+04  5.58096E+04 -2.23943E+03  2.92186E+04  3.21003E+04
 -4.19906E+03  3.44832E+04 -3.23642E+04  1.29422E+04 -3.04080E+04 -7.51924E+03 -1.31867E+04 -1.17807E+04
 -5.69008E+03 -9.47148E+03 -2.29890E+03 -1.78611E+04  4.91627E+03 -2.22889E+04  1.77607E+04 -1.33531E+04
  1.12623E+04  4.53236E+03 -7.25650E+03  1.50093E+04 -1.99903E+04 -2.23315E+03 -5.09336E+03 -2.97012E+04
  2.36611E+04 -4.06204E+04  4.21063E+04 -1.89860E+04  4.27837E+04  2.17752E+04  8.89452E+03  4.21548E+04
 -1.79416E+04  2.42957E+04 -2.58918E+04  1.18262E+03 -7.68085E+03 -2.67207E+04  2.27502E+04 -3.18161E+04
  4.22633E+04 -6.93008E+03  3.16652E+04  2.02678E+04  1.26494E+04  4.51532E+04 -8.79400E+03  4.53851E+04
 -2.48912E+04  3.34409E+04 -4.10539E+04  4.60057E+03 -4.07497E+04 -1.60547E+04 -2.02638E+04 -3.31175E+04
  7.05282E+03 -3.58415E+04  2.85767E+04 -1.27461E+04  2.42818E+04  1.38809E+04  1.80973E+03  2.31166E+04
 -1.47785E+04  5.72475E+03 -6.53258E+03 -8.49698E+03  8.26034E+03 -7.97341E+03  1.53307E+04  7.27972E+03
  1.36963E+04  1.94527E+04 -3.49617E+03  2.29222E+04 -1.79810E+04  9.12553E+03 -2.60013E+04 -1.09901E+04
 -2.03686E+04 -1.96466E+04 -7.38700E+03 -2.32591E+04  1.42862E+03 -1.50446E+04  1.01266E+04 -1.54736E+04
  2.10478E+04 -1.35612E+04  2.38525E+04  4.74869E+03  2.16590E+04  1.80692E+04  3.95749E+03  3.28101E+04
 -1.93925E+04  2.37595E+04 -2.35392E+04  6.09438E+03 -2.19896E+04 -1.58394E+04 -2.07001E+03 -1.35498E+04
  7.13694E+03 -2.41900E+03 -7.56133E+03  2.30213E+03 -1.23771E+04  2.58105E+03 -1.61543E+04 -7.42059E+03
 -1.19149E+04 -1.54659E+04  4.62059E+03 -2.27216E+04  1.04513E+04 -1.80930E+04  1.38531E+04 -9.16631E+02
  9.49404E+03  1.09206E+04 -1.40879E+03  1.23036E+04 -9.47604E+03  1.11628E+04 -1.84360E+04 -7.16031E+03
 -1.23362E+04 -1.43527E+04 -1.72527E+03 -1.81864E+04  1.09950E+04 -1.53679E+04  1.80399E+04 -8.76311E+03
  1.24428E+04  1.42498E+03  1.11107E+04  2.41309E+03  6.55729E+03 -2.04788E+03  3.33186E+03 -7.86765E+02
  1.40448E+04  8.43397E+02  1.48161E+04  1.44413E+04  8.13714E+03  2.54713E+04 -3.63069E+03  2.61330E+04
 -1.75753E+04  2.28472E+04 -2.88937E+04  1.17591E+04 -2.55372E+04 -3.91814E+03 -2.19113E+04 -2.02768E+04
 -9.64322E+03 -2.25629E+04  7.46693E+03 -1.88589E+04  1.97015E+04 -1.01551E+04  1.89129E+04  8.57000E+03
  5.05003E+03  1.82075E+04 -3.86908E+03  1.02868E+04 -1.61180E+04  1.51469E+03 -9.07455E+03 -9.20232E+03
 -2.13644E+03 -9.84636E+03  8.37790E+03 -9.97327E+03  8.50139E+03 -2.94292E+03  1.31754E+03  9.88266E+03
 -2.31711E+03  8.49485E+02 -4.37188E+03 -3.61377E+03  2.30184E+03 -1.22029E+04  7.85009E+03 -1.08912E+04
  1.18186E+04 -4.71197E+03  1.04394E+04  1.48220E+03  1.34081E+04  1.08174E+04  4.65451E+03  1.53598E+04
  1.21361E+03  1.71840E+04 -9.83973E+03  9.12800E+03 -1.22138E+04  2.64821E+03 -5.45182E+03 -2.16065E+03
 -5.74416E+03 -6.29103E+03 -7.43926E+02 -1.48619E+03 -5.22627E+03  2.38450E+03 -3.41208E+03  4.36051E+03
 -9.55199E+03  2.91131E+02 -7.61990E+03 -5.41548E+03 -4.15148E+03 -1.47285E+04  3.42250E+03 -8.13116E+03
  6.57783E+03 -4.30929E+03  2.85314E+03  3.86818E+03  5.39241E+02  6.60317E+03 -3.96024E+03  3.79231E+03
 -2.58943E+03 -4.21921E+03  1.16739E+03 -5.02170E+03  7.25843E+03 -6.78599E+03  1.49417E+04 -6.85090E+02
  1.44124E+04  1.23974E+01  7.32238E+03  4.76805E+03  1.07985E+03  1.05224E+04 -6.34637E+03  1.15411E+04
 -5.26116E+03  1.01290E+03 -3.26786E+03  7.95357E+02  1.69335E+03 -8.36458E+02  8.19594E+02  1.40994E+03
  3.46813E+03  5.09551E+03 -2.62075E+01  6.54706E+03 -2.26506E+03  1.68323E+03 -1.08675E+04  2.03387E+03
 -2.13615E+03 -2.66073E+03 -2.03680E+03 -9.04926E+03  7.01600E+03 -7.58599E+03  6.50910E+03  7.45303E+02
 -5.81931E+02 -1.65542E+03 -7.35007E+03  6.82061E+03 -5.90200E+03  6.01049E+03 -7.19166E+03  2.07787E+03
 -6.24340E+03 -6.46438E+03  1.37009E+03 -5.42807E+03  6.41705E+03 -6.64216E+03  8.63068E+03 -4.61723E+02
  2.91396E+03  4.84130E+03  1.34520E+03  4.60764E+03 -8.71515E+02  1.39249E+03 -2.34594E+03  1.15552E+03
 -6.59221E+03 -2.75761E+03  1.89508E+03 -6.33405E+03  6.18527E+03 -2.42118E+03  2.61691E+03  5.34318E+02
  1.63990E+03 -4.52403E+03 -4.60561E+02  2.99795E+03 -2.62789E+01  2.79722E+03  2.89224E+03 -4.43222E+03
  5.59618E+03 -4.21281E+03  1.06690E+04  4.13645E+03 -4.07522E+02  3.90832E+03  2.31422E+03  4.95554E+03
 -1.75012E+03  8.31601E+03 -1.00909E+04  6.63595E+03 -1.27490E+04  3.90611E+03 -4.55860E+03 -5.62066E+03
 -4.63772E+03 -1.10617E+04  9.51792E+02 -7.57660E+03  3.25630E+03 -1.66141E+03  2.44043E+03 -1.33247E+03
  7.74062E+02 -2.47777E+03  1.29158E+02 -9.88963E+02 -1.85041E+03 -2.53583E+03  2.30676E+03  3.77325E+03
  6.00411E+03 -4.07877E+02 -2.84610E+03  1.44237E+03 -4.26170E+02  7.68041E+01 -5.93080E+03  5.75952E+03
 -6.10531E+03  4.61922E+02 -2.88537E+03 -9.59394E+03  4.10571E+03 -3.92700E+03 -3.01351E+02 -5.01970E+03
  2.35885E+03 -5.23827E+03  4.12322E+03 -2.74158E+03  5.26598E+03  2.14283E+03  3.57680E+03  6.85724E+03
 -2.76915E+02  3.04245E+03 -1.84116E+03  4.24778E+03  1.56279E+03 -3.07719E+02 -5.00820E+02 -2.52718E+02
  1.69362E+03  7.87718E+02  2.38317E+03  4.03073E+03 -4.08440E+03  2.65515E+03 -3.75628E+03 -8.59334E+02
 -1.17976E+03 -4.63899E+03  7.85511E+02 -3.84161E+03  3.92649E+03 -6.18814E+03  6.69734E+03  2.97389E+03
  4.01134E+03  2.03725E+02  2.47655E+03  4.42306E+03 -1.82584E+03 -4.15254E+02 -1.57176E+03  3.60203E+03
 -2.58069E+03 -5.05629E+02  2.89014E+02 -2.52553E+03  1.28224E+03 -1.81393E+03  3.59497E+03 -4.74136E+03
  1.05178E+03 -2.69986E+03  3.16898E+03  1.25185E+03 -2.22094E+02 -1.04635E+02 -3.18463E+03 -4.45339E+02
 -1.24632E+03 -4.45042E+03  4.26561E+03 -4.43759E+03  3.95117E+03 -8.74425E+02 -3.66820E+03  4.51309E+03
 -7.90527E+03  2.27211E+03  1.21358E+02  4.83661E+03 -3.71778E+03  3.50032E+02 -6.24805E+03 -1.32394E+03
 -4.08334E+03 -1.66686E+03  2.38226E+03 -3.40921E+03  8.50347E+03  2.94443E+02  4.59461E+03 -5.66445E+02
 -9.90782E+02 -1.36241E+03  1.32702E+03  9.12972E+02 -5.10652E+02  2.55490E+03  1.06597E+03 -9.89588E+02
 -3.28773E+03 -4.73236E+03  1.57497E+03 -4.28923E+03  2.82491E+03 -1.39343E+03  3.20153E+03 -1.31911E+03
 -1.51517E+03 -1.51207E+03  1.54796E+03  2.95647E+03  2.73078E+02  4.57986E+03  2.48301E+03 -2.12957E+03
  4.63582E+03 -1.67546E+03 -7.09124E+01 -1.46626E+03 -4.43523E+02  1.46178E+03 -1.26797E+03  1.97868E+03
 -1.32266E+03  4.19296E+03 -3.16236E+03  3.26970E+03 -6.08494E+03 -1.15957E+03  1.92807E+03 -4.27317E+02
  2.42133E+03  3.27210E+02 -1.04385E+03 -3.58658E+03  1.72485E+03  6.81718E+02  2.49882E+03 -5.75078E+02
 -5.14206E+03  3.74617E+03 -8.75112E+02 -2.07632E+03  6.42468E+02  2.59952E+03  2.23535E+03 -1.11730E+02
 -2.73600E+02 -1.72653E+03  1.03737E+03 -1.28011E+03  3.83611E+01 -4.92530E+03 -1.11684E+03 -3.84770E+02
 -3.20862E+03  1.25108E+03 -1.86195E+03 -1.72950E+03 -1.62180E+03 -2.70411E+03  2.40192E+03  9.06191E+02
  2.39108E+03 -3.44497E+02  2.76232E+03 -1.61286E+03  2.11880E+03  5.95452E+03 -9.96917E+02  1.11891E+03
 -2.13390E+03 -3.78097E+02 -2.32780E+03 -2.28201E+03  1.20890E+03  4.51607E+02  4.49105E+03  1.56068E+03
  4.27140E+02 -8.52433E+03 -2.78754E+03  1.69341E+03 -4.54559E+03  3.32218E+02  1.36432E+03  2.45237E+03
  2.64548E+03  3.16918E+03  4.43306E+02  4.08705E+03  2.46601E+02  7.68337E+02  3.78355E+03  2.70023E+02
  2.20753E+03  4.08653E+01 -3.52415E+03  6.60940E+01 -2.03784E+03  2.85025E+03 -5.33249E+03 -4.19381E+03
 -7.35264E+02 -2.16862E+03  1.79327E+03 -2.08823E+03  1.28053E+03 -2.44495E+03  3.38595E+03 -2.45636E+03
  3.70226E+03  1.60503E+03 -5.88845E+02  3.96758E+03  1.54360E+02  2.05615E+03  2.67022E+03 -6.45600E+02
  1.50046E+03  4.06956E+03  3.61848E+03 -1.40933E+03 -7.79597E+01  2.66738E+03 -2.32901E+03 -1.27530E+03
  1.05851E+03 -3.16713E+03 -1.74137E+03  2.34943E+02 -3.40021E+03  1.93173E+03 -4.97410E+02  2.59864E+02
  3.26349E+03  2.48968E+03 -2.41458E+02 -3.21226E+03 -2.99885E+03  4.61579E+03 -5.73160E+03  2.08001E+03
 -2.38724E+03  3.48342E+03 -7.81653E+02 -7.21283E+02  5.08802E+03  2.86721E+03  9.75446E+02 -5.33406E+02
 -4.26221E+03 -1.05432E+03 -1.81506E+03  7.62456E+02  1.93415E+03 -8.05318E+03  5.00140E+03  3.95658E+03
  1.40030E+03 -1.47820E+03 -2.41978E+03  2.29203E+02  3.01262E+03  4.63386E+03  3.53731E+03 -1.19773E+03
 -5.84382E+02 -2.90404E+03 -1.22078E+03  1.53419E+03  2.42845E+03  4.32134E+03  2.97468E+03 -8.94217E+02
  2.24562E+03  3.74882E+03 -7.93944E+02 -1.73127E+03 -5.72277E+02 -2.23467E+03  8.50718E+02 -2.02684E+03
 -1.24288E+02 -2.16001E+03  3.06499E+02  3.65616E+03 -1.94937E+03 -3.34024E+03  1.46900E+03 -1.42863E+03
  7.77174E+02  2.83007E+02  2.23050E+03  1.05401E+03  2.82009E+03  3.54424E+03 -2.90863E+03 -6.49330E+02
 -3.97784E+03 -4.23978E+02 -1.67595E+03 -1.14929E+03 -5.06831E+02  2.78865E+02  2.20358E+03  1.03030E+03
  2.91496E+03  2.89783E+03  2.77451E+03 -1.75919E+03  4.01924E+03 -4.22044E+03 -5.94585E+02 -1.26262E+03
  1.07269E+03  2.20381E+03  3.05240E+03 -2.23258E+03  1.87058E+03  3.81713E+03  2.21582E+03  1.45846E+03
