 $NMID ID='MM_0lb_SNR50_19hz_g55_39.RAW', FMTDAT='(8E13.5)'
 TRAMP=1., VOLUME=1. $END
  3.07491E+05 -1.60739E+01  3.38194E+05  2.51409E+05  8.45799E+04  3.40543E+05 -1.30804E+05  2.52448E+05
 -1.83697E+05  8.51508E+04 -1.11040E+05 -3.47162E+04  2.97946E+03 -5.13940E+04  5.44522E+04 -3.08567E+03
  3.36365E+04  5.31188E+04 -1.63511E+04  7.71259E+04 -5.89368E+04  6.31190E+04 -8.18964E+04  3.24367E+04
 -7.99924E+04 -1.02913E+04 -5.58931E+04 -4.64841E+04 -1.12639E+04 -6.84173E+04  2.28708E+04 -4.76769E+04
  3.81961E+04  4.03437E+03  1.53144E+04  4.41038E+04 -3.09951E+04  5.03872E+04 -6.73001E+04 -4.42045E+01
 -5.06624E+04 -5.66558E+04 -5.48417E+03 -7.47455E+04  3.26263E+04 -5.22640E+04  4.74192E+04 -1.46220E+04
  4.20124E+04  9.53020E+03  2.80367E+04  2.18653E+04  1.54479E+04  2.88357E+04 -1.00045E+04  2.78369E+04
 -2.06843E+04  1.40716E+04 -1.64014E+04 -5.11996E+03  4.19712E+03 -8.57738E+03  1.61055E+04  1.38591E+04
  2.52606E+03  3.13619E+04 -2.87447E+04  3.71705E+04 -6.15233E+04 -7.26803E+02 -5.59576E+04 -3.69513E+04
 -1.49418E+04 -6.31569E+04  3.88780E+04 -4.60622E+04  5.75890E+04 -3.62404E+03  3.44028E+04  3.74010E+04
 -6.67139E+03  3.48693E+04 -2.59047E+04  1.71897E+04 -3.31318E+04 -3.77360E+03 -1.98171E+04 -3.91975E+03
 -1.04579E+04 -1.74414E+04 -5.76734E+01 -1.51839E+04  7.71909E+03 -2.09519E+04  1.35176E+04 -1.54490E+04
  1.09881E+04  8.17611E+03 -8.29037E+03  1.54650E+04 -2.04968E+04  2.33533E+02 -5.48292E+03 -3.12579E+04
  1.89026E+04 -3.98272E+04  4.63378E+04 -1.51216E+04  4.02330E+04  2.23783E+04  1.39504E+04  4.28388E+04
 -1.26091E+04  3.42538E+04 -2.65058E+04  1.14457E+03 -7.12197E+03 -2.21090E+04  2.13890E+04 -3.05269E+04
  3.97800E+04 -7.80936E+03  3.40705E+04  1.86437E+04  1.51405E+04  4.70509E+04 -7.59744E+03  5.08167E+04
 -2.68808E+04  2.95026E+04 -3.87919E+04  9.52142E+03 -4.22490E+04 -1.50608E+04 -1.81786E+04 -3.51612E+04
  7.34425E+03 -3.66258E+04  2.72560E+04 -1.19772E+04  2.68624E+04  7.43348E+03  1.22041E+03  1.27781E+04
 -1.47767E+04  8.38562E+03 -6.74848E+03 -1.16895E+04  1.13830E+04 -9.38770E+03  1.68163E+04  6.95811E+03
  1.07333E+04  2.36388E+04 -7.65201E+03  2.56399E+04 -2.39215E+04  9.31665E+03 -2.82153E+04 -5.74534E+03
 -1.51284E+04 -1.12431E+04 -3.91504E+03 -1.51276E+04  3.91970E+03 -1.60927E+04  1.12408E+04 -1.27468E+04
  2.03449E+04 -1.70529E+04  2.87857E+04  1.06541E+03  2.31822E+04  2.10871E+04  5.47847E+03  3.25113E+04
 -1.58292E+04  3.33365E+04 -2.66854E+04  7.12776E+03 -1.89042E+04 -1.04370E+04 -2.10466E+02 -1.19422E+04
  2.69352E+03 -1.53766E+03 -2.30520E+03  5.42940E+03 -1.71784E+04  1.16744E+04 -1.41290E+04 -7.21375E+03
 -6.08198E+03 -1.32279E+04  6.67734E+03 -2.26504E+04  1.52593E+04 -1.48674E+04  1.57997E+04 -1.54941E+03
  4.44649E+03  1.19113E+04 -4.52694E+03  1.62050E+04 -1.29050E+04  7.30728E+03 -1.68188E+04  1.11944E+02
 -1.24257E+04 -1.68757E+04 -2.63727E+03 -2.01991E+04  7.62821E+03 -1.35835E+04  2.19783E+04 -7.87436E+03
  1.39289E+04  4.31039E+03  1.03630E+04  3.36034E+03  3.37129E+03  2.20711E+03  6.32253E+03 -3.63106E+03
  8.72526E+03  5.75202E+03  1.55544E+04  1.27690E+04  9.54705E+03  3.00544E+04 -1.00864E+03  3.11544E+04
 -1.70670E+04  2.13629E+04 -2.65902E+04  1.37270E+04 -2.76780E+04  9.90180E+02 -2.03679E+04 -1.26777E+04
 -9.65202E+03 -1.97765E+04  7.93386E+03 -2.10570E+04  1.78459E+04 -1.47495E+04  1.77699E+04  6.30754E+03
  5.70704E+03  1.15544E+04 -5.13633E+03  1.04186E+04 -1.10607E+04 -3.80367E+03 -1.08266E+04 -8.43396E+03
 -2.17080E+03 -1.43306E+04  5.24829E+03 -1.26587E+04  9.61821E+03  1.48936E+03  1.13344E+03  1.10781E+03
 -4.48645E+03  1.08070E+03 -1.82055E+03 -8.43098E+02  1.56437E+03 -8.60848E+03  6.13514E+03 -1.62743E+04
  1.03964E+04 -4.84774E+03  9.92350E+03  5.63127E+01  4.68897E+03  8.75181E+03  1.02858E+04  1.71204E+04
  3.22309E+02  1.68462E+04 -1.04488E+04  1.42180E+04 -1.49907E+04  5.00005E+03 -8.99743E+03 -5.14331E+03
 -4.87832E+03 -3.91757E+03 -3.45851E+03  5.89331E+03 -3.98370E+03  1.41265E+03 -9.27837E+02  5.20676E+03
 -8.99835E+03  9.94859E+02 -8.59861E+03 -9.28425E+03 -1.46522E+03 -1.26229E+04  6.64539E+03 -9.20168E+03
  6.82541E+03 -3.15928E+03  6.67073E+03 -1.09744E+03 -5.54896E+02  5.01995E+03 -7.00487E+03  1.40056E+03
 -1.20506E+03 -2.25958E+03  2.32728E+03 -4.99054E+03  6.82339E+03 -8.31125E+03  9.81689E+03  1.14060E+03
  1.15325E+04 -3.67559E+02  8.81442E+03  5.09365E+03  1.63270E+03  1.15020E+04 -3.22030E+03  8.59697E+03
 -3.81260E+03  3.19641E+03 -5.94013E+03 -1.52959E+03  5.12335E+02  5.62748E+02 -6.41316E+02  2.31667E+03
  3.53604E+03  2.37597E+02 -2.76572E+02  4.98776E+03 -5.79793E+02  4.83262E+03 -6.42179E+03  5.00483E+03
 -3.81508E+03 -2.82730E+03 -1.41795E+02 -6.89017E+03  1.26933E+03 -8.33154E+03  1.43504E+03  2.60973E+03
  6.07273E+02  5.37323E+03 -2.89373E+03  5.48027E+03 -4.63003E+03  1.35019E+03 -2.83673E+03 -5.21040E+02
  4.77262E+02 -4.77056E+03 -3.21989E+03 -7.78933E+03  7.00088E+03 -6.37405E+03  3.76322E+03 -2.62039E+03
  5.22038E+03  3.36130E+03 -1.83173E+02  7.12852E+03 -5.60067E+03  3.01913E+03 -5.83787E+03  1.81603E+03
 -5.09894E+03 -4.56589E+03  2.66748E+03 -3.12214E+03 -1.00454E+02 -5.68796E+03  2.60006E+03 -3.85990E+03
  6.94310E+03  6.70351E+02 -1.17266E+03  1.40500E+03 -7.48326E+02 -3.23206E+03  1.70535E+03 -1.31226E+03
  1.34534E+03  4.06623E+03  4.04627E+03  9.78464E+02  1.52015E+03 -1.05907E+03  5.35986E+03  7.34636E+03
  6.77560E+00  1.11621E+04 -7.80598E+03  8.08559E+03 -9.18553E+03  5.49524E+02 -5.96675E+03 -9.48643E+02
 -5.44676E+03 -7.35048E+03 -3.62219E+02  2.69884E+02 -1.20209E+03 -6.89394E+03  5.90369E+03 -1.93479E+03
 -1.31795E+03 -3.10440E+03  2.27802E+03 -3.86141E+03  6.38198E+03 -6.17526E+03  2.63469E+03  1.47164E+03
  6.23537E+03  2.17643E+03  3.76619E+03  2.44449E+03 -3.05316E+03  5.90296E+03 -2.83745E+03  1.49318E+03
 -1.03920E+03  4.69239E+02 -1.25897E+03 -2.71983E+03  1.38786E+03 -2.68097E+03  7.76796E+03 -4.78387E+03
  4.85942E+03 -5.03759E+03  5.38054E+03 -1.91189E+02  7.89391E+03  2.97343E+03  1.21102E+03  7.71293E+03
 -3.51821E+03  5.52278E+03 -2.58684E+03 -2.28905E+02 -2.87352E+03 -2.24928E+03  4.22119E+03  1.41987E+03
 -1.09689E+03  1.27946E+03  3.26527E+03 -1.23741E+03 -5.39720E+03  3.78399E+03 -4.54304E+03 -1.57874E+03
 -1.46135E+03 -4.96313E+03  3.62159E+03 -9.12040E+03  3.76471E+03 -6.77815E+03  4.57361E+03 -4.97301E+02
  4.37524E+03  3.52533E+03  1.29585E+03 -4.98698E+02 -3.52736E+03  3.06032E+03  9.35105E+02  5.53137E+02
 -3.46392E+03 -8.07736E+01 -1.83937E+03 -1.14026E+03 -4.92986E+03 -4.53987E+03  2.43214E+03 -3.31560E+03
 -1.06055E+03 -2.00567E+03  6.27033E+03 -1.42548E+03  8.54625E+02  1.68514E+03 -2.02429E+03 -6.24561E+02
  3.06926E+03  1.57487E+03  9.59255E+02 -3.73496E+02  4.10597E+03 -9.29700E+02  2.12930E+03  1.50115E+03
 -4.52777E+03  2.80743E+03 -2.30126E+03  6.06474E+03 -3.67515E+03  1.63130E+02 -4.29097E+03  1.53643E+03
 -2.02123E+03 -3.40549E+03  1.92768E+03 -5.12899E+03 -2.51112E+03 -4.49561E+03  5.32405E+03 -6.90279E+02
  3.80948E+03  3.97204E+03 -5.04938E+02  3.37518E+03 -2.10139E+03  4.76600E+03 -3.34697E+03 -1.12583E+03
 -2.68604E+03 -7.56679E+02  2.12023E+02 -6.97546E+02  4.34622E+03 -3.85817E+03 -3.83915E+02 -1.96403E+03
  4.73260E+03  5.69064E+02  5.42295E+02  2.67784E+03  1.24295E+03  2.02568E+03  1.90372E+03  2.44016E+03
 -5.56301E+03 -1.20190E+03  5.42030E+03  5.25371E+03 -4.61938E+02  4.45469E+02 -3.10031E+02  1.88888E+03
  1.67688E+03  2.73889E+03 -3.39057E+03  1.31204E+03 -2.90138E+03 -1.02268E+03 -1.97183E+03 -4.54371E+03
  2.25888E+03  4.10892E+02  3.35881E+03 -6.14490E+02  8.88547E+02 -2.47471E+03 -5.90409E+03 -1.20871E+02
 -1.26571E+03 -2.98897E+02 -5.21991E+03 -1.15096E+03 -4.77076E+03 -3.38756E+03  6.06210E+02 -1.66138E+03
  2.00289E+03 -3.34178E+03  8.86455E+02 -1.39711E+02 -9.39490E+02  6.18728E+02 -3.16974E+03 -2.65960E+03
 -2.90638E+03  3.17331E+03 -4.80907E+03  9.37252E+02 -7.39125E+02  1.09173E+03  2.63465E+03  4.82062E+02
 -2.03156E+03 -5.55618E+02 -1.78382E+03 -1.33049E+03  3.13373E+03  1.55104E+03 -2.61812E+02  3.01556E+02
 -2.97200E+03 -2.06656E+01 -3.70173E+03  2.64178E+03 -2.68074E+02 -2.01138E+03 -4.72569E+02  3.19710E+03
  4.69031E+03  2.66542E+03  1.56846E+03  3.09463E+03  4.65634E+02  1.94307E+03 -3.98014E+03  2.28599E+03
  1.40707E+03  2.31120E+03 -1.87842E+03  5.96956E+02  3.14659E+03  7.26292E+03  3.26606E+03  5.35943E+03
 -1.23740E+03  5.74409E+02 -1.00239E+03 -9.10343E+02 -1.11525E+03  2.96667E+03 -3.66307E+03 -5.08348E+03
 -4.89590E+03 -4.05339E+03  3.03620E+03 -6.26880E+03 -2.09480E+03  1.73095E+03  8.09611E+03  5.72157E+02
  3.36362E+03 -2.98144E+02 -1.06621E+03  4.69872E+02 -2.66281E+03  3.02494E+03 -5.58780E+03  4.89916E+03
 -7.71105E+02  4.69815E+03 -5.52303E+03 -1.39371E+03 -2.50128E+03  3.55457E+03 -1.19555E+03 -3.09974E+02
 -6.07967E+03 -2.67998E+02 -3.24922E+03  1.55738E+03 -9.89852E+02 -2.08920E+03 -1.22384E+03 -2.05515E+02
  5.36342E+03  3.53376E+02 -4.73346E+03  1.58570E+03  1.53333E+03  1.27814E+03  1.77060E+01 -9.97749E+02
 -4.26693E+03  5.82985E+03 -3.80595E+03  9.41659E+02 -1.08797E+03  2.65575E+03  1.01844E+03 -1.19547E+03
  1.52259E+03 -3.43932E+03 -3.30243E+03 -2.63002E+02 -2.90358E+03 -3.45488E+03  3.02311E+03  1.94724E+02
  1.13346E+03  9.15608E+02 -2.62298E+03 -1.29844E+03  1.71689E+03 -1.15958E+03 -1.18039E+02  2.25665E+03
  7.27949E+03  5.56453E+01  1.53160E+03  1.93412E+03 -1.31307E+03 -3.55682E+03  8.33722E+00  2.28279E+03
 -1.61196E+03 -3.43514E+02  7.97696E+02  3.56494E+02 -1.92485E+03  2.34741E+03 -3.30791E+02 -3.36746E+03
 -2.85776E+03 -3.28589E+03  1.13655E+03 -6.45841E+02 -1.92122E+03  1.02503E+02 -4.29543E+02 -1.48918E+03
 -9.72441E+01 -4.17025E+02  3.14570E+03 -1.40326E+02 -3.14565E+03  4.69658E+03 -5.80579E+02  9.58848E+02
  2.44142E+03 -3.01827E+03 -3.63303E+03  3.04571E+03 -2.51707E+03  3.05534E+03 -3.28744E+03 -1.61468E+03
 -2.41573E+03  1.06222E+03  1.79220E+03 -3.25851E+03  1.04680E+03 -3.59345E+03  2.50257E+02 -5.28727E+02
  4.47512E+03 -1.17660E+03  8.41110E+02 -2.35440E+02 -4.04551E+03  2.13908E+03  4.36556E+03  7.37249E+02
