 $NMID ID='MM_0lb_SNR50_9hz_g45_34.RAW', FMTDAT='(8E13.5)'
 TRAMP=1., VOLUME=1. $END
  3.04513E+05  2.08085E+03  3.35385E+05  2.47112E+05  8.82455E+04  3.36277E+05 -1.31505E+05  2.52561E+05
 -1.94120E+05  8.80219E+04 -1.17192E+05 -3.09479E+04 -1.83699E+03 -4.73964E+04  5.06372E+04  5.86396E+01
  3.47204E+04  4.38471E+04 -1.48063E+04  7.51020E+04 -6.55482E+04  6.73545E+04 -8.24391E+04  3.16063E+04
 -8.28589E+04 -1.80634E+04 -5.68034E+04 -5.39070E+04 -1.00147E+04 -6.99199E+04  3.27037E+04 -4.41228E+04
  3.42560E+04  4.71315E+03  2.20528E+04  4.73852E+04 -3.33956E+04  4.51119E+04 -6.66404E+04 -4.33532E+01
 -5.19903E+04 -6.07453E+04 -3.62395E+03 -8.19538E+04  3.08623E+04 -6.17529E+04  5.47680E+04 -1.94019E+04
  4.12026E+04  1.00617E+04  3.56203E+04  2.61143E+04  2.07060E+04  3.19130E+04 -7.66215E+03  2.81384E+04
 -1.88732E+04  1.22738E+04 -2.72342E+04 -8.14971E+03  4.96573E+03 -6.88801E+03  2.47931E+04  1.40313E+04
  6.50743E+03  3.31894E+04 -3.33746E+04  3.75447E+04 -6.77705E+04  4.90423E+03 -6.35975E+04 -4.24430E+04
 -1.50190E+04 -7.06282E+04  3.97342E+04 -4.53895E+04  6.36802E+04  6.19993E+01  4.23135E+04  3.05109E+04
 -4.54402E+03  4.13774E+04 -2.98786E+04  2.00346E+04 -3.82768E+04 -4.40284E+03 -1.51231E+04 -1.81228E+04
 -4.30702E+03 -1.91903E+04 -1.14600E+03 -2.35356E+04  1.14226E+04 -2.33671E+04  1.91553E+04 -1.16894E+04
  7.08402E+03  8.13107E+03 -6.87548E+03  1.40065E+04 -2.62511E+04 -3.00141E+03 -6.88271E+03 -3.48675E+04
  1.83214E+04 -4.96329E+04  6.28832E+04 -2.26639E+04  5.36455E+04  1.42595E+04  1.35274E+04  4.19750E+04
 -1.59869E+04  3.77391E+04 -2.85560E+04  2.21626E+03 -1.00561E+04 -2.89074E+04  1.80337E+04 -3.64235E+04
  4.86417E+04 -4.55997E+03  3.88286E+04  2.28405E+04  2.03764E+04  4.90958E+04 -1.57517E+04  5.68253E+04
 -3.42791E+04  4.03034E+04 -5.56726E+04  1.54715E+04 -5.60524E+04 -1.39946E+04 -2.20949E+04 -4.33601E+04
  5.95938E+03 -3.74193E+04  2.75369E+04 -2.54127E+04  3.54900E+04  1.47246E+04  1.04493E+04  2.17966E+04
 -2.07481E+04  1.22530E+04 -1.19312E+04 -1.04850E+04  3.33367E+03 -7.08102E+03  1.91660E+04  4.11059E+03
  1.50624E+04  1.99255E+04 -4.65175E+03  3.10887E+04 -2.39534E+04  6.95112E+03 -3.01441E+04 -4.23026E+03
 -2.13281E+04 -1.97962E+04 -1.50282E+04 -2.45285E+04  6.91822E+03 -2.37259E+04  2.60375E+04 -2.33763E+04
  2.90540E+04 -9.80216E+03  3.86952E+04  6.75680E+03  2.46955E+04  2.57491E+04  5.35777E+03  3.54261E+04
 -2.19441E+04  4.12189E+04 -3.54976E+04  1.25086E+04 -1.88927E+04 -6.87073E+03 -4.94187E+03 -1.35211E+04
  4.86051E+03  6.51949E+03 -6.94883E+03  1.49535E+04 -1.80555E+04  1.99962E+03 -1.97378E+04 -6.21794E+03
 -1.52465E+04 -2.03023E+04  3.10229E+03 -3.05466E+04  2.20679E+04 -1.96158E+04  2.48542E+04 -2.68539E+03
  1.52268E+04  1.51765E+04  2.53050E+03  2.94475E+04 -1.55713E+04  1.48565E+04 -2.01305E+04 -1.80325E+03
 -1.38450E+04 -2.32771E+04  3.48210E+02 -2.35559E+04  1.06626E+04 -1.96765E+04  2.63311E+04 -1.63744E+04
  2.64759E+04  1.51258E+03  9.83139E+03  3.86162E+03  3.67290E+03 -2.61361E+03  1.43722E+04 -5.21868E+03
  2.50153E+04  5.28462E+03  2.16881E+04  2.26574E+04  2.05123E+04  3.52978E+04 -5.98487E+03  3.87339E+04
 -2.77467E+04  4.06157E+04 -3.47258E+04  1.73541E+04 -4.49569E+04 -7.63705E+03 -4.19184E+04 -3.11048E+04
 -1.57998E+04 -4.58455E+04  5.45777E+03 -2.83942E+04  3.17496E+04 -1.72921E+04  2.71519E+04  4.71915E+03
  1.12754E+04  2.08824E+04 -8.69769E+03  1.31481E+04 -2.31691E+04 -4.44607E+03 -1.36019E+04 -1.73638E+04
  9.55175E+02 -2.30050E+04  6.17928E+03 -1.75983E+04  1.29243E+04 -7.83133E+03  5.59688E+02  2.96914E+03
 -3.11545E+03  1.02221E+04 -1.31296E+04 -7.88559E+03 -5.15620E+03 -1.77669E+04  1.74523E+04 -1.76787E+04
  2.11555E+04 -1.34917E+04  2.75414E+04  4.84171E+03  1.29105E+04  1.45153E+04  6.73113E+03  3.20712E+04
 -1.24408E+04  2.94737E+04 -1.59616E+04  2.05865E+04 -2.52730E+04  5.52889E+03 -1.42870E+04 -4.62511E+03
 -2.77352E+03 -7.11025E+03 -8.34664E+03  7.19965E+03 -9.01973E+03  2.26923E+03 -7.32482E+03  7.11549E+03
 -1.35766E+04 -4.22152E+03 -1.77926E+04 -1.27001E+04 -6.62535E+03 -1.77728E+04  7.50467E+03 -1.12023E+04
  8.41354E+03 -2.63038E+03  1.30519E+04  2.52918E+03 -2.38712E+03  1.67778E+03 -8.37827E+03  1.69740E+03
 -4.94902E+03 -1.88348E+04  3.07250E+03 -1.44456E+04  1.09644E+04 -2.05647E+04  1.46445E+04 -1.28879E+04
  2.19803E+04  2.58232E+03  1.97480E+04  9.98076E+03  1.67584E+03  1.36093E+04 -1.25735E+04  1.55823E+04
 -1.35843E+04  5.74555E+03 -5.39032E+03 -9.40393E+02  2.36650E+03 -1.94710E+03  1.12370E+04 -2.01329E+03
  4.27698E+03  6.27038E+03 -4.64747E+03  8.01898E+03 -1.19661E+04  1.67320E+04 -1.91425E+04 -6.83338E+02
 -1.44843E+04 -9.16811E+03  1.67790E+03 -4.94181E+03  2.97908E+03 -8.02291E+03  6.19455E+03  5.24287E+03
  6.91345E+03  2.70004E+03 -3.82923E+03  5.34931E+03 -9.92446E+03  1.16055E+04 -1.48712E+04 -4.38075E+03
 -8.08045E+03 -1.17335E+04  1.88736E+03 -2.09744E+04  1.32142E+04 -1.36733E+04  1.93505E+04  3.74675E+03
  1.36952E+04  1.26567E+04 -6.19580E+03  1.63110E+04 -9.57523E+03  9.78884E+03 -2.02728E+04 -8.14508E+03
 -9.75783E+03 -1.29978E+04 -4.91642E+03 -1.19686E+04  7.03590E+03 -9.63467E+03  7.88096E+03 -2.57460E+02
  1.20376E+04 -3.35585E+03  2.58048E+03  1.11958E+03  6.81792E+03 -2.28745E+03  5.74038E+03 -6.58194E+03
  9.09796E+03 -4.12029E+03  7.95910E+03  4.29077E+03  1.68628E+04  1.47697E+04  1.43849E+03  1.91825E+04
 -1.94384E+03  2.40604E+04 -2.81010E+04  1.33054E+04 -2.48603E+04 -4.59896E+03 -2.48530E+04 -1.80940E+03
 -1.18656E+04 -1.71184E+04 -1.09421E+03 -1.74318E+04  6.96342E+03 -8.53843E+03  6.36017E+03 -6.21212E+01
  1.04440E+04 -2.84100E+02  5.80674E+03 -8.49048E+03  2.09897E+03 -3.87051E+03  1.20004E+04 -2.80638E+02
  8.64252E+03  1.13195E+03  8.99086E+03  8.29118E+03 -3.74373E+03  1.27486E+04 -1.52138E+04  1.61817E+03
 -1.50363E+04 -5.04331E+03 -3.71197E+02 -8.07841E+03  1.49490E+03 -2.00561E+04  7.45875E+03 -1.43416E+04
  2.04911E+04 -9.40367E+03  1.86680E+04  5.84510E+01  1.08224E+04  7.89699E+03  3.48799E+03  1.70578E+04
 -1.14391E+04  8.44557E+03 -1.12438E+04  7.59256E+03 -7.66314E+03 -5.99107E+03 -5.01869E+03 -6.32554E+02
  1.35180E+03  2.97553E+03 -3.99766E+03  5.04175E+03 -4.56342E+03  9.72209E+03 -7.35169E+03  9.35116E+02
 -8.11865E+03 -9.60231E+03 -1.50338E+03 -1.33949E+04  1.03030E+04 -1.22415E+04  1.47653E+04 -1.97569E+03
  1.00789E+04  2.45800E+03  5.19337E+03  9.96992E+03  2.17288E+03  1.72633E+04 -6.34857E+03  1.18798E+04
 -1.43309E+04  2.51546E+02 -9.96090E+03 -1.30957E+04 -5.81517E+03 -8.32494E+03  7.29443E+03 -4.54885E+03
  5.71564E+03 -3.66005E+03  2.98702E+03 -1.39212E+03  5.15044E+03  1.70978E+03  8.15616E+03 -2.64622E+02
  3.52307E+03 -3.99755E+03 -3.72473E+03  2.75250E+02  5.40520E+03  4.64028E+03  1.42269E+03  7.58522E+03
 -7.52042E+03  1.01417E+04 -9.21642E+03  1.02386E+04 -1.62262E+04  5.24820E+03 -1.10496E+04 -1.24076E+04
 -1.30306E+04 -1.27138E+04  7.98743E+02 -1.87972E+04  1.41306E+04 -1.48860E+04  9.49489E+03 -7.26605E+02
  9.19989E+03  4.20021E+03 -3.90777E+03  3.07806E+03 -2.87197E+02  4.64626E+03 -1.68613E+03  7.76119E+01
 -3.30252E+03 -1.15032E+04  5.28536E+03 -4.19730E+03  5.97513E+03 -7.28156E+03  4.11861E+03 -9.06345E+02
  6.88313E+03  1.92867E+03  3.14043E+03  2.36013E+03  5.32370E+03  6.39095E+02 -3.91909E+03  2.33066E+03
  2.28580E+03 -1.92926E+03  7.50624E+03 -9.07215E+02  6.43989E+03  9.57932E+03 -1.67660E+03  1.07237E+04
 -7.39762E+03  6.91462E+03 -5.71186E+03  6.54039E+02 -1.24835E+04 -5.63776E+03 -2.11296E+03 -1.60756E+03
 -4.20939E+03 -5.22820E+03  5.87232E+03 -2.28692E+03  4.56481E+03  7.64930E+03  1.37863E+03  7.84712E+02
 -6.40865E+03  2.78971E+03 -1.94501E+03 -4.33195E+03 -1.74461E+03 -4.13409E+03  2.08619E+03 -8.18504E+03
  5.71990E+03 -8.23064E+03  6.42008E+03 -6.05024E+03  4.03906E+03  6.36323E+03 -5.65050E+03 -1.15689E+03
 -6.97519E+03 -2.11919E+03 -9.35471E+02 -1.47036E+03 -1.87290E+03 -1.09102E+04  2.27445E+03 -7.21914E+03
  8.50258E+03 -2.13324E+03  1.29156E+04  5.59838E+02  2.11091E+03  8.83308E+03 -2.64893E+03  8.47465E+03
 -7.74230E+03 -2.36367E+03 -8.99179E+03 -1.08400E+03 -8.29126E+03 -1.08072E+04  1.00356E+03 -6.88624E+03
  3.29181E+03 -3.80895E+03  9.07393E+03  3.41130E+03  5.18188E+03  3.63763E+03 -2.90864E+03  2.50800E+03
 -7.64369E+03  3.11951E+03 -2.17282E+03 -2.82924E+03 -2.99386E+03  3.16226E+03  2.12003E+03  4.74121E+03
  2.28752E+03  6.06886E+03 -7.06449E+03  1.76966E+03 -1.20440E+04  3.26358E+03 -1.57693E+04 -2.52854E+03
 -5.59099E+03 -9.57741E+03  1.65027E+03 -1.50239E+04  3.07833E+03 -1.00313E+04  1.11067E+04 -1.96081E+03
  1.39447E+04  2.35252E+03  8.30241E+03  6.38073E+03  1.78393E+03  1.32963E+04 -7.53590E+03  9.38443E+03
 -4.66726E+03 -5.17909E+03 -7.05413E+03 -4.12060E+03 -5.57587E+00 -2.98645E+03 -9.69587E+02  1.54376E+03
 -1.31086E+03  2.51177E+03 -1.93958E+03  3.53228E+03  3.57666E+02 -5.28616E+03  6.99636E+03 -6.88979E+03
  8.26029E+03 -4.58984E+03  5.77022E+03  1.04197E+03  6.12150E+03  3.70176E+03  8.54362E+02  5.14475E+03
 -4.19553E+03  1.29764E+04 -1.21457E+04  8.71319E+03 -1.53094E+04 -1.14458E+03 -1.42806E+04 -5.23871E+03
 -3.34077E+03 -3.83410E+03  6.72243E+02 -8.37499E+03  9.69574E+03 -8.51765E+03  1.23363E+04 -5.54643E+03
  6.42067E+03  7.68457E+02  1.71839E+03  3.11923E+03 -2.42765E+02  3.65479E+02 -1.19157E+03 -2.23412E+03
  6.29219E+03  1.71910E+03 -1.60340E+03 -3.01371E+03  4.92966E+03 -1.19176E+03 -4.81045E+03  2.57732E+03
 -4.41370E+03  6.28915E+03 -6.15591E+03  2.53148E+03 -6.31560E+03 -4.05925E+03 -4.77406E+03 -1.27299E+04
  1.38235E+04 -2.18736E+03  1.04463E+04  1.42178E+03  1.28621E+04  6.12370E+02  1.06230E+04  9.01500E+03
 -3.61371E+03  1.25684E+04 -3.72487E+03  6.01435E+03 -5.38532E+01  1.04527E+04 -2.28397E+03  4.46601E+03
 -3.43984E+03 -1.41114E+03 -3.83585E+03  2.37813E+03 -6.02578E+03 -1.96960E+03 -4.64096E+03 -1.65985E+02
 -9.70029E+03 -9.39680E+03 -5.45002E+03 -5.39272E+03  1.02105E+03 -1.27518E+03  5.25611E+03 -2.88188E+03
  5.90424E+03 -9.81875E+02  6.92004E+03  1.06218E+04  1.82056E+03  7.56015E+03 -3.09129E+03  5.48401E+03
