 $NMID ID='MM_0lb_SNR50_16hz_g55_98.RAW', FMTDAT='(8E13.5)'
 TRAMP=1., VOLUME=1. $END
  3.05388E+05  4.77787E+03  3.38291E+05  2.47827E+05  8.60787E+04  3.41222E+05 -1.28587E+05  2.50038E+05
 -1.93694E+05  8.16999E+04 -1.14884E+05 -3.26766E+04 -3.76656E+03 -4.73714E+04  5.49725E+04  3.50329E+03
  3.41423E+04  5.26730E+04 -2.09766E+04  7.30074E+04 -6.21651E+04  7.05349E+04 -8.91467E+04  2.78126E+04
 -8.25222E+04 -1.52124E+04 -5.57612E+04 -5.35465E+04 -1.21324E+04 -6.22658E+04  2.92146E+04 -4.36424E+04
  4.17071E+04  3.53751E+03  1.36667E+04  4.92131E+04 -3.70864E+04  4.84184E+04 -6.82095E+04 -6.22499E+03
 -5.63277E+04 -5.93705E+04 -1.05432E+04 -7.76351E+04  3.16249E+04 -5.51642E+04  4.84278E+04 -1.58383E+04
  4.14418E+04  1.14971E+04  2.83267E+04  2.06775E+04  1.60427E+04  2.97057E+04 -6.64601E+03  2.22966E+04
 -2.08663E+04  1.12254E+04 -1.91310E+04 -2.17080E+03  5.85678E+03 -6.40637E+03  2.27081E+04  1.28646E+04
  7.56579E+03  3.47076E+04 -3.28257E+04  3.19185E+04 -6.34182E+04  9.34699E+02 -5.72290E+04 -4.72255E+04
 -1.04571E+04 -6.18004E+04  4.10264E+04 -4.24156E+04  5.73906E+04 -1.17425E+03  3.24967E+04  3.99813E+04
 -4.39098E+03  3.80375E+04 -3.36977E+04  1.32563E+04 -2.96806E+04 -5.29361E+03 -1.41737E+04 -8.49956E+03
 -8.78484E+03 -9.49242E+03  1.54593E+03 -1.76999E+04  2.01918E+03 -2.11259E+04  2.17432E+04 -1.35337E+04
  1.54292E+04  3.69808E+02 -1.01114E+04  1.52055E+04 -2.12155E+04 -4.81095E+03 -1.04955E+04 -4.02837E+04
  2.46626E+04 -4.12159E+04  4.68469E+04 -1.97732E+04  4.07191E+04  1.79335E+04  1.17642E+04  4.45545E+04
 -1.15161E+04  3.53714E+04 -2.88933E+04  6.22324E+03 -8.85980E+03 -2.47621E+04  2.03687E+04 -3.29047E+04
  4.16977E+04 -6.98766E+03  3.73062E+04  2.10887E+04  2.12896E+04  4.72423E+04 -9.75705E+03  5.23912E+04
 -2.99506E+04  3.54820E+04 -3.73124E+04  7.57237E+03 -4.23050E+04 -1.83553E+04 -2.42054E+04 -3.38190E+04
  8.19934E+03 -3.87410E+04  2.99502E+04 -1.43744E+04  2.70429E+04  9.94096E+03  6.10866E+03  1.89081E+04
 -1.49267E+04  8.36278E+03 -1.16302E+04 -9.17962E+03  9.24984E+03 -1.23265E+04  1.48420E+04  4.93929E+03
  1.39967E+04  2.24657E+04 -4.14515E+03  2.47680E+04 -2.32702E+04  8.53435E+03 -3.02929E+04  1.26223E+03
 -1.66503E+04 -1.10293E+04 -8.17585E+03 -2.20160E+04  5.64435E+03 -1.84118E+04  1.57686E+04 -1.75647E+04
  2.60231E+04 -1.48757E+04  2.92989E+04 -2.05507E+03  2.19898E+04  1.84458E+04  7.47281E+03  3.31293E+04
 -1.58732E+04  2.64348E+04 -3.06392E+04  1.27821E+04 -1.67534E+04 -1.31123E+04 -4.16257E+03 -1.00673E+04
  3.10735E+03  1.20542E+03 -4.16673E+03  3.94511E+03 -1.74406E+04  1.12825E+03 -1.90508E+04 -9.80822E+03
 -1.47937E+04 -2.15326E+04  4.36879E+03 -2.52300E+04  1.56948E+04 -1.99008E+04  1.83433E+04 -7.07842E+02
  1.03598E+04  1.47288E+04  2.00937E+03  1.63354E+04 -1.14434E+04  9.84034E+03 -1.67741E+04 -5.35551E+03
 -1.41053E+04 -1.62621E+04 -3.24127E+03 -1.82321E+04  1.05649E+04 -1.54729E+04  1.63597E+04 -9.05055E+03
  1.41452E+04  2.25016E+03  9.14370E+03  4.13539E+03  6.37171E+03  2.75929E+03  1.08453E+04 -3.93475E+03
  1.75206E+04  8.41306E+02  1.76536E+04  9.53152E+03  1.25233E+04  3.02657E+04 -8.88258E+03  3.35004E+04
 -2.27876E+04  2.45668E+04 -2.64178E+04  6.95215E+03 -2.88246E+04 -7.24598E+02 -2.40199E+04 -2.21099E+04
 -1.23764E+04 -2.48506E+04  9.88471E+03 -2.75041E+04  2.04438E+04 -6.58699E+03  1.53332E+04 -1.47702E+02
  8.42019E+03  1.10512E+04 -1.19627E+04  1.14676E+04 -1.65904E+04  6.34539E+03 -1.05577E+04 -1.19219E+04
 -4.79356E+02 -1.53609E+04  7.27076E+03 -1.32913E+04  6.60285E+03 -8.45190E+02  5.48721E+03  6.57650E+03
 -1.03118E+04  1.11012E+03 -9.43962E+03 -9.19664E+03 -6.01145E+03 -8.82867E+03  9.36837E+03 -1.50602E+04
  1.48356E+04 -7.11035E+03  1.40116E+04 -1.69478E+03  1.32496E+04  1.75499E+04  6.53552E+03  1.55015E+04
 -6.09965E+03  2.05554E+04 -6.86877E+03  1.55727E+04 -1.61891E+04  4.02010E+03 -7.07306E+03 -1.48560E+03
 -3.95923E+03 -8.35032E+03 -6.89590E+02  1.38837E+03 -6.11634E+03  3.93450E+03 -1.47150E+03  4.50012E+03
 -1.40338E+04  1.68057E+03 -9.35535E+03 -3.50842E+03 -3.73019E+03 -1.32758E+04  7.37760E+02 -5.09793E+03
  8.76981E+03 -5.78389E+03  1.04439E+04  9.13957E+02  2.59233E+03  6.06008E+03 -8.39210E+03 -3.98643E+03
 -4.04098E+03 -6.63493E+03  2.16119E+03 -6.86565E+03  1.98690E+02 -9.30139E+03  1.24447E+04 -5.96152E+03
  1.64067E+04  2.34325E+03  7.69362E+03  8.48623E+03  2.53363E+03  1.04357E+04 -1.06184E+04  9.25242E+03
 -8.13883E+03  4.79060E+03 -6.11684E+03  3.11785E+03 -2.57458E+03 -6.27245E+03  4.57639E+03 -2.40692E+03
  5.61113E+03  6.76750E+03  2.48125E+03  1.09542E+04 -8.42760E+03  6.41057E+03 -8.81323E+03  4.83493E+02
 -4.04580E+03 -1.72784E+03  2.24314E+03 -9.03259E+03  7.94690E+03 -8.68033E+03  3.03924E+03  4.47731E+03
  1.21888E+02  1.56136E+03 -6.70073E+03  4.11928E+03 -5.30375E+03  1.64315E+03 -5.45453E+03 -3.88625E+03
 -5.80162E+03 -1.04451E+04 -4.68997E+01 -1.28904E+04  8.51831E+03 -5.97634E+03  6.41087E+03  1.36051E+03
  1.10283E+03  3.26979E+03  5.11678E+03  7.89525E+03 -3.06693E+03  4.38658E+03 -8.51050E+03  2.01523E+02
 -1.03205E+04 -6.21692E+03 -5.64663E+03 -1.07761E+04  2.67176E+03 -6.73591E+03  2.37318E+03 -3.63541E+03
  2.49766E+03 -7.53606E+02  6.94396E+03  3.22872E+03  6.19855E+02  3.99072E+03  3.08673E+03 -5.33865E+02
  4.24305E+03  1.05419E+03  4.67591E+03  4.03315E+03  7.93430E+03  2.14602E+03  7.39035E+03  1.39651E+04
 -6.22125E+02  1.37303E+04 -9.33033E+03  1.00020E+04 -1.10760E+04  2.50795E+03 -1.04278E+04 -5.49706E+03
 -8.20303E+03 -5.99404E+03 -2.69675E+03 -6.86720E+03  2.11036E+03 -1.09681E+03 -7.51744E+02  1.52008E+02
 -1.08172E+03 -3.73978E+03  4.09713E+03  1.30587E+03  4.30352E+03 -2.83167E+03  1.23412E+03 -3.78592E+02
  2.82098E+03  7.47873E+02  4.11076E+03  8.27103E+02  1.10135E+03  4.58536E+03 -6.22672E+03  3.69028E+03
 -9.29084E+03  2.34685E+03 -3.37461E+03 -9.39833E+03  2.66330E+03 -5.82228E+03  2.10407E+03 -2.48195E+03
  4.51740E+03 -2.65263E+03  1.44010E+04 -9.23262E+02  6.21725E+03  7.84999E+03  5.72647E+03  8.63238E+03
  7.12777E+02  8.98599E+03 -4.27026E+03  3.14394E+03 -1.99622E+03  7.38952E+02 -3.62381E+03 -1.72675E+03
  3.95077E+01  6.72915E+03 -4.69164E+02  6.36878E+02 -1.39682E+03  2.40651E+03 -5.83600E+03 -1.25862E+03
 -2.22377E+03 -8.38621E+03 -2.68833E+03 -4.08419E+03  5.70530E+03 -4.17765E+03  2.94218E+03 -4.65618E+03
  8.14584E+03  5.67941E+03  2.84550E+03  5.66297E+03 -7.47410E+03  1.03126E+04 -7.92332E+03  1.55288E+03
 -1.96976E+03  3.63772E+03 -6.80896E+03 -4.56015E+03 -1.23513E+03 -9.01594E+03  2.71755E+02  2.06594E+03
  1.30080E+03 -2.40901E+03  4.34544E+03  3.47467E+03  1.36744E+03  4.10639E+03  8.87138E+02 -6.52523E+02
  1.67163E+02 -2.17765E+03  1.05499E+02  9.20090E+02 -5.73550E+02  3.31351E+03  1.62568E+02  9.18798E+02
 -4.66788E+03  5.68825E+03 -3.75410E+03  1.77400E+03 -7.04392E+03  2.75808E+03 -4.36475E+03  2.81551E+03
 -6.10995E+03 -2.95302E+03  5.47878E+03 -1.31346E+04  5.49286E+03 -5.82564E+03  6.14399E+03 -1.41572E+03
  6.08668E+03  7.43809E+03  4.45313E+03  3.67112E+03  9.61654E+02  9.38773E+02 -7.10967E+03 -2.58496E+03
  3.60588E+02 -3.27054E+03  1.40845E+03 -5.48037E+03  6.14882E+03 -3.27503E+03 -8.01495E+02  2.05664E+03
  1.98112E+03  2.99796E+03 -3.51953E+03 -2.90737E+03  1.17417E+03  5.87800E+02  3.60909E+03 -3.62709E+03
 -2.23532E+02 -3.78083E+03  2.85208E+03 -6.03899E+03 -1.35244E+03  2.51672E+03 -2.57264E+03  3.82309E+03
 -3.93134E+03  2.41004E+03  1.07864E+03 -4.40797E+03 -3.25586E+03 -3.54158E+03 -1.29511E+03 -4.06371E+03
 -1.36242E+03 -2.08971E+03  4.39381E+02 -3.86040E+03 -2.96934E+03 -2.68241E+02 -1.40067E+03 -1.89454E+03
 -3.08325E+01  3.23227E+03  1.15088E+03 -1.06712E+03 -5.83134E+03 -1.55316E+03 -3.45635E+03 -5.99918E+03
 -1.77422E+03 -5.80972E+02  3.84614E+03  1.90554E+02  2.48062E+03 -3.48837E+03  8.41592E+03  7.53618E+02
 -3.19188E+03 -4.86185E+02 -2.93458E+03 -1.55282E+03 -2.00605E+03 -1.61358E+02 -4.20728E+03 -5.32042E+02
  4.82498E+03  2.40425E+03  2.78642E+03  2.62737E+03  5.46154E+03  5.76875E+03  1.53057E+03  6.03211E+03
  4.84687E+03  4.48696E+02 -2.18227E+03  1.12564E+03 -2.51808E+03 -2.41094E+03 -1.02639E+03 -1.43021E+03
  2.39905E+03  4.07145E+01  2.78918E+03 -4.06529E+03 -2.22128E+03  4.16724E+02  2.27646E+03  3.87404E+03
 -1.06241E+03  4.34659E+03  4.10682E+03 -3.92765E+02  3.32883E+03  2.36691E+03 -6.30246E+03 -1.68777E+03
  6.03635E+01 -6.34316E+02 -4.86040E+02  9.82636E+02 -6.51244E+02 -7.41519E+02 -2.97731E+03 -1.34957E+03
 -2.60633E+03 -2.23302E+03 -3.12900E+03 -6.68694E+03  2.44395E+03 -4.97120E+03  8.38437E+03 -1.63521E+03
  3.89747E+03 -1.31762E+03  2.76765E+03  2.30767E+03  9.96972E+00  1.93044E+03  1.77627E+03 -1.62971E+03
  1.77483E+03  1.13429E+03 -6.74517E+02  2.23958E+03  1.03995E+03 -7.95556E+02 -3.65849E+03  3.04165E+02
 -2.72625E+03 -1.87784E+03 -2.74212E+03 -1.72794E+03 -3.46126E+03 -2.33542E+03  6.37101E+02 -2.51582E+03
  1.07798E+04  2.62168E+03  8.39178E+02  1.58841E+02 -1.78768E+03  2.90170E+03  1.61812E+03 -1.14461E+03
  1.66965E+02  6.29828E+03 -1.28880E+02  2.16316E+03 -4.82431E+03 -1.23270E+03 -7.17583E+02 -6.70700E+03
 -7.94376E+02 -5.83866E+03  2.41061E+03  2.90756E+03  7.44497E+02 -1.94367E+03  3.39673E+03 -1.95049E+03
  4.40733E+03  9.33140E+02  2.32054E+03  2.80071E+03 -1.40173E+03  4.70519E+03 -2.27334E+03  1.81514E+03
 -1.62314E+03 -8.37736E+02  1.30430E+03  2.23212E+03  5.13412E+02  2.00241E+03  5.42362E+02 -1.63837E+03
 -1.63363E+03  1.88627E+03 -3.05024E+03  3.62267E+03  4.84377E+01  4.26259E+03  2.40365E+03 -7.39606E+02
  2.19385E+03 -4.83056E+03  1.54061E+03 -2.62846E+03  2.77960E+03 -3.90131E+03 -1.20040E+03 -1.00000E+03
  1.70154E+03 -3.22089E+03 -2.09399E+03  2.89209E+03 -3.69501E+03 -3.14675E+02 -3.53513E+02  1.52061E+03
 -1.32862E+03 -1.17559E+03  7.07296E+02 -3.41090E+03 -4.20854E+03  2.17483E+03 -6.64501E+02  1.42947E+03
 -7.89152E+03  4.95546E+02 -2.18935E+03 -4.47536E+03  4.11523E+03 -2.36224E+02 -4.46968E+03 -9.24818E+02
  8.17216E+02  2.01265E+03 -5.99601E+02  1.44726E+03 -6.81950E+00 -1.76874E+03  2.88050E+03 -1.13169E+03
