 $NMID ID='MM_0lb_SNR50_15hz_g45_74.RAW', FMTDAT='(8E13.5)'
 TRAMP=1., VOLUME=1. $END
  3.10434E+05  2.67354E+03  3.33906E+05  2.49661E+05  8.71031E+04  3.40554E+05 -1.35670E+05  2.47608E+05
 -1.89572E+05  8.35827E+04 -1.09725E+05 -3.94136E+04  2.16576E+03 -5.25897E+04  5.55569E+04  2.35404E+03
  3.49741E+04  5.03958E+04 -1.46853E+04  7.75981E+04 -5.87950E+04  6.75382E+04 -8.50780E+04  2.82514E+04
 -8.15986E+04 -1.10647E+04 -5.50845E+04 -5.11809E+04 -1.24297E+04 -6.86363E+04  2.67381E+04 -4.61089E+04
  4.21036E+04  3.58717E+03  1.56980E+04  4.71144E+04 -3.52506E+04  4.57370E+04 -6.32873E+04 -6.93735E+02
 -5.24698E+04 -5.83926E+04 -5.39551E+03 -7.79797E+04  3.54127E+04 -6.35206E+04  4.98950E+04 -1.80202E+04
  4.17197E+04  1.60130E+04  3.39716E+04  2.75651E+04  1.69711E+04  2.34606E+04 -6.10405E+03  2.84453E+04
 -2.03665E+04  1.15943E+04 -1.44867E+04 -3.92280E+03  3.14833E+03 -7.32219E+03  2.34818E+04  1.25676E+04
  8.24457E+03  3.73143E+04 -3.61577E+04  3.44714E+04 -6.51325E+04  2.15129E+03 -5.40818E+04 -4.70350E+04
 -1.25050E+04 -6.38109E+04  4.10960E+04 -4.56574E+04  5.49533E+04 -4.73300E+03  3.28566E+04  2.99025E+04
 -6.82517E+03  3.33737E+04 -3.03626E+04  1.39899E+04 -2.56316E+04 -6.12402E+03 -9.97868E+03 -1.25862E+04
 -7.97118E+03 -1.17245E+04 -3.54631E+03 -1.75033E+04  6.53212E+03 -2.29230E+04  8.82198E+03 -1.05340E+04
  1.57321E+04  8.60333E+03 -4.62250E+03  1.38406E+04 -2.12844E+04  9.70019E+02 -1.30163E+04 -3.00490E+04
  2.21887E+04 -4.12294E+04  4.81674E+04 -1.91611E+04  4.70157E+04  2.03024E+04  1.47997E+04  4.42334E+04
 -1.29937E+04  2.93442E+04 -2.64245E+04  1.02280E+03 -7.48851E+03 -2.60953E+04  2.28720E+04 -3.07027E+04
  3.80218E+04 -5.84822E+03  3.54074E+04  1.94061E+04  1.76112E+04  4.22854E+04 -1.13882E+04  4.81291E+04
 -2.87974E+04  3.72823E+04 -4.03308E+04  8.13464E+03 -3.93003E+04 -1.19126E+04 -2.78672E+04 -4.08593E+04
  7.68307E+03 -3.50027E+04  2.86372E+04 -1.08777E+04  2.60691E+04  1.17882E+04  4.30639E+03  1.76122E+04
 -1.64063E+04  5.85381E+03 -1.38452E+04 -6.63933E+03  6.03032E+03 -1.07248E+04  1.76717E+04  1.78494E+03
  1.11629E+04  1.95904E+04 -3.10578E+03  2.06169E+04 -2.05041E+04  1.30781E+04 -3.01622E+04 -4.31151E+03
 -1.84172E+04 -1.35713E+04 -7.37049E+03 -2.03470E+04  1.04120E+04 -1.52230E+04  1.86329E+04 -1.50288E+04
  2.46061E+04 -1.66936E+04  3.12825E+04  6.16803E+01  1.91697E+04  2.23599E+04  6.55856E+03  3.74750E+04
 -2.06418E+04  3.15425E+04 -3.07983E+04  1.25383E+04 -1.93009E+04 -1.23975E+04 -8.95748E+03 -9.94189E+03
  3.02527E+02 -3.63389E+03 -3.38798E+03  6.10939E+03 -1.33270E+04  6.32885E+03 -1.56936E+04 -8.17391E+03
 -1.28955E+04 -2.01105E+04  4.72108E+03 -2.17880E+04  1.43255E+04 -1.66009E+04  1.19494E+04 -2.69963E+03
  9.40470E+03  1.82348E+04 -2.16273E+03  2.22038E+04 -1.12917E+04  1.16362E+04 -1.72471E+04 -4.32853E+03
 -1.27929E+04 -1.44267E+04 -1.45289E+03 -2.13798E+04  9.94442E+03 -2.11486E+04  1.83101E+04 -7.97556E+03
  1.53255E+04  2.96804E+03  1.03816E+04  6.14964E+03  6.27499E+03 -2.98417E+02  1.06006E+04 -3.32376E+03
  1.46846E+04  2.60906E+03  1.44886E+04  1.34869E+04  1.48577E+04  2.63884E+04 -5.27840E+03  3.14266E+04
 -2.05613E+04  2.29922E+04 -2.91838E+04  1.63157E+04 -3.06255E+04 -4.89658E+03 -2.89643E+04 -1.72826E+04
 -1.15134E+04 -2.75893E+04  1.10731E+04 -2.18847E+04  1.60435E+04 -1.39406E+04  1.57733E+04  9.40513E+03
  7.67702E+03  1.24238E+04 -7.68704E+03  7.22126E+03 -1.45155E+04  4.13865E+03 -1.48264E+04 -6.69460E+03
 -4.19470E+03 -1.33384E+04  5.21533E+03 -1.40032E+04  1.00739E+04 -2.07398E+03  1.79952E+03  5.05534E+03
 -5.01093E+03 -9.34307E+02 -5.86046E+03 -6.49253E+03  2.19201E+03 -1.22937E+04  7.85458E+03 -1.13022E+04
  1.16831E+04 -9.00487E+03  1.41430E+04  4.30693E+03  9.66273E+03  9.08743E+03  4.50438E+03  1.74620E+04
 -4.12990E+03  2.18117E+04 -1.17363E+04  9.52522E+03 -1.60304E+04 -7.59633E+02 -9.38938E+03  2.66675E+02
 -5.57963E+03 -5.57581E+03  9.46485E+01  3.52831E+03 -3.30780E+02  4.36855E+03 -6.26082E+03  5.52389E+03
 -1.15834E+04 -3.28697E+03 -1.58781E+04 -6.93162E+03 -2.87049E+03 -1.51390E+04  1.85070E+03 -1.32781E+04
  4.46383E+03 -7.97244E+03  6.25077E+03  2.79442E+03 -2.01180E+03  4.79926E+03 -6.52660E+03  2.55122E+03
 -3.19397E+03 -6.67907E+03  2.68852E+02 -1.24168E+04  6.45275E+03 -1.01535E+04  1.31763E+04 -6.21805E+03
  9.89736E+03  3.00728E+03  1.17342E+04  4.44968E+03  4.21941E+03  9.35287E+03 -3.47119E+03  1.02084E+04
 -4.13235E+03  3.79400E+03 -6.05396E+01 -9.40776E+02  2.64298E+03 -5.81716E+03  3.64780E+03 -1.70140E+03
  2.41942E+02  3.32863E+03  3.99549E+03  7.08921E+03 -3.82783E+03  6.58027E+03 -1.08633E+04  9.90194E+02
 -2.49487E+03 -7.50316E+03  1.05077E+03 -1.14702E+04  6.23257E+03 -4.78645E+03  2.05858E+03  5.41295E+03
  3.24908E+03  5.01798E+03 -4.43167E+03  3.71006E+03 -3.01485E+03  1.98740E+03 -4.35557E+03 -2.35207E+03
 -4.86450E+03 -9.24581E+03  5.70879E+03 -1.36305E+04  7.63300E+03 -9.59679E+03  9.61836E+03  1.09267E+02
  6.88966E+03  8.13113E+03 -2.32955E+03  1.11047E+04 -8.74434E+03  7.35745E+03 -5.62653E+03 -2.26540E+03
 -7.96222E+03 -9.62231E+03 -5.86526E+02 -5.09829E+03  3.92601E+03 -6.63057E+03  4.88157E+03 -4.18919E+02
  1.25150E+03  5.89552E+03 -6.14779E+02  2.01043E+03 -1.42176E+03 -5.38252E+03  2.22725E+03 -2.54314E+03
  3.42078E+03  1.37120E+03  1.04985E+04 -4.93767E+02  8.08447E+03  5.91589E+03  8.97525E+03  7.61118E+03
  1.89383E+03  2.24308E+03 -1.63646E+04  1.12034E+04 -1.18267E+04  3.57792E+03 -1.28402E+04 -7.73597E+03
 -8.55366E+03 -8.13148E+03  4.50788E+03 -1.53875E+04  1.12937E+03 -1.70777E+03  4.22000E+03 -5.09907E+03
 -3.06612E+03 -4.65955E+03  2.10740E+03 -2.28867E+03  8.15914E+03 -6.14227E+03 -1.20901E+03  3.78334E+03
  6.47299E+03  6.02291E+03 -9.68184E+02 -7.60666E+02  1.55854E+03  7.27087E+03 -8.91504E+03  4.11349E+03
 -1.61953E+04 -3.12690E+03 -3.38911E+03 -3.92554E+03  1.14528E+03 -1.15631E+04  4.16925E+03 -6.45180E+03
  6.44653E+03 -8.86688E+03  1.21619E+04  2.81205E+02  1.02864E+04  6.98344E+03  4.81871E+03  6.56679E+03
 -2.54363E+02  9.99276E+03 -3.09339E+03  6.25549E+03 -2.38985E+02 -2.41962E+03  4.38352E+02 -3.66362E+03
 -5.81323E+03 -1.17352E+03 -3.52033E+03  1.55393E+03 -4.62738E+03 -1.29918E+03 -4.20857E+03 -9.24203E+02
 -2.65437E+03 -6.33098E+03 -6.52382E+03 -5.85309E+03  6.99452E+03 -6.96868E+03  6.10831E+03  1.88243E+03
  9.55858E+03  5.77808E+03  3.41220E+02  7.62029E+03 -4.44185E+03  1.03392E+04 -3.47065E+03  5.83620E+03
 -1.38931E+03  3.90056E+03 -7.75387E+03 -5.13224E+03 -2.44391E+03 -7.10578E+03  7.70971E+03 -6.54241E+03
  5.87096E+03 -2.36899E+03  8.89867E+02 -9.39725E+02  3.17232E+02  5.40303E+03  3.46869E+03 -8.11995E+02
 -1.64368E+03  6.87768E+02  6.57342E+03  1.99431E+03  3.84654E+03 -1.77705E+03  3.49126E+03  6.91841E+03
 -2.32012E+03  3.41421E+03 -3.67613E+03  2.91674E+03 -1.07071E+04  2.60155E+03 -5.98442E+03 -2.03269E+03
 -4.51524E+03 -4.65664E+03 -4.11590E+02 -8.12586E+03  1.98990E+03 -3.17117E+03  1.19851E+04 -4.51605E+02
  9.10994E+03  2.67822E+03  3.34193E+02  9.63475E+02  2.17519E+03  4.23150E+03 -1.21437E+03 -2.42167E+03
 -3.84253E+03  3.21127E+02  1.09004E+03 -2.50219E+03  3.34553E+03 -7.46337E+02  2.66746E+03  2.40991E+03
  3.74020E+03  3.63211E+03 -1.70796E+03  1.95834E+03 -1.90357E+03  1.64769E+03  3.91786E+03 -2.92774E+03
 -2.70935E+02  2.66243E+03  7.69776E+03  3.41006E+03  4.16283E+01  5.05775E+02 -1.17055E+03  9.31912E+03
 -6.44689E+03  1.43288E+03 -9.33850E+02 -3.64462E+02 -5.05529E+03 -5.02561E+02 -2.25171E+03 -1.62770E+03
  3.28661E+02  1.11613E+03  3.31317E+03  6.50022E+02 -9.04327E+02  1.66468E+03  1.39359E+03  2.85074E+03
  2.94392E+01  4.14401E+03 -6.19450E+03 -3.54039E+03  3.02287E+03 -4.14190E+03  5.15407E+03 -2.68826E+03
  3.39081E+03 -1.52343E+03  2.63954E+03 -1.42044E+03  1.65982E+03  3.59021E+03 -3.17739E+03  8.03511E+02
 -4.19253E+02  1.29174E+03  3.08815E+03  2.11383E+03  7.89889E+03 -6.73563E+02  3.47544E+03  3.72016E+03
 -2.62667E+02 -4.35684E+03  4.43052E+03  2.94565E+03  8.16382E+02  2.01809E+03  7.55834E+01  6.99741E+03
 -5.40088E+03  2.59844E+02 -7.47151E+03 -2.69804E+03 -1.73822E+03 -5.77060E+03  5.27429E+03 -2.90091E+03
  5.84431E+02 -5.12905E+03  4.73825E+02  1.94538E+03  3.14330E+03  2.48200E+03 -2.99947E+03  3.31184E+03
  4.20139E+02 -1.12520E+03  2.56008E+03 -1.35002E+02  1.52900E+03  3.83189E+03 -4.62571E+02  2.30877E+03
 -4.45775E+03  8.15668E+02 -3.51254E+03  3.14899E+03 -2.15785E+03 -4.48888E+03 -1.64095E+03 -5.21906E+03
 -1.56077E+03 -1.16509E+04 -5.35517E+03 -5.03403E+03 -2.35930E+03 -3.84908E+03  1.78537E+03 -5.26502E+02
  5.40289E+03  2.11383E+03  5.13973E+03  6.21407E+03 -3.66483E+03  4.60991E+03 -5.17973E+03  2.05225E+03
 -7.82455E+03 -1.46443E+03  7.10373E+02 -5.68745E+03  1.65578E+03  2.78870E+03 -2.24873E+03 -4.57221E+02
 -1.19154E+02 -9.27715E+02 -1.96833E+02 -1.62364E+03 -7.05256E+03 -1.55977E+02  4.30335E+03  5.09472E+02
 -2.63780E+03 -3.30441E+03  1.43546E+02 -7.49442E+02  1.71606E+03  2.56419E+03  3.39562E+03  7.15329E+03
  1.78976E+03  4.16915E+03 -4.42984E+03  7.94037E+02 -2.37487E+03 -6.40337E+03 -1.59362E+03 -4.33237E+03
  3.27008E+02 -1.84935E+03 -1.89407E+02 -2.63123E+03 -1.65037E+03 -3.42495E+03  4.92652E+03  2.93193E+03
  4.23667E+03  6.89414E+03 -2.29828E+03 -1.33450E+03 -1.83029E+03 -1.91388E+03  2.14176E+03 -5.13460E+03
 -7.31471E+02 -4.23087E+03  2.50325E+03 -1.60172E+03  4.88937E+02 -1.29347E+03  1.61765E+03 -1.13874E+03
 -3.42561E+03  3.55571E+03 -3.05899E+03  2.58878E+03  1.96996E+03  3.86080E+01 -1.91244E+03 -1.02066E+04
  2.87731E+03 -2.35185E+03 -3.19769E+03 -2.27850E+03  1.42970E+03 -4.60876E+03 -8.77260E+02  3.83725E+03
 -4.10899E+03  1.22364E+03 -8.00488E+02 -7.69849E+01 -1.98106E+03  3.35367E+03 -2.68583E+03  2.79611E+03
 -8.13160E+02 -2.06225E+03 -9.62499E+02  4.28608E+02 -1.62828E+03  2.66332E+03  2.50048E+03 -5.10949E+03
  2.34775E+03 -2.05824E+03 -4.35464E+03 -2.71513E+03 -3.56420E+03 -3.57505E+03 -1.32500E+03 -1.58613E+03
 -6.92691E+03  4.59257E+03 -7.33014E+02 -4.39044E+03 -2.17865E+03  3.64345E+03 -5.35363E+03  2.48266E+03
