 $NMID ID='MM_0lb_SNR50_17hz_g60_69.RAW', FMTDAT='(8E13.5)'
 TRAMP=1., VOLUME=1. $END
  3.10257E+05 -2.03696E+03  3.37498E+05  2.49890E+05  8.18362E+04  3.34558E+05 -1.30036E+05  2.50786E+05
 -1.91844E+05  8.42881E+04 -1.11574E+05 -3.10862E+04  5.89874E+01 -5.32605E+04  5.58626E+04 -5.85524E+02
  3.39654E+04  5.56158E+04 -1.59336E+04  7.60831E+04 -5.92005E+04  6.65337E+04 -8.41496E+04  3.63978E+04
 -8.12741E+04 -1.05611E+04 -5.47577E+04 -5.10372E+04 -1.39453E+04 -6.91184E+04  2.89026E+04 -4.51213E+04
  3.98102E+04  3.60416E+03  1.49120E+04  4.75264E+04 -3.57572E+04  4.68470E+04 -7.06658E+04  2.40461E+03
 -5.15560E+04 -5.78718E+04 -5.39724E+03 -8.16815E+04  3.29097E+04 -6.26048E+04  4.89808E+04 -1.78312E+04
  4.14438E+04  1.02437E+04  3.50536E+04  1.57720E+04  2.05841E+04  3.63813E+04 -6.34743E+03  2.66602E+04
 -2.34770E+04  1.56227E+04 -2.08557E+04 -4.62795E+03  7.81593E+02 -6.60568E+03  2.07520E+04  1.01789E+04
  7.61335E+03  3.20615E+04 -3.14754E+04  3.31959E+04 -6.17263E+04  6.34814E+02 -5.67196E+04 -4.38054E+04
 -1.35366E+04 -6.32997E+04  4.29348E+04 -4.50277E+04  5.68692E+04 -1.48241E+02  3.50294E+04  2.73520E+04
 -8.52434E+03  3.44782E+04 -2.78549E+04  1.07326E+04 -3.17813E+04 -7.67101E+03 -1.77399E+04 -1.15251E+04
 -1.03179E+04 -1.15336E+04 -1.66813E+03 -2.26392E+04  1.18027E+04 -1.67828E+04  1.63399E+04 -1.21023E+04
  8.41698E+03  7.03196E+03 -1.12510E+04  1.15442E+04 -1.98967E+04 -4.28265E+03 -1.23951E+04 -3.37410E+04
  2.66026E+04 -3.63964E+04  4.76162E+04 -1.15489E+04  3.85812E+04  2.01911E+04  1.94218E+04  4.33117E+04
 -1.40983E+04  3.45451E+04 -2.76173E+04  2.57966E+03 -9.10126E+03 -2.53992E+04  2.19603E+04 -3.16639E+04
  4.00984E+04 -7.22257E+03  3.29188E+04  2.09158E+04  1.91785E+04  4.77957E+04 -8.43630E+03  4.80612E+04
 -3.10056E+04  3.15600E+04 -3.38848E+04  1.31563E+04 -4.14804E+04 -1.46438E+04 -2.77066E+04 -4.00552E+04
  9.99851E+03 -3.91446E+04  3.21166E+04 -1.31100E+04  2.93988E+04  9.63394E+03  1.37488E+03  1.60797E+04
 -1.20252E+04  7.85413E+03 -1.21789E+04 -2.16338E+03  2.28936E+03 -1.30753E+04  2.31595E+04  7.00288E+03
  8.61734E+03  2.01826E+04 -5.86492E+03  2.09451E+04 -2.36058E+04  1.13632E+04 -2.91728E+04 -7.82200E+03
 -1.77404E+04 -1.73313E+04 -5.01379E+03 -1.79416E+04  2.71736E+03 -2.03017E+04  1.55453E+04 -2.04802E+04
  2.40519E+04 -9.89648E+03  3.01962E+04  5.40042E+03  2.37391E+04  1.51874E+04 -1.71677E+02  3.74323E+04
 -2.05522E+04  3.21258E+04 -2.71557E+04  1.42177E+04 -2.20292E+04 -7.54624E+03 -4.31104E+03 -1.07303E+04
  3.82552E+00 -1.44218E+03 -4.38428E+02  9.43071E+03 -1.38583E+04  7.68625E+03 -1.84947E+04 -4.88553E+03
 -9.47106E+03 -2.07699E+04  7.64242E+03 -1.88870E+04  1.06859E+04 -1.71269E+04  1.68901E+04  8.98505E+02
  4.32172E+03  1.11144E+04  6.63983E+02  1.84520E+04 -1.55927E+04  8.48549E+03 -2.00341E+04 -7.64970E+02
 -1.32694E+04 -1.34710E+04 -1.51353E+03 -2.19142E+04  4.92998E+03 -2.11872E+04  2.12077E+04 -5.07226E+03
  1.93307E+04  1.39374E+03  1.27781E+04  4.54198E+03  5.96729E+03  9.07012E+02  9.17937E+03  1.32486E+03
  1.51517E+04  2.90099E+03  1.79451E+04  1.80323E+04  1.46722E+04  2.55861E+04 -1.73278E+03  2.60244E+04
 -1.46124E+04  2.17976E+04 -2.79012E+04  1.11319E+04 -3.30215E+04 -8.69194E+03 -2.63489E+04 -1.93199E+04
 -8.73316E+03 -2.31255E+04  7.40958E+03 -2.53627E+04  1.63939E+04 -1.44399E+04  1.72322E+04  7.16392E+03
  9.73183E+03  1.50139E+04 -7.32882E+03  1.59036E+04 -1.97477E+04  2.89930E+03 -1.39577E+04 -6.43757E+03
  2.12330E+03 -1.21823E+04  5.04599E+03 -9.21286E+03  1.01755E+04 -2.93423E+03  2.20428E+03  5.63186E+03
 -8.32137E+03  3.00852E+03 -5.53021E+03 -1.07320E+04 -1.21187E+03 -1.19335E+04  5.79845E+03 -1.07102E+04
  1.72559E+04 -9.10238E+03  1.69033E+04 -6.49596E+02  1.40130E+04  1.07995E+04  6.99165E+03  1.62138E+04
 -5.30859E+02  1.78292E+04 -1.51753E+04  1.27977E+04 -1.20607E+04  4.68145E+03 -9.52129E+03 -5.38632E+03
 -8.66498E+03 -9.34014E+03 -2.43836E+03  5.03274E+03 -1.44260E+03  8.35489E+03 -5.30588E+03  5.85314E+03
 -7.24874E+03 -6.57722E+03 -9.27751E+03 -9.33388E+03 -9.05496E+02 -1.05212E+04  4.49587E+03 -1.40699E+04
  3.65234E+03 -4.45644E+03  6.72368E+03 -1.56725E+03  2.50249E+03  3.74097E+03 -5.42293E+03  1.78831E+03
 -4.19599E+03 -7.26683E+03 -3.76061E+03 -5.81311E+03  1.14013E+04 -7.86433E+03  1.18222E+04 -8.27023E+03
  1.24059E+04  1.79554E+03  1.14463E+04  1.06881E+04 -5.30777E+02  8.94794E+03 -2.10870E+03  7.71981E+03
 -9.74183E+03  3.58700E+03 -4.37573E+03 -8.94810E+03  3.75181E+03 -1.88805E+03  7.31790E+03  6.94194E+02
  5.60553E+03  4.03615E+03 -1.01382E+03  1.06261E+04 -3.90840E+03  5.26753E+03 -7.13560E+03 -1.37608E+03
 -3.22480E+03 -2.51718E+03 -3.23355E+03 -3.91635E+03  3.41176E+03 -2.78877E+03  2.42282E+03  2.53929E+03
 -7.83425E+02  3.83119E+02 -8.84164E+03  3.00379E+03 -2.51470E+02  7.35627E+03 -5.37613E+03 -2.28551E+03
 -5.76418E+03 -8.65339E+03  3.15625E+03 -6.22119E+03  1.31642E+04 -4.59368E+03  8.87311E+03 -3.14709E+03
  8.82946E+03  5.83796E+03 -8.22933E+02  9.36161E+03 -7.58172E+03  4.81210E+03 -7.06565E+03  1.76769E+02
 -5.40599E+03 -3.79294E+03 -1.67758E+03 -4.89996E+03  4.80130E+03 -4.50230E+03  2.72110E+03 -3.22292E+03
 -1.32357E+03 -2.79297E+03 -4.53966E+03  3.61341E+03 -2.07200E+03  5.13604E+02 -2.42143E+02 -7.84396E+03
  2.40992E+03 -4.05487E+03  8.33841E+03  9.03560E+02  8.79359E+03  2.11842E+03  8.16467E+03  9.70833E+03
 -9.12973E+03  8.85917E+03 -8.03834E+03  1.24430E+04 -1.36934E+04  2.70477E+03 -1.22782E+04 -5.20845E+03
 -8.13688E+03 -1.04107E+04 -3.79475E+03 -3.72431E+03  8.92023E+03 -4.49431E+03  1.84483E+03 -7.25321E+02
  4.99043E+03 -3.42937E+03  4.20999E+03 -4.93947E+03  7.51641E+03 -7.66843E+02 -9.14939E+02  3.52341E+03
  6.52219E+03  6.03417E+03  2.69980E+03  4.37921E+03 -1.20292E+03  4.91935E+03 -7.38533E+03  4.76310E+03
 -1.46563E+03 -2.18556E+03  1.32219E+03 -2.43748E+03 -7.08040E+02 -5.33338E+03  5.74634E+03 -1.03043E+04
  7.55277E+03 -2.42316E+03  9.62934E+03 -5.83514E+02  4.91269E+03  3.78493E+03  3.84744E+03  8.00758E+03
 -4.00963E+03  5.69022E+03  1.75037E+03 -9.23142E+01  8.07102E+02 -1.31768E+03 -4.60782E+03 -1.45795E+03
 -1.03245E+03  3.58255E+03 -4.05489E+03  8.60712E+02 -7.25296E+02 -2.81110E+02 -2.04583E+02  3.17242E+03
 -2.55032E+03 -7.62515E+03 -1.94260E+03 -6.72975E+02  2.82865E+03 -6.02337E+03  5.95170E+03 -3.43251E+03
  7.07942E+03  6.90650E+03  5.62489E+02  6.07671E+03  2.48260E+03  4.97263E+03 -1.12865E+03  2.66561E+03
 -4.32684E+03  4.23814E+03  4.84972E+01 -3.41448E+03  2.25930E+03 -7.67170E+03  7.52073E+03 -1.83275E+03
  5.72127E+03  4.33772E+02  5.69518E+03 -2.12806E+03  2.35640E+03  1.75708E+03  9.82602E+02  1.76748E+03
  3.11907E+02 -1.37369E+03  2.52109E+02  1.96807E+03 -2.25300E+03  2.23743E+03  4.45188E+03  9.39774E+02
 -3.12819E+03  5.05403E+03 -2.56781E+03  2.10725E+03 -6.21735E+03 -3.91982E+02 -5.71601E+03  3.55360E+02
 -8.59654E+03  4.52027E+00  3.17200E+02 -7.90441E+03  2.29346E+03 -2.69172E+03  4.52559E+03 -1.21187E+03
  1.04492E+03  1.60087E+03  3.75218E+03  1.84935E+03  1.65374E+03 -3.37529E+02 -3.70154E+03  1.61342E+02
  2.47816E+03 -3.25236E+03  2.63255E+03 -4.05576E+03  1.07839E+03  4.40178E+02  2.53612E+03 -2.68054E+03
  3.14711E+03  1.60655E+03  8.67841E+00  1.32814E+03 -3.64223E+03  1.35432E+03  8.01510E+00 -4.84623E+03
  7.17085E+01 -2.19130E+03 -2.05271E+03  2.43707E+03  1.11042E+02  4.73226E+03 -7.52849E+01  7.28198E+02
 -7.76101E+02  2.47033E+03 -7.06894E+03 -9.50145E+02 -2.85810E+03 -8.18923E+02 -9.40811E+02 -4.22578E+02
 -2.30283E+03 -3.66430E+02  3.85751E+03 -1.45224E+03  3.01111E+03  5.91773E+03 -2.28701E+03  1.17593E+03
 -3.11697E+03  3.48468E+01 -6.79469E+03 -2.86345E+03 -9.90442E+02 -3.24179E+03  2.16817E+03 -4.50166E+03
  1.92471E+03  2.67377E+03 -7.49167E+02  1.88299E+03 -1.63919E+03  4.14399E+03 -3.65632E+03  3.17390E+03
  2.19016E+03 -1.74441E+03 -1.90176E+02  2.22808E+03  8.13717E+02 -5.13352E+03  2.25122E+03  5.54797E+02
 -1.13295E+03 -8.56919E+02  5.24305E+03  3.28566E+03  7.31580E+03  1.36393E+03 -2.62304E+03  2.22232E+03
  1.96268E+03 -2.93804E+03 -5.84509E+03 -6.85883E+03 -5.29172E+03 -4.18031E+03 -4.67278E+00 -3.39688E+03
  7.48531E+03 -1.72777E+03 -6.10022E+02  5.79592E+03  1.46514E+03  4.44847E+03 -7.17146E+02  4.73536E+03
  1.36974E+01 -1.68201E+03 -2.19290E+03  2.26980E+03  2.28004E+03 -1.07077E+02 -2.77662E+03  5.12482E+03
 -4.46853E+02  7.52414E+02 -1.31544E+03  1.87396E+03 -5.62841E+02 -1.51901E+03 -4.76791E+03  1.82750E+03
 -9.30390E+03 -2.81902E+03 -2.06386E+03 -4.61616E+03  9.22453E+02 -2.81547E+03  5.20621E+03 -2.39595E+03
  2.63417E+02 -2.31720E+03  9.04739E+03 -6.28648E+02 -1.36841E+03  3.49196E+03 -1.49941E+01  1.36823E+03
 -5.16725E+03 -3.63525E+03 -6.60065E+02 -1.87729E+03 -2.99579E+03  1.41353E+03 -1.53953E+03  7.09124E+02
  1.79773E+03 -9.88840E+02 -2.03536E+03  2.79100E+03  3.11304E+03 -2.43145E+03 -2.00194E+03 -2.18355E+03
 -3.07291E+03  4.63755E+02 -1.50382E+03  1.26612E+03  3.82553E+02 -5.05389E+02  1.36387E+03 -2.85390E+03
 -1.06947E+03 -3.57410E+03 -1.11869E+03  5.58624E+03  3.90598E+03  5.23812E+02 -2.48814E+03  2.01609E+03
 -1.71557E+03  1.55006E+03  3.24780E+02 -3.33943E+03  3.05116E+02 -7.48862E+03  5.32579E+02  3.91520E+02
  4.14505E+03 -1.55378E+03  1.77828E+03  1.36006E+03  1.41407E+03 -7.49326E+00  7.52805E+02 -3.95436E+03
  4.13333E+03  2.86297E+03 -1.42598E+03 -2.71108E+03  3.27865E+03 -4.18245E+03  2.36313E+03  1.28722E+03
  7.09217E+02  9.22159E+02  2.30370E+03  1.69716E+03  2.49309E+03 -3.49242E+03  1.12274E+02 -5.45835E+03
  3.04754E+03  3.85816E+03  6.07555E+02 -1.81010E+03  4.67349E+03 -5.00561E+02 -9.03093E+02 -6.48651E+03
  5.27276E+03 -3.57257E+02  4.09572E+02 -1.56568E+03 -1.17356E+03 -9.79691E+02  1.47537E+03 -4.95833E+01
  3.33763E+02 -4.70821E+01 -6.35970E+02  3.67588E+01 -1.76697E+03 -1.29467E+03  7.82460E+02  2.28373E+03
 -3.10957E+03  2.46582E+02 -2.73015E+03 -4.44880E+03  6.25392E+02 -1.37813E+03 -8.60810E+02  1.45758E+03
  4.86035E+03 -2.08622E+03 -9.96067E+02 -4.14436E+03 -1.60192E+03  4.45782E+02 -1.95914E+03  9.47654E+02
