 $NMID ID='MM_0lb_SNR50_14hz_g60_26.RAW', FMTDAT='(8E13.5)'
 TRAMP=1., VOLUME=1. $END
  3.11122E+05 -1.18413E+03  3.36205E+05  2.49704E+05  8.59840E+04  3.34842E+05 -1.29121E+05  2.49207E+05
 -1.89758E+05  8.90831E+04 -1.08121E+05 -2.93881E+04 -1.88285E+03 -5.28552E+04  5.33042E+04 -1.68933E+03
  3.25989E+04  5.00200E+04 -2.31069E+04  7.36727E+04 -6.08094E+04  5.97688E+04 -8.40558E+04  3.52922E+04
 -8.08439E+04 -1.46230E+04 -5.50009E+04 -5.27914E+04 -1.18824E+04 -7.13849E+04  3.03061E+04 -4.87000E+04
  4.49180E+04 -3.71039E+02  2.02359E+04  4.45940E+04 -3.83542E+04  4.70621E+04 -6.54638E+04 -6.80041E+02
 -5.02479E+04 -5.21228E+04 -8.58071E+03 -8.07968E+04  3.35291E+04 -5.41378E+04  4.80188E+04 -1.39071E+04
  3.91916E+04  1.08066E+04  2.92697E+04  2.77149E+04  1.62184E+04  2.97799E+04 -1.75171E+03  2.85032E+04
 -2.34125E+04  1.20467E+04 -1.48710E+04 -4.94534E+03  3.74731E+03 -3.47309E+03  2.55942E+04  1.71653E+04
  8.16199E+03  3.16619E+04 -3.06500E+04  3.78828E+04 -6.68858E+04  6.48213E+03 -5.94397E+04 -4.39233E+04
 -1.07465E+04 -6.41884E+04  4.14275E+04 -5.09957E+04  6.18664E+04 -2.54805E+03  3.81395E+04  3.58238E+04
 -1.36513E+04  3.80064E+04 -3.38072E+04  1.54313E+04 -3.07130E+04 -7.30298E+02 -1.52298E+04 -1.24130E+04
 -1.05856E+04 -1.19146E+04 -9.32295E+02 -1.85875E+04  7.66802E+03 -2.82470E+04  1.38893E+04 -1.12477E+04
  1.19580E+04  7.26392E+03 -7.54235E+03  1.73371E+04 -2.21295E+04 -2.77937E+03 -1.16913E+04 -3.71684E+04
  2.31676E+04 -4.12099E+04  4.81881E+04 -2.01770E+04  5.09753E+04  1.76943E+04  1.85540E+04  4.55202E+04
 -1.58581E+04  3.67464E+04 -2.02429E+04  3.57090E+03 -8.96589E+03 -2.97630E+04  1.96249E+04 -2.98504E+04
  3.84174E+04 -9.62230E+03  3.30462E+04  2.13802E+04  1.93983E+04  4.29431E+04 -1.07765E+04  5.49061E+04
 -3.08883E+04  3.59831E+04 -4.48457E+04  7.76939E+03 -4.29733E+04 -2.25171E+04 -2.51126E+04 -3.79690E+04
  6.78772E+03 -3.64657E+04  2.93003E+04 -1.85245E+04  3.35469E+04  1.27899E+04 -1.10048E+01  2.03770E+04
 -1.34321E+04  1.07918E+04 -1.38117E+04 -1.03196E+04  9.04948E+03 -1.35253E+04  1.91805E+04  2.41278E+03
  2.22555E+04  2.53228E+04 -3.38931E+03  2.47365E+04 -2.84992E+04  1.82442E+04 -3.42743E+04 -4.36585E+03
 -2.39261E+04 -1.95287E+04 -1.17459E+04 -2.16721E+04  5.90551E+03 -2.44252E+04  2.15033E+04 -2.32866E+04
  2.44070E+04 -1.52207E+04  3.42159E+04  3.95763E+03  2.78639E+04  2.02427E+04  9.06379E+03  4.14543E+04
 -2.08891E+04  2.99728E+04 -3.04361E+04  6.97838E+03 -1.99131E+04 -1.77616E+03 -4.60923E+03 -8.09789E+03
  6.09667E+03 -4.34109E+03 -7.97507E+03  9.78028E+03 -1.76728E+04  6.45416E+02 -1.51671E+04 -9.46524E+03
 -1.01796E+04 -1.79991E+04  9.19607E+03 -2.24587E+04  1.63299E+04 -1.65278E+04  2.16537E+04 -1.93953E+03
  8.65702E+03  1.34332E+04 -1.23188E+03  2.75213E+04 -1.62152E+04  9.59757E+03 -2.27975E+04  9.88660E+01
 -1.72291E+04 -1.88055E+04 -2.96972E+03 -2.70668E+04  1.48473E+04 -2.05013E+04  2.12415E+04 -6.83445E+03
  2.04180E+04 -3.39188E+03  1.47272E+04  7.03750E+03  1.13258E+04  1.89820E+03  1.47060E+04 -7.21327E+02
  1.98251E+04  8.57347E+03  2.23596E+04  1.99545E+04  1.53084E+04  3.14640E+04 -4.06163E+03  3.88285E+04
 -1.89916E+04  2.95508E+04 -3.45252E+04  1.46472E+04 -3.78547E+04  3.63517E+03 -2.80418E+04 -1.97954E+04
 -1.45176E+04 -2.62100E+04  1.01083E+04 -2.11204E+04  2.64889E+04 -9.79807E+03  2.39794E+04  8.75155E+03
  5.99190E+03  1.77904E+04 -9.59280E+03  1.73978E+04 -2.20517E+04 -1.05989E+03 -8.12691E+03 -1.45037E+04
  1.18802E+03 -1.47260E+04  1.38197E+04 -1.24977E+04  1.22447E+04 -8.16459E+03  1.54175E+03  8.46520E+03
 -8.56770E+03  3.09739E+03 -7.38087E+03 -6.40866E+03 -3.35597E+03 -1.57894E+04  7.38048E+03 -1.73115E+04
  1.57970E+04 -6.91183E+03  2.29873E+04 -5.43939E+02  1.72448E+04  1.51625E+04  9.50358E+03  2.22905E+04
 -5.80544E+03  2.06667E+04 -1.82684E+04  1.66215E+04 -1.56219E+04  4.20849E+03 -1.48661E+04 -3.78205E+03
 -3.21487E+03 -6.38332E+03  1.88490E+03  5.45195E+02 -1.21073E+03  3.52653E+03 -1.14884E+04  9.45905E+03
 -1.02754E+04 -2.37845E+01 -9.21422E+03 -1.55626E+04 -5.60561E+03 -1.86324E+04  1.50701E+03 -1.22354E+04
  8.25321E+03 -6.09202E+03  8.03396E+03  1.76455E+03  1.70989E+03  3.75125E+03 -5.62282E+03  2.07230E+03
 -5.43319E+03 -7.03365E+03  1.39547E+03 -4.70700E+03  7.33335E+03 -1.33436E+04  1.71864E+04 -3.16657E+03
  1.84352E+04 -3.90792E+02  1.39960E+04  1.29843E+04  5.02447E+02  1.13555E+04 -9.31951E+03  1.23807E+04
 -1.13778E+04  2.61487E+03 -7.93794E+03  4.93024E+02 -3.17437E+03 -6.43714E+03  6.50050E+03  6.31752E+02
  7.06793E+03  1.07828E+04  1.28453E+03  1.08718E+04 -5.49387E+03  8.28061E+03 -9.89504E+03  7.93906E+03
 -1.26380E+04 -6.97156E+03 -4.48587E+03 -1.22336E+04  7.32993E+03 -7.63721E+03  4.57991E+03  4.12775E+02
 -8.01068E+02  6.79269E+03 -5.39002E+03  6.87366E+03 -1.17478E+04  1.60174E+03 -9.54711E+03 -1.64857E+02
 -4.27343E+03 -9.12345E+03  1.17264E+03 -1.05938E+04  9.60667E+03 -6.34463E+03  1.24850E+04 -2.77964E+03
  5.02284E+03  1.14564E+04  3.08197E+03  8.98921E+03 -7.60590E+03  5.68734E+03 -7.37160E+03 -6.93073E+02
 -4.26342E+03 -9.72059E+03 -1.62493E+03 -9.01946E+03  2.20928E+03 -6.79145E+03  3.12854E+03 -2.30307E+03
  5.91662E+03  2.78417E+03  4.99401E+02 -1.62840E+03  1.85477E+03 -1.65226E+03 -2.99593E+03 -1.33095E+03
  4.90391E+03 -4.06809E+03  9.62066E+03  2.01785E+03  6.86945E+03  7.82300E+03  6.31305E+03  1.26283E+04
 -3.49333E+03  1.55911E+04 -1.60652E+04  1.57277E+04 -1.62184E+04  3.41585E+03 -1.28083E+04 -5.18335E+03
 -3.40723E+03 -1.34368E+04 -6.27192E+02 -1.13293E+04 -1.68688E+03 -5.10807E+03  2.49778E+03  3.77333E+02
  3.46268E+03  1.77534E+03  3.85484E+03  6.29582E+02  5.88583E+03 -1.35718E+03  2.92810E+03  3.82843E+02
  7.41073E+03 -1.80064E+03  7.17408E+03  9.54023E+03 -4.00068E+02  2.08318E+03 -7.81343E+03  1.25248E+04
 -8.62864E+03  1.08799E+03 -6.48566E+03 -7.59715E+03 -7.26099E+02 -1.33120E+04  4.53200E+03 -1.26362E+04
  8.01250E+03 -9.02550E+03  1.38926E+04 -6.03581E+02  7.59641E+03  6.61327E+03  3.63585E+03  1.12470E+04
  8.38602E+02  1.31441E+04 -9.96874E+03  1.17308E+03 -8.26513E+03 -7.10320E+02  7.68311E+02 -1.95785E+03
 -6.84595E+02  1.61789E+03  1.50073E+03  3.25254E+03 -8.07287E+02  4.53854E+03 -7.72784E+03 -1.46459E+03
  3.48676E+02 -6.86706E+03  3.45035E+03 -1.13224E+04  5.82808E+03 -8.06745E+03  2.42207E+03  1.93254E+03
  1.15264E+04  4.62169E+03  5.04785E+03  8.49647E+03 -2.09879E+03  5.35717E+03 -5.02388E+03  6.63676E+03
 -3.94788E+03 -2.09110E+03 -5.11950E+03 -6.69392E+03  6.70864E+02 -7.34568E+03  4.16667E+03 -1.44487E+04
  6.41021E+03 -6.77955E+02  6.85224E+03  1.75510E+03  2.40030E+03  6.82265E+02  1.46695E+03 -3.43323E+03
  2.77091E+03  2.46579E+03  2.13877E+03  2.25556E+03  4.45860E+03  7.24262E+03  9.24999E+01  8.68594E+03
  1.79939E+03  1.22127E+04 -4.02329E+03  4.81718E+03 -9.56278E+03  7.18458E+03 -5.94775E+03 -6.77122E+03
 -1.34742E+03 -6.62546E+03  4.02253E+03 -4.99083E+03  8.32248E+03 -1.27207E+03  5.85631E+03 -3.20080E+03
  4.15934E+03  2.62274E+03  2.21378E+03  9.57345E+03  2.80647E+03  5.94834E+03 -1.55116E+03  3.74227E+02
 -4.42821E+03 -4.82076E+02 -5.63273E+02 -1.42521E+03  5.21133E+03 -5.88152E+03  1.20590E+03  2.15417E+03
  5.50938E+03 -7.55992E+02 -1.31461E+03  2.15270E+03 -5.79291E+03 -2.94666E+03 -2.30855E+03 -4.40834E+02
 -6.08589E+02  3.89507E+03  1.04857E+04 -6.93184E+03  9.53846E+02  4.69387E+03 -3.99979E+03  7.15088E+03
 -6.24724E+02  2.53275E+03 -2.23864E+03 -2.63028E+03 -3.44929E+03 -1.37595E+03 -6.09482E+03  1.74351E+03
  1.61150E+03 -4.67720E+03  8.76992E+02 -1.07083E+03  1.33574E+03  1.31371E+03 -1.27952E+03  1.85188E+03
 -2.39516E+03  5.15198E+03  2.91291E+03 -9.12835E+02 -3.18177E+03 -3.58002E+03  1.34284E+03 -5.53081E+03
 -1.15794E+03 -7.73085E+03  5.26363E+03 -2.15386E+03  1.06396E+03 -2.72407E+02  4.68820E+03  6.88774E+03
 -6.57425E+03 -2.43547E+03 -1.16719E+03  4.65147E+02  2.05737E+03  2.57770E+03  5.29158E+03  3.83457E+03
  2.22940E+02 -1.29835E+03  7.89523E+02 -5.98335E+03  2.75607E+03  2.87386E+03 -1.01069E+03  9.77931E+03
 -1.92538E+03  5.20557E+03 -5.88160E+03  7.65957E+02 -2.63901E+03 -1.94111E+03  4.17543E+03 -4.12269E+03
  1.98419E+03 -2.31993E+03  2.02010E+03 -1.54779E+03  3.31899E+03  2.07431E+03  1.96106E+03  3.15121E+03
  7.18884E+03  2.94276E+03 -4.52429E+03  4.28948E+03  2.75769E+03 -4.54264E+03 -1.25671E+03  2.66245E+03
  1.89394E+02  1.03387E+01 -1.80659E+03 -7.89989E+02 -5.75979E+03  7.04703E+03 -6.24941E+03 -5.63017E+03
 -1.69634E+03 -5.52174E+03 -1.72193E+03 -5.16407E+03  2.03716E+03 -9.13807E+03  7.31107E+03 -9.67971E+02
  9.84304E+03  3.21462E+03  1.88880E+03  6.46510E+03 -7.94607E+02  6.92647E+03  7.53956E+02  7.14292E+03
 -2.71137E+03  5.61714E+03 -3.58722E+03  3.50259E+02  3.50728E+03 -2.00623E+03  9.81275E+02 -2.61457E+03
 -3.68564E+03  1.15505E+03  3.23748E+02  1.60191E+03  2.17495E+03 -3.44534E+03 -2.16817E+03 -3.78391E+03
 -1.67602E+03 -5.43232E+03  1.80442E+03  1.73094E+03  4.59003E+03  7.42244E+03 -4.68371E+02  4.16652E+03
  1.46821E+02  6.65337E+03 -4.57668E+03  4.76144E+03 -4.99242E+03 -2.89846E+03 -1.90261E+03 -2.76213E+03
 -2.08834E+03 -3.38603E+03  5.18268E+03 -5.09552E+03 -4.99428E+02 -2.67867E+03 -1.59793E+03  7.18909E+02
  2.05517E+03  3.47198E+03  4.12850E+03  5.33194E+03 -3.91107E+03  2.85278E+03 -1.82992E+03 -1.65121E+03
  4.25696E+03 -2.10867E+02  3.01956E+03  3.36990E+03 -1.39911E+03 -2.90497E+03  4.49294E+03 -4.54965E+02
 -4.81751E+03  4.21076E+03  8.47637E+02 -1.41130E+03 -1.30015E+03 -2.92398E+00  1.72313E+02 -3.97573E+03
 -4.98916E+02 -1.60032E+03  6.66496E+03 -1.23044E+03 -2.46430E+03 -2.42962E+03  2.57319E+03 -3.50381E+03
 -1.46162E+02  3.75976E+03 -5.42076E+01  9.08274E+02  2.63071E+03 -1.31681E+03 -3.34586E+03  2.49150E+03
  1.20661E+01 -6.94010E+02 -3.11885E+03 -9.46517E+02  5.04680E+03  2.96966E+03  1.84647E+03  1.55260E+03
 -8.66745E+02  6.01503E+03  1.97134E+03 -4.69854E+03  5.07983E+02 -4.16241E+03  4.54399E+03 -3.69049E+03
  2.79198E+03  2.97443E+03 -1.15998E+03 -1.01194E+03  1.18084E+02  6.42569E+03 -4.49696E+03  1.32325E+03
