 $NMID ID='MM_0lb_SNR50_12hz_g40_52.RAW', FMTDAT='(8E13.5)'
 TRAMP=1., VOLUME=1. $END
  3.10401E+05  2.86121E+03  3.40771E+05  2.47884E+05  8.75230E+04  3.38528E+05 -1.29633E+05  2.49859E+05
 -1.85248E+05  8.60539E+04 -1.10185E+05 -3.19870E+04  3.08629E+03 -5.55466E+04  5.66570E+04  6.80894E+03
  3.46366E+04  4.98627E+04 -2.11086E+04  7.36613E+04 -6.45601E+04  6.35016E+04 -8.50759E+04  3.20551E+04
 -7.87334E+04 -1.09470E+04 -5.91429E+04 -5.10168E+04 -1.49578E+04 -7.00619E+04  2.64514E+04 -4.88318E+04
  4.16851E+04  4.13270E+03  2.31352E+04  4.42856E+04 -3.70127E+04  5.03888E+04 -6.85090E+04  1.83859E+03
 -5.32856E+04 -5.57135E+04 -9.40627E+03 -7.49820E+04  3.37136E+04 -5.07116E+04  5.44049E+04 -1.68297E+04
  4.26793E+04  1.48065E+04  3.21637E+04  2.52554E+04  1.02207E+04  2.49336E+04 -7.73795E+03  3.05984E+04
 -2.41560E+04  1.10877E+04 -1.45383E+04  6.90011E+02  7.47781E+03 -1.01623E+04  2.31822E+04  7.95310E+03
  1.03661E+03  3.34132E+04 -2.63692E+04  3.68992E+04 -6.25530E+04 -4.62124E+02 -5.91051E+04 -4.31439E+04
 -8.76967E+03 -6.45460E+04  4.19251E+04 -4.64575E+04  6.11234E+04 -2.49243E+02  3.44842E+04  3.54326E+04
 -6.93379E+03  3.49985E+04 -2.71107E+04  1.41035E+04 -3.62990E+04 -9.77292E+03 -1.69439E+04 -9.63038E+03
 -1.49951E+04 -8.26110E+03 -1.28172E+03 -1.89150E+04  8.46706E+03 -2.40458E+04  1.38298E+04 -8.35955E+03
  1.52148E+04  4.63476E+03 -1.00471E+04  1.48651E+04 -2.10238E+04 -5.59479E+03 -5.80931E+03 -3.38111E+04
  1.98586E+04 -4.45969E+04  4.44674E+04 -2.27074E+04  4.77317E+04  2.45383E+04  1.71847E+04  4.55235E+04
 -1.72480E+04  3.14952E+04 -2.87076E+04 -1.82227E+01 -1.05885E+04 -3.16531E+04  2.78478E+04 -2.83919E+04
  3.92994E+04 -1.10389E+04  3.34788E+04  1.88571E+04  2.00489E+04  5.09246E+04 -9.65517E+03  5.05492E+04
 -3.15108E+04  3.22311E+04 -4.93981E+04  9.30088E+03 -3.90091E+04 -1.79351E+04 -2.13697E+04 -4.06287E+04
  8.96161E+03 -3.57937E+04  2.88705E+04 -1.13575E+04  3.24248E+04  1.42731E+04  3.27101E+03  1.67922E+04
 -1.38719E+04  1.13635E+04 -6.40261E+03 -6.01992E+03  3.03085E+03 -5.07281E+03  2.18541E+04  4.34861E+03
  1.95466E+04  1.82640E+04 -7.56996E+03  2.41364E+04 -1.77788E+04  1.65804E+04 -2.88821E+04 -7.17747E+03
 -1.82011E+04 -1.68400E+04 -8.23011E+03 -1.99589E+04 -1.15039E+03 -1.69051E+04  1.49203E+04 -1.70737E+04
  2.47973E+04 -7.58889E+03  3.31377E+04  1.09967E+04  2.37072E+04  1.98497E+04  8.58996E+03  4.02322E+04
 -1.76474E+04  3.43775E+04 -2.71374E+04  1.64578E+04 -1.83882E+04 -8.14980E+03 -3.28240E+03 -1.31817E+04
  2.10067E+03 -5.84032E+03 -6.37774E+03  4.45548E+03 -1.71881E+04  5.97201E+03 -1.97210E+04 -1.06688E+04
 -9.10106E+03 -1.93793E+04  1.95783E+03 -2.55956E+04  1.76128E+04 -2.28721E+04  2.18626E+04  2.05955E+02
  1.01986E+04  1.42532E+04 -3.30332E+03  2.19763E+04 -1.25643E+04  8.43237E+03 -1.64488E+04 -2.30708E+03
 -1.41306E+04 -1.11131E+04  2.11709E+03 -2.63649E+04  6.37516E+03 -2.59870E+04  2.12074E+04 -1.01856E+04
  2.17123E+04  4.33483E+03  1.47600E+04  7.81808E+03  9.69688E+03  1.86507E+02  1.10146E+04 -4.19471E+02
  1.34305E+04 -3.53535E+03  2.24655E+04  2.45848E+04  1.35769E+04  3.30033E+04 -4.59451E+03  3.81924E+04
 -2.14562E+04  3.11415E+04 -3.77245E+04  1.17952E+04 -3.48394E+04 -6.59172E+03 -3.52434E+04 -1.26294E+04
 -1.05082E+04 -2.81162E+04  9.38254E+03 -3.02116E+04  2.04386E+04 -1.39692E+04  2.32600E+04  3.88687E+03
  9.75820E+03  1.54204E+04 -8.06085E+03  1.75781E+04 -1.71529E+04 -1.28153E+03 -1.89086E+04 -9.30531E+03
 -2.58709E+03 -1.45113E+04  1.14373E+04 -1.04541E+04  1.04813E+04 -6.76962E+03  3.22950E+03  6.41561E+03
 -7.39579E+03  5.42776E+03 -6.94014E+03 -2.90708E+03 -1.50795E+03 -1.04190E+04  8.53912E+03 -1.49844E+04
  1.32383E+04 -1.06443E+04  1.71015E+04  3.36911E+03  1.76651E+04  1.63029E+04  7.93708E+03  2.48688E+04
 -3.34861E+03  2.20930E+04 -1.55771E+04  1.47562E+04 -1.70437E+04  4.81867E+03 -1.24958E+04 -6.78243E+03
 -7.06550E+03 -9.42809E+03  1.10107E+03 -1.75608E+03 -6.58119E+03  6.18987E+03 -8.88407E+03  6.04563E+03
 -1.04813E+04 -2.21520E+03 -1.16573E+04 -1.20542E+04 -6.07274E+03 -1.59994E+04  5.40450E+03 -1.05933E+04
  8.64949E+03 -3.39071E+03  8.62401E+03  1.72201E+03  2.10911E+03  3.27990E+03 -6.32889E+03  4.81027E+02
 -9.87936E+03 -6.34609E+03 -2.86062E+03 -1.01545E+04 -1.72506E+03 -1.45308E+04  1.33606E+04 -6.12065E+03
  1.84644E+04  1.10784E+03  1.12003E+04  9.18355E+03  2.95456E+03  1.77187E+04 -4.51296E+03  1.10354E+04
 -1.53554E+04  1.15181E+03 -3.48873E+03 -4.43135E+02  3.31868E+02  5.25066E+02  6.57825E+03 -5.17448E+03
  9.32470E+03  5.87155E+03  1.14467E+03  8.20495E+03 -9.87749E+03  1.11076E+04 -1.40927E+04  1.03850E+03
 -1.27476E+04 -4.55876E+03  3.21617E+03 -9.37348E+03  6.00554E+03 -4.25137E+03  1.05856E+04 -1.82811E+03
  2.97029E+03  9.14769E+03 -8.80698E+03  1.23325E+04 -1.18414E+04 -4.87814E+02 -8.98996E+03 -2.85883E+03
 -5.38575E+03 -1.39636E+04 -2.90455E+03 -1.69078E+04  1.32567E+04 -7.55717E+03  1.23967E+04  5.09483E+03
  8.57199E+03  4.36133E+03 -2.53718E+03  1.26495E+04 -4.85681E+03  1.22664E+03 -1.09715E+04  1.27142E+03
 -8.99803E+03 -5.13182E+03 -1.07887E+03 -1.35081E+04  4.86560E+03 -3.36105E+03  3.97342E+03 -1.08083E+03
  6.91277E+03 -1.31441E+03 -2.55009E+02  1.63139E+03  3.09798E+03 -7.19225E+02  2.98222E+03  2.52329E+02
  6.65232E+03  9.88100E+02  1.04780E+04 -1.40017E+03  9.90323E+03  1.11781E+04  3.12243E+03  1.67242E+04
 -4.32131E+03  1.34029E+04 -1.47424E+04  1.04174E+04 -1.61069E+04  5.27631E+03 -1.21861E+04 -7.70710E+03
 -6.14887E+03 -1.06111E+04  5.14752E+03 -1.10575E+04  5.59509E+03 -4.73599E+03  4.58914E+03 -7.59502E+03
  2.30705E+03 -2.34914E+03 -6.70639E+02 -1.50973E+03 -1.79021E+03 -7.58114E+03  5.85684E+03  9.42083E+01
  9.29006E+03  2.83319E+03  4.41084E+03  6.61737E+03 -4.97783E+03  2.94243E+03 -8.33790E+03  6.65999E+03
 -8.77402E+03  3.21712E+03 -5.50465E+03  4.35763E+02 -3.71529E+03 -1.28058E+04  8.30956E+03 -9.87809E+03
  8.46103E+03 -3.49723E+03  1.33453E+04  7.55690E+03  1.31241E+04  1.17324E+04  4.17843E+03  1.21551E+04
 -3.94867E+03  1.55122E+04 -5.45482E+03 -1.18699E+02 -4.15022E+03 -5.77031E+02 -5.98322E+03 -1.61943E+03
 -1.47475E+03  1.28761E+03 -3.23681E+02  4.20036E+03 -6.40148E+03  1.41602E+03 -8.57097E+03 -1.38725E+03
 -5.90765E+03 -3.17879E+03  1.97823E+03 -5.73529E+03  3.25732E+03 -2.32225E+03  5.97883E+03 -1.28413E+03
  9.35281E+03  5.70005E+03  6.41418E+03  1.02499E+04 -7.74655E+03  1.14162E+04 -1.06675E+04  1.51367E+03
 -1.03153E+04 -4.29589E+03 -9.86281E+03 -7.40854E+03 -1.30029E+03 -9.46539E+03  2.13629E+03 -8.47633E+03
  1.06493E+04  6.12145E+02  6.85255E+03 -3.66666E+02  6.46899E+02  3.13627E+03 -5.79297E+02  3.92639E+02
  5.06246E+03  3.39892E+03  1.67421E+03  3.37024E+03  5.72488E+03  3.55952E+03  8.27893E+03  8.57901E+03
 -2.06903E+03  6.39057E+03 -8.09269E+03  8.59482E+03 -8.46697E+03  1.63261E+03 -9.92331E+03 -6.42517E+03
 -5.96537E+03 -1.39705E+04  4.08550E+02 -1.21905E+04  3.27836E+02 -3.24656E+03  6.15102E+03 -1.65061E+03
  8.04145E+03  1.38424E+03 -4.45734E+03  6.29815E+03 -2.58333E+03  5.46418E+03 -5.63353E+03  1.26269E+02
 -2.66403E+03 -6.55304E+03  1.68919E+03 -3.89403E+03  6.89312E+03 -3.91818E+03 -4.55155E+02 -9.41030E+03
  2.90265E+03 -9.64915E+01  7.56298E+02  3.48950E+03 -1.28410E+03  1.25772E+03 -3.13207E+03  2.25967E+03
 -2.49659E+03 -2.65458E+03  1.24513E+03  2.13907E+02  4.88089E+03  9.98311E+03  2.08550E+03  3.49521E+03
 -3.07754E+03  2.07206E+03 -8.91541E+02 -3.39311E+02 -9.94902E+03 -8.77314E+03  1.58033E+02 -3.16616E+03
 -4.17843E+03 -4.10199E+03  3.82386E+03 -8.40099E+03  1.26808E+04  3.56952E+03  2.11827E+03 -9.37578E+02
 -1.18429E+04 -2.18573E+03 -2.06046E+03 -1.45209E+03 -5.02973E+03 -5.65128E+03  3.28532E+03 -2.73291E+03
  1.67836E+03 -3.30833E+03  5.56244E+03  1.46732E+03  2.35003E+03  1.26632E+03  2.63959E+03  7.38984E+02
 -6.38839E+03 -1.85948E+03  2.19390E+03 -1.63519E+03  3.73665E+03 -5.80755E+03  4.22767E+03 -3.22092E+03
  7.66175E+03  1.78856E+03  2.48005E+03  4.53417E+03  5.23623E+03  5.26642E+03  3.56213E+03  1.73150E+03
 -8.82235E+02  1.13337E+03 -9.25657E+03 -5.22486E+03 -4.06537E+03 -6.87095E+03  4.05010E+03 -3.12019E+03
  4.19767E+03 -5.35358E+03  2.72973E+02  7.64935E+03  4.91681E+03  3.74328E+03 -2.18359E+03 -9.78261E+01
 -2.69658E+03  1.01679E+03 -7.44523E+03 -1.41953E+03 -2.44406E+03 -3.46035E+03  2.70744E+02  1.80468E+03
 -4.94821E+02 -3.90266E+03 -2.28214E+03 -1.69288E+03 -1.02102E+04 -1.15906E+03 -8.01911E+03 -1.68942E+03
 -7.18833E+03 -6.95689E+03 -7.23941E+03 -1.02872E+04  5.75027E+03 -8.43708E+02  4.55543E+03 -9.85959E+02
  7.33145E+03 -2.26499E+03  4.83812E+03  7.38297E+03  6.11499E+03  3.19318E+03 -6.03592E+03  3.84777E+03
 -7.45777E+03 -1.34048E+02 -1.96507E+03  4.44005E+03 -3.18964E+03  2.39935E+03  5.11923E+02  2.69043E+03
 -2.40701E+01 -6.75067E+02 -4.28448E+03 -1.86767E+03 -1.37317E+03  1.40837E+03 -1.92562E+03 -3.58991E+03
  3.82067E+02 -2.46883E+03  6.07860E+03  6.58721E+02 -6.52127E+02  2.83342E+03  6.74771E+02  4.23003E+03
 -5.03992E+03  1.01914E+04 -6.50081E+03  5.66353E+03 -3.53123E+03  1.48082E+02 -7.34251E+03 -2.38539E+03
  1.95966E+02 -6.24379E+03  3.41882E+03 -3.88519E+03  5.20430E+03  1.07506E+03  4.33472E+03 -3.46098E+03
  4.89477E+02 -1.64521E+03 -1.43209E+03 -2.20780E+03  4.09237E+01 -5.23765E+03 -5.65744E+03 -3.22993E+03
  9.77641E+02 -3.17919E+03  1.79890E+03 -2.49648E+00  3.09519E+03 -2.44536E+03  3.00004E+03  6.27134E+03
 -6.35711E+03  3.62727E+02 -2.07061E+03 -4.39907E+03 -3.39348E+03  6.25627E+02 -5.51899E+03 -1.69935E+03
  3.99759E+03 -8.68754E+03  1.17288E+02 -1.58574E+03  6.09550E+03 -3.22944E+03  1.53355E+03  8.84203E+02
  2.13034E+03  6.33662E+03 -1.50757E+03  2.91946E+02 -4.67912E+03  2.45556E+03 -4.26458E+03 -2.30613E+03
  1.17420E+03  3.05883E+03 -1.09319E+03  3.44078E+02 -7.12755E+03  4.69453E+03 -4.75707E+03  1.21064E+03
 -3.06112E+03 -3.40420E+03 -4.44167E+02 -1.76515E+03 -1.34293E+02 -5.66939E+03  2.72947E+03 -7.77425E+03
  4.25518E+03  4.09077E+03 -3.94558E+03  9.20296E+02  3.75450E+03 -1.68865E+03 -5.57289E+03 -3.82689E+02
