 $NMID ID='MM_0lb_SNR50_10hz_g60_77.RAW', FMTDAT='(8E13.5)'
 TRAMP=1., VOLUME=1. $END
  3.12465E+05 -5.59159E+02  3.39260E+05  2.52265E+05  8.97802E+04  3.41281E+05 -1.28412E+05  2.52888E+05
 -1.90443E+05  8.74171E+04 -1.18883E+05 -3.90360E+04 -1.24703E+03 -4.95617E+04  5.33878E+04 -3.26037E+03
  3.77825E+04  4.28041E+04 -1.71993E+04  7.89438E+04 -6.02620E+04  6.08689E+04 -8.39359E+04  3.39592E+04
 -8.01800E+04 -1.17836E+04 -5.76759E+04 -5.08315E+04 -1.44324E+04 -7.71742E+04  2.02042E+04 -4.37005E+04
  3.89391E+04  6.22745E+03  1.71853E+04  4.76913E+04 -3.67995E+04  4.99002E+04 -7.02896E+04 -1.69468E+03
 -5.85001E+04 -6.09165E+04 -4.17249E+03 -7.76752E+04  3.31317E+04 -6.23582E+04  5.11383E+04 -1.58814E+04
  4.94053E+04  1.26513E+04  3.08409E+04  2.21034E+04  1.59671E+04  3.69854E+04 -7.99298E+03  3.48581E+04
 -1.61126E+04  9.78485E+03 -2.28028E+04 -8.12253E+03  7.31068E+03 -5.74435E+03  2.41902E+04  2.00180E+04
  3.92662E+03  4.18290E+04 -3.18497E+04  3.70454E+04 -6.66421E+04  2.56815E+03 -5.87117E+04 -4.46121E+04
 -1.56498E+04 -6.95472E+04  4.21112E+04 -4.38541E+04  6.05650E+04 -2.67273E+03  3.31454E+04  3.31549E+04
 -7.88335E+03  3.41922E+04 -3.74488E+04  1.45047E+04 -3.45754E+04 -3.18051E+03 -1.94008E+04 -9.92625E+03
 -6.02076E+03 -1.14306E+04 -2.64778E+03 -2.03602E+04  4.98000E+03 -2.12185E+04  1.96011E+04 -7.68573E+03
  1.28641E+04  1.02240E+04 -1.13955E+04  1.36015E+04 -2.39421E+04 -7.41256E+03 -7.82032E+03 -3.81935E+04
  2.89315E+04 -4.58887E+04  4.87618E+04 -1.99699E+04  4.54880E+04  1.67775E+04  2.21780E+04  4.18480E+04
 -1.64774E+04  4.13186E+04 -2.47577E+04  3.12444E+03 -2.00721E+04 -2.92018E+04  2.11499E+04 -3.64405E+04
  4.58246E+04 -1.43982E+04  3.77271E+04  3.19749E+04  2.41126E+04  5.12062E+04 -4.71626E+03  5.59733E+04
 -3.68286E+04  3.84579E+04 -4.69083E+04  1.25388E+04 -4.00215E+04 -1.21579E+04 -1.97753E+04 -3.87042E+04
  8.72935E+03 -4.31708E+04  3.86055E+04 -1.63059E+04  3.73742E+04  1.48803E+04  8.89421E+03  1.66340E+04
 -1.52818E+04  9.52284E+03 -6.86598E+03 -5.39052E+03  2.65418E+03 -1.88086E+04  1.83913E+04  4.27818E+03
  1.38557E+04  2.20013E+04 -7.10949E+03  2.37525E+04 -2.16671E+04  1.44261E+04 -3.53786E+04 -1.86961E+03
 -2.71990E+04 -1.25916E+04 -9.62915E+03 -2.27752E+04  3.55722E+03 -3.04551E+04  2.19336E+04 -2.67042E+04
  2.95686E+04 -1.47105E+04  3.69736E+04 -9.59121E+02  3.16891E+04  2.75533E+04  3.91103E+03  4.25326E+04
 -1.90965E+04  4.11552E+04 -3.12505E+04  6.52606E+03 -2.33187E+04 -1.06392E+04 -6.63076E+03 -1.09095E+04
  2.24382E+03 -5.10722E+02 -8.80969E+03  4.81183E+03 -2.49732E+04  7.17535E+03 -2.18424E+04 -4.10591E+03
 -1.50835E+04 -2.36813E+04  4.19656E+03 -3.00655E+04  1.56384E+04 -2.06112E+04  1.88733E+04 -1.87346E+03
  1.23801E+04  1.37479E+04  4.30144E+03  2.89878E+04 -1.58625E+04  1.50405E+04 -2.33681E+04 -4.46149E+03
 -1.62280E+04 -2.08818E+04 -4.74053E+03 -3.34213E+04  1.80751E+04 -2.31447E+04  2.37510E+04 -1.10252E+04
  1.74861E+04 -6.15923E+03  1.20830E+04  3.80909E+03  6.77796E+03  1.02651E+03  1.46898E+04  2.24648E+03
  2.45101E+04  2.61297E+03  2.21633E+04  2.58072E+04  1.27056E+04  3.82776E+04  2.21979E+02  3.99532E+04
 -2.39994E+04  3.93760E+04 -4.37888E+04  2.13416E+04 -4.32832E+04 -1.59559E+03 -3.04182E+04 -3.18573E+04
 -1.26181E+04 -3.93246E+04  1.45142E+04 -2.96170E+04  3.30723E+04 -1.39055E+04  2.58543E+04  5.41674E+03
  6.73407E+03  1.49584E+04 -1.79765E+04  2.01380E+04 -2.11580E+04  9.97813E+03 -1.61125E+04 -1.99701E+04
  3.53975E+03 -1.76477E+04  4.89942E+03 -1.47905E+04  1.34878E+04 -4.29220E+03  1.91715E+03  1.23468E+04
 -6.83097E+03 -2.63607E+03 -1.28127E+04 -4.91732E+03  7.98133E+02 -1.66146E+04  2.04769E+04 -2.42940E+04
  2.55268E+04 -1.66788E+04  2.77686E+04  5.12211E+03  2.32275E+04  1.85716E+04  9.60975E+03  2.63956E+04
 -1.15789E+04  3.14122E+04 -2.13257E+04  1.59062E+04 -2.37169E+04  2.10936E+03 -1.56805E+04 -6.45502E+03
 -5.77643E+03 -6.89834E+03 -1.37786E+02 -8.08417E+02 -2.85847E+03  2.25947E+03 -5.13448E+03  3.35808E+03
 -1.71490E+04 -6.32951E+03 -1.21122E+04 -1.10542E+04 -6.99725E+03 -1.95442E+04  5.56111E+03 -2.23011E+04
  1.66185E+04 -3.03140E+03  1.27928E+04 -3.41728E+03  4.58059E+03  6.63813E+03 -1.53521E+04  2.21262E+03
 -5.12909E+03 -1.61749E+04  2.03724E+03 -1.73431E+04  8.83950E+03 -1.63230E+04  1.90772E+04 -7.56399E+03
  2.33337E+04  6.26162E+03  2.01823E+04  7.28650E+03  6.12363E+03  1.46425E+04 -1.30485E+04  1.77226E+04
 -1.14797E+04  1.68733E+03 -7.91607E+03 -3.97807E+03 -1.03360E+02  6.57677E+02  4.83311E+03  1.88005E+03
  1.17917E+04  9.22487E+03 -4.60889E+03  1.37117E+04 -9.27985E+03  5.50449E+03 -1.43645E+04  1.49293E+03
 -9.09175E+03 -9.75721E+03 -3.33858E+03 -1.21450E+04  3.89033E+03 -1.12468E+04  1.01662E+04  5.69834E+03
  3.41123E+03  1.39456E+04 -1.25095E+04  1.11457E+04 -1.79845E+04  1.29814E+04 -1.49779E+04 -5.92837E+03
 -7.89207E+03 -1.67070E+04  3.33996E+03 -1.81776E+04  1.48170E+04 -2.12667E+04  2.52940E+04  2.86697E+03
  1.13499E+04  1.12575E+04 -4.26036E+03  1.94543E+04 -1.38521E+04  8.80959E+03 -2.04175E+04 -9.57464E+02
 -1.22966E+04 -4.07895E+03 -2.83400E+03 -8.64339E+03  8.45456E+03 -8.41739E+03  5.90895E+03 -2.63879E+03
 -5.55496E+02  2.98283E+03 -3.01879E+03 -2.95754E+03 -1.58898E+03 -4.62126E+03 -9.13537E+02 -6.72780E+03
  3.96032E+03 -5.46631E+03  1.33074E+04  1.47419E+02  1.29567E+04  5.80068E+03  1.10479E+04  1.87228E+04
 -4.21698E+03  2.18342E+04 -2.47828E+04  1.87135E+04 -2.59804E+04  4.13246E+03 -2.15906E+04 -1.70889E+04
 -8.66297E+03 -1.27678E+04 -8.66466E+02 -1.54395E+04  7.26613E+03 -1.27099E+04  4.74220E+03 -7.58111E+03
  4.16021E+03 -4.64245E+03  1.06387E+04 -6.87477E+03  5.15046E+03 -9.27849E+03  5.63722E+03  1.04531E+03
  1.41389E+04 -1.52224E+02  2.12485E+03  7.14574E+03 -5.80067E+03  1.34809E+04 -1.06797E+04  8.37586E+03
 -1.68184E+04  2.56853E+03 -8.04131E+03 -1.20263E+04  1.73463E+03 -2.01514E+04  1.15263E+04 -8.02854E+03
  1.65905E+04 -7.37183E+03  1.78184E+04  5.03635E+03  1.28563E+04  1.23776E+04  7.40465E+03  2.01323E+04
 -7.16408E+03  1.66790E+04 -1.24658E+04  4.56973E+03 -7.28454E+03 -4.08068E+03 -5.39218E+03 -2.22015E+03
 -3.02910E+03  8.94298E+01 -2.89853E+03 -8.43116E+01 -8.85936E+03  3.75598E+03 -1.31525E+04  7.32017E+02
 -7.51480E+03 -1.15683E+04  6.82335E+03 -9.64498E+03  7.43805E+03 -1.12452E+04  1.46787E+04 -6.17228E+03
  1.47131E+04  9.64806E+03  8.38540E+03  1.39156E+04 -5.05730E+03  1.06427E+04 -1.15963E+04  9.21948E+03
 -1.38490E+04  2.63548E+03 -1.60230E+04 -1.34756E+04 -2.74847E+03 -1.57552E+04  7.53981E+03 -1.13481E+04
  7.02061E+03 -1.51498E+03  3.79768E+03  2.14273E+03  2.54356E+02  3.46184E+02  9.30441E+03 -8.57413E+02
  4.90770E+03  3.68641E+03  1.84703E+03  2.73680E+03  8.42601E+03  7.32917E+03  5.93021E+03  5.95026E+03
 -1.53112E+03  1.71245E+03 -5.69067E+03  1.17620E+04 -1.98028E+04  9.04957E+03 -1.73376E+04 -7.01942E+03
 -7.73054E+03 -1.81922E+04  1.00744E+03 -1.35958E+04  6.33482E+03 -1.26659E+04  7.48707E+03 -1.10639E+04
  1.01871E+04  6.50418E+01 -5.89072E+03  1.48943E+04 -3.07671E+03  1.88629E+03 -7.92389E+02  5.20024E+02
 -1.07659E+03 -7.81964E+03  1.01966E+04 -6.17646E+03  1.19938E+04 -2.02419E+03  3.79026E+03  6.17618E+03
  8.66016E+03  5.05990E+03  8.47044E+02  5.62870E+03  2.40335E+03 -9.06863E+02  2.45389E+03 -9.97087E+02
  2.38149E+03 -1.08536E+03  3.36164E+03  1.67268E+03  3.22238E+03  5.45736E+03 -4.95551E+02  9.14873E+03
 -1.22735E+04  1.17854E+04 -4.15557E+03  5.98914E+03 -6.86059E+03  5.95112E+03 -4.45095E+03 -4.91497E+03
  4.67824E+03 -1.18343E+04  3.70375E+03  3.21200E+03 -1.39774E+03  2.63834E+03  2.34914E+03  4.65010E+03
 -5.34778E+03 -2.50864E+03 -4.32838E+03 -1.71594E+03 -5.43620E+03 -1.12832E+04  4.83133E+03 -9.29291E+03
  3.96423E+03 -4.92662E+03  4.71817E+03  9.65544E+02  8.78124E+03  4.24997E+03 -1.30260E+03  2.32457E+03
 -1.82070E+03  1.79175E+02 -1.81568E+03 -8.87864E+03 -2.72193E+03 -8.22841E+03  1.41933E+04 -2.05962E+03
  5.75670E+03 -9.09550E+01  3.02347E+03  9.62813E+03  2.75023E+01  8.62256E+03 -3.35077E+03  2.36150E+03
 -7.74452E+03  8.45154E+03 -7.71397E+03 -4.71886E+03 -4.81025E+03 -5.10768E+02 -5.80231E+03 -1.43759E+03
  1.07182E+04 -8.46714E+03  5.45189E+03  3.00571E+03 -4.18814E+01  1.97956E+02 -2.64213E+03  9.07659E+03
  9.20532E+02  2.25223E+03  1.85245E+03 -3.44201E+02 -3.95392E+03  3.89702E+03 -1.46407E+03  1.43847E+03
 -2.55035E+02  2.12559E+03 -3.39198E+03  7.17925E+02 -1.09559E+04 -1.48995E+03 -1.27098E+04 -3.81347E+03
 -4.63614E+03 -1.14298E+04  4.77243E+03 -1.28560E+04  6.37429E+03 -1.25715E+04  9.98017E+03 -1.04644E+04
  1.02873E+04 -1.12957E+03  8.32509E+03  7.60832E+03 -6.54590E+02  1.04374E+04 -3.66995E+03  1.28796E+04
 -2.15093E+03 -2.63915E+03  1.65198E+03  1.30939E+03  1.94407E+03 -3.69163E+03  3.76397E+03  3.67670E+03
 -3.07285E+03  2.02553E+03 -8.02702E+02  1.02874E+03 -1.86416E+03 -7.80218E+03  3.39806E+03 -1.32016E+04
 -1.60683E+03  9.51881E+02  9.47988E+03  7.06112E+03  7.06613E+03  1.19288E+04 -1.01670E+03  1.35455E+04
 -1.64123E+03  1.01327E+04 -9.24856E+03  6.44088E+03 -1.33356E+04  1.24993E+03 -9.34993E+03 -9.83032E+03
 -4.15649E+03 -5.55465E+03  3.13849E+03 -1.16951E+04  1.02659E+04 -3.59071E+03  7.74300E+03  2.71163E+03
  6.54866E+03  6.77648E+03 -8.45947E+02  5.63009E+03 -5.21972E+03 -3.99239E+03  3.39530E+03 -6.56727E+03
  5.74939E+03 -2.76840E+03  7.87144E+03  5.66211E+03  5.45872E+03  2.83167E+02 -3.68268E+03  6.72100E+03
 -4.40175E+03  3.88812E+03 -9.05757E+03  6.47333E+02  1.85056E+02 -9.71838E+03 -2.02960E+03 -1.10989E+04
  8.57140E+03 -6.45286E+03  8.25453E+03 -1.56840E+03  1.08954E+04 -6.94346E+02 -7.47054E+03  7.69229E+03
 -6.88716E+02  7.84505E+02 -3.45084E+03  8.68127E+03 -5.07554E+03  1.64600E+03 -7.40763E+03  2.90809E+03
 -1.75426E+03  3.12548E+03  3.26047E+03 -1.28231E+03  5.98895E+02  7.90797E+03 -3.93311E+03  6.12164E+03
 -3.70275E+03 -5.44277E+03  2.40200E+03 -1.06784E+04 -5.55056E+02 -7.07797E+03  5.99227E+03 -1.33480E+04
  1.07771E+04 -8.57681E+02  6.03730E+03  7.87964E+03  1.28500E+03  8.94050E+03 -3.66200E+03  6.27680E+03
