 $NMID ID='MM_0lb_SNR50_12hz_g50_63.RAW', FMTDAT='(8E13.5)'
 TRAMP=1., VOLUME=1. $END
  3.12567E+05  1.07076E+03  3.39241E+05  2.50443E+05  8.16556E+04  3.36478E+05 -1.31326E+05  2.49206E+05
 -1.90374E+05  8.18229E+04 -1.14272E+05 -2.88454E+04  2.48393E+03 -4.93481E+04  5.55658E+04  5.34659E+01
  3.05642E+04  5.57365E+04 -2.19466E+04  7.96080E+04 -6.18294E+04  6.37182E+04 -8.44245E+04  3.44100E+04
 -8.78796E+04 -1.17314E+04 -5.98348E+04 -4.90660E+04 -1.55563E+04 -7.09296E+04  2.61441E+04 -4.65128E+04
  4.29110E+04  1.05856E+03  1.26437E+04  4.72051E+04 -3.50204E+04  4.67281E+04 -6.70763E+04 -1.79573E+03
 -4.97805E+04 -5.89773E+04 -4.61355E+03 -8.25896E+04  3.52738E+04 -4.90378E+04  5.04369E+04 -1.51972E+04
  4.02947E+04  1.08608E+04  3.04056E+04  3.25308E+04  8.27879E+03  2.91391E+04 -9.43759E+03  2.47599E+04
 -2.18839E+04  1.58899E+04 -2.19448E+04 -5.91241E+03  5.63550E+03 -1.02793E+04  2.54687E+04  1.28111E+04
  2.07693E+02  4.11738E+04 -3.64164E+04  3.64222E+04 -6.52167E+04 -4.04809E+03 -5.62074E+04 -4.19632E+04
 -1.12542E+04 -6.01010E+04  3.66890E+04 -3.93096E+04  5.75703E+04 -3.13596E+03  3.27858E+04  3.22469E+04
 -3.23447E+03  3.22072E+04 -2.54011E+04  1.77063E+04 -2.94312E+04  2.53281E+03 -1.24580E+04 -1.30842E+04
 -7.28157E+03 -1.10019E+04 -2.06210E+02 -1.97264E+04  8.28349E+03 -2.38292E+04  1.67716E+04 -9.34567E+03
  1.43125E+04  6.34034E+03 -9.69422E+03  1.15537E+04 -2.05614E+04 -1.62294E+03 -1.04053E+04 -3.40390E+04
  1.98369E+04 -4.52847E+04  5.19164E+04 -2.26937E+04  4.44939E+04  1.92074E+04  1.53174E+04  4.21730E+04
 -1.98159E+04  3.35411E+04 -2.70676E+04  3.85797E+03 -1.08998E+04 -3.05823E+04  2.38248E+04 -3.72837E+04
  4.45248E+04 -2.20111E+03  4.01105E+04  2.41277E+04  2.16964E+04  4.98015E+04 -5.17304E+03  4.98773E+04
 -3.08348E+04  3.28673E+04 -4.08846E+04  1.37057E+04 -3.96046E+04 -1.69618E+04 -2.01984E+04 -3.87571E+04
  3.88447E+03 -4.44138E+04  3.65800E+04 -1.58452E+04  3.27614E+04  9.81834E+03 -1.14928E+03  2.01955E+04
 -8.50768E+03  9.61744E+03 -7.25478E+03 -1.13215E+04  4.42213E+03 -8.91664E+03  1.64578E+04  2.80015E+03
  1.46943E+04  1.96839E+04 -1.06720E+04  3.15340E+04 -2.47210E+04  1.17468E+04 -2.56334E+04  9.41102E+02
 -2.16028E+04 -2.46766E+04 -8.53045E+03 -2.37649E+04  3.30684E+03 -2.30080E+04  1.90820E+04 -1.93296E+04
  3.28242E+04 -1.19874E+04  3.02314E+04 -4.34482E+02  2.56464E+04  2.05194E+04  2.74415E+03  3.66314E+04
 -1.87553E+04  3.35474E+04 -2.55046E+04  6.54741E+03 -2.36925E+04 -6.52283E+03 -2.72656E+03 -7.23585E+03
 -2.81253E+03 -3.97470E+03 -1.25512E+04  1.25555E+04 -2.16213E+04  9.66975E+03 -1.47899E+04 -8.65972E+03
 -1.34298E+04 -2.27360E+04  8.13489E+03 -1.75136E+04  1.41506E+04 -1.48496E+04  2.23709E+04 -3.16075E+03
  1.07074E+04  1.17521E+04 -4.81934E+03  2.29803E+04 -1.91568E+04  8.58597E+03 -1.61221E+04 -5.93541E+03
 -1.77516E+04 -1.61177E+04  7.75437E+01 -2.74376E+04  1.40845E+04 -2.14711E+04  1.85824E+04 -9.74475E+03
  2.34180E+04 -4.08079E+03  2.12458E+04  4.01716E+03  6.71665E+03  3.42072E+03  1.28382E+04  1.42347E+03
  2.00591E+04  6.90951E+03  2.45666E+04  2.05620E+04  1.54529E+04  2.71883E+04 -3.51347E+03  3.88770E+04
 -1.96085E+04  2.71920E+04 -3.45941E+04  1.31717E+04 -3.67181E+04 -3.47280E+03 -3.13355E+04 -2.02440E+04
 -1.86977E+04 -3.00058E+04  1.06115E+04 -2.84518E+04  2.25648E+04 -1.54756E+04  1.86314E+04  3.82260E+03
  5.98105E+03  1.44476E+04 -1.08746E+04  1.66291E+04 -1.41051E+04  6.44563E+03 -1.02090E+04 -1.46898E+04
 -4.44722E+03 -1.74201E+04  8.63345E+03 -1.17021E+04  1.75710E+04 -1.64365E+03  4.54992E+02  1.07515E+04
 -3.95692E+03  3.06677E+03 -6.83761E+03 -4.69381E+03 -4.12252E+02 -1.36999E+04  1.63400E+04 -1.62275E+04
  1.64269E+04 -8.67051E+03  2.10082E+04  2.44844E+03  1.65090E+04  1.77989E+04  1.05889E+04  2.36516E+04
 -4.49953E+03  2.26356E+04 -1.53447E+04  1.54401E+04 -1.91586E+04  5.09943E+03 -1.22882E+04 -4.47742E+03
 -5.86802E+03  2.32769E+03 -1.38940E+03 -3.42444E+03 -4.08079E+03 -8.55642E+02 -1.26473E+04  9.68606E+03
 -1.11791E+04 -2.13177E+03 -1.10958E+04 -9.25250E+03 -1.85738E+03 -1.49193E+04  5.02427E+03 -1.28240E+04
  1.53696E+04 -6.46269E+03  7.31984E+03  3.09284E+03  2.95598E+03  5.44053E+03 -6.10483E+03  3.21929E+03
 -8.60400E+03 -8.96821E+03 -1.31304E+03 -6.02402E+03  1.07258E+04 -9.87154E+03  1.27040E+04 -8.76963E+03
  1.71555E+04  3.66788E+03  1.13642E+04  9.62544E+03  1.66836E+03  1.52533E+04 -7.79619E+03  1.53923E+04
 -1.21401E+04  3.64802E+03 -7.68909E+03 -4.20828E+03  1.28915E+03 -2.88251E+03  7.63605E+03  3.16924E+03
  2.78679E+03  8.22715E+03 -2.24631E+03  8.14123E+03 -8.25859E+03  1.08311E+04 -1.02746E+04 -2.74760E+03
 -6.07216E+03 -5.94608E+03  1.43916E+02 -9.27691E+03  1.19732E+04 -6.67610E+03  6.06672E+03 -1.08706E+03
 -6.25445E+02  6.19113E+03 -5.11378E+03  1.09743E+04 -1.45122E+04  9.73934E+03 -4.19626E+03 -1.15237E+03
 -5.86969E+03 -9.88469E+03  3.02587E+02 -1.16084E+04  1.52872E+04 -1.43484E+04  1.35948E+04  8.72380E+02
  6.21632E+03  9.30302E+03 -5.75635E+03  1.09626E+04 -7.22837E+03  9.79779E+03 -1.08701E+04  3.47171E+02
 -1.16438E+04 -6.56362E+03 -2.03192E+03 -1.06621E+04  1.22742E+03 -1.23968E+04 -3.53462E+03 -2.36448E+03
  7.27923E+03 -1.94708E+02 -4.29376E+03  4.75558E+03  1.53971E+01 -2.78273E+03  2.66684E+03 -1.08638E+03
  4.90506E+03 -4.37677E+03  1.52661E+04 -3.72397E+02  4.73688E+03  3.05621E+03  9.26875E+03  1.48923E+04
 -8.45611E+03  1.58871E+04 -1.66902E+04  1.70970E+04 -2.10511E+04  4.06505E+03 -1.17113E+04 -5.75514E+03
 -1.23199E+04 -1.53673E+04 -7.00785E+03 -1.12530E+04  2.64384E+03 -7.45540E+03 -3.75781E+02 -2.46131E+03
  5.82309E+03 -1.38876E+02  3.43366E+03 -7.66672E+03  4.85227E+03 -7.70467E+03  4.92028E+03 -5.74344E+03
  5.83140E+03 -3.57109E+03  6.54269E+03  8.87849E+03 -5.89941E+03  1.19056E+04 -1.14801E+04  7.40135E+03
 -1.14992E+04  8.03095E+02 -4.63468E+03 -8.08967E+03 -2.07409E+03 -7.68207E+03  6.60623E+03 -1.02055E+04
  1.08428E+04 -9.63736E+03  1.64561E+04  1.17370E+03  8.24212E+03  8.37660E+03  3.03893E+03  1.45264E+04
 -8.90180E+03  1.24719E+04 -2.93973E+02  9.82632E+03 -7.55396E+03 -3.48507E+03 -4.19767E+03 -2.12669E+03
 -2.53032E+03  4.07193E+03 -6.51447E+03  3.45819E+03 -5.95234E+03  6.32004E+02 -8.12899E+03 -3.33230E+03
 -7.06271E+03 -8.35378E+03  4.34883E+02 -1.26240E+04  9.51634E+03 -1.08137E+04  1.44721E+04 -2.64603E+02
  1.34525E+04  1.05751E+04  6.68204E+03  4.49517E+03 -2.33658E+03  1.43890E+04 -8.49207E+03  1.10590E+03
 -1.05392E+04 -4.95363E+03 -2.23417E+03 -5.00401E+03 -3.18882E+03 -1.35794E+04  9.55547E+03 -3.57833E+03
  6.87000E+03 -9.41197E+02 -1.17285E+03 -3.41477E+02  3.19604E+03  1.13360E+03  4.97191E+03  3.24177E+03
  4.46783E+02  2.29117E+03  1.72981E+03  3.57417E+03  6.61300E+03 -2.92649E+02  3.06033E+03  1.11587E+04
 -1.94910E+03  1.20816E+04 -3.70971E+03  7.82432E+03 -9.16377E+03 -1.43217E+03 -6.42848E+03 -6.13997E+03
 -2.81455E+03 -1.23158E+04  4.05794E+03 -9.15709E+03  2.64957E+03 -6.60404E+03  9.00691E+03 -5.00698E+03
  8.98590E+03  6.21847E+02 -3.88555E+03  4.41298E+03 -9.77654E+02  1.08724E+04 -4.91257E+03  5.61960E+03
 -5.22445E+03 -7.64406E+03  5.75357E+03 -2.78542E+03  1.66405E+03 -2.10543E+03  5.75284E+03 -3.43778E+03
  2.48128E+03 -2.10640E+01  1.58322E+03  1.17752E+02 -5.36872E+02 -3.53241E+03  7.63819E+03 -3.18025E+03
  3.87802E+03  2.82631E+03  6.81138E+03 -1.33430E+03  1.99609E+03  2.84092E+03  1.53514E+02  4.02310E+03
 -5.54265E+03  2.27491E+03 -6.58988E+03  3.87205E+03 -5.13538E+03 -3.83519E+03 -2.09427E+03 -5.35037E+03
  6.30741E+03 -3.56571E+02  3.12062E+03 -5.11226E+03  8.96980E+02  5.56369E+03 -2.41054E+03  6.49826E+03
 -4.14096E+03  4.46843E+03  2.42803E+03 -1.97448E+03 -7.02266E+03 -9.59631E+02  6.03968E+02 -3.16837E+03
  2.09470E+03  1.51030E+03  1.43649E+03 -3.08399E+03  3.40066E+03  1.93295E+02  1.79015E+03  5.75672E+03
 -5.35981E+03  2.29196E+03 -5.36760E+03 -1.08458E+03 -6.39033E+01  8.21330E+02  5.04016E+03 -4.62853E+03
  9.90201E+03  6.85560E+02  6.28060E+03  4.51384E+03  1.46259E+02  4.80527E+03 -4.74321E+03  3.00057E+03
 -4.91371E+03 -1.47018E+03 -6.58523E+03  3.54312E+02 -4.06168E+03 -3.19413E+03  4.85824E+03 -3.95514E+03
  4.48798E+03  2.37398E+03  4.30620E+03  1.06140E+03 -2.42935E+03  4.22117E+03  7.38739E+02 -1.55743E+03
  1.98832E+03  4.23484E+03  2.07969E+03  4.15824E+03  3.49743E+03  4.77523E+03  1.54654E+03 -2.70589E+03
 -2.24302E+03 -3.57739E+03 -6.08722E+03  2.80291E+03 -1.01585E+04 -5.15037E+03 -8.09385E+03 -6.66301E+03
 -7.08686E+03 -8.05047E+03  1.34449E+01 -1.86552E+04  7.55634E+03 -6.94381E+03  9.03190E+03 -5.86120E+03
  1.01050E+04 -3.47463E+03  4.70623E+03  2.77737E+03  5.92122E+02  9.37402E+03  4.24186E+02  3.99993E+03
 -6.75394E+03  6.22064E+02  3.15827E+03 -4.77858E+03  4.33731E+03 -4.54480E+03 -3.71819E+03  2.21269E+03
 -1.21824E+03  7.85368E+01 -2.24727E+03  2.01736E+03  1.38902E+03 -4.18827E+03  5.19012E+03 -4.25632E+02
  1.97467E+03 -6.55072E+03  9.14425E+02 -7.32949E+02  4.02718E+03  4.99190E+03  5.30583E+03  7.75067E+03
 -2.93746E+03  5.18832E+03 -6.82651E+03  8.22559E+03 -1.03743E+04 -3.15331E+03 -8.42093E+03 -2.02603E+03
  3.82949E+03 -3.29582E+03 -4.99437E+03 -9.96263E+02  1.93520E+03 -4.71571E+03  6.59644E+03 -2.98156E+03
  6.88309E+03  5.86259E+03  2.36864E+03  5.53143E+03 -7.94725E+03 -5.51992E+02  1.24708E+03 -3.12261E+03
 -1.03645E+03 -2.04675E+03 -2.49159E+03  2.92177E+03 -8.90262E+02  7.49782E+03  2.35137E+03  4.38977E+03
 -1.53240E+03  9.31987E+02 -2.93411E+03  5.88225E+03 -7.78813E+03 -2.76030E+03 -2.62862E+03 -4.44697E+03
  4.69156E+03 -8.08948E+03  7.99266E+03  1.33246E+03  2.49373E+03  2.63668E+03  3.46985E+03  8.54876E+03
  5.32582E+03  1.77565E+03 -1.89234E+03 -2.01387E+03 -1.30094E+03  1.70386E+03  3.35964E+03  6.27006E+02
  2.17702E+03  1.91107E+02  4.96797E+03  3.36000E+03 -3.96414E+03  4.05307E+03 -9.64851E+02 -3.66083E+03
 -5.59663E+02 -4.52063E+03 -2.80159E+03  2.28356E+03  5.55243E+03 -1.52270E+03  1.86385E+03 -4.27880E+03
  1.45028E+01  3.74293E+03  5.03313E+03  3.23783E+03 -4.09220E+02  8.27747E+03 -3.74955E+03  5.21116E+03
