 $NMID ID='MM_0lb_SNR50_18hz_g45_63.RAW', FMTDAT='(8E13.5)'
 TRAMP=1., VOLUME=1. $END
  3.11530E+05  4.20043E+02  3.36393E+05  2.50384E+05  8.65438E+04  3.35596E+05 -1.31386E+05  2.51017E+05
 -1.91525E+05  8.28233E+04 -1.15622E+05 -3.23786E+04  2.36674E+03 -5.09289E+04  5.72713E+04  2.24451E+03
  3.22462E+04  5.69078E+04 -1.86980E+04  8.05621E+04 -6.09560E+04  6.45138E+04 -8.52181E+04  3.44237E+04
 -8.04506E+04 -1.13701E+04 -5.30369E+04 -5.33702E+04 -1.56790E+04 -6.74340E+04  2.68109E+04 -4.26926E+04
  4.30707E+04  5.56736E+03  1.38562E+04  4.73844E+04 -3.42831E+04  4.61781E+04 -6.57243E+04 -1.13950E+03
 -5.10944E+04 -5.65367E+04 -6.18854E+03 -7.62308E+04  3.15304E+04 -5.19120E+04  4.69965E+04 -1.49232E+04
  4.03639E+04  1.19912E+04  3.42654E+04  2.18860E+04  1.44806E+04  2.93798E+04 -2.74313E+03  2.85971E+04
 -2.09837E+04  1.28500E+04 -1.78285E+04 -2.28180E+03  1.09845E+03 -5.89530E+03  2.19450E+04  1.26583E+04
  5.94441E+03  3.41726E+04 -2.88784E+04  3.80390E+04 -5.84444E+04  8.90893E+02 -5.59608E+04 -3.74955E+04
 -1.19167E+04 -6.26174E+04  3.87857E+04 -4.55884E+04  5.85721E+04 -4.13680E+03  3.01508E+04  3.26964E+04
 -7.48161E+03  3.19390E+04 -2.90512E+04  1.23840E+04 -2.69829E+04 -8.64090E+03 -1.70549E+04 -1.16363E+04
 -6.43791E+03 -7.63594E+03 -4.76091E+03 -1.50842E+04  8.20235E+03 -1.91810E+04  1.44976E+04 -1.40975E+04
  1.08946E+04  5.05029E+02 -4.23320E+03  1.67159E+04 -2.30888E+04  3.13028E+02 -6.95971E+03 -3.39081E+04
  1.84100E+04 -3.89446E+04  4.14647E+04 -1.41857E+04  4.25141E+04  2.22330E+04  1.77486E+04  4.27436E+04
 -1.67059E+04  2.63976E+04 -2.59031E+04 -3.33006E+03 -8.72352E+03 -2.38433E+04  1.91071E+04 -2.88309E+04
  3.88952E+04 -8.05976E+03  3.32144E+04  2.51574E+04  1.53674E+04  4.37869E+04 -7.62556E+03  4.42899E+04
 -3.04902E+04  3.41202E+04 -3.60507E+04  6.72513E+03 -4.48091E+04 -1.97503E+04 -1.88624E+04 -3.32660E+04
  8.19623E+03 -3.29601E+04  2.72445E+04 -1.28053E+04  2.63011E+04  7.94405E+03  1.97479E+03  1.70510E+04
 -9.07410E+03  7.25554E+03 -1.16120E+04 -8.82159E+03  6.28749E+03 -9.93484E+03  1.53909E+04  9.21470E+03
  8.51496E+03  2.42589E+04 -9.56966E+03  2.39361E+04 -1.64336E+04  6.84215E+03 -2.48323E+04 -6.55456E+03
 -1.97776E+04 -1.62378E+04 -5.98969E+03 -1.98273E+04  2.48646E+03 -1.44817E+04  1.28422E+04 -1.02600E+04
  2.32100E+04 -9.67842E+03  3.01450E+04  1.86753E+03  2.29381E+04  2.00158E+04  7.18702E+03  3.39752E+04
 -1.62291E+04  2.55611E+04 -2.61981E+04  1.11068E+04 -2.14247E+04 -1.09889E+04 -2.05895E+03 -1.01888E+04
  2.00630E+03 -3.47929E+03 -3.97564E+03  2.13212E+03 -1.15480E+04  4.32683E+03 -1.50461E+04 -3.84122E+03
 -1.06499E+04 -1.30039E+04  7.05169E+03 -1.78330E+04  1.18336E+04 -1.44760E+04  1.50308E+04  3.55800E+03
  9.66268E+03  8.72044E+03  4.60525E+03  1.77888E+04 -1.04482E+04  8.09978E+03 -1.87444E+04 -2.21539E+03
 -1.27558E+04 -1.27262E+04 -4.22193E+03 -2.28305E+04  8.34290E+03 -1.48595E+04  1.36409E+04 -6.93965E+03
  1.50057E+04  2.05201E+03  1.03228E+04  2.38326E+03  4.80044E+03 -3.42150E+02  7.23332E+03 -2.71761E+03
  1.49812E+04  2.36174E+03  1.76088E+04  1.93193E+04  1.22432E+04  2.35557E+04 -5.92116E+03  3.35953E+04
 -1.83273E+04  2.18516E+04 -2.73526E+04  1.28916E+04 -1.84825E+04 -1.68519E+03 -1.85899E+04 -1.80203E+04
 -1.00484E+04 -2.14771E+04  8.02186E+03 -2.05037E+04  1.61084E+04 -1.07051E+04  1.46837E+04  7.58170E+02
  5.94256E+03  1.17592E+04 -9.19286E+03  7.94967E+03 -1.52154E+04  4.98652E+03 -1.10172E+04 -6.76529E+03
 -1.04538E+03 -1.02193E+04  5.01395E+03 -1.05564E+04  7.87494E+03 -2.17251E+03  3.39092E+03  9.33870E+02
 -5.07133E+03 -6.81959E+02 -5.70415E+03 -7.37525E+03 -4.68551E+02 -9.58080E+03  5.97184E+03 -3.16432E+03
  1.47727E+04 -3.91872E+03  1.11920E+04  4.82436E+03  9.62740E+03  7.75789E+03  1.23038E+03  1.29778E+04
 -2.56497E+03  2.01119E+04 -1.00730E+04  1.25889E+04 -1.26884E+04  2.17697E+03 -9.40654E+03 -2.18557E+03
 -3.38111E+03 -5.90908E+03  1.67805E+02  4.02645E+03 -3.40395E+03  2.11356E+03 -1.08571E+03  4.36118E+03
 -1.14523E+04 -8.44624E+02 -9.96331E+03 -4.58183E+03  2.27711E+03 -1.14790E+04  1.27996E+03 -9.87446E+03
  5.31258E+03 -6.06459E+03  4.05933E+03  1.61576E+03 -6.35319E+02 -1.18772E+01 -5.49657E+03  7.55426E+01
 -1.46830E+03 -3.09272E+03  1.58023E+03 -4.03043E+03  5.42674E+03 -3.07131E+03  7.00917E+03 -3.49549E+03
  1.35045E+04  6.03834E+03  8.58960E+03  7.80466E+03  2.10608E+03  9.31686E+03 -7.04449E+03  1.41640E+04
 -7.63903E+03  4.11364E+03 -6.02330E+03  1.56529E+03  4.44202E+03 -3.66483E+03  6.64856E+03  1.70158E+03
  2.80733E+03  2.49324E+03  4.13699E+03  7.62737E+03 -6.05426E+03  5.63179E+03 -7.68380E+03  5.37851E+02
 -5.80941E+03 -3.31712E+03  3.21432E+03 -2.01997E+03  6.00408E+03 -2.81909E+03  5.54838E+03  1.01260E+03
  1.30126E+03  5.81250E+03 -6.22683E+03  9.24716E+03 -4.75339E+03  5.33684E+03 -7.57691E+03 -2.84768E+03
 -7.53028E+02 -7.85126E+03  3.71920E+03 -7.57056E+03  4.90847E+03 -1.66990E+03  6.07956E+03  3.77136E+03
  9.81313E+03  2.68423E+03  2.75729E+03  7.11428E+03 -8.54009E+03  3.39896E+03 -5.11098E+03 -2.26939E+03
 -9.28615E+03 -3.58520E+03 -6.15248E+03 -2.89686E+03  2.58194E+03 -6.26221E+03  5.73042E+03 -1.18933E+02
 -2.74124E+03  2.17485E+02  1.27886E+03  1.44870E+03  9.47861E+00 -9.89307E+02  4.29149E+03  5.14194E+02
  6.42874E+02 -1.48964E+03  2.51220E+03  6.29811E+02  3.16474E+03  9.58925E+02  3.95625E+03  9.51805E+03
 -4.79219E+01  1.36143E+04 -5.36533E+03  8.22906E+03 -8.68175E+03  1.96466E+03 -7.99115E+03 -4.83501E+03
 -1.58664E+03 -5.80406E+03  1.18021E+02 -8.00325E+03  2.94107E+03 -1.43805E+03  5.46169E+02 -3.67222E+03
 -5.31195E+02 -4.50062E+03  4.49960E+03 -5.31949E+03  2.61704E+03 -5.21189E+02  3.47208E+03  1.57027E+03
  9.16981E+03  1.40632E+03  3.79943E+03  2.17914E+03 -4.62797E+03  8.38611E+03 -8.28595E+03  7.12335E+03
 -7.57318E+03 -1.11335E+02 -1.90674E+03 -6.03977E+03 -1.72685E+02 -6.68052E+03  1.75575E+03 -8.28561E+03
  3.59125E+03 -1.76440E+03  5.26015E+03  4.74235E+03  3.75663E+03  6.14491E+03  7.93718E+02  6.56619E+03
 -6.24742E+02  7.49007E+03 -4.22667E+03  5.85687E+03 -7.48966E+02  1.68675E+02 -1.02135E+03 -3.16641E+03
 -1.77489E+03  3.28258E+02  3.03453E+03  5.77045E+02 -7.53339E+03  5.53705E+02 -1.60417E+03 -1.03840E+03
 -2.72716E+03 -2.79531E+03  3.16714E+03 -7.72163E+03  5.02527E+03 -1.78212E+03  4.58898E+03 -2.66089E+03
  3.86446E+03  4.29167E+03  1.29545E+03  2.46984E+03 -3.00198E+03  2.30947E+03 -5.28887E+03  4.49065E+03
 -4.61089E+03  2.07739E+03 -8.14539E+02 -4.17846E+03 -5.16750E+03 -3.77235E+03  3.77756E+03 -3.41292E+03
  7.74137E+03 -3.09200E+03  7.53102E+02  4.55170E+03 -1.62465E+03  3.14166E+03  1.16256E+03 -3.28177E+03
  4.08208E+02  3.54838E+01  2.68126E+03  3.65327E+03  3.44331E+02 -2.22577E+03  1.30539E+03  3.70622E+03
 -1.13523E+01  7.27416E+03  4.15900E+02  4.92101E+03 -3.65194E+03 -1.82792E+03 -6.10481E+03 -4.01648E+03
 -6.85190E+02 -6.10522E+03 -1.23926E+03 -8.76366E+03  3.77445E+03 -4.61404E+03  4.19001E+03  4.55425E+02
  1.39282E+03 -1.03717E+03 -6.32169E+02  6.50701E+03 -2.27364E+03 -8.71828E+02 -3.19669E+02  3.03990E+03
 -1.64770E+03 -4.53493E+03  2.54637E+03  7.66700E+02  1.66664E+03 -1.53168E+03  3.62316E+03  8.44556E+01
 -2.27083E+03  1.37232E+03 -1.17152E+03  3.08675E+03 -3.62931E+02 -7.88211E+02  5.40200E+03 -3.02224E+03
 -2.30455E+03 -7.01553E+02  2.63696E+03  1.18526E+03 -4.28743E+03  3.85831E+03 -1.60469E+03  2.57644E+03
  2.14258E+03  7.04203E+03 -6.38583E+02 -3.97188E+02 -2.73454E+03 -2.33313E+03  2.76688E+03  2.98509E+03
 -2.51767E+03  2.32084E+03  1.28640E+02 -5.93978E+03  1.89027E+03  1.28186E+03  4.50122E+02  2.76927E+03
 -3.46282E+03  2.46481E+02 -1.90368E+02 -3.51278E+03  1.37835E+03 -4.46518E+03  1.05461E+03 -1.09588E+03
 -4.23143E+02  1.07954E+03  1.20312E+03 -1.26042E+03 -6.02846E+01 -1.23956E+03  3.34775E+03  1.49801E+03
 -1.05629E+03  2.01376E+03 -9.48629E+02  6.35864E+02  3.85945E+03 -4.76079E+03  3.35690E+03 -1.35617E+03
  2.57029E+03 -5.65065E+03  7.01477E+02 -6.07651E+02  1.39716E+03  9.65566E+02 -2.44662E+03  2.48116E+03
 -7.42166E+02 -3.88820E+03 -1.03284E+03 -1.25766E+03 -5.98445E+03 -2.97373E+03  7.22040E+02  4.12361E+03
  9.57107E+02 -1.97282E+03  2.24243E+02 -1.25469E+03 -2.26714E+03  3.92915E+03  1.62478E+02 -1.56007E+03
  1.89072E+03 -2.91733E+01 -1.63257E+03 -6.93191E+02 -1.93321E+03  8.90919E+02 -3.85835E+03  5.00910E+03
  2.11514E+03 -1.40781E+03 -3.59704E+03 -4.64249E+02 -1.85855E+02  2.91693E+03 -7.47343E+02 -2.25640E+03
 -3.55914E+02 -6.22024E+03  2.10530E+03 -4.12016E+03  8.40854E+00 -4.76739E+03  1.26495E+03  1.68425E+03
  2.31996E+03 -4.83282E+03  3.83592E+03 -2.73185E+02  2.03053E+03  1.03779E+03  2.97701E+03  3.38043E+03
 -8.78530E+02  3.94976E+00 -2.18967E+02 -1.84863E+03 -2.12621E+02  1.80349E+03  1.36286E+03  7.88241E+02
 -7.79154E+02 -1.52036E+02 -2.45567E+03  2.93025E+03 -3.05647E+03  2.16337E+03  1.46576E+03  1.15131E+03
 -2.70603E+03  1.12841E+03  4.37039E+01  3.34049E+03 -1.64213E+02  1.71348E+03  1.91760E+03  1.06005E+03
 -1.15870E+03  3.38841E+03 -2.45861E+03  3.61652E+03 -1.93583E+03 -1.34828E+03  1.24531E+03 -5.15900E+03
  1.01259E+02 -4.15525E+03  5.98559E+03 -2.90244E+03  1.30176E+03 -2.70773E+03  5.63506E+02  1.79628E+03
  5.56776E+02 -5.83348E+02  7.27234E+02  2.69773E+03 -2.03657E+03  3.54738E+02  4.33007E+02 -1.90813E+03
 -2.88090E+02 -2.78477E+03 -4.83843E+02 -1.23748E+03  1.30192E+03  1.02361E+03  1.42628E+03  2.42683E+03
  1.45900E+03  3.98440E+03 -5.85858E+03 -2.35801E+03 -7.55389E+02 -9.39874E+02  2.86716E+03 -8.13989E+03
  2.39504E+03 -1.03002E+03  3.94298E+01 -2.18731E+03  2.92107E+03 -5.13632E+03  8.53146E+02 -3.81243E+02
 -1.78839E+03  3.41814E+02 -1.48002E+03  2.72847E+03  1.31124E+03  2.80961E+03 -3.27186E+02  3.05056E+03
 -5.03725E+03  2.03478E+03  1.57094E+03  1.29014E+03  9.78468E+02 -2.68004E+03  2.97049E+02 -2.66855E+03
  1.78124E+03 -3.13153E+03 -1.80829E+02 -2.26103E+03  1.68644E+03  4.92222E+01  4.14551E+03 -1.11344E+03
 -9.44848E+00  3.19327E+03  2.91261E+03  1.52243E+03 -5.23069E+02  1.71555E+03  2.06143E+03 -1.30090E+02
