 $NMID ID='MM_0lb_SNR50_9hz_g60_18.RAW', FMTDAT='(8E13.5)'
 TRAMP=1., VOLUME=1. $END
  3.13751E+05  1.60294E+03  3.37726E+05  2.45149E+05  9.28190E+04  3.34241E+05 -1.36435E+05  2.48210E+05
 -1.93801E+05  8.19439E+04 -1.11424E+05 -3.41688E+04  8.45357E+02 -5.19316E+04  5.56331E+04 -5.30710E+02
  3.27455E+04  5.89931E+04 -1.93163E+04  7.73287E+04 -6.23560E+04  6.82484E+04 -8.02449E+04  3.31499E+04
 -8.41736E+04 -1.73686E+04 -6.07251E+04 -4.91172E+04 -1.74227E+04 -7.51232E+04  3.28647E+04 -4.62398E+04
  4.01922E+04 -3.21272E+03  1.02720E+04  4.87488E+04 -3.35725E+04  5.08070E+04 -6.55608E+04  3.87185E+03
 -5.00363E+04 -6.15144E+04 -1.04094E+04 -7.93657E+04  3.84241E+04 -5.56688E+04  4.82234E+04 -1.29721E+04
  5.12204E+04  6.91443E+03  2.93818E+04  2.89397E+04  1.72589E+04  3.55586E+04 -6.07112E+03  2.77902E+04
 -1.80558E+04  1.61435E+04 -1.85122E+04 -1.10447E+04  3.11212E+03 -3.86651E+03  1.92993E+04  1.32150E+04
  7.32696E+03  3.28210E+04 -3.80529E+04  3.58451E+04 -6.95064E+04  6.81873E+03 -6.85045E+04 -5.79545E+04
 -1.38399E+04 -6.69288E+04  4.39834E+04 -4.73929E+04  5.86074E+04  2.23524E+03  3.94568E+04  3.82633E+04
 -6.70939E+03  4.26946E+04 -2.69434E+04  1.34030E+04 -3.86771E+04 -8.85359E+03 -1.71937E+04 -1.03400E+04
 -1.18618E+04 -1.33702E+04 -4.37095E+03 -2.04797E+04  1.10781E+04 -1.87718E+04  1.17495E+04 -1.46078E+04
  1.69505E+04  9.87794E+02 -1.20594E+04  1.56273E+04 -1.90087E+04 -7.31088E+03 -8.25189E+03 -3.40200E+04
  2.75342E+04 -4.73052E+04  4.92756E+04 -2.42806E+04  5.66850E+04  2.13668E+04  1.52449E+04  5.01437E+04
 -1.96205E+04  3.39673E+04 -3.07760E+04  2.03007E+03 -1.35270E+04 -2.78227E+04  2.22952E+04 -4.43800E+04
  4.70055E+04 -1.25462E+04  4.43293E+04  2.88577E+04  2.21003E+04  4.60173E+04 -2.30215E+03  6.12690E+04
 -4.04325E+04  4.13952E+04 -5.04878E+04  1.09935E+04 -4.34962E+04 -1.41555E+04 -2.80971E+04 -3.83477E+04
  3.98405E+03 -4.65528E+04  2.79916E+04 -1.75490E+04  3.61942E+04  1.07047E+04  6.93881E+03  1.74763E+04
 -1.50370E+04  7.68864E+03 -1.22309E+04 -3.70332E+03  4.09831E+03 -7.32681E+03  1.77281E+04  2.39163E+03
  1.93258E+04  2.12902E+04 -6.23600E+03  2.94688E+04 -2.48944E+04  1.26563E+04 -3.44299E+04 -1.97979E+03
 -2.52568E+04 -1.53527E+04 -1.95389E+04 -2.33243E+04  6.10810E+03 -3.11167E+04  1.64409E+04 -2.60169E+04
  3.23849E+04 -1.02708E+04  3.90099E+04  1.34488E+04  2.93920E+04  2.67728E+04 -2.56283E+02  4.12968E+04
 -1.81011E+04  3.38031E+04 -3.37948E+04  1.09251E+04 -2.51354E+04 -9.19503E+03 -6.53234E+03 -9.08700E+03
  3.16264E+03  2.76308E+03 -8.74307E+03  8.76430E+03 -1.64553E+04  5.56406E+03 -2.49468E+04 -1.18999E+04
 -1.36376E+04 -2.66604E+04  5.69957E+03 -2.70298E+04  1.94631E+04 -2.17056E+04  2.50683E+04 -2.35913E+03
  1.94790E+04  1.91082E+04  4.49462E+03  2.76215E+04 -1.51664E+04  1.86161E+04 -2.53941E+04 -5.70313E+03
 -1.21608E+04 -2.28497E+04  4.68751E+03 -2.85354E+04  1.51673E+04 -2.64053E+04  2.65852E+04 -1.47199E+04
  3.13773E+04 -1.22321E+03  1.54849E+04  1.13433E+04  1.21156E+04  3.51506E+02  1.29666E+04 -6.66579E+03
  1.72829E+04  3.64548E+03  2.63269E+04  1.32293E+04  1.72076E+04  3.99615E+04  3.18678E+02  4.68720E+04
 -2.67210E+04  4.13689E+04 -4.81120E+04  1.67801E+04 -4.75195E+04 -3.78804E+03 -3.40977E+04 -3.29406E+04
 -1.62968E+04 -3.27927E+04  1.33957E+04 -3.62078E+04  2.77746E+04 -1.42223E+04  2.39476E+04  5.63567E+03
  1.36693E+03  2.04432E+04 -1.55659E+04  1.71876E+04 -1.85214E+04  4.81195E+03 -1.43475E+04 -1.65286E+04
 -5.22850E+03 -2.53294E+04  1.32370E+04 -1.34793E+04  1.68765E+04 -7.44972E+02 -1.89782E+03  3.25226E+03
 -1.92174E+03  6.24176E+03 -1.25955E+04 -1.51200E+04 -2.77829E+02 -2.29396E+04  1.36192E+04 -2.00006E+04
  2.08998E+04 -1.36149E+04  2.55735E+04  5.26513E+03  2.06087E+04  1.46829E+04  1.09036E+04  2.58514E+04
 -4.79450E+03  2.68109E+04 -2.26828E+04  1.61560E+04 -3.06491E+04 -2.42839E+03 -1.12524E+04 -1.00448E+04
 -1.07841E+04 -8.50286E+03  3.73443E+03 -7.89534E+02 -5.19305E+03  2.52669E+03 -7.64071E+03  1.11584E+04
 -1.61220E+04 -3.12899E+03 -1.17792E+04 -6.80720E+03 -3.13541E+03 -2.18406E+04  4.60374E+03 -1.31199E+04
  8.34818E+03 -3.37083E+03  9.16721E+03 -4.18365E+03  1.65810E+03  2.79774E+03 -4.48546E+03 -6.02132E+03
 -1.13282E+04 -1.03175E+04 -3.71826E+03 -1.84867E+04  1.01453E+04 -2.10654E+04  1.74160E+04 -7.83177E+03
  2.05833E+04 -1.37351E+03  2.30875E+04  1.71045E+04  2.91773E+03  2.35768E+04 -1.20703E+04  2.17840E+04
 -1.13217E+04  6.86512E+03 -6.63108E+03  1.16601E+03  1.33303E+03 -5.34600E+03  8.87153E+03  2.90985E+03
  6.45227E+03  1.07766E+04  2.87392E+03  8.30077E+03 -9.95452E+03  9.60324E+03 -1.48190E+04  8.72573E+03
 -8.69502E+03 -6.36899E+03 -1.04532E+04 -1.83671E+04  6.82000E+03 -1.15142E+04  7.25652E+03  6.20637E+03
  5.90338E+03  1.31272E+04 -8.77004E+03  1.59078E+04 -1.23910E+04  9.87435E+03 -1.75390E+04 -7.25464E+03
 -9.50972E+03 -1.86063E+04  6.16210E+03 -1.63397E+04  1.67541E+04 -1.06032E+04  1.44912E+04  7.92913E+02
  1.47138E+04  2.45320E+04 -2.57941E+03  1.33988E+04 -1.25197E+04  9.55204E+03 -1.09595E+04 -7.11580E+03
 -8.84107E+03 -8.69604E+03 -6.17846E+03 -1.56696E+04  8.45635E+03 -9.93869E+03  2.97967E+03 -2.35676E+03
  4.02500E+03  4.29544E+03 -4.00248E+03  3.62692E+03  2.83341E+03 -6.36507E+03  6.91117E+03 -3.97355E+03
  1.40108E+04 -9.68648E+03  2.08189E+04 -3.06494E+03  1.28830E+04  7.97448E+03  1.16777E+04  3.15709E+04
 -1.13123E+04  2.84490E+04 -2.46431E+04  1.23160E+04 -2.94041E+04  1.10291E+04 -1.99308E+04 -5.96344E+03
 -1.16470E+04 -1.87218E+04 -8.81475E+03 -1.30170E+04  8.28385E+03 -7.70868E+03  2.64746E+03 -4.48665E+02
  2.07661E+03 -1.47870E+03  2.88045E+03  3.27344E+03  1.10626E+04 -2.08291E+03  1.32871E+04  2.92469E+03
  8.01524E+03 -2.87599E+03  6.97617E+03  1.34033E+04 -2.80115E+03  1.18807E+04 -1.58957E+04  5.54388E+03
 -9.86461E+03 -2.34628E+03 -1.41336E+04 -8.59087E+03 -4.02090E+03 -1.42395E+04  9.07471E+03 -1.63520E+04
  1.37469E+04 -4.98193E+03  1.79010E+04  6.20990E+03  1.86583E+04  1.69450E+04  5.72886E+03  2.48361E+04
 -7.30040E+03  1.32464E+04 -1.21285E+04  3.86081E+03 -4.06509E+03 -2.21098E+03 -6.65222E+03 -5.76740E+03
 -3.54941E+03 -2.03373E+03 -2.77359E+03  2.19222E+03 -4.61394E+03 -1.59410E+02 -7.90751E+03 -4.54584E+03
 -7.92186E+03 -7.42823E+03 -1.09579E+03 -1.59709E+04  1.01159E+04 -1.06442E+04  8.91167E+03 -2.88134E+03
  1.52939E+04  7.45760E+03  6.49083E+03  1.15380E+04 -2.53869E+03  2.13411E+04 -9.64354E+03  1.03678E+04
 -1.78292E+04  5.26870E+03 -1.42617E+04 -1.15895E+04 -3.95920E+03 -1.42455E+04  1.19605E+04 -1.11498E+04
  9.11005E+03 -3.80116E+03  1.21752E+02  4.82572E+03  2.57313E+03  6.48651E+03  2.64616E+02  7.62212E+03
  2.02068E+03 -1.54634E+03  6.20608E+03  1.93831E+02  1.87660E+03  7.99430E+03  1.11250E+04  4.22098E+03
 -7.14314E+03  1.74100E+04 -1.36061E+04  1.13423E+04 -1.57672E+04  1.87748E+03 -1.83305E+04 -5.87214E+03
 -1.22183E+04 -1.95903E+04  1.03256E+04 -2.11740E+04  1.33105E+04 -3.48886E+03  1.80082E+04 -1.59955E+03
  9.32472E+03  9.91796E+03  1.53635E+02  9.69338E+03 -3.74776E+03  5.91258E+03 -1.29753E+04 -3.16493E+03
 -7.53546E+03 -1.14534E+04 -1.98004E+03 -6.43551E+03  6.94141E+03 -3.63564E+03  9.93100E+03 -3.00825E+02
 -2.25273E+03  4.76156E+03  5.10696E+03  5.58861E+03  8.99391E+03  3.69069E+03  2.38182E+03  2.73651E+02
 -4.01244E+03  2.47745E+03  7.30164E+03  1.11353E+04  9.05088E+02  1.16490E+04  2.20581E+03  1.49845E+04
 -9.25978E+03  9.19142E+03 -1.28661E+04  5.34563E+03 -1.24443E+02 -6.49670E+03 -7.38776E+03 -6.77581E+03
 -8.98291E+02 -1.20616E+04 -1.17476E+02 -2.38900E+02  9.09317E+02  4.25475E+03 -1.56071E+03  2.88372E+03
 -7.81581E+03  7.88414E+03 -7.88018E+03 -3.39645E+03 -5.42095E+03 -2.34296E+03 -2.42683E+03 -8.97104E+03
  1.55366E+03  1.68347E+03  1.09617E+04 -1.50027E+03  5.18282E+03 -3.78675E+03 -5.20339E+03  7.69080E+03
 -7.60278E+03 -1.25297E+03 -5.17439E+03 -4.28902E+03  6.27772E+03 -9.84047E+03 -1.70409E+03 -3.53001E+03
  4.57454E+03  2.62667E+03  1.20180E+04 -5.99862E+03  6.88696E+03  1.21324E+04 -3.08360E+03  8.35464E+03
 -1.03242E+04  2.84308E+03 -6.78464E+03 -3.43215E+03 -2.40121E+03 -6.10216E+03  2.34542E+03 -4.67751E+03
  5.92718E+03 -1.55187E+03 -7.79495E+02  5.60117E+03  2.89938E+03  2.33596E+03 -2.55130E+03  5.75293E+03
 -3.04105E+03 -4.76839E+03  1.03817E+03  3.98241E+03  4.15915E+02  5.17931E+03  3.02254E+03  4.06507E+03
  2.79771E+03  4.04328E+03 -8.78971E+03  1.08322E+03 -1.29092E+04  5.06471E+03 -8.68416E+03 -1.10292E+04
 -6.98272E+03 -1.51703E+04  8.57931E+03 -2.15818E+04  1.17458E+04 -1.34812E+04  1.25714E+04 -6.68990E+03
  1.85812E+04  3.75839E+02  1.13241E+04  1.47679E+04  2.28623E+00  1.33024E+04 -1.39388E+03  3.43041E+03
 -1.02546E+04  1.25987E+03 -5.58238E+03 -2.90534E+03 -8.37605E+02 -5.57211E+03  1.50973E+03 -6.00010E+03
  5.43281E+03 -2.75706E+02 -5.55413E+03  1.81751E+03  1.87605E+03 -9.63487E+03  4.94455E+03 -1.21045E+03
  7.60100E+03 -8.92360E+03  6.48779E+03 -9.70431E+02  7.49114E+03  3.94663E+03  5.81320E+03  9.79471E+03
 -6.58690E+03  1.15815E+04 -1.21944E+04  5.53159E+03 -1.67267E+04  2.60689E+03 -1.72845E+04 -6.12084E+03
 -1.50619E+03 -1.22967E+04  4.81029E+03 -9.04286E+03  1.06304E+04 -6.95490E+03  1.49634E+04  4.02707E+03
  9.21888E+03  3.86344E+03  4.21159E+02  2.48050E+03  2.60717E+03 -3.97876E+02  8.80760E+02 -3.46631E+03
  3.69175E+03 -1.89977E+03  9.12975E+03 -7.31759E+02  1.29220E+03  1.48277E+04 -5.51007E+03  2.12353E+03
 -1.31882E+03  5.26506E+03 -6.67474E+03 -2.47632E+03 -1.07854E+04 -7.18254E+03 -1.29482E+03 -1.28952E+04
  8.18182E+03 -5.23552E+03  5.52088E+03 -2.67926E+02  9.07667E+03  3.50958E+03  7.00113E+03  8.77382E+03
 -3.10144E+03  1.19966E+04 -6.52214E+02  5.85146E+03 -2.81785E+03  2.63424E+03 -6.77147E+03  5.44432E+03
 -1.09749E+04  4.40535E+03  2.38824E+03 -4.37442E+03 -5.39890E+03  2.66675E+02 -5.23905E+03 -6.54461E+03
 -3.53969E+03 -7.82929E+03 -4.66452E+03 -2.51188E+03  3.07160E+03 -9.14270E+03  6.48031E+03 -6.05741E+03
  6.30998E+03  4.36748E+03  1.40671E+03  2.80064E+03  6.33263E+03  1.00933E+04 -8.92506E+03  4.71653E+03
