 $NMID ID='MM_0lb_SNR50_18hz_g40_42.RAW', FMTDAT='(8E13.5)'
 TRAMP=1., VOLUME=1. $END
  3.10070E+05  3.88525E+03  3.35902E+05  2.51785E+05  8.46304E+04  3.37930E+05 -1.31457E+05  2.48238E+05
 -1.89460E+05  8.37778E+04 -1.11770E+05 -3.52902E+04  3.11923E+03 -4.95599E+04  5.34126E+04  6.10243E+02
  3.31120E+04  5.23590E+04 -1.54415E+04  7.93453E+04 -6.13022E+04  6.29760E+04 -8.26685E+04  3.34308E+04
 -7.99193E+04 -1.46530E+04 -5.74484E+04 -5.09128E+04 -1.47115E+04 -7.11892E+04  2.94842E+04 -4.29705E+04
  4.05202E+04  6.66270E+03  1.24270E+04  4.67841E+04 -3.37872E+04  4.38471E+04 -6.62516E+04 -1.08428E+03
 -5.24193E+04 -5.75672E+04 -9.27394E+03 -7.21368E+04  3.08588E+04 -5.19143E+04  4.93718E+04 -1.34767E+04
  4.18543E+04  6.33585E+03  2.86195E+04  2.78497E+04  1.49821E+04  3.18625E+04 -5.32276E+03  2.72652E+04
 -2.04538E+04  1.24391E+04 -2.10455E+04 -7.07611E+03  4.39093E+03 -8.59390E+03  2.18604E+04  1.27513E+04
  7.22643E+03  3.47533E+04 -3.07713E+04  2.95289E+04 -6.35068E+04  4.77175E+02 -5.62970E+04 -3.99988E+04
 -1.09979E+04 -5.90208E+04  3.54498E+04 -4.22478E+04  5.58216E+04 -4.52861E+03  3.00726E+04  3.09899E+04
 -8.11711E+03  3.34578E+04 -2.40916E+04  1.15033E+04 -2.63518E+04 -6.51342E+03 -1.22958E+04 -9.64940E+03
 -6.65966E+03 -1.17414E+04 -5.58228E+03 -1.46062E+04  6.46525E+03 -2.13468E+04  1.57923E+04 -1.46364E+04
  1.21206E+04  3.81608E+03 -4.03230E+03  1.29070E+04 -1.98342E+04 -2.79948E+03 -7.98400E+03 -2.54739E+04
  2.11235E+04 -4.11268E+04  4.11060E+04 -1.98915E+04  4.19698E+04  1.64856E+04  1.72143E+04  4.11770E+04
 -1.34350E+04  3.06547E+04 -2.32037E+04 -8.68741E+02 -9.48726E+03 -2.74532E+04  1.93729E+04 -2.65320E+04
  3.65002E+04 -7.60702E+03  3.02500E+04  2.07285E+04  1.71236E+04  4.24678E+04 -8.33140E+03  4.19540E+04
 -2.88545E+04  2.69247E+04 -3.77733E+04  7.79936E+03 -3.89191E+04 -1.45702E+04 -2.26838E+04 -3.33079E+04
  9.81925E+03 -3.66527E+04  3.08232E+04 -1.41975E+04  2.82025E+04  8.85062E+03  1.90384E+03  1.71041E+04
 -1.57289E+04  1.15905E+04 -8.08003E+03 -1.06167E+04  9.63250E+03 -1.21347E+04  1.38782E+04  9.12675E+03
  9.46891E+03  2.43483E+04 -6.47166E+03  2.60687E+04 -2.44158E+04  7.31746E+03 -2.41599E+04 -7.50408E+03
 -1.73004E+04 -1.71481E+04 -9.73319E+03 -1.30495E+04  7.20009E+03 -1.33077E+04  1.24777E+04 -1.29404E+04
  1.88472E+04 -1.16607E+04  2.15971E+04  5.34381E+02  2.62142E+04  1.34832E+04  5.61394E+03  3.14804E+04
 -1.45903E+04  2.42657E+04 -2.73593E+04  5.60332E+03 -1.95702E+04 -7.44032E+03 -1.88718E+03 -1.71192E+04
  4.41542E+03 -6.64557E+03  6.67610E+02  7.58329E+03 -1.35071E+04  2.82881E+03 -1.27001E+04 -4.36975E+03
 -1.37594E+04 -1.97481E+04  7.80345E+03 -1.71444E+04  1.54123E+04 -1.46011E+04  1.67059E+04  1.69974E+02
  6.44609E+03  9.54460E+03 -3.41984E+03  1.59518E+04 -6.28996E+03  1.24609E+04 -1.73036E+04 -3.43791E+03
 -1.34397E+04 -1.38913E+04  1.06390E+03 -1.90965E+04  8.37367E+03 -1.64482E+04  1.78156E+04 -4.00488E+03
  1.48300E+04 -4.37727E+03  1.37046E+04  2.07117E+03  6.86323E+03  3.34461E+02  6.72906E+03  5.42562E+01
  1.31416E+04  1.80794E+03  1.30005E+04  1.27081E+04  1.33453E+04  2.12142E+04 -1.28089E+03  3.21798E+04
 -1.59786E+04  1.88018E+04 -2.14717E+04  5.91154E+03 -2.80184E+04 -2.64481E+03 -2.03292E+04 -1.60554E+04
 -6.57286E+03 -2.13922E+04  1.77849E+03 -1.89126E+04  1.30955E+04 -1.31369E+04  1.61079E+04  4.98773E+03
  7.62343E+03  1.58083E+04 -5.39302E+03  8.75547E+03 -1.56916E+04  1.83426E+03 -9.47303E+03 -9.00646E+03
 -1.06750E+03 -1.30439E+04  1.97083E+03 -1.00027E+04  7.46749E+03 -3.37283E+03  7.03298E+02  2.86405E+03
 -3.00647E+03  6.06746E+03  2.96441E+03 -3.51762E+03  1.70454E+03 -6.01961E+03  4.32425E+03 -1.09395E+04
  6.99034E+03 -1.57223E+03  1.26186E+04  7.06205E+03  1.02564E+04  1.26808E+04  9.33180E+03  1.69131E+04
 -2.72530E+03  1.71084E+04 -1.27872E+04  7.44667E+03 -1.07015E+04  1.36595E+03 -9.27337E+03 -4.99713E+03
 -1.39794E+03 -6.77063E+03  1.80480E+03  4.34761E+03 -1.16068E+03  1.34143E+03 -2.91992E+03  4.75014E+03
 -7.20470E+03  1.49016E+03 -6.40128E+03 -7.42777E+03 -1.64219E+03 -1.05530E+04  6.98573E+03 -1.36345E+04
  9.10780E+03 -3.17016E+03  6.26836E+03  4.48754E+03 -4.19439E+02 -2.92200E+01 -7.04551E+02  1.98230E+02
 -2.93022E+03 -3.26960E+03  3.88788E+03 -5.11936E+03  1.85123E+03 -7.34365E+03  1.09690E+04 -8.04262E+03
  1.44043E+04 -6.10420E+02  1.03641E+04  4.35616E+03  1.33688E+03  7.42689E+03 -4.52039E+03  8.01771E+03
 -9.79664E+03  8.44415E+02 -5.59251E+03  6.38655E+02  3.81541E+03 -8.51091E+02  1.67248E+03 -2.21357E+03
  3.23746E+03  1.91206E+03  3.30257E+03  5.86710E+03 -5.67550E+03  6.69814E+03 -2.31710E+03  9.04303E+02
 -6.97347E+03 -1.12384E+03 -2.92723E+03 -6.89511E+03  3.51021E+03 -3.45648E+03  4.07060E+03  7.70024E+01
  1.20607E+03  8.30083E+03 -2.99231E+03  7.77113E+03 -7.11179E+03  6.76982E+02 -5.61637E+03  5.29610E+01
 -1.64512E+03 -6.52894E+03  2.53028E+03 -1.06033E+04  6.04559E+03 -1.22124E+03  3.79424E+03  1.42339E+03
  3.35305E+03  4.78113E+03 -1.43055E+03  6.58404E+03 -6.70489E+03  6.05144E+03 -8.89866E+03  1.49950E+03
 -5.96630E+03 -5.37415E+03 -2.44368E+03 -6.37088E+03  8.42252E+02 -5.09810E+03  2.29988E+03 -3.11808E+03
  5.02167E+03 -9.99460E+02  1.36302E+03 -6.73615E+02 -3.12173E+03 -2.07980E+03  5.88558E+02 -4.09492E+03
  5.98238E+03  7.91989E+02  5.22082E+03  3.17165E+03  7.35746E+03  3.92503E+03  3.71961E+03  3.06786E+03
 -1.49067E+03  4.56474E+03 -9.78417E+03  7.14958E+03 -1.32751E+04 -2.58964E+03 -9.03696E+03 -3.40837E+03
 -5.13385E+03 -4.47994E+03 -3.14366E+03 -7.85292E+03  2.14065E+03 -2.49029E+03 -8.45397E+02 -6.11233E+03
  1.27493E+03  6.94070E+02  7.93086E+02 -3.32170E+03  4.25704E+03 -5.40297E+03  2.74724E+03  2.23763E+03
  6.18494E+02  2.40001E+03 -4.17795E+03  5.01620E+03 -3.05067E+03  8.70724E+03 -3.39692E+03  2.04063E+03
 -4.49347E+03 -7.80708E+01 -4.04046E+03 -3.41549E+03 -2.44734E+03 -4.26907E+03  4.85583E+03 -6.84370E+03
  9.17728E+03 -7.35809E+03  5.31531E+03 -2.56880E+03  4.60767E+03  7.21506E+03  4.46092E+03  5.29445E+02
 -2.77843E+03  5.85900E+03 -2.55392E+03 -1.24778E+03 -4.68580E+03 -3.14257E+03 -2.03152E+03  3.82434E+03
  1.95096E+01  5.39738E+02  1.77079E+03  3.67204E+03 -2.66388E+03 -2.06075E+03  3.31110E+02  3.43782E+02
  1.03841E+03 -9.97915E+01  4.21892E+03 -4.22515E+03  9.67870E+02 -5.05537E+03  5.60117E+03 -6.48936E+02
  5.12274E+03  2.69303E+03  4.80787E+02  1.40908E+03  1.49294E+03  7.46091E+03 -2.88204E+03  1.35967E+03
 -2.91917E+03  1.23008E+03 -3.51171E+02 -2.06754E+03 -2.71379E+03 -5.09418E+03  7.81486E+03 -2.92671E+03
  3.26274E+03 -2.36686E+02  6.75380E+03 -2.27473E+03 -7.18101E+02  3.04168E+03  1.78150E+03 -2.10962E+03
  3.01959E+03  1.97186E+03  3.93930E+03  3.83336E+03  1.89827E+02  9.43365E+02 -1.09403E+03 -6.19747E+02
 -2.17243E+03  2.89584E+03 -2.90406E+03  5.54480E+03  4.74233E+02  3.58806E+03 -3.76232E+03  2.39703E+02
 -1.77926E+03 -6.04299E+03 -2.33504E+03 -2.82222E+03  3.15135E+03  2.67676E+02  4.43111E+02 -1.62580E+03
  2.16139E+03  8.23303E+02  3.71977E+03  3.78656E+03 -1.87585E+03  1.59633E+03  2.68492E+03 -2.10509E+03
 -3.33339E+02  4.42796E+03  2.98944E+03 -6.80439E+02  5.89028E+03 -1.28434E+03  1.05121E+03 -8.54035E+02
  4.73188E+02  4.53116E+03  3.06377E+03  7.20444E+02 -6.90733E+03 -4.45056E+03  3.50098E+03 -1.27327E+03
  2.03016E+03  1.57764E+03  6.15121E+03 -6.92976E+01  8.48858E+02  1.37122E+02 -6.79652E+02  5.11773E+02
 -1.28376E+03 -9.89750E+01 -1.70313E+03 -2.19293E+03 -3.77934E+03 -2.81450E+01 -1.80207E+03 -3.82242E+03
 -2.97561E+03 -3.34235E+03  1.89548E+03  1.22856E+03 -4.50342E+03  3.11492E+03 -2.44549E+02 -4.16369E+02
 -2.11158E+03 -8.05706E+02 -2.81535E+03  7.62684E+02 -2.05737E+03 -1.71328E+03  1.32917E+03  2.30364E+03
  9.92685E+02 -1.27910E+03 -2.78969E+01  1.47165E+03 -2.19416E+02 -1.40629E+03 -2.39941E+03 -1.54740E+03
 -1.73215E+03 -2.40031E+03 -3.72267E+03 -1.01023E+03 -1.22850E+02  1.44602E+03  6.56874E+03 -6.94908E+02
  5.17537E+02 -1.56028E+03  2.60539E+03 -1.29594E+03  4.34794E+03  1.44933E+03 -1.36966E+03  3.20524E+03
 -3.19911E+03 -1.41957E+03 -1.83622E+03 -1.38257E+02 -6.81128E+03  1.33935E+03 -5.52510E+03  3.44368E+02
  3.36139E+02  2.28468E+03  2.98615E+03  1.89171E+03 -1.99523E+03 -2.01286E+03  2.36464E+03 -1.08097E+03
  2.44564E+03  1.42923E+03 -2.83068E+03  6.16130E+02  1.95807E+03  3.19074E+03 -5.59144E+03 -1.65261E+03
  3.52575E+03  3.92509E+03 -2.63952E+03  2.23477E+03 -2.17198E+03  4.76655E+02 -4.52421E+03 -3.23399E+03
  1.76648E+03 -2.73984E+03  1.03682E+03 -1.12656E+03  5.82011E+03 -3.65251E+03  3.64178E+03 -1.69225E+03
  1.37462E+03  5.88846E+02  3.70209E+03  1.09366E+03  3.01739E+03 -2.71895E+03 -2.77650E+02  3.62772E+03
  1.90916E+03  4.32797E+03 -3.82705E+03  4.62062E+03 -7.42678E+02  4.00123E+02  6.02690E+03  2.51851E+03
  1.02986E+03  1.00433E+03 -1.93250E+03 -1.16712E+03  2.33450E+03  3.28473E+02 -6.82388E+02 -2.49099E+03
  3.57652E+03 -3.16136E+03 -1.34878E+02  4.48004E+03 -2.03741E+03  4.15895E+03 -1.10951E+03 -4.53542E+02
  8.46295E+02  2.37303E+03 -3.32255E+03 -1.12605E+03 -2.39051E+03  1.55663E+02 -4.16322E+03  2.18294E+03
 -1.96532E+03 -1.68757E+03  9.83558E+02  7.65705E+02  7.65299E+02  3.38930E+03 -9.76106E+01  3.60959E+02
  2.33618E+03 -2.54050E+03  1.97005E+02  4.42662E+03 -9.79734E+02 -1.17287E+03 -1.41299E+03  8.27065E+02
  4.70883E+03  1.65795E+02  1.03231E+03  3.27242E+03 -9.91830E+02  8.05083E+02  9.11302E+02  3.70611E+03
 -1.90597E+03  1.73909E+03 -2.13899E+03 -3.26309E+03 -9.24480E+02 -7.96228E+02 -1.58652E+03 -1.05742E+03
  2.03717E+03 -4.68509E+03  3.62427E+03  5.74600E+02  3.76152E+03  3.26190E+03  1.41583E+03  2.77243E+03
  1.40456E+03  9.62169E+02  1.10214E+03  6.07644E+03 -4.61840E+03  5.40815E+02  3.71128E+02 -4.26953E+03
 -2.42512E+03 -9.63104E+02  2.52609E+03  5.21842E+03  2.26809E+03  6.37485E+02  7.17994E+02 -3.32113E+03
 -1.82220E+03 -5.24290E+02 -8.76322E+02 -2.26458E+03  2.16377E+02  4.61766E+02  2.37601E+03 -3.34352E+03
  7.30198E+02 -2.07468E+03 -3.56666E+03  9.31209E+02  3.20634E+03  1.27506E+03  4.15906E+03 -3.96709E+03
