 $NMID ID='MM_0lb_SNR50_14hz_g60_75.RAW', FMTDAT='(8E13.5)'
 TRAMP=1., VOLUME=1. $END
  3.08948E+05 -1.22210E+03  3.34607E+05  2.52918E+05  8.41353E+04  3.39631E+05 -1.28540E+05  2.54386E+05
 -1.88667E+05  8.09009E+04 -1.17420E+05 -3.28986E+04  1.50060E+03 -4.96525E+04  5.31801E+04 -3.57494E+03
  3.92507E+04  5.41129E+04 -1.13028E+04  7.12896E+04 -6.32926E+04  6.76154E+04 -8.20089E+04  2.87042E+04
 -8.07129E+04 -1.34140E+04 -5.39651E+04 -5.03296E+04 -1.27132E+04 -7.14086E+04  3.09134E+04 -4.62958E+04
  4.39957E+04  5.68922E+03  1.61092E+04  4.42964E+04 -3.91099E+04  4.56727E+04 -6.88485E+04 -7.80013E+02
 -5.68892E+04 -6.15341E+04 -4.99630E+03 -7.70586E+04  3.53169E+04 -5.19739E+04  5.27961E+04 -2.09798E+04
  4.24544E+04  6.71616E+03  3.46116E+04  2.72186E+04  1.96399E+04  3.02645E+04 -3.79995E+02  3.29135E+04
 -2.32919E+04  1.42424E+04 -1.89146E+04 -7.75668E+03  7.79077E+03 -1.05375E+04  1.87874E+04  1.64699E+04
  6.42590E+03  3.48217E+04 -3.30446E+04  3.62832E+04 -6.27607E+04  2.83954E+03 -5.77732E+04 -4.14962E+04
 -1.25805E+04 -6.16715E+04  4.68330E+04 -4.84347E+04  6.06923E+04 -8.46268E+03  3.68095E+04  3.78365E+04
 -3.08605E+03  3.73900E+04 -3.16289E+04  1.06601E+04 -3.13238E+04 -1.34022E+03 -1.97624E+04 -1.42910E+04
 -1.29700E+04 -1.70756E+04 -2.28068E+03 -1.55401E+04  1.02679E+04 -2.71166E+04  1.55097E+04 -1.20237E+04
  7.13093E+03  2.45990E+03 -9.50282E+03  1.61356E+04 -2.47975E+04 -8.26573E+03 -8.78010E+03 -3.40487E+04
  2.60691E+04 -4.61427E+04  4.75901E+04 -1.93062E+04  4.55457E+04  1.74372E+04  1.73517E+04  5.01954E+04
 -1.83572E+04  3.86766E+04 -1.62452E+04  6.80960E+02 -1.16560E+04 -2.88310E+04  1.67513E+04 -3.85254E+04
  4.32786E+04 -1.32586E+04  4.08664E+04  2.45274E+04  2.07091E+04  4.45409E+04 -8.51443E+03  5.47472E+04
 -3.10398E+04  3.58333E+04 -4.13033E+04  1.13829E+04 -4.50168E+04 -1.96701E+04 -2.14903E+04 -3.63422E+04
  7.92611E+03 -3.35126E+04  2.94350E+04 -1.68095E+04  3.21225E+04  1.31375E+04  6.70479E+03  2.03961E+04
 -1.32019E+04  1.23150E+04 -8.72793E+03 -6.74282E+03  8.82240E+03 -1.23457E+04  1.52514E+04  5.31285E+03
  1.19903E+04  2.35859E+04 -7.48664E+03  2.49993E+04 -2.48037E+04  1.15950E+04 -2.99872E+04 -9.58916E+03
 -2.06320E+04 -1.92151E+04 -8.94170E+03 -2.12403E+04  6.72411E+03 -2.05727E+04  2.26404E+04 -2.05719E+04
  2.70779E+04 -1.35698E+04  3.31916E+04  3.49493E+03  2.43308E+04  2.03511E+04  8.14113E+02  4.07155E+04
 -1.91849E+04  3.21722E+04 -2.79698E+04  1.02563E+04 -2.02874E+04 -8.45665E+03 -4.50793E+03 -1.68360E+04
  4.02541E+03 -1.29658E+03 -3.70508E+03  8.19192E+03 -1.91677E+04  5.19747E+03 -1.91549E+04 -1.47482E+03
 -6.69028E+03 -2.19840E+04  6.96769E+03 -2.73496E+04  1.34741E+04 -1.91204E+04  2.18906E+04 -4.27065E+03
  1.42421E+04  1.39968E+04  1.93230E+03  2.10096E+04 -1.59342E+04  1.28868E+04 -1.97099E+04 -7.15734E+03
 -1.73010E+04 -1.78158E+04  5.21146E+02 -2.86873E+04  6.95768E+03 -2.31804E+04  1.48971E+04 -8.71856E+03
  1.87154E+04  2.02481E+03  1.09840E+04  9.56611E+03  9.28048E+03  5.78005E+03  9.82867E+03  4.88025E+03
  2.40357E+04  5.92019E+03  2.26284E+04  1.43072E+04  1.47511E+04  3.36872E+04 -4.29038E+03  3.46633E+04
 -1.92367E+04  3.25935E+04 -3.47818E+04  1.10722E+04 -3.76091E+04  1.90406E+03 -2.97431E+04 -1.84578E+04
 -1.23361E+04 -2.51508E+04  4.89196E+03 -2.45474E+04  2.28629E+04 -1.57255E+04  1.61341E+04  9.90028E+03
  5.24519E+03  2.25091E+04 -9.34140E+03  1.60522E+04 -1.69449E+04  3.79894E+02 -1.05687E+04 -1.14019E+04
 -3.98286E+03 -1.63723E+04  1.04390E+04 -9.82477E+03  1.01272E+04  5.92572E+02  2.06568E+03  5.38150E+03
 -3.58902E+03  6.43880E+03 -3.55517E+03 -6.93349E+03  2.67023E+03 -1.21106E+04  8.96368E+03 -1.72566E+04
  1.43154E+04 -3.50270E+03  1.46332E+04  7.10614E+03  2.20027E+04  1.62937E+04  1.33036E+04  2.12485E+04
 -6.79204E+03  2.34779E+04 -1.40259E+04  1.73618E+04 -2.63602E+04  5.97917E+03 -1.17766E+04 -3.07243E+03
  3.36794E+02 -5.54367E+03 -7.87202E+02 -2.55244E+03 -4.90806E+03  3.77934E+03 -3.50535E+03  5.45900E+03
 -1.29259E+04 -3.82276E+03 -7.34564E+03 -1.04181E+04 -9.54825E+02 -1.18351E+04  2.48424E+03 -1.51569E+04
  8.48516E+03 -3.40760E+03  1.11356E+04  4.74565E+03 -1.81322E+03  1.30427E+03 -1.08743E+04 -7.58413E+02
 -4.97345E+03 -4.62074E+03 -5.59667E+03 -9.72328E+03  6.57389E+03 -9.88500E+03  1.11754E+04 -6.04994E+03
  1.65388E+04  1.81195E+02  1.10780E+04  9.77101E+03  7.85295E+03  1.53793E+04 -5.10086E+03  1.47256E+04
 -6.26462E+03  1.86858E+03  8.39070E+02 -6.10062E+03  3.25083E+03 -1.20047E+03  3.86772E+02 -2.24129E+03
  4.55409E+03  2.48163E+03 -3.90531E+03  6.67812E+03 -1.08305E+04  9.42776E+03 -1.11524E+04  1.91673E+03
 -6.39945E+03 -4.36180E+03  3.95098E+03 -1.32715E+04  9.57655E+03  1.20577E+02 -4.60877E+02 -3.31392E+03
  2.98435E+03  5.43985E+03 -6.38283E+03  9.83223E+03 -1.08973E+04  4.83698E+03 -5.22229E+03 -4.35105E+03
 -8.48362E+03 -9.76688E+03  1.25659E+03 -9.97858E+03  1.22034E+04 -1.13578E+04  8.65122E+03  4.89127E+03
  5.70779E+03  1.07942E+04 -1.59332E+02  9.94468E+03 -1.35671E+04  9.47419E+03 -8.92117E+03 -4.98305E+03
 -8.03171E+03 -8.65533E+03  1.54879E+03 -7.53535E+03  8.22414E+03 -5.01360E+03  6.24278E+03 -7.08121E+03
  5.52852E+03  4.45664E+03  5.57511E+02  3.65938E+03  1.02845E+02 -1.03351E+03  3.68812E+03 -2.35245E+03
  3.40354E+03  1.14913E+03  1.00658E+04  1.48946E+03  9.52357E+03  6.18526E+03  9.34942E+03  1.28899E+04
 -7.57195E+02  1.75496E+04 -1.19244E+04  1.15367E+04 -1.39520E+04  4.71253E+03 -1.13720E+04  1.73021E+03
 -1.08542E+04 -1.02430E+04  3.87810E+00 -9.53180E+03  7.37143E+02 -1.92171E+03  4.87773E+03 -4.97272E+03
  7.95673E+03 -4.97676E+03  3.26427E+03  2.63783E+02  9.65925E+03  3.69935E+03  6.54876E+03  6.10568E+02
  5.55343E+03  2.75424E+03  4.80626E+03  7.08289E+03 -7.89716E+03  1.33611E+04 -8.61034E+03  3.92897E+03
 -4.73791E+03  1.52984E+03 -7.48585E+03 -2.82889E+03  1.58699E+03 -8.05874E+03  4.88560E+03 -1.14166E+04
  1.27626E+04 -1.02551E+04  1.27653E+04  2.77090E+03  1.34603E+04  6.50659E+03  7.44653E+03  1.07290E+04
 -2.58556E+02  8.04266E+03 -1.14745E+04  4.14526E+03 -3.60059E+03 -1.56257E+03 -1.25190E+03  7.05105E+01
 -2.34686E+03 -2.57523E+03 -3.09236E+03  1.67866E+03 -7.00354E+03 -2.27525E+02 -6.16673E+03 -1.11928E+03
 -2.13923E+03 -9.39970E+03 -5.32970E+03 -7.99759E+03  2.20377E+03 -5.64263E+03  9.84444E+03 -3.15180E+03
  1.11756E+04  6.33473E+02  8.55874E+03  3.80607E+03  8.58827E+02  1.32511E+04 -9.09791E+03  8.17413E+03
 -7.78685E+03  2.09534E+03 -3.72977E+03 -8.17377E+03 -5.95060E+02 -1.10372E+04  1.85222E+03 -7.49374E+03
  9.08517E+03 -1.98071E+02  6.47324E+03  1.30540E+03 -4.87870E+03  5.00450E+03 -1.06498E+03  2.89946E+03
 -3.27949E+02  3.18332E+03  5.53867E+03  3.08804E+03  2.99292E+02  5.79611E+02  1.94221E+03  4.33567E+03
 -1.44348E+02  7.17819E+03 -3.01280E+03  5.89317E+03 -7.70493E+03  1.16737E+03 -1.42863E+04 -8.24829E+02
 -3.65400E+03 -1.51694E+04 -3.09271E+03 -1.03451E+04 -9.39730E+02 -2.57423E+03  7.16023E+03 -3.10475E+03
  6.02505E+03  3.91631E+03 -3.32274E+03  3.42820E+03 -8.45701E+02  2.63455E+02 -4.91057E+03  3.38276E+03
 -4.79322E+03 -1.99678E+03  5.66555E+03 -1.81050E+03  7.46240E+03 -2.65984E+03  1.33345E+03  2.41090E+02
  2.84031E+03  2.88336E+03  2.23803E+03 -3.37246E+03  2.20437E+03  4.55593E+03  4.48543E+03 -4.71671E+03
  3.06986E+03 -4.57212E+03  4.70155E+03  2.11969E+03  2.42807E+03  2.09234E+03 -1.87226E+03  5.18615E+03
 -4.73052E+03  4.61516E+03 -4.92435E+03  5.01589E+02 -5.75181E+03 -9.37101E+02  4.39576E+03 -3.02844E+03
 -3.83798E+03 -1.10641E+03  2.56818E+03  1.97877E+03  1.60339E+03  2.13862E+03 -5.16385E+02 -1.24037E+03
 -5.60854E+03  2.01767E+03 -2.85418E+03 -1.55769E+03 -3.23592E+02 -3.94237E+03  1.59799E+02 -3.44544E+02
  3.36326E+03 -7.11149E+02  1.31390E+03 -2.06280E+03  7.30037E+03  3.79701E+03 -9.83200E+02  4.78043E+03
 -4.34891E+02  4.19406E+03 -5.89772E+02  5.50880E+02 -1.15125E+02 -1.82462E+03  4.53407E+03 -3.66852E+03
  1.92993E+03  3.68687E+02  4.47854E+03  4.24836E+03  1.67251E+03  4.64307E+03 -1.42056E+03  2.22493E+03
 -1.47571E+03  1.15097E+03 -9.23679E+03 -7.56781E+02 -4.67169E+03 -4.08673E+03  1.11255E+03 -1.93645E+03
  3.61020E+03 -9.16062E+02  9.05333E+02  2.99676E+03 -2.24528E+03  4.74029E+03  1.08696E+03 -1.86763E+03
 -4.80870E+02 -1.37769E+03 -1.16380E+03 -8.83435E+02 -1.71756E+03  3.54683E+03 -2.27511E+03  1.71791E+03
  8.23127E+01  6.03587E+02 -6.15183E+03  6.97845E+03 -5.75538E+03  2.16806E+03 -7.58308E+03 -1.68850E+03
 -3.39024E+03 -2.86520E+03  1.92769E+03 -5.22677E+03  7.49206E+03 -5.14142E+03  9.58492E+03 -3.26357E+03
  8.75768E+03 -2.63539E+03  4.66236E+02  4.53373E+03 -1.15390E+03  1.01305E+04 -2.96185E+03 -1.12715E+03
 -3.87799E+03 -8.14065E+02  5.64542E+02 -9.14310E+02  3.67954E+03  2.67644E+03 -1.12287E+03  1.15032E+03
 -4.47260E+03 -1.56100E+03  1.19002E+03 -1.57519E+02 -9.63473E+01 -3.24306E+02 -3.83603E+03 -4.41258E+03
  1.38262E+03 -2.40488E+03 -2.31323E+03 -3.80211E+03 -2.37488E+03  6.00055E+03  1.98243E+03  4.94671E+03
  2.98321E+03 -3.14218E+02 -3.48965E+03  4.75966E+03 -1.14749E+04  4.62464E+02 -1.85313E+03 -8.52650E+03
  2.43885E+03 -4.66131E+03 -1.80222E+03 -3.37886E+03 -1.03462E+03 -3.95453E+03  6.22309E+03 -1.14109E+03
  5.26384E+03 -1.84271E+03  9.08763E+02  2.79715E+03 -1.86038E+03 -1.31166E+03 -3.40700E+03  8.72201E+02
  1.45402E+03  5.32428E+02 -8.42292E+02  4.47722E+03 -6.80635E+02 -3.02473E+02 -1.26662E+03  3.00035E+03
  5.71408E+02  6.77924E+03 -1.95550E+03  3.31371E+03 -1.05515E+03  5.77481E+02 -4.39352E+02 -2.86282E+03
  4.62490E+02 -8.67581E+03  9.56341E+02  5.86049E+02  2.53388E+03  6.19917E+02  4.67524E+02  3.34734E+03
 -9.76335E+01 -3.68065E+02  2.78877E+03  2.83804E+03 -1.00329E+03  3.23235E+03 -1.86399E+03 -1.89631E+02
 -2.33536E+03  1.77813E+03  4.34478E+01 -7.59204E+02 -3.63993E+03  4.39220E+02 -1.65932E+03  2.85643E+03
 -1.46188E+03  9.32664E+01 -3.07209E+03  8.46085E+02  2.22975E+03 -4.69430E+03  6.79669E+03  1.16816E+03
  1.44189E+03  1.19656E+03 -2.06145E+02  1.43859E+03 -8.74627E+01  3.09453E+03 -1.01744E+03  2.47002E+03
