 $NMID ID='MM_0lb_SNR50_9hz_g55_44.RAW', FMTDAT='(8E13.5)'
 TRAMP=1., VOLUME=1. $END
  3.08135E+05  2.83037E+03  3.40677E+05  2.49456E+05  8.29573E+04  3.36133E+05 -1.36035E+05  2.51934E+05
 -1.87992E+05  8.26825E+04 -1.14453E+05 -3.00740E+04  3.01376E+03 -5.11614E+04  4.94658E+04  1.99494E+02
  3.45856E+04  5.03288E+04 -1.40566E+04  8.27890E+04 -6.60843E+04  7.16397E+04 -9.04256E+04  3.43550E+04
 -8.42427E+04 -1.39141E+04 -5.60494E+04 -5.15481E+04 -1.36676E+04 -7.22171E+04  2.52480E+04 -4.68621E+04
  4.50653E+04 -1.95583E+03  1.88718E+04  4.64745E+04 -3.12307E+04  4.94478E+04 -6.43324E+04 -4.21847E+03
 -5.66833E+04 -5.56614E+04 -7.08755E+03 -7.53584E+04  3.27057E+04 -5.52354E+04  4.92003E+04 -1.81986E+04
  5.13689E+04  1.34572E+04  3.33522E+04  2.84012E+04  1.74762E+04  2.92520E+04 -2.00238E+03  2.97681E+04
 -2.16059E+04  9.06841E+03 -1.13206E+04 -2.35976E+03  4.27037E+03 -1.25335E+04  2.38811E+04  1.71591E+04
  4.07482E+03  3.77773E+04 -3.59533E+04  3.21737E+04 -6.29257E+04 -3.12574E+03 -6.01228E+04 -4.40422E+04
 -1.05939E+04 -6.65361E+04  4.42520E+04 -4.97909E+04  6.21629E+04 -1.35900E+03  3.41297E+04  3.27783E+04
 -1.06873E+04  4.17241E+04 -3.15983E+04  1.37535E+04 -2.96749E+04 -3.54878E+03 -2.24501E+04 -1.50614E+04
 -7.58630E+03 -1.30627E+04 -2.15725E+03 -1.69827E+04  9.49048E+03 -1.77325E+04  1.40414E+04 -1.31034E+04
  1.24742E+04  9.53882E+03 -1.22090E+04  1.02384E+04 -2.13876E+04 -5.99305E+03 -1.27288E+04 -4.03272E+04
  2.70996E+04 -4.53150E+04  5.34263E+04 -1.47327E+04  4.59835E+04  1.88132E+04  8.63627E+03  5.17196E+04
 -1.30925E+04  3.35617E+04 -2.72154E+04  3.06434E+03 -8.81609E+03 -2.92998E+04  2.25813E+04 -4.25793E+04
  4.52032E+04 -8.08741E+03  3.99085E+04  2.75656E+04  1.62413E+04  4.24079E+04 -8.38409E+03  5.73864E+04
 -4.23958E+04  3.77251E+04 -4.37441E+04  1.61311E+04 -5.34669E+04 -1.83440E+04 -2.72234E+04 -3.77171E+04
  8.97412E+03 -3.58694E+04  3.96311E+04 -8.63473E+03  3.34401E+04  1.12272E+04  3.37511E+03  2.26065E+04
 -1.23012E+04  1.21233E+04 -1.42199E+04 -8.05569E+03  5.01672E+03 -9.77959E+03  2.10582E+04  8.13011E+03
  1.75167E+04  2.07842E+04 -4.28614E+03  2.60866E+04 -3.19892E+04  1.47260E+04 -2.88273E+04 -2.41718E+02
 -2.72070E+04 -1.96311E+04 -5.55589E+03 -2.53997E+04  4.43032E+03 -3.03357E+04  2.30310E+04 -2.59802E+04
  3.50341E+04 -1.50089E+04  3.90704E+04  4.41479E+03  2.48426E+04  2.46128E+04  5.57752E+03  4.41729E+04
 -1.84249E+04  3.58320E+04 -2.59205E+04  1.08954E+04 -3.19453E+04 -1.08254E+04 -2.77248E+03 -1.54537E+04
  5.53204E+03 -3.17243E+03 -1.20885E+04  1.45170E+04 -1.83893E+04  4.53548E+03 -1.82097E+04 -1.41581E+04
 -1.06303E+04 -2.16437E+04  7.11801E+03 -3.05004E+04  1.99051E+04 -2.30646E+04  2.18543E+04 -3.57124E+03
  1.69663E+04  1.40402E+04 -6.10411E+03  2.37240E+04 -1.68175E+04  1.92007E+04 -2.08862E+04  2.71369E+03
 -1.70116E+04 -1.78981E+04 -7.27035E+03 -3.06039E+04  1.30682E+04 -2.33246E+04  2.81771E+04 -1.39482E+04
  2.12650E+04 -5.27044E+02  1.56786E+04  2.19066E+03  7.76575E+03 -8.45778E+01  1.17938E+04  1.57982E+03
  2.55317E+04  5.40075E+03  2.87288E+04  2.29304E+04  1.53591E+04  4.40838E+04 -4.19442E+03  5.06205E+04
 -2.91949E+04  3.60806E+04 -4.26287E+04  2.21738E+04 -4.87347E+04 -6.24424E+03 -3.05827E+04 -2.87289E+04
 -1.27473E+04 -4.15165E+04  1.36027E+04 -3.75875E+04  3.20607E+04 -1.59326E+04  2.12969E+04  6.44352E+03
  6.67625E+03  2.39719E+04 -6.05246E+03  9.79489E+03 -2.52473E+04 -1.06207E+03 -1.14076E+04 -6.68306E+03
 -4.87181E+02 -2.63955E+04  8.44523E+03 -1.23094E+04  8.29581E+03  4.48192E+03  5.31457E+03  6.03368E+03
 -1.09999E+04  2.05884E+03 -1.22710E+04 -9.24214E+03 -8.82792E+03 -1.25001E+04  1.93458E+04 -2.74269E+04
  2.18941E+04 -1.27517E+04  3.07311E+04  6.73280E+03  2.47124E+04  1.17160E+04  8.00628E+03  2.96593E+04
  3.28662E+02  3.32583E+04 -2.16394E+04  1.69224E+04 -2.36124E+04  9.96397E+03 -2.01991E+04 -7.97276E+03
 -9.93966E+03 -1.15358E+04 -8.81296E+03  4.33172E+03 -2.42903E+03  4.73964E+03  9.73353E+02  1.15040E+04
 -1.25944E+04 -3.23946E+03 -1.51628E+04 -1.37043E+04 -1.11371E+04 -2.32286E+04  1.19536E+04 -1.75656E+04
  1.56007E+04 -2.45357E+03  9.21535E+03  4.90276E+03 -4.86730E+03  3.47055E+03 -1.48093E+04 -1.39797E+03
 -3.20528E+03 -6.16548E+03 -3.24344E+03 -1.60903E+04  6.08391E+03 -2.18585E+04  2.49762E+04 -7.86312E+03
  2.36997E+04  7.32265E+03  1.47234E+04  1.51415E+04  5.23623E+02  2.74146E+04 -1.08336E+04  1.08556E+04
 -9.34303E+03  9.95095E+03 -5.24852E+03  1.13882E+02 -2.01201E+03 -3.51502E+03  7.55454E+03 -3.16120E+03
  8.54186E+03  4.80792E+03  4.14413E+03  1.40933E+04 -5.09696E+03  1.52616E+04 -1.91889E+04  9.64232E+02
 -8.92634E+03 -7.59971E+03  3.42722E+03 -1.04067E+04  4.35300E+03 -6.84578E+03  1.11207E+04  8.70401E+03
 -8.34796E+02  1.05243E+04 -8.28654E+03  1.18274E+04 -1.28915E+04  1.11480E+04 -1.31516E+04 -8.11112E+03
 -1.15326E+04 -1.55357E+04  1.34910E+03 -1.31087E+04  1.15334E+04 -7.35400E+03  1.83144E+04  3.89951E+03
  1.28072E+04  1.67600E+04  1.10475E+03  1.72162E+04 -1.84758E+04  1.18759E+04 -8.98731E+03  4.26338E+03
 -9.27946E+03 -1.30691E+04 -6.47160E+02 -1.11646E+04  5.05814E+03 -1.39691E+04  6.05053E+03 -6.64247E+02
  7.68220E+03 -6.82486E+03  2.69980E+03  4.30567E+03  4.87169E+03 -3.53571E+03  7.36340E+02 -1.06012E+04
  8.10682E+03 -8.48772E+03  1.19845E+04 -2.25189E+03  2.08521E+04  1.00776E+04  7.08961E+03  2.12276E+04
 -8.59215E+03  2.71897E+04 -2.43419E+04  1.33335E+04 -2.69909E+04  6.84765E+02 -2.20512E+04 -1.06145E+04
 -1.55056E+04 -1.60312E+04 -6.28212E+03 -1.68018E+04  1.98550E+03 -5.23123E+03 -2.13720E+03 -8.12473E+01
  9.10122E+02 -1.55514E+03  4.49357E+03  1.16879E+03  2.21773E+03 -1.61211E+03  7.20509E+03 -9.74238E+02
  1.77584E+04  6.82107E+03  4.42241E+03  6.89399E+03 -1.00008E+03  1.16385E+04 -1.45240E+04  8.98019E+03
 -1.88859E+04 -3.09638E+02 -2.90757E+03 -7.65460E+03 -6.93452E+03 -1.20944E+04  1.57006E+04 -2.28329E+04
  1.83834E+04 -1.34487E+04  1.86582E+04  1.15097E+04  1.83897E+04  1.66740E+04  8.12402E+02  2.16756E+04
 -6.52960E+03  1.63174E+04 -1.05670E+04  8.91392E+03 -6.87732E+03 -6.69065E+03 -1.50760E+03 -1.40224E+03
 -2.80646E+03 -6.92695E+03 -1.63278E+03  4.63004E+03 -1.09939E+04 -5.44799E+03 -1.31795E+04 -1.41440E+03
 -7.60620E+03 -1.16032E+04  6.15106E+03 -1.25586E+04  5.89575E+03 -6.91723E+03  1.41463E+04 -4.62614E+03
  1.77355E+04  2.96686E+03  3.17888E+03  1.54621E+04 -2.21860E+03  1.51090E+04 -1.53054E+04  1.05295E+04
 -1.09707E+04  4.69520E+03 -1.16689E+04 -1.14306E+04 -4.60473E+02 -1.05990E+04  7.87173E+03 -1.15944E+04
  7.73558E+03 -4.23457E+03  8.34654E+03 -1.13475E+03  1.93289E+03  5.52514E+03 -3.79038E+03  1.29832E+03
  7.34789E+03 -5.31693E+03  1.98817E+03  3.82836E+03  1.08280E+04  6.12889E+03  6.32201E+03  6.16105E+03
 -8.81505E+03  1.17774E+03 -1.20231E+04  1.79431E+04 -1.31497E+04  1.79276E+03 -1.62196E+04 -1.16471E+04
 -5.61272E+03 -1.15772E+04 -9.42374E+02 -2.41771E+04  1.05599E+04 -1.55690E+04  1.53169E+04 -6.98160E+03
  1.06431E+04  8.61865E+03  4.39019E+03  5.55550E+03 -1.85794E+03  2.88070E+03 -2.61203E+03 -3.04793E+03
 -3.67375E+03 -4.29857E+03  2.09476E+03 -1.07209E+04  2.51876E+03 -5.51374E+03 -1.51163E+03  2.35304E+02
  4.77293E+01 -3.87764E+03 -1.62164E+03  4.54363E+03 -8.70081E+01 -4.47600E+02  1.88929E+03  4.38302E+02
 -5.52516E+03 -2.06292E+03  4.04821E+03  4.08180E+03  5.33901E+03  9.54496E+03 -6.73225E+03  1.24230E+04
 -1.08382E+04  4.64426E+03 -4.95544E+03  4.98249E+02 -8.42441E+03 -1.16660E+03 -1.10165E+04 -7.26449E+03
 -6.34980E+02  1.66626E+03  6.72162E+03  2.65368E+03  7.54156E+03  6.32932E+03 -7.65093E+03  8.54122E+03
 -6.74258E+03 -3.33468E+03 -2.85924E+03 -8.33136E+03 -5.96000E+03 -1.62945E+03  6.25818E+03 -9.47453E+03
 -9.33401E+02 -9.48711E+03  8.63251E+03 -1.15304E+04  6.71675E+03 -2.40088E+03  5.78577E+03  6.07758E+03
 -3.72014E+03 -4.00633E+02 -4.53230E+03 -6.64142E+03  5.68403E+03 -5.58833E+03  5.45712E+03 -4.53073E+03
  6.32896E+03  7.17874E+02  1.85741E+04  6.96068E+03 -1.16558E+03  9.38372E+03 -4.79167E+03  1.20458E+04
 -1.50723E+04  1.18895E+04 -5.04225E+02  7.83504E+02 -1.06637E+03 -8.70839E+03  7.42839E+02 -1.17140E+04
  7.17039E+03 -1.78217E+03  6.50070E+03  5.03475E+03  3.61301E+03  8.99958E+03 -1.23670E+03  6.41610E+03
  1.47503E+03  8.15828E+03 -1.82646E+02  6.68359E+03 -7.21488E+01 -4.44544E+02 -3.28814E+03 -5.11316E+02
 -6.36127E+03  4.83943E+03 -5.73009E+03 -2.55366E+02 -8.81164E+03 -3.31150E+03 -1.36478E+04 -6.32241E+03
 -9.52290E+03 -1.54570E+04 -4.16168E+02 -1.75689E+04  1.37237E+04 -6.75911E+03  1.55559E+04 -3.74041E+02
  9.71691E+03  1.51149E+03  9.46976E+03  1.05185E+04 -4.45620E+02  1.24650E+04 -2.66653E+03  8.47794E+03
 -9.75386E+03  1.60874E+03 -4.16146E+03  2.95415E+03 -2.37258E+03 -6.86265E+02  2.39338E+03  7.27657E+03
  5.42866E+03 -1.17180E+03 -1.91588E+03 -1.42538E+03  5.89951E+02 -2.50909E+03  3.19190E+03 -1.04910E+04
  1.28657E+04  9.13555E+02  7.97181E+03 -1.88984E+03  1.62229E+04  7.23051E+03  1.47377E+03  1.35215E+04
 -2.39585E+03  1.26543E+04 -1.30627E+04  9.31310E+03 -8.31028E+03  3.24994E+03 -1.68462E+04 -8.06688E+03
 -8.80157E+03 -8.49396E+03  2.29579E+03 -1.41630E+04  9.06373E+03  2.57622E+03  5.77656E+03  1.10871E+03
  7.96246E+03  3.29920E+03 -4.79782E+03 -2.58848E+03  1.34529E+02  1.38279E+03 -1.31289E+03  2.14134E+03
  7.88483E+03  5.77699E+02  1.49376E+03  7.41847E+03  5.82719E+03 -6.70198E+02  2.41436E+03  3.44707E+03
 -7.90830E+03  6.82783E+03 -6.99807E+03  8.52435E+02 -2.73819E+03 -7.21936E+03 -2.40103E+03 -1.17719E+04
  1.04996E+04 -5.39628E+03  1.49587E+04  2.57197E+03  9.62558E+03  4.63937E+03  1.18804E+03  5.89479E+03
  4.19711E+03  9.60689E+02  4.67998E+02  6.38776E+03 -3.97079E+03  3.73711E+03 -1.58347E+03  4.49977E+03
 -1.15879E+03 -1.94484E+03 -6.15628E+03  6.14060E+03  3.20387E+03 -2.63646E+03 -1.50459E+03  8.80621E+02
 -6.95920E+03 -4.75550E+03  4.11568E+03 -1.04813E+04  4.28505E+03 -4.72955E+03  1.53644E+04 -1.02037E+03
  7.07683E+03  4.58792E+03  7.43785E+02  8.54144E+03  2.38776E+03  1.03474E+04 -5.15576E+03  7.51338E+03
