 $NMID ID='MM_0lb_SNR50_12hz_g45_58.RAW', FMTDAT='(8E13.5)'
 TRAMP=1., VOLUME=1. $END
  3.11835E+05  2.22458E+03  3.39166E+05  2.51523E+05  8.82101E+04  3.36385E+05 -1.29274E+05  2.46493E+05
 -1.84106E+05  8.30522E+04 -1.13791E+05 -3.57454E+04  3.98116E+03 -5.16366E+04  5.17337E+04  5.31739E+02
  3.35309E+04  5.17118E+04 -1.09274E+04  7.28575E+04 -6.06039E+04  6.53940E+04 -8.27136E+04  3.28245E+04
 -7.69299E+04 -1.18578E+04 -5.92126E+04 -5.51682E+04 -1.44457E+04 -6.68097E+04  2.92053E+04 -4.62510E+04
  4.38995E+04  2.89650E+03  1.05303E+04  4.30768E+04 -3.05763E+04  4.21587E+04 -6.75546E+04  1.23963E+03
 -5.81172E+04 -5.82244E+04 -1.02825E+04 -7.86723E+04  3.06070E+04 -5.47213E+04  5.36065E+04 -2.33308E+04
  4.75441E+04  1.04135E+04  3.50750E+04  3.19055E+04  1.59837E+04  3.28614E+04 -3.68209E+03  2.12941E+04
 -2.13390E+04  1.74009E+04 -1.55255E+04 -6.41265E+03  7.72537E+03 -1.09188E+04  2.05892E+04  1.45652E+04
  7.10417E+03  3.33947E+04 -2.80918E+04  3.48735E+04 -6.87142E+04  8.92636E+03 -6.05453E+04 -4.28876E+04
 -7.56272E+03 -6.11392E+04  3.69975E+04 -4.19809E+04  5.81524E+04 -6.60340E+03  2.91810E+04  2.98862E+04
  1.18161E+03  3.97765E+04 -3.08567E+04  1.11381E+04 -3.14329E+04 -5.01488E+03 -1.29242E+04 -1.38696E+04
 -1.11986E+04 -1.82370E+04 -5.94941E+02 -1.71333E+04  1.09999E+04 -2.25880E+04  9.92938E+03 -8.51208E+03
  8.60624E+03  1.57575E+03 -6.10971E+03  7.85415E+03 -2.55358E+04 -5.90891E+03 -8.47251E+03 -3.34529E+04
  2.26488E+04 -4.55035E+04  4.79094E+04 -1.69800E+04  5.55089E+04  1.90746E+04  1.61935E+04  4.51585E+04
 -2.03810E+04  3.74333E+04 -2.72036E+04  1.86593E+03 -9.80311E+03 -2.60882E+04  1.97019E+04 -3.79584E+04
  4.13315E+04 -9.48518E+03  3.47275E+04  2.14838E+04  1.42962E+04  4.70107E+04 -1.04095E+04  5.16737E+04
 -3.85707E+04  3.54795E+04 -4.50410E+04  8.01670E+03 -4.56505E+04 -1.69957E+04 -2.52193E+04 -3.96249E+04
  7.96091E+03 -4.11895E+04  2.89312E+04 -1.55113E+04  2.87882E+04  1.37698E+04  5.84990E+03  2.36421E+04
 -9.38211E+03  7.42956E+03 -2.69343E+03 -8.77641E+03  7.48739E+03 -1.01043E+04  1.80313E+04  5.00593E+03
  1.70220E+04  2.04680E+04 -3.50954E+03  2.25827E+04 -2.22870E+04  1.20213E+04 -2.69543E+04 -6.78328E+03
 -2.26799E+04 -1.71835E+04 -8.92108E+03 -2.59164E+04  3.85730E+03 -2.11469E+04  1.79970E+04 -1.73381E+04
  2.94355E+04 -1.54458E+04  2.95245E+04  1.05253E+01  2.32493E+04  2.19617E+04  1.26133E+03  3.44125E+04
 -1.63031E+04  2.66599E+04 -3.45877E+04  1.19910E+04 -2.19048E+04 -1.02597E+04 -4.45446E+03 -1.57930E+04
  7.67227E+03 -4.89255E+03 -4.14113E+03  1.13678E+04 -1.52761E+04  5.97630E+03 -2.09967E+04 -4.99110E+03
 -1.28117E+04 -2.08348E+04  7.31748E+03 -2.90174E+04  1.16916E+04 -2.55685E+04  1.20664E+04 -5.03481E+02
  1.66916E+04  1.43474E+04  1.23022E+03  1.66688E+04 -1.31567E+04  5.91913E+03 -2.14306E+04 -1.63906E+03
 -1.62641E+04 -1.63932E+04 -3.14763E+03 -3.03595E+04  8.70731E+03 -2.10110E+04  2.35174E+04 -8.78794E+03
  1.93563E+04 -7.33267E+02  1.34211E+04  5.68122E+03  6.45137E+03 -1.10694E+03  8.69185E+03 -1.83360E+03
  1.68751E+04  2.73562E+03  2.58388E+04  1.40230E+04  1.82143E+04  3.58147E+04 -1.24961E+03  3.64081E+04
 -2.16361E+04  3.35425E+04 -3.91448E+04  1.45017E+04 -3.99645E+04 -3.01972E+03 -3.61782E+04 -2.18441E+04
 -1.67563E+04 -3.14453E+04  1.46395E+04 -2.23086E+04  1.74402E+04 -1.49879E+04  1.91325E+04  5.45927E+03
  4.55629E+03  1.95615E+04 -7.61214E+03  1.74999E+04 -1.71640E+04  5.55737E+03 -9.69568E+03 -9.65850E+03
  1.12328E+03 -1.96788E+04  5.96342E+03 -1.22135E+04  8.46620E+03  6.43374E+02  2.86361E+03  9.53930E+03
 -6.80694E+03 -1.16821E+02 -8.20841E+03 -3.08875E+03 -1.87043E+03 -1.27331E+04  4.10824E+03 -1.12847E+04
  2.28338E+04 -9.98232E+03  2.25677E+04  5.42136E+03  1.60601E+04  9.34564E+03  9.29503E+03  2.05258E+04
 -1.05794E+03  2.72785E+04 -2.01203E+04  1.22727E+04 -1.85893E+04 -5.71981E+02 -1.23821E+04 -7.07034E+03
 -2.16790E+03 -8.40337E+03 -2.69960E+03  3.65544E+03 -4.29411E+03  5.61757E+03 -3.52839E+03  3.75851E+03
 -1.47952E+04  8.97142E+01 -1.49730E+04 -1.04596E+04 -7.61725E+03 -1.35548E+04  6.99967E+03 -1.11578E+04
  9.67208E+03 -7.28225E+03  6.94717E+03  1.18539E+02  1.99211E+03  1.16061E+03 -8.92252E+03 -2.86167E+03
 -3.16641E+03 -9.68091E+03  6.27625E+03 -9.25804E+03  7.98835E+03 -9.93034E+03  1.59191E+04 -5.38701E+03
  2.15218E+04 -1.48663E+03  8.22067E+03  1.42312E+04  5.18547E+03  1.70260E+04 -6.63865E+03  1.14413E+04
 -9.23566E+03 -6.52351E+02 -3.10115E+03 -4.73559E+03  3.83919E+03 -6.11736E+03  5.57647E+03 -4.20309E+03
  2.03416E+03  6.18733E+03  4.17106E+03  9.83041E+03 -5.05744E+03  8.69724E+03 -1.22042E+04  2.18738E+03
 -3.69463E+03 -6.91483E+03 -6.86169E+02 -1.19940E+04  3.56947E+03  5.33562E+03  1.22374E+04  4.08553E+03
  1.53469E+03  2.49552E+03 -1.66231E+03  1.06665E+04 -1.22956E+04  3.57706E+03 -6.11739E+03 -1.55136E+03
 -6.88612E+03 -1.60638E+04 -3.30047E+03 -1.30570E+04  6.04213E+03 -6.07687E+03  1.18462E+04  4.75762E+03
  1.28342E+04  1.45104E+04 -2.73883E+03  9.62630E+03 -9.70413E+03  8.33759E+03 -6.11038E+03 -3.43158E+03
 -4.94048E+03 -6.22394E+03 -4.10185E+03 -1.10114E+04  4.51194E+03 -3.36957E+03  4.81770E+03 -7.76524E+03
  3.92059E+03  3.61470E+03 -6.26250E+01  2.44458E+02  1.99291E+03 -1.97586E+03  3.36130E+03 -7.68762E+03
  6.04034E+03 -1.31937E+03  8.53552E+03  5.72869E+01  1.14342E+04  8.88011E+03  9.07252E+03  1.61851E+04
  5.70866E+02  1.32211E+04 -1.73147E+04  1.17109E+04 -1.55360E+04  4.49220E+03 -1.67637E+04 -1.52598E+03
 -8.30308E+03 -9.12551E+03 -3.29663E+03 -1.21433E+04  5.06263E+03 -6.50849E+03  6.07638E+02  3.54688E+02
  4.85835E+03 -5.62455E+03  3.75464E+03 -4.30036E+03 -7.22940E+02 -4.45204E+03  8.46754E+02  2.08286E+03
  9.25408E+02  2.78669E+03  1.12610E+04  7.62305E+03 -1.52788E+03  5.81901E+03 -8.13980E+03  1.17365E+04
 -9.42125E+03 -3.69689E+03 -7.34631E+03 -9.95420E+03 -3.86710E+03 -4.65084E+03  6.82188E+03 -7.04430E+03
  1.25015E+04 -7.73623E+03  2.01561E+04  5.52947E+03  9.01151E+03  1.05271E+04  6.21472E+03  9.18916E+03
 -8.33564E+03  1.45299E+04 -9.18617E+03  1.85305E+03 -1.43940E+03 -1.34789E+03 -2.99516E+03  3.55058E+02
  2.98036E+02  5.24955E+03 -1.57005E+02  3.43476E+03 -7.71415E+03 -2.36486E+03 -4.99559E+03 -1.04550E+03
 -4.91118E+03 -7.03586E+03  4.43635E+02 -8.52102E+03  1.09790E+04 -8.97728E+03  1.31534E+04 -1.98937E+03
  1.12827E+04  1.82275E+03  3.03689E+03  8.15212E+03 -4.46678E+03  5.70010E+03 -6.75779E+03  3.45615E+03
 -1.02051E+04  4.50828E+02 -7.57769E+03 -1.01864E+04 -5.16592E+03 -1.14457E+04  6.65806E+03 -3.50514E+03
  4.95505E+03 -4.66570E+03  4.17016E+03 -4.86394E+02 -2.96586E+03  4.07118E+03  2.47862E+03  5.64870E+03
 -1.36129E+03  1.48503E+03  6.55453E+02 -2.98470E+03 -9.82388E+02  4.01033E+03  7.27517E+03  4.52329E+03
  1.81552E+02  7.12078E+03 -6.83580E+03  1.37996E+04 -8.86516E+03  3.32851E+03 -6.76909E+03 -4.02985E+03
 -6.35862E+03 -1.23729E+04  1.24425E+03 -1.20345E+04  2.45755E+03 -1.07314E+04  1.01803E+04 -3.60546E+03
  7.42937E+03  5.64954E+03  6.90443E+03 -6.57271E+02 -1.87694E+03  3.41515E+03 -7.94721E+03 -4.76128E+03
 -1.60217E+03  3.36569E+03  2.28474E+03 -3.69691E+02  5.79234E+03 -1.49461E+03  5.14110E+03 -6.53209E+03
  3.56140E+03  5.40911E+03  2.35019E+03  4.70504E+03 -1.47502E+03  5.87606E+03  4.46294E+03  4.12742E+03
 -4.02837E+02 -2.72426E+03  6.37046E+03 -1.70451E+03 -5.12643E+02  4.23529E+03  1.47014E+03  9.18071E+03
 -8.71053E+03  7.09352E+03 -2.39804E+03 -2.18036E+03 -6.71527E+03  2.88402E+03 -4.14201E+03 -1.43916E+03
  4.97555E+02 -3.65633E+03  8.08188E+03  7.08545E+02 -3.23921E+02  5.51322E+03 -1.81306E+03  7.60459E+03
 -2.51699E+03 -5.02967E+02 -6.41083E+03 -3.72368E+03 -3.58093E+03 -6.62121E+03 -6.54164E+03 -4.86106E+03
 -1.67482E+03  2.92526E+02  5.47196E+03  4.16817E+03  3.60154E+03  1.59523E+03 -6.59594E+03  1.40501E+03
 -4.06675E+03 -3.30816E+03 -1.16469E+03  3.82214E+02 -2.11155E+03 -5.98575E+03  6.90811E+03 -1.63658E+03
  7.67091E+03  4.12062E+03  4.52112E+03  2.51932E+03  3.04609E+03  3.12901E+03 -4.66794E+02  1.07316E+04
 -3.70094E+03  1.48752E+03 -2.83017E+03 -5.08841E+03  1.54129E+01 -7.73733E+03  5.39684E+02  4.63101E+03
  3.41555E+03  2.19293E+03  2.80017E+03 -2.96568E+02 -9.97636E+01  6.74259E+03  5.80805E+03  2.11519E+03
  5.94368E+02  1.27289E+03 -1.50990E+03 -2.91162E+03 -3.37862E+03 -1.20538E+03 -1.89323E+03 -2.84675E+03
 -5.73768E+03  3.32451E+03 -1.01788E+04  1.04751E+04 -5.39236E+03 -1.38654E+03 -1.03243E+04 -6.10538E+02
 -3.43452E+03 -1.21104E+04  1.83962E+03 -1.17850E+04  9.18332E+03 -6.95159E+03  6.14276E+03 -5.68693E+03
  8.78897E+03 -6.70499E+02  5.66830E+03  3.67686E+03  4.25944E+03  8.67092E+03  5.30875E+02  2.66108E+03
 -5.49032E+03  7.90645E+03  6.74707E+02 -1.09161E+03 -2.71908E+03  5.87590E+03  3.49998E+03 -6.85858E+02
 -3.99611E+03 -1.13967E+02  6.83846E+02  1.06076E+03 -5.18681E+02  2.69626E+03 -3.00849E+02  1.28079E+03
  4.41089E+03 -2.75595E+03  3.67531E+03  5.17986E+02  8.91437E+03  4.09882E+03  5.80410E+03  8.30536E+03
  6.70327E+01  4.86945E+03 -4.54062E+03  4.07945E+03 -6.99205E+03  3.88513E+03 -4.92015E+03 -2.59097E+03
 -8.09761E+03 -5.52390E+03  3.68551E+03 -6.41615E+03 -2.61514E+02 -6.76376E+03  2.66606E+02  9.45492E+02
 -1.00482E+03 -2.14438E+02  2.75777E+03  3.56076E+03 -7.75998E+02  4.97449E+03  1.17802E+03  3.60212E+03
  1.14642E+04  1.18925E+03  1.67067E+03  1.35320E+03  1.71095E+02  4.15277E+03 -3.51657E+03  4.88231E+03
 -3.67671E+03  4.63938E+03 -7.72599E+02  2.38880E+03 -6.22636E+03  2.64000E+02 -4.21119E+03 -1.25620E+03
  2.94268E+03 -6.47567E+03 -2.29045E+03 -2.56885E+03  3.41337E+03  2.82433E+02  6.16656E+03  4.44354E+03
  3.45480E+03  3.99105E+03 -2.47382E+03  5.95785E+01  2.15566E+03  4.05926E+03  2.61609E+03 -4.10802E+03
  2.18809E+03 -7.51210E+02  1.35554E+03  1.93575E+03 -8.87799E+02 -2.77642E+03 -9.92786E+02 -1.06504E+03
 -4.91340E+03 -2.77999E+03 -2.50900E+03  5.93602E+03 -4.85157E+02 -7.44213E+03  7.81710E+03 -2.69264E+03
  7.89201E+03  3.46794E+03  6.11814E+03  3.45540E+03 -1.30012E+03  5.28318E+03 -3.45931E+03  2.69792E+03
