 $NMID ID='MM_0lb_SNR50_10hz_g55_72.RAW', FMTDAT='(8E13.5)'
 TRAMP=1., VOLUME=1. $END
  3.06601E+05  3.36378E+03  3.37737E+05  2.50157E+05  8.35629E+04  3.45235E+05 -1.33231E+05  2.56775E+05
 -1.90438E+05  8.52908E+04 -1.07378E+05 -3.15692E+04  1.10774E+03 -5.00025E+04  5.54048E+04 -6.79413E+02
  3.74598E+04  4.67076E+04 -1.97892E+04  7.73352E+04 -5.86255E+04  6.23209E+04 -8.31445E+04  3.58044E+04
 -8.46445E+04 -7.51051E+03 -5.24960E+04 -4.98714E+04 -1.36031E+04 -6.67346E+04  2.54771E+04 -4.79801E+04
  4.00932E+04  6.46309E+03  2.28856E+04  5.53021E+04 -2.61684E+04  4.22526E+04 -6.73822E+04  2.32546E+03
 -5.68211E+04 -5.98335E+04 -7.37280E+03 -7.65023E+04  3.69112E+04 -4.92633E+04  5.00672E+04 -1.28521E+04
  4.64265E+04  6.51723E+03  3.43063E+04  2.82622E+04  1.09062E+04  2.79140E+04 -2.67478E+03  2.64450E+04
 -2.76729E+04  1.31455E+04 -2.14487E+04 -1.39079E+04  9.14728E+03 -1.14364E+04  2.28763E+04  2.01343E+04
  1.43179E+03  4.09775E+04 -3.64850E+04  3.70967E+04 -7.21674E+04  3.43654E+03 -6.80978E+04 -4.80585E+04
 -1.22280E+04 -6.67147E+04  3.80384E+04 -4.75466E+04  6.31042E+04 -2.85561E+03  4.05000E+04  2.86413E+04
 -3.25178E+03  3.83524E+04 -3.08489E+04  1.95928E+04 -3.37886E+04 -1.77581E+03 -2.22577E+04 -1.43590E+04
 -1.19961E+04 -1.92306E+04 -1.01375E+03 -1.78894E+04  1.33142E+04 -2.58697E+04  1.30305E+04 -1.38223E+04
  1.30928E+04  7.46084E+03 -1.27312E+04  1.54455E+04 -2.30794E+04  5.76604E+02 -6.00236E+03 -3.19516E+04
  2.63024E+04 -4.61152E+04  4.94456E+04 -1.81985E+04  4.84267E+04  1.53435E+04  1.24153E+04  5.00326E+04
 -1.86325E+04  3.72379E+04 -2.73770E+04  2.10581E+03 -9.07466E+03 -2.32797E+04  2.53331E+04 -3.32524E+04
  4.58934E+04 -1.48921E+04  3.40207E+04  2.65351E+04  2.05161E+04  4.95709E+04 -1.36078E+04  5.29505E+04
 -3.91770E+04  3.66529E+04 -4.35863E+04  1.88051E+04 -5.14920E+04 -1.54324E+04 -2.78786E+04 -3.62322E+04
  7.31099E+03 -4.81322E+04  3.38043E+04 -1.81685E+04  3.34041E+04  7.73406E+03  3.66487E+02  1.72446E+04
 -1.38311E+04  5.96753E+03 -1.11838E+04 -9.16712E+03  2.53093E+03 -1.18905E+04  2.20240E+04 -1.36174E+03
  1.80743E+04  2.02198E+04 -3.45412E+03  2.43211E+04 -2.11018E+04  1.28178E+04 -3.06192E+04 -2.00086E+03
 -2.68130E+04 -1.29172E+04 -1.23136E+04 -2.48354E+04  8.10902E+02 -2.33215E+04  1.80993E+04 -1.83139E+04
  2.94032E+04 -1.50450E+04  3.79946E+04  3.83437E+03  3.01343E+04  2.42563E+04  7.46495E+02  4.25650E+04
 -1.97060E+04  3.84817E+04 -3.52450E+04  1.04570E+04 -2.04570E+04 -8.97708E+03 -3.27400E+03 -1.20421E+04
 -2.50628E+03 -9.65636E+03 -1.36782E+03  8.06296E+03 -2.31876E+04  6.27610E+03 -1.84656E+04 -9.15024E+03
 -1.61905E+04 -2.32564E+04  6.19016E+03 -2.57473E+04  2.13960E+04 -2.06317E+04  2.28148E+04 -4.28962E+03
  1.63012E+04  1.17118E+04 -9.10921E+03  2.20012E+04 -1.48565E+04  1.73671E+04 -2.70761E+04 -5.37028E+03
 -1.83860E+04 -1.25369E+04 -5.67097E+03 -2.32943E+04  1.41299E+04 -2.10149E+04  1.62562E+04 -1.03299E+04
  1.46348E+04  2.45866E+03  1.79451E+04  2.92168E+03  8.35704E+03  6.26004E+03  5.64118E+03 -6.68904E+03
  2.32793E+04  3.67447E+03  3.02524E+04  1.91864E+04  1.29744E+04  3.37938E+04 -3.66569E+03  4.45440E+04
 -2.22845E+04  3.36707E+04 -4.33568E+04  2.03595E+04 -4.74891E+04 -6.78595E+01 -3.69604E+04 -2.48927E+04
 -1.28467E+04 -4.13625E+04  1.67606E+04 -3.31340E+04  2.87844E+04 -1.92038E+04  2.45026E+04  7.99713E+03
  9.38159E+03  1.94499E+04 -8.89210E+03  1.63953E+04 -1.05220E+04  5.72842E+03 -8.18053E+03 -1.07333E+04
 -8.81593E+03 -2.30338E+04  6.30967E+03 -1.52683E+04  1.15554E+04  6.50060E+02  1.11263E+04  1.05968E+04
 -5.89807E+03  7.21567E+03 -1.10351E+04 -7.97108E+03 -3.19366E+03 -1.76248E+04  1.82849E+04 -1.75338E+04
  2.34345E+04 -9.81704E+03  2.77379E+04  2.88243E+03  2.72817E+04  1.26486E+04  1.20590E+04  2.34275E+04
 -1.37617E+04  2.55862E+04 -1.65391E+04  2.01043E+04 -2.31173E+04  4.38480E+03 -1.83021E+04 -2.33817E+03
 -1.39347E+03 -8.53535E+03 -3.09473E+03  7.94209E+03 -6.58016E+03  2.01349E+03 -3.16035E+02  3.66173E+03
 -1.04240E+04 -5.86467E+02 -1.75400E+04 -1.33993E+04 -5.03934E+03 -1.76888E+04  6.16062E+03 -1.28655E+04
  1.60056E+04 -8.66321E+03  1.27629E+04  1.23579E+03 -1.49308E+03  8.74249E+03 -6.04742E+03  1.78821E+03
 -1.36965E+04 -4.21362E+03 -7.52510E+03 -1.47287E+04  5.76508E+03 -1.61098E+04  2.05553E+04 -6.18805E+03
  2.63093E+04 -1.80009E+02  1.99444E+04  8.15323E+03  3.21440E+03  2.27817E+04 -7.58885E+03  1.58338E+04
 -1.42759E+04  3.23919E+03 -4.54418E+03 -5.58781E+03  8.78002E+03 -6.31533E+03  7.94657E+03 -6.36735E+03
  6.58149E+03  1.00299E+04 -1.24011E+03  1.01973E+04 -8.24687E+03  1.30792E+04 -1.95362E+04  6.42629E+03
 -8.80948E+03 -1.81967E+04  2.13028E+03 -1.56962E+04  8.35440E+03 -5.39344E+03  7.53720E+03  8.69710E+03
  3.53152E+03  8.01049E+03 -1.06386E+04  1.82767E+04 -5.45111E+03  3.53644E+03 -1.60547E+04 -4.76814E+03
 -6.88642E+03 -1.03642E+04  7.10952E+03 -1.82972E+04  1.32359E+04 -1.26418E+04  1.91871E+04 -5.97860E+02
  4.01854E+03  1.38424E+04 -4.91982E+03  1.50691E+04 -9.67388E+03  1.12397E+04 -9.10966E+03 -7.83937E+03
 -1.16018E+04 -4.06258E+03  6.88788E+03 -1.04259E+04  7.22757E+03 -7.33487E+03  2.66823E+03 -9.33711E+03
  5.25826E+03  5.11216E+03 -5.37750E+02  4.32967E+03  1.68810E+01 -2.40486E+03  4.99661E+02 -1.28041E+04
  1.02721E+04 -1.39703E+03  1.60369E+04  2.18876E+03  1.47572E+04  6.33853E+03  1.26901E+04  2.17424E+04
 -2.27141E+03  2.11303E+04 -1.17657E+04  1.74546E+04 -1.86338E+04  3.52564E+03 -2.78954E+04 -9.46383E+03
 -1.08711E+04 -2.19882E+04  2.91975E+03 -1.09167E+04 -7.62264E+02 -3.75875E+03  7.39608E+03 -3.22241E+03
 -1.25789E+03 -8.09760E+03  4.76214E+03 -3.05545E+03  4.20879E+03 -9.23460E+03  5.73212E+03  1.13649E+03
  1.30127E+04 -1.37988E+03  2.59118E+03  6.04944E+03 -9.24043E+02  1.04739E+04 -1.02188E+04  3.57251E+03
 -1.04786E+04 -9.09750E+03 -6.66807E+03 -1.57125E+04  1.35795E+03 -1.46528E+04  1.35359E+04 -1.68846E+04
  1.59849E+04 -7.81914E+03  1.71874E+04  2.91225E+03  1.48317E+04  1.63389E+04  7.20215E+01  1.85686E+04
 -7.85853E+03  1.12353E+04 -2.81027E+03  3.03441E+03 -1.03246E+04 -7.59129E+01 -3.26385E+03 -4.03743E+03
 -4.00175E+03  9.19355E+02 -5.71386E+03  1.19408E+03 -6.64592E+03  6.17128E+03 -6.20185E+03  4.87180E+03
 -2.95777E+03 -4.84695E+03  1.48728E+02 -1.21617E+04  1.15068E+04 -1.25641E+04  1.08300E+04 -1.29750E+03
  9.51019E+03  1.68827E+03  4.02249E+03  8.26136E+03 -4.93164E+03  1.27440E+04 -1.11093E+04  1.04277E+04
 -7.14721E+03 -2.77121E+03 -9.38047E+03 -9.64035E+03  1.53743E+03 -9.69165E+03  8.16693E+02 -2.08590E+03
  7.79408E+03 -3.18413E+03  4.32984E+03  8.47698E+02  1.13479E+02  2.60697E+03 -3.16040E+03  2.43792E+03
  3.05158E+03 -1.87073E+03  6.02318E+03  1.05272E+03  2.18374E+03  4.85865E+03  6.69640E+03  1.10666E+04
 -3.78164E+03  1.12693E+04 -1.14594E+04  1.17330E+04 -1.45530E+04  1.24800E+03 -1.87964E+04 -1.37040E+02
 -5.58061E+03 -1.31619E+04  1.51775E+02 -1.34959E+04  3.49334E+03 -1.31016E+04  1.50362E+04 -1.39106E+03
  7.32458E+03  9.54608E+01 -2.67376E+03  5.05908E+03  8.42370E+02  8.60288E+03 -8.05351E+03 -2.91908E+03
 -8.78761E+02 -7.81974E+03  1.09469E+03 -6.36505E+03  7.26768E+03 -5.00611E+03  7.82746E+03  3.46602E+03
 -2.77355E+03  1.12992E+03  3.18503E+03  4.63646E+03 -1.74440E+03  1.36835E+03  1.95255E+02  1.37008E+03
  4.95090E+03 -3.73900E+03  3.97294E+03 -6.08523E+02  4.55758E+02  9.20639E+01 -5.72514E+03  1.18405E+04
 -9.58145E+03  5.00469E+03 -1.18282E+04  4.31233E+03 -8.30504E+03 -1.67216E+03 -4.14046E+03 -1.61545E+03
 -1.55527E+02 -5.38619E+03  1.66159E+03 -2.30745E+03  2.98427E+03  5.57207E+03 -2.97094E+03  7.08414E+03
 -2.67133E+03 -1.04566E+03 -8.11119E+03 -3.14964E+03 -1.70487E+03 -1.23616E+04 -6.30348E+01  3.85615E+02
 -4.01402E+02 -6.03331E+03 -1.21730E+03 -6.46072E+03  3.43535E+03  4.42507E+03 -4.07268E+03  6.49969E+03
 -2.19772E+03 -4.93855E+03 -4.01956E+03 -1.23693E+04  2.68247E+03 -4.68417E+03  3.73741E+03 -9.56285E+03
  1.13861E+04  2.92566E+03  1.70954E+03  5.85703E+03 -1.89469E+03  8.36334E+03  2.22540E+03  5.31016E+03
 -6.79787E+03  4.07939E+03 -8.54869E+03 -3.93321E+03 -1.02503E+03 -5.47716E+03  1.61550E+03 -5.06436E+03
  4.61263E+03 -6.30558E+03  1.15788E+03  3.10609E+03 -2.02254E+03  8.84297E+03  1.56492E+03 -1.05384E+03
 -9.09737E+02  9.55549E+02 -4.50504E+03  4.61199E+02 -3.60040E+03 -3.21475E+03  2.80704E+03 -4.46755E+02
 -3.91602E+03  4.07700E+03 -3.45083E+03 -1.77185E+03 -7.82518E+03  1.21000E+03 -1.00562E+04 -4.71776E+03
 -4.26805E+03 -1.37753E+04  7.00665E+03 -1.14253E+04  6.01374E+03 -5.96896E+03  1.10058E+04 -5.80750E+03
  1.45150E+04  1.66998E+03  7.12822E+03  1.01212E+04 -1.80502E+03  9.53561E+03 -5.93445E+03  2.56083E+03
 -1.23901E+02  1.85293E+03  1.51216E+03 -3.48527E+02  3.64424E+03  5.14336E+03 -1.21801E+03 -5.73560E+02
  3.02651E+03 -3.34804E+03 -6.52774E+03  3.72358E+02 -2.60222E+03 -3.05783E+03 -4.36036E+03  9.46092E+02
 -3.13278E+03 -4.50204E+03  2.01381E+03  2.04774E+03  3.28730E+03  3.70840E+03  6.40206E+03  1.12316E+04
 -3.45783E+03  1.02645E+04 -9.36712E+03  1.19982E+03 -9.03359E+03 -6.07594E+02 -6.74259E+03 -5.56887E+03
  2.76270E+02 -1.10192E+04  1.39623E+03 -9.33574E+03  8.49991E+03 -4.46614E+03  8.50846E+03 -3.65332E+03
  4.36765E+03  2.65404E+03 -7.98257E+02  2.42526E+03 -3.83380E+03 -7.46816E+03 -6.34435E+03 -3.72327E+03
 -8.27891E+02 -1.82667E+03  2.86115E+03  3.21611E+03  1.40731E+03  5.28381E+03  1.06496E+02  3.02679E+03
 -6.14484E+03  8.51354E+02 -3.53691E+03 -2.34260E+03 -8.18894E+03 -6.17246E+03 -2.72302E+03  4.66957E+02
  6.72755E+03 -3.87848E+03  1.03906E+04 -2.28538E+03  6.92724E+03 -3.91224E+02  4.59251E+03  5.85140E+03
 -1.22892E+03  1.61095E+03  2.97292E+03  3.83003E+03 -3.91063E+03  3.04691E+03 -5.32466E+03  5.67556E+01
 -3.85334E+03 -7.91107E+03  4.88988E+02 -3.37534E+03 -3.85935E+02  3.90954E+03 -8.30099E+03 -2.34692E+03
 -7.46019E+03  2.59964E+02  3.09735E+02 -9.07579E+03  2.35355E+03 -7.97488E+03  3.60739E+03  2.75637E+03
  6.05492E+03  2.84800E+03  7.29221E+03  1.73280E+02  4.61673E+03  4.16875E+03 -7.82660E+03  1.66836E+03
