 $NMID ID='MM_0lb_SNR50_7hz_g40_69.RAW', FMTDAT='(8E13.5)'
 TRAMP=1., VOLUME=1. $END
  3.10301E+05  2.70873E+03  3.34669E+05  2.49059E+05  8.50841E+04  3.38351E+05 -1.40640E+05  2.49667E+05
 -1.86438E+05  8.37311E+04 -1.12685E+05 -2.35369E+04 -4.88996E+03 -5.21094E+04  5.84791E+04  4.44238E+03
  3.76789E+04  5.54625E+04 -1.51896E+04  7.39090E+04 -5.30615E+04  6.72804E+04 -8.90749E+04  3.64243E+04
 -8.08465E+04 -4.46088E+03 -6.24292E+04 -5.14285E+04 -1.78723E+04 -7.84846E+04  3.89092E+04 -4.74187E+04
  4.83500E+04  4.17635E+03  1.70771E+04  4.99928E+04 -3.80959E+04  4.20341E+04 -6.31724E+04  1.93212E+03
 -5.56162E+04 -5.32165E+04 -6.08822E+03 -8.49870E+04  2.89890E+04 -5.55615E+04  4.79205E+04 -2.12082E+04
  4.59482E+04  1.33129E+04  3.88152E+04  1.88369E+04  1.47132E+04  3.46101E+04 -9.33333E+03  2.67624E+04
 -2.36938E+04  1.54610E+04 -2.04370E+04 -9.52369E+02  1.36278E+04 -4.66349E+03  2.70753E+04  1.29393E+04
  8.46414E+03  4.70739E+04 -3.49599E+04  4.05956E+04 -6.42882E+04 -4.55686E+03 -5.07919E+04 -5.45749E+04
 -9.35825E+03 -6.26509E+04  4.95214E+04 -5.35358E+04  5.93400E+04 -3.93218E+03  4.00738E+04  2.68736E+04
 -8.37737E+02  3.86780E+04 -3.69061E+04  1.70221E+04 -3.47991E+04 -5.88586E+03 -2.05188E+04 -1.29578E+04
 -1.28234E+04 -1.08715E+04 -4.67711E+03 -2.47662E+04  9.47354E+03 -2.79930E+04  1.89611E+04 -8.08198E+03
  1.69148E+04  6.99427E+03 -6.73718E+03  1.08485E+04 -2.87615E+04 -8.49678E+03 -1.59817E+04 -3.43800E+04
  1.74744E+04 -4.33350E+04  4.81111E+04 -1.52272E+04  4.67229E+04  1.80681E+04  1.79522E+04  4.75249E+04
 -8.37787E+03  3.38918E+04 -2.74978E+04  1.79285E+03 -1.88885E+04 -3.92902E+04  1.98439E+04 -3.81706E+04
  5.38522E+04 -1.11047E+04  4.13409E+04  2.66171E+04  1.44356E+04  4.79922E+04 -1.52141E+03  5.87010E+04
 -3.63990E+04  4.27017E+04 -4.82188E+04  9.21021E+03 -4.78271E+04 -1.46375E+04 -1.81215E+04 -3.61508E+04
  7.83635E+03 -4.02686E+04  3.39170E+04 -1.63649E+04  3.59519E+04  8.74694E+03  4.88146E+03  2.52759E+04
 -1.39942E+04  6.50647E+03 -6.29470E+03 -1.71057E+04  4.53445E+03 -8.64112E+03  1.92221E+04  4.79816E+03
  8.95637E+03  2.74345E+04 -1.09560E+04  2.65820E+04 -1.98278E+04  1.49157E+04 -3.20610E+04 -9.83805E+03
 -2.61358E+04 -1.35129E+04 -1.93424E+04 -2.81658E+04  5.62223E+02 -3.49762E+04  2.39484E+04 -2.23116E+04
  2.85143E+04 -1.34758E+04  4.18723E+04  5.36497E+03  2.54133E+04  2.21207E+04  2.09292E+03  4.51004E+04
 -2.16880E+04  3.21898E+04 -3.20692E+04  1.73870E+04 -2.50080E+04 -1.18569E+04 -2.37959E+03 -2.27381E+04
 -1.37601E+03  1.33766E+03 -1.04256E+04  7.54535E+03 -1.90850E+04  7.52440E+03 -1.64200E+04 -6.15262E+03
 -9.76343E+03 -2.85446E+04  7.62756E+03 -2.79179E+04  2.40976E+04 -2.40665E+04  1.70415E+04 -4.43113E+03
  1.74601E+04  1.84730E+04 -4.93649E+03  2.19319E+04 -1.47662E+04  1.54940E+04 -2.38863E+04 -9.17719E+03
 -2.35640E+04 -2.11157E+04 -3.59836E+03 -3.35337E+04  1.54308E+04 -2.80600E+04  2.71305E+04 -1.13693E+04
  2.70576E+04 -3.85330E+02  6.37845E+03  3.54369E+03  7.16030E+03  6.89377E+02  1.11932E+04 -1.09035E+02
  2.14531E+04  3.05064E+03  3.36949E+04  1.75660E+04  1.97850E+04  4.02007E+04 -7.43510E+03  5.05855E+04
 -2.82547E+04  3.25075E+04 -4.80050E+04  2.58674E+04 -4.79218E+04 -5.91500E+03 -3.69568E+04 -3.12066E+04
 -1.42334E+04 -3.77081E+04  1.44159E+04 -3.21485E+04  3.27678E+04 -1.58075E+04  2.83610E+04  9.95231E+03
  5.25100E+03  2.14074E+04 -2.07307E+04  1.85569E+04 -1.91858E+04  2.52332E+03 -1.62693E+04 -1.57230E+04
 -5.65947E+03 -1.88173E+04  6.00314E+03 -1.99745E+04  1.17819E+04  6.04939E+02  3.00768E+03  7.32692E+03
 -5.44012E+03  3.87509E+03 -2.94936E+03 -6.29473E+03  4.32066E+02 -2.34195E+04  1.75216E+04 -2.74941E+04
  2.50025E+04 -6.30429E+03  2.95631E+04  2.61793E+03  2.83517E+04  1.69486E+04  1.43454E+04  3.09859E+04
 -1.01027E+04  3.06272E+04 -2.31601E+04  1.79197E+04 -1.64310E+04  3.33582E+03 -1.84623E+04 -2.33682E+03
 -9.72829E+03 -8.79148E+03  9.88242E+02 -3.41999E+03 -4.43740E+03  2.93844E+03 -6.14459E+03  6.42824E+03
 -1.91093E+04  2.39370E+03 -5.06276E+03 -1.44256E+04 -7.04566E+03 -1.94776E+04  1.26604E+04 -1.57103E+04
  1.78347E+04 -8.17409E+03  8.58149E+03  6.10944E+02  1.98305E+03  1.96854E+03 -8.35776E+03  5.31367E+03
 -6.95520E+03 -7.02585E+03 -3.11469E+03 -1.25736E+04  7.07035E+03 -2.44075E+04  2.65769E+04 -7.46578E+03
  3.24117E+04  1.03318E+03  2.34053E+04  1.71017E+04  4.77086E+02  2.57014E+04 -1.34242E+04  1.37681E+04
 -2.00628E+04  8.79463E+03 -9.48467E+03 -6.57604E+03 -1.38344E+03 -1.73748E+03  7.95086E+03 -5.48156E+03
  6.59190E+03  5.23516E+03  7.65620E+02  2.11592E+04 -3.83214E+03  1.86537E+04 -1.31715E+04  6.09740E+03
 -1.47722E+04 -1.42720E+04  9.80700E+02 -1.07305E+04  1.50486E+04 -8.82601E+02  7.69408E+03  2.95523E+03
 -1.77842E+03  1.00646E+04 -1.07027E+04  1.12845E+04 -1.57593E+04  2.14518E+03 -2.15931E+04 -9.44304E+03
 -1.00103E+04 -1.81549E+04  7.82440E+03 -2.39552E+04  1.85149E+04 -9.17783E+03  1.69028E+04  5.67757E+03
  1.08114E+04  1.87987E+04 -6.68260E+03  1.83615E+04 -1.99768E+04  2.16264E+03 -1.07812E+04 -2.40778E+03
 -1.89423E+04 -1.09889E+04  2.08399E+02 -1.21195E+04  8.73347E+03 -1.21537E+04  1.03646E+04 -1.86917E+03
  2.43811E+03  1.63450E+03 -1.67574E+03  7.51012E+03 -6.19502E+03 -3.80410E+02  6.36807E+03 -1.15302E+04
  2.37551E+04 -2.57458E+03  2.30018E+04 -7.86182E+02  1.91494E+04  8.53037E+03  1.20705E+04  2.45691E+04
 -1.01367E+04  3.06021E+04 -2.06653E+04  1.97270E+04 -2.83879E+04  2.33370E+03 -2.83464E+04 -1.12125E+04
 -1.16779E+04 -1.59053E+04  8.25486E+03 -2.09327E+04  3.32065E+03 -1.02387E+04  2.22291E+03 -4.94417E+03
  5.93483E+03 -4.97553E+03  7.53353E+03  1.78753E+03  8.05795E+03  9.58390E+02  8.38796E+03  7.46787E+03
  1.06436E+04  4.86102E+03  8.33957E+03  7.53464E+03  1.19822E+02  8.82320E+03 -1.53649E+04  1.21281E+04
 -2.00577E+04 -3.13470E+03 -1.25723E+04 -1.32439E+04 -6.08862E+03 -2.01400E+04  2.62710E+03 -1.87881E+04
  2.13436E+04 -1.60664E+04  2.36439E+04 -1.67495E+03  1.56216E+04  1.81792E+04  1.61976E+02  2.56503E+04
 -6.10027E+03  1.48733E+04 -6.57020E+03  9.10765E+03 -5.77319E+03 -5.54019E+03 -2.18711E+03 -8.92821E+01
  1.22334E+03 -6.76448E+03 -5.34985E+03 -6.01915E+03  7.71671E+01  7.88673E+03 -1.25182E+04 -1.08496E+02
 -8.00343E+03 -1.13157E+04 -4.95355E+03 -1.56337E+04  1.34602E+04 -1.45295E+04  1.40331E+04 -7.24816E+03
  2.19066E+04  5.44482E+03  1.09780E+02  2.20918E+04 -5.88698E+03  1.96713E+04 -8.55982E+03  1.50869E+04
 -1.40149E+04 -1.61883E+03 -1.16859E+04 -8.69068E+03  4.23478E+03 -2.04456E+04  4.64293E+03 -1.46886E+04
  1.40460E+04 -7.52614E+03  1.01548E+04  9.49522E+03  2.72867E+03  2.36242E+03 -1.26263E+03  3.75232E+03
  3.90914E+03 -2.40404E+03  4.69080E+02 -1.06136E+03  6.76150E+03  5.66389E+03  1.22595E+03  7.32000E+03
 -1.90583E+03  1.92837E+04 -1.49957E+04  1.44551E+04 -1.73346E+04  6.09569E+03 -2.29107E+04 -6.93349E+03
 -1.60344E+04 -1.27895E+04  7.63401E+02 -1.82766E+04  1.34719E+04 -9.15414E+03  2.33622E+04 -4.78363E+03
  1.09406E+04  1.44776E+04  5.68190E+03  1.16630E+04 -8.25858E+03  6.20632E+03 -8.87201E+03 -5.89924E+03
 -9.53630E+03 -4.80766E+03  4.25641E+02 -8.67346E+03  5.16870E+03 -4.38174E+03  9.30824E+03  2.03349E+03
  1.79821E+02  1.06495E+04  2.14468E+03  3.34065E+03  2.07989E+03  5.89899E+03  4.34604E+03 -1.35006E+03
  6.32260E+03 -9.45790E+02  1.07895E+03  1.82226E+03  8.28515E+03  6.64144E+03 -2.93048E+03  1.18695E+04
 -3.54347E+03  1.02428E+04 -1.25810E+04  8.23752E+03 -1.18668E+04 -3.50084E+03 -4.47568E+03 -1.20850E+04
 -1.29122E+03 -9.71778E+03  7.65005E+03 -6.11090E+03  1.32352E+04  6.64491E+03  3.97389E+03  5.06125E+03
 -2.82797E+03  2.09829E+03 -8.68576E+03 -7.11982E+02  1.56898E+02 -8.55970E+03  3.70061E+03 -7.07863E+03
 -3.35916E+03 -8.53806E+03  7.44404E+03 -2.29935E+03  1.19139E+04  6.28155E+03 -2.43113E+02  7.86048E+03
 -5.18014E+03  7.84305E+03 -2.94778E+03 -4.55223E+03  1.86166E+03 -6.95186E+03  7.94899E+03 -1.92081E+03
  1.62117E+04  3.88657E+03  1.31402E+04  8.31121E+03  1.03576E+04  1.74122E+04  2.85361E+03  8.33514E+03
 -1.17954E+04  4.12548E+03 -6.38901E+03 -6.61471E+03 -1.11663E+04 -5.39527E+03 -3.71660E+03 -3.26190E+03
  1.01276E+04 -1.00342E+04  1.17522E+03  2.71829E+03  2.54410E+03  1.37765E+04 -3.97509E+03 -1.27560E+03
 -4.45353E+03  8.81398E+03  2.78892E+03  3.08377E+03  3.19751E+02 -1.92391E+02 -4.90318E+03 -1.21215E+03
 -6.17418E+03 -2.87505E+02 -4.85471E+03  3.58134E+02 -9.48127E+03  1.75064E+03 -1.40230E+04 -1.30260E+04
 -1.49272E+04 -1.36534E+04  5.95252E+03 -2.13117E+04  7.55462E+03 -1.20602E+04  2.42554E+04 -5.95158E+03
  1.82606E+04  5.64074E+03  8.97198E+03  8.73609E+03 -2.98746E+03  1.09384E+04 -3.41105E+03  1.13656E+04
 -1.26068E+04 -2.87741E+03 -9.19285E+03  9.43929E+02 -1.27776E+03  8.04582E+02 -8.27700E+02 -3.07755E+03
 -1.31453E+04 -2.02912E+03 -5.83201E+03  2.19081E+03 -1.03853E+03 -4.21839E+03  7.80371E+03 -3.99920E+03
  1.19797E+04  6.66724E+02  8.63329E+03  1.71146E+03  9.96270E+03  1.75301E+04  4.16050E+03  9.03327E+03
 -9.84933E+03  1.69760E+04 -1.30543E+04  1.36177E+04 -1.37622E+04 -7.69278E+02 -1.07805E+04 -9.28106E+03
 -6.51358E+03 -1.43855E+04  1.65292E+03 -9.34870E+03  4.43106E+03 -4.27469E+03  1.02558E+04  8.19224E+03
  5.52488E+03  3.61925E+03  4.23599E+03  9.91355E+03 -2.10689E+02 -1.44331E+03 -3.19062E+03 -2.68298E+03
  6.16477E+03  2.98584E+02  9.41832E+03 -4.86026E+03  3.09120E+03  3.81033E+03  5.93196E+03  6.14453E+03
 -8.39821E+03  9.55685E+03 -1.20457E+04  1.77750E+03 -1.13058E+04 -9.50533E+03 -1.05728E+03 -5.48707E+03
  4.82037E+03 -1.49596E+04  1.76855E+04 -8.37864E+03  1.37635E+04  4.96218E+03  6.05686E+03  7.76407E+03
  7.15624E+03  6.95175E+03 -3.30399E+03  5.33736E+03 -1.08630E+04  3.72112E+03 -4.17758E+03 -3.66712E+03
 -8.30382E+03  2.40904E+03 -7.13688E+03  3.22312E+03 -4.66621E+03 -3.50587E+03 -1.00499E+04 -1.73232E+03
 -9.68429E+03 -5.69650E+02  4.04083E+03 -3.50899E+03  7.59777E+03 -8.87360E+03  9.59909E+03 -3.70936E+03
  1.35608E+04  2.18340E+03  1.46991E+03  3.25788E+03  1.38944E+03  1.13965E+04 -1.06115E+04  7.57536E+03
