 $NMID ID='MM_0lb_SNR50_14hz_g60_76.RAW', FMTDAT='(8E13.5)'
 TRAMP=1., VOLUME=1. $END
  3.09397E+05 -3.47262E+02  3.40006E+05  2.51542E+05  8.59510E+04  3.35602E+05 -1.33523E+05  2.50339E+05
 -1.94805E+05  8.52651E+04 -1.13319E+05 -2.91290E+04  2.06672E+03 -5.20762E+04  5.75540E+04 -1.48035E+03
  3.63000E+04  5.26039E+04 -1.58496E+04  7.33208E+04 -5.51692E+04  6.50216E+04 -8.76475E+04  3.75061E+04
 -8.72148E+04 -1.77805E+04 -6.28979E+04 -5.56145E+04 -1.24536E+04 -7.12998E+04  3.39406E+04 -4.59385E+04
  3.92917E+04  7.53800E+03  1.59803E+04  5.27021E+04 -3.36899E+04  4.62350E+04 -6.74935E+04 -3.05186E+03
 -5.19795E+04 -5.67617E+04 -6.73641E+03 -7.63085E+04  3.25995E+04 -6.18343E+04  4.63216E+04 -1.70007E+04
  4.61339E+04  1.63936E+04  3.19125E+04  2.33262E+04  1.31698E+04  2.72769E+04 -4.47285E+03  2.60630E+04
 -2.09991E+04  1.52531E+04 -1.92765E+04 -3.80834E+03  1.81626E+03 -6.48773E+03  2.46875E+04  9.72107E+03
  6.19040E+03  3.79515E+04 -3.42870E+04  4.00000E+04 -6.62578E+04  2.25688E+03 -5.17959E+04 -4.48919E+04
 -1.51956E+04 -6.64374E+04  3.61977E+04 -5.12993E+04  5.84163E+04 -1.86288E+03  3.58347E+04  2.94391E+04
 -5.00570E+03  3.83526E+04 -2.88333E+04  1.70237E+04 -3.11976E+04 -4.91750E+03 -1.79353E+04 -7.52288E+03
 -7.88320E+03 -1.22699E+04  2.18251E+03 -1.37067E+04  6.47437E+03 -2.57342E+04  1.74269E+04 -1.49317E+04
  1.22023E+04  6.55405E+03 -9.93888E+03  1.29502E+04 -2.50244E+04 -7.90820E+03 -1.36488E+04 -3.52024E+04
  1.76966E+04 -4.38175E+04  5.10599E+04 -2.10464E+04  4.72456E+04  1.55686E+04  1.24993E+04  4.53428E+04
 -2.29237E+04  3.24460E+04 -2.70647E+04  2.25281E+02 -1.21658E+04 -3.00122E+04  1.96158E+04 -3.25247E+04
  4.40292E+04 -1.04599E+04  3.35607E+04  2.61484E+04  2.01365E+04  5.14832E+04 -2.01885E+03  5.88573E+04
 -3.55699E+04  3.18080E+04 -4.79618E+04  1.26340E+04 -4.72535E+04 -2.01583E+04 -2.66905E+04 -3.55481E+04
  9.83631E+03 -3.90045E+04  3.06980E+04 -1.43463E+04  3.03906E+04  7.76618E+03  1.61101E+03  1.94757E+04
 -1.68814E+04  7.66486E+03 -6.11819E+03 -1.07391E+04  3.51528E+03 -8.38884E+03  1.69317E+04  6.11461E+03
  1.49893E+04  2.32297E+04 -6.12353E+03  2.47543E+04 -2.32708E+04  7.81713E+03 -2.65097E+04 -3.67559E+03
 -2.24347E+04 -1.82544E+04 -1.06733E+04 -2.20814E+04  7.56598E+03 -2.06984E+04  2.52511E+04 -1.75674E+04
  2.53359E+04 -1.23359E+04  3.37928E+04  6.22867E+03  2.48207E+04  2.08752E+04  3.71499E+03  4.51729E+04
 -2.19829E+04  3.30763E+04 -2.85685E+04  1.35797E+04 -2.45761E+04 -5.34673E+03 -8.31597E+03 -1.15785E+04
  6.09408E+03  3.28697E+02 -2.91127E+03  6.24315E+03 -1.69387E+04  6.68170E+03 -1.50120E+04 -8.17554E+03
 -1.22786E+04 -2.22494E+04  4.30394E+03 -2.38829E+04  1.21734E+04 -1.60066E+04  1.76671E+04 -8.31773E+02
  1.36134E+04  1.32064E+04 -2.69946E+03  2.30427E+04 -1.44144E+04  1.07047E+04 -2.17132E+04 -5.53275E+03
 -1.33761E+04 -1.72014E+04 -7.64938E+02 -2.61264E+04  1.46995E+04 -2.11636E+04  2.11555E+04 -1.02211E+04
  2.34332E+04 -1.55871E+03  1.73282E+04  4.71782E+03  7.69173E+03  1.55328E+03  8.59597E+03  7.96170E+02
  2.11155E+04  1.16214E+03  2.21030E+04  1.48839E+04  1.70334E+04  3.11018E+04 -3.07876E+03  3.67134E+04
 -2.02384E+04  2.97229E+04 -3.55925E+04  1.32771E+04 -3.09183E+04 -3.71002E+03 -2.67354E+04 -1.77248E+04
 -1.19821E+04 -2.90218E+04  1.25594E+04 -2.83437E+04  2.11992E+04 -6.99650E+03  2.50978E+04  1.09234E+04
  1.11460E+04  1.60621E+04 -1.15048E+04  1.37148E+04 -1.93974E+04  2.91331E+03 -8.94605E+03 -1.12459E+04
  4.01878E+03 -1.89612E+04  8.67650E+03 -1.68355E+04  1.20902E+04 -2.31255E+03  4.43613E+03  7.82763E+03
 -5.28896E+03  5.78594E+03 -2.58089E+03 -8.21591E+03  2.85399E+03 -1.65141E+04  9.74214E+03 -1.82250E+04
  1.37664E+04 -2.87686E+03  1.73588E+04  1.03552E+03  1.71819E+04  1.22808E+04  4.00366E+03  2.69345E+04
 -1.09138E+04  2.40364E+04 -1.39112E+04  1.48879E+04 -1.81001E+04  1.72061E+03 -1.55235E+04 -5.75321E+03
 -5.31231E+03 -4.06236E+03 -2.33874E+03  1.04515E+03  8.63386E+02  4.99459E+03 -1.04766E+04  3.48167E+03
 -1.17150E+04 -1.82577E+03 -5.95114E+03 -9.10876E+03 -4.53046E+03 -1.68730E+04  2.59189E+03 -1.50007E+04
  1.38040E+04 -5.11931E+03  2.77489E+03  9.35094E+01 -1.29355E+03  4.80999E+03 -5.66732E+03 -1.94263E+03
 -7.57784E+03 -5.44631E+03 -2.53127E+03 -8.68449E+03  5.64756E+03 -8.93012E+03  1.71252E+04 -7.87072E+03
  2.06418E+04  3.08777E+03  8.36710E+03  9.11952E+03  7.31399E+03  1.08589E+04 -6.44566E+03  1.38960E+04
 -1.07464E+04  2.89658E+02 -6.39161E+03  5.64933E+03  1.48895E+03  2.93050E+03  5.39049E+03 -3.53607E+03
  8.12928E+03  2.75463E+03  3.35792E+03  9.28002E+03 -1.76802E+03  1.17144E+04 -1.35685E+04  7.99552E+02
 -3.74926E+03 -3.11461E+03  1.96973E+03 -1.12863E+04  7.17951E+03 -5.26629E+03  1.03422E+04  2.09963E+03
 -1.81174E+02  1.10073E+04 -4.12607E+03  9.89884E+03 -1.06148E+04  4.40054E+03 -1.20780E+04 -3.29644E+02
  1.80626E+03 -1.46153E+04 -2.98046E+03 -1.05218E+04  1.15184E+04 -8.69693E+03  9.92787E+03  7.78252E+03
  8.35499E+03  1.24450E+04  1.90611E+03  8.28574E+03 -5.00956E+03  2.79713E+03 -6.69687E+03 -4.77774E+03
 -1.11032E+04 -7.46734E+03 -1.30068E+03 -6.56369E+03  6.55396E+03 -3.11808E+03  3.68314E+03 -3.18240E+03
  2.45605E+03  8.11812E+02 -9.74637E+02  1.81287E+03  2.81480E+02  6.35412E+03  1.41890E+03 -1.64555E+02
  1.17036E+04 -3.38354E+03  8.68955E+03  3.05048E+03  1.03834E+04  4.53387E+03  8.17576E+03  1.59809E+04
  1.98722E+03  1.22998E+04 -1.39556E+04  1.07651E+04 -2.38360E+04  5.25365E+03 -1.48410E+04 -5.47511E+03
 -7.44853E+03 -9.55332E+03 -2.98980E+03 -1.22496E+04  2.67888E+03 -9.76864E+03  2.96858E+03  1.66555E+03
  1.24195E+03 -1.77272E+03  5.29236E+03 -1.01984E+03  4.02583E+03 -3.74609E+03  2.38616E+03  9.41083E+02
  6.03049E+03  3.27737E+03  9.04688E+02  8.93732E+03 -6.04865E+03  4.04058E+03 -8.62265E+03  7.15773E+03
 -1.02619E+04 -2.77978E+03 -2.39421E+03 -1.11459E+04  1.31443E+03 -1.03418E+04  4.17640E+03 -1.03090E+04
  8.49098E+03 -8.27559E+03  8.74016E+03 -1.85272E+03  8.51497E+03  7.59849E+03 -1.11022E+03  1.58599E+04
 -3.05192E+03  1.42858E+04 -8.29051E+03  7.56232E+03 -7.58574E+03 -3.86943E+03 -6.38142E+03 -4.14529E+03
 -3.27496E+03  8.16312E+02  1.07912E+03 -4.25516E+02 -3.97133E+03 -7.81916E+02 -6.01415E+03 -7.97717E+02
 -6.23322E+03 -8.23111E+03  1.66088E+03 -5.64590E+03  3.16265E+03 -1.02659E+04  1.21166E+04 -2.76233E+02
  1.03257E+04  2.23556E+03  2.10701E+03  9.74188E+03 -4.84676E+03  1.01255E+04 -4.67708E+03  8.89983E+03
 -5.05872E+03  1.41740E+03 -8.75366E+03 -1.10315E+04 -3.54595E+02 -9.02466E+03  3.36497E+03 -3.40838E+03
  4.43245E+03 -3.30046E+03  9.16584E+03 -8.31000E+02  3.28039E+03  8.32371E+03 -2.13371E+03 -2.46546E+02
  4.34749E+03  1.63397E+03  2.98581E+03  6.32058E+02  4.43510E+03  4.95381E+03 -2.45078E+03  1.68485E+03
 -1.94246E+03  8.28759E+03 -7.07446E+03  1.06038E+04 -8.15699E+03  3.17759E+03 -7.97385E+03 -2.40591E+03
 -5.17200E+03 -7.04483E+03 -6.91566E+03 -9.62018E+03  2.79793E+03 -6.78661E+03  9.21982E+03 -4.88790E+03
  2.54640E+03  1.63626E+03  4.46762E+02  2.71118E+03 -4.09116E+02  5.41688E+02 -3.61384E+03 -1.17002E+03
 -2.07741E+03 -5.56685E+03  5.52487E+03 -5.43499E+03  3.55824E+03 -2.86363E+03  5.34420E+03  4.48470E+03
  6.72868E+03  8.14955E+02  2.90631E+03  7.99525E+02  3.50430E+03  3.41229E+03  3.94912E+03 -2.55643E+03
  2.84892E+03  8.68140E+03  6.22719E+03  7.97693E+02  3.41864E+03  5.58983E+03 -1.62096E+03  4.17247E+03
 -1.39345E+03  4.92846E+03 -7.30370E+03  2.25152E+02 -1.54989E+03 -7.23530E+02 -4.88478E+03 -3.20191E+03
 -3.66814E+03  6.43027E+02  5.76858E+03 -4.19403E+03 -1.68098E+02  1.87397E+03  7.85827E+02  5.24659E+03
  1.89634E+03  5.39925E+03 -2.48967E+03 -1.93903E+03 -8.54632E+02 -2.54330E+03  2.65360E+03 -7.19892E+03
  8.44209E+02 -4.31500E+03  6.90627E+03 -4.10341E+02  3.37570E+03  4.50766E+02 -6.65340E+02  6.06872E+02
 -1.06864E+03  8.94008E+02 -3.02219E+03 -4.47060E+03 -5.38441E+03 -4.04228E+03  2.59137E+03 -3.34380E+03
  5.24733E+03 -4.86245E+02  5.32057E+03 -1.40827E+03 -3.01272E+03  6.60671E+03  1.15488E+03  2.60523E+03
 -2.28431E+03 -2.49210E+03 -2.95508E+03 -4.30779E+02 -5.13145E+03 -4.04820E+03 -3.75475E+03 -2.67295E+02
  9.66909E+02 -3.20425E+03  3.20646E+03 -2.19908E+03  1.24868E+03  2.12268E+03  1.96140E+03 -3.85940E+02
 -3.47714E+02  1.38810E+03 -4.74733E+02  7.43717E+03 -5.36924E+02  1.75888E+03  3.17899E+03  1.96190E+03
 -2.43624E+03 -7.46951E+02 -1.04992E+04 -4.71218E+03 -1.04128E+04 -2.30585E+03 -2.25675E+03 -6.61821E+03
 -2.20986E+02 -7.05272E+03 -1.41118E+02 -9.69258E+03  2.15277E+03 -6.54526E+03  7.91092E+03 -2.84492E+03
  5.86676E+03  2.49065E+03  4.81735E+01  3.63692E+03 -2.15998E+03  3.47301E+03 -5.49711E+03  4.24411E+03
  1.32024E+03  2.90020E+03  2.80679E+03 -7.83008E+02 -1.47203E+03 -4.27247E+02  9.78503E+02 -9.39392E+02
  1.92602E+03 -1.08094E+03  2.40524E+01  3.56848E+03  7.49751E+03 -6.23517E+03  1.89486E+03  1.04999E+03
 -1.79557E+03 -5.90330E+03  4.29143E+02  3.22062E+03  4.74611E+03 -7.27713E+02  4.28439E+03  4.03866E+03
 -5.35510E+03  1.06716E+04 -2.37320E+03  2.09529E+03 -2.79484E+03  1.47572E+03 -5.30046E+03  1.57836E+02
 -4.40332E+03 -5.90006E+03 -5.27206E+02  1.44295E+03  3.89320E+03 -1.19004E+03  1.25338E+03 -1.87614E+03
  1.67061E+03  1.29988E+03  2.45269E+03  4.61302E+02 -7.50169E+03 -2.37752E+03 -2.68165E+03 -1.02799E+03
 -1.79340E+03  2.10224E+03  5.16119E+03 -4.64928E+01  6.55539E+03 -7.27370E+02 -1.65743E+03 -2.16615E+02
  2.11279E+03  3.80481E+03 -4.01381E+03 -5.04928E+03 -3.28166E+02 -1.18332E+03 -5.47738E+02 -2.81564E+03
  5.08530E+03 -2.58000E+01 -5.00230E+01  7.94057E+03  4.01700E+03  7.06222E+02  1.94995E+03  6.29564E+02
  9.68350E+02 -3.67892E+03  2.46922E+03 -1.11338E+03  7.27347E+01 -2.05455E+03  4.58196E+03 -5.15576E+02
 -4.61336E+02 -4.82262E+02 -2.61698E+03 -1.30533E+03  4.48349E+03  1.66747E+03 -4.99665E+03 -3.74999E+03
  3.13410E+02  1.68893E+03 -1.21680E+03 -3.00058E+03  2.10796E+03 -6.74643E+03  5.56265E+03 -5.79928E+02
  3.45750E+03  7.38635E+03 -1.87348E+03  3.32782E+03  4.71131E+02  5.83841E+03 -4.83760E+03  2.18881E+03
