 $NMID ID='MM_0lb_SNR50_19hz_g50_86.RAW', FMTDAT='(8E13.5)'
 TRAMP=1., VOLUME=1. $END
  3.09540E+05  1.54786E+02  3.40626E+05  2.45939E+05  8.67091E+04  3.39307E+05 -1.35891E+05  2.50210E+05
 -1.91776E+05  8.34977E+04 -1.09237E+05 -3.28147E+04  1.74748E+03 -4.88952E+04  5.46477E+04  6.85201E+02
  3.65608E+04  5.44177E+04 -1.79158E+04  7.27264E+04 -6.13501E+04  6.17980E+04 -8.24548E+04  3.02226E+04
 -8.34180E+04 -1.19951E+04 -5.85130E+04 -4.92178E+04 -1.68389E+04 -6.76995E+04  3.02458E+04 -4.96600E+04
  3.85122E+04  3.80221E+03  1.71823E+04  4.63458E+04 -3.83420E+04  4.44434E+04 -6.78792E+04 -2.38508E+03
 -5.13018E+04 -5.71822E+04 -5.25665E+03 -7.68553E+04  3.16239E+04 -5.79001E+04  4.67513E+04 -1.90962E+04
  4.60651E+04  1.11646E+04  2.48148E+04  2.50929E+04  1.53885E+04  3.17048E+04 -4.68209E+03  2.64589E+04
 -2.03553E+04  1.23453E+04 -2.26117E+04 -5.30014E+03  5.73560E+03 -6.99352E+03  2.39050E+04  1.29694E+04
  5.25107E+03  3.11428E+04 -3.53702E+04  3.47809E+04 -5.76024E+04  1.38303E+03 -6.00687E+04 -4.11397E+04
 -1.54211E+04 -6.25639E+04  3.65849E+04 -4.41026E+04  5.74295E+04 -7.85158E+03  3.09324E+04  3.06119E+04
 -8.29695E+03  3.25292E+04 -2.75305E+04  1.20182E+04 -2.87339E+04 -2.57782E+03 -1.42401E+04 -1.22500E+04
 -1.32547E+04 -9.80008E+03  2.41133E+02 -1.28392E+04  5.87371E+03 -2.14755E+04  1.53281E+04 -1.11515E+04
  1.47813E+04  6.06972E+03 -4.99750E+03  1.62880E+04 -1.70747E+04 -5.13534E+02 -8.87875E+03 -3.17564E+04
  2.18055E+04 -4.16578E+04  4.52709E+04 -1.88526E+04  4.05778E+04  1.83976E+04  1.54394E+04  4.46328E+04
 -1.31101E+04  3.21973E+04 -2.23647E+04  3.82529E+02 -1.22827E+04 -2.36456E+04  1.76458E+04 -3.25318E+04
  4.03778E+04 -1.04909E+04  3.24471E+04  2.27088E+04  1.66734E+04  4.48098E+04 -6.60319E+03  4.53914E+04
 -2.39998E+04  2.80454E+04 -3.60073E+04  1.03137E+04 -4.11914E+04 -1.49858E+04 -1.87965E+04 -3.63030E+04
  3.90729E+03 -3.77137E+04  2.96056E+04 -1.36174E+04  2.76222E+04  9.50430E+03  4.89585E+03  1.44693E+04
 -9.22689E+03  8.39113E+03 -8.83280E+03 -4.59661E+03  1.04899E+04 -1.31928E+04  2.09434E+04  5.46399E+03
  1.41710E+04  1.90349E+04 -8.76749E+03  2.46117E+04 -2.18151E+04  1.10832E+04 -2.71628E+04 -9.36141E+03
 -1.65348E+04 -1.11685E+04 -4.50376E+03 -1.63965E+04  4.98206E+03 -1.86890E+04  1.43826E+04 -1.47548E+04
  2.20674E+04 -1.39833E+04  2.94111E+04 -1.58948E+03  2.20135E+04  1.62260E+04  3.32804E+03  3.08719E+04
 -1.27592E+04  2.58884E+04 -2.51474E+04  9.84853E+03 -1.80849E+04 -9.61544E+03 -9.31167E+02 -1.44987E+04
  6.46778E+03 -2.99984E+03 -5.67621E+03  6.98667E+03 -1.37324E+04  6.51009E+03 -1.63243E+04 -5.38299E+03
 -9.57527E+03 -1.19861E+04  5.68688E+03 -1.95200E+04  1.01180E+04 -1.60965E+04  1.71339E+04 -3.05526E+03
  6.61388E+03  9.73712E+03 -4.54110E+02  1.47180E+04 -1.17362E+04  8.34202E+03 -1.46058E+04 -4.12164E+03
 -1.41336E+04 -1.21629E+04 -3.74772E+03 -1.88288E+04  1.23117E+04 -1.82941E+04  1.96063E+04 -6.87917E+03
  1.47542E+04 -2.73798E+02  1.16236E+04  6.16766E+03  3.65209E+03 -2.97695E+03  7.41656E+03 -2.95854E+03
  1.07861E+04 -3.47334E+02  1.76007E+04  1.41863E+04  5.94528E+03  2.60390E+04 -3.04934E+02  2.88890E+04
 -1.43554E+04  2.38015E+04 -2.38865E+04  1.02773E+04 -2.66500E+04 -4.65448E+03 -1.99188E+04 -1.07864E+04
 -9.86559E+03 -1.93870E+04  1.06032E+04 -1.75264E+04  1.88978E+04 -7.82415E+03  1.68017E+04  4.32959E+03
  1.12687E+04  6.65633E+03 -4.79682E+03  1.11357E+04 -1.07956E+04  3.87620E+03 -9.25165E+03 -6.43381E+03
 -1.33541E+03 -7.78492E+03  9.90899E+03 -9.11965E+03  7.70877E+03 -1.43602E+03  2.45906E+03  5.70324E+03
 -2.76026E+03 -1.97602E+03  3.69917E+02 -6.08228E+03  4.18002E+03 -1.19997E+04  6.62925E+03 -1.15149E+04
  1.28177E+04 -6.68627E+03  1.18045E+04  5.25562E+03  9.24611E+03  4.64097E+03  6.07129E+03  1.35189E+04
 -2.50934E+03  1.92989E+04 -1.09528E+04  8.18197E+03 -8.36648E+03  2.21942E+03 -7.82612E+03 -5.19068E+03
 -3.45129E+03 -3.27982E+03 -5.14403E+03 -2.29015E+03 -4.30789E+03 -1.97108E+03 -4.65987E+03  3.22390E+03
 -1.19398E+04 -1.01870E+02 -6.57568E+03 -8.92241E+03 -3.55227E+03 -1.14659E+04  7.95665E+03 -7.65941E+03
  3.75725E+03 -4.54444E+03  5.87232E+03  3.11185E+03  5.63170E+02 -3.95547E+02 -2.89908E+02 -3.88128E+03
 -3.84071E+03 -4.01402E+03 -5.86096E+02 -7.32737E+03  2.70581E+03 -6.28790E+03  9.50259E+03 -6.38287E+03
  1.15079E+04  2.55186E+03  6.66831E+03  7.21066E+03  4.71081E+03  7.26479E+03 -5.16656E+03  1.25230E+04
 -1.20487E+04 -2.07864E+03 -2.89548E+02  1.76683E+03  3.55873E+03 -1.96169E+03  2.21699E+03 -7.57116E+02
  2.83704E+02  2.13977E+03  7.12120E+02  7.41646E+03 -6.06720E+03  3.71664E+03 -4.34365E+03  3.13548E+03
 -4.17938E+03 -4.48335E+03  1.10120E+03 -1.00466E+04  5.39581E+03 -4.81967E+03  1.40279E+03 -6.47206E+02
 -1.16199E+03  1.99627E+03 -1.90642E+03  6.06131E+03 -4.00488E+03  3.94855E+03 -6.44752E+03 -4.46440E+03
 -2.87216E+03 -6.75470E+03 -2.34402E+03 -6.85658E+03  5.90640E+03 -5.00805E+03  9.27230E+03 -3.23615E+02
 -5.12197E+02  3.04414E+03  3.25829E+03  3.98563E+03 -6.50176E+03  7.33132E+03 -1.16760E+03  5.22762E+01
 -1.76331E+03 -2.71105E+03 -1.79589E+03 -5.07547E+03  4.63601E+03 -6.70755E+03  3.01478E+03 -2.40974E+03
  1.57268E+03  4.89409E+02  2.64004E+03  3.94909E+03  2.46635E+03 -2.14623E+03  2.32689E+03 -3.37693E+03
  2.48839E+03  1.69299E+03  1.82374E+03  1.80320E+02  5.57407E+03  1.55423E+03  6.52880E+03  6.93099E+03
 -2.50645E+03  9.72528E+03 -4.59465E+03  1.12411E+04 -1.11035E+04  9.09560E+02 -9.95945E+03 -5.66827E+03
 -2.96687E+03 -7.54658E+03 -6.25335E+02 -2.95093E+03  5.17850E+03 -1.77457E+03  1.39525E+03 -5.47263E+03
  4.85339E+03 -3.96488E+03  5.75133E+03 -2.61692E+03  2.35924E+03 -6.81668E+02 -1.82153E+03  2.97184E+03
  1.08220E+03 -6.95759E+02  4.37934E+03  3.15290E+03  4.08213E+03  5.02242E+02 -9.47107E+03  3.39095E+03
 -6.55174E+03  2.38431E+03  1.10241E+03 -1.63791E+03  1.64764E+03 -2.72280E+03  6.09481E+03 -3.00798E+03
  2.09440E+03  5.12076E+02  4.77541E+03  6.06366E+02  5.45960E+03 -1.76307E+03  1.92817E+03  5.23137E+03
 -2.72035E+03  4.56592E+03  2.81276E+02  1.47377E+03  1.98498E+02  1.06422E+03  1.89139E+03  1.24625E+03
 -4.66085E+03  3.68769E+03 -3.93206E+03  9.60950E+02 -3.14450E+03  2.16410E+03 -4.23012E+03  1.66975E+03
 -4.05351E+03 -7.39828E+03  9.23338E+02 -4.85987E+03  4.84638E+03 -3.25831E+03  2.68847E+03 -1.70582E+03
  6.84210E+03  3.80216E+03 -2.78754E+03  9.37259E+03  3.27383E+03  7.12224E+03 -2.49532E+03  4.78622E+03
 -8.62119E+02 -6.06850E+02 -8.98735E+03 -2.61603E+03 -2.00466E+03 -5.10442E+03  3.36164E+03 -8.39997E+03
  4.68105E+03  3.20123E+03  4.73636E+03 -3.75671E+03  1.59319E+03  9.81700E+01 -2.39552E+03 -1.98113E+03
  6.22235E+03  2.02972E+03  3.17908E+03  3.56689E+03  9.07780E+02  1.72246E+03  4.27973E+03  2.22241E+03
 -1.33498E+03  1.90711E+03 -2.12760E+03  7.68643E+03 -1.28908E+03  3.22298E+02 -2.63349E+03  1.83947E+03
  3.87218E+02 -1.52940E+03 -3.01881E+02 -9.33889E+03  4.07873E+03  4.67899E+02  1.58175E+03 -7.60743E+02
 -2.73553E+03  1.85846E+03  5.76652E+01  1.27744E+03 -1.50512E+03  2.87103E+03  1.11461E+03 -1.09163E+03
  1.15005E+03  2.15888E+03 -4.43223E+02  5.59466E+02  6.09891E+03 -3.19079E+03 -1.28405E+03  5.99985E+02
  4.36352E+03 -1.80706E+02  5.31707E+02 -3.19349E+03 -2.51870E+01 -1.76182E+03 -5.35289E+02 -2.62713E+03
 -5.21235E+03 -2.55144E+03  1.97460E+03  5.49549E+02  1.05501E+03  2.68665E+03 -2.86907E+03  3.04655E+03
 -4.53485E+03  3.91964E+03 -5.26029E+02  3.74899E+03 -2.46536E+03  3.00407E+03 -6.26682E+02 -1.94860E+03
 -1.97763E+03 -2.51890E+03  4.71742E+03 -1.36150E+03 -4.34209E+03  2.21844E+03  5.64720E+03  2.56032E+03
 -5.24930E+03 -1.41141E+03 -2.28671E+03  1.54016E+03 -4.82875E+03 -2.72150E+03  2.00143E+03  8.91017E+02
  1.27633E+03 -1.00689E+03  5.28499E+03  2.06273E+03 -2.72669E+02  2.05426E+03  2.71248E+03  3.07810E+01
  3.52841E+03 -1.14426E+03 -4.35713E+03 -9.93322E+02  1.16770E+03  6.03881E+02  3.04794E+03 -2.35504E+03
 -1.18523E+03  2.58548E+03 -6.06244E+02  2.53112E+03 -3.89503E+02  3.41910E+03 -2.82598E+03  5.71066E+03
 -3.66990E+02  1.02324E+03 -3.26127E+03 -1.87880E+01 -1.25482E+03 -8.26130E+02 -1.70173E+03 -3.95350E+03
 -5.16927E+02  3.62292E+02  2.49910E+03 -8.86996E+01 -1.01204E+01 -6.71598E+01  4.28183E+03  8.60202E+02
  4.15522E+02  4.55132E+03  3.78127E+02 -1.20627E+03  4.85778E+03  4.76220E+03  3.03598E+03  3.61492E+03
  4.91100E+01  4.77087E+03 -6.29564E+02  1.85788E+02 -1.83653E+03 -1.91720E+03 -3.95038E+03  2.43953E+03
 -2.28236E+03  2.88477E+02  6.71902E+02 -1.82587E+03 -9.16527E+02  4.30175E+03  4.24963E+03 -1.85905E+03
  3.62206E+02 -3.06593E+03 -4.20575E+03 -5.68038E+01 -2.28575E+03  3.62315E+03  6.36284E+02  2.89459E+02
 -1.47790E+03 -9.00277E+02  8.14493E+02  3.77920E+02 -1.27901E+02  4.50068E+03  1.57017E+03 -1.87703E+03
 -7.77647E+02 -5.26817E+03 -4.69892E+03  2.38614E+03 -1.00784E+03  3.59973E+03 -2.92498E+03 -2.41726E+03
 -2.60970E+03 -5.94484E+02 -3.47924E+03  4.15038E+03 -5.63606E+02  3.74761E+03  5.03016E+02  4.11812E+02
 -1.77155E+03  1.90669E+03 -4.64478E+03  4.13679E+03 -1.61871E+03 -1.57872E+02 -2.86483E+03  5.19917E+02
 -3.44168E+03 -2.50765E+02 -2.87599E+03 -3.29342E+03  1.64728E+03 -4.98219E+03  7.07203E+02  1.70240E+03
  3.17229E+03 -7.52273E+02  2.97261E+03 -2.17305E+03  1.89044E+02 -1.43924E+02  4.35276E+02 -3.87787E+03
  2.22011E+03  1.06345E+02  1.30444E+03  3.95124E+03 -1.57440E+03  2.28358E+03  3.22394E+03 -1.16103E+03
  5.66662E+02  1.87778E+03 -3.25236E+03  2.96430E+03 -2.24637E+02  5.53621E+03  3.91656E+03  5.74865E+02
  2.91373E+03  1.34367E+03 -3.51138E+02 -1.27761E+03  2.26079E+03 -1.40077E+03  1.52587E+03 -2.93141E+03
 -2.09276E+03 -3.07246E+03 -8.48293E+02  1.21887E+03  1.49621E+03  1.28369E+03 -1.77655E+03 -1.87419E+02
 -4.84886E+03 -4.56036E+03  1.88589E+03  5.88100E+02 -9.27851E+02 -2.32445E+03  2.14369E+03 -1.10911E+03
  1.00357E+02  2.50803E+02 -2.66374E+02  1.34700E+03 -1.87614E+03 -3.31932E+03  1.17657E+03  3.97625E+02
  3.28137E+02 -7.64412E+01 -2.73697E+03  2.70661E+03  1.70542E+03 -1.82504E+02 -1.10717E+03  3.31822E+03
