 $NMID ID='MM_0lb_SNR50_17hz_g40_86.RAW', FMTDAT='(8E13.5)'
 TRAMP=1., VOLUME=1. $END
  3.06281E+05 -2.95731E+03  3.31830E+05  2.51899E+05  8.82653E+04  3.40890E+05 -1.31576E+05  2.51623E+05
 -1.91527E+05  8.23733E+04 -1.16717E+05 -2.85715E+04  2.10985E+03 -4.92627E+04  5.66358E+04  1.10871E+03
  3.42735E+04  5.31298E+04 -1.99853E+04  7.74908E+04 -5.84407E+04  5.99450E+04 -8.51900E+04  2.90970E+04
 -8.26359E+04 -1.18112E+04 -5.44868E+04 -4.80564E+04 -1.54237E+04 -6.73990E+04  2.53625E+04 -4.87112E+04
  3.86177E+04  6.32662E+03  1.59707E+04  4.93166E+04 -3.62858E+04  4.42532E+04 -6.16677E+04  5.11144E+02
 -5.20703E+04 -5.69217E+04 -1.00742E+04 -7.44011E+04  3.29092E+04 -5.48624E+04  4.34705E+04 -1.38592E+04
  4.53926E+04  1.07738E+04  2.97155E+04  2.21266E+04  1.63218E+04  2.97965E+04 -7.15960E+03  2.80361E+04
 -2.13717E+04  1.47133E+04 -1.55339E+04 -6.00235E+03  7.31626E+03 -5.43504E+03  1.84761E+04  1.00371E+04
  7.09307E+03  3.09438E+04 -2.99833E+04  3.39776E+04 -6.26082E+04  1.27050E+03 -5.44618E+04 -4.50820E+04
 -1.33547E+04 -6.03469E+04  3.98704E+04 -4.72061E+04  5.11016E+04  1.36546E+03  3.64131E+04  3.16576E+04
 -6.39293E+03  3.35264E+04 -3.01306E+04  1.22387E+04 -2.75760E+04 -8.94770E+03 -1.23115E+04 -9.13809E+03
 -7.94533E+03 -1.00451E+04  4.03006E+02 -2.00300E+04  4.52662E+03 -2.25785E+04  1.68105E+04 -1.48475E+04
  1.65750E+04  6.07870E+03 -6.59993E+03  1.17971E+04 -1.90007E+04 -4.10344E+03 -2.89383E+03 -3.31608E+04
  1.68967E+04 -4.27978E+04  4.67306E+04 -1.99371E+04  4.70558E+04  1.89892E+04  9.52702E+03  4.02467E+04
 -1.52836E+04  3.04241E+04 -2.33518E+04  8.92295E+02 -1.04973E+04 -2.65649E+04  1.80425E+04 -3.03937E+04
  3.77406E+04 -9.42359E+03  3.18606E+04  2.37389E+04  1.56097E+04  4.12850E+04 -1.40597E+04  4.52424E+04
 -2.52661E+04  3.26242E+04 -4.02943E+04  1.04008E+04 -4.12483E+04 -1.66437E+04 -2.14793E+04 -3.18352E+04
  5.79166E+03 -3.82339E+04  3.10268E+04 -1.23648E+04  2.49078E+04  9.26112E+03  4.36748E+03  1.61294E+04
 -1.19214E+04  1.05273E+04 -1.06236E+04 -4.03101E+03  3.49546E+03 -1.36787E+04  1.28202E+04  6.89786E+03
  1.50384E+04  2.34327E+04 -4.37271E+03  2.32897E+04 -2.20472E+04  1.17730E+04 -2.47744E+04 -8.96831E+03
 -1.66394E+04 -1.43051E+04 -3.70896E+03 -1.87404E+04  5.72938E+03 -1.34919E+04  1.23906E+04 -1.19977E+04
  2.35455E+04 -1.38679E+04  3.31521E+04  1.23512E+03  1.88186E+04  1.82541E+04  2.15427E+03  3.20287E+04
 -1.56685E+04  2.89335E+04 -2.62479E+04  9.00769E+03 -1.41281E+04 -1.04978E+04 -3.71660E+03 -1.65741E+04
 -3.66768E+03 -3.35563E+03 -2.30958E+03  8.58664E+03 -1.45375E+04  1.08684E+04 -1.22705E+04 -5.19177E+03
 -3.17970E+03 -1.78581E+04  8.86741E+03 -1.86152E+04  1.42171E+04 -1.27187E+04  1.45982E+04  5.21105E+03
  1.04831E+04  1.00636E+04 -2.43713E+01  1.85175E+04 -1.11861E+04  5.50953E+03 -1.50281E+04 -2.44948E+03
 -1.34357E+04 -1.65186E+04 -4.56363E+03 -1.72885E+04  1.25288E+04 -1.43133E+04  1.22569E+04 -9.29078E+03
  1.66900E+04  2.11747E+03  1.15032E+04  2.18203E+03  6.81974E+03 -1.41461E+03  1.07842E+04 -1.55021E+03
  9.12554E+03  5.26446E+03  1.85493E+04  1.00336E+04  1.20657E+04  2.56711E+04  1.18812E+03  2.75415E+04
 -1.82465E+04  2.09628E+04 -2.56645E+04  1.14510E+04 -2.35202E+04 -2.85372E+02 -1.51741E+04 -1.83638E+04
 -1.23847E+04 -2.17818E+04  5.21760E+03 -1.81791E+04  1.62269E+04 -1.37053E+04  1.62736E+04 -9.18874E+02
  1.13045E+04  1.41731E+04 -8.65831E+03  1.09848E+04 -1.18794E+04 -1.13827E+03 -1.17406E+04 -9.08458E+03
  6.81761E+03 -1.58786E+04  6.71751E+03 -1.13104E+04  8.67806E+03 -4.50193E+02  5.62587E+01  5.03266E+03
 -8.97863E+03 -7.13703E+02 -2.34096E+03 -8.26992E+02  6.11829E+02 -1.00401E+04  9.64671E+03 -7.73100E+03
  1.42871E+04 -1.82998E+03  9.05065E+03  2.01844E+03  1.15919E+04  1.04036E+04  7.64932E+03  1.45011E+04
 -2.26389E+03  1.20855E+04 -1.29250E+04  1.03762E+04 -1.23445E+04  5.27251E+03 -7.17547E+03 -2.58563E+03
 -3.01673E+03  6.36404E+02 -1.12760E+03  8.26307E+03 -1.18843E+03 -9.01116E+02 -5.47187E+03  4.98313E+03
 -1.07378E+04  2.23163E+03 -7.62429E+03 -6.89373E+03 -2.48578E+03 -1.19765E+04  6.47186E+03 -1.36188E+04
  9.63096E+03 -3.97412E+03  7.19221E+03  3.26885E+03 -3.02582E+03  4.28346E+03 -6.87128E+03 -4.80758E+03
 -4.16963E+03 -7.97612E+03 -6.06087E+03 -7.76776E+03  4.28130E+03 -1.08799E+04  1.12943E+04 -1.70498E+03
  1.27002E+04 -2.05062E+03  1.24625E+04  5.04998E+03  8.29414E+02  6.53183E+03 -6.95104E+03  1.00177E+04
 -6.59318E+03  7.34995E+01 -3.26546E+03 -2.80601E+03  8.11401E+02 -2.53850E+03  9.57205E+03 -4.69670E+03
  3.60143E+03 -1.49602E+02 -7.27021E+02  7.48350E+03 -2.82646E+03  4.35126E+03 -4.72964E+03  6.11588E+03
 -8.68134E+03 -4.17599E+03 -2.17410E+03 -1.01615E+04  1.29843E+03 -2.01816E+03  2.98942E+03  3.45863E+03
 -1.30555E+03  5.76058E+03 -1.05580E+03  5.86366E+03 -3.65751E+03  3.56786E+03 -6.90878E+03 -6.16539E+02
 -5.17374E+03 -5.78809E+03  2.53636E+03 -1.15867E+04  7.03013E+03 -9.07713E+03  3.85384E+03 -3.02762E+03
  6.33495E+03  7.05678E+03 -3.18176E+03  5.79866E+03 -3.24575E+03  2.92537E+03 -5.97493E+03 -3.64188E+03
 -4.03494E+03 -5.24038E+03 -1.23822E+03 -6.21170E+03  3.86937E+03 -8.01803E+03  6.40640E+03 -1.07148E+03
 -6.70105E+02 -5.24002E+02 -4.43964E+03  2.50928E+03  3.23688E+03 -1.39626E+03  1.41565E+03  2.39302E+02
  3.65736E+03  8.90620E+02  7.79159E+03  9.74476E+02  2.91763E+03  5.33736E+03  6.53810E+03  1.11665E+04
 -2.26915E+03  5.11947E+03 -8.32153E+03  5.87624E+03 -1.16531E+04  3.52135E+03 -3.64640E+03 -7.62106E+02
 -4.75800E+03 -5.26197E+03 -3.10247E+03 -4.11900E+03  4.31210E+03 -5.32487E+03  5.19494E+03 -8.62698E+03
  1.04907E+03 -1.95216E+02  4.83826E+02  2.65239E+02  3.04573E+03 -1.89546E+03  2.60039E+03 -1.90930E+03
  3.05702E+03  2.51246E+02 -4.54499E+03  2.38611E+03 -7.30863E+03  7.31015E+03 -8.20334E+03  8.14051E+03
 -4.56584E+03 -1.25552E+03 -4.25007E+03 -5.85138E+03 -4.65951E+02 -7.04001E+03  5.24419E+03 -2.04651E+03
  6.26859E+03 -9.19117E+03  8.69843E+03 -1.41872E+03  9.22788E+03  5.58465E+03  4.00813E+03  9.53391E+03
 -3.25583E+03  5.41371E+03 -6.49282E+03 -1.00483E+03  1.15224E+03 -1.06444E+03 -1.51653E+03  2.62898E+03
  2.70986E+03 -8.99235E+01 -4.15744E+03  4.09705E+03 -3.29357E+03  2.53768E+03 -5.81255E+03 -2.01677E+03
 -5.17628E+01 -4.81268E+03  2.25768E+03 -6.70286E+03  4.99126E+03 -1.07603E+04  6.70114E+03 -3.90050E+03
  1.32351E+03  2.98526E+03  2.55483E+02  2.88201E+03  1.80067E+03  5.25676E+03 -5.29766E+03  9.90515E+02
 -6.75648E+03 -5.20028E+03 -2.64387E+03 -3.31175E+03  3.70409E+03 -4.55546E+03  2.10323E+03 -2.41962E+03
  7.61363E+02 -3.84001E+03 -3.63502E+03  8.05348E+02  3.09855E+02  2.77247E+02  5.68284E+03 -4.26668E+03
  3.04897E+03  9.31391E+02  4.68309E+03  2.73862E+03 -1.16042E+03  4.95240E+03 -3.05427E+02 -2.14508E+03
  1.79974E+02  1.82759E+03 -2.70111E+03  2.70036E+03 -5.73631E+03  1.11963E+03 -7.28902E+03 -3.32136E+03
 -5.99937E+03 -2.63248E+03  1.66874E+03 -6.02323E+03 -5.22278E+02  7.66564E+02  2.50186E+03 -1.95942E+03
  1.47030E+03  6.47060E+03 -2.27130E+03  4.85380E+03 -3.90928E+03  2.04573E+03 -6.38143E+02  8.08788E+02
 -2.16154E+02 -5.52129E+03  3.13919E+03 -2.69045E+03  7.65056E+02 -4.55725E+01  4.12095E+03 -2.06315E+03
  6.52095E+02 -3.30091E+03 -2.39358E+02  1.99454E+02  1.25695E+03 -2.98053E+03  2.28854E+03 -2.01710E+03
 -9.06906E+01  7.11515E+02 -6.94967E+02  5.21615E+02  2.12491E+03  3.59520E+03 -2.19617E+03 -4.23802E+02
 -7.49583E+01  2.32194E+03 -3.09731E+03  5.32890E+02 -1.94294E+03  1.41236E+03 -5.33237E+03 -3.03882E+03
 -3.17334E+02 -1.46742E+03  1.09880E+03 -3.11089E+03  2.10970E+03  1.99206E+02  9.36968E+01  1.69485E+03
  4.22878E+01 -1.49524E+03 -9.80938E+02 -3.67805E+03 -2.12512E+03 -3.46400E+03  1.97463E+03 -8.21119E+02
  1.30317E+03  1.06454E+03  1.14957E+03  1.98027E+02  1.25299E+03 -7.88145E+02 -4.93136E+03  3.79365E+02
 -1.55826E+03  1.32907E+03 -4.11539E+03 -1.40286E+02  1.06430E+03  7.89450E+00  1.26385E+03 -1.13459E+03
 -3.62087E+03 -1.96450E+03  3.95793E+03  6.83730E+03  4.40571E+03 -2.77147E+02 -1.61569E+03  1.38668E+03
 -1.74970E+03  1.50034E+03 -1.81786E+03  2.59103E+03  1.55179E+03 -2.69130E+03  4.23651E+03 -1.16832E+03
  1.74647E+03  1.09169E+03  2.49774E+03  1.41301E+03  4.35106E+03  2.22525E+03  6.14123E+02  5.42304E+03
  1.07908E+02  4.34884E+03 -1.04450E+03 -7.56601E+02 -1.33778E+02  1.38351E+03  1.00016E+03  1.66238E+03
  8.06261E+02  4.15445E+03 -1.76840E+03 -1.83282E+02 -2.90614E+03  1.31347E+03 -1.20803E+03 -5.74478E+02
 -2.60358E+03 -3.56765E+03 -1.01813E+03 -3.82898E+03  1.43527E+03 -3.29672E+03  3.65303E+03 -2.33648E+03
 -6.53438E+02  2.34312E+03  1.18870E+03  7.73464E+02 -8.65632E+02 -3.03919E+02 -6.08019E+03  1.42629E+03
 -4.66717E+02 -3.55926E+02 -3.32382E+03 -2.40588E+03 -2.21283E+03  1.04952E+03 -4.10549E+03 -2.56239E+02
 -2.04122E+03  4.20616E+01 -6.76310E+02 -9.85005E+02 -8.54508E+02 -2.08095E+03 -2.60636E+03 -2.64183E+03
  6.19195E+02 -2.66009E+03  5.03467E+02  2.45101E+03  2.33489E+03 -2.64328E+03  1.48233E+03  5.78166E+03
 -2.20431E+03  3.30415E+03  9.38775E+02  1.04551E+03 -4.83841E+03 -8.99113E+02 -1.73339E+03 -2.71088E+03
 -6.25085E+03  1.87051E+02  1.18901E+03  1.75603E+03 -8.29301E+01  7.19556E+02  2.66751E+03  3.39388E+01
 -1.15963E+02 -5.53220E+02 -2.22205E+02  9.34588E+02 -7.43829E+02  4.19259E+03  1.88933E+03  1.31070E+03
 -1.03038E+03  2.19624E+03 -2.28768E+03  3.33572E+03 -1.83676E+03 -5.31630E+02  1.82220E+03 -8.36329E+02
 -3.11081E+02  1.44324E+03  4.30631E+03  8.83992E+02 -1.62748E+03  1.81495E+03 -3.26927E+02 -2.79825E+03
  4.87091E+03 -6.00137E+02 -1.19044E+03  4.93797E+02 -1.37918E+03  3.41490E+03 -5.04673E+02  1.80852E+03
  1.78470E+03 -3.52011E+03  2.80852E+03 -2.11797E+03  1.31414E+03  2.94364E+03 -5.65731E+03 -5.01071E+03
 -1.76116E+03 -5.75624E+03 -5.17825E+03 -2.58846E+03 -2.70372E+03  4.42921E+03 -4.71258E+03 -1.58582E+03
 -4.19415E+01  2.09301E+03  1.80025E+03 -1.93598E+03 -8.56045E+02  7.76112E+02 -2.03215E+03 -4.00541E+02
  2.52032E+03  1.93156E+03 -2.24475E+03  2.02913E+03  4.33865E+03  6.77967E+02 -2.76536E+02 -2.01552E+03
