 $NMID ID='MM_0lb_SNR50_7hz_g40_67.RAW', FMTDAT='(8E13.5)'
 TRAMP=1., VOLUME=1. $END
  3.15969E+05 -3.54651E+03  3.41835E+05  2.49458E+05  9.32362E+04  3.38855E+05 -1.33468E+05  2.55314E+05
 -1.91393E+05  8.01710E+04 -1.07854E+05 -3.03647E+04 -7.94978E+02 -5.72381E+04  5.25031E+04 -5.80242E+03
  3.70821E+04  5.12410E+04 -2.01229E+04  8.28662E+04 -6.25869E+04  5.91141E+04 -8.71870E+04  3.58127E+04
 -8.12177E+04 -1.14002E+04 -5.29668E+04 -5.23541E+04 -2.27105E+04 -7.24307E+04  2.99692E+04 -5.14205E+04
  3.77332E+04  1.08245E+04  1.73461E+04  5.02822E+04 -3.81723E+04  5.29677E+04 -7.14767E+04 -4.97110E+03
 -5.18218E+04 -5.77783E+04 -5.29765E+02 -8.70331E+04  2.88483E+04 -5.68348E+04  4.86614E+04 -1.77263E+04
  4.59475E+04  1.49489E+04  2.72813E+04  3.65933E+04  1.21162E+04  2.94649E+04 -1.10692E+04  3.66111E+04
 -2.53521E+04  5.79291E+03 -1.40912E+04 -6.82247E+03  9.63925E+03 -9.27395E+03  2.88981E+04  7.65081E+03
  6.16085E+03  3.76756E+04 -3.08992E+04  4.16605E+04 -7.52531E+04  3.39612E+03 -5.61631E+04 -5.04650E+04
 -1.80281E+04 -6.71359E+04  3.91901E+04 -4.72413E+04  6.77575E+04  2.85128E+03  4.40472E+04  4.11525E+04
 -7.68531E+03  3.99827E+04 -2.36451E+04  1.75696E+04 -3.28088E+04 -4.39188E+03 -2.33310E+04 -9.70581E+03
 -9.34726E+03 -1.82736E+04 -1.96511E+02 -2.34762E+04  8.01715E+03 -1.83640E+04  1.19418E+04 -8.25972E+03
  1.00478E+04  9.85024E+03 -1.37532E+04  7.64066E+03 -2.66599E+04 -8.70662E+03 -9.69617E+03 -3.92762E+04
  2.32426E+04 -4.32650E+04  5.44796E+04 -1.94503E+04  5.16376E+04  2.33376E+04  2.34058E+04  4.64381E+04
 -1.21982E+04  4.13419E+04 -2.64773E+04 -3.78031E+03 -1.03745E+04 -3.14042E+04  1.47300E+04 -3.83332E+04
  3.35159E+04 -1.20380E+04  4.25398E+04  2.46958E+04  2.72521E+04  4.55663E+04 -8.55767E+03  4.72920E+04
 -3.63874E+04  4.39739E+04 -4.55339E+04  9.73895E+03 -4.34222E+04 -1.52235E+04 -2.40876E+04 -3.65810E+04
  1.16932E+04 -4.12973E+04  3.28377E+04 -1.53672E+04  2.90217E+04  1.69418E+04  6.19840E+03  2.26913E+04
 -1.21622E+04  3.13402E+03 -1.63885E+04 -1.46910E+03  1.42842E+04 -1.30459E+04  2.01776E+04  7.31247E+03
  9.68504E+03  2.47021E+04  2.01418E+03  2.53637E+04 -1.89094E+04  1.37527E+04 -3.46094E+04 -6.03106E+03
 -2.96526E+04 -2.06032E+04 -8.63157E+03 -2.94020E+04  1.92836E+03 -2.92983E+04  1.88108E+04 -2.15211E+04
  3.29042E+04 -1.32843E+04  4.09055E+04  7.51868E+03  2.64305E+04  1.59298E+04  7.47005E+03  4.68983E+04
 -1.80153E+04  3.38086E+04 -3.07008E+04  1.40167E+04 -2.27159E+04 -1.67852E+04 -1.40047E+04 -1.16686E+04
 -2.63106E+03 -6.38395E+03 -8.26554E+03  1.34358E+04 -2.19294E+04  2.39330E+03 -1.93717E+04 -1.01428E+04
 -1.00043E+04 -2.51878E+04  9.63168E+03 -3.18815E+04  1.54495E+04 -2.32628E+04  1.70129E+04 -5.85862E+03
  1.66307E+04  1.93578E+04 -1.44410E+02  2.07002E+04 -1.51318E+04  7.80076E+03 -3.22759E+04 -2.18529E+03
 -1.60577E+04 -2.08515E+04  2.89844E+03 -2.61203E+04  1.00358E+04 -2.25238E+04  2.52859E+04 -1.46643E+04
  2.41975E+04  6.26401E+02  1.31739E+04  1.48664E+03  4.58136E+03  2.79265E+02  1.72804E+04 -6.47639E+03
  2.23397E+04  5.62404E+03  2.92325E+04  1.75675E+04  2.01004E+04  3.76224E+04  2.30166E+03  5.13279E+04
 -2.07663E+04  4.16228E+04 -4.29290E+04  1.92599E+04 -5.40319E+04 -6.98584E+03 -4.03217E+04 -2.12597E+04
 -1.76039E+04 -4.15253E+04  1.91858E+04 -3.88091E+04  2.94978E+04 -1.54670E+04  2.70909E+04  7.81241E+03
  5.83020E+03  2.35352E+04 -1.31715E+04  2.28505E+04 -1.63555E+04 -2.79291E+03 -1.83443E+04 -1.72844E+04
  3.39987E+03 -2.25904E+04  5.67658E+03 -1.15393E+04  1.42143E+04 -1.69991E+03  3.21609E+03  1.39361E+04
 -1.45127E+04  1.29009E+04 -5.36902E+03 -1.97137E+03  2.91683E+02 -2.00618E+04  9.88155E+03 -1.67649E+04
  2.81806E+04 -9.93027E+03  3.20191E+04 -1.24008E+03  2.85453E+04  1.56217E+04  1.49155E+04  2.60306E+04
 -8.02674E+03  3.34355E+04 -2.60476E+04  2.39945E+04 -3.23415E+04  2.43995E+03 -2.22977E+04 -8.72460E+03
 -9.88360E+01 -9.10974E+03 -8.34877E+02 -3.41696E+02 -7.51826E+03  6.08083E+03 -4.57821E+03  6.17214E+03
 -1.66736E+04 -6.66872E+03 -2.30026E+04 -1.09047E+04 -7.44541E+03 -2.81460E+04  9.31740E+03 -1.65576E+04
  2.07806E+04 -4.56186E+03  1.18562E+04 -1.74314E+02 -4.93705E+03  1.21091E+04 -9.49190E+03  4.30012E+03
 -1.35680E+04 -6.15851E+03  3.61700E+03 -1.96859E+04  1.35906E+04 -1.73615E+04  2.37887E+04 -8.98288E+03
  2.90442E+04  6.42793E+03  2.15990E+04  1.64143E+04  5.28212E+03  1.91354E+04 -1.55436E+04  1.70456E+04
 -1.66921E+04  2.34563E+03 -7.72760E+03  4.19208E+03  3.28626E+03 -5.67662E+03  9.30700E+03  5.20884E+01
  1.52640E+04  8.35645E+03  1.88180E+03  1.01056E+04 -1.59438E+04  1.75097E+04 -1.25777E+04 -4.40789E+02
 -2.01495E+04 -9.74784E+03  4.56460E+03 -1.40131E+04  1.15220E+03 -4.35781E+03  9.57340E+03  4.82609E+03
  5.34312E+03  1.70172E+04 -1.09062E+04  1.36929E+04 -7.83663E+03  1.01434E+04 -1.88647E+04 -3.53699E+03
 -9.94671E+03 -1.70702E+04 -2.96811E+03 -1.73089E+04  2.45229E+04 -8.24162E+03  1.19989E+04 -7.05215E+02
  1.31709E+04  1.01386E+04 -5.14419E+03  2.30468E+04 -1.48730E+04  8.27285E+03 -1.71511E+04 -4.98038E+03
 -1.42096E+04 -2.31183E+04 -7.68969E+03 -1.22117E+04  9.44339E+03 -1.31273E+04  7.25350E+03 -5.63670E+03
  8.51091E+03 -9.93524E+01 -1.84165E+03  7.87124E+03 -2.45518E+03 -2.17353E+03  1.75342E+03 -9.22179E+03
  1.45671E+04 -4.78722E+03  1.68284E+04  4.57984E+03  1.79644E+04  7.74080E+03  7.45668E+03  1.81377E+04
 -7.50597E+03  2.74076E+04 -2.23778E+04  1.45636E+04 -2.96908E+04  5.18320E+03 -2.45141E+04 -1.36806E+04
 -1.46015E+04 -2.56019E+04  1.52853E+03 -1.45658E+04 -3.92975E+02 -8.81996E+03  4.66469E+03 -6.78277E+03
  9.03608E+03 -5.70658E+03  6.71230E+03 -9.51806E+03  1.07437E+04 -5.73001E+02  1.46650E+04 -1.28246E+03
  8.92031E+03  2.44806E+03  6.82390E+03  5.33669E+03  2.60301E+03  1.71682E+04 -1.81144E+04  9.33192E+03
 -2.25216E+04 -1.11297E+04 -1.66223E+04 -8.81834E+03 -8.08688E+02 -1.87507E+04  2.95485E+03 -1.98002E+04
  2.12960E+04 -1.24005E+04  3.06138E+04  3.05485E+03  2.05821E+04  1.61330E+04  3.89240E+02  1.22008E+04
 -7.39365E+03  1.68596E+04 -1.63548E+04  3.54762E+03 -8.13776E+03 -1.11914E+03 -7.15635E+03 -4.70112E+03
 -2.53082E+03 -7.59956E+02  4.50561E+03  9.33728E+03 -4.26269E+03 -3.48377E+03 -1.33501E+04 -9.46515E+03
 -5.98926E+03 -1.50737E+04  3.65287E+03 -1.98943E+04  1.48224E+04 -1.43126E+04  1.76868E+04  1.48818E+03
  1.19264E+04  1.07511E+04  4.26053E+03  1.64384E+04 -3.81483E+03  1.63809E+04 -1.25081E+04  6.23110E+03
 -1.56848E+04  3.22490E+03 -1.08411E+04 -4.16298E+03 -3.87347E+03 -8.80794E+03  5.22514E+03 -1.30997E+04
  1.01459E+04 -9.60218E+03  6.21872E+03 -9.28100E+02  8.91675E+02 -1.23511E+03  3.69937E+03  1.88009E+03
 -7.16328E+03 -2.87049E+02  2.79391E+03  4.18074E+03  5.00885E+03  5.55314E+03  9.67628E+03  8.00612E+03
  4.16435E+03  1.82124E+04 -1.23299E+04  2.07210E+04 -1.91610E+04  4.88480E+03 -2.39098E+04 -7.33723E+03
 -1.64658E+04 -1.36888E+04  1.79384E+03 -2.16151E+04  4.43024E+03 -1.61106E+04  1.21208E+04 -4.10703E+03
  6.35538E+03 -1.42200E+03  3.00099E+03  1.46784E+04 -8.33705E+03  2.20692E+03 -7.27621E+02 -5.03143E+03
 -2.51688E+03 -6.52912E+03  8.37334E+02 -6.20175E+03  1.12079E+04  1.01021E+03  9.37795E+03  6.24074E+02
  5.81264E+03  3.20998E+03  1.07031E+04  5.61593E+02 -1.92489E+03 -5.54841E+02 -3.90645E+03  1.74572E+03
  1.36452E+03  8.01686E+02  8.09760E+03  9.29973E+03  1.92346E+03  9.51952E+03 -2.95375E+03  1.56539E+04
 -1.71289E+04  8.66212E+03 -1.75958E+04  2.18723E+03 -1.02852E+04 -2.18882E+03 -5.74793E+03 -1.06417E+04
 -4.50102E+03 -9.05640E+03  9.22162E+03 -2.89314E+03  1.62671E+03  5.05723E+03  1.72099E+03  2.80669E+03
 -8.67133E+03  5.99416E+03 -9.25491E+03 -3.98994E+03 -5.88528E+03 -5.06318E+03 -5.96994E+03 -1.11551E+04
  1.35207E+04 -6.25559E+03  7.01704E+03 -3.36729E+03  6.83260E+03  1.34139E+02  3.63376E+03  8.83763E+03
 -3.68081E+01  1.42044E+03  2.07349E+03 -4.47379E+03 -9.24761E+02 -1.28373E+04  1.30044E+04 -1.13414E+04
  2.18833E+04  3.71228E+03  1.33989E+04  1.32176E+04  3.59792E+03  1.46184E+04 -7.79671E+03  1.98654E+04
 -9.09620E+03  6.21481E+03 -1.58119E+04 -7.95488E+03 -7.60676E+03 -8.26612E+03 -2.81920E+03 -1.14553E+04
  9.24799E+03 -3.75737E+03  9.98489E+03  7.00761E+03 -3.55621E+03  1.28117E+04 -5.34621E+03  6.96654E+03
  4.18829E+03  5.86045E+02 -3.53398E+03  3.21109E+03 -3.30203E+03  1.11752E+03  7.68964E+03  1.36027E+03
 -1.38841E+03  5.76488E+03 -1.06835E+04 -1.60650E+03 -2.19162E+04  3.91827E+03 -1.72964E+04 -1.05874E+04
 -3.85893E+03 -1.88839E+04  3.27529E+03 -1.92363E+04  1.55689E+04 -1.60592E+04  1.58164E+04 -9.17486E+03
  1.29720E+04  5.02883E+03  1.42130E+04  7.69874E+03 -4.97080E+03  2.26056E+04  1.06071E+03  1.24151E+04
  4.55825E+03  6.87110E+03 -6.90058E+03 -6.32889E+03  4.49508E+02 -6.47383E+01  5.76360E+02  3.69027E+02
 -8.29244E+03  8.36153E+02 -6.16277E+03  7.00604E+02 -4.14554E+03 -6.81360E+03  2.34264E+02 -6.89722E+03
 -1.91290E+03 -2.27909E+02  9.98976E+03 -1.06044E+03  1.02532E+04  1.13733E+04  9.17363E+03  1.59274E+04
 -6.54497E+03  1.23733E+04 -1.02969E+04  1.01582E+04 -1.25306E+04  2.44618E+03 -1.84368E+04 -8.92211E+03
 -1.56596E+04 -1.53793E+04  7.31108E+03 -1.23607E+04  6.67958E+03 -7.28545E+03  4.16875E+03  3.49371E+03
  8.78826E+03  2.37387E+03  4.10594E+03  1.39293E+03 -2.16257E+03 -1.62236E+03 -1.15321E+04 -5.01055E+02
  1.28586E+04  3.03437E+03  6.91786E+03 -3.39716E+02  1.23498E+03  5.32059E+03 -5.23978E+03  9.71335E+03
 -1.02684E+04  1.09007E+04 -8.26606E+03  3.34599E+03 -4.81515E+03 -5.02945E+03 -3.05908E+03 -1.72952E+04
  5.20506E+02 -1.01787E+04  4.49473E+03 -6.11139E+03  1.13766E+04  6.63532E+03  8.04055E+03  6.03990E+03
  5.84565E+03  1.17675E+04 -2.46962E+03  7.99167E+03 -1.70028E+03 -1.57474E+02 -6.87298E+03 -3.95011E+03
 -8.97305E+03  3.32402E+03  4.24609E+03  5.48167E+03 -6.62837E+03 -5.69487E+03 -8.69637E+03 -2.51525E+02
  2.51100E+03 -4.09725E+03  2.14606E+03 -1.58244E+04 -8.93531E+02 -7.04071E+02  1.11390E+04 -6.72704E+03
  6.67101E+03 -3.38537E+03  1.55086E+04  5.64974E+03 -1.19907E+03  1.26879E+04 -6.96785E+03  7.02191E+03
