 $NMID ID='MM_0lb_SNR50_15hz_g55_93.RAW', FMTDAT='(8E13.5)'
 TRAMP=1., VOLUME=1. $END
  3.08550E+05 -2.98577E+03  3.37985E+05  2.50527E+05  8.15834E+04  3.36801E+05 -1.26266E+05  2.47800E+05
 -1.91081E+05  8.38787E+04 -1.11628E+05 -2.84665E+04  7.59052E+03 -4.67485E+04  5.33897E+04 -1.58118E+03
  3.36557E+04  5.22409E+04 -1.60420E+04  7.30641E+04 -6.57881E+04  6.32946E+04 -8.69162E+04  3.42996E+04
 -7.93345E+04 -8.11244E+03 -5.71194E+04 -4.84615E+04 -1.80382E+04 -6.82057E+04  2.30026E+04 -4.50042E+04
  3.94392E+04  4.81428E+03  1.24762E+04  4.40349E+04 -3.68350E+04  4.63992E+04 -6.09671E+04 -1.39383E+03
 -5.39573E+04 -5.64735E+04 -6.22635E+03 -7.97618E+04  3.13106E+04 -5.53368E+04  4.71335E+04 -2.10942E+04
  4.70731E+04  1.33487E+04  3.28004E+04  2.70414E+04  1.69780E+04  3.06229E+04 -1.46843E+04  2.72702E+04
 -2.26943E+04  1.10437E+04 -2.20163E+04 -3.39492E+03  6.11956E+03 -6.42665E+03  2.46690E+04  1.73550E+04
  5.33386E+03  3.55699E+04 -3.30636E+04  3.63376E+04 -6.25383E+04  3.46206E+03 -5.58486E+04 -4.41875E+04
 -1.04251E+04 -6.62065E+04  3.96432E+04 -4.39988E+04  5.71043E+04 -1.74042E+03  3.69630E+04  3.41379E+04
 -2.42858E+03  3.45424E+04 -2.80453E+04  1.71632E+04 -3.23699E+04 -5.05799E+03 -1.48394E+04 -8.28611E+03
 -9.39682E+03 -1.14434E+04 -1.69202E+01 -1.41967E+04  8.71282E+03 -1.99143E+04  1.76571E+04 -8.06895E+03
  1.25593E+04  8.39327E+03 -4.25236E+03  1.23376E+04 -2.43386E+04 -3.41732E+03 -7.12032E+03 -3.19496E+04
  2.64151E+04 -4.01644E+04  5.24587E+04 -1.87930E+04  4.21703E+04  1.94559E+04  1.71572E+04  4.61527E+04
 -1.95109E+04  3.48487E+04 -2.89955E+04  4.87204E+03 -1.10388E+04 -2.57506E+04  2.54366E+04 -3.48142E+04
  4.28620E+04 -6.23379E+03  3.69587E+04  2.59312E+04  1.77592E+04  4.58873E+04 -3.21233E+03  5.13474E+04
 -2.90566E+04  3.37162E+04 -4.24272E+04  1.08954E+04 -4.21305E+04 -1.49351E+04 -2.39704E+04 -3.81315E+04
  6.85176E+03 -3.41712E+04  2.95340E+04 -1.65463E+04  2.88074E+04  1.29932E+04  1.79282E+03  1.94113E+04
 -1.27533E+04  1.06652E+04 -1.26230E+04 -9.97843E+03  1.20365E+04 -1.29050E+04  1.29470E+04  9.14634E+03
  1.32529E+04  2.51517E+04 -9.17220E+03  2.74793E+04 -2.39918E+04  1.34393E+04 -3.13436E+04 -5.70652E+03
 -1.73907E+04 -1.30815E+04 -9.30686E+03 -1.91328E+04  4.48379E+03 -2.13477E+04  1.80510E+04 -1.44648E+04
  2.55612E+04 -1.53437E+04  3.45138E+04  8.93958E+02  2.48918E+04  2.23310E+04  7.47327E+03  3.62347E+04
 -1.76879E+04  3.26230E+04 -2.55173E+04  1.04869E+04 -2.11560E+04 -4.81548E+03 -3.81005E+03 -7.50341E+03
  7.14048E+02 -2.97764E+03 -3.01546E+03  7.53455E+03 -1.43611E+04  9.01008E+02 -1.82153E+04 -3.31547E+03
 -1.34008E+04 -1.96915E+04  6.47610E+03 -2.62041E+04  1.23491E+04 -1.60238E+04  1.52882E+04 -2.13438E+03
  9.07505E+03  1.41514E+04  5.06105E+02  2.02360E+04 -1.41182E+04  1.21672E+04 -2.36106E+04 -3.54304E+03
 -1.32224E+04 -1.33743E+04 -4.32880E+03 -2.18237E+04  1.48617E+04 -1.48863E+04  1.44117E+04 -9.80066E+03
  1.85569E+04 -7.28096E+02  1.09999E+04  3.86346E+03  1.15600E+04  5.30586E+03  1.05006E+04 -5.81770E+02
  1.73452E+04  6.61294E+03  1.70066E+04  1.67867E+04  9.88871E+03  3.24462E+04 -2.92734E+03  3.14032E+04
 -1.91403E+04  2.13623E+04 -3.83317E+04  1.17583E+04 -3.29070E+04 -1.47946E+03 -3.13768E+04 -2.20968E+04
 -1.23248E+04 -2.52937E+04  1.39885E+04 -2.60008E+04  2.20213E+04 -1.73722E+04  1.37290E+04  1.88890E+03
  1.08680E+04  1.52047E+04 -8.93447E+03  1.20426E+04 -2.05006E+04 -2.36459E+03 -1.44904E+04 -8.46829E+03
 -1.54553E+03 -1.42934E+04  6.00160E+03 -1.72812E+04  6.67144E+03 -1.55922E+02  4.71013E+03  6.06674E+03
 -1.19228E+04  1.79334E+03 -9.37673E+02 -9.35650E+03  2.73627E+03 -1.09481E+04  4.89262E+03 -1.70333E+04
  1.68330E+04 -5.05363E+03  1.64138E+04  2.44374E+03  7.20696E+03  1.15620E+04  1.19980E+04  1.97577E+04
 -2.25971E+03  2.41793E+04 -1.48008E+04  1.68852E+04 -1.69701E+04  1.21264E+03 -1.33034E+04  2.66122E+02
 -6.41171E+03 -2.07549E+03  1.10493E+03 -4.33426E+03 -5.24242E+03 -8.27274E+02 -4.04987E+03  2.18307E+03
 -8.54229E+03  2.83117E+01 -9.58903E+03 -1.09288E+04 -1.08266E+03 -1.24466E+04  1.94371E+03 -1.35640E+04
  9.40942E+03 -4.70595E+03  9.03330E+03  3.75002E+03 -1.30507E+03 -2.50779E+03 -2.47630E+03  1.62767E+03
 -6.94608E+03 -5.98494E+03 -2.83376E+03 -1.61245E+04  7.25057E+03 -9.88374E+03  1.56946E+04 -7.70864E+03
  1.28151E+04 -4.01870E+02  1.05315E+04  8.63454E+03  1.75012E+03  8.15186E+03 -5.99855E+03  1.20801E+04
 -1.03013E+04  6.60289E+03 -3.92076E+03 -4.70092E+03  1.22239E+03  1.03317E+03  3.58738E+03  3.17602E+02
  8.00866E+03  3.13317E+03  1.15104E+03  9.52728E+03 -6.20636E+03  7.91201E+03 -1.64009E+04 -1.21285E+03
 -4.39785E+03 -5.22668E+03  1.15563E+03 -9.22386E+03  8.92487E+02 -4.38830E+03  3.72245E+03  3.43010E+03
  1.99303E+03  3.71323E+03 -4.69962E+03  7.24332E+03 -2.30550E+03  1.51163E+02 -6.35109E+03 -7.34242E+02
 -5.74554E+03 -9.16061E+03  2.53253E+03 -6.86972E+03  1.06231E+04 -1.22989E+04  1.25598E+04  2.51133E+03
  4.35533E+03  1.07194E+04 -1.46070E+03  6.49115E+03 -4.93258E+03  3.95892E+03 -5.60072E+03 -2.89045E+03
 -7.46765E+03 -5.61562E+03 -1.20828E+03 -9.21435E+03  2.52688E+03 -3.90226E+03  7.61727E+03 -6.15244E+03
  9.33829E+03 -1.77339E+03 -1.97166E+03  2.39835E+03  9.78426E+02  9.56228E+02  4.59591E+03 -3.70279E+03
  4.85601E+03 -8.15670E+03  5.52553E+03  2.05868E+03  9.36311E+03  4.18254E+03  9.63339E+03  1.67517E+04
 -5.40171E+03  1.34020E+04 -1.17396E+04  9.00954E+03 -1.83097E+04  6.29379E+02 -1.39693E+04 -7.09914E+03
 -7.89326E+03 -1.11829E+04 -1.65013E+03 -8.93117E+03  1.84476E+03 -4.38000E+03  4.71867E+03 -2.04408E+03
  3.91538E+03 -3.73894E+03 -1.73677E+02 -4.27209E+03  7.28650E+03 -5.77386E+03  6.41446E+03 -1.27760E+03
  4.38470E+03  1.73361E+03  2.19828E+03  8.17129E+03 -4.69964E+03  4.55040E+03 -4.87184E+03  4.24489E+03
 -9.79347E+03 -4.25904E+03 -7.24317E+03 -9.50031E+03 -1.57298E+03 -1.09696E+04  6.40674E+03 -9.01739E+03
  7.92911E+03 -2.22973E+02  6.14997E+03 -1.63176E+03  6.12774E+03  3.78512E+03 -1.66644E+03  9.41605E+03
 -5.16701E+03  1.39765E+04 -1.55999E+03  1.69569E+03 -3.78756E+03 -1.20939E+03  9.81026E+02  2.16588E+03
 -3.98006E+03  5.19216E+03 -2.28083E+03 -5.94334E+02 -6.64704E+03  2.43457E+03 -6.34488E+03 -4.97135E+02
 -2.70124E+03 -4.95278E+03  6.33369E+02 -9.40846E+03  3.16979E+03 -7.69824E+03  8.21459E+03  6.06664E+02
  9.51059E+03  4.40861E+03  2.39860E+03  4.22943E+03  2.47169E+03  8.17226E+03 -9.53762E+03  6.19132E+03
 -1.23748E+04 -7.50711E+02 -6.19120E+03 -2.63153E+03 -3.09214E+03 -5.77807E+03  1.91952E+03 -4.77941E+03
  4.12292E+03  4.25831E+03  6.81181E+03  2.37145E+03 -2.38876E+03  4.60952E+03 -5.41667E+03  3.78934E+02
  3.81521E+02  2.02758E+03  5.40426E+03 -4.09751E+00  4.23890E+03  9.94902E+03  1.90035E+03  5.75729E+03
 -1.83565E+03  9.60995E+03 -3.99953E+03  8.48910E+03 -2.13808E+03  5.27340E+02 -4.75823E+03  3.44571E+02
 -4.15336E+03 -4.38529E+03  5.36834E+03 -9.37287E+03  2.97405E+03 -2.07560E+03  3.97188E+03 -2.27488E+03
  1.70268E+03  2.09544E+03 -5.90521E+02  4.82201E+03 -3.01932E+03  1.80787E+02 -4.42829E+03 -4.14697E+03
 -3.12852E+03 -2.17791E+03 -2.50158E+03 -1.15279E+04  3.84421E+03 -5.46511E+01  3.58462E+03  1.05873E+02
  8.35183E+03 -7.48511E+03  7.67935E+02  4.34477E+03 -1.05787E+03  5.26120E+03  4.91156E+03  2.93078E+02
 -3.24458E+03 -5.67850E+03  4.61734E+03 -3.92811E+02  2.06870E+02  2.84464E+03 -1.89231E+03  6.67654E+03
 -3.27572E+02  4.85725E+03 -4.55558E+03  1.46731E+03 -5.40558E+03 -7.54158E+02 -7.21017E+02 -4.79386E+03
  2.49267E+03  2.37435E+02  4.30872E+03 -3.75978E+03  8.24597E+02 -2.06899E+03  2.60023E+03  2.11045E+03
 -1.89712E+03  3.55436E+03 -2.39298E+03  2.35105E+02 -5.21471E+03 -3.52341E+03  2.85829E+03 -5.57364E+03
 -1.00852E+03 -7.49081E+03  5.27336E+03 -6.34643E+02  1.29959E+03 -2.09925E+03 -2.53457E+03  5.29895E+02
  1.73639E+03 -3.56995E+02 -1.41881E+03 -4.83420E+02 -7.42367E+01  2.03116E+03  3.52881E+03 -1.62153E+03
  4.76457E+03 -2.01724E+03  6.34062E+03 -3.34174E+03  2.64005E+03  5.11982E+03  1.07950E+03  8.04316E+03
 -1.92667E+03  6.89420E+02 -1.32320E+03 -2.90752E+03 -4.58279E+03 -3.60283E+02  2.46309E+03  5.05561E+02
 -2.50957E+03  4.72524E+03  5.44989E+03 -2.10704E+03  2.87216E+03  5.89937E+03 -6.47718E+03  2.29894E+03
 -4.11840E+03  1.54413E+03 -2.73343E+02  1.48328E+03  3.09217E+03  1.41000E+03 -5.92991E+02  5.39195E+02
 -6.01118E+03  1.04537E+03 -4.34832E+03  5.51305E+03 -5.67652E+03 -3.18147E+03 -2.92445E+03 -1.15743E+03
 -2.25669E+03 -6.06643E+03  1.70474E+03 -6.70867E+03  3.73418E+03 -2.62605E+03  8.10291E+03  4.32954E+03
  2.02625E+03 -1.48693E+03  5.38912E+03  5.20469E+02 -1.03790E+03  8.28774E+03 -6.20370E+02  5.24541E+02
 -1.32497E+03  9.49099E+02 -8.64268E+02  8.06867E+02 -2.54432E+03  1.70018E+03 -4.98499E+03  1.87903E+03
 -3.72514E+02 -8.25250E+02 -4.48672E+03  4.65028E+03 -2.63143E+01  3.72484E+03 -1.17642E+03 -3.51871E+03
  3.05623E+03 -3.94333E+03  1.75577E+03 -1.11737E+03  2.66135E+03  4.96679E+03  3.25628E+03  3.17776E+03
 -1.24366E+03  2.62780E+03  6.98324E+02  1.12053E+02 -2.31664E+03  4.43425E+03  1.36010E+03  1.71156E+03
  3.14794E+02 -4.00886E+03 -5.25413E+03 -2.47773E+03 -3.59805E+03  2.72773E+03  7.51296E+01  1.61696E+03
  9.41277E+02  2.76730E+01  9.94537E+01  7.39013E+03 -7.04585E+03 -2.63134E+03  3.63625E+03 -1.04526E+03
  2.93870E+03  4.12357E+03 -1.74765E+02 -1.12071E+03 -3.71501E+03 -1.14875E+03  6.78429E+03  2.52803E+03
 -3.54157E+03 -1.75779E+03  1.52008E+03 -2.47949E+03  1.54307E+03 -3.39459E+00  2.06737E+03  1.44109E+03
  4.11064E+02 -6.48908E+03  2.30161E+03 -1.77068E+03  4.79853E+03 -3.36954E+03 -1.10848E+03  5.40699E+03
 -2.31030E+03  2.50421E+03 -1.98504E+03  4.90158E+03  4.37176E+02  2.22536E+03 -1.65425E+03 -2.08836E+03
  1.79952E+03 -5.70966E+02 -2.04122E+03 -1.51833E+03 -6.82985E+02  1.56779E+03  1.13885E+03 -6.51757E+00
 -5.58504E+03  1.82054E+03 -7.58811E+03 -3.38571E+03  4.97785E+03 -5.47553E+03  7.33408E+03  4.87213E+01
  1.27619E+03  2.89853E+03 -2.32393E+02  2.72998E+03  2.50470E+03  1.72994E+03 -1.95157E+02  2.44819E+03
