 $NMID ID='MM_0lb_SNR50_8hz_g50_34.RAW', FMTDAT='(8E13.5)'
 TRAMP=1., VOLUME=1. $END
  3.12461E+05 -4.05089E+01  3.37686E+05  2.50912E+05  8.45888E+04  3.41451E+05 -1.32093E+05  2.52485E+05
 -1.92491E+05  7.89402E+04 -1.08017E+05 -3.64633E+04  5.15639E+03 -5.03509E+04  5.59223E+04  3.12903E+02
  2.83554E+04  5.36345E+04 -1.10634E+04  7.42194E+04 -6.10856E+04  6.24135E+04 -8.72477E+04  2.94188E+04
 -8.83699E+04 -1.35519E+04 -6.08648E+04 -5.62462E+04 -1.63965E+04 -6.12350E+04  3.42356E+04 -4.85015E+04
  4.38602E+04 -9.83186E+02  7.31278E+03  5.00658E+04 -3.50828E+04  4.85320E+04 -6.48346E+04  5.93139E+03
 -5.74407E+04 -6.00327E+04 -7.12276E+03 -7.37767E+04  2.90701E+04 -4.95987E+04  4.94159E+04 -1.70954E+04
  3.98977E+04  1.06306E+04  3.39857E+04  2.88709E+04  1.16408E+04  2.66246E+04 -3.70997E+03  3.14415E+04
 -2.69059E+04  1.16130E+04 -1.59793E+04 -6.26321E+03  6.31089E+03 -1.28436E+04  2.37965E+04  2.10450E+04
  1.68039E+03  3.97493E+04 -3.82545E+04  4.27722E+04 -6.64289E+04 -9.61856E+02 -5.44169E+04 -4.09245E+04
 -1.29045E+04 -6.37373E+04  4.86503E+04 -4.60814E+04  6.29854E+04 -6.83171E+03  4.16986E+04  3.72161E+04
 -6.56414E+03  4.39413E+04 -3.43964E+04  1.72868E+04 -3.71467E+04  3.20445E+02 -1.99807E+04 -1.57303E+04
 -1.22832E+04 -1.09734E+04  3.97211E+03 -1.64512E+04  8.76411E+03 -2.56022E+04  1.24374E+04 -1.24879E+04
  1.43373E+04  4.69904E+03 -1.40875E+04  1.17898E+04 -2.19441E+04 -1.17248E+04 -8.26390E+03 -4.02103E+04
  2.81395E+04 -4.50350E+04  6.06829E+04 -2.24481E+04  5.17848E+04  1.79062E+04  1.85038E+04  4.78846E+04
 -6.84247E+03  3.83426E+04 -2.86948E+04  9.21834E+03 -1.45714E+04 -2.74087E+04  2.21759E+04 -3.30254E+04
  4.31528E+04 -8.59997E+03  5.02615E+04  2.06157E+04  2.52579E+04  5.17409E+04 -5.65234E+03  5.73750E+04
 -3.92658E+04  4.15023E+04 -4.95633E+04  8.73321E+03 -4.86151E+04 -2.29659E+04 -2.69837E+04 -3.91463E+04
  7.25897E+03 -3.91196E+04  3.37340E+04 -2.28201E+04  2.30340E+04  1.41102E+04  7.13849E+03  2.44950E+04
 -1.13668E+04  1.73371E+04 -6.83234E+03 -1.64515E+04  1.00830E+04 -1.11682E+04  2.06528E+04  1.37024E+03
  8.05957E+03  2.51327E+04 -8.78888E+03  1.67344E+04 -2.01539E+04  1.25710E+04 -3.12524E+04 -4.74484E+03
 -3.05170E+04 -1.93111E+04 -1.43300E+04 -3.18452E+04  9.25365E+03 -2.79034E+04  2.76930E+04 -1.97135E+04
  3.13281E+04 -1.60035E+04  3.92200E+04  7.14015E+03  3.52700E+04  2.56006E+04  4.83113E+03  4.64103E+04
 -2.40666E+04  3.55863E+04 -3.05071E+04  1.37391E+04 -2.41450E+04 -1.69254E+04 -1.16289E+04 -1.27331E+04
 -4.89722E+03  1.27232E+01 -8.88944E+03  7.22555E+03 -2.33603E+04  2.74543E+03 -2.65707E+04 -1.35480E+04
 -1.70903E+04 -2.03043E+04  8.25278E+03 -2.15576E+04  1.79643E+04 -1.65113E+04  2.98920E+04 -1.18090E+03
  1.14643E+04  1.56785E+04 -1.41794E+02  2.37113E+04 -1.66593E+04  9.87132E+03 -3.14268E+04 -1.16882E+04
 -2.03967E+04 -2.13384E+04 -4.14660E+03 -2.46261E+04  1.40454E+04 -2.71097E+04  2.32930E+04 -2.22244E+04
  2.27576E+04  3.58700E+03  1.38319E+04  5.65566E+03  1.07161E+04  5.15422E+03  1.48039E+04 -1.91492E+03
  2.31621E+04  7.54620E+03  2.24992E+04  2.05228E+04  1.94491E+04  4.11776E+04 -2.75880E+03  4.58349E+04
 -2.72460E+04  3.70274E+04 -3.89918E+04  2.17782E+04 -4.11357E+04 -5.45959E+03 -3.31730E+04 -2.87239E+04
 -1.07866E+04 -4.26995E+04  1.15116E+04 -3.50919E+04  3.42348E+04 -1.13260E+04  2.50021E+04  8.46748E+03
  7.91557E+03  1.57795E+04 -9.49017E+03  1.31857E+04 -2.60113E+04 -6.76084E+02 -1.92022E+04 -1.31059E+04
  7.41613E+03 -2.08853E+04  8.16615E+03 -1.55555E+04  1.71361E+04 -7.18416E+03 -2.47381E+03  8.60019E+03
 -1.32946E+04  6.33763E+03 -8.10312E+03 -3.45650E+03 -3.10385E+03 -1.75772E+04  1.11972E+04 -1.91137E+04
  2.09885E+04 -7.93345E+03  3.30740E+04  4.26490E+02  2.58833E+04  2.61696E+04  1.39960E+04  2.81995E+04
 -4.26987E+03  3.49473E+04 -2.55347E+04  1.98527E+04 -2.73409E+04  6.33421E+03 -1.63935E+04 -5.82697E+03
 -4.90921E+03 -1.64339E+03 -5.85986E+03  1.55849E+02 -5.71921E+03  5.89623E+03 -9.52780E+03  1.21950E+04
 -6.95414E+03 -2.43894E+03 -1.42314E+04 -9.53981E+03 -5.54407E+03 -2.21913E+04  1.03264E+04 -2.08580E+04
  1.31005E+04 -2.89429E+02  6.15053E+03  4.33740E+02 -5.26682E+03  4.33685E+03 -8.66100E+03  6.92816E+02
 -1.03156E+04 -1.14950E+04  8.51925E+03 -1.06555E+04  5.43532E+03 -2.66334E+04  2.19592E+04 -1.45329E+04
  2.32830E+04 -9.39318E+02  2.28100E+04  9.71667E+03  5.60576E+03  2.15372E+04 -1.26804E+04  1.13117E+04
 -1.66577E+04  4.15435E+03 -7.83572E+03 -5.05595E+03  2.35710E+03 -7.04096E+03  1.17613E+04  6.92333E+03
  9.76152E+03  1.02511E+04 -7.78179E+02  1.66723E+04 -1.24824E+04  1.53945E+04 -2.44139E+04  2.81904E+03
 -1.78675E+04 -6.96746E+03 -2.29653E+03 -1.00668E+04  1.73667E+04  6.18167E+02  1.07743E+04  8.37071E+03
  5.53543E+03  1.31964E+04 -1.17623E+04  9.53431E+03 -1.33818E+04  6.91960E+03 -7.21537E+03 -3.95417E+03
 -6.14536E+03 -1.14495E+04 -1.45084E+02 -2.60560E+04  1.87397E+04 -1.69086E+04  2.35519E+04  4.91874E+03
  6.96120E+03  1.82739E+04  7.20273E+02  1.11144E+04 -1.55173E+04  1.10939E+04 -1.43981E+04  4.08252E+02
 -5.57569E+03 -9.98486E+03 -5.64419E+03 -1.62364E+04  3.91858E+03 -1.94714E+04  1.20633E+04 -2.96356E+03
  1.71528E+03  2.75698E+03  4.54601E+00  1.18996E+03 -5.32822E+03 -4.52771E+03  2.78572E+03 -5.29579E+03
  1.33043E+04  1.22233E+02  2.25356E+04  5.65929E+03  1.40428E+04  1.03185E+04  9.79080E+03  2.07777E+04
 -1.15471E+04  3.04827E+04 -2.00539E+04  1.96489E+04 -2.61312E+04  5.94975E+03 -2.87708E+04 -1.90795E+04
 -2.04339E+04 -1.70270E+04 -2.21190E+03 -2.20790E+04  1.04209E+04 -1.02659E+04 -2.59861E+03 -4.67910E+03
  8.49416E+01 -5.80440E+03  4.02908E+03 -3.00381E+03  1.39740E+04 -6.57831E+03  3.83825E+03 -2.63169E+03
  1.23838E+04  7.53006E+02  8.93103E+03  1.39763E+04  2.17021E+03  8.85903E+03 -1.05330E+04  1.09200E+04
 -1.65228E+04 -5.64714E+03 -1.05603E+04 -8.09415E+03 -3.64516E+02 -2.16659E+04  1.29136E+04 -2.06755E+04
  8.92047E+03 -9.55584E+03  2.18139E+04  4.00079E+03  1.46845E+04  1.65452E+04  4.28581E+02  2.47450E+04
 -9.07814E+03  1.75736E+04 -1.37432E+04  3.34080E+03 -4.59533E+02 -1.10157E+03 -1.11956E+02 -4.15352E+03
 -7.15490E+03 -2.83040E+03 -2.41521E+03 -1.03595E+03 -8.09882E+03  3.88274E+03 -8.45861E+03  8.11109E+02
 -1.13654E+04 -6.85639E+03  7.08216E+02 -1.40578E+04  1.56242E+04 -1.38592E+04  1.46734E+04 -1.91792E+03
  1.86377E+04  6.25966E+03  9.76519E+03  1.19524E+04 -4.29533E+02  2.26355E+04 -5.66000E+03  8.03552E+03
 -1.29591E+04 -6.41100E+02 -1.07490E+04 -1.24138E+04 -4.70219E+03 -1.35918E+04  7.14758E+03  8.99746E+02
  9.02927E+03  1.40616E+02  6.50004E+03  1.84803E+03 -2.03505E+03  6.09679E+03 -2.92075E+03  1.76369E+03
  2.46879E+02 -1.18012E+03  2.76857E+03 -4.35233E+03  6.47595E+01  3.73272E+03  3.75816E+03  1.45105E+04
  1.20464E+03  1.71650E+04 -8.01396E+03  6.62967E+03 -1.80747E+04  6.68672E+03 -8.94044E+03 -9.31518E+03
 -3.98150E+03 -1.49517E+04  2.65362E+03 -2.37095E+04  9.01291E+03 -1.20564E+04  1.89748E+04 -4.38361E+03
  7.96740E+03  3.81266E+03  1.69099E+03  1.52273E+04 -1.60085E+03  3.54981E+03 -9.79723E+03 -4.64628E+03
  3.87955E+03 -4.67425E+03 -1.91874E+03 -7.36849E+03  7.10473E+03 -5.64147E+03  7.81598E+03 -8.25943E+02
  1.71714E+03  3.26061E+03 -2.20410E+03  9.58610E+02  4.71505E+02  3.45564E+03  5.11764E+03  2.82179E+03
 -2.63602E+03 -2.58428E+02  4.64331E+03 -1.68822E+03  2.03675E+03  1.25861E+04 -1.72894E+03  1.00327E+04
 -1.07759E+04  6.34026E+03 -1.54264E+04  3.30779E+03 -1.05050E+04 -5.67053E+03 -5.45839E+03 -3.87756E+03
  3.86773E+03 -1.09948E+04 -1.21902E+03  3.99707E+02  7.84996E+03  5.49632E+03 -2.92826E+03  4.36155E+03
 -6.21496E+03  3.35430E+03 -4.92284E+03 -8.97639E+03 -4.36070E+03 -1.23182E+04 -9.76198E+01 -9.04474E+03
  4.77443E+03 -5.03024E+03  1.05344E+04 -5.85108E+03 -1.84350E+03  1.53780E+03  5.08910E+03  5.79607E+03
 -3.11296E+03  1.77763E+03 -3.60562E+03  3.49173E+02 -1.03346E+03 -4.08667E+03  1.48987E+04 -1.29348E+04
  1.35082E+04  2.64596E+03  7.57489E+03  1.09688E+04  3.16620E+03  1.22736E+04 -3.97429E+03  9.52467E+03
 -1.24152E+04  7.17287E+03 -1.19355E+04  6.43399E+03 -3.27379E+03 -1.07759E+04 -2.24418E+03 -9.94206E+03
  8.66458E+03  1.25723E+03  9.41015E+03  4.21307E+03  6.61544E+03  8.20176E+03 -2.14309E+03  5.73565E+03
 -5.00640E+03  1.84921E+03 -6.29712E+02  4.43631E+03 -2.78526E+03 -3.21767E+03 -1.12513E+03  5.52794E+03
  3.82066E+03  7.23545E+03 -4.40728E+03  6.79952E+03 -1.82641E+04 -1.64119E+02 -9.16384E+03 -1.00781E+04
 -4.46360E+03 -1.97600E+04 -3.31954E+03 -2.20932E+04 -3.68801E+03 -2.00952E+04  1.90622E+04 -2.84194E+03
  2.11703E+04  3.35968E+02  8.39523E+03  1.49453E+04 -6.93112E+03  8.26928E+03  6.19970E+02  8.61197E+03
 -5.24158E+03  5.32882E+03 -5.43398E+03  1.83905E+03  7.65791E+02 -2.82802E+03  2.58054E+03  2.32952E+03
 -3.92893E+03 -4.58919E+02 -2.52705E+03 -4.81557E+03 -1.39752E+03 -5.82557E+03  2.99269E+03 -3.02227E+03
  7.29884E+03 -3.58460E+03  5.87798E+03 -1.01388E+04  7.84644E+03  4.00911E+03  6.29327E+03  1.28082E+04
 -5.74194E+03  7.68451E+03 -1.22530E+04  9.11713E+03 -1.92403E+04  1.50988E+03 -1.01275E+04 -2.19361E+03
  1.20248E+03 -1.05372E+04  1.43557E+03 -1.53653E+04 -8.62087E+02 -8.77923E+03  7.08481E+03  2.42437E+03
  4.93318E+03  5.21574E+03  1.75603E+02  8.08131E+03  4.11709E+03 -1.55563E+03 -1.26277E+03 -1.58687E+03
 -1.70048E+03 -5.56873E+03  6.53605E+02  9.85393E+02  1.90603E+03  4.34066E+03 -3.88367E+03  8.89077E+03
 -4.87970E+03  5.65188E+03 -1.53353E+04  4.61111E+03 -6.62641E+02 -1.06756E+04  3.68706E+03 -1.02464E+04
  8.67495E+03 -6.98490E+03  1.45235E+04 -8.19940E+03  9.79713E+03  3.90935E+03  1.15702E+03  1.32959E+04
  1.01265E+04  1.06987E+04 -4.60291E+03  1.00568E+04  2.22444E+03  7.94680E+03 -6.31618E+03  1.66498E+03
 -5.51708E+02 -6.07683E+03 -8.13665E+03  2.13207E+03 -9.12895E+03  1.83919E+03 -2.34529E+03  4.23767E+03
 -7.63192E+03 -8.75802E+03  2.11429E+03 -6.47436E+03  5.36003E+03 -1.36290E+04  7.31511E+02 -3.38079E+03
  1.07629E+04  2.90214E+03  9.38631E+03  1.94324E+03  4.10207E+02  2.49770E+03 -1.11857E+04  1.74663E+03
