 $NMID ID='MM_0lb_SNR50_12hz_g40_16.RAW', FMTDAT='(8E13.5)'
 TRAMP=1., VOLUME=1. $END
  3.11214E+05 -1.46917E+03  3.35750E+05  2.51019E+05  8.45948E+04  3.40670E+05 -1.29027E+05  2.51974E+05
 -1.92838E+05  8.34618E+04 -1.07234E+05 -2.91903E+04  1.74616E+03 -4.71885E+04  4.86012E+04 -1.84587E+02
  3.69904E+04  5.39270E+04 -1.19956E+04  7.51519E+04 -5.96975E+04  6.23626E+04 -8.41777E+04  3.11866E+04
 -7.91455E+04 -1.06062E+04 -6.01240E+04 -5.47209E+04 -1.33091E+04 -7.46927E+04  3.13580E+04 -4.63758E+04
  4.14563E+04  5.31073E+03  1.65008E+04  5.11731E+04 -3.04015E+04  4.34591E+04 -6.96440E+04 -7.60798E+02
 -5.83125E+04 -5.48453E+04 -5.46486E+03 -7.74550E+04  3.38344E+04 -5.87052E+04  4.76935E+04 -1.71814E+04
  4.14331E+04  1.04736E+04  2.88104E+04  2.48333E+04  1.13522E+04  2.76005E+04 -4.13952E+03  3.20681E+04
 -1.88010E+04  7.91509E+03 -1.87780E+04 -8.37547E+03  5.14950E+03 -6.35997E+03  2.41832E+04  1.28039E+04
  1.34837E+04  3.87284E+04 -3.12252E+04  3.36336E+04 -6.48875E+04  3.24073E+03 -5.55245E+04 -4.25680E+04
 -1.49014E+04 -6.51407E+04  4.29340E+04 -4.93384E+04  6.38109E+04 -4.76667E+03  3.68794E+04  2.99255E+04
 -2.08861E+03  3.85518E+04 -3.15149E+04  1.89141E+04 -3.36568E+04 -3.42820E+03 -1.67947E+04 -8.20832E+03
 -9.86266E+03 -1.52996E+04 -2.80216E+02 -1.69848E+04  8.31073E+03 -2.10094E+04  1.38885E+04 -1.53739E+04
  9.38081E+03  3.70084E+03 -1.17762E+04  1.42386E+04 -2.11714E+04 -4.84552E+03 -1.34736E+04 -3.80381E+04
  2.44092E+04 -4.56205E+04  5.00492E+04 -2.19672E+04  3.92462E+04  1.98820E+04  1.79721E+04  4.90531E+04
 -2.09827E+04  2.94448E+04 -2.58601E+04  1.37767E+03 -4.05636E+03 -3.07978E+04  1.69147E+04 -3.91677E+04
  4.20288E+04 -7.95121E+03  3.51711E+04  2.30453E+04  1.75742E+04  4.83846E+04 -9.13205E+03  5.52667E+04
 -2.98421E+04  3.16749E+04 -4.25895E+04  9.60603E+03 -4.64816E+04 -1.64394E+04 -2.31190E+04 -4.07477E+04
  4.90148E+03 -3.85313E+04  3.26088E+04 -1.83540E+04  2.60227E+04  1.00250E+04  3.01337E+03  1.72125E+04
 -1.59734E+04  7.04414E+03 -7.66809E+03 -7.44512E+03  1.30580E+03 -1.49747E+04  1.90357E+04  5.23797E+03
  1.21192E+04  2.57299E+04 -2.85054E+03  2.88507E+04 -2.13109E+04  1.85589E+04 -2.43310E+04 -7.81103E+03
 -2.07797E+04 -1.31205E+04 -9.73586E+03 -1.87864E+04  3.34490E+03 -2.50243E+04  1.74709E+04 -2.30533E+04
  3.14614E+04 -1.58743E+04  3.68664E+04  1.67853E+03  2.05693E+04  2.09628E+04  3.31402E+03  3.96678E+04
 -1.76535E+04  2.89939E+04 -2.86939E+04  1.05113E+04 -1.96514E+04 -8.98771E+03 -4.85998E+03 -1.41138E+04
  4.11940E+02 -3.93538E+03 -3.66709E+03  7.45025E+03 -1.76694E+04  4.74507E+03 -1.60288E+04 -8.45049E+03
 -9.47179E+03 -2.29781E+04  6.84217E+03 -2.52968E+04  1.21647E+04 -1.93639E+04  1.51036E+04  7.78618E+02
  1.28806E+04  1.67751E+04  1.00122E+03  2.18242E+04 -1.51287E+04  1.10266E+04 -1.87808E+04 -4.69478E+03
 -8.31244E+03 -1.37076E+04  2.31204E+03 -2.69764E+04  1.03796E+04 -2.06166E+04  2.27129E+04 -1.22114E+04
  1.60776E+04 -4.04619E+03  1.34255E+04  1.02278E+04  7.33160E+03 -3.60188E+03  9.11926E+03 -4.10376E+03
  2.29064E+04  1.24046E+03  2.12939E+04  1.56267E+04  1.08370E+04  2.82000E+04  1.16888E+03  3.97600E+04
 -2.62233E+04  3.13570E+04 -3.07761E+04  1.78613E+04 -4.18163E+04 -4.12449E+03 -3.22801E+04 -1.86340E+04
 -6.21409E+03 -2.82251E+04  1.30195E+04 -3.14461E+04  1.86023E+04 -1.43772E+04  1.48243E+04  1.29593E+03
  1.25499E+04  1.36641E+04 -1.00300E+04  1.12678E+04 -2.30939E+04  1.09242E+02 -9.86107E+03 -1.45995E+04
 -7.37522E+03 -1.54370E+04  2.76245E+03 -9.57208E+03  9.11788E+03 -9.07635E+02  1.89169E+03 -1.54091E+03
 -7.67820E+03  3.11270E+03 -3.70621E+03 -5.89362E+03 -1.17998E+03 -1.95584E+04  1.25251E+04 -1.17733E+04
  2.32813E+04 -9.36309E+03  2.37183E+04  9.99435E+02  2.07177E+04  1.64837E+04  6.54284E+03  1.95282E+04
 -4.14578E+03  2.64790E+04 -1.30908E+04  1.23965E+04 -1.84849E+04  2.86515E+03 -1.08154E+04 -3.43054E+03
 -9.45374E+03 -9.04127E+03 -4.29312E+02 -4.47184E+03 -6.21792E+03  4.72687E+03 -4.06618E+03 -1.98468E+02
 -1.27164E+04 -4.28439E+03 -1.30484E+04 -6.38753E+03 -6.69625E+03 -1.71440E+04  2.59631E+03 -1.18938E+04
  1.25954E+04 -8.72707E+02  4.97240E+03 -2.38476E+03  3.25758E+03  3.01874E+03 -8.18581E+03 -5.93601E+03
 -5.34239E+03 -7.36418E+03 -5.99436E+03 -8.09100E+03  2.10774E+03 -2.19209E+04  1.72746E+04 -9.03692E+03
  1.74557E+04  1.53771E+03  2.01381E+04  1.25228E+04  3.97097E+03  1.02259E+04 -1.00600E+04  1.28761E+04
 -9.41981E+03 -4.88863E+02 -6.82260E+03 -3.15203E+03  2.56950E+03 -7.42620E+03  5.99438E+03  9.20105E+02
  9.76894E+03  3.24366E+03 -4.80997E+03  1.31196E+04 -1.04459E+04  9.75595E+03 -1.29925E+04  4.45476E+03
 -7.62558E+03 -8.06842E+03 -2.59675E+03 -1.00743E+04  3.28802E+03 -7.39639E+03  8.18300E+03  1.09099E+04
  2.69433E+03  1.20942E+04 -6.83806E+03  3.50046E+03 -9.91910E+03  2.76146E+03 -1.73054E+04  1.00878E+03
 -1.28322E+03 -9.80339E+03  3.39571E+03 -1.40376E+04  1.04018E+04 -1.01366E+04  1.34013E+04  1.34113E+03
  8.44444E+03  7.64761E+03 -2.91233E+03  7.12181E+03 -6.37279E+03  1.63665E+04 -1.10886E+04 -1.24549E+03
 -7.66866E+03 -1.06586E+04  1.85054E+03 -5.89569E+03 -6.19461E+02 -9.46723E+03  3.76142E+03 -3.59628E+03
  6.06653E+03  9.54922E+01  8.32434E+02 -3.00614E+02 -3.13924E+03  1.68643E+03 -3.51755E+03 -7.13285E+03
  5.19346E+03 -2.57545E+03  1.01634E+04 -1.64291E+03  1.21297E+04  1.32822E+03  1.31375E+04  1.80169E+04
 -3.26203E+03  1.34476E+04 -1.27652E+04  1.44158E+04 -2.03833E+04 -2.12334E+03 -1.38514E+04 -5.95985E+03
 -7.17462E+03 -1.50733E+04  1.44283E+03 -1.20797E+04  3.12946E+03 -9.42527E+03  6.91720E+03 -9.28331E+02
  7.98178E+01 -5.87465E+02  1.21354E+03 -3.11207E+03  5.00686E+03 -7.21867E+03  6.62448E+03 -7.12870E+03
  1.07965E+04  9.31488E+03  1.62976E+03  1.77548E+03 -3.55070E+03  1.14854E+04 -8.56910E+03  7.06658E+03
 -1.09834E+04 -4.91882E+03 -7.85111E+03 -7.17805E+03 -1.21359E+03 -7.12820E+03  1.15692E+04 -1.10632E+04
  1.40325E+04 -5.58379E+03  1.29656E+04  6.11972E+03  9.18790E+03  9.76119E+03 -2.54448E+02  1.60399E+04
 -7.65905E+03  6.23178E+03 -4.73324E+03  1.92813E+03 -8.71516E+03  1.69838E+03 -4.40849E+02 -1.47763E+03
 -1.27882E+03 -1.20363E+03  3.90671E+02  7.15870E+03 -4.41052E+03  1.70785E+03 -7.14212E+03 -2.87186E+03
 -5.69794E+03 -9.57028E+03 -2.60542E+03 -1.18539E+04  4.59686E+03 -9.57676E+03  1.22541E+04  1.01823E+03
  9.10776E+03  4.30498E+03  6.15332E+03  4.63438E+03 -5.09606E+03  1.15767E+04 -4.23280E+03  1.12349E+04
 -1.31679E+04 -1.84781E+03 -1.18609E+04 -4.69205E+03 -4.38552E+02 -1.12109E+04  4.11329E+03 -4.65025E+03
  5.92315E+03 -3.17972E+03  1.18207E+04 -1.20184E+03  2.28271E+02  4.00613E+03 -3.85847E+03  5.56577E+03
 -2.48148E+02 -4.17350E+03  8.94666E+03  3.11878E+03  4.35332E+03  4.84922E+03  2.55224E+03  1.63104E+03
  4.16282E+02  6.78666E+03 -2.20636E+03  7.68365E+03 -3.75104E+03  6.26938E+02 -1.22147E+04 -3.09583E+03
 -2.20560E+03 -9.92423E+03 -2.61012E+03 -1.59814E+04  4.31180E+03 -8.55510E+03  8.96670E+03 -2.54075E+03
  1.24186E+03  4.20781E+03  4.15022E+03  3.28724E+03 -1.48056E+03  3.11747E+03 -2.49493E+03  3.02072E+03
 -2.23454E+03 -3.99713E+03 -7.45694E+01 -7.46830E+03  1.23932E+03 -5.03287E+03  3.38948E+03 -4.67748E+03
 -3.58660E+02  5.19641E+03  5.92049E+03 -4.36298E+02 -3.39438E+02  1.79941E+02  7.38997E+02  3.28271E+03
  9.14188E+02  5.85956E+02 -5.26742E+03  4.68657E+03 -4.54799E+02  8.95502E+03  1.15719E+03  1.08434E+04
 -9.02496E+03  2.45955E+03 -5.57735E+03 -2.35086E+03 -3.21687E+03  2.05150E+02 -6.20920E+01 -8.14800E+03
 -3.98450E+01 -4.78564E+03  6.35020E+03 -1.21584E+03  7.95894E+02  4.09485E+02 -1.91768E+03  1.90875E+03
 -7.04940E+03  4.02783E+03 -9.67417E+03  1.08367E+03 -4.06333E+03 -4.75958E+03  2.65712E+03 -5.67740E+03
  4.49299E+03 -3.34527E+03  2.99980E+03  2.59207E+03  1.38774E+03  3.36884E+03  4.07120E+02  1.24011E+03
  2.27367E+03  3.37426E+03 -3.60736E+03 -4.41150E+03  3.71198E+03 -3.14868E+03  3.66899E+03 -8.91136E+02
  2.80966E+03  3.45446E+03  7.22043E+03  3.34939E+03  2.37196E+03  4.68194E+03 -4.95070E+03  6.59592E+03
 -6.76709E+03  1.08938E+03 -6.29679E+03 -1.77904E+02 -5.72682E+03 -5.46460E+03  3.99598E+03 -1.19126E+03
  4.88177E+03  1.38528E+03  1.03784E+03  1.86870E+02  5.16882E+03  5.07419E+03  3.63185E+03 -2.46370E+03
  3.58806E+03  3.48499E+03 -3.48345E+03  9.37272E+03 -3.61622E+03 -2.76420E+03 -2.91212E+03  1.88472E+03
  4.44688E+03 -5.96684E+03 -5.36632E+03  5.57341E+03 -3.96276E+03 -8.20006E+02 -3.65460E+03 -9.79167E+03
 -5.14484E+03 -8.43552E+03 -2.48594E+01 -6.07713E+03  2.83019E+03 -6.53014E+03  9.44495E+03  7.83319E+02
  1.14674E+04 -1.31854E+03  3.47181E+03  3.72843E+03 -2.88642E+03  4.32238E+03 -2.79060E+03  6.39539E+03
 -4.30413E+03  1.68018E+03  2.28831E+03 -1.02217E+02 -6.59789E+03 -1.75209E+02  1.78458E+03 -1.04869E+03
  1.82714E+03  1.89690E+03  2.39749E+03 -2.07045E+03 -5.09565E+03 -5.17717E+03 -1.27204E+03 -1.28004E+03
  2.90726E+03 -3.53603E+03  5.23956E+03 -1.17332E+03  2.76374E+03  2.98841E+03 -3.32536E+02  9.57889E+03
 -1.06771E+03  1.00789E+04 -7.08680E+03  3.22476E+03 -1.06703E+04 -5.46316E+03 -7.87321E+03 -1.46373E+03
 -4.08327E+03 -9.37009E+03 -6.51089E+03 -8.35066E+03  4.25854E+03 -1.14578E+03  5.17607E+03  7.01652E+03
  1.32636E+03 -3.06535E+02 -1.16032E+03  4.72834E+03  1.52423E+03 -2.82022E+03  2.34044E+03 -5.71688E+03
 -3.42496E+03  3.23946E+03 -5.67709E+02 -3.85839E+03  6.44003E+03  1.13118E+03  1.83673E+03  6.42520E+03
 -2.73033E+03  8.25607E+03 -7.22377E+03  5.92330E+03 -8.10976E+03 -2.36604E+03 -3.38648E+03 -4.82418E+03
  3.35892E+03 -5.02253E+03  6.54279E+03 -1.73509E+02  5.51559E+03  3.31663E+03 -8.81737E+02 -6.79371E+02
 -3.45685E+03 -1.80028E+02 -3.31725E+02  1.31817E+03 -2.05347E+03  3.74056E+03 -2.91080E+03  9.82857E+02
 -3.44628E+03 -1.40632E+03 -9.79266E+03  4.29468E+03 -5.65632E+03 -3.91296E+03 -4.66054E+03 -3.19945E+02
 -3.24476E+03  1.85163E+03  1.71654E+03 -3.59342E+03  6.85552E+02 -1.35057E+03  1.17393E+02 -1.21132E+03
 -7.73294E+01  8.95356E+02  6.10984E+03  4.16242E+03 -2.22649E+03 -1.14611E+03 -4.59003E+03 -3.31276E+03
