 $NMID ID='MM_0lb_SNR50_9hz_g45_4.RAW', FMTDAT='(8E13.5)'
 TRAMP=1., VOLUME=1. $END
  3.09042E+05  5.71114E+03  3.37290E+05  2.48449E+05  8.36843E+04  3.37716E+05 -1.33035E+05  2.49551E+05
 -1.90388E+05  8.05963E+04 -1.12027E+05 -4.06975E+04 -1.84298E+03 -4.45353E+04  5.09879E+04  3.19342E+03
  3.50798E+04  5.70707E+04 -1.96925E+04  7.21238E+04 -5.81154E+04  6.55865E+04 -8.39199E+04  2.69884E+04
 -8.13766E+04 -4.62875E+03 -5.59403E+04 -5.02273E+04 -1.71563E+04 -6.80650E+04  3.32284E+04 -4.38860E+04
  4.38573E+04 -3.07881E+03  1.46108E+04  4.99523E+04 -2.85062E+04  5.29350E+04 -7.14344E+04  3.80951E+03
 -4.90999E+04 -5.74220E+04 -8.19622E+03 -7.63499E+04  3.65210E+04 -5.61720E+04  5.25435E+04 -2.09094E+04
  4.33650E+04  9.33884E+03  3.63444E+04  2.94987E+04  1.52799E+04  3.59605E+04 -3.24403E+03  3.17904E+04
 -2.28767E+04  1.31075E+04 -1.02746E+04 -1.30484E+04  1.02937E+04 -8.04770E+03  2.50054E+04  1.99597E+04
  8.35556E+03  3.42072E+04 -3.49258E+04  3.57703E+04 -6.55592E+04  5.61099E+03 -5.81819E+04 -4.95546E+04
 -1.23493E+04 -6.22937E+04  4.20687E+04 -4.90535E+04  6.37779E+04 -8.38458E+03  3.11880E+04  4.01274E+04
 -4.03537E+02  4.55419E+04 -3.04900E+04  1.93904E+04 -3.72003E+04 -5.47411E+03 -1.91987E+04 -2.08890E+04
 -5.33484E+03 -1.62020E+04 -2.15407E+03 -1.52259E+04  9.43011E+03 -2.25246E+04  1.26915E+04 -1.08690E+04
  1.68230E+04  1.16666E+04 -1.67455E+04  7.98673E+03 -1.83105E+04 -6.15635E+03 -1.11888E+04 -4.25190E+04
  2.37458E+04 -4.57091E+04  5.15282E+04 -2.06442E+04  5.32238E+04  2.62718E+04  1.33578E+04  4.84177E+04
 -2.13746E+04  3.77179E+04 -3.16826E+04  5.86511E+03 -6.11741E+03 -3.06319E+04  1.70246E+04 -4.07777E+04
  4.11470E+04 -5.86035E+03  3.71376E+04  2.18952E+04  1.82036E+04  5.11012E+04 -1.23183E+04  5.31308E+04
 -3.73859E+04  3.07978E+04 -4.84848E+04  1.01543E+04 -4.95755E+04 -1.83036E+04 -2.69709E+04 -3.15876E+04
  4.14550E+03 -3.43546E+04  3.65396E+04 -1.39194E+04  3.12634E+04  1.23490E+04  1.60889E+03  2.21155E+04
 -1.58172E+04  1.01685E+04 -7.51872E+03 -9.36997E+03 -6.76447E+02 -1.26841E+04  1.86669E+04  8.70893E+03
  1.76025E+04  2.55201E+04 -2.78372E+03  2.70012E+04 -1.85902E+04  1.40013E+04 -2.85616E+04 -4.76565E+01
 -2.65320E+04 -1.71720E+04 -1.73903E+04 -2.89350E+04  7.48006E+03 -2.79065E+04  2.28037E+04 -2.58204E+04
  2.63339E+04 -1.03784E+04  3.38800E+04  5.43799E+03  2.43546E+04  2.57514E+04  5.82059E+03  4.34726E+04
 -1.94875E+04  2.94319E+04 -3.03457E+04  1.33165E+04 -2.32479E+04 -1.01092E+04 -4.49858E+03 -1.06141E+04
 -7.98847E+01 -4.38312E+03 -8.15528E+03  9.30679E+03 -2.01319E+04  5.24804E+03 -1.84224E+04 -1.65660E+04
 -9.06790E+03 -2.13284E+04  3.96053E+03 -2.64680E+04  1.28721E+04 -2.39328E+04  1.73093E+04 -9.63158E+01
  1.41382E+04  1.38648E+04  1.64847E+03  2.30915E+04 -1.59319E+04  1.37959E+04 -2.97431E+04 -1.32934E+03
 -1.60414E+04 -1.39473E+04 -3.97797E+03 -2.83839E+04  1.38132E+04 -2.45495E+04  2.07574E+04 -4.47728E+03
  2.06409E+04  3.29945E+03  1.24933E+04  5.62656E+03  4.46978E+03  8.94807E+03  1.42515E+04 -4.52173E+03
  1.71172E+04  4.47099E+03  2.24297E+04  1.91108E+04  1.36398E+04  3.74872E+04  1.09234E+03  4.02404E+04
 -2.59964E+04  3.57536E+04 -4.91822E+04  2.48108E+04 -4.73727E+04 -8.07466E+03 -3.92746E+04 -2.73073E+04
 -1.80960E+04 -3.40950E+04  1.07288E+04 -3.29683E+04  2.48541E+04 -9.02836E+03  2.32450E+04  6.38839E+03
  3.97321E+03  2.23371E+04 -8.93899E+03  1.58776E+04 -1.77552E+04 -2.46100E+01 -1.30880E+04 -1.65654E+04
  3.17153E+03 -2.06892E+04  1.20403E+04 -1.34964E+04  7.39249E+03 -6.32436E+03  3.95325E+03  1.06142E+04
 -8.16021E+03  4.28130E+03 -1.32587E+04 -8.10540E+03  4.46285E+03 -2.01059E+04  1.36801E+04 -2.04506E+04
  1.93252E+04 -1.17518E+04  1.74928E+04  2.13170E+03  2.12479E+04  1.84187E+04  1.53283E+04  2.69266E+04
 -5.48149E+03  3.18688E+04 -2.06517E+04  2.32733E+04 -2.46235E+04  5.03733E+03 -1.88430E+04 -8.58053E+03
 -2.92937E+03 -5.23124E+03 -2.63901E+03 -1.10481E+03  5.35621E+02  3.05503E+03 -6.23236E+03  9.04941E+03
 -4.55562E+03  4.31040E+03 -1.53712E+04 -7.88700E+03 -7.48866E+03 -1.64664E+04  4.94606E+03 -1.05259E+04
  1.12490E+04 -7.25073E+03  7.58727E+03  2.49216E+03  3.46211E+03  8.75491E+02 -1.44943E+04 -1.39251E+03
  1.04179E+03 -8.05436E+03 -1.79027E+03 -1.98407E+04  8.79416E+03 -1.60638E+04  1.95795E+04 -3.70354E+03
  1.96953E+04  6.84160E+03  1.72876E+04  1.45981E+04  3.28431E+03  1.65970E+04 -6.95328E+02  1.70655E+04
 -2.08289E+04  1.51486E+04 -5.64161E+03  3.83478E+03 -2.04421E+03 -4.29132E+03  1.11622E+04  8.83539E+02
  2.74408E+03  4.86852E+03 -4.65069E+03  1.28689E+04 -1.15740E+04  1.57773E+04 -1.62991E+04  2.82086E+03
 -1.04725E+04 -6.18181E+03 -1.23660E+03 -1.37821E+04  1.31590E+04 -4.90044E+03  6.44410E+03  4.89318E+03
  5.07877E+03  6.57176E+03 -1.03091E+04  6.93684E+03 -1.58036E+04  8.07669E+03 -9.63180E+03  1.48948E+03
 -9.65236E+03 -2.25446E+04 -2.71681E+03 -2.24032E+04  1.38732E+04 -1.60433E+04  2.13780E+04 -1.86727E+03
  1.11956E+04  9.91007E+03 -5.30320E+02  1.20692E+04 -1.40837E+04  7.36694E+03 -1.22086E+04 -1.61673E+03
 -1.42407E+04 -1.12956E+04 -4.04120E+03 -9.09005E+03  1.02548E+04 -1.01192E+04  5.48050E+03 -2.38691E+03
  2.97307E+03  7.41374E+03  3.49279E+03 -1.35980E+02 -4.16842E+03 -4.16186E+03  7.95091E+03 -1.70477E+04
  9.98679E+03 -2.32625E+03  1.45696E+04 -4.73391E+03  1.34431E+04  4.53748E+03  1.16377E+04  2.30057E+04
 -5.84887E+03  1.86550E+04 -1.98420E+04  1.58925E+04 -2.38467E+04  1.51322E+04 -2.06253E+04 -8.41104E+03
 -1.00294E+04 -1.58847E+04  3.29376E+03 -1.41616E+04  2.95605E+03 -2.26750E+03  7.35681E+03 -6.64009E+03
 -8.92430E+02 -1.59584E+03  6.91480E+03 -6.39496E+03  1.51906E+04 -1.07897E+03  7.55563E+03  4.88560E+03
  1.24113E+04  8.29176E+03  2.01478E+03  4.79103E+03 -6.28407E+03  1.07341E+04 -5.35227E+03  4.79349E+03
 -1.40260E+04 -5.47072E+03 -6.09666E+03 -4.24792E+03 -7.96095E+03 -1.79524E+04  4.48074E+03 -1.35270E+04
  1.46055E+04 -4.01284E+03  1.53524E+04  6.96281E+03  1.66665E+04  1.59800E+04  2.96062E+03  1.50878E+04
 -5.52302E+03  1.60303E+04 -8.03069E+03  1.61611E+03 -1.13290E+04 -2.78405E+03 -5.05462E+03 -4.14141E+03
 -4.52128E+03 -2.62204E+02 -2.05219E+03  5.52467E+03 -4.52914E+03  1.01086E+03 -1.09606E+04 -4.42952E+03
 -7.55636E+03 -7.53246E+03  7.25796E+03 -1.19841E+04  1.04577E+04 -1.84286E+04  1.63746E+04  8.20476E+02
  1.49636E+04  1.54909E+04  3.42658E+03  1.28682E+04 -1.35250E+02  1.23874E+04 -1.18590E+04  1.17006E+04
 -1.62780E+04  1.31158E+03 -4.31785E+03 -1.08639E+04  1.51112E+03 -1.20552E+04  3.10490E+01 -1.34542E+04
  7.26562E+03  1.56349E+03  3.68713E+03  1.58072E+03  6.51965E+03  8.03406E+02 -1.46357E+03 -1.61614E+03
  3.23412E+01  1.65168E+03 -3.40003E+03 -1.30000E+03  8.79860E+03  3.17383E+03  2.78580E+03  9.35931E+03
 -1.70181E+03  1.18832E+04 -1.30487E+04  1.50315E+04 -1.53422E+04  3.62940E+03 -1.36029E+04 -7.08113E+03
 -3.43801E+03 -1.47927E+04 -1.66072E+03 -1.73055E+04  4.31660E+03 -1.71822E+04  1.15574E+04 -2.18972E+03
  8.44910E+03  3.01424E+03 -5.09556E+02  1.16065E+04 -7.19142E+03  8.46151E+03 -1.39047E+03  1.93122E+03
 -3.50328E+02 -7.23586E+03  1.82845E+03 -4.69434E+03  5.55160E+03 -4.71087E+03 -4.08205E+02  2.44673E+03
  1.14676E+04 -4.03014E+03  6.33976E+03  4.01762E+03 -1.23951E+03  2.46406E+03  7.59464E+02  1.60919E+03
  2.69875E+03 -1.00014E+03  2.86348E+03  5.23173E+03  4.98233E+02  7.11929E+03 -5.23069E+02  1.34516E+04
 -1.39511E+04  8.13600E+03 -1.01706E+04  1.51796E+03 -6.46265E+03  3.01709E+03 -5.07164E+03 -2.77292E+03
  1.08998E+02 -5.09963E+03 -3.46474E+03 -3.04832E+02  4.67418E+02  7.45552E+03 -6.57071E+03  4.94815E+03
 -9.72482E+03  4.18397E+03 -6.93691E+03 -7.10187E+03  1.71849E+03 -5.70192E+03  6.83496E+03 -7.20223E+03
  1.81205E+03 -3.63142E+03  3.70268E+03 -2.66314E+03  5.56969E+03 -3.21073E+02  1.55101E+03  5.07109E+03
 -6.99190E+02  4.46327E+03  5.98993E+02 -1.98279E+02 -1.58916E+03 -6.52635E+02  1.00270E+04 -6.39660E+03
 -1.42554E+03 -5.84882E+02  1.68118E+04  6.39695E+03  5.68436E+03  8.36368E+03 -4.00703E+03  1.32495E+04
 -2.68031E+03  6.97626E+03 -7.43071E+03 -3.32631E+03 -2.17450E+03 -8.86832E+03  5.58495E+03 -6.62944E+03
  4.11820E+03 -5.98652E+03 -1.61822E+03  1.86245E+03 -6.10195E+03  1.04115E+04 -6.98318E+03  6.36857E+03
 -1.18862E+03 -2.20232E+03 -4.06186E+03  3.61741E+02 -4.21822E+03  1.94254E+02 -1.06348E+03  1.19792E+03
 -1.26494E+03  4.22575E+03 -5.94884E+03  6.39578E+03 -6.41289E+03 -6.45488E+02 -1.23405E+04 -5.03438E+03
 -8.00944E+03 -1.08827E+04  4.45634E+03 -1.23664E+04  8.10896E+03 -9.99535E+03  1.04297E+04 -3.18689E+03
  1.93619E+04  6.11997E+03  7.49855E+03  6.46737E+03 -4.27750E+03  1.07868E+04 -2.97902E+03  3.11891E+02
 -6.41707E+03  6.67759E+03 -5.36020E+03  3.19555E+03  4.45597E+03  2.70669E+03  2.85025E+03 -8.29953E+02
 -1.09451E+03 -2.72413E+03 -2.56305E+03  2.98291E+03 -2.36678E+03 -6.08650E+03  2.01178E+03 -5.62497E+03
  2.73441E+03 -8.07456E+02  1.69897E+03  2.68663E+03  4.78294E+03  4.96359E+02 -3.92697E+03  1.29032E+04
 -8.30113E+03  1.27697E+04 -1.16517E+04  3.08351E+03 -1.36570E+04  2.97154E+02 -4.56309E+03 -3.07559E+03
 -6.37774E+03 -1.17905E+04 -1.22812E+02 -1.12466E+04  1.06524E+04 -1.05718E+04  7.42261E+03 -4.10897E+03
 -5.18308E+02  9.23569E+03  3.29848E+03  8.44000E+03 -1.98269E+03 -1.10433E+03 -1.76317E+03 -8.25813E+03
  5.41322E+03  2.66407E+02  3.52102E+03 -5.97392E+03  1.72362E+03  1.34610E+04 -1.76911E+03  9.27310E+02
 -2.68701E+03  6.37115E+03  1.49533E+03  1.19996E+03 -1.81578E+02 -1.30778E+04  1.26230E+03 -7.61030E+03
  3.52443E+03 -8.64414E+03  9.60760E+03 -5.67412E+03  9.13461E+03  1.71432E+03  2.70580E+03  2.63922E+03
 -5.53476E+02  7.80091E+02 -3.67279E+03  1.08637E+04 -3.49367E+03  6.30649E+03 -5.16418E+03 -2.18198E+03
 -1.56150E+03 -3.49665E+03 -1.15966E+02 -6.95137E+01  4.08223E+02 -8.44087E+02 -2.25999E+03  3.64423E+02
 -7.10074E+03 -1.07702E+03  5.40522E+03 -2.66177E+03  7.85562E+03 -3.07236E+03  6.99832E+03 -8.25945E+03
  1.07511E+04 -3.86040E+02  3.53526E+03  8.33527E+02  1.34661E+03  5.50458E+03 -4.74498E+03  5.20401E+03
