 $NMID ID='MM_0lb_SNR50_18hz_g55_27.RAW', FMTDAT='(8E13.5)'
 TRAMP=1., VOLUME=1. $END
  3.10539E+05 -1.93987E+03  3.37455E+05  2.49424E+05  8.34232E+04  3.34007E+05 -1.35055E+05  2.53639E+05
 -1.90500E+05  8.41438E+04 -1.08432E+05 -3.22729E+04 -1.44288E+03 -5.12440E+04  5.20638E+04 -3.61657E+03
  3.44254E+04  5.33811E+04 -1.37486E+04  7.35814E+04 -6.14140E+04  6.21475E+04 -8.40182E+04  2.89601E+04
 -7.71239E+04 -1.26824E+04 -5.77942E+04 -4.64162E+04 -1.02125E+04 -7.02914E+04  2.69690E+04 -4.92627E+04
  3.80738E+04  8.30031E+03  1.70509E+04  4.47326E+04 -3.46553E+04  4.77695E+04 -6.83888E+04  1.24430E+03
 -5.64672E+04 -5.90980E+04 -5.70875E+03 -7.79800E+04  3.08004E+04 -5.47877E+04  4.51560E+04 -1.64489E+04
  4.41432E+04  1.33693E+04  3.24589E+04  2.91180E+04  1.77640E+04  2.81797E+04 -5.89919E+03  2.38198E+04
 -2.40140E+04  1.32845E+04 -2.07841E+04 -5.68311E+03  9.73708E+03 -4.07935E+03  2.05574E+04  1.15064E+04
  3.33807E+03  3.38655E+04 -3.24902E+04  3.33977E+04 -6.18360E+04  7.87710E+02 -5.40692E+04 -3.86283E+04
 -1.24174E+04 -6.29935E+04  4.09910E+04 -4.19025E+04  5.75118E+04 -5.59704E+02  3.12609E+04  3.31727E+04
 -5.00574E+03  3.44565E+04 -2.87907E+04  1.65314E+04 -2.69565E+04 -6.09824E+03 -1.79517E+04 -1.38928E+04
 -3.66997E+03 -1.66871E+04  5.25309E+02 -1.56526E+04  8.80178E+03 -1.92198E+04  1.14268E+04 -1.30985E+04
  1.56593E+04  4.18390E+03 -4.79178E+03  1.46034E+04 -1.97849E+04 -4.43141E+03 -8.45127E+03 -2.60766E+04
  2.43233E+04 -3.88967E+04  4.40239E+04 -1.79986E+04  4.32495E+04  1.98380E+04  1.28972E+04  4.38733E+04
 -1.64039E+04  3.17084E+04 -2.43143E+04  6.06379E+03 -1.11762E+04 -3.00375E+04  1.82187E+04 -2.83498E+04
  4.12383E+04 -3.74601E+03  3.22252E+04  2.69248E+04  2.19654E+04  4.69133E+04 -8.19898E+03  4.82148E+04
 -2.91949E+04  3.15432E+04 -3.97740E+04  8.90998E+03 -3.50974E+04 -1.83144E+04 -2.43623E+04 -3.95437E+04
  7.47471E+03 -3.42651E+04  3.14611E+04 -1.15020E+04  2.74869E+04  1.09430E+04  3.14896E+03  1.63334E+04
 -1.61740E+04  6.46161E+03 -1.23595E+04 -8.24880E+03  8.12736E+02 -9.42573E+03  1.70954E+04  4.93700E+03
  1.02992E+04  1.85653E+04 -5.86867E+03  2.52980E+04 -1.96372E+04  9.02276E+03 -1.97808E+04 -6.24864E+03
 -1.51508E+04 -1.68974E+04 -6.27860E+03 -1.93649E+04  3.90176E+03 -1.96940E+04  1.62276E+04 -1.38181E+04
  2.56894E+04 -1.21061E+04  3.00651E+04  3.28714E+03  2.47889E+04  1.21971E+04  2.75996E+03  3.40099E+04
 -1.62826E+04  2.97928E+04 -2.41146E+04  5.18217E+03 -2.57002E+04 -1.04828E+04 -2.58422E+03 -1.62960E+04
  3.15256E+03 -4.19550E+03 -5.12711E+03  7.51301E+03 -1.55122E+04  4.63290E+03 -1.45827E+04 -4.31448E+03
 -8.11867E+03 -1.27775E+04  3.65796E+03 -2.46958E+04  1.21543E+04 -1.59320E+04  1.55466E+04 -2.87188E+03
  7.89488E+03  1.21468E+04 -1.79376E+03  1.48145E+04 -1.12125E+04  1.14039E+04 -1.67149E+04 -4.77493E+03
 -9.51489E+03 -1.22356E+04 -4.92834E+01 -2.23287E+04  9.27797E+03 -1.25615E+04  1.72097E+04 -7.77833E+03
  1.55727E+04 -1.32087E+03  1.59186E+04  9.13705E+03  4.93482E+03  2.64431E+03  8.93502E+03 -6.76631E+03
  1.56472E+04  6.88001E+03  1.38303E+04  1.76019E+04  1.10044E+04  2.76500E+04 -7.63229E+03  2.62518E+04
 -1.60780E+04  1.85577E+04 -2.54097E+04  1.10719E+04 -2.20387E+04  2.05604E+03 -2.25480E+04 -1.53941E+04
 -1.15099E+04 -2.28491E+04  7.46306E+03 -1.74864E+04  1.83603E+04 -1.29403E+04  1.61199E+04 -2.42668E+02
  3.83522E+03  9.22658E+03 -6.25520E+03  1.18848E+04 -1.90372E+04  2.91733E+03 -1.21143E+04 -7.06908E+03
 -2.03844E+03 -1.81207E+04  6.84182E+03 -1.06308E+04  7.49417E+03 -1.72718E+03  1.44385E+03  5.04738E+03
 -3.18692E+03 -1.38449E+03 -9.32826E+02 -1.14008E+03 -3.92206E+03 -1.24520E+04  7.36146E+03 -7.95343E+03
  1.48291E+04 -7.09639E+03  1.33868E+04  2.90209E+03  1.03703E+04  1.01301E+04  3.48799E+03  1.51941E+04
 -6.23479E+03  2.12330E+04 -7.83510E+03  1.07194E+04 -9.58238E+03  1.95008E+02 -8.24321E+03 -3.31210E+03
 -4.86191E+03 -5.40716E+03 -1.11064E+03 -6.16003E+02  2.93378E+03  6.38798E+03 -2.17628E+02  6.28637E+03
 -9.50616E+03  1.95453E+03 -1.10990E+04 -7.27964E+03 -3.74625E+03 -1.28354E+04  7.00218E+03 -7.42113E+03
  5.79641E+03 -6.96295E+03  3.35868E+03 -3.71248E+03 -3.53299E+01  1.61241E+03 -4.75604E+03  9.18668E+02
 -4.73084E+03 -5.19541E+02  3.49270E+02 -6.94590E+03  3.96072E+03 -1.19721E+04  9.50366E+03 -5.39998E+03
  1.49277E+04  1.83720E+03  1.25888E+04  1.12627E+04  2.62333E+03  1.10052E+04 -5.56745E+03  6.08386E+03
 -1.15690E+04  3.74649E+03 -1.58593E+03 -2.85605E+03  1.50199E+03 -2.44970E+03  3.32976E+03 -3.64038E+03
  2.18905E+03  5.08285E+02 -1.38921E+03  6.78435E+03 -3.91964E+03  5.73825E+03 -8.07124E+03  2.17936E+03
 -5.58700E+03  1.00917E+03 -2.65410E+02 -5.86674E+03  4.36906E+03 -1.16101E+03  5.05938E+03  2.61526E+03
 -1.62056E+03  3.49263E+03 -6.63650E+03  5.77859E+03 -3.16406E+03  1.83516E+03 -4.25575E+03 -6.41823E+01
 -3.37663E+02 -5.65281E+03  2.79244E+03 -8.54915E+03  9.35213E+03 -2.43501E+03  7.58697E+03 -1.46480E+03
  6.10474E+03  4.68516E+03  2.77490E+03  1.02857E+04 -4.23580E+03  2.84089E+03 -4.29356E+03 -9.92595E+02
 -6.22349E+03 -3.71877E+03 -2.88774E+03 -2.30962E+03  1.30419E+03 -7.17307E+03  4.77859E+03 -2.40385E+03
  5.06549E+03 -2.07783E+02 -3.75910E+03 -2.45967E+02  3.87238E+03 -1.44336E+03  1.79833E+03 -3.25570E+03
  5.76891E+03  9.42501E+02  6.13798E+03 -3.90743E+03  9.65014E+03  5.62229E+03  6.63927E+03  1.03316E+04
 -2.62410E+03  7.11534E+03 -4.55987E+03  4.67805E+03 -9.39879E+03  2.12815E+03 -9.21330E+03 -3.87642E+03
 -3.89913E+03 -7.26313E+03  1.05332E+03 -8.44689E+03  4.93366E+03  1.29458E+02  4.90466E+03 -4.60131E+03
 -2.84399E+03 -2.45527E+03  3.13380E+03 -2.74786E+03  4.24468E+03  7.01161E+02  2.36610E+03  3.16952E+03
  8.14107E+03  7.41679E+02  1.77149E+03  1.10419E+03 -2.15563E+03  2.09596E+03 -8.09554E+03  3.66864E+03
 -7.34245E+03 -3.13704E+03 -2.25988E+03 -2.03854E+03  2.15911E+03 -2.87704E+03  4.84244E+03 -3.63111E+03
  6.06270E+03 -3.92975E+03  4.44799E+03  1.42248E+03  6.67404E+03  1.37311E+03 -1.68602E+02  4.11842E+03
 -5.94155E+03  5.83335E+03 -1.19588E+03  1.56434E+03 -5.38518E+03 -3.54225E+03 -7.67143E+03 -1.54809E+03
 -3.16414E+03 -2.05293E+03 -6.07188E+03 -7.71611E+02 -3.46744E+03  5.84311E+03 -1.08206E+03  1.40597E+03
  2.21514E+03 -1.03465E+04 -1.50418E+03 -7.12062E+03  7.60879E+02 -4.74317E+03  3.70916E+03 -1.85227E+03
  6.25517E+03  3.48500E+03  2.66426E+03  2.88217E+03 -3.01294E+03  7.69912E+02  6.80849E+02  5.43654E+03
 -2.49066E+03  3.27060E+02 -2.09326E+03 -6.33693E+03 -4.29741E+03 -3.31465E+03  2.51384E+03 -4.06967E+03
  8.06828E+01 -1.34090E+03  2.93298E+03  1.07902E+03 -1.96476E+03  5.88506E+02 -2.90510E+02  2.27748E+03
 -7.53941E+02 -1.58609E+03 -2.56512E+02  5.40599E+03  1.75016E+03  1.12122E+03  3.17211E+03  7.21388E+03
  2.24022E+03  7.29466E+03 -4.04288E+03  5.47910E+03 -9.01712E+02  1.02312E+03 -4.04351E+02  2.99811E+03
 -2.53321E+03 -6.90627E+03  2.17633E+03 -3.86903E+03  1.43078E+03 -6.44970E+02  4.36174E+03  1.09373E+03
  2.29263E+03  4.02228E+03 -1.97207E+03  4.22732E+03  3.42383E+03  1.42583E+03 -2.36631E+03 -3.68929E+03
 -1.80948E+03 -5.92874E+03  4.45842E+02 -4.42895E+03 -1.10484E+03 -6.62405E+03 -6.25694E+01 -2.50025E+03
  2.98308E+03  1.22508E+03 -9.81905E+02  3.35502E+03 -1.97858E+03  6.98675E+02  2.48158E+03  1.51405E+03
 -2.66166E+03 -2.24623E+02  4.66203E+02 -1.15615E+02  3.51806E+03  2.45432E+03 -6.28034E+02  5.04514E+02
 -4.08410E+03  5.74255E+03 -3.04275E+03  2.46472E+03 -3.59624E+03  3.02445E+03 -9.06384E+02 -9.13907E+01
 -3.08473E+03 -1.15137E+03  1.90467E+03 -5.08628E+03 -2.93523E+03  1.47764E+03  2.47220E+03  2.47600E+03
 -3.41467E+03 -7.78314E+02  1.19215E+03 -1.58217E+03 -9.98195E+02  2.14662E+03  6.79668E+03 -2.01813E+03
  1.83532E+03 -1.45027E+03 -1.10013E+03  1.94284E+03 -1.49553E+03 -3.00249E+03  7.18115E+03  2.81996E+03
  6.34623E+02  1.65393E+03  2.94617E+03 -2.65204E+03  2.40870E+03  6.64604E+02 -1.71159E+03 -4.96023E+02
  1.01819E+03  4.03599E+03  4.17035E+03  4.33522E+03 -4.34660E+03  4.01219E+02 -3.40104E+03  3.64805E+03
 -1.72175E+03  4.82634E+02 -2.03691E+03 -8.60042E+02 -1.08004E+03 -1.62564E+03 -2.86698E+03 -1.12580E+02
  2.70796E+01 -2.66277E+03  1.48975E+03  2.62560E+03  3.05906E+03 -9.95477E+02  2.06741E+03  4.45874E+03
 -3.04548E+01 -1.90373E+03  2.49500E+03  8.76487E+02 -1.35216E+02 -7.54442E+01 -3.26189E+03  4.60035E+03
 -4.01278E+03  9.55528E+02 -2.43879E+03  1.93859E+03 -1.57988E+03 -2.76118E+03  5.40884E+02 -5.78785E+02
 -4.19279E+01  1.43652E+03 -4.25105E+02 -4.25820E+03  3.15687E+03 -5.02814E+03  1.92207E+03 -2.54548E+03
 -2.99876E+02  4.10666E+03  6.28544E+03 -1.22842E+03 -3.16171E+03  2.56723E+03  2.14816E+02  2.49289E+03
 -7.72275E+02 -2.18050E+03 -1.50025E+03 -3.08396E+03 -2.23246E+03  2.59071E+03  5.46244E+02 -1.59091E+02
  2.34436E+03  9.21117E+02 -3.19424E+03 -2.32907E+03  2.27801E+03 -1.44386E+03 -5.16257E+03  4.71946E+01
  2.90860E+03  1.21792E+03  5.78012E+03  2.61266E+03  1.01995E+03  2.51793E+03  7.82386E+02  9.77800E+02
  1.33544E+03  4.28211E+03 -1.86581E+03  1.22322E+02 -2.26268E+03  2.92119E+03 -4.69512E+03 -5.29385E+02
 -2.38707E+03 -1.20860E+03 -1.93066E+03 -1.75045E+03  1.83834E+03  1.46874E+03 -1.23748E+03 -4.07419E+01
 -4.35340E+03 -2.40348E+03  5.68819E+02  5.87847E+02 -1.61509E+03 -2.01414E+03 -4.29206E+02  4.00653E+03
  3.03718E+03  1.43097E+03  4.11926E+02  3.68331E+03  1.33181E+03  3.07205E+03  1.70609E+03  4.82117E+03
 -5.06473E+02 -4.33751E+03  1.45722E+03  2.04616E+03 -3.75786E+03 -3.19313E+03  2.65296E+03 -1.33365E+03
  3.36481E+03  1.99769E+02  2.44670E+02  1.70401E+03  1.68234E+03 -8.17908E+02 -1.78975E+03  1.35969E+03
 -1.18640E+03 -1.66642E+03 -4.68017E+03 -2.42768E+02 -6.06064E+03 -8.25546E+02  4.47493E+03 -4.44754E+03
 -5.49510E+03  1.16239E+02  1.42843E+03 -2.56620E+03  7.24766E+02  2.04994E+03 -5.37747E+03 -3.53263E+02
  1.86289E+03 -1.23341E+01 -1.98819E+03  2.13371E+03 -3.23284E+03 -2.26306E+03  5.69019E+01  2.84678E+03
  4.28352E+03  5.21418E+03  1.58561E+03 -2.49790E+02 -2.51615E+03  4.84361E+03  7.89163E+02 -4.43065E+03
