 $NMID ID='MM_0lb_SNR50_17hz_g50_76.RAW', FMTDAT='(8E13.5)'
 TRAMP=1., VOLUME=1. $END
  3.11195E+05  4.17671E+03  3.37554E+05  2.51578E+05  8.37706E+04  3.33789E+05 -1.33307E+05  2.47560E+05
 -1.96031E+05  8.10705E+04 -1.13036E+05 -3.42431E+04  4.08419E+03 -5.27271E+04  5.20474E+04 -4.34121E+02
  3.44231E+04  5.35416E+04 -1.56816E+04  7.40307E+04 -6.08603E+04  6.50410E+04 -8.67636E+04  3.29485E+04
 -8.42369E+04 -1.03637E+04 -5.89474E+04 -5.24813E+04 -1.54239E+04 -6.74780E+04  2.46693E+04 -4.39413E+04
  3.85829E+04  5.03430E+03  1.57594E+04  4.71276E+04 -3.07332E+04  4.45781E+04 -6.41042E+04 -1.02849E+03
 -4.95181E+04 -5.81252E+04 -4.82964E+03 -7.75934E+04  3.00228E+04 -5.45210E+04  4.59587E+04 -1.41612E+04
  4.26517E+04  1.24812E+04  3.28964E+04  2.40221E+04  1.40696E+04  2.77027E+04 -4.73302E+02  2.95505E+04
 -1.73482E+04  9.42645E+03 -1.98819E+04 -6.41205E+03  7.95364E+03 -5.00028E+03  2.25496E+04  1.03483E+04
  7.16998E+03  3.67749E+04 -2.83545E+04  3.32912E+04 -6.15705E+04  3.61832E+03 -5.60337E+04 -4.00614E+04
 -1.07328E+04 -6.13421E+04  3.76229E+04 -4.05677E+04  5.64019E+04 -2.78877E+03  3.14629E+04  2.89174E+04
 -5.69155E+03  3.76029E+04 -2.90882E+04  1.18699E+04 -2.85211E+04 -9.61255E+02 -1.21217E+04 -8.68879E+03
 -5.18384E+03 -9.09812E+03 -2.79717E+03 -1.65547E+04  5.98542E+03 -2.32612E+04  1.68634E+04 -1.56925E+04
  1.80697E+04  3.58095E+03 -6.18497E+03  1.15593E+04 -1.82214E+04 -7.50393E+03 -8.33908E+03 -3.14812E+04
  2.11042E+04 -4.25727E+04  4.79453E+04 -1.75688E+04  3.94943E+04  1.90462E+04  1.10229E+04  4.21333E+04
 -1.47187E+04  3.42026E+04 -2.95949E+04  5.66018E+03 -8.92017E+03 -2.58611E+04  1.39600E+04 -3.34393E+04
  3.72483E+04 -1.37390E+04  3.19693E+04  2.06934E+04  1.67146E+04  4.65729E+04 -7.51058E+03  4.73784E+04
 -3.42797E+04  3.37940E+04 -4.05960E+04  9.17313E+03 -4.19218E+04 -1.61445E+04 -2.15445E+04 -3.66111E+04
  6.70271E+03 -3.68355E+04  3.47969E+04 -1.61251E+04  2.56031E+04  1.33706E+04  3.45465E+03  1.66479E+04
 -1.67669E+04  9.30168E+03 -1.15540E+04 -7.98663E+03  5.68167E+03 -8.80906E+03  1.67060E+04  9.23699E+03
  1.09142E+04  1.80035E+04 -7.95862E+03  2.42589E+04 -2.08468E+04  7.93627E+03 -2.96891E+04 -7.31276E+03
 -1.89425E+04 -1.45363E+04 -5.62726E+03 -2.22660E+04  3.72325E+03 -1.87745E+04  1.29324E+04 -1.45652E+04
  2.38644E+04 -1.04843E+04  3.11131E+04 -1.66790E+03  2.07573E+04  1.41738E+04  5.58540E+03  3.26752E+04
 -1.20242E+04  2.82850E+04 -2.79836E+04  1.20078E+04 -1.95820E+04 -7.43187E+03 -1.04272E+03 -1.16076E+04
  2.93694E+03 -3.26843E+03 -1.70985E+03  5.89136E+03 -1.24658E+04  8.52933E+03 -1.41594E+04 -9.46190E+03
 -1.02594E+04 -2.00855E+04  7.20361E+03 -2.18245E+04  1.17355E+04 -1.38079E+04  1.47619E+04  7.72192E-01
  7.33742E+03  8.25803E+03 -3.36658E+02  1.51955E+04 -1.26035E+04  6.96435E+03 -1.54242E+04 -3.80655E+03
 -1.45087E+04 -1.56259E+04 -4.79179E+03 -2.35777E+04  1.20152E+04 -1.85419E+04  1.61012E+04 -7.66011E+03
  2.05586E+04 -4.52158E+02  1.57745E+04  6.43918E+03  3.55912E+03 -2.44272E+02  1.11993E+04  4.31026E+02
  1.35675E+04  2.66833E+03  2.25430E+04  1.54134E+04  1.14414E+04  2.81700E+04 -1.46786E+03  2.94799E+04
 -1.75941E+04  2.42450E+04 -2.61090E+04  9.30679E+03 -2.84963E+04 -7.10371E+02 -2.57165E+04 -1.73654E+04
 -1.04762E+04 -2.15660E+04  6.67879E+03 -2.18417E+04  1.63803E+04 -1.28856E+04  1.97328E+04  6.61003E+03
  8.60508E+03  1.38628E+04 -9.57394E+03  9.72991E+03 -1.90613E+04  6.77515E+03 -9.87703E+03 -1.08290E+04
 -3.94483E+03 -1.15647E+04  6.47680E+03 -1.20458E+04  1.04063E+04 -1.17610E+03  9.19916E+01  5.79525E+03
 -5.77133E+03 -2.19092E+03 -6.74856E+03 -9.01467E+03  2.63863E+03 -1.35749E+04  1.76018E+03 -1.44841E+04
  1.86771E+04 -6.20757E+03  1.32438E+04  2.71291E+03  1.30185E+04  1.45569E+04  6.14325E+03  2.00969E+04
  1.92815E+03  1.50710E+04 -1.22167E+04  1.13400E+04 -1.08805E+04  6.36306E+03 -9.14030E+03 -4.88353E+03
 -6.79042E+03 -3.91746E+03 -4.00889E+03 -2.38918E+03 -3.43462E+03  3.97636E+03 -1.57130E+03  9.90597E+02
 -7.46570E+03  2.55840E+03 -1.04962E+04 -1.15969E+04  2.01121E+03 -1.19523E+04  2.15371E+03 -1.07295E+04
  8.89506E+03 -3.43529E+03  4.76149E+03 -4.06026E+03 -1.02517E+03  6.35014E+03 -1.47715E+03 -4.27764E+03
 -2.44576E+03 -1.04739E+04  5.90649E+02 -5.04760E+03  2.62317E+03 -6.31900E+03  9.10660E+03 -4.78937E+03
  9.70767E+03 -7.87290E+02  1.47194E+04  2.94055E+03 -7.68626E+02  9.67566E+03 -6.11240E+03  1.12040E+04
 -9.24574E+03  3.49737E+03 -2.80061E+03 -1.01107E+03 -3.70059E+02  1.28266E+03  8.93531E+02 -7.11115E+03
  4.42786E+03 -1.70006E+03  2.90748E+03  6.89295E+03 -7.23856E+03  6.15584E+03 -8.99373E+03 -3.19365E+02
 -6.27909E+03 -3.36094E+03  3.00433E+03 -7.51722E+03  3.29196E+03 -5.46090E+03  4.54281E+03  1.07878E+03
  6.02652E+02  5.42289E+03 -5.26238E+03  2.45023E+03 -7.20963E+03  3.12139E+03 -7.89010E+02 -8.02466E+02
 -5.02093E+03 -4.07546E+03  5.44034E+03 -9.39153E+03  6.25697E+03 -8.38997E+03  4.38228E+03 -2.50909E+03
 -9.97345E+01  5.99818E+03 -3.62187E+03  1.22877E+04 -9.02253E+03  7.56862E+03 -3.39763E+03 -5.77301E+03
 -6.22827E+03 -1.74323E+03 -2.17064E+03 -9.39121E+03  5.95974E+03 -4.54858E+03  2.36951E+03 -5.45655E+03
  3.92326E+03 -2.41569E+03  1.64075E+03 -7.06924E+02  2.68910E+03  3.96117E+02  1.23052E+03 -2.46172E+03
  9.15603E+03  3.33426E+03  9.25892E+03  2.18340E+03  1.00300E+04  2.23443E+03  3.65694E+03  9.58319E+03
 -2.78584E+03  8.02996E+03 -7.49286E+03  3.00598E+03 -9.77292E+03  3.32633E+03 -6.19549E+03 -3.34793E+03
 -6.62946E+03 -7.50521E+03  1.33792E+03 -4.67349E+03  7.75741E+03 -1.50407E+03 -3.96851E+02 -2.67901E+03
  4.43996E+03 -4.22079E+03  2.02216E+03 -1.20264E+03  4.29930E+03 -2.79182E+03  3.75863E+03  2.43769E+03
  6.52772E+03  1.75810E+03  2.60314E+03  6.08412E+03 -6.18248E+02  2.69821E+03 -6.01423E+03  3.87480E+03
 -7.26604E+03 -2.11994E+03 -4.66719E+03 -5.32427E+03 -1.16800E+03 -6.19793E+03  1.14791E+03 -5.71559E+03
  7.59392E+03 -5.56816E+03  8.55084E+03 -4.40818E+02  6.00707E+03  3.62546E+03  2.57058E+03  8.92799E+03
 -2.52493E+03  3.97373E+03 -6.11024E+03  6.72886E+03 -2.28304E+03 -6.05422E+03 -2.07666E+03 -1.24226E+03
 -1.09591E+03 -3.60162E+02 -3.07465E+03  2.15243E+03 -4.69451E+02 -1.45896E+03 -5.68382E+03  1.95991E+03
  1.86525E+03 -2.84555E+03 -1.54814E+03 -8.53734E+03 -8.83015E+02 -1.97933E+03  4.67571E+03 -3.78491E+03
  5.41745E+03  1.00768E+03  2.48636E+03  3.85649E+03 -4.80242E+03  2.19563E+03 -3.65391E+03  4.66430E+03
 -6.14858E+03 -3.03317E+03 -3.40581E+03 -8.66742E+03  1.89216E+03 -5.82201E+03  1.41407E+03 -8.52450E+03
  4.24418E+03 -5.46381E+03 -4.76750E+02  6.31771E+03  4.62033E+03  4.12485E+03  4.61556E+03  1.13090E+03
 -3.20076E+03  1.73583E+03 -1.98328E+03  9.92024E+01  3.75225E+03  7.06123E+03  2.96992E+03  2.16918E+03
 -1.26897E+03  3.86516E+03 -7.67311E+03  3.92154E+03 -4.56842E+03  3.20440E+03 -2.11909E+03 -7.65141E+02
 -4.76431E+02 -5.26975E+03 -3.67049E+03 -7.62942E+03  4.29338E+03 -5.09269E+03  1.95489E+03  9.56218E+02
  6.98171E+03 -9.57384E+02 -1.09442E+03  2.53172E+03  1.85815E+03  4.38562E+01 -2.26996E+03 -2.10105E+03
 -4.25690E+03 -7.73077E+03  2.98651E+03 -3.36006E+03  7.99841E+03 -7.41459E+03  6.20330E+02  5.32430E+03
  4.14151E+03  2.82241E+03  5.34971E+03 -6.70389E+01  2.64466E+02 -2.16144E+03  3.13038E+03 -4.57024E+03
 -7.90117E+02 -7.21528E+02  4.60947E+03 -1.52544E+03  3.54647E+02  5.48959E+03  3.86190E+03  4.13195E+03
 -3.22337E+03  3.49247E+03 -3.21398E+03  8.00016E+02 -6.66742E+03  5.04856E+02  2.12600E+03 -7.88281E+02
  1.29951E+03 -5.83448E+03 -3.99499E+02 -9.69561E+02  2.44871E+02  4.05153E+03 -5.05295E+03  1.92415E+03
 -2.53316E+03  2.40405E+03 -5.88634E+03 -2.78887E+03 -2.05306E+03 -4.79986E+01 -1.07708E+03 -1.97771E+03
  1.95912E+03 -3.10148E+03  2.25062E+03  3.81650E+03  8.18040E+02  1.77772E+03  2.78758E+02  3.41926E+03
  4.13852E+03  2.41253E+03 -2.50756E+03  4.03813E+03 -4.43001E+01 -1.97389E+03  5.35935E+03 -7.56171E+02
  6.78283E+03 -2.56781E+03  6.99296E+01  3.88479E+03  3.62965E+03  7.78597E+02 -3.15849E+03  2.15881E+03
  4.13659E+03 -1.14560E+03 -4.74164E+03  2.25877E+03 -3.72858E+03 -1.27914E+03  1.55580E+03 -6.69343E+03
  2.10537E+03  1.98641E+03  5.79763E+03 -1.62916E+03  1.55923E+02 -9.13843E+02 -3.72347E+03 -4.17643E+03
  3.44339E+02  9.00391E+02  6.13537E+02  1.74624E+03  2.79673E+03 -3.11007E+02 -1.07149E+03 -8.16647E+02
  6.10298E+02  6.71023E+02 -1.89687E+03  1.78439E+03  2.20209E+03 -2.23024E+03 -1.46894E+03 -1.45633E+03
 -1.62014E+03 -5.22132E+03  1.83467E+03 -4.34536E+03  4.43649E+03 -7.90264E+03  8.93134E+02 -3.19880E+03
  2.48651E+03 -1.95767E+03  4.97808E+03  4.11143E+03 -1.50419E+03  2.38767E+03 -3.38560E+02  1.53746E+03
 -2.15149E+03  7.47319E+02 -4.34209E+02  4.81784E+03 -3.72068E+02 -1.41593E+03  2.58926E+03 -2.32688E+03
 -5.23806E+03 -2.23759E+03 -1.10100E+03 -1.82826E+03  3.16215E+03 -1.12723E+03  8.80485E+02 -1.01804E+03
  1.82416E+03  1.20488E+03  1.22239E+03  3.22629E+03 -6.12955E+02  1.70777E+03  8.21049E+02  4.08342E+02
 -3.73346E+03 -1.05132E+03 -1.70800E+03  9.40781E+02 -4.13776E+03  4.05284E+01 -4.62881E+02 -4.55110E+03
  6.50957E+02 -1.36156E+03  8.99015E+02 -2.28618E+03 -7.86223E+02  2.01718E+03 -9.03320E+02 -1.85670E+03
 -3.58595E+03  2.93751E+03  2.29549E+03  1.27082E+03 -7.26517E+01  1.90378E+03  1.11462E+03  3.43028E+03
  7.83240E+02 -6.33071E+03 -1.66701E+03  2.54530E+02  5.77206E+02 -5.33134E+02  1.26408E+02 -1.06928E+02
  6.05509E+02 -1.17287E+03 -3.78722E+03  1.29915E+02 -8.06536E+02 -1.97278E+03 -1.24693E+03 -8.32128E+02
 -1.28097E+03 -1.41568E+03  2.00253E+03 -3.89673E+03  9.65167E+02 -2.34413E+03  1.30908E+03  3.22617E+03
  3.92276E+03  4.91975E+03  3.27084E+03  3.00841E+03  5.40369E+03 -2.61191E+03 -2.16493E+03  5.35291E+03
 -6.92120E+02  8.48023E+02 -1.30833E+03 -3.52127E+03 -2.17122E+03  1.25019E+03  1.08460E+03  5.06601E+02
 -3.57841E+03 -1.73479E+03 -2.82182E+03  3.97386E+02 -3.24583E+03 -2.27696E+03  2.64365E+03 -4.24741E+03
  2.00375E+03 -1.66205E+03  1.61354E+03 -3.20650E+03  9.93083E+02  9.77467E+02 -1.30972E+03 -2.93664E+03
