 $NMID ID='MM_0lb_SNR50_15hz_g45_89.RAW', FMTDAT='(8E13.5)'
 TRAMP=1., VOLUME=1. $END
  3.08717E+05  3.37951E+03  3.31913E+05  2.47206E+05  8.45596E+04  3.41142E+05 -1.27938E+05  2.50066E+05
 -1.92713E+05  8.33553E+04 -1.15622E+05 -2.91517E+04  2.34441E+02 -4.96668E+04  5.17793E+04  1.48622E+03
  3.00407E+04  5.39660E+04 -1.54694E+04  7.18985E+04 -6.12463E+04  5.90074E+04 -8.44169E+04  2.75526E+04
 -8.33681E+04 -9.99362E+03 -4.89300E+04 -5.35197E+04 -1.32511E+04 -7.09199E+04  2.71210E+04 -4.34956E+04
  4.05433E+04  4.73361E+03  1.61858E+04  4.71501E+04 -2.84761E+04  4.44665E+04 -6.80259E+04 -1.81145E+03
 -5.31737E+04 -5.78401E+04 -5.31744E+03 -7.96067E+04  3.76299E+04 -5.58595E+04  4.85989E+04 -1.47601E+04
  3.99502E+04  1.08771E+04  3.32851E+04  2.73251E+04  1.54767E+04  3.04855E+04 -2.59137E+03  2.62927E+04
 -1.99704E+04  8.29943E+03 -2.14944E+04  1.23322E+03  5.49802E+03 -1.15703E+04  2.09950E+04  1.02844E+04
  1.19585E+04  3.52453E+04 -3.10822E+04  3.32711E+04 -6.47246E+04  2.54833E+03 -5.56721E+04 -3.89715E+04
 -1.69962E+04 -6.35745E+04  4.07885E+04 -4.27673E+04  5.65732E+04 -3.14889E+03  3.14663E+04  2.63025E+04
 -7.09941E+03  3.65222E+04 -3.09503E+04  1.34633E+04 -3.22432E+04 -4.44421E+03 -1.45918E+04 -8.44584E+03
 -6.93666E+03 -1.38281E+04  1.67352E+03 -1.60121E+04  8.84870E+03 -2.31075E+04  1.66860E+04 -2.05122E+04
  9.87172E+03  4.17490E+03 -3.79643E+03  1.16447E+04 -2.23084E+04 -6.24523E+03 -9.42272E+03 -3.27416E+04
  1.85978E+04 -4.30710E+04  4.95818E+04 -1.99152E+04  3.85332E+04  1.95807E+04  1.70002E+04  5.27069E+04
 -1.58042E+04  3.27379E+04 -2.50234E+04  2.26582E+02 -1.13425E+04 -2.50441E+04  1.97024E+04 -3.43000E+04
  4.16150E+04 -7.91559E+03  3.36687E+04  2.50523E+04  1.90597E+04  3.98066E+04 -6.99193E+03  4.67111E+04
 -3.15403E+04  2.92032E+04 -3.70863E+04  1.03962E+04 -4.12739E+04 -1.29976E+04 -1.84185E+04 -3.64930E+04
  4.05933E+03 -3.48301E+04  2.68086E+04 -2.09595E+04  3.11640E+04  9.08599E+03  6.41580E+03  1.91138E+04
 -1.26019E+04  8.22768E+03 -1.16043E+04 -7.96072E+03  7.91862E+03 -1.27405E+04  1.56768E+04  2.83105E+03
  8.38092E+03  2.30447E+04 -8.51044E+03  2.09326E+04 -2.45437E+04  1.03815E+04 -2.94314E+04 -6.66916E+03
 -1.65678E+04 -1.60309E+04 -6.53996E+03 -1.53362E+04  3.71065E+03 -2.29821E+04  9.10341E+03 -1.44343E+04
  2.42836E+04 -1.19162E+04  3.32188E+04  2.66228E+03  2.50438E+04  1.71732E+04  3.37638E+02  3.84708E+04
 -1.39648E+04  2.62625E+04 -2.91168E+04  1.05704E+04 -1.99807E+04 -1.32829E+04 -7.06713E+03 -1.63253E+04
  3.41940E+03 -5.54904E+03 -3.51187E+03  3.93957E+03 -1.43551E+04  4.82518E+03 -1.44329E+04 -8.78953E+03
 -7.11879E+03 -1.62879E+04  7.97147E+03 -1.83901E+04  1.71422E+04 -1.64562E+04  1.47240E+04 -4.53846E+03
  1.48567E+04  1.39395E+04  1.60998E+01  2.11986E+04 -1.29773E+04  1.07989E+04 -1.94775E+04 -5.88507E+03
 -1.28232E+04 -1.45049E+04 -3.14853E+03 -2.15476E+04  1.11382E+04 -1.60629E+04  2.10793E+04 -9.80951E+03
  1.96569E+04 -4.25418E+03  8.34121E+03  1.61296E+03  4.46696E+03  8.67976E+02  9.69863E+03 -2.56149E+03
  1.49223E+04  1.79147E+03  2.02834E+04  1.04661E+04  1.65116E+04  2.70118E+04 -5.42264E+02  2.83881E+04
 -2.39445E+04  2.77127E+04 -2.98094E+04  1.10938E+04 -3.47294E+04  1.64336E+03 -2.55099E+04 -1.57937E+04
 -1.11421E+04 -2.79888E+04  7.60053E+03 -2.18926E+04  2.08385E+04 -6.90590E+03  1.44032E+04  5.17276E+03
  4.53796E+03  1.53220E+04 -6.57931E+03  1.06877E+04 -1.43411E+04  1.76032E+03 -1.03255E+04 -1.34040E+04
  3.15601E+03 -2.09245E+04  1.15465E+04 -9.89577E+03  7.30299E+03 -4.04581E+03  3.30963E+03  2.48528E+03
 -1.54088E+03  5.18416E+03 -3.10937E+03 -3.78247E+03  3.02689E+03 -9.71896E+03  1.07206E+04 -1.02639E+04
  1.54082E+04 -6.96251E+03  1.72385E+04  1.34718E+03  1.43113E+04  8.75352E+03  9.43984E+03  2.03884E+04
 -3.81471E+03  2.17083E+04 -1.13166E+04  1.46283E+04 -9.46924E+03  6.78308E+02 -9.93120E+03 -5.71208E+03
 -5.44450E+03 -4.46365E+03  3.50906E+03  2.19328E+03 -1.78783E+03  3.49564E+03  1.41912E+02  2.74801E+03
 -1.27872E+04 -2.85049E+03 -1.31816E+04 -6.63603E+03 -3.25833E+03 -9.30713E+03  8.61770E+03 -1.10249E+04
  9.88365E+03 -6.68022E+03  5.50587E+03  3.77702E+03 -2.85740E+03  6.41316E+02 -2.43622E+03  1.29365E+03
 -5.39758E+03 -8.51168E+03  2.42981E+03 -1.07520E+04  2.10249E+03 -1.44565E+04  1.44293E+04 -6.69478E+03
  1.14441E+04  1.49818E+03  6.37286E+03  4.11643E+03  1.66963E+03  1.22754E+04 -4.10290E+03  1.66326E+04
 -6.94782E+03  9.06720E+03 -3.65893E+03 -2.36214E+03  4.12270E+03 -5.50699E+03  9.12642E+03 -5.41029E+02
  1.04381E+04  5.27970E+03  5.76542E+03  6.02450E+03 -5.15968E+03  9.88818E+03 -9.52572E+03  1.79016E+03
 -3.25009E+03 -3.13941E+03  3.98947E+03 -1.22188E+04  3.02073E+03 -5.94095E+03  7.15293E+03 -3.88922E+03
  2.80607E+03  5.11615E+03 -7.29933E+03  6.25918E+03 -6.26414E+03  2.55891E+03 -9.95643E+03 -3.01223E+03
 -2.22461E+03 -4.47075E+03 -1.04633E+03 -1.22203E+04  7.99016E+03 -2.98509E+03  8.86185E+03  2.22219E+03
  2.94744E+03  6.47712E+03 -2.63137E+03  6.07412E+03 -1.84176E+03  4.52922E+03 -7.02604E+03 -2.19856E+03
 -7.99094E+03 -1.86703E+03 -6.66223E+03 -3.31566E+03  1.09458E+04 -4.95051E+03  8.40552E+03 -5.86384E+01
  5.98776E+03 -4.53179E+02 -4.77094E+03  2.58519E+03 -1.77038E+02  6.39089E+02 -2.52521E+03 -5.83035E+03
  5.58867E+03  4.01481E+02  5.33019E+03 -2.63396E+03  1.19166E+04  7.00090E+03  3.38730E+03  1.22582E+04
 -5.88434E+03  1.71198E+04 -1.43848E+04  8.15661E+03 -1.25676E+04  3.18254E+03 -1.34320E+04 -7.95773E+03
 -5.72296E+03 -6.80224E+03 -4.49065E+03 -2.99051E+03  7.36857E+03 -6.06320E+03  3.10196E+03 -6.53770E+03
  6.79147E+03  7.54697E+02  6.86222E+03 -1.40920E+03  1.12211E+03 -4.24010E+03  2.81273E+03 -2.75271E+03
  1.04137E+04  1.56776E+02  4.40923E+03  4.12413E+03 -1.75866E+03  4.06123E+03 -4.14375E+03  5.65256E+03
 -8.45442E+03 -3.34244E+03 -3.25819E+03 -4.66288E+03  1.77104E+03 -3.11980E+03  7.06132E+03 -2.54695E+03
  1.26797E+04  1.45011E+02  1.25345E+04  4.86163E+03  5.62857E+03  7.18854E+03  3.83474E+02  7.61574E+03
 -1.15366E+03  1.07026E+04 -5.20379E+03  4.70157E+03 -7.51940E+03 -5.26245E+03  7.82090E+01  1.53379E+03
 -1.86688E+02  4.82944E+03  9.48441E+02  6.00301E+03 -5.47886E+03  3.23487E+03 -8.81687E+03 -1.92672E+03
 -5.08667E+03 -9.32412E+03  2.26651E+03 -3.44890E+03  2.68478E+03 -9.38818E+03  2.99170E+00 -2.86410E+03
  7.29914E+03  2.39354E+03  3.86003E+03  3.92621E+02 -4.94864E+03  6.14981E+03 -8.64377E+03  3.70399E+02
 -1.80958E+03  2.34627E+03 -5.00055E+03 -2.62423E+03 -3.43163E+03 -5.47067E+03  2.26600E+03 -5.45898E+03
  7.08784E+03 -2.76636E+03 -1.42155E+03  1.01991E+03  4.22946E+03  2.34646E+03 -1.67697E+03  2.85811E+03
 -2.08832E+02  2.75631E+02 -1.28186E+03 -1.26409E+03  1.62887E+03 -3.88186E+01  4.83815E+03  8.37886E+03
 -1.31685E+03  6.31048E+03 -5.97738E+03  2.90401E+03 -8.96037E+03  3.79232E+03 -9.11220E+03 -7.81874E+02
 -1.61949E+03 -4.11408E+03 -1.53172E+03 -9.88517E+03  6.50150E+03 -9.99971E+03  6.79089E+03  3.55800E+02
  2.96761E+03  2.62797E+03 -1.70844E+03  3.22109E+03 -4.07493E+02  3.29843E+03 -5.07051E+03 -2.39948E+03
 -1.93841E+03 -1.61510E+03  3.12242E+03 -8.44110E+03  6.47233E+03 -2.79176E+03  6.57917E+03  3.04944E+03
  1.55511E+02  3.68861E+03 -1.47543E+03  1.01358E+03 -1.56468E+03  5.79938E+02  2.26379E+03 -7.18078E+02
 -3.22326E+01 -1.84423E+03  1.00216E+03  3.37056E+03 -8.71993E+02  7.00084E+03 -2.74090E+03  1.93226E+03
 -5.25985E+03  4.86387E+03 -1.43298E+03  1.21984E+03 -3.91752E+03  2.95279E+03  1.92791E+03 -1.50352E+03
  1.97804E+03 -4.14488E+03 -2.28283E+03  9.90424E+02  1.19286E+03  4.89805E+03 -1.46593E+03  3.19319E+03
 -1.38835E+03 -9.81023E+02  1.11416E+03 -5.88152E+03 -3.03485E+03 -7.35826E+03 -1.78733E+03 -6.47034E+02
  7.33588E+02  1.67128E+03  2.03650E+03 -3.96092E+03  2.94498E+03  2.51442E+03 -8.11251E+02  3.14307E+03
 -2.44720E+03 -2.32258E+03 -5.20242E+03 -3.98512E+03 -1.53756E+03 -4.18846E+03 -1.36771E+02 -1.98383E+03
  8.14760E+03 -2.57571E+03  7.38734E+03  5.17689E+03  4.93773E+03  4.49027E+03 -1.03781E+03  4.06777E+03
 -9.42433E+02  3.10585E+03 -5.53052E+03 -7.91091E+02 -4.16081E+03 -5.51802E+03 -1.50924E+03 -1.65287E+03
  3.76968E+02  3.22682E+03  4.41055E+03  3.47734E+03  3.56423E+03  4.33749E+03  1.75489E+03  1.12629E+03
 -3.14299E+03  2.32237E+03 -2.62397E+02  5.57064E+03 -4.50082E+02 -1.16076E+03 -1.75035E+03  2.90289E+03
 -2.86998E+03  3.65141E+03 -2.09068E+03  2.28934E+03 -1.47446E+03  2.78043E+03 -2.58334E+03 -3.58699E+03
 -3.47500E+03 -4.14011E+03  2.29581E+03 -5.36352E+03  2.56255E+03 -5.95727E+03  3.44408E+03 -1.17165E+03
  3.36618E+03 -1.82442E+03  6.56674E+03  1.34792E+03 -3.42755E+02  4.40169E+03  3.56768E+02  7.83197E+03
 -1.35365E+03  2.35400E+03  8.19516E+02 -5.49958E+03  2.46262E+03 -1.80288E+03  3.01423E+02 -2.22762E+03
 -3.21786E+03 -5.17242E+03  1.23520E+03 -4.77303E+02  2.99120E+03  2.27371E+03  1.03771E+03 -4.80177E+03
 -2.81482E+03 -2.43331E+03  1.51200E+03 -2.59408E+03  6.38373E+02  1.92474E+03  3.66632E+03 -9.11203E+02
 -5.00359E+03  2.10609E+03 -2.99549E+03  2.35122E+03 -3.93732E+03  5.80438E+02 -8.27059E+03 -5.54229E+03
 -4.20620E+02  1.25462E+02 -4.58933E+03 -2.19610E+03 -2.15616E+03 -2.58078E+03  5.34417E+02 -4.96890E+03
  2.53887E+03  6.22443E+03  6.48980E+02  2.75961E+03  2.33927E+03 -1.35775E+03 -3.99947E+03 -4.77338E+03
 -1.47983E+03  2.87446E+02 -3.61993E+03 -1.95383E+01  1.62004E+03 -2.78588E+02 -1.29792E+03 -1.27570E+03
  7.22221E+02  2.62607E+03  1.19949E+03 -7.13707E+02 -2.16276E+02 -1.09338E+03 -3.69674E+03 -3.32338E+03
  2.62548E+03 -1.27698E+03 -1.51994E+02 -7.43058E+02  1.60086E+03 -1.91730E+03  3.12116E+03  2.06654E+02
 -3.32490E+03  3.09353E+03  1.54658E+03  2.40356E+03  5.22475E+02  2.82602E+03 -3.96649E+03 -2.46348E+03
  1.59678E+03  4.53800E+02 -2.29833E+03  1.86607E+03 -2.71134E+03 -1.83599E+01 -3.62055E+03 -4.40199E+03
  4.11098E+03  5.09953E+03  3.10339E+03 -1.07102E+03 -2.91760E+03 -2.59222E+02  5.03269E+03 -4.90303E+02
  1.40365E+03 -6.01386E+02  1.13333E+03  2.16522E+03 -5.97906E+03  4.49783E+03  1.69977E+03  1.52907E+03
