 $NMID ID='MM_0lb_SNR50_7hz_g55_16.RAW', FMTDAT='(8E13.5)'
 TRAMP=1., VOLUME=1. $END
  3.13780E+05 -6.13432E+02  3.39090E+05  2.52869E+05  8.86172E+04  3.34493E+05 -1.38184E+05  2.45583E+05
 -1.85410E+05  8.13278E+04 -1.09641E+05 -2.42208E+04 -7.58185E+02 -5.43120E+04  5.56167E+04 -3.39644E+03
  3.62550E+04  5.35972E+04 -2.37406E+04  7.86324E+04 -6.68676E+04  6.52098E+04 -7.98796E+04  2.81130E+04
 -7.07618E+04 -8.26814E+03 -5.50630E+04 -5.60310E+04 -9.47790E+03 -7.85749E+04  2.49872E+04 -5.05854E+04
  4.25921E+04  1.12360E+03  1.89161E+04  4.73160E+04 -4.37611E+04  4.21421E+04 -7.07973E+04  3.14931E+03
 -5.20996E+04 -6.83235E+04 -1.88034E+04 -7.69414E+04  3.69467E+04 -5.73782E+04  4.51036E+04 -1.91728E+04
  4.66615E+04  1.34728E+04  4.27455E+04  3.14478E+04  2.28474E+04  3.32876E+04 -1.09640E+04  2.38164E+04
 -2.23644E+04  1.61567E+04 -1.36988E+04  3.67789E+03 -4.77552E+02 -7.59266E+03  2.41989E+04  1.42664E+04
  1.27596E+04  3.90386E+04 -3.87654E+04  3.62735E+04 -7.17537E+04  4.74783E+03 -5.77528E+04 -4.11470E+04
 -1.59377E+04 -6.34897E+04  4.76986E+04 -4.56151E+04  6.01833E+04 -2.55247E+03  3.32982E+04  3.33699E+04
  3.75411E+03  3.80069E+04 -4.15803E+04  2.11735E+04 -4.32355E+04 -1.43829E+04 -1.89814E+04 -1.58343E+04
 -1.54371E+04 -2.04086E+04 -5.79306E+03 -2.09214E+04  2.99998E+03 -2.42153E+04  1.76300E+04 -9.46851E+03
  1.56146E+04  1.11808E+04 -1.01862E+04  1.70132E+04 -2.59033E+04  2.77550E+03 -6.69617E+03 -4.29998E+04
  2.23898E+04 -4.18658E+04  5.73400E+04 -2.08798E+04  5.03679E+04  1.50353E+04  1.90075E+04  5.06670E+04
 -1.75302E+04  3.94676E+04 -2.94494E+04 -2.10873E+02 -1.59380E+04 -3.30534E+04  1.97935E+04 -3.43725E+04
  3.45241E+04 -1.05893E+04  3.76505E+04  2.38862E+04  2.28155E+04  5.48245E+04 -1.75734E+03  5.47420E+04
 -3.85219E+04  3.96511E+04 -5.36363E+04  1.40378E+04 -5.08780E+04 -2.43855E+04 -3.23437E+04 -5.00079E+04
  1.50534E+04 -4.24927E+04  2.53744E+04 -1.71840E+04  3.70731E+04  9.01190E+03  4.83276E+03  2.27256E+04
 -1.14712E+04  1.82318E+04 -7.50489E+03 -7.32396E+03  5.95289E+03 -4.76465E+03  1.55822E+04 -8.17695E+02
  1.91926E+04  2.43474E+04 -4.66017E+03  2.97802E+04 -2.44242E+04  1.55114E+04 -2.70062E+04  6.59265E+03
 -3.27287E+04 -1.72974E+04 -8.22948E+03 -2.80518E+04  1.62265E+03 -2.82835E+04  1.94358E+04 -2.28285E+04
  3.67411E+04 -9.10791E+03  4.21160E+04  3.78291E+03  3.02541E+04  2.47637E+04  1.00661E+03  4.84214E+04
 -2.54016E+04  3.16197E+04 -3.49087E+04  9.70356E+02 -1.81775E+04 -1.48441E+04  5.53214E+02 -1.41528E+04
  9.01524E+02 -2.82752E+03 -8.52694E+03  1.02181E+04 -2.25524E+04  5.47644E+03 -1.03631E+04 -1.63729E+04
 -1.30817E+04 -3.76427E+04  6.04064E+02 -3.01421E+04  2.18497E+04 -1.64625E+04  2.51051E+04 -1.20570E+04
  1.79072E+04  1.57013E+04 -1.12876E+03  2.59633E+04 -1.74632E+04  1.66270E+04 -2.22252E+04 -1.28784E+04
 -1.56003E+04 -2.43516E+04 -4.84450E+03 -2.59158E+04  1.27212E+04 -3.21537E+04  2.65611E+04 -7.59404E+03
  2.65997E+04  2.39801E+03  1.19517E+04  7.47696E+03  6.50284E+03  1.33988E+04  7.75359E+03 -4.08543E+03
  2.17053E+04 -7.33028E+03  3.01406E+04  1.86741E+04  2.15095E+04  4.27643E+04 -7.01144E+03  4.87165E+04
 -3.12568E+04  5.09893E+04 -4.94057E+04  1.17608E+04 -4.26234E+04 -1.05261E+04 -4.13340E+04 -2.96500E+04
 -1.89030E+04 -4.35985E+04  1.29396E+04 -3.95854E+04  2.93604E+04 -8.28684E+03  2.27763E+04  7.90295E+03
  1.96675E+03  2.20993E+04 -1.44690E+04  8.15916E+03 -1.77643E+04  2.42757E+03 -1.82965E+04 -2.25255E+04
  4.41667E+03 -1.81446E+04  2.10141E+04 -7.51049E+03  1.33077E+04  3.63336E+03  1.65476E+03  6.47243E+03
 -3.21168E+03  9.64858E+03 -1.29438E+04 -8.25417E+03 -4.61013E+03 -2.91676E+04  1.38721E+04 -2.08188E+04
  2.59196E+04 -1.26227E+04  2.34019E+04 -4.82735E+03  3.18365E+04  2.18774E+04  1.07091E+04  3.64327E+04
 -7.63830E+03  3.80316E+04 -1.89550E+04  2.25285E+04 -2.78105E+04  4.56046E+03 -2.41776E+04 -1.49941E+04
 -5.59964E+03 -8.85702E+03 -1.09314E+03 -6.31565E+03 -9.06542E+03  6.50511E+03 -2.91817E+03  1.03097E+04
 -1.61353E+04 -7.22272E+02 -2.08228E+04 -1.43095E+04 -1.16548E+04 -2.16365E+04  1.09824E+04 -2.30201E+04
  1.95010E+04 -6.16418E+03  1.36999E+04  4.87647E+03  2.75069E+03  3.05773E+03 -9.09592E+03 -4.88914E+03
 -5.96302E+03 -1.34083E+04  3.25509E+03 -1.13580E+04  1.56298E+04 -2.89891E+04  2.16036E+04 -6.36842E+03
  2.54865E+04  9.59624E+03  2.39333E+04  2.08160E+04  2.26258E+03  1.05173E+04 -1.11652E+04  2.61429E+04
 -7.45508E+03  3.81947E+03 -5.14384E+03 -3.46700E+03  3.00233E+03 -2.37735E+03  1.15661E+04 -6.68360E+03
  1.62702E+04  9.53157E+03  6.57005E+03  2.20646E+03 -1.08582E+04  1.32290E+04 -2.42726E+04  2.29161E+03
 -1.66390E+04 -9.20810E+03 -1.54877E+03 -1.57642E+04  1.10359E+04 -6.16538E+03  6.89547E+03  3.40043E+03
  3.86082E+03  1.47534E+04 -1.17142E+04  8.09532E+03 -1.10215E+04  9.93687E+03 -1.74166E+04 -5.10886E+03
 -1.24924E+04 -2.09291E+04  5.13804E+03 -2.37762E+04  1.60518E+04 -1.64621E+04  1.77021E+04  4.03715E+03
  1.44906E+04  1.90929E+04 -4.63029E+03  1.96911E+04 -2.19651E+04  1.36613E+04 -8.53759E+03 -3.99913E+02
 -1.12585E+04 -6.80654E+03 -7.90285E+03 -1.49458E+04  7.33715E+03 -1.51296E+04  6.14980E+03 -1.58937E+03
  8.62784E+03  3.45472E+03 -4.35016E+03  1.07166E+02 -1.84066E+03 -5.76249E+03  2.02560E+03 -1.34845E+04
  2.02746E+04 -7.82947E+03  2.20240E+04  4.18089E+02  2.12469E+04  1.73745E+04  1.28046E+04  2.32884E+04
 -5.88118E+02  3.54573E+04 -2.08979E+04  2.65264E+04 -3.14074E+04  8.85238E+03 -2.48578E+04 -2.87386E+03
 -1.45549E+04 -2.06544E+04 -2.83067E+03 -2.62423E+04  1.44221E+03 -1.71470E+04  4.31558E+03 -1.41786E+04
 -1.26322E+03 -5.90500E+03  2.64060E+03 -4.72508E+03  8.79092E+03 -5.23732E+03  1.03285E+04 -5.72717E+03
  1.07161E+04  5.41195E+03  5.08920E+03  1.89143E+04  1.36625E+03  1.33550E+04 -1.05462E+04  1.53818E+04
 -1.56235E+04  4.08344E+03 -7.10302E+03 -1.23234E+04 -3.81566E+03 -1.48165E+04  1.46687E+04 -2.33284E+04
  2.04235E+04 -9.73736E+03  2.16318E+04  4.80187E+03  2.22102E+04  1.26658E+04  4.13461E+03  2.15144E+04
 -8.88137E+03  1.90662E+04 -1.09269E+04  3.74599E+03 -1.90836E+04  6.87731E+01 -3.27720E+03 -4.06387E+03
 -5.58508E+03 -3.69421E+03 -2.01832E+03  1.02175E+03 -1.45739E+04  3.91608E+03 -8.90807E+03 -6.64909E+02
 -4.19077E+03 -1.60228E+04  3.82358E+03 -2.36876E+04  8.23334E+03 -1.26665E+04  2.28181E+04 -1.02550E+03
  2.20207E+04  8.71815E+03  6.37439E+03  2.20441E+04  2.26387E+03  2.83197E+04 -1.62139E+04  8.11790E+03
 -1.77098E+04  3.96183E+03 -2.63443E+04 -9.96559E+03 -5.94274E+03 -1.43748E+04  6.86616E+03 -1.28611E+04
  1.52868E+04 -3.04748E+03  9.81134E+03  3.78219E+03 -4.75523E+03  4.28120E+03 -2.87825E+02  1.69116E+03
  4.68565E+03  1.45502E+03 -4.40249E+02 -2.53359E+03 -9.65146E+02  6.33450E+03  2.78504E+03  5.06264E+03
 -2.12066E+03  1.75331E+04 -1.30816E+04  8.66776E+03 -2.12254E+04  2.38236E+03 -2.45737E+04 -1.11926E+04
 -2.29429E+04 -2.63372E+04  7.16473E+03 -1.96768E+04  7.13873E+03 -1.32279E+04  1.94454E+04 -1.12410E+03
  1.30288E+04  6.64213E+03  8.26634E+03  1.41626E+04 -7.46617E+03  7.75498E+03 -8.55897E+03 -5.40011E+03
 -5.90869E+03 -4.46397E+02  3.38270E+03 -1.28976E+04  1.17498E+04 -7.85264E+03  6.81331E+03  2.24829E+03
  1.52392E+03  2.93420E+03  6.67997E+03  9.93303E+03  5.64214E+03  9.14044E+03  2.10587E+03 -3.84765E+03
  6.11346E+03 -3.44801E+03  6.76108E+03  6.29499E+03  7.92975E+03  3.11834E+03 -2.70905E+03  1.25501E+04
 -7.83612E+03  5.59929E+03 -1.24458E+04 -8.71465E+02 -7.47800E+03 -3.07857E+03 -4.95175E+03 -1.13102E+04
 -4.51565E+02 -8.95528E+03  1.03683E+04 -7.99997E+03  8.20034E+03  4.34126E+03 -1.82375E+03  5.70398E+03
 -1.02339E+04 -1.18595E+03 -6.38410E+03  2.27821E+03 -1.09368E+04 -1.23061E+04 -2.60854E+03 -1.51293E+04
  6.59897E+03 -7.88809E+03  7.47014E+03  5.63410E+03  6.20339E+03  3.51572E+03  2.33370E+03  7.30398E+03
 -4.19456E+03  3.53863E+03 -2.88050E+03 -3.12714E+03 -4.01280E+03 -1.34543E+04  1.12752E+04 -1.83562E+04
  1.34827E+04  1.27988E+04  1.49894E+04  1.15663E+04  1.48931E+03  1.56232E+04 -1.34790E+04  2.11349E+04
  2.16022E+03  5.45104E+03 -1.62880E+04 -1.86636E+03 -9.80048E+03 -1.23383E+04 -9.19327E+02 -5.18914E+03
  8.79810E+03 -6.19862E+03  9.54217E+03 -7.62424E+02 -8.80246E+02  6.38127E+03 -2.73083E+03  5.73029E+03
  1.77968E+01  4.36466E+03 -4.79769E+03 -1.30689E+03  6.97786E+03  2.04605E+03  3.87572E+03  1.62116E+03
 -5.32745E+03 -3.44699E+03 -1.35838E+04  6.71154E+03 -2.00013E+04 -4.84338E+03 -1.23599E+04  1.19383E+03
 -7.86337E+03 -1.97323E+04  5.86398E+03 -2.75024E+04  1.83239E+04 -9.86337E+03  1.85766E+04 -7.17460E+03
  1.09798E+04  6.55476E+03  1.21338E+04  1.50916E+04 -2.27427E+03  1.51374E+04  1.65624E+03  1.33630E+04
 -6.93095E+03  1.28854E+04 -5.29130E+02  6.15712E+03 -1.03137E+04  4.14354E+03  5.56984E+02  1.20071E+03
  1.58914E+03  2.58184E+03 -8.91040E+03  7.46886E+03 -4.88797E+02 -4.12212E+03 -1.70128E+03 -1.41125E+04
  2.32848E+03 -3.86005E+03  1.62033E+04  4.02454E+03  1.59180E+04  8.42615E+03  3.65294E+03  1.01243E+04
 -1.39186E+04  1.58954E+04 -2.20907E+04  3.47112E+03 -1.74578E+04 -2.16237E+03 -1.63673E+04 -1.40387E+04
 -1.24133E+03 -2.01048E+04  4.54041E+03 -1.23353E+04  8.30267E+03 -9.33369E+03  1.32850E+04  3.28318E+03
 -3.29580E+03  3.98455E+02  2.14794E+03  8.06968E+03 -3.78612E+03 -3.22459E+03 -3.25229E+03 -2.51226E+03
  2.43068E+03 -3.45631E+03  6.50396E+03 -1.41330E+03  4.81792E+03  5.49837E+03  6.06637E+03  1.03104E+04
 -5.36352E+03  1.19790E+04 -1.54697E+04 -3.74874E+03 -1.52303E+04 -7.42718E+03  1.66198E+02 -1.15979E+04
  7.35333E+03 -8.73560E+03  1.57097E+04 -3.21295E+03  2.52066E+03 -2.73138E+03  5.15478E+03  1.28145E+04
  1.73007E+03  2.66813E+03 -7.23786E+03  2.99124E+02 -1.26391E+04  7.45251E+03 -7.78736E+03  2.82559E+03
  1.08740E+03 -1.18758E+03 -7.98631E+03  3.38705E+03 -5.27962E+03  6.47970E+02 -5.87347E+03 -2.98720E+03
 -5.67178E+03 -3.89952E+03  5.02638E+03 -1.43949E+04  2.67763E+03 -7.96653E+03  1.80297E+04  2.19593E+02
  1.59024E+04  3.31568E+03 -5.76466E+01  8.93338E+03 -3.41273E+02  1.03222E+04 -5.00979E+03  8.49762E+03
