 $NMID ID='MM_0lb_SNR50_11hz_g50_16.RAW', FMTDAT='(8E13.5)'
 TRAMP=1., VOLUME=1. $END
  3.10448E+05  9.41475E+02  3.37248E+05  2.49993E+05  8.79677E+04  3.32805E+05 -1.30773E+05  2.49696E+05
 -1.93773E+05  7.83643E+04 -1.14318E+05 -2.72928E+04  1.90878E+03 -5.62614E+04  5.50426E+04 -1.52316E+03
  3.54180E+04  4.75478E+04 -1.13564E+04  7.64026E+04 -5.90870E+04  6.42412E+04 -8.25990E+04  3.59954E+04
 -8.25073E+04 -1.22430E+04 -5.36764E+04 -5.14760E+04 -1.59691E+04 -6.96366E+04  2.36782E+04 -4.94754E+04
  4.37814E+04  8.63346E+02  1.18556E+04  4.91050E+04 -3.78912E+04  5.57849E+04 -6.57732E+04 -5.16862E+02
 -6.14135E+04 -5.67778E+04 -5.43670E+03 -7.74002E+04  3.09271E+04 -6.05529E+04  4.66515E+04 -1.35504E+04
  4.81591E+04  5.13473E+03  3.46338E+04  2.51465E+04  1.79704E+04  3.43343E+04 -2.01581E+03  2.20789E+04
 -2.51547E+04  1.59832E+04 -1.95198E+04 -6.01720E+03  6.50835E+03 -8.00600E+03  2.61361E+04  1.04765E+04
  7.06857E+03  3.94722E+04 -2.76610E+04  3.61267E+04 -6.74633E+04  1.19284E+03 -5.84503E+04 -4.77658E+04
 -1.62034E+04 -5.91000E+04  4.21927E+04 -4.43838E+04  5.66236E+04  7.12745E+02  3.83769E+04  3.68852E+04
 -1.27842E+03  4.03568E+04 -3.38000E+04  1.82023E+04 -3.34601E+04 -1.95306E+03 -1.29058E+04 -1.04164E+04
 -1.19288E+04 -1.42520E+04  3.72771E+03 -1.93720E+04  6.65953E+03 -1.99015E+04  1.61431E+04 -8.91213E+03
  1.56533E+04  1.29899E+04 -1.05243E+04  1.15176E+04 -2.12010E+04 -5.67610E+03 -1.93678E+03 -3.63712E+04
  2.18539E+04 -4.57761E+04  5.10473E+04 -2.44980E+04  5.45093E+04  2.35950E+04  1.89700E+04  4.16409E+04
 -1.65702E+04  3.46655E+04 -2.60328E+04 -3.07500E+02 -1.11438E+04 -2.79545E+04  2.52458E+04 -3.03271E+04
  4.24859E+04 -1.00414E+04  3.80819E+04  1.92397E+04  2.27005E+04  4.63077E+04 -1.12610E+04  5.72904E+04
 -3.91258E+04  3.75630E+04 -4.67495E+04  8.95234E+03 -4.91109E+04 -1.88393E+04 -2.15849E+04 -3.89177E+04
  1.25251E+04 -3.57185E+04  3.48079E+04 -2.39458E+04  3.22821E+04  9.50365E+03  5.18940E+03  1.67585E+04
 -1.56447E+04  9.34829E+03 -5.23751E+03 -6.37382E+03 -6.02122E+01 -1.17674E+04  1.25072E+04  3.73039E+02
  1.86428E+04  2.24762E+04 -1.06139E+03  2.63060E+04 -1.71280E+04  1.58114E+04 -3.19860E+04  2.11668E+03
 -2.45789E+04 -1.67132E+04 -1.28572E+04 -3.07489E+04  3.66431E+03 -1.74470E+04  1.76154E+04 -1.84627E+04
  2.90363E+04 -1.45285E+04  3.96362E+04  5.38986E+03  2.07327E+04  2.46050E+04  2.93461E+03  3.78350E+04
 -2.30121E+04  2.89360E+04 -3.02827E+04  1.62931E+04 -1.94968E+04 -9.58011E+03 -5.35542E+03 -3.40572E+03
 -1.12570E+03 -8.43445E+02 -5.48473E+03  7.52079E+03 -1.52074E+04  6.52692E+03 -1.62431E+04 -1.07112E+04
 -5.92765E+03 -2.05500E+04  1.00022E+04 -3.51504E+04  1.06048E+04 -2.33902E+04  2.45492E+04 -1.79398E+03
  8.94630E+03  1.81468E+04  5.79894E+03  2.12514E+04 -2.05484E+04  1.08031E+04 -2.58378E+04  1.10445E+03
 -1.94511E+04 -2.01689E+04 -1.38084E+03 -2.38879E+04  1.24787E+04 -2.30144E+04  2.61538E+04 -6.03577E+03
  2.22926E+04 -2.70811E+03  1.98295E+04  3.56973E+03  7.58153E+03  8.96993E+03  9.72082E+03 -2.17454E+03
  2.23162E+04  4.16910E+03  2.19399E+04  1.80339E+04  1.65240E+04  3.17752E+04 -2.04838E+03  3.89936E+04
 -2.30326E+04  3.04831E+04 -4.04241E+04  1.13290E+04 -3.98527E+04 -1.14073E+03 -3.05919E+04 -1.88385E+04
 -1.41407E+04 -3.74830E+04  9.78296E+03 -2.85229E+04  2.26193E+04 -1.58128E+04  1.86411E+04  5.09568E+03
  6.80366E+03  1.37282E+04 -5.79868E+03  1.49819E+04 -1.89139E+04  3.68751E+03 -1.51511E+04 -1.73304E+04
 -1.33774E+03 -2.00890E+04  1.16760E+04 -1.24254E+04  1.07820E+04 -1.30590E+03  4.69912E+03  2.78304E+03
 -8.28520E+03  1.06563E+04 -5.01892E+03 -5.74174E+03 -3.36125E+02 -1.20874E+04  7.71475E+03 -1.24816E+04
  2.52966E+04 -3.21533E+03  1.68930E+04  1.84710E+03  1.80507E+04  1.03303E+04  1.46887E+04  2.63280E+04
 -2.01434E+03  2.58121E+04 -1.50985E+04  1.87938E+04 -1.87797E+04  3.66740E+03 -9.36778E+03 -3.67600E+03
 -8.78034E+03 -2.79668E+03 -1.79158E+03 -5.63852E+02  7.15118E+02 -6.96777E+00 -3.60876E+03  7.80876E+03
 -1.06302E+04  2.35204E+02 -1.31125E+04 -1.16277E+04 -5.20151E+03 -2.17592E+04  4.77579E+03 -1.27653E+04
  1.10217E+04 -1.54355E+03  6.48379E+03  2.31416E+03  3.27000E+03  4.67961E+03 -7.95712E+03 -2.05847E+03
 -2.38614E+03 -5.56677E+03 -3.71939E+03 -9.08060E+03  1.02601E+04 -1.29403E+04  2.05296E+04 -9.78819E+03
  1.48535E+04  3.60192E+03  1.67513E+04  1.15421E+04 -2.02395E+03  1.59865E+04 -9.65786E+03  1.58806E+04
 -1.03814E+04  1.00114E+04 -6.42005E+03  1.46606E+03  4.62356E+03  1.84610E+03 -2.13318E+02 -3.68334E+03
  8.54093E+03  5.83822E+03  1.61697E+03  1.10810E+04 -4.92770E+03  1.10434E+04 -1.45010E+04  4.73950E+03
 -1.02176E+04 -4.72748E+03  5.58287E+01 -1.28800E+04  2.47896E+03 -7.07490E+03  4.98509E+03  2.68243E+03
  2.09809E+03  1.01786E+04 -8.43056E+03  8.68459E+03 -1.42460E+04  7.48115E+03 -9.41019E+03 -8.33846E+03
 -1.13376E+03 -1.29675E+04  1.44611E+03 -1.49435E+04  1.25238E+04 -1.14739E+04  1.81001E+04  1.49270E+03
  1.11295E+04  8.92993E+03 -4.33305E+03  1.49086E+04 -1.02323E+04  9.10290E+03 -1.45174E+04 -9.35767E+03
 -1.37964E+04 -4.62830E+03 -2.70821E+03 -8.15716E+03  1.06086E+04 -1.15031E+04  3.22372E+03 -8.31594E+03
  6.51128E+03  6.69413E+03 -2.03420E+03  4.83435E+03  2.49527E+03  6.78467E+02  1.07995E+03 -9.56605E+03
  7.98218E+03 -3.46132E+03  1.33893E+04 -2.76128E+03  1.23737E+04  1.30059E+04  4.28592E+03  1.62705E+04
 -7.33595E+03  2.57804E+04 -1.92960E+04  1.85803E+04 -2.46651E+04  2.07405E+03 -1.86394E+04 -7.59355E+03
 -9.97582E+03 -1.79087E+04 -3.57032E+03 -1.40072E+04  2.14070E+01 -2.92603E+03  6.18498E+03 -2.95804E+03
  7.63735E+03  1.21243E+03  7.64489E+03 -5.31155E+03  2.98970E+03 -4.90085E+03  8.16433E+03  9.53952E+01
  1.22447E+04 -1.48678E+03  5.89358E+03  2.39323E+03  2.55623E+03  6.40866E+03 -1.11350E+04  4.09922E+03
 -1.52130E+04 -1.30517E+03 -7.08593E+03 -8.83662E+03 -3.12798E+03 -1.62456E+04  6.46725E+03 -1.14934E+04
  1.56499E+04 -6.55981E+03  1.26359E+04  1.39117E+03  9.04332E+03  9.51600E+03  9.04096E+02  1.41267E+04
 -7.74289E+03  1.11628E+04 -1.47923E+04  3.53226E+03 -2.05293E+03 -2.16232E+03 -1.71887E+03 -8.46348E+03
 -2.88592E+03 -6.41300E+02  4.26636E+03  3.05528E+03 -7.49094E+03  3.72489E+03 -1.10129E+04  1.11115E+03
 -7.64145E+03 -2.32200E+03  1.78221E+03 -1.55865E+04  5.36633E+03 -8.89729E+03  8.89545E+03 -6.76023E+03
  9.65133E+03  6.29456E+03  7.22064E+03  6.41483E+03  1.46142E+03  1.08664E+04 -7.38068E+03  8.21547E+03
 -8.57632E+03 -6.94288E+02 -1.42210E+04 -3.83817E+03  1.53754E+03 -8.91138E+03  7.28617E+03 -1.09354E+04
  5.62153E+03  3.49620E+03  2.54310E+03  4.20790E+03  1.03781E+03  3.72836E+03 -2.20266E+03  3.93014E+03
  2.32447E+03 -3.66608E+03 -1.88893E+03 -2.15964E+03  4.52523E+03  7.78550E+03  6.76576E+02  9.68564E+03
 -3.58007E+03  1.05023E+04 -8.35270E+03  9.10402E+03 -1.17941E+04  6.97364E+03 -1.15871E+04 -3.03848E+03
 -1.02797E+04 -1.22743E+04  2.01897E+03 -1.41214E+04  8.43160E+03 -1.12792E+04  9.32516E+03 -6.81324E+03
  8.67344E+03  4.03135E+03  5.27319E+03  7.69198E+03  1.66449E+03  2.10664E+03 -7.15459E+03  3.43834E+03
 -2.93860E+03 -7.85067E+03  2.10407E+03 -2.50411E+03  7.79917E+03 -6.46746E+03  2.01286E+03  3.17418E+03
  2.87478E+03  5.23710E+03  2.41990E+03  1.86979E+03  1.59673E+03 -2.48242E+02  7.33475E+03 -2.34369E+02
  3.65397E+03  4.46658E+03  2.69764E+03  3.14222E+03  4.07652E+03  5.00170E+03 -9.48677E+01  7.28047E+03
 -7.07151E+03  7.42034E+03 -6.91931E+03  4.39818E+02 -1.25669E+04 -7.29916E+02  8.00166E+02 -4.55471E+03
 -1.53542E+03  2.16111E+02  1.36874E+03 -2.30423E+03 -3.56285E+03  2.52609E+03 -2.12673E+02  7.10574E+02
 -7.43770E+03  2.75136E+03 -7.18516E+03 -9.43077E+03 -3.18305E+03 -1.73415E+03  7.62534E+02 -1.30696E+04
  3.65422E+03 -4.41890E+03  3.65334E+03  6.90699E+01  1.55900E+02 -5.95250E+02 -5.82366E+02  5.12533E+03
 -3.47183E+03  5.23855E+03 -4.49039E+03  3.36997E+03 -3.10116E+03  3.09791E+03  1.09995E+04 -7.83696E+03
  7.89752E+03 -2.94546E+03  2.92055E+03  1.68919E+03  8.71807E+03  6.91616E+03 -1.88382E+03  8.45443E+03
 -1.78110E+03 -8.11689E+02 -6.95431E+03  2.40134E+03 -5.87983E+03 -6.92386E+03  7.00340E+00 -2.40851E+03
  7.56880E+03  3.40315E+03 -3.37438E+03 -1.27889E+03  2.01153E+03  3.83956E+03 -1.19794E+03  1.11845E+04
 -3.30243E+02  4.19291E+03  5.66363E+02  3.14588E+03  1.82535E+03 -5.30828E+02 -4.59607E+02  1.41465E+03
  1.89103E+02  1.23814E+03 -9.73099E+03  2.89548E+03 -5.27171E+03 -7.79368E+02 -1.16749E+04 -9.27840E+03
 -2.55842E+03 -1.14192E+04  7.03985E+03 -1.16204E+04  6.13414E+03 -1.53844E+04  1.05638E+04 -8.64261E+03
  4.55714E+03  2.64649E+03  4.61605E+03  3.98068E+03  2.63348E+03  3.97710E+03 -2.96900E+03  8.27191E+03
 -2.19575E+03  1.93381E+03  1.11775E+03  6.98945E+02 -1.21792E+03 -6.28755E+02  1.58607E+03  5.35675E+02
  3.84671E+02 -1.88509E+03 -4.36351E+03 -1.68966E+03 -4.84334E+03 -9.33710E+02 -1.26723E+03 -1.69492E+03
  1.15105E+04 -4.75918E+03  3.36193E+03  5.23601E+03  1.19912E+03  5.89355E+02  5.70410E+03  4.73453E+03
 -6.43523E+02  4.68969E+03 -4.13956E+03  8.59734E+03 -6.83858E+03 -3.47722E+03 -4.13341E+03 -6.13190E+03
 -7.17918E+03 -8.18304E+03  4.17915E+02 -4.98080E+03  6.29501E+03 -8.20131E+03  1.76343E+03  1.97990E+03
  2.40905E+03  2.05509E+03 -2.02728E+03  3.55482E+03 -1.67002E+03  3.44799E+03  1.72291E+03  3.91942E+03
  2.59864E+03  6.22417E+02  6.02721E+03 -8.00140E+01  5.36504E+03  5.05877E+03  4.07712E+03  2.42328E+03
 -4.54991E+03  4.81489E+02  1.28338E+03  5.98588E+03 -5.55853E+03 -5.41131E+03  6.09183E+03 -1.02226E+04
  1.31584E+03  3.02784E+03  1.00759E+04  2.43279E+03  9.60823E+03  2.40130E+03  1.01811E+04  7.59086E+03
  2.37843E+03 -4.04981E+02  1.84461E+03  5.15861E+03 -8.33246E+03  3.86455E+03 -2.24911E+03 -3.50760E+03
 -2.34855E+03  1.67915E+03 -2.91536E+03 -3.92843E+03  1.31546E+03  3.15050E+03 -6.42304E+03 -4.97714E+03
 -6.49663E+03 -4.16890E+03  8.04596E+02 -3.95435E+03  2.79426E+03 -9.43901E+03  6.26715E+03 -6.73652E+03
  1.31425E+03  4.01578E+03 -6.87309E+02  2.63012E+03  6.09088E+02  6.55991E+03 -1.48765E+03  1.68167E+03
