 $NMID ID='MM_0lb_SNR50_14hz_g45_77.RAW', FMTDAT='(8E13.5)'
 TRAMP=1., VOLUME=1. $END
  3.17887E+05  1.84947E+03  3.38429E+05  2.45844E+05  8.69943E+04  3.40491E+05 -1.30810E+05  2.53505E+05
 -1.90452E+05  8.38252E+04 -1.11067E+05 -3.45459E+04  7.01529E+03 -4.57583E+04  5.48733E+04 -6.96814E+02
  3.48661E+04  5.62160E+04 -1.57956E+04  7.75610E+04 -6.10991E+04  6.20711E+04 -8.32750E+04  3.21997E+04
 -7.82567E+04 -9.48394E+03 -5.95791E+04 -4.90444E+04 -7.84120E+03 -6.91946E+04  2.68700E+04 -4.16416E+04
  4.36952E+04  1.63803E+03  1.34131E+04  4.48991E+04 -3.12143E+04  4.45591E+04 -7.10368E+04  2.10767E+02
 -5.34939E+04 -5.65205E+04 -6.74178E+03 -7.58742E+04  3.51583E+04 -5.74186E+04  4.69942E+04 -1.29735E+04
  4.58434E+04  1.06402E+04  2.70055E+04  2.84364E+04  2.12614E+04  3.04108E+04 -2.50743E+03  3.48197E+04
 -1.77473E+04  1.19240E+04 -1.77719E+04 -4.77152E+03  3.31720E+03 -7.36837E+03  2.14483E+04  1.45514E+04
  7.55815E+03  3.75074E+04 -3.11473E+04  3.62221E+04 -6.35455E+04 -1.40967E+03 -5.24720E+04 -4.74893E+04
 -1.36138E+04 -6.24109E+04  3.90896E+04 -4.37726E+04  5.97884E+04 -2.36901E+03  3.57650E+04  3.69446E+04
 -6.50820E+03  3.19199E+04 -3.15145E+04  1.45572E+04 -3.00972E+04 -9.67671E+02 -1.72314E+04 -8.12520E+03
 -1.00646E+04 -1.26665E+04  3.99046E+02 -1.60401E+04  2.14541E+03 -2.51282E+04  9.10937E+03 -8.70949E+03
  1.58327E+04  3.68379E+03 -4.16075E+03  1.05580E+04 -1.91743E+04 -3.45005E+03 -4.22873E+03 -3.61559E+04
  2.18362E+04 -4.35028E+04  4.87107E+04 -1.56912E+04  4.58482E+04  1.51985E+04  1.48264E+04  4.32561E+04
 -1.63757E+04  3.43863E+04 -2.29848E+04  4.35366E+03 -7.77031E+03 -2.66984E+04  2.42240E+04 -2.98067E+04
  3.87478E+04 -9.44979E+03  3.72142E+04  2.38527E+04  1.61482E+04  4.87494E+04 -5.60543E+03  5.29082E+04
 -2.97443E+04  3.53802E+04 -3.94340E+04  1.27968E+04 -4.19079E+04 -1.87233E+04 -2.79001E+04 -3.97885E+04
  5.18192E+03 -3.92143E+04  3.13184E+04 -2.21845E+04  2.34725E+04  1.10346E+04  1.91274E+03  1.93399E+04
 -1.71563E+04  6.73284E+03 -9.54938E+03 -4.77833E+03  9.89980E+03 -1.45865E+04  1.67628E+04  7.71099E+03
  1.78093E+04  2.41125E+04 -8.02350E+03  2.94291E+04 -2.31867E+04  7.26894E+03 -3.34214E+04 -1.83343E+03
 -1.83926E+04 -1.87723E+04 -7.00788E+03 -1.91962E+04  3.71478E+03 -1.60169E+04  1.43304E+04 -1.91723E+04
  2.42251E+04 -8.49766E+03  3.28504E+04  2.70475E+02  1.81557E+04  2.12054E+04  4.12922E+03  3.38804E+04
 -1.23060E+04  2.92089E+04 -2.93164E+04  6.85721E+03 -2.13605E+04 -9.72567E+03  2.69398E+01 -1.69259E+04
  2.69886E+03 -1.33446E+03 -8.19955E+03  3.38217E+03 -1.35303E+04  5.41361E+03 -1.69083E+04 -7.67031E+03
 -1.17565E+04 -1.95080E+04  5.49960E+03 -2.80491E+04  1.33420E+04 -1.55164E+04  1.64899E+04 -5.07574E+03
  1.07991E+04  1.70631E+04 -3.47565E+03  1.92153E+04 -1.86960E+04  1.10980E+04 -1.89982E+04 -5.12327E+03
 -1.61564E+04 -1.52002E+04  2.57465E+01 -2.40771E+04  9.29887E+03 -1.72329E+04  1.77808E+04 -9.39305E+03
  1.50260E+04  4.31226E+03  1.30708E+04  5.34533E+03  6.51844E+03 -1.84352E+03  9.84740E+03 -4.46346E+03
  1.73646E+04  2.06100E+03  1.76728E+04  1.76164E+04  1.45199E+04  3.21889E+04 -8.67963E+02  3.50763E+04
 -1.88092E+04  3.03789E+04 -3.07507E+04  1.65767E+04 -2.87067E+04 -3.68121E+03 -2.13314E+04 -1.83501E+04
 -1.11508E+04 -2.26394E+04  1.45887E+04 -2.45429E+04  2.30462E+04 -1.44262E+04  1.79758E+04  7.71321E+03
  6.83164E+03  1.11789E+04 -1.49836E+04  1.59433E+04 -1.44391E+04 -3.26753E+03 -9.16435E+03 -1.37819E+04
 -6.19285E+03 -1.35774E+04  9.43628E+03 -1.02972E+04  9.67329E+03 -3.87692E+03  1.81680E+03  6.73277E+03
 -5.89836E+03 -2.07186E+03 -4.78032E+03 -4.79276E+03 -9.09743E+01 -8.65311E+03  9.25760E+03 -1.37886E+04
  1.90935E+04 -1.18109E+04  1.50110E+04  2.91227E+02  1.56161E+04  1.26659E+04  1.05541E+04  2.18184E+04
 -6.48222E+02  1.96472E+04 -1.45883E+04  2.19505E+04 -1.34706E+04  3.09885E+03 -6.52352E+03 -3.01912E+03
 -6.69152E+03 -5.07562E+03  9.98462E+02  3.54776E+03 -5.55475E+03  2.48167E+03 -5.94520E+03  4.39377E+03
 -9.87043E+03 -1.60507E+03 -1.19837E+04 -8.68389E+03 -4.91924E+03 -1.60052E+04  7.23130E+03 -8.15017E+03
  1.22823E+04 -4.49056E+03  7.20301E+03  3.12223E+03  1.45595E+03  4.67281E+03 -6.22832E+03 -1.14030E+03
 -1.78929E+03 -7.35727E+03  9.21087E+02 -1.06304E+04  6.80021E+03 -1.12070E+04  1.68173E+04 -6.10279E+03
  1.41366E+04  2.01547E+03  1.37564E+04  1.19437E+04 -1.01575E+03  1.27338E+04 -9.22735E+03  9.73579E+03
 -1.26324E+04  3.00917E+02 -8.08677E+03 -4.55885E+02  3.39813E+03 -6.09534E+03  4.12494E+03 -3.68410E+03
  5.19059E+03  6.41259E+03 -3.19731E+03  4.91447E+03 -5.18169E+03  1.02586E+04 -1.69493E+04  8.14313E+03
 -7.04112E+03 -3.56397E+03  3.05839E+03 -7.85635E+03  5.98235E+03 -4.09279E+03  3.84032E+03 -6.33687E+02
 -8.28250E+02  5.56051E+03 -4.14547E+03  6.14597E+03 -6.14036E+03  4.65299E+03 -8.80348E+03 -3.33247E+03
 -5.83025E+03 -9.83617E+03 -1.88894E+03 -1.31774E+04  1.15810E+04 -6.94183E+03  1.19814E+04  3.40270E+03
  6.19944E+03  7.84698E+03 -3.15823E+02  1.22151E+04 -5.61375E+03  1.01815E+04 -9.40153E+03 -3.11492E+03
 -8.06416E+03 -1.20580E+04  1.51550E+03 -8.38469E+03  4.49598E+03 -7.45325E+03  7.65241E+03 -4.39247E+03
  4.51768E+03  2.93153E+03 -5.49323E+03  2.78924E+03  1.94536E+03  8.92864E+02  4.57337E+03 -2.38312E+03
  1.07266E+03 -3.28355E+03  8.61429E+03  1.69332E+03  1.13612E+04  9.19270E+03  8.30260E+03  1.44165E+04
 -7.49283E+03  1.35111E+04 -1.31708E+04  1.08255E+04 -1.84279E+04 -6.02687E+03 -1.38167E+04 -6.02625E+03
 -2.35068E+03 -7.40010E+03 -3.23478E+03 -5.80098E+03  4.94415E+03 -4.08493E+03  1.00236E+03 -3.82129E+03
  2.49522E+03 -1.81262E+02  4.40427E+03 -5.06497E+03  3.65665E+03  2.99925E+03  7.68915E+03 -1.15970E+03
  7.52561E+03  3.13809E+03  2.89011E+03  8.46081E+03 -5.30331E+03  5.72686E+03 -8.83466E+03  2.51380E+03
 -9.01874E+03 -2.09235E+03 -2.27457E+03 -3.84325E+03 -2.72177E+03 -6.32751E+03  6.92698E+03 -8.67532E+03
  8.25164E+03 -6.34853E+03  1.24797E+04 -2.89896E+02  8.61391E+03  3.86955E+03 -3.43146E+03  4.90824E+03
  2.14528E+03  1.17758E+04 -2.80510E+03  4.96009E+03 -2.00783E+03 -1.94276E+02  2.67838E+03  2.48834E+03
 -2.40320E+03 -5.41705E+03 -5.98375E+02  9.90907E+03 -5.28727E+03  3.44596E+03 -5.93679E+03 -3.82756E+03
 -9.30789E+02 -5.82499E+03 -1.95936E+03 -1.04507E+04  2.95880E+03 -8.52558E+03  8.67865E+03 -5.98323E+03
  1.03346E+04  4.61058E+03  5.42846E+03  9.29237E+03 -3.13136E+02  9.67813E+03 -5.09591E+03  6.75415E+03
  8.70460E+01 -1.15964E+03 -5.69326E+03 -5.62076E+03 -4.85971E+02 -3.86821E+03 -4.75874E+01  1.14758E+03
  6.74352E+03 -2.38349E+03  2.68793E+03  2.79387E+03  1.24130E+02  2.63494E+03  4.37056E+02  1.96135E+03
  3.14662E+03  2.41739E+03  3.56422E+03 -8.07352E+02  3.80024E+03 -2.92844E+02  8.61790E+02  2.75325E+03
 -2.40572E+03  2.94704E+03 -2.69240E+03  2.85830E+03 -7.46760E+03  3.79336E+02 -4.87802E+03 -5.69015E+03
 -1.95462E+03 -1.14215E+04  1.91098E+03 -6.87185E+03  1.61273E+03 -4.84958E+02  4.57492E+03 -1.38529E+03
  6.59859E+03 -1.05536E+03  3.24927E+03  7.89498E+03 -4.60439E+03  3.02019E+03 -4.62514E+03 -4.34959E+03
  5.34613E+03 -9.94889E+03  4.11046E+03 -4.49545E+03  1.81717E+03 -3.35021E+03  3.16491E+03 -1.19432E+03
  5.46694E+03  4.24183E+03  3.05088E+03 -1.24522E+03 -1.25881E+03  1.24834E+03  4.75652E+03 -5.70420E+01
  1.09030E+03  9.35475E+02  1.83463E+03  1.40458E+03  4.70570E+03  7.29505E+03 -2.01229E+02  7.84014E+03
 -4.94960E+03  6.53466E+03 -4.05862E+03  3.09030E+03 -4.56094E+03 -8.27709E+01  1.89099E+03  6.72789E+02
  3.33772E+03  3.61004E+03 -3.35783E+02 -2.33197E+03  9.50550E+02 -1.36940E+03  1.59985E+03 -2.58471E+03
 -1.86047E+03 -3.13597E+03 -3.67429E+03 -3.64471E+03 -3.39971E+03 -6.62677E+03  4.47431E+03 -3.48752E+03
  3.80866E+03 -2.43216E+03 -1.09022E+02 -1.44028E+03  6.49489E+02  1.86394E+03 -4.37568E+03 -8.01453E+02
  2.29887E+03  1.27961E+02 -2.94582E+03  2.36824E+02 -4.61874E+03 -1.45478E+03  3.61314E+03  2.80737E+03
  3.09468E+03  2.36903E+03  9.83986E+02  3.90095E+03  8.43125E+02  3.96889E+03 -2.74299E+03  5.25442E+03
 -1.71539E+03 -6.66377E+02 -4.12982E+03  4.14038E+03  1.91530E+03 -3.82067E+03  4.66149E+03  2.09991E+03
  3.92110E+03 -3.27695E+02 -8.17032E+02  1.08037E+03 -1.71003E+03  3.36484E+03 -1.82333E+03  9.67174E+02
  1.06689E+03 -2.39363E+03 -1.57237E+03  2.15481E+03  2.31417E+03  6.64787E+02 -1.38697E+03 -1.95835E+03
 -9.24340E+03 -3.02829E+03 -3.99738E+03 -1.60477E+03 -8.98046E+03  8.08653E+02 -5.78221E+03 -7.09444E+03
  3.97472E+03 -5.12458E+03 -3.19217E+03 -6.96356E+03  4.86576E+03 -7.01505E+03  8.08125E+03 -1.52704E+03
  7.09697E+03 -3.00953E+03  4.99537E+03  4.78808E+02 -7.18103E+03  4.35710E+03 -3.14392E+03  1.59846E+03
 -1.38694E+03  6.72524E+03  7.77038E+02  2.56223E+03 -1.04789E+02  5.31056E+03 -3.88665E+02  3.63599E+03
  1.77527E+03 -2.76827E+03 -3.39781E+03  2.94211E+03 -1.70622E+02 -7.31711E+02 -5.05170E+02 -5.19263E+03
  4.45909E+02  1.61033E+03  1.05835E+03  2.17552E+03  4.14391E+03 -6.84469E+02 -3.61621E+02  1.37314E+04
 -2.42187E+03  3.39535E+03 -6.93607E+03  2.16514E+03 -6.20876E+03 -1.36733E+03 -1.32356E+03  4.50664E+03
 -1.21468E+03 -1.67252E+03 -2.40531E+03 -2.42715E+03  5.96440E+02 -2.15780E+03  1.30342E+03  2.68197E+01
  3.69784E+02 -2.31518E+03 -2.62848E+03 -1.66668E+02 -2.89150E+03 -2.89046E+03 -4.72681E+02 -1.20851E+03
 -8.14071E+02 -3.62539E+03 -9.95606E+02  9.24233E+02 -2.14072E+03  8.41927E+02  1.43210E+03 -2.07310E+03
 -1.91697E+03  4.49892E+03 -5.06298E+02 -7.70464E+03 -7.10179E+03 -3.42406E+03  9.74567E+01  2.95185E+02
  2.35696E+03 -4.74052E+03  6.06562E+03 -3.32530E+03  5.77260E+01  2.80290E+03  3.31553E+03  3.05163E+02
 -9.26535E+02 -7.02772E+02 -8.14023E+03  4.84839E+03 -1.05520E+03 -1.02447E+03 -4.62847E+03  3.25883E+03
  1.25823E+03 -5.99224E+02 -3.35617E+03 -3.42406E+02 -3.35814E+03 -4.65703E+03 -4.50356E+03  1.70508E+03
 -1.91248E+03 -1.63038E+03 -2.98629E+03  1.05368E+03 -2.42545E+03 -6.28588E+03 -2.36337E+03 -2.13063E+03
  6.35353E+02  1.09537E+03 -1.31797E+03  3.49333E+02 -9.82498E+02  7.84000E+03 -7.85460E+03  9.45569E+02
