 $NMID ID='MM_0lb_SNR50_11hz_g45_52.RAW', FMTDAT='(8E13.5)'
 TRAMP=1., VOLUME=1. $END
  3.07793E+05 -4.67188E+03  3.40958E+05  2.48667E+05  8.58853E+04  3.37690E+05 -1.26716E+05  2.52126E+05
 -1.88895E+05  8.19177E+04 -1.11648E+05 -2.73530E+04  2.22268E+03 -5.13697E+04  5.64228E+04 -5.24927E+03
  3.54970E+04  4.91497E+04 -1.57696E+04  7.95216E+04 -5.97467E+04  5.99325E+04 -8.33984E+04  3.66538E+04
 -8.19041E+04 -6.79484E+03 -5.55209E+04 -5.08295E+04 -1.43262E+04 -7.11703E+04  2.44797E+04 -4.84759E+04
  3.75655E+04  3.99881E+03  1.99976E+04  4.85665E+04 -3.24762E+04  4.97476E+04 -6.66682E+04 -3.56611E+03
 -5.36716E+04 -5.52194E+04 -9.47695E+03 -7.92319E+04  3.22315E+04 -5.46302E+04  4.84683E+04 -7.69263E+03
  4.59128E+04  1.23296E+04  3.05678E+04  2.82284E+04  1.89234E+04  2.99994E+04 -5.56885E+03  2.89480E+04
 -1.78988E+04  1.27707E+04 -1.95554E+04 -6.80383E+03  6.37640E+03 -6.14711E+03  2.31838E+04  1.45790E+04
  9.88488E+03  3.24107E+04 -3.17700E+04  3.56357E+04 -6.77671E+04 -2.61411E+03 -5.87120E+04 -4.77885E+04
 -1.44506E+04 -6.41166E+04  4.52833E+04 -4.80052E+04  5.63370E+04 -2.24586E+02  3.91990E+04  3.19944E+04
 -1.68544E+03  3.49223E+04 -3.03645E+04  1.74048E+04 -3.64598E+04 -5.59597E+03 -1.35287E+04 -1.20377E+04
 -4.02415E+03 -1.48328E+04  4.83875E+02 -1.64549E+04  8.13927E+03 -2.55118E+04  2.34791E+04 -6.09347E+03
  7.07513E+03  9.60524E+03 -1.73030E+04  1.27643E+04 -2.40044E+04 -6.19606E+03 -9.94094E+03 -3.13583E+04
  2.71471E+04 -4.57289E+04  5.30646E+04 -1.45036E+04  4.55243E+04  1.67900E+04  1.22228E+04  4.62729E+04
 -1.73950E+04  3.44639E+04 -2.75845E+04  1.48656E+03 -1.37632E+04 -2.08902E+04  2.22095E+04 -3.88826E+04
  5.20992E+04 -9.33843E+03  4.13838E+04  2.66514E+04  1.59287E+04  5.63456E+04 -1.65369E+03  4.90270E+04
 -3.53610E+04  3.57728E+04 -4.48866E+04  4.22652E+03 -4.16519E+04 -2.11434E+04 -2.66828E+04 -3.92493E+04
  4.99479E+03 -3.52777E+04  3.03467E+04 -1.67820E+04  3.29493E+04  1.28133E+04  2.07810E+02  1.65662E+04
 -1.43689E+04  8.75784E+03 -9.97973E+03 -1.09438E+04  5.28146E+03 -4.56280E+03  2.16212E+04  4.57311E+03
  1.75271E+04  2.48546E+04 -5.30531E+03  2.32694E+04 -2.33162E+04  1.44176E+04 -3.01369E+04 -2.22533E+03
 -2.42501E+04 -1.01889E+04 -6.85766E+03 -2.17780E+04  3.87269E+02 -2.06960E+04  2.41306E+04 -2.24232E+04
  2.98048E+04 -5.05171E+03  3.44830E+04  1.82853E+03  2.86475E+04  2.35739E+04  2.12529E+03  3.99897E+04
 -1.76591E+04  3.25357E+04 -3.06192E+04  9.49000E+03 -1.97102E+04 -6.00512E+03 -6.80393E+03 -1.29213E+04
  1.47322E+03  1.06883E+03 -1.24800E+04  4.52858E+03 -1.99188E+04  5.50669E+03 -1.59105E+04 -1.14676E+04
 -1.11767E+04 -1.82664E+04  1.32711E+03 -2.49780E+04  1.59503E+04 -1.85493E+04  1.68017E+04 -8.63388E+03
  1.30548E+04  1.85162E+04 -3.61213E+03  2.16582E+04 -1.06528E+04  1.38238E+04 -2.21625E+04 -4.03689E+03
 -2.36100E+04 -1.73847E+04 -7.10314E+02 -2.78113E+04  1.59221E+04 -1.87229E+04  2.30478E+04 -1.48324E+04
  2.39824E+04 -9.22989E+02  1.58423E+04  1.23745E+03  9.71331E+01 -1.59293E+03  8.80632E+03 -6.16966E+03
  1.95335E+04 -3.19261E+03  2.27589E+04  1.03234E+04  1.42611E+04  3.63313E+04 -2.34829E+03  3.61828E+04
 -2.00886E+04  3.32183E+04 -3.64232E+04  1.32295E+04 -3.72767E+04 -1.31627E+03 -3.60497E+04 -2.53715E+04
 -1.12837E+04 -3.25436E+04  1.46835E+04 -2.59287E+04  2.22908E+04 -2.03578E+04  2.10576E+04  4.51877E+03
  1.06297E+04  2.47801E+04 -7.40955E+03  1.44378E+04 -1.68692E+04  3.91167E+03 -2.00371E+04 -9.92470E+03
 -3.49556E+03 -1.67669E+04  6.13186E+03 -1.31485E+04  9.02994E+03 -3.12075E+03  4.15010E+03  1.36305E+04
 -6.71406E+03  6.91047E+03 -8.99923E+03 -1.06212E+04 -4.89175E+03 -1.47222E+04  1.50790E+04 -1.78708E+04
  2.17214E+04 -1.70163E+04  2.07473E+04 -5.74695E+02  1.99702E+04  1.85367E+04  7.05287E+03  2.70201E+04
 -9.18217E+02  2.44139E+04 -1.40942E+04  1.57782E+04 -1.69340E+04  2.28901E+03 -1.37698E+04 -5.56919E+03
 -2.88679E+03 -6.28317E+03 -5.59595E+03 -2.22785E+03  2.83544E+03  5.78846E+03 -8.30350E+03 -5.38900E+02
 -1.11244E+04  9.41264E+02 -1.62001E+04 -1.63361E+04  7.91988E+02 -1.47562E+04  2.78150E+03 -1.05570E+04
  1.46837E+04 -1.15022E+04  5.23419E+03  4.92979E+03 -1.16392E+03 -4.00565E+01 -9.83910E+03  4.84475E+03
 -1.03650E+04 -4.95824E+03  4.20100E+02 -1.45471E+04  1.28568E+04 -1.03866E+04  1.93175E+04 -1.05495E+03
  1.80145E+04  2.89794E+03  1.52741E+04  9.59572E+03  5.35625E+03  1.52639E+04 -5.01398E+03  1.47882E+04
 -1.40114E+04  1.03242E+04 -2.78751E+03  1.61563E+03 -1.00515E+03 -3.73007E+03  5.72528E+03  7.15707E+03
  9.88226E+03  7.35237E+03  5.85816E+03  1.33290E+04 -4.12474E+03  1.31555E+04 -1.29086E+04  3.76481E+03
 -7.20996E+03 -5.25707E+03  7.68764E+02 -1.24035E+04  1.43948E+04 -5.63875E+03  3.06767E+03  5.33922E+03
  2.28989E+03  1.28715E+04 -6.23352E+03  7.12484E+03 -1.47932E+04  6.85321E+03 -8.35745E+03 -3.07561E+03
  5.87616E+02 -1.20029E+04  7.41576E+02 -1.61485E+04  1.17016E+04 -1.12651E+04  1.57614E+04  2.03252E+03
  1.11143E+04  7.73280E+03 -2.32238E+03  1.88655E+04 -6.16599E+03  5.46835E+03 -1.18364E+04  9.63681E+02
 -8.76297E+03 -2.16988E+03 -2.99263E+03 -1.60225E+04  4.74693E+03 -9.37201E+03  3.47880E+03 -8.46367E+03
  5.66253E+03 -2.08582E+03  8.46077E+02  1.32219E+03 -1.87516E+03 -4.80949E+03 -7.77536E+03 -7.58080E+03
  1.41686E+04 -5.20358E+03  1.37159E+04 -4.06669E+01  1.30081E+04  6.33678E+03  1.15788E+04  1.54097E+04
 -4.26241E+03  1.98414E+04 -1.62031E+04  1.27759E+04 -2.42790E+04  2.85217E+03 -1.78077E+04 -4.61996E+03
 -1.00291E+04 -1.62736E+04 -1.42581E+03 -1.33395E+04  9.39870E+03 -5.04736E+03  6.59143E+03 -6.28741E+03
  8.86966E+03 -3.55911E+03  1.82772E+03 -4.14312E+03  1.51489E+03 -4.45479E+03  5.79745E+03 -5.49185E+03
  7.90935E+03  2.77136E+02  1.02038E+04  1.55303E+04 -6.35927E+03  1.23419E+04 -6.78346E+03  4.43982E+03
 -5.85582E+03 -3.39122E+03 -5.01823E+03 -1.16384E+04 -3.13422E+03 -1.16941E+04  5.74600E+03 -1.35858E+04
  8.63610E+03  7.65461E+02  1.19573E+04  2.62555E+03  9.95516E+03  1.01984E+04  1.27163E+03  1.07782E+04
 -6.51754E+03  1.15197E+04 -1.03486E+04  3.62793E+03 -6.48913E+03 -1.84626E+02 -2.29141E+03 -1.56389E+03
 -2.66582E+03 -1.29808E+02 -4.73080E+02  9.82959E+03 -7.97693E+03  6.57399E+03 -5.94100E+03  1.50013E+03
 -2.00838E+03 -1.14777E+04  2.15216E+03 -1.00563E+04  5.88731E+03 -1.56740E+04  1.06251E+04 -7.87096E+03
  1.11265E+04  4.70238E+03  1.50477E+03  1.63907E+04 -9.78964E+02  9.47065E+03 -7.73082E+03  3.93724E+02
 -7.72574E+03 -1.53560E+03 -8.91332E+03 -6.54086E+03 -3.82349E+03 -1.06447E+04  3.72607E+03 -2.03253E+03
  1.20020E+04  1.88048E+02  2.64306E+03  4.67695E+03 -3.69318E+03  5.11929E+03  4.43587E+03  1.98538E+03
  2.41904E+03 -1.14241E+02  3.64643E+03 -4.64831E+02  2.99535E+03  1.13705E+04  3.97149E+03  6.90739E+03
 -8.13432E+03  1.01130E+04 -7.73702E+03  8.32292E+03 -1.14877E+04  4.38811E+03 -4.81306E+03 -6.19044E+03
  5.11193E+01 -1.43901E+04  2.90702E+03 -1.40069E+04  4.09251E+03 -1.06885E+04  3.26446E+03 -1.44266E+02
  5.68206E+03  3.16534E+03  2.73418E+03  7.16606E+03 -8.14022E+03  6.83533E+03 -6.68539E+03  4.15212E+03
 -1.49006E+03 -4.45964E+03  1.88466E+03 -4.88474E+03  8.62017E+03 -1.25636E+03  2.62437E+03 -1.20154E+03
  1.56877E+03  8.14266E+03  1.24604E+03 -1.00159E+03 -2.92525E+03  3.79743E+03  2.89262E+03 -6.89042E+02
  1.73479E+03 -1.19621E+03  1.57914E+03  1.61996E+03  3.56028E+03  5.47570E+03 -9.98943E+03  5.30469E+03
 -9.21859E+03  3.50797E+03 -7.00466E+03  4.69373E+02 -4.16071E+03  1.51507E+03 -3.28291E+03 -3.97935E+02
  9.00640E+02 -7.59598E+03  3.69577E+02 -2.83388E+03 -1.63315E+03 -2.22336E+03 -2.38958E+03  2.63466E+03
 -5.28470E+03  3.19858E+03 -2.50739E+03 -2.44429E+03 -3.53182E+03 -7.84007E+03  6.46242E+03 -2.97355E+03
  2.77756E+03 -6.38792E+03  4.52253E+03  7.47514E+02  6.05585E+02  4.84907E+03  3.22214E+03  7.71569E+03
 -6.10671E+03  1.88534E+03  2.10409E+02  9.87745E+02  7.59760E+02 -8.89298E+03  7.77993E+03 -1.23273E+03
  9.18375E+03 -2.97396E+03  5.97870E+03  9.92113E+02 -2.75435E+02  7.99697E+03  1.67317E+02  1.59834E+03
  1.41067E+03 -1.38942E+03 -6.68643E+03 -3.86974E+03 -4.34044E+03  2.79908E+03  6.63717E+02 -4.70192E+03
  4.86328E+03 -5.34402E+03  2.84714E+03 -1.10876E+03  3.26619E+03  2.41623E+03 -2.16473E+03  4.74798E+03
 -3.89536E+02  7.12824E+02  1.96817E+02  9.23051E+01  1.91066E+03  1.99561E+03 -4.39812E+03 -6.60301E+02
 -5.34823E+03  2.60319E+03 -6.22471E+03 -1.98174E+03 -1.07503E+04  6.04089E+03 -8.56695E+03 -1.11007E+04
 -3.43031E+03 -8.60889E+03  4.05070E+02 -8.48321E+03  1.06921E+04 -1.17460E+04  7.65312E+03 -3.14310E+03
  6.44254E+03  3.29722E+03  1.10565E+04  4.47264E+03 -7.12342E+02  3.41457E+03 -5.00893E+03 -4.57086E+02
 -3.19147E+03  4.52581E+03  2.53575E+03  4.09359E+03 -3.69242E+03  1.50354E+03  3.35511E+03  1.01842E+03
 -3.60969E+03 -2.72430E+03 -3.11047E+03  1.81548E+03 -4.62595E+03  1.83943E+03 -1.92093E+03 -3.04017E+03
  2.10228E+03 -4.00695E+03 -1.03453E+03 -1.02816E+03  7.67068E+03 -1.89074E+03  7.32990E+03  4.78497E+03
 -3.19896E+03  4.42761E+03 -5.94785E+03  6.71075E+03 -8.45584E+03  4.10938E+03 -9.00704E+03 -1.06560E+04
 -9.23795E+03 -4.27246E+03  1.77698E+03 -7.76248E+03  5.57832E+03  1.36431E+03  1.39501E+04 -5.52057E+02
  4.41334E+03  3.12026E+03  1.45441E+03 -4.19797E+03 -3.22847E+03 -3.02459E+03  3.37323E+03 -2.94901E+03
  9.05692E+03 -4.38309E+02 -3.08836E+03  2.34493E+03  1.48606E+03  3.52398E+03  1.73921E+03 -3.10087E+03
 -2.06497E+03  1.39250E+03 -2.29304E+03 -6.72862E+01 -3.67877E+03 -7.93785E+03 -4.12062E+03 -8.68838E+03
 -3.40553E+03 -4.64900E+03  4.38960E+03 -1.86958E+02  3.69829E+03 -1.00832E+03  1.93788E+03  8.01634E+03
 -4.07516E+02  5.55307E+03 -4.48736E+03  4.04464E+03 -4.67850E+03  3.36620E+03 -6.35074E+03  6.43373E+03
 -3.40455E+03 -2.32972E+03 -6.63556E+03  2.88859E+03 -5.16532E+02  1.61669E+03 -2.76720E+03  1.82950E+03
  7.32632E+02 -7.09160E+03 -1.97031E+02 -1.44471E+03 -5.58637E+02 -6.30733E+03  5.19960E+03 -7.15756E+03
  1.13807E+04 -8.18779E+02  1.65786E+03 -2.48702E+03  2.80456E+03  1.52637E+04 -4.62372E+03  5.12528E+03
