 $NMID ID='MM_0lb_SNR50_15hz_g40_56.RAW', FMTDAT='(8E13.5)'
 TRAMP=1., VOLUME=1. $END
  3.07381E+05  1.94862E+03  3.36107E+05  2.53588E+05  7.97196E+04  3.41582E+05 -1.37116E+05  2.50189E+05
 -1.88541E+05  7.99509E+04 -1.14031E+05 -2.86843E+04 -5.92316E+02 -4.99771E+04  5.05567E+04  1.02505E+03
  3.47604E+04  5.14338E+04 -1.36761E+04  7.44087E+04 -5.81772E+04  5.85239E+04 -8.08290E+04  3.02434E+04
 -8.15822E+04 -6.78357E+03 -5.25774E+04 -5.25333E+04 -1.51709E+04 -7.22823E+04  2.66591E+04 -3.98909E+04
  3.93308E+04  6.24946E+03  1.63783E+04  4.46246E+04 -3.59839E+04  4.25765E+04 -6.82158E+04 -1.39233E+03
 -5.08286E+04 -5.60547E+04 -1.87138E+03 -7.54860E+04  2.99966E+04 -5.00157E+04  4.89326E+04 -1.49833E+04
  4.44993E+04  8.91257E+03  3.24210E+04  2.57386E+04  1.49845E+04  3.00764E+04 -2.30736E+03  2.74993E+04
 -2.15744E+04  9.92611E+03 -1.85169E+04 -6.41484E+03  6.62765E+03 -8.57056E+03  1.81371E+04  1.21239E+04
  6.92584E+03  3.50200E+04 -3.13747E+04  3.40372E+04 -6.05657E+04  4.11333E+03 -5.93356E+04 -4.12677E+04
 -1.01131E+04 -5.98506E+04  3.99146E+04 -4.15898E+04  5.40423E+04 -3.89175E+03  3.24486E+04  3.11913E+04
 -7.00183E+03  3.60069E+04 -2.68811E+04  1.44623E+04 -2.92899E+04 -5.77790E+03 -1.96955E+04 -9.26191E+03
 -1.12269E+04 -1.40270E+04 -2.16204E+03 -1.75373E+04  5.02629E+03 -1.94986E+04  2.15911E+04 -1.28291E+04
  6.65204E+03  7.38814E+03 -4.67937E+03  1.49419E+04 -1.84657E+04 -3.97508E+03 -6.10553E+03 -3.05298E+04
  2.23798E+04 -4.45089E+04  4.38237E+04 -1.27830E+04  4.68158E+04  2.32874E+04  1.84561E+04  4.18448E+04
 -1.61347E+04  3.32325E+04 -2.57152E+04  3.38286E+03 -6.47489E+03 -2.61439E+04  2.38008E+04 -3.15082E+04
  3.41316E+04 -4.78134E+03  3.69671E+04  2.19999E+04  1.40218E+04  4.02349E+04 -7.60681E+03  4.89645E+04
 -3.19351E+04  3.40083E+04 -4.36361E+04  9.23814E+03 -3.97331E+04 -1.33553E+04 -2.33370E+04 -3.79878E+04
  1.00300E+04 -3.52604E+04  2.53457E+04 -1.20817E+04  2.90603E+04  1.17151E+04  3.27589E+03  2.24516E+04
 -1.26114E+04  1.08342E+04 -1.02567E+04 -8.54774E+03  4.95801E+03 -1.05619E+04  1.80585E+04  4.97039E+03
  9.15950E+03  2.20274E+04 -7.74858E+03  2.00058E+04 -2.19796E+04  1.21772E+04 -2.83986E+04 -8.45798E+03
 -1.92301E+04 -1.77403E+04 -5.40123E+03 -2.24921E+04  5.06022E+03 -1.52953E+04  1.38842E+04 -1.79506E+04
  2.35358E+04 -1.18028E+04  3.32023E+04 -2.14249E+03  2.58327E+04  1.79565E+04  2.75044E+03  3.39471E+04
 -2.19071E+04  2.55752E+04 -2.44047E+04  9.19700E+03 -2.46223E+04 -1.12896E+04 -7.84658E+03 -1.36094E+04
  4.31371E+03 -2.40012E+03 -2.66757E+03  4.87926E+03 -1.40470E+04  8.89462E+03 -1.49174E+04 -1.03119E+03
 -1.17315E+04 -1.65954E+04  3.54149E+03 -2.23549E+04  1.10921E+04 -1.66359E+04  1.04631E+04  1.56244E+03
  9.48765E+03  1.45481E+04 -1.35740E+03  1.57644E+04 -1.37630E+04  7.42333E+03 -1.53415E+04 -5.59995E+03
 -1.20876E+04 -1.41158E+04 -3.09810E+03 -2.39302E+04  6.56920E+03 -1.08214E+04  1.77277E+04 -7.70392E+03
  2.11132E+04 -1.40497E+03  1.71998E+04  6.65798E+03  3.83657E+03 -1.35695E+02  5.36169E+03 -3.59403E+03
  1.71096E+04  2.67465E+03  1.37336E+04  1.46529E+04  1.25396E+04  2.96321E+04 -6.33926E+03  3.28364E+04
 -2.10524E+04  2.21140E+04 -2.77989E+04  1.04197E+04 -3.32564E+04 -1.53101E+03 -2.37157E+04 -1.82635E+04
 -1.61171E+04 -2.61922E+04  7.92556E+03 -2.17612E+04  2.09360E+04 -1.20687E+04  1.97730E+04  6.30459E+03
  6.82288E+03  1.43737E+04 -1.02258E+04  1.10198E+04 -1.64677E+04 -3.54071E+03 -1.39722E+04 -1.23421E+04
  3.33023E+03 -1.57399E+04  4.01726E+03 -1.09834E+04  1.05999E+04 -2.65560E+03  9.80944E+02  1.55109E+03
 -4.07834E+03  1.10837E+03 -5.45057E+03 -2.59687E+03 -3.03730E+03 -1.21087E+04  9.22064E+03 -9.10772E+03
  1.81565E+04 -9.39682E+03  1.51620E+04 -2.27442E+03  1.11931E+04  1.26295E+04  6.27402E+03  1.72079E+04
  7.60407E+02  1.31362E+04 -1.10116E+04  1.16631E+04 -1.41471E+04  1.39372E+02 -7.81598E+03 -4.19066E+03
 -5.96114E+03 -5.30559E+03  3.01312E+03  1.51447E+03  3.19564E+03 -1.56365E+03 -4.19785E+03  5.68814E+02
 -6.91182E+03 -5.62288E+03 -8.59986E+03 -8.53219E+03 -9.33223E+02 -1.50747E+04  1.89848E+03 -1.45734E+04
  7.00020E+03 -1.84382E+03  6.04645E+03  2.14127E+03 -2.54381E+03  5.74584E+03 -1.99384E+03 -5.67444E+03
 -1.92538E+03 -8.30377E+03  1.77573E+03 -6.54919E+03  3.21592E+03 -9.03591E+03  1.27091E+04 -5.47498E+03
  1.42110E+04 -6.94611E+02  1.21529E+04  1.08669E+04  4.81923E+03  1.07002E+04 -2.61545E+03  9.10356E+03
 -6.27878E+03  3.11469E+03 -2.20805E+03 -6.95518E+02  5.79012E+03 -4.28182E+03  6.00932E+03  4.66805E+02
  2.98683E+03  6.82314E+03 -3.13172E+03  8.47459E+03 -3.74913E+03  1.10848E+04 -9.54768E+03  3.88514E+03
 -7.16513E+03 -5.75887E+03  3.93788E+03 -7.98096E+03  1.95259E+03 -2.66382E+03  5.27112E+03 -1.89208E+03
 -1.16459E+02  7.80897E+03 -4.44344E+03  7.13634E+03 -7.57951E+03  2.75059E+03 -5.81837E+03 -3.46961E+03
 -3.86014E+03 -6.84557E+03  4.92911E+03 -7.58949E+03  9.62808E+03 -7.91681E+03  2.71426E+03 -3.92733E+03
  4.61036E+03  6.47168E+03  2.29638E+03  8.19299E+03 -7.30533E+03  2.64499E+03 -7.43883E+03 -3.42229E+03
 -9.73302E+03 -6.49142E+03  2.76884E+03 -8.42204E+03  2.21276E+03 -2.91463E+03  3.06205E+03 -1.36598E+03
  5.17237E+03  1.86038E+03  5.57100E+02  7.27345E+03 -2.85826E+03 -3.68012E+03  2.59903E+03  1.16308E+03
  4.12877E+03 -1.40897E+03  6.31400E+03 -1.34262E+03  6.86255E+03  2.44471E+03  3.13985E+03  1.01861E+04
 -4.78791E+03  1.22808E+04 -1.14242E+04  5.27898E+03 -1.24584E+04  5.27113E+03 -9.67889E+03 -4.83714E+03
 -3.71030E+03 -8.45508E+03 -3.11578E+03 -7.76900E+03  3.21776E+02 -5.51531E+03  2.06297E+03 -8.04128E+03
  1.08315E+03 -3.59695E+03  1.08962E+03 -3.15552E+03  7.94382E+02 -1.34111E+03  4.72734E+03  2.21308E+03
  4.23395E+03  3.07271E+03  1.11555E+03  7.36760E+03 -7.18844E+03  9.61342E+03 -9.53789E+03  1.13606E+03
 -8.03820E+03 -3.28782E+03 -3.06561E+03 -2.90103E+03 -3.37813E+03 -5.64624E+03  2.99075E+03 -1.24522E+04
  7.15086E+03 -6.15875E+03  1.06602E+04  3.87622E+03  8.68014E+03  6.74942E+03 -2.93951E+02  9.36250E+03
 -2.96690E+03  8.95928E+03 -4.67286E+03 -1.45950E+03 -7.05610E+03 -2.96513E+03  4.78710E+03 -3.22886E+03
  4.53753E+03 -2.46215E+02  1.75117E+03  1.02049E+03 -9.99627E+02  1.51443E+03 -2.18006E+03  1.59237E+03
 -5.75748E+03 -8.98760E+03  5.45962E+00 -3.54832E+03  6.41074E+03 -4.60595E+03  1.15552E+04 -1.54874E+03
  7.84091E+03  1.63848E+03  4.71951E+03  9.95300E+03  7.77810E+02  4.28690E+03 -5.16618E+03  3.95145E+03
 -2.47793E+03 -5.99077E+02 -5.60715E+03 -6.27816E+03 -2.17684E+03 -5.46400E+03  2.91580E+03 -7.01809E+03
  5.70056E+03 -1.83724E+03  4.01965E+03  3.21107E+03  3.25226E+03  5.26165E+02  6.27190E+02  3.87418E+03
 -1.73925E+03  1.63757E+02  5.18047E+03 -1.71111E+03 -8.09509E+02  2.17586E+03  1.41757E+03  4.54265E+03
  1.61455E+03  6.85047E+03 -3.46291E+03  5.50577E+03 -3.30565E+02  6.49359E+03 -3.12586E+03 -1.50897E+03
  2.45921E+03 -7.67026E+03 -4.47848E+03 -8.23299E+03 -8.04521E+02 -3.82979E+03  1.00548E+04  2.16003E+03
  1.59355E+03  3.61250E+03  2.36364E+02  3.39469E+03  1.04628E+03  3.23815E+03  6.84270E+02 -1.52612E+03
  1.47479E+03 -4.86493E+03  1.98306E+03 -2.56846E+03 -3.32015E+03 -1.01227E+03  4.85345E+03 -9.61393E+02
 -1.26147E+02 -9.15177E+01  3.78814E+00  1.88374E+03 -5.84172E+03  2.93576E+03  2.38306E+03  1.13147E+03
  2.13795E+03 -8.62893E+01  1.84377E+03  3.33765E+03  2.80659E+03  3.81670E+03  2.30334E+03  1.55643E+03
 -4.18644E+02  3.40221E+03 -4.68907E+03 -1.65565E+03 -3.37736E+03 -3.41696E+03 -2.33184E+03 -8.82418E+02
  2.69131E+01 -1.84958E+03  3.73978E+03 -5.62243E+01 -1.89084E+03  2.38907E+02 -1.72160E+03  1.87673E+03
 -4.43211E+02  3.99968E+03  1.17773E+02 -4.29380E+03 -6.01369E+03 -6.39263E+03  3.71071E+03 -4.28360E+03
  1.69027E+03 -2.16787E+03  3.77560E+03  1.75765E+03  5.41815E+03  1.09410E+03  4.44493E+03  2.75077E+03
 -5.49992E+03  1.62038E+03 -2.54007E+03 -5.92030E+02 -1.96550E+03 -1.98501E+03  1.12078E+03 -2.96653E+03
  2.79870E+03 -1.87032E+03  5.78120E+03  2.55189E+03  3.62293E+03  7.05578E+03 -5.20871E+02  2.97957E+03
 -6.77326E+02  4.68283E+03 -5.79947E+03  2.03633E+01  1.41018E+03  2.28938E+02 -1.60609E+03 -5.16539E+02
 -2.86093E+03 -3.45769E+03  7.95937E+01 -9.38973E+02  3.77241E+03  5.36591E+03  2.65089E+03 -1.20980E+03
  3.94660E+03  1.22674E+03  2.54246E+03  1.37396E+03 -1.79955E+03  1.40565E+03 -2.46761E+03 -1.41178E+03
 -1.03980E+03  3.05329E+03 -4.83353E+03  5.48803E+03 -5.30661E+02  3.87344E+03 -6.86096E+03 -1.79690E+03
 -1.55305E+03 -5.12547E+03 -1.20956E+03 -7.12982E+03  3.34395E+03 -6.59458E+03  5.75676E+03 -3.99941E+03
  4.26795E+03  1.70277E+03  3.31785E+03  2.84897E+02  2.27274E+03  6.78371E+03 -1.26622E+03  1.61678E+03
 -5.87362E+03  2.90297E+03 -1.76738E+03 -1.02541E+01  2.96246E+03 -2.59260E+03 -1.28787E+03  3.76578E+03
  2.79772E+02 -2.87897E+02 -2.44774E+03  2.06242E+02  2.28133E+02 -5.12254E+02 -3.30573E+03 -1.80647E+03
  3.30675E+03 -3.23096E+03  1.51686E+03 -7.36226E+02  1.81261E+03 -1.36888E+03  9.01951E+02  5.57336E+03
 -4.11016E+03  7.92263E+03 -3.50599E+03  2.68205E+03 -1.98057E+03 -1.59470E+03 -2.28917E+03 -4.61387E+03
 -7.36618E+03 -4.06812E+03  3.66552E+03 -4.79073E+03  1.17297E+03  1.48778E+03  4.17568E+03  2.30715E+03
 -1.43406E+03  1.08070E+03  5.64777E+02 -1.39219E+03  2.57705E+03  7.76274E+02 -1.05071E+03  1.95310E+03
  4.87093E+03 -5.95554E+02  9.58515E+02  7.74518E+02  3.82762E+03 -1.59001E+03 -4.46798E+02 -1.90644E+03
 -3.78906E+03  2.54251E+02 -2.80079E+02  3.80465E+03 -6.09730E+03 -1.30888E+03 -6.01700E+03 -1.66574E+02
  3.18870E+03 -2.35127E+03 -1.72328E+03  4.03216E+02 -1.14467E+03 -1.77349E+03 -3.02041E+03  1.00844E+03
 -1.43213E+03  1.95626E+03  8.26806E+02 -1.30192E+03 -1.75728E+03 -3.48931E+03 -8.39510E+02  1.39727E+01
  2.03321E+03 -4.00019E+03 -6.42493E+02  1.20472E+03  2.69857E+03 -3.05112E+02 -4.31070E+02 -8.24163E+02
  1.64164E+02 -1.92651E+03  2.11127E+03 -2.90079E+03 -3.11516E+03 -3.82939E+03  2.87089E+03  3.07343E+03
  9.73666E+02  2.40107E+03  8.56539E+02 -4.21063E+02  4.64927E+03  2.42321E+03  1.47122E+03  4.13902E+03
