 $NMID ID='MM_0lb_SNR50_13hz_g55_52.RAW', FMTDAT='(8E13.5)'
 TRAMP=1., VOLUME=1. $END
  3.12985E+05  9.06776E+02  3.40032E+05  2.50745E+05  8.44301E+04  3.39213E+05 -1.35266E+05  2.55078E+05
 -1.87809E+05  8.59544E+04 -1.10459E+05 -3.79916E+04  5.23075E+02 -5.69191E+04  5.61901E+04  1.08746E+03
  3.08509E+04  5.95032E+04 -1.50608E+04  7.39275E+04 -5.74593E+04  6.16963E+04 -8.08514E+04  3.32742E+04
 -8.50665E+04 -1.68785E+04 -5.84572E+04 -5.92687E+04 -1.89886E+04 -6.73063E+04  2.66344E+04 -4.76432E+04
  4.16396E+04  1.05929E+04  1.43525E+04  4.30686E+04 -3.80140E+04  5.10432E+04 -6.53603E+04  3.49998E+03
 -5.74120E+04 -6.14982E+04 -5.49171E+03 -7.61658E+04  3.60485E+04 -5.58722E+04  5.23335E+04 -2.37692E+04
  4.57416E+04  1.67816E+04  3.14189E+04  2.46389E+04  1.33885E+04  3.05960E+04 -4.94988E+03  2.28000E+04
 -1.76048E+04  1.25865E+04 -1.96256E+04 -6.36881E+03  2.88960E+03 -1.02735E+04  1.92178E+04  1.17309E+04
  4.78455E+03  3.92117E+04 -3.25672E+04  3.26067E+04 -6.40794E+04  1.69708E+03 -5.16956E+04 -4.23822E+04
 -1.16223E+04 -6.14132E+04  3.73670E+04 -4.22587E+04  5.35614E+04 -7.79695E+02  3.45578E+04  3.73238E+04
 -2.15539E+02  4.04026E+04 -2.87280E+04  1.28635E+04 -3.06992E+04 -6.68293E+03 -1.30770E+04 -8.81071E+03
 -7.87412E+03 -1.42428E+04  1.01619E+03 -1.67794E+04  4.19746E+03 -3.21274E+04  1.61304E+04 -1.55898E+04
  1.24239E+04  2.33277E+03 -1.69097E+04  1.25884E+04 -2.58261E+04 -1.51129E+03 -8.42391E+03 -3.42438E+04
  2.22484E+04 -4.53624E+04  4.71320E+04 -1.61390E+04  4.40698E+04  2.23372E+04  1.22454E+04  4.83433E+04
 -1.70075E+04  3.65377E+04 -2.81152E+04  1.66130E+03 -5.35819E+03 -3.04305E+04  1.88099E+04 -3.31960E+04
  4.51092E+04 -8.29628E+03  3.89099E+04  2.65113E+04  2.27081E+04  4.88514E+04 -7.09250E+03  4.95723E+04
 -3.20250E+04  3.69673E+04 -4.43032E+04  6.71059E+03 -4.16730E+04 -1.45970E+04 -2.23896E+04 -4.11690E+04
  1.40471E+03 -3.40384E+04  3.13752E+04 -1.27923E+04  2.72253E+04  1.10425E+04  5.07977E+03  2.07278E+04
 -1.49317E+04  7.15388E+03 -8.80292E+03 -1.08456E+04  7.72787E+02 -1.32345E+04  2.14002E+04  7.37613E+03
  1.70755E+04  2.32620E+04 -7.15230E+03  2.57560E+04 -2.09170E+04  8.35771E+03 -2.90775E+04 -4.74427E+03
 -2.51792E+04 -1.32997E+04 -1.37726E+04 -2.80163E+04  1.33133E+03 -2.11774E+04  1.72239E+04 -2.00993E+04
  2.99771E+04 -1.51475E+04  2.82516E+04  4.42364E+02  2.71734E+04  2.07417E+04  6.33407E+03  4.27258E+04
 -1.66463E+04  2.37812E+04 -2.98996E+04  8.38095E+03 -2.35318E+04 -1.31231E+04 -7.68931E+03 -1.48876E+04
  2.26501E+03 -1.44358E+03 -4.38492E+03  5.76938E+03 -1.74126E+04  7.60244E+01 -1.51658E+04 -6.35849E+03
 -1.32182E+04 -2.63868E+04  8.71895E+03 -2.36636E+04  1.60461E+04 -1.99300E+04  1.91409E+04 -8.67192E+03
  1.40132E+04  1.45858E+04 -1.80412E+03  1.62502E+04 -1.23789E+04  1.04614E+04 -1.74641E+04 -4.49817E+03
 -1.53708E+04 -1.53523E+04 -3.96696E+03 -2.22805E+04  1.45654E+04 -1.93278E+04  2.02133E+04 -1.05453E+04
  1.94391E+04  2.97625E+03  1.80339E+04  5.07578E+02  9.13773E+03  2.10392E+02  1.05499E+04 -6.37852E+03
  1.88607E+04  2.19430E+03  1.92362E+04  1.45829E+04  1.47089E+04  2.66690E+04 -4.07578E+03  3.96285E+04
 -1.96330E+04  3.36875E+04 -3.60343E+04  1.54020E+04 -4.07146E+04 -3.96614E+03 -2.59841E+04 -1.89958E+04
 -1.85849E+04 -3.15428E+04  1.07254E+04 -2.67102E+04  2.25459E+04 -2.10175E+04  2.05719E+04  6.63128E+03
  1.59890E+03  1.70688E+04 -1.02587E+04  1.07570E+04 -1.88683E+04  2.79716E+03 -1.31791E+04 -1.17484E+04
 -3.93329E+03 -1.57927E+04  1.19159E+04 -1.54893E+04  9.03521E+03  3.52953E+03 -1.80250E+02  7.04031E+03
 -1.13386E+04  2.16008E+03 -1.33777E+04 -7.19943E+03 -4.40722E+02 -1.30774E+04  9.04528E+03 -1.60006E+04
  1.78233E+04 -9.42302E+03  1.99008E+04  5.24291E+02  1.53848E+04  1.57095E+04  7.23205E+03  2.49346E+04
 -1.37800E+02  2.03165E+04 -1.65001E+04  1.78067E+04 -1.31693E+04  6.15022E+03 -8.07489E+03 -6.90836E+03
 -1.64603E+03 -1.14166E+04 -1.07930E+03  1.00732E+03 -5.86986E+03  5.74474E+03 -6.43168E+03  4.38446E+03
 -1.03980E+04 -6.12942E+03 -1.13707E+04 -1.13319E+04 -3.24161E+03 -1.59347E+04  3.69076E+03 -1.38405E+04
  7.33240E+03 -3.31953E+03  8.14380E+03  2.21489E+03 -2.05006E+03  1.79436E+03 -8.07449E+03  4.29662E+03
 -1.05428E+04 -5.34232E+03  4.59753E+03 -6.52749E+03  9.12603E+03 -1.38596E+04  1.73653E+04 -4.92489E+02
  1.89983E+04  5.47026E+02  1.37940E+04  1.37981E+04  5.80971E+03  9.21821E+03 -8.80799E+03  1.68628E+04
 -1.10641E+04  6.79466E+03 -4.98354E+03  5.40003E+02 -5.29091E+02 -2.90718E+02  4.78485E+03 -8.04643E+03
  7.05973E+03  1.87258E+03  4.10096E+03  7.42588E+03 -4.91162E+03  9.78025E+03 -1.02568E+04 -4.70056E+03
 -6.73609E+03 -4.81550E+03  3.33280E+03 -9.89808E+03  5.17964E+03 -8.40333E+03  5.91555E+03  2.46613E+03
  1.68303E+03  9.28965E+03 -9.84002E+03  1.31406E+04 -1.18243E+04  7.18136E+03 -1.37664E+04 -2.17195E+03
 -7.44393E+03 -7.69959E+03 -3.74880E+03 -4.47756E+03  1.18457E+04 -8.25301E+03  9.06654E+03  3.07334E+03
  4.15309E+03  6.77217E+03 -9.67207E+02  1.31948E+04 -7.29472E+03  3.24667E+03 -7.57505E+03 -8.21152E+02
 -6.93010E+03 -6.91635E+03  4.46478E+03 -1.10542E+04  1.17771E+03 -7.96005E+03  9.08958E+03 -3.33267E+03
  3.29711E+03  2.03723E+03 -1.18654E+03  4.05901E+03 -6.82650E+02 -3.96764E+03  4.68385E+03 -1.24903E+04
  7.87989E+03 -3.36002E+03  1.26975E+04 -3.20502E+03  7.25353E+03  8.75056E+03  6.61619E+03  1.29181E+04
 -1.95040E+03  1.24566E+04 -1.26365E+04  1.01656E+04 -2.01146E+04  3.02431E+03 -1.43675E+04 -5.92944E+03
 -4.11974E+03 -1.21239E+04  2.04288E+01 -8.69142E+03  4.91913E+03 -1.11530E+04  5.17019E+03 -2.20723E+03
  1.44796E+03 -5.20083E+03  3.26297E+03 -6.13232E+03  1.76322E+03 -2.40068E+03  5.26959E+03  1.41578E+01
  8.15410E+03  5.76033E+03  6.68067E+03  8.73706E+03 -2.32121E+03  1.99174E+03 -8.81874E+03  3.34008E+03
 -9.69147E+03 -4.22184E+03 -5.43992E+03 -1.11721E+03 -1.39392E+03 -1.13403E+04  1.08044E+04 -1.03557E+04
  9.96676E+03 -5.42245E+03  1.48353E+04  3.44870E+03  1.07034E+04  6.39354E+03 -7.96806E+02  1.55834E+04
 -3.28994E+03  9.51285E+03 -1.03508E+04  3.51058E+03 -2.63118E+03 -2.17345E+02 -4.36298E+03  9.44170E+02
 -1.36481E+03  4.91928E+02 -5.99048E+03  5.58735E+03 -1.91196E+03  2.66526E+03 -8.17500E+03  1.55408E+03
 -4.98345E+03 -5.12308E+03 -1.93585E+02 -9.19124E+03  1.00179E+04 -1.11942E+04  6.18424E+03 -3.88178E+03
  8.32211E+03  5.39921E+03  7.53007E+03  6.88554E+03 -8.87118E+02  8.34508E+03 -7.27329E+03  1.04496E+04
 -9.33091E+03  3.68435E+02 -8.76825E+03 -4.09853E+03  4.83462E+03 -1.09417E+04  4.69753E+03 -9.18023E+03
  3.78461E+03  7.55161E+02  1.04974E+04  9.08812E+03 -6.13898E+02  7.81103E+03 -1.73088E+02  3.89933E+02
  5.64409E+03 -3.35447E+02  1.53149E+03  2.76889E+03  3.88087E+03 -2.48148E+03  3.33150E+03  7.53372E+03
  1.71929E+03  6.59548E+03 -1.58036E+04  9.85788E+03 -7.04953E+03  9.29115E+02 -1.30176E+04  2.92488E+02
 -9.57805E+03 -8.89127E+03  3.80345E+03 -9.30524E+03  2.38656E+03 -6.64005E+03  7.85235E+03  1.40376E+03
  8.29311E+03  4.63359E+03  4.18177E+03  8.70309E+03 -5.72656E+03  4.15882E+03  5.79128E+00 -3.33141E+03
 -4.13555E+03 -7.97993E+03  2.03912E+03 -3.00431E+03  8.60005E+03 -2.89580E+03  5.51377E+03 -4.34274E+02
  6.28716E+03  1.74071E+03  2.25724E+03  1.47470E+03 -4.23968E+02  3.09220E+02  6.27262E+03  1.56107E+03
  1.36435E+03 -3.77163E+03  3.49045E+03  2.37855E+02  3.17426E+03  7.38970E+03  3.99442E+03  2.23388E+03
 -4.93785E+03  5.11524E+03 -4.71009E+03 -5.59526E+03 -2.08685E+03 -1.78398E+03 -4.61709E+02 -1.42285E+03
 -3.62871E+02 -7.38567E+03  1.72039E+03 -2.24049E+03  5.98943E+03  5.49482E+03  7.67476E+02  2.04381E+03
 -4.24418E+03  2.30514E+02 -6.58923E+03 -8.88164E+02 -2.35459E+03 -4.53855E+03 -4.04072E+02 -3.03675E+03
  1.96083E+01 -5.47976E+03  6.98515E+03  2.40327E+03  4.98768E+03 -6.87733E+02 -9.89578E+02  6.17156E+03
 -3.66238E+03  2.34986E+03 -3.76569E+03 -2.29881E+03  1.02104E+03 -4.70518E+03  5.24888E+03 -1.86967E+03
  3.13137E+03  1.96663E+03  4.01666E+03  1.79728E+03  9.36316E+02  7.23832E+03 -1.78448E+03  7.80253E+03
 -2.00811E+03 -6.58443E+02 -6.79012E+03 -7.65677E+02  8.08978E+02 -3.59812E+03  1.26293E+03 -8.28200E+02
  4.87207E+03 -2.83763E+03  1.36916E+03  1.93092E+03  4.64527E+03  5.38274E+03 -3.27231E+03  2.98935E+03
 -1.89849E+03  1.89950E+03  9.89187E+02  9.61791E+02  2.54008E+03 -3.97742E+02 -5.54710E+03  5.98267E+03
  1.02537E+03  1.25940E+03 -4.04446E+03  7.24879E+03 -3.68089E+03  7.54155E+01 -4.35637E+03 -2.63219E+03
 -1.66636E+03 -4.95340E+03  4.80518E+03 -1.36961E+04  7.14363E+03 -6.89768E+03  5.73544E+03 -2.15129E+03
  8.89715E+03  3.62241E+03  6.64786E+03  3.88648E+03 -6.24961E+01  3.11744E+03  3.26500E+03  6.01699E+03
 -5.16426E+03  7.09718E+03 -5.05806E+02  1.38023E+03 -1.96238E+02 -3.63623E+03 -7.82418E+02 -1.58496E+02
 -8.60666E+02 -4.02971E+03 -3.31104E+03  1.09637E+03 -2.64378E+03 -6.40077E+03  2.22947E+03 -3.55349E+03
  3.47478E+02 -3.55257E+03  5.02804E+03 -1.98107E+03  2.03672E+03  5.02953E+03  3.48610E+03  7.66604E+03
 -7.73924E+03 -1.02455E+03 -6.81694E+03  5.64198E+03  8.44972E+02  1.50724E+03  2.51478E+02 -6.07925E+03
  2.93775E+03 -7.46245E+03  2.24182E+02 -5.40123E+03 -7.46289E+02 -6.75708E+03  5.63945E+03  6.79480E+02
  2.00706E+03 -7.48522E+02  2.22196E+03 -4.52602E+03 -7.91323E+02 -6.32992E+02  1.55146E+03 -1.03178E+03
 -6.37348E+03 -1.14863E+03  4.11426E+03  9.14140E+02  6.01458E+02  3.84256E+03 -1.55919E+03  3.91789E+03
  4.28140E+03 -1.76833E+03 -2.57647E+03  5.70675E+03  1.69314E+03  2.61747E+02  2.79498E+03 -5.09406E+03
  1.63871E+03 -9.99038E+02 -2.03845E+03 -3.55653E+03  3.68244E+03  4.32555E+03  1.24699E+03  3.33762E+03
  3.51553E+02 -4.01543E+03 -2.88177E+03  6.21558E+03 -4.25296E+03  3.95623E+03 -1.41906E+03 -5.63226E+03
  4.57247E+03 -3.00791E+03  1.12936E+03  8.04377E+02 -2.28968E+03 -1.23022E+03 -5.60657E+03  1.21300E+03
 -7.45407E+03 -1.22554E+03 -1.18316E+03 -5.33426E+03  3.82328E+03  1.26797E+02  1.97127E+03 -1.93759E+03
  4.23239E+03  1.06283E+03  2.12332E+03 -4.71261E+03  1.01383E+03  6.93720E+03 -2.34309E+03  2.23544E+03
