 $NMID ID='MM_0lb_SNR50_19hz_g60_45.RAW', FMTDAT='(8E13.5)'
 TRAMP=1., VOLUME=1. $END
  3.11888E+05  7.63741E+01  3.36487E+05  2.50479E+05  8.83161E+04  3.40803E+05 -1.34256E+05  2.52483E+05
 -1.85146E+05  7.87870E+04 -1.09851E+05 -3.01931E+04 -1.43465E+03 -5.23669E+04  5.10894E+04 -1.22707E+03
  3.50987E+04  5.26834E+04 -1.76360E+04  7.39186E+04 -6.38971E+04  6.60503E+04 -8.21869E+04  3.05466E+04
 -7.91748E+04 -1.20059E+04 -5.73518E+04 -5.02312E+04 -1.37305E+04 -6.92134E+04  2.76249E+04 -4.54719E+04
  3.89093E+04  2.16655E+03  1.83382E+04  4.60627E+04 -3.42456E+04  4.82583E+04 -7.15034E+04 -3.99595E+03
 -5.03472E+04 -5.66141E+04 -7.73771E+03 -7.30827E+04  2.91880E+04 -5.26607E+04  4.41764E+04 -1.65937E+04
  4.17553E+04  1.47024E+04  3.24731E+04  2.59029E+04  1.13812E+04  3.08613E+04 -4.48744E+03  2.42438E+04
 -2.02010E+04  1.46262E+04 -1.80661E+04 -5.90425E+03  3.75412E+03 -7.54165E+03  2.20201E+04  1.15563E+04
  6.57619E+03  3.55121E+04 -3.52870E+04  3.67785E+04 -6.12635E+04  1.17294E+03 -5.39514E+04 -4.50512E+04
 -1.13305E+04 -5.81787E+04  4.22489E+04 -4.34696E+04  5.94865E+04 -2.05902E+02  3.29640E+04  2.99637E+04
 -5.59735E+03  3.39283E+04 -2.96623E+04  1.12466E+04 -3.49279E+04 -6.36816E+03 -1.95266E+04 -1.25741E+04
 -9.56990E+03 -1.16552E+04 -5.04221E+02 -2.01500E+04  8.54062E+03 -2.06189E+04  1.71458E+04 -1.63204E+04
  1.20042E+04  3.60322E+03 -8.77036E+03  1.20923E+04 -1.83741E+04 -4.58074E+03 -1.33000E+04 -2.97558E+04
  2.23593E+04 -4.27411E+04  4.75519E+04 -1.93137E+04  4.60360E+04  1.84731E+04  1.48724E+04  4.18064E+04
 -1.24102E+04  2.89150E+04 -2.75214E+04 -1.25098E+03 -9.79611E+03 -2.72858E+04  1.85295E+04 -3.09542E+04
  3.81589E+04 -8.59776E+03  3.24979E+04  2.44333E+04  1.75186E+04  3.97548E+04 -7.21106E+03  4.44125E+04
 -3.26655E+04  2.86996E+04 -4.01183E+04  1.09742E+04 -4.01421E+04 -1.29562E+04 -2.06777E+04 -3.36752E+04
  6.63496E+03 -3.42756E+04  2.85907E+04 -1.60172E+04  2.94178E+04  1.30716E+04  1.32636E+03  2.27371E+04
 -1.40688E+04  8.00318E+03 -1.16386E+04 -1.03378E+04  8.65792E+03 -1.30669E+04  2.02095E+04  6.96380E+03
  8.55653E+03  1.96644E+04 -6.22125E+03  2.80317E+04 -2.38773E+04  6.73233E+03 -2.80877E+04 -4.94691E+03
 -2.01249E+04 -1.32960E+04 -7.70700E+03 -1.94236E+04  5.70120E+03 -1.76763E+04  1.61893E+04 -1.64492E+04
  2.19158E+04 -1.31479E+04  2.63230E+04  1.69853E+03  2.04975E+04  2.15419E+04  6.36203E+03  2.93017E+04
 -1.77133E+04  2.89789E+04 -2.41291E+04  7.75369E+03 -1.96752E+04 -8.24462E+03 -3.51355E+02 -1.41389E+04
 -4.59978E+01 -4.40351E+03 -2.24040E+03  5.00334E+03 -1.41506E+04  2.83770E+03 -1.00938E+04 -6.57311E+03
 -1.57711E+04 -1.62343E+04  2.80296E+03 -2.41551E+04  1.44777E+04 -1.55230E+04  1.53842E+04 -1.01974E+02
  1.08208E+04  1.48443E+04 -2.51706E+02  1.67254E+04 -1.13479E+04  7.91931E+03 -1.41470E+04 -4.02164E+03
 -1.42911E+04 -1.10270E+04  2.43121E+03 -2.37854E+04  7.28596E+03 -1.49370E+04  8.79622E+03 -4.28479E+03
  1.55257E+04 -1.86917E+03  1.22457E+04  3.94132E+03  3.44550E+03  8.95022E+02  1.17608E+04 -1.77747E+03
  1.28069E+04  5.20801E+03  1.24634E+04  1.48442E+04  6.50593E+03  2.95829E+04 -5.27348E+03  2.47955E+04
 -1.65307E+04  1.90048E+04 -2.76334E+04  1.03085E+04 -2.60243E+04 -3.87746E+03 -2.20804E+04 -1.64027E+04
 -1.08156E+04 -1.84007E+04  6.57018E+03 -2.01740E+04  1.81154E+04 -1.64174E+04  1.49547E+04 -3.13534E+01
  1.50341E+03  1.06257E+04 -7.81178E+03  7.54553E+03 -1.49519E+04 -1.80186E+03 -7.88852E+03 -7.00084E+03
  2.92987E+03 -1.59411E+04  7.74088E+03 -1.10327E+04  1.30577E+04  3.30761E+03  1.34066E+02  4.20373E+03
 -5.64540E+03 -8.18008E+01 -5.81075E+03 -2.60864E+03 -1.27619E+03 -9.33795E+03  7.93696E+03 -1.26802E+04
  1.16991E+04 -4.52927E+03  1.76304E+04 -1.66521E+03  1.15217E+04  8.42963E+03  6.25589E+03  1.66332E+04
 -5.51492E+03  1.91115E+04 -1.06723E+04  8.74691E+03 -1.43068E+04  1.58932E+03 -1.16147E+04 -4.07806E+03
 -8.47400E+03 -4.95612E+03 -2.08887E+03  8.74698E+02  1.07117E+03  2.89516E+03 -3.88871E+03  4.85392E+03
 -6.83577E+03 -8.42642E+02 -7.74477E+03 -5.01454E+03 -3.54819E+03 -1.17836E+04 -6.00759E+02 -9.37529E+03
  5.27677E+03 -2.03701E+03  4.25737E+03 -1.06186E+03  1.63625E+03  3.56657E+03 -7.39866E+03  2.61876E+03
 -2.17743E+03 -9.55666E+03 -7.75373E+02 -9.15998E+03  3.51597E+03 -4.79071E+03  1.23436E+04 -5.76198E+03
  1.41617E+04 -7.44827E+02  7.34607E+03  5.40397E+03  5.69800E+03  1.28219E+04 -7.34804E+03  1.27975E+04
 -8.78024E+03  3.97952E+03 -1.66253E+03 -3.08373E+03  9.06208E+02 -1.76452E+03  1.75394E+03 -2.42050E+03
  6.75228E+03  2.77751E+03  1.91561E+03  6.58252E+03 -3.34972E+03  6.68805E+03 -1.06290E+04  1.47657E+03
 -1.35707E+03 -5.06638E+03  1.44469E+02 -4.32231E+03  4.11190E+03 -4.32823E+03  1.10814E+03  1.44076E+03
  2.49471E+02  2.44491E+03 -4.40260E+03  3.68224E+03 -7.75591E+03 -1.47857E+03 -5.26508E+03 -1.63125E+03
  3.60165E+03 -9.11179E+03  3.03298E+03 -1.09113E+04  4.26147E+03  9.45471E+02  6.46624E+03  2.91251E+02
  1.73459E+03  7.95599E+03 -1.44319E+02  5.43337E+03 -7.92841E+03  4.01946E+03 -7.32800E+03  1.65627E+03
 -1.47169E+03 -1.88935E+03  1.97273E+03 -5.16831E+03  3.23591E+03 -4.72309E+03 -1.73238E+03 -1.57369E+03
  1.02973E+03 -2.86618E+03 -2.81521E+03 -2.27759E+02  4.27074E+03 -3.51058E+03  2.09676E+03  1.35942E+03
  3.60502E+03  4.62334E+03  2.97597E+03  2.78886E+03  8.64138E+03  8.62722E+02  4.29980E+03  6.40448E+03
 -8.33634E+02  1.20242E+04 -7.17571E+03  8.17183E+03 -1.12080E+04 -2.55567E+02 -8.52625E+03 -1.96138E+03
 -9.11385E+03 -4.37307E+03  8.42071E+02 -4.73227E+03  4.37078E+03 -6.22446E+03 -1.73617E+03 -5.98401E+03
  2.53088E+03  1.15039E+02  8.32652E+01  2.93242E+03 -9.48207E+02 -1.39111E+03  2.79083E+03 -4.46107E+03
 -5.18437E+02  2.15413E+03  7.37294E+03  3.21335E+03 -3.41665E+03  6.29294E+03 -4.15292E+03  5.24667E+03
 -9.23272E+02 -2.32242E+03 -3.06007E+03 -1.50155E+03  2.33037E+03 -3.40699E+03  5.40460E+03 -1.56449E+03
  5.65020E+03 -5.64203E+03  6.56847E+03 -1.73642E+03  3.84531E+03  2.80275E+03  2.94093E+03  3.92756E+03
  4.72704E+01  4.36572E+03 -4.82610E+03  1.83722E+03 -1.77961E+03 -2.75547E+03  2.79717E+03 -1.15546E+03
 -4.78373E+03  3.61101E+02  2.61263E+03  7.03584E+02 -5.75368E+02  3.51275E+02 -3.75771E+03  3.48180E+02
  2.43309E+03 -2.56876E+03  3.53722E+03 -3.91340E+03  1.04589E+03  9.44027E+02  7.25115E+03  1.18578E+03
  6.41754E+03  2.90243E+03 -1.00732E+03  1.97280E+03 -2.94606E+03  3.72424E+03 -2.04579E+03  1.59625E+03
 -4.18680E+03  2.01562E+03 -4.87425E+03 -4.08967E+03 -3.90627E+02 -5.89611E+03 -1.40079E+03 -7.08956E+02
 -1.38622E+03 -2.31354E+03  2.12271E+03 -1.19709E+03 -5.99990E+03  8.83404E+02 -2.26599E+03 -2.40834E+03
  6.23371E+02  1.18813E+03  3.07392E+03  2.39260E+03  1.82864E+03  4.28954E+03  6.50584E+02  2.39086E+03
  6.60325E+02  2.68816E+03  2.87294E+02  4.24403E+03 -3.70370E+03  3.05855E+03 -5.16215E+03 -5.43951E+02
  6.51692E+02 -2.67324E+03 -2.45448E+03 -2.94937E+03  2.78848E+02 -1.63177E+03  6.72650E+03 -3.92925E+03
  3.38678E+03 -4.76869E+03  6.69444E+02  5.96887E+03  3.02154E+02 -3.54999E+03  2.57599E+02  6.09203E+02
 -5.68841E+02 -7.55492E+03  1.65014E+03  4.08798E+02  1.78747E+03 -2.90109E+03  3.60662E+03 -2.02763E+02
  7.69083E+02  6.53771E+03 -2.29437E+03 -4.00555E+02  3.51854E+03 -1.24896E+03 -2.20943E+03  2.76793E+03
 -5.77064E+02  3.63110E+03  4.40679E+02 -1.51988E+03 -7.09362E+02  2.57419E+03  4.53459E+03  4.85356E+03
  2.07526E-01  2.32071E+03 -5.95580E+03  1.66569E+03 -3.73911E+02  2.54957E+03  4.18797E+02 -1.55482E+03
 -1.87562E+03  5.08365E+02  3.85516E+03 -8.25385E+02 -3.43415E+01  1.83555E+03  1.25836E+03  5.73734E+03
 -2.66965E+03  3.30349E+03 -6.42111E+03 -2.34893E+03 -2.17016E+02  1.14848E+03  2.93448E+03 -3.91740E+03
 -6.55552E+02  3.01885E+02  1.85506E+03  3.28931E+03  4.19938E+03  9.89103E+02  1.48758E+02 -1.75391E+02
 -1.92526E+03  3.09713E+02  1.25056E+03 -6.84326E+02  2.12388E+03 -6.03372E+02 -7.05992E+02 -5.47721E+03
  3.19208E+03  4.12887E+03  1.58384E+03 -1.48181E+03 -7.34728E+02  3.10852E+02 -1.62759E+03 -1.04175E+03
 -6.71080E+02  2.54565E+03  9.67228E+02  3.32076E+03  1.66291E+03 -3.72244E+03  4.15508E+03  1.34125E+03
  6.32706E+03  1.45393E+03  1.26782E+03 -1.98747E+02  1.26527E+02  1.36821E+03 -6.07797E+02 -2.62796E+03
  4.67158E+03  3.26834E+03 -2.25349E+03 -1.52189E+03  5.23572E+03  1.57165E+02  1.29401E+03  2.69053E+03
  1.55534E+03  9.15842E+03 -2.49709E+03  1.19572E+03 -1.35463E+03  2.50442E+03 -1.32767E+03 -1.53682E+02
 -1.67380E+03 -2.20496E+03 -1.95818E+03 -4.81148E+03  2.11566E+03  2.17475E+03  8.12936E+03  8.90851E+02
  2.20169E+03 -2.61509E+03  1.71463E+03  8.20194E+02 -2.55679E+03 -4.98468E+03 -2.74439E+02 -7.26018E+01
 -5.32122E+02 -1.04365E+03 -7.09687E+03  1.18805E+03 -2.24691E+02  1.44934E+03 -2.92931E+03 -7.29272E+02
 -5.44432E+03  6.44834E+02  6.42694E+02 -3.58936E+03 -2.97856E+03  2.50735E+02 -4.11860E+02  4.22454E+03
  1.53372E+03 -4.56161E+02 -4.20671E+03  3.25224E+03  4.81249E+02  1.42174E+03  3.02836E+03 -1.47841E+02
 -1.37032E+03  2.90239E+03 -1.82786E+03  1.21234E+03  3.78979E+02  9.10880E+02 -3.98250E+03 -2.44259E+03
 -6.38346E+02 -3.06542E+03 -2.51154E+03  4.13089E+02  2.00663E+03 -2.64019E+01 -8.21636E+02 -5.95181E+02
 -1.67412E+03  3.36301E+03  2.11607E+03 -7.17676E+02 -3.36838E+03 -1.78988E+03  2.61984E+03  2.41459E+02
  1.99482E+03  1.24234E+03  1.44959E+02  3.02562E+03 -8.87074E+02  1.99931E+03  1.06232E+03  3.21514E+03
 -2.71577E+03 -4.41875E+03  3.46394E+02  3.26919E+03 -1.78268E+03  5.28197E+03 -7.56747E+02 -1.45073E+03
  2.21358E+02  2.12198E+03 -2.40954E+03 -2.16780E+02 -1.83223E+02  3.21347E+03 -1.51918E+03 -1.28004E+02
  3.77521E+03  1.62632E+03  9.36273E+02 -7.73524E+02 -1.30758E+03  4.65958E+03 -1.58174E+03  2.55031E+03
 -5.30553E+02  3.43633E+03 -4.76019E+03 -6.56497E+02 -3.29898E+03 -3.02198E+03  3.72901E+03  9.34735E+02
 -2.90752E+03 -3.87056E+03 -2.58558E+03  9.39990E+02  1.59331E+03 -3.52437E+03  2.71352E+03  1.77754E+02
  7.35765E+02 -5.34572E+02 -9.26668E+01 -2.58429E+03  2.27182E+02 -1.37920E+03 -2.96422E+03  5.24316E+03
