 $NMID ID='MM_0lb_SNR50_15hz_g45_91.RAW', FMTDAT='(8E13.5)'
 TRAMP=1., VOLUME=1. $END
  3.08414E+05  3.37187E+03  3.33379E+05  2.53492E+05  8.22768E+04  3.39348E+05 -1.28725E+05  2.49395E+05
 -1.90918E+05  8.24431E+04 -1.10339E+05 -3.44739E+04  2.05550E+03 -4.78109E+04  5.71923E+04 -1.46252E+03
  3.10352E+04  5.04543E+04 -1.40439E+04  6.76029E+04 -5.91390E+04  5.85358E+04 -8.68234E+04  3.04134E+04
 -8.18339E+04 -9.38248E+03 -5.43446E+04 -4.51422E+04 -1.56313E+04 -6.50258E+04  3.02510E+04 -4.62730E+04
  3.70692E+04  1.12057E+03  1.48283E+04  4.71050E+04 -3.08346E+04  4.52114E+04 -6.94461E+04 -1.44167E+03
 -5.03555E+04 -5.37791E+04 -1.02068E+04 -7.97227E+04  3.37622E+04 -5.57520E+04  4.35397E+04 -1.77536E+04
  4.29268E+04  1.21088E+04  2.61636E+04  2.89591E+04  1.92203E+04  2.98103E+04 -3.59308E+03  2.56002E+04
 -2.67488E+04  1.12214E+04 -1.66232E+04 -6.28703E+03  7.52154E+03 -6.74503E+03  2.27035E+04  1.52665E+04
  7.96685E+03  3.83915E+04 -2.81002E+04  3.62780E+04 -6.05810E+04  2.80333E+03 -5.40054E+04 -4.11621E+04
 -1.40223E+04 -6.14039E+04  3.83115E+04 -4.84321E+04  5.59185E+04 -5.77269E+03  3.31659E+04  3.39229E+04
 -6.93123E+03  3.48794E+04 -3.48700E+04  1.71894E+04 -2.38799E+04 -7.83948E+03 -1.35484E+04 -1.02512E+04
 -1.06928E+04 -1.33167E+04 -5.19687E+03 -1.77681E+04  9.28188E+02 -2.19613E+04  1.09600E+04 -1.61317E+04
  1.34452E+04  4.67918E+03 -7.03735E+03  1.68183E+04 -1.72218E+04 -5.86870E+03 -7.69038E+03 -3.01287E+04
  1.81391E+04 -4.27678E+04  4.80295E+04 -1.98053E+04  4.32182E+04  1.69992E+04  1.34948E+04  3.98366E+04
 -1.27010E+04  3.03260E+04 -2.50626E+04  1.54190E+03 -6.40334E+03 -2.23049E+04  1.70016E+04 -3.23300E+04
  3.76770E+04 -8.82973E+03  3.49989E+04  2.00910E+04  1.28266E+04  4.41397E+04 -6.48336E+03  5.09932E+04
 -2.96494E+04  3.16565E+04 -4.05200E+04  3.15916E+03 -4.46034E+04 -1.79538E+04 -2.14916E+04 -3.51081E+04
  9.80060E+03 -3.47601E+04  3.56928E+04 -1.18606E+04  2.32300E+04  7.12136E+03  2.75063E+03  2.45728E+04
 -1.38328E+04  8.32356E+03 -6.64248E+03 -2.98434E+03  5.66863E+03 -6.87226E+03  1.84965E+04  8.81496E+03
  1.41381E+04  2.11985E+04 -1.01037E+04  2.88874E+04 -2.15473E+04  1.02060E+04 -3.05581E+04 -5.49613E+03
 -1.43019E+04 -1.59847E+04 -1.09580E+04 -1.69406E+04  1.00641E+04 -1.83574E+04  1.61299E+04 -1.41007E+04
  2.54446E+04 -1.03106E+04  3.19723E+04 -1.46718E+03  2.23996E+04  2.07387E+04  4.40933E+03  3.67248E+04
 -1.99958E+04  3.02634E+04 -2.69521E+04  1.16935E+04 -2.12445E+04 -9.92234E+03  7.92870E+02 -1.39390E+04
  3.65881E+03  1.12896E+03 -4.34901E+03  3.44849E+03 -1.57526E+04  3.68843E+03 -1.35894E+04 -6.75606E+03
 -6.24733E+03 -1.88625E+04  6.38681E+03 -1.86226E+04  1.44224E+04 -1.39772E+04  1.67612E+04  4.39552E+02
  6.15560E+03  1.11373E+04 -5.64218E+03  1.88661E+04 -5.85874E+03  7.97704E+03 -1.75004E+04 -6.51958E+03
 -1.37536E+04 -2.07182E+04 -2.48365E+03 -2.32774E+04  1.17228E+04 -1.84801E+04  1.62655E+04 -6.72377E+03
  1.33372E+04 -1.26445E+03  8.04663E+03  6.22646E+03  7.92493E+03 -2.36468E+03  6.47825E+03  2.33108E+03
  1.75755E+04  4.98338E+03  1.73198E+04  1.82556E+04  1.07831E+04  3.00548E+04 -1.97070E+03  3.10703E+04
 -2.40364E+04  2.50905E+04 -2.72363E+04  1.84743E+04 -2.93679E+04  1.12565E+03 -2.10089E+04 -1.75656E+04
 -1.64789E+04 -2.05740E+04  3.26863E+03 -2.05745E+04  2.04796E+04 -1.92712E+04  2.03929E+04  1.65104E+03
  6.91720E+03  1.17921E+04 -9.53642E+03  1.15799E+04 -1.46415E+04  4.07499E+03 -1.40538E+04 -1.11838E+04
  1.61118E+03 -1.49919E+04  1.36047E+04 -1.28445E+04  9.99542E+03 -1.03011E+03  6.51524E+03  1.00044E+04
 -5.46455E+03  2.61783E+03 -2.09339E+03 -5.10220E+03 -1.36485E+03 -1.23506E+04  8.61703E+03 -1.48412E+04
  1.53103E+04 -6.19999E+03  1.96273E+04  4.69942E+03  8.33610E+03  1.02347E+04  7.84629E+03  1.58658E+04
 -1.01951E+03  1.84260E+04 -1.43349E+04  1.68830E+04 -1.20327E+04  6.81897E+03 -9.29711E+03 -6.42346E+03
 -1.90831E+03 -4.66766E+03  3.20334E+03 -8.42996E+02 -3.93560E+03  5.85837E+03 -7.22699E+03  5.89130E+03
 -1.15468E+04 -8.26443E+02 -7.61383E+03 -7.97570E+03 -5.28726E+03 -1.78637E+04  4.27257E+03 -1.19810E+04
  5.39886E+03 -4.59065E+03  1.02369E+04  2.36991E+03 -1.22308E+03  1.68240E+03 -5.80433E+02 -4.78432E+03
 -4.98747E+03 -1.26981E+04 -2.06610E+03 -8.99916E+03  5.28215E+03 -1.35449E+04  1.27826E+04 -3.71512E+01
  1.90266E+04  2.64803E+03  8.61643E+03  1.17744E+04  3.52437E+02  1.54681E+04 -1.03691E+04  1.38750E+04
 -1.18434E+04  3.84543E+03 -5.18951E+03 -1.30153E+03 -5.65666E+02 -1.38033E+03  1.00092E+04  6.49702E+02
  7.37485E+03  9.20045E+03 -3.89058E+02  9.91766E+03 -5.38252E+03  9.13576E+03 -5.15867E+03  5.15678E+03
 -8.32039E+03 -2.64065E+03  2.23861E+02 -7.71973E+03  6.87735E+03 -1.83765E+03  4.79027E+03  3.36885E+03
  2.85999E+03  4.22990E+03 -6.47494E+03  6.57000E+03 -8.95615E+03  4.35372E+03 -8.41257E+03 -1.42965E+03
 -5.30717E+03 -1.30491E+04  2.21759E+03 -1.39626E+04  6.15709E+03 -4.31844E+03  8.41454E+03  2.28993E+03
  7.81228E+03  3.36777E+03  2.95454E+03  6.67542E+03 -4.73669E+03  2.53877E+03 -7.14666E+03 -7.47082E+02
 -8.66835E+03 -3.46729E+03  5.55164E+03 -3.29868E+03  2.20621E+03 -6.43286E+03  4.74968E+03  2.41296E+03
  5.04890E+03  5.47964E+03 -1.25412E+02  3.05919E+03 -2.21966E+03  9.90317E+02  2.10167E+03 -4.36822E+03
  8.39519E+03 -2.02997E+03  1.16293E+04  3.89317E+03  7.37368E+03  5.82841E+03  6.93814E+03  7.94118E+03
 -4.88401E+03  7.91472E+03 -1.27072E+04  7.18758E+03 -1.68393E+04  3.82686E+03 -1.64968E+04  3.35814E+03
 -5.22101E+03 -7.45834E+03  1.28350E+03 -2.84075E+03  3.26078E+03 -4.62317E+03 -4.59786E+02 -5.99842E+03
  1.22329E+03 -9.72647E+02 -8.91980E+02 -1.42562E+03  5.07133E+03  1.61248E+03  3.56782E+03 -1.06933E+03
  5.36341E+03  5.21922E+03  4.04179E+03  3.16639E+03 -4.53114E+03  6.65990E+03 -1.00713E+04  7.54999E+03
 -7.83039E+03 -2.59741E+03 -2.91090E+03 -9.45293E+03 -4.98563E+02 -1.11015E+04  2.70560E+03 -6.89283E+03
  8.18278E+03 -6.32362E+03  9.06752E+03  1.27879E+03  8.25731E+03  7.77913E+03  2.56130E+03  1.13759E+04
 -3.44230E+03  1.04671E+04 -6.64145E+03  1.18576E+03  1.64796E+03 -1.90973E+01 -4.05388E+03  2.51654E+03
 -2.57036E+02 -3.85866E+03 -1.80406E+03  2.68273E+03 -2.20389E+03  4.40385E+03 -6.58720E+03 -1.19326E+03
  2.01663E+03 -4.65096E+03 -2.48334E+03 -8.18290E+03  2.64749E+03 -4.95468E+03  7.49293E+03 -9.51243E+02
  6.70103E+03  3.64151E+03  1.35639E+03  5.40151E+03 -2.07531E+03  6.21873E+03 -1.12269E+03  9.89893E+03
 -5.26155E+03 -3.96400E+03 -4.47425E+03 -4.55439E+03  1.44906E+03 -6.26626E+03  4.23391E+03 -5.64880E+03
  4.37760E+03 -2.07125E+03  6.72740E+03 -1.72444E+02  3.26844E+03  2.12125E+03  5.79097E+03 -1.15208E+03
  2.94307E+03 -4.41275E+03 -4.36601E+02  4.99431E+03  3.04074E+03  1.63618E+03 -4.55403E+03  2.48968E+03
  1.98869E+03  7.18372E+03 -4.37918E+03  4.16761E+03 -8.17254E+03  3.99064E+03 -1.00439E+04  6.14968E+02
 -6.46169E+03 -7.63252E+03 -4.80670E+03 -4.07162E+03  1.35595E+03 -4.53356E+03  1.67384E+03  1.27667E+03
  2.77246E+03  4.74017E+02  1.25767E+03  1.21952E+03  4.37797E+03  2.98859E+03 -5.89178E+03  4.23455E+03
 -4.20412E+03 -3.84661E+02  1.45850E+03 -4.39935E+03 -4.12342E+02 -4.20792E+03  3.03413E+03  3.76798E+03
  2.05713E+03  1.92684E+01 -8.35313E+02  7.76022E+01  9.16482E+02 -1.25630E+03 -1.26679E+02  4.58067E+01
 -2.19585E+03  2.33302E+03  1.52887E+03 -2.71418E+03 -2.12842E+03  4.52356E+03  2.88537E+03  3.28089E+03
 -5.48076E+03  6.13221E+03 -5.65135E+03 -3.96530E+03 -7.73985E+03 -4.60291E+03 -6.26008E+03 -2.24919E+03
  4.10596E+03 -8.06112E+02  1.87411E+03 -6.60991E+02  2.38879E+02  2.20080E+03 -2.49279E+03  1.65690E+03
  4.17839E+03  2.22153E+03  9.46812E+02 -2.62671E+03  3.86811E+03 -8.08174E+02 -1.01207E+03 -4.57986E+03
  6.35840E+03 -1.52116E+03 -2.81672E+02  5.25722E+02  5.00583E+03  9.20334E+02  3.26354E+02  2.82133E+03
  7.18098E+02  2.06097E+03 -1.95687E+03  1.48834E+03  5.62317E+03 -2.31767E+03  1.32332E+03 -3.12882E+03
  6.20059E+03 -3.09251E+03  5.21970E+03  1.87345E+03  7.99099E+02  3.61050E+03  1.71168E+03  1.64087E+02
  2.88852E+03  5.72340E+03 -1.89928E+03 -4.28993E+03  3.49393E+03 -1.73665E+03 -1.14072E+03 -1.20763E+02
  7.49144E+03 -1.29083E+03  9.35630E+01  4.28905E+03 -7.59840E+02  1.14579E+03 -1.94722E+03 -3.68631E+03
  5.33570E+02  3.38019E+03  3.45735E+02  3.64337E+03  1.24011E+03 -2.16694E+02 -6.75267E+01 -2.03686E+03
 -1.16886E+03  1.57925E+03 -6.20802E+02  3.53261E+03  3.82864E+03 -2.36537E+03 -2.49006E+03 -5.15340E+03
 -9.73441E+02 -6.94738E+02  8.31143E+02 -5.70175E+03  3.41060E+03 -5.21108E+03  4.59767E+03  1.23366E+03
  6.11945E+03 -2.30794E+03  2.35649E+03  4.48162E+03  5.13707E+02  8.65415E+03 -6.18426E+03  5.17225E+03
  8.75591E+02  2.44880E+03 -1.26763E+03  1.76895E+03 -1.31373E+03 -6.63142E+02 -1.78894E+03  2.46270E+03
 -1.78731E+03 -6.21205E+03 -2.13628E+03  4.50757E+03 -7.53272E+02 -3.58602E+03  4.21400E+03 -4.21638E+03
  4.51923E+03  3.10844E+03  4.57411E+03 -2.23702E+03  5.81751E+02  7.31557E+02 -2.09077E+03  3.96161E+03
 -3.07451E+03  2.44873E+03 -6.84812E+03 -8.85933E+02 -3.52263E+03 -1.06082E+03 -1.29619E+03 -1.94581E+03
  1.70206E+03 -8.31959E+03  3.68511E+02 -1.69437E+03  3.95658E+03  1.52501E+03  1.71587E+03  1.91300E+03
  5.14128E+03 -1.27305E+03  2.27802E+03 -6.99055E+02 -2.27238E+03 -4.85437E+01  1.54457E+03 -1.81980E+03
  2.05188E+03 -4.09832E+03  3.62095E+03  1.50710E+03 -7.65670E+02  4.31323E+03 -6.41784E+01  1.71136E+03
  1.45416E+03 -1.24925E+03 -8.81827E+02  3.74010E+03  1.26894E+03 -4.53562E+03  1.43387E+03 -2.63497E+03
  1.56941E+03  4.87599E+03  3.89972E+03  2.40266E+01  4.18103E+02 -6.60141E+03  3.77074E+02 -1.98404E+03
  7.08248E+02  3.33642E+03 -5.20980E+01 -4.60634E+03 -3.41109E+03  1.69370E+03 -3.37620E+03 -4.20476E+03
 -3.83975E+02 -2.28755E+03  1.42258E+03 -1.24317E+03  1.84583E+03 -1.37283E+03 -2.10316E+03  4.44645E+03
 -1.08986E+03  2.83090E+03  5.86468E+03 -1.54517E+03  1.81660E+03 -1.81801E+03  4.22273E+03 -4.02339E+03
 -5.51769E+02 -1.91181E+03 -8.98517E+02  3.55973E+03  1.32168E+03  7.62357E+03  2.81305E+03  1.99482E+03
