 $NMID ID='MM_0lb_SNR50_12hz_g45_18.RAW', FMTDAT='(8E13.5)'
 TRAMP=1., VOLUME=1. $END
  3.04020E+05  3.01492E+03  3.38267E+05  2.51882E+05  8.71335E+04  3.36406E+05 -1.32890E+05  2.50859E+05
 -1.88086E+05  8.41052E+04 -1.14138E+05 -3.72040E+04 -3.12547E+03 -5.91333E+04  5.96885E+04 -3.22116E+03
  3.24640E+04  4.90624E+04 -1.59767E+04  7.41959E+04 -6.19879E+04  6.14683E+04 -8.83350E+04  3.07637E+04
 -8.06326E+04 -1.28110E+04 -6.13758E+04 -4.92387E+04 -1.73576E+04 -7.03438E+04  3.03785E+04 -4.64514E+04
  4.07516E+04  1.71456E+03  1.78713E+04  4.32876E+04 -3.38748E+04  4.62524E+04 -7.25548E+04  1.63954E+02
 -5.44593E+04 -5.84386E+04 -1.05441E+04 -8.20757E+04  3.66608E+04 -5.11597E+04  4.78522E+04 -1.59962E+04
  4.61664E+04  1.08974E+04  3.51533E+04  2.47438E+04  1.69615E+04  3.08792E+04  6.53074E+02  2.65930E+04
 -2.10819E+04  1.36801E+04 -2.64219E+04 -7.41334E+03  4.67477E+03 -7.80953E+03  1.61448E+04  1.19211E+04
  4.80685E+03  3.33209E+04 -3.35013E+04  3.54681E+04 -6.25965E+04  5.05499E+03 -5.73054E+04 -4.25619E+04
 -1.31336E+04 -6.63616E+04  4.00976E+04 -4.66344E+04  5.65383E+04 -1.71248E+03  3.29974E+04  3.59594E+04
 -5.86499E+03  4.05973E+04 -3.40186E+04  1.87762E+04 -3.20369E+04 -1.74083E+03 -1.90655E+04 -1.66973E+04
 -9.77955E+03 -1.74070E+04 -4.22225E+03 -1.87166E+04  8.74188E+03 -2.13602E+04  1.32547E+04 -1.53299E+04
  1.75999E+04  5.15519E+03 -7.89530E+03  1.16443E+04 -2.18175E+04 -1.12855E+04 -9.88065E+03 -3.38056E+04
  1.98343E+04 -4.53312E+04  4.92321E+04 -2.08202E+04  4.39363E+04  2.32431E+04  1.38583E+04  4.37305E+04
 -1.21642E+04  3.15793E+04 -1.97180E+04  1.40146E+03 -1.11363E+04 -2.71175E+04  2.49214E+04 -3.32083E+04
  3.94306E+04 -1.32217E+04  3.97949E+04  2.35580E+04  1.81462E+04  4.40589E+04 -1.61511E+04  5.16029E+04
 -2.71747E+04  3.10751E+04 -4.32838E+04  1.26891E+04 -3.60731E+04 -1.56304E+04 -1.99347E+04 -3.53608E+04
  7.26030E+03 -3.71394E+04  3.63605E+04 -1.04440E+04  3.08797E+04  1.40339E+04  2.99812E+03  1.97056E+04
 -1.43756E+04  1.01519E+04 -1.15208E+04 -1.07011E+04  7.59209E+03 -6.61062E+03  1.54287E+04  5.80693E+03
  1.76351E+04  2.27518E+04 -3.59877E+03  2.36801E+04 -2.54326E+04  9.99134E+03 -2.08884E+04 -8.03973E+02
 -2.17692E+04 -1.59713E+04 -5.69577E+03 -1.83231E+04  4.60790E+03 -2.44722E+04  2.01750E+04 -2.30182E+04
  2.23705E+04 -1.26105E+04  3.23380E+04  6.33898E+03  2.35353E+04  2.52516E+04  2.35710E+03  3.39135E+04
 -1.41154E+04  3.34880E+04 -2.87637E+04  6.55650E+03 -2.17526E+04 -1.46469E+04 -3.23555E+03 -1.48177E+04
  5.79028E+02 -2.37627E+02 -8.54429E+03  6.61041E+03 -1.50729E+04  5.97144E+03 -1.18298E+04 -2.68044E+03
 -1.26223E+04 -2.12001E+04  1.67377E+03 -2.10863E+04  1.43512E+04 -1.56484E+04  2.20210E+04 -2.12564E+03
  1.35022E+04  1.75368E+04 -1.06634E+03  1.72534E+04 -1.56343E+04  1.02053E+04 -2.28556E+04 -3.58467E+03
 -1.28190E+04 -1.90679E+04  3.69550E+02 -2.59019E+04  1.08521E+04 -1.44351E+04  1.89154E+04 -7.67216E+03
  2.16098E+04 -1.46155E+02  1.98805E+04  6.63265E+03  8.38151E+03  1.43675E+03  1.07285E+04 -3.25649E+03
  1.79570E+04 -2.10174E+03  2.56194E+04  1.47752E+04  1.34893E+04  3.16095E+04  2.59463E+03  4.10728E+04
 -2.45306E+04  3.09961E+04 -3.72146E+04  1.38562E+04 -3.80655E+04 -1.42776E+03 -3.08780E+04 -2.66932E+04
 -9.65028E+03 -3.53392E+04  3.98132E+03 -2.62616E+04  2.27416E+04 -1.17323E+04  2.39027E+04  3.02277E+03
  7.82133E+03  1.28078E+04 -1.06694E+04  7.53207E+03 -1.69649E+04  2.10118E+03 -1.46559E+04 -1.40256E+04
 -3.76100E+03 -1.75977E+04  7.11495E+03 -1.17336E+04  1.23331E+04 -4.25917E+03 -2.07105E+03  7.84877E+03
 -1.06395E+03  1.21841E+03 -5.29994E+03 -2.51536E+03 -3.50633E+03 -1.58509E+04  9.07995E+03 -1.86622E+04
  2.15997E+04 -7.21159E+03  1.84681E+04  2.10612E+03  2.05655E+04  1.35103E+04  9.49241E+03  1.83796E+04
 -3.79269E+03  2.24587E+04 -1.50388E+04  1.86041E+04 -2.03594E+04  2.77866E+03 -1.34822E+04 -2.88775E+03
 -5.80973E+03 -5.29709E+03 -9.81633E+02  2.79469E+03 -1.61291E+03  1.01153E+03 -8.72914E+03  8.78472E+03
 -7.76725E+03 -2.57627E+03 -8.95898E+03 -1.21982E+04 -2.27276E+03 -1.86856E+04  4.20121E+02 -1.43702E+04
  1.66964E+04 -6.21128E+03  5.91735E+03  3.69464E+03 -4.78819E+03  5.91523E+03 -7.86699E+03 -1.84779E+03
 -8.06348E+03 -5.50714E+03 -1.97164E+03 -1.25522E+04  3.01761E+03 -1.53718E+04  1.92498E+04 -9.69792E+03
  2.24410E+04  4.78754E+03  1.20317E+04  1.09305E+04  5.51893E+03  1.08532E+04 -6.88056E+03  1.37016E+04
 -1.05032E+04  2.27803E+03 -3.06362E+03 -1.90892E+03  1.29328E+03 -1.60333E+03  7.31071E+03  3.48830E+03
  2.06390E+03 -4.60588E+02  2.39841E+03  1.16457E+04 -5.20889E+03  1.13812E+04 -1.11339E+04  3.03331E+03
 -1.06404E+04 -6.38335E+03  1.81304E+03 -1.11493E+04  2.16234E+02 -2.44877E+03  7.29329E+03  5.10261E+03
  3.31224E+03  4.32589E+03 -8.56949E+03  6.61925E+03 -1.33036E+04  2.68128E+03 -1.15112E+04 -6.40643E+03
 -7.58125E+03 -7.14082E+03  5.70298E+03 -1.22024E+04  1.72972E+04 -1.03898E+04  1.16833E+04  5.13558E+03
  2.95757E+03  1.19313E+04  2.81343E+03  1.04850E+04 -4.38010E+03  7.68555E+03 -5.11525E+03 -2.80768E+03
 -7.43644E+03 -1.32749E+04 -3.99013E+02 -9.83562E+03  1.92898E+03 -1.67659E+03 -1.83051E+03 -5.32987E+03
  6.25588E+03 -6.06257E+02 -2.72459E+03  1.48802E+03 -2.48652E+03 -4.79507E+03  2.58159E+03 -7.40230E+03
  1.00179E+04 -6.68285E+03  1.05092E+04  4.23327E+03  1.20167E+04  3.44408E+02  6.83537E+03  1.77079E+04
 -3.64239E+03  1.64405E+04 -1.18649E+04  1.39996E+04 -1.60792E+04  2.54861E+03 -1.31236E+04 -7.16689E+03
 -1.02972E+04 -1.69034E+04  5.12573E+03 -1.49533E+04 -5.46212E+03 -7.17417E+03  6.68051E+03 -6.05133E+03
  7.53599E+03  1.14889E+03  2.34271E+03 -2.61848E+03  6.91185E+03 -1.02430E+03  2.31996E+03 -2.28941E+03
  9.09546E+03  7.65306E+03  2.40694E+03  3.22393E+03  8.83140E+02  8.88948E+03 -1.26558E+04  4.07276E+03
 -8.94706E+03 -3.09746E+03 -5.16821E+03 -6.63021E+03  4.99666E+02 -1.11816E+04  7.38056E+03 -8.83063E+03
  7.92556E+03 -2.49860E+03  1.26463E+04  1.75975E+03  9.51791E+03  9.98204E+03  1.12688E+03  1.12065E+04
 -6.10183E+03  1.51883E+04 -9.28109E+03  4.50971E+03 -2.81369E+03  3.34817E+03  7.31611E+02  4.24275E+03
 -3.60371E+03  2.09031E+02 -5.17118E+03  6.39506E+03 -6.27087E+02 -1.18787E+03 -1.02941E+04  8.84555E+01
 -3.54199E+03 -8.39285E+03  1.17716E+03 -6.97765E+03  8.00102E+03 -4.89525E+03  9.16741E+03 -9.96575E+03
  6.02983E+03  1.26313E+03  5.49811E+03  1.35841E+04 -1.26288E+03  9.66109E+03 -7.95053E+03  1.79425E+03
 -1.08508E+04 -2.60999E+02 -1.11280E+04 -7.40667E+03 -4.71913E+03 -1.05743E+04  3.11731E+03 -5.99858E+03
  8.50478E+03 -1.11826E+03  2.90416E+03  5.65094E+03  2.85018E+03  2.04662E+03 -3.33906E+03 -1.83469E+03
  5.40067E+03  6.86429E+02  2.05651E+03 -9.22792E+02  3.59174E+03  1.12641E+04 -2.43048E+02  2.72972E+03
 -3.11996E+03  9.21918E+03 -4.37229E+03  7.80612E+03 -1.21666E+04 -1.21940E+03 -1.13362E+04  3.07270E+03
 -1.69767E+03 -8.21330E+03  4.07052E+03 -8.56146E+03  1.08315E+04 -6.00976E+03  7.51793E+03 -2.13523E+02
  3.94492E+03  2.84421E+03  4.00442E+03  6.42039E+03 -4.39031E+03  5.50803E+03 -8.06224E+03 -3.49813E+03
  1.62770E+02 -7.64270E+03  4.01427E+03 -6.24859E+03  4.71341E+03 -3.30145E+03  6.90337E+03  3.08374E+02
  2.39045E+03  5.72589E+02  1.75353E+03  2.77609E+03 -5.76052E+03  2.07606E+03 -1.77593E+03  1.36979E+03
  2.74319E+03  1.75302E+02  2.06881E+03  9.39066E+02 -7.07030E+02  5.83230E+03  3.03755E+03  6.31927E+03
 -3.97100E+03  7.37537E+03 -6.11059E+03 -1.77248E+03 -8.04643E+03 -4.14361E+03  3.86763E+01 -2.75517E+03
  2.80632E+03 -2.40999E+03  3.18763E+03 -2.56187E+02  6.47165E+01  1.32808E+03 -4.51465E+03  4.82925E+03
 -3.78156E+03  2.20715E+03 -4.70449E+02 -5.06348E+03 -3.21719E+03 -9.51579E+02  2.67241E+03 -1.09526E+04
  2.71823E+03 -1.89773E+03  6.52649E+03 -2.24797E+01  1.79000E+03 -2.84587E+03  3.68468E+03  4.94216E+02
 -2.76641E+03  2.15067E+03  7.62479E+02 -3.73082E+03  3.57777E+02 -8.49667E+03  5.25595E+03 -2.61690E+03
  1.82374E+03  6.54233E+03  7.92535E+03  2.97283E+03  3.45768E+02  3.29660E+03 -2.82781E+03  3.16944E+03
 -1.28611E+03  1.62615E+03 -2.87710E+03 -4.19213E+03 -7.30867E+02 -2.99043E+03  2.47911E+03 -2.15099E+03
  6.31431E+03  7.97191E+02  1.32708E+03  3.03066E+03 -2.72250E+02  7.26478E+03 -5.15333E+02  3.71573E+03
  1.65229E+03  1.74927E+03 -1.16523E+03 -1.49935E+02 -2.61816E+03  1.69309E+02 -3.84591E+02  1.31832E+02
 -1.77796E+03  4.43897E+03 -6.49396E+03  2.48355E+02 -6.90684E+03  1.66180E+03 -5.60634E+03 -4.20581E+03
 -6.56574E+03 -6.71728E+03  1.88511E+03 -7.53506E+03  4.66454E+03 -9.10116E+03  1.00999E+04  2.88677E+03
  3.90398E+03 -1.98953E+03  2.42448E+03  7.20397E+03 -1.84809E+03  8.92832E+03 -2.40690E+03  1.55219E+03
 -5.49646E+03 -1.76116E+03  3.73611E+03 -6.44165E+03 -3.07422E+03 -1.21365E+03 -5.19833E+02  2.07969E+03
 -6.06174E+01  6.35545E+02 -3.97882E+03  2.46861E+03  4.64516E+03 -1.62400E+03 -1.32804E+03 -2.38938E+03
 -4.73965E+02 -1.22139E+03  2.83181E+03  1.02299E+03  2.72275E+03  8.86028E+03  9.29579E+03  5.80637E+03
 -2.12426E+03  3.21817E+03 -8.10261E+03  7.11103E+03 -7.89680E+03  1.19823E+03 -3.44889E+03 -5.96323E+03
 -2.46967E+03 -7.01970E+03  3.81730E+03 -5.71860E+03  1.06215E+03 -5.21946E+03  3.73950E+03 -3.31231E+03
  3.51704E+03  2.17978E+03  2.23257E+03 -1.75115E+03  4.46575E+03 -4.25322E+02  6.00427E+03 -6.89846E+02
  5.25848E+03  1.09968E+03  3.05723E+03  1.42951E+03  6.29200E+03  9.94865E+03 -2.07727E+03  3.78427E+03
 -1.93101E+03  2.74887E+03 -2.81023E+03 -5.36439E+03 -2.97100E+03 -7.10017E+03 -1.65504E+03 -5.54411E+02
  1.12729E+03 -2.71016E+03  6.75816E+02  1.63993E+03  1.25639E+04 -2.30573E+03  1.81393E+03  2.67623E+03
 -3.30549E+03  6.18135E+03 -5.62330E+02  6.10244E+03 -6.43856E+03  4.81227E+03 -3.77305E+03 -3.84815E+03
 -1.14505E+03 -3.73016E+03  2.17351E+03 -2.76953E+02 -2.02638E+03 -9.61672E+01 -6.37012E+03 -2.99020E+03
 -7.38340E+03 -1.45184E+03 -5.76926E+03 -4.76246E+03  6.63342E+00 -7.40346E+02  4.91251E+03  4.19355E+03
  2.49785E+03  1.50028E+03  1.46770E+03  2.14112E+03 -3.02555E+03  1.17750E+03 -4.06769E+03  2.35317E+03
