 $NMID ID='MM_0lb_SNR50_20hz_g60_4.RAW', FMTDAT='(8E13.5)'
 TRAMP=1., VOLUME=1. $END
  3.07797E+05 -2.49245E+03  3.39211E+05  2.48588E+05  8.35860E+04  3.35569E+05 -1.31384E+05  2.48326E+05
 -1.93523E+05  8.06187E+04 -1.09982E+05 -3.62060E+04 -4.76210E+02 -4.64899E+04  5.43729E+04  1.05574E+03
  3.38138E+04  5.47862E+04 -1.76026E+04  7.80629E+04 -5.95666E+04  6.12231E+04 -8.36230E+04  3.05074E+04
 -7.78456E+04 -8.85983E+03 -5.87405E+04 -5.09201E+04 -1.58313E+04 -6.77288E+04  2.83770E+04 -4.43692E+04
  3.84359E+04  3.17492E+03  1.49447E+04  4.95364E+04 -3.19415E+04  4.75598E+04 -6.96754E+04 -2.21952E+03
 -5.12225E+04 -5.57806E+04 -6.33183E+03 -7.15076E+04  3.75586E+04 -5.73463E+04  4.48133E+04 -1.74769E+04
  3.65348E+04  1.32023E+04  3.21059E+04  2.63217E+04  1.98414E+04  2.94569E+04 -5.19863E+03  2.91493E+04
 -2.29484E+04  1.27014E+04 -2.01651E+04 -1.68691E+03  2.17900E+03 -6.23146E+03  2.07322E+04  9.44500E+03
  1.09343E+04  3.89987E+04 -2.90327E+04  3.27512E+04 -6.51171E+04  1.07632E+03 -5.20470E+04 -3.92464E+04
 -1.26931E+04 -5.95759E+04  4.19249E+04 -4.64630E+04  6.03880E+04  1.38592E+03  3.45264E+04  3.06431E+04
 -9.26561E+03  3.61324E+04 -2.86838E+04  1.35981E+04 -3.18595E+04 -3.30746E+03 -1.35215E+04 -1.08580E+04
 -7.57027E+03 -1.34272E+04 -3.12769E+03 -1.91055E+04  7.01692E+03 -2.17503E+04  1.48428E+04 -1.31494E+04
  1.20885E+04  3.37193E+03 -9.86874E+03  1.10102E+04 -2.04162E+04 -4.70584E+03 -7.12077E+03 -3.11717E+04
  2.10245E+04 -4.26959E+04  4.78934E+04 -2.15738E+04  3.92105E+04  1.89261E+04  1.45821E+04  3.96285E+04
 -1.62966E+04  3.08776E+04 -2.86455E+04  4.81295E+03 -9.20600E+03 -2.71378E+04  2.20058E+04 -3.23127E+04
  3.96854E+04 -9.79726E+03  3.62025E+04  1.94004E+04  1.78137E+04  4.39086E+04 -6.34594E+03  4.45837E+04
 -2.74298E+04  2.88177E+04 -3.50856E+04  4.91400E+03 -4.10565E+04 -1.42073E+04 -2.07751E+04 -3.79816E+04
  7.96172E+03 -3.24986E+04  2.57756E+04 -8.43473E+03  2.44087E+04  8.08598E+03  4.06573E+03  1.76253E+04
 -1.54619E+04  1.03153E+04 -1.19380E+04 -5.98737E+03  5.20251E+03 -1.12866E+04  1.94083E+04  1.06575E+04
  1.18103E+04  1.98342E+04 -5.06168E+03  2.62571E+04 -1.88973E+04  1.20113E+04 -2.56801E+04 -5.15691E+03
 -1.80198E+04 -1.62839E+04 -4.19414E+03 -1.80879E+04  2.91191E+03 -1.50077E+04  1.48631E+04 -1.12781E+04
  1.78772E+04 -1.14574E+04  3.04477E+04  2.14970E+03  2.09588E+04  2.09163E+04  5.49168E+03  3.26836E+04
 -1.99390E+04  2.63807E+04 -2.29622E+04  8.56745E+03 -2.06073E+04 -5.32932E+03 -4.19752E+03 -1.27783E+04
  4.58142E+03 -2.66677E+03 -5.73684E+03  5.33219E+03 -1.15105E+04  5.98791E+03 -1.44581E+04 -4.52701E+03
 -6.99508E+03 -1.69721E+04  3.20756E+02 -1.97169E+04  1.51881E+04 -8.35960E+03  1.75674E+04  5.51734E+02
  9.51732E+03  1.38694E+04 -6.90255E+02  1.45932E+04 -9.73380E+03  8.81882E+03 -1.57232E+04 -5.60116E+03
 -1.46942E+04 -1.80301E+04 -2.82978E+03 -1.68877E+04  7.61176E+03 -1.62907E+04  1.87904E+04 -8.60604E+03
  1.56734E+04  2.62154E+03  1.06467E+04  4.01609E+03  5.15202E+03 -1.35167E+02  9.56378E+03  1.23348E+03
  1.23463E+04  6.64915E+03  1.47722E+04  1.30844E+04  7.75761E+03  2.36759E+04 -2.52841E+03  2.08898E+04
 -1.53047E+04  1.69503E+04 -2.45795E+04  1.18200E+04 -2.69271E+04 -2.88530E+03 -1.85769E+04 -1.73090E+04
 -9.74799E+03 -1.99795E+04  6.70006E+03 -1.51271E+04  1.25664E+04 -8.46159E+03  1.51224E+04  1.07609E+03
  8.65496E+03  1.22520E+04 -8.13281E+03  1.36520E+04 -1.09989E+04  4.75929E+03 -1.00956E+04 -3.37334E+03
  2.06119E+02 -1.47830E+04  6.02933E+03 -1.24564E+04  9.85038E+03  5.61993E+01  2.87357E+03  4.66127E+03
 -6.98644E+03 -1.85920E+03 -3.75376E+03 -3.11655E+03 -5.39010E+02 -8.93299E+03  1.03245E+04 -7.25881E+03
  1.39038E+04 -3.81508E+03  1.16004E+04  6.13458E+03  1.01826E+04  9.56723E+03  5.47219E+02  1.49781E+04
 -2.10703E+03  1.71948E+04 -8.24838E+03  1.27250E+04 -1.31721E+04  2.62691E+03 -8.70714E+03 -6.42885E+03
 -4.03308E+03 -3.95981E+03 -3.19150E+03  2.40394E+02 -5.17069E+03  5.55184E+03 -2.59431E+03  4.56924E+03
 -8.35330E+03  1.10980E+03 -5.52931E+03 -4.36606E+03 -2.30442E+03 -1.39349E+04  5.42135E+03 -6.03968E+03
  2.65342E+03 -7.56363E+02  4.14872E+03  6.40878E+02 -1.28688E+03  6.19335E+02 -6.45467E+03 -9.53797E+02
 -5.34725E+03 -6.69380E+03  1.96892E+03 -1.18732E+04  4.36207E+03 -4.29241E+03  8.87581E+03 -3.58787E+03
  9.07844E+03  6.29463E+02  1.01028E+04  4.10546E+03  1.96037E+03  7.74109E+03 -5.12667E+03  7.39623E+03
 -7.97248E+03  1.19238E+03 -4.57317E+02  9.36565E+02  4.93754E+03 -4.46884E+03  3.98266E+03 -4.60278E+03
  3.54538E+03  1.23783E+03  1.69670E+03  1.14504E+04 -2.17513E+03  7.50213E+03 -4.62954E+03  4.27166E+03
 -2.68056E+03  6.73011E+02 -1.32902E+03 -7.39406E+03  2.90496E+03 -4.87860E+03  1.76492E+03 -2.19668E+03
 -1.83403E+03  2.65759E+03 -5.04711E+01  6.99838E+03 -5.79710E+03  5.64001E+03 -6.83599E+03  2.09991E+03
 -4.41494E+03 -5.08749E+03 -1.25146E+03  7.60977E+01  5.82866E+03 -4.71611E+03  7.96466E+03  8.74807E+02
  5.53304E+03  8.38864E+03  8.14868E+02  6.24455E+03 -2.66145E+03  5.50838E+03 -5.95647E+03  3.37261E+02
 -4.52360E+03 -5.16889E+03 -9.50687E+03 -7.60921E+03 -3.45915E+03 -5.97980E+03  2.81989E+02 -7.85349E+02
  1.73356E+03  8.62092E+02  5.70267E+03 -3.01263E+02  5.13754E+03  7.62863E+02  1.52457E+02 -1.89834E+02
  1.98777E+02  1.47792E+03  6.21821E+03  1.16131E+03  5.59528E+03  2.27318E+03  4.12280E+03  3.85441E+03
  2.03008E+03  5.49306E+03 -7.40743E+03  5.10159E+03 -6.81229E+03  7.13712E+02 -4.61964E+03 -4.33049E+02
 -6.45637E+03 -5.38431E+03  1.95904E+03 -1.77299E+03  2.80098E+03 -3.58419E+03  1.58176E+03 -1.56679E+03
 -1.80059E+03 -2.78748E+03  1.34592E+03 -1.48202E+03  1.75672E+03 -3.02588E+03  1.45640E+03 -2.59609E+03
 -1.82844E+03  2.52322E+03 -8.42369E+02  5.05017E+03 -2.25949E+03  4.29058E+03 -4.56754E+03  4.66047E+03
 -1.73690E+03 -2.72120E+03 -1.84684E+03 -6.79782E+03  2.95255E+02 -8.97233E+03  3.04450E+03 -3.51584E+03
  3.45837E+03 -4.54701E+03  4.73484E+03  2.63780E+03  3.33210E+02  5.53657E+03  3.68988E+02  9.26975E+03
 -1.75135E+03  6.49631E+03 -4.20075E+03  3.15844E+03 -4.85422E+02 -5.34658E+02 -1.02295E+03  2.85857E+03
 -3.41206E+03 -2.13092E+03 -2.01522E+03  9.29853E+02 -2.98247E+03  2.34714E+02 -5.46015E+03 -7.32897E+02
  4.22691E+03 -7.22172E+03  2.41182E+03 -4.42354E+03  6.85822E+03 -5.70898E+03  7.10063E+02 -1.68087E+03
  3.12248E+03  2.30633E+03  2.85657E+02  3.46143E+03  3.16916E+02  4.89869E+03  3.29128E+03  3.15463E+03
 -1.70155E+03  7.52085E+01 -2.83355E+03 -4.58219E+03 -2.42405E+03  1.20808E+03  1.97830E+03 -6.51380E+03
  1.06332E+03 -6.77395E+03  2.60146E+03 -9.41557E+02 -3.73179E+03  2.77365E+03 -2.77397E+03  3.31976E+03
  1.29236E+02 -3.56105E+03 -1.49117E+03  4.59668E+03  5.19359E+02  3.27142E+03  4.36030E+02  3.87824E+03
 -3.76454E+03  6.16184E+03 -4.00381E+03  2.22944E+03  6.22908E+02 -8.64526E+02 -5.79300E+03 -1.33815E+03
 -2.39691E+03 -6.98948E+02 -1.00938E+02 -2.77426E+03  5.03221E+03  9.36095E+01  3.78351E+02 -2.77280E+03
  3.59826E+03  4.33385E+03 -2.15570E+03  6.08279E+03  1.46600E+03 -1.36331E+03  3.54531E+03 -2.02266E+03
  1.34454E+03 -2.54321E+03  2.18289E+03 -4.07469E+03 -6.37917E+02 -1.31751E+03 -2.04839E+03 -1.37999E+03
  4.88472E+03  1.36309E+03 -1.68242E+02  8.37556E+03 -1.25935E+03  2.60403E+02  3.48878E+03 -8.60354E+02
 -3.40791E+02  5.24029E-01  2.69132E+03  1.36094E+03  4.05462E+03  4.42656E+03  2.20109E+03  4.84171E+03
 -1.59586E+03  4.10367E+03 -3.85924E+03  3.43643E+03  2.00517E+03 -2.12979E+02 -4.18899E+03 -2.66622E+03
  4.75907E+03 -8.69832E+02  5.87027E+02  8.56210E+02  1.49043E+03  5.69694E+02  2.20103E+03  6.49785E+03
 -2.09409E+03  5.36574E+03 -2.27937E+03 -8.71103E+02 -3.41292E+03 -1.27481E+03  6.00025E+03 -4.51445E+03
  4.44229E+02  2.06616E+03  3.28647E+03 -1.34827E+03  2.50573E+03  2.71374E+03  8.50754E+02  4.80017E+03
  4.04883E+03  2.10182E+03 -8.24345E+02  2.18861E+03  2.81998E+03 -2.30433E+02 -4.90960E+02 -2.36991E+03
  5.53475E+03  2.67151E+03  2.16746E+03  1.30125E+03 -1.75368E+03  8.37445E+02  2.23234E+03  1.52429E+03
 -6.09711E+03  2.18825E+03  1.10536E+03 -7.19075E+02  2.96885E+03  2.49571E+03  1.75077E+03  6.09825E+02
 -1.06224E+03 -2.11249E+02  1.56057E+03 -5.03176E+02 -1.04906E+03  7.08792E+02 -2.03971E+03 -1.63367E+03
  3.29638E+03 -1.31705E+03 -4.62960E+03  8.35064E+02 -4.34814E+02  4.01412E+03 -1.11684E+03  4.80437E+03
 -1.97923E+03  3.06659E+03 -2.13448E+03 -1.32365E+03  1.19194E+03  8.17410E+01 -3.49298E+03 -6.72378E+01
  1.63256E+02 -2.26126E+03 -1.05571E+03  1.28022E+03  2.01204E+03 -8.32141E+03 -1.61407E+03 -5.06751E+03
  6.43587E+02 -3.22704E+03  1.03164E+03 -7.63172E+02 -1.04284E+02  1.87874E+03  3.40957E+03  1.44097E+03
  1.25924E+03 -1.74800E+03  6.31339E+02 -1.04297E+03 -6.88893E+02  1.19850E+03  1.16265E+03 -1.25742E+03
 -1.73403E+03  4.49521E+03 -1.49399E+02  2.45308E+03  4.53154E+03  3.16630E+03 -2.25049E+03  2.42689E+03
  8.17839E+02  4.02909E+03 -9.47090E+02  1.35987E+03  4.41804E+03  2.79318E+03  1.52828E+02  9.78695E+02
  6.17609E+02  1.21278E+03 -2.20617E+02  3.40358E+03  1.56549E+03  4.12104E+03  1.53252E+02 -1.68655E+03
 -1.51212E+03 -9.63590E+02 -1.50128E+03 -1.85861E+03 -4.18380E+02  1.60770E+03  1.30804E+03 -6.60485E+02
  4.62033E+03  8.97706E+02  6.78323E+02  7.26852E+02  1.11968E+03 -4.86216E+02  8.81511E+02  2.72831E+03
 -1.70525E+03  3.75169E+03  8.79058E+02  3.32598E+02 -4.21553E+02  3.13690E+03  2.01780E+03  1.14485E+03
 -4.15497E+02  3.03572E+02 -3.28663E+03 -6.01395E+02 -1.43584E+03 -1.17310E+03  1.86279E+01  1.91119E+03
 -6.92789E+02  2.77663E+03  1.49501E+03  3.27292E+03  4.35134E+03  9.20462E+02  3.52018E+03 -9.20333E+02
  3.54506E+03 -1.68001E+02 -2.07118E+03 -1.29357E+03  1.29766E+03 -3.15000E+03  6.28084E+02 -1.81402E+03
  3.10420E+03  7.76413E+02 -7.69508E+02 -1.03721E+02 -2.21407E+03  2.97432E+03  2.09228E+03 -2.14176E+03
 -1.97978E+03 -2.33546E+03  3.10377E+03  1.86110E+03  2.63507E+03 -6.64429E+02 -4.92709E+02 -1.72515E+03
 -5.59124E+03  1.82625E+03  4.18372E+03 -2.50066E+03  1.73278E+03 -5.58365E+02 -3.10210E+03 -2.94896E+03
