 $NMID ID='MM_0lb_SNR50_18hz_g40_27.RAW', FMTDAT='(8E13.5)'
 TRAMP=1., VOLUME=1. $END
  3.13194E+05 -5.40093E+03  3.36947E+05  2.53717E+05  8.62413E+04  3.39689E+05 -1.32479E+05  2.49523E+05
 -1.88414E+05  8.18102E+04 -1.11094E+05 -3.48812E+04  1.56887E+03 -5.21271E+04  5.56899E+04  1.85599E+01
  3.71238E+04  5.13040E+04 -1.41555E+04  7.51460E+04 -6.06239E+04  6.46112E+04 -8.57881E+04  3.37153E+04
 -7.86683E+04 -1.52138E+04 -5.42109E+04 -5.39632E+04 -1.24144E+04 -7.04306E+04  2.38234E+04 -4.46616E+04
  3.80538E+04  4.05332E+03  1.82709E+04  4.82320E+04 -3.75585E+04  4.67948E+04 -6.34641E+04  5.34218E+02
 -5.49933E+04 -5.71554E+04 -4.19311E+03 -7.51139E+04  3.03019E+04 -5.87904E+04  4.35967E+04 -1.88493E+04
  4.14922E+04  1.37615E+04  3.38294E+04  2.47349E+04  1.14096E+04  2.65761E+04 -1.51904E+03  2.61553E+04
 -2.11165E+04  1.30931E+04 -2.06483E+04  3.33248E+02  7.45278E+03 -5.64557E+03  1.94467E+04  1.73339E+04
  1.39594E+04  3.34763E+04 -2.86563E+04  3.52587E+04 -6.04197E+04  4.32239E+03 -5.44817E+04 -4.08118E+04
 -1.55962E+04 -5.97403E+04  3.97015E+04 -4.41723E+04  5.60263E+04 -3.99363E+03  3.65916E+04  2.96077E+04
 -9.02308E+03  3.68878E+04 -2.46224E+04  1.45968E+04 -2.75185E+04 -3.12021E+03 -1.21358E+04 -1.01434E+04
 -9.41446E+03 -1.13219E+04 -1.44170E+03 -1.65291E+04  2.63804E+03 -2.23947E+04  1.78271E+04 -1.39575E+04
  9.93959E+03  6.41140E+03 -3.71905E+03  1.56330E+04 -2.29965E+04  2.88199E+03 -7.12970E+03 -2.94385E+04
  2.07894E+04 -4.21594E+04  4.60647E+04 -1.56348E+04  4.27492E+04  1.76967E+04  1.57507E+04  4.01353E+04
 -1.57421E+04  3.07229E+04 -2.29575E+04  3.50119E+03 -6.10721E+03 -2.66801E+04  2.38982E+04 -3.16225E+04
  3.89978E+04 -6.87306E+03  3.36363E+04  2.44270E+04  1.65415E+04  4.43477E+04 -8.43690E+03  4.67377E+04
 -3.03990E+04  3.14175E+04 -3.62900E+04  9.04210E+03 -3.74387E+04 -1.68049E+04 -2.06663E+04 -3.64559E+04
  5.38300E+03 -3.28042E+04  3.39142E+04 -1.31476E+04  2.88181E+04  1.22847E+04  4.85228E+03  2.00299E+04
 -1.28115E+04  9.58694E+03 -7.81462E+03 -7.08255E+03  4.48435E+03 -1.42475E+04  1.69893E+04  2.46417E+03
  1.43798E+04  2.43037E+04 -8.52584E+03  2.07876E+04 -2.20635E+04  5.77218E+03 -2.49404E+04 -5.79876E+03
 -1.89549E+04 -2.01744E+04 -8.82815E+03 -1.73860E+04  8.46050E+03 -1.73900E+04  1.25370E+04 -1.62842E+04
  1.52963E+04 -1.35882E+04  2.80054E+04 -3.29643E+02  1.96212E+04  1.40583E+04  3.60374E+03  2.99849E+04
 -1.67643E+04  2.38436E+04 -2.79381E+04  9.90852E+03 -1.83926E+04 -9.81079E+03 -8.42206E+02 -1.51988E+04
  3.70905E+03 -7.00088E+03 -2.37836E+03  3.13262E+03 -7.42246E+03  4.50828E+03 -1.21776E+04 -7.09942E+03
 -1.03448E+04 -1.29907E+04  4.82883E+03 -2.12817E+04  1.01268E+04 -1.18887E+04  7.55794E+03 -3.44668E+02
  6.54523E+03  1.35656E+04  3.95355E+03  1.77631E+04 -8.36958E+03  7.02391E+03 -1.39552E+04 -6.26303E+03
 -1.35766E+04 -1.23210E+04 -3.22293E+02 -1.85075E+04  9.32423E+03 -1.54110E+04  1.59117E+04 -4.83983E+03
  1.21491E+04  4.21964E+03  1.20514E+04  5.34072E+03  4.35076E+03  3.50165E+03  9.60384E+03 -2.75656E+03
  1.69299E+04  3.65145E+03  1.41720E+04  1.51271E+04  1.12533E+04  2.25926E+04 -2.17630E+03  2.66199E+04
 -1.49459E+04  1.96926E+04 -2.30260E+04  8.42748E+03 -2.70186E+04  2.33298E+03 -1.92787E+04 -1.35417E+04
 -6.67479E+03 -2.25067E+04  4.53076E+03 -2.06369E+04  1.23180E+04 -8.82562E+03  1.33351E+04  4.04390E+03
  6.83966E+03  1.25124E+04 -5.66633E+03  9.95023E+03 -1.38565E+04  4.55903E+03 -1.35159E+04 -7.46702E+03
  1.86008E+03 -9.20631E+03  4.53684E+03 -9.72830E+03  7.45225E+03  9.76282E+02 -3.91820E+03  1.62476E+03
 -7.38903E+03  3.14160E+03 -4.64995E+03 -4.90423E+03  1.93436E+03 -1.17457E+04  8.45349E+03 -1.08558E+04
  8.46737E+03 -4.41849E+03  1.33252E+04  3.67755E+03  1.26059E+04  1.25543E+04  6.78613E+02  1.28943E+04
 -5.27951E+02  1.20475E+04 -1.21720E+04  1.26869E+04 -1.37154E+04 -1.13591E+03 -6.63825E+03  1.01475E+03
 -4.39825E+03 -3.04848E+03 -1.37416E+03  3.08450E+03 -5.16395E+02  4.17674E+02 -1.76309E+03  2.75106E+03
 -9.75141E+03 -4.78180E+02 -7.05798E+03 -8.43760E+03 -2.26753E+03 -9.41830E+03  7.70924E+03 -6.30801E+03
  6.70283E+03 -5.35760E+03  2.87197E+03  2.78107E+03 -1.30309E+03 -1.00352E+03 -2.31313E+03  1.25754E+03
 -2.35328E+03 -5.55842E+03 -3.02936E+03 -6.58613E+03  5.83371E+03 -1.19793E+04  1.05914E+04  2.95770E+02
  1.14752E+04 -2.42870E+03  7.81492E+03  4.70225E+03  2.49216E+03  9.49363E+03 -4.16330E+03  8.01463E+03
 -3.70491E+03  1.99776E+03 -2.28553E+03 -3.74805E+03  1.03671E+03 -1.67832E+03  4.07855E+03 -6.08357E+03
  6.64097E+03  5.18233E+03  2.22307E+02  3.26416E+03 -9.75892E+03  6.91369E+03 -1.10230E+04  9.10254E+02
 -6.05694E+03 -7.22630E+03  2.18936E+03 -6.94718E+03  5.58952E+03 -6.33618E+02  2.87402E+03  4.18239E+03
 -6.98679E+02  4.31037E+02 -1.51826E+03  4.49960E+03 -2.02714E+03  4.55945E+03 -3.32915E+02 -2.63721E+03
 -1.56788E+03 -4.14618E+03 -1.74558E+03 -5.27843E+03  6.40963E+03 -4.29229E+03  9.07234E+03 -1.68309E+03
  2.03815E+03  5.48479E+03  3.86224E+02  1.07009E+04 -3.48307E+03  6.58296E+02 -3.52026E+03  4.86852E+03
 -4.21796E+03 -8.44070E+03 -3.57562E+03 -7.43097E+03  5.16375E+03 -4.04540E+03 -2.90961E+03 -1.30394E+03
  6.30451E+02 -2.12066E+03  1.10476E+03  5.45159E+03 -1.53904E+03  2.68009E+03 -1.30038E+03 -1.53154E+03
  3.69012E+03  1.26197E+03  6.14267E+03 -1.53702E+03  9.10788E+03  5.32396E+03  7.35842E+03  6.86701E+03
  8.42570E+02  7.57833E+03 -4.53162E+03  5.55373E+03 -8.89442E+03  1.59066E+03 -1.14380E+04  8.70634E+02
 -9.73317E+03 -8.66266E+03  1.33815E+03 -3.47302E+03  3.86709E+03 -1.60812E+02  5.53781E+03 -7.59931E+03
 -1.58177E+03 -2.84179E+03  2.17130E+03 -2.76867E+02  3.59874E+03 -1.20018E+03  3.36233E+03  4.01437E+03
  3.55399E+03  2.80245E+02  1.37184E+03  1.28428E+03 -9.37886E+02  9.66572E+02 -2.48802E+03 -3.66791E+02
 -4.41993E+03 -1.28884E+03  2.89099E+03 -2.79298E+03 -1.58944E+03 -5.27339E+03  5.74765E+03 -2.90667E+03
  6.70061E+03 -9.73558E+03  8.01404E+03 -2.67827E+03  3.67575E+03  4.02344E+03  4.88754E+03  9.49477E+03
 -6.12158E+03  1.12305E+04 -3.64767E+03  1.76391E+03 -3.99228E+03 -3.61347E+03  4.01301E+02 -1.22880E+03
  2.12910E+03  5.29140E+03  2.87813E+03  6.80209E+02 -1.03045E+03  1.49753E+03 -4.45578E+02 -1.49247E+03
  2.96459E+03 -3.25046E+03  1.79711E+03 -3.03434E+03  7.55393E+03 -3.44131E+03  7.14785E+03 -3.82594E+03
  5.57373E+03 -2.54957E+03 -2.49999E+02  3.96832E+03  9.38512E+01  4.12317E+03 -5.46487E+03  1.47310E+03
 -6.54931E+03 -2.60684E+03 -3.81300E+03  5.55907E+02  2.86022E+01 -4.68053E+03 -9.00247E+02  1.32702E+02
  5.52521E+03 -2.62185E+03  1.03670E+02  2.13471E+03  4.64931E+02  4.56423E+03  9.95956E+02  1.63258E+03
  7.56981E+03  5.07328E+02 -1.89542E+03  2.83154E+03  5.04071E+03  1.97820E+03  3.66241E+02  4.01278E+03
  3.56385E+02  3.55775E+03 -6.20084E+02  7.95039E+03 -6.44941E+03  4.29256E+03 -1.89619E+03 -2.34048E+02
 -4.25386E+03 -1.90068E+03 -1.01427E+03 -3.78069E+03  8.64444E+02  1.22615E+03  3.80432E+03 -9.57639E+02
  1.29533E+03  4.14539E+03 -2.32997E+03  3.78267E+03 -7.06776E+03  5.87855E+02  2.11559E+03 -2.81183E+03
 -2.45524E+03  5.01817E+02  5.35082E+03 -3.14948E+03  2.78362E+02 -1.33958E+03  3.19214E+03 -6.10439E+02
  3.02311E+03  8.31790E+02  1.02638E+03 -6.83884E+02 -2.97514E+03 -3.60281E+02 -4.25876E+02 -9.50462E+02
  3.26294E+02 -3.15859E+03  9.08318E+02  2.57039E+03 -1.32402E+03  5.77162E+03 -2.08105E+03  2.65571E+03
 -1.11666E+03  3.19418E+03 -2.39291E+03  2.68718E+03 -4.39379E+03 -8.85198E+02 -2.80586E+03 -1.48832E+03
 -2.04789E+03 -2.23760E+03 -1.94521E+03  1.82748E+03  1.32103E+03  4.63346E+02 -1.27767E+03  2.23401E+03
  1.82657E+03  1.16988E+03 -1.93323E+03 -3.31685E+03  2.22460E+03  1.48701E+03  1.34965E+03 -7.13656E+03
  1.34642E+03  1.41067E+03  2.05298E+03  1.09071E+03  7.71561E+02  1.13448E+03  2.98539E+03  3.31639E+03
 -1.04426E+03  2.36939E+03  5.92625E+01 -3.02831E+03  3.83726E+03 -3.75174E+03  1.99031E+03 -4.66483E+03
  3.08688E+02  2.08640E+03  1.91990E+03  1.06814E+03 -4.31264E+03  3.77666E+03  3.77385E+02 -1.03943E+03
 -5.01020E+03 -1.18063E+03 -7.86773E+02  7.46969E+02 -3.18448E+03 -2.16137E+03  4.49041E+02 -4.46271E+03
  1.91524E+03 -1.69656E+03  1.53634E+03  4.48549E+03  3.64806E+02 -1.64058E+03  6.78790E+02 -1.88374E+03
 -1.18894E+03 -7.13261E+02  4.99472E+02  1.12247E+03 -1.37726E+02 -2.13043E+03  9.29188E+02 -1.99709E+02
 -2.51821E+03  1.45125E+03 -2.51641E+03  1.97414E+02 -5.44743E+03  3.48459E+03 -5.57683E+03 -3.81484E+03
 -2.59128E+03  4.06059E+01 -2.34260E+03  3.86572E+02  3.37449E+03 -2.61356E+03  1.03837E+01  2.85927E+02
  3.64894E+02  1.40951E+03  4.41468E+03  4.34580E+02 -3.08779E+03  2.56781E+03  3.79377E+03  2.71895E+03
 -2.32563E+03  6.67315E+01 -1.67919E+03  2.52060E+03  2.35974E+02 -1.36493E+03 -3.18133E+03 -2.96013E+03
  3.01500E+03 -1.18938E+03 -5.62951E+03  1.34745E+03  4.45381E+03 -8.65699E+02  2.59798E+03 -2.77225E+03
  4.42526E+03  1.90111E+03  2.32721E+03 -7.51237E+02  1.88708E+03  2.48625E+03 -2.82673E+03  1.59687E+03
  5.32820E+02  1.89622E+03 -2.24968E+03  1.36485E+03 -2.66863E+03  4.67624E+01 -3.18792E+03 -2.26836E+02
  8.69112E+02 -2.59970E+03 -2.08634E+03 -1.58144E+03  7.51060E+02  9.26361E+02  4.79846E+03 -1.02684E+03
  6.34461E+03  4.81559E+03  7.78635E+02 -7.71065E+02 -5.15681E+03  1.87088E+03 -8.64351E+02  2.71742E+03
  5.91937E+03 -3.99557E+02  3.42070E+02  4.61452E+03 -2.68311E+03 -3.88984E+03  1.07536E+02  7.92949E+02
 -6.23012E+03  1.00070E+03  5.19030E+01 -4.12879E+03 -7.56545E+01  1.22951E+03 -2.27546E+03 -2.87759E+03
 -3.35003E+02 -3.16773E+02  1.35598E+02 -2.04870E+03 -1.17681E+02 -2.99707E+03 -4.96918E+02  1.52915E+03
 -2.63894E+03 -2.24883E+03  1.44947E+03  1.50672E+03 -1.38872E+03  1.49569E+03 -1.42544E+03 -1.62759E+02
  2.44751E+02 -1.08397E+03 -1.63230E+02 -5.36355E+02 -1.66067E+03  6.78286E+02 -1.22416E+03 -1.56994E+03
 -3.32421E+03 -3.93027E+03  2.98202E+03 -1.72152E+03  1.96022E+03 -2.05948E+03  1.45944E+03 -4.03653E+02
 -3.08951E+03 -1.80114E+03 -4.54227E+02  8.28273E+02 -7.41145E+01  3.85147E+03 -3.25894E+03 -1.65701E+02
