 $NMID ID='MM_0lb_SNR50_12hz_g45_64.RAW', FMTDAT='(8E13.5)'
 TRAMP=1., VOLUME=1. $END
  3.08473E+05 -5.75926E+03  3.41160E+05  2.48722E+05  8.65965E+04  3.40065E+05 -1.31571E+05  2.52325E+05
 -1.92266E+05  8.74187E+04 -1.07794E+05 -3.32647E+04  8.50172E+02 -4.71108E+04  5.22584E+04  3.91314E+03
  3.56037E+04  5.81781E+04 -1.97042E+04  7.16111E+04 -6.17368E+04  6.81035E+04 -8.89619E+04  2.88382E+04
 -7.86891E+04 -1.14403E+04 -6.32490E+04 -5.09163E+04 -1.62199E+04 -6.94559E+04  2.93245E+04 -4.83641E+04
  4.11152E+04 -3.93082E+02  1.66528E+04  4.76939E+04 -3.46692E+04  4.68357E+04 -6.35143E+04  3.13290E+03
 -5.27452E+04 -5.83314E+04 -5.57250E+03 -7.99296E+04  3.48134E+04 -5.88388E+04  4.71873E+04 -1.53124E+04
  4.64389E+04  1.16381E+04  3.41896E+04  2.22674E+04  1.48040E+04  3.02634E+04 -4.59074E+03  3.25782E+04
 -2.34729E+04  1.16488E+04 -2.27104E+04 -3.96148E+03  7.67324E+03 -8.18091E+03  2.12758E+04  1.41689E+04
  7.62075E+03  4.17677E+04 -3.40913E+04  3.69098E+04 -6.15026E+04 -6.01771E+02 -5.78535E+04 -4.44459E+04
 -1.33209E+04 -6.77882E+04  3.03000E+04 -4.49978E+04  5.98281E+04 -4.50180E+03  3.60886E+04  3.79576E+04
 -5.63438E+03  3.18207E+04 -3.40049E+04  1.01474E+04 -3.18290E+04 -5.00641E+03 -1.95602E+04 -1.18479E+04
 -1.15252E+04 -1.53477E+04  9.37115E+02 -1.78803E+04  4.21168E+03 -2.00206E+04  1.38616E+04 -1.09835E+04
  1.11334E+04  5.95413E+03 -8.31442E+03  1.41840E+04 -1.80096E+04 -5.54999E+03 -8.70576E+03 -3.13022E+04
  2.53578E+04 -4.27361E+04  4.37585E+04 -2.03148E+04  4.46163E+04  1.78633E+04  1.23412E+04  5.14922E+04
 -1.52078E+04  3.99855E+04 -2.33414E+04 -5.60435E+02 -8.60070E+03 -3.09000E+04  2.12651E+04 -3.69936E+04
  3.99265E+04 -9.57303E+03  3.92768E+04  2.06321E+04  1.50373E+04  4.43805E+04 -8.82001E+03  5.14505E+04
 -2.87679E+04  3.58267E+04 -4.17060E+04  3.39690E+03 -5.04728E+04 -1.88042E+04 -2.39562E+04 -3.97868E+04
  3.78670E+03 -3.72478E+04  3.57192E+04 -1.05797E+04  2.88975E+04  1.43768E+04  2.45955E+03  1.95292E+04
 -1.43799E+04  1.31735E+04 -1.28049E+04 -8.99955E+03  8.14670E+03 -1.10890E+04  1.22870E+04  6.53741E+03
  1.68126E+04  2.05295E+04 -8.55873E+03  2.79976E+04 -2.40011E+04  1.55149E+04 -2.56566E+04 -6.50438E+03
 -1.82519E+04 -1.40567E+04 -1.03502E+04 -2.23732E+04  4.60736E+03 -1.98391E+04  2.02184E+04 -1.87577E+04
  2.39113E+04 -1.28739E+04  3.25848E+04  3.33935E+03  2.04880E+04  2.43214E+04  1.74976E+03  3.88306E+04
 -1.55626E+04  3.50172E+04 -2.95505E+04  8.90102E+03 -1.74276E+04 -1.67237E+04 -4.70878E+03 -1.66381E+04
 -1.97716E+03  3.81464E+03 -4.45434E+03  5.76371E+03 -1.44791E+04  4.72440E+03 -1.66088E+04 -6.28302E+03
 -8.85112E+03 -1.83451E+04  3.77190E+03 -2.23182E+04  1.76678E+04 -2.45985E+04  1.97079E+04 -1.83820E+03
  9.78376E+03  1.53762E+04 -2.27674E+03  1.50127E+04 -1.96860E+04  1.30566E+04 -1.84441E+04 -2.04129E+03
 -1.93175E+04 -1.43044E+04 -3.15236E+03 -2.46800E+04  1.01960E+04 -1.22513E+04  2.22946E+04 -1.08303E+04
  2.20773E+04  3.54019E+03  1.81253E+04  4.25516E+03  1.53717E+04  7.33702E+02  1.24227E+04 -2.97250E+03
  2.15830E+04  2.10725E+03  2.58658E+04  1.76591E+04  1.52959E+04  3.48384E+04 -2.45020E+03  3.87440E+04
 -2.10381E+04  3.11187E+04 -3.43594E+04  1.52529E+04 -3.61826E+04 -2.03907E+03 -3.01408E+04 -2.05969E+04
 -1.94101E+04 -2.57738E+04  1.10553E+04 -2.73163E+04  2.21244E+04 -1.32180E+04  1.55272E+04  4.74349E+03
  1.26535E+04  1.91831E+04 -1.33458E+04  1.45203E+04 -2.00789E+04 -5.83205E+02 -1.06188E+04 -9.63697E+03
  1.41117E+03 -1.65540E+04  1.14247E+04 -1.34794E+04  1.05104E+04 -2.14725E+03  7.54896E+03  6.01253E+03
 -6.64876E+03 -5.03313E+01 -4.78813E+03 -6.75136E+03  1.00760E+03 -1.38771E+04  5.67516E+03 -1.22685E+04
  1.66303E+04 -7.23217E+03  2.41889E+04 -3.31786E+02  1.53747E+04  1.76204E+04  1.06623E+04  2.41588E+04
 -4.19820E+03  3.01809E+04 -1.77931E+04  1.69598E+04 -1.96040E+04  2.38418E+03 -1.19300E+04 -5.33493E+03
 -6.46530E+03 -6.29081E+03  1.10986E+03 -2.69395E+03  1.53630E+03  2.57086E+03 -2.93507E+03  2.90943E+03
 -1.37398E+04  1.93048E+03 -1.21300E+04 -1.35597E+04 -5.66433E+03 -1.53979E+04 -1.10583E+02 -2.07181E+04
  7.67562E+03 -7.93552E+03  2.07855E+03  5.46873E+03 -2.38351E+03  7.02423E+03 -1.26704E+03  6.02652E+02
 -4.36193E+03 -1.37556E+04 -1.50352E+03 -1.05607E+04  6.31791E+03 -1.45536E+04  1.47177E+04 -9.28169E+03
  1.62081E+04  4.54080E+03  1.26306E+04  9.94911E+03  3.39602E+03  1.55057E+04 -8.21998E+03  1.60388E+04
 -1.04800E+04 -2.66602E+03 -4.60573E+03  4.74698E+03  4.99780E+03  2.13495E+02  1.77348E+03 -4.18708E+03
  7.09699E+03  2.84111E+03  1.95335E+03  1.31890E+04 -6.04886E+03  5.27179E+03 -1.01165E+04  1.93899E+03
 -7.26134E+03 -6.62112E+03  2.12994E+03 -1.04172E+04  7.41173E+03 -2.05896E+03  5.49146E+03  3.96828E+03
 -1.10792E+03  1.11457E+04 -4.59983E+03  1.04621E+04 -5.71990E+03  1.56654E+03 -7.27079E+03 -4.66992E+03
 -9.13521E+03 -1.30775E+04 -5.15199E+02 -1.41423E+04  9.34535E+03 -1.01545E+04  1.16425E+04 -4.56565E+03
  1.12114E+04  9.06583E+03 -5.44986E+02  1.08078E+04 -6.02733E+03  6.36832E+02 -8.48093E+03  9.01712E+02
 -1.05962E+04 -9.32338E+03 -5.37525E+02 -8.14378E+03  2.39776E+03 -5.20044E+03  2.39273E+03 -5.87266E+03
  3.16627E+03  1.53092E+03  1.69487E+03 -1.79883E+03 -1.90482E+03 -6.21223E+03  3.94725E+02 -5.65660E+03
  5.04516E+03 -7.95712E+03  1.76358E+04  3.79256E+03  1.56224E+04  7.05298E+03  8.51817E+02  1.95134E+04
 -6.75632E+03  1.57325E+04 -1.01849E+04  4.43505E+03 -1.38409E+04 -2.93827E+03 -1.27966E+04 -1.33417E+04
 -5.07997E+03 -1.11274E+04 -2.52502E+03 -1.21484E+04  1.84547E+03 -7.93871E+03  2.01596E+03 -4.14221E+03
  7.96055E+02 -3.78406E+03  4.97296E+03 -3.19764E+03  5.08582E+03 -6.42888E+03  1.06417E+04 -2.85696E+03
  6.79051E+03  1.17150E+03  3.55205E+03  6.02058E+03 -4.44326E+03  3.32674E+03 -1.04524E+04  1.08699E+04
 -1.28231E+04  4.65937E+03 -3.85313E+03 -3.49511E+03  9.94076E+02 -1.20494E+04  1.02056E+04 -1.72267E+04
  8.42181E+03 -9.53031E+03  1.67102E+04  2.23524E+03  8.73299E+03  1.15456E+04  7.47426E+02  1.01498E+04
 -1.04932E+04  1.00514E+04 -4.34464E+03 -2.25317E+03 -6.99238E+03 -5.46400E+03 -2.27687E+03 -3.38710E+03
 -4.19942E+03  2.55445E+03  2.01004E+03  1.51743E+03 -3.16745E+03 -2.60773E+03 -9.04730E+03  2.24727E+03
 -1.16564E+04 -8.57993E+03 -3.17489E+00 -1.11516E+04  6.87222E+03 -1.03861E+04  1.07077E+04 -2.52231E+03
  1.27080E+04  3.56520E+03  4.12517E+03  8.96100E+03  4.03262E+03  1.59706E+04 -4.60555E+03  5.76274E+03
 -9.89104E+03 -1.52459E+03 -1.01058E+04 -2.19737E+03  5.44862E+03 -3.07086E+03  5.33527E+03 -5.42814E+03
  6.09812E+03 -2.05535E+03  4.48730E+03 -6.90123E+02  2.98322E+03 -5.35395E+02  3.34531E+03  2.55139E+03
 -5.71550E+01 -6.84270E+02  3.17913E+03  4.74343E+03  1.02210E+04  6.09206E+03  5.98054E+03 -2.25860E+03
  1.36974E+03  1.24013E+04 -5.25853E+03  1.00417E+04 -8.03395E+03 -1.99771E+03 -1.29872E+04 -4.00142E+03
 -6.45767E+03 -5.64310E+03  4.97020E+03 -1.48764E+04  7.94721E+03 -1.34450E+04  1.28820E+04 -4.39987E+03
  4.86458E+03  7.96911E+02  5.86582E+03  2.88582E+03 -1.66708E+03  2.22055E+03 -4.82471E+02 -4.78174E+02
  3.59099E+03 -3.35371E+03 -9.58827E+02  5.74567E+02  7.82575E+03 -9.23191E+02  2.38447E+03  5.06122E+02
  5.69061E+02  7.20065E+03 -3.20207E+00  4.16669E+02 -1.23943E+03  4.47337E+03  3.29338E+03  3.27741E+02
 -3.68301E+03 -5.04811E+03  6.47747E+03  4.99380E+03  3.14735E+03  2.46211E+03 -9.92773E+02  1.45161E+03
 -6.33609E+03  4.74548E+03 -1.00255E+04  6.48791E+02 -9.07781E+03 -1.37606E+03 -5.28616E+03 -4.65651E+03
  8.62969E+02 -1.84628E+03  6.56340E+02  1.10610E+03  4.20384E+03  3.67621E+03 -2.97273E+03  2.76061E+03
 -3.94249E+03  3.54256E+03 -2.28812E+03 -5.98500E+03  1.59601E+03 -5.92616E+03  4.82168E+03 -4.39686E+03
  7.81199E+03 -8.08545E+03 -1.96615E+02  3.58221E+02 -5.44352E+01 -1.89132E+03 -1.95616E+03  1.27412E+03
 -6.20352E+02  3.92241E+02  8.44136E+02 -5.41775E+03  5.07164E+02 -6.51265E+03  5.47188E+03 -8.87375E+03
  3.90639E+03  9.30318E+02 -5.81475E+00  4.88992E+03  2.73411E+02  1.63333E+03 -3.26043E+03  1.00478E+04
 -2.31601E+03  7.76283E+03 -2.85759E+03 -1.69050E+03 -3.83290E+03 -6.42320E+03 -1.60636E+03 -4.74047E+03
  9.42687E+02  2.08098E+03  2.72670E+03  2.82776E+02  2.87391E+03  3.19072E+03  1.88217E+03  7.55124E+03
 -2.19382E+03  3.75530E+03 -3.82474E+03 -4.15049E+03  3.30802E+03  2.90599E+02 -3.93269E+03  2.29785E+03
  2.93039E+03 -1.10380E+03 -4.74039E+03  2.78994E+03 -1.30417E+03  2.55506E+03 -6.28535E+03  4.09366E+03
 -4.64598E+03 -9.78459E+03  3.15468E+02 -9.55224E+03  6.52201E+03 -1.13780E+04  7.23722E+03 -2.22649E+03
  6.15824E+03 -6.93776E+02  2.87907E+03  6.20196E+03  4.31083E+03  8.72147E+03 -1.67812E+03  1.38125E+02
 -1.09674E+03 -1.04486E+02 -3.40927E+02 -3.63924E+02 -6.31178E+03 -1.42853E+03 -2.69060E+03  1.27503E+03
 -6.05097E+02  3.17563E+03  2.96455E+03 -5.17515E+03 -3.11649E+03 -8.37599E+02  2.49706E+03 -4.89761E+03
  7.40115E+03 -5.39472E+03  3.09479E+03 -2.31105E+03  5.09523E+03 -4.42832E+02  1.03027E+03  5.38777E+03
 -5.75460E+03  1.01442E+04 -3.79696E+03  5.18771E+03 -8.96738E+03  1.50259E+02 -4.51873E+03 -5.72455E+03
 -9.85672E+02 -6.80328E+03  4.51021E+02 -3.53071E+03  3.94043E+03 -5.12320E+03  6.89433E+03 -3.67835E+03
  3.63699E+03  9.82578E+02 -4.23161E+02  8.20422E+02 -4.70211E+03  1.48205E+03  2.17909E+03 -6.01786E+03
  4.21574E+03  1.21989E+03  2.19654E+02  4.57544E+03 -2.50189E+03  3.66049E+03  2.79207E+03  2.32749E+03
 -3.28643E+03  3.85219E+03  2.04833E+03 -1.23889E+03 -8.28390E+03  2.93409E+03  3.17194E+03 -2.02473E+03
  3.47192E+02 -2.30983E+03 -4.13188E+03 -1.95500E+03  7.02477E+03  2.13720E+03 -2.75950E+03  4.27347E+03
  2.49358E+03 -2.12313E+03 -1.90423E+03  2.85517E+03 -3.94577E+03 -1.52217E+03  1.50004E+03 -1.27116E+03
 -3.91842E+03 -3.68675E+03 -2.09071E+03  4.78470E+03 -7.62269E+02 -2.70359E+03 -1.58226E+03  1.01186E+03
 -6.62914E+03 -2.11747E+03  1.27247E+03 -1.67507E+03  1.83172E+03 -4.24554E+03  4.52627E+03 -3.93683E+03
  7.14399E+03 -5.78840E+02  3.95336E+03 -9.43100E+02  5.19660E+02  3.38427E+03  4.74934E+02 -1.80823E+03
