 $NMID ID='MM_0lb_SNR50_18hz_g45_68.RAW', FMTDAT='(8E13.5)'
 TRAMP=1., VOLUME=1. $END
  3.10723E+05  2.82813E+03  3.38960E+05  2.51728E+05  8.54627E+04  3.36552E+05 -1.35030E+05  2.50731E+05
 -1.87440E+05  7.96777E+04 -1.11976E+05 -3.52403E+04 -2.47915E+03 -5.11348E+04  5.21804E+04  2.53592E+03
  3.08740E+04  5.42078E+04 -1.72203E+04  7.52144E+04 -6.12548E+04  6.43575E+04 -8.18484E+04  3.57967E+04
 -7.94723E+04 -7.38663E+03 -5.58034E+04 -5.22516E+04 -1.70152E+04 -6.90095E+04  2.61107E+04 -4.48419E+04
  3.72035E+04  3.12595E+03  1.74853E+04  5.00687E+04 -3.52979E+04  4.49969E+04 -6.60886E+04  1.35665E+03
 -5.51077E+04 -6.13125E+04 -8.60896E+03 -7.48709E+04  3.45080E+04 -5.47501E+04  4.90725E+04 -1.60803E+04
  3.91130E+04  8.90855E+03  3.39569E+04  2.31951E+04  2.00491E+04  2.54399E+04 -8.89876E+03  2.78125E+04
 -1.88451E+04  1.51091E+04 -1.89538E+04 -4.75063E+03  7.45512E+03 -9.16968E+03  2.33428E+04  9.14575E+03
  9.73932E+03  3.36200E+04 -3.14930E+04  3.65208E+04 -6.36117E+04  4.63472E+03 -5.70446E+04 -4.32880E+04
 -1.16898E+04 -5.74395E+04  4.04401E+04 -4.46119E+04  5.74841E+04  3.44804E+02  3.35653E+04  3.25564E+04
 -6.52707E+03  3.30056E+04 -2.95320E+04  1.11103E+04 -2.87480E+04 -1.08484E+04 -1.36949E+04 -1.06431E+04
 -4.03001E+03 -7.62914E+03 -3.13502E+03 -1.69018E+04  8.58895E+03 -2.26063E+04  2.00136E+04 -1.40575E+04
  1.46308E+04  8.15156E+03 -8.09916E+03  8.64200E+03 -2.23201E+04 -3.98639E+02 -1.09266E+04 -3.18996E+04
  1.99846E+04 -3.83299E+04  5.08991E+04 -1.95814E+04  4.29618E+04  1.87145E+04  1.67326E+04  4.28071E+04
 -1.85613E+04  3.13687E+04 -2.72470E+04  1.05945E+03 -3.87451E+03 -2.81010E+04  2.10678E+04 -2.82693E+04
  3.90639E+04 -9.42520E+03  3.64847E+04  2.10393E+04  1.72334E+04  4.19987E+04 -3.31442E+03  4.68802E+04
 -2.72363E+04  2.83745E+04 -3.62118E+04  1.04673E+04 -3.72077E+04 -1.44681E+04 -2.24715E+04 -3.61563E+04
  6.22358E+03 -3.48223E+04  2.74557E+04 -8.77841E+03  2.99466E+04  1.57929E+04  2.18217E+03  1.48260E+04
 -1.30130E+04  9.88618E+03 -9.07589E+03 -1.20500E+04  4.94969E+03 -1.40776E+04  1.85211E+04  2.75946E+03
  8.19663E+03  2.22244E+04 -5.67374E+03  2.30863E+04 -1.75788E+04  4.66965E+03 -2.78521E+04 -2.02821E+03
 -1.48876E+04 -1.38889E+04  3.34556E+02 -1.55526E+04  3.15143E+03 -1.45645E+04  1.02898E+04 -1.54908E+04
  1.99686E+04 -1.27955E+04  3.25124E+04  4.95997E+03  1.95743E+04  1.52000E+04  3.04407E+03  3.00054E+04
 -1.81036E+04  3.07301E+04 -2.25656E+04  5.81725E+03 -2.00248E+04 -9.67223E+03 -3.14208E+02 -1.40700E+04
  1.94668E+03 -4.19873E+03 -1.36520E+03  8.17072E+03 -1.18624E+04  4.35613E+03 -1.18518E+04 -7.46678E+03
 -1.18833E+04 -1.64289E+04  4.23965E+03 -1.60816E+04  9.64696E+03 -1.30805E+04  1.43260E+04 -2.99019E+03
  8.42353E+03  9.59318E+03 -5.75773E+03  1.70931E+04 -1.02961E+04  1.33619E+04 -1.91606E+04 -4.07319E+03
 -7.87028E+03 -1.78769E+04  2.33365E+02 -2.02461E+04  7.70434E+03 -1.38843E+04  1.53325E+04 -9.92656E+03
  1.61433E+04 -8.40158E+02  1.09899E+04  2.45329E+03  5.66533E+03  2.51979E+03  6.18560E+03 -1.78702E+03
  1.34513E+04  5.09018E+03  1.55634E+04  8.84812E+03  6.90043E+03  2.18312E+04 -5.52879E+03  2.68932E+04
 -1.52210E+04  2.15111E+04 -2.46412E+04  1.13993E+04 -2.97242E+04  9.55300E+01 -1.75703E+04 -1.28269E+04
 -1.16170E+04 -2.15782E+04  5.00578E+03 -2.07003E+04  1.36413E+04 -1.18713E+04  1.80272E+04  4.47548E+03
  2.27428E+03  1.36737E+04 -7.91125E+03  8.95972E+03 -1.28691E+04  1.09165E+03 -9.52545E+03 -2.18429E+03
  2.55333E+03 -1.35384E+04  6.10173E+03 -1.18840E+04  7.71453E+03  1.66195E+03  2.21043E+03  9.01811E+03
 -3.75967E+03  4.49737E+03 -3.69523E+03 -5.30999E+03  8.04687E+02 -1.26622E+04  1.02687E+04 -1.36918E+04
  1.15825E+04 -4.76769E+03  1.19094E+04 -1.11884E+03  7.30725E+03  1.19910E+04  5.57979E+03  1.87160E+04
 -1.38480E+03  1.57473E+04 -8.97704E+03  8.06556E+03 -1.09671E+04  2.37852E+03 -1.04500E+04 -5.62045E+03
 -4.87198E+03 -5.69115E+03 -8.06239E+02  2.11627E+03 -6.07761E+03  3.62318E+03 -5.50640E+03  4.15599E+03
 -3.20047E+03 -1.08241E+03 -6.99145E+03 -1.22690E+03 -5.42180E+03 -1.52127E+04  1.01050E+04 -5.27077E+03
  9.07725E+03 -2.93605E+03  7.54976E+03  4.61794E+03  4.34265E+02  7.21311E+03 -4.10274E+03  3.16943E+03
 -7.51527E+03 -5.51706E+03 -5.16347E+03 -9.70571E+03  6.13398E+03 -6.99764E+03  1.12171E+04 -4.56694E+03
  1.12208E+04  8.96669E+02  1.00180E+04  8.48226E+03  7.56937E+02  1.13867E+04 -3.59823E+03  9.41932E+03
 -1.11440E+04  3.54892E+03 -4.70351E+03 -5.52347E+03  1.06868E+03 -3.42629E+03  4.09359E+03 -1.33370E+03
  8.50175E+02  3.76739E+03  3.40946E+02  7.78978E+03 -3.15871E+03  9.78203E+03 -6.31743E+03 -3.11679E+03
 -3.62803E+03 -3.82472E+03  1.40530E+03 -6.35455E+03  2.17126E+03 -5.39669E+03  4.58574E+03  3.31652E+03
  1.32087E+03  2.84720E+03 -4.54394E+03  2.86565E+03 -5.10161E+03  6.82749E+03 -3.69141E+03 -4.70917E+03
 -3.20534E+03 -9.92439E+03  2.18955E+03 -2.53986E+03  5.23890E+03 -4.48502E+03  8.53120E+03  2.74441E+02
  4.81656E+03  3.87159E+03  2.07902E+03  7.11262E+03 -8.26881E+03  1.34976E+03 -2.85258E+03 -7.59289E+02
 -4.51998E+03 -5.85761E+03  3.41787E+03 -5.44811E+03  6.70298E+03 -8.33719E+03  3.60525E+03 -4.35571E+03
 -2.70161E+03  2.55184E+03  6.07041E+03 -2.26830E+03 -2.00609E+03 -2.55420E+03  3.17243E+03 -3.24380E+03
  6.23894E+03 -1.35964E+03  2.38642E+03  4.16402E+03  3.35618E+02  2.28616E+03  5.76459E+03  8.67553E+03
 -4.40122E+02  1.18309E+04 -6.96627E+03  1.34767E+04 -9.46143E+03  2.00310E+03 -1.18786E+04 -2.89044E+03
 -1.63035E+03 -7.90627E+03 -9.18805E+02 -1.10607E+03 -2.78350E+00 -3.53086E+03  1.68674E+03 -4.14346E+03
  2.61479E+03 -3.08275E+03  2.41240E+03  1.48525E+03 -6.51490E+02 -1.07239E+03  6.12828E+03 -2.37087E+03
  5.76129E+03  1.20603E+02  2.94819E+01  1.56712E+03 -2.01079E+03  7.79678E+02 -1.70816E+03  4.47130E+03
 -6.24208E+03 -2.81140E+03  2.11639E+02 -4.13604E+03  1.88674E+03 -4.84791E+03 -2.38654E+02 -8.53165E+03
  4.50025E+03 -5.61279E+03  7.69150E+03  1.87039E+03 -2.19584E+03  3.56326E+03 -2.13736E+02  5.95771E+03
  4.38390E+02  3.79742E+03 -1.88832E+03  2.14893E+03 -2.42648E+02 -2.15847E+03 -8.14711E+02 -3.47989E+03
 -6.98290E+03  5.32111E+03 -1.22734E+03  5.41089E+02 -3.05412E+03  2.03667E+03 -5.08044E+03 -2.45844E+03
  3.07056E+02 -3.75414E+02  2.48747E+03 -4.38978E+03  3.98627E+03 -5.70362E+03  6.84606E+03 -9.77930E+02
  1.04927E+03 -1.21482E+02  9.20486E+02  1.52647E+03 -3.60135E+02  5.39564E+03 -4.14858E+02  5.84990E+03
 -2.18659E+03  9.69651E+01 -3.63623E+03 -1.88970E+03  3.56432E+02 -4.48602E+03 -2.60834E+02 -2.07794E+03
 -7.37754E+02 -2.22290E+03 -4.74972E+03  3.29718E+02  1.22998E+03  6.56579E+02 -8.61428E+02 -1.63748E+03
  2.55424E+03  3.94298E+03 -2.19340E+02 -1.41909E+03  1.22520E+03  3.48130E+03 -4.05655E+03 -5.35504E+03
 -1.73216E+03  6.91860E+02 -1.71474E+03  3.53556E+03 -5.60997E+03  3.00189E+02 -4.97647E+03  2.80186E+03
 -3.00437E+03 -1.28911E+03 -3.24326E+03 -4.85203E+03  5.80451E+02 -1.90317E+03 -4.01636E+01  2.63973E+03
  3.41540E+03 -5.70650E+02  1.06745E+03  9.99867E+02 -7.98959E+02  2.41504E+03 -3.77570E+02  1.93311E+03
  1.75232E+02 -4.94377E+03  4.87265E+03 -4.87917E+03  1.11665E+03 -1.69736E+03  2.03782E+03 -9.37110E+02
 -1.57307E+03  3.07363E+03  2.91573E+03 -2.90195E+03 -2.29040E+03  5.77083E+03  7.84083E+02 -2.85121E+03
  2.27376E+03 -5.05009E+03  6.07698E+02 -8.42654E+01  4.57842E+03 -9.45158E+02  5.84156E+03 -1.59767E+03
 -5.47817E+02 -4.52337E+02 -2.08801E+03 -3.04187E+03 -4.64422E+02  3.82094E+03  1.14023E+03 -1.16117E+03
  5.03744E+03  2.30000E+03  4.65181E+03  5.49679E+01 -1.08778E+03  9.61855E+02 -2.78166E+03  3.37600E+02
 -7.31128E+02 -1.26217E+03  8.07569E-01 -1.14641E+03 -2.84521E+03 -2.75421E+02  5.49549E+03 -1.67033E+03
 -4.79721E+02 -1.10291E+03 -8.65548E+02  2.50853E+02  4.45711E+03 -1.10654E+03 -2.70970E+02  3.08088E+03
 -1.03827E+03 -1.24496E+03 -7.28232E+02  1.64702E+03  1.67578E+03  3.93450E+02 -1.52681E+03 -3.67853E+03
  2.32789E+03 -1.15425E+03 -1.16550E+03  2.43565E+03 -1.53565E+03  2.88520E+03  7.78977E+02 -1.86120E+03
  2.51856E+03  3.55971E+03 -4.12660E+03  1.86934E+03 -4.25291E+03  1.34361E+03 -1.04517E+03 -7.69845E+02
  3.67911E+03 -1.98196E+03  2.18432E+03  2.86329E+03  3.31993E+03 -1.14375E+03 -3.57492E+03  6.18831E+03
  1.27939E+03 -6.61056E+02 -3.74645E+03  3.92743E+03  7.68766E+02 -3.63021E+02 -9.31233E+02 -1.85826E+02
 -5.98982E+02  6.02551E+03 -1.09458E+03  3.61856E+03 -2.64745E+03  1.27523E+03 -6.10352E+03  1.03089E+03
 -9.40806E+02 -2.12834E+03  3.54800E+03 -5.39089E+03 -1.49591E+03 -1.46322E+03  9.16543E+02 -2.50427E+03
  1.78727E+03  3.17826E+03  2.49512E+03  2.39328E+03 -2.92725E+03 -2.99300E+02 -3.27070E+03  5.54062E+03
  2.57905E+02 -1.44798E+03  8.21959E+02 -1.25879E+03 -1.65292E+03  2.95979E+03 -3.65455E+03 -1.02814E+03
 -9.42874E+02  7.34001E+02 -3.46332E+02  6.47151E+02 -3.45575E+02 -3.32679E+02 -5.15924E+03 -5.73505E+03
  2.05494E+02  1.26205E+03 -7.52315E+01  1.30703E+03  1.85330E+03 -2.74822E+02 -2.33677E+03  4.30363E+03
  5.32104E+02  4.30308E+03 -1.89871E+02  1.51278E+03 -3.55019E+03 -3.00374E+03 -2.43728E+03 -5.55596E+03
 -3.30481E+03  2.35140E+03  3.06777E+03  2.73651E+03  7.92518E+01 -2.24584E+02  3.87044E+03  1.90729E+03
 -8.27945E+03 -2.62662E+02 -7.54943E+01  6.56584E+02  6.68023E+02 -1.80666E+03  1.42621E+03  1.16669E+03
  2.22511E+03  8.43106E+02  1.69284E+03 -8.22032E+02  4.67368E+02 -2.03147E+03 -2.82593E+03  2.13356E+02
 -4.80343E+03 -9.93355E+01 -1.01445E+03 -2.88976E+03  2.79588E+02 -1.35123E+03 -2.39391E+03 -3.11040E+03
  2.63448E+03  3.54113E+03 -6.26914E+02 -3.68965E+03  2.51810E+03 -1.37414E+03  3.82544E+03  6.98780E+02
 -8.83813E+02  5.38310E+02  6.60833E+02  1.88751E+03 -1.20425E+02 -4.45321E+03  6.29169E+01  1.94428E+03
  1.56804E+02 -1.84893E+03  3.86409E+02 -1.09659E+02  2.67726E+03 -3.65241E+03 -4.49144E+03 -1.88007E+03
 -2.34705E+03  2.41787E+03  2.30271E+03 -4.15502E+03  7.84651E+02 -8.30733E+02  1.71497E+03 -5.89595E+03
  5.24339E+03  1.46353E+03 -6.47446E+02 -9.83132E+02 -1.57928E+03  1.36405E+03  4.81005E+02  2.98284E+02
