 $NMID ID='MM_0lb_SNR50_20hz_g50_38.RAW', FMTDAT='(8E13.5)'
 TRAMP=1., VOLUME=1. $END
  3.08796E+05 -6.99229E+02  3.37060E+05  2.47678E+05  8.66987E+04  3.39426E+05 -1.33297E+05  2.52757E+05
 -1.87726E+05  8.22105E+04 -1.07516E+05 -3.35953E+04  3.00525E+03 -5.14776E+04  5.68089E+04  5.69135E+02
  3.67106E+04  5.39961E+04 -1.70630E+04  7.21281E+04 -6.24615E+04  5.91719E+04 -8.27388E+04  3.57797E+04
 -8.01875E+04 -1.21629E+04 -5.48838E+04 -4.99240E+04 -1.51001E+04 -6.69293E+04  2.69941E+04 -4.56492E+04
  4.27768E+04  5.56555E+03  1.57990E+04  4.84274E+04 -3.16323E+04  4.80598E+04 -6.60756E+04 -2.50493E+03
 -4.84079E+04 -5.50782E+04 -5.97266E+03 -7.47318E+04  3.26497E+04 -5.57749E+04  4.87119E+04 -1.58320E+04
  4.42703E+04  8.83008E+03  3.03917E+04  2.21635E+04  1.38954E+04  2.75078E+04 -3.12857E+03  2.95531E+04
 -1.93259E+04  1.08532E+04 -2.10187E+04 -4.28028E+03  3.01775E+03 -8.70658E+03  1.82669E+04  1.10634E+04
  1.09803E+04  3.29228E+04 -3.00551E+04  3.47291E+04 -6.41882E+04  3.52073E+01 -5.24135E+04 -3.62111E+04
 -1.16603E+04 -6.02821E+04  3.85752E+04 -4.09372E+04  5.71161E+04 -1.51936E+03  3.22894E+04  3.01640E+04
 -1.04438E+04  2.99667E+04 -2.81124E+04  1.43652E+04 -2.78390E+04 -6.54185E+03 -1.76279E+04 -1.06249E+04
 -5.96059E+03 -9.21137E+03  1.35524E+03 -1.54600E+04  3.27096E+03 -2.33186E+04  1.33959E+04 -1.73009E+04
  1.35545E+04  5.42067E+03 -5.31440E+03  1.39327E+04 -2.02616E+04 -1.19719E+02 -9.06544E+03 -2.89041E+04
  2.01939E+04 -3.96761E+04  4.34273E+04 -2.00604E+04  4.01686E+04  1.64888E+04  1.71610E+04  4.06658E+04
 -1.23768E+04  3.27271E+04 -2.19479E+04  1.66859E+03 -8.08231E+03 -2.55216E+04  1.90188E+04 -3.23469E+04
  3.47927E+04 -8.93097E+03  3.11444E+04  2.37999E+04  1.42699E+04  4.19485E+04 -9.18584E+03  4.95736E+04
 -2.64386E+04  3.04396E+04 -3.63742E+04  7.75058E+03 -4.05582E+04 -1.79426E+04 -1.94031E+04 -3.37560E+04
  1.01440E+04 -3.34561E+04  3.18566E+04 -1.04877E+04  2.44839E+04  1.03846E+04 -3.25928E+02  1.92281E+04
 -1.19844E+04  1.00556E+04 -4.55244E+03 -1.09996E+04  7.93217E+03 -1.04168E+04  1.76476E+04  7.46780E+03
  1.18130E+04  2.35708E+04 -7.47270E+03  2.03895E+04 -2.38410E+04  9.46815E+03 -2.30740E+04 -7.27493E+03
 -1.29834E+04 -2.10979E+04 -6.62360E+03 -1.49383E+04  1.36445E+03 -1.18150E+04  1.26019E+04 -1.76811E+04
  2.00498E+04 -1.06461E+04  2.46166E+04  3.92133E+03  2.11863E+04  1.31377E+04  4.89506E+03  3.62194E+04
 -1.78947E+04  2.81737E+04 -2.65621E+04  7.57529E+03 -2.18006E+04 -8.09901E+03 -9.55648E+02 -1.21969E+04
  1.26321E+03 -3.60167E+03 -3.05150E+03  5.16967E+03 -1.30230E+04  4.31164E+03 -1.34037E+04 -7.11887E+03
 -5.85170E+03 -1.34997E+04  2.13498E+03 -1.38534E+04  1.52823E+04 -1.66810E+04  1.37982E+04 -3.96649E+03
  7.70961E+03  1.23957E+04 -2.81142E+03  1.66687E+04 -9.60860E+03  9.18900E+03 -1.08802E+04 -1.27708E+03
 -1.01836E+04 -1.31958E+04 -6.10016E+03 -2.23352E+04  1.06377E+04 -1.70072E+04  1.67169E+04 -2.08257E+03
  1.17689E+04  7.14476E+02  1.43045E+04  6.97534E+03  5.16393E+03 -5.80588E+02  7.50180E+03  2.43069E+02
  1.26688E+04  3.03960E+03  1.87599E+04  8.53773E+03  8.08594E+03  2.77782E+04  1.06133E+03  2.33459E+04
 -1.53066E+04  1.74811E+04 -2.20254E+04  8.62648E+03 -2.49020E+04 -7.34319E+02 -1.89866E+04 -1.51977E+04
 -9.09151E+03 -2.20292E+04  9.92932E+01 -1.78095E+04  1.60820E+04 -1.28106E+04  1.72531E+04  1.41219E+03
  6.60108E+03  1.36774E+04 -6.94558E+03  1.00728E+04 -1.35085E+04  5.27763E+03 -7.09746E+03 -6.63916E+03
  1.72543E+03 -1.19923E+04  4.67468E+03 -5.69136E+03  9.21592E+03 -2.18024E+03  2.38364E+03  4.15276E+03
 -3.70391E+03  4.30197E+03 -1.67429E+03 -2.43070E+03 -1.83420E+03 -9.69971E+03  7.50708E+03 -9.45870E+03
  1.43588E+04 -6.06160E+03  1.18704E+04  4.63086E+03  1.04278E+04  8.48671E+03  4.06573E+03  1.15570E+04
  1.26159E+03  1.43202E+04 -8.32198E+03  7.70998E+03 -7.67755E+03  7.96444E+02 -7.78487E+03 -2.13881E+03
 -1.88002E+03  2.49658E+03 -9.69624E+02  1.34823E+03 -2.20178E+03  4.37180E+03 -3.05321E+03  2.74050E+03
 -8.42053E+03 -2.26986E+03 -7.95744E+03 -4.23967E+03 -8.22006E+02 -1.07202E+04 -7.53191E+02 -6.65553E+03
  3.12757E+03  1.24336E+03  5.57645E+03  2.14828E+03  1.79480E+02  1.31916E+03 -3.15128E+03 -5.26386E+02
 -2.11416E+03 -4.79117E+03 -2.50781E+03 -3.36037E+03  4.96772E+03 -7.86200E+03  9.27958E+03 -3.19180E+03
  6.61472E+03 -7.18430E+02  8.63757E+03  6.32396E+03  2.26901E+03  8.38885E+03 -4.77648E+03  3.77809E+03
 -7.56443E+03  1.68590E+03 -4.94733E+03 -5.16070E+03  4.14607E+03  1.61455E+01  5.17576E+03 -4.85390E+03
 -1.59409E+03  5.62433E+03  7.69065E+02  8.19730E+03 -3.11355E+03  5.07898E+03 -2.20333E+03  2.72003E+03
 -4.63391E+03 -5.80406E+02  9.35776E+02 -5.63180E+03  3.26948E+03 -5.26403E+03  2.40257E+03 -2.50337E+03
 -1.61001E+03  2.86320E+03  2.37817E+03  2.96312E+03 -3.56962E+03  1.59697E+02 -2.06894E+03 -4.75570E+03
 -5.77573E+02 -3.39605E+03  5.65988E+02 -7.24394E+03  7.28473E+03 -6.17118E+03  6.77486E+03 -1.22905E+03
  5.95150E+03  7.69612E+03 -1.26403E+03  8.94854E+03 -4.60065E+03  2.75853E+03 -4.42190E+03  2.04805E+03
 -9.26256E+03 -5.09951E+03 -3.57884E+03 -5.27413E+02  3.36545E+03 -2.17794E+03  6.97281E+03 -4.74249E+03
  2.63821E+03 -1.54616E+03 -1.56898E+03 -3.42563E+02  2.03971E+03  4.53791E+03 -1.94562E+03 -2.66668E+03
  4.42902E+03  1.97170E+02  3.38748E+03  5.17749E+02  5.63367E+03  4.66213E+03  1.06484E+04  1.02266E+04
 -3.82153E+03  8.48062E+03 -7.46156E+03  4.33564E+03 -1.08701E+04  2.48411E+03 -4.63845E+03  1.67739E+03
 -8.34168E+03 -5.66715E+03  1.04790E+03 -4.78455E+03  1.39971E+03 -4.01946E+03  3.95566E+03  3.24840E+02
 -5.47412E+01 -4.02720E+03 -1.91666E+03 -3.81852E+02  2.68651E+03 -3.47584E+03  4.19581E+03  1.92071E+03
  3.63517E+03 -5.90646E+03 -5.30085E+03  4.08190E+02 -5.70563E+02  4.40982E+02 -5.15621E+03  2.19671E+03
 -5.80587E+03 -3.44364E+03  4.42962E+02 -4.76625E+03 -3.96671E+03 -1.56254E+03  4.89481E+03 -6.39737E+03
  1.00466E+04 -6.37377E+02  6.02042E+03  2.35362E+03 -4.01320E+03  2.79108E+03  4.41954E+03  3.83182E+03
 -1.39804E+03  4.01371E+03 -2.08009E+03  2.80714E+03  2.03327E+02 -1.89965E+03 -1.01408E+03 -9.84353E+02
  1.52611E+02 -2.69676E+03 -3.09101E+03  6.80959E+02 -5.01332E+02  3.63357E+03 -6.06664E+03  4.83664E+03
 -2.39868E+03  3.15091E+00 -2.60884E+02  8.60104E+02  1.03583E+03 -3.87950E+03  5.91101E+03  6.21600E+02
  4.15582E+03 -2.20494E+03  2.46032E+03  2.75762E+03 -6.12088E+02  7.64703E+03 -2.77491E+03  4.21280E+03
 -5.35366E+03 -8.42543E+01  2.90053E+03  4.45846E+02 -1.27151E+03 -2.25919E+03 -1.46984E+03 -3.25871E+03
  2.62536E+03 -3.54552E+03 -2.35053E+02  5.72510E+03  8.42584E+02  9.18485E+02 -4.04676E+03  1.94179E+03
  5.20618E+03 -1.25880E+03  1.73608E+03  1.59867E+03  3.55022E+03 -4.47494E+02 -8.37259E+02 -1.96315E+03
 -1.27916E+03  1.88978E+03 -1.37700E+03  4.09027E+03  1.93750E+03  6.79062E+02  7.71746E+01 -5.27170E+03
  3.11843E+03 -3.48577E+03  2.22485E+03 -2.63533E+03  2.89925E+03 -1.29981E+03  2.92883E+03 -1.14956E+03
  4.67182E+03  1.20654E+03 -8.47510E+02  3.03981E+03  3.68664E+03 -2.41864E+03 -3.14638E+03  7.46715E+02
  3.08887E+03 -8.33672E+02  4.44660E+03  1.15361E+02  1.95347E+03 -1.97110E+03 -2.74512E+03 -1.74386E+03
 -2.21933E+03  8.68388E+02 -3.24111E+03 -4.06572E+02 -5.51094E+02 -9.25437E+02  2.93115E+03 -4.34429E+03
  1.05169E+03 -2.18104E+02  2.87167E+03 -1.31901E+03 -3.36496E+02 -1.21560E+03 -2.11806E+03  4.64569E+03
 -9.51460E+02  1.28694E+03 -3.86761E+03 -2.19671E+03 -1.94882E+03  1.56478E+03 -3.82343E+03  1.32916E+03
  2.89439E+03  5.26125E+02  1.75914E+02 -2.20999E+03  1.80713E+03 -1.38573E+03  3.39037E+03  3.61558E+03
  2.58455E+03  2.11358E+03  4.61851E+01  1.33953E+03  6.90841E+02 -2.06838E+03  2.44332E+03  1.05251E+02
 -9.23670E+02 -9.70126E+02 -6.65569E+02  1.06112E+03  4.15207E+03  1.66495E+03  1.73568E+02  2.40563E+03
  5.46062E+03  2.67953E+03  9.54305E+02 -2.87637E+03 -8.52473E+02 -6.05595E+03 -3.15912E+02 -1.88484E+03
 -2.37069E+02 -1.38834E+03  1.05005E+03 -2.16099E+03 -1.12210E+03  3.81744E+03 -2.78325E+03  3.37411E+03
 -8.04063E+02 -4.94622E+03 -5.75960E+02 -5.42025E+03 -1.92348E+03  2.39186E+03  1.78884E+02 -2.96473E+03
 -2.14253E+03 -8.64066E+02 -3.66471E+03 -6.86171E+01  3.10266E+02 -1.94135E+03  2.11727E+03  3.03912E+03
 -5.79794E+02  4.91816E+03 -3.52642E+02 -1.81390E+03  3.54160E+03  1.25369E+03  1.31477E+03 -1.75113E+03
 -5.99492E+02  7.78798E+02 -2.29340E+03 -1.01525E+03  2.74987E+03 -1.34628E+02  1.98745E+03 -3.51672E+03
 -4.39443E+03 -3.83291E+03  4.06633E+03 -3.42657E+03  5.21810E+02 -3.27040E+01  2.07238E+03 -7.92424E+02
 -1.58440E+03 -2.15928E+03  2.23111E+03  6.41656E+02 -1.86643E+03 -3.66971E+01 -1.15801E+02  2.63458E+03
 -4.15237E+03 -1.62026E+03 -4.98044E+02 -1.33708E+03  4.19766E+02 -5.96086E+03 -3.29340E+03 -7.60045E+02
  1.16222E+03  3.26058E+02 -2.77384E+03  3.40798E+02 -3.72143E+03  6.28640E+02  1.01172E+03  3.44833E+03
  6.45116E+02 -1.71924E+03  6.28531E+02 -1.17939E+03  3.97081E+03  1.08854E+03 -1.11892E+03 -1.71863E+03
  4.65663E+03  2.77640E+03  3.67370E+03  3.07220E+03  3.12191E+03 -3.19091E+03 -4.08848E+03 -1.68867E+03
  3.44882E+01 -1.23248E+03 -2.20144E+03  1.12766E+03  2.98100E+03 -3.81066E+03 -2.77295E+02  5.83374E+01
  2.53800E+03  3.91382E+02  1.92811E+03 -3.91746E+02 -2.58120E+03 -8.53880E+02 -1.11002E+03  2.29740E+03
  4.77597E+03 -3.52161E+03  3.12461E+03  1.01896E+03  2.26169E+03 -1.23010E+03  2.02752E+03 -1.79707E+03
 -1.56484E+02  8.27472E+02  2.70949E+03  1.69214E+03 -9.44396E+02 -1.49064E+03 -3.07899E+03 -1.46689E+03
  6.78892E+02 -1.17027E+03  2.13371E+03  7.30389E+02 -2.00990E+03  3.71752E+01  2.80131E+03 -1.04143E+03
  4.56389E+03  1.00646E+03 -4.27967E+02 -2.30822E+03  4.14822E+03  4.71125E+03 -1.67053E+02 -9.24548E+02
 -4.59457E+02  2.71087E+03 -8.70645E+02  2.18461E+03 -5.68312E+02  1.35154E+02 -1.05361E+03  4.24682E+03
 -3.62167E+02  3.67877E+03  1.55484E+03 -5.49369E+03  2.51906E+02 -1.54900E+03 -1.74788E+03  2.97367E+03
  7.98872E+02 -1.78856E+03 -1.95072E+03 -2.88986E+03  1.25582E+03  3.90822E+03 -3.32171E+03  3.51973E+03
