 $NMID ID='MM_0lb_SNR50_13hz_g60_55.RAW', FMTDAT='(8E13.5)'
 TRAMP=1., VOLUME=1. $END
  3.05273E+05 -3.36503E+03  3.37793E+05  2.46450E+05  8.44291E+04  3.38730E+05 -1.33723E+05  2.56727E+05
 -1.91263E+05  7.84634E+04 -1.10729E+05 -3.31617E+04  1.11373E+03 -5.22228E+04  5.24481E+04  2.18719E+03
  3.44631E+04  4.93622E+04 -1.75340E+04  7.35154E+04 -5.63954E+04  6.44915E+04 -8.72937E+04  3.08902E+04
 -7.87819E+04 -1.24871E+04 -5.61573E+04 -4.95022E+04 -1.60406E+04 -6.76721E+04  2.98499E+04 -4.50636E+04
  3.69193E+04  8.42590E+03  1.54332E+04  5.37052E+04 -3.21568E+04  5.53617E+04 -6.62301E+04 -2.07831E+03
 -5.50912E+04 -6.37329E+04 -1.07418E+04 -8.01599E+04  3.05544E+04 -5.42369E+04  5.25644E+04 -2.04458E+04
  4.21246E+04  9.96651E+03  3.43025E+04  1.77613E+04  1.11144E+04  2.81393E+04 -5.34857E+03  2.64394E+04
 -2.29159E+04  8.85792E+03 -1.33028E+04 -2.78279E+03  2.55034E+03 -8.53438E+03  1.92304E+04  7.40289E+03
  5.62726E+03  3.74699E+04 -3.20199E+04  3.51889E+04 -6.66879E+04  2.86442E+01 -5.55628E+04 -4.46178E+04
 -1.78334E+04 -6.49553E+04  3.80679E+04 -4.81417E+04  5.68403E+04 -4.15547E+03  4.02152E+04  3.88091E+04
 -6.85595E+03  3.44838E+04 -3.73222E+04  2.01758E+04 -3.23997E+04 -3.61079E+03 -1.58808E+04 -1.07043E+04
 -3.94036E+03 -1.78105E+04 -1.47890E+03 -1.56328E+04  4.79392E+03 -1.97752E+04  1.50413E+04 -1.58364E+04
  1.44627E+04  9.54437E+03 -9.97667E+03  9.35556E+03 -1.80477E+04 -4.74628E+03 -1.19754E+04 -3.35280E+04
  2.38504E+04 -4.91053E+04  5.26919E+04 -1.78396E+04  5.13470E+04  1.70729E+04  1.62129E+04  5.03734E+04
 -2.10800E+04  3.58506E+04 -2.92878E+04 -3.88726E+03 -1.36550E+04 -2.46196E+04  2.34876E+04 -3.70868E+04
  4.44731E+04 -8.53905E+03  4.06916E+04  2.49268E+04  1.87280E+04  5.22797E+04 -9.65313E+03  5.68143E+04
 -3.01817E+04  3.02557E+04 -4.62036E+04  1.09031E+04 -4.58904E+04 -1.36096E+04 -2.66393E+04 -4.24181E+04
  4.68575E+03 -4.29528E+04  3.47172E+04 -1.61462E+04  2.78189E+04  1.13392E+04  6.54131E+03  1.94010E+04
 -1.37403E+04  1.04473E+04 -8.86802E+03 -5.22195E+03  5.72323E+03 -1.13993E+04  1.66153E+04  1.46499E+04
  1.24756E+04  2.44505E+04 -8.78861E+03  2.59497E+04 -2.48191E+04  1.22208E+04 -3.32279E+04  1.47075E+03
 -2.52223E+04 -1.69850E+04 -1.13101E+04 -2.56184E+04  3.75316E+03 -2.04735E+04  1.70383E+04 -1.89752E+04
  2.40779E+04 -1.64949E+04  3.89319E+04  3.04350E+03  2.71963E+04  2.08268E+04 -4.59658E+02  3.62133E+04
 -1.70029E+04  3.29607E+04 -3.07732E+04  8.94536E+03 -2.10730E+04 -9.71231E+03 -5.00313E+03 -1.40862E+04
  5.46013E+03  1.39667E+03 -1.00976E+04  8.32790E+03 -1.77241E+04  3.68737E+03 -1.37002E+04 -5.23440E+03
 -4.44344E+03 -1.80945E+04  8.05171E+03 -2.70859E+04  2.13010E+04 -1.80161E+04  2.10068E+04  1.75585E+02
  1.34266E+04  1.92216E+04 -1.19101E+03  2.21410E+04 -1.20185E+04  1.24632E+04 -2.21989E+04 -3.67531E+03
 -1.57460E+04 -1.82972E+04 -6.48077E+02 -2.66945E+04  8.52299E+03 -2.11358E+04  2.33463E+04 -1.42602E+04
  1.63450E+04 -4.40719E+03  1.22035E+04  4.73138E+03  7.33039E+03  3.84434E+03  1.26310E+04  5.46828E+02
  2.07514E+04 -1.96470E+03  2.22381E+04  2.14199E+04  1.26124E+04  3.09023E+04  1.03838E+03  3.90124E+04
 -2.86585E+04  3.79094E+04 -3.27922E+04  1.16349E+04 -3.85288E+04 -7.48294E+03 -3.40404E+04 -1.65263E+04
 -1.67687E+04 -2.80791E+04  1.15166E+04 -3.00082E+04  2.20300E+04 -1.31083E+04  2.38272E+04  5.56518E+03
  1.18251E+04  2.11753E+04 -6.75957E+03  1.44191E+04 -2.07850E+04  1.60691E+03 -1.51128E+04 -1.44974E+04
 -6.05088E+03 -1.69628E+04  1.33022E+04 -1.37030E+04  8.79616E+03 -2.24622E+02 -1.15212E+03  4.01587E+03
 -9.97257E+03  2.32052E+03 -2.99903E+03 -4.06540E+03  2.81197E+03 -1.65125E+04  1.13481E+04 -1.59556E+04
  1.75592E+04 -8.12101E+03  2.01428E+04  1.52685E+03  2.12873E+04  1.49612E+04  4.76512E+03  2.79914E+04
 -4.47815E+03  2.46816E+04 -1.78417E+04  2.22895E+04 -1.91787E+04 -2.49198E+03 -1.72462E+04 -4.62808E+03
 -4.10983E+03 -5.20334E+03  5.08010E+01 -1.37692E+03  3.93611E+00  3.61961E+03 -3.56108E+03  7.10570E+03
 -7.07597E+03  6.47921E+03 -1.37031E+04 -8.00926E+03 -8.27787E+03 -1.63679E+04  7.81202E+03 -1.75843E+04
  1.44448E+04 -4.69198E+03  6.64947E+03  5.44707E+03  7.05842E+02  3.05332E+02 -8.28230E+03 -1.24600E+03
 -1.05815E+04 -1.34160E+04 -1.18400E+03 -1.28102E+04  4.29269E+03 -8.88840E+03  2.11082E+04 -3.91972E+03
  2.17520E+04  1.21924E+03  1.32195E+04  9.87682E+03 -2.44137E+03  1.87300E+04 -3.77282E+03  1.62107E+04
 -1.08727E+04 -8.39396E+02 -6.21517E+03  3.52101E+03  8.92980E+02 -3.60458E+03  3.13112E+03 -7.39131E+02
  1.85778E+03  1.38334E+03 -3.23282E+03  6.83552E+03 -5.26168E+03  1.33162E+04 -1.52242E+04  2.00233E+03
 -5.90001E+03 -1.06910E+04 -3.25805E+03 -1.16203E+04  8.89780E+03 -1.10828E+03  4.36898E+03  1.76930E+03
 -7.25750E+02  8.35528E+03 -4.44198E+03  1.00351E+04 -1.04623E+04  5.78265E+03 -5.86336E+03 -3.65162E+03
 -2.37056E+03 -8.28292E+03  1.80800E+03 -1.31138E+04  1.43246E+04 -3.83785E+03  7.86565E+03 -6.74051E+02
  1.20526E+04  1.21654E+04 -2.48482E+03  1.80984E+04 -1.29581E+04  4.19087E+02 -1.03772E+04 -4.20225E+03
 -8.18623E+03 -1.09327E+04 -9.74571E+01 -7.79763E+03  2.94223E+03 -1.24611E+04  2.13624E+03 -4.35817E+03
  4.97608E+03  2.74040E+03  4.53694E+03 -2.35260E+01  4.33383E+02 -2.69902E+03  4.71533E+03 -3.18706E+03
  8.74264E+03 -3.96150E+03  1.59156E+04  5.53554E+03  9.05888E+03  3.83162E+03  8.40689E+03  1.60147E+04
  7.44690E+02  2.25543E+04 -1.08960E+04  1.32539E+04 -2.22098E+04  5.68182E+03 -1.62384E+04 -6.63457E+03
 -9.47317E+03 -1.64074E+04 -1.30439E+03 -9.93045E+03  5.04783E+03 -5.03291E+03 -5.44490E+02  2.00006E+02
  1.51229E+03 -5.53229E+03  5.45653E+03 -3.35845E+03  2.43426E+03 -9.11052E+02 -6.41045E+02 -1.32744E+03
  1.01996E+04  8.57925E+02  5.27148E+03  7.01452E+03  4.48164E+03  7.67585E+03 -5.00209E+03  6.77143E+03
 -1.25393E+04 -1.01519E+03 -1.98805E+03 -6.21427E+03  2.81671E+03 -9.58498E+03  6.97510E+03 -1.11261E+04
  1.26811E+04 -4.04208E+03  1.88591E+04  5.74740E+03  1.07799E+04  1.07551E+04  2.00085E+02  1.12690E+04
 -1.02087E+04  1.01014E+04 -9.72117E+03  6.37171E+03  3.50363E+03  4.44520E+02  4.46567E+02 -4.34956E+02
  3.60469E+03  2.21001E+02 -3.38987E+03  7.33527E+03 -6.61201E+03 -6.14293E+01 -5.74963E+03  4.05949E+02
 -2.49994E+03 -6.54603E+03 -2.00369E+03 -1.07607E+04  7.59162E+03 -1.03267E+04  1.00627E+04  2.73710E+03
  7.85423E+03  8.85202E+03  4.45125E+03  6.17332E+03 -3.21403E+03  6.57230E+03 -7.36320E+03  2.08332E+03
 -1.21072E+04 -8.86763E+02 -1.06691E+04 -3.17586E+03 -3.87194E+03 -1.27629E+03  2.31703E+03 -7.11352E+03
  6.34604E+03  1.02068E+02  4.04829E+03  6.48974E+03  4.15841E+03 -1.11979E+02 -2.87338E+02 -3.53973E+03
  2.16077E+03 -3.61322E+03  5.50499E+03  5.65493E+03  6.31744E+03  2.67700E+03  4.99117E+03  5.02509E+03
 -5.97534E+02  6.69188E+03 -2.10404E+03  4.87861E+03 -5.02921E+03  8.40672E+02 -1.04527E+04 -1.67752E+02
 -1.04765E+03 -8.38348E+03  5.50723E+03 -1.36398E+04  3.43017E+03 -8.85737E+03  4.55228E+03 -1.35678E+03
  8.66021E+03 -8.85077E+02  4.33662E+03  1.96489E+03 -2.49244E+03  1.51027E+03 -3.90050E+03 -3.06215E+03
 -1.02248E+03 -4.10762E+03  5.28765E+03 -3.22355E+03  4.10804E+03  6.31874E+01  4.47629E+03 -4.37697E+03
  1.89667E+03  2.27021E+03 -7.85051E+02  2.76828E+02  2.22782E+03 -3.86702E+03 -1.19421E+03  1.33500E+03
 -2.73675E+02 -4.87832E+03  3.69158E+03  7.98602E+01  1.93590E+03  2.63526E+03 -6.41213E+03  4.00250E+03
 -2.50477E+03  2.56957E+03 -1.10466E+04  1.73396E+03 -2.14265E+03 -3.87591E+03 -2.78287E+03 -1.92454E+03
 -5.92768E+02 -3.16904E+03 -1.38266E+03  1.01733E+03  8.25265E+02  2.35447E+03 -3.63387E+03  1.27546E+03
 -3.97788E+03  2.62375E+02  4.74953E+02 -5.85068E+03 -2.12772E+03 -6.47118E+03 -1.08365E+03 -3.86527E+03
  4.02197E+03 -5.38097E+02 -2.28353E+03  1.39262E+03  3.33991E+03  8.83917E+02 -5.75659E+01  5.35442E+03
 -2.52859E+03  1.04182E+03 -3.06199E+03 -2.47496E+03 -5.46548E+03 -2.79003E+03  1.38441E+03 -8.70980E+03
  9.17072E+03 -1.28717E+03  2.12569E+03  1.37858E+03 -1.37935E+03  1.07419E+04  4.98454E+03  9.47426E+03
 -2.41549E+03 -7.31502E+02 -1.11084E+04  1.10054E+03 -6.15827E+03 -5.53947E+03  3.62344E+03 -5.39989E+03
  8.19081E+03 -2.90102E+03  5.33822E+03 -3.58012E+02  5.82180E+03  3.06936E+03 -7.88577E+03  1.80743E+03
 -4.54787E+03  4.50284E+03 -4.66161E+03 -4.45176E+03  4.09863E+03  2.15520E+03 -5.39752E+02  7.60223E+03
  2.42419E+02  5.03187E+03 -7.87986E+03  6.25184E+02 -7.24720E+03 -1.37692E+03 -8.22022E+03 -3.00215E+03
 -9.65121E+02 -1.03454E+04  2.65419E+03 -8.40573E+03  6.22078E+03 -5.91171E+03  9.43286E+03 -1.05540E+03
  7.66123E+03  4.87477E+03  4.15069E+03  5.80978E+03  9.40046E+02  4.69232E+03 -1.89786E+03  4.04242E+03
 -1.49138E+03 -3.17850E+03  4.27220E+03  1.58224E+03  1.15041E+03  1.51059E+03 -1.34312E+03  4.65827E+02
  1.43390E+02 -1.46817E+03 -5.63619E+03  3.45578E+03 -9.36931E+02  3.01495E+02  2.20305E+03 -7.33558E+03
  5.48156E+03 -2.17228E+02  3.31520E+03 -2.10163E+03 -4.31385E+02  8.00152E+03 -9.21957E+02  3.62313E+03
  2.15848E+03  5.50511E+03 -2.29285E+03  3.16709E+03 -3.77065E+03 -5.34066E+03 -5.97400E+03 -1.00735E+04
  3.04191E+03 -7.80745E+03  1.86859E+03 -6.49514E+03 -1.44065E+03 -4.92953E+03  4.96602E+03  1.06495E+02
  3.60391E+02 -4.98835E+02 -5.01674E+02  5.48457E+03 -6.20969E+01 -3.13188E+03 -3.35807E+03 -1.15412E+03
  4.42227E+03 -1.46279E+03  5.62532E+03 -6.68362E+03 -4.78802E+03  3.47729E+03 -2.09928E+03  3.50139E+03
  4.41648E+03  3.31954E+03 -5.40087E+03  5.76375E+03 -9.53825E+03 -5.07391E+03 -8.42690E+02 -5.58234E+03
  5.38431E+03 -4.89450E+03 -1.80088E+03 -2.73057E+03  2.55739E+03 -2.66281E+03  6.27908E+03  7.01311E+03
  4.74062E+03 -6.30556E+02 -2.21002E+03  2.38289E+03 -4.62652E+03  3.85011E+03 -6.80439E+02  3.23960E+03
 -2.05484E+03 -2.01671E+03 -1.60546E+03  1.31834E+03  6.19315E+01 -1.52897E+03 -5.28902E+03  1.96465E+03
 -3.00129E+03 -1.07578E+03 -2.75165E+02 -4.06395E+03  5.55130E+03 -1.66993E+01  2.34868E+03  1.01033E+03
  4.91783E+03  1.78446E+03  1.12586E+03  1.93846E+03 -2.19841E+02  5.13959E+03  4.08035E+02 -4.47253E+03
