 $NMID ID='MM_0lb_SNR50_14hz_g60_65.RAW', FMTDAT='(8E13.5)'
 TRAMP=1., VOLUME=1. $END
  3.09508E+05 -1.89133E+02  3.40252E+05  2.52169E+05  8.70457E+04  3.38066E+05 -1.34744E+05  2.49694E+05
 -1.85032E+05  8.21974E+04 -1.10515E+05 -3.66674E+04  2.01823E+03 -4.66177E+04  5.08665E+04 -3.91095E+03
  3.42363E+04  5.23071E+04 -1.32839E+04  7.29449E+04 -5.70355E+04  6.62320E+04 -8.37251E+04  3.57290E+04
 -7.74424E+04 -8.60391E+03 -5.47370E+04 -5.13366E+04 -1.36450E+04 -6.67550E+04  2.51484E+04 -4.52069E+04
  3.95996E+04  9.15769E+03  9.27955E+03  5.02698E+04 -3.47885E+04  4.65061E+04 -6.25692E+04  1.56779E+03
 -5.28280E+04 -6.26288E+04 -1.04482E+04 -7.55682E+04  3.12232E+04 -5.59347E+04  4.89380E+04 -1.70764E+04
  4.74248E+04  1.26788E+04  2.90838E+04  2.70089E+04  1.56514E+04  3.10099E+04 -4.82236E+03  2.12670E+04
 -2.06889E+04  1.69501E+04 -1.74325E+04 -3.89145E+03  7.72751E+03 -8.13538E+03  1.97691E+04  1.33932E+04
  9.16725E+03  3.49932E+04 -3.53899E+04  3.52097E+04 -5.88710E+04  1.82803E+03 -5.59601E+04 -4.52432E+04
 -9.02017E+03 -6.38269E+04  3.32857E+04 -4.34841E+04  6.21927E+04 -3.58062E+03  3.62867E+04  3.53536E+04
 -9.51975E+03  3.76607E+04 -3.09291E+04  1.68397E+04 -3.11876E+04 -2.96779E+03 -1.57455E+04 -3.24379E+03
 -7.05861E+03 -1.81782E+04 -2.53593E+03 -2.01213E+04  7.77474E+03 -2.29550E+04  1.38379E+04 -1.47845E+04
  9.67835E+03  6.27782E+02 -2.74327E+03  1.27142E+04 -2.28208E+04 -6.47211E+03 -8.34816E+03 -3.84991E+04
  2.45091E+04 -4.59268E+04  5.11634E+04 -1.51446E+04  4.53244E+04  1.99546E+04  1.85240E+04  4.51592E+04
 -1.63466E+04  3.20569E+04 -2.56719E+04  6.00032E+03 -9.64471E+03 -2.86501E+04  2.31471E+04 -3.79387E+04
  4.53824E+04 -1.03898E+04  3.88282E+04  2.51444E+04  2.33754E+04  4.40130E+04 -5.65208E+03  5.39076E+04
 -2.77463E+04  3.45876E+04 -4.44572E+04  9.46416E+03 -4.47321E+04 -1.72183E+04 -2.31174E+04 -3.94292E+04
  7.39617E+03 -3.61104E+04  2.76947E+04 -1.98541E+04  2.36505E+04  1.01964E+04  4.05610E+03  2.25944E+04
 -7.44602E+03  7.49682E+03 -1.52955E+04 -1.83956E+03  5.32724E+03 -1.25367E+04  1.41205E+04  5.25129E+03
  1.80660E+04  2.24097E+04 -4.64258E+03  2.89104E+04 -2.35738E+04  1.26847E+04 -2.70433E+04  1.10510E+03
 -2.20633E+04 -2.14887E+04 -5.65818E+03 -1.75235E+04 -3.19640E+03 -2.20267E+04  1.36813E+04 -1.94948E+04
  2.59121E+04 -1.07712E+04  3.50313E+04  4.01808E+03  2.36511E+04  2.03829E+04  3.94324E+03  3.88292E+04
 -1.96603E+04  3.16082E+04 -2.85489E+04  1.41861E+04 -1.76556E+04 -8.86850E+03 -1.26389E+03 -1.25216E+04
  5.93186E+03 -2.54927E+02 -7.00010E+03  8.45878E+03 -1.81624E+04  7.62083E+03 -1.60788E+04 -5.23327E+03
 -1.05517E+04 -1.96590E+04  3.50866E+03 -2.81408E+04  1.16011E+04 -1.60376E+04  1.85085E+04 -9.05355E+03
  1.14681E+04  1.38033E+04 -1.85925E+03  2.04977E+04 -1.28659E+04  1.61547E+04 -2.13476E+04 -6.03686E+03
 -1.26519E+04 -1.95293E+04 -2.71740E+03 -2.37342E+04  1.32268E+04 -1.60881E+04  1.71522E+04 -5.42514E+03
  1.82363E+04  1.89222E+03  1.47202E+04  8.91446E+03  1.04195E+04  3.89465E+03  1.36200E+04 -9.83135E+02
  1.62040E+04  6.17077E+03  2.22616E+04  1.16444E+04  1.31234E+04  3.53466E+04 -4.57649E+03  3.69473E+04
 -1.59697E+04  3.21064E+04 -3.42027E+04  2.00554E+04 -3.48084E+04 -5.09034E+03 -2.93968E+04 -1.81567E+04
 -1.54215E+04 -3.34481E+04  1.43612E+04 -2.98763E+04  2.26621E+04 -1.05285E+04  2.55378E+04  1.60277E+03
  3.13671E+03  1.11248E+04 -1.45158E+04  1.71900E+04 -1.69907E+04 -7.00900E+02 -9.81078E+03 -1.00124E+04
  1.05368E+03 -1.46856E+04  8.29061E+03 -1.10469E+04  1.28433E+04 -8.37256E+02  2.30083E+03  3.82538E+03
 -7.31613E+03  3.13436E+03 -9.82459E+03 -7.82734E+03 -2.85180E+03 -1.67464E+04  1.19079E+04 -2.13892E+04
  1.43758E+04 -1.02321E+04  2.60515E+04  5.92499E+03  1.43125E+04  1.20021E+04  1.04866E+04  1.92094E+04
 -5.95778E+03  2.59553E+04 -1.54617E+04  1.62938E+04 -2.26465E+04  3.54350E+03 -1.20663E+04 -3.75804E+03
 -3.41924E+03 -2.81077E+03 -1.40689E+03  2.71851E+03 -1.35633E+03  2.68998E+03 -4.84361E+03  9.44589E+02
 -8.55757E+03  3.10441E+03 -1.34853E+04 -1.00735E+04 -4.18836E+03 -1.29264E+04  2.60289E+03 -1.46768E+04
  4.23740E+03 -6.54446E+03  2.08632E+03  3.33989E+03  3.33695E+03  7.05874E+03 -3.68991E+03 -1.16960E+03
 -7.64541E+03 -3.14315E+03  1.23728E+02 -1.01811E+04  4.34135E+03 -1.31731E+04  1.16456E+04 -7.44910E+03
  1.92942E+04 -1.20420E+03  1.15922E+04  1.26914E+04  3.98214E+03  1.05708E+04 -3.11013E+03  1.10325E+04
 -7.23196E+03  5.88684E+03 -4.75417E+03 -3.73049E+03  1.01913E+03  2.49482E+03  3.50000E+02 -4.16849E+03
  5.50236E+03  4.32110E+03 -2.79911E+03  1.19742E+04 -1.02640E+04  9.33792E+03 -1.44978E+04  5.98104E+03
 -6.43752E+03 -7.75639E+03  1.31517E+03 -1.50738E+04  7.18635E+03 -7.81844E+03  9.89344E+02 -1.71799E+03
  3.01547E+03  3.73747E+03 -4.11484E+03  8.30669E+03 -7.45490E+03  2.07379E+03 -6.10880E+03 -4.16331E+03
 -6.68773E+03 -8.53904E+03  5.18141E+03 -1.71383E+04  8.11031E+03 -8.01950E+03  9.95744E+03  1.93769E+03
  1.06747E+04  5.58355E+03  3.96517E+01  7.62787E+03 -2.15047E+03  6.52409E+03 -5.51345E+03  4.20560E+03
 -6.57533E+03 -6.71672E+03 -3.90881E+03 -6.47742E+03  3.66186E+03 -2.15970E+03  7.34395E+03 -3.58891E+03
  4.89729E+03  1.80238E+03 -2.76890E+02  5.32182E+03 -1.87995E+03 -1.61168E+03 -3.08387E+03 -3.95202E+03
  6.65990E+03 -2.53018E+03  1.11354E+04  1.42482E+03  9.03896E+03  4.81126E+03  7.40962E+03  1.36027E+04
  5.51650E+02  1.63826E+04 -1.85903E+04  9.41391E+03 -1.71927E+04  4.28233E+03 -1.38290E+04 -7.77581E+03
 -1.01759E+04 -1.47227E+04  1.03256E+02 -1.51474E+04  5.89020E+03 -5.77569E+03  5.55181E+03 -7.83281E+03
  3.13208E+03 -8.35495E+03  2.94106E+03 -3.95564E+03  3.94787E+03 -1.00096E+03  6.10172E+03 -3.05994E+03
  7.40073E+03  4.07450E+03 -1.19912E+03  1.04032E+04 -6.24374E+03  1.26179E+04 -6.90257E+03  7.48119E+03
 -9.19679E+03  1.18745E+03 -5.13815E+03 -9.31084E+03  1.28766E+03 -8.07899E+03  8.43872E+03 -1.42412E+04
  9.85992E+03 -9.29198E+03  1.20051E+04  3.83659E+02  7.85809E+03  1.25241E+04  5.15693E+03  1.30914E+04
 -5.63929E+03  1.30366E+04 -5.01285E+03  1.05231E+03 -5.04763E+03  2.00529E+03  5.77391E+02  2.23335E+03
 -1.12999E+03  1.02176E+03 -5.06039E+03  2.41507E+03 -5.42658E+03 -3.79447E+03 -6.99667E+03 -4.92280E+03
 -6.41019E+03 -6.66535E+03  5.21239E+03 -8.50863E+03  7.58257E+02 -8.72865E+03  1.09270E+04 -1.28999E+03
  8.63489E+03  3.46653E+03  1.43566E+03  5.36210E+03 -3.98732E+03  1.28343E+04 -5.40223E+03  5.46248E+03
 -8.47717E+03  6.85319E+02 -3.72090E+03 -1.25395E+04 -4.96102E+01 -4.42803E+03  8.30218E+03 -7.09006E+03
  5.86191E+03  3.01839E+03  7.16323E+02 -3.24713E+02  2.41515E+03  4.26990E+03  3.23403E+03 -1.16339E+03
  4.60347E+03  2.76675E+03  1.37967E+03  5.98662E+02  1.01984E+03  3.42481E+03  4.72442E+03  2.73700E+03
 -4.84398E+03  4.90131E+03 -3.41598E+03  7.89499E+03 -7.08084E+03 -3.06063E+02 -1.00953E+04 -6.74067E+03
 -4.40150E+03 -5.03516E+03 -2.85691E+03 -1.61031E+04  5.59421E+03 -7.33280E+03  5.38349E+03 -1.14225E+03
  8.48847E+03  9.87918E+03  1.19146E+03  2.48385E+03 -3.35547E+03  3.91930E+03 -2.21353E+03 -3.26735E+03
 -1.70855E+03 -2.63765E+03 -3.91510E+03  1.47712E+03  2.79686E+03  9.42231E+01  6.17911E+03 -6.99380E+02
 -6.30689E+02  1.01188E+03  3.00178E+03  3.62815E+02  2.88412E+03  3.10783E+03 -1.50117E+03 -2.17136E+02
  1.91819E+03  1.86721E+03  1.17242E+03  5.03867E+03  1.44484E+03  1.01635E+04 -7.92373E+02  6.29420E+03
 -3.93714E+03 -2.67067E+03 -6.14062E+03  2.93717E+03 -3.02701E+03 -3.61505E+03 -6.36045E+03 -3.82647E+03
 -5.56137E+02 -4.30765E+03  5.34876E+03 -8.60074E+02 -6.00353E+03  4.56134E+03  1.04438E+03  2.07969E+03
 -1.17090E+03 -8.22478E+02  1.13494E+01  1.59602E+03  3.01229E+03 -5.14551E+03  2.31267E+03 -7.54550E+03
  6.19232E+03 -1.06425E+03  5.89495E+03 -3.25450E+02 -3.12814E+03 -2.03404E+02 -2.25697E+02  5.04528E+03
  2.70237E+03 -4.23988E+03 -2.35338E+03 -1.36207E+03  2.40095E+03 -3.80572E+03  9.59557E+02 -5.95323E+03
  4.39463E+03  2.80922E+03  3.31671E+03  2.15693E+03 -3.94851E+03  1.13429E+03  1.49044E+03  2.78368E+03
 -5.25530E+03  1.10982E+04 -4.29035E+03 -1.51120E+03  1.63535E+03 -1.97952E+03  4.83088E+02 -3.55300E+02
  3.89860E+03  2.55696E+03 -3.11683E+03 -2.49852E+03 -4.63321E+03  2.54318E+03 -3.82247E+02  8.38475E+02
 -1.49066E+03  3.86641E+02 -3.02055E+03 -2.91131E+03 -5.44273E+02 -2.88321E+03 -1.34028E+03  1.25542E+03
  2.28166E+03  4.56274E+03  4.95165E+03 -1.77127E+03 -1.06057E+04  2.19746E+03 -2.51555E+03  3.10950E+03
 -4.69398E+03 -4.58842E+03 -1.03579E+03 -4.31508E+03  5.02160E+03 -4.39373E+03  9.60656E+03  1.29833E+03
  2.59707E+03  1.42933E+02  4.29797E+03  6.27502E+03 -5.05200E+03  1.96409E+03 -4.31074E+03  2.89915E+03
 -2.28239E+03  9.67078E+03 -4.33539E+03 -6.53186E+03 -1.29736E+03  3.94011E+02  1.25369E+02 -1.67813E+03
  1.79667E+02  1.19798E+03 -1.88393E+03 -1.29030E+02  9.65038E+02  6.81624E+02  2.46763E+02  1.22111E+02
  4.91626E+03  1.64056E+03  1.59380E+03 -7.60006E+03  5.24179E+03  2.05893E+03  1.57940E+03  9.87658E+03
 -3.82396E+03  2.08332E+03 -3.64016E+03  4.38063E+03 -4.11857E+03  5.79415E+02  2.35850E+02 -1.98121E+02
 -5.03594E+03  1.00554E+02  1.25035E+03 -6.22984E+03  3.27003E+03 -2.10804E+03  2.60568E+03  4.47035E+03
 -3.39543E+03  4.33027E+03  3.43199E+02  2.88155E+03  1.97532E+03  2.11803E+03 -3.70933E+03 -9.03395E+02
  2.75611E+03  4.30419E+03  4.12271E+03  2.30097E+03  5.22639E+03  1.30232E+03  1.66477E+02  7.89521E+02
 -5.45400E+03  1.29058E+03  1.34393E+02  1.82290E+03 -2.57067E+03 -7.64265E+02 -4.66281E+03  2.86014E+03
  5.31058E+03  1.94109E+03 -5.99577E+02 -3.69695E+03  4.71637E+03  4.35675E+02 -2.96510E+03  8.81780E+02
 -2.78286E+03  1.81859E+03 -2.46642E+02  3.20693E+03 -4.58489E+03 -1.48845E+03  3.39518E+02 -2.06313E+02
 -2.47031E+03  4.31276E+03  2.29414E+02 -2.06433E+03 -2.56881E+02 -8.61054E+02 -4.95241E+02  1.54840E+03
 -4.70858E+03  1.55983E+03  2.21498E+03 -2.74328E+03 -4.26026E+03 -2.15531E+03  3.64663E+03 -4.53061E+03
  5.68461E+02  1.67301E+03 -2.14151E+03  8.19315E+03  1.08321E+03  4.04440E+03 -1.47196E+03 -8.19334E+02
