 $NMID ID='MM_0lb_SNR50_9hz_g40_59.RAW', FMTDAT='(8E13.5)'
 TRAMP=1., VOLUME=1. $END
  3.11266E+05 -6.09037E+03  3.40813E+05  2.50673E+05  8.60095E+04  3.37167E+05 -1.35246E+05  2.50896E+05
 -1.84222E+05  8.36684E+04 -1.07217E+05 -2.70899E+04 -3.11646E+02 -4.92527E+04  4.94892E+04 -4.45349E+03
  3.39630E+04  5.49367E+04 -1.34826E+04  7.67062E+04 -6.44396E+04  6.33606E+04 -8.65029E+04  3.40676E+04
 -8.29840E+04 -1.21333E+04 -5.78220E+04 -6.03574E+04 -1.54495E+04 -7.08731E+04  2.38655E+04 -4.99351E+04
  4.47130E+04  3.27905E+03  4.77048E+03  4.46005E+04 -3.88043E+04  4.21209E+04 -7.06218E+04 -1.48064E+03
 -5.33087E+04 -5.81684E+04 -4.17316E+03 -7.55600E+04  3.63252E+04 -5.94897E+04  4.84667E+04 -1.82211E+04
  5.06401E+04  2.01281E+04  2.80470E+04  1.96907E+04  1.60734E+04  3.24553E+04 -5.07342E+03  2.55769E+04
 -1.98907E+04  1.27644E+04 -1.48878E+04 -1.21118E+03  8.08200E+03 -9.16187E+03  2.31181E+04  1.33801E+04
  1.02301E+04  3.98144E+04 -3.14123E+04  3.87179E+04 -6.53921E+04  2.18081E+03 -6.57005E+04 -4.79135E+04
 -1.39176E+04 -6.83626E+04  4.16825E+04 -4.35640E+04  5.30390E+04 -5.87593E+03  3.71428E+04  3.11872E+04
 -1.14521E+04  4.38865E+04 -2.72708E+04  2.35075E+04 -3.48328E+04 -4.88887E+03 -2.41849E+04 -1.16840E+04
 -1.07230E+04 -1.05516E+04  3.17271E+03 -1.81198E+04  4.69588E+03 -1.68725E+04  1.46315E+04 -1.45187E+04
  9.28371E+03  1.04159E+04 -1.05678E+04  1.68797E+04 -2.00571E+04 -3.53278E+03 -8.60931E+03 -3.42521E+04
  2.40296E+04 -4.08943E+04  4.40250E+04 -1.90530E+04  5.17752E+04  1.80056E+04  1.48504E+04  5.08446E+04
 -1.45170E+04  3.56450E+04 -2.54609E+04  2.82039E+03 -1.05374E+04 -2.89249E+04  2.39274E+04 -3.82546E+04
  4.36809E+04 -1.20266E+04  4.14091E+04  2.77344E+04  2.33806E+04  5.06459E+04 -8.31108E+03  5.98192E+04
 -3.75579E+04  3.79388E+04 -4.41539E+04  1.31856E+04 -5.00825E+04 -2.02006E+04 -2.57422E+04 -3.83828E+04
  7.11418E+03 -4.41217E+04  3.62991E+04 -1.47523E+04  2.51784E+04  1.28444E+04  2.06444E+03  2.25551E+04
 -1.13277E+04  7.43690E+03 -5.79076E+03 -9.56718E+03  6.89856E+03 -9.58330E+03  2.18200E+04  3.71297E+03
  1.79734E+04  2.43317E+04 -2.45601E+03  2.50021E+04 -2.87087E+04  1.21769E+04 -2.95896E+04 -1.76647E+03
 -2.80670E+04 -1.47507E+04 -3.67143E+03 -2.75193E+04  7.26350E+03 -2.98895E+04  2.24375E+04 -2.21661E+04
  3.54578E+04 -1.41609E+04  4.07150E+04  4.66679E+03  2.89627E+04  1.72913E+04  5.82389E+03  3.83759E+04
 -2.72932E+04  3.32936E+04 -3.08732E+04  1.22494E+04 -1.86960E+04 -1.39707E+04 -3.10938E+03 -1.58862E+04
  3.43184E+03 -7.01552E+03 -4.13745E+03  5.81795E+03 -2.18155E+04  1.16675E+04 -1.95074E+04 -8.59817E+02
 -1.39987E+04 -2.46664E+04  5.51185E+03 -2.57846E+04  2.54395E+04 -1.52766E+04  2.47371E+04  4.08827E+03
  1.20607E+04  1.12411E+04 -7.36857E+02  2.15470E+04 -1.78833E+04  1.01820E+04 -2.45891E+04 -1.06033E+03
 -2.06338E+04 -2.25488E+04 -4.68461E+03 -2.98842E+04  9.16698E+03 -2.00714E+04  2.23323E+04 -1.57521E+04
  2.29491E+04 -1.05084E+03  1.76414E+04  7.65830E+03  1.25834E+04 -5.35029E+03  1.43012E+04  1.77728E+03
  1.98439E+04  1.55844E+02  3.09940E+04  1.45988E+04  2.12701E+04  3.74121E+04 -8.48962E+03  3.81347E+04
 -2.57912E+04  3.22045E+04 -4.42284E+04  2.00998E+04 -4.22930E+04 -6.50212E+03 -3.43228E+04 -2.87458E+04
 -1.83735E+04 -3.99426E+04  1.02213E+04 -3.10013E+04  2.71940E+04 -1.21838E+04  1.94853E+04  9.52681E+03
  5.59136E+03  1.82633E+04 -1.06110E+04  1.21391E+04 -1.87995E+04 -3.50103E+03 -1.50431E+04 -1.32266E+04
 -5.25864E+03 -1.99935E+04  5.15702E+03 -9.85815E+03  1.39564E+04  1.63347E+03  1.04021E+04  6.57986E+03
 -4.83517E+03  2.08584E+03 -9.92412E+03 -1.18325E+04 -6.40309E+03 -1.92389E+04  1.71077E+04 -1.74295E+04
  1.80690E+04 -9.08042E+03  2.56871E+04  4.43103E+03  2.79619E+04  2.20350E+04  6.40529E+03  2.64062E+04
 -4.71862E+03  2.80297E+04 -2.25742E+04  2.21317E+04 -2.54046E+04  7.17213E+03 -8.21687E+03 -5.53418E+03
 -1.79914E+03 -6.24602E+03 -3.32423E+03  2.19650E+03  1.83720E+03 -3.39777E+03 -9.09126E+03  3.29770E+03
 -1.31782E+04 -3.16273E+03 -1.16383E+04 -1.25007E+04  9.81318E+02 -2.42462E+04  3.86392E+03 -1.66133E+04
  1.06826E+04 -4.59990E+03  5.81878E+03  9.40934E+03  3.46651E+03  3.53568E+03 -5.39477E+03  2.79930E+03
  2.40374E+03 -5.81963E+03  3.18143E+03 -8.09510E+03  1.23922E+04 -1.65261E+04  1.79280E+04 -7.76432E+03
  1.94076E+04  6.95512E+03  1.17389E+04  1.87864E+04 -1.74260E+03  1.03574E+04 -8.34680E+03  1.47689E+04
 -1.40134E+04  3.62240E+03 -2.31478E+03  3.68471E+03  5.15108E+02 -5.33082E+03  1.14657E+04 -2.58980E+02
  1.18585E+04  7.92278E+03 -6.40611E+03  6.31495E+03 -5.04387E+03  1.62667E+04 -1.29425E+04 -1.84595E+03
 -7.22194E+03 -7.69082E+03 -2.64665E+03 -1.42206E+04  1.01954E+04 -6.33856E+03  2.53732E+03  4.27445E+03
  4.23989E+03  9.43934E+03 -8.62868E+03  1.30760E+04 -1.29445E+04  7.35612E+03 -1.85858E+04 -6.10927E+03
 -4.70105E+03 -1.89615E+04  5.45206E+03 -1.79450E+04  1.30607E+04 -7.23044E+03  1.67861E+04 -1.84809E+02
  6.51086E+03  7.55160E+03 -2.83519E+03  2.37388E+04 -1.11229E+04  1.08734E+04 -1.14300E+04 -2.08207E+03
 -1.14428E+04 -5.56358E+03 -4.63884E+03 -1.22362E+04  9.39062E+03 -9.12728E+03  6.85935E+03 -3.72007E+03
  4.20971E+03 -4.59221E+02 -2.33416E+03 -3.28804E+02 -4.68315E+03  5.75315E+02 -1.90078E+03 -1.03800E+03
  1.05435E+04 -9.07991E+03  1.46728E+04 -1.68409E+03  1.56953E+04  8.92941E+03  1.52007E+04  1.52234E+04
  3.27153E+03  2.49756E+04 -2.03509E+04  1.91315E+04 -2.80404E+04  7.31275E+03 -1.94974E+04 -1.98057E+04
 -7.93506E+03 -1.40912E+04  1.99032E+03 -1.40385E+04 -1.56580E+03 -6.18348E+03  5.95161E+03 -4.23203E+03
  2.72109E+03  1.17580E+03  5.14488E+03 -6.40350E+03  5.45921E+03  2.01744E+03  7.45081E+03  7.84304E+02
  1.27350E+04 -1.14649E+03  2.91027E+03  1.51030E+04  3.46165E+03  4.34066E+03 -1.68321E+04  7.92598E+03
 -1.14055E+04 -2.00022E+03 -1.27781E+04 -6.43139E+03 -9.16462E+03 -1.05292E+04  7.29434E+03 -1.08260E+04
  9.85752E+03 -1.59813E+03  2.00497E+04  2.84498E+03  1.67624E+04  1.44851E+04  1.84625E+03  1.90126E+04
 -3.87803E+03  2.15868E+04 -5.44954E+03  6.94625E+03 -9.07825E+03 -1.01164E+03 -1.28575E+03 -2.22385E+03
  6.45518E+02  5.39316E+03 -4.80027E+03  4.83688E+03 -7.22193E+03 -1.73300E+02 -5.75265E+03 -4.62153E+03
 -3.51505E+03 -3.11186E+03 -4.12406E+03 -9.51587E+03  6.18948E+03 -4.30943E+03  1.19351E+04 -1.59438E+04
  1.21600E+04  6.27626E+03  1.82488E+03  1.08658E+04 -1.25690E+03  1.37935E+04 -2.68467E+03  5.69530E+03
 -1.31149E+04  1.98389E+03 -1.10762E+04 -8.70761E+03 -4.26824E+03 -7.65817E+03  6.66228E+02 -1.22023E+04
  4.76756E+03 -7.78082E+03 -3.19235E+03 -8.52148E+02  6.50719E+03  9.27321E+03  2.76263E+03  5.33756E+01
  9.36522E+03 -1.93480E+03 -4.75791E+02 -2.66764E+03  9.46119E+03 -1.38970E+03  4.49985E+03  1.07626E+04
 -4.96005E+03  1.90943E+04 -8.11265E+03  1.28838E+04 -8.91135E+03 -1.24443E+03 -1.24865E+04 -5.08932E+03
 -2.67571E+03 -1.16167E+04 -2.42173E+03 -2.00778E+04  8.06687E+03 -1.26317E+04  1.32648E+04 -8.02744E+03
  1.13983E+04  3.17054E+03  3.40068E+03  3.71458E+03 -1.49746E+03  5.08810E+03 -5.05740E+03 -1.44672E+03
 -2.24991E+03 -6.17839E+03  4.29599E+03 -5.53410E+03  9.36202E+03 -1.12121E+03  8.29667E+03  3.02145E+03
  1.78674E+03  8.43792E+03 -1.37143E+03  3.11235E+03 -1.17689E+03  6.17186E+03  5.26730E+03 -3.92192E+03
  2.00000E+03 -7.11374E+03  8.53768E+03  6.69120E+03  1.35909E+03  9.48490E+03  5.72292E+02  7.87091E+03
 -9.69502E+03  9.92247E+03 -1.04707E+04 -4.53629E+03 -1.11826E+04 -3.81181E+02 -4.11348E+03 -5.72254E+03
  3.52849E+03 -1.14438E+03  2.40888E+03 -4.50951E+03 -9.70102E+02  4.13187E+02 -3.28221E+03  2.88731E+03
 -1.45185E+03 -2.39030E+03 -1.01916E+04 -7.89048E+03 -1.25598E+04 -4.93764E+03  4.01761E+03 -1.06438E+04
  7.91000E+03 -3.63948E+03  2.50380E+03  2.59194E+03  7.21130E+03  3.09444E+03 -3.68454E+03  5.72614E+03
 -3.41056E+03  8.14946E+03 -3.64807E+03 -3.90473E+03  1.67007E+03 -7.24766E+03  4.57436E+03 -3.96641E+03
  1.40256E+04  1.66385E+03  7.11665E+03  1.11717E+04  1.16736E+04  8.33774E+03  2.81614E+01  1.45577E+04
 -6.99628E+03  9.07113E+03 -6.96564E+03 -6.15645E+02 -3.33646E+03 -7.55453E+03  2.03683E+03 -5.09831E+03
  7.85351E+03 -1.03964E+03  1.07567E+04 -3.72352E+02 -8.92719E+02  1.35895E+03 -2.54616E+02  3.17899E+03
  3.11408E+03  1.34734E+03 -3.58762E+03  8.85306E+02 -1.50417E+03 -3.99705E+03 -4.93373E+02  6.11126E+03
 -3.76783E+03  3.13867E+03 -9.39958E+03  1.44751E+03 -1.50400E+04 -1.08455E+03 -8.62021E+03 -1.07345E+04
 -1.01933E+04 -1.52850E+04 -1.74475E+03 -1.10598E+04  6.23250E+03 -1.66884E+04  1.36924E+04 -1.00382E+04
  9.79851E+03  7.37894E+03  6.21262E+03  5.61247E+03 -6.50288E+01  1.06811E+04 -3.12449E+03  2.62618E+03
 -6.27764E+03  1.72816E+03 -4.51704E+03  2.23343E+03  6.65511E+02 -4.50808E+03 -5.62789E+03  3.07282E+03
 -2.60419E+03  3.27174E+02 -3.95743E+03 -3.74153E+03 -2.90559E+03 -4.07136E+03 -2.44097E+03 -2.40880E+03
  7.45941E+03  2.43414E+02  7.47597E+03  1.15866E+02  6.37113E+03  9.42268E+03 -2.41918E+03  4.56032E+03
 -7.98866E+03  1.14785E+04 -1.61139E+03  4.18711E+03 -7.59668E+03 -2.74167E+03 -1.03049E+04 -7.71329E+03
 -4.38855E+03 -8.54872E+03  1.85407E+02 -1.45364E+03  1.39464E+04 -3.81293E+03  7.31281E+03  2.48097E+02
  3.59251E+03  9.33913E+02  2.23097E+03  3.69382E+03 -5.46792E+03  4.63419E+03  9.04211E+02 -1.63461E+03
 -1.72429E+02 -2.85002E+03  7.14490E+03 -1.94819E+03  2.72320E+03 -2.02500E+03 -5.08647E+03  7.21091E+03
 -5.43729E+03  6.34705E+03 -1.10214E+04  2.15333E+03 -9.53334E+03 -7.21461E+03 -4.46839E+03 -8.70523E+03
  1.09829E+04 -4.58954E+03  7.64544E+03 -2.96878E+03  6.79259E+03  1.68450E+02  3.41013E+03  6.53257E+03
  4.42658E+03  2.94571E+03 -3.77363E+03  5.58669E+03 -7.33501E+03  3.00606E+03 -3.06027E+03  1.80470E+03
  4.73064E+03  2.61449E+02 -5.77390E+03 -6.48622E+02  2.03427E+02 -7.58253E+02 -1.03657E+04 -4.52424E+03
 -6.11040E+03 -3.77035E+03 -4.32571E+03 -9.71674E+03 -1.93805E+02 -1.18982E+04  5.94822E+03 -3.04163E+03
  6.63118E+03  4.25876E+03 -3.55693E+03  3.34637E+03 -4.94578E+03  1.15805E+04 -2.42223E+03  7.54278E+03
