 $NMID ID='MM_0lb_SNR50_16hz_g45_87.RAW', FMTDAT='(8E13.5)'
 TRAMP=1., VOLUME=1. $END
  3.10667E+05  1.25412E+03  3.39571E+05  2.48674E+05  8.27803E+04  3.36007E+05 -1.28582E+05  2.48519E+05
 -1.89832E+05  8.12789E+04 -1.08405E+05 -2.65637E+04  1.94797E+03 -4.92998E+04  5.08006E+04 -2.15853E+02
  3.35073E+04  4.98694E+04 -1.78289E+04  7.28000E+04 -5.81705E+04  6.01857E+04 -8.15756E+04  2.67725E+04
 -8.33808E+04 -6.85787E+03 -5.77200E+04 -4.56481E+04 -1.64190E+04 -6.73187E+04  2.52111E+04 -4.44286E+04
  3.88712E+04  6.02400E+03  1.49243E+04  4.57024E+04 -3.20322E+04  4.84350E+04 -6.59077E+04 -2.26743E+03
 -5.19426E+04 -5.35269E+04 -3.02537E+03 -7.33568E+04  3.32881E+04 -5.95205E+04  4.61754E+04 -1.85281E+04
  4.16489E+04  1.46950E+04  2.94254E+04  2.47997E+04  1.55130E+04  2.90035E+04 -7.19423E+03  2.84262E+04
 -1.99899E+04  1.09514E+04 -1.78275E+04 -2.96228E+03  3.42907E+03 -3.14730E+03  2.29573E+04  1.14846E+04
  2.93537E+03  3.22409E+04 -2.85138E+04  3.24741E+04 -6.48990E+04  1.57266E+03 -5.15820E+04 -4.44489E+04
 -1.43466E+04 -6.28956E+04  3.75792E+04 -4.56548E+04  6.16787E+04 -3.85525E+03  3.14172E+04  3.05152E+04
 -8.49669E+03  3.57482E+04 -2.57730E+04  1.45678E+04 -2.89666E+04 -4.95625E+03 -1.62492E+04 -8.22585E+03
 -3.65268E+03 -1.18378E+04  2.04708E+03 -1.46269E+04  8.30172E+03 -1.91952E+04  9.59452E+03 -1.43218E+04
  1.32485E+04  3.36263E+03 -7.31125E+03  1.39855E+04 -2.07621E+04 -6.08892E+03 -7.09904E+03 -3.10597E+04
  2.45744E+04 -4.11059E+04  5.11648E+04 -1.75550E+04  4.40799E+04  2.31720E+04  1.43277E+04  3.72833E+04
 -9.70336E+03  2.77410E+04 -2.59244E+04  2.61391E+03 -1.05717E+04 -2.87245E+04  2.26309E+04 -3.33705E+04
  3.92221E+04 -1.18983E+04  2.95435E+04  2.72826E+04  1.72559E+04  4.25121E+04 -7.68923E+03  4.55853E+04
 -3.12686E+04  3.10748E+04 -3.70337E+04  1.19867E+04 -4.18690E+04 -1.41688E+04 -2.49403E+04 -3.11082E+04
  2.06906E+03 -3.08596E+04  2.56057E+04 -1.21946E+04  2.47686E+04  1.37051E+04  8.09676E+03  2.16615E+04
 -7.19901E+03  6.31085E+03 -1.04354E+04 -7.31696E+03  4.21319E+03 -9.19629E+03  1.59984E+04  7.46050E+03
  1.57347E+04  2.36464E+04 -4.00689E+03  2.29534E+04 -2.24239E+04  1.25283E+04 -3.15469E+04 -3.92771E+03
 -1.76171E+04 -1.56442E+04 -6.14726E+03 -2.03971E+04  8.33997E+03 -1.39690E+04  1.51059E+04 -1.16018E+04
  2.42407E+04 -1.34536E+04  2.70959E+04  2.92695E+03  2.49698E+04  1.85557E+04  4.64830E+03  3.43722E+04
 -2.33822E+04  2.91855E+04 -3.14498E+04  6.49740E+03 -2.19670E+04 -1.00583E+04 -1.78139E+03 -1.04592E+04
  3.32246E+03  6.46516E+02 -5.11140E+03  6.63602E+03 -1.30131E+04  7.04872E+03 -1.32910E+04 -4.54586E+03
 -9.66955E+03 -1.76769E+04  3.94752E+03 -1.85715E+04  1.10423E+04 -1.61313E+04  1.75470E+04  1.25569E+03
  8.92714E+03  1.51728E+04 -5.52186E+03  1.76228E+04 -1.18086E+04  7.82066E+03 -2.28123E+04  2.20700E+03
 -7.82053E+03 -1.46459E+04 -4.14530E+03 -2.60095E+04  1.07882E+04 -1.64761E+04  1.71196E+04 -8.08660E+03
  1.40849E+04 -7.54578E+02  1.17516E+04  6.34496E+03  7.54424E+03  7.23818E+02  5.97582E+03 -3.93991E+03
  1.61101E+04 -1.71145E+03  1.85324E+04  8.09595E+03  1.06270E+04  2.30997E+04 -1.80882E+03  2.72556E+04
 -1.72476E+04  2.47785E+04 -2.72792E+04  1.24016E+04 -2.98976E+04 -7.06907E+03 -2.28201E+04 -1.19997E+04
 -8.66352E+03 -2.27687E+04  6.69124E+03 -2.35931E+04  1.63135E+04 -1.47847E+04  2.13486E+04  2.18842E+03
  7.26926E+03  1.36447E+04 -6.64031E+03  1.13567E+04 -1.85927E+04  2.03506E+03 -1.09175E+04 -7.82161E+03
  2.58662E+02 -1.46954E+04  5.12556E+03 -1.05787E+04  6.53576E+03 -2.33275E+03  4.73699E+03  3.45121E+03
 -1.58784E+03  3.07663E+03 -5.98269E+03 -3.22701E+03  1.76261E+03 -1.38667E+04  9.57129E+03 -1.34460E+04
  1.10976E+04 -4.84642E+03  1.31538E+04  1.94369E+03  1.21862E+04  1.01461E+04  8.00073E+03  1.64068E+04
 -2.34101E+03  2.00537E+04 -8.39199E+03  8.67637E+03 -1.48449E+04  3.86387E+03 -7.20932E+03 -8.90579E+02
 -3.86680E+03 -2.02322E+03  3.82863E+02  2.31175E+03 -6.73115E+01  1.59258E+03 -1.74946E+03  3.82951E+03
 -1.01353E+04 -4.36454E+01 -1.09566E+04 -8.64595E+03 -5.77604E+03 -8.27074E+03  3.51640E+03 -8.52775E+03
  7.47195E+03 -4.44349E+03  4.64930E+03  3.03306E+03 -3.12857E+03  3.90594E+03 -2.45700E+03 -6.26869E+03
 -3.05844E+03 -4.70261E+02 -4.58991E+03 -8.67480E+03  4.42193E+03 -9.73444E+03  1.12996E+04 -3.34708E+03
  1.58341E+04  1.06441E+03  9.78165E+03  9.70344E+03  1.64596E+03  9.73656E+03 -8.20906E+03  1.45550E+04
 -1.06121E+04  5.68928E+03 -9.31083E+02 -3.53524E+03  5.98190E+02 -1.84383E+03  3.24939E+03 -1.53818E+03
  5.74144E+03  1.98101E+03 -2.60810E+03  1.04116E+04 -8.28819E+03  9.14341E+03 -1.02368E+04  4.56068E+03
 -9.07872E+03 -4.65714E+03 -3.65686E+02 -9.92626E+03  3.52302E+03 -7.39860E+03  6.05890E+03  1.24480E+03
  2.85585E+03  4.89665E+03  6.99999E+01  2.13401E+03 -3.49009E+03  1.26174E+03 -6.47506E+03 -1.57786E+03
 -6.19622E+03 -9.16173E+03  7.85368E+02 -6.29485E+03  1.04450E+04 -9.20413E+03  5.73405E+03  6.95418E+02
  4.45743E+03  6.49803E+03 -3.47138E+03  1.55559E+04 -2.67646E+03  3.80517E+03 -5.62125E+03 -8.33720E+02
 -5.77238E+03 -6.75849E+03 -1.21557E+03 -3.19627E+03  2.80488E+03 -6.45348E+03  6.10749E+03 -5.03366E+03
  4.48715E+03  4.84880E+03 -5.65773E+03  8.86870E+02  2.06508E+03 -3.43877E+03  3.02085E+03 -2.55795E+03
  1.52135E+02  2.62259E+02  6.38939E+03  4.97587E+03  7.48589E+03  1.14967E+04  4.35582E+03  9.21550E+03
 -8.81368E+02  8.58266E+03 -1.38252E+04  1.15286E+04 -1.40344E+04  2.81397E+02 -6.93724E+03 -3.02569E+03
 -5.86960E+03 -8.28680E+03 -5.85898E+02 -3.74398E+03  2.53281E+03 -3.91195E+03  4.55231E+03 -4.23294E+03
 -1.96792E+03  2.24018E+03  1.80115E+01 -4.24416E+03  5.00975E+03  9.77113E+02  4.06232E+03  1.28185E+03
  3.52880E+03  2.23460E+02  2.06706E+03 -1.03928E+03 -5.77046E+03 -7.46242E+01 -7.14308E+03  2.66677E+03
 -7.33999E+03 -2.77836E+03  4.33784E+02 -7.08341E+03  1.64687E+03 -5.96908E+03  5.06161E+03 -6.36805E+03
  1.34272E+04 -6.76737E+03  8.05351E+03  2.86783E+03  4.59196E+03  4.03838E+03  2.02841E+02  8.40525E+03
 -8.85913E+03  6.51351E+03 -7.12741E+03  2.67034E+03 -2.18156E+03 -4.39366E+03 -2.34011E+03 -1.06629E+03
  5.28777E+03 -2.13441E+03 -5.10597E+03  4.60285E+03 -6.58240E+03  6.92458E+02 -7.11911E+03 -1.69718E+03
 -3.71235E+03 -9.32632E+03 -2.92164E+03 -3.30989E+03  3.88767E+03 -4.27417E+03  4.25026E+03 -9.98116E+02
  9.23398E+03  5.59909E+03  5.08313E+02  6.12309E+03 -5.48596E+03  3.88929E+03 -4.37532E+03  8.87306E+03
 -2.33514E+03 -6.87935E+02 -8.90770E+03 -3.11166E+03  4.18035E+03 -5.82723E+02  6.82526E+02  9.83980E+02
  3.68290E+03 -2.34506E+03  1.38470E+03  4.94176E+02 -3.06474E+02  3.42300E+03 -1.93588E+03  9.15215E+02
 -2.78752E+00 -1.01480E+03  3.86615E+03  4.85840E+03  3.08290E+03  4.18363E+03  1.48134E+03  7.29886E+03
 -1.46525E+03  2.25288E+03 -3.53774E+03  4.01289E+03 -4.65630E+03  2.37589E+03 -8.17996E+03  1.70136E+03
 -4.02929E+03 -6.32098E+03 -3.31046E+03 -8.86088E+03  4.92351E+03 -2.22141E+03  3.69663E+03 -3.26027E+03
  8.79393E+03 -6.19468E+02  3.42567E+03 -2.38665E+03 -9.85946E+02  6.22746E+03  1.74583E+03 -8.07375E+02
 -4.69455E+03 -1.69018E+03 -2.84644E+03 -1.60669E+03  2.58130E+03 -1.87269E+03  3.22753E+03 -3.16583E+03
  1.25593E+03  3.00755E+02  3.47705E+03 -2.58907E+03 -2.89273E+03 -1.91666E+01  1.79681E+03 -7.92297E+03
  1.73176E+03 -3.73810E+03  6.09884E+03 -1.15195E+02  9.73680E+02  6.40715E+03  2.03905E+03  4.41390E+03
 -9.50214E+02  4.84746E+02 -2.03426E+03  1.81558E+03 -4.16085E+03 -6.12256E+02 -1.24093E+03 -3.88912E+02
 -1.64737E+03 -6.39788E+03  1.38266E+03 -2.11901E+03  8.00561E+02 -5.41547E+02  8.75028E+02  4.93237E+03
 -6.57139E+03  1.89936E+02 -9.55443E+02 -3.96652E+03 -9.63653E+02 -4.35577E+03  1.26737E+02 -5.54384E+03
  3.22951E+03  4.29386E+02 -2.29957E+02  1.88785E+03  2.29195E+03  3.72767E+03 -2.48637E+03  5.67926E+03
 -3.01428E+03  2.59578E+03 -3.58377E+03 -1.58083E+03  6.89291E+02  6.51306E+02  1.38217E+03 -6.63832E+03
  1.27374E+03  3.35443E+02  7.82619E+03 -4.55239E+01  1.30168E+03  1.68347E+03 -4.09878E+02  7.88903E+03
  1.59831E+02 -2.70330E+03 -3.99504E+02 -1.79109E+03 -4.21040E+02 -3.38925E+03 -3.64057E+03 -3.51397E+03
  7.29169E+03 -1.17148E+03 -3.42201E+03  3.32593E+03  4.32929E+03  5.96486E+03 -1.01236E+02  1.14758E+03
 -1.92121E+03 -5.30140E+02 -3.84105E+03  5.71455E+01  5.05470E+02 -2.44373E+03  2.72955E+03  3.81113E+03
 -2.83310E+03  7.63072E+02 -1.65487E+03 -2.01938E+03  6.95421E+02 -1.14289E+03 -4.27818E+03 -1.31545E+03
 -1.51006E+02 -7.12119E+03  2.49607E+03 -2.38197E+03  1.59504E+03 -3.34111E+03  6.15760E+03  1.27952E+03
  5.88517E+03  2.05514E+03  5.12025E+03  2.99972E+03  4.35633E+03  3.48438E+03 -2.68815E+03 -1.64318E+03
 -2.14201E+03  2.12558E+03  2.20021E+03  4.22050E+02  1.21675E+03  1.34718E+03 -7.60631E+03  1.86819E+03
  1.22774E+03 -5.56159E+02 -1.17622E+03  2.94562E+03  2.30750E+01 -3.08887E+03 -4.29501E+02 -2.17119E+03
  5.02135E+03 -3.33157E+03  2.06696E+03 -1.14797E+03  1.46080E+03 -1.23832E+03  1.36421E+03  4.66193E+03
 -2.56726E+03  9.52202E+03  4.27909E+01  1.00160E+02 -4.65911E+03  1.18031E+03 -3.66145E+02 -1.87694E+03
  1.64253E+03  1.12534E+03 -3.91114E+03 -1.69069E+03  1.00613E+03 -8.41403E+02 -2.67306E+03 -1.25732E+03
  5.03428E+03  2.25888E+02  1.26062E+03  2.29688E+03  4.33235E+02 -8.52575E+02  5.38727E+02 -1.99540E+03
  1.11201E+03 -1.40651E+03 -2.33536E+03  2.20911E+03  2.30281E+03  2.81510E+02 -1.10114E+03  8.77714E+02
 -3.17983E+03  4.84531E+03 -3.77953E+03  4.50227E+02 -3.62758E+03  9.35684E+02 -2.55524E+03 -2.72011E+02
  9.05957E+02  5.07768E+02  1.14482E+03 -1.54753E+02  2.78551E+02 -3.04821E+03  1.69207E+03 -7.78294E+01
  2.29197E+03 -2.30861E+03  5.02265E+03 -3.29420E+03 -3.45400E+03 -2.61562E+02 -7.10673E+02  3.13433E+03
 -1.99790E+03 -2.62051E+03  2.97075E+02 -3.44055E+03  3.37445E+03 -1.15280E+03 -1.56219E+02 -5.56647E+01
 -5.59428E+03  6.72787E+02  1.28798E+03  7.93345E+02 -1.86979E+02 -2.23403E+03 -6.28141E+02 -7.64039E+03
  2.63822E+03 -1.76234E+02 -6.06207E+02  1.57538E+03  2.39301E+03  6.00802E+02 -1.82548E+03  3.47311E+03
