 $NMID ID='MM_0lb_SNR50_18hz_g50_43.RAW', FMTDAT='(8E13.5)'
 TRAMP=1., VOLUME=1. $END
  3.08307E+05  1.69214E+03  3.38479E+05  2.51699E+05  8.20981E+04  3.43235E+05 -1.32029E+05  2.48688E+05
 -1.87612E+05  7.90953E+04 -1.12103E+05 -3.14183E+04 -2.06561E+03 -4.99798E+04  5.38188E+04  4.68877E+03
  3.64875E+04  4.86334E+04 -1.62179E+04  7.58043E+04 -6.06391E+04  6.07558E+04 -8.24857E+04  3.26419E+04
 -7.90705E+04 -1.34656E+04 -5.37634E+04 -4.91971E+04 -1.62859E+04 -7.12930E+04  2.51563E+04 -4.13652E+04
  4.28229E+04  7.81175E+03  1.58050E+04  4.80312E+04 -2.99869E+04  4.85910E+04 -6.59905E+04 -5.98225E+03
 -5.74955E+04 -5.66197E+04 -3.86433E+03 -7.54548E+04  3.15142E+04 -5.74469E+04  4.45789E+04 -1.91118E+04
  4.25560E+04  1.21474E+04  3.02550E+04  2.65881E+04  8.45651E+03  2.94295E+04 -1.67817E+03  2.41753E+04
 -2.08508E+04  8.29238E+03 -2.05733E+04 -7.82675E+03  8.10143E+03 -1.14052E+04  2.04125E+04  5.82917E+03
  8.66508E+03  2.81075E+04 -3.07167E+04  3.36280E+04 -6.06082E+04  3.55558E+02 -5.39903E+04 -4.19558E+04
 -1.00158E+04 -6.14325E+04  3.95821E+04 -4.65914E+04  5.15808E+04 -2.33633E+03  3.75686E+04  2.92393E+04
 -4.44926E+03  3.56904E+04 -2.99210E+04  7.88367E+03 -3.07084E+04 -4.04045E+03 -1.44997E+04 -1.36817E+04
 -5.41387E+03 -1.30365E+04 -3.95624E+03 -1.05442E+04  3.13970E+03 -1.91886E+04  1.42246E+04 -1.58925E+04
  1.45313E+04 -3.08656E+02 -1.00291E+04  1.21055E+04 -1.90398E+04 -2.54787E+03 -5.42906E+03 -3.25184E+04
  2.45410E+04 -4.05938E+04  4.96392E+04 -1.38774E+04  4.86046E+04  2.14931E+04  1.24971E+04  4.65180E+04
 -1.78680E+04  3.47929E+04 -2.60163E+04  4.06903E+03 -4.71762E+03 -2.49757E+04  2.02864E+04 -2.96300E+04
  3.58946E+04 -7.67166E+03  3.32600E+04  2.02230E+04  1.34946E+04  4.82301E+04 -8.61297E+03  4.52341E+04
 -2.41577E+04  3.17005E+04 -3.91241E+04  6.44625E+03 -4.14829E+04 -1.62047E+04 -2.19182E+04 -3.55322E+04
  3.85955E+03 -3.71388E+04  2.72709E+04 -1.44634E+04  2.93915E+04  6.69318E+03  1.37597E+03  1.94006E+04
 -1.27842E+04  6.00307E+03 -1.21538E+04 -6.96608E+03  6.11519E+03 -7.24676E+03  1.93336E+04  1.41220E+03
  1.38809E+04  2.00177E+04 -8.32033E+03  2.52746E+04 -2.38674E+04  5.69631E+03 -2.52659E+04 -1.18921E+04
 -1.83293E+04 -1.71305E+04 -4.06588E+03 -1.68462E+04  1.79038E+02 -1.93362E+04  8.39308E+03 -1.35972E+04
  2.17669E+04 -9.78982E+03  3.07875E+04  9.98557E+02  2.07773E+04  1.28825E+04  3.01231E+03  3.22436E+04
 -2.05588E+04  3.01638E+04 -2.70650E+04  7.64115E+03 -2.13170E+04 -1.23586E+04 -8.13693E+03 -1.51498E+04
 -1.57726E+03 -3.00263E+03 -3.67035E+03  7.61192E+03 -1.66759E+04  5.10580E+03 -1.86835E+04 -6.01211E+03
 -7.58961E+03 -1.39302E+04  5.30589E+03 -1.78421E+04  1.31550E+04 -1.30556E+04  1.59372E+04  1.85137E+03
  9.44467E+03  1.13449E+04  2.52549E+03  1.92683E+04 -8.14724E+03  1.07574E+04 -1.60314E+04 -2.84674E+03
 -1.12475E+04 -1.56750E+04  3.59873E+03 -1.81411E+04  1.07531E+04 -1.67023E+04  1.89734E+04 -3.26266E+03
  1.63897E+04 -1.22312E+03  9.39264E+03  9.51252E+02  5.57216E+03  2.99820E+03  8.27159E+03 -8.84256E+02
  1.74830E+04  2.20294E+03  1.43388E+04  1.35858E+04  6.84673E+03  2.19217E+04 -3.07487E+03  2.62803E+04
 -1.82870E+04  1.99167E+04 -3.10042E+04  1.28893E+04 -2.53330E+04 -5.06657E+03 -2.32046E+04 -1.37677E+04
 -1.49909E+04 -2.65276E+04  8.19177E+03 -1.90635E+04  1.65521E+04 -9.41322E+03  1.83356E+04  4.16896E+03
  7.05689E+03  1.02167E+04 -9.52055E+03  6.97148E+03 -1.48216E+04  7.58407E+03 -1.12368E+04 -7.93459E+03
  1.77822E+03 -1.46163E+04  5.40670E+03 -1.24131E+04  1.00698E+04  5.78049E+02  1.78284E+03  1.72767E+03
 -6.29940E+03  2.33634E+03  6.86714E+00 -4.92090E+03  6.11250E+02 -9.06766E+03  7.64477E+03 -9.74936E+03
  9.80894E+03 -4.29874E+03  1.27871E+04  3.04195E+03  9.15241E+03  8.59900E+03  4.78308E+03  1.10867E+04
  5.84280E+01  1.76100E+04 -9.11055E+03  1.08703E+04 -1.70733E+04  1.50102E+03 -1.04352E+04 -2.00611E+01
 -7.48996E+03 -1.98596E+03  1.78667E+03  1.41201E+03 -2.92744E+03  1.69037E+03 -6.31876E+03  2.37578E+03
 -6.31727E+03  2.80772E+03 -9.85214E+03 -8.88853E+03 -9.74465E+02 -1.35617E+04  2.38004E+03 -7.40923E+03
  6.08692E+03 -5.31827E+03  3.98688E+03  1.98700E+03 -1.13954E+03  1.46410E+03 -4.65410E+03 -1.90561E+02
 -4.86435E+03 -6.23667E+03 -4.81536E+02 -7.85840E+03  6.22953E+03 -5.24222E+03  1.10545E+04 -3.24739E+03
  1.59509E+04  3.28783E+03  7.43197E+03  1.38025E+03  1.42273E+03  1.30285E+04 -1.95211E+03  8.95976E+03
 -7.58127E+03  3.75860E+03 -2.34862E+03  2.86729E+03  2.73941E+03 -7.01723E+03  2.92245E+03 -1.87894E+03
  6.56415E+03  4.33864E+03  3.63434E+03  4.11580E+03 -5.43873E+03  4.72850E+03 -1.21162E+04 -1.98540E+03
 -4.04875E+03 -3.15487E+03  2.87428E+03 -7.77278E+03  2.00468E+03 -7.67402E+02  5.76088E+03  2.52586E+03
 -4.99586E+02  8.67849E+03 -5.10250E+03  4.41344E+03 -3.85638E+03  3.16760E+03 -2.62518E+03  8.48974E+02
 -2.23381E+03 -6.31319E+03  9.61411E+02 -8.48146E+03  3.13667E+03 -4.60332E+03  3.40287E+03  1.14279E+04
  6.13347E+03  1.56471E+03 -1.86305E+03  5.64528E+03 -4.80246E+03  2.89551E+03 -3.40903E+03  3.27784E+02
 -6.87339E+03 -5.76658E+02 -3.64439E+03 -1.78132E+03 -1.91253E+03 -5.21120E+03  3.86568E+03 -1.86295E+03
  1.42723E+03 -5.61617E+02  4.01639E+01  6.61503E+02  7.69385E+02 -7.70089E+02 -1.26032E+03  4.39433E+03
  2.99172E+03 -4.98519E+03  4.82371E+03  2.83933E+03  7.92602E+03  5.67643E+03  8.20055E+03  6.57577E+03
 -9.68032E+02  1.31695E+04 -1.24909E+04  7.49515E+03 -1.15979E+04 -1.51317E+03 -8.07559E+03  2.87809E+02
 -9.23504E+03 -8.42320E+03 -1.68895E+03 -7.11787E+03  3.05099E+03  2.67524E+03  2.21823E+03 -1.70286E+03
  8.08400E+01  5.70854E+02  3.01121E+03  5.20255E+02  1.70823E+03  3.49172E+02  4.49360E+03 -1.09475E+03
  5.12961E+03 -1.90473E+03 -3.72944E+03  4.35338E+03 -6.86449E+03  7.58306E+03 -4.23954E+03  6.47993E+03
 -4.04809E+03 -3.52940E+03 -1.35459E+03 -5.15763E+03 -1.82415E+03 -6.87166E+03  7.39220E+02 -3.61910E+03
  4.97742E+03 -4.33200E+03  1.12715E+04  4.44032E+02  4.29927E+01  3.39376E+03 -1.81701E+03  6.88999E+03
 -4.11446E+03  5.04114E+03 -4.54310E+02 -4.99359E+02 -4.81355E+03 -2.55880E+03 -6.83686E+03 -2.72589E+02
 -3.09512E+03 -5.17219E+03 -4.29540E+03 -1.37494E+03 -1.62355E+03 -7.18746E+02 -3.00703E+02 -1.05895E+03
  6.38497E+02 -5.04734E+03 -3.39908E+03 -1.02229E+03  1.02810E+03 -5.19290E+03  5.58976E+03  2.30985E+02
  5.77481E+03 -1.11747E+03  4.97771E+02  2.72305E+03 -2.51181E+02  7.00717E+03 -1.28420E+03  3.98160E+03
 -4.55496E+03 -2.17926E+03 -4.56571E+03 -2.69302E+03 -1.16732E+03 -4.32168E+03  3.78393E+02 -1.87707E+03
  1.83575E+03 -1.42471E+03  1.69529E+03  1.74997E+03 -5.09475E+02  1.96466E+03 -1.54714E+02  4.84110E+02
  1.01692E+03  4.53851E+03 -5.01134E+03 -1.68226E+02  8.29053E+02  5.85172E+02  4.04164E+03  2.96500E+01
 -2.13353E+02  7.84607E+03 -1.69997E+03  6.54210E+03 -6.92824E+03  3.82274E+03 -2.66772E+03 -5.70811E+02
 -2.65482E+03 -3.74134E+03 -3.60983E+02 -3.56131E+03  1.32043E+03 -7.15275E+03  4.92697E+03 -6.55765E+02
  2.10881E+03  1.16283E+03  3.05390E+03 -6.80216E+02 -1.25462E+03  3.34196E+03 -1.54893E+03 -7.86742E+02
 -1.98867E+03  2.35388E+02 -2.71997E+03  1.50610E+03  4.81361E+03 -1.40430E+03 -1.13130E+03 -4.12156E+03
 -2.45453E+01  1.69519E+03  1.65417E+03  1.44474E+03 -1.61198E+03  7.70517E+02 -2.62594E+03 -1.43806E+03
  1.56508E+03 -2.67093E+03  2.39017E+03 -2.54142E+03  3.37021E+03  5.53329E+03 -2.33525E+03  3.27893E+03
  3.02912E+02  6.10201E+02 -2.15609E+03 -8.27579E+02 -1.09072E+03 -4.03156E+02  2.72087E+03 -2.48325E+03
  3.81170E+03 -1.14690E+03  3.64678E+03 -3.77771E+03  3.79598E+02 -1.53308E+01  4.08387E+03 -2.60612E+02
 -2.68932E+03  3.04871E+03 -4.04494E+03 -1.96780E+03 -6.43442E+03 -2.59852E+03 -2.35018E+02 -3.39860E+03
 -2.10405E+03 -3.85000E+03  2.30094E+03 -1.35332E+03  4.45906E+02 -8.84657E+02 -1.33987E+03  1.27026E+03
  3.80977E+03  8.36422E+01 -1.27281E+03 -4.20757E+02  2.10686E+03 -1.08918E+03  1.75672E+03 -2.03523E+03
 -1.19647E+03  8.14564E+02  3.72695E+03  2.22032E+03  2.46023E+03  1.57967E+03 -3.27681E+03  2.96831E+03
 -1.43779E+03  4.23215E+03 -2.44170E+03 -1.44563E+03 -2.96668E+03 -2.96051E+03 -1.37837E+03 -3.13373E+03
  6.89262E+03 -5.60166E+03  4.00425E+03 -4.86142E+03  4.01214E+03  2.89739E+03  2.25940E+03 -1.55108E+03
  2.03283E+03  2.87865E+03  2.50309E+03 -7.77913E+02  5.63432E+01  2.07933E+03  2.42949E+02 -1.57979E+03
  4.98824E+02  1.09145E+03 -1.43162E+03 -3.79377E+03 -2.85084E+03 -6.73656E+02  3.93808E+02  1.65784E+03
 -3.21501E+03 -2.49060E+03  2.35032E+03 -2.17589E+03  6.41200E+03 -8.46480E+03  6.67919E+03  4.42386E+03
  9.17181E+03  1.75206E+03  1.08888E+03  1.18619E+03 -1.67828E+03  2.85681E+03 -1.60764E+03  3.75653E+03
 -3.86254E+03  4.04282E+03 -3.31520E+03  2.25385E+03 -2.19718E+03  5.39837E+01 -1.62831E+03 -3.95785E+03
 -3.23204E+02 -1.28337E+03 -2.44945E+03  5.89031E+03 -2.19534E+03  2.70475E+03 -1.46059E+02 -3.25118E+03
  5.97763E+03 -1.61636E+03  4.72583E+03 -2.20047E+03  1.13415E+03  1.56126E+03 -4.83973E+02  1.78332E+03
 -1.42183E+03  5.11547E+03 -2.13851E+03  7.91667E+02  4.75601E+02  3.89241E+03 -2.59560E+03 -2.43401E+03
 -1.38669E+03 -2.16612E+03 -1.02239E+03 -1.81588E+03  2.05995E+03  2.54770E+02  1.17912E+03  2.44963E+03
  1.02329E+03  1.12614E+03  1.47827E+03  1.61209E+03 -2.04083E+03 -5.65846E+02 -7.69639E+02  6.32218E+02
  2.54367E+03  1.09527E+03 -4.18166E+03 -1.33589E+03 -7.19917E+02  6.21898E+02  1.06838E+03  2.11465E+03
 -6.95010E+02  1.96167E+03 -3.80977E+03  1.83588E+03  1.41171E+03 -8.02536E+02  1.04917E+03  3.49391E+03
 -1.53452E+03 -8.05181E+02  8.53447E+02 -1.51154E+03 -2.48557E+03  3.25819E+03  2.09277E+03  2.78301E+03
  3.89051E+03  2.55898E+03  2.58059E+03  6.80353E+03  6.09175E+02  1.65496E+03  1.90701E+03 -3.43871E+03
 -3.22821E+03 -2.29297E+03 -9.37047E+02 -1.88243E+03  2.14418E+03 -5.87797E+02  1.11893E+03 -1.73692E+03
 -2.56823E+03  1.33893E+03 -5.61018E+03 -2.73039E+03 -1.82584E+03 -1.10513E+03 -1.31231E+03  1.54026E+03
  9.55606E+02 -1.53527E+03 -5.08162E+03  1.33282E+03 -5.67036E+02  8.86528E+00 -1.81278E+03 -3.34042E+02
