 $NMID ID='MM_0lb_SNR50_10hz_g55_26.RAW', FMTDAT='(8E13.5)'
 TRAMP=1., VOLUME=1. $END
  3.09381E+05  3.64899E+03  3.37710E+05  2.49934E+05  9.12237E+04  3.40946E+05 -1.41697E+05  2.48745E+05
 -1.90358E+05  8.51057E+04 -1.12972E+05 -2.81999E+04 -3.34567E+03 -4.68716E+04  5.73553E+04  3.93620E+02
  3.60233E+04  5.34725E+04 -1.58610E+04  7.05174E+04 -5.34352E+04  6.44960E+04 -8.20675E+04  3.36331E+04
 -7.97213E+04 -1.28545E+04 -6.01967E+04 -5.17689E+04 -2.17570E+04 -7.55923E+04  2.94568E+04 -5.03509E+04
  4.27967E+04  5.70289E+03  1.69014E+04  4.49385E+04 -3.35921E+04  5.04345E+04 -7.14361E+04 -3.32708E+03
 -5.73898E+04 -5.45004E+04 -4.33456E+03 -7.62719E+04  3.35054E+04 -5.24169E+04  5.38603E+04 -1.98430E+04
  4.37077E+04  8.70291E+03  3.46189E+04  2.07505E+04  1.26513E+04  3.29923E+04 -1.88514E+03  2.96307E+04
 -1.90970E+04  1.76541E+04 -1.85015E+04 -6.93440E+03  1.42224E+03 -4.23728E+03  2.44288E+04  1.48028E+04
  1.05403E+04  3.93397E+04 -2.62528E+04  3.83773E+04 -6.48059E+04  4.83340E+03 -6.21047E+04 -4.37378E+04
 -1.11359E+04 -6.32580E+04  4.09832E+04 -4.25945E+04  5.72862E+04  1.89224E+01  3.61003E+04  3.91697E+04
 -4.99768E+03  4.60200E+04 -3.45368E+04  1.38367E+04 -3.69888E+04 -7.99051E+03 -2.17782E+04 -1.15125E+04
 -1.05892E+04 -1.43317E+04  1.02304E+03 -2.46627E+04  2.10778E+03 -3.22045E+04  2.00204E+04 -1.07374E+04
  1.25357E+04  7.22677E+03 -5.41847E+03  1.21084E+04 -2.08996E+04 -2.00450E+03 -4.68046E+03 -3.51025E+04
  2.22068E+04 -4.45223E+04  5.19009E+04 -1.78265E+04  4.15843E+04  2.23865E+04  1.71701E+04  5.14062E+04
 -2.06967E+04  3.72237E+04 -3.13248E+04  3.14080E+03 -1.32360E+04 -2.90495E+04  2.26750E+04 -3.18375E+04
  4.04820E+04 -1.02805E+04  3.88343E+04  2.49390E+04  1.77034E+04  5.24189E+04 -1.28251E+04  5.64718E+04
 -3.50152E+04  3.58477E+04 -4.74596E+04  1.26273E+04 -5.25231E+04 -2.05881E+04 -2.56713E+04 -3.90678E+04
  3.90596E+03 -3.73532E+04  2.87316E+04 -2.02078E+04  3.41566E+04  1.11955E+04  9.71900E+03  2.22944E+04
 -1.32901E+04  3.15469E+03 -1.40350E+04 -1.01930E+04  1.46461E+04 -1.24864E+04  2.16018E+04  6.42247E+03
  1.37026E+04  2.29389E+04 -3.93301E+03  2.76348E+04 -1.78365E+04  9.25397E+03 -3.04415E+04 -3.33809E+03
 -2.57264E+04 -1.78933E+04 -1.03444E+04 -2.06848E+04 -2.12731E+03 -2.53318E+04  1.98368E+04 -2.34676E+04
  3.82791E+04 -1.70803E+04  3.43941E+04  6.07996E+03  2.88871E+04  2.31388E+04  1.61843E+03  4.06165E+04
 -2.01844E+04  3.36070E+04 -2.31003E+04  1.76173E+04 -1.96086E+04 -1.05665E+04 -9.79738E+03 -1.24181E+04
 -5.75716E+02  4.88249E+03 -6.64090E+03  8.69165E+03 -2.27091E+04  5.55647E+03 -2.02206E+04 -1.24352E+04
 -1.47286E+04 -2.38212E+04  3.88800E+03 -2.33182E+04  2.09343E+04 -1.71347E+04  2.34303E+04  2.45121E+03
  1.87166E+04  2.00660E+04 -2.40014E+03  1.97638E+04 -1.39611E+04  1.41946E+04 -2.08926E+04 -8.87191E+03
 -1.45098E+04 -1.41868E+04  2.68247E+03 -2.22736E+04  1.26786E+04 -1.94779E+04  1.94436E+04 -4.47521E+03
  1.84419E+04  9.44129E+02  9.58213E+03  3.53247E+03  1.30651E+04 -3.96275E+03  1.48224E+04 -3.49259E+03
  2.32559E+04  6.50169E+02  2.28394E+04  1.80587E+04  1.91048E+04  3.82618E+04 -1.27671E+03  3.78337E+04
 -2.80670E+04  3.12583E+04 -3.97703E+04  2.41405E+04 -4.70486E+04 -7.01070E+03 -3.32346E+04 -2.28787E+04
 -1.29618E+04 -4.09760E+04  1.11425E+04 -3.08963E+04  3.06138E+04 -1.81093E+04  2.13974E+04  3.20961E+03
  9.65318E+03  1.61719E+04 -1.63672E+04  1.77843E+04 -2.57820E+04  2.04710E+02 -1.32863E+04 -9.43740E+03
  7.93597E+03 -2.16667E+04  1.10153E+04 -1.13976E+04  8.04394E+03 -2.25468E+03  1.02868E+04  2.82369E+03
 -6.60483E+03  2.59978E+03 -6.28559E+03 -5.52800E+03  5.05130E+03 -2.31515E+04  1.76218E+04 -1.97769E+04
  2.01657E+04 -1.26643E+04  2.26105E+04 -3.78482E+02  2.21415E+04  2.23735E+04  8.84651E+03  2.87616E+04
 -4.89641E+03  3.30090E+04 -2.04532E+04  1.64914E+04 -1.73907E+04  4.18094E+03 -1.58795E+04 -9.64650E+03
 -8.32739E+03 -8.72907E+03 -1.03178E+02  2.97540E+03  3.82704E+03  4.30813E+03 -7.06074E+03  6.37922E+03
 -1.93464E+04  1.70090E+03 -9.69190E+03 -1.28553E+04 -4.76387E+03 -2.19633E+04  1.05099E+04 -1.53996E+04
  1.05286E+04 -9.32421E+02  9.38035E+03  4.97402E+03  4.21240E+03 -1.08961E+03 -5.91521E+02  1.61358E+03
 -4.41690E+03 -1.23067E+04  2.41713E+03 -1.46915E+04  6.40726E+03 -1.44440E+04  1.87895E+04 -1.53187E+03
  2.28757E+04 -6.63969E+02  6.96585E+03  1.46094E+04  5.46697E+03  1.63155E+04 -1.54703E+04  1.32344E+04
 -1.41754E+04  6.92049E+03 -1.85997E+03 -2.85477E+03 -2.63839E+02 -3.79372E+03  9.94146E+03  5.36622E+03
  1.17478E+04  3.32946E+03 -2.18497E+03  6.37075E+03 -3.56016E+03  9.50658E+03 -1.04589E+04  2.75868E+03
 -1.06877E+04 -7.03756E+03  4.81685E+02 -1.23806E+04  5.70064E+03 -6.79834E+03  8.21478E+03  2.07029E+03
  2.09735E+03  7.63814E+03 -1.13108E+04  1.67300E+04 -1.43381E+04  5.86415E+03 -1.06812E+04 -8.78541E+03
 -9.66689E+03 -1.60272E+04  6.89803E+03 -1.81267E+04  1.54551E+04 -9.19046E+03  1.62489E+04  9.30425E+03
  1.45044E+04  1.52881E+04 -3.55940E+03  9.38774E+03 -6.19703E+03  7.73518E+03 -9.57012E+03  6.58332E+02
 -6.58978E+03 -7.21099E+03  1.03328E+02 -1.29163E+04  1.98575E+03 -9.29989E+03  3.47161E+03  1.85787E+03
  1.91047E+03 -4.26777E+03  2.87771E+01 -2.82343E+03 -5.76644E+03 -2.14959E+03  1.89632E+03 -9.24208E+03
  9.49374E+03 -9.30057E+03  2.00381E+04 -3.06585E+03  1.82081E+04  1.14028E+04  9.25914E+03  2.23830E+04
 -2.29474E+03  2.09462E+04 -2.03780E+04  1.27159E+04 -2.32333E+04  4.82468E+03 -1.77955E+04 -9.95054E+03
 -7.56418E+03 -1.17781E+04  2.98656E+03 -1.06260E+04  6.74896E+02 -6.41554E+03  4.57764E+03 -7.66942E+03
  1.76377E+03 -4.66275E+03  1.29013E+03 -3.03891E+03  5.14348E+03 -4.81519E+03  1.27541E+04 -1.03594E+03
  1.07546E+04  1.07585E+03 -1.19873E+03  6.57888E+03 -3.04692E+03  5.72596E+03 -1.95816E+04  5.24226E+03
 -1.08219E+04  5.28460E+03 -6.93842E+03 -6.22643E+03  7.47269E+02 -1.33689E+04  8.78078E+03 -1.53587E+04
  1.48758E+04 -1.29383E+04  2.42554E+04  3.78182E+03  5.01330E+03  1.33333E+04  3.86834E+03  1.73738E+04
 -6.03905E+03  6.96824E+03 -6.66135E+03  6.81120E+03 -1.19926E+03 -5.53811E+02 -8.47766E+03 -6.07476E+03
 -8.02852E+02  2.87191E+03 -1.93793E+03  4.84692E+02 -4.94995E+03 -3.89238E+03 -5.35341E+03  8.29613E+02
 -7.50804E+03 -9.68936E+02 -1.93961E+03 -1.18457E+04  9.76859E+03 -1.16791E+04  2.04051E+04 -3.08382E+03
  1.67605E+04  6.34719E+03  6.77445E+03  1.65878E+04  5.02321E+03  1.62190E+04 -9.17129E+03  7.05020E+03
 -1.50452E+04 -1.47233E+03 -4.82524E+03 -8.50235E+03 -1.06219E+03 -1.03787E+04  5.84320E+03 -4.06189E+03
  8.89649E+03 -4.75169E+03  2.87768E+03  4.17699E+03  1.48050E+03  6.16017E+03 -2.02054E+00  1.10374E+03
 -4.81779E+02  4.52545E+02  6.60738E+03  2.94654E+03  7.22965E+03  1.20586E+03  4.06316E+02  1.42431E+04
 -1.09917E+03  1.10157E+04 -1.23642E+04  6.55386E+03 -9.54585E+03  4.99830E+03 -1.84409E+04 -4.16070E+03
 -1.05478E+04 -1.84824E+04  2.33960E+03 -1.92882E+04  1.18647E+04 -1.38980E+04  8.80069E+03 -6.03131E+03
  1.04776E+04  6.73296E+03  4.53924E+02  6.18954E+03 -6.19843E+03  3.34833E+03 -9.21402E+03 -1.60474E+03
 -2.99103E+03  2.63896E+02  1.00249E+04 -1.05979E+04  1.44543E+02 -4.01985E+03 -1.55351E+03  7.51806E+02
  1.14611E+03  4.63341E+03  4.15909E+03  1.14160E+03 -4.02554E+01  2.39891E+03 -5.68162E+03 -4.45459E+03
  1.37045E+03 -4.59823E+03  7.22702E+03  4.77595E+03  1.07002E+03  6.53288E+03 -6.52221E+03  1.55450E+04
 -9.00283E+03  4.06992E+03 -8.62190E+03 -6.84096E+02 -9.88504E+03 -3.92309E+03 -3.48984E+03 -8.89066E+03
 -3.19478E+03 -7.07835E+02  9.99789E+03 -3.27041E+03 -5.11906E+02  3.14147E+03 -6.93057E+03  4.04629E+03
 -1.86091E+02  2.32464E+02 -3.83217E+03  3.50569E+02 -3.25868E+03 -1.11099E+04 -8.55125E+02 -5.06767E+03
  8.69338E+03 -6.51859E+03  2.22594E+03 -2.66586E+03  9.17715E+03 -2.37873E+03  4.08453E+03  2.08611E+03
 -6.15358E+03  3.23934E+03 -1.47691E+03 -5.73987E+03  6.77338E+02 -1.95058E+03  1.87374E+03 -8.77266E+03
  1.12544E+04 -3.51845E+03  1.23030E+04  3.89836E+03  8.77464E+03  9.37812E+03 -3.41663E+03  1.33025E+04
 -1.08534E+04 -1.42706E+03 -6.42060E+03  3.25148E+03 -4.39970E+03 -8.67662E+03  2.58704E+03  1.51081E+03
  3.88263E+03  1.77224E+03  7.61393E+03 -3.01643E+03 -4.98220E+03  5.62930E+03 -2.32181E+02  4.04145E+03
 -1.99125E+03  5.15972E+03  2.72888E+03  5.96332E+03 -3.30944E+03 -1.46716E+03 -5.67332E+03  9.46930E+02
 -2.92070E+02  3.77975E+03 -6.23379E+03 -3.26745E+03 -9.49887E+03 -1.28301E+03 -8.42869E+03 -1.03426E+04
  1.54552E+03 -2.53414E+04  5.43790E+03 -1.60835E+04  1.07292E+04 -1.33582E+04  9.47975E+03 -4.71366E+03
  1.21197E+04  3.48513E+03  8.45415E+03  7.41751E+03  7.06235E+02  4.56672E+03 -4.51400E+03  8.13794E+03
 -1.31778E+04 -8.10357E+02 -1.59490E+03  3.81462E+03 -3.93773E+03 -2.45551E+03 -6.70399E+02  3.86921E+03
 -4.29705E+03 -4.28219E+03  9.91579E+01 -8.81381E+01  3.45886E+03 -6.05650E+03 -5.06003E+03 -5.04806E+03
  4.32643E+03  1.71888E+03  2.68477E+03 -3.00700E+03  1.09453E+04 -3.30122E+03  4.88945E+03  1.11617E+04
 -3.19667E+03  1.11838E+04 -8.23097E+03  4.75442E+00 -9.13045E+03 -4.33469E+03 -1.13610E+04 -1.27675E+04
 -8.71104E+02 -6.87777E+03  2.58655E+03 -8.77419E+03  9.58130E+03  4.93475E+03  2.83231E+02  6.79427E+02
  3.80668E+03  7.06943E+03 -2.71725E+03  4.66922E+03 -4.62088E+02 -1.60655E+02 -3.22591E+02 -6.52509E+03
  3.55982E+03 -2.41003E+02  2.56089E+03 -5.57093E+02  5.91910E+03 -1.95850E+03 -2.46708E+03  5.30296E+03
 -1.92063E+03  8.87342E+03 -2.78435E+03  9.49648E+02 -6.95024E+03 -4.33654E+03  3.57586E+03 -4.88992E+03
  6.06981E+03 -5.40531E+03  1.41693E+04 -9.12402E+02  1.19672E+04  2.69214E+03 -4.41741E+02  8.06209E+03
  1.39834E+03  4.51547E+03 -3.88802E+03  3.70598E+03 -6.22007E+03  8.11737E+03  1.36698E+03  5.52018E+03
 -2.15923E+03 -9.22171E+02 -6.73139E+03 -4.12540E+03 -1.74902E+02 -2.16691E+03 -5.42731E+03  4.62277E+03
 -4.29807E+03  2.25297E+02  5.37362E+03 -9.27252E+03  8.66956E+03 -7.93025E+03  3.53054E+03  1.43025E+03
  2.82854E+03 -2.42606E+03 -6.69549E+02  8.07963E+03 -3.58602E+03  1.03330E+04 -2.96003E+03  5.36700E+03
