 $NMID ID='MM_0lb_SNR50_12hz_g55_13.RAW', FMTDAT='(8E13.5)'
 TRAMP=1., VOLUME=1. $END
  3.09798E+05  1.80968E+03  3.37999E+05  2.52936E+05  8.25606E+04  3.33504E+05 -1.32295E+05  2.50519E+05
 -1.92742E+05  8.04041E+04 -1.15850E+05 -3.36642E+04  3.46283E+03 -5.01885E+04  4.87406E+04  1.37728E+03
  4.06024E+04  5.17995E+04 -1.54525E+04  8.09483E+04 -6.65736E+04  6.69505E+04 -8.92559E+04  2.83054E+04
 -8.35650E+04 -8.94029E+03 -5.62856E+04 -5.17735E+04 -1.67194E+04 -7.34845E+04  2.88252E+04 -4.80763E+04
  3.85803E+04  1.17760E+04  1.36389E+04  4.78544E+04 -3.24371E+04  4.95483E+04 -6.32340E+04 -3.21048E+02
 -5.59627E+04 -5.54701E+04  1.81400E+02 -7.62752E+04  3.64950E+04 -4.71861E+04  5.00604E+04 -2.03891E+04
  4.26677E+04  8.14490E+03  3.72211E+04  2.64731E+04  1.86039E+04  3.05029E+04 -1.69381E+03  2.50776E+04
 -2.20617E+04  1.40334E+04 -1.65046E+04 -5.95931E+03  1.08671E+04 -6.51711E+03  2.48446E+04  1.65579E+04
  1.02207E+04  3.29452E+04 -2.89140E+04  3.26617E+04 -6.73401E+04  1.54238E+03 -5.67790E+04 -4.16811E+04
 -1.41280E+04 -6.86300E+04  3.94093E+04 -4.95246E+04  5.53426E+04 -5.12369E+03  3.97178E+04  3.57270E+04
 -8.38960E+03  4.06985E+04 -3.36675E+04  1.90125E+04 -3.51901E+04 -5.00545E+03 -1.35998E+04 -1.56796E+04
 -7.11420E+03 -1.45395E+04 -4.78948E+03 -1.63615E+04  4.76882E+03 -2.38594E+04  1.46904E+04 -1.31169E+04
  7.78837E+03  8.19432E+03 -6.24189E+03  1.17765E+04 -1.95906E+04 -6.13006E+03 -7.88081E+03 -3.43948E+04
  2.30920E+04 -4.36422E+04  5.24820E+04 -1.73572E+04  4.61828E+04  1.53363E+04  1.61014E+04  4.69159E+04
 -1.35128E+04  3.29867E+04 -2.56043E+04 -6.20038E+02 -1.37136E+04 -2.75986E+04  2.10040E+04 -3.46059E+04
  4.58202E+04 -1.14599E+04  3.79622E+04  2.72840E+04  1.91768E+04  4.85072E+04 -4.90214E+03  5.38470E+04
 -3.57070E+04  3.33142E+04 -4.36971E+04  1.31981E+04 -4.93607E+04 -2.04103E+04 -2.38424E+04 -3.81778E+04
  9.46528E+03 -3.66728E+04  3.61408E+04 -1.61789E+04  3.21081E+04 -1.92858E+02  7.44763E+03  1.83412E+04
 -1.28733E+04  4.43722E+03 -1.33061E+04 -8.94190E+03  1.39986E+04 -7.43379E+03  1.80089E+04  2.96936E+03
  2.00046E+04  2.55198E+04 -8.12231E+03  2.36476E+04 -2.43850E+04  1.29671E+04 -2.89140E+04 -7.01257E+03
 -1.99206E+04 -1.95363E+04 -8.53823E+03 -2.33500E+04  8.63329E+03 -2.53896E+04  1.90925E+04 -2.36558E+04
  3.09387E+04 -7.59281E+03  3.33930E+04 -2.01493E+03  2.33656E+04  2.10905E+04 -8.68610E+02  3.87089E+04
 -1.92767E+04  3.21740E+04 -2.73249E+04  1.60724E+04 -2.07575E+04 -4.50137E+03  1.71322E+03 -1.55940E+04
  4.18458E+03  1.48504E+03 -8.06514E+03  1.54576E+04 -2.28254E+04  1.04087E+04 -1.39830E+04 -5.79336E+03
 -9.77502E+03 -2.33002E+04  7.82583E+03 -2.57091E+04  2.12168E+04 -2.33314E+04  2.35920E+04  9.22502E+02
  1.49218E+04  1.47761E+04  2.44692E+03  2.04298E+04 -1.51262E+04  1.14475E+04 -2.28965E+04 -5.81517E+03
 -1.72733E+04 -1.99059E+04 -5.27083E+03 -2.43629E+04  9.05821E+03 -1.83289E+04  1.97713E+04 -8.50660E+03
  1.66286E+04 -3.06389E+03  1.22018E+04  7.14276E+02  1.00079E+04 -1.55141E+03  1.57996E+04  4.04414E+03
  2.06543E+04  2.92324E+03  2.36763E+04  8.19271E+03  1.53341E+04  4.00409E+04 -6.57087E+03  4.12072E+04
 -2.38242E+04  3.42730E+04 -3.37683E+04  1.65135E+04 -3.52630E+04 -1.56090E+03 -3.24741E+04 -2.38695E+04
 -1.29721E+04 -3.27804E+04  1.18094E+04 -3.11552E+04  2.79125E+04 -1.41126E+04  2.18470E+04  4.83827E+03
  9.76421E+03  1.67574E+04 -1.26785E+04  1.32228E+04 -1.64822E+04 -1.36841E+03 -1.25163E+04 -9.66624E+03
  1.47716E+03 -2.15825E+04  1.42302E+04 -1.31571E+04  6.37386E+03  4.81567E+02  2.02706E+03  1.28660E+04
 -7.39149E+03  4.89013E+02 -3.72401E+03 -1.74127E+03  2.45342E+03 -1.36932E+04  1.32312E+04 -1.16496E+04
  1.94866E+04 -7.09303E+03  1.96400E+04 -8.41604E+01  1.55021E+04  1.83529E+04  8.48591E+03  2.42590E+04
 -4.02466E+03  2.56223E+04 -1.60628E+04  1.74622E+04 -1.69649E+04 -1.17495E+03 -1.75117E+04 -6.27068E+03
 -6.94506E+03 -3.17262E+03 -1.21195E+03  3.92212E+03 -1.60250E+02  3.94193E+03 -8.71360E+03  3.61644E+03
 -1.12785E+04  4.41870E+03 -1.57700E+04 -1.01155E+04 -2.62740E+03 -1.94797E+04  6.91403E+03 -1.60371E+04
  1.61141E+04 -9.11014E+03  4.26327E+03  1.22237E+03  2.72448E+03  1.09197E+04 -9.46888E+03 -4.04811E+02
 -1.42840E+03 -1.47409E+04  2.00971E+03 -1.21583E+04  9.40787E+03 -1.17670E+04  1.34182E+04 -7.68413E+03
  1.84279E+04 -1.23597E+03  1.52382E+04  9.34886E+03  2.25123E+03  1.35101E+04 -7.97586E+03  1.26356E+04
 -1.21274E+04  5.83709E+03 -2.93266E+03 -1.09155E+03  2.42292E+02 -8.26641E+03  2.34335E+03 -3.07831E+03
  3.91367E+03  5.01356E+03  5.27416E+03  1.38827E+04 -1.11613E+04  1.26157E+04 -1.32025E+04 -1.34784E+03
 -9.60993E+03 -5.35951E+03  2.91653E+03 -1.62691E+04  5.20111E+03 -1.85529E+03  7.98814E+03  5.14049E+03
 -1.29516E+01  1.06414E+04 -5.23964E+03  1.22112E+04 -7.36649E+03  5.86598E+03 -1.29851E+04 -5.28848E+03
 -5.22036E+03 -1.17158E+04 -1.68899E+03 -1.79835E+04  1.52757E+04 -3.32893E+03  1.58078E+04 -1.97574E+03
  8.36582E+03  9.91060E+03  6.37888E+02  1.31595E+04 -1.21428E+04  6.08435E+03 -6.58338E+03  1.60597E+03
 -9.13206E+03 -5.50730E+03  3.53058E+03 -1.05101E+04  8.71060E+03 -5.06642E+03  1.10714E+04 -4.42722E+03
  7.16838E+03 -1.01501E+03 -2.58715E+03  4.82703E+03 -4.35784E+03 -3.40015E+03  1.54189E+03 -7.33805E+03
  1.20090E+04 -4.98267E+03  1.07236E+04  3.38465E+03  1.43016E+04  7.70857E+03  1.03583E+04  1.32256E+04
 -2.45904E+03  2.33134E+04 -1.70012E+04  1.58739E+04 -2.41270E+04  9.38504E+03 -1.53296E+04 -7.61057E+03
 -7.47951E+03 -1.79025E+04  3.74040E+03 -8.51187E+03  7.84766E+03 -1.97452E+03  4.98839E+03 -1.60937E+03
  6.80032E+03 -9.63766E+02  4.47070E+03 -3.11580E+03 -1.06107E+03 -8.68395E+02  1.89788E+03 -4.40664E+03
  1.00870E+04 -1.74446E+03  2.02398E+03  9.77974E+03  1.72979E+03  7.62661E+03 -5.02878E+03  8.70257E+03
 -5.53293E+03 -1.79840E+03 -6.37295E+03 -1.15115E+04 -8.36472E+02 -1.28803E+04  8.86215E+03 -9.43185E+03
  1.18777E+04 -4.50511E+03  1.25436E+04 -3.45210E+01  1.05428E+04  1.03808E+04  5.79330E+03  1.43874E+04
 -3.25017E+03  5.06341E+03 -7.37277E+03  1.10376E+04 -4.82503E+03  2.61178E+02 -3.41291E+03  2.71078E+03
  2.25150E+03  1.58141E+03  1.13105E+03  6.49273E+03 -1.27633E+03  1.33695E+03 -5.17290E+03 -8.12215E+02
 -7.54225E+03 -9.30875E+03 -4.92502E+02 -8.57478E+03  8.06181E+03 -1.02586E+04  9.64217E+03 -3.43429E+03
  7.68694E+03  8.20426E+03 -2.83536E+02  9.36137E+03 -3.19069E+03  5.78619E+03 -3.90047E+03  8.21273E+03
 -1.12915E+04  9.75589E+02 -5.41896E+03 -7.31712E+03 -2.68519E+03 -3.38581E+03  7.21387E+03 -9.18624E+03
  6.63669E+03 -1.10855E+03  5.95904E+03  6.35936E+03  7.08442E+03 -1.22980E+03  3.30727E+03 -4.40176E+03
  3.92137E+03 -5.52981E+02 -2.91323E+02  1.62514E+03  9.28937E+03  3.81959E+03  5.06969E+03  2.60817E+03
 -3.90465E+03  1.30509E+04 -2.08838E+03  1.15375E+04 -1.36181E+04  1.41370E+03 -1.11916E+04 -7.64332E+03
 -5.44246E+03 -1.49953E+04  6.24374E+03 -1.53355E+04 -6.70581E+02 -9.25732E+03  9.07050E+03 -7.67936E+02
  9.71123E+03 -1.16748E+03  3.25855E+02  7.21532E+03 -9.85840E+03 -5.92735E+02 -3.84586E+03 -2.41789E+03
 -2.91654E+03 -8.26129E+02  6.14966E+03 -5.05950E+03  2.94463E+03 -8.09508E+03  8.37979E+03 -4.62548E+03
  4.90020E+03  1.00515E+04  1.23592E+03 -4.91053E+03 -2.89104E+02 -9.28319E+03  1.23288E+03 -9.85521E+02
  1.40293E+03 -1.62174E+03  6.17183E+03  1.46707E+03  8.07111E+03  1.26825E+04 -3.92561E+03  9.07210E+03
 -4.88397E+03  2.20071E+03 -8.63124E+02 -2.41214E+03 -1.12002E+04 -1.84141E+03 -5.76823E+02 -3.19265E+03
  3.84221E+03 -4.34060E+03  5.35054E+03 -2.47120E+03 -4.30145E+03 -1.34029E+03 -2.25629E+03  6.77541E+03
 -1.62846E+03  3.36301E+03  1.50306E+03 -7.47868E+02 -2.16480E+03 -1.83859E+03 -1.76643E+03 -1.08556E+03
  1.84565E+01 -1.02127E+03  5.37536E+03 -2.02835E+01  2.46344E+03  1.95627E+02 -1.26070E+03  1.02608E+03
 -1.19316E+03  2.06091E+03  9.85305E+02 -1.80389E+03 -1.01990E+03 -4.03825E+03  7.19059E+03 -4.03136E+03
  1.01226E+04  1.62362E+03  9.07764E+03  7.22602E+03  3.50321E+03  1.04287E+04 -2.40802E+03  5.16051E+03
 -2.01115E+03 -1.84029E+03 -8.07870E+03  6.72215E+02 -3.11013E+03 -6.27867E+03  3.03808E+03 -1.37010E+03
  8.69810E+03 -2.77524E+03  3.00616E+03  2.61274E+03 -3.33899E+03  5.80495E+03 -3.75797E+03  1.30641E+03
 -5.02197E+03  2.88780E+03 -2.81511E+03  5.99604E+03 -4.70483E+03 -6.86975E+03 -4.99524E+03 -3.56509E+02
 -2.39115E+03  3.79106E+03 -3.82737E+03  3.58582E+02 -2.52387E+03  3.59746E+03 -8.66335E+03 -6.33867E+03
 -7.26990E+03 -1.36124E+04  6.05738E+03 -9.86924E+03 -5.46541E+02 -7.81859E+03  1.21291E+04  5.22327E+01
  9.52260E+03  1.06975E+03  3.12268E+03  6.56753E+03  3.43479E+02  3.89086E+03 -5.70318E+02  3.84069E+03
 -2.18116E+03 -7.36096E+02 -1.53308E+03 -1.47401E+03 -9.08350E+02 -5.71874E+03 -6.94081E+03  7.04149E+02
  9.55006E+02 -8.09396E+02  4.49024E+03 -2.02685E+03 -4.07602E+03 -1.99661E+03 -9.47162E+02 -5.99702E+03
  1.27213E+03 -2.17916E+03  2.97391E+03 -2.05303E+03  5.78062E+03  5.07917E+02  5.62958E+02  1.60912E+03
 -3.07880E+03  8.02687E+03  9.94673E+02  1.91057E+03 -9.33916E+03 -3.32922E+03 -7.91090E+03 -3.49736E+03
 -6.33539E+03 -6.04302E+03 -3.70721E+02  9.33759E+02  6.20238E+02 -2.77477E+03  5.41162E+02 -1.98149E+03
  6.33874E+03  1.45570E+03 -4.02843E+03  3.84124E+03 -2.04513E+03 -3.31563E+03  6.57336E+03  4.10679E+03
  8.91234E+03 -2.43768E+03  2.54467E+02  3.92080E+03  1.18188E+03 -1.47306E+03 -4.83263E+03  2.77125E+03
  3.37117E+03  7.42291E+03 -1.60891E+03 -3.35326E+03 -3.29124E+03 -7.64216E+03 -6.29424E+03 -3.12678E+03
 -3.53393E+03 -5.13319E+03  6.73650E+03 -3.09377E+03  4.59303E+03 -2.58762E+03 -1.78371E+03  2.64755E+03
 -2.06079E+03  2.00659E+03  5.91941E+02  2.46344E+03 -5.02255E+03 -1.52533E+03  2.24726E+03  6.19263E+03
 -6.16333E+02 -1.71509E+03  4.51752E+02  1.94775E+03  2.58034E+03  4.97113E+03 -7.65445E+03 -2.49503E+03
  5.10680E+03 -2.72316E+03 -1.97027E+00  3.50034E+02  2.35829E+03 -3.17278E+03  4.83060E+02 -1.09270E+03
  7.92044E+03  4.32453E+03 -4.51760E+02  1.72270E+03 -1.91858E+03  8.80054E+03 -4.73754E+03  3.87251E+03
