 $NMID ID='MM_0lb_SNR50_17hz_g40_24.RAW', FMTDAT='(8E13.5)'
 TRAMP=1., VOLUME=1. $END
  3.12554E+05 -1.70818E+03  3.40123E+05  2.49876E+05  8.34287E+04  3.35958E+05 -1.32594E+05  2.46975E+05
 -1.88381E+05  8.19536E+04 -1.11038E+05 -3.35536E+04  5.79828E+02 -4.56732E+04  4.76803E+04 -2.30076E+03
  3.33190E+04  5.24757E+04 -1.88166E+04  7.51917E+04 -5.69234E+04  6.08177E+04 -8.49425E+04  3.15619E+04
 -7.75743E+04 -1.07474E+04 -5.58218E+04 -5.28269E+04 -1.46166E+04 -6.81284E+04  2.70892E+04 -4.50172E+04
  4.37661E+04  4.09819E+03  1.76161E+04  4.81606E+04 -2.99358E+04  4.83591E+04 -6.25002E+04  1.82498E+03
 -5.30439E+04 -5.68923E+04 -6.51892E+03 -7.28154E+04  3.55677E+04 -5.59566E+04  4.43053E+04 -1.84138E+04
  4.03011E+04  1.34892E+04  3.56941E+04  1.96490E+04  1.81450E+04  2.87660E+04 -4.16815E+03  2.52389E+04
 -2.33405E+04  1.49704E+04 -1.94824E+04 -6.08524E+03  5.83423E+03 -9.40103E+03  2.12227E+04  1.07063E+04
  1.05948E+04  3.65587E+04 -2.88227E+04  3.44724E+04 -6.12977E+04  1.08903E+03 -5.34186E+04 -4.09821E+04
 -1.43777E+04 -6.22424E+04  4.16826E+04 -4.39674E+04  5.50739E+04  2.62521E+03  3.41328E+04  3.15420E+04
 -7.39293E+03  3.23705E+04 -3.03528E+04  1.73334E+04 -2.73445E+04 -4.26277E+03 -1.35464E+04 -9.14541E+03
 -6.03093E+03 -1.39691E+04  4.15644E+03 -2.16321E+04  5.76199E+03 -2.13533E+04  1.71424E+04 -1.05116E+04
  1.68020E+04  2.87513E+03 -6.57524E+03  1.27421E+04 -1.82873E+04 -1.30805E+03 -6.89836E+03 -3.60539E+04
  2.07021E+04 -3.79769E+04  4.61512E+04 -1.66075E+04  3.98596E+04  2.06999E+04  1.08362E+04  4.00340E+04
 -1.43947E+04  2.91540E+04 -2.17204E+04  3.33622E+03 -8.01470E+03 -2.65874E+04  1.99558E+04 -3.46332E+04
  3.98900E+04 -7.30086E+03  3.27540E+04  2.22049E+04  1.35448E+04  4.21974E+04 -3.19224E+03  4.30708E+04
 -3.32060E+04  2.85433E+04 -3.80569E+04  1.02789E+04 -3.79249E+04 -1.61745E+04 -2.28110E+04 -3.59144E+04
  1.10569E+04 -3.66278E+04  2.57844E+04 -1.54057E+04  2.47988E+04  1.37841E+04  3.23821E+03  1.85411E+04
 -1.61790E+04  9.28476E+03 -4.86357E+03 -1.05958E+04  6.11631E+03 -1.15766E+04  1.29794E+04  9.95077E+03
  7.79360E+03  2.91780E+04 -8.86658E+03  2.52591E+04 -2.33294E+04  1.08085E+04 -2.53584E+04 -9.71649E+03
 -1.85550E+04 -1.53813E+04 -2.21624E+03 -1.85845E+04  4.35304E+03 -1.45595E+04  1.45114E+04 -1.22758E+04
  2.32046E+04 -9.21766E+03  3.17122E+04  3.83020E+03  2.43559E+04  1.34171E+04  5.76350E+03  3.29797E+04
 -1.88154E+04  2.74245E+04 -2.76400E+04  8.00208E+03 -2.12046E+04 -1.12899E+04 -2.31545E+03 -1.56409E+04
  2.88613E+03 -4.87169E+03 -5.98684E+01  5.07394E+03 -1.35644E+04  6.55668E+03 -1.46412E+04 -4.59398E+03
 -9.40261E+03 -1.37615E+04  2.22303E+03 -2.12923E+04  1.77670E+04 -1.46832E+04  1.61872E+04 -5.41043E+03
  7.10102E+03  1.45439E+04  3.44591E+03  1.78202E+04 -1.34946E+04  1.04187E+04 -1.82355E+04 -2.46792E+03
 -9.81998E+03 -1.24002E+04 -3.39754E+03 -1.98504E+04  7.41941E+03 -1.30576E+04  1.84773E+04 -9.37567E+03
  1.79719E+04  6.45500E+02  9.43190E+03  3.37653E+03  4.00487E+03 -9.29103E+02  8.01348E+03  2.24181E+02
  1.65017E+04  2.51994E+03  1.65827E+04  7.31223E+03  1.19751E+04  2.45784E+04 -5.61149E+03  2.69871E+04
 -1.70511E+04  1.95039E+04 -2.45303E+04  1.09722E+04 -3.04937E+04 -3.48431E+03 -2.59634E+04 -1.43656E+04
 -9.73202E+03 -2.56123E+04  7.14767E+03 -2.02710E+04  2.01076E+04 -5.31754E+03  1.59730E+04  4.01090E+03
  6.43197E+03  6.24435E+03 -5.98851E+03  8.65617E+03 -1.46337E+04 -1.93839E+02 -8.19772E+03 -1.21491E+04
  3.33204E+03 -1.40607E+04  7.31707E+03 -8.46299E+03  1.27380E+04  4.50716E+01  6.52673E+03  4.03451E+03
 -5.11422E+03  2.66017E+03  1.28561E+03 -1.46509E+03  2.74807E+03 -1.15027E+04  1.07987E+04 -1.09188E+04
  1.37379E+04 -4.34234E+03  1.46223E+04  3.30178E+03  9.86612E+03  1.08653E+04  6.13783E+03  1.56337E+04
  9.80060E+02  1.47686E+04 -1.19910E+04  1.03699E+04 -1.03535E+04  2.44692E+03 -8.52913E+03 -2.12566E+03
 -6.34577E+03 -3.53553E+01 -1.51691E+03 -1.21124E+03 -5.97129E+01  2.22425E+03 -9.20665E+03  3.93024E+03
 -6.51948E+03 -8.44903E+02 -1.10923E+04 -6.07396E+03 -3.83926E+02 -1.12735E+04  3.88288E+03 -1.19413E+04
  5.04780E+03 -3.24825E+03  3.67007E+03  2.64021E+01 -7.69449E+01  6.52584E+03 -5.01731E+03 -5.38274E+02
 -2.35793E+03 -8.68189E+03 -3.82027E+03 -9.57239E+03  5.29478E+03 -1.41647E+04  7.76302E+03 -2.94673E+03
  1.39376E+04  2.31842E+03  9.02293E+03  6.84549E+03 -9.93154E+02  1.03953E+04 -2.94229E+03  9.31607E+03
 -8.69670E+03  1.95661E+03 -8.70118E+02 -6.19090E+03 -2.57107E+02  2.45354E+03  7.62070E+03  9.55199E+02
  1.42635E+03  2.70001E+03  4.83045E+01  9.06351E+03 -5.66770E+03  5.07437E+03 -4.37381E+03  5.89262E+03
 -4.75954E+03  2.13674E+02 -1.84098E+02 -1.12596E+04  4.72772E+03 -2.89051E+03  9.93230E+03  4.16432E+03
 -2.44605E+03  7.01066E+03  1.53074E+03  4.95230E+03 -2.96605E+03  5.24601E+01 -5.76982E+03 -3.55890E+03
 -1.07499E+03 -8.04092E+03  2.33481E+02 -4.15970E+03  7.59411E+03 -5.23477E+03  7.00428E+03  2.66100E+03
  4.77742E+03  4.62355E+03 -4.33390E+03  9.52890E+03 -5.60423E+03  2.63762E+03 -3.84887E+03 -3.63453E+02
  2.46919E+02 -1.00514E+04 -2.72720E+03 -6.00633E+03  2.85823E+03 -7.86641E+03  9.50114E+02 -1.87391E+03
  3.62451E+03  3.78177E+03 -1.16910E+03 -6.97031E+02  5.93512E+03 -2.61478E+03  1.32397E+03 -1.79467E+03
  5.13850E+03  7.10085E+03  6.08394E+03  7.18127E+02  6.20646E+03  4.26083E+03  8.01877E+03  9.94315E+03
  4.19727E+00  1.21170E+04 -5.36326E+03  6.49476E+03 -1.05723E+04 -3.62401E+01 -1.05963E+04 -3.45752E+03
 -3.44921E+03 -8.32842E+03 -2.62530E+03 -4.86351E+03 -3.23883E+03 -6.20390E+03  2.44043E+03 -5.32852E+03
  5.53396E+02 -3.40761E+03 -9.52932E+02 -5.99743E+03  4.47428E+03  6.47225E+01  5.96616E+03 -2.25853E+03
  5.53890E+03  2.80179E+03  4.47546E+03  3.51141E+03 -4.63347E+03  1.54959E+03 -3.85575E+03  2.68917E+03
 -6.79453E+03  1.86740E+03 -1.54374E+03 -5.10602E+03 -3.67878E+03 -5.07757E+03  4.53105E+03 -9.01008E+03
  5.41698E+03 -3.09766E+03  3.33938E+03 -1.91825E+03  2.55340E+03  7.34967E+03  4.25915E+03  8.07762E+03
  2.89867E+03  6.12599E+03 -7.20152E+03 -4.07820E+03 -2.77197E+03  7.06916E+02  8.49714E+02 -4.48640E+02
  3.12329E+03 -8.50721E+02 -8.94345E+02  1.05730E+03 -4.53511E+03  9.56164E+02 -3.73968E+03 -1.07299E+03
  2.81151E+03 -3.90257E+03 -3.07434E+03 -3.63918E+03  2.40308E+03 -3.40446E+03  3.65416E+03 -1.07219E+03
  6.50585E+03  3.89745E+03  5.14485E+02  4.10889E+03  4.24304E+03  3.43059E+03 -5.71270E+03  6.27788E+03
  1.32485E+02 -4.90401E+03 -4.32764E+03 -2.78249E+03  5.62407E+03 -1.32113E+03  1.54854E+03 -1.26602E+03
  3.60891E+03 -2.26096E+03  3.78274E+03 -1.09785E+03  3.48923E+03  2.79520E+03 -1.05439E+03  4.37531E+03
  2.88014E+03  1.55469E+03 -1.28134E+03  1.69833E+03 -2.71851E+03  1.60869E+03  1.14746E+03  4.09015E+03
 -8.00254E+03  4.72822E+03  6.60025E+02  1.30429E+03 -8.45934E+03  7.82492E+02 -3.48919E+02  2.83465E+02
 -4.73541E+03 -6.83655E+03 -1.58836E+03 -5.50053E+03  3.03616E+03 -7.37924E+03  5.75611E+03 -2.71834E+03
  6.44217E+03 -5.70329E+02  1.19046E+02  1.37167E+02 -7.06279E+02  4.06220E+03 -3.18069E+03 -9.84768E+02
  1.30143E+03 -2.49739E+03  6.57751E+03 -3.08877E+02  3.44027E+03  2.11020E+02  1.28858E+03 -1.86889E+03
 -8.07891E+02  3.02601E+03  6.44797E+02  1.99921E+03  1.84287E+03  1.91225E+02 -7.06887E+02 -1.98603E+03
 -1.72460E+03 -1.98617E+03  8.90015E+02  1.72675E+03 -8.53582E+02  1.51721E+03  3.75288E+03 -1.70966E+02
 -2.11891E+03  1.14776E+03 -2.32615E+03  3.00353E+03 -1.10571E+03  2.01776E+02  4.28421E+02 -2.18421E+03
  3.29214E+03 -2.17263E+03  1.00330E+03  1.77968E+03  7.57773E+00  1.58328E+03  3.94002E+02  7.31625E+02
  4.42355E+01  6.24469E+03 -1.87739E+03 -1.68988E+03 -1.45711E+03 -3.64579E+03  5.98195E+02 -4.29366E+03
  3.81659E+03 -2.13548E+03  1.32090E+03  9.94493E+02  4.85909E+03  3.24839E+03 -2.58890E+03  1.83563E+03
  2.71903E+03 -1.72998E+03  1.49351E+03 -4.39542E+03 -5.08743E+02 -2.80063E+03  3.05439E+03  4.61505E+01
  2.23428E+03  2.71006E+03  7.70118E+03  1.57127E+03  1.15356E+03  1.29735E+03  1.65898E+03  2.71582E+03
 -8.02807E+03  1.78432E+03  2.26190E+03 -1.01447E+03  4.96091E+03 -1.16515E+03 -3.97322E+02 -8.18326E+02
 -1.14319E+03 -2.05575E+03 -6.80567E+02  1.49553E+03  2.58406E+01  9.22512E+02  6.55932E+02 -3.52533E+02
 -6.25475E+02  4.02165E+02 -3.23557E+03 -7.04399E+02  1.59865E+03 -3.20189E+03 -2.92401E+03  3.61516E+03
  1.19251E+02 -2.74532E+03 -3.43047E+03 -5.88249E+02 -3.89146E+03  5.25683E+02 -3.83257E+03 -3.43522E+03
 -4.11457E+03 -6.03529E+03 -2.64635E+02 -3.25970E+03  8.18714E+02 -9.74047E+02 -2.41409E+02 -1.90529E+03
  4.28340E+03 -1.16058E+02 -2.50650E+03  1.99930E+03 -5.54819E+02  1.01306E+03 -7.09542E+03 -5.65417E+02
 -8.86963E+02 -3.87695E+03  2.58859E+03 -1.17061E+03 -2.84466E+03  1.78397E+03  1.01614E+03 -3.61398E+02
 -9.86234E+02 -6.38239E+02 -2.29186E+03 -2.34025E+03 -1.32574E+03 -5.41988E+03  1.39057E+03 -3.25908E+03
  3.91311E+03 -3.54155E+03  2.74282E+02 -1.34459E+03  4.31231E+03  2.90916E+03 -4.71503E+02  1.92220E+03
 -5.91485E+03  1.13413E+03  2.42968E+03  4.76128E+03  4.06116E+02 -5.02738E+03 -9.74568E+02 -2.09555E+03
 -5.94384E+03 -3.41747E+03 -1.02655E+03 -1.82106E+03  3.74114E+03  1.40016E+03  6.05810E+03  3.27090E+03
  1.01703E+03 -1.17814E+03  1.30455E+03  1.46992E+03  3.22167E+03 -2.12122E+03 -1.10494E+03 -1.17021E+03
  3.57331E+01 -3.25032E+03 -1.09861E+03  2.91047E+03  2.91967E+03  3.71771E+03 -1.35491E+03  4.44730E+02
 -1.40521E+03  3.99787E+03 -1.65228E+03 -2.33076E+03 -1.50924E+03 -1.82485E+03 -8.18724E+02 -1.16392E+03
  2.53347E+03 -1.92591E+03  4.81924E+02  1.49710E+03  3.45337E+03  1.71116E+03  1.66219E+03  9.42288E+02
 -5.46969E+03  1.45957E+03 -6.71895E+02  1.15930E+03 -3.44186E+03  3.14823E+03 -8.79226E+02 -5.53140E+03
  8.06430E+02 -2.54739E+03 -1.01356E+03  2.80550E+03 -1.22984E+03  2.30156E+02 -3.74209E+03  8.22658E+01
 -1.56913E+03  4.56778E+03 -1.94434E+02 -5.45849E+03  4.60686E+03 -6.00974E+03  8.62992E+02  7.08567E+02
  3.48344E+03 -8.65401E+02  5.06729E+03 -2.00663E+03 -2.28862E+03 -1.07674E+03 -4.86987E+02 -3.35307E+03
