 $NMID ID='MM_0lb_SNR50_17hz_g45_73.RAW', FMTDAT='(8E13.5)'
 TRAMP=1., VOLUME=1. $END
  3.06458E+05  2.82497E+03  3.37685E+05  2.50378E+05  8.24399E+04  3.39666E+05 -1.32923E+05  2.49324E+05
 -1.88153E+05  8.16488E+04 -1.10171E+05 -2.90429E+04  2.36582E+03 -4.97846E+04  5.10919E+04  1.57860E+03
  3.46506E+04  4.94718E+04 -1.84244E+04  7.67036E+04 -6.09450E+04  6.45903E+04 -8.34722E+04  3.02601E+04
 -7.98202E+04 -6.99241E+03 -5.50894E+04 -5.22834E+04 -1.75688E+04 -6.50153E+04  2.40876E+04 -4.46061E+04
  3.51457E+04  3.68558E+03  1.65528E+04  4.87078E+04 -3.25761E+04  4.59750E+04 -6.75764E+04 -4.31906E+03
 -4.72678E+04 -5.54501E+04 -4.07106E+03 -7.54295E+04  3.18248E+04 -5.11928E+04  4.55447E+04 -1.43041E+04
  4.38598E+04  1.19236E+04  3.11008E+04  2.21644E+04  1.77972E+04  3.18776E+04 -6.06177E+03  3.03661E+04
 -2.11407E+04  1.01192E+04 -1.53497E+04 -2.05018E+03  4.88126E+03 -2.55619E+03  2.35025E+04  1.36021E+04
  9.67381E+03  3.65645E+04 -3.49333E+04  3.36344E+04 -6.31888E+04  3.03988E+03 -5.49579E+04 -4.01496E+04
 -1.41990E+04 -6.31032E+04  3.78479E+04 -4.69211E+04  5.46285E+04 -4.72591E+03  3.35119E+04  2.99705E+04
 -5.86021E+03  3.38703E+04 -2.86866E+04  1.22272E+04 -3.04409E+04 -3.10992E+03 -1.35855E+04 -9.67530E+03
 -5.90755E+03 -5.47951E+03 -3.18315E+03 -1.69181E+04  3.89905E+03 -2.11530E+04  1.59156E+04 -9.15955E+03
  1.36320E+04  1.27244E+02 -7.24514E+03  1.35794E+04 -2.06947E+04 -3.08985E+03 -6.43030E+03 -3.28157E+04
  1.94866E+04 -4.09319E+04  4.70868E+04 -2.22629E+04  4.43923E+04  1.46039E+04  1.32984E+04  4.20950E+04
 -1.61709E+04  2.78645E+04 -2.69868E+04 -4.92458E+02 -7.13778E+03 -2.59163E+04  2.23133E+04 -3.02162E+04
  3.72804E+04 -1.01039E+04  3.13900E+04  2.26191E+04  1.38268E+04  4.30221E+04 -4.55961E+03  4.93005E+04
 -3.03247E+04  3.25348E+04 -3.43498E+04  8.11556E+03 -3.86165E+04 -1.70692E+04 -2.44624E+04 -3.38435E+04
  9.19462E+03 -3.40462E+04  2.95089E+04 -1.57322E+04  2.94643E+04  8.30897E+03 -1.63079E+02  1.59492E+04
 -1.49398E+04  1.00772E+04 -4.67256E+03 -9.22130E+03  6.78399E+03 -8.02431E+03  1.72974E+04  5.95158E+03
  1.15054E+04  2.31742E+04 -8.16124E+03  2.38657E+04 -2.37115E+04  1.02200E+04 -2.41692E+04 -4.75737E+03
 -2.10609E+04 -1.52068E+04 -9.60451E+03 -1.73091E+04  4.69334E+03 -2.14379E+04  1.65520E+04 -1.85611E+04
  2.28887E+04 -7.75069E+03  3.21913E+04  3.02669E+03  2.20417E+04  1.71583E+04  5.37942E+03  3.35155E+04
 -1.89652E+04  2.94410E+04 -2.93015E+04  1.38369E+04 -2.36809E+04 -6.60575E+03 -8.53844E+01 -1.24796E+04
  2.67827E+03 -7.51811E+03 -2.94990E+03  1.03596E+04 -1.26310E+04  3.45063E+03 -1.52914E+04 -4.83447E+03
 -1.04727E+04 -1.77882E+04  1.01425E+04 -2.01492E+04  1.27681E+04 -1.87645E+04  1.35896E+04 -3.07368E+03
  1.11771E+04  9.95243E+03 -1.09012E+03  1.87458E+04 -9.97761E+03  1.04444E+04 -1.73041E+04 -2.27620E+03
 -9.88643E+03 -1.56881E+04 -2.91357E+03 -1.86648E+04  8.59137E+03 -1.79551E+04  1.58208E+04 -9.80022E+03
  1.22592E+04  4.35397E+03  1.09793E+04  1.80720E+03  6.65677E+03  4.09837E+03  7.00874E+03 -1.22331E+03
  1.72973E+04  4.85281E+03  1.79355E+04  1.48467E+04  7.55746E+03  2.95136E+04  8.53368E+02  2.93865E+04
 -1.59935E+04  2.36483E+04 -3.24117E+04  1.25610E+04 -2.91908E+04 -2.47447E+03 -2.36586E+04 -1.50214E+04
 -8.58175E+03 -2.25474E+04  5.90667E+03 -1.83287E+04  1.89933E+04 -1.06318E+04  2.04743E+04  4.33820E+03
  6.80110E+03  8.09859E+03 -6.14215E+03  1.01281E+04 -1.59191E+04 -9.25080E+02 -6.01621E+03 -1.37966E+04
  2.46798E+03 -1.23859E+04  6.59161E+03 -1.20614E+04  6.57750E+03 -2.27301E+03  3.08665E+03  5.76339E+03
 -6.28526E+03  1.21530E+03 -4.63564E+03 -7.53765E+03  6.69040E+02 -1.07814E+04  1.38835E+04 -1.27830E+04
  1.27986E+04 -3.42109E+03  1.46403E+04  4.00690E+03  1.16947E+04  1.09971E+04  6.24240E+03  1.71673E+04
 -1.42710E+03  1.32801E+04 -8.79006E+03  1.44859E+04 -7.53556E+03  1.39260E+03 -1.12402E+04 -6.18203E+02
 -4.96741E+03 -6.43119E+03 -2.24320E+03  4.86873E+03 -4.08051E+03  1.94879E+03 -5.63562E+03  3.46852E+03
 -8.83062E+03 -1.40494E+03 -1.27980E+04 -5.96465E+03 -3.31886E+03 -8.75603E+03 -3.96202E+02 -1.17430E+04
  6.70720E+03 -2.55483E+03  5.11417E+03 -3.92645E+03  3.38422E+02  4.07465E+03 -5.63162E+03 -2.75190E+03
 -3.49758E+02 -3.32556E+03  1.28053E+03 -8.01856E+03  4.82484E+03 -5.66630E+03  1.21033E+04 -3.05045E+03
  9.44281E+03  1.12165E+03  1.11068E+04  1.14353E+04  3.09760E+03  1.06322E+04 -6.83258E+03  9.58835E+03
 -5.43505E+03  4.73856E+03 -4.43695E+03 -3.18978E+03  1.42080E+03 -1.40381E+03  4.96098E+03 -2.55168E+03
  1.09154E+03  5.63073E+03  1.64530E+03  1.08773E+04 -2.31332E+03  1.01614E+04 -1.33651E+04 -5.25025E+02
 -4.95031E+03 -8.23481E+02  6.02070E+02 -7.75207E+03  8.36702E+03 -3.88278E+03  9.92708E+03 -1.35013E+03
  3.77835E+03  2.96078E+03 -1.98881E+03  6.02467E+03 -1.04496E+04  3.37055E+03 -5.97195E+03 -3.55232E+03
 -3.10919E+03 -8.10762E+03 -1.37800E+02 -1.12557E+04  8.78138E+03 -4.62700E+03  7.92900E+03  5.45476E+03
  4.70453E+03  7.40755E+03 -1.55639E+03  1.03703E+04 -1.21256E+04  7.64257E+03 -7.03959E+03 -2.88326E+02
 -7.25342E+03 -4.76571E+03  5.64008E+02 -3.13005E+03  9.00736E+03 -5.89140E+03  2.09495E+03 -2.03575E+03
  2.20133E+03  1.48449E+02 -1.48194E+03 -3.34143E+03  3.47956E+03 -3.20150E+03  9.28736E+01 -2.46099E+03
  6.46312E+03 -2.22670E+03  3.70789E+03  6.23812E+03  5.62788E+03  3.25044E+03  3.82341E+03  8.03391E+03
 -1.85480E+03  1.03522E+04 -1.38001E+04  7.59049E+03 -1.26892E+04  5.20401E+03 -9.16078E+03 -1.67836E+03
 -3.30035E+03 -6.89650E+03 -5.72567E+00 -5.88964E+03  2.00151E+03 -3.58839E+03  1.97367E+03 -5.05407E+03
 -1.70427E+03 -6.28994E+03  8.37988E+03  1.39535E+03  2.66829E+03 -8.00754E+02  7.07636E+03  1.48731E+03
  5.16641E+03  1.97286E+03  2.76448E+03  2.77267E+03  3.36525E+02  5.12207E+03 -5.51112E+03  2.14120E+03
 -4.30171E+03  3.86105E+02 -4.73036E+03 -9.87546E+02  2.26387E+03 -6.67893E+03  2.19017E+03 -7.89628E+03
  4.22384E+03 -3.89675E+03  4.85278E+03  6.42032E+02  6.06938E+03  9.85564E+02  2.18976E+03  7.79709E+03
 -4.12647E+03  3.91506E+03 -7.06355E+03 -1.14576E+03 -9.62644E+02 -3.13826E+03 -1.75758E+03 -3.99683E+01
 -4.02488E+03  3.40977E+02 -4.83346E+01  9.90250E+02 -1.68913E+02  1.46159E+03 -4.61660E+03 -7.31935E+02
  1.19411E+03 -2.59510E+03 -4.36124E+02 -2.58548E+03  3.11918E+03 -6.05779E+03  7.93311E+03  2.92759E+02
  4.28612E+03  7.68017E+02  5.96897E+01  2.51437E+03 -2.38259E+03  6.59027E+03 -5.99183E+03  7.82899E+02
 -6.10243E+03  2.44122E+03 -8.26602E+03 -3.82270E+03  2.00257E+03 -4.20759E+03  5.41609E+03 -1.34525E+03
  4.28745E+03 -1.44534E+03  7.37003E+02 -3.15933E+03  8.09347E+02  6.10400E+03  4.94434E+03 -5.01950E+02
  4.03015E+03  5.53842E+02 -2.40603E+03  1.08035E+03  1.54242E+03  2.70386E+03  4.07994E+02  1.14899E+03
 -5.09390E+03  1.45722E+03 -4.23756E+03  3.10852E+03 -2.87696E+03  3.97788E+03 -5.57633E+03 -2.71218E+03
 -5.43747E+03 -8.32789E+03 -6.64748E+03 -5.43689E+03  5.34057E+03 -4.22298E+03  4.84647E+03 -1.99716E+03
  2.93842E+03  4.75635E+02  2.30360E+03  1.10110E+03 -2.13212E+03  5.44097E+02 -2.12764E+03  1.22657E+03
 -1.60330E+03 -2.29874E+03  1.01904E+03 -6.68828E+03  4.81289E+03  2.46205E+03  4.04578E+03  6.58311E+02
  3.18522E+03  6.15642E+02  4.90499E+03  1.69093E+03  4.54446E+03  1.36284E+03  8.89260E+02 -1.47266E+03
  3.87084E+03 -1.58059E+02  9.47714E+02 -3.96516E+03 -6.49419E+02  3.04570E+03 -3.22401E+03  1.28196E+03
 -1.68481E+03  9.60705E+02 -1.21332E+03 -1.47235E+03 -5.60912E+03  5.78195E+02 -4.91661E+03 -6.48022E+03
 -3.15690E+02 -6.63097E+02  1.04629E+03  1.44830E+03 -3.30306E+03  1.23774E+03 -4.81751E+03  2.25280E+03
  1.48208E+02  4.59650E+03  3.92955E+03 -6.15692E+03 -6.48531E+02 -2.35551E+03 -1.82153E+02 -1.05487E+03
 -2.38903E+03 -1.67206E+03 -1.56902E+03  2.34151E+02  2.71068E+03 -2.22643E+03 -2.32452E+01  1.41128E+03
  4.19479E+03 -2.79056E+02 -1.73414E+03 -1.49607E+03  1.92063E+03 -1.56157E+03  5.67213E+03 -2.21790E+03
  1.35758E+03  9.57039E+02  4.32158E+03  6.39303E+02  3.56618E+03  1.64474E+03 -5.85307E+01 -1.97002E+03
 -1.32977E+03  2.32706E+03 -7.13176E+01 -1.35830E+03 -1.31210E+03 -1.49805E+03 -1.72434E+02 -3.75372E+03
  1.53424E+02 -1.40864E+03  9.67602E+02  3.84246E+03  3.05805E+03 -2.71938E+02  1.88301E+03  2.09307E+03
  2.71415E+03  3.19537E+03  1.93723E+03 -2.94994E+03 -1.00073E+03  3.51193E+03 -3.96637E+03  1.36231E+03
 -5.31224E+02  3.13784E+03 -4.66977E+03  3.55248E+02 -6.48466E+03  3.48650E+02 -7.83726E+03 -5.41379E+03
 -1.50305E+03 -2.59648E+03  4.44104E+03 -6.14364E+03  5.27510E+03  8.01066E+01  1.14473E+02 -2.28767E+03
  2.89155E+03  1.29301E+03  2.34181E+02  2.43833E+03 -5.24744E+03  2.72256E+03 -5.93421E+02  1.83994E+03
  1.45582E+02  4.00947E+03 -2.71030E+03 -7.52913E+03  4.04582E+03  7.72286E+02  1.67072E+03 -1.62312E+02
 -5.08940E+03 -3.82094E+03 -1.49714E+03 -1.77327E+03 -2.96040E+02 -3.21447E+03 -2.07607E+03  4.69459E+03
  3.24561E+03 -1.67523E+03 -3.14090E+03  1.34353E+03 -5.60230E+02  2.95478E+02 -8.04128E+02  1.38195E+03
 -8.39073E+02  4.39080E+03 -1.43578E+03  2.52484E+03 -1.11801E+02 -1.39375E+03 -4.25110E+03 -1.42312E+03
 -1.53521E+03 -1.46389E+03 -1.50639E+00 -6.26410E+03  2.38664E+03 -8.98685E+02  1.70233E+03  7.47910E+02
  8.77860E+02  5.29992E+02  2.37008E+02  1.40648E+03  4.44816E+03 -4.13996E+01 -3.95973E+03 -2.75318E+03
  2.02501E+03  1.46682E+03 -2.92800E+03  3.17250E+03  8.72166E+02  1.06376E+03 -1.76863E+03  2.63320E+02
 -8.48770E+02  3.04063E+03 -2.00934E+03 -1.48465E+03 -2.10400E+03  2.78342E+03  1.78744E+03 -3.01609E+03
  1.74910E+02  8.77242E+02 -1.87159E+03 -2.21202E+03  4.12496E+02  8.11720E+02  1.73480E+03 -2.04591E+03
  2.72193E+03  1.10232E+03 -1.05826E+03  5.27799E+03 -1.77541E+03 -2.29919E+02  2.23515E+02 -2.92882E+02
 -4.15060E+03 -2.80618E+03 -3.74065E+03  2.18465E+03  8.77648E+02  4.77534E+02 -2.56991E+03  4.52885E+02
 -3.34153E+03 -7.64187E+02 -3.76511E+03 -2.49698E+03  2.16335E+03  8.05443E+02  6.89087E+00 -2.61783E+03
 -1.86695E+03 -5.60787E+03  6.74550E+03 -2.23726E+03  1.82754E+03  3.87727E+03 -1.30398E+03 -2.56574E+03
