 $NMID ID='MM_0lb_SNR50_20hz_g55_41.RAW', FMTDAT='(8E13.5)'
 TRAMP=1., VOLUME=1. $END
  3.07184E+05 -2.58440E+03  3.39767E+05  2.51233E+05  8.40913E+04  3.36520E+05 -1.33047E+05  2.46630E+05
 -1.91661E+05  8.14182E+04 -1.13228E+05 -2.93369E+04 -6.77447E+01 -4.26091E+04  5.17260E+04 -7.89505E+01
  3.48232E+04  5.07846E+04 -1.63014E+04  7.32511E+04 -6.58169E+04  6.21495E+04 -8.37859E+04  3.19058E+04
 -7.74774E+04 -8.56773E+03 -5.88845E+04 -4.95480E+04 -1.27787E+04 -6.57288E+04  2.53446E+04 -4.36273E+04
  3.99611E+04  2.33280E+03  1.81252E+04  4.41104E+04 -3.40060E+04  4.57642E+04 -6.98630E+04  2.98118E+03
 -5.20744E+04 -5.54285E+04 -7.74646E+03 -7.00976E+04  3.03240E+04 -5.34739E+04  4.57815E+04 -1.62444E+04
  4.25919E+04  7.00680E+03  3.23495E+04  2.35862E+04  1.41101E+04  3.12358E+04 -3.90164E+03  2.26660E+04
 -2.39371E+04  1.26054E+04 -1.83569E+04 -4.15826E+03  5.28021E+03 -1.04372E+04  2.03671E+04  8.35150E+03
  5.36217E+03  3.11738E+04 -2.89743E+04  3.44932E+04 -6.20898E+04  3.01288E+03 -5.32970E+04 -4.06977E+04
 -1.02550E+04 -6.31582E+04  3.48366E+04 -4.23255E+04  5.49274E+04 -7.37863E+02  3.31783E+04  2.90000E+04
 -5.70143E+03  3.43094E+04 -2.66777E+04  1.21207E+04 -2.82298E+04 -8.12939E+03 -1.71519E+04 -9.92996E+03
 -5.29393E+03 -1.13032E+04  1.43746E+03 -1.44486E+04  7.29801E+03 -2.24022E+04  2.05179E+04 -1.19591E+04
  1.20704E+04  3.40260E+03 -4.12367E+03  1.52485E+04 -2.52773E+04 -5.65708E+03 -3.80463E+03 -3.15317E+04
  2.04309E+04 -4.44765E+04  4.74532E+04 -2.24456E+04  3.96844E+04  1.91581E+04  9.21561E+03  4.60472E+04
 -1.69306E+04  2.91019E+04 -2.30371E+04 -1.62787E+03 -7.22518E+03 -2.63139E+04  2.32571E+04 -2.95268E+04
  4.03123E+04 -7.62491E+03  3.34049E+04  2.09111E+04  1.90183E+04  3.75135E+04 -8.73057E+03  4.77241E+04
 -2.88339E+04  3.20078E+04 -3.91044E+04  9.50177E+03 -3.57604E+04 -1.70951E+04 -1.89899E+04 -3.64030E+04
  1.10019E+04 -3.06249E+04  2.69119E+04 -1.38840E+04  2.37443E+04  9.28394E+03  3.60618E+03  1.69461E+04
 -8.73988E+03  1.13143E+04 -1.12962E+04 -1.13092E+04  6.60624E+03 -1.11733E+04  1.85643E+04  7.83560E+03
  1.05084E+04  2.28115E+04 -9.11767E+03  2.66767E+04 -1.84214E+04  6.06004E+03 -2.48139E+04 -6.79092E+03
 -1.59089E+04 -1.60289E+04 -4.37153E+03 -1.59560E+04  3.18706E+03 -1.92536E+04  1.14229E+04 -1.47387E+04
  2.11274E+04 -1.04032E+04  2.92492E+04  3.65252E+03  2.28994E+04  1.62093E+04  4.66921E+03  3.34137E+04
 -2.16761E+04  2.40853E+04 -2.48797E+04  9.26873E+03 -2.04759E+04 -1.25117E+04 -5.45253E+03 -1.39207E+04
  3.25624E+03 -3.98893E+03 -2.64950E+03  6.00917E+03 -1.20007E+04  8.18273E+03 -1.51796E+04 -6.65363E+03
 -1.21748E+04 -1.92393E+04  2.44383E+03 -1.69132E+04  1.21085E+04 -1.52386E+04  1.50785E+04  4.78047E+02
  9.72530E+03  9.32804E+03 -4.92277E+02  1.58478E+04 -1.03981E+04  5.95369E+03 -1.56691E+04 -1.62080E+03
 -8.30153E+03 -1.26981E+04 -7.50661E+02 -1.89622E+04  6.72882E+03 -1.44405E+04  1.68857E+04 -7.30675E+03
  1.34729E+04 -1.93186E+03  1.06118E+04  2.10718E+03  5.43949E+03  1.03605E+03  8.29861E+03 -9.19298E+03
  1.16629E+04  4.73541E+02  1.26238E+04  1.15760E+04  5.50257E+03  2.22434E+04 -3.59185E+03  2.12352E+04
 -1.34002E+04  2.00339E+04 -2.23151E+04  1.00271E+04 -2.31268E+04  6.90444E+02 -2.18907E+04 -1.51123E+04
 -8.66728E+03 -1.97268E+04  5.44950E+03 -1.64046E+04  1.72745E+04 -8.89426E+03  2.05234E+04  4.25276E+03
  1.04621E+04  1.11476E+04 -4.15994E+03  1.00540E+04 -1.27213E+04  2.89893E+03 -1.06411E+04 -2.34643E+03
  3.02474E+03 -6.71277E+03  7.94800E+03 -3.84645E+03  7.18746E+03 -9.00999E+02 -2.04194E+03  4.87927E+03
 -5.10733E+03  3.09446E+03 -7.36276E+02 -3.37091E+03 -9.39094E+02 -8.70229E+03  9.52253E+03 -1.15937E+04
  1.17671E+04 -3.01410E+03  1.37904E+04  8.10568E+02  1.35174E+04  8.22490E+03  5.14549E+03  1.25733E+04
 -2.45255E+03  1.47470E+04 -9.54158E+03  1.07162E+04 -1.14188E+04  1.74795E+03 -3.59058E+03  2.71160E+03
 -4.78392E+03 -1.33650E+03 -1.34964E+03  3.42772E+03 -4.00953E+03  2.28137E+03 -3.37340E+03  3.79971E+03
 -1.27681E+04 -8.73407E+01 -4.33983E+03 -9.34503E+03 -4.21183E+03 -1.21095E+04 -6.44115E+02 -7.29895E+03
  2.11937E+03 -4.97536E+03  5.56047E+03  2.39172E+03  8.83119E+01  3.09457E+03 -4.49504E+03  2.48823E+02
 -6.16074E+03 -5.88824E+03 -6.78231E+03 -1.04105E+04  8.35445E+03 -6.27800E+03  9.18251E+03 -3.19979E+03
  6.37621E+03 -9.47524E+02  8.24700E+03  5.72310E+03  3.88530E+03  7.18747E+03 -6.37979E+03  3.87507E+03
 -5.89041E+03  3.46473E+03 -2.80982E+03 -1.99521E+03 -1.11734E+03 -3.14615E+03  7.32149E+03 -2.58044E+03
  8.01225E+03  3.38649E+03 -4.66155E+02  5.96573E+03 -4.53238E+03  2.03238E+03 -1.08636E+04 -2.81321E+03
 -3.16870E+03 -5.89763E+03  1.83658E+03 -5.73079E+03  6.25995E+03 -2.26467E+03  1.84661E+03  2.35894E+03
  1.20579E+03  5.49104E+03 -8.24868E+03  7.52188E+03 -6.63730E+03  4.48318E+03 -4.53116E+03 -2.99345E+03
 -1.50632E+00 -3.02275E+03 -2.02608E+02 -4.81135E+03  3.31947E+03 -1.09203E+03  1.11457E+04  2.29655E+03
  4.20064E+03  4.41920E+03 -3.27233E+03  8.66363E+03 -7.06381E+03  7.92739E+03 -4.75758E+03  3.25778E+03
 -5.72521E+03 -3.05351E+03 -3.93581E+03  4.67896E+02  4.42591E+03 -4.94595E+03 -1.38611E+03 -1.61130E+03
  4.88955E+03 -9.39639E+02  4.28434E+01  2.84956E+02 -1.21789E+03  7.94026E+03 -1.10092E+03 -3.19817E+03
  2.56812E+03  3.06687E+03  5.56266E+03  1.17045E+03  6.18631E+03  3.21096E+03  8.57616E+02  1.07724E+04
 -1.32503E+03  6.85372E+03 -7.36525E+03  7.22904E+03 -6.49473E+03  3.43978E+03 -5.36423E+03 -2.94015E+03
 -2.49365E+03 -8.24507E+03  5.55731E+02 -2.88411E+03  4.23863E+02 -2.87653E+03  9.25692E+02 -2.96118E+03
  1.18081E+02 -3.28182E+02  5.33744E+03 -3.60516E+03 -1.52199E+03  1.02743E+03  2.88994E+03  2.80324E+03
  5.52477E+03  1.88502E+02  2.42027E+03  1.72051E+03  2.54140E+03  4.56401E+01 -1.79860E+03 -4.47891E+02
 -2.37495E+03 -1.35672E+03 -3.86777E+02 -7.86881E+03 -9.80863E+01 -2.02423E+03  2.69783E+03 -3.27375E+03
  2.10484E+02 -2.06779E+03  6.97683E+03  2.64846E+03  1.02608E+03  3.08206E+03  2.62585E+03  5.16643E+03
 -3.10208E+03  7.89229E+03 -2.51333E+03  2.12911E+03  4.86569E+02  1.83319E+03  2.72264E+03 -1.42619E+03
  6.41320E+02 -1.27022E+02 -3.22476E+03  4.39335E+03 -2.21635E+03  5.46713E+03 -1.36041E+03 -1.16888E+03
 -2.41871E+03 -1.40246E+03  2.95775E+03 -8.33525E+03 -3.17505E+03 -7.76740E+03  3.07174E+03  8.92014E+02
  1.24554E+03  2.86730E+03  1.28611E+03  1.62253E+03  1.18724E+03  3.58640E+03 -3.02361E+03 -3.61606E+02
 -1.12745E+02  1.96121E+03 -2.57719E+03  2.72546E+03 -6.07086E+02 -1.82714E+03  5.50995E+03 -3.74681E+03
  2.54848E+02 -2.09367E+03  3.95727E+03  2.67954E+02 -1.90098E+03  3.03711E+03  2.73655E+03 -3.18750E+02
 -6.86101E+02 -3.34020E+03  1.97517E+03 -3.03005E+03 -2.61601E+02 -8.46961E+02  3.81555E+03  1.89841E+03
  3.97400E+03  4.69727E+03 -1.64516E+03  9.36507E+03 -3.50639E+03  2.00414E+03 -9.92023E+01  1.04442E+03
 -2.43131E+03 -9.52600E+03 -1.04696E+03 -2.83529E+03  6.43760E+03  2.08242E+03  1.93913E+03  3.05888E+03
  1.94901E+03  1.13740E+02  1.81681E+03 -3.95377E+03 -6.70018E+02  2.53023E+03 -2.88636E+03 -9.22687E+02
 -1.93063E+03  2.31121E+03  6.97441E+02 -2.56136E+03  2.19625E+03  1.78398E+03  6.26437E+03  2.51511E+03
 -8.84433E+02  1.66192E+03  6.81584E+03 -2.03505E+03  4.46406E+03 -2.60069E+03  1.77767E+03 -3.31251E+01
  1.63624E+03 -2.74866E+03  1.20176E+03 -4.21830E+03 -2.69083E+03  1.26028E+03 -1.92253E+03  4.29021E+03
  2.82417E+03 -5.51898E+02 -2.54091E+03  4.28949E+03 -2.18767E+03  2.54077E+02 -1.53223E+03 -1.80100E+03
 -2.26983E+03 -3.75346E+03  4.44263E+03 -1.65786E+03  2.59140E+03  5.76397E+03 -1.43818E+02  5.28352E+03
 -3.00452E+03  3.13662E+03 -2.73814E+03  6.73879E+02 -5.24112E+03 -2.87724E+03  5.01708E+03 -2.59136E+03
 -2.78274E+03 -2.21336E+03  4.64141E+02 -5.33489E+02  3.54655E+02 -2.13714E+03 -7.01095E+02  1.63520E+03
  1.44258E+03 -2.70393E+03 -1.18685E+03 -5.62046E+02  1.85627E+03 -7.14216E+02  1.91124E+03 -1.19473E+03
 -3.24262E+02  1.97106E+01  5.33527E+03 -1.13061E+02  6.15068E+03  1.84434E+02 -2.62654E+03  3.34009E+03
 -4.80120E+02  1.06526E+03 -3.30067E+02  1.26833E+03  1.11219E+03 -2.05998E+03 -2.86310E+03 -3.06838E+03
 -2.11821E+02 -1.34492E+03  1.10324E+03  1.17441E+03 -2.35640E+03 -3.25337E+03  2.65247E+03 -2.32469E+03
 -3.57173E+03 -1.42090E+03  4.98786E+03 -2.30580E+03 -4.39233E+00 -5.13086E+02  2.58850E+03  1.33161E+03
  2.15650E+03 -3.14371E+03 -5.15585E+03 -1.73738E+03 -1.01164E+03  7.62532E+02 -4.53373E+03  3.32752E+02
  1.67151E+02 -4.27137E+03  4.98608E+02  9.10669E+02  2.07265E+03 -4.84749E+03  4.18873E+03  2.08992E+01
  3.46422E+03  1.04102E+03  1.10936E+03  2.22336E+03 -2.80726E+03  8.76398E+02 -4.09470E+03  3.32761E+03
  5.15969E+03  1.08998E+02 -7.30964E+02  7.91918E+02  4.28944E+03  1.32983E+03 -3.97670E+03 -3.33702E+03
  8.29125E+02 -2.53860E+02 -2.24782E+03 -8.21543E+02  2.53785E+03 -1.80626E+03 -1.07415E+03 -7.41499E+03
  2.93708E+03  4.51038E+03  1.20588E+03  1.53528E+03  4.55051E+03 -5.53242E+03  3.16445E+03  2.78682E+02
 -2.23473E+03 -4.72116E+02 -5.04822E+03 -2.43467E+03 -2.05741E+03  1.87700E+02 -6.78056E+02 -3.62905E+03
  2.38461E+03  4.51688E+02 -2.38141E+03 -1.53996E+03  2.85381E+03  2.67331E+02  1.93817E+03 -3.75178E+03
  7.79870E+02  3.61664E+02  4.14080E+02 -1.69361E+03 -1.95921E+03  6.03866E+03  1.16610E+03 -1.37972E+03
 -3.02679E+01 -6.50036E+02 -1.32621E+03  9.11362E+02 -6.13546E+02  1.60087E+03 -1.68270E+03  3.63374E+03
  3.41597E+01  3.57891E+03  2.53838E+03  2.22946E+03 -1.75014E+03  2.44318E+03 -2.85134E+03 -2.17053E+03
  5.35155E+03 -3.37231E+03 -4.29863E+03  1.69301E+02 -4.60835E+03 -4.02837E+03  4.45546E+03  5.45810E+03
 -1.10440E+03  2.72839E+03  1.86633E+03  2.15570E+03 -1.74794E+03  1.22187E+03 -5.58421E+03  3.38889E+03
  3.80260E+03  3.10356E+03 -9.14069E+02  2.04353E+03 -4.15923E+02  1.46878E+03  1.06131E+03  2.45073E+03
  4.05600E+02  3.66453E+03  2.13335E+03  5.75412E+02 -2.38445E+03  1.57600E+03  9.70528E+02  1.00947E+02
 -3.13451E+02 -1.86238E+03 -1.49576E+03  1.34428E+03 -3.44979E+03  4.54198E+02  5.54366E+02  1.70824E+03
