 $NMID ID='MM_0lb_SNR50_14hz_g40_82.RAW', FMTDAT='(8E13.5)'
 TRAMP=1., VOLUME=1. $END
  3.10980E+05  3.01019E+03  3.40909E+05  2.48265E+05  8.60484E+04  3.38992E+05 -1.36617E+05  2.48966E+05
 -1.90704E+05  8.57637E+04 -1.10808E+05 -3.34136E+04 -1.61537E+02 -5.28576E+04  5.50696E+04 -2.73275E+03
  3.83744E+04  5.56402E+04 -1.71423E+04  7.21088E+04 -6.03243E+04  6.34669E+04 -8.34837E+04  3.29457E+04
 -7.97360E+04 -9.39908E+03 -5.89859E+04 -4.67891E+04 -1.74038E+04 -6.86981E+04  3.09298E+04 -4.05677E+04
  3.89664E+04  8.30507E+02  1.76062E+04  4.78774E+04 -3.68756E+04  4.75431E+04 -6.79807E+04  2.38789E+03
 -5.04416E+04 -5.68654E+04 -8.45194E+03 -7.53792E+04  3.47020E+04 -5.24592E+04  4.66333E+04 -1.68316E+04
  4.97454E+04  1.35705E+04  3.22941E+04  2.41237E+04  1.27962E+04  3.04454E+04 -4.60156E+03  2.69379E+04
 -2.35394E+04  9.70809E+03 -1.49617E+04 -2.07354E+03  7.55959E+03 -5.86880E+03  2.03237E+04  1.15706E+04
  5.92149E+03  3.96341E+04 -3.04174E+04  3.56690E+04 -6.25129E+04  6.94031E+02 -5.24640E+04 -4.50591E+04
 -1.29968E+04 -6.13853E+04  3.87530E+04 -4.59152E+04  5.76107E+04 -2.14383E+03  3.60005E+04  3.01826E+04
 -3.52290E+03  3.37814E+04 -3.12665E+04  1.79917E+04 -3.06253E+04 -2.06344E+03 -1.36003E+04 -1.22145E+04
 -1.19162E+04 -1.53584E+04 -6.85911E+03 -1.48172E+04  8.25397E+03 -2.19769E+04  1.43751E+04 -9.36835E+03
  9.06852E+03  2.49238E+03 -7.23290E+03  1.25673E+04 -2.15112E+04 -3.77329E+03 -1.02298E+04 -3.54769E+04
  2.38355E+04 -4.64896E+04  4.70031E+04 -2.41370E+04  4.73021E+04  1.57377E+04  1.55683E+04  3.93760E+04
 -1.59868E+04  3.23601E+04 -2.63079E+04 -4.85724E+03 -1.06312E+04 -2.70736E+04  2.09503E+04 -3.70380E+04
  4.21454E+04 -1.14653E+04  3.19283E+04  2.22734E+04  2.11931E+04  4.57848E+04 -7.67011E+03  4.62473E+04
 -3.06839E+04  3.55054E+04 -3.97102E+04  9.39544E+03 -3.88371E+04 -1.39250E+04 -2.03067E+04 -3.41085E+04
  7.32340E+03 -3.36248E+04  3.27457E+04 -1.24726E+04  2.94487E+04  1.61595E+04  4.47887E+03  1.87975E+04
 -9.77635E+03  4.69612E+03 -1.03052E+04 -6.56850E+03  3.17446E+03 -5.81297E+03  1.75208E+04  2.01836E+03
  9.46102E+03  1.97104E+04 -5.55878E+03  2.39665E+04 -2.24428E+04  9.00010E+03 -2.86568E+04 -8.00647E+03
 -1.90730E+04 -1.77639E+04 -1.04976E+04 -2.15346E+04  9.50220E+03 -1.77225E+04  1.12507E+04 -2.35752E+04
  2.93493E+04 -8.44005E+03  3.11327E+04  3.16036E+03  2.18713E+04  2.05922E+04  6.08063E+03  3.75710E+04
 -2.17139E+04  2.90380E+04 -2.79403E+04  1.12844E+04 -1.92831E+04 -9.54572E+03 -3.22615E+03 -1.01113E+04
  8.30213E+03 -2.74283E+03 -6.23579E+03  1.06360E+04 -1.95883E+04  6.92296E+03 -1.34911E+04 -4.81767E+03
 -8.21155E+03 -2.25786E+04  6.59090E+03 -2.31798E+04  1.33978E+04 -1.51007E+04  1.31174E+04 -4.60669E+03
  9.94880E+03  1.59558E+04 -1.99152E+03  1.91571E+04 -1.24608E+04  5.78364E+03 -1.84995E+04 -3.65724E+03
 -1.04704E+04 -1.33773E+04  4.29293E+02 -2.01111E+04  8.70667E+03 -1.71134E+04  1.88527E+04 -1.37141E+04
  1.67941E+04 -7.65336E+02  1.13059E+04  1.73713E+03  5.86425E+03 -6.93608E+03  8.26770E+03 -2.42710E+03
  1.18048E+04  2.17417E+03  1.63291E+04  1.74055E+04  1.23869E+04  3.63156E+04 -4.12120E+03  3.42587E+04
 -2.75307E+04  2.62194E+04 -3.36264E+04  1.47959E+04 -3.12057E+04 -2.92527E+03 -2.74573E+04 -1.38676E+04
 -1.26361E+04 -3.25124E+04  1.05166E+04 -2.23719E+04  1.95688E+04 -7.18192E+03  1.77996E+04  4.84714E+03
  8.35979E+03  1.47242E+04 -5.24608E+03  1.37410E+04 -1.23109E+04 -2.98127E+03 -8.13777E+03 -9.95692E+03
  2.39686E+03 -1.14736E+04  6.77053E+03 -1.06534E+04  8.47822E+03 -3.85132E+03  3.48701E+03  2.77391E+03
 -9.08398E+03  1.01574E+03 -2.40875E+03 -6.01106E+03  9.20467E+03 -1.60861E+04  6.53359E+03 -1.31682E+04
  1.16153E+04 -8.37619E+03  1.73217E+04  5.28175E+03  1.57736E+04  1.48888E+04  8.48991E+03  1.63484E+04
 -2.81305E+03  1.98534E+04 -1.32158E+04  1.35211E+04 -1.45577E+04  4.21438E+03 -1.10272E+04 -4.92387E+03
 -2.02402E+03  6.90993E+01 -4.16932E+03 -2.24662E+02 -1.61071E+03  5.74446E+03 -5.28589E+03  6.41611E+03
 -1.22111E+04 -1.00349E+03 -1.33842E+04 -7.71185E+03 -4.14323E+03 -1.30180E+04  8.97976E+03 -1.13099E+04
  9.02845E+03 -4.30239E+03  3.66703E+03  6.93933E+02  2.54919E+02  6.48973E+03 -4.70335E+03  1.62059E+02
 -3.41454E+03 -5.70485E+03 -1.62830E+03 -1.38583E+04  3.73191E+03 -9.09530E+03  1.37740E+04 -1.43338E+03
  1.68639E+04  1.81003E+03  1.37049E+04  1.05579E+04  6.93093E+03  1.42531E+04 -8.86225E+03  1.01136E+04
 -9.07042E+03 -2.80923E+03 -8.81460E+02 -5.39800E+03  1.96494E+03 -2.16957E+03  7.21174E+03  4.96679E+02
  8.63770E+03  3.08521E+03 -4.34593E+03  3.01599E+03 -8.08735E+03  8.75740E+03 -1.05484E+04  5.01994E+03
 -5.78033E+03 -2.20903E+03  4.63312E+03 -7.70557E+03  5.47672E+03 -3.72179E+03  4.33259E+03  3.49719E+03
  4.80942E+03  5.60809E+03 -1.72612E+03  1.50620E+03 -8.95177E+02  9.94245E+02 -7.21006E+03 -2.81099E+03
 -5.16423E+03 -5.35771E+03 -3.72580E+03 -1.29881E+04  8.64163E+03 -1.67401E+03  7.98284E+03 -1.06372E+03
  7.89478E+03  5.86845E+03  3.06128E+03  1.01679E+04 -8.58767E+03  6.37041E+03 -7.29616E+02 -1.55376E+03
 -4.08403E+03 -5.87906E+03 -1.25677E+03 -7.63817E+03  7.51576E+03 -5.81752E+03  5.79575E+03 -2.16395E+03
  5.22029E+03 -4.30945E+03  4.78831E+03  3.91486E+03 -7.53730E+03  1.76514E+02  1.36386E+03 -3.45893E+03
  1.11057E+04  1.05566E+03  9.76853E+03  1.83086E+01  5.08726E+03  4.23603E+03  8.59383E+03  1.17135E+04
  6.86496E+02  1.31949E+04 -9.92455E+03  1.04715E+04 -1.39536E+04 -2.49247E+02 -9.48030E+03 -6.38219E+03
  3.14825E+02 -6.96014E+03 -5.82374E+02 -5.85520E+03  7.62723E+03 -4.10017E+03  5.53644E+03 -3.72745E+03
  2.44169E+03 -1.75245E+03 -1.88906E+03  3.91561E+03  9.36640E+03  3.61310E+02 -4.83051E+02 -3.44860E+03
  6.93386E+03 -2.37677E+03  5.82074E+03  1.21890E+03 -3.22602E+03  7.04623E+03 -4.20470E+03  2.60630E+03
 -8.22941E+03 -2.19950E+03 -2.96302E+03 -7.80720E+03 -1.39050E+03 -9.15680E+03  5.45576E+03 -1.29211E+04
  1.02691E+04 -6.81076E+03  8.93427E+03  3.85994E+03  3.45063E+03  5.08237E+03 -5.15225E+03  6.06272E+03
  2.05089E+02  1.40192E+04 -6.82092E+03  5.22798E+03 -4.59257E+03 -1.62647E+03 -3.97364E+02 -4.16707E+03
  1.55365E+03  5.60817E+03 -2.05844E+02  3.79110E+03 -4.08121E+03  3.20089E+03 -6.81112E+03 -8.25685E+02
 -3.87826E+03 -5.15738E+03 -3.28414E+01 -3.66278E+03  5.61140E+03 -6.18833E+03  7.72499E+03 -3.65640E+03
  9.05106E+03  1.77728E+03  6.56581E+03  7.44823E+03 -1.71795E+03  6.35062E+03 -8.64982E+03  4.69068E+03
 -7.66426E+03  1.58020E+03 -7.41730E+03 -4.19995E+03  3.58446E+01  9.79690E+02  1.46392E+03 -4.29797E+03
  3.81004E+03 -2.56019E+03  7.88857E+02  2.84434E+03  1.87663E+03  5.22885E+03  2.72133E+03  2.77744E+03
  2.33535E+03 -3.52080E+03  1.40000E+03  1.77559E+03  2.13100E+03  6.98760E+03  3.77012E+03  2.47412E+03
  7.84585E+01  1.13772E+04 -2.82353E+03  1.04413E+04 -4.56554E+03  4.94130E+03 -1.23468E+04 -1.56460E+03
 -1.86251E+03 -1.10514E+04  1.65250E+03 -1.19482E+04  3.43065E+03 -8.07697E+03  3.75617E+03  4.35380E+03
  4.55864E+03  3.89902E+03 -1.08504E+03  3.69687E+03 -1.49378E+03  1.06601E+03 -5.44794E+03  1.99165E+03
  4.74893E+03 -2.17539E+03  3.07296E+03 -4.43893E+03  3.05660E+03 -1.14204E+04  7.54696E+02 -1.54465E+03
  1.31934E+03  3.74646E+02  1.60703E+03  2.41196E+03  4.14117E+03  6.52468E+03  3.12067E+03 -1.99923E+03
 -3.87573E+02  2.78714E+03  4.98861E+02  8.82481E+02  1.12927E+03  5.11737E+03 -1.78285E+03  6.83616E+03
 -4.75273E+03  4.27231E+03  2.76017E+02  3.08168E+02 -4.89689E+03  1.75604E+03 -1.57141E+03 -4.27668E+03
 -1.21863E+03 -4.42816E+03  1.75256E+03  1.26555E+03  3.24713E+03  2.32979E+03 -3.90827E+03 -2.70784E+03
 -7.56304E+03  1.73539E+01 -5.32959E+03 -2.16277E+03 -8.11483E+02 -1.82107E+03  1.70008E+03 -3.33444E+03
 -1.76902E+03 -1.02951E+02  6.73517E+03  1.35918E+03  6.23347E+02  5.04009E+02  1.47482E+03  1.49730E+03
 -3.48353E+02  1.28318E+03 -2.25246E+03 -3.08839E+03 -1.59569E+01 -1.29106E+03  1.47987E+03  2.08890E+02
  2.53604E+03 -2.49251E+03  3.24845E+03 -4.36268E+02  2.49077E+03  6.71123E+03 -6.59439E+02  7.77648E+02
 -1.06133E+04 -3.67654E+02 -2.71300E+03 -6.65613E+02 -2.30320E+03 -3.54150E+03  2.89296E+02 -1.59606E+03
  5.66547E+03  4.29925E+03 -1.16625E+03  1.54618E+03 -6.72938E+02  7.22387E+02 -4.06493E+03 -8.39751E+00
 -8.24318E+02 -1.28276E+03  1.03080E+03 -1.28866E+03 -2.00511E+03  2.80714E+03  5.80553E+03 -1.83302E+03
 -6.70477E+02  1.98967E+03 -1.35434E+03  2.05348E+03 -3.98954E+03 -1.38399E+03 -6.07635E+03 -5.11662E+03
  4.80389E+02 -4.72035E+03 -1.73963E+03 -7.25691E+03  4.98165E+03 -3.94843E+03  1.10268E+04  4.00193E+02
  4.08774E+03  2.03357E+03  4.15595E+02  1.38091E+03 -1.91698E+03  3.67645E+03 -8.16175E+03  5.73008E+03
  3.84974E+02 -3.72272E+02  1.41472E+03 -6.89551E+02  1.15594E+03 -2.08714E+03  2.43705E+03  1.03657E+02
 -3.67331E+03  1.46928E+03 -3.60384E+03  2.04950E+03 -5.23309E+02 -5.77439E+02 -5.94745E+03 -2.79580E+03
  2.49487E+03 -6.39776E+03  4.35338E+03 -9.37419E+01  1.54106E+02  3.91645E+03 -4.57951E+03  3.33058E+03
  1.93653E+03  5.94554E+03 -3.82780E+03  5.03409E+03 -5.48010E+03  2.05440E+03 -6.34132E+03 -4.58545E+03
 -1.59990E+03 -7.81598E+03  4.61264E+03 -6.50004E+03 -3.23687E+03 -2.68224E+03  2.24735E+03  1.85054E+03
  3.98085E+03  5.44548E+03 -3.99207E+02  3.09349E+03 -6.69073E+02 -1.12189E+03 -2.51890E+03 -7.90517E+03
  1.76885E+03 -3.01947E+03 -4.94352E+02  5.11310E+03 -7.12247E+02  2.06110E+03 -3.29505E+03  2.47579E+03
  7.86131E+02  5.70760E+02 -1.69504E+03 -1.86120E+03 -2.66760E+03 -2.00405E+03  1.98918E+03 -3.07255E+03
  3.84655E+03 -2.56070E+03  1.69210E+03 -2.57884E+03  2.78570E+03 -4.02489E+03  3.45218E+03  1.94469E+03
  3.53417E+02 -2.00589E+03 -2.13474E+02  2.64662E+03  3.71536E+00  1.95766E+03 -3.82095E+03 -1.99974E+03
 -1.36753E+03  2.71904E+02 -1.72950E+03 -2.04428E+02  1.50291E+03  1.64863E+02 -1.60971E+03  2.12793E+03
 -1.90182E+03 -1.66326E+03 -2.26036E+03 -3.24246E+03  3.01270E+03 -1.36089E+03  2.96371E+03 -5.38846E+02
  4.01391E+03 -2.11500E+03  3.98418E+03  3.71810E+03 -1.62392E+03  6.60109E+03  1.58422E+03  9.91684E+02
