 $NMID ID='MM_0lb_SNR50_16hz_g45_95.RAW', FMTDAT='(8E13.5)'
 TRAMP=1., VOLUME=1. $END
  3.11434E+05 -5.53783E+02  3.38117E+05  2.52673E+05  8.22025E+04  3.39057E+05 -1.29889E+05  2.52122E+05
 -1.90236E+05  8.72468E+04 -1.11450E+05 -2.84781E+04  5.15543E+03 -4.99535E+04  5.11821E+04  9.62975E+02
  3.40451E+04  5.13634E+04 -1.85844E+04  7.45699E+04 -5.88985E+04  6.28256E+04 -8.40061E+04  3.00796E+04
 -8.12995E+04 -1.29831E+04 -5.26870E+04 -5.23004E+04 -1.44719E+04 -7.25952E+04  2.55010E+04 -4.44422E+04
  4.58695E+04  3.88169E+03  1.88221E+04  4.67483E+04 -3.33578E+04  4.48415E+04 -6.50253E+04  2.56260E+03
 -5.62788E+04 -5.25359E+04 -5.65029E+03 -7.71913E+04  3.66529E+04 -5.18802E+04  4.94557E+04 -1.47315E+04
  4.19491E+04  1.63255E+04  2.93925E+04  3.19324E+04  1.55567E+04  2.73871E+04 -4.80611E+03  2.72642E+04
 -1.90961E+04  1.15808E+04 -1.77938E+04 -6.59551E+03  4.30709E+03 -2.71394E+03  2.33567E+04  1.25781E+04
  1.22655E+04  3.11865E+04 -3.14045E+04  3.44099E+04 -6.07009E+04  3.24356E+03 -5.36360E+04 -4.06806E+04
 -1.40848E+04 -6.19059E+04  3.70779E+04 -4.64426E+04  5.54102E+04  8.33721E+02  3.46093E+04  2.77615E+04
 -8.95938E+03  3.23396E+04 -2.86561E+04  1.69424E+04 -2.79294E+04 -2.04996E+03 -1.75075E+04 -1.43505E+04
 -4.14175E+03 -1.17135E+04 -2.92219E+02 -1.71906E+04  7.81219E+03 -2.19322E+04  1.07166E+04 -1.54334E+04
  1.24081E+04  8.95716E+03 -8.68915E+03  1.41430E+04 -2.43062E+04 -2.11987E+03 -5.17013E+03 -3.33110E+04
  2.51672E+04 -3.84862E+04  4.73232E+04 -2.33270E+04  4.15528E+04  2.10947E+04  1.66058E+04  3.38887E+04
 -1.44126E+04  3.10488E+04 -2.29076E+04  9.47162E+02 -8.76989E+03 -2.62889E+04  2.22833E+04 -3.22886E+04
  3.87204E+04 -6.59678E+03  3.42731E+04  2.22978E+04  1.38312E+04  4.32165E+04 -8.35494E+03  4.72218E+04
 -2.88811E+04  2.89637E+04 -4.22588E+04  5.87587E+03 -3.83234E+04 -1.72995E+04 -2.47251E+04 -3.66300E+04
  5.22462E+03 -3.64264E+04  3.26716E+04 -1.27990E+04  2.76686E+04  1.21838E+04  3.90124E+03  1.79607E+04
 -2.01651E+04  9.67404E+03 -4.52714E+03 -6.74188E+03  5.84982E+03 -1.07504E+04  1.84459E+04  3.72658E+03
  6.08319E+03  2.00685E+04 -9.58774E+03  2.31103E+04 -2.15601E+04  1.28896E+04 -3.12435E+04 -7.86771E+03
 -1.58896E+04 -1.86238E+04 -4.06100E+03 -1.79811E+04  8.53577E+03 -1.76680E+04  1.45257E+04 -1.56033E+04
  2.38410E+04 -9.90476E+03  3.57847E+04  1.69463E+01  2.02275E+04  2.08755E+04  1.24674E+03  3.33082E+04
 -1.25650E+04  2.98490E+04 -3.23759E+04  7.21034E+03 -2.36137E+04 -7.12542E+03 -5.24169E+03 -1.03739E+04
 -1.25344E+03 -2.09715E+03  1.51047E+02  7.76123E+03 -1.16275E+04  3.54240E+03 -1.22035E+04 -5.10608E+03
 -1.29473E+04 -1.97980E+04  1.05396E+04 -1.83239E+04  1.55811E+04 -1.54324E+04  1.54443E+04  2.01585E+03
  8.95627E+03  1.47750E+04 -2.33649E+03  2.04030E+04 -1.27557E+04  8.05642E+03 -1.85161E+04 -2.37386E+03
 -1.53280E+04 -1.50717E+04  2.75783E+03 -2.11718E+04  9.53157E+03 -1.29861E+04  1.61048E+04 -7.65799E+03
  2.00638E+04 -3.58686E+03  1.32784E+04 -7.83036E+02  6.14155E+03 -1.22610E+02  1.11731E+04  1.09379E+03
  1.42896E+04  3.07936E+03  1.57368E+04  1.66615E+04  7.80440E+03  2.54138E+04 -8.14568E+02  2.68875E+04
 -1.66285E+04  2.37114E+04 -2.88529E+04  8.49229E+03 -2.98769E+04  9.95571E+01 -2.10794E+04 -1.69735E+04
 -1.13030E+04 -2.39342E+04  7.62754E+03 -2.56711E+04  1.68695E+04 -1.50275E+04  1.98209E+04  6.50648E+03
  6.77599E+03  1.74600E+04 -4.14646E+03  1.03719E+04 -1.55213E+04 -6.94809E+02 -1.11870E+04 -1.02157E+04
  6.29169E+02 -1.24460E+04  7.01642E+03 -1.31165E+04  1.18570E+04  3.61894E+02  1.78847E+03  6.59944E+03
 -5.74338E+03  1.51250E+03 -5.92855E+03 -4.42114E+03  2.68041E+03 -1.69736E+04  8.17357E+03 -1.57687E+04
  1.51634E+04 -7.03187E+03  1.72050E+04  6.06797E+03  1.15953E+04  7.22020E+03  4.19325E+03  1.55292E+04
 -5.65117E+02  1.92487E+04 -1.01953E+04  7.76232E+03 -1.00190E+04 -7.34788E+02 -8.31529E+03  9.37708E+02
 -5.15105E+03 -6.53114E+03 -9.63904E+02  3.90088E+03 -8.45159E+02  7.81258E+03 -6.85274E+03  8.72143E+03
 -6.73066E+03 -6.32154E+02 -9.81809E+03 -1.13267E+04 -5.66402E+03 -1.69329E+04  6.69998E+03 -1.22890E+04
  9.57075E+03 -8.87645E+03  7.43541E+03  3.66033E+03  3.96342E+02  3.85083E+03  3.16176E+02  3.80774E+03
 -4.04398E+03 -4.80026E+03  1.65020E+03 -1.34815E+04  7.83388E+03 -7.60013E+03  1.15594E+04 -2.99251E+03
  1.56089E+04 -3.07327E+03  1.04836E+04  1.31616E+04  2.36342E+03  1.08779E+04 -7.25953E+03  8.04254E+03
 -7.74536E+03 -1.28715E+02 -5.02332E+03  3.33668E+03  4.24577E+03 -1.01198E+03  2.61029E+03 -1.96204E+03
  1.09942E+04  1.92267E+03 -1.65304E+03  5.79966E+03 -6.51349E+03  1.08462E+04 -5.48181E+03  1.45149E+03
 -9.73636E+03 -1.46277E+03 -5.24432E+03 -5.67969E+03  5.46581E+03 -3.79266E+03  2.67611E+03  4.80195E+03
  2.94371E+03  6.21935E+03 -7.05463E+03  4.75058E+03 -7.53137E+03 -8.18822E+02 -5.45540E+03 -2.80792E+03
 -6.15890E+03 -3.30522E+03  1.18445E+03 -6.17597E+03  5.46538E+03 -9.46515E+03  6.26396E+03  3.50499E+03
  4.44800E+03  7.40767E+03  1.16673E+03  1.00622E+04 -8.33294E+03  6.45449E+03 -8.41467E+03 -2.03746E+03
 -6.98538E+03 -2.50380E+03 -1.58343E+03 -7.22129E+03  6.53422E+03 -6.59709E+03  6.19817E+02 -2.74433E+03
  7.31661E+02  1.31083E+03 -1.09686E+03 -7.62161E+02  3.09742E+03  2.05227E+03  7.31701E+02 -3.35268E+03
 -1.24333E+03 -3.07198E+02  4.48556E+03  4.61800E+02  7.51421E+03  3.78956E+02  9.05955E+03  8.86071E+03
  6.17224E+01  1.26855E+04 -1.11328E+04  6.10051E+03 -1.27008E+04  2.37843E+02 -1.39349E+04 -4.35662E+03
 -4.91842E+03 -1.12752E+04 -2.70671E+03 -4.12075E+03  7.88857E+02 -3.03508E+02  4.16598E+03 -2.09030E+03
 -3.17996E+03 -2.27793E+03 -2.07779E+03 -2.86493E+03  5.50450E+03 -2.77652E+03  6.32247E+03  8.57660E+02
  7.82272E+03  8.29722E+02  2.38833E+03  7.77053E+03 -2.12098E+03  6.20773E+03 -5.99431E+03  4.00503E+03
 -8.65929E+03  1.02515E+01 -5.75495E+03 -1.73443E+03  1.10935E+03 -8.59455E+03  6.65824E+03 -3.53572E+03
  4.12797E+03 -4.48233E+03  9.81754E+03 -6.87625E+02  1.00376E+04  6.37821E+03 -5.98015E+01  7.13086E+03
 -3.76129E+03  5.78359E+03 -4.97223E+03  1.25773E+03 -1.72919E+03  1.15092E+03 -2.77770E+03 -1.52465E+03
  1.91743E+03  5.13911E+02 -1.60034E+03  6.81282E+03 -5.13633E+03 -3.48572E+03 -2.58468E+03  5.23369E+02
 -4.44763E+03 -7.33001E+03  1.27617E+03 -3.57738E+03  5.20305E+03 -9.00704E+03  1.02649E+03 -8.96685E+02
  6.08816E+03  4.19917E+03 -7.22767E+02  7.29349E+03  1.56525E+03  6.27071E+03 -1.28757E+03  1.01622E+04
 -5.52247E+03  2.51803E+03 -1.77783E+03 -2.75532E+03 -2.71457E+03 -6.84755E+03  3.20834E+03 -5.79894E+03
  4.59302E+03  4.69456E+01  1.02762E+03  2.36956E+03  1.10210E+03  1.27922E+02  3.13570E+03 -3.28377E+02
  1.88454E+03  2.10744E+03  1.41129E+03  2.63222E+03  2.87058E+03 -3.71730E+02  4.41743E+03  3.43189E+03
 -9.06132E+02  7.32044E+03 -4.63500E+03  6.11517E+03 -8.40007E+03  1.03150E+03 -6.93499E+03 -2.30637E+03
 -2.35554E+03 -4.94667E+03 -4.82913E+02 -4.45441E+03  2.90354E+03 -7.51736E+03  2.41151E+03 -3.74184E+02
  4.64096E+03  1.51411E+03 -1.10933E+03  2.25825E+03  1.88641E+02  3.87648E+03 -6.45996E+02  5.06493E+03
 -4.83794E+03 -2.01984E+03  2.55345E+03 -6.08113E+02  5.98468E+03 -6.04540E+03  1.78094E+03  7.75097E+03
  2.97733E+03  2.83841E+03 -4.09937E+02  1.41677E+03  1.26977E+03 -1.52866E+03 -4.17672E+02  2.33140E+02
  1.65822E+03 -4.17823E+02  4.25588E+02 -2.76662E+02  5.88514E+03  6.86347E+03 -3.42285E+03  3.09820E+03
 -3.42699E+03  2.04066E+03 -4.85548E+02 -7.37242E+01 -8.33307E+03 -2.01069E+03  2.38336E+02 -1.83941E+03
 -1.25522E+03 -2.58252E+03  2.18970E+03 -1.30385E+03  4.73645E+02 -3.81547E+02  5.64425E+02 -4.08966E+02
  3.26808E+02  5.87781E+02 -4.02503E+03 -7.10627E+03  1.44247E+01 -1.53337E+03 -1.92795E+02 -2.05258E+03
  1.48061E+03 -8.36475E+02 -7.10009E+01 -3.20997E+03  4.49329E+02 -2.44348E+02 -2.14339E+03  5.42965E+03
 -8.76781E+02 -1.77760E+03 -1.14837E+03 -4.58325E+03  4.01736E+03 -1.51648E+03  8.41966E+03  1.37836E+02
  2.86243E+03  2.05049E+03  5.22822E+03  4.37440E+03 -3.20082E+03 -1.22491E+03  8.98307E+01  5.46082E+03
 -5.81194E+03 -1.66228E+02  4.01325E+03  6.56969E+03  5.06765E+02 -1.53049E+03 -1.79940E+03 -6.17184E+02
  1.51297E+03 -3.37503E+03  3.81782E+03  2.09242E+03 -1.22213E+03 -7.28442E+02  6.89012E+01 -1.22222E+02
  8.29743E+02 -2.76220E+03  5.51685E+02  1.76089E+01  2.03870E+03  1.05207E+03 -6.69995E+02  1.87109E+03
  7.88426E+02 -1.43837E+03  2.07187E+02  1.04698E+03  1.04023E+03 -8.75435E+02 -5.47524E+03 -3.60833E+03
 -3.08188E+03 -3.98884E+03  1.81328E+03 -8.00908E+03  3.03702E+03 -4.41241E+03  5.18480E+03 -9.13591E+02
 -2.53801E+02 -1.84250E+02  6.18390E+03  5.65689E+03  1.01648E+03  1.31623E+03  7.33637E+02  3.57993E+03
 -2.25821E+03  9.41897E+02 -3.83731E+03 -7.24641E+01  2.05145E+02 -2.13630E+03 -3.01959E+03  4.30759E+03
  4.09784E+02 -1.74941E+03 -3.52748E+03  1.22800E+03 -3.11183E+03  3.43380E+02 -5.05980E+03 -4.26384E+03
  3.24544E+03 -1.36260E+03  2.26263E+03  8.03022E+02  2.22184E+03  1.66262E+03 -1.12343E+03  2.81036E+03
 -1.46995E+03 -6.58974E+01 -5.33585E+03  3.69644E+03 -3.28342E+03 -1.01569E+03 -5.56563E+03 -1.76107E+03
 -3.31782E+03 -3.66933E+03  1.88067E+03 -1.58431E+03  2.08758E+03 -1.63632E+03  2.29697E+03 -9.40549E+01
  4.70803E+03 -6.06659E+03 -3.72372E+03  5.59273E+02  2.05460E+03 -6.07958E+02  2.84746E+01 -1.22814E+03
  2.46410E+03 -1.86037E+03 -3.47441E+03 -1.50109E+02  3.42048E+02  1.84956E+03 -2.05205E+03  5.84623E+03
 -6.79695E+03  4.09969E+03 -4.47226E+02 -2.44683E+02 -2.72317E+03  3.92647E+03 -2.82959E+03 -7.28372E+02
  4.04433E+02  1.21917E+01 -1.22351E+03 -3.92084E+03  4.31869E+03 -6.35486E+02  3.29386E+03 -3.30881E+02
 -4.20341E+03  2.85040E+03  2.65411E+03  1.12395E+03 -5.26748E+03 -1.23183E+03  8.66253E+02 -1.52886E+03
  4.52697E+02  3.03202E+03  2.85275E+02  1.83518E+03 -1.39022E+02 -1.81270E+03 -2.06838E+03 -4.32144E+03
 -6.15610E+03 -4.46432E+00 -4.13661E+03 -2.92507E+03 -5.18980E+03 -3.63990E+03  1.94940E+03  2.24889E+03
  2.26909E+03  2.95270E+03  2.20804E+02  5.41632E+03 -3.52844E+03 -2.79683E+03 -2.75276E+03 -3.16725E+03
