 $NMID ID='MM_0lb_SNR50_19hz_g45_45.RAW', FMTDAT='(8E13.5)'
 TRAMP=1., VOLUME=1. $END
  3.06123E+05 -4.03769E+00  3.37328E+05  2.46254E+05  8.09060E+04  3.37421E+05 -1.35307E+05  2.49491E+05
 -1.88108E+05  8.48120E+04 -1.12595E+05 -3.17263E+04  3.15719E+03 -5.02239E+04  5.65068E+04  9.58414E+02
  4.00005E+04  5.13890E+04 -1.57379E+04  7.36175E+04 -6.32544E+04  6.35666E+04 -8.24845E+04  3.40808E+04
 -7.60871E+04 -1.36103E+04 -6.00149E+04 -4.84710E+04 -1.62464E+04 -6.58439E+04  2.72146E+04 -4.39569E+04
  3.66995E+04  1.63484E+03  1.67083E+04  4.60983E+04 -2.83975E+04  4.69783E+04 -6.20244E+04 -2.58350E+03
 -5.34643E+04 -5.54236E+04 -3.25240E+03 -7.68505E+04  3.15848E+04 -5.25067E+04  4.66817E+04 -1.70540E+04
  4.18213E+04  1.07960E+04  3.13399E+04  2.47194E+04  1.18673E+04  2.87502E+04 -1.92012E+03  2.63682E+04
 -1.73188E+04  1.33429E+04 -1.92273E+04 -5.67588E+03  1.96661E+03 -5.81314E+03  2.16124E+04  1.08070E+04
  9.47570E+03  3.29372E+04 -3.23992E+04  3.11624E+04 -6.32287E+04  2.15032E+03 -5.46772E+04 -4.38665E+04
 -1.33930E+04 -6.23376E+04  4.09337E+04 -4.22930E+04  5.54902E+04 -2.94835E+02  3.32185E+04  2.98925E+04
 -8.22402E+03  3.17348E+04 -2.74803E+04  1.22028E+04 -2.74599E+04 -3.73216E+03 -1.45618E+04 -8.28883E+03
 -4.95928E+03 -9.68975E+03 -5.85384E+02 -1.73505E+04  6.13780E+03 -1.83424E+04  1.14631E+04 -1.51332E+04
  1.38621E+04  6.61313E+03 -8.27971E+03  8.89294E+03 -1.71432E+04  2.18211E+03 -7.63028E+03 -3.24381E+04
  2.15918E+04 -3.94608E+04  4.43408E+04 -1.93676E+04  4.11976E+04  1.71627E+04  1.76036E+04  4.20875E+04
 -1.40665E+04  3.38367E+04 -2.25623E+04  1.66345E+03 -9.09444E+03 -2.78431E+04  2.02984E+04 -3.01534E+04
  3.41312E+04 -6.28156E+03  3.11595E+04  1.85206E+04  1.50285E+04  4.10643E+04 -6.55925E+03  4.33785E+04
 -2.70228E+04  2.99217E+04 -3.78976E+04  7.88431E+03 -3.62545E+04 -1.17679E+04 -2.18945E+04 -3.42427E+04
  3.65805E+03 -2.91302E+04  2.90206E+04 -1.45795E+04  2.29132E+04  1.24203E+04  1.54686E+03  1.89788E+04
 -1.62345E+04  6.62857E+03 -1.24288E+04 -9.63504E+03  6.28588E+03 -1.26523E+04  1.76702E+04  9.69179E+03
  9.92400E+03  2.16853E+04 -8.77370E+03  2.61183E+04 -2.66571E+04  9.11792E+03 -2.46863E+04 -7.53321E+03
 -1.56601E+04 -1.36216E+04 -5.58840E+03 -1.65849E+04  6.06332E+03 -1.39307E+04  9.87646E+03 -1.46858E+04
  2.25833E+04 -1.25009E+04  3.05397E+04  1.51656E+03  2.02171E+04  1.38282E+04  5.24780E+03  3.23889E+04
 -1.76354E+04  2.82985E+04 -2.69847E+04  9.45287E+03 -1.99357E+04 -1.10008E+04 -3.52365E+03 -8.81173E+03
  5.17986E+03 -1.07506E+03 -2.25947E+03  4.32398E+03 -1.37070E+04  1.90971E+03 -1.27074E+04 -2.66742E+03
 -4.34351E+03 -1.70083E+04  5.15700E+03 -1.87394E+04  8.02367E+03 -1.26483E+04  1.21571E+04  2.34553E+03
  9.62699E+03  1.07475E+04  3.43782E+03  1.63730E+04 -1.03088E+04  9.51581E+03 -1.04435E+04 -1.31964E+03
 -1.36747E+04 -1.68557E+04 -3.02758E+03 -1.94353E+04  7.86337E+03 -1.65452E+04  2.00583E+04 -3.99236E+03
  1.16954E+04 -8.91777E+02  1.14534E+04  2.43379E+03  7.02365E+03  4.46044E+03  5.24529E+03  2.68600E+03
  1.52889E+04 -5.79300E+02  1.43141E+04  8.93106E+03  9.86802E+03  2.34279E+04  1.52643E+01  2.43815E+04
 -1.71636E+04  1.58518E+04 -2.62162E+04  9.77300E+03 -2.00469E+04  2.21473E+03 -2.19134E+04 -1.73927E+04
 -1.13019E+04 -2.22872E+04  4.13457E+03 -2.02105E+04  1.56519E+04 -1.09677E+04  1.02462E+04  3.37983E+03
  6.56817E+03  8.96306E+03 -3.58352E+03  1.18416E+04 -1.54248E+04  2.16504E+03 -4.61476E+03 -8.51124E+03
 -1.03877E+03 -1.77234E+04  2.95036E+03 -2.80977E+03  6.52704E+03  3.22773E+02 -8.53032E+02  4.62640E+03
 -4.50647E+03  3.02166E+03 -3.66368E+03 -6.31811E+03  3.91623E+03 -8.43626E+03  2.71019E+03 -1.37892E+04
  1.54432E+04 -7.05745E+03  1.05868E+04  2.80999E+02  1.08192E+04  6.36381E+03  3.82717E+03  1.34510E+04
 -3.17524E+03  1.69095E+04 -9.12926E+03  8.36631E+03 -1.26746E+04  4.00683E+03 -6.84615E+03  8.16382E+02
 -1.86719E+03 -3.32614E+03 -4.45610E+03 -1.33513E+03 -3.70388E+03  3.44264E+03 -4.77649E+03  1.96253E+03
 -7.88326E+03  5.58761E+03 -9.21828E+03 -7.56199E+03 -4.94030E+03 -7.80707E+03  3.53252E+03 -9.17137E+03
  7.11396E+03 -1.95568E+03  6.84783E+03  3.91040E+03  4.14455E+03  2.93555E+03 -2.49150E+03 -4.17251E+03
 -6.07097E+03 -7.34560E+02 -2.12808E+03 -3.83231E+03 -5.74021E+01 -1.13169E+04  1.06809E+04 -3.08140E+03
  1.41374E+04 -8.87129E+02  9.98980E+03  2.87859E+03 -1.22127E+02  1.11952E+04 -7.09881E+03  6.95463E+03
 -3.30988E+03 -4.12180E+02 -1.80287E+03  4.48445E+02 -4.38694E+02 -5.34638E+03  3.99766E+03 -3.62676E+03
  6.45700E+03  1.39546E+02  1.16581E+03  5.41226E+03 -5.51702E+03  7.17636E+03 -8.21897E+03 -1.59434E+03
 -2.64570E+03 -5.84637E+03  4.67244E+03 -7.98948E+03  6.64324E+03  1.94765E+02  3.20769E+03 -4.57814E+02
  2.23731E+03  7.11431E+03 -8.05230E+03  1.88460E+03 -7.92134E+03  3.69483E+02 -6.43554E+03 -2.09803E+03
 -1.25325E+03 -4.10625E+03  5.06232E+03 -9.37247E+03  4.11577E+03 -3.04609E+03  4.18214E+03  1.22983E+03
  2.15423E+03  6.83859E+03  1.55913E+02  6.14863E+03 -5.70069E+03  1.26118E+03 -6.94529E+03 -2.10979E+03
 -1.88673E+03 -8.28112E+03 -3.13361E+03 -7.17596E+03  7.01300E+03 -5.26733E+03  3.76967E+02 -3.24560E+03
  2.82985E+03 -2.84848E+03  3.28995E+03 -3.24372E+03  4.26282E+02 -4.04097E+02  2.50303E+03 -3.68179E+03
  4.66916E+03 -6.39399E+02  7.40580E+03 -1.48082E+00  7.21975E+03  1.22243E+03  5.29343E+03  6.48932E+03
  6.77374E+02  6.92871E+03 -6.58525E+03  1.53025E+03 -1.23844E+04  1.44905E+03 -1.12792E+04 -1.34196E+03
 -3.45914E+03 -4.74959E+03 -2.65029E+03 -5.08933E+03  2.35617E+03 -1.25375E+03  2.88299E+03  6.85011E+01
 -8.51035E+01 -3.65096E+03  4.33496E+03 -5.84736E+03  5.50869E+03 -3.24861E+03  5.39939E+03 -2.11601E+03
  4.03428E+03  7.17230E+02 -7.48952E+02  7.06874E+03 -3.19328E+03 -5.69374E+02 -3.22795E+03  1.66153E+03
 -5.90559E+03 -1.98833E+03 -3.18857E+02 -3.12193E+03 -1.06984E+03 -1.92668E+02  2.28193E+03 -7.26724E+03
  9.60044E+03 -3.91580E+03  5.91084E+03  8.55101E+02  4.29307E+03  1.42732E+03  3.53264E+03  3.86780E+03
 -2.74755E+03  5.52686E+03 -4.46233E+02 -4.46362E+03 -1.80591E+02 -3.84728E+03 -3.34260E+02  7.20111E+02
 -4.09999E+03  4.00018E+03 -2.61759E+03  4.10925E+03 -2.52162E+03  9.84972E+02 -6.62613E+03  5.38489E+03
 -2.01290E+03 -4.21993E+03  2.49488E+02 -1.47490E+03 -1.07696E+03 -1.57987E+03  1.71308E+02 -2.94938E+03
  2.97192E+03  3.45960E+03  1.23281E+03  2.04300E+03  1.32667E+03  4.10506E+03 -1.26595E+03 -3.10169E+03
 -1.32889E+03 -2.44305E+01 -3.07176E+03 -2.95263E+03 -5.25958E+03 -3.92499E+03  3.09720E+03 -7.70062E+03
  6.21883E+03 -2.94975E+02  2.16613E+03 -2.90184E+03  4.33247E+03  1.87885E+03 -1.88083E+03 -5.20335E+03
 -2.24614E+02 -1.37675E+03  2.46568E+01  2.29508E+03  1.16073E+02  3.31417E+03 -9.34386E+02  3.41713E+03
  3.90470E+02  4.72012E+03 -3.45175E+03  4.94140E+03 -5.15882E+03  5.18881E+03 -6.52333E+03 -2.03368E+03
 -3.95398E+02 -6.14663E+03 -1.64970E+03 -2.52205E+03 -4.01031E+02 -2.92085E+03 -3.52465E+02  2.57105E+03
  3.47638E+03  2.53816E+03  2.81937E+03  1.48632E+03  4.65115E+02 -2.04867E+03 -3.68285E+03  3.30730E+03
 -2.61072E+03 -3.82802E+03  5.53516E+03 -3.20504E+03 -7.02726E+02  1.14950E+03  2.70559E+03  2.54858E+03
 -2.52890E+03  1.42201E+02  2.53366E+03 -4.27441E+03  2.52645E+03 -2.06704E+03  3.12068E+03  1.12368E+03
  1.91618E+03  5.46301E+02 -3.23432E+03  7.42370E+00  2.48101E+03  3.50787E+03 -9.95664E+02  3.34535E+03
 -1.08538E+03 -1.76156E+03  1.17767E+03 -1.88419E+03 -1.16694E+03 -1.66158E+03  1.60104E+03 -1.38299E+03
 -3.41719E+02 -2.69456E+03  6.02934E+03 -1.65504E+03 -2.29868E+03  4.59615E+03 -2.78890E+03  2.02754E+03
 -6.36494E+02 -1.29081E+03  2.73911E+03 -2.57276E+03 -2.83263E+03 -2.77577E+03 -1.98976E+03 -5.98016E+02
  1.85194E+03  2.08930E+02  3.04189E+03 -1.16877E+03  6.95945E+02 -4.14420E+03 -1.03045E+03  4.08685E+02
 -2.42265E+03 -6.18492E+02 -6.33298E+03  2.39607E+03  1.38918E+03 -4.04049E+02  4.73724E+03 -1.04560E+03
 -1.33316E+03  2.80931E+03  2.00040E+03  2.06690E+03  2.09697E+02  6.51678E+02  3.35275E+02  5.11430E+03
 -1.94646E+03 -6.14762E+03  3.20052E+03  1.56835E+03  1.00309E+01 -3.61655E+03  2.56926E+03 -1.19862E+02
  2.80876E+02 -5.57742E+02 -1.35988E+03 -3.35820E+03  7.93394E+02  3.11848E+03  1.21154E+03  2.34570E+03
 -4.00345E+03  4.36409E+02 -4.05255E+03 -5.81444E+02 -1.69316E+03 -3.61839E+02 -3.00717E+03  2.70940E+03
 -9.35445E+02  1.71667E+03 -3.18604E+03 -2.19153E+03 -2.79402E+03 -2.21300E+03 -3.74813E+03  2.76644E+02
  2.00331E+03 -1.78737E+00  2.82020E+03 -4.85471E+03  3.89032E+03 -3.36914E+03  4.77710E+03 -1.52061E+03
  1.49905E+03 -7.46459E+02  3.68898E+03  3.06295E+02 -1.05199E+03  2.06795E+02  3.20053E+03  6.96666E+02
 -5.77066E+03 -1.03956E+02 -1.49513E+02  2.44250E+03  1.76430E+03  1.97917E+03 -3.53530E+03 -2.41771E+03
  2.02609E+02 -3.15489E+03 -2.09130E+03  2.32535E+03 -2.05157E+03  1.25114E+03  1.18053E+03  2.13133E+02
 -2.46555E+02  7.83931E+02 -5.52346E+03 -4.95328E+03  3.06111E+03 -1.09469E+03 -7.14213E+02  1.54465E+03
 -1.61057E+03  1.79499E+03  1.34691E+03  4.26946E+03 -2.19238E+03  1.05249E+03  5.72706E+02 -3.32534E+03
 -1.65386E+03 -1.68466E+03  4.31036E+03  4.34954E+03 -1.16625E+03 -1.89686E+03 -1.00810E+03 -5.43639E+02
 -7.64925E+01 -3.96738E+03  5.37378E+00  3.94915E+03 -2.93201E+03 -1.68999E+02  1.37937E+03  7.18713E+01
 -2.00752E+03  2.69873E+03  2.14998E+03  2.66795E+03  7.21449E+02 -4.39221E+02 -1.84892E+03 -1.62898E+02
 -2.98408E+03 -1.00908E+03 -6.42531E+02 -1.01263E+03 -2.80935E+03  1.85130E+03 -1.27417E+03 -2.61966E+03
  1.57935E+03 -3.81116E+03  2.58983E+03  1.98871E+03  2.32667E+03 -2.70714E+03 -6.24448E+02 -3.06378E+02
 -2.58340E+03 -9.34708E+02  2.59015E+03 -9.96592E+01 -3.10098E+03  4.60820E+03 -3.80729E+03  2.88778E+03
  2.41754E+03  1.91101E+03  5.68003E+02 -9.67880E+02  3.52310E+03  4.80749E+03 -3.90518E+03  7.00934E+01
 -1.15345E+03  7.84470E+02 -1.32033E+03  1.59794E+03 -1.17034E+03 -1.32745E+03  3.94670E+03  1.16362E+03
  1.83535E+03  1.27553E+03 -1.05240E+03 -2.96457E+03  7.58172E+02 -2.17002E+03 -6.92429E+02  2.95231E+03
