 $NMID ID='MM_0lb_SNR50_17hz_g60_94.RAW', FMTDAT='(8E13.5)'
 TRAMP=1., VOLUME=1. $END
  3.10525E+05 -7.69160E+02  3.36685E+05  2.49210E+05  8.44974E+04  3.37249E+05 -1.34523E+05  2.51682E+05
 -1.86441E+05  8.14951E+04 -1.13968E+05 -3.75267E+04 -6.32494E+02 -4.47575E+04  5.03778E+04 -2.93941E+03
  3.86880E+04  5.47192E+04 -2.11323E+04  7.65878E+04 -6.52763E+04  6.38647E+04 -8.62031E+04  3.19941E+04
 -7.88743E+04 -1.07137E+04 -5.39823E+04 -5.09853E+04 -1.29477E+04 -7.00408E+04  2.44809E+04 -4.79249E+04
  3.83818E+04  6.04694E+03  1.64780E+04  4.79310E+04 -3.57873E+04  4.59794E+04 -6.87170E+04 -1.17258E+03
 -5.10049E+04 -5.64923E+04 -3.70586E+03 -7.96600E+04  3.30915E+04 -5.31744E+04  4.96027E+04 -1.96907E+04
  4.19696E+04  9.63491E+03  2.60659E+04  1.92322E+04  1.72121E+04  2.89054E+04 -5.28197E+03  2.60853E+04
 -2.06392E+04  1.02339E+04 -1.66684E+04 -6.01109E+03  9.94438E+03 -6.92130E+03  2.33363E+04  1.58502E+04
  5.30767E+03  3.21929E+04 -3.46761E+04  3.64948E+04 -6.23370E+04  5.21966E+03 -5.16126E+04 -4.58125E+04
 -1.44978E+04 -6.44002E+04  3.70854E+04 -4.08532E+04  5.58646E+04 -3.92190E+03  3.04050E+04  2.74327E+04
 -8.33037E+03  3.86474E+04 -3.39672E+04  1.81587E+04 -3.36562E+04 -2.36991E+03 -1.76093E+04 -1.20130E+04
 -6.58952E+03 -1.44829E+04  2.05406E+03 -2.07475E+04  5.50419E+03 -2.50681E+04  1.32555E+04 -1.37380E+04
  1.27672E+04  4.46117E+03 -5.99619E+03  1.23534E+04 -1.84289E+04 -2.68613E+03 -5.24018E+03 -3.68492E+04
  2.67205E+04 -4.70879E+04  4.95522E+04 -1.73782E+04  3.83609E+04  1.81339E+04  1.66953E+04  4.33963E+04
 -1.49148E+04  3.10723E+04 -2.51011E+04 -2.35500E+03 -1.12658E+04 -3.18345E+04  2.02830E+04 -3.40879E+04
  3.90342E+04 -7.82536E+03  3.42779E+04  2.22608E+04  2.11452E+04  4.56140E+04 -5.94035E+03  5.28524E+04
 -2.96453E+04  3.30328E+04 -4.25387E+04  8.55929E+03 -3.86858E+04 -1.69346E+04 -2.01635E+04 -3.66653E+04
  1.05057E+04 -3.48606E+04  3.35274E+04 -1.38638E+04  2.68133E+04  1.25332E+04  6.84816E+02  1.78520E+04
 -1.28842E+04  5.54757E+03 -1.33482E+04 -7.82411E+03  2.58901E+03 -9.88396E+03  1.37806E+04  7.98702E+03
  1.29692E+04  2.53876E+04 -6.31996E+03  2.67275E+04 -2.14815E+04  1.24348E+04 -2.85611E+04 -4.45663E+03
 -1.86101E+04 -1.44522E+04 -9.91246E+03 -2.08376E+04  4.23129E+03 -1.88638E+04  1.31156E+04 -1.92447E+04
  2.40767E+04 -1.19920E+04  3.36784E+04  5.20579E+02  2.42175E+04  1.91949E+04  3.58758E+03  3.51739E+04
 -1.64659E+04  2.86290E+04 -2.22455E+04  7.93271E+03 -2.27770E+04 -9.70327E+03 -6.23428E+03 -7.29261E+03
  4.49368E+03 -5.84870E+03 -4.16218E+03  5.21059E+03 -1.23386E+04  4.68579E+03 -1.40494E+04 -3.46856E+03
 -9.67026E+03 -1.69857E+04 -1.01685E+03 -2.43405E+04  1.30190E+04 -2.12289E+04  2.15831E+04 -2.21909E+03
  1.44666E+04  1.05625E+04 -3.24377E+03  2.03050E+04 -1.81312E+04  8.60002E+03 -2.33145E+04 -2.72707E+03
 -1.53648E+04 -1.61681E+04 -2.92582E+02 -2.02027E+04  8.24017E+03 -1.84552E+04  1.81998E+04 -9.27402E+03
  1.81458E+04  2.15054E+02  1.33754E+04 -2.16428E+02  5.46373E+03  1.76722E+02  6.90056E+03 -5.09793E+03
  1.84530E+04  5.55520E+03  1.96767E+04  1.35228E+04  1.08164E+04  3.06296E+04 -6.64434E+02  2.97674E+04
 -1.54387E+04  2.34183E+04 -2.68557E+04  9.82394E+03 -2.41978E+04 -3.04053E+03 -2.52466E+04 -1.56162E+04
 -1.19185E+04 -2.35112E+04  1.04983E+04 -2.08282E+04  2.06597E+04 -1.06507E+04  2.50675E+04  2.55866E+03
  6.81996E+03  1.89839E+04 -7.17132E+03  1.08699E+04 -1.00720E+04  1.00079E+03 -9.51418E+03 -1.10119E+04
  3.07234E+03 -1.76936E+04  4.79003E+03 -7.74307E+03  1.06198E+04 -1.75842E+03  7.29212E+03  8.44916E+03
 -6.54664E+03 -5.64907E+02 -9.49398E+03 -3.14507E+03  6.03265E+02 -1.06898E+04  8.90088E+03 -1.36906E+04
  1.51404E+04 -4.34355E+03  1.59289E+04  4.24950E+03  1.37679E+04  1.16059E+04  8.11371E+03  1.69010E+04
 -6.31416E+03  1.88181E+04 -1.37329E+04  1.09009E+04 -1.44983E+04  1.63196E+03 -1.08220E+04 -5.87055E+03
 -5.80335E+03 -5.55011E+03 -1.69604E+03 -2.91206E+03 -1.97278E+03  1.85583E+03 -1.62373E+03  5.41624E+03
 -7.60149E+03 -3.37357E+03 -8.03777E+03 -1.13998E+04 -5.93080E+03 -1.86733E+04  7.89694E+03 -9.91291E+03
  1.18255E+04 -4.71520E+03  7.89245E+03 -9.99995E+02 -1.15629E+03  6.37015E+03 -7.17850E+02  2.76129E+03
  1.65208E+02 -6.14760E+03  4.53579E+02 -6.81804E+03  4.65144E+03 -1.51223E+04  1.56493E+04 -3.63857E+03
  1.34600E+04 -1.81774E+03  1.33439E+04  1.12302E+04  8.29452E+02  1.20556E+04 -4.87573E+03  7.96896E+03
 -6.76253E+03  1.55302E+03 -8.01817E+02 -2.45861E+03  1.88340E+02 -1.32365E+03  4.71661E+03  1.31699E+03
  5.74909E+03  5.72421E+03  2.72558E+03  5.10822E+03 -9.74642E+03  8.05343E+03 -4.44818E+03 -3.26935E+03
 -6.39009E+03 -2.92720E+03 -1.47690E+02 -7.85698E+03  5.83207E+03 -2.29416E+03 -2.61435E+02  1.17856E+03
 -2.82160E+03  8.93510E+03 -2.70021E+03  7.46169E+03 -1.09204E+04  3.44671E+03 -8.98547E+03 -2.57259E+03
 -3.26697E+03 -5.80327E+03  4.20108E+03 -1.15626E+04  3.46205E+03 -7.47924E+03  6.28409E+03 -5.63502E+02
  3.03730E+03  9.56170E+03 -7.46650E+03  1.31724E+04 -7.64332E+03  9.50071E+03 -7.83922E+03 -1.40671E+03
 -9.11987E+03 -3.26380E+03 -1.15993E+03 -8.59073E+03  2.36742E+03 -7.65259E+03  2.23785E+03 -1.09711E+03
  1.86141E+03 -1.14848E+02 -1.97237E+03  2.19070E+03  3.53287E+03  6.35626E+03  7.65237E+02 -6.15824E+03
  8.32422E+03  4.81533E+02  8.83536E+03  1.09681E+03  9.14308E+03  3.71555E+03  9.64540E+03  8.91926E+03
 -2.90050E+03  7.76264E+03 -1.25278E+04  9.41292E+03 -1.05587E+04  3.27686E+03 -1.21197E+04 -9.04722E+03
 -1.22028E+03 -5.45434E+03 -5.06113E+02 -4.59661E+03  4.94622E+03 -3.26069E+03  2.39437E+03  3.76797E+03
  5.74296E+02 -3.99716E+03 -3.60072E+03 -3.82405E+03  5.57437E+03 -1.89663E+03  6.68582E+03  8.05821E+02
  4.42444E+03 -2.44847E+02  6.25759E+03 -1.36265E+03  7.99944E+01  1.13466E+03 -3.66343E+03  6.26794E+03
 -7.63239E+03  6.72029E+02 -3.82772E+03 -4.88504E+03 -7.64682E+02 -7.37003E+03 -8.81987E+01 -8.19715E+03
  8.05248E+03 -5.23543E+03  8.26947E+03  2.34725E+02  5.90238E+03  9.79192E+02  1.66247E+03  8.76217E+03
 -4.32390E+03  7.13130E+03 -5.12750E+03 -3.31880E+02 -6.75943E+03 -1.74357E+03  1.05407E+03 -1.39743E+03
  8.98151E+02 -4.13491E+02  7.23657E+02  6.04090E+02 -5.74565E+03  3.03118E+03 -2.50715E+03  1.15455E+03
  1.58193E+03 -1.58811E+03 -6.25082E+02 -6.90467E+03  3.31872E+03 -5.03375E+03  9.65498E+03 -2.60009E+03
  2.09042E+03  4.13015E+03  1.66315E+03  6.50724E+03  9.41390E+02  9.78113E+03 -7.94642E+03  4.13820E+03
 -8.14952E+03  2.20956E+03 -6.40101E+03 -6.00188E+03 -5.90624E+03 -2.49031E+03  2.18550E+03 -3.43601E+03
  2.44041E+03 -2.44783E+03  2.74813E+03 -3.39232E+03 -2.78083E+03  3.09459E+03 -1.30230E+02  4.44265E+03
 -1.16974E+03  7.30501E+02 -2.40890E+03  2.66947E+02 -4.95150E+02  5.56820E+03  6.43882E+02  1.50310E+03
 -5.15398E+03  4.74985E+03 -5.68796E+03  9.60462E+03 -2.86974E+03  3.24130E+03 -5.11229E+03 -2.73905E+03
 -6.41109E+02 -6.91422E+03  2.40163E+03 -4.65844E+03  4.74370E+03 -2.55453E+03  6.80409E+02 -3.24303E+03
  3.30018E+03  4.41156E+03  1.29549E+03  3.45200E+03 -1.55503E+03  1.71131E+03 -1.94894E+03 -3.45184E+03
  3.14042E+03 -3.60404E+03  4.35854E+02 -5.67267E+03  5.43529E+03 -1.10474E+02  4.04650E+03  5.82216E+02
 -2.71157E+03  2.91171E+03  3.62580E+03 -4.43216E+03 -3.89874E+03  4.22697E+03  4.31484E+03  1.29692E+03
  2.07866E+03 -2.98305E+03 -1.02111E+02 -7.50075E+02  1.50843E+03  4.05681E+03 -1.45453E+03  3.08295E+03
  6.49433E+02  1.76027E+03 -4.06935E+03 -3.89046E+03 -1.05854E+03 -2.42827E+03 -9.96044E+02 -2.94838E+03
 -1.50968E+03  2.84683E+03  2.11695E+03  2.67708E+03  3.23902E+03  1.66924E+03  1.51640E+03  5.34243E+03
 -6.11156E+02  5.43348E+01  1.21373E+03 -1.27386E+03  4.11021E+03 -2.77999E+03  2.32134E+03 -7.74289E+03
 -5.31122E+02 -1.30894E+03  2.52195E+03 -2.97192E+02  4.22296E+03  4.73643E+03 -1.52418E+03  3.42135E+01
 -1.23867E+03 -5.46245E+03  2.27862E+02 -4.13537E+03 -2.04561E+03  2.40300E+02  2.34817E+03 -4.23763E+03
  3.55339E+03  1.98487E+03  8.93992E+03 -9.69132E+02 -1.06247E+03 -4.37646E+02 -1.46982E+03  3.71026E+03
 -1.13950E+03  1.93189E+03 -9.21116E+02 -9.12942E+02 -3.22300E+03 -3.14871E+02 -2.43800E+03  2.21645E+03
  2.64524E+03 -4.64013E+02  3.72083E+03 -2.97954E+03 -8.54334E+01  9.27514E+02 -2.11561E+03  2.11025E+03
 -3.58697E+03  1.15479E+03 -6.39772E+02  1.45449E+03 -1.28294E+03  3.19261E+03  1.94401E+03  4.26021E+02
 -6.16610E+02 -7.52133E+02 -2.43228E+03 -1.88826E+03 -2.08357E+03  3.77849E+03 -1.59627E+03 -3.12937E+03
 -4.30739E+03 -5.56326E+03 -2.70223E+02 -5.31515E+03  9.43802E+03 -6.46385E+02  6.87218E+02 -3.04360E+03
  6.64026E+03  1.39588E+03  2.86282E+02  1.35559E+02  4.92893E+03  1.54362E+03 -7.84910E+02  2.23533E+03
 -9.37400E+02  5.89797E+03 -5.27642E+03 -8.16660E+02  1.83825E+03  7.23585E+02 -3.05017E+03  1.61755E+03
  4.82428E+03 -1.07351E+03 -3.71702E+03  8.60955E+02 -4.36652E+02  1.38798E+03  1.14505E+02  4.05759E+03
  2.66188E+03 -4.61047E+03 -1.16203E+03 -3.29314E+03  2.96639E+03  2.78666E+02  1.60775E+03 -2.14552E+03
 -2.23501E+03 -1.97080E+03 -4.36726E+03  2.55043E+03 -7.96802E+03  2.14482E+03  4.21101E+01 -6.04025E+03
 -7.70439E+02 -1.40590E+03  5.03040E+03 -8.19929E+02 -2.06905E+03  3.20119E+02 -4.59844E+03  4.05850E+03
  5.53470E+03 -1.94516E+02  1.95221E+03  7.63749E+02 -3.55832E+03  5.20396E+03  1.13784E+03  2.38828E+03
  4.19235E+02  1.35702E+03 -1.41119E+03 -4.90901E+02  9.70570E+02  3.17312E+03  4.05807E+03 -1.58599E+03
 -5.28035E+03  9.33992E+03 -2.36763E+03 -2.17865E+03  2.78801E+03 -1.83661E+03 -3.47608E+03 -2.64949E+02
 -2.34038E+03 -8.83285E+02 -4.35229E+03 -3.84244E+03  2.35584E+03  6.35015E+02  1.28795E+03  5.15652E+02
  8.69945E+02  2.38709E+03  5.83248E+01 -1.90840E+03 -6.08521E+03  8.94477E+02  1.17606E+03 -2.03996E+03
 -1.74969E+03 -1.40641E+03 -1.51377E+03 -1.69303E+03  2.89087E+03  2.96104E+03 -9.29388E+02  3.31340E+03
 -2.26712E+03 -7.73782E+02 -2.24145E+03 -7.54497E+02 -1.41249E+03  1.75029E+03 -1.24292E+03 -6.62227E+02
  2.25325E+03 -1.95405E+03  1.33882E+03  1.41335E+03 -5.60604E+03 -2.51282E+03  1.17069E+02  4.19072E+03
