 $NMID ID='MM_0lb_SNR50_17hz_g40_48.RAW', FMTDAT='(8E13.5)'
 TRAMP=1., VOLUME=1. $END
  3.08638E+05  2.94860E+03  3.36693E+05  2.52740E+05  8.24796E+04  3.38748E+05 -1.32681E+05  2.49418E+05
 -1.86786E+05  8.26422E+04 -1.14354E+05 -2.90864E+04 -4.43916E+03 -4.93897E+04  5.69272E+04 -2.40071E+03
  3.69096E+04  4.82061E+04 -1.57486E+04  7.26976E+04 -6.24432E+04  6.29020E+04 -8.14411E+04  3.51966E+04
 -8.23188E+04 -1.52210E+04 -5.37680E+04 -5.00961E+04 -1.41704E+04 -6.28639E+04  2.81602E+04 -4.46294E+04
  4.11862E+04  5.46464E+03  1.31925E+04  4.53233E+04 -3.32935E+04  4.50072E+04 -6.25727E+04 -4.82405E+03
 -4.96054E+04 -5.18048E+04 -4.10968E+03 -7.49762E+04  3.26192E+04 -5.63096E+04  4.64730E+04 -1.44920E+04
  3.94427E+04  1.24354E+04  3.24771E+04  1.94658E+04  1.65256E+04  2.81995E+04 -6.36238E+03  1.93270E+04
 -2.11644E+04  1.09150E+04 -1.96845E+04 -4.61615E+03  2.29563E+03 -7.02499E+03  2.31779E+04  1.15470E+04
  5.90025E+03  3.10226E+04 -3.06861E+04  3.39064E+04 -6.13365E+04 -8.59434E+01 -5.11600E+04 -4.37207E+04
 -1.60687E+04 -6.07765E+04  3.81629E+04 -4.58555E+04  5.80477E+04 -2.16562E+03  3.25804E+04  3.46860E+04
 -8.39131E+03  3.09206E+04 -2.75433E+04  1.09586E+04 -2.92681E+04 -2.95905E+03 -1.58995E+04 -1.39463E+04
 -5.88350E+03 -1.41509E+04  1.60162E+03 -1.82155E+04  9.50264E+03 -1.83540E+04  1.81062E+04 -1.19433E+04
  6.38429E+03  5.01337E+03 -7.89027E+03  1.42074E+04 -1.73581E+04 -2.77006E+02 -1.13497E+04 -2.73799E+04
  1.75398E+04 -4.18627E+04  4.13387E+04 -2.02466E+04  4.11319E+04  1.81361E+04  1.01198E+04  4.54150E+04
 -1.73274E+04  2.91966E+04 -2.48860E+04  1.58473E+03 -8.99512E+03 -2.18696E+04  1.94745E+04 -3.09244E+04
  3.66341E+04 -6.56009E+03  2.85602E+04  1.87244E+04  1.59976E+04  4.14745E+04 -8.12002E+03  4.69044E+04
 -2.73237E+04  3.01212E+04 -3.71430E+04  1.03736E+04 -3.94045E+04 -1.79572E+04 -2.31156E+04 -3.61201E+04
  9.44316E+03 -3.55009E+04  3.09925E+04 -1.33580E+04  2.73721E+04  1.46373E+04  2.24481E+03  1.77851E+04
 -1.07051E+04  9.95963E+03 -5.88022E+03 -9.39071E+03  6.18688E+03 -1.09433E+04  1.60518E+04  8.69751E+03
  1.04648E+04  2.45461E+04 -8.07215E+03  2.75192E+04 -1.95537E+04  1.05179E+04 -2.74355E+04 -5.66735E+03
 -1.89634E+04 -1.82795E+04 -4.38191E+03 -1.90658E+04  2.11787E+03 -1.46193E+04  1.41253E+04 -1.48950E+04
  1.97458E+04 -1.67415E+04  2.52159E+04  4.62486E+03  1.93779E+04  1.88452E+04  4.73605E+03  3.17106E+04
 -1.76128E+04  2.64587E+04 -2.31265E+04  9.24686E+03 -1.91139E+04 -1.45169E+04 -4.45032E+03 -1.17072E+04
  9.47963E+02 -1.52393E+03 -2.90402E+03  7.86627E+03 -1.12708E+04  3.31410E+03 -1.62653E+04 -6.84398E+03
 -7.20024E+03 -1.41539E+04  3.68317E+03 -2.28541E+04  1.53732E+04 -1.32913E+04  1.39851E+04 -3.15432E+03
  7.22427E+03  1.04289E+04  1.11179E+03  1.72991E+04 -8.07915E+03  9.96945E+03 -1.94304E+04 -2.52823E+03
 -1.32236E+04 -1.35752E+04  7.64072E+02 -2.09357E+04  8.15367E+03 -1.79317E+04  2.20211E+04 -8.32482E+03
  1.74557E+04  3.07770E+03  7.97003E+03  3.22098E+03  8.24109E+03 -6.29012E+02  6.48001E+03 -3.88972E+03
  1.43227E+04  7.52919E+03  1.75273E+04  1.26142E+04  8.63556E+03  2.84576E+04 -7.10405E+03  2.66486E+04
 -2.33461E+04  2.05823E+04 -2.42713E+04  1.16276E+04 -2.33230E+04 -7.96202E+02 -1.99073E+04 -1.64783E+04
 -5.03525E+03 -2.13102E+04  7.86633E+03 -2.25539E+04  1.37340E+04 -1.01410E+04  1.69638E+04  5.30568E+03
  6.47929E+03  9.83568E+03 -1.05308E+04  1.00611E+04 -1.30041E+04  2.83680E+03 -1.18348E+04 -8.34373E+03
 -4.58347E+03 -1.44743E+04  1.04457E+04 -6.76736E+03  1.10444E+04  4.25858E+02  8.14511E+02  1.13523E+04
 -4.02123E+03 -5.70610E+01 -1.03976E+03 -6.99948E+03  4.11099E+02 -1.19534E+04  5.90344E+03 -9.99706E+03
  9.75296E+03 -2.98423E+03  1.33546E+04 -2.12673E+03  1.10966E+04  1.01298E+04  4.11822E+03  1.56631E+04
  5.29693E+02  1.67669E+04 -1.15018E+04  1.50726E+04 -1.60086E+04  2.10341E+03 -6.91167E+03 -2.20414E+03
 -3.81683E+03 -4.47164E+03 -4.41623E+02  5.26601E+01 -4.11931E+03  6.39108E+03 -6.14001E+03  2.14846E+03
 -5.69485E+03  2.49702E+03 -9.37104E+03 -9.80202E+03 -1.05102E+03 -1.11422E+04  4.62820E+03 -9.85215E+03
  6.63126E+03 -7.62091E+03  5.50253E+03  1.97989E+03  1.46335E+03  6.03362E+03  1.17430E+03 -5.82124E+02
 -6.86699E+02 -7.74978E+03  1.08070E+03 -1.14490E+04  2.25495E+03 -9.37844E+03  1.14088E+04 -3.57915E+03
  1.08737E+04  5.23517E+02  5.50269E+03  8.32035E+03  8.83152E+02  9.25975E+03 -3.59174E+03  7.24559E+03
 -3.78659E+03 -1.32862E+03 -4.87339E+03  1.56171E+03  7.75947E+02 -5.90296E+03  6.94235E+03 -4.16333E+03
  4.50671E+03  1.33414E+01  2.24612E+03  1.01918E+04 -2.43095E+03  5.35077E+03 -1.05309E+04  4.33388E+03
 -5.71165E+03 -2.72051E+03  2.21773E+03 -5.82072E+03  1.23637E+03 -2.44947E+03  6.87261E+03 -8.82149E+02
  3.55943E+01  4.76685E+03 -4.68268E+03  7.06937E+03 -7.31875E+03  3.94679E+03 -7.00140E+03 -3.95802E+03
 -1.00188E+03 -3.34540E+03  1.49814E+03 -8.59136E+03  8.11244E+03 -3.32896E+03  7.28326E+03  5.30618E+03
  5.13243E+03  5.06011E+03  1.72324E+03  1.17662E+04 -7.48067E+03  6.28527E+03 -6.20917E+03  2.09485E+03
 -2.14017E+03 -5.32052E+03  3.34739E+03 -6.49532E+03  2.93043E+03 -1.31862E+03  1.20847E+03 -5.33052E+02
  1.75761E+03 -4.32004E+01  1.08344E+03  2.70467E+03  2.64655E+03  9.20673E+02  2.35208E+03 -4.82108E+03
  4.32143E+03 -1.92992E+03  5.19099E+03  2.12470E+03  1.39834E+04  2.74162E+03  2.85800E+03  1.22519E+04
 -3.52361E+03  9.84673E+03 -2.93388E+03  1.08618E+04 -1.11034E+04  1.59556E+03 -7.22225E+03 -6.46931E+03
 -4.75993E+03 -9.66691E+03  1.62912E+03 -6.52898E+03  2.99834E+03 -8.17543E+03  4.39184E+03  3.14964E+02
 -2.72499E+02 -2.85306E+03  1.51499E+03 -3.20574E+03  6.36112E+03  4.17405E+03  3.39151E+03  2.73362E+03
  4.69137E+03  3.28301E+03 -3.06423E+02  5.58218E+03  9.51835E+02  4.66928E+03 -1.68768E+03  7.55453E+03
 -4.88603E+03 -1.84232E+03 -7.20592E+02 -3.19675E+03  1.88949E+03 -3.91917E+03  3.17934E+03 -2.42443E+03
  5.47452E+03 -4.04419E+03  9.12003E+03  8.63018E+01  4.85073E+03  6.19536E+03 -9.93271E+02  6.24599E+03
 -8.98098E+02  6.59945E+03 -5.08478E+03 -2.30989E+03 -5.90373E+03 -3.37335E+03  2.78786E+03  1.18141E+02
 -6.89364E+02  2.23359E+03 -2.57004E+03  2.97544E+03 -4.33649E+03  4.88315E+03 -3.84250E+03  7.99524E+02
 -3.41618E+02 -4.05215E+03  4.36026E+02 -1.28723E+03  4.34682E+03 -6.02464E+03  4.42257E+03 -3.91374E+02
  4.01199E+03  7.20506E+02  4.11052E+03  2.89361E+03 -1.72306E+03  5.87924E+03 -2.67825E+03  3.20141E+03
 -2.16375E+02  1.82116E+03 -7.02014E+03 -1.81028E+03  1.06000E+03 -1.46145E+03  6.38172E+03 -7.96706E+02
  6.16800E+03 -4.42530E+03  3.23791E+03 -1.44710E+03  3.11433E+03  1.50618E+03 -1.62378E+02  5.84716E+03
  2.50000E+03 -4.50865E+02  9.39858E+02  2.16493E+03  1.65146E+03  1.72603E+03  8.36128E+02 -8.99728E+02
 -4.01471E+03  4.33175E+03 -5.46634E+03  2.17430E+03 -2.67586E+03 -9.19941E+01 -7.76371E+03 -2.11541E+03
  6.87881E+02 -4.69659E+03 -2.61643E+03 -4.49781E+03 -1.17648E+03  2.29202E+03  4.99498E+03 -7.92281E+02
  2.75551E+03  1.79551E+03 -3.41487E+03  3.38725E+03  8.81468E+02 -1.30188E+02 -1.23983E+02 -9.61962E+02
 -3.14695E+02  6.74923E+02  3.26304E+02 -3.74237E+03  4.17376E+03 -3.88897E+02  5.66144E+03  3.20887E+03
  5.41750E+03 -2.46125E+03  1.98098E+03 -2.60395E+03 -2.66987E+03  5.87163E+02  1.65958E+03  1.81802E+03
 -5.32219E+03 -1.78653E+03  2.96198E+03  3.62261E+03  2.83302E+03  2.94411E+03  2.78587E+03  1.84954E+03
 -1.30132E+03  3.11470E+03 -8.57119E+02  7.84300E+02 -2.77054E+03 -4.89129E+02 -5.27325E+02 -1.23001E+03
 -4.76298E+02  1.54648E+03 -2.63866E+03  3.26768E+03 -1.08264E+03  6.21152E+02 -5.36812E+02  2.53425E+03
 -2.87974E+02  2.06213E+02 -7.71638E+02 -1.28038E+02 -1.85697E+03 -5.66184E+03  1.72165E+03 -2.65807E+03
  1.13970E+03 -1.71388E+03  1.79723E+03 -1.94601E+03 -3.53786E+03 -3.51163E+03  3.38928E+01  3.15750E+03
 -1.29626E+03 -2.09547E+02 -9.40651E+02  2.72364E+03  5.35669E+02 -1.46570E+02  9.36257E+02 -1.20435E+03
  5.09015E+03  2.41192E+03 -1.25885E+03  1.79768E+03  1.87766E+03  4.24974E+03 -2.28336E+03  2.71491E+03
 -2.77810E+02 -1.72372E+03 -1.93562E+03  2.26353E+03 -6.09692E+03 -4.24552E+03 -1.25130E+03  5.14120E+03
  5.43623E+03 -2.16909E+03  4.61777E+03  5.02681E+03 -1.53776E+03  2.37895E+03 -3.02773E+03 -1.64021E+03
 -2.58228E+03 -2.75465E+03  2.61639E+03  9.52819E+02  2.23669E+03 -1.30890E+03  3.74685E+02 -3.90497E+02
  8.86951E+02  8.92633E+02 -1.38300E+03 -2.58766E+03 -8.85645E+02  1.25289E+03 -2.54849E+03 -6.10078E+02
 -3.02837E+03 -5.02232E+03 -1.05243E+03  1.77738E+03  5.42010E+02 -9.73856E+02  5.77405E+03 -2.31269E+00
  1.83698E+03  3.71548E+03 -9.05649E+02  1.30939E+03  4.73732E+02  2.73710E+03 -2.44403E+03 -1.70256E+03
 -3.60413E+03  3.38341E+03 -3.82328E+03  5.82961E+02 -8.55055E+02  4.46862E+03 -2.93572E+03  2.80311E+03
 -2.92433E+03 -1.63260E+03  9.88835E+02 -8.03088E+02 -1.33293E+03 -7.36537E+01  2.26921E+03 -5.16742E+03
 -1.49917E+03 -1.37587E+03  1.69652E+03 -6.65118E+03  3.18383E+03  4.58344E+03  4.89412E+03  1.75164E+03
 -3.54893E+03  5.15706E+03 -1.55849E+03  2.67969E+03  1.88894E+03 -3.53004E+02 -5.75620E+03 -3.67585E+03
 -3.47466E+03 -4.15437E+03 -2.54544E+03 -3.94830E+03  5.41459E+03  4.76066E+02  7.44301E+02 -3.55958E+03
  1.20714E+03  8.71810E+02 -4.30156E+03  5.26352E+03 -2.69527E+03  2.95850E+02 -6.82867E+01 -1.33423E+03
  1.26486E+03  1.92725E+03 -1.66600E+03  3.66874E+03  9.65680E+02 -2.30330E+03  5.22665E+03  2.32054E+03
 -3.63755E+03  1.26487E+03  1.48022E+03 -9.08812E+02  2.18818E+03 -5.13593E+03  2.76565E+03  1.79069E+03
  1.79494E+03  1.23283E+03 -2.27596E+03 -5.85644E+02  2.29891E+03  2.16917E+03  1.36183E+03  3.17908E+03
  2.52517E+03  1.19313E+03 -1.77550E+03  1.90873E+03  7.16537E+02 -3.44402E+03 -2.25101E+03  4.54882E+03
 -4.06318E+02  1.88169E+03 -3.23850E+03 -1.88413E+03 -2.05369E+03 -1.17215E+03 -1.01372E+03  2.38421E+02
 -2.85543E+03  8.52087E+01  1.28224E+03  2.38798E+03 -2.04212E+03 -5.94465E+03  4.16679E+02 -4.75248E+02
  4.79845E+03 -2.24154E+02  2.28979E+03  1.04162E+03  1.30055E+03  7.86907E+02  4.01214E+02 -3.23872E+02
