 $NMID ID='MM_0lb_SNR50_11hz_g40_30.RAW', FMTDAT='(8E13.5)'
 TRAMP=1., VOLUME=1. $END
  3.12122E+05 -3.18321E+03  3.37989E+05  2.45039E+05  8.64752E+04  3.36020E+05 -1.34515E+05  2.50245E+05
 -1.93602E+05  8.90277E+04 -1.17163E+05 -3.33375E+04 -4.25826E+01 -5.34294E+04  5.75229E+04 -7.53708E+03
  3.61898E+04  5.06572E+04 -1.65839E+04  7.79833E+04 -5.56080E+04  6.04187E+04 -8.74184E+04  2.93834E+04
 -8.42817E+04 -1.80811E+04 -5.66360E+04 -5.27492E+04 -1.30936E+04 -7.34876E+04  2.64862E+04 -3.99557E+04
  4.17312E+04 -3.94550E+02  1.37493E+04  5.07697E+04 -3.70766E+04  5.22342E+04 -6.92724E+04  4.30393E+03
 -6.03448E+04 -5.64635E+04 -8.80419E+03 -8.09423E+04  3.03329E+04 -5.22787E+04  5.15521E+04 -1.94778E+04
  5.08395E+04  1.06385E+04  2.90321E+04  3.26951E+04  1.63590E+04  2.42712E+04 -7.19548E+03  2.52249E+04
 -2.47682E+04  1.21481E+04 -1.78471E+04 -7.43402E+03  8.75329E+03 -6.69233E+03  2.15903E+04  1.41184E+04
  9.17858E+02  4.13852E+04 -3.23192E+04  3.45084E+04 -6.81155E+04  1.09334E+03 -5.74804E+04 -4.30043E+04
 -1.39976E+04 -6.47397E+04  3.89376E+04 -4.67092E+04  5.89325E+04 -1.53087E+03  2.94466E+04  3.78913E+04
 -7.86699E+03  3.34000E+04 -2.72335E+04  1.70762E+04 -2.75774E+04  6.76743E+02 -1.79278E+04 -1.04438E+04
 -1.37237E+04 -9.62493E+03 -3.76921E+03 -2.21891E+04  9.93890E+03 -2.49357E+04  1.60942E+04 -1.32585E+04
  1.18896E+04  1.00266E+04 -6.49512E+03  9.11909E+03 -2.37771E+04 -2.87727E+03 -5.19099E+03 -3.33693E+04
  1.61641E+04 -4.85009E+04  5.24261E+04 -1.78646E+04  4.63399E+04  2.41617E+04  1.62167E+04  4.65249E+04
 -1.15529E+04  3.55345E+04 -2.08013E+04  2.83297E+03 -8.04287E+03 -3.25288E+04  1.50497E+04 -3.48587E+04
  3.86036E+04 -1.22657E+04  4.03334E+04  2.34684E+04  1.67952E+04  4.51357E+04 -3.30357E+03  5.45655E+04
 -3.13522E+04  3.83811E+04 -4.61116E+04  5.13641E+03 -4.45861E+04 -1.06058E+04 -2.32547E+04 -3.54598E+04
  7.32689E+03 -3.75778E+04  3.56391E+04 -1.92523E+04  2.81238E+04  1.54854E+04  3.99772E+03  1.72455E+04
 -1.32155E+04  1.23612E+04 -1.07483E+04 -5.79475E+03  4.36566E+03 -8.76914E+03  1.67690E+04  6.02248E+03
  1.40114E+04  2.54620E+04 -1.21601E+03  2.58321E+04 -2.03843E+04  1.41658E+04 -3.20042E+04 -5.45761E+03
 -2.90931E+04 -1.47774E+04 -6.87902E+03 -1.92608E+04  4.89253E+02 -2.09350E+04  1.12102E+04 -1.72723E+04
  2.60292E+04 -1.40470E+04  3.78576E+04 -4.14962E+03  2.93944E+04  1.94467E+04  3.94514E+03  4.05586E+04
 -1.78357E+04  3.58460E+04 -2.64094E+04  1.27335E+04 -2.08725E+04 -1.40925E+04 -5.29675E+03 -1.60966E+04
  3.70199E+03 -6.67450E+03 -9.69909E+03  8.81190E+03 -2.00109E+04  5.23966E+03 -1.97337E+04 -6.14229E+03
 -1.22344E+04 -2.32030E+04  1.05026E+04 -2.37604E+04  1.80811E+04 -1.52772E+04  2.02313E+04 -2.62078E+03
  6.76942E+03  1.64223E+04  2.90210E+02  1.71636E+04 -1.09068E+04  7.38127E+03 -1.67181E+04 -7.06191E+01
 -1.13575E+04 -1.69159E+04  8.08469E+02 -3.36513E+04  1.58144E+04 -1.82979E+04  2.04803E+04 -8.90001E+03
  2.13555E+04 -4.91540E+03  1.43123E+04  4.84027E+03  7.31234E+03 -2.22609E+03  1.59178E+04 -4.61657E+03
  1.93259E+04  5.68299E+03  2.40543E+04  1.79557E+04  1.47730E+04  3.10142E+04 -5.23219E+03  3.63736E+04
 -2.20171E+04  3.19331E+04 -3.43386E+04  1.59836E+04 -3.40417E+04 -4.41626E+03 -2.75654E+04 -2.14149E+04
 -1.30996E+04 -3.36901E+04  1.10730E+04 -2.80288E+04  2.24098E+04 -1.86058E+04  1.67962E+04  5.17645E+03
  6.06941E+03  7.28175E+03 -9.24767E+02  1.71970E+04 -1.20350E+04  3.26638E+03 -1.20588E+04 -1.30103E+04
 -1.64569E+03 -2.11153E+04  7.28309E+03 -1.74969E+04  1.35355E+04 -5.06616E+03  1.40434E+03  3.78719E+03
 -3.38301E+03  5.04070E+03 -4.54131E+03 -5.23364E+03 -6.12742E+03 -1.52129E+04  7.39195E+03 -1.71058E+04
  2.07896E+04 -1.02131E+04  2.22772E+04  1.74828E+03  1.63037E+04  1.60713E+04  1.04417E+04  2.54170E+04
 -5.18421E+03  2.42988E+04 -1.04434E+04  1.33132E+04 -2.04612E+04 -3.99735E+03 -1.49955E+04 -1.25131E+04
 -6.54645E+03 -3.55016E+03  1.35666E+03  2.05331E+03 -3.25928E+03  8.31239E+03 -7.23677E+03  5.55172E+03
 -1.41824E+04 -2.98869E+03 -1.50652E+04 -1.67643E+04 -7.92971E+03 -1.96506E+04  3.61860E+03 -1.51757E+04
  1.60302E+04 -9.70363E+03  4.49752E+03  4.99106E+03  1.86942E+02  8.38278E+03 -1.02642E+04  1.65604E+03
 -7.37671E+03 -1.28900E+04  1.16510E+03 -8.66228E+03  4.87669E+03 -1.29318E+04  1.76330E+04 -9.30425E+03
  1.90554E+04  6.34807E+03  1.38829E+04  1.68527E+04 -2.57421E+02  1.51172E+04 -9.07922E+03  1.63575E+04
 -8.71456E+03  4.68099E+03 -6.04482E+03 -1.82988E+03  5.35565E+03 -3.91071E+03  6.64433E+03  3.64311E+03
  7.78737E+03  6.33503E+03  1.12619E+02  1.24343E+04 -1.01526E+04  9.96638E+03 -1.12058E+04  4.59645E+03
 -6.18859E+03 -9.59503E+03  7.97251E+03 -7.93121E+03  7.57096E+03 -3.42819E+03  5.32412E+03  3.98186E+03
  9.29924E+02  8.28796E+03  1.49537E+03  1.27450E+04 -8.97706E+03  6.76257E+03 -1.43911E+04 -5.37660E+03
 -9.66282E+03 -1.29653E+04  4.25749E+03 -1.45155E+04  1.22822E+04 -5.29567E+03  1.36796E+04  2.90588E+03
  1.15668E+04  1.53131E+04 -1.00680E+03  1.29957E+04 -9.58586E+03  8.95970E+03 -8.96118E+03 -4.94323E+01
 -2.39960E+03 -8.66468E+03 -3.00177E+03 -8.41810E+03  4.58024E+03 -8.98508E+03  9.08093E+03 -4.69579E+03
  6.40350E+03 -7.20531E+02 -2.45028E+03  2.72806E+02  2.45356E+03 -4.04995E+03  1.01627E+03 -1.87379E+03
  1.10583E+04 -1.20981E+03  1.21392E+04  1.63864E+03  1.23168E+04  7.81224E+03  9.23115E+03  1.86885E+04
 -7.78050E+02  1.78338E+04 -1.49571E+04  1.47797E+04 -2.15012E+04 -6.10407E+02 -1.78864E+04 -7.70855E+03
 -5.70005E+03 -1.52649E+04 -2.22086E+03 -1.39381E+04  6.33063E+03 -2.45204E+03  5.51792E+03 -5.66837E+03
  4.47064E+03  7.74043E+01  1.57097E+03 -3.76147E+03  8.02027E+03  4.22449E+02  3.63309E+03 -1.03357E+03
  6.10178E+03 -3.91568E+03 -9.80999E+02  8.25544E+03 -1.50423E+03  1.10556E+04 -7.67250E+03  1.96760E+03
 -8.03799E+03  2.46103E+03 -7.48464E+03 -1.38946E+04 -1.82036E+03 -9.06578E+03  1.03721E+04 -1.16003E+04
  7.97321E+03 -1.16229E+04  1.72034E+04  2.68965E+02  1.40922E+04  1.59023E+04  8.73090E+02  1.61585E+04
 -7.28467E+03  1.31734E+04 -8.72023E+03  2.51770E+03  1.01121E+03  3.58007E+03 -1.64336E+03  2.19442E+03
 -2.55845E+03  6.61323E+03 -1.49110E+03 -1.87466E+02 -6.36261E+03  3.07752E+02 -1.21804E+04 -3.80133E+03
 -5.46249E+03 -8.24857E+03  1.16420E+03 -9.34274E+03  7.60122E+03 -9.26582E+03  1.26718E+04 -1.72307E+03
  8.85160E+03 -1.98952E+03  5.85355E+03  8.95221E+03 -4.13389E+02  1.18706E+04 -7.12861E+03  8.68049E+03
 -1.47372E+04 -2.23142E+03 -1.11305E+03 -9.13910E+03 -3.95912E+03 -7.01139E+03  5.22120E+03 -6.84895E+03
  8.09104E+03 -3.86407E+03  5.43757E+03 -1.44076E+03  8.74627E+02  9.73670E+03  4.65624E+02  3.70758E+02
  2.27188E+03 -4.07471E+03 -2.76820E+03  4.33994E+03  3.36638E+03  6.21256E+03 -3.93138E+02  6.48917E+03
 -8.07290E+03  1.35576E+04 -1.16484E+04  9.78531E+03 -1.29183E+04  3.39996E+03 -1.45805E+04 -2.61730E+03
 -2.30057E+03 -1.08018E+04  5.03962E+03 -1.47736E+04  6.53734E+03 -9.15644E+03  4.28470E+03 -2.59303E+03
  1.18671E+04  2.32930E+03  2.61418E+03  3.23743E+03 -5.46565E+03  3.92354E+03 -4.20450E+03  1.10972E+03
 -7.25092E+03 -7.28907E+03  6.83834E+02 -4.56460E+03  2.77526E+03 -3.30653E+03  3.56792E+03  2.99051E+03
 -1.88979E+02  3.74621E+03  1.10916E+03 -8.67560E+02 -1.56258E+03 -2.00097E+03  1.44003E+02 -3.73795E+03
  4.09760E+03 -4.62224E+03  6.21929E+02  2.42046E+03  2.81694E+03  7.76910E+03 -5.03456E+01  7.06274E+03
 -9.30663E+03  3.15379E+03 -3.69946E+03 -4.31836E+03 -1.94636E+02 -4.37215E+03  4.27487E+03 -3.28771E+03
  5.97929E+03 -6.59576E+03  1.51689E+03 -1.71435E+03 -4.14847E+03  6.35871E+02 -4.78418E+03  1.01414E+03
 -8.07008E+03  1.51761E+03 -1.75334E+03 -5.27091E+03 -4.34100E+03 -1.14442E+04  2.09519E+03 -1.10108E+04
  4.79602E+03 -3.04665E+03  4.83002E+03 -1.48374E+03 -1.88411E+02 -1.33659E+03  2.37568E+03  8.10771E+03
 -6.09759E+03 -5.21458E+02 -9.80077E+02 -2.07739E+02 -1.34801E+03 -6.21635E+03  6.84646E+03 -4.50994E+03
  3.30176E+03  4.68001E+03  4.13566E+03  6.27384E+03 -6.34984E+02  1.08787E+04 -3.87246E+03  5.12930E+03
 -2.75347E+03  2.45739E+03 -7.93960E+03  2.16305E+03 -4.66657E+03 -3.27437E+03  2.23102E+03 -8.67243E+03
  2.34116E+03 -9.72835E+02  8.33967E+03  9.00921E+02  1.66300E+03  3.85399E+03 -3.58439E+03  4.65941E+03
 -5.24316E+03  3.33705E+03 -1.51638E+03  4.26249E+03 -5.06806E+02 -3.22513E+03 -7.71158E+02  5.54937E+03
  2.33791E+03  4.33486E+03 -7.33555E+03  1.41950E+03 -1.06774E+04 -2.32521E+03 -7.33383E+03  3.06446E+03
 -4.86054E+03 -1.02007E+04  2.08246E+03 -1.13200E+04  7.53835E+03 -5.47835E+03  7.50050E+03 -2.07759E+03
  1.00321E+04  3.85942E+03  3.21005E+03  8.13462E+03  4.44646E+02  6.12468E+02 -2.20785E+03  4.41449E+02
  1.10604E+03  5.60757E+03 -2.36654E+03 -3.18124E+03 -8.07164E+03 -5.67944E+03 -5.26157E+03 -3.02539E+03
 -3.14578E+03  4.07409E+03  5.92978E+02 -1.47551E+03 -4.83150E+03  5.50039E+02  4.30479E+03  4.80774E+02
  7.63683E+03  3.47139E+02  4.71872E+03  7.65205E+03  3.01246E+03 -1.70058E+03 -1.81866E+03  1.27317E+04
 -1.70839E+03  1.04560E+04 -2.94161E+03  3.58515E+03 -2.69574E+03 -3.61496E+02 -9.35767E+02 -4.49779E+03
 -5.49311E+03 -6.99580E+03  3.71612E+02 -1.25172E+04  3.86924E+03 -7.15788E+03  2.36603E+03 -7.42228E+03
 -2.76011E+02  2.81257E+03 -3.16580E+03 -1.08850E+03 -2.22456E+03  1.27095E+02 -1.72039E+03 -4.50262E+01
  3.78335E+03  2.66745E+02 -2.92162E+02  1.49043E+02  6.56212E+02  2.58554E+03  4.29195E+02  2.69318E+03
  6.05170E+02  4.95723E+03 -6.61963E+03 -1.73946E+03 -4.00167E+03 -8.81187E+02 -2.08968E+03 -6.58515E+03
  4.21368E+03 -5.55508E+03  1.11058E+03 -8.20069E+03  5.92621E+03  1.34693E+02 -7.83189E+02  2.76879E+03
 -6.55624E+02  9.05286E+03 -8.47374E+03 -1.17421E+03 -3.50073E+03  1.30048E+03 -3.79421E+03 -9.50804E+02
 -7.68670E+02 -2.41266E+03  1.12918E+03  2.54190E+03 -3.76031E+03  2.72724E+03 -4.97538E+03  1.34993E+03
 -2.31691E+03 -2.82965E+03 -2.99511E+03 -6.85091E+03 -4.62029E+03 -4.49744E+03  1.00061E+04  5.24739E+02
  1.95022E+03  7.32882E+03  6.14313E+03  2.72134E+03 -1.06399E+03  2.96090E+03 -5.47006E+03  3.95968E+03
