 $NMID ID='MM_0lb_SNR50_20hz_g40_83.RAW', FMTDAT='(8E13.5)'
 TRAMP=1., VOLUME=1. $END
  3.14009E+05 -1.62279E+03  3.39528E+05  2.53353E+05  7.99419E+04  3.40502E+05 -1.34223E+05  2.48315E+05
 -1.85723E+05  8.13984E+04 -1.09509E+05 -3.36806E+04  1.45390E+03 -5.30341E+04  5.88447E+04  3.96930E+03
  3.17258E+04  5.07161E+04 -1.68435E+04  7.58375E+04 -6.18488E+04  6.05257E+04 -8.13257E+04  3.20127E+04
 -7.86397E+04 -8.31707E+03 -5.85075E+04 -4.70530E+04 -1.52450E+04 -6.53021E+04  2.73755E+04 -4.71141E+04
  3.66091E+04  2.30565E+03  1.61929E+04  4.99416E+04 -3.02417E+04  4.84202E+04 -6.99517E+04 -5.80850E+02
 -5.08459E+04 -5.60224E+04 -6.02109E+03 -7.82189E+04  3.23284E+04 -5.24238E+04  4.30783E+04 -1.70952E+04
  4.23621E+04  1.05245E+04  2.65534E+04  2.52798E+04  1.60810E+04  2.71499E+04 -2.79054E+03  2.93681E+04
 -2.14174E+04  1.07044E+04 -2.01804E+04 -4.66307E+03  7.96234E+03 -6.22193E+03  1.76643E+04  1.03849E+04
  9.58648E+03  2.79123E+04 -2.70049E+04  3.06621E+04 -6.15642E+04  7.49031E+03 -5.34319E+04 -4.05169E+04
 -1.35424E+04 -6.11244E+04  3.61777E+04 -4.27858E+04  5.67924E+04 -2.33276E+03  2.79140E+04  2.45316E+04
 -4.53487E+03  3.14266E+04 -2.57836E+04  1.01257E+04 -2.72327E+04 -5.14883E+03 -9.42295E+03 -8.29551E+03
 -1.09480E+04 -1.07903E+04  1.60275E+03 -1.41362E+04  2.74720E+03 -2.22555E+04  1.57040E+04 -1.49310E+04
  1.27692E+04  4.27385E+03 -6.36743E+03  1.34108E+04 -1.93704E+04 -2.24983E+03 -9.36774E+03 -2.95735E+04
  1.95433E+04 -4.07765E+04  4.55152E+04 -1.53900E+04  4.08687E+04  1.75454E+04  7.56022E+03  3.95415E+04
 -1.65451E+04  2.72685E+04 -2.48156E+04 -8.05716E+02 -1.19451E+04 -2.66509E+04  2.18017E+04 -3.05472E+04
  3.52683E+04 -3.45145E+03  2.97465E+04  2.15648E+04  1.23280E+04  3.91770E+04 -9.61419E+03  4.34315E+04
 -2.60530E+04  2.55848E+04 -3.43960E+04  1.00233E+04 -3.70845E+04 -1.34287E+04 -2.14456E+04 -3.20659E+04
  4.09928E+03 -2.94670E+04  2.22108E+04 -1.06559E+04  2.60209E+04  1.02124E+04  1.88871E+03  1.40641E+04
 -1.71375E+04  1.06989E+04 -7.86519E+03 -6.72468E+03  3.81037E+03 -1.16724E+04  1.42019E+04  1.01112E+04
  9.84201E+03  1.99501E+04 -7.46959E+03  2.20783E+04 -2.12869E+04  7.08435E+03 -2.43637E+04 -6.74774E+03
 -1.81688E+04 -1.92261E+04 -6.79877E+03 -1.63538E+04  1.67423E+02 -1.03859E+04  1.02743E+04 -1.31844E+04
  1.36565E+04 -1.37261E+04  2.66149E+04  1.07026E+03  1.93696E+04  1.63186E+04  4.00803E+03  2.79611E+04
 -1.53926E+04  2.30112E+04 -3.06094E+04  9.74282E+03 -1.97646E+04 -1.33229E+04 -3.85240E+03 -1.60401E+04
 -1.44059E+03 -2.75306E+03 -4.75793E+03  4.40480E+03 -1.38274E+04  2.59454E+03 -9.53934E+03  1.04034E+02
 -1.09845E+04 -1.32645E+04  4.09970E+03 -1.97522E+04  8.38764E+03 -1.31769E+04  1.54352E+04 -2.60873E+03
  8.65493E+03  1.46683E+04 -2.10001E+01  1.41903E+04 -9.90301E+03  3.84410E+03 -1.37058E+04 -4.25393E+03
 -1.12380E+04 -9.68057E+03  6.85818E+02 -1.72975E+04  7.79561E+03 -1.24952E+04  1.83880E+04 -6.97357E+03
  1.10886E+04 -1.04706E+03  1.14884E+04  4.20186E+03  4.72047E+03  1.70836E+03  5.21973E+03  2.32790E+03
  9.82518E+03 -9.31964E+02  1.28010E+04  1.07570E+04  8.29065E+03  2.55600E+04 -3.06536E+03  2.31116E+04
 -1.89565E+04  1.74468E+04 -1.77684E+04  4.64595E+03 -2.02100E+04 -3.37228E+03 -2.21823E+04 -1.13398E+04
 -4.73454E+03 -1.66324E+04  6.15116E+03 -1.72655E+04  1.68753E+04 -1.05482E+04  1.23710E+04  5.32193E+03
  7.73008E+03  9.32880E+03 -8.74112E+03  1.01959E+04 -1.18666E+04  1.70944E+03 -5.44520E+03 -4.57038E+03
 -1.92932E+02 -1.21957E+04  3.68830E+03 -5.40242E+03  4.95509E+03 -2.65767E+03  3.18764E+03  5.26093E+03
 -5.24602E+03 -1.31693E+03 -1.59291E+03 -9.30763E+02  8.40536E+02 -5.42338E+03  8.46994E+03 -7.58976E+03
  8.43265E+03 -4.53122E+03  5.27968E+03  5.06907E+03  7.37104E+03  7.00052E+03  5.49785E+03  9.33779E+03
 -3.37641E+02  1.35011E+04 -4.70927E+03  8.36043E+03 -1.23451E+04  5.31782E+03 -9.11920E+03 -8.83335E+02
 -6.37594E+03 -2.73822E+03 -6.08400E+02  3.17010E+03 -2.10908E+03  4.17234E+03  1.72075E+03  4.51075E+03
 -8.68774E+03  6.16550E+01 -7.17876E+03 -3.46683E+03 -6.99464E+03 -9.14222E+03  6.78157E+03 -6.75007E+03
  8.34570E+03 -2.47471E+03  1.57976E+03  3.43592E+03 -4.65713E+01  9.39683E+02 -1.34181E+03  1.57412E+03
 -1.94106E+03 -6.12848E+03  2.58606E+03 -8.04263E+03  3.21018E+03 -4.67378E+03  7.04934E+03 -6.46880E+03
  9.79528E+03  5.68824E+02  3.91973E+03  6.10452E+03  1.60800E+03  4.71814E+03 -1.35336E+03  5.75339E+03
 -5.86692E+03  2.31266E+02 -1.34749E+03 -5.54912E+03  3.38375E+02 -4.01272E+03  6.07275E+03 -3.20424E+03
  4.36417E+03  6.72496E+03  2.14840E+02  5.95717E+03 -3.04483E+03  2.04917E+03 -4.33789E+03  1.31952E+02
 -6.74835E+03  5.70729E+02  2.20074E+03 -5.91700E+03  9.97377E+02 -1.73687E+03  6.39070E+03  5.53647E+02
 -6.99978E+02  3.46632E+03 -3.97279E+03  2.33976E+03 -5.43993E+03  5.76785E+03 -4.75811E+03  1.85012E+03
 -3.96816E+03  1.34373E+03  2.14009E+02 -5.65315E+03  2.97407E+03 -2.69179E+03 -3.61396E+02  2.92161E+03
  2.32724E+03  5.02336E+03 -7.27221E+02  4.17212E+03 -7.03455E+03  7.58303E+03 -4.25238E+03 -1.03274E+03
 -4.25408E+03 -4.10563E+03 -2.38998E+03 -5.72684E+03  4.05585E+02 -3.74833E+03 -1.74952E+03 -1.49723E+03
 -3.71995E+02  2.39600E+03  1.86960E+03  2.84049E+03 -9.11719E+02 -1.14911E+03 -1.12526E+03 -3.38762E+03
  4.82099E+03  4.10254E+03  6.66558E+02  5.17780E+02  2.26691E+03  5.19302E+03  4.59896E+03  8.48488E+03
  1.76124E+03  5.40189E+03 -8.59982E+03  3.43882E+03 -6.73674E+03  1.97549E+03 -7.41887E+03  3.20040E+02
 -5.04676E+03 -5.42716E+03  2.13501E+03 -5.58105E+02 -1.42429E+03 -3.75746E+03 -1.38430E+03 -2.79074E+03
  7.46817E+02 -2.40281E+03  1.54416E+03 -1.32145E+03  2.38422E+03  2.02823E+03 -7.90109E+02  3.05241E+03
  4.05900E+03 -1.47438E+03  5.69974E+02  1.71161E+03 -4.36444E+02  4.54111E+03 -5.38335E+03  1.31065E+03
 -4.94744E+03 -1.72139E+03  6.48832E+02  2.40873E+03  2.13699E+02 -2.86978E+02 -1.22429E+03 -4.62885E+03
  3.70579E+03  1.79439E+02  3.93303E+03  2.27423E+03  3.19107E+03  3.91192E+03  3.25927E+02  2.06172E+03
  2.73683E+03  4.65609E+03 -9.05807E+02 -1.19113E+03  9.55787E+02 -4.10290E+02  4.84219E+03  3.81741E+02
 -2.41391E+03  1.41099E+03  5.53763E+02  4.00904E+03 -3.91609E+03  2.24379E+03 -8.59452E+03 -1.21637E+03
 -1.33890E+03 -4.27174E+03  3.41495E+03 -4.16925E+03  1.85718E+03 -5.09394E+03  3.23716E+03  2.75420E+03
  2.22822E+03 -4.98541E+02 -1.13011E+01  9.85227E+02 -5.92691E+02  6.75713E+03 -2.73228E+03 -1.73342E+03
 -3.84828E+03  3.17774E+03 -2.24579E+03 -1.52752E+03 -5.99621E+03 -5.75787E+03  2.63768E+03 -6.67127E+03
  2.14137E+03 -4.60110E+02  1.47424E+03 -1.97435E+02  6.98488E+02  2.05869E+03  2.55856E+03 -3.26789E+02
  3.53989E+03  4.86646E+02  4.16389E+03  5.56348E+02  6.79294E+02  1.91074E+02 -8.93627E+02  3.76513E+03
  8.19943E+02  7.14438E+03 -1.49327E+03  2.21794E+03  1.09493E+03  1.70440E+03 -1.52322E+03  3.97580E+03
 -4.21702E+02 -3.53548E+03 -5.12018E+02 -3.61267E+03  4.63766E+03 -1.62158E+03  1.74721E+03 -7.54064E+03
  3.41862E+03  2.05218E+03  2.54911E+03  2.24522E+03 -6.36760E+02  2.69418E+03 -3.55023E+02  7.95440E+02
  5.57940E+02  1.69759E+03 -1.87167E+03  4.68773E+03  2.57765E+03 -2.29966E+03  1.01802E+03  3.14359E+03
  3.61431E+03  4.03817E+03 -1.33391E+03 -4.92375E+01  1.61454E+03 -4.02912E+02  8.78222E+02 -2.35105E+03
 -2.66106E+03  2.03041E+03 -1.02940E+03  2.01762E+03  2.25395E+03  4.48407E+03  6.07339E+02  4.61704E+03
 -7.39434E+03  3.53985E+02 -5.15551E+03  3.64800E+02 -2.24427E+03  1.07328E+03  2.56898E+03  8.13232E+02
  1.48396E+03 -1.79501E+03  6.87845E+03 -1.31567E+03 -1.49092E+03  5.52438E+02 -1.01814E+03  1.34589E+03
 -4.44179E+03  2.71370E+03  1.49761E+03 -2.77587E+03  6.75629E+01 -1.93480E+03 -2.08510E+03 -6.45877E+01
 -3.65258E+03 -2.38019E+03  6.38643E+02 -1.52377E+03  2.80298E+03 -5.65937E+02 -1.30591E+03  2.31277E+02
  6.84730E+02 -1.79979E+03 -3.38708E+03 -3.88761E+02  2.08970E+03  8.81107E+02  2.20653E+03 -4.27893E+03
 -3.20401E+03  8.59581E+02 -1.93994E+03 -1.38413E+02  4.75018E+03  6.34837E+02  1.39664E+02  5.09135E+03
  1.17386E+03 -1.09183E+03 -1.98734E+03 -1.39482E+02 -3.60331E+03  1.41938E+03  1.49367E+03 -2.00150E+03
  1.35774E+03  1.86479E+03 -1.52300E+03 -1.91236E+03  2.88511E+03 -3.11772E+03  1.14433E+03 -1.07287E+03
  2.00837E+03  3.48193E+03  8.72199E+02 -3.88094E+03 -2.54974E+03  2.25909E+03  1.13555E+02 -2.15164E+03
  2.74145E+02  1.44599E+03 -3.98951E+03 -1.58259E+03 -2.88792E+03 -3.54293E+03 -4.06748E+03 -1.80257E+03
 -7.30671E+02  1.12558E+03 -1.43689E+02 -5.01344E+03 -1.74689E+03  2.21684E+03 -6.63688E+02  1.01876E+03
  1.89023E+03 -1.42399E+03  1.23030E+03  1.09152E+03  1.90110E+02  4.66875E+02  1.13798E+03  2.75190E+03
  2.85385E+03 -2.32848E+03  5.57793E+02  4.86583E+03  2.95598E+02  1.41052E+03 -3.80873E+03  1.24780E+02
 -2.73457E+03 -5.01224E+02 -1.17196E+03 -1.53011E+03  7.29112E+02  6.60989E+02  1.18094E+03 -1.02298E+03
 -1.33462E+02  4.05262E+03  9.85177E+02  1.14509E+03 -9.39563E+02  7.41942E+02 -2.51724E+03  3.26563E+03
 -7.09149E+02 -5.31954E+03 -1.89375E+03  3.90368E+02  6.38347E+03  2.99812E+02 -9.22439E+01  2.06605E+03
  2.80338E+03 -6.59041E+02  2.59027E+03 -2.18210E+03  3.94814E+01  7.64809E+02 -4.26926E+03 -2.84267E+03
  1.95466E+03  2.59767E+03  3.73633E+03 -5.04995E+02 -1.95599E+03  1.93814E+03  7.29500E+02  1.78275E+03
  1.17126E+02 -1.77128E+03  2.72556E+02  1.60640E+03  4.22041E+03 -3.00482E+02  9.84783E+02 -4.01872E+03
  5.94059E+02 -1.51270E+03  3.88986E+03  8.89348E+02 -2.01371E+03  7.78756E+02  9.98509E+02  1.38307E+03
 -2.84155E+02 -2.01278E+03 -2.30045E+03  1.30600E+03  3.11786E+03 -3.45100E+03 -7.11117E+01 -6.72232E+01
 -1.88466E+01  1.68191E+03  3.15601E+03 -1.59219E+03  3.67311E+03 -4.28879E+03 -8.87349E+02 -3.17562E+03
  8.16004E+02  1.86187E+03 -1.73880E+02 -2.55761E+03  5.56795E+02  2.45114E+03 -2.23865E+03  1.78186E+03
 -1.55183E+03  3.75755E+03 -1.22122E+03  7.07074E+02  9.73543E+02  2.12762E+03 -9.45290E+02 -3.28316E+03
 -1.83121E+03 -2.14030E+03 -1.03720E+03  1.53794E+03 -6.52978E+02  6.35797E+02 -9.16041E+02  9.29840E+02
