 $NMID ID='MM_0lb_SNR50_18hz_g50_89.RAW', FMTDAT='(8E13.5)'
 TRAMP=1., VOLUME=1. $END
  3.08388E+05  7.48873E+02  3.41161E+05  2.51320E+05  8.50388E+04  3.36398E+05 -1.34203E+05  2.54577E+05
 -1.93083E+05  8.80449E+04 -1.06711E+05 -2.86055E+04  4.03023E+03 -5.26114E+04  5.17636E+04  1.04159E+03
  3.71991E+04  5.45322E+04 -1.55851E+04  7.59422E+04 -5.70153E+04  5.84386E+04 -7.98669E+04  2.99909E+04
 -7.93194E+04 -6.22173E+03 -5.58205E+04 -4.67485E+04 -1.53252E+04 -6.81599E+04  2.82660E+04 -4.30823E+04
  3.83574E+04  4.79079E+03  1.54236E+04  4.85924E+04 -3.54210E+04  4.79752E+04 -6.36953E+04 -2.44292E+03
 -5.71933E+04 -5.82603E+04 -3.11858E+03 -7.58615E+04  3.35451E+04 -5.35307E+04  4.88956E+04 -1.40932E+04
  4.37645E+04  1.26263E+04  3.42713E+04  2.16942E+04  1.80748E+04  3.26255E+04 -4.95321E+03  2.74454E+04
 -1.87788E+04  1.54697E+04 -1.86777E+04 -7.15851E+03  4.79214E+03 -5.76604E+03  1.91637E+04  1.47274E+04
  4.36505E+03  3.42201E+04 -2.76498E+04  3.52121E+04 -6.23421E+04  1.47214E+03 -5.66999E+04 -3.92943E+04
 -9.24655E+03 -6.04431E+04  4.07906E+04 -3.91403E+04  5.62654E+04 -4.98543E+03  3.46975E+04  3.14240E+04
 -6.23624E+03  3.28919E+04 -3.18103E+04  1.33629E+04 -2.88799E+04 -6.63237E+03 -1.63689E+04 -1.15187E+04
 -8.36251E+03 -9.41883E+03  8.41261E+02 -1.37291E+04  8.53677E+03 -2.52454E+04  1.49175E+04 -1.04835E+04
  1.02007E+04  7.26151E+03 -6.41196E+03  1.49398E+04 -1.90941E+04 -2.50303E+03 -9.15504E+03 -3.78914E+04
  2.16129E+04 -4.26304E+04  5.01253E+04 -1.81891E+04  4.24648E+04  1.75171E+04  1.93063E+04  4.54132E+04
 -1.72270E+04  3.40873E+04 -3.17481E+04 -2.35671E+03 -1.13922E+04 -2.52586E+04  1.97406E+04 -2.98960E+04
  4.41251E+04 -1.19257E+04  3.65463E+04  2.59071E+04  1.84061E+04  4.12264E+04 -5.82439E+03  4.49210E+04
 -2.73685E+04  2.78009E+04 -3.80395E+04  8.34172E+03 -3.69295E+04 -1.46916E+04 -2.20097E+04 -3.35770E+04
  7.53099E+03 -3.60785E+04  2.70282E+04 -1.39729E+04  3.06693E+04  1.53108E+04  2.52207E+03  1.88842E+04
 -1.47003E+04  8.89468E+03 -1.09699E+04 -8.83499E+03  7.76467E+03 -9.67530E+03  1.67430E+04  6.35508E+03
  1.24357E+04  2.41724E+04 -9.82108E+03  1.99829E+04 -1.90143E+04  4.60292E+03 -2.63342E+04 -6.91917E+03
 -1.91031E+04 -1.81650E+04 -9.57675E+03 -1.94822E+04  2.59706E+03 -1.45963E+04  7.58856E+03 -1.62664E+04
  1.99006E+04 -1.23429E+04  3.33318E+04 -2.84039E+03  2.34187E+04  2.00649E+04  6.94377E+03  3.04705E+04
 -1.79138E+04  3.15298E+04 -2.62376E+04  5.94709E+03 -2.07742E+04 -9.01782E+03 -3.69452E+03 -1.51943E+04
 -1.55615E+03  1.35630E+02 -8.49323E+02  9.61025E+03 -1.20779E+04  5.74771E+03 -1.52223E+04 -2.42574E+03
 -6.16172E+03 -1.51291E+04  6.10223E+03 -2.02265E+04  1.51045E+04 -1.40494E+04  1.77276E+04 -1.20954E+03
  7.32454E+03  1.19641E+04 -5.11260E+03  1.64144E+04 -1.28893E+04  6.30660E+03 -1.59983E+04 -5.94641E+03
 -1.18404E+04 -1.35439E+04  3.19952E+03 -1.50217E+04  1.19873E+04 -1.62574E+04  1.40898E+04 -7.50947E+03
  1.21669E+04  6.04968E+03  1.61458E+04  7.36509E+03  2.33708E+03  9.29489E+02  1.22983E+04  3.33525E+02
  1.44437E+04  1.04353E+03  1.52645E+04  1.51850E+04  9.93782E+03  3.02174E+04 -2.47218E+03  2.95841E+04
 -1.60340E+04  2.50814E+04 -2.49416E+04  1.46934E+04 -2.74234E+04 -3.56197E+03 -1.97450E+04 -1.55976E+04
 -9.89364E+03 -2.21786E+04  6.41616E+03 -2.12525E+04  2.37485E+04 -1.10459E+04  1.66035E+04  1.41456E+03
  4.94889E+03  1.19643E+04 -8.20776E+03  1.50349E+04 -1.75601E+04  1.59624E+03 -1.60054E+04 -6.53236E+03
  5.46354E+02 -1.39974E+04  7.97298E+03 -7.87154E+03  9.81772E+03 -2.08006E+03  3.12492E+03  8.56326E+03
 -4.85725E+03  3.61789E+03 -3.50743E+03 -3.52766E+03 -1.06972E+03 -1.25304E+04  4.65955E+03 -9.84260E+03
  1.44632E+04 -4.18954E+03  1.35351E+04  7.72474E+02  8.70538E+03  8.46446E+03  4.61142E+03  1.38839E+04
 -2.72800E+03  1.40425E+04 -7.11113E+03  1.04578E+04 -1.11166E+04 -3.33470E+03 -8.14394E+03 -8.01383E+03
 -7.60446E+03 -4.65347E+03 -3.29866E+03  5.30489E+02  2.54477E+03  5.89924E+03 -4.69926E+03  4.87341E+03
 -1.33082E+04 -2.27255E+03 -1.05970E+04 -7.53003E+03 -3.24145E+03 -1.24645E+04  6.31156E+03 -1.43079E+04
  9.78220E+03 -1.99578E+03  6.02999E+03  5.30207E+03 -1.89151E+03  3.41294E+03 -5.56767E+03 -2.25395E+03
 -4.11567E+03 -4.35355E+03  7.22838E+02 -8.90149E+03  2.14226E+03 -7.86291E+03  6.39645E+03 -4.64634E+03
  1.38855E+04 -1.44540E+03  1.14821E+04  8.12727E+03  2.45107E+03  8.37862E+03 -2.47343E+03  1.37817E+04
 -4.33008E+03 -1.52266E+03 -4.44680E+03 -2.30263E+03  3.63345E+03 -3.19168E+03  5.79340E+03 -2.02840E+02
  4.77785E+03  9.33163E+01 -1.33028E+03  8.43820E+03 -6.80127E+03  4.62135E+03 -6.64023E+03  2.67625E+03
 -2.74702E+03 -5.22513E+03 -4.73941E+02 -1.18432E+04  7.49943E+03  1.25178E+03  3.28418E+03  4.49843E+02
 -1.57514E+03  7.02813E+03 -3.07910E+03  1.08641E+04 -9.27901E+03  3.13036E+03 -4.81036E+03 -5.68345E+01
 -3.41105E+02 -9.82334E+03  1.35055E+03 -8.26570E+03  4.22392E+03 -1.71382E+03  4.76452E+03 -2.23298E+03
  2.10693E+03  5.14603E+03  4.04210E+02  9.92027E+03 -4.51434E+03  6.76534E+03 -5.53980E+03 -1.52202E+03
 -2.93161E+03 -7.57187E+03 -8.09318E+02 -7.99259E+03  4.51259E+03 -1.93689E+03  9.27657E+00  9.30273E+02
  1.15822E+03  7.39868E+02 -1.42400E+03  4.05311E+03 -1.37553E+03 -3.42703E+03 -3.50359E+03 -4.63988E+03
  1.18880E+03 -2.15301E+03  7.99514E+03  1.07036E+03  4.47517E+03 -9.76588E+02  3.78175E+03  6.29395E+03
 -1.97988E+03  9.48714E+03 -6.92802E+03  5.62994E+03 -1.22126E+04 -5.27308E+01 -1.03846E+04 -3.26758E+03
 -7.08898E+03 -9.16792E+03 -2.91888E+03 -5.16319E+03  5.30446E+02 -5.68325E+03  7.63815E+03  4.73015E+02
  4.58816E+02 -2.41830E+03  2.90010E+03 -3.43275E+03  6.40568E+03 -1.90335E+03  4.64826E+03 -1.66825E+03
 -6.87401E+02  2.24783E+03  4.03224E+03  2.68401E+03 -1.29386E+03  5.67308E+03 -7.27604E+03  5.75610E+03
 -7.98157E+03 -3.04040E+03  6.78114E+02 -6.25662E+02  1.41822E+03 -8.10714E+03 -4.68227E+00 -7.32723E+03
  1.18262E+04 -5.17589E+03  9.43534E+03 -2.32911E+02  5.75374E+03  8.14310E+02  1.26997E+02  3.55435E+03
 -8.05558E+03  5.94030E+03 -6.25553E+03  4.93165E+03  1.32065E+03 -4.11676E+03 -4.48022E+03  4.59667E+02
 -1.21453E+03  1.35415E+03 -2.21228E+03  1.80653E+03  1.86253E+03  1.24124E+03 -1.03740E+04  1.86693E+03
 -3.17447E+02 -4.89054E+03 -1.99103E+03 -4.62766E+03  5.08735E+02 -4.93581E+03  3.43319E+03 -2.10774E+02
  5.08039E+03  2.32392E+03  2.03798E+03  8.18032E+03 -1.00524E+03  4.18966E+03  9.33380E+02  4.99465E+03
 -8.06821E+03  1.92134E+03 -3.64276E+03 -4.33103E+02  6.88054E+02 -3.12807E+03  3.49561E+03 -3.08128E+03
  6.07834E+03  2.98756E+02  4.25908E+01 -2.11675E+03  2.29984E+03 -1.53890E+03  1.54721E+03  1.88293E+03
  1.80661E+03  4.80238E+03  2.03139E+03 -1.02317E+03  3.43238E+03  4.72841E+02 -1.90263E+03  1.49555E+03
 -9.30021E+02  3.70958E+03 -3.07267E+03  7.38017E+03 -6.34750E+03  8.23842E+02 -5.44563E+03  1.17548E+03
  2.98724E+03 -6.56827E+03  1.09732E+03 -7.27109E+03  6.40052E+03 -2.81980E+03  5.35679E+03 -1.92976E+03
  4.56291E+03  2.61247E+03  1.11486E+02  2.10741E+03 -2.90726E+03 -1.38239E+03 -1.04741E+03  3.05682E+03
 -7.15912E+02  2.92974E+03 -2.21354E+02  1.91983E+01  5.13676E+02 -6.32879E+01  2.36439E+03 -1.22550E+03
  7.13594E+02 -2.36496E+02  3.99099E+03  6.99471E+02 -1.20384E+03 -5.94884E+02 -1.16792E+03 -6.95841E+02
 -5.60979E+01  6.59406E+02  3.55270E+03  1.53465E+03  1.43847E+03  9.02918E+02  2.54909E+03  3.98303E+03
 -1.97928E+03  1.49967E+03 -6.07403E+02  8.09730E+02 -2.94742E+03 -1.43291E+03 -2.98246E+02 -1.59276E+03
  2.33384E+03  4.52245E+03 -4.09969E+02  2.48937E+02 -1.71747E+02 -9.67003E+02 -2.74564E+03  1.47200E+03
  1.81907E+03  2.28643E+03 -2.20273E+03  6.72594E+02 -2.80279E+02 -1.66155E+02  1.05756E+03  1.78389E+03
  3.12663E+03  1.01821E+03  6.82503E+02 -1.96174E+03  5.21924E+02  3.72212E+03 -2.21995E+03 -9.65437E+00
 -5.49454E+02 -2.57723E+03 -4.78360E+03  4.84105E+02  1.05844E+02 -2.12586E+03 -2.70417E+02  4.60865E+02
  3.23693E+03  2.39686E+03  2.73250E+03  5.41552E+03  1.95151E+02  1.13712E+03  2.95594E+03  6.19113E+02
 -6.85865E+03  7.00430E+03  4.31701E+02 -8.16459E+02  5.91393E+00  4.22884E+02 -1.24798E+03  1.82219E+03
  2.50075E+03 -1.63018E+03  9.45552E+02  7.71743E+01  5.67390E+01 -6.60145E+02  2.31009E+01 -1.47087E+03
 -1.05624E+03  5.60895E+02 -3.66060E+03  1.43472E+03  1.49369E+03  6.96089E+03 -8.39269E+02  2.52242E+03
 -1.77224E+03  3.57837E+03 -4.59783E+03 -2.33444E+03 -5.58799E+03  1.67556E+02  5.30474E+02 -9.54552E+02
  1.41318E+03 -5.44464E+03  2.09434E+03 -6.29851E+03  1.75625E+03 -1.38878E+03 -4.81757E+02  4.77900E+02
  6.02487E+03 -1.86125E+03  2.53827E+02  4.09151E+03 -3.27906E+03  2.37934E+03  4.02217E+03  1.26509E+02
 -7.99721E+02 -2.27934E+03 -1.58424E+03 -4.80487E+02  4.58339E+02  1.99531E+03 -3.20033E+03  3.98433E+02
  9.81399E+02 -1.11478E+03  3.55173E+02  3.87276E+03 -1.27081E+03  1.64057E+02 -3.89799E+03  1.01834E+03
  9.36827E+02 -1.74948E+02  1.11533E+03  4.44760E+03 -3.20901E+02  4.60869E+02 -4.27036E+03  2.87432E+03
  2.18007E+03 -1.60941E+03 -1.26358E+02  5.60253E+03 -4.59846E+03  8.92629E+02 -2.24564E+03 -1.14841E+02
 -1.52688E+03 -1.65860E+03 -3.31153E+03 -2.66889E+02 -3.80716E+03  1.60944E+03 -8.85901E+02  1.56570E+03
  2.94995E+03  2.27183E+03  3.88599E+03 -3.46477E+02 -3.38856E+03  8.57507E+02  2.13760E+03 -1.43884E+03
  2.13409E+02  1.93991E+03  1.27424E+03 -5.64747E+01 -1.27465E+03 -5.69983E+03 -8.61860E+02  1.59942E+02
  5.31956E+03  1.47485E+03 -1.27701E+02 -1.50690E+03 -3.50845E+02 -1.01991E+03 -2.29418E+03 -3.79079E+03
  7.19061E+01 -1.56696E+03  2.41056E+03 -8.17929E+02  2.08100E+03  1.32731E+03 -2.46601E+03  1.79779E+02
 -1.58310E+03  4.20555E+03 -4.84553E+02  1.26151E+03 -2.19704E+03  1.76380E+03 -1.34826E+02 -2.11914E+02
 -8.97552E+02 -3.01503E+03  1.78171E+03  2.46524E+03 -5.28573E+02 -1.51934E+03 -8.50930E+02  1.68494E+03
 -3.06134E+03 -2.04890E+03  3.17063E+02  9.24463E+02 -1.85010E+03 -5.89320E+02  4.39159E+02  1.17968E+03
  1.79217E+03  4.91071E+02 -2.82749E+03 -4.82500E+01  1.13854E+03 -1.76295E+02 -1.49620E+03 -3.92110E+03
