 $NMID ID='MM_0lb_SNR50_13hz_g40_22.RAW', FMTDAT='(8E13.5)'
 TRAMP=1., VOLUME=1. $END
  3.11526E+05  3.28064E+03  3.35907E+05  2.47468E+05  8.25771E+04  3.37030E+05 -1.34664E+05  2.49166E+05
 -1.84809E+05  8.10808E+04 -1.11010E+05 -3.18513E+04  7.98781E+02 -4.63530E+04  5.41009E+04  3.56111E+03
  3.49854E+04  5.55125E+04 -1.62220E+04  7.71418E+04 -5.73168E+04  6.27827E+04 -8.37769E+04  3.29079E+04
 -8.10928E+04 -1.53497E+04 -5.42184E+04 -4.62478E+04 -1.23388E+04 -6.88020E+04  2.66391E+04 -4.58150E+04
  3.89705E+04  7.42520E+02  1.89495E+04  4.77614E+04 -3.12475E+04  5.42435E+04 -6.36381E+04 -1.66211E+03
 -5.41113E+04 -5.62459E+04 -4.19336E+03 -7.09209E+04  3.27688E+04 -5.70428E+04  4.73925E+04 -1.62730E+04
  4.41830E+04  1.37908E+04  3.53330E+04  2.45490E+04  1.51037E+04  3.61933E+04 -9.82035E+03  2.49937E+04
 -1.94997E+04  1.43239E+04 -2.28572E+04 -6.24378E+03  3.58814E+03 -6.99254E+03  2.18016E+04  1.20023E+04
  1.00814E+04  4.05680E+04 -3.41317E+04  3.58864E+04 -6.47693E+04 -6.77892E+02 -5.85179E+04 -3.89816E+04
 -1.26265E+04 -6.15286E+04  3.35336E+04 -4.52392E+04  5.55688E+04 -3.47520E+03  3.09332E+04  3.41350E+04
 -5.69939E+03  3.16170E+04 -3.08552E+04  1.61245E+04 -2.91118E+04 -3.33015E+03 -1.33842E+04 -1.87952E+04
 -1.05509E+04 -8.34283E+03 -2.81177E+03 -1.68354E+04  9.02427E+03 -1.77589E+04  1.72792E+04 -1.44462E+04
  1.42650E+04  5.19451E+03 -5.72440E+03  1.72992E+04 -2.12626E+04 -3.08185E+03 -9.09408E+03 -3.09084E+04
  2.37220E+04 -4.67219E+04  4.90489E+04 -2.05459E+04  4.42139E+04  1.86328E+04  1.86063E+04  4.77376E+04
 -1.39108E+04  3.22999E+04 -2.53780E+04  2.58282E+03 -1.08685E+04 -2.57027E+04  2.18111E+04 -3.88676E+04
  4.14591E+04 -1.27008E+04  3.99107E+04  2.31113E+04  2.13449E+04  5.07526E+04 -6.14458E+03  5.28081E+04
 -3.42962E+04  2.82748E+04 -4.03045E+04  5.82175E+03 -4.57739E+04 -2.00772E+04 -2.52808E+04 -3.78568E+04
  8.87128E+03 -3.32296E+04  3.19775E+04 -1.02732E+04  2.73730E+04  1.66631E+04 -8.11670E+01  1.87738E+04
 -1.20878E+04  9.08125E+03 -6.32761E+03 -7.14593E+03  7.17745E+03 -9.51107E+03  1.91741E+04  3.38488E+03
  1.12633E+04  2.21762E+04 -8.95292E+03  2.52676E+04 -2.38111E+04  9.92801E+03 -2.16611E+04 -3.28109E+03
 -2.10920E+04 -1.88501E+04 -5.76761E+03 -1.93775E+04  2.59118E+03 -1.73869E+04  2.10082E+04 -2.03275E+04
  2.50498E+04 -1.10268E+04  3.12891E+04  1.56033E+03  1.88085E+04  1.66866E+04  3.97227E+03  3.52787E+04
 -1.77847E+04  2.96240E+04 -2.97661E+04  8.32600E+03 -2.19768E+04 -5.95447E+03 -2.74178E+03 -1.27155E+04
  3.70745E+03 -2.92788E+03 -4.12116E+03  1.24395E+04 -1.83407E+04  9.97470E+03 -1.53937E+04 -2.76953E+03
 -1.18413E+04 -1.58208E+04  3.73945E+03 -2.71120E+04  1.59137E+04 -1.61463E+04  2.37405E+04 -2.62349E+03
  1.85034E+04  1.35731E+04 -5.67030E+02  1.76050E+04 -1.31846E+04  8.71131E+03 -1.74871E+04 -6.86717E+03
 -1.03134E+04 -2.02852E+04  3.27366E+02 -2.62964E+04  7.68849E+03 -1.34260E+04  1.85007E+04 -3.09692E+03
  2.16613E+04  2.98404E+02  9.74238E+03  8.33944E+03  3.96103E+03 -1.32779E+02  1.04040E+04  3.13574E+01
  1.96537E+04  3.56616E+03  1.52912E+04  1.32873E+04  8.39236E+03  3.13236E+04 -1.78469E+03  3.09610E+04
 -2.08466E+04  2.62578E+04 -2.75169E+04  1.47082E+04 -3.72130E+04 -3.01089E+03 -2.48585E+04 -1.77559E+04
 -1.53000E+04 -2.79842E+04  1.02515E+04 -2.45562E+04  1.91905E+04 -1.40072E+04  1.55067E+04  4.73825E+03
  1.21142E+04  1.01075E+04 -1.20926E+04  1.40545E+04 -1.86897E+04  1.43369E+03 -9.23947E+03 -1.05661E+04
 -4.38325E+03 -1.54805E+04  9.59090E+03 -1.13627E+04  3.02335E+03 -1.62951E+03 -1.60211E+03  5.21972E+03
 -1.31144E+04  2.37562E+03 -4.27727E+03 -2.76297E+03 -5.04051E+03 -1.41707E+04  6.72818E+03 -1.41293E+04
  1.95482E+04 -5.12411E+03  1.77576E+04  3.55466E+03  1.49988E+04  1.56318E+04  8.38374E+02  2.41290E+04
 -1.70002E+03  2.50010E+04 -1.48998E+04  1.00263E+04 -1.78198E+04  1.81557E+03 -1.26507E+04 -4.21830E+03
 -4.09966E+03 -6.03468E+03 -1.32282E+03  2.59240E+03  9.08974E+02  6.58088E+02 -7.01577E+03  6.44530E+03
 -1.23774E+04 -4.66800E+03 -1.33535E+04 -1.14390E+04 -6.26678E+03 -1.19388E+04  4.16669E+03 -1.20000E+04
  1.07421E+04 -9.48006E+02  3.20603E+03  8.16835E+03  1.13464E+01  5.33088E+03 -5.24143E+03  2.29641E+02
 -7.35010E+03 -5.88257E+03  2.99013E+03 -1.70558E+04  7.39006E+03 -1.14255E+04  1.61980E+04 -8.32945E+03
  1.72298E+04  3.01539E+03  1.32898E+04  1.04451E+04  1.55121E+03  1.20605E+04 -7.86097E+03  1.08259E+04
 -1.60469E+04  2.12121E+03 -3.19533E+03  2.26728E+03  4.85833E+02  2.59519E+03  3.59726E+03  2.22981E+03
  8.45174E+03  1.01848E+04  5.75200E+03  9.20271E+02 -3.28341E+03  9.09188E+03 -1.25073E+04  2.74209E+03
 -2.89090E+03 -5.59078E+03 -5.88074E+03 -9.54398E+03  1.14623E+04 -1.50954E+03  5.82460E+03  1.58275E+03
  2.84748E+03  7.18773E+03  1.75145E+03  8.31895E+02 -7.12052E+03  3.89205E+03 -1.04794E+04 -2.35603E+03
 -8.70061E+03 -7.71713E+03  4.58679E+03 -1.45311E+04  1.24489E+04 -5.55598E+03  7.86690E+03  3.36803E+02
  2.04436E+03  5.75999E+03 -3.32151E+01  8.55565E+03 -2.24702E+03  9.46273E+03 -7.25095E+03  4.88728E+03
 -1.21037E+04 -8.31103E+03 -2.71914E+03 -1.35103E+04  1.27011E+03 -8.82250E+03  2.61562E+02 -6.83972E+03
  7.87572E+03 -1.58697E+02 -3.37847E+03  3.84407E+03 -1.50049E+02  1.61203E+02  3.83358E+03 -6.82565E+03
  2.24850E+03 -1.09827E+03  7.02172E+03  3.25844E+03  1.29880E+04  7.91827E+03  6.30500E+03  1.54786E+04
 -1.63736E+03  1.28773E+04 -1.13441E+04  1.25308E+04 -1.31282E+04 -4.24491E+02 -8.02440E+03 -1.21888E+03
 -1.01667E+04 -9.53357E+03  3.14120E+03 -8.79705E+03  2.99992E+02 -4.06549E+03 -3.17150E+03 -4.99754E+03
  3.82673E+03 -7.56853E+02  1.30879E+03  2.17549E+03  8.05882E+03  3.94339E+02  3.42731E+03  9.87939E+02
  1.23805E+04  7.83112E+02  2.17941E+03  1.71605E+03 -1.67257E+03  6.20451E+03 -5.84446E+03  8.30336E+03
 -4.49912E+03 -3.66404E+03 -7.56578E+03 -3.96925E+03 -8.67906E+03 -9.91322E+03  5.01268E+03 -8.69537E+03
  8.41403E+03 -5.59577E+03  1.20835E+04 -2.54612E+03  1.13926E+04  6.91402E+03  2.08915E+03  1.16089E+04
 -3.52852E+03  1.49961E+04 -7.07136E+03  2.48980E+03 -6.46672E+03 -8.96829E+02 -1.33160E+03 -3.54856E+03
 -2.55807E+03 -7.46249E+03  1.09610E+03  5.08792E+03 -3.05667E+03 -3.76446E+03 -7.61156E+03  2.27820E+03
  1.19650E+03 -2.74701E+03 -1.15837E+03 -8.34292E+03  4.24394E+03 -8.48403E+03  1.05523E+04  1.96606E+03
  6.58407E+03  7.55172E+03  4.37899E+03  5.68921E+03 -4.01601E+02  7.60163E+03 -8.80388E+03  5.97214E+03
 -4.58281E+03 -5.32521E+02 -3.00950E+03 -8.94820E+02 -3.74771E+03 -6.84202E+03 -1.00439E+03 -5.17025E+03
  4.23745E+03  1.11684E+03  6.40968E+03 -4.40555E+03  2.60413E+02  1.76149E+03 -2.22979E+03  1.18448E+03
  1.03511E+03  2.34575E+03  9.96939E+02  2.68220E+03  2.71487E+03  6.00487E+03  3.40509E+03  8.83023E+02
 -4.79191E+03  4.29126E+03 -3.31597E+03  7.80935E+03 -1.05819E+04 -2.18621E+03 -5.81608E+03 -5.50626E+02
 -9.05233E+03 -1.10444E+04 -5.24850E+03 -1.05608E+04  4.11096E+03 -5.60041E+03  1.14214E+04  1.15402E+03
  6.66261E+03  3.11307E+03  5.44878E+03  3.58082E+00 -6.17277E+03  7.35413E+03 -1.44135E+03 -1.10520E+03
 -4.42838E+03 -2.44935E+03  2.76738E+03 -8.74669E+02  1.91054E+03  7.11843E+02  4.83810E+02  4.43364E+03
  4.89673E+03  2.10391E+03 -2.49847E+02  6.27308E+03  4.55376E+03  1.70940E+03  2.50817E+03 -4.56942E+03
  5.01177E+03  2.26110E+03  1.12137E+03  3.57882E+03  1.84010E+03 -1.48472E+03 -6.36395E+02  7.21013E+03
 -1.94691E+03 -3.81191E+02 -7.28203E+03 -2.97765E+03 -3.49668E+03 -2.12039E+03  1.32152E+03 -5.77714E+03
  3.58275E+01 -5.22323E+03 -8.75649E+01 -4.50505E+03 -9.03207E+02  1.61653E+03 -1.26856E+03  2.95068E+03
  8.67513E+02 -8.21451E+02 -5.94302E+03 -4.67263E+03 -2.06755E+03 -2.42570E+03  4.02579E+03 -4.10041E+03
 -3.28925E+03 -1.89976E+03 -2.08769E+03 -1.69856E+02  4.45348E+03 -1.80633E+03 -2.11840E+03  6.08402E+03
 -1.43750E+03  3.26465E+03  4.15870E+03  3.02725E+03 -1.82326E+03 -3.15151E+03  3.79775E+03 -2.92252E+03
  7.14012E+03  3.49322E+03  7.13651E+03  6.07597E+03  4.11989E+03 -8.06826E+02  3.89579E+03  6.19332E+03
 -4.95304E+03  2.87893E+03  2.74675E+03 -5.11722E+02 -2.95601E+03 -1.85808E+03  2.26485E+03  2.62971E+03
  3.15205E+03 -3.27538E+03 -9.02952E+01  1.78889E+03  1.21366E+03 -1.61111E+02  4.15744E+03  3.83490E+03
 -2.19091E+03 -4.31356E+02 -8.90982E+02  2.15742E+03  2.12606E+03 -6.82205E+02  1.21907E+03  5.67926E+02
  8.59636E+02 -8.21342E+02 -1.00875E+03  2.34008E+03 -5.77021E+03 -1.23361E+02 -7.88041E+03 -6.39275E+03
 -7.48193E+03 -4.21229E+03  4.75412E+03 -3.73565E+03  7.75854E+03 -5.73656E+03  2.53130E+03  9.92482E+02
  9.06720E+03  2.93545E+03  1.40296E+03  3.30961E+03  2.09555E+03  5.20663E+03 -2.18627E+03  9.23732E+02
 -1.19636E+03 -2.06021E+02 -2.32497E+03  1.97032E+02  2.36462E+03 -8.37353E+01 -2.91999E+03 -6.32488E+02
 -2.15497E+03 -6.40142E+01  2.68533E+03 -1.13430E+03  6.60548E+02  6.93384E+01  2.76506E+03 -5.77521E+03
 -2.05348E+02 -1.60169E+03 -2.47129E+03 -7.19752E+02  5.62831E+03 -1.22270E+03 -1.53082E+02  9.04699E+03
 -1.05284E+03  6.66096E+03 -1.14794E+04  8.52074E+02 -9.47750E+03  2.49110E+03 -3.08537E+03 -7.96918E+03
  6.95788E+02 -9.95591E+02  8.38866E+03 -7.32867E+03  3.88500E+03 -4.03478E+03  4.49020E+03  1.43652E+03
  1.34679E+03  4.07043E+03 -1.06867E+03  3.94844E+03 -1.23290E+02 -1.38185E+03 -7.89498E+01 -3.73169E+03
 -3.36679E+03 -3.93103E+03  2.65043E+03  4.05451E+02  4.41300E+02  6.26436E+02  6.53770E+03  5.10036E+03
 -4.86721E+03 -3.51533E+02 -3.64268E+03  5.61400E+03 -5.73634E+03 -3.18341E+03  2.75855E+03 -8.02726E+03
 -3.72035E+03 -1.19249E+03 -9.03552E+02 -4.07392E+03  8.74168E+03  2.84874E+03  9.77287E+01  2.12481E+03
  5.40177E+02 -1.38341E+03 -1.81311E+03  3.91669E+03  1.86777E+03  3.83818E+03 -5.10402E+03 -3.63129E+03
 -4.03467E+03 -1.16784E+03 -1.00627E+04  8.12919E+02 -4.16738E+03 -3.45238E+03  1.05023E+02  1.70849E+03
 -3.11169E+03  2.42907E+03 -3.55425E+01 -4.41383E+03  9.03060E+02 -6.39662E+03  6.47659E+03 -1.24229E+03
 -9.86575E+02 -1.34552E+03  2.54718E+03  5.41678E+03 -1.66103E+03  4.13117E+03 -3.80226E+03  5.20989E+03
