 $NMID ID='MM_0lb_SNR50_9hz_g60_100.RAW', FMTDAT='(8E13.5)'
 TRAMP=1., VOLUME=1. $END
  3.06448E+05  3.55547E+03  3.38025E+05  2.48355E+05  9.15758E+04  3.38122E+05 -1.29994E+05  2.46350E+05
 -1.84569E+05  8.49117E+04 -1.11684E+05 -2.57250E+04 -4.69460E+03 -5.68882E+04  5.30834E+04 -1.41835E+03
  3.29568E+04  5.29269E+04 -2.18373E+04  8.25660E+04 -6.63303E+04  7.06704E+04 -8.92443E+04  3.20177E+04
 -7.82953E+04 -1.24774E+04 -5.58102E+04 -5.26529E+04 -1.46029E+04 -6.99427E+04  2.34368E+04 -5.11756E+04
  4.41177E+04 -4.70487E+03  1.84092E+04  5.21770E+04 -2.92878E+04  5.23193E+04 -6.68884E+04 -4.13440E+03
 -5.38055E+04 -5.91831E+04 -3.00106E+03 -8.12407E+04  3.66094E+04 -6.67295E+04  5.08601E+04 -1.16601E+04
  5.37577E+04  1.34878E+04  3.67143E+04  2.82281E+04  2.45512E+04  3.62554E+04 -2.47385E+03  2.32583E+04
 -2.83677E+04  7.85523E+03 -2.04510E+04 -9.12085E+03  1.15912E+04 -7.00167E+03  2.22225E+04  1.02033E+04
  8.14020E+03  3.21647E+04 -3.90331E+04  4.43227E+04 -7.33169E+04  7.39025E+03 -6.77343E+04 -4.83147E+04
 -1.69297E+04 -7.28822E+04  4.35950E+04 -5.29267E+04  6.31787E+04  4.66932E+03  3.74570E+04  3.93939E+04
 -3.76267E+03  4.24126E+04 -3.35285E+04  1.43932E+04 -3.64931E+04 -1.48306E+04 -1.74348E+04 -1.34525E+04
 -4.45901E+03 -1.84951E+04 -1.25203E+03 -2.30336E+04  6.95932E+03 -2.22905E+04  1.05916E+04 -1.26495E+04
  8.20614E+03  8.90872E+02 -1.33598E+04  9.73192E+03 -2.41345E+04 -9.78128E+03 -1.28847E+04 -3.56590E+04
  1.91813E+04 -4.52519E+04  5.23601E+04 -2.30665E+04  4.96290E+04  2.39350E+04  8.08208E+03  4.48092E+04
 -1.43131E+04  3.21917E+04 -2.82259E+04 -1.01504E+03 -1.25440E+04 -3.25101E+04  2.42388E+04 -4.12477E+04
  4.65980E+04 -9.34123E+03  4.32008E+04  2.07163E+04  2.68147E+04  5.95652E+04 -4.32426E+03  5.90843E+04
 -3.55128E+04  3.92621E+04 -4.87656E+04  5.75283E+03 -4.77230E+04 -1.65671E+04 -2.76325E+04 -4.71738E+04
  1.37932E+04 -4.46113E+04  3.22069E+04 -1.68435E+04  3.09638E+04  9.50996E+03  2.29934E+03  2.51356E+04
 -2.14118E+04  1.34293E+04 -8.61543E+03 -9.94248E+03  4.31621E+03 -8.71343E+03  1.44935E+04 -7.20469E+02
  1.48770E+04  2.42764E+04 -4.73650E+03  2.68215E+04 -2.25464E+04  1.79976E+04 -3.25249E+04 -3.40338E+03
 -2.45959E+04 -2.52647E+04 -1.18529E+04 -2.58354E+04  5.68678E+03 -2.36627E+04  1.40321E+04 -2.07578E+04
  3.86548E+04 -1.94324E+04  4.01183E+04  7.13238E+03  2.73007E+04  2.81761E+04  2.21428E+03  3.93971E+04
 -1.78514E+04  3.10223E+04 -3.19819E+04  1.41671E+04 -2.61074E+04 -1.12381E+04 -6.95678E+03 -1.38197E+04
 -6.40820E+02 -4.38188E+03 -8.98886E+03  5.56960E+03 -1.88975E+04  1.02207E+04 -1.72033E+04 -1.01456E+04
 -1.13193E+04 -2.36202E+04  1.00668E+04 -1.74386E+04  1.57383E+04 -2.17215E+04  2.38464E+04  2.47133E+03
  1.92370E+04  1.35873E+04 -6.66588E+03  2.36135E+04 -1.76598E+04  2.05613E+04 -2.38195E+04 -7.80838E+03
 -1.42416E+04 -2.55041E+04 -3.65569E+03 -3.28013E+04  1.26050E+04 -2.04358E+04  2.50890E+04 -1.19468E+04
  2.03176E+04 -3.56570E+03  1.44143E+04  6.62876E+02  1.20899E+04 -3.18138E+03  1.99061E+04  4.60821E+03
  2.57393E+04  9.76884E+03  2.64992E+04  1.20129E+04  2.15523E+04  3.55393E+04 -3.03308E+03  4.56149E+04
 -2.45329E+04  3.61934E+04 -4.12695E+04  1.56273E+04 -4.53289E+04 -4.68920E+03 -4.27029E+04 -2.74093E+04
 -1.25593E+04 -3.98848E+04  1.29615E+04 -3.48140E+04  2.77694E+04 -1.13410E+04  1.90912E+04  8.82996E+03
  7.54058E+02  1.90037E+04 -1.16345E+04  1.71543E+04 -2.10422E+04  7.43640E+03 -1.76917E+04 -1.79764E+04
 -2.04349E+03 -2.43898E+04  1.68036E+04 -1.54521E+04  1.56194E+04 -3.19191E+03 -4.84956E+03  9.22382E+03
 -1.19881E+04  3.61164E+03 -2.86645E+03 -8.48527E+03 -2.51541E+03 -1.81284E+04  9.95785E+03 -2.38128E+04
  2.65908E+04 -1.47759E+04  2.91225E+04  4.65483E+03  1.79023E+04  1.88138E+04  4.69660E+03  3.37964E+04
 -6.43641E+03  3.28834E+04 -2.21234E+04  1.49069E+04 -1.86024E+04  1.84642E+03 -2.57779E+04 -7.78892E+03
 -6.08108E+03 -6.24280E+03  3.23961E+03 -1.10010E+02 -5.27577E+03  5.99388E+03 -3.22446E+03  3.35534E+03
 -8.79299E+03  8.62852E+02 -1.14607E+04 -1.59409E+04 -8.63417E+03 -1.99113E+04  5.10353E+03 -2.08352E+04
  1.05638E+04 -5.90831E+03  1.81276E+04  4.56186E+03 -2.31825E+03  4.11957E+03 -1.01035E+04  9.17496E+03
 -9.57947E+03 -4.51150E+03  1.79580E+03 -1.46117E+04  1.79568E+04 -1.65534E+04  2.83575E+04 -7.24054E+03
  2.59038E+04  2.96163E+03  1.71968E+04  1.65820E+04  3.93652E+03  2.15532E+04 -1.55845E+04  1.21920E+04
 -9.20713E+03  5.96645E+03 -3.86916E+03 -4.27373E+03  7.01585E+02 -4.47940E+03  7.42086E+03  3.15114E+02
  4.07547E+03  1.25895E+04  4.00978E+03  1.84464E+04 -1.45737E+04  1.29377E+04 -2.06591E+04  6.99855E+03
 -6.55692E+03 -1.48852E+04  5.44698E+03 -1.16240E+04  1.12195E+04 -9.60077E+03  1.29092E+04  5.58267E+03
  7.53103E+03  8.07575E+03 -6.46361E+03  1.53470E+04 -1.24941E+04  8.62527E+03 -1.63273E+04 -6.06938E+03
 -1.30141E+04 -2.21290E+04  1.52992E+03 -1.90851E+04  1.30091E+04 -1.11752E+04  1.80884E+04  3.52783E+03
  1.41282E+04  8.80055E+03 -9.41287E+03  2.29233E+04 -1.55590E+04  9.04336E+03 -1.78388E+04 -3.66905E+03
 -1.58496E+04 -4.62125E+03 -1.50451E+02 -1.34619E+04  8.11720E+03 -1.25651E+04  4.99561E+03 -6.41794E+02
  4.21159E+03 -2.85107E+03  3.55120E+03  5.95287E+01  6.51716E+03 -4.06401E+03 -2.97680E+03 -8.26118E+03
  1.58486E+04  4.44763E+03  1.99237E+04  5.40577E+03  2.16143E+04  1.40093E+04  1.33747E+04  2.81067E+04
  1.18555E+03  2.14213E+04 -1.98180E+04  1.84223E+04 -2.29587E+04  6.90674E+03 -2.13684E+04 -1.28429E+04
 -9.24744E+03 -1.93025E+04  1.52260E+02 -2.00767E+04  8.94434E+03 -9.17657E+03 -2.00100E+03 -7.45982E+03
  8.89498E+03 -2.08061E+03  6.09583E+03 -8.82581E+03  5.55578E+03 -4.46722E+03  9.07395E+03 -3.96312E+03
  1.35293E+04  3.76094E+03  6.82987E+03  7.21850E+03 -1.11653E+03  1.14842E+04 -1.05427E+04  8.98772E+03
 -2.68175E+04 -4.04070E+03 -7.26795E+03 -1.11517E+04  1.18535E+03 -1.82673E+04  7.84962E+03 -2.05348E+04
  1.61424E+04 -1.40446E+04  2.31749E+04  4.64209E+03  1.35779E+04  1.73763E+04  4.53061E+03  1.75476E+04
 -1.46568E+03  1.85639E+04 -1.07368E+04 -2.06982E+01 -5.82728E+03 -2.06644E+02 -4.50280E+03 -1.33885E+03
 -1.17387E+02  1.91843E+03 -4.70559E+03 -1.04205E+03 -6.23816E+03  3.98626E+03 -8.27767E+03 -7.06906E+03
 -1.03973E+04 -1.02155E+04 -3.51560E+03 -1.38259E+04  7.43137E+03 -1.52004E+04  8.54238E+03 -9.18499E+02
  1.69124E+04  1.16619E+04  5.68370E+03  1.21792E+04 -4.42850E+03  9.33126E+03 -1.57833E+04  1.24158E+04
 -1.21806E+04  2.64788E+03 -8.19564E+03 -1.01296E+04  1.89362E+03 -1.80677E+04  6.48289E+03 -1.57965E+04
  6.36028E+03 -3.97670E+03  6.47626E+03  3.04344E+03 -1.34700E+03  2.47863E+03 -4.76014E+02  1.29365E+04
 -1.62566E+03 -6.27289E+03  4.46810E+02  3.98248E+03  4.78645E+03  4.59383E+03  7.07716E+03  1.17848E+04
  1.46255E+03  1.86830E+04 -8.94101E+03  6.28870E+03 -1.33918E+04  4.52927E+03 -1.33846E+04 -1.20214E+04
 -1.12299E+04 -2.06045E+04 -9.01302E+02 -1.58140E+04  7.36063E+03 -1.58137E+04  1.33693E+04 -5.38558E+03
  1.44742E+04  1.41335E+04  8.53146E+03  8.82638E+03 -2.90901E+03  7.50535E+03 -6.31430E+03 -2.91463E+03
 -4.32721E+03 -1.05197E+04  5.65364E+03 -1.09619E+04  9.24308E+03 -4.31050E+03 -7.84712E+02  2.74667E+03
  2.90276E+03 -1.79723E+03  1.66534E+03  2.40113E+03 -3.65277E+03 -1.99864E+03  5.52324E+03  2.84365E+03
 -1.94256E+03  3.69372E+03  7.84354E+03 -5.95039E+03 -2.99773E+03  1.26412E+04 -4.06653E+03  1.27802E+04
 -1.77277E+04  1.23191E+04 -9.57517E+03  4.74354E+03 -1.22663E+04  4.89791E+02 -4.42776E+03 -6.48540E+03
 -3.55793E+03 -1.12404E+04  3.35862E+03 -6.11627E+02 -4.77587E+02  1.51751E+03  3.97355E+03  1.35377E+04
 -2.63618E+03  6.90920E+03 -8.27362E+03 -8.00296E+03 -6.41265E+03 -1.14767E+04  1.85464E+03 -1.82024E+03
  5.06385E+03 -1.04185E+02  2.08076E+03  1.32591E+03  5.79002E+03 -6.34839E+02 -3.64980E+03  6.50272E+03
  1.11963E+03  5.86254E+02 -6.62082E+03 -7.07243E+03  3.11696E+03 -7.21315E+03  8.60324E+03 -1.46922E+04
  1.04749E+04 -3.40607E+03  1.20937E+03  4.62312E+03  5.57677E+03  5.21940E+03 -2.07660E+03  7.59350E+03
 -1.11859E+04  7.41416E+03 -1.06014E+04 -3.91441E+03 -7.55805E+03 -1.36234E+04 -5.55824E+03 -8.05214E+03
  8.51648E+03 -5.46014E+03  6.49934E+03  9.61190E+02  2.33711E+03  3.45151E+03 -3.51499E+03  1.06003E+04
 -3.00619E+03  2.76977E+03 -1.50048E+03  6.00430E+03  1.48832E+02 -7.29459E+03 -1.47851E+03  2.64220E+03
 -9.68555E+03 -8.47108E+02 -5.05041E+03  4.39343E+03 -1.01697E+04  3.13590E+02 -8.21305E+03 -7.58468E+03
 -2.58623E+03 -1.40497E+04 -1.13220E+04 -1.60987E+04  1.51676E+04 -1.04294E+04  1.78385E+04 -4.36949E+03
  1.58175E+04  1.10641E+03  9.61417E+03  1.09740E+04  2.22248E+03  8.09556E+03  1.91372E+03  6.89463E+03
 -6.70517E+03  9.43099E+03 -3.69435E+03  3.05427E+03  1.59098E+03  3.40144E+03 -2.54163E+03 -2.27652E+02
  2.98715E+03 -3.26019E+03  8.47737E+02  3.84065E+03  7.21493E+02 -5.07007E+02 -3.49855E+02  1.19429E+03
  6.61771E+03  5.29402E+02  6.93906E+03 -1.34360E+03  8.19968E+03  9.67218E+03  2.05535E+03  1.20674E+04
 -2.49094E+03  1.27127E+04 -1.21761E+04  6.63069E+03 -1.31730E+04 -5.40059E+01 -1.08818E+04 -1.09847E+04
 -7.14444E+03 -1.05749E+04 -3.12319E+03 -5.60849E+03  7.52388E+03 -3.96720E+03  1.24452E+04 -1.87519E+03
  5.35552E+03  5.17730E+02  1.40454E+03  4.73649E+03 -2.13874E+03  2.75100E+03  4.72717E+03 -5.42531E+03
  4.11338E+03 -1.15549E+03  5.77310E+03 -1.01784E+03  4.13218E+03  6.34868E+03 -3.11339E+03  7.10934E+03
  2.29898E+03  2.14929E+02 -1.94217E+03 -6.38985E+02 -1.04420E+04 -6.47131E+03 -5.02228E+03 -1.27549E+04
  7.47266E+03 -1.56265E+04  8.84621E+03 -5.84580E+03  1.31898E+04  3.54970E+03  1.63999E+03  6.35722E+03
 -5.47522E+03  8.22249E+03 -4.74247E+03  2.66516E+03  3.15961E+03  3.78762E+03 -9.34728E+03  1.06848E+03
 -1.76086E+03  1.71084E+03  5.38882E+03  1.57818E+03  2.10946E+02  7.18872E+01 -6.66100E+03  2.02106E+03
 -2.41593E+02 -2.44065E+03 -6.25637E+03 -9.53134E+03  3.03830E+03 -8.65504E+03  4.56829E+03 -3.34852E+03
  7.29132E+02  7.07166E+02 -1.52460E+03  4.54019E+03 -4.14142E+03  6.43716E+03 -1.39271E+03  1.50951E+03
