 $NMID ID='MM_0lb_SNR50_20hz_g45_60.RAW', FMTDAT='(8E13.5)'
 TRAMP=1., VOLUME=1. $END
  3.08732E+05  9.61170E+02  3.30801E+05  2.49768E+05  8.25293E+04  3.39056E+05 -1.33491E+05  2.54166E+05
 -1.88807E+05  8.57237E+04 -1.05897E+05 -3.55859E+04 -2.18069E+03 -5.03007E+04  4.94108E+04  3.34040E+03
  2.90465E+04  5.01790E+04 -1.72595E+04  7.50598E+04 -6.24917E+04  5.94488E+04 -7.76470E+04  3.01108E+04
 -8.35149E+04 -1.38821E+04 -5.34609E+04 -4.75221E+04 -1.37596E+04 -6.59258E+04  2.84220E+04 -4.34910E+04
  4.12510E+04  1.45914E+03  1.72982E+04  4.47592E+04 -2.97967E+04  4.69031E+04 -6.18819E+04  2.76394E+03
 -5.16042E+04 -5.65751E+04 -5.34327E+03 -7.25068E+04  3.32040E+04 -5.04417E+04  4.40405E+04 -1.53075E+04
  4.27728E+04  9.35229E+03  2.99349E+04  2.42448E+04  1.29864E+04  3.03693E+04 -7.99792E+03  2.91187E+04
 -2.20357E+04  1.33282E+04 -1.73556E+04 -9.33272E+02  4.00022E+03 -3.74169E+03  2.48855E+04  5.39507E+03
  4.77732E+03  3.44031E+04 -2.79203E+04  3.37979E+04 -6.07079E+04  3.39404E+03 -5.88554E+04 -4.28871E+04
 -1.05958E+04 -5.66456E+04  3.71565E+04 -4.22271E+04  5.76607E+04 -3.16304E+03  3.40879E+04  3.27482E+04
 -6.29054E+03  3.59978E+04 -2.91529E+04  1.18440E+04 -2.84868E+04 -5.17191E+03 -1.47751E+04 -8.24393E+03
 -3.06832E+03 -8.00842E+03 -6.69109E+03 -1.61273E+04  6.36650E+03 -2.18487E+04  1.66923E+04 -1.00198E+04
  1.47589E+04  1.56745E+03 -1.90845E+03  1.43870E+04 -1.90563E+04 -3.38749E+03 -8.22230E+03 -2.85169E+04
  1.61959E+04 -3.51375E+04  4.63166E+04 -1.72010E+04  3.90430E+04  1.62820E+04  1.51701E+04  3.80208E+04
 -1.24736E+04  3.09580E+04 -2.46264E+04  2.24592E+03 -1.01192E+04 -2.94086E+04  1.83590E+04 -2.88304E+04
  3.45229E+04 -6.33854E+03  2.86223E+04  2.45732E+04  1.21226E+04  4.18485E+04 -8.76235E+03  4.22350E+04
 -2.86684E+04  2.94590E+04 -3.18779E+04  5.87650E+03 -3.95082E+04 -1.72152E+04 -2.01954E+04 -3.30790E+04
  1.05453E+04 -3.24994E+04  3.23138E+04 -6.69368E+03  2.92092E+04  1.21069E+04 -6.99465E+02  1.71272E+04
 -1.17728E+04  1.21544E+04 -1.22272E+04 -5.91165E+03  7.07060E+03 -1.08670E+04  1.65869E+04  5.49383E+03
  1.30660E+04  2.19360E+04 -6.09288E+03  2.69189E+04 -2.25585E+04  8.57928E+03 -1.93306E+04 -7.81303E+03
 -1.62235E+04 -1.85498E+04 -4.05147E+03 -1.86216E+04  1.12956E+03 -1.85319E+04  1.10185E+04 -1.24991E+04
  1.72145E+04 -1.08480E+04  2.53138E+04  2.63165E+03  1.85001E+04  1.33669E+04  2.87965E+03  2.89928E+04
 -1.31425E+04  2.55903E+04 -2.52344E+04  1.07276E+04 -1.92642E+04 -7.57941E+03 -2.56455E+03 -1.23624E+04
  4.35111E+03 -5.86658E-01 -3.70634E+03  9.25314E+03 -1.16123E+04  5.80273E+03 -1.51908E+04 -6.82147E+03
 -7.69348E+03 -1.72968E+04  6.35616E+03 -2.16025E+04  1.19435E+04 -1.78284E+04  1.49891E+04 -4.21978E+02
  9.38514E+03  6.82465E+03 -1.91332E+03  1.20754E+04 -1.21057E+04  8.94805E+03 -1.39545E+04 -4.56301E+03
 -1.20978E+04 -1.29161E+04 -1.74832E+03 -1.68681E+04  7.02339E+03 -1.15733E+04  1.42297E+04 -4.28839E+03
  1.44834E+04 -9.61607E+02  8.73482E+03  3.31261E+03  2.74927E+03 -1.88633E+02  5.66974E+03 -2.91936E+03
  1.49672E+04  8.57545E+02  1.37216E+04  1.36724E+04  1.06735E+04  2.46726E+04 -3.65474E+03  2.72546E+04
 -1.52538E+04  1.87041E+04 -2.30280E+04  7.82312E+03 -2.10124E+04 -1.26963E+02 -1.73724E+04 -1.01509E+04
 -5.15596E+03 -1.66338E+04  1.09070E+04 -1.65865E+04  1.46688E+04 -1.09333E+04  1.37773E+04  5.35708E+02
  5.20547E+03  9.21306E+03 -8.40497E+03  5.24929E+03 -1.63244E+04  1.80332E+03 -1.10819E+04 -3.17209E+03
 -3.46546E+03 -1.45100E+04  4.00019E+03 -7.60720E+03  7.77852E+03 -6.81111E+03 -8.63319E+02  3.21215E+03
 -3.39051E+03  2.49842E+03 -5.87225E+03 -6.88158E+03  2.71300E+03 -8.05199E+03  9.22386E+03 -5.82852E+03
  1.28756E+04 -1.71756E+03  7.42411E+03  3.03718E+03  1.00741E+04  1.27085E+04  3.09915E+03  1.17548E+04
 -3.77496E+03  1.58311E+04 -9.93794E+03  6.72327E+03 -1.19813E+04  1.17371E+03 -4.17695E+03 -3.30172E+03
 -3.65676E+03 -2.81721E+03 -4.41722E+02  4.48190E+03 -3.63699E+02  4.90434E+03  1.15367E+03  6.40109E+03
 -6.27539E+03 -6.19377E+02 -5.26114E+03 -3.69822E+03 -4.17790E+03 -1.08197E+04  2.38098E+03 -7.71756E+03
  6.10499E+03 -8.28248E+03  3.93445E+03 -3.55085E+02  6.18783E+02  1.76829E+03 -1.20595E+03  3.44625E+03
 -4.05407E+03 -5.62427E+03  1.37492E+02 -4.09360E+03 -1.70116E+03 -9.96791E+03  5.60495E+03 -1.67086E+02
  9.26151E+03  2.10454E+03  8.39263E+03  2.70786E+03 -8.03036E+02  6.29324E+03 -7.40845E+03  6.97858E+03
 -8.21884E+03  5.39009E+03 -6.83941E+03 -4.84588E+02  1.70024E+03 -1.81076E+03  2.59039E+03 -1.19337E+03
  9.37118E+02 -3.43440E+02  4.05307E+02  3.52391E+03 -3.79064E+03  6.45168E+03 -6.26352E+03 -1.44193E+03
 -5.11629E+03 -8.18276E+03 -2.78463E+03 -4.56819E+03  3.81778E+03 -2.87116E+03  4.67007E+03 -1.40256E+02
 -4.15206E+01  4.80162E+03 -9.01866E+02  1.24015E+03 -4.17300E+03 -4.40077E+02 -4.12943E+03 -1.51644E+03
 -2.53723E+02 -6.53466E+03  2.54715E+03 -9.16200E+03  5.39960E+03 -7.72235E+03  5.18455E+03  1.09475E+03
  4.06726E+03  8.69170E+03 -2.73599E+03  1.04688E+04 -6.70806E+02  8.98545E+03 -1.38103E+03 -1.06427E+03
 -3.51113E+03 -5.32787E+03  6.58480E+02 -6.67159E+03  5.60404E+03 -9.91162E+03  1.71327E+03 -8.23764E+02
  1.53116E+03 -1.67215E+03 -1.32536E+03  2.47557E+03 -1.77572E+03 -3.02280E+03  4.76986E+03  1.87028E+02
  6.34624E+03 -1.94485E+02  3.28805E+03 -8.89231E+02  3.81642E+03  2.60497E+03  1.10018E+03  4.62952E+03
  1.17851E+03  7.63842E+03 -5.07381E+03  2.15778E+03 -9.32376E+03 -4.95396E+02 -8.69462E+03  5.46595E+02
  3.12237E+02 -6.27761E+03 -3.25132E+03 -2.23577E+03  1.42573E+03 -7.45246E+02  4.72240E+02 -2.50858E+03
 -1.15287E+03 -1.16776E+03  3.91656E+03 -5.57485E+02  2.81896E+03 -4.42926E+03  4.28794E+03 -2.04905E+03
  4.12057E+03  4.54263E+02  3.65408E+03  4.40119E+03 -4.00832E+03  1.34046E+03 -1.11351E+03 -1.04405E+03
 -3.81028E+03 -1.65821E+02 -3.45326E+02 -3.71788E+03 -2.97616E+03 -3.67378E+03  5.61391E+03 -2.09134E+03
  3.26940E+03 -2.67882E+03  4.08532E+03  4.15535E+02  7.27745E+03  6.59675E+03 -6.63200E+01  4.73079E+03
 -1.97521E+02 -8.31590E+02 -1.11807E+03 -4.63858E+02 -4.05468E+03 -1.08629E+03 -1.73601E+03 -2.38737E+03
  1.10803E+03 -5.18228E+03 -2.73165E+03  2.74887E+03 -1.93405E+03  1.65418E+03 -6.26801E+02 -2.72475E+03
  1.80474E+03 -4.71370E+03  1.39210E+03 -3.78597E+03  6.06778E+03 -2.19207E+03 -9.06531E+02 -4.62363E+03
 -1.26576E+03  5.41645E+02  5.83967E+03  3.46406E+02  1.46975E+03  4.83089E+03 -1.30959E+03 -8.39490E+02
 -2.61732E+03  1.06340E+03 -5.20777E+03 -2.90504E+02  9.66084E+02 -1.65313E+03  1.81633E+03 -2.61168E+03
 -3.13244E+03 -1.95934E+03  7.75486E+02 -1.21028E+03  3.02097E+03  5.18793E+03  2.36231E+02  2.75696E+03
  2.25241E+03  7.70458E+02 -8.09673E+02  1.82398E+03 -3.03620E+03  4.74138E+03 -6.02865E+02  9.11288E+02
  1.02391E+03  1.91454E+03 -1.18186E+03  4.40525E+03 -2.19130E+03  1.88548E+03 -4.04145E+03 -2.55820E+03
 -1.54004E+03 -1.27653E+03  1.60923E+03 -4.77355E+03  2.25300E+03 -2.95165E+03  2.36896E+03 -1.10283E+03
  4.26408E+03  2.96515E+03 -3.15300E+02  3.57228E+03 -7.68790E+02  9.81863E+02  2.37706E+03 -4.04484E+02
 -3.20550E+03 -2.61877E+03  3.68513E+03 -5.42281E+03  3.53844E+03 -4.90856E+03  3.26523E+03  1.38885E+00
  1.01511E+03  2.26771E+03  1.20055E+03 -3.43732E+03 -3.79878E+03 -2.84339E+03  4.54936E+02 -3.12772E+03
 -4.53741E+02  4.09080E+03  2.12637E+03  9.70204E+02  1.30070E+03  4.88898E+03 -2.46761E+01  1.93156E+01
  3.99392E+03 -1.80844E+03 -2.31446E+03  1.60182E+03 -3.61968E+03  5.39462E+02  1.88345E+03 -1.26452E+03
 -1.41296E+03 -2.21496E+03  4.55374E+03 -4.61238E+03 -2.21213E+03  6.59971E+01  3.19407E+03 -1.61493E+03
 -2.39753E+03  1.86980E+03  1.99424E+03  2.37440E+03  5.34876E+03  2.52143E+03 -6.37158E+02 -2.03831E+03
 -2.09489E+03  3.22215E+02  1.41145E+03  6.27960E+01  3.17733E+02  1.28780E+03  3.08600E+03 -9.18656E+02
  5.42851E+00 -6.15512E+01  1.08480E+03 -2.47856E+03  1.60471E+03 -1.32606E+03  3.45220E+03 -1.24566E+03
  4.21853E+03  1.93446E+02  3.01575E+03 -2.31868E+03  2.20839E+03  1.68894E+03  1.63570E+02  5.72762E+02
 -2.41255E+03  3.31390E+03  1.49192E+03 -1.70287E+03 -9.52657E+02 -2.77480E+02 -2.44077E+03 -8.89479E+02
  3.00385E+03  2.31004E+03  6.58967E+02  1.09056E+02 -1.86208E+03 -3.86891E+02 -2.10319E+03 -1.43546E+03
 -3.96660E+02  1.37654E+03  1.98927E+03 -3.88327E+03 -4.67734E+02  1.12975E+03 -4.91997E+02  1.72716E+03
 -2.44570E+03 -5.81260E+02 -1.18384E+03 -9.76446E+02 -3.45881E+03  2.34296E+02 -2.53133E+03 -1.30236E+03
  1.31822E+02 -4.37170E+03  2.28593E+03 -1.96425E+03  4.66454E+03  8.80837E+02  4.19584E+03 -5.56373E+03
 -1.39615E+03 -1.42674E+03  2.00854E+02  6.03785E+02 -6.59180E+02 -1.60405E+02  1.39549E+03  2.17696E+03
 -3.76463E+02  1.98673E+03 -3.51373E+03 -2.73871E+03 -2.89512E+03 -7.07990E+02 -9.11493E+02  1.51448E+03
  1.71506E+03 -2.84079E+03 -5.58403E+03  1.06104E+03 -2.06690E+03  3.78961E+02  2.13261E+01  6.83424E+02
  2.08122E+03  1.31270E+03  1.30396E+03 -5.74706E+03  7.94067E+02  3.00519E+03 -2.47158E+02  5.02560E+02
  2.38278E+03 -1.82928E+03 -3.54403E+03  6.83457E+02  4.93345E+02 -1.23155E+03  9.99164E+02  5.33909E+03
 -1.36643E+03 -1.25717E+03 -5.08741E+02  1.79238E+03  2.27789E+03  2.93284E+03  3.57641E+03  1.32230E+03
  1.13443E+03  1.55312E+02 -7.89792E+02  2.68205E+03  1.63674E+03  2.64053E+03 -2.39532E+03  2.05661E+03
 -5.03492E+03 -3.50493E+03 -1.34016E+03  2.29263E+03 -5.04067E+02 -1.08528E+03 -6.18564E+02  1.22712E+03
 -4.90783E+03  1.20923E+03  7.50802E+02 -2.41037E+03 -1.49825E+03  3.17665E+03 -1.47435E+01 -2.84415E+03
  1.35936E+03 -1.71115E+03 -6.62015E+03  2.66036E+02 -5.47176E+02  9.41215E+01  3.75891E+03  3.49503E+03
 -2.33651E+03  2.39189E+03  9.27916E+02 -6.24175E+02 -2.92989E+01  8.81740E+02  4.34764E+03  1.37619E+03
 -1.84591E+03 -3.91388E+03 -1.52223E+03 -1.54342E+02  2.48702E+03 -2.28215E+03  3.42610E+03 -1.56915E+03
 -3.12352E+02 -1.34565E+03 -1.60986E+03  1.28758E+03  1.94040E+03 -4.49601E+03 -4.41683E+02  1.66091E+03
  2.41239E+03  1.09355E+03 -1.82470E+03  3.24198E+02  2.97572E+03 -1.73434E+03  7.87929E+02 -2.00802E+03
