 $NMID ID='MM_0lb_SNR50_12hz_g40_74.RAW', FMTDAT='(8E13.5)'
 TRAMP=1., VOLUME=1. $END
  3.13568E+05  4.70905E+03  3.37785E+05  2.51451E+05  8.48081E+04  3.41046E+05 -1.33755E+05  2.45745E+05
 -1.94509E+05  8.23850E+04 -1.09808E+05 -3.77167E+04 -3.70877E+03 -5.01732E+04  5.55851E+04 -2.83239E+02
  3.50882E+04  5.07541E+04 -1.57140E+04  8.01267E+04 -6.35482E+04  6.22630E+04 -8.75493E+04  3.21184E+04
 -7.65034E+04 -7.88296E+03 -5.95145E+04 -4.73758E+04 -1.29396E+04 -7.31273E+04  2.37208E+04 -4.93841E+04
  4.39554E+04  3.71831E+03  1.68090E+04  4.92546E+04 -3.50070E+04  5.01334E+04 -7.10668E+04  2.80914E+03
 -4.97719E+04 -5.53165E+04 -7.67432E+03 -8.07879E+04  3.04373E+04 -5.52881E+04  5.20821E+04 -1.71475E+04
  4.51048E+04  8.52536E+03  3.16905E+04  2.51728E+04  1.16572E+04  2.61138E+04 -7.90142E+03  3.08825E+04
 -2.08521E+04  1.19985E+04 -2.59115E+04  9.53612E+01  8.09988E+03 -7.50497E+03  2.34284E+04  1.17739E+04
  7.99770E+03  3.64588E+04 -2.77787E+04  3.30392E+04 -6.45661E+04  2.88711E+03 -5.60768E+04 -4.23782E+04
 -1.28716E+04 -6.22667E+04  4.44520E+04 -4.57991E+04  5.74437E+04 -3.36199E+02  3.83384E+04  3.49572E+04
 -3.13407E+03  3.92807E+04 -3.42167E+04  1.02395E+04 -3.15330E+04 -3.74176E+03 -1.52269E+04 -1.02984E+04
 -8.83454E+03 -1.68753E+04 -5.25297E+03 -1.88132E+04  7.96541E+03 -2.02079E+04  1.73179E+04 -1.08096E+04
  1.03418E+04  9.54553E+03 -8.10120E+03  1.13820E+04 -2.27828E+04 -2.16632E+03 -8.57848E+03 -3.58868E+04
  2.41538E+04 -4.16692E+04  4.37251E+04 -1.86533E+04  3.85061E+04  2.17357E+04  1.08487E+04  4.51884E+04
 -2.62749E+04  3.57127E+04 -2.58437E+04  8.10334E+02 -1.14859E+04 -2.79012E+04  1.81388E+04 -3.58815E+04
  3.85572E+04 -9.79628E+03  3.29960E+04  2.87488E+04  2.36026E+04  4.55350E+04 -9.76730E+03  4.67021E+04
 -3.35370E+04  3.55758E+04 -4.14643E+04  1.06650E+04 -4.11175E+04 -1.67830E+04 -2.52981E+04 -4.36256E+04
  1.11803E+04 -4.06720E+04  3.20981E+04 -1.23130E+04  2.83625E+04  9.10563E+03  5.67134E+03  2.17940E+04
 -1.08934E+04  9.14056E+03 -1.56119E+04 -5.33747E+03  8.05036E+03 -1.12437E+04  1.57713E+04  7.12007E+03
  1.28938E+04  2.24737E+04 -1.91558E+03  2.98835E+04 -2.64586E+04  1.15887E+04 -3.15511E+04 -9.90521E+02
 -1.42447E+04 -2.18042E+04 -9.95760E+03 -2.45217E+04  4.56941E+03 -2.16812E+04  1.40490E+04 -1.99148E+04
  2.76769E+04 -1.49354E+04  3.41234E+04  4.24391E+03  2.08090E+04  2.06890E+04  1.54481E+03  3.67570E+04
 -1.80169E+04  3.12626E+04 -3.21081E+04  1.35661E+04 -2.36883E+04 -9.26143E+03 -6.56247E+03 -1.20585E+04
  5.68960E+02  5.34983E+03 -9.54161E+03  4.59690E+03 -1.61728E+04  5.70186E+03 -2.18063E+04 -6.76092E+03
 -1.11442E+04 -1.34939E+04  3.05058E+03 -2.22804E+04  2.14641E+04 -1.64581E+04  1.97943E+04 -2.53140E+03
  1.29007E+04  1.58361E+04 -3.89016E+03  2.03161E+04 -1.79722E+04  1.10387E+04 -2.17996E+04 -1.31985E+03
 -1.26650E+04 -1.50591E+04 -3.79380E+03 -2.38384E+04  1.07507E+04 -1.73021E+04  1.95284E+04 -9.66344E+03
  1.90297E+04  6.48856E+03  1.27204E+04  3.56627E+03  1.24674E+04 -4.11410E+02  7.41538E+03 -5.59502E+03
  1.62426E+04  1.63891E+03  1.85384E+04  2.08447E+04  1.38104E+04  3.05998E+04  3.42408E+03  3.68960E+04
 -2.35630E+04  2.29203E+04 -3.36014E+04  1.54704E+04 -3.92265E+04 -5.43188E+03 -2.95347E+04 -2.01518E+04
 -1.12432E+04 -3.11974E+04  8.89734E+03 -2.22583E+04  2.03322E+04 -1.49762E+04  2.63524E+04  6.03243E+03
  9.80676E+03  1.32157E+04 -4.99115E+03  1.12582E+04 -2.39569E+04  3.90544E+03 -1.85894E+04 -9.35318E+03
 -5.07968E+02 -1.38213E+04  8.22966E+03 -1.48809E+04  6.30159E+03  5.04295E+02  3.31947E+03  4.73227E+03
 -6.89705E+03  6.42855E+01 -4.79700E+03 -4.17245E+03 -2.30967E+03 -9.47515E+03  8.82335E+03 -1.55457E+04
  1.99307E+04 -6.70513E+03  2.04323E+04  5.92849E+03  1.83503E+04  1.74542E+04  9.86312E+03  2.05340E+04
 -1.75565E+03  1.95976E+04 -1.40275E+04  1.60655E+04 -1.77718E+04  6.43697E+03 -1.19768E+04 -8.49571E+03
 -2.38817E+02 -5.14520E+03  6.73216E+03  1.87732E+03 -5.80898E+03 -5.54716E+02 -4.99275E+03  3.35760E+03
 -1.07259E+04  3.85545E+03 -1.48772E+04 -1.13183E+04 -1.91480E+03 -1.62383E+04  8.16267E+03 -1.29810E+04
  8.23685E+03 -8.40126E+03  4.73962E+03  3.92465E+03  1.00806E+03  2.72535E+03  3.87794E+01  4.12214E+03
 -4.97727E+03 -1.62644E+03 -1.24000E+03 -1.29858E+04  4.08232E+03 -1.20583E+04  1.75628E+04 -8.34928E+03
  1.87053E+04  4.07501E+03  8.37038E+03  7.78632E+03  4.78511E+03  1.20170E+04 -1.07037E+04  1.44889E+04
 -1.31704E+04  4.93327E+03 -7.52525E+03 -4.44111E+03 -1.07644E+03 -3.48367E+03  4.87995E+03 -3.62122E+03
  4.95523E+03  3.92762E+03 -1.54758E+02  7.99179E+03 -7.23119E+03  6.56864E+03 -1.34697E+04  1.28867E+03
 -4.64144E+03 -1.23646E+04  4.50296E+03 -1.27206E+04  1.47011E+02 -8.13356E+03  5.26807E+03  4.60364E+03
  5.76825E+03  6.28425E+03 -8.59089E+03  1.24897E+04 -1.85379E+04  7.52147E+03 -1.12521E+04  1.14229E+03
 -4.43402E+03 -9.06519E+03  5.49239E+03 -1.17290E+04  1.10204E+04 -7.74592E+03  1.06069E+04 -9.83352E+02
  9.11883E+03  7.56629E+03 -1.60709E+02  8.38596E+03 -1.09216E+04  7.07201E+03 -4.11018E+03  7.93735E+02
 -7.70087E+03 -1.26153E+04  6.15002E+03 -1.18111E+04  3.78176E+03 -6.26110E+03  7.89077E+03 -1.11559E+04
  2.74312E+03  5.51072E+03  6.68831E+02  4.74372E+03  3.32602E+03 -5.73510E+03  4.43033E+03 -1.04993E+04
  7.46129E+03 -5.71427E+03  1.37002E+04  4.10843E+02  1.31401E+04  7.50214E+03  6.20782E+03  1.36595E+04
 -9.66528E+02  1.66859E+04 -7.29924E+03  1.30591E+04 -1.75707E+04 -1.41969E+03 -1.63988E+04 -6.99040E+03
 -3.34960E+03 -1.40073E+04 -3.08931E+03 -9.79572E+03  4.00290E+03 -4.42746E+03 -2.77181E+03 -6.04160E+03
  3.83536E+03  8.60077E+02 -2.31306E+03 -2.20074E+03  1.60678E+03 -9.82298E+02  5.91124E+03 -3.67354E+03
  1.24001E+04 -9.90113E+02  7.63680E+03  4.59205E+03  6.70016E+02  3.10279E+03 -1.23894E+04  5.74505E+03
 -4.01347E+03 -4.10259E+03 -2.17705E+03 -5.89511E+03  5.20610E+03 -8.57013E+03  2.98753E+03 -9.75920E+03
  1.33548E+04 -3.73995E+03  1.03399E+04 -9.69655E+02  1.30236E+04  1.17402E+04 -2.18862E+03  1.55484E+04
 -1.02101E+03  1.12922E+04 -9.68432E+03  6.18498E+03 -2.78653E+03 -3.03489E+03 -3.93420E+03  4.73746E+02
 -2.41567E+03  1.31909E+03 -1.08710E+03  5.20477E+03 -8.40488E+03  3.06942E+01 -6.16052E+03 -2.20262E+03
 -4.33454E+03 -7.63153E+03  6.18309E+03 -7.94029E+03  8.33949E+03 -3.95448E+03  1.09447E+04 -8.49116E+02
  1.22122E+04  4.69686E+03  1.10700E+04  1.07349E+04 -6.11377E+02  1.57455E+04 -7.25139E+03  6.66007E+03
 -9.89840E+03  1.05824E+03 -5.47438E+03 -8.65641E+03 -1.85009E+03 -1.08614E+04  5.05252E+03 -5.37300E+03
  6.38288E+03  1.64354E+03  5.54668E+03  6.16530E+03  4.55336E+03  2.58114E+03  5.42321E+03  1.87339E+03
  2.28086E+03 -6.22756E+02  5.45123E+03  1.52874E+03  7.80490E+03  8.82167E+03  1.38878E+02  9.15509E+03
 -6.70741E+03  1.04996E+04 -6.86827E+03  1.00804E+04 -9.62542E+03  3.18916E+03 -6.51855E+03  3.00631E+03
 -5.80857E+03 -6.87443E+03  1.74790E+03 -1.04761E+04  7.86771E+03 -5.93986E+03  9.19647E+03 -6.66820E+02
  1.26847E+04  1.15961E+04  2.37448E+03  3.10342E+03 -1.00394E+03  3.35472E+03 -3.51137E+03  3.17738E+03
 -1.50516E+03 -1.01621E+03  8.39737E+03 -5.51537E+03  5.69893E+03 -2.69052E+03  4.60773E+02 -1.93006E+02
  2.25290E+03  3.66389E+03  9.75333E+03 -3.89174E+03 -1.24819E+03 -3.34341E+03 -1.29740E+03  2.49642E+03
  2.16466E+03 -1.86962E+03  4.34083E+03  1.78146E+03 -1.04171E+03  3.49863E+03 -3.72912E+02  1.27842E+04
 -1.08067E+04  3.43401E+02 -8.43629E+03  7.21260E+03 -7.54583E+03  1.24797E+03 -9.58673E+02 -5.23715E+03
  5.66644E+03 -6.43618E+03  3.54446E+03 -5.43494E+03  5.35499E+03  7.21552E+02  3.96680E+03  2.77678E+03
 -7.10313E+03  6.26123E+01  4.84426E+02 -3.56413E+03 -4.36952E+03 -2.74620E+03  4.05472E+03 -8.89641E+03
  1.29034E+02 -2.05761E+03  6.01751E+03  2.49253E+03 -1.14551E+02  9.28338E+03 -8.01507E+02  2.82143E+03
  1.16725E+03  4.51985E+03  1.52357E+03  1.29350E+03  3.79781E+03  2.75094E+03  7.69698E+03 -5.26878E+03
  3.81903E+03  3.43681E+03  8.05158E+03 -1.38621E+02  5.76786E+03  7.95129E+03 -1.76543E+03  2.34280E+03
 -4.37084E+03  3.29083E+03 -3.55174E+03 -4.57059E+03 -5.76257E+03 -5.71141E+03 -1.88304E+02 -5.99828E+03
  1.70952E+03 -1.46302E+03  7.72789E+03  2.08832E+03 -1.85206E+01  2.75611E+03 -7.84855E+02  4.27480E+03
 -1.38059E+03  5.05295E+03  4.96878E+03  4.78048E+02 -1.85078E+03  2.66997E+03 -2.08937E+03  6.45842E+03
 -3.26905E+03  4.06227E+03 -1.83453E+03  8.68405E+02 -2.74649E+03  5.38465E+02 -7.88346E+03 -5.96913E+03
 -1.98417E+03 -8.03602E+03  2.27069E+03 -6.60924E+03  4.10087E+03 -1.07690E+04  5.42115E+03 -2.05380E+03
  4.59355E+03 -2.41226E+03  6.80422E+03  4.44629E+03 -9.05203E+02  2.39293E+03 -5.85947E+03 -3.06616E+03
 -3.66661E+03  4.65935E+03  2.84188E+03 -3.16790E+02 -4.47237E+02 -1.26533E+03 -2.89391E+03 -3.52525E+03
 -4.69919E+03  4.95187E+03 -4.65239E+03  3.45011E+01  1.90249E+03 -1.63914E+03  5.72068E+02  1.36134E+03
 -1.12244E+03 -4.77203E+03  2.95160E+03  2.08093E+02  4.50582E+03  3.64402E+01  2.43472E+03  6.68548E+03
 -2.44374E+03  4.91010E+03 -7.67577E+03 -3.70044E+03 -3.80353E+03 -2.77192E+03 -5.22296E+03 -3.45608E+03
 -4.67704E+03 -4.99661E+03 -1.37362E+03 -9.13289E+03  2.26871E+03 -5.37371E+03 -2.06872E+03 -5.58654E+03
  5.88079E+03  6.30032E+03  1.71078E+03 -4.11090E+03 -2.78777E+03 -2.36705E+02 -4.18917E+03  1.04408E+03
  1.35990E+03  1.68953E+03  1.79179E+03  1.26746E+03  1.10554E+03  2.42465E+03  9.18815E+02  1.65286E+03
  1.10475E+03  4.04639E+03 -4.11161E+03  1.89948E+03  2.20416E+03  4.04375E+01  3.91847E+03 -2.35767E+03
  1.94200E+03 -8.82887E+03  3.18892E+03  7.99329E+02  8.95265E+03 -7.15491E+02  5.43532E+03  1.00538E+03
  3.12701E+03  1.06982E+04  1.07437E+03  3.13930E+03  3.46161E+03  5.94150E+03 -1.98497E+03  1.75576E+03
  2.40717E+03  2.54358E+03 -5.47161E+03  2.96913E+03 -3.64409E+02  1.02143E+03 -4.24277E+03  3.15221E+02
 -6.42069E+03  1.10527E+03 -2.68852E+03 -1.98772E+03  3.18731E+03 -4.88921E+03 -1.76492E+03  3.46915E+03
  3.82713E+03  8.94207E+03  5.25064E+03  3.53359E+03  6.31946E+03 -2.38374E+02 -3.11803E+03  4.63527E+03
