 $NMID ID='MM_0lb_SNR50_19hz_g40_37.RAW', FMTDAT='(8E13.5)'
 TRAMP=1., VOLUME=1. $END
  3.05726E+05  4.78271E+03  3.35045E+05  2.46493E+05  8.72922E+04  3.37040E+05 -1.33432E+05  2.53467E+05
 -1.91665E+05  7.93055E+04 -1.12522E+05 -3.33818E+04  4.66455E+03 -5.22848E+04  5.68184E+04  6.78121E+02
  3.35777E+04  5.31455E+04 -1.21769E+04  7.14924E+04 -6.42714E+04  6.45047E+04 -8.16169E+04  3.16808E+04
 -7.56178E+04 -1.49553E+04 -5.67598E+04 -5.17269E+04 -1.37632E+04 -6.89638E+04  2.66516E+04 -4.29405E+04
  3.79113E+04  1.80400E+03  1.50501E+04  4.29777E+04 -3.33200E+04  4.27185E+04 -6.55729E+04  4.10718E+02
 -5.13029E+04 -5.26125E+04 -5.59879E+03 -7.47807E+04  3.19536E+04 -5.41073E+04  4.66519E+04 -1.62983E+04
  3.74862E+04  1.15384E+04  3.32351E+04  2.59321E+04  1.49767E+04  2.07662E+04  1.75806E+03  2.73914E+04
 -2.21270E+04  1.05593E+04 -1.74007E+04 -6.11840E+03  1.97617E+03 -8.57954E+03  1.90703E+04  1.20545E+04
  6.58158E+03  3.10801E+04 -3.20415E+04  3.12667E+04 -6.00513E+04  2.27827E+03 -5.08305E+04 -4.10538E+04
 -1.13428E+04 -6.19404E+04  3.54346E+04 -4.26280E+04  5.55838E+04 -4.70729E+03  3.42903E+04  3.01004E+04
 -9.17774E+03  3.38623E+04 -3.38190E+04  1.12665E+04 -2.76898E+04 -7.18881E+03 -1.95424E+04 -6.39166E+03
 -9.39427E+03 -1.05350E+04 -8.15550E+01 -1.47591E+04  4.53121E+03 -2.57308E+04  1.48738E+04 -1.36946E+04
  1.10851E+04  6.68626E+03 -2.59671E+03  1.35917E+04 -1.66501E+04 -3.66366E+03 -1.00500E+04 -3.08886E+04
  1.96209E+04 -3.94427E+04  4.21636E+04 -2.09299E+04  4.68288E+04  1.92086E+04  1.66936E+04  3.71497E+04
 -1.60630E+04  2.70727E+04 -2.41515E+04  2.29650E+03 -8.42265E+03 -2.13679E+04  1.85407E+04 -3.40211E+04
  4.10280E+04 -9.66921E+03  2.72050E+04  2.70332E+04  1.42477E+04  3.82310E+04 -1.01433E+04  4.33108E+04
 -2.47821E+04  3.03950E+04 -3.27638E+04  1.12180E+04 -3.54546E+04 -1.60579E+04 -2.32839E+04 -3.20910E+04
  7.12406E+03 -3.37618E+04  2.92398E+04 -1.38316E+04  2.72902E+04  9.62220E+03 -1.13476E+02  1.72410E+04
 -1.48581E+04  3.90164E+03 -1.11148E+04 -1.11550E+04  6.99484E+03 -1.24201E+04  1.71309E+04  3.19173E+03
  1.26413E+04  2.15115E+04 -6.33852E+03  2.53966E+04 -2.49429E+04  6.88685E+03 -2.72703E+04 -9.97073E+03
 -1.47393E+04 -1.61474E+04 -6.26084E+03 -1.31853E+04  5.55256E+03 -1.06649E+04  1.10951E+04 -1.61525E+04
  2.35297E+04 -9.85426E+03  2.83728E+04 -6.01147E+02  1.61762E+04  1.45764E+04  4.88541E+03  3.43612E+04
 -1.79491E+04  2.63798E+04 -2.32797E+04  9.49834E+03 -2.05295E+04 -1.31434E+04  6.21413E+02 -1.03181E+04
  3.53139E+03 -6.20331E+02 -2.78852E+03  3.13025E+03 -1.71845E+04  7.48355E+03 -1.19267E+04 -4.39945E+03
 -8.45450E+03 -1.75101E+04  3.83646E+03 -1.42566E+04  1.02725E+04 -1.33673E+04  1.28824E+04 -1.88762E+03
  7.41324E+03  1.02533E+04  8.01962E+02  1.53334E+04 -9.51180E+03  6.75364E+03 -1.46835E+04 -4.02540E+03
 -1.13188E+04 -1.57213E+04 -3.04020E+03 -2.11784E+04  8.70861E+03 -1.69152E+04  1.23892E+04 -8.06925E+03
  1.18646E+04 -7.73774E+02  7.49595E+03  3.89108E+03  5.38516E+03 -7.49459E+02  2.23884E+03 -2.78830E+03
  1.13137E+04  2.15655E+03  1.26222E+04  9.62913E+03  8.00203E+03  2.17158E+04 -5.29425E+03  2.40373E+04
 -8.78663E+03  2.10991E+04 -2.27006E+04  8.77860E+03 -1.96930E+04 -2.59422E+03 -2.29030E+04 -1.38002E+04
 -7.99754E+03 -1.58634E+04  2.59594E+03 -1.99900E+04  1.38774E+04 -9.98492E+03  1.23835E+04  4.02917E+03
  1.20940E+03  1.00828E+04 -7.78526E+03  1.00551E+04 -1.24017E+04  5.13928E+03 -9.35329E+03 -8.49436E+03
 -4.66993E+02 -1.24161E+04  4.87447E+03 -1.35147E+04  6.50248E+03 -4.92010E+03 -1.22793E+02  6.52527E+03
 -2.17580E+03  2.70919E+02 -8.03663E+02 -7.86829E+03 -3.89013E+02 -1.22923E+04  9.49975E+03 -1.12412E+04
  1.20540E+04 -6.77951E+03  1.26926E+04  4.99342E+03  8.97901E+03  1.09958E+04  1.54642E+03  1.29474E+04
 -9.45643E+02  1.94239E+04 -7.70655E+03  9.41802E+03 -1.14662E+04  5.97441E+03 -6.41644E+03  1.05943E+03
 -3.89708E+03 -3.15957E+03 -1.96377E+03  4.74118E+03 -3.97202E+02  2.69448E+03 -7.00149E+03  3.01139E+03
 -1.19143E+04 -8.63928E+02 -2.26888E+03 -9.31178E+03 -3.96340E+03 -6.48873E+03  2.93400E+03 -1.19717E+04
  8.15249E+03 -2.35086E+03  4.11037E+03 -1.50727E+03 -1.26187E+02  3.84417E+03  3.44410E+02  1.54710E+03
 -2.25948E+03 -4.95590E+03  8.26359E+01 -8.46926E+03  5.29445E+03 -9.39588E+03  8.77307E+03 -3.34009E+03
  1.29410E+04  2.92093E+03  7.56681E+03  1.48431E+03  6.83120E+03  9.25771E+03 -1.00608E+04  3.71717E+03
 -1.99145E+03  1.23489E+03 -4.21096E+03  1.97809E+03  6.58263E+02 -8.70317E+02  8.20889E+03  1.40308E+03
  1.26052E+03  2.98577E+03  3.96756E+03  1.45695E+03 -4.41272E+03  3.04144E+03 -6.60336E+03  5.22008E+03
 -3.92549E+03 -4.87059E+03 -1.25199E+03 -1.00503E+04  2.62100E+03 -2.95787E+03  7.12703E+03  1.72480E+03
 -7.95733E+02  5.59259E+03 -4.09910E+03  2.46951E+02 -2.85535E+03  1.17715E+03 -4.19467E+03  1.62893E+03
 -3.78848E+03 -4.72534E+03 -4.60757E+02 -3.85190E+03  6.34375E+03 -4.60772E+03  9.12306E+03 -9.43487E+02
  7.53059E+03  1.19785E+02  9.70683E+02  6.69813E+03 -6.31388E+03  4.89280E+03 -5.11359E+03 -1.58603E+03
 -4.81805E+03 -6.30369E+03 -4.22432E+03 -4.35557E+03  4.51448E+03 -4.25332E+03  3.12986E+03 -7.19863E+03
 -4.32135E+02 -2.76819E+03  1.40826E+03 -1.06586E+03  1.58909E+03  5.50726E+03 -6.24148E+02 -1.69503E+03
  2.45525E+03 -1.40683E+02  3.27530E+03  2.86373E+03  7.40252E+03  2.42289E+03  7.60382E+03  7.61624E+03
 -2.17321E+03  5.72949E+03 -8.31048E+03  6.41590E+03 -1.04194E+04  1.03744E+03 -6.05952E+03 -1.11356E+03
 -9.40462E+02 -5.15316E+03  3.76674E+02 -9.63800E+03  2.23955E+03  1.47116E+03  2.73231E+03  1.59140E+02
  3.97318E+03 -3.55737E+03  2.70286E+03 -5.30864E+03  4.16798E+02 -3.80847E+03  1.89613E+02 -1.19451E+03
  4.53443E+03  2.32745E+03  7.39622E+01  5.69442E+03 -2.37188E+03  7.03010E+02 -3.94749E+03 -9.15777E+02
 -6.04497E+03 -2.43459E+03 -8.45987E+02 -3.08140E+02  6.55700E+02 -7.95609E+03  2.27151E+03 -4.39829E+03
  4.45513E+03 -5.68258E+03  5.49257E+03 -2.81824E+03  5.64100E+03  2.91976E+03  9.27787E+02  5.21771E+03
 -9.10124E+02  1.72823E+03 -3.15616E+03  9.02957E+02 -2.08327E+03 -3.82163E+03 -4.23353E+03 -1.37024E+03
 -1.50718E+03  3.98340E+03 -2.80859E+03 -6.35883E+02 -1.35041E+03  4.15073E+03 -8.78012E+02  1.35860E+03
 -8.98646E+00 -2.34666E+03 -8.30295E+02 -3.41312E+03 -1.24965E+03 -5.72270E+03  4.53188E+03  1.44915E+03
  2.37637E+03 -9.05371E+02  1.45175E+03  3.41011E+03  5.51018E+03  3.30471E+03 -1.42842E+03  3.57501E+03
 -4.69791E+03 -1.28049E+03 -3.76298E+03 -9.54991E+02 -1.54355E+03 -3.92032E+03 -2.33671E+02 -8.71214E+02
  3.93558E+03 -6.31853E+02  2.64807E+03 -1.44039E+03 -1.30426E+03 -9.57283E+02 -5.10303E+03  2.01293E+03
  5.45505E+03  2.29342E+03 -5.93636E+01 -5.58105E+02  1.51180E+03 -3.57842E+03 -6.03025E+02  2.82047E+03
 -7.69404E+02  3.59162E+03  2.21860E+03  3.01600E+03 -4.08212E+01 -9.21669E+02 -2.77206E+03 -3.50591E+03
 -5.42437E+02 -3.68872E+03 -1.81160E+03 -4.39948E+03  1.45912E+03 -5.88315E+03  2.79774E+03 -1.32091E+03
  4.33649E+02  2.44790E+03  3.84583E+03  3.09949E+02  1.19613E+03 -6.56169E+02 -1.00890E+03  5.25542E+03
  4.10443E+02 -5.33378E+03 -2.77682E+02  8.25411E+02 -3.60977E+03  2.85662E+03  1.62454E+03  6.46371E+02
  1.67074E+02 -1.67400E+03  7.54996E+02 -6.52766E+02 -1.15404E+03  5.32453E+02  2.57932E+03  2.87274E+02
  1.74335E+03 -2.59968E+03 -3.05813E+03  2.82647E+03 -2.00475E+03  4.02537E+03 -1.15457E+03  8.20375E+02
 -3.20691E+03  3.88016E+03 -4.10801E+03 -5.76427E+02 -4.38042E+03 -5.57193E+02 -2.13193E+03  5.56164E+02
 -1.06879E+03 -6.62258E+02 -2.01184E+03 -4.52190E+01 -1.15583E+02  1.40187E+03 -3.82721E+02  6.26339E+03
 -2.15337E+02  2.34263E+03 -1.84723E+03 -1.65529E+03  2.80692E+03 -1.80775E+03 -3.15620E+02 -3.55023E+03
 -7.31573E+02 -2.11781E+03 -9.70544E+01 -1.81935E+03  4.43725E+03 -1.46985E+03 -7.23184E+02 -1.32167E+02
  9.38542E+02 -1.96412E+02 -1.30569E+03 -7.67537E+02  3.61895E+03  4.90331E+02  3.30093E+03 -2.12069E+03
  6.34052E+02 -8.95437E+02 -1.37143E+02 -1.82651E+02 -4.96804E+01  4.61794E+03  3.00261E+02  3.21261E+03
 -1.90107E+03  1.40400E+03 -1.02783E+03 -3.21167E+03 -1.55840E+02 -1.22302E+03  8.99613E+02 -5.69844E+01
  3.85013E+03  2.40994E+03  2.41299E+03 -6.71320E+02 -1.15255E+03 -2.18083E+02  5.58627E+03 -1.22696E+03
 -3.05691E+03  4.07432E+02  4.17799E+02  2.05751E+03 -1.68989E+03  1.81555E+03  3.02182E+03  1.05151E+03
 -7.87871E+00  4.30950E+03  1.06782E+03 -3.04406E+03 -3.67100E+03 -7.94798E+02 -4.31767E+03 -2.05908E+03
  3.43399E+03 -2.92107E+03 -1.22508E+03 -2.45732E+03  2.46284E+03 -1.29216E+02  4.72106E+03  1.72305E+03
  1.35733E+03  6.79693E+02  2.93844E+02  4.74331E+03 -2.49374E+03  2.95844E+03 -9.12404E+02  2.26864E+02
  1.13122E+03  1.28393E+03 -1.38887E+00  1.67758E+03 -1.79418E+03 -6.06970E+03 -1.30196E+03 -9.30625E+02
 -6.48186E+03  2.30493E+03 -2.09278E+03  1.66373E+03  2.21151E+03 -1.25046E+02 -2.36298E+03 -7.51085E+02
  2.57832E+03  9.52094E+02  4.09721E+03  1.22699E+03 -3.15921E+02  4.78360E+02  6.37584E+02 -2.24822E+03
 -1.29649E+03  9.41807E+02 -1.54458E+03  2.41037E+03 -3.08716E+03 -2.03943E+03 -5.82041E+02  2.63078E+03
 -8.19656E+02 -4.43865E+03 -1.33176E+03 -6.37698E+02 -6.56438E+02 -1.08426E+03  1.35036E+03 -7.82090E+02
  1.34602E+03 -2.25914E+03 -1.93248E+03  2.04989E+03  1.10179E+03 -1.51933E+02 -1.86639E+03  3.10323E+02
  2.97315E+03  2.04049E+03  2.51290E+03  1.60774E+03  2.47788E+03  2.41392E+03  2.54994E+03 -2.16045E+03
 -8.22959E+02  1.05229E+03  7.53440E+02  4.10113E+03 -8.35892E+02  2.20673E+03 -2.14319E+03  8.28485E+02
  1.30707E+03 -1.28016E+03  2.36230E+02  3.18707E+03 -1.37487E+03  2.59558E+03 -9.33683E+02  5.03629E+03
  1.76886E+03  1.23633E+03  3.39899E+03 -2.01967E+03 -6.87815E+01  1.22789E+03 -6.15504E+02 -1.61996E+03
  8.84254E+02 -2.33873E+03 -4.70435E+01  1.97129E+03  3.48821E+03 -5.70937E+02  2.89388E+02 -2.48234E+03
 -4.23541E+03  2.55437E+03 -1.29306E+03 -1.42713E+03 -9.15506E+02 -5.22566E+03 -2.40809E+01  4.37858E+02
  9.23546E+02  4.22385E+03  2.21385E+03 -3.23541E+03 -3.51746E+03  1.43871E+03  6.27316E+02 -1.29105E+03
