 $NMID ID='MM_0lb_SNR50_7hz_g60_92.RAW', FMTDAT='(8E13.5)'
 TRAMP=1., VOLUME=1. $END
  3.07546E+05  1.44898E+03  3.41359E+05  2.54743E+05  8.52335E+04  3.34862E+05 -1.24158E+05  2.51156E+05
 -1.88731E+05  8.81202E+04 -1.10780E+05 -3.48671E+04  5.17429E+02 -5.74061E+04  5.68831E+04 -8.59974E+03
  2.93606E+04  5.31685E+04 -2.76281E+04  7.89955E+04 -6.48492E+04  6.98139E+04 -8.85405E+04  3.14433E+04
 -8.83557E+04 -1.03081E+04 -5.94730E+04 -5.25852E+04 -1.92568E+04 -6.35424E+04  2.32569E+04 -5.28457E+04
  4.33568E+04  4.86382E+03  2.55656E+04  4.59835E+04 -3.25870E+04  3.83434E+04 -5.73592E+04  4.58956E+03
 -6.30047E+04 -5.76034E+04 -1.09239E+04 -7.59627E+04  3.02601E+04 -5.19559E+04  5.31771E+04 -1.61365E+04
  5.00302E+04  7.86482E+03  3.11480E+04  2.71231E+04  1.78261E+04  2.95332E+04 -1.64219E+03  3.39009E+04
 -2.40330E+04  1.17603E+04 -2.49030E+04 -2.67271E+03 -4.39596E+03 -3.17486E+03  2.19726E+04  1.88585E+04
  4.23173E+03  3.64022E+04 -3.26339E+04  3.99367E+04 -6.48408E+04  2.47348E+03 -5.91108E+04 -4.60989E+04
 -3.86184E+03 -6.36141E+04  3.95790E+04 -4.11859E+04  5.88894E+04 -1.61941E+03  4.15659E+04  4.02434E+04
 -3.09784E+03  4.72228E+04 -3.21271E+04  2.19190E+04 -3.43057E+04 -5.36148E+03 -2.44189E+04 -1.37129E+04
 -1.12606E+04 -1.19180E+04 -1.63438E+03 -2.36327E+04  8.25740E+02 -2.22142E+04  1.61375E+04 -1.55621E+04
  1.23419E+04  7.94486E+03 -1.73797E+04  1.34730E+04 -1.98318E+04 -3.64932E+03 -9.12333E+03 -3.69232E+04
  1.61543E+04 -4.61731E+04  5.78721E+04 -2.20274E+04  5.43439E+04  2.08258E+04  2.12726E+04  5.10050E+04
 -1.01945E+04  4.60512E+04 -3.36996E+04  1.15167E+04 -1.49665E+04 -3.13538E+04  1.88274E+04 -3.96725E+04
  5.14432E+04 -7.37555E+03  4.09472E+04  2.01666E+04  1.65875E+04  5.32781E+04 -4.03968E+03  5.93503E+04
 -3.55661E+04  5.20828E+04 -5.58606E+04  1.04263E+04 -4.92004E+04 -2.36679E+04 -3.23930E+04 -5.19721E+04
  8.69495E+03 -4.58062E+04  4.69331E+04 -1.56843E+04  2.72156E+04  1.28204E+04  6.55807E+03  3.13326E+04
 -2.16301E+04  8.44073E+03 -7.55343E+03 -1.09639E+04  6.73912E+03 -5.96447E+03  1.92763E+04  7.24172E+03
  1.80782E+04  2.36715E+04 -5.91976E+03  3.10056E+04 -2.89945E+04  1.53001E+04 -3.26785E+04 -1.93438E+03
 -3.07716E+04 -2.33314E+04 -1.30849E+04 -2.03230E+04  8.33506E+03 -2.82878E+04  2.72867E+04 -2.23818E+04
  3.87611E+04 -1.19564E+04  4.24870E+04  7.88346E+03  2.36526E+04  3.47217E+04  5.59468E+03  4.61339E+04
 -2.07842E+04  3.53595E+04 -2.81343E+04  1.24699E+04 -1.76896E+04 -7.15302E+03 -7.95871E+03 -1.54382E+04
 -7.97066E+03 -2.57721E+03 -9.02764E+03  1.07659E+04 -2.21459E+04 -9.08020E+02 -2.60342E+04 -9.43720E+03
 -1.63585E+04 -2.41839E+04  2.00614E+04 -3.13800E+04  1.41660E+04 -2.68029E+04  3.84283E+04 -9.23794E+03
  1.64067E+04  1.67861E+04 -1.92660E+03  2.33522E+04 -1.89159E+04  1.49115E+04 -2.72459E+04 -6.34103E+03
 -1.73497E+04 -3.19790E+04 -4.73040E+03 -3.15294E+04  1.39403E+04 -2.77614E+04  2.82842E+04 -1.61034E+04
  2.78547E+04  3.71564E+03  2.16149E+04  8.59809E+03  1.02990E+04 -4.26774E+02  1.67414E+03 -7.90754E+03
  2.42702E+04  9.50004E+02  3.69819E+04  2.27947E+04  2.17900E+04  4.49658E+04 -6.90867E+03  5.20441E+04
 -2.95028E+04  4.30875E+04 -4.87101E+04  2.63910E+04 -4.30407E+04 -9.99138E+03 -4.45237E+04 -2.71632E+04
 -1.47971E+04 -4.15242E+04  1.15722E+04 -4.17115E+04  3.12598E+04 -1.54456E+04  3.10994E+04  1.72741E+04
  7.72201E+03  1.75788E+04 -1.11572E+04  2.28554E+04 -2.31073E+04 -3.46456E+03 -1.79558E+04 -1.59910E+04
  9.57477E+02 -2.59721E+04  1.58137E+04 -1.97471E+04  2.51748E+04  5.20065E+03  9.36376E+03  1.19619E+04
 -1.28356E+04  1.54048E+03 -6.27478E+03 -7.38884E+03 -3.41267E+03 -1.93196E+04  1.81273E+04 -2.01565E+04
  1.92370E+04 -1.18637E+04  3.10008E+04  6.66965E+03  3.00979E+04  2.72664E+04  1.33045E+04  3.32979E+04
 -8.64781E+03  4.64104E+04 -2.29045E+04  1.93493E+04 -2.89709E+04  4.02339E+03 -1.97165E+04 -9.07312E+03
 -7.53465E+03 -6.38061E+03 -2.62567E+03 -2.09055E+03  1.48703E+02  1.26166E+04 -6.91184E+03  1.29189E+04
 -2.54512E+04 -5.79155E+03 -2.23037E+04 -1.05879E+04 -7.72413E+03 -1.69758E+04  1.23285E+04 -2.06928E+04
  1.19010E+04 -1.36011E+04  1.12598E+04  6.59645E+03 -9.06014E+02 -1.68912E+01 -8.34899E+03 -6.67878E+02
 -1.56488E+04 -9.79922E+03 -6.39337E+03 -1.97782E+04  9.37876E+03 -1.88856E+04  1.94505E+04 -7.67072E+03
  2.03026E+04 -1.81547E+03  1.88623E+04  1.48354E+04  3.58918E+03  2.14237E+04 -1.40227E+04  9.07667E+03
 -1.97715E+04  3.75123E+03 -4.13831E+03 -3.58627E+03  5.23073E+03 -4.73097E+03  8.77686E+03 -3.85517E+03
  1.05217E+04  9.13647E+03  3.96049E+03  1.63631E+04 -1.09451E+04  1.28345E+04 -1.96554E+04  7.03844E+03
 -1.29969E+04 -1.54032E+04 -2.41211E+03 -1.21531E+04  2.16927E+04 -8.98105E+03  1.01669E+04 -2.13006E+03
  2.02052E+03  8.79307E+03 -1.23246E+04  1.24811E+04 -1.12095E+04 -1.99348E+03 -2.15649E+04  8.18271E+02
 -1.16738E+04 -1.85049E+04  7.71304E+03 -2.19118E+04  2.17099E+04 -1.27139E+04  2.47804E+04  3.03062E+03
  1.61319E+04  1.09068E+04 -2.40049E+03  2.24258E+04 -8.07854E+03  1.35779E+04 -1.40795E+04 -7.39017E+03
 -1.90732E+04 -1.02045E+04 -4.93609E+03 -1.06451E+04  5.68453E+03 -1.24090E+04  1.28360E+04  4.96447E+03
  5.18965E+03  3.24098E+03 -7.79183E+03  2.49383E+03 -2.94939E+03 -6.04639E+03  1.25101E+04 -1.27811E+04
  9.45318E+03 -1.15447E+04  1.66734E+04 -5.31136E+03  1.96924E+04  1.86678E+04  2.01683E+04  2.53442E+04
 -6.10656E+03  3.50968E+04 -2.67328E+04  2.20101E+04 -3.37010E+04  1.02255E+03 -2.40887E+04 -1.43105E+04
 -1.14614E+04 -2.39886E+04  1.31121E+02 -2.18740E+04  6.73607E+03 -6.96143E+03  1.14710E+04 -7.24206E+03
 -9.08193E+02 -2.56480E+03  8.32007E+03 -9.12006E+03  4.87661E+03 -3.97016E+03  5.02163E+03  4.00562E+02
  2.18191E+04  3.69597E+02  3.95244E+03  1.50710E+04 -1.44734E+03  1.07185E+04 -9.26564E+03  1.00120E+04
 -1.74871E+04 -5.68899E+02 -1.08399E+04 -1.14679E+04 -3.29886E+03 -2.25422E+04  7.18805E+03 -2.60563E+04
  1.43014E+04 -1.67902E+04  2.98314E+04  8.92560E+03  1.65378E+04  1.61166E+04  5.81012E+03  1.75822E+04
 -6.46786E+03  2.35579E+04 -1.15459E+04  8.91764E+03 -1.23882E+04  2.40335E+03 -6.69253E+03 -1.19867E+03
 -3.54719E+03  3.30519E+03 -3.65852E+02  2.11965E+03 -7.37940E+03  1.57273E+03 -1.49367E+04 -3.45698E+03
 -2.02723E+04 -1.50604E+04 -4.98324E+02 -8.59021E+03  2.10001E+04 -1.98474E+04  1.97600E+04 -5.28895E+03
  2.00972E+04  3.97792E+03  8.48452E+03  1.71946E+04 -3.31864E+02  2.26253E+04 -1.55127E+04  9.84710E+03
 -1.48884E+04  5.30772E+02 -4.50014E+03 -1.38725E+04 -1.17955E+03 -1.68979E+04  1.42563E+04 -1.31902E+04
  5.54884E+03 -5.48197E+03  6.19328E+03  7.89959E+03  6.20521E+03  3.17963E+03 -6.94841E+03  4.17077E+03
  9.85770E+03  8.82363E+03  8.53845E+02  2.43990E+03  7.82719E+03  5.23265E+03  6.32802E+03  1.37545E+04
 -2.45408E+03  1.28047E+04 -1.07186E+04  9.44461E+03 -2.49723E+04  5.30041E+03 -1.98249E+04 -1.28716E+04
 -9.56618E+03 -2.67335E+04 -5.35620E+03 -1.92172E+04  1.85257E+04 -1.66519E+04  1.82086E+04 -2.80202E+03
  1.43816E+04  6.21437E+03 -2.75869E+03  1.85269E+04 -8.28450E+03  9.06018E+03 -5.83129E+03 -4.71137E+03
 -8.42499E+03 -8.64154E+03 -2.86323E+03 -1.33843E+04  3.12586E+03 -1.40249E+04  1.70711E+04  6.79386E+03
  5.05853E+03  9.80847E+03  4.83913E+03  4.76477E+02 -4.37084E+02  3.15055E+03  8.76764E+03  3.62254E+03
  2.98239E+03  7.79850E+03  1.03987E+04  8.91447E+03  4.73352E+03  9.65154E+03  1.80943E+02  1.69414E+04
 -1.13784E+04  1.61157E+04 -1.20603E+04  3.25116E+02 -8.10321E+03 -9.80738E+03 -2.67638E+03 -9.61078E+03
  1.09768E+03 -1.31075E+04  3.14450E+03  1.05441E+02  5.68752E+03  2.82214E+03 -6.40923E+03  1.10868E+04
 -1.70907E+04  5.40479E+03 -1.99182E+04 -5.83735E+03 -1.05675E+04 -6.65303E+03  9.64515E+03 -1.38912E+04
  1.16704E+04 -1.29693E+04  1.05719E+04  1.00501E+02  6.58345E+03  8.57011E+03  7.54012E+03  5.95292E+03
 -2.73236E+03  3.23846E+03 -4.52237E+03  8.06487E+01  3.51387E+03 -1.22690E+04  8.92149E+03 -4.26362E+03
  1.85769E+04 -2.06185E+03  8.13360E+03  1.57971E+04  7.20116E+02  1.73961E+04 -7.22390E+03  9.47035E+03
 -1.59196E+04  3.60473E+03 -1.40038E+04 -1.08634E+03 -8.90778E+03 -2.48306E+03  8.31659E+03 -8.60449E+03
  1.45565E+04 -1.62248E+03  1.06121E+04  4.70176E+02  4.20662E+03  3.94678E+03 -2.51491E+03  1.34760E+03
  3.05669E+03  6.01236E+03 -7.45262E+03  2.70761E+03 -4.33764E+02 -2.89725E+03 -7.09028E+03  9.00251E+03
 -4.47277E+03  1.00493E+04 -1.13000E+04  7.93692E+03 -1.04297E+04 -1.34103E+03 -2.11272E+04 -1.05181E+04
 -4.79779E+03 -1.54630E+04  1.61843E+03 -2.33454E+04  1.24814E+04 -2.34913E+04  1.76570E+04 -3.32165E+03
  2.06425E+04  8.59564E+03  1.78607E+04  1.04798E+04  7.93452E+03  1.74830E+04 -4.86387E+03  1.65954E+04
 -1.11186E+04  7.53947E+03 -4.27107E+03  3.40025E+03 -2.41161E+03 -3.03329E+03 -8.95663E+03 -4.17560E+03
 -3.90680E+03  7.38855E+03  1.93558E+03  1.69447E+03 -7.64887E+02 -4.31624E+03  1.85279E+03 -1.28474E+04
  2.24522E+03 -7.98704E+03  1.62818E+04 -6.11827E+03  5.61679E+03  1.18889E+04  6.84274E+03  1.44868E+04
 -7.15711E+01  1.78507E+04 -1.27334E+04  8.59502E+03 -1.75176E+04  4.67215E+03 -1.70041E+04 -1.03135E+04
 -9.39342E+03 -1.49537E+04  7.20772E+03 -2.02928E+04  1.31551E+04 -7.25599E+03  1.70844E+04  2.21942E+03
  6.33789E+03  5.68078E+03 -4.94882E+03 -3.39573E+03 -1.06865E+03 -5.81409E+02  9.95130E+02 -1.81666E+03
  6.14066E+03  1.08106E+02  1.15057E+04  7.81999E+03 -7.21177E+01  9.44712E+03 -7.76168E+03  1.18869E+04
 -4.15761E+03  7.89834E+03 -2.15924E+04 -5.92724E+03 -1.83806E+03 -1.58088E+04 -5.96988E+03 -1.02227E+04
  1.65278E+03 -7.88220E+03  8.59303E+03 -5.77117E+03  1.14335E+04  2.06560E+02 -5.69712E+02  1.49559E+04
  9.97874E+03  6.06708E+03 -6.92830E+03  1.47487E+03 -4.79337E+03  9.90321E+03 -1.52022E+04  1.80607E+03
 -7.36177E+03 -1.64277E+03 -2.10470E+03  3.26949E+03 -6.43812E+03  4.54082E+03 -1.56482E+04  9.43290E+02
 -3.76710E+03 -9.49492E+03 -1.36975E+03 -1.63746E+04  6.12231E+03 -1.94049E+04  8.90524E+03 -4.29431E+03
  7.53006E+03  9.14190E+02  1.05776E+04  6.84464E+03  5.07964E+03  6.23882E+03 -9.97415E+03  6.11847E+03
