 $NMID ID='MM_0lb_SNR50_12hz_g50_9.RAW', FMTDAT='(8E13.5)'
 TRAMP=1., VOLUME=1. $END
  3.07781E+05 -3.65703E+03  3.40317E+05  2.49690E+05  8.34863E+04  3.40851E+05 -1.34670E+05  2.47921E+05
 -1.92691E+05  7.86360E+04 -1.10052E+05 -3.73142E+04  3.58576E+03 -5.15488E+04  5.37170E+04  2.61683E+02
  3.65139E+04  5.05128E+04 -2.01213E+04  7.70086E+04 -5.95633E+04  5.94292E+04 -8.24743E+04  3.59101E+04
 -7.96776E+04 -1.10704E+04 -5.66744E+04 -5.19891E+04 -1.33470E+04 -7.31301E+04  2.91484E+04 -4.70397E+04
  3.57110E+04  5.75082E+03  1.83489E+04  4.66629E+04 -3.33793E+04  4.59514E+04 -6.69835E+04  5.26610E+03
 -5.19954E+04 -5.38801E+04 -7.24419E+03 -7.79259E+04  3.19412E+04 -5.54884E+04  4.55834E+04 -1.59273E+04
  3.96381E+04  1.53198E+04  2.57944E+04  2.59635E+04  1.36523E+04  2.84408E+04 -5.18155E+03  2.74514E+04
 -2.59308E+04  9.58956E+03 -1.55718E+04 -2.73638E+03  2.40039E+03 -9.92495E+03  2.37467E+04  1.27308E+04
  1.01432E+04  3.75473E+04 -3.58914E+04  3.73767E+04 -6.41367E+04  9.45452E+02 -5.54228E+04 -4.27967E+04
 -1.41902E+04 -6.26744E+04  4.29907E+04 -4.28585E+04  5.48214E+04 -2.52102E+03  3.34594E+04  2.99820E+04
 -5.92068E+03  3.74597E+04 -2.97689E+04  1.60307E+04 -3.52222E+04 -3.37981E+03 -1.55112E+04 -5.42624E+03
 -9.34898E+03 -1.11650E+04  1.17205E+03 -2.14676E+04  4.65316E+03 -2.26867E+04  1.55630E+04 -1.28873E+04
  1.01184E+04  3.84121E+03 -5.78567E+03  1.33145E+04 -2.44334E+04 -6.32650E+03 -7.64622E+03 -3.19081E+04
  2.76879E+04 -4.18101E+04  5.34250E+04 -2.13270E+04  4.48453E+04  2.20066E+04  2.46355E+04  4.31437E+04
 -1.67189E+04  3.20587E+04 -2.70830E+04 -7.29776E+02 -1.40570E+04 -2.51221E+04  1.99548E+04 -3.58482E+04
  4.17102E+04 -8.70078E+03  4.38480E+04  2.49614E+04  1.75156E+04  5.35074E+04 -8.26350E+03  5.29482E+04
 -3.47077E+04  3.46198E+04 -4.35417E+04  1.35942E+04 -4.39050E+04 -1.91227E+04 -2.18494E+04 -3.64138E+04
  3.24924E+03 -3.53130E+04  3.51431E+04 -2.15984E+04  2.99592E+04  8.87939E+03  7.54322E+03  1.53431E+04
 -8.90116E+03  9.59892E+03 -1.02076E+04 -5.30483E+03  5.78606E+03 -1.15256E+04  1.27475E+04  9.69612E+03
  1.30893E+04  2.43290E+04 -3.95294E+03  2.39871E+04 -2.86757E+04  8.01907E+03 -3.12894E+04 -6.65330E+03
 -1.76184E+04 -2.06818E+04 -1.06628E+04 -2.27410E+04  1.15190E+04 -2.61607E+04  1.50026E+04 -1.99252E+04
  3.09130E+04 -1.66719E+04  3.47152E+04  6.63456E+03  2.80683E+04  2.21058E+04  6.29414E+03  3.64432E+04
 -1.94462E+04  3.62311E+04 -2.67567E+04  1.05066E+04 -2.29764E+04 -1.06835E+04 -1.89723E+03 -1.65510E+04
  3.12894E+02 -2.57231E+03 -4.66842E+02  5.18786E+03 -2.18310E+04  3.20386E+03 -1.75980E+04 -1.02866E+04
 -1.48929E+04 -2.30819E+04  1.24019E+04 -2.04931E+04  1.56390E+04 -2.06971E+04  2.03567E+04 -2.78734E+03
  1.15442E+04  1.23676E+04  2.06784E+03  1.81746E+04 -1.69425E+04  1.15844E+04 -1.41550E+04 -5.89284E+03
 -1.45385E+04 -2.20085E+04 -3.18068E+03 -2.38176E+04  9.20966E+03 -2.26810E+04  1.68403E+04 -7.96275E+03
  1.64488E+04  7.81706E+02  2.04849E+04  6.29624E+03  4.39424E+03 -2.49202E+02  7.70912E+03 -3.47408E+03
  1.57821E+04  4.05088E+03  2.04635E+04  1.60976E+04  1.33150E+04  3.01400E+04 -6.13904E+03  3.39565E+04
 -2.96575E+04  3.29688E+04 -3.54219E+04  1.21890E+04 -4.04416E+04 -6.03286E+03 -3.21062E+04 -2.28342E+04
 -8.24698E+03 -3.09815E+04  9.05331E+03 -3.34021E+04  2.26429E+04 -1.21258E+04  1.79525E+04  3.35635E+03
  8.09356E+03  1.66037E+04 -1.24396E+04  1.58699E+04 -1.99618E+04  3.27152E+00 -1.63964E+04 -4.58603E+03
 -4.64120E+03 -1.80851E+04  9.52582E+03 -1.08671E+04  9.68563E+03 -2.76718E+03  1.77342E+03  1.25393E+04
 -5.39267E+03  2.70753E+03 -6.06384E+03 -3.21751E+03 -3.31777E+03 -1.78812E+04  8.90030E+03 -1.36009E+04
  1.79219E+04 -1.13074E+04  2.39962E+04  2.60994E+03  1.48957E+04  1.11698E+04  5.78973E+03  2.61114E+04
 -3.15879E+03  2.42263E+04 -1.07427E+04  1.51046E+04 -1.87331E+04  4.73370E+03 -1.04705E+04 -3.96779E+03
 -5.94668E+03 -6.79778E+03  8.55817E+03  3.80037E+03 -3.14047E+03  3.86934E+03 -2.74824E+03  8.70259E+03
 -1.16121E+04 -2.25542E+03 -1.54134E+04 -9.89472E+03 -5.89755E+03 -1.98638E+04  4.75600E+03 -1.72320E+04
  1.02149E+04 -6.40608E+03  4.23810E+03  5.19458E+03 -2.58749E+03  4.08992E+03 -8.58112E+03 -3.92923E+03
 -3.20184E+03 -8.14042E+03 -5.48497E+03 -1.00925E+04  6.86726E+03 -1.28294E+04  1.93841E+04 -6.92390E+03
  2.16182E+04 -1.93034E+03  1.20133E+04  5.82797E+03  2.84643E+03  1.51897E+04 -1.65782E+03  1.24904E+04
 -6.10157E+03  6.12419E+03 -5.21222E+03  2.49753E+02  3.32720E+03 -7.30559E+03  1.24502E+04  1.17218E+03
  1.01095E+04  4.91599E+03 -7.28066E+03  1.07335E+04 -1.15444E+04  1.33775E+04 -1.24025E+04  5.05558E+03
 -1.32443E+04 -2.00045E+03 -1.91026E+03 -9.87224E+03  8.01241E+03 -8.87303E+03  1.05235E+04  2.29064E+03
  3.33820E+03  1.15590E+04 -3.57233E+03  3.86823E+03 -8.48918E+03  3.15627E+03 -1.20969E+04 -8.90232E+03
 -3.18472E+03 -1.10601E+04  4.24033E+03 -1.68245E+04  1.32360E+04 -4.80431E+03  1.23729E+04  3.87703E+03
  4.50903E+03  1.05929E+04 -5.64210E+03  1.86050E+04 -1.00398E+04  4.92993E+03 -3.20038E+03 -2.62057E+03
 -5.69680E+03 -8.15343E+03 -6.77860E+02 -8.55283E+03  9.63260E+03 -9.59992E+03  6.55868E+03 -1.94470E+03
  6.89817E+03  1.76684E+03 -6.79902E+01 -8.74705E+02  2.33017E+03 -5.68852E+03  4.62913E+03 -5.45569E+03
  1.33577E+04 -4.46914E+03  1.45121E+04  3.49364E+03  1.10576E+04  1.09647E+04  1.22074E+04  1.63111E+04
 -1.64158E+03  2.01857E+04 -1.56935E+04  1.39608E+04 -1.84828E+04 -8.12257E+02 -1.66587E+04 -6.25125E+03
 -5.72109E+03 -1.12000E+04  3.23763E+01 -9.69943E+03  6.23366E+02 -4.42394E+03  6.41985E+03  8.83772E+02
  6.77298E+03 -4.45011E+03  3.39306E+03 -3.12654E+02  1.23196E+04 -5.01962E+02  8.29624E+03  4.14185E+02
  1.32754E+04  7.93505E+02  8.29801E+03  7.63324E+03 -1.95917E+03  1.38548E+04 -6.69139E+03  9.19841E+03
 -3.41689E+03 -4.17159E+03 -8.18772E+03 -8.15328E+03  2.97832E+03 -9.75804E+03  8.68828E+03 -1.76051E+04
  1.29453E+04 -1.07710E+04  1.23314E+04  9.31110E+03  1.03551E+04  7.31502E+03  1.77530E+03  1.16980E+04
 -9.28516E+03  1.32931E+04 -1.15764E+04 -2.16033E+03 -6.22579E+03 -2.43101E+03 -2.37073E+03 -5.02138E+03
 -2.19863E+02  8.90880E+02  9.90888E+02  3.60129E+02 -3.19340E+03  3.51994E+03 -7.33026E+03 -5.32122E+03
 -3.99244E+03 -7.34287E+03  8.09406E+02 -5.41439E+03  4.78379E+03 -1.19725E+04  1.09876E+04 -1.78445E+03
  1.43760E+04  1.66186E+03  5.65543E+03  1.53426E+04  1.30140E+03  1.29076E+04 -1.04604E+04  6.39439E+03
 -6.97524E+03  4.91982E+03 -2.38742E+03 -8.53616E+03 -3.52861E+03 -7.42542E+03  8.96144E+03 -9.64313E+03
  9.48250E+03  4.06684E+03 -7.65924E+02 -2.03694E+03  5.96402E+02  7.20396E+03 -2.11311E+03  4.38720E+03
  2.11539E+03 -1.61617E+03  1.25809E+03  7.97339E+02 -1.00888E+03  4.54046E+03  4.67739E+03  5.88535E+03
 -1.48972E+03  6.94427E+03 -1.26791E+04  9.40657E+03 -3.78592E+03  1.48939E+03 -1.60578E+04 -1.00605E+04
  1.01118E+03 -4.77667E+03  1.27657E+03 -1.26615E+04  6.80026E+03 -1.27139E+04  7.41300E+03 -6.73935E+03
  4.26170E+03  2.58751E+02  2.99686E+03  6.19564E+03 -5.76532E+02  1.14296E+03 -6.31384E+03 -2.09394E+03
 -4.86682E+03 -5.70464E+03  3.89092E+03 -2.15315E+03  3.18853E+03  1.86311E+03  3.66657E+03  5.13931E+03
  4.11218E+03  2.53711E+03  2.01650E+03  5.88190E+03  4.41842E+02 -1.22081E+02  1.26373E+03  5.35300E+02
 -1.45579E+03 -6.15184E+03  7.00351E+03  6.69482E+01  5.55699E+03  7.91928E+03 -2.28572E+02  6.94031E+03
 -3.77511E+03  4.58548E+03 -5.85470E+03  1.03261E+04 -6.11162E+03  3.03213E+01 -2.43377E+03 -2.32319E+03
  1.92338E+03 -7.19942E+02 -2.05061E+03 -3.69333E+03  2.53409E+03  5.10429E+03  6.85442E+02  4.81483E+03
 -4.27705E+03  2.67939E+03 -4.44705E+03 -1.91553E+03 -4.62684E+02 -6.24592E+03 -4.43917E+03 -6.50510E+03
  5.10311E+03 -2.52364E+03  3.88482E+02 -5.36679E+03  6.12917E+03 -6.89921E+02  3.63518E+03 -4.41745E+03
  4.74050E+02  4.87382E+03 -8.34728E+03  2.04868E+03  2.90275E+03 -4.19540E+03  6.39759E+03 -6.29215E+03
  3.37476E+03  2.14236E+03  2.54792E+03 -3.06441E+02  5.73408E+03  1.28229E+04 -3.85578E+03  8.69340E+03
 -1.13982E+04 -1.18518E+03 -1.06984E+04  2.15402E+03  4.44824E+02 -3.80897E+03 -9.61392E+02 -5.54689E+03
  4.89816E+03  1.39261E+03  5.24171E+03  2.93304E+03  2.04782E+03  1.01847E+03  4.31357E+03  4.22042E+03
 -3.64214E+03  3.22937E+03 -2.81738E+03  1.62454E+03 -2.73840E+03  2.75945E+03 -2.56753E+02  4.26530E+03
 -5.72935E+03  7.67939E+02 -2.76721E+03  4.58518E+03 -5.00919E+03 -7.27569E+02 -7.91131E+03 -8.07953E+03
 -3.43727E+03 -9.44444E+03  7.90858E+02 -7.70339E+03  9.48473E+03 -8.58848E+03  1.00614E+04 -1.76302E+03
  5.32688E+03  3.87976E+03  1.78089E+03  3.62444E+03  2.53941E+03  9.29262E+02 -7.01481E+03  4.41658E+03
 -7.88137E+03 -1.64149E+03 -4.87125E+03  1.41907E+03 -4.83364E+03  2.04254E+03  3.31053E+03  4.90627E+03
  1.15376E+03  3.19149E+02 -5.72174E+02 -1.33983E+03 -6.09924E+03 -6.83585E+02  5.87500E+03 -1.73448E+03
  8.98765E+03 -3.18040E+03  5.91782E+03 -7.34359E+02  5.66752E+03  2.46119E+03  2.61618E+03  1.54890E+04
 -5.82311E+03  2.77455E+03 -6.52153E+03  4.96064E+03 -4.88806E+03 -1.70558E+03 -4.13209E+03 -8.91674E+03
 -1.21011E+03 -9.06619E+03  2.35042E+03 -6.92936E+03 -1.23934E+03 -6.43379E+03  7.87042E+03 -3.28376E+03
  2.32245E+03  3.42782E+03 -5.80039E+03  1.80813E+03 -5.07392E+03 -3.04887E+02 -4.61306E+02 -1.76106E+02
 -5.60682E+03  1.87838E+03 -8.80911E+02  3.71230E+02  5.45909E+03 -5.75090E+03  2.95301E+03 -1.43849E+03
 -4.66687E+03  4.26866E+03 -1.88354E+03 -4.42749E+02 -4.29932E+03 -4.13158E+03  2.74008E+03 -1.96914E+03
  1.22997E+03 -1.06965E+03  1.06410E+02  4.82885E+02  6.08548E+03 -8.15229E+02  3.77377E+03  3.01208E+03
  6.17805E+03  4.09117E+03 -1.31674E+03  5.73593E+03 -2.48329E+03  9.35404E+03 -2.47691E+03 -2.45110E+03
  1.42452E+03 -4.60398E+03  3.81027E+03 -3.24697E+03 -1.22099E+03  4.18820E+03 -7.80902E+03 -5.73735E+03
 -3.29416E+03 -3.52780E+03 -2.28711E+02 -3.67862E+03  1.72473E+03 -8.68296E+03  2.51684E+03 -3.42176E+02
 -3.70279E+03 -2.83351E+03  7.27298E+03  1.96296E+03 -4.53694E+02  4.72517E+03 -6.99666E+03  7.98571E+03
