 $NMID ID='MM_0lb_SNR50_12hz_g55_96.RAW', FMTDAT='(8E13.5)'
 TRAMP=1., VOLUME=1. $END
  3.05375E+05 -1.80017E+03  3.33869E+05  2.47997E+05  8.80331E+04  3.40722E+05 -1.34558E+05  2.60946E+05
 -1.83394E+05  8.39265E+04 -1.14631E+05 -2.97117E+04  3.66023E+03 -5.01517E+04  5.44334E+04  6.90482E+03
  3.96175E+04  5.71848E+04 -1.56018E+04  7.70449E+04 -6.03958E+04  6.81007E+04 -8.69154E+04  2.85510E+04
 -8.39072E+04 -6.95023E+03 -6.19195E+04 -5.34997E+04 -7.92278E+03 -6.79978E+04  2.91621E+04 -4.94500E+04
  4.21872E+04  3.57668E+03  2.09837E+04  5.18873E+04 -4.01346E+04  4.85909E+04 -6.73694E+04  4.03041E+03
 -5.65494E+04 -5.71235E+04 -4.90035E+03 -7.79377E+04  3.15648E+04 -5.50701E+04  4.86397E+04 -1.76334E+04
  4.94398E+04  9.15996E+03  3.59503E+04  2.52338E+04  1.48331E+04  2.76130E+04 -4.63755E+03  2.54331E+04
 -2.81139E+04  1.52931E+04 -1.67123E+04 -1.06701E+04  1.09058E+04 -6.58006E+03  2.68973E+04  9.20418E+03
  8.49536E+03  3.79936E+04 -3.50199E+04  3.75751E+04 -6.46521E+04  5.45249E+02 -5.61205E+04 -4.35360E+04
 -1.32518E+04 -6.39320E+04  4.54450E+04 -4.61609E+04  5.73888E+04 -5.12228E+03  4.01931E+04  3.24158E+04
 -4.90215E+03  3.65066E+04 -3.13851E+04  1.62720E+04 -3.37781E+04 -3.36867E+03 -2.46079E+04 -1.14291E+04
 -6.41218E+03 -1.72804E+04  4.68360E+03 -2.39306E+04  7.66128E+03 -2.25987E+04  1.02898E+04 -1.69150E+04
  7.15182E+03  5.13913E+03 -1.12452E+04  1.00254E+04 -2.59808E+04 -6.22714E+03 -1.92272E+03 -3.30454E+04
  2.23746E+04 -4.53762E+04  4.79239E+04 -2.27595E+04  4.77051E+04  2.20188E+04  2.10469E+04  4.44835E+04
 -1.63078E+04  3.52689E+04 -2.44833E+04  1.50346E+03 -9.62314E+03 -2.22754E+04  1.73126E+04 -3.54311E+04
  4.44810E+04 -1.07525E+04  3.88001E+04  2.44368E+04  2.15781E+04  4.97154E+04 -3.08264E+03  5.07242E+04
 -3.35885E+04  3.95206E+04 -4.14543E+04  8.44586E+02 -4.62274E+04 -1.05534E+04 -2.46595E+04 -3.86599E+04
  9.14131E+03 -3.57791E+04  2.81921E+04 -1.68194E+04  2.89055E+04  1.24686E+04  5.62525E+03  2.48990E+04
 -1.67541E+04  9.11060E+03 -5.25925E+03 -6.72114E+03  1.00528E+04 -1.32411E+04  1.92276E+04  2.88851E+03
  1.29369E+04  1.98882E+04 -1.83202E+03  2.76787E+04 -2.21594E+04  1.02066E+04 -3.40352E+04 -4.35484E+03
 -2.37383E+04 -1.98594E+04 -1.07681E+04 -2.14061E+04  1.99525E+03 -2.86650E+04  1.47721E+04 -2.81889E+04
  2.72404E+04 -1.44988E+04  3.46000E+04  3.22557E+03  2.59025E+04  2.44681E+04  2.45461E+03  3.60059E+04
 -2.08213E+04  3.09897E+04 -3.33787E+04  1.24741E+04 -2.10864E+04 -1.66537E+04 -6.20161E+03 -1.15860E+04
 -3.28240E+03 -1.26246E+03 -5.83604E+03  1.72715E+03 -1.72539E+04 -1.21698E+03 -1.23690E+04 -1.28851E+04
 -1.07292E+04 -1.93813E+04  3.62685E+03 -2.77436E+04  1.51223E+04 -2.15045E+04  2.41919E+04 -2.26523E+03
  1.24450E+04  9.02231E+03  7.86213E+02  2.08343E+04 -1.00834E+04  7.64928E+03 -2.45916E+04 -3.44062E+03
 -1.55927E+04 -1.73169E+04  3.82085E+03 -2.22630E+04  1.24336E+04 -2.74292E+04  2.29122E+04 -5.45059E+03
  2.06149E+04  1.19141E+03  1.03524E+04  6.29483E+03  5.97460E+03 -2.89042E+03  1.32010E+04  3.92636E+03
  2.01573E+04  7.47495E+03  2.41033E+04  1.79008E+04  1.62050E+04  3.22137E+04 -7.30010E+03  4.15664E+04
 -2.53555E+04  2.57776E+04 -3.48629E+04  1.37681E+04 -3.74566E+04 -2.56882E+03 -3.05670E+04 -2.95719E+04
 -1.60369E+04 -3.43391E+04  1.20289E+04 -2.51135E+04  2.57744E+04 -1.86320E+04  2.06221E+04  4.93467E+03
  1.25338E+04  1.61045E+04 -1.25442E+04  1.85856E+04 -1.77023E+04  1.60760E+03 -1.53406E+04 -1.35214E+04
 -1.25291E+03 -1.72121E+04  1.36453E+04 -1.15341E+04  1.12594E+04  2.85326E+03  4.35346E+03  3.59921E+03
 -8.63660E+03  1.54038E+03 -9.56290E+03 -1.10670E+04 -2.38224E+03 -1.91639E+04  7.10190E+03 -1.86233E+04
  1.73488E+04 -5.38317E+03  2.33258E+04  4.49347E+02  1.88983E+04  1.41232E+04  1.11505E+04  2.26960E+04
 -7.67812E+03  2.71781E+04 -1.55638E+04  1.58922E+04 -2.09281E+04  9.78768E+03 -7.62503E+03 -5.49837E+03
 -5.66356E+03 -8.89741E+03 -1.83283E+02  7.51420E+02 -2.73710E+03  3.97956E+03 -6.82820E+03  4.66197E+03
 -8.91000E+03 -2.62647E+02 -1.31553E+04 -1.22611E+04 -1.23765E+03 -2.19204E+04  4.68272E+03 -9.37266E+03
  1.19966E+04 -5.33748E+03  5.43117E+03  7.94965E+03 -4.04721E+02  7.70795E+03 -6.54613E+03 -3.04800E+03
 -9.22108E+03 -1.16370E+04  1.62605E+03 -1.21837E+04  9.08578E+03 -1.93353E+04  1.76817E+04 -7.44301E+03
  2.29135E+04 -6.01381E+02  1.45994E+04  1.28522E+04 -1.21805E+03  1.47337E+04 -1.06911E+04  1.42597E+04
 -1.24129E+04  4.85821E+03 -2.29362E+03 -8.23440E+02  4.22713E+03 -2.11250E+03  1.35281E+04  1.42024E+03
  1.49260E+03  1.45135E+03 -3.05830E+03  7.47319E+03 -6.90311E+03  1.20010E+04 -1.50097E+04  3.06942E+03
 -1.30973E+04 -7.83910E+03 -3.72927E+02 -7.79527E+03  4.91193E+03 -7.91136E+03  6.76510E+03  2.11658E+03
 -4.10359E+02  7.03702E+03 -4.26228E+03  7.14534E+03 -1.20559E+04  8.14619E+03 -6.54549E+03 -4.51961E+03
 -3.06478E+03 -1.23878E+04 -1.50371E+02 -1.50848E+04  1.07199E+04 -7.70947E+03  8.08284E+03  4.22399E+03
  6.16748E+03  1.07389E+04 -2.16398E+03  1.37780E+04 -6.10179E+03  1.10688E+04 -1.02656E+04 -3.08945E+03
 -7.53904E+03 -7.05969E+03  1.30961E+03 -9.10468E+03  4.12299E+03 -5.08503E+03  7.96965E+03 -3.39545E+03
  3.11479E+03  4.52388E+03  1.23596E+03  7.74299E+02  2.07710E+03 -2.95492E+03  3.69536E+02 -3.78257E+03
  3.79725E+03  5.47400E+02  1.15045E+04 -9.15872E+02  1.17034E+04  9.22463E+03  8.54039E+03  9.85054E+03
 -1.12435E+04  1.79520E+04 -1.69419E+04  1.15720E+04 -2.06355E+04 -2.22866E+03 -1.86362E+04 -5.85725E+03
 -8.08440E+03 -1.19015E+04 -1.57872E+03 -1.94246E+04  2.33371E+03 -1.44840E+03  2.10902E+03 -4.64487E+03
 -1.82298E+03  5.83194E+02 -1.45056E+03 -2.95203E+03  1.47147E+03 -7.74217E+03  4.60119E+03 -3.66644E+03
  9.81352E+03 -9.80373E+02  5.27233E+03  7.77799E+03 -1.50975E+03  3.88111E+03 -1.26247E+04  9.64597E+03
 -9.31625E+03 -2.47701E+03 -3.06818E+03 -9.15717E+03 -4.03666E+03 -6.53082E+03  1.34701E+04 -1.10638E+04
  1.24725E+04 -9.60116E+03  1.63411E+04  1.81991E+03  1.05353E+04  1.43571E+04 -3.15021E+02  1.46247E+04
 -3.97630E+03  1.27016E+04 -6.60537E+03 -2.70003E+03 -4.03589E+03 -2.92667E+01 -6.03991E+03 -1.70638E+03
 -2.79859E+03  1.31134E+03  3.75736E+03 -1.42613E+03 -2.42987E+03  3.68137E+03 -5.00024E+03 -1.66439E+03
 -6.09920E+03 -4.30415E+03  2.36545E+03 -1.24198E+04  3.95274E+03 -9.73518E+03  1.08849E+04 -3.96955E+03
  1.24946E+04  3.13639E+03  6.89862E+03  1.53920E+04 -9.49125E+02  9.92346E+03 -6.81170E+03  7.36825E+03
 -1.15930E+04 -5.35258E+03 -2.89393E+03 -3.11763E+03  2.39361E+02 -6.97492E+03  6.22839E+02 -4.19882E+03
  6.13862E+03 -5.27321E+03  1.99594E+03  1.75510E+03 -2.42589E+03  4.76414E+03  1.04059E+03  5.58453E+03
  3.89767E+03 -2.04978E+03  5.92361E+03  5.41014E+03  1.72571E+03  4.81933E+03 -1.31312E+03  3.62219E+03
 -4.45592E+03  4.60304E+03 -4.48394E+03  4.76626E+03 -7.05027E+03  3.53017E+03 -1.04623E+04 -2.73849E+03
 -7.34855E+03 -1.03439E+04  1.16521E+03 -1.05787E+04  2.78165E+03  6.04537E+02  7.69115E+03 -9.40556E+02
  7.32487E+03  6.96990E+03  8.25174E+03  5.91534E+03  1.57510E+03 -8.83237E+02 -3.62057E+03  3.09043E+03
 -6.70839E+03 -6.16362E+03  2.27607E+03 -5.91450E+03  5.48143E+03 -4.88404E+03 -1.42765E+03 -4.99933E+03
  7.80177E+03  6.83063E+01  1.53317E+03 -2.15957E+03 -5.34634E+03  7.61650E+02  2.90497E+03 -1.23218E+03
  4.75256E+03  9.68319E+02  3.97245E+03 -2.42960E+03  1.08494E+03 -6.59706E+02 -2.26736E+02  9.74260E+03
  7.07961E+02  1.65211E+03 -5.45802E+03  9.23226E+02 -3.24272E+03  2.46903E+03 -7.25898E+03 -5.80306E+03
 -2.41339E+02 -7.08490E+02 -6.26868E+02 -1.43204E+02  2.14390E+03  6.64462E+03 -4.08785E+03  1.94316E+03
 -7.43330E+03  2.33768E+03 -6.38232E+03 -4.61248E+03 -5.75960E+03 -9.06743E+03  1.56853E+03 -3.23046E+03
  2.26446E+02 -1.56797E+03  3.32107E+03  1.17804E+03  3.81376E+02  2.35936E+03 -2.87391E+03 -1.01615E+03
 -1.83357E+03 -8.49350E+02 -3.80725E+03 -2.75354E+03  4.06347E+03 -5.01685E+03  7.86586E+03 -1.78388E+03
  8.99620E+03 -2.98685E+03  4.92552E+03  6.60882E+03  3.42703E+03  5.64399E+03 -4.97544E+03  1.06319E+04
 -7.28926E+03 -2.50359E+03 -9.01660E+03 -1.48062E+03  1.08024E+03 -5.25617E+03 -9.73862E+01  2.27154E+03
  4.98599E+03  3.52147E+03  1.55792E+03  1.36378E+03  3.02129E+03  1.39602E+03  6.31622E+02  3.71145E+03
 -3.62371E+02  5.51928E+03 -6.76892E+03 -9.26337E+02 -4.29695E+03  1.75361E+03 -2.83314E+03  4.08661E+03
  1.82746E+03  3.07539E+03 -6.03483E+03  4.59446E+02 -8.82401E+03 -4.35433E+03 -7.10518E+03 -1.48181E+03
 -1.32895E+03 -5.63386E+03 -1.20113E+03 -1.37237E+04  4.18787E+03 -1.09529E+04  8.07724E+03 -2.79774E+03
  4.66691E+03  8.16914E+02  3.48748E+03  1.09606E+04  1.08976E+03  5.64539E+02 -1.81166E+03  5.74272E+03
 -4.59835E+03  4.55284E+03 -4.27243E+03  1.96287E+03  2.66930E+02  7.17925E+02 -2.81555E+03 -1.61664E+03
 -2.16609E+03 -3.51097E+03 -1.63671E+03  1.57048E+03 -1.34452E+03 -3.45272E+03 -4.39117E+03 -3.52179E+03
  4.35084E+03 -4.33071E+03 -5.01858E+03 -2.19287E+03  5.38556E+03  4.38734E+03  5.07037E+03  2.83553E+03
 -5.56048E+02  7.99736E+03 -6.21493E+03  1.49097E+03 -4.09144E+03  3.17929E+03 -6.88307E+03 -4.36689E+03
 -1.27333E+03 -4.13573E+03  3.62743E+01 -2.16205E+03  3.98523E+03 -1.78389E+03  7.92347E+03  3.62437E+03
  6.61997E+02  1.81565E+03 -4.15576E+03  1.33747E+03  1.90939E+03  2.13996E+03  2.60582E+02 -5.73446E+03
  3.83185E+03  1.14479E+03 -9.93110E+02  4.49831E+03 -1.14889E+03  2.75698E+03 -1.69731E+03  4.21923E+03
 -3.15375E+03 -3.61410E+03 -9.75111E+02 -3.32639E+03 -6.40008E+03 -5.42416E+03 -8.56179E+02 -7.21323E+03
 -2.45913E+01 -6.26110E+03  5.32027E+03 -5.39890E+02  6.24650E+03  1.56062E+03  8.91126E+02  2.93853E+03
  1.16512E+02  7.21557E+02 -7.70314E+02  9.06621E+03 -5.80317E+03 -2.05257E+03 -3.03878E+02  2.84847E+03
 -2.88508E+03  1.03319E+03 -1.65952E+03 -4.33114E+03 -1.15002E+03  5.80605E+03 -9.33632E+03 -8.39017E+03
 -3.30458E+03 -4.01588E+03  1.51680E+03  2.27562E+03  8.20410E+03 -5.76381E+03  2.72073E+03 -1.00907E+04
  4.33606E+03  1.88802E+02  1.04157E+03  6.87864E+03  7.04030E+02  4.82933E+03 -2.86019E+03  5.11411E+03
