 $NMID ID='MM_0lb_SNR50_12hz_g50_38.RAW', FMTDAT='(8E13.5)'
 TRAMP=1., VOLUME=1. $END
  3.10326E+05  1.95020E+03  3.43087E+05  2.50943E+05  8.94551E+04  3.39147E+05 -1.37450E+05  2.52147E+05
 -1.91783E+05  8.49828E+04 -1.09538E+05 -3.15757E+04  6.65244E+03 -5.09101E+04  4.94286E+04  1.67728E+03
  3.87529E+04  5.34509E+04 -1.42711E+04  7.56470E+04 -6.16909E+04  6.23314E+04 -8.31155E+04  3.25491E+04
 -8.93724E+04 -8.40548E+03 -5.48972E+04 -5.26403E+04 -1.24567E+04 -7.01480E+04  2.73157E+04 -4.48667E+04
  4.20313E+04  7.84582E+03  1.40725E+04  4.88336E+04 -3.43643E+04  4.72027E+04 -6.60414E+04 -3.55402E+03
 -5.24016E+04 -5.80832E+04 -8.19044E+03 -8.05766E+04  3.46429E+04 -5.99668E+04  4.71201E+04 -2.09103E+04
  4.74386E+04  9.22718E+03  2.76660E+04  3.22410E+04  1.62425E+04  3.14225E+04 -1.01641E+04  2.89740E+04
 -2.48445E+04  8.73006E+03 -2.48654E+04 -1.15240E+04  7.61403E+03 -1.37796E+04  2.40211E+04  1.13909E+04
  1.79487E+03  3.29519E+04 -3.44021E+04  3.68118E+04 -6.83172E+04 -9.60395E+02 -5.76194E+04 -4.57259E+04
 -1.41747E+04 -6.45161E+04  4.12868E+04 -4.68071E+04  6.25332E+04 -2.75868E+03  3.36273E+04  3.58433E+04
 -9.48594E+03  3.82313E+04 -3.01145E+04  1.64680E+04 -3.64756E+04 -2.24391E+03 -1.58545E+04 -8.52194E+03
 -1.18062E+04 -1.62745E+04 -2.38976E+03 -2.43197E+04  2.56072E+03 -1.94408E+04  1.01991E+04 -1.53399E+04
  6.87198E+03  5.49335E+03 -1.14100E+04  7.03580E+03 -2.07854E+04 -1.06414E+04 -6.90595E+03 -3.73975E+04
  2.02493E+04 -4.07273E+04  4.39889E+04 -2.20045E+04  4.59010E+04  2.14725E+04  1.90956E+04  4.39505E+04
 -2.14357E+04  3.55928E+04 -2.80655E+04  4.99157E+03 -1.07596E+04 -2.12703E+04  2.12174E+04 -2.97990E+04
  3.71363E+04 -9.11952E+03  3.97810E+04  2.50407E+04  2.13533E+04  4.93882E+04 -1.10338E+04  5.25940E+04
 -3.11450E+04  3.55155E+04 -4.96328E+04  8.19289E+03 -5.04592E+04 -1.91374E+04 -2.27705E+04 -3.73921E+04
  2.70239E+03 -4.39845E+04  3.72126E+04 -1.28922E+04  3.18779E+04  1.16427E+04  3.16067E+03  1.63508E+04
 -1.21698E+04  1.02597E+04 -9.03924E+03 -6.71515E+03  5.95698E+03 -1.69293E+04  1.70602E+04  5.36483E+03
  1.49277E+04  2.05481E+04 -6.65760E+03  2.64171E+04 -1.56988E+04  1.16097E+04 -3.10165E+04 -7.02471E+03
 -2.38310E+04 -2.06571E+04 -1.26847E+04 -2.31759E+04  2.46280E+03 -2.64068E+04  2.06560E+04 -1.98897E+04
  2.99364E+04 -5.77655E+03  3.25605E+04  9.41776E+03  2.61377E+04  2.36284E+04  5.24467E+03  4.07495E+04
 -1.68815E+04  3.16356E+04 -2.74515E+04  1.39400E+04 -2.30068E+04 -8.41990E+03 -4.88466E+03 -7.40651E+03
 -2.78262E+03 -5.84490E+03 -7.45184E+03  9.82811E+03 -2.07250E+04  1.04367E+04 -1.83051E+04 -7.18149E+03
 -1.01676E+04 -2.20697E+04  6.75524E+03 -2.34171E+04  1.59346E+04 -1.88442E+04  1.77236E+04 -1.26402E+03
  1.19862E+04  1.13767E+04 -6.55263E+03  1.64807E+04 -1.33018E+04  1.27570E+04 -1.67264E+04 -7.19880E+03
 -9.90203E+03 -1.77369E+04 -1.79992E+03 -2.40071E+04  1.26199E+04 -1.76858E+04  2.08085E+04 -1.39373E+04
  2.37572E+04  1.64345E+03  1.62058E+04  7.09242E+03  8.64963E+03 -5.65671E+02  6.51052E+03  2.20110E+03
  2.40520E+04  2.64753E+01  1.31129E+04  1.92426E+04  1.33662E+04  3.09462E+04 -5.24445E+03  3.73978E+04
 -2.81614E+04  3.35061E+04 -3.20268E+04  1.78217E+04 -4.20037E+04 -1.79088E+03 -3.39044E+04 -2.09997E+04
 -1.25218E+04 -2.99604E+04  7.27921E+03 -3.06330E+04  2.38771E+04 -1.65874E+04  2.09214E+04 -1.22644E+03
  5.70354E+03  1.76885E+04 -7.26778E+03  1.56459E+04 -1.33472E+04  6.62264E+02 -1.86359E+04 -1.11283E+04
 -2.89546E+03 -1.93461E+04  5.82889E+03 -1.05758E+04  1.76268E+04 -1.77098E+02  3.71865E+03  5.02461E+03
 -8.76130E+03  3.80842E+02 -6.66906E+03 -5.33598E+03 -9.71926E+02 -1.34173E+04  9.25909E+03 -1.27806E+04
  1.43693E+04 -1.33140E+04  2.43437E+04  7.05237E+03  1.48293E+04  1.76706E+04  1.00266E+04  2.49157E+04
 -5.68417E+03  2.59199E+04 -1.55110E+04  1.75841E+04 -1.19686E+04 -1.28695E+03 -1.39541E+04 -4.91495E+03
 -5.91874E+03 -4.57596E+03  2.31321E+03  4.19142E+02 -3.13546E+02  3.66152E+03 -5.01049E+03  7.50010E+03
 -8.93988E+03 -1.66103E+03 -1.58911E+04 -1.13152E+04 -7.51935E+03 -1.79594E+04  6.30975E+03 -1.24280E+04
  9.74790E+03 -4.88531E+03  5.11640E+03  1.38129E+03 -3.35931E+03 -1.54641E+02 -8.93758E+03 -1.70054E+03
  3.15998E+03 -1.02864E+04  2.70161E+03 -1.07183E+04  8.50560E+03 -1.54093E+04  1.77610E+04 -7.59279E+03
  2.17574E+04  3.60736E+03  1.43002E+04  1.36882E+04  4.90317E+03  1.32835E+04 -3.07282E+03  1.23079E+04
 -1.30187E+04  3.17703E+03 -1.02403E+04  1.36742E+03 -2.04693E+03 -4.96826E+03  5.29127E+03 -1.80854E+02
  9.50756E+03  2.45835E+03 -1.19366E+03  1.30980E+04 -1.19843E+04  1.29575E+04 -1.21448E+04  5.06422E+03
 -6.42067E+03 -5.32959E+03 -5.92900E+03 -7.61064E+03  7.09321E+03 -5.49586E+03  4.42548E+03  2.40558E+03
  2.40189E+03  7.09800E+03 -8.33513E+03  9.35934E+03 -1.36098E+04 -2.41917E+03 -6.40793E+03  3.03660E+03
 -5.32168E+03 -1.39026E+04  2.32631E+03 -8.64124E+03  1.20557E+04 -9.26528E+03  1.68406E+04  3.93955E+03
  1.56716E+03  8.58714E+03 -6.53090E+02  1.08253E+04 -6.91777E+03  6.02392E+03 -7.67721E+03  3.90473E+03
 -1.29335E+04 -7.70500E+03 -4.17973E+03 -1.05975E+04  3.26077E+03 -7.31004E+03  8.14039E+03 -4.14813E+03
  2.56043E+03  2.44863E+03 -8.58964E+02 -2.70312E+03 -7.94583E+01 -4.62130E+03  5.07924E+03 -3.03290E+03
  7.64214E+03 -6.89695E+03  1.55977E+04  1.19442E+03  1.03558E+04  9.83472E+03  7.07644E+03  1.72849E+04
 -1.46763E+03  2.37000E+04 -1.40227E+04  1.43753E+04 -1.93827E+04  4.83162E+03 -1.24064E+04 -7.23169E+03
 -1.12119E+04 -1.36422E+04 -4.25641E+03 -1.69487E+04  1.92114E+03 -8.75682E+03  5.58914E+03 -5.55906E+03
  2.42028E+03 -1.13121E+01  1.58627E+03  2.64683E+03  4.31112E+03  1.56969E+03  4.67717E+03  3.01901E+03
  4.59347E+03  1.15328E+03  6.16703E+03  6.85751E+03 -6.82003E+02  6.22870E+03 -8.97757E+03  9.92520E+03
 -1.23269E+04  6.83615E+02 -9.62626E+03 -4.20261E+03 -2.58690E+03 -1.05002E+04  3.93219E+03 -4.77809E+03
  1.31419E+04 -9.67422E+03  1.32358E+04 -6.73269E+03  1.35856E+04  1.27249E+04  1.77086E+03  1.76068E+04
 -4.83952E+03  1.03099E+04 -3.72322E+03  4.07848E+03 -9.66124E+03 -4.68279E+03 -1.49932E+02  2.11230E+03
 -6.24729E+03  1.00559E+03 -1.43184E+03  5.13218E+03 -7.33688E+03  2.65221E+03 -8.88000E+03 -2.81303E+03
 -1.65578E+03 -2.25916E+03 -5.40970E+02 -1.44974E+04  7.68206E+03 -9.91164E+03  6.90318E+03 -3.58275E+03
  8.78634E+03  6.26705E+03  5.14053E+03  1.00218E+04 -4.33759E+03  1.10379E+04 -4.00242E+03  2.97058E+03
 -7.33045E+03  3.24739E+03  4.68170E+02 -4.02140E+03 -2.63053E+03 -1.10475E+04  4.52702E+03 -6.36721E+03
  1.11378E+04 -1.01794E+03  6.21065E+03 -5.08230E+03 -2.10296E+02  4.50669E+03  5.00247E+03  1.45173E+03
  4.20894E+03  3.20335E+03 -3.30570E+03  2.68809E+03  2.57007E+03  3.91269E+03  3.73035E+03  3.69528E+03
 -7.87889E+01  1.21303E+04 -5.28199E+03  6.17436E+03 -1.00324E+04  5.15252E+03 -1.18309E+04 -1.06984E+03
 -5.61138E+03 -1.23562E+04  6.54736E+03 -1.09967E+04  6.47783E+03 -4.84136E+03  2.03160E+03 -2.27298E+02
  1.13820E+04  6.94779E+03  6.26480E+02  4.31514E+03 -4.47802E+02  5.30850E+03 -4.78754E+03  2.32255E+02
  2.92259E+03 -9.89951E+02 -1.98446E+03 -7.38614E+03  3.48446E+03 -2.61939E+03  7.38517E+03 -3.31621E+02
 -1.27332E+03  8.13142E-01  2.45705E+02  5.12797E+03  5.97553E+03  1.42073E+03 -2.63892E+02  1.96496E+03
 -6.14511E+02  6.50207E+03  5.67988E+03 -1.02434E+03 -1.15028E+02  7.87200E+03  1.31932E+03  6.52005E+03
 -9.22564E+03  1.76705E+03 -5.14098E+03  3.59479E+03 -5.91781E+03 -2.03594E+03 -1.27692E+03 -6.30301E+03
  1.45832E+03 -2.10511E+02  2.32706E+03  3.91567E+02  4.94981E+03  5.60143E+03 -1.18797E+03  1.54010E+03
 -5.62837E+03 -1.08504E+03 -5.72993E+03  1.27333E+03  1.67822E+03 -5.42692E+03 -8.16951E+02 -2.79924E+03
  1.17995E+03 -4.61743E+03  7.52817E+03  3.50271E+02  3.35546E+03  3.00757E+03 -1.66784E+03  4.80177E+02
 -2.31322E+03  1.34650E+03 -5.79755E+03 -4.66296E+03 -1.22487E+03 -3.76171E+02 -4.32657E+03 -1.34423E+03
  6.35099E+03  3.80611E+03  9.22263E+03  8.03340E+03  3.69203E+03  4.11344E+03  1.24460E+03  9.45601E+03
 -5.45628E+03 -7.72186E+01 -6.99528E+03  9.50904E+00 -3.85711E+03 -4.91466E+03  1.92607E+03  2.05399E+03
  3.99188E+03  1.41476E+01  2.96203E+03  1.31405E+03 -5.68248E+01 -8.45930E+02  2.72842E+03  2.10080E+03
  1.46930E+03 -4.58098E+02 -2.74120E+03  1.78568E+03 -4.35513E+03  1.44533E+03 -2.46778E+03  1.53044E+03
 -2.45736E+03  7.13134E+02 -5.85638E+03  1.06627E+02 -8.04671E+03 -1.56626E+02 -5.32524E+03 -3.93078E+03
 -4.65892E+03 -9.72215E+03 -9.88760E+02 -7.44395E+03  9.33184E+03 -1.02291E+04  9.09533E+03 -2.58923E+03
  9.40798E+03  5.16337E+03  7.10465E+03  3.27933E+03 -2.37016E+03  1.20712E+04 -7.85274E+03  1.69928E+03
 -4.26129E+03  1.70349E+03 -1.72424E+03  1.92847E+03 -2.58464E+03  1.42423E+02 -5.46981E+03 -3.01483E+03
 -1.10827E+03 -2.74168E+03  2.12080E+03  5.41127E+02 -1.44190E+03 -4.91057E+02  2.21785E+01  4.24550E+03
  1.22191E+03  7.28596E+03  4.95898E+03  1.34905E+02  3.28792E+02 -1.74802E+03  8.08439E+02  6.09988E+03
 -7.07302E+03  1.08055E+04 -8.45521E+03  6.89086E+03 -6.57899E+03  5.76524E+02 -4.80852E+03  8.62128E+02
 -2.70609E+03 -6.71541E+03  4.31285E+03 -7.40350E+03  3.30079E+03 -5.14909E+02  3.08414E+03 -1.29957E+03
  1.68615E+03 -4.63812E+03 -4.39648E+02  1.84529E+03  2.43188E+03 -7.36853E+02  1.24557E+03 -6.36948E+02
  2.03599E+03  1.64602E+03 -6.67968E+02 -1.49743E+03 -4.79650E+03 -1.89822E+02  4.79795E+03  4.79756E+02
 -9.24269E+02  6.49313E+03 -1.54519E+03 -1.11099E+03 -3.55799E+03 -3.92701E+03 -9.72813E+02 -3.52044E+03
  8.25641E+02 -4.32360E+03  3.13672E+03  3.57293E+01  5.08767E+03  4.87086E+03  2.85440E+02  9.09002E+03
 -2.66972E+03 -4.75930E+02  7.23032E+02  2.88758E+03 -2.48909E+03  3.29547E+03 -5.71192E+03  1.11641E+03
  1.55360E+03  2.29478E+03 -1.03272E+03 -2.71815E+03  1.16598E+03  2.40999E+02 -4.54880E+03 -3.94767E+03
 -1.65756E+02 -3.71131E+03 -2.16929E+03 -6.07550E+03 -2.77033E+03 -1.67145E+01 -2.03859E+03  1.15202E+03
  7.58367E+03  6.28962E+03 -2.88835E+03  2.52025E+02 -1.45443E+03  1.65160E+03 -5.06166E+03  3.00235E+03
