 $NMID ID='MM_0lb_SNR50_19hz_g55_33.RAW', FMTDAT='(8E13.5)'
 TRAMP=1., VOLUME=1. $END
  3.09294E+05  5.08653E+02  3.39438E+05  2.51606E+05  8.80529E+04  3.35595E+05 -1.35980E+05  2.54417E+05
 -1.92113E+05  8.35112E+04 -1.13136E+05 -3.40767E+04  1.36595E+03 -4.92916E+04  5.53398E+04  1.42641E+03
  3.32132E+04  5.38944E+04 -1.93088E+04  7.34065E+04 -5.63938E+04  6.39288E+04 -8.70425E+04  3.31948E+04
 -7.86532E+04 -1.22641E+04 -5.31473E+04 -5.17947E+04 -1.08543E+04 -6.86094E+04  2.86441E+04 -4.46602E+04
  4.05520E+04  4.23954E+03  1.87695E+04  4.96770E+04 -2.95881E+04  4.41696E+04 -6.49478E+04 -2.22632E+03
 -4.72013E+04 -5.85449E+04 -6.92628E+03 -7.69358E+04  3.37435E+04 -5.07353E+04  4.67385E+04 -1.53034E+04
  4.39001E+04  8.17177E+03  2.67748E+04  2.59734E+04  1.94863E+04  2.86896E+04 -1.02809E+04  2.30871E+04
 -1.89074E+04  1.29319E+04 -1.93184E+04 -4.79338E+03  6.30341E+03 -8.38338E+03  1.81860E+04  1.63095E+04
  9.22972E+03  3.28102E+04 -3.18399E+04  3.74987E+04 -5.93371E+04 -3.57759E+03 -5.63992E+04 -4.02710E+04
 -1.14563E+04 -6.01945E+04  4.07080E+04 -3.97762E+04  5.32893E+04 -3.86731E+03  3.41625E+04  3.04193E+04
 -8.49960E+03  3.08540E+04 -3.01110E+04  1.13793E+04 -2.59224E+04 -6.33325E+03 -1.68234E+04 -1.00268E+04
 -5.56676E+03 -1.42056E+04 -2.20410E+03 -1.52945E+04  5.78643E+03 -2.31660E+04  1.36517E+04 -1.19491E+04
  9.99574E+03  1.48683E+03 -9.58811E+03  1.45571E+04 -2.39215E+04 -5.06965E+03 -5.00711E+03 -2.71097E+04
  2.02869E+04 -3.98204E+04  4.45749E+04 -1.76980E+04  4.11632E+04  1.94006E+04  1.48037E+04  4.26763E+04
 -1.74041E+04  3.06243E+04 -2.40062E+04  5.91548E+03 -9.91686E+03 -3.19524E+04  2.10883E+04 -2.74397E+04
  3.69742E+04 -4.25002E+03  2.89100E+04  2.41644E+04  1.41005E+04  4.41898E+04 -9.46156E+03  3.89512E+04
 -3.08566E+04  3.36547E+04 -4.06813E+04  9.06265E+03 -4.62004E+04 -1.66140E+04 -2.16243E+04 -3.56236E+04
  4.47006E+03 -3.49301E+04  3.05172E+04 -1.28544E+04  2.63295E+04  1.19428E+04  1.94825E+03  1.60104E+04
 -1.21779E+04  7.26437E+03 -9.19069E+03 -5.52770E+03  7.40766E+03 -1.63330E+04  1.88737E+04  5.30277E+03
  1.33384E+04  2.20226E+04 -5.82314E+03  2.63577E+04 -2.18650E+04  1.43635E+04 -2.42626E+04 -7.63026E+03
 -1.89726E+04 -1.91307E+04 -6.04159E+03 -1.63414E+04  3.52880E+03 -1.48224E+04  1.37526E+04 -1.65151E+04
  2.52084E+04 -1.27226E+04  2.78780E+04  9.90971E+02  2.54210E+04  1.84252E+04  9.16709E+03  3.32000E+04
 -1.83620E+04  2.48431E+04 -2.29114E+04  9.92487E+03 -2.08205E+04 -1.11101E+04 -1.44457E+03 -9.83672E+03
  1.29592E+03 -5.46461E+03  1.75126E+03  1.65503E+03 -7.53122E+03  8.74168E+03 -1.70177E+04 -5.88991E+03
 -8.98224E+03 -1.37786E+04  2.51802E+03 -2.08123E+04  1.48995E+04 -1.58948E+04  1.63311E+04  1.67245E+03
  6.19615E+03  7.46336E+03 -1.87700E+03  1.62880E+04 -8.21471E+03  9.51071E+03 -1.35216E+04 -3.30511E+01
 -1.16700E+04 -1.39211E+04  1.57337E+03 -1.58807E+04  9.05188E+03 -1.24943E+04  1.38938E+04 -4.90872E+03
  1.46917E+04 -2.21554E+03  9.89447E+03  1.59823E+03  2.68902E+02 -2.90984E+02  9.21279E+03  1.31181E+03
  1.79010E+04  4.08035E+03  1.49715E+04  1.27569E+04  8.66350E+03  2.30589E+04 -2.92421E+03  2.51304E+04
 -1.28372E+04  2.13758E+04 -2.33636E+04  1.07531E+04 -2.65230E+04  2.65168E+02 -2.23191E+04 -1.67738E+04
 -9.58590E+03 -1.71441E+04  4.07390E+03 -1.92916E+04  2.09183E+04 -1.44722E+04  1.81481E+04  3.92623E+03
  9.72013E+03  1.31472E+04 -9.65645E+03  1.29186E+04 -1.39614E+04  3.42683E+03 -9.01239E+03 -7.92930E+03
 -1.61096E+03 -1.60416E+04  3.13135E+03 -9.67113E+03  8.04829E+03 -4.21667E+03  2.84943E+03  4.81660E+03
 -1.26411E+04  2.09801E+03 -5.31399E+03 -4.13266E+03  2.95470E+03 -1.21738E+04  1.09886E+04 -1.34564E+04
  1.17175E+04 -1.88653E+03  1.10250E+04  3.74842E+03  1.03372E+04  6.25616E+03  7.12435E+03  1.51957E+04
  2.71255E+03  1.97483E+04 -1.01596E+04  8.69778E+03 -1.00642E+04  2.44146E+03 -7.08390E+03 -7.60232E+02
 -8.84422E+02 -6.12905E+03 -7.32361E+02  4.82757E+03 -4.89123E+03  1.53072E+03 -3.07394E+03  4.82410E+03
 -8.95388E+03  4.83913E+02 -6.03695E+03 -6.61713E+03 -3.95309E+03 -1.24514E+04  3.79377E+03 -6.51520E+03
  4.37485E+03 -5.22626E+03  4.74661E+03  5.22382E+03  1.62181E+03  2.22935E+03 -5.46626E+03 -1.51898E+03
 -5.69459E+03 -8.59670E+03  2.48563E+03 -8.56143E+03  2.29742E+03 -8.29754E+03  8.50203E+03 -5.90753E+03
  6.07505E+03  1.98907E+03  1.28565E+04  4.85713E+03 -1.58172E+03  8.20005E+03 -4.59490E+03  1.07672E+04
 -5.16413E+03  4.59083E+03 -2.66661E+03 -2.10680E+03  2.81860E+03 -5.01491E+03  5.05765E+03 -3.70201E+03
  2.98316E+03  2.00326E+03  2.18289E+03  5.42845E+03 -1.39834E+03  2.94125E+03 -8.53810E+03  2.30803E+03
 -8.09916E+03 -2.07229E+03 -4.09645E+03 -7.56070E+03  3.83836E+03 -3.49747E+03 -9.87928E+00  2.80500E+03
  4.85365E+02  2.84023E+03 -1.15273E+03  4.02524E+03 -3.81107E+03  5.46880E+03 -3.15041E+03  1.58763E+03
 -3.22334E+03 -9.21581E+03  1.31247E+03 -3.75124E+03  5.66817E+03 -4.03773E+03  8.26759E+03  1.31858E+03
  6.71265E+03  8.54606E+03  1.58027E+03  5.92412E+03 -3.28110E+03  5.10491E+03 -3.45081E+03 -2.03554E+03
 -2.95005E+03 -6.83421E+03 -3.72862E+03 -7.37695E+03  5.51550E+03 -5.25430E+03  3.40425E+03 -5.01655E+03
  1.80014E+03  2.55580E+01  3.70270E+03  2.94848E+03 -1.61684E+03 -3.81246E+03 -9.90012E+02  2.53939E+02
  1.43225E+03 -1.56401E+03  5.76928E+03 -2.54007E+02  8.26792E+03  6.48405E+02  7.58007E+03  7.90074E+03
 -3.60031E+03  1.05035E+04 -9.29659E+03  1.86978E+03 -7.84018E+03  1.69561E+03 -1.05637E+04 -1.62880E+03
 -4.16991E+03 -5.06990E+03 -8.26531E+02 -3.86379E+03  1.02351E+03 -9.06957E+02  5.97963E+03 -1.56450E+03
 -3.47112E+03 -2.89908E+03  5.34104E+03 -3.66316E+03  7.20692E+03 -9.05488E+02  1.56257E+02 -2.08419E+02
  6.57931E+03  4.07362E+03  3.00900E+03  8.87351E+02 -3.01399E+03  6.19884E+03 -5.69084E+03  1.16402E+03
 -1.05083E+04  1.45006E+03 -2.55698E+01 -1.94028E+03  8.29134E+02 -3.25528E+03  4.37144E+03 -7.02085E+03
  5.62582E+03 -2.11128E+03  6.02812E+03 -4.33837E+02  4.56951E+03  7.28993E+03  3.09563E+03  8.66958E+03
 -3.03353E+02  6.68062E+03 -3.94547E+03  1.92009E+03 -2.02442E+03  2.72470E+02 -1.69196E+03  4.27776E+03
 -1.51877E+03 -6.80955E+01 -4.17422E+03  2.17601E+03 -4.52158E+02  2.12055E+03 -3.55188E+03 -1.16637E+03
 -1.44388E+03 -4.59724E+03  1.73357E+03 -4.61916E+03  1.49111E+03 -2.00273E+03  6.01433E+03 -8.91027E+02
  3.77835E+03  2.15014E+03  9.37083E+02  4.49507E+03 -2.83325E+03  9.37315E+03 -5.89807E+03 -2.90317E+02
 -2.30875E+03 -4.29824E+02 -4.52087E+02 -1.05706E+03 -7.86377E+02 -4.86482E+03  3.35669E+03 -2.07588E+03
  2.44874E+03 -4.86744E+03  6.69435E+03  2.76248E+03 -1.08179E+03  1.09957E+03  3.31147E+02  2.08536E+03
  3.29555E+03 -1.28499E+03 -3.07063E+02  2.92242E+03 -1.71898E+03 -7.51311E+02  8.05217E+02  4.33416E+03
  1.49844E+03  7.18082E+03 -7.43581E+03  2.00383E+03 -2.78799E+03  7.68660E+01 -4.42956E+03 -9.05834E+02
 -2.15659E+03 -3.03004E+03 -1.20726E+03 -5.68375E+03  6.05841E+02 -4.50521E+03  4.59024E+03  1.04166E+01
 -2.06979E+03  2.95854E+03  2.70246E+03  4.15264E+02  5.06355E+02  1.10310E+03 -7.50378E+02 -2.53792E+03
  2.63291E+01 -7.30325E+02  1.66963E+03  6.17214E+02  1.02324E+03 -3.05291E+02  3.38198E+03  1.30401E+03
 -6.93605E+02 -1.37791E+02 -3.10784E+03 -4.54088E+02 -1.14746E+03  5.06455E+03  3.20795E+03  5.43463E+03
 -5.17593E+03 -4.16651E+03  3.58090E+03  3.37218E+03 -2.21206E+03  2.42788E+03  1.98170E+02  2.89212E+03
 -4.14607E+03  8.13768E+02 -1.39789E+03  1.66334E+03 -2.36685E+02  7.94322E+02  3.54199E+03  2.22967E+03
 -1.40695E+03 -1.85348E+03  3.25691E+03  1.80933E+03  4.64661E+03  4.78056E+03 -4.29828E+03  1.49818E+03
  2.77302E+03  2.04918E+03 -2.85733E+03 -4.44768E+03  1.47062E+03  7.56650E+02  1.96295E+03 -3.61900E+03
 -1.20061E+02 -2.56112E+02 -5.31844E+02  1.09797E+03 -2.88220E+01 -1.93483E+03  1.48685E+03 -1.32768E+03
 -1.11384E+02 -3.60300E+03 -3.41123E+03 -5.49390E+03  1.55426E+03 -1.82758E+03  2.90953E+03 -2.66034E+03
  3.09636E+03 -9.77919E+02  3.38518E+03  1.01071E+03 -9.59104E+02  2.35192E+03  1.28755E+03  1.14909E+03
  6.48060E+02  1.10539E+03 -4.54658E+03 -9.81620E+02 -1.68942E+03  2.76373E+03 -8.70828E+01 -1.48632E+03
  2.21504E+03  1.50180E+03  2.05916E+03 -2.84854E+03 -2.63412E+03  3.11544E+03  4.91086E+02 -2.57982E+03
  1.25220E+03  3.49318E+02  2.40192E+03 -2.26240E+03 -4.78790E+03  5.84428E+03 -1.11243E+02  2.63098E+02
  2.38262E+03 -6.49423E+02 -3.93010E+03  2.97657E+03 -7.03397E+02 -5.30354E+03  1.85136E+03  2.91353E+02
  5.69027E+02 -2.85093E+03  1.12222E+03 -2.61218E+03  6.33570E+02 -2.34629E+03  5.76946E+03 -9.05422E+02
 -9.48029E+02 -1.12304E+02  1.78358E+03  7.65158E+03 -2.50359E+03  1.28741E+03 -3.46514E+03  4.24677E+03
 -3.75601E+03  9.78039E+02 -4.29629E+03  3.12879E+03  1.80275E+03 -5.59073E+02 -2.38186E+03  9.50346E+02
 -2.13031E+03 -7.30148E+02 -3.77401E+03  2.20262E+03  1.28161E+03 -1.76252E+03 -5.60265E+02 -1.76907E+02
 -3.34642E+03 -2.79707E+03 -3.47830E+03 -2.29723E+03  6.00939E+03  1.85529E+03 -1.31978E+02  2.28739E+03
  1.08096E+03  5.11474E+03 -3.99375E+02  5.57263E+03 -3.23608E+03 -1.30858E+03  2.43273E+03 -3.56570E+03
  2.14750E+03 -1.89870E+03  7.46741E+02 -1.57922E+03 -3.35241E+03 -1.37509E+03  7.34311E+02  3.20149E+03
  9.86109E+02  2.78800E+03  1.65398E+03 -8.83010E+01 -2.94474E+03  1.92169E+03 -2.00726E+03 -3.85596E+03
 -1.37344E+02 -3.51145E+02  3.94716E+03 -3.48310E+03 -5.13178E+03  1.49703E+03  2.83524E+02 -5.68654E+02
  2.76409E+03  9.86404E+02  3.04164E+03 -3.56178E+03 -2.54721E+03  3.02409E+03 -7.65976E+02 -6.07130E+03
 -8.52994E+01 -2.94906E+03 -2.48680E+03  1.30072E+02 -2.07200E+03  1.79992E+02  5.04639E+02  2.81821E+03
  8.23308E+02  2.79428E+03  4.00114E+03  3.79622E+03  3.77227E+03  1.47373E+03  5.66227E+02 -1.70597E+03
  9.69281E+02 -2.33547E+03 -4.56879E+03  1.16758E+03  2.08691E+03 -2.25371E+03  2.51191E+03  2.77079E+03
 -3.65330E+02  5.99104E+02 -7.48688E+02  7.68760E+02 -2.44745E+03 -3.21595E+03 -2.31701E+03 -1.57065E+03
 -2.49535E+03 -5.06277E+02  4.30084E+02 -2.69254E+03 -9.23873E+02  2.57788E+03  5.30902E+03 -1.41407E+03
