 $NMID ID='MM_0lb_SNR50_20hz_g60_80.RAW', FMTDAT='(8E13.5)'
 TRAMP=1., VOLUME=1. $END
  3.08406E+05  9.21979E+02  3.38203E+05  2.49792E+05  8.64969E+04  3.37991E+05 -1.29125E+05  2.51524E+05
 -1.96092E+05  8.10996E+04 -1.12160E+05 -3.12358E+04 -3.45749E+02 -5.20767E+04  5.29090E+04 -4.07114E+01
  3.78781E+04  5.49071E+04 -1.65323E+04  7.16350E+04 -5.76004E+04  5.89938E+04 -8.22730E+04  3.09390E+04
 -8.08091E+04 -1.00884E+04 -5.74642E+04 -5.31745E+04 -1.60418E+04 -6.84359E+04  3.52933E+04 -4.23963E+04
  4.19738E+04  1.03696E+03  1.43736E+04  4.45010E+04 -3.42462E+04  4.44150E+04 -6.51520E+04 -2.61858E+02
 -5.25879E+04 -5.94399E+04 -7.66552E+03 -7.62659E+04  3.34935E+04 -5.58926E+04  4.35138E+04 -1.84973E+04
  4.28867E+04  1.17995E+04  3.03969E+04  2.65708E+04  1.28410E+04  2.80812E+04 -5.93827E+03  2.81619E+04
 -1.98443E+04  1.29546E+04 -1.95567E+04 -3.91059E+03  7.86117E+03 -6.21976E+03  2.30254E+04  9.00369E+03
  9.97856E+03  3.44459E+04 -3.17313E+04  3.47668E+04 -6.04390E+04  4.24499E+03 -5.70720E+04 -4.18167E+04
 -1.52253E+04 -6.20677E+04  3.93997E+04 -4.65286E+04  5.68342E+04 -3.18306E+03  3.49243E+04  3.17886E+04
 -2.71344E+03  3.48296E+04 -2.67874E+04  1.29869E+04 -3.11242E+04 -2.61109E+03 -1.14012E+04 -1.27650E+04
 -6.67007E+03 -1.45736E+04  2.82537E+03 -1.78285E+04  7.58832E+03 -2.56434E+04  1.70192E+04 -1.38331E+04
  1.37145E+04  4.71509E+03 -6.75162E+03  1.44468E+04 -1.86051E+04  2.16624E+03 -7.66563E+03 -3.30764E+04
  2.29655E+04 -3.94991E+04  4.48567E+04 -1.89186E+04  4.54979E+04  1.85026E+04  1.41096E+04  4.03908E+04
 -1.46615E+04  3.35489E+04 -2.31046E+04  1.08714E+03 -1.18407E+04 -2.32163E+04  1.83311E+04 -3.05786E+04
  3.86489E+04 -1.29629E+04  3.21615E+04  2.33478E+04  1.40406E+04  4.20315E+04 -1.05219E+04  4.46386E+04
 -3.33226E+04  3.00024E+04 -3.73604E+04  9.92330E+03 -3.90151E+04 -1.81574E+04 -2.26855E+04 -3.78994E+04
  4.70346E+03 -3.30401E+04  3.40031E+04 -1.47490E+04  2.53220E+04  1.06305E+04  8.26211E+02  1.67035E+04
 -8.40671E+03  6.93664E+03 -8.43712E+03 -9.27230E+03  1.16740E+04 -1.03638E+04  1.74241E+04  5.66283E+03
  1.58525E+04  2.13432E+04 -7.15336E+03  2.55652E+04 -1.71537E+04  7.11766E+03 -3.14530E+04 -9.03725E+03
 -1.92594E+04 -1.64946E+04 -9.87576E+03 -1.83671E+04  1.01624E+04 -1.70391E+04  1.09445E+04 -1.41772E+04
  2.02982E+04 -1.25460E+04  2.46501E+04 -1.12089E+03  2.00409E+04  1.81275E+04  2.11240E+03  3.44347E+04
 -1.67134E+04  2.69427E+04 -2.33196E+04  1.02106E+04 -1.75612E+04 -1.40686E+04 -5.58413E+03 -1.30076E+04
  5.06043E+03 -2.07739E+03 -6.09338E+03  3.31354E+03 -1.32502E+04  7.38679E+03 -1.35757E+04 -7.03550E+03
 -9.89405E+03 -1.86689E+04  1.67251E+02 -1.93119E+04  1.63779E+04 -1.63322E+04  2.00491E+04 -2.58798E+03
  1.44124E+04  5.51850E+03 -8.15537E+02  1.78447E+04 -8.13623E+03  9.63392E+03 -1.76130E+04 -2.10095E+03
 -1.17295E+04 -1.18064E+04 -4.44826E+03 -1.58667E+04  1.11387E+04 -1.78601E+04  2.23813E+04 -6.69473E+02
  1.51730E+04  3.47854E+03  1.32114E+04  1.96243E+03  7.59877E+03  2.18872E+03  2.87290E+03 -1.85644E+03
  1.72650E+04  2.29482E+03  1.42198E+04  7.98106E+03  9.20937E+03  2.61100E+04 -5.54720E+02  2.56227E+04
 -1.25035E+04  2.13895E+04 -2.18361E+04  8.18105E+03 -2.38707E+04  3.38465E+03 -2.09299E+04 -1.48187E+04
 -1.16366E+04 -1.52866E+04  4.54607E+03 -1.95112E+04  1.99923E+04 -1.03043E+04  1.58292E+04  2.26083E+03
  5.98820E+03  1.08398E+04 -1.15503E+04  1.09321E+04 -1.13563E+04 -8.16644E+02 -8.16430E+03 -7.69566E+03
  5.51998E+02 -1.59634E+04  3.20823E+03 -1.18205E+04  1.09000E+04 -1.23075E+03  1.57694E+03  4.52621E+03
 -4.55162E+03 -8.65353E+02 -2.90923E+03 -1.39682E+03  1.58882E+03 -1.26323E+04  8.33719E+03 -9.62474E+03
  1.04988E+04 -5.14500E+03  1.10257E+04  1.58197E+03  8.04786E+03  1.06984E+04  2.98176E+03  1.38071E+04
 -2.64441E+03  1.30861E+04 -1.16358E+04  9.45438E+03 -1.24720E+04  8.26742E+02 -7.83841E+03  1.91684E+03
 -2.03492E+03 -8.74259E+03  5.76962E+02  1.34976E+03 -2.85317E+03  3.02780E+03 -1.91591E+03  9.68818E+02
 -3.44559E+03 -3.88873E+03 -8.77721E+03 -8.27094E+03 -4.83582E+03 -1.44368E+04  2.41771E+03 -8.91428E+03
  5.31678E+03 -2.39923E+02  7.05698E+03  2.74166E+02  6.26871E+02  1.77153E+02 -4.30302E+03  1.33619E+03
 -2.85098E+03 -2.14777E+03 -2.03672E+03 -8.49668E+03  2.19846E+03 -5.84773E+03  1.05885E+04 -3.59420E+03
  1.30667E+04 -1.37154E+03  7.92877E+03  5.91377E+03  5.06960E+03  7.02470E+03 -7.19668E+03  5.40310E+03
 -6.55508E+03  4.05780E+03 -4.23778E+03 -3.12494E+03 -2.10662E+02 -8.61587E+02  4.26602E+03 -6.45061E+03
  4.80975E+03  4.83322E+03  1.53422E+03  2.65473E+03 -3.33574E+03  8.90373E+03 -7.60724E+03  2.05250E+03
 -3.66218E+03 -1.64587E+03  2.36912E+03 -5.89971E+03  4.57538E+02 -4.38336E+03 -9.05785E+02  1.14698E+03
  2.52194E+03  4.12403E+03 -4.96022E+03  9.94057E+03 -6.69190E+03  2.72671E+03 -5.70583E+03 -4.81497E+03
 -3.94227E+03 -8.99106E+03 -3.22212E+02 -6.75372E+03  6.34803E+03 -1.75898E+03  8.65794E+03 -1.13907E+02
  4.70246E+03  2.99792E+03 -4.25110E+03  6.82387E+03 -7.75809E+03 -3.34761E+02 -7.02815E+03  4.48142E+02
 -9.42609E+03 -1.24644E+03 -5.46221E+03 -6.94058E+03  6.52969E+02 -6.27183E+03  4.15950E+03 -3.02792E+03
  2.84105E+03  4.63755E+03  1.66612E+03  4.71074E+03  4.54068E+03  1.82150E+03  1.76395E+03  3.27830E+02
  2.62037E+02 -9.74273E+02  7.20133E+03 -3.67279E+03  2.67338E+03 -1.24354E+03  6.26411E+03  6.16651E+03
 -2.94922E+03  1.37883E+04 -9.30645E+03 -1.96568E+03 -8.05388E+03 -1.40043E+03 -7.05792E+03  4.25863E+02
 -3.06110E+03 -2.84553E+03 -1.45102E+03 -5.97248E+03  3.65575E+02 -4.45743E+03 -3.03385E+03 -5.17531E+03
  4.16669E+03 -6.97159E+02 -7.82240E+02  2.36326E+02  4.52432E+03  2.41791E+02  3.13210E+03  2.10496E+03
  3.75245E+03 -8.96944E+02 -1.14410E+03 -3.40623E+03 -5.74995E+02  5.00605E+03 -6.31585E+02  9.73134E+02
 -9.79509E+03 -3.72003E+03 -3.87983E+03 -4.88972E+03 -1.91930E+03 -5.79135E+03  8.92522E+02 -3.99032E+03
  5.20996E+03 -1.04958E+03  2.93354E+03  1.14271E+03  3.13717E+03 -2.12718E+03  1.76903E+03  4.58879E+03
 -1.17351E+03  3.81427E+03 -5.19474E+03  3.32254E+03 -1.84610E+03  4.46108E+03  7.00156E+02 -2.22231E+03
  1.49410E+03  1.22995E+03  7.25397E+02  9.03268E+02 -2.67410E+02 -6.34520E+02 -5.64737E+03 -2.77947E+03
 -5.64396E+03 -6.84706E+02 -8.51975E+02 -6.27623E+03  3.60605E+03 -1.05371E+03  3.25167E+03  4.85742E+03
  2.11363E+03  1.46159E+03 -4.11475E+02  4.22790E+03  4.31063E+03  2.84082E+03 -1.58602E+03  3.86155E+03
 -3.46204E+03  1.07138E+03 -1.43185E+03 -1.40821E+03  7.43826E+02 -2.90725E+03  3.42272E+02 -7.58977E+03
  7.31992E+02 -1.30639E+03 -8.81208E+02  1.14341E+03  3.90535E+02  2.19284E+03 -1.28790E+02  1.99714E+03
  3.80991E+03  2.99443E+02  4.77517E+03  3.93559E+03 -1.82989E+03  6.47110E+03  1.22646E+03  3.09423E+03
 -3.51859E+03 -8.72323E+01 -4.53486E+03  4.46785E+03 -7.91555E+03 -3.46680E+03 -3.26758E+03 -1.60398E+03
  4.69438E+02 -1.51680E+03  2.36409E+03 -3.49596E+03  4.79971E+03  9.79747E+02  5.49496E+03 -2.94994E+03
  3.00192E+02  2.46857E+03 -1.61128E+03 -2.33268E+03 -3.36567E+03  1.41306E+02 -1.35642E+03  4.98622E+02
 -1.17536E+03  3.29105E+03  2.72676E+03 -1.53153E+03  6.48300E+02 -2.14750E+03  1.68213E+03  1.61133E+03
 -5.44784E+02 -8.66257E+02  2.40980E+03 -3.20948E+03 -1.85305E+03 -1.17637E+03  2.12777E+02 -1.92885E+03
 -1.25021E+03 -3.94644E+03  2.76456E+03  1.95437E+03 -3.55779E+03 -3.91899E+02 -6.72566E+02  2.58795E+03
  5.67405E+02 -9.29590E+02 -5.16016E+03  5.76170E+03 -3.20882E+03 -1.33033E+03  4.04997E+03 -3.12524E+03
  4.71302E+02  9.00229E+02  5.39522E+03  4.16271E+01  1.97736E+03 -1.82205E+03  2.30893E+03  6.75523E+02
 -4.74740E+02 -2.27215E+03 -1.62385E+02  1.75758E+03 -5.22734E+03 -2.71258E+01  2.41231E+03 -1.21884E+03
 -2.02902E+02  1.15939E+03  2.98393E+03 -3.42717E+03  1.59158E+03 -5.24234E+03  3.22684E+03  2.43277E+03
  4.37757E+02 -1.78372E+03 -4.85630E+02 -6.42144E+02  4.40335E+03 -1.13389E+03  1.86993E+03 -1.46046E+03
  4.85190E+03  2.29093E+03 -2.11270E+03 -2.36788E+03  7.57040E+03 -1.72612E+03  1.29566E+03 -8.16933E+02
 -1.56153E+02  1.91554E+03 -2.31764E+03  1.80479E+03 -1.64172E+03 -1.21849E+03  1.46730E+03 -2.75444E+03
  4.60027E+02  1.58697E+01 -1.76236E+03  3.46107E+03 -2.08335E+03  8.59526E+02 -1.40488E+03  1.95778E+03
  2.52269E+03 -1.68904E+03  4.12490E+02  7.32166E+02 -6.75663E+02  1.22694E+03 -8.11451E+02  1.76361E+03
  5.50758E+02  4.68626E+03 -2.85847E+03 -2.14037E+02 -5.60568E+02  3.76431E+03 -7.88078E+02 -1.22664E+03
  1.57175E+03 -6.30505E+02  6.41634E+02 -7.66304E+02  1.97716E+03 -1.36359E+02  5.19828E+03 -2.80649E+02
  6.62050E+02 -2.57014E+03  1.31547E+03  7.50344E+03 -2.10009E+03  3.23133E+03 -3.93073E+03  3.99944E+03
 -3.82697E+03 -2.73691E+03 -6.13872E+01  2.08629E+03 -4.21648E+03 -3.54449E+03  1.00197E+02 -3.70536E+02
  1.78852E+03 -1.98392E+03 -3.95479E+03 -2.53945E+03 -1.98369E+03  1.00152E+03 -2.59029E+03 -1.35535E+03
  1.21164E+03  1.48749E+03  2.52387E+03 -3.74084E+02 -1.14648E+03  2.26678E+03  2.23123E+03  1.90237E+03
  3.00385E+03 -1.35097E+03 -1.74212E+03  7.62754E+02 -7.17729E+02 -1.64249E+03 -3.90046E+03  1.36535E+03
 -2.27179E+03 -1.58072E+03 -1.92403E+02  1.13826E+03  2.93137E+02 -1.95474E+03 -6.81818E+03 -5.80719E+02
  3.01721E+02  2.72675E+03 -2.68624E+03 -4.11796E+03 -1.54423E+03 -6.07120E+02 -4.27140E+03 -2.79140E+03
  3.55362E+02  2.34561E+03 -3.53582E+03  5.27316E+02  7.26807E+01  1.39454E+03 -4.88503E+03  3.89971E+03
 -4.47117E+01  1.58957E+03  1.94159E+03 -1.83008E+03 -1.72619E+03 -7.52723E+01  3.19989E+03  9.99181E+02
  5.36367E+02  1.68899E+03 -1.97174E+03  6.14879E+02 -1.45897E+02 -2.41095E+03  3.03406E+03 -1.02692E+03
  2.74965E+03  2.36688E+03  2.54475E+03  3.02866E+02  2.72050E+03  1.23666E+03 -3.61531E+03  1.90516E+03
  4.59242E+02  1.98259E+03 -6.54560E+02  3.84838E+03 -2.55101E+03 -1.48847E+03  9.44322E+02 -1.33695E+03
 -3.94727E+03  1.37771E+03  2.91561E+03 -7.94686E+02  4.83652E+03 -4.94107E+03 -1.85058E+03  1.69519E+02
  2.92879E+03 -1.21825E+03  2.94868E+03 -3.56035E+03  8.79268E+02 -7.66429E+00  1.98149E+03  5.95038E+02
