 $NMID ID='MM_0lb_SNR50_7hz_g60_12.RAW', FMTDAT='(8E13.5)'
 TRAMP=1., VOLUME=1. $END
  3.15488E+05  4.96159E+03  3.38748E+05  2.42197E+05  8.34746E+04  3.42390E+05 -1.36849E+05  2.52579E+05
 -1.90305E+05  8.40433E+04 -1.17445E+05 -3.89543E+04 -3.33455E+03 -5.16139E+04  5.79119E+04  2.42996E+03
  3.96670E+04  5.04847E+04 -1.50540E+04  7.90229E+04 -6.29621E+04  6.49167E+04 -8.71695E+04  3.24356E+04
 -8.81658E+04 -3.49875E+03 -5.86725E+04 -6.06358E+04 -2.50928E+04 -6.74711E+04  2.84124E+04 -4.74314E+04
  4.41504E+04  4.74665E+02  1.72170E+04  5.06129E+04 -3.16507E+04  4.66601E+04 -7.35174E+04  1.73740E+03
 -5.55292E+04 -6.18161E+04 -4.58363E+03 -7.89771E+04  3.02758E+04 -5.62077E+04  5.00919E+04 -2.02911E+04
  4.54021E+04  1.61692E+04  2.93114E+04  2.46456E+04  6.82102E+03  3.47054E+04 -4.02195E+03  1.89832E+04
 -1.71677E+04  1.15202E+04 -1.53961E+04 -1.02267E+04  9.04122E+03 -9.36702E+03  1.88657E+04  4.92687E+03
  4.73974E+03  4.40290E+04 -3.14707E+04  3.94806E+04 -6.61752E+04 -9.61993E+02 -5.91204E+04 -4.17214E+04
 -1.53931E+04 -6.33081E+04  4.49051E+04 -5.52143E+04  6.46432E+04  4.98127E+03  3.99731E+04  3.75924E+04
 -1.10414E+04  4.13749E+04 -3.86617E+04  2.54949E+04 -4.18940E+04 -6.53581E+02 -1.93621E+04 -1.69070E+04
 -1.40114E+04 -2.09092E+04  3.13792E+03 -1.71247E+04  1.18792E+04 -1.84814E+04  1.69272E+04 -1.15180E+04
  1.27415E+04  5.47141E+03 -1.65815E+04  1.55440E+04 -3.31986E+04 -1.38125E+04 -3.59240E+03 -4.38118E+04
  2.88532E+04 -5.83284E+04  5.62462E+04 -1.89928E+04  4.68587E+04  2.02061E+04  1.54561E+04  4.72580E+04
 -2.28214E+04  3.22864E+04 -3.29917E+04  9.66776E+02 -2.32724E+04 -3.44489E+04  1.79354E+04 -4.01850E+04
  4.08619E+04 -1.31959E+04  4.87825E+04  2.48098E+04  1.93557E+04  5.56173E+04 -6.47129E+03  5.99331E+04
 -4.15642E+04  4.03941E+04 -5.38392E+04  1.25115E+04 -5.24210E+04 -2.01853E+04 -3.27429E+04 -4.28919E+04
  1.01969E+04 -5.29769E+04  3.95565E+04 -1.68165E+04  3.86197E+04  1.41850E+04  6.06963E+03  2.29674E+04
 -1.47314E+04  1.31587E+04 -3.01132E+03 -1.56890E+04  8.40647E+03 -1.59982E+04  2.02095E+04  1.83034E+03
  1.56390E+04  2.54915E+04 -4.00068E+03  2.49015E+04 -2.45107E+04  2.03691E+04 -3.23521E+04 -2.80554E+03
 -3.37931E+04 -1.33664E+04 -1.04823E+04 -1.84281E+04  6.61454E+03 -3.16648E+04  1.60810E+04 -2.21359E+04
  3.68350E+04 -2.11216E+04  4.47816E+04  5.92713E+03  3.19803E+04  3.11615E+04 -2.57982E+02  4.26118E+04
 -2.40081E+04  3.11640E+04 -3.59259E+04  1.65453E+04 -2.58650E+04 -9.09037E+03 -5.05601E+03 -7.51137E+03
 -1.12057E+03  6.88158E+02 -7.84076E+03  4.26858E+03 -2.02384E+04  8.64951E+03 -3.09928E+04 -7.90355E+03
 -1.21479E+04 -2.54533E+04  6.51865E+03 -3.81741E+04  2.69167E+04 -2.39750E+04  2.42111E+04 -6.59732E+03
  1.11866E+04  1.97038E+04 -1.88689E+03  2.48268E+04 -1.77367E+04  1.23050E+04 -2.46505E+04 -1.00409E+03
 -1.75610E+04 -2.36387E+04 -5.24270E+03 -3.24502E+04  1.95429E+04 -2.75163E+04  3.43640E+04 -2.35047E+04
  2.17422E+04  1.91457E+03  2.06007E+04  2.15872E+03  7.98583E+03  1.02835E+03  1.70831E+04  1.07599E+04
  1.51039E+04 -1.95637E+03  3.17673E+04  2.02207E+04  2.10276E+04  4.35924E+04 -3.54973E+03  4.21399E+04
 -3.34081E+04  4.87072E+04 -4.63753E+04  1.40446E+04 -5.33707E+04  2.60040E+02 -3.92149E+04 -3.22013E+04
 -8.13064E+03 -4.46111E+04  1.71518E+04 -3.12726E+04  2.92864E+04 -1.53316E+04  2.22427E+04  1.32997E+04
  1.87432E+04  1.69189E+04 -1.48732E+04  1.37104E+04 -2.85036E+04 -5.12665E+03 -1.77547E+04 -1.51079E+04
 -1.54891E+03 -1.84685E+04  1.38571E+04 -1.80884E+04  1.31364E+04 -3.31083E+03  1.11896E+04  1.30880E+04
  3.14503E+01 -2.79977E+03 -1.02750E+04 -3.66888E+02 -6.14845E+03 -1.80916E+04  1.13338E+04 -3.11359E+04
  2.96048E+04 -1.33926E+04  3.40208E+04 -5.58595E+03  2.42799E+04  2.52919E+04  1.52418E+04  2.89588E+04
 -4.56327E+03  3.11435E+04 -2.17961E+04  1.34207E+04 -2.82554E+04  2.71259E+03 -1.43896E+04 -1.57742E+04
  7.28887E+03 -1.20396E+04  7.67317E+02 -1.07528E+03 -1.33390E+04  1.05468E+04 -6.60924E+03  7.58802E+03
 -1.27946E+04  1.92379E+03 -1.19658E+04 -9.37305E+03 -2.17642E+03 -2.60658E+04  7.88470E+03 -1.63838E+04
  1.05837E+04 -1.14230E+04  8.11665E+03 -2.63316E+02  6.67144E+03  7.09286E+03 -8.45545E+03 -4.85449E+03
 -1.02792E+04 -1.55555E+04  3.41759E+03 -1.96197E+04  1.40520E+04 -2.09135E+04  2.78634E+04 -1.96748E+04
  3.18316E+04  3.41997E+03  1.68044E+04  2.22822E+04  1.37657E+04  1.96102E+04 -1.33186E+04  1.76072E+04
 -1.62526E+04  5.18353E+03 -5.30936E+03 -6.32731E+03 -9.85134E+02 -2.90393E+03  1.17465E+04  2.31330E+03
  1.65746E+04  1.82853E+04  2.89644E+03  1.18582E+04 -8.41693E+03  1.37844E+04 -2.69927E+04  7.71344E+03
 -1.37988E+04 -1.51146E+04 -4.34781E+03 -1.64401E+04  9.17130E+03 -7.42559E+03  8.79418E+03  5.53840E+03
  1.88253E+03  1.68621E+04 -6.79142E+03  1.34298E+04 -2.01378E+04  6.58754E+03 -1.93486E+04 -7.93053E+03
 -3.52804E+03 -2.90853E+04  2.11792E+03 -1.62343E+04  2.20164E+04 -1.66633E+04  2.44728E+04  5.73178E+03
  1.59728E+04  2.27560E+04 -2.04465E+03  1.76925E+04 -1.55473E+04  5.31172E+03 -1.52895E+04  3.41315E+03
 -6.79737E+03 -8.20213E+03 -1.01065E+03 -1.91206E+04  8.18843E+03 -1.30206E+04  7.80723E+03 -7.87069E+03
  9.03678E+03 -1.38820E+01 -4.97773E+02 -1.64790E+03  1.48759E+03 -4.83172E+03 -4.15256E+03 -8.32275E+03
  2.38349E+04  2.27062E+03  1.60067E+04 -1.70197E+02  1.98579E+04  1.24823E+04  1.38191E+04  1.96483E+04
 -6.69840E+03  3.11287E+04 -1.95885E+04  1.37230E+04 -2.98537E+04  9.27226E+03 -2.88157E+04 -1.25298E+04
 -1.58813E+04 -2.76560E+04 -8.61130E+02 -1.47988E+04  1.14520E+04 -1.29895E+04  1.97822E+03 -1.31463E+04
  4.83356E+03  6.51495E+03  1.84784E+03  8.81740E+03  7.16488E+03 -1.08897E+04  1.12748E+04 -3.94704E+03
  9.98988E+03  7.86285E+03  6.66899E+03  1.42183E+04 -8.85903E+03  1.78954E+04 -9.48378E+03  1.51507E+04
 -2.05035E+04  3.82875E+03 -1.95903E+04 -1.52107E+04 -1.05981E+03 -2.20075E+04  6.00920E+03 -2.17282E+04
  2.63716E+04 -1.38262E+04  2.41896E+04 -1.67071E+03  2.36673E+04  2.68438E+04 -8.18128E+02  2.31274E+04
 -1.03911E+04  2.49923E+04 -1.49989E+04  5.51631E+03 -1.24297E+04 -8.82481E+03 -1.26367E+03 -3.34362E+03
 -3.85000E+03  5.53983E+03 -3.60415E+03 -2.64023E+03 -6.71238E+03  4.54276E+03 -9.06961E+03 -1.34551E+03
 -7.30028E+03 -1.45983E+04 -7.90078E+03 -1.45914E+04  7.55095E+03 -8.17439E+03  1.29275E+04 -1.19744E+04
  1.45645E+04  7.77420E+03  2.84698E+03  2.25583E+04 -4.87675E+03  1.50235E+04 -1.30541E+04  2.11034E+04
 -1.49113E+04  7.10163E+03 -1.04148E+04 -1.05155E+04 -7.23771E+02 -1.84595E+04  1.28765E+03 -1.17316E+04
  1.18175E+04 -4.73081E+03  1.04038E+04 -1.74534E+03  4.66855E+03  8.94136E+03  6.99925E+03  4.52666E+02
  4.07512E+03  7.11774E+03  2.28472E+03  2.59461E+03  4.79754E+03  6.01554E+03  8.75762E+03  1.41889E+04
 -1.62754E+03  1.31005E+04 -1.03629E+04  2.02624E+04 -1.71896E+04  1.86603E+03 -2.12612E+04 -5.64980E+03
 -1.71188E+04 -1.66301E+04 -5.80363E+02 -2.69663E+04  1.27422E+04 -1.48847E+04  1.08348E+04 -9.61658E+03
  9.45890E+03  5.20321E+03  1.15211E+04  1.75278E+04 -3.41678E+03  9.19905E+03 -1.14600E+04 -1.88089E+02
 -9.56960E+03 -1.49423E+04  7.21844E+03 -1.40235E+04  7.55008E+03 -6.02881E+03  4.81122E+03 -3.14991E+03
  5.03199E+03  3.66259E+03  3.85486E+03 -9.62604E+02 -3.01387E+03  9.89485E+02  4.37578E+03  2.87592E+03
 -6.66414E+03 -1.11727E+04  1.19453E+04  1.65260E+03  7.17013E+03  1.20871E+04 -2.32552E+03  7.84689E+03
 -1.40036E+04  1.32419E+04 -1.37907E+04  8.04526E+03 -2.10554E+04 -7.47849E+02 -1.12798E+03 -7.41642E+03
  7.56559E+03 -9.66745E+03  2.48521E+03 -2.80110E+03  2.04118E+03  2.23772E+03 -6.06217E+01  1.48447E+04
 -9.82932E+03  5.56992E+03 -1.49762E+04 -1.44352E+03 -7.47457E+03 -6.27979E+03 -2.23911E+03 -1.03701E+04
  9.73108E+03 -5.04970E+03  5.47928E+03 -3.97658E+03  1.11775E+04  4.88285E+03  2.41110E+03  9.27174E+03
 -3.55399E+03  9.00533E+02  1.08345E+03 -1.53578E+04  6.57512E+03 -1.33353E+04  1.27588E+04  6.64156E+03
  9.68301E+03  3.17529E+03  1.19431E+04  9.76111E+03 -4.50374E+03  2.22360E+04 -7.30276E+03  1.37104E+04
 -1.06404E+04  4.72029E+03 -1.62911E+04 -6.82128E+03 -1.00407E+04 -1.49808E+04  2.03694E+03 -7.47222E+03
  7.14337E+03 -6.51361E+03  1.30798E+04  6.43265E+03 -3.31556E+03  7.17387E+03  2.94414E+03  7.30225E+03
 -5.10514E+03  6.13180E+03  4.28414E+02  3.31672E+03 -3.25785E+02 -4.67696E+03  5.43247E+01  8.43520E+02
 -1.57800E+03  4.61240E+03 -6.16795E+03  7.99666E+03 -1.45443E+04 -3.49099E+03 -2.43224E+04 -1.45495E+04
 -1.19933E+04 -1.14097E+04  1.26482E+04 -2.83247E+04  1.18575E+04 -2.05838E+04  2.46109E+04 -1.31209E+04
  1.12074E+04  6.99243E+03  1.17224E+04  2.05205E+04  4.06085E+03  1.35811E+04 -1.47928E+04  1.10041E+04
 -8.17215E+03 -5.53032E+03 -5.55882E+03 -3.87473E+03 -3.77171E+03 -5.42609E+02 -3.60637E+03 -4.40052E+02
 -1.24785E+03 -2.75169E+03 -6.50433E+03 -7.83818E+03  1.72414E+03 -1.16417E+04  4.14287E+03 -2.23041E+03
  9.27260E+03  4.71150E+03  1.61643E+04 -8.32631E+03  1.27701E+04  1.02487E+04  7.66494E+03  1.81866E+04
 -5.31747E+03  1.91535E+04 -1.26718E+04  6.90398E+02 -1.55147E+04 -2.37275E+02 -1.54653E+04 -9.80169E+03
 -5.97900E+03 -1.68537E+04 -5.43918E+03 -2.32076E+04  1.08568E+04 -2.15313E+04  1.07351E+04  1.95404E+03
  3.74192E+03  2.97399E+03 -4.99776E+03  1.25206E+04 -4.13256E+03  3.40984E+03  6.56216E+03 -3.59084E+03
 -5.76433E+02 -5.31842E+03  6.60367E+03  1.14102E+03  5.57680E+03  8.42906E+03 -3.09278E+03  3.44723E+03
 -6.17279E+03  1.12692E+04 -9.41838E+03  2.48730E+03 -8.44335E+03 -6.23741E+03 -2.61329E+02 -1.76834E+04
  1.41436E+03 -1.14895E+04  1.34457E+04 -1.19457E+04  1.50762E+04  1.28189E+04  8.79875E+03  1.53786E+04
 -7.34187E+03  1.48877E+04 -4.06572E+03  6.45624E+03  8.08353E+01  8.08893E+03 -8.25243E+03  1.49356E+03
 -3.96883E+03 -7.03605E+02  4.23152E+02 -2.41567E+03 -1.44735E+04 -5.83772E+03  2.86366E+02  3.44553E+03
 -1.36151E+04 -7.18011E+03 -4.79016E+03 -8.61148E+03  9.16847E+03 -9.99220E+03  9.59356E+03 -7.83736E+03
  6.89622E+03  3.08324E+03  1.13619E+04  1.52156E+04  2.54691E+03  8.63828E+03 -1.59420E+04  3.23712E+03
