 $NMID ID='MM_0lb_SNR50_9hz_g55_97.RAW', FMTDAT='(8E13.5)'
 TRAMP=1., VOLUME=1. $END
  3.06185E+05  3.17649E+03  3.39783E+05  2.44835E+05  7.51056E+04  3.37622E+05 -1.30617E+05  2.48030E+05
 -1.90793E+05  8.52321E+04 -1.14203E+05 -3.76907E+04 -9.02044E+02 -5.03282E+04  5.26996E+04 -7.98171E+02
  3.68682E+04  5.72536E+04 -2.04718E+04  8.12695E+04 -5.67451E+04  5.98361E+04 -8.80730E+04  2.78344E+04
 -8.01384E+04 -1.41158E+04 -6.11047E+04 -5.48801E+04 -1.65189E+04 -7.04725E+04  3.48332E+04 -4.05387E+04
  4.45226E+04  4.79781E+03  1.65592E+04  4.17353E+04 -2.97732E+04  4.67362E+04 -6.53925E+04  1.02936E+02
 -5.01910E+04 -6.05409E+04 -1.22003E+04 -7.41351E+04  3.58206E+04 -5.50395E+04  5.16236E+04 -2.23518E+04
  4.99454E+04  1.52054E+04  3.23770E+04  2.79797E+04  1.20401E+04  2.57575E+04  2.56642E+02  3.04883E+04
 -2.09346E+04  1.21720E+04 -1.80675E+04 -8.10145E+03  1.12963E+04 -9.00021E+03  1.68559E+04  1.28084E+04
 -1.32460E+02  3.57965E+04 -2.81609E+04  4.06198E+04 -6.68753E+04  2.92860E+03 -5.68722E+04 -4.42236E+04
 -1.58074E+04 -6.62057E+04  4.21223E+04 -4.41045E+04  6.10302E+04 -3.89333E+03  3.09622E+04  3.08046E+04
 -7.89656E+03  4.70070E+04 -3.18095E+04  1.35298E+04 -3.39722E+04  1.36845E+02 -1.59586E+04 -8.30707E+03
 -1.44883E+04 -1.54526E+04 -2.21273E+02 -2.29434E+04  1.51871E+04 -2.64569E+04  1.59957E+04 -1.71893E+04
  1.12521E+04  6.52679E+03 -1.34189E+04  1.28058E+04 -2.61435E+04 -1.02138E+04 -5.63575E+03 -4.11776E+04
  2.01052E+04 -5.35062E+04  5.43403E+04 -2.56322E+04  5.11072E+04  2.48420E+04  1.78718E+04  4.36809E+04
 -2.11071E+04  3.88285E+04 -2.41373E+04 -1.88559E+03 -9.73349E+03 -2.82860E+04  2.18381E+04 -2.95460E+04
  3.91906E+04 -1.15297E+04  3.85360E+04  2.37624E+04  2.01221E+04  5.45824E+04 -1.02321E+04  5.59957E+04
 -3.97311E+04  4.04705E+04 -4.76363E+04  8.73535E+03 -4.80990E+04 -1.76949E+04 -2.79879E+04 -3.99452E+04
  8.20557E+03 -3.68806E+04  3.42709E+04 -2.11038E+04  3.81733E+04  1.27662E+04  1.50518E+03  1.79051E+04
 -2.06048E+04  1.18797E+04 -1.22557E+04 -1.32724E+04  5.57844E+03 -1.79938E+04  2.42596E+04  1.51686E+04
  1.87549E+04  2.15832E+04 -6.88408E+03  2.63309E+04 -2.27516E+04  1.58565E+04 -3.33264E+04 -2.68151E+03
 -2.55413E+04 -1.40283E+04 -1.59831E+04 -2.36515E+04 -1.53444E+03 -2.21926E+04  2.10600E+04 -2.31804E+04
  2.81276E+04 -2.32193E+04  4.06083E+04  5.70235E+03  3.03829E+04  3.30393E+04  7.97771E+03  4.42642E+04
 -2.34635E+04  3.55413E+04 -3.53746E+04  8.00168E+03 -2.80694E+04 -1.18649E+04 -4.42360E+03 -1.28252E+04
 -1.31732E+03  3.67278E+02 -5.26812E+03  6.38793E+03 -1.69925E+04 -2.27382E+03 -2.25663E+04 -3.65326E+03
 -8.11189E+03 -2.81715E+04  8.11503E+03 -2.56506E+04  1.78476E+04 -1.98029E+04  2.59041E+04 -2.79015E+03
  1.50465E+04  1.08407E+04  1.19025E+03  2.77101E+04 -1.68588E+04  1.39589E+04 -2.29323E+04 -3.79110E+03
 -1.54781E+04 -2.35538E+04 -1.01053E+03 -3.37332E+04  1.47643E+04 -2.81095E+04  1.90044E+04 -8.50931E+03
  2.76495E+04 -9.76967E+02  1.83336E+04  7.65142E+03  6.75299E+03  4.46388E+03  7.81496E+03 -2.46726E+02
  2.31976E+04  2.59650E+03  3.09345E+04  2.22460E+04  1.70484E+04  4.00339E+04 -3.18967E+03  4.26748E+04
 -2.25472E+04  4.08243E+04 -4.35021E+04  1.71524E+04 -4.97775E+04 -6.58976E+02 -3.79201E+04 -3.04117E+04
 -9.42872E+03 -3.02069E+04  1.45917E+04 -3.57967E+04  3.02563E+04 -1.64824E+04  2.30164E+04  1.34738E+04
  8.65198E+03  1.94244E+04 -3.94088E+03  2.17101E+04 -1.77573E+04  5.28852E+02 -1.75957E+04 -1.38363E+04
 -2.28871E+03 -1.90769E+04  7.53467E+03 -1.95237E+04  1.05091E+04  5.82693E+03 -9.52697E+01  1.13020E+04
 -8.56008E+03  3.47685E+03 -8.56922E+03 -1.01091E+04  7.09134E+02 -1.57675E+04  1.57171E+04 -2.32661E+04
  2.58305E+04 -7.77457E+03  2.50035E+04 -1.46530E+03  2.20996E+04  2.23358E+04  3.81703E+03  3.53017E+04
 -1.04139E+04  3.34762E+04 -2.44854E+04  1.73232E+04 -2.23230E+04  2.33081E+03 -1.64587E+04 -3.60000E+03
 -5.27541E+03 -8.49264E+03 -2.26316E+03 -7.51065E+03 -1.68693E+03  3.94855E+03 -1.18748E+04  3.25917E+03
 -1.06624E+04 -8.09485E+03 -1.56689E+04 -1.13520E+04 -7.75718E+03 -1.73999E+04  6.82179E+03 -1.45214E+04
  8.25413E+03 -7.46262E+03  1.38151E+04  8.91475E+03  2.69756E+03  9.22783E+03 -9.50215E+03 -3.07220E+03
 -1.62953E+04 -5.06056E+03  3.24841E+02 -1.49221E+04  1.58467E+03 -2.28387E+04  1.71854E+04 -9.22477E+03
  2.92063E+04  4.14630E+03  2.18025E+04  1.11136E+04  4.93520E+03  1.52907E+04 -4.44720E+03  1.52602E+04
 -1.57231E+04  6.60030E+03 -5.01427E+03 -2.25284E+03 -2.47803E+03 -1.37157E+04  8.23151E+03 -6.36624E+02
  5.89610E+03  5.29415E+03  4.50405E+03  1.43079E+04 -3.58505E+03  1.86671E+04 -1.30231E+04  4.20653E+03
 -1.54729E+04 -1.02992E+04 -3.89004E+03 -1.28659E+04  1.26768E+04 -1.11160E+04  8.10251E+03  2.31647E+03
  2.20619E+03  1.17159E+04 -6.40747E+03  8.43721E+03 -1.07274E+04  8.62883E+03 -1.47840E+04 -9.73091E+03
 -1.20049E+04 -1.64773E+04  5.02316E+03 -1.29852E+04  1.44138E+04 -7.68838E+03  1.46080E+04  6.55513E+03
  7.28733E+03  8.43984E+03 -6.76554E+03  1.48589E+04 -1.51301E+04  7.62996E+03 -1.10602E+04 -1.90060E+03
 -1.13851E+04 -3.55417E+03  1.53583E+03 -1.50411E+04  6.75581E+03 -9.78022E+03  1.11050E+04 -1.29601E+03
  1.05273E+03  2.31855E+03 -1.87490E+03  1.88058E+03 -2.31833E+03 -4.48085E+03 -9.36519E+01 -6.92839E+03
  7.45439E+03 -8.62138E+03  7.71007E+03 -1.36286E+03  2.38524E+04  9.55030E+03  6.39946E+03  2.45208E+04
 -4.07808E+03  1.92373E+04 -2.10252E+04  2.10529E+04 -2.76101E+04  7.10072E+03 -2.11747E+04 -1.41722E+04
 -1.01937E+04 -1.55858E+04 -2.15257E+02 -1.17144E+04  1.15665E+04 -7.22321E+03  1.24979E+04 -1.15380E+04
  1.51294E+04 -2.44535E+03  4.07517E+03 -6.67878E+03  5.69687E+03 -2.90852E+03  1.04491E+04 -1.91270E+03
  6.66103E+03 -2.72018E+03  8.32990E+03  1.39698E+04 -5.35898E+02  1.11069E+04 -1.06744E+04  1.23468E+04
 -1.93676E+04 -6.61507E+03 -1.10899E+04 -8.43169E+03 -2.89312E+03 -1.34174E+04  1.25838E+04 -1.36926E+04
  1.72765E+04 -1.03664E+04  1.68567E+04  7.76133E+03  1.61804E+04  9.29629E+03  4.34295E+02  2.45362E+04
 -8.58352E+03  1.71511E+04 -1.18388E+04  4.82831E+03 -9.07240E+03 -5.59383E+03 -4.39040E+03 -1.87799E+03
 -1.25799E+03 -1.20634E+03 -3.76052E+03 -4.58967E+02 -6.59508E+03  2.18902E+02 -9.02390E+03 -2.74351E+03
 -8.98884E+03 -7.71461E+03 -2.01186E+03 -1.91740E+04  1.21478E+04 -1.53502E+04  1.37871E+04 -4.61232E+03
  1.18707E+04  9.05104E+03  1.05785E+04  1.37605E+04 -5.77930E+03  1.47892E+04 -1.40917E+04  6.76336E+03
 -1.47145E+04  5.85440E+03 -9.48239E+03 -5.68264E+03  8.71720E+03 -1.22732E+04  1.10739E+04 -1.12440E+04
  9.25874E+03 -2.52709E+03 -6.51868E+02  1.82626E+03  2.27431E+02  5.26680E+03 -8.37573E+02  4.52747E+03
  7.22656E+02  4.32935E+02 -1.80551E+02 -4.09482E+03  6.99009E+03  7.24622E+03  1.03183E+03  9.09170E+03
  2.06091E+03  7.49902E+03 -5.91778E+03  1.55279E+04 -1.98083E+04  4.24762E+03 -1.76181E+04 -1.07568E+04
 -5.24693E+03 -1.37802E+04  1.18210E+04 -1.63689E+04  6.70503E+03 -1.64489E+04  1.25973E+04 -2.13181E+03
  1.46410E+04  8.58879E+03 -1.69456E+02  6.52761E+03 -3.01273E+03  5.07230E+03 -5.94633E+03  1.70392E+03
 -8.06931E+03 -3.73973E+03  5.46440E+03  1.07558E+03  6.74239E+03  9.87282E+02  6.07435E+03 -6.77791E+02
 -6.46590E+02 -1.24886E+03 -5.86920E+03 -2.05362E+03  4.08550E+03  2.84189E+01 -4.07765E+03 -2.38006E+03
  2.06779E+03 -5.79792E+03  9.67773E+03 -1.02784E+03  9.60216E+02  1.07980E+04 -7.25557E+03  1.48366E+04
 -6.78403E+03  6.59974E+03 -6.23908E+03  2.76801E+03 -1.44328E+04 -7.84013E+03 -8.49792E+02 -3.02445E+03
  6.95941E+03 -3.64751E+02  4.85542E+03 -3.62791E+03 -8.50857E+02  5.83175E+03 -2.06721E+03  2.30021E+03
 -6.04592E+03  7.20348E+03 -9.60666E+03 -1.90136E+03 -1.14439E+04 -7.08472E+03 -1.51714E+03 -3.85842E+03
  5.90050E+03 -1.04343E+03  4.13532E+03  3.09349E+03  8.33348E+03  4.15106E+03  8.06092E+02  1.11057E+04
 -6.37572E+03  1.60518E+03 -4.34935E+03 -4.46755E+03 -3.96290E+03 -6.90071E+03  1.02906E+04 -4.43289E+03
  1.16374E+04 -2.69693E+03  1.22631E+04  6.15301E+03  1.75734E+03  1.46093E+04  2.07544E+01  1.07763E+04
 -1.24342E+04  2.18302E+03 -1.00640E+04 -2.30339E+03 -3.63284E+03 -1.39690E+03  1.12068E+03 -1.04465E+04
  6.89797E+03 -4.33580E+03  1.16771E+04  3.41794E+03 -1.92520E+03  5.21218E+03 -1.69429E+03  3.59485E+03
 -1.30293E+02 -5.26714E+03 -1.59245E+03 -6.56575E+03 -2.51640E+03  4.42271E+03  4.48499E+03 -1.94701E+03
 -2.23835E+03  6.07749E+03 -6.26492E+03  6.49903E+02 -1.01409E+04  2.11010E+03 -1.71201E+04 -7.93014E+03
 -7.58329E+03 -1.88852E+04  6.67586E+03 -1.45479E+04  1.26449E+04 -1.32127E+04  1.77061E+04 -3.44097E+03
  1.23249E+04  1.30477E+03  1.19938E+04  1.18771E+04  9.37909E+03  6.14726E+03 -6.73151E+02  9.01249E+03
 -5.95401E+03  5.99756E+03 -6.68800E+03  1.51338E+03  9.98146E+02  2.42770E+03  1.73959E+03 -6.79677E+03
 -2.66372E+03 -5.71976E+02 -2.93135E+03  4.14861E+03  3.87154E+03  3.78657E+03  5.34676E+03 -5.26361E+03
  6.26724E+03 -1.95047E+03  5.26948E+03 -1.10006E+03  5.33370E+03  7.65799E+03  4.35697E+03  1.26402E+04
 -8.13367E+03  1.10196E+04 -8.84836E+03  3.44250E+03 -1.37289E+04 -1.50794E+03 -1.40171E+04 -1.28525E+04
 -9.74002E+03 -1.02254E+04 -1.84212E+03 -7.36195E+03  7.54808E+03 -4.47687E+03  7.96387E+03  2.96892E+03
  9.45858E+03 -4.52754E+02  5.88977E+02  1.87457E+03  3.06191E+03  5.30190E+03  9.01477E+02 -2.75688E+03
  1.34134E+04  5.71764E+02  3.54228E+03 -1.09569E+03 -5.43297E+02  7.33401E+03  6.06589E+03  1.35304E+04
 -2.24903E+03  1.10185E+04 -8.06126E+03  1.39293E+03 -1.41886E+04 -8.59383E+03 -5.13093E+03 -4.80212E+03
  5.57213E+03 -1.50331E+04  1.05861E+04 -5.34888E+03  1.15244E+04  1.39085E+03  1.53467E+03  5.31479E+03
 -2.68093E+03  9.93004E+03 -6.15457E+03  5.26659E+03 -6.54537E+03  5.92441E+03 -3.53290E+03  4.99590E+03
 -2.77829E+03 -5.42798E+03 -2.32032E+03 -2.89379E+03 -2.37036E+03 -2.14456E+03 -9.57958E+03  1.57938E+03
 -1.75315E+03 -2.14591E+03  3.22181E+03 -1.83182E+04 -4.49552E+02 -8.32184E+03  4.62574E+03  1.06584E+02
  4.18171E+03 -3.30084E+03 -1.74551E+03  8.06195E+03 -2.59615E+02  6.49363E+03 -3.39838E+03  2.29355E+03
