 $NMID ID='MM_0lb_SNR50_18hz_g55_91.RAW', FMTDAT='(8E13.5)'
 TRAMP=1., VOLUME=1. $END
  3.03618E+05  1.59165E+03  3.39935E+05  2.49157E+05  8.76581E+04  3.39710E+05 -1.28613E+05  2.50837E+05
 -1.90820E+05  8.35178E+04 -1.18373E+05 -2.87499E+04  2.45278E+03 -5.07155E+04  5.80380E+04  3.75707E+02
  3.66499E+04  5.32796E+04 -1.86928E+04  7.37421E+04 -6.22414E+04  6.17797E+04 -8.67135E+04  3.13824E+04
 -7.89071E+04 -1.47296E+04 -5.81656E+04 -5.01936E+04 -1.49727E+04 -7.00405E+04  2.43419E+04 -4.92801E+04
  4.20337E+04  4.50696E+03  1.52775E+04  4.81041E+04 -3.46529E+04  4.92827E+04 -6.78126E+04 -2.11616E+03
 -5.81871E+04 -5.33935E+04 -4.69393E+03 -7.50789E+04  3.39067E+04 -5.64384E+04  4.42695E+04 -1.52488E+04
  4.05571E+04  1.11928E+04  2.58306E+04  2.16884E+04  1.58260E+04  2.81787E+04 -6.98594E+02  2.53737E+04
 -2.04093E+04  1.22121E+04 -1.94015E+04 -4.47844E+03  7.72433E+03 -8.08740E+03  2.51004E+04  1.39802E+04
  4.81533E+03  3.02888E+04 -3.41045E+04  3.40529E+04 -5.91682E+04  1.59539E+03 -5.80042E+04 -4.31024E+04
 -1.51391E+04 -6.25607E+04  3.31997E+04 -4.09937E+04  5.27072E+04 -7.87487E+02  3.34369E+04  3.19824E+04
 -6.91968E+03  3.45739E+04 -3.01521E+04  1.65281E+04 -2.72738E+04 -6.41626E+03 -1.54690E+04 -1.18657E+04
 -6.48990E+03 -1.42599E+04 -5.15283E+02 -1.68340E+04  5.16727E+03 -2.45752E+04  1.41734E+04 -1.07243E+04
  1.09603E+04  7.52498E+03 -1.24161E+04  1.45877E+04 -1.89262E+04 -2.96254E+03 -5.96996E+03 -3.62152E+04
  2.21606E+04 -4.01080E+04  4.62430E+04 -2.37897E+04  4.45763E+04  1.85558E+04  1.24498E+04  4.29832E+04
 -1.69631E+04  3.50588E+04 -2.63910E+04  3.59699E+02 -1.18234E+04 -2.76001E+04  2.16787E+04 -2.77794E+04
  3.93993E+04 -6.98653E+03  2.85520E+04  2.20650E+04  1.83621E+04  4.24766E+04 -3.65725E+03  5.08064E+04
 -3.13769E+04  3.23926E+04 -3.81892E+04  8.15703E+03 -3.72710E+04 -1.25952E+04 -2.17397E+04 -3.21895E+04
  3.67951E+03 -3.62798E+04  3.17513E+04 -1.25188E+04  2.33511E+04  1.48679E+04  1.58455E+03  2.09318E+04
 -1.51691E+04  6.86684E+03 -1.03728E+04 -1.02919E+04  4.13244E+03 -1.04480E+04  1.89326E+04  9.85483E+03
  1.64699E+04  2.01001E+04 -5.18017E+03  2.70164E+04 -2.23489E+04  1.02907E+04 -2.77027E+04 -2.89938E+03
 -1.57037E+04 -1.90671E+04 -7.66002E+03 -1.56223E+04  1.85574E+03 -1.70649E+04  1.71711E+04 -1.74468E+04
  2.56589E+04 -8.69856E+03  2.80409E+04 -2.41743E+03  2.59126E+04  1.35659E+04  2.73141E+03  3.28323E+04
 -1.53886E+04  3.13815E+04 -2.89915E+04  1.34955E+04 -1.68390E+04 -1.09196E+04 -3.26070E+03 -1.50067E+04
 -4.31835E+02 -8.03614E+03 -5.22799E+03  7.82108E+03 -1.11854E+04  7.25060E+03 -1.13284E+04 -6.64064E+03
 -8.27373E+03 -1.91451E+04 -4.97268E+02 -1.94767E+04  1.57397E+04 -2.01991E+04  1.92451E+04 -2.46067E+03
  5.00468E+03  1.08602E+04 -1.36585E+03  1.06919E+04 -1.00779E+04  1.00895E+04 -1.35510E+04 -6.23947E+03
 -1.18643E+04 -1.22241E+04 -6.56715E+03 -2.35374E+04  7.95890E+03 -1.47913E+04  1.86649E+04 -8.14441E+03
  1.66789E+04 -1.34345E+03  1.05459E+04  2.01006E+03  8.04192E+03 -2.21251E+03  9.79346E+03  1.25516E+03
  1.63156E+04  5.89322E+03  1.38959E+04  1.26161E+04  9.93979E+03  2.51946E+04 -4.94185E+03  3.42704E+04
 -1.87455E+04  2.37584E+04 -2.66845E+04  1.06963E+04 -2.58015E+04  1.73940E+03 -2.26360E+04 -1.90711E+04
 -1.14786E+04 -2.28496E+04  7.16514E+03 -2.28028E+04  2.22990E+04 -1.31773E+04  1.36131E+04  3.49618E+03
  7.39116E+03  1.46508E+04 -9.14571E+03  1.38813E+04 -1.54510E+04  1.68359E+03 -1.33052E+04 -5.04672E+03
  1.13621E+03 -1.38883E+04  1.00221E+04 -1.02528E+04  5.86717E+03  1.92300E+02  2.53974E+02  2.86903E+03
 -4.82997E+03  5.09929E+03 -3.89668E+03 -3.54058E+03  1.62517E+03 -1.42390E+04  7.72869E+03 -1.43043E+04
  1.26326E+04 -4.25448E+03  1.28047E+04  4.26256E+03  1.04467E+04  8.94040E+03  5.74625E+03  1.49998E+04
 -2.93789E+03  1.60259E+04 -1.44304E+04  1.06930E+04 -1.27749E+04  6.23129E+02 -7.08321E+03 -4.14015E+03
 -9.49808E+03 -4.85117E+03 -7.32126E+02  4.45560E+03 -1.93446E+03  1.93844E+03 -8.01672E+02 -8.62914E+02
 -1.26316E+04  2.71746E+03 -1.13331E+04 -8.38182E+03  3.05847E+03 -1.33955E+04  4.23719E+03 -1.19316E+04
  9.41957E+03 -3.55369E+03  4.80515E+03  2.12858E+03  9.59123E+02  5.75820E+02 -2.44237E+03  5.26691E+03
 -4.09138E+03 -6.80261E+03 -3.97428E+03 -4.86464E+03  6.46021E+03 -9.78572E+03  8.54128E+03 -5.30667E+03
  1.52428E+04  3.88671E+02  9.71580E+03  9.02137E+03  4.21877E+03  1.30187E+04 -3.93811E+03  1.25660E+04
 -5.68140E+03  3.39442E+03 -4.86025E+03 -3.33268E+03  3.93891E+03 -3.09277E+03  2.47532E+03 -1.57737E+03
  1.31608E+03  6.76063E+03 -1.92884E+03  8.58137E+03 -8.57152E+03  5.02291E+03 -1.33085E+04  3.78826E+03
 -3.63887E+03 -4.53971E+03  3.57331E+02 -7.59916E+03  2.72855E+03 -1.92964E+03 -6.49100E+02  3.68164E+02
  3.12684E+03  4.87790E+03 -5.58739E+02  8.84193E+03 -5.47616E+03  4.71571E+03 -5.21334E+03 -1.76784E+03
  1.09628E+03 -6.03610E+03  2.71496E+03 -6.54535E+03  4.41121E+03  1.21260E+02  5.90597E+03  2.14239E+03
  3.86068E+03  9.02882E+03  2.36927E+03  1.51851E+03 -6.49664E+03  3.84615E+03 -7.78222E+03 -9.94788E+02
 -2.71931E+03 -9.39790E+03  9.73547E+01 -2.53371E+03  2.03109E+03 -1.73455E+03  5.84543E+03 -6.00752E+02
  7.76067E+03  2.10643E+03  3.76574E+03  2.38975E+03 -1.42450E+03  1.20450E+03  6.41562E+02 -5.06102E+03
  3.17502E+03 -2.32768E+03  8.51754E+03 -1.09661E+03  6.02975E+03  2.01682E+03  6.26098E+03  3.93808E+03
 -5.28220E+03  1.09821E+04 -5.22573E+03  7.73865E+03 -1.16608E+04  1.58630E+03 -1.17320E+04 -4.14184E+03
 -3.79443E+03 -8.97585E+03 -2.26760E+03 -6.34497E+03  4.23584E+03  1.53479E+03  1.74717E+03 -4.74981E+03
  1.16006E+02  9.46561E+02  3.42405E+03  1.57730E+03  4.78802E+02 -6.32935E+03  1.83524E+03 -3.52778E+03
  5.19994E+03  2.86180E+03  3.37125E+03  4.92537E+03 -4.61416E+03  2.41923E+03 -4.61237E+03  3.36954E+03
 -4.79629E+03 -2.55030E+03 -3.76368E+03 -7.01644E+03 -2.28453E+03 -4.23224E+03  1.13688E+03 -6.56227E+03
  5.79821E+03 -4.07390E+03  8.03743E+03  5.52569E+02  1.11272E+04  4.09348E+03  3.52195E+03  4.03728E+03
 -1.36391E+03  2.40975E+03 -4.48950E+03  2.86297E+03 -2.20358E+03 -1.88400E+03  9.93748E+02  5.16302E+00
 -1.39709E+02 -3.16521E+03  2.69050E+03  4.90839E+03 -5.07705E+03  1.45246E+03 -4.16278E+03  7.81002E+02
 -2.68366E+03 -8.17557E+03  1.44928E+03 -2.42710E+03  1.41984E+03 -3.75896E+03  5.84048E+03  1.85466E+03
  5.13736E+03 -1.17937E+03  1.29572E+03  6.09957E+03 -1.83416E+03  8.07415E+03 -2.53142E+03  2.68421E+03
 -3.48737E+03 -2.97253E+03 -3.50269E+03 -2.85127E+03  3.02663E+03 -2.86823E+03  1.64721E+03 -1.72070E+03
  1.94306E+03 -2.15688E+03  1.78393E+03  1.05576E+03 -3.42014E+03  8.16886E+02 -8.27973E+02 -1.50532E+03
  4.11933E+03  3.42072E+03  2.93961E+03  2.09997E+03  1.54083E+03  8.94286E+03 -2.76481E+02  2.55021E+03
 -2.84975E+03  7.09757E+01 -3.84013E+03  5.50222E+03 -5.94827E+03  2.07208E+03 -2.81617E+03  1.61149E+03
 -1.03435E+02 -7.10618E+03 -3.34794E+03 -9.03376E+03  2.30418E+03  8.25472E+02  3.32283E+03 -3.49449E+02
  7.72971E+02  3.36987E+03  1.46708E+03  2.86238E+03  3.20215E+03  1.99736E+03 -2.95847E+03 -6.83438E+02
 -2.75563E+03  3.71637E+03 -2.36996E+03 -1.71450E+03  1.83197E+03  3.10648E+03  4.82508E+03 -1.66318E+03
  3.23448E+02 -4.54104E+03  1.29202E+03 -9.07222E+02 -1.66754E+02  8.48826E+02  1.95182E+03 -1.34221E+03
 -6.63983E+02 -1.25329E+03  2.99446E+03 -1.69658E+03  1.17228E+03 -8.48904E+02 -2.23138E+03  7.48939E+03
 -6.68765E+02 -6.31985E+02 -3.00753E+03  2.35247E+03 -2.73890E+03  7.59964E+02  2.56192E+03 -3.22236E+03
  5.07738E+02 -3.01592E+02  2.14785E-01 -4.76904E+03  7.21186E+02 -4.11719E+03 -1.75975E+03  4.08306E+03
 -2.10347E+03 -1.26035E+02 -1.75364E+03 -1.15722E+02 -6.70053E+03 -2.98870E+03  3.76510E+03 -2.23201E+03
  2.71720E+03 -3.19589E+02 -1.28449E+03 -3.49245E+03  2.51711E+03  7.27132E+02 -5.51427E+02  1.83312E+03
 -3.66108E+03 -3.40622E+03 -1.24444E+02 -5.90018E+03  2.00631E+03 -1.92357E+03 -1.40796E+03 -8.29585E+02
 -1.30517E+03  1.05632E+03  6.61059E+03  9.59494E+01  4.55527E+03  1.15190E+03 -3.55520E+03  2.81591E+03
 -2.61961E+03 -1.39321E+03 -7.49274E+03 -7.22189E+02  1.51632E+03 -3.34545E+02  1.81241E+03 -1.59511E+03
  3.12897E+03 -3.80260E+03 -4.25584E+02  3.57982E+03 -3.01446E+03 -8.15247E+01  3.56028E+02 -2.24978E+03
  4.01451E+02 -2.41635E+03 -4.29512E+03 -2.17212E+02 -3.33821E+03 -1.62080E+03 -1.44293E+03 -8.39206E+02
 -4.62945E+02  2.30959E+03 -7.88112E+02  1.66827E+03 -3.97055E+03  7.78718E+02 -1.65847E+03 -1.07221E+03
 -2.52477E+03  1.41673E+03 -3.82331E+03  4.53839E+02  3.23749E+03 -6.97917E+03  4.16217E+03 -6.63148E+02
  5.79734E+03 -8.36543E+02 -1.01967E+03  2.00506E+03 -1.61914E+02  9.62547E+02 -3.50530E+03  1.80536E+03
 -4.65523E+03  2.12709E+02  6.03870E+03  4.00931E+03  5.58500E+02  6.80625E+02  2.42864E+03  2.51640E+03
  2.11693E+03 -2.46676E+03 -2.41258E+03  2.30500E+02  6.62895E+02 -3.42627E+02  7.12413E+02 -2.62981E+03
  1.37648E+03 -4.23556E+02  1.42887E+03  3.72417E+03  5.43850E+03 -2.08369E+03 -2.46679E+02  5.25827E+03
  1.87234E+01  5.56077E+03 -5.25464E+03 -1.40659E+03 -2.78841E+03  3.60494E+03 -3.23281E+03 -2.17734E+03
 -3.31502E+03 -1.22492E+03 -1.12326E+03 -1.72805E+03  1.81052E+01  2.42979E+03  2.57148E+03  6.84853E+02
  3.54851E+03  7.11329E+02 -2.06931E+03 -2.63919E+03 -1.26959E+03  2.42855E+03 -1.40323E+03 -3.20123E+03
  2.93629E+03  2.23735E+03  1.22963E+03  3.55667E+03 -7.98328E+02 -4.60509E+02  2.55400E+03  6.80677E+02
  2.39812E+03 -3.82571E+03  8.46355E+02 -2.55750E+03  3.58660E+02  1.75118E+03  2.40342E+03  1.40951E+02
  3.28954E+03 -4.27874E+03 -2.03484E+03 -2.35105E+03  1.03378E+02  2.97877E+03 -1.12295E+03  9.87473E+02
  1.38822E+03  2.18248E+03  4.03851E+02 -4.92813E+03 -4.65151E+02  2.91194E+03  3.51166E+02 -4.79705E+03
 -1.02326E+03 -2.28225E+03 -1.65640E+03 -7.44419E+02  2.76804E+03  6.53465E+03  5.38189E+03 -3.68811E+02
 -5.46514E+03 -7.04968E+02  3.20615E+02 -2.55708E+03 -2.70127E+01  1.95061E+03  1.96548E+03  6.76168E+03
 -8.20654E+02 -3.12727E+03  3.72598E+03  2.61440E+03  3.13825E+03  2.98368E+03 -2.23909E+03  1.50108E+03
