 $NMID ID='MM_0lb_SNR50_12hz_g60_47.RAW', FMTDAT='(8E13.5)'
 TRAMP=1., VOLUME=1. $END
  3.12769E+05  5.58186E+03  3.41845E+05  2.53379E+05  8.45966E+04  3.31867E+05 -1.35263E+05  2.51692E+05
 -1.95463E+05  8.14139E+04 -1.15305E+05 -3.01324E+04 -6.16682E+02 -5.55845E+04  5.69063E+04  1.41133E+02
  3.67207E+04  4.94185E+04 -1.64983E+04  7.26853E+04 -6.12951E+04  6.85937E+04 -8.48985E+04  3.45926E+04
 -8.00763E+04 -9.44000E+03 -5.71436E+04 -4.94970E+04 -1.96268E+04 -6.63711E+04  2.36514E+04 -4.64407E+04
  4.21726E+04  6.04265E+03  1.56187E+04  5.42330E+04 -2.62454E+04  5.25392E+04 -7.08520E+04 -1.96171E+03
 -5.13198E+04 -5.59729E+04 -7.41136E+02 -8.26077E+04  3.22218E+04 -4.65803E+04  5.10523E+04 -1.83069E+04
  4.78269E+04  1.38488E+04  3.65794E+04  2.62616E+04  1.45070E+04  2.67510E+04 -4.54617E+03  2.81495E+04
 -2.34172E+04  9.96260E+03 -1.55336E+04 -6.16689E+03  6.77926E+03 -4.90217E+03  2.20327E+04  1.11888E+04
  5.21834E+03  3.82811E+04 -3.69668E+04  3.62089E+04 -6.68917E+04  2.24754E+03 -5.98335E+04 -4.34253E+04
 -1.64719E+04 -6.65183E+04  3.90366E+04 -5.26109E+04  5.15510E+04 -2.15757E+03  3.54189E+04  2.86122E+04
 -1.54476E+03  3.60804E+04 -3.28989E+04  1.90349E+04 -3.36669E+04 -7.07785E+03 -1.91946E+04 -1.42442E+04
 -1.32602E+03 -1.46417E+04 -1.61632E+02 -2.72675E+04  6.73510E+03 -2.20721E+04  1.14699E+04 -1.27865E+04
  8.89547E+03  6.09830E+03 -9.80914E+03  2.01753E+04 -2.03721E+04 -8.81374E+03 -7.31658E+03 -4.19681E+04
  2.59459E+04 -4.78775E+04  5.16317E+04 -2.57424E+04  4.69164E+04  2.11529E+04  1.19215E+04  4.12947E+04
 -1.68246E+04  3.67435E+04 -2.27437E+04 -4.47510E+02 -1.51833E+04 -2.73098E+04  2.32134E+04 -3.88202E+04
  4.51184E+04 -1.14199E+04  3.48841E+04  2.42816E+04  2.21200E+04  4.95879E+04 -7.60442E+03  5.58715E+04
 -3.49722E+04  3.92979E+04 -4.67211E+04  6.60964E+03 -4.44830E+04 -1.41479E+04 -2.12422E+04 -3.83198E+04
  1.11642E+04 -3.84337E+04  2.71856E+04 -1.32734E+04  3.70550E+04  7.54356E+03  3.77093E+03  2.25727E+04
 -1.52362E+04  1.45344E+04 -1.14521E+04 -1.06418E+04  4.77679E+03 -1.32210E+04  1.91367E+04  4.76569E+03
  1.95485E+04  2.20060E+04 -4.86445E+03  2.47289E+04 -2.70198E+04  1.01492E+04 -2.91535E+04 -1.84738E+03
 -2.54830E+04 -1.66522E+04 -1.06410E+04 -2.31696E+04  4.55927E+03 -2.75677E+04  1.47665E+04 -1.97787E+04
  3.05608E+04 -1.14193E+04  4.00842E+04  6.14188E+03  2.79060E+04  2.10905E+04  8.52872E+03  4.24684E+04
 -2.14329E+04  3.48072E+04 -3.06109E+04  8.28165E+03 -2.41873E+04 -4.73051E+03 -3.18017E+03 -1.12790E+04
  7.68417E+03  1.59424E+02 -4.02601E+03  1.20463E+04 -2.22608E+04  3.42035E+03 -2.33232E+04 -4.15133E+03
 -8.12443E+03 -1.86459E+04  1.52779E+03 -2.73503E+04  1.48684E+04 -1.48580E+04  2.15760E+04 -5.96237E+03
  1.67753E+04  1.26868E+04  5.64598E+03  2.28094E+04 -1.73836E+04  5.71833E+03 -1.89275E+04 -4.56843E+03
 -1.54158E+04 -2.18759E+04 -2.72162E+03 -2.78169E+04  1.92693E+04 -2.21331E+04  1.68150E+04 -1.18405E+04
  2.13592E+04 -5.30698E+03  1.16317E+04  2.59602E+03  6.55263E+03  2.41902E+03  1.78841E+04 -2.14851E+03
  1.55048E+04 -2.52085E+02  2.39817E+04  1.95078E+04  1.62591E+04  3.27412E+04 -6.66018E+03  3.46073E+04
 -2.49843E+04  2.94484E+04 -3.99916E+04  1.17372E+04 -4.05138E+04 -6.04233E+03 -3.37043E+04 -2.45173E+04
 -1.74615E+04 -3.01023E+04  1.11383E+04 -2.89486E+04  2.73666E+04 -1.86910E+04  2.22453E+04  7.15810E+03
  9.95943E+03  2.09214E+04 -7.82905E+03  1.20725E+04 -2.12193E+04  3.86937E+03 -1.22738E+04 -1.19040E+04
 -5.96108E+02 -2.15216E+04  1.08862E+04 -1.27710E+04  1.35606E+04 -9.53696E+02  5.84108E+03  1.59000E+04
 -8.77892E+03  5.79959E+03 -1.40789E+04 -1.03138E+04 -2.00505E+03 -1.87366E+04  1.14225E+04 -1.25657E+04
  2.24638E+04 -7.46880E+03  2.31141E+04  7.64108E+03  1.98526E+04  1.50371E+04  1.01678E+04  2.18284E+04
 -4.32251E+03  3.08109E+04 -1.33005E+04  1.31587E+04 -1.77771E+04  2.61793E+03 -1.44920E+04 -1.09610E+04
 -8.94880E+03 -4.36956E+03  1.46855E+03 -1.73046E+03  2.28232E+03  5.48865E+03 -8.62020E+03  4.16457E+03
 -1.01316E+04 -4.43838E+03 -1.06733E+04 -6.06320E+03 -5.77515E+03 -1.53692E+04  7.42010E+02 -1.38194E+04
  8.79539E+03 -6.81814E+03  1.33368E+04  8.38035E+03  3.47389E+03  7.86991E+03 -5.70838E+03  7.04000E+03
 -2.89841E+03 -7.04197E+03 -2.48039E+03 -1.32663E+04  1.06932E+04 -1.29248E+04  9.33021E+03 -1.17104E+04
  2.14847E+04  3.21377E+03  1.17423E+04  7.91079E+03 -4.90558E+02  1.85454E+04 -1.08539E+04  8.95039E+03
 -1.14554E+04 -2.92518E+02 -6.64435E+03 -5.56939E+03  8.26974E+02 -4.64530E+03  9.07253E+03 -6.67210E+03
  4.98888E+03  1.03211E+04  5.84113E+03  8.65409E+03 -3.67226E+03  1.62304E+04 -8.66904E+03  3.09418E+03
 -5.96526E+03 -4.33524E+03 -1.53721E+03 -1.07735E+04  8.09786E+03 -9.04637E+03  5.45320E+03  3.18914E+03
  5.84830E+03  6.80310E+03 -6.72875E+03  8.04715E+03 -1.03147E+04  6.95170E+03 -5.24709E+03 -4.19571E+03
 -1.07364E+04 -1.35569E+04  3.96167E+03 -1.30049E+04  1.10753E+04 -8.43825E+03  1.81566E+04  3.85236E+03
  7.72172E+03  9.13048E+03 -7.29220E+03  1.77057E+04 -1.08631E+04  9.29338E+03 -6.07857E+03  8.17077E+03
 -1.03409E+04 -2.86617E+03  1.83664E+03 -1.23593E+04  7.63234E+03 -1.23186E+04  3.16012E+03 -7.55825E+03
  4.30495E+03 -2.73591E+03 -2.57767E+03  9.03479E+03  2.93495E+03 -2.75640E+03  1.61592E+03 -3.56431E+03
  1.21521E+04 -5.78953E+03  1.26884E+04 -1.53817E+02  1.84826E+04  9.40262E+03  1.37865E+04  2.20675E+04
  4.86476E+02  1.45845E+04 -1.29441E+04  1.17197E+04 -1.84375E+04  3.40670E+03 -1.75169E+04 -1.14509E+04
 -6.19689E+03 -1.41536E+04 -3.45956E+03 -8.32168E+03  7.85888E+03 -5.86822E+03  7.11556E+03 -4.66026E+03
  2.50468E+03 -3.84302E+03 -2.78428E+03 -2.19847E+03  5.49948E+03 -2.30918E+03  8.97698E+03 -3.99770E+02
  1.07032E+04  4.24223E+03  9.11453E+03  8.82463E+03 -2.53994E+03  9.06659E+03 -1.29372E+04  3.19829E+02
 -7.12589E+03 -1.91113E+03 -6.71058E+03 -1.37101E+04 -1.42379E+03 -1.41417E+04  8.03873E+03 -1.56540E+04
  1.63836E+04 -6.76298E+03  8.65052E+03  5.08564E+02  1.18189E+04  9.43990E+03  5.38119E+03  1.37608E+04
 -1.04195E+04  1.10402E+04 -6.91648E+03  4.06175E+03 -9.97194E+03  1.40518E+03  9.40505E+02  8.94267E+01
 -3.78794E+03  3.84446E+03 -6.77946E+03 -6.30938E+02 -6.12783E+03  7.46400E+03 -7.63481E+03 -1.75135E+03
 -2.34069E+03 -9.23921E+03  8.10123E+03 -1.05164E+04  1.26206E+04 -1.49487E+04  9.56249E+03 -1.57940E+03
  1.56408E+04  2.45274E+03  9.71535E+03  1.33816E+04 -6.95386E+03  7.88496E+03 -1.03335E+04  1.11388E+04
 -1.13892E+04 -2.81335E+03 -4.87738E+03 -6.65651E+03  3.33689E+02 -8.35034E+03  8.46936E+03 -3.80852E+03
  7.64438E+03 -7.64197E+03  6.52865E+03  3.36428E+03  5.13937E+03  5.10410E+03 -6.56979E+02 -1.12764E+03
  3.87473E+03  1.43584E+03  2.18688E+03  4.58751E+03  3.59990E+03  5.73866E+03  4.20231E+03  3.51715E+03
  4.33106E+02  4.86233E+03 -8.44669E+03  5.38115E+03 -1.33854E+04  3.31504E+03 -1.47060E+04 -4.44031E+03
 -1.34594E+03 -1.11604E+04  2.07445E+03 -1.04236E+04  5.69731E+03 -9.72867E+03  7.32626E+03 -4.01288E+03
  3.66475E+03  3.35319E+03 -1.22492E+03  9.71422E+03 -4.70180E+03  1.94460E+03 -4.65033E+03  5.77922E+03
 -1.40900E+02 -3.29352E+03  5.35045E+03 -3.10602E+03  5.17721E+03 -4.12013E+02  1.20887E+03 -6.09559E+01
  6.42747E+03  7.47552E+02  3.09549E+03 -1.68575E+03 -3.79186E+02  3.10521E+03  4.57692E+03 -6.43095E+03
  1.03560E+03 -3.25125E+03  3.80960E+03 -1.78513E+03  3.23102E+03  4.11907E+03  8.37558E+02  9.54561E+03
 -6.51248E+03  2.05442E+03 -6.96964E+03  8.13702E+02 -5.11650E+03  2.07627E+03 -8.69648E+02 -4.85874E+03
  3.05727E+03 -3.91728E+02  3.70247E+03 -2.38502E+03  3.91593E+03 -5.03385E+02  3.22611E+03  6.63837E+03
 -8.04679E+02 -1.04503E+03 -1.03720E+03 -3.50272E+03 -2.38325E+03 -6.82303E+03  1.77490E+03 -7.69213E+03
  3.14981E+03 -4.20306E+03  4.00322E+01 -5.37648E+03  3.71795E+03  1.48201E+03  3.72929E+03  1.24738E+03
  2.33513E+02  1.27425E+03  1.88189E+03 -1.49883E+03 -2.75535E+03 -6.88830E+03  8.28047E+01 -2.49820E+03
  5.70381E+03  2.62992E+03  5.88545E+03 -1.83059E+03  3.26784E+03  7.96234E+03  5.08366E+02  5.74371E+03
 -6.35785E+03 -2.87317E+03  2.17020E+02  5.41566E+03 -5.02721E+03 -6.56055E+03  9.76998E+02 -4.60077E+03
  3.64816E+03 -1.98581E+03  1.02722E+04  9.57401E+02 -5.55067E+01  9.13204E+03 -1.75503E+03  7.84733E+01
  6.59096E+02  4.04179E+01 -6.29347E+03 -5.02833E+02  6.37353E+03  3.13672E+03  4.40083E+02 -3.91497E+03
  9.90086E+02  3.71366E+03 -6.71402E+03  2.64158E+03 -8.66196E+03  3.24965E+03 -1.00629E+04 -6.59174E+03
 -3.91995E+03 -1.14197E+04 -1.39919E+03 -1.24781E+04  3.95953E+03 -8.04867E+03  8.85215E+03  9.96067E+02
  6.90052E+03 -2.93990E+03  4.93824E+03  1.17136E+04  4.01560E+03 -1.61379E+03 -5.21856E+03  4.57558E+03
 -2.61777E+03  4.62316E+02  4.50234E+02 -4.37223E+03 -2.19614E+03 -6.16423E+02 -3.10923E+03  2.37956E+03
 -5.85327E+03 -1.81624E+03 -2.34504E+03 -8.24349E+01  5.47258E+03  1.42778E+03  2.94052E+03  1.48699E+03
  1.88978E+03 -6.76739E+03 -1.17236E+03  2.94784E+03  1.82230E+03 -1.87155E+03 -1.46943E+03  3.22878E+03
  2.02078E+03  4.98063E+03 -5.52023E+03  5.24371E+03 -5.21222E+03  2.01866E+03  4.90039E+02 -7.77803E+03
 -6.77037E+03 -1.20032E+04  2.25595E+03 -1.03891E+04  4.60462E+03 -2.97918E+03  8.44665E+03 -1.76904E+03
  9.80100E+03  5.03439E+03  2.42708E+03  4.29482E+03 -3.19677E+03 -4.05137E+03 -5.55807E+02  2.87682E+03
  1.13518E+03  5.53482E+03  2.63615E+03  1.13541E+03  4.50988E+03 -1.01586E+03  1.32663E+03  4.51584E+03
  2.59698E+03 -2.54631E+03 -2.40747E+03  5.08335E+03 -4.59611E+03 -6.16632E+03 -5.84749E+03 -6.98706E+03
 -1.68500E+03 -6.00144E+03  7.79934E+03 -1.58882E+03  3.10061E+03  2.18037E+03  6.80358E+03  4.45115E+03
 -4.85046E+03  2.98179E+03 -1.04996E+03  1.26617E+03 -1.61448E+03  8.87544E+03  7.62270E+02  3.18583E+03
 -1.80180E+03  1.80578E+03 -1.77559E+02  3.40034E+03 -5.64211E+03 -6.59846E+02 -1.18206E+03 -4.78220E+03
 -6.05381E+03  1.67465E+03 -6.13948E+02  2.26306E+02  3.86154E+03 -5.86138E+03  1.94964E+03 -4.47347E+03
  3.61590E+03  2.53881E+03  3.10105E+03  8.71518E+03  2.39366E+03  7.13019E+03 -5.04387E+03  4.07030E+03
