 $NMID ID='MM_0lb_SNR50_10hz_g60_45.RAW', FMTDAT='(8E13.5)'
 TRAMP=1., VOLUME=1. $END
  3.16057E+05 -1.30014E+03  3.39651E+05  2.48665E+05  8.28891E+04  3.36921E+05 -1.36383E+05  2.55431E+05
 -1.87946E+05  8.73912E+04 -1.13619E+05 -3.52434E+04  4.18088E+03 -4.27760E+04  5.31299E+04 -5.62292E+03
  3.91768E+04  5.58045E+04 -1.62230E+04  7.69120E+04 -5.72880E+04  6.30909E+04 -8.71986E+04  3.57244E+04
 -8.65596E+04 -1.28445E+04 -5.99167E+04 -5.29273E+04 -1.14842E+04 -7.25452E+04  3.45299E+04 -4.76344E+04
  3.86953E+04  1.96713E+03  1.44461E+04  4.64660E+04 -3.66875E+04  4.79758E+04 -6.99080E+04 -6.60943E+03
 -5.58165E+04 -6.12305E+04 -3.37056E+03 -7.31210E+04  3.77247E+04 -5.86816E+04  4.64204E+04 -2.04933E+04
  4.69498E+04  9.02348E+03  3.34221E+04  2.74871E+04  1.75750E+04  2.82350E+04 -3.40655E+03  2.95422E+04
 -2.22287E+04  2.03525E+04 -1.90445E+04 -7.97070E+03  7.95851E+03 -1.07274E+04  2.53037E+04  1.35260E+04
  1.10353E+04  4.23660E+04 -3.61182E+04  4.26402E+04 -6.92852E+04  4.04443E+03 -5.68621E+04 -4.96223E+04
 -1.36664E+04 -6.72599E+04  4.29867E+04 -4.50046E+04  6.12302E+04 -2.28264E+03  3.28037E+04  3.30791E+04
  1.68550E+03  3.72269E+04 -2.89732E+04  1.77983E+04 -3.04895E+04  5.83778E+02 -1.84021E+04 -1.02956E+04
 -1.36733E+04 -1.41692E+04 -4.47731E+03 -2.08473E+04  1.03585E+04 -2.34538E+04  1.56178E+04 -1.62410E+04
  8.23090E+03  1.02160E+04 -1.32494E+04  1.17333E+04 -2.33497E+04 -7.65308E+03 -3.82639E+03 -3.77472E+04
  2.31262E+04 -4.86939E+04  5.29761E+04 -2.21680E+04  4.63960E+04  2.26622E+04  1.98668E+04  4.80807E+04
 -1.36224E+04  4.06756E+04 -3.13432E+04 -1.09514E+03 -1.40448E+04 -2.47648E+04  2.27300E+04 -3.61751E+04
  4.49648E+04 -1.89476E+04  4.21116E+04  2.34454E+04  1.78717E+04  5.31022E+04 -8.36700E+03  5.90928E+04
 -4.26598E+04  3.35718E+04 -4.82319E+04  1.16690E+04 -4.90716E+04 -1.74701E+04 -2.25200E+04 -4.39959E+04
  3.08388E+03 -4.19349E+04  2.91781E+04 -1.13436E+04  3.04280E+04  9.91940E+03  2.32745E+03  1.42970E+04
 -2.13690E+04  6.11331E+03 -8.82163E+03 -4.54145E+03  2.21275E+03 -4.72126E+03  1.97874E+04  3.78672E+03
  1.45572E+04  2.66529E+04 -7.14455E+03  2.01848E+04 -2.08148E+04  1.75343E+04 -3.58937E+04 -2.66073E+03
 -2.49533E+04 -1.98021E+04 -1.60399E+04 -2.81316E+04  2.81374E+03 -3.03957E+04  2.02605E+04 -2.46263E+04
  3.15734E+04 -1.03177E+04  3.98720E+04  2.39806E+03  2.88969E+04  2.45722E+04 -4.35327E+03  3.39604E+04
 -1.34065E+04  3.36215E+04 -3.12793E+04  6.57549E+03 -2.28673E+04 -8.44192E+03 -6.66553E+03 -1.17848E+04
 -3.17773E+03 -1.65125E+03 -4.40984E+03  1.14559E+04 -1.82366E+04  8.47953E+03 -2.38511E+04 -7.10100E+03
 -1.39093E+04 -3.22061E+04  7.72864E+03 -2.89841E+04  1.51569E+04 -1.99999E+04  1.68860E+04 -3.33824E+03
  1.27206E+04  1.28807E+04 -9.96119E+02  2.29580E+04 -1.10735E+04  1.56687E+04 -2.29947E+04 -6.24993E+03
 -1.74627E+04 -1.47224E+04  3.16654E+02 -2.53634E+04  1.51856E+04 -1.49305E+04  2.23964E+04 -1.24718E+04
  2.39800E+04 -4.81063E+03  1.79192E+04  8.63776E+03  7.12790E+03  6.96259E+03  1.42970E+04  1.27504E+03
  1.81873E+04  4.12020E+03  2.83194E+04  2.17004E+04  1.35250E+04  3.78140E+04 -2.23971E+02  3.97444E+04
 -2.96459E+04  3.18704E+04 -4.00646E+04  2.51902E+04 -4.54922E+04 -1.84944E+03 -4.01417E+04 -2.78318E+04
 -1.46129E+04 -3.69265E+04  1.15444E+04 -3.12233E+04  2.70547E+04 -1.75163E+04  2.44667E+04  2.50295E+03
  1.17569E+04  1.84674E+04 -1.54130E+04  9.62102E+03 -2.02008E+04  2.63962E+03 -1.54801E+04 -1.90705E+04
  4.38059E+03 -1.81895E+04  9.02412E+03 -1.37082E+04  1.68500E+04 -7.21377E+03  1.36715E+03  1.11640E+04
 -5.53607E+03  3.66300E+03 -7.41823E+03 -8.45131E+03 -4.07039E+03 -2.01955E+04  9.23832E+03 -2.05505E+04
  2.21826E+04 -9.88182E+03  2.44144E+04 -2.76621E+03  2.16601E+04  2.35473E+04  2.07864E+03  3.25155E+04
 -6.77950E+03  3.62940E+04 -2.14016E+04  2.45163E+04 -2.73846E+04  4.73092E+03 -1.79440E+04 -1.59374E+03
 -8.98324E+03 -1.08501E+04  2.21515E+03 -4.14098E+02 -5.87769E+03  4.01355E+03 -1.08046E+04  2.06848E+03
 -1.32108E+04 -1.32281E+03 -1.72862E+04 -6.68102E+03 -1.00564E+04 -2.08466E+04  1.30610E+04 -1.18527E+04
  1.02868E+04 -8.84717E+03  1.08447E+04  5.81944E+03  1.36159E+03  5.53161E+03 -1.61375E+04  4.64002E+03
 -9.61450E+03 -5.36589E+03 -4.09792E+03 -1.24396E+04  9.60672E+03 -1.23315E+04  2.43236E+04 -5.39735E+03
  2.13283E+04  2.88254E+03  2.44210E+04  1.81220E+04  6.47861E+03  1.61431E+04 -1.07575E+04  1.97338E+04
 -1.44786E+04  6.70262E+03 -5.30101E+03 -1.81178E+03  3.68027E+03 -1.05901E+04  9.49231E+03 -2.39791E+03
  3.95981E+03  7.51102E+03  1.56121E+03  1.30894E+04 -3.72871E+03  1.66782E+04 -1.29594E+04  3.41592E+03
 -6.86138E+03 -5.83617E+03  3.37663E+03 -1.19085E+04  8.61496E+03 -1.23476E+04  3.14222E+03  1.08514E+04
  6.10140E+03  7.36699E+03 -9.53811E+03  5.49195E+03 -7.86273E+03  6.79878E+03 -8.82730E+03 -5.57214E+03
 -6.82066E+03 -1.70860E+04 -3.15195E+03 -1.47948E+04  1.61639E+04 -1.46576E+04  1.04508E+04  5.05374E+03
  1.58505E+04  9.31366E+03 -1.84677E+03  1.47321E+04 -8.21544E+03  9.26701E+03 -1.01597E+04 -6.60393E+02
 -1.14938E+04 -1.59118E+04 -4.47198E+03 -1.00871E+04  1.13608E+04 -1.22820E+04  8.23410E+03 -9.51233E+02
  7.27399E+03  2.56160E+02  9.24126E+01 -6.32447E+02 -9.26533E+02 -6.36309E+03 -3.68749E+03 -5.84534E+03
  6.24072E+03 -7.94458E+02  1.79067E+04  2.79516E+03  8.03684E+03  4.07227E+03  8.41982E+03  2.01660E+04
 -1.02112E+03  2.59831E+04 -1.93492E+04  1.59190E+04 -2.52682E+04  5.34040E+03 -2.49074E+04 -6.97762E+03
 -1.55696E+04 -1.52574E+04 -5.35438E+03 -1.92274E+04  4.04237E+03 -6.00077E+03  8.11042E+03 -6.29880E+03
  4.07924E+03 -3.30087E+03  8.01140E+03 -2.03411E+03  1.23260E+04 -4.12265E+03  4.42449E+03 -3.79680E+03
  1.37374E+04  3.94378E+03  6.38545E+03  1.15743E+04  1.85543E+03  7.47562E+03 -1.27194E+04  3.07139E+03
 -1.59414E+04 -7.01300E+02 -4.14272E+03 -1.67104E+04 -1.96874E+03 -1.68205E+04  1.51247E+04 -1.03734E+04
  1.41422E+04 -9.85981E+03  1.96553E+04  4.95697E+03  1.57966E+04  1.56615E+04  4.99198E+01  1.24591E+04
 -9.65409E+03  1.36207E+04 -7.59290E+03  1.06126E+04 -7.88165E+03 -1.17294E+03 -3.52093E+03 -1.15152E+03
 -7.22450E+03  1.62368E+03  9.85680E+02  3.44077E+03 -8.10124E+02 -1.22128E+03 -6.84648E+03 -5.22521E+03
 -1.06269E+04 -7.33514E+03  1.77856E+02 -1.21372E+04  1.21349E+04 -7.39959E+03  1.34631E+04 -6.68374E+03
  1.70407E+04  7.25261E+03  3.93321E+03  1.28732E+04 -1.81215E+03  1.47420E+04 -1.24250E+04  1.24943E+04
 -1.24461E+04 -1.00307E+03 -1.40283E+04 -1.20720E+04  1.73434E+03 -1.91495E+04  8.16010E+03 -7.74898E+03
  2.29175E+03 -5.34615E+02  1.40567E+04  1.00435E+03 -2.76405E+03  6.61346E+03  5.51316E+03  5.51977E+03
  1.27186E+03  1.07424E+03  3.55981E+03 -2.23470E+01  8.02936E+03  1.20084E+03  2.49266E+03  8.01283E+03
 -3.16014E+03  1.25742E+04 -1.35752E+04  1.36705E+04 -1.33205E+04  4.58733E+03 -1.30857E+04 -1.03693E+04
 -9.86662E+03 -8.84060E+03  4.23366E+03 -1.50630E+04  1.19991E+04 -1.11547E+04  1.22960E+04 -6.24408E+03
  1.39370E+04  2.92519E+03  2.02028E+03  1.06402E+04 -1.71395E+03  3.90241E+03 -4.35930E+03  2.15039E+03
 -5.94123E+03 -2.68622E+03  6.64423E+03 -4.39772E+03  5.22041E+03 -1.10749E+04  9.47180E+03 -2.75014E+03
  6.80029E+03  5.51361E+03  9.58479E+02  9.59945E+02 -1.34767E+03  8.85566E+03 -1.48463E+02 -5.62358E+03
  4.72724E+03 -5.10312E+03  8.63078E+03  1.80400E+03  2.67153E+03  1.05894E+04  2.93512E+03  6.31657E+03
 -8.79966E+03  6.60801E+03 -1.66082E+04  3.56353E+03 -5.06910E+03 -5.26243E+03  1.61891E+03 -1.55690E+04
 -1.16006E+03 -1.05408E+04  6.32106E+03 -2.83227E+02  5.02761E+03  5.91645E+03 -1.48936E+03  5.61424E+03
 -1.09700E+04  5.29022E+03 -1.36638E+04 -4.26197E+03 -4.12788E+03 -7.98214E+03 -7.06675E+03 -1.05368E+04
  7.56357E+02 -4.01739E+03  7.86208E+03  1.67571E+03  4.50925E+03  2.70374E+03  2.12925E+03 -9.83386E+02
 -3.39635E+03  6.63943E+03 -4.57200E+03 -2.30445E+03 -1.63910E+03 -8.24238E+03  1.33955E+04 -4.38583E+03
  9.00607E+03 -6.80883E+03  1.07529E+04 -1.19997E+03  6.91449E+03  7.98056E+03  4.37305E+03  5.36529E+03
 -8.13725E+03  9.98446E+03 -7.22863E+03 -5.41159E+03 -1.01029E+04 -8.02719E+03 -3.23091E+03 -3.51545E+03
  3.17780E+03 -3.57706E+03  2.06041E+03  2.00515E+03 -7.66235E+02  5.68974E+03  7.50772E+02  4.71347E+03
 -2.10469E+03  1.51710E+03 -1.11438E+04  1.73821E+03  1.17757E+03  3.68871E+03 -5.74300E+03 -2.15445E+02
  1.64723E+03  2.69047E+03 -6.76879E+03 -5.92075E+02 -1.20850E+04 -4.79426E+03 -9.58920E+03 -5.27707E+03
 -3.12623E+03 -9.94891E+03 -2.65169E+03 -1.66123E+04  6.21488E+03 -1.01400E+04  1.30640E+04 -1.35166E+04
  1.03823E+04 -3.51734E+02  3.92513E+03  1.16533E+04  1.32012E+03  1.12276E+04 -3.52077E+03  4.53661E+03
 -4.90493E+03  6.16740E+03 -4.42231E+03  1.14958E+03  5.19185E+02 -2.60948E+03 -4.72027E+03 -2.22066E+03
  4.72112E+02  1.66213E+03 -2.99835E+02 -3.12426E+03 -2.56274E+03  3.41891E+03 -1.21204E+03 -1.11582E+04
 -1.91877E+03 -7.39863E+03  5.00929E+03 -2.12655E+03  5.05322E+03  3.97084E+03 -3.34030E+03  7.29064E+03
 -1.19008E+03  5.32076E+03 -1.29991E+04  3.86607E+03 -7.44744E+03 -3.50339E+03 -1.43463E+04 -6.64604E+03
 -5.49718E+03 -9.63579E+03 -1.55521E+01 -2.04767E+03  3.69162E+03 -2.14016E+03  6.34024E+03  1.23299E+03
  6.42725E+03  5.03344E+03  1.44844E+02  2.95446E+02 -4.10109E+02 -1.03850E+03  3.95195E+02 -6.05096E+03
 -8.76391E+02 -9.83270E+03  1.17581E+02 -1.95045E+02 -2.13449E+02  2.87880E+03 -7.34409E+03  2.04039E+03
 -8.11336E+03  6.42006E+03 -6.69682E+03  1.51764E+03 -3.90409E+03 -1.30483E+03  2.25899E+03 -1.04649E+04
  1.07300E+04 -9.12245E+03  8.51506E+03 -5.67684E+03  8.03847E+03  7.36862E+03  5.98876E+03  9.30592E+03
  1.09873E+03  6.53465E+03  4.12600E+03  7.46459E+02 -1.02112E+04  4.79036E+03 -5.82390E+03 -8.62275E+03
  4.31328E+02 -7.83122E+03 -1.27821E+03 -9.55942E+02  1.28596E+03  5.13579E+03 -1.16250E+04 -4.85734E+03
  1.01375E+02 -7.78035E+03 -1.47810E+03 -2.89200E+03  5.25152E+03 -2.15900E+03  7.34647E+03 -7.96849E+03
  1.15043E+04  5.31912E+03  6.20660E+03  7.05958E+03  5.61146E+03  6.93567E+03 -7.07192E+03  7.64202E+03
