 $NMID ID='MM_0lb_SNR50_20hz_g40_51.RAW', FMTDAT='(8E13.5)'
 TRAMP=1., VOLUME=1. $END
  3.11340E+05  3.46696E+02  3.36355E+05  2.47771E+05  8.82602E+04  3.39652E+05 -1.31542E+05  2.50464E+05
 -1.84720E+05  7.94211E+04 -1.09974E+05 -3.03914E+04  2.74130E+02 -5.21077E+04  4.97328E+04  3.98753E+03
  2.96520E+04  5.53988E+04 -1.94458E+04  7.45725E+04 -5.88415E+04  6.27156E+04 -8.58841E+04  3.01051E+04
 -7.69759E+04 -1.46283E+04 -5.24691E+04 -5.21321E+04 -1.51799E+04 -7.00080E+04  2.63281E+04 -4.13217E+04
  3.81397E+04 -9.19507E+02  1.46106E+04  4.94272E+04 -3.24233E+04  4.62819E+04 -6.62823E+04 -2.69478E+03
 -5.11719E+04 -5.39793E+04 -5.72415E+03 -7.65071E+04  3.64268E+04 -5.35161E+04  4.61332E+04 -1.71588E+04
  4.21780E+04  1.04363E+04  2.99416E+04  2.33042E+04  1.69832E+04  2.44232E+04 -2.70386E+03  2.66224E+04
 -2.29931E+04  1.33392E+04 -2.00029E+04 -7.11201E+03  2.61661E+03 -6.05002E+03  2.19438E+04  7.45979E+03
  8.12447E+03  3.69897E+04 -3.36589E+04  3.63863E+04 -5.98038E+04  1.25031E+03 -5.09354E+04 -3.62313E+04
 -7.41100E+03 -6.00619E+04  4.13789E+04 -4.05050E+04  5.28088E+04  5.87871E+02  3.18842E+04  2.65692E+04
 -5.50774E+03  3.44366E+04 -3.08349E+04  1.31995E+04 -2.91713E+04 -1.12545E+04 -1.12182E+04 -5.94590E+03
 -7.00378E+03 -9.41210E+03 -1.20886E+03 -1.44933E+04  5.64572E+03 -2.31175E+04  1.10903E+04 -1.61455E+04
  1.25897E+04  3.23880E+01 -4.63439E+03  1.55033E+04 -2.00692E+04 -2.69369E+03 -4.11565E+03 -2.78557E+04
  2.07714E+04 -3.75609E+04  4.26595E+04 -2.01831E+04  3.74283E+04  1.75956E+04  1.58646E+04  4.15567E+04
 -1.54390E+04  2.77888E+04 -2.36669E+04 -3.66043E+03 -1.00082E+04 -2.62750E+04  2.14106E+04 -3.12281E+04
  3.67441E+04 -7.14600E+03  2.89640E+04  2.17907E+04  1.48119E+04  4.11465E+04 -5.71600E+03  4.47116E+04
 -2.52640E+04  2.82982E+04 -3.85029E+04  5.59960E+03 -3.74416E+04 -1.22011E+04 -2.32721E+04 -3.32375E+04
  4.81489E+03 -3.04061E+04  2.64689E+04 -9.53442E+03  2.85232E+04  7.76186E+03  2.81026E+03  1.99551E+04
 -1.03910E+04  4.92840E+03 -9.06314E+03 -9.55850E+03  8.21636E+03 -1.33470E+04  1.77684E+04  1.01646E+04
  9.16801E+03  1.95728E+04 -4.22988E+03  2.59006E+04 -1.99870E+04  5.88886E+03 -2.12270E+04 -4.27746E+03
 -1.21868E+04 -1.00460E+04 -5.41864E+03 -1.59861E+04  8.29580E+02 -1.56167E+04  1.17196E+04 -1.45116E+04
  2.02099E+04 -7.37369E+03  2.45106E+04 -2.57582E+03  2.01826E+04  1.37608E+04  9.51540E+02  3.24587E+04
 -1.16469E+04  2.69091E+04 -2.41280E+04  9.04532E+03 -1.97957E+04 -1.08393E+04 -6.59409E+03 -1.13582E+04
  5.62463E+02 -7.33493E+03 -6.18296E+03  1.84348E+03 -1.08133E+04  4.70896E+03 -1.48581E+04 -3.18322E+03
 -1.03125E+04 -1.44151E+04  4.03191E+03 -1.99891E+04  8.20338E+03 -1.42900E+04  1.61827E+04 -3.09657E+03
  9.91759E+03  8.76565E+03  3.89295E+03  1.28608E+04 -1.44559E+04  6.51211E+03 -1.34947E+04 -4.75828E+03
 -1.55352E+04 -1.48640E+04 -3.48605E+03 -1.62714E+04  1.01089E+04 -1.25053E+04  1.14231E+04 -6.95634E+03
  9.31968E+03 -1.07772E+03  1.09029E+04 -1.22088E+03  7.09179E+03  2.22481E+03  8.74855E+03 -4.58591E+03
  1.52008E+04  3.80588E+03  1.32617E+04  1.30399E+04  6.89255E+03  2.33944E+04 -1.54507E+03  2.28447E+04
 -1.37164E+04  1.50445E+04 -2.17457E+04  1.24086E+04 -1.77598E+04 -1.14769E+03 -1.99529E+04 -1.09255E+04
 -6.01948E+03 -2.08703E+04  6.74833E+03 -1.62841E+04  1.48578E+04 -4.42357E+03  1.28080E+04  3.31483E+03
  6.40973E+03  1.04349E+04 -8.18630E+03  1.15288E+04 -1.17735E+04  4.48968E+03 -1.12694E+04 -8.96225E+03
  3.55904E+03 -9.61051E+03  3.75383E+03 -1.01547E+04  9.13457E+03 -1.29512E+03 -7.63506E+02  5.35623E+03
 -2.93590E+03  2.44057E+03 -7.66560E+03 -3.68255E+03  1.69530E+02 -3.23447E+03  7.41497E+03 -1.10275E+04
  1.34272E+04 -5.51106E+03  1.43751E+04  1.71006E+03  7.65443E+03  9.58546E+03  7.70689E+03  1.10721E+04
  1.08550E+03  1.53587E+04 -8.50249E+03  7.00605E+03 -8.55209E+03  2.90107E+03 -5.90528E+03  1.94064E+03
 -2.26036E+03 -3.11433E+03 -2.74092E+03  7.38841E+02 -3.82870E+03  2.54564E+03 -5.92044E+03  4.81659E+03
 -8.14470E+03  2.12736E+03 -1.38249E+04 -5.70943E+03 -5.92952E+02 -9.37786E+03  3.06925E+03 -8.26784E+03
  6.25428E+03 -3.94132E+03  6.58172E+03  2.01319E+03  5.13144E+03  1.34732E+03 -5.09229E+03 -3.13600E+03
  1.98463E+02 -6.85770E+03 -1.94961E+03 -4.15577E+03  4.59370E+02 -4.23629E+03  7.79163E+03 -3.20499E+03
  1.40324E+04 -1.67443E+03  8.90840E+03  3.13383E+03  4.97350E+03  7.26541E+03 -5.29698E+03  8.93634E+03
 -7.70205E+03  3.50247E+03 -3.91355E+03  1.62630E+03 -4.09329E+03 -3.16051E+03  3.91295E+03  1.97547E+03
  5.11168E+03  2.59240E+03 -2.74757E+02  6.40665E+03 -3.08514E+03  8.85742E+03 -6.59265E+03  3.37457E+03
 -3.43509E+03 -9.68851E+01 -5.91452E+02 -5.16831E+03  1.13366E+03 -5.57835E+03 -8.22029E+02 -1.12192E+03
  6.49351E+03  2.44832E+03 -3.54300E+03  4.56359E+03 -6.91156E+03  1.87735E+03 -5.98270E+01  1.55199E+02
 -4.08192E+03 -4.21882E+03  3.94844E+02 -2.03911E+03  3.78491E+03 -7.12618E+03  6.64181E+03  2.53470E+03
  4.43154E+03  4.28449E+03  5.39866E+03  7.43884E+03 -6.60840E+03 -8.52267E+01 -1.09816E+04 -5.93707E+03
 -4.61142E+03 -4.69703E+03 -1.20937E+03 -3.63909E+03  1.37426E+03 -3.90113E+03  1.98243E+03 -4.79351E+03
  3.14321E+03 -5.72785E+03  3.21905E+03  3.49383E+03  1.79110E+03  4.73245E+02 -4.97142E+02 -3.61660E+03
  5.09694E+03  8.62580E+02  1.48158E+03  1.47385E+03  7.86138E+03  5.30017E+03  4.06086E+03  5.20282E+03
  8.78061E+01  7.56691E+03 -1.14090E+04  4.07254E+03 -7.66917E+03  4.80422E+03 -4.90402E+03  4.39669E+02
 -4.44701E+03 -5.42810E+03 -2.47458E+03 -2.85234E+03  1.34169E+03 -6.47332E+03  1.15038E+03 -2.65429E+03
  3.95036E+03 -4.06799E+03  6.85199E+01 -2.88114E+03  2.64887E+03 -1.31160E+03  2.96827E+03  1.71685E+03
  3.84275E+03  1.26240E+02 -1.15173E+01  9.48051E+02 -2.45586E+03 -2.00631E+03 -3.50671E+03  2.22105E+03
  5.61252E+01  7.77328E+02 -7.13685E+02 -1.81436E+03 -1.14721E+03 -5.60394E+03  4.72016E+03 -3.04114E+03
  6.09561E+03 -9.78775E+02  1.51876E+03  1.52092E+03  1.74852E+03  4.63049E+03  2.43571E+03  8.93108E+03
  7.12480E+02  4.38992E+03 -8.08046E+03 -6.85034E+02 -5.41800E+03  7.69796E+02  1.72600E+03 -2.37609E+03
  1.02937E+03 -1.36565E+03  1.89973E+03 -2.62043E+03 -2.14454E+03  1.42425E+03 -4.93161E+03  5.38650E-01
 -2.60167E+02 -5.08075E+03  1.27161E+03 -3.49456E+03  2.32488E+03 -1.38546E+03 -2.86879E+03  2.98576E+03
  4.80842E+03  2.02896E+03  1.55309E+02 -1.38263E+03  3.63523E+03  6.52844E+03  5.88580E+02  2.58598E+03
 -2.54037E+03  2.04085E+03 -4.25314E+03 -1.73728E+03 -3.82830E+02 -3.05426E+03 -1.10753E+03 -3.01069E+03
  3.50550E+03  1.52796E+03  2.46365E+03  1.50004E+03  3.53319E+02 -2.49920E+03 -1.69193E+02  8.10561E+02
  3.04274E+03 -4.83130E+03 -9.06165E+02  8.82209E+03  3.49334E+03  3.15588E+02  2.13481E+03  3.83409E+03
 -1.35655E+02  1.44187E+03 -2.64084E+03  4.26869E+03 -6.16125E+02  3.71111E+03 -6.46926E+03  4.60992E+03
 -1.05734E+03 -5.06089E+03 -1.90270E+03 -7.08870E+03  2.64906E+03 -2.85626E+03  5.75297E+03 -1.27240E+03
  3.23077E+03  1.91519E+03 -1.36357E+03  9.34001E+02 -4.16334E+02 -4.48431E+01 -1.57086E+03  5.25797E+02
  2.08301E+02 -2.53917E+03  6.85574E+02 -2.04405E+03  4.20317E+03  1.76296E+02  2.24368E+03  2.95350E+03
 -3.09396E+03  3.17144E+03 -2.50094E+01 -2.70170E+02  7.26360E+02  6.31946E+01  1.24138E+03  6.57305E+02
 -2.09272E+03  2.78578E+03  3.88317E+02 -2.04063E+03  1.62961E+03  1.56169E+03 -2.58099E+03 -2.91999E+03
  1.32450E+02 -2.27222E+03 -2.35412E+03 -9.99577E+02 -4.33687E+03 -8.88693E+02  8.17217E+02  8.62618E+02
  3.86620E+03 -3.02688E+03  2.78992E+03 -2.79063E+03  1.22471E+03 -2.81040E+03  6.82655E+02  1.82998E+03
 -1.02674E+03 -1.34702E+03 -1.40542E+03 -4.05358E+03  6.07437E+02 -4.60430E+03  1.27246E+03  1.41029E+03
  1.46097E+02  4.79247E+02 -2.46650E+03 -4.88956E+02 -3.15555E+02 -7.81960E+02  2.39609E+03 -1.07564E+03
  1.58420E+03 -8.99883E+02  3.17942E+02 -5.79520E+02  1.35445E+03  1.28234E+03  7.62114E+02 -1.08913E+03
  1.75280E+03 -3.55216E+02  5.90599E+02 -2.88473E+02  9.48817E+02 -1.73936E+03  4.16614E+02  4.50710E+03
 -2.74187E+03 -5.55664E+02 -4.15634E+03 -4.02592E+03 -2.28311E+03  7.41739E+02 -1.62502E+03 -2.18583E+03
  7.15394E+02  5.56399E+02  3.88812E+02 -2.59389E+02  2.78752E+02  2.03879E+03 -2.27799E+02  1.56420E+03
 -9.30832E+02  7.41303E+02 -1.46527E+03 -3.51377E+01 -1.54130E+03 -1.03294E+03 -3.86781E+03  5.71928E+02
  5.09674E+02  2.11964E+03 -4.31663E+02 -2.87365E+03  1.49982E+03  1.59874E+03 -2.45942E+03 -1.83114E+03
  7.19040E+02  2.92116E+03  9.51900E+01 -6.76407E+03  4.12886E+03  1.93190E+03  4.85862E+03  2.04422E+03
 -3.67622E+03  5.74994E+02  1.31697E+02  4.16904E+03  7.99814E+02  3.23707E+03  2.01445E+03  2.89407E+03
 -1.58673E+03  6.34882E+02  3.86518E+02  3.36113E+02  3.44123E+03  4.59970E+02 -6.48222E+02 -1.95926E+03
 -2.92548E+03 -3.77373E+02  2.03504E+03 -2.58878E+03 -2.79177E+03 -2.51824E+03  4.72263E+03 -1.63547E+03
  1.91444E+03 -4.67560E+03 -2.31773E+03 -2.25301E+03 -1.14548E+03 -8.50569E+01 -2.23319E+03  2.56471E+03
  1.84171E+03  1.99912E+03 -7.73097E+01  2.03330E+03 -2.24515E+03  1.78937E+03  7.23122E+02  1.28078E+02
 -3.09214E+03 -1.16717E+03 -4.39592E+03 -2.48163E+03 -2.03842E+03  1.17042E+02 -1.84220E+03  1.54192E+03
 -5.38103E+02 -2.36756E+03  2.11127E+03 -9.40099E+02  1.09223E+03  1.22271E+03  2.89134E+03 -1.75708E+03
  8.83079E+02 -4.56068E+03 -3.74621E+02  3.57577E+03  7.01968E+02 -2.51862E+03 -1.55488E+03  4.57581E+02
 -1.40393E+03  5.18349E+03 -1.65060E+02 -2.24548E+02  2.45566E+03  2.25426E+03  9.85900E+02  2.79193E+03
  3.67386E+03  6.52035E+02 -9.10016E+02 -6.03698E+02 -5.99863E+02  1.59802E+02  6.47567E+02  2.12733E+03
  1.90500E+03  1.81486E+01 -9.03521E+02 -1.17145E+03  3.23654E+02  4.55122E+02 -2.24196E+03  6.16884E+02
 -7.32080E+02 -4.41397E+02 -2.95125E+03 -2.05691E+03  9.35869E+02  3.21071E+03  1.64658E+03 -3.60043E+03
 -2.75628E+03 -3.85934E+03 -1.64346E+03  6.38664E+02 -3.87175E+02 -4.11686E+03  7.81304E+01 -3.99875E+02
 -1.63785E+03  6.81471E+02 -9.02939E+02 -6.17188E+02 -1.44374E+03 -2.54838E+03  2.81833E+03 -9.12764E+02
