 $NMID ID='MM_0lb_SNR50_19hz_g55_81.RAW', FMTDAT='(8E13.5)'
 TRAMP=1., VOLUME=1. $END
  3.13056E+05 -3.11863E+03  3.35128E+05  2.48678E+05  8.44717E+04  3.38609E+05 -1.37445E+05  2.52510E+05
 -1.93691E+05  7.91377E+04 -1.14109E+05 -3.69115E+04 -7.26829E+02 -4.97365E+04  4.97945E+04 -7.81296E+02
  3.46637E+04  4.93021E+04 -1.94627E+04  7.42649E+04 -5.96645E+04  6.29289E+04 -8.14782E+04  2.73775E+04
 -8.11157E+04 -1.28831E+04 -5.46349E+04 -5.21073E+04 -1.44775E+04 -6.56119E+04  2.80351E+04 -4.66774E+04
  4.03089E+04  1.97489E+03  1.54564E+04  4.96503E+04 -3.90728E+04  4.77373E+04 -6.33668E+04 -1.21107E+03
 -5.17980E+04 -5.91600E+04 -1.00139E+04 -7.16592E+04  3.33468E+04 -5.28405E+04  5.14847E+04 -1.56341E+04
  4.16471E+04  1.14153E+04  3.03111E+04  2.93289E+04  1.80203E+04  2.92117E+04 -2.76867E+03  2.47092E+04
 -2.12937E+04  1.36847E+04 -1.75064E+04 -2.41746E+03  4.19260E+03 -6.71104E+03  2.35607E+04  1.29537E+04
  7.66973E+03  3.18292E+04 -2.53227E+04  3.54357E+04 -6.52698E+04  6.09264E+03 -5.60436E+04 -4.20125E+04
 -1.20889E+04 -5.83157E+04  3.91687E+04 -4.12957E+04  5.42817E+04 -3.81428E+03  3.52821E+04  3.09727E+04
 -5.04745E+03  3.65408E+04 -2.71702E+04  1.41017E+04 -2.57749E+04 -5.05859E+03 -1.63510E+04 -8.63548E+03
 -5.59984E+03 -7.21422E+03  5.09985E+02 -2.22528E+04  7.51537E+03 -2.26726E+04  1.63440E+04 -1.10230E+04
  1.30195E+04 -5.09744E+02 -7.92068E+03  1.53230E+04 -2.10306E+04 -9.75349E+02 -9.69052E+03 -3.19036E+04
  2.12314E+04 -4.42935E+04  4.52689E+04 -1.95421E+04  4.62556E+04  2.31675E+04  1.24011E+04  3.93549E+04
 -1.42538E+04  3.28787E+04 -2.63565E+04  8.54432E+02 -1.47575E+04 -2.58688E+04  2.61673E+04 -2.80694E+04
  4.00070E+04 -8.87557E+03  3.48721E+04  2.23138E+04  1.24388E+04  4.27628E+04 -1.16572E+04  4.81755E+04
 -2.67028E+04  3.13544E+04 -4.46750E+04  6.33545E+03 -3.86241E+04 -1.60772E+04 -2.16548E+04 -3.34937E+04
  8.55940E+03 -3.23226E+04  2.66464E+04 -1.58348E+04  2.57018E+04  1.17546E+04  1.58165E+03  2.03526E+04
 -1.18358E+04  1.12132E+04 -5.46468E+03 -7.90952E+03  9.98503E+03 -9.68292E+03  2.37957E+04  4.23953E+03
  8.22905E+03  2.29103E+04 -1.05751E+04  2.43989E+04 -2.24545E+04  7.14467E+03 -2.34865E+04 -6.60718E+03
 -1.70253E+04 -1.87410E+04 -2.02962E+03 -1.21307E+04  1.67406E+03 -1.57032E+04  1.37087E+04 -1.58244E+04
  2.65650E+04 -1.04283E+04  2.85439E+04  2.66911E+03  2.42188E+04  1.82010E+04  3.46485E+03  3.21976E+04
 -1.48714E+04  2.66043E+04 -2.46266E+04  5.17394E+03 -1.99774E+04 -7.76787E+03 -5.96044E+03 -1.60771E+04
  3.28357E+03 -4.08879E+03  2.60099E+03  4.73374E+03 -1.24815E+04  8.10326E+03 -1.51969E+04 -2.04702E+03
 -9.94915E+03 -1.57665E+04  5.72848E+03 -2.13307E+04  1.39549E+04 -1.70667E+04  1.53128E+04  3.98481E+03
  8.43083E+03  9.95415E+03 -7.91243E+02  1.30963E+04 -7.53408E+03  7.40423E+03 -1.77239E+04 -2.99472E+03
 -9.62024E+03 -1.51779E+04 -1.61693E+03 -2.22681E+04  6.88839E+03 -1.74313E+04  1.60398E+04 -8.37983E+03
  1.35617E+04 -2.38475E+03  9.53695E+03  6.21159E+03  5.64874E+03  5.47132E+03  6.11641E+03 -3.50731E+02
  1.21971E+04 -3.42017E+02  1.41045E+04  9.86444E+03  1.18119E+04  2.61958E+04 -3.48938E+03  2.53638E+04
 -1.46435E+04  2.14717E+04 -2.86342E+04  1.07060E+04 -2.53131E+04 -4.85625E+03 -2.32025E+04 -1.33744E+04
 -9.08337E+03 -2.44695E+04  5.11080E+03 -2.05630E+04  1.82056E+04 -1.29552E+04  2.05562E+04  6.54376E+03
  5.39128E+03  1.49133E+04 -4.92470E+03  1.31914E+04 -1.74987E+04  1.81105E+03 -1.29728E+04 -9.50740E+03
  9.47562E+02 -1.37859E+04  5.06363E+03 -7.02528E+03  6.33178E+03  1.25413E+03 -3.46242E+02  3.94318E+03
 -8.99921E+03  4.47517E+03 -9.11437E+03 -4.91559E+03  1.67281E+03 -1.11496E+04  1.18569E+04 -8.99703E+03
  7.01500E+03 -1.78881E+03  1.61822E+04  1.83826E+03  6.92132E+03  8.39804E+03  4.70078E+03  1.40336E+04
 -3.04053E+02  1.34492E+04 -1.15651E+04  4.31192E+03 -1.58327E+04  5.58460E+03 -7.98506E+03  2.68452E+02
 -8.20024E+02 -1.13945E+03 -1.14841E+02  5.82893E+02  1.11895E+03  2.77465E+03 -3.71041E+03  2.62109E+03
 -7.93939E+03  1.48975E+03 -7.91988E+03 -8.95278E+03 -2.92767E+03 -1.40760E+04  3.88138E+03 -7.74816E+03
  6.51240E+03 -3.14185E+03  8.15616E+03  2.20077E+03  9.16841E+02  4.33115E+03 -2.94691E+03 -2.50586E+03
 -7.27503E+01 -3.74292E+03 -2.04751E+03 -1.03430E+04  6.23395E+03 -1.05328E+04  1.10511E+04 -3.43785E+03
  1.10984E+04  1.90459E+03  9.58327E+03  4.59683E+03  3.30747E+03  1.03124E+04 -6.29543E+03  9.06915E+03
 -6.58738E+03  4.92594E+03 -3.63521E+03  1.08042E+03  2.92115E+02 -2.43161E+03  6.83064E+03  1.92929E+03
  5.82653E+03  2.14222E+03  6.65084E+02  8.95457E+03 -2.88788E+03  7.47890E+03 -6.34018E+03  7.67252E+02
 -1.69553E+03 -3.51389E+03  4.10972E+03 -2.77069E+03 -2.59364E+02  2.83007E+02 -4.05374E+02 -6.66338E+03
  2.67179E+03  3.51418E+03 -2.70448E+03  5.21047E+03 -4.06599E+03  3.78099E+03 -5.59004E+03 -1.86438E+03
 -2.31341E+03 -3.03336E+03  4.40031E+03 -7.45241E+03  3.65906E+03 -2.76815E+03  8.18953E+03 -5.11634E+02
  4.95835E+03  7.61310E+03  9.75714E+01  1.22633E+04 -5.63224E+03  7.03705E+03 -7.87598E+03 -3.49295E+03
 -7.61757E+03 -5.89043E+03 -7.13270E+02 -3.52486E+03  4.82697E+03 -1.07951E+04  4.23929E+03 -9.40157E+03
  5.32255E+02 -2.11119E+03  1.26907E+03  2.06993E+03 -6.77262E+02 -8.22281E+02  2.55869E+03 -4.42283E+03
  4.88758E+03 -5.00245E+02  5.06183E+03  5.20281E+03  4.45840E+03  5.40544E+00  5.29548E+03  5.70900E+03
  1.84246E+03  7.85967E+03 -5.65395E+03  4.05102E+03 -8.83772E+03  2.96826E+03 -8.24285E+03 -4.64850E+03
 -2.35172E+02 -4.80513E+03 -4.19675E+03 -4.17901E+03 -2.58757E+02 -2.86975E+03  2.46398E+03 -9.63602E+01
  8.04358E+02 -2.12239E+03 -1.48572E+03 -2.97994E+03  6.09032E+03 -1.10952E+03  4.43303E+03 -6.44299E+02
  7.18928E+03 -1.62171E+03  4.60035E+03  5.04025E+03 -5.18277E+03  2.56880E+03  4.94010E+02  1.72896E+03
 -3.73157E+03 -1.81073E+03  1.09753E+03 -7.54577E+03  4.25804E+03 -1.19656E+04  1.82287E+03 -4.18702E+03
  7.93269E+03 -3.96968E+03  3.55484E+03 -2.56873E+03  9.58853E+03  3.92277E+03  3.46883E+03  7.63703E+03
 -5.39540E+03  4.15203E+03 -6.86608E+03  3.68648E+03 -5.38991E+03 -3.47306E+03 -5.34234E+03 -5.62455E+02
  1.85110E+03  2.82390E+03  9.83105E+02  2.78238E+03 -2.89245E+03  1.98583E+03 -6.09570E+03 -5.17077E+02
 -1.22834E+03 -1.92562E+03 -1.39574E+03 -5.83955E+03  4.24306E+03 -3.30962E+03  2.64952E+03  1.93581E+03
  6.24756E+03  5.41438E+03  1.22410E+03  5.41073E+02 -5.37327E+03  5.90968E+03 -1.16877E+03  2.77253E+03
 -5.96433E+03 -4.99866E+03 -5.25649E+03  6.25059E+02 -3.33344E+03 -2.87863E+03 -7.59546E+02 -1.08652E+03
  7.04025E+03  3.64892E+03  5.79872E+02  1.67367E+03 -1.04846E+03  1.83098E+03  2.22476E+01 -3.25743E+03
  1.56667E+03 -4.30883E+03  1.01219E+03  1.79550E+03  7.16185E+03 -5.33051E+02  1.91034E+03  5.89192E+02
  6.28166E+02  2.46472E+03 -2.42100E+03  5.57920E+03 -5.20611E+03  1.06173E+03 -2.27427E+03  1.89962E+03
  3.34369E+02 -4.86734E+03 -2.21872E+02 -7.05780E+03  1.71616E+03 -3.02310E+03 -2.27206E+03 -2.04130E+03
 -3.43499E+03  4.18155E+03  5.73772E+02  7.62297E+03  2.05752E+03  1.38008E+03  3.22409E+03  3.35265E+03
 -1.87446E+03 -9.52118E+02  2.81490E+03  1.95472E+01  1.72582E+03 -6.28234E+02 -2.95838E+02  4.48627E+02
 -6.50891E+02 -1.48739E+03  2.45491E+03 -1.39080E+03 -7.04873E+02 -1.13180E+03 -9.69205E+02 -1.67714E+01
 -5.73756E+03  2.86698E+02 -1.78604E+03 -8.92925E+02  4.86559E+03  2.62035E+03 -6.98678E+02  1.96361E+03
 -2.36780E+03 -4.72245E+01 -2.31025E+03  4.17598E+02 -4.07447E+03  1.91150E+03 -5.34165E+03  4.25322E+03
  9.33703E+02  1.25148E+03  1.83599E+03  3.71821E+03  1.08836E+03 -2.09231E+03  2.69055E+02  1.99035E+03
  1.74336E+03 -3.30421E+03 -1.51722E+03  2.47854E+03  4.60419E+03 -8.15762E+02 -1.24326E+03 -4.49586E+03
  2.16057E+02  1.65415E+03  1.76764E+03  2.07904E+03 -1.88207E+03 -1.85081E+03  6.94742E+02  3.59341E+03
 -1.15879E+03  1.10919E+03  3.07407E+03  2.78560E+02  1.41462E+03 -2.18866E+03  3.96103E+03  2.27018E+03
 -1.13115E+03 -3.48015E+02  4.90158E+03  1.98065E+02 -2.03338E+03 -9.27465E+02 -1.00650E+03  4.85283E+03
  2.42297E+03  3.14983E+03 -4.43942E+02 -2.02143E+03  1.44617E+02 -7.32335E+03  6.60549E+02  3.01412E+03
  3.73887E+02 -2.74143E+03  9.01314E+02 -8.34338E+02  5.83502E+03 -1.86333E+03  3.40160E+03  1.83229E+03
 -1.53159E+03  2.68517E+03  4.11756E+03  4.73325E+02  3.82784E+03  3.03262E+03 -3.63427E+03  6.53846E+02
 -2.75075E+02 -4.04829E+03 -5.11116E+03  2.67444E+03  6.30979E+02 -2.87822E+03 -2.95282E+03 -2.42436E+03
 -4.37243E+03  1.02725E+03  1.47781E+03 -2.65757E+03  2.99692E+02 -3.28504E+03  5.55720E+03  1.56424E+03
  5.51397E+03  7.36117E+02 -6.59546E+01 -3.71480E+03  7.82500E+02  9.82099E+02 -2.95648E+03 -1.10215E+03
 -1.19189E+03  1.09435E+03 -3.29059E+02  6.13044E+02 -1.48817E+03 -7.20659E+02 -1.80121E+03 -4.06758E+03
 -1.28062E+03 -5.08794E+02 -3.43622E+03  4.27569E+02  3.33535E+03 -2.04414E+03 -6.29611E+02 -1.73329E+03
 -1.81644E+03  8.89755E+01  1.48738E+03  4.74044E+03  3.31768E+03  3.43897E+02 -9.44017E+02  1.76435E+03
  3.92397E+02  1.19274E+01  1.20917E+03  1.34148E+03 -2.85461E+03 -1.76630E+03 -3.30121E+03 -2.38139E+03
 -5.11956E+03 -1.30920E+03 -2.65666E+03  1.97866E+03  2.00387E+03  2.08886E+03 -9.61642E+02 -2.88982E+03
  4.36644E+03  5.86752E+02 -1.73364E+03  2.55281E+03 -1.98827E+03  8.01000E+02 -5.36524E+02 -2.23794E+03
  1.80392E+03 -9.00213E+02 -1.00911E+02 -2.61294E+03  1.13518E+02  1.11959E+03  3.48260E+03 -4.53475E+03
  2.24216E+02 -6.89171E+02 -3.05262E+03  3.47178E+03 -5.63746E+03  2.29653E+03  3.39424E+03 -5.90563E+02
  1.56993E+03 -1.09509E+03 -1.89541E+03 -1.69670E+03  2.97203E+03  3.29898E+03  1.26018E+03  2.76802E+03
  3.17570E+03  1.96732E+03 -9.29878E+01  3.76212E+03 -9.53647E+02  2.78842E+03 -1.11876E+03 -4.21063E+02
 -2.10246E+03 -2.61222E+03 -2.98620E+03  5.26211E+01  1.23793E+03 -2.40536E+02 -7.25649E+03  1.96636E+03
  1.10083E+03 -3.97785E+03  1.46267E+03 -4.25559E+03  3.32432E+03 -8.24631E+02  3.31823E+03 -3.64212E+03
  2.94352E+03 -3.38011E+02 -1.93209E+03 -2.58407E+03 -2.30186E+03  4.56979E+03 -4.87403E+03  4.24011E+03
