 $NMID ID='MM_0lb_SNR50_17hz_g45_55.RAW', FMTDAT='(8E13.5)'
 TRAMP=1., VOLUME=1. $END
  3.09077E+05 -2.20439E+03  3.37970E+05  2.52752E+05  8.14759E+04  3.34561E+05 -1.35543E+05  2.48140E+05
 -1.91495E+05  8.45587E+04 -1.16958E+05 -3.28433E+04 -1.55451E+03 -4.98741E+04  5.48848E+04 -2.28065E+03
  4.06295E+04  5.02515E+04 -1.50992E+04  7.19997E+04 -6.07604E+04  6.02940E+04 -8.75497E+04  3.11703E+04
 -7.96921E+04 -1.25944E+04 -5.92998E+04 -5.48950E+04 -1.99606E+04 -6.80019E+04  2.48128E+04 -4.84249E+04
  3.81133E+04  3.87427E+03  1.59133E+04  4.34072E+04 -3.11338E+04  4.45460E+04 -6.66732E+04  8.75415E+02
 -5.03759E+04 -5.57669E+04 -4.72655E+03 -8.02893E+04  3.44601E+04 -5.72618E+04  4.51814E+04 -1.72039E+04
  3.65955E+04  9.85975E+03  3.64641E+04  2.50824E+04  1.90620E+04  3.05520E+04 -9.43442E+03  2.91451E+04
 -2.07414E+04  1.52095E+04 -1.87413E+04 -7.26178E+02  4.66146E+03 -4.71407E+03  2.14349E+04  1.09163E+04
  1.10529E+04  3.42077E+04 -2.71046E+04  3.32536E+04 -6.08114E+04  2.13205E+03 -5.88466E+04 -4.06450E+04
 -1.22405E+04 -6.21101E+04  3.66810E+04 -4.00829E+04  5.56160E+04 -2.72123E+03  3.23332E+04  3.21246E+04
 -1.09628E+04  3.31993E+04 -3.31318E+04  1.21929E+04 -2.75486E+04 -8.06671E+03 -1.40293E+04 -1.33173E+04
 -8.63029E+03 -1.27686E+04  9.76294E+02 -1.51229E+04  5.49306E+03 -2.52788E+04  1.76638E+04 -1.91212E+04
  8.13518E+03  3.91472E+03 -8.14111E+03  1.46713E+04 -1.77645E+04 -3.72903E+03 -8.62410E+03 -3.23419E+04
  1.99535E+04 -4.20321E+04  4.56029E+04 -1.80969E+04  4.31465E+04  2.13339E+04  9.12394E+03  3.99045E+04
 -1.52382E+04  3.45439E+04 -2.35204E+04  4.66333E+03 -1.21598E+04 -2.99373E+04  2.01662E+04 -3.25250E+04
  3.89712E+04 -8.53465E+03  2.73008E+04  2.54955E+04  1.26817E+04  4.44133E+04 -9.17219E+03  4.61306E+04
 -3.37180E+04  3.12749E+04 -3.67442E+04  1.28252E+04 -3.83234E+04 -1.75180E+04 -2.09797E+04 -3.84179E+04
  4.97552E+03 -3.72417E+04  2.92727E+04 -1.62663E+04  3.12813E+04  1.07333E+04  3.72929E+03  2.28376E+04
 -1.49069E+04  7.26309E+03 -8.66257E+03 -8.94195E+03  8.95918E+03 -1.04018E+04  1.68750E+04  5.30742E+03
  1.15412E+04  1.84864E+04 -6.37547E+03  2.09579E+04 -2.54457E+04  1.19651E+04 -2.31162E+04 -7.12125E+03
 -2.10421E+04 -1.72178E+04 -4.17919E+03 -1.80711E+04  3.15490E+03 -1.54574E+04  1.70431E+04 -1.52029E+04
  2.47709E+04 -6.59418E+03  3.34920E+04  9.92194E+02  2.56591E+04  1.62501E+04  5.75776E+02  3.14819E+04
 -1.66529E+04  2.90539E+04 -2.74140E+04  5.73450E+03 -2.00857E+04 -1.10327E+04 -1.76188E+03 -1.02997E+04
  2.10927E+03 -2.72048E+03  1.55144E+03  5.39901E+03 -1.73296E+04  4.55627E+03 -1.57389E+04 -5.85077E+03
 -1.32487E+04 -1.49148E+04  5.26248E+03 -1.87249E+04  1.19289E+04 -1.38117E+04  1.60300E+04 -2.73707E+03
  1.00335E+04  8.98584E+03  3.79644E+03  1.78558E+04 -1.15086E+04  1.08923E+04 -1.94518E+04 -4.87010E+03
 -8.19305E+03 -1.63209E+04 -1.80611E+03 -2.12706E+04  8.52233E+03 -1.75849E+04  1.57358E+04 -1.00330E+04
  1.53105E+04 -2.23651E+03  1.63745E+04  5.39576E+03  6.56490E+03  4.30031E+03  1.11396E+04 -3.95070E+03
  1.43333E+04  2.74587E+03  1.46603E+04  1.62660E+04  1.30129E+04  2.82440E+04  2.03320E+02  2.58201E+04
 -1.43523E+04  1.93899E+04 -2.67980E+04  1.45505E+04 -2.59993E+04 -3.38406E+03 -2.08263E+04 -1.34253E+04
 -9.72410E+03 -2.16934E+04  8.68594E+03 -1.82407E+04  1.54765E+04 -9.26599E+03  1.36744E+04 -2.25505E+03
  7.85692E+03  6.88163E+03 -6.74869E+03  1.21434E+04 -1.30105E+04  3.33620E+03 -9.32532E+03 -8.17570E+03
 -3.80551E+03 -1.09869E+04  7.58424E+03 -1.01144E+04  1.08910E+04 -9.30073E+02  2.14769E+03  9.69577E+03
 -3.92043E+03  3.21943E+03 -2.61880E+03 -2.01844E+03 -1.47159E+03 -1.26776E+04  7.47065E+03 -9.75019E+03
  1.25318E+04 -3.78803E+03  1.06086E+04  2.32618E+03  8.44698E+03  1.51148E+04  6.87811E+03  1.38634E+04
 -2.19507E+03  1.96839E+04 -5.26821E+03  9.87891E+03 -1.11833E+04  4.88366E+03 -1.03877E+04  2.60631E+03
 -6.91224E+03 -6.74291E+03 -2.80268E+03 -1.07021E+03  4.15398E+03  5.06101E+03  8.09618E+02  5.31769E+03
 -5.51246E+03 -8.20674E+02 -1.21939E+04 -7.67220E+03 -5.05616E+03 -9.50455E+03  1.69004E+03 -5.62222E+03
  9.54375E+03 -5.30853E+03  6.17515E+03  4.82808E+02 -1.37644E+03  5.79740E+03 -6.51512E+03 -1.39104E+03
 -1.82409E+03 -5.90098E+03 -3.38898E+03 -3.94876E+03  5.84188E+03 -1.05267E+04  3.61345E+03 -5.02478E+03
  1.23302E+04  2.04620E+03  6.50536E+03  7.69175E+03  5.28246E+02  8.68330E+03 -1.14383E+04  1.20880E+04
 -5.99208E+03  1.83924E+03 -1.78650E+03  5.19633E+02  1.11217E+03 -3.14742E+03  8.11615E+03 -5.95187E+02
  6.79345E+03  4.58851E+03  2.34715E+03  9.67649E+03 -2.51017E+03  9.53259E+03 -5.11024E+03  1.40161E+03
 -1.60978E+03 -1.07867E+03  3.73702E+03 -7.58011E+03  2.26338E+03 -3.09839E+02  2.02889E+03  1.59518E+03
  1.49324E+03  1.90703E+03 -6.26087E+03  4.32238E+03 -5.96335E+03  6.73301E+02 -2.66362E+03  4.41863E+03
 -2.18595E+03 -9.51323E+03  5.62995E+02 -4.28915E+03  7.51355E+03 -1.08484E+03  6.31792E+03 -2.38965E+03
  3.30794E+03  4.69560E+03  6.03905E+02  8.61489E+03 -4.40421E+03  7.05916E+03 -5.08447E+03 -9.98986E+02
 -7.63986E+03 -5.86713E+03 -2.50092E+03 -2.58509E+03  1.47645E+03 -6.25860E+03  2.74551E+03  2.56201E+03
 -4.57266E+03 -1.27761E+03  3.62031E+03  2.62931E+03  2.53051E+03 -1.29967E+03  2.94222E+03 -5.20472E+03
  1.73090E+03 -2.66057E+03  7.21813E+03 -8.53031E+02  8.45810E+03  1.86767E+03  6.71573E+03  7.52344E+03
 -7.30003E+02  6.92370E+03 -7.44195E+03  8.67784E+03 -1.31780E+04  2.09429E+03 -8.59355E+03 -1.84543E+03
 -9.27535E+03 -5.19667E+03 -3.69055E+03 -7.34392E+03  3.50223E+03 -2.65715E+03  1.01318E+04 -2.64716E+03
 -5.12196E+03 -4.40766E+03  1.18969E+03 -1.84729E+03  9.51044E+03  5.13604E+02  7.56893E+03 -2.03214E+03
  1.04265E+04 -3.18680E+02  1.31669E+03  2.69947E+03 -7.18574E+03  3.39718E+03 -1.03217E+03  1.65843E+03
 -6.82460E+03 -1.61635E+03 -6.48590E+02 -5.68064E+03  3.76718E+03 -6.89965E+03  2.03272E+03 -8.63703E+03
  6.68737E+03 -3.35272E+03  1.23376E+04  3.33896E+02  7.02845E+03  3.66741E+03 -1.95620E+03  8.49940E+03
 -1.84978E+03  3.50081E+03 -3.72814E+03  1.39056E+03  4.96847E+03  2.00068E+03  3.42772E+03 -3.76742E+03
 -6.90643E+02 -1.18960E+03 -3.10647E+03  4.32411E+03 -2.97742E+03  3.01192E+03 -4.45602E+03  1.59135E+03
 -4.55719E+03 -2.72292E+03  4.18456E+03 -4.15137E+03  2.69831E+03 -8.06059E+03  2.18284E+03 -2.16536E+03
  9.11919E+03 -7.22436E+02  3.14295E+03  7.41130E+03 -3.78907E+03  5.52218E+03 -2.50134E+03 -2.32445E+03
 -3.18209E+03 -6.33206E+03 -6.34980E+03  7.73021E+02  1.25526E+03  2.02113E+03  6.72288E+02 -2.47183E+03
  7.11409E+03 -1.91425E+02  2.32240E+03 -5.95733E+02  2.68727E+03  2.19221E+03  2.65567E+03  1.88425E+03
  3.70312E+02  5.47936E+02  1.65887E+03 -3.18066E+03 -1.41656E+02  4.38400E+03  1.40382E+03 -9.20763E+02
  4.00513E+03  2.48884E+03  7.36045E+02  3.93249E+03 -3.18076E+03 -4.42073E+03 -7.88588E+03 -1.16746E+03
  1.32430E+03 -5.42195E+03  2.70540E+02 -1.00094E+04  6.50519E+03  3.33852E+03 -4.27978E+02 -3.35763E+03
  2.17028E+03 -1.86168E+03  2.22894E+03  2.77574E+03 -1.29604E+03  1.71746E+03 -1.66576E+03 -1.84169E+03
  8.34567E+02  1.82787E+03  1.27502E+03 -7.10505E+02  2.66690E+03 -2.27613E+02  1.80476E+01 -5.71147E+02
  2.63071E+03  3.39733E+03 -1.26671E+03 -1.74682E+03  1.43207E+03  2.49359E+03  1.28124E+03  1.47115E+03
  1.29249E+03 -2.19112E+03  2.23392E+03  1.09290E+03  3.05691E+03  6.86585E+03  2.43746E+02  3.89095E+01
  1.04802E+03 -1.78391E+03 -5.04595E+02  2.81167E+03 -1.35381E+03 -3.94428E+03 -4.16514E+03 -3.10128E+03
 -5.61093E+03 -9.74227E+02  4.44373E+03 -2.85942E+03 -1.52411E+03  2.06442E+03 -1.66185E+03 -3.58513E+03
 -3.22483E+03  5.05595E+02 -4.40613E+03 -3.94116E+03 -1.30929E+03 -4.76911E+03  1.89570E+03 -3.44139E+03
  1.22909E+03 -5.86757E+03  1.56439E+03  1.45389E+02  2.23679E+03  2.73446E+03 -2.64606E+03 -1.01742E+03
 -3.64378E+03  2.40229E+03 -1.20407E+03 -7.41925E+02  1.54568E+03 -6.55397E+02  2.98031E+03  8.81488E+02
  4.43921E+03  4.06860E+01  1.78473E+03 -2.56467E+03 -6.90388E+02  1.74563E+03  2.19281E+03  1.76566E+03
  4.06712E+02  1.96623E+03 -3.87609E+03 -2.17132E+03 -8.30905E+01  2.01472E+03 -2.84969E+03 -4.84011E+03
 -1.16863E+03 -3.82228E+03 -2.33352E+02 -3.11261E+03 -2.56293E+03 -4.51701E+03 -1.56718E+03 -1.76535E+02
 -4.97841E+02 -4.24937E+03 -5.80710E+02 -1.54847E+03 -9.85293E+02  6.80858E+01 -1.07554E+03  1.74693E+03
  4.34388E+02 -4.84300E+03  4.73164E+02  4.40112E+03 -1.19919E+03  6.79989E+02 -3.42933E+03 -2.49923E+03
  1.23061E+03 -8.35876E+03  2.42519E+03 -2.02150E+03  6.11236E+03 -2.04565E+02  5.99191E+03  1.32163E+03
  2.71991E+03  4.71712E+02 -1.57363E+02  4.42715E+02  4.84211E+03  1.57083E+03  1.51497E+03 -4.90268E+03
 -1.98211E+03  1.02799E+03 -7.82154E+03 -6.82025E+02  1.13345E+03  2.30036E+03 -3.85143E+02  3.52716E+03
  7.12596E+02  1.07403E+03 -1.45557E+03  3.45882E+03  1.37044E+03  5.23407E+03  4.44072E+03 -1.93568E+02
  5.33490E+02 -1.53923E+03 -3.47570E+02  1.66936E+03  7.76860E+03  1.37224E+03 -1.71857E+03  3.99188E+03
 -3.91477E+03  1.71596E+03 -2.91859E+03  1.49222E+03 -6.30614E+03  5.39996E+02 -1.55429E+03  6.84949E+02
 -3.69905E+03  1.70514E+02  2.55272E+02  2.83719E+03  1.62224E+03 -2.19454E+01 -1.14754E+03 -3.08336E+03
  1.31990E+03  7.14362E+03  2.96036E+03  4.71544E+02 -1.38897E+03 -9.31633E+02 -5.81305E+03  4.40347E+03
 -1.76689E+03  1.33380E+03  2.88933E+03  5.61873E+03 -2.31697E+02  3.72091E+02 -4.06550E+03 -2.69108E+03
 -4.13812E+03  2.06482E+03 -4.78279E+03 -6.54407E+02  2.00612E+01 -3.25968E+02 -3.12621E+03  2.81275E+03
  1.42766E+03 -1.63181E+03  2.76536E+03 -2.30670E+03  6.88262E+03  1.76831E+03  5.43309E+02  3.36269E+02
  1.23612E+03  1.23262E+03 -2.10518E+02 -1.01593E+03 -1.15320E+03  5.09895E+03  3.64836E+03  1.36044E+03
 -5.93416E+03 -7.17799E+02 -1.32220E+03 -1.36211E+03 -3.68940E+03  3.40645E+03  3.25739E+03  1.36653E+03
 -2.54503E+03 -3.01581E+03  3.84433E+03 -4.46499E+03  1.16128E+03  1.56986E+03  1.62467E+03  2.13452E+02
  1.54737E+03  1.99317E+03 -2.28004E+03  6.64644E+02  1.77878E+03 -3.01547E+02  3.65351E+02 -2.38389E+02
