 $NMID ID='MM_0lb_SNR50_10hz_g60_14.RAW', FMTDAT='(8E13.5)'
 TRAMP=1., VOLUME=1. $END
  3.07484E+05  1.36311E+02  3.39943E+05  2.53447E+05  8.45344E+04  3.43904E+05 -1.34068E+05  2.49417E+05
 -1.87995E+05  8.19582E+04 -1.09008E+05 -3.57811E+04 -1.71336E+02 -4.93587E+04  5.52709E+04  4.68186E+03
  3.88995E+04  5.69973E+04 -1.42927E+04  7.57514E+04 -6.00818E+04  6.26607E+04 -8.29163E+04  3.33183E+04
 -8.39004E+04 -7.39099E+03 -6.50763E+04 -4.84108E+04 -1.05979E+04 -7.17443E+04  3.36205E+04 -5.27993E+04
  3.91048E+04  5.24314E+03  1.39734E+04  4.80310E+04 -3.67829E+04  4.51700E+04 -6.47328E+04  1.49532E+03
 -5.31546E+04 -5.34790E+04 -1.05531E+04 -8.05730E+04  2.89158E+04 -5.63574E+04  5.00095E+04 -2.07613E+04
  4.39061E+04  9.45828E+03  2.55223E+04  2.82714E+04  1.31344E+04  2.34910E+04 -3.96434E+03  3.11795E+04
 -2.86865E+04  1.29887E+04 -1.48645E+04 -7.10570E+03  5.20080E+03 -3.07801E+03  2.07950E+04  1.68929E+04
  7.63433E+03  4.04002E+04 -3.31761E+04  3.78117E+04 -7.09644E+04  4.22596E+03 -5.83129E+04 -4.11990E+04
 -1.36802E+04 -6.50266E+04  3.75780E+04 -4.76876E+04  5.84184E+04 -3.18136E+03  3.56846E+04  3.07364E+04
 -4.72624E+03  4.25166E+04 -3.28065E+04  1.84515E+04 -3.86500E+04  1.85059E+03 -2.07053E+04 -4.09115E+03
 -7.29622E+03 -1.93304E+04  2.01881E+03 -2.24330E+04  1.10422E+04 -2.15355E+04  1.64178E+04 -1.56967E+04
  1.24156E+04  1.98156E+03 -8.01732E+03  6.42214E+03 -2.23464E+04 -3.37234E+03 -5.66650E+03 -3.21994E+04
  2.44424E+04 -4.74514E+04  5.09114E+04 -1.83312E+04  4.80234E+04  2.28372E+04  1.90200E+04  4.98019E+04
 -1.70414E+04  3.46057E+04 -2.96267E+04  4.04400E+03 -1.35166E+04 -3.18558E+04  1.77693E+04 -3.46434E+04
  4.47254E+04 -1.20104E+04  3.83646E+04  1.84040E+04  2.24239E+04  4.66246E+04 -1.33846E+04  6.05959E+04
 -3.21934E+04  3.66137E+04 -5.17909E+04  1.26205E+04 -4.31914E+04 -2.44919E+04 -3.01527E+04 -3.53886E+04
  2.09999E+03 -3.74323E+04  4.10768E+04 -2.00031E+04  2.97436E+04  9.67291E+03  7.69943E+03  1.87249E+04
 -1.69982E+04  7.32337E+03 -1.42294E+04 -4.57851E+03  3.59815E+03 -5.09737E+03  1.46872E+04  4.88375E+03
  9.81300E+03  1.96506E+04 -2.18272E+03  3.05829E+04 -2.61200E+04  2.09513E+04 -2.93288E+04 -5.99066E+03
 -2.24885E+04 -1.10867E+04 -5.16910E+03 -2.76102E+04  2.06283E+03 -2.02839E+04  1.14583E+04 -2.35344E+04
  3.39309E+04 -1.45432E+04  3.92682E+04  3.48844E+03  2.80689E+04  1.88399E+04  4.28404E+03  4.24635E+04
 -2.11849E+04  3.92088E+04 -3.16604E+04  1.48332E+04 -2.84459E+04 -1.11505E+04 -1.23092E+04 -1.23377E+04
  1.07528E+03  3.77641E+03 -4.70835E+03  5.16528E+03 -2.39226E+04  2.87088E+03 -1.79945E+04 -1.44246E+04
 -1.38251E+04 -3.06288E+04  4.26501E+02 -2.83922E+04  2.31841E+04 -1.93961E+04  2.43300E+04 -3.51160E+03
  1.44107E+04  1.43736E+04 -1.79825E+03  1.91862E+04 -1.53096E+04  9.98968E+03 -3.18390E+04 -3.34900E+03
 -1.76113E+04 -2.04224E+04 -5.36831E+03 -2.99669E+04  6.56098E+03 -1.91212E+04  2.47950E+04 -8.56042E+03
  2.09985E+04 -9.69604E+03  1.27505E+04  3.13853E+03  1.51722E+04 -1.71910E+02  1.27616E+04 -1.46017E+03
  1.87614E+04 -9.20937E+03  2.03234E+04  2.17776E+04  1.80443E+04  4.47800E+04 -6.16245E+03  4.45161E+04
 -2.19869E+04  3.76109E+04 -4.14121E+04  2.55998E+04 -4.32008E+04 -1.00078E+03 -4.04185E+04 -3.11501E+04
 -1.38770E+04 -3.58097E+04  1.10305E+04 -3.86604E+04  2.63228E+04 -1.83974E+04  2.60680E+04  5.94059E+03
  8.69042E+03  1.86328E+04 -7.44399E+03  1.40129E+04 -1.49168E+04 -1.36223E+03 -1.95228E+04 -1.08818E+04
 -1.22098E+03 -1.95060E+04  1.27658E+04 -4.96915E+03  1.66697E+04  1.93109E+03 -4.91101E+02  1.06530E+04
 -8.47393E+03  2.06240E+03 -3.69368E+03  5.16956E+02 -2.15818E+02 -1.64222E+04  7.23816E+03 -2.15912E+04
  2.14400E+04 -1.11761E+04  2.76763E+04  3.36413E+03  1.69397E+04  2.18017E+04  1.26083E+04  3.26923E+04
 -8.91602E+03  2.56461E+04 -1.83934E+04  1.33644E+04 -2.16904E+04  5.27734E+03 -1.60584E+04 -3.61825E+03
 -1.32689E+04 -6.57854E+03  3.90950E+02  1.90775E+03 -8.81264E+03  7.61488E+03 -5.31002E+03  3.67889E+03
 -5.89550E+03  1.61851E+03 -1.56137E+04 -9.37537E+03 -5.42054E+03 -2.45739E+04  6.29921E+03 -1.46680E+04
  1.47232E+04 -8.84444E+02  3.54292E+03  8.00147E+02 -2.97241E+03  6.80568E+03 -8.91302E+03 -2.74148E+03
 -1.29709E+04 -1.31402E+04 -3.17156E+03 -2.11345E+04  1.48387E+04 -1.93123E+04  2.33222E+04 -5.01464E+03
  1.27120E+04  4.24679E+03  1.77347E+04  1.09989E+04  2.12595E+03  2.26056E+04 -1.13929E+04  2.11034E+04
 -1.48228E+04  5.87583E+03 -1.09352E+04 -9.27616E+02 -3.59590E+03 -4.06685E+03  9.04526E+03 -4.59834E+03
  1.46071E+04  3.09682E+03 -3.24374E+02  2.49643E+03 -8.21240E+03  7.04625E+03 -1.78974E+04  1.46297E+03
 -1.11686E+04 -1.01071E+04 -4.69657E+03 -1.34587E+04  9.21432E+03 -8.28923E+03  2.45223E+03  3.27857E+03
 -1.80687E+02  1.26348E+04 -9.91064E+03  1.24964E+04 -1.24269E+04  1.03943E+04 -1.62278E+04  3.28547E+03
 -8.88482E+03 -1.59212E+04  7.34273E+03 -1.38913E+04  1.12178E+04 -1.43699E+04  1.53535E+04  3.48459E+03
  1.11854E+04  1.20766E+04 -3.40084E+03  1.72202E+04 -1.51371E+04  1.33767E+04 -1.70549E+04  2.56671E+02
 -1.18683E+04 -1.62915E+04 -1.05972E+04 -1.14856E+04  9.52314E+03 -7.04593E+03  6.24296E+03 -2.38369E+03
  5.02360E+03  2.01044E+03 -1.00219E+04  4.93899E+03 -5.65959E+02 -7.57821E+01  3.53193E+03 -7.51089E+03
  1.65965E+04 -1.81221E+02  2.10490E+04  7.37082E+03  1.41038E+04  3.94222E+03  9.20416E+03  1.90349E+04
 -1.75133E+03  2.46678E+04 -2.14239E+04  1.25385E+04 -2.40439E+04  3.41197E+03 -2.60192E+04 -3.40782E+01
 -4.30638E+03 -1.42714E+04 -1.42706E+03 -9.80084E+03  1.09129E+03 -7.21817E+03  8.45190E+03 -6.29618E+03
  8.95976E+03 -4.99370E+00  1.81021E+03 -4.17979E+03  8.25302E+03 -3.51681E+03  7.91713E+03 -2.09385E+03
  1.80370E+03  8.84154E+03  6.77192E+03  3.09271E+03 -6.81218E+03  8.26851E+03 -1.15135E+04  5.76117E+03
 -1.44277E+04 -7.47246E+03 -7.42607E+03 -8.20988E+03 -5.64111E+03 -1.77962E+04  4.81415E+03 -1.14645E+04
  1.51828E+04 -1.21073E+04  1.82322E+04  3.59675E+03  1.23504E+04  1.51693E+04  5.20401E+03  1.93761E+04
 -1.81619E+02  1.23602E+04 -9.11085E+03  4.85215E+03 -8.60774E+03 -2.39384E+03 -3.47673E+03 -7.07831E+03
 -5.85999E+03 -3.53314E+03 -2.72504E+03  8.79504E+03 -4.53398E+03  2.58254E+03 -1.59102E+04 -9.29679E+02
 -9.03616E+03 -1.42887E+04  8.84235E+02 -1.31148E+04  9.09025E+03 -9.83727E+03  6.90717E+03 -6.06066E+03
  1.66136E+04  1.56794E+04  8.07492E+02  1.18100E+04  1.32836E+03  1.33738E+04 -1.24846E+04  1.09328E+04
 -7.68146E+03 -3.06307E+03 -7.97287E+03 -7.61193E+03 -2.91322E+03 -7.05028E+03  3.15269E+03 -7.41936E+03
  5.73447E+03 -4.30211E+03  9.71529E+03 -1.50635E+03  1.68658E+03  6.14394E+03  5.32331E+03  8.95133E+03
  4.20108E+03  3.46166E+03  6.78783E+03  6.84933E+02  4.46312E+03  3.98200E+03  1.49438E+03  1.00480E+04
 -1.32024E+04  1.48505E+04 -1.37069E+04  1.17105E+04 -1.61958E+04  8.11343E+03 -1.47051E+04 -6.82989E+03
 -3.70292E+03 -1.21840E+04  2.60451E+03 -1.50054E+04  1.63549E+04 -1.13897E+04  7.09069E+03 -4.39660E+03
  1.21919E+04  4.14718E+02  4.32312E+03  9.38736E+03 -9.19405E+03  7.60506E+03 -1.03421E+03 -3.10900E+03
 -1.76781E+03  4.90353E+02  2.24468E+02 -5.51640E+03  5.47490E+03 -5.67390E+03  5.34125E+03  6.60864E+03
  8.07085E+03  5.72247E+03  5.91535E+03  2.99434E+03 -1.31682E+03 -1.59963E+03 -1.01659E+03 -6.36301E+03
  6.44033E+03 -3.50626E+02  4.70980E+03  7.53926E+03 -1.12721E+03  1.87282E+03  3.34093E+02  7.80678E+03
 -4.42525E+03  7.02492E+03 -9.31593E+03  2.01736E+03 -1.12021E+04 -1.43322E+03 -9.39343E+03 -1.10861E+04
 -2.66561E+03 -4.18708E+03  3.96535E+03 -2.21162E+03  3.33037E+03  4.38833E+03 -5.93065E+02  6.08810E+03
 -6.44937E+03 -4.55431E+03 -4.99373E+03 -3.25898E+03 -2.44935E+03 -9.12131E+03 -1.15570E+03 -8.11295E+03
  4.56667E+03 -8.70117E+03  5.98664E+03  2.34399E+03  6.80495E+03  9.73719E+01 -3.80380E+03  5.22488E+03
  1.05604E+03 -1.38916E+03 -3.02425E+03 -6.67524E+03  1.17474E+03 -5.20674E+03  6.97648E+03  3.06310E+03
  8.08700E+03  4.13860E+03  1.20780E+04  5.08000E+03 -3.28512E+03  6.45229E+03 -1.76191E+03  7.18492E+03
 -4.11391E+03  4.56005E+03 -1.54110E+04  7.62380E+02 -1.65844E+03 -4.79248E+03  8.91121E+03 -7.92795E+03
 -1.00869E+03 -1.03559E+04  1.46597E+03  6.82070E+02  4.37587E+03  5.77745E+03  1.50290E+03  4.32743E+03
 -6.74274E+02  1.04350E+03  2.30363E+03  5.16906E+03 -8.12494E+03  2.65508E+03  2.76933E+01  3.82612E+03
  3.30709E+03  1.78402E+03 -7.58582E+03  7.80790E+03 -5.61624E+03  6.57556E+03 -7.23227E+03 -1.11097E+04
 -6.59521E+03 -1.35576E+04  1.34777E+03 -9.78484E+03  1.35885E+04 -1.54094E+04  1.58643E+04 -4.56467E+03
  1.71526E+04  9.60881E+03  7.16191E+03  7.59914E+03  2.79783E+03  4.77256E+03 -2.23159E+03  3.66414E+03
 -9.10056E+03  2.71880E+03 -2.77445E+03 -4.15677E+03 -3.65071E+03 -6.78821E+02  2.98709E+03  3.05566E+03
 -2.98536E+03 -3.35567E+03 -2.93117E+03 -2.06993E+03  1.16453E+03  8.84059E+02  7.78687E+02 -5.39646E+03
  3.34949E+03 -7.79893E+01  6.07685E+03  7.77906E+02  2.34095E+03  6.78334E+03 -3.01842E+03  1.07806E+04
 -8.71313E+03  1.50622E+04 -1.20466E+04  5.91479E+03 -2.05241E+04 -2.51990E+02 -1.80401E+04 -5.43238E+03
 -7.41922E+03 -7.90828E+03  2.34105E+03 -8.11099E+03  3.89889E+03 -7.23253E+03  9.08837E+02 -4.23809E+03
 -2.17725E+02  7.72418E+02  5.09275E+03  3.53949E+03 -4.46998E+03  1.53516E+03  1.69098E+03 -6.90679E+03
 -3.09129E+02 -4.56098E+01  1.15256E+04  9.64419E+03  4.77105E+03  6.13923E+03 -1.20024E+03  5.68372E+03
 -2.72818E+03  5.12546E+03 -3.62416E+03  4.18633E+03 -4.64347E+03  3.05348E+03 -2.67422E+03 -7.21289E+03
  9.22816E+03 -5.45341E+03  7.02118E+03 -4.67784E+03  3.77553E+03  2.17272E+03  6.41050E+03  6.23059E+03
  2.07559E+03  5.96192E+03  5.97636E+00  2.13699E+03 -4.86708E+03  5.02573E+03 -9.27892E+03  4.84571E+03
 -7.61744E+03 -2.97581E+03 -3.55038E+03  1.22377E+03 -6.74400E+03 -7.34125E+02 -8.09367E+02 -4.67987E+03
 -6.72214E+03 -4.43588E+03 -7.25603E+02 -7.91777E+03  9.52512E+02 -7.89855E+03  5.66120E+03 -5.38155E+03
  5.19644E+02 -6.81273E+03  5.82546E+03  1.02115E+03  6.36764E+02  8.49876E+03 -2.86442E+03 -7.25028E+02
