 $NMID ID='MM_0lb_SNR50_9hz_g60_30.RAW', FMTDAT='(8E13.5)'
 TRAMP=1., VOLUME=1. $END
  3.10898E+05 -4.18620E+03  3.44940E+05  2.52940E+05  8.20296E+04  3.39059E+05 -1.35759E+05  2.45518E+05
 -1.92293E+05  8.84659E+04 -1.13145E+05 -3.22319E+04 -4.87119E+03 -4.93548E+04  5.40091E+04 -6.99539E+03
  4.40236E+04  5.77166E+04 -1.30397E+04  7.34854E+04 -6.09579E+04  6.62977E+04 -8.33533E+04  3.68424E+04
 -8.57263E+04 -1.22118E+04 -6.18503E+04 -5.54016E+04 -1.47913E+04 -6.62332E+04  2.69127E+04 -5.02094E+04
  4.51427E+04  3.73964E+03  1.85943E+04  5.31123E+04 -3.76489E+04  4.77853E+04 -6.87495E+04  8.53879E+03
 -5.20742E+04 -5.70752E+04 -2.75451E+03 -8.53831E+04  3.21460E+04 -6.46552E+04  5.19626E+04 -1.77512E+04
  3.58051E+04  7.83344E+03  3.43796E+04  2.81011E+04  1.05282E+04  2.86802E+04 -3.80009E+03  2.76678E+04
 -1.87762E+04  8.89374E+03 -2.29965E+04 -5.13723E+03  6.74069E+03 -6.29293E+03  2.08901E+04  1.89010E+04
  5.00742E+03  3.28563E+04 -3.44969E+04  3.67718E+04 -6.80864E+04 -3.22982E+03 -5.44280E+04 -5.04152E+04
 -3.20485E+03 -6.73761E+04  3.81830E+04 -4.40454E+04  5.79964E+04 -5.14834E+03  4.12645E+04  4.11539E+04
 -9.11166E+03  3.75744E+04 -3.56506E+04  2.15875E+04 -2.62791E+04 -3.85846E+03 -1.93509E+04 -1.75323E+04
 -1.20038E+04 -8.37797E+03 -2.69351E+03 -1.59644E+04  4.18882E+03 -2.75112E+04  1.38429E+04 -1.94469E+04
  1.07926E+04  6.31711E+03 -1.02793E+04  1.37996E+04 -2.46858E+04 -5.63274E+03 -6.45077E+03 -3.55352E+04
  2.76245E+04 -5.15246E+04  5.43087E+04 -2.01913E+04  5.29983E+04  2.60390E+04  1.98871E+04  4.38215E+04
 -7.66327E+03  3.39354E+04 -2.38654E+04  8.67322E+03 -6.96001E+03 -2.83096E+04  2.40867E+04 -3.38907E+04
  5.22942E+04 -1.25083E+04  4.29243E+04  2.52935E+04  1.42121E+04  5.23175E+04 -5.97552E+03  6.38788E+04
 -3.90375E+04  4.21429E+04 -5.44792E+04  1.52640E+04 -4.31579E+04 -2.97768E+04 -2.83354E+04 -4.67813E+04
  1.03152E+04 -4.13940E+04  3.22263E+04 -2.04209E+04  4.03063E+04  6.30650E+03  3.00488E+03  1.67558E+04
 -1.37227E+04  2.75220E+03 -9.40487E+03 -4.41187E+03  4.32986E+03 -9.88506E+03  2.54441E+04  4.38933E+03
  1.22389E+04  2.30457E+04 -5.34974E+03  2.89011E+04 -1.93758E+04  1.34480E+04 -3.16520E+04 -3.38616E+03
 -2.04220E+04 -1.70519E+04 -5.43246E+03 -1.89439E+04  4.29087E+03 -2.80043E+04  2.39196E+04 -2.56545E+04
  3.01225E+04 -1.90520E+04  4.58293E+04  8.06280E+03  2.81209E+04  2.46921E+04  6.09271E+03  3.24720E+04
 -1.99019E+04  3.53191E+04 -2.88387E+04  1.28421E+04 -2.49564E+04 -8.52044E+03 -8.86161E+03 -1.29478E+04
  1.45132E+03 -4.72622E+02 -7.66465E+03  5.50312E+03 -2.43976E+04  1.17449E+04 -2.59806E+04 -1.64834E+04
 -1.28038E+04 -3.13071E+04 -6.14916E+02 -3.75679E+04  1.24330E+04 -2.10093E+04  2.05381E+04 -3.91123E+03
  1.90188E+04  1.71640E+04  6.64669E+03  2.14259E+04 -1.94165E+04  1.61202E+04 -2.11754E+04 -8.31245E+03
 -1.98432E+04 -2.85596E+04 -2.66305E+03 -3.13436E+04  1.60268E+04 -2.75406E+04  2.65975E+04 -1.04052E+04
  2.04752E+04  2.41056E+03  2.55923E+04  6.24946E+03  8.70787E+03  5.21254E+03  6.01659E+03 -4.75972E+03
  2.21065E+04 -4.02957E+03  1.96886E+04  2.17349E+04  1.37381E+04  4.07495E+04 -4.06591E+03  4.59840E+04
 -2.47771E+04  3.89475E+04 -4.75238E+04  1.78338E+04 -4.84701E+04 -1.96266E+03 -3.91681E+04 -2.50003E+04
 -1.80832E+04 -3.92743E+04  1.61447E+04 -3.29786E+04  3.04123E+04 -2.40299E+04  2.25429E+04  1.55966E+04
  5.99121E+03  1.95361E+04 -9.60201E+03  1.60172E+04 -2.19800E+04  3.08257E+03 -2.39438E+04 -2.11773E+04
 -1.19833E+02 -1.29404E+04  7.08902E+03 -1.60471E+04  1.52840E+04  3.38515E+03  6.82825E+03  2.16535E+03
 -7.52526E+03  1.53343E+03 -1.04564E+04 -5.00827E+03  3.53662E+03 -2.35700E+04  1.65691E+04 -2.27336E+04
  2.55241E+04 -9.06763E+03  2.70415E+04  3.91892E+02  2.69890E+04  1.69729E+04  8.89880E+03  2.22080E+04
 -7.00803E+03  3.11695E+04 -2.02195E+04  1.63104E+04 -2.66269E+04  3.75050E+03 -2.17743E+04 -1.40401E+04
 -7.94867E+03 -4.76619E+03  6.91837E+03  1.31666E+03 -8.77313E+03  6.74471E+02  2.40031E+02  5.07646E+03
 -1.80731E+04  1.09738E+02 -1.02132E+04 -1.30145E+04 -4.77463E+03 -2.20568E+04  1.05229E+04 -1.98460E+04
  1.34906E+04 -8.13037E+03  2.61257E+02  2.97421E+03 -1.52377E+03  5.04054E+03 -2.78555E+03 -5.31789E+02
 -8.22747E+03 -9.99883E+03  2.89133E+03 -1.41053E+04  9.28147E+03 -1.14554E+04  1.57358E+04 -7.46587E+03
  2.22839E+04  4.75171E+03  1.75083E+04  1.52529E+04  2.42877E+03  1.69247E+04 -4.77982E+03  1.42943E+04
 -1.27341E+04  1.76354E+03 -1.03073E+04 -2.13480E+03  3.28643E+03 -3.02533E+03  7.62803E+03 -4.56392E+02
  8.27933E+03  4.12545E+03 -5.06028E+03  1.46481E+04 -8.40226E+03  9.13135E+03 -1.91615E+04  4.38308E+03
 -8.60195E+03 -6.01166E+03  1.49061E+03 -1.69994E+04  6.41462E+03 -1.00344E+04  1.09803E+04 -4.08777E+02
 -2.09191E+03  4.68329E+03 -1.53693E+04  1.05893E+04 -1.76338E+04  1.04216E+04 -1.24876E+04 -7.06720E+03
 -1.03749E+04 -2.26912E+04  9.71257E+03 -1.58284E+04  1.61853E+04 -1.31382E+04  2.01603E+04  4.75418E+03
  1.32175E+04  1.36902E+04  4.45445E+03  1.90357E+04 -1.07496E+04  1.28700E+04 -1.22679E+04 -1.01396E+02
 -1.27131E+04 -8.08956E+03  3.62296E+03 -1.24476E+04  1.04154E+04 -1.08826E+04  6.29128E+03 -5.85178E+03
  3.95586E+03 -1.13116E+03 -2.86070E+03 -2.38230E+02 -6.62353E+03  2.86146E+03  1.02013E+03 -8.71606E+03
  1.38946E+04 -9.27509E+03  7.91981E+03 -1.02383E+02  2.26940E+04  1.98101E+04  1.03767E+04  2.23399E+04
  1.03340E+03  1.96949E+04 -1.59662E+04  1.83789E+04 -3.26203E+04 -3.32437E+03 -1.71138E+04 -9.58669E+03
 -1.85051E+04 -1.77263E+04 -2.66174E+03 -1.57965E+04  1.24801E+03 -1.09706E+04 -1.26117E+03 -5.26938E+03
  3.60259E+03 -2.79013E+03  5.91060E+03 -9.70203E+03  3.24813E+03 -1.46354E+03  1.59372E+04 -4.80269E+02
  1.01125E+04  9.39040E+03  6.86358E+03  6.06835E+03 -2.47523E+02  9.87506E+03 -7.44605E+03  1.45556E+04
 -1.55609E+04 -2.93876E+03 -8.59993E+03 -7.28210E+03  4.11380E+03 -1.96323E+04  1.41942E+04 -1.13930E+04
  1.46788E+04 -4.16570E+03  2.38297E+04  6.03900E+03  7.27713E+03  1.78657E+04  8.38091E+02  1.92583E+04
 -8.79121E+03  1.53587E+04 -1.73521E+04  3.71846E+03 -9.99900E+03 -6.48550E+03 -1.39625E+03 -1.78000E+03
  4.95717E+03  8.12216E+03 -9.92028E+02  8.10293E+03 -6.68200E+03  2.38155E+03 -6.91884E+03  4.01609E+03
 -8.91358E+03 -1.16780E+04 -1.38944E+03 -1.65248E+04  6.34009E+03 -6.79604E+03  1.28789E+04 -6.50076E+03
  1.04365E+04  7.25829E+03  3.86247E+03  1.08138E+04 -1.70921E+03  1.43849E+04 -7.95534E+03  1.49740E+04
 -1.76900E+04  5.60987E+03 -9.06947E+03 -1.74544E+04 -2.52329E+03 -1.51978E+04  1.02960E+04 -1.76781E+04
  5.27550E+03 -4.93554E+03  4.59577E+03 -2.47334E+03  3.08073E+03  9.03458E+03  9.70557E+02 -1.09879E+02
  9.16392E+03 -3.33890E+03  7.13170E+03 -3.86179E+03  8.97031E+03  3.40611E+03  5.77219E+03  7.67938E+03
 -2.88266E+03  1.97338E+04 -1.31459E+04  1.40280E+04 -1.66977E+04  1.36869E+03 -1.62325E+04 -7.31193E+03
 -9.66652E+03 -1.69925E+04 -2.79095E+02 -1.76016E+04  7.78702E+03 -1.33135E+04  9.04147E+03 -5.95968E+03
  5.56238E+03  6.42775E+03  9.54350E+03  1.54002E+04 -6.62730E+03  6.79406E+03 -3.02140E+03 -1.35145E+02
 -5.61539E+03 -2.51983E+03  3.41390E+03 -1.26286E+04  8.13586E+03  1.25965E+02  5.22448E+03  2.12296E+03
  1.96446E+03  7.82379E+03  1.31413E+03  6.63072E+03 -2.43245E+03  8.04962E+03  2.08113E+03 -3.71660E+02
 -2.67431E+03 -1.20322E+03  6.70704E+03 -5.23262E+03  6.43416E+03  6.18938E+03  1.85467E+03  1.76844E+04
 -3.54580E+03  4.27935E+03 -9.81244E+03  3.13737E+03 -1.62090E+04  3.23397E+03 -1.22073E+03 -1.22269E+04
  4.56273E+03 -5.72400E+03  7.79569E+03 -7.52026E+03  6.20386E+03  4.38161E+03 -7.87295E+02  2.00247E+03
 -7.72710E+03  1.40625E+02 -1.11406E+04  2.80803E+03 -1.15345E+04 -1.59465E+04  3.33487E+03 -1.07890E+04
  1.36779E+04 -1.52643E+03  1.57706E+03 -2.78851E+03  1.22175E+04  6.53591E+03  2.55854E+03  8.20687E+03
  4.00722E+02 -2.94517E+03 -4.28417E+03  8.43387E+02 -2.59125E+03 -6.48213E+03  1.21081E+04 -8.97403E+03
  5.52740E+03  4.98622E+03  1.09854E+04  6.30582E+03  1.63510E+03  8.22697E+03 -3.97965E+03  1.34085E+04
 -1.32033E+04  5.49825E+03 -1.28823E+04  6.17571E+03 -4.88571E+03 -7.20330E+03 -2.87185E+03 -6.47195E+03
  1.24445E+04 -1.60447E+03  1.11684E+04 -4.50273E+02  2.88035E+02  4.18367E+03 -6.14844E+03 -5.21588E+02
 -4.46777E+03  2.32251E+03 -5.68830E+03  1.70955E+03  3.58493E+02  1.50081E+03 -2.39770E+03 -5.79980E+03
  2.09878E+03  3.70820E+03 -8.02261E+03  6.91567E+03 -9.71676E+03 -3.03931E+03 -8.35501E+03 -1.44516E+03
 -1.45837E+04 -1.26004E+04  6.64976E+03 -1.79235E+04  4.35864E+03 -8.16826E+03  1.73311E+04 -5.45874E+03
  1.28734E+04  1.09780E+04  2.97126E+03  1.21418E+04 -5.79124E+03  1.10155E+04 -4.72054E+03  7.09276E+03
 -5.36892E+03  4.24341E+03 -3.98732E+01 -1.07380E+04 -8.33655E+03 -3.85913E+02 -2.77601E+03  2.21099E+03
 -5.46058E+03 -1.52206E+03  5.47474E+02  1.54437E+03 -2.87909E+03 -3.04980E+03  2.82855E+03 -6.93245E+03
  8.74339E+02 -6.46414E+03  9.97712E+03  3.43803E+03  1.30250E+04  8.04154E+03  5.49087E+03  1.65915E+04
 -3.65638E+03  2.04998E+04 -1.62158E+04  5.03708E+03 -1.59856E+04  8.69028E+02 -7.80775E+03 -1.14579E+04
 -1.06839E+04 -9.41415E+03 -4.11229E+02 -2.90493E+03  1.15556E+04 -8.43615E+03  1.12871E+04  2.36645E+03
  2.83968E+03  2.24466E+03  6.61586E+03  4.16986E+03 -2.81350E+03 -4.40551E+03  1.71018E+02 -9.87722E+03
  3.46854E+02 -1.05314E+03  6.79905E+03 -7.33392E+03  5.91221E+03  1.27713E+04  1.03137E+04  1.07828E+03
 -3.11411E+03  5.88512E+03 -6.23338E+03  4.44367E+03 -1.59139E+03 -4.51972E+03  3.82880E+03 -1.27396E+04
  1.19184E+04 -4.50208E+03  7.88635E+03 -1.20935E+03  4.34828E+03  5.19717E+03  1.70309E+03  5.88524E+03
  3.38550E+03  8.10350E+03  9.86090E+01  6.61595E+03 -9.72279E+03  6.97322E+03  1.02116E+03  1.08375E+03
 -5.56878E+03 -2.11324E+03 -9.11714E+03 -1.18368E+03 -3.00797E+03  1.91562E+03 -1.07333E+04  7.74539E+02
 -7.24032E+03 -3.02875E+03  5.24228E+02 -1.06660E+04  3.94371E+03 -8.52321E+03  1.33968E+04 -5.23533E+03
  6.17345E+03  6.02820E+03  1.78503E+03  4.75282E+03  2.12657E+03  9.33714E+03 -3.69032E+03  8.67902E+03
