 $NMID ID='MM_0lb_SNR50_17hz_g55_62.RAW', FMTDAT='(8E13.5)'
 TRAMP=1., VOLUME=1. $END
  3.14050E+05 -1.39265E+03  3.39228E+05  2.48047E+05  8.76303E+04  3.37871E+05 -1.30721E+05  2.52028E+05
 -1.91727E+05  8.64308E+04 -1.13644E+05 -3.29488E+04 -3.39795E+03 -5.20373E+04  5.41222E+04 -1.09145E+02
  3.67326E+04  5.31111E+04 -2.03849E+04  7.59790E+04 -6.12801E+04  6.56647E+04 -8.22948E+04  3.65849E+04
 -7.84456E+04 -1.01664E+04 -5.56110E+04 -5.15056E+04 -1.67961E+04 -6.73131E+04  3.37047E+04 -4.45989E+04
  4.27678E+04  1.47408E+03  1.04393E+04  5.38534E+04 -3.31126E+04  4.79541E+04 -6.99304E+04 -1.75673E+03
 -5.39366E+04 -5.70369E+04 -2.79802E+03 -7.62269E+04  3.24432E+04 -5.25444E+04  4.62432E+04 -1.75317E+04
  4.06683E+04  1.48632E+04  3.03975E+04  2.27159E+04  1.39742E+04  2.49074E+04 -5.61611E+03  2.61780E+04
 -2.19502E+04  1.58705E+04 -1.60440E+04 -5.69981E+03  4.31949E+03 -8.13893E+03  2.11774E+04  1.41633E+04
  9.42650E+03  3.30259E+04 -2.38970E+04  3.45671E+04 -6.40502E+04  1.39692E+01 -5.67818E+04 -3.96854E+04
 -9.77222E+03 -6.28875E+04  4.11817E+04 -4.15959E+04  5.99696E+04  7.90226E+02  3.08460E+04  2.86349E+04
 -4.59206E+03  3.64570E+04 -2.78283E+04  1.06346E+04 -2.95702E+04 -5.78901E+03 -1.78297E+04 -1.13919E+04
 -6.98221E+03 -1.67975E+04 -2.22614E+03 -1.46455E+04  8.12912E+03 -2.10791E+04  1.35722E+04 -1.48372E+04
  1.07118E+04  4.48428E+03 -5.77814E+03  1.06122E+04 -1.94399E+04  1.80044E+03 -9.60071E+03 -2.96621E+04
  2.10910E+04 -4.45367E+04  4.74152E+04 -1.79848E+04  4.16866E+04  2.23628E+04  1.73313E+04  4.14655E+04
 -1.50285E+04  3.22226E+04 -2.77438E+04  1.90201E+03 -7.57071E+03 -2.60708E+04  1.98293E+04 -3.27115E+04
  4.09044E+04 -4.23033E+03  3.30668E+04  2.55105E+04  1.65602E+04  4.76651E+04 -6.28753E+03  5.13925E+04
 -2.81109E+04  3.48140E+04 -3.91362E+04  5.66999E+03 -3.85733E+04 -1.14006E+04 -2.17843E+04 -3.58298E+04
  6.59926E+03 -3.14951E+04  3.21714E+04 -1.50920E+04  2.68522E+04  7.35039E+03 -2.48864E+03  2.11194E+04
 -1.05974E+04  9.09803E+03 -1.19565E+04 -7.26242E+03  9.28698E+03 -3.40301E+03  1.52892E+04  4.83381E+03
  9.43314E+03  1.92346E+04 -7.58429E+03  2.06691E+04 -2.12632E+04  1.22505E+04 -2.47449E+04 -2.86929E+03
 -2.22006E+04 -1.81975E+04 -7.05158E+03 -1.71523E+04  2.93471E+03 -1.97549E+04  1.02853E+04 -2.38665E+04
  2.67123E+04 -1.15682E+04  2.97409E+04  4.89564E+03  2.64694E+04  1.75425E+04  4.48218E+03  3.01590E+04
 -1.25077E+04  2.85704E+04 -2.83868E+04  1.05499E+04 -1.98713E+04 -1.37230E+04 -5.28264E+03 -1.62296E+04
  1.51831E+03 -1.70641E+03 -8.80876E+02  5.53588E+03 -1.27103E+04  6.14920E+03 -9.18437E+03 -7.63536E+03
 -1.27387E+04 -1.42992E+04  3.16823E+03 -2.23353E+04  1.25225E+04 -1.51833E+04  1.55876E+04 -2.38829E+03
  9.83164E+03  1.15397E+04 -7.51825E+03  1.41071E+04 -1.08225E+04  7.48611E+03 -2.20704E+04 -6.54630E+03
 -1.48230E+04 -1.54788E+04 -3.47831E+02 -2.05627E+04  3.70760E+03 -1.48864E+04  1.75753E+04 -6.41933E+03
  1.77171E+04  5.68715E+02  1.15710E+04  6.38201E+03  5.33813E+03  1.79890E+03  9.37524E+03 -2.59578E+03
  1.43458E+04  1.21447E+03  1.28095E+04  1.50557E+04  7.17493E+03  2.78108E+04 -9.86851E+02  2.74996E+04
 -1.48147E+04  2.70200E+04 -2.98893E+04  1.07489E+04 -3.27519E+04 -4.09184E+03 -2.09602E+04 -2.07057E+04
 -1.04960E+04 -2.35340E+04  7.36423E+03 -2.39750E+04  1.91982E+04 -1.38159E+04  1.85976E+04  5.34875E+02
  1.04115E+04  1.51348E+04 -7.85865E+03  1.08475E+04 -1.36108E+04  3.31809E+03 -1.30928E+04 -1.35681E+04
  2.63885E+03 -1.70925E+04  8.33148E+03 -1.22870E+04  1.05853E+04 -2.06574E+01 -4.33999E+03  2.83693E+03
 -3.50750E+03  2.70891E+03 -4.66045E+03 -6.80597E+03 -1.91706E+03 -1.66738E+04  6.71953E+03 -1.16964E+04
  1.69855E+04 -4.20702E+03  1.38902E+04  1.70289E+03  1.16864E+04  8.11016E+03  9.54063E+03  1.66883E+04
 -1.50502E+03  1.46638E+04 -7.65100E+03  9.91334E+03 -1.21400E+04  3.11363E+03 -8.83772E+03 -3.21999E+03
 -3.78849E+03 -4.42363E+03  3.22384E+03  1.62411E+03 -1.39509E+03  2.53664E+03 -2.79051E+03  3.32091E+02
 -1.06727E+04 -6.97044E+02 -1.02903E+04 -4.79902E+03 -3.05175E+03 -1.65849E+04  8.60950E+03 -1.07881E+04
  5.73012E+03 -2.96316E+03  8.40377E+03  7.30914E+03 -1.40884E+03 -8.38709E+02 -4.09221E+03 -4.17858E+03
 -6.71408E+03 -3.50068E+03 -1.80064E+03 -6.12672E+03 -1.72465E+02 -6.94515E+03  9.43225E+03 -8.52243E+03
  1.36425E+04 -1.76700E+03  1.29550E+04  6.69733E+03  1.63618E+03  1.35206E+04 -5.87099E+03  1.15527E+04
 -7.43763E+03  2.41873E+03 -1.26665E+03  4.19678E+03  2.23472E+02 -4.86306E+02  1.60806E+03 -2.96872E+02
  5.93766E+03  2.15220E+03  4.32194E+03  7.31764E+03 -4.01890E+03  7.12422E+03 -4.71769E+03  3.34596E+03
 -9.71441E+03 -6.36328E+03 -2.72867E+03 -1.08204E+04  3.18093E+03 -5.71864E+03  1.02753E+04  2.44098E+03
  2.67964E+03  2.90684E+03 -5.59065E+03  9.68071E+03 -8.39099E+03  1.46132E+03 -8.20181E+03 -3.11689E+03
  1.28623E+03 -4.90899E+03  3.58570E+03 -1.20643E+04  4.68226E+03 -5.69665E+03  9.70250E+03  2.08419E+03
  7.21922E+03  1.13635E+04  5.19002E+02  8.06363E+03 -7.86162E+03  4.12434E+03 -8.52277E+03 -1.74789E+02
 -5.88939E+03 -4.72305E+03  4.07013E+02 -8.83699E+02  1.90578E+03 -6.84940E+03  9.11791E+03  1.53315E+03
  5.10905E+02  2.10701E+03  2.10229E+03  2.02325E+03  8.74956E+02 -8.15385E+02  1.49808E+03  8.06377E+02
  1.94228E+03 -2.01750E+03  7.09393E+03  5.98874E+02  1.03372E+04  2.88241E+03  1.74545E+03  6.41384E+03
 -2.71561E+03  1.38920E+04 -5.62302E+03  2.76211E+03 -1.45896E+04  2.29377E+03 -1.22741E+04 -6.56380E+03
 -4.46886E+03 -6.13969E+03  2.20008E+03 -6.13483E+03  6.67774E+02 -3.92933E+02  3.84210E+03  1.77273E+03
 -2.75661E+03 -2.67570E+03 -3.18401E+03 -2.05328E+03  5.17255E+03 -6.00574E+03  3.60593E+03 -3.91174E+02
  8.17683E+03  4.86112E+03  6.34022E+02  3.09368E+03  9.03481E+02  2.04203E+03 -3.89347E+03  5.58384E+03
 -8.11112E+03 -1.31666E+03 -4.05486E+03 -1.05176E+03 -1.17026E+03 -5.96999E+03  1.13554E+04 -6.71106E+03
  4.42045E+03 -4.31560E+03  6.69966E+03 -1.44751E+03  8.34834E+03  5.97804E+03  1.44305E+03  8.69353E+03
 -4.31339E+03  5.49628E+03 -7.91223E+02  2.54241E+03 -1.00292E+03 -4.92102E+02  2.76898E+03 -6.96183E+02
 -1.89793E+03 -3.48708E+03 -1.64421E+03  4.29936E+03 -1.68991E+03 -1.92973E+02 -5.24959E+03  2.38801E+03
 -5.96870E+03 -4.03494E+03 -3.47476E+02 -9.61257E+03 -2.12078E+01 -3.80123E+03  4.93162E+03  1.86779E+03
  5.61821E+03  4.28882E+03  8.21173E+02  1.81498E+01  3.02079E+03  9.22297E+03 -4.82855E+03  3.46786E+03
 -7.53175E+03 -2.55967E+03  1.95553E+02 -3.70732E+03 -3.19237E+02 -1.03513E+03 -5.64258E+02 -2.21367E+03
  2.99899E+03 -2.17660E+03  3.49474E+03 -2.44226E+03  2.13933E+03 -2.12581E+03 -4.79764E+02 -2.41870E+03
  8.22495E+02  1.39335E+03 -2.94052E+03  1.33862E+03  3.49414E+03  5.28919E+02  8.80279E+01  1.52485E+03
 -2.46294E+03  2.85215E+03 -1.84400E+03  1.84742E+03 -3.33695E+03 -4.04935E+02 -8.60488E+03  4.19215E+03
 -3.45445E+03 -7.37244E+03 -1.07364E+03 -1.04473E+04  2.03378E+03 -5.95685E+03  5.39632E+03 -8.99329E+02
  3.62875E+03 -2.04482E+03  3.05109E+03  7.33394E+03 -1.12721E+03  8.09735E+02 -4.02288E+03 -2.08818E+03
 -3.63062E+02  1.03168E+03  3.58708E+03 -1.10319E+03  3.54663E+03  9.04023E+02  2.21674E+02 -4.08831E+03
  1.69051E+03  1.05241E+03  1.50947E+03 -3.28950E+03 -1.71545E+03  1.60657E+03  2.65697E+03 -3.51948E+03
  2.10108E+03 -3.91429E+03  4.70090E+03  2.42529E+03  1.98634E+03  1.54819E+02 -1.51050E+03  4.38212E+03
 -7.30907E+03  1.77408E+03 -1.83886E+03  5.40604E+03 -3.80666E+03 -2.19487E+03 -2.26988E+03 -2.27300E+03
  2.50682E+03 -3.52159E+03 -2.43821E+03 -2.61830E+03 -1.55045E+03  4.72579E+02 -2.50053E+03 -1.08416E+02
 -6.44127E+03  4.83232E+03 -1.97334E+03 -3.47038E+03 -7.80526E+02 -2.51025E+03  2.78970E+03 -4.21116E+03
  2.75005E+03 -2.57868E+03  1.17550E+03 -4.51726E+03  1.33831E+03  2.58764E+03  4.43732E+03  4.20754E+01
  2.82534E+03 -1.70153E+03 -2.22742E+03 -7.39014E+02 -2.94413E+03  1.03519E+02  1.54486E+03 -5.22168E+03
 -5.58225E+02 -3.50440E+03 -3.75751E+03  3.68582E+03 -3.06543E+03  4.05256E+03  7.64837E+02  7.27269E+03
 -3.83110E+03  1.78621E+03 -8.44634E+02 -1.11112E+03 -1.41141E+03 -6.74730E+03  1.27598E+03 -2.18363E+03
  7.90828E+01 -1.26210E+03 -9.93356E+02  6.52960E+03 -1.04715E+03 -2.95567E+03  2.23944E+03 -1.14472E+03
 -3.70269E+03 -3.79702E+01  5.63157E+03  1.44887E+03 -5.05958E+03  2.82109E+03  3.22082E+02  1.28300E+02
 -2.59642E+03  3.03575E+03  1.96463E+03 -2.43394E+02 -3.16983E+03 -1.17436E+03 -3.05909E+03 -1.05895E+03
 -4.52839E+02  1.29134E+03  1.10396E+03 -7.30610E+03  1.64928E+03 -5.23544E+03  5.14625E+03  2.62155E+03
  4.24130E+02  2.35462E+03  1.67622E+03  3.81804E+03  5.72534E+02 -1.27497E+03  2.79892E+02  1.61264E+03
 -3.37131E+02  3.70004E+03 -8.80448E+02  1.27714E+03 -1.30120E+03 -3.80967E+03 -6.08835E+02 -2.76069E+03
 -8.96460E+02 -1.63850E+03 -1.65197E+03 -5.68079E+03  1.87379E+03  1.02954E+03 -4.56242E+03 -1.11075E+03
 -1.66912E+03 -4.03755E+02  5.68054E+03 -2.78458E+02  3.05878E+03  3.57414E+03  1.85316E+03  1.79118E+03
  3.53360E+01  4.26748E+03 -5.94570E+03  2.93007E+03 -2.62545E+03  2.11366E+03 -3.69620E+03 -3.80648E+03
 -1.01836E+03  1.99498E+03  4.71328E+03 -1.93704E+03 -7.09988E+02 -2.99245E+03 -2.85386E+03  5.61744E+03
 -3.30513E+03 -3.17673E+03 -1.10763E+03 -5.45686E+03  2.50197E+03  3.69649E+03 -4.06676E+01  1.17730E+03
 -1.51329E+02  9.55188E+02  8.49763E+02  1.24911E+03 -1.41005E+03  2.67497E+03 -1.50952E+03 -2.58746E+03
 -2.21930E+03  9.97967E+02 -1.63656E+03  3.82713E+03 -2.94472E+03 -3.29229E+03  3.19516E+03 -1.22499E+03
 -1.55974E+03 -2.89968E+03  2.53103E+03 -3.07429E+03 -3.45715E+02 -2.63504E+03 -1.05990E+03  3.12259E+03
  4.01693E+02  2.52964E+03  1.84484E+03 -2.54363E+03  6.59755E+02 -4.63517E+03 -8.60339E+01  3.85359E+03
  1.90393E+03  1.11643E+02  1.12444E+03 -3.79863E+03  1.62535E+03  2.82432E+02 -9.18940E+02 -1.45872E+03
  1.60017E+03 -5.64338E+03 -3.10306E+03 -3.69855E+02  1.87291E+03  9.72369E+01 -2.21501E+03 -3.13870E+03
  1.55349E+03 -1.97480E+03 -1.94842E+03 -7.23911E+03 -1.43862E+03  5.45596E+03 -4.90378E+02 -2.25936E+03
