 $NMID ID='MM_0lb_SNR50_19hz_g40_95.RAW', FMTDAT='(8E13.5)'
 TRAMP=1., VOLUME=1. $END
  3.11728E+05  5.29815E+03  3.36510E+05  2.50938E+05  8.38295E+04  3.34330E+05 -1.32312E+05  2.46899E+05
 -1.88232E+05  8.39016E+04 -1.13847E+05 -3.01916E+04  2.38693E+03 -5.40447E+04  5.98156E+04 -3.42422E+02
  3.58989E+04  5.46250E+04 -2.23316E+04  7.69172E+04 -5.92324E+04  6.11226E+04 -8.59064E+04  3.04249E+04
 -7.99950E+04 -8.28645E+03 -5.55664E+04 -5.07837E+04 -1.38256E+04 -6.74185E+04  2.48995E+04 -4.56368E+04
  3.59356E+04  8.05324E+03  1.42105E+04  4.84023E+04 -3.30747E+04  4.42709E+04 -6.04945E+04  7.82748E+02
 -5.56763E+04 -5.70833E+04 -2.94823E+03 -7.29059E+04  3.20054E+04 -5.28709E+04  4.52558E+04 -1.66996E+04
  4.30881E+04  1.10065E+04  3.22520E+04  2.51987E+04  1.09018E+04  2.80996E+04 -5.07842E+03  2.79088E+04
 -2.30126E+04  1.45474E+04 -1.87666E+04 -2.00543E+03  6.03096E+03 -7.69899E+03  2.16448E+04  1.08631E+04
  5.84677E+03  3.33054E+04 -2.82822E+04  3.07234E+04 -6.18146E+04  1.91036E+02 -5.13295E+04 -4.19504E+04
 -1.19319E+04 -6.07485E+04  4.01156E+04 -4.37133E+04  5.19934E+04 -3.78109E+03  3.19168E+04  2.52748E+04
 -6.34898E+03  3.24507E+04 -2.56355E+04  9.19701E+03 -2.59038E+04 -6.43426E+03 -1.40349E+04 -1.32741E+04
 -4.34426E+03 -1.52971E+04 -7.85017E-01 -1.35136E+04  4.11658E+03 -1.93730E+04  1.92081E+04 -1.53646E+04
  1.04995E+04  5.75886E+03 -7.08532E+03  1.27745E+04 -2.03021E+04 -1.20003E+03 -5.35545E+03 -2.82941E+04
  1.90192E+04 -4.01857E+04  4.31534E+04 -1.66139E+04  4.65131E+04  1.97867E+04  1.47874E+04  4.27212E+04
 -1.70467E+04  2.90723E+04 -2.17019E+04 -1.89870E+03 -8.91390E+03 -2.65381E+04  2.00879E+04 -3.07252E+04
  3.89960E+04 -9.36390E+03  3.04501E+04  2.54419E+04  1.02695E+04  4.07295E+04 -7.65880E+03  4.66908E+04
 -2.71450E+04  2.61355E+04 -3.87696E+04  8.85667E+03 -4.03950E+04 -1.77681E+04 -1.99459E+04 -2.79322E+04
  6.84303E+03 -3.54514E+04  2.61627E+04 -1.13697E+04  2.59121E+04  8.95906E+03  5.03719E+03  1.48544E+04
 -1.23671E+04  1.10055E+04 -8.42531E+03 -7.77410E+03  6.91718E+03 -3.90908E+03  1.52966E+04  8.99729E+03
  1.34737E+04  1.71751E+04 -9.90392E+03  2.43378E+04 -2.09539E+04  9.49530E+03 -2.63398E+04 -7.71583E+03
 -1.29149E+04 -1.76206E+04 -6.40990E+03 -1.78006E+04  4.23162E+03 -1.60920E+04  8.03059E+03 -1.38374E+04
  1.77280E+04 -1.01883E+04  2.55129E+04  1.03227E+03  2.12550E+04  1.54725E+04  6.92935E+03  3.21539E+04
 -1.43662E+04  2.67769E+04 -2.34287E+04  9.15250E+03 -2.32476E+04 -8.54192E+03 -2.51184E+03 -1.31056E+04
  8.97789E+02 -7.18956E+03 -4.52583E+03  4.09162E+03 -1.45711E+04  5.78986E+03 -1.45943E+04 -7.01495E+03
 -6.89885E+03 -1.33491E+04  6.56208E+03 -1.68793E+04  9.70386E+03 -1.42518E+04  1.62557E+04 -1.36354E+03
  1.09436E+04  6.58173E+03 -1.76159E+03  1.45802E+04 -5.61437E+03  5.41483E+03 -1.56191E+04 -3.00785E+03
 -8.93662E+03 -1.14566E+04 -1.21494E+03 -1.63646E+04  1.26516E+04 -1.27483E+04  1.33995E+04 -6.61347E+03
  1.37462E+04  2.63590E+03  5.20801E+03  6.08446E+03  8.01978E+03 -1.40731E+03  9.49514E+03 -6.33913E+02
  1.26712E+04  1.98760E+03  1.12584E+04  1.17455E+04  1.20962E+04  2.08724E+04 -4.01981E+03  2.13161E+04
 -1.31679E+04  2.00289E+04 -2.58724E+04  1.00852E+04 -2.41342E+04  4.90703E+02 -2.17799E+04 -1.28149E+04
 -8.98256E+03 -1.80725E+04  4.44185E+03 -2.04910E+04  1.45348E+04 -5.19612E+03  1.10536E+04  4.93363E+03
  6.81978E+03  1.21116E+04 -4.82256E+03  1.01566E+04 -9.63014E+03  3.82415E+03 -1.13105E+04 -6.43558E+03
 -8.27449E+02 -1.30178E+04  1.19360E+03 -9.56848E+03  8.20367E+03 -1.32814E+03  4.27080E+03  1.98356E+03
 -5.21625E+03 -1.60396E+03 -3.33158E+03 -2.49558E+03 -1.70121E+03 -8.53841E+03  7.68458E+03 -8.39116E+03
  9.21301E+03  3.12205E+01  1.33483E+04  2.69809E+03  6.90709E+03  9.18702E+03  2.75988E+03  1.12059E+04
  1.23731E+03  1.49989E+04 -9.49703E+03  1.08557E+04 -9.94871E+03  2.09509E+03 -6.97202E+03  3.31314E+03
 -3.11146E+03 -3.65487E+03 -1.53120E+03 -1.09330E+03  4.86218E+03  2.15731E+03 -9.95771E+02  3.87486E+03
 -8.55234E+03  4.73519E+02 -9.91402E+03 -9.53428E+03 -3.07465E+03 -1.07140E+04  3.32850E+03 -3.39815E+03
  6.41400E+03 -5.00605E+03  4.38815E+03  4.07934E+03  1.16825E+03  4.81240E+03 -4.39322E+03  1.99339E+03
 -9.78787E+03 -2.55780E+03  1.02748E+03 -5.36563E+03  3.08044E+03 -5.23648E+03  8.43425E+03 -6.24156E+03
  8.79798E+03  2.81565E+03  1.16157E+04  8.94306E+03  2.56449E+03  7.75899E+03 -2.46541E+03  7.61067E+03
 -9.51812E+03  3.51928E+03 -2.27372E+02 -3.02482E+03  9.41240E+02 -1.36833E+03  3.60798E+03 -1.55200E+03
  3.73823E+03  4.38734E+03  2.68721E+03  5.54942E+03 -9.98665E+02  5.16255E+03 -5.62327E+03  2.51345E+03
 -1.50115E+03  3.67419E+02 -1.72318E+02 -6.90447E+03  9.00518E+03 -6.12333E+03  4.33840E+02  3.21441E+03
  3.10287E+03 -5.36044E+02 -5.53093E+03  5.84827E+01 -2.11529E+03  1.26299E+03 -1.20148E+02  2.03264E+03
 -3.17843E+03 -3.79928E+03  3.20757E+03 -6.18731E+03  3.08369E+03 -6.53848E+03  3.02688E+03 -3.21265E+03
  5.43773E+03  3.37289E+03 -4.57445E+03  5.19499E+03 -4.02825E+03  1.09930E+02 -4.65240E+03 -2.89395E+03
 -7.57266E+03 -4.41569E+03  3.57718E+02 -2.65815E+03 -8.92376E+02 -6.01978E+03  2.31648E+03  4.37486E+02
  1.16441E+03 -2.62088E+03  2.78128E+03  3.48227E+03  4.76692E+02 -2.47738E+03  2.48750E+03 -1.20291E+03
  1.49199E+03  3.22524E+03  6.88989E+03  1.94178E+02  3.27518E+03 -6.66346E+02  8.43921E+03  2.09440E+03
 -4.52266E+03  6.90610E+03 -6.66242E+03  7.39843E+03 -1.28092E+04 -1.83134E+03 -6.23859E+03 -5.54200E+03
 -3.61283E+03 -5.77958E+03 -5.31714E+02 -1.28460E+03  2.75052E+02 -2.79016E+03  1.77828E+03 -3.02074E+03
 -1.36306E+03 -5.55055E+02  1.95622E+03 -6.33786E+02  9.42935E+02  2.31728E+03  3.14769E+03 -1.11017E+03
  2.27034E+03 -3.12897E+02  5.57906E+01  4.35208E+03 -5.26636E+03  1.67986E+03 -3.88918E+03  1.80949E+03
 -7.72594E+03  4.50917E+02 -1.64277E+02 -2.86351E+03  2.28583E+03 -3.76546E+03  7.01269E+03 -6.50718E+03
  1.46530E+03 -2.81959E+03  5.04609E+03  1.20619E+03  6.79466E+03  7.52692E+02 -1.19306E+02  5.49555E+03
  2.67766E+03  3.88206E+03 -5.55449E+03  4.79499E+03 -3.38240E+03 -3.16070E+03  1.14142E+03 -1.61249E+03
  1.45553E+02 -3.20117E+02 -1.32237E+03 -3.25819E+02 -3.30372E+03  4.17672E+03 -9.91133E+03  6.75705E+02
 -1.55987E+03 -1.02741E+04 -6.03304E+01 -5.92489E+03  3.70461E+03 -2.56951E+03  4.27231E+03 -3.27601E+02
  5.28977E+03  2.77612E+03  3.07623E+03  2.60684E+03 -2.79506E+03  3.00627E+03 -3.56903E+02  2.03291E+03
 -6.07490E+03  7.27374E+02 -4.75831E+03 -5.34230E+03  1.63000E+03 -4.88095E+03 -1.21826E+03 -5.82461E+03
  1.60726E+03  2.35553E+03  2.73185E+03 -3.42108E+03 -2.25584E+02 -8.77093E+02 -1.88060E+03 -2.22928E+03
 -9.65273E+02  4.38749E+01  2.42115E+03 -5.10575E+02  2.56392E+03  1.85335E+03 -8.79735E+02  5.25697E+02
 -2.88435E+03 -7.41946E+02 -2.71277E+03  1.16207E+03 -4.52739E+03  2.63282E+03  8.66602E+02  9.74120E+02
  1.89049E+03 -3.08444E+03 -1.38245E+03 -2.42234E+03  1.00121E+03 -1.57290E+03  6.68139E+03 -1.79160E+03
 -5.82985E+02  2.03698E+03  2.76248E+03  2.48549E+03 -1.61792E+03 -1.17711E+02 -3.36379E+03 -2.49018E+02
  4.96848E+02  4.23015E+03  3.95030E+03  4.73251E+02 -7.66627E+02 -2.07233E+03  2.42736E+03 -3.18298E+03
 -7.39625E+02  3.60733E+03 -3.73580E+02 -1.23151E+03 -2.09884E+03 -8.27297E+01  6.64539E+02 -1.38414E+03
  1.48870E+03  1.35436E+03  1.37089E+03  1.63530E+03 -6.49681E+02  3.04716E+03  1.13738E+02  1.07769E+03
 -7.01124E+02  4.16779E+03 -3.13658E+03  1.29764E+02 -4.41109E+03 -1.63693E+03  2.90948E+03 -2.80185E+03
  2.09171E+03 -1.18070E+03 -1.13093E+03 -9.00101E+02  7.78909E+02  1.78120E+03  5.00098E+03 -3.85255E+02
 -4.21978E+03  5.10916E+02 -4.68098E+02 -3.62852E+03 -2.45570E+03  4.43593E+02  5.41154E+03 -8.55443E+02
  3.05246E+03 -4.53272E+02 -1.58748E+03  1.80637E+03  3.89619E+02  8.89095E+02 -8.79480E+02  4.27463E+03
  2.78593E+03  1.01692E+03 -8.66650E+02  2.70506E+03  2.86146E+02 -2.06670E+03  6.64511E+03  1.75391E+03
 -1.50511E+03  9.66473E+02  4.70860E+03  7.06539E+01  1.83933E+02  5.52762E+02 -4.81347E+03  1.01888E+02
 -1.46224E+03  1.92761E+03 -2.54876E+03  1.78674E+02 -1.92832E+02  9.74864E+02  3.76992E+03 -3.66890E+03
  3.47581E+03 -5.33359E+02  2.81171E+03  2.60919E+03  4.83561E+02  2.37803E+03  6.39173E+02  2.41489E+03
 -1.36621E+03  2.91314E+03  1.66270E+02 -3.85778E+03 -7.61281E+02 -4.48652E+03 -1.77639E+03 -2.83590E+03
 -3.86069E+03  1.67266E+03 -5.43997E+03 -4.03540E+02 -1.36622E+03 -1.67634E+03 -7.07399E+02 -2.31546E+03
 -1.91687E+03  3.63025E+02  5.03360E+03 -1.80143E+03  1.68300E+03 -5.05675E+03  4.52633E+03  8.55120E+02
  3.03803E+03  2.60579E+03 -7.22981E+02  2.26805E+03 -2.88741E+03  2.20599E+03 -1.33263E+03  8.10910E+02
  4.25061E+03  2.25965E+03  1.03470E+02 -4.04635E+03  5.77414E+02 -7.60829E+02 -2.13595E+03 -1.66823E+03
  6.05258E+02 -1.36438E+03 -2.36215E+02 -2.61575E+03  3.37134E+02  5.19489E+02  2.36315E+03  3.53806E+03
  5.13308E+03  1.21020E+03 -1.70274E+03 -2.56324E+03  1.86148E+02  7.00912E+03 -3.36912E+03 -2.81931E+03
  3.13064E+03  1.43843E+03  2.97531E+03 -2.22022E+03  7.83902E+02  2.50763E+03  1.04518E+03  7.92979E+02
  9.34079E+02  1.66439E+03  2.60094E+03 -1.40615E+03 -1.71331E+03  1.00285E+03  1.43164E+03 -9.49921E+02
  1.64510E+03  2.35098E+03  3.10819E+03 -3.10639E+03  1.17446E+02  3.61614E+03  9.99796E+02 -2.43893E+03
  1.82190E+03 -3.62054E+02 -1.09305E+03  2.47377E+03 -3.12612E+03 -3.93005E+03  2.30293E+03 -4.39308E+03
  4.81766E+02 -2.27937E+03  8.83130E+02  2.98033E+03 -3.66674E+03  5.11573E+03  4.03533E+03  4.93207E+03
  3.83606E+03 -2.59808E+03 -1.36589E+03 -2.51108E+02 -2.61134E+03 -1.99967E+03 -1.56238E+03 -2.66122E+03
 -1.43972E+03 -1.68981E+03  1.95729E+02 -3.70807E+03 -2.45843E+03  2.05958E+03 -3.37679E+03  7.37553E+02
 -6.33943E+02 -3.83072E+02  1.54935E+03  1.09227E+03 -2.67278E+03 -9.76942E+01 -3.56530E+03  1.86061E+02
 -2.97358E+03  4.30125E+02  2.06595E+03 -3.93151E+03  1.07911E+03 -2.07919E+03 -1.88628E+03 -1.15812E+03
  1.37469E+03 -1.70060E+03 -1.77490E+03  8.99850E+02 -2.86266E+03  1.42522E+03  6.95894E+02  8.94799E+02
