 $NMID ID='MM_0lb_SNR50_12hz_g55_64.RAW', FMTDAT='(8E13.5)'
 TRAMP=1., VOLUME=1. $END
  3.08419E+05 -5.47182E+02  3.37037E+05  2.46187E+05  8.35515E+04  3.40229E+05 -1.29943E+05  2.47332E+05
 -1.91707E+05  8.66548E+04 -1.14886E+05 -2.83805E+04  1.25926E+03 -5.03661E+04  4.94323E+04 -1.18769E+03
  3.40436E+04  5.59462E+04 -1.27893E+04  7.92249E+04 -6.30863E+04  6.22334E+04 -9.39751E+04  3.15448E+04
 -7.52556E+04 -5.43222E+03 -5.94573E+04 -4.74924E+04 -1.52334E+04 -7.22165E+04  2.71385E+04 -4.72968E+04
  4.27049E+04  1.61530E+03  2.14231E+04  4.71773E+04 -2.89191E+04  4.65563E+04 -6.69329E+04  7.59107E+02
 -5.58921E+04 -5.97872E+04 -5.01737E+03 -7.77186E+04  3.10509E+04 -5.42430E+04  5.01220E+04 -1.69720E+04
  4.94115E+04  9.56839E+03  3.56522E+04  2.60956E+04  1.70690E+04  2.80919E+04 -9.90328E+03  2.99266E+04
 -1.80489E+04  1.86258E+04 -1.85673E+04 -3.07951E+03  8.60898E+03 -7.50058E+03  2.25512E+04  1.66961E+04
 -3.11254E+01  3.55088E+04 -3.21585E+04  3.20099E+04 -6.49177E+04 -7.52907E+02 -5.87697E+04 -4.32353E+04
 -9.08742E+03 -6.20027E+04  3.77818E+04 -4.67280E+04  6.33387E+04 -2.41480E+03  3.40069E+04  3.60996E+04
 -3.32474E+03  3.83262E+04 -2.61186E+04  2.29285E+04 -2.96448E+04  3.08505E+02 -2.05904E+04 -1.22393E+04
 -7.19862E+03 -1.82323E+04  7.82902E+02 -2.01182E+04  1.21397E+04 -2.28638E+04  1.54891E+04 -1.53600E+04
  1.70238E+04  3.36279E+03 -9.41266E+03  9.83437E+03 -2.29908E+04 -4.96042E+03 -8.87889E+03 -3.64207E+04
  2.71823E+04 -5.05146E+04  4.65733E+04 -1.89630E+04  4.54449E+04  2.50128E+04  1.28542E+04  4.80951E+04
 -1.69690E+04  3.78815E+04 -2.54086E+04  9.22820E+03 -1.74591E+04 -3.03725E+04  2.35898E+04 -3.75076E+04
  4.97253E+04 -8.63622E+03  3.65270E+04  2.52409E+04  2.03914E+04  4.85593E+04 -5.13890E+03  5.62102E+04
 -3.21977E+04  3.77990E+04 -4.60509E+04  1.31354E+04 -5.35265E+04 -1.81751E+04 -2.74138E+04 -3.79326E+04
  8.35953E+03 -4.63048E+04  3.24886E+04 -1.96304E+04  3.00534E+04  9.77804E+03  5.65843E+03  2.29424E+04
 -1.60861E+04  1.10124E+04 -1.48016E+04 -7.16989E+03  5.08633E+03 -1.28725E+04  1.50607E+04  9.80847E+03
  1.42984E+04  2.47232E+04 -5.41772E+03  2.57536E+04 -2.39382E+04  7.47974E+03 -2.89323E+04 -6.81929E+03
 -1.88473E+04 -1.06707E+04 -1.35040E+04 -2.69681E+04  3.27945E+03 -2.21888E+04  1.83199E+04 -2.56088E+04
  3.05943E+04 -1.00238E+04  3.56941E+04  6.12126E+03  2.34613E+04  2.21827E+04 -4.72671E+03  4.06379E+04
 -1.44654E+04  3.34780E+04 -3.21704E+04  1.28986E+04 -2.27629E+04 -1.56170E+04 -8.22427E+03 -1.20472E+04
  3.12923E+03  4.67970E+03 -4.47237E+03  7.13091E+03 -1.27052E+04  6.94785E+03 -1.79867E+04 -8.60590E+03
 -5.12755E+03 -2.15458E+04  9.37059E+03 -3.09127E+04  2.17773E+04 -1.49139E+04  2.02533E+04  1.08417E+03
  1.43845E+04  1.50686E+04 -1.77041E+03  2.88820E+04 -1.25822E+04  1.44989E+04 -2.06838E+04 -5.33093E+03
 -1.89998E+04 -2.22693E+04  1.21860E+03 -2.93866E+04  1.31100E+04 -1.84279E+04  2.44756E+04 -7.13741E+03
  1.66376E+04  3.16345E+03  1.20994E+04  5.97545E+03  6.81652E+03  3.52473E+03  1.23550E+04  1.74626E+03
  2.48549E+04 -8.95686E+01  2.30393E+04  1.72148E+04  1.03405E+04  3.63281E+04  7.93691E+02  4.35024E+04
 -1.95933E+04  3.56733E+04 -3.65348E+04  1.87221E+04 -4.11336E+04 -6.03255E+03 -3.51474E+04 -2.46148E+04
 -1.13887E+04 -3.38012E+04  1.45139E+04 -2.93505E+04  2.51456E+04 -1.64646E+04  2.43144E+04  9.29658E+03
  7.56315E+03  1.59623E+04 -1.01905E+04  1.04473E+04 -2.04956E+04  7.04725E+03 -1.01714E+04 -1.15223E+04
  4.58611E+02 -1.50972E+04  9.50087E+03 -1.63313E+04  1.55054E+04 -4.12464E+03  1.58684E+03  4.02703E+03
 -5.57359E+03  3.16403E+03 -1.15040E+04 -6.44909E+03  3.48375E+03 -2.20709E+04  1.31167E+04 -9.80996E+03
  2.21804E+04 -5.59951E+03  2.72863E+04  6.21194E+03  2.25718E+04  1.53798E+04  1.29210E+04  2.71161E+04
 -3.40885E+03  3.01332E+04 -1.55617E+04  1.09836E+04 -1.98869E+04  5.49241E+03 -1.49599E+04 -6.01295E+03
 -1.98365E+03 -3.65433E+03 -3.82834E+03  2.22028E+03  2.94516E+03  3.72011E+03 -6.58327E+03  6.16969E+03
 -2.35701E+03  4.30932E+03 -1.47570E+04 -1.45767E+04 -6.62265E+03 -1.95557E+04  6.75086E+03 -1.22761E+04
  1.17911E+04 -7.96514E+03  5.44003E+03  6.12203E+03 -3.16726E+02  6.05995E+03 -4.34303E+03 -3.19654E+03
 -1.11767E+04 -7.94636E+03 -1.36807E+03 -1.31899E+04  5.14664E+03 -8.31546E+03  2.24044E+04 -9.37419E+03
  1.27130E+04  9.51061E+03  1.51931E+04  1.08329E+04  6.46658E+02  1.35626E+04 -8.61957E+03  1.47248E+04
 -1.32704E+04  6.10782E+03 -4.82420E+03 -1.80364E+03 -2.95292E+03 -2.34090E+03  9.05650E+03 -8.06857E+02
  3.88246E+03  5.88172E+03 -6.92157E+02  1.20495E+04 -4.78979E+03  1.04543E+04 -1.54179E+04 -1.66458E+03
 -4.61701E+03 -8.93325E+03  4.82485E+03 -1.17085E+04  6.55142E+03 -3.02862E+03  5.55504E+03  2.36357E+03
  3.08581E+03  7.73926E+03 -9.11759E+03  1.26217E+04 -1.20148E+04 -1.70315E+03 -1.53731E+04 -6.69227E+03
 -7.56629E+03 -1.31368E+04  1.12778E+03 -1.63479E+04  1.58003E+04 -4.42878E+03  1.51166E+04  8.86301E+03
  8.64277E+03  1.00456E+04 -1.55158E+03  8.76904E+03 -1.21884E+04  1.26762E+04 -1.21263E+04 -3.08426E+03
 -8.85590E+03 -4.23812E+03 -8.69729E+02 -1.02738E+04  4.26776E+03 -1.07809E+04  6.22960E+03 -6.97206E+03
  8.68432E+03  1.33297E+03  2.50524E+03 -5.16071E+02  2.04905E+03 -8.69383E+02 -2.57514E+02 -7.43495E+03
  5.92074E+03 -7.19034E+03  1.04205E+04 -2.29761E+03  1.84842E+04  9.13801E+03  8.91243E+03  1.45342E+04
 -7.33006E+03  1.83341E+04 -1.64519E+04  1.46853E+04 -1.88115E+04  2.38885E+03 -1.38490E+04 -4.32947E+03
 -5.74632E+03 -1.43071E+04 -1.46128E+03 -1.66973E+04  3.32135E+02 -8.31250E+03  4.97776E+03 -3.86131E+02
  5.72477E+03 -2.51335E+03  9.69978E+02 -8.58421E+03  2.91698E+03  6.71249E+02  4.69070E+03  2.36230E+03
  7.16888E+03 -1.87703E+03  6.39108E+03  3.87096E+03 -4.81422E+03  6.91284E+03 -1.42290E+04  9.71848E+03
 -1.23758E+04 -4.06669E+03 -1.07524E+04 -7.77143E+03  2.79233E+02 -1.43264E+04  5.33866E+03 -1.22670E+04
  1.35832E+04 -6.31519E+03  1.08483E+04 -1.65770E+02  1.25452E+04  7.56001E+03  1.36882E+03  1.28832E+04
 -6.99705E+03  1.04256E+04 -6.45566E+03  9.65116E+03 -8.07645E+02 -5.12753E+03 -3.71493E+03 -6.43569E+03
 -2.22900E+03  1.96738E+03  3.50823E+03  4.64058E+03 -6.42936E+03  5.28967E+02 -7.88285E+03 -2.38727E+03
 -6.32610E+03 -7.49178E+03  3.21717E+03 -1.32814E+04  4.41505E+03 -1.24203E+04  1.04111E+04 -3.28408E+03
  1.15827E+04  3.81598E+03  3.86123E+03  6.48416E+03 -2.95818E+03  1.35461E+04 -4.80054E+03  5.36708E+03
 -1.35717E+04 -3.29646E+03 -7.19702E+03 -1.28505E+04 -2.80924E+03 -1.28517E+04  4.35731E+03 -1.27871E+04
  2.04444E+03  1.85042E+03  7.61443E+03  1.35305E+03 -2.33406E+03  8.28300E+02 -1.40919E+00  4.53277E+03
  6.47003E+02  6.45594E+03  3.75015E+03  4.86373E+03  2.90337E+03  4.78639E+03  1.39580E+03  2.10109E+03
 -4.89370E+03  1.20169E+04 -7.02973E+03  7.02295E+03 -1.37756E+04  1.80871E+03 -1.29815E+04 -2.91145E+03
  2.85181E+02 -8.04239E+03 -2.63767E+03 -1.38694E+04  7.36636E+03 -5.06994E+03  6.26114E+03 -4.03300E+03
  6.49944E+03  5.71867E+03  3.86313E+03  9.11449E+03 -5.34666E+03  2.95148E+03 -4.76040E+03 -4.51066E+03
 -3.34851E+03 -3.92658E+03  2.32051E+03 -7.64835E+01  9.19362E+03 -1.66218E+03  3.08105E+03  4.95847E+02
  3.76031E+03 -4.97160E+03 -1.15389E+03  1.83444E+03 -6.16842E+03  7.81484E+03  1.54944E+03  1.31969E+03
  2.15200E+03  8.84133E+02  7.54400E+03  3.05916E+03  5.52600E+03  1.08230E+04 -8.10850E+03  3.21940E+03
 -3.76356E+03  5.22890E+03 -5.40982E+03  6.06918E+03 -7.93558E+03 -3.50595E+03  6.14386E+02 -1.69437E+03
 -2.67435E+03 -1.76819E+03  2.55319E+03  3.28657E+03  1.51752E+02  1.26525E+03 -6.38876E+02  5.31995E+03
 -9.74117E+02  1.48732E+03 -3.04949E+03 -5.88441E+03 -8.48362E+03 -4.85263E+03 -4.93288E+03 -3.35865E+03
 -1.55712E+03 -2.88928E+03  5.60151E+03  8.98012E+02  6.77550E+03 -2.75674E+03  1.93702E+03  8.49360E+03
 -3.11986E+03 -2.83318E+03  2.72925E+03 -3.99238E+03 -2.55810E+03 -2.55928E+03  1.48857E+03 -5.52291E+03
  8.47718E+03  5.58350E+00  4.35212E+03  5.49989E+03  4.77775E+03  4.07001E+03 -2.80262E+03  4.57253E+03
 -4.57127E+03 -1.54148E+03 -1.32393E+04  1.59092E+02 -5.85283E+03 -6.94057E+03  2.23620E+03  4.69359E+03
  1.03367E+02 -2.78364E+03  6.26831E+03  2.17075E+03  2.12866E+03  1.80357E+02 -1.68168E+03  5.96812E+03
  7.01509E+03  6.81110E+03 -6.19131E+02 -5.41495E+02  4.30459E+03  3.32814E+03 -9.36080E+00  1.53536E+03
 -2.85924E+02  3.68053E+03 -8.04064E+03  3.14967E+03 -3.65673E+03  3.18463E+02 -5.77481E+03 -1.07600E+03
 -2.19994E+03 -8.18463E+03  1.96421E+03 -7.31377E+03  5.53272E+03 -5.69334E+03  1.42478E+04 -2.60114E+03
  8.72091E+03  4.90631E+03  1.70569E+03  6.33963E+03  6.08101E+03  3.26655E+03 -1.64288E+02  6.97960E+03
 -8.85236E+02  1.65901E+03 -4.03136E+03 -8.25500E+03 -3.99748E+03 -6.90971E+02 -6.52579E+02 -4.51843E+03
  4.98473E+02 -3.82096E+03 -1.52615E+03  9.63414E+02  6.74916E+02 -3.17752E+03  2.06038E+03 -4.01897E+03
  4.91817E+03 -1.42094E+03  2.40767E+03 -6.79137E+02  2.21179E+03  4.52881E+03 -1.11790E+03  1.03194E+04
 -3.11645E+03  9.47646E+03 -7.58342E+03  5.77587E+03 -3.79598E+03 -1.08471E+03 -7.36189E+03 -4.74206E+03
 -6.48309E+02 -1.14259E+03  8.00278E+02 -8.40827E+03 -3.27153E+03 -4.77713E+03  7.97562E+03  6.64096E+03
  6.55519E+03  6.95316E+03 -1.22268E+03  3.81383E+03 -1.22075E+02 -1.95766E+03 -1.68843E+03 -9.07771E+03
  6.91772E+03  4.74919E+03  4.22627E+03  3.55915E+03 -2.02877E+03  5.97285E+03  2.18847E+03  1.64900E+02
 -2.61211E+03  3.13854E+03 -3.36748E+03  2.11636E+02 -3.74554E+03 -1.73155E+03  1.10555E+03 -6.27369E+03
  2.69511E+03 -5.01724E+03  5.53627E+03  5.49254E+02  3.67094E+03 -5.75300E+03  4.49413E+03 -4.72282E+03
  7.36190E+02  1.43643E+02 -8.51730E+03  5.80145E+03 -8.42425E+02 -1.12117E+03  6.57644E+03 -5.41847E+03
 -1.85569E+03  1.22369E+03 -5.37108E+03 -4.26619E+03  1.76321E+03  2.24259E+03 -5.54674E+03 -1.52344E+03
 -4.52637E+01 -1.63612E+03  1.92272E+03 -4.62330E+03  3.81405E+03 -6.60833E+03  1.30643E+03 -5.50857E+03
  7.28438E+03 -2.02280E+03  5.27803E+03  6.14755E+03 -6.20101E+01  8.00846E+03 -5.88408E+03  3.26263E+03
