 $NMID ID='MM_0lb_SNR50_16hz_g45_34.RAW', FMTDAT='(8E13.5)'
 TRAMP=1., VOLUME=1. $END
  3.11108E+05  1.04144E+03  3.39877E+05  2.51173E+05  8.65046E+04  3.37026E+05 -1.37290E+05  2.48308E+05
 -1.89067E+05  8.40727E+04 -1.14918E+05 -3.24802E+04  1.76837E+02 -4.78870E+04  5.24885E+04 -6.20860E+02
  3.25045E+04  5.39571E+04 -1.99478E+04  7.50273E+04 -6.14568E+04  6.26569E+04 -8.06509E+04  3.40933E+04
 -7.96540E+04 -1.56419E+04 -6.35022E+04 -4.89069E+04 -1.53263E+04 -7.21507E+04  2.72140E+04 -4.71611E+04
  3.93905E+04 -2.79790E+02  1.11172E+04  4.77330E+04 -3.50498E+04  4.64044E+04 -7.28005E+04 -8.02287E+02
 -5.36983E+04 -5.63468E+04 -7.28674E+03 -7.13978E+04  3.86960E+04 -5.50621E+04  4.98126E+04 -1.38652E+04
  4.25383E+04  1.25843E+04  2.72516E+04  2.21348E+04  1.56244E+04  3.24618E+04 -3.51948E+03  2.50186E+04
 -2.26565E+04  1.36232E+04 -2.00484E+04 -2.92235E+03  4.74840E+03 -1.06058E+04  2.34187E+04  1.27464E+04
  5.18812E+03  3.47360E+04 -2.70200E+04  3.52544E+04 -6.37152E+04  3.60301E+03 -5.90574E+04 -4.43402E+04
 -1.40242E+04 -6.04674E+04  3.76240E+04 -4.32751E+04  5.63615E+04 -2.91718E+03  3.12440E+04  3.26972E+04
 -7.40682E+03  3.27510E+04 -3.05823E+04  1.34779E+04 -2.50197E+04 -6.89135E+03 -2.00335E+04 -7.26210E+03
 -1.08506E+04 -1.61351E+04 -3.92808E+03 -1.64672E+04  1.60792E+03 -2.22404E+04  1.89373E+04 -1.39027E+04
  1.00920E+04  6.48343E+03 -4.36896E+03  1.80486E+04 -1.89491E+04 -2.05883E+03 -9.10255E+03 -3.13771E+04
  2.84248E+04 -3.84779E+04  4.89958E+04 -2.00259E+04  4.62856E+04  1.93441E+04  1.60285E+04  4.39389E+04
 -1.55065E+04  2.87533E+04 -2.52066E+04  2.41599E+03 -8.41712E+03 -2.55144E+04  2.18782E+04 -3.19277E+04
  4.10211E+04 -1.06981E+04  2.85696E+04  2.38456E+04  1.66532E+04  4.61871E+04 -6.92454E+03  4.46186E+04
 -3.19429E+04  3.48325E+04 -4.11720E+04  1.11917E+04 -3.94531E+04 -1.65277E+04 -2.17169E+04 -3.66300E+04
  5.49925E+03 -4.01657E+04  2.94618E+04 -1.15597E+04  2.84074E+04  1.17361E+04  3.25082E+03  1.68189E+04
 -1.54455E+04  1.24399E+04 -8.75734E+03 -4.89122E+03  6.15100E+03 -1.47992E+04  1.41953E+04  9.15889E+03
  8.34472E+03  2.55202E+04 -8.06055E+03  2.02837E+04 -1.85986E+04  1.43818E+04 -2.16235E+04 -3.63515E+03
 -1.93030E+04 -1.87579E+04 -6.12536E+03 -1.98859E+04  9.24467E+03 -2.08072E+04  1.23952E+04 -1.56328E+04
  2.44520E+04 -1.09769E+04  3.54610E+04  5.90901E+03  2.26840E+04  2.11687E+04  6.59616E+03  3.96555E+04
 -1.72466E+04  3.28219E+04 -3.04629E+04  8.53030E+03 -2.61805E+04 -1.14143E+04 -2.61452E+03 -1.38559E+04
  2.46686E+03 -1.43806E+03 -7.62367E+03  1.00887E+04 -1.16618E+04  8.00771E+03 -1.52891E+04 -4.98128E+03
 -6.83479E+03 -1.70657E+04  7.93888E+03 -2.36633E+04  1.11503E+04 -1.72374E+04  1.74138E+04 -1.74816E+03
  8.78424E+03  1.27494E+04 -1.35456E+03  1.87325E+04 -1.43856E+04  1.01152E+04 -1.27629E+04 -3.13821E+03
 -1.21347E+04 -1.69681E+04 -6.01748E+03 -2.08523E+04  9.50789E+03 -1.20445E+04  1.78862E+04 -8.17741E+03
  1.34130E+04 -2.43591E+03  1.20630E+04  5.71248E+03  5.41498E+03 -2.36799E+03  1.05286E+04  2.08286E+03
  1.62328E+04  8.83223E+02  1.42546E+04  1.52877E+04  1.23502E+04  2.50598E+04 -5.02388E+03  3.36538E+04
 -1.65756E+04  2.57860E+04 -2.88148E+04  8.54084E+03 -2.96889E+04 -1.62079E+03 -2.59853E+04 -1.47225E+04
 -9.49524E+03 -1.97410E+04  9.23639E+03 -1.70057E+04  2.20951E+04 -1.08302E+04  2.03028E+04  4.32383E+03
  7.83499E+03  1.53105E+04 -1.02703E+04  1.38176E+04 -1.42704E+04 -9.11072E+02 -1.29227E+04 -7.87735E+03
 -5.68018E+03 -1.53983E+04  3.92104E+03 -1.06810E+04  7.84881E+03 -6.07022E+03  3.85974E+03  1.96392E+03
 -3.84581E+03  3.91592E+03 -2.77063E+03 -4.95260E+03  2.21724E+02 -1.15832E+04  7.42047E+03 -1.07563E+04
  1.42151E+04 -6.27721E+03  1.49935E+04  3.68353E+03  1.37243E+04  1.16435E+04  5.36185E+03  1.60669E+04
  8.26062E+02  2.18490E+04 -7.49234E+03  1.30889E+04 -1.23930E+04  2.82252E+03 -1.20769E+04 -3.12369E+03
 -6.21220E+03 -3.37736E+03 -8.33432E+03  4.33766E+03 -3.06748E+03 -6.99855E+02 -5.27729E+03  1.82094E+03
 -1.17374E+04 -2.34821E+03 -9.36197E+03 -4.73641E+03 -1.08919E+03 -9.11288E+03  6.39414E+03 -5.82122E+03
  1.07901E+04 -4.72528E+03  7.28870E+03  2.48160E+03 -1.60439E+02  1.01022E+03 -1.61282E+03 -2.20107E+03
 -3.87495E+03 -2.69966E+03  3.56138E+03 -9.53740E+03  2.19714E+03 -1.14240E+04  1.18746E+04 -8.06658E+03
  1.53647E+04 -1.33645E+02  1.00721E+04  1.17342E+04 -1.97186E+03  8.18835E+03 -7.48162E+03  9.36852E+03
 -1.18066E+04  2.50270E+03 -5.60362E+03 -5.05346E+01 -1.08097E+03 -9.69865E+02  7.01643E+03 -8.24110E+02
  7.95189E+02  5.18511E+03  1.96555E+03  6.24842E+03 -6.87013E+03  8.87178E+03 -8.39980E+03  4.58539E+03
 -5.08054E+03 -2.08105E+02 -3.79892E+03 -7.19545E+03  5.38633E+03 -5.26196E+03  2.55757E+03  1.74234E+03
  1.89126E+02  6.55198E+03 -2.60334E+03  6.70661E+03 -8.31822E+03  2.86854E+03 -6.22381E+03 -2.43325E+03
 -3.08571E+03 -4.48135E+03  6.68391E+02 -7.04954E+03  1.02828E+04 -4.03359E+03  6.80324E+03 -2.35194E+03
  1.28639E+04  5.03523E+03 -1.97650E+03  8.44791E+03 -8.28248E+03  1.19760E+03 -9.72836E+03  3.50426E+03
 -5.07465E+03 -1.10095E+03 -1.21519E+03 -5.84554E+03  2.90443E+03 -6.11106E+03  6.68562E+03 -2.77360E+03
  4.94714E+03  3.38798E+03 -8.45383E+01  1.08800E+03 -1.28155E+03 -3.47737E+03 -4.05694E+03 -3.79152E+03
  5.73868E+03 -1.83116E+02  1.27126E+04  2.18212E+03  9.59094E+03  2.94198E+03  3.98466E+03  5.43384E+03
 -1.64822E+02  7.42779E+03 -8.94820E+03  7.17549E+03 -1.25508E+04  6.32097E+01 -1.12534E+04 -3.33839E+03
 -6.09717E+03 -9.17554E+03  2.82709E+03 -2.21304E+03 -1.64606E+03 -1.64670E+03  1.51952E+03 -1.41763E+03
  6.08267E+03  2.42716E+03  3.95856E+03 -3.24792E+03  1.83310E+03 -3.37762E+03  3.01009E+03 -1.08154E+03
  6.76677E+03 -1.10519E+03  6.81348E+03  3.52136E+03  1.66626E+03  3.39964E+03 -7.08035E+03  3.04599E+03
 -8.70052E+03  2.10582E+03  1.22132E+02 -2.73467E+03 -1.32286E+03 -6.45482E+03  4.61558E+03 -1.05424E+04
  7.75250E+03 -8.10249E+02  1.09134E+04 -1.44675E+02  5.91791E+03  4.79301E+03 -1.44191E+03  1.10422E+04
  6.28884E+02  3.40837E+03 -2.47883E+03  5.87488E+03 -1.59914E+03 -2.34815E+03 -7.41548E+03  9.92188E+02
  1.59556E+03 -2.10406E+03 -3.02245E+03  2.76527E+03 -2.61571E+03  1.93573E+03 -7.44115E+02  8.32062E+02
 -1.15780E+03 -4.36415E+03 -1.28771E+03 -6.39552E+03  2.35490E+03 -3.76692E+03  4.39352E+03 -2.22147E+03
  5.19376E+03  5.63485E+03  1.58543E+03  6.28529E+03  2.53082E+03  1.61721E+03 -3.61853E+03  9.22632E+03
 -4.71603E+03 -1.64004E+03 -5.12837E+03 -4.56832E+02 -4.26943E+03 -2.29078E+03 -6.41497E+02 -3.37223E+03
  4.45078E+03 -2.03957E+03  2.84357E+03 -4.36764E+03  1.97953E+03  6.11935E+03  1.77680E+03  1.56176E+03
  4.19610E+03  1.44522E+02  9.71285E+01  1.33392E+03  2.67276E+03  1.77266E+03  3.54802E+03  3.90140E+02
 -3.13116E+03  1.27661E+03 -1.60563E+03  3.98644E+03 -7.71639E+03  3.24569E+03 -4.66156E+03  5.03169E+03
 -2.68132E+03  2.11987E+02 -5.72325E+03 -5.52609E+03 -1.66397E+03 -6.03007E+03  5.49230E+03 -4.02820E+03
  3.35590E+03  9.87029E+01  1.44191E+03  5.47201E+03 -4.77546E+02  1.31128E+03  2.85859E+03  3.05738E+02
 -2.75743E+02 -7.75692E+02  3.75087E+03 -1.16794E+03  2.09651E+03 -3.83931E+01  2.67680E+03  1.46395E+03
 -1.94482E+02  1.52923E+03  1.56620E+03  1.46720E+03 -2.43434E+03  7.00225E+02 -2.70480E+03 -3.69301E+03
  3.63184E+03 -1.09896E+02  2.41083E+03  4.76386E+02 -2.78933E+03 -1.65063E+03 -4.82956E+02  4.96815E+03
  2.02856E+03 -2.50486E+02 -6.58565E+03  4.49664E+03 -4.90797E+03 -2.09307E+03  5.42402E+02 -1.52520E+03
 -2.43457E+03  1.89934E+03  6.73901E+03 -1.90607E+03  4.12914E+03 -1.30621E+03  1.26193E+03  2.89531E+03
  1.35057E+03 -4.33769E+03  1.28527E+03 -5.34511E+02  1.22453E+03 -2.82425E+03  1.03768E+03 -7.72675E+03
 -3.69441E+03 -2.10548E+03  7.63906E+03 -7.37531E+02  1.91606E+03 -2.63313E+03  4.69725E+02 -1.54852E+03
 -2.86629E+03  3.89351E+02  3.10104E+03 -5.58977E+02 -2.18530E+03 -1.92980E+03  4.33867E+03 -3.73633E+03
  5.42973E+02  1.23050E+03 -2.40542E+02  1.61888E+03  5.45831E+02  2.33365E+03 -2.08977E+03  2.66292E+03
  1.56460E+03  2.43478E+03 -4.00032E+03  3.04822E+03 -3.88090E+03  1.39344E+03 -1.81217E+03  4.67172E+02
  2.67685E+03  1.31407E+03  1.73942E+03  3.78454E+03 -1.68712E+03  2.36790E+03 -3.25307E+03 -2.05811E+03
  1.96395E+03  2.33833E+03  1.24930E+03  1.74943E+03 -5.43010E+03 -9.95981E+02 -1.22643E+03 -6.86612E+02
 -5.95408E+02  3.49311E+03 -1.87119E+03 -3.03162E+03 -7.53822E+02 -5.60112E+03 -7.24530E+03 -1.67330E+03
 -1.01241E+03 -5.39665E+03 -6.98797E+02 -1.00786E+04 -7.07479E+02 -3.21275E+03 -4.03227E+03 -5.72167E+02
  1.68877E+03 -6.02911E+02  7.28001E+02  2.28056E+03  1.79418E+03  1.32621E+03  1.41420E+03  3.94524E+03
  5.21580E+03  4.79225E+03  1.12565E+03 -1.89781E+03  2.48192E+03  1.42700E+03 -5.93301E+03 -2.43415E+03
  2.00967E+03 -3.69860E+03 -3.20159E+03  2.25499E+03  1.17302E+03  2.66309E+03  1.19428E+03  4.18712E+02
  5.61385E+03 -3.77285E+03  1.48850E+03  2.75322E+03  2.92537E+03  3.83885E+03 -1.17334E+03 -1.44027E+03
 -3.44356E+03  1.93571E+03 -1.88522E+02 -1.40675E+03 -6.27286E+03  3.45116E+03 -6.21914E+03 -6.51642E+02
 -2.62360E+03 -2.22886E+03  3.04245E+03 -2.63370E+03  1.33266E+03  2.91294E+03 -3.90825E+03  1.44107E+03
  1.60311E+03  9.96059E+02  9.75155E+01  3.12065E+03  3.28430E+02 -3.02225E+03 -1.05435E+03  3.97981E+02
  5.42152E+02 -1.57228E+03 -3.99286E+03 -1.11935E+03  1.61332E+03  5.07553E+03  5.64536E+03  1.38627E+03
  1.02532E+03 -1.96374E+03 -3.57765E+03  4.04243E+02  8.03811E+02 -4.98708E+03 -5.01205E+02 -4.60315E+03
  1.35654E+03  2.07250E+02  1.07886E+03  5.77797E+02  1.82579E+03  1.01907E+03  2.80955E+03 -4.35270E+01
 -2.59194E+03  1.68341E+03  8.64694E+02 -5.55299E+02  2.65928E+03 -1.63790E+02  1.05062E+03 -2.01007E+03
  3.33983E+03  2.45213E+03 -4.05694E+03 -2.29549E+03 -1.54140E+03 -2.65753E+03 -3.20273E+02 -3.38054E+03
  6.49816E+02  2.67775E+02  1.66751E+03 -2.99706E+03 -3.69712E+02 -1.36840E+03  9.89511E+02 -2.46634E+03
  2.19401E+03  1.50692E+03  5.52309E+02 -1.86852E+03  1.91168E+02  2.12580E+01 -2.13171E+03  2.44298E+03
