 $NMID ID='MM_0lb_SNR50_16hz_g60_44.RAW', FMTDAT='(8E13.5)'
 TRAMP=1., VOLUME=1. $END
  3.09385E+05  2.56423E+03  3.37887E+05  2.50854E+05  8.49077E+04  3.43741E+05 -1.26543E+05  2.47316E+05
 -1.85432E+05  8.50067E+04 -1.11288E+05 -3.65979E+04  3.27958E+03 -4.95475E+04  5.48510E+04  3.19431E+03
  3.72794E+04  5.18329E+04 -2.11237E+04  7.48501E+04 -6.04878E+04  6.37202E+04 -8.43130E+04  3.58636E+04
 -8.40145E+04 -1.65381E+04 -5.60354E+04 -5.14807E+04 -1.27163E+04 -6.98740E+04  2.90200E+04 -4.46159E+04
  4.30652E+04  3.05795E+03  1.39727E+04  4.94032E+04 -3.18618E+04  5.18516E+04 -6.56577E+04 -1.33832E+03
 -5.42704E+04 -5.63875E+04 -6.61519E+03 -7.76806E+04  3.44012E+04 -5.86859E+04  5.05913E+04 -2.28669E+04
  3.98988E+04  6.26940E+03  3.45749E+04  2.05401E+04  2.01654E+04  2.72680E+04 -6.02414E+03  2.91940E+04
 -2.37770E+04  1.55726E+04 -1.71598E+04 -2.71499E+02  1.95257E+03 -1.07387E+04  2.30095E+04  1.26197E+04
  5.77924E+03  3.23588E+04 -3.37372E+04  3.59429E+04 -6.36591E+04  7.68055E+03 -5.81235E+04 -3.88589E+04
 -7.86578E+03 -6.23480E+04  4.10892E+04 -4.95799E+04  6.70834E+04 -2.71931E+03  2.67524E+04  3.30324E+04
 -5.12614E+03  3.74826E+04 -3.11034E+04  1.74723E+04 -3.06087E+04 -4.70908E+03 -1.38166E+04 -1.07111E+04
 -8.21652E+03 -1.66193E+04  3.36726E+03 -1.36369E+04  5.35604E+03 -2.54330E+04  1.40953E+04 -8.58555E+03
  1.00552E+04  5.92952E+03 -9.53665E+03  1.16972E+04 -1.90897E+04 -4.00371E+03 -8.43676E+03 -3.54637E+04
  2.53635E+04 -4.60947E+04  4.95079E+04 -1.53651E+04  4.66914E+04  2.34614E+04  2.11734E+04  4.70377E+04
 -1.26449E+04  3.33217E+04 -2.55326E+04  2.80107E+03 -1.12797E+04 -3.26782E+04  1.35446E+04 -3.46879E+04
  3.79163E+04 -6.13839E+03  3.61769E+04  2.30570E+04  1.95367E+04  4.55236E+04 -5.16097E+03  5.27518E+04
 -2.91881E+04  3.42862E+04 -3.91795E+04  1.08248E+04 -4.32865E+04 -1.42456E+04 -2.34930E+04 -4.00047E+04
  4.80251E+03 -4.03556E+04  3.45738E+04 -1.53996E+04  2.63986E+04  1.42169E+04 -2.42576E+03  1.86471E+04
 -1.54638E+04  5.60504E+03 -1.17586E+04 -9.78356E+03  5.63218E+03 -1.25030E+04  1.55447E+04  4.36015E+03
  1.39951E+04  1.94186E+04 -7.43876E+03  2.63228E+04 -2.46520E+04  9.73288E+03 -2.56022E+04 -9.36615E+02
 -2.12291E+04 -1.89918E+04 -8.73078E+03 -1.75290E+04  3.39635E+03 -1.92898E+04  1.32524E+04 -2.08436E+04
  2.43656E+04 -9.58953E+03  3.23805E+04  1.29385E+03  2.27151E+04  1.95415E+04  7.13143E+03  3.51582E+04
 -2.11387E+04  2.93893E+04 -2.44894E+04  1.28018E+04 -2.05220E+04 -8.09924E+03 -1.84905E+03 -1.14537E+04
  2.41927E+03 -6.34410E+03 -4.13400E+03  7.13198E+03 -1.83960E+04  5.64943E+03 -1.43012E+04 -1.09396E+03
 -6.00949E+03 -2.05618E+04  5.59243E+03 -2.25521E+04  1.94016E+04 -1.86034E+04  1.89276E+04 -2.24506E+03
  1.18875E+04  1.27066E+04 -1.07771E+03  1.97803E+04 -9.66993E+03  8.32988E+03 -2.04040E+04 -3.19571E+03
 -1.63197E+04 -1.79010E+04 -3.80587E+03 -2.18543E+04  1.19935E+04 -2.22168E+04  2.12674E+04 -9.33834E+03
  1.80097E+04 -2.18902E+03  1.26783E+04  4.27884E+03  3.83230E+03  1.84725E+03  9.72187E+03 -3.59225E+02
  1.16460E+04  1.00520E+03  1.90320E+04  1.61333E+04  1.07600E+04  2.66872E+04 -1.12635E+03  3.23070E+04
 -2.20239E+04  2.60782E+04 -3.24515E+04  1.14527E+04 -2.83319E+04  6.10377E+02 -2.90301E+04 -1.64516E+04
 -8.44974E+03 -2.44853E+04  1.11927E+04 -2.62657E+04  2.18889E+04 -1.56667E+04  1.89723E+04  6.12892E+03
  9.82150E+03  1.87869E+04 -1.00240E+04  1.17104E+04 -9.93333E+03  7.79078E+02 -1.58409E+04 -6.30131E+03
 -7.16919E+03 -1.28697E+04  7.99319E+03 -1.63537E+04  1.12511E+04 -1.79214E+03  2.38996E+03  4.34360E+02
 -4.55969E+03  3.21236E+03 -1.78877E+03 -7.15515E+03 -2.74649E+03 -1.14798E+04  1.14148E+04 -1.09623E+04
  1.46463E+04 -2.59864E+03  1.56202E+04  6.09053E+03  1.48371E+04  9.19729E+03  7.49871E+03  1.85565E+04
  1.20960E+03  2.73503E+04 -1.64623E+04  1.19161E+04 -1.12487E+04  5.38462E+03 -1.07742E+04 -2.76457E+01
 -8.23782E+03 -6.11663E+02  1.70896E+03 -1.22293E+03 -2.81266E+03 -3.86600E+03 -1.79008E+03  3.66766E+03
 -1.06528E+04 -1.68582E+03 -1.02689E+04 -4.30734E+03 -6.31545E+02 -1.45034E+04 -3.59963E+02 -1.10272E+04
  1.12462E+04 -1.20343E+03  3.85852E+03  4.83734E+03 -3.58574E+02  1.54046E+03 -8.07793E+02 -2.68027E+03
 -6.09851E+03 -3.47917E+03 -4.59523E+03 -1.35064E+04  5.93456E+03 -1.02438E+04  1.63829E+04 -7.91866E+03
  1.52844E+04  7.06935E+02  1.67068E+04  7.94623E+03 -2.28427E+03  1.14218E+04 -8.82334E+03  1.00199E+04
 -5.56938E+03  4.74540E+03 -5.10173E+03 -3.50955E+03  3.47432E+03 -1.52050E+03  3.47778E+03 -1.99751E+03
  6.00129E+03  5.72870E+03  3.98761E+03  1.09659E+04 -1.00942E+04  6.10248E+03 -1.06360E+04 -1.54060E+03
 -5.29658E+03 -4.71553E+03  4.48868E+03 -1.04569E+04  2.63711E+03 -1.74383E+03  2.15535E+03  7.31417E+03
  1.97453E+03  2.88491E+03 -6.65136E+03  4.72873E+03 -3.90799E+03 -1.16332E+03 -3.17845E+03  3.44934E+03
 -4.33238E+03 -6.70424E+03  3.54112E+03 -1.19717E+04  1.16756E+04 -4.35741E+03  8.18334E+03  3.91796E+03
  6.35167E+03  4.75999E+03 -2.59835E+03  1.34814E+04 -1.17025E+04  3.31483E+03 -8.18302E+03 -1.94660E+03
 -1.11869E+04 -5.66175E+03 -1.14805E+03 -1.87777E+03  3.80511E+03 -3.30606E+03  8.03851E+03  3.70581E+01
  1.45651E+03  3.00774E+03  4.87242E+03  4.88489E+03  2.24565E+03  1.27840E+03 -1.62008E+03 -1.10263E+03
  5.76495E+03  8.45144E+02  8.40324E+03  5.45942E+03  6.29831E+03  6.46672E+03  3.68988E+03  1.19440E+04
 -1.60989E+03  1.56903E+04 -1.42708E+04  5.14254E+03 -1.07597E+04  1.59028E+03 -7.34298E+03 -2.62442E+02
 -7.26424E+03 -1.00036E+04 -3.36920E+03 -6.58684E+03  3.02663E+03 -1.08990E+03  4.08879E+03 -1.69279E+03
 -1.01415E+03 -3.24613E+03  2.67032E+03 -6.68498E+03  5.27710E+02 -3.04546E+02 -8.12641E+01  6.09905E+02
  8.64037E+03  6.84728E+02  1.24028E+03  3.53016E+03  2.08789E+03  4.98928E+03 -6.15491E+03  5.20893E+03
 -5.71192E+03 -4.19061E+03 -6.92641E+03 -3.63346E+03 -3.38271E+03 -6.37729E+03  8.78741E+03 -8.03056E+03
  4.64366E+03 -8.58436E+03  1.12799E+04 -2.03861E+03  1.11895E+04  6.68850E+03  3.38576E+03  5.15397E+03
  2.81938E+03  6.40584E+03 -6.32378E+03  5.90814E+03 -1.00690E+03 -2.19967E+03  3.52243E+02 -6.46548E+02
  5.04054E+03  3.43329E+03 -3.60516E+03 -4.18269E+03 -2.03961E+03  8.05415E+03 -4.72379E+03 -3.95515E+01
 -3.46125E+03 -1.28631E+03  9.72800E+01 -4.60010E+03  3.67602E+03 -9.36057E+03  3.54315E+03 -2.49176E+03
  2.33164E+03  3.36083E+03  4.30975E+03  1.15140E+04 -5.04687E+03  5.21730E+03 -2.86052E+03  5.68349E+03
 -8.60408E+03  2.19613E+02 -3.15130E+03  1.89193E+03 -1.35726E+03  4.84842E+02  2.17164E+03 -3.33142E+03
  3.35119E+03 -9.88972E+01  5.35854E+03 -3.44280E+02 -3.68362E+03  1.08981E+02  2.77916E+02  7.96474E+02
  3.86222E+03 -2.00612E+03 -4.98005E+03 -1.06445E+02  1.66306E+03  2.26267E+03  3.02487E+03  3.12341E+03
 -1.77257E+03  2.44143E+03 -4.12958E+03  8.22457E+03 -2.83450E+03  1.72974E+02 -7.52944E+03 -3.81286E+03
 -6.64093E+03 -1.17556E+04  1.43055E+03 -4.92767E+03  3.43219E+03 -3.58999E+03  5.19191E+03  4.94525E+03
  2.83657E+02  3.23957E+03  1.00163E+03  4.53160E+03 -4.27725E+03  5.59562E+03 -1.45547E+03 -1.14382E+03
  1.22571E+03  1.27468E+02  2.05205E+03 -2.99926E+03  4.46432E+03 -1.61900E+03  5.42243E+03  3.39250E+03
 -9.26525E+02 -8.90643E+02  5.30713E+03 -8.43015E+02 -2.43603E+03  3.56036E+03  1.29625E+02 -5.10314E+03
  3.93023E+03  1.83318E+03  4.03754E+03 -3.77685E+03 -1.07981E+03  4.91692E+03  2.16727E+02 -3.24652E+02
 -1.27357E+03  4.10931E+03 -5.04877E+02  2.53406E+03 -4.70334E+02  7.60538E+02 -8.81380E+02 -3.38539E+03
 -3.03124E+03 -3.74818E+03  1.72497E+03 -2.30598E+03  7.88215E+03 -2.53212E+03  3.33027E+03  8.76611E+02
  6.90089E+02  1.35756E+03  3.68987E+03 -1.65668E+03 -9.63856E+02 -8.48043E+03  3.89645E+03 -1.23073E+03
 -2.88463E+02 -4.49332E+03 -5.10032E+01 -3.63021E+02  1.55678E+03  3.73118E+03 -3.15720E+02  1.81754E+03
 -3.39145E+02 -4.23727E+02 -3.09277E+03 -1.92198E+03  5.27236E+02 -3.66463E+03  2.00777E+03 -2.66939E+03
 -9.22488E+02  7.73990E+02  3.20335E+03  1.00431E+02  2.26116E+03 -1.66968E+03  1.02942E+02 -2.37211E+02
 -3.64431E+03 -1.06516E+02 -3.25113E+03 -1.21938E+02  3.48350E+03  1.52343E+03 -1.58144E+03 -2.90151E+03
  1.28623E+03 -2.89337E+03  4.85622E+02  2.38274E+03  1.12089E+03  1.43248E+03  1.21121E+03 -4.37070E+03
  4.08143E+03  2.11808E+01 -1.30097E+03 -1.48874E+03  2.51270E+03  1.83788E+03 -2.98079E+03  1.29878E+03
  3.11308E+02  1.86308E+03 -6.42892E+03  1.46819E+03 -3.35632E+03 -2.11416E+03 -2.97926E+03 -3.76037E+03
 -1.14328E+03 -2.88974E+03 -1.55235E+03 -4.25249E+03  4.85872E+03 -1.65918E+03  5.19310E+03 -8.43040E+02
  5.17928E+03  2.57825E+03  2.79974E+03  3.93711E+03 -2.09919E+03  3.72763E+03 -4.11073E+03  3.97213E+03
 -1.27037E+03  9.71292E+02 -2.31430E+03 -1.77074E+03 -6.63786E+02  1.43420E+03 -1.69971E+03 -2.72984E+02
 -7.88690E+02  4.70395E+02  2.82745E+03 -2.51191E+02 -2.29726E+03 -6.60318E+02 -1.27541E+03 -3.68600E+03
  2.95329E+03 -9.95581E+02 -1.76544E+03 -9.51085E+03  4.24119E+03  3.99375E+03  4.08924E+03 -1.68485E+03
  5.15768E+02  6.69489E+03 -1.21602E+03  6.17092E+03 -3.12482E+03  2.39274E+03 -4.39009E+03 -3.84992E+03
 -7.53111E+02 -1.85754E+03  2.39305E+03 -9.25674E+02 -1.36886E+03 -3.43693E+03  9.52704E+02  2.70641E+03
  4.13872E+03  9.15981E+02 -2.31247E+03 -1.57421E+03 -1.83595E+03  6.18555E+02 -2.14477E+03 -3.19287E+03
  1.99472E+03 -1.79342E+03  4.93064E+03  9.21855E+02  6.19604E+02  3.62709E+03 -2.01146E+03  5.02061E+03
 -3.32462E+03  4.43699E+03  2.42493E+03 -4.62079E+03 -2.85140E+03 -3.44730E+01 -5.63400E+02 -4.92443E+03
  6.58317E+03 -1.73290E+03  1.18838E+03 -3.55977E+03  9.58565E+02  3.08992E+03 -1.89734E+03  2.53660E+03
  2.89682E+03  2.43490E+03  1.11798E+03 -1.25761E+03  1.36010E+03 -1.48876E+03 -3.51955E+03  1.30286E+03
  1.09910E+03  8.09987E+01 -5.39324E+02  1.71846E+03  2.08700E+03  1.69236E+03  7.25702E+02  6.37605E+02
 -1.31584E+03  2.19004E+03 -2.21810E+03 -4.43151E+03  7.34511E+02 -3.13541E+03 -3.29464E+03  1.43471E+03
  2.19167E+03 -3.72498E+03 -4.03473E+03  2.59330E+03 -2.80247E+03  4.49370E+03 -6.23153E+02 -8.99750E+02
