 $NMID ID='MM_0lb_SNR50_20hz_g55_27.RAW', FMTDAT='(8E13.5)'
 TRAMP=1., VOLUME=1. $END
  3.12275E+05  3.13765E+03  3.38154E+05  2.46384E+05  8.36941E+04  3.37228E+05 -1.31965E+05  2.48630E+05
 -1.91990E+05  8.24359E+04 -1.06430E+05 -3.64025E+04  3.84244E+02 -4.61091E+04  5.90688E+04  2.66466E+03
  3.61587E+04  5.19414E+04 -1.26024E+04  7.40842E+04 -6.43992E+04  6.53284E+04 -8.60952E+04  3.13180E+04
 -8.20091E+04 -9.40263E+03 -5.63647E+04 -5.23189E+04 -2.10698E+04 -6.63341E+04  2.29192E+04 -4.71795E+04
  4.16545E+04  7.65126E+03  1.15896E+04  4.92411E+04 -3.29049E+04  4.23918E+04 -6.87788E+04 -1.52775E+03
 -5.48531E+04 -5.80333E+04 -5.26040E+03 -7.31614E+04  3.53802E+04 -5.06808E+04  4.75178E+04 -1.56221E+04
  4.30673E+04  1.28460E+04  3.46490E+04  2.69124E+04  1.25496E+04  2.66066E+04 -4.19609E+03  2.82712E+04
 -2.19299E+04  1.38985E+04 -2.12654E+04 -1.99810E+03  5.03571E+03 -5.82730E+03  2.15370E+04  7.88764E+03
  5.28168E+03  3.08328E+04 -3.11414E+04  3.27094E+04 -6.19621E+04  2.29543E+03 -5.77890E+04 -4.19287E+04
 -1.44230E+04 -6.36459E+04  3.90199E+04 -4.63416E+04  5.38937E+04 -8.54448E+03  3.05172E+04  2.93004E+04
 -5.30195E+03  3.35599E+04 -2.91408E+04  1.09471E+04 -2.68391E+04 -1.42006E+03 -1.45627E+04 -1.10032E+04
 -5.46998E+03 -1.20407E+04  1.37968E+03 -1.75157E+04  8.10814E+03 -2.03148E+04  1.39377E+04 -1.70920E+04
  1.76394E+04  6.45648E+03 -7.91363E+03  1.15326E+04 -1.88328E+04 -4.17444E+03 -8.16506E+03 -2.83675E+04
  2.34786E+04 -4.15188E+04  4.78968E+04 -1.53529E+04  4.40501E+04  1.93026E+04  1.65328E+04  4.25231E+04
 -1.22622E+04  2.77536E+04 -2.39178E+04  4.62051E+03 -7.34762E+03 -2.55225E+04  2.12061E+04 -3.07542E+04
  3.59827E+04 -4.61799E+03  3.45992E+04  2.69287E+04  1.78770E+04  4.30849E+04 -5.93826E+03  4.57057E+04
 -2.76602E+04  3.18977E+04 -3.83893E+04  4.84195E+03 -3.76111E+04 -1.72789E+04 -2.31051E+04 -3.17269E+04
  4.60773E+03 -3.12609E+04  3.29228E+04 -1.40966E+04  2.87088E+04  1.17268E+04  4.96248E+03  2.20193E+04
 -1.23306E+04  6.28831E+03 -1.25940E+04 -7.78524E+03  3.94466E+03 -1.17652E+04  2.01255E+04 -6.17673E+02
  1.32984E+04  2.48111E+04 -1.19209E+04  2.64185E+04 -2.23017E+04  1.04877E+04 -2.29279E+04 -6.88485E+03
 -1.44014E+04 -1.98919E+04 -4.64423E+03 -1.33082E+04  5.01995E+03 -1.19210E+04  1.21829E+04 -1.45709E+04
  1.58220E+04 -1.16790E+04  2.53107E+04  7.08058E+03  2.36004E+04  1.60422E+04  5.62094E+03  3.40223E+04
 -1.56271E+04  2.86504E+04 -2.70369E+04  4.49494E+03 -2.09369E+04 -1.25271E+04 -2.86690E+03 -1.20590E+04
  1.89719E+02 -4.14326E+03 -7.14584E+02  4.44974E+03 -1.42130E+04  5.97879E+03 -1.60954E+04 -4.57830E+03
 -5.20357E+03 -1.36523E+04  5.30138E+03 -1.91094E+04  1.11861E+04 -1.64381E+04  1.45144E+04 -2.41441E+03
  9.33484E+03  7.60869E+03 -3.37408E+02  1.34775E+04 -1.05711E+04  6.72288E+03 -1.26021E+04 -2.10806E+03
 -8.70827E+03 -1.17251E+04 -5.17250E+03 -1.35398E+04  6.59967E+03 -1.56132E+04  1.12671E+04 -6.19615E+03
  1.16709E+04 -1.28137E+03  8.60956E+03  9.78145E+03  5.14306E+03  4.28102E+03  7.07988E+03  2.18293E+03
  1.45661E+04  5.30066E+03  1.10592E+04  1.40642E+04  7.99503E+03  2.67709E+04 -3.36045E+03  2.68860E+04
 -1.52258E+04  2.21986E+04 -2.42755E+04  9.69611E+03 -2.22615E+04  6.16944E+02 -2.34733E+04 -1.56220E+04
 -8.14219E+03 -1.85180E+04  8.52767E+03 -1.69403E+04  1.66632E+04 -1.41700E+04  1.63691E+04  1.82056E+03
  6.59075E+03  9.99063E+03 -4.99350E+03  6.87196E+03 -1.70723E+04 -1.80501E+02 -7.86448E+03 -1.15857E+04
  2.72879E+03 -1.19072E+04  4.20426E+03 -1.23977E+04  7.46052E+03  1.46906E+03  6.86789E+01  6.43372E+03
 -2.13494E+03  2.81870E+03 -1.28289E+03 -5.07124E+03 -7.44410E+02 -8.54348E+03  8.82407E+03 -1.58860E+04
  1.46313E+04 -5.73058E+03  1.07202E+04  1.64998E+03  9.97101E+03  1.04579E+04  7.92016E+03  1.49826E+04
 -1.85966E+03  1.53534E+04 -1.10102E+04  8.10430E+03 -8.99687E+03  3.26396E+03 -6.60804E+03 -4.01492E+03
 -3.04819E+03  3.12448E+03 -2.74121E+03  1.52512E+03 -5.06730E+03 -5.04711E+02 -2.65998E+03  4.20598E+03
 -8.18126E+03  1.87659E+03 -9.22445E+03 -7.55178E+03 -5.48807E+03 -1.16751E+04  4.63801E+03 -1.02703E+04
  7.10027E+03 -4.87600E+03  7.25622E+03  7.13162E+02 -5.15461E+02  4.95019E+03 -1.60237E+03  7.11053E+02
 -4.41959E+03 -4.31317E+03 -2.11387E+03 -6.19561E+03  3.38986E+03 -6.18602E+03  7.48498E+03 -4.34408E+03
  6.95926E+03 -3.49112E+03  1.28707E+04  3.52790E+03  4.28095E+03  8.55161E+03 -5.89503E+03  8.80369E+03
 -4.43489E+03 -3.65632E+03 -3.77105E+03  1.48641E+03  4.22369E+02 -2.69907E+03  4.03322E+03  2.60571E+03
  5.18918E+03  1.67231E+02  3.31618E+03  8.41408E+03 -5.31675E+03  6.53154E+03 -1.03221E+04  1.51017E+03
 -7.45937E+03 -3.64836E+03 -6.86847E+02 -1.63994E+03  5.34382E+03  1.36235E+02  5.46892E+03  3.58000E+03
  1.58497E+03  1.50573E+03 -5.21347E+03 -3.40439E+02 -6.03023E+03  4.43463E+03  2.04074E+02 -5.58342E+02
 -5.12281E+03 -6.40212E+03  3.08347E+03 -8.76196E+03  6.31810E+03 -3.48264E+03  4.13553E+03  4.01481E+03
  4.04603E+03  6.33328E+03  2.42211E+03  8.33178E+03 -5.35441E+03  9.71417E+01 -3.23862E+03 -9.39744E+02
 -5.59424E+03 -4.41749E+03 -1.56140E+03 -6.74004E+03  9.80003E+02 -3.78610E+03  3.45663E+03  2.94916E+02
  3.11521E+03 -9.29211E+02  1.64395E+03  4.25027E+03  1.15044E+03  1.88989E+03  3.31301E+03 -1.66069E+03
  4.91423E+03 -4.30077E+02  4.27152E+03  4.37500E+02  6.71195E+03  5.96121E+03  2.19820E+03  4.02746E+03
 -9.14417E+02  7.50086E+03 -7.40391E+03  5.57473E+03 -9.63736E+03  8.28879E+03 -7.37371E+03  4.68305E+02
 -7.87331E+02 -1.49897E+03 -1.07659E+03 -6.54616E+03  4.26706E+02 -2.14046E+03  1.36252E+03 -4.88763E+03
  1.78997E+03 -1.62273E+02  2.46907E+02 -3.24210E+03  2.51353E+03 -4.86900E+03  9.09030E+02  4.05293E+03
  2.26669E+03 -1.33950E+03  2.68693E+02  2.81191E+03  1.02090E+03 -2.28037E+03 -3.59196E+01 -8.16633E+02
 -1.16317E+04 -2.32035E+03 -1.16475E+03 -2.51608E+03  1.56464E+03 -3.54018E+03  4.15099E+03 -5.39970E+03
  5.36522E+03 -4.06471E+03  7.44218E+03 -8.63532E+02  7.44789E+03  5.50397E+03  2.70703E+03  1.43818E+03
 -3.34860E+02  1.58329E+03 -1.20037E+03  4.29827E+03 -3.75709E+03  6.93313E+02 -5.01388E+02  6.04372E+02
 -6.36085E+02  1.33714E+03  4.15344E+03  3.18672E+03 -1.03026E+03 -9.38432E+01 -1.69885E+03  9.58034E+02
 -6.40458E+02 -7.10767E+03  8.02333E+02 -4.49541E+03 -2.72530E+03 -4.42708E+03  4.30864E+03 -2.33330E+02
  2.46543E+03  2.30072E+03  4.30820E+03  1.13937E+03 -1.93750E+03  4.11596E+03 -9.81841E+02  3.07258E+03
 -1.01949E+02 -8.22216E+02 -3.95021E+02 -1.42781E+02  2.30135E+03 -1.86614E+03 -3.55904E+02 -1.72847E+03
  1.39847E+03 -1.85523E+03 -2.93422E+02  2.17271E+03 -1.12327E+03  2.20750E+03  2.24370E+03  3.30617E+01
 -5.05196E+02 -1.48823E+03 -9.09873E+02  1.79457E+03  1.42232E+03 -1.84089E+03  6.05502E+01  5.84463E+03
  2.15295E+03  1.22163E+03 -4.68299E+03  3.42099E+03  2.57756E+02  3.40059E+03  2.11358E+03  2.87418E+02
 -1.98785E+03 -2.51723E+03  8.09816E+02 -4.08457E+03  6.46474E+02 -3.80902E+03 -2.65032E+02  2.37990E+03
  3.85995E+02  1.64564E+03 -1.32123E+03  3.08255E+03 -6.73910E+02 -1.07529E+03  2.85522E+02 -6.30835E+03
 -8.60448E+02  7.31709E+02  1.26503E+03  4.86136E+03  4.16390E+02 -2.27384E+03 -2.08539E+03 -1.86828E+03
 -2.66219E+03  1.01665E+03 -9.34765E+02 -3.24137E+03  2.92099E+03  3.84926E+03  9.09725E+02 -5.02624E+02
 -1.10148E+02 -1.83051E+03 -5.70288E+02  8.55025E+02  2.05399E+03  2.99113E+03 -3.79786E+02  3.80590E+03
 -4.05011E+03 -2.32055E+03 -3.12140E+03 -7.57112E+01  8.54937E+00  5.03556E+02 -7.55496E+02  4.69345E+02
  1.29564E+03 -1.09864E+03 -7.76309E+01  1.33634E+03 -1.60067E+03  2.57956E+03 -3.93919E+03  1.95220E+03
 -1.38882E+03 -3.27902E+03 -3.17011E+03 -3.97816E+02 -1.28066E+03  1.27196E+02 -1.45921E+03 -1.52380E+03
  2.26907E+03  3.58664E+03  2.33692E+03  1.17543E+03  4.24036E+03 -9.94572E+01  2.71769E+03  2.08182E+03
 -4.71735E+03  4.81467E+02  6.11352E+02  2.23068E+03 -3.71318E+03 -2.85544E+02  3.87088E+03  1.96095E+03
  2.85866E+03  2.12698E+03  1.71538E+03 -1.41324E+03  2.62748E+03  4.44431E+03 -3.28195E+03 -5.44534E+03
  1.36668E+03  4.59855E+03 -2.34233E+03 -2.29848E+03 -5.28729E+02 -3.24493E+03 -2.07005E+03  5.62924E+02
 -2.11426E+03 -1.91529E+03  7.42059E+02  1.37770E+03 -1.69924E+03 -5.89713E+02 -4.83681E+02  4.52221E+02
  1.58192E+03 -1.40613E+03  1.56120E+03 -2.57260E+03  2.98172E+03 -2.58223E+03  1.53335E+03  1.58049E+03
  4.86896E+02  1.64507E+03 -3.87981E+03  1.26314E+02 -2.01087E+03 -8.34286E+02  8.60797E+02  3.78029E+03
 -2.79805E+03 -3.88432E+03  7.67023E+02 -5.26530E+03 -9.51220E+02 -9.24801E+02  3.36815E+03 -1.41406E+03
 -3.77418E+02 -4.15866E+02  4.34616E+03  1.56682E+03 -1.35425E+02  2.31577E+03 -2.33860E+03 -7.08179E+02
  3.15307E+03 -6.99708E+02 -4.81981E+03  3.26475E+03 -1.24138E+03  1.71297E+03  2.28431E+03  5.66164E+03
  4.92911E+02  5.21060E+02  4.11783E+02 -3.07572E+02 -2.20464E+03  4.70930E+03  1.87728E+03 -1.42505E+03
  2.34171E+03 -2.37549E+03 -9.16681E+01  2.55437E+03  9.99009E+02  1.28609E+03 -3.20982E+03  2.95467E+03
 -1.10512E+02 -2.05815E+03 -3.12593E+03 -3.31693E+03  1.19923E+03  4.57060E+03 -3.20221E+03  6.22185E+02
 -4.57554E+03 -4.82634E+02  3.32990E+03 -3.42266E+03 -1.11444E+03 -9.54330E+02 -1.43023E+03 -1.90885E+03
  4.45938E+02 -1.55782E+03 -1.00831E+03  5.65994E+03 -5.36523E+02 -1.01900E+03 -8.99261E+01  2.45197E+03
  1.47182E+03  2.53635E+03  3.09727E+03 -1.71312E+03  1.06488E+03  4.00693E+03  2.17436E+03 -1.34134E+03
  7.11665E+02  1.57253E+03 -3.40973E+03  3.15305E+03 -6.44264E+02  4.62601E+03 -1.23811E+03 -6.95879E+02
 -2.57792E+03  1.90745E+03  2.97798E+03  2.00916E+03  4.25095E+03 -2.35292E+03  2.91132E+03  9.83383E+02
 -2.70176E+03 -7.39625E+02  1.48835E+03  1.09263E+03 -3.37842E+03  2.25125E+03  2.56756E+03  1.40579E+03
  1.22085E+03 -1.34434E+03  1.75861E+03 -3.92872E+00  1.56043E+03  1.60436E+01 -2.15731E+03 -1.46656E+03
  2.26721E+03  3.07948E+03  2.26339E+03 -2.89849E+03  2.22167E+03 -2.97983E+03  2.91902E+03  2.87182E+03
 -1.41382E+03 -3.29564E+02 -2.21610E+03 -3.97199E+02  3.88321E+03 -5.41623E+02  4.27506E+03  1.57713E+03
