 $NMID ID='MM_0lb_SNR50_19hz_g55_16.RAW', FMTDAT='(8E13.5)'
 TRAMP=1., VOLUME=1. $END
  3.11836E+05 -1.86043E+03  3.38454E+05  2.49134E+05  8.47579E+04  3.38017E+05 -1.32097E+05  2.47127E+05
 -1.91069E+05  8.46239E+04 -1.08920E+05 -3.52975E+04  5.55795E+03 -4.69966E+04  5.04675E+04 -4.03718E+03
  3.53206E+04  5.27413E+04 -1.95909E+04  7.38589E+04 -5.70778E+04  6.56810E+04 -8.49865E+04  3.05061E+04
 -8.58722E+04 -1.39902E+04 -5.60779E+04 -4.56044E+04 -1.40249E+04 -6.37309E+04  2.63786E+04 -4.28026E+04
  3.74918E+04  3.09291E+03  1.46889E+04  4.68870E+04 -3.23931E+04  4.33938E+04 -6.62728E+04  2.55839E+03
 -5.06314E+04 -5.46927E+04 -3.33288E+03 -7.58191E+04  3.39877E+04 -5.38855E+04  4.79050E+04 -1.59972E+04
  4.42743E+04  5.08091E+03  3.38651E+04  2.34946E+04  1.56094E+04  3.25805E+04 -9.66345E+02  2.76723E+04
 -2.26984E+04  1.76154E+04 -2.17212E+04 -5.64297E+03  6.24906E+03 -7.04365E+03  1.94000E+04  1.11536E+04
  6.32629E+03  3.30543E+04 -3.40150E+04  3.35309E+04 -5.89138E+04  3.95859E+03 -5.51041E+04 -4.11051E+04
 -9.85435E+03 -6.14416E+04  3.68202E+04 -4.22216E+04  5.44276E+04 -2.27332E+03  3.16844E+04  3.08184E+04
 -8.00463E+03  2.74542E+04 -2.34903E+04  1.33861E+04 -2.76615E+04 -3.17259E+03 -1.81293E+04 -1.10894E+04
 -8.75714E+03 -1.51601E+04 -1.61400E+03 -1.53986E+04  9.91577E+03 -2.39839E+04  1.15139E+04 -1.83800E+04
  1.59867E+04  2.04474E+03 -4.54762E+03  1.12807E+04 -2.15316E+04 -4.32611E+03 -7.36971E+03 -2.76641E+04
  2.25744E+04 -4.34005E+04  4.91852E+04 -1.88525E+04  4.20536E+04  2.07094E+04  1.26114E+04  4.40362E+04
 -1.46362E+04  2.93183E+04 -2.47991E+04 -3.05025E+03 -7.36018E+03 -2.67370E+04  1.83941E+04 -3.41665E+04
  3.55629E+04 -6.67033E+03  3.48590E+04  2.02512E+04  1.59864E+04  4.36591E+04 -8.82816E+03  4.79298E+04
 -3.15305E+04  3.19029E+04 -3.91764E+04  9.91737E+03 -4.23213E+04 -1.38871E+04 -2.33353E+04 -3.40391E+04
  9.19774E+03 -3.67569E+04  3.06984E+04 -9.29941E+03  2.96328E+04  1.13781E+04  1.09138E+03  2.23364E+04
 -1.35970E+04  8.05832E+03 -5.87666E+03 -8.01500E+03  7.36753E+03 -7.15045E+03  1.78423E+04  6.79093E+03
  1.22416E+04  2.07266E+04 -1.12208E+04  2.71759E+04 -2.17421E+04  1.50550E+04 -2.09225E+04 -4.47429E+03
 -1.52845E+04 -1.40168E+04 -3.21604E+03 -1.74060E+04  5.68622E+03 -1.07225E+04  7.09025E+03 -1.38095E+04
  2.09815E+04 -1.48115E+04  2.96170E+04 -1.35526E+03  1.75995E+04  1.62259E+04  2.09446E+03  3.28486E+04
 -1.78891E+04  2.72847E+04 -2.88567E+04  1.17155E+04 -2.11665E+04 -1.31521E+04  4.04720E+02 -1.23934E+04
  9.93108E+02 -2.16609E+03 -4.63702E+03  4.56664E+03 -1.74441E+04  6.70037E+03 -1.85768E+04 -2.22172E+03
 -9.42569E+03 -1.71993E+04  2.99535E+03 -1.71552E+04  1.41064E+04 -1.45393E+04  1.60003E+04 -5.43011E+03
  6.79560E+03  1.19868E+04 -8.96592E+02  1.74882E+04 -1.45506E+04  5.52419E+03 -1.50367E+04 -4.17149E+03
 -1.21524E+04 -1.52367E+04  8.84891E+02 -1.88405E+04  5.57085E+03 -1.28094E+04  1.31367E+04 -7.26964E+03
  1.42540E+04 -9.07379E+01  1.08386E+04  2.50856E+03  4.67234E+03  3.75684E+02  8.17563E+03 -5.93645E+02
  1.42256E+04  2.12752E+03  1.81116E+04  7.93563E+03  1.11710E+04  2.28862E+04 -6.07737E+03  2.47355E+04
 -1.41704E+04  2.21912E+04 -2.68561E+04  9.40870E+03 -2.57903E+04  2.16473E+02 -2.61808E+04 -1.31164E+04
 -1.01698E+04 -1.98109E+04  8.79706E+03 -2.10306E+04  1.82490E+04 -1.53341E+04  1.84348E+04  5.04792E+03
  3.34076E+03  1.17470E+04 -1.29859E+04  1.43265E+04 -1.85961E+04  9.38761E+03 -1.05955E+04 -8.53582E+03
  3.02128E+03 -1.63748E+04  4.50829E+03 -5.30748E+03  9.92827E+03 -2.15256E+03  5.41662E+03  8.19680E+03
 -5.53700E+03  5.47944E+02 -6.21966E+03 -4.37234E+03 -1.97680E+02 -1.09166E+04  4.59900E+03 -9.93327E+03
  1.81797E+04 -6.78020E+03  8.60046E+03  5.33601E+03  1.11772E+04  6.65937E+03  2.67536E+03  1.29930E+04
 -5.61096E+03  1.53183E+04 -8.21544E+03  6.58314E+03 -1.30172E+04  3.62858E+03 -1.28683E+04 -1.94210E+03
 -4.14520E+03 -2.45313E+03 -2.94933E+03  2.97346E+03  1.77508E+03 -1.39522E+03 -2.98623E+03 -9.21081E+02
 -5.75234E+03  1.76094E+03 -9.13066E+03 -8.08454E+03 -3.18142E+03 -1.35774E+04  4.77122E+03 -8.35267E+03
  8.62122E+03 -6.94573E+03  3.22364E+03  6.16230E+03  2.68337E+03 -9.94132E+02 -3.86887E+03  2.05626E+03
 -3.74080E+03 -9.03957E+03 -1.00664E+01 -1.09327E+04  3.01707E+03 -6.83646E+03  8.79906E+03 -8.91585E+03
  1.31303E+04 -1.30534E+03  1.05658E+04  3.65124E+03  1.34399E+03  1.27864E+04 -5.29388E+03  7.31796E+03
 -9.10752E+03  1.49225E+03 -3.99463E+03 -1.60962E+02  1.10948E+03 -4.81950E+03  4.22203E+03  2.95669E+03
  1.54084E+03  1.09324E+03  2.91972E+02  1.09099E+04 -3.85349E+03  5.88914E+03 -6.89667E+03  3.01995E+03
 -5.38817E+03 -5.93766E+03  2.10709E+02 -5.40922E+03  2.09944E+03 -1.05388E+03  4.59148E+03  1.29466E+03
  4.65728E+03 -5.14940E+02 -3.96942E+03 -6.58543E+00 -6.99420E+03  6.77598E+02 -4.28765E+03 -1.47338E+03
  8.11566E+02 -6.06943E+03  4.08232E+03 -5.46055E+03  9.75861E+03 -6.03816E+03  5.47955E+03 -8.80355E+02
  5.13384E+03  2.77678E+03  1.56192E+02  4.72772E+03 -2.10589E+03  3.26061E+03 -2.86775E+03 -8.14771E+02
 -7.65959E+03 -6.37585E+03 -1.29774E+03  4.18127E+02  2.03171E+03 -5.45914E+03 -1.37712E+03 -2.32321E+03
  1.97028E+03 -7.49041E+02 -1.34751E+03  1.39783E+03  4.87299E+01  1.44065E+03 -1.40454E+03 -4.74521E+03
  1.86388E+03 -5.35332E+03  7.87490E+03 -3.94778E+03  2.29158E+03  2.55456E+03  5.34604E+03  5.92796E+03
  1.14284E+03  7.63143E+03 -6.97853E+03  7.68809E+03 -5.24929E+03  1.11418E+03 -9.17685E+03 -5.62620E+03
 -8.06841E+03 -7.17413E+03 -1.62445E+03 -1.80000E+03  6.85548E+02  2.44064E+02  4.65947E+03 -4.08439E+03
 -2.26870E+02 -7.36396E+02  4.77657E+02  1.44764E+03  4.07880E+03 -3.01577E+03  7.99127E+03 -7.60315E+02
  8.56409E+02  1.99849E+03  1.41766E+03  5.99860E+03 -9.43301E+01  3.85704E+03 -5.16121E+03  2.26170E+03
 -7.38379E+03 -3.41927E+03  1.74320E+03 -3.74600E+03  1.59477E+02 -3.53481E+03  1.09901E+03 -7.48999E+03
  5.58266E+03 -5.93288E+03  7.04691E+03 -4.94682E+02  1.75480E+03  3.22560E+03  3.68925E+03  5.48545E+03
 -3.85185E+03  4.37531E+03 -5.15666E+03  2.32595E+03 -3.00566E+03 -2.63695E+02  1.33664E+03  1.83006E+03
  1.09532E+03 -6.92477E+02 -2.36182E+03  5.48734E+03 -4.82093E+03  2.92271E+03 -2.42552E+02 -1.65611E+01
 -9.93847E+02 -1.27177E+03  7.08950E+02 -3.58077E+03  4.42611E+02 -2.43419E+03 -8.42980E+01 -1.09525E+03
  4.24590E+03  4.45587E+03  2.15656E+03  2.94721E+03 -4.01173E+03  5.29937E+03 -1.70851E+03  3.07254E+03
 -3.62573E+03  1.72571E+03  1.04089E+03  7.22118E+02 -6.42053E+02 -6.02558E+02  7.97557E+02 -2.92389E+03
  3.45866E+03 -1.85008E+03 -1.37587E+03  1.00758E+03  2.34466E+03 -1.14530E+03  3.37754E+03  1.32755E+03
  1.82865E+03  5.74146E+02  2.70539E+02  3.89402E+02  5.49372E+03  6.81254E+03  4.67027E+03  6.06139E+02
 -1.27896E+03  5.01487E+03 -3.24385E+02  2.08763E+03 -8.59342E+03  2.29521E+03 -8.37455E+03  1.37197E+03
 -1.00028E+03  2.90235E+02  1.23393E+03 -5.24363E+03  4.11906E+03 -4.41333E+03  4.46601E+03  6.15097E+02
  1.49927E+03  6.38789E+02  1.70455E+02  3.37454E+03 -8.25505E+02 -1.17421E+02  1.70640E+03  3.87174E+03
  5.35620E+02  6.03637E+02  3.91206E+03 -3.42160E+03 -5.28803E+03 -7.64200E+02  2.40566E+03 -4.12738E+03
  4.28648E+03 -1.95307E+03 -8.31922E+02  1.58631E+03 -1.98086E+03  4.37038E+02 -2.40478E+03 -1.03820E+03
 -3.91866E+02  3.16770E+01  9.08482E+02  2.81856E+02 -1.33033E+02  2.41532E+03  1.63842E+03  4.12883E+03
 -4.65105E+03  4.22720E+03 -1.66651E+03 -5.45451E+03  9.62488E+02 -4.73500E+03 -1.81581E+03 -1.35800E+03
 -1.97812E+03 -1.54156E+03 -1.57113E+03  5.20607E+02  1.68400E+03  3.14753E+03 -4.00512E+03  2.92847E+03
 -5.71844E+03 -2.38350E+03 -1.14266E+03 -2.06820E+03 -3.00525E+02 -4.65344E+02 -3.78964E+03 -2.69085E+03
 -2.22465E+03  1.88317E+03  3.39882E+03  4.39461E+03 -8.00305E+02  1.85930E+03  4.61105E+02  2.50302E+03
  1.19390E+03 -6.80332E+01 -1.25176E+03  1.87009E+03  1.55940E+03  4.08425E+02  1.37559E+03 -1.53068E+03
  1.88735E+03 -2.00087E+03  1.69643E+03  3.61370E+02  3.05544E+02 -1.20971E+03  5.17062E+02  4.59801E+03
  2.34149E+03 -1.50260E+03 -3.39544E+03  6.81939E+02 -6.72596E+03 -9.61812E+02 -2.10000E+03  5.35823E+03
  3.33771E+03 -8.63890E+02  2.45629E+03 -2.68761E+03  7.28987E+02  2.87668E+03  3.17005E+03  2.25488E+03
 -1.67857E+03  5.08124E+03 -4.51770E+03 -1.35763E+03 -7.38469E+02  4.31637E+02  1.04608E+03  1.11920E+03
 -2.59044E+02  7.07286E+03  5.82969E+02 -1.10759E+03 -3.22097E+03  2.04817E+03 -4.25473E+03  2.63087E+02
 -1.73795E+03 -2.96056E+03  3.71318E+02 -6.01717E+02 -6.21606E+02 -4.81177E+03  2.51015E+03  4.25214E+02
 -2.18301E+03 -4.48578E+03  2.64219E+03  1.84233E+03 -1.17895E+03  2.42446E+03  1.25301E+03  5.21596E+02
  1.32029E+03  2.73457E+03 -1.95958E+03 -6.44209E+03 -9.18636E+01  2.78205E+03  2.24720E+03 -1.21366E+03
  1.65474E+03  4.00730E+03 -2.20090E+03  4.13394E+02  6.10084E+02  8.94735E+02 -1.72834E+03 -6.37915E+03
 -8.82183E+01  2.21438E+00 -1.52348E+03 -6.63704E+02  3.44820E+03  4.20288E+03  3.92832E+01  1.76132E+03
 -2.49025E+03  3.37830E+03  6.84797E+02  2.67634E+03 -1.55664E+03 -1.00662E+03  6.43185E+03 -2.02511E+01
  1.83572E+03 -2.83035E+03 -1.71672E+03 -3.19278E+02  4.47464E+03 -1.24689E+03  1.47653E+03  1.97246E+03
 -2.75988E+03 -9.21260E+02 -7.14233E+02  3.35532E+03  2.59541E+03  2.90738E+02  3.54628E+03 -2.76654E+03
 -1.90002E+03 -3.16457E+03  1.37921E+03  2.39327E+03  1.24840E+03 -2.44818E+03 -7.86088E+02 -6.87228E+02
 -2.32711E+03  1.72360E+03  2.31229E+02  4.33514E+03 -4.82143E+03 -3.22596E+03 -8.22043E+02 -2.56785E+03
  2.55721E+03 -1.20868E+03 -2.44669E+01  2.89877E+03 -1.83925E+03 -2.87181E+03  4.78948E+02 -2.67133E+03
 -3.47076E+02  4.22552E+03  4.41706E+03  2.03624E+03 -1.57876E+03 -1.71060E+02 -6.30886E+02 -8.95726E+02
  1.83368E+03  2.53452E+03  2.47110E+03 -2.67477E+03  9.70309E+02 -2.33376E+01 -2.78071E+02  2.64405E+03
 -2.26530E+03  9.93353E+02 -3.16196E+02 -1.13764E+03 -7.84558E+00 -4.58482E+03 -6.45600E+02  2.21774E+03
  1.13980E+03 -3.77515E+02 -2.73037E+03  1.14854E+02  2.15796E+03 -2.94578E+03  7.76536E+02  1.88973E+03
