 $NMID ID='MM_0lb_SNR50_18hz_g60_31.RAW', FMTDAT='(8E13.5)'
 TRAMP=1., VOLUME=1. $END
  3.07214E+05  8.78280E+01  3.37862E+05  2.54389E+05  8.68025E+04  3.38591E+05 -1.32224E+05  2.50322E+05
 -1.92576E+05  8.65151E+04 -1.11343E+05 -2.91166E+04  1.94132E+03 -4.99123E+04  5.49694E+04  4.93520E+03
  3.46355E+04  5.30761E+04 -2.13107E+04  7.26296E+04 -6.23496E+04  6.00321E+04 -8.30555E+04  2.99037E+04
 -8.38009E+04 -1.74436E+04 -5.35411E+04 -5.21073E+04 -1.61082E+04 -7.28033E+04  2.88355E+04 -4.48248E+04
  3.92116E+04  5.81864E+03  1.20102E+04  4.76882E+04 -3.20142E+04  4.50424E+04 -6.88073E+04  2.07550E+03
 -5.33610E+04 -5.37112E+04 -4.33470E+03 -7.86807E+04  3.09443E+04 -5.82308E+04  4.81369E+04 -1.93431E+04
  4.21315E+04  1.21143E+04  3.34179E+04  2.60771E+04  1.53605E+04  3.07189E+04 -7.02445E+02  2.89480E+04
 -2.38431E+04  1.16996E+04 -1.77406E+04 -2.49755E+03  6.27983E+03 -7.71426E+03  1.65200E+04  9.57258E+03
  5.05959E+03  3.21278E+04 -2.94783E+04  3.32165E+04 -6.12094E+04  4.72691E+03 -5.50879E+04 -4.63412E+04
 -1.87559E+04 -6.48261E+04  3.79522E+04 -4.75471E+04  5.90945E+04 -2.33000E+03  2.85258E+04  3.27864E+04
 -4.47523E+03  3.46732E+04 -2.64060E+04  1.44610E+04 -3.20197E+04 -1.08770E+04 -1.50698E+04 -1.11092E+04
 -7.94971E+03 -1.16907E+04 -3.10860E+03 -1.92177E+04  9.18160E+03 -2.46029E+04  1.69932E+04 -8.79528E+03
  1.01021E+04  5.53219E+03 -8.75813E+03  1.35134E+04 -1.77865E+04 -3.86839E+03 -7.52026E+03 -3.50138E+04
  2.24892E+04 -4.37265E+04  4.85269E+04 -1.87266E+04  4.33606E+04  2.35489E+04  1.75960E+04  4.37444E+04
 -1.53023E+04  3.43929E+04 -2.48932E+04 -4.24089E+02 -8.83050E+03 -2.28166E+04  2.26256E+04 -3.37324E+04
  4.05727E+04 -1.16464E+04  3.27005E+04  2.55582E+04  1.87320E+04  4.08835E+04 -5.94930E+03  4.65864E+04
 -3.15023E+04  3.67506E+04 -4.31654E+04  6.59700E+03 -3.96985E+04 -1.46956E+04 -2.02294E+04 -3.68734E+04
  6.31139E+03 -3.86804E+04  3.11744E+04 -1.56208E+04  2.99262E+04  1.10760E+04  5.56838E+03  1.52372E+04
 -8.71293E+03  7.58794E+03 -7.90450E+03 -9.53456E+03  7.76981E+03 -1.08357E+04  1.70125E+04  9.93646E+03
  1.19945E+04  2.09450E+04 -3.45237E+03  2.04764E+04 -2.33768E+04  1.01367E+04 -2.93481E+04 -6.75958E+03
 -1.84955E+04 -1.52165E+04 -8.81649E+03 -1.44161E+04  3.55387E+03 -1.86978E+04  1.75572E+04 -1.87272E+04
  2.01142E+04 -1.13199E+04  3.28298E+04  2.86819E+03  2.27676E+04  1.96495E+04  5.43002E+03  3.32621E+04
 -1.34144E+04  2.97757E+04 -2.39202E+04  1.00243E+04 -2.23954E+04 -1.36309E+04 -4.27222E+03 -1.88209E+04
  4.12519E+03 -5.06776E+03 -1.43079E+03  2.07709E+03 -1.04224E+04  6.10723E+03 -1.31199E+04 -4.08350E+03
 -1.12214E+04 -1.93894E+04  1.90296E+03 -2.01842E+04  1.42320E+04 -1.95987E+04  1.53066E+04 -1.08956E+03
  7.35572E+03  1.20255E+04 -4.78106E+03  1.74985E+04 -1.20408E+04  9.78751E+03 -1.65040E+04 -5.91813E+03
 -1.21245E+04 -8.45222E+03 -6.25087E+03 -2.19237E+04  1.24148E+04 -1.66420E+04  1.93051E+04 -7.45598E+03
  2.03060E+04  2.44392E+03  1.50358E+04  3.37989E+03  3.38500E+03 -3.36893E+02  8.30777E+03  1.32988E+03
  1.17976E+04 -8.67670E+02  1.66180E+04  1.31118E+04  7.80533E+03  2.55099E+04 -7.65897E+03  2.92656E+04
 -1.95707E+04  2.62454E+04 -2.50200E+04  9.65658E+03 -2.58545E+04 -3.99953E+03 -2.27985E+04 -1.57308E+04
 -1.11320E+04 -2.12417E+04  9.52118E+03 -2.32864E+04  1.73552E+04 -1.58512E+04  1.67912E+04  1.55085E+02
  7.69575E+03  1.13813E+04 -5.51737E+03  1.53181E+04 -1.30987E+04 -1.25808E+03 -1.27226E+04 -1.15021E+04
  2.47834E+03 -1.64332E+04  5.61672E+03 -8.10372E+03  1.37364E+04 -3.64574E+03  9.80690E+01  8.22464E+03
 -8.34135E+03  4.92045E+03 -6.43536E+03 -6.52707E+03 -8.59813E+02 -1.32899E+04  5.94434E+03 -1.67202E+04
  1.39940E+04 -4.94783E+03  1.06002E+04  3.01073E+03  1.31046E+04  1.00574E+04  4.06069E+03  1.91149E+04
 -2.79629E+03  2.10583E+04 -8.64086E+03  1.48657E+04 -1.18533E+04  2.09430E+03 -7.70095E+03 -4.62016E+03
 -3.27710E+03 -4.86280E+03 -6.03260E+02  2.32693E+03 -2.94023E+03  1.26448E+03 -4.10299E+03  6.43165E+03
 -8.17104E+03 -2.10350E+03 -4.97481E+03 -6.69460E+03 -1.69957E+03 -1.37296E+04  2.28878E+03 -7.81799E+03
  8.53961E+03 -2.87435E+03  7.61098E+03  2.17891E+03 -2.65590E+03  3.63373E+03 -2.22062E+03  4.14036E+03
 -2.73753E+03 -5.17669E+03  2.73785E+03 -1.06696E+04  3.86620E+03 -9.76709E+03  7.56447E+03 -7.70870E+03
  1.11695E+04 -4.13528E+03  1.22964E+04  1.02209E+04 -1.88923E+03  1.00746E+04 -3.39523E+03  6.54242E+03
 -7.50130E+03  5.11790E+03 -5.10491E+03  1.07219E+03  9.74532E+02 -3.74059E+02  2.36614E+03  1.35251E+03
  7.23460E+03  6.46354E+03 -6.82345E+02  8.09689E+03 -3.59967E+03  9.72272E+03 -9.37660E+03  4.91867E+03
 -4.18610E+03 -1.57063E+03  4.85341E+02 -4.86252E+03  5.64631E+03 -2.54523E+03  8.50378E+03  2.78648E+03
  2.26850E+03  6.22123E+03 -5.58993E+03  6.51749E+03 -7.32740E+03  2.06879E+03 -8.01950E+03 -1.58768E+03
 -1.88548E+03 -7.69546E+03  5.58949E+02 -7.20318E+03  3.64279E+03 -7.08295E+03  6.20654E+03  2.56006E+03
  5.93436E+03  3.61606E+03  2.91569E+03  6.02121E+03 -8.68879E+03  9.65098E+03 -2.81321E+03  2.44876E+03
 -4.27730E+03 -7.25191E+03 -2.73377E+02 -6.04404E+03  2.21499E+03 -7.13004E+03  1.74960E+03 -2.78484E+03
  1.37759E+03 -2.23768E+03  4.14081E+02  1.26119E+03  4.40669E+03 -8.25880E+02  1.70524E+03 -1.89773E+03
  4.07722E+03 -2.93506E+01  5.13959E+03  2.44810E+03  7.76084E+03  4.70877E+03  9.28161E+03  9.11853E+03
  9.33272E+02  8.42684E+03 -6.72714E+03  8.69702E+03 -1.32072E+04  3.42187E+03 -1.11333E+04 -1.53653E+03
 -3.83794E+03 -1.02983E+04 -3.65579E+03 -5.52368E+03  1.46197E+03 -3.72000E+03  5.40499E+03 -2.45200E+03
  5.57115E+03  3.25450E+03  3.62120E+03 -1.14769E+03  6.77442E+03  9.75704E+02  4.43862E+03  7.44441E+02
  5.57191E+01  2.25076E+03  2.41113E+03  6.05087E+03 -2.01151E+03  5.20935E+03 -5.62974E+03  3.59375E+03
 -6.43702E+03 -1.24675E+03 -4.61560E+03  8.57338E+02 -1.10723E+01 -3.65596E+03  1.39451E+03 -8.08107E+03
  5.68211E+03 -3.10916E+03  1.38701E+04  2.07156E+02  1.10924E+03  2.33415E+03  7.88377E+02  3.12986E+03
 -1.72084E+03  4.68212E+03 -6.87279E+03  4.50236E+03 -2.79763E+03  1.80209E+03  5.06689E+02 -8.81379E+01
  9.34652E+02  1.17899E+03 -3.58484E+03  2.56315E+03 -4.77887E+02  6.18890E+03 -4.94583E+03  1.38938E+03
 -1.14408E+03 -6.22041E+03  6.04751E+02 -4.86933E+03  1.95611E+03 -4.45654E+03  6.35897E+03  2.03713E+02
  1.42202E+03  3.09541E+03  1.09967E+03  9.05104E+03 -8.69686E+02  1.34715E+03 -2.36314E+03 -2.54614E+03
 -5.80833E+03  9.39808E+02 -4.22926E+03 -3.33656E+02 -3.86696E+03 -1.92916E+03  5.98096E+03 -2.58797E+03
  4.31339E+03 -1.21945E+03  3.67581E+03 -1.24702E+03 -3.53132E+02  2.46329E+03 -3.55440E+02  1.03966E+03
  2.66843E+03  3.41748E+02 -2.01828E+03  1.02278E+03  8.96977E+02  5.53092E+03 -4.11281E+02  2.23776E+03
 -1.96516E+03  6.02692E+03 -7.71626E+03  4.39195E+03 -1.12670E+03  2.13379E+03 -1.47610E+03  3.86907E+02
 -3.35530E+03 -3.87327E+03  2.48603E+03 -4.81030E+03  7.70057E+02 -4.99983E+02  4.49530E+03 -5.21836E+03
  1.84670E+03 -7.18343E+02  3.27495E+03 -1.49507E+03  1.66477E+03  1.50902E+03 -7.91324E+03 -1.84980E+03
 -4.58039E+03 -2.67788E+03  1.71112E+03  2.19869E+03  4.18220E+03  1.80466E+03  2.87352E+03 -7.95754E+01
  4.02139E+03  2.26177E+02 -3.78349E+03  4.62638E+03 -2.52324E+02  3.21912E+03  1.69003E+03  3.73157E+03
 -2.00969E+03  1.96569E+03 -3.74572E+02  4.85771E+03  1.27182E+03  3.12120E+03  1.73135E+03  5.45818E+03
 -1.88908E+03  5.38059E+03 -4.15103E+03 -4.21330E+02 -1.85739E+03  9.47869E+02 -1.74706E+03  2.40446E+03
  2.53381E+03  5.26004E+02  9.74031E+02 -1.24148E+03  6.56201E+03  3.33557E+03 -1.41239E+03 -2.69548E+03
 -3.32432E+03  2.95319E+03 -1.09208E+02 -3.05194E+03 -2.67085E+03 -4.97820E+03 -3.90213E+03 -3.58256E+03
 -9.17958E+02 -6.54272E+03  2.29525E+03  1.77102E+03  4.75147E+03  1.87002E+03 -1.03338E+03 -6.28659E+01
 -1.39026E+03 -9.03811E+02 -2.20278E+03 -2.74552E+02  1.56163E+03 -5.55467E+03  2.78265E+03 -1.17980E+03
 -5.90832E+02 -1.37883E+03 -3.23655E+02 -2.41445E+03  5.95917E+03  4.66246E+03 -3.05207E+03  2.08960E+03
  2.34991E+03  3.41897E+03 -6.58014E+03  2.99015E+02  1.69826E+02 -5.64281E+02 -1.59277E+03 -3.18298E+02
 -8.98477E+02  1.24255E+03  3.10471E+03  4.73608E+03  3.53914E+03  6.36039E+02 -1.23982E+02 -1.31477E+03
  9.25551E+01  8.09638E+02 -1.93193E+03  9.76798E+02 -4.22570E+02  8.94239E+02  1.01343E+03  2.85231E+03
 -4.51955E+03  4.28373E+03 -7.38091E+03 -7.09489E+02 -7.53481E+02 -2.44649E+03 -1.49596E+03  1.80917E+02
  9.61743E+02 -3.69412E+03  9.61411E+02 -3.75713E+03  1.14020E+03  9.86596E+02 -5.03759E+01 -5.45845E+02
  6.31058E+02  9.06840E+02  3.27265E+03  1.42419E+03  1.31316E+03  2.14479E+03  2.56112E+03  3.11726E+03
 -2.69084E+03  6.34008E+03 -3.04996E+03  3.53754E+03  3.07743E+03 -4.54136E+03  6.61552E+02  3.91799E+03
  3.10254E+03 -2.79425E+03 -2.69282E+03 -1.56285E+03  1.12219E+03 -2.22125E+02  5.51098E+02 -5.79047E+02
 -2.44416E+03 -6.60775E+02 -2.01142E+03 -3.50649E+03  1.10839E+03  7.31129E+02 -1.07508E+03  6.77551E+02
 -1.68012E+03  7.29984E+03 -2.18575E+03  1.40416E+03 -2.21250E+03  1.60576E+03  8.22730E+02 -2.30005E+03
 -6.24885E+02 -3.15043E+03 -3.27616E+03 -2.47486E+03  2.90525E+03  8.70233E+02  4.80290E+03  3.76982E+03
  4.32886E+02  5.72687E+03  1.25288E+03  2.44415E+03 -2.92124E+03  5.23470E+02  9.04427E+02 -1.29304E+03
 -1.13595E+03 -2.57087E+03 -2.93665E+03  1.58416E+03  2.00546E+03  1.27765E+03  2.04120E+02 -2.58613E+03
  1.97355E+03  3.22664E+03 -4.32525E+03  3.03892E+03 -2.43762E+03 -1.87753E+03  3.91719E+02 -1.77411E+03
 -1.00064E+03  8.02516E+02  1.40633E+03 -2.76918E+03 -3.98530E+02  4.17783E+02 -9.70991E+02  3.89331E+03
  6.59090E+03  7.34074E+03 -3.17058E+03  1.73249E+03 -1.51578E+03  1.32877E+03 -1.52293E+03 -2.25559E+03
  1.08080E+02 -7.45022E+02  3.92860E+03  2.13847E+03 -3.24011E+03  1.15843E+02 -6.50448E+02 -2.41599E+03
  1.90209E+03  1.99477E+03  3.54972E+03  9.01552E+02  1.03164E+03  8.84673E+02 -2.39049E+02 -2.61569E+03
  9.34361E+02  2.28432E+03  1.52620E+03 -1.75612E+02 -3.59365E+03 -4.14738E+03 -3.09301E+03  3.00581E+02
