 $NMID ID='MM_0lb_SNR50_9hz_g50_12.RAW', FMTDAT='(8E13.5)'
 TRAMP=1., VOLUME=1. $END
  3.10837E+05  1.56387E+03  3.39581E+05  2.51555E+05  8.50044E+04  3.41495E+05 -1.37321E+05  2.50398E+05
 -1.94757E+05  8.22381E+04 -1.20548E+05 -3.34180E+04  6.34817E+01 -4.17572E+04  5.72195E+04 -5.09941E+03
  3.67867E+04  4.94468E+04 -1.80998E+04  8.20414E+04 -6.53691E+04  6.40845E+04 -8.07403E+04  3.75474E+04
 -7.98441E+04 -9.12800E+03 -5.34914E+04 -5.11019E+04 -1.57581E+04 -6.86739E+04  2.70997E+04 -4.85528E+04
  3.92986E+04  6.14038E+03  2.21014E+04  4.36745E+04 -3.25252E+04  4.29070E+04 -6.95419E+04  7.16691E+02
 -5.42942E+04 -5.75443E+04 -1.03879E+04 -7.99916E+04  3.11570E+04 -5.93485E+04  5.52189E+04 -1.60109E+04
  4.14250E+04  1.29797E+04  3.02538E+04  2.26255E+04  1.84419E+04  2.61640E+04 -1.03251E+04  2.44137E+04
 -2.26519E+04  1.16251E+04 -1.68920E+04 -8.88418E+03  1.21766E+04 -5.71882E+03  2.29509E+04  1.84009E+04
  9.71751E+03  3.68078E+04 -3.36084E+04  3.49084E+04 -6.42860E+04 -3.02586E+03 -5.57987E+04 -4.47973E+04
 -1.41624E+04 -6.74503E+04  4.01812E+04 -4.21879E+04  6.49868E+04 -3.58064E+03  3.58336E+04  3.75749E+04
 -7.00741E+03  3.16632E+04 -3.24499E+04  2.45721E+04 -3.75352E+04  1.67507E+03 -1.68466E+04 -1.25222E+04
 -8.50184E+03 -1.03776E+04 -5.02122E+03 -1.47117E+04  7.51799E+03 -2.53016E+04  1.56402E+04 -8.03875E+03
  1.80236E+04  1.16547E+04 -8.98044E+03  1.51655E+04 -2.56406E+04 -5.57574E+03 -3.32862E+03 -4.03447E+04
  2.42728E+04 -4.33838E+04  5.03119E+04 -1.81713E+04  4.88936E+04  2.02623E+04  1.82057E+04  4.47411E+04
 -1.69412E+04  3.16682E+04 -2.73036E+04  1.00782E+04 -9.03435E+03 -3.18533E+04  1.74333E+04 -3.48457E+04
  4.68293E+04 -6.88875E+03  4.58712E+04  2.80421E+04  2.29207E+04  4.95910E+04 -5.74551E+03  5.88972E+04
 -3.35220E+04  3.02450E+04 -4.55830E+04  9.08214E+03 -4.78663E+04 -1.45417E+04 -3.16223E+04 -4.19488E+04
  8.06317E+03 -4.20569E+04  3.94559E+04 -1.55902E+04  3.42434E+04  1.02975E+04  7.16550E+03  2.33372E+04
 -1.46118E+04  2.75813E+03 -1.99209E+04 -7.35691E+03  5.30332E+03 -9.48920E+03  2.34949E+04  3.91874E+03
  1.45802E+04  1.87248E+04 -6.46320E+03  2.72823E+04 -2.44930E+04  1.01255E+04 -2.82856E+04 -1.85374E+03
 -2.29946E+04 -2.25702E+04 -1.33482E+04 -2.99941E+04  1.17675E+03 -2.47529E+04  2.32420E+04 -1.92585E+04
  3.38048E+04 -1.06751E+04  3.85645E+04  2.70573E+02  2.41705E+04  2.08052E+04  8.81376E+03  4.12448E+04
 -1.05821E+04  3.59951E+04 -3.57668E+04  1.04607E+04 -2.27775E+04 -1.46060E+04 -1.02621E+04 -1.59084E+04
 -2.56931E+03 -1.60032E+03 -4.28555E+03  8.21293E+03 -2.46845E+04  7.77270E+03 -1.72563E+04 -7.49539E+03
 -1.22145E+04 -2.77396E+04  6.06905E+03 -3.44011E+04  1.54617E+04 -1.94870E+04  2.23015E+04  9.01687E+02
  1.52788E+04  2.06614E+04  3.38378E+03  2.54081E+04 -1.15654E+04  1.32550E+04 -1.99913E+04 -5.72163E+03
 -1.02448E+04 -1.62894E+04 -5.71489E+03 -2.68403E+04  1.05505E+04 -1.97537E+04  1.97847E+04 -1.28277E+04
  1.86791E+04 -7.55713E+03  2.11243E+04  7.25599E+03  9.43162E+03  6.59725E+03  1.20815E+04  1.69101E+03
  2.05101E+04 -3.34207E+03  2.70523E+04  2.11692E+04  1.68494E+04  3.95681E+04  1.41636E+02  4.78884E+04
 -2.84216E+04  4.27789E+04 -4.46858E+04  2.29683E+04 -4.53671E+04 -3.96465E+03 -3.23477E+04 -2.52167E+04
 -1.57145E+04 -3.49224E+04  1.80339E+04 -3.09492E+04  2.68192E+04 -1.57490E+04  2.65972E+04  7.95632E+03
  1.13212E+04  2.34661E+04 -1.02542E+04  2.20796E+04 -2.14925E+04  5.50503E+03 -1.92366E+04 -1.33926E+04
 -2.07868E+03 -1.84142E+04  4.08762E+03 -1.42594E+04  9.86817E+03  1.61311E+03  6.55219E+02  1.43804E+04
 -1.02843E+04  6.08244E+03 -6.23535E+03 -8.64276E+03 -4.59755E+03 -1.67009E+04  1.30506E+04 -2.49690E+04
  2.71256E+04 -7.46723E+03  2.80065E+04  2.80803E+03  1.98697E+04  1.99027E+04  1.16777E+04  2.87838E+04
 -8.27778E+03  3.11705E+04 -1.87158E+04  2.07384E+04 -1.96912E+04  3.97146E+03 -1.92143E+04 -7.05653E+03
 -2.39316E+03 -3.36560E+03  2.30756E+02  2.34513E+03 -2.27941E+03  5.14262E+03 -3.22320E+03  1.24036E+04
 -1.29787E+04 -4.47026E+02 -1.85432E+04 -1.52181E+04 -1.29463E+04 -1.47524E+04  1.28423E+04 -1.18982E+04
  1.68557E+04 -1.23773E+04  9.79806E+03  7.12470E+03 -8.10951E+02  1.37409E+04 -1.64663E+04 -1.24138E+03
 -5.73996E+03 -1.53379E+04  7.58673E+02 -1.49903E+04  9.72372E+03 -1.55213E+04  1.73373E+04 -1.12438E+04
  2.88456E+04  3.63012E+03  1.87309E+04  1.91143E+04  3.73887E+03  1.93785E+04 -1.27282E+04  1.60254E+04
 -1.46057E+04  5.05006E+03 -9.51294E+03 -6.86212E+03  3.79853E+03 -7.87573E+03  1.16025E+04  2.64484E+02
  1.15228E+04  1.14501E+04  5.53909E+02  9.76995E+03 -1.06801E+04  1.42995E+04 -1.83685E+04  5.75321E+03
 -1.23387E+04 -7.12118E+03  2.72930E+03 -1.39467E+04  9.60960E+03 -7.57575E+03  7.88230E+03  4.61957E+03
 -6.41037E+02  1.12670E+04 -1.31088E+04  1.11698E+04 -1.46925E+04  6.92005E+03 -1.47682E+04 -3.72590E+03
 -5.85811E+03 -2.02336E+04  6.33264E+03 -1.86486E+04  2.03178E+04 -1.36618E+04  1.68440E+04  1.43007E+03
  1.09466E+04  1.15135E+04 -1.45176E+03  1.70178E+04 -1.14385E+04  1.01306E+04 -1.82257E+04 -1.27638E+03
 -9.86688E+03 -5.54794E+03  7.36463E+02 -1.34488E+04  7.88766E+03 -7.39648E+03  1.01078E+04 -2.18911E+03
  1.37944E+03  9.05377E+03 -2.07684E+03 -3.58515E+03 -2.78441E+03 -5.86937E+03  3.65733E+03 -7.80794E+03
  1.11607E+04  8.59424E+02  1.78782E+04  6.22472E+03  1.86315E+04  1.25643E+04  1.19740E+04  2.01253E+04
 -6.84878E+03  2.55651E+04 -1.75936E+04  1.27078E+04 -2.82612E+04  7.17252E+03 -2.00823E+04 -7.20673E+03
 -8.86713E+03 -1.53607E+04  2.17796E+03 -1.67229E+04  2.19459E+03 -8.56229E+03  6.71369E+03 -5.37689E+03
  2.84880E+03  3.52234E+02  2.58504E+03 -8.63972E+03  6.27378E+03 -1.14221E+03  7.49116E+03 -2.30004E+03
  9.16448E+03  1.00042E+03  5.06160E+03  1.09717E+04  1.48349E+03  1.09971E+04 -9.90222E+03  1.28618E+04
 -1.65125E+04 -3.81516E+03 -1.00444E+04 -9.04641E+03 -7.84381E+03 -1.37677E+04  9.69680E+03 -1.63704E+04
  1.29886E+04 -8.28379E+03  1.84015E+04  3.99934E+03  1.50424E+04  1.35044E+04  8.97012E+02  1.67295E+04
 -9.14303E+03  1.35181E+04 -1.34896E+04  4.19636E+03 -1.03672E+04  1.87097E+03  3.16532E+03 -1.99790E+03
 -1.77994E+03  4.25385E+02 -3.31771E+03 -2.60394E+03 -1.02000E+04  2.36761E+03 -7.49327E+03  1.77232E+03
 -5.94470E+03 -7.16107E+03 -1.20446E+02 -1.45723E+04  6.16234E+03 -1.06120E+04  1.08098E+04 -9.05464E+03
  1.15072E+04  5.42633E+03  1.95895E+02  2.19588E+04 -1.72901E+02  1.92117E+04 -9.44641E+03  6.72016E+03
 -1.60823E+04  4.77393E+03 -9.57821E+03 -4.52627E+03 -1.82039E+03 -2.12887E+04  6.37876E+03 -8.37563E+03
  1.31406E+04 -4.59596E+03  3.46981E+03  2.66975E+03 -4.51176E+03  6.99068E+03  5.93322E+03 -1.88037E+03
  6.42827E+03  5.33962E+03  2.99072E+03  3.92001E+03  7.65124E+03  6.40668E+02  8.50967E+02  6.99308E+03
 -5.73508E+03  1.15200E+04 -1.03587E+04  1.25459E+04 -1.42118E+04  3.88592E+03 -1.91536E+04 -1.24137E+04
 -1.52635E+04 -9.19565E+03  9.65428E+03 -1.73204E+04  1.24740E+04 -1.00796E+04  1.42331E+04 -5.56406E+03
  1.40193E+04  3.04835E+02  2.09602E+03  8.08210E+03 -4.69095E+03  1.26271E+04 -6.16392E+03 -1.74584E+03
 -5.14320E+03 -9.97650E+03  6.69978E+03 -1.00174E+04  9.15788E+03 -7.25000E+03  1.13205E+04 -1.35856E+03
  3.59721E+03  2.64019E+03  2.47267E+03 -8.94877E+02 -1.41894E+03 -1.96786E+03  4.18934E+03  1.69723E+03
  3.60153E+03 -2.13907E+03  6.71403E+03 -8.32859E+03 -3.54168E+03  1.02121E+04 -4.94774E+03  1.60421E+04
 -1.61291E+04  4.22390E+03 -9.25446E+03 -4.74105E+03 -5.88692E+03 -4.47145E+03 -4.87370E+03 -5.04391E+03
  6.10789E+03 -7.54417E+03  6.53534E+03 -7.04832E+03  1.62258E+03 -2.63347E+03 -5.17670E+03  6.95307E+03
 -7.28235E+03  3.50130E+03 -7.24516E+03 -1.95035E+02  1.22944E+03 -6.67128E+03  1.55716E+03 -1.32350E+04
  1.60056E+03  1.09636E+03  1.02227E+04  3.08455E+03  2.41994E+03  2.80478E+03 -1.44004E+03  9.03648E+03
 -1.81109E+03  2.25122E+03  2.01137E+03 -4.27367E+03  1.93919E+03 -6.39960E+03  7.34089E+03 -1.06401E+04
  4.79777E+03  8.15862E+02  1.73432E+04  3.39868E+03  1.40594E+03  1.42241E+04 -5.73002E+03  8.60082E+03
 -1.19613E+04  1.52894E+03 -6.00398E+03 -6.87692E+03  1.43251E+03 -1.04487E+04  6.88857E+01 -7.58134E+03
  6.08944E+03 -1.02034E+04  6.70048E+03 -1.58304E+03  3.57523E+03  1.15236E+04 -1.00999E+03  5.92592E+03
 -1.07352E+03  3.46862E+03 -5.22268E+03 -1.64731E+03  1.57627E+03  7.08965E+02 -4.51001E+03 -9.22789E+02
 -3.46987E+03  5.65080E+03 -7.73706E+03  1.88446E+03 -8.91977E+03 -8.55851E+02 -1.05174E+04 -7.35114E+03
 -9.03211E+03 -1.30436E+04  7.93202E+03 -1.72728E+04  7.09663E+03 -1.99728E+04  1.89106E+04 -1.18450E+04
  7.00716E+03  6.20923E+03  2.33812E+03  1.34114E+04 -2.76273E+03  1.19384E+04 -4.81017E+03  3.31111E+03
 -3.14779E+03  9.42502E+01 -3.92826E+03  7.41757E+02 -4.66987E+03  1.72915E+03  4.09020E+03 -2.64599E+03
 -1.63973E+03  2.74906E+03 -5.71975E+03  1.96142E+03 -1.89930E+03  2.31753E+03  1.26551E+03 -3.99977E+03
  1.05554E+02  2.53675E+03  7.85761E+03 -2.45728E+03  4.85500E+03  2.05342E+03  8.77675E+03  1.28071E+04
 -8.98042E+01  9.41512E+03 -1.38824E+04  1.11821E+04 -1.45192E+04 -3.42832E+03 -1.01621E+04 -5.88709E+03
 -4.38084E+03 -1.45072E+04 -1.76399E+03 -9.89269E+03  8.36167E+03 -9.58177E+03  2.08105E+03  1.10322E+03
  7.62893E+03  4.17933E+03 -4.11226E+03  8.61012E+02 -1.00632E+02  4.88138E+03 -2.42442E+03 -1.71535E+03
  9.05294E+03 -9.06531E+03  8.76571E+03  4.69149E+03 -1.74430E+02  5.57432E+03  2.38213E+03  2.43349E+03
 -3.56166E+03  3.16098E+03 -1.71876E+04 -4.33318E+03 -3.50849E+03 -5.29590E+03 -6.10020E+03 -1.07092E+04
  2.78592E+03 -5.05981E+03  1.01039E+04  3.80880E+03  8.41847E+03  2.42183E+03  4.28021E+03  1.30895E+04
 -6.72710E+03  3.25010E+03 -1.71367E+03  9.96063E+03 -7.17909E+03  7.27374E+03 -2.65450E+03  1.50510E+03
 -2.94006E+03 -1.44913E+02 -2.23656E+03  2.01542E+03 -6.49372E+03  2.25066E+03 -6.85110E+01  4.24036E+03
 -1.02674E+04  2.69638E+02 -7.22050E+03 -5.96761E+03  4.67290E+02 -7.42964E+03  1.21825E+04  2.94371E+02
  8.36852E+03  6.01277E+03  7.57733E+03  2.80506E+02 -1.50784E+03  6.48283E+03 -8.65570E+03  5.65388E+03
