 $NMID ID='MM_0lb_SNR50_19hz_g50_74.RAW', FMTDAT='(8E13.5)'
 TRAMP=1., VOLUME=1. $END
  3.08427E+05  3.68742E+03  3.36328E+05  2.48717E+05  8.66876E+04  3.38701E+05 -1.30445E+05  2.50720E+05
 -1.89810E+05  7.73694E+04 -1.05977E+05 -3.15472E+04 -7.74766E+02 -5.30491E+04  5.37160E+04 -5.69004E+02
  3.23097E+04  4.84041E+04 -1.58638E+04  7.18362E+04 -6.16614E+04  6.48394E+04 -8.31444E+04  3.06032E+04
 -8.10635E+04 -9.86684E+03 -5.39851E+04 -4.97229E+04 -1.58973E+04 -6.76392E+04  2.55553E+04 -4.86029E+04
  3.54719E+04  1.69112E+02  1.75066E+04  4.89179E+04 -3.41925E+04  4.88104E+04 -6.77318E+04 -1.61229E+03
 -5.41202E+04 -5.85752E+04 -3.92855E+03 -7.86959E+04  3.69877E+04 -5.75277E+04  4.75574E+04 -1.49282E+04
  4.19649E+04  9.33279E+03  3.38838E+04  2.61790E+04  2.19255E+04  2.98971E+04 -5.80918E+03  3.08531E+04
 -2.23910E+04  1.33204E+04 -1.93817E+04 -1.51669E+03  4.49867E+03 -1.25130E+04  2.38393E+04  1.20518E+04
  5.20696E+03  3.46026E+04 -3.29488E+04  3.59185E+04 -6.03959E+04  2.53750E+03 -5.56513E+04 -4.62326E+04
 -1.19238E+04 -5.95128E+04  3.12828E+04 -4.24104E+04  5.65588E+04  4.26331E+01  2.90648E+04  2.89798E+04
 -6.78293E+03  3.23264E+04 -2.87421E+04  1.12502E+04 -2.91797E+04 -5.08262E+03 -1.49566E+04 -1.10676E+04
 -4.85762E+03 -5.31775E+03  3.31310E+03 -1.71478E+04  9.10532E+03 -2.23612E+04  1.56284E+04 -1.53800E+04
  1.02128E+04  2.37727E+03 -3.51501E+03  1.06759E+04 -1.86489E+04 -2.96201E+03 -6.83524E+03 -3.22483E+04
  2.08721E+04 -4.15876E+04  4.56879E+04 -1.63735E+04  4.08606E+04  2.21891E+04  1.66189E+04  4.49013E+04
 -1.24285E+04  2.94805E+04 -2.53644E+04  1.28402E+03 -1.24910E+04 -2.47430E+04  2.20548E+04 -3.06369E+04
  4.13952E+04 -6.22352E+03  2.99740E+04  2.45803E+04  1.62895E+04  4.61099E+04 -1.00401E+04  4.70784E+04
 -3.13207E+04  2.89039E+04 -3.77196E+04  1.31273E+04 -4.13753E+04 -1.90394E+04 -1.83985E+04 -3.59954E+04
  5.13681E+03 -3.34066E+04  2.76262E+04 -1.25774E+04  2.79965E+04  1.03191E+04  1.69906E+02  1.64600E+04
 -1.46963E+04  5.67490E+03 -1.20583E+04 -3.97645E+03 -7.52265E+02 -1.29857E+04  1.55702E+04  5.89061E+03
  1.15273E+04  1.91875E+04 -4.29389E+03  2.37283E+04 -2.62457E+04  5.89271E+03 -2.22942E+04 -4.61371E+03
 -1.78807E+04 -1.56510E+04 -4.85501E+03 -1.48634E+04  6.27380E+03 -1.27020E+04  1.18541E+04 -1.30070E+04
  1.93067E+04 -9.32067E+03  2.86569E+04  3.05171E+03  2.11478E+04  1.72265E+04  3.41400E+03  3.46059E+04
 -1.89954E+04  2.71876E+04 -2.79152E+04  1.02627E+04 -2.04417E+04 -9.65372E+03 -3.56659E+03 -1.46058E+04
  4.05596E+03 -7.76454E+03 -2.38918E+01  2.07003E+03 -1.08534E+04  9.14695E+03 -1.39978E+04 -2.65661E+03
 -7.69220E+03 -1.35531E+04  4.32297E+03 -2.22975E+04  1.04187E+04 -1.37969E+04  1.48323E+04 -5.70941E+00
  5.60895E+03  6.02857E+03 -1.94846E+03  1.85978E+04 -7.93030E+03  1.30621E+04 -1.37745E+04 -1.99140E+03
 -1.08683E+04 -1.35257E+04 -2.90962E+03 -2.07830E+04  8.66919E+03 -1.28344E+04  2.04837E+04 -7.05829E+03
  1.17612E+04  1.48123E+03  1.72033E+04  4.04478E+03  4.65782E+03 -1.92811E+03  8.53986E+03 -7.12856E+03
  1.11422E+04  1.36124E+03  1.62201E+04  1.34776E+04  1.22527E+04  2.60065E+04 -4.58357E+03  2.64193E+04
 -1.54446E+04  1.74881E+04 -2.38270E+04  5.17712E+03 -2.57963E+04 -7.92112E+02 -2.37253E+04 -1.35230E+04
 -1.06526E+04 -1.62041E+04  7.68695E+03 -1.66470E+04  1.63790E+04 -1.11508E+04  1.54754E+04  3.58253E+03
  1.01387E+04  1.10603E+04 -5.51722E+03  1.04753E+04 -1.48673E+04  4.61394E+02 -1.34918E+04 -8.96837E+03
  2.23462E+03 -1.25692E+04  4.88712E+03 -1.28293E+04  6.70604E+03 -4.38933E+03  1.82742E+02  8.33134E+03
 -5.52353E+03  5.57312E+01 -2.70482E+03 -2.74234E+03  4.85306E+03 -9.47438E+03  8.03477E+03 -8.37460E+03
  1.38542E+04 -5.20806E+03  1.29902E+04  1.95384E+03  1.04437E+04  1.10883E+04  7.88651E+03  1.25038E+04
 -6.65401E+03  1.95473E+04 -9.40038E+03  9.40625E+03 -1.17743E+04  1.84649E+03 -6.11801E+03 -5.02405E+03
 -4.09042E+03 -4.39838E+02  1.51489E+03  2.51219E+03 -1.64811E+03  1.35593E+03 -3.79181E+03  5.51119E+03
 -9.71918E+03 -3.32775E+03 -8.22459E+03 -8.29768E+03  7.71342E+02 -8.44092E+03  5.69466E+03 -9.82258E+03
  5.46435E+03 -3.79251E+03  4.60268E+03 -5.69190E+02 -1.60325E+02  7.27346E+03  3.04136E+02  1.56809E+03
 -1.76511E+03 -4.79554E+03 -5.73464E+03 -6.37531E+03  5.24381E+03 -7.61115E+03  6.77949E+03 -9.77787E+03
  1.40713E+04  4.21514E+03  7.79294E+03  5.02909E+03  1.59397E+02  8.08712E+03 -7.84168E+02  5.12547E+03
 -3.13140E+03  2.67801E+03 -2.60675E+02 -3.46083E+03  8.01575E+03 -4.22555E+03  3.14483E+03 -4.23748E+03
  4.71240E+03  4.13684E+03  2.53212E+03  3.15110E+03 -4.17429E+03  5.50867E+03 -8.21507E+03  2.71287E+03
 -1.95463E+03 -9.08860E+03 -2.07690E+03 -6.40650E+03  5.67225E+03 -5.73927E+03  4.22067E+03 -7.08892E-01
 -2.48537E+02  3.93505E+03 -7.66520E+03  3.13655E+03 -2.42684E+03  2.58910E+03 -1.02505E+03  8.88010E+02
 -4.58573E+03 -6.44883E+03  1.95054E+02 -7.81432E+03  7.20149E+03 -5.81559E+03  6.21008E+03 -4.01347E+03
  4.54830E+03  7.83163E+03  5.44506E+02  6.06560E+03 -4.85515E+03  1.59044E+03 -5.35724E+03 -3.62619E+03
 -7.22157E+03 -1.88306E+03  8.62340E+02 -7.63523E+03  5.28256E+03 -3.97903E+03  3.75694E+03 -3.61045E+02
  5.87869E+03 -1.87886E+03  6.77113E+02  4.67239E+03 -4.80895E+02 -5.86528E+03 -1.90200E+03 -7.20020E+02
  2.55962E+03 -1.91535E+03  3.20385E+03 -1.73674E+03  2.17746E+03 -2.00013E+02  5.86800E+03  1.02344E+04
 -3.12358E+03  8.11822E+03 -7.60595E+03  7.47719E+03 -1.36763E+04  1.48778E+03 -5.33793E+03 -1.55560E+03
 -4.58560E+03 -6.36666E+03  2.47091E+03 -6.57067E+03  2.87020E+03 -1.29964E+03 -3.78029E+03  1.07283E+03
  5.48999E+02 -1.46150E+03  2.73622E+03 -3.72707E+03  3.41369E+03 -2.60519E+03  1.78307E+03 -5.11364E+02
  5.50702E+03  2.63971E+03 -3.63672E+03  1.79541E+03 -2.71953E+03  9.33641E+02 -4.86308E+03  1.81671E+03
 -7.40302E+02 -1.68542E+03 -5.49043E+03 -2.41617E+03 -9.02695E+02 -4.45197E+03  7.25426E+03 -3.49916E+03
  6.44895E+03 -1.38013E+03  7.20089E+03 -9.48807E+02  7.51880E+03  3.46571E+03 -2.63652E+03  1.00960E+04
 -6.06617E+03  6.52326E+03 -1.98660E+03  4.77482E+02 -3.56034E+03 -2.85478E+03  4.42278E+01  2.89901E+03
 -5.35964E+02 -1.38768E+03 -3.75817E+03  6.69211E+03 -2.37677E+03  6.81330E+02 -1.28241E+03  2.25528E+03
 -1.16461E+03 -5.23450E+03  4.93490E+03 -6.77318E+02  2.40673E+03 -5.38324E+03  5.29458E+03  4.14046E+03
  2.96287E+03  2.83316E+03  2.00234E+02  1.19230E+03  7.78464E+01 -1.02842E+03 -5.43810E+03  3.93813E+03
 -3.51021E+03  1.32387E+03 -2.21810E+03 -3.63349E+03  3.04712E+03 -3.58376E+03  1.02182E+02  4.92964E+02
  3.95807E+02 -8.14574E+02  9.81641E+02 -2.52545E+02  2.44573E+03  3.22842E+03  3.57254E+03  7.42935E+02
 -2.70103E+03  4.19029E+03 -1.48623E+03  6.27788E+02  4.46200E+03  1.40749E+02 -5.33593E+02  5.26616E+03
 -5.10579E+03  2.14335E+03 -7.50808E+03  4.31409E+03 -4.80274E+03  2.95717E+03 -7.95948E+03 -1.53565E+02
 -1.25350E+03 -2.27533E+03 -1.32714E+03 -1.59350E+03  4.25546E+03  8.04858E+02  1.33175E+03  2.05070E+03
  3.82161E+03  1.76154E+02  1.68642E+03  1.49884E+03  7.27789E+02  5.30809E+03  1.52429E+02 -2.13598E+02
  2.81524E+01 -7.55350E+02 -1.86606E+03 -3.12096E+03  2.37048E+03 -8.27520E+02  7.39445E+02  2.35262E+03
  2.77337E+03 -9.61846E+02  1.43635E+03  8.69460E+02 -2.35168E+03  4.86025E+03 -8.39826E+02 -6.64486E+02
 -4.62485E+02 -1.23820E+03  5.39946E+03 -1.43103E+03 -2.05770E+03  2.48518E+03 -5.16932E+02  3.02807E+03
 -5.11484E+02  2.83911E+03 -4.85775E+03  3.59646E+03 -1.67508E+03  7.83883E+02 -3.00617E+03 -5.55098E+03
  5.54121E+02 -2.01825E+03  7.59713E+02 -1.94305E+03  1.23886E+03  3.41653E+02  4.58540E+03  2.21207E+03
  1.52284E+03  1.18567E+03 -1.83891E+03 -2.73202E+03 -3.00611E+03  3.72148E+02  2.40836E+03 -1.35993E+03
 -2.09925E+02 -9.33867E+02 -1.88221E+02 -1.23753E+02 -8.82729E+02 -3.31567E+03  1.99421E+03  6.66419E+02
  1.87076E+02 -5.49744E+03 -3.15936E+03  1.52029E+02  1.72880E+03 -9.62676E+02  1.98514E+03 -1.58286E+03
  3.00598E+03  1.40283E+03  1.27226E+03 -7.18352E+02  2.53602E+03  1.87098E+02 -2.60724E+03  4.20474E+03
 -3.69974E+03 -9.09551E+02 -4.82223E+02  1.91843E+02 -1.81224E+03  8.49591E+02 -1.19718E+03 -1.47357E+03
  1.38830E+03  8.00778E+01  6.54059E+02  2.16830E+03 -3.38878E+03  5.33668E+02  5.76459E+02  4.70750E+02
  2.53489E+03  2.59792E+03  3.93983E+02  4.38088E+02  1.29502E+03  3.81714E+02  3.90172E+03 -8.80885E+02
 -1.98273E+03  6.30243E+03  1.47716E+03 -5.17209E+02  3.48254E+02  2.31541E+03 -3.57818E+03  2.35797E+03
  3.69869E+03 -4.56856E+03 -4.47291E+02 -1.12819E+03  3.02606E+03  2.82773E+02  6.35743E+02 -1.18233E+03
 -2.35382E+03  2.61917E+02  9.48986E+02 -3.10759E+03 -3.76659E+03  4.49397E+03  1.34992E+03 -4.35290E+02
 -2.38782E+03  1.94792E+03 -3.08637E+03 -1.93179E+03 -4.67908E+01  1.68637E+02 -3.84535E+03  1.23513E+03
 -2.06073E+02 -3.86881E+03  7.90705E+02 -6.58257E+03 -6.84436E+02  3.32119E+03  9.45301E+02  1.57235E+03
  8.00530E+02  9.02710E+01  1.41562E+02 -2.05608E+03 -2.53349E+02  3.89034E+03  1.70793E+03  3.72873E+03
  1.91400E+03 -1.78707E+03 -1.89805E+03  5.19240E+03 -4.81796E+03 -2.33855E+03 -5.29428E+03 -1.01741E+03
 -4.50945E+03  1.77218E+03  2.54073E+03 -1.24932E+03 -1.02080E+03 -2.37085E+03  2.22086E+03  3.89345E+03
 -2.56675E+02 -7.54840E+02 -1.91298E+03  1.81839E+03 -6.03744E+02 -3.63839E+02 -3.02748E+02 -2.40386E+02
  3.74112E+03 -7.02766E+02 -1.05289E+03  5.18082E+03 -3.25895E+03  1.50608E+03 -4.67941E+03 -3.32835E+02
  1.65008E+02  1.41838E+03  8.80899E+02  2.34192E+03  2.67765E+03  9.62854E+02  4.93700E+02 -1.55041E+03
  1.35246E+02 -1.55992E+02  1.71421E+03 -2.91494E+02  8.07776E+02  5.49565E+02  6.98893E+03  2.21612E+03
  1.27105E+03  3.43122E+03  3.75558E+03  6.22326E+01 -3.04576E+03 -8.50587E+02  1.36089E+03 -2.56490E+02
  2.82029E+02 -3.55045E+03  5.15480E+01 -2.51144E+03  8.49234E+02  1.69936E+03  1.66784E+03  9.64960E+02
  1.25720E+03  2.66704E+02  1.09662E+03 -3.54282E+03  2.81707E+02  3.04931E+03 -7.76102E+02 -1.60405E+03
  3.40006E+03 -2.10875E+02  2.85249E+03  3.42801E+03  2.15198E+03  2.51497E+03 -1.19099E+03 -1.19789E+03
