 $NMID ID='MM_0lb_SNR50_7hz_g60_59.RAW', FMTDAT='(8E13.5)'
 TRAMP=1., VOLUME=1. $END
  3.10308E+05  2.68223E+03  3.41618E+05  2.48448E+05  8.19302E+04  3.39031E+05 -1.32927E+05  2.50777E+05
 -1.89098E+05  8.02984E+04 -1.13037E+05 -3.37615E+04 -5.24640E+02 -5.17123E+04  6.32265E+04 -7.49603E+03
  3.91916E+04  4.65329E+04 -1.87261E+04  7.62205E+04 -6.06836E+04  6.67280E+04 -7.98594E+04  4.04606E+04
 -8.43471E+04 -1.03024E+04 -5.85723E+04 -4.79154E+04 -2.38048E+04 -6.77395E+04  3.29174E+04 -4.76596E+04
  4.23318E+04  6.75719E+03  1.93509E+04  4.43584E+04 -3.01738E+04  5.77124E+04 -6.89008E+04  2.34745E+03
 -6.02646E+04 -6.00729E+04 -3.55755E+03 -7.87443E+04  3.55957E+04 -5.61695E+04  5.83453E+04 -1.75762E+04
  5.00215E+04  1.52569E+04  4.11083E+04  2.81881E+04  1.45989E+04  2.82699E+04  1.69455E+03  2.87502E+04
 -2.34476E+04  1.34074E+04 -1.68447E+04 -8.93183E+03  6.44783E+03  1.44382E+03  1.86390E+04  2.53257E+04
  1.09529E+04  4.13187E+04 -4.19774E+04  4.52094E+04 -6.51396E+04  5.41802E+03 -6.09603E+04 -4.53297E+04
 -1.87493E+04 -6.73779E+04  3.71909E+04 -5.16907E+04  6.37678E+04  1.66860E+02  3.48487E+04  4.04058E+04
  2.01237E+02  5.07175E+04 -2.88519E+04  1.80949E+04 -4.07962E+04 -9.49330E+02 -2.32669E+04 -1.77899E+04
 -1.36453E+04 -1.64406E+04 -1.11494E+03 -1.69366E+04  8.08774E+03 -2.82420E+04  1.30119E+04 -1.98498E+04
  9.59524E+03  5.59165E+03 -1.08308E+04  5.04717E+03 -2.17611E+04 -4.78710E+03 -1.18934E+04 -4.03865E+04
  2.99632E+04 -5.26315E+04  5.42301E+04 -1.73483E+04  5.94319E+04  2.59881E+04  1.32720E+04  4.24141E+04
 -1.90569E+04  3.48414E+04 -3.01396E+04  1.15169E+03 -1.54020E+04 -3.14962E+04  1.75100E+04 -3.54039E+04
  4.28571E+04 -1.03875E+04  4.61126E+04  3.07108E+04  2.25890E+04  5.88391E+04 -2.06330E+04  5.37510E+04
 -3.39506E+04  4.47828E+04 -4.36708E+04  1.11385E+04 -4.80348E+04 -1.75738E+04 -3.08076E+04 -4.00080E+04
  1.43050E+04 -4.81353E+04  3.67323E+04 -1.54367E+04  3.89327E+04  8.26366E+03  2.63293E+03  2.16448E+04
 -2.05610E+04  1.92618E+04 -1.19376E+04 -2.78860E+03  1.05740E+03 -1.43083E+04  2.10000E+04  2.19493E+03
  1.50562E+04  2.36256E+04 -7.05672E+03  3.27411E+04 -1.88067E+04  2.26881E+04 -2.52130E+04 -7.42514E+03
 -2.72843E+04 -1.25386E+04 -1.71995E+04 -2.94099E+04  6.73292E+03 -2.43849E+04  2.55950E+04 -3.21742E+04
  3.92793E+04 -1.35295E+04  3.41998E+04  1.07636E+03  2.37313E+04  2.52741E+04  3.41706E+03  4.16880E+04
 -2.51662E+04  3.46572E+04 -3.54513E+04  1.23909E+04 -2.31321E+04 -1.28061E+04 -1.04176E+04 -1.28156E+04
  1.84184E+03 -1.45699E+03 -1.65972E+04  1.02845E+04 -2.16258E+04  1.05711E+04 -2.94879E+04 -1.78554E+04
 -1.60975E+04 -2.71201E+04  6.97457E+03 -2.63779E+04  2.20685E+04 -2.46847E+04  2.95240E+04  2.57601E+03
  1.42948E+04  2.53404E+04 -4.48765E+03  2.59449E+04 -1.29913E+04  1.73422E+04 -2.75313E+04 -3.11072E+03
 -1.66082E+04 -3.18643E+04 -5.05505E+03 -2.90794E+04  1.05266E+04 -3.16158E+04  1.89042E+04 -1.51809E+04
  2.07699E+04 -2.64335E+02  1.47668E+04  5.61257E+03  9.40885E+03  8.47976E+03  1.17451E+04 -1.85744E+03
  2.71899E+04  5.19565E+03  2.20311E+04  1.68403E+04  1.62243E+04  3.99194E+04  4.38567E+03  5.74825E+04
 -3.22300E+04  4.69066E+04 -3.97308E+04  2.41638E+04 -5.73320E+04 -1.21368E+03 -4.50338E+04 -2.58163E+04
 -1.87154E+04 -4.35728E+04  2.02977E+04 -3.70944E+04  3.44440E+04 -1.53682E+04  2.49674E+04  9.06537E+03
  8.21115E+03  2.27997E+04 -1.58236E+04  1.33732E+04 -1.71782E+04  4.05901E+03 -1.92504E+04 -9.36693E+03
 -8.59045E+03 -2.02439E+04  4.16403E+03 -9.60535E+03  1.08397E+04 -4.05765E+03 -1.91524E+03  8.01068E+03
 -8.79957E+03  8.88648E+03 -1.48389E+04 -1.11074E+04  4.80809E+03 -2.77753E+04  1.67704E+04 -2.43508E+04
  2.42551E+04 -1.31655E+04  3.38843E+04  2.57679E+03  2.15972E+04  2.25996E+04  1.24212E+04  3.88778E+04
 -1.22032E+03  3.68507E+04 -1.99815E+04  2.90147E+04 -3.11339E+04  1.31857E+03 -3.13207E+04 -1.11456E+04
 -1.95929E+04 -4.87963E+03  6.49543E+03  2.06760E+03 -5.66893E+03 -6.63925E+02 -1.08548E+04  9.84336E+03
 -2.54744E+04  6.14195E+02 -2.30331E+04 -1.39364E+04  1.02051E+02 -2.10504E+04  2.96238E+03 -1.77293E+04
  1.11284E+04 -8.82991E+03  1.34527E+04  3.41324E+03  4.80355E+03 -9.51509E+02 -7.97982E+03 -6.23225E+02
 -1.29296E+04 -9.55990E+03  2.39931E+03 -1.98596E+04  9.22988E+03 -2.34082E+04  2.74972E+04 -3.65846E+03
  3.06596E+04 -1.04735E+03  2.71973E+04  1.56460E+04  7.67499E+03  2.62613E+04 -1.69250E+04  1.90963E+04
 -1.53349E+04  1.49226E+03 -1.37505E+04 -9.67690E+03  7.62654E+03  1.75772E+03  1.47551E+04 -3.40096E+03
  4.86348E+03  1.81471E+04  4.52760E+03  1.12126E+04 -8.19768E+03  1.49330E+04 -1.99262E+04  2.01415E+03
 -1.09780E+04 -1.43141E+04 -8.68786E+03 -1.19078E+04  8.11318E+03 -1.08053E+04  1.09034E+04  8.18399E+03
  5.45149E+03  1.02570E+04 -1.52088E+04  1.51682E+04 -1.96543E+04  8.90740E+03 -1.61646E+04 -4.40069E+03
 -3.71955E+03 -1.84142E+04  2.19004E+04 -3.00053E+04  2.00493E+04 -1.12170E+04  2.13047E+04  2.64176E+03
  1.04228E+04  1.04858E+04 -6.65520E+03  1.72012E+04 -1.93437E+04  1.18918E+04 -2.25322E+04 -6.46154E+02
 -3.54865E+03 -1.34026E+04  3.99938E+02 -1.45240E+04  5.83992E+03 -1.30065E+04  1.89387E+04 -3.01935E+03
  7.70067E+03  8.33592E+03  3.12296E+03  1.77348E+03 -5.19962E+03 -3.44005E+03  1.55263E+04 -3.69597E+03
  1.02366E+04 -1.15120E+04  1.98869E+04  6.03535E+03  1.62519E+04  1.30633E+04  1.27037E+04  3.26145E+04
 -1.15262E+04  2.99240E+04 -2.67083E+04  2.31833E+04 -2.73984E+04  4.07837E+03 -2.57150E+04 -1.13342E+04
 -1.32288E+04 -1.84233E+04  4.88625E+03 -2.18988E+04  3.51662E+03 -1.23472E+04  3.31425E+02  4.87529E+03
  4.25194E+03 -3.44580E+03  8.88940E+03  2.56877E+03  8.02479E+03 -2.27390E+03  1.81187E+04 -1.61372E+03
  1.47830E+04  6.37324E+03  8.27845E+03  9.86165E+03 -2.94253E+03  1.68906E+04 -1.64515E+04  1.78788E+04
 -1.58818E+04  1.52210E+03 -1.88200E+04 -1.11257E+04 -5.82735E+03 -2.45248E+04  1.18640E+04 -1.39934E+04
  2.22297E+04 -9.74122E+03  2.86272E+04  1.10473E+04  1.54949E+04  1.85182E+04  8.88945E+03  2.13441E+04
 -1.41458E+04  1.78260E+04 -1.58457E+04  2.69811E+02 -1.04366E+04 -5.41024E+02 -5.24913E+03  3.29325E+03
 -1.15619E+03  3.66688E+03 -5.68905E+03  2.57409E+03 -1.32604E+04  8.57353E+03 -8.78804E+03 -5.45644E+03
 -1.73431E+04 -1.07785E+04 -2.47339E+03 -1.54238E+04  1.85259E+04 -2.34465E+04  2.06360E+04 -1.34929E+04
  1.99985E+04  8.46748E+03  6.90508E+02  2.21110E+04  9.38784E+03  2.50864E+04 -1.80265E+04  5.98195E+03
 -1.61189E+04  3.67428E+03 -1.39703E+04 -1.30620E+04  2.65743E+03 -1.58727E+04  1.88499E+04 -1.18000E+04
  2.10420E+04 -1.30222E+03  7.56049E+03  8.15063E+03  1.22941E+02  2.38722E+03  3.24183E+03  5.35212E+03
  6.96707E+03  5.93845E+03  1.36765E+04  5.57909E+03  4.63697E+03  1.09592E+04  1.07708E+03  1.07584E+04
 -6.18252E+03  1.88615E+04 -1.97692E+04  1.86823E+04 -2.14010E+04  9.47745E+02 -1.79280E+04 -1.13009E+04
 -6.15975E+03 -1.57933E+04  1.44312E+03 -2.42001E+04  1.33674E+04 -8.72547E+03  1.68758E+04  1.68835E+02
  1.56863E+04  3.38239E+03  9.09329E+02  1.70886E+04 -8.30746E+03  1.23425E+04 -1.50798E+04 -1.93429E+03
 -5.33080E+03 -6.04886E+03  3.53688E+02 -8.61413E+03  4.96247E+03 -9.66727E+03  1.71991E+04  7.84189E+03
  4.10474E+03  1.07086E+04  4.09023E+02  2.64260E+03  1.29835E+03  4.76390E+03 -2.07047E+03 -5.69403E+03
  1.24110E+04 -2.02724E+03  1.45172E+04  4.72151E+03  3.49765E+03  7.40393E+03 -6.69216E+03  1.72098E+04
 -6.54908E+03  1.24377E+04 -1.74341E+04  5.38782E+03 -3.50246E+03 -4.72052E+03 -5.99465E+03 -8.33185E+03
  4.01011E+02 -1.07882E+04  3.01823E+03  1.47810E+03 -7.11596E+02  3.99741E+02 -1.29800E+03  8.44200E+03
 -9.30539E+03  8.84181E+03 -9.17371E+03 -4.93752E+03  1.70377E+03 -1.64290E+04  3.63737E+03 -1.41744E+04
  6.20189E+03 -2.88975E+03  9.14157E+03  5.11035E+03  7.70970E+03  5.72647E+02  7.89681E+02  8.76491E+02
 -1.31863E+04  8.61495E+02  3.49647E+03 -7.60237E+03 -1.30796E+03 -6.00051E+03  1.40923E+04 -1.00303E+04
  1.34784E+04  1.49094E+01  1.31223E+04  4.56186E+03  1.93462E+03  1.98563E+04 -5.95827E+03  9.59229E+03
 -1.39270E+04  1.11311E+04 -1.73216E+04  1.61826E+03 -7.19100E+03 -8.87697E+03  4.60597E+03 -1.36264E+04
  9.79404E+03  5.10017E+03  9.23629E+03  5.08088E+03 -2.80921E+02  1.07635E+04 -7.70131E+03  6.50334E+03
 -1.16734E+04  1.00710E+04  8.02054E+02  2.97193E+02 -1.06252E+04 -1.45374E+03  5.31020E+02  7.74879E+02
 -8.61570E+03  2.20627E+03  1.76989E+02 -7.62677E+02 -1.73832E+04 -4.08702E+03 -1.36506E+04 -6.65867E+03
 -7.53076E+03 -2.23616E+04  4.10534E+03 -2.22987E+04  1.77929E+04 -1.35350E+04  2.39573E+04 -9.10135E+03
  2.41808E+04  5.71084E+02  1.55898E+04  1.85111E+04  4.72015E+03  1.34601E+04 -1.22854E+04  1.41127E+04
 -6.79588E+03  1.43225E+04 -5.58028E+03 -5.37723E+03  8.35814E+03 -1.37733E+03  7.16249E+02 -8.28684E+03
 -2.04069E+03  2.58912E+03 -4.38690E+03  3.05640E+03  6.33995E+03 -2.36211E+02  4.02699E+03 -9.49323E+03
  5.32647E+03 -8.85967E+03  8.91789E+03  3.02905E+03  1.05239E+04  1.44928E+04  6.88619E+03  1.69013E+04
 -1.34201E+04  2.18030E+04 -2.10696E+04  1.07585E+04 -2.24487E+04 -5.58545E+03 -1.36104E+04 -1.19429E+04
 -4.54650E+03 -1.50408E+04 -2.38323E+03 -1.93834E+04  1.32748E+04 -1.07739E+04  1.14428E+04  4.47305E+03
  1.13847E+04  6.66719E+03 -1.64765E+03  1.23627E+03 -3.38998E+03  8.25473E+03  6.76622E+02 -3.66858E+03
  6.44488E+03 -2.38687E+03  8.72031E+03  5.68033E+03  6.41311E+02  1.02143E+04  1.50941E+03 -4.86093E+03
 -5.99562E+03  1.09424E+04 -9.92363E+03  2.66403E+03 -1.20384E+04 -1.79776E+04 -5.96020E+03 -1.28404E+04
  5.23559E+03 -3.55641E+03  1.29358E+04  2.92533E+02  1.29171E+04  1.12911E+04  3.62350E+03  1.09795E+04
  2.65240E+03  8.76931E+03 -1.13756E+04  6.43598E+03 -1.27859E+04  1.18360E+04 -6.60501E+03  2.12317E+03
 -4.62488E+03 -7.08816E+03 -4.62951E+03 -4.76537E+03 -6.36517E+03 -1.73636E+02 -1.04551E+04 -3.88886E+03
 -2.99756E+02 -1.87738E+02  2.45691E+03 -1.23956E+04  9.61682E+03 -1.41458E+04  1.33073E+04 -6.00010E+03
  7.26203E+03 -1.38291E+03  2.16307E+03  1.35146E+04 -2.25668E+03  9.37735E+03 -7.29368E+03  7.57370E+03
