 $NMID ID='MM_0lb_SNR50_7hz_g45_52.RAW', FMTDAT='(8E13.5)'
 TRAMP=1., VOLUME=1. $END
  2.97891E+05 -2.94498E+03  3.32990E+05  2.47858E+05  8.28859E+04  3.38488E+05 -1.32072E+05  2.55110E+05
 -1.91490E+05  8.90983E+04 -1.09577E+05 -3.41736E+04 -1.54215E+03 -4.96151E+04  5.31602E+04 -7.46086E+03
  3.70978E+04  5.31961E+04 -1.87739E+04  7.74181E+04 -6.47458E+04  6.60095E+04 -8.49526E+04  3.72776E+04
 -8.16712E+04 -8.29172E+03 -5.11319E+04 -5.47093E+04 -1.67316E+04 -6.31712E+04  2.82204E+04 -4.86327E+04
  4.48172E+04  2.86160E+03  1.89469E+04  4.36192E+04 -3.76334E+04  4.93654E+04 -7.02235E+04 -3.09340E+03
 -5.76385E+04 -6.06431E+04 -1.63746E+04 -9.01578E+04  3.64745E+04 -5.56960E+04  5.30710E+04 -1.74254E+04
  4.75088E+04  1.78252E+04  3.48179E+04  2.88607E+04  1.81774E+04  3.08396E+04 -2.35932E+03  2.95525E+04
 -1.78984E+04  1.39010E+04 -2.15873E+04 -1.05247E+04  2.05046E+03 -6.45154E+03  2.05501E+04  7.76423E+03
  5.61685E+03  4.13195E+04 -2.88740E+04  3.20408E+04 -6.34726E+04  1.47182E+03 -5.88134E+04 -5.18181E+04
 -1.08937E+04 -6.44413E+04  4.65910E+04 -4.58191E+04  6.01595E+04 -8.71464E+03  4.04979E+04  3.65820E+04
 -6.09614E+03  3.91228E+04 -2.44316E+04  1.85971E+04 -3.10176E+04 -1.59285E+03 -1.82233E+04 -8.36563E+03
 -1.57158E+04 -1.61134E+04 -1.16774E+03 -2.50592E+04  1.02225E+04 -2.12582E+04  2.26846E+04 -1.52493E+04
  1.08256E+04  5.22655E+03 -1.22313E+04  5.69507E+03 -2.23615E+04 -2.76264E+03 -9.24987E+03 -3.95078E+04
  2.76656E+04 -4.64588E+04  4.86854E+04 -1.43270E+04  4.80734E+04  2.60853E+04  1.82126E+04  4.59583E+04
 -1.48997E+04  3.09706E+04 -2.40302E+04  8.83386E+02 -1.70184E+04 -3.32352E+04  2.07626E+04 -4.54733E+04
  4.48182E+04 -1.25340E+04  4.06577E+04  3.02524E+04  2.17078E+04  4.91579E+04 -7.90962E+03  5.92530E+04
 -2.90137E+04  4.27993E+04 -4.51653E+04  1.70008E+04 -5.57625E+04 -1.37655E+04 -2.34328E+04 -4.33160E+04
  1.02932E+04 -4.27903E+04  3.47975E+04 -2.12799E+04  3.26719E+04  1.74531E+04  5.61764E+03  1.67330E+04
 -1.23732E+04  1.34938E+04 -1.30943E+04 -5.28476E+03  4.45808E+03 -1.60043E+04  1.59805E+04  5.75530E+03
  1.97745E+04  2.67083E+04  1.89720E+02  2.86329E+04 -2.59778E+04  1.57016E+04 -3.55323E+04 -1.61685E+03
 -2.43050E+04 -2.14504E+04 -1.09461E+04 -2.14919E+04  6.72283E+03 -2.93750E+04  1.42168E+04 -1.68441E+04
  3.23776E+04 -1.85530E+04  3.67504E+04  8.58753E+03  2.99763E+04  2.87102E+04  8.84958E+03  4.77863E+04
 -2.16504E+04  3.70863E+04 -3.69979E+04  1.58026E+04 -2.34625E+04 -3.72085E+03 -1.07146E+04 -1.01756E+04
 -4.21454E+03 -8.06132E+03 -4.40815E+03  3.99520E+03 -2.25521E+04  7.47709E+03 -1.62505E+04 -3.65798E+03
 -9.96284E+03 -2.98665E+04  1.41169E+04 -2.92703E+04  2.50489E+04 -1.91678E+04  2.77882E+04 -6.00639E+03
  1.38386E+04  1.84089E+04 -2.19298E+03  2.94499E+04 -1.96887E+04  1.92887E+04 -2.81544E+04 -8.05487E+03
 -2.27634E+04 -1.86621E+04 -8.90992E+03 -3.05333E+04  8.01268E+03 -2.57372E+04  2.64428E+04 -1.17896E+04
  1.93938E+04 -2.89633E+03  1.92559E+04  4.71588E+03  1.04103E+04 -3.34539E+03  1.78640E+04 -2.48422E+03
  2.36715E+04  7.60058E+03  2.60827E+04  2.04679E+04  2.06555E+04  3.38793E+04 -8.29901E+03  4.72896E+04
 -2.46397E+04  4.03568E+04 -4.62221E+04  3.12558E+04 -5.30943E+04 -2.49717E+02 -3.91371E+04 -3.27320E+04
 -1.91042E+04 -4.42572E+04  1.63909E+04 -4.43023E+04  3.09687E+04 -1.19206E+04  3.22666E+04  3.94968E+03
  9.57381E+03  1.76772E+04 -8.67205E+03  2.22524E+04 -1.70283E+04 -6.49091E+02 -1.84834E+04 -1.84019E+04
 -2.02741E+03 -1.83472E+04  1.08207E+04 -1.19557E+04  6.58752E+03  1.07489E+03  1.89403E+02  6.81251E+03
 -6.65304E+03 -4.62370E+03 -8.82134E+03 -6.47841E+03 -7.39209E+03 -2.31564E+04  6.74983E+03 -2.05355E+04
  2.39012E+04 -1.62600E+04  2.47288E+04  2.22867E+03  1.91943E+04  2.43860E+04  3.57383E+03  3.65679E+04
 -5.96341E+03  3.60331E+04 -2.39478E+04  2.19820E+04 -2.07014E+04  3.88471E+03 -1.94712E+04 -8.35899E+03
 -6.63942E+03 -4.56662E+03 -6.08938E+03  4.62508E+03 -4.37279E+03  1.07325E+04 -1.08455E+04  8.54392E+03
 -1.12696E+04  1.32881E+03 -1.54911E+04 -1.09065E+04 -5.69456E+03 -1.29912E+04  1.65367E+04 -1.76099E+04
  1.33669E+04 -5.29339E+03  1.04658E+04  1.25789E+04 -8.45807E+03  7.83382E+03 -5.75259E+03 -4.48701E+03
 -9.97668E+03 -5.75846E+03 -6.70792E+03 -1.86324E+04  7.30573E+03 -1.67250E+04  1.58696E+04 -1.20163E+04
  2.24276E+04  1.49213E+03  1.76855E+04  1.14812E+04  1.28243E+03  1.75210E+04 -8.32001E+03  1.66296E+04
 -7.19330E+03  5.21937E+03 -5.61124E+03 -3.57291E+03  5.13617E+03 -3.31486E+03  1.30756E+04 -2.23710E+03
  3.25067E+03  3.78452E+03  1.03437E+04  1.67336E+04 -9.54768E+03  9.48007E+03 -2.03604E+04  2.00055E+02
 -1.05219E+04 -8.31173E+03 -1.60923E+03 -1.80348E+04  6.78696E+03 -7.46558E+03  5.24441E+03  4.04142E+03
  3.95392E+03  8.50669E+03 -1.31478E+04  1.06679E+04 -1.37965E+04  3.12367E+03 -1.59403E+04 -7.15681E+03
 -1.35435E+04 -1.61819E+04  6.87973E+03 -2.62807E+04  1.27195E+04 -1.49909E+04  1.23382E+04  9.14758E+03
  5.96764E+03  1.95482E+04 -4.11887E+03  1.74260E+04 -1.23474E+04  1.21554E+04 -1.73074E+04 -1.98756E+03
 -1.22402E+04 -9.94688E+03 -2.42294E+02 -1.21469E+04  5.36992E+03 -1.10435E+04  7.83790E+03 -1.81960E+03
  1.09544E+04  3.77080E+03 -3.40855E+03  4.10259E+03 -2.78188E+03  2.53652E+02  3.85966E+03 -1.52982E+04
  1.48918E+04 -4.18517E+03  2.05640E+04 -5.61083E+03  1.50112E+04  1.34626E+04  1.41070E+04  2.88158E+04
 -1.30613E+03  3.33417E+04 -2.32052E+04  1.99767E+04 -3.20755E+04  9.40090E+03 -2.71172E+04 -1.49564E+04
 -1.28283E+04 -1.74846E+04  4.13489E+03 -1.17519E+04  5.40251E+03 -9.69887E+03  6.99972E+03 -7.53362E+03
  9.59687E+03  5.52326E+03 -3.83730E+03 -3.51572E+03 -5.49425E+01 -1.09403E+03  5.07902E+03  1.09201E+03
  8.76389E+03  9.96645E+03  6.51154E+03  7.72103E+03  1.49144E+03  8.63193E+03 -8.92327E+03  5.01763E+03
 -2.41942E+04 -7.97883E+02 -1.51649E+04 -7.86309E+03 -2.27036E+03 -2.46858E+04  1.57916E+04 -2.49221E+04
  1.82273E+04 -1.50294E+04  2.54702E+04  7.09143E+03  1.91671E+04  6.84357E+03  2.21713E+03  2.18744E+04
 -1.36043E+04  1.40528E+04 -1.06527E+04  5.83242E+03 -1.08558E+04 -3.36473E+03  3.74599E+03 -1.18483E+04
 -1.57185E+03 -2.05118E+03  3.29444E+03  1.14124E+03 -1.01913E+04 -9.27370E+02 -1.68108E+04 -5.56384E+03
 -1.01018E+04 -1.25521E+04 -9.33505E+03 -1.96608E+04  1.20464E+04 -1.49581E+04  1.85846E+04  1.92665E+03
  1.55246E+04  2.68831E+03  1.67468E+04  1.44987E+04 -2.59871E+03  1.42046E+04 -1.01097E+04  1.54683E+04
 -1.57513E+04 -8.74790E+03 -1.50846E+04 -1.25569E+04 -5.28878E+03 -1.37801E+04  6.48325E+03 -1.55927E+04
  1.08934E+04  6.27746E+03  3.27144E+03 -4.41246E+03  4.01203E+03  4.43965E+03  4.50127E+03 -1.69802E+03
  7.69591E+03 -1.27443E+03  5.30902E+03  2.13065E+03  6.91824E+03  5.66793E+03  8.50648E+02  9.29587E+03
 -7.44379E+03  1.61562E+04 -9.35104E+03  1.33962E+04 -2.40722E+04  3.91568E+03 -1.43095E+04 -4.39049E+03
 -8.51356E+03 -1.19009E+04  4.85340E+03 -1.96756E+04  1.11232E+04 -1.57313E+04  1.26182E+04  9.95983E+01
  1.33309E+04  1.23114E+04  1.09252E+04  6.44532E+03 -9.39765E+03  4.98025E+03 -5.25601E+03  2.28643E+03
 -8.21059E+03 -9.47743E+03  1.91358E+03 -2.56379E+03  3.23343E+03 -3.80497E+03  4.80612E+03 -2.54383E+03
  1.28427E+04  5.10069E+03 -1.49580E+02  5.46979E+02  2.64150E+03 -3.42507E+03 -3.50594E+03 -6.58887E+02
  1.10668E+04 -1.55649E+03  9.12495E+03  1.87071E+03 -1.06455E+03  8.69891E+03 -6.30689E+03  1.10517E+04
 -1.01915E+04 -1.46386E+03 -1.06323E+03 -1.46990E+03 -1.38710E+04 -4.94697E+03 -4.50033E+03 -7.52360E+03
  5.38204E+03 -8.96143E+03  4.81418E+03 -2.44738E+03  1.07308E+03  2.26443E+03 -4.00711E+03  1.56742E+03
 -8.70370E+03  2.49894E+03 -1.62733E+04 -5.27485E+02 -1.08683E+04 -1.38111E+04  4.90126E+03 -8.31060E+03
  7.60441E+03 -6.53030E+03  1.32847E+04  6.32338E+03  1.35930E+04  4.32539E+03 -3.73581E+02  8.21114E+03
 -5.32968E+03 -1.84134E+03 -4.68437E+02  2.32890E+03 -5.42966E+03 -6.33859E+03  1.17236E+04 -5.13869E+03
  1.62411E+04  5.17258E+03  7.53526E+03  9.29268E+03  5.19901E+03  1.00358E+04  1.85805E+03  2.18868E+04
 -1.35569E+04  1.02174E+04 -9.03850E+03 -8.47448E+03 -5.06769E+03 -6.15878E+03 -3.14916E+03 -6.38458E+03
  7.99221E+03 -5.16028E+03  9.87806E+03  8.26207E+03 -9.24172E+03  4.75925E+03 -7.33759E+03  6.38525E+03
 -1.25779E+03 -3.02925E+03 -1.52779E+03  1.72436E+02 -1.92135E+03 -1.64444E+03 -1.81946E+03  3.26803E+03
  2.96813E+03  3.13065E+03 -1.27415E+04  6.57490E+03 -1.03292E+04 -8.56650E+02 -1.63999E+04 -5.92615E+03
 -1.06871E+04 -1.87909E+04  1.11383E+03 -1.90659E+04  1.20672E+04 -2.51063E+04  2.18843E+04 -8.25255E+03
  1.74585E+04  1.10005E+04  1.05594E+04  1.71734E+04  3.30649E+03  1.82172E+04 -7.99510E+03  1.16568E+04
 -8.67126E+03 -9.05163E+02 -8.93471E+03  1.27322E+02  2.49392E+03 -3.77781E+03 -3.89581E+03  1.50051E+03
 -2.48120E+03  9.77736E+02 -1.69019E+03  4.08892E+03 -7.93866E+03 -9.80046E+02 -1.36641E+03 -5.66007E+03
  1.12074E+04 -5.80543E+03  5.40144E+03 -2.63121E+03  7.69179E+03  9.87602E+03  5.43638E+03  1.17390E+04
 -1.27543E+04  1.64812E+04 -1.89181E+04  1.44344E+03 -1.79503E+04 -1.55346E+03 -7.93803E+03 -1.69030E+04
 -1.25124E+04 -1.03282E+04  4.81907E+03 -1.44393E+04  3.98304E+03 -6.54723E+03  6.73802E+03 -1.35570E+03
  6.29710E+03  1.00176E+04  4.40391E+03 -1.16382E+03 -4.26707E+03  1.26100E+03  8.07830E+03 -3.74453E+03
  7.38528E+03 -5.55657E+03  3.83000E+03  4.87942E+03 -1.79591E+03 -8.42268E+02 -2.16116E+03  1.77154E+02
 -8.84736E+03  6.34175E+03 -1.45403E+04  4.85190E+03 -5.55538E+03 -7.16715E+03  4.85500E+02 -1.38761E+04
  7.34829E+03 -1.29541E+04  6.67917E+03 -2.07098E+03  9.89070E+03  5.37085E+03  9.36038E+03  6.93280E+03
  6.36966E+03  9.43731E+03 -4.66307E+03 -4.96772E+02 -9.22216E+03  4.59946E+03  1.42735E+03 -4.71845E+03
 -4.78143E+03 -4.44932E+03  3.92934E+03 -6.47950E+03 -7.44791E+03  3.93665E+02 -2.84902E+03  6.61256E+02
 -6.89113E+03 -6.99287E+03 -1.02861E+04 -1.58628E+04  3.01434E+03 -1.39671E+04  1.22542E+03 -8.34331E+03
  7.85840E+03 -3.32600E+03  7.76625E+03  4.54746E+03 -8.60117E+03  1.23670E+04 -7.73789E+03  8.99414E+03
