 $NMID ID='MM_0lb_SNR50_8hz_g45_80.RAW', FMTDAT='(8E13.5)'
 TRAMP=1., VOLUME=1. $END
  3.08905E+05 -2.54065E+03  3.38620E+05  2.53071E+05  8.19700E+04  3.38543E+05 -1.28411E+05  2.47316E+05
 -1.91027E+05  8.02003E+04 -1.17520E+05 -3.71262E+04 -1.57244E+03 -5.13474E+04  5.47506E+04  1.12011E+03
  3.33569E+04  4.67792E+04 -1.97136E+04  7.68996E+04 -6.28613E+04  6.71642E+04 -8.98855E+04  3.34626E+04
 -8.48866E+04 -9.95378E+03 -6.52567E+04 -4.68821E+04 -1.24127E+04 -7.01572E+04  2.36555E+04 -4.37535E+04
  3.71771E+04  5.31549E+03  1.09002E+04  4.68310E+04 -4.13306E+04  4.38880E+04 -6.41174E+04  1.96394E+03
 -4.88222E+04 -6.38372E+04 -6.60364E+03 -8.04515E+04  3.34437E+04 -5.55050E+04  4.60991E+04 -1.61921E+04
  4.25573E+04  1.70939E+04  4.36527E+04  2.39047E+04  1.82775E+04  2.69209E+04  1.61015E+03  2.41103E+04
 -2.24174E+04  1.01730E+04 -1.92860E+04 -3.92115E+03 -1.30912E+03 -5.73064E+03  2.40992E+04  1.57707E+04
  9.87963E+03  3.72505E+04 -3.28178E+04  3.89640E+04 -7.12756E+04  5.86159E+03 -5.33493E+04 -4.85781E+04
 -1.06737E+04 -7.13827E+04  4.60143E+04 -4.37137E+04  6.15267E+04 -1.09725E+04  3.66479E+04  3.86198E+04
 -7.32049E+03  4.10956E+04 -3.22368E+04  1.49095E+04 -3.96922E+04 -9.98240E+03 -2.14086E+04 -1.05057E+04
 -7.87501E+03 -1.40827E+04  4.68459E+03 -2.46517E+04  2.01248E+04 -1.94579E+04  1.06890E+04 -1.01629E+04
  9.81955E+03  6.70184E+03 -1.05663E+04  1.16734E+04 -2.43268E+04  8.00293E+01 -3.40808E+03 -3.71284E+04
  2.54320E+04 -5.16165E+04  4.82271E+04 -2.43288E+04  4.66749E+04  1.82794E+04  1.65406E+04  4.45427E+04
 -1.98271E+04  3.67525E+04 -2.82007E+04 -2.33355E+03 -1.28791E+04 -2.87568E+04  1.92392E+04 -3.38292E+04
  4.69763E+04 -1.08801E+04  4.00582E+04  2.53488E+04  2.27522E+04  5.98425E+04 -2.83127E+03  5.98969E+04
 -4.23856E+04  3.89375E+04 -5.11308E+04  1.67700E+04 -4.75633E+04 -2.01823E+04 -1.84059E+04 -4.08451E+04
  9.03965E+03 -4.41655E+04  3.99810E+04 -1.52757E+04  3.44484E+04  1.61320E+04  7.07995E+03  1.61398E+04
 -2.19528E+04  1.16656E+04 -1.52378E+04 -7.24342E+03  4.17516E+03 -7.69941E+03  1.79049E+04  7.89548E+03
  1.64798E+04  1.68567E+04 -5.49741E+03  2.74489E+04 -2.58342E+04  1.51180E+04 -2.06885E+04 -1.05313E+04
 -2.56315E+04 -1.81172E+04 -1.70830E+04 -2.82303E+04  8.09366E+03 -1.54974E+04  1.50325E+04 -2.44999E+04
  3.69132E+04 -1.41625E+04  3.75466E+04  8.75514E+03  2.19601E+04  2.36285E+04  6.02912E+03  3.90217E+04
 -2.61665E+04  3.17896E+04 -2.89973E+04  1.42372E+04 -2.40369E+04 -8.29267E+03 -5.33886E+02 -1.16429E+04
  3.41517E+03 -5.30641E+03 -8.88236E+03  2.11527E+03 -2.05166E+04  1.36264E+03 -1.70038E+04 -1.39376E+04
 -6.27911E+03 -2.79207E+04  7.11893E+03 -3.45451E+04  2.12080E+04 -1.65688E+04  2.29823E+04 -4.70026E+03
  1.03571E+04  8.67222E+03  9.03069E+03  2.39699E+04 -1.72667E+04  1.86724E+04 -1.85748E+04 -7.22140E+03
 -1.37285E+04 -2.77375E+04 -1.30124E+03 -3.42995E+04  1.67002E+04 -2.33411E+04  2.26484E+04 -1.29044E+04
  2.57467E+04 -1.14710E+03  1.50968E+04  2.51572E+03  1.13468E+04 -5.89294E+03  1.11538E+04 -1.64335E+03
  2.75634E+04 -1.12169E+03  2.53676E+04  1.86247E+04  1.87507E+04  3.55940E+04 -6.40920E+03  5.41300E+04
 -2.13190E+04  4.34714E+04 -3.50323E+04  1.90503E+04 -4.96261E+04 -2.32541E+03 -3.91132E+04 -3.13212E+04
 -1.73170E+04 -4.01658E+04  4.75142E+03 -3.19076E+04  2.77077E+04 -2.05615E+04  2.57044E+04  1.22342E+04
  9.15019E+03  1.55848E+04 -1.40281E+04  1.62215E+04 -1.65614E+04 -2.84616E+03 -2.31693E+04 -8.90466E+03
  1.74418E+03 -1.37256E+04  5.00511E+03 -8.26219E+03  1.45097E+04 -1.96504E+03  4.31577E+03  9.88465E+03
 -9.75735E+03  5.45541E+03 -6.90400E+03 -1.89691E+04 -3.22336E+03 -1.48607E+04  1.05084E+04 -2.05368E+04
  2.49019E+04 -9.41876E+03  2.69864E+04  2.27766E+03  2.66753E+04  1.64634E+04  7.83719E+03  2.97538E+04
 -1.09527E+04  4.04972E+04 -1.68458E+04  1.87381E+04 -2.19628E+04  6.11957E+03 -2.10918E+04 -7.96973E+03
 -1.43075E+04 -5.12274E+03  2.99705E+03 -1.56010E+03 -1.59076E+03  3.20355E+03 -8.67601E+03  3.16494E+03
 -1.37144E+04 -2.31444E+03 -1.76283E+04 -1.16203E+04 -6.10666E+03 -2.38576E+04  1.17117E+04 -1.59290E+04
  1.16449E+04 -5.64148E+03  3.74286E+03  2.64089E+03  5.11008E+03  1.29058E+04 -5.83774E+03 -2.67570E+02
 -6.62313E+03 -1.68818E+04 -1.38995E+03 -9.06040E+03  7.24388E+03 -1.70301E+04  3.41346E+04 -7.60618E+03
  3.09459E+04  1.35621E+03  2.58833E+04  1.34784E+04  2.77049E+03  1.40542E+04 -8.91490E+03  1.64828E+04
 -1.33032E+04  9.12197E+03 -5.80859E+03 -5.85272E+03  2.33174E+03 -2.86676E+03  6.62025E+03 -6.53792E+02
  4.84131E+03  1.03027E+04  1.67728E+02  1.67970E+04 -1.11056E+04  1.39236E+04 -1.54090E+04  6.83004E+03
 -5.27805E+03 -8.97633E+03  1.02995E+03 -1.33315E+04  6.90305E+03 -6.49301E+03  7.04282E+03  1.02284E+04
  2.34429E+03  1.83058E+04 -1.16148E+04  9.15879E+03 -1.61193E+04  9.32885E+03 -1.28673E+04 -5.95421E+03
 -1.39478E+04 -1.79925E+04  4.75607E+03 -1.87957E+04  7.12928E+03 -6.88071E+03  1.27985E+04  6.04682E+03
  5.65080E+03  3.57915E+03  7.15203E+03  1.78175E+04 -1.97107E+04  5.59145E+03 -2.41501E+03 -3.31951E+02
 -2.10164E+04 -6.62069E+03  2.41151E+03 -1.62633E+04  3.24301E+03 -1.43906E+04  4.51630E+03 -2.10251E+01
  4.66774E+03  6.03502E+03 -3.88559E+03 -1.56905E+02  1.53567E+03 -6.74683E+03  4.59939E+03 -1.19799E+04
  1.44315E+04 -6.41415E+03  2.24482E+04  1.14274E+03  1.21040E+04  8.43545E+03  8.24601E+03  2.28945E+04
 -3.81548E+03  2.69569E+04 -1.94413E+04  1.83049E+04 -2.71890E+04  4.10807E+03 -1.62624E+04 -1.32422E+04
 -1.61148E+04 -1.95118E+04  2.57946E+03 -1.29478E+04 -7.74229E+02 -4.44184E+03  5.62123E+03  1.56515E+03
  5.89912E+03  9.28559E+02  2.37664E+03 -1.93669E+03  7.30755E+03  1.97135E+02  6.56995E+03  5.71702E+03
  1.40389E+04  3.41530E+03  6.29606E+03  1.66772E+04 -3.12955E+03  1.50153E+04 -1.50148E+04  1.12540E+04
 -1.99733E+04  2.78994E+03 -4.26892E+03 -1.91749E+03  2.61641E+03 -2.39512E+04  4.36566E+03 -2.01639E+04
  1.98747E+04 -1.03750E+04  1.84872E+04 -2.29667E+03  1.54018E+04  1.90475E+04 -1.68606E+03  1.52585E+04
 -7.21643E+03  1.46379E+04 -1.10712E+04  4.37644E+03 -1.08635E+04 -7.59037E+03  5.87677E+02 -6.33399E+03
 -3.24641E+03 -2.22304E+03 -4.82899E+03  5.21318E+03 -6.47467E+03  4.69689E+03 -1.03046E+04 -5.23175E+03
 -5.25421E+03 -1.56213E+04 -3.71198E+03 -1.99149E+04  5.46025E+03 -1.50607E+04  1.58432E+04 -5.93284E+03
  1.85647E+04  1.39530E+04  1.23140E+04  2.05499E+04 -3.47334E+03  1.75734E+04 -9.55490E+03  5.35052E+03
 -1.50390E+04 -4.86814E+03 -1.08946E+04 -9.82993E+03  9.94440E+02 -1.49171E+04  4.34360E+03 -1.18145E+04
  1.01609E+04 -1.23252E+03  7.28118E+03  4.13433E+03  3.05059E+03  2.30629E+03 -6.68562E+03 -4.94843E+02
  6.69284E+03 -5.63262E+03  2.13358E+02 -1.31223E+03  5.56514E+03  3.44243E+03 -1.82118E+03  7.68990E+03
 -6.36768E+02  1.31734E+04 -1.59692E+04  1.24802E+04 -2.39656E+04 -2.33015E+03 -1.50505E+04 -5.95212E+03
 -1.51920E+04 -1.28303E+04  3.38978E+02 -1.68619E+04  8.34158E+03 -1.82212E+04  1.16188E+04 -5.68848E+03
  1.02552E+04  6.38125E+03 -5.14535E+02  6.92568E+03  3.16998E+02  6.85716E+03 -9.23569E+03 -6.62917E+02
 -5.10322E+03 -8.57756E+03  1.20116E+04 -1.08005E+03  4.36466E+03 -8.13578E+03  5.64267E+03 -1.50790E+02
  5.86905E+03  4.53057E+03  5.79875E+03  4.85386E+03 -4.22081E+03  3.28548E+03  5.32385E+03 -4.68185E+03
  6.15244E+03  2.15201E+03  1.39782E+03  2.52459E+03  2.28461E+03  9.36688E+03 -2.61271E+03  1.73712E+04
 -6.09401E+03  4.94383E+03 -8.63605E+03 -2.23958E+03 -7.21362E+03 -4.99863E+03 -3.92739E+03 -9.89253E+03
  7.96073E+03 -9.78968E+02  8.99583E+03  2.17028E+03  1.11901E+04  4.79691E+03 -4.94425E+03  1.10134E+04
 -1.00785E+04 -2.64302E+02 -8.19451E+03 -1.96440E+03 -1.11908E+04 -1.09390E+04  5.33384E+02 -1.13052E+04
  1.08596E+04 -5.75797E+03  4.82797E+03 -6.00402E+03  1.18569E+03  5.62850E+03  5.19769E+02  5.99173E+03
  6.08257E+02  8.48467E+02 -1.00343E+04 -1.53005E+03  2.38638E+03 -5.53818E+03  9.79950E+03 -5.46347E+03
  8.14848E+03  1.01892E+04  1.02345E+04  1.18521E+04  4.12119E+03  1.01701E+04 -1.04350E+04  6.06607E+03
 -1.31476E+04  3.71249E+03 -1.30862E+04 -4.56764E+03 -1.62546E+03 -1.54217E+04  1.97139E+03 -4.53601E+03
  7.82436E+03 -5.10996E+03  4.39526E+03  1.36066E+03  2.49816E+03  1.03325E+04  6.68588E+03  5.43394E+03
  2.29458E+03 -4.70844E+02 -5.89174E+03 -8.58693E+03 -2.58718E+03  4.90691E+03 -4.71741E+03 -4.46475E+02
  2.22510E+03  4.93592E+03 -7.34685E+03  5.06033E+03 -5.43324E+03  2.22488E+03 -1.76537E+04 -6.95633E+03
 -8.23179E+03 -1.36865E+04 -1.21997E+03 -1.26364E+04  4.58772E+03 -1.45332E+04  2.33076E+04  1.54729E+03
  1.02915E+04 -1.44491E+02  1.01447E+04  6.95345E+03  5.07669E+03  8.06938E+03 -6.21039E+03  5.72486E+03
 -5.84108E+03  3.18176E+03 -3.65397E+03 -3.14917E+03  2.68901E+03  4.23357E+03  2.35010E+03  4.73799E+03
 -2.31983E+03 -7.56749E+03  7.28691E+00 -1.17147E+03  2.85797E+03 -1.60117E+03  1.02851E+03 -1.06666E+04
  7.24107E+03 -5.41161E+03  7.15164E+03  5.37662E+03  6.16236E+03  6.62573E+03 -1.30903E+03  1.36332E+04
 -8.73909E+03  1.86874E+04 -9.93600E+03  1.74090E+03 -1.57609E+04 -3.37187E+03 -1.58554E+04 -8.57117E+03
 -3.63173E+03 -1.54018E+04  5.18648E+03 -9.04954E+03  9.72184E+03 -2.81553E+03  1.28515E+04 -1.89425E+03
 -1.18849E+03  7.83971E+03 -2.11582E+02  6.49409E+03 -1.70471E+03 -1.03220E+04 -2.43677E+03 -5.50309E+03
  1.75944E+03  6.38833E+03  7.08869E+03  5.96388E+03  6.60213E+03  3.03931E+03 -1.17492E+03  1.88215E+03
 -1.62778E+04  4.19959E+03 -3.10020E+03 -2.17477E+03 -1.06843E+04 -7.89262E+03 -2.66026E+03 -8.50476E+03
  3.89874E+03 -3.54939E+03  1.53169E+04  1.75891E+03  9.50680E+03  5.40634E+03  6.69222E+03  1.00491E+04
  2.69837E+03  7.06132E+03 -6.20410E+03  5.82156E+03 -3.52102E+02  5.09296E+02 -1.03735E+04 -5.19202E+02
 -2.26623E+03 -1.25756E+03  6.97651E+02 -3.20698E+03 -4.19571E+01  4.70234E+02 -4.30037E+03 -2.31294E+03
 -1.30427E+03  3.40322E+02  1.78156E+03 -7.65304E+03  4.49395E+03 -1.00461E+04  1.05385E+04 -5.20814E+03
  8.70011E+03  3.37448E+03  6.51424E+03  2.86090E+03  3.87697E+03  3.55965E+03 -4.57226E+03  8.89620E+03
