 $NMID ID='MM_0lb_SNR50_8hz_g55_51.RAW', FMTDAT='(8E13.5)'
 TRAMP=1., VOLUME=1. $END
  3.07226E+05 -4.18440E+03  3.42044E+05  2.53627E+05  8.49899E+04  3.40854E+05 -1.41451E+05  2.51154E+05
 -1.91289E+05  8.49848E+04 -1.12257E+05 -2.65182E+04  2.61014E+03 -4.75566E+04  5.27065E+04 -1.57514E+03
  3.24179E+04  5.09878E+04 -2.23262E+04  7.59950E+04 -5.64802E+04  6.22181E+04 -7.91168E+04  3.08743E+04
 -8.45900E+04 -1.34910E+04 -5.77946E+04 -5.15949E+04 -1.44524E+04 -7.58563E+04  2.42271E+04 -5.27795E+04
  3.76071E+04  4.11656E+03  1.91038E+04  5.49372E+04 -3.63847E+04  4.70763E+04 -6.76646E+04 -2.53290E+03
 -5.15577E+04 -6.36534E+04 -8.99582E+03 -7.88072E+04  3.60353E+04 -5.97577E+04  5.40295E+04 -2.35525E+04
  4.40715E+04  1.23087E+04  3.54343E+04  2.27627E+04  7.47166E+03  3.08109E+04 -9.66036E+03  2.37898E+04
 -2.16101E+04  5.28447E+03 -2.06625E+04 -6.87422E+03  1.15257E+04 -5.37343E+03  2.81213E+04  2.40853E+04
  9.86236E+03  3.52956E+04 -3.37550E+04  3.15054E+04 -6.83315E+04  3.70355E+03 -6.23230E+04 -4.64919E+04
 -1.65285E+04 -7.03310E+04  3.88031E+04 -4.87073E+04  6.64048E+04 -5.27039E+03  3.67225E+04  3.77606E+04
 -7.86282E+03  3.90049E+04 -3.35067E+04  1.83350E+04 -3.05966E+04  1.43249E+03 -2.49414E+04 -9.64803E+03
 -9.59999E+03 -2.12142E+04 -2.59204E+03 -1.39699E+04  1.23363E+04 -1.84244E+04  2.15373E+04 -1.52256E+04
  1.01404E+04  9.97860E+03 -9.09029E+03  9.67204E+03 -2.38580E+04  1.57325E+03 -3.73446E+03 -3.83539E+04
  2.02294E+04 -4.74282E+04  5.39962E+04 -2.67121E+04  4.93197E+04  2.71358E+04  2.23143E+04  4.29466E+04
 -2.41800E+04  4.11281E+04 -3.48231E+04  1.04752E+04 -1.96880E+04 -2.58434E+04  2.16415E+04 -3.85522E+04
  4.13593E+04 -1.38375E+04  4.00980E+04  2.81533E+04  1.72427E+04  4.95671E+04 -6.22931E+03  5.80575E+04
 -3.03229E+04  4.50563E+04 -5.13566E+04  1.10775E+04 -4.91898E+04 -1.79472E+04 -3.15756E+04 -4.11639E+04
  1.14898E+04 -3.87356E+04  3.99266E+04 -1.77217E+04  3.58576E+04  1.06137E+04 -4.05383E+02  1.48840E+04
 -1.53734E+04  2.75337E+03 -1.18348E+04 -9.66532E+03  3.32275E+03 -4.02533E+03  2.03326E+04  5.44899E+03
  2.10464E+04  2.61220E+04 -7.10447E+03  2.43331E+04 -2.99187E+04  1.68805E+04 -3.35278E+04 -1.12704E+03
 -2.72152E+04 -1.44779E+04 -1.63430E+04 -2.47816E+04  2.32077E+03 -3.03026E+04  2.20264E+04 -2.03567E+04
  3.56758E+04 -1.42674E+04  4.03715E+04 -5.42800E+02  2.93759E+04  2.30929E+04  1.31060E+04  4.19784E+04
 -3.00243E+04  3.46522E+04 -4.15750E+04  1.07736E+04 -2.36031E+04 -8.27920E+03 -4.39208E+03 -1.57922E+04
  7.33069E+03 -3.42437E+02 -1.08988E+04  1.23342E+04 -2.04234E+04  2.50140E+03 -1.86136E+04 -1.16566E+04
 -1.34141E+04 -2.05223E+04  5.48885E+03 -3.57457E+04  1.66418E+04 -1.96376E+04  2.06072E+04 -2.12322E+03
  2.50358E+04  1.54515E+04 -1.10722E+04  2.05513E+04 -1.30464E+04  1.16378E+04 -2.14724E+04 -7.59910E+03
 -1.93107E+04 -1.68327E+04 -5.65089E+03 -2.92704E+04  1.17641E+04 -3.09708E+04  2.57886E+04 -7.81541E+03
  2.90254E+04  4.44898E+03  1.68257E+04  1.27428E+03  1.03163E+04  2.60288E+03  1.65453E+04 -7.31241E+03
  2.36135E+04  2.16703E+03  2.50591E+04  2.52199E+04  1.18722E+04  4.59391E+04  3.90725E+03  5.07795E+04
 -2.65602E+04  3.25196E+04 -4.78284E+04  2.34460E+04 -4.61917E+04 -6.28228E+03 -3.19509E+04 -2.25706E+04
 -5.25757E+03 -4.10809E+04  1.76819E+04 -3.30697E+04  3.01864E+04 -2.23833E+04  2.42443E+04  8.13130E+03
  7.30716E+03  2.29536E+04 -1.05440E+04  1.22683E+04 -1.92942E+04 -3.63944E+03 -1.11209E+04 -1.36676E+04
 -3.37363E+03 -1.28359E+04  8.71680E+03 -1.49380E+04  1.42422E+04 -8.94593E+03  5.73594E+03  1.46432E+04
 -3.49566E+03  1.18827E+04 -1.36533E+04 -1.24232E+04 -2.43719E+03 -1.54273E+04  1.66910E+04 -2.23898E+04
  2.22169E+04 -1.31482E+04  3.29632E+04  8.72684E+03  2.13309E+04  2.00719E+04  8.52087E+03  3.68643E+04
 -2.54676E+02  3.91437E+04 -2.56802E+04  1.93977E+04 -2.19346E+04 -2.35886E+03 -1.03154E+04 -1.15218E+04
 -1.10674E+04 -8.47241E+03 -1.01258E+03 -2.50533E+03 -1.56773E+03  3.53579E+03 -4.66972E+03  1.59436E+04
 -1.66690E+04 -3.53740E+03 -1.79743E+04 -1.52653E+04 -9.88329E+03 -1.61759E+04  1.32830E+03 -1.86905E+04
  2.34275E+04 -5.85680E+03  7.57442E+03  7.15454E+03  6.53958E+03  4.01090E+03 -1.34060E+04 -1.88075E+03
 -1.25846E+04 -1.41097E+04 -3.51250E+03 -1.46738E+04  2.02382E+04 -2.04631E+04  1.90869E+04 -1.11268E+04
  2.52404E+04  2.44594E+02  1.52198E+04  1.02481E+04  3.02202E+03  2.13899E+04 -5.94287E+03  1.29625E+04
 -1.16098E+04 -1.97371E+03 -1.25764E+04 -8.96543E+03 -1.18738E+03 -3.38235E+03 -2.39559E+03 -2.36624E+03
  6.09795E+02  1.07931E+04  2.10600E+03  1.95523E+04 -1.06171E+04  1.22072E+04 -1.99990E+04 -1.44846E+03
 -7.54855E+03 -5.93335E+03  4.16799E+03 -1.25622E+04  6.48256E+03 -8.25247E+03  1.33325E+04  2.41194E+03
  7.39974E+03  1.58037E+04 -1.24834E+04  1.10889E+04 -7.85671E+03  1.08537E+04 -1.73415E+04 -1.70626E+03
 -1.42792E+04 -2.90295E+04  1.21769E+04 -1.27012E+04  2.21081E+04 -9.02990E+03  2.15900E+04  1.00332E+04
  7.94466E+03  1.46838E+04 -5.41049E+03  1.73900E+04 -8.17035E+03  4.85409E+03 -1.67636E+04  1.38965E+03
 -1.58949E+04 -9.65899E+03 -6.40568E+03 -1.58987E+04  8.62952E+03 -8.73124E+03  2.74201E+03  2.83776E+02
  6.74472E+03  5.18904E+03  9.42937E+02  3.78420E+03  2.66521E+03 -7.97075E+02 -2.87093E+03 -6.17788E+03
  7.71959E+03 -3.32684E+03  1.93286E+04  7.67085E+02  1.46839E+04  1.05967E+04  1.11223E+04  2.43923E+04
 -2.66053E+03  2.78664E+04 -2.14372E+04  1.03318E+04 -3.05790E+04  1.88402E+03 -2.22464E+04 -4.05797E+03
 -1.44325E+04 -1.23344E+04 -2.83218E+03 -2.16020E+04  5.44643E+03 -4.72230E+03  7.68455E+03 -8.99889E+03
  4.62532E+03 -1.64772E+03  4.95807E+03  2.06568E+02  5.57035E+03 -1.04373E+04  1.40858E+04 -1.55436E+03
  1.74343E+04  3.47979E+03  5.85086E+03  7.67926E+03  2.27200E+03  1.45409E+04 -1.85425E+04  1.14260E+04
 -1.50554E+04 -4.81530E+03 -9.67549E+03 -1.89971E+04  1.31250E+03 -1.04760E+04  1.59349E+04 -1.90786E+04
  1.73289E+04 -1.00977E+04  2.80071E+04 -7.92207E+02  2.42562E+04  1.14384E+04  8.86863E+03  2.53919E+04
 -1.39398E+04  1.95436E+04 -1.56557E+04  2.28975E+03 -2.74899E+03 -2.15967E+02 -3.91187E+03 -1.56108E+03
 -5.16088E+03 -2.96040E+03 -7.48786E+02  1.76873E+03 -3.17497E+03  1.45280E+02 -1.66997E+04  1.71905E+03
 -1.07129E+04 -1.38789E+04 -4.30707E+03 -1.98275E+04  6.41227E+03 -1.59112E+04  1.00669E+04  5.23268E+02
  1.80275E+04  7.83718E+03  1.33604E+04  1.51784E+04 -5.02694E+03  2.14648E+04 -9.15891E+03  1.13760E+04
 -2.21129E+04 -8.93045E+03 -1.60607E+04 -3.80319E+03 -1.43129E+03 -1.66708E+04  3.53011E+03 -5.98879E+03
  7.09652E+03 -3.98361E+03  1.77088E+04  4.94154E+03  2.92286E+03  3.27071E+03  4.55574E+03  4.54921E+03
  4.72450E+03  7.66757E+03  2.62718E+03  4.16438E+03  8.03013E+03  1.03032E+04  6.26254E+03  1.15553E+04
 -1.05469E+03  1.41953E+04 -1.18916E+04  1.29995E+04 -2.04379E+04  1.68085E+03 -2.66395E+04 -3.62145E+03
 -1.02086E+04 -1.53314E+04  4.95949E+03 -2.04114E+04  9.99876E+03 -9.82750E+03  1.20325E+04 -8.94068E+03
  3.34796E+03  1.41812E+04  1.67858E+03  4.61656E+03 -9.29512E+03  6.45805E+03 -1.05826E+04  2.77196E+03
 -5.79473E+02 -2.43733E+03  1.22933E+03 -1.20693E+04  5.17586E+03 -1.68687E+03  9.24734E+03 -7.96165E+02
  4.88885E+03 -9.48045E+02  6.20757E+02  7.64713E+02 -1.18480E+03  8.09323E+03  8.13641E+03  1.32210E+03
 -1.24703E+03 -3.60804E+03  1.66493E+03  4.39721E+03  9.33971E+03  1.98900E+03 -2.88149E+03  6.88040E+03
 -1.63059E+04  1.37264E+04 -1.14475E+04  8.04649E+03 -1.57319E+04  1.33318E+03 -4.71090E+03 -2.64467E+03
  1.92804E+03 -9.48344E+03  1.06737E+04 -9.17993E+02  2.70045E+03  6.03522E+03  1.47925E+03  3.42544E+03
 -8.29104E+03  4.62654E+02 -5.84994E+03 -8.96814E+03 -5.36068E+03 -1.42714E+04  7.06253E+03 -4.23840E+03
  6.09358E+03 -7.93334E+03  7.81911E+03  4.46438E+03  4.84678E+03  4.10341E+03  1.74594E+03  8.88912E+03
 -6.36863E+03  6.66997E+03 -2.03267E+03 -3.82108E+03 -1.91742E+03 -9.11350E+03  9.25461E+03 -7.83605E+02
  7.56104E+03  1.95276E+03  5.29846E+03  9.01464E+03  3.25418E+03  1.21291E+04 -1.20542E+03  1.20061E+04
 -8.44170E+03 -2.15227E+03 -8.32797E+03  1.73907E+03 -3.83194E+03 -8.66464E+03  4.91540E+03 -4.25362E+03
  8.46356E+03  4.65821E+03  6.34234E+03  3.54012E+03 -2.93708E+03  1.62927E+04  3.09951E+03  6.79366E+03
 -8.99527E+02  1.66705E+02 -4.34391E+03  1.42076E+02 -5.69421E+03 -6.07566E+03  4.73030E+03 -1.87811E+03
  6.86877E+02  1.07773E+04 -1.05307E+04  2.35351E+03 -1.34715E+04  1.59385E+03 -2.03846E+04 -1.39185E+04
 -9.94435E+03 -1.37955E+04 -3.52203E+03 -1.81006E+04  1.14642E+04 -1.18053E+04  1.67589E+04 -7.40138E+03
  1.25934E+04 -3.93633E+03  9.36559E+03  5.44439E+03 -8.69767E+03  1.77137E+04 -8.94008E+03  9.81278E+03
 -3.43798E+03 -9.56158E+03 -1.34223E+03 -3.13877E+03 -2.26422E+03  1.70895E+03  3.37787E+03  1.96357E+03
 -1.74463E+03 -1.84990E+03 -6.67181E+03  6.18075E+03  9.08864E+02 -3.41441E+03  6.15697E+03 -4.00499E+03
  8.41468E+03 -3.21824E+03  5.54302E+03  6.15593E+03  1.01463E+04  9.73555E+03 -1.66402E+02  1.23393E+04
  1.23853E+03  1.86219E+04 -8.04789E+03  1.32441E+04 -9.10318E+03  2.94783E+03 -1.43541E+04 -9.50509E+03
 -9.27748E+03 -1.67082E+04  6.95033E+03 -1.20116E+04  6.17216E+03 -1.00340E+03  1.39815E+03  3.15389E+03
  5.58647E+03  7.59605E+03  1.65605E+01  4.48846E+03 -4.74236E+03  6.19129E+02  3.03461E+03 -4.10421E+03
  4.73050E+03 -3.69412E+03  4.77092E+03 -1.03360E+03 -6.43850E+02  4.41622E+02  3.03549E+03  7.72215E+03
 -2.80151E+03  4.68363E+03 -3.56938E+03 -2.27791E+03 -6.20348E+03 -4.02285E+03  1.14446E+03 -1.28766E+04
  7.40519E+03 -1.79074E+03  6.57025E+03 -8.37139E+03  1.54584E+04  3.42558E+03  3.32944E+03  1.67736E+04
  1.53025E+03  8.75774E+03 -6.17884E+03  1.70073E+03 -1.99811E+03  8.55032E+03 -9.25190E+03 -2.12017E+03
  1.68123E+03  4.21592E+03  1.60236E+03  3.38865E+03 -3.36322E+03  5.09246E+03 -9.34528E+03  1.82203E+03
 -5.60858E+03  2.25253E+03 -2.16696E+03 -8.58036E+03 -1.44660E+03 -1.02174E+04  1.38198E+04 -8.33218E+03
  1.69000E+04 -2.48256E+02  8.11726E+03  2.75369E+03 -5.56118E+03  1.29781E+04 -9.62348E+03  1.01447E+03
