 $NMID ID='MM_0lb_SNR50_16hz_g60_12.RAW', FMTDAT='(8E13.5)'
 TRAMP=1., VOLUME=1. $END
  3.11634E+05 -2.92572E+03  3.38514E+05  2.49891E+05  8.36301E+04  3.37261E+05 -1.34945E+05  2.52017E+05
 -1.87118E+05  8.07167E+04 -1.16252E+05 -2.90287E+04 -2.70442E+03 -5.21095E+04  5.36355E+04 -1.42595E+02
  3.53761E+04  5.05932E+04 -1.75350E+04  7.80227E+04 -6.13535E+04  6.31001E+04 -8.05840E+04  3.13553E+04
 -8.31186E+04 -1.03181E+04 -5.93600E+04 -4.93094E+04 -1.48287E+04 -7.27250E+04  2.56952E+04 -4.54641E+04
  4.11709E+04  6.87299E+02  1.47573E+04  4.71533E+04 -3.31891E+04  5.06527E+04 -6.57343E+04  3.27338E+03
 -5.32016E+04 -5.66884E+04 -5.21187E+03 -7.56655E+04  3.71099E+04 -5.64337E+04  4.80935E+04 -1.37426E+04
  4.56068E+04  1.40393E+04  3.08790E+04  2.63586E+04  1.35808E+04  2.61061E+04 -5.76971E+02  2.44968E+04
 -2.31540E+04  8.92526E+03 -2.06590E+04 -4.20129E+03  6.83173E+03 -8.48908E+03  1.81452E+04  1.69222E+04
  3.98635E+03  3.54078E+04 -3.08347E+04  3.59651E+04 -6.17714E+04  5.77750E+03 -5.23733E+04 -4.47795E+04
 -1.30404E+04 -5.97304E+04  3.77775E+04 -4.21312E+04  5.55725E+04 -7.44563E+02  3.36724E+04  2.97618E+04
 -8.03570E+03  3.80310E+04 -3.08907E+04  1.34639E+04 -2.90332E+04 -2.99184E+03 -1.78380E+04 -1.30339E+04
 -1.06759E+04 -1.11924E+04 -2.95487E+03 -1.69829E+04  6.50347E+03 -2.26847E+04  1.44190E+04 -1.52221E+04
  1.17089E+04  3.27291E+03 -9.17636E+03  1.07242E+04 -2.00786E+04 -2.83728E+03 -1.47328E+04 -3.60907E+04
  2.59420E+04 -4.78684E+04  4.24927E+04 -2.01444E+04  4.66649E+04  1.78787E+04  1.17845E+04  4.49989E+04
 -1.72326E+04  3.10916E+04 -2.91649E+04  2.99952E+03 -1.14573E+04 -2.39260E+04  2.02649E+04 -3.29140E+04
  4.58870E+04 -8.81717E+03  3.28002E+04  2.48308E+04  1.77862E+04  4.65830E+04 -1.26014E+04  4.96999E+04
 -3.09634E+04  3.10108E+04 -4.08286E+04  1.53548E+04 -4.22776E+04 -1.61634E+04 -2.03624E+04 -3.19676E+04
  5.43368E+03 -3.65558E+04  2.81126E+04 -1.15914E+04  2.70809E+04  1.74277E+04  3.74201E+03  1.90171E+04
 -1.02291E+04  7.72275E+03 -1.08697E+04 -3.97014E+03  5.83750E+03 -8.44099E+03  1.66725E+04  4.86169E+03
  1.19601E+04  1.76747E+04 -8.84637E+03  2.32588E+04 -1.91281E+04  9.30737E+03 -2.57887E+04 -7.16017E+03
 -2.42364E+04 -1.74825E+04 -1.23154E+04 -1.54649E+04  3.16365E+03 -2.00159E+04  1.06906E+04 -1.51360E+04
  2.46832E+04 -1.45410E+04  3.36294E+04  3.40935E+03  2.36484E+04  1.83628E+04  3.29677E+03  3.43079E+04
 -1.69554E+04  3.01776E+04 -3.00747E+04  9.94741E+03 -2.05031E+04 -8.64750E+03 -1.93944E+03 -1.16459E+04
  5.29144E+03 -1.12011E+03 -6.31173E+03  8.05255E+03 -1.95050E+04  1.90471E+03 -1.54592E+04 -8.46451E+03
 -8.56382E+03 -1.65840E+04  5.00923E+03 -1.73686E+04  1.65960E+04 -1.51799E+04  2.12680E+04 -2.64287E+03
  1.37250E+04  8.75694E+03 -4.91166E+03  1.47014E+04 -1.76075E+04  1.01368E+04 -1.93415E+04 -3.47877E+03
 -9.11836E+03 -1.94522E+04 -3.37840E+03 -2.46027E+04  6.13446E+03 -1.79823E+04  1.79563E+04 -9.28523E+03
  1.64117E+04  2.20623E+03  1.58301E+04  5.43534E+03  3.93990E+03 -1.27119E+03  1.08003E+04 -4.27722E+03
  1.95102E+04  2.30056E+03  2.24170E+04  1.38213E+04  1.27773E+04  3.15318E+04 -3.51602E+03  3.26073E+04
 -2.08783E+04  2.86411E+04 -2.81666E+04  1.91399E+04 -3.41435E+04 -3.22433E+03 -2.76528E+04 -2.05546E+04
 -9.47695E+03 -2.70507E+04  9.82442E+03 -2.89284E+04  2.45151E+04 -1.36189E+04  1.45099E+04  7.09810E+03
  4.77726E+03  1.45434E+04 -8.18308E+03  9.38030E+03 -1.83810E+04  2.95693E+02 -1.06333E+04 -4.74641E+03
  6.04413E+02 -2.10110E+04  9.97287E+03 -6.66535E+03  1.15450E+04  1.98558E+02  4.89714E+03  7.65578E+03
 -7.74084E+03 -7.18523E+02 -6.23894E+03 -3.48704E+03  1.35205E+03 -9.77873E+03  9.49753E+03 -1.78601E+04
  1.39617E+04 -7.29443E+03  1.44280E+04  2.42655E+03  1.29476E+04  1.49375E+04  5.84028E+03  1.63747E+04
 -5.33734E+03  2.22214E+04 -1.08864E+04  9.76755E+03 -1.37255E+04  6.99063E+02 -8.80391E+03 -6.82384E+03
 -8.69118E+03 -5.33722E+03  5.14776E+03 -3.37668E+03 -2.70553E+03  2.48541E+03 -2.63135E+03  6.60347E+03
 -1.02178E+04 -2.07059E+03 -1.13270E+04 -6.80561E+03 -3.06171E+03 -1.57388E+04  1.28555E+03 -1.14793E+04
  1.12528E+04 -4.51923E+03  6.25934E+03 -1.52416E+03  3.29785E+03  3.90714E+03 -6.12961E+02 -2.06859E+03
 -4.86653E+03 -7.16000E+03 -1.65133E+03 -7.90707E+03  5.50153E+03 -1.19530E+04  1.10498E+04 -4.84567E+03
  1.42953E+04  1.59347E+03  1.18050E+04  1.17289E+04  3.55381E+02  1.23646E+04 -3.44986E+03  7.37100E+03
 -8.65723E+03  5.10829E+03  1.37847E+03 -4.88942E+03  3.47500E+03  1.93948E+03  9.21683E+03 -1.41671E+03
  6.96734E+03  5.90066E+03  2.68185E+03  7.34275E+03 -3.48249E+03  1.07395E+04 -1.07034E+04  6.04857E+03
 -3.65082E+03 -5.40202E+03  1.96731E+03 -1.30231E+04  2.19311E+03  1.61766E+03  5.66744E+03  1.95201E+03
 -9.95692E+02  7.78352E+03 -5.75684E+03  7.14965E+03 -6.47984E+03  2.44558E+03 -6.48707E+03 -2.18643E+03
 -4.77933E+03 -7.55109E+03 -1.02474E+03 -1.17055E+04  8.21064E+03 -6.79920E+03  1.18654E+04  3.80574E+03
  3.72110E+03  8.83780E+03 -5.64527E+03  1.19813E+04 -9.09164E+03  7.72059E+03 -4.02287E+03 -1.94319E+03
 -9.89274E+03 -1.05320E+04 -1.98286E+03 -6.91789E+03  2.73528E+03 -5.02707E+03  4.02089E+03 -2.31070E+03
  4.46027E+03 -6.33177E+02 -3.18613E+03  3.51345E+03  1.41402E+03 -2.55367E+03  2.58559E+03 -1.28394E+03
  7.04316E+03 -5.61782E+03  8.23205E+03  2.51932E+03  7.95478E+03  6.21703E+03  3.44091E+03  1.19411E+04
 -2.62383E+03  1.00129E+04 -1.40227E+04  1.21272E+04 -1.56323E+04  2.66726E+03 -1.06713E+04 -5.19476E+03
 -1.88837E+03 -6.50682E+03 -4.44425E+02 -5.09436E+03  3.64432E+03 -3.50751E+03  4.16087E+03 -2.70631E+03
  4.85202E+03 -4.21573E+03  6.40852E+03 -7.28274E+03  5.03611E+03 -7.44115E+02  5.69642E+03  7.32588E+02
 -3.77096E+02  3.11837E+03 -9.35846E+02  9.39281E+03  7.41196E+02  6.14745E+03 -4.64480E+03  2.41726E+03
 -4.91230E+03 -4.00799E+02  1.55323E+03 -2.28091E+03 -3.50661E+03 -8.37733E+03  3.45169E+03 -3.32467E+03
  1.27790E+04 -3.61897E+03  7.15949E+03  6.19301E+02  7.44393E+03  6.24664E+03  2.66161E+03  1.09764E+04
 -3.88153E+03  4.72327E+03 -7.07195E+03  1.34791E+03 -2.11187E+03 -1.82247E+03 -5.81722E+03 -5.77438E+02
 -1.82351E+03  1.19927E+03  8.70313E+02 -8.85440E+02  2.21563E+02 -2.54140E+03 -7.68967E+03 -1.89730E+03
 -4.62388E+02 -7.53550E+03 -4.47558E+01 -7.27342E+03  3.18021E+03 -4.53517E+03  2.43056E+02 -7.07893E+03
  7.31134E+03  9.43669E+02 -1.44971E+02  8.89969E+03 -2.66093E+03  8.90287E+03 -4.99695E+03  3.68780E+03
 -3.04032E+03 -1.04617E+03 -2.95325E+03 -3.29743E+03 -2.09763E+03 -3.46594E+03  2.06384E+03 -7.82401E+03
  2.46773E+03  1.72548E+03  1.86621E+03  3.76292E+03 -5.92361E+03  3.46878E+03  1.52491E+03  1.32758E+03
  2.71247E+03  4.87395E+03  4.57215E+03  2.62485E+03 -3.27346E+02  3.26959E+03  2.13679E+03  7.72660E+02
 -2.79847E+03  1.80292E+03 -3.47703E+02  6.87509E+03 -6.21465E+03  2.74093E+03 -9.84629E+03 -2.36508E+03
  7.69366E+02 -4.74663E+03  4.19737E+02 -3.12288E+03  3.51137E+03 -3.93454E+03  7.39968E+03 -3.24611E+03
  2.94060E+03  1.29910E+03  2.00079E+03 -1.13831E+02  2.51886E+03 -1.42055E+03  4.53894E+02 -2.79429E+02
 -7.79415E+02 -3.01126E+03 -6.39147E+00 -1.71359E+03  4.77520E+03 -1.70197E+03  4.68761E+03  4.39399E+03
  2.63386E+03  1.99995E+03  1.27753E+03 -1.85009E+03  1.83774E+03  3.84113E+03  2.02092E+03  6.50520E+03
  8.48422E+02  5.49428E+01  3.17091E+03 -8.39772E+02 -1.16466E+03  3.30084E+03 -4.58553E+03  6.62800E+03
  3.49748E+03 -1.31066E+03 -3.35401E+03  3.95344E+03 -1.55409E+03 -1.93568E+03 -1.70628E+03  1.32833E+03
 -5.76562E+03 -7.30232E+03 -8.23240E+02 -3.28239E+02 -3.91648E+02  1.12738E+03 -1.79323E+03 -2.49191E+03
 -6.72830E+03  4.99631E+03 -1.02896E+03 -1.62609E+03 -9.35964E+01  9.78972E+02  1.27040E+03 -3.46189E+03
 -1.56376E+02  5.06704E+03 -5.57204E+03  4.28766E+03 -1.67356E+03  6.83582E+02 -1.77836E+03 -3.91150E+03
  3.52259E+03 -3.59351E+03  1.75145E+02  1.33999E+03 -3.54116E+03 -3.26185E+03  2.91809E+03 -2.07126E+03
 -2.40702E+03 -2.25149E+03  3.62567E+03 -1.96884E+02 -3.00865E+01  5.47056E+03 -3.62848E+03  5.18982E+03
 -2.28395E+03 -2.81859E+03 -1.96245E+03  4.38227E+02 -1.82637E+03 -2.64862E+02  1.60234E+03  2.49727E+02
  4.08181E+03 -1.20711E+03  6.10451E+03 -3.66388E+01 -2.10496E+03  2.46685E+03  3.47175E+03  5.19920E+02
 -1.03243E+03  7.32783E+02  1.83576E+02 -3.67674E+03  5.17048E+02  2.14467E+03 -1.76215E+03  1.17534E+03
 -3.65399E+02  3.19596E+03 -4.76591E+03  1.47598E+03 -4.95650E+03 -1.71927E+03 -3.08281E+03 -1.81038E+03
 -1.51227E+03 -5.22859E+03  9.95431E+02 -1.67698E+03  5.23311E+03 -2.41508E+03  8.01191E+03  3.03519E+02
  6.75463E+03  1.04345E+03 -3.65785E+03  5.38650E+03  2.20393E+03  2.04147E+03 -5.42380E+03 -4.57341E+02
 -1.38909E+03 -2.44339E+03 -1.52719E+03 -9.08768E+01 -9.66791E+02 -2.63797E+03 -2.74720E+03 -2.60247E+03
  1.25430E+03  9.09665E+02  1.97205E+03  2.90787E+03 -4.38298E+03 -1.80534E+03  6.46989E+03 -3.55496E+03
  7.22186E+03 -2.37374E+03  3.25207E+02  2.28203E+03  4.14842E+03  1.28920E+03  8.77477E+01 -4.11239E+02
 -1.20795E+03  6.81300E+03 -1.52492E+03  6.63356E+03 -4.78326E+03 -6.67746E+02 -3.29397E+03 -3.82104E+02
 -3.61983E+03 -5.68941E+03 -3.11206E+03 -8.22885E+03 -3.34282E+03 -2.49937E+03  4.63924E+03 -6.78908E+01
  3.79659E+03 -1.05401E+03  2.12291E+03  9.88465E+02 -2.16213E+03  4.44642E+03  2.93675E+02  4.92048E+03
  2.42058E+03 -2.71930E+03 -1.27375E+03 -7.19052E+02  1.56306E+03  1.44121E+03 -3.25231E+03  4.11462E+02
  1.09054E+03 -1.54648E+03 -1.92100E+03 -1.14370E+03  1.09354E+03 -4.99367E+03 -5.19712E+03  1.02565E+03
 -2.49191E+03 -1.64292E+03  6.77995E+03  3.22399E+03 -2.61651E+03  2.74803E+03 -6.25610E+03  2.88743E+03
  4.28454E+02 -1.89436E+03  4.97556E+03  3.77495E+03 -7.62938E+02  2.51915E+03 -3.86676E+03 -1.91628E+03
 -2.15589E+03  1.30522E+03  5.75714E+03  3.30432E+02 -2.19712E+03  3.66127E+03  1.32451E+03  1.65125E+03
 -5.63424E+02  1.11984E+03 -5.90105E+03  2.62422E+03  5.35744E+03 -2.94603E+03 -4.13970E+03  8.70060E+02
  2.98058E+03 -3.54169E+02 -4.13312E+03 -2.58084E+03 -2.64783E+03  7.87817E+02 -1.36105E+03 -5.60680E-01
