 $NMID ID='MM_0lb_SNR50_15hz_g50_19.RAW', FMTDAT='(8E13.5)'
 TRAMP=1., VOLUME=1. $END
  3.06527E+05  6.88508E+02  3.36153E+05  2.50999E+05  8.41102E+04  3.34171E+05 -1.34837E+05  2.50791E+05
 -1.89323E+05  8.36963E+04 -1.07291E+05 -3.21136E+04  5.19300E+03 -4.87341E+04  5.19244E+04  6.21011E+03
  3.59445E+04  5.27530E+04 -1.88313E+04  7.62497E+04 -5.67139E+04  6.24483E+04 -8.42619E+04  2.85208E+04
 -8.24983E+04 -9.96640E+03 -5.81764E+04 -4.90703E+04 -1.80527E+04 -6.92960E+04  2.90750E+04 -4.64579E+04
  3.99313E+04  5.50510E+03  1.26777E+04  5.03688E+04 -3.45526E+04  4.85714E+04 -6.94353E+04 -1.11850E+03
 -5.36863E+04 -5.48687E+04 -8.01090E+03 -7.79355E+04  3.28585E+04 -5.57109E+04  4.70399E+04 -1.58667E+04
  4.42208E+04  1.13808E+04  3.25176E+04  2.74200E+04  1.72005E+04  3.32242E+04 -7.95601E+03  2.45968E+04
 -1.65942E+04  1.37197E+04 -2.01906E+04 -2.91188E+03  8.99521E+03 -1.15397E+04  2.12756E+04  1.20097E+04
  4.00909E+03  3.26189E+04 -3.65073E+04  3.22277E+04 -6.27847E+04  6.34915E+03 -6.10889E+04 -4.48466E+04
 -1.34471E+04 -5.92751E+04  4.07409E+04 -4.09838E+04  5.94049E+04 -3.33454E+03  3.86621E+04  3.47828E+04
 -5.02089E+03  3.62566E+04 -3.09074E+04  1.30345E+04 -3.90466E+04 -7.42205E+03 -1.24296E+04 -1.47110E+04
 -1.25573E+04 -1.21231E+04 -2.87006E+03 -1.75195E+04  1.02355E+04 -1.92625E+04  1.94020E+04 -1.25155E+04
  1.45319E+04  4.94184E+03 -3.37560E+03  1.24445E+04 -2.19668E+04 -7.21594E+01 -1.02280E+04 -3.56615E+04
  1.94657E+04 -4.35926E+04  4.93768E+04 -2.08770E+04  4.72680E+04  1.92869E+04  1.74453E+04  4.58845E+04
 -1.23618E+04  3.83679E+04 -2.05177E+04  2.87188E+03 -8.07917E+03 -3.04268E+04  2.06142E+04 -2.88348E+04
  3.92332E+04 -9.09496E+03  3.46529E+04  2.38286E+04  1.49430E+04  3.92756E+04 -8.53678E+03  5.28449E+04
 -3.29076E+04  3.61807E+04 -4.15767E+04  9.26429E+03 -3.86940E+04 -1.27383E+04 -2.15962E+04 -3.05361E+04
  8.02507E+03 -3.42828E+04  2.70570E+04 -1.42171E+04  2.72408E+04  9.86856E+03  7.51673E+03  1.83767E+04
 -1.06642E+04  6.94429E+03 -1.36484E+04 -1.60142E+04  1.07525E+04 -4.14511E+03  1.78744E+04  6.52609E+03
  1.35669E+04  2.35866E+04 -3.10212E+03  2.66441E+04 -2.06261E+04  1.21764E+04 -2.76853E+04  5.56856E+02
 -1.84979E+04 -1.80095E+04 -9.29562E+03 -2.00007E+04  2.35426E+03 -2.19395E+04  1.39866E+04 -1.29756E+04
  2.51363E+04 -1.44829E+04  3.67606E+04  6.39582E+03  1.91674E+04  1.65516E+04  4.38175E+03  3.47280E+04
 -2.13125E+04  3.04661E+04 -2.86619E+04  6.93792E+03 -1.70859E+04 -9.67335E+03 -6.35033E+03 -1.66783E+04
 -2.09012E+03 -6.34721E+03 -5.65675E+03  1.04245E+04 -1.38219E+04  9.12775E+03 -1.49093E+04 -8.74746E+03
 -8.06545E+03 -2.04549E+04 -1.18894E+03 -2.09219E+04  1.45018E+04 -1.64127E+04  1.52567E+04  3.80190E+03
  8.40361E+03  9.07068E+03 -2.15349E+00  1.60678E+04 -1.42233E+04  1.41783E+04 -1.79784E+04 -7.41824E+03
 -1.47338E+04 -2.11312E+04  5.77075E+02 -1.82759E+04  9.36486E+03 -1.77288E+04  2.03919E+04 -4.83660E+03
  1.23632E+04  3.11658E+03  1.30578E+04  6.38054E+03  7.57014E+03 -4.94597E+03  4.73662E+03 -2.55241E+03
  1.44528E+04  5.97076E+03  1.52712E+04  1.25854E+04  8.61434E+03  3.48122E+04 -1.80490E+03  3.57767E+04
 -2.22028E+04  2.80881E+04 -3.21620E+04  1.51570E+04 -3.54533E+04 -4.30836E+01 -2.66396E+04 -1.92927E+04
 -8.51184E+03 -2.84446E+04  1.28865E+04 -2.02622E+04  2.61830E+04 -1.09443E+04  1.88282E+04  4.27085E+03
  5.70679E+03  1.08217E+04 -7.64696E+03  1.09553E+04 -1.98863E+04  5.17573E+03 -1.24688E+04 -8.71959E+03
  2.31961E+03 -1.14556E+04  7.59207E+03 -1.62822E+04  8.68878E+03 -1.73418E+03  4.66262E+03  7.14016E+03
 -3.87640E+03  2.76166E+03 -2.71562E+03 -4.76211E+03 -5.24442E+03 -1.23185E+04  8.92765E+03 -1.45208E+04
  1.12694E+04 -4.18827E+03  1.77667E+04  3.65134E+03  1.49056E+04  1.07288E+04  7.65270E+03  2.13785E+04
 -6.02457E+03  1.99905E+04 -1.57446E+04  1.09632E+04 -2.05307E+04  7.78478E+02 -1.45918E+04 -6.87148E+03
 -6.94276E+03  2.37602E+03  5.23025E+02  1.70605E+03 -2.68289E+03  4.25783E+03 -6.85392E+03  3.93062E+03
 -1.32688E+04 -9.70758E+02 -9.48660E+03 -1.04115E+04 -4.75193E+03 -1.68275E+04  7.49570E+03 -1.09447E+04
  1.28773E+04 -9.19070E+03  1.12057E+04  4.99102E+03 -2.00144E+03 -5.75441E+02 -4.72817E+03  2.38080E+03
 -1.95776E+03 -7.49701E+03 -9.64609E+02 -1.47730E+04  1.23110E+04 -6.72029E+03  1.06723E+04 -4.27422E+03
  1.60805E+04  3.57213E+03  8.74978E+03  8.37304E+03  2.68439E+03  1.50319E+04 -2.30870E+03  6.62341E+03
 -1.22360E+04  5.57272E+03 -7.93782E+03 -3.22864E+03 -7.17068E+02 -4.00128E+03  9.26878E+03  7.96775E+02
  8.60675E+03  4.70893E+03 -2.26046E+03  1.02313E+04 -2.48857E+03  1.99249E+03 -5.86863E+03 -2.79601E+02
 -5.95279E+03 -6.37308E+03  1.35113E+03 -7.85084E+03  7.26615E+03 -4.64200E+03  5.56410E+03  1.68059E+03
 -4.93811E+03  6.85899E+03 -6.36522E+03  8.58878E+03 -9.00134E+03 -1.44048E+03 -8.56976E+03 -7.26593E+02
 -4.21000E+03 -5.78214E+03 -1.00203E+02 -1.57394E+04  9.00695E+03 -8.62209E+03  1.45055E+04  1.94798E+03
  8.32101E+03  1.14979E+04 -4.24038E+03  8.58298E+03 -6.25855E+03  4.04316E+03 -8.59431E+03  2.92146E+03
 -6.35454E+03 -7.60723E+03 -3.62182E+03 -4.44533E+03 -3.70504E+03 -4.73683E+03  6.22347E+03 -4.62713E+03
  5.69126E+03 -1.42982E+03 -3.12715E+03 -5.12442E+02  1.41030E+02 -5.61062E+03  3.48943E+03 -1.61215E+03
  8.77041E+03  6.23627E+02  1.14097E+04 -7.07034E+02  6.50677E+03  8.10183E+03  6.67521E+03  8.75868E+03
 -4.60832E+03  2.01969E+04 -1.32349E+04  1.21791E+04 -1.40554E+04  5.53291E+03 -1.12363E+04 -2.80140E+03
 -4.40332E+03 -9.94291E+03  8.60067E+02 -7.17912E+03 -1.33592E+03 -2.92093E+03  2.05989E+03 -4.94430E+03
  3.44698E+03 -7.73178E+03  3.43269E+03 -4.29596E+03  2.51231E+03 -3.04276E+03  4.28894E+03 -5.98980E+02
  7.98031E+03 -4.19305E+03  4.39597E+03  8.14440E+03 -4.12824E+03  4.57227E+03 -4.71376E+03  3.98593E+03
 -4.28432E+03 -4.67942E+03 -8.89067E+03 -4.69544E+03 -3.49132E+03 -1.10850E+04  4.33629E+03 -1.15128E+04
  1.24206E+04 -1.09205E+04  4.62314E+03  1.90308E+03  7.24964E+03  5.22492E+03 -1.13339E+03  1.41362E+04
 -4.04986E+03  5.98050E+03 -7.22802E+03  1.68183E+03 -3.63866E+03  6.55990E+02  2.44028E+03 -1.20844E+03
 -1.34486E+03 -1.89348E+03  1.44376E+03 -1.54005E+03 -3.31176E+03  1.83681E+02 -1.02706E+04 -3.22760E+03
 -8.17699E+03 -4.76636E+03  7.72065E+02 -4.84684E+03  5.46276E+03 -6.68599E+03  7.52057E+03 -8.09691E+03
  5.34409E+03  5.30665E+03  4.61623E+03  2.80212E+03 -5.99161E+03  7.20931E+03 -9.07543E+03  9.60709E+03
 -6.21382E+03 -2.45474E+03 -3.04622E+03 -1.08811E+03 -3.75121E+03 -6.66712E+03  7.91335E+03 -5.65249E+03
  4.87354E+03 -5.62167E+02 -2.61237E+02  2.05553E+03  2.49504E+03 -1.31076E+03  7.16592E+02 -1.16949E+03
  2.84161E+03  5.90280E+03  3.22421E+03  3.48134E+03  6.55697E+03  2.24010E+03  5.59910E+03  3.26160E+03
 -4.01787E+03  5.09386E+03 -6.19137E+03  9.17987E+02 -7.33495E+03 -1.05981E+03 -6.17495E+03 -2.47494E+03
 -6.21239E+03 -8.70285E+03 -1.12110E+03 -9.78201E+03  1.91849E+03 -9.89616E+03  4.08444E+03  2.40597E+02
  4.79297E+03 -1.81376E+03 -2.61652E+03  1.79126E+03  1.11639E+03  4.77801E+03 -1.57922E+03  3.68677E+03
 -5.94595E+02 -5.38436E+03  2.50444E+02 -3.52665E+02  3.26847E+03 -3.46563E+03  9.11937E+02  8.16424E+02
 -8.94338E+02  2.45331E+03  6.26595E+03 -1.26322E+03 -5.62237E+01 -1.42905E+03  7.17041E+02 -1.13124E+03
  7.82787E+02 -5.06499E+03  2.95661E+03  2.36467E+03 -1.44491E+03  4.95801E+03  1.64653E+03  5.22233E+03
 -3.57958E+03  6.30938E+03 -6.53304E+03  1.15688E+03 -3.72894E+03 -2.59111E+03 -6.00591E+03 -2.89818E+02
  4.22511E+02 -3.95060E+03  1.16407E+03 -2.38257E+03  1.77140E+03  3.68655E+03 -2.12327E+03  1.79842E+03
 -4.01593E+03  2.01676E+02 -2.16869E+03 -5.10716E+03 -1.79944E+02 -1.79967E+03  3.45124E+03 -3.46659E+03
  3.34040E+03  1.72709E+03  2.52872E+03 -1.60931E+03  4.33502E+03 -8.87580E+02 -4.09939E+03  6.03698E+03
 -2.22557E+03  2.12059E+03 -5.66167E+03 -1.57925E+03  3.87305E+03 -7.93229E+02  4.45221E+03 -6.24382E+02
  1.05328E+04  4.05581E+03  6.40299E+03  3.25968E+03  2.36057E+03  7.99436E+02 -2.86349E+03  3.38684E+03
 -5.17165E+03  4.39529E+02 -1.46771E+03 -7.43201E+03  1.83264E+03  2.59786E+03 -1.85388E+03 -3.61029E+03
 -6.53349E+02  3.86156E+01  3.17855E+03  2.47462E+03 -1.02414E+03  9.54386E+03 -9.97757E+02  4.16027E+03
  2.24330E+03  8.94503E+02  4.77337E+02  1.41861E+03 -3.38774E+03  6.51927E+03  1.43130E+03 -1.51768E+03
 -7.46388E+03 -2.90749E+03  4.64247E+02 -4.85496E+03 -2.64380E+03 -1.43582E+01 -3.74284E+03 -6.14451E+02
 -2.50343E+03 -8.73409E+03  1.61709E+02 -8.49313E+03  2.95643E+03 -6.23381E+03  6.51192E+03 -4.01282E+03
  4.56627E+03 -2.89529E+03  1.81695E+03  2.73944E+03 -1.28928E+03 -4.46626E+02 -1.78095E+03  3.04125E+03
  5.60512E+02  6.12182E+01  2.58942E+03  5.44377E+03 -2.35146E+03  2.04527E+03 -9.84672E+02  3.34813E+03
  1.74709E+03 -1.01471E+03  1.84982E+01  1.43329E+03 -8.76737E+03  1.04816E+03 -2.77703E+03 -2.89430E+02
  6.39237E+03 -3.69261E+03  1.34369E+02 -8.22234E+02  2.14764E+01  1.26950E+03  2.18190E+03  5.09964E+03
 -6.00995E+03  2.95509E+03 -4.16797E+03  6.24431E+03 -4.59482E+03  1.72515E+03 -3.24783E+03 -3.26019E+03
 -3.52565E+03 -4.18750E+03 -1.17017E+03 -3.03297E+03  2.56748E+03 -3.06006E+03  4.42007E+03  2.29331E+03
 -2.54231E+03  2.95599E+03  1.34119E+03  1.58236E+03 -2.35989E+03 -4.54939E+03 -1.23234E+03 -1.79388E+03
  1.03023E+03 -5.48724E+02  1.11046E+02 -3.06085E+03  1.71594E+03  1.25601E+03 -6.11796E+01  3.76999E+03
 -4.26585E+03  9.28520E+02 -2.32778E+03  2.66389E+03 -2.54685E+03  3.29928E+02  5.13394E+02  3.38723E+03
  3.58738E+03 -2.92424E+03 -2.49646E+03  3.80053E+02  3.84590E+03 -1.58161E+03 -8.11901E+02 -2.96022E+03
  1.91387E+03 -8.48883E+02 -4.48741E+03  6.66761E+02 -1.61197E+03  3.96262E+03 -3.18269E+03  2.88430E+02
  1.82318E+03 -1.57243E+03 -4.31742E+03 -2.05052E+03  4.39581E+02 -3.19351E+03  4.88265E+02 -9.83152E+02
 -2.23289E+02 -2.47048E+03  1.94724E+03 -8.86460E+03  5.02587E+03  2.04822E+03 -1.37948E+03  8.27040E+02
  4.89924E+03 -2.49121E+01 -8.68227E+02  3.53693E+03 -3.51076E+03  1.73336E+03 -7.42777E+02  1.59959E+03
