 $NMID ID='MM_0lb_SNR50_18hz_g60_26.RAW', FMTDAT='(8E13.5)'
 TRAMP=1., VOLUME=1. $END
  3.12036E+05  4.00594E+03  3.36713E+05  2.48691E+05  8.63365E+04  3.36899E+05 -1.31460E+05  2.54357E+05
 -1.87720E+05  8.59561E+04 -1.09855E+05 -3.07162E+04 -9.68518E+02 -4.85491E+04  5.42815E+04  1.64096E+03
  3.52957E+04  5.40715E+04 -1.47691E+04  8.33112E+04 -6.32815E+04  6.56723E+04 -8.09044E+04  3.40782E+04
 -8.02629E+04 -1.21029E+04 -5.39937E+04 -5.05555E+04 -1.94765E+04 -6.87409E+04  2.68873E+04 -4.77296E+04
  3.83271E+04  1.18117E+03  2.22905E+04  4.85702E+04 -3.27461E+04  4.64950E+04 -6.92724E+04  2.87340E+03
 -5.23071E+04 -5.43955E+04 -1.20996E+04 -7.42076E+04  3.24812E+04 -4.70549E+04  4.73392E+04 -1.39288E+04
  4.62050E+04  9.58379E+03  2.92290E+04  2.40783E+04  1.63580E+04  2.80046E+04 -5.06548E+03  2.81556E+04
 -2.44582E+04  1.12483E+04 -1.70127E+04  3.20413E+02  3.91213E+03 -9.31151E+03  1.83327E+04  1.10465E+04
  7.18162E+03  3.29433E+04 -3.36760E+04  3.50526E+04 -6.73563E+04  1.50003E+03 -5.48616E+04 -4.18831E+04
 -8.07401E+03 -6.59032E+04  3.73974E+04 -4.20495E+04  5.88763E+04 -4.61953E+03  3.53816E+04  2.84664E+04
 -7.66758E+03  3.45302E+04 -2.87530E+04  1.24279E+04 -2.84524E+04 -4.59694E+03 -1.26115E+04 -1.13221E+04
 -5.17432E+03 -1.14885E+04 -4.25264E+03 -1.44384E+04  9.50705E+03 -2.41643E+04  1.46912E+04 -1.16685E+04
  1.16497E+04  4.00241E+03 -5.94314E+03  1.28709E+04 -2.08455E+04 -4.89631E+03 -3.48111E+03 -3.33216E+04
  2.14778E+04 -4.10834E+04  4.80260E+04 -1.88708E+04  4.95727E+04  1.74278E+04  1.35981E+04  4.62750E+04
 -1.62284E+04  3.35440E+04 -2.49481E+04  1.13793E+03 -1.26423E+04 -2.61068E+04  2.01131E+04 -3.26088E+04
  4.19552E+04 -9.76712E+03  3.76292E+04  2.88498E+04  1.49174E+04  4.26399E+04 -6.90510E+03  4.89815E+04
 -2.88977E+04  3.55292E+04 -3.84998E+04  8.71342E+03 -3.69075E+04 -1.65007E+04 -2.28152E+04 -4.04077E+04
  9.07367E+03 -3.88544E+04  3.32487E+04 -1.72286E+04  2.83471E+04  1.19554E+04  1.49815E+03  2.41770E+04
 -1.15485E+04  1.15099E+04 -8.88067E+03 -1.12557E+04  2.28393E+03 -1.62250E+04  1.83084E+04  7.39336E+03
  1.04678E+04  2.17386E+04 -7.69132E+03  2.33024E+04 -1.82409E+04  1.24757E+04 -2.71629E+04 -2.70184E+03
 -2.22868E+04 -1.31965E+04 -3.13091E+03 -2.11474E+04  8.10875E+03 -1.72037E+04  1.72646E+04 -1.52607E+04
  2.81367E+04 -1.29944E+04  3.06843E+04 -9.06597E+02  2.08384E+04  1.79518E+04  4.25920E+03  3.76082E+04
 -1.98011E+04  2.44533E+04 -2.53170E+04  9.78108E+03 -1.88732E+04 -1.56741E+04  4.67589E+02 -1.01126E+04
  2.32443E+03 -8.76235E+03 -1.80249E+03  1.08024E+03 -1.24665E+04  4.94611E+03 -1.57742E+04 -3.50732E+03
 -1.75026E+04 -1.82596E+04  4.09110E+03 -2.00858E+04  1.07574E+04 -1.86862E+04  1.46584E+04  1.60179E+03
  1.02783E+04  1.26873E+04 -2.86637E+03  2.10309E+04 -1.19619E+04  1.15793E+04 -1.67140E+04 -3.74076E+03
 -1.35347E+04 -1.67720E+04 -6.34960E+02 -2.48424E+04  8.51675E+03 -1.68812E+04  1.90506E+04 -5.73531E+03
  1.49538E+04 -1.39356E+03  1.13303E+04  4.87974E+03  6.21090E+03 -1.10049E+03  1.06739E+04 -1.32792E+03
  1.60851E+04  6.34227E+03  1.28966E+04  1.74958E+04  1.04800E+04  3.12735E+04 -2.51606E+03  2.91525E+04
 -2.14078E+04  2.68831E+04 -2.77369E+04  1.27522E+04 -3.05166E+04 -3.41876E+03 -2.65843E+04 -2.03348E+04
 -1.04241E+04 -2.13155E+04  7.74725E+03 -2.29492E+04  2.28138E+04 -1.30433E+04  1.89398E+04  3.22131E+03
  4.07418E+03  1.30998E+04 -1.11539E+04  1.61530E+04 -1.29996E+04  2.94139E+03 -1.35001E+04 -9.01622E+03
 -5.02554E+02 -1.45359E+04  1.03623E+04 -8.82623E+03  9.09515E+03 -1.47035E+03  1.84728E+02 -8.31260E+02
 -5.56996E+03 -1.87402E+03 -7.71486E+03 -4.51408E+03  1.78688E+01 -1.31145E+04  5.07263E+03 -8.93840E+03
  1.16998E+04 -3.34410E+03  1.09021E+04  8.75772E+02  9.80659E+03  1.04609E+04  1.00370E+04  1.55265E+04
 -3.18675E+03  1.79373E+04 -1.27459E+04  9.33063E+03 -1.15064E+04  4.61314E+03 -7.88133E+03 -1.26763E+02
 -7.56646E+03 -8.07377E+03 -5.10881E+03  1.32896E+03 -3.71512E+03  6.31549E+03 -2.86343E+03  6.95712E+03
 -9.06847E+03 -4.00293E+02 -7.07209E+03 -7.66970E+03 -5.53252E+03 -1.02333E+04 -2.69848E+02 -1.07353E+04
  1.04976E+04 -8.35227E+02  5.80446E+03  3.63006E+03  5.21056E+02  5.17742E+03 -3.85078E+03 -5.00718E+02
 -8.27330E+03 -1.63534E+03 -3.16675E+02 -6.33222E+03  2.90303E+03 -1.38097E+04  7.76247E+03 -2.75440E+03
  1.28129E+04 -7.66677E+02  1.09166E+04  8.54776E+03  3.68841E+03  1.16137E+04 -3.35647E+03  1.22904E+04
 -5.42226E+03  6.38095E+03 -1.76872E+03 -2.53853E+03  5.84392E+03 -4.67630E+03  8.91663E+03  4.28024E+03
  1.09311E+02  5.28887E+03  3.11561E+03  4.11354E+03 -2.79782E+03  5.10302E+03 -9.87890E+03  4.77412E+03
 -9.06893E+03 -7.24014E+03  2.39654E+03 -9.02967E+03  4.39099E+03 -6.17735E+03  3.92500E+03  1.59867E+03
  1.87288E+03  6.17550E+03 -6.87775E+03  9.27398E+03 -2.43142E+03  5.22874E+03 -7.96733E+03  2.47523E+03
 -6.01488E+03 -8.65484E+03 -7.39394E+02 -6.72460E+03  7.46260E+03 -2.35689E+03  4.84626E+03  2.67764E+03
  7.94715E+03  2.22917E+03 -2.10147E+03  7.66919E+03 -6.32478E+02 -5.33938E+02 -4.31821E+03  4.29844E+03
 -9.66376E+03 -2.37190E+03 -2.71138E+03 -1.94796E+03  2.63419E+02 -8.00378E+03  5.82810E+03 -6.55974E+03
  9.57998E+00 -6.05790E+02  2.68980E+03 -1.14748E+03 -1.23825E+03 -6.72361E+02  3.70017E+03 -2.57009E+03
  8.12807E+03 -1.57420E+03  6.15062E+03  3.13340E+03 -5.77869E+02  4.93539E+03  6.06800E+03  8.55440E+03
  5.67729E+00  1.07037E+04 -1.16116E+04  6.63070E+03 -1.55842E+04  2.43999E+02 -4.90528E+03 -3.20622E+03
 -5.79434E+03 -1.06553E+04 -9.00521E+02 -6.77968E+03 -3.51228E+03 -6.39582E+02  5.68700E+03 -4.67292E+03
  8.42344E+02 -3.04845E+03  2.95847E+03  8.44887E+01  3.29532E+03  1.30479E+03  5.83255E+03 -8.09037E+02
  5.39443E+03  2.97606E+03  1.40328E+03 -4.59472E+02 -2.62917E+03  4.73666E+03 -1.54321E+02  2.23889E+03
 -1.01960E+04  1.95786E+03 -5.14534E+03 -6.42055E+03 -3.62317E+03 -1.53005E+03  5.12043E+03 -1.00471E+04
  5.30574E+03 -3.46679E+03  4.63241E+03 -5.94713E+02  1.02815E+04  8.66270E+03  3.84801E+03  3.66180E+03
 -3.38090E+03  4.32672E+03 -2.46722E+03  3.38473E+03 -1.85610E+03 -1.90966E+03  2.19974E+03 -1.79400E+02
 -2.91479E+03  3.49118E+03  1.26782E+03  3.23340E+03 -6.83173E+02  9.16093E+02 -5.86684E+03  4.88535E+02
 -5.32925E+03 -8.54358E+03  2.22968E+03 -6.37916E+03  5.52732E+03 -3.30508E+03  2.27576E+03  1.18285E+03
  3.11130E+03  1.14749E+03 -3.23092E+01 -1.06520E+03 -2.64008E+03  7.18253E+03 -2.89072E+03  3.49007E+03
 -3.62613E+03  3.05143E+03 -2.74653E+03 -2.14336E+03 -1.81138E+03  3.24511E+02  5.05199E+03 -6.68985E+02
  2.53487E+03  8.78732E+02  5.74247E+02  1.35468E+03 -1.19625E+03  5.00962E+03  2.98121E+03  2.11075E+03
 -2.13267E+03  4.02591E+01  1.91950E+03 -7.55680E+02  1.18952E+03  2.22216E+03  2.96861E+03  1.49778E+03
 -3.59441E+03  7.27532E+02 -3.01237E+03  5.04420E+03 -1.95137E+03  2.82409E+03 -7.02528E+02  1.97850E+03
 -7.91377E+03 -1.87623E+03 -2.04862E+03 -2.00080E+03  3.89793E+03 -4.21062E+03  2.40904E+03 -4.02048E+03
  2.72920E+03  2.79278E+02  6.26941E+03  6.57039E+02 -1.98979E+03  6.74697E+02 -3.15047E+03 -2.73883E+03
 -1.37033E+03  2.79841E+03  5.70484E+03 -9.08365E+03 -4.27451E+02 -2.74793E+02  3.23556E+03 -2.40076E+03
 -2.50272E+03 -1.56109E+03 -1.10010E+03 -7.80308E+02 -2.66619E+03  3.22434E+02  1.93699E+03 -1.99351E+03
  1.30294E+02 -3.04398E+03  4.70430E+03  3.56026E+03  1.15640E+03  2.38134E+03  9.86629E+02 -5.79639E+02
 -2.26885E+03  5.83020E+02 -1.67893E+03  6.00528E+02  2.96453E+03 -9.23441E+02 -2.06147E+03  3.29455E+01
  1.29289E+03 -3.37287E+03  2.20375E+03 -1.44217E+03  1.48359E+03  4.04795E+03 -2.44161E+03  3.53197E+03
 -2.37523E+03  1.43966E+03 -7.68087E+02 -5.45455E+03  2.29114E+03 -9.97380E+02 -4.11972E+02 -3.24543E+03
  2.63425E+03  1.61955E+03  9.07840E+01 -1.35536E+03 -2.34719E+03 -4.77309E+01  1.63252E+03  1.02175E+03
  2.63892E+02 -1.87597E+02 -2.42127E+03 -5.12449E+03 -2.49548E+03 -2.50443E+03  4.11279E+03 -1.26417E+02
 -4.49754E+03  4.04527E+02  2.03380E+03  2.45057E+03  2.63115E+03 -2.59731E+03  5.74624E+02  1.82235E+03
 -1.58979E+03  4.90766E+03 -4.76975E+03 -1.44573E+03 -4.09756E+03 -6.01747E+03 -4.56934E+03 -2.80379E+03
  4.25035E+03 -1.32821E+03 -2.64213E+02  5.52376E+02  8.59710E+02  1.47379E+03  2.62742E+03  3.16697E+03
  1.04876E+03  4.61814E+03  1.80206E+03  4.22325E+03 -1.68921E+03 -1.98764E+03  1.27323E+03 -3.22790E+03
 -2.14280E+03  1.62758E+03  2.71606E+03  3.85793E+02 -2.90331E+03  1.99597E+03  2.79760E+03  2.09631E+03
 -2.71328E+03 -8.29818E+02  1.76552E+02 -5.46299E+03  1.05329E+03 -3.82223E+03  4.38903E+03 -6.23758E+02
  4.08179E+03 -2.79115E+03  5.21379E+03  3.66405E+03 -3.43644E+03  3.74934E+03  1.89546E+03  6.17447E+03
 -1.44100E+03  5.26418E+02 -2.51286E+03 -9.82431E+02  9.74290E+02  2.51368E+03 -1.05230E+03  4.54141E+03
 -1.02722E+03  8.11086E+02 -1.21983E+03  1.63578E+03  1.68883E+03 -1.12201E+03 -3.97667E+02 -6.08850E+03
  3.24815E+03  2.00658E+03  3.85510E+03  1.64429E+03  4.00325E+03  2.28646E+03 -3.55201E+02 -1.14504E+02
  6.05203E+03  1.87300E+03 -4.64993E+03 -1.64577E+03 -6.14383E+03  1.97348E+02 -3.68254E+03 -4.18811E+03
  1.11399E+03 -1.82703E+03 -7.24187E+02  5.30989E+03 -3.10824E+00 -1.43218E+03  5.90537E+02 -1.42470E+03
 -1.61596E+03 -2.61687E+03 -6.60772E+02 -2.62180E+03  6.83983E+02  3.87394E+03 -7.63277E+02 -1.82421E+03
 -1.92535E+03 -4.75814E+03  3.68991E+03 -1.34247E+03 -3.82259E+03  9.66396E+02 -3.29402E+03  7.48444E+02
 -2.71562E+03  1.76826E+03  2.93122E+03 -3.87090E+03 -3.58861E+03 -1.27391E+03 -1.37380E+02  1.02800E+03
 -1.78658E+03 -2.80040E+03 -2.09285E+03  7.60048E+01  1.85143E+03  4.44743E+02  8.48690E+02 -1.34146E+03
 -1.92441E+03 -2.02235E+03  6.05924E+02  1.14056E+03 -4.43871E+03  1.47011E+03  2.40040E+03  1.74000E+03
 -2.46287E+03  2.19362E+03  1.13563E+03 -2.85916E+02 -4.72367E+02 -1.96408E+03 -8.09216E+02  1.13290E+03
 -4.66622E+03  1.92787E+03 -1.44839E+03 -1.47561E+03  1.05697E+02 -2.98021E+03  2.48785E+03 -2.05008E+03
  2.89693E+03  2.54053E+03 -8.35474E+02  3.09085E+03  4.51201E+02  1.15385E+03 -4.39924E+03  8.91411E+02
