 $NMID ID='MM_0lb_SNR50_8hz_g60_64.RAW', FMTDAT='(8E13.5)'
 TRAMP=1., VOLUME=1. $END
  3.06242E+05 -1.05759E+03  3.37809E+05  2.45156E+05  8.61925E+04  3.37969E+05 -1.25333E+05  2.48874E+05
 -1.98315E+05  9.45560E+04 -1.19642E+05 -2.86636E+04 -1.53258E+03 -5.85008E+04  6.18321E+04 -1.74154E+03
  3.97833E+04  4.66798E+04 -1.98488E+04  7.62061E+04 -5.72427E+04  6.87855E+04 -7.89064E+04  2.78721E+04
 -8.38290E+04 -2.14900E+04 -6.26270E+04 -5.12800E+04 -1.88093E+04 -7.53529E+04  2.98728E+04 -4.58435E+04
  4.52357E+04 -1.73183E+03  1.33648E+04  5.00302E+04 -3.41891E+04  4.95497E+04 -7.68350E+04 -2.96803E+03
 -5.56090E+04 -5.63938E+04 -9.42844E+03 -8.26585E+04  3.65179E+04 -5.33209E+04  5.46975E+04 -2.60950E+04
  5.15847E+04  1.49441E+04  3.61685E+04  2.94585E+04  1.90111E+04  3.08952E+04 -2.26908E+03  2.53586E+04
 -2.41820E+04  1.30164E+04 -1.61039E+04 -1.93432E+03  1.48893E+04 -5.61365E+03  2.56600E+04  1.70862E+04
 -5.44705E+02  4.15101E+04 -3.65885E+04  3.75715E+04 -6.41720E+04  1.34234E+03 -6.35413E+04 -4.46948E+04
 -1.93716E+04 -7.30696E+04  4.32462E+04 -4.21658E+04  6.62129E+04  5.24216E+02  3.51283E+04  4.05150E+04
 -6.35101E+03  4.42572E+04 -3.48234E+04  1.54795E+04 -3.60185E+04 -1.30106E+03 -1.34115E+04 -1.64189E+04
 -5.60072E+03 -5.78808E+03  7.33146E+02 -1.93427E+04  2.05898E+03 -2.20732E+04  1.41302E+04 -1.32447E+04
  7.00722E+03  1.24027E+03 -1.53106E+04  7.58852E+03 -2.87200E+04 -1.45319E+03 -5.71742E+03 -3.79422E+04
  2.15882E+04 -4.84699E+04  5.24548E+04 -2.40279E+04  5.76514E+04  2.54771E+04  2.05241E+04  5.37279E+04
 -1.28657E+04  3.99263E+04 -3.08219E+04  7.71855E+03 -1.57191E+04 -2.62667E+04  1.92946E+04 -3.58047E+04
  4.80971E+04 -6.61591E+03  3.71421E+04  2.73025E+04  1.73944E+04  4.63966E+04 -1.46265E+04  5.54217E+04
 -3.92753E+04  4.10749E+04 -4.89749E+04  1.23237E+04 -4.82175E+04 -1.86211E+04 -2.50281E+04 -5.12115E+04
  1.31917E+04 -4.36542E+04  3.76582E+04 -1.75663E+04  3.51876E+04  1.68742E+04  7.15115E+03  1.79947E+04
 -1.36359E+04  9.51584E+03 -1.39509E+04 -7.31724E+03  9.92129E+03 -1.08612E+04  2.17115E+04  5.28079E+03
  1.62373E+04  2.23152E+04  1.25451E+02  3.25405E+04 -2.32471E+04  1.78697E+04 -3.39231E+04  2.60746E+03
 -3.27747E+04 -2.22215E+04 -1.62761E+04 -3.15991E+04  7.18432E+03 -2.70264E+04  2.54183E+04 -2.47217E+04
  3.17911E+04 -1.90953E+04  4.05481E+04  6.83260E+03  2.74495E+04  2.96285E+04  6.12050E+03  3.99237E+04
 -1.84977E+04  3.59526E+04 -4.08693E+04  8.05497E+03 -2.10572E+04 -1.11657E+04 -9.71563E+03 -1.75835E+04
  8.77309E+01 -8.91507E+02 -5.21794E+03  1.16110E+04 -1.54439E+04  4.75890E+03 -2.26779E+04 -1.32901E+04
 -1.18992E+04 -3.23711E+04  1.05792E+04 -3.15110E+04  1.71216E+04 -2.01074E+04  3.74472E+04  1.57762E+02
  1.50790E+04  1.92105E+04 -3.92175E+02  2.87929E+04 -2.19135E+04  1.28814E+04 -2.58153E+04 -1.20766E+04
 -1.52521E+04 -1.98235E+04 -4.50344E+03 -2.86105E+04  1.53840E+04 -2.70373E+04  2.59418E+04 -8.85064E+03
  2.45260E+04  2.42033E+03  1.22078E+04  6.62982E+03  8.51815E+03  5.17605E+03  1.72347E+04 -1.40662E+03
  2.76751E+04  4.34139E+03  2.46095E+04  2.35084E+04  2.03051E+04  4.20278E+04 -5.40518E+02  4.74485E+04
 -3.37965E+04  3.93889E+04 -4.66302E+04  1.43931E+04 -4.53349E+04  1.46089E+03 -3.66633E+04 -2.90995E+04
 -1.28982E+04 -4.72457E+04  2.18052E+04 -3.47526E+04  2.66835E+04 -1.80601E+04  2.43622E+04  1.04621E+04
  7.82280E+03  1.49980E+04 -1.59357E+04  2.04524E+04 -2.54652E+04 -5.37794E+03 -1.69376E+04 -1.16117E+04
 -9.48557E+02 -2.05657E+04  9.39685E+03 -1.39651E+04  1.51914E+04 -8.55855E+02  4.52570E+03  7.64985E+03
 -8.92449E+03  8.61833E+03 -1.33305E+04 -3.03282E+03 -3.41046E+03 -1.84489E+04  7.28072E+03 -1.81963E+04
  3.02893E+04 -1.94133E+03  3.46771E+04  6.19326E+03  2.20940E+04  2.52331E+04  9.77321E+03  3.08674E+04
 -3.19035E+03  3.35589E+04 -2.10321E+04  1.76867E+04 -2.82537E+04 -3.62993E+03 -2.48881E+04 -6.42728E+03
 -4.11930E+03 -8.43201E+03 -2.35872E+03  1.00978E+04 -3.03397E+03  1.09086E+04 -5.50311E+03  9.72676E+02
 -1.52613E+04  2.43502E+03 -2.06110E+04 -8.59556E+03 -2.49931E+03 -2.67372E+04  6.29331E+03 -1.75587E+04
  1.82973E+04 -1.26098E+04  8.29419E+03  1.21236E+03  2.85831E+03  6.80070E+03 -1.34151E+04 -6.92362E+02
 -1.37637E+04 -1.17012E+04 -8.26952E+03 -1.91151E+04  1.53780E+04 -2.27306E+04  2.51684E+04 -1.98865E+04
  2.55692E+04  9.53731E+03  1.82540E+04  2.54487E+04  2.09573E+03  2.10947E+04 -9.42574E+03  7.89739E+03
 -1.84529E+04  4.99221E+03 -2.44527E+03 -3.55814E+03  2.74397E+03 -5.24090E+03  2.86760E+03 -5.18965E+02
  7.45180E+03  1.03512E+04 -3.47895E+03  1.68518E+04 -1.21312E+04  1.16543E+04 -1.78871E+04  2.12950E+03
 -1.06601E+04 -1.02049E+04  2.12044E+02 -1.10228E+04  6.50110E+03 -5.02653E+03  6.92157E+03  4.53469E+03
  1.46316E+03  9.96462E+03 -1.13673E+04  9.65298E+03 -1.65948E+04  1.02172E+03 -2.24477E+04 -4.28043E+03
 -4.88253E+03 -1.17933E+04  3.35542E+02 -1.96962E+04  1.98968E+04 -1.79872E+04  2.03218E+04  7.87951E+03
  2.07003E+04  1.40760E+04 -1.12811E+04  1.77516E+04 -1.29583E+04  1.34929E+04 -1.51182E+04 -4.98150E+02
 -7.64189E+03 -1.12681E+04 -2.70910E+03 -1.22589E+04  1.18051E+04 -1.25736E+04  7.83112E+03 -1.44592E+03
  7.28493E+03 -4.86793E+03  5.82114E+03  5.98148E+03  5.64427E+02  4.84219E+03  5.52860E+03 -2.59476E+03
  1.42150E+04 -3.29664E+03  1.73275E+04  1.89084E+03  2.50526E+04  1.47256E+04  6.70952E+03  2.99501E+04
 -6.21530E+03  2.71499E+04 -1.48305E+04  1.43980E+04 -2.49625E+04  1.66501E+03 -1.98945E+04 -5.98725E+03
 -1.03281E+04 -1.87220E+04 -5.34823E+03 -1.61935E+04  6.09027E+03 -1.42823E+04  3.11034E+03 -1.85749E+02
  3.28787E+03  2.36606E+03  8.59462E+03 -7.71737E+03  2.23623E+03  1.98607E+03  7.54959E+03 -3.12274E+03
  1.62525E+04  5.44704E+03  1.01847E+04  1.07271E+04 -3.05853E+03  1.54771E+04 -6.33479E+03  9.68896E+03
 -1.78151E+04 -3.01330E+03 -1.81638E+04 -1.43237E+04  1.53504E+03 -1.76947E+04  1.32623E+04 -2.17151E+04
  2.10844E+04 -9.75755E+03  2.24239E+04  5.73879E+03  2.16986E+04  1.61716E+04  3.64977E+02  1.61687E+04
 -4.21453E+03  1.21000E+04 -1.24604E+04  4.58194E+03  8.57507E+02  4.95171E+03 -4.34945E+03 -3.58875E+03
 -9.69588E+03  1.31755E+03 -2.68437E+03  4.78422E+03 -2.20088E+03  1.69839E+03 -9.31321E+03 -1.00559E+04
 -2.50563E+03 -1.39318E+04  2.03282E+03 -2.00361E+04  1.05108E+04 -1.70218E+04  1.67667E+04 -4.36070E+03
  1.59331E+04  8.51770E+03  8.90971E+03  1.36881E+04 -1.24074E+03  2.59709E+04 -8.19451E+03  1.33944E+04
 -1.41521E+04  9.61957E+03 -1.13050E+04 -8.94989E+03  6.32437E+02 -1.61694E+04  1.98304E+03 -1.26096E+04
  8.92460E+03 -5.02524E+03  8.26009E+03  1.42251E+04  1.03011E+04  8.81856E+02  4.45458E+01 -3.08031E+03
  1.64856E+02  5.13228E+03  7.10808E+03  8.10512E+03  4.93238E+03 -1.96857E+03  7.10410E+02  7.02752E+03
 -2.80128E+02  1.27662E+04 -1.73302E+04  1.83112E+04 -1.99730E+04  1.42355E+03 -1.70571E+04 -1.47901E+04
 -7.32116E+03 -1.48366E+04 -2.01275E+03 -2.14870E+04  1.08822E+04 -1.70507E+04  9.69855E+03 -6.16163E+03
  6.13370E+03 -2.22630E+03  9.25652E+03  7.06008E+03 -8.39416E+03  3.36777E+03 -6.17727E+03 -2.59380E+03
  7.64106E+03 -2.72565E+03  5.94609E+03 -5.77356E+03  1.15797E+04 -4.09117E+03  1.07362E+04 -1.91897E+03
  3.12820E+03 -4.30920E+03  2.05340E+03  5.80454E+03 -3.38862E+03  7.02909E+02  2.83625E+03  5.67260E+03
  3.58081E+03 -3.31858E+03  2.48289E+03  3.86758E+02  7.90682E+03  5.94386E+03 -9.90627E+02  1.95063E+04
 -9.44358E+03  8.78523E+03 -1.05799E+04  1.42942E+03 -4.85741E+03  7.54759E+02 -7.01931E+03 -6.85203E+03
  1.97970E+03 -5.19861E+03  9.53522E+01 -6.21532E+03  9.14018E+03 -2.76913E+03  5.51848E+03  1.44947E+04
 -1.19474E+04 -3.53594E+03 -1.45538E+04 -5.72620E+02 -6.63841E+03 -1.37871E+04 -2.00501E+03 -1.24553E+04
  2.17237E+03 -3.39839E+03  7.46082E+03 -2.63863E+03  8.64573E+03 -1.11307E+03  4.54607E+03  4.26616E+03
 -3.41794E+03 -3.81605E+03 -5.94014E+03  2.52090E+03  4.77238E+03 -1.10254E+04  1.39359E+04  7.92693E+02
  1.04657E+04  1.96218E+03  8.40828E+03  1.00495E+04  9.61119E+03  1.01800E+04 -3.19214E+03  1.61357E+04
 -1.21193E+04  3.24482E+03 -1.15558E+04 -6.81857E+03 -3.03588E+03 -3.81989E+03  5.25205E+03 -1.10250E+04
  2.58955E+03 -7.12550E+02  5.00565E+03  3.71261E+03  4.30221E+03  6.50557E+03 -4.60556E+03  3.01202E+03
 -1.44365E+03  6.22609E+03 -5.46413E+03  3.77636E+03  4.99160E+03  3.17478E+03  1.01612E+03  1.57764E+03
  5.07480E+03  1.07288E+04 -1.97317E+03  1.06360E+04 -6.14730E+03  5.34157E+03 -1.15136E+04 -7.77983E+03
 -9.22698E+03 -1.61718E+04  1.81309E+03 -2.04993E+04  1.45307E+04 -2.07901E+04  2.15605E+04 -1.68833E+03
  1.50821E+04  1.48265E+03  1.22849E+04  6.58555E+03 -9.91311E+02  1.17442E+04 -7.29427E+03  1.18736E+04
 -7.53860E+03  3.16161E+03 -1.94867E+01 -2.93637E+03  5.25130E+03 -9.99998E+03 -6.12727E+03 -9.49913E+03
 -1.80717E+03 -2.99574E+02 -5.24470E+03 -3.02995E+02 -1.11329E+03 -1.69890E+03 -2.17370E+03 -1.10460E+04
  1.01336E+04 -2.71685E+03  9.51602E+03  6.11497E+03  4.69594E+03  9.23085E+03 -2.63225E+02  1.12916E+04
 -1.38260E+04  1.05759E+04 -2.21964E+04  1.31811E+04 -1.38346E+04  2.59418E+03 -9.06140E+03 -5.89627E+03
 -3.05108E+03 -1.60120E+04  2.05430E+03 -1.38988E+04  2.96086E+03 -6.56030E+03  1.19340E+04 -1.66299E+02
  6.49463E+02  5.31485E+03  1.93834E+03 -1.80746E+02  2.30645E+03  1.10620E+03 -1.23562E+03 -2.77800E+03
  2.56783E+03 -1.23614E+03  3.87496E+03 -2.14953E+03  8.76817E+03  4.27438E+03  4.27345E+03  1.49315E+04
 -7.95684E+03  5.28714E+03 -1.19631E+04  6.14025E+03 -1.86268E+03 -9.83850E+03 -4.32011E+03 -1.34613E+04
  6.06297E+03 -1.04251E+04  1.02071E+04 -7.45833E+03  9.78453E+03 -7.64559E+03  2.49982E+03  8.86779E+03
  1.25648E+03  1.47706E+04 -4.86105E+03  1.76958E+03 -6.92319E+03  6.91075E+03 -8.72264E+03  1.70453E+03
  2.70635E+03 -3.86541E+02 -4.16870E+03 -4.42721E+03 -3.17580E+03  8.64767E+03 -7.75361E+03 -5.19769E+02
 -9.99368E+03 -9.46921E+03 -3.59677E+02 -3.79366E+03  2.42123E+03 -8.10613E+03  8.40879E+03 -1.01163E+02
  9.24190E+03  3.22796E+03  1.57438E+03  4.16232E+03  5.99067E+03  9.47307E+03 -5.79487E+03  1.37449E+04
