 $NMID ID='MM_0lb_SNR50_12hz_g50_92.RAW', FMTDAT='(8E13.5)'
 TRAMP=1., VOLUME=1. $END
  3.09018E+05  1.09254E+03  3.40237E+05  2.41363E+05  8.47369E+04  3.41544E+05 -1.30472E+05  2.51670E+05
 -1.89226E+05  8.56149E+04 -1.12767E+05 -3.36115E+04  6.22589E+02 -4.83783E+04  5.50111E+04 -2.87453E+03
  3.74861E+04  5.33954E+04 -2.09210E+04  7.85263E+04 -5.98365E+04  6.61576E+04 -8.11756E+04  3.09374E+04
 -7.63308E+04 -1.38007E+04 -5.81114E+04 -5.49335E+04 -1.23276E+04 -6.46583E+04  2.97299E+04 -4.29238E+04
  4.61194E+04  5.58220E+03  1.09883E+04  4.95139E+04 -3.30302E+04  5.16498E+04 -6.42973E+04 -4.06404E+03
 -5.63594E+04 -5.55117E+04 -8.96211E+03 -8.37438E+04  3.04284E+04 -5.48447E+04  4.90171E+04 -1.13896E+04
  4.71948E+04  9.99229E+03  3.07412E+04  2.47938E+04  1.36817E+04  3.24928E+04 -7.85053E+03  3.14938E+04
 -2.01606E+04  1.01332E+04 -2.68042E+04 -6.81271E+03  4.93158E+03 -7.85275E+03  2.63692E+04  1.84703E+04
  8.33998E+03  3.98945E+04 -3.58382E+04  3.92141E+04 -6.32001E+04  2.14693E+03 -5.53895E+04 -4.48184E+04
 -1.39546E+04 -6.62001E+04  4.09287E+04 -4.45341E+04  5.99859E+04  1.39684E+03  3.09966E+04  3.32709E+04
 -8.35621E+03  3.51192E+04 -3.11386E+04  1.54866E+04 -2.87508E+04  5.15335E+03 -1.18678E+04 -1.43402E+04
 -1.15291E+04 -1.18330E+04 -2.77501E+03 -2.23373E+04  9.12168E+03 -2.08446E+04  1.76362E+04 -1.13261E+04
  7.66263E+03  4.28359E+03 -8.08375E+03  1.07184E+04 -2.55823E+04 -3.87514E+03 -8.66382E+03 -3.45633E+04
  2.26854E+04 -4.48836E+04  5.21524E+04 -2.41866E+04  4.81390E+04  1.84024E+04  2.22352E+04  4.83926E+04
 -1.54301E+04  3.40956E+04 -2.53323E+04  4.53263E+03 -1.13499E+04 -2.35475E+04  2.10372E+04 -3.68569E+04
  4.66298E+04 -1.23588E+04  3.53611E+04  2.29488E+04  2.13125E+04  4.16357E+04 -8.71220E+03  4.88341E+04
 -2.97018E+04  3.92306E+04 -4.03711E+04  7.87548E+03 -4.89846E+04 -2.21537E+04 -2.62197E+04 -3.94052E+04
  4.72358E+03 -3.84959E+04  3.26614E+04 -1.50392E+04  2.88076E+04  4.42232E+03  1.94409E+03  2.18412E+04
 -1.29380E+04  5.88995E+03 -1.07537E+04  2.68008E+03  3.10682E+03 -1.54804E+04  2.05793E+04  9.45296E+03
  1.00599E+04  2.33849E+04 -1.19278E+04  2.04452E+04 -2.45488E+04  7.89296E+03 -3.03259E+04 -4.72478E+02
 -1.59480E+04 -1.92890E+04 -1.39049E+04 -2.14551E+04  7.82966E+03 -2.35643E+04  1.43451E+04 -2.18756E+04
  2.58518E+04 -1.24362E+04  3.15267E+04  2.64807E+03  2.75612E+04  1.70893E+04  6.67188E+03  3.56116E+04
 -1.82509E+04  3.02375E+04 -3.37408E+04  1.55940E+04 -2.49226E+04 -8.17762E+03 -5.75957E+03 -1.57189E+04
 -9.39121E+02 -7.43634E+03 -1.08928E+04  9.89440E+03 -2.10277E+04 -5.22527E+02 -1.91843E+04 -1.22391E+04
 -1.38145E+04 -2.14689E+04  9.57252E+03 -2.48229E+04  1.66187E+04 -1.71830E+04  2.27686E+04 -2.97873E+03
  1.47746E+04  1.06269E+04 -3.54039E+03  2.21880E+04 -1.08321E+04  1.53824E+04 -2.18710E+04  1.82256E+03
 -1.66117E+04 -2.01190E+04  3.57173E+03 -2.44686E+04  1.45421E+04 -1.70188E+04  1.88716E+04 -1.05377E+04
  2.12138E+04 -2.56573E+03  1.46110E+04  4.36446E+03  8.09541E+03 -2.43381E+03  1.47613E+04 -2.81059E+03
  2.13282E+04  2.86978E+03  1.92953E+04  1.30852E+04  1.56111E+04  3.01836E+04 -5.73161E+03  3.73390E+04
 -1.79693E+04  3.30234E+04 -2.95815E+04  1.05859E+04 -3.33252E+04 -1.30691E+03 -3.51564E+04 -2.08959E+04
 -1.51939E+04 -3.10802E+04  1.81722E+04 -2.56947E+04  2.12675E+04 -6.85779E+03  2.81369E+04  9.91555E+03
  7.47648E+03  1.54724E+04 -8.78775E+03  1.33314E+04 -1.85420E+04  4.69742E+03 -1.77777E+04 -9.70460E+03
 -1.24487E+03 -1.77621E+04  6.52508E+03 -1.31435E+04  6.49543E+03 -1.22755E+03 -4.78554E+02  7.33059E+03
 -1.09074E+04  1.55904E+03 -1.82756E+03 -1.02428E+04  3.10261E+03 -1.68809E+04  9.60568E+03 -2.21744E+04
  1.70449E+04 -5.49395E+03  2.23759E+04 -1.44209E+03  1.66262E+04  1.95740E+04  7.65105E+03  1.87628E+04
 -3.51435E+03  2.64018E+04 -1.66927E+04  9.20812E+03 -1.72142E+04 -9.62512E+02 -1.26881E+04 -5.06681E+03
 -6.28352E+03 -5.17911E+03  5.53426E+02 -8.56158E+02  5.83289E+02  2.84750E+03 -7.46486E+03  7.70455E+03
 -1.56284E+04  2.63891E+02 -1.62278E+04 -7.91212E+03  1.08884E+03 -1.45486E+04  3.05146E+03 -1.17788E+04
  7.28298E+03 -5.12347E+03  1.12412E+04  4.76023E+01 -2.36931E+03  6.97201E+03 -7.68767E+03  5.31752E+02
 -2.80152E+03 -5.07268E+03 -7.28106E+02 -1.22900E+04  1.11058E+04 -1.10313E+04  1.35538E+04 -1.87526E+03
  1.62857E+04  8.54670E+02  1.27176E+04  1.47706E+04  1.41087E+03  1.32193E+04 -1.04582E+04  1.34766E+04
 -9.41337E+03 -2.98648E+01 -5.05211E+03 -2.54810E+03  6.95231E+03 -3.05337E+03  6.63881E+03 -1.91854E+03
  9.52352E+03  9.96477E+03  2.69262E+03  9.11383E+03 -6.13820E+03  1.22853E+04 -1.57620E+04 -1.03124E+03
 -1.18601E+04 -7.69186E+03  5.58346E+02 -1.14300E+04  9.14918E+03 -5.46346E+03  5.83071E+03  2.99704E+03
 -3.24871E+03  8.68491E+03 -6.97139E+03  9.51566E+03 -1.30416E+04  4.45753E+03 -1.10708E+04  2.04523E+02
 -5.12540E+03 -1.26192E+04  2.21147E+03 -1.70798E+04  1.27107E+04 -8.18007E+03  9.82402E+03  1.84689E+03
  7.58902E+03  9.45730E+03  2.30180E+03  1.06069E+04 -5.24739E+03  5.51335E+03 -5.88177E+03  2.68127E+03
 -1.44227E+04 -6.54956E+03 -2.17967E+03 -9.80286E+03  3.03177E+03 -9.56938E+03  5.79209E+03 -5.64153E+03
  3.69542E+03  3.09805E+03  3.43305E+02  4.84402E+03  4.48871E+03 -5.31007E+03  1.34461E+03 -3.55125E+03
  7.66188E+03 -4.58000E+03  1.69470E+04  2.23038E+03  1.43000E+04  1.22385E+04  5.94859E+03  1.62265E+04
 -5.65245E+03  1.76530E+04 -9.82292E+03  1.00417E+04 -2.31863E+04  1.25689E+03 -1.64209E+04 -8.05667E+03
 -9.73813E+03 -1.30494E+04  6.35601E+03 -1.06644E+04  7.69536E+02 -4.70427E+03  4.28668E+03 -5.82535E+03
  2.34386E+03 -4.32680E+03  5.55492E+03 -6.50439E+03  5.94567E+03 -3.29810E+03  1.11957E+03 -5.38543E+03
  1.32539E+04  1.52616E+03  7.73930E+03 -1.48174E+02 -7.54235E+03  5.18676E+03 -7.41629E+03  6.98583E+03
 -8.21974E+03 -5.25251E+03 -6.18704E+03 -3.65515E+03 -2.49760E+03 -8.87522E+03  1.45517E+04 -2.47427E+03
  1.52713E+04 -9.83575E+03  1.29358E+04  4.00031E+03  6.98205E+03  1.37625E+04  3.99742E+03  1.54328E+04
 -8.27465E+03  1.41594E+04 -4.79790E+03  2.27436E+03 -6.17300E+03 -6.30863E+03 -6.18693E+03  3.87354E+02
 -2.34601E+02 -6.28198E+03  2.40114E+03  1.45661E+03 -7.35819E+03  1.40477E+03 -1.00254E+04 -3.21346E+03
 -4.58435E+03 -9.82371E+03  1.53154E+03 -1.15414E+04  5.32578E+03 -1.45782E+04  1.21875E+04  5.78657E+02
  1.26399E+04 -7.92919E+01  4.22028E+03  9.62081E+03 -3.37984E+03  1.12865E+04 -9.10536E+03  1.80192E+03
 -7.92061E+03  9.29551E+02 -2.88005E+03 -1.08243E+04 -2.41870E+03 -7.47617E+03  1.23514E+03 -6.46439E+03
  1.28141E+04 -1.74586E+00  7.96007E+03  1.48216E+03  8.41909E+03  2.72485E+03  5.64537E+03 -5.17004E+03
  9.73399E+02 -3.37035E+03  1.14318E+03  5.35836E+03  5.59681E+03  6.64680E+03  6.62927E+03  5.79484E+03
 -6.41972E+03  7.96207E+03 -4.29756E+03  6.81639E+03 -7.76460E+03  1.17411E+03 -1.60564E+04 -5.14585E+03
 -9.10615E+03 -1.20913E+04  4.30433E+03 -1.21281E+04  1.15131E+04 -1.04978E+04  1.09984E+04 -1.91338E+03
  1.10381E+04  7.51232E+03 -4.28606E+02 -2.12703E+03 -5.01465E+03  7.12710E+03 -2.17966E+03  1.46358E+03
 -2.66355E+03 -1.51116E+03  2.51204E+03 -5.56488E+03  6.02735E+03 -1.55134E+03  3.53546E+03  5.03201E+03
  6.23832E+03  9.84099E+02 -2.28003E+03  1.61032E+03  1.42193E+03 -4.74454E+02 -3.96311E+02 -8.29215E+02
  3.47067E+03 -7.57169E+02  4.89031E+03  3.97071E+03  3.40494E+03  1.22562E+03 -5.17629E+03  7.83038E+03
 -3.66744E+03  8.58292E+03 -6.10391E+03 -1.44911E+01 -6.24317E+03 -6.66845E+03 -6.95371E+03 -4.81183E+03
  3.79829E+02 -6.03304E+03  2.44534E+03 -2.64781E+03 -8.27481E+02  1.75607E+03 -3.07063E+03  5.87038E+03
 -3.67689E+03 -1.70316E+03 -2.55064E+03 -5.53597E+03 -3.87547E+03 -7.41646E+03  2.34062E+03 -3.33014E+03
  2.62588E+03 -1.13710E+03  1.64764E+03 -1.01141E+04 -4.64912E+02  3.05907E+03 -1.55784E+03 -2.77315E+03
 -5.29293E+02  3.38409E+03 -2.21631E+03  1.11939E+03  1.70914E+03 -5.32001E+03  2.46282E+03 -1.60724E+03
  2.96746E+03  5.37853E+03  7.44530E+03  7.31475E+03  4.50634E+03  4.13897E+03 -4.57272E+03  1.10311E+04
 -2.59112E+03  5.31619E+03 -7.65556E+03 -2.26392E+03  9.38839E+02 -8.42630E+03  5.08088E+02 -1.57053E+03
  5.83703E+03 -4.20291E+03 -9.49306E+02  5.61724E+03 -1.36220E+03  6.88125E+02  4.71458E+03  1.52333E+03
  1.29854E+01 -4.50858E+03 -2.19773E+03  2.85955E+02  1.82568E+03  4.79507E+02 -3.94692E+02  2.93047E+03
 -5.27373E+03  1.71881E+03 -1.08380E+04  1.92085E+03 -5.61711E+03 -5.80350E+03 -1.04394E+04 -4.62477E+03
  1.97921E+03 -6.44953E+03  1.81612E+02 -1.11013E+04  9.43055E+03 -3.92109E+03  3.65542E+03  1.82898E+03
  9.14683E+03  2.89070E+03  3.25643E+03  1.47299E+03  1.24985E+03  5.15269E+03 -8.23208E+03  3.87073E+03
 -3.24287E+03  5.07484E+03 -2.47995E+03 -1.68721E+03 -3.02660E+03 -1.18741E+03 -5.25367E+03  2.69119E+03
 -1.37920E+03  5.48021E+02 -1.60972E+03  9.61661E+02  4.11729E+03 -2.72771E+03 -1.81298E+03 -4.99306E+02
 -1.31078E+03  2.79949E+03  1.91649E+03  4.59572E+02  4.25186E+03  1.33625E+03  2.23613E+02  8.26199E+02
 -2.35531E+03 -2.34455E+02 -7.80342E+03  2.83564E+03 -2.84263E+03 -5.03925E+03 -1.06339E+04 -8.31754E+03
 -2.10241E+01 -5.45805E+03  9.38307E+01 -1.13003E+04  5.02892E+03 -1.00338E+04  6.86867E+03 -9.79135E+02
  2.58075E+03  1.79320E+03  1.22126E+03 -2.09266E+02 -1.94069E+03  7.00903E+03 -4.01862E+03 -7.11843E+03
 -1.73333E+03  4.87750E+03  5.80351E+03  5.03883E+03  7.81834E+02  5.37146E+03 -5.27904E+03 -2.46191E+03
 -4.20636E+03  7.74488E+03  1.31686E+03  7.66430E+02 -1.88974E+03 -3.52942E+03 -5.10776E+02 -6.10138E+03
  6.01519E+03 -2.83480E+03  1.03705E+04  1.44100E+03  6.42727E+03  3.18846E+03  3.19000E+03 -1.14297E+03
 -3.53701E+03  1.91781E+03 -2.74603E+03  4.08190E+03 -2.51327E+03  1.04723E+02  7.83004E+02 -7.14841E+02
 -6.83177E+03  9.24173E+03  1.84191E+03  2.08017E+03 -2.97412E+03  2.30644E+03 -1.64986E+03 -6.91110E+03
 -2.20468E+03 -4.17897E+03  5.89275E+02 -2.43197E+03  7.38875E+03 -2.60182E+03  6.12817E+03 -1.55334E+03
  3.05774E+03 -8.17095E+02  2.53760E+03  3.73172E+03 -4.92234E+03  4.03583E+03 -1.47501E+03 -5.43609E+01
