 $NMID ID='MM_0lb_SNR50_11hz_g50_51.RAW', FMTDAT='(8E13.5)'
 TRAMP=1., VOLUME=1. $END
  3.07252E+05  7.46478E+02  3.38966E+05  2.50152E+05  8.94354E+04  3.39609E+05 -1.28041E+05  2.46082E+05
 -1.94365E+05  7.55945E+04 -1.11884E+05 -3.11582E+04  5.96639E+03 -5.22942E+04  5.35829E+04  5.76531E+03
  3.33902E+04  5.46411E+04 -1.80497E+04  7.10648E+04 -6.00734E+04  6.37928E+04 -8.26376E+04  3.24556E+04
 -8.30046E+04 -1.42549E+04 -5.75096E+04 -5.25810E+04 -1.93385E+04 -6.51018E+04  2.64508E+04 -4.93197E+04
  3.97503E+04  4.39173E+03  1.80994E+04  4.93012E+04 -3.50410E+04  4.82226E+04 -6.96425E+04  5.76684E+02
 -5.34873E+04 -5.59794E+04 -1.03251E+03 -7.42889E+04  3.67283E+04 -5.61663E+04  4.93881E+04 -2.04102E+04
  5.08298E+04  8.26176E+03  3.38775E+04  2.42125E+04  1.22191E+04  2.51657E+04 -8.54143E+03  3.07127E+04
 -2.38333E+04  1.11831E+04 -2.24187E+04 -9.36000E+03  7.65837E+03 -4.47915E+03  1.97191E+04  1.27249E+04
  6.34773E+03  3.52002E+04 -3.61712E+04  3.23007E+04 -6.84398E+04 -6.22499E+00 -6.47530E+04 -4.00225E+04
 -1.31228E+04 -6.30393E+04  4.05225E+04 -5.35039E+04  6.09850E+04 -1.78144E+03  3.76167E+04  3.08888E+04
 -6.92767E+03  3.85497E+04 -2.70512E+04  1.49453E+04 -3.15199E+04 -3.14851E+03 -1.41109E+04 -1.36819E+04
 -7.36439E+03 -1.09107E+04 -4.70869E+03 -2.04379E+04  5.36173E+03 -2.57178E+04  1.22564E+04 -1.15025E+04
  1.13942E+04  7.85009E+03 -6.39610E+03  1.26538E+04 -2.22573E+04 -3.06351E+03 -1.16437E+04 -3.67506E+04
  2.85626E+04 -4.16768E+04  4.54538E+04 -2.14604E+04  4.87325E+04  1.53297E+04  1.15994E+04  4.59879E+04
 -2.04925E+04  3.22514E+04 -2.73791E+04  2.80305E+03 -9.19814E+03 -2.57769E+04  2.10378E+04 -3.88750E+04
  4.47040E+04 -7.06765E+03  3.89547E+04  2.52050E+04  1.88483E+04  4.97591E+04 -9.22546E+03  5.87122E+04
 -3.49261E+04  3.11708E+04 -4.15106E+04  1.07037E+04 -4.89636E+04 -1.58096E+04 -3.03780E+04 -4.07451E+04
  8.87788E+03 -4.20640E+04  3.33005E+04 -1.69458E+04  3.21141E+04  9.95262E+03  6.21221E+03  1.78615E+04
 -1.22986E+04  8.86300E+03 -1.44732E+04 -6.41536E+03  4.42111E+03 -7.12236E+03  2.11871E+04  5.85975E+03
  1.48888E+04  1.92528E+04 -6.58183E+03  2.66739E+04 -2.39708E+04  1.39214E+04 -2.72202E+04 -5.70462E+03
 -2.06883E+04 -1.49746E+04 -1.11983E+04 -2.23338E+04  1.20631E+04 -2.74500E+04  9.90520E+03 -1.73433E+04
  3.07012E+04 -8.95165E+03  3.58350E+04  2.35961E+03  2.48031E+04  2.47596E+04  6.76619E+03  3.79690E+04
 -2.18934E+04  2.56031E+04 -2.52068E+04  9.69645E+03 -2.50763E+04 -9.73140E+03 -6.62147E+03 -1.41539E+04
 -4.67011E+03 -6.51392E+02 -7.13798E+03  2.48214E+03 -1.69562E+04  5.92138E+03 -1.66441E+04 -7.33688E+03
 -5.79264E+03 -1.92572E+04  6.98729E+03 -2.40141E+04  1.39931E+04 -2.03047E+04  1.91322E+04  1.72021E+03
  1.06326E+04  1.80885E+04 -3.44873E+03  2.08966E+04 -1.50077E+04  1.86226E+04 -1.84744E+04 -4.53281E+03
 -1.49776E+04 -1.71705E+04 -5.83926E+02 -2.53873E+04  9.50519E+03 -1.94860E+04  2.12592E+04 -1.11639E+04
  1.77008E+04 -3.90144E+03  1.92195E+04  1.26556E+02  1.20457E+04 -2.06545E+03  1.35947E+04 -3.20299E+03
  2.06461E+04 -1.25834E+03  1.98038E+04  1.63604E+04  1.64676E+04  3.53345E+04  7.88726E+02  3.78010E+04
 -2.08362E+04  3.49693E+04 -3.66717E+04  2.27467E+04 -4.30430E+04 -2.86436E+03 -2.93680E+04 -2.16883E+04
 -9.92265E+03 -3.37135E+04  1.19353E+04 -3.35017E+04  2.70787E+04 -1.73683E+04  1.69459E+04  6.11005E+03
  7.06514E+03  1.82184E+04 -1.45397E+04  1.90414E+04 -1.62938E+04  5.10608E+03 -1.46272E+04 -1.57578E+04
 -5.54965E+03 -1.95606E+04  7.71351E+03 -8.03887E+03  1.68846E+04  1.24492E+03  4.22688E+03  8.54594E+03
 -8.36587E+03 -1.65268E+03 -1.28378E+04 -8.54813E+03 -2.11737E+03 -1.46924E+04  1.07942E+04 -1.62670E+04
  2.18250E+04 -1.16351E+04  2.29345E+04  4.94889E+03  1.59582E+04  1.57671E+04  7.29589E+03  2.74758E+04
 -5.06284E+03  3.15294E+04 -1.58259E+04  1.51192E+04 -1.89503E+04  6.55735E+03 -2.21639E+04 -3.67364E+03
 -6.21458E+03 -5.86981E+03 -3.25627E+03  1.95534E+03 -4.81032E+03  3.32768E+03 -5.78902E+02  1.59997E+03
 -1.76893E+04 -1.90075E+03 -1.73361E+04 -9.83545E+03 -7.34473E+03 -1.72564E+04  5.68755E+03 -1.32693E+04
  6.68216E+03 -9.79619E+03  8.37422E+03  4.45169E+03 -1.25997E+03  3.20999E+03 -1.01395E+04  2.35210E+03
 -1.18806E+04 -1.11865E+04  4.25487E+03 -1.60216E+04  7.99340E+03 -1.05611E+04  1.79777E+04 -6.70053E+03
  2.12592E+04 -1.62238E+02  1.08499E+04  1.06690E+04  2.64594E+03  2.18838E+04 -1.54732E+04  1.30465E+04
 -9.46615E+03  4.99683E+03 -4.73555E+03  2.97799E+03  2.70503E+03 -5.09482E+02  7.96384E+03 -1.94145E+03
  9.03595E+03  7.42559E+03 -1.25228E+03  1.15242E+04 -4.53851E+03  1.00147E+04 -1.90205E+04 -2.37288E+03
 -8.65244E+03 -1.07809E+04  1.70353E+03 -1.36181E+04  9.06211E+03 -3.79696E+03  1.16190E+04  1.69454E+03
  5.06144E+03  9.72040E+03 -4.70831E+03  1.02564E+04 -1.26872E+04  4.47190E+03 -9.08833E+03 -4.84231E+03
 -6.47537E+03 -1.33342E+04 -5.98688E+02 -1.25476E+04  1.19476E+04 -7.18971E+03  9.22884E+03  6.40569E+03
  7.66538E+03  9.62085E+03 -1.60068E+03  1.53151E+04 -6.32774E+03  3.15263E+03 -8.77078E+03 -4.06400E+03
 -6.09654E+03 -5.21895E+03  1.91059E+03 -1.24095E+04  5.50657E+03 -8.93790E+03  6.75693E+03 -6.05694E+02
  9.17466E+02  1.55517E+03 -3.96760E+03  1.26079E+03  1.24557E+02 -3.72419E+03 -2.90831E+02 -5.99390E+03
  7.22936E+03 -8.08974E+03  8.92130E+03  2.78491E+03  1.23910E+04  1.04778E+04  7.43333E+03  1.77961E+04
  1.04471E+03  2.30934E+04 -1.43535E+04  1.75587E+04 -2.50066E+04 -4.06200E+01 -1.39304E+04 -8.15823E+03
 -6.65839E+03 -1.80750E+04  1.05258E+03 -1.36938E+04  2.40789E+03 -5.53146E+03 -2.62897E+03 -3.84938E+03
 -3.42114E+03 -3.61967E+03  6.41420E+03 -7.17116E+03  7.90524E+02 -3.04826E+03  1.78580E+03 -5.28141E+02
  8.79251E+03 -3.67587E+02  3.39852E+03  1.01844E+04 -4.48104E+02  6.01424E+03 -1.02894E+04  6.39063E+03
 -7.47058E+03 -3.69313E+03 -8.78110E+03 -2.27424E+03 -2.52354E+03 -1.39549E+04  1.07315E+04 -1.00240E+04
  1.46121E+04 -1.05624E+04  1.33677E+04  4.42635E+02  1.13678E+04  1.38166E+04  3.56097E+03  1.30300E+04
 -4.12886E+03  1.21818E+04 -1.04551E+04  8.49747E+03 -4.79039E+03  3.39824E+03  3.53195E+01 -7.29656E+02
  1.21619E+03 -2.59964E+03 -3.46992E+03  3.65144E+03 -2.56623E+03  1.37146E+03 -9.86195E+03 -2.06374E+03
 -2.27660E+03 -1.09268E+04 -3.66909E+03 -1.71948E+04  4.76816E+03 -1.14051E+04  1.52643E+04 -1.22220E+04
  1.60651E+04  6.17757E+03  8.24340E+03  1.19646E+04 -5.95362E+03  1.11387E+04 -6.62021E+03  1.72129E+03
 -1.06860E+04 -2.00222E+03 -1.46017E+04 -4.78942E+03  2.70036E+03 -1.12590E+04  5.79847E+03 -9.43238E+03
  1.26398E+04 -9.82955E+02  1.86239E+03  3.22286E+03  1.36042E+03  2.95067E+03  1.01563E+03  4.39942E+03
 -9.20333E+02  3.32757E+03 -4.15704E+03  1.10149E+02  9.13600E+02 -3.97675E+03  6.69406E+03  5.36776E+03
 -3.46620E+03  1.02817E+04 -1.90356E+03  1.69055E+04 -8.93995E+03  2.73244E+03 -9.25071E+03 -3.91031E+03
 -6.34947E+03 -8.49761E+03  8.25474E+02 -1.60814E+04  9.55055E+03 -8.08391E+03  1.39725E+04 -3.53804E+03
  4.42721E+03  3.79894E+03  3.87452E+03  5.28254E+03 -5.63553E+03  1.92427E+03 -1.22129E+04 -3.43338E+03
 -2.69399E+01 -5.43423E+03 -3.55509E+02 -1.00521E+04  8.98136E+03 -6.84636E+03  3.57711E+03  2.61018E+03
  1.07915E+03 -5.78751E+02  2.02179E+02  7.00125E+03  2.26664E+03  5.99363E+02  5.87436E+03 -3.35205E+03
  3.08043E+02  1.35967E+03  4.86210E+03  4.15455E+03  2.60262E+03  6.60518E+03 -4.24236E+03  8.49480E+03
 -1.03081E+04  4.57516E+03 -1.11292E+04 -1.66789E+02 -9.06249E+03 -2.38231E+03 -9.70415E+02 -6.58331E+02
 -3.12898E+03 -4.21888E+03  6.85034E+03 -3.90331E+03  7.51683E+03  4.71508E+03 -8.59124E+02 -1.22971E+03
 -2.49179E+03  1.03316E+03 -5.29864E+02 -6.14808E+03 -6.44155E+03 -3.36101E+03  2.31247E+03 -5.43322E+03
  9.44347E+03 -9.74321E+03  3.80919E+03  4.98781E+02  2.54772E+03 -4.88222E+03  5.79366E+02  6.85119E+03
  2.74230E+03 -2.23844E+02 -1.59187E+03 -4.21344E+03 -1.50393E+03 -2.06889E+03  1.01078E+04  4.96551E+02
 -1.22302E+03 -3.56285E+03  5.61549E+03  6.11206E+03  2.94998E+03  6.03099E+03  3.99015E+02  1.78288E+03
 -7.76812E+03 -4.32854E+03 -5.55323E+03 -5.81545E+03 -3.45105E+03 -5.02078E+03 -2.48152E+03 -2.60836E+03
  3.67184E+03 -3.15539E+03  7.50496E+03  6.59308E+02  4.13091E+03  1.90316E+03 -1.19846E+03  2.35337E+03
 -6.21554E+03  3.42525E+03 -2.16090E+01 -1.47154E+03 -1.98458E+03  3.91640E+03  3.61409E+02  3.55937E+03
 -8.46737E+02  7.97240E+03 -1.65724E+03  1.60040E+03 -7.18104E+03  2.05149E+03 -7.10068E+03 -4.43243E+03
 -6.58240E+03 -6.40927E+03 -2.18050E+03 -1.08238E+04  5.50709E+03 -1.65734E+03  1.19157E+04 -3.35572E+03
  9.82512E+03  5.11044E+03  1.70990E+03  3.63555E+03  2.11543E+03  7.23784E+03  1.39115E+03  2.00216E+03
 -4.04711E+03  1.95300E+02  3.18712E+02 -7.10235E+02 -3.79983E+01  3.92488E+03 -4.86728E+03 -3.82001E+03
 -4.59205E+02  4.43641E+03  6.16552E+02 -2.52487E+03 -1.13518E+03 -3.13237E+03 -3.62046E+03 -2.99782E+03
  4.77722E+03 -4.14848E+03  1.22900E+04 -3.76518E+03  6.78485E+03  5.39668E+02  8.22112E+02  5.47276E+03
  3.11816E+02  9.19830E+03 -9.73868E+03  4.76224E+03 -1.17966E+04  6.98973E+03 -6.70192E+03 -6.83399E+03
  1.94445E+03 -1.15427E+04 -2.13365E+03 -4.80536E+03  2.89931E+03 -1.64068E+03  7.44933E+02 -1.56426E+03
  7.93890E+02  3.13157E+03 -8.15454E+02 -2.10367E+03 -4.85651E+03  2.65543E+03  3.66407E+03  3.99681E+03
  1.59769E+03 -9.40100E+02  5.91145E+02 -1.54905E+03  1.15573E+04  3.30578E+03 -1.32416E+03  3.93547E+03
 -1.76388E+03  4.19495E+03 -8.09487E+03 -7.43878E+02 -3.90819E+03 -4.30277E+03 -4.13111E+03 -9.98244E+03
  4.71163E+03 -6.41353E+03  6.42145E+03 -3.21953E+03  5.50773E+03  2.19277E+03  3.69387E+03  6.03078E+03
 -1.53593E+03  4.47869E+03 -6.20551E+02  4.60155E+03  4.64082E+03  2.33936E+03 -5.56326E+03 -3.46626E+02
  1.56013E+03  9.20641E+02 -5.65528E+03 -1.77293E+03 -4.48547E+01  3.31949E+02 -1.36903E+03  1.34759E+03
 -5.93295E+03 -5.00714E+03 -4.23965E+03 -7.95608E+03  5.46585E+02 -6.65237E+03  3.68255E+03  2.57573E+03
  4.87755E+03 -2.37943E+03  6.71213E+03  4.88515E+03  7.59376E+02  7.04410E+03  1.03397E+01  5.32880E+03
