 $NMID ID='MM_0lb_SNR50_15hz_g45_56.RAW', FMTDAT='(8E13.5)'
 TRAMP=1., VOLUME=1. $END
  3.08703E+05 -4.34676E+02  3.35281E+05  2.48812E+05  8.64667E+04  3.38828E+05 -1.33389E+05  2.45963E+05
 -1.93934E+05  8.52451E+04 -1.08129E+05 -3.16941E+04  6.11391E+03 -4.59239E+04  5.73677E+04 -2.15013E+03
  3.47805E+04  5.41109E+04 -1.71468E+04  7.73926E+04 -5.90702E+04  6.63869E+04 -8.04478E+04  3.23497E+04
 -8.20995E+04 -1.08799E+04 -5.74277E+04 -5.08507E+04 -1.48214E+04 -7.16598E+04  3.08757E+04 -4.90109E+04
  4.55231E+04  5.45611E+03  1.67680E+04  4.81882E+04 -3.28990E+04  5.11942E+04 -6.77332E+04  9.83262E+02
 -5.31154E+04 -5.46319E+04 -4.67855E+03 -7.49082E+04  3.40622E+04 -5.25501E+04  4.45566E+04 -1.45052E+04
  4.39887E+04  1.15384E+04  3.79780E+04  2.28641E+04  1.50204E+04  2.67297E+04 -6.55623E+03  2.50149E+04
 -2.24025E+04  1.10932E+04 -1.83679E+04 -5.84599E+03  7.08140E+03 -5.69709E+03  2.21587E+04  9.25988E+03
  7.68808E+03  3.43618E+04 -3.51109E+04  3.55164E+04 -6.56461E+04  9.39399E+02 -5.13811E+04 -4.57061E+04
 -1.44574E+04 -6.59807E+04  3.82109E+04 -4.45345E+04  5.90243E+04 -4.85211E+03  3.01552E+04  3.37269E+04
 -1.06893E+04  3.56369E+04 -2.97993E+04  1.47364E+04 -2.68759E+04 -7.16172E+03 -1.89615E+04 -1.13093E+04
 -6.48039E+03 -9.18977E+03  1.81539E+03 -1.57843E+04  3.75901E+03 -1.69332E+04  1.15883E+04 -1.06737E+04
  9.10775E+03  6.36810E+03 -6.47748E+03  1.35009E+04 -1.75358E+04 -6.22155E+03 -4.96105E+03 -3.16832E+04
  2.02588E+04 -4.68307E+04  4.82335E+04 -1.62601E+04  4.19348E+04  1.74721E+04  1.49264E+04  4.75964E+04
 -1.45704E+04  2.90137E+04 -2.56944E+04  4.49698E+03 -9.58221E+03 -2.67653E+04  2.28183E+04 -3.25001E+04
  3.87473E+04 -8.06578E+03  3.58846E+04  2.57807E+04  1.38132E+04  3.94589E+04 -1.00618E+04  5.00088E+04
 -2.96538E+04  3.50474E+04 -4.41474E+04  1.09853E+04 -4.31554E+04 -1.55851E+04 -2.48198E+04 -3.77541E+04
  3.09021E+03 -3.47471E+04  3.03285E+04 -1.40565E+04  3.48433E+04  1.32270E+04  8.25984E+03  2.04906E+04
 -1.37803E+04  8.20015E+03 -7.19772E+03 -5.89842E+03  4.79467E+03 -9.85093E+03  1.91189E+04  8.80340E+03
  1.15952E+04  1.97997E+04 -7.12161E+03  2.06943E+04 -2.38186E+04  6.22102E+03 -2.55452E+04 -2.30447E+03
 -1.71942E+04 -1.02015E+04 -9.87751E+03 -2.31227E+04  1.53503E+03 -1.59777E+04  1.29221E+04 -1.16033E+04
  2.45289E+04 -1.52918E+04  2.81963E+04 -3.52649E+03  2.34716E+04  1.66720E+04  9.67659E+03  3.95995E+04
 -2.00717E+04  3.06921E+04 -2.64455E+04  1.46759E+04 -1.87137E+04 -1.29357E+04 -7.05591E+03 -1.44462E+04
  7.47376E+02 -6.21270E+03 -7.34077E+03  1.78865E+03 -1.42441E+04  4.73642E+03 -1.69360E+04 -6.17592E+03
 -1.19012E+04 -1.73481E+04  7.41332E+03 -2.21779E+04  1.65876E+04 -1.67343E+04  1.85852E+04 -1.14829E+03
  1.13051E+04  1.24029E+04 -1.53858E+03  1.68499E+04 -1.22564E+04  1.16759E+04 -1.84464E+04 -4.25289E+03
 -1.56958E+04 -1.54139E+04 -2.24791E+03 -2.09589E+04  9.48595E+03 -1.72533E+04  2.43831E+04 -1.01558E+04
  1.41785E+04 -1.98238E+03  1.12228E+04  5.06107E+03  2.67076E+03  1.57741E+02  1.02592E+04  3.75954E+02
  2.00227E+04 -2.38756E+03  1.43291E+04  1.48018E+04  9.53991E+03  2.61391E+04 -8.80582E+01  2.69489E+04
 -1.51587E+04  2.62569E+04 -3.28099E+04  7.42311E+03 -2.46869E+04 -3.24255E+03 -2.52637E+04 -1.78133E+04
 -1.01415E+04 -2.72983E+04  1.06367E+04 -2.40849E+04  2.07116E+04 -1.57199E+04  1.64063E+04  4.34753E+03
  6.69385E+03  1.49063E+04 -6.90092E+03  1.42204E+04 -9.40657E+03  5.54904E+03 -1.18323E+04 -9.41518E+03
  2.17562E+03 -7.11846E+03  8.16125E+03 -5.60766E+03  1.16808E+04 -1.23696E+03  4.09118E+03  3.83224E+03
 -1.10385E+04  2.28222E+03 -2.42461E+03 -5.02894E+03 -1.55423E+03 -1.14399E+04  7.17362E+03 -1.66635E+04
  1.69918E+04 -5.12523E+03  1.32336E+04  6.67839E+03  1.36195E+04  1.48342E+04  7.78627E+03  1.82983E+04
 -2.16432E+03  2.02091E+04 -1.28913E+04  1.45744E+04 -1.69285E+04  3.86311E+03 -1.16206E+04 -4.58910E+03
 -3.42720E+03 -2.34868E+03 -8.61271E+03  1.29511E+03  1.60569E+03 -1.38847E+03 -4.99725E+03  2.82956E+03
 -1.16353E+04 -1.69646E+03 -1.57206E+04 -1.07822E+04 -3.73264E+03 -1.13421E+04  3.84090E+03 -1.28272E+04
  1.03577E+04 -4.76099E+03  4.86026E+03  3.38563E+03  3.86471E+03  6.11530E+03 -3.15363E+03  6.09861E+01
 -6.03303E+03 -3.81010E+03 -3.43364E+02 -1.33332E+04  5.01658E+03 -1.12516E+04  1.28184E+04 -8.37104E+03
  1.58349E+04  2.37931E+03  8.82277E+03  1.04697E+04 -2.70183E+01  1.10181E+04 -7.81616E+03  1.09769E+04
 -3.45120E+03  1.94624E+03 -2.65774E+03 -6.15398E+02  2.59779E+03 -7.40054E+02  4.13721E+03  4.31738E-01
  4.09068E+03  2.41366E+03  1.69334E+03  9.69698E+03 -6.49465E+03  7.98283E+03 -7.59138E+03  2.05933E+03
 -1.19761E+04 -2.69807E+02  4.37940E+02 -1.08238E+04  9.40431E+03 -6.95371E+03  2.00376E+03  2.73172E+03
 -2.57356E+03  5.65430E+03 -9.58453E+03  5.60187E+03 -3.93553E+03  8.68105E+03 -5.98063E+03 -4.34128E+03
  1.80184E+03 -6.57439E+03  4.77923E+03 -1.09285E+04  9.60316E+03 -2.18234E+03  1.15685E+04  3.08912E+03
  6.18746E+03  8.94243E+03 -1.30479E+03  6.64958E+03 -8.70598E+03  5.24028E+03 -1.05369E+04 -1.48054E+03
 -5.19285E+03 -8.61187E+03  4.69165E+03 -5.06964E+03  3.60265E+03 -5.57533E+03  7.14656E+03 -1.48583E+02
  1.83082E+03 -1.29800E+03 -2.61075E+03  2.55201E+03 -1.28114E+03  2.77339E+03  4.20024E+03 -8.19500E+03
  1.84784E+03 -1.36883E+03  8.55482E+03  1.61684E+03  1.09808E+03  3.55158E+03  6.11314E+03  9.60254E+03
  8.08114E+02  1.26038E+04 -9.49562E+03  7.83995E+03 -1.47847E+04 -6.81978E+02 -1.59286E+04 -5.15707E+03
 -4.59636E+03 -9.43864E+03  4.33471E+03 -9.45262E+03  5.66749E+03 -3.43114E+03  4.03670E+03 -2.86240E+03
  3.47601E+03 -6.63794E+03  5.19097E+03 -8.35479E+03  3.34492E+03  2.71675E+03  5.63988E+03 -3.06679E+03
  9.38550E+02  1.81972E+03  2.84517E+03  2.13950E+03  3.32327E+03  3.64558E+03 -5.67817E+03 -2.38587E+02
 -1.13063E+04 -1.36003E+03 -2.24408E+03  1.32329E+02 -2.60034E+02 -6.16907E+03  5.80761E+03 -6.84716E+03
  1.06183E+04 -3.02713E+03  7.99019E+03 -1.74745E+03  1.13797E+04  5.43484E+03 -1.71412E+03  1.14221E+04
 -2.00211E+02  5.50115E+03 -7.00873E+03  2.29694E+03 -5.84667E+03  1.26138E+03 -7.13691E+03 -5.23914E+03
  1.37211E+03 -9.69277E+02 -2.79567E+03  1.87337E+03 -5.41075E+03 -3.36763E+02 -5.00437E+02 -7.64780E+02
 -4.56212E+03 -1.44943E+03 -6.67174E+02 -1.63803E+03  1.00006E+03 -9.17576E+03  1.03234E+04 -3.53125E+03
  7.60946E+03  9.29138E+03  6.22299E+03  6.37120E+03 -1.44119E+03  6.77722E+03 -7.23732E+03  7.66451E+03
 -4.93841E+03 -1.30681E+03 -5.68818E+03 -2.70838E+03  2.18509E+03 -1.84942E+03  4.98463E+03 -5.01497E+03
  6.34175E+03 -1.86309E+03 -1.62608E+03  3.26054E+03  6.04636E+03  1.84785E+03 -3.79673E+03 -1.26632E+03
  1.43029E+03  1.82524E+03  4.92213E+03  4.33797E+03  6.99871E+02  7.09714E+03  2.48829E+03  6.99889E+02
 -1.18428E+03  1.23627E+03 -6.20742E+03  6.77200E+03 -2.91610E+03  1.63409E+03 -5.21230E+03  2.52103E+03
 -5.75312E+03 -7.27428E+03 -5.52304E+02 -3.35523E+03  4.47802E+03 -5.75279E+02  8.90730E+03  5.38172E+03
  5.33421E+03  1.32426E+03  2.58901E+03  5.35226E+03  2.18215E+03  3.01201E+03 -5.76006E+03  1.73659E+03
 -3.16599E+03 -4.13347E+03 -4.03626E+03  1.32740E+03  4.58301E+03  1.50999E+03  1.72618E+03  7.15994E+03
  2.95195E+02  2.14193E+03 -2.63555E+03 -1.58372E+03 -1.15507E+03  2.92963E+03  2.32831E+03  1.07936E+03
  8.35746E+02 -4.36679E+03  3.77555E+02  3.89058E+03 -2.21925E+03  4.14558E+03 -1.60814E+03  2.93806E+03
 -3.83225E+02  7.03597E+03 -1.58422E+03  1.94560E+03 -9.72966E+02  7.62404E+02 -1.01503E+03 -3.47642E+03
  2.83825E+03 -5.62596E+03  2.83931E+03  2.31427E+03  2.18428E+03 -5.11111E+03 -2.83908E+03  6.20414E+03
 -5.57404E+03  5.07822E+03 -4.42932E+03 -7.46176E+02 -3.83817E+01 -1.17291E+03  3.56713E+03 -2.74713E+02
  6.55605E+02 -6.89445E+03  1.69770E+03 -1.41137E+03 -8.49858E+02 -6.34181E+03 -2.81020E+03  3.66662E+03
 -2.87520E+03 -1.66047E+03  1.36449E+03 -1.84567E+01 -9.76316E+01 -5.02107E+03 -2.98625E+02 -1.66289E+03
  3.97055E+02  4.92711E+03  1.80464E+03  1.86860E+03  1.43735E+03  2.51946E+03  1.11452E+02  4.59073E+03
 -5.42539E+03  6.59030E+02 -2.53013E+03 -5.62953E+03  2.27694E+03 -3.39004E+03 -1.38849E+03 -1.75179E+03
  6.64403E+03 -3.83101E+02  3.75782E+03 -3.22164E+03  3.52041E+03  1.54699E+03 -5.95910E+02 -1.38317E+03
 -2.67932E+03 -2.18486E+03  4.67196E+02  3.52391E+03 -1.98622E+03  2.98116E+03 -2.91114E+01 -1.73221E+03
  2.53835E+03 -2.53310E+03 -5.33159E+03  5.38562E+02 -1.21328E+02 -3.55738E+03 -6.86723E+03 -6.74040E+03
 -4.29396E+03 -3.57433E+03  1.37893E+03 -5.62751E+03  5.15105E+03 -7.86090E+03  3.96087E+03 -2.07760E+03
  6.53276E+03 -4.39402E+03 -1.24468E+03  4.09713E+03 -1.21795E+03  2.07552E+03  3.16262E+03  6.38440E+03
 -3.72463E+03  4.59856E+02 -2.72619E+03  1.53096E+03  8.49169E+03 -7.49149E+02 -1.63537E+03  5.39880E+03
 -2.90770E+03 -3.95362E+02 -1.98221E+03  2.25266E+03 -1.07472E+03 -3.50969E+03 -2.55590E+03 -4.97115E+03
  1.82686E+03  8.65206E+02  7.00230E+02 -1.90816E+02  8.07512E+02  1.05319E+03  1.02757E+03  3.49770E+03
  3.42119E+03  9.76734E+03  5.34883E+01  2.83091E+03 -3.03497E+03  3.06732E+03  1.96483E+02 -4.55394E+03
 -6.69397E+02 -6.27107E+03 -2.14201E+02 -4.38049E+03 -2.41642E+03 -1.74999E+03  1.59725E+03 -8.32260E+02
  3.15010E+03  3.08227E+03 -4.25946E+03  4.35974E+03 -1.45307E+03  3.17633E+03 -1.55400E+03 -1.97680E+03
 -9.67763E+02 -3.32806E+02  3.54580E+03  4.16474E+02  5.50430E+03  2.25478E+03  2.58412E+03  5.79128E+03
 -5.33997E+02  3.39475E+03  1.64255E+03 -3.01945E+02  2.22063E+03  1.13452E+03 -1.49154E+03 -4.99803E+03
  2.04789E+03 -2.89234E+03  4.23075E+02  8.12857E+01  3.71017E+03  1.26748E+03  2.28349E+03  1.78495E+03
  2.26556E+03  6.48840E+03  1.38008E+03  5.33250E+02  4.94016E+02 -1.67245E+03  4.34080E+01  3.50055E+02
 -4.95396E+02  3.40786E+03 -5.89667E+03 -3.19785E+01 -3.94534E+03 -2.01993E+03 -1.45927E+03  9.02380E+02
 -4.42162E+03  3.11111E+02  5.85890E+02  1.68442E+02 -4.79931E+02 -2.37368E+03  2.21532E+03  9.95435E+02
 -8.45735E+02  4.88950E+03  2.43110E+03 -2.26025E+03  2.81405E+03  3.65492E+03 -5.07723E+03  2.30196E+03
