 $NMID ID='MM_0lb_SNR50_16hz_g50_22.RAW', FMTDAT='(8E13.5)'
 TRAMP=1., VOLUME=1. $END
  3.08310E+05 -2.80998E+03  3.34152E+05  2.52868E+05  8.46922E+04  3.37112E+05 -1.31679E+05  2.57938E+05
 -1.87257E+05  8.42826E+04 -1.11306E+05 -2.97477E+04 -1.74754E+02 -5.08054E+04  5.37760E+04 -1.64236E+02
  4.30604E+04  5.43682E+04 -1.54849E+04  7.77189E+04 -5.80387E+04  6.43065E+04 -8.21262E+04  3.40371E+04
 -8.08539E+04 -1.03363E+04 -5.86547E+04 -5.26003E+04 -1.22295E+04 -6.93465E+04  2.42451E+04 -4.37016E+04
  4.28315E+04  5.28793E+03  1.49619E+04  5.12113E+04 -3.30892E+04  4.85212E+04 -6.94365E+04 -1.12307E+03
 -5.57667E+04 -5.38478E+04 -9.00145E+03 -7.92058E+04  3.36193E+04 -5.34851E+04  4.78521E+04 -1.78439E+04
  4.41375E+04  1.03081E+04  3.19647E+04  2.92290E+04  1.86731E+04  3.34921E+04 -5.90789E+03  2.83250E+04
 -2.31785E+04  7.60053E+03 -1.82952E+04 -6.55338E+03  4.19095E+03 -9.06162E+03  2.29497E+04  1.25644E+04
  7.34604E+03  3.65690E+04 -3.84080E+04  3.07559E+04 -6.42002E+04 -6.75849E+01 -5.23376E+04 -4.48001E+04
 -1.16879E+04 -6.06583E+04  3.36800E+04 -4.60862E+04  6.01236E+04 -3.25999E+03  3.10225E+04  3.41337E+04
 -7.40350E+03  3.58024E+04 -2.72593E+04  1.26634E+04 -3.14150E+04 -6.68616E+03 -1.76142E+04 -9.97439E+03
 -5.94256E+03 -1.79964E+04  1.53315E+03 -1.93021E+04  5.10488E+03 -1.80613E+04  1.75458E+04 -1.22718E+04
  9.70367E+03  3.68965E+03 -8.53919E+03  1.15211E+04 -2.01727E+04 -9.81565E+02 -5.09815E+03 -3.47860E+04
  2.38073E+04 -4.59110E+04  4.59096E+04 -1.88178E+04  4.42568E+04  1.46184E+04  1.22877E+04  4.12688E+04
 -1.12052E+04  3.34810E+04 -2.88030E+04  2.73255E+03 -1.10664E+04 -2.72592E+04  2.06585E+04 -3.21637E+04
  4.73538E+04  3.27401E+02  3.40699E+04  2.57341E+04  1.49285E+04  4.08275E+04 -8.47939E+03  4.74782E+04
 -3.04074E+04  3.06968E+04 -4.08387E+04  1.23120E+04 -4.41922E+04 -1.47352E+04 -2.42934E+04 -3.86692E+04
  9.62534E+03 -3.71472E+04  2.85482E+04 -1.33187E+04  2.85686E+04  9.33371E+03  1.33111E+03  2.00857E+04
 -1.29981E+04  6.44302E+03 -9.47643E+03 -7.30515E+03  7.48909E+03 -1.22880E+04  1.94005E+04  5.83803E+03
  1.60330E+04  2.10595E+04 -7.59851E+03  2.64144E+04 -2.17530E+04  1.34448E+04 -2.71533E+04 -9.01050E+03
 -1.86851E+04 -2.19503E+04 -8.10114E+03 -1.55727E+04  6.36742E+03 -1.93290E+04  1.13468E+04 -1.31721E+04
  2.33843E+04 -1.13211E+04  3.05452E+04 -1.10827E+03  1.83003E+04  1.48410E+04  3.23021E+03  3.60620E+04
 -1.75182E+04  3.09259E+04 -2.78889E+04  7.86275E+03 -1.86747E+04 -6.18023E+03 -1.08750E+03 -1.43305E+04
  2.19928E+03 -5.10198E+03 -3.59461E+03  4.25622E+03 -1.58200E+04  3.68631E+03 -1.23471E+04 -4.68508E+03
 -1.04661E+04 -2.13092E+04  2.10134E+03 -1.91979E+04  1.49738E+04 -1.51950E+04  1.71414E+04 -2.99817E+02
  1.46138E+04  8.40030E+03 -8.50737E+02  1.79051E+04 -9.90493E+03  7.30898E+03 -1.59493E+04 -3.81971E+02
 -1.37611E+04 -1.38219E+04  2.53389E+03 -2.46102E+04  7.55700E+03 -1.63775E+04  1.92254E+04 -3.56323E+03
  1.15201E+04 -4.39405E+03  4.97841E+03  5.49254E+03  7.17232E+03 -8.84412E+02  8.29930E+03  1.31427E+03
  1.49699E+04  3.61401E+03  1.57735E+04  1.01522E+04  1.32321E+04  2.92953E+04 -9.43785E+02  3.08031E+04
 -1.82793E+04  2.68602E+04 -3.09041E+04  1.37754E+04 -3.38090E+04 -6.22197E+02 -2.55509E+04 -2.31814E+04
 -1.35853E+04 -2.65966E+04  8.15851E+03 -1.95046E+04  2.08768E+04 -1.23087E+04  1.67862E+04  1.10504E+04
  6.03819E+03  1.26946E+04 -9.48128E+03  1.37201E+04 -1.43656E+04  2.67812E+03 -1.17377E+04 -1.26880E+04
  2.35751E+03 -1.15223E+04  9.07736E+03 -1.26835E+04  1.02744E+04 -1.61595E+03  4.53751E+03  4.94071E+03
 -1.03717E+04 -3.81843E+03 -5.63766E+03 -4.00640E+03 -3.71904E+03 -1.42798E+04  1.20694E+04 -1.22821E+04
  1.83141E+04 -8.04738E+03  1.72501E+04  5.40091E+03  1.63030E+04  1.62617E+04  1.01695E+04  2.04015E+04
 -4.93571E+03  2.11271E+04 -1.23989E+04  9.38974E+03 -1.48042E+04  4.75290E+03 -1.02226E+04 -5.86475E+03
 -5.92141E+03 -4.48945E+03 -1.00100E+03  2.48730E+03 -6.02433E+03  6.26836E+02 -5.38721E+03  9.09869E+03
 -1.30783E+04 -3.81370E+03 -6.65297E+03 -6.35342E+03 -5.82181E+03 -2.00749E+04  9.99767E+02 -1.06833E+04
  8.17400E+03 -7.73999E+03  1.22776E+04  2.79833E+03 -1.75888E+03  4.87136E+03 -3.59759E+03 -3.26483E+02
 -2.48481E+03 -7.39201E+03 -1.68970E+03 -9.28678E+03  6.00063E+03 -8.15636E+03  9.88288E+03 -6.01549E+02
  9.66050E+03  6.76861E+02  1.21324E+04  1.22871E+04  2.46360E+03  1.51690E+04 -3.07307E+03  1.16162E+04
 -6.71665E+03  2.40623E+03 -7.01193E+03  6.80109E+02 -4.84403E+02  2.87256E+03  4.81027E+03 -5.66835E+03
  6.10562E+03  6.98581E+03 -4.85513E+03  6.44543E+03 -3.04556E+03  4.52469E+03 -1.13396E+04  2.71345E+03
 -3.20159E+03 -2.92469E+03  2.90963E+03 -4.49283E+03 -1.34135E+03 -4.94211E+03  6.20559E+03 -3.04689E+02
  4.10256E+03  2.19989E+03 -4.78071E+03  4.40017E+03 -8.47323E+03  2.10954E+03 -8.42694E+03 -5.38621E+03
 -6.89666E+03 -5.11128E+03  6.74835E+02 -1.17237E+04  8.48495E+03 -8.44646E+03  8.18799E+03  4.07839E+03
  7.55337E+03  1.06363E+04  2.69551E+03  4.83249E+03 -7.35598E+03  6.69093E+03 -1.06951E+04  3.25463E+03
 -9.15565E+03 -6.37397E+03 -3.03650E+03 -9.04678E+03  4.42540E+03 -4.97526E+03 -5.69499E+02 -5.57691E+03
  3.75756E+02  1.30725E+03 -1.60569E+03  3.02235E+03  1.87322E+03  2.45227E+02  2.46194E+02 -1.05922E+03
  6.90694E+03 -3.52276E+03  7.16818E+03  3.04392E+03  5.47027E+03  1.52597E+03  7.23468E+03  1.08768E+04
 -4.96930E+03  1.44945E+04 -1.06001E+04  7.14398E+03 -1.76167E+04  3.22315E+03 -1.54866E+04 -1.73419E+03
 -5.04164E+03 -9.67662E+03  3.01135E+03 -7.12977E+03  3.01358E+03 -3.44337E+03  2.99163E+03 -7.48242E+03
  3.34978E+03  1.39984E+03  1.17469E+03  1.47047E+03  3.56628E+03 -8.22738E+02  1.78437E+03 -3.38048E+03
  3.80865E+03  1.68305E+03  1.27483E+02  4.23238E+03  3.84464E+03  1.13210E+04 -3.82769E+03  6.03445E+03
 -8.47465E+03  3.90752E+03 -5.83032E+03 -3.44799E+03 -1.25572E+03 -8.27672E+03  1.13315E+04 -8.91196E+03
  4.89735E+03 -7.17151E+03  9.19681E+03  1.94965E+03  8.54589E+03  9.76418E+03  3.23458E+03  1.01610E+04
 -1.66873E+03  4.44069E+03 -2.20456E+03  3.37449E+03 -3.28879E+03 -1.75849E+03  1.14334E+01  2.09843E+03
 -6.10288E+03  3.00990E+03 -7.26287E+03  3.18682E+03 -3.00390E+03  3.72465E+02 -7.22225E+03  5.75500E+03
 -3.90918E+03 -3.14862E+03  3.84038E+03 -3.22806E+03  2.27318E+03 -4.76945E+03  5.11051E+03 -3.01716E+03
  3.77990E+03 -1.24988E+03  1.19496E+03  4.28202E+03 -1.91168E+03  7.63977E+03 -3.17939E+03  4.58022E+03
 -7.63946E+03  2.06977E+02 -2.48805E+03 -6.96772E+01 -3.82144E+03 -7.68308E+03  1.82672E+03 -5.23862E+03
  7.90011E+03 -1.28670E+03 -1.18554E+03  2.90358E+03  7.03943E+02  7.35765E+01  6.61789E+02  2.93058E+03
  6.88276E+03  4.10226E+03  3.84715E+03 -2.84685E+03 -5.23744E+02 -4.23386E+02 -1.69341E+03  3.10548E+03
  1.21776E+02  5.63712E+03 -1.80404E+03 -6.84288E+00 -7.84812E+03 -2.82831E+02 -7.15433E+03  8.48391E+02
 -3.40952E+03 -4.10146E+03 -6.75405E+02 -6.43967E+03  5.31451E+03 -5.82476E+03  8.47844E+03 -6.27057E+03
  5.32912E+03 -8.57158E+02  1.14069E+03  5.04834E+03  3.17665E+01  2.70993E+03 -2.14186E+03  6.30408E+02
 -1.18658E+03 -2.40344E+03  4.34140E+02  7.82919E+02  2.42066E+03 -7.57508E+02  5.80666E+03  3.10165E+03
 -4.59918E+03 -1.06153E+02 -2.25762E+03  1.47101E+03 -1.67875E+03 -3.55842E+02  1.59215E+03 -4.79969E+03
 -4.12148E+03 -3.04030E+03  4.14873E+03  1.02537E+03  1.25887E+03  4.00807E+03 -1.35273E+03  5.47305E+03
 -3.12711E+03  2.15000E+03 -7.40741E+03 -2.47214E+03 -5.35276E+03  2.25372E+03  3.34944E+03 -4.27826E+03
  7.45361E+02  1.81299E+03  5.34716E+03 -3.74264E+03 -1.82900E+03  3.54210E+03  7.73475E+02  1.82495E+01
 -4.39617E+03 -2.46913E+03 -6.13318E+03 -2.50413E+03 -5.45566E+03 -1.03587E+03 -3.39912E+03 -4.67605E+03
 -1.08982E+03 -3.12160E+03 -3.84009E+03  1.90641E+03  3.06345E+03  2.25775E+03 -2.73028E+03 -2.69062E+02
 -5.48431E+02  9.06704E+02 -4.17339E+03  2.66268E+03  5.97206E+02  1.29381E+03  4.01198E+03 -3.23616E+03
  5.65471E+03  1.08097E+02  3.42160E+00 -1.16410E+02 -3.24404E+03  7.43296E+03  3.48933E+03  1.02115E+03
 -2.72458E+03 -3.42840E+03 -6.66482E+03  3.94878E+03 -3.87888E+03 -4.55910E+03  1.61054E+02 -2.87444E+03
  9.90782E+03 -2.11251E+03  3.46375E+03  5.89698E+02  1.80869E+03  7.33774E+02  1.57958E+03  1.91448E+03
 -4.33277E+03  3.23221E+03 -4.93186E+03 -3.17057E+03 -3.56379E+02 -1.10943E+01 -1.46522E+03  1.82011E+03
 -1.09806E+03  3.08119E+03 -1.28833E+03  7.16751E+03 -2.59506E+03  3.18611E+03 -1.50328E+03 -3.09485E+03
  3.52145E+02 -4.13031E+03  8.99037E+03  1.12514E+03  3.72330E+03 -2.33739E+03  1.80702E+03  1.59847E+03
  3.32000E+03 -8.31954E+02  1.18425E+03  1.38698E+03 -2.58809E+03  3.97021E+03 -3.59706E+03 -9.14498E+02
 -1.73540E+03  3.52656E+03 -9.05311E+02 -1.40069E+03  4.41146E+02  1.05926E+03 -1.41197E+03  6.62430E+03
 -5.89784E+03 -1.47897E+03 -3.61459E+03  1.52542E+03 -2.37960E+03  2.10072E+03 -2.04818E+02 -1.89139E+03
  1.47110E+03 -1.35787E+03 -5.81472E+02  9.47547E+02  1.91414E+03  5.31209E+02 -2.03150E+03  5.75803E+03
 -2.89069E+03  7.23962E+03 -3.83241E+03  4.20599E+03 -1.06635E+03  6.88478E+02 -3.32270E+03 -2.35629E+03
 -2.57920E+03 -5.92066E+03 -3.11658E+03 -5.08192E+03  1.90890E+03  3.47345E+02  1.68227E+03 -1.39824E+02
 -3.67284E+03  7.59307E+02 -6.35711E+02  4.80386E+03 -5.52860E+03 -4.11323E+02 -1.69151E+03  1.91148E+03
  5.01441E+03  4.28852E+03  1.63394E+03  3.82263E+03  3.95188E+03  4.00097E+03  4.99901E+02  2.65860E+02
  2.26061E+03 -2.35746E+03 -2.21183E+03  7.79145E+02  4.79741E+03 -2.00350E+03 -3.69796E+02  2.06993E+03
  3.40880E+03 -7.12549E+03  1.40780E+03  6.36950E+02  4.24626E+03  2.09845E+03  2.54454E+03  6.32724E+03
 -8.05250E+01 -7.19934E+02  1.28310E+03  2.77900E+03 -3.23785E+03  4.64726E+03 -7.45350E+02 -9.88140E+02
 -9.05704E+02  5.34661E+03  3.08455E+03  4.26006E+02  2.01302E+03  1.33364E+03 -1.41741E+03 -2.47976E+03
  8.64577E+02 -1.38186E+02 -1.42407E+03  2.38528E+03 -2.14885E+03  3.62764E+02  4.74239E+03  2.36962E+02
  1.43906E+03  6.31736E+03  8.59377E+02  4.01942E+03 -1.76964E+03  3.44731E+03 -7.84165E+02  2.02358E+03
