 $NMID ID='MM_0lb_SNR50_12hz_g55_70.RAW', FMTDAT='(8E13.5)'
 TRAMP=1., VOLUME=1. $END
  3.09224E+05  3.44277E+03  3.38443E+05  2.47529E+05  8.35471E+04  3.39022E+05 -1.31849E+05  2.53281E+05
 -1.95707E+05  8.45594E+04 -1.13769E+05 -2.87041E+04  3.97572E+03 -5.28125E+04  5.58850E+04  2.72971E+03
  3.62417E+04  4.99419E+04 -2.10772E+04  7.13658E+04 -5.91961E+04  6.79281E+04 -8.09527E+04  2.88616E+04
 -8.21954E+04 -1.30053E+04 -5.76446E+04 -4.82351E+04 -1.64392E+04 -6.34168E+04  2.91705E+04 -4.73125E+04
  4.05974E+04  5.13868E+03  1.70805E+04  4.52527E+04 -3.59383E+04  4.28171E+04 -6.87496E+04 -9.04703E+02
 -5.65909E+04 -5.59178E+04 -6.57664E+03 -7.88543E+04  3.30049E+04 -5.62835E+04  4.67848E+04 -1.86079E+04
  4.23993E+04  3.23683E+03  3.24610E+04  3.11499E+04  1.55563E+04  2.91490E+04 -1.16600E+03  2.86743E+04
 -2.41727E+04  7.16979E+03 -1.26440E+04 -4.33473E+03  8.21459E+03 -8.72978E+03  1.78012E+04  1.12185E+04
  3.13851E+03  3.53368E+04 -3.13093E+04  3.09192E+04 -6.84362E+04  7.58569E+03 -5.87556E+04 -4.73383E+04
 -1.34251E+04 -6.36302E+04  3.93753E+04 -4.60860E+04  6.05973E+04 -1.86535E+03  3.91254E+04  3.02975E+04
 -9.54208E+03  3.93237E+04 -3.13931E+04  1.84164E+04 -3.30143E+04 -5.58929E+03 -1.96100E+04 -1.00092E+04
 -1.11733E+04 -1.60406E+04 -2.21340E+02 -1.86212E+04  1.18922E+04 -2.52810E+04  1.72322E+04 -9.76385E+03
  1.68617E+04  2.25711E+03 -9.86505E+03  7.65060E+03 -2.14493E+04 -3.36609E+03 -6.77521E+03 -3.70550E+04
  2.60927E+04 -4.79450E+04  4.87517E+04 -2.30589E+04  4.24049E+04  1.86375E+04  1.42851E+04  4.92531E+04
 -1.93790E+04  3.64007E+04 -2.34732E+04  6.02133E+03 -1.21099E+04 -2.95608E+04  1.89652E+04 -3.66624E+04
  4.53645E+04 -1.40194E+04  4.01302E+04  2.11582E+04  1.93717E+04  4.84128E+04 -8.13745E+03  4.75901E+04
 -3.53858E+04  3.36805E+04 -4.08821E+04  5.93366E+03 -4.40096E+04 -1.25225E+04 -2.18222E+04 -3.45739E+04
  2.88114E+03 -3.88348E+04  3.48698E+04 -1.36965E+04  2.63426E+04  1.15340E+04  2.90036E+03  1.47628E+04
 -1.62769E+04  1.02235E+04 -1.62966E+04 -9.77674E+03  8.03495E+03 -1.05358E+04  2.18732E+04  6.79694E+03
  1.30805E+04  2.95991E+04 -5.90575E+03  2.96297E+04 -1.75337E+04  1.69266E+04 -3.04093E+04 -2.98788E+03
 -2.02086E+04 -2.06055E+04 -3.26706E+03 -2.24258E+04  9.24712E+03 -2.14669E+04  1.85961E+04 -2.14187E+04
  2.87599E+04 -1.10532E+04  3.89498E+04  1.97900E+03  2.29560E+04  1.97602E+04  1.42804E+03  4.01643E+04
 -1.81960E+04  2.26716E+04 -3.13935E+04  8.97143E+03 -2.23212E+04 -1.18955E+04 -8.02574E+03 -1.53089E+04
 -2.29768E+02  1.55037E+03 -1.12985E+04  9.79738E+03 -1.62964E+04  4.00638E+03 -1.80067E+04 -1.04413E+04
 -6.60353E+03 -2.24412E+04  4.49464E+03 -2.63946E+04  1.44375E+04 -1.87831E+04  1.75142E+04 -5.55408E+02
  1.07068E+04  1.14264E+04  5.71646E+03  2.41884E+04 -2.02500E+04  1.23109E+04 -1.56851E+04 -4.37817E+03
 -1.44589E+04 -2.01670E+04 -1.17380E+03 -2.14920E+04  1.30367E+04 -1.90628E+04  2.68471E+04 -8.72741E+03
  2.02598E+04 -2.36374E+03  1.07719E+04  4.49912E+03  1.26429E+04  1.84134E+03  1.27093E+04 -4.31207E+03
  2.08612E+04  3.93770E+03  2.35615E+04  1.59066E+04  1.65764E+04  3.24317E+04 -8.83792E+03  3.81351E+04
 -1.85854E+04  3.45982E+04 -3.77993E+04  2.15187E+04 -3.76034E+04  4.84385E+03 -2.63918E+04 -2.26946E+04
 -1.17415E+04 -3.46852E+04  6.42662E+03 -2.99718E+04  2.54962E+04 -1.37603E+04  2.19077E+04  4.72115E+03
  1.08499E+04  2.11408E+04 -1.16953E+04  1.71506E+04 -1.53650E+04 -9.39972E+02 -1.42585E+04 -1.52829E+04
  5.43119E+03 -1.61589E+04  9.48936E+03 -7.81461E+03  1.44343E+04 -2.06500E+03  6.20991E+03  1.30493E+04
 -8.79624E+03  2.95649E+02 -1.06707E+04 -9.00335E+02 -4.73800E+03 -1.55035E+04  7.26235E+03 -1.71457E+04
  2.16634E+04 -1.07343E+04  2.16835E+04  3.35494E+03  2.02403E+04  1.74428E+04  8.95652E+03  2.35744E+04
 -7.81380E+03  2.50224E+04 -1.85310E+04  1.46505E+04 -1.96682E+04  2.82680E+03 -1.10862E+04 -2.80881E+03
 -9.70788E+03 -9.79916E+03 -2.62452E+03 -1.75217E+03  1.97070E+03 -9.72866E+02 -1.32251E+04  7.57549E+03
 -8.22600E+03 -2.94777E+03 -1.28020E+04 -6.02618E+03 -9.12531E+03 -1.92302E+04  2.70190E+03 -9.50500E+03
  4.74560E+03 -5.68493E+03  1.07341E+04  2.33712E+03  8.51632E+03  3.35444E+03 -9.92347E+03 -4.60259E+03
 -3.27668E+03 -6.09626E+03 -1.90956E+02 -1.22420E+04  7.29955E+03 -1.08205E+04  2.09230E+04 -8.35131E+03
  1.86422E+04  8.30925E+02  1.59912E+04  1.14370E+04  3.88614E+03  1.57230E+04 -7.05738E+03  1.02776E+04
 -1.37517E+04  4.42841E+03 -6.55520E+03 -5.92389E+03  3.22777E+03 -3.41634E+03  4.09795E+03 -1.60074E+03
  5.97498E+03  5.61810E+03 -4.81911E+02  9.11145E+03 -8.71648E+03  1.32123E+04 -9.94015E+03  7.58638E+03
 -6.96433E+03 -3.59304E+03  2.24396E+03 -1.13815E+04  7.17816E+03 -9.45392E+03  8.61681E+03  6.65726E+03
  3.10106E+03  9.17919E+03 -6.70043E+03  8.70993E+03 -5.71356E+03  3.97178E+03 -8.84544E+03 -3.80942E+02
 -2.64894E+02 -1.73712E+04  1.00623E+03 -1.58831E+04  8.49989E+03 -7.53082E+03  5.22650E+03  5.57335E+03
  7.46208E+03  6.36438E+03 -6.22386E+03  1.29797E+04 -1.11416E+04  4.48004E+03 -3.79307E+03 -2.56819E+03
 -1.00890E+04 -1.00544E+04 -5.60938E+02 -9.65494E+03  4.15170E+03 -1.26941E+04  1.24148E+04 -2.79687E+03
  2.76268E+03  5.14908E+02 -3.63912E+03  7.48579E+02 -4.29534E+03  2.29954E+03  2.84889E+03  1.52066E+03
  8.23748E+03 -8.29503E+02  1.20062E+04  7.57369E+03  1.22504E+04  1.05389E+04  8.69889E+03  1.69780E+04
  9.85779E+02  2.18511E+04 -1.69879E+04  1.33483E+04 -2.46535E+04  6.65548E+03 -1.43374E+04 -2.79136E+03
 -9.11800E+03 -1.17105E+04 -4.15717E+03 -1.44043E+04  4.13596E+03 -7.76347E+03  6.87834E+03 -9.42295E+03
  6.17268E+02 -3.28633E+02  3.75604E+02 -2.79373E+03  2.73433E+03 -8.97772E+03  9.91878E+03 -7.81420E+03
  6.06851E+03  1.68019E+03  4.01850E+03  8.82768E+03 -4.77354E+03  8.36923E+03 -6.37246E+03  5.61293E+03
 -4.34314E+03 -3.40547E+03 -6.52671E+03 -8.11243E+03  1.66753E+03 -1.06051E+04  5.36981E+03 -1.44078E+04
  8.94895E+03 -1.04169E+04  1.59085E+04 -2.41158E+03  1.04424E+04  1.21089E+04 -9.32736E+02  1.89637E+04
 -6.78400E+03  8.87835E+03 -3.64010E+03  7.05717E+03 -3.47092E+03 -3.63955E+01 -3.39043E+03 -3.93746E+03
 -5.21778E+03 -1.25896E+03 -2.90390E+03  5.29718E+03 -1.64255E+03  1.45260E+02 -6.84761E+03 -1.36215E+03
 -8.56103E+03 -8.04959E+03 -1.17617E+03 -7.92143E+03  6.15418E+03 -6.83942E+03  1.23799E+04 -6.25700E+03
  1.01864E+04  8.59202E+03  2.75772E+03  6.01321E+03 -6.57769E+03  1.00777E+04 -1.04842E+04  1.04139E+04
 -1.01364E+04 -1.74080E+02 -9.20035E+03 -4.40852E+03 -2.39146E+03 -1.10203E+04  1.32811E+04 -2.19041E+03
  4.48900E+03 -4.55947E+02  4.19762E+03  8.34629E+02  1.13943E+03  8.14406E+03  2.64147E+03  3.62215E+02
  2.74524E+03  2.61542E+02  2.92907E+03  1.16226E+03  6.42191E+03 -1.41794E+03  8.50889E+03  3.75960E+03
 -1.93418E+03  1.03069E+04 -6.44064E+03  5.82468E+03 -9.03983E+03  5.93465E+03 -1.23180E+04 -1.35788E+03
 -8.35045E+03 -1.25859E+04 -2.40065E+03 -9.06707E+03  1.11679E+04 -5.45857E+03  5.23693E+03 -2.02000E+03
  3.71014E+03  4.68055E+02 -1.26905E+03  5.28587E+03  3.30574E+03  5.18087E+03 -8.62009E+03  1.51503E+03
 -3.45105E+03 -8.39589E+03  6.04215E+03  3.29247E+02  4.41265E+03 -2.75089E+02  3.11973E+03  2.34594E+03
  6.70670E+02  1.20009E+04  3.81653E+03  2.58623E+03 -7.57819E+02  6.12881E+03  4.38794E+03 -4.69075E+03
  2.38738E+03  1.91467E+03  6.93000E+03  7.74205E+02  5.35261E+03  3.41171E+00 -7.60918E+02  9.00557E+03
  6.35170E+03  5.30405E+03 -1.02618E+04 -9.11503E+02 -5.89824E+03  1.14669E+03 -4.63005E+03 -7.48361E+03
  3.06944E+03 -4.11546E+03  6.71426E+02  1.37865E+03  2.56827E+03  4.74571E+03  3.85121E+02  2.98710E+03
  1.48944E+02  5.51754E+03 -4.51914E+03  1.16412E+03 -6.61429E+03 -6.21025E+03  7.51437E+02 -1.06641E+04
  1.77664E+03 -6.54541E+02  3.52698E+03 -8.17044E+02 -3.43074E+02 -9.51335E+02 -2.89868E+03  1.20749E+03
  7.90165E+02  3.70858E+02  2.17762E+03 -4.51119E+03  1.55634E+03 -4.46260E+02  1.63801E+03 -1.46490E+03
  7.43807E+03 -2.21579E+03  8.83101E+03  4.44338E+03  9.70346E+03  3.99114E+03  1.47300E+03  1.00182E+04
 -8.33939E+03  6.49968E+02 -3.40079E+03 -2.34525E+03 -2.31407E+03 -1.26821E+03 -3.60342E+03 -3.37927E+03
  4.00670E+03  9.84871E+02  1.98424E+03  4.02046E+02  1.10763E+03  3.03747E+03 -1.10160E+03  2.52385E+03
 -2.13477E+03  2.73308E+03 -3.29638E+03  4.17924E+02  2.40366E+03  1.09900E+03  6.00447E+02  3.05923E+03
  3.43785E+02 -1.32969E+03 -2.58548E+03 -3.02296E+03 -5.52691E+03 -5.81905E+03 -6.93953E+03 -2.15578E+03
 -4.10641E+03 -1.01016E+04  4.59097E+03 -1.04689E+04  3.98727E+03 -6.07081E+03  9.66469E+03  1.13823E+03
  1.39966E+03 -2.49358E+03  8.01358E+03  1.15113E+04 -2.67495E+03  3.39725E+03 -2.48412E+03  5.45804E+03
 -4.50813E+03  2.02479E+03 -5.31099E+03 -8.92644E+02  4.64785E+03 -1.17799E+03 -1.18865E+03 -4.59434E+03
 -3.94085E+03  1.36799E+03  9.10564E+02  4.45136E+03  1.97863E+03 -5.89971E+03 -2.97187E+03  1.04269E+03
  5.19604E+03 -3.85612E+03  1.30251E+02  1.04308E+03 -2.56056E+03  1.98122E+03 -4.23025E+03  8.66179E+03
 -3.27159E+03  8.88519E+03 -9.85106E+03 -2.53683E+00 -5.30697E+03 -3.67438E+03  1.41430E+02 -2.23305E+03
  5.30116E+02 -2.38113E+03  6.98869E+03 -9.50511E+03  2.91871E+03 -2.99350E+03  4.40793E+03 -1.57252E+03
  1.57275E+03  7.86920E+03  2.62059E+03 -1.92069E+02 -3.60679E+03 -6.01857E+02  3.34055E+03 -5.97949E+03
  8.53080E+01 -3.99863E+02  5.61377E+03  2.31062E+03 -2.10344E+03  2.67686E+03  4.35944E+03  4.17116E+03
 -1.66112E+01 -4.36347E+03 -2.68810E+03 -1.46371E+03 -4.12764E+03 -6.25543E+03 -8.93902E+03 -8.46095E+03
  4.82271E+03 -5.60831E+03  1.15255E+03 -4.84302E+03  1.37378E+03  3.96633E+03  3.51725E+03  3.89969E+03
 -3.16231E+02  7.06926E+03  3.72803E+03  4.32493E+03 -3.40680E+03  9.67367E+02 -1.08895E+03  8.01586E+02
 -3.41150E+03 -3.65496E+03 -1.18578E+03 -1.20213E+03 -5.73165E+02 -9.00444E+02 -1.74642E+03 -5.32261E+03
 -4.01514E+03 -5.05450E+03  4.98818E+02 -3.79472E+01 -1.27388E+03 -5.01710E+03  1.61026E+03 -3.17580E+03
  5.24825E+03  1.37557E+03 -7.33721E+02  3.07690E+03 -9.92545E+01 -2.85002E+03 -1.56704E+03  2.58429E+03
