 $NMID ID='MM_0lb_SNR50_13hz_g45_50.RAW', FMTDAT='(8E13.5)'
 TRAMP=1., VOLUME=1. $END
  3.09110E+05 -3.50900E+03  3.39249E+05  2.43888E+05  8.29907E+04  3.42323E+05 -1.31826E+05  2.53511E+05
 -1.86711E+05  8.58431E+04 -1.07759E+05 -3.51131E+04  4.59142E+03 -4.39456E+04  5.38529E+04 -8.36327E+02
  2.90214E+04  4.72715E+04 -1.62507E+04  8.18033E+04 -6.39845E+04  6.56784E+04 -8.75154E+04  3.40425E+04
 -7.95522E+04 -1.16806E+04 -5.86577E+04 -5.06407E+04 -1.49499E+04 -6.85612E+04  2.67456E+04 -4.92257E+04
  4.45267E+04  5.42386E+03  2.09084E+04  4.95638E+04 -3.95834E+04  4.90515E+04 -6.39862E+04  2.21293E+03
 -5.77150E+04 -5.64418E+04 -4.90711E+03 -7.80499E+04  3.50141E+04 -6.00377E+04  4.86054E+04 -1.65850E+04
  3.85530E+04  1.01906E+04  3.53634E+04  2.24558E+04  1.79082E+04  2.75369E+04 -4.83753E+03  2.46166E+04
 -2.20472E+04  1.22278E+04 -1.49686E+04 -5.45368E+03  9.78785E+03 -9.95924E+03  1.93249E+04  1.49416E+04
  6.27835E+03  3.64328E+04 -3.70523E+04  4.19709E+04 -6.19225E+04  2.78193E+03 -5.94720E+04 -4.72575E+04
 -1.36776E+04 -6.07281E+04  3.57262E+04 -4.70160E+04  5.74718E+04 -1.93343E+03  3.35489E+04  2.61438E+04
 -3.20646E+03  3.84338E+04 -2.46085E+04  1.40478E+04 -2.73239E+04 -4.77413E+02 -1.59995E+04 -1.11493E+04
 -5.58816E+03 -1.54909E+04 -2.68933E+03 -2.21723E+04  1.03176E+04 -2.27594E+04  1.84336E+04 -1.63160E+04
  1.54856E+04  3.02408E+03 -1.54060E+04  1.27344E+04 -2.13130E+04 -3.59503E+03 -9.61665E+03 -3.17404E+04
  2.63820E+04 -4.75592E+04  4.16787E+04 -2.24130E+04  4.41187E+04  1.96911E+04  1.54591E+04  4.25404E+04
 -2.07317E+04  3.16264E+04 -2.44009E+04  1.67957E+03 -7.08447E+03 -2.77038E+04  1.73510E+04 -3.23551E+04
  4.09019E+04 -7.73864E+03  3.98356E+04  2.35553E+04  1.95358E+04  5.09481E+04 -1.06077E+04  4.58420E+04
 -3.15599E+04  3.52072E+04 -4.33670E+04  9.11551E+03 -3.98837E+04 -1.97648E+04 -2.20112E+04 -3.94310E+04
  4.92602E+03 -3.36667E+04  3.44474E+04 -2.03652E+04  2.53072E+04  1.29818E+04  6.05023E+03  2.25033E+04
 -1.04286E+04  1.21374E+04 -1.28212E+04 -8.66567E+03  8.67625E+03 -1.58247E+04  1.90017E+04  1.66741E+03
  1.09752E+04  2.00631E+04 -4.37854E+03  3.04127E+04 -2.07073E+04  1.52848E+04 -2.85197E+04 -4.47502E+03
 -2.20380E+04 -1.34053E+04 -8.53379E+03 -1.81910E+04  6.96260E+03 -1.98149E+04  1.67141E+04 -1.79334E+04
  2.75895E+04 -1.75412E+04  3.43714E+04  2.99091E+03  2.56717E+04  2.30753E+04  3.93610E+03  3.96453E+04
 -2.08754E+04  3.08677E+04 -2.59794E+04  1.41744E+04 -2.10201E+04 -8.93861E+03 -3.92116E+03 -1.27789E+04
 -4.03521E+03 -5.01542E+03 -4.58611E+03  2.60077E+03 -1.87707E+04  7.30780E+03 -1.57426E+04 -7.60497E+03
 -1.44484E+04 -1.90002E+04  5.89598E+03 -2.36785E+04  1.94250E+04 -2.10553E+04  1.76880E+04 -4.83139E+03
  1.12936E+04  9.62222E+03 -1.97526E+00  2.09224E+04 -1.68297E+04  1.39924E+04 -1.92028E+04 -9.06882E+02
 -2.01679E+04 -1.74819E+04 -1.80469E+03 -2.10740E+04  7.68612E+03 -1.48034E+04  2.02739E+04 -1.09624E+04
  1.85808E+04 -2.42482E+03  1.48041E+04  4.35544E+03  8.22604E+03  4.47339E+03  6.18781E+03  1.16659E+03
  1.75810E+04 -1.85744E+03  1.95851E+04  1.69394E+04  1.19394E+04  2.96543E+04 -1.05322E+03  3.26056E+04
 -2.05853E+04  2.60003E+04 -3.25397E+04  1.65843E+04 -3.02169E+04 -5.12402E+03 -3.05111E+04 -2.14564E+04
 -1.25335E+04 -2.88043E+04  9.53399E+03 -2.21190E+04  2.27960E+04 -1.32792E+04  2.38188E+04  3.39899E+03
  7.10162E+03  1.58550E+04 -9.98755E+03  1.74649E+04 -1.55057E+04  9.63028E+02 -1.43967E+04 -9.98709E+03
 -3.93498E+03 -1.52292E+04  6.16859E+03 -1.10166E+04  5.67667E+03 -2.19743E+03  3.28359E+03  8.23723E+03
 -7.17024E+03  4.52767E+03 -4.86957E+03 -8.65890E+03 -2.55547E+03 -1.36067E+04  7.56770E+03 -1.69297E+04
  1.28118E+04 -6.21468E+03  1.76711E+04  1.07150E+03  1.69396E+04  1.38004E+04  1.14907E+04  2.77460E+04
  1.29141E+03  2.59842E+04 -1.63064E+04  1.45854E+04 -1.73891E+04  4.89667E+03 -6.73527E+03 -3.21907E+03
 -8.14537E+03 -4.18021E+03 -1.67703E+03  1.44635E+03 -5.92181E+03 -2.29737E+03 -4.21757E+02  3.00776E+02
 -9.10654E+03 -4.10873E+03 -1.74222E+04 -1.41914E+04 -5.69050E+03 -1.38793E+04  4.25630E+03 -1.04850E+04
  1.23736E+04 -5.44929E+03  3.69864E+03  2.69380E+03 -3.65292E+02  6.82154E+03 -6.26576E+03  3.46980E+03
 -6.81437E+03 -9.62330E+03 -1.72517E+03 -1.52940E+04  1.07831E+04 -1.38025E+04  1.85813E+04 -2.77163E+03
  1.92647E+04  2.69592E+03  1.34821E+04  1.66974E+04 -1.26321E+03  1.51543E+04 -7.30757E+03  1.31541E+04
 -1.33129E+04  5.70022E+03 -6.66384E+03 -4.93795E+03  1.78887E+03 -4.73985E+03  5.43800E+03 -1.90940E+03
  4.99923E+03  4.67569E+03  1.98603E+03  8.75369E+03 -8.84485E+03  9.50495E+03 -1.72633E+04  4.20774E+01
 -1.07873E+04 -6.45698E+03 -1.72954E+03 -7.63943E+03  3.01114E+03 -5.35296E+03  2.30208E+03  6.14876E+03
  5.97497E+03  4.90779E+03 -6.27190E+03  4.75905E+03 -7.51573E+03  2.58285E+03 -1.31495E+04 -1.14043E+04
 -1.63118E+03 -1.40236E+04  3.02102E+03 -1.18777E+04  1.38035E+04 -2.41564E+03  1.33687E+04 -1.22554E+03
  9.10007E+03  6.96644E+03  5.03788E+03  1.38132E+04 -3.13230E+03  6.70491E+03 -8.57023E+03 -3.92071E+03
 -9.55699E+03 -7.07855E+03 -4.25398E+03 -3.60552E+03  8.69135E+03 -5.32563E+03  7.45224E+03 -8.18216E+03
  4.61963E+03 -1.90539E+03 -3.05412E+03  1.77643E+03 -1.62704E+03 -2.23027E+03  2.21825E+02 -4.87708E+03
  5.88009E+03 -2.84920E+03  1.46026E+04 -1.43333E+03  1.28815E+04  6.55968E+03  8.00145E+03  1.36070E+04
  8.93012E+01  1.12636E+04 -1.15706E+04  1.65008E+04 -1.73857E+04  2.05034E+03 -1.04317E+04 -1.08150E+04
 -9.00126E+03 -9.49646E+03  6.04024E+03 -1.05104E+04  4.53930E+03 -5.68097E+03 -2.26848E+02 -6.15986E+03
 -1.80024E+03 -4.64611E+03  1.72840E+03 -7.19880E+03  5.50841E+03 -4.02319E+03  4.98049E+03  1.10055E+03
  4.32278E+03 -1.35846E+03 -1.46475E+03  5.12787E+03 -3.97698E+03  7.14819E+03 -8.34845E+03  3.06988E+03
 -4.34751E+03 -6.34401E+03 -6.38892E+03 -9.05802E+03 -6.28685E+02 -9.71395E+03  5.41001E+03 -8.03693E+03
  7.57382E+03 -3.49977E+03  7.77897E+03  6.38914E+03  5.26199E+03  1.11093E+04  7.14153E+02  1.38271E+04
 -7.88887E+02  1.11015E+04 -1.03424E+04  3.18807E+03 -1.23737E+03 -2.35204E+03  7.96568E+02 -1.79764E+03
 -3.09750E+03 -5.65864E+02 -1.31501E+03  1.35281E+03 -3.59643E+03  5.02527E+03 -8.19747E+03  3.51190E+03
 -3.75310E+03 -7.99466E+03 -1.33805E+03 -8.27642E+03  7.59009E+03 -1.16442E+04  5.35116E+03 -3.14363E+03
  8.17826E+03  4.16162E+03  5.86621E+03  9.65667E+03  1.45476E+03  9.29862E+03 -9.20979E+03  6.53328E+03
 -7.95494E+03 -8.17008E+02 -4.52183E+03 -4.64645E+03  2.65058E+02 -5.83202E+03  5.51571E+03 -7.67384E+03
  5.44726E+03  1.85237E+02  2.02590E+03  2.79719E+03 -2.24201E+03  1.63009E+03  3.51983E+03  2.72067E+03
  2.50132E+03  1.10178E+03  8.26846E+03 -8.79958E+02  1.23543E+03  6.10800E+03  2.18259E+03  4.89345E+03
 -4.10901E+03  3.56885E+03 -4.28440E+03  1.15627E+04 -8.76092E+03  6.26781E+03 -7.08658E+03 -1.58780E+03
 -2.12995E+03 -1.10894E+04  8.22300E+03 -7.24219E+03  3.79783E+03 -5.83010E+03  2.34607E+03 -6.89428E+03
  2.81688E+03  2.77862E+03 -2.04490E+03 -1.32119E+02 -3.58712E+03  8.26698E+03 -9.36324E+02  3.30839E+03
 -2.04613E+03 -3.13905E+03 -1.84692E+03 -7.54502E+03  2.28858E+03  1.11328E+03 -5.60504E+02  3.63378E+03
 -2.79177E+03  4.57140E+03  2.80140E+03  5.83951E+03  3.36733E+03  4.90130E+03  4.98858E+03 -7.37727E+02
 -3.60720E+03  1.71336E+03  8.21562E+02  3.98563E+02  7.65082E+03  8.31362E+03  1.20211E+03  4.79824E+03
 -5.09558E+03  2.25884E+03 -6.65848E+03  1.49599E+03  1.52138E+03  2.86271E+02  1.43212E+03  3.50313E+02
 -9.24183E+02 -8.24553E+02  6.53515E+03 -1.36868E+03  3.86984E+03 -5.09628E+02 -3.22181E+03 -4.69336E+03
 -6.62648E+03  3.56911E+03  1.00697E+03  1.01352E+03  6.33932E+02 -4.51753E+03 -8.70732E+02 -5.59561E-01
  1.33575E+03  2.18865E+02  1.24219E+03  8.34212E+02 -1.10933E+02  3.99506E+03  1.60946E+03  1.40938E+03
 -3.07996E+03  1.37890E+03  2.46831E+03 -6.46823E+02 -1.24057E+03 -1.95191E+03  5.26642E+03 -2.13179E+03
  4.86868E+03  1.81514E+03  4.86701E+03  4.89348E+03 -2.60446E+03  6.20621E+03 -2.57827E+03 -2.05345E+02
 -6.04551E+03  3.62225E+03 -4.84622E+03  1.36959E+02 -3.72027E+03 -4.45868E+03  3.41818E+03 -2.07798E+03
  1.41255E+03  2.70804E+03  2.33846E+03  2.38570E+03 -1.10095E+03  6.43114E+03 -4.40704E+02 -2.54450E+03
 -1.94554E+03  3.23333E+03 -1.27621E+03  3.80608E+03 -1.47852E+02 -1.06090E+03 -6.51486E+01  2.25404E+03
 -8.94335E+02  4.30800E+03 -7.95141E+03  5.73955E+03 -5.47157E+03  5.06566E+02 -5.26594E+03 -3.80625E+02
 -3.25041E+03 -5.98116E+03 -3.38571E+03 -5.79007E+03  1.85125E+03 -9.08197E+03  5.14916E+03  5.77943E+02
  4.65342E+03  3.12890E+03  1.60832E+03  3.23030E+03 -1.32594E+03  1.31255E+03  1.39126E+03  5.05936E+03
 -2.82196E+03 -2.54543E+02 -1.22380E+03 -2.56848E+03 -7.98040E+03 -2.06304E+03  1.16194E+03  4.71090E+03
  2.22335E+03 -1.96376E+03  1.84132E+03 -9.79854E+01 -1.72294E+03  4.33118E+03  3.58637E+03 -3.61546E+02
 -1.62344E+03 -1.17539E+03  4.47663E+03  2.86340E+02  6.65868E+02  5.95415E+03 -4.03207E+03 -6.52290E+01
 -3.90505E+03  7.94464E+03 -4.45524E+03  2.78357E+03 -8.44736E+03 -1.22524E+03 -1.80958E+03 -1.36141E+03
  1.37267E+03 -4.83250E+03  3.53646E+03 -2.87308E+03  1.45776E+03 -6.79471E+03  8.35527E+03 -1.83696E+03
  1.45767E+03  5.01672E+02  8.40427E+02 -5.00083E+03 -2.84145E+03  4.05844E+02  1.13669E+03  8.14295E+02
  4.44738E+03 -3.88592E+03 -7.30488E+02  2.56455E+02 -1.70306E+03 -1.76538E+03  7.27620E+02 -2.55923E+02
 -6.83516E+02 -7.97750E+02 -2.02607E+03  9.43161E+02  3.23290E+03 -3.84491E+03 -3.58057E+03 -5.10569E+03
 -5.25305E+03 -1.67854E+03  4.95181E+03  6.05153E+02  3.02457E+03 -2.11345E+03  1.54282E+03  3.30186E+03
  1.68137E+03  4.33636E+03  1.81956E+03  1.31174E+03  5.45762E+03 -8.76934E+02 -4.49170E+03 -1.03580E+03
  3.05624E+03 -7.51958E+02 -5.69368E+03 -4.53666E+02  2.82115E+03  2.23617E+03 -5.66527E+03  3.85810E+03
 -1.74086E+03  3.34669E+03 -4.78400E+03 -1.67109E+03  2.07778E+03 -3.47065E+03  2.08099E+02 -3.92159E+02
  3.77394E+03  4.40472E+03  1.04609E+03  3.07025E+03 -2.51324E+03  1.79421E+03 -3.46906E+03  2.00773E+03
