 $NMID ID='MM_0lb_SNR50_14hz_g50_20.RAW', FMTDAT='(8E13.5)'
 TRAMP=1., VOLUME=1. $END
  3.11566E+05  3.10381E+03  3.35982E+05  2.51235E+05  8.31255E+04  3.36883E+05 -1.28929E+05  2.51074E+05
 -1.87919E+05  8.30610E+04 -1.14173E+05 -3.18510E+04  2.27763E+03 -5.32804E+04  5.67987E+04 -7.51037E+02
  3.53220E+04  5.30392E+04 -1.47260E+04  7.73395E+04 -6.04150E+04  6.69739E+04 -8.52374E+04  3.35226E+04
 -7.77864E+04 -1.10547E+04 -6.28128E+04 -5.14032E+04 -1.33854E+04 -6.48718E+04  2.49372E+04 -4.38827E+04
  4.24159E+04  1.00855E+03  1.53943E+04  4.31453E+04 -3.36500E+04  4.25888E+04 -6.10584E+04  3.62280E+01
 -5.04292E+04 -5.84244E+04 -8.60475E+03 -8.01385E+04  3.11705E+04 -5.19351E+04  4.48753E+04 -1.56193E+04
  4.68805E+04  6.86511E+03  2.85636E+04  2.39226E+04  1.78476E+04  3.27302E+04 -3.77111E+03  2.35425E+04
 -2.09821E+04  1.59473E+04 -1.55446E+04 -2.47016E+03  7.12360E+03 -9.35179E+03  2.23828E+04  1.12225E+04
  1.00772E+04  3.53602E+04 -3.50648E+04  3.36660E+04 -5.87343E+04  1.37945E+03 -5.44204E+04 -3.50865E+04
 -1.19454E+04 -6.51331E+04  4.33801E+04 -4.15628E+04  5.68184E+04 -5.69314E+03  3.82053E+04  2.78401E+04
 -7.11119E+03  3.56700E+04 -3.03848E+04  1.23782E+04 -2.71340E+04 -4.79868E+03 -1.84805E+04 -1.56004E+04
 -6.18482E+03 -1.63328E+04 -1.41823E+03 -1.53915E+04  5.81175E+03 -2.09031E+04  2.03961E+04 -1.08937E+04
  8.31426E+03  9.37501E+03 -8.08703E+03  1.88937E+04 -1.85570E+04 -5.37074E+03 -2.18133E+03 -3.06117E+04
  2.53098E+04 -4.27743E+04  4.96164E+04 -2.19462E+04  4.75272E+04  1.91861E+04  1.60867E+04  4.46099E+04
 -1.61914E+04  3.68094E+04 -2.52454E+04  2.61821E+02 -1.11022E+04 -2.46255E+04  1.90695E+04 -3.47378E+04
  4.15467E+04 -9.05475E+03  3.24864E+04  2.13518E+04  1.59775E+04  4.87394E+04 -5.21726E+03  4.97008E+04
 -3.00081E+04  3.48644E+04 -4.34940E+04  1.17414E+04 -4.58516E+04 -1.42268E+04 -2.91940E+04 -4.01129E+04
  1.76126E+03 -3.79213E+04  3.39409E+04 -1.42804E+04  3.23382E+04  1.14732E+04  1.43993E+03  1.90490E+04
 -2.07404E+04  9.65644E+03 -4.71410E+03 -9.73082E+03  6.01618E+03 -9.65657E+03  1.79018E+04  5.91276E+03
  1.53595E+04  2.05336E+04 -6.90099E+03  2.31614E+04 -2.29486E+04  1.32431E+04 -3.28851E+04 -4.97375E+02
 -2.02529E+04 -2.01788E+04 -1.08831E+04 -1.68895E+04  5.46387E+03 -2.52967E+04  1.79758E+04 -1.85649E+04
  2.63695E+04 -1.56419E+04  3.48545E+04  4.17123E+03  2.03205E+04  2.26007E+04  9.29317E+03  2.87782E+04
 -1.76153E+04  2.91240E+04 -2.80298E+04  2.99872E+03 -2.31766E+04 -1.07684E+04 -5.12473E+03 -1.39985E+04
  2.03924E+03  3.60432E+02 -3.19027E+03  7.30513E+03 -1.86462E+04  3.25884E+03 -1.59005E+04 -6.52693E+03
 -1.26306E+04 -1.86326E+04  2.64077E+03 -2.28622E+04  1.32868E+04 -1.76972E+04  1.87877E+04  3.84357E+03
  1.08780E+04  1.73375E+04  8.23847E+02  1.98514E+04 -1.71970E+04  2.09362E+04 -2.11679E+04 -2.84915E+03
 -1.23044E+04 -1.95529E+04 -2.72133E+03 -2.36660E+04  1.21386E+04 -1.70415E+04  1.72576E+04 -1.44743E+04
  1.27235E+04 -2.51375E+03  1.43392E+04  5.71091E+02  2.89432E+03 -1.82378E+03  1.01003E+04 -6.19500E+02
  1.46944E+04 -1.30025E+03  1.63252E+04  1.57467E+04  1.26300E+04  3.30236E+04  6.17409E+02  3.74762E+04
 -2.07451E+04  2.80682E+04 -3.35763E+04  1.52416E+04 -3.39191E+04 -6.41895E+02 -2.48857E+04 -1.60807E+04
 -1.33123E+04 -3.18639E+04  8.19330E+03 -2.70657E+04  2.28676E+04 -1.56510E+04  1.85016E+04  1.60704E+03
  3.33686E+03  1.16897E+04 -1.03923E+04  1.52020E+04 -1.10760E+04  5.06496E+03 -1.22461E+04 -5.17959E+03
 -1.52624E+03 -2.24812E+04  2.66764E+03 -1.12884E+04  1.02753E+04 -2.63592E+03 -1.09980E+03  2.70958E+03
 -7.97567E+03  2.00159E+03 -2.63019E+03 -6.38105E+03 -2.20390E+03 -1.02033E+04  6.38271E+03 -1.22191E+04
  1.69006E+04 -5.42074E+03  2.03216E+04  1.89944E+03  1.58490E+04  1.21385E+04  8.25826E+03  2.03019E+04
 -2.19302E+03  2.28278E+04 -1.56870E+04  1.17536E+04 -1.37831E+04  1.70899E+03 -1.24048E+04 -4.16901E+03
 -4.04670E+03 -3.72937E+03 -5.49161E+03  4.50606E+03 -6.86105E+03 -2.47988E+03 -2.51532E+03  3.47872E+03
 -9.88303E+03 -1.10342E+03 -1.42448E+04 -9.94359E+03 -7.04973E+03 -1.33602E+04  7.97829E+03 -1.27111E+04
  1.33559E+04 -3.78870E+03  6.40480E+03  8.39022E+03  1.86756E+03  5.46261E+03 -8.36728E+03  3.17792E+03
 -4.07178E+03 -8.49946E+03 -2.34386E+03 -1.08537E+04  3.68239E+03 -1.69755E+04  1.58145E+04 -7.74880E+03
  1.86863E+04  8.64305E+01  1.40330E+04  1.41179E+04  1.18351E+03  1.32860E+04 -1.12773E+04  7.73267E+03
 -8.50783E+03  1.82474E+03 -5.38044E+03 -3.57738E+03 -8.50105E+02 -4.05588E+03  6.09480E+03 -1.27897E+03
  4.25758E+03  6.36962E+03 -3.21015E+03  9.11358E+03 -4.56624E+03  1.77777E+03 -1.26922E+04  4.24152E+03
 -6.82713E+03 -7.35714E+03  2.00830E+02 -5.61586E+03  7.10360E+03 -5.13492E+03  5.77204E+03 -1.42835E+03
  1.14026E+03  2.44641E+03 -6.01544E+03  5.06874E+03 -7.50932E+03  2.25109E+03 -8.80033E+03  1.20887E+03
 -3.56575E+03 -1.29321E+04  2.43336E+03 -7.34395E+03  1.25806E+04 -8.91752E+03  1.02578E+04  3.22874E+03
  1.06223E+04  1.02999E+04 -1.88991E+03  1.12233E+04 -3.87497E+02  6.50087E+03 -6.37574E+03 -5.36718E+02
 -5.65137E+03 -8.69683E+03  3.53504E+02 -8.96255E+03  8.29481E+03 -7.09398E+03  1.33165E+03  9.73080E+02
 -2.56187E+03  2.94252E+03 -4.09000E+02 -3.12097E+03 -1.84951E+03  9.85068E+02  2.50547E+03 -6.48714E+03
  7.73764E+03 -3.18320E+03  8.87101E+03  3.56748E+03  7.82172E+03  8.34585E+03  5.14936E+03  1.07279E+04
 -8.59509E+01  1.47083E+04 -1.32944E+04  9.83973E+03 -1.09000E+04  5.17381E+02 -9.83068E+03 -3.48816E+03
 -3.41810E+03 -8.82263E+03 -2.31038E+03 -1.00497E+04  1.82058E+03 -2.30161E+03  3.97001E+03 -4.77582E+03
  1.43516E+03 -6.91796E+03  3.87148E+03 -5.26383E+03  3.92100E+03  1.39663E+03  3.47318E+03  2.62990E+03
  4.78998E+03  5.75601E+03  1.19316E+03  3.05668E+03 -1.05845E+03  6.57012E+03 -2.18621E+03  2.14758E+03
 -8.99944E+03 -3.71142E+03 -4.08140E+03 -5.08149E+03 -3.38959E+02 -1.12012E+04  3.37235E+03 -8.29992E+03
  1.13082E+04 -5.07825E+03  7.30806E+03  2.62020E+03  1.13509E+04  2.21878E+03  5.90664E+03  1.19728E+04
 -1.54354E+03  1.05438E+04 -3.50914E+03 -2.29988E+00 -9.05911E+03  2.18741E+03 -4.53429E+03  3.02918E+03
  4.89644E+02 -3.75983E+03 -6.71496E+03  5.81433E+03 -2.89233E+03  1.98554E+03 -4.83843E+03 -1.25703E+03
  1.27592E+03 -2.42960E+03 -4.95001E+01 -9.78193E+03  7.34828E+03 -4.11602E+03  6.55580E+03 -4.91484E+03
  9.39628E+03  7.84781E+02  6.05428E+03  4.40055E+03  4.35834E+03  1.19835E+04 -6.41973E+03  5.88826E+03
 -7.24799E+03  2.91927E+02 -7.07329E+03 -7.61507E+03 -6.77988E+03 -1.01116E+04  1.69313E+03 -8.61974E+03
  2.94716E+03 -1.29100E+03  4.63417E+03  2.00306E+03  3.74195E+02  2.70359E+02 -1.71903E+02  4.06251E+03
  1.80475E+03  2.35409E+03  3.42687E+03  2.65565E+03  4.72674E+03  4.19356E+03  8.42544E+02  2.92108E+02
  2.14112E+03  8.80507E+03 -1.12438E+04  5.89744E+03 -9.63302E+03 -1.86368E+01 -7.03414E+03 -4.10111E+03
 -2.33065E+03 -9.68079E+03 -5.63334E+03 -1.01805E+04  5.37451E+03 -3.09807E+03  1.08685E+04 -7.31646E+02
 -2.38633E+03  2.28414E+03  3.75506E+02 -4.54895E+02 -1.53849E+03  5.37673E+03 -2.26246E+03  6.60429E+02
 -3.07595E+03 -5.45715E+03  1.88223E+03 -1.92370E+03  6.57733E+03 -2.85117E+03  5.89619E+03  1.77227E+03
  2.91538E+03 -6.03091E+02  1.23093E+03  1.18291E+04 -1.96793E+03  2.32655E+03  7.30490E+03  4.74630E+02
  1.61422E+03 -3.59209E+02  2.61248E+03  1.13747E+03 -2.64502E+03  6.48989E+03 -2.27623E+03  1.34733E+03
 -1.86465E+03 -1.19179E+03 -3.68750E+03  3.20403E+03 -8.91031E+03 -3.63368E+03 -1.55272E+02 -2.03975E+03
  5.76828E+03 -4.46056E+03  2.42863E+02 -9.38732E+02  1.08198E+03  2.12996E+03  1.67862E+03  4.25255E+03
 -3.20609E+03  4.86824E+03 -1.00755E+03  4.09930E+01 -3.30633E+03  1.33977E+03  1.11568E+03 -5.33940E+03
 -1.15001E+03 -1.77354E+03  3.20197E+03 -5.71766E+02  1.98313E+03 -1.97692E+03  2.79600E+03  1.81786E+03
  3.72384E+01 -5.07717E+03 -3.33953E+02 -3.30065E+03 -2.15063E+03 -2.09158E+03  2.55459E+03  2.25090E+02
  2.99204E+03  8.05022E+02  1.63029E+03 -8.29866E+02 -2.32390E+02  1.40798E+03 -4.34168E+03  3.07317E+03
 -4.72098E+03  1.27609E+03 -7.09938E+03 -2.72339E+03 -5.95941E+03 -4.17810E+03 -6.87879E+02  2.89006E+03
  4.53549E+03  1.29455E+03  9.15233E+02 -7.25210E+02  2.68864E+03 -3.63203E+02 -1.29772E+03 -3.30264E+01
 -2.97464E+02  1.55639E+03 -4.62743E+03  3.65136E+03  3.63399E+03  3.75611E+03 -3.92799E+03 -2.96799E+03
  1.34942E+02 -1.95398E+03 -1.11214E+03  3.64950E+03 -3.32157E+03  6.01405E+02 -8.80322E+03 -2.58402E+03
  1.97439E+03 -4.87173E+03 -4.28159E+03 -5.84830E+03  2.97587E+03 -7.56071E+03  4.59255E+03  2.97143E+03
  2.94503E+03  2.83952E+03  1.79626E+03  4.82422E+03 -1.82216E+03  5.37545E+03 -3.58000E+02  3.32825E+03
 -4.51874E+03  2.33209E+03 -1.80461E+03 -2.07968E+03  1.39355E+02 -2.00056E+03 -9.14079E+02  1.88968E+03
 -2.77284E+03 -5.58831E+03 -3.67576E+03  6.20716E+03 -2.24870E+03  7.32260E+02 -2.27339E+03 -1.01534E+03
  5.19974E+03 -3.45444E+03  2.35300E+03  7.43377E+02  4.61316E+03  2.98368E+03  7.17031E+02  5.90914E+03
  2.41222E+02  2.49085E+03 -4.35575E+03  3.39975E+03 -2.88563E+03 -2.08662E+03 -4.96180E+03 -3.17059E+03
  1.78692E+03 -2.95879E+03  3.88485E+03  8.74472E+02  1.92829E+03 -5.55203E+03 -9.16092E+02  6.00315E+03
  3.31049E+03 -3.98634E+02 -3.66791E+03 -2.29037E+01 -3.55108E+02 -1.44272E+03 -5.56099E+03 -1.56456E+03
 -3.57362E+03  1.17764E+03 -2.12290E+02  2.57072E+02  3.13495E+03  2.26847E+03  7.76565E+02  2.08914E+03
  3.40850E+01  5.81432E+03  2.26032E+02  4.86368E+02 -3.37915E+03  1.89230E+03  9.97854E+02  3.61833E+02
  4.27197E+03 -1.91370E+03  1.09821E+04 -3.41545E+03  1.91187E+03  1.72134E+03  5.46365E+03  3.20910E+03
 -2.45717E+03  7.52738E+02 -7.37923E+02 -2.55057E+03 -2.72038E+03  5.84842E+03  6.20473E+02  3.14927E+03
 -5.14388E+02 -2.14647E+03  9.08542E+02  4.56764E+03  1.95658E+03  7.02523E+02 -3.45023E+03  4.79196E+03
 -2.39061E+03 -5.03384E+01 -1.73115E+03 -5.39434E+03 -1.76000E+03 -6.28993E+03  4.15366E+03 -1.29044E+03
  1.15927E+03  1.61580E+02 -1.28809E+03  2.86501E+03 -9.59865E+02  1.82431E+03 -4.19751E+02  2.35600E+03
