 $NMID ID='MM_0lb_SNR50_14hz_g60_97.RAW', FMTDAT='(8E13.5)'
 TRAMP=1., VOLUME=1. $END
  3.12787E+05 -4.35941E+03  3.41346E+05  2.53533E+05  8.40592E+04  3.40467E+05 -1.31191E+05  2.46166E+05
 -1.95728E+05  8.53380E+04 -1.11031E+05 -3.47210E+04 -2.20145E+03 -5.00554E+04  5.37641E+04 -4.54927E+03
  3.06700E+04  5.74244E+04 -1.67627E+04  7.42968E+04 -6.30842E+04  6.37551E+04 -8.77411E+04  3.08026E+04
 -7.97867E+04 -8.37495E+03 -6.08931E+04 -5.27256E+04 -1.28338E+04 -6.72694E+04  3.29341E+04 -4.34527E+04
  4.58669E+04  4.19174E+03  1.76699E+04  5.10750E+04 -3.66403E+04  4.16409E+04 -6.72757E+04 -6.53491E+03
 -5.51316E+04 -5.77131E+04 -1.18202E+04 -7.37792E+04  3.09318E+04 -5.31905E+04  4.84815E+04 -1.34260E+04
  4.21073E+04  1.20012E+04  3.40949E+04  2.77219E+04  1.26978E+04  3.37086E+04 -7.02435E+03  2.53413E+04
 -2.55776E+04  6.35864E+03 -1.99358E+04 -9.10964E+03  8.67143E+03 -1.04865E+04  1.83001E+04  1.06693E+04
  4.87101E+03  3.34421E+04 -2.74876E+04  3.31952E+04 -5.97036E+04 -2.10581E+03 -5.40287E+04 -4.14168E+04
 -8.20020E+03 -6.27286E+04  4.19317E+04 -4.33066E+04  5.77372E+04 -3.69161E+03  3.71682E+04  3.43719E+04
 -4.04995E+03  3.71068E+04 -2.89052E+04  1.42458E+04 -3.27865E+04 -8.77807E+02 -1.69422E+04 -1.15427E+04
 -1.30894E+04 -1.27345E+04 -8.11016E+02 -1.75809E+04  5.63891E+03 -1.99691E+04  1.31441E+04 -1.68905E+04
  8.65590E+03  4.43184E+03 -6.63795E+03  6.95379E+03 -1.85203E+04 -8.79069E+03 -2.33881E+03 -3.86827E+04
  2.25065E+04 -4.65881E+04  5.17799E+04 -1.81969E+04  4.51527E+04  2.07920E+04  1.39623E+04  4.24725E+04
 -1.80973E+04  3.46190E+04 -2.59846E+04  7.32356E+03 -1.60595E+04 -2.48421E+04  1.86595E+04 -2.98661E+04
  4.22604E+04 -1.04606E+04  3.48598E+04  2.62599E+04  2.07954E+04  4.21930E+04 -8.01906E+03  4.63187E+04
 -3.41738E+04  3.29224E+04 -4.64479E+04  9.09875E+03 -4.36939E+04 -1.32239E+04 -1.99763E+04 -3.69513E+04
  5.83150E+03 -4.40626E+04  3.21433E+04 -1.71330E+04  3.56040E+04  9.25995E+03  2.76428E+03  1.74311E+04
 -1.16440E+04  4.39004E+03 -1.25582E+04 -1.41274E+04  2.37922E+03 -1.34661E+04  1.81064E+04  7.33114E+03
  1.68173E+04  2.37359E+04  2.72871E+02  2.05247E+04 -2.64086E+04  1.48672E+04 -2.34380E+04 -2.83131E+03
 -2.09377E+04 -1.77745E+04 -7.18628E+03 -1.83773E+04  5.32080E+03 -1.91941E+04  1.65786E+04 -1.97685E+04
  3.31640E+04 -1.37915E+04  4.08838E+04  3.01678E+03  2.72960E+04  2.47377E+04  3.51777E+03  3.68675E+04
 -1.48736E+04  3.45430E+04 -2.38670E+04  6.31821E+03 -2.20591E+04 -1.44167E+04 -2.57189E+03 -1.38430E+04
  5.69602E+03 -1.59317E+03 -2.80917E+03  9.40292E+03 -1.73106E+04  4.21608E+03 -1.82873E+04 -1.21223E+04
 -5.59333E+03 -2.78950E+04  3.71865E+03 -2.56868E+04  1.94401E+04 -1.51248E+04  2.49942E+04 -1.99466E+03
  1.31308E+04  1.13514E+04 -2.96706E+03  2.30086E+04 -1.57701E+04  1.28760E+04 -2.33009E+04 -4.03473E+03
 -1.26173E+04 -1.35632E+04 -2.21738E+03 -2.82956E+04  1.20448E+04 -1.48446E+04  2.32746E+04 -1.43030E+04
  1.77475E+04  4.22524E+03  1.52026E+04  4.16707E+03  4.82659E+03  4.83404E+03  2.05215E+04 -5.16838E+03
  1.94627E+04  1.84666E+03  2.07200E+04  1.78440E+04  2.18923E+04  3.26983E+04  3.97390E+02  3.72662E+04
 -2.06937E+04  2.74106E+04 -2.82138E+04  1.33035E+04 -4.08778E+04  9.93159E+02 -3.05781E+04 -2.18656E+04
 -4.93030E+03 -2.87847E+04  5.90015E+03 -2.69457E+04  1.60237E+04 -9.92815E+03  1.58246E+04  7.30772E+03
  2.36604E+03  1.51300E+04 -7.38412E+03  1.19584E+04 -1.36922E+04  3.85993E+03 -1.81057E+04 -1.35902E+04
  1.59198E+01 -1.42708E+04  9.05660E+03 -7.60453E+03  9.80721E+03  9.34045E+02  6.55958E+03  8.53315E+03
 -3.74745E+03  1.00387E+03 -3.32110E+03 -7.25570E+02 -1.95394E+03 -1.50881E+04  1.07281E+04 -1.40141E+04
  2.09291E+04 -3.97595E+03  1.79683E+04  2.91879E+03  2.25086E+04  1.26771E+04  8.73803E+03  2.47216E+04
 -4.94148E+03  2.78873E+04 -1.34754E+04  1.55938E+04 -1.24909E+04  1.45612E+03 -9.97558E+03 -7.30630E+03
 -4.08781E+03 -1.81828E+03  4.16305E+02  1.58854E+03 -5.02289E+03  2.20692E+03 -3.77002E+03  6.81867E+03
 -1.51562E+04  5.46539E+02 -1.24232E+04 -1.15217E+04 -4.45603E+03 -1.33079E+04  7.86986E+03 -1.43426E+04
  1.13617E+04 -4.32302E+03 -1.91581E+02  2.66729E+03 -2.43085E+03  2.81042E+03 -7.95102E+03 -2.17807E+03
  2.87588E+03 -1.31021E+04 -2.15013E+03 -1.22437E+04  2.49268E+03 -9.29014E+03  1.30278E+04 -7.59078E+03
  1.59272E+04  3.77569E+02  1.76222E+04  5.87298E+03  3.94591E+03  1.26409E+04 -9.85162E+03  1.29484E+04
 -5.32887E+03 -8.33879E+02 -9.55043E+03  2.82624E+02  9.48222E+02 -3.12301E+03  5.97049E+03 -3.05742E+03
  5.30170E+03  9.45726E+03  2.82332E+02  8.28156E+03 -5.23539E+03  9.39389E+03 -1.11931E+04  6.58812E+03
 -8.70666E+02 -4.39562E+03 -1.47097E+03 -1.03629E+04  6.06475E+03 -4.69983E+03  3.40006E+03  5.56757E+03
  2.50249E+03  4.97206E+03 -7.44721E+03  1.10627E+04 -1.23296E+04  3.91420E+02 -7.35634E+03 -9.76937E+02
 -5.17990E+03 -9.73758E+03  1.59528E+03 -1.13206E+04  9.45506E+03 -7.13458E+03  6.93145E+03 -3.94384E+02
  3.30263E+03  1.05151E+04  2.49331E+03  1.18273E+04 -1.08461E+04  4.45680E+03 -9.64245E+03  5.61771E+02
 -7.46280E+03 -8.86509E+03  1.63513E+03 -9.67811E+03  3.17114E+03 -6.89431E+03  5.62379E+03 -3.94765E+03
  1.07087E+03  1.83670E+03 -2.48621E+03  6.12483E+03 -5.43243E+01 -2.20776E+03  8.71995E+02 -4.46517E+03
  7.70066E+03 -3.78589E+03  1.38682E+04  5.07145E+02  1.35564E+04  6.57414E+03  6.82384E+03  1.55290E+04
 -1.81982E+02  2.02494E+04 -1.07686E+04  1.31068E+04 -1.98271E+04  3.79475E+03 -1.39696E+04 -6.18428E+03
 -7.63709E+03 -9.44483E+03 -5.36006E+01 -9.21345E+03  2.38822E+03  1.87577E+02 -2.27008E+03 -2.27937E+03
  5.94870E+03 -4.33891E+03 -1.30330E+03 -4.87541E+03 -8.01814E+02 -3.08455E+03  9.65634E+03 -4.24239E+03
  3.05599E+03  1.12646E+03  2.47535E+03  4.97068E+03 -4.82001E+03  3.87119E+03 -8.66223E+03  1.18994E+03
 -1.22118E+04  1.34329E+03 -1.00325E+04 -8.22211E+03 -5.25838E+03 -6.96754E+03  7.29953E+03 -7.47541E+03
  7.97007E+03 -5.36721E+03  1.77879E+04 -2.59684E+03  1.30842E+04  5.20557E+03 -4.18679E+02  1.27871E+04
 -5.05264E+03  1.00681E+04 -8.75578E+03  1.89662E+03  1.97885E+02 -3.83244E+03 -1.01718E+04 -2.97983E+03
  6.29842E+02  7.26537E+02 -3.72247E+02  1.74813E+03 -4.03618E+03  6.69930E+00 -1.06239E+04 -3.19303E+03
  8.02303E+02 -7.83391E+03 -9.51857E+00 -1.19744E+04  5.56905E+03 -3.55760E+03  5.64929E+03 -3.50924E+03
  6.06012E+03  8.06260E+03  4.51919E+02  9.02772E+03 -3.52400E+03  8.16367E+03 -1.00993E+04 -1.78570E+03
 -1.26025E+04 -2.68052E+03 -6.79108E+03 -8.13615E+03  7.40843E+01 -1.14102E+04  2.86709E+03 -4.86591E+03
  5.32011E+03 -1.41384E+03  5.21369E+03 -1.98716E+03  3.86805E+03  2.93881E+03  1.51118E+02  3.26866E+03
  4.63295E+03  5.16920E+03  3.64538E+03  7.59375E+02  4.99939E+03  2.87864E+03  3.89362E+03  4.01061E+03
 -1.09520E+03  4.97710E+03 -7.02209E+03  7.04269E+03 -7.59339E+03  3.89935E+03 -7.88945E+03  1.19015E+03
 -4.72501E+03 -5.54696E+03  4.24696E+03 -1.00874E+04  1.36385E+03 -4.76962E+03  9.88572E+03 -2.32249E+03
  1.98785E+03  3.97702E+03  1.67130E+03  2.23408E+03 -1.51372E+03  2.11480E+03 -2.88877E+03 -1.31921E+03
 -2.56254E+03 -5.18416E+03  2.23870E+03 -7.09138E+03  3.00234E+03 -1.12143E+04  1.03065E+04  7.32900E+02
  5.90133E+03  3.44614E+03  4.12865E+03  3.05760E+03 -1.65650E+02  1.20933E+02 -1.17042E+03  4.37227E+03
  3.47238E+03  8.04733E+01  4.67111E+03 -2.69513E+01 -9.40420E+01  6.90256E+03  4.30693E+03 -6.96899E+01
 -2.47897E+03 -2.14200E+03 -4.06024E+03  4.78348E+03  5.14634E+02 -5.72705E+03  4.34565E+02 -2.93177E+03
 -3.42253E+01 -4.26486E+03  1.47122E+03 -3.07339E+03 -1.93690E+02  2.22380E+03 -3.81527E+03  3.71739E+03
  9.91536E+02 -4.21642E+02 -4.06683E+03 -3.08905E+03 -3.60341E+02 -8.34189E+03  3.48487E+02 -2.07767E+03
 -4.60299E+02 -4.64820E+03  6.07671E+02  8.56803E+02  1.78788E+03  2.95415E+03 -4.93578E+03  1.18034E+03
 -6.11072E+03  3.68365E+03 -2.21047E+03 -4.30294E+02 -1.38876E+03  4.68509E+02  3.74942E+03 -1.36833E+03
  5.51609E+03  4.07325E+03  6.88893E+03  3.99995E+03  2.44059E+03  6.53128E+02 -1.44737E+03  3.04544E+03
 -4.66310E+03  5.81310E+02 -6.17935E+03 -2.53776E+03  2.50415E+03 -1.99171E+02 -3.37871E+02 -5.02785E+03
 -1.77162E+03 -1.07055E+03  3.81628E+03  2.47472E+03  1.91680E+03  2.51439E+03  4.43970E+03 -9.64792E+02
  3.92709E+03  7.93051E+03 -3.36382E+03 -3.61081E+03 -4.03804E+02  1.82448E+03 -2.04161E+03 -1.78069E+03
 -3.77904E+03  1.63498E+03 -4.34150E+03  7.28475E+03 -2.60679E+03  3.90900E+03 -6.45851E+03 -4.56654E+03
 -9.40810E+03 -6.12065E+03  2.81338E+02 -7.85046E+03  5.90524E+03 -6.38810E+03  2.22243E+03 -5.96099E+03
  2.47694E+03  2.72351E+03  2.59552E+03  8.26149E+03 -1.62264E+03  2.76619E+03  7.58649E+02  6.79297E+03
 -2.80771E+03 -1.67966E+03  7.69236E+02 -2.18085E+03 -1.43912E+03 -4.11891E+03 -1.94522E+03 -4.34778E+03
 -4.18934E+03 -8.81712E+02  1.57791E+03 -1.13836E+03  4.78954E+03 -1.43515E+03 -1.87200E+03 -5.77912E+03
  3.90512E+03 -2.45215E+03  2.07032E+03  2.17712E+03 -3.08469E+03  1.52403E+03  2.46799E+03  2.75225E+03
 -6.92223E+03  6.75293E+03 -6.07619E+01  1.01991E+03 -2.67868E+03  2.24449E+02 -9.58576E+02 -2.91946E+03
 -3.86162E+03 -6.00047E+03  8.88251E+02 -2.55495E+03 -3.08455E+02 -5.27752E+03 -1.94672E+03 -2.12562E+03
 -5.36178E+02  2.40043E+03  9.74903E+02 -3.92026E+02  1.57096E+02 -5.09291E+03  2.48886E+03 -9.92229E+02
  3.79630E+03 -7.88101E+02  5.12679E+03  2.97048E+03  1.36701E+03  1.91329E+03 -1.13136E+03  5.38261E+03
 -4.03966E+03 -5.21834E+02 -3.79023E+03  1.97728E+03  1.00468E+03 -3.01615E+03 -4.16084E+03 -2.97434E+03
  5.67269E+01 -5.76175E+03  3.34725E+03  3.83568E+03  2.28698E+03  7.69340E+03 -5.46987E+02  1.62728E+03
  2.31568E+03  6.19329E+03 -2.10521E+03  1.50924E+03 -9.08193E+02  3.16695E+03 -2.82979E+03 -7.01212E+01
 -4.63149E+03 -4.57976E+03  5.53035E+01  1.78032E+02 -2.30088E+03  1.91778E+03 -1.92755E+03 -1.46107E+03
 -1.21577E+03  1.71097E+03  2.88717E+03 -6.82908E+03  1.28553E+03 -5.24927E+03  5.51045E+03 -5.50115E+03
  3.33772E+03 -2.15756E+03  3.84864E+02 -1.44202E+03 -2.22903E+03  2.13683E+03 -4.59575E+03  4.88470E+03
