 $NMID ID='MM_0lb_SNR50_12hz_g55_44.RAW', FMTDAT='(8E13.5)'
 TRAMP=1., VOLUME=1. $END
  3.07338E+05  5.27506E+03  3.34988E+05  2.47861E+05  8.01729E+04  3.33252E+05 -1.35337E+05  2.48354E+05
 -1.92951E+05  8.52968E+04 -1.16063E+05 -3.72418E+04  1.82534E+03 -4.90147E+04  5.07184E+04  2.52757E+03
  3.67720E+04  5.57188E+04 -1.64837E+04  7.46293E+04 -6.27061E+04  6.33510E+04 -8.32350E+04  2.95312E+04
 -8.41913E+04 -1.22768E+04 -5.24361E+04 -5.10809E+04 -1.99203E+04 -7.13096E+04  3.23795E+04 -4.61786E+04
  4.20202E+04  9.66792E+02  1.28404E+04  4.61242E+04 -3.76973E+04  5.04422E+04 -6.49400E+04 -4.22428E+02
 -5.55982E+04 -5.30785E+04 -8.95896E+03 -7.44831E+04  2.93980E+04 -6.00418E+04  4.84338E+04 -1.53295E+04
  4.78524E+04  1.50283E+04  3.17374E+04  2.59436E+04  1.33546E+04  2.81399E+04 -5.71423E+03  2.59975E+04
 -1.84831E+04  1.12350E+04 -1.61500E+04 -7.18100E+03  1.06311E+04 -5.37777E+03  2.82790E+04  1.05191E+04
  1.21703E+04  4.00385E+04 -3.62350E+04  3.47312E+04 -6.44088E+04  3.48074E+03 -6.00557E+04 -4.40761E+04
 -1.26633E+04 -6.11133E+04  3.71710E+04 -4.74946E+04  5.92015E+04 -7.75681E+02  3.51246E+04  4.02851E+04
 -8.20562E+03  4.10500E+04 -2.48395E+04  2.28058E+04 -3.41360E+04 -2.89040E+03 -1.61281E+04 -1.34681E+04
 -7.56285E+03 -1.48003E+04 -9.55159E+02 -1.74068E+04  7.82517E+03 -2.34415E+04  1.26642E+04 -1.92830E+04
  6.09757E+03  1.08065E+04 -1.46308E+04  1.46129E+04 -2.05883E+04 -7.34478E+03 -9.46195E+03 -3.63520E+04
  2.53019E+04 -4.80573E+04  5.24853E+04 -1.95916E+04  4.56879E+04  1.95682E+04  1.75586E+04  4.31914E+04
 -1.52404E+04  3.42155E+04 -1.89546E+04 -3.95501E+03 -1.43261E+04 -2.75808E+04  2.13744E+04 -2.81542E+04
  4.36900E+04 -1.19257E+04  4.27616E+04  2.43326E+04  2.09850E+04  5.49865E+04 -1.39679E+04  4.63694E+04
 -3.33389E+04  3.73592E+04 -4.65005E+04  8.75645E+03 -4.33633E+04 -1.65552E+04 -2.62381E+04 -4.62211E+04
  5.66388E+03 -4.04306E+04  3.73968E+04 -2.24537E+04  2.96601E+04  1.42571E+04  6.49550E+03  1.81323E+04
 -1.37429E+04  8.97920E+03 -9.17192E+03 -5.96565E+03  4.38230E+03 -1.21156E+04  1.98383E+04  6.09753E+03
  1.16637E+04  2.09817E+04 -3.53909E+03  2.90114E+04 -2.39803E+04  1.75577E+04 -3.07078E+04 -2.80149E+03
 -2.52524E+04 -1.27610E+04 -4.56398E+03 -2.19148E+04  4.65008E+03 -2.71280E+04  1.61231E+04 -1.96534E+04
  3.23016E+04 -8.30493E+03  3.29126E+04 -3.23768E+02  2.21066E+04  2.56058E+04  7.44676E+03  3.56279E+04
 -2.04745E+04  2.53550E+04 -2.85270E+04  9.19919E+03 -2.29452E+04 -1.14498E+04 -5.28402E+03 -8.63282E+03
  6.60365E+03 -1.95050E+03 -7.48015E+03  1.00956E+04 -1.83802E+04  5.12014E+03 -2.44479E+04 -7.42627E+03
 -5.88780E+03 -2.00315E+04  6.23005E+03 -2.41718E+04  1.97619E+04 -1.73987E+04  1.95813E+04 -5.87062E+02
  9.46712E+03  1.45631E+04 -1.14502E+03  2.12623E+04 -2.17653E+04  1.06829E+04 -1.70791E+04 -5.78749E+03
 -1.16626E+04 -2.15373E+04 -5.07956E+03 -2.76559E+04  1.77157E+04 -2.14267E+04  1.89997E+04 -1.27796E+04
  2.18347E+04 -2.67514E+02  1.51985E+04  5.55629E+03  8.14390E+03  1.14173E+03  8.69364E+03 -7.11662E+03
  1.91660E+04  2.40443E+02  2.24020E+04  1.43223E+04  1.13086E+04  3.12152E+04 -5.73348E+03  3.83520E+04
 -1.73563E+04  2.99144E+04 -4.21675E+04  1.40010E+04 -3.74707E+04 -6.17150E+03 -3.09416E+04 -2.43615E+04
 -1.42111E+04 -3.62701E+04  1.31993E+04 -2.59513E+04  2.76719E+04 -1.65954E+04  2.32124E+04  4.82681E+03
  6.69646E+03  1.91601E+04 -8.34500E+03  1.24465E+04 -1.90007E+04 -1.75388E+03 -1.02380E+04 -7.98062E+03
 -7.44178E+02 -9.12390E+03  1.17268E+04 -1.17886E+04  9.04778E+03  3.50386E+03  1.14558E+03  6.94305E+03
 -7.88093E+03  9.04424E+03 -9.86435E+03 -1.19470E+03 -3.47826E+03 -1.15126E+04  1.57098E+04 -2.09037E+04
  1.49393E+04 -1.08260E+04  2.06450E+04 -2.06150E+02  2.08919E+04  1.24141E+04  4.48013E+03  2.95465E+04
 -4.00678E+03  2.00047E+04 -1.55683E+04  1.61166E+04 -2.17519E+04  3.54061E+03 -1.23695E+04 -9.91451E+03
 -1.13355E+04 -4.38770E+03  5.10226E+02  2.04081E+03 -4.32403E+03  4.92049E+03 -5.48534E+03  5.61809E+03
 -1.27983E+04 -4.01061E+03 -1.74720E+04 -7.10505E+03 -4.03167E+03 -2.04517E+04  1.72976E+03 -8.72504E+03
  1.24394E+04 -7.18634E+03  5.51599E+03  1.88014E+03 -1.14429E+03  7.38201E+03 -7.15951E+03  2.67851E+03
 -7.54185E+03 -9.86571E+03 -3.34450E+02 -8.40771E+03  7.27441E+03 -1.31043E+04  1.71748E+04 -6.25039E+03
  1.89474E+04  2.36092E+03  7.97762E+03  1.38889E+04  4.56581E+03  1.67128E+04 -6.81075E+03  9.35954E+03
 -1.24874E+04  5.53155E+03 -4.94540E+03 -4.99740E+03 -1.76352E+03 -3.11982E+03  1.67175E+04 -3.20363E+03
  1.46022E+03  7.44787E+03  4.18124E+03  5.64720E+03 -1.08036E+04  9.70298E+03 -1.30930E+04  2.78642E+03
 -8.77982E+03 -6.34926E+03  5.18853E+02 -8.89109E+03  5.04961E+03  8.45883E+01  5.83625E+03 -1.75598E+03
  4.06155E+03  6.92912E+03 -5.67045E+03  1.30276E+04 -1.08598E+04  3.46380E+03 -1.02008E+04 -5.27955E+03
 -5.60797E+03 -1.32607E+04 -1.71574E+03 -7.90098E+03  8.80575E+03 -7.78899E+03  1.09336E+04  2.93413E+03
  7.55213E+03  9.88422E+03  3.28660E+03  1.33719E+04 -6.84757E+03  6.21270E+03 -1.48693E+03 -4.98745E+03
 -1.25759E+04 -4.60200E+03 -4.59925E+03 -1.11792E+04  5.94831E+03 -9.13734E+03  6.08426E+03 -3.26951E+03
 -4.69355E+01  5.28784E+02  1.76021E+03  2.09111E+02 -1.65003E+03 -2.96229E+03 -6.97109E+02 -7.31371E+03
  8.62361E+03 -5.00008E+03  1.66649E+04  1.02004E+03  1.11038E+04  5.96993E+03  4.90717E+03  1.92327E+04
 -5.23927E+03  2.22891E+04 -1.18228E+04  1.36332E+04 -1.82226E+04  2.34924E+03 -1.19666E+04 -1.69762E+03
 -7.12002E+03 -1.14585E+04 -1.74873E+03 -1.23040E+04  5.81587E+03 -1.63842E+03  1.90960E+03 -3.55820E+03
  4.35532E+03 -1.04862E+03  6.66174E+03 -4.15998E+02  3.97669E+03 -3.09105E+03  8.19549E+03  1.01485E+03
  6.26266E+03  2.95272E+02  7.58673E+03  1.02414E+04  5.07062E+02  8.77611E+03 -1.13947E+04  7.06325E+03
 -1.31612E+04 -1.55703E+03 -1.11104E+04 -1.19548E+04 -6.83750E+03 -8.00306E+03  7.53018E+03 -1.35777E+04
  1.37163E+04 -1.02385E+04  1.29109E+04  5.44052E+03  9.87321E+03  1.42161E+04 -3.63103E+03  1.45508E+04
 -1.13691E+04  1.13496E+04 -1.03842E+04  6.71998E+03 -2.43586E+03 -5.46778E+03 -1.62383E+03 -2.41469E+03
  2.32473E+03  1.44285E+03 -3.32082E+03  2.28034E+03 -4.04742E+03  3.67067E+03 -1.15264E+03  1.33344E+03
 -3.18776E+03 -6.71434E+03  1.71846E+03 -1.26007E+04  5.45715E+03 -1.15245E+04  9.36606E+03 -2.81285E+03
  4.53680E+03  5.23045E+03  2.09149E+03  1.08696E+04 -7.27688E+03  1.18265E+04 -3.42035E+03  6.45948E+03
 -1.24369E+04 -2.82823E+02 -8.71041E+03 -6.15543E+03 -5.79272E+03 -1.21063E+04  4.23914E+02 -8.45668E+03
  5.35364E+03 -1.59046E+03  7.55751E+03  6.56806E+03  3.14572E+02  4.50735E+03  3.09365E+03  3.36337E+03
 -6.18620E+01  3.35906E+03  5.03162E+03 -5.27841E+03  5.37930E+03  6.12655E+03  4.30305E+03  9.59600E+03
 -7.68170E+03  4.77073E+03 -9.10140E+03  3.96086E+03 -6.38188E+03  6.33856E+03 -1.05558E+04 -7.85682E+03
 -1.02777E+04 -4.38444E+03  1.35203E+03 -1.28419E+04  1.04713E+04 -9.92693E+03  7.25902E+03  3.22588E+03
  4.93451E+03 -4.11234E+02  1.73815E+02  5.59610E+03 -5.94596E+03  2.93807E+03 -5.67907E+03  2.22586E+03
 -6.30089E+03 -8.93289E+02  4.33419E+03 -1.26285E+03  7.01777E+03 -2.44042E+03  3.45303E+03  5.63737E+02
  2.90664E+03  2.11821E+03 -4.55755E+03  5.38302E+02  1.75939E+03 -1.87544E+03  8.60526E+01  4.98069E+03
 -1.59470E+03  8.96828E+02  3.18467E+03  2.19274E+02 -2.33104E+03  3.13264E+03  2.82422E+02  8.81652E+03
 -1.67705E+03  8.54745E+02 -9.78645E+03  1.95187E+03 -5.02725E+03  6.15891E+03  6.62258E+02 -4.46817E+03
  4.89760E+03 -4.15886E+03 -2.53930E+03 -2.79413E+03 -1.29639E+03  1.02159E+03 -2.63622E+03  4.11560E+03
 -5.14869E+03  3.30846E+03 -1.12963E+04 -1.40251E+03 -1.82159E+03 -7.87894E+03  1.27871E+03 -3.22937E+03
  3.87822E+02 -4.51156E+02  1.88446E+03 -8.14715E+02  1.72692E+03  1.07379E+03  4.06921E+03  7.98249E+03
  4.87081E+02 -1.72708E+03 -1.27912E+02 -2.79044E+03  4.26063E+02 -1.52778E+03  6.86623E+03 -4.18940E+03
  7.17144E+03  3.94569E+03  1.00894E+04 -1.13224E+03  1.81673E+03  6.36075E+03 -6.55502E+02  1.42653E+03
 -7.38722E+03  3.56314E+03 -2.80332E+03  1.56653E+03 -4.72465E+03 -2.30413E+03  2.27523E+03 -5.91769E+03
  5.56119E+03  1.45890E+03  3.61750E+03  1.66606E+03  1.30541E+03  2.91214E+03 -3.44026E+03  7.18529E+03
 -5.47400E+03 -8.72094E+02 -4.84178E+03  7.45105E+02  9.58355E+01  2.83160E+03  5.97641E+03 -4.12536E+01
  1.42294E+03  1.89919E+03 -3.10067E+03  1.77306E+03 -1.06019E+04  2.16779E+03 -4.92314E+03 -5.78167E+03
 -6.25683E+03 -1.08433E+04 -5.07808E+02 -6.45707E+03  3.58143E+03 -1.38546E+03  9.47880E+03 -2.92836E+03
  8.65671E+03  1.21568E+03  7.59368E+03  6.98608E+03 -3.98440E+03  6.68564E+03 -4.39858E+03  7.16725E+03
 -3.76023E+03  1.04875E+03  9.88394E+02 -3.63756E+03 -3.74676E+03  2.10434E+03 -4.56119E+03 -4.95826E+03
 -1.99191E+03  4.34256E+03 -8.98656E+02 -6.27257E+02 -2.50853E+03 -2.40872E+03  8.83025E+02 -5.53506E+03
  3.27014E+03 -3.17173E+02  5.70910E+03 -5.67985E+03  1.91870E+03  2.89284E+03  3.57367E+03  3.80089E+03
 -1.50539E+03  4.44211E+03 -5.62053E+03  4.66964E+03 -1.05466E+04  3.17398E+03 -9.15223E+03 -7.28376E+03
 -2.21112E+03 -5.41560E+03  1.18665E+02 -5.97414E+03  1.51789E+03 -8.06505E+03  5.69323E+03  5.92657E+03
  8.04338E+02  7.27658E+03 -4.82800E+03  2.22913E+03  3.52903E+03 -2.33512E+03 -1.00178E+03 -4.04434E+03
  2.31519E+03 -2.61228E+02  9.74001E+02 -1.93132E+03  3.83113E+03  1.38151E+03  1.62340E+03  4.03702E+03
 -8.01748E+03  5.32368E+03 -9.85762E+02 -2.97288E+03 -1.85534E+02 -4.84902E+03 -2.00273E+03 -5.06506E+03
  2.49291E+03 -3.80002E+03  8.66333E+03 -1.59719E+03  6.10032E+03 -1.03002E+03 -2.56059E+03  2.03523E+03
  7.56346E+02 -9.37990E+02  3.03505E+03  4.83833E+03 -2.84603E+03 -7.02572E+01  1.92407E+03 -9.75936E+02
  3.91595E+03 -4.17170E+03  5.13136E+03  5.24134E+03 -4.27120E+02  5.16994E+03 -3.71689E+03 -2.86225E+03
 -4.09714E+03 -1.69580E+02  3.36161E+03 -6.48725E+03  2.69464E+03 -3.73746E+03 -2.96508E+01 -1.19323E+03
  8.06098E+03 -1.13823E+03  2.97734E+03  5.16407E+03  3.41780E+03  4.52546E+03  2.16475E+03  5.01173E+03
