 $NMID ID='MM_0lb_SNR50_19hz_g50_100.RAW', FMTDAT='(8E13.5)'
 TRAMP=1., VOLUME=1. $END
  3.10647E+05 -1.18884E+03  3.41637E+05  2.50971E+05  8.55387E+04  3.38457E+05 -1.27149E+05  2.50506E+05
 -1.87225E+05  8.49553E+04 -1.11013E+05 -3.42675E+04  1.49264E+03 -4.52279E+04  5.55008E+04 -2.16641E+03
  3.10305E+04  5.18808E+04 -1.88820E+04  7.72068E+04 -6.31274E+04  6.49923E+04 -8.37527E+04  3.45959E+04
 -7.95743E+04 -1.27705E+04 -5.20094E+04 -4.92313E+04 -1.64519E+04 -6.55301E+04  2.82132E+04 -4.64556E+04
  3.84922E+04  5.42267E+03  1.58089E+04  4.76410E+04 -3.55754E+04  4.33224E+04 -6.58723E+04 -1.03587E+03
 -4.69528E+04 -5.35752E+04 -6.15064E+03 -7.21757E+04  3.38163E+04 -5.27806E+04  4.62992E+04 -1.70687E+04
  4.26946E+04  1.40384E+04  2.94941E+04  2.24435E+04  1.67351E+04  2.83508E+04 -2.95667E+03  2.56567E+04
 -2.11535E+04  1.28380E+04 -2.24539E+04 -7.25321E+03  5.16011E+03 -1.61303E+04  2.16327E+04  7.69697E+03
  3.96666E+03  3.48910E+04 -3.16909E+04  3.30570E+04 -6.20021E+04  2.87116E+03 -5.55906E+04 -4.34155E+04
 -1.10730E+04 -5.96673E+04  3.70697E+04 -4.35037E+04  5.97368E+04 -3.10827E+03  3.04056E+04  2.99467E+04
 -4.42593E+03  3.63616E+04 -3.14547E+04  1.27642E+04 -2.64283E+04 -2.60597E+03 -1.17671E+04 -9.29593E+03
 -7.14412E+03 -1.23470E+04 -3.44309E+02 -1.29218E+04  1.41453E+03 -2.12229E+04  1.85146E+04 -1.24037E+04
  9.59508E+03  3.78825E+03 -9.96122E+03  1.18880E+04 -1.80276E+04 -5.50034E+03 -6.19661E+03 -2.53776E+04
  1.87277E+04 -3.99744E+04  4.39443E+04 -1.36557E+04  4.05804E+04  1.97971E+04  1.47791E+04  3.88579E+04
 -1.77444E+04  3.59675E+04 -2.13563E+04  1.32356E+03 -9.69039E+03 -2.98275E+04  1.84951E+04 -2.92805E+04
  4.02684E+04 -1.18587E+04  3.35316E+04  2.47824E+04  1.70601E+04  4.54640E+04 -1.04732E+04  4.35948E+04
 -2.62710E+04  2.91545E+04 -4.02327E+04  1.27920E+04 -3.85553E+04 -1.59129E+04 -2.30619E+04 -3.12446E+04
  8.03597E+03 -3.12800E+04  2.97311E+04 -1.34945E+04  2.87925E+04  4.67502E+03  2.87980E+03  1.56034E+04
 -1.40394E+04  1.24414E+04 -9.28534E+03 -7.58676E+03  1.00105E+04 -1.01016E+04  1.83658E+04  7.22670E+03
  1.41108E+04  2.28382E+04 -4.62922E+03  2.32212E+04 -2.07350E+04  8.61318E+03 -2.64469E+04 -5.70246E+03
 -1.82570E+04 -2.16114E+04 -8.20361E+03 -1.81541E+04  8.88454E+03 -1.61842E+04  1.20790E+04 -1.60449E+04
  1.61209E+04 -1.16281E+04  2.82033E+04 -1.47111E+03  2.21743E+04  1.81615E+04  6.98653E+03  3.24363E+04
 -1.75736E+04  2.71225E+04 -2.76771E+04  8.97255E+03 -2.26509E+04 -1.13291E+04 -1.70293E+03 -1.06169E+04
  3.21180E+03 -3.37084E+03 -7.66461E+03  4.79526E+03 -1.25220E+04  6.86083E+03 -1.24476E+04 -3.88730E+03
 -9.32664E+03 -1.46292E+04  7.31694E+03 -1.50675E+04  1.28416E+04 -1.33106E+04  8.04627E+03 -6.87326E+02
  1.57412E+04  1.34975E+04  4.13758E+02  2.03166E+04 -1.29992E+04  9.10891E+03 -1.81875E+04  1.46513E+03
 -4.63534E+03 -1.37139E+04 -1.99448E+03 -2.12320E+04  1.35415E+04 -1.47530E+04  1.28037E+04 -6.57828E+03
  1.44242E+04 -4.60266E+02  1.22325E+04  1.60219E+03  5.47144E+03  2.67896E+03  9.40423E+03  2.55321E+03
  1.03501E+04  4.25086E+03  1.54736E+04  1.12239E+04  9.08273E+03  2.88858E+04 -1.94913E+03  2.61022E+04
 -1.38396E+04  2.26640E+04 -2.57285E+04  1.17245E+04 -2.96507E+04 -3.07703E+03 -2.31841E+04 -9.72771E+03
 -1.04264E+04 -2.32717E+04  8.43660E+03 -1.97670E+04  1.90081E+04 -7.94816E+03  1.68718E+04  6.55061E+03
  8.12974E+03  7.08383E+03 -6.53787E+03  1.11435E+04 -1.51718E+04 -1.06083E+03 -6.33948E+03 -9.89039E+03
 -8.16644E+02 -1.66507E+04  1.76777E+03 -7.14612E+03  8.02625E+03 -6.33756E+02  1.96056E+02  7.62629E+03
 -4.76267E+03  7.17408E+03 -6.83098E+03  5.36525E+02 -1.18592E+03 -7.54470E+03  6.84210E+03 -9.81126E+03
  9.87551E+03 -4.20544E+03  9.20533E+03  2.02550E+03  1.25447E+04  7.69420E+03  2.59954E+03  1.22789E+04
 -1.72826E+03  1.59042E+04 -1.20747E+04  1.37526E+04 -1.19199E+04 -2.34003E+03 -7.22804E+03 -6.04209E+03
 -2.56541E+03 -4.38119E+03  2.51861E+03  5.89625E+03 -2.05125E+03 -2.29090E+03 -2.20393E+03  1.06314E+03
 -8.43358E+03 -1.39747E+03 -7.86944E+03 -7.76285E+03 -4.02402E+03 -1.16665E+04  5.48999E+03 -1.40069E+04
  8.01895E+03 -1.49397E+03  7.61631E+03  2.94123E+03  9.78551E+02  2.02277E+03 -4.24616E+03  1.40649E+03
 -3.00475E+03 -5.79497E+03 -2.15070E+03 -5.81257E+03  3.34948E+03 -7.79574E+03  7.85304E+03 -4.91211E+03
  1.21223E+04 -4.22136E+03  5.38057E+03  9.58611E+03  3.47406E+03  7.41909E+03  4.60626E+02  6.19723E+03
 -8.16085E+03  4.02414E+01 -1.06989E+03 -1.85804E+03 -5.22749E+02 -1.82971E+03  5.41593E+03  5.15147E+02
  4.95786E+03  4.57695E+03  4.49521E+03  6.18355E+03 -8.46548E+03  7.40607E+03 -7.64595E+03  2.46208E+03
 -3.25414E+03 -1.42391E+03 -2.17628E+01 -8.46307E+03  4.72058E+03 -6.51439E+03  2.73458E+03  4.16625E+03
  4.53617E+03  2.15369E+03 -5.39148E+03  4.79984E+03 -8.17032E+03  3.09669E+03 -5.77728E+03 -3.09413E+03
 -2.58328E+03 -4.94619E+02 -3.86406E+02 -8.51921E+03  6.44268E+03 -4.56771E+03  6.04551E+03  6.04116E+02
  4.50551E+03  5.45117E+03 -9.96953E+02  9.84522E+03 -2.95621E+03  2.48983E+03 -4.90102E+03 -2.00279E+02
 -7.30980E+03 -4.62240E+03 -4.69275E+03 -2.69440E+03  2.82424E+03 -3.23096E+03 -1.16367E+02 -4.46399E+03
  4.87224E+03  2.15335E+03  6.11637E+03 -1.14841E+03  4.08721E+02 -2.45624E+03  1.19612E+03  7.92154E+02
  7.63921E+03 -3.35303E+03  5.36189E+03  1.06009E+03  1.96191E+03  4.71905E+03  4.62463E+03  7.80561E+03
 -3.59925E+03  6.74426E+03 -6.60328E+03  1.03118E+04 -6.69702E+03  2.20962E+03 -8.08037E+03  1.58141E+02
 -5.11550E+03 -2.28200E+03  1.06021E+03 -1.09178E+04  4.46731E+03 -4.04302E+03  4.24309E+03 -5.58057E+02
  2.90514E+03 -4.31314E+03  4.33752E+02 -5.37895E+02  1.35036E+03 -5.44756E+02  1.28572E+03  2.89345E+03
  2.50845E+03  5.07182E+02  3.56650E+03  2.19580E+03 -3.90766E+03  6.06976E+03 -1.35260E+03 -9.21170E+02
 -5.32278E+03 -4.28989E+02 -2.44177E+02 -4.81287E+03 -6.29090E+02 -4.48960E+03  3.82226E+03 -3.77599E+03
  2.78340E+03  2.15068E+03  4.81000E+03 -4.52790E+03  2.16261E+03  3.21331E+03  1.08185E+03  7.86902E+03
 -2.94917E+03  7.32625E+03 -6.12448E+02  4.21883E+03 -4.43376E+03 -3.65595E+03 -1.84397E+03  1.64443E+01
  5.00481E+02 -2.42102E+03 -4.77376E+03  1.21809E+03 -2.75904E+03 -5.16216E+02  1.08694E+01  1.29197E+02
 -5.76283E+03 -6.98323E+03 -1.45286E+03 -7.94369E+03  4.45912E+03 -3.11520E+03  1.46185E+03 -3.39363E+03
  4.39506E+03  2.99382E+03 -2.78114E+03  3.48868E+03  9.56455E+02  4.52006E+03 -4.63297E+03 -5.37408E+01
 -3.57903E+03  2.51115E+03 -4.40242E+02  1.52282E+03  3.29549E+03 -4.63131E+03  2.33773E+03  5.87507E+02
  1.03171E+03 -4.23038E+03  2.03987E+03  9.63504E+02  4.57683E+02  2.71358E+03  2.92210E+03  1.82598E+03
  4.18778E+02  2.37786E+02  4.01396E+03 -1.70241E+03 -2.73405E+03  3.24305E+03 -6.22504E+02  1.09697E+03
 -1.55249E+03  2.26359E+03 -4.13086E+03  5.17644E+03 -2.48221E+03  1.46657E+03 -1.72055E+03  7.31860E+02
  6.12009E+02 -4.61294E+03  1.73326E+03 -2.45556E+03  1.28839E+03 -3.27387E+03  3.91290E+03 -2.38029E+03
  6.78908E+03  7.15870E+03  2.46166E+03 -1.76123E+03  4.36050E+03  9.40015E+02 -4.13338E+02 -1.48278E+03
 -1.19861E+03  2.83712E+03  6.92976E+02 -6.23870E+00 -2.68560E+03 -5.82827E+01 -2.72653E+02  2.41265E+03
 -2.18874E+03  4.12326E+03  1.92264E+03  4.96487E+03 -6.49526E+02  3.14591E+03  5.62685E+02  1.34400E+02
  4.32305E+03  2.73946E+03  3.11634E+03  9.53496E+02  6.54591E+02  2.52403E+03 -2.43121E+03  2.14854E+03
 -1.85506E+03 -3.68669E+02 -2.95146E+03  3.31962E+03 -6.32570E+03  1.55232E+03 -5.04659E+02  1.34776E+03
 -1.41192E+02 -8.42538E+02  5.93327E+02  2.61976E+03 -2.10493E+03  3.01325E+03 -1.38471E+03  2.73456E+03
 -4.60010E+03  2.78162E+03  2.48594E+03 -3.04064E+03 -2.29619E+03 -2.90301E+03  4.95571E+02 -1.15951E+03
  8.55613E+02  1.39889E+03  5.48532E+03 -2.40295E+03  8.30245E+02 -1.55925E+02  9.63111E+01  2.50535E+03
 -5.75085E+02 -4.62249E+03 -4.06625E+02  1.35245E+03  1.79523E+03  6.45076E+02 -3.68291E+03 -9.43545E+01
  7.78703E+02  1.33631E+03  8.38677E+02  1.91145E+03  2.94570E+03  2.03033E+03 -2.34316E+02  2.95630E+03
 -6.63787E+02 -1.36899E+03 -4.30400E+03 -1.83034E+03 -3.88657E+01 -6.72769E+02  6.14971E+02 -2.98464E+01
  6.36741E+03 -1.68799E+02 -3.71587E+02 -8.58618E+01  2.09706E+01  3.47094E+02  1.59198E+03  2.76679E+02
 -5.77373E+03 -8.92862E+02 -1.96253E+02 -1.34420E+03 -3.63754E+03  4.72634E+03 -1.99542E+03  2.40214E+03
 -5.38972E+02  3.89792E+03 -6.55582E+01  1.46476E+03 -1.82804E+03  3.64427E+03 -5.21323E+03  1.42756E+03
 -5.00489E+03 -5.54231E+03 -4.68527E+03 -1.02150E+03  5.59043E+03 -2.31555E+03  2.84980E+03  2.45309E+03
  5.00667E+03 -1.22743E+03  2.13911E+03  3.79804E+03  5.73240E+02  4.78770E+03 -2.55572E+03  7.93631E+02
  1.33875E+03  3.39392E+03 -4.76918E+03 -1.74005E+03  1.92841E+03  2.49490E+03 -5.58049E+03 -3.52604E+02
 -6.98012E+03 -8.97421E+02  3.62812E+03  1.20446E+03  1.92069E+03 -8.55358E+02  5.72287E+02  1.96714E+03
  3.38129E+03  3.85995E+03  6.61537E+01 -1.23727E+02  2.41252E+03  3.07895E+02  1.16160E+02  9.30895E+02
 -3.98569E+03  4.69127E+03 -2.51934E+03 -2.49194E+02  2.46444E+03 -7.26121E+02 -3.87590E+02  5.09745E+02
 -5.31741E+03 -2.35247E+03 -3.19368E+03  1.88964E+03  1.19966E+03  2.31945E+03 -1.30873E+03  3.73476E+02
  2.53375E+03  3.69279E+02 -3.02153E+03 -5.49096E+02 -1.37984E+03 -2.86458E+03  1.81542E+03  2.54329E+03
 -1.47450E+03 -2.19153E+03 -2.23527E+03 -1.30633E+03  4.56827E+02 -3.58304E+03 -1.88585E+03 -5.04556E+02
  2.12281E+02  1.28007E+03 -5.40137E+02  2.29677E+03 -2.85794E+02  6.24676E+02 -1.80686E+02  4.46329E+02
 -1.52899E+03 -5.71896E+02  1.06287E+03  1.50817E+03  2.16620E+03 -6.17107E+03 -4.47754E+02  1.71806E+03
  2.78241E+02 -3.91441E+02  1.00046E+03 -1.09384E+03  7.84436E+02 -1.20640E+01 -1.47525E+03 -2.68182E+03
  2.70685E+03 -1.46248E+03  1.39996E+03  6.24064E+02  8.12590E+02 -3.27816E+03  2.62417E+03 -3.82478E+02
  2.62335E+03 -2.24399E+02 -1.50783E+03 -4.08164E+03  4.63809E+02 -3.43860E+03  1.23872E+03  2.15281E+02
  3.07551E+03  4.34150E+03 -2.36028E+03  1.66618E+03  1.45370E+03  2.45642E+02  2.33900E+02  8.47303E+02
