 $NMID ID='MM_0lb_SNR50_13hz_g45_21.RAW', FMTDAT='(8E13.5)'
 TRAMP=1., VOLUME=1. $END
  3.10326E+05 -1.27238E+03  3.41045E+05  2.52047E+05  8.96321E+04  3.37328E+05 -1.32315E+05  2.53032E+05
 -1.93827E+05  8.75930E+04 -1.16402E+05 -3.15569E+04  6.60144E+03 -5.41384E+04  5.32870E+04 -2.12533E+03
  2.99071E+04  5.30034E+04 -2.30979E+04  7.37077E+04 -6.15956E+04  6.12311E+04 -7.99801E+04  2.71124E+04
 -7.82654E+04 -1.37709E+04 -5.56074E+04 -4.98816E+04 -1.45846E+04 -7.22888E+04  2.96267E+04 -4.77366E+04
  4.05708E+04  2.73153E+03  1.35104E+04  5.14822E+04 -3.59623E+04  4.56529E+04 -6.45076E+04 -2.86354E+02
 -5.07691E+04 -5.74541E+04 -7.41546E+03 -7.56059E+04  3.67739E+04 -5.46133E+04  4.89439E+04 -1.72464E+04
  4.79093E+04  9.17290E+03  3.27365E+04  2.31407E+04  1.87890E+04  2.63211E+04 -2.34216E+03  3.22286E+04
 -1.83744E+04  1.05542E+04 -1.90731E+04 -5.33789E+03  6.47548E+03 -6.17200E+03  1.99943E+04  1.40990E+04
  4.54625E+03  3.66557E+04 -3.09727E+04  3.72081E+04 -6.53532E+04 -2.74670E+03 -5.15861E+04 -4.23610E+04
 -1.21958E+04 -6.40747E+04  4.02749E+04 -4.80365E+04  5.73418E+04 -2.18129E+03  3.46708E+04  3.14705E+04
 -8.30441E+03  3.80259E+04 -2.90682E+04  1.86032E+04 -2.95810E+04  6.61745E+02 -1.57467E+04 -1.49110E+04
 -9.52947E+03 -1.07385E+04  2.60895E+02 -1.70079E+04  9.98481E+03 -2.61639E+04  1.63063E+04 -2.01708E+04
  1.11552E+04  2.88306E+03 -1.14810E+04  9.36138E+03 -1.90981E+04 -6.60024E+03 -4.90698E+03 -3.50433E+04
  2.50819E+04 -4.21605E+04  5.24639E+04 -1.89996E+04  4.18500E+04  1.95886E+04  1.46187E+04  4.66238E+04
 -1.42570E+04  3.39040E+04 -2.85432E+04  4.36302E+03 -1.04858E+04 -3.01069E+04  1.94783E+04 -3.81362E+04
  4.08469E+04 -9.53571E+03  3.40308E+04  2.03406E+04  2.17797E+04  4.57261E+04 -1.28121E+04  4.88192E+04
 -3.46146E+04  3.71849E+04 -4.35968E+04  8.01588E+03 -4.11615E+04 -2.08165E+04 -2.52670E+04 -3.59041E+04
  6.13868E+03 -3.52055E+04  3.60220E+04 -1.34612E+04  2.54927E+04  8.61487E+03  3.43314E+03  1.78301E+04
 -1.87390E+04  1.11408E+04 -1.60547E+04 -1.16921E+04  7.05256E+03 -9.19409E+03  1.83145E+04  8.30545E+03
  1.29142E+04  2.23650E+04 -1.10514E+03  2.49961E+04 -2.59847E+04  1.14236E+04 -3.09513E+04 -1.97407E+03
 -1.90886E+04 -2.14875E+04 -5.50888E+03 -2.13002E+04  4.75390E+03 -1.72335E+04  1.70075E+04 -1.96907E+04
  2.58147E+04 -1.27347E+04  3.21368E+04  5.27131E+03  2.45920E+04  1.97015E+04  4.26898E+03  3.94550E+04
 -2.01159E+04  3.30292E+04 -2.71036E+04  1.23631E+04 -1.65942E+04 -9.06860E+03 -4.97628E+03 -1.43493E+04
  1.28531E+03 -2.38090E+03 -1.01722E+04  8.90366E+03 -1.63365E+04  4.71519E+03 -1.18416E+04 -8.89720E+03
 -1.11739E+04 -2.22722E+04  8.40274E+03 -2.54308E+04  1.83535E+04 -1.55747E+04  2.05579E+04 -3.69579E+03
  1.87169E+04  1.48574E+04 -1.03051E+03  1.83375E+04 -1.32755E+04  9.80512E+03 -1.72428E+04 -1.90920E+03
 -1.00473E+04 -1.99719E+04 -4.64397E+03 -2.18388E+04  6.84118E+03 -1.94617E+04  1.80403E+04 -6.01100E+03
  1.79952E+04  3.69424E+03  1.06951E+04  3.10368E+03  1.44883E+03  5.90055E+03  6.24185E+03 -4.37416E+03
  1.51960E+04  3.21042E+03  1.73263E+04  1.72477E+04  1.36273E+04  2.83910E+04 -1.50608E+03  3.52012E+04
 -2.69085E+04  3.40199E+04 -3.15980E+04  8.65800E+03 -3.38116E+04 -4.71336E+03 -3.15392E+04 -1.71590E+04
 -1.77542E+04 -2.60726E+04  7.36850E+03 -2.20673E+04  2.53073E+04 -1.71725E+04  1.70710E+04  5.64447E+03
  6.22319E+03  1.52982E+04 -7.59835E+03  1.54351E+04 -1.90378E+04 -2.10232E+02 -7.33149E+03 -1.19887E+04
 -3.85505E+03 -1.62325E+04  6.80415E+03 -1.33639E+04  1.46396E+04 -3.89098E+03 -2.38611E+03  9.07245E+03
 -6.79223E+03 -2.92585E+03 -4.92401E+03 -7.13430E+03 -3.20421E+03 -1.85175E+04  1.06267E+04 -1.60330E+04
  1.75627E+04 -9.72846E+03  1.75806E+04  5.45151E+03  1.18751E+04  1.74881E+04  5.23957E+03  2.83537E+04
 -4.05978E+03  2.59921E+04 -1.38893E+04  1.52450E+04 -1.41772E+04  1.00639E+04 -7.95722E+03 -5.68047E+03
 -7.72828E+03 -2.94824E+03 -2.57711E+03  1.07925E+03  2.06751E+03  6.16540E+03 -8.86766E+03  4.17776E+03
 -4.85913E+03 -3.14559E+02 -1.21991E+04 -8.72021E+03 -6.36603E+03 -1.75087E+04  6.46582E+03 -5.97207E+03
  7.95361E+03 -6.72017E+03  3.49160E+03  5.39601E+03  4.99984E+02  2.28859E+03 -5.00515E+03  1.88894E+03
 -3.89790E+03 -9.92651E+03  3.37514E+03 -1.25767E+04  3.33096E+03 -1.00430E+04  1.74202E+04 -3.87980E+03
  1.80800E+04  1.22535E+03  1.21370E+04  5.44792E+03  4.30055E+03  1.47373E+04 -9.54848E+03  1.09315E+04
 -8.29916E+03  4.55773E+03 -5.66588E+03 -1.95456E+03  2.55980E+03 -1.51894E+03  7.61388E+03  4.23617E+03
  6.00527E+03  3.26499E+03  6.53291E+03  8.07577E+03 -7.82357E+03  9.20126E+03 -1.15184E+04 -2.54256E+03
 -8.29733E+03 -1.42125E+03  7.18042E+02 -8.32134E+03  7.20952E+03 -4.15928E+03  4.10535E+03  5.02938E+03
 -1.11790E+03  5.58229E+03 -1.26132E+04  3.15090E+03 -1.00821E+04  2.06896E+03 -7.80053E+03 -2.55801E+03
 -2.05002E+03 -5.24305E+03  4.10049E+03 -1.52904E+04  1.01128E+04 -1.13049E+04  7.58525E+03 -9.24708E+02
  6.72932E+03  2.20142E+03 -5.22012E+03  1.05696E+04 -6.05205E+03  6.77797E+03 -1.03620E+04 -2.17157E+03
 -3.27443E+03 -1.38377E+04 -1.74872E+03 -4.49793E+03  2.35066E+03 -5.48177E+03  4.48888E+03 -4.92303E+03
  5.93304E+03  1.38317E+03  6.19094E+02  6.56884E+03 -4.05732E+03 -7.61265E+03 -1.21650E+03 -4.38937E+03
  5.48336E+03 -9.05085E+02  1.28157E+04  1.00471E+03  1.39950E+04  8.53893E+03  7.76631E+03  1.19891E+04
  5.26451E+02  1.64661E+04 -1.55818E+04  1.19954E+04 -1.58710E+04 -1.82701E+03 -1.03795E+04 -6.86735E+03
 -6.74440E+03 -9.91067E+03 -2.70677E+03 -9.05676E+02  2.81301E+03 -6.05192E+03 -1.49961E+03 -4.67398E+03
  5.82994E+03 -7.18902E+03  3.99129E+03 -2.01887E+03  1.54970E+03 -3.32726E+03  5.59586E+03 -5.93569E+03
  4.05564E+03  2.00753E+03  5.18942E+03  8.44576E+03 -3.17869E+03  2.30450E+03 -7.10359E+03  7.27373E+03
 -5.35215E+03 -2.65888E+03 -8.76656E+03 -9.12551E+03 -4.99348E+03 -1.16211E+04  4.98391E+02 -1.43204E+04
  1.11929E+04 -7.69801E+03  1.04116E+04  2.55353E+03  6.03226E+03  9.86253E+03  2.46814E+03  1.14569E+04
 -5.35692E+03  2.82894E+03 -4.04685E+03 -2.52695E+02 -4.29778E+03  9.93772E+01 -1.77486E+03 -1.00665E+03
  7.11955E+02 -1.18919E+03 -2.87629E+03  7.79655E+03 -6.04969E+03 -7.34443E+02 -5.61484E+03  2.15129E+03
 -8.17688E+03 -8.75789E+02  1.99277E+03 -1.09091E+04  1.00850E+04 -1.21366E+04  1.41231E+04 -2.21691E+03
  3.01906E+03  9.40671E+03  6.42467E+03  8.09178E+03 -3.07807E+03  1.10073E+04 -1.04054E+03  3.00141E+03
 -1.11740E+04 -1.57950E+02 -2.32161E+03 -6.62379E+03 -2.05923E+03 -4.47439E+03  6.12317E+03 -3.15294E+03
  7.59814E+03  1.92678E+02  4.29256E+03 -1.21426E+03  1.84099E+03  5.01313E+03  4.23331E+03 -1.01941E+03
  1.79426E+03  1.60145E+03  1.19891E+02 -5.35492E+02  1.96809E+03  5.71832E+03  5.85082E+02  1.53750E+02
 -4.57242E+03  6.91062E+03 -7.05252E+03  1.02926E+04 -4.34191E+03 -2.53166E+03 -1.52149E+04 -5.58431E+03
 -6.78949E+02 -1.11561E+04  3.44729E+03 -9.34042E+03  3.49183E+03 -7.47406E+03  1.14093E+04  1.71446E+02
  2.22369E+03  4.76754E+03 -2.42396E+03  4.01955E+03 -4.08738E+03 -7.54497E+02 -7.04000E+03  1.01682E+03
 -4.21724E+03 -3.06558E+03 -8.93975E+01 -2.39400E+03  1.71151E+03 -2.66237E+03  5.54337E+03 -1.51402E+03
  1.65094E+03 -6.45314E+02  3.82077E+03  9.65147E+02 -3.93732E+03  3.55314E+03  1.92147E+03 -4.03181E+03
  1.22982E+03 -5.07209E+02  1.06191E+03 -4.03662E+02  7.21760E+02 -8.47499E+02 -1.51645E+03  5.50287E+03
 -3.05309E+03  2.89445E+03 -7.46724E+03  4.38268E+03 -2.28763E+03 -4.20106E+03 -5.72114E+03 -7.40904E+02
 -2.29148E+02 -2.72118E+03  4.47943E+03 -4.41882E+03 -1.44338E+03  5.95923E+03 -8.41906E+02  2.96481E+03
 -3.28224E+03  1.46848E+03 -4.71961E+03 -5.20720E+03 -3.70270E+03 -7.51896E+03 -1.30202E+03 -3.20619E+03
  2.41833E+03 -4.60918E+02  2.52946E+03  2.80613E+03  1.61419E+03 -2.37213E+03  1.38767E+03  2.31458E+03
 -2.27310E+03 -9.05359E+02 -5.35903E+03  1.46567E+02  2.39661E+03  1.99012E+03  2.44695E+03  1.15327E+03
  4.78742E+03 -1.34694E+03  4.36221E+03  1.13308E+03  2.48994E+02  6.31663E+03 -4.40181E+03  1.08640E+04
  3.69741E+02  2.44554E+03 -1.14247E+02 -1.46655E+03  9.05360E+02 -8.64667E+02  1.35995E+03  1.09172E+03
  3.80319E+03 -3.32230E+03  6.19811E+03  2.65059E+02 -1.12660E+03 -2.68745E+02  3.15154E+03  2.04251E+03
 -9.25909E+02 -1.09488E+03 -4.30334E+03  2.65135E+02  2.31391E+03  3.24505E+02 -3.38347E+03 -7.11320E+02
  1.30146E+03 -4.95258E+03 -2.70266E+03  3.50876E+03 -1.16148E+03  3.80414E+03 -3.28389E+03 -3.94961E+03
  1.57301E+02  3.23492E+02  2.71978E+03 -1.07384E+04  3.74887E+03 -7.88995E+03  8.88645E+03 -1.28738E+02
  1.24771E+04 -3.63030E+01 -2.34336E+03 -2.66196E+03  1.06891E+03  1.53137E+03 -4.77799E+03 -4.75903E+02
 -2.23620E+03  2.45216E+03 -2.60580E+02  3.57508E+02 -2.99615E+03  4.46635E+03 -7.83503E+03  1.40305E+02
 -2.29097E+03  5.13373E+03 -1.45656E+03 -2.57376E+03  2.68010E+03 -7.87013E+03  2.31081E+03  1.14930E+02
  5.55967E+03 -1.92140E+03 -3.15164E+03 -1.90675E+03  1.24606E+03  2.76551E+03  2.59434E+03  5.34611E+03
 -2.64332E+03  5.10923E+03 -2.98191E+03  5.37043E+03 -7.07881E+03 -3.36262E+01 -2.92725E+03 -4.44131E+03
 -5.31964E+03 -5.69571E+03  5.03884E+03 -1.57740E+03  3.82326E+03 -2.48014E+03  5.64908E+03  1.51449E+03
  4.18694E+03  6.47997E+02 -3.71769E+03  6.81649E+02 -1.62363E+03 -8.57014E+03 -3.47021E+03  7.54775E+02
  1.74669E+03 -6.02561E+03  1.15503E+03 -4.00530E+03  2.78795E+03 -6.75511E+02  6.71901E+02  7.69206E+03
 -3.35690E+03 -1.89996E+03 -3.47407E+03 -3.18468E+03 -5.74587E+03 -4.55239E+03 -2.61587E+03 -1.66012E+03
  1.24781E+03 -4.84791E+03  6.79041E+03 -5.73627E+02  3.84015E+03 -2.73940E+03 -1.33280E+03  5.24292E+03
 -1.35467E+03  8.36466E+03 -3.44131E+03  3.81247E+03 -7.40219E+02 -1.09614E+03 -4.74078E+03 -1.69123E+03
 -3.11618E+02  2.22949E+03 -5.14687E+03 -1.88228E+03 -7.23151E+03  1.68243E+03 -1.00208E+04 -1.85399E+03
 -5.35271E+03 -5.44291E+03 -6.84230E+02  1.31905E+03  4.08737E+03 -3.03899E+03  9.25441E+02 -1.64779E+03
  3.63547E+03  9.29611E+02  2.80446E+03  2.92054E+03  4.56275E+03  7.47677E+03 -9.21011E+02 -1.75609E+03
