 $NMID ID='MM_0lb_SNR50_12hz_g55_94.RAW', FMTDAT='(8E13.5)'
 TRAMP=1., VOLUME=1. $END
  3.06662E+05 -2.80651E+03  3.37681E+05  2.51941E+05  8.54892E+04  3.37355E+05 -1.36517E+05  2.56516E+05
 -1.92011E+05  8.92004E+04 -1.08428E+05 -3.69805E+04  6.14967E+02 -5.07204E+04  5.18652E+04 -1.88061E+03
  3.92958E+04  4.75638E+04 -1.85099E+04  7.20083E+04 -6.39687E+04  5.92844E+04 -8.56895E+04  3.44134E+04
 -8.08161E+04 -1.08515E+04 -5.55825E+04 -5.05605E+04 -1.27261E+04 -7.42371E+04  2.61275E+04 -5.25573E+04
  4.04060E+04  4.76357E+03  1.95004E+04  4.87269E+04 -4.15586E+04  5.07430E+04 -6.96489E+04  1.97261E+03
 -5.29471E+04 -5.73609E+04 -8.31101E+03 -8.05807E+04  3.09287E+04 -5.49613E+04  5.11559E+04 -1.46251E+04
  4.90804E+04  7.61771E+03  3.36713E+04  2.77146E+04  1.52212E+04  2.63273E+04 -2.39433E+03  2.98101E+04
 -2.70242E+04  1.19128E+04 -1.75831E+04 -1.46252E+03  3.08307E+03 -4.45934E+02  2.58340E+04  1.58121E+04
  7.55262E+03  3.72778E+04 -3.54116E+04  3.92829E+04 -6.70490E+04  6.61010E+03 -5.75629E+04 -4.11297E+04
 -1.13304E+04 -6.27544E+04  4.16003E+04 -4.40280E+04  5.91292E+04 -2.23239E+03  3.13663E+04  3.63787E+04
 -3.86541E+03  3.87529E+04 -3.19094E+04  2.03921E+04 -3.26664E+04 -3.91432E+03 -2.18193E+04 -1.35553E+04
 -1.49170E+04 -1.17954E+04 -3.55092E+03 -2.39202E+04  5.50079E+03 -1.80037E+04  2.43730E+04 -1.49162E+04
  9.78050E+03  2.01302E+02 -1.47413E+04  1.47478E+04 -1.56950E+04 -9.18883E+03 -1.15508E+04 -3.13538E+04
  2.32281E+04 -4.27720E+04  5.13086E+04 -1.37424E+04  4.07150E+04  2.01747E+04  1.53135E+04  5.07851E+04
 -1.63864E+04  3.09028E+04 -2.20944E+04  7.05306E+03 -1.02752E+04 -2.16116E+04  1.72428E+04 -3.37905E+04
  3.88196E+04 -1.41728E+04  4.04601E+04  2.50658E+04  1.42762E+04  4.94607E+04 -9.23325E+03  4.86900E+04
 -3.51966E+04  3.60876E+04 -4.73586E+04  1.37836E+04 -4.88148E+04 -1.70533E+04 -2.35270E+04 -3.29464E+04
  7.05855E+03 -4.39372E+04  3.78033E+04 -1.76686E+04  3.03976E+04  1.64939E+04  8.65859E+03  1.91641E+04
 -1.42904E+04  5.62068E+03 -1.10570E+04 -8.29016E+03  5.72802E+03 -1.35183E+04  1.86804E+04  8.02301E+03
  1.25369E+04  2.31488E+04 -8.42777E+03  2.46830E+04 -2.23184E+04  1.85946E+04 -3.06240E+04 -3.34928E+03
 -2.00615E+04 -1.39285E+04 -7.19321E+03 -2.01778E+04  1.28739E+04 -2.28698E+04  1.41312E+04 -2.21984E+04
  2.48768E+04 -1.45488E+04  3.40819E+04  4.50086E+03  2.54975E+04  2.15359E+04 -8.36046E+02  3.70448E+04
 -1.86390E+04  2.97921E+04 -3.21290E+04  1.08008E+04 -1.64288E+04 -6.07746E+03 -6.04875E+03 -1.78455E+04
  4.84264E+03  7.39456E+03  1.04823E+03  6.04805E+03 -2.11183E+04  4.57970E+03 -1.21450E+04 -9.60282E+03
 -1.74096E+04 -2.34367E+04  6.71096E+03 -2.51103E+04  1.71115E+04 -2.60361E+04  1.93532E+04 -4.41542E+03
  1.35811E+04  1.51122E+04  1.94386E+03  2.05140E+04 -1.45723E+04  1.26102E+04 -1.44782E+04 -6.10105E+03
 -1.46897E+04 -1.99421E+04  2.49951E+03 -2.48537E+04  1.65959E+04 -1.78133E+04  1.97265E+04 -1.23468E+04
  1.84531E+04  3.69276E+03  1.99899E+04  5.06657E+03  7.65838E+03  1.11678E+03  1.20093E+04 -1.52527E+03
  1.85337E+04  6.36377E+03  1.56581E+04  1.25319E+04  1.65506E+04  3.44223E+04 -4.01955E+03  3.66512E+04
 -2.13614E+04  3.72087E+04 -3.89825E+04  1.44285E+04 -4.68551E+04 -5.42680E+03 -3.06771E+04 -2.74135E+04
 -1.09288E+04 -2.30885E+04  9.61199E+03 -3.06545E+04  2.21455E+04 -1.47335E+04  2.31457E+04  3.99065E+03
  5.70407E+03  7.83608E+03 -7.72282E+03  1.59999E+04 -1.65639E+04  3.57367E+03 -1.34538E+04 -1.79309E+04
 -2.25093E+03 -1.84161E+04  7.23643E+03 -1.78527E+04  8.29549E+03 -8.02973E+03  3.14427E+03  4.78771E+03
 -1.06424E+04  5.56345E+03 -7.93260E+03 -7.70020E+03 -1.53015E+03 -1.35660E+04  1.45910E+04 -1.34235E+04
  1.69426E+04 -3.95636E+03  2.70115E+04  3.38529E+03  1.86404E+04  1.54450E+04  5.74358E+03  1.66405E+04
 -1.39128E+03  3.04133E+04 -1.30826E+04  1.06509E+04 -1.82748E+04  1.59655E+03 -1.14340E+04 -5.69898E+03
 -6.72438E+03 -8.16106E+03  8.09961E+03 -1.02727E+03 -3.56714E+03  9.69555E+02 -5.25603E+03 -8.29910E+01
 -1.93565E+04 -1.22186E+03 -1.03662E+04 -9.07921E+03 -7.42042E+03 -1.24481E+04  5.43948E+03 -1.10082E+04
  1.30609E+04 -5.54871E+03  2.54048E+03  6.79117E+03 -4.07484E+03  1.09481E+04 -1.50121E+04 -3.61846E+03
 -5.88322E+03 -6.48813E+03  3.40429E+02 -1.37164E+04  8.84378E+03 -1.35615E+04  1.43076E+04 -5.05656E+03
  1.84743E+04 -1.42733E+03  1.33462E+04  8.58060E+03 -3.32238E+02  1.90504E+04 -6.38526E+03  1.35373E+04
 -9.97197E+03  3.40996E+03 -6.41867E+03  1.40388E+02  1.17433E+03 -5.97488E+02  4.52925E+03 -4.55289E+03
  7.20492E+03  6.91632E+03  6.84202E+02  9.85308E+03 -5.45203E+03  6.05511E+03 -1.13575E+04  4.07686E+03
 -1.27840E+04 -5.23024E+03 -2.92637E+03 -1.24895E+04  7.42592E+03 -3.84142E+03  6.64382E+03  1.02172E+04
  8.60305E+03  1.14721E+04 -8.58648E+03  8.15302E+03 -1.31814E+04  6.11447E+03 -9.80031E+03 -2.37734E+03
 -8.21226E+03 -1.45259E+04  1.78102E+03 -1.23676E+04  1.32305E+04 -1.24905E+04  1.69538E+04 -2.57196E+03
  1.23245E+04  1.33351E+04 -4.23108E+03  8.38688E+03 -1.26867E+04  5.76955E+03 -9.13938E+03  3.30168E+03
 -1.11052E+04 -6.80493E+03 -1.02483E+03 -1.04738E+04  4.10395E+03 -1.05266E+04  6.43652E+03 -7.21045E+03
  5.25721E+03 -1.31283E+03 -7.12251E+02  2.85804E+03  4.18999E+03 -1.17508E+03  4.33133E+03 -2.16720E+03
  1.01161E+04  1.18640E+03  1.51231E+04  5.16666E+03  1.42984E+04  1.19606E+04  7.14777E+03  1.85970E+04
 -1.54815E+03  1.13683E+04 -1.34261E+04  1.70532E+04 -2.75343E+04  5.18355E+03 -1.92636E+04 -5.36222E+03
 -7.00486E+03 -1.12290E+04  8.23820E+02 -1.05068E+04  2.56815E+03 -1.55066E+03 -1.62430E+03 -5.19284E+03
  3.43814E+03  2.36260E+03  1.01398E+03 -3.41798E+03  5.29381E+03 -3.56465E+03  7.78035E+03  5.44224E+02
  3.38493E+03 -1.21672E+03  5.25023E+03  7.45558E+03 -3.14055E+03  9.52471E+03 -1.06092E+04  2.67900E+01
 -9.72173E+03 -5.94142E+03 -7.72276E+02 -7.81528E+03 -6.96036E+02 -9.38911E+03  1.61077E+04 -1.55683E+04
  1.51218E+04 -1.20606E+04  1.68915E+04  8.75038E+02  1.05648E+04  1.12572E+04  1.81397E+02  1.79967E+04
 -8.91636E+03  8.20498E+03 -5.41076E+03  1.62621E+03 -7.07139E+03 -2.47512E+03  5.42941E+03  5.80374E+02
 -2.78939E+03  5.22480E+03  9.23298E+02  5.72921E+03 -4.06621E+03  4.10541E+02 -8.73394E+03 -7.63617E+03
 -3.35586E+03 -6.65801E+03 -1.99635E+03 -8.35107E+03  1.12296E+04 -1.32216E+04  6.01260E+03 -5.97354E+03
  1.13468E+04  6.77377E+03  4.05134E+03  6.58221E+03 -1.25516E+03  8.90885E+03 -7.23369E+03  1.03247E+04
 -1.03259E+04 -5.19437E+03 -9.52057E+03 -4.53230E+03  3.03719E+03 -1.13076E+04 -2.93962E+03 -5.52515E+03
  7.12633E+03 -2.17809E+03  9.16423E+03 -2.39400E+02 -1.33666E+03  4.86546E+02  5.76847E+02  2.49349E+03
  7.33579E+03 -9.35438E+01  8.22652E+03 -4.36406E+03  7.45466E+01  3.91964E+03  2.21870E+03  8.28814E+03
 -8.52403E+01  7.56102E+03 -6.80987E+03  9.08142E+03 -1.06246E+04 -3.12830E+03 -1.68999E+04 -6.93666E+03
 -3.05097E+03 -1.18669E+04  3.86334E+03 -1.62466E+04  7.56408E+03 -7.04460E+03  7.88390E+03 -4.59608E+02
  4.90004E+03  4.31807E+03 -2.75473E+02  5.55284E+03 -7.01159E+01 -2.81495E+03 -6.66516E+03 -3.29482E+03
 -6.98854E+03 -9.48458E+03  2.16596E+03 -2.01775E+03  8.92767E+03 -1.32935E+03  2.31786E+03  3.01076E+03
 -5.58508E+02  2.54189E+03  1.20165E+03  7.18196E+02  9.17657E+02  1.33466E+03  5.12931E+03  4.14064E+03
  4.99536E+03  5.07475E+03 -8.39849E+01  4.25271E+03 -9.45807E+02  1.97800E+03  1.35610E+03  8.73055E+03
 -4.30362E+03  2.58403E+03 -6.76825E+03  5.53465E+03 -7.10303E+03 -3.20782E+03 -3.97020E+03 -3.51939E+03
  1.22709E+03 -1.86005E+03  2.26721E+03  1.37012E+03  8.55561E+03  8.10406E+03 -1.43696E+03  2.75515E+03
 -4.60157E+03 -3.61094E+03 -5.37312E+03 -2.63791E+03  1.77828E+03  1.00983E+03  2.44570E+03  1.30778E+03
 -6.14770E+03  4.78072E+02  4.60938E+02 -3.10116E+02  2.13219E+03  4.33215E+03 -2.06471E+03  1.49013E+03
 -4.14224E+03  4.02123E+02  2.74265E+03 -4.00302E+02 -4.74582E+03  2.60260E+03  2.06198E+03 -2.74059E+03
  3.31039E+03  5.12288E+03  7.40340E+03  2.61347E+03  6.04199E+02  8.55495E+03  2.34519E+03  4.10537E+03
 -3.95575E+03 -1.40870E+02 -5.39928E+03 -5.10419E+02 -4.76999E+03 -2.77789E+03 -8.06783E+02 -5.83587E+03
  4.05662E+03 -3.21666E+03  5.63354E+03 -1.41684E+02 -2.11267E+03  5.17238E+02 -3.23701E+02  3.92507E+03
 -1.28655E+02 -1.85080E+02 -4.84097E+03 -1.92996E+03  2.40923E+03 -1.08682E+03 -5.90577E+02  6.04633E+03
  1.62124E+03  2.45829E+03 -2.26630E+03  3.35963E+03 -3.40565E+03 -3.03631E+02 -3.60280E+03 -4.03619E+03
 -1.71282E+03 -5.85453E+03 -2.22696E+03 -9.43966E+03 -2.82281E+03 -1.38540E+04  9.55372E+03 -3.11547E+03
  7.95333E+03 -1.77841E+03  2.62709E+02  9.41488E+02 -3.98932E+03  7.52115E+03  1.26183E+03  4.89876E+03
 -5.63661E+03  3.97683E+03  1.64822E+03 -2.05122E+03 -6.70946E+03 -2.20837E+03  4.61514E+03  1.41183E+03
 -1.90251E+03 -2.01032E+03 -3.87130E+03 -1.27899E+03 -1.80882E+03 -2.36407E+03 -2.02735E+03 -5.83761E+03
 -1.52773E+03 -1.51832E+03  6.69985E+03 -3.26491E+03  2.90711E+03  4.96065E+03  1.20573E+03  5.66325E+03
  3.11331E+03  7.53555E+03 -2.78970E+03  5.19634E+03 -5.30069E+03  2.61048E+03 -7.87939E+03 -3.54658E+03
 -2.58877E+03 -5.64108E+03  4.21410E+03 -3.88845E+03  3.85650E+03 -1.91205E+03  4.55712E+03  1.24414E+03
 -4.73891E+02  5.04143E+02  1.45161E+03  3.74225E+03  1.76955E+02  1.35237E+03  2.78272E+03  7.03297E+03
  2.16908E+03 -1.28895E+03  2.98521E+03 -6.23900E+02  4.77241E+03  5.84388E+03  8.32574E+01  4.40260E+03
 -2.10558E+03 -1.64114E+03 -4.70150E+02  3.50938E+03 -1.65665E+03 -1.34107E+03 -8.71296E+02 -5.27317E+03
  7.88694E+02 -2.59192E+03 -4.30214E+02 -2.33061E+03  5.72568E+03  3.96534E+03  2.91773E+01 -1.65200E+03
 -2.29914E+03  1.49756E+03 -3.67000E+03  2.07125E+03 -2.46006E+03  4.21154E+03 -5.70684E+02 -2.09142E+03
  8.18468E+03  2.57136E+03  2.55991E+03  1.52728E+03 -2.32332E+03 -4.11603E+02 -3.03933E+03  8.68979E+02
  4.73409E+02 -2.14254E+03  5.18329E+02 -9.41610E+03  3.58178E+03 -4.89655E+03  4.42269E+03 -2.75450E+03
  8.24712E+03  4.61822E+03  2.06047E+03  3.35093E+03 -1.00595E+03  1.17036E+03 -8.63853E+03  4.27135E+03
