 $NMID ID='MM_0lb_SNR50_10hz_g60_22.RAW', FMTDAT='(8E13.5)'
 TRAMP=1., VOLUME=1. $END
  3.11707E+05  4.18752E+03  3.34850E+05  2.50079E+05  8.57060E+04  3.39816E+05 -1.29330E+05  2.47606E+05
 -1.90631E+05  8.55673E+04 -1.14177E+05 -3.66041E+04  6.04068E+03 -4.56948E+04  5.79299E+04  2.10518E+03
  3.88587E+04  5.38096E+04 -1.55866E+04  6.87544E+04 -5.91926E+04  6.88150E+04 -8.19935E+04  3.92811E+04
 -8.70442E+04 -1.52598E+04 -5.86072E+04 -4.75982E+04 -2.16002E+04 -7.22273E+04  2.74205E+04 -4.87689E+04
  4.06597E+04  1.83771E+03  1.28329E+04  4.34551E+04 -3.83707E+04  4.33771E+04 -6.69240E+04 -1.70729E+03
 -5.23960E+04 -5.40546E+04 -2.71334E+03 -7.44398E+04  4.13644E+04 -6.07517E+04  5.36145E+04 -1.98797E+04
  4.74304E+04  1.55430E+04  3.05898E+04  2.93099E+04  1.24950E+04  3.77454E+04 -4.26430E+03  2.92755E+04
 -2.17089E+04  1.48722E+04 -1.81745E+04 -4.55969E+03  7.44431E+03 -5.08185E+03  2.49406E+04  5.31124E+03
  6.01399E+03  3.54862E+04 -3.77339E+04  3.52177E+04 -6.91912E+04  3.57918E+03 -6.04107E+04 -4.56616E+04
 -1.66850E+04 -7.31359E+04  4.55178E+04 -4.18304E+04  6.57448E+04 -2.36762E+03  3.64652E+04  4.13381E+04
 -9.82536E+03  3.52469E+04 -2.73432E+04  2.19120E+04 -3.00580E+04 -2.54821E+03 -2.36053E+04 -9.87526E+03
 -8.99990E+03 -1.29338E+04 -2.31958E+03 -1.57166E+04  7.84412E+03 -2.66763E+04  7.71815E+03 -7.58889E+03
  8.25316E+03  5.65152E+03 -9.21862E+03  9.97484E+03 -2.45754E+04 -1.12685E+03 -1.10520E+04 -3.20823E+04
  2.11396E+04 -4.64351E+04  5.08915E+04 -2.57526E+04  5.12983E+04  2.21364E+04  1.61512E+04  4.96108E+04
 -2.09928E+04  3.64239E+04 -2.55306E+04  2.46810E+02 -1.28101E+04 -3.16100E+04  2.91566E+04 -3.96928E+04
  4.94759E+04 -1.19602E+04  4.05827E+04  2.87358E+04  2.30511E+04  5.35545E+04 -1.04835E+04  5.63713E+04
 -3.81563E+04  3.75961E+04 -3.67040E+04  1.10459E+04 -4.72606E+04 -1.60840E+04 -2.42381E+04 -3.91000E+04
  3.40435E+03 -5.09421E+04  3.00243E+04 -1.24450E+04  3.77566E+04  1.12694E+04  5.03562E+03  2.75661E+04
 -1.07905E+04  5.03019E+03 -1.47072E+04 -1.05891E+04  7.74323E+03 -1.16446E+04  1.53204E+04  2.45536E+03
  1.81959E+04  2.68104E+04 -5.94023E+03  2.88270E+04 -2.36818E+04  1.91244E+04 -3.44884E+04 -3.14574E+03
 -2.38587E+04 -1.89288E+04 -8.36620E+03 -2.66981E+04  3.61691E+03 -2.82751E+04  2.06916E+04 -2.56729E+04
  2.44400E+04 -8.61822E+03  3.61701E+04  3.73529E+03  2.59588E+04  2.13693E+04  5.86171E+03  4.53814E+04
 -2.20662E+04  3.40033E+04 -3.33763E+04  4.01700E+03 -2.56279E+04 -1.25391E+04 -4.40781E+03 -5.99829E+03
  1.37271E+03 -1.43191E+03 -8.76824E+03  1.19370E+03 -1.83209E+04  6.77502E+03 -1.62321E+04 -9.04101E+03
 -1.41284E+04 -2.71575E+04  4.84830E+03 -2.38983E+04  2.00466E+04 -1.69284E+04  2.00428E+04 -2.65540E+03
  7.72514E+03  9.70156E+03 -6.82617E+03  2.78313E+04 -1.43445E+04  1.03787E+04 -2.01128E+04 -3.87816E+03
 -1.52344E+04 -2.00135E+04 -1.74198E+03 -2.81273E+04  9.70147E+03 -2.40293E+04  1.98176E+04 -1.39419E+04
  2.32584E+04  4.18473E+03  1.62728E+04  2.32651E+03  7.97465E+03  3.02410E+03  1.10708E+04 -6.26812E+03
  2.29439E+04  5.20957E+03  2.96173E+04  1.76402E+04  1.34407E+04  3.81443E+04 -6.84381E+03  4.13999E+04
 -2.50897E+04  3.77708E+04 -3.97869E+04  1.88546E+04 -4.60543E+04 -2.98096E+03 -3.83953E+04 -2.27238E+04
 -1.09035E+04 -3.63903E+04  1.65682E+04 -3.59396E+04  2.75636E+04 -1.69932E+04  2.07110E+04  9.01582E+03
  1.06890E+04  1.70585E+04 -1.12941E+04  1.74044E+04 -2.38991E+04  1.41986E+03 -1.51982E+04 -9.26545E+03
  3.59040E+03 -1.90939E+04  7.73530E+03 -1.19701E+04  1.54117E+04 -7.95156E+02  7.20570E+03  8.87295E+03
 -1.23776E+04  5.37117E+03 -1.62786E+04 -7.90240E+03  4.49860E+02 -1.90658E+04  9.61463E+03 -2.23140E+04
  1.75843E+04 -8.84673E+03  3.22086E+04  1.14325E+03  2.52884E+04  2.18024E+04  7.53856E+03  2.31069E+04
 -4.88684E+03  3.48797E+04 -2.10362E+04  1.84509E+04 -1.72943E+04  1.02536E+04 -1.63100E+04 -6.87821E+03
 -5.51853E+03 -3.78058E+03 -3.64344E+03  6.01948E+03  3.47011E+02  5.08551E+03 -7.15739E+02  7.17890E+03
 -1.13987E+04  2.55246E+03 -1.59963E+04 -1.85832E+04 -1.12691E+04 -2.36663E+04  8.59880E+03 -1.11260E+04
  1.42023E+04 -9.52521E+03  9.83177E+03  4.52296E+03  4.63219E+03  3.90343E+03 -8.59765E+03 -2.29802E+03
 -6.02243E+03 -1.66468E+04 -2.46597E+03 -1.49509E+04  1.39714E+04 -1.66966E+04  1.99099E+04 -1.16261E+04
  2.10544E+04  1.40671E+03  1.10949E+04  1.18051E+04  8.19361E+03  2.71113E+04 -1.68253E+04  1.97171E+04
 -1.34385E+04  7.78871E+03 -1.12963E+04 -6.50097E+03  8.52124E+02 -4.00502E+03  3.96023E+03 -9.54120E+03
  9.18449E+03  5.22873E+03 -4.16947E+02  1.75002E+04 -8.20993E+03  1.05987E+04 -1.63147E+04  1.63823E+03
 -6.28235E+03 -1.06754E+04  9.03186E+02 -1.00296E+04  4.34036E+03 -2.96565E+03  1.08307E+04  9.61488E+02
  3.90061E+03  1.00647E+04 -7.17177E+03  1.33532E+04 -1.25429E+04  5.75641E+03 -1.50529E+04 -5.86893E+03
 -1.02614E+04 -1.38748E+04  5.44666E+03 -1.68732E+04  1.35026E+04 -1.66513E+04  2.11610E+04  3.76957E+03
  3.18336E+03  9.13647E+03  2.23764E+03  1.90800E+04 -1.31558E+04  5.08678E+03 -1.12017E+04 -5.91248E+03
 -9.78374E+03 -9.31059E+03 -2.63927E+03 -1.22872E+04  1.08823E+03 -1.47509E+04  1.42391E+04 -1.52019E+03
  1.91518E+03  5.12521E+03 -8.83878E+03  6.19346E+03 -9.94242E+03 -1.56271E+03 -2.51246E+03 -6.27539E+03
  1.20365E+04 -8.51549E+03  1.68529E+04 -1.49464E+03  1.39453E+04  1.39077E+04  1.31279E+04  1.55028E+04
 -2.07872E+03  2.68383E+04 -2.07517E+04  1.59297E+04 -2.43716E+04  7.22496E+03 -1.99118E+04  1.41115E+03
 -7.66859E+03 -1.62364E+04  2.76483E+03 -1.58483E+04  5.59389E+03 -8.07130E+03  5.93556E+03 -1.52008E+03
  2.93504E+03 -8.12558E+03  3.33493E+03 -3.92792E+03  5.46922E+03 -5.40110E+03  7.76039E+03 -2.63573E+03
  1.03150E+04 -1.69613E+02 -9.03661E+02  8.66761E+03 -5.39015E+03  9.04471E+03 -1.35010E+04  3.70650E+03
 -1.67690E+04  3.50767E+03 -1.15593E+04 -8.36069E+03  2.79045E+03 -1.60574E+04  4.11819E+03 -1.56328E+04
  1.93583E+04 -6.95749E+03  2.20579E+04  3.28101E+03  1.27858E+04  1.32244E+04  5.68029E+02  2.23726E+04
 -5.19262E+03  1.04993E+04 -1.27874E+04  4.37919E+03 -9.07182E+03 -3.59863E+03  6.40079E+02 -1.42136E+03
 -6.14897E+03  1.54181E+03  1.21781E+03  3.48134E+03 -6.33187E+03  2.54783E+03 -1.15988E+04  2.30144E+03
 -7.66587E+03 -1.28260E+04 -8.45723E+01 -1.33876E+04  7.38490E+03 -1.56772E+04  1.26716E+04 -5.66139E+03
  1.86643E+04  1.00114E+04  4.90577E+03  1.10977E+04 -3.37505E+03  1.14263E+04 -6.43132E+03  7.21319E+03
 -1.30081E+04 -5.57292E+02 -1.08118E+04 -1.05278E+04 -8.25605E+03 -1.30461E+04  4.30006E+03 -1.15237E+04
  1.98356E+03 -4.31919E+02  9.09613E+03  1.04924E+03 -4.18433E+02  6.65812E+03  7.85268E+02  3.45940E+03
  7.09028E+03  3.60066E+03 -3.00392E+01  3.40619E+03  5.86836E+03  1.01258E+04  1.64198E+03  1.35676E+04
 -1.18894E+03  7.83818E+03 -1.15952E+04  8.89812E+03 -1.41803E+04 -1.48613E+03 -1.36801E+04 -4.87936E+03
 -6.73457E+03 -1.55169E+04 -4.53218E+03 -1.47646E+04  8.78484E+03 -8.24786E+03  1.61450E+04 -7.56143E+03
  5.50670E+03  5.16926E+03 -3.48266E+03  9.31170E+03 -6.04795E+02  9.59231E+02 -1.44002E+03  4.42436E+03
 -6.20650E+03 -1.05343E+04  5.76063E+03 -4.57905E+03  4.28535E+03 -5.87167E+03  1.81451E+03  7.85667E+03
  7.43078E+02  5.66377E+03  2.12236E+03  5.97680E+03 -2.95984E+02 -2.73218E+03 -1.24248E+02  1.95508E+03
  1.02591E+03  8.51062E+02  5.67748E+03  5.15524E+03  6.69116E+03  9.62535E+03 -4.85744E+03  1.26419E+04
 -5.55220E+03  8.41426E+03 -6.23564E+03  2.81303E+03 -8.02365E+03 -1.07676E+04 -8.95894E+03 -1.18149E+02
  1.97460E+03 -4.33755E+03  5.89993E+03 -5.97650E+03  8.36278E+02  4.97393E+02  3.97157E+03  1.29998E+03
 -5.69858E+03  6.97633E+03 -8.05619E+03  5.70165E+02 -2.61282E+03 -7.51815E+03 -3.34632E+03 -9.30842E+03
  1.61911E+03 -7.12715E+02  2.12100E+03  3.62145E+03  2.83647E+03  8.56175E+00 -7.41285E+02  7.71044E+03
 -3.98389E+02  1.53546E+02 -9.20690E+03 -4.41076E+03  3.40904E+03 -2.53981E+03  2.55614E+03 -4.08567E+03
  1.34735E+04  2.94269E+03  9.94195E+03  9.41634E+03  3.96886E+03  1.60127E+04 -6.85754E+02  7.46693E+03
 -1.31446E+04  3.24485E+03 -1.27883E+04 -4.66170E+03 -8.03989E+03 -3.29519E+03 -1.06220E+02 -4.00381E+03
  9.13114E+03 -3.48334E+03  6.03310E+03  5.11850E+03  5.80777E+03  7.29626E+03  1.22921E+03  4.56632E+03
 -4.46982E+03  1.00147E+04 -7.43625E+03 -5.09086E+03 -2.13603E+03 -2.34511E+02 -1.65063E+03  2.05415E+03
 -1.70661E+03  2.52605E+03 -7.78451E+03  8.58693E+03 -1.04234E+04 -1.28907E+03 -4.04359E+03 -7.61422E+03
 -2.01830E+03 -1.66180E+04  6.14445E+02 -1.77934E+04  8.30300E+02 -8.65597E+03  1.27070E+04 -2.20318E+03
  5.31131E+03  1.60170E+03  6.78636E+03  9.97762E+03  2.69059E+03  7.20270E+03 -5.86560E+03  4.30937E+03
 -7.60651E+03  3.82628E+03 -1.43843E+03 -5.34654E+03  2.06815E+03 -9.34668E+02 -5.67274E+01 -4.19184E+03
  5.78277E+02  1.00213E+03 -6.22584E+03  2.20985E+03 -3.12806E+03 -1.08879E+03 -1.57689E+03 -3.61816E+03
  6.95044E+03  1.26418E+03  9.83790E+03 -1.75273E+03  3.09337E+03  1.11016E+04  3.71592E+03  1.02251E+04
  2.06100E+03  7.99231E+03 -9.79460E+03  7.63311E+03 -1.03335E+04  5.01200E+03 -1.10199E+04 -3.17130E+03
  1.08101E+01 -7.59394E+03  5.07089E+03 -5.58646E+03  6.57509E+03 -1.83078E+03  6.08269E+03  1.92023E+02
  3.73372E+03  1.16260E+03  2.36364E+03  5.54671E+03 -1.69580E+03 -2.10146E+03 -5.17363E+02 -7.52128E+03
 -8.70664E+02 -5.56226E+03  1.04966E+03  6.83550E+03 -2.45972E+03  6.90368E+03 -3.03684E+03 -2.02257E+03
 -4.64910E+03  8.03453E+03 -7.81025E+03  1.54775E+02 -9.87094E+03 -3.36030E+03 -2.37223E+03 -1.30247E+04
  4.26409E+03 -6.48604E+03  3.35870E+03 -3.89838E+03  4.20578E+03  7.30650E+03  3.49088E+03  1.11102E+04
 -1.12058E+03  5.32400E+03 -3.12784E+03  8.28945E+03 -2.25774E+03  3.27842E+03  1.78330E+03  9.29951E+02
  5.99628E+03 -6.02282E+02 -7.01224E+03  4.07202E+02 -4.08899E+03  2.04117E+03 -6.23371E+03 -7.89551E+02
 -1.53861E+03  2.77365E+03 -1.05166E+04 -1.10120E+04 -2.49644E+03 -9.07826E+03  7.00046E+03 -4.07526E+03
  2.89389E+03  7.16712E+03  1.08553E+03  3.99399E+03 -1.81672E+03  1.78628E+03 -6.06278E+03  3.95232E+03
