 $NMID ID='MM_0lb_SNR50_16hz_g40_83.RAW', FMTDAT='(8E13.5)'
 TRAMP=1., VOLUME=1. $END
  3.13942E+05  2.42134E+03  3.39685E+05  2.51333E+05  8.67973E+04  3.34887E+05 -1.33319E+05  2.48903E+05
 -1.91536E+05  8.09975E+04 -1.10664E+05 -3.27261E+04 -9.25566E+02 -4.80339E+04  5.26461E+04 -3.42778E+03
  3.77689E+04  5.28591E+04 -1.72755E+04  7.17215E+04 -5.90578E+04  6.20998E+04 -8.33163E+04  3.11465E+04
 -7.75848E+04 -1.00439E+04 -6.06197E+04 -5.20569E+04 -1.33603E+04 -6.73846E+04  2.88871E+04 -4.50520E+04
  4.08807E+04  3.04810E+03  1.94882E+04  4.78746E+04 -3.43153E+04  4.11210E+04 -6.36430E+04 -1.25469E+03
 -5.47912E+04 -5.05916E+04 -6.14800E+03 -7.94514E+04  3.17781E+04 -5.57586E+04  4.84382E+04 -1.42697E+04
  4.53500E+04  1.62916E+04  3.08577E+04  2.79408E+04  1.24671E+04  2.38573E+04 -4.82656E+03  2.59852E+04
 -1.98244E+04  1.04060E+04 -1.62330E+04 -8.28950E+03  3.49750E+03 -6.32574E+03  2.35306E+04  1.19231E+04
  5.94557E+03  3.48833E+04 -3.25507E+04  3.32505E+04 -6.42821E+04  2.25246E+03 -5.81047E+04 -4.05549E+04
 -1.65859E+04 -5.63271E+04  3.81561E+04 -3.74992E+04  5.14088E+04 -3.25990E+03  3.29421E+04  2.99951E+04
 -7.57168E+03  3.08162E+04 -2.44306E+04  1.35288E+04 -2.67122E+04 -1.27991E+03 -1.40682E+04 -1.10975E+04
 -6.48141E+03 -1.10997E+04 -8.42859E+02 -2.06141E+04  7.01179E+03 -2.13223E+04  1.74529E+04 -1.36430E+04
  1.07180E+04  5.60724E+03 -7.49730E+03  1.58496E+04 -2.29932E+04 -6.89973E+03 -9.67517E+03 -3.21275E+04
  1.96409E+04 -3.82533E+04  4.25935E+04 -1.38841E+04  4.40835E+04  2.11179E+04  1.45684E+04  4.07007E+04
 -1.56456E+04  3.48556E+04 -2.42281E+04  3.31642E+03 -7.12149E+03 -2.72676E+04  2.03685E+04 -3.06861E+04
  4.19598E+04 -7.34346E+03  3.55888E+04  2.12580E+04  1.54793E+04  4.38893E+04 -8.07932E+03  4.71519E+04
 -3.20084E+04  3.35390E+04 -4.34919E+04  1.16361E+04 -3.70528E+04 -1.39789E+04 -2.39806E+04 -3.65410E+04
  6.39580E+03 -3.84684E+04  3.06779E+04 -1.38732E+04  2.90863E+04  1.18663E+04  2.21692E+03  1.59732E+04
 -1.02587E+04  8.90218E+03 -9.89940E+03 -1.09023E+04  2.68546E+03 -1.12077E+04  1.89302E+04  5.56860E+03
  1.01579E+04  2.02280E+04 -2.25926E+03  2.63359E+04 -2.34075E+04  1.04015E+04 -2.49377E+04 -9.94228E+03
 -1.49950E+04 -1.88596E+04 -5.49159E+03 -1.61917E+04  3.07951E+03 -1.95913E+04  1.62498E+04 -1.60731E+04
  2.67208E+04 -9.51514E+03  3.46157E+04  6.65087E+03  2.05855E+04  1.75190E+04  3.45399E+03  3.25882E+04
 -1.64041E+04  2.39707E+04 -2.79399E+04  1.16653E+04 -2.31874E+04 -8.72875E+03 -3.88336E+03 -1.33453E+04
  5.96683E+03  1.44568E+03 -6.37216E+03  2.88441E+03 -1.68290E+04  5.59001E+03 -1.44913E+04 -5.61362E+03
 -8.25950E+03 -1.65541E+04  1.51293E+03 -2.28585E+04  1.37683E+04 -1.18153E+04  1.80913E+04 -3.73531E+03
  8.43367E+03  1.35493E+04  1.98491E+01  1.53532E+04 -8.48442E+03  4.55743E+03 -1.40240E+04 -8.03352E+03
 -1.22576E+04 -8.73383E+03  1.03509E+03 -2.05183E+04  7.97233E+03 -1.33809E+04  1.12225E+04 -1.26991E+04
  1.94723E+04 -6.40236E+03  8.75577E+03  9.63672E+03  1.25704E+03 -2.76031E+02  7.29568E+03 -5.21649E+03
  1.66195E+04  2.88097E+03  1.30229E+04  1.56331E+04  1.09115E+04  2.80023E+04 -3.75615E+03  2.37286E+04
 -1.99962E+04  2.44019E+04 -2.42996E+04  1.39457E+04 -2.76552E+04 -3.02731E+03 -2.16383E+04 -1.79027E+04
 -1.41259E+04 -2.67585E+04  9.81198E+03 -1.72964E+04  1.63586E+04 -1.05372E+04  1.85809E+04  5.15922E+03
  6.69410E+03  1.58128E+04 -7.99946E+03  7.31616E+03 -1.11089E+04 -2.79579E+02 -1.03808E+04 -9.40509E+03
  2.06555E+02 -1.26745E+04  1.11456E+04 -8.72978E+03  9.73771E+03 -1.04494E+03 -1.63675E+03  4.62158E+03
 -6.19515E+03 -1.24757E+03 -4.09457E+03 -6.83418E+03 -3.11029E+02 -9.58094E+03  8.36933E+03 -9.97220E+03
  1.76397E+04 -3.11706E+03  2.08311E+04  5.56526E+03  1.16413E+04  1.34939E+04  8.10926E+03  1.58819E+04
 -7.73711E+03  2.19063E+04 -5.71343E+03  7.84851E+03 -1.62490E+04  3.00417E+03 -9.71807E+03 -2.31553E+03
 -4.45692E+03 -6.24583E+03 -4.92813E+03 -7.97674E+02 -1.35164E+03  4.19688E+03 -4.20639E+03  4.65927E+03
 -1.49274E+04 -4.74837E+03 -9.34699E+03 -6.09708E+03 -5.45747E+03 -1.26848E+04  4.50044E+03 -5.33799E+03
  9.34317E+03 -1.77346E+03  6.11525E+03  6.60061E+03  7.44926E+03  5.88015E+03 -5.75126E+03  2.88903E+03
 -3.19152E+03 -7.99379E+02 -6.43506E+03 -6.99342E+03  4.32472E+03 -9.79534E+03  1.15637E+04 -5.76161E+03
  1.61954E+04  2.10423E+03  6.06059E+03  1.04881E+04  8.12990E+02  8.61314E+03 -3.72819E+03  7.67504E+03
 -8.50458E+03  3.27003E+03 -4.67922E+03 -3.98665E+03 -5.75068E+02 -5.46445E+03  5.24118E+03  1.73544E+03
  6.29483E+03  7.61548E+03 -1.46743E+03  6.68015E+03 -9.34563E+02  1.08922E+04 -1.07156E+04  2.79731E+03
 -6.86936E+03 -5.33229E+03  3.57533E+03 -1.06711E+04  5.35322E+03 -2.59053E+03  8.40487E+03  2.79032E+02
  3.09847E+03  7.25346E+03 -1.59333E+03  8.43786E+03 -5.34300E+03  4.75376E+03 -8.76167E+03 -6.69823E+03
 -1.52389E+03 -9.40594E+03  6.09224E+03 -1.07935E+04  3.60494E+03 -8.84262E+03  6.09343E+03  4.06430E+03
  4.21701E+03  1.11276E+04 -7.32437E+02  7.85255E+03 -2.72308E+03  4.47247E+03 -8.79992E+03  3.53951E+03
 -6.79900E+03 -4.79946E+03 -2.91668E+03 -2.91942E+03 -1.46659E+03 -2.93262E+03  4.44996E+03 -7.28986E+03
  3.48075E+03  4.13877E+02 -1.73015E+03 -4.92329E+01  1.14034E+03  1.45876E+03 -1.52535E+03 -3.31602E+03
  6.69749E+03  2.99622E+00  5.54070E+03  1.98195E+03  7.31349E+03  4.11675E+03  8.23254E+03  7.91730E+03
 -5.78304E+03  1.20184E+04 -1.14466E+04  6.75053E+03 -1.58308E+04 -1.23373E+03 -9.50336E+03 -5.32505E+03
 -5.76166E+03 -4.66517E+03 -1.40803E+03 -8.50231E+03  1.28712E+03 -6.07509E+03 -2.84859E+03 -3.05270E+03
 -9.09849E+02  4.21878E+03  1.75204E+03 -2.36193E+03  3.43239E+03 -5.88076E+03  5.92954E+03 -4.48831E+03
 -7.86772E+02  1.16709E+03  2.73351E+03  6.16949E+03 -3.36991E+03  3.54169E+03 -6.01896E+03  6.19971E+03
 -1.03599E+04 -4.02547E+03 -4.84170E+03 -6.92711E+03  6.28713E+02 -6.83876E+03  2.14048E+03 -3.52533E+03
  5.10405E+03 -4.65760E+03  1.05535E+04  3.14815E+03  1.05727E+04  5.60303E+03 -1.20285E+03  6.30020E+03
 -5.32183E+03  9.26341E+03 -7.77371E+03  4.79685E+03 -2.33048E+03  1.54954E+03 -2.37445E+03 -4.48088E+03
 -3.36026E+02 -2.94378E+03  9.41166E+02  2.05483E+03 -4.85871E+03 -2.27229E+03 -3.38111E+03 -3.97007E+03
 -4.39689E+03 -1.08974E+03  5.02629E+03 -6.16895E+03  5.50541E+03 -3.73355E+03  3.39999E+03 -4.22740E+03
  8.69501E+03  4.03087E+03  1.07863E+03  4.84996E+03  8.48587E+01  6.73018E+03 -1.28076E+03 -5.93284E+02
 -7.65410E+03  2.86664E+03 -2.21549E+03 -5.04388E+03  6.13057E+02 -5.75117E+03  2.69461E+02 -3.81666E+03
  2.61316E+03 -2.38344E+03 -5.00602E+02  2.20113E+02 -5.91673E+02 -6.55907E+02  7.31344E+03  5.32169E+02
  1.46971E+03  8.31379E+01  1.49235E+03  5.73511E+01  1.84350E+02  1.21797E+03  4.74580E+03  1.85275E+02
 -7.40765E+02  4.36100E+03 -2.81811E+03  8.97675E+03 -3.18141E+03  3.70131E+03 -3.23385E+03 -1.99360E+03
 -3.31537E+03 -2.65466E+03  6.42161E+02 -7.93683E+03  1.98834E+03 -3.69711E+03  5.99165E+03 -9.30562E+02
  4.73774E+03  2.47468E+03 -4.14226E+03 -1.92499E+03 -3.49454E+03  2.73329E+03 -3.94514E+03 -2.77249E+02
 -4.86757E+03 -6.66889E+03 -7.47577E+02 -3.49697E+03 -9.25134E+01 -1.89147E+03 -1.14480E+03  4.09003E+02
  4.03351E+03 -4.71288E+02 -4.51461E+03 -1.62029E+03 -4.45849E+03  1.22374E+03  8.55326E+02  3.05694E+03
  3.83835E+01  4.44802E+03 -6.38116E+02  1.88000E+03 -3.48589E+03  4.20663E+03 -4.85724E+01  2.93396E+03
 -8.35211E+02  4.30306E+03  2.14393E+03  1.97318E+03 -4.66656E+03 -3.22781E+03  1.03835E+03  2.89500E+03
 -1.05357E+03 -3.07202E+03  1.49631E+03 -1.76847E+03 -1.15340E+03 -1.18576E+02 -2.43519E+03  3.56799E+03
 -1.91746E+03 -1.32325E+03 -4.44678E+03 -3.16648E+03 -4.72546E+03 -1.83952E+03 -3.30749E+03  1.65147E+03
  1.03840E+02 -1.97450E+03  2.32857E+03  4.04535E+03  6.05188E+03  1.13020E+03 -1.23900E+02 -5.34781E+03
  4.29229E+02  3.54859E+03 -1.73502E+03 -8.05572E+03  2.09388E+03 -4.40521E+03  1.76304E+03 -2.29002E+03
  6.91390E+03  7.75039E+02  6.44933E+02  1.63528E+03  5.67164E+02  6.31288E+03 -2.04591E+03  8.26627E+03
 -2.05507E+03 -1.92875E+03  2.32447E+03  3.24176E+03 -1.50910E+03 -8.03380E+02 -7.52786E+02  1.44995E+03
  3.94369E+03  2.57333E+02 -4.52034E+03 -2.31130E+03  3.88575E+03  2.63845E+03 -1.83387E+03 -6.62948E+02
  2.54164E+03 -4.02874E+02 -5.36227E+03 -8.28617E+02 -4.27617E+03  9.54427E+02 -1.22013E+03 -1.61910E+03
 -4.19534E+02  4.97373E+03 -1.69215E+03  4.28350E+02 -1.93009E+03 -5.36156E+03 -4.23993E+03 -5.01805E+03
  1.07042E+03 -4.62457E+03  2.36077E+03 -2.02160E+03  7.51471E+02 -3.26248E+03  3.71610E+03 -2.20919E+03
  1.07187E+03  2.11348E+03  2.89492E+03  7.73435E+03 -5.96733E+02  7.73885E+03  3.25006E+02  5.39808E+01
 -4.76621E+03 -9.22975E+02  2.43090E+03  8.53625E+02 -3.17277E+03  3.73181E+02  4.60954E+00 -4.10388E+02
 -2.90401E+03  2.07751E+03 -9.79653E+02 -4.99240E+03  2.72787E+03  9.20597E+00 -6.09583E+03 -1.64115E+03
  7.04262E+03 -5.48153E+03  3.02304E+03 -2.93254E+02  1.79158E+03  1.96624E+03  4.93814E+02 -7.28396E+02
  6.26849E+02 -3.20694E+02 -2.08461E+03 -2.37172E+02 -1.39070E+03 -5.24264E+02  6.77536E+02  2.97881E+02
 -9.84487E+02 -7.52354E+03  1.91456E+03 -3.06074E+03 -4.63501E+03 -2.62916E+02  5.06347E+03  1.44422E+03
  2.45873E+03 -1.81114E+03  1.42217E+03 -3.65836E+03  4.19900E+03 -4.11123E+03 -4.05247E+03 -2.16545E+03
  4.60895E+02  1.21116E+03  1.36482E+03  5.09473E+03  1.39353E+03  1.59180E+03  2.61870E+01 -5.60919E+02
 -4.21698E+03  2.36693E+03  3.87461E+03  3.26352E+03 -3.98282E+03  6.89350E+01 -3.63856E+03 -3.39988E+03
  2.82783E+03  3.34313E+02  2.05583E+03 -1.41190E+03  3.31076E+03 -8.31019E+03  1.54784E+03  1.32425E+03
 -2.81559E+03  3.27281E+03 -1.87720E+02  8.46102E+02  8.38118E+02 -1.90583E+03  2.39629E+03  2.04679E+03
  2.15483E+03  3.97607E+03 -1.44871E+03 -1.39797E+03  8.17975E+02 -3.73021E+03  8.48625E+02 -1.85668E+03
  3.94279E+03  2.87363E+03  5.88128E+02  1.02099E+03 -1.12886E+03 -1.39680E+03  5.29846E+02  9.32217E+02
  6.53488E+03  3.01644E+03 -4.23082E+02  9.79199E+02 -3.32457E+03  1.50526E+03 -2.01770E+03  2.89039E+03
