 $NMID ID='MM_0lb_SNR50_20hz_g60_90.RAW', FMTDAT='(8E13.5)'
 TRAMP=1., VOLUME=1. $END
  3.11385E+05 -2.80754E+03  3.33435E+05  2.51031E+05  8.32289E+04  3.37908E+05 -1.33040E+05  2.52788E+05
 -1.91238E+05  7.96091E+04 -1.10525E+05 -3.26725E+04  3.45465E+03 -4.95927E+04  5.09068E+04  3.02056E+03
  3.59596E+04  5.22222E+04 -1.38367E+04  7.58566E+04 -6.07231E+04  6.75474E+04 -8.19560E+04  2.99387E+04
 -7.80947E+04 -9.89616E+03 -5.57712E+04 -4.81305E+04 -1.65011E+04 -6.96063E+04  2.59140E+04 -4.55378E+04
  3.55092E+04  1.65525E+03  1.35978E+04  4.77236E+04 -3.20413E+04  4.38271E+04 -6.77725E+04 -7.77832E+02
 -5.35200E+04 -5.71703E+04 -8.35421E+03 -7.62936E+04  3.57848E+04 -5.50458E+04  4.56060E+04 -1.47435E+04
  4.17873E+04  1.39760E+04  2.96528E+04  2.53708E+04  1.35659E+04  2.77646E+04 -4.06046E+03  2.31776E+04
 -1.79184E+04  1.13256E+04 -1.80955E+04 -4.07802E+03  9.23770E+03 -8.73134E+03  1.72899E+04  1.03589E+04
  1.02207E+04  3.45148E+04 -3.35177E+04  3.24425E+04 -6.22181E+04  1.72609E+03 -5.43054E+04 -4.42421E+04
 -1.46270E+04 -6.39828E+04  3.60532E+04 -4.41582E+04  5.19603E+04 -4.21635E+03  3.28579E+04  2.89019E+04
 -6.52243E+03  3.50826E+04 -2.92619E+04  1.40767E+04 -2.33163E+04 -7.01189E+03 -1.48239E+04 -1.28606E+04
 -3.38948E+03 -1.14441E+04 -3.54568E+03 -1.81736E+04  5.06850E+03 -2.56763E+04  1.45512E+04 -1.70082E+04
  1.20994E+04  1.24282E+01 -6.28210E+03  1.11229E+04 -1.68613E+04 -4.69734E+03 -3.84136E+03 -3.32339E+04
  1.97253E+04 -3.86937E+04  4.68282E+04 -1.92702E+04  4.37625E+04  1.69618E+04  1.53144E+04  3.90417E+04
 -1.21750E+04  3.23596E+04 -2.47331E+04 -1.23245E+03 -1.16699E+04 -2.69944E+04  1.73406E+04 -3.05399E+04
  3.65981E+04 -6.03336E+03  3.00905E+04  2.05668E+04  1.73749E+04  4.62775E+04 -1.05900E+04  4.67595E+04
 -3.05843E+04  2.93152E+04 -3.59459E+04  1.18421E+04 -3.83615E+04 -1.23753E+04 -2.66815E+04 -3.29126E+04
  2.29331E+03 -3.31474E+04  2.86856E+04 -7.69190E+03  2.84482E+04  8.01034E+03  1.24380E+03  1.59847E+04
 -1.13551E+04  8.82537E+03 -9.38724E+03 -7.37882E+03  4.10182E+03 -1.04314E+04  1.67640E+04  5.27627E+03
  9.11011E+03  2.25258E+04 -7.93543E+03  2.67769E+04 -1.99395E+04  9.05796E+03 -2.41203E+04 -3.33414E+03
 -1.80101E+04 -1.14674E+04 -3.71936E+03 -1.76005E+04  2.77103E+03 -1.16766E+04  8.30418E+03 -1.13664E+04
  1.70899E+04 -1.10342E+04  2.92806E+04 -1.25652E+03  2.28887E+04  1.25352E+04  2.62162E+03  2.64871E+04
 -1.66859E+04  2.93913E+04 -2.60011E+04  4.91505E+03 -2.46918E+04 -4.95105E+03 -7.68003E+03 -1.21003E+04
  9.56246E+02 -1.08214E+03 -4.98414E+02  6.23055E+03 -1.53296E+04  4.65647E+03 -1.33008E+04 -4.66034E+03
 -5.97079E+03 -1.56847E+04  6.16018E+03 -2.09237E+04  1.05269E+04 -1.48034E+04  1.42985E+04  1.29173E+03
  1.15931E+04  1.02843E+04 -2.84522E+03  1.32100E+04 -1.14879E+04  1.11749E+04 -1.00315E+04 -7.98150E+03
 -1.45206E+04 -1.61662E+04 -1.32083E+03 -2.33704E+04  6.74629E+03 -2.07166E+04  1.37240E+04 -9.65669E+03
  1.26416E+04  1.35407E+03  8.66814E+03  4.19937E+03  7.06969E+03  9.53899E+02  6.23306E+03  2.00614E+02
  8.70162E+03  4.08921E+03  1.42297E+04  1.58600E+04  7.30223E+03  2.52294E+04  1.08724E+03  2.89999E+04
 -1.42505E+04  2.12860E+04 -2.36106E+04  9.81133E+03 -2.66974E+04 -5.79826E+02 -1.99825E+04 -1.36761E+04
 -1.20612E+04 -2.49908E+04  7.00878E+03 -1.78821E+04  1.48257E+04 -1.18186E+04  1.69667E+04  5.51224E+03
  4.39649E+03  1.23785E+04 -1.23345E+04  1.06190E+04 -9.62723E+03  2.60354E+02 -9.72461E+03 -5.62379E+03
 -1.41608E+03 -8.79853E+03  6.62225E+03 -1.00374E+04  1.02054E+04 -6.07130E+03  6.49985E+02  3.17097E+03
 -8.20732E+03 -4.67501E+03 -1.40061E+03 -6.50761E+03  9.91959E+02 -1.14780E+04  6.08158E+03 -1.01247E+04
  1.09827E+04 -2.82211E+03  1.21553E+04  6.77506E+03  9.16453E+03  8.80666E+03  3.00550E+03  1.36193E+04
 -3.57697E+03  2.04678E+04 -7.50708E+03  1.44073E+04 -1.09354E+04  6.41343E+02 -1.02618E+04 -7.77040E+02
 -3.41061E+03 -1.47236E+03  1.26264E+03  3.40096E+03 -4.12531E+03  3.54107E+03 -7.70121E+03  3.60788E+03
 -8.46151E+03 -3.68866E+02 -7.19308E+03 -6.05293E+03  2.33937E+02 -1.55143E+04 -2.18920E+03 -9.20614E+03
  5.29716E+03 -6.44699E+03  2.93521E+03  2.91775E+03 -3.97445E+02  3.33078E+03 -3.87870E+03 -2.57895E+03
 -5.81445E+03 -3.75125E+03 -4.58750E+03 -6.94368E+03  2.87944E+03 -7.07211E+03  1.19005E+04 -2.09199E+03
  1.19690E+04  4.01165E+02  9.59498E+03  6.46436E+03  1.50466E+03  8.56985E+03 -1.05984E+04  6.27504E+03
 -4.66017E+03  3.46891E+03 -5.02797E+03 -5.79658E+02  1.07417E+03 -4.55593E+02  5.28155E+03 -2.61301E+02
  6.86434E+03  3.66496E+03  3.22639E+03  3.27019E+03 -6.21496E+03  5.00339E+03 -7.82688E+03 -1.64876E+03
 -5.97963E+03 -6.45573E+03 -1.94066E+03 -3.86722E+03  7.08642E+03 -3.93859E+03  5.52130E+03  2.41978E+03
 -2.77589E+03  5.36005E+03 -1.52712E+03  7.36689E+03 -2.23435E+03 -2.87842E+03 -4.40640E+03 -5.50459E+02
 -3.96357E+03 -5.81313E+03 -5.49117E+03 -5.64696E+03  2.94668E+03 -1.50319E+03  8.90492E+03  1.61465E+03
  1.90414E+03  7.91372E+03 -1.32436E+03  5.02321E+03 -3.88111E+03  4.97747E+03 -8.24278E+03  1.88836E+03
 -5.23952E+03 -2.84736E+03 -2.94767E+03 -5.26689E+03  5.35362E+02 -6.79986E+03  4.26858E+03 -4.63482E+03
  5.35158E+03 -3.08806E+03  2.00469E+03  1.84214E+03  1.25823E+03  1.75495E+03 -3.04518E+03 -2.99221E+03
  2.93457E+03 -4.06521E+03  5.49790E+03 -4.62777E+02  1.07030E+04 -4.38855E+02  5.97815E+03  6.57666E+03
 -1.54333E+03  9.10671E+03 -4.96325E+03  3.23316E+03 -6.61053E+03  2.29304E+03 -7.09073E+03 -6.57948E+02
 -3.59610E+03 -7.24335E+03 -3.46998E+01 -4.99007E+03  2.45750E+03  3.93910E+03  1.81276E+03 -4.15201E+02
 -1.07512E+03 -1.08620E+03  3.45295E+03 -3.80140E+03  2.89241E+03  3.29503E+03  6.74135E+03  1.01210E+03
  5.71639E+03  1.83514E+03  1.16306E+03  3.00434E+03  4.05490E+02 -2.02586E+02 -7.25356E+03  2.13895E+03
 -6.55073E+03  1.56625E+03  1.71836E+03 -2.74015E+03 -1.13649E+03 -1.61613E+03  5.69158E+03 -1.58207E+03
  4.63282E+03 -3.78167E+03  6.32415E+03  4.83437E+03  6.59819E+03  2.99983E+03 -4.10297E+02  4.12808E+02
 -4.82320E+03  3.81265E+03 -2.32451E+03  3.18904E+03 -4.17335E+03 -2.10408E+03  2.41054E+03 -1.66984E+03
  2.39672E+02  1.81143E+02 -2.97695E+03  3.02484E+03 -3.07591E+03 -2.44594E+03 -5.14360E+03 -3.45209E+03
  1.32118E+03 -3.02274E+03 -2.23084E+03  8.20397E+02  9.28496E+02 -6.30253E+03  3.92270E+03 -3.47814E+03
  4.75599E+03 -4.82580E+02  1.90572E+03  7.04001E+03 -1.14731E+03  3.91292E+03 -6.20760E+02  3.84876E+03
 -3.60027E+03 -1.19398E+03 -6.53549E+03 -2.90112E+03  2.18904E+03 -4.93514E+03  3.17707E+03 -3.10401E+03
  4.20776E+02 -1.33855E+03  1.12233E+03 -2.23888E+03 -1.71075E+03  4.76680E+03  1.52807E+03 -2.24209E+03
  4.85980E+02  4.01665E+03  3.79615E+02  1.58248E+03 -1.19302E+03  2.44801E+03  2.45834E+03 -1.01090E+03
 -3.35883E+03  2.00286E+03 -1.67526E+03  7.07979E+03 -1.50111E+02  2.23013E+03 -7.41452E+02  2.70984E+03
 -6.79953E+03 -2.27109E+03 -8.46225E+02 -2.47274E+03  3.96488E+02 -5.49484E+03  2.72467E+03 -4.37486E+03
  7.61790E+02 -1.28793E+03  3.75003E+03 -1.09593E+02 -3.11425E+03 -1.61433E+03 -3.33961E+03  1.97962E+03
  1.13473E+03  6.79609E+01  3.54765E+03  3.46721E+02 -5.86952E+01  4.45697E+03  2.04075E+03  7.32112E+02
  1.71723E+03 -1.10096E+03 -1.44902E+03  1.99507E+03  1.88405E+03 -5.20283E+02  3.61377E+03 -3.79332E+02
  7.72400E+01 -5.90595E+02 -1.33794E+03 -3.70335E+03  2.84697E+03  1.68009E+03  7.60134E+02  3.61139E+03
 -1.52334E+03 -2.16177E+03 -1.95923E+03 -3.59935E+02  1.61002E+03  4.27838E+03 -8.68193E+02  4.30346E+03
  1.61451E+03 -2.40318E+03 -7.66450E+02 -2.33022E+03  1.20612E+03  2.86155E+03 -4.69290E+03 -2.27110E+03
 -1.79339E+03  1.34637E+03 -3.13010E+03 -5.25320E+02  1.34483E+03 -5.84568E+03  8.45338E+02  3.80035E+02
  1.64282E+03 -2.03094E+03 -2.24748E+02 -1.58373E+03  5.11448E+03 -5.30754E+03 -2.43860E+03  4.08475E+03
 -1.44954E+03 -2.56985E+03 -2.30329E+03 -1.83829E+03  3.91994E+03  2.87815E+03  2.82637E+03 -2.88725E+03
  6.04350E+02  1.06198E+03  1.39314E+03  6.77162E+02  1.89008E+03  4.38905E+03  1.75374E+03 -7.16757E+02
 -4.91352E+03 -1.10447E+03 -2.70069E+02 -2.22781E+02 -3.69727E+03 -2.84394E+03  1.51048E+03 -2.81867E+03
  2.10898E+03 -1.59819E+03 -3.02367E+03 -7.85668E+02 -3.07457E+03  4.42662E+02  2.07353E+03 -2.52173E+02
  1.94047E+03  3.07539E+03 -1.83883E+03 -7.77131E+02  2.10073E+03 -1.19867E+03  3.32932E+03 -3.16639E+03
 -3.90329E+02  4.34754E+03 -4.43432E+03  1.70721E+03 -4.47682E+03  1.01432E+03 -5.49112E+03  2.95562E+03
 -3.27329E+03 -4.49592E+02 -5.16052E+03 -1.69359E+03  1.33609E+02 -3.45719E+03  1.37329E+03 -2.50857E+02
  3.33701E+03  3.31989E+03 -5.85180E+02 -1.22439E+03  7.75170E+02  5.35928E+03 -2.53058E+03  5.42788E+03
 -1.04563E+03  1.12516E+03 -1.51485E+03  8.54263E+02  1.73469E+03 -1.51426E+03  1.37333E+03  9.01803E+02
  2.14613E+03 -1.27404E+03  2.58384E+03 -5.79162E+01  3.07782E+03  9.67253E+02  8.20869E+02 -9.64839E+02
  2.50662E+03 -3.13092E+03 -1.83685E+03 -1.20515E+03  1.67213E+03  4.52166E+02 -1.28249E+03 -3.15002E+03
 -1.39472E+03 -1.88393E+03 -3.21011E+03  1.98904E+03 -3.96541E+02 -3.57950E+03  4.96080E+02 -3.25481E+03
  2.30391E+03 -1.02727E+03  1.69791E+03 -1.35040E+03 -2.84521E+03 -2.58630E+03 -2.46613E+03  1.65224E+03
 -3.07644E+03 -1.38641E+03 -1.14806E+03 -2.87191E+03  4.67847E+03 -8.17449E+01 -3.15225E+03 -3.11021E+03
  5.49239E+03 -3.56323E+03 -3.29446E+03 -1.01718E+03 -4.30965E+03 -2.35979E+03  2.69500E+01  1.99617E+03
  1.46633E+03 -2.50455E+03 -1.33829E+03 -2.85252E+03 -8.13510E+02 -2.47439E+03 -1.35581E+03  1.45411E+03
  8.02423E+02  4.65663E+03  1.76715E+03  1.96404E+03 -3.05458E+03 -1.84278E+03 -1.80716E+02  3.64957E+02
  3.05456E+03  1.21577E+03 -1.67722E+03 -2.20434E+03 -1.70343E+03 -3.86053E+02  4.16318E+01  3.78963E+01
 -1.18988E+03  9.98409E+02 -1.56085E+03  7.09759E+02  2.41059E+02  4.45152E+03 -5.60390E+02 -1.08489E+03
  4.59149E+01  2.89240E+02  1.09812E+03  3.43088E+03  1.02580E+03  9.71851E+02  1.33895E+03 -8.16609E+02
  2.82332E+03 -7.63034E+02  2.64997E+01 -1.74561E+03 -4.49591E+03 -7.99314E+02 -3.99978E+03 -2.50133E+03
