 $NMID ID='MM_0lb_SNR50_15hz_g45_95.RAW', FMTDAT='(8E13.5)'
 TRAMP=1., VOLUME=1. $END
  3.06408E+05  2.41503E+03  3.43222E+05  2.49345E+05  8.62157E+04  3.33615E+05 -1.38207E+05  2.48586E+05
 -1.94769E+05  8.23725E+04 -1.13650E+05 -3.12869E+04  2.32078E+03 -5.28554E+04  5.47741E+04  1.34643E+03
  3.26527E+04  5.10334E+04 -1.27598E+04  7.51608E+04 -5.84483E+04  6.53189E+04 -8.76972E+04  2.88894E+04
 -7.51165E+04 -1.27377E+04 -5.57012E+04 -5.11332E+04 -1.27337E+04 -7.06228E+04  2.64797E+04 -4.42335E+04
  3.92714E+04  1.64546E+02  1.58849E+04  4.84670E+04 -3.48100E+04  4.45803E+04 -6.72152E+04  2.06090E+03
 -5.50384E+04 -5.65397E+04 -9.88156E+03 -7.61352E+04  3.19900E+04 -4.94287E+04  4.97914E+04 -1.66134E+04
  4.17965E+04  7.43334E+03  3.12610E+04  2.30207E+04  1.55420E+04  2.88296E+04 -5.75089E+03  2.72066E+04
 -2.12375E+04  1.37445E+04 -1.59280E+04 -3.56698E+03  9.30859E+03 -3.85386E+03  2.44321E+04  1.57383E+04
  7.43259E+03  3.42935E+04 -3.26546E+04  3.60036E+04 -6.10048E+04  2.13268E+03 -5.33085E+04 -4.04729E+04
 -1.13539E+04 -6.18770E+04  3.89927E+04 -4.49404E+04  5.86890E+04 -1.79013E+03  3.01819E+04  3.45656E+04
 -8.66629E+03  3.59387E+04 -2.66879E+04  1.62374E+04 -3.21098E+04 -4.84374E+03 -1.56715E+04 -1.44948E+04
 -8.05674E+01 -1.09236E+04  4.70961E+03 -1.63198E+04  5.91654E+03 -2.18993E+04  1.84185E+04 -1.02725E+04
  7.40467E+03  2.81891E+03 -8.77246E+03  1.21254E+04 -1.87909E+04 -3.21665E+03 -1.27422E+04 -3.38108E+04
  2.32741E+04 -4.07704E+04  4.45608E+04 -1.88651E+04  4.46876E+04  1.83293E+04  1.73322E+04  4.02500E+04
 -1.92015E+04  3.37065E+04 -2.18959E+04  1.93859E+03 -1.08799E+04 -2.84910E+04  2.43500E+04 -3.49746E+04
  3.90278E+04 -1.37947E+04  3.09050E+04  2.61609E+04  1.71423E+04  4.38395E+04 -8.46066E+03  4.51406E+04
 -3.48564E+04  3.29324E+04 -4.14433E+04  9.66403E+03 -4.04111E+04 -1.83838E+04 -2.35826E+04 -3.92545E+04
  6.85316E+03 -2.98559E+04  2.46754E+04 -1.63146E+04  2.92194E+04  9.35122E+03  4.90217E+03  2.42062E+04
 -1.26113E+04  8.29350E+03 -1.08956E+04 -1.14705E+04  4.18683E+03 -1.03169E+04  1.60059E+04  5.97689E+03
  1.18419E+04  2.28442E+04 -9.57461E+03  2.48385E+04 -2.37626E+04  8.84040E+03 -2.76131E+04 -6.08451E+03
 -1.84616E+04 -1.81246E+04 -4.19222E+03 -1.64249E+04  6.38300E+03 -1.74076E+04  1.19503E+04 -2.01022E+04
  2.20824E+04 -1.49395E+04  2.93985E+04 -9.98971E+02  1.87751E+04  2.07261E+04  1.47897E+03  3.35385E+04
 -2.14128E+04  3.12822E+04 -2.84962E+04  1.20086E+04 -2.22290E+04 -1.00560E+04 -2.99919E+03 -1.11633E+04
  1.11826E+03 -6.16100E+03 -3.42724E+03  2.81958E+03 -1.77666E+04  3.22252E+03 -1.25952E+04 -1.17513E+04
 -6.10427E+03 -1.87290E+04  5.28632E+03 -2.40628E+04  1.09539E+04 -1.23658E+04  1.55594E+04 -4.06410E+02
  1.43414E+04  9.43979E+03  1.97521E+03  1.51891E+04 -1.29069E+04  1.59005E+04 -1.77952E+04 -7.29281E+03
 -1.34376E+04 -1.57423E+04 -3.52556E+03 -1.95657E+04  8.89932E+03 -1.97240E+04  1.85046E+04 -6.82228E+03
  1.62831E+04  2.31953E+03  1.07535E+04  5.47704E+03  6.94377E+03 -2.51838E+03  1.27157E+04 -1.95762E+03
  1.85989E+04 -1.78091E+03  1.21230E+04  1.41163E+04  1.44315E+04  2.71997E+04 -4.09011E+03  3.37152E+04
 -2.08038E+04  2.16082E+04 -2.78501E+04  1.26424E+04 -3.26962E+04 -4.33075E+03 -2.54799E+04 -1.48407E+04
 -9.04912E+03 -2.65371E+04  1.20177E+04 -1.61776E+04  1.87467E+04 -1.18029E+04  1.40865E+04  6.57205E+03
  5.05242E+03  1.19618E+04 -5.80007E+03  1.30754E+04 -1.09267E+04  2.13114E+03 -1.03759E+04 -2.85211E+03
  4.98742E+03 -1.32212E+04  8.40912E+03 -1.01396E+04  1.17534E+04 -2.58013E+02 -2.02446E+03  6.39514E+03
 -5.55639E+03  5.81800E+03 -5.33289E+03 -7.94202E+03  4.62265E+02 -7.56646E+03  1.00368E+04 -1.25689E+04
  1.81355E+04 -3.35109E+03  2.03671E+04  1.46208E+03  1.40789E+04  1.26789E+04  8.14369E+03  1.64619E+04
  7.22267E+02  1.82270E+04 -7.59186E+03  1.34396E+04 -1.55381E+04  1.98161E+03 -7.49045E+03 -1.51632E+03
 -5.79028E+03 -2.28760E+03 -1.48738E+03  7.42453E+03 -1.57158E+03  5.48985E+03 -3.78069E+03  2.56958E+03
 -6.70851E+03  5.23219E+03 -9.19751E+03 -7.69164E+03 -3.31948E+03 -1.83156E+04  7.14364E+03 -6.07174E+03
  1.02537E+04 -5.36374E+03  8.97872E+03  3.08232E+03  6.28953E+03  2.87792E+03 -6.40004E+03 -1.80395E+03
 -5.16297E+03 -1.02629E+04 -1.92529E+03 -1.35940E+03  3.04191E+03 -1.21068E+04  1.64260E+04 -2.14929E+03
  1.43669E+04  9.53192E+02  5.08198E+03  1.09833E+04  3.61504E+03  1.33938E+04 -7.64667E+03  9.44119E+03
 -3.54789E+03 -4.81201E+02 -3.52870E+03 -4.49790E+03 -1.02589E+03 -3.04626E+03  4.10084E+03 -3.62661E+03
  7.08845E+03  3.62322E+03 -7.61770E+02  7.23165E+03 -7.27547E+03  8.45919E+03 -9.81608E+03  1.56457E+02
 -7.57270E+03  2.48109E+02 -8.30781E+02 -5.99040E+03  1.22193E+04 -3.24906E+03  6.38366E+03  3.06378E+03
  3.38411E+03  3.08693E+03 -6.38062E+03  8.42044E+03 -8.10065E+03  6.01421E+03 -8.36944E+03 -1.74419E+03
 -3.84965E+03 -9.83268E+03 -1.75655E+03 -6.39235E+03  7.77277E+03 -1.71036E+03  1.04490E+04  3.28156E+03
  4.61312E+03  7.64941E+03  1.40100E+03  1.18519E+04 -1.06491E+04  5.54408E+03 -1.90680E+03  3.08417E+03
 -4.34032E+03 -9.21700E+03 -6.68684E+03 -7.46985E+03  3.40370E+03 -5.46379E+03  2.07524E+02 -1.37543E+03
  4.97406E+03  1.61225E+03 -2.75418E+03  3.12227E+03  1.88231E+03 -6.69510E+03  1.21989E+03 -2.16754E+03
  7.34287E+03 -4.34869E+03  8.93287E+03  2.78471E+03  7.43703E+03  7.26228E+03  8.36713E+03  1.24251E+04
 -3.73525E+03  1.47032E+04 -1.43542E+04  1.26580E+04 -1.76555E+04 -1.17122E+03 -1.15946E+04 -3.26308E+03
 -7.45301E+03 -9.92706E+03 -3.23029E+03 -8.71454E+03  4.47445E+03 -1.01452E+04 -3.45813E+03  4.04098E+03
  4.52078E+02 -2.44519E+03  2.26980E+03 -2.69097E+03  7.67788E+03 -4.33319E+03  6.14995E+03  9.07509E+01
  9.32943E+03  1.13047E+03 -3.00214E+02  4.18065E+03 -5.62483E+03  6.30942E+03 -5.92854E+03  3.14719E+03
 -8.16659E+03  1.87699E+03 -1.61984E+03 -7.01865E+03 -4.28731E+02 -7.90434E+03  1.30540E+03 -7.26085E+03
  1.06191E+04 -3.08328E+03  1.10779E+04 -1.42703E+03  5.81789E+03  5.82257E+03  4.13528E+03  1.22142E+04
  3.80883E+03  6.62524E+03 -3.87105E+03  4.11825E+03 -5.76286E+03 -1.14511E+03 -1.86302E+03 -2.84677E+03
  1.52404E+03  2.77701E+03 -1.76290E+03  1.55049E+03 -2.94090E+03 -1.44526E+03 -6.66542E+03 -1.28602E+01
 -2.91708E+03 -4.74860E+03 -3.05063E+03 -2.07589E+03  3.19884E+03 -5.55463E+03  3.98944E+03 -8.17045E+02
  1.28444E+03  1.39341E+03 -2.08085E+03  5.27499E+03 -3.04025E+03  6.52655E+03 -8.42061E+03  3.23994E+03
 -5.41548E+03 -1.31599E+03 -8.22238E+03 -6.37855E+03 -2.02645E+03 -6.02501E+03  8.00147E+03 -9.79262E+03
  5.81296E+03 -2.33452E+03  6.83685E+03 -9.20288E+01 -2.18795E+03  4.95518E+03 -1.21721E+03  2.78769E+03
  6.44402E+03  2.39563E+03  2.58674E+03 -1.06125E+03  9.37287E+02 -1.42057E+03  2.98032E+03  6.40502E+03
  1.15245E+03  9.07366E+03 -4.55277E+03  7.39026E+03 -9.20605E+03  1.85963E+03 -6.30322E+03 -1.45247E+03
 -2.67645E+03 -1.07396E+04  4.30409E+03 -7.10688E+03  2.06092E+03 -6.38246E+03  3.84211E+03 -7.10838E+02
  4.03294E+03  5.91987E+03  7.50037E+02  3.18956E+03 -6.47422E+03  2.99998E+03  1.83617E+03 -1.18682E+03
  1.45728E+03 -1.74243E+03  6.29149E+02 -2.43730E+03  1.94834E+03 -5.15936E+02  2.59743E+02 -5.64174E+03
  3.73092E+02  1.05968E+03  2.75293E+03 -3.44074E+03  9.67554E+02  2.80287E+02 -5.86901E+03 -1.83184E+03
  1.49199E+03 -1.22347E+03  3.97114E+03  2.20054E+03  2.53052E+03  5.72051E+03 -2.08957E+03  6.50418E+03
 -7.31858E+03  1.03012E+03 -2.39448E+03  3.51611E+03 -5.31747E+03  2.66060E+03 -2.35291E+03 -1.02297E+03
  3.65013E+03 -3.88710E+03 -4.44571E+03  3.55928E+03  2.07587E+03 -1.04301E+03 -5.46460E+01  4.37516E+03
 -1.84822E+02 -1.02694E+03 -4.12141E+03  3.08436E+02 -1.83744E+02 -3.27500E+03 -6.36823E+02 -3.30705E+03
  4.29472E+03  2.82176E+03  4.77420E+03  4.37805E+01  9.33565E+02  1.41226E+02 -4.05475E+03  3.99869E+02
 -2.99810E+03  1.01707E+03 -2.89202E+03 -5.01382E+03 -9.01885E+02  2.11732E+03  5.04381E+03 -2.08076E+03
  9.51369E+03 -1.20168E+03  3.70038E+03 -1.95543E+03  1.28280E+03  1.46732E+03 -3.22571E+03  2.83615E+03
 -5.86952E+03  3.13560E+03 -8.44891E+03 -4.00946E+01 -1.99081E+03 -5.39579E+03  1.19844E+03  3.12029E+02
  5.23677E+03 -3.02204E+03 -1.81329E+02 -3.57757E+03  3.36745E+03  1.02202E+03 -3.87446E+02 -1.42627E+03
 -3.55822E+02  4.23584E+03 -2.84044E+03  1.79548E+03 -3.24328E+02  1.73016E+03 -4.52124E+03 -1.75041E+03
 -2.15401E+03 -1.21497E+03 -1.96481E+03  4.28443E+03 -3.70509E+03  4.90118E+03 -8.87686E+03 -4.39583E+03
 -7.42676E+02 -7.78302E+03  1.34129E+03 -9.92725E+03 -2.26608E+02 -6.23450E+03  8.55621E+03 -6.00023E+02
  2.51929E+03  3.24843E+03 -2.26305E+03  2.15467E+03 -1.58678E+02  5.08983E+03 -3.27627E+03  3.83734E+02
 -2.14611E+02  6.47419E+03 -2.69026E+03 -7.88187E+03  3.22852E+03 -2.74408E+03  3.44465E+03  1.97240E+03
 -3.33814E+03  1.31983E+03 -2.74321E+03 -3.16714E+03  3.03091E+03  5.55033E+03 -2.96252E+03  1.36981E+03
  5.06665E+03  1.35939E+03  3.04080E+02  4.40096E+02  4.39073E+03  1.89212E+03 -1.88886E+03  1.77932E+03
  1.93202E+03  1.14685E+04 -4.31688E+03  2.09302E+03 -4.89043E+03 -9.29116E+02 -3.66359E+02 -1.49104E+03
 -3.86925E+03 -4.22740E+01 -1.64433E+03 -4.49720E+03  4.00432E+03 -1.67933E+03 -2.74743E+03  1.60011E+03
  8.09651E+03 -1.44215E+03 -2.27990E+03 -6.55831E+02 -9.22832E+02 -3.11872E+03 -1.54546E+03  1.40980E+03
 -1.54112E+03  2.05594E+03 -1.49562E+03 -5.36454E+03  5.56243E+02  7.76044E+03 -4.64343E+02 -1.26944E+03
 -2.63750E+03  1.15720E+02 -2.27054E+03 -1.18952E+03  5.89814E+02  2.15514E+03  1.46773E+03  3.21365E+03
 -3.47113E+02 -5.96871E+02  1.13728E+03 -2.34221E+03 -1.93572E+03 -7.15226E+02 -9.43837E+02  3.38099E+03
  5.26886E+03 -3.17654E+02  9.55681E+02  4.28380E+03  2.22916E+03  3.67930E+02 -2.66505E+03 -1.14060E+03
 -4.13339E+03  1.75135E+03  1.37503E+03 -1.65007E+02 -2.14776E+03  2.06648E+02 -1.22449E+03 -2.18589E+03
  1.32560E+03 -3.19241E+03 -2.00403E+03 -1.35881E+03  7.45204E+02 -4.77197E+02  1.01571E+03 -1.31399E+03
  2.06977E+03  1.92477E+03 -8.10929E+02  1.68156E+03  2.78042E+03 -1.15851E+03 -5.30613E+02 -1.52275E+03
