 $NMID ID='MM_0lb_SNR50_8hz_g50_15.RAW', FMTDAT='(8E13.5)'
 TRAMP=1., VOLUME=1. $END
  3.04174E+05  1.66832E+03  3.34897E+05  2.46975E+05  8.18911E+04  3.35592E+05 -1.33150E+05  2.56706E+05
 -1.98272E+05  8.62395E+04 -1.15296E+05 -2.80106E+04 -1.43903E+03 -5.36344E+04  5.17824E+04  7.59676E+03
  3.62613E+04  5.47785E+04 -1.93229E+04  8.00722E+04 -5.75328E+04  6.83025E+04 -8.16588E+04  3.10133E+04
 -8.06209E+04 -1.57630E+04 -5.86772E+04 -5.15605E+04 -2.10680E+04 -7.59225E+04  2.53005E+04 -4.40023E+04
  3.92695E+04  2.16791E+03  1.54614E+04  4.54739E+04 -3.63508E+04  4.50542E+04 -6.84774E+04 -2.13100E+03
 -5.48237E+04 -5.54222E+04 -6.92834E+03 -8.05264E+04  3.59624E+04 -6.55950E+04  5.66442E+04 -1.97464E+04
  5.04148E+04  1.19021E+04  3.89401E+04  2.38307E+04  1.76294E+04  3.68469E+04 -1.88455E+03  2.87780E+04
 -2.58023E+04  1.26373E+04 -1.31438E+04 -5.82248E+03  1.00492E+04 -1.19778E+04  2.58507E+04  1.02048E+04
  2.71505E+03  3.45162E+04 -3.38301E+04  3.74442E+04 -7.24583E+04  4.52324E+03 -5.36751E+04 -3.40847E+04
 -5.94775E+03 -6.18103E+04  4.29630E+04 -4.89398E+04  5.70973E+04  5.26642E+02  3.08178E+04  3.75995E+04
 -3.54787E+03  3.58298E+04 -3.05376E+04  1.69231E+04 -3.70526E+04 -4.05139E+03 -2.55479E+04 -1.49206E+04
 -1.04280E+04 -1.66297E+04  3.85037E+03 -2.05996E+04  4.47452E+03 -1.96255E+04  1.90594E+04 -1.24001E+04
  1.38741E+04  1.55500E+03 -7.83172E+03  1.11464E+04 -2.94156E+04 -2.57218E+03 -1.15426E+04 -4.14251E+04
  2.64352E+04 -4.85343E+04  5.52574E+04 -2.02445E+04  4.64638E+04  1.91417E+04  1.50654E+04  5.00190E+04
 -1.57414E+04  4.15350E+04 -2.51100E+04  3.57670E+03 -6.37634E+03 -3.07535E+04  1.88029E+04 -3.93451E+04
  4.50915E+04 -1.16619E+04  3.99521E+04  2.43443E+04  1.28944E+04  5.49845E+04 -8.95795E+03  5.93621E+04
 -3.45410E+04  3.46332E+04 -5.22833E+04  9.21157E+03 -5.02640E+04 -2.25962E+04 -2.64532E+04 -5.11626E+04
  1.12780E+04 -3.98325E+04  2.84569E+04 -2.10316E+04  3.05306E+04  5.12665E+03  5.89627E+03  2.10441E+04
 -1.44956E+04  1.32245E+04 -9.94431E+03 -9.22481E+03  5.51593E+03 -1.45864E+04  1.99852E+04  5.00800E+03
  1.63816E+04  2.82770E+04 -8.31088E+03  2.07458E+04 -1.95177E+04  1.15728E+04 -3.59187E+04 -3.40954E+03
 -3.23546E+04 -1.50909E+04 -1.04461E+04 -2.12684E+04  7.20502E+03 -2.39962E+04  2.52485E+04 -2.52952E+04
  3.06352E+04 -1.98275E+04  3.61358E+04 -3.10174E+03  2.87294E+04  2.40503E+04  5.76404E+03  3.84101E+04
 -1.05173E+04  3.69376E+04 -3.07845E+04  4.51862E+03 -2.34793E+04 -1.50836E+04 -6.60188E+03 -1.74777E+04
  5.96395E+03 -4.86708E+03 -1.34677E+04  2.40734E+03 -2.71887E+04  8.18202E+03 -1.49164E+04 -6.49798E+03
 -1.46773E+04 -2.21289E+04  1.91045E+03 -2.89006E+04  2.10671E+04 -2.71614E+04  3.21124E+04 -7.31714E+03
  1.96329E+04  2.03909E+04  7.19896E+03  2.09507E+04 -1.56001E+04  1.64982E+04 -2.87135E+04 -8.96660E+02
 -2.24867E+04 -1.92159E+04  3.27821E+02 -3.75935E+04  8.54048E+03 -2.84562E+04  2.63874E+04 -1.76624E+04
  2.06056E+04 -1.56387E+03  1.40296E+04  1.16059E+03  7.58015E+03  1.34998E+03  7.87091E+03 -4.41700E+03
  2.61809E+04  7.83244E+02  2.94369E+04  2.65786E+04  2.13303E+04  3.99215E+04 -7.02728E+02  5.01012E+04
 -2.14874E+04  4.18191E+04 -4.22742E+04  1.82895E+04 -4.61106E+04 -1.06706E+03 -3.87790E+04 -3.47012E+04
 -1.52163E+04 -3.71794E+04  1.15973E+04 -3.27627E+04  2.95168E+04 -1.44720E+04  2.59774E+04  6.89324E+03
  1.24213E+04  1.65341E+04 -8.47187E+03  1.20492E+04 -2.19298E+04  1.58583E+03 -2.13529E+04 -1.62025E+04
  8.95304E+03 -2.24770E+04  1.34724E+04 -1.49032E+04  1.15335E+04 -1.25272E+03  2.92833E+03  1.07756E+04
 -8.66608E+03  2.48128E+03 -3.53464E+03 -7.75249E+03 -8.59022E+03 -2.24625E+04  6.63785E+03 -2.25302E+04
  2.87059E+04 -1.10913E+04  2.74739E+04  4.24782E+03  2.40022E+04  1.59702E+04  1.46478E+04  3.13150E+04
 -1.23078E+04  3.15048E+04 -2.77813E+04  2.52161E+04 -3.06827E+04  3.13709E+03 -1.60376E+04 -9.02103E+03
 -9.50136E+03 -9.52388E+03 -3.22336E+03 -2.10798E+03  2.77888E+03  6.47610E+03 -6.62886E+03  9.84075E+03
 -1.48069E+04 -7.73487E+03 -1.17615E+04 -2.06015E+04 -4.12280E+03 -1.13576E+04  9.93199E+03 -1.92594E+04
  1.34983E+04 -3.92697E+03  1.75918E+04  8.22795E+03  4.65833E+03  8.87684E+03 -1.46898E+04  7.34804E+03
 -1.17928E+04 -1.12285E+04  3.78070E+03 -1.42647E+04  1.07118E+04 -1.18619E+04  2.25846E+04 -1.23731E+04
  2.53915E+04  1.21244E+03  9.93848E+03  1.14893E+04  1.89505E+03  1.65427E+04 -9.25135E+03  2.31538E+04
 -1.84657E+04  1.63706E+03 -2.22532E+02  1.90651E+03  8.77653E+02 -1.03294E+04  7.43890E+03  4.60402E+03
  7.26195E+03  5.57016E+03  2.68589E+03  1.65288E+04 -8.18412E+03  1.22160E+04 -2.03373E+04  1.46567E+03
 -1.13985E+04 -8.18589E+03  3.35666E+03 -1.36313E+04  4.76614E+03 -1.15851E+04  7.35490E+03  5.72454E+03
  4.04506E+03  1.54429E+04 -4.54386E+03  1.05174E+04 -1.84621E+04  7.89788E+03 -1.99970E+04 -3.97842E+03
 -1.50707E+04 -2.82377E+04  1.63466E+03 -1.58494E+04  1.39785E+04  2.18708E+03  1.85312E+04  8.27769E+03
  8.82619E+03  1.24983E+04 -4.03149E+03  1.99302E+04 -7.15122E+03  8.78221E+03 -9.22106E+03 -6.59314E+03
 -1.29762E+04 -1.51784E+04  1.47217E+03 -1.05047E+04  2.85670E+03 -9.19130E+03  6.58334E+03 -6.67741E+03
  5.37389E+03  1.71531E+03 -5.96902E+03  2.26482E+02 -9.11332E+02 -5.24362E+03  1.88036E+02 -6.00896E+03
  1.58335E+04 -1.74394E+03  2.05956E+04  8.67803E+03  1.71497E+04  1.02532E+04  4.97774E+03  2.34576E+04
 -6.68786E+03  2.89659E+04 -2.37748E+04  1.88244E+04 -3.23357E+04 -1.65487E+03 -2.22995E+04 -7.44966E+03
 -1.84741E+04 -1.78714E+04  9.34066E+02 -1.69748E+04 -9.70751E+02 -1.49911E+04  1.42971E+04 -8.15098E+03
  8.92351E+03 -9.70908E+02  5.50175E+03 -8.21628E+03  5.92643E+03 -8.38306E+03  7.58676E+03 -2.18295E+03
  9.99256E+03 -2.03651E+03  5.56788E+03  6.43608E+03  4.82854E+02  1.08839E+04 -1.25230E+04  9.55131E+03
 -1.35497E+04 -4.88082E+03 -8.95259E+03 -1.11544E+04  3.75754E+03 -2.12421E+04  1.41598E+04 -2.06678E+04
  1.93405E+04 -2.21405E+03  2.20071E+04  5.67352E+03  2.06358E+04  2.00346E+04 -2.31155E+03  2.80467E+04
 -2.49657E+03  2.02437E+04 -9.69163E+03  5.51938E+03 -8.40403E+03 -4.87852E+03 -7.08308E+03 -7.73430E+02
 -9.15798E+03  5.60947E+02 -1.74813E+03  7.37855E+03 -7.43774E+03 -2.09734E+03 -4.71228E+03 -2.65111E+03
 -5.29217E+03 -7.21224E+03  4.77293E+03 -2.27707E+04  4.07816E+03 -1.40189E+04  1.47273E+04 -8.88353E+02
  1.62047E+04  5.47981E+03  4.12984E+03  1.45848E+04 -6.87591E+03  1.39660E+04 -8.93786E+03  6.31878E+03
 -1.76709E+04  5.14072E+03 -7.98337E+03 -3.03714E+03  2.97607E+02 -1.17413E+04  2.19791E+03 -1.46534E+04
  1.66056E+04 -6.45749E+03  1.16900E+04  3.38121E+02  4.03429E+03  1.65106E+03  1.69728E+03  7.71282E+03
 -1.85433E+03  2.58222E+03  1.60357E+03  5.39817E+03  1.74272E+03  1.14946E+04  5.83570E+03  8.07903E+03
 -3.40537E+03  1.03722E+04 -1.60854E+04  1.42652E+04 -1.38811E+04  2.13504E+03 -1.68521E+04 -7.02757E+03
 -1.13780E+04 -1.48564E+04  1.11312E+03 -1.93575E+04  1.02019E+04 -1.57600E+04  1.11565E+04  2.14404E+03
  1.54966E+04  2.45033E+03  1.52296E+03  1.45782E+04 -4.57683E+02  7.01937E+03 -7.65439E+03  5.23610E+03
 -2.90037E+03 -4.49725E+03  6.83047E+03 -4.36604E+03  2.88425E+03 -5.40768E+03  2.78001E+03  5.08051E+03
  3.84562E+03 -1.45473E+03 -2.33388E+03 -1.55110E+02  4.08811E+03  4.21355E+02  4.25365E+03 -3.06257E+03
 -3.17143E+03 -6.02270E+03 -9.38437E+01 -3.16258E+03  2.27365E+03  9.12119E+03 -3.42391E+03  1.22633E+04
 -9.43716E+03  6.70344E+03 -9.89487E+03 -2.49378E+03 -1.75682E+04 -5.51493E+03 -2.83390E+03 -4.92081E+03
 -2.72954E+03 -6.64953E+03  3.42071E+03 -6.63839E+03  5.72719E+03  1.98134E+03 -2.21310E+03  7.62127E+03
  1.90242E+03  3.98582E+03 -6.87644E+03 -7.73653E+03 -1.30346E+03 -1.00120E+04  7.68854E+02 -8.62908E+03
 -1.35219E+03 -1.05431E+04  4.28208E+03  3.94336E+03  4.02424E+03  7.44152E+02 -1.02822E+04  1.24600E+04
 -1.42522E+03  3.83403E+03 -1.26048E+04 -5.54314E+03  5.28142E+03 -8.18656E+03  1.17298E+04 -1.74239E+03
  8.30144E+03 -1.01064E+03  1.31628E+04  5.68958E+03  4.33347E+03  1.11328E+04 -3.19391E+03  1.35327E+04
 -5.62089E+03  2.75432E+03 -5.36599E+03  3.47088E+03 -7.45848E+03 -1.17399E+04  6.84685E+03 -3.18598E+03
  8.69283E+03 -4.80941E+03  5.10290E+03 -1.66631E+02 -1.26849E+03  1.07285E+04  2.48730E+03  5.98843E+03
 -4.56280E+03  2.93767E+03 -7.03069E+03  3.14278E+03 -7.86842E+02  9.32265E+03 -5.36759E+03  1.39225E+03
 -7.28923E+03  7.10977E+03 -5.67956E+03  7.35366E+03 -1.19033E+04 -4.43885E+03 -1.42403E+04 -9.79931E+03
 -1.69356E+04 -1.56185E+04  1.19836E+04 -2.26709E+04  1.45834E+04 -8.65800E+03  2.21993E+04 -1.06716E+04
  1.45250E+04  1.55066E+03  6.90681E+03  1.26702E+04 -3.14431E+03  1.14813E+04 -9.80775E+03  9.03701E+03
 -7.18662E+03 -1.41707E+02 -1.03946E+04 -6.50411E+03 -2.27538E+02  3.63195E+03 -2.74341E+03  3.11202E+03
 -6.34784E+03  7.89961E+03 -7.84608E+02  2.73446E+03  3.50117E+03 -2.35270E+03  4.36874E+03 -4.46003E+03
  3.25242E+03 -1.35725E+03  7.57418E+03 -9.64221E+02  3.50120E+03  1.07499E+04  9.04365E+03  1.12490E+04
 -4.71577E+03  1.62988E+04 -1.74550E+04  7.61900E+03 -2.01744E+04  2.95071E+03 -4.10532E+03 -1.18215E+04
 -2.64818E+03 -8.01912E+03  6.54935E+03 -9.26139E+03  5.23574E+03 -6.17345E+03  1.19736E+04 -5.33364E+02
  1.71700E+03  2.77217E+03 -3.39963E+03  7.11112E+03 -2.39502E+03  7.21270E+01  1.97427E+03 -2.86646E+03
  3.82146E+03  1.99023E+03  1.95170E+03  2.82734E+03  7.74511E+03  9.49818E+03  7.08328E+03  3.53746E+03
 -3.76571E+03  1.04511E+04 -5.03207E+03  1.10748E+03 -6.81932E+03 -9.16695E+03 -7.62855E+03 -8.77717E+03
  5.06439E+03 -3.88191E+03  1.06778E+04 -9.45244E+03  1.19813E+04  2.05641E+03  8.09370E+03  5.68750E+03
  4.27549E+03  6.46547E+03 -1.14052E+04  9.74108E+03 -8.03322E+03  3.27191E+03 -7.01002E+03  1.34122E+02
 -5.08408E+03 -9.00769E+01 -3.33458E+03  3.64492E+03 -2.84827E+03  7.87257E+03 -6.10363E+03 -2.55252E+03
 -6.56663E+03 -1.78367E+03  4.18858E+03 -7.95209E+03  2.94246E+03 -1.37756E+03  4.03158E+03 -3.30970E+03
  8.54139E+03  1.13299E+03  1.01356E+04 -1.51659E+03  2.58888E+03  7.76607E+03 -4.55035E+03  7.96334E+03
