 $NMID ID='MM_0lb_SNR50_9hz_g50_93.RAW', FMTDAT='(8E13.5)'
 TRAMP=1., VOLUME=1. $END
  3.12454E+05  1.20419E+03  3.32431E+05  2.51570E+05  8.53103E+04  3.35943E+05 -1.33196E+05  2.54392E+05
 -1.93096E+05  8.27244E+04 -1.09821E+05 -2.94085E+04  1.18317E+03 -5.22559E+04  5.07019E+04 -1.10509E+03
  3.64628E+04  4.79789E+04 -1.46230E+04  7.13665E+04 -5.87107E+04  5.93990E+04 -8.28381E+04  2.86650E+04
 -8.30480E+04 -7.67071E+03 -4.97461E+04 -5.36607E+04 -1.75610E+04 -6.94214E+04  2.92065E+04 -5.25483E+04
  4.39856E+04  4.93259E+03  1.60560E+04  4.60493E+04 -3.00535E+04  5.03098E+04 -6.57357E+04 -2.34961E+03
 -5.36145E+04 -5.68956E+04 -1.29257E+03 -7.94047E+04  3.50687E+04 -6.05042E+04  5.15745E+04 -1.56785E+04
  5.28435E+04  7.19466E+03  2.77772E+04  2.76834E+04  1.74691E+04  2.66490E+04 -5.17782E+03  2.14271E+04
 -1.99326E+04  1.49322E+04 -1.69276E+04 -4.77641E+03  1.22221E+04 -4.64344E+03  2.34627E+04  6.63095E+03
  9.76967E+03  3.95779E+04 -2.96324E+04  3.70429E+04 -6.64232E+04  5.13325E+03 -5.58313E+04 -4.74522E+04
 -1.51265E+04 -7.18076E+04  4.55396E+04 -4.53685E+04  5.73829E+04 -3.25438E+03  3.52179E+04  3.22996E+04
 -7.45910E+03  4.39846E+04 -3.17591E+04  2.23455E+04 -3.22300E+04 -2.94703E+03 -1.67792E+04 -1.29491E+04
 -1.06991E+04 -1.86113E+04  4.16516E+02 -2.88399E+04  1.25816E+04 -1.94604E+04  1.27822E+04 -1.05505E+04
  1.16602E+04  4.40474E+03 -1.24195E+04  1.32800E+04 -2.34411E+04 -1.29237E+04 -3.97753E+03 -3.79649E+04
  2.79730E+04 -4.85885E+04  5.62371E+04 -2.39626E+04  5.11622E+04  1.16955E+04  2.12586E+04  4.66284E+04
 -1.86312E+04  3.22497E+04 -2.53393E+04  3.93419E+03 -1.47663E+04 -3.59674E+04  1.95199E+04 -3.66360E+04
  3.88046E+04 -1.11371E+04  3.83000E+04  2.25104E+04  2.05051E+04  5.01338E+04 -5.84770E+03  5.67608E+04
 -3.27840E+04  4.10980E+04 -4.43225E+04  1.47806E+04 -5.11170E+04 -2.22775E+04 -2.08694E+04 -3.78190E+04
  8.39954E+03 -3.87892E+04  3.30170E+04 -1.66188E+04  3.51840E+04  7.80353E+03  5.92046E+03  1.99183E+04
 -7.11830E+03  1.14045E+04 -1.37918E+04 -8.26760E+03  9.73777E+03 -1.04440E+04  2.26772E+04  1.02261E+03
  1.67465E+04  1.89803E+04  4.02664E+01  2.10973E+04 -2.77382E+04  8.39241E+03 -2.74101E+04 -9.16074E+02
 -2.89616E+04 -2.48346E+04 -1.37033E+04 -2.79673E+04  6.13601E+03 -2.60116E+04  1.98846E+04 -2.21654E+04
  3.10389E+04 -1.18139E+04  3.67673E+04  1.15225E+04  2.57645E+04  2.41369E+04  1.25073E+04  4.72142E+04
 -1.68024E+04  3.69175E+04 -2.87384E+04  1.39655E+04 -2.92700E+04 -1.03783E+04 -5.66761E+03 -1.30489E+04
  8.66582E+03  5.03836E+03 -2.75426E+03  8.31263E+03 -1.31068E+04  5.49107E+03 -2.19073E+04 -6.69068E+03
 -8.06069E+03 -2.77470E+04  4.98935E+03 -2.94751E+04  1.97217E+04 -2.17555E+04  2.38588E+04  4.02099E+03
  1.30803E+04  1.75756E+04 -4.41725E+03  2.59811E+04 -1.49303E+04  1.77571E+04 -2.16179E+04 -1.83584E+03
 -2.78510E+04 -1.75945E+04 -9.06433E+03 -3.15348E+04  1.25678E+04 -2.82881E+04  2.23848E+04 -8.67753E+03
  1.89553E+04  1.64446E+03  1.32286E+04  5.62237E+02  4.27033E+03  7.22626E+03  1.80056E+04  1.05626E+03
  2.15990E+04  4.02528E+03  2.74732E+04  1.95960E+04  1.75427E+04  3.56785E+04 -1.37051E+03  4.82988E+04
 -2.65897E+04  2.94170E+04 -4.17929E+04  2.17850E+04 -5.07986E+04 -1.00210E+03 -3.94810E+04 -2.60045E+04
 -1.55363E+04 -3.71996E+04  2.31921E+04 -3.00353E+04  2.85045E+04 -1.51195E+04  2.51699E+04  1.12273E+04
  8.26822E+03  2.58336E+04 -1.79567E+04  1.68981E+04 -2.34210E+04 -1.98628E+03 -5.46963E+03 -1.56660E+04
  1.36614E+03 -1.95493E+04  1.22404E+04 -1.14062E+04  1.59930E+04 -6.36079E+03  4.76717E+03  1.21047E+04
 -5.40042E+03  7.35827E+03 -1.73004E+03 -8.37308E+03 -6.31608E+01 -1.76000E+04  1.38797E+04 -2.39529E+04
  2.15368E+04 -9.45626E+03  3.07017E+04 -2.49490E+03  1.89309E+04  2.06086E+04  6.37873E+03  3.37531E+04
  1.21323E+03  3.27024E+04 -2.06879E+04  1.88665E+04 -2.50042E+04 -2.44292E+03 -7.08344E+03 -3.05866E+03
 -7.20947E+03 -7.89154E+03 -8.05804E+02  9.40318E+02 -1.23904E+03 -1.35911E+03 -1.06888E+04  8.04938E+03
 -1.84095E+04  2.44203E+02 -1.92997E+04 -1.17866E+04 -7.67333E+03 -1.84540E+04  4.99934E+03 -2.15087E+04
  1.82199E+04 -5.80249E+03  1.60059E+04 -9.97456E+02 -4.50024E+03  6.80492E+02 -5.34468E+03 -4.10560E+03
 -5.31197E+03 -4.99290E+03  3.47102E+02 -2.13356E+04  9.35332E+03 -1.94507E+04  1.69274E+04 -4.01230E+03
  2.53712E+04  5.64447E+03  2.15339E+04  1.69240E+04  5.05092E+03  2.36457E+04 -7.76701E+03  1.31717E+04
 -1.04514E+04  8.38482E+03 -8.91584E+03 -4.43270E+03  1.27465E+04 -1.51362E+04  6.88103E+03 -1.83244E+03
  7.37401E+03  2.13991E+03  1.93453E+03  1.14169E+04 -9.43214E+03  1.62189E+04 -2.08269E+04  7.18910E+03
 -7.65272E+03 -7.09474E+03 -3.84607E+03 -1.36390E+04  8.38783E+03 -6.67880E+03  1.03460E+04  2.95510E+03
  2.50174E+03  1.21167E+04 -1.03925E+04  1.97265E+04 -1.44672E+04  5.67619E+03 -1.35294E+04 -2.69782E+03
 -1.10637E+04 -1.68003E+04  6.16544E+03 -1.67482E+04  1.49217E+04 -8.59956E+03  1.18979E+04  4.73694E+03
  7.24385E+03  4.23742E+03  5.26566E+02  2.00884E+04 -1.34970E+04  7.46984E+03 -1.30590E+04 -5.04938E+03
 -1.16278E+04 -1.21366E+04  5.42098E+02 -1.14413E+04  1.07153E+04 -8.16298E+03  1.04862E+04 -1.44758E+03
  3.70594E+03 -4.54761E+03  1.16567E+03  5.19849E+03 -6.38861E+03 -4.37756E+02  9.08068E+03 -1.00724E+04
  1.51622E+04 -5.95765E+03  8.69253E+03  5.15602E+03  1.37972E+04  1.37922E+04  1.00106E+04  2.13409E+04
 -7.00726E+03  1.97628E+04 -1.97759E+04  1.45141E+04 -2.12731E+04  3.92392E+03 -2.17383E+04 -1.50913E+04
 -9.88313E+03 -1.62167E+04 -1.54478E+03 -1.15379E+04  4.02501E+03 -1.82340E+04  4.93316E+03 -5.63903E+03
  2.29266E+03  8.42431E+02  2.55133E+03 -1.74640E+03  5.39234E+03  3.68590E+03  4.93266E+03  2.84969E+03
  1.11503E+04 -4.85948E+03  4.00272E+03  4.89558E+03  6.53643E+03  9.63675E+03 -1.61250E+04  6.33648E+03
 -1.35441E+04 -5.71561E+02 -1.06683E+04 -1.00521E+04  4.36520E+03 -1.69634E+04  1.28958E+04 -1.28794E+04
  2.00740E+04 -8.36844E+03  2.45056E+04  7.71226E+03  1.72102E+04  1.48670E+04 -3.16156E+03  2.34404E+04
 -2.09404E+03  1.49150E+04 -1.29061E+04  4.25689E+03 -6.92065E+03  3.94710E+03 -2.32201E+03 -7.38757E+03
 -6.24036E+03  9.09496E+02 -3.81603E+02  1.57823E+03 -3.16171E+03  1.99022E+03 -1.21210E+04  5.36409E+03
 -7.37199E+03 -1.77630E+04  2.66957E+03 -2.11490E+04  9.58236E+03 -1.43723E+04  1.99819E+04 -7.67030E+03
  1.39247E+04  8.57591E+03  3.18824E+03  6.04728E+03 -2.39060E+03  1.43885E+04 -7.44459E+03  7.74973E+03
 -1.64659E+04 -3.77794E+03 -1.05214E+04 -9.47802E+03 -1.63913E+03 -2.08416E+04  9.15367E+03 -2.33576E+03
  6.04507E+03  1.79933E+03  1.25789E+04  5.63852E+02  6.76868E+02  1.01336E+04  7.86486E+03  3.29328E+03
 -1.74003E+02 -4.55031E+03  5.30723E+03  1.78078E+03  3.57166E+03  5.77369E+03  6.98885E+02  9.60109E+03
 -3.97255E+03  9.70932E+03 -1.03833E+04  8.07642E+03 -1.11813E+04  2.56421E+03 -8.29963E+03 -8.28106E+03
 -1.07220E+04 -1.90135E+04  3.38353E+03 -1.68201E+04  3.23692E+03 -8.77591E+03  1.45265E+04 -3.03434E+01
  1.09791E+04  5.43080E+03  4.59897E+03  7.98242E+03 -1.72690E+03  3.53456E+03 -6.22444E+03  2.90644E+03
 -4.80051E+03 -5.55769E+03  5.00291E+03 -7.99980E+03  9.15731E+03  3.44227E+02  7.45526E+03  5.47464E+03
  6.14349E+03 -5.50375E+02 -2.74043E+03  7.69337E+02 -1.72741E+03  7.77948E+02  7.61654E+02 -3.02256E+03
  3.32886E+03  1.03036E+03  6.08118E+03 -4.42668E+03  5.65118E+03  6.24542E+03 -4.79037E+03  9.44038E+03
 -9.29714E+03  7.70593E+03 -1.34759E+04  3.17316E+03 -9.90435E+03 -1.05611E+03 -5.40422E+03 -6.89205E+03
  4.00183E+03 -1.35300E+03  4.45891E+03 -4.12584E+03  7.67157E+03  9.01346E+02 -1.10449E+04  8.64023E+03
 -6.44237E+03 -1.22126E+03 -1.00828E+04  1.33331E+02 -1.65918E+03 -7.41151E+03  1.82009E+02 -5.02971E+03
  9.00050E+03 -1.25798E+04  7.84730E+03 -3.56750E+03 -2.48512E+03 -3.41313E+03  7.22398E+03  9.89927E+03
  2.23179E+03  3.26702E+03 -4.32182E+03 -3.49475E+03  2.19454E+03 -1.10740E+04  6.81483E+03 -1.01040E+04
  1.16655E+04 -5.90999E+03  9.02173E+03  8.53593E+03  6.17784E+03  9.08893E+03 -1.36009E+02  7.08087E+03
 -1.15160E+04  5.85757E+03 -1.19642E+04  1.81411E+03 -3.74655E+03 -1.07179E+04  3.24556E+03  4.68580E+03
  5.30787E+03  3.52396E+03  2.77372E+03  1.40909E+03  4.47193E+03  8.81763E+03 -9.73000E+01  4.17964E+02
 -4.88971E+03  5.45759E+03  3.44207E+02 -8.51338E+02 -4.07106E+03 -1.15100E+03 -3.69724E+03 -1.21175E+03
 -9.99057E+03  5.83511E+03 -8.16737E+03  3.24123E+03 -1.36541E+04  6.08744E+03 -1.12296E+04 -2.33615E+03
 -5.30021E+03 -1.77734E+04  3.75109E+03 -1.63077E+04  7.95686E+03 -9.31075E+03  2.02421E+04 -9.45398E+02
  1.32564E+04 -4.40163E+03  5.81631E+03  8.88568E+03 -3.61075E+02  6.98893E+03 -4.99372E+03  6.41026E+03
 -4.97199E+03 -1.82421E+03 -7.19320E+02 -5.08893E+03  7.93559E+02 -8.24559E+02 -3.42936E+03  4.82543E+03
  9.69016E+02 -2.28965E+03 -5.96163E+03  2.29471E+03 -1.56514E+03 -3.03244E+03  4.78330E+02 -3.62196E+03
  2.96554E+02 -6.13922E+03  9.36052E+03  5.44352E+03  7.43701E+03 -1.97536E+03  7.69773E+02  1.24861E+04
 -5.58987E+03  1.33174E+04 -1.66622E+04  1.09198E+04 -2.11227E+04  3.93888E+03 -1.61779E+04 -8.93147E+03
 -9.25960E+03 -9.45989E+03  3.97691E+03 -8.02109E+03  5.97062E+03  2.06577E+02  5.13430E+03  4.85547E+02
  9.23327E+03  3.92394E+03 -1.55313E+03  1.23670E+03 -1.43750E+03 -5.82942E+03  3.78536E+03 -3.74575E+03
  1.76574E+03 -3.33260E+03  5.31737E+03  1.25300E+03  1.22732E+03  6.80338E+03 -2.09937E+03 -8.27162E+02
 -3.54876E+03  2.55864E+03 -6.15320E+03 -2.49536E+03 -5.02254E+03 -1.13141E+04 -3.28853E+03 -1.17050E+04
  7.86480E+02 -5.13290E+03  5.45432E+03  2.39787E+03  8.14642E+03  3.23926E+03  6.15584E+03  9.25482E+03
  2.93758E+03  3.79431E+03  5.96160E+02 -2.22419E+02 -8.83132E+03  2.77765E+03 -1.55645E+02 -3.85863E+03
  2.67826E+03 -4.57863E+03 -5.96423E+03 -2.53867E+03 -1.91640E+03  3.57273E+03  1.08010E+03 -2.15834E+03
 -6.97297E+03 -8.96052E+03 -3.54229E+03 -9.91791E+03  3.21980E+03 -9.43331E+03 -1.77336E+02 -2.93445E+03
  1.08364E+04 -2.96486E+03  5.60584E+03 -1.76782E+02  2.40979E+03  5.68591E+03 -9.02004E+03  8.24142E+03
