 $NMID ID='MM_0lb_SNR50_17hz_g55_25.RAW', FMTDAT='(8E13.5)'
 TRAMP=1., VOLUME=1. $END
  3.11021E+05 -6.40629E+02  3.34380E+05  2.52237E+05  9.03430E+04  3.34353E+05 -1.27180E+05  2.53455E+05
 -1.94498E+05  7.99554E+04 -1.11917E+05 -2.88937E+04  9.20990E+02 -5.10603E+04  4.99958E+04  9.48412E+02
  3.35298E+04  5.59433E+04 -1.71811E+04  7.34953E+04 -5.71681E+04  6.66781E+04 -8.79411E+04  2.92467E+04
 -8.07679E+04 -8.31704E+03 -5.44008E+04 -5.14382E+04 -1.51875E+04 -7.04977E+04  3.11188E+04 -4.39331E+04
  3.26447E+04  5.22762E+03  1.38090E+04  4.28584E+04 -3.14534E+04  4.74044E+04 -6.81192E+04 -3.24208E+03
 -5.13797E+04 -5.91479E+04 -7.85699E+03 -7.93868E+04  3.32879E+04 -5.13564E+04  4.80460E+04 -1.73714E+04
  4.72155E+04  1.06187E+04  2.74952E+04  3.04384E+04  1.41892E+04  2.72830E+04 -2.27723E+03  2.55836E+04
 -2.30288E+04  1.65486E+04 -1.80461E+04 -5.54469E+03  7.57330E+03 -1.21953E+04  2.06977E+04  1.51281E+04
  5.43938E+03  3.68785E+04 -2.74583E+04  3.61150E+04 -6.55713E+04  1.11826E+03 -5.73686E+04 -4.16980E+04
 -1.17524E+04 -6.19533E+04  4.02790E+04 -4.21260E+04  5.29920E+04 -2.14061E+03  3.08206E+04  3.01134E+04
 -7.30879E+03  3.99900E+04 -3.13977E+04  1.31278E+04 -2.91230E+04 -7.29567E+03 -2.01799E+04 -1.14220E+04
 -6.12025E+03 -1.39841E+04 -1.98329E+03 -1.81799E+04  2.53743E+03 -2.14813E+04  1.08350E+04 -1.31188E+04
  1.24521E+04  3.09967E+03 -6.23428E+03  6.46982E+03 -1.78704E+04 -2.99858E+03 -8.91824E+03 -3.19340E+04
  2.26081E+04 -4.14068E+04  4.56556E+04 -2.45397E+04  4.41386E+04  1.63709E+04  2.01216E+04  4.09104E+04
 -1.18130E+04  3.06747E+04 -2.61431E+04  1.63170E+03 -9.26417E+03 -3.07232E+04  2.36676E+04 -3.26189E+04
  3.88997E+04 -7.77909E+03  3.04945E+04  2.52548E+04  1.74322E+04  4.12125E+04 -1.25818E+04  4.62195E+04
 -3.03871E+04  3.51118E+04 -3.61045E+04  1.58051E+04 -4.03048E+04 -1.55745E+04 -2.23959E+04 -3.51272E+04
  9.88912E+03 -3.73083E+04  2.94260E+04 -1.36700E+04  2.76200E+04  1.06290E+04 -7.41153E+01  1.56582E+04
 -1.25838E+04  7.31321E+03 -1.62759E+04 -8.70921E+03  5.68071E+03 -7.73386E+03  1.61559E+04  7.70120E+03
  9.80827E+03  1.71393E+04 -5.19824E+03  2.26958E+04 -1.98749E+04  1.15535E+04 -2.39818E+04 -5.82333E+03
 -2.03507E+04 -1.46522E+04 -1.09843E+04 -1.65155E+04  9.48085E+02 -1.92594E+04  1.71767E+04 -1.78347E+04
  2.40939E+04 -1.66846E+04  3.38959E+04  3.55563E+03  2.68859E+04  1.96484E+04  9.46053E+03  3.73191E+04
 -2.03172E+04  2.45236E+04 -2.74836E+04  1.13619E+04 -2.36090E+04 -1.01093E+04 -9.57631E+03 -1.43784E+04
  1.81528E+03 -1.90939E+03 -9.53077E+03  1.33354E+04 -1.22459E+04  4.87170E+03 -1.17793E+04 -1.28734E+04
 -1.17873E+04 -1.79492E+04  6.01553E+03 -2.24236E+04  1.58235E+04 -1.64799E+04  1.73713E+04 -5.03847E+03
  1.12401E+04  1.38255E+04 -1.03490E+03  1.93811E+04 -1.48471E+04  1.07491E+04 -2.06906E+04 -3.98896E+03
 -1.43468E+04 -1.92864E+04 -2.20725E+03 -2.14407E+04  9.69087E+03 -1.65654E+04  1.76237E+04 -7.61622E+03
  1.81602E+04 -8.34713E+02  1.25176E+04  7.19553E+02  9.04377E+03 -3.99297E+02  1.11981E+04 -6.51222E+02
  2.09284E+04  6.57812E+03  1.83848E+04  1.45966E+04  1.35669E+04  2.96994E+04 -2.79880E+02  2.84927E+04
 -1.44476E+04  2.48812E+04 -2.74789E+04  7.16246E+03 -2.78648E+04 -2.71274E+03 -2.67193E+04 -2.06203E+04
 -1.21325E+04 -2.38314E+04  8.56682E+03 -2.12582E+04  1.90396E+04 -1.05054E+04  1.56836E+04  9.20202E+02
  1.55279E+04  1.28643E+04 -7.53391E+03  1.56940E+04 -1.58023E+04  3.28833E+03 -1.16519E+04 -1.14464E+04
  4.62306E+02 -1.38590E+04  4.33981E+03 -1.01423E+04  7.67220E+03 -1.80642E+03  3.11767E+03  7.50499E+03
 -8.26481E+03  3.74469E+03 -6.86608E+03  6.79038E+02  1.94689E+03 -1.13014E+04  8.85724E+03 -8.61294E+03
  1.10404E+04 -2.88746E+03  1.31605E+04  3.15248E+03  1.96664E+04  8.32257E+03  8.95216E+03  1.82456E+04
 -3.17866E+03  2.34907E+04 -9.99273E+03  1.39737E+04 -1.40950E+04  3.21643E+03 -5.15452E+03 -3.06437E+03
 -5.08658E+03 -4.33828E+03  1.48973E+03  1.08454E+03 -2.28763E+03  1.62020E+02 -4.98710E+03  2.71848E+03
 -1.08561E+04 -2.23694E+03 -1.11598E+04 -1.14228E+04 -1.95108E+03 -8.69575E+03  4.29639E+03 -7.88007E+03
  6.94818E+03 -4.07402E+03  7.83230E+03  7.72160E+02  3.02053E+03  2.71149E+03 -5.32982E+03 -2.59408E+03
  1.11087E+03 -6.88804E+03 -1.11221E+03 -1.05092E+04  1.51805E+03 -8.10922E+03  1.22346E+04 -4.22212E+03
  1.52830E+04  1.59908E+03  7.51435E+03  6.39397E+03  4.36501E+03  9.15748E+03 -2.38231E+03  8.56373E+03
 -1.31533E+04  5.51663E+03 -5.14895E+03 -7.69066E+02  1.96922E+03  1.42859E+01  5.27082E+03  6.92454E+02
  2.39579E+03  7.74630E+03  1.21366E+01  6.39864E+03 -7.53975E+03  5.89317E+03 -8.89089E+03  1.50596E+03
  3.80414E+03 -5.34118E+03 -4.13880E+01 -8.89128E+03  2.07764E+03 -1.36140E+03  4.20355E+03  2.83507E+03
  2.60155E+03  5.81505E+03 -2.94559E+03  2.76038E+03 -5.28826E+03  2.98409E+03 -5.03772E+03 -1.30565E+03
  1.27811E+02 -9.40498E+03  1.40066E+03 -8.05977E+03  2.36472E+03 -1.05385E+04  7.24605E+03  2.01961E+03
  4.88761E+03  8.44975E+03  6.10510E+02  5.12256E+03 -3.16256E+03  7.16197E+03 -7.19348E+03  7.34457E+02
 -1.05291E+04 -3.40033E+03 -3.63155E+03 -5.69648E+03  9.62492E+02 -7.51241E+03  3.86785E+03 -5.56177E+03
  5.96054E+03  3.71579E+03 -1.16198E+03  3.44252E+03 -3.27905E+03  2.76227E+03  3.76693E+03 -5.62588E+03
  5.71176E+03 -4.86987E+03  7.33903E+03 -3.84568E+02  4.33014E+02 -1.15683E+03  7.23913E+03  1.08187E+04
 -1.10942E+02  7.94426E+03 -7.14312E+03  7.54227E+03 -1.50258E+04  9.85013E+02 -9.13247E+03 -4.70433E+02
 -3.35211E+03 -4.22822E+03  2.39725E+03 -4.66099E+03  4.22997E+03 -5.82277E+03 -2.57350E+02  9.41340E+02
 -2.12710E+02 -5.48121E+03  1.88429E+03 -9.58009E+01  9.12031E+02 -2.63063E+03  8.37943E+03  4.57995E+01
  3.86697E+03 -9.49701E+02  1.66813E+03  1.20500E+03 -4.23898E+03  8.08264E+03 -5.34406E+03  4.83324E+03
 -1.31785E+04 -2.58044E+03 -2.10542E+03 -7.27636E+03  6.35320E+02 -1.04902E+04  4.59268E+03 -6.81807E+03
  3.00432E+03 -5.05226E+03  5.46496E+03  1.00450E+03  9.23901E+03  3.10748E+03  3.31410E+03  9.92980E+03
 -3.16486E+03  1.20839E+04 -5.47410E+03  2.06591E+03 -1.45335E+03 -3.92255E+02 -3.81747E+03 -1.79331E+03
 -6.61043E+02  2.74513E+03 -1.40066E+03  3.74237E+03  3.03922E+03  1.10610E+03 -5.08012E+02  3.67699E+03
 -2.27830E+03 -5.23283E+03 -6.51806E+02 -5.95964E+03  1.56059E+03 -4.11965E+03  5.38371E+03 -6.98561E+02
  4.37975E+03  5.25474E+03  6.51790E+03  8.43469E+03 -4.16858E+03  8.28554E+03 -3.25454E+03  3.98820E+03
 -3.40008E+03 -1.53532E+03 -7.15691E+03 -2.38626E+03  8.30548E+02  6.67647E+02 -1.18356E+03 -2.15835E+03
  3.70338E+03 -3.79577E+02 -2.15808E+01  1.06778E+03  3.33753E+02 -2.32529E+02  2.36816E+02  2.52281E+03
  4.39520E+03 -3.80938E+02  2.90784E+03 -1.71625E+03  1.42688E+03  4.19079E+02  4.05283E+03  6.11916E+02
 -9.45830E+02  4.08316E+03 -1.98803E+03  4.51385E+03 -5.15875E+03  2.48445E+03 -8.57072E+03 -3.50971E+03
 -4.76892E+03  4.96620E+03  1.13259E+02 -2.87295E+03  3.17114E+03 -1.09410E+03  4.20281E+03  2.96413E+02
  2.35265E+03  3.29945E+03  2.10850E+03  2.60968E+03 -3.72981E+02  1.85363E+03  2.21411E+03  2.06673E+03
 -1.04852E+03  4.52150E+02  3.41963E+03 -2.66987E+03 -9.93488E+01  4.49169E+03  1.36333E+03  1.97821E+03
  2.19464E+03  2.90872E+03 -1.39512E+02 -2.39996E+03 -2.01975E+02 -1.02973E+03 -1.17975E+03 -1.27692E+03
  9.74078E+01  1.04590E+03  2.86124E+03  1.60998E+03 -4.40775E+03  1.77211E+03  4.51682E+03  2.08164E+03
  1.20518E+02 -1.28678E+03  9.85459E+02  1.08635E+03 -1.91250E+03  2.47135E+03 -4.05325E+03 -3.52194E+03
  1.12443E+03 -2.53907E+03 -1.73745E+03 -1.04500E+03  1.60591E+03 -3.85918E+03 -1.04888E+03  3.09815E+03
 -1.42147E+03 -2.92241E+03 -5.80305E+03 -5.00696E+03 -1.51678E+03 -8.71030E+03 -3.93758E+03 -1.84266E+03
  2.34266E+03  9.35462E+01 -1.68206E+03 -1.58010E+03 -3.25305E+01  2.20881E+03 -2.75152E+02  8.40375E+02
  4.45173E+03  2.13168E+03  2.91118E+02  4.09040E+01  5.91382E+02 -3.07090E+02  2.14938E+03  1.62369E+03
  3.79861E+03  1.90105E+03  4.46439E+03 -2.76445E+03  3.37800E+03  1.34993E+03  1.32164E+03  2.17395E+03
  3.23043E+03  1.71446E+03  7.84160E+02  6.84694E+03 -5.25810E+03 -4.33794E+03  1.74672E+03 -2.80800E+03
  2.51905E+03 -1.86937E+02  3.66448E+03  1.94862E+03 -1.04123E+03  9.97558E+02  5.22812E+03 -1.82361E+03
 -1.95791E+03  1.65362E+03 -2.76500E+02 -8.20079E+02  1.29089E+03  4.50677E+02 -5.58113E+02 -1.83385E+02
  4.27344E+03  6.03946E+02 -4.31797E+03 -3.05840E+01 -6.32137E+03  1.75512E+03 -6.20947E+03  8.23721E+02
 -4.67532E+03 -6.18582E+03 -4.22729E+03 -3.06606E+03 -2.49099E+02 -9.95655E+02  3.77089E+03 -1.96395E+03
  6.94042E+03 -7.04013E+02  1.44510E+03  7.39583E+03 -8.02568E+02  2.17700E+03 -6.40352E+02  5.93469E+03
 -6.83393E+02  1.32237E+03 -1.11009E+03  8.17319E+02 -4.73040E+02 -4.18258E+03  3.76111E+02  8.36039E+02
  1.33775E+03 -5.72561E+02 -7.32490E+02 -1.56823E+03  2.64950E+03 -2.68144E+02 -1.61501E+03 -1.81728E+03
 -1.33705E+03 -3.93344E+02 -9.62988E+02  1.25719E+03  1.86104E+03  8.87527E+02 -2.53071E+03  3.30050E+03
  2.02741E+03  4.73120E+03 -4.23768E+03 -6.46885E+02 -4.00127E+03  5.18421E+03 -1.21834E+03 -2.54200E+03
  2.38012E+03 -4.31834E+03 -1.79422E+03  2.02333E+01  2.95883E+03 -1.88699E+03  3.38989E+03 -8.05889E+02
 -1.37097E+03  7.33371E+02 -3.79031E+03  1.46998E+03 -5.81659E+03  1.78058E+03  4.53072E+03  2.40783E+02
  8.79355E+02 -8.49253E+02  5.86726E+02 -1.44607E+01 -1.13568E+03  3.65130E+03  1.83424E+03  2.70736E+03
 -5.05143E+03  5.59567E+03  4.26407E+02 -1.42835E+03 -1.82716E+03 -1.54406E+03 -4.70318E+02 -4.86526E+03
  1.46407E+03 -3.01428E+03  2.03326E+03  2.63297E+02  2.95084E+03 -1.60944E+03  2.31690E+03  9.46252E+02
  1.99992E+03  1.17683E+03  2.66746E+02  3.85295E+02 -5.86470E+03  1.16038E+03 -4.84469E+03  2.13077E+03
  5.15910E+03 -1.12232E+03 -1.77101E+03 -9.51667E+02 -3.52286E+03  2.48117E+03  5.70010E+02  2.11678E+02
  2.32081E+03  4.22000E+03  1.80673E+03  3.92717E+01 -2.63162E+03 -6.57136E+03  6.92545E+02 -5.12545E+01
 -3.74804E+03 -1.11509E+03  1.12024E+02 -1.57853E+03 -2.27791E+02  5.10782E+03 -2.24333E+03 -1.17769E+03
