 $NMID ID='MM_0lb_SNR50_17hz_g50_96.RAW', FMTDAT='(8E13.5)'
 TRAMP=1., VOLUME=1. $END
  3.09390E+05  1.14327E+03  3.39866E+05  2.53656E+05  8.44945E+04  3.37447E+05 -1.32662E+05  2.51863E+05
 -1.90298E+05  8.46673E+04 -1.10531E+05 -3.84789E+04  3.79747E+03 -5.04605E+04  5.34490E+04  3.85576E+01
  3.38415E+04  5.17521E+04 -1.89001E+04  7.34595E+04 -6.39090E+04  6.08228E+04 -8.28091E+04  2.97339E+04
 -7.75924E+04 -1.41014E+04 -5.96164E+04 -4.73689E+04 -1.77842E+04 -7.03774E+04  2.42503E+04 -4.24997E+04
  3.53062E+04  3.66771E+03  1.32219E+04  4.62134E+04 -3.31520E+04  4.24161E+04 -6.64886E+04 -6.40676E+02
 -5.12153E+04 -5.64612E+04 -7.98928E+03 -7.37090E+04  3.65332E+04 -4.97691E+04  4.67668E+04 -1.74751E+04
  3.95057E+04  1.17633E+04  3.81554E+04  2.91784E+04  1.72754E+04  2.76183E+04 -4.24317E+03  2.80663E+04
 -2.26009E+04  1.16733E+04 -1.98670E+04 -7.60427E+03  5.89362E+03 -5.38087E+03  2.05643E+04  8.68772E+03
  7.32983E+03  3.33374E+04 -2.93097E+04  3.50668E+04 -6.12936E+04  2.66220E+03 -5.81830E+04 -4.60543E+04
 -5.68761E+03 -6.20923E+04  3.75757E+04 -4.62581E+04  5.57681E+04 -3.62629E+03  3.44533E+04  3.17627E+04
 -1.57323E+02  3.35856E+04 -2.93067E+04  1.39808E+04 -2.91214E+04 -3.87614E+03 -1.32884E+04 -1.07816E+04
 -2.29837E+03 -1.39598E+04  1.38255E+03 -1.74370E+04  1.00739E+04 -2.21153E+04  1.49599E+04 -1.52625E+04
  9.52332E+03  4.90015E+03 -1.29709E+04  1.03611E+04 -1.98773E+04 -2.13914E+03 -7.00607E+03 -3.53418E+04
  2.29184E+04 -4.24380E+04  4.96871E+04 -1.90267E+04  4.55304E+04  1.75017E+04  1.21210E+04  4.23251E+04
 -1.70106E+04  3.17486E+04 -2.81963E+04  4.13115E+03 -6.55628E+03 -3.06320E+04  2.48195E+04 -3.50327E+04
  4.11625E+04 -7.34168E+03  3.24186E+04  2.05312E+04  1.80812E+04  4.35634E+04 -8.82816E+03  4.95617E+04
 -2.11778E+04  3.04054E+04 -4.13951E+04  1.15891E+04 -4.14540E+04 -1.62777E+04 -2.13076E+04 -3.46398E+04
  4.14239E+01 -3.57941E+04  2.94328E+04 -1.39647E+04  2.42974E+04  9.23703E+03  4.07752E+03  1.98137E+04
 -1.29466E+04 -1.89528E+03 -1.30385E+04 -4.40733E+03  8.49195E+03 -1.35845E+04  1.76808E+04  4.03896E+03
  1.17398E+04  2.20948E+04 -1.13877E+04  2.52344E+04 -2.03087E+04  8.79216E+03 -2.84581E+04 -9.02081E+02
 -1.98379E+04 -1.58686E+04 -6.69568E+03 -2.01389E+04  4.30260E+03 -1.58079E+04  1.69227E+04 -1.30721E+04
  2.55669E+04 -1.25696E+04  2.84444E+04  1.61667E+03  2.78514E+04  1.97200E+04  1.51913E+03  3.68538E+04
 -2.09534E+04  2.20012E+04 -2.41781E+04  6.96321E+03 -2.40556E+04 -9.96571E+03  1.90547E+02 -1.58717E+04
  3.69296E+02 -2.56868E+03 -6.20726E+03  3.45999E+03 -1.13859E+04  3.47354E+03 -1.10829E+04 -6.00793E+03
 -1.16659E+04 -1.67765E+04  4.46131E+03 -2.28664E+04  1.63694E+04 -1.28141E+04  1.78786E+04 -4.23835E+03
  8.95071E+03  1.11452E+04  5.40571E+02  1.61437E+04 -1.32626E+04  1.32552E+04 -1.67636E+04 -3.38537E+03
 -1.17662E+04 -1.36532E+04 -1.82513E+03 -2.46088E+04  1.49827E+04 -1.58353E+04  1.91118E+04 -8.40103E+03
  2.09907E+04  1.17950E+03  9.83313E+03  8.45448E+03  8.34083E+03 -1.30489E+03  7.82172E+03 -4.38545E+03
  1.37157E+04  2.61853E+03  1.40829E+04  1.37778E+04  1.06644E+04  2.25710E+04  4.94225E+02  3.43583E+04
 -2.03856E+04  1.98501E+04 -2.73726E+04  1.03789E+04 -2.78339E+04  1.55665E+03 -2.51395E+04 -2.26376E+04
 -1.11494E+04 -2.55820E+04  1.21389E+04 -2.23115E+04  1.91039E+04 -6.38221E+03  1.73033E+04  2.62285E+03
  8.70328E+03  1.30134E+04 -5.42735E+03  9.69347E+03 -1.77312E+04 -2.88186E+03 -1.09752E+04 -1.38868E+04
  1.26260E+03 -1.39822E+04  7.83393E+03 -5.40819E+03  1.11505E+04  1.72309E+03  3.09222E+03  7.86527E+03
 -6.88568E+03  2.92558E+03 -4.93695E+03 -5.91618E+03 -5.93361E+01 -7.16450E+03  1.18473E+04 -1.14776E+04
  1.21599E+04 -4.43605E+03  1.09845E+04  1.15725E+03  1.50589E+04  8.48836E+03  1.09646E+04  1.53675E+04
  4.61551E+02  1.91238E+04 -1.31484E+04  1.14996E+04 -1.32885E+04  7.84097E+03 -1.13033E+04 -1.82471E+03
 -3.95989E+03 -6.38834E+03 -3.08714E+03  3.70035E+03 -1.15075E+02  2.38451E+03 -5.75582E+03  4.86371E+03
 -1.18045E+04  1.52366E+03 -1.44267E+04 -6.13771E+03 -6.08174E+03 -1.18506E+04  4.78966E+03 -1.07463E+04
  5.01294E+03 -3.93787E+03  2.67904E+03 -5.01730E+03 -1.18410E+03  1.34893E+03 -6.58887E+03  4.97366E+03
 -3.65848E+03 -8.44485E+03 -6.02089E+03 -6.36512E+03  8.24379E+03 -9.01657E+03  5.57578E+03 -2.80020E+03
  1.29985E+04  1.22354E+03  1.30797E+04  4.72856E+03  5.90311E+03  6.58163E+03 -1.46036E+03  7.07289E+03
 -6.10892E+03  5.15128E+03 -4.90538E+03 -4.53326E+03  1.14896E+03 -1.24652E+03  7.15163E+03  8.89515E+02
  5.11678E+03  4.76683E+03  6.46855E+01  8.17668E+03 -8.36114E+03  5.37538E+03 -5.87205E+03 -1.78837E+03
  4.44340E+02 -4.75827E+03  2.48671E+03 -7.24958E+03  4.03292E+03 -2.49915E+03  6.91434E+03 -4.90982E+03
 -2.46885E+03  4.94187E+03 -7.23317E+03  7.32445E+03 -5.61498E+03  4.04235E+03 -7.55806E+03 -1.40740E+03
  9.21661E+01 -7.60490E+03  2.89892E+02 -1.53759E+04  2.84129E+03 -3.87721E+03  4.81822E+03  7.12373E+03
  3.87871E+03  5.11424E+03  3.59759E+03  5.43807E+03 -7.76691E+03  4.87207E+03 -5.48084E+03 -6.38524E+02
 -8.91639E+03 -3.96760E+03 -2.17277E+03 -1.90308E+03 -2.86500E+02 -8.29303E+03  2.67026E+03 -4.09809E+03
  3.95541E+03 -2.07298E+02  5.68447E+02  4.82998E+03 -7.00533E+02 -3.80599E+03 -2.31487E+03 -4.77428E+03
  4.94383E+03 -3.51070E+03  1.05431E+04  1.51293E+03  3.47911E+03  1.93880E+03  7.62283E+03  8.22633E+03
 -4.03431E+03  5.65248E+03 -7.29761E+03  7.97980E+03 -1.22123E+04  1.20780E+03 -1.00051E+04 -2.70102E+01
 -5.67265E+03 -8.71990E+03  1.34993E+03 -4.56718E+03  4.67041E+03 -1.14694E+03  3.60976E+03 -8.26421E+02
 -3.62651E+02 -2.85797E+03  6.38267E+03 -6.14846E+03  3.55416E+03 -9.90211E+02  4.50258E+03 -1.01655E+03
  2.42854E+03  5.01039E+03 -1.13449E+03  2.96368E+03 -3.44248E+03  1.86549E+03 -2.28634E+03  1.56871E+03
 -2.62964E+03 -7.25027E+02 -1.19822E+03 -3.08756E+03 -6.56405E+03 -5.61955E+03  5.47961E+03 -1.05080E+04
  3.16014E+03 -1.21263E+02  9.86612E+03  1.65307E+02  2.78647E+03  8.63600E+03  4.17379E+03  4.73092E+03
 -6.88844E+03  5.64764E+03 -6.44451E+03  2.66889E+03 -4.94595E+03 -5.83481E+03 -5.49808E+02 -2.94312E+03
 -4.87293E+03 -5.66286E+02  4.16295E+03  2.87562E+03  1.19229E+03  2.03079E+03 -2.79387E+03  5.63607E+02
 -5.24160E+03 -1.78034E+03  1.67488E+03 -5.20916E+03  7.16739E+03 -4.54687E+03  3.12681E+03 -2.05811E+03
  5.89023E+03  3.37071E+03  1.88894E+03  3.69841E+03 -4.22146E+03  6.92663E+03 -1.24564E+03  6.30323E+03
 -7.36344E+03  4.79274E+03 -5.42056E+02 -3.29473E+03  2.41433E+03 -2.25329E+03  4.41937E+03 -3.08217E+03
  2.10925E+03 -4.04490E+03 -5.40144E+02  8.26424E+02  2.07471E+03 -1.53434E+03 -8.47337E+02  2.04289E+03
  1.94376E+03 -3.40322E+03  2.72499E+03  3.95915E+03  1.53020E+03  2.59725E+03  4.49924E+03  5.20730E+03
 -1.01363E+03  3.45609E+03 -1.33050E+03  6.48280E+03 -5.16416E+03  4.57735E+03 -3.18658E+03 -3.10559E+02
 -4.30115E+03 -4.26361E+03  4.40365E+02 -8.34728E+03  6.36557E+02 -5.57212E+03  9.15074E+03 -8.79286E+02
  8.49304E+03  6.03823E+03  1.90579E+03 -1.47082E+03 -3.56574E+03  3.39732E+03  2.70922E+01  2.75603E+02
 -4.37500E+03 -3.66418E+03  1.06345E+03 -9.50493E+02  2.87892E+03 -3.49402E+03  1.41712E+03  3.85780E+03
  2.32930E+03  3.31652E+03  5.73181E+03 -2.56863E+03 -4.59245E+03  6.81488E+02  2.35408E+03  1.13477E+03
  1.25252E+02 -1.60378E+03  1.24751E+03 -2.19332E+03  4.79330E+03  3.64773E+03 -2.65779E+02  5.24786E+03
 -8.80019E+03  4.16543E+03  2.27851E+03 -1.73867E+03 -5.40755E+03 -5.13299E+02  4.62207E+03 -3.68662E+03
 -1.01094E+03 -7.27220E+03 -1.38798E+03 -3.24841E+02  4.45300E+03  1.98037E+03  1.20462E+03  2.76895E+03
  1.33917E+03  1.47060E+02 -1.53792E+03  1.05729E+03 -4.77680E+03 -4.17487E+03 -3.99998E+02 -3.83972E+03
  2.80180E+03 -1.21122E+03 -1.22914E+03 -2.15312E+03  2.87367E+03 -1.08811E+03 -1.30175E+03  9.99830E+02
 -4.91739E+03  3.48588E+02  6.20404E+02 -4.63415E+02 -6.98683E+02 -2.50077E+03 -2.00165E+03 -5.31775E+03
 -3.60638E+03  3.87805E+02  8.60832E+02  2.01310E+03  6.45097E+03  2.50172E+03 -1.04669E+03  2.38676E+03
 -3.50067E+03  9.94997E+02  1.13933E+02 -4.21697E+03 -3.02921E+03 -5.59078E+03  3.56650E+02  9.33091E+02
  2.60003E+03  1.20664E+03  3.60336E+03  2.54743E+03  2.43857E+03  1.62375E+03  3.40153E+03  5.36460E+02
 -2.74257E+03  3.51394E+03 -3.31573E+03 -3.27814E+03  2.40609E+03 -1.41215E+03  6.14739E+02 -2.05972E+03
 -3.55669E+03  1.17156E+02  7.91286E+02 -2.99045E+03 -4.65904E+02  5.35090E+03  4.53455E+02 -3.10315E+03
 -2.36966E+03 -3.78130E+03 -5.04900E+02 -1.89204E+03  3.55205E+03 -4.49488E+03  5.40941E+03 -2.85601E+02
  6.13887E+02 -5.02281E+03  3.21515E+03  1.11829E+03 -4.41779E+03  4.75540E+03 -3.73571E+02  2.32228E+03
  3.16204E+03  2.00726E+03  6.85809E+02  1.99209E+03  9.25649E+02  2.43772E+01  1.33614E+03 -1.66912E+03
 -1.66305E+03  4.77254E+03 -9.17592E+01  5.42963E+02 -1.14754E+02 -1.27476E+03 -8.10612E+01  5.29375E+02
  3.04864E+03  3.56817E+03 -4.93264E+02 -2.01941E+03 -1.07852E+03 -1.88687E+03  1.28136E+03 -7.89187E+01
  1.97178E+03  5.09974E+03 -1.53562E+03  3.08813E+03 -4.37760E+03 -8.77996E+01 -4.91813E+03  9.22047E+01
 -1.63836E+03 -1.23298E+03  6.51252E+03 -3.72165E+03 -2.48704E+03  5.34857E+03  3.56723E+03 -4.85928E+03
 -6.78185E+02  1.20627E+03 -7.50112E+02 -4.14384E+03  9.96090E+02 -3.15836E+03 -5.34171E+02  4.37504E+03
  1.74052E+03 -5.02271E+03  3.27586E+03 -5.58071E+02  7.19761E+02  2.76743E+03 -2.46709E+03 -2.94368E+02
 -3.55451E+02  3.21150E+03 -3.76482E+03 -2.89731E+02  3.04748E+03 -3.40104E+03  1.84488E+03 -1.89345E+03
  5.85952E+02 -6.55105E+02 -4.68292E+02  2.75794E+03  2.69506E+03 -5.74257E+02  4.09208E+03  5.34257E+03
 -1.47215E+03  9.30894E+02 -2.07532E+02  2.36730E+03 -1.13047E+03 -9.79633E+02  1.91345E+03 -1.48751E+02
  1.17075E+03 -5.13131E+02  3.60028E+03  4.16216E+03 -4.97320E+03 -3.73878E+03 -1.11609E+03  1.62158E+02
  2.73103E+02  3.27197E+03  2.29188E+02 -4.37901E+03 -1.55009E+03 -1.82091E+03  4.15840E+03  4.78946E+03
  1.70818E+03  4.66452E+01 -1.39012E+03 -3.41933E+02  1.06614E+03  1.07056E+03  3.80046E+03 -1.95693E+03
