 $NMID ID='MM_0lb_SNR50_9hz_g45_3.RAW', FMTDAT='(8E13.5)'
 TRAMP=1., VOLUME=1. $END
  3.04768E+05  2.73727E+03  3.37961E+05  2.56351E+05  8.38978E+04  3.36474E+05 -1.36058E+05  2.48312E+05
 -1.85527E+05  8.24511E+04 -1.10471E+05 -4.04703E+04 -6.76211E+02 -4.89221E+04  5.80988E+04 -5.00720E+02
  2.77992E+04  5.14107E+04 -1.51964E+04  7.60003E+04 -6.12325E+04  6.28315E+04 -8.49744E+04  3.32509E+04
 -7.77081E+04 -1.73173E+04 -5.49956E+04 -4.89790E+04 -1.51075E+04 -7.11929E+04  3.03603E+04 -4.70338E+04
  4.06471E+04  8.32074E+02  1.47862E+04  5.38621E+04 -3.48339E+04  4.38716E+04 -6.53597E+04  1.64868E+03
 -5.30636E+04 -5.25266E+04 -1.01291E+04 -7.99186E+04  3.21296E+04 -5.37584E+04  5.55129E+04 -1.50508E+04
  4.34472E+04  1.53132E+04  2.75318E+04  2.70376E+04  1.78654E+04  3.07835E+04 -4.43013E+03  2.73724E+04
 -1.49385E+04  1.09066E+04 -1.17113E+04 -5.88128E+03  6.39008E+03 -6.82374E+03  2.48258E+04  1.65271E+04
  3.17880E+02  3.48274E+04 -3.70981E+04  3.93347E+04 -6.54680E+04 -2.61121E+03 -6.14932E+04 -3.98364E+04
 -1.46072E+04 -6.59318E+04  4.46558E+04 -3.89768E+04  5.74095E+04 -4.08622E+03  3.67265E+04  3.82496E+04
 -2.82936E+03  3.63178E+04 -2.98698E+04  1.67439E+04 -3.44122E+04 -5.68290E+03 -1.44329E+04 -9.39463E+03
 -7.58834E+03 -9.27326E+03 -4.96661E+03 -1.58966E+04  7.23842E+03 -2.34719E+04  1.13203E+04 -1.52896E+04
  1.28008E+04  4.51037E+03 -9.63559E+03  1.78387E+04 -2.07948E+04 -1.11196E+04 -3.04134E+03 -3.76093E+04
  2.60154E+04 -5.02821E+04  4.40670E+04 -2.32117E+04  5.04522E+04  1.87681E+04  1.43135E+04  4.94869E+04
 -1.77356E+04  3.49352E+04 -2.38465E+04  2.70502E+03 -1.54927E+04 -3.65302E+04  2.86119E+04 -3.38921E+04
  3.89783E+04 -9.90181E+03  3.89340E+04  2.82154E+04  2.12694E+04  4.69162E+04 -9.95311E+03  5.30863E+04
 -3.44335E+04  3.38025E+04 -4.45125E+04  1.33193E+04 -4.46007E+04 -1.44205E+04 -2.31863E+04 -4.20564E+04
  6.56672E+03 -4.34821E+04  3.04735E+04 -1.28268E+04  3.07082E+04  1.25810E+04  2.43266E+03  2.02471E+04
 -1.03788E+04  8.15208E+03 -5.41011E+03 -7.80319E+03  1.05234E+04 -1.39222E+04  1.61374E+04  1.07059E+04
  2.04142E+04  2.33508E+04 -5.80602E+03  2.77319E+04 -2.49202E+04  1.50388E+04 -3.11204E+04 -1.46375E+03
 -2.73345E+04 -1.80909E+04 -1.66861E+04 -2.44020E+04  6.01205E+03 -1.86932E+04  1.43778E+04 -2.19518E+04
  3.02867E+04 -1.22705E+04  4.07510E+04  1.30837E+03  2.95308E+04  2.49935E+04  1.56354E+03  3.73062E+04
 -2.15770E+04  3.36845E+04 -3.75242E+04  7.70160E+03 -2.14142E+04 -5.42673E+03 -9.06289E+03 -9.04531E+03
 -1.35274E+03  4.71154E+03 -1.05249E+04  7.49546E+03 -1.80175E+04  5.16224E+03 -1.66475E+04 -8.00729E+03
 -9.83132E+03 -1.32846E+04  1.02823E+04 -2.98507E+04  2.02380E+04 -1.83007E+04  2.34316E+04  4.74016E+03
  1.56715E+04  1.16487E+04 -4.89464E+02  1.97980E+04 -1.44584E+04  1.42142E+04 -2.43920E+04 -5.93996E+03
 -1.85947E+04 -2.13982E+04 -4.40903E+03 -2.90721E+04  1.17779E+04 -2.57729E+04  1.93480E+04 -1.10939E+04
  2.08428E+04 -3.67134E+03  1.87852E+04  4.41593E+03  7.15492E+03  7.23895E+02  1.29091E+04  4.03278E+03
  1.99578E+04  1.29018E+03  2.93031E+04  1.44414E+04  1.84956E+04  3.63410E+04 -3.67288E+03  4.74045E+04
 -2.87728E+04  2.85685E+04 -3.59346E+04  2.15279E+04 -4.17849E+04 -6.26193E+03 -2.88792E+04 -2.79873E+04
 -1.66275E+04 -3.92116E+04  1.25413E+04 -3.44888E+04  3.25539E+04 -1.19247E+04  2.76373E+04  1.02821E+04
  8.05660E+03  1.63584E+04 -9.86314E+03  1.83450E+04 -1.58460E+04  6.52327E+03 -1.65686E+04 -5.84042E+03
 -1.47558E+03 -1.69701E+04  1.19665E+04 -1.46907E+04  1.76183E+04 -4.66596E+03  1.00099E+04  6.62828E+03
 -1.12055E+04 -9.40665E+02 -8.93828E+03 -5.37337E+03 -1.04359E+03 -1.30258E+04  1.35015E+04 -2.36822E+04
  1.82114E+04 -9.46580E+03  2.11404E+04  2.02180E+03  1.63206E+04  1.87699E+04  1.16640E+04  2.50078E+04
 -2.53688E+03  3.09932E+04 -1.49846E+04  2.08847E+04 -1.79975E+04  2.11584E+03 -1.32556E+04 -7.27631E+03
 -3.78900E+03 -8.97911E+03 -3.04299E+03  5.68162E+03  5.44518E+02  7.38139E+03 -7.43299E+03  3.19738E+03
 -1.63197E+04 -5.49569E+03 -1.46192E+04 -1.52574E+04 -7.52009E+03 -1.88883E+04  9.17714E+03 -2.55698E+04
  9.96631E+03 -4.22916E+03  9.01833E+03  3.27712E+03 -1.64605E+03  8.48950E+03 -1.74236E+04 -3.63477E+03
 -6.37617E+03 -6.50691E+03 -1.83221E+02 -1.05708E+04  1.81414E+04 -1.68629E+04  1.23031E+04 -6.74063E+03
  2.50307E+04  4.03627E+00  1.81397E+04  1.73507E+04  9.27853E+03  2.30854E+04 -9.93070E+03  1.49005E+04
 -1.19931E+04 -2.32033E+03 -6.28737E+03 -1.75980E+03  5.80821E+02 -7.92674E+03 -1.71430E+03  9.65193E+02
  1.17197E+04  8.60112E+03 -3.25848E+03  1.61700E+04 -9.30204E+03  6.40854E+03 -2.12587E+04  2.84317E+03
 -9.80794E+03 -1.04784E+04  6.77211E+02 -1.29858E+04  8.61887E+03 -1.09576E+04  7.27968E+03  4.02363E+03
  6.24190E+03  1.01301E+04 -8.47313E+03  1.31447E+04 -1.53967E+04  7.66252E+03 -1.89564E+04  7.03404E+01
 -2.13370E+03 -1.82255E+04  4.02834E+03 -1.30990E+04  1.55155E+04  1.35825E+03  1.54850E+04  3.76976E+03
  5.69788E+03  1.30377E+04 -3.95014E+03  1.73754E+04 -1.49118E+04  6.22613E+03 -1.37019E+04 -3.95025E+02
 -9.21860E+03 -9.01969E+03  3.35477E+03 -1.08403E+04  1.09105E+04 -1.15104E+04  1.21044E+04 -4.30593E+03
  6.29755E+03  1.70986E+03 -6.57402E+03  4.96755E+02  3.59754E+03 -5.09570E+03  1.70000E+03 -3.74497E+03
  8.08593E+03 -6.92301E+03  1.75347E+04 -4.42708E+03  2.14349E+04  1.14112E+04  1.30981E+04  2.08297E+04
 -3.35008E+03  2.44999E+04 -1.72590E+04  2.00594E+04 -2.80728E+04  9.50798E+03 -2.57292E+04 -5.91705E+03
 -8.63116E+03 -2.00442E+04  3.27457E+03 -1.44902E+04  5.08374E+03 -5.11332E+03  5.63505E+03 -4.07233E+03
 -4.60778E+02 -2.77642E+03  2.80988E+03 -2.37181E+03  6.16857E+03 -9.63548E+02  2.83644E+03 -8.59412E+02
  6.31341E+03  1.02660E+04 -6.44809E+02  1.46581E+04 -2.10893E+03  1.14453E+04 -8.55820E+03  8.78523E+03
 -1.57110E+04 -2.20790E+03 -4.18133E+03 -3.87993E+03 -1.96899E+03 -2.50096E+04  1.36559E+04 -1.32135E+04
  1.17246E+04 -1.57212E+04  1.68527E+04  5.37409E+03  7.92785E+03  1.74929E+04 -1.83646E+03  1.84925E+04
 -4.00670E+03  1.90546E+04 -1.08283E+04  5.08539E+03 -2.98725E+03 -3.38091E+03 -2.66866E+02  3.60027E+03
 -1.31738E+03 -9.89874E+02  3.08249E+03 -1.75792E+03 -1.08946E+04  1.74006E+02 -1.22435E+04  2.83308E+01
 -7.54717E+03 -1.12108E+04 -4.07154E+03 -1.04469E+04  6.55469E+03 -1.66328E+04  1.78101E+04 -6.71979E+03
  1.17973E+04  4.85692E+03  8.76663E+03  1.50064E+04 -1.47562E+01  2.04531E+04 -6.85413E+03  3.88462E+03
 -1.38241E+04  1.30143E+03 -9.71752E+03 -3.50439E+03  1.20187E+03 -1.17569E+04  5.09458E+03 -1.46521E+04
  1.23943E+04 -5.38676E+03  9.20526E+03  9.52011E+03  6.79886E+03  2.92201E+03  3.90446E+03 -2.10017E+02
 -3.59832E+03  4.25808E+02  2.91240E+03  2.31537E+03  4.90875E+03  1.75727E+03  6.30541E+03  1.34629E+04
  1.59256E+02  8.54218E+03 -9.18219E+03  3.36774E+03 -1.10751E+04  4.53002E+03 -1.11323E+04 -5.82734E+03
 -8.57110E+03 -1.44127E+04  7.55743E+03 -1.66861E+04  9.06175E+03 -7.30081E+03  1.30730E+04 -6.02987E+03
  9.45799E+03  5.00851E+03  3.38151E+03  1.02423E+04 -1.11906E+04  1.20654E+04 -1.04410E+04 -1.85640E+03
 -4.29673E+03 -8.25506E+03  7.67749E+03 -9.62625E+03  1.07723E+03  4.15541E+02  6.34458E+03  7.61275E+03
  1.82965E+03 -1.21989E+03 -2.30335E+03  7.54600E+03 -8.69509E+03  7.04380E+02  3.04573E+02  1.76981E+02
 -1.48792E+02  6.96672E+02  1.41574E+03  4.32538E+03  3.75801E+03  8.00424E+03 -2.56068E+03  1.08090E+04
 -7.30804E+03  8.40780E+03 -1.33262E+04 -1.50090E+03 -7.05890E+03 -3.47974E+03 -2.55028E+03 -4.65390E+03
  2.92224E+03 -3.69346E+03  1.75324E+03 -3.48850E+03  5.02445E+03  3.22688E+03 -5.28113E+02  4.26488E+03
 -1.37806E+04  2.46474E+03 -1.00040E+04  1.41521E+02 -6.64482E+03 -1.05369E+04 -4.64478E+02 -1.71801E+04
  2.36637E+03 -6.08897E+03  1.00363E+04  1.00141E+03  6.35903E+03 -2.14335E+03 -4.91418E+03 -7.73658E+02
 -1.94617E+03  4.06135E+03 -4.00321E+03 -1.45604E+03 -1.81938E+03 -3.31758E+03  5.08501E+03  4.41062E+02
  1.03809E+04  2.22833E+03  1.37281E+04  2.90705E+03 -1.28329E+03  5.31084E+03 -2.69680E+03  1.23681E+04
 -8.40314E+03  4.33012E+03 -3.53315E+03 -2.06518E+03 -5.90595E+03 -7.01086E+03  4.74933E+02 -6.32527E+03
  1.74149E+03 -4.90938E+03  4.28014E+03  4.41172E+02 -8.27428E+02  6.96104E+03 -3.82377E+02 -1.17901E+03
  1.05854E+03  5.14775E+03 -6.21005E+03  2.22616E+03  6.04517E+01  7.27278E+03 -1.18023E+03  1.41013E+03
  1.97603E+03  2.89366E+03 -5.00664E+03  8.76411E+03 -5.44958E+03 -2.65499E+03 -9.66153E+03 -4.63605E+03
 -7.09322E+03 -1.60913E+04  5.39388E+03 -1.47670E+04  6.51779E+03 -5.77007E+03  1.58683E+04 -6.04179E+02
  1.65315E+04  1.60720E+03  1.17034E+04  7.06574E+03 -3.70941E+03  1.15452E+04  2.34877E+03  1.31664E+04
 -1.35995E+04  2.74480E+03 -6.72751E+03  1.76904E+02  6.15779E+03 -3.14593E+03  2.19022E+03 -8.49980E+01
 -3.14734E+03 -1.95674E+03  3.45909E+03 -2.75856E+03 -1.65681E+03 -6.02608E+03 -2.49073E+03 -6.71974E+03
  4.02891E+03  1.03989E+03  3.69051E+03 -3.60646E+03  1.39222E+03  2.54575E+03  8.63292E+02  5.98518E+03
 -2.77238E+03  1.18665E+04 -1.64516E+04  7.89486E+03 -1.27289E+04 -1.00553E+04 -5.09877E+03 -8.67151E+03
 -2.23585E+03 -9.63901E+03  6.48112E+03 -9.96947E+03  7.81186E+03 -1.04442E+04  7.00307E+03 -8.25770E+02
  1.97683E+03  5.63881E+02  3.12512E+03  1.05296E+03  2.71158E+02  1.98446E+03 -1.11583E+03  4.80636E+03
 -3.15630E+01  2.92703E+03  6.15979E+03 -4.82722E+03  5.66264E+03  3.82430E+03 -7.06683E+02  3.08035E+03
 -6.61171E+03  3.13854E+03 -5.87703E+03 -5.51993E+02 -7.04032E+03  6.80022E+01 -2.46161E+03 -8.86236E+03
 -7.36477E+02 -5.39986E+03  1.13953E+04 -1.12224E+03  5.19466E+03 -1.20084E+03  4.68111E+03  9.92869E+03
 -3.96896E+01  1.17947E+04 -3.26662E+03  4.24842E+03 -6.06621E+02 -1.45490E+03  1.42283E+03 -5.02651E+03
 -3.27741E+03 -5.69103E+02 -8.01326E+03  4.66697E+03 -8.49511E+03  9.46495E+03 -7.10632E+03 -2.02528E+03
  2.55715E+03 -3.40130E+03 -2.99946E+03 -8.43325E+03  2.00348E+02 -6.75788E+03  5.97274E+03 -8.19904E+03
  8.04095E+03 -7.95854E+02  9.86859E+03  7.70301E+03 -2.63921E+03  2.60929E+03 -3.83474E+03  7.25052E+03
