 $NMID ID='MM_0lb_SNR50_20hz_g50_84.RAW', FMTDAT='(8E13.5)'
 TRAMP=1., VOLUME=1. $END
  3.10443E+05  1.86401E+03  3.32900E+05  2.53026E+05  7.93994E+04  3.35770E+05 -1.30987E+05  2.48228E+05
 -1.91779E+05  8.51820E+04 -1.10231E+05 -3.47351E+04  1.72598E+03 -4.56896E+04  5.53023E+04 -4.47000E+03
  3.09249E+04  5.49709E+04 -1.90515E+04  7.44394E+04 -5.97903E+04  6.37632E+04 -8.15471E+04  2.76918E+04
 -7.60747E+04 -1.14499E+04 -5.72653E+04 -4.82088E+04 -1.51347E+04 -6.82995E+04  2.77366E+04 -4.18147E+04
  3.90000E+04  4.11232E+03  1.72629E+04  4.94333E+04 -3.24885E+04  4.81720E+04 -6.52853E+04  1.43136E+03
 -5.12575E+04 -5.56643E+04 -5.87581E+03 -7.45854E+04  3.58103E+04 -5.25429E+04  4.56724E+04 -1.37640E+04
  4.38724E+04  9.72076E+03  3.30919E+04  2.63677E+04  2.08184E+04  3.22175E+04 -4.67713E+03  2.71374E+04
 -2.44953E+04  1.34908E+04 -1.83218E+04 -7.32750E+02  3.31302E+03 -6.93110E+03  2.16469E+04  9.12532E+03
  4.58467E+03  3.35488E+04 -2.88276E+04  3.50249E+04 -5.86358E+04  1.19858E+02 -6.05394E+04 -4.43476E+04
 -1.23058E+04 -5.75386E+04  3.56021E+04 -4.11766E+04  5.82085E+04 -3.40324E+03  3.12104E+04  3.18960E+04
 -4.77781E+03  3.04661E+04 -3.09482E+04  1.44433E+04 -3.01991E+04 -5.80733E+03 -9.86199E+03 -7.68302E+03
 -9.86587E+03 -8.63262E+03 -2.89839E+03 -1.65269E+04  4.21326E+03 -2.47036E+04  1.15471E+04 -8.89386E+03
  1.41886E+04  1.34735E+03 -7.33439E+03  1.40388E+04 -2.55821E+04  1.48674E+03 -8.64196E+03 -2.88967E+04
  1.81284E+04 -4.22181E+04  4.49748E+04 -1.81853E+04  3.72650E+04  1.69432E+04  1.47636E+04  4.30562E+04
 -1.77829E+04  2.85261E+04 -2.29661E+04  6.81383E+02 -8.90203E+03 -2.37492E+04  2.14731E+04 -2.71371E+04
  3.66141E+04 -8.59664E+03  2.93570E+04  2.20967E+04  1.61559E+04  4.27807E+04 -8.65696E+03  3.81495E+04
 -2.86320E+04  3.25436E+04 -3.63863E+04  8.36899E+03 -3.82773E+04 -1.40835E+04 -2.07276E+04 -3.56651E+04
  8.37447E+03 -3.23745E+04  2.87452E+04 -1.28198E+04  2.69459E+04  1.44420E+04  7.80479E+02  1.87384E+04
 -1.30685E+04  4.22576E+03 -8.25853E+03 -6.62406E+03  7.52015E+03 -1.05853E+04  1.44598E+04  9.50594E+03
  1.29469E+04  2.20840E+04 -8.22605E+03  2.24378E+04 -2.05659E+04  1.23068E+04 -2.55017E+04 -5.59125E+03
 -1.31541E+04 -1.81080E+04 -6.37435E+03 -1.42153E+04  3.32561E+03 -1.42261E+04  1.13823E+04 -1.38163E+04
  1.67809E+04 -1.04996E+04  3.05889E+04 -7.01203E+02  2.31803E+04  1.60251E+04  4.60265E+03  3.13162E+04
 -1.36606E+04  2.69510E+04 -2.48146E+04  8.11425E+03 -1.99947E+04 -1.01855E+04 -2.17710E+03 -1.28818E+04
  4.12539E+03 -5.46860E+03  5.09784E+01  6.42710E+03 -8.61221E+03  7.66471E+03 -1.46835E+04 -5.57243E+03
 -7.63702E+03 -1.49383E+04  4.96603E+03 -2.03107E+04  1.45144E+04 -1.37414E+04  1.08363E+04  1.15279E+03
  6.71294E+03  1.01968E+04 -1.85547E+03  1.15063E+04 -7.92362E+03  8.08872E+03 -1.40398E+04 -1.89715E+03
 -1.24325E+04 -1.39882E+04 -3.72523E+03 -1.76343E+04  6.49358E+03 -1.34148E+04  1.64998E+04 -7.29646E+03
  1.45320E+04  4.01921E+03  1.35618E+04  5.51488E+03  6.01220E+03  4.58433E+03  7.10332E+03  2.58363E+02
  1.70622E+04 -9.94639E+02  1.10235E+04  1.25673E+04  1.04127E+04  2.71829E+04 -1.20280E+03  2.69490E+04
 -1.50897E+04  1.69476E+04 -2.29357E+04  9.10939E+03 -2.13953E+04 -3.85383E+02 -2.09531E+04 -1.28650E+04
 -9.68085E+03 -2.00844E+04  5.64144E+03 -1.65490E+04  1.30651E+04 -1.00932E+04  1.50580E+04  6.95774E+03
  4.44077E+03  1.49250E+04 -4.71458E+03  7.98308E+03 -1.17060E+04  1.24254E+03 -7.99951E+03 -9.62958E+03
 -7.12694E+02 -1.36215E+04  2.93921E+03 -8.04197E+03  7.96629E+03 -3.43725E+03  6.33252E+01  3.41755E+03
 -5.45846E+03  9.08971E+02 -2.27833E+03 -3.68234E+03  1.57007E+03 -1.26837E+04  8.04144E+03 -6.16685E+03
  1.21081E+04 -2.58787E+03  1.01241E+04 -1.70421E+03  7.23061E+03  1.14286E+04  4.50100E+03  1.39093E+04
  4.31700E+03  1.61038E+04 -7.17093E+03  8.87970E+03 -7.44998E+03  3.26004E+03 -8.48757E+03 -7.25483E+02
 -4.04860E+03 -5.08391E+02 -1.42215E+03  3.22859E+03 -2.43652E+03  2.90649E+03 -3.71432E+03  3.82362E+03
 -4.55761E+03  2.36275E+03 -1.02087E+04 -6.22386E+03 -1.59067E+03 -1.21091E+04  3.62537E+03 -1.05121E+04
  6.72432E+03 -3.67602E+03  7.09493E+03  4.29609E+03 -1.51419E+03  3.06582E+03 -1.09409E+03  1.04952E+03
 -5.50641E+02 -5.30233E+03 -9.78344E+02 -1.14713E+04  3.16284E+03 -9.84473E+03  8.69170E+03  1.26195E+03
  1.60785E+04  1.00470E+03  6.75424E+03  5.80382E+03  1.31287E+03  3.96839E+03 -6.14929E+03  6.70236E+03
 -7.18687E+03  3.31750E+03 -3.85802E+03 -2.58977E+03  3.57960E+03 -3.07666E+03  7.83595E+03  1.78853E+03
  4.42039E+03  3.85590E+03  1.75924E+03  2.65072E+03 -6.82050E+03  6.73981E+03 -3.22185E+03  2.26358E+03
 -2.97257E+03 -3.78608E+03 -1.36644E+03 -2.59768E+03  2.66955E+03 -5.04620E+02  4.28593E+03  9.37466E+02
 -2.63006E+03  5.76518E+03 -3.57339E+03  2.21056E+03 -5.68592E+03  1.60598E+03 -3.02316E+03 -2.60007E+03
 -2.66085E+03 -5.61798E+03  3.78955E+03 -6.41048E+03  4.56338E+03 -5.36360E+03  7.16650E+03 -8.57342E+02
  4.62181E+03  6.34773E+03 -2.55597E+03  6.01350E+03 -2.56580E+03  7.63324E+02 -9.08696E+03  1.06705E+03
 -5.12155E+03 -5.91404E+03 -1.07580E+03 -2.43923E+03  1.95916E+03 -3.83178E+03  3.44123E+03 -6.32626E+03
  3.67517E+03 -1.61244E+03  4.69867E+03  3.11200E+03  8.98758E+02 -8.59630E+02 -3.68412E+03 -2.49327E+03
  5.62834E+03  1.91155E+03  7.04050E+03  1.41059E+03  2.93722E+03  1.38040E+03  3.61743E+03  6.19921E+03
 -6.23410E+03  4.77701E+03 -1.03036E+04  7.10484E+03 -7.95049E+03  3.28578E+03 -4.04538E+03 -3.49898E+03
 -6.37805E+03 -6.67004E+03 -1.19099E+03 -5.73563E+03  3.18035E+03 -1.19582E+03  2.14031E+03 -1.69579E+03
  5.00083E+03 -1.56426E+03 -6.39773E+02  3.23748E+03  6.37373E+03 -1.79221E+03  1.65470E+03  2.64325E+03
  3.46089E+03  2.31736E+03  1.38366E+03  3.12125E+03 -4.54417E+01  8.10491E+02 -5.22149E+03  1.88205E+03
 -1.50106E+03 -3.09146E+03 -6.11651E+03 -5.44271E+02  1.98522E+03 -5.87687E+03  6.93708E+02 -5.17011E+03
  5.24400E+03 -8.17281E+02  6.43482E+03  1.98740E+03  6.11391E+03  2.72665E+03  7.35569E+02  3.59928E+03
 -3.47614E+03  5.90593E+03 -3.49320E+03  1.01788E+03 -5.19777E+03  1.42686E+03 -3.52411E+00  2.03660E+03
 -1.36187E+03  3.56704E+03  2.84232E+03 -4.60385E+02  1.84006E+03  2.24904E+03 -4.75749E+03 -5.27839E+02
  1.10517E+03 -3.01850E+03  1.38030E+03 -2.01903E+03  1.20452E+03 -3.41224E+03  2.99016E+03 -8.64635E+02
  5.05759E+03  2.64837E+03 -3.77940E+01  4.14552E+03 -4.80775E+02  4.98150E+03 -4.74711E+03  2.73517E+03
 -8.95361E+01  1.06004E+03 -5.64982E+03 -1.62566E+03 -6.31601E+02 -3.03925E+03 -5.55636E+02 -1.10082E+03
  5.60170E+02 -6.38755E+02  9.27639E+02  4.13511E+03 -2.06086E+02  3.14875E+03  6.28287E+02 -1.77199E+03
  1.14507E+03  2.62618E+03 -4.80045E+02 -1.21729E+03  3.12873E+02  5.20869E+02  3.63507E+03 -2.77463E+03
 -7.61654E+02  8.65351E+02 -3.03760E+03  4.64803E+03  1.58806E+03  7.27968E+03 -3.34725E+03  1.13020E+03
 -1.95144E+03 -1.05371E+02  1.83027E+03  5.84490E+02 -4.38056E+02  1.06403E+03 -2.04032E+03 -9.52888E+02
  2.16466E+03  3.96063E+02  3.09081E+03  4.87887E+03 -1.15138E+03  5.01492E+02  2.81924E+02  1.93466E+02
  4.42362E+03 -1.50941E+03  1.70846E+03  1.57749E+01  2.26942E+03 -1.62430E+03  3.46658E+03 -3.45087E+03
 -3.72193E+02 -1.01232E+03  2.05354E+03 -4.15218E+03 -3.98821E+03  1.46988E+03  3.31033E+03  1.28434E+03
 -5.95676E+03  2.80653E+03 -1.79094E+03  2.48635E+02 -1.52166E+03 -3.40520E+02  9.10226E+01  6.56023E+03
  2.48015E+03  9.54999E+02 -4.11186E+03  1.80083E+02  2.86570E+02  1.56799E+03 -4.40625E+03  7.45327E+00
 -2.35098E+03  2.99299E+03 -8.28126E+02  2.10183E+03  2.01214E+03 -7.47390E+02  1.51398E+03 -4.68565E+02
 -3.16858E+03 -7.22128E+02 -1.45078E+03 -1.49917E+03 -2.72779E+03 -3.88593E+03 -2.30907E+01 -2.91634E+03
 -1.54162E+03  1.34207E+03  4.90272E+02  3.00783E+03 -1.67896E+03  1.79029E+03 -1.86859E+02  3.60088E+02
  2.94389E+02 -7.71505E+02  1.02264E+03 -4.23320E+02  6.43089E+03  1.54663E+03  4.78856E+03  6.42099E+02
  1.49114E+03 -1.86767E+03 -8.14092E+02  1.37124E+03  2.34775E+03 -5.38451E+02 -2.68454E+03  3.31506E+03
  2.01711E+03  4.58754E+03 -3.42068E+03  1.70889E+02  1.36529E+03 -4.42428E+03 -9.99728E+01  2.63485E+03
  9.23532E+02 -2.04318E+03 -3.54628E+03  5.27163E+03 -1.79299E+03  1.86746E+03  6.10996E+03  1.62161E+03
  3.06438E+03 -3.14230E+03 -5.80160E+02  2.81899E+03 -2.39319E+03  3.07569E+03 -6.38859E+03  1.16532E+03
 -1.46287E+03  1.07806E+03 -2.62864E+03 -2.20493E+03 -4.28895E+03 -7.42804E+02 -5.86972E+03  2.26805E+03
 -4.45585E+03 -6.23156E+02 -1.32986E+03 -1.04809E+04 -9.22829E+02 -2.81299E+03  1.71049E+03  3.17940E+02
  1.96684E+03  1.91322E+03 -1.38934E+03 -2.60571E+03 -2.93444E+03 -1.07040E+03  3.03976E+03  3.31811E+03
  3.36222E+02  1.11750E+03  3.73230E+02  2.40425E+03 -6.41197E+01  2.78587E+03  7.99383E+02 -1.59475E+03
 -3.17375E+03 -4.74293E+02 -2.76953E+03  1.01654E+03  2.35649E+03 -1.98263E+02 -1.52550E+02 -7.04048E+02
  2.04545E+03 -3.45852E+03  3.13372E+02  2.77788E+02 -3.29569E+03  2.41803E+03 -8.77857E+02  2.54626E+03
  2.11711E+03  3.55844E+03 -4.99616E+03 -5.37104E+03 -4.80088E+03 -9.93148E+02 -1.83039E+03 -1.59570E+03
 -1.08646E+03  1.85591E+03  9.40763E+02 -4.52559E+03  1.48545E+03  8.58348E+02  1.12578E+03 -4.17095E+03
 -2.74671E+03  1.55373E+03  8.64694E+02 -6.15381E+02 -1.75433E+03 -2.38223E+03  9.04092E+02  4.46597E+02
  1.95826E+02  7.88262E+03  3.68504E+02 -1.53127E+03 -2.82296E+03 -3.34462E+03 -2.73272E+03 -3.98547E+03
 -8.70618E+02 -2.46827E+03 -1.53798E+03 -4.62429E+03 -2.85167E+03  4.16694E+03  2.14727E+02  1.09621E+03
  5.62694E+02 -2.58297E+03 -5.65785E+02  1.13983E+03  3.36244E+03 -6.46691E+02 -4.09644E+03  8.51604E+02
 -3.58444E+02 -3.47630E+01 -1.18687E+03  2.49113E+03 -2.71515E+02 -1.58999E+02 -2.00144E+03 -1.83117E+03
 -1.79532E+03  1.39307E+03  4.07769E+03 -2.82089E+03 -1.96671E+03 -3.05631E+03  2.66083E+03  1.87243E+03
 -1.28776E+03 -9.25669E+02 -2.09605E+02 -2.58741E+03  6.21164E+02  1.91668E+02  1.05512E+02 -1.35832E+03
  1.30673E+03  7.06489E+02  1.12751E+02 -2.26287E+03 -3.58163E+03  7.92978E+02  6.52530E+03 -1.96673E+03
