 $NMID ID='MM_0lb_SNR50_7hz_g60_16.RAW', FMTDAT='(8E13.5)'
 TRAMP=1., VOLUME=1. $END
  3.04024E+05  2.63434E+03  3.47110E+05  2.45675E+05  9.11150E+04  3.43474E+05 -1.30890E+05  2.56469E+05
 -1.89409E+05  8.53659E+04 -1.10317E+05 -3.55013E+04 -4.75840E+03 -4.29199E+04  5.53207E+04  3.49492E+03
  3.77237E+04  4.45304E+04 -1.02749E+04  7.28743E+04 -5.94217E+04  6.74259E+04 -9.27552E+04  2.97381E+04
 -8.25120E+04 -1.43996E+04 -6.35740E+04 -5.54873E+04 -1.44812E+04 -7.75305E+04  2.51805E+04 -5.13281E+04
  4.34758E+04  7.05777E+03  1.07674E+04  4.44297E+04 -4.21738E+04  4.36277E+04 -6.57789E+04  3.90121E+03
 -5.12539E+04 -6.65892E+04 -9.06758E+03 -7.56828E+04  3.84704E+04 -5.55422E+04  5.01191E+04 -1.81780E+04
  5.01246E+04  1.01804E+04  3.24134E+04  2.75462E+04  1.42346E+04  2.73739E+04 -6.16618E+03  2.72820E+04
 -1.69952E+04  9.19664E+03 -2.09956E+04 -9.03603E+03  1.08748E+04 -5.16910E+03  2.55169E+04  1.40670E+04
  5.43672E+03  4.76033E+04 -3.45519E+04  3.79624E+04 -5.99131E+04  5.68003E+02 -6.35112E+04 -4.01342E+04
 -1.50435E+04 -6.78040E+04  4.49070E+04 -4.40669E+04  6.48845E+04 -4.54526E+02  4.44204E+04  3.62499E+04
 -1.44772E+03  3.84591E+04 -3.28501E+04  2.34225E+04 -3.11528E+04  7.90085E+02 -1.90661E+04 -6.67131E+03
 -1.17236E+04 -1.90627E+04  5.58850E+03 -2.90228E+04  1.12893E+04 -2.44088E+04  1.46017E+04 -1.03680E+04
  1.25777E+04  9.16821E+03 -1.55349E+04  1.61130E+04 -2.94438E+04 -1.11937E+04 -1.21364E+04 -4.12328E+04
  2.19865E+04 -5.19535E+04  5.32246E+04 -1.91022E+04  4.83169E+04  7.17279E+03  1.76314E+04  4.41174E+04
 -1.94126E+04  3.39355E+04 -2.94678E+04  3.35945E+03 -8.19825E+03 -3.31563E+04  1.56995E+04 -4.11474E+04
  4.32921E+04 -5.49166E+03  4.60310E+04  2.85447E+04  1.98315E+04  4.48146E+04 -6.92999E+03  5.71573E+04
 -4.04617E+04  3.89811E+04 -5.62291E+04  1.74078E+04 -5.31906E+04 -2.16658E+04 -2.15298E+04 -4.32333E+04
  7.91874E+03 -4.22426E+04  3.87944E+04 -1.11942E+04  3.26353E+04  6.30039E+03  9.20296E+03  2.40025E+04
 -1.77638E+04  1.15295E+04 -1.54821E+03 -5.37335E+03  6.32599E+03 -1.82152E+04  2.37087E+04  2.91741E+03
  1.89178E+04  2.33006E+04  2.37649E+03  2.76020E+04 -2.11462E+04  1.68887E+04 -3.41418E+04  6.89624E+03
 -2.57109E+04 -2.03280E+04 -6.41677E+03 -3.87425E+04  1.23748E+04 -3.20651E+04  1.77873E+04 -2.35172E+04
  3.90993E+04 -1.86972E+04  3.91546E+04  1.25048E+04  2.65886E+04  2.20154E+04 -8.98222E+02  4.42144E+04
 -2.32383E+04  3.29256E+04 -2.76762E+04  5.71245E+03 -2.05580E+04 -1.05292E+04 -1.21832E+04 -1.34551E+04
  5.78407E+02 -2.55043E+03 -9.34205E+03  6.65371E+03 -1.87437E+04  1.12903E+04 -1.94312E+04 -8.52607E+03
 -1.51514E+04 -2.47081E+04  1.13708E+04 -2.92797E+04  2.45333E+04 -2.64901E+04  2.52188E+04  1.22614E+03
  2.02338E+04  1.67533E+04  3.55755E+03  2.93494E+04 -1.65702E+04  1.26970E+04 -2.86274E+04 -2.79562E+03
 -2.17971E+04 -2.04491E+04 -2.42890E+03 -3.34909E+04  1.33772E+04 -1.93856E+04  3.00350E+04 -1.69928E+04
  2.46090E+04  1.55143E+03  2.56534E+04 -1.25998E+02  8.93052E+03  5.22705E+03  1.51142E+04 -2.11177E+03
  1.71295E+04  3.52617E+03  2.82863E+04  2.53857E+04  2.38488E+04  4.06211E+04  5.55076E+03  4.83894E+04
 -2.24704E+04  4.46281E+04 -4.98697E+04  1.86044E+04 -5.19771E+04 -1.01464E+04 -4.58810E+04 -3.60247E+04
 -1.25458E+04 -4.26649E+04  1.51633E+04 -3.58544E+04  3.59535E+04 -1.46568E+04  3.63268E+04  8.77967E+03
  1.33646E+04  2.42255E+04 -1.81299E+04  1.00652E+04 -2.82679E+04  1.50059E+03 -2.06611E+04 -1.39449E+04
  3.56228E+03 -1.50235E+04  1.29796E+04 -1.63168E+04  2.66480E+04 -7.07019E+03 -1.00417E+03  3.73907E+03
 -8.23138E+03  4.38893E+03 -1.19796E+04 -4.87788E+03  4.82818E+03 -2.57129E+04  4.82738E+03 -1.75083E+04
  2.59248E+04 -1.31152E+04  3.28545E+04 -1.32344E+03  2.70026E+04  2.26291E+04  1.49953E+04  3.68146E+04
 -7.34635E+03  4.39993E+04 -1.68164E+04  2.06533E+04 -2.26777E+04  1.61852E+03 -1.64594E+04 -8.41576E+03
 -4.37835E+03 -9.09076E+03  6.90423E+03  5.90752E+03 -1.01259E+04 -8.50306E+02 -9.52531E+03  1.45969E+03
 -1.06505E+04 -2.95243E+03 -1.97672E+04 -1.23285E+04 -5.61386E+03 -2.64171E+04  8.91412E+03 -1.62056E+04
  1.73607E+04 -1.38242E+04  1.40186E+04  3.76454E+03 -3.07137E+03  2.20556E+03 -7.27963E+03 -1.47258E+03
 -1.45087E+04 -8.31453E+03  9.47061E+02 -1.69660E+04  1.34683E+04 -2.31041E+04  2.08252E+04 -1.30513E+04
  2.84811E+04  6.12736E+03  1.90699E+04  2.20308E+04  6.92526E+03  2.39248E+04 -2.28796E+04  1.63184E+04
 -2.32559E+04  4.78497E+03 -5.95764E+03 -1.01447E+04  3.55692E+03 -1.76695E+03  6.82223E+03  7.73689E+03
  1.60629E+04  5.72906E+03 -1.09928E+03  1.02925E+04 -6.83923E+03  1.66747E+04 -2.51546E+04  2.40578E+03
 -9.79458E+03 -9.61651E+03  1.13340E+03 -9.11179E+03  1.08474E+04 -1.01895E+04  1.38243E+04  3.07378E+03
  2.43968E+03  8.32443E+03 -3.35462E+03  1.80031E+04 -1.67693E+04  8.41385E+03 -1.97596E+04 -4.14641E+03
 -1.06800E+04 -1.87873E+04  5.15135E+03 -2.20932E+04  2.21822E+04 -1.43324E+04  1.79628E+04  2.28354E+03
  1.00237E+04  1.11267E+04 -1.34521E+03  2.02247E+04 -1.94996E+04  4.67821E+03 -1.56330E+04 -3.51328E+03
 -1.10028E+04 -1.56553E+04 -2.86463E+03 -2.17798E+04  4.54229E+03 -1.40269E+04  1.23274E+04 -2.41524E+03
  5.28103E+03 -1.84656E+03  5.21718E+03  6.70064E+03  1.73532E+03 -6.87350E+03 -1.75864E+03 -1.01755E+04
  1.39727E+04 -3.43960E+03  1.47310E+04  5.77394E+03  1.88097E+04  1.06943E+04  1.07003E+04  2.94592E+04
 -1.24755E+04  2.23150E+04 -2.31501E+04  2.06718E+04 -3.63759E+04  1.04466E+04 -2.40360E+04 -7.10510E+03
 -8.06466E+03 -1.91148E+04  2.05263E+03 -1.84920E+04  1.28838E+04 -1.53464E+04  7.75956E+03 -1.55568E+03
  9.25438E+03 -5.73503E+03  6.09424E+03 -1.34422E+02  6.72129E+03 -4.02368E+03  1.37154E+04  3.40476E+03
  1.09173E+04  7.98642E+03  1.51035E+04  1.87552E+04  4.05601E+03  1.68057E+04 -1.31914E+04  1.48048E+04
 -2.35921E+04  6.22766E+03 -1.36310E+04 -1.97647E+04 -3.92409E+03 -1.36967E+04  1.88664E+04 -1.70373E+04
  1.98329E+04 -5.49524E+03  1.87614E+04  9.43505E+02  1.48642E+04  2.04115E+04  1.34682E+04  1.68804E+04
 -8.83373E+03  1.81533E+04 -1.05786E+04  4.92040E+03 -1.28210E+04 -6.66503E+03 -3.49664E+03 -1.15525E+03
 -1.15105E+04  9.25757E+03 -9.82500E+02  1.22619E+03 -5.45440E+03 -1.42595E+03 -8.76010E+03 -8.38848E+03
 -1.45428E+04  1.59816E+03 -1.11449E+03 -1.27741E+04  1.93407E+04 -1.27871E+04  2.15855E+04 -5.16062E+03
  1.58153E+04  1.43827E+04  4.52347E+03  2.30765E+04  3.72101E+02  2.27219E+04 -1.33247E+04  1.80802E+04
 -1.76483E+04  5.09147E+03 -1.43050E+04 -1.19761E+04  3.61365E+03 -1.81457E+04  1.09495E+04 -6.16390E+03
  1.91905E+04 -2.09367E+03  1.22191E+04  2.99894E+03  5.86354E+03  2.87492E+03 -4.24330E+03 -1.64959E+03
 -6.27116E+00  6.39742E+03  6.96679E+03  5.54477E+03  1.24912E+04  7.40437E+03  7.29707E+03  1.38154E+04
  9.33554E+02  1.85413E+04 -6.28046E+03  2.00485E+04 -2.14717E+04  7.16356E+02 -2.32925E+04 -5.93349E+03
 -1.11087E+04 -2.81194E+04  8.29332E+03 -2.90258E+04  6.65624E+03 -1.85738E+04  2.29694E+04 -1.86739E+02
  8.35488E+03 -1.43063E+03  5.98313E+02  1.62610E+04 -1.18420E+04  6.28861E+03 -9.48315E+03 -8.99196E+03
 -5.62308E+03 -2.18473E+03  4.06074E+03 -1.09360E+04  9.60153E+03 -1.79572E+03  2.11634E+03 -4.09299E+03
  2.32972E+03  2.60161E+03  6.56963E+03  1.62381E+03  2.29197E+03  4.61528E+03 -1.96583E+02 -3.60951E+03
 -3.65922E+01 -5.17426E+03  1.01883E+02  1.19498E+03  3.58909E+03  1.49374E+04 -7.20063E+03  1.35375E+04
 -1.19083E+04  9.77299E+03 -1.22933E+04  6.78562E+03 -1.84470E+04  4.66252E+03 -1.17801E+04  8.53696E+01
 -3.81917E+03 -8.10702E+03  8.48617E+02 -3.34302E+03  4.51478E+03  1.07031E+04 -4.49933E+03  1.04728E+04
 -7.59465E+03  4.70663E+03 -1.51870E+04  3.12699E+03 -5.35354E+03 -1.09141E+04  4.19731E+03 -1.18272E+04
  9.33409E+03 -6.73757E+03  1.51870E+04 -5.94437E+03  8.71167E+03  1.45898E+03  9.40650E+02  7.37978E+03
 -6.32377E+03  8.05205E+03 -7.38169E+03 -1.05279E+03 -2.74605E+02 -1.51243E+04  9.57914E+03 -8.23855E+03
  1.15587E+04 -4.12515E+03  1.79157E+04  1.32762E+04  7.57994E+03  1.38349E+04 -1.03419E+04  8.51269E+03
 -1.48281E+04  5.38605E+03 -1.05962E+04  2.14502E+03 -6.44614E+03 -9.87699E+03  9.83561E+02 -1.08567E+04
  5.74767E+03 -7.11625E+03  1.13312E+04  4.15380E+03  5.19458E+03  1.03345E+04  4.09128E+03  5.29300E+03
 -1.74696E+03  6.31525E+03 -4.97490E+03 -5.35278E+03 -7.29584E+03  1.72938E+03 -5.31617E+03  1.12066E+03
 -6.52686E+03  1.06716E+04 -1.50046E+04  9.56377E+03 -1.86953E+04  1.46045E+04 -1.62777E+04 -1.48556E+04
 -9.27450E+03 -2.02687E+04  1.68726E+03 -2.48202E+04  1.13726E+04 -1.28258E+04  2.04292E+04 -7.03627E+03
  2.01159E+04  2.90843E+03  1.44544E+04  1.27835E+04  1.09482E+04  1.73096E+04 -5.69331E+03  1.01202E+04
 -6.22339E+03  2.68983E+03 -4.26266E+03 -3.97236E+03  4.38077E+01  3.50272E+03  1.59164E+02 -1.82773E+03
 -7.02535E+03  2.36224E+03 -3.72912E+03 -7.62351E+01 -1.06948E+03  3.32367E+03 -3.28485E+03 -3.20677E+03
  9.95753E+03 -1.31595E+03  9.29418E+03  8.95478E+03  1.19532E+04  1.45128E+04  1.48217E+04  6.69340E+03
 -1.58572E+04  1.59911E+04 -1.53631E+04  8.62940E+03 -1.71011E+04  5.01840E+02 -1.75682E+04 -1.07116E+04
 -9.88397E+03 -1.49356E+04  2.16688E+03 -1.18971E+04  8.44044E+03 -1.14294E+04  9.00094E+03  3.66259E+03
  4.20967E+03  7.28747E+03  3.98865E+03  1.33335E+03 -4.62817E+03  1.32741E+04 -6.16712E+03 -8.15240E+03
  5.93400E+02 -3.87603E+03  2.60553E+03 -1.43798E+03  1.08566E+04 -3.42582E+03 -7.76879E+03  1.31605E+04
 -5.50965E+03  5.83552E+03 -1.63900E+04 -6.29686E+02 -6.52590E+03 -1.44195E+04  4.78958E+03 -2.35293E+04
  1.00843E+04 -1.07789E+04  1.24248E+04 -9.82942E+03  1.30404E+04 -2.99728E+02  5.33038E+03  1.31420E+04
 -9.60489E+02  6.10784E+03 -5.84865E+03  6.13448E+03 -3.91379E+03  6.48155E+03 -2.13275E+02 -3.96377E+03
 -4.75341E+03 -3.49125E+03 -1.22949E+03 -2.86406E+03 -1.14480E+04 -1.05034E+03 -1.71526E+04 -5.94776E+03
 -7.68423E+03 -1.33239E+04  3.55223E+03 -9.91118E+03  6.85043E+03 -1.87934E+04  7.84339E+03 -2.88171E+03
  8.99380E+03  1.28892E+03  2.18188E+03  6.29496E+03  8.00128E+03  1.51229E+04 -1.20871E+04  9.81353E+03
