 $NMID ID='MM_0lb_SNR50_19hz_g50_23.RAW', FMTDAT='(8E13.5)'
 TRAMP=1., VOLUME=1. $END
  3.12832E+05 -5.32758E+02  3.40120E+05  2.53846E+05  8.35959E+04  3.33801E+05 -1.31841E+05  2.47388E+05
 -1.86670E+05  7.91161E+04 -1.12372E+05 -3.29156E+04  6.06846E+03 -5.21458E+04  5.79667E+04 -8.67259E+02
  3.77387E+04  5.14581E+04 -1.86445E+04  7.36737E+04 -5.93069E+04  5.96883E+04 -8.46925E+04  3.00048E+04
 -7.64974E+04 -1.56227E+04 -5.58402E+04 -4.98922E+04 -1.53336E+04 -6.50170E+04  2.74821E+04 -4.47808E+04
  4.20905E+04  3.45792E+03  1.46674E+04  4.51848E+04 -3.68815E+04  4.38275E+04 -6.51581E+04  6.34934E+01
 -5.36694E+04 -5.16235E+04 -6.59426E+03 -7.36002E+04  3.35780E+04 -5.42943E+04  4.45566E+04 -1.44780E+04
  4.02199E+04  7.88761E+03  3.14281E+04  2.52564E+04  1.66736E+04  2.94008E+04  2.85331E+02  3.08648E+04
 -1.77819E+04  1.05368E+04 -1.67995E+04 -7.56024E+03  1.81128E+03 -9.89544E+03  1.86769E+04  9.49441E+03
  6.23047E+03  3.29583E+04 -3.22518E+04  3.40016E+04 -6.08797E+04  2.68195E+03 -5.77360E+04 -4.21392E+04
 -1.30849E+04 -5.89308E+04  4.02581E+04 -4.48223E+04  5.53017E+04 -2.19168E+03  3.18630E+04  3.10142E+04
 -8.32416E+03  3.21218E+04 -2.94114E+04  1.23277E+04 -2.56362E+04 -4.82154E+03 -1.33074E+04 -9.47222E+03
 -8.39133E+03 -1.09736E+04 -6.42498E+02 -1.32671E+04  6.10662E+03 -2.23692E+04  1.21580E+04 -1.55963E+04
  1.43621E+04  9.01829E+02 -3.65347E+03  1.26327E+04 -2.09398E+04 -5.99002E+03 -8.50069E+03 -2.89630E+04
  2.28648E+04 -4.33954E+04  4.70003E+04 -1.96021E+04  4.28465E+04  1.81853E+04  9.98763E+03  3.91766E+04
 -1.61781E+04  3.20491E+04 -2.35375E+04  3.36365E+03 -1.09424E+04 -2.83455E+04  1.96030E+04 -3.03016E+04
  4.10941E+04 -9.30389E+03  3.30654E+04  2.25749E+04  1.46554E+04  4.21851E+04 -8.78933E+03  4.55089E+04
 -2.89765E+04  2.93259E+04 -3.60499E+04  9.52537E+03 -4.01752E+04 -1.38553E+04 -2.22810E+04 -3.70423E+04
  7.28879E+03 -3.62257E+04  2.82854E+04 -1.04363E+04  2.67834E+04  9.28412E+03  4.52795E+03  1.69840E+04
 -1.13756E+04  4.85141E+03 -4.93439E+03 -6.34890E+03  7.62686E+03 -8.12734E+03  1.87114E+04  5.41712E+03
  1.07587E+04  1.86400E+04 -8.44126E+03  2.00094E+04 -2.21898E+04  1.02386E+04 -2.50174E+04 -2.84182E+03
 -1.47874E+04 -1.92877E+04 -2.72089E+03 -1.58433E+04  2.50982E+03 -1.57775E+04  1.06178E+04 -1.61323E+04
  2.20399E+04 -1.34681E+04  2.97464E+04  2.16555E+03  1.89724E+04  1.98306E+04  2.24582E+03  2.98520E+04
 -1.46707E+04  2.81696E+04 -2.33044E+04  1.31760E+04 -2.25689E+04 -4.73594E+03 -3.65075E+03 -1.66308E+04
  1.78151E+03 -1.89373E+03  6.89111E+01  3.35021E+03 -1.28480E+04  4.31441E+03 -1.50962E+04 -4.73233E+03
 -6.54770E+03 -1.19370E+04  4.94260E+03 -2.20835E+04  1.11662E+04 -1.35219E+04  1.45802E+04  2.28759E+03
  8.72371E+03  7.98948E+03 -3.14281E+03  1.72734E+04 -1.33236E+04  5.83344E+03 -1.41012E+04 -7.97272E+03
 -1.24204E+04 -1.22433E+04 -5.06861E+02 -2.08608E+04  1.17631E+04 -1.53802E+04  1.41982E+04 -1.06404E+04
  1.34808E+04  2.92182E+03  9.67746E+03  1.92821E+03  2.33157E+03  1.99212E+03  1.13554E+04 -2.28638E+03
  1.25678E+04  1.07594E+03  1.32780E+04  1.52528E+04  1.06860E+04  2.25453E+04 -2.22032E+03  2.69065E+04
 -1.72333E+04  1.98421E+04 -2.48844E+04  8.89047E+03 -2.14689E+04 -3.43338E+03 -2.01726E+04 -1.11669E+04
 -1.38138E+04 -1.81134E+04  9.30767E+03 -1.75073E+04  1.39873E+04 -1.20716E+04  1.74486E+04 -7.07470E+02
  4.22173E+03  1.05105E+04 -6.97476E+03  1.01293E+04 -1.36925E+04  4.70551E+03 -7.48788E+03 -1.02465E+04
 -1.66923E+03 -1.19625E+04  8.74664E+03 -1.01063E+04  6.89904E+03 -3.06631E+03  8.02772E+02  1.38130E+03
 -9.44404E+03 -1.22774E+03 -2.03229E+03  1.89339E+02 -8.47208E+02 -1.12794E+04  6.76084E+03 -1.46338E+04
  9.08483E+03 -3.25959E+03  1.20644E+04  4.02553E+03  1.00006E+04  1.31684E+04  1.65221E+03  1.58055E+04
 -1.02962E+03  1.77712E+04 -9.40395E+03  9.85683E+03 -9.13977E+03  1.18157E+03 -1.32395E+04  5.22149E+02
 -6.62725E+03  1.58654E+03 -3.89213E+03 -1.30003E+03 -1.66760E+03  2.01743E+03 -1.63826E+03  7.42596E+03
 -6.64949E+03 -4.21925E+03 -1.21691E+04 -1.08649E+04 -7.53893E+01 -1.15990E+04  1.31757E+03 -4.91147E+03
  1.07198E+04  1.05335E+03  4.14296E+03 -1.39675E+03  6.56335E+02  8.38210E+03 -5.19693E+03 -6.47883E+03
 -7.39859E+02 -8.80138E+03 -4.99779E+01 -6.78191E+03  7.85615E+03 -1.04838E+04  1.07932E+04 -2.88373E+03
  1.14105E+04 -2.46767E+02  1.15603E+04  8.51187E+03 -1.60153E+03  9.14050E+03 -4.32915E+03  7.54501E+03
 -5.52126E+03  2.70916E+03 -9.20804E+01 -1.35093E+03  2.40935E+03 -1.46851E+03  2.49283E+01 -3.17362E+03
  1.81093E+03  1.16183E+03  1.13491E+02  8.55730E+03 -3.74686E+03  6.90402E+03 -7.78046E+03  2.97600E+03
 -4.81252E+03  1.32171E+03 -1.23636E+02 -1.04603E+04  3.64869E+03 -2.06254E+03  1.84139E+03 -5.72620E+02
  3.39475E+03  7.52363E+02 -3.27292E+03  1.46442E+03 -3.61875E+03  4.38122E+03 -3.31881E+03 -5.41970E+03
 -3.23162E+03 -2.93121E+03  4.20060E+03 -5.65482E+03  2.79739E+03 -4.39821E+03  7.36859E+03 -2.02368E+03
  4.19249E+03  5.62137E+03  7.39737E+03  7.52232E+03 -4.80275E+03  5.65040E+03 -4.77277E+03 -1.45677E+02
 -7.08215E+03 -6.65443E+03 -4.17044E+02 -2.56115E+03  4.95386E+03 -4.63510E+03  2.81215E+03 -2.54827E+03
  1.53063E+03 -3.66950E+02  4.35125E+03  1.72454E+03 -3.00593E+03  1.47708E+03 -2.19272E+03 -1.43760E+02
  1.21559E+03 -4.59402E+03  4.87098E+03 -2.59529E+03  5.97947E+03  4.00644E+03  1.41833E+03  7.89501E+03
 -1.92155E+03  1.29639E+04 -9.17146E+03  4.85569E+03 -1.09493E+04  2.20379E+03 -1.11486E+04 -5.16853E+02
 -7.72582E+03 -8.75549E+03 -4.53564E+03 -5.48842E+03  1.36201E+03 -4.84953E+03  2.98004E+03 -7.20757E+03
 -5.61927E+02  1.60557E+02  5.15287E+03 -3.58438E+03  1.56536E+03 -3.41245E+02  1.77552E+03  5.46690E+03
  5.14347E+03 -1.38127E+03  2.64515E+03  4.26671E+03 -5.67596E+02  8.87374E+02 -1.90354E+03 -4.65349E+02
 -6.36391E+03 -2.73884E+03 -6.97391E+02 -5.57718E+03  5.93763E+03 -1.94490E+03  7.71340E+02 -2.36847E+03
  1.34304E+03 -6.69984E+03  8.39073E+03  1.74087E+03  4.23949E+03  2.20337E+03 -2.61413E+03  2.24502E+03
  2.04760E+03  4.81828E+03 -1.08565E+03  4.26857E+03  1.36912E+02  1.81377E+03 -2.24751E+03  1.73959E+02
 -1.83887E+03 -1.94519E+02 -2.19994E+03  2.97121E+03 -4.96564E+01 -4.16158E+03 -7.41233E+03 -1.45984E+03
  1.10313E+03 -2.27740E+03  1.72842E+03 -4.05007E+03  3.64041E+03 -3.93291E+03  3.08207E+03  5.64541E+02
  5.90509E+03  2.97577E+03  1.72500E+03  1.37721E+02 -1.92156E+03  3.13503E+03 -3.82363E+03  3.94843E+03
 -5.68751E+03  2.44673E+03 -2.08981E+03 -5.79114E+03  1.38590E+03  4.09720E+03  2.00068E+03 -3.36437E+03
  1.19736E+03 -9.81901E+02 -3.29802E+02  2.87317E+03 -1.89117E+03  6.39829E+03 -2.48121E+03  2.68787E+03
  3.11644E+03  1.04731E+03  2.18124E+03 -1.13943E+03  2.68916E+02 -1.42988E+02 -6.26291E+03 -1.71837E+03
 -2.31805E+03 -1.75650E+03 -1.86127E+03  1.55491E+03 -2.55756E+03  1.10701E+03 -5.09154E+03  2.35934E+03
  2.78960E+02 -4.72645E+03  1.72808E+02 -1.91471E+03  2.25069E+03 -2.39612E+03  6.63424E+03  4.02568E+02
  4.47692E+03  2.22394E+03  3.55485E+03  6.01317E+02 -1.44608E+03 -4.22153E+03 -4.13797E+03 -2.79048E+02
 -3.32142E+03 -1.52801E+03  1.49319E+03  3.49781E+03  3.97330E+03  7.90994E+02  1.61034E+03 -7.96651E+02
 -2.20799E+03 -4.91480E+03  5.67968E+02  3.47358E+02 -1.03854E+03 -1.33804E+03  2.18134E+03 -3.65067E+03
 -4.90245E+03 -6.83490E+02 -1.90617E+02 -4.22081E+02  2.45827E+03  2.75358E+03 -5.04239E+03  4.54072E+03
 -1.05572E+03  1.71163E+03 -4.91681E+02 -2.47796E+03 -3.60044E+03 -2.46060E+03 -5.21030E+02 -2.49439E+03
 -8.18345E+02 -2.28574E+03  3.52695E+03 -1.51245E+03 -3.52757E+03  7.38798E+02  3.35397E+02  3.19762E+03
 -2.15042E+03 -2.37174E+02 -2.71119E+03  8.86975E+02 -5.39765E+03  6.12196E+02  2.83951E+03 -5.75873E+03
  1.14288E+03 -1.52186E+03  2.74365E+03 -9.37585E+00  1.60518E+03  1.33441E+03  5.05478E+02 -7.46343E+02
 -5.43893E+02  3.42086E+03 -3.03251E+03 -6.20953E+02 -9.78221E+02 -1.91445E+03 -6.64548E+02 -1.33190E+03
  7.69234E+02 -1.40963E+03  6.11923E+03  4.67396E+02 -7.78315E+02  4.58136E+03 -2.50853E+03 -2.68492E+03
 -1.38589E+03  1.31082E+03 -4.98121E+03 -3.64320E+03 -1.45824E+03 -1.59813E+03  3.28568E+02 -4.64930E+02
 -4.39567E+03 -1.23753E+03 -3.60858E+03  2.50850E+03 -1.46351E+03  8.77977E+02  3.16557E+03 -6.63879E+02
 -2.76961E+03 -6.33570E+02 -1.35889E+03 -2.34354E+03  1.41622E+03  3.13113E+03 -2.50889E+03  9.39364E+01
  1.33012E+01  1.19062E+03 -2.66572E+03  1.45021E+03 -2.37887E+01 -1.83177E+02 -9.56865E+02 -5.83967E+03
 -2.56080E+03 -7.31997E+03 -2.15420E+03 -3.94246E+03  4.46693E+03 -3.17370E+03  6.16413E+03  2.02965E+02
  3.36116E+03  2.48520E+02  1.03217E+03 -2.14031E+03 -6.15166E+02  1.08991E+03 -1.39563E+03 -5.73738E+03
  1.66977E+03  2.41701E+02  2.13830E+02 -3.80327E+03  4.77264E+02 -1.41997E+03 -9.03058E+02  7.94178E+02
  9.06752E+01 -3.84069E+03 -3.97463E+03  1.60869E+03  2.32191E+02  1.83157E+03 -1.29081E+03 -2.87408E+03
 -9.25854E+02 -3.24439E+03 -2.16607E+02  2.15311E+03 -1.46545E+03 -1.12848E+03 -4.73566E+03  1.08938E+03
  2.33439E+03 -5.96229E+02 -8.54519E+01  2.52122E+03 -1.72518E+03  7.14275E+02  7.96406E+02 -3.08234E+03
  9.44304E+02 -1.67616E+03 -8.95566E+02 -1.06207E+02  9.08546E+02  2.67064E+02 -1.54788E+03  4.26799E+03
  4.95356E+02  4.16498E+03 -2.33444E+03 -1.44778E+03 -5.21693E+02 -1.65069E+03  2.89299E+03 -2.46056E+03
 -1.16109E+03  1.30494E+03  2.37577E+03 -3.60268E+03 -2.94795E+02 -1.89355E+03  1.39161E+03  2.22309E+03
 -2.54405E+03  2.93715E+03  9.28118E+02  2.51292E+03  1.72221E+02 -2.09486E+03 -7.63682E+02  1.35673E+03
 -3.11205E+02 -2.86378E+03  4.09974E+03  4.95698E+03 -2.85787E+03  2.07468E+03  2.85517E+03  2.02572E+03
  4.57614E+03  1.71579E+03 -4.01763E+03  2.40834E+03 -2.80855E+03  6.66399E+02 -3.34193E+03 -1.83578E+03
 -2.39772E+03  9.33189E+02 -1.53684E+02  1.94389E+03 -2.35938E+02 -7.50118E+02 -4.35064E+02 -2.68389E+03
 -2.51973E+03 -2.39852E+02  1.83693E+02 -6.20659E+02 -3.36303E+03  1.93613E+03  3.05802E+02  4.53396E+03
 -4.04672E+02 -1.47048E+02  6.51048E+02  3.61674E+03 -2.51251E+03 -2.40718E+03  1.25395E+02  4.86522E+02
