 $NMID ID='MM_0lb_SNR50_14hz_g40_23.RAW', FMTDAT='(8E13.5)'
 TRAMP=1., VOLUME=1. $END
  3.14037E+05  1.79396E+03  3.39948E+05  2.48020E+05  8.21995E+04  3.39919E+05 -1.32850E+05  2.50710E+05
 -1.89521E+05  8.43410E+04 -1.11837E+05 -3.36899E+04 -9.39276E+02 -4.85706E+04  5.29428E+04 -1.38283E+03
  3.20925E+04  5.72185E+04 -1.36896E+04  7.94664E+04 -5.89021E+04  6.39598E+04 -7.71404E+04  3.16598E+04
 -7.89281E+04 -9.69008E+03 -5.70752E+04 -4.94995E+04 -1.52356E+04 -6.83596E+04  2.70726E+04 -4.72946E+04
  3.53369E+04  4.62255E+03  1.34271E+04  4.44351E+04 -3.47991E+04  5.16941E+04 -7.14602E+04 -2.89088E+03
 -5.41566E+04 -5.63765E+04 -9.19700E+03 -7.68582E+04  3.88060E+04 -5.25761E+04  4.27942E+04 -1.40418E+04
  3.84932E+04  1.51252E+04  3.38339E+04  2.64111E+04  1.78905E+04  2.55078E+04 -7.57839E+03  2.73683E+04
 -2.22396E+04  1.43495E+04 -1.29454E+04 -3.06585E+03  4.91396E+03 -1.01063E+04  2.52888E+04  1.32808E+04
  1.01641E+04  3.48947E+04 -3.07563E+04  4.18518E+04 -6.08761E+04 -3.99814E+03 -5.60886E+04 -4.02133E+04
 -1.52305E+04 -6.39875E+04  3.44613E+04 -4.17422E+04  5.28174E+04 -2.29146E+03  3.05117E+04  3.15454E+04
 -7.40482E+03  3.66675E+04 -2.86207E+04  1.32260E+04 -3.41866E+04 -9.14117E+03 -2.44021E+04 -1.23090E+04
 -5.84310E+03 -1.74472E+04 -2.33874E+03 -1.74426E+04  1.19030E+04 -2.36167E+04  1.71309E+04 -2.01569E+04
  1.05128E+04  3.15778E+03 -9.33092E+03  9.78667E+03 -2.34412E+04 -1.93232E+03 -1.20297E+04 -2.64680E+04
  2.59447E+04 -4.18608E+04  4.79493E+04 -1.84017E+04  4.48814E+04  1.62409E+04  1.81383E+04  4.35367E+04
 -1.52516E+04  3.07211E+04 -2.52530E+04  2.27680E+03 -9.08256E+03 -2.41536E+04  2.62539E+04 -3.34702E+04
  3.94412E+04 -1.08816E+04  3.75919E+04  2.57330E+04  1.99946E+04  4.52840E+04 -1.28649E+04  4.99809E+04
 -3.64761E+04  3.40392E+04 -4.29297E+04  1.08298E+04 -4.23816E+04 -1.38513E+04 -2.44151E+04 -3.35520E+04
  6.49616E+03 -3.14044E+04  3.37806E+04 -1.59980E+04  2.57244E+04  8.82678E+03  3.33807E+03  2.02745E+04
 -1.63750E+04  1.06244E+04 -7.04094E+03 -6.57232E+03  8.88625E+03 -1.34057E+04  2.27317E+04  5.48453E+03
  1.72686E+04  2.65736E+04 -1.12127E+04  2.82760E+04 -2.13940E+04  1.38881E+04 -3.27363E+04 -2.56940E+03
 -1.84723E+04 -1.73140E+04 -8.43005E+03 -2.04040E+04  3.88455E+03 -1.71362E+04  1.33526E+04 -1.87373E+04
  2.52278E+04 -1.81699E+04  2.62390E+04  2.04800E+03  2.18067E+04  1.77781E+04  5.74981E+03  3.50032E+04
 -2.06039E+04  2.57874E+04 -2.71934E+04  1.05461E+04 -2.38386E+04 -9.79388E+03 -4.87582E+03 -9.41496E+03
  2.36786E+02 -2.14905E+03 -6.13701E+03 -4.82057E+01 -1.75502E+04  7.70849E+03 -1.92575E+04 -7.72541E+03
 -1.31958E+04 -1.68745E+04  6.12298E+03 -2.41149E+04  1.44374E+04 -1.96168E+04  1.69850E+04 -4.46065E+02
  1.16388E+04  1.54756E+04 -6.57452E+02  1.87078E+04 -1.53537E+04  1.29725E+04 -1.61370E+04  2.96594E+03
 -1.03869E+04 -1.81953E+04 -4.06302E+03 -1.82620E+04  1.19030E+04 -2.08073E+04  1.88478E+04 -3.79038E+03
  1.65251E+04  1.65560E+03  1.07645E+04  1.57128E+03  3.35079E+03  1.12446E+03  8.45079E+03  3.90992E+03
  1.56415E+04  4.41057E+03  1.71606E+04  1.33293E+04  1.24285E+04  3.33164E+04 -1.04893E+04  3.31268E+04
 -1.67466E+04  2.38507E+04 -3.06659E+04  1.11890E+04 -3.01497E+04 -4.31869E+03 -2.73962E+04 -1.37657E+04
 -1.14116E+04 -2.24931E+04  7.40486E+03 -1.99679E+04  1.97813E+04 -1.17185E+04  1.78913E+04  5.77114E+03
  6.32218E+03  1.46379E+04 -5.55417E+03  1.17464E+04 -1.28841E+04 -2.81229E+02 -1.00379E+04 -9.95671E+03
 -2.51854E+03 -1.73715E+04  2.17902E+03 -1.01702E+04  8.93212E+03 -6.99069E+03  4.73914E+03  8.62606E+03
 -1.02591E+04  5.39249E+03 -4.18932E+03 -5.18793E+03 -3.49874E+03 -1.24050E+04  1.22080E+04 -1.39920E+04
  1.73435E+04 -6.47919E+03  1.40691E+04  6.43133E+03  1.39071E+04  7.06230E+03  4.88847E+03  1.82889E+04
 -7.37282E+03  1.69214E+04 -1.41376E+04  1.30642E+04 -1.50272E+04  7.21204E+03 -7.24502E+03 -4.83495E+03
 -7.18850E+03 -5.51051E+03  3.81637E+03  4.67350E+03 -1.63002E+03  1.96769E+03 -6.22656E+03  6.07327E+03
 -8.10552E+03 -1.97412E+03 -1.08646E+04 -3.19319E+03 -5.80021E+03 -1.71826E+04  6.42597E+03 -7.44458E+03
  1.38887E+04 -5.96049E+03  6.08102E+03  3.44420E+03 -2.01883E+03  3.30490E+03 -7.05219E+03  2.06764E+02
 -3.79426E+02 -6.36910E+03 -1.70383E+03 -7.84053E+03  7.71323E+03 -1.53641E+04  1.42432E+04 -8.60550E+03
  2.09055E+04  2.69730E+03  1.39819E+04  1.05368E+04 -3.23424E+03  7.54680E+03 -2.09105E+03  1.14651E+04
 -9.06168E+03  4.00473E+03 -3.79147E+03 -3.04856E+03  5.11131E+03 -4.55562E+03  1.95307E+03  1.54678E+02
  5.29211E+03  5.29946E+03 -3.01175E+01  1.18503E+04 -4.59783E+03  1.12833E+04 -1.03673E+04  5.61853E+03
 -6.69103E+03 -1.22781E+04 -3.00054E+03 -1.13940E+04  1.04002E+04 -8.06789E+02  4.61468E+03  2.15184E+03
  6.71850E+03  5.12444E+03 -5.63710E+03  4.98735E+03 -6.50207E+03  8.22187E+03 -6.02224E+03 -4.74784E+03
 -5.34053E+03 -7.39521E+03 -1.25019E+03 -4.11767E+03  8.97755E+03 -7.37529E+03  1.17735E+04  5.27880E+03
  4.84955E+03  3.43370E+03  6.83066E+01  9.04852E+03 -1.00733E+02  2.22388E+03 -1.06446E+04  1.61133E+03
 -8.29081E+03 -4.65937E+03 -2.96459E+03 -7.12504E+03  7.81458E+03 -9.04924E+03  1.16307E+04 -4.00409E+03
  1.76513E+03 -9.22462E+01 -1.98745E+03  2.76749E+03  4.04774E+03 -9.39460E+02  1.86360E+03 -6.77063E+03
  5.73597E+03 -2.54238E+03  1.13701E+04  3.88537E+03  7.52498E+03  4.00922E+03  1.25084E+04  1.15008E+04
 -1.69128E+03  1.52989E+04 -1.21939E+04  8.38155E+03 -1.35781E+04  2.51974E+03 -1.44238E+04 -2.59966E+03
 -7.28072E+02 -1.33696E+04 -1.91202E+03 -1.00423E+04  1.88715E+03 -4.80502E+02  3.72359E+02 -3.60102E+03
  1.85324E+03  7.44098E+02  6.42707E+03 -4.05306E+03  4.56897E+03 -2.30147E+03  2.61943E+03  5.57210E+03
  2.62275E+03  1.44241E+03  5.47353E+03  8.00822E+03 -2.76629E+03  9.28640E+03 -7.87924E+03  5.13525E+03
 -7.35269E+03  9.80149E+02 -4.64684E+03 -7.15416E+03  5.22623E+03 -1.43289E+04  3.79535E+03 -7.20215E+03
  1.61293E+04 -3.85815E+03  9.90943E+03  2.00270E+03  1.21273E+04  5.17050E+03  1.34353E+03  6.51257E+03
 -4.75357E+03  1.18011E+04 -3.15894E+03  2.53438E+03 -6.85191E+03  3.85612E+02  3.16780E+03  8.05184E+02
  1.61173E+03  1.60052E+02  1.62422E+02  1.90333E+03 -9.20447E+03  1.18112E+02 -1.01251E+04 -1.72545E+03
 -6.79471E+03 -1.11622E+04  1.89894E+03 -2.48122E+03  1.54624E+03 -6.29056E+03  7.42105E+03 -4.03649E+03
  6.38920E+03  5.41874E+03  5.20694E+03  1.71661E+03  3.23737E+03  9.17845E+03 -2.60368E+03  5.10304E+03
 -9.18840E+03 -2.08843E+03 -3.85629E+03 -2.26230E+03  2.83263E+03 -1.19638E+04 -4.29264E+02 -5.05120E+03
  6.28538E+03 -6.77315E+03  1.74350E+03  2.83521E+03 -1.48444E+03  5.84614E+03 -2.89691E+03  1.46010E+03
  3.85609E+03 -9.99760E+02 -2.16659E+03  2.65781E+03  5.80984E+03  2.79513E+03  3.11747E+03  3.74068E+03
 -2.81513E+03  9.68968E+03 -5.24958E+03  6.80867E+03 -8.17070E+03  4.94757E+03 -1.13353E+04 -2.96174E+03
 -2.02274E+03 -3.36432E+03  8.95414E+03 -8.57083E+03  3.95397E+03 -3.25552E+03  6.78849E+03  5.15600E+02
  6.60007E+03 -1.11044E+03 -4.30389E+00  8.81066E+03  3.18861E+01  4.96859E+03 -6.97264E+03 -1.28585E+03
 -2.11618E+03 -6.18701E+03  5.78936E+03 -4.91627E+03 -6.92934E+02  3.77187E+01  3.71641E+03 -3.17609E+02
  3.15001E+02  3.17968E+03  2.75916E+03 -9.36253E+02  8.87551E+02  9.51743E+02 -1.95780E+03  2.73633E+03
 -3.17149E+02 -2.05342E+03  3.88829E+03  1.96262E+02  3.09439E+02  2.02720E+03 -1.02582E+03  5.51141E+03
 -8.13036E+02  4.43545E+03 -4.23712E+03  1.01375E+03 -3.34796E+03 -2.31783E+03 -6.17811E+03 -3.90471E+03
 -3.22881E+03 -4.44555E+03  4.56899E+03 -1.88594E+03 -1.73608E+03  2.83954E+03 -2.87644E+03  3.98155E+03
 -2.34113E+03 -1.99392E+03 -4.78163E+03 -2.02096E+03 -4.13763E+03 -7.03540E+03  4.40419E+03 -4.55960E+02
  2.28270E+03  1.78130E+03  6.35817E+03  4.44942E+03  2.49347E+03 -2.24494E+02 -8.24413E+02  2.47627E+03
 -4.25746E+03  1.65880E+03  1.78596E+03 -2.65378E+02 -3.42449E+03 -1.18427E+03  2.00504E+03 -7.85522E+02
  6.97747E+02 -3.74224E+02 -4.46794E+02  4.38811E+03  3.42449E+03  3.50469E+03 -6.75744E+02  2.49056E+03
 -4.72542E+03  7.71690E+01 -3.46883E+03  1.16283E+03 -3.46249E+03  5.90455E+02  5.59429E+03 -1.11040E+03
  1.89642E+03 -5.10107E+03 -2.28130E+03  4.77452E+03  1.29398E+03  2.54519E+03 -1.10742E+03  1.04727E+03
 -2.09230E+03 -9.95280E+02 -8.06890E+02 -3.97773E+03  2.12286E+03  6.46650E+02  7.10853E+02  1.51802E+03
 -1.66725E+03  8.42076E+03 -4.53800E+03  5.66632E+03 -1.21407E+03  1.09742E+03 -4.55443E+03 -6.25280E+03
  1.37272E+03 -1.99341E+03  2.63978E+03 -3.66169E+03  8.02722E+02 -6.75111E+03 -1.85547E+02  1.29105E+03
  7.67273E+03  4.88150E+03  1.39374E+03  6.92642E+02 -2.80199E+03  1.72146E+03 -1.50638E+03  5.67081E+03
 -6.86840E+03  4.51067E+03  7.99667E+02 -4.53171E+03  5.40030E+00 -1.39211E+03 -4.93606E+03 -1.31013E+03
 -8.34791E+02 -2.05767E+03 -1.61793E+03  1.02561E+03  8.63431E+02  1.16217E+02 -2.31690E+03  9.63170E+00
  7.05958E+03 -3.47901E+03  1.10362E+03 -3.71285E+03  4.33623E+02  3.10803E+03  2.08362E+03  5.55850E+03
 -5.89636E+02  5.75755E+03 -3.57604E+03  6.55510E+03 -2.81022E+03 -7.24296E+03 -3.34486E+03 -6.32981E+03
 -5.67049E+03 -6.53213E+03  2.39387E+03  8.54771E+02  4.64109E+03 -3.10968E+03  3.73016E+03 -3.82638E+03
 -1.72673E+03 -3.17888E+03  1.09252E+03  1.19302E+03  1.24784E+03 -2.27439E+03  3.96112E+02 -2.52670E+03
  1.97966E+03 -4.01689E+03  1.70481E+03 -1.62558E+03  2.58949E+03 -3.67310E+03 -3.89114E+03  3.65997E+03
 -5.08439E+02  5.29755E+02  9.40884E+02 -6.73918E+02 -3.22573E+03  3.01213E+03  3.75519E+03 -3.69365E+03
 -2.42246E+03 -9.06021E+03  5.87254E+03 -3.10633E+03  3.94504E+03 -1.36284E+03  4.29410E+03  5.46652E+03
 -1.38872E+03  7.00531E+03 -1.09309E+03  5.05443E+02 -1.93677E+03 -2.39837E+03 -2.77131E+03 -2.78732E+03
  2.04555E+02  1.97788E+03  2.34860E+03  4.28380E+03 -1.94235E+03  2.20006E+03  2.30932E+03 -4.75981E+03
 -3.93837E+03 -1.99889E+03  6.60296E+02 -2.55240E+03  4.22459E+03 -3.88729E+03  2.02007E+02 -7.46141E+02
  2.40552E+03  2.63479E+03  7.77169E+02  4.57063E+02  2.04520E+03  7.39333E+02 -2.31084E+02 -1.23586E+03
