 $NMID ID='MM_0lb_SNR50_17hz_g40_14.RAW', FMTDAT='(8E13.5)'
 TRAMP=1., VOLUME=1. $END
  3.10932E+05 -1.41515E+03  3.34056E+05  2.50411E+05  8.57169E+04  3.38840E+05 -1.34211E+05  2.51990E+05
 -1.86581E+05  8.38814E+04 -1.09891E+05 -3.41769E+04  5.15164E+03 -4.77014E+04  5.52182E+04 -1.82489E+03
  3.29830E+04  5.29834E+04 -1.31714E+04  7.38842E+04 -5.94667E+04  6.28773E+04 -8.25410E+04  3.43071E+04
 -7.88675E+04 -1.25655E+04 -5.53953E+04 -5.05486E+04 -1.25802E+04 -7.06830E+04  2.50131E+04 -4.46487E+04
  3.98559E+04  8.91435E+02  1.83521E+04  5.03921E+04 -3.71633E+04  4.66289E+04 -5.99900E+04 -7.67257E+02
 -5.42954E+04 -5.32642E+04 -5.76667E+03 -7.23444E+04  3.16540E+04 -5.46215E+04  4.53520E+04 -1.93793E+04
  3.95422E+04  1.22591E+04  2.79242E+04  2.47134E+04  1.68200E+04  3.09405E+04 -6.04562E+03  2.98908E+04
 -1.92634E+04  8.94611E+03 -2.17254E+04 -4.50600E+03  5.98831E+03 -4.74502E+03  2.48753E+04  1.31224E+04
  4.22811E+03  2.81569E+04 -3.32635E+04  2.99235E+04 -6.11013E+04  1.57605E+03 -5.34604E+04 -4.00069E+04
 -1.22423E+04 -6.29713E+04  3.75801E+04 -4.26936E+04  5.82646E+04 -3.23226E+03  2.89594E+04  2.90418E+04
 -8.72163E+03  2.97627E+04 -2.61925E+04  1.68043E+04 -2.41071E+04 -8.11041E+03 -1.68257E+04 -3.65893E+03
 -3.38316E+03 -1.49896E+04 -3.06598E+03 -1.43730E+04  9.09549E+03 -2.41947E+04  1.38742E+04 -1.30709E+04
  1.70429E+04  2.43020E+03 -5.03483E+03  1.60605E+04 -1.73677E+04 -2.76942E+02 -5.98494E+03 -3.20460E+04
  2.27152E+04 -3.76159E+04  4.37241E+04 -1.64000E+04  4.23690E+04  2.15325E+04  1.14386E+04  4.28676E+04
 -1.76741E+04  2.98811E+04 -2.68743E+04  2.17556E+03 -7.41717E+03 -2.57979E+04  2.05372E+04 -3.38149E+04
  4.25080E+04 -8.49494E+03  3.13008E+04  2.18184E+04  1.84895E+04  4.36193E+04 -4.18147E+03  4.17486E+04
 -3.06350E+04  3.02435E+04 -4.14745E+04  9.24596E+03 -3.83396E+04 -1.01896E+04 -2.33977E+04 -3.51712E+04
  7.23078E+02 -3.60325E+04  3.00472E+04 -1.60819E+04  2.71184E+04  5.89558E+03 -3.51369E+03  1.70080E+04
 -9.92588E+03  7.79478E+03 -1.14840E+04 -8.65226E+03  1.06364E+04 -1.38564E+04  1.79679E+04  6.20278E+03
  1.10241E+04  2.10279E+04 -7.33524E+03  2.12272E+04 -1.98794E+04  1.31501E+04 -2.42225E+04 -5.21377E+03
 -1.56081E+04 -1.57263E+04 -3.81054E+03 -1.81926E+04  2.57213E+03 -1.37853E+04  1.45309E+04 -1.52257E+04
  2.42538E+04 -1.47223E+04  2.84864E+04  1.34247E+03  2.44832E+04  1.51737E+04  3.41683E+03  3.31457E+04
 -1.60278E+04  2.94678E+04 -2.62523E+04  8.51939E+03 -1.87112E+04 -8.53047E+03 -5.85229E+03 -1.34069E+04
  1.28528E+03  1.78059E+02 -4.14622E+03  7.41804E+03 -1.13481E+04  9.35919E+03 -1.29165E+04 -4.23308E+03
 -7.49724E+03 -1.33604E+04  3.75617E+03 -2.31600E+04  7.35431E+03 -1.33168E+04  1.86795E+04 -1.34527E+03
  1.29615E+04  1.62702E+04 -5.67032E+02  1.89595E+04 -1.28960E+04  6.82242E+03 -1.34516E+04 -6.10193E+03
 -1.19492E+04 -1.40518E+04 -8.63255E+02 -2.07942E+04  6.92860E+03 -1.49676E+04  1.35715E+04 -1.08818E+04
  1.09033E+04  1.17987E+03  9.40776E+03  4.48912E+03  5.61098E+03  1.66040E+03  1.42506E+04  2.89342E+02
  9.99762E+03  3.41075E+03  1.30442E+04  1.50942E+04  1.04347E+04  3.02221E+04 -1.39517E+03  3.07390E+04
 -1.40222E+04  2.34038E+04 -2.42313E+04  1.01853E+04 -2.53840E+04 -3.63539E+03 -2.49498E+04 -1.50618E+04
 -1.02175E+04 -2.33110E+04  8.02348E+03 -2.23837E+04  1.62755E+04 -1.18211E+04  1.39564E+04  3.27963E+03
  5.42450E+03  6.98644E+03 -3.07496E+03  6.31280E+03 -1.46527E+04  4.49675E+03 -8.63180E+03 -1.19020E+04
  2.50544E+03 -1.01203E+04  4.62181E+03 -1.19401E+04  1.03915E+04 -2.72106E+03  1.62038E+03  8.70502E+03
 -6.29524E+03  3.67368E+03 -9.00989E+02 -7.04757E+03 -1.33899E+03 -7.40530E+03  1.01117E+04 -1.11377E+04
  1.19592E+04 -8.99762E+03  1.40967E+04  1.15485E+03  7.80306E+03  1.47774E+04  2.69157E+03  1.33285E+04
 -5.61270E+03  1.78561E+04 -9.30219E+03  1.19947E+04 -1.52944E+04  7.19698E+03 -7.67169E+03 -1.41729E+03
 -6.22761E+03 -6.16479E+03  3.57817E+03  3.92947E+03  7.38972E+02  1.39967E+03 -3.67195E+03  5.04481E+03
 -8.19085E+03 -1.88354E+03 -7.68540E+03 -7.27059E+03 -3.54916E+02 -1.39675E+04 -5.14674E+02 -5.22520E+03
  6.00112E+03 -8.49502E+03  3.85862E+03  1.18574E+03 -3.86214E+03  6.83817E+03 -5.24300E+03  4.41937E+03
 -4.25978E+03 -6.02219E+03 -1.22740E+03 -5.43895E+03 -9.73990E+02 -6.25401E+03  1.28334E+04 -6.98827E+03
  1.47578E+04  4.04975E+03  9.53737E+03  6.25224E+03 -7.28871E+02  8.23816E+03 -5.72003E+03  4.31105E+03
 -3.92381E+03  6.83565E+03 -4.68755E+03 -2.23985E+03 -1.09726E+03  1.26249E+03  5.95460E+03  8.67278E+02
  5.58156E+03  1.82832E+03 -2.09522E+02  6.19378E+03 -8.39088E+03  6.29196E+03 -8.09836E+03  1.30074E+03
 -6.18055E+03 -4.97447E+03 -1.60656E+03 -7.51580E+03  3.71075E+03 -4.63485E+03  2.71796E+03  4.73505E+03
  2.46770E+03  4.43204E+03 -1.80950E+03  6.23718E+03 -2.32761E+03  4.51996E+03 -3.17459E+02 -3.14060E+03
 -2.63605E+03 -8.18930E+03  2.74769E+03 -9.33863E+03  6.24521E+03 -3.95159E+03  9.23632E+03  3.76889E+03
  4.12216E+03  1.25194E+03 -2.95255E+03  5.44377E+03 -7.59363E+03  3.91603E+03 -1.11017E+04 -1.46609E+03
 -7.71723E+03 -9.81789E+03  2.52730E+03 -5.45817E+03 -9.52711E+02 -2.64418E+03  2.79169E+03 -3.04339E+03
  4.78491E+03  5.87395E+02  1.67046E+03 -5.37700E+02  1.39477E+03 -1.21432E+03  1.83067E+03 -5.01325E+03
  4.09066E+03 -1.51922E+03  1.29364E+03 -2.16079E+03  2.11471E+03  7.92150E+03  2.27979E+03  8.43577E+03
  5.51923E+03  1.09869E+04 -5.79717E+03  4.05273E+03 -1.31513E+04 -6.95781E+02 -1.11193E+04 -2.75600E+03
 -1.05175E+03 -6.37908E+03 -2.65562E+03 -9.09270E+03  3.76012E+03 -1.97423E+03  7.54666E+02  9.71926E+02
  2.28731E+03 -3.19224E+02  3.49715E+03 -3.14675E+03  3.51291E+03 -1.63493E+03  5.02072E+03  5.70948E+02
  3.90945E+03  6.41857E+02  2.67434E+03  6.20609E+03 -3.74212E+02  3.93646E+03 -4.74756E+03  4.64163E+03
 -3.33613E+03  2.09024E+02 -6.44274E+03 -2.18506E+03  3.30322E+02 -3.74001E+03  7.12636E+03 -5.31128E+03
  1.03099E+04 -7.03185E+03  1.06827E+04  1.75906E+03  9.84983E+03 -7.87732E+02  1.90737E+03  9.77800E+03
 -6.85045E+02  7.69398E+03 -6.56555E+03  1.98370E+03  4.36093E+02 -1.16244E+03 -1.73348E+03 -2.65116E+03
 -1.46751E+03  6.32983E+02 -3.74798E+02  1.41019E+03 -1.87779E+03  2.72665E+03 -4.69023E+03 -2.87801E+03
 -1.04154E+03 -3.41972E+03 -7.31781E+02 -4.66857E+03 -1.34381E+03 -1.68546E+03  1.51054E+03  3.37872E+02
  2.30435E+03  5.95247E+03 -1.07231E+03  1.43005E+03 -3.39225E+03  2.75534E+03 -8.39861E+02  1.82600E+03
 -4.96784E+03  1.17531E+02  1.70731E+03 -4.26429E+03 -7.69076E+02 -5.71659E+03  2.94197E+03 -1.00011E+03
  3.57300E+03 -2.88294E+03  1.77514E+03  1.84487E+03 -1.78674E+03 -1.08058E+03  1.84899E+03 -6.29529E+02
  5.01182E+03  2.53844E+03  2.36841E+03  1.88865E+03  3.66014E+03  2.17979E+03  3.19801E+03 -1.65447E+03
 -2.42186E+03  2.14164E+03  8.56696E+02  7.06081E+03 -6.74813E+03  2.96876E+03 -5.16555E+03  3.38118E+03
  1.29796E+03 -6.72941E+03 -5.24238E+02 -3.68898E+03  1.97157E+03 -4.02615E+03  3.77783E+03  4.58125E+03
  4.59434E+03  4.54340E+02 -2.39008E+03  2.19600E+03 -2.94054E+02  3.73570E+02 -1.13734E+03  7.99502E+01
  1.03751E+02 -2.16177E+03  4.81041E+03 -3.31660E+03  1.40126E+01 -2.07847E+03 -1.06817E+03  8.87482E+02
  1.19533E+03 -1.69088E+03  3.50980E+03  2.20469E+03  1.50020E+03  5.30924E+03  1.97932E+03 -1.63074E+03
  6.68303E+02  1.95338E+02  2.65390E+02 -1.74614E+03  3.30472E+03  3.88086E+03 -1.44931E+03  2.24327E+03
 -4.10516E+03  8.92571E+02 -3.64029E+03 -2.40889E+03 -1.32198E+03  3.48715E+02 -3.71929E+03  3.39828E+03
 -3.54813E+03 -3.20984E+03  3.80399E+01  4.02534E+03  1.84213E+03  6.38376E+02  1.38198E+03  7.38630E+02
 -5.89954E+03  7.09362E+02 -3.30268E+03 -3.37928E+03 -3.17816E+02 -6.02130E+03 -3.36070E+02 -7.03929E+03
  1.21678E+02 -1.56491E+03 -3.92383E+03 -7.27226E+02  9.47443E+02  4.95583E+03 -1.50775E+03  3.57975E+03
  4.32784E+03  1.89616E+03  1.53856E+03  8.52773E+02  5.61034E+00  1.31298E+03  5.71793E+03  1.44180E+02
  1.20982E+03 -1.24768E+03  4.45863E+03  2.44410E+03  4.70819E+03  3.04272E+03  1.54770E+03  5.57264E+02
 -3.53660E+03 -1.43650E+03 -4.39090E+03  9.30646E+01 -3.92898E+03 -1.52634E+03  2.85826E+02 -7.08506E+02
  1.61164E+03  3.41166E+03  3.30570E+03 -1.62008E+03 -7.59921E+02  4.05798E+02 -1.55255E+03 -6.05112E+02
 -6.57647E+02  1.69948E+03 -1.63185E+03  2.51672E+03 -2.70362E+03  4.69130E+03 -2.80204E+03  3.46373E+03
  1.22314E+03  2.53328E+03 -3.26314E+03  1.96408E+03 -3.14725E+03 -1.51840E+03 -3.71016E+03 -9.43417E+02
 -5.97906E+03 -8.86105E+02  5.94466E+02 -7.11970E+02  1.14963E+03 -1.43498E+03  8.13940E+03 -2.86146E+03
  7.71320E+02 -1.57663E+03 -7.25732E+02  2.23316E+03  2.54646E+03  2.42750E+03 -2.95559E+02  5.81106E+03
  4.04347E+03 -9.76880E+02  1.49495E+03  4.56773E+03 -3.58404E+03  2.23850E+03 -3.15896E+03  3.08436E+03
  2.06314E+03 -4.64378E+02  1.97268E+03 -1.58986E+03  7.73231E+02 -2.14660E+03 -2.53697E+01 -2.71041E+03
  5.21495E+03  4.27570E+02 -3.46567E+02 -2.80548E+03  1.51887E+03  5.16100E+02 -2.60930E+03  1.84240E+03
  3.76453E+02  2.71774E+03 -1.75647E+03  5.08915E+03 -4.43017E+03 -3.26162E+03 -6.19832E+03 -1.80067E+03
  1.58727E+02 -2.09578E+03  1.43827E+03 -9.72418E+02  3.04413E+03  1.23772E+03 -9.76441E+01 -1.47024E+03
  6.05147E+02  1.40533E+03 -5.44834E+03  3.02625E+02 -1.17292E+03 -3.83505E+03 -1.46044E+03 -3.58543E+03
  6.96111E+03 -4.66499E+02 -7.08651E+01 -3.97557E+02 -1.69962E+03  2.05976E+03  3.68925E+03 -1.91459E+03
 -2.72205E+03 -4.52710E+03 -1.99185E+02  3.92414E+03 -3.33187E+03 -1.02243E+03 -1.46253E+03  7.19839E+02
 -2.53205E+03 -2.45217E+03  8.11637E+02 -5.11637E+03  8.00366E+02 -1.63993E+03  1.76683E+03  1.39756E+03
 -1.03891E+03 -2.81298E+03 -4.35397E+03  1.85321E+03 -5.01603E+03  3.88984E+03 -2.46729E+03  3.74401E+03
  2.05609E+03 -3.11085E+03 -1.63861E+03  9.94474E+01  2.50579E+03 -5.48296E+03  2.02609E+03 -7.26579E+02
 -5.02476E+03  2.57160E+03 -6.00631E+03 -1.47451E+03  7.70995E+02 -3.10369E+03  1.03338E+03  4.19625E+03
 -8.45374E+00 -1.29355E+03 -1.60220E+03  3.45689E+03  3.72104E+03  3.09874E+03 -1.01894E+03  4.63993E+03
