 $NMID ID='MM_0lb_SNR50_12hz_g50_43.RAW', FMTDAT='(8E13.5)'
 TRAMP=1., VOLUME=1. $END
  3.10285E+05  1.64570E+03  3.38123E+05  2.52379E+05  8.68529E+04  3.37897E+05 -1.32256E+05  2.48161E+05
 -1.93049E+05  8.70920E+04 -1.13782E+05 -3.53115E+04  2.84947E+02 -4.61394E+04  5.55415E+04  9.57480E+00
  3.41558E+04  5.46916E+04 -1.71636E+04  7.43830E+04 -5.90947E+04  7.03202E+04 -8.57121E+04  3.27956E+04
 -7.92060E+04 -1.33785E+04 -5.19618E+04 -4.77083E+04 -9.89102E+03 -6.99495E+04  2.75589E+04 -4.92433E+04
  4.34436E+04  3.61247E+03  1.45725E+04  4.92038E+04 -4.00112E+04  4.62040E+04 -7.01993E+04 -2.05814E+03
 -5.20502E+04 -5.80269E+04 -5.54030E+03 -7.78079E+04  3.13009E+04 -5.20830E+04  5.06196E+04 -2.47984E+04
  4.59745E+04  6.73281E+03  3.73706E+04  2.63914E+04  1.47075E+04  3.05585E+04 -4.44048E+03  2.15545E+04
 -1.99117E+04  1.48808E+04 -2.05715E+04 -5.37547E+03  6.22627E+03 -7.21149E+03  2.28259E+04  1.48474E+04
  3.00943E+03  3.86589E+04 -3.23668E+04  3.77010E+04 -6.46427E+04  3.02735E+03 -5.48536E+04 -4.79266E+04
 -1.43412E+04 -6.12008E+04  4.02898E+04 -4.93581E+04  6.13560E+04 -5.72708E+03  3.23939E+04  2.93546E+04
 -3.79299E+03  3.96817E+04 -3.05002E+04  1.63259E+04 -3.42300E+04 -3.61068E+03 -1.41106E+04 -6.53650E+03
 -9.78342E+03 -1.22119E+04 -1.56363E+03 -1.93879E+04  1.29669E+04 -2.04644E+04  1.26156E+04 -1.07444E+04
  1.07653E+04  8.96648E+03 -1.19621E+04  1.10125E+04 -2.35609E+04 -8.73436E+03 -9.88335E+03 -3.01852E+04
  2.15935E+04 -4.23416E+04  5.26447E+04 -1.63224E+04  4.71620E+04  2.21423E+04  1.40826E+04  4.69854E+04
 -1.48629E+04  3.34921E+04 -2.78289E+04  3.31951E+02 -1.78992E+04 -2.71796E+04  1.78333E+04 -3.75192E+04
  4.18152E+04 -6.12602E+03  3.29820E+04  2.17660E+04  1.88207E+04  5.38234E+04 -1.16614E+04  5.41625E+04
 -2.56595E+04  3.33065E+04 -4.56500E+04  9.21459E+03 -4.34817E+04 -1.70778E+04 -2.38588E+04 -3.92434E+04
  7.01147E+03 -4.14326E+04  3.20177E+04 -1.63093E+04  3.29844E+04  7.77676E+03  8.53756E+03  2.14583E+04
 -1.40104E+04  9.42390E+03 -8.57853E+03 -3.28199E+03  5.27788E+03 -1.03102E+04  1.62917E+04  4.62852E+03
  1.37045E+04  1.96323E+04 -3.69547E+03  3.07365E+04 -2.39006E+04  1.00742E+04 -2.73801E+04  3.77936E+01
 -2.30844E+04 -1.31415E+04 -1.11539E+04 -2.38048E+04 -4.67436E+02 -2.00915E+04  1.79651E+04 -1.97383E+04
  2.65832E+04 -1.51328E+04  3.30009E+04  1.45833E+03  2.54877E+04  2.48321E+04  3.22035E+03  3.15722E+04
 -2.08958E+04  3.10892E+04 -3.12417E+04  1.16705E+04 -1.95159E+04 -9.61613E+03 -6.95631E+03 -1.43528E+04
  3.22688E+03 -2.99426E+03 -8.31779E+03  9.19615E+03 -1.47810E+04  6.91032E+03 -1.29492E+04 -1.00831E+04
 -9.12184E+03 -1.61772E+04  6.80517E+03 -2.39073E+04  2.14122E+04 -1.93996E+04  1.96781E+04 -4.96596E+03
  1.24693E+04  1.36766E+04 -5.94162E+02  2.02253E+04 -1.81952E+04  1.46370E+04 -2.39738E+04 -5.10287E+03
 -1.95965E+04 -1.80663E+04 -2.91659E+03 -2.65953E+04  6.77862E+03 -1.89513E+04  1.52357E+04 -8.14997E+03
  1.12588E+04  3.44010E+03  1.23882E+04  2.05672E+03  7.69508E+03 -1.27130E+03  1.10187E+04  7.80339E+02
  2.15543E+04  6.67425E+03  2.67045E+04  1.42928E+04  1.65910E+04  3.32489E+04 -2.71081E+03  3.78838E+04
 -2.48125E+04  2.59822E+04 -3.52319E+04  2.01175E+04 -3.76323E+04 -6.60354E+03 -2.99026E+04 -2.25767E+04
 -1.30710E+04 -3.54116E+04  7.71334E+03 -2.35570E+04  1.75244E+04 -1.32058E+04  1.87257E+04  8.02444E+03
  4.29198E+03  1.52997E+04 -9.17081E+03  1.07836E+04 -1.48222E+04  1.95994E+03 -1.47501E+04 -9.47460E+03
  4.19252E+03 -1.47470E+04  1.24952E+04 -1.54944E+04  8.77030E+03  2.02130E+02 -3.71723E+03  7.17603E+03
 -6.68745E+03  4.64876E+03 -9.41287E+03 -4.93127E+03  2.24626E+03 -1.25855E+04  1.43820E+04 -1.96633E+04
  2.14754E+04 -1.11403E+04  2.80918E+04  1.36278E+03  1.96896E+04  1.47578E+04  6.06980E+03  2.58630E+04
 -6.04278E+03  3.09609E+04 -1.70916E+04  1.69899E+04 -2.05879E+04  6.29587E+03 -1.19943E+04 -6.63838E+03
 -7.02583E+03  2.85276E+02 -2.32883E+03  4.80620E+03 -5.32816E+03  1.14007E+03 -5.96610E+02 -2.27089E+03
 -9.39346E+03 -4.73077E+03 -1.17319E+04 -9.62779E+03 -6.08469E+03 -1.72303E+04  1.80312E+03 -1.68666E+04
  1.02876E+04 -2.49956E+03  7.82501E+03  2.14323E+03  2.72924E+02  2.84447E+03 -5.08111E+03  2.90654E+03
 -6.47178E+03 -1.01695E+04  1.32757E+03 -1.32642E+04  4.30665E+03 -6.76865E+03  1.42830E+04 -9.13667E+03
  2.04319E+04  3.74614E+03  1.09993E+04  6.42953E+03  6.54038E+03  7.50884E+03 -1.04410E+04  1.42837E+04
 -9.90614E+03  8.79079E+03 -6.34877E+03 -3.56471E+03  2.95788E+03 -1.36214E+03  8.28904E+03 -3.44820E+03
  2.01896E+03  5.98448E+03 -2.04305E+03  1.19588E+04 -1.14510E+04  1.13864E+04 -1.79758E+04  2.65980E+03
 -4.29623E+03 -9.77688E+03 -2.94610E+02 -8.09164E+03  7.35770E+03 -7.70047E+03  1.83963E+03 -3.98551E+02
 -9.68932E+02  1.04098E+04 -4.09133E+03  1.16731E+04 -6.81600E+03  1.21437E+03 -1.05035E+04 -2.60697E+03
 -6.98376E+03 -1.14281E+04  5.49837E+02 -1.48339E+04  9.32764E+03 -4.84144E+03  1.86655E+04  1.72953E+03
  1.38142E+04  8.13701E+03  7.15512E+02  9.81513E+03 -9.25353E+03  4.66934E+03 -5.65180E+03 -4.72926E+03
 -1.14960E+04 -5.84979E+03 -6.72567E+03 -1.12820E+04 -1.54764E+03 -4.09301E+03  1.08777E+04 -3.61043E+03
  4.51914E+02  3.02262E+02 -7.97570E+02 -1.33300E+03  9.49504E+03 -1.32434E+03  7.10653E+02 -9.31357E+03
  4.53439E+03  4.70369E+03  1.40565E+04 -3.27915E+03  1.50164E+04  9.72862E+03  1.07240E+04  1.82877E+04
 -2.17041E+03  1.78440E+04 -2.07927E+04  1.44253E+04 -1.86437E+04  4.15988E+03 -1.12247E+04 -1.05495E+04
 -5.19319E+03 -1.04762E+04 -2.27586E+03 -5.22382E+03  7.63505E+03 -2.33260E+03  2.59761E+03 -3.86836E+03
 -2.90051E+03 -6.20099E+03  3.00677E+03 -2.02906E+03  8.37467E+03  1.40873E+02  7.41047E+03 -3.96276E+03
  5.13197E+03  2.04398E+02  3.79926E+03  2.05834E+03 -4.50571E+02  1.24831E+04 -6.47951E+03  4.86948E+03
 -9.79017E+03  2.60880E+03 -7.03694E+03 -7.87980E+03 -1.72378E+03 -1.23326E+04  2.57388E+03 -9.20065E+03
  9.51676E+03 -4.91005E+03  1.21691E+04  3.22369E+03  9.89773E+03  3.83518E+03 -1.79826E+03  1.50468E+04
 -5.67307E+03  1.29609E+04 -1.66876E+03 -4.07790E+03 -5.16397E+03 -8.35112E+02  1.45373E+03 -2.47672E+02
 -3.96278E+03 -2.89634E+03  6.00709E+00  3.17187E+03 -7.86465E+03 -5.02766E+02 -8.32670E+03  7.40896E+02
 -6.32000E+03 -7.40905E+03  5.70166E+02 -1.31988E+04  9.06881E+03 -9.87348E+03  5.62701E+03 -5.60637E+03
  9.74264E+03  9.96205E+03  9.44589E+02  4.33471E+03 -5.93221E+02  1.19349E+04 -8.45495E+03  3.77512E+03
 -6.49937E+03 -3.07315E+03 -9.92522E+03 -8.58440E+03 -2.98534E+03 -2.79471E+03  4.24512E+03 -4.30500E+03
  1.17329E+03 -3.16274E+03  7.41168E+02  1.68751E+03  5.77805E+02  1.49204E+03 -1.46774E+03  5.60078E+03
 -1.99211E+03 -1.50989E+03 -7.62336E+02  1.85905E+03  2.31710E+03  2.32457E+03  4.71197E+03  6.05051E+03
 -1.90421E+03  9.78727E+03 -5.10327E+03  8.96346E+03 -6.74588E+03  4.80607E+03 -1.00069E+04 -3.22469E+03
 -1.14590E+04 -8.96061E+03  6.46405E+03 -1.29710E+04  5.83457E+03 -6.79334E+03  1.27246E+04 -9.41669E+03
 -1.11069E+03  3.55577E+03 -1.18530E+03  3.13959E+03 -8.72429E+03  3.42995E+03 -2.37712E+03 -9.48265E+02
 -1.68377E+03 -4.54173E+03  6.33593E+02 -8.76810E+03  3.46982E+03 -5.98003E+02  6.84894E+03 -5.52994E+02
 -3.70784E+03 -2.98122E+03  7.78716E+02  2.00847E+03  3.16255E+03 -2.68317E+03 -1.21088E+03 -1.44424E+03
  3.61643E+03 -4.36376E+02  4.69217E+03  3.41248E+03 -1.12457E+03  4.13705E+03 -7.69819E+02  3.94517E+03
 -3.37714E+03  7.21668E+03 -3.62488E+03  2.31649E+02 -6.13098E+03 -4.68710E+03 -3.51291E+03 -1.16471E+03
  3.79428E+03  9.91323E+02  1.90870E+03 -4.86611E+03  4.36088E+03  2.29254E+03  2.11050E+03 -1.21241E+03
 -1.21392E+04 -3.02072E+02 -1.90782E+03 -1.48896E+03 -4.09358E+03 -7.01488E+03 -9.89006E+02 -3.74814E+03
  1.01373E+04 -3.18337E+03  2.36628E+03 -1.53828E+03 -7.12415E+02  1.40781E+03 -2.03857E+03  5.45360E+03
  6.94985E+02  9.61774E+03 -3.80244E+03 -4.94497E+02  9.02024E+02 -2.61032E+03  5.95213E+03 -7.49416E+03
  6.01798E+03 -4.20035E+02  8.79873E+03  6.77428E+03  1.35254E+03  5.83287E+03 -8.75195E+02  4.73565E+03
 -8.27926E+03  5.95982E+03 -4.09220E+03 -1.84009E+03 -3.13400E+03  6.34290E+03 -1.38032E+03 -5.62598E+03
  8.01491E+03 -9.69221E+02  6.01383E+03 -2.30421E+03  3.79436E+03  3.03114E+02  2.48996E+03  9.99886E+02
  3.37307E+03 -1.63185E+03 -1.07530E+03 -7.66815E+02 -1.07799E+03  4.69319E+03  1.95118E+03  2.24151E+03
 -2.57437E+03  2.90525E+02 -2.76920E+03  2.10563E+03 -5.78634E+03 -1.20147E+03 -2.34735E+03 -2.44778E+03
 -4.45526E+03 -8.10718E+03  2.87822E+03 -1.26666E+04  3.42313E+03 -5.79670E+03  8.54785E+03 -5.00869E+02
  1.24246E+04  1.55728E+03  4.32297E+03  3.14284E+03 -3.83588E+03  3.77227E+03 -9.63277E+02  3.24445E+03
 -3.05117E+03  5.84437E+03 -2.58223E+03  1.05229E+03 -4.08475E+02  5.02144E+03 -1.47876E+03  4.85255E+02
 -1.00222E+03 -2.03074E+02 -2.00744E+03 -9.65782E+02 -2.96653E+03 -3.43671E+02 -1.87378E+03 -7.07324E+03
  2.27744E+03 -2.44864E+03  5.61904E+02  2.38357E+03  1.11497E+04  8.60556E+02  1.13364E+03  3.75322E+03
 -4.71405E+03  6.06500E+03 -3.61819E+03 -1.58706E+03 -6.80636E+03  1.97654E+03 -1.82292E+03  6.57969E+02
 -1.81881E+03 -1.32817E+04  2.35700E+03 -3.46781E+03  9.69565E+03 -5.66683E+03 -3.10958E+03  2.50350E+03
  5.11419E+03  1.94886E+03 -1.09148E+03  3.35200E+03  2.19462E+03  2.17970E+03 -7.38151E+02  4.46850E+03
  7.90460E+03 -1.85675E+03  3.90293E+03 -1.97220E+03  5.82255E+02  3.77658E+03  1.55871E+03  2.26822E+03
 -3.48299E+03  2.23941E+03 -5.05697E+03  1.94559E+03  5.30412E+02 -6.03558E+03  1.63230E+03 -3.22790E+03
  3.65918E+03 -3.73528E+03  4.27300E+03 -2.96471E+03  4.83149E+03  1.65345E+03  1.17524E+03  9.47418E+02
 -2.26466E+03  3.15773E+03  2.30362E+02  2.28455E+03 -5.89773E+03  2.29568E+03 -1.72869E+03 -1.65763E+03
 -2.71064E+03  5.49939E+03 -9.12326E+02 -1.07982E+03 -2.04143E+03  2.15496E+02 -4.72947E+03  9.10976E+02
 -6.35006E+01 -1.43443E+03 -1.64884E+03 -6.37200E+03  6.75132E+03 -1.49242E+03  3.86486E+03  2.66585E+03
  7.85973E+02  6.28170E+02 -1.28288E+03  2.08906E+02 -3.54339E+03  6.13627E+03  9.01764E+02  1.79502E+03
