 $NMID ID='MM_0lb_SNR50_7hz_g45_99.RAW', FMTDAT='(8E13.5)'
 TRAMP=1., VOLUME=1. $END
  3.18535E+05 -3.73429E+03  3.34904E+05  2.49208E+05  8.37517E+04  3.36576E+05 -1.31560E+05  2.53283E+05
 -1.91844E+05  8.65171E+04 -1.05809E+05 -4.05108E+04  1.07231E+04 -4.95206E+04  5.03136E+04 -4.83760E+03
  3.64273E+04  5.44018E+04 -1.53903E+04  8.28496E+04 -5.66660E+04  6.72600E+04 -8.99040E+04  3.09741E+04
 -8.43154E+04 -5.67525E+03 -5.66536E+04 -5.62272E+04 -1.94926E+04 -7.03239E+04  1.52854E+04 -4.93609E+04
  4.48784E+04  2.91276E+03  1.53690E+04  4.49957E+04 -3.31877E+04  3.91333E+04 -7.15788E+04  2.29588E+03
 -5.03402E+04 -5.75323E+04 -1.20406E+04 -7.16065E+04  3.73200E+04 -5.92885E+04  5.67021E+04 -1.60977E+04
  4.54263E+04  1.59176E+04  3.58070E+04  2.83193E+04  1.44985E+04  3.15044E+04  9.81055E+02  2.78045E+04
 -1.77646E+04  1.48012E+04 -1.16507E+04 -8.97226E+03  4.64271E+03 -5.34560E+03  2.69241E+04  1.18457E+04
  8.35117E+03  4.22226E+04 -3.33234E+04  4.10954E+04 -7.33006E+04  1.92363E+03 -5.95300E+04 -4.66571E+04
 -1.05463E+04 -5.75861E+04  4.11522E+04 -5.10445E+04  6.37200E+04 -2.21040E+03  3.72933E+04  3.05972E+04
 -6.38013E+03  4.48095E+04 -2.84443E+04  1.53408E+04 -2.86083E+04 -1.39709E+03 -2.12037E+04 -1.20144E+04
 -1.22426E+04 -1.87913E+04 -5.61638E+03 -1.02913E+04  6.98058E+03 -2.74508E+04  1.55357E+04 -1.92065E+04
  5.88995E+03  1.15247E+04 -4.68620E+03  1.09085E+04 -2.74884E+04 -7.55847E+03 -5.89600E+03 -4.19637E+04
  1.79754E+04 -4.81293E+04  5.52989E+04 -2.49551E+04  4.76148E+04  2.64044E+04  2.00131E+04  5.45020E+04
 -1.41904E+04  3.35165E+04 -2.81523E+04  6.09704E+03 -1.57640E+04 -2.94358E+04  2.07756E+04 -3.62179E+04
  4.45049E+04 -1.86607E+04  4.36743E+04  2.77711E+04  2.42755E+04  5.75097E+04 -1.14254E+04  6.36375E+04
 -3.37504E+04  4.01509E+04 -5.12343E+04  1.51037E+04 -4.73445E+04 -2.02774E+04 -2.70158E+04 -4.27458E+04
  1.18319E+04 -4.29929E+04  3.26878E+04 -1.60970E+04  2.89205E+04  1.40067E+04  7.76240E+03  2.18820E+04
 -1.63472E+04  1.82276E+04 -1.69660E+04  2.77276E+03  1.77634E+03 -1.03156E+04  1.85739E+04  5.62310E+03
  1.76284E+04  2.27559E+04 -7.18634E+03  2.62413E+04 -1.79792E+04  1.36100E+04 -3.52358E+04 -1.18417E+03
 -3.01577E+04 -1.37618E+04 -1.86983E+04 -2.15538E+04  4.17344E+03 -2.43817E+04  2.16764E+04 -2.84671E+04
  3.83332E+04 -1.41291E+04  4.32322E+04  6.68288E+03  2.59902E+04  2.20600E+04  7.56064E+03  4.23478E+04
 -1.72238E+04  2.64804E+04 -2.57895E+04  1.30957E+04 -2.24347E+04 -1.21668E+04 -7.76595E+02 -7.15366E+03
 -1.36247E+03 -9.00211E+03 -1.02639E+04  2.55322E+03 -2.67357E+04  8.67393E+03 -2.49601E+04 -1.06912E+04
 -1.61483E+04 -2.48275E+04  1.07761E+04 -3.04875E+04  1.28947E+04 -2.00346E+04  2.00731E+04 -1.65297E+03
  1.74646E+04  2.44842E+04 -3.58808E+03  1.93017E+04 -1.73338E+04  1.93160E+04 -2.87373E+04 -1.14674E+04
 -1.95406E+04 -2.37360E+04 -5.88582E+03 -2.88997E+04  1.22649E+04 -1.58223E+04  2.46841E+04 -1.71396E+04
  1.85947E+04 -1.75077E+03  1.60739E+04 -4.56717E+02  9.21377E+03 -5.19635E+03  7.75676E+03 -1.78903E+03
  2.03635E+04  8.67070E+03  2.87038E+04  1.77640E+04  1.77582E+04  4.51007E+04 -8.21123E+03  5.04199E+04
 -2.53427E+04  3.74935E+04 -4.46358E+04  1.88753E+04 -4.85853E+04 -4.01946E+03 -3.78860E+04 -3.36847E+04
 -1.37057E+04 -3.35342E+04  7.41197E+03 -3.10175E+04  3.09322E+04 -1.38973E+04  1.59285E+04  8.74347E+03
  1.32858E+04  2.10059E+04 -3.94341E+03  1.87655E+04 -2.72474E+04  7.34840E+03 -1.36941E+04 -9.41427E+03
 -3.84028E+03 -1.80721E+04  7.39585E+03 -1.09842E+04  1.50365E+04 -6.55955E+03  9.68536E+03  9.95647E+03
 -9.49691E+03  7.68139E+03 -8.88000E+02 -3.72171E+03 -4.43814E+03 -2.34614E+04  1.70539E+04 -2.11399E+04
  2.74817E+04 -9.42250E+03  3.12943E+04 -9.96182E+02  1.46374E+04  1.99957E+04  1.35316E+04  3.63267E+04
 -1.22363E+04  3.88908E+04 -2.05306E+04  2.53294E+04 -2.88014E+04  4.55284E+03 -1.89005E+04  2.58309E+03
 -1.17727E+04 -5.48582E+03 -1.80942E+03 -1.91937E+03  2.34793E+02  1.35903E+03 -1.11235E+04  2.36711E+03
 -2.52527E+04  2.71566E+03 -1.77813E+04 -1.79272E+04  9.28504E+02 -2.47847E+04  1.66788E+03 -1.37328E+04
  2.18925E+04 -6.61188E+03  7.68405E+03  5.72228E+03  1.27720E+03  5.23788E+03 -5.98065E+03  2.59944E+01
 -1.49386E+04 -1.25163E+04 -2.81847E+03 -1.68714E+04  2.15928E+03 -1.27098E+04  2.98616E+04 -1.06300E+04
  2.16688E+04 -2.04523E+03  2.61898E+04  1.83543E+04  1.08583E+04  1.88804E+04 -1.12385E+04  2.39631E+04
 -1.48586E+04  7.79671E+02 -6.70323E+03 -1.01153E+04  5.50868E+03 -1.11480E+04  7.45720E+03 -7.41795E+03
  1.12414E+04  1.32868E+04 -2.74560E+02  9.45127E+03 -9.99229E+03  1.97157E+04 -2.69717E+04  8.05382E+03
 -1.57700E+04 -5.39665E+03 -3.70547E+03 -1.27810E+04  4.95804E+03 -1.50710E+04  1.00755E+04 -4.04753E+03
  7.03292E+02  9.36131E+03 -1.44712E+04  1.62163E+04 -1.76946E+04  8.62081E+03 -1.86329E+04 -2.79941E+03
 -1.04969E+04 -2.80215E+04  4.78966E+03 -2.10367E+04  1.83167E+04 -6.49393E+03  1.56896E+04  5.72658E+03
  1.36730E+04  1.76850E+04 -6.64320E+02  1.11864E+04 -1.77507E+04  7.62758E+03 -1.44670E+04 -4.01808E+03
 -1.14360E+04 -1.85242E+04 -9.58884E+03 -1.21205E+04  9.42770E+03 -1.03701E+04  8.09659E+03 -6.04984E+03
  1.22953E+04  1.13601E+03  2.85353E+02 -4.46148E+03 -6.13024E+03  1.68723E+03  3.83351E+03 -1.01499E+04
  1.37599E+04  1.30546E+03  2.02369E+04  5.89392E+01  2.12673E+04  1.78295E+04  9.70912E+03  2.82457E+04
 -3.87750E+03  2.59326E+04 -1.92690E+04  1.60778E+04 -3.47630E+04  6.77967E+03 -3.18534E+04 -1.79558E+04
 -1.15263E+04 -2.15020E+04  3.27100E+03 -2.24578E+04  5.73486E+03 -2.21320E+03  1.64864E+03 -1.00987E+03
  6.35786E+03 -7.20904E+03 -1.93286E+03 -4.39205E+03  3.12506E+03 -1.11903E+04  6.40860E+03 -9.97579E+03
  1.20536E+04 -1.35570E+03  1.06040E+04  1.06929E+04 -2.10728E+03  1.22054E+04 -1.94820E+04  1.65769E+04
 -1.87311E+04 -2.76525E+03 -1.37755E+04 -1.50275E+04 -3.88120E+03 -2.33298E+04  3.50991E+03 -2.06357E+04
  2.31113E+04 -1.59755E+04  2.28840E+04  2.20030E+03  1.81311E+04  1.81218E+04 -9.10219E+02  1.99782E+04
 -1.02251E+04  2.24200E+04 -1.56662E+04  9.71440E+03 -1.57878E+03 -7.16506E+02 -5.93621E+03 -1.42228E+04
  5.27579E+03  5.68400E+02  1.06735E+03  2.31844E+01 -6.20048E+03  1.90440E+03 -7.48452E+03 -3.19376E+03
 -9.09044E+03 -1.54498E+04  6.42492E+03 -1.64243E+04  8.97771E+03 -1.60811E+04  2.04540E+04 -4.97072E+03
  2.10555E+04  1.14738E+04  1.33001E+04  1.94005E+04 -3.54775E+03  1.57167E+04 -5.75339E+03  9.64494E+03
 -1.04221E+04 -4.72692E+02 -1.29303E+04 -7.20126E+03 -7.99527E+02 -1.39337E+04  1.10950E+04 -1.12549E+04
  8.71641E+03 -3.38923E+03  3.55330E+03  1.55123E+03  1.02398E+04  7.98372E+03  4.46395E+03 -2.66951E+02
  3.58865E+03  5.69094E+02 -1.55386E+03  1.85971E+03  4.87970E+02  1.09193E+04  7.28240E+03  7.92270E+03
  1.04036E+03  1.57403E+04 -1.68066E+04  1.28153E+04 -1.81712E+04  1.80843E+03 -2.17271E+04 -1.68186E+04
 -9.12695E+03 -2.29108E+04  1.87589E+03 -1.88593E+04  1.18891E+04 -1.55763E+04  7.72390E+03 -5.60218E+03
  1.19666E+04 -4.51179E+02  4.54709E+03  1.11595E+04 -8.82060E+03  7.49140E+03 -9.66209E+03 -1.73390E+03
 -2.85411E+03 -7.62248E+03  2.57843E+03 -8.73727E+03  8.29183E+03 -8.07618E+03  6.37389E+03  8.10007E+03
  2.69084E+03  6.67196E+02 -1.00813E+03  6.87501E+03 -4.14177E+02 -1.24057E+02 -1.23897E+03  1.56453E+03
  8.44916E+03 -3.69882E+03  1.09134E+04  6.55431E+03  1.53742E+03  1.37532E+04  3.44513E+03  1.08778E+04
 -7.37649E+03  1.02317E+04 -1.28092E+04  1.81893E+03 -7.05634E+03 -2.81376E+03 -4.17330E+03 -8.94006E+03
  3.84014E+03 -4.80723E+03  5.79971E+03 -5.66223E+03  2.38069E+03  2.76549E+03  2.28076E+03  6.16970E+03
 -3.74689E+03  9.90161E+03 -5.95002E+03 -9.48248E+02  7.44558E+02 -1.01631E+04 -8.36904E+01 -1.40483E+04
 -4.54189E+03 -1.27432E+04  9.00265E+03 -5.69428E+03 -1.82797E+03 -2.71591E+03 -9.10522E+03  1.27281E+04
  1.06928E+03  5.15352E+03 -6.08948E+03 -7.21937E+03 -4.24340E+03  2.23236E+03  1.71179E+04 -7.38875E+03
  5.42815E+03  3.41999E+02  1.10263E+04  1.10165E+04  1.26778E+03  7.76889E+03 -3.53163E+03  1.23553E+04
 -1.42784E+04  6.41539E+03 -1.07702E+04 -2.92415E+03 -2.60129E+03 -5.63834E+03  2.35933E+03 -2.22045E+03
  4.15095E+03 -1.20109E+03  6.75782E+03  1.26117E+04  8.17493E+03  5.97426E+03  2.71270E+02  1.01858E+03
 -2.37174E+03  6.32665E+03 -1.49892E+03  5.33561E+03 -2.51008E+03  8.62780E+03 -1.76884E+03  4.74034E+03
 -5.77745E+03  6.20778E+03 -9.53290E+03  1.16590E+03 -1.54634E+04 -8.03772E+02 -1.14513E+04 -9.08041E+03
 -8.58320E+03 -1.98820E+04  6.62976E+03 -2.20825E+04  1.13992E+04 -1.13357E+04  2.47849E+04 -9.95924E+03
  1.63668E+04  3.84690E+03  1.24404E+04  1.89330E+04 -6.90037E+02  9.42644E+03 -7.22364E+03  1.56418E+04
  1.60104E+03  1.21428E+04 -2.06991E+03 -2.77747E+03 -2.76279E+03  3.94457E+02  2.18366E+03  3.03712E+03
 -1.09523E+04  8.93634E+02  3.82085E+02 -5.82072E+02  2.98865E+03  3.01129E+03  2.90121E+03 -6.11363E+03
  1.28616E+04 -1.18498E+04  1.52110E+04 -3.62615E+03  7.70655E+03  2.06549E+02 -9.59274E+02  1.13865E+04
 -8.32595E+03  1.29259E+04 -1.09963E+04  8.21329E+03 -1.81566E+04 -6.83094E+03 -7.17621E+03 -1.61083E+03
 -9.31264E+03 -7.44201E+03  8.04167E+03 -1.44112E+04  1.20545E+04 -1.04596E+04  1.56621E+04 -1.23435E+03
  8.58586E+03  2.48567E+03 -1.98493E+03  6.38012E+02 -7.36660E+03  5.06638E+03  1.12609E+03 -1.39152E+03
  5.52804E+03  1.98576E+02  6.41393E+03 -8.20829E+02  7.12301E+01  7.87256E+02 -4.63286E+03  9.37902E+03
 -1.29862E+04  7.64144E+03 -1.44648E+04 -4.39541E+03 -1.25333E+04 -1.01805E+04 -4.30270E+03 -1.50933E+04
  4.96809E+03 -1.50121E+04  1.41450E+04 -1.09456E+04  1.84945E+04  2.24147E+03  1.93736E+03  6.36319E+03
  2.28074E+03  1.54577E+04 -4.92005E+03  4.31956E+03 -5.55398E+03  7.77510E+03 -5.01390E+03 -4.55895E+03
 -3.79419E+03 -3.22299E+03 -2.65985E+03  2.02518E+02  7.11246E+02  2.65944E+03 -1.57051E+04 -6.73488E+03
 -1.25732E+04 -1.36456E+04  5.46957E+02 -1.39369E+04  1.03871E+04 -9.15856E+03  6.57621E+03 -3.05004E+03
  5.46136E+03 -8.57583E+02  4.34391E+03  9.47545E+03  9.72440E+02  5.99365E+03 -1.36649E+04  4.06865E+03
