 $NMID ID='MM_0lb_SNR50_19hz_g55_83.RAW', FMTDAT='(8E13.5)'
 TRAMP=1., VOLUME=1. $END
  3.04246E+05  1.86421E+02  3.41191E+05  2.51536E+05  8.52190E+04  3.38115E+05 -1.31787E+05  2.52578E+05
 -1.87867E+05  8.49147E+04 -1.10833E+05 -3.47084E+04  4.71401E+03 -5.44580E+04  5.45696E+04 -1.80857E+03
  3.39133E+04  5.56614E+04 -1.61304E+04  8.19950E+04 -6.37037E+04  6.33906E+04 -8.65277E+04  3.13650E+04
 -8.23254E+04 -1.47963E+04 -5.88825E+04 -4.95483E+04 -1.16369E+04 -6.77209E+04  2.68977E+04 -4.98197E+04
  4.01008E+04  1.60342E+03  1.58824E+04  4.98737E+04 -3.61306E+04  4.44108E+04 -6.64128E+04 -3.61810E+03
 -5.27919E+04 -5.49460E+04 -7.40140E+03 -7.49008E+04  3.45853E+04 -5.19220E+04  4.70777E+04 -1.85273E+04
  4.10206E+04  1.51499E+04  3.27739E+04  2.26125E+04  1.07645E+04  2.85883E+04 -3.39920E+03  3.12558E+04
 -2.21991E+04  1.78963E+04 -2.03617E+04 -3.24397E+03  7.38042E+03 -9.68469E+03  2.22523E+04  1.39290E+04
  6.81218E+03  3.68164E+04 -2.69314E+04  3.21898E+04 -6.26538E+04  3.77834E+03 -5.37576E+04 -4.50986E+04
 -1.17412E+04 -6.62177E+04  3.88727E+04 -4.88696E+04  5.31220E+04 -5.93347E+03  3.15250E+04  2.89534E+04
 -6.38037E+03  3.42428E+04 -3.31838E+04  1.31095E+04 -3.16930E+04 -3.91838E+03 -1.42222E+04 -8.80740E+03
 -5.01088E+03 -1.47195E+04 -1.66299E+03 -1.74866E+04  1.06098E+04 -2.44485E+04  1.43698E+04 -1.54471E+04
  1.70634E+04  5.75780E+03 -5.33732E+02  1.64016E+04 -1.73817E+04 -7.88527E+03 -1.00733E+04 -3.25064E+04
  1.97382E+04 -3.76908E+04  4.22562E+04 -1.80251E+04  4.50143E+04  1.84778E+04  1.13841E+04  3.80697E+04
 -1.20874E+04  3.10504E+04 -2.51379E+04  7.46770E+02 -7.80323E+03 -2.56621E+04  1.98889E+04 -3.01220E+04
  3.84896E+04 -5.66469E+03  3.60106E+04  2.39877E+04  1.68766E+04  4.31313E+04 -6.10822E+03  4.44740E+04
 -3.19241E+04  2.85945E+04 -4.18955E+04  7.69805E+03 -3.88132E+04 -1.75694E+04 -2.27582E+04 -3.31714E+04
  7.98386E+03 -3.23936E+04  3.16502E+04 -1.03593E+04  2.77433E+04  7.61858E+03  1.30244E+03  1.54765E+04
 -1.36105E+04  7.15818E+03 -1.01482E+04 -7.18671E+03  7.62863E+03 -9.72551E+03  1.77676E+04  8.09421E+03
  1.39959E+04  2.43647E+04 -7.45669E+03  2.32937E+04 -2.25483E+04  1.09261E+04 -2.88869E+04 -3.76964E+03
 -1.78389E+04 -1.57586E+04 -4.41711E+03 -2.03407E+04  2.05778E+03 -1.45159E+04  1.75078E+04 -1.17239E+04
  2.37731E+04 -1.37217E+04  2.63882E+04  2.04995E+03  2.10595E+04  1.65336E+04  9.94789E+02  3.51104E+04
 -1.56961E+04  2.53308E+04 -2.76289E+04  1.10942E+04 -2.12344E+04 -9.99770E+03 -8.69880E+03 -1.86642E+04
  9.92403E+02 -4.25897E+03 -7.48271E+01  2.00350E+03 -1.15297E+04  4.95994E+03 -1.30195E+04 -3.26927E+03
 -8.96387E+03 -1.88411E+04  4.48368E+03 -2.35843E+04  1.32264E+04 -1.22025E+04  1.64416E+04 -1.62242E+03
  1.09490E+04  7.07770E+03 -1.13801E+03  1.75754E+04 -1.04796E+04  8.64583E+03 -1.46055E+04 -4.89753E+03
 -9.74707E+03 -1.54614E+04 -1.95550E+03 -1.88294E+04  1.03502E+04 -1.76237E+04  1.51107E+04 -7.10440E+03
  1.68563E+04 -5.20911E+01  1.09675E+04  8.26580E+03  1.24952E+02 -3.56168E+02  8.64317E+03 -6.67776E+02
  1.45416E+04  1.60928E+03  1.57692E+04  1.31601E+04  1.00687E+04  2.48519E+04 -3.39302E+03  2.84647E+04
 -1.84743E+04  1.66407E+04 -2.22255E+04  1.11673E+04 -2.47349E+04  1.78285E+02 -2.20526E+04 -1.30159E+04
 -1.04738E+04 -2.19810E+04  7.43904E+03 -1.94648E+04  1.68613E+04 -9.06124E+03  1.37448E+04  2.19119E+03
  1.02458E+04  1.31666E+04 -8.69859E+03  1.17348E+04 -1.18497E+04  4.36385E+03 -1.05542E+04 -1.14456E+04
 -3.03400E+03 -1.47019E+04  8.13680E+03 -1.08787E+04  1.33104E+04 -4.56292E+03 -1.69972E+03  4.81307E+03
 -1.07212E+04 -1.84099E+03  1.28029E+03  1.16938E+02  9.84777E+02 -1.18642E+04  5.99348E+03 -9.59649E+03
  1.19746E+04 -7.15679E+03  1.28518E+04  4.04061E+03  6.71132E+03  1.06765E+04  4.76431E+03  1.22824E+04
 -1.53545E+03  1.71006E+04 -1.00012E+04  4.13282E+03 -1.15565E+04  4.14234E+03 -8.78451E+03 -2.94107E+03
 -4.04199E+03 -3.11947E+03 -2.76156E+03 -2.90416E+01 -1.84611E+03  4.62106E+03 -2.77831E+02  2.46285E+03
 -8.45384E+03  1.23584E+03 -8.73576E+03 -8.29750E+03 -2.83100E+03 -1.61572E+04  7.22470E+03 -7.92706E+03
  9.22447E+03 -3.34679E+03  3.15694E+03  5.27738E+03  3.21154E+03  1.08524E+03 -1.46991E+03  4.67345E+02
 -4.09520E+03 -4.83565E+03 -3.42740E+03 -1.01193E+04  6.96637E+03 -9.08442E+03  1.34841E+04 -5.16371E+03
  1.69213E+04 -6.19751E+02  9.49347E+03  5.17199E+03  3.03227E+03  1.35206E+04 -4.11037E+03  1.19374E+04
 -9.25011E+03  6.96071E+03 -4.92621E+03  3.74838E+02 -3.14371E+03 -2.46372E+03  4.30977E+03  2.20780E+03
  2.95376E+03  2.26609E+03  3.76605E+03  7.57986E+03 -2.87285E+03  7.11854E+03 -7.93412E+03  1.57866E+03
 -6.63349E+03  1.07347E+02 -2.56605E+03 -1.09202E+04  7.08381E+03 -2.78605E+03  5.38522E+03 -2.46034E+02
 -1.13666E+03 -2.19856E+00 -3.42354E+03  6.28205E+03 -5.05204E+03 -1.32005E+03 -4.06678E+03 -3.58172E+03
 -1.99457E+03 -5.30028E+03  5.59132E+03 -5.46867E+03  5.10452E+03 -7.94523E+03  4.05767E+03  2.41609E+03
  7.92333E+03  8.69065E+03  4.32702E+03  3.47552E+03 -3.16352E+03  6.26565E+03 -7.77159E+03 -2.01648E+03
 -2.21758E+03 -5.44017E+03 -3.39638E+03 -4.15322E+03  2.23925E+03 -4.78892E+03  3.04418E+03 -2.15044E+03
  6.31796E+03 -1.42827E+01  1.97052E+03  1.16319E+03  2.05126E+03  6.60230E+01 -4.10768E+02 -4.34264E+03
  3.44817E+03 -2.46760E+03  3.39803E+03 -2.73327E+03  5.49871E+03  1.50343E+03  6.03859E+03  6.70022E+03
 -4.77886E+03  8.52347E+03 -8.85603E+03  2.64047E+03 -6.01232E+03  8.17391E+03 -8.26840E+03 -1.72605E+03
 -2.39742E+03 -5.03967E+03 -1.60324E+03 -7.05275E+03  2.55482E+03 -1.66582E+03  4.00385E+03 -2.22948E+03
 -3.50324E+03 -3.86438E+03  2.28208E+03 -4.58398E+03  4.61865E+03 -1.66217E+03  4.28881E+03 -5.66678E+02
  7.35021E+03  5.59995E+02 -1.92938E+03  5.62938E+03  1.05191E+03  3.43502E+03 -3.80206E+03  5.80463E+03
 -9.95236E+03  2.10798E+03 -3.44851E+03 -6.11597E+01  3.17992E+02 -1.51331E+03 -1.32462E+01 -8.01376E+03
  2.33318E+03 -1.42315E+03  1.32036E+04  7.80244E+02  9.69160E+02  5.53866E+03  1.96876E+02  5.68272E+03
  1.45807E+02  8.85558E+03 -4.95665E+03 -1.45611E+03 -2.81603E+03 -8.16427E+02 -1.95861E+03  5.36311E+03
  2.89323E+03 -8.94086E+02 -1.13401E+02  7.55936E+03 -3.70770E+03 -1.10485E+03 -5.99122E+03  2.65493E+02
 -2.86516E+03 -2.85345E+03  2.51495E+03 -5.01173E+03  6.24027E+03 -3.18672E+03  3.40851E+02  2.41066E+03
  6.25382E+03  6.68931E+02  1.96201E+03  1.98164E+03  2.02692E+02  3.04788E+03 -5.72465E+03  6.54209E+03
 -4.83673E+03  2.58347E+03  1.01089E+03 -4.37852E+03  8.41280E+02 -4.65025E+03 -1.22073E+03 -3.43106E+03
 -9.56894E+02  3.39221E+02  1.81944E+03  1.35185E+03  1.57563E+03  2.62296E+03 -1.77855E+03 -1.85442E+03
 -1.51715E+03  2.39180E+02 -9.18406E+00 -6.95933E+02 -1.02572E+03  1.49797E+03 -4.66405E+02  6.93630E+02
 -1.51088E+03  3.65251E+03  3.00745E+02  1.02707E+03 -2.53154E+03  2.32927E+03 -2.97724E+03  2.22595E+02
 -1.67030E+03 -1.68077E+02 -5.81853E+02  1.72392E+03  4.88995E+03 -3.26588E+03  5.98974E+03 -2.82722E+02
  5.40750E+03 -1.60646E+02 -1.54666E+03 -4.70272E+02  4.09804E+03  5.02599E+03  1.76811E+03 -4.69901E+03
 -1.97033E+02 -2.88136E+03  8.79984E+02 -2.87191E+03  1.43202E+03 -1.25317E+03  5.85569E+02  1.66547E+03
  3.89728E+03  3.64016E+03  5.81369E+02  2.58182E+03  2.72960E+03 -2.59940E+02  4.15163E+03 -5.13383E+01
 -3.13301E+03 -3.09222E+02  1.19459E+03  2.33145E+03 -6.10498E+03  8.49853E+02 -2.73272E+02  2.97137E+03
 -1.88042E+03  2.39203E+03 -5.28711E+03  3.94173E+02  1.28551E+03 -1.67822E+03 -1.11792E+03 -3.73336E+03
 -3.10306E+03 -1.66714E+03  7.56008E+02 -1.30920E+03  1.33444E+02  1.03132E+03  2.79466E+03 -1.23746E+03
  1.42814E+03  3.24831E+03 -2.02844E+03 -6.47579E+03  3.81095E+03 -2.44305E+03  9.87955E+02  5.27229E+01
  1.15001E+03 -2.34732E+03 -3.46589E+03  1.39377E+03  3.57791E+03 -1.32790E+03  3.05336E+03  2.95850E+03
  4.01599E+03  1.47167E+03 -3.29230E+03  4.61770E+03  2.72038E+03 -2.37307E+03  3.80328E+03 -1.59153E+03
 -1.28058E+03  1.69684E+03  3.45772E+03 -2.02617E+03  8.63067E+02  3.51706E+02 -2.96342E+02 -7.97990E+02
  3.87673E+03 -1.96967E+03  1.63534E+03 -2.03949E+03  1.58920E+03 -2.18281E+03 -2.24959E+03  1.80495E+03
  3.22134E+03 -4.13823E+02 -2.38848E+03  1.75921E+03  6.36338E+02  4.47300E+03 -9.90285E+02  2.46775E+03
 -4.15371E+03 -1.66647E+03 -2.15503E+03  2.12157E+03 -1.98361E+02  1.50443E+03  1.61918E+03  2.04274E+03
  6.79918E+02  1.00748E+03 -4.41717E+03  4.03080E+03 -3.94271E+03 -4.77189E+02 -3.31958E+02 -8.03266E+03
  1.58427E+03 -4.36098E+03  1.67743E+03 -2.12684E+03 -2.07084E+02 -6.00147E+03  3.79546E+03  1.95338E+02
  1.41314E+03 -2.63649E+03 -2.11084E+03  2.59707E+03  1.07545E+03 -9.86447E+02 -1.17113E+03 -2.95210E+03
  3.19205E+03  2.14515E+03 -8.16765E+02 -3.55611E+02  2.23570E+03  3.58751E+03 -7.14134E+01 -5.86835E+03
 -3.48780E+03  6.40092E+02 -1.05132E+03 -2.31375E+03  3.12211E+03  8.20694E+02  4.24313E+02  2.06051E+01
 -2.89730E+02  2.03378E+03  3.26757E+03 -1.09007E+03  3.40623E+03  1.41240E+03 -6.05046E+03  3.44691E+03
  2.48443E+03  4.42461E+03 -1.27945E+03  8.02935E+03 -4.04551E+03 -2.66116E+03 -2.97663E+03 -2.20905E+03
  9.45878E+02  2.27217E+01  3.19396E+03  8.61867E+02 -1.39656E+03 -1.52906E+03  3.97449E+02  1.38141E+03
 -1.64756E+03 -2.93054E+03 -2.15625E+02 -2.83261E+02  4.16436E+03 -9.53695E+02  1.75546E+03  2.54680E+03
 -4.54203E+03  1.19709E+03 -6.22955E+02  3.54675E+02  1.31541E+03 -1.86084E+03 -1.25417E+03 -2.53279E+03
 -2.05818E+03  5.32146E+02  1.69799E+02  2.13223E+03 -1.32806E+03  2.13186E+03 -2.20195E+03 -1.49089E+03
  1.31753E+03 -2.59399E+03 -1.75953E+03 -3.09747E+03 -3.45882E+02 -2.59427E+02  6.07170E+03 -3.55991E+03
  1.05383E+03  9.19254E+02  8.60646E+02 -3.97926E+03 -2.47403E+03  2.83642E+03 -1.88891E+03 -1.17810E+03
 -3.73463E+02 -4.05676E+01  3.34749E+03 -4.20271E+02  2.25801E+03 -5.44807E+03  6.71984E+02 -1.28293E+03
 -3.87503E+03 -2.92916E+03 -2.45096E+02  3.46424E+02  3.61132E+03  2.13029E+03  3.74318E+03 -8.72462E+02
  6.78428E+03 -1.26641E+03 -4.71583E+03  1.11455E+02 -1.13533E+03 -1.10703E+03 -2.78359E+03  1.09736E+03
