 $NMID ID='MM_0lb_SNR50_12hz_g50_86.RAW', FMTDAT='(8E13.5)'
 TRAMP=1., VOLUME=1. $END
  3.17433E+05  2.43998E+03  3.40388E+05  2.49012E+05  8.34995E+04  3.38151E+05 -1.32143E+05  2.46695E+05
 -1.92653E+05  8.87490E+04 -1.15776E+05 -3.15369E+04  4.05090E+03 -5.15892E+04  5.54902E+04  1.92154E+03
  3.53710E+04  5.30111E+04 -1.44018E+04  7.60020E+04 -6.35510E+04  6.74125E+04 -8.05424E+04  3.31885E+04
 -8.30297E+04 -9.90106E+03 -6.03379E+04 -4.93903E+04 -1.14894E+04 -7.66496E+04  3.11270E+04 -4.63754E+04
  3.68935E+04  4.24244E+03  1.84410E+04  4.75805E+04 -3.65891E+04  4.61384E+04 -6.85491E+04 -1.44725E+03
 -5.51722E+04 -5.43860E+04 -2.67678E+03 -7.72650E+04  3.74858E+04 -5.59950E+04  5.39824E+04 -1.58354E+04
  4.74891E+04  1.27830E+04  3.03818E+04  2.41582E+04  1.44339E+04  3.10436E+04 -2.57207E+03  2.60473E+04
 -2.22223E+04  1.56422E+04 -1.75811E+04 -6.49895E+03  7.43859E+03 -6.18474E+03  2.62119E+04  1.30387E+04
  1.11626E+04  3.09192E+04 -2.82297E+04  3.80060E+04 -6.36720E+04  7.29099E+02 -5.04236E+04 -4.57287E+04
 -1.62774E+04 -6.78150E+04  4.29348E+04 -5.09233E+04  5.78077E+04  5.75048E+02  3.64352E+04  2.92657E+04
 -8.44731E+03  3.63998E+04 -2.76343E+04  1.93061E+04 -3.05530E+04 -2.81049E+03 -1.61913E+04 -4.26629E+03
 -6.08952E+03 -1.23899E+04  1.00746E+03 -2.23439E+04  7.55325E+03 -2.43463E+04  1.70021E+04 -1.78291E+04
  1.07155E+04  8.57836E+03 -7.81340E+03  8.47980E+03 -2.99170E+04 -7.10190E+03 -9.66795E+03 -3.83164E+04
  1.64469E+04 -5.12553E+04  4.99479E+04 -1.70937E+04  5.06286E+04  1.90636E+04  1.74513E+04  4.55626E+04
 -1.48838E+04  3.43266E+04 -2.89955E+04  2.22263E+03 -1.06770E+04 -2.64392E+04  1.70305E+04 -3.43141E+04
  4.10929E+04 -6.58478E+03  3.86843E+04  2.69729E+04  2.23637E+04  4.57248E+04 -3.20861E+03  5.06209E+04
 -3.76575E+04  3.29622E+04 -4.22808E+04  9.73528E+03 -4.27042E+04 -1.57444E+04 -2.08007E+04 -4.09976E+04
  9.32846E+03 -4.31129E+04  3.21677E+04 -1.15150E+04  2.72564E+04  9.60807E+03  7.34190E+03  2.41488E+04
 -1.41516E+04  1.18475E+04 -1.23810E+04 -6.88504E+03  9.90816E+03 -8.66311E+03  2.17610E+04  2.67427E+03
  1.26979E+04  2.06031E+04 -5.82394E+03  2.54667E+04 -2.24139E+04  1.33858E+04 -4.07421E+04 -2.65444E+03
 -2.18831E+04 -1.82648E+04 -6.51712E+03 -2.31291E+04  8.15503E+03 -2.17140E+04  1.77765E+04 -2.81191E+04
  2.93299E+04 -1.50508E+04  3.40409E+04  4.89568E+03  2.56088E+04  2.07442E+04  5.33725E+03  4.06767E+04
 -1.29210E+04  3.17159E+04 -2.92976E+04  1.17042E+04 -2.14813E+04 -1.32134E+04 -8.31990E+03 -1.40002E+04
  1.54710E+03 -7.58722E+02 -1.11712E+03  3.81992E+03 -1.85331E+04  3.14685E+03 -1.63152E+04 -5.59339E+03
 -1.40332E+04 -1.84523E+04  4.98292E+03 -2.59242E+04  1.59838E+04 -1.64524E+04  2.03208E+04  4.36270E+03
  1.15360E+04  1.09523E+04  6.56683E+02  1.42527E+04 -2.09026E+04  1.08383E+04 -2.24282E+04 -6.18657E+03
 -1.32548E+04 -1.64556E+04 -1.50753E+03 -2.20591E+04  1.12911E+04 -2.15074E+04  1.90052E+04 -1.46200E+04
  1.60612E+04 -4.18091E+02  1.15502E+04  5.29387E+03  3.95390E+03 -4.12565E+02  1.68836E+04 -8.36921E+03
  2.04888E+04 -7.46813E+02  2.31096E+04  1.63369E+04  1.02993E+04  3.76109E+04 -4.75529E+03  4.34973E+04
 -1.76836E+04  3.46792E+04 -3.41285E+04  2.11122E+04 -3.83599E+04 -4.72300E+03 -2.65880E+04 -2.35406E+04
 -1.30109E+04 -3.04039E+04  9.88843E+03 -3.35239E+04  2.60051E+04 -1.79742E+04  2.09664E+04 -1.19543E+01
  1.61272E+03  1.76922E+04 -9.91015E+03  1.75071E+04 -1.44537E+04  3.20749E+03 -8.23128E+03 -8.70111E+03
 -1.81466E+03 -1.86747E+04  8.52277E+03 -1.45974E+04  8.86574E+03 -1.30330E+03 -6.19084E+02  5.34450E+03
 -4.36235E+03  2.10629E+03 -6.98556E+03 -6.96451E+03  1.08260E+03 -1.37032E+04  1.18243E+04 -1.67560E+04
  1.64830E+04 -5.91886E+03  2.53614E+04  4.33374E+03  1.45338E+04  1.64678E+04  8.26449E+03  2.65924E+04
 -6.94750E+03  2.82270E+04 -2.26397E+04  1.89892E+04 -1.57516E+04  9.52888E+02 -1.22300E+04 -1.07842E+04
 -3.07330E+03 -3.18605E+03 -6.72254E+02 -4.80585E+03 -1.64028E+02 -1.46208E+03 -3.42685E+03  5.07140E+03
 -1.59916E+04  3.87739E+03 -1.26090E+04 -9.73156E+03 -4.97614E+03 -1.41469E+04  1.61790E+02 -1.36852E+04
  9.28027E+03 -5.06435E+03  1.02853E+04  6.61598E+03  2.45471E+03  1.79301E+03 -8.90379E+03 -2.28335E+03
 -8.42549E+03 -7.39667E+03 -2.71435E+03 -1.62629E+04  6.92762E+03 -1.15869E+04  1.69818E+04 -6.09399E+03
  2.47729E+04  2.92651E+03  1.76616E+04  1.77169E+04  4.39984E+03  1.57418E+04 -6.13931E+03  5.12902E+03
 -2.35779E+03  1.97152E+03 -2.26953E+03  1.14054E+03  1.90476E+03 -5.00409E+03  4.67506E+03 -1.28472E+03
  9.68182E+03  8.27575E+03 -2.98173E+03  1.25245E+04 -7.42362E+03  8.17106E+03 -1.42815E+04  5.67623E+03
 -8.32568E+03 -1.17283E+04 -4.44689E+03 -1.10755E+04  3.89234E+03 -6.85021E+03  8.69983E+03 -2.15869E+02
  1.44159E+03  3.29014E+03 -3.91568E+03  1.02830E+04 -7.15567E+03  7.22609E+03 -1.03713E+04 -2.12389E+03
 -5.45126E+03 -3.32894E+03  7.45918E+03 -1.46296E+04  1.29486E+04 -7.14978E+03  1.27690E+04 -4.40465E+03
  9.60241E+03  1.34465E+04  3.41310E+03  1.08238E+04 -8.66397E+03  4.40450E+03 -1.12891E+04 -1.94328E+03
 -1.29011E+04 -8.69186E+03  9.09193E+02 -1.02144E+04  4.54065E+03 -3.46891E+03  4.39840E+03 -7.85498E+03
  1.23864E+04  1.30364E+03  4.58775E+03 -3.05911E+02  1.71269E+03  2.77058E+03  4.66305E+03 -1.47587E+04
  6.11310E+03 -2.76327E+03  1.06888E+04  1.36568E+02  5.65040E+03  4.33041E+03  7.52227E+03  1.62376E+04
 -5.58275E+03  1.43689E+04 -1.90706E+04  1.20481E+04 -2.09227E+04  4.14951E+03 -1.12829E+04 -4.89087E+03
 -8.87103E+03 -1.19465E+04  2.16632E+03 -7.96451E+03  2.18325E+03 -3.97359E+03  5.29560E+03 -4.42187E+03
 -2.63959E+03 -3.02652E+03 -2.10389E+03 -2.88604E+03  6.40106E+03 -3.35844E+03  1.28970E+04 -2.13475E+03
  7.80678E+03 -1.61309E+03  8.06874E+03  3.19456E+03  3.10028E+03  8.28132E+03 -8.38827E+03  7.38455E+03
 -9.86057E+03  1.52067E+03 -7.98931E+03 -5.71955E+03 -4.67146E+03 -1.04752E+04  9.54664E+03 -1.19723E+04
  1.41484E+04 -1.03480E+04  1.16780E+04 -1.19620E+03  1.57637E+04  1.13882E+04  2.98930E+03  1.29395E+04
 -7.02510E+03  1.70724E+04 -5.58629E+03 -5.46848E+01 -5.41714E+03 -3.70714E+03  2.63248E+03 -6.71938E+02
 -1.84754E+03  4.78701E+03 -5.36673E+03  2.71689E+02 -5.39017E+03  2.43727E+03 -1.40442E+04  9.61737E+02
 -2.94179E+03 -7.21581E+03  1.99778E+03 -1.31173E+04  5.42847E+03 -6.98310E+03  7.17089E+03 -3.81134E+03
  8.24302E+03  2.64024E+03  2.26684E+03  2.64949E+03 -7.93992E+02  9.89691E+03 -4.89519E+03  8.14520E+03
 -5.18296E+03  6.77481E+03 -5.88582E+03 -3.81727E+03  2.23789E+03 -6.99671E+03  1.76998E+03 -7.49406E+03
  4.90954E+03  1.35739E+03  4.87667E+03  3.08362E+03 -3.28400E+02  6.84072E+03  3.32027E+03  1.68936E+03
  9.95674E+03 -1.65737E+03  2.01963E+03 -4.46109E+02 -2.41983E+03  5.37833E+03  1.23448E+03  6.39635E+03
 -9.93024E+02  6.16901E+03  2.29525E+03  2.74707E+03 -1.09739E+04  9.88382E+02 -1.26592E+04 -5.34624E+03
 -5.10706E+03 -9.11229E+03 -3.53112E+03 -8.73226E+03  9.90969E+03 -9.66518E+03  1.10673E+04 -6.92368E+03
  4.33504E+03  5.20824E+03  9.85408E+03  6.28799E+03  2.94297E+03  1.58494E+02 -7.90172E+03 -1.72896E+03
 -3.23191E+03 -2.03212E+03 -4.87046E+01 -5.89388E+03  3.96396E+03 -8.75831E+03  7.56716E+03 -1.37647E+03
  3.10343E+03  3.71539E+03  3.63625E+03  8.56487E+03 -9.60229E+02 -1.64809E+03  1.55545E+03  3.28892E+03
 -1.39324E+02  2.98028E+02  2.73323E+03 -2.58407E+03 -1.63576E+03  7.28795E+03 -4.61819E+03  1.03289E+04
 -3.96869E+03  1.91678E+03 -4.55725E+03  5.25698E+03 -3.76321E+03 -5.46457E+03 -1.08203E+02 -7.92120E+03
  7.32667E+02 -5.95896E+03  6.96451E+03 -2.68281E+03 -1.56373E+03  8.56154E+03  4.31054E+03  2.43905E+03
 -5.83789E+03  2.37027E+03 -2.91991E+03 -4.24059E+03  1.45758E+03 -5.99463E+03 -1.96164E+03 -1.76903E+03
  2.38006E+03 -8.79621E+03  1.08379E+04  5.81517E+02  4.49435E+03 -4.62373E+03  2.14393E+03 -2.42424E+02
 -3.33962E+03 -4.23340E+03 -2.39655E+03 -3.94567E+02  4.64908E+03 -3.38483E+03  6.57637E+03 -6.58749E+03
  4.50718E+03 -3.93519E+03  6.23527E+03  7.41573E+03  6.95938E+02  6.55910E+03 -4.44011E+03  4.73986E+03
 -7.35794E+03 -3.65242E+02 -8.47431E+03  3.91297E+02 -1.13090E+03 -4.17042E+03  4.15004E+02 -8.11627E+03
  1.03962E+03 -2.92053E+03  1.53128E+03  1.72470E+03  1.69009E+03  2.16107E+03 -1.27894E+03  4.33358E+03
 -1.38991E+03 -3.83959E+02  2.26082E+03 -1.75456E+03 -3.46533E+02  2.88013E+03 -1.27885E+03  4.59897E+03
 -5.85352E+03  4.34670E+03 -6.57262E+03 -1.24996E+03 -1.21073E+04  1.50062E+03 -1.03691E+04  3.54753E+02
 -4.61129E+03 -8.64828E+03  3.75272E+03 -1.16973E+04  5.97769E+03 -5.74152E+03  1.16290E+04 -5.08093E+03
  8.61473E+03  2.46283E+03  1.85067E+03  1.36133E+04  2.21921E+03  8.45474E+03 -4.41635E+03  5.79514E+03
 -4.15735E+03 -2.50139E+03  1.63440E+03 -3.76714E+03 -1.90115E+03  9.09251E+02 -5.20292E+03 -1.46557E+03
  2.83995E+02 -1.30314E+03  1.96517E+03  2.14127E+03 -3.13789E+03  4.99521E+03  2.90264E+03  3.87420E+02
 -1.27518E+02 -5.86620E+03  4.85082E+03 -1.15004E+03  3.39269E+03  2.32642E+03  3.78023E+03  5.25941E+03
 -4.56886E+03  9.43122E+03 -1.88391E+03  8.21757E+03 -5.07689E+03  4.13134E+02 -4.27350E+03  1.81002E+02
 -4.19007E+03 -8.02155E+03  4.34434E+03 -6.45016E+03  5.00091E+03 -2.47244E+03  1.14805E+04 -1.22119E+03
 -1.75170E+03  2.02887E+03 -6.80468E+02 -7.60273E+02  9.97981E+02  1.87069E+03 -2.09085E+02 -1.14989E+03
  2.39516E+03 -5.22466E+02  2.67599E+03 -1.26948E+03  3.68946E+03  2.71758E+03  1.05095E+03  4.46679E+03
 -2.74246E+03  2.52696E+03 -3.59721E+03  4.53645E+03 -4.10892E+03  3.05541E+03 -9.27364E+02 -3.31903E+03
  4.58959E+03 -1.79900E+01  5.52282E+03 -1.58136E+03  7.19527E+03  4.72595E+02  1.96240E+02  4.21929E+03
  5.12844E+03 -4.81585E+02 -3.68471E+03 -1.52751E+02  5.91806E+02 -2.00982E+02  3.06259E+03 -2.26723E+03
 -3.98451E+03 -8.50060E+03 -2.64731E+03  1.12318E+03 -3.57345E+03 -1.07014E+03 -3.42474E+03  1.26434E+03
  1.64786E+03 -3.92650E+03  3.34604E+03 -4.50834E+03  6.35385E+02 -9.49583E+03  1.22953E+03 -1.06826E+03
  3.22683E+03 -9.39488E+02 -1.41725E+03  4.48037E+03 -5.75537E+02  1.45739E+03  2.35975E+03  6.68904E+03
