 $NMID ID='MM_0lb_SNR50_18hz_g60_46.RAW', FMTDAT='(8E13.5)'
 TRAMP=1., VOLUME=1. $END
  3.08145E+05 -9.64298E+02  3.34327E+05  2.51942E+05  8.77732E+04  3.43641E+05 -1.31150E+05  2.51077E+05
 -1.87296E+05  8.30839E+04 -1.14195E+05 -3.48899E+04  2.55215E+03 -5.06814E+04  5.69143E+04 -1.50780E+02
  3.69795E+04  5.03082E+04 -1.84124E+04  7.67802E+04 -5.25028E+04  6.65288E+04 -8.23118E+04  3.22268E+04
 -7.54304E+04 -1.01174E+04 -5.89416E+04 -4.93238E+04 -1.46645E+04 -6.96697E+04  2.50684E+04 -4.17459E+04
  3.63226E+04  5.57379E+03  1.52091E+04  4.51200E+04 -3.59838E+04  4.93890E+04 -6.46608E+04 -4.47483E+01
 -4.96443E+04 -5.78380E+04 -6.73263E+03 -8.05854E+04  3.47425E+04 -5.29027E+04  4.61412E+04 -2.00884E+04
  4.33395E+04  6.14884E+03  3.22641E+04  2.64966E+04  1.21431E+04  2.62494E+04 -5.67227E+03  2.74892E+04
 -2.18279E+04  1.28980E+04 -1.84935E+04 -6.88167E+03  8.70256E+03 -9.93722E+03  2.36856E+04  1.40550E+04
  9.26610E+03  3.60543E+04 -3.17730E+04  3.70303E+04 -6.10370E+04  2.87393E+03 -5.25690E+04 -4.20903E+04
 -1.05506E+04 -6.09337E+04  4.13843E+04 -4.64518E+04  6.56909E+04 -7.14590E+03  3.52408E+04  3.20520E+04
 -7.66784E+03  3.44229E+04 -3.01649E+04  1.44471E+04 -2.92861E+04 -6.00868E+03 -1.40261E+04 -1.26321E+04
 -9.85509E+03 -1.10296E+04 -3.10448E+03 -1.58586E+04  7.47493E+03 -2.44151E+04  1.46055E+04 -1.35287E+04
  9.42857E+03  5.25298E+03 -2.91311E+03  1.52341E+04 -2.14648E+04 -4.94020E+02 -4.80736E+03 -3.16836E+04
  2.15563E+04 -4.08283E+04  4.50313E+04 -1.89754E+04  4.44094E+04  2.06548E+04  1.54031E+04  4.36668E+04
 -1.44963E+04  3.54744E+04 -2.30843E+04  1.67902E+03 -1.14949E+04 -2.63330E+04  2.13260E+04 -3.08179E+04
  4.48377E+04 -9.98868E+03  3.20575E+04  2.31361E+04  1.74901E+04  4.44387E+04 -8.02013E+03  5.02921E+04
 -3.46050E+04  3.14962E+04 -3.99021E+04  1.22192E+04 -4.05965E+04 -1.13850E+04 -2.37469E+04 -3.44853E+04
  4.87606E+03 -3.57634E+04  2.59989E+04 -7.92699E+03  2.40006E+04  1.38949E+04  1.91925E+03  1.49786E+04
 -1.17442E+04  9.00966E+03 -7.36098E+03 -6.78870E+03 -1.34746E+03 -9.55991E+03  1.70487E+04  4.29023E+03
  1.63900E+04  2.07547E+04 -7.34822E+03  2.72160E+04 -2.25417E+04  8.37946E+03 -2.60649E+04 -8.45123E+03
 -2.32404E+04 -1.67753E+04 -5.31695E+03 -2.15454E+04  4.16896E+03 -1.96503E+04  1.52494E+04 -1.56458E+04
  2.01575E+04 -1.61937E+04  3.04882E+04 -3.14605E+03  2.35971E+04  1.88316E+04  4.68117E+03  3.52543E+04
 -1.98336E+04  2.73381E+04 -2.87509E+04  8.43832E+03 -2.46582E+04 -1.31946E+04 -3.79449E+03 -1.14308E+04
  2.84278E+03 -2.19526E+03 -3.96925E+03  3.76669E+03 -1.58905E+04  5.24708E+03 -1.67838E+04 -4.57403E+03
 -1.09465E+04 -1.99458E+04  8.15534E+03 -2.44273E+04  1.16316E+04 -1.46695E+04  1.71012E+04 -4.75404E+03
  1.56800E+04  1.10710E+04 -1.83471E+03  2.01129E+04 -1.01980E+04  7.00972E+03 -1.71916E+04 -4.00242E+03
 -1.29220E+04 -1.52875E+04 -2.15576E+03 -2.08746E+04  1.10496E+04 -1.47112E+04  1.73482E+04 -8.23266E+03
  1.53112E+04  7.26778E+02  1.17986E+04  3.65391E+03  6.12256E+03  3.45994E+03  4.29502E+03 -1.70709E+03
  1.49448E+04  7.02219E+02  1.77827E+04  1.64496E+04  7.77332E+03  2.36938E+04 -2.76941E+03  2.72771E+04
 -1.75042E+04  3.03649E+04 -2.72063E+04  1.03273E+04 -2.69533E+04 -4.20571E+03 -2.26784E+04 -1.54228E+04
 -1.08345E+04 -2.26374E+04  7.41690E+03 -1.90631E+04  2.14629E+04 -1.17867E+04  1.90943E+04  3.89403E+03
  4.96103E+03  1.38440E+04 -1.31926E+04  7.95947E+03 -1.49706E+04 -7.82034E+02 -1.02429E+04 -1.05128E+04
 -1.02104E+03 -1.46780E+04  1.17776E+04 -9.89366E+03  6.49510E+03 -5.63218E+03  2.46632E+03  7.48230E+03
 -6.75380E+03  6.15423E+03 -6.29125E+02 -4.74781E+03  7.58505E+02 -8.53110E+03  1.07678E+04 -8.00312E+03
  1.53405E+04 -1.08122E+04  1.21172E+04  2.60849E+03  1.06719E+04  1.08759E+04  6.85696E+03  1.61661E+04
 -1.31950E+03  2.22366E+04 -1.25732E+04  1.62171E+04 -1.63790E+04 -8.25280E+01 -5.51187E+03 -1.15698E+03
 -3.10011E+03 -1.24864E+03 -2.41261E+03  2.38752E+03 -4.27138E+03  3.65789E+03 -2.10971E+03  1.77577E+03
 -6.90670E+03  1.66600E+03 -9.11341E+03 -6.34173E+03 -5.22978E+03 -1.13663E+04  7.81136E+03 -6.32342E+03
  7.26453E+03 -5.16313E+03  6.62872E+03  4.58355E+03  3.01233E+03  2.56273E+03 -7.51921E+03 -1.99966E+02
 -2.53983E+03 -6.88827E+03 -2.72400E+03 -1.13041E+04  5.57827E+03 -9.77074E+03  1.31973E+04 -2.54807E+03
  9.65124E+03  5.83499E+03  6.17225E+03  6.11682E+03  4.41839E+03  7.85255E+03 -7.05361E+03  8.99706E+03
 -7.38011E+03  4.30621E+03 -7.43156E+03 -3.16359E+03 -1.02307E+03 -2.88132E+03  9.40228E+03  3.91643E+03
  5.91711E+03  5.11362E+03 -2.81223E+02  5.71068E+03 -6.63485E+03  4.91599E+03 -1.00617E+04 -4.69012E+01
 -8.79282E+03 -4.09312E+02 -2.08673E+02 -9.09022E+03  6.06335E+03 -9.00770E+03  2.18135E+03  7.45451E+02
  9.40909E+02 -8.43365E+02 -4.66194E+03  5.27353E+03 -5.76701E+03  2.79616E+03 -2.97289E+03 -1.11120E+03
 -2.35424E+03 -5.56017E+03  5.58269E+03 -8.95126E+03  1.33078E+04 -4.80409E+03  4.22222E+03  3.78970E+03
  9.83417E+03  8.31944E+03  2.45836E+03  6.14883E+03 -8.22250E+03  2.31632E+03 -1.07736E+04 -1.75856E+03
 -8.29168E+03 -8.19788E+03 -6.59028E+02 -6.26965E+03 -5.68267E+02 -4.74657E+03  3.63846E+03  4.28712E+02
  1.06054E+03  1.92143E+03 -1.40246E+03  7.26767E+03 -3.92021E+03 -5.47616E+02  2.25015E+03 -4.95351E+03
  8.16168E+03  5.10094E+02  1.20161E+04  2.86173E+03  5.16581E+03  3.75848E+03  1.50482E+03  1.04222E+04
 -2.70461E+02  6.15366E+03 -1.08355E+04  7.96975E+03 -1.33761E+04  1.80631E+03 -1.29301E+04 -3.78956E+03
 -2.34296E+03 -4.46893E+03 -6.16765E+02 -6.25425E+03  6.34830E+03 -2.40471E+03  1.52942E+03 -9.01233E+02
  2.00792E+03 -2.52152E+03  7.42287E+02 -4.71150E+03  9.86655E+03 -2.36055E+03  1.74441E+03  1.62322E+03
  4.21654E+03  1.90299E+03  2.83886E+03  3.85858E+03  2.03838E+03  4.19676E+03 -7.35816E+03  2.14524E+03
 -4.69827E+03  1.47568E+03  1.17785E+03 -5.11476E+03 -6.41761E+00 -5.78534E+03  5.45875E+03 -5.63833E+03
  9.84058E+03 -5.16501E+03  1.10141E+04  4.60446E+01  6.13676E+03  1.70854E+03 -3.69394E+03  8.45820E+03
 -7.47878E+02  7.42277E+03 -1.68188E+03  2.96851E+03 -2.99787E+03 -1.22933E+03 -1.56795E+03 -2.62857E+03
 -2.83912E+02  1.78727E+03 -7.12173E+03 -4.21606E+03 -3.82812E+03  3.79795E+03 -3.82926E+03 -2.15464E+03
 -1.89802E+03 -4.24468E+03  2.13275E+03 -8.04840E+03  3.34800E+03 -3.24386E+03  6.45751E+03 -3.58333E+02
  3.48642E+03  6.18955E+03  2.45888E+03  1.67945E+03 -3.94234E+03  9.19829E+03 -9.06974E+02  4.34792E+03
 -3.45457E+03  7.79793E+03 -8.08118E+03 -4.99073E+03 -3.00152E+03 -2.51494E+03  5.60921E+03 -4.73342E+03
  3.51273E+03  1.34873E+03  4.34899E+03  1.09982E+03  1.67173E+03  3.96476E+03  1.04531E+03 -1.84275E+03
  1.86322E+02  1.87284E+03 -2.26619E+03  3.00361E+03  6.78474E+03  2.08116E+03  2.22564E+03  3.31862E+03
 -6.00450E+02  3.23929E+03 -5.10176E+03  1.03248E+03 -5.83283E+03  2.07119E+03 -4.29133E+03  1.62190E+02
 -1.33773E+03 -1.53401E+03 -2.20844E+03 -3.86127E+03  3.54258E+03  5.88401E+01  4.87311E+03 -3.14954E+03
  1.97939E+03  3.30220E+02  1.84246E+03  4.85460E+03  1.57268E+03  1.51106E+03  1.98590E+03 -1.03653E+03
 -1.11663E+03  6.80878E+02  1.90713E+03 -1.77767E+03 -7.42239E+02  9.52186E+02 -1.48115E+02  2.29890E+03
  8.07422E+02 -9.96126E+02 -2.61514E+03  4.42662E+03 -6.24098E+02  8.39628E+02  1.03923E+03  2.76578E+03
  6.81358E+00  3.12768E+03 -3.46393E+02  2.04128E+03  2.28722E+03  2.27392E+03 -2.17853E+02  4.16003E+03
 -2.81731E+02  4.87732E+03 -1.97211E+03 -2.95997E+03 -1.97287E+03  3.35060E+03  1.80413E+03  4.48532E+03
  4.66887E+03 -2.60397E+03  4.24469E+02  2.05425E+03 -2.15325E+03  1.71898E+03 -2.77021E+03  5.03905E+01
 -2.84648E+03 -1.79371E+03  1.77738E+03  4.04944E+03  2.62002E+03  3.72063E+01 -1.38053E+03 -9.06181E+02
  2.17210E+03 -2.45242E+03 -1.27482E+03 -2.09487E+02  3.36409E+03  1.64742E+03  2.21802E+03  2.16729E+03
  3.40773E+03 -3.26565E+03  2.89204E+03  7.11381E+02 -3.58224E+03 -6.62016E+02  3.65326E+03  1.10314E+03
 -6.68051E+02 -1.47823E+03  2.99509E+03  5.40457E+03 -6.51891E+02  2.99629E+03  3.80549E+02  3.23825E+02
 -2.10363E+03 -1.03382E+03 -2.38294E+03 -1.08456E+03  1.23297E+03 -6.66580E+02 -2.94662E+03 -2.44811E+03
  8.22186E+02  2.65943E+03 -1.63213E+03 -4.22598E+02 -1.51687E+03  5.43726E+03  2.31527E+03 -8.70378E+02
 -7.43917E+02 -1.59105E+03 -1.15052E+03 -1.24783E+03  2.66885E+03  3.15406E+03  1.08459E+03  2.07047E+03
 -4.56616E+03  7.98220E+03 -7.17870E+02  3.34838E+03 -1.84097E+03 -7.12299E+02 -4.20929E+03 -3.43573E+03
 -1.05831E+03 -3.60982E+03 -2.63609E+03 -3.31977E+03  4.78152E+02  1.86392E+03  3.04494E+03  1.32383E+03
 -1.17076E+03 -1.07323E+03  2.73181E+03  5.22208E+01  2.38007E+03  1.16875E+03 -2.56916E+03  8.23660E+02
 -7.00150E+01 -1.07788E+03  2.81251E+03  4.09475E+03  1.50039E+03  1.06105E+03 -1.42146E+02  4.02154E+03
 -3.93957E+03  2.98146E+03  3.11588E+03  4.37984E+02  2.09400E+03  1.88593E+03  1.45691E+03 -1.30475E+03
  3.35815E+03 -7.32016E+02 -4.15925E+03  6.79877E+02 -5.84634E+02  2.74474E+03 -9.01333E+01  4.61136E+03
 -2.64557E+03  1.31522E+03  1.21033E+03  2.65994E+03 -2.15324E+03 -4.33479E+03  2.08623E+03  1.29893E+03
 -1.52973E+03  2.89372E+03 -1.44643E+03 -5.14021E+03  4.11574E+03  9.45594E+02 -4.51879E+03  3.72091E+03
 -1.04893E+03  1.69674E+03  3.80932E+02  4.93194E+02 -1.37353E+03 -2.67529E+03 -3.75245E+03  2.85740E+03
  1.53397E+03  4.07617E+03  1.29274E+02 -4.01173E+03 -4.41310E+02 -3.35664E+02 -1.71952E+03  7.31274E+02
 -4.02459E+03 -1.42153E+03 -5.14165E+03  2.83060E+03 -2.25501E+03  2.71045E+03 -8.17555E+02 -5.94174E+03
  8.57316E+02 -7.27661E+02  1.27195E+03  1.31830E+02 -6.31504E+02 -3.63116E+03 -5.52090E+03 -1.26719E+03
  3.52620E+03  2.32825E+03 -1.72609E+03  1.45279E+03 -2.43533E+03  6.98078E+02 -9.27212E+02  2.68604E+03
  3.09053E+02  4.30489E+02  8.60032E+02 -9.36036E+02  7.86451E+02 -1.28476E+03  2.40049E+03  2.74485E+02
 -4.02319E+03 -8.68643E+02  4.25165E+02 -4.46268E+03  1.16398E+03  1.94461E+03  4.80738E+03  1.38840E+03
  2.82230E+02  3.52538E+02  2.53192E+02 -1.99851E+03  2.75611E+03 -2.26553E+03 -8.20850E+02  1.85169E+03
