 $NMID ID='MM_0lb_SNR50_18hz_g50_99.RAW', FMTDAT='(8E13.5)'
 TRAMP=1., VOLUME=1. $END
  3.08783E+05  1.36372E+03  3.39204E+05  2.47655E+05  8.55111E+04  3.35494E+05 -1.32286E+05  2.44088E+05
 -1.93012E+05  8.37196E+04 -1.05449E+05 -2.98854E+04 -2.63297E+03 -4.92274E+04  5.25687E+04 -6.29852E+02
  3.27404E+04  5.13577E+04 -1.46609E+04  7.18599E+04 -6.30876E+04  5.86199E+04 -8.29707E+04  2.98705E+04
 -7.76451E+04 -8.50482E+03 -5.09730E+04 -4.94535E+04 -1.59631E+04 -6.85225E+04  3.03713E+04 -4.51192E+04
  3.77936E+04  4.74150E+03  1.43123E+04  4.72115E+04 -3.25624E+04  4.57151E+04 -6.94893E+04  1.11431E+03
 -5.13923E+04 -5.51364E+04 -3.21731E+03 -7.88883E+04  3.28629E+04 -4.56454E+04  4.74940E+04 -1.47515E+04
  4.20519E+04  9.47237E+03  3.17156E+04  2.17380E+04  1.38912E+04  3.16053E+04 -5.04878E+03  2.34803E+04
 -2.09166E+04  1.03398E+04 -2.11804E+04 -6.98809E+03  3.44455E+03 -1.06331E+04  2.64606E+04  8.41688E+03
  6.92527E+03  3.74608E+04 -3.13461E+04  3.68653E+04 -5.43755E+04  2.69095E+03 -5.85003E+04 -4.64514E+04
 -1.05446E+04 -6.20477E+04  3.50470E+04 -4.17568E+04  5.39418E+04  1.84571E+03  3.11483E+04  2.99582E+04
 -4.69136E+03  3.73420E+04 -3.27522E+04  1.44995E+04 -2.46373E+04 -5.05661E+03 -1.75090E+04 -1.26951E+04
 -8.90840E+03 -9.59103E+03 -1.50807E+03 -1.82741E+04  6.85417E+03 -2.19110E+04  1.16557E+04 -1.31373E+04
  1.39393E+04  3.92543E+03 -9.69168E+02  1.07740E+04 -1.75076E+04 -7.61511E+03 -5.13005E+03 -3.29058E+04
  1.74681E+04 -3.98038E+04  4.94989E+04 -1.91756E+04  3.97042E+04  1.56321E+04  1.39080E+04  4.29308E+04
 -1.65412E+04  3.37983E+04 -2.44580E+04  1.51621E+03 -8.32581E+03 -2.74254E+04  2.04886E+04 -3.17018E+04
  4.33030E+04 -7.39575E+03  3.02428E+04  1.90405E+04  1.27081E+04  4.49455E+04 -7.89404E+03  4.77321E+04
 -3.17005E+04  3.16779E+04 -4.16690E+04  9.88485E+03 -4.00860E+04 -1.44644E+04 -2.33640E+04 -3.49973E+04
  8.62666E+03 -3.19757E+04  2.52700E+04 -1.44631E+04  2.88410E+04  7.72074E+03  1.53451E+03  1.96821E+04
 -9.25066E+03  1.04467E+04 -9.01360E+03 -7.96239E+03  1.57221E+03 -1.41520E+04  1.66917E+04  5.36240E+03
  1.26500E+04  2.39190E+04 -9.74998E+03  2.30970E+04 -2.06595E+04  9.43013E+03 -2.65305E+04 -9.29874E+03
 -1.75284E+04 -1.71987E+04 -9.82962E+03 -1.62744E+04  1.29699E+03 -1.44425E+04  1.36830E+04 -1.46014E+04
  2.11693E+04 -9.10167E+03  2.56635E+04  1.39656E+03  1.71715E+04  1.78417E+04 -8.69329E+02  3.53144E+04
 -1.68666E+04  2.71757E+04 -2.29695E+04  1.12348E+04 -2.49839E+04 -1.18216E+04 -2.41883E+03 -1.32415E+04
  4.76555E+03 -8.62148E+03  8.60116E+01  7.02263E+03 -1.38770E+04  9.53784E+03 -1.47463E+04 -3.90263E+03
 -6.74586E+03 -1.64350E+04  3.15292E+03 -1.79851E+04  1.32172E+04 -1.04810E+04  1.62263E+04  1.65732E+03
  8.63686E+03  1.05903E+04 -5.11208E+01  1.76115E+04 -1.21822E+04  6.54113E+03 -1.67077E+04 -5.15666E+03
 -1.53432E+04 -1.09337E+04 -3.74362E+03 -1.60703E+04  1.00706E+04 -1.28886E+04  1.71851E+04 -3.34177E+03
  1.62071E+04 -5.58408E+02  1.35159E+04  7.72771E+02  5.53524E+03  6.68427E+02  6.90743E+03 -3.09192E+03
  1.93404E+04 -1.93685E+00  1.63695E+04  1.28214E+04  1.07915E+04  2.48148E+04 -2.06402E+03  2.64471E+04
 -1.75704E+04  2.58028E+04 -2.99575E+04  1.33423E+04 -2.89871E+04 -3.03485E+02 -2.33735E+04 -1.28325E+04
 -6.40888E+03 -2.36618E+04  8.06838E+03 -2.06387E+04  1.94051E+04 -1.38695E+04  1.75870E+04  1.32653E+03
  9.94436E+03  1.19403E+04 -4.47032E+03  9.38104E+03 -1.25417E+04  9.60046E+02 -5.64476E+03 -9.61643E+03
 -8.81459E+02 -1.63930E+04  8.08993E+03 -9.96245E+03  7.96701E+03 -3.07515E+03  1.19576E+03  2.15774E+03
 -3.24833E+02  2.55768E+03 -4.30074E+03 -6.50211E+03 -3.68753E+02 -1.17689E+04  9.90678E+03 -1.48995E+04
  1.35928E+04 -4.55834E+03  1.34866E+04  4.44539E+03  1.33451E+04  1.21297E+04  2.39848E+03  1.99258E+04
 -2.85827E+03  1.64655E+04 -5.70534E+03  1.55400E+04 -1.51870E+04  3.00522E+03 -1.37859E+04  1.23028E+02
 -5.11623E+03 -4.23707E+01 -3.08890E+03  6.33226E+03 -1.17436E+03  3.87113E+03 -6.80801E+03  1.93355E+03
 -8.15211E+03 -8.38030E+02 -1.17012E+04 -7.17634E+03 -1.31193E+03 -1.04570E+04  6.13921E+03 -8.12171E+03
  1.01505E+04 -4.75126E+03  6.01010E+03  3.88109E+03  3.06848E+03  2.43981E+03 -5.37945E+03  7.28431E+03
 -2.13250E+03 -5.54464E+03 -1.42876E+03 -6.88254E+03  1.48063E+03 -3.42077E+03  6.17392E+03 -3.74376E+03
  1.42363E+04  2.33595E+03  7.52273E+03  6.43311E+03  3.94700E+03  1.22025E+04 -5.07583E+03  6.17682E+03
 -6.93278E+03  3.89211E+03 -1.88008E+03 -2.55740E+03 -1.22503E+03 -2.34194E+03  3.24656E+03 -3.69224E+03
  1.89843E+03  4.73410E+03  3.55326E+02  1.24786E+04 -4.92883E+03  8.19276E+03 -5.21907E+03  1.63675E+03
 -3.69510E+03 -9.58200E+03  4.01233E+02 -4.82125E+03  4.29784E+03 -3.92917E+03  3.38906E+03  2.02027E+03
  2.89877E+03 -1.26401E+03 -8.53956E+03  3.09198E+03 -4.32856E+03  1.89351E+03 -2.79361E+03  9.53459E+02
 -5.18797E+03 -9.31926E+03  1.21874E+03 -9.38450E+03  5.54586E+03 -4.70218E+03  6.56868E+03  5.07490E+02
  7.40844E+03  6.94033E+03  7.58019E+02  6.27122E+03 -7.23668E+03  1.92679E+03 -4.13208E+03  1.38810E+03
 -6.11734E+03 -1.97251E+03  7.32612E+01 -3.54527E+03  2.54510E+03 -6.48672E+03  4.58724E+03 -4.26192E+03
 -5.80976E+02 -8.13980E+02  6.94289E+03  3.27560E+02 -4.16942E+02  2.35951E+03 -3.04165E+03 -5.23742E+03
  4.23281E+03  3.31639E+03  6.91920E+03  3.27483E+03  6.53824E+03  2.88955E+03 -1.79230E+02  6.97135E+03
 -1.15049E+03  7.89948E+03 -1.02791E+04  5.60943E+03 -9.39833E+03  4.96318E+03 -7.49434E+03 -2.59916E+03
 -5.62661E+03 -8.53421E+03  2.26476E+03 -4.95842E+03 -1.06526E+03 -2.14839E+03 -4.97738E+02 -5.35975E+03
  2.02522E+03  1.11412E+03  1.19628E+03 -3.62041E+03  5.20594E+03 -5.55792E+02  2.73055E+03 -1.18177E+03
  6.46056E+03  4.12653E+03  2.55250E+03  3.53848E+03 -4.48075E+02  2.75380E+03 -5.34719E+03  2.54806E+03
 -9.43259E+03 -2.88322E+02 -5.47638E+02  9.36965E+02  2.72742E+03  1.79907E+03 -2.53998E+03 -8.57107E+03
  5.99496E+03 -5.41688E+03  1.17224E+04  2.40948E+03  3.21262E+03  7.27342E+03  1.17589E+03  8.89354E+03
 -3.30053E+03  6.77335E+03 -5.25056E+03  3.88753E+03 -2.00184E+03 -1.49549E+03  1.67186E+03 -4.62694E+02
 -8.61870E+02  3.34704E+03  1.73974E+03  4.48987E+02 -4.07790E+03  6.60571E+03 -3.15246E+03  1.70763E+03
  5.75135E+02 -3.81607E+03  2.86531E+03 -3.90762E+03  4.22688E+03 -6.04995E+03  5.32194E+03 -6.50073E+03
  5.14943E+02  1.69021E+03  6.85884E+03  2.93813E+03  1.05942E+03  4.23230E+03 -1.27718E+03 -3.34526E+02
  1.47840E+03  2.93966E+03 -3.24921E+02  2.45776E+03 -3.93686E+01 -4.08503E+03  2.81476E+03 -5.86176E+03
  6.12196E+03 -2.86935E+03 -6.60399E+01  8.90588E+02  3.29873E+02  4.20862E+03  1.60588E+03 -3.20619E+02
  7.26587E+03  1.42494E+03  5.35504E+02  2.98933E+03 -2.48075E+03  2.72746E+03  4.74886E+01  1.10686E+03
 -3.28714E+03  4.98244E+03 -4.79803E+03  2.09006E+02 -3.75570E+03 -1.00399E+02 -6.22486E+03 -8.98242E+02
  7.82219E+02 -3.95996E+03 -8.04016E+02 -3.91867E+03  5.52885E+03 -3.54969E+03  3.98358E+03 -2.13643E+03
  4.74597E+03 -1.14840E+03  1.79091E+03  5.09473E+03 -3.35162E+03  3.35480E+03  1.81603E+03 -2.92328E+03
 -4.71636E+02 -4.56924E+01  1.01877E+03 -6.02094E+03  7.35656E+02 -1.77569E+03  2.01191E+03  6.52222E+02
 -2.02206E+03 -1.62290E+03  3.45666E+03 -1.34416E+03 -3.91925E+03 -3.06770E+03  6.20035E+03 -4.18950E+03
  2.33113E+03  3.01766E+03  3.75342E+03  2.82148E+03 -4.94865E+02  5.92149E+03  3.85202E+02  6.09928E+03
 -3.98169E+03  2.37438E+03 -3.86166E+03  1.91017E+03 -1.99441E+03 -4.65457E+03  2.13512E+03 -7.18037E+02
  3.15211E+03 -1.35903E+03  2.43998E+03  4.78929E+02  1.01485E+02  4.74742E+03 -1.92118E+02  3.45058E+02
 -5.00647E+03  1.12491E+03 -5.85330E+02  1.10483E+03 -1.06686E+03 -3.79757E+02  4.70149E+03 -1.64859E+03
 -5.40734E+02 -2.52769E+03 -5.14101E+03  3.63657E+03  5.18218E+03  5.96475E+03  1.02250E+03 -1.54991E+03
  3.73699E+03  7.99544E+02 -3.93593E+03 -9.98943E+01 -9.77407E+02 -2.85103E+03 -2.29034E+03  1.88286E+03
  1.24196E+02  5.43504E+02  1.82531E+03  9.04980E+02  4.45080E+03  4.40345E+03  5.86617E+02  3.53247E+03
 -5.39571E+03  2.31762E+03 -2.81026E+03 -2.02016E+03  1.57933E+03 -1.97655E+03 -1.29251E+03 -2.93567E+03
  2.52547E+03  6.40423E+02  3.07306E+03 -1.94977E+03  1.03786E+03  2.30366E+03  6.04114E+02  4.29755E+03
 -2.33027E+03  2.27995E+03  3.52436E+03  1.44486E+02  3.87504E+03 -1.82244E+03 -1.33174E+03 -6.08002E+01
 -2.43378E+02 -6.77490E+02 -1.81826E+03 -7.55269E+02 -3.16378E+03  4.73409E+03  5.31189E+02 -4.30798E+02
 -2.32038E+03 -1.24353E+03 -1.76383E+03 -3.02767E+03  6.28819E+03 -1.20288E+03  1.26074E+03 -5.30903E+03
  8.45239E+02  1.44573E+03  3.81221E+02  2.86510E+03 -9.33704E+02  1.80634E+03  6.18369E+02  8.48547E+01
  2.04961E+02 -2.29757E+02  6.22905E+02  2.62942E+03 -2.49811E+03 -2.30610E+03  1.04103E+03 -2.30594E+03
 -3.22532E+03 -4.32540E+02  3.20474E+03 -5.61368E+02  5.59994E+02 -3.44174E+03  1.94523E+02  6.31687E+01
  2.73521E+03 -2.13982E+03  4.92716E+02  1.60373E+03 -5.16217E+03  2.05062E+03  2.13889E+02  2.15521E+03
  9.42561E+02  1.01066E+03 -1.75115E+03  5.69239E+02 -6.42200E+02 -2.08754E+03 -1.02891E+03 -2.97260E+02
  2.90801E+02 -1.74734E+03 -3.16252E+03 -1.73460E+03 -3.68240E+03 -1.49707E+03 -8.80699E+02 -3.39112E+03
 -1.13695E+03 -1.16196E+03 -3.66013E+03  3.02013E+03 -1.31804E+03  2.51696E+03 -1.67525E+03  3.26546E+03
 -5.48473E+02 -3.04733E+02  4.19570E+03  1.04917E+03 -2.14696E+03  2.81952E+03  1.79925E+03 -1.28648E+03
  2.57793E+03 -2.94332E+03 -1.03468E+03  3.48594E+03  1.78195E+03 -4.10184E+03  2.30687E+03 -1.02481E+03
 -1.42181E+03 -3.04332E+03 -3.99669E+02  4.78294E+03  1.04466E+02  2.77748E+03 -2.11323E+03 -2.60707E+03
  2.70690E+03  2.19423E+03 -1.62699E+03  1.34524E+03 -3.35953E+03 -4.00050E+03 -6.95063E+02  2.52999E+03
 -1.09956E+03 -3.25891E+03  4.13094E+02 -1.59351E+03 -3.81294E+03  2.90600E+03 -3.44604E+03 -1.32499E+03
 -1.22988E+03  1.47001E+03  1.25584E+02 -3.67644E+03  1.19391E+03  4.40812E+02  5.15842E+03 -2.98220E+03
  3.01293E+03 -5.47806E+02 -6.03454E+03  2.98648E+03  1.87553E+03 -1.31126E+03  3.90754E+03  2.66709E+03
