 $NMID ID='MM_0lb_SNR50_19hz_g55_53.RAW', FMTDAT='(8E13.5)'
 TRAMP=1., VOLUME=1. $END
  3.09530E+05  1.82216E+02  3.38135E+05  2.47056E+05  8.02716E+04  3.36014E+05 -1.28227E+05  2.50758E+05
 -1.89432E+05  8.55381E+04 -1.13445E+05 -3.14853E+04  1.16824E+02 -5.79709E+04  4.99595E+04 -1.92666E+03
  3.40564E+04  5.47656E+04 -1.77317E+04  7.35209E+04 -5.82894E+04  6.35335E+04 -8.48744E+04  3.36651E+04
 -8.01763E+04 -1.14815E+04 -5.88317E+04 -4.89816E+04 -1.99444E+04 -7.19407E+04  2.46961E+04 -4.76720E+04
  3.60646E+04  2.89365E+03  1.30135E+04  4.46785E+04 -3.60987E+04  4.55606E+04 -6.59433E+04 -1.37576E+03
 -5.07874E+04 -5.65977E+04 -7.73481E+03 -7.23933E+04  3.18401E+04 -5.20953E+04  4.63129E+04 -1.34375E+04
  4.51491E+04  1.09865E+04  3.63797E+04  2.69729E+04  1.72089E+04  3.24758E+04 -5.05117E+03  2.86801E+04
 -2.14397E+04  1.01052E+04 -2.27800E+04 -3.10654E+03  4.52682E+03 -8.09872E+03  2.03405E+04  7.56223E+03
  9.07662E+03  3.28262E+04 -3.44592E+04  3.17079E+04 -5.88854E+04 -3.53616E+03 -5.74598E+04 -3.82941E+04
 -1.62378E+04 -5.99279E+04  3.64066E+04 -4.64805E+04  5.90819E+04 -1.57715E+03  3.41140E+04  2.92770E+04
 -3.79743E+03  3.30899E+04 -2.93259E+04  1.09840E+04 -2.92417E+04 -5.35527E+03 -1.25962E+04 -1.63106E+04
 -3.84396E+03 -1.15476E+04 -1.56737E+03 -1.52854E+04  6.67896E+03 -2.08672E+04  1.98930E+04 -1.56803E+04
  1.10431E+04  6.83758E+03 -8.42809E+03  1.23561E+04 -2.04944E+04 -5.68251E+03 -1.06973E+04 -3.58191E+04
  2.11215E+04 -4.12476E+04  4.62224E+04 -1.83353E+04  3.95604E+04  1.76508E+04  1.61496E+04  4.45445E+04
 -1.56230E+04  3.07520E+04 -1.99481E+04  2.17197E+03 -7.24085E+03 -2.77140E+04  2.21677E+04 -3.22686E+04
  3.74382E+04 -1.00937E+04  3.33461E+04  2.63814E+04  1.29192E+04  3.65950E+04 -1.00533E+04  4.82947E+04
 -2.89292E+04  3.25145E+04 -3.76624E+04  7.29750E+03 -3.95097E+04 -1.66231E+04 -1.94650E+04 -3.40241E+04
  7.10872E+03 -3.71718E+04  3.67977E+04 -1.64149E+04  2.74222E+04  1.07638E+04  4.04919E+03  1.65679E+04
 -1.26699E+04  5.55301E+03 -8.37936E+03 -7.07868E+03  4.52005E+03 -1.27225E+04  1.96640E+04  1.10936E+04
  1.08671E+04  2.26149E+04 -7.93274E+03  2.64397E+04 -2.58541E+04  8.49218E+03 -2.67927E+04 -6.31805E+03
 -1.82937E+04 -1.50660E+04 -9.49377E+03 -2.14574E+04  2.32997E+03 -1.77485E+04  1.37399E+04 -1.61484E+04
  2.15634E+04 -1.03206E+04  2.37922E+04  4.50702E+03  1.98238E+04  1.72110E+04  6.68006E+03  2.90109E+04
 -1.67584E+04  2.92713E+04 -2.28866E+04  1.53505E+04 -1.94312E+04 -1.14463E+04 -6.80237E+03 -1.45044E+04
  4.43715E+02 -3.69968E+03 -4.16652E+03  4.05874E+03 -1.58328E+04  5.94991E+03 -1.59154E+04 -5.96842E+03
 -1.04975E+04 -1.39637E+04  4.59307E+03 -1.72895E+04  1.26557E+04 -1.55700E+04  1.41881E+04 -1.40911E+03
  9.57989E+03  8.94816E+03 -7.45659E+02  1.93551E+04 -1.43347E+04  7.40756E+03 -1.36140E+04 -5.97121E+03
 -9.55715E+03 -1.28943E+04 -2.77799E+03 -1.68392E+04  1.00275E+04 -1.30649E+04  1.52392E+04 -1.37740E+04
  1.37348E+04 -1.23707E+03  1.22078E+04  1.81789E+03  5.90707E+03 -1.45025E+03  9.23114E+03  8.65827E+01
  1.33175E+04  8.28908E+02  1.74845E+04  1.60578E+04  7.14415E+03  2.04349E+04 -4.87109E+03  2.53357E+04
 -1.75744E+04  1.90535E+04 -2.31916E+04  1.26787E+04 -2.99680E+04 -2.73600E+03 -2.39229E+04 -1.58579E+04
 -1.34551E+04 -2.05633E+04  6.72590E+03 -2.30956E+04  1.41842E+04 -7.49833E+03  1.37639E+04  3.42441E+03
  4.35255E+03  1.17839E+04 -5.55111E+03  1.20296E+04 -1.49851E+04  2.74503E+03 -7.75908E+03 -6.91397E+03
  8.16506E+02 -1.21734E+04  4.08070E+03 -9.45846E+03  9.80978E+03 -7.06872E+02 -6.94037E+02  8.93823E+03
 -6.33145E+03 -2.35409E+03 -6.71269E+03 -6.61428E+03  3.71151E+03 -9.30338E+03  1.05135E+04 -9.12166E+03
  9.25904E+03 -8.53466E+02  9.07970E+03 -7.32799E+02  1.04076E+04  7.73548E+03  6.10245E+03  1.77834E+04
  1.73982E+02  1.58229E+04 -1.13777E+04  6.81575E+03 -1.00001E+04  5.25075E+03 -1.02893E+04 -2.01460E+03
 -6.16416E+03 -4.45531E+03 -3.70868E+03  4.22406E+02 -4.60651E+03  9.94753E+02 -3.12793E+01  2.27563E+02
 -1.03067E+04  1.25671E+03 -6.85603E+03 -5.31632E+03 -4.61651E+03 -1.07491E+04  1.54421E+03 -7.70591E+03
  8.52573E+03 -2.90832E+03  5.71084E+03  2.51366E+03  2.15433E+03  3.75809E+03 -3.79274E+03 -6.43980E+03
  6.38964E+02 -6.13569E+03  2.87106E+02 -9.93346E+03  3.99608E+03 -9.83300E+03  1.36410E+04 -4.12467E+03
  1.43156E+04  1.93592E+03  7.19402E+03  3.91323E+03  1.75699E+03  7.01070E+03 -5.82448E+03  8.75654E+03
 -6.65766E+03  3.54200E+03 -1.40805E+03 -4.01396E+03 -5.16465E+02 -1.89927E+03  2.19425E+03 -1.28221E+03
  8.38617E+03  6.77072E+03  4.65024E+03  8.85178E+03 -4.05643E+02  7.87634E+03 -6.07210E+03 -2.41051E+03
 -2.70559E+03 -2.20005E+03 -7.13490E+02 -6.98315E+03  7.89720E+03 -8.31815E+03  5.35081E+03  3.47489E+03
  4.39569E+02  1.12842E+03 -4.37092E+03  2.29890E+03 -6.61486E+03  1.05545E+03 -7.49096E+03 -2.77100E+03
  9.38489E+02 -6.48292E+03  2.34298E+03 -8.18164E+03  4.34146E+03 -3.88340E+03  4.42935E+03  7.58604E+02
  2.63478E+03  5.87192E+03  1.51214E+03  8.74997E+03 -5.41002E+03  2.74298E+03 -4.70409E+03  1.88682E+03
 -5.23224E+02 -5.24048E+03 -4.29644E+03 -6.52942E+03  3.24540E+03 -4.71300E+03  5.07881E+03 -2.18059E+03
  5.62701E+03  8.02050E+02 -3.09123E+03  2.90580E+03 -5.56846E+02  2.18128E+03 -6.08027E+02  3.08338E+03
  3.94519E+03 -2.75211E+02  6.83378E+03  4.82408E+03  6.06844E+03  3.03771E+03  7.30291E+03  7.29276E+03
 -3.80073E+02  7.00363E+03 -9.71453E+03  7.27815E+03 -1.17247E+04  3.48606E+03 -4.71490E+03 -5.12427E+03
  4.26130E+02 -1.01878E+04 -1.17629E+03 -4.41482E+03 -1.85814E+03  1.19777E+03  4.59356E+03  5.75425E+01
  1.14175E+03 -4.74558E+02 -5.10016E+02  1.69858E+03  6.08220E+03  1.20134E+03  9.25135E+02 -8.78930E+02
  6.32711E+03  1.34741E+03  5.13656E+02  4.19251E+03 -2.64471E+03  1.80710E+03 -1.73521E+02  4.08063E+03
 -6.36332E+03 -3.54547E+03  3.83036E+02 -4.09752E+03 -2.61832E+02 -8.29800E+03  3.84048E+03  1.76051E+03
  5.36546E+03 -4.05023E+03  9.07173E+03  3.72220E+03  5.64743E+03  5.22838E+03  3.90492E+03  2.56780E+03
 -3.20584E+03  2.48328E+03 -3.54559E+03  3.77618E+03  8.70563E+02  6.54071E+00  4.84136E+03 -1.88146E+03
  1.38409E+03  1.87457E+03 -9.54591E+02  3.14343E+03 -6.65232E+03  5.99736E+03 -1.24514E+03  4.17251E+03
 -3.26492E+02 -6.81016E+03 -1.21889E+03 -4.64216E+03  4.42703E+03 -2.31088E+03  5.82830E+03 -5.13896E+03
  3.85693E+03  5.69304E+03  6.42480E+02  4.42714E+03 -3.59559E+03  3.57374E+03 -9.50711E+02 -3.25634E+02
 -3.26329E+03  3.71385E+03 -1.57941E+03 -2.31957E+03  2.94957E+03 -6.64569E+03  1.02865E+03 -1.05964E+03
  1.76315E+03  2.44446E+03  1.55342E+03  1.44231E+03  2.33777E+03  1.54897E+03  5.73763E+03 -6.62188E+03
  3.04915E+02 -3.16271E+03 -1.29797E+02 -2.41412E+03  2.66753E+03  7.86280E+02  1.79339E+03  4.14020E+03
  2.43573E+03  4.34760E+03 -2.33058E+03  5.62741E+03 -3.63624E+03 -6.56311E+02 -4.51886E+03  5.63860E+02
 -5.87492E+03 -3.24375E+03  3.10186E+03 -4.13658E+03  2.36404E+03 -2.30074E+03  2.21252E+03  1.82819E+03
 -2.40090E+03  3.80580E+02  1.83866E+02  1.71076E+03 -2.81401E+03  1.67629E+03 -2.10093E+03  2.34106E+03
  1.37158E+03 -5.84661E+02 -2.71081E+02 -2.32091E+03  2.07344E+03  4.10831E+03  5.79714E+03 -1.02067E+03
  2.17286E+03  5.53137E+03  1.65408E+03 -1.48643E+03 -5.89053E+03  2.18544E+03 -3.29029E+02 -1.19398E+03
 -4.01603E+02 -1.47140E+03  1.09676E+03  2.15106E+03 -2.54577E+02  1.08891E+03 -4.77364E+03  4.43296E+03
 -6.51522E+03  3.39985E+03 -4.45376E+02 -1.28738E+03 -2.43962E+03 -2.59039E+03 -2.20763E+03 -7.07861E+02
  2.02732E+03 -3.27289E+03 -1.57204E+03 -1.10232E+03  5.45101E+02  2.57817E+03  1.70809E+03 -1.45438E+03
 -4.35742E+03 -2.36084E+03 -1.67756E+03  1.37267E+03  1.04724E+02  3.77095E+02 -2.73865E+03  8.27286E+02
 -2.64946E+03  9.49272E+02  2.27820E+03 -9.03975E+02 -9.96408E+02  1.35528E+03 -2.45122E+03  1.20563E+03
  1.20395E+03 -3.81152E+03  2.41099E+03 -3.91271E+03  4.50366E+01  6.21173E+01  7.01446E+02 -3.83225E+03
  2.47118E+03 -1.91100E+03  5.92603E+02 -2.19360E+03  2.87492E+02  3.06424E+03  1.30685E+03  5.08539E+02
 -4.24864E+03  6.42746E+02 -3.19334E+02  2.41421E+03 -4.49824E+02  2.73787E+03  7.00345E+02 -1.17778E+03
 -2.70823E+02  1.61697E+03 -7.13718E+02  1.17707E+03 -2.37545E+03  2.92378E+02 -9.24644E+02 -1.70821E+03
  7.87538E+02  2.61732E+03 -2.11161E+03  1.49134E+03 -5.87689E+03  2.29529E+03 -1.51276E+03  3.63257E+03
 -3.86372E+02  2.34622E+03 -6.48548E+02  3.83563E+03 -2.12137E+03  2.47488E+03 -2.43072E+03 -1.21804E+03
 -1.41775E+01 -6.84680E+02 -1.26158E+03 -2.97777E+03 -3.31624E+02 -4.33740E+03  5.41871E+03  3.99307E+02
  3.27735E+03  2.62345E+03 -7.44987E+01  1.97542E+03  5.21908E+02  5.81309E+02 -3.58134E+03  3.79279E+03
  2.71150E+03  1.41618E+03 -2.81220E+03 -5.42494E+03 -6.46652E+02  3.64395E+02  4.28123E+03  1.22732E+03
  3.23383E+01 -8.02861E+02 -2.44207E+03 -1.68070E+03 -1.98302E+02 -4.85094E+03  3.63846E+03 -2.07479E+03
  1.74632E+03 -3.88173E+03  8.13015E+02 -1.22152E+02  2.21983E+03  1.13290E+03 -1.11819E+01  1.13129E+03
  2.50652E+03  9.30345E+02 -2.23657E+03 -1.96043E+03 -4.69248E+03  2.26966E+03  5.75460E+02  1.63859E+03
 -1.66106E+03  1.05506E+03  2.11976E+03 -1.17831E+03 -4.49458E+02 -2.08839E+03 -2.13004E+03  4.53744E+02
  1.53768E+03 -2.17407E+03  3.61684E+03  8.39531E+02  9.63789E+02 -1.49575E+03 -7.72842E+02 -2.92525E+03
 -5.60608E+02 -8.49955E+02 -1.34075E+02  1.04515E+03 -2.83057E+03  3.38709E+02 -5.08454E+02  1.71863E+03
 -1.42538E+03  1.08936E+01  5.44573E-01  2.80337E+03 -1.63761E+03  1.71918E+03 -3.93549E+03 -9.65844E+02
 -1.61193E+03  1.09404E+03  2.82981E+02  3.32837E+03 -2.53191E+02  4.72851E+02  1.88381E+03 -1.89506E+02
  5.46227E+02 -2.28254E+02  1.75722E+03  3.15473E+02 -1.41218E+03 -4.02763E+03 -3.68792E+03 -1.61780E+03
 -3.42308E+03 -8.89831E+02 -7.33575E+02  2.18651E+03 -3.68639E+03 -3.76944E+03 -4.52752E+03 -5.16494E+02
  1.92579E+03  9.43254E+02 -2.74874E+03  8.65455E+02 -3.37195E+02  1.12007E+03  2.05723E+03 -3.70973E+03
  4.97454E+02  1.89714E+03  9.51601E+02 -6.03402E+03  1.57027E+03 -3.87319E+02  2.23854E+03  1.65264E+03
