 $NMID ID='MM_0lb_SNR50_15hz_g40_13.RAW', FMTDAT='(8E13.5)'
 TRAMP=1., VOLUME=1. $END
  3.14656E+05 -2.03904E+02  3.37204E+05  2.53583E+05  8.50904E+04  3.38747E+05 -1.31879E+05  2.48020E+05
 -1.93230E+05  8.24430E+04 -1.13086E+05 -3.76725E+04  3.08758E+03 -5.06261E+04  5.02290E+04  2.41113E+03
  3.57994E+04  5.13777E+04 -2.29486E+04  7.43277E+04 -6.28613E+04  5.94968E+04 -8.60170E+04  3.12412E+04
 -7.93580E+04 -7.40842E+03 -5.42691E+04 -5.07748E+04 -1.54608E+04 -7.32801E+04  2.85939E+04 -4.55186E+04
  3.96502E+04  2.55181E+03  1.58661E+04  4.70085E+04 -3.63348E+04  4.62872E+04 -6.48715E+04  1.51620E+03
 -5.06918E+04 -6.09077E+04 -7.29063E+03 -7.65516E+04  3.20422E+04 -5.52784E+04  4.62735E+04 -1.76623E+04
  3.97530E+04  1.19882E+04  3.39805E+04  2.93145E+04  1.66850E+04  3.00680E+04 -3.29253E+03  2.71277E+04
 -2.72645E+04  1.62198E+04 -1.83936E+04 -4.78311E+03  3.10042E+03 -1.24162E+04  1.98100E+04  9.15785E+03
  4.85625E+03  3.60461E+04 -3.27428E+04  3.27154E+04 -6.42275E+04  1.08107E+03 -5.74008E+04 -4.63395E+04
 -1.10563E+04 -5.78440E+04  3.75100E+04 -4.26952E+04  5.90021E+04  1.00072E+03  3.22184E+04  3.33995E+04
 -7.43747E+03  3.08677E+04 -2.74502E+04  1.73133E+04 -2.40650E+04 -6.76464E+03 -1.58750E+04 -1.03095E+04
 -8.51428E+03 -1.35726E+04 -2.42596E+03 -1.79044E+04  2.14507E+03 -2.53242E+04  1.28803E+04 -1.47223E+04
  1.30914E+04  9.19050E+03 -9.16034E+03  1.77951E+04 -1.95167E+04 -5.51027E+02 -2.94941E+03 -3.03668E+04
  2.20695E+04 -4.11461E+04  4.56816E+04 -2.05321E+04  4.11850E+04  1.94462E+04  1.86595E+04  4.18075E+04
 -1.42497E+04  3.67251E+04 -2.60723E+04 -8.16857E+02 -5.94963E+03 -2.52879E+04  2.06828E+04 -3.20299E+04
  4.18835E+04 -1.24672E+04  3.13297E+04  1.72887E+04  1.19962E+04  4.43036E+04 -1.28025E+04  5.11057E+04
 -3.27198E+04  3.09426E+04 -3.96624E+04  8.28096E+03 -3.97037E+04 -1.82328E+04 -2.26762E+04 -3.42077E+04
  5.64436E+03 -3.71738E+04  2.67942E+04 -1.03458E+04  2.86008E+04  8.41545E+03 -1.66228E+02  1.59470E+04
 -1.30843E+04  1.17078E+04 -1.26174E+04 -8.15864E+03  2.55374E+03 -1.09478E+04  2.07810E+04  9.17028E+03
  1.04829E+04  1.94605E+04 -6.96687E+03  2.28412E+04 -1.85474E+04  1.01796E+04 -2.57675E+04 -6.71928E+03
 -2.00665E+04 -1.75858E+04 -7.48968E+03 -1.70297E+04  2.34862E+03 -1.16720E+04  1.68198E+04 -1.45065E+04
  2.47975E+04 -1.22307E+04  2.66321E+04  2.90872E+03  2.66746E+04  1.72449E+04  4.39710E+03  3.23567E+04
 -1.96555E+04  2.55839E+04 -3.06396E+04  7.57214E+03 -1.84967E+04 -2.63860E+03 -8.60112E+03 -1.35072E+04
  1.59505E+03 -1.63328E+03 -4.44079E+03  7.10531E+03 -1.31546E+04  3.64712E+03 -1.38600E+04 -9.31526E+03
 -1.17456E+04 -1.90887E+04  5.24374E+03 -2.10369E+04  1.61774E+04 -9.99414E+03  1.90025E+04  1.80214E+03
  6.05633E+03  1.31525E+04 -2.39352E+03  2.08906E+04 -1.16453E+04  7.22774E+03 -1.24747E+04 -2.48993E+03
 -1.68358E+04 -1.24468E+04 -2.31049E+03 -2.49694E+04  7.60218E+03 -1.26078E+04  1.71742E+04 -6.20760E+03
  1.78103E+04 -7.78526E+02  1.33911E+04  3.76690E+03  1.04358E+04  1.13973E+03  5.71819E+03 -6.76112E+03
  1.35505E+04  7.51491E+03  1.37635E+04  1.53963E+04  1.26870E+04  2.84385E+04  3.14660E+02  3.41193E+04
 -1.75684E+04  2.84045E+04 -2.97803E+04  9.07396E+03 -2.58641E+04 -1.52351E+03 -2.67056E+04 -1.26246E+04
 -9.64586E+03 -2.25797E+04  9.68457E+03 -2.59443E+04  1.89865E+04 -1.48001E+04  1.85203E+04  3.55446E+03
  4.95337E+03  1.34783E+04 -1.08495E+04  1.72133E+04 -1.25321E+04  1.27763E+03 -1.14571E+04 -7.63768E+03
  2.62693E+03 -1.15919E+04  7.42821E+03 -7.37786E+03  1.11755E+04 -4.41147E+03  4.33292E+03  3.47696E+03
 -4.79076E+03  2.72836E+03 -4.24172E+03 -3.68122E+03 -5.14893E+03 -5.42862E+03  9.47108E+03 -1.51324E+04
  1.72651E+04 -4.70023E+03  1.16776E+04  3.21233E+03  1.25779E+04  1.17034E+04  8.07917E+03  1.88362E+04
 -1.56906E+03  2.14140E+04 -1.40771E+04  1.50732E+04 -1.26460E+04 -2.63371E+02 -8.42820E+03 -3.44656E+03
  3.59391E+03 -5.93688E+03 -3.50208E+02  3.53972E+03 -3.47376E+03  3.73252E+03 -4.48096E+03  7.03763E+03
 -1.32779E+04  5.59903E+03 -1.02692E+04 -7.22843E+03 -4.94595E+03 -1.82159E+04  5.94515E+03 -1.32169E+04
  9.52534E+03 -3.95483E+03  7.12534E+03 -5.66752E+02 -1.09033E+03  2.33686E+03 -2.81371E+02 -1.73140E+03
 -3.32879E+03 -7.45293E+03  4.42907E+03 -1.09035E+04  2.28682E+03 -1.05140E+04  1.20228E+04 -2.15543E+03
  1.33428E+04  2.47517E+03  1.12929E+04  1.04935E+04  5.92667E+03  1.28962E+04 -7.02017E+03  1.16129E+04
 -6.44355E+03  4.76935E+03 -9.26692E+03 -3.32322E+03  5.16093E+03 -1.45901E+03  9.96998E+03 -7.90742E+02
  1.73771E+03  7.83353E+03  3.71008E+03  2.89485E+03 -7.34661E+03  4.08101E+03 -9.24149E+03  2.07435E+03
 -4.12946E+03 -3.47257E+03 -1.03101E+03 -6.30512E+03  2.82170E+03 -5.69326E+03  7.09189E+03 -2.69980E+03
  1.22659E+03  8.67270E+03 -3.40190E+03  9.44887E+03 -7.69823E+03  5.96545E+03 -6.89367E+03 -3.39015E+03
 -3.84058E+03 -5.94143E+03  1.50890E+02 -1.08573E+04  3.45453E+03 -9.04581E+03  6.01262E+03 -3.68652E+03
  6.68056E+03  6.33776E+03  1.14075E+02  6.58537E+03 -8.32645E+03  5.53848E+03 -5.78161E+03 -3.51330E+03
 -6.18437E+03 -4.66797E+03 -2.80403E+02 -4.79971E+03  4.46140E+02 -1.59888E+03  2.21569E+03 -7.04495E+03
 -5.04613E+02 -2.91281E+03  5.19040E+02  1.61430E+03  4.46520E+02 -2.66748E+03  4.17807E+03 -3.68224E+03
  4.89387E+03 -9.73837E+02  1.15793E+04  3.61041E+03  1.00781E+04  4.88585E+03  6.48585E+03  7.94755E+03
 -2.48555E+03  1.51286E+04 -1.06601E+04  9.06838E+03 -1.02766E+04  1.96349E+03 -1.08251E+04 -1.17639E+03
 -7.21630E+03 -4.76930E+03  2.72929E+02 -1.12738E+04  1.15186E+03  7.22268E+02  4.21661E+03 -4.65477E+03
  2.94259E+03 -7.70266E+02  6.09910E+03 -4.63854E+03  5.24778E+03 -2.20485E+03  3.31796E+03  2.50473E+03
  8.98819E+03 -3.66237E+03  4.04488E+03  4.99286E+03 -3.72889E+00  4.78940E+03 -2.93769E+03  6.12031E+02
 -1.18410E+03 -1.70060E+03 -5.49997E+03 -3.90350E+03 -2.55393E+03 -5.83057E+03  1.20312E+03 -8.15941E+03
  3.81187E+03 -7.73244E+03  1.34953E+04 -2.67748E+03  1.01387E+04  5.27201E+03 -3.50585E+03  1.04304E+04
 -9.50989E+01  4.62723E+03 -4.85341E+03  1.27485E+03 -5.10557E+03 -2.03440E+03 -1.60184E+03 -7.39631E+02
  4.22418E+02 -1.57354E+03  3.53558E+03  4.71362E+03 -6.50162E+03 -3.78920E+02 -3.94942E+03 -1.66429E+01
 -1.78824E+03 -5.95469E+03 -9.80786E+02 -6.04126E+03  1.55881E+03 -7.65060E+03  1.09508E+04 -2.88175E+03
  3.76958E+03  2.93890E+03  4.88850E+03  5.65603E+03 -6.54955E+03  5.25239E+03 -4.36049E+03  2.92512E+03
 -9.38057E+03 -1.08105E+03 -6.60069E+03 -3.93009E+03  1.07396E+03 -7.33401E+03  2.90922E+03 -4.14606E+03
  3.57631E+03 -2.90469E+03  2.99890E+03 -7.18835E+02  8.34922E+03 -3.29463E+03  1.02950E+03 -1.52767E+03
  3.77955E+03  3.83328E+03 -3.57604E+03  1.52529E+03  4.86644E+03  5.23026E+03  6.92499E+02  3.15482E+03
 -3.56724E+03 -7.53451E+02  9.53588E+02  3.20809E+03 -5.79751E+03 -2.39859E+03 -9.90512E+03 -3.87250E+02
  4.19024E+01 -9.68923E+03  1.55047E+03 -5.45161E+03  4.42884E+03 -6.69699E+03  3.88143E+03  2.01006E+03
  9.19719E+03 -3.89364E+01  8.42155E+02  2.93587E+03  3.17330E+02  1.09259E+03  1.84755E+03 -2.25457E+03
 -3.00106E+03 -3.21824E+03  7.07015E+03  7.52565E+02  3.75410E+03 -1.08251E+03  4.31757E+02  1.74561E+03
  2.25478E+03  2.06459E+03 -1.14038E+02 -1.76842E+03  7.77383E+02  2.89003E+02  2.09745E+03 -2.16470E+03
  7.89696E+02 -7.13501E+03  2.91618E+03 -4.67308E+02  4.62172E+03  5.25203E+03 -4.24710E+03  4.52485E+03
 -1.99103E+03 -6.05973E+02 -3.06002E+03  3.13443E+03 -3.16638E+03 -4.12837E+03 -5.75443E+03  2.63141E+03
 -1.82047E-01 -1.05881E+03  5.91337E+03 -4.19344E+02  4.25280E+02 -9.84124E+02 -7.46897E+02  2.56238E+03
 -6.00814E+03 -4.75495E+03 -4.60570E+03 -9.09143E+02 -3.48854E+03 -2.21940E+03 -6.18779E+02 -1.43750E+03
  3.95708E+02 -2.59862E+03  4.73372E+03  3.34950E+02  1.91566E+03 -7.17194E+02  1.02013E+03  1.79893E+03
  2.42684E+03  5.78602E+02 -1.79140E+03 -2.04883E+03  1.61855E+03 -1.27032E+02  5.21999E+03 -2.66467E+03
  1.53750E+03 -9.18523E+02  3.17148E+03 -6.89398E+02  3.58040E+03  8.06900E+03 -4.00828E+03  1.36770E+03
 -2.41462E+03  7.87483E+02 -7.49952E+01 -7.81433E+02 -2.69682E+03  6.44422E+02  3.67873E+03 -1.18994E+03
 -7.46049E+02 -5.61363E+01  4.43438E+03 -7.61841E+01 -7.49538E+02  4.28800E+03 -4.64357E+03  2.48067E+03
 -4.40033E+03  2.50790E+03  6.41612E+02  1.61418E+03  3.84927E+03 -2.04455E+03 -2.19858E+03 -1.31086E+03
  2.50415E+03  1.65304E+03 -2.63524E+03  3.02259E+03 -2.18540E+03 -3.09368E+03 -7.63302E+02 -2.15321E+03
 -2.88316E+03 -8.53619E+03  6.05991E+02 -8.38166E+03  4.79580E+03 -3.26819E+03  5.33085E+03 -2.90573E+03
  5.92041E+03 -3.66884E+02  3.97966E+02  2.20345E+03 -2.43744E+03 -9.07573E+02  1.20173E+03  2.28128E+03
 -4.08793E+03  2.81591E+03 -1.02871E+03  1.45467E+03 -4.27013E+03  6.37904E+03  1.14107E+03 -5.02993E+02
 -4.30641E+03 -3.34597E+03 -4.79411E+03 -1.69638E+03 -5.59360E+03  2.09330E+03 -2.36800E+03 -2.20786E+03
 -3.01584E+03 -3.06450E+03  2.30583E+03 -1.32393E+03  8.38897E+03  2.48375E+03  2.77919E+03  5.82299E+03
 -1.25736E+03  3.41784E+03 -1.19395E+03  2.29160E+03 -5.46321E+03  2.76528E+03 -6.48427E+03  2.56510E+03
 -2.23755E+03 -4.62154E+03  2.00506E+02 -7.51741E+03  6.64746E+02  3.36719E+03  2.41899E+03  2.15286E+03
 -4.62600E+02  5.64271E+02 -1.90731E+03  3.10055E+03 -8.79125E+02 -2.44155E+03  1.06774E+03 -1.08349E+03
  2.02601E+02  2.44851E+03  1.13049E+03 -3.30320E+03  2.11091E+03  7.80941E+02 -1.56870E+03  3.62798E+03
 -1.25177E+03 -1.54124E+02 -5.42097E+03 -6.05900E+03  1.52696E+03 -9.22378E+02 -2.60267E+03 -2.80954E+03
  7.81852E+02 -5.59318E+02 -2.33663E+03  3.00373E+02  2.18417E+03 -2.38974E+03 -3.60689E+03 -3.97001E+02
 -1.49213E+03  1.54955E+03 -1.65145E+03 -3.12894E+02 -2.30781E+03  4.67261E+03 -1.29257E+03  1.21889E+03
 -3.52426E+03 -4.13115E+02  1.24989E+03  1.88559E+03 -1.03881E+03  1.40543E+02 -3.12906E+03 -2.57360E+03
 -2.67879E+03 -1.80066E+03 -1.93044E+03 -3.54191E+02 -8.09353E+02 -4.62316E+03  7.66288E+01 -7.43042E+03
  2.66146E+03  9.89112E+02 -3.89555E+02  7.39052E+02 -1.78584E+03 -7.62264E+02 -4.92335E+03  6.01550E+02
