 $NMID ID='MM_0lb_SNR50_10hz_g55_45.RAW', FMTDAT='(8E13.5)'
 TRAMP=1., VOLUME=1. $END
  3.09446E+05  4.23313E+03  3.36228E+05  2.47078E+05  8.23416E+04  3.37950E+05 -1.30894E+05  2.44927E+05
 -1.94485E+05  8.08559E+04 -1.11357E+05 -3.20648E+04 -1.32651E+03 -5.21275E+04  5.38165E+04 -3.57413E+03
  3.08207E+04  5.26657E+04 -1.49272E+04  8.05692E+04 -5.77150E+04  6.81687E+04 -8.62321E+04  2.43174E+04
 -8.60728E+04 -1.49472E+04 -6.07216E+04 -4.97661E+04 -6.81971E+03 -6.93489E+04  2.33099E+04 -4.82003E+04
  3.56657E+04  6.36454E+03  2.10715E+04  4.90585E+04 -3.84282E+04  4.66200E+04 -6.28714E+04 -2.45218E+03
 -6.12480E+04 -5.47544E+04 -4.04977E+03 -8.07918E+04  3.27073E+04 -5.58960E+04  4.90018E+04 -1.77971E+04
  4.67152E+04  1.10798E+04  3.50605E+04  2.87078E+04  1.53171E+04  3.24949E+04 -6.24989E+02  2.64709E+04
 -2.08430E+04  8.91049E+03 -1.81691E+04 -8.82022E+03  1.29381E+04 -9.56334E+03  2.39352E+04  1.78427E+04
  5.89774E+03  3.80009E+04 -2.90044E+04  3.79600E+04 -6.82669E+04  5.26378E+03 -6.46401E+04 -4.80675E+04
 -8.19196E+03 -6.79331E+04  3.56204E+04 -4.38789E+04  5.83517E+04  2.05036E+02  3.37721E+04  3.82292E+04
 -6.98915E+03  3.87130E+04 -3.30320E+04  1.33990E+04 -3.56711E+04 -1.25828E+04 -2.18972E+04 -8.92451E+03
 -9.37182E+03 -1.43507E+04 -7.11952E+02 -1.00935E+04  6.33120E+03 -2.52762E+04  1.73895E+04 -7.74983E+03
  1.05021E+04  7.45519E+03 -1.08857E+04  1.56910E+04 -2.33700E+04 -3.80113E+03 -1.84543E+04 -3.57581E+04
  2.44731E+04 -4.50429E+04  5.07289E+04 -1.66370E+04  4.87654E+04  2.30560E+04  1.74039E+04  3.53893E+04
 -1.87390E+04  3.81791E+04 -1.83727E+04  7.16975E+03 -7.33291E+03 -2.71394E+04  1.87314E+04 -3.55206E+04
  4.83214E+04 -9.17680E+03  4.70551E+04  3.23205E+04  1.51952E+04  5.31473E+04 -1.00147E+04  5.10379E+04
 -3.86888E+04  3.81388E+04 -4.96579E+04  1.09165E+04 -4.76652E+04 -2.12684E+04 -2.12947E+04 -3.98023E+04
  6.94980E+03 -4.03737E+04  3.05382E+04 -1.79659E+04  2.45777E+04  1.30160E+04 -7.55113E+02  1.88370E+04
 -1.53492E+04  1.27816E+04 -8.56355E+03 -3.38423E+03  1.46167E+03 -1.54981E+04  1.69530E+04  8.28504E+03
  1.17036E+04  2.23750E+04 -8.21781E+03  3.17171E+04 -1.92875E+04  1.06472E+04 -2.81945E+04 -1.51915E+03
 -2.34374E+04 -1.64400E+04 -7.76338E+03 -2.26009E+04  7.14059E+03 -2.80955E+04  1.39126E+04 -2.11285E+04
  3.38775E+04 -1.25667E+04  3.72925E+04 -1.55272E+03  2.01617E+04  2.73295E+04  7.66576E+03  3.86952E+04
 -1.91492E+04  3.01899E+04 -3.11407E+04  8.60512E+03 -2.89545E+04 -1.05077E+04 -3.01809E+03 -1.53173E+04
  1.27974E+03 -3.68315E+03 -8.07534E+03  1.09953E+03 -1.69510E+04 -1.30994E+03 -3.29382E+04 -1.28788E+04
 -1.58874E+04 -1.54825E+04  6.50516E+03 -2.55611E+04  1.84087E+04 -1.64191E+04  1.64296E+04 -1.13571E+03
  1.46254E+04  1.41820E+04 -2.73316E+03  2.46245E+04 -1.50180E+04  1.51205E+04 -2.48254E+04 -3.09732E+02
 -1.56256E+04 -1.43412E+04 -6.55645E+03 -2.03346E+04  1.26735E+04 -2.52450E+04  2.17443E+04 -1.51964E+04
  2.35974E+04  5.64009E+03  1.78247E+04  5.26529E+03  1.07097E+04  1.34191E+03  1.49826E+04  3.46835E+02
  1.98982E+04  8.71243E+03  3.33034E+04  1.34014E+04  1.30396E+04  3.64937E+04  2.54979E+03  3.96339E+04
 -2.05593E+04  4.06192E+04 -4.35505E+04  1.93970E+04 -4.60981E+04 -4.10384E+02 -3.02357E+04 -2.14575E+04
 -1.60937E+04 -3.34019E+04  1.47602E+04 -2.94836E+04  2.32658E+04 -1.45496E+04  2.24891E+04  7.27331E+03
  1.21953E+04  1.99050E+04 -1.79674E+04  1.50725E+04 -1.58196E+04  4.87111E+03 -1.70769E+04 -1.06312E+04
 -5.82417E+03 -2.53310E+04  7.36865E+03 -1.56847E+04  1.03509E+04 -1.69590E+03  9.17971E+02  8.37039E+03
 -7.80537E+03  2.19496E+03 -8.10546E+03 -2.74275E+03  2.49777E+03 -2.28130E+04  1.08721E+04 -1.40141E+04
  1.47105E+04 -1.70405E+04  2.84257E+04  7.73813E+03  1.68135E+04  1.92899E+04  9.31951E+03  2.72346E+04
 -2.89787E+03  2.86053E+04 -1.78159E+04  1.61342E+04 -3.16865E+04  5.11494E+03 -1.42656E+04 -2.44853E+03
 -9.87768E+03 -3.76228E+03  2.44164E+03  1.16449E+02 -4.07819E+03  4.20400E+03 -8.41111E+03 -2.08579E+02
 -1.44059E+04  2.57785E+03 -7.43848E+03 -9.31640E+03 -4.99513E+03 -1.66380E+04  7.21785E+03 -1.85931E+04
  1.40592E+04 -6.34489E+02  3.75281E+03  6.44341E+03 -2.68289E+03  1.02695E+04 -7.27565E+03 -2.99259E+03
 -4.09828E+03 -5.69780E+03  2.13019E+02 -1.33984E+04  7.30169E+03 -1.87644E+04  2.88117E+04 -7.04443E+03
  1.53182E+04  6.67006E+03  1.67938E+04  1.53550E+04  3.87547E+03  1.27907E+04 -6.43493E+03  1.93146E+04
 -2.08061E+04  4.36223E+03 -7.47559E+03  1.33398E+03  3.96460E+03 -6.63079E+03  3.12167E+03  6.68337E+02
  3.37037E+03  1.26303E+04  5.90814E+03  7.27320E+03 -1.56634E+04  9.90620E+03 -1.36280E+04 -8.54754E+02
 -7.46800E+03 -7.96010E+03 -4.76903E+03 -1.42166E+04  2.58044E+03 -5.09397E+03  1.24719E+04 -1.26753E+03
  4.36502E+03  1.38569E+04 -6.04968E+03  5.74646E+03 -1.06061E+04  4.78664E+03 -1.47441E+04 -4.62053E+03
 -4.86157E+03 -1.24858E+04  8.15947E+03 -1.66102E+04  1.41800E+04 -1.62611E+04  1.90042E+04 -5.16355E+02
  1.32613E+04  1.06179E+04  5.20442E+03  1.63537E+04 -1.50854E+04  9.49790E+03 -8.87281E+03 -1.79860E+03
 -1.02670E+04 -1.19724E+04 -5.55372E+03 -1.73464E+04 -1.91433E+02 -8.57124E+03  1.07608E+04 -4.16728E+03
  8.14735E+03  6.79800E+03 -5.23577E+03  7.50422E+02 -1.84314E+03 -6.90560E+03  5.07376E+03 -4.11636E+03
  1.05045E+04 -4.17672E+03  2.01737E+04  7.59470E+03  1.77800E+04  1.57380E+04  8.71736E+03  1.25583E+04
 -4.63467E+03  2.55779E+04 -1.95596E+04  1.32088E+04 -2.15884E+04 -1.78810E+03 -2.00258E+04 -3.19853E+03
 -1.26104E+04 -1.47250E+04 -1.17927E+03 -1.15042E+04 -4.07727E+02 -1.16707E+04  1.09768E+04 -4.63286E+03
  7.81980E+03 -1.89037E+03 -1.01134E+03 -1.96283E+03  1.07886E+04 -5.23638E+03  8.22358E+03 -2.49410E+03
  3.25891E+03  1.17461E+04  9.68430E+03  9.84498E+03 -3.17194E+03  1.58948E+04 -1.16575E+04  9.22662E+03
 -1.52523E+04  2.37045E+03 -8.99613E+03 -1.41249E+04 -5.97773E+03 -1.00706E+04  9.58267E+03 -9.15596E+03
  1.30216E+04 -6.34148E+03  1.45296E+04 -1.51716E+02  1.72479E+04  8.74713E+03  4.17201E+03  1.84006E+04
 -1.18249E+04  1.79666E+04 -1.03823E+04  2.27409E+03 -7.90616E+03 -1.68285E+03  2.95716E+03 -4.86270E+03
 -5.10583E+03 -9.53613E+03 -9.80403E+02  8.44412E+02 -6.56631E+03  1.11277E+03 -8.94588E+03  6.96809E+02
 -1.11673E+04 -1.02004E+04  5.21606E+03 -1.34934E+04  8.99988E+03 -1.68411E+04  9.76584E+03 -1.86942E+02
  1.89129E+04  1.02304E+04  2.96595E+03  8.92433E+03 -5.98977E+03  1.04513E+04 -5.52297E+03  4.85264E+03
 -1.56364E+04  4.35221E+03 -1.05087E+04 -1.09599E+04 -1.64584E+03 -1.64178E+04  3.99508E+03 -5.84656E+03
  3.79246E+03  4.92710E+02  1.90322E+03 -3.03365E+03  4.62002E+03  2.05856E+03  2.80562E+03  2.28841E+03
  1.31499E+03 -2.23962E+03  3.14708E+03  2.44527E+02  3.79327E+03  1.60343E+03  5.83514E+03  6.21005E+03
  9.67791E+02  5.23604E+03 -8.21589E+03  9.95293E+03 -1.44698E+04  5.61045E+03 -5.18127E+03 -4.02001E+03
 -1.27954E+04 -1.56108E+04 -1.46419E+03 -1.49652E+04  6.79431E+03 -1.07321E+04  1.43755E+04 -3.49011E+03
  1.44518E+04  1.62384E+03  1.41699E+03  8.96715E+03 -7.95988E+03  2.51148E+03 -3.35485E+03 -5.18715E+03
 -4.40579E+03 -6.50728E+03  3.04440E+03 -5.67467E+03  4.06212E+03 -1.01230E+03  7.48396E+03 -1.46918E+03
  2.61195E+03  2.11711E+03  9.51665E+02 -1.62668E+03  9.93895E+02 -8.69895E+02 -2.05900E+03 -1.58999E+03
 -2.09732E+03  1.96744E+03  5.04860E+03  2.99680E+03 -1.33792E+03  1.23099E+04  2.19260E+02  1.61651E+04
 -1.35274E+04  1.03644E+04 -1.51428E+04  6.67728E+03 -9.10661E+03 -1.97347E+03 -3.86890E+03 -3.50789E+02
  5.70417E+03 -7.31768E+03  5.77500E+03 -2.69388E+03  3.96168E+03  6.62136E+03  2.17812E+03  5.10359E+03
 -8.29518E+03 -3.97672E+02 -4.33036E+03 -3.38527E+03 -1.17679E+04 -4.46967E+03  2.27839E+02 -7.90859E+03
  4.29412E+03 -4.09016E+03  8.28262E+03  1.94026E+03  4.30660E+03  4.46054E+03 -3.78352E+01  5.68364E+03
 -7.41642E+02  5.49032E+03 -3.37348E+03 -1.70528E+03 -1.99086E+03 -1.01649E+04  1.14242E+04 -1.01824E+04
  7.65016E+03  2.40252E+03  1.11761E+04  8.60313E+03  3.65089E+03  5.06913E+03 -2.40512E+03  5.05799E+03
 -4.62124E+01  7.11452E+02 -7.90226E+03  3.48550E+03 -1.61876E+03 -9.58052E+03  6.56840E+03 -9.19856E+03
  6.99765E+03 -2.00598E+03  4.06968E+03 -5.11465E+03 -1.03051E+03  1.43522E+03 -8.97361E+02  6.17482E+03
 -4.48341E+03  1.46791E+03  3.11628E+02 -1.98621E+03 -3.83191E+03 -2.29642E+03 -1.98406E+02  7.67192E+03
 -5.61811E+02  2.01451E+03 -4.81464E+03  2.36257E+03 -6.01473E+03  6.18031E+01 -5.40971E+03 -6.74313E+03
  3.76594E+03 -1.51684E+04  2.05236E+03 -1.40016E+04  6.61828E+03 -1.47149E+04  1.47574E+04 -4.10129E+03
  6.62764E+03 -5.98526E+01  5.82287E+03  1.23964E+04 -4.17592E+02  7.99459E+03 -1.06820E+04  8.58732E+03
 -1.90648E+03  3.29713E+03 -1.05926E+03 -6.31037E+02  2.54360E+03  6.86487E+03  1.45669E+03 -5.27860E+03
  7.79933E+03 -8.99964E+03 -2.58104E+03 -6.18747E+03  1.28653E+02 -4.78709E+03  7.17137E+03 -6.25226E+02
  2.94808E+03 -2.52098E+03  7.36392E+03  2.96466E+03  6.78949E+03  7.32653E+03  1.31198E+03  9.15867E+03
 -6.48440E+03  6.75425E+03 -7.03954E+03  6.27927E+03 -8.09702E+03  8.96282E+02 -9.55623E+03 -8.05718E+03
 -8.28263E+01 -1.15270E+04  3.64713E+03 -9.58539E+03  7.34585E+03 -1.56915E+03  6.34230E+03 -3.99669E+03
  3.15605E+03 -7.50139E+02  1.31137E+03 -1.90065E+02  5.19595E+01 -9.29941E+02  2.04993E+02  7.40678E+02
  6.02049E+03 -4.86194E+03  7.16299E+03  7.45110E+02  6.03118E+03  6.70341E+03  4.25347E+03  8.21515E+03
 -6.15418E+03  4.53838E+03 -1.37655E+04 -1.40849E+03 -5.66888E+03 -2.62999E+03  1.58427E+03 -1.15967E+04
  6.77646E+03 -1.46750E+03  5.74141E+03 -6.13119E+03  3.96822E+03  4.08476E+02  2.43977E+03  9.07813E+03
  2.10734E+01  1.02485E+04 -2.98457E+03  6.59584E+03  3.58724E+03  3.50301E+03 -3.71383E+03 -1.98672E+02
 -5.02475E+03  2.40743E+03 -6.32683E+02  1.33226E+03 -1.16152E+04  1.50717E+03 -1.10575E+04  2.72295E+03
 -1.92825E+03 -6.43517E+03  4.71204E+03 -6.15378E+03 -1.02993E+03 -3.56081E+03  6.13486E+03  2.01242E+03
  7.19709E+03  3.10817E+03  5.46443E+02  5.92165E+03 -2.49799E+02  5.44169E+03 -4.86022E+03  7.79038E+03
