 $NMID ID='MM_0lb_SNR50_8hz_g40_19.RAW', FMTDAT='(8E13.5)'
 TRAMP=1., VOLUME=1. $END
  3.06895E+05 -9.81569E+02  3.40059E+05  2.50982E+05  7.99132E+04  3.37882E+05 -1.25272E+05  2.52411E+05
 -1.90513E+05  8.32254E+04 -1.18687E+05 -2.86164E+04  3.66404E+03 -4.57380E+04  5.86594E+04 -3.76841E+02
  3.70136E+04  5.06352E+04 -1.63659E+04  7.43723E+04 -6.37802E+04  6.43360E+04 -7.96511E+04  3.51733E+04
 -8.25206E+04 -8.54703E+03 -5.45597E+04 -5.65444E+04 -1.92302E+04 -7.34872E+04  2.66325E+04 -4.97559E+04
  4.59248E+04  3.75462E+03  2.04783E+04  5.04585E+04 -3.04646E+04  5.01141E+04 -6.87731E+04 -2.88456E+03
 -5.65131E+04 -5.27937E+04 -9.65792E+03 -7.90611E+04  3.43413E+04 -5.39213E+04  5.19143E+04 -1.72299E+04
  4.48138E+04  1.54557E+04  2.79587E+04  3.09374E+04  1.45798E+04  3.24084E+04 -7.51614E+03  3.00701E+04
 -1.95312E+04  1.24112E+04 -2.42005E+04 -8.19278E+03  1.27661E+04  1.46779E+03  2.22253E+04  1.87000E+04
  5.95590E+03  4.26334E+04 -3.35120E+04  3.91605E+04 -6.27388E+04  3.45174E+03 -5.83695E+04 -4.30393E+04
 -1.97735E+04 -7.15569E+04  4.19476E+04 -4.30007E+04  5.92042E+04  1.00221E+03  3.91311E+04  3.76239E+04
 -3.71224E+03  4.18062E+04 -2.87945E+04  1.78145E+04 -3.29659E+04 -5.24309E+03 -2.30883E+04 -1.18093E+04
 -7.44100E+03 -1.58943E+04  5.86501E+02 -2.07541E+04  9.88258E+03 -2.54717E+04  2.16560E+04 -1.05985E+04
  1.42614E+04  3.57962E+03 -1.66690E+04  1.03080E+04 -2.26161E+04 -6.18061E+03 -8.20320E+03 -3.83172E+04
  3.01450E+04 -4.60208E+04  4.62155E+04 -1.75984E+04  4.45736E+04  2.30818E+04  2.15337E+04  4.79805E+04
 -1.14941E+04  3.28051E+04 -3.23049E+04  8.54463E+02 -1.52459E+04 -3.35327E+04  2.26180E+04 -4.21204E+04
  4.82595E+04 -1.43341E+04  4.07987E+04  3.36051E+04  2.39607E+04  5.33296E+04 -1.55099E+04  6.22204E+04
 -3.47933E+04  3.64793E+04 -4.47210E+04  9.71599E+03 -4.52793E+04 -1.82311E+04 -2.40251E+04 -4.61471E+04
  4.75708E+03 -4.24092E+04  3.95883E+04 -1.48685E+04  3.42366E+04  1.83800E+04  5.56062E+03  2.38352E+04
 -1.00561E+04  1.36750E+04 -8.59593E+03 -2.12968E+03  9.13287E+03 -9.91992E+03  1.49488E+04  8.96539E+03
  1.38486E+04  2.25811E+04 -1.09573E+04  2.33682E+04 -2.00969E+04  1.36279E+04 -3.43958E+04 -9.38603E+03
 -2.76420E+04 -2.35780E+04 -9.00466E+03 -2.47776E+04  7.10678E+03 -2.86391E+04  1.91299E+04 -1.94002E+04
  3.74205E+04 -1.65552E+04  3.84598E+04  1.03165E+04  2.18073E+04  2.74277E+04  3.36864E+03  4.45526E+04
 -2.29308E+04  3.94911E+04 -3.18824E+04  1.00688E+04 -2.37162E+04 -4.04023E+03 -9.88572E+03 -1.84870E+04
 -4.29775E+02  1.55877E+03 -8.50938E+03  4.85016E+03 -2.19513E+04  6.65284E+03 -1.25603E+04 -1.26526E+04
 -1.31437E+04 -2.22102E+04  1.20398E+04 -3.02450E+04  1.81979E+04 -2.03098E+04  2.27642E+04 -3.09005E+03
  1.33380E+04  1.22940E+04  7.27329E+03  1.90359E+04 -1.72807E+04  9.37432E+03 -2.08830E+04 -1.38599E+03
 -1.34830E+04 -1.65937E+04 -2.80015E+03 -2.77456E+04  9.52082E+03 -2.41715E+04  2.18299E+04 -1.08670E+04
  2.55580E+04 -2.06283E+03  1.64044E+04  2.76483E+03  9.60580E+03 -3.02435E+03  1.13469E+04 -8.15513E+03
  2.40074E+04  1.75013E+03  2.35630E+04  1.63298E+04  1.50815E+04  2.93625E+04 -7.07933E+03  5.17770E+04
 -2.60007E+04  3.60290E+04 -4.16104E+04  2.04135E+04 -4.39034E+04 -2.56185E+03 -3.55313E+04 -2.65272E+04
 -1.73749E+04 -3.76719E+04  1.63963E+04 -3.49380E+04  2.48884E+04 -1.38409E+04  1.96497E+04  4.23025E+03
  1.24302E+04  1.61995E+04 -1.22067E+04  1.82538E+04 -1.52275E+04  2.77223E+03 -1.01349E+04 -7.92632E+03
  3.67697E+03 -1.61392E+04  8.08732E+03 -1.38588E+04  1.87320E+04 -6.49771E+03  2.51210E+03  1.44040E+04
 -1.49588E+04  6.37896E+03 -1.17551E+04 -4.70978E+03 -4.96420E+03 -1.90727E+04  7.00501E+03 -2.02174E+04
  2.33715E+04 -1.22530E+04  2.53351E+04  2.31897E+03  2.23212E+04  2.30239E+04  3.42959E+03  3.15552E+04
 -5.62767E+03  3.37227E+04 -2.14427E+04  2.29496E+04 -1.99451E+04  3.34555E+02 -1.89741E+04 -9.18836E+02
 -9.18548E+03 -4.04600E+03 -3.42220E+03  5.52121E+03 -1.92366E+03  2.45129E+03 -6.53982E+03  3.93369E+03
 -1.06726E+04 -3.71522E+03 -1.18556E+04 -1.48034E+04 -1.00896E+03 -1.86529E+04  6.21464E+03 -1.81048E+04
  1.22107E+04 -1.22099E+03  7.91795E+03  2.77604E+03  2.46847E+03  9.41694E+03 -9.02009E+03 -8.34341E+02
 -6.00638E+03 -1.20660E+04 -7.66778E+03 -8.77472E+03  2.39247E+03 -1.24558E+04  2.02428E+04 -1.09060E+04
  2.91895E+04  7.00013E+03  2.03364E+04  2.36688E+04 -6.00439E+02  1.40758E+04 -1.37600E+04  1.14062E+04
 -1.80493E+04  1.88702E+03 -5.24405E+03 -7.97110E+03 -3.80389E+03 -1.62834E+03  7.68006E+03 -5.88937E+03
  4.38967E+03  8.97678E+03  3.15583E+03  1.45412E+04 -1.38906E+04  1.04185E+04 -2.41270E+04  2.96320E+03
 -1.49364E+04 -6.99155E+03  2.05635E+03 -1.34985E+04  1.21494E+04 -4.43804E+03  9.42636E+03  3.28589E+03
  4.74661E+03  1.14598E+04 -2.43984E+03  1.11095E+04 -2.51592E+04  2.43649E+03 -1.65146E+04 -2.90907E+03
 -4.66153E+03 -1.77136E+04  4.12717E+03 -1.31203E+04  1.92497E+04 -1.48654E+04  1.68973E+04 -4.21320E+02
  1.42866E+04  1.23526E+04  5.10193E+02  1.84712E+04 -1.26831E+04  1.05923E+04 -1.64610E+04  3.46945E+02
 -1.02342E+04 -1.00413E+04  1.13774E+03 -1.88315E+04  1.19011E+04 -1.45307E+04  1.07473E+04 -5.02683E+03
  1.14565E+04  3.11252E+03 -6.63313E+03  1.59762E+03 -1.30427E+03 -1.88176E+03  9.44524E+03 -9.57828E+03
  1.47298E+04 -4.70052E+03  1.55640E+04 -2.33969E+03  1.45585E+04  7.55115E+03  1.20273E+04  2.40865E+04
 -6.53100E+03  2.63529E+04 -2.72236E+04  1.51538E+04 -2.73491E+04 -1.74044E+03 -2.81145E+04 -1.13584E+04
 -1.74424E+04 -2.10422E+04 -2.73813E+03 -1.59668E+04  1.77578E+03 -2.02421E+04  9.47973E+03 -7.10246E+03
  3.88656E+03  1.72874E+03 -4.16600E+02 -8.10567E+03  3.07249E+03  5.87844E+03  7.46826E+03  1.41809E+03
  1.06948E+04 -1.88473E+03  4.84635E+03  1.45420E+04  1.61659E+03  1.73824E+04 -7.78961E+03  1.15319E+04
 -1.70686E+04 -4.07730E+03 -1.49219E+04 -5.89092E+03  1.01019E+03 -1.39240E+04  5.43200E+03 -1.85748E+04
  1.04067E+04 -1.19448E+04  1.62212E+04  3.42292E+02  2.22459E+04  1.28397E+04  5.34732E+03  1.39219E+04
 -2.70563E+03  8.94073E+03 -1.00860E+04  3.66502E+03 -8.67099E+03 -6.38211E+03 -6.89724E+03 -1.39490E+03
 -3.74401E+03 -1.41045E+03  4.57575E+02  6.69154E+03 -8.11292E+03  3.50048E+03 -9.57313E+03 -2.99621E+03
 -1.16120E+04 -3.45594E+03  6.87000E+03 -1.02338E+04  7.97681E+03 -1.32944E+04  1.42766E+04 -3.20677E+03
  1.68449E+04  9.91358E+03  1.34519E+04  1.12815E+04 -2.05736E+03  1.60633E+04 -7.30728E+03  9.91143E+03
 -2.04711E+04  8.67085E+01 -1.65733E+04 -1.03802E+04  1.24923E+03 -1.44583E+04  1.12267E+04 -9.41383E+03
  6.32350E+03 -3.44549E+03  4.83147E+03  6.05212E+02 -3.69650E+03  1.05995E+04  7.32291E+03 -5.30016E+01
  7.36095E+03  1.42185E+03  7.62866E+03 -1.91314E+03  9.18799E+02  2.93916E+02  3.09157E+03  1.07659E+04
  1.84518E+03  1.42155E+04 -1.51076E+04  1.19486E+04 -1.45524E+04  1.91249E+03 -1.46865E+04 -1.40891E+04
 -7.46904E+03 -1.57729E+04  3.47012E+03 -2.34997E+04  9.74617E+03 -1.92947E+04  1.53897E+04  1.66127E+03
  1.06921E+04 -4.52963E+03  9.10994E+03  9.70208E+03 -2.99240E+03  8.45225E+03 -3.17900E+03 -2.80473E+01
 -3.09744E+03 -9.25126E+03  3.99593E+02 -6.36148E+03  3.95005E+03 -4.44818E+02  6.68293E+03 -2.54625E+03
  1.02682E+04  1.29432E+04  2.21634E+03  5.35236E+03 -1.53995E+03  1.95952E+03 -2.96457E+03  3.36113E+03
  9.64719E+02  3.16367E+03  3.74535E+03  2.22648E+02  6.57298E+03  9.70511E+03  1.62980E+02  1.06999E+04
 -4.52266E+03  1.08485E+04 -8.44499E+03  1.03635E+03 -4.68276E+03  4.83249E+02 -1.48613E+03 -3.87347E+03
  7.33723E+02 -5.74604E+03  5.03818E+03 -2.71116E+03  6.78725E+03  2.63811E+03 -5.02772E+02  4.74486E+03
 -8.94753E+03 -4.85700E+03 -9.18837E+03 -9.18422E+03 -3.69999E+03 -1.20376E+04 -1.58405E+03 -8.39092E+03
  1.16730E+04 -3.10592E+03  9.91585E+03 -3.94080E+03  1.01719E+03 -3.02217E+02  7.40300E+02  6.83199E+03
 -3.21094E+03  2.49454E+03 -3.06120E+02 -3.24697E+03 -2.23382E+03 -8.89563E+03  1.13617E+04 -3.62447E+03
  1.07756E+04  8.66406E+02  4.68855E+03  1.25480E+04  8.62484E+02  8.66911E+03 -4.51433E+03  8.54200E+03
 -8.84846E+03  9.28699E+03 -1.10143E+04 -9.43056E+03 -4.83949E+03 -7.86279E+03  2.64011E+00 -7.95077E+03
  4.75891E+03 -6.19459E+03  2.30953E+03 -2.54801E+03 -6.39216E+03  4.24523E+03 -4.94025E+03  6.34577E+03
  3.17604E+03  2.88043E+03  3.57765E+03 -4.51629E+02  6.08607E+03 -1.72843E+03 -3.41749E+03  3.02019E+03
  4.41767E+03  6.16322E+03 -3.00210E+03  3.11086E+03 -7.41777E+03 -2.45179E+03 -1.23708E+04 -6.04304E+03
 -6.33586E+03 -1.58073E+04  4.84117E+03 -1.66204E+04  1.25130E+04 -1.47809E+04  1.25730E+04 -2.82554E+03
  1.22994E+04  9.04906E+02  1.40928E+04  8.84881E+03 -1.73930E+03  1.06367E+04 -8.25605E+03  1.08274E+04
 -6.38581E+03 -2.43404E+03 -1.58560E+03 -3.93015E+03  9.44843E+02 -2.41543E+02 -1.26362E+03 -2.07822E+03
 -3.99154E+03 -1.43094E+03  2.72316E+03  6.22576E+02  2.21575E+03  2.48155E+02  3.67675E+03 -9.04208E+02
  7.60574E+03 -6.13403E+03  1.18496E+04 -9.18458E+02  1.40235E+04  2.19212E+03  1.34995E+03  1.72184E+04
 -4.62900E+03  1.31685E+04 -1.49474E+04  5.73289E+03 -9.00211E+03 -6.44893E+03 -1.11594E+04 -6.63190E+03
 -9.42125E+03 -1.49034E+04  3.82025E+03 -1.36998E+04  9.19913E+03 -7.02340E+03  3.79448E+03  1.16859E+03
  4.86251E+03  6.75431E+03  1.43615E+03 -2.21222E+03  1.18104E+03 -2.66148E+03  2.89684E+02  6.99525E+03
  7.02289E+03  3.50455E+03  3.18207E+03  1.68283E+03  3.33256E+03  1.44387E+03 -1.82078E+03  1.03938E+04
 -6.58883E+03  4.38745E+02 -3.32980E+03  3.68066E+03 -8.32472E+03 -7.42927E+03  1.10822E+03 -7.98946E+03
  7.61316E+03 -1.04892E+04  1.25326E+04  2.27037E+03  1.27850E+04  6.72477E+03  5.59516E+03  5.72638E+03
  2.22177E+03  6.81527E+03 -1.05510E+03  7.33252E+02 -1.37271E+03  4.48982E+03 -5.12612E+03  3.59185E+03
 -8.43478E+03 -2.36747E+03 -1.72956E+03  3.67916E+02 -4.88579E+03 -1.10705E+02 -8.95661E+03 -1.16557E+03
 -2.91303E+03 -9.93210E+02 -1.65487E+03 -2.56757E+03  8.40948E+03 -1.21210E+04  1.26254E+03 -1.79310E+03
  6.43266E+03 -5.23226E+03  8.99067E+03  6.30200E+03 -2.81901E+03  7.05739E+03 -3.08167E+03  4.54262E+03
