 $NMID ID='MM_0lb_SNR50_13hz_g60_2.RAW', FMTDAT='(8E13.5)'
 TRAMP=1., VOLUME=1. $END
  3.12003E+05 -1.16424E+03  3.43430E+05  2.53522E+05  7.92461E+04  3.36446E+05 -1.32599E+05  2.50114E+05
 -1.95994E+05  8.59447E+04 -1.16666E+05 -3.48366E+04  4.61294E+03 -5.23332E+04  5.39496E+04  1.46883E+03
  3.21184E+04  5.27551E+04 -1.59970E+04  8.20178E+04 -6.32006E+04  5.89267E+04 -8.46436E+04  3.05735E+04
 -8.25618E+04 -1.52904E+04 -6.20844E+04 -5.05291E+04 -1.35809E+04 -7.50453E+04  2.38849E+04 -4.29992E+04
  4.21950E+04 -7.64460E+02  1.65473E+04  4.81374E+04 -2.95371E+04  4.70722E+04 -6.53606E+04 -6.52327E+03
 -5.55485E+04 -5.75217E+04 -2.99763E+03 -7.76196E+04  4.11009E+04 -5.33526E+04  5.38479E+04 -1.79804E+04
  4.24511E+04  8.60389E+03  3.02014E+04  2.17314E+04  1.44369E+04  2.91561E+04 -4.91816E+03  3.02411E+04
 -1.77885E+04  1.51717E+04 -1.76703E+04 -5.51293E+03  1.12147E+04 -5.36100E+03  2.46780E+04  1.22104E+04
  1.48571E+04  3.82279E+04 -2.97025E+04  3.66314E+04 -6.25628E+04  2.35113E+03 -6.12137E+04 -4.03275E+04
 -1.79591E+03 -6.32367E+04  4.02157E+04 -4.67728E+04  6.24043E+04 -5.27130E+03  3.89088E+04  3.22231E+04
 -5.78429E+03  3.63670E+04 -3.09237E+04  1.98320E+04 -2.97772E+04 -7.05475E+03 -2.17707E+04 -1.27352E+04
 -1.17986E+04 -1.16711E+04 -7.41465E+02 -2.10341E+04  1.05874E+04 -2.57731E+04  1.48867E+04 -1.55028E+04
  1.21785E+04  1.16752E+04 -1.01863E+04  1.49718E+04 -3.10225E+04 -5.16806E+03 -6.91421E+03 -4.26531E+04
  2.93794E+04 -4.86003E+04  5.25560E+04 -1.84978E+04  4.60107E+04  2.52575E+04  1.90071E+04  4.39071E+04
 -2.14218E+04  3.69268E+04 -2.78083E+04 -3.88743E+03 -9.00609E+03 -2.37518E+04  1.99152E+04 -3.69200E+04
  4.06725E+04 -9.82639E+03  3.72792E+04  2.54556E+04  2.14163E+04  5.24219E+04 -7.67323E+03  5.38535E+04
 -3.70677E+04  3.99113E+04 -4.52562E+04  1.27002E+04 -4.94142E+04 -2.11817E+04 -2.59651E+04 -4.05863E+04
  5.03586E+03 -4.32947E+04  2.94785E+04 -1.52319E+04  3.07520E+04  7.61538E+03 -5.15899E+02  1.44090E+04
 -1.78948E+04  1.38674E+04 -1.21772E+04 -9.47392E+03  5.31585E+03 -1.02727E+04  1.89653E+04  1.07032E+04
  1.86740E+04  2.02482E+04 -5.12326E+03  2.41248E+04 -2.10998E+04  1.51286E+04 -3.24399E+04 -3.74660E+03
 -2.65767E+04 -1.69800E+04 -1.02596E+04 -2.47932E+04  1.02744E+04 -2.36105E+04  2.06368E+04 -2.28912E+04
  2.92343E+04 -1.54654E+04  3.26806E+04 -1.98814E+02  2.82572E+04  2.51016E+04  7.61496E+03  4.10771E+04
 -1.91920E+04  3.46662E+04 -2.56139E+04  1.46418E+04 -2.54311E+04 -6.68336E+03 -3.90203E+03 -1.54331E+04
  1.88224E+03 -3.25428E+03 -6.34283E+03  7.94425E+03 -1.90573E+04  4.75282E+03 -2.03036E+04 -4.19649E+03
 -7.31971E+03 -2.02494E+04  4.22884E+03 -2.51677E+04  1.80716E+04 -2.55511E+04  2.28456E+04  2.10318E+01
  1.70855E+04  1.68828E+04 -1.13967E+03  2.21431E+04 -1.83272E+04  1.36041E+04 -2.14947E+04 -2.74739E+03
 -2.01684E+04 -2.18542E+04 -2.43072E+03 -2.72991E+04  1.03989E+04 -1.72406E+04  1.95788E+04 -1.22483E+04
  2.02651E+04 -3.79106E+03  1.30912E+04  5.73542E+03  8.26705E+03  3.49963E+03  1.33557E+04 -4.36256E+03
  1.71330E+04  1.35558E+03  1.98507E+04  1.29014E+04  1.34285E+04  3.63957E+04 -4.51044E+03  3.80400E+04
 -2.34209E+04  3.09534E+04 -3.41149E+04  1.47566E+04 -4.06354E+04 -9.88219E+02 -3.24593E+04 -2.40286E+04
 -1.01184E+04 -3.15617E+04  6.21089E+03 -2.80903E+04  2.42545E+04 -1.44940E+04  2.10105E+04  5.43988E+03
  8.52747E+03  1.81612E+04 -6.58676E+03  1.26325E+04 -1.83881E+04 -9.41731E+02 -1.47575E+04 -1.62924E+04
 -3.56550E+03 -1.72330E+04  8.00548E+03 -1.27443E+04  1.25643E+04 -3.26277E+02  3.18178E+03  4.22941E+03
 -8.05247E+03  4.87537E+03 -7.58115E+03 -1.05692E+04 -2.07020E+03 -1.38655E+04  9.67373E+03 -1.93207E+04
  2.02929E+04 -2.20713E+03  2.04660E+04  4.28179E+03  1.75182E+04  1.53826E+04  1.48527E+04  2.62797E+04
 -1.31088E+03  2.31752E+04 -1.67644E+04  9.11961E+03 -1.52407E+04 -2.11200E+03 -1.24509E+04 -4.29097E+03
 -5.20323E+03 -9.05327E+03  3.77970E+03 -1.40934E+03 -3.95137E+03  3.45956E+03 -7.30026E+03  5.91432E+03
 -1.61323E+04 -9.53591E+02 -1.19934E+04 -1.05813E+04 -7.86615E+03 -1.88092E+04  8.08357E+03 -1.19118E+04
  1.34533E+04 -5.10572E+03  9.04243E+03  8.20630E+03 -2.71657E+03  8.17152E+03 -7.67553E+03  1.58508E+02
 -2.68440E+03 -8.94067E+03 -1.69762E+03 -1.42806E+04  3.59025E+03 -1.87490E+04  1.48654E+04 -5.01339E+03
  1.60540E+04  1.39206E+03  1.33583E+04  6.95318E+03  7.82291E+03  1.61125E+04 -4.56820E+03  1.16463E+04
 -8.95856E+03 -1.58607E+02 -2.58214E+03  4.47769E+02  1.12841E+03 -1.85098E+02  4.76031E+03  1.78575E+03
  6.29586E+03  1.17143E+03  8.78938E+02  6.11525E+03 -4.45007E+03  7.73428E+03 -9.28420E+03  6.58260E+03
 -5.16460E+03 -4.41614E+03 -1.08287E+03 -1.27012E+04  3.43749E+03 -2.08878E+03  9.33650E+03 -1.95948E+03
  6.36935E+03  6.91435E+03 -2.57318E+03  1.57371E+04 -8.46681E+03  3.31327E+03 -1.44861E+04 -7.07334E+03
 -1.09570E+04 -1.33651E+04  3.74782E+03 -1.15944E+04  1.06955E+04 -1.35098E+04  1.63547E+04  2.98593E+03
  5.28218E+03  7.27785E+03 -2.29191E+03  1.55666E+04 -8.61325E+03  6.89154E+03 -6.38385E+03  3.47498E+03
 -4.74664E+03 -6.50726E+03 -3.47256E+02 -9.75254E+03  3.68906E+03 -1.23179E+04  1.61966E+03 -1.13181E+04
 -2.90792E+02  2.70293E+02  4.25216E+03  2.31960E+03 -1.44831E+03  3.68721E+02  4.99331E+03 -6.24179E+03
  1.55948E+03  3.08186E+02  1.21311E+04  3.29310E+03  1.02706E+04  4.38721E+03  5.45786E+03  1.52694E+04
 -3.31909E+03  1.92368E+04 -1.32186E+04  2.05757E+04 -2.39944E+04  6.02296E+03 -1.78845E+04 -5.70098E+03
 -7.52530E+03 -1.09038E+04 -9.35878E+01 -1.10282E+04  1.32144E+03 -4.03589E+03  5.45645E+03  1.02005E+03
  1.57831E+03  3.88026E+03  2.73574E+03 -2.54358E+03 -4.15825E+03  9.45822E+02  1.63776E+03 -2.49958E+03
  5.64563E+03  2.91769E+03  8.69506E+03  4.97688E+03 -7.52658E+03  1.12407E+04 -1.16578E+04  7.68058E+03
 -8.83064E+03 -4.85883E+02 -8.06197E+03 -5.51896E+03  1.21035E+03 -7.16763E+03  3.63010E+03 -1.40331E+04
  1.45399E+04 -5.42410E+03  1.46415E+04  5.40347E+03  3.28934E+03  1.55087E+04  2.04712E+03  1.23904E+04
 -3.73487E+03  1.25378E+04 -7.72974E+03  5.23434E+02 -3.59753E+03 -3.00580E+03  3.16561E+03 -1.11000E+03
  3.49959E+01 -1.97858E+03 -2.56103E+03  2.96805E+03 -4.95397E+03  2.91844E+03 -8.19271E+03 -9.83175E+03
 -5.90238E+03 -7.72271E+03 -2.72151E+03 -1.10313E+04  6.07269E+03 -7.95944E+03  9.15916E+03 -1.63492E+03
  1.25433E+04  4.95843E+03  7.96159E+03  8.43702E+03 -1.57468E+03  7.84647E+03 -7.31774E+03  4.49637E+03
 -1.06373E+04  2.02992E+03 -7.17148E+03 -8.99699E+03  1.29181E+03 -8.26681E+03  2.17874E+03 -4.89614E+03
  4.61301E+03 -4.32768E+03  2.15584E+03  1.76139E+03 -3.32760E+02  8.05454E+02 -1.95168E+03  5.01679E+03
 -4.99041E+03 -2.11660E+03  1.71507E+03  3.73737E+03  5.66559E+03  1.20993E+03  1.42452E+03  6.21964E+03
  4.62796E+02  7.12499E+03 -8.59283E+03  6.64831E+03 -1.25872E+04 -3.79570E+03 -1.59988E+04 -1.04352E+04
 -7.21551E+03 -9.47639E+03  5.01117E+03 -1.04642E+04  5.02005E+03 -5.89798E+03  5.97954E+03 -1.61215E+03
  4.03498E+03  1.22792E+03  5.51620E+02  1.06936E+03 -1.89584E+02  4.72142E+03 -5.66047E+03  2.66162E+03
  2.34774E+03 -2.58278E+03  2.19516E+03 -6.38698E+03  4.87680E+03 -4.16442E+03  2.19431E+03 -1.05963E+03
  1.56636E+03  3.94232E+03  6.01440E+03  2.42410E+03  1.78637E+03 -4.55694E+02  3.12794E+03 -2.69875E+02
  1.96241E+03 -1.56097E+03  4.53452E+03  1.13581E+03  2.13998E+03  5.14033E+03  4.49462E+03  5.77710E+03
 -3.72035E+03 -1.95579E+03 -8.66572E+03 -1.14689E+03 -2.16342E+03 -5.81567E+03 -5.11451E+03 -1.80879E+03
  7.92387E+02 -1.92464E+03  5.20596E+03 -4.45381E+03 -3.62276E+01  3.96329E+03  2.17066E+03  1.39737E+03
 -2.61874E+03 -4.94494E+02 -2.04063E+03 -1.55991E+03  1.06652E+03 -6.48072E+03 -7.47004E+02 -4.40365E+03
 -7.08547E+02  3.24211E+03  1.25640E+03  5.95779E+03  3.92517E+03  2.54975E+03  3.93085E+02 -1.66444E+03
  9.56880E+02  2.52683E+02  2.94000E+03 -2.21637E+02  5.03120E+03 -2.53405E+03  3.33457E+03 -3.82411E+03
  3.70486E+03 -4.59095E+03  5.69792E+03  3.76908E+03 -1.09044E+03  7.66382E+03 -5.94901E+03  6.13847E+03
 -3.41344E+03  1.89767E+03 -7.95411E+03 -7.39969E+03 -6.07366E+03 -5.88810E+03  3.67655E+03 -6.63531E+03
  4.99067E+03 -7.10681E+02  2.03534E+03 -1.19826E+03 -3.23862E+03 -1.98589E+03 -1.26256E+02  1.79188E+03
 -4.38653E+03  1.64714E+03 -3.77207E+03  2.36580E+02 -2.49981E+03 -4.67197E+03 -7.63270E+03  1.18127E+03
 -5.77324E+02  3.32869E+03 -1.82150E+03  7.68267E+03 -1.02063E+04 -8.57691E+02 -9.89149E+03 -4.01903E+03
 -9.57508E+02 -6.75507E+03  3.37809E+03 -7.33654E+03  5.47709E+03 -8.95441E+03  9.93601E+03 -2.32549E+03
  6.66522E+03  1.02823E+04  7.76817E+03  5.62071E+03  1.34707E+03  6.39360E+03  1.83613E+03  5.68483E+03
 -3.16727E+03  2.89695E+03  2.68821E+03 -5.03685E+03 -1.47975E+03 -1.00722E+03 -2.34399E+03 -1.21497E+03
 -1.72427E+03 -4.23686E+03 -5.43804E+03  2.66274E+03 -4.50465E+02 -6.84166E+03 -1.50550E+03 -6.49206E+03
  5.38337E+03  2.83988E+03 -3.00621E+03 -7.51399E+02  1.65799E+03  1.45390E+03  4.33867E+02  4.97875E+03
 -3.18910E+03  1.56419E+03 -1.55363E+03  3.48429E+02 -4.17059E+03 -2.40827E+03 -3.27477E+03 -1.98168E+03
 -6.19949E+03 -1.05186E+04 -5.75906E+02 -8.52738E+02  3.61484E+03 -1.34251E+03  5.84728E+03  4.49563E+03
  3.32301E+03  7.51056E+03 -8.88334E+02  6.00083E+03 -5.08282E+03  4.31208E+03 -2.37494E+03  2.85481E+03
  4.88633E+01 -2.26650E+03  4.18680E+03  2.75369E+02  5.83092E+03  3.87371E+03  8.61675E+02  7.61039E+02
 -3.16476E+03  5.73818E+03 -5.50606E+03  3.60214E+03  4.41552E+02 -1.37098E+03  1.14252E+03 -6.74383E+03
  1.56573E+03 -4.41842E+03  2.41988E+03  8.35375E+02  6.33279E+03 -2.69217E+03  4.64633E+03  1.99102E+03
  9.60136E+02  1.93772E+03  3.13103E+03  2.10187E+02  2.37503E+03  1.58047E+02 -3.65449E+00 -9.24095E+02
  5.12810E+02 -1.08630E+03  2.06599E+03 -2.21464E+03 -1.73261E+03  6.45163E+02 -7.14788E+03 -3.78880E+03
 -4.40707E+03  2.06636E+03  1.31277E+03 -4.73194E+03  5.69918E+03 -6.18177E+03  2.20777E+03 -1.99599E+02
  8.53166E+03 -1.20502E+03  2.08217E+03  4.35412E+03 -2.16523E+03  3.78727E+03 -3.01317E+03  1.48930E+03
