 $NMID ID='MM_0lb_SNR50_20hz_g45_94.RAW', FMTDAT='(8E13.5)'
 TRAMP=1., VOLUME=1. $END
  3.08362E+05  4.58030E+02  3.38560E+05  2.51631E+05  8.28853E+04  3.38767E+05 -1.31887E+05  2.48018E+05
 -1.89092E+05  8.13967E+04 -1.09398E+05 -3.16353E+04  9.17436E+03 -5.24003E+04  5.43100E+04  3.63986E+03
  3.61877E+04  5.60137E+04 -2.05739E+04  7.92964E+04 -5.97427E+04  6.23040E+04 -8.14817E+04  3.00609E+04
 -8.12934E+04 -1.14121E+04 -6.00246E+04 -4.98664E+04 -1.18982E+04 -7.05855E+04  2.90978E+04 -4.47609E+04
  3.88883E+04  4.93199E+03  1.59496E+04  4.69258E+04 -3.57846E+04  4.50503E+04 -6.86956E+04 -7.30229E+03
 -4.75461E+04 -5.65137E+04 -7.47512E+03 -7.65450E+04  3.20339E+04 -5.12310E+04  4.69718E+04 -1.68678E+04
  3.91670E+04  1.08530E+04  3.15158E+04  2.17968E+04  1.44610E+04  2.81042E+04 -3.00765E+03  2.68788E+04
 -1.93580E+04  1.50470E+04 -1.73588E+04 -1.20199E+03  3.82647E+03 -2.80592E+03  2.06628E+04  1.04685E+04
  4.29537E+03  3.07772E+04 -2.87713E+04  2.91417E+04 -6.21184E+04  2.01675E+03 -5.78319E+04 -4.29694E+04
 -1.30312E+04 -6.15022E+04  4.04616E+04 -3.94809E+04  5.57707E+04 -4.21443E+02  2.86009E+04  2.70327E+04
 -6.41431E+03  3.04058E+04 -2.51408E+04  1.19836E+04 -2.70114E+04 -4.33714E+03 -1.19778E+04 -6.90030E+03
 -4.91520E+03 -1.43390E+04 -5.53113E+02 -1.79756E+04  3.56568E+03 -2.18727E+04  1.23066E+04 -1.09093E+04
  1.26999E+04  5.18886E+03 -3.79319E+03  1.51020E+04 -1.69320E+04 -4.97755E+03 -7.92612E+03 -3.11474E+04
  1.93772E+04 -3.72033E+04  4.45388E+04 -1.87055E+04  4.27831E+04  1.63107E+04  1.32910E+04  3.90445E+04
 -1.72191E+04  2.78708E+04 -2.34981E+04 -2.93778E+03 -7.08180E+03 -2.56402E+04  1.57934E+04 -2.78510E+04
  3.76962E+04 -4.87353E+03  2.96156E+04  1.85344E+04  1.47702E+04  4.32093E+04 -7.54056E+03  4.17455E+04
 -2.45130E+04  2.90158E+04 -3.39101E+04  6.33354E+03 -3.59401E+04 -1.35657E+04 -1.98106E+04 -3.12068E+04
  4.16068E+03 -3.60372E+04  2.87968E+04 -1.35706E+04  2.56140E+04  1.02692E+04  3.82879E+03  1.50733E+04
 -1.26174E+04  5.20926E+03 -9.75956E+03 -7.58937E+03  3.86455E+03 -9.12126E+03  1.52227E+04  7.36086E+03
  9.50543E+03  2.49151E+04 -6.43724E+03  1.96716E+04 -2.56373E+04  5.01525E+03 -2.50450E+04 -6.29917E+03
 -1.58679E+04 -1.71770E+04 -4.09708E+03 -1.94221E+04  5.75823E+03 -1.26879E+04  9.98111E+03 -1.55068E+04
  2.08969E+04 -1.33367E+04  2.52721E+04 -3.89069E+02  2.03228E+04  1.79730E+04  4.99236E+03  2.98930E+04
 -1.50102E+04  2.58147E+04 -2.75813E+04  7.53726E+03 -2.06180E+04 -1.05117E+04 -2.79576E+03 -1.62995E+04
  4.44207E+03 -8.78777E+03  2.21402E+03  4.91959E+02 -1.22889E+04  6.81611E+03 -1.17591E+04 -3.83201E+03
 -1.03286E+04 -1.40292E+04  4.65784E+03 -1.88885E+04  1.20349E+04 -1.34490E+04  1.65769E+04  2.52062E+03
  1.02033E+04  9.11981E+03  1.24828E+03  1.70972E+04 -1.13817E+04  1.09956E+04 -1.47593E+04 -3.25402E+03
 -1.38363E+04 -1.27462E+04  2.44473E+03 -2.03752E+04  6.96198E+03 -1.32922E+04  1.88280E+04 -9.04842E+03
  1.62670E+04  9.36633E+02  1.07785E+04  3.41456E+03  6.31698E+03 -5.06491E+03  7.45087E+03 -1.01865E+03
  1.52409E+04  2.15870E+03  1.62194E+04  1.20337E+04  9.80253E+03  2.28077E+04 -2.88972E+03  2.39711E+04
 -1.27330E+04  2.02851E+04 -2.07413E+04  1.16257E+04 -2.38343E+04 -1.77623E+03 -2.66815E+04 -1.63911E+04
 -6.75970E+03 -1.96734E+04  8.65877E+03 -1.92065E+04  1.69920E+04 -1.29088E+04  1.93683E+04  5.45880E+03
  7.93835E+03  5.46003E+03 -5.19259E+03  9.68204E+03 -1.42261E+04  6.94381E+03 -8.03249E+03 -6.51297E+03
 -1.13581E+03 -1.34561E+04  7.32958E+03 -9.95812E+03  1.15165E+04  6.37683E+02 -2.49247E+03  2.95429E+03
  7.26012E+02  1.63846E+03 -9.85924E+02 -4.91700E+03 -3.65550E+03 -4.11095E+03  8.54855E+03 -9.88483E+03
  1.38686E+04 -5.30884E+03  9.70031E+03  3.92368E+03  9.21382E+03  9.69790E+03  2.53185E+03  1.35423E+04
  3.58339E+03  1.71392E+04 -7.23720E+03  9.87447E+03 -5.92438E+03  6.12918E+03 -7.63147E+03  1.09314E+03
 -4.62984E+03 -6.10574E+03 -1.90373E+03  1.77200E+03 -3.44484E+02 -3.68760E+01 -3.63452E+03  5.62656E+03
 -5.09285E+03  3.41296E+03 -6.16824E+03 -6.78553E+03 -6.20100E+03 -1.20065E+04  6.90961E+03 -7.49498E+03
  8.61173E+03 -4.44707E+03  5.68641E+03 -1.61098E+03 -3.48680E+02  2.84810E+03 -3.28236E+03  7.34107E+02
 -4.81379E+03 -2.64738E+03  5.14390E+02 -8.71398E+03  2.67892E+03 -3.55352E+03  1.12793E+04 -4.23603E+03
  9.12621E+03  9.37896E+02  4.21081E+03  6.46259E+03  3.42492E+03  1.00438E+04 -8.37314E+03  8.38247E+03
 -6.44750E+03  4.70021E+03 -4.98678E+03  2.71707E+02  1.73855E+03  4.45351E+02  6.77872E+03 -1.21096E+03
  4.35421E+03  2.95575E+03 -5.36416E+02  6.84908E+03 -4.47301E+03  6.45760E+03 -5.21001E+03 -1.64868E+03
 -4.27905E+03 -7.31449E+02  4.12418E+03 -9.38116E+03  4.22690E+03 -4.21452E+03  1.85939E+03 -2.78616E+02
 -3.41707E+02  6.72419E+03 -6.09388E+03  5.43152E+03 -6.28312E+03  6.22704E+03 -5.89035E+03 -6.56270E+02
 -5.29321E+03 -6.64281E+03 -2.04627E+03 -8.51014E+03  4.61225E+03 -2.91215E+03  7.35524E+03  2.90538E+03
  4.75058E+03  5.40157E+03 -1.91310E+02  1.20997E+04 -1.46469E+03  4.26992E+03 -5.08659E+03  1.48591E+03
 -7.01556E+03 -1.57644E+03  1.10834E+03  1.38904E+02  2.05186E+03 -3.89766E+03  4.38378E+03 -5.64244E+02
  5.25797E+03 -2.16503E+03  1.08850E+03  4.24887E+02  1.78873E+03 -2.97315E+03 -1.36065E+03 -6.14468E+03
  1.80096E+03  3.31853E+03  3.19257E+03 -1.03640E+02  4.42255E+03  5.78926E+03  1.78443E+03  1.03545E+04
 -2.08645E+03  5.84581E+03 -4.88411E+03  2.89946E+03 -1.08477E+04  6.44559E+02 -3.77517E+03 -3.76287E+03
 -3.87096E+03 -7.57429E+03 -8.92183E+02 -6.25438E+03  1.12665E+03 -3.48924E+03  4.41948E+03 -3.51545E+03
  7.26083E+01 -1.19966E+03  2.71762E+03 -1.07631E+03  6.28794E+03 -1.21811E+03  3.09831E+03 -2.49365E+03
  1.54754E+03  2.84328E+03 -3.49855E+02  4.23079E+03  1.97708E+03  5.94241E+02 -4.41214E+03 -2.45335E+03
 -3.08014E+03 -3.94579E+02 -8.14316E+02 -8.53061E+03  1.63496E+03 -7.46977E+03  2.92602E+03 -5.76706E+03
  3.15835E+03 -3.97100E+03  2.59926E+03 -2.41426E+03  6.73128E+02  4.33075E+03 -8.38356E+02  3.12865E+03
  2.22058E+03  6.05386E+03 -1.14062E+03  3.62550E+03 -1.94477E+03 -1.00973E+03 -1.39838E+03 -1.94470E+03
 -1.04327E+03  5.48190E+03  3.64276E+03  5.63543E+02 -3.42500E+02  1.20695E+03 -1.99776E+03  8.38738E+02
  1.55427E+03 -2.98423E+03 -7.19747E+01 -5.34660E+03  2.19735E+03 -4.08025E+03  8.91977E+02 -2.17336E+03
  3.84398E+03 -2.76793E+03  3.40302E+03  9.32566E+02  3.27365E+02  9.83482E+03 -2.19632E+03 -2.98260E+02
 -4.50153E+02  3.23626E+02 -3.85230E+03 -2.50563E+03  4.82837E+02 -3.66921E+02  3.20931E+03 -4.82191E+03
 -2.93808E+03  3.29791E+03  3.59516E+02 -1.90192E+03 -6.99019E+02  2.52992E+03 -2.56936E+03  2.92297E+03
  1.73321E+03  1.87924E+03 -6.26429E+02  1.05602E+03  4.59982E+02  7.97047E+02  1.22535E+03 -1.94320E+03
 -1.60312E+03  6.24173E+02 -3.65287E+03  3.09035E+03 -5.01628E+03 -2.36976E+03 -2.28268E+03 -3.08296E+03
  3.49189E+02 -3.39757E+03  3.68939E+02 -4.84136E+03  5.09238E+03 -5.45521E+03  1.58649E+03 -5.48634E+03
  3.48992E+03 -4.48663E+02  1.23559E+03  4.28969E+03  1.26890E+03 -4.87135E+02  1.50863E+03 -8.06008E+02
 -1.19112E+03  4.15836E+03 -6.79608E+02  4.98934E+02 -7.11978E+02 -4.65128E+03 -1.52275E+03  2.47760E+03
  8.54303E+02 -1.23444E+03  4.14157E+03  1.09559E+03 -1.15914E+03  9.42091E+02  4.79172E+03  7.08759E+01
  4.10994E+03  1.74514E+00  3.47759E+03  4.34591E+02  2.16209E+03  7.16241E+02  1.77202E+03  7.18897E+02
 -5.57490E+03 -2.01368E+03 -7.61181E+03 -2.16106E+03 -1.27808E+03 -4.50371E+02 -5.38670E+03 -4.30581E+02
 -1.48358E+03 -3.52868E+03 -2.97402E+02 -3.21987E+03  1.45278E+03  8.13594E+02  4.70611E+02  1.56761E+03
 -8.16201E+02  3.78376E+03 -2.34005E+03 -7.86849E+03 -1.72651E+03 -4.72881E+03 -4.68962E+02  2.64398E+02
  1.21789E+03 -7.61901E+02 -1.38347E+03  5.10164E+03 -5.38273E+02 -1.73947E+03 -1.25362E+03 -1.40493E+02
 -2.40864E+03 -5.08873E+02 -2.72489E+02  4.00460E+03  3.75070E+03  3.55256E+03  2.97290E+03 -1.80582E+03
  1.10117E+02 -1.40048E+03  5.44765E+03 -2.89539E+03  1.06024E+03  9.96887E+02  3.09222E+03  2.41967E+03
 -3.42354E+03 -6.17261E+03 -2.60720E+03  5.61993E+03 -3.25552E+03 -4.52384E+03 -1.26261E+03  7.41788E+02
  2.49407E+03 -3.54705E+02  1.06748E+03  3.92156E+01 -1.13991E+03  9.95421E+02 -9.90496E+02 -1.48791E+03
  3.66341E+02  2.36589E+03 -1.84501E+03 -2.93685E+02 -1.29715E+03  9.96794E+02  2.70980E+03  3.60212E+03
 -2.34885E+03  1.88608E+03  2.23348E+03  4.05991E+03 -2.82721E+02  3.78696E+03  1.82059E+03  4.12199E+03
 -3.02222E+02  1.68690E+02  5.38744E+02 -1.11522E+03  1.99394E+03 -3.63672E+03  6.54797E+02 -4.58851E+03
  3.60872E+03 -1.83056E+03 -3.91299E+03  2.58413E+02  1.84008E+03 -1.90250E+03 -1.97776E+03  2.36278E+03
 -9.03314E+02  2.18145E+03 -4.03377E+03 -2.02580E+03 -3.45227E+03  1.47415E+03  1.17257E+02 -4.35168E+03
 -1.91185E+03  1.01443E+03 -1.49730E+03 -1.90474E+03 -1.73106E+03 -1.80705E+02 -7.65726E+02  1.77362E+03
 -5.69634E+02  1.74826E+03 -3.23501E+03  2.92492E+03  3.38605E+03 -8.98088E+02  2.26978E+03  2.53053E+03
  1.20812E+03  7.38700E+02  2.17068E+01  1.94141E+03 -2.03167E+03 -1.66123E+03 -2.41587E+03  2.45221E+02
  2.77775E+03 -1.21203E+03  6.27699E+02 -3.82859E+03  6.29612E+02  1.71310E+02 -2.72895E+03 -3.81400E+03
 -6.87286E+02 -5.16685E+02  3.37627E+03 -1.87820E+03 -1.19334E+03 -2.86547E+03 -2.21008E+03 -3.15018E+03
  1.60824E+03  1.50448E+03 -7.29933E+02  8.17174E+02 -8.26784E+02  1.18205E+03 -2.42053E+03  2.75923E+03
  3.92515E+03  1.46675E+03  1.32163E+03 -2.59323E+03  1.36035E+03  3.48171E+03 -5.49035E+02 -2.78455E+02
 -1.52031E+03  1.59967E+03  4.75574E+03  3.08551E+02  1.53037E+03 -7.46883E+02  1.57609E+03  4.30685E+03
  2.22794E+02  3.24769E+03 -3.86067E+02  4.40723E+03 -3.06440E+03  1.14770E+03 -7.95692E+02 -1.63772E+03
  3.69373E+03 -3.78113E+03  2.27871E+03 -5.98544E+02 -2.37208E+03  2.69972E+03  1.01041E+03 -2.72933E+03
 -2.59664E+03  1.09272E+03  9.12747E+02 -1.28533E+03  1.32219E+03 -1.52450E+03  3.33561E+03  1.20330E+02
 -3.31540E+03  9.76878E+02 -1.53334E+03 -1.83673E+03 -1.69079E+03 -1.87356E+03  6.72916E+01 -6.85560E+02
