 $NMID ID='MM_0lb_SNR50_13hz_g60_21.RAW', FMTDAT='(8E13.5)'
 TRAMP=1., VOLUME=1. $END
  3.12499E+05 -2.18595E+03  3.43058E+05  2.52788E+05  8.27187E+04  3.37990E+05 -1.35634E+05  2.56057E+05
 -1.92031E+05  8.32547E+04 -1.11770E+05 -3.11683E+04  4.48522E+03 -4.78111E+04  4.60014E+04 -3.85045E+03
  3.15981E+04  5.21314E+04 -1.94944E+04  8.02696E+04 -5.45715E+04  6.37824E+04 -8.76767E+04  2.90977E+04
 -8.94109E+04 -1.14250E+04 -5.54373E+04 -5.13800E+04 -1.43845E+04 -6.91048E+04  3.24214E+04 -4.32654E+04
  3.45132E+04  8.08187E+03  1.33200E+04  5.04755E+04 -3.43203E+04  4.35477E+04 -6.80712E+04  7.66928E+03
 -5.69781E+04 -5.75264E+04 -3.60770E+03 -8.01931E+04  3.98003E+04 -5.95320E+04  5.21570E+04 -1.44343E+04
  4.04253E+04  1.35592E+04  3.26607E+04  2.54788E+04  1.84745E+04  2.70868E+04 -9.77508E+03  3.13372E+04
 -2.00642E+04  1.30565E+04 -1.79681E+04 -6.65009E+03  5.04043E+03 -1.00092E+04  2.03643E+04  1.30129E+04
  9.60013E+03  3.76178E+04 -2.95227E+04  3.62791E+04 -6.48280E+04  2.88645E+03 -5.78361E+04 -4.78226E+04
 -1.20092E+04 -5.93255E+04  4.40970E+04 -4.08567E+04  5.90123E+04 -3.78811E+03  3.41511E+04  3.43819E+04
 -9.47407E+03  3.40871E+04 -3.47825E+04  1.55633E+04 -3.37195E+04 -4.43983E+03 -1.71445E+04 -1.00605E+04
 -1.04194E+04 -1.83351E+04 -4.26166E+02 -2.35784E+04  6.42974E+03 -1.66987E+04  1.43077E+04 -1.17578E+04
  1.17297E+04  5.35201E+03 -8.21978E+03  1.66762E+04 -2.09307E+04 -2.34791E+03 -4.91444E+03 -3.01556E+04
  2.02364E+04 -4.46918E+04  5.06837E+04 -2.10712E+04  4.51527E+04  1.90091E+04  1.97340E+04  4.75998E+04
 -2.07913E+04  3.56180E+04 -2.49482E+04  4.51615E+03 -8.88977E+03 -2.61306E+04  2.46342E+04 -3.63747E+04
  4.46417E+04 -1.13322E+04  3.75851E+04  2.37388E+04  1.70553E+04  4.75652E+04 -3.48248E+03  5.42970E+04
 -3.19934E+04  3.84709E+04 -4.31054E+04  1.09371E+04 -4.92036E+04 -1.97275E+04 -2.09654E+04 -3.81440E+04
  1.13403E+04 -3.59204E+04  3.08153E+04 -1.54287E+04  3.27372E+04  9.13115E+03  5.31596E+02  1.60860E+04
 -1.12806E+04  1.60966E+04 -9.75859E+03 -7.81122E+03  8.08415E+03 -1.26144E+04  1.71536E+04  9.40691E+03
  1.57104E+04  2.56739E+04 -4.53489E+03  2.90621E+04 -2.09563E+04  1.54619E+04 -2.90249E+04 -1.45315E+03
 -2.18145E+04 -1.53791E+04 -1.17812E+04 -2.90571E+04  8.18831E+03 -2.40649E+04  1.49583E+04 -1.81456E+04
  2.78249E+04 -1.31340E+04  3.63348E+04  1.09936E+02  2.43340E+04  2.09833E+04  2.30185E+03  4.53912E+04
 -2.11450E+04  3.21876E+04 -2.80081E+04  9.48256E+03 -2.16087E+04 -1.21240E+04 -5.36687E+03 -1.16796E+04
  2.76551E+03  1.48064E+03 -8.83447E+03  8.23853E+03 -1.97233E+04  6.19356E+03 -1.78185E+04 -4.46320E+03
 -9.60711E+03 -2.01464E+04  6.87914E+03 -2.22964E+04  1.39653E+04 -1.79171E+04  2.05223E+04 -2.13535E+03
  1.31905E+04  9.76685E+03  1.10812E+03  2.03857E+04 -1.65168E+04  1.44708E+04 -1.95340E+04  7.57844E+02
 -1.94008E+04 -2.28951E+04 -1.01369E+03 -2.52283E+04  1.21020E+04 -1.72983E+04  1.62048E+04 -6.56858E+03
  2.25138E+04 -3.61839E+03  1.24736E+04  3.33912E+03  6.93564E+03  3.34274E+03  5.11719E+03 -1.00019E+03
  2.36838E+04  3.65175E+02  2.12322E+04  2.05049E+04  1.53532E+04  3.40278E+04 -4.73955E+03  3.84167E+04
 -2.14472E+04  3.48269E+04 -3.28004E+04  1.72447E+04 -3.89088E+04 -3.47031E+03 -3.25250E+04 -2.69877E+04
 -1.27870E+04 -3.14126E+04  1.27288E+04 -2.54996E+04  2.65332E+04 -1.49245E+04  1.97236E+04  3.63360E+03
  5.95445E+03  1.66544E+04 -1.13020E+04  7.23851E+03 -1.81665E+04 -2.01380E+03 -1.60514E+04 -6.05773E+03
  1.71417E+03 -2.40159E+04  6.51261E+03 -1.40753E+04  1.23881E+04  1.08192E+03  6.15557E+03  7.48151E+03
 -1.01057E+04  6.82538E+02 -1.42718E+04 -1.37025E+04 -3.54982E+03 -1.44546E+04  9.57546E+03 -1.43148E+04
  2.25342E+04 -6.82754E+03  1.69945E+04  2.82353E+03  1.73631E+04  1.27731E+04  1.15446E+04  2.23180E+04
 -2.36961E+03  2.58647E+04 -1.80248E+04  1.97524E+04 -1.56522E+04  4.51431E+03 -1.39030E+04 -4.33805E+03
 -4.22556E+03 -6.35590E+03 -1.38357E+03  1.03866E+03  2.86706E+02 -1.92021E+03 -4.23034E+03  4.59264E+03
 -1.73748E+04 -3.50735E+03 -9.02102E+03 -6.46037E+03 -5.21220E+03 -1.57302E+04  5.81423E+03 -8.06629E+03
  1.14024E+04 -8.91240E+03  1.17534E+04  2.11825E+03 -2.11936E+03  1.12990E+03 -8.49852E+03 -2.81571E+03
 -9.62846E+02 -7.59259E+03 -2.37863E+03 -1.10095E+04  1.07939E+04 -1.45954E+04  1.51078E+04 -8.48381E+03
  1.47599E+04  2.38614E+03  1.06954E+04  1.33449E+04  3.87671E+03  1.75590E+04 -7.63118E+03  1.37320E+04
 -1.01438E+04  2.46485E+03 -4.68500E+03 -6.94525E+03 -1.09746E+03 -3.61463E+03  6.37399E+03 -4.23161E+03
  1.12104E+04  1.04468E+04  2.46783E+03  1.46923E+04 -5.14445E+03  8.91589E+03 -1.07818E+04  2.43501E+03
 -5.86756E+03 -2.28596E+03 -1.07445E+03 -1.20023E+04  3.25407E+03 -5.32263E+03  8.76671E+03  2.98758E+03
  5.23285E+03  4.97893E+03 -6.65338E+03  1.06148E+04 -8.22539E+03 -8.43283E+02 -1.19612E+04 -9.67526E+02
 -9.19329E+03 -1.06586E+04  5.74085E+03 -1.24360E+04  1.42216E+04 -1.16024E+04  1.13481E+04  4.86072E+03
  6.10780E+03  9.15905E+03  2.41716E+03  1.18788E+04 -7.13880E+03  4.47458E+03 -8.22482E+03 -6.47487E+02
 -5.71486E+03 -1.24763E+04 -3.19590E+03 -1.29330E+04  3.82724E+03 -5.45074E+03  1.81207E+03  3.64077E+03
  4.38847E+03  2.03431E+03 -2.62726E+03  6.03013E+03  4.59491E+01 -4.54530E+03 -1.62444E+03 -7.22645E+03
  8.84528E+03 -5.98158E+03  1.46763E+04  3.82178E+02  1.00566E+04  4.62102E+03  9.49898E+03  1.48216E+04
 -9.34642E+03  1.60149E+04 -1.82988E+04  1.40700E+04 -2.24504E+04  4.01058E+03 -1.56887E+04 -9.27059E+03
 -1.42283E+04 -1.46244E+04  3.79434E+02 -1.22116E+04  7.69035E+03 -2.25222E+03  1.12883E+04 -5.57909E+03
  7.27341E+03 -2.07074E+03 -6.34821E+01 -6.63707E+03  9.85171E+03 -5.27540E+03  4.61470E+03 -3.83242E+03
  9.14954E+03  2.77209E+03  5.25578E+03  5.39959E+03 -5.50769E+03  6.45028E+02 -8.80116E+03  1.03014E+04
 -1.10211E+04 -4.38593E+03 -6.66291E+03 -2.37214E+03 -2.41739E+03 -1.56748E+04  1.11610E+04 -1.31168E+04
  8.25255E+03 -5.19454E+03  1.05695E+04 -1.26168E+03  9.30085E+03  4.70476E+03 -5.32822E+01  1.44524E+04
 -4.26814E+03  9.76744E+03 -7.17764E+03  6.56639E+03 -1.93582E+03  3.33111E+03  5.99456E+02 -5.11402E+03
  5.84820E+02 -2.21666E+03 -3.14073E+02  1.39420E+03 -8.95936E+03  3.11864E+03 -5.61444E+03  7.89929E+02
 -4.56862E+03 -7.71998E+03 -2.48233E+03 -7.97402E+03  8.49206E+03 -1.06286E+04  1.01095E+04 -5.11217E+03
  6.43313E+03  4.08394E+03  3.79758E+03  3.60213E+03 -6.95794E+02  8.24570E+03 -9.83565E+03  9.11437E+03
 -7.76185E+03  6.56429E+03 -1.00608E+04 -7.67968E+03 -2.16669E+03 -1.15860E+04  6.65303E+03 -1.16580E+04
  7.34819E+03 -5.15738E+03  2.24933E+03  2.68024E+03 -3.16388E+03  1.78296E+03  1.46233E+03 -1.62191E+02
  3.12396E+03  5.96149E+03 -6.82721E+02  5.49984E+03  1.62541E+02  5.63581E+03  3.31781E+03  5.27900E+03
 -7.51116E+03  3.26238E+03 -7.33557E+03  4.26495E+03 -8.91484E+03 -2.46571E+03 -1.04536E+04  6.05231E+02
 -5.71889E+03 -6.18515E+03 -3.50743E+03 -8.53369E+03  7.05113E+03 -1.03321E+04  6.57325E+03 -1.34314E+03
  8.59672E+03  5.44945E+03 -1.97318E+02  4.77092E+03 -7.44191E+03 -4.48874E+02 -6.16749E+03  1.49203E+03
 -3.61991E+03 -4.00188E+03  4.10014E+03 -6.95008E+03  4.50771E+03 -1.89247E+03  2.13839E+03  2.27869E+03
  7.89218E+03  1.10500E+03 -1.29428E+02 -3.30834E+03 -8.20342E+02  5.83394E+02  1.48249E+03 -9.42261E+03
 -1.35779E+03 -4.25775E+03  3.55231E+03  2.31334E+03  5.41165E+03  3.42392E+03 -5.85578E+03  2.17066E+02
 -4.96489E+03  8.12216E+03 -6.27038E+03  9.95181E+02 -4.09508E+03 -2.96067E+03 -6.34804E+02 -1.89175E+03
  3.97993E+03  1.67415E+03  3.78260E+03 -6.05731E+03  3.58290E+02 -1.17353E+03  1.17849E+03  4.49025E+02
 -4.58263E+03  3.50110E+03 -4.44081E+03  5.54643E+03 -7.59678E+03 -5.23702E+03  1.56677E+03 -6.08223E+03
  1.78961E+03 -1.06314E+03  4.98619E+03  2.77695E+03  9.88316E+03  6.71634E+02 -2.14511E+03  5.34137E+03
  1.47995E+03 -2.58451E+03  1.33232E+03  1.26499E+03  6.55273E+02 -4.00803E+03 -1.42860E+03 -1.71422E+03
  6.22904E+03  1.57253E+03  6.79195E+03  3.69710E+03  2.76536E+03  6.07780E+03 -4.44164E+03  5.54734E+03
 -3.68684E+03  3.75587E+03 -8.36147E+03 -3.66702E+03 -1.18745E+03 -4.40690E+03  1.60410E+02 -4.38722E+03
  3.55940E+03 -1.94797E+03  2.13531E+03  8.79398E+03  4.27456E+03  6.27589E+03 -3.84000E+03  1.66952E+03
  1.18293E+03  2.27047E+03 -1.47949E+03 -2.40291E+03  4.15352E+02 -2.21115E+03 -6.05421E+02  7.84151E+03
 -2.29563E+03 -8.17146E+02 -2.53691E+03  2.66681E+03 -7.57390E+03 -2.97701E+03 -6.89387E+03 -2.86802E+03
 -6.32307E+03 -5.65864E+03 -1.70160E+03 -9.20206E+03  4.35474E+03 -7.42347E+03  6.23413E+03 -1.41645E+03
  2.51133E+03 -2.66338E+03  8.99596E+03  5.74613E+03 -2.75160E+02  6.07215E+03  1.26180E+03  4.69219E+03
 -2.39818E+03 -4.04187E+03 -9.38845E+03 -2.00537E+03  1.02090E+03 -5.22692E+03  1.40862E+03  1.81901E+02
 -1.02070E+03 -3.21414E+03 -2.52351E+03  8.34408E+02  1.68648E+03 -4.58152E+02  8.85717E+01 -3.04453E+03
  4.39406E+03 -3.20361E+03  2.76086E+02  1.29705E+03  6.08893E+03  3.41745E+03  9.81918E+03  1.79128E+03
 -1.08795E+03  9.40132E+03  2.01114E+03  1.12018E+03 -1.00053E+04  7.99032E+02 -2.74571E+03 -3.16478E+03
 -5.84865E+02 -1.17277E+04 -1.23932E+03 -6.96107E+03  1.95158E+03 -6.64750E+03  3.05665E+03  1.89864E+03
  6.90409E+03  4.59785E+03 -4.99765E+03 -3.72527E+03  7.00681E+02  5.69028E+02 -1.93730E+03 -4.96328E+03
  4.46706E+03 -6.40954E+01  1.26576E+03  2.18117E+02  4.96804E+03 -2.18237E+02  8.30065E+02 -5.94580E+02
  7.32408E+02  5.19621E+03 -5.75991E+03  3.03886E+03 -5.43733E+03 -1.71086E+03 -2.65428E+02 -4.24353E+03
  3.08021E+03  1.85558E+02  7.42685E+03  1.69814E+03  7.84342E+03 -5.46691E+02 -1.54458E+03  4.35644E+03
  1.75404E+03  2.17432E+03 -3.07577E+03  3.93802E+03 -3.97103E+03  4.70895E+03 -1.62493E+03 -4.36387E+03
 -3.93495E+03 -1.56699E+03 -4.40966E+03  2.52219E+03  1.66848E+03 -1.93656E+03 -1.41148E+03  1.19908E+03
 -1.27169E+03 -8.49802E+02 -2.53426E+03 -2.99408E+03  1.48157E+03  6.97795E+02  3.64568E+03 -2.46842E+02
  2.79100E+03  2.57415E+03 -3.29775E+03 -1.59527E+03 -1.48397E+03  5.59436E+03 -5.64523E+03  6.89117E+02
