 $NMID ID='MM_0lb_SNR50_8hz_g45_83.RAW', FMTDAT='(8E13.5)'
 TRAMP=1., VOLUME=1. $END
  3.05786E+05 -1.05101E+03  3.38130E+05  2.48268E+05  8.49761E+04  3.39957E+05 -1.33908E+05  2.49675E+05
 -1.91786E+05  8.72412E+04 -1.11689E+05 -2.72470E+04  2.50896E+02 -5.41648E+04  5.17632E+04 -1.11867E+03
  3.34066E+04  5.58698E+04 -2.15929E+04  7.61533E+04 -6.19481E+04  6.57218E+04 -8.51254E+04  2.67406E+04
 -8.04840E+04 -6.38319E+03 -5.41960E+04 -4.91077E+04 -1.75757E+04 -6.76500E+04  2.61129E+04 -5.23588E+04
  3.89048E+04 -5.05338E+03  2.00253E+04  4.42413E+04 -4.13875E+04  5.60068E+04 -6.28013E+04  4.86575E+03
 -5.15961E+04 -5.19285E+04 -8.06421E+02 -7.66811E+04  2.99734E+04 -6.06661E+04  4.49504E+04 -1.76317E+04
  4.26613E+04  1.51519E+04  3.45657E+04  1.95463E+04  1.83389E+04  3.55930E+04 -1.29108E+04  2.99458E+04
 -2.28313E+04  5.82869E+03 -1.53452E+04 -1.47835E+03  1.48515E+04 -4.52519E+03  2.41530E+04  1.50914E+04
  9.55529E+03  3.84467E+04 -4.13044E+04  3.99797E+04 -6.10640E+04  1.19087E+03 -5.69919E+04 -4.32058E+04
 -1.23979E+04 -7.11234E+04  3.94172E+04 -4.42939E+04  5.70579E+04 -4.05389E+03  3.56881E+04  3.64260E+04
 -2.08211E+03  4.05220E+04 -3.69703E+04  1.42513E+04 -3.93816E+04 -4.03637E+03 -1.65854E+04 -8.80890E+03
 -1.03472E+04 -1.59515E+04  2.23709E+03 -2.33546E+04  2.90668E+03 -2.20141E+04  1.59734E+04 -1.60501E+04
  1.30922E+04  7.15023E+03 -1.02804E+04  1.50102E+04 -2.39853E+04 -4.96535E+03 -9.29513E+03 -4.10364E+04
  2.98162E+04 -4.46196E+04  4.58115E+04 -1.40779E+04  4.56988E+04  2.63833E+04  1.96834E+04  4.07986E+04
 -1.08169E+04  3.64633E+04 -2.37737E+04 -2.32975E+02 -1.52125E+04 -3.40721E+04  2.71349E+04 -3.78290E+04
  4.05074E+04 -1.07277E+04  4.07089E+04  2.20006E+04  2.65349E+04  5.31428E+04 -7.26430E+03  5.56613E+04
 -3.23275E+04  4.01344E+04 -4.70843E+04  1.18748E+04 -5.03170E+04 -1.78357E+04 -2.42947E+04 -4.23792E+04
  5.06845E+03 -4.25307E+04  4.01554E+04 -2.12511E+04  3.12406E+04  1.43704E+04  6.62218E+03  2.22121E+04
 -1.45382E+04  1.79924E+04 -7.27334E+03 -5.33708E+03  5.77931E+03 -7.59840E+03  1.83456E+04  6.07979E+03
  2.12287E+04  2.22463E+04 -5.30155E+03  2.51872E+04 -1.69232E+04  1.29915E+04 -3.18262E+04 -2.32648E+03
 -2.42331E+04 -1.54738E+04 -9.76451E+03 -2.34598E+04  1.16624E+03 -2.19360E+04  1.97346E+04 -2.98070E+04
  3.58352E+04 -1.06291E+04  3.43718E+04  6.08105E+03  2.41162E+04  2.83654E+04  2.98669E+03  4.29273E+04
 -2.01622E+04  3.47944E+04 -3.26620E+04  1.43927E+04 -2.70452E+04 -5.86631E+03  4.53940E+02 -1.66681E+04
 -2.35330E+02  5.59648E+03 -1.10210E+04  1.20503E+03 -2.64467E+04  4.03172E+03 -2.03472E+04 -1.51019E+04
 -1.62798E+04 -2.24911E+04  4.24076E+03 -2.74577E+04  1.88382E+04 -2.10876E+04  2.86576E+04  2.40292E+03
  1.57382E+04  1.55097E+04 -4.98176E+03  2.20220E+04 -1.93630E+04  1.14629E+04 -2.58102E+04 -2.60267E+03
 -9.68020E+03 -1.94967E+04 -2.18284E+03 -2.64611E+04  1.33684E+04 -2.90743E+04  2.67495E+04 -1.64200E+04
  2.13598E+04  7.80232E+02  9.16100E+03  7.99116E+03  4.37664E+03  2.13027E+02  1.90793E+04  1.58539E+03
  2.68622E+04  3.26008E+03  2.67287E+04  1.21170E+04  1.67852E+04  4.20054E+04  8.68339E+02  4.35899E+04
 -3.19692E+04  3.92668E+04 -4.34629E+04  1.60851E+04 -4.57347E+04 -8.17534E+03 -3.78090E+04 -2.50630E+04
 -1.12453E+04 -3.66982E+04  1.68647E+04 -3.95765E+04  2.67605E+04 -1.41976E+04  2.69107E+04  1.41875E+04
  9.39449E+03  1.97705E+04 -1.71560E+04  1.57683E+04 -1.74321E+04  5.16237E+03 -1.15714E+04 -2.01580E+04
 -4.61711E+03 -2.47784E+04  1.28204E+04 -1.40301E+04  1.17215E+04  6.95577E+03 -5.42099E+02  1.00119E+04
 -6.14115E+03  1.58945E+03 -1.68978E+04 -3.01568E+03 -6.71637E+03 -1.79257E+04  2.33722E+04 -1.93472E+04
  1.93169E+04 -1.45682E+04  2.53235E+04 -1.31656E+03  2.15776E+04  1.91115E+04  1.50311E+04  2.94530E+04
 -1.06296E+04  2.86493E+04 -2.52795E+04  1.52800E+04 -1.66236E+04  3.54125E+03 -1.80587E+04 -7.27897E+03
 -4.81144E+03 -3.00172E+03  1.21549E+03 -3.92961E+03 -7.27851E+02  5.15534E+03 -1.08471E+04  3.63514E+03
 -1.22774E+04  6.21786E+03 -1.52728E+04 -1.36835E+04 -8.94505E+03 -1.60831E+04  5.32702E+03 -1.11969E+04
  1.30826E+04 -8.95993E+03  5.41455E+03  3.29460E+03 -7.25029E+03  1.50295E+04 -8.02110E+03  2.75801E+03
  4.28952E+01 -1.45323E+04 -1.44036E+03 -1.55821E+04  6.52204E+03 -1.90362E+04  2.49516E+04 -7.13302E+03
  2.01702E+04  1.73633E+03  1.51248E+04  1.37078E+04  4.22361E+03  2.05159E+04 -7.38892E+03  1.30320E+04
 -1.22310E+04  5.75671E+03 -7.00297E+02  2.53264E+03  9.18450E+03  1.77590E+03  9.38580E+03 -4.25599E+02
  9.13470E+03  5.58826E+03  7.66641E+03  1.27683E+04 -1.14360E+04  1.00588E+04 -1.41360E+04  8.46206E+03
 -1.12338E+04 -8.75374E+03  2.32489E+02 -1.31154E+04  1.53705E+04 -1.47855E+04  1.40029E+04  2.21819E+03
  2.25867E+03  9.97094E+03 -1.36981E+04  1.13650E+04 -1.83656E+04  9.04863E+03 -1.48791E+04 -2.96004E+03
 -7.09744E+03 -2.16205E+04  6.62906E+03 -1.72785E+04  1.48529E+04 -1.34286E+04  2.30374E+04  3.67990E+03
  8.99588E+03  1.75689E+04  2.20003E+03  2.22018E+04 -1.14635E+04  1.24237E+04 -1.03975E+04 -5.59066E+02
 -6.36732E+03 -1.49146E+04 -3.61328E+03 -8.85979E+03  6.29963E+03 -1.51050E+04  1.33193E+04 -5.13257E+03
  9.50331E+03  2.70387E+03  3.46696E+01  4.15774E+03  2.96994E+03 -5.52524E+03 -1.35190E+03 -9.49831E+03
  1.17844E+04 -5.68029E+03  1.10015E+04  5.18024E+03  1.42124E+04  1.69897E+04  6.29124E+03  2.58315E+04
 -7.93621E+03  3.01502E+04 -2.08866E+04  1.54731E+04 -3.20546E+04  6.06601E+03 -1.86116E+04 -1.15146E+04
 -1.11908E+04 -1.89647E+04 -1.01482E+04 -1.28879E+04  8.21591E+03 -9.10218E+03  9.94714E+02 -1.31293E+04
  1.03800E+04 -7.50230E+03  1.18814E+04 -6.29268E+03  6.08339E+03 -2.99741E+03  8.68965E+03 -3.51713E+03
  1.29984E+04  3.34797E+03  7.61749E+03  1.55737E+04  8.35956E+02  1.68076E+04 -1.27814E+04  6.87088E+03
 -1.61573E+04  2.06221E+03 -9.17473E+03 -1.06253E+04 -6.94127E+02 -1.53132E+04  7.41342E+03 -1.22023E+04
  1.18231E+04 -1.14797E+04  2.43125E+04  1.66198E+03  1.17987E+04  2.12796E+04  2.60919E+03  1.90154E+04
 -1.01035E+04  1.49808E+04 -1.16536E+04  5.92584E+03 -9.76593E+03 -2.99277E+03 -4.74500E+03 -4.50914E+03
 -1.69090E+03  2.75481E+02 -2.09300E+03  2.87004E+03 -4.67007E+03 -9.42090E+02 -1.11522E+04 -7.52258E+02
 -4.39550E+03 -1.35820E+04  1.59746E+03 -2.15018E+04  1.11396E+04 -2.06503E+04  2.02712E+04 -7.43850E+03
  1.84244E+04  5.55144E+03  9.19086E+03  6.86680E+03 -1.44291E+02  1.19801E+04 -1.27983E+04  5.78775E+03
 -1.71128E+04 -4.78821E+03 -9.57913E+03 -3.64557E+03 -1.36078E+03 -1.04157E+04  7.27733E+03 -6.94277E+03
  1.23366E+04  7.28377E+03  7.41140E+03  1.21424E+04  1.79273E+03  5.08683E+03  1.29802E+03  1.40666E+03
 -2.08979E+03 -1.67048E+03 -1.22868E+03  5.78136E+03  4.51111E+03  6.43617E+03  7.34439E+03  1.04468E+04
 -1.01041E+03  9.04723E+03 -8.94831E+03  1.64275E+04 -2.18794E+04 -1.25614E+03 -2.13266E+04 -6.58758E+03
 -4.07765E+03 -1.36457E+04  3.40140E+03 -1.83954E+04  4.00984E+03 -9.66270E+03  1.31785E+04 -6.85118E+03
  1.30528E+04  9.31805E+03  2.86873E+03  8.34613E+03 -2.52511E+03  8.75487E+03 -6.78737E+03  1.00745E+03
 -3.48937E+03 -9.01364E+03  3.41591E+03 -5.67584E+03  8.08701E+03 -1.57231E+03  4.96646E+03  3.15542E+03
  9.01732E+03  1.10604E+02 -1.09091E+03  2.59912E+02 -6.38311E+03  5.22106E+03 -1.00790E+03  2.61652E+03
  3.10169E+03 -4.72801E+03  4.42494E+03  4.51856E+03  1.00073E+04  7.18779E+03  1.06720E+03  9.72995E+03
 -1.39654E+04  4.26205E+03 -1.13372E+04  8.34141E+03 -8.46552E+03 -4.90400E+03 -6.03576E+03 -7.28958E+03
  3.67454E+03 -1.34487E+04  2.25996E+03 -5.89725E+03  1.01001E+03  7.85870E+03 -1.27858E+03 -2.47112E+03
 -7.91750E+03  8.28546E+03 -9.43079E+03 -1.36932E+03 -5.52296E+03 -8.07626E+03  2.07880E+03 -1.76184E+03
 -1.30365E+03 -1.89078E+03  2.25055E+03  1.72344E+03  5.05280E+03  9.98765E+03  1.70188E+03  1.00168E+04
  8.09304E+02 -7.41638E+02 -5.41348E+03  3.77364E+03 -1.14922E+03 -7.46790E+03  1.65458E+04 -4.25600E+02
  8.07765E+03  2.32075E+03  1.04223E+04  7.60018E+03  2.68226E+01  7.39893E+03 -8.21915E+03  1.03799E+04
 -1.22098E+04  5.03319E+03 -2.82945E+03 -6.60892E+03 -5.08057E+03 -1.15920E+04 -2.26265E+03 -8.75359E+03
  6.26966E+03 -4.17095E+03  2.32942E+03 -3.07020E+02 -1.63306E+03  5.32841E+03 -3.66996E+03  1.52962E+04
 -4.71905E+03 -1.26432E+03 -1.19545E+04 -1.93167E+03  5.87680E+03 -5.54678E+03  4.84826E+02 -3.45940E+02
 -1.31922E+03 -6.06246E+03 -1.22944E+04  5.98323E+03 -1.07055E+04 -3.15398E+03 -9.73231E+03 -6.94484E+03
 -7.15167E+03 -9.67725E+03  4.73787E+03 -2.42194E+04  1.23720E+04 -1.13326E+04  2.03039E+04 -3.90023E+03
  1.62606E+04  5.35636E+03  7.67310E+03  8.00067E+03 -1.79949E+03  1.24705E+04 -8.15063E+03  9.09960E+03
 -1.17450E+04 -2.67603E+03 -6.01322E+03 -1.68429E+02  3.40206E+03  2.60363E+03  3.01125E+03 -6.63361E+03
 -3.69485E+02 -1.55336E+03 -7.27089E+03  4.64157E+02 -2.06592E+03 -6.91545E+03 -3.76793E+03 -8.32248E+03
  9.01783E+03 -7.95640E+03  6.80079E+03  7.92611E+03  1.29391E+04  2.96956E+03 -3.55842E+03  6.52247E+03
 -4.75680E+03  1.79736E+04 -1.12499E+04  1.05822E+04 -1.76675E+04  7.14891E+03 -3.54047E+03 -1.54369E+03
 -3.48384E+03 -7.96246E+03  1.15441E+02 -5.88772E+03  3.82223E+03 -3.58777E+03  5.33484E+03 -2.60807E+03
 -1.80118E+03  6.69128E+03 -3.38586E+03  5.71663E+03 -6.00796E+03  1.21870E+03 -1.41656E+03 -9.02536E+02
  6.75501E+02 -2.59000E+03  3.61071E+03 -3.22348E+03  7.00319E+02  9.68344E+03  1.27165E+03  5.23948E+03
 -4.02584E+03  2.43803E+03 -6.21904E+03 -2.58977E+03 -8.04853E+03 -1.97580E+03 -5.88185E+03 -1.50978E+04
  1.30517E+04 -1.10616E+04  7.91835E+03 -3.97916E+03  1.09587E+04  2.68363E+03  6.18620E+03  9.09036E+03
  8.29736E+02  5.42517E+03 -8.45254E+03  2.56552E+03 -5.92631E+03  4.94414E+03 -7.02467E+02 -3.72861E+03
 -2.07300E+03  1.27760E+03 -1.22791E+03  2.15807E+03 -8.70618E+03  1.60914E+03 -8.34139E+03 -5.84025E+03
 -4.06487E+03 -7.37403E+03 -3.06591E+03 -6.95264E+03  2.47344E+03 -2.23865E+03  1.00165E+04 -8.15911E+03
  3.99454E+03 -3.07010E+03 -1.82093E+03  2.73341E+03  6.01431E+03  1.05558E+04 -3.76593E+03  6.62853E+03
