 $NMID ID='MM_0lb_SNR50_14hz_g45_66.RAW', FMTDAT='(8E13.5)'
 TRAMP=1., VOLUME=1. $END
  3.04682E+05  3.07637E+03  3.35983E+05  2.44859E+05  8.75113E+04  3.40656E+05 -1.33267E+05  2.49367E+05
 -1.89010E+05  8.45923E+04 -1.12039E+05 -3.36922E+04  4.46170E+03 -5.11612E+04  5.32865E+04  5.08973E+03
  2.88115E+04  5.44382E+04 -1.78898E+04  8.21235E+04 -6.12913E+04  6.42135E+04 -8.20156E+04  3.16684E+04
 -8.69626E+04 -1.20854E+04 -5.77793E+04 -5.12432E+04 -1.61624E+04 -6.49352E+04  3.02290E+04 -4.66809E+04
  3.98410E+04  5.20322E+03  1.28058E+04  4.49231E+04 -3.91403E+04  4.58100E+04 -7.02292E+04 -3.03092E+03
 -5.58391E+04 -5.78574E+04 -6.32952E+03 -7.48187E+04  3.47885E+04 -5.72707E+04  4.76168E+04 -1.48358E+04
  4.14799E+04  1.73950E+04  2.89831E+04  2.54455E+04  1.51453E+04  2.92136E+04 -3.11055E+03  2.70830E+04
 -1.96902E+04  1.48819E+04 -1.56272E+04 -6.42536E+03  7.14617E+03 -1.02336E+04  2.64547E+04  1.52171E+04
  7.40471E+03  3.67723E+04 -3.62440E+04  3.55987E+04 -6.65030E+04  4.90238E+03 -5.59354E+04 -4.43430E+04
 -1.13159E+04 -6.09463E+04  3.98316E+04 -4.43260E+04  5.86058E+04  7.04429E+02  3.75766E+04  3.45474E+04
 -2.00110E+03  3.50688E+04 -2.62694E+04  1.49966E+04 -2.98760E+04  1.45243E+03 -2.00766E+04 -5.97257E+03
 -6.49786E+03 -1.34437E+04 -2.56445E+03 -1.90000E+04  8.28545E+03 -2.46718E+04  1.86744E+04 -1.53527E+04
  1.39486E+04  5.94980E+03 -5.63567E+03  1.04311E+04 -2.31169E+04 -7.20232E+03 -1.00178E+04 -2.82166E+04
  2.06101E+04 -3.78204E+04  5.12796E+04 -2.38068E+04  4.42736E+04  2.16899E+04  1.84745E+04  4.13009E+04
 -1.21762E+04  3.48359E+04 -2.83316E+04  4.36057E+03 -8.93394E+03 -2.33086E+04  1.64090E+04 -3.27002E+04
  4.21054E+04 -1.56302E+03  3.47524E+04  2.60750E+04  1.50206E+04  4.69021E+04 -4.64615E+03  4.67886E+04
 -3.32472E+04  2.72074E+04 -3.89301E+04  1.23116E+04 -4.31217E+04 -1.20864E+04 -2.07822E+04 -3.65801E+04
  7.60621E+03 -3.60244E+04  3.15501E+04 -1.33575E+04  2.59943E+04  8.25469E+03  3.09265E+03  2.09198E+04
 -1.58219E+04  1.03754E+04 -8.13131E+03 -7.97367E+03  2.21085E+03 -1.24512E+04  2.24744E+04  3.58821E+03
  1.44358E+04  2.26292E+04 -2.92182E+03  2.53551E+04 -2.17501E+04  8.68992E+03 -3.25158E+04 -1.94354E+03
 -2.40587E+04 -1.85975E+04 -1.03492E+04 -1.55029E+04  7.44578E+03 -2.03223E+04  1.11216E+04 -1.48594E+04
  2.75798E+04 -1.04321E+04  3.03478E+04  3.07625E+03  2.44385E+04  1.81633E+04  4.21872E+03  4.09514E+04
 -1.78897E+04  3.03091E+04 -2.68090E+04  1.12743E+04 -1.75675E+04 -1.07960E+04 -4.33079E+03 -1.38786E+04
 -8.11388E+02 -3.45619E+03 -7.29681E+03  5.17104E+03 -1.31442E+04  5.34616E+03 -1.77744E+04 -9.62896E+03
 -7.08589E+03 -2.23290E+04  6.30555E+03 -2.29626E+04  1.76472E+04 -1.52578E+04  2.20244E+04 -7.49281E+02
  1.58905E+04  1.37052E+04 -8.34937E+02  1.75474E+04 -1.18871E+04  1.06006E+04 -2.10358E+04 -1.27261E+03
 -1.52233E+04 -1.84043E+04 -4.14704E+03 -1.85540E+04  9.84896E+03 -1.91145E+04  1.82729E+04 -1.00400E+04
  1.97860E+04 -6.76163E+03  1.66682E+04  5.01051E+03  9.24601E+03  6.31156E+03  1.28437E+04 -2.98072E+03
  1.70232E+04  1.67289E+03  2.30741E+04  1.75222E+04  1.48404E+04  2.79999E+04 -4.24006E+03  3.09412E+04
 -1.84461E+04  2.72642E+04 -3.45672E+04  1.39572E+04 -3.50494E+04 -7.60307E+02 -2.81890E+04 -2.25687E+04
 -1.33014E+04 -3.03996E+04  8.94206E+03 -2.51027E+04  2.03131E+04 -1.64509E+04  1.91219E+04  4.34815E+03
  4.26645E+03  1.34045E+04 -1.40858E+04  1.41689E+04 -1.71503E+04 -7.05157E+01 -1.15324E+04 -8.79039E+03
 -3.59187E+03 -1.28780E+04  5.69219E+03 -1.07048E+04  7.32269E+03  1.67206E+03  8.48220E+02  6.31336E+03
 -4.43270E+03  7.24818E+03 -9.18019E+03 -6.76411E+03  2.56525E+03 -1.44833E+04  1.24442E+04 -1.67998E+04
  1.52600E+04 -3.98192E+03  1.81338E+04  4.74118E+02  1.15214E+04  1.24772E+04  5.54142E+03  1.60354E+04
 -2.64597E+03  2.33162E+04 -1.48872E+04  7.08958E+03 -1.85754E+04  9.30829E+02 -1.28598E+04 -6.46332E+03
 -8.65629E+03 -5.82200E+03 -3.51819E+03  4.18188E+02 -2.45104E+03  6.46131E+02 -4.58960E+03  5.82439E+03
 -8.00511E+03  1.24908E+03 -7.39301E+03 -6.44592E+03 -9.83431E+03 -1.27359E+04  3.56835E+03 -1.25393E+04
  1.14843E+04 -6.09478E+03  7.38522E+03  8.11001E+03  4.66348E+03  2.58062E+03 -7.94025E+03 -3.83577E+03
 -1.27606E+02 -8.74481E+03  1.94144E+03 -1.04426E+04  8.35174E+03 -1.88809E+04  1.42391E+04 -6.80914E+03
  1.46006E+04  1.72411E+03  1.24308E+04  8.14699E+03  3.94047E+03  1.20039E+04 -6.66863E+03  8.51424E+03
 -1.05317E+04  9.75792E+03 -2.07939E+03  1.49212E+03  4.44019E+02 -3.02124E+03  4.11034E+03  2.41237E+03
  2.46933E+03  8.44386E+03  3.24991E+03  1.02974E+04 -1.18073E+04  1.18929E+04 -7.45695E+03  6.01508E+03
 -5.14789E+03 -4.24572E+03  1.89686E+03 -7.03762E+03  4.86264E+03 -5.88333E+03  4.25950E+03  4.67807E+03
  6.70579E+01  6.82876E+02 -7.60654E+03  8.51853E+03 -8.66718E+03  7.32330E+02 -6.60677E+03 -5.17473E+03
 -5.36603E+03 -6.57684E+03  3.90440E+03 -7.76488E+03  1.09649E+04 -7.64264E+03  6.68700E+03  6.19533E+03
  4.16583E+03  9.48292E+03  1.48343E+03  6.49970E+03 -1.27981E+04  6.38201E+03 -1.11635E+04  3.34170E+03
 -5.48318E+03 -6.88577E+03 -2.98396E+03 -8.30167E+03  1.51424E+03 -9.90773E+03  6.16727E+03 -1.57605E+03
  3.78643E+03  3.78563E+03  1.84639E+03  3.28911E+03  2.89090E+03 -1.16154E+02 -4.62495E+03  3.83137E+02
  4.33029E+03  8.63206E+02  8.75326E+03  2.86904E+03  1.93723E+03  6.09414E+03  8.13028E+03  1.19523E+04
 -2.70379E+03  1.61585E+04 -1.47641E+04  1.32502E+04 -1.75090E+04  4.37075E+03 -1.19490E+04 -5.33240E+03
 -6.72376E+03 -1.59773E+04 -1.49954E+03 -7.74719E+03  2.69542E+03 -1.06926E+04  3.30601E+02 -2.64831E+03
  5.00871E+03 -1.32321E+03  7.19273E+03 -3.94646E+03  6.12872E+03 -3.94443E+03  2.46697E+03 -2.40030E+03
  5.15390E+03  4.46195E+03  2.94083E+03  6.07534E+03 -1.95915E+03  4.86328E+03 -8.00645E+03  2.76443E+03
 -8.39003E+03 -4.88400E+03 -1.29799E+03 -7.67047E+03  7.20924E+02 -1.08400E+04  8.74858E+03 -1.11691E+04
  6.62076E+03 -4.40095E+03  1.24188E+04 -2.38991E+03  1.02566E+04  5.46486E+03  2.78568E+03  1.19054E+04
 -1.65686E+03  1.06573E+04 -5.89500E+03  2.67852E+03 -1.91415E+03  2.28025E+02 -2.17124E+03 -1.00619E+04
 -1.35732E+03  2.51195E+03 -6.49826E+03 -3.03572E+03 -9.87688E+03  3.61992E+03 -6.08633E+03 -3.94883E+03
 -4.72438E+03 -8.00817E+03 -1.72199E+02 -1.11755E+04  3.08321E+03 -3.71496E+03  9.11714E+03  3.06527E+03
  4.68935E+03  4.91316E+03  4.49604E+03  7.22226E+03 -6.57003E+01  7.93633E+03 -7.12467E+03  3.18485E+03
 -4.85438E+03  5.01350E+03 -4.16505E+03 -6.20140E+03 -6.46327E+02 -5.23464E+03  1.12452E+03 -5.27168E+03
  3.84894E+03  7.02472E+02  4.93614E+03 -3.89006E+03  1.05127E+03  2.87525E+02 -7.82474E+02 -1.60802E+03
  3.52813E+03 -9.22016E+02 -6.97249E+02  7.07659E+02  5.32336E+03  5.86418E+03  2.54564E+03  4.63689E+03
 -4.71429E+03  6.92457E+03 -8.56552E+03  5.94336E+03 -5.80587E+03  7.50639E+02 -6.53826E+03 -1.41777E+03
 -2.79832E+03 -5.57571E+03  3.25495E+03 -1.19061E+04  1.45158E+02 -2.25246E+03  5.55915E+03 -1.07505E+03
  4.01745E+03  4.13198E+03  2.73200E+03  4.23712E+03 -2.27628E+03  8.09930E+03 -2.58275E+03 -4.19465E+03
 -8.79365E+02  4.27952E+02  1.22440E+03  5.61309E+03 -4.27789E+02 -4.39814E+03 -2.02124E+03 -7.91487E+03
  3.20470E+02  8.08338E+02 -2.67468E+03 -3.77720E+02  5.59597E+02  2.32663E+03  2.47063E+03 -5.69713E+02
  2.14027E+03 -2.53512E+03  2.23098E+03  7.34867E+02 -2.06565E+03  5.04785E+03 -3.72165E+03  1.31890E+03
 -7.83571E+02  2.28220E+03 -3.61712E+03 -2.23833E+03 -6.41135E+03 -6.58607E+03  1.25384E+03 -1.51985E+03
  4.34065E+03 -1.02543E+03 -2.83047E+03 -1.83855E+03  3.74376E+03 -1.26992E+03 -1.86558E+03  6.61732E+02
 -5.61817E+03  3.58958E+03 -4.06751E+02  9.65681E+02  1.93038E+03 -6.72712E+03 -1.75518E+03 -5.91383E+03
  9.71368E+03 -2.98169E+03 -6.91891E+02 -4.03554E+03 -2.57749E+03 -7.74802E+02  7.43350E+03  6.66314E+03
 -4.29713E+03  2.27765E+02 -3.17331E+03 -2.14577E+03  8.42731E+02 -1.99261E+03  4.21908E+03 -1.90794E+03
  5.15841E+03 -3.45085E+03  5.83827E+03 -2.54773E+02 -2.94281E+03  4.19768E+03 -2.55078E+03  8.72565E+03
 -3.42812E+03  3.71382E+03 -2.47476E+03  6.06769E+03  6.89178E+02 -1.73838E+03 -2.22467E+03 -1.92532E+03
  1.72338E+03 -2.07232E+03  6.93740E+03 -2.00668E+03  4.66774E+03  8.47484E+02  4.71356E+03  1.11149E+03
  6.66987E+02 -1.12797E+03 -1.24237E+03  1.47829E+03  4.68944E+03 -1.26590E+03 -1.67706E+03 -1.48121E+03
 -1.14487E+03  5.70123E+03 -6.13381E+03 -4.72279E+03 -1.35630E+02  2.20089E+03 -8.49363E+03 -3.28384E+03
 -2.32573E+03 -4.71977E+03  7.74265E+03 -4.75822E+03  2.55552E+03 -4.57206E+03  6.33392E+03 -5.51345E+03
  2.64469E+03  1.87833E+03 -1.59551E+03  6.74656E+03 -3.37031E+03  2.11016E+03 -2.53616E+03  7.27400E+03
 -1.31869E+03 -2.87012E+03  9.63380E+01 -1.15860E+02  2.08705E+03 -2.13969E+03 -3.82617E+03 -6.68292E+02
 -4.22162E+02  4.44351E+02 -5.53339E+03  8.41468E+02  2.54106E+03 -2.24253E+03 -4.17869E+03 -5.65098E+03
  4.65964E+03  1.02693E+03  7.58766E+02  1.20989E+03  1.98613E+03  1.73652E+03 -3.92274E+03  8.72899E+03
 -3.38437E+03  2.81584E+03 -1.50161E+03 -2.60170E+03  2.43637E+03 -2.24022E+03 -1.77460E+02 -5.72080E+03
 -2.87157E+03 -2.85387E+03  3.34482E+03 -5.88498E+02 -3.18530E+03  1.28649E+03  9.26585E+03  7.88246E+00
  4.59805E+03  3.73478E+03  9.50409E+02 -7.69595E+02 -3.48411E+03 -6.00171E+02  1.29790E+03 -1.33480E+03
 -1.56494E+02  3.88193E+03  5.74283E+03  3.39443E+03 -2.72520E+03  6.74224E+02 -2.85122E+03  9.56538E+02
 -1.49390E+03  5.48908E+03 -2.89755E+03  3.87874E+01 -5.55872E+03 -1.01608E+03 -4.24728E+02 -3.38807E+03
  5.56116E+03 -8.19086E+02  7.22627E+03 -5.00746E+02 -7.84233E+02 -1.54525E+03  6.83538E+01  4.04381E+03
  2.12549E+03  1.83504E+03 -3.71998E+03  1.63160E+03  5.87100E+01  1.36838E+03 -1.66258E+03 -3.59006E+02
 -1.71147E+03  9.48371E+02 -1.02168E+02  3.99068E+02 -4.21075E+03  1.24799E+03 -2.77392E+03 -8.51631E+02
  7.88620E+02 -6.81338E+02  2.23712E+03 -2.33980E+03  5.80105E+03 -3.09518E+03 -4.71424E+03  1.28050E+02
  3.55789E+03 -2.39549E+03  1.40981E+03  3.28779E+03  5.17267E+02  3.86914E+03 -2.23065E+03 -2.25931E+02
