 $NMID ID='MM_0lb_SNR50_13hz_g40_73.RAW', FMTDAT='(8E13.5)'
 TRAMP=1., VOLUME=1. $END
  3.10182E+05  2.86986E+03  3.36964E+05  2.51000E+05  8.73918E+04  3.40381E+05 -1.33510E+05  2.51589E+05
 -1.91560E+05  8.48324E+04 -1.14463E+05 -3.58634E+04 -2.15563E+03 -5.61043E+04  5.29078E+04 -5.49764E+03
  3.42513E+04  5.00728E+04 -1.73041E+04  7.17115E+04 -6.38087E+04  6.23785E+04 -8.65613E+04  3.21587E+04
 -8.08942E+04 -1.27575E+04 -5.79803E+04 -5.40432E+04 -1.62558E+04 -6.57676E+04  2.86216E+04 -4.41563E+04
  3.97259E+04  5.67152E+03  1.47135E+04  4.01644E+04 -3.80708E+04  4.46340E+04 -6.48437E+04  3.46821E+03
 -5.40422E+04 -5.51633E+04 -3.00382E+03 -7.76305E+04  3.68976E+04 -5.04095E+04  4.46280E+04 -1.68648E+04
  4.13208E+04  9.68956E+03  2.83169E+04  2.55294E+04  1.79045E+04  2.95676E+04 -2.86702E+03  2.72481E+04
 -2.33072E+04  9.37347E+03 -2.02834E+04 -5.96416E+03  4.75916E+03 -6.57835E+03  2.09633E+04  1.01044E+04
  3.42739E+03  4.13186E+04 -3.49156E+04  3.40443E+04 -6.17818E+04  3.75728E+03 -5.31694E+04 -4.87777E+04
 -1.40239E+04 -6.45686E+04  4.01013E+04 -4.95574E+04  5.72274E+04 -8.04303E+03  3.64751E+04  3.74972E+04
 -1.92850E+03  3.70651E+04 -2.97287E+04  1.49321E+04 -3.16123E+04 -9.27956E+03 -1.77121E+04 -1.98707E+04
 -1.34809E+04 -1.00619E+04 -1.07432E+03 -2.16778E+04  2.22294E+03 -2.36077E+04  1.79358E+04 -8.73910E+03
  1.36498E+04  3.29100E+03 -7.67164E+03  1.78624E+04 -2.90380E+04 -8.26150E+03 -3.30917E+03 -3.13666E+04
  2.11768E+04 -4.20570E+04  4.42822E+04 -1.96799E+04  4.52733E+04  2.07228E+04  1.60049E+04  4.69412E+04
 -1.78081E+04  3.66081E+04 -2.85087E+04  1.84325E+03 -7.84754E+03 -2.75277E+04  2.77195E+04 -3.35268E+04
  3.92586E+04 -7.30578E+03  3.54659E+04  2.99521E+04  1.36522E+04  4.79361E+04 -9.21189E+03  5.14471E+04
 -3.28222E+04  3.29164E+04 -3.99494E+04  1.06906E+04 -4.33317E+04 -1.77345E+04 -2.45848E+04 -3.78111E+04
  7.81105E+03 -3.41674E+04  3.10314E+04 -1.20673E+04  3.16127E+04  1.29063E+04  3.41658E+03  2.11088E+04
 -8.00583E+03  5.32396E+03 -1.05872E+04 -1.21990E+04 -1.75265E+03 -1.28606E+04  2.06893E+04  1.51400E+04
  1.59231E+04  2.18610E+04 -1.12951E+04  2.91622E+04 -1.45032E+04  1.35961E+04 -2.74485E+04 -6.70982E+03
 -2.59536E+04 -1.96611E+04 -1.10379E+04 -1.98715E+04  4.18632E+03 -1.98753E+04  1.56502E+04 -1.93355E+04
  2.49647E+04 -1.09794E+04  3.23055E+04  1.02193E+03  2.34294E+04  2.26897E+04  2.64738E+03  3.50551E+04
 -2.19969E+04  2.97130E+04 -2.77561E+04  1.66788E+04 -2.24407E+04 -1.00832E+04 -8.65241E+03 -1.72792E+04
 -3.33383E+03 -1.76418E+03 -4.22942E+03  7.08823E+03 -1.70426E+04  8.63055E+03 -1.60509E+04 -1.13092E+04
 -1.51122E+04 -2.12874E+04  5.41818E+03 -2.02737E+04  1.30847E+04 -1.42841E+04  1.92883E+04 -2.51524E+03
  1.00025E+04  1.67177E+04 -4.00536E+03  1.80447E+04 -1.28644E+04  7.70344E+03 -1.44529E+04 -2.58572E+03
 -1.45762E+04 -1.22553E+04 -2.94173E+03 -2.50161E+04  9.01897E+03 -2.13399E+04  1.79083E+04 -1.24170E+04
  1.34783E+04 -3.56107E+03  1.27817E+04 -1.05271E+03  1.08584E+04 -4.45799E+03  7.87022E+03 -1.20972E+03
  1.38287E+04 -2.45592E+03  2.20335E+04  1.38957E+04  1.43136E+04  2.97500E+04 -9.52795E+02  3.63650E+04
 -1.87201E+04  2.54880E+04 -3.41693E+04  1.49791E+04 -3.06977E+04 -2.48045E+03 -2.92327E+04 -1.93945E+04
 -1.09431E+04 -2.76696E+04  8.71773E+03 -2.77719E+04  1.93988E+04 -1.31651E+04  2.22117E+04  5.51156E+03
  1.20006E+04  1.72818E+04 -8.37996E+03  1.30427E+04 -2.09625E+04  2.24590E+03 -1.04675E+04 -7.86610E+03
 -4.32738E+02 -1.56900E+04  6.13748E+03 -1.27255E+04  1.20472E+04  6.94477E+02  4.73009E+03  9.13228E+03
 -6.98113E+03  4.79130E+03 -7.55291E+03 -7.40290E+03 -2.12078E+03 -8.05404E+03  9.22091E+03 -9.78239E+03
  1.68551E+04 -1.97046E+03  2.13932E+04  5.41541E+03  2.09642E+04  1.56888E+04  8.96537E+03  1.76420E+04
  4.58534E+02  2.12138E+04 -1.50722E+04  1.28760E+04 -1.55855E+04 -2.19138E+03 -1.42686E+04 -8.88689E+03
 -6.08105E+03 -8.00613E+03 -3.50872E+03  2.79980E+03 -1.42817E+03  2.44524E+03 -4.69606E+03  1.05691E+04
 -3.44563E+03 -4.57940E+02 -1.19248E+04 -8.74507E+03 -8.52518E+03 -1.53385E+04  7.02336E+03 -1.49672E+04
  4.92642E+03 -6.21056E+03  6.69815E+03  1.79409E+03 -8.23172E+02  6.80649E+03 -5.31113E+03  2.23780E+03
 -2.51727E+03 -8.58650E+03 -2.18847E+02 -8.39154E+03  7.45790E+03 -1.38481E+04  1.39929E+04 -1.05304E+04
  1.99974E+04 -2.27249E+02  1.38759E+04  1.07252E+04  5.13932E+03  7.08653E+03 -5.74477E+03  1.12864E+04
 -1.23409E+04  6.44164E+03 -8.41189E+03 -6.59804E+03  2.29664E+03 -1.35504E+03  6.23797E+03  4.35910E+02
  8.98256E+02  7.62339E+03 -6.38736E+02  1.19379E+04 -1.12397E+04  7.79271E+03 -1.13792E+04  5.78975E+03
 -6.72211E+03 -3.98370E+03 -7.19257E+02 -1.07693E+04  5.97390E+03 -3.99915E+03  6.88380E+03  5.71829E+02
 -5.18734E+03  4.39949E+03 -4.91821E+03  6.97548E+03 -8.42041E+03  3.52943E+03 -7.65033E+03 -1.40105E+03
 -5.00468E+03 -6.02068E+03  3.87332E+03 -9.89155E+03  7.26245E+03 -3.92915E+03  9.61466E+03 -3.09295E+03
  2.92679E+03  8.49416E+03 -4.25099E+03  1.12346E+04 -6.53209E+03  6.72620E+03 -1.10309E+04 -2.54640E+03
 -7.66560E+03 -3.54136E+03  1.68671E+03 -8.96914E+03  3.99099E+03 -2.89980E+03  3.04045E+03  7.36702E+02
  4.08892E+03  4.05745E+03  1.24744E+03  4.39366E+03  1.31711E+03  2.25122E+02  3.23052E+03 -7.87085E+02
  1.10261E+04  9.01240E+02  5.79909E+03 -1.04229E+03  8.96680E+03  7.07747E+03  6.61895E+03  1.37516E+04
 -4.66124E+03  1.52569E+04 -9.39510E+03  9.34221E+03 -1.93642E+04  6.67541E+03 -1.22303E+04 -2.19686E+02
 -5.79963E+03 -1.12078E+04 -2.85367E+03 -1.33863E+04  3.38457E+03 -9.42148E+03  7.79085E+03 -7.86384E+03
  6.41386E+03 -1.42726E+03  7.13761E+03 -4.69639E+03  7.06218E+03 -4.63753E+03  6.75343E+03 -1.53850E+02
  4.91896E+03 -1.42004E+03  9.07490E+03  5.39535E+03 -2.12684E+03  9.87140E+03 -7.62461E+03  1.83069E+03
 -5.24423E+03 -3.28363E+03 -8.41971E+03 -8.61518E+03 -4.47473E+03 -9.92765E+03  7.87110E+03 -7.25007E+03
  7.38696E+03 -3.27531E+03  1.46652E+04  2.83193E+03  5.78136E+03  7.23010E+03  5.90442E+03  1.13078E+04
 -5.29297E+03  1.11534E+04 -9.12456E+03  1.70908E+03 -5.03676E+03 -1.18629E+03 -4.75229E+03 -1.18305E+03
 -1.11279E+03 -6.10132E+02 -4.32738E+03  4.06509E+03 -5.85070E+03  1.36484E+03 -1.08211E+04  4.41628E+03
  4.40389E+02 -2.28943E+03 -1.37371E+03 -8.22157E+03  4.36235E+03 -7.58885E+03  8.99876E+03 -2.04939E+02
  1.25015E+04  2.23518E+03  7.55227E+03  2.73037E+03 -3.74880E+03  5.62589E+03 -8.49158E+03  6.36691E+03
 -6.65997E+03  2.81688E+03 -9.92361E+03 -6.84111E+03  1.56919E+03 -1.37901E+04 -3.00500E+03 -4.46350E+03
  4.49640E+03 -6.37798E+03  7.29128E+03 -9.27671E+02 -3.22865E+03  2.29231E+03  2.06958E+03  4.56266E+03
  2.99122E+03  4.63411E+03  3.48841E+03  4.50698E+03  3.89005E+03  2.47350E+03 -1.77353E+03  6.61960E+03
  2.54951E+03  5.60520E+03 -7.23751E+03  8.98515E+03 -7.36796E+03 -1.82412E+03 -8.41883E+03 -1.19023E+03
 -1.11183E+03 -9.46973E+03  2.96944E+02 -1.06894E+04  9.02346E+03 -9.76496E+03  5.67475E+03  2.01793E+03
  5.11989E+03  1.86311E+03  8.02133E+01  4.08244E+03 -3.12242E+02  5.58699E+03  2.42672E+03  1.94031E+03
 -4.89163E+03  1.12388E+03  2.87732E+03 -2.48289E+03  5.97435E+03 -9.54084E+03  1.69586E+03 -6.97271E+02
 -1.24394E+03  9.98624E+02 -4.98072E+02 -3.92436E+03 -1.76592E+03  2.42704E+03  7.46643E+02  1.20976E+03
  2.31971E+02 -1.36223E+03  1.08199E+03  2.62686E+03 -1.67336E+01  7.62597E+03 -2.16110E+02  9.55021E+03
 -2.66373E+03  5.35677E+03 -3.09839E+03  8.11673E+02 -5.33150E+03 -6.02105E+03 -4.38033E+03 -5.19255E+02
  5.09329E+03 -2.84345E+03  2.29333E+03 -2.13430E+03  9.22803E+02 -1.62273E+03  1.88474E+03  5.28732E+03
 -4.95551E+02  1.12411E+03 -8.76939E+03 -5.57659E+03 -6.57556E+02 -1.12715E+03  1.27760E+02 -1.36469E+02
  3.59177E+03 -2.93807E+03  5.85786E+03 -2.61754E+01  1.30887E+03  2.20287E+03 -6.83093E+02  1.42604E+03
 -2.06636E+03  5.33588E+01 -5.14209E+02  1.21657E+03 -2.23429E+03 -6.45892E+03  1.17706E+03  7.12500E+02
  4.59526E+03  1.69013E+03  8.54388E+03  4.16294E+03  4.97164E+03  6.36921E+03 -4.22294E+03  2.60549E+03
 -3.84540E+03  4.77422E+03 -3.81952E+03 -5.84097E+03 -5.50577E+03 -1.50726E+01 -2.49238E+03 -3.96421E+03
  2.66857E+03 -5.63244E+03  2.00852E+03 -1.94343E+03  4.01991E+03  7.03160E+03  2.29431E+03  2.57415E+03
 -3.00201E+03  2.93476E+03 -2.02992E+03  1.64117E+03  3.68521E+03 -2.31410E+03  7.79421E+02  3.77155E+03
  1.55653E+03  2.14028E+03 -7.11244E+03  5.80653E+02 -4.26662E+03 -3.08669E+03 -3.36278E+03  1.54355E+02
 -4.68728E+03 -8.30542E+03  1.86750E+03 -7.15887E+03  3.87048E+03 -3.78379E+03  8.36260E+03 -5.82946E+03
  1.40210E+03 -6.38445E+01 -2.27083E+03  1.23230E+03 -6.08785E+03 -6.62294E+02 -5.55720E+02  5.94686E+03
  2.92347E+03 -1.09028E+03  4.47136E+03  4.07344E+03 -3.82847E+01  1.59985E+03  2.87222E+03 -6.55347E+03
 -2.83457E+03  4.99317E+02 -4.23584E+03 -6.80860E+02  3.05196E+03 -8.27923E+03 -2.94406E+03  9.25880E+02
  6.90267E+03  5.86520E+03  2.64573E+03 -2.18307E+03  3.16255E+03  5.06887E+03 -5.14986E+03  3.03581E+03
 -2.47703E+03  8.72570E+03 -2.14661E+02  6.18380E+03 -3.93497E+03 -5.00365E+01 -5.45193E+03 -1.86669E+03
 -3.62286E+03 -1.05587E+04 -4.76650E+03  1.45706E+03  1.36829E+03 -7.15980E+03 -1.04718E+03 -2.32857E+03
  2.14926E+03  3.86481E+03  4.62195E+02  1.83175E+03  9.78255E+02  2.36946E+03 -7.60974E+02 -6.06901E+02
  2.81154E+03  1.16929E+03  6.61607E+02 -1.46528E+03  6.82966E+03  2.67795E+03  6.24698E+03  5.72616E+03
 -7.28699E+02  4.55656E+03 -4.32712E+03  1.36051E+03 -7.76325E+03  5.49649E+02 -1.95455E+03 -6.98848E+03
  3.49728E+03 -1.37765E+03  2.44460E+03 -2.17637E+03  5.78682E+03  2.45405E+03 -2.13828E+01  4.17390E+03
  1.47144E+03 -1.28969E+03  2.13642E+03 -2.06141E+03 -3.76208E+03  9.52008E+02 -5.14697E+03 -1.53475E+03
 -2.91076E+03  8.28492E+03 -2.78972E+03  1.06829E+03 -1.39308E+03  2.73816E+03 -1.89623E+02  4.31440E+03
 -1.03070E+03 -8.68105E+02  1.19289E+01 -2.37177E+03  3.93385E+03 -2.92521E+03 -3.28195E+02 -2.86356E+03
  4.40692E+03  1.59187E+02  2.35518E+03  2.36725E+03 -1.34292E+02  2.95799E+03 -3.29180E+03  1.09657E+02
