 $NMID ID='MM_0lb_SNR50_13hz_g45_64.RAW', FMTDAT='(8E13.5)'
 TRAMP=1., VOLUME=1. $END
  3.10563E+05  1.90542E+03  3.36865E+05  2.53378E+05  8.57357E+04  3.37788E+05 -1.30748E+05  2.50065E+05
 -1.93032E+05  7.98182E+04 -1.10925E+05 -3.24796E+04  2.45804E+03 -5.13182E+04  5.76728E+04  4.20669E+02
  3.84770E+04  5.27375E+04 -1.68833E+04  7.19388E+04 -6.21636E+04  6.57262E+04 -8.11407E+04  3.25157E+04
 -8.03465E+04 -1.07977E+04 -5.87400E+04 -4.93082E+04 -1.73352E+04 -6.81628E+04  3.02170E+04 -4.24241E+04
  4.00210E+04  5.56192E+03  1.21948E+04  5.13179E+04 -3.24519E+04  5.30417E+04 -6.55376E+04  2.16758E+03
 -5.02150E+04 -5.82375E+04 -6.93442E+03 -7.21944E+04  3.34223E+04 -5.76839E+04  4.63939E+04 -1.54110E+04
  4.47974E+04  1.12773E+04  3.11884E+04  3.18021E+04  1.40096E+04  2.87565E+04 -5.29740E+03  3.05659E+04
 -2.31323E+04  1.08579E+04 -2.01384E+04 -3.79092E+03  4.65783E+03 -1.00220E+04  2.48679E+04  1.05308E+04
  4.71832E+03  3.68300E+04 -2.50857E+04  3.48756E+04 -6.11167E+04  9.44452E+02 -5.61846E+04 -3.80699E+04
 -8.52744E+03 -6.59807E+04  3.78681E+04 -4.43088E+04  6.69503E+04 -3.70150E+03  3.79514E+04  3.45054E+04
 -1.09805E+04  3.36379E+04 -2.76156E+04  1.65294E+04 -3.31715E+04 -3.94114E+03 -1.76229E+04 -1.15717E+04
 -9.78619E+03 -1.33669E+04  4.29603E+03 -1.61611E+04  7.20102E+03 -2.21913E+04  1.47426E+04 -1.69070E+04
  1.02105E+04  3.77543E+03 -9.89345E+03  8.95908E+03 -1.92563E+04 -2.90047E+03 -1.42879E+04 -3.77440E+04
  2.09527E+04 -4.36823E+04  4.54770E+04 -2.16810E+04  4.78204E+04  1.96422E+04  1.31536E+04  4.56517E+04
 -1.77956E+04  3.42572E+04 -2.31506E+04  2.03269E+03 -1.22548E+04 -2.84374E+04  2.12461E+04 -3.06128E+04
  4.51797E+04 -1.24386E+04  3.84689E+04  1.93490E+04  2.28196E+04  4.68006E+04 -6.43898E+03  5.37495E+04
 -3.24726E+04  3.19157E+04 -4.39496E+04  8.02674E+03 -4.41616E+04 -1.80202E+04 -2.17159E+04 -4.09884E+04
  5.61180E+03 -3.13331E+04  3.84196E+04 -1.03374E+04  3.00303E+04  1.17941E+04  9.35364E+03  1.73869E+04
 -1.21864E+04  9.53357E+03 -1.10849E+04 -5.95970E+03  1.97321E+03 -1.22992E+04  1.82563E+04  5.98022E+03
  1.18321E+04  1.90840E+04 -1.53882E+04  2.59186E+04 -1.75242E+04  1.57617E+04 -3.03448E+04 -5.30987E+03
 -2.36958E+04 -1.90895E+04 -7.31455E+03 -1.79342E+04  6.50056E+03 -2.02953E+04  1.25159E+04 -1.36851E+04
  2.96491E+04 -1.42878E+04  3.33354E+04  9.29820E+03  2.19855E+04  1.99379E+04  2.23735E+03  3.81396E+04
 -1.75719E+04  2.62224E+04 -2.87081E+04  1.08244E+04 -2.11763E+04 -8.22609E+03 -7.00998E+03 -1.05318E+04
  3.40394E+03 -3.59339E+03 -8.01106E+03  6.99504E+03 -1.43067E+04  4.70701E+03 -1.78273E+04 -9.44108E+03
 -1.28068E+04 -2.02339E+04  4.80589E+03 -2.22224E+04  1.29310E+04 -2.25798E+04  1.69722E+04  1.49684E+03
  1.48298E+04  1.94712E+04  7.69059E+02  1.72291E+04 -1.74869E+04  1.38440E+04 -1.88564E+04 -4.32446E+03
 -1.35809E+04 -1.54063E+04 -4.22282E+01 -1.87587E+04  1.48933E+04 -1.71382E+04  1.30142E+04 -1.33264E+04
  1.79812E+04  3.66822E+02  1.18631E+04  6.92217E+03  1.06280E+04 -4.01046E+03  1.02981E+04 -1.61628E+03
  2.01678E+04  5.48677E+03  2.14743E+04  1.71731E+04  1.21360E+04  3.15902E+04 -3.88632E+03  3.54936E+04
 -1.94845E+04  3.25406E+04 -3.07794E+04  1.26166E+04 -3.55101E+04  5.47995E+03 -2.83301E+04 -1.97570E+04
 -1.42412E+04 -3.06241E+04  6.12412E+03 -2.06938E+04  2.48193E+04 -1.23662E+04  2.20979E+04 -4.74855E+02
  3.75883E+03  1.32612E+04 -1.57783E+04  9.44956E+03 -1.95794E+04  8.38564E+03 -9.98068E+03 -1.40785E+04
 -2.63441E+03 -1.75601E+04  6.91016E+03 -1.16249E+04  1.17400E+04 -2.12542E+03  8.75234E+02  3.60574E+03
 -5.66699E+03  1.56363E+03 -7.03536E+03 -5.84356E+03  1.27323E+03 -1.39608E+04  5.91830E+03 -2.20484E+04
  1.37195E+04 -6.72660E+03  1.94601E+04  2.15154E+03  1.83042E+04  1.54249E+04  5.97692E+03  2.09423E+04
 -5.01422E+03  2.56458E+04 -8.25274E+03  1.94294E+04 -1.52415E+04  4.39900E+03 -1.46478E+04 -3.99581E+03
 -7.43062E+03 -3.60591E+03  6.42289E+02  1.55444E+03 -7.88190E+03  1.53390E+03 -3.26058E+03  8.52423E+03
 -1.26987E+04  3.21298E+03 -1.41856E+04 -1.23132E+04 -5.80208E+03 -1.51495E+04  6.69192E+03 -1.49553E+04
  1.29630E+04 -3.64988E+03  5.04236E+03  5.36099E+03 -7.51516E+02  6.38295E+03 -6.90762E+03  3.11426E+03
 -6.35304E+03 -8.60700E+03 -3.26572E+03 -1.40616E+04  3.63861E+03 -1.34235E+04  1.32626E+04 -8.07569E+03
  1.69945E+04  2.92500E+03  1.33477E+04  7.91377E+03  3.07501E+03  1.41359E+04 -6.95114E+03  1.05819E+04
 -8.48296E+03  3.87977E+03 -2.72315E+03  3.58451E+03  3.20144E+02 -7.48513E+03 -3.87711E+01 -2.40714E+03
  5.29705E+03  3.59402E+03  3.60127E+03  1.14424E+04 -5.35879E+03  7.25938E+03 -5.33617E+03 -3.60845E+03
 -3.79684E+03 -2.17592E+03  5.53128E+02 -1.00395E+04  7.62553E+03 -2.07297E+03  4.89896E+03  3.84507E+02
  4.47398E+02  6.07310E+03 -4.50137E+03  7.52483E+03 -9.39687E+03  1.93750E+03 -1.08104E+04 -5.76357E+03
 -6.19843E+03 -7.76227E+03  2.12964E+03 -1.14391E+04  2.92598E+03 -3.96606E+03  1.10617E+04  3.00430E+03
  6.76576E+03  8.49560E+03 -5.76551E+03  1.34657E+04 -7.60690E+03  8.45319E+01 -5.84823E+03 -3.41365E+03
 -1.24030E+04 -1.26173E+04  1.44585E+03 -1.36658E+04  7.14595E+03 -5.31871E+03  1.02201E+04 -3.18243E+03
  6.22368E+03  4.92536E+03 -5.00025E+03  1.12362E+03 -4.90377E+03 -2.74714E+02  6.11564E+02  8.22429E+02
  3.85496E+03 -6.79079E+03  1.10894E+04  2.56457E+03  1.35934E+04  1.27945E+04  5.63636E+03  1.14833E+04
 -1.29396E+03  1.17187E+04 -1.17597E+04  1.47828E+04 -1.79150E+04  6.04477E+03 -1.17250E+04 -4.52907E+03
 -6.33084E+03 -9.06902E+03  4.42053E+02 -1.03357E+04  1.29975E+03 -6.60397E+03  2.80466E+03 -3.90823E+03
 -1.50429E+03 -3.68663E+03  2.64387E+03 -3.37356E+03  4.12811E+03 -4.82477E+01  7.06982E+03 -2.58520E+02
  8.19393E+03  6.10628E+03  5.03970E+03  3.60380E+03  3.33903E+03  7.96789E+03 -8.30448E+03  3.60429E+03
 -1.14675E+04 -1.64405E+03 -2.42216E+03 -5.37755E+03 -1.12013E+03 -8.12164E+03  1.49690E+03 -1.38934E+04
  1.25113E+04 -6.72519E+03  1.11746E+04  1.28738E+03  1.25198E+04  1.34416E+04  3.11664E+03  1.07210E+04
 -3.96183E+03  7.97568E+03 -2.35936E+03 -1.34434E+01 -8.96696E+03 -3.64458E+03 -1.03222E+03 -3.73595E+03
  1.78133E+03 -4.67563E+03 -2.92039E+03  3.05502E+03 -4.51274E+03  3.46844E+03 -9.86466E+03  4.10793E+03
 -4.47396E+03 -1.18126E+04 -1.08445E+03 -1.10706E+04  8.87843E+03 -3.23962E+03  8.18101E+03 -6.67990E+02
  1.30887E+04  4.13938E+03  4.58722E+03  6.71090E+03 -4.43496E+03  1.35259E+04 -8.20560E+03  8.11684E+03
 -1.44317E+04  5.73052E+02 -7.09674E+03 -9.11495E+03 -9.88178E+02 -8.62705E+03  6.30479E+03 -6.94824E+03
  4.20891E+03  2.79815E+03  4.14126E+03  3.00606E+03 -4.37957E+03  3.08629E+03  9.29729E+02  9.67715E+02
  8.89152E+03  5.37587E+03  6.31619E+03  1.68691E+03  4.31150E+02  6.59550E+03 -7.71221E+02  7.95939E+03
  1.16433E+03  2.26200E+03 -3.40122E+03  1.12693E+04 -1.12451E+04 -2.03621E+03 -1.36499E+04  3.64424E+03
 -2.96646E+03 -7.82767E+03  2.19702E+03 -6.13903E+03  2.34522E+03 -1.01479E+04  8.38057E+03  2.45858E+03
  4.86276E+03  3.91221E+03  2.68261E+03  7.01114E+03 -4.39258E+03  4.08453E+03  1.23467E+02  2.79464E+03
 -9.47894E+02 -7.29116E+03  3.68836E+03 -3.44480E+03  1.79285E+03 -2.32182E+03  6.71369E+03 -1.83923E+03
  2.83853E+03  6.14783E+03  8.32515E+02  1.73719E+03 -4.47294E+02  5.54725E+03  4.39751E+03  1.63103E+03
  1.13318E+02  1.47364E+03 -3.70121E+02  5.83357E+03  1.02568E+04  3.01140E+03  2.69584E+03  1.09691E+04
 -1.11278E+03  3.00597E+03 -7.69941E+03 -1.64532E+02 -7.03038E+02 -7.15932E+03 -5.41141E+02 -8.54901E+02
  1.61582E+03  1.23895E+03 -1.26985E+02  2.91003E+02 -3.33760E+02  2.36940E+03 -5.37837E+03  2.46564E+03
 -2.73106E+03  1.09249E+04 -7.34349E+03 -2.44465E+03  3.78719E+03 -2.77793E+03  4.71332E+03 -1.07776E+04
  1.33564E+03 -3.71021E+03 -2.16648E+03 -6.02114E+02  8.28499E+03 -2.00630E+03 -2.00922E+03  6.69199E+03
 -2.54203E+03  2.41412E+03  2.60054E+02  1.78313E+03 -1.59257E+02  2.38500E+03  3.12769E+03 -3.05537E+03
  6.27483E+03 -2.77540E+03  4.14683E+03  1.97224E+03  3.60211E+03  3.70190E+03 -7.82821E+03  2.62161E+03
 -3.08773E+03 -9.21381E+02 -3.45113E+03 -2.26351E+03 -8.77589E+02 -3.56947E+03  3.63968E+03 -7.43473E+03
  4.92116E+03 -5.70739E+03  5.31802E+03 -3.95721E+03 -1.10747E+03  6.44921E+03 -1.94076E+03  9.16930E+02
 -1.62893E+03  2.39676E+02 -2.30277E+03 -1.41488E+03 -1.60916E+03  6.60180E+02  1.80007E+03  3.30354E+03
 -2.22517E+03  5.13945E+03 -1.57851E+03 -1.67914E+03  8.19726E+02 -7.36621E+02 -7.30364E+03  9.51069E+02
 -4.05176E+03 -3.01930E+03  5.17774E+03 -2.18952E+03  1.95625E+03 -6.77836E+03  9.90113E+03 -1.15849E+03
  6.67415E+03  2.35265E+03  2.41351E+03  1.66044E+03  2.57502E+03  4.35820E+03 -1.58731E+03  5.54195E+03
 -4.45800E+03  2.31525E+03  4.98051E+03  2.44695E+03  4.29516E+03 -3.07724E+03  3.24682E+03  9.79209E+02
 -7.58630E+02  2.26514E+03 -7.85226E+02  4.24660E+03 -4.03320E+02 -4.42076E+02 -3.32123E+02 -9.79488E+03
  3.05588E+03 -2.08790E+03  8.74364E+02  4.91154E+01  3.75722E+03  3.28370E+03 -4.84696E+03  3.01369E+03
 -2.56664E+03  1.18996E+04 -4.73741E+03  5.52458E+03 -7.10121E+03  9.58026E+02  2.04396E+02  2.10100E+03
 -3.11140E+03  3.13104E+02  4.57868E+03 -1.07340E+04  2.81844E+03 -3.00126E+03  2.36306E+03 -3.15718E+02
  1.19096E+03 -2.09742E+03  2.07042E+03 -1.82513E+03  1.43930E+03 -2.42050E+02 -1.99379E+03  2.81975E+03
 -4.08761E+03 -6.24888E+02  2.32384E+03  1.91198E+03  4.45747E+03  3.21164E+03 -4.19699E+03  2.69917E+03
 -2.53330E+03  1.80407E+03 -2.74988E+03  5.77235E+00 -2.85545E+03 -3.29305E+01 -1.61316E+03 -2.33334E+03
 -2.56079E+02 -7.51818E+03  1.03759E+03 -1.19187E+03  2.42801E+03  1.94611E+03 -1.71663E+02  5.10974E+03
  1.28034E+03  5.73425E+03  3.98224E+02  9.26593E+02 -1.19554E+03  3.38542E+03 -6.10605E+03 -8.43906E+02
 -3.43786E+02 -4.40621E+03  2.08630E+03 -7.28038E+02  7.90539E+01 -4.38915E+03  2.57649E+02 -6.74616E+03
 -9.58954E+02  5.06540E+01 -3.83347E+01 -3.33914E+03  4.32490E+02 -6.66906E+03 -3.16849E+03 -1.43274E+03
  9.24188E+02 -7.90258E+02  5.27147E+03 -8.21230E+02 -9.83570E+02  5.30645E+03 -5.92457E+03 -4.83105E+03
