 $NMID ID='MM_0lb_SNR50_20hz_g40_99.RAW', FMTDAT='(8E13.5)'
 TRAMP=1., VOLUME=1. $END
  3.04987E+05  1.07639E+03  3.34198E+05  2.47430E+05  8.56523E+04  3.40311E+05 -1.31171E+05  2.45479E+05
 -1.90624E+05  8.23691E+04 -1.12309E+05 -3.43053E+04  2.87721E+03 -5.12456E+04  5.41136E+04  3.66778E+03
  3.63906E+04  5.05065E+04 -1.86444E+04  7.63497E+04 -6.35873E+04  6.14848E+04 -8.25316E+04  3.35790E+04
 -7.80698E+04 -8.91366E+03 -5.21329E+04 -4.83348E+04 -1.33266E+04 -7.09030E+04  2.50574E+04 -4.74283E+04
  3.64068E+04 -7.31041E+02  1.53983E+04  4.50062E+04 -3.69680E+04  4.87710E+04 -6.45179E+04 -7.75709E+02
 -5.09723E+04 -5.51140E+04 -8.25000E+03 -7.35526E+04  3.32144E+04 -4.99477E+04  4.48178E+04 -1.47715E+04
  3.79716E+04  1.03947E+04  2.96056E+04  2.47251E+04  1.19523E+04  2.63997E+04 -1.10781E+03  2.75941E+04
 -2.25389E+04  8.03932E+03 -2.14918E+04 -2.83275E+03  8.05082E+03 -9.23087E+03  1.78932E+04  9.88513E+03
  8.42101E+03  3.60131E+04 -2.87499E+04  3.42952E+04 -5.92642E+04  3.45292E+03 -5.02512E+04 -4.12291E+04
 -8.14586E+03 -6.19325E+04  4.14420E+04 -4.32086E+04  5.36297E+04 -4.68538E+03  2.88623E+04  3.44560E+04
 -5.07976E+03  2.99412E+04 -3.23029E+04  1.25415E+04 -2.67211E+04 -4.37249E+03 -1.00795E+04 -8.84931E+03
 -6.08126E+03 -1.05707E+04 -4.44106E+03 -1.94156E+04  4.31125E+03 -2.10105E+04  1.41147E+04 -1.50332E+04
  1.11457E+04  7.25331E+03 -4.52778E+03  1.19913E+04 -1.56555E+04  1.71061E+02 -2.68330E+03 -2.85129E+04
  2.01183E+04 -3.87907E+04  4.45018E+04 -1.71643E+04  4.23052E+04  1.93690E+04  1.62073E+04  4.03352E+04
 -1.42049E+04  3.22991E+04 -2.14924E+04  4.35291E+03 -6.90627E+03 -2.28977E+04  2.51596E+04 -2.89519E+04
  4.00588E+04 -5.69108E+03  2.92306E+04  2.14720E+04  1.53114E+04  4.08056E+04 -6.14113E+03  4.53558E+04
 -2.78261E+04  2.77740E+04 -3.52846E+04  6.28947E+03 -3.96695E+04 -1.66234E+04 -2.04385E+04 -3.50443E+04
  5.58250E+03 -3.50057E+04  2.28300E+04 -1.07697E+04  2.92450E+04  1.42599E+04  9.24386E+03  1.55007E+04
 -1.54302E+04  6.96264E+03 -8.33236E+03 -1.01077E+04  8.66976E+03 -9.41792E+03  1.96056E+04  7.35568E+03
  1.07552E+04  1.86070E+04 -6.40060E+03  2.38416E+04 -2.03078E+04  1.03665E+04 -2.59503E+04 -7.83906E+03
 -1.57443E+04 -1.56895E+04 -7.25830E+03 -1.73743E+04  6.26607E+03 -1.06821E+04  1.34834E+04 -1.33689E+04
  1.91445E+04 -1.23377E+04  2.54948E+04 -2.78172E+03  2.17092E+04  1.46959E+04  4.59474E+03  2.88522E+04
 -1.64129E+04  2.68019E+04 -2.48240E+04  7.38095E+03 -1.99671E+04 -9.00475E+03 -6.34838E+03 -1.33189E+04
  4.07231E+03 -2.79202E+03 -4.07572E+03  6.75825E+03 -1.38544E+04  8.73716E+03 -1.12640E+04  6.08390E+02
 -7.15828E+03 -1.08303E+04  2.08288E+03 -1.67604E+04  1.02374E+04 -1.25380E+04  1.17565E+04 -1.93389E+03
  9.62539E+03  1.21338E+04 -2.77904E+03  1.51020E+04 -7.78379E+03  8.89866E+03 -1.86090E+04 -5.14132E+03
 -1.16801E+04 -1.03635E+04 -7.65798E+03 -2.11321E+04  9.97416E+03 -1.37836E+04  1.86801E+04 -3.42283E+03
  7.64943E+03  2.62104E+03  1.09887E+04  2.09637E+03  5.14136E+03 -4.69413E+02  3.63362E+03  1.17098E+03
  1.01012E+04  1.64386E+03  1.00946E+04  1.09173E+04  8.62676E+03  2.61090E+04 -3.55105E+03  2.37582E+04
 -1.34410E+04  1.79307E+04 -1.87688E+04  1.00890E+04 -2.10757E+04 -3.51611E+03 -1.95498E+04 -1.01924E+04
 -9.04648E+03 -1.75913E+04  8.69298E+03 -1.37656E+04  1.45025E+04 -8.38564E+03  1.72273E+04  3.24852E+03
  7.44598E+03  8.75739E+03 -7.45333E+03  1.15439E+04 -1.08425E+04 -8.03902E+01 -1.09634E+04 -3.61818E+03
  9.67207E+02 -1.16999E+04  6.14718E+03 -8.93384E+03  7.64262E+03 -3.75487E+02  1.64321E+03  3.69399E+03
 -5.32104E+03 -8.52124E+02 -2.49127E+03 -6.94861E+03 -1.44838E+03 -8.19649E+03  7.21332E+03 -8.53327E+03
  1.11323E+04 -5.17068E+03  1.06134E+04  2.81238E+03  8.35123E+03  1.11636E+04  4.91036E+03  8.62045E+03
 -2.54766E+03  1.11345E+04 -9.45972E+03  1.30125E+04 -7.94101E+03  5.98171E+02 -8.03714E+03 -2.50022E+03
 -1.51936E+03 -1.84004E+03  1.88310E+03  4.14693E+03 -5.34992E+03  9.11874E+02 -7.49109E+03  1.84001E+03
 -9.96138E+03  2.09811E+03 -1.13370E+04 -7.26187E+03 -2.56106E+03 -1.14006E+04  2.04313E+03 -6.97373E+03
  4.75529E+03 -2.85933E+03  1.01854E+03  2.58406E+03 -2.09139E+03  2.35106E+02 -5.19938E+03 -1.15707E+03
 -2.33928E+03 -6.51037E+03 -1.51801E+03 -5.15839E+03  3.39582E+03 -7.33121E+03  8.11082E+03 -5.94019E+03
  9.52930E+03  1.35335E+03  3.88809E+03  4.63726E+03  7.72006E+03  3.36461E+03 -3.71384E+03  7.82990E+03
 -8.47690E+03  1.71894E+03 -3.68412E+03  3.53411E+02  1.78372E+03  2.81316E+01  4.58546E+03 -4.59890E+01
  2.81310E+03  4.47235E+01 -2.62181E+03  6.49998E+03 -2.35900E+03  7.41544E+03 -4.86341E+03  8.24627E+02
 -4.86209E+03 -3.23243E+03 -1.34235E+03 -6.29874E+03  4.10330E+03 -2.60182E+03  3.29426E+03 -1.07482E+03
  4.37141E+03 -9.12105E+02 -5.32720E+03  2.96672E+03 -6.49945E+02 -1.58786E+03 -2.82607E+03 -2.44430E+03
 -1.45411E+03 -8.19959E+03  2.46841E+03 -4.06401E+03  6.93081E+03 -3.74835E+03  5.13037E+03  1.15107E+03
  9.88477E+02  2.86456E+03  4.53930E+03  4.40691E+03 -6.44671E+03  3.71067E+03 -5.03822E+03  7.27471E+02
 -7.72855E+03 -1.85690E+03 -1.19401E+03 -2.61758E+03  2.84555E+03 -6.21858E+03  6.15739E+03 -3.35517E+03
  5.06813E+03 -1.67093E+03 -2.05475E+03  2.26269E+03  1.07454E+03 -1.26411E+03  6.53041E+02 -2.01853E+03
  2.71377E+03  1.88061E+03  3.45145E+03  1.98737E+03  8.56123E+03  1.10932E+03  4.65714E+03  4.45008E+03
  1.32408E+03  2.15951E+03 -5.04884E+03  3.32214E+03 -7.93992E+03 -3.21169E+03 -8.94184E+03 -8.54694E+02
 -3.73540E+03 -5.32964E+03 -3.78228E+03  5.13550E+03  2.18422E+03  1.77542E+03  2.15810E+03 -4.77540E+03
  4.08209E+03  2.19864E+03  2.83884E+03 -4.38249E+03  3.77462E+02 -3.01554E+03  6.30463E+03  1.08280E+03
  2.70160E+03  9.51593E+02 -2.99445E+03  1.90055E+03 -5.52299E+03  3.62161E+03 -4.12569E+03  2.54088E+03
 -4.20019E+03  4.10594E+02 -5.77533E+03 -8.69096E+02 -1.95110E+03 -4.49475E+03  5.19204E+03 -4.17269E+03
  5.07524E+03 -2.13302E+03  3.93801E+03 -3.57717E+03  3.27206E+03  6.31102E+03  5.78572E+03  2.66148E+03
 -1.11496E+03  1.86797E+03 -3.02562E+03 -1.87610E+03  4.22232E+03 -3.35385E+03 -7.88452E+02  1.82613E+03
 -1.60685E+03 -2.07855E+03 -1.91932E+03 -9.57842E+02 -1.82113E+02 -1.89870E+03 -6.50700E+02  8.44911E+02
  3.91322E+02 -1.39051E+03 -1.85191E+03 -4.41037E+03  5.70683E+02 -5.12638E+03  3.84561E+03 -3.34518E+03
  4.53701E+03  3.75262E+03  3.23715E+03  1.30416E+03 -1.49943E+03  5.90711E+03 -3.75491E+03  3.21679E+03
 -2.49745E+03 -8.42509E+02 -7.12407E+02  1.35986E+03 -4.21893E+03 -5.39754E+03  3.17329E+03 -4.78548E+03
  3.46196E+03  4.87490E+02  5.12186E+03  2.47128E+02  7.08160E+02  2.43426E+03  3.81083E+03 -3.35043E+02
  1.90316E+03  1.87158E+03  1.60608E+03 -1.34052E+03 -5.30334E+02 -1.77359E+03  3.69806E+03  1.43104E+03
 -2.32122E+03  2.98263E+03 -2.96046E+03  5.31624E+02 -9.81012E+03 -1.07726E+03 -5.06688E+03  4.57619E+03
 -3.69109E+03 -2.50978E+03 -1.65180E+03 -3.08180E+03 -2.52710E+03 -1.29615E+03  1.99126E+03  6.75525E+02
  2.21234E+03  9.19632E+02 -1.53179E+03  8.59733E+02 -3.27939E+03  2.36591E+03 -4.89738E+03 -1.10514E+03
 -2.91950E+03 -2.01625E+03 -4.46085E+03  3.31379E+02  1.68948E+03  5.01898E+02  2.72192E+03 -5.56879E+02
  1.58184E+03  2.64373E+03  1.01542E+03  3.48413E+03 -5.42058E+03  7.70454E+02  2.00866E+03 -3.81665E+02
 -2.53133E+03  3.49382E+03  2.77794E+03  2.02867E+03  1.30910E+03  1.11275E+02 -2.46178E+02  3.57142E+03
 -2.05202E+03 -1.16959E+03  1.47840E+02 -7.09774E+02 -3.25278E+03 -3.20188E+03 -2.42983E+03 -2.05049E+02
  1.52195E+03 -3.55501E+03 -3.61276E+03  1.69753E+02 -2.01586E+02  2.56825E+03 -1.42789E+03 -1.13084E+03
 -3.22241E+03  6.74388E+02  1.58133E+03 -4.70628E+03 -4.96787E+03 -3.55015E+03  6.06646E+03  9.54007E+02
 -5.13122E+03  2.49896E+03  1.13825E+03 -1.46291E+03  3.00961E+03 -1.02519E+03  1.19961E+03 -7.91670E+02
 -1.94320E+03 -4.32630E+02  3.72809E+03  2.58854E+03 -3.57473E+02 -1.58042E+03  3.91820E+03 -3.14949E+03
  2.36782E+03  3.37725E+03  2.95086E+03 -1.25926E+03  1.78752E+03  2.71025E+03  1.31218E+03 -1.94074E+03
 -1.14418E+03  7.20872E+02 -2.60462E+03  3.07020E+03 -1.18082E+03 -5.57602E+01  1.63734E+03 -1.04534E+03
  1.96983E+03  2.79625E+02  2.47787E+03  1.51110E+01  2.82790E+03  8.21535E+02 -1.78812E+03 -1.28621E+03
 -3.14496E+02  1.73410E+03  3.04420E+03  1.37486E+02 -2.52602E+03  2.67743E+01 -6.26144E+02 -9.14542E+01
 -6.00793E+02  8.14441E+02 -7.49571E+03 -8.09217E+01  1.08100E+02 -4.77756E+03 -1.56747E+02 -4.79429E+02
 -1.55319E+03  2.75716E+02  1.48534E+03 -4.01440E+03 -1.48115E+03 -1.88367E+03  3.55010E+03 -6.65204E+03
  1.98845E+03 -3.54708E+03 -1.33546E+03  8.99627E+02 -2.44969E+02  1.46406E+03 -9.61890E+02  1.58094E+03
 -4.85288E+03  3.99114E+01  2.18185E+03  8.69739E+02  1.01413E+03 -1.86427E+03  2.05235E+02  1.70588E+03
 -3.17981E+03 -2.60541E+03 -1.95738E+03  3.87283E+03  2.05934E+03 -1.70588E+03  2.38018E+03  3.11809E+03
  1.30413E+03 -3.26014E+03 -1.85343E+03 -1.63351E+03  3.44840E+03  3.69448E+03  2.19461E+03  2.92851E+03
 -7.98319E+02  3.28716E+03 -2.89923E+03  1.86673E+02 -2.87107E+03  2.78585E+03 -2.02736E+03 -4.13350E+03
  2.65903E+03 -3.69873E+02  7.63526E+03 -2.32710E+03 -1.34441E+03 -9.66566E+02  2.11909E+03 -3.29630E+01
  2.61573E+03  1.34550E+03  9.53152E+02 -8.29621E+02 -2.74570E+02  1.28882E+03  1.54399E+03 -2.15687E+03
 -4.93418E+02  1.99717E+03  1.76192E+03  9.47898E+02 -1.09542E+03 -2.80337E+02 -4.65151E+03  1.55634E+03
 -9.00299E+02 -1.22625E+03  4.63526E+03  1.35905E+03 -1.24873E+03 -1.06403E+02  1.23041E+02 -5.16694E+02
  3.81373E+03 -1.97968E+03  2.45963E+03  2.31327E+03  5.04366E+03 -7.32203E+02  4.89327E+02 -7.74611E+01
 -5.01032E+02  1.06360E+03 -1.00565E+03 -1.63218E+02 -3.70295E+03 -6.29673E+01  6.50457E+02  2.22183E+03
 -7.25293E+02  3.68317E+03  2.24704E+03 -2.10829E+03 -2.36347E+03 -2.84488E+02  4.04959E+03 -1.52991E+03
  3.48445E+03 -3.24394E+02 -2.77753E+03 -2.60130E+02  9.36491E+02 -3.57081E+03 -3.46404E+03  7.89484E+02
  1.41325E+03 -2.68597E+03  1.99916E+03 -2.82338E+02 -2.12821E+03  8.17983E+02  1.38467E+03  3.48527E+03
