 $NMID ID='MM_0lb_SNR50_18hz_g50_3.RAW', FMTDAT='(8E13.5)'
 TRAMP=1., VOLUME=1. $END
  3.08312E+05  1.39257E+03  3.32300E+05  2.48597E+05  8.51257E+04  3.38100E+05 -1.32249E+05  2.48630E+05
 -1.91806E+05  8.20250E+04 -1.15340E+05 -3.35549E+04  5.20384E+03 -4.71496E+04  5.44805E+04  3.42207E+03
  3.35085E+04  5.40064E+04 -1.95901E+04  7.29940E+04 -6.35192E+04  5.95103E+04 -8.36152E+04  3.23640E+04
 -8.05245E+04 -1.02612E+04 -5.72710E+04 -5.04419E+04 -1.35451E+04 -6.75920E+04  2.77228E+04 -4.38401E+04
  3.65152E+04  7.10374E+03  1.13938E+04  4.72880E+04 -3.35444E+04  4.30315E+04 -6.42465E+04 -2.79779E+03
 -4.80002E+04 -5.37306E+04 -3.23390E+03 -7.49396E+04  3.26699E+04 -5.39091E+04  4.92607E+04 -1.87482E+04
  3.99704E+04  6.65002E+03  2.69584E+04  2.69202E+04  1.16525E+04  2.85682E+04 -5.42700E+03  2.21380E+04
 -2.36639E+04  1.14102E+04 -1.95870E+04 -6.50911E+03  3.80065E+03 -7.37790E+03  2.36460E+04  8.22451E+03
  5.12776E+03  3.30950E+04 -2.90760E+04  2.79001E+04 -6.15352E+04  2.34249E+03 -5.44460E+04 -3.67488E+04
 -1.13349E+04 -5.94454E+04  3.65340E+04 -4.33649E+04  5.76014E+04  2.49984E+03  3.27313E+04  3.50594E+04
 -3.34911E+03  3.33996E+04 -2.29404E+04  1.56202E+04 -3.14725E+04 -6.83049E+03 -1.67753E+04 -8.09966E+03
 -1.11434E+04 -1.45807E+04 -3.98047E+03 -1.72462E+04  5.25811E+03 -2.39653E+04  1.82635E+04 -1.47747E+04
  8.96190E+03  5.62730E+03 -1.01395E+04  1.06238E+04 -1.91802E+04 -3.39033E+03 -8.26798E+03 -2.67696E+04
  2.65767E+04 -4.08811E+04  4.32883E+04 -1.83302E+04  3.79376E+04  1.93027E+04  1.42376E+04  4.09187E+04
 -1.39750E+04  2.89550E+04 -2.00202E+04  4.48561E+03 -8.58416E+03 -3.15434E+04  2.54405E+04 -3.20867E+04
  3.44902E+04 -7.83605E+03  3.42796E+04  2.34558E+04  1.75502E+04  4.41129E+04 -8.36475E+03  4.75097E+04
 -2.93619E+04  2.93702E+04 -3.94085E+04  9.25885E+03 -4.37643E+04 -1.48077E+04 -2.02203E+04 -3.96548E+04
  6.29412E+03 -3.31747E+04  2.91575E+04 -1.27747E+04  2.26848E+04  1.05396E+04  2.87797E+03  1.69618E+04
 -1.31374E+04  4.10175E+03 -1.06950E+04 -4.37013E+03  2.30599E+03 -8.45560E+03  1.93949E+04  6.59062E+03
  1.39842E+04  2.10140E+04 -3.39360E+03  2.04072E+04 -2.07720E+04  1.05998E+04 -2.87086E+04 -5.74024E+03
 -1.66868E+04 -1.74607E+04 -1.43380E+03 -1.84414E+04  2.72471E+03 -1.67506E+04  1.29751E+04 -2.14235E+04
  2.11146E+04 -1.13825E+04  3.34039E+04  2.32602E+02  1.90685E+04  1.50422E+04  7.01746E+03  3.15262E+04
 -1.71973E+04  2.54395E+04 -2.45065E+04  8.00583E+03 -1.96988E+04 -9.68912E+03 -2.02282E+02 -2.03588E+04
  5.98944E+03 -2.83732E+03 -1.99741E+03  8.53919E+03 -1.61881E+04  6.70830E+03 -1.33359E+04 -5.35628E+03
 -1.07980E+04 -2.00047E+04  5.52421E+03 -2.15699E+04  1.83040E+04 -1.02477E+04  1.38493E+04 -2.46536E+03
  1.31519E+04  1.23363E+04  4.17980E+02  2.07018E+04 -6.91343E+03  1.05489E+04 -1.86676E+04 -5.53663E+03
 -1.17372E+04 -1.40460E+04 -3.86277E+02 -2.10753E+04  1.07664E+04 -1.80764E+04  1.67359E+04 -1.07837E+04
  1.27849E+04  1.46823E+03  1.19433E+04  4.27715E+03  3.96560E+03 -2.08773E+03  1.03022E+04 -4.92603E+02
  9.85813E+03 -1.87324E+03  1.78126E+04  1.36656E+04  7.96470E+03  2.50349E+04  2.28511E+02  2.79699E+04
 -1.86987E+04  2.19312E+04 -2.96657E+04  1.03681E+04 -2.91908E+04 -1.28485E+03 -2.50096E+04 -1.51833E+04
 -1.16468E+04 -2.30142E+04  9.33459E+03 -1.86009E+04  1.71965E+04 -1.57607E+04  1.61463E+04  5.24853E+03
  2.19467E+03  9.22552E+03 -7.62916E+03  9.46338E+03 -1.67214E+04 -2.13685E+03 -1.20940E+04 -1.11481E+04
 -3.92415E+02 -1.08667E+04  1.18451E+04 -8.78789E+03  7.44311E+03  5.12381E+02  3.20327E+03  2.73264E+03
 -8.50189E+03 -3.95564E+03 -3.25596E+03 -5.66287E+03  7.87924E+02 -9.03611E+03  5.76359E+03 -1.21818E+04
  1.08560E+04 -5.57145E+03  1.22336E+04  2.76002E+03  1.13294E+04  1.09113E+04  7.95179E+03  1.26575E+04
  2.97828E+03  1.51154E+04 -1.22929E+04  7.67482E+03 -1.06876E+04  4.64196E+03 -8.31069E+03 -4.59538E+03
 -3.62434E+03 -6.26761E+03 -2.05410E+03  3.51101E+03 -1.96216E+03  1.33157E+03 -3.06361E+03  2.72109E+01
 -1.05953E+04  3.33197E+03 -8.69775E+03 -6.91794E+03 -6.25249E+03 -1.38584E+04  7.92262E+03 -9.41336E+03
  7.65680E+03 -4.01210E+03  2.10440E+03  2.49646E+03 -4.76062E+03  8.58249E+02 -5.73970E+03  8.72064E+02
 -3.93961E+03 -6.60655E+03 -6.03827E+02 -6.26667E+03  3.02350E+03 -1.16398E+04  8.67072E+03 -7.92194E+03
  1.18110E+04  2.91394E+03  8.36003E+03  8.28503E+03 -2.69419E+03  7.58604E+03 -3.56631E+03  7.31131E+03
 -1.12203E+04  1.25585E+03 -8.67191E+03 -3.97243E+03  3.01785E+03  1.16846E+03  7.52178E+03 -3.79014E+03
  8.86849E+03  1.30947E+03  3.02562E+03  5.17634E+03 -5.62225E+03  8.47478E+03 -5.06124E+03  7.63763E+02
 -3.36189E+03 -5.28592E+03  1.17542E+03 -5.58217E+03  4.80957E+02 -9.41742E+02  3.53850E+03  1.19188E+03
  1.21243E+03  4.46279E+03 -9.85066E+02  2.65353E+03 -7.18281E+03  2.53437E+03 -4.00394E+03 -4.04405E+03
 -6.24078E+02 -5.82937E+03 -1.45320E+03 -7.04869E+03  5.87577E+03 -5.96674E+03  6.09696E+03 -3.09524E+03
  2.58631E+03  2.58072E+03  2.66563E+03  9.92267E+03 -1.02871E+03  2.24025E+03 -6.02993E+03  2.32792E+03
 -8.88640E+03 -2.71839E+03 -3.50571E+03 -8.37065E+03  4.01015E+03 -4.88945E+03  2.23004E+03 -4.22013E+03
  3.17742E+03  2.17680E+03 -1.66313E+03  2.44042E+03  2.14040E+03  1.22864E+03  9.54894E+02 -1.36320E+03
  1.40097E+03 -7.84859E+02  6.18329E+03  4.09266E+03  5.46880E+03  5.84100E+03  5.49690E+03  9.27212E+03
  2.78930E+03  6.26934E+03 -7.70525E+03  3.51386E+03 -1.35480E+04  9.72069E+02 -7.05196E+03 -1.57727E+03
 -7.09912E+03 -2.09403E+03  7.46289E+02 -4.07757E+03  2.62655E+03 -5.97828E+03  1.95784E+03 -1.45080E+03
  6.87722E+03 -1.28341E+03  8.52543E+02 -2.34813E+03  6.40438E+03 -3.75529E+03  1.11306E+04  5.34822E+03
  1.15939E+03 -1.12429E+03  1.42703E+03  7.29714E+03 -3.77179E+03  3.81191E+03 -6.17444E+03  3.94114E+03
 -3.73132E+03 -1.86764E+03 -4.78587E+03 -4.56719E+03 -2.45106E+03 -7.81590E+03  1.82193E+03 -2.88520E+03
  5.94284E+03 -4.99334E+03  6.80469E+03 -1.58397E+03  3.45620E+03  3.31211E+03  5.03229E+03  5.75122E+03
 -2.15741E+03  4.89076E+03 -4.66136E+03  9.21955E+02  1.18642E+03  1.07292E+03  2.06541E+03 -2.04382E+02
 -1.83582E+03  2.03288E+03  1.04195E+03  3.70347E+03  1.40189E+02 -3.09102E+02 -3.62827E+03 -2.78974E+03
 -4.75800E+03 -3.12489E+03 -8.05612E+01 -5.35853E+03  4.21642E+03 -4.88250E+03  3.46970E+03  1.50245E+03
  5.25923E+03  4.60370E+03 -1.50631E+03 -1.83730E+02 -2.10978E+03  5.23772E+03 -6.36090E+03  2.76967E+03
 -4.89462E+03  1.60528E+03 -6.79287E+03 -4.87044E+03  2.66217E+03 -2.30907E+03  7.13347E+03 -6.88172E+02
  1.48789E+03 -1.09786E+03  3.05326E+03 -3.23354E+01  4.31049E+03  8.52727E+03  2.16091E+03  7.04574E+02
  3.01772E+03  1.92104E+02 -1.26359E+03  2.01005E+03  3.02979E+03 -8.81226E+02  3.41788E+03 -5.10566E+02
  1.68341E+03  1.96014E+03 -1.09619E+03  1.90222E+03 -5.77662E+03  1.49240E+03 -6.16300E+03 -4.76826E+03
 -6.85264E+03 -3.78313E+03 -1.04085E+03 -7.89953E+03  4.85382E+03 -3.65088E+03  4.77593E+03 -3.44781E+03
  2.97326E+02  2.05747E+03  2.14472E+03 -3.42231E+03 -2.13507E+03 -3.58939E+03 -2.97926E+03  4.78622E+03
  4.88043E+02 -2.05031E+03  2.91266E+03 -2.21378E+03 -5.66008E+02  5.31905E+02  4.83847E+01  2.71776E+03
  1.15888E+03 -1.65542E+03 -1.21745E+03  1.71551E+03  3.74571E+02  1.63974E+03  2.40684E+02 -2.90807E+02
 -1.56137E+02  7.42518E+02  1.64294E+03 -9.82349E+02  3.62699E+03  5.30512E+03  1.41214E+03  2.01057E+03
 -4.14099E+03 -3.54726E+02 -5.10304E+03  2.21116E+02 -4.05154E+03 -6.19004E+02  1.47824E+03 -1.93011E+03
 -4.79653E+02 -9.63918E+02 -3.84286E+02 -4.87641E+03 -3.16723E+02  2.66275E+03 -1.54207E+03  2.71724E+03
 -5.27181E+03 -2.10178E+02 -1.29728E+03  5.06063E+03 -1.68436E+03 -7.26489E+02 -1.48254E+03 -5.36931E+03
  2.83717E+03 -5.09835E+03  3.39536E+03  2.59572E+02  5.05020E+03 -2.98970E+03  3.59838E+03 -1.92676E+02
 -1.02350E+03  1.30909E+03  6.96355E+02 -1.79209E+03 -6.32815E+02 -2.11052E+02 -6.74361E+02 -2.95801E+02
  5.33807E+03 -3.07614E+03  5.28869E+02  5.24433E+03  2.74756E+03  7.79906E+02 -2.58419E+02  3.62741E+02
 -1.39092E+02 -1.14066E+03  1.17859E+03 -1.67852E+03 -4.19134E+03 -1.18339E+02  8.74132E+02  6.62817E+02
  2.74153E+03  3.34811E+02  5.93986E+03  2.53222E+03 -6.41597E+02  3.92429E+02 -8.95043E+02  2.14410E+02
 -2.41633E+03 -2.66920E+03 -1.75069E+03 -1.48881E+03 -1.20701E+03 -3.33992E+03 -4.00289E+03 -1.76156E+03
  1.89894E+03 -3.84327E+03 -4.41681E+02  2.11072E+03 -1.49989E+03  1.32346E+03 -3.06823E+03 -3.19071E+03
 -1.66401E+03 -5.94411E+03 -1.87756E+03  3.59406E+02  2.75946E+03 -5.65166E+03 -1.81406E+03  4.09261E+02
  3.34515E+03  6.10026E+03 -3.19601E+03 -1.16495E+03 -1.18483E+03  5.10222E+03 -1.34277E+03  2.66044E+02
  2.05394E+02  5.39847E+03  1.67795E+03  8.45028E+02 -1.15158E+03 -1.51765E+03 -9.48747E+02 -1.07310E+02
 -1.69440E+03 -2.35852E+03 -3.15625E+03  3.02666E+02 -2.04521E+03 -2.05842E+03  3.61674E+03 -4.07656E+03
 -3.08090E+02  3.04831E+03  9.94966E+02  2.20720E+03 -2.66308E+02 -2.29289E+03  5.10804E+02  3.80665E+03
 -3.54127E+03  1.00897E+03 -4.40920E+03  9.80629E+02  1.94584E+03 -2.32336E+03 -4.02063E+03 -2.05148E+03
 -1.12231E+03 -3.06747E+03 -5.94904E+02 -1.66406E+03 -3.34662E+03 -2.91906E+03  4.35325E+03  2.03665E+03
  4.90862E+03  4.16238E+03 -3.81291E+03 -5.18650E+03 -1.93226E+03 -7.02140E+02  1.51170E+03  2.02562E+03
 -3.32768E+02 -3.63207E+03  6.01232E+03  1.67524E+03  1.67308E+03 -8.36460E+02  6.38797E+03  5.27398E+03
 -4.18165E+03 -1.83014E+03 -1.58721E+03 -1.24908E+03  5.83738E+02  2.97695E+03  7.55155E+02 -3.49080E+03
  2.50521E+03  2.92011E+03  2.35051E+03 -4.39585E+03 -9.98842E+02 -8.41330E+02  2.96406E+03  2.14625E+03
 -3.38260E+03  5.95119E+03  7.26660E+02  5.02279E+03 -1.61889E+03 -2.82710E+02 -1.87510E+03 -4.14363E+02
 -2.40259E+03 -1.15355E+03  7.71460E+02  4.50997E+03  1.60909E+03 -5.96227E+02  1.82346E+02  1.88583E+03
 -1.70545E+03 -1.65795E+03 -2.84544E+03  3.75434E+03  3.69233E+03 -2.19243E+03  2.55462E+03 -1.10247E+03
  8.63874E+02  7.36222E+02 -1.20944E+03  3.36845E+03  5.17164E+02  2.48357E+03 -1.97150E+03  2.46693E+03
