 $NMID ID='MM_0lb_SNR50_7hz_g50_36.RAW', FMTDAT='(8E13.5)'
 TRAMP=1., VOLUME=1. $END
  3.03679E+05 -1.31594E+03  3.28907E+05  2.53856E+05  9.27956E+04  3.39231E+05 -1.29181E+05  2.53592E+05
 -1.95104E+05  8.69162E+04 -1.05956E+05 -3.02998E+04 -4.06756E+03 -5.44983E+04  5.75031E+04 -2.76073E+03
  3.71279E+04  5.27477E+04 -1.44288E+04  7.29177E+04 -5.97673E+04  6.57280E+04 -8.84060E+04  3.25560E+04
 -8.18286E+04 -1.16181E+04 -6.55213E+04 -5.62152E+04 -1.40284E+04 -8.06776E+04  2.61532E+04 -5.29622E+04
  4.36333E+04 -2.66920E+03  1.44913E+04  4.96747E+04 -3.88410E+04  5.21819E+04 -6.85917E+04  1.14979E+03
 -5.07535E+04 -6.10387E+04 -3.17027E+03 -8.22917E+04  3.12008E+04 -5.78667E+04  4.34128E+04 -1.00722E+04
  4.25405E+04  8.79095E+03  3.37423E+04  1.71945E+04  1.19420E+04  3.07978E+04 -7.20870E+03  2.95343E+04
 -2.10527E+04  1.28246E+04 -1.85395E+04 -6.77797E+03  9.53909E+03 -9.87379E+03  1.98698E+04  1.47192E+04
  1.13061E+04  3.53826E+04 -3.50846E+04  3.92977E+04 -6.40513E+04  1.57503E+04 -5.87051E+04 -5.09911E+04
 -1.21021E+04 -6.85752E+04  4.24067E+04 -4.24152E+04  5.39884E+04  5.97646E+03  4.00762E+04  3.31378E+04
 -6.69146E+03  3.70904E+04 -3.07084E+04  1.97568E+04 -2.88470E+04 -1.48761E+03 -1.68600E+04 -1.14846E+04
 -8.84258E+03 -2.04097E+04 -6.06277E+03 -2.34393E+04  6.21489E+03 -2.24522E+04  1.92532E+04 -5.85380E+03
  1.35483E+04  1.17669E+04 -9.71376E+03  1.48764E+04 -2.61302E+04 -9.27069E+03 -1.28783E+04 -3.61049E+04
  1.68953E+04 -4.20725E+04  5.74761E+04 -2.16592E+04  4.89996E+04  3.05924E+04  1.98162E+04  4.90812E+04
 -1.04722E+04  4.15335E+04 -2.60362E+04  3.21083E+03 -1.35612E+04 -3.09535E+04  2.05202E+04 -3.42676E+04
  4.96252E+04 -6.91853E+03  4.18503E+04  1.92604E+04  2.42019E+04  4.85237E+04 -9.06066E+01  5.79454E+04
 -3.18915E+04  3.52334E+04 -5.23427E+04  2.65189E+03 -5.59399E+04 -8.96959E+03 -2.70464E+04 -4.53428E+04
  9.48332E+03 -4.42474E+04  4.05067E+04 -1.63438E+04  2.87621E+04  1.68865E+04 -2.38555E+03  2.30095E+04
 -1.62573E+04  1.36744E+04 -1.42036E+04 -1.70936E+03  1.10421E+04 -1.48101E+04  1.56678E+04  6.07150E+03
  2.17310E+04  2.47083E+04 -1.55812E+03  3.25434E+04 -2.10950E+04  7.31724E+03 -4.02302E+04 -6.03346E+03
 -2.72283E+04 -1.58915E+04 -1.40110E+04 -2.70759E+04  1.05448E+02 -2.43301E+04  2.55822E+04 -3.25902E+04
  3.38947E+04 -1.03014E+04  3.96766E+04 -5.79262E+03  3.39317E+04  2.67535E+04  6.96575E+03  4.31257E+04
 -2.25269E+04  3.75753E+04 -2.97034E+04  5.45697E+03 -2.26087E+04 -1.61023E+04 -1.36995E+04 -9.96919E+03
  4.82700E+03  4.93321E+02 -1.10825E+04  1.97451E+04 -2.51770E+04  3.49733E+03 -2.95138E+04 -1.34427E+04
 -1.47333E+04 -3.78050E+04  2.44990E+03 -2.88032E+04  1.35839E+04 -2.15241E+04  1.95561E+04  5.54874E+03
  1.32352E+04  1.32754E+04 -1.19389E+03  2.43966E+04 -2.17965E+04  8.16108E+03 -2.91974E+04 -5.15625E+03
 -1.41775E+04 -2.15948E+04  2.04314E+03 -2.48683E+04  1.43998E+04 -2.94477E+04  1.51277E+04 -1.60383E+04
  2.29046E+04  1.74034E+03  1.37475E+04  7.73855E+03  6.12748E+03 -1.85951E+03  1.75058E+04 -2.42199E+03
  2.44145E+04 -8.21150E+02  2.51133E+04  1.84319E+04  2.20876E+04  3.85318E+04 -1.87019E+03  5.23070E+04
 -3.19741E+04  4.12684E+04 -4.72479E+04  1.31843E+04 -5.38808E+04 -4.45316E+03 -3.65923E+04 -3.13980E+04
 -1.83630E+04 -4.21316E+04  1.24598E+04 -3.41738E+04  3.23017E+04 -1.57366E+04  2.80236E+04  1.22103E+04
  1.09820E+04  1.88827E+04 -6.40714E+03  1.49120E+04 -1.94699E+04  3.96510E+03 -2.54013E+04 -6.78165E+03
 -2.89661E+03 -2.30865E+04  8.47343E+03 -1.46743E+04  1.48292E+04 -7.56875E+03  4.52597E+03  4.80749E+03
 -1.01875E+04 -1.91834E+03 -7.56384E+03 -4.98704E+03 -1.82174E+03 -1.85748E+04  1.42901E+04 -2.35991E+04
  2.49379E+04 -1.50752E+04  3.99296E+04  9.62316E+03  2.41193E+04  2.77573E+04  1.13911E+04  3.76051E+04
 -9.78445E+03  3.60429E+04 -2.80303E+04  1.89736E+04 -2.64807E+04  8.43243E+03 -1.67850E+04 -6.80153E+03
 -1.34765E+04 -1.53975E+04 -5.84716E+03  1.77562E+03 -1.20335E+03  6.18557E+03 -8.00870E+03  8.54713E+03
 -2.37060E+04 -6.29618E+02 -1.63993E+04 -1.30279E+04 -7.53113E+02 -2.29822E+04  1.20365E+04 -1.52724E+04
  1.74720E+03 -3.35149E+03  4.23776E+03  1.08784E+04 -5.09970E+03  2.63789E+03 -9.91894E+03  2.26485E+03
 -9.60722E+03 -1.26537E+04 -7.28950E+03 -1.79209E+04  1.48423E+04 -2.07876E+04  2.31447E+04 -1.12184E+04
  2.48128E+04  5.46970E+03  1.77199E+04  8.28701E+03  9.96310E+03  2.29189E+04 -1.72241E+04  1.91968E+04
 -1.43851E+04  6.34426E+03 -9.05820E+03 -3.47556E+03  2.00709E+02 -2.89926E+03  1.68716E+04 -2.90730E+02
  1.42322E+04  1.46791E+04 -7.39788E+02  1.07398E+04 -8.99659E+03  1.12210E+04 -1.97973E+04  7.24765E+03
 -1.18032E+04 -1.60337E+04  6.11071E+03 -1.43005E+04  8.63633E+03 -1.24261E+04  1.19544E+04  7.23865E+03
  5.10836E+03  1.15853E+04 -1.62738E+04  1.73234E+04 -1.67289E+04  3.71964E+03 -2.13067E+04 -2.12104E+03
 -5.83026E+03 -2.00190E+04 -9.98321E+01 -2.36045E+04  1.90003E+04 -1.44289E+04  2.01314E+04  5.31404E+03
  1.13817E+04  2.04372E+04 -1.82513E+03  8.98384E+03 -7.86868E+03  1.11135E+04 -1.63458E+04 -2.16413E+03
 -1.23905E+04 -1.58813E+04  2.21542E+03 -1.86678E+04  1.07747E+04 -1.41417E+04  9.55907E+03 -1.24435E+04
  8.29914E+03  6.36291E+03  1.84677E+03  2.60701E+03  1.18226E+03 -2.28841E+03 -5.47113E+02 -1.54804E+04
  9.98614E+03 -1.05831E+04  2.57946E+04  5.89845E+03  2.17763E+04  1.53907E+04  9.40177E+03  3.07468E+04
 -6.43621E+03  3.43631E+04 -1.74289E+04  2.56606E+04 -3.93048E+04 -1.38709E+03 -2.39905E+04 -5.85407E+03
 -1.14612E+04 -1.89780E+04 -2.59616E+03 -2.16619E+04  3.98950E+03 -8.82407E+03  9.50045E+03 -8.24351E+03
  6.47928E+03  1.01320E+03  4.90336E+03 -6.17628E+03  4.63769E+03 -4.03432E+03  1.26101E+04 -4.96950E+03
  1.25108E+04  6.10524E+03  5.41452E+03  2.37550E+03 -6.11817E+03  9.71401E+03 -1.47060E+04  7.83591E+03
 -1.70429E+04 -1.32348E+03 -1.42382E+04 -1.37549E+04 -1.28732E+03 -1.68847E+04  3.56024E+03 -2.34641E+04
  1.96671E+04 -1.15198E+04  1.84540E+04  5.34862E+03  1.38381E+04  1.71662E+04  4.67145E+03  2.38390E+04
 -6.85929E+03  8.12049E+03 -1.03331E+04  2.72572E+03 -1.19042E+04 -8.81697E+03 -5.10588E+03 -4.92619E+03
  1.98052E+03  5.48447E+02 -9.42564E+03  6.00489E+03 -8.54449E+03  7.72422E+02 -1.26115E+04 -1.38423E+03
 -1.10844E+04 -1.74404E+04 -9.25906E+02 -1.84429E+04  6.76022E+03 -2.53178E+04  1.66755E+04 -1.69183E+03
  1.82629E+04  1.04768E+04  1.54285E+04  1.74619E+04 -5.13724E+03  1.54942E+04 -1.39570E+04  1.09256E+04
 -1.35064E+04  2.22383E+03 -4.51312E+03 -1.01260E+04 -6.69251E+02 -1.34572E+04  9.25208E+03 -5.91535E+03
  9.89556E+03 -2.93866E+03  7.40247E+03  2.29384E+03 -2.82263E+03  6.10042E+03  5.86789E+03  6.43562E+03
  6.75526E+02  4.68918E+03  8.57024E+03  5.53874E+03  1.09817E+04  9.88675E+03  6.37128E+03  8.93470E+03
 -7.51169E+03  1.49592E+04 -1.36103E+04  1.31539E+04 -1.66838E+04  5.59200E+03 -2.05939E+04 -1.03752E+04
 -1.08077E+04 -1.32076E+04  1.44284E+03 -2.61085E+04  1.06044E+04 -1.00375E+04  1.08891E+04 -1.22169E+04
  8.33031E+03  9.20358E+03  4.31098E+03  8.51723E+03 -4.54507E+03  8.23476E+03 -1.01210E+04 -4.78186E+03
 -1.03454E+03 -1.06962E+04  5.79806E+03 -5.46174E+03  1.80034E+03 -1.07997E+04  1.28631E+04 -3.74700E+03
 -1.70296E+03  5.16927E+03  6.35008E+02  6.95476E+03 -1.87456E+03  8.28769E+03  5.34165E+02 -3.99732E+02
  5.03150E+03 -5.22599E+02  6.71011E+03  4.31026E+03  4.63373E+03  6.28574E+03 -8.37770E+02  1.74922E+04
 -1.67681E+04  6.02849E+03 -2.22699E+04 -2.74584E+03 -1.01473E+04 -3.63823E+03  1.53389E+03 -1.47599E+04
  1.44141E+03 -1.15843E+04  2.29923E+03 -6.94308E+03  2.23631E+03 -1.34009E+03 -4.05968E+03  7.56955E+03
 -8.26834E+03  6.05434E+03 -1.62732E+04 -5.09580E+03 -2.90244E+03 -1.49262E+04  1.48062E+03 -1.59764E+04
  7.22327E+03 -8.41075E+03  1.41702E+04 -3.80564E+03  8.05852E+03  8.10328E+03  4.29464E+03  1.03875E+04
 -2.85343E+03  2.26910E+03 -5.81617E+03 -2.15617E+03  4.99579E+03 -1.34928E+04  1.39106E+04 -9.73314E+03
  1.44917E+04 -9.47094E+03  4.94964E+03  1.56302E+04  1.88087E+03  1.18528E+04 -9.99414E+03  1.69968E+04
 -1.05720E+04  6.51815E+03 -9.51312E+03  6.00109E+03 -1.06956E+04 -7.29277E+03 -5.74582E+02 -8.15901E+03
  5.48632E+03 -2.38126E+03  8.37521E+03  5.48914E+03  7.48977E+03  1.98222E+03  1.34251E+03  4.53167E+03
 -2.54034E+03  3.76605E+03 -4.71078E+02  6.73090E+03 -3.69979E+03  1.89832E+02 -2.93336E+03  7.08892E+03
 -7.52802E+03  6.96790E+03 -8.32863E+03  9.61058E+03 -1.29855E+04  2.16992E+03 -1.07568E+04 -6.62961E+03
 -1.17149E+04 -1.17716E+04  1.41136E+03 -1.90461E+04  1.37271E+04 -1.66545E+04  2.21322E+04 -3.15018E+03
  1.65096E+04  4.66579E+03  1.33986E+04  1.46767E+04  3.46182E+03  1.58539E+04 -6.08353E+03  4.60663E+03
 -9.55327E+03  4.17935E+03  3.16130E+03  6.38384E+03 -2.61959E+03 -7.28493E+02  4.89556E+03  3.35145E+03
 -5.52799E+03  2.34667E+03 -8.71026E+03  2.57421E+03  1.39395E+03 -2.74950E+03 -5.55098E+03 -7.44504E+03
  4.04151E+03  1.02578E+03  4.38193E+03  3.58218E+02  7.74633E+03  2.13920E+03  1.66351E+03  6.88092E+03
 -2.46805E+03  1.66120E+04 -7.47837E+03  6.10077E+03 -1.93270E+04 -1.67449E+03 -1.71565E+04 -1.24511E+04
 -6.28463E+03 -1.40587E+04  6.53278E+02 -1.49438E+04  1.22661E+04 -1.37230E+04  9.18607E+03  9.00813E+02
 -8.42382E+02  1.88715E+02  5.03651E+02 -2.09706E+03 -5.85566E+03  5.07805E+02 -3.04804E+03 -7.41529E+03
 -3.55344E+03  2.14003E+03  7.75267E+03 -6.56071E+03  2.70198E+03  3.09837E+03  5.58521E+02  1.36129E+04
 -6.23085E+03  1.48039E+04 -1.12924E+04  7.06962E+03 -7.74969E+03 -8.55796E+03  9.13471E+02 -8.89530E+03
  4.05606E+03 -1.67283E+04  7.23611E+03 -2.28906E+03  6.47051E+03  2.74612E+03  3.31079E+03  8.82701E+03
  1.22799E+03  1.91446E+04 -5.89535E+03  1.09539E+04 -9.85974E+03  7.49572E+03 -4.17111E+03  5.67632E+03
  1.07325E+03  5.45306E+02 -3.37997E+03 -3.01706E+03 -9.95144E+03 -5.57567E+02 -5.28143E+03  5.20676E+03
 -8.99894E+03 -1.44552E+04 -3.19577E+03 -1.10321E+04  3.77475E+03 -6.84612E+03  1.89261E+04 -5.40112E+03
  9.36263E+03  2.24417E+02  1.40623E+04  6.18433E+03  4.59186E+03  1.83170E+04 -1.45687E+04  1.26389E+04
