 $NMID ID='MM_0lb_SNR50_11hz_g60_84.RAW', FMTDAT='(8E13.5)'
 TRAMP=1., VOLUME=1. $END
  3.10250E+05  2.02090E+03  3.39824E+05  2.48987E+05  8.34032E+04  3.34268E+05 -1.35074E+05  2.57267E+05
 -1.88070E+05  8.44486E+04 -1.06654E+05 -3.12950E+04  1.52610E+03 -5.50228E+04  5.76925E+04  6.15668E+03
  4.11042E+04  4.82388E+04 -1.42841E+04  8.13641E+04 -5.95183E+04  6.30263E+04 -8.46891E+04  3.34247E+04
 -8.54202E+04 -1.16328E+04 -6.16748E+04 -5.42177E+04 -1.53987E+04 -7.37017E+04  2.38941E+04 -4.54463E+04
  3.68214E+04  5.34874E+03  1.60859E+04  4.97467E+04 -3.50776E+04  4.87334E+04 -6.70424E+04  6.35709E+03
 -5.44122E+04 -5.58523E+04 -3.84119E+02 -7.46884E+04  4.08107E+04 -6.30893E+04  4.58183E+04 -1.16561E+04
  4.68320E+04  9.21463E+03  3.28461E+04  2.90833E+04  1.36456E+04  3.07850E+04 -4.33149E+03  2.81972E+04
 -2.56871E+04  9.76818E+03 -2.28836E+04 -2.65352E+03  1.09104E+04 -1.03239E+04  2.52898E+04  1.51038E+04
  6.16305E+03  3.66124E+04 -3.08600E+04  3.25173E+04 -6.74494E+04  4.08906E+03 -6.44485E+04 -4.37105E+04
 -1.13041E+04 -6.04884E+04  3.96725E+04 -4.53711E+04  6.06157E+04 -5.66291E+03  3.67705E+04  3.28985E+04
 -1.00424E+04  3.96395E+04 -3.03062E+04  1.89244E+04 -3.44323E+04 -1.13304E+02 -2.56043E+04 -5.15677E+03
 -9.35064E+03 -1.44142E+04  9.43508E+02 -2.02192E+04  4.60556E+03 -2.29224E+04  1.28761E+04 -8.88410E+03
  1.36369E+04  1.20651E+03 -1.08303E+04  1.51977E+04 -2.37409E+04 -1.07173E+04 -1.15728E+02 -3.95536E+04
  2.65924E+04 -4.83601E+04  4.75182E+04 -2.06473E+04  4.82733E+04  2.71813E+04  1.63219E+04  5.01848E+04
 -1.86992E+04  3.51867E+04 -2.80948E+04  3.81595E+03 -1.31013E+04 -2.60712E+04  2.44480E+04 -3.82756E+04
  4.49743E+04 -1.11233E+04  4.04671E+04  2.67103E+04  1.76566E+04  4.94773E+04 -9.79862E+03  6.02944E+04
 -2.84570E+04  3.98141E+04 -4.99255E+04  7.43263E+03 -4.04152E+04 -1.51851E+04 -2.24897E+04 -4.06977E+04
  1.15703E+04 -3.29125E+04  2.86286E+04 -1.67618E+04  2.33137E+04  1.13538E+04 -8.70071E+02  2.47555E+04
 -1.74844E+04  1.18588E+04 -1.56230E+04 -5.72966E+03  1.00608E+03 -1.35721E+04  1.97647E+04  6.77295E+03
  1.38101E+04  2.97578E+04 -1.20603E+04  3.02988E+04 -1.79193E+04  1.31161E+04 -2.41747E+04  3.00048E+03
 -2.26272E+04 -1.95577E+04 -1.36656E+04 -2.10720E+04  5.15893E+03 -2.30429E+04  1.62696E+04 -2.48304E+04
  2.78753E+04 -1.26386E+04  4.16980E+04  3.45835E+03  2.88458E+04  2.77637E+04  7.22928E+03  3.72308E+04
 -2.42825E+04  2.87798E+04 -3.53781E+04  1.42902E+04 -2.38732E+04 -5.72736E+03 -3.34686E+02 -1.69331E+04
  4.31798E+03 -4.22027E+03 -5.62867E+03  8.38962E+03 -1.78875E+04  9.12928E+03 -1.67715E+04 -8.48537E+03
 -1.15905E+04 -2.84442E+04  3.04820E+03 -2.77481E+04  1.44433E+04 -2.08812E+04  2.36050E+04  3.69161E+03
  1.58747E+04  1.48079E+04 -8.10501E+03  2.85233E+04 -1.93594E+04  1.00046E+04 -2.29047E+04 -7.71409E+03
 -1.39858E+04 -1.89474E+04  2.34949E+03 -2.45072E+04  1.49034E+04 -2.30929E+04  2.10722E+04 -1.42659E+04
  1.96038E+04  5.13901E+02  1.62778E+04  4.31757E+03  1.47174E+04  2.80787E+02  1.07746E+04 -2.76744E+03
  1.89512E+04 -1.14559E+03  2.33574E+04  2.14033E+04  1.63000E+04  3.56938E+04 -4.82046E+03  4.23634E+04
 -2.36893E+04  3.66611E+04 -4.23152E+04  1.44001E+04 -4.56999E+04 -5.76676E+03 -3.44446E+04 -2.62959E+04
 -1.70974E+04 -3.47427E+04  9.68996E+03 -2.99492E+04  2.30895E+04 -1.88521E+04  2.52049E+04  1.01044E+04
  9.50715E+03  2.06024E+04 -1.18973E+04  1.88127E+04 -1.80036E+04  1.80436E+03 -9.51222E+03 -1.56554E+04
  3.98420E+03 -1.41826E+04  8.17963E+03 -8.04395E+03  1.18661E+04 -2.05066E+03  5.39794E+03  7.83069E+03
 -3.08970E+03  3.37724E+03 -8.81521E+03 -2.92726E+03 -3.86893E+03 -1.83624E+04  1.07668E+04 -2.09909E+04
  2.62850E+04 -1.59554E+04  2.99834E+04  4.49147E+03  2.49605E+04  1.34398E+04  1.59286E+04  2.54648E+04
 -4.17890E+03  3.19195E+04 -2.32186E+04  1.72141E+04 -1.87977E+04  5.33545E+03 -1.80771E+04 -9.43302E+03
 -2.79136E+03 -3.70953E+01 -1.82593E+03  5.23432E+02 -7.13219E+03  2.90241E+03 -1.00368E+04  4.13473E+03
 -1.30823E+04  4.91397E+03 -1.44888E+04 -1.58969E+04 -3.77145E+03 -1.98786E+04  4.93251E+03 -1.43093E+04
  1.40693E+04 -6.97437E+03  1.44955E+04  6.13383E+03  2.35756E+03  6.00866E+03 -7.18951E+03 -1.39707E+03
 -6.21327E+03 -1.36485E+04 -4.62430E+03 -1.98855E+04  6.53711E+03 -1.40277E+04  1.89479E+04 -1.56293E+04
  2.62923E+04 -7.37299E+03  1.94844E+04  5.75335E+03  3.59156E+03  1.57026E+04 -1.30521E+04  1.31234E+04
 -1.31257E+04 -2.49056E+03 -6.98766E+03 -4.07816E+03 -2.56830E+03 -1.83649E+03  8.80022E+03 -3.19593E+02
  4.26073E+03  3.27019E+03 -6.44330E+03  1.25132E+04 -1.02240E+04  1.54441E+04 -1.94770E+04  6.85418E+03
 -6.27376E+03 -7.68112E+03  6.88766E+02 -1.10042E+04  1.03771E+04 -7.41561E+03  9.20677E+03  8.12536E+03
  3.81234E+03  1.19611E+04 -1.27403E+04  8.16228E+03 -1.05934E+04  5.11300E+03 -1.56675E+04 -4.25859E+03
 -1.45563E+04 -1.17761E+04  1.34480E+03 -2.00618E+04  1.25117E+04 -8.43327E+03  1.65890E+04  2.72463E+03
  1.56354E+04  1.13866E+04 -1.11947E+03  1.60858E+04 -1.05441E+04  2.43036E+03 -1.33836E+04 -5.42175E+03
 -6.37280E+03 -1.54970E+04  1.32895E+03 -1.39985E+04  5.52305E+03 -1.19038E+04  5.59413E+03 -4.20506E+03
  8.23432E+03  1.16917E+04  1.62276E+03  1.65548E+03 -3.08873E+02 -2.28749E+03 -2.74799E+03 -1.11995E+04
  1.51480E+04 -4.13581E+03  1.59725E+04 -3.59299E+02  1.78264E+04  6.01062E+03  1.42032E+04  1.65731E+04
 -4.75545E+03  2.54557E+04 -2.55691E+04  2.00892E+04 -2.79666E+04 -1.05608E+03 -1.49604E+04 -5.26856E+03
 -1.24132E+04 -1.59156E+04  2.16809E+03 -1.54504E+04  6.18820E+03 -7.44359E+03 -1.03721E+03 -7.28170E+03
  7.56602E+03 -3.40320E+03  5.36401E+03 -7.67210E+03 -2.60659E+03  2.62309E+03  8.76534E+03 -5.72899E+02
  4.96036E+03  1.76766E+03  3.38942E+03  4.69569E+03  1.08179E+03  7.28267E+03 -6.50882E+03  1.41227E+04
 -8.87656E+03  7.91817E+02 -7.27086E+03 -4.89410E+03 -2.78312E+03 -1.22994E+04  7.89643E+03 -1.23071E+04
  1.23513E+04 -3.81966E+03  1.62806E+04  1.64018E+03  8.86429E+03  1.45661E+04  1.38126E+03  1.63921E+04
 -7.63304E+03  1.54624E+04 -1.09655E+04  2.51777E+03 -7.41479E+03  7.12912E+02 -4.06139E+03 -3.10153E+03
 -2.94569E+02  4.02038E+03 -4.36746E+03  5.45074E+03 -3.19658E+03  2.05119E+03 -8.25834E+03 -5.55408E+02
 -1.58572E+03 -6.30314E+03 -1.69755E+03 -9.80480E+03  8.78908E+03 -9.03754E+03  1.26967E+04 -1.27128E+03
  8.54578E+03  1.23387E+03  3.95134E+03  9.75509E+03  1.63884E+03  1.29587E+04 -5.60727E+03  4.15060E+03
 -1.39623E+04  2.71618E+03 -1.34990E+04 -6.80598E+03 -1.42381E+03 -7.40622E+03  7.96246E+03 -1.31874E+04
  9.69574E+03 -4.37992E+03  5.24012E+03  9.34319E+02  4.89667E+03  2.69113E+03 -1.56445E+03  3.25041E+03
 -4.91061E+02  7.42510E+02  4.72426E+03  1.54694E+03 -5.58711E+03  5.22627E+03  3.24091E+03  1.18850E+04
  2.56014E+03  1.20051E+04 -6.06351E+03  4.42213E+03 -7.80273E+03 -1.66240E+03 -1.77850E+04 -9.49071E+03
 -7.55267E+03 -1.22329E+04  6.70946E+02 -1.88462E+04  8.39395E+03 -1.48207E+04  1.06031E+04 -5.56595E+03
  1.64774E+04  5.80104E+03  1.05995E+03  3.63208E+03 -3.38827E+02  5.08341E+03 -1.07422E+04  1.66702E+02
 -7.92860E+03 -6.75644E+03  1.28504E+03 -5.68118E+02 -8.04994E+02 -1.82497E+03  8.04376E+03  5.76850E+02
 -2.89885E+02 -2.96891E+03  1.66844E+03  3.90580E+03  1.41874E+03 -5.85029E+02  3.19772E+03 -1.72800E+02
  2.68710E+03  2.88511E+03  1.08541E+04  3.76150E+03  6.78160E+03  5.70765E+02 -2.11544E+03  7.76864E+03
 -8.42295E+03 -6.02341E+02 -7.05485E+03 -4.32611E+03 -6.76243E+03  4.02128E+03 -1.53396E+03 -4.01738E+03
 -7.35986E+02 -7.98603E+03 -3.36137E+03 -1.22591E+03  3.66151E+03  4.68800E+02 -3.10164E+03  6.40719E+03
 -1.03083E+04  5.55029E+03 -3.79440E+03 -2.42297E+03 -5.55557E+03 -4.82476E+03  3.19722E+03 -4.58027E+03
 -2.80784E+02 -4.25473E+03  2.91449E+03 -2.28397E+03  2.24202E+03  1.98205E+03 -2.77525E+03  1.22313E+03
 -3.84368E+03  1.36594E+03 -1.25482E+03  2.63407E+03  1.90279E+03 -5.33903E+03  8.66089E+03 -1.11209E+03
  7.36366E+03 -2.54290E+03  5.59211E+03  1.87515E+03  5.95535E+03  1.49899E+04 -4.14390E+03  6.08975E+03
 -6.52625E+03  5.48999E+03 -7.47859E+03 -1.43646E+02 -2.56845E+03 -5.31806E+03  3.19540E+03 -5.27043E+03
  7.68339E+03 -1.40947E+03  4.55319E+03  7.05740E+02 -4.06569E+03  7.50836E+03  6.56195E+02  5.87029E+03
  1.39733E+03  6.56075E+03 -2.36606E+03 -4.62467E+03  1.24750E+02 -9.79272E+01  1.36958E+03  4.56247E+03
  1.55417E+03 -2.79198E+03 -2.43107E+03 -9.59306E+02 -1.15835E+04 -3.77249E+01 -4.89248E+03 -3.38202E+03
 -8.15979E+03 -8.44064E+03  1.65604E+03 -1.23820E+04  8.98961E+03 -1.14915E+04  1.02149E+04 -9.82748E+02
  8.86926E+03  2.96445E+03  7.24862E+03  8.53649E+03 -4.36433E+03  9.33701E+03 -3.30499E+03  5.51820E+03
 -4.52964E+03 -1.17303E+03 -2.90815E+03 -1.71609E+03 -7.55793E+01 -2.43483E+03 -4.03421E+03 -5.25552E+03
  1.43625E+03  1.15290E+03 -3.49036E+02  1.74779E+03  4.15538E+03 -1.94603E+03  5.37837E+03  5.32502E+01
 -6.78757E+02 -4.46898E+03  4.66126E+03  3.26897E+03  7.95276E+03  2.97245E+03  7.14786E+02  9.55765E+03
  1.44585E+03  4.94112E+03 -5.60880E+03  6.60737E+03 -3.93388E+03  3.42669E+03 -8.99272E+03 -5.02361E+03
 -6.42722E+03 -8.56489E+03  5.81403E+03 -6.90567E+03  1.31393E+03 -4.26000E+02  2.24970E+03 -3.43642E+03
  4.25604E+03  5.61926E+03  3.36983E+03 -2.95370E+02 -1.50421E+03 -7.06317E+02 -2.91206E+03 -1.35336E+03
  2.46984E+03 -3.28321E+03  1.90510E+03 -2.74077E+03 -3.61620E+03  4.30210E+03  3.60295E+03  3.16902E+03
  2.81767E+03 -5.38786E+03 -1.41056E+04 -2.14319E+03 -5.64097E+03 -6.67120E+03  2.42441E+03 -7.23076E+03
  6.68559E+01  1.34168E+02  4.05515E+03  9.08834E+02  5.61720E+03 -5.51171E+02  1.03459E+03  4.08305E+03
 -2.57876E+03  8.18745E+03 -2.46715E+03  1.69962E+03 -7.51784E+03  4.48375E+03 -4.11398E+03  2.13826E+03
 -5.82188E+03  2.20981E+03 -6.51077E+03 -1.90708E+03  8.59918E+02  4.05347E+03 -6.69234E+03 -4.78545E+03
 -8.30331E+03 -2.55531E+03  4.79815E+03 -7.23952E+03  1.91010E+03 -7.05823E+03  2.03593E+03 -7.93360E+03
  2.28653E+03 -2.84156E+02  5.03067E+02  3.74756E+03  5.41454E+03  1.82405E+03 -3.48691E+03  2.47682E+03
