 $NMID ID='MM_0lb_SNR50_13hz_g55_56.RAW', FMTDAT='(8E13.5)'
 TRAMP=1., VOLUME=1. $END
  3.10106E+05  1.25849E+03  3.42333E+05  2.45653E+05  8.29470E+04  3.36162E+05 -1.30231E+05  2.51454E+05
 -1.89478E+05  8.26455E+04 -1.09874E+05 -3.38923E+04  1.41650E+03 -4.71331E+04  5.39475E+04 -5.80551E+02
  3.93762E+04  5.32646E+04 -1.61758E+04  7.21238E+04 -6.24442E+04  5.88612E+04 -8.19517E+04  3.51227E+04
 -7.70456E+04 -1.20268E+04 -6.09811E+04 -5.19637E+04 -1.41505E+04 -7.11524E+04  2.68079E+04 -4.85652E+04
  4.08563E+04 -1.74329E+03  1.40802E+04  4.81802E+04 -4.04195E+04  4.41209E+04 -6.97825E+04 -2.40227E+03
 -5.39809E+04 -5.94685E+04 -4.17645E+03 -8.10234E+04  3.44578E+04 -5.37706E+04  4.93586E+04 -1.94410E+04
  4.34145E+04  1.40670E+04  2.91613E+04  2.71494E+04  1.64277E+04  3.04097E+04 -6.69647E+03  2.26922E+04
 -2.26950E+04  4.65823E+03 -1.90688E+04 -9.76049E+03  1.01741E+04 -4.78376E+03  2.36606E+04  1.19350E+04
  7.55347E+02  3.49147E+04 -2.82271E+04  3.84548E+04 -6.86344E+04 -3.09904E+02 -5.60898E+04 -4.20326E+04
 -1.06698E+04 -5.91636E+04  4.24319E+04 -4.99505E+04  5.68988E+04 -6.83522E+02  3.46243E+04  3.93185E+04
 -6.61491E+03  3.92782E+04 -2.75409E+04  2.14366E+04 -2.59989E+04 -5.97664E+03 -2.00522E+04 -1.05098E+04
 -6.96605E+03 -1.58807E+04  7.90822E+02 -2.09650E+04  8.07192E+03 -1.85481E+04  1.98113E+04 -1.96167E+04
  1.16844E+04  2.48782E+03 -6.74833E+03  1.45097E+04 -2.33554E+04 -2.81491E+03 -4.74197E+03 -3.49190E+04
  2.73978E+04 -4.88585E+04  4.55139E+04 -2.69081E+04  4.61113E+04  1.79797E+04  1.53374E+04  4.06345E+04
 -2.03189E+04  3.37430E+04 -2.85925E+04  2.91337E+03 -1.08546E+04 -2.68200E+04  1.74611E+04 -3.35267E+04
  4.98664E+04 -1.17348E+04  3.52220E+04  2.05210E+04  1.91002E+04  5.09322E+04 -7.13792E+03  5.30289E+04
 -3.26206E+04  3.50338E+04 -4.50647E+04  8.35439E+03 -3.74054E+04 -2.26016E+04 -1.61447E+04 -3.98306E+04
  9.60629E+03 -4.14650E+04  3.21826E+04 -1.81016E+04  3.19141E+04  1.55700E+04  1.25451E+03  1.85251E+04
 -1.34093E+04  7.85725E+03 -8.00477E+03 -1.10237E+04  7.00628E+03 -1.59151E+04  1.69487E+04  7.80507E+03
  1.17357E+04  2.11304E+04 -1.38673E+03  2.47797E+04 -2.21052E+04  1.33914E+04 -2.78098E+04 -5.98508E+03
 -2.57245E+04 -1.36156E+04 -1.30618E+04 -2.07474E+04  5.29415E+03 -2.09017E+04  1.86613E+04 -1.70261E+04
  3.53562E+04 -1.23249E+04  3.59436E+04  6.10684E+03  1.97572E+04  2.46303E+04  1.07421E+03  3.95090E+04
 -1.66800E+04  3.33194E+04 -2.47365E+04  1.51031E+04 -2.71989E+04 -8.77195E+03 -3.51847E+03 -1.10905E+04
 -1.39900E+03 -7.45821E+03 -6.13493E+03 -6.97633E+01 -1.60866E+04  1.74845E+03 -1.22153E+04 -8.40253E+03
 -1.45366E+04 -2.17059E+04  4.11652E+03 -2.90865E+04  1.79918E+04 -1.83590E+04  1.59178E+04 -2.39447E+03
  1.50568E+04  1.64470E+04 -2.91395E+03  1.72535E+04 -1.06406E+04  1.08720E+04 -2.07455E+04 -2.32687E+03
 -1.76072E+04 -2.00597E+04 -1.46301E+03 -2.50835E+04  5.76622E+03 -1.59178E+04  2.15347E+04 -7.92608E+03
  2.22390E+04 -1.16660E+03  9.04445E+03  1.85280E+03  8.64279E+03  2.25362E+03  1.21113E+04 -2.63250E+03
  1.83899E+04 -1.50138E+03  2.43823E+04  1.51323E+04  1.33647E+04  2.58630E+04 -4.38118E+03  3.77323E+04
 -1.86612E+04  2.74597E+04 -3.33571E+04  1.38714E+04 -4.05113E+04 -3.85810E+03 -3.45579E+04 -2.33948E+04
 -1.21015E+04 -3.07521E+04  1.22353E+04 -2.46601E+04  2.36705E+04 -1.36345E+04  2.17045E+04  5.12159E+03
  9.53358E+03  1.68849E+04 -6.21973E+03  1.07895E+04 -1.36428E+04  1.40722E+03 -1.69943E+04 -1.15489E+04
  2.35154E+03 -1.68603E+04  9.58939E+03 -8.56608E+03  7.04054E+03  3.43683E+03  2.38454E+03  4.98087E+03
 -8.30011E+03  2.18841E+02 -7.95988E+03 -8.91695E+03 -1.62323E+03 -1.95170E+04  1.16600E+04 -1.50839E+04
  2.24355E+04 -9.94781E+03  1.98000E+04  2.50221E+03  1.79911E+04  1.73101E+04  6.05304E+03  1.75330E+04
 -8.45596E+03  2.68919E+04 -1.47878E+04  1.18674E+04 -1.56642E+04  3.50816E+03 -1.23148E+04 -5.20140E+03
 -5.93571E+03 -4.85820E+03 -1.89806E+03  6.12345E+02 -4.08116E+03  5.72901E+03 -4.02916E+03  3.85595E+03
 -9.12194E+03 -1.97582E+03 -7.29833E+03 -8.06269E+03 -6.64105E+03 -1.13218E+04  6.94887E+03 -1.55249E+04
  1.61468E+04 -5.84426E+03  4.49637E+03  6.67784E+03 -2.63603E+03  4.98842E+03 -9.60357E+03 -2.14781E+03
 -6.52916E+03 -1.44050E+04  1.18070E+03 -7.38345E+03  6.33872E+03 -1.04763E+04  1.73050E+04 -6.28244E+03
  1.61239E+04  5.76063E+02  1.09050E+04  1.36036E+04 -7.67041E+02  1.26565E+04 -5.21351E+03  1.35256E+04
 -8.95107E+03  3.52912E+03 -5.01297E+03 -2.42676E+03  3.74035E+03  2.43211E+02  1.31203E+04 -5.05335E+03
  5.15084E+03  8.28236E+03 -2.89969E+03  1.02549E+04 -8.55276E+03  1.16975E+04 -9.23421E+03  3.44675E+03
 -5.78577E+03 -4.96214E+03 -6.72351E+03 -8.46624E+03  2.58534E+03 -6.96885E+03  9.86943E+03  4.12354E+03
 -1.95626E+03  9.88747E+03 -8.59405E+03  1.11619E+04 -1.09430E+04  2.58725E+03 -1.18437E+04 -4.51941E+03
  3.48051E+02 -1.11510E+04 -7.32740E+02 -1.10431E+04  9.75105E+03 -1.05348E+04  1.00825E+04  3.52870E+03
  5.10707E+03  1.19948E+04 -4.55583E+03  8.41142E+03 -9.26434E+03  5.51858E+03 -5.06689E+03 -3.76236E+03
 -8.99789E+03 -9.81708E+03  5.01030E+03 -9.16543E+03  5.02560E+03 -6.22920E+03  3.33651E+03 -6.85351E+03
  1.15371E+03 -1.35826E+03 -1.20899E+02  2.36911E+03 -6.92831E+02 -4.40246E+03  3.47986E+03 -1.20541E+04
  1.82551E+04 -5.15270E+03  1.26472E+04  1.24657E+03  1.40277E+04  1.15261E+04  2.27787E+03  1.50034E+04
  7.27450E+02  1.62790E+04 -1.27013E+04  1.57720E+04 -2.05734E+04  7.16663E+03 -1.58686E+04 -7.38674E+03
 -5.20128E+03 -1.13304E+04  3.35204E+02 -1.38916E+04 -1.24165E+02 -3.75692E+03  1.05134E+03 -1.94581E+03
  3.43328E+03 -7.28982E+03  1.53249E+03 -3.10796E+03  3.39608E+03 -1.72310E+03  9.29108E+03  3.05093E+02
  7.41094E+03  4.50149E+03  3.98618E+03  8.26452E+03  5.42604E+02  7.21502E+03 -4.50595E+03  4.82749E+03
 -9.67409E+03 -7.85491E+01 -8.21851E+03 -9.56776E+03 -1.74852E+03 -1.16762E+04  8.79835E+03 -7.80160E+03
  1.16366E+04 -6.85928E+03  1.08742E+04 -4.53827E+02  1.06493E+04  9.66994E+03  2.40661E+03  9.82408E+03
 -6.63123E+03  7.96329E+03 -9.27016E+03  8.02696E+03 -2.17039E+03 -1.06985E+03 -7.29016E+03 -2.45977E+03
  6.57150E+02 -1.75004E+03 -2.90154E+02  4.45151E+03 -9.25639E+03 -1.94058E+03 -1.03110E+04 -7.15348E+02
 -9.91985E+03 -6.98112E+03 -6.83881E+02 -1.54385E+04 -5.44313E+02 -8.84391E+03  1.34966E+04 -3.63515E+03
  1.31437E+04  3.81243E+03  1.01339E+03  7.79249E+03 -7.85869E+03  5.87841E+03 -8.95164E+03  1.04281E+04
 -8.47835E+03 -5.66197E+02 -7.84600E+03 -4.54419E+03  1.71028E+03 -1.06944E+04  2.48474E+03 -3.77182E+03
  4.07897E+03 -7.06044E+03 -1.15525E+03  3.05494E+03 -4.78577E+03  3.15223E+03  7.55416E+03 -1.32147E+02
  4.04647E+03 -7.88853E+03  3.36123E+03 -1.57590E+02  3.83362E+03  6.48588E+03  4.87971E+02 -3.87683E+02
 -3.59422E+03  3.29204E+03 -8.92077E+03  1.00120E+04 -5.18595E+03  1.65375E+03 -1.18386E+04 -2.81313E+03
 -5.90066E+03 -9.95162E+03 -4.28096E+02 -1.01752E+04  1.31469E+03 -3.85364E+03  5.48033E+03 -7.42958E+02
  1.27839E+04  8.06638E+03  9.83483E+02  3.92081E+03 -4.12066E+03  1.32729E+03 -3.28089E+03 -6.90982E+03
 -1.72029E+03 -3.52062E+03  1.75411E+02 -2.49673E+03 -2.01584E+03 -6.16779E+03  5.33772E+03  1.84505E+03
  1.77639E+03  6.54565E+03 -1.42703E+03  1.22955E+02 -1.06311E+03  1.56919E+03  1.46431E+03 -6.13931E+03
  4.02438E+02  4.86286E+02  8.41625E+03  3.53018E+03  4.62552E+03  5.45500E+03  2.37092E+03  5.22663E+03
 -5.14804E+02  2.96862E+03 -2.61455E+03  3.25631E+03 -4.99660E+03  1.77157E+03 -3.36840E+03  2.16891E+03
 -4.88008E+03 -6.72892E+02  2.05199E+03 -4.95198E+03 -6.24035E+03 -1.26932E+03 -3.95411E+03  2.43727E+03
  4.98645E+02  6.87112E+03 -1.87422E+03 -7.45590E+02 -3.89830E+03 -6.39763E+03 -4.61647E+03 -1.57243E+02
  6.40285E+03 -2.62655E+03  1.18709E+03 -2.67208E+03 -3.16630E+03  2.75299E+03  2.41932E+02  3.88122E+02
 -2.69117E+03 -1.45791E+03 -4.66823E+02 -3.64145E+03  4.53554E+03 -1.70524E+03  1.90831E+03  9.85327E+02
  2.41545E+03  1.41820E+03  1.99576E+03 -3.20585E+02  6.38374E+03  3.88005E+03 -4.79594E+03  3.58495E+03
 -9.14225E+03  6.43215E+03 -4.77567E+03 -2.38936E+03 -3.60506E+03 -2.54459E+03 -6.15321E+03 -3.49559E+03
  1.03622E+03 -7.18336E+02  8.04581E+03  4.68491E+03  7.94288E+01  9.29498E+01 -2.72611E+03 -1.80124E+02
 -3.88665E+03  3.88575E+03 -3.81234E+03  2.16386E+03 -2.26688E+03 -1.99569E+03 -3.72728E+03  3.75348E+03
 -1.30844E+03  4.59937E+03 -6.58640E+03  2.86264E+03 -6.69098E+03 -4.41704E+03 -4.91126E+03 -4.55836E+03
 -7.38010E+03 -6.28623E+03  5.11448E+02 -7.57485E+03  7.02087E+03 -6.58839E+03  6.55118E+03  3.85095E+03
  8.37252E+03 -1.38757E+03 -4.44232E+02  8.37717E+03 -1.25067E+03  2.89336E+03 -1.06476E+03  6.18824E+03
 -9.11051E+02  2.63871E+03 -1.40775E+02 -1.79997E+03 -4.24954E+03 -2.11053E+03  5.46465E+03 -1.91450E+03
  1.84512E+03  3.05239E+03  1.19822E+03  4.55568E+02 -2.68513E+03 -3.25774E+03 -2.28692E+03 -6.23339E+03
 -3.54745E+03  1.65187E+03  2.81867E+03  4.74084E+03  8.94076E+03 -3.55471E+03  8.43871E+02  8.56080E+03
 -2.82927E+02  2.54764E+03 -2.57435E+03 -3.59518E+02 -1.17357E+04  1.01682E+03 -4.53504E+03 -6.85360E+03
 -6.67202E+03 -2.96148E+03  1.48943E+03 -5.58382E+03  4.67812E+03 -1.73660E+03  3.51735E+03 -1.26611E+03
  2.07821E+03  9.38119E+02  3.32741E+02  1.62682E+03 -2.98157E+02 -3.50695E+03  4.37728E+02 -8.42869E+03
  5.64476E+02 -7.88222E+02  5.85859E+03 -1.52262E+03  3.39645E+03 -4.69297E+02  1.87558E+03  3.34731E+03
 -1.72202E+03  3.47348E+02 -2.78405E+03 -1.79115E+03 -1.77632E+03  2.42952E+02 -1.68314E+03 -9.24945E+03
  3.29346E+03 -3.78660E+03 -1.75979E+03  3.40273E+03  5.06518E+03 -4.28655E+03 -1.79776E+03  2.88256E+03
 -6.33392E+03  4.97424E+03  3.18203E+03  1.08688E+03 -2.97527E+03  1.16124E+03 -1.24666E+03 -8.23666E+02
 -1.45355E+03  3.95268E+03 -4.12328E+03 -2.04918E+02 -5.06061E+03 -1.54742E+03 -2.39373E+03 -8.72085E+02
 -1.23543E+03 -3.83143E+02 -3.81248E+03 -4.19078E+03  1.17395E+03 -4.73939E+03  2.35305E+03  1.47434E+03
  3.36875E+03  3.56754E+01  1.12092E+01  1.43958E+03 -3.09277E+03  2.37029E+02 -1.74532E+01  8.84793E+03
