 $NMID ID='MM_0lb_SNR50_10hz_g45_28.RAW', FMTDAT='(8E13.5)'
 TRAMP=1., VOLUME=1. $END
  3.10778E+05  3.46028E+02  3.38137E+05  2.52739E+05  8.11218E+04  3.39649E+05 -1.33915E+05  2.54804E+05
 -1.87244E+05  7.94785E+04 -1.12105E+05 -3.62341E+04 -8.67130E+02 -5.09223E+04  5.38828E+04 -7.55417E+03
  3.80197E+04  4.80036E+04 -1.34681E+04  6.98761E+04 -6.05212E+04  5.87269E+04 -8.50383E+04  3.12597E+04
 -7.99322E+04 -1.29101E+04 -6.14281E+04 -5.84677E+04 -1.54310E+04 -7.37191E+04  2.33689E+04 -4.42220E+04
  4.21486E+04  2.61332E+03  1.22386E+04  4.96222E+04 -3.54231E+04  5.12924E+04 -6.62447E+04  4.51450E+03
 -6.05875E+04 -6.00794E+04 -7.91372E+03 -8.40151E+04  3.46675E+04 -5.44670E+04  4.78497E+04 -1.47862E+04
  4.10079E+04  1.04923E+04  3.34670E+04  2.23356E+04  1.99917E+04  2.86455E+04 -1.19606E+04  2.79496E+04
 -1.53151E+04  4.77158E+03 -1.21062E+04  3.38204E+02  3.24458E+03 -5.43433E+03  3.06126E+04  1.84484E+04
  5.22916E+03  3.96625E+04 -3.08930E+04  3.56363E+04 -6.47260E+04  1.08288E+03 -5.95517E+04 -3.87332E+04
 -1.24399E+04 -6.15156E+04  3.89430E+04 -4.39733E+04  5.91534E+04 -1.35253E+03  4.11757E+04  4.06310E+04
 -8.38041E+03  3.82538E+04 -2.84990E+04  2.20012E+04 -3.36696E+04  1.86100E+03 -2.25801E+04 -1.37988E+04
 -1.00746E+04 -9.55023E+03 -1.60474E+03 -1.42083E+04  6.78609E+03 -2.07965E+04  1.41181E+04 -9.78004E+03
  8.01121E+03  7.77410E+03 -9.23246E+03  9.80345E+03 -2.57095E+04 -4.64941E+03 -6.47027E+03 -3.70941E+04
  2.62846E+04 -4.72300E+04  4.86832E+04 -2.24232E+04  4.67044E+04  2.14114E+04  1.44175E+04  5.07066E+04
 -1.66094E+04  3.16397E+04 -2.47797E+04 -1.30598E+03 -1.35682E+04 -3.03129E+04  2.20244E+04 -3.83820E+04
  4.06117E+04 -7.11536E+03  4.86355E+04  2.69949E+04  2.11602E+04  5.45158E+04 -6.43556E+03  5.17207E+04
 -3.17997E+04  3.47014E+04 -4.65750E+04  1.01273E+04 -4.17611E+04 -1.31968E+04 -2.91961E+04 -4.21062E+04
  1.34070E+03 -4.54966E+04  3.46508E+04 -2.06446E+04  3.61927E+04  1.43563E+04  5.90513E+03  1.96173E+04
 -1.17988E+04  9.08133E+03 -9.69189E+03 -7.56397E+03  6.10507E+03 -1.45502E+04  1.97183E+04  6.75578E+03
  1.07744E+04  2.31495E+04 -2.00122E+03  2.46417E+04 -2.49083E+04  1.57131E+04 -3.41904E+04 -2.03801E+03
 -2.77605E+04 -1.60395E+04 -1.05004E+04 -2.69659E+04  7.04233E+03 -2.11759E+04  1.75756E+04 -1.88193E+04
  2.86550E+04 -1.04667E+04  3.27675E+04  1.70870E+02  2.37149E+04  2.53906E+04  1.88387E+03  4.08086E+04
 -1.34652E+04  3.34538E+04 -2.59135E+04  1.39985E+04 -1.83879E+04 -6.34855E+03  6.38844E+02 -1.04056E+04
  6.88836E+03 -7.09552E+03 -5.41904E+03  8.60087E+03 -2.59276E+04 -3.76534E+01 -2.03242E+04 -5.80915E+03
 -3.23567E+03 -2.56949E+04  2.50684E+03 -2.19954E+04  1.96577E+04 -1.84167E+04  1.92553E+04 -6.07363E+03
  7.77286E+03  2.09011E+04 -2.54336E+03  2.42473E+04 -1.80128E+04  1.43991E+04 -2.18348E+04 -1.01826E+04
 -1.45119E+04 -2.17912E+04  1.75703E+03 -2.79368E+04  1.44306E+04 -2.21694E+04  2.33129E+04 -1.21074E+04
  2.24169E+04 -3.14362E+02  1.37658E+04  3.80662E+03  9.16275E+03 -2.59657E+03  1.20052E+04  6.03124E+03
  2.22233E+04  2.44853E+03  2.97782E+04  1.77862E+04  1.15190E+04  3.62435E+04 -4.98568E+03  4.43896E+04
 -2.02053E+04  3.57337E+04 -3.66884E+04  2.12859E+04 -4.39840E+04 -7.16878E+03 -3.76431E+04 -2.44904E+04
 -1.33797E+04 -3.15442E+04  9.41890E+03 -2.74982E+04  3.11348E+04 -2.00462E+04  2.34750E+04  8.92351E+03
  7.66855E+03  1.95097E+04 -1.19755E+04  1.16135E+04 -2.06895E+04  7.30335E+03 -1.37989E+04 -4.44480E+03
  3.01045E+03 -1.38797E+04  5.12099E+03 -1.34729E+04  8.91511E+03 -5.03269E+02  3.09774E+03  6.57968E+03
 -5.24730E+03  3.68580E+03 -2.18848E+03 -3.01511E+03 -1.29029E+03 -1.88261E+04  9.50822E+03 -2.44976E+04
  1.91432E+04 -8.24177E+03  2.47477E+04  1.15069E+03  1.68897E+04  1.03463E+04  2.11862E+03  3.37549E+04
 -6.96538E+03  2.71276E+04 -1.25014E+04  2.24460E+04 -2.36913E+04  7.00529E+03 -1.43166E+04 -1.40080E+04
 -8.01141E+03 -1.11151E+04  2.74895E+03 -5.82959E+03  3.16031E+03  8.66723E+03 -1.52925E+03  5.13166E+03
 -1.24973E+04 -2.19761E+03 -1.68919E+04 -8.40304E+03 -6.98677E+03 -1.28743E+04  5.43591E+03 -1.09764E+04
  1.07654E+04 -6.69058E+03  5.55421E+03  1.10975E+03  5.50161E+03  2.09856E+03 -8.10782E+03 -4.40260E+03
 -8.30271E+03 -1.03979E+04 -6.39678E+03 -1.93066E+04  5.84066E+03 -1.02535E+04  1.65404E+04 -6.81409E+03
  2.45719E+04  3.98393E+03  2.04320E+04  9.71221E+03  4.00169E+03  1.83846E+04 -1.09552E+04  1.12623E+04
 -9.42896E+03  6.52138E+03 -2.23687E+03 -1.09406E+04  4.99229E+03  1.11976E+03  2.43473E+03 -2.42873E+03
  6.85092E+03  6.40749E+03 -2.74967E+03  1.26395E+04 -8.79800E+03  8.36779E+03 -1.56300E+04  2.37486E+03
 -8.17697E+03 -2.97494E+03  2.34560E+03 -1.18516E+04  7.85538E+03 -1.15936E+04  5.06528E+03  4.35902E+03
  1.18894E+03  9.91906E+03 -5.64851E+03  1.36184E+04 -1.21563E+04  4.36512E+03 -1.00138E+04 -1.02585E+04
 -8.22079E+03 -8.69923E+03  5.58816E+03 -1.87504E+04  1.74918E+04 -4.12483E+03  1.39442E+04  1.85210E+03
  5.12207E+03  1.27334E+04 -8.23862E+03  1.39368E+04 -5.26183E+03  7.51918E+03 -1.01611E+04 -1.96233E+03
 -7.49379E+03 -1.16544E+04 -3.86703E+03 -1.18364E+04  9.90125E+02 -1.20786E+04  8.20826E+03  1.85792E+03
 -1.17715E+02 -3.93694E+03 -2.10520E+03  5.73148E+03  2.66351E+03 -3.89754E+03  7.46711E+03 -1.12689E+04
  1.00375E+04  1.32164E+03  1.87893E+04  2.81380E+03  1.78123E+04  4.82815E+03  9.91718E+03  2.14575E+04
 -5.47428E+03  1.72506E+04 -1.81814E+04  8.87456E+03 -2.54745E+04  3.43329E+03 -1.27427E+04 -7.10939E+03
 -5.69126E+03 -1.95744E+04  6.29790E+03 -1.35426E+04  4.12182E+03 -2.80020E+03  9.63649E+03 -6.73227E+03
  1.04783E+04  2.78642E+02  2.38554E+03 -1.10163E+04  4.15898E+03 -7.43975E+03  1.13874E+04  2.20825E+03
  9.57965E+03  6.47006E+03  6.36668E+03  9.56795E+03  3.24035E+03  7.04504E+03 -1.44670E+04  5.41859E+03
 -1.23489E+04  6.57333E+03 -3.46044E+03 -6.91655E+03  3.86130E+03 -1.34333E+04  3.78235E+03 -1.82447E+04
  1.16315E+04 -1.50327E+04  1.84936E+04  4.32532E+03  1.37474E+04  9.15721E+03  4.11264E+03  1.46116E+04
 -8.10215E+03  1.24035E+04 -6.43336E+03  1.88563E+03 -7.09392E+03 -2.55589E+03 -1.15074E+03  1.44857E+03
 -5.58599E+03  7.23515E+02 -3.33970E+03 -4.31164E+02 -6.54932E+01  4.95585E+03 -5.34932E+03 -1.53289E+03
 -1.14993E+03 -1.05599E+04 -3.12822E+03 -1.53734E+04  1.00962E+04 -1.63447E+04  1.87340E+04 -1.20399E+03
  1.68686E+04  7.44653E+03  2.47328E+03  8.61131E+03 -3.69305E+03  1.36250E+04 -1.41853E+04  9.28259E+03
 -1.66899E+04 -2.35357E+03 -4.83270E+03 -7.03884E+03 -2.13811E+03 -1.02261E+04  7.33873E+03 -8.39970E+03
  8.98683E+03 -5.54582E+03  5.53674E+03  5.20654E+03  3.87509E+03  3.87377E+03 -6.27742E+03  2.47073E+03
 -1.26005E+03  3.24627E+03  1.63047E+03  7.79632E+02  1.39527E+03  2.51569E+03  3.57609E+03  5.28000E+03
 -3.35438E+03  9.36662E+03 -1.65242E+04  5.84571E+03 -1.02993E+04  5.20429E+03 -1.45191E+04 -8.30790E+02
 -4.77097E+03 -9.17999E+03 -5.92212E+03 -1.52086E+04  9.12168E+03 -9.84482E+03  5.79018E+03 -3.27020E+03
  6.08301E+03  5.53734E+03  3.05710E+03  1.10366E+04 -4.15663E+03  1.05204E+03 -3.56168E+03  1.38721E+03
 -5.14317E+03  4.53487E+02  4.57431E+03 -3.37173E+03  1.02099E+04  2.33539E+03  3.50227E+03  7.21003E+03
  6.00613E+03  5.92310E+03 -2.35644E+03  3.98511E+03 -8.70277E+02  4.50971E+03  3.46447E+03 -2.09368E+02
  3.04755E+03 -5.34028E+02 -6.38813E+01 -2.02440E+03  5.13137E+02  1.14264E+04 -1.45545E+03  9.18678E+03
 -9.26860E+03  8.41909E+03 -1.05873E+04  2.96059E+03 -7.18919E+03 -6.32047E+03  5.34468E+03 -7.07559E+03
  1.93845E+03 -6.47974E+03  8.16494E+03 -2.38897E+03  6.18854E+03 -6.08061E+02 -3.83349E+03  2.31553E+03
 -4.06007E+03 -2.58660E+02 -7.69501E+03 -3.88448E+03  1.19483E+03 -9.42438E+03  5.74275E+03 -1.22622E+04
  9.82561E+03 -8.42956E+02  5.85029E+03  9.92688E+03  1.99270E+03  3.68869E+03 -7.68459E+01  4.67280E+03
  8.58897E+03  1.69891E+03 -5.80745E+03 -3.05286E+03 -1.01069E+03 -5.06940E+03  8.83976E+03 -6.81440E+03
  1.14489E+04  2.83504E+03  4.31337E+03  8.63719E+03  7.13553E+02  5.92987E+03 -3.34994E+03  1.22295E+04
 -6.46239E+03 -7.11672E+03 -6.25900E+03 -6.27850E+03 -1.00253E+04 -5.37303E+03  6.03954E+03  2.65426E+03
  6.42302E+03 -1.45344E+03 -1.32428E+03 -1.42860E+02 -1.95990E+03 -1.35905E+03 -1.06352E+03  4.58396E+03
 -2.10585E+03 -5.19892E+03 -5.51670E+03 -2.25954E+03 -1.45645E+03 -5.92060E+03  2.59961E+02  1.48556E+03
 -9.03956E+02  2.98183E+03 -2.97522E+03 -1.43838E+03 -1.02502E+04  2.60963E+03 -4.74315E+03 -5.72891E+03
 -9.75469E+03 -1.25271E+04  5.70449E+03 -2.06623E+04  1.15534E+04 -1.45239E+04  1.23854E+04 -1.01052E+03
  6.17833E+03  3.76070E+03  2.80209E+03  4.42405E+03 -1.07016E+03  9.46068E+03 -4.32966E+02  5.83906E+03
 -3.31147E+03  3.86642E+03 -2.34344E+03  1.39993E+03  1.16177E+03 -1.14821E+03 -2.82764E+03  2.11204E+03
  3.47768E+03  1.30762E+03 -3.24170E+03  2.31873E+03 -4.21642E+03 -9.63638E+03  3.64528E+02 -2.75533E+03
  3.90751E+03 -5.13965E+02  8.51286E+03  3.40856E+03  6.72451E+03  8.35159E+03 -3.82947E+03  6.19081E+03
  2.79940E+03  4.91113E+03 -6.72697E+03  7.59863E+03 -1.48270E+04  4.53471E+02 -2.76246E+03 -4.58337E+03
 -1.56927E+03 -3.66181E+03 -2.26201E+03 -1.10479E+04  6.32686E+03 -5.05083E+03  9.31907E+03  7.66024E+02
  5.20119E+03  7.60270E+03 -5.31401E+02 -4.71502E+02 -3.58724E+03 -2.56111E+03  8.74364E+02  3.80394E+02
  5.50226E+03 -1.25257E+03  3.91110E+03 -8.75921E+02 -1.61050E+03  4.36591E+03 -1.41729E+03  5.79766E+03
 -3.83316E+03 -1.73258E+03 -2.72761E+03 -1.75588E+02 -4.15915E+03 -9.61984E+02 -2.65915E+03 -6.86524E+03
  3.98542E+02 -3.63777E+03  9.45995E+03 -8.73299E+03  9.67410E+03  1.38905E+03  4.05883E+03  3.94883E+03
  5.02835E+03 -2.62117E+03 -2.77822E+03  8.45962E+03 -3.15056E+02  1.88012E+03 -4.69942E+03 -2.33604E+03
  4.69152E+03 -4.16358E+03 -1.25861E+03 -1.62023E+03 -6.52758E+01 -1.31163E+03 -2.65050E+03 -4.72072E+02
 -1.12305E+03 -8.12960E+03  1.24365E+03 -6.03827E+03  5.54425E+03 -1.01562E+04  1.00780E+03 -5.63911E+03
  4.54054E+03  2.79752E+03  4.83672E+03  9.30771E+03 -3.47322E+02  7.23285E+03 -1.89589E+03  2.25061E+03
