 $NMID ID='MM_0lb_SNR50_9hz_g45_38.RAW', FMTDAT='(8E13.5)'
 TRAMP=1., VOLUME=1. $END
  3.07939E+05  7.68119E+02  3.37870E+05  2.54814E+05  8.15800E+04  3.34333E+05 -1.28807E+05  2.46904E+05
 -1.86861E+05  8.28442E+04 -1.13850E+05 -3.52683E+04 -3.09680E+03 -4.73103E+04  4.85081E+04 -4.46885E+03
  3.47391E+04  5.10555E+04 -9.93062E+03  8.21307E+04 -6.07188E+04  6.07391E+04 -8.44464E+04  3.35390E+04
 -8.04360E+04 -1.58883E+04 -5.18679E+04 -5.98839E+04 -1.49161E+04 -7.61498E+04  3.09077E+04 -4.93923E+04
  4.20288E+04  3.86466E+03  1.54515E+04  4.48884E+04 -3.28449E+04  5.14051E+04 -7.07283E+04 -8.12020E+01
 -5.78410E+04 -5.74204E+04 -6.75964E+03 -7.81482E+04  3.89744E+04 -5.38338E+04  4.64163E+04 -2.21454E+04
  4.57739E+04  1.13005E+04  3.07230E+04  3.09593E+04  1.17700E+04  3.26505E+04 -7.68570E+03  2.96493E+04
 -2.41954E+04  1.56953E+04 -1.70383E+04 -5.68087E+02  2.33475E+03 -1.17918E+04  2.80588E+04  1.55855E+04
  6.61678E+03  3.42553E+04 -3.48870E+04  3.57267E+04 -6.58077E+04  3.23951E+03 -5.80517E+04 -4.46178E+04
 -1.52804E+04 -6.45070E+04  4.11153E+04 -5.23869E+04  5.99696E+04  3.84943E+03  3.68582E+04  3.81548E+04
 -6.82189E+03  3.61367E+04 -3.41141E+04  1.72001E+04 -3.23482E+04 -9.85470E+03 -1.90696E+04 -1.30734E+04
 -1.09040E+04 -1.70853E+04 -2.59687E+03 -2.20933E+04  3.32322E+03 -1.70095E+04  1.22481E+04 -9.14459E+03
  7.62567E+03  8.26420E+03 -1.78556E+04  1.24554E+04 -2.11375E+04 -1.12651E+04 -8.31735E+03 -3.36025E+04
  1.91913E+04 -3.95530E+04  4.94580E+04 -2.02654E+04  4.50871E+04  1.82236E+04  2.13506E+04  4.44892E+04
 -1.75406E+04  3.27679E+04 -2.73908E+04  4.98639E+03 -7.11957E+03 -3.11777E+04  1.91555E+04 -3.63008E+04
  4.33011E+04 -1.42677E+04  3.68790E+04  2.72935E+04  2.17983E+04  5.53304E+04 -8.70698E+03  5.76212E+04
 -3.41035E+04  3.76008E+04 -5.06247E+04  6.25168E+03 -4.44600E+04 -1.55747E+04 -2.98500E+04 -3.69183E+04
  1.67663E+04 -4.44140E+04  3.35331E+04 -1.93689E+04  2.99699E+04  1.12708E+04  3.04183E+03  1.81019E+04
 -1.02361E+04  9.53142E+03 -1.35793E+04 -5.38629E+03  1.10458E+04 -9.66712E+03  1.29350E+04  3.36097E+03
  1.92393E+04  1.92277E+04 -3.43310E+03  2.47147E+04 -1.59188E+04  1.92600E+04 -2.59855E+04 -7.86302E+02
 -2.84866E+04 -1.75731E+04 -1.32861E+04 -2.00490E+04  4.11603E+03 -3.19785E+04  1.78179E+04 -2.36445E+04
  3.50619E+04 -1.22166E+04  3.90118E+04  2.02952E+03  2.78074E+04  2.80670E+04  3.53130E+03  3.91612E+04
 -1.65527E+04  3.86833E+04 -2.91608E+04  1.07107E+04 -1.76127E+04 -1.03083E+04 -5.67581E+03 -1.68944E+04
  4.72011E+03 -6.43826E+03 -6.94241E+03  7.54836E+03 -1.06761E+04  5.70416E+03 -2.05293E+04 -1.30455E+04
 -9.42301E+03 -2.01169E+04  1.16662E+04 -2.63660E+04  1.25145E+04 -1.67776E+04  2.16793E+04 -8.22128E+02
  1.36560E+04  1.71118E+04  1.17171E+03  2.28427E+04 -1.17374E+04  1.04881E+04 -2.59967E+04 -3.27674E+03
 -2.02601E+04 -1.89345E+04  2.08215E+03 -2.70645E+04  9.94377E+03 -1.97494E+04  2.12059E+04 -1.51746E+03
  1.69933E+04  2.07450E+03  1.46357E+04  7.02109E+03  1.08129E+04  2.03709E+03  4.87426E+03  5.44513E+03
  2.00999E+04  4.56863E+03  2.78656E+04  1.80824E+04  1.68790E+04  3.52332E+04 -3.74022E+03  4.68404E+04
 -2.39053E+04  3.63094E+04 -3.90785E+04  1.91408E+04 -4.29583E+04 -4.05799E+03 -3.82261E+04 -2.82394E+04
 -1.52565E+04 -3.55412E+04  1.44164E+04 -3.59010E+04  3.19094E+04 -1.54352E+04  2.01183E+04  8.87346E+03
  5.82918E+03  1.89777E+04 -8.01052E+03  1.73512E+04 -2.50030E+04  6.50219E+03 -1.80578E+04 -2.04430E+04
 -5.43974E+03 -1.60744E+04  9.27357E+03 -1.45875E+04  1.05841E+04  1.01087E+03  9.76766E+02  1.23615E+04
 -9.02795E+03  7.24860E+03 -1.10112E+04 -1.05212E+04  2.78183E+03 -2.16385E+04  1.29180E+04 -2.46789E+04
  2.07822E+04 -1.28711E+04  2.51059E+04  1.55992E+03  1.82253E+04  1.95617E+04  6.60506E+03  2.94265E+04
 -2.12059E+03  3.45739E+04 -1.85664E+04  1.43238E+04 -2.24493E+04 -1.76879E+03 -1.01310E+04 -6.80531E+03
 -7.23378E+03 -9.16770E+03 -2.98573E+02  6.59677E+03 -3.05769E+03  9.62481E+00 -1.58464E+04  7.41655E+03
 -1.74125E+04  8.12938E+02 -1.73640E+04 -1.28549E+04 -2.81100E+03 -1.83480E+04  6.61385E+03 -1.46395E+04
  1.78883E+04 -1.13476E+04  5.52971E+03  9.54666E+03 -6.74765E+03  1.01122E+03 -9.11151E+03  5.81419E+03
 -1.10426E+04 -1.63940E+04 -3.05858E+03 -1.98754E+04  6.63583E+03 -1.40287E+04  2.05943E+04 -1.09500E+04
  1.90444E+04  3.45125E+03  1.61362E+04  1.52848E+04  5.48871E+03  2.47885E+04 -9.26915E+03  9.96247E+03
 -1.42387E+04  1.13068E+04 -5.27386E+03 -1.12393E+04  1.23434E+03 -3.30235E+03  7.88321E+03 -6.12722E+03
  9.61636E+03  7.65327E+03 -2.56981E+03  1.74392E+04 -1.07982E+04  1.16303E+04 -1.54050E+04  3.06501E+03
 -1.16672E+04 -5.82868E+03  5.67346E+03 -1.59725E+04  1.79715E+03 -1.48846E+04  7.51292E+03  5.65409E+03
  4.60762E+03  8.76651E+03 -1.27682E+04  1.66677E+04 -1.34637E+04  3.23216E+03 -9.69013E+03 -2.15015E+03
 -1.01477E+04 -1.59019E+04  7.33275E+03 -1.23698E+04  1.70800E+04 -1.04095E+04  1.46319E+04  7.66438E+03
  1.28811E+04  1.58553E+04 -2.41457E+03  1.39770E+04 -8.16340E+03  8.63818E+03 -4.48000E+03 -2.19335E+03
 -1.08041E+04 -6.53654E+03 -2.68340E+03 -1.28146E+04  5.37437E+03 -1.35467E+04  1.00969E+04 -5.13732E+03
  5.60593E+03 -2.15986E+03 -5.47496E+03  6.42033E+01  4.83015E+02 -6.45405E+03  6.47327E+03 -1.04878E+04
  1.44410E+04 -2.55037E+03  1.81544E+04  8.40991E+03  1.23149E+04  9.02745E+03  3.74533E+03  1.86351E+04
  1.22304E+03  2.50297E+04 -2.28220E+04  1.91679E+04 -1.89746E+04  1.68191E+03 -1.93111E+04 -6.89562E+03
 -1.22822E+04 -1.85781E+04 -2.25581E+03 -1.38714E+04  4.17752E+03 -9.07970E+03  3.69794E+03 -5.52073E+03
 -1.46152E+03  5.87111E+02  2.59242E+03 -6.60522E+03  2.76283E+03 -3.64546E+03  1.14531E+04 -3.86402E+03
  1.28764E+04  4.85280E+02  1.93838E+03  9.17696E+03 -1.75736E+03  5.29632E+03 -1.30741E+04  1.07136E+04
 -1.86138E+04  1.17465E+04 -1.09092E+04 -8.39283E+03 -3.26541E+03 -1.25888E+04  2.04274E+03 -1.14014E+04
  1.66590E+04 -1.23631E+04  2.14030E+04  9.29334E+03  1.47001E+04  1.94932E+04  2.71947E+03  1.45920E+04
 -8.10471E+03  1.26764E+04 -1.70974E+04  1.96048E+03 -5.37606E+03 -3.88785E+03  6.13340E+02 -3.17821E+03
 -5.94620E+03  4.27433E+03 -2.73251E+03  5.41463E+03 -6.27603E+03  3.95310E+03 -1.17294E+04 -3.92062E+02
 -6.53316E+03 -1.04302E+04 -4.51766E+03 -1.07825E+04  1.07486E+04 -1.25168E+04  1.23427E+04 -4.03301E+03
  1.23577E+04  7.20757E+03  6.36683E+03  5.92195E+03 -5.13598E+03  1.93562E+04 -7.50551E+03  1.03733E+04
 -1.47164E+04 -3.11970E+02 -1.12050E+04 -5.56032E+03 -7.91686E+03 -1.32721E+04  6.50943E+03 -1.86820E+04
  1.30311E+04 -2.90174E+03  5.28933E+03 -9.58177E+02  2.96039E+03  3.59911E+03 -1.62075E+03  1.88908E+02
  7.37465E+03  1.25374E+03  4.77935E+03 -6.74819E+02  2.37432E+03  7.50714E+03  7.34471E+03  4.42011E+03
 -1.05476E+03  1.59834E+04 -8.16930E+03  6.35001E+03 -1.43722E+04  1.40010E+03 -1.69987E+04 -2.19580E+03
 -1.16993E+04 -8.87763E+03 -3.42135E+02 -1.24534E+04  7.63838E+03 -1.12166E+04  8.41079E+03 -1.33504E+03
  1.21562E+04  1.11069E+04  2.01314E+03  1.21978E+04 -2.60690E+03  9.81450E+03 -8.26915E+03 -1.81177E+03
 -8.46162E+03 -8.44341E+03  4.48370E+03 -7.64025E+03  1.91349E+03  1.06758E+03  9.31590E+03  6.05514E+03
 -2.29814E+03  5.22140E+03 -1.92522E+03  1.09808E+04  1.26859E+03  3.19243E+02 -2.02908E+03 -2.10870E+03
 -3.68974E+03 -8.21952E+03  1.69087E+03 -2.35257E+03  1.09187E+03  4.01742E+03 -1.36340E+03  1.43139E+04
 -8.03930E+03  1.02675E+04 -1.05111E+04  4.86392E+03 -1.28463E+04 -2.94130E+03 -8.06980E+02 -5.88825E+03
 -2.95026E+03 -5.96135E+03  4.42039E+03 -2.32746E+03  3.49447E+03  1.59868E+03 -2.22846E+03  9.94391E+03
 -6.01134E+03  7.86052E+03 -7.68995E+03 -6.84661E+03 -3.58525E+03 -7.82755E+03  1.81991E+02 -1.13859E+04
  2.56303E+03 -6.33591E+03  7.14071E+03 -9.50605E+02  1.02750E+04 -7.38310E+02 -7.25318E+02  4.37277E+03
  4.12979E+02 -1.84686E+03 -6.49019E+03 -1.01153E+04  2.22257E+03  3.30773E+02  5.60874E+03  1.74064E+02
  1.40386E+04 -6.16938E+03  8.53368E+03  9.61155E+03  1.21397E+04  1.05000E+04 -5.25178E+02  9.74176E+03
 -9.91805E+03  2.86892E+03 -3.22815E+03 -6.90339E+02 -3.89048E+03 -7.25874E+03 -2.57142E+03 -1.05150E+04
  9.73685E+03  3.96041E+03  3.88636E+03  3.13398E+03  5.29630E+03  3.68942E+03 -2.98732E+02  3.41465E+03
 -5.28486E+03  1.48608E+03  2.18434E+03 -3.81199E+03  4.58167E+01 -5.66546E+03  6.11189E+03  6.05853E+03
 -6.92865E+03  5.72476E+03 -8.04783E+03  1.18813E+03 -6.19567E+03 -1.90719E+03 -1.28026E+04 -2.22961E+03
 -1.11779E+04 -2.06063E+04  3.01331E+03 -1.32387E+04  2.71435E+03 -9.99727E+03  9.34389E+03 -9.00903E+02
  1.40511E+04  3.61553E+03  1.16978E+03  3.53356E+03  3.28119E+03  1.46237E+04 -3.84510E+03  1.11377E+04
 -2.07680E+03 -8.19597E+02 -7.50260E+03  3.12127E+03  2.24986E+03 -2.90204E+03 -4.19396E+03 -2.03821E+03
  1.43097E+03  3.72695E+03 -2.64759E+03  4.04242E+02  3.48725E+03 -4.81980E+03  4.44342E+03  3.67294E+03
  4.79318E+03 -4.23953E+03 -2.18660E+03 -2.83139E+03  8.35495E+03  6.17641E+03  3.11223E+03  1.19402E+04
 -6.85982E+03  1.18228E+04 -6.59293E+03  3.17567E+03 -2.27610E+04  1.80907E+03 -1.06011E+04 -6.34214E+03
 -4.39326E+03 -4.79951E+03  1.58631E+03 -1.18429E+04  4.62847E+03 -5.90044E+03  9.72479E+03  2.92311E+03
  6.94295E+03 -1.09635E+03 -2.48283E+03  3.52097E+03 -8.42362E+02 -3.27647E+03 -1.19421E+03 -3.78763E+03
  1.04543E+03 -4.90557E+03 -8.22265E+02 -3.11325E+03  4.10449E+03  9.12794E+03 -7.05360E+02  7.18995E+03
 -4.11489E+03  1.48374E+04 -1.10424E+04 -1.22841E+03 -5.85588E+03 -9.25936E+03 -2.08238E+03 -1.24355E+04
  8.91707E+03 -8.26528E+03  7.96646E+03 -8.09551E+03  1.33818E+04  3.75122E+03  6.95167E+03  5.00568E+03
  3.79892E+03  5.58265E+03  3.10802E+03  8.32527E+03 -6.22962E+03  7.37592E+03 -1.85045E+03 -6.67091E+03
 -5.54815E+03  9.68750E+02 -4.69660E+03  2.55167E+03 -2.66849E+03 -1.52052E+03 -4.30430E+02 -3.36165E+03
 -7.53808E+03 -5.00640E+03 -4.24614E+03 -7.23518E+03  2.69328E+03 -4.81732E+03  1.12643E+04 -1.09779E+03
  1.90065E+03  5.90490E+02 -6.33024E+02  3.26724E+03 -1.88968E+03  9.08192E+03 -6.45639E+03  8.02085E+02
