 $NMID ID='MM_0lb_SNR50_8hz_g60_46.RAW', FMTDAT='(8E13.5)'
 TRAMP=1., VOLUME=1. $END
  3.06687E+05  2.40965E+03  3.32482E+05  2.52689E+05  8.47112E+04  3.44656E+05 -1.27532E+05  2.48891E+05
 -1.86954E+05  7.96998E+04 -1.09360E+05 -3.39556E+04 -5.13658E+03 -5.05105E+04  5.36027E+04 -3.41667E+03
  2.88111E+04  5.45099E+04 -1.98924E+04  6.63774E+04 -5.90281E+04  6.11813E+04 -8.54091E+04  2.47366E+04
 -7.81628E+04 -1.14620E+04 -5.48905E+04 -5.65716E+04 -1.66024E+04 -7.24957E+04  2.74641E+04 -4.07014E+04
  4.09926E+04  4.80521E+02  1.95477E+04  4.57436E+04 -2.74569E+04  4.93759E+04 -7.46129E+04 -3.34426E+02
 -5.54022E+04 -5.82083E+04 -3.40587E+03 -7.53562E+04  3.41585E+04 -6.10789E+04  5.52687E+04 -1.60343E+04
  4.50034E+04  1.25335E+04  3.42840E+04  2.36852E+04  1.83484E+04  3.12747E+04 -7.33301E+03  2.32170E+04
 -2.53430E+04  1.25405E+04 -1.68801E+04 -1.25112E+04  1.05925E+04 -8.08428E+03  2.27605E+04  1.35476E+04
 -5.91381E+02  3.75588E+04 -2.89266E+04  3.51354E+04 -6.76758E+04  2.66919E+03 -5.75674E+04 -4.18580E+04
 -1.69762E+04 -7.04501E+04  4.45351E+04 -5.24367E+04  6.31862E+04 -5.51841E+03  4.11656E+04  3.94863E+04
 -1.31329E+04  4.66199E+04 -2.54945E+04  1.54656E+04 -3.16800E+04  5.56442E+02 -1.52925E+04 -9.65120E+03
 -7.97103E+03 -1.25315E+04  2.78574E+03 -2.38562E+04  9.60820E+03 -2.69312E+04  1.64576E+04 -1.92201E+04
  4.39425E+03  4.34463E+03 -1.47742E+04  1.09662E+04 -2.88302E+04 -1.17255E+04 -1.13417E+04 -3.17555E+04
  2.19681E+04 -4.77465E+04  5.18272E+04 -1.45911E+04  4.73943E+04  2.72486E+04  1.28667E+04  4.59214E+04
 -2.06080E+04  2.66837E+04 -2.88894E+04  1.30552E+03 -1.56802E+04 -3.69969E+04  2.04020E+04 -3.22695E+04
  4.39684E+04 -1.70732E+04  4.31872E+04  1.94171E+04  3.20852E+04  5.34184E+04 -9.57811E+02  5.28237E+04
 -3.68724E+04  4.01176E+04 -5.13222E+04  1.07898E+04 -4.88527E+04 -1.53139E+04 -2.35839E+04 -4.63432E+04
  6.12128E+03 -4.10108E+04  3.45806E+04 -1.40448E+04  3.12127E+04  1.15628E+04  1.75327E+03  2.08013E+04
 -1.85032E+04  1.63065E+04 -1.70390E+04 -1.01143E+04  4.67779E+02 -1.27832E+04  2.91658E+04  1.08802E+04
  2.03802E+04  2.26281E+04 -3.12991E+03  2.10524E+04 -1.94593E+04  2.03678E+04 -3.00500E+04 -6.43914E+03
 -2.78604E+04 -2.45530E+04 -1.58760E+04 -2.59569E+04  2.20613E+03 -2.70527E+04  1.88848E+04 -2.93428E+04
  3.23196E+04 -1.18263E+04  4.15663E+04  9.98387E+03  1.57307E+04  3.45523E+04  6.53068E+03  5.01828E+04
 -2.11333E+04  3.30658E+04 -3.36206E+04  1.09140E+04 -2.59121E+04 -1.53141E+04 -2.76158E+03 -1.59256E+04
  5.16872E+02 -1.15976E+03 -8.29322E+03  8.93863E+03 -2.43953E+04 -4.45675E+02 -1.43457E+04 -6.14501E+03
 -1.25598E+04 -2.52292E+04  3.23334E+03 -3.65834E+04  1.93402E+04 -2.17501E+04  2.69929E+04 -4.25723E+02
  1.32186E+04  1.77367E+04  2.04542E+03  2.87738E+04 -1.90035E+04  1.96808E+04 -2.50909E+04 -1.31359E+04
 -1.85951E+04 -2.61244E+04  2.90874E+01 -2.90650E+04  1.21394E+04 -2.48559E+04  1.79103E+04 -2.02701E+04
  2.51253E+04 -3.38062E+03  1.99468E+04  8.74096E+03  5.95293E+03  8.04906E+03  8.61530E+03 -7.31608E+02
  2.72795E+04  2.06591E+03  2.91935E+04  2.13589E+04  2.42779E+04  3.31191E+04 -1.50425E+03  4.63694E+04
 -3.16518E+04  3.96872E+04 -5.27967E+04  2.28628E+04 -4.93407E+04 -9.56317E+03 -4.21083E+04 -3.03521E+04
 -1.54451E+04 -4.83065E+04  1.63565E+04 -3.59166E+04  2.90795E+04 -1.32794E+04  2.09501E+04  1.29339E+04
  1.19765E+04  1.82798E+04 -1.19718E+04  1.92021E+04 -1.85602E+04  4.33169E+03 -1.24631E+04 -1.06013E+04
  2.70601E+03 -2.56242E+04  9.20306E+03 -1.69069E+04  1.34120E+04  2.10911E+03  4.14241E+03  1.05184E+04
 -9.94862E+03  5.61487E+03 -1.50476E+04 -9.17091E+03 -2.67671E+03 -1.49382E+04  5.15033E+03 -1.65486E+04
  3.10233E+04 -1.43512E+04  2.81201E+04 -6.91643E+02  3.23580E+04  1.69938E+04  1.59278E+04  3.59856E+04
 -6.11421E+03  3.42616E+04 -2.40777E+04  1.72402E+04 -2.21342E+04 -5.01863E+03 -1.11046E+04 -3.06426E+03
 -8.00329E+03 -6.78586E+03 -1.67645E+03 -3.30483E+03 -4.53896E+03  3.61908E+03 -9.38478E+03  4.24012E+02
 -2.18293E+04 -2.25937E+03 -1.93434E+04 -9.15879E+03 -9.23016E+03 -2.23399E+04  9.63116E+03 -1.60250E+04
  1.76290E+04 -6.47271E+03  8.84497E+03  1.03455E+04 -2.88190E+03  1.28102E+04 -1.63001E+04 -1.92748E+03
 -7.07668E+03 -6.57276E+03 -3.84474E+03 -1.33978E+04  1.23058E+04 -2.31536E+04  2.65172E+04 -6.35426E+03
  2.23919E+04 -4.63297E+03  1.38007E+04  1.59357E+04  5.34797E+03  2.55531E+04 -1.81493E+04  1.90534E+04
 -2.06306E+04  3.21640E+03 -9.51448E+03 -8.44146E+03 -2.11354E+03 -8.17569E+03  5.04863E+03  4.21372E+03
  8.18208E+03  3.64735E+03 -5.16328E+03  9.85042E+03 -6.65176E+03  9.60465E+03 -9.45174E+03  1.00370E+03
 -1.19087E+04 -8.97907E+03  4.14173E+03 -2.39245E+04  1.30298E+04 -4.76037E+02  1.28111E+04  2.99636E+03
 -4.61579E+03  1.31227E+04 -1.19464E+04  1.37309E+04 -1.87208E+04 -1.84419E+03 -1.71122E+04 -7.32594E+03
 -1.34955E+04 -1.86525E+04 -3.13465E+03 -2.31177E+04  2.04156E+04 -1.66926E+04  2.35502E+04  4.93115E+03
  1.53221E+04  1.46617E+04 -8.79617E+03  1.67112E+04 -1.18936E+04  1.11599E+04 -1.81351E+04  6.06859E+02
 -7.87200E+03 -7.33278E+03 -3.21018E+03 -1.70647E+04  9.11755E+03 -2.54450E+03  6.59934E+03 -5.99388E+03
  4.99109E+03  5.61636E+02  1.07272E+03 -1.28496E+03  2.70196E+03 -6.91831E+03  6.05227E+03 -1.08929E+04
  1.48987E+04 -5.42366E+03  1.59451E+04  7.80664E+03  1.63469E+04  1.25407E+04  8.66891E+03  2.76783E+04
 -9.46205E+03  3.12208E+04 -1.99799E+04  1.78928E+04 -2.99795E+04  7.55762E+03 -2.71329E+04 -1.12026E+04
 -8.46090E+03 -2.15969E+04 -1.85186E+03 -1.60720E+04  6.21544E+03 -6.46182E+03  2.26042E+03 -1.17638E+04
  2.78873E+03  6.19154E+03  7.29401E+03 -7.12714E+03 -1.97860E+03 -4.37263E+03  2.83266E+03 -1.56061E+03
  1.72077E+04 -5.99137E+03  8.60857E+03  1.48933E+04  3.49061E+03  9.20187E+03 -1.64476E+03  7.89443E+03
 -1.55037E+04 -3.05113E+03 -5.56509E+03 -9.74945E+03  1.93040E+03 -2.06853E+04  5.87701E+03 -1.85505E+04
  1.68459E+04 -1.07114E+04  2.60598E+04  1.73520E+03  7.33157E+03  1.57872E+04  1.05288E+04  2.12864E+04
 -3.65268E+03  1.49709E+04 -1.44374E+04  5.66601E+03 -8.95946E+03 -2.01221E+03 -6.29471E+03 -9.22579E+03
  4.13860E+03  3.15867E+03  6.64342E+02  3.00652E+03 -8.45145E+03  1.80687E+03 -6.07951E+03 -5.00285E+03
 -4.71298E+03 -1.66488E+04 -3.92705E+03 -1.90519E+04  6.43876E+03 -1.07388E+04  2.06135E+04 -3.92119E+03
  2.02793E+04  3.15796E+03  2.24000E+03  1.71632E+04 -2.42502E+03  2.60872E+04 -1.44687E+04  5.74232E+03
 -2.15853E+04  4.96625E+03 -1.29851E+04 -1.60563E+04 -3.84320E+03 -9.88879E+03  9.93309E+03 -1.31333E+04
  1.41129E+04 -5.04657E+03  8.40894E+03  1.44873E+03  2.80240E+03  3.52349E+02  5.82105E+02  3.44491E+03
  2.66701E+03 -2.14017E+02  2.89253E+03 -1.19375E+03  1.98899E+03  6.02700E+02  8.09943E+03  7.09589E+03
 -1.16514E+04  1.26265E+04 -1.36372E+04  1.01498E+04 -2.10918E+04  1.28919E+03 -1.65701E+04 -9.80199E+03
 -6.49225E+03 -1.83724E+04 -1.40574E+03 -2.16750E+04  1.76821E+04 -1.32297E+04  1.72680E+04  5.14144E+03
  7.94529E+03  5.78860E+03 -3.19703E+02  6.72844E+03 -6.02780E+03  3.91512E+03 -4.72902E+03  7.92910E+02
 -5.89853E+03 -8.67360E+03  9.70628E+03 -4.79289E+03  1.32619E+04  4.80297E+03  1.40244E+04  2.75608E+03
  8.80795E+03  3.40884E+03  1.28914E+03  6.73586E+02 -2.92766E+03  4.74859E+03 -2.25238E+03  1.04857E+03
  3.81214E+03  3.58675E+03  7.22343E+03  6.04001E+03  8.74370E+03  6.03676E+03  8.63343E+02  1.67372E+04
 -6.29278E+02  1.54302E+04 -8.35867E+03  4.63770E+03 -1.02911E+04 -6.57569E+03 -7.62258E+02 -5.03760E+03
  5.27915E+03 -7.63044E+03  2.71370E+03 -1.00586E+03  6.97244E+03  1.88466E+03  2.27860E+03  2.64942E+03
 -1.14311E+04  3.98365E+03 -6.10152E+03  2.09970E+03 -1.08087E+03 -1.09693E+04 -3.50876E+03 -8.75411E+03
  2.69926E+03 -1.82950E+03  8.10003E+03 -5.89092E+03  1.34446E+04  1.31583E+03 -2.50251E+03 -8.32571E+02
 -3.70148E+03 -3.98888E+03 -8.96839E+03 -2.14140E+03  5.98322E+03 -1.27931E+04  1.21290E+04 -7.12271E+03
  7.05882E+03 -1.83873E+03  1.23073E+04  5.80395E+03  5.82533E+03  1.29723E+04 -6.61468E+03  5.89494E+03
 -1.14328E+04 -1.29280E+03 -8.39095E+03  5.12783E+03 -3.11820E+03 -1.29742E+04  1.13013E+03 -1.04384E+04
  1.10211E+04 -4.66521E+03 -2.20825E+03 -3.39232E+01  7.51521E+02  1.40069E+04  7.44723E+03  7.91355E+03
 -1.00872E+04  7.82384E+03 -3.23882E+03 -1.11411E+03  4.62291E+03 -4.36741E+03 -1.33611E+03  4.34503E+03
 -1.74905E+03  9.43012E+03 -9.20234E+03  6.99940E+03 -1.32260E+04  5.79556E+02 -1.62734E+04 -1.44396E+04
 -1.04036E+04 -1.99390E+04  5.79268E+03 -2.06419E+04  8.68018E+03 -1.29649E+04  1.64874E+04 -8.10517E+03
  1.66095E+04  5.32382E+03  7.29419E+03  6.97231E+03 -1.45983E+02  6.22057E+03 -2.38076E+03  1.08960E+04
 -6.90537E+03  6.26063E+03 -1.03328E+03 -2.25666E+02 -8.80712E+03  1.63342E+03 -2.05022E+03 -2.38617E+03
 -5.54084E+03  1.01712E+04  1.77370E+03 -3.75936E+03  5.32899E+03 -1.26813E+04  2.36083E+03 -1.06645E+03
 -4.08709E+03 -8.10298E+03  8.48254E+03 -1.42127E+03  1.27799E+04  6.85512E+03  5.85084E+03  1.61097E+04
 -1.05055E+04  9.12193E+03 -1.99075E+04  1.27942E+04 -1.29018E+04 -6.97465E+02 -1.57097E+04 -1.13196E+04
 -1.24961E+04 -1.59853E+04  6.50745E+03 -1.04779E+04  1.16263E+04 -9.95662E+03  1.12175E+04 -2.82402E+03
  9.97698E+03  3.13308E+03  4.17209E+03  3.50161E+03 -4.77946E+03 -1.68226E+03  5.92278E+03 -4.74489E+03
  1.10274E+03  4.75532E+03 -4.11763E+01  1.36064E+02  3.31559E+03  6.65460E+03  2.55141E+03  9.81632E+03
 -9.63680E+03  4.01247E+03 -1.17962E+04 -2.10960E+02 -1.13642E+04 -7.92088E+03  1.08043E+03 -6.42580E+03
  2.98623E+03 -1.51494E+04  8.23760E+03  1.06461E+03  1.87408E+04  4.28684E+03  1.34483E+04  6.83799E+03
  1.37344E+03  1.15974E+04 -3.14249E+03  6.94171E+03 -4.41983E+03 -3.46638E+03 -3.24186E+03 -9.16203E+03
 -9.81486E+03 -1.88711E+01 -5.06571E+03  7.41930E+03 -8.08715E+03  9.56545E+03 -5.49910E+03 -3.14107E+03
 -7.02775E+03 -4.61423E+03  3.12171E+03 -8.49361E+03  8.08281E+03 -1.09723E+04  5.15955E+03 -3.43248E+03
  8.47896E+03  1.55640E+03  6.06825E+03  7.99038E+03  3.09351E+01  1.45779E+04 -7.65929E+03  1.21335E+04
