 $NMID ID='MM_0lb_SNR50_9hz_g40_89.RAW', FMTDAT='(8E13.5)'
 TRAMP=1., VOLUME=1. $END
  3.08788E+05 -1.12847E+03  3.43754E+05  2.47745E+05  8.11366E+04  3.38517E+05 -1.32576E+05  2.52680E+05
 -1.91854E+05  8.18104E+04 -1.10582E+05 -3.22682E+04  2.60083E+03 -5.29058E+04  5.39597E+04 -5.64915E+03
  3.75428E+04  5.22459E+04 -1.88537E+04  7.98891E+04 -6.21752E+04  6.51159E+04 -8.38069E+04  3.28259E+04
 -8.45455E+04 -1.05979E+04 -5.40235E+04 -4.90065E+04 -1.10718E+04 -6.83799E+04  2.84588E+04 -4.79302E+04
  4.11800E+04  5.70965E+03  2.12018E+04  4.59256E+04 -3.74241E+04  5.10905E+04 -7.07816E+04  4.10683E+03
 -5.23229E+04 -5.86174E+04 -7.31042E+03 -8.18545E+04  3.84644E+04 -5.67497E+04  4.21770E+04 -2.48825E+04
  4.53325E+04  5.82336E+03  4.00719E+04  3.05916E+04  1.29761E+04  3.10349E+04 -4.78303E+03  3.10010E+04
 -2.75947E+04  8.96705E+03 -2.19250E+04 -1.05488E+04  9.65001E+03 -4.88824E+03  2.70819E+04  1.24461E+04
  1.40876E+01  4.09501E+04 -2.82198E+04  3.34509E+04 -6.39769E+04  9.25868E+03 -5.75054E+04 -4.24779E+04
 -1.47668E+04 -6.64483E+04  3.24740E+04 -4.90946E+04  6.33109E+04  1.49676E+02  4.29185E+04  2.96179E+04
 -3.54782E+03  3.73338E+04 -3.65459E+04  1.48618E+04 -3.61065E+04 -5.48020E+03 -1.61126E+04 -1.33336E+04
 -1.53577E+04 -1.36976E+04 -6.66245E+03 -2.11038E+04  1.02610E+04 -2.49201E+04  1.32882E+04 -1.71089E+04
  8.26713E+03 -1.80681E+03 -9.88222E+03  1.32899E+04 -2.22422E+04 -5.41297E+03 -7.59734E+03 -3.76217E+04
  2.74637E+04 -4.42398E+04  5.13711E+04 -2.18149E+04  5.32918E+04  2.48237E+04  1.47280E+04  4.54669E+04
 -2.06841E+04  3.79714E+04 -3.22216E+04  1.41000E+03 -9.40365E+03 -3.69169E+04  2.31813E+04 -3.66811E+04
  4.45084E+04 -1.50387E+04  3.50999E+04  2.40185E+04  1.93317E+04  5.05523E+04 -1.17585E+04  5.44297E+04
 -2.65286E+04  3.79510E+04 -4.73530E+04  9.44372E+03 -4.61015E+04 -1.66428E+04 -2.48040E+04 -3.87811E+04
  4.62055E+03 -3.62954E+04  3.28028E+04 -1.63818E+04  2.98885E+04  8.80008E+03  2.63825E+03  1.75000E+04
 -1.56087E+04  8.71731E+03 -1.02396E+04 -7.91951E+03  8.13801E+03 -1.62144E+04  1.88176E+04  5.18309E+03
  1.42221E+04  2.31722E+04 -3.60794E+02  2.57900E+04 -2.64105E+04  1.26822E+04 -3.25385E+04 -7.31101E+03
 -1.76800E+04 -1.77319E+04 -1.31797E+04 -2.68520E+04  6.01947E+03 -2.66403E+04  2.01776E+04 -2.05104E+04
  2.64355E+04 -1.30631E+04  3.44205E+04  1.72402E+03  2.83975E+04  2.01162E+04  4.03611E+03  3.98992E+04
 -1.51480E+04  3.00639E+04 -2.75442E+04  1.38538E+04 -2.75128E+04 -1.84142E+04 -9.26057E+03 -1.21665E+04
  4.98148E+03 -5.48086E+03 -9.20671E+03  7.67649E+03 -2.08708E+04 -3.00358E+03 -2.92300E+04 -9.31320E+03
 -1.48206E+04 -1.84236E+04  1.28757E+03 -2.33535E+04  1.27771E+04 -1.48773E+04  1.96538E+04 -1.73555E+03
  1.19847E+04  2.06309E+04 -2.99249E+03  2.15939E+04 -1.72878E+04  1.20762E+04 -2.31321E+04 -9.67391E+03
 -1.86186E+04 -2.19350E+04  2.66519E+03 -2.96493E+04  8.42852E+03 -2.07657E+04  2.15743E+04 -1.44542E+04
  2.11370E+04 -1.04672E+03  1.73586E+04 -2.22828E+03  3.15996E+03  4.14431E+03  9.66983E+03 -3.76042E+03
  2.43677E+04  7.51005E+03  2.52026E+04  1.77471E+04  1.33349E+04  4.02027E+04 -7.18041E+02  4.50212E+04
 -2.41433E+04  3.06862E+04 -3.83082E+04  2.25291E+04 -3.71810E+04 -5.86045E+03 -3.21363E+04 -2.82982E+04
 -1.31081E+04 -3.15033E+04  1.29276E+04 -2.54953E+04  2.76285E+04 -1.69052E+04  2.36419E+04  1.02378E+04
  1.04966E+04  1.21098E+04 -1.11711E+04  1.28595E+04 -1.91277E+04  2.23552E+02 -1.17210E+04 -1.48320E+04
  2.13807E+03 -2.00259E+04  1.10787E+04 -1.20412E+04  9.04044E+03 -1.09472E+03 -4.68272E+03  9.86236E+03
 -4.64963E+03 -2.28301E+03 -9.89603E+03 -6.40753E+03  2.72352E+02 -1.54757E+04  1.14602E+04 -2.09192E+04
  2.53131E+04 -9.14688E+03  2.93613E+04  4.60518E+03  2.35403E+04  1.81703E+04  3.33316E+03  3.25551E+04
 -3.14817E+03  3.13239E+04 -1.67935E+04  1.06876E+04 -2.25094E+04  1.52523E+04 -1.00278E+04 -4.28527E+03
 -3.27811E+03 -4.00976E+03 -5.45376E+02 -1.38346E+03 -4.77953E+02  3.32493E+03 -3.42298E+03  6.50575E+03
 -1.34113E+04 -4.81254E+02 -1.17835E+04 -1.71744E+04 -1.24528E+04 -1.96047E+04  5.21045E+03 -1.03661E+04
  1.00347E+04 -1.42816E+03  5.01648E+03 -2.72804E+03 -3.37443E+03  1.12580E+04 -1.01908E+04  6.90594E+03
 -4.61745E+03 -8.58800E+03 -3.22200E+03 -1.17858E+04  5.40023E+03 -1.76462E+04  1.65038E+04 -1.32975E+04
  2.40488E+04 -3.77745E+02  9.03243E+03  7.34731E+03  6.07336E+03  2.00504E+04 -8.74349E+03  1.61493E+04
 -1.56240E+04  4.79904E+03 -5.53690E+03 -8.71004E+03  5.90104E+03 -2.72779E+03  1.55457E+04 -8.80429E+03
  7.26040E+03  6.91390E+03  7.65432E+02  1.13021E+04 -1.23415E+04  1.54426E+04 -1.57716E+04  5.64242E+03
 -1.24580E+04 -5.97850E+03  2.13888E+03 -1.40261E+04  1.31127E+04 -8.67328E+03  9.14288E+03 -3.12174E+03
 -5.46632E+03  1.05754E+04 -8.97946E+03  8.17422E+03 -1.42366E+04  7.87489E+03 -1.76529E+04 -1.10766E+01
 -4.58621E+03 -1.80804E+04  1.01541E+03 -1.48707E+04  1.49671E+04 -8.46642E+03  1.31749E+04  1.50726E+03
  1.30549E+04  1.89346E+04 -2.01957E+03  1.40477E+04 -1.54231E+04  5.90167E+03 -1.43334E+04 -2.33478E+02
 -1.22842E+04 -1.09916E+04 -3.64689E+03 -1.28502E+04  4.79168E+03 -9.84400E+03  2.91416E+03  2.17314E+03
  3.78680E+03 -3.86926E+03 -6.11412E+03  1.61782E+03 -5.05257E+03 -1.04409E+04 -1.37184E+03 -7.70927E+03
  1.37157E+04 -1.09596E+03  1.25988E+04 -1.33400E+03  1.76283E+04  9.69648E+03  3.80658E+03  2.53513E+04
 -8.39810E+03  2.43720E+04 -1.39458E+04  2.27981E+04 -2.65987E+04  4.37603E+03 -1.92367E+04 -1.04911E+04
 -1.28270E+04 -1.74061E+04  2.93531E+02 -1.23815E+04  6.75445E+03 -1.30032E+04  7.92744E+03 -6.78711E+03
  4.27539E+03 -4.29130E+03  6.79854E+03 -3.81128E+03 -1.37794E+01 -3.14598E+03  9.63991E+03 -6.74642E+03
  1.09950E+04  4.24174E+03  5.24879E+03  1.15078E+04 -4.32236E+03  1.17493E+04 -1.22753E+04  8.42373E+03
 -1.21984E+04 -4.95368E+03 -6.76994E+03 -6.13045E+03  4.89528E+03 -2.14484E+04  1.23802E+04 -1.18237E+04
  1.48248E+04 -7.45230E+03  1.68224E+04 -1.80048E+02  1.26752E+04  1.56792E+04  4.63148E+03  1.82991E+04
 -1.01159E+04  9.81889E+03 -8.03480E+03  8.38060E+02 -7.31041E+03 -3.87336E+02 -3.68895E+03 -2.37095E+03
 -6.71272E+03  4.15814E+03 -4.84657E+03  5.51591E+03 -3.65703E+03  2.36156E+03 -9.89244E+03 -6.01597E+03
 -4.32183E+03 -9.16100E+03 -2.24346E+03 -1.57569E+04  3.11395E+03 -7.68376E+03  1.45935E+04 -4.06599E+03
  1.33232E+04  5.00261E+03  4.64217E+03  6.80483E+03 -1.82635E+03  1.96027E+04 -7.91862E+03  1.28578E+04
 -1.23027E+04  2.17857E+03 -1.41359E+04 -1.62611E+03 -1.55240E+03 -1.45704E+04  5.83317E+03 -1.24025E+04
  1.19164E+04  1.49736E+02  5.91790E+03  1.89918E+03 -4.90746E+03  3.70502E+03 -4.87256E+03  3.52350E+03
  4.76825E+03  1.93709E+03 -1.36081E+03 -2.02570E+02  6.01390E+03  5.21721E+03  3.60432E+03  6.80873E+03
 -6.38411E+03  9.32088E+03 -8.43918E+03  1.04187E+04 -1.89580E+04  8.55488E+03 -1.49481E+04 -7.25384E+03
 -3.97434E+03 -1.46670E+04  7.91158E+03 -1.48785E+04  1.15435E+04 -4.46202E+03  1.31958E+04  1.49667E+03
  8.58321E+03 -4.48954E+02  1.36871E+03  1.25552E+04 -7.12415E+03  7.14383E+03 -5.05582E+03  2.58565E+03
 -5.70615E+03 -7.66270E+03  1.90122E+03 -1.08811E+04  8.34749E+03  6.91670E+02 -2.54960E+03  4.96307E+03
  5.79128E+03  5.71713E+03 -6.11042E+02  7.81533E+03  4.90478E+03  2.91213E+03  4.25458E+03  8.68349E+01
  4.02005E+03  4.33539E+03  8.85213E+03 -4.52227E+03 -1.83435E+03  5.29105E+03 -5.53406E+03  6.15937E+03
 -2.24031E+03  7.77837E+03 -8.12161E+03  1.53649E+03 -4.34242E+03 -1.36743E+03 -1.55383E+03 -5.79309E+03
  1.16461E+03 -6.65561E+03  8.40269E+03 -1.65623E+03  3.50048E+02  8.56822E+02 -2.13443E+03  4.27439E+02
 -7.71524E+02 -6.47141E+02 -9.21235E+03 -6.72291E+03 -8.29459E+03 -8.46686E+03  1.00742E+03 -8.82605E+03
  9.00516E+02 -4.86991E+03  6.85237E+03 -5.25696E+03  2.96834E+03  1.57613E+03 -4.86165E+03  5.20768E+03
  3.38524E+03  1.11317E+03  2.08326E+03 -4.22104E+03 -1.54156E+03  3.98622E+03 -5.81938E+02 -8.63553E+03
  9.11105E+03  2.75348E+03  1.01106E+04  8.35078E+03  4.06930E+03  8.22147E+03 -3.14062E+03  7.55534E+03
 -6.31695E+03  2.75785E+03 -1.24019E+04 -7.61203E+03  2.09494E+03 -5.57991E+03 -2.01280E+03 -1.27594E+03
  6.64975E+03 -4.57433E+03  2.26107E+03  5.52078E+03  5.52076E+03  8.84647E+03 -5.79810E+03  3.94480E+03
 -1.43460E+03  6.25919E+03 -3.28671E+03  2.72931E+03 -5.44765E+03 -1.53164E+03 -1.24229E+03  3.69008E+03
 -1.90832E+03  3.47610E+03 -8.76151E+03  3.86156E+03 -1.20019E+04  1.25484E+03 -1.03270E+04 -5.47265E+00
 -5.26302E+03 -1.18847E+04  5.32627E+03 -1.89908E+04  8.08721E+03 -1.25679E+04  5.41466E+03 -7.58051E+03
  8.28483E+03 -6.68187E+01  1.22123E+04  1.01295E+04 -2.68007E+02  1.48623E+04  2.23889E+03  8.03395E+03
 -1.05622E+04  1.37632E+03 -7.95019E+03 -1.11949E+01  5.28478E+03  4.52499E+03 -3.70797E+03  2.18194E+03
 -2.28910E+03  3.35972E+02 -8.23288E+02 -8.99342E+03 -2.61486E+03 -1.84708E+02  3.21882E+03 -4.56324E+03
  6.32937E+02 -3.49169E+03  1.18197E+04 -3.07497E+03  1.05108E+04  9.96411E+03  1.98609E+02  9.76421E+03
 -8.85606E+03  9.57077E+03 -1.39627E+04  9.81421E+03 -1.29589E+04  4.89587E+03 -4.02401E+03 -6.77428E+03
 -3.04587E+03 -1.28628E+04  3.80154E+03 -1.09974E+04  8.05686E+03 -9.54335E+03  1.16627E+04  2.03547E+03
 -1.20582E+03 -3.88053E+02 -4.33844E+02 -3.97513E+03 -3.20350E+03  7.49326E+02 -3.66786E+03 -4.97002E+03
  3.57621E+03  8.12111E+03  1.90705E+03  6.78586E+03  7.80546E+03  3.35280E+03 -3.20450E+03  2.59832E+03
 -1.72198E+03 -5.72228E+02 -7.33147E+03  3.37093E+02 -4.37238E+03 -5.35093E+03 -2.13236E+03 -1.40968E+04
  1.00550E+04 -6.77243E+03  1.44067E+04  3.24472E+03  6.23629E+03  1.89781E+03  6.32292E+03  7.46108E+03
 -1.68554E+03  2.77139E+03  3.41325E+03  4.59285E+03  3.06215E+03 -4.61281E+03  1.57822E+03 -7.91444E+03
  7.61081E+02 -1.83984E+03 -1.22966E+03  2.47393E+03  1.07579E+03  9.91957E+03 -7.10213E+03  1.48515E+03
 -5.66095E+03 -6.42684E+03 -2.33075E+03 -8.18206E+03 -6.88556E+02 -9.35414E+03  7.86758E+03 -1.96686E+03
  2.53157E+03 -2.04249E+03  6.06094E+03  3.99777E+03  2.91124E+03  7.94817E+03 -1.08535E+03  1.36199E+04
