 $NMID ID='MM_0lb_SNR50_10hz_g50_8.RAW', FMTDAT='(8E13.5)'
 TRAMP=1., VOLUME=1. $END
  3.06546E+05  3.14936E+03  3.42523E+05  2.44163E+05  8.67070E+04  3.41275E+05 -1.30805E+05  2.49369E+05
 -1.91340E+05  8.32634E+04 -1.08384E+05 -3.38511E+04  2.33339E+03 -4.98207E+04  5.14630E+04  6.50706E+03
  4.06058E+04  5.68183E+04 -1.57448E+04  7.53764E+04 -6.31788E+04  6.64209E+04 -8.21140E+04  3.02901E+04
 -8.33003E+04 -1.00352E+04 -5.78116E+04 -4.94696E+04 -1.16728E+04 -6.78931E+04  2.32211E+04 -5.08789E+04
  4.55415E+04  3.79711E+03  2.10241E+04  3.89141E+04 -3.39638E+04  4.96150E+04 -6.63327E+04  6.23372E+02
 -5.83770E+04 -5.68184E+04 -7.84912E+03 -7.99589E+04  3.97256E+04 -6.17321E+04  4.23669E+04 -1.39570E+04
  4.54804E+04  1.07698E+04  3.85555E+04  2.73051E+04  1.55123E+04  2.83245E+04  4.10316E+02  2.67820E+04
 -1.66391E+04  1.63698E+04 -1.09979E+04  2.19226E+02  5.25430E+03 -7.29117E+03  1.93203E+04  1.32383E+04
  9.49595E+03  3.75532E+04 -3.75265E+04  3.53477E+04 -6.52769E+04  3.89718E+03 -5.00577E+04 -3.89743E+04
 -1.74085E+04 -7.24476E+04  3.97822E+04 -4.70491E+04  5.90157E+04 -2.87201E+03  3.87037E+04  3.89330E+04
 -1.28329E+03  3.43185E+04 -2.74821E+04  1.87118E+04 -3.04252E+04 -6.84869E+03 -1.42597E+04 -5.70887E+03
 -8.16122E+03 -1.29579E+04  3.93302E+02 -1.56940E+04  5.59385E+03 -1.92047E+04  1.43045E+04 -9.18129E+03
  7.05209E+03  5.10225E+03 -1.02744E+04  1.39994E+04 -2.33753E+04 -1.12987E+04 -4.67491E+03 -3.59851E+04
  2.71230E+04 -4.41360E+04  4.95642E+04 -2.13866E+04  4.92334E+04  1.95190E+04  1.97882E+04  4.83775E+04
 -9.71075E+03  3.77003E+04 -2.20755E+04  4.80162E+01 -8.69943E+03 -2.44030E+04  2.18979E+04 -3.93396E+04
  4.40961E+04 -1.29102E+04  3.23350E+04  2.48583E+04  2.06102E+04  4.88038E+04 -4.35140E+03  4.97936E+04
 -3.16924E+04  3.44521E+04 -4.33997E+04  1.34097E+04 -4.65475E+04 -1.58771E+04 -2.14314E+04 -3.54166E+04
  1.30721E+04 -4.05541E+04  3.43576E+04 -1.91763E+04  3.00481E+04  1.44541E+04  5.45469E+03  2.34447E+04
 -1.15297E+04  8.48765E+03 -1.51662E+04 -7.45885E+03  5.43779E+03 -1.34120E+04  1.74698E+04  6.77179E+03
  1.47432E+04  2.32312E+04 -1.64572E+03  2.43700E+04 -2.12504E+04  1.67258E+04 -2.87230E+04  1.29859E+03
 -2.03104E+04 -1.95028E+04 -7.44435E+03 -2.68462E+04  5.04539E+03 -2.32680E+04  2.05557E+04 -2.29123E+04
  2.94588E+04 -1.13503E+04  3.75747E+04  4.47480E+03  2.90112E+04  2.22346E+04  3.25312E+03  4.16164E+04
 -2.78844E+04  3.26827E+04 -2.42494E+04  9.33337E+03 -2.27670E+04 -5.56241E+03  4.08268E+02 -1.03281E+04
 -3.52852E+03  9.86593E+02 -7.53592E+03  1.09938E+04 -2.11440E+04  7.62610E+03 -2.48596E+04 -1.10512E+04
 -1.10932E+04 -2.44602E+04 -1.34947E+03 -2.71777E+04  1.74852E+04 -1.86530E+04  2.24636E+04 -2.14777E+03
  9.21223E+03  1.45166E+04 -5.36544E+03  2.68950E+04 -1.34045E+04  1.70339E+04 -2.26376E+04 -3.22068E+03
 -1.75050E+04 -1.71664E+04 -7.83543E+03 -2.09218E+04  1.30770E+04 -1.96679E+04  2.20822E+04 -1.38782E+04
  1.59349E+04 -2.54707E+03  1.95392E+04  5.46270E+03  5.44828E+03  1.29594E+03  1.05576E+04  2.91098E+03
  2.12880E+04  3.39428E+03  2.62906E+04  1.40477E+04  2.14394E+04  2.90622E+04 -7.70591E+03  3.83680E+04
 -2.94996E+04  3.40382E+04 -4.27984E+04  1.77720E+04 -4.32257E+04 -7.00947E+03 -3.57121E+04 -1.87544E+04
 -1.76030E+04 -3.60534E+04  1.12696E+04 -3.24803E+04  2.85214E+04 -1.38377E+04  2.30236E+04  7.39506E+03
  6.27680E+03  1.59333E+04 -1.19255E+04  1.27367E+04 -1.84439E+04  4.74587E+03 -1.59874E+04 -7.30767E+03
  5.09423E+02 -2.00111E+04  8.59979E+03 -1.61284E+04  1.17696E+04 -1.77629E+03  2.20704E+03  1.39957E+04
 -1.30161E+04 -2.26571E+03 -1.10312E+04 -8.07148E+03 -2.85834E+03 -2.05086E+04  7.23280E+03 -1.90155E+04
  2.09628E+04 -1.22550E+04  2.67692E+04  6.60498E+03  1.78039E+04  1.92914E+04  8.73168E+03  3.10730E+04
 -1.19474E+04  2.80768E+04 -2.24520E+04  1.81931E+04 -1.95397E+04 -1.59787E+03 -8.89148E+03 -1.11351E+04
 -6.43438E+03 -5.66113E+03  2.80759E+02  3.11343E+01 -4.12536E+03  5.36778E+03 -8.68006E+02  2.40360E+03
 -1.06720E+04  7.77821E+02 -1.42302E+04 -6.25838E+03 -3.20184E+03 -1.64532E+04  6.95775E+03 -1.77658E+04
  1.07705E+04 -9.04160E+03  1.04336E+04  6.62587E+03 -3.88318E+03  2.01879E+03 -1.14090E+04 -3.15148E+03
 -4.32409E+03 -1.11878E+04  2.72924E+03 -1.17284E+04  4.76593E+03 -1.42060E+04  1.96976E+04 -5.50700E+03
  1.59729E+04  2.74574E+03  1.54925E+04  1.26068E+04  8.40701E+03  1.78583E+04 -3.58943E+03  6.88514E+03
 -8.52555E+03  8.43696E+03 -8.64766E+03 -3.05814E+03  2.07064E+03 -1.24427E+04  8.78112E+03 -2.76487E+03
  5.61316E+03  4.45598E+03 -4.07343E+02  1.09440E+04 -5.64591E+03  1.14916E+04 -1.94142E+04 -2.88224E+02
 -1.04285E+04 -9.27635E+03 -3.41581E+03 -6.87442E+03  8.47169E+03 -9.06418E+03  9.90651E+03  1.02951E+04
  2.66992E+03  1.05628E+04 -7.62637E+03  1.19706E+04 -1.51487E+04  7.54020E+03 -1.69190E+04 -4.44385E+03
 -1.31381E+03 -1.67721E+04  6.71087E+03 -1.61413E+04  1.42470E+04 -1.69562E+04  1.65428E+04  3.88869E+03
  9.64997E+03  1.21406E+04 -1.10379E+03  1.71818E+04 -6.41635E+03  4.51873E+03 -1.27817E+04 -2.07696E+03
 -9.64072E+03 -4.39775E+03 -1.12175E+02 -1.53135E+04  6.82377E+03 -1.15601E+04  1.03603E+04 -6.50686E+03
  4.23049E+03  4.14984E+03 -2.15418E+02 -2.17223E+03 -3.82272E+02 -5.39899E+03  5.70063E+02 -3.08757E+03
  1.88547E+04 -1.44156E+03  1.25576E+04  1.02046E+03  1.28202E+04  1.05051E+04  1.02863E+04  1.92654E+04
 -9.06555E+03  2.49376E+04 -2.32400E+04  1.38600E+04 -1.97318E+04  5.00842E+03 -1.51041E+04 -1.03097E+04
 -4.32889E+03 -1.35309E+04  4.05567E+03 -1.48627E+04  4.48641E+03 -1.20431E+04  4.54197E+03 -5.34013E+03
 -2.87769E+03 -3.24118E+03 -8.78357E+02 -1.62958E+03  6.23106E+03 -4.24328E+03  5.42218E+03 -4.62269E+03
  3.64642E+03  1.40239E+03  1.14951E+04  1.18959E+04  2.16911E+02  1.20175E+04 -5.28251E+03  5.05743E+03
 -1.14047E+04 -1.33967E+03 -1.84259E+04 -1.11314E+04 -1.79533E+03 -1.01643E+04  7.74964E+03 -1.38066E+04
  1.39948E+04 -3.29216E+03  2.09633E+04  1.68683E+03  6.77755E+03  1.27921E+04  2.69003E+03  1.48481E+04
 -7.93310E+03  1.14892E+04 -6.07817E+03  5.44568E+03 -4.68804E+03 -3.82028E+03 -2.51019E+03  3.70652E+03
 -7.90061E+02  2.83951E+03 -6.72455E+03  2.57660E+03 -9.63954E+02  8.20107E+03 -8.75661E+03 -3.75953E+03
 -1.73436E+04 -1.16624E+04 -3.54533E+01 -9.70848E+03  1.45813E+04 -1.22412E+04  1.18364E+04 -2.51285E+02
  1.09818E+04  5.51750E+03  1.99583E+03  9.82840E+03  2.23565E+03  1.55516E+04 -6.09875E+03  6.85619E+03
 -1.11699E+04 -1.22893E+03 -1.23612E+04 -9.44956E+03  5.13736E+03 -8.89418E+03  1.22994E+04 -9.48255E+03
  6.86964E+03  9.10009E+02  6.72109E+03  9.97091E+02 -1.42933E+03  6.42901E+03 -5.87789E+02  5.78284E+03
  5.91642E+03  5.88050E+03  7.55667E+03  8.74221E+02  5.39313E+03  9.04338E+03  3.27568E+03  5.43808E+03
 -4.99911E+03  1.20039E+04 -1.15615E+04  1.44188E+04 -1.43996E+04 -1.35976E+03 -1.90882E+04 -1.56753E+03
 -4.88528E+03 -1.58133E+04 -1.93438E+03 -1.37265E+04  4.70668E+03 -7.95413E+03  1.44553E+04 -3.49413E+03
  9.10146E+03  6.36047E+03 -5.52046E+02  9.38274E+03 -4.72481E+03  1.61055E+03 -5.62539E+03 -8.97535E+03
 -1.92009E+03 -5.18315E+03  2.68288E+03 -1.03010E+04  3.33282E+02 -4.52719E+03  7.12543E+03  1.46083E+03
 -7.63382E+02  3.25705E+02  3.30104E+03  4.63399E+03 -4.58141E+03  8.54277E+03 -6.71236E+03 -5.16168E+03
  4.26837E+03 -1.00347E+03  6.66472E+03  6.55087E+03  4.31710E+03  3.58894E+03 -3.44169E+02  6.91419E+03
 -8.75761E+03  4.96160E+03 -9.19763E+03  4.87755E+03 -2.53369E+03 -2.63432E+03 -4.13473E+03 -4.19753E+03
  5.16378E+03 -1.90769E+03  1.01011E+04 -1.46579E+03  5.00257E+03  2.16530E+02  1.15958E+03  2.38506E+03
 -4.13513E+03 -1.02590E+03 -1.10154E+04 -2.46746E+02 -1.45526E+03 -7.34441E+03  6.96995E+02 -1.02024E+04
  7.55300E+03 -4.58229E+01  8.06552E+03 -4.16342E+03  5.61626E+03  1.38545E+03  1.75988E+03  7.23451E+03
  7.79376E+01 -1.21056E+02 -1.15175E+03 -1.80313E+03 -1.10813E+03  5.54830E+02  5.49844E+03 -5.96098E+03
  6.46116E+03 -2.41486E+03  7.22367E+03  1.68490E+03  8.32068E+03  1.14276E+04 -2.71162E+03  9.36600E+03
 -1.59162E+03  3.12575E+03 -1.67279E+04 -7.92091E+03 -2.25584E+03 -8.82222E+03  3.66737E+03 -1.32231E+04
  6.78416E+03  1.92293E+03  6.85661E+03  9.34978E+03  3.03309E+03  3.36658E+03 -4.35171E+03  1.44588E+03
  1.20639E+03 -3.38273E+03 -3.34492E+03 -2.30642E+03 -5.44812E+03  3.62614E+03 -6.57752E+02  3.51428E+03
 -5.78851E+02  2.83364E+03 -4.44932E+03  7.32593E+03 -1.07506E+04  1.66870E+03 -1.10743E+04 -2.18745E+03
 -6.01568E+03 -1.46896E+04  6.07026E+02 -1.95859E+04  7.76801E+03 -1.62345E+04  1.23700E+04 -2.63708E+03
  1.41398E+04  8.87728E+03  3.09864E+03  6.99462E+03 -2.03730E+03  9.04683E+03 -2.15379E+03  6.58640E+03
 -1.11931E+04  8.23500E+03 -7.92503E+03  2.60178E+02  4.71099E+03 -1.86895E+03 -2.97713E+03  6.33960E+03
 -3.28808E+03  7.04521E+03 -4.30576E+03 -3.21471E+02  1.78182E+03  4.47175E+03 -6.45594E+03 -4.85092E+03
  8.18750E+03  1.27185E+03  8.29516E+03  4.43347E+02  8.76535E+03  6.40170E+03  4.36859E+03  5.99577E+03
  5.03681E+01  9.94771E+03 -1.01115E+04  6.61788E+03 -7.37041E+03 -6.06607E+03 -4.92265E+03 -6.70074E+03
 -8.07619E+03 -1.05365E+04  3.64052E+03 -7.95097E+03  2.04580E+03 -6.39609E+03  2.57887E+03  6.28247E+03
  4.21931E+02  2.03377E+03 -1.24839E+03  3.25836E+03 -3.28829E+03 -1.02609E+04 -3.20981E+03 -7.85118E+03
  2.13397E+03 -6.78723E+03  2.30675E+03  4.62136E+02  2.73701E+03  2.05966E+03 -1.86575E+03 -1.38473E+03
 -1.25182E+03  8.49848E+03 -7.75840E+03  9.50409E+02 -6.27068E+03 -1.12431E+04  1.38921E+03 -8.06720E+03
  3.79436E+03 -9.39765E+03  4.62869E+03 -1.13771E+03  7.66574E+03  3.36956E+03  9.15559E+03  6.48175E+03
 -8.46454E+02  7.41566E+03 -2.52759E+03  7.64729E+03 -4.15062E+03  2.76709E+03 -3.42045E+03 -5.29900E+03
 -1.35257E+03 -4.64201E+03 -6.89788E+03  4.57607E+03 -1.83904E+03  8.18645E+02  3.84331E+03 -3.72270E+03
 -8.14886E+03 -4.70187E+03 -4.33150E+03 -9.55828E+03  5.36090E+02 -8.79107E+03  3.00728E+02  2.69650E+03
  1.90632E+03  2.27049E+03  4.70222E+02  4.62237E+03 -2.00982E+03  4.98606E+03 -3.19411E+03 -3.03453E+02
