 $NMID ID='MM_0lb_SNR50_12hz_g45_70.RAW', FMTDAT='(8E13.5)'
 TRAMP=1., VOLUME=1. $END
  3.07530E+05 -2.50542E+03  3.34031E+05  2.49055E+05  8.37182E+04  3.36246E+05 -1.37436E+05  2.53146E+05
 -1.86247E+05  8.80359E+04 -1.08702E+05 -3.76752E+04  5.56535E+03 -5.04548E+04  5.12247E+04  3.76180E+02
  3.81240E+04  5.39940E+04 -1.35908E+04  7.61440E+04 -6.19085E+04  6.90142E+04 -7.80703E+04  2.96077E+04
 -7.99689E+04 -1.11787E+04 -5.85769E+04 -4.50048E+04 -1.64059E+04 -7.41092E+04  2.78051E+04 -5.17085E+04
  4.40266E+04  1.23346E+03  1.53106E+04  4.68144E+04 -3.96969E+04  5.09247E+04 -6.35068E+04 -1.30089E+03
 -4.90455E+04 -5.50797E+04 -1.16287E+04 -8.55577E+04  3.00609E+04 -5.62658E+04  4.81909E+04 -2.04541E+04
  4.00689E+04  1.18808E+04  3.69205E+04  2.74610E+04  1.58008E+04  3.16236E+04 -2.43790E+03  3.08543E+04
 -2.16309E+04  1.28612E+04 -1.88695E+04 -5.31994E+02  1.09285E+04 -3.31972E+03  2.44009E+04  5.22531E+03
  5.33619E+03  3.71110E+04 -3.14327E+04  3.76625E+04 -6.85981E+04  2.67038E+03 -5.83565E+04 -4.13500E+04
 -7.92477E+03 -6.92977E+04  3.65526E+04 -4.57614E+04  6.02116E+04 -3.29809E+03  3.68283E+04  2.79470E+04
 -9.68114E+03  3.75131E+04 -2.90141E+04  2.23020E+04 -3.16742E+04 -3.37427E+03 -2.04940E+04 -1.41439E+04
 -8.11376E+03 -1.45861E+04 -4.52278E+02 -1.88756E+04  3.71425E+03 -2.23540E+04  1.57322E+04 -1.56472E+04
  1.31555E+04  6.42783E+03 -7.59972E+03  1.62380E+04 -2.43446E+04 -3.60302E+03 -6.60706E+03 -3.16789E+04
  2.20376E+04 -4.64490E+04  5.34270E+04 -1.73325E+04  4.42952E+04  1.72338E+04  1.52765E+04  4.33704E+04
 -1.47557E+04  3.68547E+04 -2.44153E+04  3.20849E+03 -7.88664E+03 -2.74180E+04  1.67070E+04 -3.25520E+04
  4.57740E+04 -5.69714E+03  3.24768E+04  2.68958E+04  1.81810E+04  5.06035E+04 -6.28808E+03  5.28615E+04
 -2.84302E+04  3.23230E+04 -4.37651E+04  1.07916E+04 -4.25445E+04 -1.67262E+04 -2.28611E+04 -3.69673E+04
  3.26918E+03 -4.13344E+04  2.67555E+04 -1.31532E+04  3.02463E+04  9.32226E+03  2.75541E+03  1.52059E+04
 -1.82605E+04  1.01339E+04 -1.09641E+04 -7.98142E+03  1.19739E+03 -1.06115E+04  1.80815E+04  3.18684E+03
  9.77107E+03  1.87847E+04 -1.28107E+04  2.13886E+04 -2.45395E+04  9.06723E+03 -3.61310E+04 -6.98314E+03
 -2.42297E+04 -1.97742E+04 -4.28884E+03 -1.88006E+04  7.32092E+03 -2.13515E+04  1.86481E+04 -2.48600E+04
  2.89148E+04 -1.21374E+04  3.42463E+04  2.77934E+02  2.40265E+04  2.00986E+04  3.25085E+03  3.97647E+04
 -2.02606E+04  2.95737E+04 -2.96320E+04  1.25193E+04 -1.86080E+04 -1.38138E+04 -6.48398E+03 -1.88577E+04
  3.28107E+03 -4.88327E+02 -2.17931E+03  9.76445E+03 -1.44284E+04  3.95435E+03 -1.63925E+04 -3.42498E+03
 -1.20304E+04 -1.68537E+04  8.41955E+03 -2.78967E+04  1.56372E+04 -1.98615E+04  2.19886E+04  4.76245E+03
  1.06188E+04  1.23106E+04 -2.63426E+03  1.66665E+04 -1.65115E+04  6.37669E+03 -1.82551E+04 -6.19673E+03
 -1.29091E+04 -1.60892E+04 -2.10414E+03 -2.13291E+04  1.03377E+04 -2.20464E+04  2.33965E+04 -8.86859E+03
  1.66419E+04  2.70117E+03  1.37639E+04  4.79949E+03  7.35849E+03  1.43377E+03  1.18586E+04 -8.21198E+02
  2.00386E+04  3.82570E+03  2.11206E+04  1.71175E+04  6.72151E+03  2.61224E+04 -5.92916E+03  3.37902E+04
 -2.00013E+04  2.60485E+04 -3.74693E+04  1.81675E+04 -4.59493E+04  1.71956E+02 -2.68829E+04 -2.22479E+04
 -1.32560E+04 -3.07333E+04  1.08027E+04 -2.76680E+04  2.64527E+04 -1.10793E+04  1.91625E+04  7.84334E+03
  9.21757E+03  1.81030E+04 -1.24887E+04  1.18248E+04 -1.41093E+04  9.48120E+02 -7.71119E+03 -1.07473E+04
 -2.16416E+03 -1.63093E+04  8.36899E+03 -8.65400E+03  9.33141E+03  3.36300E+03  6.17769E+03  4.95549E+03
 -7.32757E+03  5.00757E+03 -8.03090E+03 -8.27229E+03 -6.92814E+03 -1.14257E+04  9.80616E+03 -1.30536E+04
  2.14286E+04 -8.81833E+03  2.82966E+04 -2.15177E+01  1.46478E+04  1.46274E+04  1.29988E+04  2.41750E+04
 -7.14880E+03  2.34328E+04 -1.44887E+04  1.78268E+04 -1.44818E+04  6.34143E+03 -1.47163E+04 -3.19248E+03
 -3.24734E+03 -4.01956E+03 -6.97548E+03  8.50277E+02  5.87315E+02  6.50253E+03 -5.25233E+03  6.97382E+03
 -1.44116E+04 -1.36264E+03 -9.63711E+03 -7.97140E+03 -5.61348E+03 -1.47686E+04  7.50024E+03 -1.43267E+04
  1.53443E+04 -2.75223E+03  2.31605E+03  2.01477E+03 -3.28004E+03  2.64036E+02 -6.01699E+03 -2.50895E+03
 -3.72498E+03 -8.49790E+03 -2.00459E+03 -1.31596E+04  4.41239E+03 -1.12113E+04  1.29249E+04 -5.04370E+03
  1.88950E+04 -2.28080E+03  1.58861E+04  7.64229E+03 -1.85526E+03  7.34159E+03 -8.66251E+03  1.38172E+04
 -1.03852E+04  3.98252E+03 -6.24594E+03 -2.51640E+03 -3.05319E+03 -3.71420E+03  5.27967E+03 -1.35370E+03
  1.12035E+04 -1.18226E+03 -2.60037E+03  5.20492E+03 -2.59175E+03  1.32309E+04 -9.89433E+03  4.23736E+03
 -7.59015E+03 -4.39913E+03 -4.56110E+03 -1.29446E+04  1.02030E+04  2.14320E+02  7.08310E+02 -3.39630E+02
  3.49938E+03  5.69054E+03 -6.65504E+03  5.64132E+03 -1.64527E+04  1.68524E+03 -8.74749E+03 -5.45727E+03
 -2.44930E+03 -1.31821E+04  4.24237E+03 -1.37472E+04  1.36907E+04 -5.27807E+03  5.48777E+03  1.40144E+03
  9.83369E+03  1.07618E+04 -1.44016E+03  1.77504E+04 -7.67063E+03  7.20974E+03 -9.14740E+03 -4.12529E+03
 -1.37518E+04 -8.92588E+03 -1.99501E+03 -9.29458E+03  4.36363E+03 -1.63451E+03  1.97762E+03 -3.59981E+03
  3.23112E+03 -9.88605E+01 -7.58935E+02  1.85185E+02 -2.36370E+03  2.62517E+03 -2.29535E+03 -2.39567E+03
  7.92584E+03 -1.90689E+03  1.27503E+04 -1.98801E+03  1.32674E+04  5.58222E+03  1.04726E+04  1.88042E+04
  1.43191E+03  1.10245E+04 -1.75341E+04  9.89163E+03 -1.52448E+04 -1.82155E+03 -1.58937E+04 -2.48383E+03
 -5.82351E+03 -1.56791E+04 -7.09510E+03 -1.21738E+04  1.61107E+03 -1.02182E+04  7.51358E+03 -1.71209E+02
  3.83309E+03 -3.79164E+03  2.31731E+03 -1.70839E+03  5.17213E+03  1.30550E+03  1.01115E+04  2.06181E+03
  7.74894E+03  7.38991E+03  6.64177E+02  1.40103E+04 -2.58438E+03  7.26976E+03 -9.04086E+03  8.89968E+03
 -1.10162E+04 -5.19027E+03 -6.30499E+03 -8.66139E+03  1.68882E+03 -1.18679E+04  1.49742E+03 -1.67112E+04
  8.04008E+03 -7.53266E+03  1.46890E+04 -8.41224E+02  9.08757E+03  1.02701E+04  5.39520E+03  6.94428E+03
 -4.26905E+03  1.48119E+04 -1.44931E+04  9.39008E+03 -4.64253E+03 -3.19453E+03 -3.27864E+03 -3.03978E+03
  1.99686E+03  2.06111E+03 -3.03137E+03  9.22815E+02 -5.36266E+03 -2.10692E+03 -5.40595E+03 -1.48861E+03
 -7.06261E+03 -3.69587E+03  9.04796E+02 -6.91211E+03  1.11244E+04 -1.26423E+04  1.53179E+04 -7.00338E+03
  1.03534E+04  7.24397E+03  9.25674E+03  7.88388E+03  2.08150E+03  1.14015E+04 -7.50256E+03  2.55084E+03
 -1.20778E+04  2.39404E+03 -6.39831E+03 -8.55632E+03  2.13664E+03 -9.21683E+03 -3.26808E+03 -7.53797E+03
  4.21197E+03 -3.39947E+03  3.21324E+03  5.85473E+03  8.89300E+02  3.31202E+03  1.42474E+03  1.62702E+03
 -1.95800E+03 -1.96877E+03 -1.30080E+03 -3.45854E+02  8.39898E+03  2.68866E+03  3.63656E+03  6.42752E+03
  1.37269E+03  4.49147E+03 -5.44592E+03  6.92989E+03 -9.93845E+03  2.26852E+03 -6.20171E+03 -2.09288E+03
 -1.14741E+04 -6.74301E+03 -7.22756E+02 -8.50259E+03  6.59764E+03 -8.24589E+03  7.91477E+03 -5.18189E+03
  9.98488E+03 -1.96034E+02 -1.31744E+03  2.67076E+03 -7.71233E+03  4.06932E+03 -4.70570E+03  1.43764E+03
 -1.07687E+03 -9.21271E+02  2.84665E+03 -4.32380E+03 -2.35411E+03 -8.85145E+03  3.58914E+03  3.55816E+02
  2.85518E+03 -1.43769E+03  1.08818E+03  1.59708E+03  8.95444E+02  5.58370E+03 -2.56630E+03  9.11366E+01
 -3.47948E+02 -1.44801E+03  8.63297E+02  1.55345E+03 -7.78870E+01  4.99818E+03  1.38126E+03  8.52956E+03
 -5.80536E+03  4.05841E+03 -1.56798E+03  2.13201E+03 -1.19436E+04 -5.63342E+02  2.53057E+03 -6.06828E+03
  5.20154E+02 -6.11905E+03  1.85908E+02 -1.33288E+03  3.74356E+03  3.00614E+03 -5.27318E+03  8.27588E+03
 -6.40432E+03  2.74250E+03 -8.00956E+02 -3.48692E+03 -2.55744E+03 -2.76932E+03  3.22456E+02 -2.25126E+03
  2.89128E+03 -2.64113E+03  4.95488E+03  1.42704E+03  5.55421E+03  1.03096E+03 -3.34972E+03  1.77716E+03
 -2.22325E+03 -3.65132E+02 -3.29041E+03 -2.17684E+03  7.30058E+01 -1.17198E+03 -7.93228E+02 -2.31242E+02
  3.41033E+03 -6.19311E+03  1.17624E+04  2.76810E+03  4.10852E+03  2.10716E+03 -3.13748E+03  6.31193E+03
 -3.94605E+03  3.31901E+03 -5.96061E+03 -2.13853E+03 -3.27959E+03 -4.95645E+03 -3.61483E+03 -2.73055E+03
 -4.70779E+02  5.15824E+03 -4.51613E+02 -1.78911E+03  1.42218E+03  4.10482E+03  3.62255E+03  6.68088E+03
  2.84932E+03  5.63641E+03  5.42614E+03 -1.20248E+02  3.16132E+02  6.15507E+03 -3.09730E+03  1.31719E+03
 -3.74516E+03 -4.12672E+02 -2.68269E+03  9.93943E+03 -9.01479E+03  8.69506E+02 -6.10285E+03 -2.70057E+02
 -7.35102E+03 -5.51114E+03  9.71449E+02 -4.73880E+03  7.22658E+03 -7.46423E+03  4.98446E+03 -1.05235E+03
  8.11210E+03 -2.26876E+03  2.73315E+03  6.22380E+03 -3.77613E+02  3.92479E+03  6.77762E+02  2.82358E+03
 -4.27772E+03  4.08697E+03 -4.92450E+03 -1.68583E+02 -1.69539E+03 -2.70692E+03 -5.76984E+02  3.44415E+03
 -5.52826E+03 -1.07573E+03 -6.54279E+03 -1.49459E+03 -4.20364E+03 -2.46656E+03  9.29573E+02 -4.02217E+03
  1.04758E+03 -2.87044E+03  9.68028E+02  6.29028E+03  5.02865E+03  7.91236E+03  1.16483E+03 -3.16715E+01
 -4.75139E+03  7.65118E+03 -6.29388E+03  5.22772E+03 -4.27862E+03 -2.41530E+03 -5.11808E+03 -3.01600E+03
 -5.26804E+01 -8.78550E+03  1.58600E+03 -7.71166E+03  1.81931E+03  2.54473E+03  6.90915E+02 -2.29718E+03
  4.34144E+02 -3.54016E+03  4.21719E+03 -2.98157E+03 -2.47851E+03  2.33540E+03 -3.65212E+03  1.69739E+03
  2.88332E+03  3.29013E+03  5.93394E+03 -8.43958E+02  2.78184E+03  3.82520E+03  1.51310E+03 -2.87027E+02
 -6.68493E+02  6.23472E+03 -2.09931E+03  2.68877E+03  2.64317E+03 -3.16073E+03  2.93407E+02 -6.45951E+03
  4.70220E+03 -5.78790E+03  6.11283E+03  2.05130E+00  8.50095E+03  2.63802E+03  3.01355E+03  1.72032E+03
  2.07031E+03  5.66860E+03 -3.10234E+03  5.82805E+03 -1.49528E+03 -3.42757E+02 -1.66585E+03  4.54204E+02
  6.60005E+02 -2.36919E+03 -7.08281E+02  4.13552E+03 -5.20909E+03 -1.65831E+03 -1.00688E+03  1.15530E+03
 -2.42356E+03 -2.24717E+03  4.07064E+03  8.13039E+02  4.62256E+02 -6.08598E+03  4.16515E+03 -3.64454E+02
  5.48084E+03 -2.95851E+03  2.09345E+02  3.06523E+03  1.51332E+03  2.63712E+03 -1.49887E+03  3.25051E+03
