 $NMID ID='MM_0lb_SNR50_18hz_g40_86.RAW', FMTDAT='(8E13.5)'
 TRAMP=1., VOLUME=1. $END
  3.09265E+05  3.61708E+03  3.35102E+05  2.52371E+05  8.42812E+04  3.33857E+05 -1.30836E+05  2.48934E+05
 -1.90122E+05  7.67167E+04 -1.11724E+05 -3.71095E+04  4.65339E+03 -4.65831E+04  5.43703E+04  4.98157E+02
  3.44514E+04  5.09758E+04 -1.58996E+04  7.54923E+04 -5.98200E+04  6.07567E+04 -8.34246E+04  3.34012E+04
 -8.01680E+04 -1.19699E+04 -5.95799E+04 -4.82739E+04 -1.48565E+04 -6.65422E+04  2.60506E+04 -4.35212E+04
  4.12227E+04  2.81980E+03  1.42537E+04  4.28303E+04 -3.37245E+04  4.65524E+04 -6.57240E+04  4.46030E+02
 -5.09662E+04 -5.38603E+04 -5.41453E+03 -7.68682E+04  3.17849E+04 -5.27865E+04  4.63580E+04 -1.69847E+04
  4.36469E+04  9.25229E+03  2.85709E+04  2.19465E+04  1.48483E+04  2.69536E+04 -9.62045E+03  2.09391E+04
 -1.89318E+04  1.27663E+04 -1.85024E+04 -6.82015E+03  8.36090E+03 -1.02024E+04  2.11248E+04  1.28217E+04
  1.02573E+04  3.57447E+04 -3.51838E+04  3.28128E+04 -6.42530E+04  2.30438E+03 -5.58854E+04 -4.26864E+04
 -1.22020E+04 -5.78853E+04  4.08126E+04 -4.01193E+04  5.57594E+04 -5.21639E+03  3.12528E+04  2.81477E+04
 -7.79105E+03  3.68501E+04 -3.18580E+04  1.29271E+04 -3.17605E+04 -1.17077E+03 -1.06004E+04 -9.21900E+03
 -4.82966E+03 -1.26451E+04  6.42225E+02 -1.95708E+04  5.21693E+03 -2.24840E+04  1.57825E+04 -1.52020E+04
  1.25036E+04  4.65592E+03 -7.86270E+03  1.06977E+04 -1.75983E+04 -4.72876E+03 -1.01980E+04 -3.11435E+04
  2.33095E+04 -4.34948E+04  4.22119E+04 -1.68171E+04  3.89862E+04  1.94692E+04  1.48736E+04  3.79204E+04
 -1.59478E+04  2.81285E+04 -2.39362E+04  1.76317E+03 -6.95692E+03 -2.38980E+04  2.48438E+04 -2.92794E+04
  4.11690E+04 -8.80174E+03  2.86760E+04  2.21803E+04  2.08689E+04  4.41774E+04 -9.07626E+03  4.10972E+04
 -3.06857E+04  2.98984E+04 -3.55101E+04  9.29092E+03 -3.90540E+04 -1.46836E+04 -1.83223E+04 -3.32570E+04
  5.30511E+03 -3.12840E+04  2.71171E+04 -1.37440E+04  2.57970E+04  1.20822E+04 -2.13567E+02  1.93183E+04
 -1.33808E+04  4.61661E+03 -6.84779E+03 -8.43393E+03  6.94571E+02 -1.36789E+04  1.79661E+04  3.91208E+03
  1.11014E+04  2.38947E+04 -1.27140E+04  1.92102E+04 -2.01807E+04  8.17692E+03 -2.67835E+04 -7.09669E+03
 -1.37313E+04 -1.61903E+04 -6.22372E+03 -1.43669E+04  4.96949E+02 -1.52014E+04  1.25128E+04 -1.44523E+04
  2.37471E+04 -6.47860E+03  2.73599E+04  2.61608E+02  2.85587E+04  1.98216E+04  3.03393E+03  3.54454E+04
 -1.90652E+04  3.00195E+04 -2.56451E+04  5.52574E+03 -2.32584E+04 -6.59358E+03 -4.56993E+03 -1.75002E+04
  1.82359E+03 -6.55474E+03 -3.20743E+03  8.72239E+03 -1.07400E+04  2.07875E+03 -1.30423E+04 -6.78407E+03
 -5.72951E+03 -1.96808E+04  6.33572E+03 -1.82666E+04  1.46556E+04 -1.11780E+04  2.01332E+04  2.32417E+03
  8.62593E+03  1.04814E+04  2.23304E+03  1.23899E+04 -6.48497E+03  7.70225E+03 -1.39882E+04 -4.36342E+03
 -1.08659E+04 -1.44471E+04 -5.28782E+02 -2.13190E+04  1.16782E+04 -1.54249E+04  1.36852E+04 -5.40975E+03
  1.28181E+04 -2.70957E+03  9.98997E+03  5.02321E+03  4.63134E+03  2.39973E+02  8.61970E+03 -1.85526E+03
  1.32579E+04  3.15954E+03  1.65466E+04  1.31189E+04  9.40738E+03  2.58019E+04 -3.34578E+03  2.72571E+04
 -1.36254E+04  2.25443E+04 -2.17933E+04  6.42766E+03 -2.95843E+04 -2.75294E+02 -2.06514E+04 -1.63799E+04
 -6.86916E+03 -2.10149E+04  4.12838E+03 -1.60782E+04  1.61507E+04 -1.22332E+04  1.77468E+04  4.92344E+03
  8.15437E+03  1.04640E+04 -7.36156E+03  8.69099E+03 -1.32002E+04  5.07479E+03 -8.02105E+03 -3.75986E+03
 -5.66356E+02 -1.48260E+04  1.00138E+04 -9.05648E+03  6.60579E+03 -5.27521E+03  3.25383E+03  4.67502E+03
 -6.57343E+03  1.68201E+03 -4.51525E+03 -1.98030E+03 -1.23643E+03 -6.49721E+03  8.46981E+03 -9.22418E+03
  1.10958E+04 -6.05886E+03  1.43621E+04  2.77972E+03  9.06945E+03  9.25061E+03  1.94786E+03  1.82574E+04
 -5.61186E+03  1.85123E+04 -1.14305E+04  7.26173E+03 -8.76828E+03  3.37550E+03 -1.03814E+04 -1.46396E+02
 -1.02047E+03 -4.86585E+03  2.18091E+03 -1.73295E+03 -1.39177E+03  6.28892E+03 -3.78643E+03  6.09697E+03
 -8.07536E+03 -2.17253E+03 -1.20372E+04 -7.13047E+03 -4.61500E+03 -9.05034E+03  2.12716E+03 -6.64378E+03
  5.43313E+03 -4.89912E+03  4.94667E+03  2.64082E+03 -7.38825E+02  7.96506E+03 -7.41056E+03  1.10807E+03
 -3.45307E+03 -4.87222E+03  4.02573E+03 -6.92128E+03  4.58505E+03 -7.35742E+03  7.69890E+03 -3.06588E+03
  1.16219E+04 -2.42615E+03  1.07243E+04  8.26579E+03  4.95839E+03  8.04403E+03 -4.90583E+03  8.42442E+03
 -9.37863E+03  3.72915E+03 -3.34018E+03  1.14182E+03  2.58448E+03 -1.85486E+03  3.73499E+03  7.51745E+01
  2.83213E+03 -1.85327E+02  1.12733E+03  3.24857E+03 -4.91400E+03  6.83218E+03 -8.86086E+03  2.41684E+03
 -5.24913E+03 -3.95837E+03  3.16426E+02 -6.16416E+03  9.00835E+03 -5.60676E+03  4.43671E+02  1.67274E+03
  1.21813E+03 -2.36310E+03 -1.06054E+03  5.52136E+03 -4.02987E+03  8.11649E+02 -2.26426E+03  1.36231E+03
 -4.35546E+03 -5.91476E+03  4.55992E+03 -9.56689E+03  4.11562E+03 -8.10302E+03  6.95776E+03  3.81469E+03
  9.57919E+02  5.57816E+03  3.63337E+03  9.65381E+03 -2.08085E+03  6.22002E+03 -4.33052E+03 -2.47398E+02
 -3.45943E+03 -5.14893E+03 -1.47177E+03 -6.33394E+03  4.15411E+03 -8.91623E+03  5.45871E+03 -5.17441E+03
  5.00290E+03 -1.54330E+03  7.01989E+02  2.24986E+03  1.86732E+03  2.56357E+03  8.86033E+02  2.85351E+02
  1.19783E+02  7.92437E+02  3.29513E+03  1.82836E+03  6.94028E+03 -1.77523E+03  8.18654E+03  1.67677E+03
 -4.77462E+03  7.27393E+03 -8.16300E+03  8.77356E+03 -1.02463E+04  3.23404E+03 -7.06917E+03 -3.46872E+01
 -4.92933E+03 -6.70972E+03  3.69073E+02 -6.07593E+03  3.09451E+03 -4.24565E+03  2.71364E+03 -2.74723E+02
  5.11954E+02 -7.77552E+02  4.18115E+02 -3.41796E+03  3.47060E+03 -2.99908E+03  3.25588E+03 -4.12199E+03
  4.67236E+03 -1.18912E+03 -2.64055E+03  5.10992E+03 -2.43997E+03  1.77260E+03 -4.99802E+03  8.32303E+02
 -2.35393E+03 -2.68205E+03 -1.28894E+02  2.93729E+03  2.73741E+03 -6.22515E+03  1.55018E+03 -1.52008E+03
  1.91593E+03 -4.75764E+03  2.77242E+03  2.76751E+03  6.79266E+03  4.41145E+03  2.16519E+03  3.54639E+03
 -4.58118E+03  8.28585E+03  8.98675E+02 -1.68987E+02 -4.45391E+03  2.24854E+03 -5.02809E+03 -8.80683E+02
  7.28081E+02 -3.45067E+03 -5.53783E+03  2.08397E+03 -4.09468E+03  1.61277E+03 -6.67586E+03  1.77372E+02
  3.16161E+02 -6.36982E+03  1.30338E+03 -3.54360E+03 -6.23279E+01 -2.54347E+03  3.84958E+03  8.34102E+02
  9.52197E+03  5.55261E+03  5.84226E+02  5.87475E+03 -3.91707E+03  9.40733E+03 -3.75927E+03  9.77015E+02
 -9.78879E+02  3.12594E+03 -2.82107E+03 -2.50073E+03  1.50042E+03  2.23668E+02  2.28004E+03 -4.59348E+03
  2.09334E+03 -1.55546E+03  1.60156E+03  1.45073E+03 -1.57445E+02  6.97274E+03 -1.25704E+03  5.66751E+03
 -4.73261E+01  1.20763E+03  1.58786E+03  7.73338E+02 -6.75972E+02  1.86110E+03  1.44132E+03  4.88704E+03
 -1.69759E+03  3.30796E+03 -2.04304E+03  1.35111E+03 -4.49717E+03 -8.32868E+01 -1.95559E+02 -2.21537E+02
 -4.73555E+03 -2.83847E+03  1.23742E+03 -2.82557E+03  8.64831E+03 -2.62998E+02  5.14209E+03  1.29710E+02
  1.21067E+03  1.82425E+02  1.51315E+03 -9.79610E+01 -4.05191E+03  6.96961E+03 -3.42026E+03  1.83283E+03
  1.12970E+02 -3.62353E+03  3.08345E+03 -2.07644E+03  5.61946E+03 -1.40419E+03 -1.25860E+03 -2.02122E+02
 -4.69852E+02  8.54269E+02 -1.89593E+03  2.56012E+03 -3.27991E+03 -1.08763E+03  2.80590E+03 -2.33726E+02
 -8.68799E+02  1.62844E+03  3.50665E+03 -1.12940E+03 -2.28507E+02  2.80283E+03 -9.71046E+02  2.91460E+03
 -5.19235E+03  2.08803E+03 -1.01498E+03  1.18947E+03 -4.97235E+02 -2.51867E+03  2.18587E+03  1.54716E+03
 -3.51689E+03 -7.58067E+02  2.74978E+03 -1.01860E+03 -1.72858E+03 -1.82792E+02  2.70179E+03  2.91664E+02
 -4.34306E+03  1.07436E+03  4.07316E+03  5.80254E+02  1.03620E+03  4.59607E+02  2.16888E+03 -4.51598E+03
  5.53384E+02 -2.18969E+03 -1.84515E+03 -3.88074E+01  2.68263E+01 -1.18600E+03 -3.40379E+03  1.36127E+03
 -2.53705E+03 -8.68991E+02  2.27922E+03 -2.11522E+03  4.82732E+03  9.36145E+02  2.18787E+03 -1.63780E+03
 -6.84416E+02  7.85279E+02  5.46213E+03  4.19205E+03  3.60616E+03  5.06000E+03 -3.75478E+02 -8.15369E+02
  3.02812E+03  6.95304E+02 -4.58120E+02 -4.14006E+02  1.95715E+03  1.55827E+03  9.92241E+02 -2.54526E+03
  1.39894E+03  2.23390E+03  1.66297E+03 -1.70205E+03 -5.55909E+02 -6.25170E+02 -1.18753E+03  1.63686E+03
  5.26867E+01 -8.62144E+02 -8.70515E+02  3.46077E+03 -1.57584E+03  2.48556E+03 -4.00260E+03 -7.18702E+03
  2.37174E+03  2.75869E+03 -6.48156E+02  2.39539E+03  3.78285E+02 -1.20313E+02 -6.30620E+03  8.20171E+01
 -4.88758E+02 -2.11093E+03 -3.96231E+02 -5.64919E+03  8.04174E+02  1.49626E+02  9.08458E+03  2.38391E+03
  2.79748E+03 -6.28059E+03  1.53403E+03  3.72921E+03 -3.48160E+03  4.61160E+03  1.19714E+03  1.31878E+03
 -4.76248E+03  2.42440E+03 -1.75795E+03  9.34083E+02 -8.39940E+02  1.42077E+03  1.18229E+03  1.60808E+03
 -5.53002E+03 -1.65274E+03 -7.40609E+02 -5.27094E+03  2.16964E+03 -4.46903E+03 -1.80508E+03  3.49086E+03
  1.08987E+03  4.78796E+02 -2.05106E+03 -1.55315E+02  1.07525E+03  3.29265E+03 -1.38684E+02  5.42357E+03
 -3.18800E+03 -3.49098E+03 -3.91786E+03  6.48096E+03 -2.09450E+03 -4.75261E+02 -3.97776E+03 -5.13524E+03
  1.02469E+03 -2.78241E+03  2.23559E+03 -3.27137E+03 -1.59022E+03 -2.62313E+03 -1.71843E+03  1.96001E+02
  1.65491E+03  4.90748E+02 -7.35354E+02 -5.89351E+02  5.02378E+02 -2.87221E+03 -5.36327E+01  1.72274E+03
  8.24936E+02  3.51431E+02  2.07976E+03 -1.34489E+03 -3.22903E+03 -2.54608E+03  1.91318E+03  6.71677E+03
 -1.51031E+03  2.11763E+03 -3.12633E+03  1.17997E+03 -1.87727E+03 -4.10739E+03  2.49673E+03 -6.24271E+03
  7.95100E+02  2.49724E+03  1.45540E+03 -4.83454E+03  1.47447E+03  9.03757E+02  1.36833E+03 -6.86507E+02
  5.01419E+02 -1.73316E+01  7.12731E+02  8.54295E+02  2.90375E+03 -3.52233E+03 -3.00618E+03 -1.23456E+03
 -2.94563E+03 -5.70843E+03  1.68208E+03  2.59726E+03 -2.88047E+03 -9.99883E+02 -1.36998E+03 -8.42630E+02
  1.03579E+03  1.58327E+03  5.70310E+03  2.49384E+03  3.00701E+03  1.95133E+02  2.85066E+03  2.88550E+03
  3.08580E+03 -3.21968E+03  3.06454E+03  1.70644E+03  1.08382E+03  1.18137E+03 -1.19718E+03  1.94425E+03
