 $NMID ID='MM_0lb_SNR50_19hz_g45_75.RAW', FMTDAT='(8E13.5)'
 TRAMP=1., VOLUME=1. $END
  3.06852E+05 -1.71153E+03  3.39683E+05  2.52108E+05  8.86643E+04  3.40028E+05 -1.30701E+05  2.51488E+05
 -1.86666E+05  8.41712E+04 -1.18059E+05 -3.09335E+04 -3.59152E+03 -5.59289E+04  5.44917E+04 -1.63541E+03
  3.73014E+04  5.42193E+04 -1.56966E+04  7.27698E+04 -5.91222E+04  6.29625E+04 -8.11512E+04  3.15387E+04
 -7.68018E+04 -1.25659E+04 -5.72313E+04 -4.94710E+04 -1.09883E+04 -6.75320E+04  2.69421E+04 -4.27397E+04
  4.29361E+04  4.22582E+03  1.61594E+04  4.46992E+04 -3.41571E+04  5.04170E+04 -6.56833E+04  9.00630E+02
 -4.55500E+04 -5.39437E+04 -6.78158E+03 -7.73453E+04  3.38776E+04 -5.61918E+04  4.56510E+04 -1.63177E+04
  4.24349E+04  9.66103E+03  2.80150E+04  2.03747E+04  1.83424E+04  2.49924E+04 -2.79860E+03  2.34161E+04
 -2.00628E+04  1.56067E+04 -1.81430E+04 -5.63402E+03  8.05763E+02 -9.94445E+03  2.11216E+04  1.61003E+04
  5.93499E+03  3.40360E+04 -3.43971E+04  3.41639E+04 -5.81838E+04  7.24616E+02 -5.59562E+04 -3.74727E+04
 -1.39099E+04 -6.38550E+04  3.76567E+04 -3.97147E+04  5.87983E+04 -3.16699E+03  3.08706E+04  3.10603E+04
 -1.23622E+04  2.53681E+04 -3.02566E+04  1.33153E+04 -2.79618E+04 -8.12748E+03 -1.63353E+04 -9.84171E+03
 -8.54740E+03 -9.04815E+03 -7.79978E+02 -1.70263E+04  6.92849E+03 -2.11719E+04  1.53304E+04 -1.45140E+04
  1.27948E+04  3.72189E+02 -5.69152E+03  1.08559E+04 -2.00320E+04 -5.65014E+03 -1.08937E+04 -3.02498E+04
  1.79480E+04 -4.27533E+04  4.50917E+04 -1.81962E+04  4.49298E+04  1.76863E+04  1.60599E+04  3.78357E+04
 -1.43052E+04  3.33461E+04 -2.35123E+04 -1.53018E+03 -9.32487E+03 -2.37884E+04  1.95014E+04 -3.17708E+04
  3.78104E+04 -5.91879E+03  3.38210E+04  1.95746E+04  1.53820E+04  4.03137E+04 -9.21369E+03  4.38521E+04
 -3.06548E+04  2.45352E+04 -3.59188E+04  8.36385E+03 -3.95256E+04 -1.44781E+04 -2.38558E+04 -3.38807E+04
  9.59451E+03 -3.42046E+04  2.36667E+04 -1.00294E+04  2.46191E+04  9.29734E+03  2.40077E+03  1.96583E+04
 -1.08003E+04  8.03122E+03 -1.02955E+04 -7.40658E+03  5.31540E+03 -5.99903E+03  1.39387E+04  9.87809E+03
  1.51337E+04  2.26649E+04 -6.60294E+03  2.12444E+04 -2.37977E+04  5.64223E+03 -2.55868E+04 -5.38119E+03
 -1.58015E+04 -1.70209E+04 -3.12058E+03 -1.57041E+04  1.74789E+03 -1.45904E+04  1.11749E+04 -9.30911E+03
  2.29548E+04 -8.43374E+03  2.75826E+04  8.01983E+02  2.19265E+04  1.84963E+04  4.77958E+03  3.08047E+04
 -1.25261E+04  2.67465E+04 -2.37461E+04  6.88351E+03 -2.08212E+04 -1.33981E+04 -3.29004E+03 -1.44272E+04
  8.97750E+02 -8.32362E+02  7.96249E+02  7.05711E+03 -9.42622E+03  4.67513E+03 -1.25626E+04 -6.46905E+03
 -6.31378E+03 -1.17988E+04  6.42538E+03 -1.93886E+04  1.40554E+04 -9.78256E+03  1.71275E+04 -1.99163E+03
  6.24727E+03  1.16629E+04  2.31798E+03  1.85225E+04 -5.39808E+03  9.62658E+03 -1.47359E+04 -8.71001E+03
 -1.11971E+04 -1.79570E+04  5.60400E+02 -1.62788E+04  6.71736E+03 -1.66838E+04  1.31687E+04 -6.75614E+03
  1.78186E+04  3.84939E+03  6.88421E+03  5.69019E+03  6.07410E+03  1.01675E+03  7.64393E+03 -2.57876E+01
  1.58273E+04  4.90952E+03  1.59196E+04  1.47854E+04  8.43589E+03  2.47311E+04 -2.80576E+03  2.84777E+04
 -1.55383E+04  2.11424E+04 -2.41829E+04  1.32428E+04 -2.19644E+04  7.01134E+02 -2.42351E+04 -1.32423E+04
 -8.96488E+03 -1.90652E+04  7.94719E+03 -1.80751E+04  1.49353E+04 -7.55552E+03  1.22525E+04  2.05307E+03
  7.04053E+03  1.47290E+04 -1.05268E+04  8.68635E+03 -1.04996E+04  5.54091E+02 -9.30717E+03 -1.20214E+04
 -1.13180E+03 -1.52528E+04  2.50110E+03 -1.40055E+04  8.42638E+03  1.41315E+03 -1.15826E+03  8.79764E+03
 -7.34603E+03  2.88855E+02 -5.31152E+03 -2.91620E+03  5.67770E+03 -7.64120E+03  9.11584E+03 -7.53838E+03
  1.28990E+04 -3.86041E+03  1.40867E+04  3.21676E+03  1.14629E+04  7.83758E+03  1.25500E+03  1.25448E+04
 -3.30287E+03  1.48618E+04 -4.30671E+03  1.00878E+04 -1.52260E+04  3.13879E+03 -1.12573E+04 -3.38911E+03
 -2.83062E+03  2.30843E+03 -4.32649E+03  3.68606E+03 -2.66489E+03 -4.11285E+03 -6.26178E+03  4.64282E+03
 -1.00621E+04  4.50315E+02 -9.11737E+03 -6.24405E+03 -2.68638E+03 -1.09376E+04  3.04413E+03 -7.44041E+03
  4.27063E+03 -2.89320E+03  6.44583E+03  2.82200E+03  4.61202E+03  1.56286E+03  6.85822E+02  1.61740E+03
 -1.05753E+03 -3.41238E+03 -2.58245E+03 -4.28231E+03 -1.11490E+03 -7.48937E+03  5.76823E+03 -1.07190E+03
  1.19969E+04 -8.08546E+02  9.32447E+03  5.42280E+03 -5.85247E+02  1.13843E+04 -6.77071E+03  8.34715E+03
 -8.45370E+03  2.73598E+03  1.32083E+03 -2.49717E+03  2.54617E+03 -1.23302E+02  5.48127E+03 -1.65646E+03
  4.10657E+03  7.07132E+02  1.58307E+03  4.36174E+03 -2.62336E+03  5.27830E+03 -8.75363E+03 -2.03760E+03
 -5.59178E+03 -2.33546E+02 -2.40788E+03 -6.73721E+03  7.62979E+02 -1.84652E+03  3.03617E+03 -6.18085E+02
  3.62601E+03  3.32237E+03 -3.21724E+03  3.80057E+03 -1.42722E+03  3.19279E+03 -5.72072E+03 -2.21683E+03
 -6.59408E+03 -1.19970E+04  2.23373E+03 -5.89626E+03  8.85000E+03 -2.96426E+03  6.98150E+03  3.10578E+03
  4.00497E+03  6.65592E+03  5.43156E+02  9.99499E+03 -1.46775E+03  1.04328E+03 -6.09051E+03  1.98348E+03
 -7.60741E+03 -3.71110E+03  4.33386E+02 -5.55147E+03  6.06707E+03 -5.53014E+03  6.64195E+02 -5.08628E+02
 -4.00373E+01 -3.22919E+02  1.12538E+03  1.47707E+03 -2.44100E+03 -6.38080E+02 -4.03968E+02 -3.56829E+03
  4.79316E+03 -2.33044E+03  4.28400E+03 -1.94585E+02  5.93253E+03  4.83098E+03  6.09470E+03  8.41753E+03
 -5.86375E+02  4.42153E+03 -6.52655E+03  3.61092E+03 -1.00251E+04 -2.84326E+02 -8.36168E+03 -1.32435E+03
 -3.30219E+03 -4.99556E+03 -4.00465E+03 -4.36183E+03  4.88684E+03 -1.07045E+03  1.36102E+03 -6.22932E+03
  2.81996E+03 -3.17868E+03  7.48395E+02 -2.60249E+03  3.70161E+03  1.54410E+03  2.54614E+03  2.30071E+02
  5.77700E+02  1.85644E+03 -1.32534E+03  1.06502E+03  9.13387E+02  3.70748E+03 -5.45929E+03  5.87969E+03
 -5.88178E+02  1.18762E+03 -1.02189E+03 -2.27390E+03 -3.56572E+03 -6.33540E+03  3.20233E+03 -7.85738E+03
  7.97931E+03 -1.93247E+02  7.26408E+03  1.13537E+01  4.24588E+03  1.87924E+03  7.73412E+03  9.71187E+03
  2.34329E+03  5.65664E+03 -1.03888E+03  4.14116E+03 -1.66892E+03 -2.99753E+03 -3.06042E+03 -3.04636E+03
  2.98434E+03 -5.72258E+02 -4.82036E+03  4.95623E+03 -6.40780E+03  2.18228E+03 -3.13224E+03  1.73020E+01
 -8.12798E+02 -1.51050E+03  6.74494E+02 -1.91690E+03  2.10382E+03 -3.46406E+03 -4.21932E+02 -1.42100E+03
  5.89619E+03  7.22533E+02  1.40771E+03  1.41175E+03 -1.02909E+03  8.16848E+03  3.13569E+03  4.52840E+03
 -3.38809E+03 -7.28216E+02  2.12647E+03 -2.47775E+03 -2.67063E+02  2.40491E+02 -4.45433E+03 -4.08569E+03
  5.45792E+03 -4.09489E+02  1.88776E+03 -1.47277E+02 -2.28223E+03 -1.24016E+03 -2.76011E+03  4.53560E+02
  5.09333E+03  9.03532E+02 -1.04722E+03  7.15627E+02  2.44337E+03  9.51144E+02  2.41436E+03  5.39891E+02
 -3.38572E+03  1.98043E+03 -1.07406E+03  3.67066E+03  2.60876E+03  1.04391E+03 -5.80053E+03  3.90282E+02
 -2.72684E+03 -3.06070E+03 -1.62966E+03 -3.85325E+03  2.99597E+03 -6.49207E+03 -5.07872E+02  1.74111E+01
 -6.92475E+02  2.97045E+03  6.28622E+02  6.07830E+03  1.79918E+03  1.74950E+03  3.39237E+03  2.33385E+03
 -2.55325E+03 -1.08241E+03 -4.54826E+02 -1.13645E+03 -1.96381E+02 -1.45079E+02  2.45781E+03  1.58854E+03
 -6.58212E+02  1.56713E+03  4.02768E+03 -3.51992E+03  4.35708E+02  2.60175E+03 -1.67567E+03  3.88261E+03
 -1.25494E+03 -2.26568E+03  1.30745E+03  2.00882E+03 -8.99723E+02  3.85819E+03 -2.45725E+03  4.50751E+03
  2.42701E+02  3.81147E+03 -1.28857E+03 -8.07146E+01 -4.99122E+02 -5.73609E+03  3.02227E+03 -1.38043E+03
  2.12845E+03 -5.58507E+03  3.87226E+03  2.18265E+03  7.61936E+02 -1.66763E+03 -8.05649E+02  4.36144E+00
  3.69079E+02  2.38498E+03 -4.00942E+03  2.36943E+03 -2.50741E+03 -2.92593E+03  1.80509E+03 -3.43250E+03
 -1.24596E+01  7.42519E+02 -1.24787E+03  5.31140E+02  3.89886E+03  2.77707E+03  1.54140E+03 -1.05579E+03
 -1.59103E+03 -3.62805E+02  4.66232E+03  3.71750E+03 -3.14053E+03 -3.82625E+03  1.88687E+03 -1.21854E+03
  1.16642E+03 -2.32862E+03  1.85184E+03  7.54416E+02  1.05209E+03  3.64546E+03  4.16026E+03  1.25895E+03
 -1.69192E+02 -1.76299E+03 -2.00649E+03 -2.75076E+03 -4.94864E+03  2.27364E+03 -8.93049E+02  2.60595E+03
 -7.61160E+02 -3.98365E+02  2.05368E+03  4.15184E+03  1.21305E+03  3.27978E+03  2.27946E+03 -1.23645E+02
 -1.81490E+03 -3.12843E+02  7.35023E+02  1.26561E+03  1.28976E+03  2.06818E+03 -1.03202E+03  3.63596E+03
  1.21889E+02  7.09367E+02 -1.85804E+03  3.48700E+03  1.14069E+03  9.72243E+02  1.02315E+02 -1.18213E+03
  5.70486E+02 -2.59393E+03 -5.45813E+03  7.94882E+02 -2.86175E+03 -1.36732E+03  2.21430E+03 -2.55670E+03
  1.11188E+03 -2.17720E+03  5.65495E+03 -4.90987E+02  3.00490E+03 -1.85568E+02 -3.64972E+02  1.63033E+03
 -2.93402E+03 -1.49823E+03 -1.05941E+02 -1.47899E+03 -9.59012E+02  2.16858E+03 -1.02734E+03  2.19629E+03
  8.34679E+02 -7.30798E+02  7.48637E+02  7.63565E+02  3.63076E+03  1.53378E+03 -7.12166E+02 -1.10652E+03
  1.93843E+02 -8.61606E+02 -1.18021E+03  3.79905E+03  3.48495E+03  3.29589E+03 -1.44768E+03 -6.11377E+01
  9.86008E+02  1.72785E+03  2.04013E+03 -9.21851E+01  2.53045E+03  2.97222E+03 -2.04723E+03 -1.66872E+03
 -2.49983E+03 -1.25874E+01 -1.86695E+03 -1.55175E+03  4.08642E+03 -1.19670E+03  3.34584E+03  1.71261E+03
  8.11318E+02  4.97539E+03  5.71108E+02  1.70655E+03 -1.54008E+03 -2.98362E+03  1.79003E+02 -2.38970E+03
  3.80734E+03  3.79244E+02 -3.50626E+03  5.90846E+02 -4.68550E+03 -1.72775E+03  9.32658E+02 -8.41897E+01
  2.93844E+03  2.68866E+03  3.35604E+02  9.25636E+02 -1.72858E+03 -9.14180E+02 -1.87432E+03  5.95806E+03
  4.00597E+03 -4.19118E+03  5.97125E+02 -2.21721E+02  9.59412E+02 -2.47065E+03 -6.86230E+02  5.95377E+02
  2.38933E+03  4.10425E+03 -1.88054E+03 -3.22046E+03 -1.24526E+03  5.05954E+02  2.41615E+03  7.86749E+02
  2.55342E+03 -2.08002E+03 -1.50340E+03 -1.86201E+02 -2.07836E+03 -2.35970E+03  4.84721E+02 -2.89270E+03
 -2.39216E+03  7.04542E+02  2.95005E+03 -6.30612E+03  1.43398E+03  1.52448E+03 -1.38764E+03  1.27395E+03
  4.14334E+02  2.47570E+03 -5.74016E+02  7.73539E+02  1.16575E+03  1.49325E+03 -7.78200E+02 -5.32329E+03
