 $NMID ID='MM_0lb_SNR50_14hz_g40_77.RAW', FMTDAT='(8E13.5)'
 TRAMP=1., VOLUME=1. $END
  3.10127E+05 -3.92809E+02  3.38968E+05  2.52146E+05  8.51150E+04  3.37119E+05 -1.30452E+05  2.54322E+05
 -1.85999E+05  8.72164E+04 -1.07769E+05 -3.35084E+04 -7.20194E+02 -5.05861E+04  5.21681E+04 -6.12013E+03
  3.84984E+04  5.18013E+04 -1.58753E+04  7.24517E+04 -5.86118E+04  6.21518E+04 -8.85496E+04  3.16992E+04
 -8.42585E+04 -1.48279E+04 -5.85261E+04 -5.48412E+04 -1.69912E+04 -7.24978E+04  2.70236E+04 -5.21944E+04
  3.93939E+04  4.81134E+03  1.54756E+04  4.63602E+04 -3.39782E+04  4.73486E+04 -6.95848E+04  2.21332E+02
 -5.46035E+04 -5.95292E+04 -4.83935E+03 -7.89361E+04  3.36312E+04 -5.79467E+04  4.90891E+04 -1.72278E+04
  4.38722E+04  9.20272E+03  2.83568E+04  2.92854E+04  1.69461E+04  2.62873E+04 -1.69611E+03  2.47973E+04
 -2.44242E+04  1.44454E+04 -1.95715E+04 -6.33921E+03  1.47032E+03 -3.62494E+03  2.06613E+04  1.43132E+04
  1.00178E+04  3.19670E+04 -3.80955E+04  3.89421E+04 -6.34268E+04  2.48294E+03 -5.68075E+04 -4.11649E+04
 -1.29661E+04 -6.56674E+04  3.62541E+04 -4.46185E+04  5.51558E+04 -3.84123E+03  3.36762E+04  2.81831E+04
 -8.31705E+03  3.50888E+04 -2.52858E+04  1.51176E+04 -3.10634E+04 -5.38432E+03 -1.22619E+04 -1.57032E+04
 -1.00338E+04 -1.42470E+04  8.45825E+01 -1.90371E+04  8.93127E+03 -2.70265E+04  1.45472E+04 -1.62666E+04
  1.42911E+04  5.09603E+03 -1.06052E+04  1.02829E+04 -2.67324E+04 -8.05798E+02 -7.82676E+03 -3.05161E+04
  1.82945E+04 -4.43312E+04  4.55802E+04 -2.23846E+04  4.49678E+04  1.78383E+04  1.01703E+04  4.49102E+04
 -1.28736E+04  3.27832E+04 -2.26331E+04 -2.77771E+03 -1.16674E+04 -2.72471E+04  1.82522E+04 -3.42376E+04
  4.51802E+04 -8.96633E+03  3.90256E+04  2.23808E+04  1.86856E+04  4.31736E+04 -7.42235E+03  4.34763E+04
 -3.05924E+04  3.23824E+04 -3.88749E+04  8.51505E+03 -4.27934E+04 -1.64332E+04 -2.27112E+04 -3.57251E+04
  1.07071E+04 -3.81916E+04  3.25760E+04 -1.27325E+04  3.12906E+04  1.05083E+04  4.82171E+03  2.24463E+04
 -1.78991E+04  1.17668E+04 -1.03921E+04 -1.05624E+04 -1.58974E+02 -1.31444E+04  1.44450E+04  6.51206E+03
  1.62269E+04  2.12614E+04 -5.57971E+03  2.23185E+04 -2.49803E+04  1.40643E+04 -2.35910E+04 -3.15864E+03
 -2.49317E+04 -1.57853E+04 -8.06264E+03 -2.19235E+04  5.71101E+03 -1.83449E+04  1.86654E+04 -1.37002E+04
  2.53543E+04 -1.00174E+04  2.79899E+04  4.72530E+03  2.43640E+04  1.80803E+04  1.41304E+03  3.11610E+04
 -1.88005E+04  3.11004E+04 -2.62072E+04  1.12761E+04 -1.96469E+04 -6.57884E+03 -3.15237E+03 -1.41832E+04
 -6.34826E+03  1.51292E+02 -2.20943E+03  7.59648E+03 -1.66836E+04  3.68753E+03 -1.64751E+04 -9.03456E+03
 -7.67480E+03 -1.71820E+04  8.97518E+03 -2.28062E+04  1.48030E+04 -1.92730E+04  1.81450E+04 -1.75927E+03
  1.07643E+04  1.09626E+04 -3.19487E+03  1.94273E+04 -1.69916E+04  7.98513E+03 -1.74601E+04 -5.47769E+03
 -1.10267E+04 -1.53044E+04  1.63911E+02 -2.47915E+04  8.24089E+03 -1.71990E+04  1.64020E+04 -6.15989E+03
  1.83312E+04  5.09752E+01  8.38273E+03  6.19706E+03  7.28966E+03  6.81352E+03  8.86592E+03 -8.41584E+03
  1.97055E+04  3.75347E+02  1.91415E+04  1.46593E+04  1.28095E+04  2.92485E+04 -6.83499E+03  3.51344E+04
 -1.72019E+04  2.88180E+04 -3.34791E+04  1.60898E+04 -3.33300E+04 -5.01931E+03 -3.20928E+04 -1.79017E+04
 -1.12981E+04 -2.36293E+04  8.87091E+03 -2.19720E+04  2.27462E+04 -1.42362E+04  1.89972E+04  1.27595E+04
  4.94325E+03  1.11172E+04 -7.17554E+03  1.25833E+04 -1.07159E+04  2.47003E+03 -1.12802E+04 -1.17938E+04
 -6.49659E+02 -1.88354E+04  7.42317E+03 -1.32168E+04  6.66794E+03  4.69690E+02  5.83487E+02  5.78680E+03
 -4.05696E+03  2.72487E+03 -6.66416E+03 -6.49820E+03 -5.11314E+02 -1.49931E+04  1.07672E+04 -1.03666E+04
  1.71268E+04 -9.99021E+03  1.66535E+04  4.08831E+03  1.70627E+04  1.35152E+04  1.00027E+04  2.09229E+04
 -5.28722E+03  2.11433E+04 -1.34352E+04  1.53892E+04 -1.66238E+04  5.88504E+03 -1.16374E+04 -7.16164E+03
 -6.87393E+03 -4.28126E+03  2.02455E+03 -2.27865E+03  3.15115E+03  5.04532E+03 -4.77974E+03  4.12317E+03
 -1.59626E+04 -1.54567E+03 -1.24689E+04 -3.38290E+03 -9.88137E+02 -1.30654E+04  8.57035E+03 -1.06663E+04
  1.29659E+04 -6.48760E+03  3.96115E+03  1.94707E+03 -4.14409E+03  2.66178E+03 -1.47841E+03  1.75911E+03
 -9.21718E+03 -1.01660E+04  1.70766E+03 -1.12166E+04  7.74985E+03 -1.45961E+04  1.45341E+04 -5.23785E+03
  1.80770E+04  7.23396E+03  7.10484E+03  1.05017E+04  3.56320E+03  1.02729E+04 -6.63837E+03  1.08962E+04
 -8.19432E+03 -1.68808E+02 -8.61944E+03 -3.64868E+03  1.15682E+03 -4.45162E+03  8.99657E+03 -4.10746E+03
  5.53299E+03  7.00868E+03 -1.82562E+03  9.48907E+03 -4.04046E+03  1.34076E+04 -1.09871E+04  6.22116E+03
 -8.42665E+03 -5.02456E+03 -2.48174E+01 -9.93198E+03  5.62723E+03 -4.16514E+03  8.44276E+03  1.09668E+03
 -3.57228E+02  4.77406E+03 -6.10133E+03  4.85866E+03 -4.75532E+03  3.81410E+03 -4.77260E+03 -2.03498E+02
 -2.31066E+03 -1.28675E+04  3.00752E+03 -1.14229E+04  9.84365E+03 -6.13903E+03  1.17383E+04 -2.40450E+03
  1.00967E+04  8.61203E+03 -8.41053E+02  9.69216E+03 -8.54006E+03  8.71608E+03 -9.23120E+03  2.49193E+03
 -5.76887E+03 -6.78876E+03  3.88050E+03 -8.70656E+03  2.13803E+03 -1.91358E+03  9.36743E+03 -1.50115E+03
  3.77174E+03 -2.40167E+02  3.90390E+03  2.17636E+03  9.31038E+02  3.04055E+03 -5.00066E+03 -5.69019E+03
  9.72327E+03  6.97941E+02  8.60562E+03  1.45020E+03  7.50779E+03  2.75395E+03  9.75682E+03  1.12490E+04
 -1.88766E+03  1.17391E+04 -1.49386E+04  5.79475E+03 -1.14529E+04 -1.57899E+02 -1.40880E+04 -5.46424E+03
 -8.00164E+03 -1.40992E+04  2.57274E+03 -9.56778E+03  4.63805E+03 -5.63230E+03  5.33154E+03 -2.83877E+03
  2.62640E+02 -1.60118E+03  4.58070E+03 -6.89958E+03  3.81405E+03 -4.02271E+03  3.95093E+03  4.76327E+02
  9.01880E+03  2.61497E+03  2.63865E+03  7.76491E+03 -2.71645E+02  1.77315E+03 -2.62061E+03  4.49363E+03
 -1.21997E+04 -4.98746E+01 -7.05958E+03 -1.07462E+04  7.28784E+02 -7.46243E+03  5.76032E+03 -9.33640E+03
  7.36802E+03 -1.96687E+01  1.01179E+04 -1.76721E+03  6.90958E+03  6.27504E+03  2.16507E+03  1.23459E+04
 -3.44862E+03  8.77214E+03 -8.28439E+03  2.28219E+03 -3.60800E+03 -4.09510E+03  1.48094E+03 -1.82715E+03
  1.72856E+03 -7.54592E+03 -2.31608E+03  7.36139E+03 -1.43564E+03  1.34056E+03 -9.14287E+03 -1.13226E+03
 -2.63692E+03 -2.84049E+03 -7.08409E+02 -6.56054E+03  3.36750E+03 -1.05516E+04  1.06767E+04 -1.32506E+03
  9.51834E+03  7.54331E+03 -1.40908E+02  6.74582E+03 -3.41387E+03  6.28695E+03 -3.34436E+03  1.46624E+03
 -6.94673E+03  1.48474E+03 -7.42642E+03 -2.79638E+03 -2.32439E+02 -7.55609E+03  2.80733E+02 -4.75984E+03
  1.50613E+03  3.95481E+03  7.82894E+03 -2.63424E+03  4.46034E+03  3.04904E+03  2.07092E+03 -1.29657E+03
 -5.69929E+02 -2.04403E+03  9.53219E+02  4.24468E+03  5.03951E+03  8.31554E+03  3.05001E+03  8.89502E+03
 -2.05415E+03  4.09966E+03 -4.50455E+03  6.47013E+03 -9.99780E+03  5.22270E+03 -4.74090E+03 -2.34334E+03
 -3.86021E+03 -1.03558E+04 -3.03695E+03 -6.25113E+03  1.91647E+03 -9.43537E+03  6.88929E+03  4.29669E+02
  5.54694E+03 -3.14595E+02  1.00690E+03  1.94691E+03  1.79873E+03  3.86954E+03 -9.98997E+02 -2.47735E+03
 -3.70372E+03 -1.81051E+03  2.73496E+03 -4.67075E+03  1.71879E+03  1.56501E+03  1.52066E+03  3.77728E+03
  8.44754E+02  6.54139E+03 -2.55680E+03  1.21939E+03 -4.66383E+02  3.12250E+03 -3.66129E+02  3.02814E+03
 -4.37973E+03 -1.39775E+03  3.89157E+03 -1.64569E+03  1.28919E+03  1.26993E+03 -1.73638E+03  6.82231E+03
 -1.50502E+03  2.84390E+03 -4.90829E+03 -2.13957E+03 -2.83499E+03 -3.67044E+03 -6.02728E+03 -3.17019E+03
  3.13912E+03 -1.81892E+03  3.38165E+03 -1.00312E+03  2.57398E+03  6.99166E+03  2.79169E+02  2.43763E+03
 -1.46161E+03  1.59387E+03 -5.44675E+02 -1.07812E+03  2.20297E+02  6.78868E+02  1.53958E+03  1.28380E+03
  5.92716E+02  9.52407E+02 -4.02825E+02 -8.56427E+02 -1.54103E+03  1.52812E+03  4.62373E+03  2.67922E+03
  4.80114E+01  1.29332E+03 -6.49523E+03 -3.14355E+03  3.66072E+02  2.46951E+02 -2.30644E+03 -5.74603E+03
  5.35668E+03  3.62573E+03  4.43613E+03  3.22439E+03  4.01671E+03  1.22515E+03 -5.56153E+02  1.05919E+03
 -3.96530E+03  8.83392E+02 -2.81651E+03  7.39328E+02  3.72440E+02  2.83741E+03 -4.70842E+02 -2.47369E+03
  1.43429E+03 -3.24293E+03  4.24350E+03  4.34321E+03  2.70240E+03  2.12740E+03 -3.66537E+03  4.77665E+03
  2.50401E+02  8.24780E+02  1.37135E+03 -1.54986E+03 -1.96547E+03 -2.48355E+03 -1.51384E+03  7.73637E+02
 -2.80714E+03 -5.09844E+02  7.49607E+02  3.73026E+02 -3.65751E+03  4.24780E+02 -2.81750E+03 -3.28262E+03
  1.68219E+03 -3.03760E+03  1.45549E+03 -7.79496E+03  2.68547E+03 -4.87307E+03  7.88894E+03 -4.77798E+02
  5.98586E+03  3.15506E+03  7.11366E+03  1.68839E+03  2.00629E+03  2.14358E+03 -2.43980E+03  7.74068E+02
 -2.08627E+03  2.96848E+03 -2.46918E+02  1.89814E+03  4.69049E+03 -1.29565E+03 -2.37282E+03 -3.91199E+02
 -6.28510E+03  2.36243E+03  2.81396E+03 -2.56321E+03  5.43486E+03 -4.60218E+03  1.87396E+03 -4.68178E+02
 -1.42327E+03 -2.85833E+03 -7.50917E+02 -1.51190E+03  4.65335E+03  4.45803E+03 -9.18008E+01  7.12444E+03
 -3.29228E+03  2.45588E+03 -1.09656E+03  3.05481E+03 -6.88901E+03  3.04238E+01 -1.65368E+03  3.00302E+02
 -1.37530E+03 -2.71689E+03  3.01861E+03  6.75845E+02  5.49716E+03 -4.49544E+02  2.21619E+03 -1.29784E+03
  5.61761E+03  3.69646E+02 -1.81303E+03  2.02544E+03 -3.48078E+02 -6.34179E+03  2.09205E+03  3.71459E+03
 -1.16882E+02 -3.73033E+02  2.60576E+03  3.64351E+03  3.43769E+03  1.87504E+03  4.22698E+02  9.41528E+03
  1.82024E+03 -9.02707E+02 -4.46996E+03  5.94955E+02 -3.85984E+03 -1.40464E+03 -1.55400E+03 -1.52046E+03
  3.20793E+02 -3.26145E+03  2.82411E+03 -2.00306E+03  6.08324E+03  4.79695E+03  2.61657E+03  3.11095E+03
 -1.84480E+03  6.23081E+03  5.95890E+02 -4.94755E+03  2.83371E+02  4.29111E+03  8.37199E+02  7.36073E+03
 -3.89177E+03 -3.69138E+03  1.71911E+03  3.73149E+03  7.79916E+02 -7.50492E+02 -2.17269E+03  3.58904E+03
 -3.56760E+03 -1.52208E+03 -2.65351E+03 -3.67835E+03  3.75032E+03 -1.67086E+03  2.09487E+03 -1.81766E+01
  8.87079E+03 -1.78533E+03 -3.09705E+03  3.67031E+03 -5.21166E+03  6.56623E+03 -2.82690E+03 -3.32965E+03
