 $NMID ID='MM_0lb_SNR50_17hz_g40_70.RAW', FMTDAT='(8E13.5)'
 TRAMP=1., VOLUME=1. $END
  3.12039E+05 -9.48625E+02  3.33996E+05  2.50471E+05  8.23202E+04  3.33456E+05 -1.33581E+05  2.49627E+05
 -1.92712E+05  7.68706E+04 -1.14332E+05 -3.23010E+04 -1.78696E+03 -5.03416E+04  5.21674E+04 -1.18930E+03
  3.93323E+04  5.28814E+04 -1.41937E+04  8.19867E+04 -6.28587E+04  6.17347E+04 -7.93314E+04  3.41558E+04
 -7.94993E+04 -9.42556E+03 -6.03753E+04 -5.06488E+04 -1.42263E+04 -6.91944E+04  2.93727E+04 -4.83047E+04
  3.79501E+04  2.49557E+03  1.65729E+04  4.48044E+04 -3.21591E+04  4.53370E+04 -6.79054E+04  7.89923E+02
 -5.22147E+04 -5.71604E+04 -3.48987E+02 -7.80499E+04  3.32766E+04 -5.14852E+04  4.34556E+04 -1.31070E+04
  4.08222E+04  1.26893E+04  3.14421E+04  2.77197E+04  1.37794E+04  2.85425E+04 -6.95549E+03  2.22248E+04
 -2.05216E+04  1.22074E+04 -1.67939E+04 -3.98674E+03  2.64760E+03 -8.16279E+03  1.78233E+04  1.09186E+04
  6.54005E+03  3.07314E+04 -2.86762E+04  3.50252E+04 -5.85849E+04 -1.95452E+03 -5.86565E+04 -3.74177E+04
 -1.54853E+04 -6.01634E+04  3.78609E+04 -4.50468E+04  5.22752E+04 -5.13549E+03  3.08449E+04  2.97801E+04
  1.20478E+03  3.26426E+04 -2.60185E+04  1.24927E+04 -2.79017E+04 -7.80265E+03 -1.49366E+04 -8.75410E+03
 -7.04384E+03 -7.77596E+03  7.86380E+02 -1.50247E+04  5.31660E+03 -2.22326E+04  1.68405E+04 -1.47611E+04
  1.02864E+04  6.04171E+03 -9.55227E+03  1.24621E+04 -2.20828E+04  2.67233E+03 -4.34121E+03 -3.39590E+04
  2.18412E+04 -4.00475E+04  4.70720E+04 -1.83698E+04  3.78537E+04  1.51125E+04  1.39575E+04  3.75188E+04
 -1.57514E+04  3.25010E+04 -2.44772E+04  1.16661E+03 -4.75071E+03 -2.96213E+04  2.06085E+04 -3.70260E+04
  3.36444E+04 -1.03903E+04  3.80087E+04  2.11206E+04  1.49603E+04  4.38144E+04 -9.99531E+03  4.45684E+04
 -2.74201E+04  2.75373E+04 -3.33854E+04  1.21165E+04 -4.12694E+04 -1.80513E+04 -2.40344E+04 -3.35891E+04
  4.66817E+03 -3.68144E+04  3.21790E+04 -1.21469E+04  2.47942E+04  1.36240E+04  3.48844E+03  1.66311E+04
 -1.63267E+04  7.80959E+03 -5.74612E+03 -7.46957E+03  6.88651E+03 -8.59887E+03  1.41023E+04  4.18930E+03
  1.40009E+04  2.14438E+04 -1.07842E+04  2.33139E+04 -2.28668E+04  1.39312E+04 -2.39092E+04 -7.32655E+03
 -1.61788E+04 -1.74092E+04 -4.85705E+03 -1.73727E+04  1.93390E+03 -1.61306E+04  8.95989E+03 -1.63493E+04
  1.95868E+04 -1.27460E+04  3.17155E+04  3.62392E+03  2.09074E+04  1.65271E+04  3.63412E+03  3.52191E+04
 -1.79697E+04  3.12001E+04 -2.45147E+04  1.05300E+04 -1.85500E+04 -9.60290E+03 -4.28752E+03 -1.36342E+04
  3.41387E+03 -4.07007E+03 -3.77305E+03  3.61175E+03 -1.13745E+04  3.35813E+03 -1.10605E+04 -5.54804E+03
 -7.62288E+03 -1.61160E+04  1.22370E+03 -1.75274E+04  1.44231E+04 -1.67910E+04  1.94991E+04 -8.13700E+02
  8.50451E+03  8.40813E+03  1.09778E+03  1.81571E+04 -7.42112E+03  7.21987E+03 -1.37838E+04 -3.40803E+03
 -1.39155E+04 -1.53523E+04  3.59035E+02 -1.89728E+04  6.20106E+03 -1.52624E+04  1.57965E+04 -6.83045E+03
  1.41193E+04 -1.51420E+03  8.07186E+03  2.70047E+03  8.48492E+03  3.74444E+03  9.46847E+03 -2.57002E+03
  1.58263E+04  5.48059E+03  1.57885E+04  1.28555E+04  1.13678E+04  2.73636E+04 -7.08952E+03  2.81682E+04
 -1.62484E+04  2.16499E+04 -2.93000E+04  1.02545E+04 -2.61203E+04 -2.60711E+03 -2.24304E+04 -1.77449E+04
 -1.31453E+04 -1.91391E+04  3.87474E+03 -1.63047E+04  2.19936E+04 -1.02448E+04  1.21756E+04  3.61356E+03
  7.84409E+03  1.24783E+04 -6.11394E+03  6.96521E+03 -1.47987E+04  1.49805E+03 -9.62497E+03 -5.96406E+03
 -4.53259E+03 -1.51551E+04  8.40157E+03 -9.90154E+03  8.28791E+03 -1.04228E+03  4.56208E+03  2.47143E+03
 -2.86382E+03  5.38698E+02  1.75836E+03 -4.97443E+03  1.78155E+03 -1.20452E+04  7.40157E+03 -1.17896E+04
  1.78749E+04 -8.16357E+03  1.74184E+04  3.17163E+03  1.25217E+04  9.56181E+03  6.44432E+03  1.25602E+04
 -4.29203E+03  1.53589E+04 -1.18307E+04  8.62647E+03 -1.67554E+04 -1.09133E+03 -1.03180E+04 -2.70029E+03
 -7.64426E+02 -1.93705E+03  4.12986E+02  3.70194E+03 -1.03336E+03  5.01726E+01 -1.45145E+03  3.12720E+03
 -8.82580E+03  2.07069E+03 -9.42561E+03 -8.81241E+03 -8.61959E+03 -1.14421E+04  7.95804E+03 -1.32332E+04
  9.30427E+03 -6.36654E+02  4.90783E+03  5.44138E+03  6.24861E+02  2.18212E+03 -8.53898E+03 -8.09582E+02
 -3.85602E+03 -6.15466E+03  1.22578E+03 -9.53922E+03  6.43254E+03 -8.53061E+03  1.07186E+04  3.17688E+02
  1.19353E+04 -2.04380E+03  1.20783E+04  9.72618E+03  2.28851E+01  8.41857E+03 -4.33018E+03  7.93671E+03
 -3.35143E+03 -1.53247E+03 -2.59461E+03 -3.73042E+03  4.65150E+03 -2.90059E+03 -1.54276E+03 -1.01649E+03
  4.35641E+03  5.11946E+03 -2.26337E+03  6.80520E+03 -1.91597E+03  1.94658E+03 -5.53365E+03  4.35944E+03
 -6.43068E+03 -8.45520E+03 -2.03680E+03 -5.37061E+03  3.18215E+03 -6.44931E+03 -9.53809E+02  2.69553E+03
  2.57255E+03  4.99243E+03 -2.66429E+03  3.07908E+03 -3.77484E+03  2.33875E+03 -3.22300E+03 -2.42315E+03
 -3.92918E+03 -7.00328E+03  1.07763E+03 -8.42402E+03  6.58208E+03 -7.43292E+03  7.85154E+03  2.18289E+03
  6.81155E+03  2.64538E+03  1.50136E+03  1.09205E+04 -5.54176E+03  6.65546E+03 -6.91918E+03  3.56156E+03
 -5.28297E+03 -2.99104E+03 -3.93950E+03 -7.73999E+03 -1.57310E+03 -4.84600E+03  2.91091E+03 -1.88766E+03
  1.17702E+02  1.68884E+03 -2.31644E+03  2.43043E+03 -1.13072E+03 -3.88863E+02  1.10023E+03 -3.95532E+03
  6.19378E+03  1.29737E+03  1.10349E+04  6.35548E+02  7.20844E+02  1.40261E+03  8.32286E+03  8.19238E+03
 -1.09456E+03  9.38434E+03 -1.19019E+04  1.12518E+04 -8.59928E+03  5.00126E+03 -7.93442E+03 -3.36654E+03
  5.12547E+02 -9.05745E+03  1.51481E+03 -7.30486E+03  3.51017E+03 -3.93144E+02  6.04434E+03 -1.31300E+03
 -1.02422E+03  2.09634E+03  2.34521E+03 -3.20643E+03  5.54177E+03 -1.71372E+03 -9.40572E+02  1.35186E+03
  5.90593E+03  6.38202E+02  1.97499E+03  4.45038E+03 -1.02796E+03  6.19534E+02 -4.47119E+03  1.61301E+03
 -4.26771E+03 -5.42636E+02  5.07153E+02 -4.93645E+03 -2.37578E+03 -1.49500E+03  3.65481E+03 -7.06573E+03
  7.90955E+03 -8.76053E+02  4.97908E+03  3.65931E+03  5.39486E+03  5.87497E+03  8.41361E+02  7.27738E+03
  6.93802E+01  7.54715E+03 -1.70290E+03  1.54712E+03 -3.57566E+03 -1.86992E+03  2.11022E+03  2.12866E+02
 -1.61337E+03  2.15593E+03 -4.19990E+03  3.12458E+02 -5.09463E+03  2.17431E+03 -6.49142E+03  2.76998E+03
 -1.46523E+03 -3.99885E+03  1.98821E+03 -6.29169E+03 -1.08684E+03 -4.54797E+03  1.42483E+03 -1.45802E+02
  1.06465E+04  2.52462E+03  4.68154E+03  8.21307E+02 -3.44439E+02  8.29092E+03 -6.59972E+03  5.02616E+03
 -4.10758E+03  5.25341E+03 -5.98730E+03 -8.06810E+02 -2.21795E+03 -5.04124E+03  1.57458E+03 -5.31629E+03
  3.39272E+03 -3.35392E+03 -2.29283E+03 -1.60861E+03 -1.63971E+03  3.39356E+03  1.27033E+03  2.13914E+03
  2.13235E+02  4.74225E+03  3.07488E+01  1.42119E+03  7.40328E+02 -7.84394E+02  2.99689E+03 -1.74150E+03
  4.69091E+02  2.38736E+03  2.13014E+03  2.03264E+03 -2.72441E+03  2.94128E+02 -5.69371E+03 -5.37066E+03
 -6.54140E+01 -6.48170E+03 -1.33362E+03 -1.01047E+04 -1.74089E+03 -7.54964E+02  6.19922E+03  1.39041E+03
 -2.00001E+01  7.04285E+02  8.69892E+02  4.67247E+03  7.34252E+01  3.40981E+03 -5.75056E+02 -1.29115E+03
 -3.19348E+03 -2.98448E+03 -1.15029E+03 -1.11195E+03  4.96433E+03  2.70396E+03  6.07809E+02  5.06739E+03
 -3.57044E+03 -1.98053E+03  6.93025E+02 -1.77799E+03  1.97784E+03  2.76343E+03 -3.18765E+02 -1.57410E+03
  4.15027E+03  3.90211E+02  5.77743E+03  1.09698E+03 -7.93857E+02  6.36232E+03  8.28768E+02  6.55465E+02
 -2.77489E+03  4.16202E+03 -3.95605E+03 -2.90845E+03 -3.53884E+03  4.45460E+02  8.12978E+01  5.74335E+03
 -4.06226E+03 -3.32143E+03 -2.44913E+03  1.78800E+03 -2.97887E+03  2.67412E+03  1.49843E+03  4.59407E+03
 -5.54648E+03 -9.39222E+02  1.63473E+03 -3.36137E+03 -1.19342E+03 -3.55020E+03  3.25548E+03 -6.91897E+03
  2.81285E+03 -5.57396E+02 -2.83908E+03 -6.51579E+03  9.20113E+02  7.02611E+02 -4.40315E+03 -5.81071E+02
  1.21600E+03  2.16483E+03  2.26162E+03 -4.91158E+03  5.96122E+03 -1.21329E+02  6.30558E+03 -3.89140E+03
 -1.42256E+02  4.46619E+03  3.36934E+03 -4.83087E+03  5.36800E+03  3.25095E+03 -4.80052E+03  2.19566E+03
 -2.47985E+03 -1.04440E+03 -4.86316E+02 -2.02734E+03 -3.29476E+03 -5.02816E+03 -3.57476E+02 -2.17125E+03
 -3.30835E+02 -2.00119E+03  1.63876E+03  4.83674E+02  1.56587E+03  2.96053E+03 -6.83480E+03  2.29304E+03
  1.35413E+03  1.69783E+03  4.80738E+02 -2.14677E+03 -9.59256E+02  5.53880E+02 -7.98880E+02  1.97645E+03
 -5.32878E+02  6.41718E+02  1.39681E+03  2.55144E+03  1.34330E+02  1.31831E+02  4.54850E+02  2.50862E+02
 -1.02755E+03 -5.26708E+03  1.58637E+01 -5.28384E+02 -1.49984E+03  9.63378E+02  8.95788E+03 -2.33783E+03
  2.06386E+02  2.02674E+03  5.45042E+02 -1.97237E+03  1.45276E+03  6.42261E+03 -4.09511E+03 -1.28827E+03
 -3.14187E+03  3.18599E+03 -4.03021E+03  5.01579E+02 -6.06088E+02 -2.23036E+03 -1.66404E+03  6.78062E+02
 -2.49479E+03  9.68721E+02 -1.37131E+03  5.65384E+03  1.52718E+03  1.16021E+02 -1.42535E+03  3.28808E+02
  2.04197E+03 -4.28800E+03 -1.58691E+03  2.06883E+03 -1.12364E+03  1.25868E+03  1.38265E+03  6.42697E+03
 -9.65546E+02 -1.18520E+03 -2.35616E+03  5.17604E+02 -2.94065E+03 -3.09988E+03 -1.48347E+02 -3.30199E+03
 -1.37242E+03 -6.43794E+02 -2.42955E+03 -5.82101E+03  2.21356E+03 -1.37271E+02 -5.06875E+03  2.37512E+02
 -7.82229E+02  3.35728E+03  4.08224E+03  7.05074E+02  3.87533E+03  1.76071E+03  1.96659E+03  5.63334E+00
  3.61531E+03 -3.75952E+03 -4.14808E+03 -2.31644E+03  4.73896E+03  1.67345E+03  2.33591E+03  5.50968E+03
  1.35110E+03 -1.48129E+03 -4.50980E+02  1.65569E+03 -5.27216E+03  1.07956E+03  1.70790E+03 -1.97556E+03
  1.37759E+01 -1.70916E+03  3.01515E+03 -3.02351E+03  1.93452E+03 -2.51263E+02  4.63891E+03  1.65093E+03
  5.48722E+03  2.27780E+03 -1.82991E+03  8.49728E+02 -1.18788E+03  2.68981E+03 -3.86985E+03  1.27558E+02
 -2.20156E+03 -2.38678E+03 -2.50317E+03  8.73596E+02  3.71508E+02  4.23996E+02  2.75162E+03 -4.66085E+03
 -8.83529E+02  7.28632E+02  2.73208E+03 -6.99810E+02 -6.11578E+02 -3.98858E+03 -1.54552E+02  1.54872E+03
  4.76877E+03 -2.92541E+03  4.29398E+03 -4.96593E+02 -1.91905E+02  1.61865E+03 -5.38485E+03 -2.78604E+03
