 $NMID ID='MM_0lb_SNR50_7hz_g40_56.RAW', FMTDAT='(8E13.5)'
 TRAMP=1., VOLUME=1. $END
  3.06135E+05  4.86767E+03  3.42333E+05  2.49345E+05  8.58899E+04  3.36202E+05 -1.29718E+05  2.55558E+05
 -1.85654E+05  8.13959E+04 -1.04544E+05 -3.29645E+04  3.75941E+03 -5.21227E+04  4.93389E+04  7.63947E+02
  3.46119E+04  5.07829E+04 -1.45679E+04  7.53423E+04 -5.95235E+04  5.98633E+04 -8.21650E+04  3.94638E+04
 -8.72160E+04 -7.19329E+03 -6.29876E+04 -4.86228E+04 -1.08970E+04 -7.05652E+04  2.42883E+04 -4.85516E+04
  3.81179E+04  2.95069E+03  1.74942E+04  4.53943E+04 -3.05940E+04  4.59530E+04 -6.92902E+04  7.14937E+03
 -4.86724E+04 -6.67237E+04 -7.39756E+03 -8.32332E+04  3.64854E+04 -5.79558E+04  5.05864E+04 -1.71998E+04
  3.75053E+04  1.69055E+04  2.97807E+04  1.98855E+04  1.58589E+04  2.98888E+04 -8.53641E+03  3.19793E+04
 -2.23666E+04  8.47018E+03 -1.42739E+04 -8.62793E+03  7.69013E+03 -7.35851E+03  1.85434E+04  1.46894E+04
  1.03714E+04  3.10438E+04 -2.89771E+04  3.16595E+04 -7.01922E+04  1.25073E+03 -5.46022E+04 -4.32101E+04
 -1.52495E+04 -6.22622E+04  3.88880E+04 -5.12366E+04  6.22142E+04  6.33443E+03  3.82437E+04  3.40207E+04
 -2.85474E+03  3.87696E+04 -3.26088E+04  1.98016E+04 -3.41230E+04 -3.50152E+03 -1.04883E+04 -7.94109E+03
 -1.28479E+04 -1.76383E+04 -2.08942E+03 -1.37486E+04  1.43914E+04 -2.93154E+04  2.08200E+04 -1.10399E+04
  8.38736E+03  6.15135E+03 -1.27225E+04  1.37494E+04 -2.96280E+04 -7.29981E+03 -1.54665E+04 -4.06558E+04
  2.29624E+04 -4.84268E+04  5.07277E+04 -1.59558E+04  4.42316E+04  2.59568E+04  2.12831E+04  4.61992E+04
 -1.72582E+04  3.66544E+04 -3.20491E+04  1.10047E+03 -7.83481E+03 -2.71439E+04  2.31068E+04 -3.85059E+04
  3.91551E+04 -7.49082E+03  3.93633E+04  2.67974E+04  2.03044E+04  5.01628E+04 -1.53078E+04  5.38024E+04
 -3.81641E+04  3.47091E+04 -4.69421E+04  7.25830E+03 -4.67670E+04 -1.60328E+04 -3.04366E+04 -4.18922E+04
  3.54917E+03 -4.78979E+04  2.93456E+04 -8.91556E+03  3.63722E+04  1.06193E+04  4.99465E+03  2.10134E+04
 -1.43660E+04  1.26518E+04 -7.15001E+03 -5.59686E+03  7.41420E+03 -3.91727E+03  2.21662E+04  6.29343E+03
  1.85497E+04  2.19203E+04 -6.15361E+02  2.98120E+04 -1.64143E+04  1.24086E+04 -3.42973E+04 -4.99103E+03
 -2.11786E+04 -1.52660E+04 -6.48085E+03 -2.19683E+04 -1.39440E+03 -2.82276E+04  2.22547E+04 -2.14811E+04
  3.47396E+04 -1.18625E+04  4.01005E+04  1.70802E+03  2.06784E+04  2.64772E+04 -6.47085E+02  3.79158E+04
 -1.66998E+04  3.49453E+04 -3.21642E+04  1.57282E+04 -2.08753E+04 -1.23403E+04 -1.38539E+04 -7.81391E+03
  1.29328E+03  1.17045E+03 -1.55330E+04  6.99161E+03 -1.41259E+04  5.31466E+03 -2.22373E+04 -1.13658E+04
 -1.97096E+04 -2.75738E+04  6.30146E+03 -2.79736E+04  2.16032E+04 -2.20387E+04  2.02860E+04 -1.14923E+03
  1.00311E+04  1.11777E+04  3.88852E+03  2.76106E+04 -1.66788E+04  1.39585E+04 -2.84355E+04  1.67360E+03
 -6.45531E+03 -1.58553E+04 -1.15189E+03 -2.36011E+04  1.08249E+04 -2.77977E+04  2.73855E+04 -1.22676E+04
  2.73500E+04 -3.09220E+03  2.09494E+04  2.61615E+03  8.67459E+03  1.10090E+04  1.53734E+04  6.94832E+03
  2.27548E+04  1.92032E+03  2.43094E+04  1.70608E+04  1.89987E+04  3.66771E+04 -4.36477E+03  4.31741E+04
 -3.04555E+04  3.98783E+04 -5.16137E+04  1.83143E+04 -4.74521E+04 -2.69141E+03 -4.09024E+04 -2.12998E+04
 -1.58136E+04 -4.40587E+04  1.07718E+04 -3.49493E+04  3.07575E+04 -1.15350E+04  2.43152E+04  1.31539E+04
  1.42108E+04  1.72207E+04 -1.66911E+04  1.49112E+04 -2.54235E+04 -9.86413E+02 -8.61963E+03 -1.01309E+04
  4.64452E+03 -1.41624E+04  7.98917E+03 -2.25829E+04  1.25494E+04 -4.79838E+03  9.14931E+03  6.04923E+03
 -1.14994E+04  7.41499E+03 -1.63634E+03 -4.66719E+03 -6.14764E+03 -2.29872E+04  1.36317E+04 -1.41195E+04
  2.08344E+04 -1.26074E+04  2.92368E+04 -3.41331E+01  2.89989E+04  1.53997E+04  1.20717E+04  2.92751E+04
  1.90568E+03  2.34084E+04 -1.76646E+04  2.04011E+04 -2.46370E+04  3.39834E+03 -2.10484E+04 -2.14376E+03
 -9.73807E+03 -3.62101E+03 -6.26160E+03 -3.32837E+03 -9.00976E+02  7.96909E+03 -8.53908E+03  1.36301E+04
 -1.15333E+04 -4.42025E+03 -2.00829E+04 -1.85375E+04 -4.30087E+03 -2.48864E+04  5.65990E+03 -1.71207E+04
  1.27956E+04 -1.37638E+04  1.42588E+04  3.96890E+03  3.28817E+03  5.07582E+03 -1.22249E+04 -1.80781E+03
 -8.72436E+03 -8.67717E+03 -7.10426E+02 -2.14106E+04  7.47896E+03 -1.88595E+04  2.17413E+04 -3.30095E+03
  3.01626E+04 -1.52870E+03  2.03683E+04  1.19170E+04  5.24650E+03  2.21088E+04 -9.83430E+03  1.43308E+04
 -1.50881E+04  4.65563E+03 -5.98459E+03 -2.05784E+03  3.38531E+03  1.12903E+03  1.36273E+04 -3.31584E+03
  9.91070E+03  3.91398E+03  7.14901E+02  1.41658E+04 -1.50668E+04  6.23716E+03 -2.00515E+04  4.90437E+03
 -1.54150E+04 -6.73055E+02  5.67562E+03 -2.03394E+04  1.06861E+04 -6.38305E+03  1.67914E+04  3.79565E+03
  3.70217E+03  1.75453E+04 -1.00928E+04  4.80905E+03 -1.47143E+04  7.17168E+03 -1.15462E+04 -2.80289E+03
 -8.55314E+03 -1.37568E+04  9.26045E+02 -2.73958E+04  1.72200E+04 -1.62824E+04  1.34274E+04  1.86737E+03
  1.04907E+04  2.18977E+04 -1.00750E+04  2.16809E+04 -1.33943E+04  1.30688E+03 -6.06427E+03  6.38805E+02
 -1.44446E+04 -1.58673E+04 -2.51246E+03 -1.49647E+04  2.69815E+03 -8.23436E+03  2.60247E+03 -7.05096E+03
  6.56397E+03  6.44489E+03  1.39222E+03  8.52695E+02 -2.14296E+02 -4.35402E+03  7.70855E+03 -9.30722E+03
  2.25587E+04 -1.32456E+04  1.55003E+04 -8.81445E+02  1.54275E+04  1.10392E+04  1.84141E+04  2.21183E+04
  2.94291E+03  3.07347E+04 -2.02370E+04  1.53125E+04 -1.85147E+04  4.40410E+03 -1.97377E+04 -1.27948E+04
 -1.15366E+04 -1.77290E+04 -4.35102E+03 -9.73642E+03  1.19033E+04 -6.05343E+03  7.21442E+03 -8.75883E+03
  6.72509E+03 -2.85503E+03  5.49461E+03 -5.76280E+03  3.24979E+03 -5.51926E+03  1.26609E+04 -9.53877E+03
  8.77980E+03  4.74880E+03  8.38624E+03  8.60579E+03 -9.43747E+03  1.41604E+04 -9.66063E+03  1.15344E+04
 -2.01193E+04 -1.63764E+03 -1.33516E+04 -1.69009E+04 -2.78996E+03 -2.05842E+04  1.06059E+04 -1.66162E+04
  1.39443E+04 -1.08653E+04  1.57896E+04  5.63175E+02  1.88297E+04  2.21591E+04  2.19299E+03  3.03697E+04
  3.12750E+02  1.10120E+04 -1.81136E+04  4.79737E+03 -1.84748E+03 -1.30576E+03  1.08125E+03 -3.95163E+03
  4.64175E+03  1.37537E+03 -7.33920E+03  4.96907E+03 -8.98178E+03  3.47186E+01 -9.54230E+03  1.75855E+03
 -1.20612E+04 -1.21194E+04  2.73579E+03 -1.53279E+04  1.15130E+04 -1.57063E+04  1.71026E+04 -6.06066E+02
  1.56352E+04  1.46400E+04  7.21942E+03  1.49554E+04 -3.79378E+03  1.07464E+04 -1.27273E+04  1.68563E+04
 -1.89567E+04  4.58231E+03 -7.37740E+03 -1.28060E+04 -1.71556E+03 -1.05733E+04  1.13204E+04 -1.42621E+04
  1.05265E+04 -7.06543E+02  3.44744E+03  6.07263E+03  7.09620E+03  6.40454E+03  5.26634E+03  1.03889E+04
 -1.27478E+01  6.98157E+03  4.41272E+03  2.84446E+03  1.38522E+04  1.93562E+03  7.37129E+03  1.27295E+04
 -2.24648E+03  1.25261E+04 -1.86634E+04  1.41620E+04 -2.39125E+04  5.72236E+03 -1.96519E+04 -1.02978E+04
 -1.60139E+04 -1.64776E+04  2.92773E+03 -2.16973E+04  1.58513E+04 -5.36929E+03  1.90290E+04 -6.17451E+03
  1.16496E+04  4.37534E+03  1.67338E+03  1.32496E+04 -1.04958E+04  6.57571E+03 -8.03283E+03 -1.17251E+02
 -5.85306E+03 -1.03600E+04  1.01974E+04 -2.02514E+03  4.87351E+03 -1.21174E+04  9.43052E+03  8.94446E+02
 -3.61529E+03  4.40230E+00  5.43109E+03 -1.62333E+03  3.70332E+03  3.04095E+03 -4.65956E+02 -5.52595E+01
 -6.83276E+02 -3.01009E+03  6.01675E+03  4.09120E+03  7.54102E+02  1.90590E+04  1.57830E+03  1.37715E+04
 -6.63111E+03  1.04965E+04 -5.14464E+03 -1.73930E+03 -7.12484E+03  4.59790E+03 -7.71611E+03 -8.27927E+03
  2.81118E+03 -1.49659E+04  2.09796E+03 -2.01146E+03  3.82861E+03  2.11768E+03  2.44412E+03  7.67605E+03
 -2.32696E+03  6.11374E+03 -1.38131E+04 -1.13787E+04 -4.52869E+03 -1.03227E+04 -6.00008E+02 -7.76335E+03
  1.22338E+04 -6.28998E+03  7.17309E+03  1.88581E+03  4.78094E+03  4.43779E+03  4.50271E+03  7.48014E+03
 -4.26716E+03 -5.34251E+02 -9.51678E+03 -4.93187E+03  3.52594E+03 -1.21636E+04  6.54903E+03 -9.36331E+03
  1.29881E+04  1.78199E+03  5.55742E+03  9.69472E+03  1.68854E+03  1.08943E+04 -6.22339E+03  1.43808E+04
 -1.63741E+04 -6.54420E+02 -7.50102E+03 -8.51227E+02 -5.36083E+03 -1.00622E+04  8.82707E+02 -5.02939E+03
  6.77531E+03 -6.14374E+03  9.20116E+03  4.74132E+03  1.16942E+03  2.84821E+03 -2.35198E+03 -3.19895E+03
 -1.01362E+04  8.22419E+03 -3.67981E+03  2.33829E+03 -3.40967E+01 -1.15019E+04 -1.83239E+03  8.75909E+03
 -4.53590E+01  1.74372E+03 -3.79379E+03 -5.41270E+02 -1.01096E+04  2.88962E+03 -1.80666E+04 -5.43034E+03
 -1.30974E+04 -2.04810E+04 -6.85734E+02 -1.40479E+04  9.36380E+03 -1.54396E+04  1.75688E+04 -1.88151E+03
  1.27477E+04  3.60798E+03  1.48397E+04  9.03774E+03  9.01723E+02  1.71132E+04 -8.28507E+03  1.34618E+04
 -1.32025E+04  1.70414E+03 -2.36511E+03  2.35115E+03 -5.29641E+03 -6.80362E+03  5.03671E+03 -3.34705E+02
 -2.49865E+03 -1.78501E+03 -7.55240E+02  4.60907E+01  2.38659E+03 -4.47261E+03  3.35968E+03 -7.90050E+03
  8.29318E+03 -2.95407E+03  7.25052E+03  1.65357E+03  1.68523E+04  4.55440E+03  6.36365E+03  1.21435E+04
 -5.78660E+03  2.24572E+04 -1.23392E+04  1.08852E+04 -2.69740E+04 -4.71328E+03 -1.23062E+04 -1.48378E+04
 -1.03104E+04 -1.49119E+04  7.45096E+03 -1.44176E+04  1.18589E+04 -1.15244E+04  1.00118E+04  7.68899E+03
 -5.53324E+02  4.36078E+03  1.97718E+03  2.77238E+03 -8.39496E+03 -4.84587E+03  7.40967E+03 -7.10357E+03
 -3.07370E+03 -6.27595E+03  8.68485E+03  5.12400E+03  3.28722E+03  8.04370E+03 -2.14244E+03  7.36643E+03
 -7.06023E+03  1.09751E+04 -5.43421E+03 -9.52232E+02 -6.70971E+03 -9.26550E+03 -1.87123E+03 -1.09703E+04
  3.78691E+03 -1.24876E+04  6.84442E+03 -2.92945E+03  7.05047E+03 -9.54045E+02  7.47806E+03  7.27706E+03
  5.27552E+03  1.06339E+04 -8.62041E+03  1.22837E+04 -1.15799E+04  1.84995E+03  1.00081E+02  6.01957E+03
 -6.05807E+03 -1.27474E+03 -1.01479E+04 -2.26244E+03  9.22993E+03 -5.68192E+03 -7.79693E+03 -3.15984E+03
 -4.73771E+03 -1.76837E+03 -2.52388E+03 -1.00247E+04  1.13300E+03 -1.12551E+04  2.49052E+03  1.59081E+03
  6.92837E+03  7.89140E+03  7.88139E+03  7.58521E+03  2.21502E+03  7.60887E+03 -1.28563E+04  9.57516E+03
