 $NMID ID='MM_0lb_SNR50_19hz_g55_7.RAW', FMTDAT='(8E13.5)'
 TRAMP=1., VOLUME=1. $END
  3.04771E+05  4.27089E+02  3.35222E+05  2.53266E+05  8.65561E+04  3.39890E+05 -1.34670E+05  2.49040E+05
 -1.95606E+05  8.06421E+04 -1.11497E+05 -3.07782E+04  3.05233E+03 -4.99240E+04  5.48155E+04  2.26273E+03
  3.57054E+04  5.71566E+04 -2.18579E+04  7.68636E+04 -6.43948E+04  6.02485E+04 -8.32864E+04  3.58131E+04
 -7.63814E+04 -1.13469E+04 -5.64032E+04 -5.43040E+04 -1.39369E+04 -6.56756E+04  2.60173E+04 -4.92475E+04
  4.33918E+04  5.74068E+03  1.35257E+04  5.12619E+04 -3.27691E+04  4.82362E+04 -6.62899E+04  1.26036E+03
 -5.04167E+04 -5.98238E+04 -2.77713E+03 -7.46427E+04  3.45734E+04 -5.42322E+04  4.75980E+04 -1.77534E+04
  4.46942E+04  1.07458E+04  2.98451E+04  2.36033E+04  1.73509E+04  2.84252E+04 -5.63929E+03  2.61961E+04
 -2.35020E+04  1.29073E+04 -2.07290E+04 -5.65982E+03  2.91349E+03 -6.86307E+03  2.59233E+04  9.46459E+03
  3.39329E+03  3.68271E+04 -3.32272E+04  3.21822E+04 -6.07878E+04  5.95812E+03 -5.86785E+04 -4.11541E+04
 -9.67872E+03 -5.80004E+04  3.85450E+04 -4.26390E+04  5.60765E+04 -1.20622E+03  3.22005E+04  3.07221E+04
 -6.78164E+03  3.52263E+04 -2.63108E+04  1.58856E+04 -2.91958E+04 -1.58587E+03 -1.60084E+04 -1.19468E+04
 -6.59533E+03 -1.36000E+04 -2.98924E+03 -1.76460E+04  8.98760E+03 -2.55017E+04  1.87161E+04 -1.10507E+04
  1.05172E+04  2.84610E+03 -3.49561E+03  1.02638E+04 -2.08448E+04 -1.80365E+03 -5.54793E+03 -3.19827E+04
  2.19392E+04 -4.01787E+04  4.39797E+04 -1.78576E+04  4.21009E+04  1.82239E+04  1.47457E+04  4.38655E+04
 -1.55715E+04  3.49819E+04 -2.31209E+04 -1.18379E+02 -9.94233E+03 -2.86703E+04  2.41618E+04 -2.96695E+04
  3.62634E+04 -6.64978E+03  2.89608E+04  2.37077E+04  1.49933E+04  4.29684E+04 -6.26517E+03  4.64028E+04
 -3.08906E+04  2.78140E+04 -3.39243E+04  9.51860E+03 -4.00004E+04 -1.16322E+04 -2.02389E+04 -3.55461E+04
  1.81797E+03 -3.79824E+04  2.94410E+04 -1.46011E+04  2.56600E+04  1.22220E+04  4.16061E+03  1.68962E+04
 -1.35220E+04  8.59613E+03 -9.79153E+03 -5.68517E+03  1.02034E+04 -6.85499E+03  1.44935E+04  7.07409E+03
  1.23092E+04  1.88665E+04 -7.83902E+03  2.16759E+04 -2.16827E+04  1.03125E+04 -2.68373E+04 -2.52414E+03
 -2.01211E+04 -1.98677E+04 -6.04605E+03 -1.46004E+04  4.21450E+03 -1.36710E+04  1.51706E+04 -1.35168E+04
  1.50510E+04 -1.30913E+04  2.87722E+04  3.03836E+03  2.09048E+04  1.69782E+04  4.21273E+03  3.28376E+04
 -2.27406E+04  2.90279E+04 -2.93142E+04  1.04963E+04 -2.13226E+04 -9.48901E+03 -5.67338E+03 -1.52679E+04
  2.95241E+03 -3.62509E+03 -6.89246E+03  4.89532E+03 -1.48100E+04  1.59170E+02 -1.41107E+04 -8.34874E+03
 -8.42885E+03 -1.46087E+04  3.27822E+03 -1.98950E+04  9.90839E+03 -1.58943E+04  1.60335E+04 -1.54773E+03
  1.36148E+04  1.17118E+04 -1.55467E+03  1.92777E+04 -1.06638E+04  9.46959E+03 -1.21487E+04 -1.04426E+03
 -1.20377E+04 -1.64440E+04 -4.17558E+03 -1.87880E+04  9.56945E+03 -1.78507E+04  1.75325E+04 -6.38481E+03
  1.63186E+04 -1.75376E+03  7.20589E+03  7.19735E+03  4.12296E+03  4.80911E+03  1.11813E+04 -9.15734E+02
  1.60485E+04  7.60312E+02  1.35491E+04  1.41022E+04  1.08352E+04  2.22178E+04 -1.65052E+03  2.78702E+04
 -1.98491E+04  2.36679E+04 -2.35740E+04  5.15004E+03 -2.55101E+04 -2.64779E+01 -2.09561E+04 -1.55697E+04
 -7.89348E+03 -2.43603E+04  5.99244E+03 -1.77600E+04  1.88782E+04 -9.10695E+03  1.38264E+04  4.19812E+03
  6.59679E+03  8.81193E+03 -8.81712E+03  1.14188E+04 -1.46574E+04  5.49319E+03 -1.11587E+04 -5.73860E+03
 -2.96811E+03 -1.27706E+04  2.75558E+03 -1.21784E+04  4.94425E+03 -2.83892E+03  2.32107E+03  3.61958E+03
 -3.99901E+03  4.07320E+03 -4.55668E+02 -5.41853E+03  3.71275E+03 -1.30967E+04  7.20409E+03 -1.13113E+04
  9.31478E+03 -7.01417E+03  1.39973E+04  2.37052E+03  1.48797E+04  9.58290E+03  6.76690E+03  1.34618E+04
 -1.81516E+03  1.59900E+04 -7.39709E+03  8.86017E+03 -1.03432E+04  1.71801E+02 -9.06872E+03 -2.91216E+03
 -8.77985E+03  1.38552E+03 -1.41495E+03  2.07354E+03 -4.06069E+03 -5.68237E+02 -4.60129E+03  2.90753E+03
 -9.95992E+03 -7.01656E+02 -9.27869E+03 -2.22908E+03 -2.16269E+03 -9.18666E+03  2.65295E+03 -1.00669E+04
  6.21715E+03 -3.24663E+03  4.21787E+03 -1.01392E+03 -1.81944E+03  1.08911E+03 -2.92071E+03 -2.85719E+03
 -7.22079E+03 -4.29596E+03 -1.23304E+03 -6.45588E+03  3.42756E+03 -9.22316E+03  1.45777E+04 -2.02012E+03
  8.22236E+03  3.54563E+02  8.86322E+03  6.63000E+03  2.26055E+03  9.65252E+03 -7.53895E+03  7.47394E+03
 -5.63166E+03 -7.93644E+02 -3.91440E+03 -3.61544E+03  3.54894E+03 -1.63615E+03  4.07974E+03  1.65549E+03
  2.94869E+03  4.96487E+03  3.55630E+03  2.12322E+03 -3.46832E+03  7.32368E+03 -8.05074E+03  1.02846E+03
 -8.67423E+03 -3.66268E+03 -4.51458E+02 -8.28818E+03  4.67923E+02 -3.20685E+03  2.92528E+03  3.87079E+03
  1.74237E+03  4.94131E+03 -2.10370E+03  6.45524E+03 -1.52432E+03  5.76300E+03 -3.96331E+03  1.18880E+03
 -1.97063E+03 -2.47734E+03  6.58447E+02 -6.11236E+03  7.85622E+03 -1.02171E+03  3.61958E+03  1.25551E+03
  7.10047E+03  5.96973E+03 -2.88532E+03  5.84758E+03 -6.84963E+03  3.00222E+03 -1.49319E+03 -3.81960E+02
 -4.98233E+03 -5.15248E+03 -9.88741E+02 -2.19536E+03 -7.74330E+02 -5.39762E+03  6.99433E+03 -2.95490E+02
  1.95420E+03  3.10798E+03  6.05026E+02  1.72071E+03  9.44393E+02 -1.08074E+03 -2.62398E+03 -3.16311E+03
  6.03484E+03 -2.07555E+03  4.40066E+03  2.93590E+03  5.32205E+03  2.95897E+03  5.16080E+03  6.93085E+03
  2.48269E+03  7.72562E+03 -6.07401E+03  5.29564E+03 -1.12372E+04  2.73017E+03 -3.30565E+03 -2.78819E+03
 -7.18220E+03 -6.35617E+03 -5.61716E+02 -5.68115E+03 -2.49982E+03 -3.09304E+03  5.37010E+03 -5.50136E+03
  1.95999E+03 -9.47582E+02 -2.17892E+02 -3.12118E+03  6.41530E+03 -1.14507E+03  1.36573E+03  2.82099E+03
  7.82340E+02  3.18028E+03  3.81963E+03  1.89657E+03 -5.43588E+03  8.36474E+02 -8.78349E+03  1.64572E+03
 -9.03883E+03 -1.91275E+03 -1.78689E+03 -2.53082E+03  8.83472E+02 -2.86404E+03  2.72875E+03 -1.93598E+03
  4.63965E+03 -7.76691E+02  6.19736E+03  2.11520E+03  5.31951E+03  3.70107E+03  1.15347E+03  4.02668E+03
 -5.80354E+03  5.11357E+03 -2.90710E+03  1.65131E+03 -1.38136E+03 -1.65256E+03  1.50935E+03 -6.78813E+02
  3.11165E+03 -4.78241E+03  9.84716E+02 -7.22902E+02 -6.64720E+03 -2.90066E+03 -5.38286E+03 -6.49154E+03
 -2.74586E+03 -5.59744E+02 -1.89107E+03 -5.39421E+03  7.77703E+02 -2.12488E+03  4.52773E+03 -8.98260E+02
  6.46666E+03  1.53793E+03  1.94529E+03  1.84646E+03 -1.66961E+03  4.55751E+03 -2.75186E+03  4.01938E+03
 -1.44940E+03 -7.84227E+01 -1.18270E+02 -1.25349E+03  1.76990E+03 -3.90992E+03  1.34305E+03 -3.78711E+03
  2.30223E+03 -3.00018E+03  3.77642E+03 -1.21501E+03  7.06958E+02  4.57251E+03  1.27145E+03 -2.06719E+03
  1.91172E+03 -3.18423E+03  2.22042E+03  2.61167E+03  8.95303E+02  1.72241E+03  1.29690E+03  2.73763E+03
 -5.12624E+03  9.08429E+02  6.62273E+01  6.19264E+03 -3.57162E+03  4.93478E+03 -3.07957E+03  2.64210E+03
  2.01584E+03 -9.77117E+03  6.63605E+02 -3.44587E+03  4.67759E+03 -7.35799E+01  4.54111E+03 -2.85228E+03
  3.60102E+03  2.26495E+03 -2.54101E+03  3.67284E+03 -4.30118E+03 -2.01444E+03  1.19562E+03  7.64293E+02
 -1.14668E+03  2.32927E+03  2.58876E+03  3.86995E+03 -1.57599E+03 -1.23189E+03  3.54004E+03 -2.84930E+03
  7.80218E+02  1.28975E+03 -2.97940E+03  2.25284E+03 -3.85081E+03  1.22385E+03  1.61329E+03  4.85616E+02
  9.72105E+02 -3.39699E+02  4.67429E+03 -6.15205E+02 -2.79077E+03  1.90945E+03 -1.20670E+02 -4.71352E+00
 -3.27455E+03  2.43052E+03 -3.93054E+03  3.23055E+02 -1.53074E+03 -1.48058E+03  9.52650E+02  6.39476E+03
  1.97778E+03  5.99655E+02  3.78395E+02 -5.88046E+02  2.46892E+03  2.16524E+03  2.25689E+03  1.70476E+03
 -1.38469E+03  1.87826E+03 -7.37908E+02 -2.77661E+03 -6.80799E+02 -1.07234E+03 -2.59872E+03 -4.34995E+03
  1.91577E+03  3.26994E+02 -5.07685E+03  4.39384E+03  2.29922E+03  2.68304E+03  2.77126E+03  7.96313E+02
 -3.26434E+03  1.92535E+03  1.78311E+03 -7.48874E+02 -3.33539E+03 -4.97155E+03 -2.49843E+02 -2.46803E+03
 -2.26419E+03  2.63760E+03  1.62683E+03  3.11036E+03  2.01523E+03  6.75700E+02 -2.21619E+03 -7.82359E+02
 -7.61625E+02 -4.62082E+02  4.63729E+02 -1.98292E+03 -3.35883E+03 -1.68521E+03 -6.09432E+02 -1.41199E+03
 -3.32575E+03  3.09288E+03 -7.65882E+02 -2.54847E+03 -3.62153E+03  7.00098E+03  1.44978E+03  3.10540E+03
 -3.68311E+03  2.97748E+02  1.83358E+03  4.40120E+03  5.29912E+02 -1.02706E+02 -1.05833E+03 -8.32547E+02
  2.04467E+03 -1.33972E+03 -3.65270E+03  1.53500E+03 -1.28326E+03 -1.90101E+02 -4.19419E+03  4.36492E+03
 -4.27386E+03 -5.24408E+03 -3.15825E+03 -1.45018E+01 -1.38394E+03 -1.55340E+01  2.78296E+03  8.91873E+02
  3.98511E+03 -2.75148E+03 -3.92841E+03  1.04953E+02  5.27228E+02  2.58662E+03  3.74058E+03 -2.64218E+03
 -2.78453E+03 -2.04090E+03  1.96321E+03  1.37862E+03 -3.25288E+03 -1.30814E+03  4.51436E+03 -2.24340E+03
 -1.05946E+03  4.61399E+03 -3.15608E+03 -1.76494E+03 -3.78062E+02 -1.26997E+03 -1.19346E+03 -1.73591E+03
  1.03957E+03  3.17193E+03 -1.69147E+03 -3.96833E+03 -4.99866E+02 -9.34241E+01 -9.47622E+02 -3.10630E+03
  1.40709E+03 -3.59110E+03 -1.31984E+03  3.77943E+03 -1.76527E+03  2.50435E+03 -3.39718E+03 -1.13587E+03
 -9.17524E+02 -1.39764E+03 -4.72454E+03  2.59438E+03 -8.63645E+02 -2.79426E+02  2.53533E+03  6.04471E+02
  2.15593E+03  2.41370E+03  4.95126E+02  4.40591E+03  3.68663E+03 -3.08987E+02 -2.40746E+03 -1.06505E+03
 -2.18950E+03  4.00379E+02  8.87916E+02 -1.82166E+03  2.67001E+03  2.80728E+03  5.48215E+02  1.85689E+02
  2.64862E+03 -1.90572E+03  2.49142E+03  1.15564E+03  2.61802E+03  1.20755E+03 -4.25064E+02 -1.87011E+03
  6.48695E+01 -3.05529E+03 -2.86041E+02 -1.10588E+03 -2.87413E+03 -3.18224E+02  1.68466E+03 -2.99935E+03
 -1.39108E+03 -2.03166E+03 -1.97218E+02  2.96283E+03 -3.37599E+03 -3.22101E+03 -2.12372E+03 -2.69392E+02
  6.66474E+02  2.11430E+03  1.53391E+03  2.59477E+03  1.58928E+03 -9.46167E+02 -1.73745E+03 -2.28802E+03
 -1.42111E+02  2.01353E+03  3.61330E+03  7.07212E+02  3.26913E+02 -3.30363E+03  6.30224E+02 -8.79268E+02
  1.86508E+03  1.98901E+03  1.07404E+03  1.71482E+03  1.38206E+03  2.75778E+03  2.97389E+02 -1.24159E+03
