 $NMID ID='MM_0lb_SNR50_11hz_g50_8.RAW', FMTDAT='(8E13.5)'
 TRAMP=1., VOLUME=1. $END
  3.12730E+05  4.98916E+02  3.39289E+05  2.49586E+05  8.20523E+04  3.33568E+05 -1.36695E+05  2.50903E+05
 -1.83891E+05  8.27529E+04 -1.11250E+05 -3.03559E+04  1.26827E+03 -4.92918E+04  5.38752E+04 -1.06072E+03
  3.77435E+04  5.34819E+04 -1.58074E+04  7.69585E+04 -6.25446E+04  6.88554E+04 -8.68525E+04  3.33443E+04
 -7.70813E+04 -1.02453E+04 -5.23885E+04 -5.18117E+04 -1.09319E+04 -6.95303E+04  2.68194E+04 -4.67559E+04
  4.20782E+04 -1.24432E+03  1.37395E+04  4.75147E+04 -3.22042E+04  5.20710E+04 -6.59819E+04 -5.16544E+03
 -5.52072E+04 -5.43505E+04 -3.54963E+03 -7.82580E+04  3.13389E+04 -5.52379E+04  4.27252E+04 -2.37835E+04
  4.39686E+04  1.00608E+04  3.34203E+04  2.68352E+04  1.42023E+04  2.82448E+04 -7.07890E+03  2.56523E+04
 -1.90615E+04  1.16476E+04 -1.56844E+04 -3.37832E+03  8.68041E+03 -1.03004E+04  2.14286E+04  7.54593E+03
  1.28994E+04  3.79992E+04 -3.13906E+04  3.96682E+04 -6.13314E+04  5.37471E+02 -5.89577E+04 -4.33867E+04
 -1.04333E+04 -6.06427E+04  4.23383E+04 -4.97540E+04  6.13621E+04  3.65703E+03  3.10308E+04  3.25337E+04
 -9.41905E+03  3.77032E+04 -2.99389E+04  2.33426E+04 -2.93116E+04 -5.86193E+03 -1.50962E+04 -1.44045E+04
 -6.93728E+03 -9.91941E+03  4.99201E+03 -1.42313E+04  1.05287E+04 -2.72004E+04  1.66858E+04 -1.43575E+04
  6.84755E+03  7.81380E+03 -1.20573E+04  1.40093E+04 -2.66033E+04 -8.50899E+03 -1.30102E+04 -3.48165E+04
  2.43697E+04 -4.54104E+04  5.26963E+04 -1.46240E+04  4.59196E+04  2.41533E+04  1.76342E+04  4.89547E+04
 -2.10209E+04  3.12935E+04 -2.21189E+04 -1.06365E+02 -7.27390E+03 -2.85859E+04  2.24559E+04 -3.34755E+04
  4.16450E+04 -1.08601E+04  4.22988E+04  2.49434E+04  1.86434E+04  4.67153E+04 -9.60226E+03  4.93993E+04
 -3.51484E+04  4.27706E+04 -4.68739E+04  1.31240E+04 -4.63474E+04 -1.48948E+04 -2.75937E+04 -3.84809E+04
  8.84295E+03 -3.79576E+04  3.01778E+04 -1.40433E+04  3.03123E+04  3.42721E+03  6.34151E+03  1.79810E+04
 -1.75646E+04  5.11026E+03 -1.01283E+04 -1.21285E+04  9.20171E+03 -1.09036E+04  1.62351E+04  4.12861E+03
  1.59715E+04  1.88806E+04 -6.10900E+03  2.84834E+04 -2.05375E+04  1.38596E+04 -3.20145E+04 -7.07938E+03
 -1.97431E+04 -1.54195E+04 -9.62512E+03 -2.66377E+04  4.54897E+03 -2.08001E+04  2.31370E+04 -1.90683E+04
  3.63882E+04 -1.40593E+04  3.81821E+04  3.00735E+03  2.64845E+04  2.72360E+04  5.28692E+03  4.30672E+04
 -1.96370E+04  3.30367E+04 -3.42713E+04  1.25200E+04 -2.88264E+04 -9.96165E+03 -8.67531E+03 -1.52917E+04
  6.48937E+03 -3.02078E+03 -5.69000E+03  8.98209E+03 -1.91443E+04  5.62310E+03 -1.97252E+04 -6.15655E+03
 -7.41612E+03 -2.80428E+04  1.07215E+04 -2.76864E+04  1.37976E+04 -1.92149E+04  2.28123E+04 -1.27748E+03
  7.46216E+03  1.46277E+04  2.95558E+03  1.93027E+04 -1.27447E+04  1.09787E+04 -2.23395E+04 -3.12425E+03
 -1.55344E+04 -1.98341E+04 -4.75745E+03 -2.78405E+04  8.58082E+03 -1.34410E+04  2.18966E+04 -7.69418E+03
  2.07968E+04 -1.90173E+03  2.03858E+04  4.25947E+03  9.53921E+03 -8.31406E+02  4.10229E+03  7.25903E+01
  2.69849E+04  5.02667E+03  2.18027E+04  1.13993E+04  1.37524E+04  2.75136E+04 -2.19864E+03  3.81266E+04
 -2.66457E+04  3.69087E+04 -4.00845E+04  1.36552E+04 -4.17950E+04 -3.68931E+03 -3.72127E+04 -2.02094E+04
 -9.02519E+03 -3.15945E+04  1.04450E+04 -3.57135E+04  2.91105E+04 -1.28382E+04  2.50945E+04  1.05416E+04
  6.89007E+03  1.72596E+04 -1.01561E+04  1.66422E+04 -1.41906E+04 -6.10602E+03 -1.30468E+04 -1.37225E+04
 -5.67465E+03 -1.86233E+04  1.01038E+04 -1.58172E+04  1.68326E+04  1.88030E+03 -7.23584E+02  5.77861E+03
 -1.00821E+04 -2.63264E+02 -1.00234E+04 -6.15229E+03 -3.24705E+03 -1.46234E+04  8.13005E+03 -1.86399E+04
  2.12442E+04 -9.30697E+03  2.54049E+04  4.63172E+03  2.13226E+04  1.64764E+04  2.92497E+03  2.28033E+04
 -1.09608E+04  2.97931E+04 -1.95719E+04  1.40689E+04 -1.93874E+04 -4.00883E+03 -1.20436E+04 -4.38993E+03
 -8.01456E+03 -4.09409E+03  3.34297E+03 -2.92296E+03 -8.44375E+03  2.65248E+03 -5.47807E+03  1.07660E+04
 -1.16138E+04  9.13923E+03 -8.53259E+03 -1.58728E+04 -4.94654E+03 -1.64767E+04  5.76048E+03 -1.05985E+04
  1.13140E+04 -4.10067E+03  5.31057E+03  1.33036E+03 -2.33793E+03  3.81026E+03 -2.87390E+03 -3.44177E+02
 -6.52664E+03 -9.38155E+03 -7.49418E+02 -1.17337E+04  4.54314E+03 -9.64163E+03  1.62929E+04 -9.00448E+03
  1.85155E+04  9.10935E+03  1.59212E+04  1.15892E+04  2.43096E+03  2.21509E+04 -1.15478E+04  1.22875E+04
 -1.13956E+04  6.57758E+03 -7.76417E+03  1.86973E+02  3.23445E+03 -2.30021E+03  1.85171E+03 -1.38079E+03
  7.18786E+03  5.29238E+03 -1.06483E+03  1.05441E+04 -1.10349E+04  9.39392E+03 -1.06067E+04  4.50101E+03
 -6.71325E+03 -8.40142E+03  2.13813E+03 -1.24805E+04  1.04755E+04 -4.17449E+03  8.22738E+03 -3.91354E+03
  2.49783E+03  1.55142E+04 -8.03789E+03  7.03846E+03 -1.19944E+04  4.41274E+03 -9.97549E+03 -5.76711E+03
 -4.67839E+03 -1.57540E+04  3.74888E+03 -9.99783E+03  5.07111E+03 -7.73988E+03  1.20960E+04 -1.43716E+03
  1.10401E+04  8.16828E+03 -2.57464E+03  1.36219E+04 -1.97153E+04  1.10562E+04 -1.30339E+04 -7.95743E+03
 -1.26576E+04 -8.37163E+03 -3.00314E+03 -5.62221E+03  1.84809E+03 -7.37308E+03  4.57039E+03 -3.33952E+03
  8.08781E+03  3.84072E+03 -1.20378E+03 -4.07464E+01 -3.76272E+03 -1.91355E+03  3.79817E+03 -6.90615E+03
  9.98379E+03  2.44485E+03  1.41949E+04  1.87060E+03  5.91473E+03  1.32822E+04  4.42906E+03  1.76893E+04
 -2.40116E+03  2.10475E+04 -1.95172E+04  2.08521E+04 -1.65562E+04  8.46634E+02 -1.82904E+04 -7.05463E+03
 -9.77174E+03 -1.99207E+04  2.57113E+03 -1.23718E+04  6.33161E+03 -7.71374E+03 -7.57141E+02 -2.52223E+03
  3.07629E+03  1.95184E+03  2.77445E+02 -4.88255E+03  9.88760E+03 -2.91206E+03  1.07255E+04 -1.62895E+03
  4.56899E+03  3.27065E+03  5.35096E+03  5.64268E+03  6.07417E+02  5.48759E+03 -8.63927E+03  3.59809E+03
 -9.73718E+03 -3.52179E+02 -5.08149E+03 -5.61499E+03 -8.45859E+02 -9.75951E+03  9.08825E+03 -1.38265E+04
  1.21259E+04 -8.10175E+03  1.58472E+04  1.36480E+03  1.19963E+04  1.05107E+04 -1.95327E+03  1.23127E+04
 -4.44511E+03  9.32379E+03 -1.01190E+04  2.57718E+03 -5.75251E+03  2.81344E+03 -4.58359E+03 -3.73137E+03
 -1.26958E+03 -3.58647E+03 -1.34179E+03 -7.27461E+02 -6.24515E+03  5.33832E+03 -1.58643E+04  1.36980E+03
 -6.53413E+03 -7.03347E+03 -1.72202E+03 -1.04636E+04  7.11876E+03 -5.03107E+03  1.08191E+04 -6.39094E+03
  1.35472E+04  6.10265E+03  5.77004E+03  1.52195E+04  1.55064E+02  1.69774E+04 -1.31001E+04  3.16799E+03
 -9.87665E+03  1.04753E+03 -8.83705E+03 -6.58382E+03 -4.11934E+03 -1.15400E+04  2.73918E+03 -5.66646E+03
  1.00903E+04 -3.23929E+03  4.15597E+03 -4.57911E+03  4.56186E+03 -2.07475E+03 -3.12437E+03  1.49281E+03
  6.62575E+03  1.81255E+03  4.89837E+03  3.20988E+03  2.06623E+03  6.27186E+03  3.00412E+03  5.51449E+03
 -5.74785E+03  6.16810E+03 -1.11213E+04  1.11644E+04 -1.25870E+04  9.54333E+03 -1.21153E+04 -2.18727E+03
 -9.88632E+03 -9.30471E+03 -1.05616E+03 -1.47318E+04  4.51091E+03 -6.95971E+03  8.24497E+03 -6.25423E+02
  1.07343E+04  4.14996E+03  1.34021E+03  3.00886E+03 -2.06097E+03  5.02997E+03 -1.98126E+03  1.98554E+02
 -2.67812E+03 -3.80185E+03  2.32596E+03 -5.19725E+03  6.77110E+03 -3.45238E+03  2.45911E+03 -1.31795E+03
  4.86573E+03  6.04875E+03  9.97872E+02  5.39432E+03 -2.57582E+03 -4.25494E+03  2.39117E+03  7.74450E+01
  3.05094E+03 -3.21018E+03  2.96814E+03  5.32520E+02  9.65732E+03  5.41741E+03 -6.52736E+03  4.08979E+03
 -1.07281E+04  1.07272E+04 -3.16544E+03  4.58309E+02 -3.96344E+03 -7.29906E+03 -8.21000E+02 -1.01151E+04
 -4.68370E+02 -3.40808E+03 -1.02569E+03  1.60568E+03 -2.37174E+03 -1.95762E+03 -1.53399E+03  7.43516E+03
 -2.71634E+03 -4.92805E+02 -6.47375E+03 -3.89903E+03 -8.96483E+02 -8.16837E+03  1.59107E+03 -4.54548E+03
  1.11893E+03 -4.52129E+03  4.05416E+03  3.41583E+03  4.88121E+03 -1.86543E+03  2.12520E+03  4.32949E+03
 -7.50487E+02  9.31049E+03 -1.75468E+03  2.34893E+03  3.60681E+03 -1.71039E+03  7.90649E+03 -6.41636E+03
  5.09589E+03 -3.63657E+03  5.33553E+03  5.67449E+03  4.89097E+03  1.00436E+03 -2.02911E+03  4.49937E+03
 -4.90567E+03  1.23458E+03 -6.82706E+03  3.14121E+02 -3.63665E+03 -6.33087E+03 -4.54314E+03 -5.40959E+02
  3.29787E+03 -2.99508E+03  6.06332E+03 -2.69462E+03  3.18182E+03  6.00264E+03  5.53484E+02  7.22188E+03
 -5.07953E+03 -1.38813E+03 -7.40233E+02 -2.62043E+03 -4.84797E+03  2.75394E+03  4.26184E+02  2.64913E+01
 -1.21711E+03  3.20599E+03 -7.54788E+03  8.82086E+02 -5.67715E+03  5.79722E+03 -4.32132E+03  5.40295E+02
 -8.79727E+03 -9.44927E+03  8.40976E+02 -1.06606E+04  7.78166E+03 -7.70856E+03  1.35390E+04 -5.70477E+03
  1.07886E+04 -2.12362E+03  8.96807E+03  1.26856E+04 -9.44388E+02  7.42470E+03 -2.24147E+03  6.40350E+03
 -1.99311E+03  1.93256E+03 -4.13739E+03 -5.03783E+03  1.90971E+03 -8.37165E+02 -6.42140E+02 -1.49837E+03
  9.71813E+02 -2.18811E+03 -1.90072E+03  5.84476E+03 -1.77557E+03 -4.81972E+03  2.67033E+03 -3.28812E+03
  1.67780E+03 -5.00967E+03  2.26907E+03 -5.02899E+03  3.60654E+03  3.09627E+02 -2.80302E+03  5.97705E+03
 -2.12428E+03  6.42503E+03 -9.26476E+03  2.30797E+03 -1.17723E+04 -1.79498E+03 -5.19139E+03 -5.05450E+03
 -5.81414E+03 -6.75654E+03 -1.42601E+03 -7.47462E+03  1.88505E+03 -6.09127E+03 -6.15104E+02 -2.81523E+03
  2.69286E+03  2.11328E+03 -1.86949E+02  8.59574E+02 -7.09844E+02  1.00989E+03 -5.54549E+02 -1.15179E+03
  1.77964E+03  2.08233E+03  6.51869E+03 -2.07721E+03  9.84762E+02  5.24828E+03  5.09606E+03  3.47400E+03
 -6.77907E+03  4.29615E+03 -7.84403E+03 -7.31448E+02 -1.66478E+03 -2.50866E+03 -9.53123E+02 -1.10998E+04
  3.26214E+03 -5.47070E+03  5.13008E+03 -4.34535E+01  5.74630E+03 -3.34071E+02  2.45866E+03 -8.92011E+02
  1.12465E+03  1.08820E+04 -4.83329E+03  4.28798E+02 -4.58779E+03 -1.08605E+03 -2.44476E+03  5.22134E+03
 -2.47177E+03 -8.12110E+02 -5.53763E+03 -1.13916E+03 -4.74904E+03 -6.07044E+03  6.24924E+02  5.14149E+03
 -2.04929E+03 -3.28292E+03 -1.20964E+03 -3.93565E+03 -1.51007E+03 -7.83979E+03  2.63578E+03 -5.58885E+03
  5.42559E+03  2.03945E+03  3.12055E+03 -7.09569E+02  3.47573E+03  3.59799E+02 -1.98850E+03 -2.28147E+03
