 $NMID ID='MM_0lb_SNR50_9hz_g50_56.RAW', FMTDAT='(8E13.5)'
 TRAMP=1., VOLUME=1. $END
  3.07038E+05 -2.00634E+03  3.35255E+05  2.54421E+05  8.08243E+04  3.45407E+05 -1.30542E+05  2.57215E+05
 -1.86355E+05  8.42633E+04 -1.17490E+05 -3.46421E+04 -5.29416E+03 -4.64176E+04  5.31456E+04  3.30631E+03
  2.93446E+04  5.54729E+04 -2.89198E+04  7.54268E+04 -6.01203E+04  6.30006E+04 -8.48786E+04  3.47200E+04
 -8.22335E+04 -1.79867E+04 -5.87587E+04 -5.45228E+04 -1.34008E+04 -7.20762E+04  2.88229E+04 -4.42455E+04
  4.49913E+04  5.74643E+03  5.99969E+03  5.48216E+04 -3.23526E+04  4.97792E+04 -6.76073E+04 -4.22502E+03
 -5.57804E+04 -5.63210E+04 -1.02466E+04 -8.11202E+04  3.67661E+04 -5.64638E+04  4.76900E+04 -1.45775E+04
  4.76010E+04  9.14842E+03  3.34675E+04  2.21330E+04  1.74177E+04  3.00226E+04 -2.26460E+03  1.84544E+04
 -2.17883E+04  1.20621E+04 -1.97422E+04 -4.20664E+03  6.96571E+03 -8.11819E+03  2.73436E+04  1.18380E+04
  4.12655E+03  4.28337E+04 -3.15122E+04  3.59310E+04 -6.99510E+04  1.62873E+03 -5.89134E+04 -4.39736E+04
 -1.59844E+04 -5.94168E+04  3.28114E+04 -4.61687E+04  6.07843E+04 -8.62561E+03  3.44149E+04  3.63521E+04
 -1.46103E+04  4.31244E+04 -2.78536E+04  2.34475E+04 -3.59888E+04 -1.84303E+03 -2.38621E+04 -1.12271E+04
 -7.81051E+03 -9.07805E+03 -5.35029E+02 -1.92788E+04  1.16775E+04 -2.31953E+04  1.64184E+04 -1.43966E+04
  1.06226E+04  9.50327E+03 -1.43473E+04  9.65987E+03 -2.05785E+04 -4.10319E+02 -1.41170E+04 -3.91316E+04
  2.38775E+04 -5.06569E+04  4.70438E+04 -2.10353E+04  4.36492E+04  2.08572E+04  1.63121E+04  5.14853E+04
 -1.80391E+04  3.19571E+04 -2.72520E+04 -1.35838E+02 -6.96026E+03 -2.90238E+04  2.25420E+04 -4.09367E+04
  4.70731E+04 -1.49578E+04  3.68323E+04  2.26762E+04  2.39304E+04  5.13994E+04 -8.92180E+03  5.06979E+04
 -3.79323E+04  4.00161E+04 -4.12857E+04  1.52619E+04 -4.91249E+04 -1.29729E+04 -2.66767E+04 -4.67883E+04
  6.94749E+03 -4.43498E+04  3.30199E+04 -1.74602E+04  2.96914E+04  1.48637E+04  3.57255E+03  2.32221E+04
 -9.92754E+03  2.49456E+03 -1.36674E+04 -6.77760E+03  3.00370E+03 -1.24148E+04  1.81134E+04  1.27803E+03
  1.54447E+04  1.98245E+04 -1.28995E+04  2.10071E+04 -2.74635E+04  1.92405E+04 -3.13373E+04 -1.82179E+03
 -2.52037E+04 -2.24585E+04 -1.38725E+04 -2.15471E+04  4.51235E+03 -2.40023E+04  1.62775E+04 -2.52840E+04
  2.96701E+04 -1.56779E+04  4.14604E+04  3.83505E+03  2.11513E+04  2.52356E+04  8.26769E+03  4.03296E+04
 -1.87437E+04  3.89774E+04 -2.90543E+04  1.27567E+04 -2.20463E+04 -1.34758E+04 -1.07703E+04 -1.54488E+04
 -6.59909E+03 -9.76890E+02 -5.21793E+03  1.05108E+04 -1.96131E+04  1.27915E+04 -2.18861E+04 -6.46255E+03
 -1.01573E+04 -2.64048E+04  1.01837E+04 -3.10436E+04  1.87183E+04 -1.64530E+04  2.63461E+04 -5.12688E+03
  1.51973E+04  1.77411E+04 -3.74330E+03  2.20127E+04 -1.52626E+04  1.69590E+04 -2.52749E+04 -7.29526E+03
 -1.43002E+04 -1.26275E+04 -2.99159E+03 -2.80028E+04  4.95699E+03 -3.13178E+04  2.66112E+04 -1.19050E+04
  2.39662E+04 -2.01430E+03  1.24528E+04  9.98062E+03  7.76825E+03 -6.50670E+02  1.97772E+04 -2.30006E+03
  1.46572E+04  6.94892E+03  2.19797E+04  1.92655E+04  1.96837E+04  3.60489E+04  1.17964E+03  4.54246E+04
 -2.60383E+04  4.03882E+04 -4.70342E+04  2.59109E+04 -3.85308E+04 -3.18836E+03 -3.08376E+04 -2.60783E+04
 -1.64945E+04 -3.54743E+04  1.45659E+04 -3.36020E+04  2.79480E+04 -2.47699E+04  2.41156E+04  6.47547E+03
  6.29270E+03  2.30610E+04 -1.16264E+04  1.94687E+04 -1.92408E+04 -7.25111E+02 -7.87530E+03 -1.57527E+04
  3.29109E+03 -1.80401E+04  1.28497E+04 -2.15492E+04  1.02329E+04  3.83553E+03 -2.80638E+02  1.13674E+04
 -6.42809E+03 -1.44641E+03 -6.49886E+03 -1.74368E+03 -2.42509E+03 -1.65429E+04  1.37544E+04 -2.37278E+04
  2.00681E+04 -1.35836E+04  2.50280E+04  2.80016E+03  2.08091E+04  1.52088E+04  1.01986E+04  2.75073E+04
 -3.24892E+03  3.08081E+04 -2.22687E+04  2.50158E+04 -2.89527E+04  1.50176E+03 -1.49853E+04 -5.31695E+03
 -6.40827E+03 -5.25884E+03  8.66830E+02 -5.55803E+02 -5.63792E+03  4.78804E+03 -8.92661E+03  5.21642E+03
 -1.08949E+04 -1.47084E+03 -1.62934E+04 -1.09122E+04 -9.59701E+03 -2.05665E+04  1.09860E+04 -1.90975E+04
  1.63957E+04 -1.03496E+04  8.89093E+03  6.48153E+03 -2.49514E+03  5.87762E+03 -1.97429E+03 -5.27924E+02
 -5.44484E+03 -9.81058E+03 -7.36892E+03 -1.30564E+04  3.63458E+03 -1.52862E+04  2.22376E+04  7.37423E+02
  2.21315E+04  3.91743E+02  2.20056E+04  1.13100E+04  5.31489E+03  2.20149E+04 -6.45266E+03  1.74733E+04
 -1.39500E+04  3.96426E+03 -5.46706E+03  8.79484E+02 -5.68361E+01 -3.26996E+03  3.89785E+03 -4.33025E+03
  4.49489E+03  1.10817E+04  2.84312E+03  1.31234E+04 -7.13305E+03  8.87545E+03 -1.86326E+04  4.71902E+03
 -8.30877E+03 -7.14880E+03 -4.11981E+03 -8.00362E+03  1.19304E+04 -5.22905E+03  1.82619E+04  1.52609E+03
  4.72183E+03  1.62583E+04 -1.08463E+04  1.55477E+04 -1.09075E+04  1.39946E+03 -1.31949E+04 -5.78990E+03
 -1.94308E+04 -1.71951E+04  2.04125E+03 -1.39634E+04  1.56314E+04 -4.24122E+03  1.42326E+04  4.07774E+03
  1.44432E+04  1.53704E+04 -2.74074E+03  1.98591E+04 -1.58041E+04  1.00502E+04 -1.63900E+04 -1.71056E+03
 -1.22809E+04 -1.24810E+04 -3.39156E+03 -1.49691E+04  1.39644E+04 -1.15858E+04  1.09809E+04 -6.31154E+03
  6.56904E+03 -1.54339E+03 -1.64664E+03  6.03742E+02 -2.06875E+03 -3.58815E+02  2.50158E+03 -1.18412E+04
  8.84976E+03 -9.88398E+03  1.95198E+04  2.09812E+03  2.10576E+04  1.10529E+04  8.66169E+03  1.77027E+04
 -9.09032E+03  1.89125E+04 -1.81123E+04  1.70899E+04 -2.80199E+04  4.63962E+03 -2.27202E+04 -3.52338E+03
 -1.18160E+04 -2.51152E+04 -3.24071E+03 -1.37873E+04  9.56753E+03 -1.07026E+04  7.97820E+02 -2.46059E+03
 -3.21743E+03 -2.13831E+03  6.46644E+03 -1.89909E+03  5.75428E+03 -5.02385E+03  9.72075E+03  1.47240E+03
  1.05323E+04  4.28438E+03  7.44722E+03  1.05487E+04  1.39868E+03  9.30078E+03 -1.40543E+04  6.70430E+03
 -1.51622E+04 -2.13630E+03 -1.44322E+04 -5.57411E+03 -5.12395E+03 -1.35763E+04  1.05936E+04 -1.71724E+04
  1.85852E+04 -1.40250E+04  1.81297E+04  1.73818E+02  1.52248E+04  6.35858E+03  6.93356E+02  1.83905E+04
 -8.16671E+03  2.01909E+04 -3.51796E+03  9.51950E+03 -8.83691E+03 -5.31471E+02 -5.35440E+03 -1.06235E+03
  6.15459E+02 -3.20212E+03 -5.18439E+03  3.05149E+03 -1.05505E+04  4.94765E+03 -1.08262E+04  2.74996E+03
 -7.10309E+03 -1.54064E+04 -1.04905E+03 -1.35455E+04  9.17025E+03 -1.79099E+04  2.02872E+04 -6.77782E+03
  1.12232E+04  4.01804E+03  7.95247E+02  1.03716E+04 -9.23313E+03  1.64861E+04 -9.43457E+03  5.43208E+03
 -1.54982E+04 -3.69268E+02 -1.00763E+04 -1.09793E+04 -1.49787E+02 -9.88839E+03  7.14000E+02 -7.54404E+03
  1.03369E+04  2.53585E+03  6.69301E+03  3.65694E+03  4.02672E+03  1.27063E+03  1.51672E+03  1.07260E+04
  4.09269E+03 -3.00394E+02  3.28424E+03  9.37947E+03  2.34122E+03  6.43926E+03  4.77366E+03  2.71902E+03
 -3.66772E+03  8.04473E+03 -1.46833E+04  7.96325E+03 -1.58388E+04  5.88207E+02 -1.55473E+04 -1.28363E+04
 -1.59387E+04 -1.57026E+04  5.19581E+03 -1.48399E+04  9.61087E+03 -8.47456E+03  1.24784E+04  5.44647E+03
  4.58228E+03  8.72556E+03 -1.61639E+01  1.18817E+04 -2.46355E+03 -4.15275E+03 -1.20535E+04 -4.36716E+03
 -4.76983E+03 -5.99656E+03  5.75828E+03 -2.15431E+03  1.37344E+04 -1.85965E+03  3.87030E+03 -2.43012E+03
 -7.04705E+02 -2.73102E+03 -9.29181E+01 -9.85860E+02 -5.99572E+03  4.04649E+03  3.25565E+03 -1.64421E+03
  2.21706E+03 -7.11390E+03  1.21281E+04 -1.88160E+03  6.66129E+03  8.57796E+03  5.76360E+03  9.76828E+03
 -8.66773E+03  9.95229E+03 -4.38846E+03  6.04802E+03 -1.29269E+04 -3.43904E+03 -3.83307E+03  1.37539E+03
 -5.34452E+03 -8.22232E+03 -4.97284E+03 -7.15692E+03  2.39591E+03  1.39701E+02 -1.35334E+03  2.39050E+03
 -6.78913E+03  4.66018E+02 -9.73567E+03 -2.14868E+03 -1.02825E+03 -8.77605E+03 -3.32419E+03 -7.92716E+03
  4.83173E+03 -2.83622E+03  2.43511E+03  4.77030E+03  3.35811E+03  1.85111E+03 -4.12288E+03  8.91296E+03
 -5.73455E+03  3.31942E+02 -6.18615E+03  3.49957E+03 -3.57425E+03 -7.73895E+03  3.00636E+03 -5.66699E+02
  8.32917E+03 -6.92070E+03  1.45439E+04  1.08769E+04  8.41508E+02  8.86487E+03 -1.09783E+04  4.27797E+03
 -1.08620E+04 -1.14073E+03 -1.24004E+04 -2.23002E+03 -4.06610E+03 -3.29204E+03 -8.51048E+01 -3.84079E+03
  1.40796E+04 -8.21349E+03  2.35219E+03  6.46498E+03  1.53198E+03  2.84589E+03 -7.02453E+03  1.05143E+04
  1.32819E+03  5.02493E+03 -7.15853E+01  6.02230E+03 -1.03720E+04 -4.55278E+03  4.28878E+03  6.70379E+02
  2.54626E+03  2.66990E+03 -2.17338E+03  1.14730E+04 -1.19929E+04  3.17388E+03 -1.75021E+04 -2.99406E+03
 -7.55529E+03 -1.60760E+04  1.95989E+03 -1.38100E+04  1.87365E+04 -9.04145E+03  1.77937E+04 -7.23705E+03
  1.56349E+04  5.02624E+03  5.53131E+03  1.48249E+04 -4.65015E+03  9.36626E+03  1.47587E+03  1.32576E+04
 -9.53871E+03 -1.09773E+03 -3.89045E+03 -4.20959E+03  2.11278E+03 -6.29213E+03  1.32871E+04  2.33625E+03
 -9.58647E+00  1.41640E+03  6.17736E+02  4.96992E+02 -1.08459E+03 -1.98125E+03  2.95204E+03 -4.34431E+03
  1.13381E+04 -5.71121E+01  4.98579E+03  3.97966E+02  7.64847E+03  5.10971E+03  2.63953E+03  4.15864E+03
 -9.09863E+03  9.29991E+03 -1.48751E+04  2.08547E+03 -1.18942E+04  4.97394E+03 -4.44924E+03 -8.76827E+03
 -2.59842E+03 -1.23733E+04  1.37793E+04 -1.57784E+04  9.25265E+03 -2.06026E+03  4.04079E+03 -6.54165E+03
  6.82767E+03  4.30719E+03  2.35362E+03  6.95799E+03  3.11930E+03  1.25490E+03 -3.68631E+03 -6.77598E+03
  2.66954E+03 -3.52841E+03  6.71967E+03  6.85612E+03  4.21917E+03  8.14487E+03  5.32070E+03  9.41267E+03
 -4.54636E+03  9.09712E+03 -8.96160E+03  4.09864E+03 -5.75118E+03 -2.00924E+03 -1.78597E+03 -1.07304E+04
 -1.06924E+03 -5.79042E+03  9.80198E+03 -2.59704E+03  8.59438E+02  4.15164E+03  6.89612E+03  7.43032E+03
  5.21781E+02  5.80184E+03  2.77624E+03  6.23018E+03 -4.05358E+03  5.49887E+03 -8.33065E+03  1.76649E+03
  3.97157E+03  3.08715E+03  1.35301E+04  3.48624E+03 -1.40850E+03  1.51756E+03 -4.71465E+03  6.92004E+03
 -7.32995E+03 -1.21781E+04  4.74799E+03 -6.65683E+03  7.66268E+03 -6.83934E+03  7.60172E+03 -2.83054E+03
  4.00902E+03  5.21068E+02  2.80505E+03  4.60525E+03 -5.50152E+03  3.32208E+03 -6.73054E+03  5.42660E+03
