 $NMID ID='MM_0lb_SNR50_10hz_g45_21.RAW', FMTDAT='(8E13.5)'
 TRAMP=1., VOLUME=1. $END
  3.10550E+05  5.81596E+03  3.35652E+05  2.50020E+05  8.40749E+04  3.35806E+05 -1.34030E+05  2.46101E+05
 -1.91973E+05  8.46863E+04 -1.13064E+05 -3.19908E+04  2.93966E+03 -4.66778E+04  5.23683E+04 -3.83520E+02
  3.40317E+04  6.04249E+04 -1.69628E+04  7.37731E+04 -5.94860E+04  6.18861E+04 -8.61631E+04  3.00201E+04
 -8.12278E+04 -1.49574E+04 -4.86937E+04 -5.29997E+04 -1.37022E+04 -6.58672E+04  2.27712E+04 -5.01110E+04
  4.59180E+04  7.28945E+02  1.76568E+04  5.09357E+04 -3.22010E+04  4.62380E+04 -6.31577E+04  1.00171E+03
 -5.31057E+04 -5.16899E+04 -9.24316E+03 -7.90948E+04  3.28651E+04 -5.88319E+04  4.80084E+04 -1.83017E+04
  4.62428E+04  1.13096E+04  3.66019E+04  2.63460E+04  1.65125E+04  3.19481E+04 -6.84919E+03  3.22699E+04
 -2.52693E+04  9.29611E+03 -1.36209E+04 -7.83897E+03  6.81308E+03 -4.67029E+03  2.58755E+04  1.65812E+04
  2.61698E+03  3.43568E+04 -2.99903E+04  3.69112E+04 -6.88518E+04 -6.04642E+02 -5.81721E+04 -4.66134E+04
 -1.64367E+04 -5.87719E+04  3.81697E+04 -4.32603E+04  6.03415E+04 -1.37090E+03  3.53368E+04  3.83565E+04
 -2.06083E+03  4.02798E+04 -2.73991E+04  1.94338E+04 -3.39884E+04 -5.91951E+03 -2.51991E+04 -1.69455E+04
 -9.66201E+03 -1.63403E+04 -1.26477E+03 -2.05417E+04  7.59726E+03 -1.71945E+04  1.37140E+04 -1.43250E+04
  1.19312E+04  4.48192E+03 -2.79800E+03  1.22136E+04 -2.76292E+04 -7.37223E+03 -1.32348E+04 -3.87512E+04
  2.12622E+04 -4.36529E+04  5.45984E+04 -2.30024E+04  4.83881E+04  2.08611E+04  1.40655E+04  4.85664E+04
 -1.43922E+04  3.37468E+04 -2.80438E+04  3.21625E+03 -9.95238E+03 -2.61538E+04  1.52323E+04 -3.71832E+04
  4.93705E+04 -1.61660E+04  3.90759E+04  2.10536E+04  2.02946E+04  4.79862E+04 -6.73584E+03  5.06767E+04
 -3.53113E+04  2.75505E+04 -4.72245E+04  1.33023E+04 -4.59092E+04 -1.53853E+04 -2.45155E+04 -4.03689E+04
  1.15186E+04 -4.25037E+04  3.54008E+04 -1.62866E+04  2.76189E+04  1.13703E+04  8.87689E+03  1.71136E+04
 -9.15904E+03  9.54716E+03 -1.33584E+04 -4.81305E+03  9.86582E+03 -1.07207E+04  1.36364E+04  9.24759E+03
  1.74340E+04  2.18332E+04 -2.07728E+03  2.63506E+04 -2.54932E+04  1.23637E+04 -2.98706E+04 -6.77546E+03
 -2.08137E+04 -1.91804E+04 -1.04137E+04 -2.47605E+04  4.29197E+03 -2.17948E+04  1.54082E+04 -2.22469E+04
  2.98115E+04 -1.49612E+04  3.74305E+04  1.14633E+04  2.35071E+04  2.26540E+04  9.56785E+03  3.99886E+04
 -2.26007E+04  3.46661E+04 -2.94499E+04  1.52400E+04 -2.20637E+04 -3.26014E+03 -2.23444E+03 -1.98931E+04
  3.66206E+03 -1.92456E+03 -4.90992E+03  3.50502E+03 -2.35322E+04  1.16088E+04 -1.38876E+04 -8.15510E+03
 -9.81837E+03 -1.82802E+04  5.40369E+03 -3.02214E+04  1.86423E+04 -2.48281E+04  2.01049E+04 -3.45573E+02
  1.46819E+04  1.59106E+04  1.71056E+03  2.17220E+04 -1.22696E+04  1.54548E+04 -1.94447E+04 -4.74374E+03
 -1.70754E+04 -1.60904E+04  2.40289E+02 -2.79137E+04  1.28495E+04 -2.37596E+04  1.79431E+04 -1.14382E+04
  1.16184E+04  7.99433E+02  1.88833E+04 -1.78740E+02  1.19546E+04  3.66963E+03  1.47902E+04 -4.37656E+02
  1.97060E+04  4.18638E+02  1.85991E+04  1.49004E+04  1.64706E+04  3.15935E+04 -5.99375E+02  4.28365E+04
 -2.18705E+04  3.26744E+04 -4.11460E+04  1.79334E+04 -3.71554E+04  2.47184E+03 -3.44287E+04 -2.91674E+04
 -1.00173E+04 -3.52190E+04  1.90770E+04 -3.79471E+04  2.79819E+04 -1.40255E+04  2.22784E+04  7.53903E+03
  8.10913E+03  1.63334E+04 -8.96920E+03  1.83909E+04 -1.96940E+04  2.28415E+03 -1.89620E+04 -1.19508E+04
 -1.79052E+03 -1.96721E+04  4.93282E+03 -1.17588E+04  8.88034E+03  1.12402E+03  2.93434E+03  1.13528E+04
 -9.65940E+03  5.70196E+03 -9.86190E+03 -1.12694E+04 -1.35981E+03 -1.81335E+04  6.42127E+03 -2.03650E+04
  1.84301E+04 -9.87144E+03  1.83527E+04  2.47038E+03  2.24660E+04  1.91036E+04  1.18188E+04  2.86389E+04
 -6.83016E+03  1.98957E+04 -1.92218E+04  1.79191E+04 -1.67210E+04 -2.22492E+03 -1.64146E+04 -8.73780E+03
 -9.87283E+03 -8.18959E+03 -2.26758E+03  1.39220E+02  3.46277E+03  2.13780E+03 -9.66226E+03  9.20402E+03
 -1.22336E+04 -4.02948E+03 -1.36331E+04 -1.10192E+04 -8.60379E+03 -2.08179E+04  8.39478E+03 -1.12956E+04
  9.90188E+03 -7.05791E+03  9.82217E+03  5.77940E+03  7.77799E+03  7.94053E+03 -8.38438E+02 -2.15552E+03
 -9.02683E+03 -8.60898E+03  2.66788E+03 -1.23224E+04  9.19592E+03 -1.48660E+04  1.69775E+04 -1.18874E+04
  2.38148E+04 -1.97482E+03  1.39898E+04  9.35231E+03  1.50855E+03  1.66474E+04 -9.99269E+03  1.42090E+04
 -8.21110E+03  4.57621E+03 -8.18607E+03  2.02038E+02 -4.31492E+02 -2.15227E+03  9.93784E+03 -2.76157E+03
  7.72843E+03  9.89221E+03  2.12079E+03  1.24247E+04 -6.47972E+03  7.59389E+03 -1.55926E+04  3.54294E+03
 -8.29406E+03 -1.23697E+04  1.63751E+03 -1.37790E+04  4.91941E+03 -4.87277E+03  7.80208E+03  6.07901E+02
  3.09551E+03  5.80840E+03 -5.19740E+03  1.02480E+04 -1.39734E+04  4.57247E+03 -1.22538E+04 -3.45073E+03
 -7.23757E+03 -1.40502E+04  6.85358E+02 -1.66126E+04  1.43000E+04 -9.29714E+03  1.89529E+04  8.44061E+03
  9.14972E+03  1.16413E+04 -2.54188E+03  1.09128E+04 -9.23763E+03  1.06005E+04 -1.09169E+04 -2.27071E+03
 -9.55977E+03 -9.17751E+03 -5.49625E+02 -1.67286E+04  8.57193E+03 -5.90062E+03  7.69295E+03 -4.11535E+03
  7.33294E+03  1.13051E+03 -1.96347E+02  8.15458E+03  4.36154E+03  1.82390E+03  4.10444E+03 -8.61906E+03
  9.97493E+03 -4.08073E+03  1.73744E+04 -9.43637E+02  1.24907E+04  1.06418E+04  9.55603E+03  2.17428E+04
 -4.28476E+03  1.93065E+04 -1.79844E+04  1.61118E+04 -2.02670E+04  3.50683E+03 -1.73955E+04 -3.38513E+03
 -6.63423E+03 -1.76131E+04 -9.44246E+01 -1.67915E+04  3.69752E+03 -1.06171E+04 -1.37279E+03 -4.88383E+03
  4.69392E+03 -5.67609E+03  6.12785E+03 -1.78692E+03  4.94186E+03  3.97409E+02  1.10158E+04  3.28260E+01
  1.25333E+04  4.56978E+03  1.63185E+03  5.73135E+03  1.27999E+03  6.67904E+03 -8.93660E+03  5.14695E+03
 -1.23724E+04  5.86639E+00 -1.26447E+04 -7.57052E+03  3.12780E+02 -1.41476E+04  1.16881E+04 -1.45268E+04
  1.69468E+04 -6.12414E+03  2.37301E+04 -2.08769E+03  1.09182E+04  1.14281E+04  8.11964E+03  1.52333E+04
 -6.77830E+03  1.40746E+04 -1.17274E+04  5.64060E+03 -5.99055E+03 -1.44710E+03 -1.81248E+03 -7.25994E+03
 -2.15576E+03 -1.28739E+03  4.39588E+02  4.04838E+03 -2.69700E+03  6.87599E+02 -7.71112E+03  5.41420E+03
 -6.14026E+03 -5.63874E+03  3.73760E+02 -1.14357E+04  8.05464E+03 -8.54059E+03  7.05116E+03 -3.16483E+03
  1.50806E+04  9.31753E+03  5.29457E+03  1.34418E+04 -4.99232E+03  1.45933E+04 -1.08949E+04  1.14933E+04
 -8.35784E+03 -9.78731E+02 -1.61217E+04 -5.44773E+03 -5.20521E+03 -8.82030E+03  1.22873E+03 -7.04851E+03
  1.21191E+04 -2.89780E+03  6.30645E+03  2.57160E+03 -2.13610E+03 -4.72060E+02  3.97170E+03 -5.42417E+02
  5.66985E+03  9.93235E+02  3.98237E+03 -3.23423E+03  2.61913E+03  3.03010E+03  6.04157E+03  3.27607E+03
 -3.38586E+03  9.59934E+03 -6.46670E+03  7.25005E+03 -9.36533E+03  1.17781E+03 -1.28077E+04 -1.32719E+03
 -3.81701E+03 -1.14671E+04  5.62617E+03 -1.10503E+04  1.09455E+04 -1.01466E+04  9.39382E+03 -1.80236E+03
  1.37011E+04  9.63563E+02  7.19508E+03  8.00203E+03 -5.90984E+03  6.68985E+03 -1.95300E+03 -1.39184E+03
  9.02734E+02 -1.17916E+04  6.98671E+03 -7.88687E+03  1.25653E+04  9.80507E+01 -3.46137E+02  4.25311E+03
 -1.87894E+03 -2.72114E+03  3.11946E+03  5.71667E+03 -1.48176E+03  7.38825E+01  4.84932E+03  8.76215E+03
  2.67342E+03  2.36267E+03  6.57547E+03  6.86297E+03  6.60207E+03  8.07995E+03 -4.53609E+03  9.29976E+03
 -6.59184E+03  3.97681E+03 -8.52878E+03  4.97999E+03 -3.84676E+02 -5.62531E+03  1.34678E+03 -4.40108E+03
  2.04450E+03 -5.25302E+03  4.10159E+03  3.70726E+03  4.38849E+03  6.97925E+03  2.53796E+03  4.97461E+03
 -1.08384E+04 -1.45182E+03 -9.50954E+03 -9.76265E+02 -8.40217E+02 -7.71099E+03  2.21959E+03 -9.97794E+03
  5.47713E+03  4.85968E+03  6.08305E+03  2.71334E+02  6.29261E+03 -1.08378E+03 -1.38913E+02  1.67392E+03
 -5.61578E+03  2.29387E+03 -1.62858E+03 -1.33163E+03  4.13980E+03 -8.85610E+03  6.63717E+03  2.83871E+03
  1.15624E+04 -1.95996E+03  7.87560E+03  4.82520E+03  7.36188E+03  1.24580E+04 -1.14760E+03  5.92590E+03
 -2.46930E+03  2.36612E+03 -4.79599E+03  2.80323E+03  4.36961E+02 -5.00893E+03  6.49448E+03 -9.26545E+03
  8.46184E+03 -6.97055E+03  9.37275E+03  5.10887E+03  1.09520E+03  6.17733E+03 -3.36797E+02  6.00930E+03
  2.29325E+03  2.86479E+03  2.17288E+02  3.04318E+03 -1.32961E+03  5.02082E+03  1.01227E+03 -1.32192E+02
 -1.16129E+03  6.21141E+03  3.43385E+03  6.97943E+03 -6.12862E+02 -3.31757E+03 -9.76434E+03  1.87346E+03
 -3.03185E+03 -9.91657E+03 -4.01745E+02 -1.41529E+04  8.47130E+03 -9.41274E+03  1.51300E+04 -3.71352E+03
  1.95573E+04 -1.75253E+03  2.03817E+03  9.92911E+03 -3.87249E+03  1.34964E+04 -1.61020E+02  4.30644E+03
 -3.57458E+03 -3.63090E+03 -4.39280E+03  2.67107E+03 -1.71928E+03  3.82988E+03 -1.16974E+03  9.90393E+02
  1.29205E+03  3.20596E+03 -8.08971E+03 -1.18406E+03  1.69391E+03 -2.77057E+03  4.29429E+03  1.15007E+03
  1.05579E+03 -8.50905E+03  3.17093E+03  7.40555E+02  7.74362E+03  7.79043E+03  1.70568E+03  6.16791E+03
 -7.19954E+03  1.03984E+04 -7.45567E+03  6.13773E+03 -8.10769E+03  4.40388E+02 -8.34022E+03  2.95686E+03
  2.78046E+03 -3.99100E+03  1.93194E+03 -8.69760E+03 -4.04701E+02 -2.85305E+03  6.46186E+03 -3.06146E+03
  1.62843E+03 -2.11933E+02 -4.63576E+03  6.82681E+03 -7.58255E+03 -3.57690E+03 -2.88904E+03  4.78951E+02
  6.38106E+03  3.51243E+02  4.47811E+03  7.42194E+02  1.66182E+03  2.86538E+03 -7.11417E+01  2.53485E+03
 -9.66357E+03  5.85001E+03 -7.22902E+03 -7.24810E+01 -7.20255E+03 -1.99889E+03 -4.06291E+03 -9.08796E+03
  8.51287E+03 -2.71121E+03  4.58452E+03 -4.72229E+02  6.40272E+03 -1.80698E+03  9.14980E+03 -2.65440E+03
 -1.48929E+02  1.93172E+03 -6.17338E+03  1.76958E+03 -4.78400E+03  8.28252E+03 -1.32653E+03  3.89875E+03
  2.51965E+02 -2.38214E+02 -2.67003E+03 -4.12278E+03  3.35738E+03  2.37014E+03 -3.91914E+03  7.24557E+02
 -7.13724E+03  1.10739E+02  1.09630E+03 -9.19276E+03  4.12435E+03 -1.08074E+04  4.24551E+03 -1.81427E+03
  8.39638E+03 -5.72486E+02 -4.20250E+02  7.04675E+03  6.10379E+02  3.27761E+03 -9.73535E+03  6.87932E+03
