 $NMID ID='MM_0lb_SNR50_18hz_g50_1.RAW', FMTDAT='(8E13.5)'
 TRAMP=1., VOLUME=1. $END
  3.04777E+05  1.14187E+03  3.36997E+05  2.53263E+05  8.24119E+04  3.40478E+05 -1.31366E+05  2.48496E+05
 -1.89088E+05  7.95053E+04 -1.10439E+05 -3.44001E+04  2.45939E+03 -5.17968E+04  5.47615E+04  9.92062E+02
  3.58942E+04  5.11451E+04 -1.72031E+04  7.32074E+04 -5.71630E+04  5.81943E+04 -8.28975E+04  3.27416E+04
 -7.68466E+04 -1.01011E+04 -5.82401E+04 -5.05549E+04 -1.50337E+04 -6.44127E+04  2.97145E+04 -4.72863E+04
  3.81149E+04  3.47231E+03  1.37590E+04  4.67804E+04 -3.41361E+04  4.42465E+04 -6.27512E+04  5.15339E+03
 -5.22161E+04 -6.00145E+04 -5.56293E+03 -7.33181E+04  3.30718E+04 -5.35090E+04  4.72889E+04 -1.22590E+04
  4.32272E+04  1.33586E+04  2.96765E+04  2.30424E+04  1.28919E+04  2.91081E+04 -4.36214E+03  2.69651E+04
 -2.04037E+04  1.00146E+04 -1.87646E+04 -4.88231E+03  6.34860E+03 -5.04615E+03  2.40581E+04  1.36000E+04
  6.55863E+03  3.10327E+04 -3.44859E+04  3.61666E+04 -6.19669E+04  3.43784E+03 -5.73162E+04 -4.19090E+04
 -1.15746E+04 -6.09225E+04  3.70671E+04 -4.56840E+04  5.88778E+04 -2.18176E+03  3.51267E+04  3.91940E+04
 -9.15391E+03  3.27687E+04 -2.75863E+04  1.83948E+04 -2.92151E+04 -3.48188E+03 -1.66445E+04 -1.27169E+04
 -5.44949E+03 -1.77726E+04  7.48147E+02 -1.86336E+04  1.01707E+04 -2.41920E+04  1.90018E+04 -1.39156E+04
  9.05690E+03  5.68886E+03 -6.65629E+03  1.14197E+04 -2.09395E+04  1.00379E+01 -9.33271E+03 -2.73543E+04
  1.85759E+04 -3.73881E+04  4.42227E+04 -1.67705E+04  4.35175E+04  2.13910E+04  9.61419E+03  4.02318E+04
 -1.85538E+04  3.49977E+04 -2.41377E+04  7.33020E+02 -7.86656E+03 -2.55916E+04  2.08722E+04 -3.26320E+04
  4.43710E+04 -9.12610E+03  3.02298E+04  2.35771E+04  1.57451E+04  3.97624E+04 -9.53742E+03  4.54123E+04
 -3.06438E+04  3.39518E+04 -3.72469E+04  7.28034E+03 -3.97226E+04 -1.60804E+04 -2.29461E+04 -3.53563E+04
  4.21788E+03 -3.46971E+04  3.14767E+04 -1.53413E+04  2.74641E+04  7.83647E+03  7.68159E+03  2.10704E+04
 -1.20762E+04  8.24606E+03 -9.93390E+03 -3.64341E+03  5.78768E+03 -1.03208E+04  1.30860E+04  2.35864E+03
  1.66503E+04  2.49185E+04 -7.07829E+03  2.71134E+04 -2.04021E+04  1.79446E+04 -2.23248E+04 -4.07151E+03
 -1.35500E+04 -1.64837E+04 -3.28347E+03 -1.85782E+04  6.86796E+03 -1.66449E+04  1.20509E+04 -1.17238E+04
  2.02219E+04 -7.84180E+03  2.68670E+04 -1.00844E+03  2.19376E+04  1.50289E+04  4.49760E+03  3.42827E+04
 -1.62227E+04  2.86573E+04 -2.35424E+04  1.04387E+04 -1.98696E+04 -1.04450E+04 -5.04079E+03 -1.53603E+04
  4.19399E+03 -4.32130E+03 -6.80961E+03  6.42579E+03 -1.15227E+04  1.88293E+03 -1.34309E+04 -5.56913E+03
 -8.36733E+03 -2.11545E+04  3.44899E+03 -2.36532E+04  1.43307E+04 -1.26387E+04  1.29554E+04 -3.91188E+03
  8.92744E+03  1.03155E+04 -2.90623E+03  1.41786E+04 -9.37456E+03  1.07992E+04 -1.53307E+04 -4.11282E+03
 -1.38811E+04 -1.34026E+04 -2.75300E+03 -1.98705E+04  9.00107E+03 -1.70000E+04  1.25095E+04 -8.22653E+03
  1.71152E+04  5.23233E+03  1.31753E+04  4.05187E+03  5.24770E+03 -1.92028E+03  5.35618E+03 -9.26976E+02
  1.60739E+04  1.68935E+03  1.53959E+04  1.47817E+04  1.21376E+04  2.81837E+04 -6.88908E+03  2.48411E+04
 -1.72231E+04  2.26070E+04 -2.86452E+04  8.64679E+03 -2.84750E+04 -3.23836E+03 -2.63962E+04 -1.61205E+04
 -7.93566E+03 -2.13444E+04  5.65603E+03 -2.10268E+04  1.74108E+04 -9.90183E+03  1.72017E+04  1.76733E+03
  1.03385E+04  1.20370E+04 -7.52265E+03  1.12750E+04 -9.18133E+03  1.96010E+03 -1.20104E+04 -1.33333E+04
  2.67763E+03 -1.19199E+04  4.53139E+03 -1.42340E+04  8.18308E+03 -8.35892E+02  3.67643E+03  4.20517E+03
 -8.92330E+03  7.84605E+02 -2.74833E+03 -8.52862E+03  3.83969E+03 -1.19432E+04  7.94985E+03 -7.78476E+03
  1.01119E+04 -8.04544E+03  1.60993E+04  6.91619E+03  1.30910E+04  1.43196E+04  8.71322E+03  1.22734E+04
 -3.58186E+03  1.46432E+04 -9.09062E+03  1.13475E+04 -1.30255E+04  1.43103E+03 -7.24586E+03 -1.28672E+03
 -6.77497E+03 -5.13201E+03  5.54761E+02  1.09412E+03 -4.64442E+03  1.82945E+03 -4.59560E+03  4.59937E+02
 -1.00349E+04 -4.38972E+02 -6.89896E+03 -1.28806E+04 -4.77558E+01 -1.14839E+04  4.51633E+03 -1.20686E+04
  9.86185E+03 -3.63682E+03  7.36069E+03  4.45593E+02  1.70442E+03  7.60780E+03 -6.38571E+03 -5.74556E+02
  7.74838E+02 -5.06251E+03  6.88575E+02 -1.00942E+04  3.55761E+03 -1.13242E+04  1.10484E+04 -3.86680E+03
  1.38424E+04 -1.42153E+03  8.22597E+03  1.01851E+03  8.90141E+02  6.58800E+03 -6.80682E+03  5.74345E+03
 -6.55236E+03  4.87964E+02 -2.87280E+03 -2.19621E+02  4.46097E+03 -6.57325E+03  3.86356E+03 -5.73183E+03
  5.27069E+03  4.44561E+03  3.60207E+03  5.48688E+03 -4.60484E+03  7.99494E+03 -6.63759E+03 -4.16363E+03
 -4.57821E+03 -1.83502E+03  6.53190E+02 -4.50776E+03  3.88246E+03  1.70241E+02  1.76018E+03  1.74663E+03
 -1.61951E+03  3.75474E+03 -2.28203E+03  4.71864E+03 -7.86393E+03 -9.62481E+02 -2.80937E+03 -1.04678E+03
 -1.84808E+03 -9.18607E+03  1.43234E+03 -7.40156E+03  4.33130E+03 -3.63012E+03  7.40262E+03 -1.81506E+03
  6.60579E+03  6.00997E+03  2.60358E+03  9.60335E+03 -6.79215E+03  1.10645E+03 -7.19728E+03 -2.68493E+03
 -7.15155E+03 -6.85120E+03  6.26270E+03 -9.88663E+03  1.26747E+03 -8.16020E+02 -2.54234E+02 -2.84104E+03
  7.45726E+03 -1.28517E+03  3.17550E+03  1.24253E+03  2.73463E+03 -5.25998E+03 -1.79371E+03 -3.25992E+03
  5.69150E+03 -2.77695E+03  4.05480E+03  4.09909E+03  6.31029E+03  4.90804E+03  5.46700E+03  1.22555E+04
 -1.25804E+03  5.35675E+03 -9.84120E+03  2.76023E+03 -1.04145E+04  2.30330E+03 -9.68519E+03 -1.61143E+03
 -1.89816E+03 -6.78863E+03  1.49175E+02 -3.60284E+03  7.80675E+02 -2.42613E+03  1.52651E+03 -1.12163E+03
  3.69453E+03 -2.56580E+03  4.21280E+03 -1.70586E+03  2.13818E+03 -4.24360E+03  5.91671E+03 -1.85411E+03
  9.95912E+03  2.53675E+03  1.47051E+03  7.39993E+03 -1.17202E+03  3.10456E+03 -7.42937E+03  1.38651E+03
 -3.02734E+03 -2.88577E+03 -3.72097E+03 -7.55016E+03 -8.94570E+02 -3.99711E+03  7.34155E+03 -7.73287E+03
  1.36791E+03 -3.69801E+03  1.07787E+04  1.21561E+03  9.47181E+02  6.47354E+03 -8.76136E+02  1.14782E+04
  1.93219E+03  7.90340E+03 -4.53418E+03  2.89759E+03 -9.23748E+02 -8.98660E+01 -3.45549E+03 -7.67503E+02
 -1.58295E+02  3.81012E+02 -1.06232E+03  3.23649E+03 -4.17055E+03 -5.07983E+01 -6.18190E+03 -3.59344E+03
 -5.63972E+03 -2.59468E+03  8.33177E+02  1.60438E+03  7.74496E+03 -4.65759E+03  3.13107E+03 -1.19591E+03
  4.56154E+03  1.30037E+03  1.13154E+03  4.23140E+03  8.55861E+02  3.18420E+03 -5.77795E+03  2.93180E+03
 -6.56552E+03  4.24272E+02 -3.58375E+03 -2.61688E+03 -6.73451E+02 -4.50738E+03  2.64702E+03  3.70369E+02
  4.02470E+03 -4.84826E+03  6.54447E+02  1.70467E+02  1.26969E+03  2.47195E+03 -1.23657E+02 -6.56398E+02
  2.97719E+03 -3.44780E+03  3.02826E+03 -1.08887E+03  5.63691E+02  6.10114E+03  7.49904E+02  3.03411E+03
 -1.68040E+03  4.00584E+03 -7.07123E+03  2.96379E+03 -1.53086E+03  6.12512E+02 -7.53655E+03 -2.67949E+03
 -4.82999E+03 -1.27554E+00  2.90809E+03 -3.82463E+03  3.23845E+03 -7.30133E+02  1.93186E+03 -8.60265E+02
  4.26352E+02  2.66657E+03 -1.35207E+03  2.76579E+03 -1.81213E+03  1.53880E+03 -1.05016E+03 -1.18058E+03
 -3.10249E+03 -3.04589E+02  4.74840E+03 -1.65837E+03  2.91178E+03  2.08424E+03  4.55914E+03 -5.64662E+02
  1.00600E+03  8.99965E+02 -1.31111E+03  1.70293E+03 -3.87593E+02  1.22315E+02 -4.14674E+03  9.86290E+02
 -6.42996E+02  3.13053E+02  4.17828E+03  3.25677E+03  7.76064E+02  1.57530E+03 -2.36151E+03  3.20598E+03
 -2.33392E+03 -3.26842E+03 -4.38205E+03 -2.27039E+03 -5.23921E+03  1.29602E+03  3.32889E+03 -4.02852E+03
  3.89415E+03  2.45614E+02  1.16066E+03 -1.76426E+02 -3.45050E+03 -2.18432E+02 -1.18802E+03 -3.19736E+02
 -3.98518E+03  2.53935E+03 -2.69300E+03 -2.09552E+03 -2.11569E+03  7.92832E+02  5.22410E+03 -1.65754E+03
  2.78160E+03 -1.01922E+03  1.61710E+03 -3.04261E+03  5.96339E+02 -8.40429E+02 -2.39985E+03  9.10788E+02
 -1.90877E+03 -2.36841E+03 -7.13748E+03  1.84031E+03 -9.92345E+02 -8.77245E+02  2.63176E+03 -4.29566E+02
  1.87363E+03  3.34338E+03  3.54124E+03 -1.94941E+03 -2.90667E+03  1.17190E+03 -1.01389E+03  2.14533E+03
 -8.27906E+02 -2.54571E+03 -1.85389E+02 -2.51746E+03  8.87392E+02 -3.50156E+03 -2.31773E+03 -2.98742E+03
  3.89274E+03  1.80711E+03  1.92980E+03 -9.52697E+02 -3.33876E+02  4.04248E+03 -5.17299E+02  3.98183E+02
  3.83865E+02  2.09662E+03 -2.96882E+03  2.86829E+03  2.75805E+03  1.45452E+03  9.60078E+02  2.51701E+03
  1.93589E+03  5.57037E+02 -1.56258E+02 -1.47602E+03 -3.57865E+03 -5.88241E+01  1.96340E+03 -1.57769E+03
  1.78834E+03 -1.07566E+03  4.27912E+01 -3.62824E+03  2.20063E+03 -6.79569E+03 -1.83275E+03 -6.31258E+03
 -5.95482E+02  1.48275E+03  3.25783E+03  1.77463E+03 -2.98041E+03  4.45104E+03 -2.74521E+03  2.80690E+02
 -5.12684E+03 -2.62408E+02 -5.36239E+02  5.46676E+03 -2.96866E+03 -2.45830E+03 -3.08671E+03  3.41548E+03
 -1.19533E+02 -2.59947E+03  3.43845E+02  6.65772E+02 -1.65840E+03  2.71650E+03 -1.03140E+03  9.86929E+02
  3.43138E+03  2.28744E+03  3.57509E+03  4.56077E+02  9.62212E+02  4.94838E+02 -1.11959E+01  4.62268E+02
 -1.78877E+03 -1.06765E+03  8.60183E+01 -4.05646E+02 -7.62955E+02  1.84857E+03  8.25798E+02  6.25224E+02
 -1.22017E+03 -8.14535E+02  6.25948E+03 -8.10637E+02  5.72987E+03 -3.24182E+02  5.85046E+03 -6.07504E+02
  1.21613E+03  7.95165E+02 -3.73029E+02  2.20219E+03  3.89358E+03 -1.33196E+03  2.25927E+03 -3.70846E+03
 -1.35501E+03  2.96692E+03  3.35957E+03  5.79884E+02  4.86915E+03 -2.45565E+03  4.77298E+03 -2.86234E+03
 -2.22428E+03  2.14680E+03  2.03578E+03  1.47269E+03 -1.21888E+03  1.99542E+02  1.50774E+02 -2.18873E+02
 -1.88159E+03  1.56298E+03  1.09974E+02  4.51651E+02 -2.73186E+03 -6.29735E+01  1.07330E+03  2.35155E+03
 -3.16110E+02  1.56596E+02  1.27916E+03  4.85091E+02 -4.49072E+03 -1.70651E+03  1.32175E+03 -1.41351E+03
  4.64087E+02  1.42398E+02 -7.31217E+02  2.91463E+03 -5.87790E+03  3.59963E+03  4.93678E+03 -3.78477E+03
  2.57898E+02  3.74413E+03 -3.64815E+03  8.00834E+01  8.14208E+02  4.72682E+02 -1.85953E+03 -4.79313E+03
  2.84022E+03 -1.87025E+03 -8.12889E+02 -1.21118E+02  2.36829E+02 -1.43535E+03  1.01163E+03  4.50836E+02
