 $NMID ID='MM_0lb_SNR50_18hz_g60_28.RAW', FMTDAT='(8E13.5)'
 TRAMP=1., VOLUME=1. $END
  3.14911E+05 -2.28042E+03  3.36964E+05  2.49188E+05  8.82363E+04  3.37025E+05 -1.29577E+05  2.50450E+05
 -1.90009E+05  8.43074E+04 -1.11870E+05 -3.34754E+04  3.73706E+03 -4.79870E+04  5.09508E+04  8.95264E+02
  3.47290E+04  4.95508E+04 -1.96351E+04  7.24629E+04 -5.84539E+04  6.45873E+04 -8.54392E+04  3.29345E+04
 -8.47514E+04 -1.19259E+04 -5.76536E+04 -5.30609E+04 -1.44375E+04 -7.00070E+04  2.44113E+04 -4.32420E+04
  3.81645E+04  6.88943E+03  1.86622E+04  4.65089E+04 -3.50273E+04  4.54891E+04 -6.83164E+04 -1.37835E+03
 -5.49405E+04 -5.43475E+04 -2.66258E+03 -8.01710E+04  4.00195E+04 -5.44052E+04  4.72968E+04 -1.76551E+04
  4.50971E+04  1.06771E+04  3.13721E+04  2.43788E+04  1.31433E+04  2.92481E+04 -5.11933E+03  2.76344E+04
 -2.27757E+04  1.14201E+04 -2.06987E+04  2.91494E+02  3.95113E+03 -8.40090E+03  2.33156E+04  8.27014E+03
  9.24228E+03  3.53954E+04 -3.35645E+04  3.73766E+04 -6.37338E+04  1.64584E+01 -6.05145E+04 -4.31155E+04
 -1.41404E+04 -6.39835E+04  4.00631E+04 -4.41216E+04  5.79560E+04 -2.30793E+03  3.69773E+04  3.35735E+04
 -8.92320E+03  3.69003E+04 -2.88233E+04  1.10178E+04 -2.53477E+04 -4.37897E+03 -1.94431E+04 -1.26420E+04
 -8.74175E+03 -1.55202E+04 -1.45005E+03 -1.65849E+04  6.04217E+03 -2.14721E+04  1.49337E+04 -1.15928E+04
  1.43195E+04  8.55306E+03 -6.52646E+03  1.09890E+04 -1.69738E+04 -3.43787E+03 -5.13415E+03 -3.52205E+04
  2.26422E+04 -4.45749E+04  4.58296E+04 -1.98329E+04  4.55713E+04  1.97611E+04  1.56217E+04  4.83331E+04
 -1.66048E+04  3.80208E+04 -2.36969E+04  5.37720E+03 -9.98530E+03 -2.95359E+04  2.18632E+04 -3.40731E+04
  4.33327E+04 -1.09037E+04  3.58804E+04  2.46198E+04  1.55635E+04  4.55595E+04 -7.61085E+03  4.50115E+04
 -3.22203E+04  3.15115E+04 -3.97332E+04  6.95620E+03 -4.19095E+04 -1.59454E+04 -2.16764E+04 -3.49340E+04
  7.95784E+03 -3.56926E+04  2.84168E+04 -1.45124E+04  2.89741E+04  1.19380E+04  4.97742E+03  2.32681E+04
 -1.19275E+04  6.86195E+03 -9.52218E+03 -1.00738E+04  5.95279E+03 -1.09792E+04  1.86884E+04  2.66197E+03
  1.35531E+04  2.12984E+04 -6.37857E+03  2.55696E+04 -2.18986E+04  1.16392E+04 -2.85817E+04 -4.58090E+03
 -2.04787E+04 -1.59561E+04 -8.49511E+03 -1.53539E+04  7.02723E+03 -1.69886E+04  1.47199E+04 -1.69878E+04
  2.36820E+04 -1.40325E+04  2.56041E+04  2.22402E+03  2.30862E+04  1.63010E+04 -5.02631E+02  3.26590E+04
 -1.50984E+04  3.20573E+04 -3.01368E+04  9.13471E+03 -2.09106E+04 -9.16617E+03 -6.34200E+03 -1.25480E+04
  2.00980E+03 -3.55799E+03 -2.34176E+03  5.35706E+03 -1.48799E+04  8.32464E+03 -1.53182E+04 -3.75759E+03
 -8.98660E+03 -1.86633E+04  6.55214E+03 -2.05225E+04  1.56147E+04 -1.21307E+04  1.92015E+04 -1.61216E+03
  1.01993E+04  1.02177E+04 -8.96219E+02  2.06902E+04 -1.26798E+04  1.09359E+04 -2.08106E+04 -1.31953E+03
 -1.09855E+04 -1.51965E+04 -4.74106E+03 -2.13949E+04  8.08669E+03 -1.60828E+04  1.78115E+04 -8.41285E+03
  1.57442E+04  1.65169E+03  1.18163E+04  4.33440E+03  5.11830E+03  1.84767E+01  3.08561E+03 -7.35409E+02
  1.65764E+04  4.75264E+03  1.60311E+04  8.35949E+03  1.51322E+04  2.73643E+04 -6.80040E+03  2.74185E+04
 -1.75913E+04  2.40087E+04 -2.84181E+04  1.01266E+04 -3.19846E+04  3.03888E+03 -2.90644E+04 -1.67348E+04
 -9.46583E+03 -2.36057E+04  1.02939E+04 -2.07841E+04  1.51721E+04 -8.85381E+03  1.97032E+04  8.24375E+03
  9.38896E+03  1.17233E+04 -7.75653E+03  1.13445E+04 -1.73345E+04  5.04409E+03 -1.46695E+04 -8.85453E+03
 -8.15905E+01 -1.36751E+04  3.77325E+03 -1.40669E+04  8.24175E+03 -2.77136E+02  6.30063E+03  9.58664E+03
 -4.78162E+03  1.77364E+03 -4.83242E+03 -7.35623E+03  7.59200E+02 -1.03089E+04  5.65807E+03 -1.25358E+04
  1.24671E+04 -4.68742E+03  2.03071E+04  1.13391E+03  1.51211E+04  8.52618E+03  4.17591E+03  1.77122E+04
 -4.75442E+03  1.66124E+04 -1.24591E+04  1.07029E+04 -1.19297E+04  9.19824E+02 -8.99976E+03 -1.45774E+03
 -6.31684E+03 -3.58656E+03 -7.67493E+02  4.84332E+03 -3.17459E+03 -1.92766E+03 -6.88354E+03  6.36075E+03
 -1.08019E+04 -2.05983E+03 -6.35523E+03 -9.86206E+03 -2.78469E+03 -1.00055E+04  4.60805E+03 -6.98274E+03
  5.55894E+03 -6.17702E+03  5.42737E+03  2.69434E+03  3.29238E+03  3.16596E+03  1.89988E+02  5.48173E+02
 -1.65131E+03 -3.32668E+03  1.66970E+03 -1.33423E+04  2.47391E+03 -9.84995E+03  4.52850E+03 -5.30812E+03
  6.76485E+03  2.05050E+03  1.21496E+04  7.86737E+03 -1.35459E+03  1.35561E+04 -4.42795E+03  7.94183E+03
 -9.41617E+03  5.87839E+03 -1.18677E+03  9.36295E+02 -1.71794E+03  5.85922E+02  5.29572E+03 -3.51796E+03
  6.04066E+03  6.62792E+02  4.80724E+03  7.23162E+03  1.12095E+03  5.65915E+03 -1.00548E+04  4.10773E+03
 -6.21130E+03 -2.83297E+03 -2.03732E+03 -8.29806E+03  1.86833E+03 -2.07918E+03  1.59229E+03  2.85170E+03
 -1.35603E+03 -2.50068E+02 -2.15532E+03  1.09590E+03 -9.39424E+02  4.20614E+03 -6.64660E+03 -7.51607E+03
 -5.67384E+03 -6.13695E+03 -1.79303E+03 -5.31258E+03  6.38536E+03 -6.68852E+03  5.79475E+03  4.54132E+03
  3.06858E+03  7.68801E+03  2.94020E+03  1.31500E+04 -2.69530E+03  3.12693E+03 -2.47965E+03  1.14572E+03
 -9.06474E+03 -9.64391E+03  2.06578E+03 -7.01861E+02  4.32597E+03 -4.65082E+03  5.32763E+03 -4.15433E+03
  3.34483E+03 -4.87919E+03 -2.47604E+03  2.68262E+03 -1.82261E+03  1.99419E+03  3.15517E+03 -8.89272E+02
  5.47416E+03 -1.68576E+03  8.75569E+03 -3.29800E+03  7.63308E+03  3.15050E+03  2.34905E+03  8.78403E+03
 -2.45616E+03  7.29023E+03 -1.03189E+04  8.19407E+03 -1.20124E+04  5.73242E+02 -9.91557E+03 -1.00261E+03
 -6.26525E+03 -7.67106E+03  3.37369E+03 -8.84309E+03  2.20652E+03  4.86027E+02  1.52881E+03  1.78192E+03
  3.24581E+03 -4.77072E+03  1.37724E+03 -2.98440E+03  7.71837E+03  3.09379E+02  4.35649E+03 -3.93542E+03
  5.34458E+03  1.48614E+03  4.48173E+03  2.39387E+03 -4.93198E+03  5.60063E+03 -1.07554E+04 -2.02798E+02
 -1.94834E+03  2.01985E+03 -2.84454E+02 -3.20202E+02  1.06812E+03 -4.49403E+03  2.00481E+03 -8.86154E+03
  8.02637E+03 -3.95513E+03  1.11221E+04 -1.45102E+03  4.37860E+03  3.57278E+03 -2.10508E+03  3.50801E+03
 -3.07409E+03  6.20550E+03 -6.04552E+03  3.52470E+03 -2.00314E+03 -3.10582E+02  8.03609E+02 -1.43367E+03
  7.66291E+02 -5.17190E+02 -2.75097E+03  1.50960E+03 -7.18305E+03  4.28862E+03 -3.86817E+03  2.48663E+03
 -1.18543E+03 -4.63588E+03 -2.26804E+03 -1.02509E+04  3.61427E+03 -1.65151E+03  6.95930E+03 -1.41067E+03
  6.38712E+03 -1.94264E+03  2.31110E+03  6.87539E+03 -4.00420E+02  4.99491E+03 -1.11428E+03  2.31151E+03
 -5.99886E+03  1.58181E+03 -2.13805E+03 -2.68743E+03  1.90053E+03 -6.51165E+03  3.16175E+03  2.25787E+03
  3.27841E+02 -1.65201E+03  3.18842E+03 -3.02557E+03 -1.43938E+03 -1.14464E+03 -3.71363E+02  1.39928E+03
  5.81030E+02  3.42802E+03 -1.16768E+01  1.04478E+03  4.97492E+03  4.77074E+03  4.19102E+03  3.24722E+03
 -1.89412E+03  3.50952E+03 -5.07832E+03  5.70644E+03 -5.99862E+03 -1.75361E+03 -3.76121E+03  4.50934E+02
 -5.25250E+03 -4.46388E+03  1.54728E+03 -4.31961E+03  2.91077E+03 -2.85401E+03  6.08411E+03 -1.15065E+03
  2.04682E+03 -1.85104E+02  2.13304E+03  2.71171E+03 -3.31342E+03  1.30770E+03  4.33829E+03  2.11236E+03
 -1.86264E+03  9.49415E+02  2.65658E+02 -6.32167E+03  9.80917E+01 -1.24139E+03  8.31285E+01 -1.18796E+03
  1.03962E+03  1.34668E+03  4.73215E+03  2.29117E+03 -1.32995E+03  2.18929E+03 -9.82522E+01  1.07782E+03
  2.07779E+02  2.31756E+03  4.97673E+02 -1.03751E+03 -3.90215E+03  2.29553E+03 -1.76243E+03  4.50132E+03
 -3.83385E+03 -2.55338E+03 -6.53588E+02 -5.67072E+03 -3.16002E+03  2.49131E+03  1.51321E+03 -1.75970E+03
  1.97250E+03 -3.58448E+03 -1.02692E+03 -1.87895E+03 -2.52041E+02  1.01213E+03  1.21340E+03  1.67050E+03
 -6.79322E+02  1.32238E+03 -1.20558E+03  1.36437E+03 -3.04893E+03 -3.97150E+03  2.10992E+03 -1.53400E+03
 -1.74533E+03 -3.41902E+03 -1.06430E+03 -2.74985E+03  2.16630E+03  2.95547E+03 -1.90798E+03 -2.66009E+02
  1.92918E+03 -1.86393E+03  1.67294E+03 -2.04889E+03  4.65400E+03  3.50424E+03  1.50508E+03 -2.45680E+03
  2.10607E+02 -3.86978E+03  4.67076E+03  4.37198E+03  1.56070E+03 -1.39140E+03 -1.72490E+03  3.49108E+02
 -1.37791E+03  1.05192E+03 -3.21615E+03  2.73523E+03 -3.49172E+03  5.54662E+03 -5.26720E+03  2.86583E+01
  4.49056E+03 -7.61146E+02 -1.95490E+03  2.51188E+03  2.98935E+02  2.15538E+03  1.76932E+03  1.08120E+03
  3.48037E+03  1.97361E+03 -4.00972E+03  3.22983E+02 -1.27967E+03 -3.39781E+03  3.57857E+02  3.62811E+01
 -7.57790E+02  4.54938E+01  2.41257E+02  3.32379E+03 -9.12094E+02 -1.00812E+02 -2.83727E+03  3.23571E+02
 -6.84966E+03 -1.69572E+03  6.29716E+02 -7.35862E+03  4.03567E+03 -3.38099E+03  5.26066E+03 -4.29987E+03
  5.68874E+03 -6.30097E+02  1.56734E+03  4.33137E+03 -1.76991E+03  2.61188E+03  2.03439E+02  3.13276E+03
 -8.92986E+02  2.10657E+03  7.23003E+02 -2.12899E+03 -2.70411E+03 -6.89697E+02  1.07189E+03  2.03355E+03
  2.23372E+03 -1.01741E+03 -2.48517E+03 -9.45297E+02 -5.24024E+02 -1.79857E+03 -3.17074E+02  1.83084E+03
 -1.89890E+03 -1.33959E+02 -2.45688E+03 -2.36339E+03  6.30120E+03  2.06953E+03  9.11826E+02  4.48809E+03
 -6.96644E+03  3.18863E+03  1.66341E+03  3.07511E+03 -1.77946E+03 -7.21592E+02 -2.71115E+02 -2.13287E+03
 -2.77483E+03 -4.56105E+02 -4.83652E+03 -6.93590E+03  7.60874E+02 -6.98857E+02  4.07641E+03 -2.41987E+03
 -1.92461E+02  5.91345E+01 -3.53742E+02  1.13122E+03 -1.73807E+03  7.44344E+02 -2.54429E+02 -1.01845E+03
 -2.87231E+02  1.31141E+03  1.74631E+02  1.13612E+03  2.98903E+03 -1.57609E+02  2.68482E+03  3.88079E+02
  6.49823E+02  2.09608E+03 -2.54852E+03 -6.14097E+02  3.02364E+02 -1.30778E+02 -3.14537E+03 -4.34152E+03
 -4.97194E+02 -1.05347E+03 -1.40018E+02  1.58425E+03  3.04985E+03  3.06138E+03 -4.48861E+03 -7.86705E+02
  3.07907E+03 -5.67309E+02  1.12277E+03 -1.06914E+03 -9.17661E+01 -9.64747E+02 -8.42985E+02  5.20526E+02
  6.71011E+02  1.32192E+02 -1.57232E+03 -2.72644E+02 -1.66198E+03 -6.07424E+02 -1.25091E+03 -2.10892E+03
  2.70410E+02 -4.03041E+03  1.22687E+02 -2.32732E+03  2.90806E+03 -4.68087E+03  3.14375E+02 -1.21129E+03
  1.55016E+02  2.39764E+03 -1.59922E+03 -7.72205E+02  2.32970E+03 -3.69095E+03 -8.85585E+02  1.07268E+03
