 $NMID ID='MM_0lb_SNR50_11hz_g60_95.RAW', FMTDAT='(8E13.5)'
 TRAMP=1., VOLUME=1. $END
  3.07063E+05  2.85531E+03  3.33251E+05  2.53878E+05  8.27483E+04  3.41120E+05 -1.27126E+05  2.50268E+05
 -1.88766E+05  7.95473E+04 -1.13644E+05 -3.83268E+04 -2.74908E+03 -5.19494E+04  5.54346E+04 -1.71632E+03
  3.22527E+04  5.51381E+04 -1.96115E+04  7.41416E+04 -5.68992E+04  6.48177E+04 -8.15887E+04  3.12818E+04
 -8.13860E+04 -1.37754E+04 -5.97773E+04 -5.59096E+04 -9.48950E+03 -6.79121E+04  3.18260E+04 -4.80909E+04
  4.13082E+04  8.48014E+03  2.13915E+04  4.41668E+04 -3.21917E+04  4.63788E+04 -7.10255E+04 -3.94568E+03
 -5.96241E+04 -5.56508E+04 -3.44969E+03 -7.78648E+04  3.27417E+04 -5.41531E+04  4.93770E+04 -2.39897E+04
  4.51796E+04  9.82326E+03  2.82856E+04  3.00962E+04  1.68245E+04  3.20281E+04 -6.46746E+03  3.27187E+04
 -1.97691E+04  1.24215E+04 -1.71920E+04 -2.73894E+02  8.73381E+03 -1.01897E+04  2.66292E+04  1.10861E+04
  1.00713E+04  3.96649E+04 -3.00078E+04  3.98228E+04 -6.19166E+04  2.46810E+03 -5.61064E+04 -4.60524E+04
 -1.12686E+04 -6.74619E+04  4.49313E+04 -5.20302E+04  6.45694E+04 -1.52539E+03  3.53247E+04  3.51308E+04
 -6.04323E+03  4.15645E+04 -3.04360E+04  1.97444E+04 -3.19859E+04 -1.57126E+03 -2.10141E+04 -1.44752E+04
 -1.07451E+04 -1.47777E+04 -1.58737E+02 -1.60928E+04  6.55797E+03 -2.42151E+04  2.12125E+04 -1.69291E+04
  1.41097E+04  4.01395E+03 -1.01645E+04  1.53860E+04 -2.33375E+04 -3.96052E+03 -1.17524E+04 -2.97514E+04
  2.47838E+04 -4.53491E+04  5.80883E+04 -2.08497E+04  5.05194E+04  2.12584E+04  1.76147E+04  4.58102E+04
 -1.47842E+04  3.95369E+04 -2.41559E+04  5.05254E+03 -1.15334E+04 -3.10809E+04  1.20784E+04 -3.03523E+04
  3.90714E+04 -1.42603E+04  3.38198E+04  2.47135E+04  2.24487E+04  4.92919E+04 -7.41125E+03  5.87680E+04
 -3.28407E+04  4.55892E+04 -4.95451E+04  7.97423E+03 -4.86883E+04 -1.96438E+04 -2.15635E+04 -4.23320E+04
  1.00393E+04 -4.47571E+04  2.64899E+04 -1.53707E+04  3.71956E+04  1.06578E+04  4.09768E+03  2.16595E+04
 -1.49619E+04  9.32976E+03 -1.10148E+04 -5.73822E+03  4.13787E+03 -1.48162E+04  1.95233E+04 -1.38060E+03
  1.26974E+04  2.43151E+04 -4.61501E+02  3.36647E+04 -2.00909E+04  1.38784E+04 -2.88517E+04 -2.72248E+03
 -2.84200E+04 -1.74398E+04 -1.09467E+04 -2.77953E+04  1.21801E+03 -2.97023E+04  2.40750E+04 -2.14645E+04
  2.66277E+04 -1.45225E+04  3.86880E+04  5.86915E+03  3.04152E+04  2.10677E+04  7.20070E+03  3.40645E+04
 -1.75768E+04  2.94410E+04 -2.96301E+04  1.50985E+04 -2.24413E+04 -8.36491E+03 -1.16411E+03 -1.19455E+04
 -1.05612E+03  2.24692E+03 -5.45181E+03  6.90903E+03 -1.95418E+04  7.77071E+03 -2.09723E+04 -1.57581E+04
 -1.08223E+04 -2.03019E+04  1.37110E+03 -3.09479E+04  2.02875E+04 -1.71789E+04  2.06535E+04 -1.95378E+03
  1.79319E+04  1.33586E+04 -1.02053E+03  2.04116E+04 -1.51441E+04  8.85919E+03 -2.67741E+04 -5.07394E+03
 -1.76416E+04 -2.10231E+04  2.20956E+02 -2.65414E+04  9.99648E+03 -2.12117E+04  2.35045E+04 -7.60129E+03
  2.19717E+04 -3.25172E+03  2.26135E+04  8.45697E+03  1.12899E+04  2.84538E+03  1.47445E+04 -7.79757E+03
  2.05425E+04  6.29577E+03  2.26050E+04  2.24929E+04  1.24843E+04  3.89154E+04  3.84352E+03  4.14132E+04
 -2.45531E+04  3.57749E+04 -4.07199E+04  1.72783E+04 -4.70201E+04 -6.00744E+03 -2.70535E+04 -2.82518E+04
 -1.57960E+04 -3.27840E+04  1.44264E+04 -2.79474E+04  2.49788E+04 -1.69412E+04  1.77663E+04  4.09345E+03
  2.01972E+04  1.69077E+04 -8.23456E+03  1.01096E+04 -1.95574E+04  1.01675E+03 -1.37746E+04 -6.01011E+03
  4.07856E+02 -2.10127E+04  1.10599E+04 -1.42201E+04  1.10741E+04 -3.69413E+03  7.32607E+03  8.08887E+03
 -1.42113E+04  5.90308E+03 -8.86603E+03 -6.65394E+03 -1.41719E+03 -1.79258E+04  1.03589E+04 -2.21222E+04
  1.94046E+04 -8.28437E+03  2.54248E+04  9.67659E+02  2.19063E+04  1.82787E+04  1.05614E+04  2.60772E+04
 -2.21711E+03  2.58955E+04 -2.23352E+04  1.36304E+04 -2.31230E+04  8.11333E+03 -1.48509E+04 -9.12226E+03
 -3.95587E+03 -1.12025E+04 -8.58396E+01 -2.79497E+03  2.75117E+03  1.19531E+03 -5.44175E+03  4.04017E+03
 -1.76436E+04 -2.34680E+02 -1.30743E+04 -9.90858E+03 -8.05179E+03 -1.71580E+04  3.15993E+03 -1.27434E+04
  1.63435E+04 -6.85694E+03  1.04349E+04  4.43885E+03 -4.09646E+03 -1.01028E+03 -5.31634E+03 -3.58339E+02
 -5.23499E+03 -8.82169E+03  2.71731E+03 -1.25262E+04  6.74817E+03 -1.61180E+04  1.45304E+04 -7.81583E+03
  1.83943E+04  1.26316E+02  1.89984E+04  1.41784E+04  2.48633E+03  1.73840E+04 -7.64521E+03  2.07391E+04
 -1.22721E+04  5.87353E+03 -3.18356E+03 -2.88458E+03  1.19511E+03 -9.54927E+03  1.11409E+04  2.22358E+03
  2.95615E+03  8.60409E+03 -7.51628E+02  1.42749E+04 -8.36119E+03  9.69022E+03 -1.61792E+04  1.74505E+03
 -8.06854E+03 -1.14392E+04  2.33622E+03 -9.72465E+03  1.24256E+04 -7.58846E+03  8.87607E+03  2.22411E+03
  3.98634E+03  8.57970E+03 -7.28765E+03  9.69528E+03 -1.67613E+04  3.73214E+03 -1.27145E+04 -2.41993E+03
 -1.17839E+04 -1.11385E+04  5.19308E+03 -1.01340E+04  1.32671E+04 -8.87659E+03  2.06970E+04  3.64832E+03
  1.63323E+04  6.73803E+03 -2.03519E+03  1.82393E+04 -9.79741E+03  4.12239E+03 -1.34834E+04  4.43146E+03
 -1.19329E+04 -9.33575E+03 -1.66937E+01 -1.66830E+04  4.15431E+03 -1.11580E+04  6.64480E+03 -3.58550E+03
  9.54515E+03 -5.19972E+03  4.59373E+02  5.81179E+03  5.10798E+02 -2.69968E+03 -4.42940E+02 -5.74036E+03
  1.73280E+04 -5.25376E+03  1.02997E+04  7.77665E+03  1.33121E+04  8.33745E+03  8.39545E+03  1.91937E+04
 -3.25436E+03  1.98939E+04 -1.54224E+04  1.88154E+04 -2.19240E+04  6.21006E+03 -1.87536E+04 -1.42802E+04
 -1.53849E+04 -1.74116E+04  6.66534E+03 -1.40789E+04  1.01183E+04 -7.68508E+03 -2.10269E+03 -5.44570E+03
  1.31011E+03 -4.32937E+03  4.34370E+03  3.61463E+02  7.06260E+03 -4.12096E+03  9.63639E+03  2.96196E+03
  9.93255E+03  2.77429E+02  3.50653E+03  9.48919E+03  4.83998E+02  1.34033E+04 -1.02278E+04  6.80296E+03
 -1.21387E+04  2.93815E+02 -5.61767E+03 -1.08434E+04 -2.61923E+03 -1.14973E+04  3.83703E+03 -1.33511E+04
  1.55174E+04 -9.60844E+03  1.99737E+04  2.10837E+02  1.09754E+04  1.48242E+04  5.56152E+03  1.53618E+04
 -4.60944E+03  1.24745E+04 -3.93160E+03  4.44629E+03 -9.69284E+03  8.46029E+02 -3.46459E+02 -2.85792E+03
 -7.19622E+03  4.46619E+03 -4.20062E+03  4.30765E+03 -9.00204E+03  2.03462E+02 -6.56274E+03  1.79099E+03
 -4.85479E+03 -6.06866E+03 -1.22587E+03 -1.28151E+04  7.78042E+03 -1.65021E+04  3.44971E+03  1.07042E+03
  1.24171E+04  1.01858E+04  7.38860E+03  1.43385E+04 -3.79688E+03  1.76966E+04 -1.10319E+04  1.06051E+04
 -1.60136E+04  1.71034E+03 -1.27455E+04 -8.96736E+03 -1.22836E+03 -7.52144E+03  3.95148E+03 -7.69153E+03
  9.41200E+03 -1.73807E+03  2.11651E+03  1.76179E+03  1.82607E+03  5.68803E+03 -9.95863E+02  5.18286E+03
 -2.01082E+02 -1.43284E+03  1.40019E+02 -1.33819E+03  3.51543E+03  5.60800E+03  5.73321E+03  7.73438E+03
 -2.01922E+02  7.20728E+03 -1.20097E+04  1.00181E+04 -1.80597E+04  8.41267E+03 -8.66278E+03 -1.27640E+04
 -8.58695E+02 -1.38731E+04 -8.81944E+02 -1.74430E+04  6.87932E+03 -6.31411E+03  7.96769E+03  6.87981E+02
  1.79035E+03  8.25641E+03  2.24283E+03  6.81814E+03 -1.01656E+04 -1.02878E+03 -1.42877E+04 -3.09763E+03
 -5.53654E+03 -9.70113E+03 -1.95716E+03 -1.28796E+03  7.35065E+03 -5.37784E+03  1.17501E+04  7.75869E+02
  6.92024E+03  7.03689E+03 -4.55734E+03  3.38693E+03 -4.06736E+02 -1.50568E+03  4.55205E+03 -5.70307E+03
 -3.90879E+02  2.02120E+03  7.84033E+03  2.37648E+03  4.26939E+03  1.86832E+03 -2.11079E+03  7.47390E+03
 -7.79893E+03  4.28067E+03 -1.35567E+04  2.51343E+03 -4.65315E+02 -7.45592E+03  4.96988E+02  3.12606E+02
  3.48986E+03 -7.43886E+03  2.49263E+03 -3.92242E+03  7.60887E+03  1.75004E+03 -3.50233E+01  5.38152E+03
 -4.56514E+03  2.41764E+03 -2.98621E+03 -2.04498E+03 -5.16512E+03 -8.60813E+03  1.36206E+03 -7.24691E+03
  2.91975E+03 -4.34781E+03  5.48130E+03 -1.62585E+03  2.62527E+03  3.04168E+03  2.60083E+03  4.28115E+03
 -4.79200E+03  2.51659E+03 -4.58856E+03 -5.39963E+03 -4.39306E+02 -6.73001E+03  1.18525E+04 -1.18926E+03
  8.67696E+03 -3.88972E+03  5.65660E+03  1.35179E+03  6.12221E+03  1.24268E+04 -3.46893E+03  6.08801E+03
 -1.31321E+03  7.96923E+03 -4.93035E+03 -7.10644E+02 -1.99269E+02  2.78901E+02  1.50766E+03  1.01053E+03
  3.84714E+03 -5.98366E+03  6.45580E+03  2.66733E+03  2.03227E+03  7.49676E+03  1.04026E+04  4.99195E+03
  2.87319E+03  8.37520E+03 -3.83303E+03  1.15977E+03  3.25392E+03 -5.77944E+03  1.56182E+02 -8.59253E+02
  7.98354E+03  5.06622E+03 -1.07449E+03  2.44916E+03 -7.21820E+03  3.88804E+03 -9.85144E+03 -5.11039E+03
 -6.40154E+03 -1.14274E+04  1.17143E+03 -9.97521E+03  1.03002E+04 -8.97472E+03  9.26054E+03 -4.44567E+03
  8.80032E+03  1.21391E+03  1.04309E+04  7.49877E+03 -3.88595E+03  2.48768E+03 -8.93770E+03  1.06878E+04
 -4.57694E+03  2.42161E+03 -9.14287E+03 -2.03350E+03  3.68397E+02 -1.16217E+03 -8.09751E+03 -4.87038E+03
 -9.34544E+01 -9.88704E+00 -8.75365E+02  2.56248E+03  3.12791E+03 -3.00255E+03  4.75416E+01 -4.60946E+03
 -8.81335E+02 -2.04423E+03  2.73720E+03  1.40925E+03  3.43515E+03  7.09511E+03 -5.06449E+03  1.03496E+04
 -4.50868E+03  1.18250E+04 -1.83522E+03  8.39341E+03 -1.06445E+04  1.89261E+03 -3.12521E+03 -9.81214E+03
 -4.11856E+03 -5.13741E+03  8.83181E+03 -1.31290E+04  1.02650E+04 -8.12574E+03  9.47145E+03  1.52064E+03
  3.88666E+03  6.46360E+02  5.37160E+03  2.58118E+03 -6.39200E+03  8.19782E+02  2.10728E+03 -5.88475E+03
  2.90840E+03  1.02399E+03 -5.35236E+02  2.53988E+03  2.00498E+03  5.19912E+03  3.68970E+03  6.27265E+03
 -1.62659E+03  1.92868E+03 -4.71384E+03 -6.99946E+02 -9.47926E+03 -2.93757E+03 -2.46404E+03 -4.70501E+03
  6.54120E+03 -1.16495E+04 -1.11784E+03 -1.50709E+03  1.02932E+04 -2.30836E+03  4.04543E+03  1.03111E+04
 -1.95194E+03  8.09270E+03  1.06568E+04  6.03480E+03 -1.03165E+03  4.01196E+03 -4.08852E+03 -9.36622E+02
 -1.96668E+03 -3.46167E+03 -1.58786E+03  3.93958E+03 -3.36869E+03 -3.52866E+02 -4.91491E+02 -2.73512E+02
 -5.62376E+03  8.18673E+02 -4.86107E+03 -2.92729E+03 -1.20293E+03 -1.71568E+03  8.71550E+03  4.44720E+03
  2.70926E+03 -1.92320E+03  2.18246E+03  1.99107E+03 -4.36300E+02  6.07775E+03  6.01517E+02 -1.57017E+03
