 $NMID ID='MM_0lb_SNR50_18hz_g60_100.RAW', FMTDAT='(8E13.5)'
 TRAMP=1., VOLUME=1. $END
  3.09180E+05 -2.53196E+02  3.39924E+05  2.53054E+05  8.91096E+04  3.41127E+05 -1.26996E+05  2.56979E+05
 -1.88910E+05  8.41133E+04 -1.07838E+05 -3.13721E+04  5.15522E+03 -4.80234E+04  5.47536E+04 -7.44016E+02
  3.47948E+04  5.11769E+04 -1.79983E+04  6.97286E+04 -5.69680E+04  6.62241E+04 -8.46951E+04  3.12578E+04
 -8.22769E+04 -1.69760E+04 -5.77177E+04 -5.55482E+04 -9.46510E+03 -6.76309E+04  3.00592E+04 -4.63632E+04
  4.12773E+04  3.36074E+03  1.53671E+04  5.26516E+04 -3.57864E+04  4.79110E+04 -6.77508E+04  1.75166E+03
 -5.09329E+04 -5.61037E+04 -4.71437E+03 -7.98575E+04  3.44795E+04 -5.15641E+04  4.58468E+04 -1.62913E+04
  4.50206E+04  9.14119E+03  3.25443E+04  2.85264E+04  1.70355E+04  2.79129E+04 -2.60872E+03  2.93850E+04
 -2.15253E+04  1.30518E+04 -2.03719E+04 -8.30383E+02  8.15135E+03 -4.02855E+03  2.27524E+04  1.20367E+04
  5.88958E+03  3.54909E+04 -3.44041E+04  3.14700E+04 -6.54703E+04  1.63898E+03 -5.81794E+04 -4.43974E+04
 -7.55862E+03 -6.25219E+04  3.87652E+04 -4.58388E+04  6.11023E+04 -1.20439E+03  3.44287E+04  3.26212E+04
 -5.63722E+03  3.44289E+04 -2.69870E+04  1.76430E+04 -2.72033E+04  7.53492E+00 -1.72818E+04 -1.24365E+04
 -2.37943E+03 -1.59686E+04  1.21406E+03 -1.71438E+04  6.63195E+03 -1.98559E+04  1.69371E+04 -9.00507E+03
  1.13770E+04  4.57450E+03 -7.24286E+03  1.48814E+04 -2.33061E+04 -9.96818E+02 -1.15582E+04 -3.23938E+04
  2.11675E+04 -4.05348E+04  4.80698E+04 -2.57296E+04  4.43551E+04  1.96084E+04  1.50949E+04  4.25530E+04
 -1.81532E+04  3.30621E+04 -2.37707E+04  9.13790E+02 -8.54877E+03 -2.66407E+04  1.77293E+04 -3.06176E+04
  4.00611E+04 -8.03285E+03  3.50787E+04  2.14343E+04  1.87378E+04  4.29903E+04 -8.19128E+03  4.44631E+04
 -3.06041E+04  3.20494E+04 -4.34188E+04  8.66623E+03 -4.34011E+04 -1.63979E+04 -2.22969E+04 -3.05303E+04
  6.36154E+03 -3.66388E+04  3.15398E+04 -1.78346E+04  2.79772E+04  7.25549E+03  3.98807E+03  1.84149E+04
 -1.46179E+04  9.22149E+03 -5.78255E+03 -7.26112E+03  5.12843E+03 -1.12175E+04  2.17612E+04  4.78585E+03
  1.79739E+04  2.08663E+04 -4.84727E+03  2.46602E+04 -2.39567E+04  1.13861E+04 -3.13534E+04 -5.09292E+03
 -1.20014E+04 -1.94331E+04 -1.03126E+04 -1.40453E+04  9.01246E+03 -1.49554E+04  9.59997E+03 -1.77827E+04
  2.05432E+04 -1.15008E+04  3.47814E+04 -3.35970E+02  2.36148E+04  2.08489E+04  5.36083E+03  3.32497E+04
 -2.13030E+04  3.04814E+04 -3.04865E+04  1.02779E+04 -1.92927E+04 -1.36370E+04 -5.89992E+03 -1.45849E+04
  1.18018E+03 -1.35097E+03 -3.17364E+03  6.27706E+03 -1.74930E+04  3.99959E+03 -1.44379E+04 -6.89945E+03
 -1.33118E+04 -2.03237E+04  2.66829E+03 -2.09933E+04  1.29438E+04 -1.19684E+04  1.83302E+04 -2.50177E+03
  1.15069E+04  1.13366E+04  9.64477E+02  1.66511E+04 -8.49099E+03  1.05600E+04 -1.97765E+04 -7.12862E+03
 -1.23417E+04 -1.47937E+04 -1.26390E+03 -2.16201E+04  7.75149E+03 -1.62719E+04  1.77339E+04 -6.17536E+03
  1.77906E+04  2.48340E+03  8.42642E+03  2.56730E+03  9.89652E+03 -9.78194E+02  4.04054E+03 -2.26289E+03
  8.43388E+03  3.95732E+03  1.72540E+04  1.48610E+04  1.08823E+04  2.83200E+04 -3.81880E+03  2.93786E+04
 -1.83279E+04  2.26403E+04 -2.67287E+04  1.26724E+04 -3.29214E+04  8.68437E+02 -2.85014E+04 -1.22277E+04
 -1.13953E+04 -2.10287E+04  9.91150E+03 -2.33570E+04  2.10963E+04 -8.13770E+03  1.47903E+04  4.42946E+03
  6.30614E+03  1.23430E+04 -8.38799E+03  1.51560E+04 -1.61764E+04  5.90469E+03 -1.21108E+04 -1.15907E+04
  9.12783E+02 -1.57449E+04  6.02022E+03 -1.33514E+04  6.78228E+03 -1.19356E+03  1.79026E+03  7.16724E+03
 -7.60783E+03  2.93646E+03 -2.65519E+03 -1.03236E+04  8.41449E+03 -1.20719E+04  6.83061E+03 -9.66555E+03
  1.35201E+04 -6.81453E+03  1.78377E+04  1.50125E+03  1.21646E+04  7.78609E+03  7.33542E+03  1.71112E+04
 -2.36290E+03  2.03806E+04 -1.01869E+04  1.15839E+04 -1.83019E+04  5.91726E+03 -1.01635E+04 -4.27415E+03
 -4.60073E+03 -6.66006E+03  1.60766E+03  3.31843E+03 -2.63573E+03 -6.39784E+02 -3.39405E+03  6.86234E+03
 -1.10044E+04 -9.62552E+01 -1.13875E+04 -6.50570E+03  1.00554E+01 -1.26137E+04  7.75534E+03 -4.32789E+03
  3.04471E+03 -3.65529E+03  7.86344E+03  5.27690E+03  1.70345E+03  2.60061E+03 -3.73789E+03 -3.38136E+02
 -2.17685E+03 -7.69523E+03  5.31780E+03 -6.41839E+03 -1.17458E+03 -1.09314E+04  1.10311E+04 -7.08605E+03
  1.03879E+04  1.29715E+03  1.25890E+04  6.17356E+03  1.87633E+03  1.07049E+04 -4.23344E+03  1.20335E+04
 -8.64174E+03  2.84931E+03 -4.10874E+03  1.17398E+03  3.03229E+03 -6.01777E+03  6.00550E+03  2.96318E+02
  4.66840E+03  1.86063E+03  2.73288E+03  2.88211E+03 -6.72113E+03  8.62529E+03 -6.73700E+03  1.78122E+03
 -4.86206E+03 -1.09712E+03  3.21875E+03 -7.52223E+03  1.54182E+03  5.10446E+02  3.42824E+03 -4.63160E+01
 -1.94663E+03  5.49971E+03 -6.96823E+03  6.85331E+03 -6.09535E+03  7.24009E+03 -5.87927E+03 -6.07035E+03
 -1.16163E+03 -6.34559E+03 -3.41368E+03 -8.42407E+03  9.41308E+03 -4.11357E+03  7.02582E+03 -7.37507E+02
  1.99943E+03  5.85995E+03  8.55323E+02  8.06341E+03 -3.98905E+03 -3.12648E+02 -4.27544E+03  8.34523E+02
 -8.34981E+03 -6.81346E+03  3.12380E+03 -8.77730E+03  8.22362E+02 -3.12179E+03  4.53376E+03 -6.69568E+02
  1.97020E+03 -5.45085E+02  4.17802E+03  2.16370E+03 -9.49211E+02 -1.52728E+03  2.32823E+03 -3.58491E+03
  4.27730E+03  5.63387E+01  6.10947E+03 -6.43723E+02  4.05522E+03  4.57973E+03  8.36428E+03  1.27778E+04
 -8.17405E+02  1.05804E+04 -1.22569E+04  9.58728E+03 -1.06547E+04 -1.46764E+02 -9.70574E+03 -2.37108E+03
 -4.90864E+03 -4.85954E+03 -2.05397E+03 -5.63716E+03  3.66742E+02 -1.19283E+03  3.03839E+03  3.66708E+01
  5.71385E+02 -2.94466E+01  3.02773E+03 -1.48728E+03  1.48890E+03 -1.54838E+03  5.47113E+03  3.04133E+03
  4.46319E+03  4.76536E+03  3.74977E+03  6.14545E+03 -7.56783E+03  5.83466E+03 -5.49486E+03  5.77229E+03
 -6.00635E+03  1.81910E+03  3.78235E+02 -7.48755E+02 -3.20343E+03 -4.44863E+03  3.02630E+03 -8.45944E+03
  6.87439E+03 -2.53729E+03  6.63232E+03  6.60110E+02  3.97813E+03  5.69620E+03  2.29265E+03  9.61157E+03
  3.82165E+02  4.22976E+03 -5.11840E+03  1.42578E+03 -5.58436E+03  3.47582E+03 -1.00919E+03 -1.50888E+03
 -9.57253E+02  2.11973E+03 -2.08996E+03  3.93810E+03 -2.58662E+03  2.63199E+03 -7.30520E+02  4.91739E+02
 -2.75379E+03 -3.97956E+03  1.29513E+03 -5.33029E+03  2.19456E+03 -5.93690E+03  4.92201E+03  1.32593E+03
  5.14787E+01 -2.86633E+02  1.95950E+03  2.43734E+02 -2.91532E+00  1.91509E+02 -4.91824E+03 -4.60762E+02
 -6.59205E+03  2.42743E+03  1.59883E+03 -3.87027E+03 -8.12153E+01 -3.33885E+03  2.20085E+03 -1.40774E+03
 -9.13581E+02 -1.86302E+03  3.42824E+03  2.79999E+03  1.87544E+03  1.21989E+03  1.28690E+03  3.26636E+03
  1.10616E+01  2.46913E+03  1.42782E+03  1.52211E+03  9.17466E+02  6.82266E+03  5.78987E+02 -1.26702E+03
 -1.86610E+03  7.52537E+03 -1.22415E+03  7.59809E+03 -1.93451E+03  3.72391E+03 -8.51256E+03 -8.02523E+02
  2.62558E+03 -4.70526E+03 -1.06300E+03 -5.07957E+03  4.89646E+03 -2.85747E+03  4.55263E+03 -2.53868E+03
  3.19202E+03  2.22658E+02  1.39136E+03  6.86938E+03  4.38554E+03 -2.02827E+03  4.72811E+02 -3.41868E+03
  1.50856E+03 -2.73889E+03 -1.18984E+03 -3.08725E+03  2.99824E+03 -2.85849E+03  2.55728E+03  8.84981E+02
  1.53399E+03  4.29046E+03  3.41274E+02 -3.27962E+03 -6.64189E+03 -2.38760E+02  4.43359E+03 -2.07857E+03
  1.60570E+03 -1.50643E+03  1.63453E+03 -3.52065E+03  3.98791E+00  8.62026E+03  3.55464E+02  1.78238E+02
  4.12696E+02  2.15865E+03 -3.98832E+02 -5.66227E+02 -7.61729E+02 -2.50357E+03  1.36491E+02 -1.59024E+02
  1.20444E+03 -3.22323E+03  2.09758E+02 -1.33796E+03  1.20633E+03  4.62981E+03 -5.47057E+03 -1.95993E+02
  1.81626E+03  2.37720E+03 -2.38097E+03 -4.17163E+03  1.25663E+03 -5.42943E+03 -1.80286E+03 -8.97107E+02
 -5.40283E+02 -1.64502E+03  3.25707E+03 -7.03218E+02  3.59637E+03 -2.26132E+03 -5.17362E+03 -5.46224E+01
  1.52555E+03 -1.71313E+03 -3.36571E+03  1.04374E+03  3.66374E+03  6.08351E+02  4.00003E+03 -3.58705E+03
 -4.30977E+02  4.82101E+03  7.99688E+02  2.04654E+03  2.07812E+03  3.68383E+03  1.82812E+03 -2.28909E+03
 -1.24150E+03 -6.27497E+02 -1.27803E+02  1.38351E+03  1.92644E+02 -3.71372E+03  1.09631E+03 -1.16436E+03
  1.59733E+02 -2.44341E+03 -1.77848E+03  2.01415E+03  4.10581E+02  3.59828E+03 -4.59756E+03  5.71204E+03
  2.81483E+03  2.94422E+03 -5.33395E+03 -1.21096E+02 -1.81305E+03  2.77621E+02 -1.52299E+03  1.03982E+03
 -1.89177E+03  3.19662E+03 -2.31441E+03  5.70643E+02  3.80488E+02  4.67562E+03  7.20808E+02 -2.05897E+03
 -7.55335E+02 -1.83196E+03  1.07215E+03 -1.26676E+03  4.16683E+02 -5.24786E+03  4.88626E+02  4.86491E+02
  5.16055E+03 -3.47184E+03  1.54185E+03  8.57290E+02  3.49076E+02 -1.57032E+03 -1.30245E+03  4.69318E+03
  2.90494E+03  9.57080E+02  2.77194E+03  4.79224E+02 -3.53008E+03  5.50117E+03 -1.71198E+03  3.00343E+02
 -3.86802E+03 -2.56564E+03  9.91144E+02 -6.05587E+00 -1.33593E+03  3.00515E+03  2.21748E+03 -2.78648E+03
  3.01746E+03  5.00908E+02  9.20219E+01 -4.33032E+03  6.32829E+02  2.13973E+03 -2.38390E+03  1.23108E+03
 -2.69500E+03  6.02896E+03 -2.29296E+03  6.45056E+02  1.81224E+03 -4.04775E+03 -2.61257E+03  2.13276E+03
 -1.25623E+03 -1.14661E+03  2.00242E+03 -2.87106E+03  9.18521E+02 -6.63682E+03  4.61137E+03  3.62179E+03
 -6.09544E+02  1.22509E+03 -3.10561E+02 -2.92731E+02  3.41561E+03  3.30303E+03  2.28109E+03 -4.75990E+03
  2.24253E+02  2.29720E+03  1.35091E+03 -6.27660E+02  1.63990E+03  1.18515E+03  2.33275E+03  3.49057E+03
 -3.61433E+03 -1.99516E+03 -4.75473E+03  2.91901E+03 -8.42318E+02  1.64382E+03 -4.52543E+02 -4.30776E+03
 -1.96351E+03  3.63912E+02  1.31742E+03  9.01685E+02 -4.95291E+02 -9.15911E+02 -2.00255E+02  2.58123E+03
 -2.59398E+03  1.19469E+02 -8.06542E+01  4.30514E+02  4.20197E+02  3.57222E+03  1.02781E+03 -1.82945E+03
 -3.37896E+03 -6.02221E+02  1.58307E+03 -3.34896E+03 -1.57482E+03 -6.35554E+02 -1.16121E+03  5.79049E+03
 -3.99045E+03  1.28764E+02 -1.37321E+03 -1.01554E+03  9.76315E+02 -4.96255E+03  7.31872E+03 -4.65843E+02
  1.67600E+03  3.08296E+02  2.95904E+03  2.63767E+03  8.58134E+02 -2.17480E+03  3.65201E+02  4.33527E+01
