 $NMID ID='MM_0lb_SNR50_8hz_g45_86.RAW', FMTDAT='(8E13.5)'
 TRAMP=1., VOLUME=1. $END
  3.11334E+05  3.46228E+03  3.38970E+05  2.53008E+05  8.65205E+04  3.39812E+05 -1.40079E+05  2.55972E+05
 -1.94541E+05  8.03564E+04 -1.12732E+05 -3.44849E+04  5.15932E+03 -5.07216E+04  5.86082E+04  4.97553E+03
  2.93889E+04  5.34999E+04 -1.72182E+04  7.40133E+04 -5.96859E+04  6.10899E+04 -8.71086E+04  3.16635E+04
 -8.23120E+04 -1.12597E+04 -5.38831E+04 -4.99143E+04 -1.98706E+04 -7.31302E+04  3.36027E+04 -4.74700E+04
  4.24547E+04  4.67596E+03  1.71025E+04  5.25061E+04 -4.06419E+04  4.53802E+04 -6.51663E+04  9.34160E+02
 -5.60792E+04 -5.74639E+04 -8.10327E+03 -7.52604E+04  3.69479E+04 -5.63814E+04  5.22585E+04 -1.39294E+04
  5.14574E+04  1.88432E+04  2.65916E+04  2.64732E+04  1.88951E+04  1.93888E+04 -4.62028E+03  3.42091E+04
 -1.99948E+04  8.71876E+03 -2.17547E+04 -3.20109E+03  6.28884E+03 -5.73702E+03  2.27294E+04  1.38328E+04
  6.73136E+03  3.80887E+04 -3.44858E+04  3.99062E+04 -6.53092E+04 -2.42741E+03 -6.63433E+04 -3.69307E+04
 -1.30202E+04 -7.26689E+04  3.69705E+04 -4.30801E+04  6.91413E+04 -6.70429E+03  3.56304E+04  2.87476E+04
 -2.21799E+03  3.98455E+04 -2.77028E+04  2.26611E+04 -3.20172E+04 -5.76309E+03 -2.49773E+04 -1.54937E+04
 -4.61153E+03 -2.06900E+04 -2.93366E+03 -1.69487E+04  1.04736E+04 -1.34310E+04  1.44464E+04 -1.05621E+04
  6.11516E+03  8.04939E+03 -1.25130E+04  1.56982E+04 -1.38853E+04  1.53341E+03 -6.74712E+03 -3.67193E+04
  2.63307E+04 -4.99405E+04  5.32803E+04 -2.83792E+04  4.77986E+04  2.61160E+04  1.56769E+04  5.18812E+04
 -1.45480E+04  3.27370E+04 -2.92587E+04 -3.94022E+03 -1.09360E+04 -3.08054E+04  2.13698E+04 -4.19853E+04
  4.19911E+04 -1.12867E+04  4.16596E+04  2.99612E+04  2.58891E+04  5.05423E+04 -8.87059E+02  5.65570E+04
 -4.05646E+04  3.13995E+04 -4.56548E+04  6.35624E+03 -4.88745E+04 -1.36568E+04 -2.53639E+04 -3.91363E+04
  1.12046E+04 -3.58806E+04  4.05300E+04 -1.73945E+04  3.18329E+04  9.88529E+03  3.79202E+03  2.10414E+04
 -1.53878E+04  1.25516E+04 -1.44736E+04 -9.03272E+03  5.79035E+03 -1.37018E+04  1.90910E+04 -1.92401E+03
  1.67695E+04  1.99959E+04 -3.32847E+03  2.59635E+04 -2.21911E+04  1.40828E+04 -2.93661E+04 -1.01587E+04
 -2.03991E+04 -1.99389E+04 -6.15763E+03 -2.68036E+04 -3.44722E+03 -3.31048E+04  2.29181E+04 -2.33587E+04
  3.50069E+04 -1.29715E+04  3.64421E+04  6.40384E+03  3.18685E+04  2.00144E+04 -1.72385E+03  3.99100E+04
 -2.34738E+04  3.45199E+04 -2.82522E+04  9.82100E+03 -2.35252E+04 -9.79614E+03 -1.30530E+04 -1.94340E+04
  2.34471E+02  8.95320E+02 -4.93334E+03  1.39785E+04 -1.77369E+04  7.94251E+03 -2.37281E+04 -1.40268E+04
 -3.86179E+03 -2.54407E+04  1.05900E+04 -2.39578E+04  1.45058E+04 -2.18370E+04  2.61951E+04 -2.01723E+03
  1.46246E+04  1.52698E+04 -4.74021E+02  2.27666E+04 -1.98956E+04  1.10853E+04 -2.44122E+04  7.66342E+03
 -2.15694E+04 -2.02369E+04 -1.65527E+03 -3.11969E+04  1.36131E+04 -2.93654E+04  2.22286E+04 -1.44614E+04
  2.40518E+04 -3.14716E+03  1.81488E+04  6.75169E+03  9.20934E+03  6.52852E+03  1.26728E+04 -5.63915E+03
  2.97337E+04  4.00698E+03  2.55504E+04  2.43939E+04  1.78079E+04  3.88822E+04  2.67002E+03  4.08563E+04
 -2.80170E+04  4.23664E+04 -3.98016E+04  2.85139E+04 -5.53759E+04 -3.10183E+03 -3.55908E+04 -2.60644E+04
 -1.07535E+04 -3.61498E+04  2.33549E+04 -3.99374E+04  2.44524E+04 -2.15496E+04  2.01348E+04  6.38422E+03
  9.32127E+03  2.00782E+04 -1.06387E+04  1.43305E+04 -2.23301E+04  1.81756E+03 -1.24620E+04 -1.54242E+04
 -7.36429E+03 -1.63596E+04  1.22323E+04 -1.94289E+04  1.54532E+04  2.51018E+02  6.19520E+03  1.56544E+04
 -3.90776E+03 -1.39663E+03 -1.05329E+04 -1.05868E+04 -1.12372E+03 -1.57475E+04  9.03148E+03 -1.80103E+04
  1.93965E+04 -1.03035E+04  3.29891E+04  6.55927E+03  2.01973E+04  2.05106E+04  1.20553E+04  3.26389E+04
 -8.13184E+03  3.29112E+04 -2.26060E+04  2.15405E+04 -1.52455E+04  8.18918E+03 -1.54001E+04 -4.04848E+03
 -7.33109E+03 -5.17809E+03 -2.07461E+03 -2.69486E+03 -3.12179E+03  4.91443E+03 -8.15352E+03  4.81844E+03
 -1.72967E+04  2.55817E+03 -1.09458E+04 -1.26900E+04 -5.32644E+02 -2.23082E+04  1.01468E+04 -2.18621E+04
  1.22785E+04 -5.87148E+03  6.92544E+03  5.06901E+03  8.82819E+02  3.58864E+03 -3.53291E+03  4.25919E+03
 -5.22536E+03 -1.24594E+04 -5.44360E+03 -2.03232E+04  1.04822E+04 -1.94356E+04  2.45258E+04 -7.07869E+03
  2.32089E+04  6.58002E+03  1.85491E+04  1.84301E+04  9.06619E+02  2.20213E+04 -2.44323E+03  1.76269E+04
 -1.01038E+04  8.47216E+03 -5.80342E+03 -4.48611E+03  2.68467E+03  9.75759E+02  1.17642E+04  6.72153E+02
  6.92301E+03  2.97053E+03 -3.17743E+03  8.87551E+03 -1.11312E+04  9.61367E+03 -1.53883E+04  6.88049E+03
 -1.46463E+04 -8.52227E+03  1.93049E+03 -1.11632E+04  9.03700E+03 -1.02476E+04  9.78931E+03  3.62520E+03
  6.93582E+02  5.97290E+03 -6.59719E+03  1.12880E+04 -1.96034E+04  2.94429E+03 -1.62213E+04 -2.79352E+03
 -8.24480E+03 -1.38854E+04 -1.56977E+03 -1.62753E+04  2.01829E+04 -1.06770E+04  1.67221E+04  4.88949E+03
  1.18779E+04  1.48712E+04 -5.66408E+03  1.74412E+04 -1.01535E+04  5.53562E+03 -6.58958E+03  5.20779E+03
 -1.07980E+04 -1.21233E+04 -9.00110E+03 -1.07457E+04  1.09532E+04 -1.37543E+04  5.06617E+03 -7.73843E+03
  1.52860E+04 -3.59181E+03 -6.68876E+03 -2.96828E+03 -6.42229E+03 -4.09804E+02  2.17396E+02 -1.66704E+04
  1.56444E+04 -8.16354E+03  1.95107E+04 -1.23939E+03  1.39798E+04  1.80480E+04  1.40318E+04  2.61464E+04
 -5.41129E+03  2.57066E+04 -2.79965E+04  1.37190E+04 -2.65877E+04  6.66408E+03 -2.32373E+04 -9.25997E+03
 -1.42207E+04 -2.30985E+04  1.46732E+03 -1.79273E+04  1.01229E+04 -1.41290E+04  1.51221E+03 -7.62784E+03
  4.77698E+03  3.84895E+02  7.84372E+03 -2.54669E+03  4.07050E+03 -1.80315E+03  6.35667E+03 -5.06851E+03
  1.04519E+04 -1.66018E+03 -2.23646E+03  1.05029E+02 -4.06323E+03  1.08554E+04 -1.09630E+04  5.78967E+03
 -2.08577E+04 -6.25063E+03 -1.29600E+04 -1.49970E+04 -8.89719E+02 -2.10673E+04  1.44290E+04 -1.40499E+04
  1.32916E+04 -5.85004E+03  2.23285E+04  5.45265E+03  1.83118E+04  1.22786E+04  8.33721E+03  2.18752E+04
 -7.28205E+03  1.80286E+04 -7.20958E+03  7.78420E+03 -7.24353E+03  1.98262E+03 -8.97072E+03 -5.97564E+03
 -1.63463E+03 -7.76824E+02  2.39827E+03  3.29831E+03 -1.19885E+04 -1.04553E+03 -1.31123E+04 -5.19004E+02
 -7.73152E+03 -1.07285E+04  6.31025E+03 -1.36806E+04  1.25879E+04 -1.36878E+04  1.31285E+04 -4.90667E+03
  1.25560E+04  1.19316E+04  4.57076E+03  1.18478E+04  1.27924E+03  1.01477E+04 -8.94620E+03  9.70721E+03
 -1.47520E+04  1.11942E+03 -1.05467E+04 -2.72412E+03 -3.89752E+03 -1.94316E+04  5.99153E+03 -2.90734E+03
  1.12722E+04 -5.22587E+02  9.02072E+03  4.02667E+03 -7.04700E+02  1.33260E+03  6.37311E+02  3.16848E+03
  2.91933E+03  6.40353E+03  3.74797E+03  4.90762E+03  8.80526E+03  5.10938E+02  3.85089E+03  1.11073E+04
  3.96606E+02  1.58178E+04 -1.08987E+04  1.21344E+04 -1.23777E+04  1.95252E+03 -1.79574E+04 -5.80347E+03
 -7.40563E+03 -2.44680E+04  5.39991E+03 -1.67216E+04  1.06270E+04 -9.02399E+03  1.53733E+04 -1.58249E+03
  7.88743E+03  1.20898E+04  2.51688E+02  1.49933E+04 -3.11513E+03 -3.30805E+03 -7.15394E+03  5.68047E+03
 -4.41630E+03 -7.51145E+03  2.15130E+03 -8.13374E+02  1.21900E+04 -6.58227E+03  1.07670E+03 -4.26473E+03
  4.74330E+03 -1.15219E+03  4.90983E+03  5.47440E+03  3.83165E+03  4.09036E+03  4.63484E+03  7.20568E+02
  2.85845E+03  4.39798E+01  6.72963E+02 -1.74826E+02  2.13685E+03  8.81091E+03  1.64745E+03  1.39879E+04
 -1.17873E+04  1.28713E+04 -1.07321E+04  7.48255E+02 -6.94538E+03  1.46649E+03 -8.56524E+03 -7.07918E+03
  2.84511E+03 -6.78695E+03  4.92149E+03 -2.44446E+03  3.52740E+03  6.33764E+03 -3.16345E+03  2.12630E+03
 -5.42444E+03  2.64449E+03 -9.26306E+02 -5.60522E+03  1.82760E+03 -9.54524E+03  8.09839E+03 -5.61046E+03
  4.25942E+03 -6.82772E+03  4.28029E+02 -3.02365E+03  7.00286E+03  2.57433E+03 -1.91198E+03  8.01830E+03
 -6.39344E+03 -1.13319E+03 -6.21863E+03 -3.28927E+03  5.89440E+02 -3.27503E+03  7.41100E+03  3.18721E+02
  1.43210E+04 -8.28332E+02  1.05043E+04  8.28516E+03  5.50701E+03  1.76375E+04 -5.25286E+03  1.66968E+04
 -1.02512E+04  4.11250E+01 -1.42340E+04 -3.35801E+03 -5.17602E+03 -5.26205E+03  1.85538E+02 -1.38311E+04
  8.91869E+03 -6.07103E+03  5.30493E+03  6.26239E+03  1.97247E+03  8.95371E+03 -3.96299E+02  6.64597E+03
 -5.54955E+03  4.14250E+03 -1.94995E+03 -3.07048E+02 -3.66863E+03  9.58043E+01 -3.58745E+03  3.04220E+03
  5.75334E+02  3.83034E+03 -8.29094E+03  9.92712E+01 -9.84422E+03 -1.25500E+03 -1.38444E+04 -8.62213E+03
 -5.16164E+03 -1.83727E+04 -2.53850E+03 -1.83847E+04  8.21154E+03 -7.51076E+03  1.99464E+04 -6.56700E+02
  1.44065E+04  5.20334E+03  4.11154E+03  1.40872E+04  2.23648E+03  1.18725E+04  5.63785E+02  1.45413E+04
 -2.76483E+03  8.64007E+02 -5.17701E+03  2.55130E+03 -3.65509E+03 -1.62266E+03 -3.39505E+03  1.96681E+02
 -3.40934E+03  6.26298E+03 -1.07270E+04 -5.75947E+02  2.59079E+03  2.27454E+03  4.59352E+03 -8.10598E+03
  9.14632E+03 -3.62455E+03  5.12596E+03  3.34427E+03  4.57041E+03  1.11384E+04  6.23763E+03  1.35826E+04
 -5.15159E+03  1.04965E+04 -7.08980E+03  1.39865E+04 -1.67059E+04  3.49194E+03 -1.24362E+04 -6.20346E+03
 -5.57733E+03 -1.15146E+04  2.34054E+03 -1.46431E+04  7.75231E+03 -5.05669E+02  3.37277E+03  4.15691E+03
  4.31206E+03  9.31975E+02 -5.82953E+03 -5.69628E+02 -3.45287E+03  4.81701E+03 -1.21451E+03 -6.20057E+03
  4.17920E+02  8.07183E+03  5.64443E+03  1.82376E+02  2.73794E+03  1.19760E+03 -4.32914E+03  8.18695E+03
 -1.33989E+03  8.01012E+03 -9.85689E+03 -2.84062E+03 -2.30108E+03  7.52591E+01  8.01721E+02 -6.59831E+03
  5.06074E+03 -7.88153E+03  9.04491E+03  1.29053E+03  7.80504E+03  6.39463E+03  1.27949E+04  6.66471E+03
 -1.87547E+02  1.02187E+04 -1.91756E+03  6.03679E+03 -1.25672E+04  3.57323E+03 -5.16953E+03 -1.63918E+02
 -3.88759E+03 -4.05049E+03  4.02693E+02 -3.58848E+03 -1.30495E+04  5.57031E+03 -9.58744E+03 -4.28933E+03
 -7.29856E+03 -1.09904E+02 -5.50120E+02 -8.87223E+03  2.23263E+03 -1.96923E+03  6.45878E+03 -4.46086E+03
  6.82241E+03  4.41132E+03  3.88780E+03  8.17394E+03  1.00178E+04  8.79399E+03 -8.78666E+03  4.88570E+03
