 $NMID ID='MM_0lb_SNR50_15hz_g55_97.RAW', FMTDAT='(8E13.5)'
 TRAMP=1., VOLUME=1. $END
  3.11922E+05 -1.76524E+03  3.34661E+05  2.50242E+05  8.45353E+04  3.36560E+05 -1.33429E+05  2.49182E+05
 -1.86547E+05  7.71666E+04 -1.17245E+05 -3.35422E+04 -1.97194E+03 -5.40906E+04  4.88992E+04 -6.02439E+02
  3.32415E+04  5.28565E+04 -2.24103E+04  7.57602E+04 -5.69020E+04  7.02704E+04 -8.50943E+04  2.92537E+04
 -8.27503E+04 -1.32399E+04 -5.74801E+04 -5.21926E+04 -1.52983E+04 -6.91554E+04  2.35519E+04 -4.14860E+04
  4.11339E+04  3.56342E+03  2.12714E+04  4.99788E+04 -3.61784E+04  4.94912E+04 -6.35626E+04  2.49563E+03
 -4.95159E+04 -5.51693E+04 -6.94806E+03 -7.65849E+04  3.28218E+04 -5.84058E+04  4.94784E+04 -1.33399E+04
  4.29860E+04  1.10739E+04  3.06577E+04  2.66039E+04  1.69694E+04  2.87761E+04 -4.61966E+03  3.04256E+04
 -2.20876E+04  1.62505E+04 -1.78451E+04 -6.97978E+03  3.51762E+02 -1.28048E+04  1.67954E+04  1.44606E+04
  8.86467E+03  3.52460E+04 -3.17028E+04  3.22636E+04 -6.03743E+04  1.98227E+03 -5.73583E+04 -4.11192E+04
 -1.08739E+04 -6.48577E+04  3.99919E+04 -4.91440E+04  6.20064E+04 -2.84911E+03  3.65432E+04  3.09608E+04
 -3.28398E+03  3.59889E+04 -2.90897E+04  1.50797E+04 -2.54337E+04 -1.57507E+03 -1.63512E+04 -1.35542E+04
 -7.95104E+03 -9.70206E+03 -3.58039E+03 -1.89180E+04  4.58535E+03 -2.46763E+04  1.47860E+04 -1.34860E+04
  1.31930E+04  3.42912E+03 -1.26751E+04  1.67295E+04 -2.31578E+04 -6.80224E+03 -7.10094E+03 -3.29543E+04
  2.05726E+04 -4.20592E+04  4.75675E+04 -1.46838E+04  4.98129E+04  2.06518E+04  1.29723E+04  4.74129E+04
 -1.44884E+04  4.16382E+04 -2.38023E+04  3.23752E+03 -8.97849E+03 -2.55599E+04  2.00619E+04 -3.02853E+04
  3.92979E+04 -1.34089E+04  3.86682E+04  2.31331E+04  1.58048E+04  4.56680E+04 -9.34458E+03  5.19921E+04
 -2.93961E+04  2.99358E+04 -3.74934E+04  1.20338E+04 -4.25385E+04 -1.61846E+04 -2.26195E+04 -3.80189E+04
  9.00517E+03 -3.40177E+04  3.39168E+04 -1.32137E+04  2.69479E+04  9.86851E+03  3.77970E+03  1.60209E+04
 -7.92682E+03  6.12128E+03 -9.54306E+03 -1.02787E+04  6.10273E+03 -1.20011E+04  1.72723E+04  1.00382E+04
  1.19123E+04  2.27697E+04 -1.85527E+03  2.23113E+04 -2.77847E+04  9.94330E+03 -2.54939E+04 -3.94825E+03
 -1.97079E+04 -1.85633E+04 -1.06770E+04 -2.06084E+04  2.60611E+03 -1.37700E+04  1.35364E+04 -1.95708E+04
  2.82788E+04 -8.35959E+03  3.22854E+04  7.93535E+03  2.51306E+04  2.00043E+04  7.99517E+02  3.35198E+04
 -1.47375E+04  3.12517E+04 -2.68311E+04  1.28046E+04 -1.85361E+04 -1.23862E+04 -4.62175E+03 -1.72662E+04
 -3.84782E+03 -3.87937E+03 -5.00364E+03  6.49624E+03 -1.27539E+04  4.93935E+03 -1.29933E+04 -5.32660E+03
 -1.06095E+04 -1.57852E+04  6.63151E+03 -2.18773E+04  1.75179E+04 -1.42737E+04  2.17861E+04 -1.33995E+03
  5.50681E+03  1.56127E+04  5.56969E+02  1.99365E+04 -1.04535E+04  1.39074E+04 -1.84326E+04 -6.50245E+03
 -1.39552E+04 -1.62780E+04 -2.08376E+03 -2.19243E+04  9.62113E+03 -1.75377E+04  1.92261E+04 -9.63259E+03
  1.36516E+04  3.00385E+03  1.45233E+04  4.76518E+01  5.33400E+03  4.94790E+02  4.86619E+03  2.03737E+02
  2.06351E+04  3.02721E+03  2.25302E+04  1.38038E+04  1.56579E+04  3.14989E+04 -6.25073E+03  3.08614E+04
 -2.39071E+04  2.21903E+04 -2.47866E+04  1.65701E+04 -3.43477E+04 -3.20680E+03 -3.02918E+04 -2.10493E+04
 -1.03647E+04 -2.97464E+04  7.59028E+03 -2.26762E+04  1.94687E+04 -1.03340E+04  1.94337E+04  4.35042E+03
  4.11124E+03  1.95142E+04 -8.16429E+03  8.98977E+03 -1.58278E+04  6.42068E+03 -5.65228E+03 -8.53120E+03
 -3.26481E+03 -1.41732E+04  8.27766E+03 -1.49340E+04  1.00771E+04  1.81679E+03  3.70823E+03  4.72503E+03
 -9.72796E+03  4.28857E+03 -1.12798E+04 -6.61185E+03 -3.15704E+02 -1.43787E+04  1.37342E+04 -1.26355E+04
  8.78892E+03 -3.05085E+03  1.71494E+04  6.47302E+03  1.42416E+04  1.67450E+04  9.16326E+03  2.07891E+04
 -4.07226E+03  2.06068E+04 -1.34190E+04  1.03312E+04 -1.30943E+04  8.79630E+02 -1.48738E+04 -4.21559E+03
 -5.98955E+03 -7.09351E+02  3.23436E+02 -8.03041E+02 -1.54588E+03  4.92565E+03 -5.97419E+03  8.34048E+02
 -9.42141E+03 -2.09186E+03 -1.02870E+04 -9.46326E+03 -6.98618E+03 -1.40255E+04  2.03864E+03 -1.25082E+04
  7.50015E+03 -8.06339E+03  8.03970E+03 -6.66395E+02 -6.85522E+02  6.45649E+03 -8.34567E+03 -4.93191E+02
 -3.58075E+03 -5.64107E+03  2.83212E+02 -1.30701E+04  5.28766E+03 -8.31767E+03  1.01149E+04 -3.44215E+03
  1.75563E+04  8.45973E+02  1.15641E+04  1.05081E+04  5.43325E+03  1.19590E+04 -6.00931E+03  1.14495E+04
 -1.05464E+04  1.87898E+03 -2.59447E+03 -5.99153E+03  3.55579E+03 -7.04422E+03  4.39305E+03 -6.91861E+03
  6.90678E+03  2.54108E+03  1.66430E+03  9.14183E+03 -6.05258E+03  3.34896E+03 -1.29285E+04  4.79141E+03
 -9.63418E+03 -1.67677E+03 -1.86264E+03 -9.77344E+03 -5.60351E+02  4.71240E+02  7.10923E+03  2.99290E+03
  7.22141E+03  4.97019E+03 -7.33505E+03  1.39015E+04 -5.16537E+03  3.95830E+03 -7.39502E+03 -8.38693E+03
 -6.95591E+02 -8.84191E+03 -3.68031E+03 -1.38522E+04  1.07430E+04 -7.68922E+03  7.31312E+03 -1.21080E+02
  6.99331E+03  7.37975E+03 -4.33931E+02  7.96362E+03 -3.88254E+03  4.29407E+03 -5.26461E+03  6.20477E+02
 -6.82822E+03 -5.23362E+03  2.72949E+03 -4.23822E+03  4.56214E+03 -5.30093E+03  8.35030E+02 -2.54831E+03
  6.60124E+03  4.83498E+03 -4.65540E+03 -1.36415E+02 -3.40944E+03 -4.91098E+02 -2.46450E+03 -6.57251E+02
  8.40908E+03 -2.74407E+03  1.29293E+04 -1.38987E+03  3.97055E+03  8.78049E+03  9.99451E+03  1.45849E+04
 -4.78397E+03  1.44136E+04 -1.35299E+04  4.76903E+03 -1.40764E+04 -1.09925E+03 -6.69766E+03 -6.71479E+03
 -2.90753E+03 -1.34889E+04 -5.49454E+03 -4.95188E+03  3.99683E+03 -7.50204E+02  6.05328E+03 -5.87380E+03
  2.89569E+03 -5.03634E+03  2.11581E+03  3.55488E+03  6.04171E+03  2.34547E+02  8.95852E+03  2.92084E+03
  6.99030E+03  1.34716E+03  8.30932E+03  4.65837E+03  3.72450E+03  5.10747E+03 -1.84026E+03  2.59032E+02
 -5.90558E+03 -7.59771E+02  1.26544E+03 -3.50586E+03 -3.35570E+03 -6.55954E+03  7.12642E+03 -2.34918E+03
  1.39553E+04 -5.91527E+03  9.07020E+03 -1.53963E+03  3.28877E+03  7.24544E+03  5.55128E+03  9.41888E+03
  2.05458E+02  8.72305E+03 -7.88462E+03 -2.95135E+03 -1.66889E+03  8.25971E+02 -1.41237E+03 -3.06049E+03
 -2.32325E+03  1.09861E+03 -4.44961E+03  4.12055E+02 -2.98762E+03  4.21080E+02 -1.03272E+04  1.95693E+03
 -5.06791E+03 -7.43969E+03 -2.24144E+02 -6.77785E+03  4.07700E+03 -6.25159E+03  4.60827E+03 -4.08093E+03
  4.94634E+03  2.87267E+03  3.72490E+03  5.09744E+03  5.28375E+03  7.80477E+03 -9.56429E+03  5.89543E+03
 -3.49701E+03  2.71920E+03 -4.58362E+03 -4.20977E+03 -1.97646E+03 -5.40619E+03 -1.80474E+03 -4.29338E+03
  8.39074E+03 -4.25851E+02  4.48206E+03 -1.75567E+03 -2.15727E+02  2.15044E+03  1.09667E+03  4.71489E+03
 -1.04064E+03 -5.77924E+02  2.46161E+03  5.58031E+02  2.08302E+03  3.23576E+03 -3.80598E+03  5.42144E+03
 -2.05285E+03  5.55619E+03 -2.30157E+03  6.29014E+03 -9.45353E+03  4.73144E+03 -6.62834E+03 -6.33662E+02
 -5.96771E+03 -7.75179E+03  2.61404E+03 -7.75629E+03  3.15828E+03 -4.68614E+02  7.05676E+03 -7.58282E+02
  4.27622E+03 -3.44051E+03 -2.72906E+03  9.87565E+03 -2.35606E+03  1.72039E+03 -1.77122E+03 -7.63258E+02
 -7.21360E+03 -3.73630E+03  9.45561E+02  1.45308E+03  2.70056E+03 -2.43271E+03  1.34415E+03  1.78926E+03
  5.00335E+03 -2.25399E+03  2.71506E+03  3.10717E+03 -1.93710E+03  3.57619E+03 -3.73151E+03  1.31277E+03
  2.33924E+03 -2.79095E+03  5.60203E+03  1.08481E+03 -2.75513E+03  8.56388E+03 -3.43022E+03  1.01175E+04
 -3.35035E+03  2.25319E+03 -6.31309E+03  2.38186E+03 -7.22871E+02 -3.42287E+03  1.18208E+03  1.80181E+03
  1.32090E+03 -2.53341E+03  5.06593E+03  1.74029E+03  3.77903E+03  9.19584E+02 -3.81828E+02  4.93406E+03
 -2.55552E+03 -3.14444E+03 -1.96662E+03 -7.46906E+01  1.69152E+02 -2.34366E+03 -1.67799E+02 -2.25694E+03
 -7.42375E+02 -1.83366E+03  4.00905E+03  4.17354E+03 -1.11780E+03 -1.70432E+02 -2.24578E+03  9.80560E+02
  2.88229E+03 -4.37422E+03 -2.34302E+03  5.59573E+03 -8.15505E+01 -2.86119E+03  1.10530E+03 -1.63183E+03
  3.66728E+03  2.72228E+03  3.08637E+03  1.42390E+03  5.90982E+03  3.23726E+03 -1.24792E+03  4.57512E+03
 -5.02087E+03  2.67753E+03  3.95093E+02 -3.39062E+03 -1.21047E+03 -2.54286E+03  4.97537E+03 -3.28932E+03
 -2.42006E+03  1.41690E+03 -7.60902E+02  2.86464E+03 -2.71275E+02  6.04566E+03  2.25150E+03  4.14478E+03
  4.33113E+03  1.30015E+03 -2.77237E+03 -2.01330E+03 -4.24826E+03  5.81325E+02 -3.98871E+02  8.78070E+02
  1.63129E+03 -3.59204E+03 -7.97182E+03  1.31745E+03 -3.60933E+03 -8.48054E+02 -3.97192E+03 -8.42301E+03
  8.59327E+02 -5.00941E+03  4.15214E+03 -7.64770E+03  5.41070E+03 -3.26556E+03  9.04152E+03 -2.86868E+03
  7.40391E+03  2.88056E+03  7.04654E+03  1.27276E+03 -3.83986E+03  5.46945E+03 -1.25542E+03  3.37623E+03
 -4.38065E+03  2.20082E+03 -5.76535E+03 -5.87995E+02 -9.92932E+01 -2.11028E+03 -9.20710E+02  1.60125E+02
  1.84464E+03  2.88126E+03  1.54625E+03  4.49460E+03 -3.96709E+02  9.54600E+02 -4.00894E+02 -1.64695E+03
  5.94464E+03 -6.32216E+03  1.36090E+03 -2.57018E+03  4.93141E+03  2.85324E+03  3.43029E+03  1.44798E+03
 -3.75682E+03 -5.97675E+02 -3.91973E+03  3.33339E+03 -5.02796E+03  3.76156E+03 -2.77033E+03 -3.35768E+01
 -4.08530E+03 -2.71024E+03  5.12762E+03 -3.48540E+03  4.64032E+03 -4.40457E+03  2.97596E+03 -9.46025E+02
  1.81791E+03 -7.20011E+02  1.15317E+03 -5.12324E+03 -2.60080E+03 -5.73288E+02 -1.23481E+03  1.72179E+03
 -2.34924E+02  1.15527E+03 -2.25806E+03  5.35520E+03 -4.06938E+02  3.95793E+03 -1.05995E+03  1.13217E+03
  1.76440E+03 -1.52700E+03 -3.11344E+03 -2.02039E+03 -1.98342E+03 -2.99951E+03  1.43645E+03 -2.93042E+03
  1.75601E+03  2.48365E+02  3.71034E+03  1.45757E+02 -4.09401E+01 -6.29370E+03  1.59622E+03  4.00557E+03
  1.87488E+03  1.83976E+03 -2.70221E+03  1.30001E+03  1.20254E+03  3.70779E+03 -2.36450E+03  4.15509E+03
 -3.01987E+02 -2.54515E+03 -1.25941E+03 -1.90893E+03 -1.66625E+03 -7.94805E+02 -1.20516E+03 -1.44971E+03
 -2.35334E+03 -1.51851E+03  2.24211E+01 -5.06513E+02  8.90633E+02 -2.40587E+03  3.20675E+03 -2.19277E+03
  2.24539E+03  8.55705E+02  3.85761E+03 -2.55731E+03  3.77482E+02  2.57385E+03 -1.74793E+03  2.04029E+03
