 $NMID ID='MM_0lb_SNR50_10hz_g60_68.RAW', FMTDAT='(8E13.5)'
 TRAMP=1., VOLUME=1. $END
  3.06629E+05 -1.28207E+03  3.38819E+05  2.51392E+05  8.61061E+04  3.39767E+05 -1.28670E+05  2.48552E+05
 -1.85878E+05  8.62097E+04 -1.09706E+05 -2.85198E+04 -2.47860E+03 -5.17422E+04  4.71525E+04 -3.67107E+03
  3.58065E+04  5.17109E+04 -1.47144E+04  7.12739E+04 -5.85787E+04  6.72115E+04 -8.31214E+04  3.38935E+04
 -8.71694E+04 -8.33865E+03 -5.56548E+04 -5.06062E+04 -1.43294E+04 -7.14937E+04  3.13676E+04 -5.45558E+04
  4.11518E+04  6.52421E+02  1.92127E+04  3.83479E+04 -3.27408E+04  4.80527E+04 -7.44094E+04  2.01436E+03
 -5.57085E+04 -5.85154E+04 -1.44888E+04 -8.32474E+04  3.73595E+04 -6.38526E+04  5.13484E+04 -2.25623E+04
  4.87531E+04  7.60243E+03  2.78839E+04  2.61989E+04  1.86210E+04  3.06205E+04 -6.24949E+03  2.77687E+04
 -2.06726E+04  9.38873E+03 -1.84391E+04  3.40559E+03  2.67215E+03 -9.38700E+03  1.99701E+04  1.25476E+04
  1.17896E+04  3.99016E+04 -3.27574E+04  3.95893E+04 -7.04850E+04 -3.19184E+02 -5.35535E+04 -4.36838E+04
 -1.68420E+04 -6.43447E+04  4.23628E+04 -5.00071E+04  6.07775E+04 -1.91135E+03  4.00763E+04  3.91053E+04
 -5.91997E+03  3.84444E+04 -2.58020E+04  1.83123E+04 -3.45981E+04 -1.06171E+04 -2.08900E+04 -1.42471E+04
 -1.26270E+04 -1.67777E+04  6.19593E+03 -2.09865E+04  9.73215E+03 -1.81069E+04  1.77865E+04 -1.30718E+04
  8.40135E+03  8.04431E+03 -1.63325E+04  1.00615E+04 -2.59288E+04 -4.26973E+03 -7.45616E+03 -4.48953E+04
  2.85250E+04 -4.54136E+04  4.86676E+04 -2.24407E+04  4.33691E+04  1.94651E+04  2.08642E+04  4.03017E+04
 -1.10924E+04  3.63720E+04 -2.74962E+04  5.99294E+02 -1.06262E+04 -2.53525E+04  2.23304E+04 -3.55105E+04
  4.42546E+04 -1.23710E+04  3.94574E+04  3.12997E+04  2.12012E+04  4.77294E+04 -1.35665E+04  5.45846E+04
 -2.98511E+04  3.90868E+04 -4.63374E+04  7.35898E+03 -4.27029E+04 -1.56164E+04 -2.62870E+04 -4.79502E+04
  8.90431E+03 -4.88824E+04  2.81713E+04 -1.27944E+04  3.91068E+04  1.43566E+04  1.20766E+04  2.77526E+04
 -1.58056E+04  1.30458E+04 -1.11636E+04 -8.49691E+03  8.32976E+03 -1.49507E+04  2.29309E+04  1.44718E+04
  1.87623E+04  2.62758E+04 -5.89875E+03  2.17567E+04 -2.68195E+04  1.50592E+04 -3.16067E+04 -2.24410E+03
 -2.63717E+04 -1.89692E+04 -1.52149E+04 -2.72272E+04  5.74907E+03 -2.14158E+04  2.64766E+04 -2.50659E+04
  2.97618E+04 -1.73277E+04  3.33744E+04  1.35550E+03  2.40373E+04  1.81754E+04  1.26790E+04  3.81233E+04
 -1.46460E+04  3.27903E+04 -2.79729E+04  1.00925E+04 -2.30869E+04 -1.66632E+04 -3.82657E+03 -1.06121E+04
 -1.54781E+03  2.79976E+03 -4.66346E+03  3.81950E+03 -2.03865E+04  4.70534E+03 -1.82322E+04 -8.43872E+03
 -1.29737E+04 -2.51990E+04  7.54438E+03 -2.56419E+04  2.13245E+04 -1.94012E+04  2.07016E+04 -2.36877E+03
  1.76280E+04  1.56885E+04  4.06090E+03  2.30270E+04 -9.21118E+03  9.94034E+03 -2.09250E+04 -2.57710E+03
 -9.13704E+03 -2.47866E+04 -5.51110E+03 -3.14081E+04  9.45375E+03 -2.15192E+04  2.16467E+04 -8.83006E+03
  2.10962E+04  6.19315E+03  1.86300E+04  8.00099E+03  4.66047E+03 -7.91062E+02  9.33691E+03  9.23044E+01
  2.37702E+04  3.65535E+03  2.41936E+04  2.56893E+04  1.57722E+04  4.07469E+04 -2.57165E+03  4.20222E+04
 -2.55750E+04  2.93686E+04 -4.60248E+04  1.71007E+04 -4.33559E+04 -3.54189E+03 -3.49090E+04 -2.58358E+04
 -1.05530E+04 -3.10095E+04  1.47695E+04 -3.80540E+04  3.23048E+04 -1.57946E+04  2.13287E+04  7.75131E+03
  9.46760E+03  2.22398E+04 -1.06665E+04  1.96465E+04 -1.52256E+04  2.05455E+03 -1.95953E+04 -1.11944E+04
  1.58133E+03 -1.60611E+04  1.59663E+04 -1.07925E+04  1.24319E+04 -6.57733E+02  3.21509E+03  1.27086E+04
 -8.16206E+03  3.00769E+03 -1.41392E+04 -3.81839E+03 -7.55338E+02 -2.41091E+04  1.61201E+04 -1.97272E+04
  2.07982E+04 -6.14394E+03  2.81385E+04  1.18022E+04  2.23844E+04  1.75321E+04  1.22053E+04  2.87908E+04
 -4.41714E+03  3.18621E+04 -2.66152E+04  2.20401E+04 -1.67687E+04 -1.60648E+03 -1.33109E+04 -1.05610E+04
 -4.55687E+03 -4.85762E+03  3.69656E+03 -4.00819E+02 -3.28919E+03  5.59980E+03 -1.21818E+04  7.08189E+03
 -1.19682E+04  2.21114E+02 -1.08290E+04 -4.17913E+03 -9.15895E+03 -2.26357E+04  8.02612E+03 -1.53362E+04
  1.19780E+04 -5.15430E+03  1.03055E+04  2.64091E+03 -1.30889E+03  8.51269E+03 -4.19524E+03 -2.33513E+03
 -3.52900E+03 -1.67986E+04  1.28436E+03 -1.66314E+04  1.00025E+04 -1.50730E+04  1.52830E+04 -1.07171E+04
  2.18667E+04  1.60310E+03  2.11082E+04  9.12313E+03  7.98454E+03  1.51401E+04 -5.14370E+03  1.81897E+04
 -1.97786E+04  2.06237E+03 -1.01316E+04 -2.81679E+03  2.44166E+03 -5.65383E+02  7.15198E+03 -2.90289E+03
  9.68044E+03  1.76154E+04  2.46456E+03  1.80023E+04 -1.28047E+04  1.83729E+04 -1.97586E+04  6.40413E+03
 -1.46171E+04 -8.37195E+03  6.46577E+03 -1.74092E+04  4.99179E+03 -7.21321E+03  1.58602E+04  4.60706E+03
 -1.31125E+03  1.02653E+04 -7.95603E+03  1.19986E+04 -1.03876E+04  6.43420E+03 -6.58394E+03 -1.41288E+03
 -2.62198E+02 -1.73627E+04  3.61449E+03 -1.62890E+04  1.56610E+04 -3.70097E+03  1.85652E+04  6.44876E+03
  8.10649E+03  1.03927E+04 -2.50367E+02  1.94483E+04 -5.12354E+03  1.17047E+04 -1.00312E+04 -1.48029E+02
 -1.56546E+04 -8.08131E+03  2.39642E+03 -6.61466E+03  7.99894E+03 -1.50044E+04  3.95760E+03 -4.97929E+03
  6.22512E+03 -3.03238E+03 -1.11064E+03 -3.09068E+03  2.46791E+03 -4.50155E+03  2.29758E+03 -9.55740E+03
  1.18180E+04 -4.13220E+03  1.13569E+04 -1.40528E+03  1.69434E+04  8.43069E+03  1.26159E+04  1.93238E+04
 -2.06067E+03  1.98771E+04 -1.85969E+04  1.77240E+04 -2.72570E+04  3.85733E+03 -2.09723E+04 -1.66831E+03
 -5.86693E+03 -1.16224E+04 -5.39091E+03 -1.65281E+04  7.07344E+03 -7.21287E+03  2.24188E+03 -5.89296E+00
  2.21350E+03 -4.66321E+03  7.08746E+03 -5.93385E+03  1.09921E+04 -7.99191E+03  5.87880E+03  2.91179E+03
  1.74941E+04  1.07800E+04 -4.19959E+02  9.85452E+03  1.58951E+03  1.10879E+04 -1.06809E+04  1.26350E+04
 -1.94613E+04  1.07324E+03 -1.04708E+04 -1.14666E+04 -7.88689E+03 -1.06048E+04  1.00107E+04 -1.08974E+04
  1.39880E+04 -7.71138E+03  2.10775E+04  5.06302E+03  1.02168E+04  1.04856E+04 -2.23345E+03  1.29919E+04
 -3.68390E+03  8.48647E+03 -8.55207E+03 -7.44774E+01 -7.10196E+03 -4.07770E+03 -4.09803E+03 -4.81401E+03
 -5.08399E+03 -5.17973E+03 -3.53422E+03  5.76711E+03 -7.75796E+03 -4.37977E+03 -2.85144E+03  2.66832E+03
 -7.31025E+03 -1.54678E+04 -5.85686E+03 -1.59753E+04  9.55546E+03 -1.19073E+04  2.09501E+04 -1.88277E+03
  1.83254E+04  3.34407E+03  3.20699E+03  1.09933E+04 -4.32560E+03  9.22042E+03 -1.36591E+04  8.46967E+03
 -1.21258E+04  2.89194E+03 -1.28145E+04 -1.59426E+04 -2.88035E+03 -1.61892E+04  4.70146E+02 -1.10121E+04
  9.25851E+03 -2.21804E+03  1.69109E+03  3.32271E+03 -7.91501E+02  4.13101E+03 -3.48944E+02  2.52582E+03
  3.36923E+03 -1.20933E+03  4.25194E+03  2.36872E+03  1.01257E+03  5.27441E+03 -3.73510E+02  3.24674E+03
 -6.27069E+03  1.03994E+04 -1.07119E+04  5.62455E+03 -8.05215E+03  1.37378E+03 -1.02568E+04 -4.14795E+03
 -1.18858E+04 -2.08902E+04 -4.63337E+03 -1.75514E+04  1.21717E+04 -1.31443E+04  1.53171E+04  2.34132E+03
  6.11082E+03  8.25724E+03  7.58893E+03  5.05104E+03 -9.13673E+02  5.96789E+03 -7.01897E+03  2.81814E+03
  6.75255E+01 -8.26972E+03  5.18938E+03 -5.17889E+03  4.27418E+02 -2.71171E+03  1.32958E+03  3.83822E+02
  5.70219E+03  1.82224E+03 -2.14147E+03  3.55554E+03 -7.10510E+02  5.55502E+03  3.53781E+03 -7.06839E+03
  3.98822E+03  2.68791E+03  6.23767E+03  4.55459E+03  6.65043E+03  1.14503E+04  3.75279E+03  1.29639E+04
 -1.04109E+04  7.87558E+03 -9.02488E+03  6.89807E+03 -1.38497E+04 -7.96337E+03 -6.02682E+03 -6.66774E+03
 -5.91861E+03 -3.77263E+03  3.32987E+03 -6.15221E+03 -2.95706E+03  4.95912E+03 -1.81244E+03  6.99898E+03
 -7.54773E+03 -2.22689E+03 -9.96343E+03 -7.59423E+03 -4.79760E+03 -8.95471E+03 -6.73622E+03 -1.50024E+04
  3.66723E+03 -2.23548E+03  7.06979E+03  1.06008E+03  4.58180E+03  1.57906E+03 -8.54479E+02  5.18702E+03
  3.29284E+03 -3.93432E+03 -4.42244E+03 -2.32300E+03 -9.99583E+01 -5.40233E+03  4.63093E+03 -8.36032E+03
  9.36735E+03 -3.71171E+03  1.02375E+04 -2.21356E+03  7.27148E+03  1.09629E+04  2.45060E+02  4.02938E+03
 -6.04005E+03  6.32974E+02 -1.09586E+04 -4.85029E+03 -2.68683E+03 -6.82769E+03 -3.04565E+03 -9.79443E+03
  7.95103E+03 -2.32690E+03  4.91303E+03  4.33414E+03  7.53853E+02  3.83491E+03 -2.25219E+03  9.88522E+03
  1.19685E+03  1.27389E+03 -6.77103E+03  3.81983E+03  5.60528E+02 -3.96401E+03 -4.95323E+03  2.68313E+03
 -1.01495E+04  3.44567E+03 -7.29079E+02  2.86925E+03 -7.89821E+03 -2.58077E+03 -9.85864E+03 -7.97076E+03
 -6.42993E+03 -9.06697E+03  7.11742E+03 -1.57343E+04  1.64437E+04 -1.70589E+04  7.53290E+03 -8.48774E+03
  1.16883E+04 -3.41524E+03  9.81559E+03  8.74024E+03  4.60979E+03  1.43941E+04 -1.63686E+03  8.71781E+03
 -8.18317E+03  5.19395E+03 -9.62210E+03  5.04498E+01 -6.09274E+03 -1.58357E+03 -1.17898E+03  1.27812E+03
 -2.64436E+03 -5.05663E+03 -4.34235E+03  4.32403E+03 -1.71659E+03 -4.33143E+03  4.56619E+03  5.37024E+02
  3.32449E+03 -3.19596E+03  8.79960E+03  2.17828E+03  6.96399E+03  6.29261E+03  7.36915E+02  4.81836E+03
 -7.90044E+03  6.84775E+03 -4.49961E+03  7.04792E+03 -1.37819E+04 -3.21584E+03 -1.22690E+04 -7.59287E+03
  2.12776E+03 -8.94578E+03  5.05095E+03 -1.37777E+04  6.39499E+03 -6.24816E+03  1.21627E+04 -1.71330E+02
  6.55152E+03  7.80157E+03 -4.27837E+03 -4.31912E+03  1.81392E+03  2.27755E+03  3.85829E+03 -6.78479E+03
  5.06051E+03 -1.85841E+03  7.14897E+03  5.85721E+03 -1.89119E+03  7.77791E+03  1.48154E+03  6.73930E+03
 -3.79073E+03  5.53001E+03 -1.07079E+04 -2.98530E+03 -5.46860E+03 -9.54309E+02 -7.67244E+02 -6.48009E+03
 -2.67799E+03 -2.32498E+03  6.64194E+03 -3.19810E+03  7.27563E+03  1.07543E+03  3.38078E+03 -1.67604E+02
  5.82712E+03  7.21326E+03  1.29810E+03  2.13755E+03 -1.10100E+03 -3.64329E+02 -4.52011E+03  8.50297E+03
 -3.14558E+03 -2.20375E+03 -5.12608E+03 -2.35055E+02 -2.57786E+03  2.24013E+03 -3.83001E+03 -7.29436E+03
 -1.05426E+04  9.10359E+02 -5.05315E+03 -7.18736E+03  2.66571E+03 -2.34740E+03  1.07197E+04 -4.48392E+03
  8.05301E+03  3.89546E+03 -3.16196E+03  6.30729E+03 -2.15639E+03  6.83115E+03 -1.02925E+04  4.61985E+03
