 $NMID ID='MM_0lb_SNR50_19hz_g50_50.RAW', FMTDAT='(8E13.5)'
 TRAMP=1., VOLUME=1. $END
  3.08321E+05  1.66217E+03  3.36713E+05  2.50791E+05  8.77988E+04  3.39191E+05 -1.30175E+05  2.51505E+05
 -1.86056E+05  8.12387E+04 -1.06741E+05 -3.42312E+04  2.36446E+03 -5.35615E+04  5.41307E+04  4.30619E+03
  3.12826E+04  4.98831E+04 -2.00171E+04  7.57773E+04 -5.96093E+04  6.59207E+04 -7.95651E+04  3.31967E+04
 -8.42911E+04 -8.11200E+03 -5.60580E+04 -4.78009E+04 -1.47425E+04 -7.05988E+04  2.85499E+04 -4.40277E+04
  3.78864E+04  3.05400E+03  1.56344E+04  4.41703E+04 -3.34815E+04  4.31759E+04 -6.78152E+04  2.12167E+02
 -4.94803E+04 -5.65857E+04 -5.54702E+03 -7.67467E+04  2.96415E+04 -5.06376E+04  4.52738E+04 -1.81729E+04
  4.44049E+04  8.55602E+03  2.97119E+04  2.66800E+04  1.50542E+04  3.04796E+04 -3.24960E+03  2.53846E+04
 -2.48169E+04  1.10053E+04 -1.82964E+04 -3.54341E+03  4.84112E+03 -1.04641E+04  2.41579E+04  7.41675E+03
  6.02735E+03  3.73827E+04 -3.17141E+04  3.40319E+04 -5.95796E+04  1.47254E+03 -5.18363E+04 -4.31709E+04
 -1.23426E+04 -5.98951E+04  3.89938E+04 -4.60653E+04  5.67180E+04 -2.93883E+03  2.79452E+04  2.84412E+04
 -1.17934E+04  3.35760E+04 -2.74766E+04  1.56086E+04 -2.81326E+04 -4.34169E+02 -1.50430E+04 -1.10939E+04
 -6.60188E+03 -1.46656E+04 -1.92148E+03 -1.52816E+04  8.97964E+03 -2.53566E+04  1.71844E+04 -1.24208E+04
  1.14095E+04  8.30273E+03 -7.23080E+03  1.12900E+04 -2.20587E+04 -2.63073E+03 -8.19110E+03 -3.27961E+04
  2.03863E+04 -3.96786E+04  4.71445E+04 -1.76613E+04  4.51973E+04  1.60835E+04  1.36015E+04  4.08665E+04
 -1.70712E+04  2.86488E+04 -2.49666E+04  2.48986E+03 -5.39329E+03 -3.02004E+04  2.12454E+04 -3.04640E+04
  3.96195E+04 -8.36420E+03  2.82035E+04  2.74058E+04  1.41241E+04  4.28789E+04 -1.15221E+04  4.57657E+04
 -2.70128E+04  3.18305E+04 -3.30794E+04  1.28058E+04 -4.24658E+04 -1.22981E+04 -2.16861E+04 -3.62154E+04
  8.89703E+03 -3.45520E+04  2.61592E+04 -1.20443E+04  2.59126E+04  1.66326E+04  6.68776E+03  1.96643E+04
 -1.72876E+04  1.01387E+04 -1.09484E+04 -8.42934E+03  6.05252E+03 -7.09584E+03  1.94143E+04  4.61466E+03
  1.03855E+04  2.04846E+04 -4.46287E+03  2.31568E+04 -2.01627E+04  7.61339E+03 -2.50886E+04 -8.23761E+03
 -1.44878E+04 -1.59923E+04 -5.04959E+03 -1.77751E+04  7.95123E+03 -1.02323E+04  1.52056E+04 -1.37283E+04
  2.02457E+04 -1.27465E+04  2.46668E+04 -1.82119E+03  2.37873E+04  1.39435E+04  2.11228E+03  3.17064E+04
 -1.75524E+04  2.42163E+04 -2.53086E+04  9.33037E+03 -1.60532E+04 -9.80767E+03 -4.21462E+03 -1.24856E+04
  1.91941E+02 -3.19635E+03 -2.96493E+03  5.68887E+03 -1.24068E+04  3.34215E+03 -1.44386E+04 -2.43837E+03
 -8.79956E+03 -1.80568E+04  4.49194E+03 -1.99673E+04  1.14539E+04 -1.34576E+04  1.46960E+04 -3.17346E+03
  1.15536E+04  1.15589E+04 -1.60327E+03  1.45593E+04 -8.55164E+03  4.83327E+03 -1.38318E+04 -6.03017E+02
 -1.47285E+04 -1.88854E+04 -1.03342E+02 -2.05124E+04  5.40370E+03 -1.30708E+04  1.29824E+04 -9.37115E+03
  1.41518E+04 -1.64451E+03  7.69577E+03  4.71915E+03  3.98459E+03  7.82664E+01  5.01445E+03  4.14023E+03
  1.62064E+04  1.54555E+03  1.61855E+04  1.41255E+04  9.01199E+03  2.54623E+04 -3.60066E+03  3.07479E+04
 -1.70241E+04  1.95452E+04 -2.79711E+04  1.06463E+04 -2.84297E+04 -8.08877E+02 -1.82235E+04 -1.54476E+04
 -9.16056E+03 -1.58668E+04  8.98214E+03 -1.93569E+04  1.78860E+04 -1.28440E+04  1.73278E+04  5.32055E+03
  9.05360E+03  1.43785E+04 -7.27454E+03  1.12035E+04 -1.15156E+04 -8.83801E+01 -1.05718E+04 -6.84271E+03
  2.55208E+03 -1.32360E+04  5.55348E+03 -1.32360E+04  6.92889E+03 -2.47965E+03 -1.90482E+03  6.09816E+03
 -3.63449E+03  7.58003E+02 -7.84438E+03 -2.49297E+03  6.86116E+02 -6.92895E+03  8.01708E+03 -9.96001E+03
  7.22220E+03 -5.56759E+03  9.95943E+03  7.78141E+02  1.43994E+04  1.06581E+04  3.93863E+03  1.46656E+04
 -1.28678E+03  1.55929E+04 -1.32627E+04  7.28449E+03 -1.34681E+04  5.00097E+02 -5.64153E+03 -4.94741E+03
 -5.62559E+03 -1.36245E+03 -3.80859E+02  4.32695E+03 -3.02860E+02  3.44342E+03 -4.42292E+03  2.64561E+03
 -1.02761E+04 -2.46832E+03 -9.38955E+03 -4.24428E+03  2.29259E+03 -8.87472E+03  6.91067E+03 -3.71478E+03
  1.23814E+03 -5.76422E+03  4.31398E+03  3.93471E+03  1.39240E+02  3.34296E+03 -7.93668E+02 -1.64984E+03
 -1.07217E+03 -6.20810E+03 -1.57768E+02 -8.26393E+03 -2.76966E+03 -1.52496E+04  1.42538E+04 -8.75175E+02
  1.21675E+04  2.77290E+03  5.43019E+03  2.78361E+03  5.87142E+02  7.84711E+03 -4.96406E+03  9.58476E+03
 -5.54477E+03  2.42308E+03 -6.41955E+03 -1.86582E+03  1.18736E+03  1.24855E+03  1.33666E+03 -3.66887E+02
  5.23395E+03  6.76817E+03  9.56056E+02  5.55542E+03 -3.18926E+03  5.94903E+03 -8.31579E+03  9.89427E+02
 -5.92243E+03 -1.63107E+03 -2.19680E+03 -7.40970E+03  6.73969E+03 -2.93766E+03  2.65818E+03  1.07645E+02
  1.84540E+03  6.46386E+03 -6.75943E+03  4.36355E+03 -6.92906E+03  5.52449E+02 -4.00011E+03 -1.22206E+03
 -2.02817E+03 -7.20788E+03 -1.29861E+03 -8.73680E+03  6.26521E+03 -3.89036E+03  6.35835E+03 -3.78066E+03
  5.20921E+03  5.35409E+03  3.50511E+03  7.55864E+03 -4.50273E+03  6.76065E+03 -3.94340E+02  2.03399E+02
 -7.13980E+03 -2.42465E+03 -2.87538E+03 -7.68309E+03  1.06821E+03 -4.12622E+03  1.04655E+03 -3.83266E+03
  7.27579E+03  1.17764E+03 -3.35581E+03 -1.94527E+03  1.73694E+03  4.65622E+02  1.74871E+03 -2.94026E+03
  7.66480E+03 -1.64097E+03  4.34989E+03 -2.79356E+03  6.96680E+03  2.09213E+03  6.16728E+03  3.65203E+03
 -3.31909E+02  5.35823E+03 -7.57631E+03  4.33660E+03 -5.15005E+03 -5.49567E+02 -9.42800E+03 -3.80496E+03
  1.38925E+03 -6.31864E+03 -3.14528E+02 -5.03065E+03 -2.53461E+03 -1.37913E+03  3.12734E+03 -2.84491E+03
  2.23813E+03 -4.11498E+03  1.43977E+03 -8.48143E+02  8.49286E+03 -2.85095E+03  1.16770E+03  2.92097E+03
  4.15225E+03 -1.15594E+03  3.17309E+01  3.59509E+03 -7.64955E+02  2.01953E+03 -1.20548E+03  7.84694E+03
 -7.96060E+03  2.28100E+03 -1.86437E+02 -5.79501E+03 -2.51655E+03 -3.97817E+03  1.85705E+03 -3.99542E+03
  8.81296E+03 -4.38011E+03  2.98379E+03  1.00042E+03  3.05405E+03  2.74564E+03 -2.56363E+02  6.96719E+03
 -2.92471E+03  2.40164E+03 -5.49681E+03 -2.55848E+02 -1.83160E+02 -1.87168E+03 -1.77110E+03 -2.50532E+02
  1.79068E+03  2.18328E+03 -9.12297E+02  5.35676E+03  3.24261E+03  4.10899E+02 -1.00981E+03  2.48896E+03
 -3.31036E+02 -7.83819E+02 -5.04516E+03 -5.96886E+03  1.71144E+03 -4.49188E+03  3.30005E+03 -2.47242E+03
  2.21862E+03  7.07998E+02  3.04850E+02  9.88297E+02 -9.17519E+02  9.69212E+02 -3.19326E+03  2.86998E+03
 -2.45557E+03  5.17046E+01 -5.81456E+01 -2.98945E+03  1.38084E+03 -1.34324E+03  2.44413E+03 -1.71778E+03
  4.30378E+03 -8.17047E+02  5.58312E+02 -3.80981E+02  4.22931E+03  1.26081E+03  2.97486E+03  1.32615E+03
  6.41841E+03  1.69507E+02  6.11571E+02  2.83306E+03  2.11369E+03 -1.01901E+03  6.29898E+02  1.97418E+03
  3.15101E+03  6.31938E+03 -2.91078E+03  4.50599E+03 -3.25612E+03  3.27997E+03 -8.36335E+03  3.99012E+03
 -3.48556E+03 -9.32022E+03  3.47669E+02 -4.89745E+01  7.55492E+03 -4.77156E+03 -3.79682E+02  1.04354E+03
 -2.15456E+03  3.22585E+03  2.15987E+02  9.86054E+02 -2.15410E+03 -1.57034E+03 -3.47472E+03  8.75186E+02
  5.01523E+02  3.97877E+03 -1.08452E+03 -2.70907E+03  1.23352E+03  2.73904E+03  1.30330E+03 -8.54903E+02
 -1.36936E+03  4.90559E+02  2.35682E+03  1.18682E+03  6.92088E+02  3.12412E+03  2.11202E+03 -1.20162E+03
  1.61330E+03  2.21703E+02  5.82657E+02 -1.70336E+03  1.88479E+03 -5.63936E+01  3.59441E+03  4.01311E+03
  2.74978E+03  2.26278E+03 -7.21490E+02  2.54107E+03 -2.01743E+03  2.82524E+02 -2.80356E+03  3.52385E+03
  9.58804E+02 -3.14219E+03  1.68888E+03 -6.07475E+03 -2.51779E+03 -6.04746E+02 -7.47583E+02  5.09723E+03
 -3.81539E+03  8.39185E+02  4.85421E+02 -5.17360E+03 -3.27732E+02 -1.23572E+03 -2.00205E+03 -4.03094E+03
 -2.84277E+03 -2.61777E+03  3.18789E+03 -2.47293E+03 -4.18492E+02  1.45935E+03  1.29507E+03  1.20145E+03
 -9.46198E+02  2.89238E+03  1.47058E+03 -2.74606E+01  2.23145E+03 -3.30903E+03  4.59250E+03  1.80429E+03
 -2.63301E+03  1.44737E+03  1.85699E+03  3.14082E+02  1.79269E+03  2.29508E+03 -1.23879E+03  2.61388E+02
  3.05647E+02 -1.34988E+03 -2.72124E+02 -3.61399E+03 -5.69720E+02 -1.90587E+03  9.31300E+02 -2.01822E+02
  1.60168E+02 -2.29206E+03  3.45239E+03 -4.70193E+03  1.49224E+03  6.12448E+03  7.38674E+02  1.12146E+03
  2.67557E+03  2.52957E+03 -2.02856E+03 -3.91329E+03  4.98016E+03  4.82422E+03 -1.34059E+03 -2.51107E+03
 -6.65173E+02  1.99587E+03 -2.60197E+03  1.40653E+03 -1.14788E+03  1.21059E+03 -5.91754E+03 -1.31543E+03
 -6.16747E+02 -8.27948E+02 -6.79190E+02 -2.99278E+03  1.04511E+02 -2.94434E+03  1.91055E+03  4.56888E+02
  3.86596E+03  3.17395E+03  1.65852E+02  1.31397E+03 -5.76896E+02  5.83174E+02  1.31810E+03  1.02672E+03
 -1.44240E+03  2.22492E+03 -4.56560E+03  3.50084E+03  9.15769E+02  2.33868E+03 -3.12348E+03  1.73746E+03
 -5.57850E+03  1.34962E+03 -1.14586E+03  3.62892E+03  3.18345E+03 -8.39985E+02 -3.37644E+03 -1.44259E+03
 -5.36110E+03  2.97191E+03  4.39702E+03  6.36230E+02  1.62654E+03 -5.83327E+03 -3.60719E+03  4.48828E+03
 -2.27206E+03  1.71781E+03 -2.26097E+03  2.96622E+03 -2.83303E+03 -2.81927E+03  2.26499E+03 -7.35756E+01
  1.90526E+02 -1.54745E+03 -9.99700E+02 -3.92346E+03  1.79190E+03 -2.07201E+03 -3.23115E+03 -4.81006E+02
  6.58431E+03 -3.08115E+02  3.79355E+03 -1.39592E+03  2.74352E+03 -4.65364E+03 -1.07332E+03 -5.10120E+02
 -1.37934E+03 -1.82525E+03  6.29601E+02  3.45083E+03 -1.79007E+03 -1.56800E+03 -3.09569E+03 -5.00241E+02
  1.29879E+03 -2.25884E+03 -2.33190E+03  2.24273E+03 -2.78265E+03  1.83003E+03  9.29270E+01  1.91474E+03
  1.86454E+03 -1.33691E+03  2.60285E+03  1.10258E+03  3.60846E+03  1.35959E+03  2.63878E+03  1.59877E+03
 -3.56760E+02  2.88541E+03 -1.28775E+03  3.30160E+03  1.09116E+03  4.09155E+03 -1.81444E+03 -3.22708E+02
 -5.51301E+02  4.30164E+03  2.02376E+03  4.59089E+03 -3.80899E+03  2.72594E+03 -1.90767E+03 -1.41298E+03
 -4.42502E+03  2.80714E+03  9.28427E+02 -3.31701E+03  2.09423E+03  1.18044E+03  8.51781E+02  2.58082E+03
  2.23939E+03 -3.14240E+02  6.95133E+02  2.14145E+03  6.15023E+02 -1.37724E+03  3.19998E+03 -1.03751E+03
