 $NMID ID='MM_0lb_SNR50_12hz_g45_27.RAW', FMTDAT='(8E13.5)'
 TRAMP=1., VOLUME=1. $END
  3.07733E+05  3.79462E+03  3.38268E+05  2.48551E+05  8.28005E+04  3.42618E+05 -1.33211E+05  2.49615E+05
 -1.92744E+05  8.74343E+04 -1.12447E+05 -3.60823E+04  4.40684E+03 -4.48210E+04  5.98265E+04  2.10519E+02
  3.30522E+04  5.29908E+04 -1.86020E+04  7.48515E+04 -5.76109E+04  6.11291E+04 -7.97371E+04  3.72743E+04
 -8.12886E+04 -1.30547E+04 -6.23850E+04 -4.94820E+04 -1.33340E+04 -7.04824E+04  3.18569E+04 -4.28089E+04
  3.59712E+04  1.20974E+03  1.58862E+04  5.04654E+04 -3.36107E+04  4.73371E+04 -6.98349E+04 -2.54255E+03
 -5.01783E+04 -5.29788E+04 -1.17814E+04 -7.66026E+04  3.62187E+04 -5.94339E+04  4.31528E+04 -1.77984E+04
  4.69633E+04  1.10106E+04  3.37627E+04  2.53365E+04  1.45483E+04  3.27029E+04 -5.69498E+03  2.51689E+04
 -1.82017E+04  8.17086E+03 -1.58185E+04 -1.71606E+03  8.64999E+03 -7.87386E+03  2.02971E+04  1.30602E+04
  6.46725E+03  3.60308E+04 -3.06927E+04  3.57296E+04 -6.53717E+04 -2.71825E+02 -5.70167E+04 -4.05222E+04
 -1.51633E+04 -6.33485E+04  3.84036E+04 -4.43523E+04  5.82132E+04 -1.16657E+03  3.21345E+04  3.31158E+04
 -5.66325E+03  3.99028E+04 -3.17466E+04  1.66614E+04 -3.31319E+04 -2.97320E+03 -1.64205E+04 -1.14645E+04
 -1.13582E+04 -1.60842E+04 -3.12696E+03 -1.51755E+04  6.80359E+03 -1.99943E+04  1.57033E+04 -2.11741E+04
  1.10801E+04  8.76253E+03 -6.57063E+03  1.09655E+04 -2.09614E+04 -7.37514E+03 -6.03311E+03 -3.42765E+04
  2.58025E+04 -3.87239E+04  5.28944E+04 -2.31760E+04  4.05398E+04  2.28674E+04  1.46256E+04  4.34534E+04
 -1.47549E+04  3.43999E+04 -2.54099E+04  1.44086E+03 -7.84566E+03 -3.15732E+04  2.64458E+04 -3.24722E+04
  4.17951E+04 -5.58396E+03  3.82920E+04  2.62897E+04  2.02724E+04  4.78211E+04 -2.27213E+03  4.65737E+04
 -3.43029E+04  3.59636E+04 -4.40489E+04  3.33006E+03 -4.37277E+04 -9.74233E+03 -2.33451E+04 -3.92610E+04
  8.77807E+03 -4.03149E+04  3.07043E+04 -1.72026E+04  2.63053E+04  1.35792E+04  1.14928E+03  2.14989E+04
 -1.30322E+04  1.38940E+04 -1.02842E+04 -8.62708E+03  3.28350E+03 -1.40195E+04  2.16281E+04  5.20836E+03
  1.46383E+04  2.29057E+04 -2.59003E+03  2.98340E+04 -2.72416E+04  1.33691E+04 -2.29214E+04 -1.02987E+03
 -2.43665E+04 -1.55798E+04 -4.55089E+03 -1.89668E+04  1.07647E+04 -2.76426E+04  1.59149E+04 -2.01448E+04
  2.61946E+04 -1.74171E+04  3.11864E+04  5.97851E+03  2.35765E+04  1.98044E+04  4.67467E+03  3.57759E+04
 -2.06572E+04  2.97588E+04 -2.94649E+04  1.09500E+04 -2.28680E+04 -8.63100E+03 -2.00794E+03 -1.48296E+04
  3.51666E+03  1.00765E+03 -5.34363E+03  5.20948E+03 -1.95309E+04  7.44051E+03 -1.79478E+04 -8.74225E+03
 -1.10735E+04 -1.82390E+04  5.71199E+03 -2.50105E+04  1.92025E+04 -1.92416E+04  1.93209E+04 -9.42494E+02
  1.29689E+04  1.29182E+04  5.35379E+02  2.56445E+04 -1.75925E+04  1.23629E+04 -2.11951E+04 -4.52770E+03
 -1.49797E+04 -1.76788E+04  1.20842E+03 -1.83893E+04  1.08433E+04 -1.80166E+04  2.25636E+04 -1.28702E+04
  2.14013E+04 -1.43963E+03  1.25975E+04  4.59045E+03  7.59855E+03  1.68613E+03  5.33536E+03  3.18898E+03
  1.83425E+04 -1.00092E+02  1.96469E+04  1.54060E+04  1.15789E+04  3.19604E+04 -4.25283E+03  3.69282E+04
 -1.95172E+04  2.69066E+04 -3.47135E+04  1.63545E+04 -3.77322E+04 -5.74067E+03 -2.91131E+04 -2.45068E+04
 -1.49078E+04 -3.09715E+04  1.50015E+04 -2.74724E+04  2.47947E+04 -1.20820E+04  2.38824E+04  1.07148E+04
  8.04645E+03  1.62972E+04 -1.15940E+04  1.70219E+04 -1.50414E+04 -7.70550E+02 -1.93082E+04 -1.02401E+04
  2.41191E+03 -1.52233E+04  9.67351E+03 -1.54497E+04  1.00230E+04 -5.90160E+02  3.98697E+03  4.55939E+03
 -8.15295E+03  2.04171E+02 -4.64589E+03 -8.13228E+03  3.16142E+03 -1.59029E+04  1.13261E+04 -1.35729E+04
  1.68409E+04 -6.30891E+03  1.31224E+04  7.17723E+03  2.00707E+04  1.72600E+04  4.51064E+03  2.18642E+04
 -1.85142E+03  2.22123E+04 -1.72474E+04  1.22149E+04 -2.09660E+04  1.80316E+03 -1.44707E+04 -3.07715E+03
 -5.58266E+03 -4.15884E+03  6.50696E+02 -3.92564E+03  1.31885E+03  1.51063E+03 -1.44007E+03  3.41554E+03
 -1.18399E+04 -6.96109E+02 -1.31133E+04 -1.05197E+04 -4.07780E+03 -1.61407E+04  8.49183E+03 -1.28754E+04
  9.62976E+03 -5.30901E+03  7.88700E+03  6.49791E+03 -1.10289E+00  7.81659E+03 -4.86610E+03  1.80562E+03
 -5.07911E+03 -6.72078E+03 -3.61721E+03 -1.37858E+04  4.84428E+03 -7.06906E+03  1.73413E+04 -4.25754E+03
  2.41716E+04  3.33070E+02  1.44940E+04  8.86856E+03  4.81235E+03  1.66750E+04 -6.93046E+03  1.58319E+04
 -8.66281E+03 -1.34879E+03 -5.43611E+03 -1.26987E+03  3.22741E+02 -4.91373E+01  6.92997E+03 -1.19419E+03
  1.06225E+04  2.21448E+03 -6.26095E+02  1.20992E+04 -7.75796E+03  1.14012E+04 -9.81938E+03  1.92757E+02
 -6.73856E+03 -9.10463E+03 -3.00155E+03 -5.02797E+03  1.41272E+03 -7.40895E+03  1.15686E+04  1.68231E+03
  1.32823E+03  5.94697E+02 -5.51266E+03  8.76716E+03 -6.26614E+03 -2.46273E+03 -8.46429E+03 -3.57723E+03
 -7.01601E+03 -1.07517E+04  1.20910E+03 -1.62328E+04  1.04670E+04 -1.08262E+04  1.55146E+04 -2.45550E+03
  3.55003E+03  1.19403E+04 -3.71599E+03  1.43893E+04 -9.93411E+03  9.46814E+03 -1.09438E+04  4.57218E+02
 -7.91790E+03 -1.43854E+04  1.28897E+03 -6.53655E+03  5.05135E+03 -1.40153E+04  1.22440E+04  7.00650E+02
  2.26633E+03  2.70604E+03  3.19161E+03  4.61664E+03 -1.70087E+02  3.56174E+02  3.93551E+03 -3.45136E+03
  1.34359E+04 -7.49739E+03  1.14819E+04  6.78826E+03  1.09840E+04  4.67884E+03  1.02177E+04  1.26820E+04
 -4.54961E+03  1.52937E+04 -1.52979E+04  1.45671E+04 -2.02635E+04  5.94754E+03 -1.81973E+04 -8.10992E+03
 -9.03372E+03 -1.54034E+04 -4.20114E+02 -9.90896E+03  2.83655E+03 -2.74644E+03  4.89220E+02 -7.59717E+03
  7.23603E+03 -1.39826E+01  5.83768E+03 -4.64797E+03  3.27434E+03 -3.44718E+03  2.18378E+03 -2.69952E+03
  7.44163E+03  2.40118E+03  3.43932E+03  7.24642E+03 -1.91298E+03  1.09420E+03 -5.42109E+03  6.39547E+03
 -1.10650E+04  6.42724E+02 -5.60727E+03 -8.46422E+03 -3.52354E+03 -1.37860E+04  7.70158E+03 -1.00723E+04
  9.81162E+03 -7.06377E+03  1.60402E+04  1.68617E+02  7.30233E+03  7.03297E+03  1.61836E+03  1.27255E+04
 -4.19791E+03  1.05637E+04 -7.47917E+03  2.65067E+03 -4.54760E+03  4.61136E+03 -5.99395E+03 -1.60759E+03
  2.25875E+03  9.14188E+02 -1.91238E+02  3.65761E+03 -6.86087E+03 -3.32214E+02 -1.01511E+03  1.70736E+03
 -9.94247E+03 -9.71386E+03  1.02815E+03 -7.99107E+03  4.83421E+03 -9.98851E+03  1.08221E+04 -1.05469E+04
  9.50652E+03  1.79949E+03  6.99494E+03  9.06447E+03 -2.37796E+03  1.18424E+04 -9.25860E+03  3.30310E+03
 -8.43159E+03  4.41278E+03 -5.77229E+03 -1.03965E+04  3.77327E+02 -1.08824E+04  6.21074E+03 -1.02891E+04
  6.13815E+03 -3.27416E+03  5.14477E+02  1.36803E+03  1.23853E+03  1.34222E+03  2.69707E+03  2.61190E+03
  4.04168E+03 -3.89057E+02  1.09778E+03  2.42923E+03  1.92149E+03  3.41630E+03  3.28606E+03  1.07056E+04
 -4.16997E+03  4.10538E+03 -4.01365E+03  5.33953E+03 -1.26087E+04  3.45855E+03 -1.30041E+04 -2.87970E+03
 -4.59079E+03 -8.23495E+03  4.13489E+03 -8.17031E+03  5.87495E+03 -7.77292E+03  5.62169E+03 -5.34263E+03
  3.65179E+03  6.99592E+03  3.54739E+03  3.15673E+03 -5.12566E+02  5.28804E+02 -1.02546E+04 -6.74183E+03
 -4.06513E+03 -3.32373E+03  5.09912E+03 -7.19082E+03  6.38737E+03 -6.87341E+03  3.15665E+03 -7.69265E+02
  6.31492E+03  2.63898E+03  6.60303E+03  2.23528E+03 -5.76286E+03 -9.68976E+01  3.69740E+03 -3.69404E+03
 -6.49649E+02  3.94319E+02  1.67350E+03  6.75472E+03  3.09880E+03  1.03289E+04 -6.07511E+03  7.81308E+03
 -2.42213E+03  7.81584E+03 -1.61975E+03  1.47457E+03 -6.90416E+03 -3.83072E+03 -4.90708E+03 -6.13542E+03
  2.68724E+03 -1.92283E+03  2.14600E+03 -1.86332E+03  4.45075E+03  2.73282E+03 -4.20527E+03 -2.59181E+03
 -2.06733E+03  4.69780E+03 -8.62890E+03 -1.21459E+03 -3.50404E+03 -7.27282E+03 -1.12012E+03 -9.35966E+02
  3.74509E+03 -1.00658E+03  2.03995E+03  2.48907E+03  3.93834E+03  9.00377E+02  5.42071E+03  7.56049E+02
  2.09232E+03 -1.09076E+03 -3.58102E+03 -4.25311E+03 -3.56059E+03  4.87460E+02 -1.74051E+02 -4.56678E+03
  3.34478E+02 -3.08344E+03  7.03682E+03 -3.75420E+03  3.35856E+03  2.38503E+03 -4.45640E+03  2.71701E+03
 -7.01033E+03 -3.77925E+01 -6.08665E+03 -7.90634E+02 -6.35299E+03 -6.71156E+03 -5.12108E+02 -3.36688E+03
  6.57116E+03 -4.27410E+02  1.94559E+02 -4.93277E+03  7.36045E+02  1.60829E+03  3.29024E+03  6.54792E+03
  2.94830E+03  5.03880E+03 -2.33150E+03  3.25480E+03 -1.37603E+03 -2.26157E+02 -4.44231E+03 -1.15130E+03
  1.54382E+03  1.86250E+03 -1.90112E+03 -3.05435E+03 -3.93224E+03 -1.99483E+03 -1.18673E+04 -4.33583E+03
 -6.83570E+02 -4.26079E+03  2.43872E+03 -1.08317E+04  5.72579E+03 -7.67312E+03  5.99628E+03 -2.57590E+03
  3.37917E+03  2.53364E+01  4.04387E+03  5.29614E+03  5.18083E+03  1.20141E+04 -2.47193E+03  9.78889E+03
 -3.55634E+03  5.67921E+03 -2.04284E+03 -1.46945E+03 -9.51095E+02  6.24454E+02  8.87434E+02  4.73052E+03
 -3.54597E+02  4.57948E+01 -1.14148E+02 -4.48763E+03 -3.43806E+03 -5.87635E+03  3.53895E+03 -2.30902E+03
 -8.37123E+02 -2.96723E+03  4.69196E+03 -1.99505E+03  2.61543E+03  4.44282E+03  7.50962E+02  3.01035E+03
 -7.38819E+03  1.09842E+04 -6.04254E+03  3.59245E+03 -4.70296E+03  2.47265E+03 -6.32995E+03 -3.67168E+03
 -6.70623E+03 -3.11530E+03  5.13140E+03 -5.37384E+03  7.40178E+03  1.36395E+03  4.72949E+03  6.46058E+03
 -2.42195E+03  3.94076E+03 -9.16720E+02  4.16882E+03 -1.85872E+03  3.30670E+03 -3.78478E+03 -6.45411E+03
 -6.21312E+02  2.03297E+02 -7.20463E+02  7.79693E+03  6.27168E+02 -1.16135E+03  1.45826E+03  1.56377E+03
 -4.77175E+03  1.53921E+03 -6.11965E+03 -2.13327E+03 -4.19920E+03 -6.78987E+03  1.26644E+03 -5.38816E+03
  6.61079E+01 -6.85487E+03  2.69131E+03 -8.49251E+02  5.49171E+03  2.50534E+03  2.27235E+03  3.60132E+03
  4.05721E+03  3.68853E+03  5.66585E+02  5.77133E+03 -6.43866E+02 -2.51567E+03  2.00045E+03  3.55347E+03
 -6.55818E+02  2.02812E+03  3.26616E+03 -5.95991E+02 -3.44418E+02  1.04932E+03  4.06758E+02  1.34456E+02
  6.35207E+02 -1.73109E+03 -1.66069E+03 -4.09261E+03  5.45790E+03 -8.59423E+03  6.15785E+03 -2.85058E+03
  4.52132E+03  1.51385E+03  2.09955E+03  7.50606E+02 -1.75528E+03  5.08693E+03  4.84185E+02  1.16856E+04
