 $NMID ID='MM_0lb_SNR50_14hz_g60_39.RAW', FMTDAT='(8E13.5)'
 TRAMP=1., VOLUME=1. $END
  3.06521E+05 -1.06612E+02  3.38524E+05  2.52322E+05  8.59331E+04  3.34645E+05 -1.33578E+05  2.51405E+05
 -1.89977E+05  8.42065E+04 -1.10438E+05 -3.34200E+04  2.55203E+03 -5.71328E+04  5.63814E+04  1.16532E+03
  3.51407E+04  5.22972E+04 -2.05041E+04  6.87257E+04 -6.01680E+04  6.39727E+04 -8.55684E+04  3.60661E+04
 -7.63165E+04 -1.20828E+04 -5.53554E+04 -4.55171E+04 -1.18718E+04 -7.40886E+04  2.43003E+04 -4.56274E+04
  3.97713E+04  3.94257E+03  2.00569E+04  5.46100E+04 -3.48354E+04  5.01086E+04 -6.70575E+04  2.22105E+03
 -5.21770E+04 -5.99525E+04 -5.12554E+03 -7.95522E+04  3.12393E+04 -5.51182E+04  5.07400E+04 -2.14772E+04
  4.58902E+04  1.42131E+04  3.30774E+04  2.27787E+04  1.64434E+04  3.40470E+04 -4.04992E+03  2.71228E+04
 -2.43735E+04  1.07287E+04 -2.45894E+04 -4.13576E+03  9.19337E+03 -5.04873E+03  2.45086E+04  1.18160E+04
  4.27697E+03  3.99748E+04 -2.98595E+04  3.83573E+04 -6.27814E+04  1.72658E+03 -5.54299E+04 -4.50936E+04
 -1.77661E+04 -6.46041E+04  3.64505E+04 -4.75097E+04  6.09267E+04  2.95350E+03  3.61475E+04  3.28541E+04
 -1.63773E+03  3.40252E+04 -3.26512E+04  2.14259E+04 -3.65691E+04 -3.07183E+03 -2.05620E+04 -8.92577E+03
 -5.84469E+03 -1.47329E+04 -1.19930E+03 -1.34175E+04  1.21281E+04 -2.69688E+04  1.47880E+04 -1.14904E+04
  9.50895E+03  6.84100E+03 -1.13099E+04  9.53213E+03 -2.01008E+04 -8.87805E+03 -6.85571E+03 -3.85311E+04
  2.39974E+04 -4.42618E+04  4.75809E+04 -2.10929E+04  4.35840E+04  1.78303E+04  1.39438E+04  4.68660E+04
 -1.75284E+04  3.36139E+04 -2.41044E+04  4.78091E+02 -1.05954E+04 -2.74745E+04  2.45122E+04 -3.80542E+04
  4.53134E+04 -1.13594E+04  3.89144E+04  2.03506E+04  2.42907E+04  4.94033E+04 -4.39578E+03  5.06514E+04
 -3.46703E+04  3.49828E+04 -4.74215E+04  1.52533E+04 -4.06628E+04 -2.06140E+04 -2.06342E+04 -3.76255E+04
  7.78474E+03 -3.39517E+04  3.23648E+04 -1.69702E+04  2.81510E+04  9.96978E+03  5.51344E+03  1.97989E+04
 -1.51258E+04  7.87678E+03 -1.13181E+04 -3.60067E+03  7.42295E+03 -1.34168E+04  1.97349E+04  7.34147E+03
  1.33702E+04  2.24830E+04 -6.29450E+03  2.22864E+04 -2.54774E+04  1.35794E+04 -2.88205E+04 -5.46140E+03
 -2.01129E+04 -1.69817E+04 -1.19315E+04 -2.60887E+04  3.45394E+03 -2.53417E+04  1.82008E+04 -1.91227E+04
  3.00404E+04 -1.27455E+04  3.53379E+04  1.37680E+03  2.46745E+04  2.53840E+04  1.13757E+03  3.47950E+04
 -1.61330E+04  2.89229E+04 -2.99126E+04  9.67967E+03 -1.86089E+04 -8.08021E+03 -5.67559E+03 -1.28073E+04
  5.51655E+03 -4.59621E+03 -8.77513E+03  6.45419E+03 -1.57618E+04  3.66700E+03 -1.69918E+04 -1.75141E+03
 -6.77632E+03 -2.32355E+04  9.34696E+03 -2.30447E+04  1.68833E+04 -1.36832E+04  2.28031E+04 -1.94760E+03
  1.24842E+04  1.10956E+04  3.07866E+03  1.78064E+04 -1.51932E+04  1.24861E+04 -2.03482E+04 -6.34128E+03
 -8.35542E+03 -1.74301E+04 -5.09241E+03 -2.19892E+04  9.22545E+03 -2.26831E+04  1.48010E+04 -1.01527E+04
  2.31393E+04  1.43366E+03  9.43863E+03  1.94694E+03  8.54841E+03  2.64824E+03  9.69774E+03  5.39160E+02
  2.18657E+04  7.48310E+03  1.66556E+04  1.60391E+04  1.46023E+04  3.52613E+04 -3.30003E+03  3.45833E+04
 -1.93005E+04  3.01596E+04 -2.95109E+04  1.50220E+04 -3.82975E+04 -2.71545E+03 -3.26626E+04 -2.12279E+04
 -9.55329E+03 -3.21220E+04  5.24508E+03 -2.64942E+04  2.46981E+04 -1.36603E+04  1.76251E+04  4.43633E+03
  5.25375E+03  1.40584E+04 -3.88042E+03  1.48822E+04 -1.40103E+04  7.30880E+02 -1.07880E+04 -1.09789E+04
  3.55224E+02 -1.49042E+04  7.99523E+03 -1.37153E+04  1.27543E+04 -2.26256E+03  2.25408E+03  4.73766E+03
 -4.19905E+03  5.39673E+03 -9.69203E+03 -6.64775E+03 -5.95177E+02 -1.32689E+04  6.89876E+03 -1.53302E+04
  1.65146E+04 -9.18605E+03  1.30660E+04  4.46166E+03  1.85940E+04  1.28470E+04  9.73747E+03  2.27890E+04
 -8.20588E+03  2.63509E+04 -1.23904E+04  1.24295E+04 -2.11861E+04  5.54935E+03 -1.21504E+04 -1.91118E+03
 -7.96833E+03 -4.74615E+03 -2.28026E+03  8.30481E+03 -5.81519E+03  3.73320E+03 -5.41423E+03  4.34356E+03
 -8.78864E+03  9.92523E+02 -1.35594E+04 -9.52221E+03 -3.42228E+03 -8.01897E+03  5.42556E+03 -1.52213E+04
  1.06548E+04 -5.72984E+02  9.08106E+03  2.66540E+03 -5.40917E+03  1.17102E+02 -6.84493E+03 -7.88503E+02
 -6.28791E+03 -8.63929E+03 -1.25852E+03 -9.24492E+03  5.06576E+03 -1.31747E+04  1.20206E+04 -2.83188E+03
  1.81050E+04  4.41392E+03  1.31012E+04  9.86374E+03  8.90188E+02  8.03384E+03 -6.45247E+03  1.29066E+04
 -1.38201E+04  8.23466E+03 -5.06426E+03 -2.67220E+03  4.26763E+03 -2.79973E+03  6.73861E+03  1.60592E+03
  7.48072E+03  7.88909E+03 -1.82861E+03  6.67480E+03 -5.26282E+03  9.93150E+03 -8.78366E+03 -1.41143E+03
 -3.86107E+03 -7.65795E+03  4.39461E+02 -9.66247E+03  4.89809E+03 -4.74952E+03  8.55466E+03  5.09133E+03
  1.47395E+03  5.60543E+03 -4.00968E+03  7.15703E+03 -6.33585E+03  2.95628E+02 -6.76439E+03 -5.22571E+03
 -4.36837E+03 -1.06678E+04  3.86401E+03 -1.42681E+04  1.15535E+04 -1.43477E+04  1.05217E+04  3.49903E+03
  1.12282E+04  1.09859E+04 -1.82052E+03  1.89690E+04 -6.44547E+03  7.54255E+03 -1.11886E+04 -2.18369E+03
 -6.68229E+03 -5.71275E+03 -3.02546E+03 -5.87615E+03  1.02735E+03 -6.07814E+03  4.25223E+03 -5.29981E+03
  1.53169E+03  3.50917E+02  1.29318E+01  7.99182E+02 -6.09351E+02 -1.71750E+03  1.31927E+03 -2.62136E+03
  1.21871E+04 -4.49011E+03  1.11051E+04 -2.48419E+03  7.22683E+03  1.10573E+04  8.11677E+03  1.18053E+04
 -6.84537E+03  1.49875E+04 -1.61600E+04  7.97951E+03 -1.76226E+04  1.54580E+02 -1.35455E+04 -3.08780E+03
 -2.62373E+03 -1.20262E+04  1.67287E+03 -8.38641E+03  2.45770E+03 -4.98114E+03  3.03313E+03 -9.40043E+03
 -4.81249E+03 -5.65842E+03  4.54573E+03 -5.61861E+03  3.04084E+03 -5.43248E+00  2.40843E+03 -2.69648E+03
  9.10140E+03  2.14997E+03  5.10316E+03  7.79196E+03 -1.16443E+03  6.15071E+03 -8.59803E+03  7.56381E+03
 -7.62070E+03 -4.33730E+03 -9.61124E+03 -9.74314E+03  8.18820E+02 -1.17154E+04  6.21330E+03 -7.19213E+03
  8.06240E+03 -3.22327E+02  1.19172E+04 -3.92936E+02  1.05955E+04  1.29180E+04 -2.48132E+03  1.09617E+04
 -6.64251E+03  1.02065E+04 -1.05932E+04  6.16396E+03  1.15312E+02 -1.32465E+03 -2.64206E+03  6.93634E+02
 -3.51853E+03  3.56209E+02  3.35582E+03 -1.29823E+03 -8.66233E+03  1.76617E+03 -3.17478E+03 -3.11230E+02
 -9.15906E+03 -1.15743E+04  5.55338E+03 -7.27244E+03  1.45630E+03 -1.23868E+04  1.14987E+04  2.49458E+02
  1.04031E+04  6.99214E+03  8.73928E+02  7.31064E+03 -2.26540E+03  7.00884E+03 -7.70845E+03  5.26337E+03
 -5.11719E+03 -3.34090E+03 -7.56390E+03 -6.57966E+03 -3.45221E+03 -9.87776E+03  1.07625E+04  7.80877E+02
  5.06600E+03 -1.91006E+03  2.71759E+03  5.69845E+03  1.02296E+03  4.57251E+03  7.75280E+02 -5.01884E+02
  2.29283E+00  4.53739E+02  5.43651E+03  3.55951E+03  3.45700E+03  4.91287E+03 -1.78144E+03  3.23637E+03
 -4.00989E+02  3.94055E+03 -5.40261E+03  4.45030E+03 -1.01995E+04  2.25617E+03 -8.22318E+03  2.33739E+03
 -4.11705E+03 -8.15679E+03  2.02110E+03 -1.06759E+04  3.88372E+03 -6.18050E+03  3.58047E+03 -2.91673E+03
  5.59502E+02 -1.06764E+03  5.75525E+03  1.08340E+03 -3.97442E+03  8.06852E+02 -3.09432E+03 -2.30223E+03
  5.00599E+02 -3.94195E+03 -8.22204E+02 -5.81159E+03  5.11951E+03  6.95463E+01  4.35239E+03 -2.70038E+03
 -2.47901E+03  4.50031E+02  7.09177E+02  6.97292E+03 -8.75781E-01 -1.43503E+03 -1.09248E+03 -2.03360E+03
  2.85763E+03 -2.69700E+03  2.38073E+03 -3.58819E+03  1.41923E+03  5.83066E+03  3.91327E+02  2.78046E+03
 -9.16329E+02  4.78632E+03 -3.69623E+03 -3.50538E+03 -6.70867E+03 -5.76968E+03 -2.49230E+02 -1.64473E+03
 -1.61176E+03 -5.00860E+03 -1.03914E+03 -7.20633E+02  1.34804E+03  2.33240E+03 -9.35065E+02  7.37203E+03
 -5.31717E+03 -1.31968E+02 -3.36672E+03 -5.73556E+03 -1.29495E+03 -3.52460E+03  2.15684E+03  3.18260E+03
  3.84654E+03  5.27989E+03  7.90983E+02  4.46826E+03  5.51773E+03  1.17533E+03  7.37522E+02  3.64591E+03
 -1.45843E+03 -4.14219E+02 -5.01620E+03  4.55129E+02  1.62845E+03 -3.19378E+03  2.34744E+03 -5.14554E+03
 -1.32667E+03 -3.81345E+03  6.89856E+03  5.08985E+03  4.92515E+02  1.63223E+03 -1.59617E+03  1.51437E+03
 -6.81136E+03  1.52964E+03 -2.88655E+03 -1.97041E+03 -3.05995E+03  6.10361E+01 -1.67464E+03 -1.78226E+02
 -3.47304E+03 -4.19983E+03  4.72499E+03 -7.08935E+02 -3.90165E+01  3.32642E+03  1.45921E+03  2.38547E+03
  1.61714E+03  2.05284E+03 -2.40974E+03  2.45945E+03  1.27414E+03 -7.10495E+02  1.46065E+03 -1.69713E+03
 -4.88781E+03  1.37267E+03 -3.71169E+03 -4.09853E+03 -3.48141E+03 -2.75702E+03 -5.77450E+03 -2.00031E+03
 -3.27594E+03 -6.36243E+03  4.99341E+03 -6.95988E+03  3.20051E+03 -1.04602E+04  4.99197E+03  1.01594E+03
  7.05429E+03  5.28967E+02  3.96483E+03  5.54805E+03  1.22758E+03  2.25243E+03 -3.52232E+03  1.92370E+03
 -4.67917E+03  3.95220E+03  1.88296E+02  4.74571E+03  2.85720E+03 -9.41987E+02 -2.12324E+03  2.06087E+03
 -1.89608E+03 -3.08463E+02 -2.62037E+03  1.47568E+03  1.95239E+03  3.10191E+03  1.86937E+03 -3.76802E+03
  2.61889E+02 -6.61516E+03  1.43639E+03 -1.24041E+03  5.38462E+03  7.13755E+03  8.67920E+02  2.45817E+03
 -1.53455E+03  4.68775E+03 -1.48690E+03  2.16209E+03 -1.01097E+04 -4.32977E+03 -3.64326E+03 -2.09986E+03
 -1.05181E+04 -1.44969E+03  1.08997E+03 -1.35792E+03 -5.11028E+03 -9.05604E+02  9.15111E+03 -2.65599E+03
  2.98511E+03 -5.22199E+02  8.22493E+03  7.87776E+03  2.21111E+02  2.29200E+02  1.59803E+03 -4.07291E+03
  2.50680E+03 -4.51755E+03 -4.35814E+03  4.04318E+03  3.37819E+03  2.71098E+03  4.95411E+02 -7.03296E+02
 -2.85695E+03 -3.47323E+01  3.55014E+02  3.41134E+03  1.54012E+03 -5.86575E+03  1.25525E+03 -6.20404E+03
  2.94754E+03 -2.68750E+03  3.80272E+03  1.32442E+03  4.37374E+03  2.99877E+03  6.28388E+02  4.53821E+03
  3.65039E+03  1.08133E+02 -6.04201E+03 -2.55158E+03 -2.34132E+03 -1.68926E+03  1.12584E+03  7.28861E+03
  2.48141E+03  3.13671E+03  3.06819E+01 -9.88590E+02 -3.25720E+03  2.93062E+03  5.47141E+02 -6.92106E+03
 -7.38192E+03  3.68800E+03 -1.77705E+02  1.09962E+03  1.18109E+03  8.51098E+02  2.92862E+03  2.02784E+03
  4.27404E+03  2.67902E+02  8.25181E+02  7.29234E+03  8.53296E+03  9.21279E+01 -3.61137E+03  4.07570E+03
