 $NMID ID='MM_0lb_SNR50_11hz_g60_82.RAW', FMTDAT='(8E13.5)'
 TRAMP=1., VOLUME=1. $END
  3.09652E+05  5.67978E+03  3.35987E+05  2.55578E+05  7.91456E+04  3.41223E+05 -1.31861E+05  2.46526E+05
 -1.93325E+05  9.05649E+04 -1.13558E+05 -2.97241E+04  3.55070E+03 -5.14422E+04  5.34814E+04  2.31688E+03
  4.07084E+04  5.06949E+04 -1.50129E+04  7.53264E+04 -6.62583E+04  6.61437E+04 -8.43390E+04  3.50673E+04
 -8.25332E+04 -1.69895E+04 -5.63258E+04 -5.63806E+04 -1.43493E+04 -7.20244E+04  2.55939E+04 -5.03965E+04
  4.04711E+04  4.35959E+03  1.88986E+04  5.08620E+04 -3.44180E+04  4.66846E+04 -6.63234E+04  1.82607E+03
 -4.93419E+04 -5.57670E+04 -1.00295E+04 -8.01825E+04  3.25531E+04 -5.72340E+04  4.77771E+04 -1.63110E+04
  4.42306E+04  5.78706E+03  3.86032E+04  2.65564E+04  1.08824E+04  3.42562E+04 -1.23481E+03  2.88443E+04
 -1.86843E+04  1.18326E+04 -2.22593E+04 -9.64124E+03  6.10053E+03 -7.16308E+03  2.15009E+04  7.47591E+03
  8.23828E+03  3.58566E+04 -3.44728E+04  3.92534E+04 -6.25888E+04  3.79770E+03 -6.16666E+04 -3.85229E+04
 -8.03257E+03 -6.34512E+04  4.10542E+04 -4.49530E+04  6.26741E+04 -6.21191E+03  3.43539E+04  3.73951E+04
 -6.79419E+03  3.73162E+04 -3.12399E+04  1.24820E+04 -3.93801E+04 -3.63728E+03 -1.64466E+04 -1.31547E+04
 -1.12708E+04 -1.78903E+04 -2.97648E+03 -2.40715E+04  1.72751E+03 -2.66456E+04  1.64610E+04 -1.41675E+04
  1.42029E+04  6.48930E+03 -7.75654E+03  2.00747E+04 -2.42298E+04 -8.09514E+03 -6.56539E+03 -4.23044E+04
  2.37831E+04 -4.36669E+04  5.19923E+04 -2.58068E+04  4.65414E+04  2.01684E+04  1.96400E+04  5.02651E+04
 -1.71911E+04  4.19546E+04 -2.70989E+04  4.86129E+03 -1.66308E+04 -2.76403E+04  2.28016E+04 -2.87637E+04
  4.58444E+04 -1.19081E+04  3.49824E+04  2.58023E+04  1.81667E+04  5.44239E+04 -4.94429E+02  5.63516E+04
 -3.33972E+04  3.30005E+04 -4.60009E+04  1.13212E+04 -5.15413E+04 -1.81645E+04 -2.19941E+04 -4.02296E+04
  6.53354E+03 -4.66857E+04  2.89683E+04 -1.70531E+04  2.26531E+04  9.56850E+03  5.69466E+03  2.04459E+04
 -1.48978E+04  8.07741E+03 -8.04439E+03 -3.96624E+03  7.99188E+03 -1.33985E+04  1.81333E+04  6.89786E+03
  1.93098E+04  3.14683E+04 -4.64684E+03  2.34762E+04 -2.31286E+04  9.44864E+03 -3.25451E+04 -6.31530E+03
 -2.12223E+04 -1.75929E+04 -1.35572E+04 -2.90763E+04  2.47586E+03 -2.27125E+04  1.92713E+04 -1.99648E+04
  3.24742E+04 -1.14831E+04  4.07046E+04  7.17920E+03  2.73320E+04  2.26483E+04  6.57748E+03  3.87774E+04
 -2.02646E+04  3.03574E+04 -3.20210E+04  1.29867E+04 -2.00900E+04 -9.44249E+03 -3.23212E+03 -8.32610E+03
  1.76739E+02 -7.06629E+02 -7.74799E+03  8.29803E+03 -1.74237E+04  4.23714E+03 -2.00170E+04 -8.75308E+03
 -1.18643E+04 -2.56586E+04  2.84470E+03 -3.00552E+04  1.73062E+04 -1.67444E+04  2.16786E+04 -7.53822E+03
  1.18121E+04  1.38851E+04 -9.01004E+02  2.66905E+04 -1.54485E+04  8.09880E+03 -2.73656E+04 -5.45079E+03
 -1.94543E+04 -1.97644E+04 -7.75186E+02 -2.23970E+04  9.21132E+03 -2.15970E+04  2.46242E+04 -1.37568E+04
  2.23057E+04 -4.19303E+03  1.38804E+04  3.68960E+03  1.22127E+04  4.57426E+02  1.18433E+04 -7.03360E+02
  2.39075E+04  1.95965E+03  2.31406E+04  1.63117E+04  1.56097E+04  3.85962E+04 -3.52243E+03  4.32546E+04
 -2.70754E+04  3.41938E+04 -3.60351E+04  1.82654E+04 -4.17907E+04 -2.77067E+03 -3.76499E+04 -2.65628E+04
 -9.43141E+03 -3.02784E+04  1.03322E+04 -2.98304E+04  2.64184E+04 -1.54647E+04  2.62660E+04  5.14098E+03
  1.24871E+04  1.68598E+04 -1.38218E+04  1.65116E+04 -1.35530E+04  3.98399E+03 -1.90514E+04 -1.05166E+04
 -4.17806E+03 -2.09716E+04  4.25132E+03 -1.04255E+04  1.02681E+04 -6.84167E+02  4.49878E+03  9.64218E+03
 -7.52832E+03  4.62882E+02 -9.14231E+03 -3.40021E+03 -5.37483E+03 -2.11294E+04  1.43587E+04 -1.86820E+04
  1.99907E+04 -1.34870E+04  2.12582E+04 -2.45505E+03  2.36788E+04  1.62835E+04  8.40672E+03  2.75607E+04
  1.20950E+03  2.78189E+04 -1.91967E+04  2.14498E+04 -2.45336E+04  8.36760E+03 -2.41443E+04 -4.69753E+03
 -3.02709E+03 -5.22387E+03 -1.84548E+03  5.72660E+03 -2.63201E+02 -4.76760E+03 -6.29542E+03  8.31035E+03
 -1.58204E+04  3.02692E+03 -1.52833E+04 -1.32052E+04 -8.22359E+02 -1.91566E+04  4.76534E+02 -1.87159E+04
  1.04455E+04 -4.33507E+03  8.76577E+03  3.60296E+03 -4.84568E+03  7.11092E+03 -3.80159E+03 -4.21371E+03
 -3.00971E+03 -1.06010E+04 -2.69898E+03 -1.65336E+04  7.21280E+03 -1.46627E+04  1.83254E+04 -4.66685E+03
  1.75578E+04 -3.87210E+03  1.66659E+04  1.42939E+04  3.26329E+03  1.86754E+04 -1.14159E+04  1.55087E+04
 -8.95915E+03  5.24163E+03 -3.55779E+03  1.15498E+03  8.11561E+03 -6.02299E+03  1.11993E+04  3.65683E+03
  8.40683E+03  6.63486E+03  1.86880E+03  4.41594E+03 -1.15535E+04  9.51293E+03 -1.12651E+04 -1.29310E+03
 -7.66248E+03 -3.83860E+03 -9.43453E+02 -9.18394E+03  7.90818E+03 -3.01222E+03  9.76626E+03  1.82626E+03
  5.27099E+03  7.51235E+03 -1.29468E+04  1.12423E+04 -1.36320E+04 -3.10582E+01 -1.08929E+04 -1.09686E+04
 -9.73832E+03 -1.10627E+04  5.93526E+02 -1.70226E+04  1.81816E+04 -1.10991E+04  1.78401E+04  5.08469E+03
  1.00904E+04  1.25725E+04  5.52581E+02  2.06970E+04 -9.21920E+03  6.28624E+03 -1.40342E+04  5.96798E+03
 -1.12955E+04 -1.43183E+04 -2.63115E+03 -8.63146E+03  5.52861E+03 -1.00121E+04  5.08431E+03 -2.25274E+03
  1.48575E+03  1.90122E+03 -5.12347E+03  9.65777E+02  2.05659E+03 -3.78357E+03 -4.67374E+02 -5.05376E+03
  1.35888E+04  2.75576E+02  1.08416E+04  3.17789E+03  1.83577E+04  1.11190E+04  9.44840E+03  1.57854E+04
 -4.39332E+03  2.42908E+04 -1.79655E+04  2.03324E+04 -2.60848E+04  7.52985E+03 -1.72212E+04 -1.07272E+04
 -7.13734E+03 -8.07658E+03 -5.16205E+03 -1.33393E+04  1.78946E+03 -3.88979E+03  4.35563E+03 -1.23067E+03
  5.74827E+03 -4.50494E+03  6.08502E+02 -6.95633E+03  4.28264E+03 -2.17380E+03  7.88753E+03  4.44596E+03
  1.03196E+04  4.64055E+03  8.39577E+03  9.21294E+03  5.10618E+03  1.00409E+04 -1.03303E+04  4.67980E+03
 -8.90041E+03  2.70646E+03 -5.89188E+03 -6.50661E+03 -2.18211E+03 -1.80716E+04  7.30694E+03 -8.79746E+03
  1.18394E+04 -6.22691E+03  1.74012E+04  3.36204E+03  1.62368E+04  1.15164E+04  2.42987E+03  1.74959E+04
 -9.11063E+03  1.17955E+04 -6.35953E+03  7.11053E+03 -4.60730E+03 -4.70917E+03 -3.38514E+02  2.27109E+03
 -3.65803E+03  3.26846E+03 -1.78285E+03  6.63345E+02 -6.51908E+03 -9.79712E+02 -5.63936E+03 -1.97817E+03
 -9.26855E+03 -7.20689E+03 -7.07586E+03 -1.11840E+04  3.61350E+03 -5.56210E+03  1.08639E+04 -2.83565E+02
  1.40905E+04  4.62853E+03  4.73316E+03  1.31364E+04 -7.28897E+02  1.12793E+04 -1.15276E+04  6.26746E+03
 -9.38819E+03  3.87875E+03 -6.46574E+03 -6.79021E+03 -3.73347E+03 -1.08196E+04  4.20222E+03 -1.26908E+04
  4.08506E+03  3.81431E+02  3.63238E+03  6.67267E+01  1.38550E+03  6.80048E+03  4.75729E+02  5.94532E+03
 -3.85425E+03  6.88789E+03  2.68281E+03  2.18705E+03  3.47295E+03  4.86362E+03  8.25839E+03  6.49591E+03
 -2.06671E+03  5.21881E+03 -1.01051E+04  8.35983E+03 -1.48603E+04  6.54077E+01 -1.01256E+04 -6.53460E+03
 -9.99333E+03 -1.15304E+04  1.80902E+03 -1.97919E+04  1.05347E+04 -1.17049E+04  1.06979E+04 -5.55744E+03
  4.10822E+03  4.17009E+03  5.89577E+03  6.53965E+03  1.56886E+02  5.92665E+03 -6.78455E+03 -7.16807E+03
 -3.82580E+03 -5.25782E+03  5.83595E+03 -9.51503E+03  3.60648E+03 -6.51302E+02  1.78059E+03  7.93097E+03
 -3.13194E+03 -5.19284E+03 -3.99546E+02  2.12352E+03 -6.97385E+03  2.40150E+03  1.04703E+03 -1.76931E+02
  6.66719E+03 -9.21391E+03  2.28645E+03  2.31150E+03  2.61287E+03  7.68870E+03  5.54670E+02  2.24047E+03
 -8.75153E+03  7.59246E+03 -7.11259E+03 -1.91151E+03 -1.93072E+03 -1.53509E+03  4.60324E+03 -7.63091E+03
  3.35731E+02 -8.47325E+03  2.87918E+02  1.22447E+03  2.99611E+03  1.32897E+03  3.18605E+03  1.31347E+03
 -8.10303E+03 -2.05472E+03 -7.17397E+03 -8.71780E+03 -6.86999E+03 -6.37597E+03  2.33409E+03 -7.25001E+03
  4.46288E+03 -7.59413E+03  1.86556E+03  2.79765E+02  4.74264E+03  1.84013E+03  4.08655E+03  6.96085E+02
 -5.95267E+03  5.75601E+03 -7.11449E+03  5.19006E+03  5.30272E+03 -4.86845E+03  2.68064E+03 -1.87217E+03
  9.61451E+03 -1.29983E+03  1.05710E+04  7.03636E+03  4.42530E+03  1.31828E+04  8.07592E+02  8.49765E+03
 -3.81355E+03  7.72676E+03 -8.19747E+03  1.67082E+03 -1.78185E+03 -8.50853E+03  4.93644E+03 -4.08544E+03
  2.54238E+03 -7.70230E+03  4.18757E+03  7.87927E+03  7.60187E+01  7.53402E+03  7.34356E+02  1.04999E+04
  2.26426E+02  3.66314E+03 -5.58577E+03  8.98611E+02  1.12737E+02 -1.59311E+03 -6.19517E+03  3.17606E+02
 -4.79590E+03  1.88049E+03  3.43950E+02  1.96250E+03 -6.56021E+03 -4.35481E+03 -1.49778E+04 -3.33043E+03
 -2.08668E+03 -1.29886E+04  4.12474E+03 -8.11781E+03  8.95446E+03 -1.29393E+04  1.29005E+04  3.64517E+03
  1.01370E+04 -1.42584E+03  5.47991E+03  1.06175E+04 -3.60044E+03  1.03862E+04 -6.92025E+03  2.50429E+03
 -5.05907E+03  4.45721E+03 -4.49097E+03 -1.28644E+03 -2.91171E+03 -7.74693E+03 -5.04808E+03 -6.32368E+03
 -1.92022E+03  2.48835E+03 -4.15134E+03  5.97738E+03 -7.77897E+02 -2.60407E+03 -1.49413E+02 -7.26659E+03
  3.12478E+03 -9.36500E+02  1.02501E+04  1.50293E+03  7.79616E+03 -1.59346E+03  4.64166E+03  9.57060E+03
 -1.70694E+03  5.64982E+03 -1.12771E+04  2.33482E+03 -1.10835E+04 -1.45443E+03 -8.02857E+03 -1.79369E+03
 -2.77347E+03 -1.26826E+03  6.08169E+03 -7.45652E+03  3.68465E+02 -4.86109E+03  2.72898E+03 -6.49595E+02
  3.54970E+03 -4.00941E+03  4.49932E+02  5.13342E+03 -5.95925E+03 -2.85866E+02 -2.58215E+03  2.54819E+03
  1.56684E+03  8.52928E+02  3.25753E+03  3.88995E+03  1.61882E+03  3.63514E+03  7.59511E+03 -7.43271E+02
 -1.30893E+03  5.17699E+03 -6.05846E+03 -3.08095E+03 -4.77372E+03  6.34791E+02  2.12148E+03 -9.00673E+03
  3.68327E+02 -2.44537E+03  5.00002E+03  1.11782E+03  1.95047E+03 -2.83803E+02  7.24383E+03  4.31839E+03
  2.38123E+03  2.06680E+03  5.90337E+03  4.16191E+03 -8.08532E+03  1.16931E+02 -1.40052E+03  6.52360E+03
  3.63575E+03 -6.33981E+03 -5.77239E+02 -1.41758E+03 -1.87932E+03  4.25718E+03 -3.94159E+03 -2.17303E+03
 -4.14774E+03 -4.39673E+03 -1.11854E+03 -8.14350E+03  2.39830E+03 -6.63250E+03  2.39094E+03  2.38041E+03
  8.17004E+03 -1.99887E+02  6.80144E+03 -2.43983E+03  3.49296E+03  3.13424E+03 -7.95416E+03 -4.65750E+02
