 $NMID ID='MM_0lb_SNR50_7hz_g40_19.RAW', FMTDAT='(8E13.5)'
 TRAMP=1., VOLUME=1. $END
  3.15229E+05  4.40510E+03  3.35828E+05  2.50653E+05  7.99857E+04  3.36708E+05 -1.34942E+05  2.44824E+05
 -1.93026E+05  8.74212E+04 -1.12091E+05 -2.33017E+04 -3.51244E+02 -5.14230E+04  5.47972E+04  1.35748E+02
  3.40676E+04  5.53681E+04 -1.54981E+04  7.11175E+04 -6.31139E+04  6.65097E+04 -8.64720E+04  2.80514E+04
 -8.08034E+04 -1.75715E+04 -6.15436E+04 -5.21752E+04 -2.08270E+04 -7.31194E+04  2.80566E+04 -4.83912E+04
  3.87787E+04  8.43679E+03  1.80394E+04  5.10533E+04 -3.73846E+04  4.44761E+04 -6.95124E+04 -1.64591E+02
 -5.92399E+04 -5.95034E+04 -8.72602E+03 -8.01614E+04  2.82298E+04 -5.47912E+04  4.62500E+04 -2.06072E+04
  4.71866E+04  1.80339E+04  3.24346E+04  2.78121E+04  1.92036E+04  3.39196E+04 -6.56247E+03  3.51194E+04
 -2.00449E+04  1.20424E+04 -1.48681E+04 -4.77774E+03  9.79902E+03 -9.67304E+03  1.76304E+04  2.57488E+04
  3.53704E+03  3.02810E+04 -3.77888E+04  3.37288E+04 -6.50087E+04  2.54699E+03 -5.92911E+04 -4.17094E+04
 -1.09365E+04 -6.58641E+04  4.01951E+04 -4.69653E+04  6.68997E+04 -7.53274E+03  3.84979E+04  3.48184E+04
 -9.49528E+03  4.50111E+04 -3.54132E+04  2.57992E+04 -4.05411E+04 -9.06819E+03 -2.49129E+04 -1.32084E+04
 -8.40191E+03 -1.02113E+04  5.31464E+02 -2.44825E+04  8.22040E+03 -2.64545E+04  5.79285E+03 -1.78281E+04
  1.94270E+04  4.76734E+03 -9.24268E+03  8.41658E+03 -2.39356E+04 -7.64435E+03 -4.20674E+03 -3.38419E+04
  2.54934E+04 -4.65058E+04  5.05968E+04 -2.37251E+04  5.26306E+04  1.45602E+04  2.28685E+04  4.85661E+04
 -1.59528E+04  3.55648E+04 -3.44681E+04 -9.71792E+02 -1.66035E+04 -3.29933E+04  2.48101E+04 -3.63179E+04
  4.32961E+04 -1.19546E+04  3.84049E+04  2.79880E+04  1.89046E+04  5.12346E+04 -4.63264E+03  5.07127E+04
 -3.78440E+04  4.56553E+04 -4.95209E+04  1.19991E+04 -4.55995E+04 -1.17735E+04 -2.00944E+04 -4.51665E+04
  4.77712E+03 -4.98880E+04  3.79197E+04 -1.42314E+04  3.17315E+04  5.36429E+03  5.70932E+03  1.95684E+04
 -1.63140E+04  6.37397E+03 -9.76315E+03 -8.73839E+03  1.19385E+04 -3.29410E+03  2.23221E+04  9.51699E+03
  1.08432E+04  2.34483E+04 -1.00585E+04  2.32378E+04 -3.05568E+04  1.36707E+04 -3.32073E+04 -4.26919E+03
 -2.25715E+04 -1.82462E+04 -1.41033E+04 -2.34338E+04  3.97624E+03 -2.25287E+04  2.28146E+04 -3.05381E+04
  3.36026E+04 -2.55136E+04  3.27322E+04  1.41985E+04  2.89809E+04  2.33324E+04  4.36622E+03  4.45991E+04
 -1.75035E+04  2.86253E+04 -2.34281E+04  1.53547E+04 -2.27360E+04 -1.16600E+04 -9.99648E+01 -8.52930E+03
  6.23416E+03  1.27573E+03 -6.97993E+03  7.10954E+03 -2.07079E+04  3.99607E+03 -2.20467E+04 -7.50591E+03
 -1.34202E+04 -2.14009E+04  8.83771E+03 -2.89127E+04  1.74691E+04 -2.01938E+04  2.39210E+04 -2.05747E+02
  1.17753E+04  1.75619E+04  5.04563E+03  3.13950E+04 -1.64831E+04  8.15476E+03 -2.32264E+04 -5.20562E+03
 -1.52083E+04 -2.82116E+04 -4.00252E+03 -3.03343E+04  1.76736E+04 -2.03810E+04  2.04061E+04 -1.77516E+04
  2.43990E+04 -1.38147E+03  1.77244E+04  6.47447E+03  3.45391E+03  2.82637E+03  1.12666E+04 -2.61626E+03
  2.27578E+04  7.44082E+03  2.20564E+04  1.96993E+04  2.33436E+04  4.51718E+04 -3.27518E+03  4.62191E+04
 -1.94211E+04  3.28994E+04 -4.95593E+04  1.96842E+04 -5.45061E+04  1.60385E+03 -4.11348E+04 -2.68673E+04
 -1.34964E+04 -4.36918E+04  1.23888E+04 -3.89598E+04  3.74501E+04 -5.92038E+03  1.98133E+04  5.59335E+03
  5.03504E+03  1.73062E+04 -1.09965E+04  1.68384E+04 -2.34010E+04  3.70263E+03 -1.27167E+04 -1.64886E+04
  4.32409E+03 -2.04244E+04  1.53109E+04 -1.56422E+04  1.29295E+04 -4.49270E+03  5.81232E+03  1.06467E+04
 -8.97505E+03  5.64118E+03 -8.01128E+03 -1.53177E+04 -8.04757E+03 -2.22187E+04  1.34319E+04 -2.05022E+04
  2.63438E+04 -9.30842E+03  3.45695E+04  2.27163E+03  2.50401E+04  2.52937E+04  8.44420E+03  2.80521E+04
 -1.18361E+04  2.62375E+04 -2.55768E+04  2.31795E+04 -3.05482E+04  8.09455E+03 -1.33167E+04 -8.70183E+03
 -5.31111E+03 -1.38505E+03 -8.82060E+03  5.06012E+03 -1.59760E+03  1.43333E+04 -1.74079E+04  3.29413E+03
 -1.64489E+04 -2.70089E+03 -1.26367E+04 -7.73620E+03 -9.89240E+03 -2.39735E+04  4.93526E+03 -1.79564E+04
  1.41448E+04 -1.19334E+04  6.05019E+03  8.62464E+03  1.26827E+03  6.90875E+03 -6.11608E+03  1.71265E+01
 -6.26923E+03 -1.20639E+04 -2.57931E+03 -2.15422E+04  1.50849E+04 -1.10761E+04  1.74385E+04 -1.03354E+04
  2.45002E+04 -4.57112E+02  1.49200E+04  1.57412E+04  3.19840E+03  2.74200E+04 -1.22414E+04  1.53610E+04
 -1.91613E+04 -1.41084E+03 -4.28072E+03 -9.82105E+02  1.56333E+03  1.98034E+03  2.66434E+03 -6.28514E+03
  4.32169E+03  1.13396E+04  1.09454E+02  1.03115E+04 -1.25485E+04  5.86619E+03 -1.48221E+04  1.08335E+04
 -8.06242E+03 -7.05918E+03 -3.56834E+03 -1.46813E+04  1.18302E+04 -6.87308E+03  1.55225E+04 -4.88986E+02
  4.50889E+02  2.44044E+03 -1.19821E+04  9.87225E+03 -1.89141E+04  7.90606E+03 -1.08859E+04 -1.19373E+04
 -1.10995E+04 -2.15645E+04 -1.91889E+03 -2.32471E+04  1.84328E+04 -2.00404E+04  2.01645E+04  6.96015E+03
  9.20475E+03  1.75249E+04 -7.12479E+03  2.36543E+04 -1.55807E+04  7.66656E+03 -1.37168E+04 -4.55254E+03
 -1.06561E+04 -1.47457E+04 -8.46437E+03 -1.48682E+04  8.19412E+03 -1.33714E+04  7.61438E+03  2.04521E+03
  8.12406E+03  1.36221E+03 -7.71833E+03 -2.87593E+03  2.33477E+03  9.08096E+02  9.40063E+03 -1.54859E+03
  1.62800E+04 -5.92152E+03  1.68736E+04  6.55273E+03  2.19177E+04  1.41750E+04  2.34689E+03  2.36589E+04
 -7.44841E+03  3.10866E+04 -2.90323E+04  1.98277E+04 -2.52476E+04  6.58593E+03 -2.95473E+04 -7.84610E+03
 -1.24168E+04 -1.98778E+04 -5.87013E+03 -1.37825E+04  2.67150E+03 -1.24154E+04  8.67447E+03 -8.26874E+03
  1.99098E+03 -3.37796E+03  3.84483E+03 -8.73556E+03  1.18953E+04 -5.03491E+03  7.81998E+03 -2.12919E+03
  1.79849E+04 -3.98885E+03  6.73641E+03  9.22680E+03 -1.78488E+03  1.18389E+04 -1.26102E+04  7.81927E+03
 -1.73413E+04 -1.03201E+03 -1.27239E+04 -8.61607E+03  2.13073E+03 -2.10986E+04  1.13196E+04 -2.53460E+04
  1.48093E+04 -5.55007E+03  2.32090E+04  2.98545E+03  1.75325E+04  1.83992E+04  5.38270E+03  1.39225E+04
 -8.28745E+03  1.68580E+04 -1.64973E+04  4.09179E+03 -1.19052E+04 -3.59862E+03 -2.54170E+03 -2.05676E+01
 -2.74188E+03 -6.57645E+02 -6.51227E+03  8.63397E+03 -7.59476E+03 -4.12722E+03 -7.24672E+03  3.57410E+03
 -9.23502E+03 -5.95928E+03  1.81587E+03 -1.98848E+04  1.15240E+04 -1.66846E+04  2.18911E+04 -9.52509E+03
  2.10790E+04  7.17172E+03  8.12023E+03  3.13929E+03  1.46238E+03  1.52393E+04 -1.30140E+04  3.98351E+03
 -1.87017E+04 -1.23143E+03 -1.20674E+04 -1.03357E+04  5.91496E+02 -2.01749E+04  1.67807E+04 -1.52283E+04
  1.42925E+04 -4.60893E+03  1.60514E+04  7.67344E+03 -2.39581E+03  5.81007E+03 -1.51501E+03  5.94760E+03
  1.80396E+03  1.64793E+03  4.08013E+03  2.62327E+03  6.11646E+03 -1.20983E+03 -9.30135E+02  6.32485E+03
 -5.48235E+03  1.22819E+04 -9.54290E+03  6.13729E+03 -1.10097E+04  8.05951E+03 -1.99520E+04 -6.30025E+03
 -5.78538E+03 -1.41531E+04  1.22027E+04 -2.43508E+04  6.78964E+03 -1.00264E+04  2.77719E+04 -1.39274E+04
  1.36879E+04  1.25209E+04  4.19373E+03  1.35792E+04 -8.35144E+03  9.40330E+03 -1.62849E+04 -3.11558E+03
 -4.51419E+03 -6.43360E+03  5.52471E+03 -1.52707E+04  6.03254E+03  2.02878E+03  8.36269E+03  7.61980E+03
  7.46843E+03 -6.92378E+02 -1.36555E+03 -3.40762E+01 -1.84983E+03  6.51817E+03 -1.37942E+03 -3.37436E+03
  1.20492E+04 -5.90691E+03  1.36337E+04  5.21934E+03 -6.13592E+03  8.35539E+03 -4.63485E+03  1.48996E+04
 -1.43250E+04  1.36028E+04 -1.03321E+04  1.15963E+04 -1.51724E+04 -5.92879E+03 -8.14096E+03 -3.91983E+03
  1.08543E+03 -7.15908E+03  2.01295E+03 -5.15189E+03  5.20742E+03  6.22542E+02 -8.54534E+03  9.66702E+03
 -1.13286E+04  7.07130E+03 -1.18467E+04 -5.97296E+03 -2.86774E+03 -7.12329E+03  4.53882E+03 -1.28040E+04
 -1.45953E+03 -6.14959E+03  1.27381E+04  1.65112E+03  5.68457E+03  2.52423E+03  3.19869E+02  1.05077E+04
 -4.72886E+03  3.24779E+02 -4.99623E+03 -2.02326E+03  8.27288E+02 -9.01575E+03  1.09409E+04 -8.72673E+03
  1.56663E+04  7.58170E+02  5.33878E+03  9.68926E+03  6.35231E+03  1.08860E+04 -2.35291E+03  1.28691E+04
 -1.48321E+04  8.24216E+03 -7.08731E+03 -2.20502E+03 -4.68348E+03 -6.15677E+03  1.57507E+03 -1.40669E+04
  4.52790E+03 -4.86887E+03  8.28360E+03 -6.37800E+02  4.00237E+03  1.02922E+04  4.41818E+03  7.83908E+03
  8.32882E+03 -3.09357E+03 -2.16068E+03  2.36643E+03  2.87467E+03  2.43556E+03 -5.29314E+03  8.50764E+03
 -2.64957E+03  6.85855E+03 -1.21700E+04 -1.62148E+01 -8.05682E+03 -9.65636E+02 -1.75327E+04 -7.89667E+03
 -6.16369E+03 -1.90287E+04  5.27736E+03 -2.69242E+04  1.46838E+04 -1.30149E+04  1.92925E+04 -7.65772E+03
  1.99341E+04 -4.35255E+03  6.70873E+03  1.85325E+04  3.26086E+03  1.85437E+04 -1.04996E+04  1.17637E+04
  8.49789E+02  2.24989E+03 -8.00793E+03 -5.19704E+03  3.13439E+03  5.14490E+03 -8.22975E+02 -2.02448E+03
  1.42565E+03 -5.80963E+03 -6.23048E+03 -1.28941E+03 -7.76136E+02 -7.00938E+03 -4.25775E+03 -6.66813E+03
  1.02177E+04  3.61293E+01  5.06415E+03 -5.78644E+03  8.54379E+03  1.15459E+04  5.13629E+02  1.86367E+04
 -9.40248E+03  1.26391E+04 -1.99230E+04  1.18649E+04 -1.90527E+04 -2.04741E+03 -1.33276E+04 -9.54989E+03
 -4.89741E+03 -2.01806E+04 -5.21876E+02 -1.88646E+04  9.84444E+03 -1.61539E+04  1.21570E+04  3.34711E+03
  2.76255E+03  1.65265E+03  2.29718E+03  9.27525E+03 -5.80751E+02  1.54656E+03 -1.48752E+03 -4.75769E+03
  3.29846E+03 -1.89204E+03  4.15268E+03  8.16725E+03  1.93607E+03  1.95068E+03 -2.35336E+03  1.49907E+04
 -4.88777E+03  6.88517E+03 -7.82504E+03 -6.09939E+03 -6.73838E+03 -6.27240E+03 -1.48105E+03 -8.93731E+03
  7.12162E+03 -1.01881E+04  1.80591E+04 -2.68036E+03  1.30054E+04 -6.51908E+02 -2.07208E+03  1.72353E+03
 -8.56762E+03  8.16962E+03 -9.83051E+03  7.31613E+03 -1.11813E+04  6.45987E+03 -6.91167E+03  8.95994E+02
  4.23143E+02 -2.40178E+03 -8.96896E+03  2.05645E+03 -9.75050E+03  1.12706E+03 -8.31305E+03  1.04808E+03
 -8.52271E+03 -5.11775E+03 -1.59794E+03 -9.03933E+03  5.23660E+03 -1.48452E+04  6.08519E+03 -5.30734E+03
  1.57304E+04  1.33532E+03  2.91229E+03  3.37217E+03  5.44670E+03  1.39650E+04 -7.33087E+03  5.60242E+03
