 $NMID ID='MM_0lb_SNR50_16hz_g50_33.RAW', FMTDAT='(8E13.5)'
 TRAMP=1., VOLUME=1. $END
  3.08770E+05 -4.21052E+03  3.36542E+05  2.51233E+05  8.35050E+04  3.33717E+05 -1.33425E+05  2.47598E+05
 -1.87130E+05  8.34833E+04 -1.17140E+05 -3.57544E+04 -1.21516E+03 -5.34585E+04  5.43138E+04  9.40204E+02
  3.68999E+04  4.91195E+04 -1.92576E+04  7.68054E+04 -6.00913E+04  6.57297E+04 -8.10268E+04  3.20708E+04
 -7.73042E+04 -1.34659E+04 -5.79193E+04 -4.74092E+04 -1.56529E+04 -6.74085E+04  2.31386E+04 -4.57691E+04
  4.15997E+04  4.74492E+03  1.48197E+04  4.62118E+04 -3.66607E+04  4.88942E+04 -6.62585E+04 -1.54563E+03
 -5.52068E+04 -5.56020E+04 -9.93571E+03 -7.51535E+04  3.38267E+04 -5.57141E+04  4.75580E+04 -1.63399E+04
  4.34514E+04  1.14118E+04  3.41001E+04  2.53676E+04  1.63626E+04  2.73648E+04 -5.16992E+03  2.48059E+04
 -2.30698E+04  1.26026E+04 -1.78307E+04 -4.93136E+03  6.44186E+03 -4.02616E+03  2.14547E+04  8.93110E+03
  8.47518E+03  3.23172E+04 -3.11519E+04  3.49928E+04 -6.28481E+04  9.07254E+02 -5.65932E+04 -4.41816E+04
 -1.13578E+04 -6.09912E+04  4.25495E+04 -4.70832E+04  5.35670E+04 -2.11150E+03  3.20530E+04  2.81213E+04
 -4.91304E+03  3.74082E+04 -3.25742E+04  1.33538E+04 -2.64187E+04 -3.01138E+03 -1.57651E+04 -9.67021E+03
 -7.63946E+03 -1.51515E+04  7.19915E+02 -1.73467E+04  8.66261E+03 -2.27648E+04  1.75491E+04 -1.38198E+04
  1.12654E+04  2.28280E+03 -7.12883E+03  1.51898E+04 -1.91084E+04 -4.93301E+03 -8.99984E+03 -2.97807E+04
  1.97731E+04 -4.37628E+04  4.39551E+04 -2.13439E+04  4.67655E+04  1.73045E+04  1.63283E+04  4.38819E+04
 -1.64583E+04  3.20399E+04 -2.17051E+04  6.67726E+03 -6.43936E+03 -2.99997E+04  2.03954E+04 -3.88234E+04
  3.76882E+04 -1.03737E+04  3.41762E+04  2.07274E+04  1.76105E+04  4.22711E+04 -1.00896E+04  4.81178E+04
 -3.24725E+04  3.34777E+04 -3.80834E+04  6.49213E+03 -4.27041E+04 -1.41955E+04 -2.13515E+04 -3.53180E+04
  1.13266E+03 -3.39509E+04  2.58764E+04 -1.64189E+04  2.52302E+04  4.84627E+03  6.23965E+03  1.75488E+04
 -1.29303E+04  7.93795E+03 -1.03387E+04 -9.75353E+03  9.74367E+03 -5.50928E+03  1.70302E+04  2.98386E+03
  1.48370E+04  1.86290E+04 -4.84899E+03  2.87593E+04 -2.00931E+04  1.29529E+04 -2.96979E+04 -7.38738E+03
 -1.93146E+04 -1.42386E+04 -6.41601E+03 -1.67761E+04  2.81639E+03 -1.55095E+04  1.47649E+04 -1.31374E+04
  2.65779E+04 -1.25825E+04  2.88517E+04  2.17215E+03  2.53487E+04  1.60267E+04  3.92440E+03  3.91814E+04
 -1.52171E+04  2.58210E+04 -2.24121E+04  6.98064E+03 -2.14580E+04 -1.41072E+04 -4.86217E+03 -1.90218E+04
  2.70291E+03 -2.10389E+03 -9.25354E+03  6.38712E+03 -1.36828E+04  3.08677E+03 -1.46221E+04 -9.86888E+03
 -1.11097E+04 -1.35116E+04  5.35536E+03 -1.80306E+04  1.36927E+04 -1.16261E+04  1.95468E+04  1.84135E+03
  1.47008E+04  1.27822E+04 -1.18500E+03  1.21024E+04 -1.09947E+04  9.48209E+03 -1.95889E+04 -4.93980E+03
 -9.66870E+03 -1.56694E+04  3.40662E+03 -1.92851E+04  7.18622E+03 -2.17248E+04  1.70584E+04 -6.71621E+03
  2.03920E+04  1.50077E+03  1.06126E+04  6.05994E+03  3.53085E+03  1.13444E+03  7.59207E+03 -4.50859E+03
  1.92702E+04  2.66198E+03  2.17707E+04  1.17099E+04  1.36848E+04  2.57830E+04 -3.79027E+03  2.91433E+04
 -1.76241E+04  2.04428E+04 -2.36199E+04  1.58026E+04 -3.11214E+04 -2.14978E+03 -2.64386E+04 -2.13452E+04
 -1.10336E+04 -2.27466E+04  7.80431E+03 -2.24718E+04  1.83792E+04 -7.92395E+03  2.09269E+04  5.65247E+03
  7.24390E+03  8.14959E+03 -7.18503E+03  9.70649E+03 -1.42586E+04  3.77504E+03 -1.03252E+04 -6.56397E+03
 -2.86963E+03 -8.12591E+03  6.38473E+03 -1.10589E+04  1.28396E+04 -5.55502E+02 -3.15890E+03  6.42097E+03
 -4.90239E+03  1.43084E+03 -4.99724E+03 -7.92487E+03 -1.53658E+03 -1.16169E+04  9.22468E+03 -1.25040E+04
  1.95847E+04 -4.32860E+03  1.51425E+04 -6.36763E+02  9.70467E+03  1.23042E+04  6.90858E+03  2.05968E+04
 -1.53847E+03  1.83633E+04 -1.00926E+04  9.14973E+03 -1.74259E+04  4.46190E+03 -1.23204E+04 -1.38064E+03
 -7.67389E+03 -1.18840E+03  3.46849E+03 -3.56109E+02 -1.55653E+03  4.80844E+03 -7.73526E+03  3.34726E+03
 -1.00678E+04 -3.92053E+03 -9.87144E+03 -6.15206E+03 -6.63841E+03 -1.96478E+04  2.99241E+03 -8.98520E+03
  9.30478E+03 -9.62976E+02  1.04322E+04  4.73467E+03  1.08351E+03  8.11967E+03 -4.59859E+03 -1.45700E+02
 -8.69444E+03 -5.70842E+03 -4.28362E+03 -7.09186E+03  4.44965E+03 -5.51554E+03  4.80112E+03 -5.06480E+03
  1.42145E+04  2.55706E+03  1.12534E+04  7.28303E+03  4.83673E+03  1.45926E+04 -5.57540E+03  7.85454E+03
 -9.95249E+03  1.93343E+03 -1.07636E+03  1.44725E+03  3.05732E+03 -4.70804E+03  4.24756E+03  3.69856E+03
  4.00491E+02  1.58501E+03  2.85129E+03  1.11139E+04 -9.49310E+03  8.47988E+03 -8.49980E+03  4.82579E+03
 -4.99849E+03  8.15441E+01  1.08401E+03 -8.25221E+03  6.70502E+03 -4.86825E+03  5.03431E+03  3.40189E+03
 -4.30081E+03  6.56190E+03 -5.58760E+03  3.17082E+03 -1.25394E+04  1.17258E+03 -7.67340E+03 -1.69268E+03
 -6.21043E+03 -7.86516E+03  3.00190E+03 -7.97127E+03  1.23547E+04 -6.52409E+03  8.12807E+03  3.47162E+03
  9.17942E+03  1.13185E+04  2.57025E+02  8.36244E+03 -5.62940E+03  7.04203E+03 -5.13883E+03 -3.56158E+03
 -7.23479E+03 -3.90841E+03 -1.48469E+03 -3.84164E+03  1.20143E+03 -4.09837E+03  6.98615E+03 -3.22090E+03
  6.12905E+02  3.73616E+03  2.70005E+03  3.68736E+03 -4.61657E+02  1.79317E+03 -4.36763E+03 -6.04310E+02
  7.00666E+02  4.11699E+02  7.70348E+03  2.11697E+03  7.02342E+03  2.26697E+03  8.49582E+03  1.03397E+04
 -1.85986E+03  1.32602E+04 -6.70956E+03  4.89536E+03 -7.93048E+03  3.19144E+03 -1.40869E+04 -6.98987E+03
 -4.09340E+03 -1.12963E+04 -4.72141E+03 -9.21962E+03  5.32540E+03 -8.21536E+03 -5.62348E+02 -4.16000E+03
 -1.69087E+02 -2.12954E+03  1.26126E+03  8.39900E+02  2.39221E+03 -1.34908E+02  9.63180E+03 -5.07555E+02
  4.85336E+03 -1.93284E+03 -4.34366E+03  1.02189E+04 -4.91170E+03  7.23781E+03 -8.10192E+03  3.53878E+03
 -7.28816E+03 -2.32826E+02 -3.15236E+02 -6.66345E+03  1.28345E+03 -7.25082E+03  2.40479E+03 -5.49931E+03
  7.32342E+03 -6.25362E+03  9.91243E+03 -1.90917E+03  7.94805E+03  3.75603E+03  2.82599E+03  6.71475E+03
  4.18001E+03  6.46846E+03 -5.23851E+03  2.01367E+03 -4.03086E+03 -8.08116E+02 -3.83517E+03  8.60949E+02
  2.78016E+03 -2.28469E+03 -3.13836E+03  6.46482E+02 -5.81915E+03  3.22490E+03 -7.07794E+03 -4.46028E+03
 -6.26947E+03 -5.18807E+03  1.80963E+03 -5.74738E+03  3.88739E+02 -6.08921E+03  5.40473E+03 -1.16112E+03
  4.82289E+03  2.24534E+03  3.49402E+03  5.91072E+03 -1.15078E+03  7.44553E+03 -4.37899E+03  1.35565E+03
 -1.63508E+03  3.36940E+03 -6.45422E+03 -6.84315E+03  2.49029E+03 -5.65151E+03  1.31615E+03 -5.18197E+03
  6.84668E+03 -3.18742E+03  3.01324E+03 -4.17657E+03  4.13521E+03  1.98223E+03  4.58675E+03  3.82732E+03
  1.67878E+03 -1.49668E+03 -5.04995E+02 -4.79792E+02  3.44377E+03  6.92527E+03  4.54881E+03  2.70084E+03
 -4.66883E+03  1.33336E+03 -3.84156E+03  1.41478E+03 -8.44965E+03 -3.74052E+02 -5.37993E+03 -5.78143E+03
  1.30440E+03 -5.72527E+03  3.09141E+03 -7.18468E+03  4.56461E+03 -5.55329E+03  3.42230E+03 -1.19012E+02
  2.77454E+03  5.26794E+03  2.95291E+03  1.54721E+03  5.22364E+02  8.67435E+03 -1.43619E+03  1.57647E+03
  8.64318E+02  6.16851E+02  5.07426E+03 -3.23350E+03 -8.88853E+01  9.31870E+02 -6.25112E+02 -3.86202E+02
  7.06208E+03  1.18981E+03 -5.52080E+02  1.21258E+03 -5.26473E+02  6.24019E+02  6.16642E+02 -4.96864E+03
  1.95680E+03 -1.22500E+03  5.83163E+01  2.51250E+03 -2.59152E+03  1.38313E+03  2.62484E+02  6.47279E+03
 -2.10712E+03  3.95781E+03 -1.60206E+03  3.66645E+02 -2.92862E+03 -4.51407E+03 -3.28809E+03 -5.35493E+03
  8.81677E+02 -7.49679E+03  4.65422E+03  4.64744E+02 -4.49058E+02  3.56044E+03 -8.36212E+02  1.69567E+03
 -4.35411E+03  1.48847E+03 -1.61786E+03 -3.52408E+02  3.18350E+03 -3.41122E+03  1.22750E+03  8.38012E+00
  5.08924E+01 -6.05043E+03  1.84724E+03  3.43954E+02  2.04894E+03 -4.63483E+03 -5.92157E+03  1.78943E+03
  3.99464E+03  8.44549E+02  1.04527E+03 -2.96593E+03 -2.38529E+03 -4.29060E+03  2.39603E+03 -7.02301E+03
  6.02980E+02 -1.37220E+03  1.72441E+03 -1.59321E+03  4.67353E+03  3.42186E+03 -2.32609E+03  3.98416E+03
 -5.73486E+03  3.15431E+03 -2.47351E+03  3.21930E+02  4.18787E+03 -2.39301E+03 -9.33242E+02 -2.07402E+01
  4.12390E+03  1.37518E+03  3.07268E+03  2.52665E+03 -4.66052E+03  7.16764E+03  4.30616E+02  2.15457E+03
 -5.62210E+03  5.19118E+02 -3.34670E+03  4.91849E+03 -7.17361E+03  2.83658E+03 -5.20895E+03  2.05157E+02
  9.81548E+02  1.68051E+03 -7.99033E+03  7.13783E+02 -4.53688E+03 -4.41114E+02 -3.81347E+03 -3.67041E+01
 -1.48669E+03 -7.60046E+03 -4.61016E+02 -4.60286E+03  1.78970E+03 -1.75359E+03  3.99192E+03  3.96247E+02
  3.80443E+03 -2.51353E+03  8.50797E+02  5.57942E+03 -3.25120E+03  1.66440E+03  2.20371E+01  2.29439E+02
 -1.14541E+03  1.70191E+02 -3.88996E+00 -7.46937E+03 -2.61717E+03  5.79485E+03 -2.47692E+03 -1.94607E+03
 -4.40496E+03 -2.39988E+03 -3.28565E+03  4.21178E+03  7.41854E+02  1.03339E+03 -5.34761E+03 -5.82305E+02
 -1.14592E+03 -4.08480E+03 -3.82915E+03  2.91088E+03  3.34020E+03  1.71268E+03 -1.78056E+02  2.74200E+03
 -2.19391E+03  4.52514E+02 -5.10198E+03  2.45407E+02 -2.80881E+03  3.91743E+02 -3.32549E+01 -2.58142E+02
 -7.03282E+03  3.87697E+02 -3.87527E+02  1.34833E+03  2.31918E+03 -4.10137E+03  8.81015E+02 -1.13014E+03
  1.37934E+03 -4.51009E+02 -2.13802E+03  3.37087E+03  4.22402E+02  1.10469E+03  4.57158E+03 -6.06282E+03
  2.08463E+03 -6.63343E+03  2.54670E+03 -5.93631E+02 -3.93566E+03 -1.07842E+03  4.60510E+03 -1.56633E+03
 -2.56530E+03  6.66289E+03 -4.90678E+03  3.36776E+03 -3.95312E+03  1.89425E+03  6.88473E+02  3.09247E+02
  4.26314E+03 -1.92800E+03  2.97179E+02  4.46249E+03 -4.42810E+02  1.31259E+03  2.22574E+03  3.44359E+03
  2.05733E+03  3.52137E+03  3.58705E+03 -2.61209E+03  1.66926E+03  5.16692E+02 -1.31485E+03 -1.67286E+03
 -5.02185E+03  7.19430E+02 -3.36530E+03  9.17041E+02 -3.81164E+03  1.92172E+03 -5.74204E+03  4.42874E+02
 -2.92418E+03  9.83944E+02  1.23269E+03  2.35335E+03  2.11632E+03 -3.51175E+03  2.42639E+03 -1.78839E+03
  4.61146E+03  3.53712E+02 -4.11872E+03  2.12231E+03  5.01265E+03 -7.32191E+02 -2.19639E+03  3.05158E+02
