 $NMID ID='MM_0lb_SNR50_20hz_g50_92.RAW', FMTDAT='(8E13.5)'
 TRAMP=1., VOLUME=1. $END
  3.10741E+05 -1.89604E+02  3.36276E+05  2.50249E+05  8.77264E+04  3.36618E+05 -1.29188E+05  2.51957E+05
 -1.86707E+05  7.97157E+04 -1.11940E+05 -3.18763E+04  1.26856E+03 -5.35325E+04  5.53264E+04 -2.72496E+03
  3.36321E+04  5.11904E+04 -1.70975E+04  7.45765E+04 -6.49643E+04  6.27770E+04 -8.03169E+04  2.90745E+04
 -7.59933E+04 -1.66030E+04 -5.69422E+04 -4.74710E+04 -1.67509E+04 -7.10543E+04  2.44027E+04 -4.72327E+04
  3.89040E+04  9.16574E+03  1.58663E+04  5.01712E+04 -3.61590E+04  4.78985E+04 -6.32240E+04 -4.92843E+02
 -5.21260E+04 -5.69563E+04 -4.70984E+03 -7.55894E+04  3.42473E+04 -5.57065E+04  4.64072E+04 -1.54308E+04
  4.55056E+04  9.96844E+03  2.94140E+04  2.24892E+04  1.77193E+04  2.96175E+04  2.49988E+02  2.64949E+04
 -1.93550E+04  1.64615E+04 -1.52187E+04 -1.35805E+03  4.26007E+03 -6.40524E+03  1.67088E+04  9.99126E+03
  7.15490E+03  3.44091E+04 -2.74078E+04  3.19161E+04 -6.08088E+04  3.00500E+03 -5.41801E+04 -3.91226E+04
 -1.46527E+04 -5.84213E+04  4.31712E+04 -4.44799E+04  5.53855E+04 -9.09886E+02  3.20902E+04  2.80696E+04
 -8.02541E+03  3.42855E+04 -2.88769E+04  1.11183E+04 -2.64300E+04 -7.44889E+03 -1.33708E+04 -1.13946E+04
 -6.16087E+03 -5.57930E+03  9.35349E+02 -1.62305E+04  5.07373E+03 -2.34875E+04  1.52595E+04 -1.47062E+04
  1.38322E+04  4.97022E+03 -2.52097E+03  1.37093E+04 -1.96557E+04 -1.60516E+02 -9.20858E+03 -2.98884E+04
  2.13106E+04 -4.15145E+04  4.58763E+04 -1.50177E+04  3.79091E+04  1.79178E+04  1.43602E+04  4.07198E+04
 -1.52374E+04  2.92641E+04 -2.08803E+04  3.65069E+03 -1.03859E+04 -2.46429E+04  2.11893E+04 -3.27729E+04
  3.77099E+04 -5.30971E+03  3.18334E+04  2.00848E+04  1.43312E+04  4.30407E+04 -1.16105E+04  4.41715E+04
 -2.73007E+04  2.61055E+04 -3.27451E+04  8.49459E+03 -3.49855E+04 -1.91505E+04 -2.04819E+04 -3.11733E+04
  2.92113E+03 -3.00507E+04  2.92583E+04 -1.47918E+04  2.25724E+04  1.12632E+04 -2.68819E+02  1.51916E+04
 -1.44497E+04  4.19887E+03 -8.12750E+03 -7.08556E+03  3.68578E+03 -1.23913E+04  1.56431E+04  6.06443E+03
  1.27093E+04  2.47386E+04 -9.56702E+03  2.41276E+04 -1.98621E+04  9.25064E+03 -2.43052E+04 -3.65916E+03
 -1.58297E+04 -1.81012E+04 -4.97888E+03 -2.01277E+04  1.71115E+03 -1.96415E+04  9.20192E+03 -1.07780E+04
  2.17016E+04 -1.21656E+04  2.86814E+04  2.14944E+02  2.25424E+04  1.60252E+04  5.16098E+03  3.34737E+04
 -1.54755E+04  2.44628E+04 -2.85663E+04  1.28134E+04 -1.95483E+04 -1.03377E+04 -8.25809E+03 -1.71265E+04
  2.80059E+03 -5.29905E+03 -7.90690E+03  4.88122E+03 -1.46136E+04  8.20076E+02 -1.35252E+04 -4.05453E+03
 -1.05708E+04 -1.43318E+04  9.80896E+02 -2.09035E+04  1.26002E+04 -1.16522E+04  1.77901E+04 -9.39585E+02
  4.71654E+03  1.16017E+04 -2.97370E+03  1.50754E+04 -6.68058E+03  8.37210E+03 -1.47683E+04 -1.88376E+03
 -9.31113E+03 -1.03053E+04 -2.34002E+03 -1.78036E+04  8.84730E+03 -1.27910E+04  1.98932E+04 -4.90010E+03
  1.48118E+04  2.68660E+03  9.27405E+03  6.15962E+03  7.33878E+03 -5.36103E+02  7.18045E+03  6.48875E+02
  1.66486E+04  1.02292E+03  1.15619E+04  1.12215E+04  9.50885E+03  2.83590E+04 -5.57922E+03  2.19854E+04
 -1.39199E+04  1.65009E+04 -2.11699E+04  7.03218E+03 -2.42351E+04 -1.99329E+03 -1.95785E+04 -1.33004E+04
 -1.19227E+04 -1.50923E+04  5.54502E+03 -1.94199E+04  1.42615E+04 -7.73160E+03  1.33793E+04 -9.43711E+02
  6.19039E+03  6.32490E+03 -8.17897E+03  5.98352E+03 -1.33353E+04  5.28907E+03 -9.57568E+03 -6.86171E+03
  3.89492E+03 -1.32567E+04  2.00108E+03 -8.60077E+03  8.19268E+03 -7.76745E+02 -9.18790E+02  6.70207E+03
 -3.77985E+03  1.58583E+03 -6.90192E+03 -3.07465E+03  4.68341E+03 -4.58769E+03  9.11426E+03 -8.72727E+03
  1.23003E+04 -2.02674E+03  6.76909E+03  3.41856E+03  8.17357E+03  6.53569E+03  2.73874E+03  8.34022E+03
 -1.98637E+03  1.46470E+04 -1.24446E+04  9.71755E+03 -1.04282E+04  7.94423E+02 -9.11821E+03 -1.55313E+03
 -9.38011E+02 -2.67092E+03  2.83992E+03  5.06305E+02 -1.60677E+03  2.03261E+03  3.13067E+02  3.52346E+03
 -8.76069E+03 -2.43894E+03 -9.38351E+03 -6.39942E+03 -1.26962E+03 -9.38539E+03 -8.08642E+01 -6.41905E+03
  7.30195E+03 -2.17311E+03  7.11153E+03  4.53809E+02 -5.76803E+02  7.02889E+01 -5.07271E+02  8.73271E+02
 -2.26188E+03 -2.02104E+03 -2.62338E+03 -8.37887E+03  6.39313E+03 -7.10932E+03  1.17011E+04 -4.27333E+03
  7.99824E+03  3.48970E+03  4.86244E+03  2.10422E+03  2.35249E+03  4.71479E+03 -3.82127E+03  9.39073E+03
 -6.47382E+03  4.71709E+03 -9.05727E+03  4.81184E+02  2.87680E+03 -3.85458E+03  7.33285E+03 -2.47526E+03
  3.34840E+03  2.45415E+03 -1.98076E+03  5.81565E+03 -4.22701E+03  8.16719E+03 -5.50603E+03  3.35118E+03
 -4.11777E+03  2.20387E+03 -1.74917E+03 -4.82098E+03  2.80579E+03 -2.34472E+03  4.54609E+03  2.28601E+03
 -3.73285E+03  4.53528E+03 -5.44285E+03  1.81325E+03 -6.96626E+03  2.63225E+02 -5.70796E+03 -4.93158E+02
 -3.70399E+03 -3.78109E+03 -2.73403E+03 -5.30163E+03  8.20503E+03 -5.43517E+03  5.46468E+03  2.10875E+02
  2.37448E+03  5.96487E+03 -4.40470E+03  3.00580E+03 -1.57636E+03  3.94466E+03 -3.70251E+03  1.35451E+02
 -3.16182E+03 -4.97493E+03 -2.23919E+03 -4.09795E+03  4.47943E+03 -4.44402E+03  1.14097E+03 -3.42167E+03
  1.17585E+03 -8.90912E+02 -3.66676E+03  3.00196E+03 -3.06693E+03  9.06564E+02 -1.32285E+03 -4.23717E+03
  4.56477E+03 -1.34131E+03  4.00601E+03  1.44837E+03  3.91821E+03  1.85224E+03  4.86051E+03  6.12959E+03
  1.62646E+03  4.10905E+03 -7.10236E+03  6.36603E+03 -8.28947E+03  2.73713E+03 -6.53928E+03 -3.58945E+02
 -4.11963E+03 -1.32436E+03 -3.52638E+03 -5.18421E+03  6.81367E+02 -3.93534E+03 -2.72287E+03 -3.99434E+03
 -1.78973E+03 -6.47876E+03 -4.94533E+02 -3.55181E+02  5.75932E+03 -8.94303E+02  4.47331E+02  1.00948E+03
  4.97384E+03  2.97905E+03 -1.47245E+03  1.14509E+03  4.75588E+03  1.24766E+03 -5.71048E+03 -5.21631E+02
 -6.01713E+03 -2.58244E+03 -9.31672E+02 -3.54518E+03  1.10767E+03 -4.70962E+03  7.16318E+03 -5.20534E+03
  5.41805E+03  3.26807E+03  4.46625E+03  9.96974E+02  6.56264E+03  2.44235E+03 -1.32351E+03  3.44743E+03
 -1.17555E+03  6.51919E+03 -6.49319E+03  1.71839E+03 -3.16461E+03 -1.02195E+03 -4.63197E+03 -2.55560E+03
  1.25668E+03 -6.23590E+03  2.76161E+02  5.11096E+03 -5.31211E+03  1.00371E+03 -8.23638E+03  3.26539E+02
  1.08287E+03 -5.75554E+03  1.33642E+03 -7.41465E+03  9.77881E+02 -5.48569E+02  3.75578E+03 -1.93307E+03
  2.25543E+03 -2.75422E+03 -6.23218E+01  8.72065E+03  1.92577E+03  8.62500E+03  3.21026E+02  3.36293E+03
 -9.94583E+02  2.44184E+02  1.80270E+02  2.79170E+03  2.08548E+03 -3.15037E+02 -1.70780E+03 -1.92608E+03
  3.54958E+03 -1.17797E+03  1.09539E+02  2.56686E+03  1.97200E+02  9.91155E+02  1.60641E+02 -1.73873E+03
 -9.05556E+02  5.01085E+03  2.77052E+03  3.03631E+03  2.62644E+02 -1.15183E+03  2.03686E+03  4.47961E+02
 -3.92974E+03  4.65578E+03 -3.13864E+03  1.86029E+03 -3.16327E+02  1.56066E+03 -3.33311E+03  7.04707E+02
 -2.84987E+02 -4.95928E+03  1.29606E+03 -4.33544E+03  1.42416E+03 -1.22220E+03  4.57323E+03 -4.26536E+03
  1.24668E+03 -7.61873E+02 -1.95369E+03  4.44138E+03  4.61823E+03  1.44472E+03  1.13415E+03  1.09747E+03
  4.54082E+02 -1.12211E+03  3.26050E+03  2.26377E+03  1.65204E+03 -3.97158E+03  5.88568E+03 -9.11127E+02
  4.26315E+03  1.68547E+03 -7.80517E+02  8.45054E+02  2.39434E+03  3.87930E+03 -4.94850E+01 -8.82702E+02
 -3.10159E+03  1.45090E+02  5.05192E+02 -6.78414E+02  1.65045E+03  5.05536E+03 -4.67137E+03 -1.52682E+03
 -1.35240E+03 -2.92273E+02  5.53762E+02 -3.86130E+02  1.21794E+02 -1.70149E+03 -1.32849E+03 -1.35961E+03
 -6.38491E+02 -1.11986E+03  1.00990E+03 -5.14553E+02 -2.72940E+02 -1.36631E+03 -1.38510E+03 -3.32666E+03
 -3.44863E+03 -1.74062E+01 -4.46328E+03 -1.98338E+03 -4.21422E+03 -3.05887E+03  2.13165E+03 -4.68573E+03
 -1.34204E+03  3.41804E+03  8.37551E+02 -6.86334E+02  2.67083E+03  2.44021E+02  3.80867E+01 -1.34270E+03
  3.17760E+03 -2.64678E+02  1.59549E+03  1.13116E+03 -2.59138E+03  1.52657E+03  3.64403E+03  1.60765E+03
 -7.43769E+02  5.35430E+02  1.02754E+03 -1.60786E+03  6.37850E+03  3.83077E+03  2.08019E+03  2.80611E+02
 -1.38182E+03 -8.77183E+02 -3.49628E+03  4.24745E+03  1.12437E+02  6.59136E+02 -1.72249E+03 -7.42672E+02
  2.79458E+03  4.00034E+02  1.01572E+03 -7.38100E+02  1.24067E+03 -2.50166E+03  3.90354E+03  2.95513E+02
  1.29250E+03 -2.55351E+02 -2.38681E+03 -4.25410E+02 -4.28379E+03 -3.21966E+03  8.12031E+02  9.08252E+02
  1.05966E+03  1.21563E+03 -2.44528E+03 -1.25941E+03  3.65482E+03  1.02198E+03 -5.02026E+03 -9.76642E+01
 -2.39541E+03 -5.31041E+03  1.69476E+03 -4.03454E+03  2.34879E+03 -6.98461E+03  1.27675E+03 -2.47159E+03
  7.78328E+03  1.20156E+03  2.79327E+03  1.18540E+03  5.01445E+02 -1.15494E+02 -1.23562E+03 -1.03103E+02
 -3.33094E+03  2.02985E+03 -2.90894E+03 -1.97154E+03  1.27974E+03  5.72007E+02  8.57834E+02  3.01443E+02
  2.93572E+01  1.24209E+03  3.79400E+02 -2.44898E+01  1.47995E+03 -2.52441E+03 -2.40006E+02  4.65932E+02
  3.78319E+03 -5.12958E+02 -1.08136E+03 -2.41813E+03  3.66653E+03  6.13770E+03 -3.90196E+03 -2.37857E+02
  1.22114E+03  5.91361E+03 -6.39990E+02  5.47196E+03 -3.18603E+03 -2.96599E+03  7.25768E+02  1.60032E+02
  2.03058E+03 -2.27804E+03  1.21377E+02  7.07897E+02 -3.25098E+03 -3.92793E+03 -1.14247E+03 -9.57971E+02
 -1.37724E+03  6.56385E+02 -1.41358E+02  1.21871E+03  1.45877E+03  1.04902E+03 -2.52802E+03 -4.22197E+03
  4.93730E+02 -1.02628E+03 -1.33522E+03  1.02351E+03 -5.49355E+02 -9.91661E+02 -1.41343E+02  1.26274E+03
 -4.35265E+02 -4.52239E+02 -1.33844E+03 -2.15654E+03 -2.35508E+03  8.29378E+02 -3.77776E+03 -1.25098E+03
  2.00706E+03 -1.92693E+03 -4.92920E+02  9.23826E+02  1.11143E+03 -1.95967E+03 -2.84732E+03  1.36935E+03
 -1.82322E+02 -9.94699E+02  2.05454E+03 -2.46834E+02  1.14275E+03  2.71160E+03 -3.22154E+01 -8.50674E+02
  1.39860E+03 -4.81169E+03 -1.35618E+03 -2.67941E+03  3.68848E+03 -1.74966E+03  9.85312E+02 -3.46901E+03
 -6.99220E+02  4.72220E+03  3.88508E+03  8.72575E+02  9.54795E+02 -2.07799E+03  1.04064E+03 -6.56131E+02
 -2.46081E+03  1.01386E+03  1.11538E+03 -5.17023E+02  1.06341E+03  2.10547E+03 -2.35598E+03 -6.11890E+02
