 $NMID ID='MM_0lb_SNR50_20hz_g60_99.RAW', FMTDAT='(8E13.5)'
 TRAMP=1., VOLUME=1. $END
  3.06578E+05 -1.61076E+03  3.40004E+05  2.50284E+05  8.56208E+04  3.36670E+05 -1.32738E+05  2.49833E+05
 -1.92157E+05  8.15825E+04 -1.12295E+05 -3.12423E+04 -1.45362E+02 -5.35113E+04  5.52529E+04 -6.29719E+03
  3.65292E+04  5.40374E+04 -1.68610E+04  7.69013E+04 -6.17338E+04  5.93061E+04 -8.50050E+04  3.27508E+04
 -8.18264E+04 -1.18565E+04 -5.64806E+04 -4.85504E+04 -1.44921E+04 -6.91372E+04  2.89295E+04 -4.52025E+04
  3.88851E+04  7.40430E+03  1.55371E+04  4.32341E+04 -2.86035E+04  4.69249E+04 -6.34452E+04  5.39934E+02
 -4.79831E+04 -5.72027E+04 -1.02302E+04 -7.39453E+04  3.32201E+04 -5.29342E+04  4.40647E+04 -1.49304E+04
  3.92423E+04  8.35394E+03  3.06427E+04  2.18073E+04  1.29583E+04  2.69696E+04 -7.71611E+03  2.49396E+04
 -2.47858E+04  7.92778E+03 -2.02628E+04 -1.04826E+03  2.12444E+03 -1.06394E+04  2.23946E+04  1.06324E+04
  8.62531E+03  3.54202E+04 -3.16506E+04  3.89745E+04 -6.01110E+04  4.72400E+03 -5.21305E+04 -4.17775E+04
 -1.17708E+04 -6.07461E+04  3.87043E+04 -4.40519E+04  5.45832E+04 -2.79646E+03  3.49876E+04  3.18943E+04
 -4.63765E+03  3.83409E+04 -2.71814E+04  1.52930E+04 -2.90226E+04 -7.65108E+03 -1.68263E+04 -6.97503E+03
 -9.89875E+03 -1.48926E+04  9.64722E+02 -1.66748E+04  4.85402E+03 -2.07145E+04  1.31588E+04 -1.43675E+04
  8.47244E+03  4.38821E+03 -7.95165E+03  1.46560E+04 -1.90162E+04 -1.75865E+03 -7.35218E+03 -3.34724E+04
  1.70931E+04 -4.22809E+04  4.34959E+04 -1.83110E+04  4.44829E+04  1.47371E+04  1.06901E+04  3.91687E+04
 -1.36532E+04  3.08051E+04 -2.10121E+04  5.55975E+03 -7.90967E+03 -2.43153E+04  2.38879E+04 -2.82634E+04
  3.46393E+04 -5.07830E+03  3.97356E+04  2.32089E+04  1.63047E+04  4.47550E+04 -8.93522E+03  4.06030E+04
 -2.97250E+04  3.19162E+04 -4.19483E+04  5.71221E+03 -4.14284E+04 -1.64408E+04 -2.27840E+04 -3.41372E+04
  6.55685E+03 -3.16922E+04  2.54522E+04 -1.11491E+04  2.72901E+04  9.75217E+03 -1.06491E+03  1.93685E+04
 -8.70113E+03  5.55850E+03 -1.16576E+04 -7.71557E+03  1.81999E+03 -4.26897E+03  1.80135E+04  8.90365E+03
  1.15888E+04  2.36178E+04 -1.16025E+04  2.31050E+04 -2.09711E+04  1.29224E+04 -2.54915E+04 -3.39771E+03
 -2.24314E+04 -1.42539E+04 -6.29975E+03 -1.80315E+04  3.43081E+03 -1.83312E+04  1.26675E+04 -1.58299E+04
  2.16172E+04 -8.71876E+03  3.00958E+04  7.59975E+02  2.38050E+04  1.35357E+04  1.72404E+03  3.59085E+04
 -1.74473E+04  2.69755E+04 -2.82798E+04  9.72649E+03 -2.19983E+04 -1.09683E+04  2.78232E+03 -1.35387E+04
  6.34066E+02 -4.83206E+03 -2.78309E+03  6.05234E+02 -1.63062E+04  1.78385E+03 -1.39739E+04 -1.10611E+03
 -1.19020E+04 -1.44326E+04  2.61099E+03 -1.95294E+04  1.36755E+04 -1.34920E+04  1.22321E+04  1.84852E+03
  1.06076E+04  7.30555E+03  3.59037E+02  1.51247E+04 -9.04904E+03  1.10424E+04 -1.24421E+04 -6.70089E+03
 -1.51215E+04 -1.44844E+04 -4.92219E+01 -1.78315E+04  5.83804E+03 -1.40350E+04  1.83868E+04 -4.72141E+03
  1.57204E+04 -8.20683E+02  9.35125E+03  3.27465E+03  4.12696E+03  8.17556E+02  7.85756E+03  1.20003E+03
  1.06853E+04 -7.67063E+02  1.59041E+04  7.70217E+03  1.01549E+04  2.01936E+04 -4.50616E+03  2.56782E+04
 -1.64560E+04  2.00304E+04 -2.45461E+04  1.23025E+04 -2.27176E+04  1.00346E+03 -2.28526E+04 -1.40411E+04
 -1.32136E+04 -2.14176E+04  6.47885E+03 -1.55892E+04  1.38479E+04 -1.06025E+04  1.46624E+04  6.10135E+03
  9.98655E+03  1.30516E+04 -8.30206E+03  1.05873E+04 -1.31290E+04  2.02763E+03 -8.80087E+03 -7.21876E+03
  3.01388E+03 -1.05169E+04  4.99961E+03 -1.20391E+04  9.74250E+03 -3.26887E+03 -1.61117E+03  2.35898E+03
 -2.21155E+03  8.25518E+03 -5.01806E+03 -4.78943E+03  4.68503E+03 -1.25775E+04  5.59839E+03 -1.27663E+04
  1.62846E+04 -3.85881E+03  1.01466E+04  7.43188E+03  8.90353E+03  9.25110E+03  7.19624E+03  1.47714E+04
 -1.16517E+03  7.99895E+03 -1.38019E+04  6.23980E+03 -1.47927E+04 -1.67087E+03 -7.76131E+03 -1.54167E+03
 -2.46213E+03 -2.42757E+03 -2.69897E+03 -7.32890E+02 -8.92035E+02  4.71797E+03 -1.16572E+03  4.28477E+03
 -6.48361E+03 -9.88123E+02 -1.20548E+04 -9.04855E+03 -3.42492E+03 -1.01081E+04  1.45599E+03 -5.36846E+03
  5.04966E+03 -5.52215E+03  5.71396E+03 -2.37495E+02 -2.96086E+01  3.05131E+03 -4.04418E+03 -4.04542E+02
 -3.88910E+03 -4.60209E+03 -2.10753E+03 -7.32518E+03  4.39797E+03 -2.91268E+03  7.08797E+03 -3.47011E+03
  9.71209E+03  4.49730E+02  6.45908E+03  3.06825E+03  4.54474E+03  5.71203E+03 -4.92175E+03  1.08309E+04
 -8.32670E+03  1.91162E+03 -5.43999E+02  2.36306E+03  1.41615E+03 -1.57340E+03  8.56594E+03  2.09270E+03
 -9.21928E+02  5.59844E+03 -2.27157E+03  1.46815E+03 -6.99236E+03  1.03099E+04 -5.26576E+03  1.53835E+03
 -4.05278E+03 -5.58298E+02 -8.02585E+02 -9.65365E+03  4.83279E+03 -3.75597E+03  2.21558E+03 -7.20553E+02
  1.06682E+03  8.33604E+02 -1.09566E+03  5.56131E+03 -7.27248E+03  2.97632E+03 -5.48117E+03 -3.05218E+03
 -4.81622E+03 -4.98806E+03  1.73014E+03 -6.12053E+03  3.19659E+03 -3.07155E+03  3.85989E+03  2.69757E+03
  7.37891E+03  5.41280E+03  2.29217E+03  2.28556E+03 -7.61712E+03  3.62261E+03 -5.58325E+03 -1.63226E+03
 -9.57486E+03 -4.70197E+03 -3.52758E+03 -3.26168E+03  3.14422E+03 -4.72779E+03  4.38493E+03 -1.09697E+03
  5.90882E+03 -3.67351E+03 -1.82828E+03  1.32065E+03 -5.86827E+01 -1.98769E+01  5.42237E+02  2.57111E+03
  1.26488E+03  2.16762E+03  6.01799E+03  1.01073E+03  3.38105E+03 -2.32179E+03  5.76180E+03  8.90692E+03
  1.05195E+01  5.82852E+03 -7.88339E+03  7.64092E+03 -7.12134E+03  2.24386E+03 -6.09112E+03 -3.04004E+03
 -6.82343E+03 -6.73337E+03 -2.63615E+03 -6.99235E+02  1.41761E+02 -9.57247E+02  2.21279E+03 -1.10349E+03
  1.70949E+02 -4.39895E+03  5.71819E+03 -2.82327E+03  5.92945E+03 -1.95249E+03  6.67002E+03  1.07307E+03
  5.33471E+03  2.13729E+03 -1.70572E+03  3.78306E+03  2.24057E+03  3.27748E+03 -3.28699E+03  1.53470E+03
 -7.35062E+03 -2.97984E+03 -4.72066E+02 -3.38016E+02  2.26491E+02 -8.35005E+03  1.64353E+03 -9.22208E+03
  5.24486E+03 -1.78871E+03  3.09073E+03  2.76957E+03  3.68027E+03  4.46684E+03  1.31469E+03  3.76787E+03
 -2.31603E+03  2.40901E+03 -1.72410E+03  2.38775E+03 -2.40876E+03 -3.04217E+03 -1.55713E+03 -1.34829E+03
  3.24202E+03 -2.73891E+03 -9.34565E+02  3.98537E+03 -7.88056E+03 -2.14473E+03 -3.64412E+03 -3.37963E+03
  9.10668E+01 -3.06198E+03 -1.85712E+01 -6.94748E+03  1.01399E+03 -5.26499E+03  6.36524E+03  4.20801E+03
  4.69153E+03  2.15261E+03  3.80830E+03  1.17804E+03 -1.78242E+03  4.60821E+03 -5.49174E+03  2.90800E+03
 -3.13249E+03 -3.92906E+03 -1.37136E+03 -2.87555E+03 -3.50555E+02 -1.98248E+03  2.25250E+03 -2.19766E+03
 -4.03235E+02 -1.03197E+03 -6.79918E+02 -3.27245E+03  5.02494E+03 -1.61181E+03  1.51366E+03 -1.23969E+03
  3.65509E+03 -7.21616E+02  3.13364E+03 -4.25785E+03 -8.54753E+02 -1.41327E+03  5.93312E+03  2.33500E+02
 -2.87710E+03  1.87372E+03  4.41965E+02  2.77941E+03  1.38198E+03  4.63887E+03 -7.84705E+02  3.08710E+03
 -2.56170E+03 -2.29270E+03  3.56311E+03 -5.26543E+03  4.48736E+03  3.21123E+03  1.63589E+03  2.21845E+03
  2.48607E+03 -1.41976E+03 -2.65076E+03  4.77475E+00 -4.87484E+02 -4.04757E+03 -1.08387E+03  6.71842E+02
 -3.66899E+03 -2.46474E+03 -1.75681E+03 -2.06117E+03  1.01003E+03 -2.98909E+03  1.02751E+02  1.41149E+03
 -7.87772E+02 -1.51031E+03  1.94604E+02  1.05043E+03 -3.99423E+03  1.94777E+03  3.96146E+03  1.34055E+03
  1.48893E+03 -1.36752E+02  2.45590E+03  2.50538E+03  6.60435E+02  2.86543E+03 -3.90989E+03 -3.23527E+02
  4.92967E+02  3.18005E+03 -1.07347E+03  2.41719E+03  2.93519E+03 -3.28851E+02  2.95384E+03 -2.86043E+03
  3.26967E+03  6.43352E+02  1.95239E+03 -1.31601E+03 -3.56964E+02 -2.57939E+03  2.46616E+03  3.97272E+03
  1.66856E+03  3.75124E+03  1.60067E+03  2.23124E+03 -8.91003E+02 -2.40138E+03  2.62241E+03  2.49150E+03
  1.40610E+03  2.05717E+03  5.83318E+02  2.38772E+02  3.07463E+03 -1.59654E+03  5.37527E+03 -2.37791E+03
 -1.18716E+03  1.67489E+03 -1.70632E+03  4.90408E+02 -3.41240E+02  2.23299E+02  5.37870E+03 -1.93101E+03
  5.34154E+03  7.39407E+02  5.06116E+03 -2.02065E+03  3.49968E+03  4.42242E+03  5.38653E+01  2.72991E+03
 -5.13972E+03 -1.97997E+03 -5.08947E+03  1.78100E+03  1.18509E+03  2.96578E+03  6.02192E+02  2.96155E+03
  4.26222E+02  1.26940E+03 -1.07771E+03  3.10303E+03  2.66096E+03  1.49531E+03  1.76084E+03  4.57950E+03
  2.79348E+03  5.66446E+03  3.11081E+03 -9.84818E+02  1.44137E+03  1.13240E+03  3.97567E+03  1.07641E+03
  1.41681E+03  7.15869E+02  1.59539E+03  1.83799E+03  1.27101E+03  3.45758E+02 -3.36297E+03  1.17100E+03
 -9.28927E+02 -2.73559E+01  3.16615E+03 -4.57644E+03 -1.13260E+03 -3.37718E+02  5.12755E+03  2.34394E+02
  3.21134E+03 -1.44989E+03  2.37828E+03  1.00413E+02 -1.09447E+03  1.77221E+03  2.65149E+03 -2.62894E+03
 -1.56801E+03  5.22837E+03 -5.50283E+02  1.13000E+03  2.27239E+03 -4.13737E+03  6.63703E+00 -5.83993E+03
 -1.53871E+03  6.32677E+02 -1.30186E+03 -1.59376E+03  7.37022E+02  4.34885E+03  7.80429E+02 -2.92096E+03
  3.00664E+03 -5.57241E+02  4.51593E+03 -2.69000E+02 -3.45161E+02  4.17772E+03  2.05505E+01 -1.68869E+03
  9.12159E+02  9.59223E+01  1.17889E+03 -1.64593E+03 -9.94088E+02 -1.07607E+03  8.33569E+02  8.87438E+02
  3.26548E+03  4.92119E+02 -2.86083E+03  4.17913E+03 -2.25452E+03 -2.87307E+03  7.45565E+02 -1.93248E+03
  4.51539E+03  1.10126E+03 -2.30009E+03  1.74237E+02 -7.80895E+02 -1.31389E+03  5.92881E+02 -3.33790E+03
  1.80191E+03 -6.33956E+02  3.21159E+03 -9.35109E+02 -4.88842E+02  3.52396E+03 -1.44768E+03  3.41006E+03
 -1.41098E+03  3.66357E+03  3.67025E+03 -2.47740E+03 -4.84706E+01  2.03772E+02  1.13394E+03 -2.50704E+03
  2.06325E+03 -3.19715E+03  2.38474E+03 -1.05358E+03  5.22640E+03 -3.73703E+03  3.31110E+02  1.84514E+03
  2.41770E+03 -1.55194E+03  3.51241E+03 -2.87579E+03 -9.26952E+02  2.45222E+03 -2.13873E+03  1.79751E+03
 -5.06668E+02  1.46194E+03  3.27053E+03  9.29071E+02 -2.67066E+03  3.90838E+03 -2.61527E+02  1.62535E+02
 -1.39479E+02  1.02443E+03 -8.84329E+02 -4.99922E+02  3.26322E+03 -1.33812E+03 -2.86355E+03 -1.24533E+03
 -1.24583E+03 -6.04851E+02 -1.56796E+03  2.23315E+02  1.27594E+03 -1.86080E+03  9.59694E+02  1.45207E+03
