 $NMID ID='MM_0lb_SNR50_10hz_g40_34.RAW', FMTDAT='(8E13.5)'
 TRAMP=1., VOLUME=1. $END
  3.06489E+05 -6.52182E+02  3.37753E+05  2.54089E+05  8.47777E+04  3.39317E+05 -1.31754E+05  2.51696E+05
 -1.89913E+05  7.64057E+04 -1.06726E+05 -3.46736E+04 -1.35863E+03 -4.95858E+04  5.70229E+04 -9.92203E+02
  3.33131E+04  5.02347E+04 -1.79457E+04  7.34009E+04 -6.42353E+04  6.47586E+04 -8.58207E+04  3.10695E+04
 -8.13676E+04 -7.32778E+03 -5.60636E+04 -5.48331E+04 -1.42674E+04 -6.73650E+04  2.79792E+04 -4.62473E+04
  3.60215E+04  5.14678E+02  2.03796E+04  4.40473E+04 -3.84936E+04  5.11223E+04 -6.79448E+04 -1.85137E+03
 -5.12689E+04 -5.34709E+04 -1.34687E+04 -8.02774E+04  3.76704E+04 -5.35884E+04  5.13134E+04 -1.33946E+04
  4.11811E+04  7.71921E+03  2.82473E+04  2.82681E+04  1.89416E+04  2.85696E+04 -3.60610E+03  1.95657E+04
 -2.14061E+04  7.05260E+03 -2.12985E+04 -1.75977E+03  1.20325E+04 -1.01359E+04  2.50324E+04  1.43467E+04
  6.84848E+03  3.22736E+04 -3.68166E+04  3.71287E+04 -6.42280E+04 -2.29904E+03 -5.81873E+04 -4.91924E+04
 -1.92476E+04 -6.87340E+04  3.72315E+04 -4.49899E+04  5.73428E+04  1.31087E+03  3.70860E+04  3.22359E+04
 -4.08390E+03  3.34721E+04 -3.15916E+04  1.65889E+04 -2.93586E+04 -2.90271E+03 -1.83063E+04 -5.31902E+03
 -5.09372E+03 -1.33717E+04  4.89731E+03 -2.00966E+04 -1.24865E+03 -1.76259E+04  1.96625E+04 -1.07693E+04
  9.01330E+03  1.17729E+04 -9.65347E+03  1.73058E+04 -2.24685E+04 -1.04803E+03 -5.80698E+03 -3.39751E+04
  3.02768E+04 -4.47753E+04  5.06145E+04 -1.74283E+04  4.75300E+04  2.54659E+04  2.25572E+04  4.76394E+04
 -1.65494E+04  3.33274E+04 -2.98157E+04 -3.73523E+03 -8.40250E+03 -2.72265E+04  1.87403E+04 -3.57121E+04
  4.24472E+04 -1.66288E+04  3.51124E+04  2.63182E+04  2.07967E+04  4.97365E+04 -8.65145E+03  5.39899E+04
 -3.20459E+04  3.36101E+04 -4.68185E+04  1.01633E+04 -4.43719E+04 -2.11678E+04 -2.35368E+04 -3.70043E+04
  7.09049E+03 -3.98191E+04  2.81269E+04 -1.53752E+04  2.98838E+04  8.99173E+03  2.87908E+03  1.94184E+04
 -1.44386E+04  1.12241E+04 -1.20021E+04 -1.38454E+04  5.05484E+03 -1.11330E+04  1.84248E+04  5.71932E+03
  1.41755E+04  2.38543E+04 -6.64254E+03  2.36066E+04 -2.58190E+04  1.19907E+04 -3.32168E+04 -6.30465E+02
 -2.50870E+04 -2.07039E+04 -1.35128E+04 -2.74203E+04  1.12552E+03 -2.24045E+04  1.97771E+04 -2.30558E+04
  2.63615E+04 -1.49476E+04  3.80139E+04  1.15796E+03  2.38990E+04  2.43829E+04  8.30778E+03  4.15346E+04
 -2.12348E+04  3.34284E+04 -3.27001E+04  1.17945E+04 -2.31249E+04 -7.98053E+03 -7.36265E+03 -1.12386E+04
  2.85870E+03  2.85979E+03 -8.05956E+03  1.07585E+04 -2.00442E+04  7.53365E+03 -2.26922E+04 -1.80144E+03
 -1.13352E+04 -2.29935E+04  6.92026E+03 -2.95264E+04  1.59104E+04 -1.65902E+04  2.21578E+04 -3.12702E+03
  1.25735E+04  1.78631E+04  3.29005E+02  1.61410E+04 -1.51379E+04  9.35038E+03 -2.11898E+04 -3.10657E+03
 -1.95756E+04 -2.39150E+04 -3.39867E+03 -2.44985E+04  1.12488E+04 -1.77778E+04  1.81654E+04 -1.37780E+04
  2.45028E+04  3.36902E+03  2.27045E+04  4.61917E+03  3.82484E+03  6.12797E+03  1.18049E+04 -1.41374E+03
  2.15160E+04  1.05124E+04  2.79504E+04  1.45815E+04  2.00703E+04  3.22561E+04 -2.31125E+03  3.73841E+04
 -2.08108E+04  2.95697E+04 -3.37469E+04  1.92328E+04 -3.90039E+04 -5.86267E+03 -3.42241E+04 -1.87871E+04
 -1.01038E+04 -3.23237E+04  7.35210E+03 -3.24000E+04  2.82380E+04 -1.70701E+04  2.30100E+04  1.40390E+03
  4.20861E+03  1.61274E+04 -1.33317E+04  1.12877E+04 -1.62265E+04  5.39258E+03 -1.29135E+04 -8.26515E+03
  3.19689E+03 -1.83260E+04  7.41316E+03 -1.29885E+04  1.63129E+04 -2.10815E+03  3.92229E+03  1.20813E+04
 -1.20645E+04  1.16169E+03 -3.98622E+03 -6.18381E+03 -1.30195E+02 -1.33115E+04  7.93230E+03 -2.00981E+04
  2.21643E+04 -5.97935E+03  1.96735E+04  5.54118E+02  2.09609E+04  1.56699E+04  5.44871E+03  2.87659E+04
 -2.76747E+03  2.92430E+04 -1.86158E+04  1.75280E+04 -2.09568E+04  7.14671E+03 -1.62072E+04 -1.06226E+04
 -2.90993E+03 -6.55229E+03 -4.10706E+03 -2.95049E+03 -5.72365E+03  3.00427E+03 -2.28311E+03  2.81420E+03
 -1.34868E+04  7.09634E+02 -1.66830E+04 -1.34298E+04 -5.37823E+03 -1.61751E+04 -2.71089E+03 -8.56662E+03
  1.05525E+04 -8.02683E+03  9.75812E+03  4.12748E+03 -1.90993E+03  2.03837E+03 -1.20672E+03 -1.10601E+02
 -3.01407E+03 -1.28964E+04  4.55254E+02 -1.61859E+04  6.05300E+03 -1.62727E+04  2.26044E+04 -1.08997E+04
  2.38720E+04  1.53662E+03  1.34266E+04  1.03787E+04  1.84234E+03  1.14804E+04 -8.15919E+03  1.23550E+04
 -1.29074E+04  5.75231E+03 -8.31963E+03 -1.45029E+03  8.18160E+03 -9.82788E+03  6.72379E+03  2.02770E+03
  2.48202E+03  1.00577E+04  6.40070E+03  1.29613E+04 -5.18183E+03  1.48870E+04 -1.48245E+04 -5.14750E+03
 -8.50090E+03 -7.23055E+03  1.99015E+03 -1.13513E+04  2.72463E+03 -9.04660E+03  4.88650E+03  7.92443E+02
  6.40535E+03  5.22187E+03 -2.83238E+03  1.51080E+04 -1.00897E+04  5.38635E+03 -1.19124E+04 -6.36792E+03
 -1.17199E+04 -1.84390E+04  1.50999E+02 -1.68277E+04  1.66828E+04 -8.02049E+03  1.12829E+04  8.48730E+02
  1.17829E+04  1.36925E+04 -1.38817E+03  1.25637E+04 -7.87649E+03  6.96770E+03 -7.88087E+03 -2.53157E+03
 -7.67168E+02 -8.37411E+03 -4.68425E+03 -1.39826E+04  5.43134E+03 -9.70813E+03  6.43771E+03 -6.66766E+03
  6.46228E+03  1.31162E+03  2.57255E+03  2.90240E+02 -4.23747E+03  2.13306E+03  6.17975E+03 -9.61948E+03
  2.77782E+03 -8.87297E+03  1.79223E+04  6.86038E+03  1.39680E+04  9.73371E+03  6.36306E+03  1.52735E+04
 -7.79611E+03  2.20230E+04 -2.00070E+04  2.24293E+04 -1.70406E+04  7.53262E+03 -1.61059E+04 -1.15660E+04
 -5.95728E+03 -2.05268E+04  1.36748E+03 -9.68010E+03  6.95151E+03 -5.92575E+03  7.56700E+03 -6.68617E+03
  9.76385E+03 -5.33766E+03  5.04531E+03 -3.04690E+03  5.98557E+02 -5.80229E+03  1.07191E+04 -5.01796E+03
  9.08359E+03 -3.51419E+01  2.41321E+03  5.77542E+03 -4.29545E+03  1.40950E+04 -9.08903E+03  5.38378E+03
 -1.22014E+04 -5.48580E+03 -1.19015E+04 -1.09372E+04  1.15658E+03 -1.48334E+04  4.32103E+03 -1.64269E+04
  1.12741E+04 -4.00187E+03  1.80215E+04  4.02554E+03  9.24009E+03  1.10284E+04  3.29965E+02  9.81039E+03
 -1.37237E+04  1.03667E+04 -9.25222E+03  3.82960E+02 -1.41583E+03 -1.55944E+03  1.50500E+03 -4.29803E+03
 -4.21161E+02  1.05314E+03 -4.68736E+02  2.01580E+03 -7.02224E+03  4.52432E+02 -9.74987E+03  2.70394E+03
 -7.67685E+03 -1.04402E+04 -1.59789E+03 -8.13856E+03  7.65568E+03 -1.49813E+04  9.67937E+03 -3.30713E+03
  1.18957E+04  7.31215E+03  7.64478E+02  1.15052E+04 -1.99000E+02  1.16649E+04 -7.12353E+03  8.96908E+03
 -1.24516E+04  2.30778E+03 -8.50487E+03 -9.31895E+03 -1.36626E+03 -1.00440E+04  7.37167E+03 -1.39684E+04
  4.77001E+03  1.85832E+03  2.79636E+03 -1.25559E+03  8.81645E+03  9.45578E+03  7.39505E+03 -2.23511E+03
  1.21660E+03 -4.95167E+00  3.24327E+03  4.40677E+03  7.87229E+03  3.72170E+03  5.14795E+03  2.18359E+03
 -5.44377E+02  8.06986E+03 -7.81548E+03  6.19379E+03 -1.55175E+04 -2.49655E+03 -1.64154E+04 -3.09900E+03
 -3.79979E+03 -8.39740E+03  2.54852E+03 -1.50148E+04  6.81620E+03 -1.84224E+03  1.37667E+04  2.47846E+03
  4.12191E+03  3.33285E+03  1.18147E+03  5.20047E+03 -3.18291E+03  6.09389E+03 -3.93610E+03 -1.39033E+03
 -4.94979E+03 -2.45239E+03  4.76386E+03 -6.44264E+03  4.84831E+03 -6.21491E+03  1.28328E+04  4.48668E+03
  3.31271E+03  1.04192E+03  3.84001E+03  7.94791E+03 -2.90146E+03  2.86735E+03 -2.14400E+03 -2.99417E+03
  4.26094E+03 -1.06144E+03  5.30985E+03  1.90948E+03  6.62419E+03  6.33948E+03 -7.40735E+03  3.76153E+03
  1.32295E+03  1.09999E+04 -6.63904E+03  2.34657E+03 -6.24958E+03 -6.10765E+03 -5.08127E+03 -1.91609E+02
  6.24156E+03 -7.18158E+03  3.91852E+03 -4.48198E+02  1.86263E+03  2.47203E+03 -4.20667E+03  1.54324E+03
 -9.05784E+03 -3.97563E+03 -7.13389E+03 -7.50991E+03 -8.64637E+03 -1.13169E+04  2.29708E+03 -1.18397E+04
  7.38462E+03 -4.42286E+03  8.08679E+03  3.06402E+03  2.87138E+03 -3.47854E+03  2.57409E+03  6.46024E+03
 -2.00922E+03  8.93655E+03 -2.66426E+03 -7.31456E+03 -2.32106E+03 -6.69482E+03  1.34344E+03 -2.51934E+03
  9.03584E+03 -1.95520E+03  1.04323E+04  2.37482E+03  4.31888E+03  1.22952E+04 -4.62235E+03  1.01698E+04
 -4.83224E+03  4.58345E+03 -8.06053E+03 -3.21005E+03 -8.49842E+03 -9.80677E+02 -1.59869E+03 -3.70810E+03
  5.24284E+03 -2.52218E+03  2.08495E+03 -3.81450E+02 -1.30074E+03  2.66397E+03  2.16558E+03  1.48108E+03
 -2.79549E+03  1.74979E+03 -2.51089E+03 -3.72049E+03 -8.02048E+02  2.79450E+03 -3.28153E+03 -9.47374E+02
  8.11686E+02  6.99734E+03 -3.25252E+03 -2.15129E+03 -7.12680E+03  2.04172E+03 -8.18255E+03 -1.03460E+04
 -2.57959E+03 -1.25017E+04  2.45935E+03 -1.58588E+04  8.93267E+03 -1.23186E+04  1.03860E+04 -1.18254E+04
  9.96489E+03  1.80266E+02  1.10244E+04  4.63375E+03 -1.83658E+03  5.80718E+03 -1.03325E+04  5.56404E+03
 -2.02083E+03 -6.32518E+01 -3.62102E+03 -5.01317E+03 -1.62176E+02  2.61241E+03 -1.90664E+03 -3.37531E+02
  2.18473E+03  2.17465E+03  1.85780E+02  2.00040E+03 -3.71638E+03 -1.08539E+03  1.93933E+03 -1.03494E+03
  5.34155E+03 -1.37879E+03 -3.01514E+02  4.22521E+01  8.44675E+03  3.42875E+03  2.66130E+03  5.52988E+03
 -3.37096E+03  9.43299E+03 -9.97065E+03  3.85427E+03 -1.03713E+04 -3.21630E+03 -6.81112E+03 -1.07566E+04
  4.85039E+02 -9.24022E+03  1.86791E+03 -1.22234E+04  2.42743E+03 -8.85017E+03  7.29054E+03 -4.72308E+03
  2.63585E+03  5.75929E+03 -3.91568E+03  2.19955E+03 -3.46715E+03  1.64341E+03  1.66811E+03 -7.14093E+03
  2.70257E+03 -2.76234E+03  2.31601E+03  6.36092E+02  4.07967E+03 -1.43439E+03  1.60437E+03  7.78585E+03
 -2.61069E+03  4.96308E+03 -1.32686E+03  4.14885E+03 -5.77873E+03 -6.90530E+03 -2.82426E+03 -9.42450E+03
  4.83291E+03 -7.35430E+03  2.72078E+03 -5.66832E+03  8.98564E+03 -1.65569E+03  6.85183E+03  2.42045E+03
  1.92820E+03  5.28895E+03 -4.29883E+03  9.15483E+03 -5.75670E+03 -6.58465E+02  1.75209E+02 -9.35511E+02
  4.74194E+03  1.42474E+02 -5.04550E+03  1.18867E+03 -5.54950E+03  1.60047E+03  8.27108E+02  4.00055E+03
 -5.15893E+03 -5.33450E+03  4.90112E+02 -9.72671E+03 -1.61150E+02 -9.26365E+03  8.04555E+03 -3.51734E+03
  6.56507E+02  2.74711E+03  2.53504E+03  4.22334E+03 -3.72474E+03  3.52458E+03 -7.84282E+03  7.93555E+03
