 $NMID ID='MM_0lb_SNR50_13hz_g45_95.RAW', FMTDAT='(8E13.5)'
 TRAMP=1., VOLUME=1. $END
  3.08998E+05 -1.41343E+03  3.39013E+05  2.49554E+05  8.60674E+04  3.37413E+05 -1.32323E+05  2.50603E+05
 -1.87568E+05  7.94402E+04 -1.07770E+05 -3.19424E+04  2.00627E+03 -5.44377E+04  5.09425E+04  6.30892E+02
  3.31436E+04  4.88688E+04 -1.43749E+04  7.77963E+04 -6.25571E+04  6.15393E+04 -8.41717E+04  3.55039E+04
 -8.28786E+04 -9.91269E+03 -6.14292E+04 -5.03195E+04 -1.35255E+04 -7.00633E+04  2.58147E+04 -4.16571E+04
  4.28687E+04  6.20226E+02  1.74134E+04  4.95387E+04 -2.79091E+04  5.01549E+04 -6.40420E+04  2.01492E+03
 -5.40326E+04 -5.52595E+04 -1.22443E+04 -7.74658E+04  3.58464E+04 -5.25741E+04  4.75253E+04 -1.63548E+04
  4.46854E+04  1.20118E+04  3.46239E+04  2.88572E+04  1.66261E+04  2.72657E+04 -4.36852E+03  2.68433E+04
 -2.09111E+04  1.05244E+04 -1.78136E+04 -3.37805E+03  6.04639E+03 -7.90213E+03  2.02827E+04  1.26809E+04
  1.18627E+04  3.84069E+04 -2.66315E+04  3.80885E+04 -6.51965E+04  1.61386E+03 -6.04909E+04 -4.48945E+04
 -1.21089E+04 -6.12695E+04  4.41096E+04 -4.46997E+04  6.10192E+04 -2.48435E+03  3.36061E+04  2.58476E+04
 -8.29421E+03  3.65304E+04 -3.66206E+04  1.72854E+04 -2.62226E+04 -4.50868E+03 -1.19838E+04 -8.57556E+03
 -7.71142E+03 -1.62369E+04 -4.37281E+03 -1.73889E+04  8.54494E+03 -2.05952E+04  1.80777E+04 -1.41297E+04
  1.15661E+04  1.10416E+04 -1.11914E+04  1.25915E+04 -2.16066E+04 -2.85158E+03 -1.05412E+04 -3.54398E+04
  2.53043E+04 -4.45379E+04  4.75499E+04 -2.04037E+04  4.76381E+04  2.55863E+04  1.42185E+04  4.03309E+04
 -1.38281E+04  3.43347E+04 -2.62693E+04  1.92558E+03 -1.21148E+04 -2.98925E+04  2.04280E+04 -3.50007E+04
  3.28543E+04 -6.35022E+03  3.37452E+04  2.49667E+04  1.95564E+04  4.68569E+04 -1.08079E+04  4.53105E+04
 -3.19382E+04  3.44094E+04 -4.61287E+04  1.03235E+04 -4.26623E+04 -1.87635E+04 -2.38581E+04 -4.13049E+04
  4.37622E+03 -3.77056E+04  3.39005E+04 -1.59342E+04  2.94448E+04  1.03037E+04  5.75596E+01  1.67711E+04
 -1.82468E+04  1.36947E+04 -6.38914E+03 -8.55783E+03  5.58114E+03 -8.43922E+03  1.25512E+04  7.77908E+03
  1.47140E+04  2.45661E+04 -6.28568E+03  2.06777E+04 -2.48548E+04  1.36139E+04 -3.16638E+04  1.02287E+03
 -2.61632E+04 -1.69931E+04 -7.25637E+03 -2.61459E+04 -4.00393E+01 -1.99066E+04  1.40600E+04 -1.74112E+04
  2.51440E+04 -8.39667E+03  2.93024E+04  6.04068E+03  2.02397E+04  1.90841E+04  5.38029E+03  3.75193E+04
 -2.28478E+04  3.39176E+04 -2.65699E+04  1.22203E+04 -2.26328E+04 -1.02155E+04 -3.85679E+03 -1.37314E+04
  3.57787E+03  2.33486E+03 -5.73787E+03  8.19651E+03 -1.76399E+04  1.17402E+03 -1.55072E+04 -8.11342E+03
 -1.17569E+04 -2.19485E+04  1.73029E+03 -2.00777E+04  1.45891E+04 -1.45568E+04  1.75328E+04 -1.34138E+03
  9.32883E+03  1.51141E+04  8.11085E+02  1.97209E+04 -1.20045E+04  1.08507E+04 -1.92039E+04 -2.21180E+03
 -1.34299E+04 -1.38186E+04 -2.57703E+02 -2.46668E+04  1.01757E+04 -1.87718E+04  1.84562E+04 -1.11204E+04
  1.27725E+04 -4.99580E+02  5.35198E+03  1.05776E+04  5.95637E+03 -9.14643E+02  5.11343E+03 -1.72056E+03
  1.98180E+04  3.12942E+03  2.16504E+04  1.09873E+04  1.58412E+04  2.88195E+04 -9.76500E+02  3.47575E+04
 -1.86594E+04  3.09636E+04 -3.35893E+04  1.46524E+04 -3.90454E+04 -1.27378E+03 -2.86118E+04 -1.88821E+04
 -1.23964E+04 -2.82310E+04  9.80121E+03 -2.39857E+04  2.00071E+04 -1.12872E+04  1.64796E+04  1.17526E+04
  8.50939E+03  1.48704E+04 -8.88309E+03  1.25991E+04 -1.28486E+04  4.40701E+03 -1.28405E+04 -1.48368E+04
 -4.82494E+03 -1.02549E+04  9.37135E+03 -1.32935E+04  1.22872E+04 -7.82830E+03  1.60485E+03  3.85277E+03
 -8.03995E+03 -4.33285E+03 -5.38657E+03 -7.08349E+03 -1.57537E+03 -1.37677E+04  8.02531E+03 -1.12069E+04
  1.69908E+04 -7.99422E+03  1.98852E+04  9.18630E+03  1.80622E+04  1.40729E+04  1.00900E+04  2.18431E+04
 -4.46976E+03  2.12048E+04 -1.17712E+04  1.18994E+04 -2.01822E+04  1.89378E+02 -1.30394E+04 -4.54168E+03
 -4.77386E+03 -5.06191E+03  1.47259E+03 -1.22933E+03 -3.68080E+03  9.21263E+01 -7.33734E+03  7.24930E+03
 -1.00813E+04 -1.49832E+03 -1.67082E+04 -5.44746E+03 -6.81532E+03 -1.61880E+04  5.13232E+03 -1.15446E+04
  1.58634E+04 -1.09625E+04  5.89610E+03  5.18808E+03 -5.77261E+03  6.94736E+03 -2.79862E+03 -1.59325E+03
 -1.37426E+03 -1.14515E+04  5.36776E+03 -1.18298E+04  9.04524E+03 -1.57625E+04  1.35699E+04 -6.95119E+03
  1.29121E+04  7.60543E+02  1.77423E+04  1.15070E+04  2.39226E+03  1.15805E+04 -4.93379E+03  8.91782E+03
 -1.02877E+04  7.08864E+03 -8.40182E+03 -5.32123E+03  2.03312E+03 -3.68664E+03  1.21637E+04 -8.61914E+02
  1.78054E+03  4.44921E+03  3.33736E+03  7.88314E+03 -4.65077E+03  4.73837E+03 -1.22266E+04  2.81182E+03
 -8.91111E+03 -6.05851E+03 -1.35148E+03 -1.15531E+04  7.72166E+03 -1.10553E+04  5.20620E+03  8.45889E+03
  2.41195E+03  4.76819E+03 -4.53581E+03  9.20837E+03 -1.03194E+04  4.44974E+03 -7.97917E+03  3.11955E+03
 -3.42341E+03 -4.98540E+03  4.44036E+03 -9.42375E+03  1.35759E+04 -7.52072E+03  1.06933E+04  2.06695E+03
  9.77467E+03  8.44262E+03 -6.96459E+02  9.37642E+03 -1.08880E+04  8.06680E+03 -1.22819E+04  1.70360E+03
 -9.70638E+03 -7.48802E+03 -5.40954E+02 -7.04531E+03  3.58176E+03 -3.58829E+03  7.54915E+03 -5.03156E+03
  5.92892E+03  2.81121E+03  5.60257E+03 -2.64896E+03  5.79807E+03 -1.41791E+03 -3.10207E+03 -1.11708E+03
  5.76525E+03 -1.72495E+03  1.06487E+04  1.97732E+03  1.61572E+04  8.41046E+03  3.39382E+03  1.26824E+04
 -2.98443E+03  1.57279E+04 -1.44192E+04  1.07505E+04 -1.78655E+04  1.49092E+03 -1.59360E+04 -6.21846E+03
 -4.65674E+03 -1.27690E+04 -2.39517E+03 -7.98408E+03  3.94187E+03 -7.65751E+03  5.63877E+03 -4.42905E+03
  8.93326E+03 -5.53531E+03 -1.86491E+03 -4.83502E+03  2.72708E+03  1.54641E+03  1.01960E+04  2.95093E+03
  7.66191E+03  1.73689E+03  1.73993E+03  9.38661E+03 -1.90301E+03  7.54520E+03 -7.16904E+03  7.49732E+03
 -6.49423E+03 -6.09843E+03 -3.58423E+03 -3.22502E+03 -2.44567E+03 -9.57457E+03  4.90374E+03 -1.02522E+04
  1.10540E+04 -9.47027E+03  7.84584E+03 -1.60178E+03  1.20173E+04  1.27328E+04  3.62935E+03  1.14517E+04
 -3.58764E+03  1.20533E+04 -8.78067E+03 -1.34349E+03 -2.67216E+03 -5.09258E+03  4.03174E+03 -1.96494E+03
 -1.49714E+03 -4.41179E+03  8.98077E+02  2.18623E+03 -6.14809E+03  2.86300E+03 -6.45092E+03 -4.34853E+03
 -1.08271E+04 -7.33480E+03 -3.65304E+03 -1.18006E+04  4.98294E+03 -9.35904E+03  1.01158E+04 -1.10704E+03
  9.09539E+03  3.05973E+03  9.68429E+02  5.10870E+03 -7.84444E+02  5.99448E+03 -4.38803E+03  1.78172E+03
 -1.04213E+04  7.15087E+03 -3.13558E+03 -4.52080E+03  3.18010E+03 -9.53488E+03  6.67114E+03 -6.69640E+03
  1.12433E+04 -3.59552E+03  5.47296E+03  3.22251E+03  3.89849E+03 -6.80631E+02  3.59096E+03  8.98031E+02
 -8.48586E+02 -1.18138E+03  5.08152E+03  7.14589E+02  1.97007E+03  5.38460E+03  1.61535E+03  2.00461E+03
  1.75560E+03 -6.85959E+02 -8.63432E+03  1.01429E+04 -9.55998E+03  6.65578E+03 -6.45570E+03  9.81259E+02
 -5.28994E+03 -5.95119E+03 -5.09164E+02 -9.65011E+03  3.97509E+03 -9.28391E+03  6.94075E+03  1.82391E+02
  4.18222E+03  3.82153E+03 -4.17561E+02  5.12287E+03 -5.55783E+03  5.60075E+03 -8.01149E+03 -2.72949E+03
 -5.54921E+03 -2.74641E+03  3.14027E+03 -4.95915E+03  8.74653E+03 -8.38226E+02  1.64304E+03  1.28199E+02
  3.14684E+03  1.07632E+03 -3.16178E+03 -4.90356E+02 -1.93058E+03  1.24648E+03 -2.38479E+03 -1.48070E+03
  2.64240E+03  1.84516E+03  5.85445E+03  4.04048E+03 -1.03161E+03  4.93180E+03 -9.43936E+02  8.96635E+03
 -5.56670E+03  5.30370E+03 -4.39018E+03  3.13574E+03 -1.48596E+02 -2.78704E+03 -1.32978E+03 -1.87500E+03
  3.44710E+03  7.94595E+02  7.70590E+03 -1.17438E+03  7.43519E+02  2.71237E+03 -2.02255E+03  1.63014E+03
 -5.81072E+03  6.42911E+03 -2.08462E+03 -3.07088E+03 -4.22699E+03 -3.98715E+03 -1.16472E+03 -3.81384E+03
  2.97483E+03 -9.04238E+03  1.09254E+03  2.93403E+02 -1.79677E+02 -2.03529E+03  5.01597E+02  2.82328E+03
  8.09642E+02  2.95589E+03  9.79543E+02  2.78877E+03  2.06823E+02 -4.50317E+03  5.36621E+03  2.36601E+03
  2.40136E+03 -1.31032E+03  1.64021E+02  6.89990E+03  5.39480E+03  2.21862E+03 -7.21185E+03 -1.51861E+03
 -5.29487E+03  2.53202E+03 -5.38877E+03 -4.50519E+03 -2.68333E+03 -7.07471E+03  1.72824E+03 -2.80034E+03
  9.02046E+03  3.36296E+03  6.21705E+03  3.28154E+02  6.60990E+02  8.25308E+02  1.46416E+03  2.39496E+03
 -4.76939E+03  6.04253E+03 -3.54948E+03 -8.42139E+02 -1.83691E+03  2.90413E+03  1.93346E+03  1.30099E+03
  1.45381E+02  6.80989E+02 -6.71091E+03 -7.89052E+02 -7.19029E+03 -4.01575E+03 -5.64731E+03 -1.43967E+03
 -1.29531E+02 -2.29395E+03  4.31570E+03 -1.81096E+03  2.84679E+03 -2.39839E+03  5.64125E+03 -4.50107E+03
  7.35820E+03  1.64004E+02  1.69031E+03  5.09634E+03  1.65283E+03  5.80567E+03  3.24990E+03  4.42706E+03
 -6.01125E+03  4.54881E+03  3.07039E+03 -3.09048E+03  1.90870E+03 -4.89453E+03 -2.66628E+03  3.16660E+02
  2.25148E+02 -6.21755E+03 -4.44039E+03 -3.54195E+03 -2.97259E+03 -2.36996E+03 -2.08392E+02 -3.69977E+02
  3.25766E+03 -1.97695E+03  5.40527E+03  3.23570E+03  4.61088E+03  9.01645E+02  7.15130E+03  1.13704E+03
  1.95624E+03  1.11376E+04 -3.76656E+03  2.46813E+03 -7.21502E+03 -4.42741E+03 -9.45303E+03 -2.44128E+03
 -1.58810E+03 -3.10387E+03 -6.54817E+02 -7.89497E+03  1.09330E+03 -4.32033E+03  1.64205E+03  4.97130E+03
  5.69295E+03 -4.86341E+01  3.69024E+03  3.78455E+03 -6.43286E+03 -7.74475E+01 -4.01318E+03 -8.49540E+02
  4.65121E+03  2.57985E+03  1.17863E+03  2.90775E+03  1.67900E+03  2.61348E+03 -1.11277E+03  4.62071E+03
 -4.07233E+03  2.95733E+03 -5.66433E+03  3.07544E+02 -2.20879E+03 -2.72652E+03 -6.19497E+03 -2.81541E+03
  3.97772E+02  4.11303E+02 -7.56610E+02  1.54567E+03  1.58688E+03  3.97082E+03  2.57894E+03 -3.42621E+03
  1.86517E+03  7.64110E+03  3.48484E+03  2.93951E+03 -2.53152E+03 -3.73920E+03 -3.31073E+03  1.52353E+03
 -1.11453E+03  6.68316E+02  1.51979E+03  1.66190E+02 -6.19744E+02  2.93526E+03 -4.29382E+03  6.51601E+02
  1.85417E+02  3.25125E+03  5.58463E+02  6.66462E+02 -7.40679E+02  1.46576E+01  3.81504E+03 -4.35377E+03
  1.02272E+03  1.88742E+03  2.32325E+02  3.89348E+03 -1.92699E+02  3.54142E+03 -2.97748E+02 -3.17991E+03
