 $NMID ID='MM_0lb_SNR50_10hz_g45_55.RAW', FMTDAT='(8E13.5)'
 TRAMP=1., VOLUME=1. $END
  3.09231E+05 -1.57947E+03  3.32813E+05  2.49528E+05  8.50845E+04  3.40596E+05 -1.33677E+05  2.55441E+05
 -1.91989E+05  8.44374E+04 -1.07040E+05 -3.16099E+04 -2.21751E+03 -4.60433E+04  5.80997E+04  2.20501E+03
  3.00065E+04  4.97641E+04 -1.76301E+04  7.34012E+04 -5.82957E+04  6.97228E+04 -8.68589E+04  3.35694E+04
 -7.82357E+04 -1.13114E+04 -5.88233E+04 -5.59839E+04 -1.49323E+04 -6.72661E+04  2.45478E+04 -5.22186E+04
  4.03639E+04 -1.71863E+03  1.81210E+04  4.93729E+04 -3.24840E+04  4.73362E+04 -7.12027E+04 -3.49885E+02
 -5.16826E+04 -5.77256E+04 -6.60867E+03 -8.24611E+04  2.96220E+04 -5.75721E+04  4.94654E+04 -1.17098E+04
  4.47586E+04  7.76522E+03  3.49072E+04  2.92207E+04  1.81485E+04  2.70924E+04 -3.59468E+03  2.90836E+04
 -2.15819E+04  1.25424E+04 -1.96560E+04  8.27178E+02  2.15232E+03 -1.03524E+04  2.15164E+04  1.73017E+04
  1.13480E+04  3.63707E+04 -3.37564E+04  3.20513E+04 -6.67234E+04  1.97692E+03 -6.19660E+04 -4.73537E+04
 -1.31386E+04 -6.71922E+04  4.43795E+04 -4.93498E+04  6.21075E+04  2.58608E+03  3.40056E+04  3.55397E+04
 -8.29676E+03  3.87823E+04 -3.60538E+04  2.28842E+04 -3.71749E+04 -3.33023E+03 -1.29846E+04 -1.47630E+04
 -1.07239E+04 -1.33892E+04 -1.45151E+03 -1.79085E+04  8.10872E+03 -2.78349E+04  1.49574E+04 -1.44010E+04
  9.24461E+03  6.81771E+03 -8.09551E+03  6.84944E+03 -2.87502E+04 -9.94709E+03 -1.13163E+04 -3.29888E+04
  2.66203E+04 -4.60962E+04  4.87508E+04 -2.08923E+04  4.53532E+04  2.65144E+04  1.58151E+04  4.59413E+04
 -1.55501E+04  3.40751E+04 -2.17486E+04  2.31079E+03 -1.17186E+04 -2.75000E+04  1.94758E+04 -3.16940E+04
  4.37920E+04 -9.02250E+03  3.55396E+04  2.34064E+04  1.92105E+04  5.14422E+04 -1.18731E+04  5.80218E+04
 -3.29906E+04  3.93241E+04 -4.54161E+04  1.21612E+04 -4.66915E+04 -1.16007E+04 -3.36124E+04 -3.94330E+04
  8.69552E+03 -4.24573E+04  3.41950E+04 -1.82645E+04  2.99000E+04  7.60429E+03  2.56465E+03  2.45399E+04
 -1.04039E+04  5.89692E+03 -9.52106E+03 -1.02390E+04 -7.45769E+02 -1.22772E+04  1.67514E+04  8.07695E+03
  1.82969E+04  2.28063E+04 -6.57866E+03  2.65182E+04 -2.53288E+04  9.34259E+03 -3.13217E+04 -2.04157E+03
 -1.99352E+04 -1.93031E+04 -1.30655E+04 -2.01753E+04  3.75631E+03 -2.52692E+04  1.48327E+04 -1.86329E+04
  3.09117E+04 -1.24962E+04  3.89751E+04  4.35938E+03  2.64185E+04  2.48199E+04  9.07609E+03  4.40204E+04
 -1.98348E+04  2.82457E+04 -2.71718E+04  1.52391E+04 -2.09255E+04 -1.09151E+04 -5.63827E+03 -6.92429E+03
  2.08837E+03 -4.82112E+03 -5.01479E+03  9.65194E+03 -2.76005E+04  9.49077E+03 -1.74085E+04 -8.04201E+03
 -3.88394E+03 -2.34292E+04  5.87994E+03 -2.30431E+04  1.89548E+04 -1.66817E+04  2.49664E+04  9.14020E+02
  1.60022E+04  8.97167E+03 -5.30885E+03  2.31251E+04 -1.43027E+04  1.09518E+04 -2.56520E+04 -1.37323E+04
 -1.70186E+04 -2.18018E+04 -5.85135E+03 -2.16327E+04  1.44939E+04 -2.59852E+04  2.18205E+04 -1.28274E+04
  2.05639E+04  5.02657E+02  1.30942E+04  9.61702E+03  6.12488E+03  5.19550E+03  1.01070E+04 -6.57105E+03
  1.82953E+04  1.43854E+03  2.60306E+04  1.66768E+04  1.90240E+04  2.89694E+04 -5.89107E+03  3.85750E+04
 -1.90131E+04  3.94703E+04 -3.56156E+04  1.58359E+04 -4.35646E+04 -3.35975E+03 -3.74639E+04 -2.91384E+04
 -1.60972E+04 -3.10437E+04  1.51030E+04 -2.92754E+04  2.70668E+04 -1.78126E+04  2.95611E+04  2.08601E+03
  1.29968E+04  8.68322E+03 -1.33363E+04  1.41872E+04 -1.90230E+04  1.89715E+03 -1.51928E+04 -1.60585E+04
  6.77344E+03 -1.56615E+04  1.24643E+04 -1.13416E+04  1.54678E+04 -8.62304E+01 -4.27135E+02  8.11091E+03
 -6.37184E+03  6.13792E+03 -1.31367E+04 -6.02352E+03 -2.42200E+03 -1.65665E+04  6.93653E+03 -1.54958E+04
  2.66845E+04 -1.68530E+04  3.05150E+04  3.32057E+03  2.38877E+04  1.74489E+04  9.39093E+03  2.55377E+04
 -2.39076E+03  2.81932E+04 -1.98694E+04  1.96575E+04 -2.29865E+04  5.44164E+03 -1.54808E+04 -1.12276E+04
 -9.05930E+03 -6.64241E+03 -6.10230E+03 -2.58671E+03  3.61395E+03 -5.23902E+02 -6.59342E+03  6.21672E+03
 -1.76359E+04  2.23880E+03 -1.56827E+04 -7.35957E+03  8.90202E+02 -1.55968E+04  7.64085E+03 -1.26683E+04
  4.54179E+03 -1.16839E+04  1.14985E+04  5.35254E+03 -5.05715E+03  5.59138E+03 -8.55165E+03  3.06626E+03
 -1.20471E+04 -9.29589E+03 -9.13674E+01 -1.22127E+04  6.93056E+03 -1.46907E+04  1.55864E+04 -8.22746E+03
  2.48879E+04  3.09452E+03  1.39861E+04  1.00496E+04  3.55058E+03  1.77516E+04 -1.72290E+04  1.60859E+04
 -1.13611E+04  5.91556E+03 -6.04087E+03 -4.54842E+03  5.34812E+03 -8.46283E+03  7.16926E+03 -1.00373E+03
  7.51509E+03  4.48087E+03  2.29957E+03  1.23341E+04 -3.09147E+03  1.83791E+04 -1.10593E+04 -3.16447E+02
 -1.09998E+04 -1.11945E+04 -2.91290E+03 -1.34623E+04  6.56468E+03 -1.94640E+03  8.55410E+03  2.38977E+03
  1.38309E+03  6.79783E+03 -5.15082E+03  1.48109E+04 -1.35981E+04  2.12398E+03 -1.73498E+04 -3.97647E+03
 -4.63657E+03 -1.39201E+04  1.08567E+03 -1.81292E+04  1.12446E+04 -1.01209E+04  1.87019E+04  7.51813E+03
  1.59514E+04  1.42985E+04  3.42798E+03  1.71083E+04 -1.24984E+04  8.36672E+03 -1.30363E+04 -3.57840E+03
 -1.47149E+04 -1.05947E+04 -1.66483E+03 -1.73046E+04  1.18216E+04 -2.02214E+04  7.12816E+03 -4.99953E+03
  7.29514E+03 -1.13679E+03  1.93396E+03  1.42869E+03 -2.54899E+03 -2.49472E+03  3.82108E+03 -9.58111E+03
  6.81450E+03 -9.58865E+03  1.16378E+04 -1.86689E+02  1.01365E+04  1.44273E+04  1.58213E+04  1.60761E+04
 -9.22046E+03  2.00968E+04 -1.67411E+04  1.13514E+04 -2.32419E+04  4.33802E+03 -1.92292E+04 -6.89214E+03
 -1.42604E+04 -1.63392E+04 -2.22119E+03 -1.22755E+04  6.60550E+03 -8.36360E+03  5.16979E+03 -7.51059E+02
  2.11590E+03 -3.01303E+03  9.05899E+03  2.73669E+03 -4.09808E+02 -2.53600E+03  5.62241E+03 -6.38945E+03
  9.18869E+03 -7.77097E+02  5.07349E+02  1.02175E+04  3.32278E+02  1.27853E+04 -4.73908E+03  4.69133E+03
 -1.29740E+04 -8.70078E+03 -8.77213E+03 -4.62783E+03 -2.40094E+03 -1.58166E+04  1.24476E+04 -1.83925E+04
  1.03928E+04 -1.02972E+04  1.75128E+04  8.90030E+03  1.04822E+04  1.25120E+04 -5.12023E+03  1.24821E+04
 -7.18247E+03  1.42999E+04 -9.02856E+03  5.34179E+03 -6.20502E+03 -3.40606E+02  4.77389E+02  1.10265E+01
 -1.05992E+02 -2.29946E+03 -1.89285E+03  3.39253E+03 -7.28901E+03  3.12064E+03 -1.21363E+04 -4.70882E+03
 -1.20800E+04 -1.05470E+04 -6.06556E+03 -9.47982E+03  6.77086E+03 -1.30402E+04  1.07347E+04 -1.76302E+03
  1.04268E+04  3.84402E+03  3.07193E+03  1.21211E+04  1.07176E+03  1.03584E+04 -1.29216E+04  1.11619E+04
 -8.46422E+03  2.17557E+03 -1.27450E+04 -1.24109E+04  4.03709E+02 -1.00984E+04  3.53117E+03 -1.02151E+04
  7.44142E+03 -3.77103E+03  3.95884E+03  1.32632E+03  6.13538E+03 -4.17324E+02 -8.77566E+02 -1.33200E+03
  3.07174E+03 -1.90498E+03  8.65108E+03  1.65669E+03  1.43025E+04  4.09711E+03  7.61512E+03  1.49854E+04
 -5.15457E+03  9.50904E+03 -6.30359E+03  9.32124E+03 -9.00271E+03  6.11208E+03 -1.04092E+04 -7.41487E+03
 -5.05078E+03 -1.13395E+04  1.97521E+03 -5.85315E+03  1.10589E+04 -9.97771E+03  1.33607E+04 -3.15444E+01
  1.07685E+04  2.48231E+03  1.73593E+03  3.99314E+03 -1.00711E+04  7.41077E+03 -2.00811E+03  4.40989E+03
 -9.45599E+02 -4.28420E+03  4.83917E+03 -3.47329E+03  1.11591E+04 -4.54388E+03  6.16967E+03  2.32613E+03
 -2.26726E+01  8.91359E+03  3.04743E+03  6.51785E+03  1.69079E+03 -3.64496E+02 -4.39439E+03 -2.85724E+03
 -4.48746E+03  1.26453E+02  6.31518E+03  1.95347E+03  9.39289E+03  5.17709E+03 -7.15349E+03  4.21201E+03
 -2.43999E+03  4.20793E+03 -3.68788E+03  5.80813E+03 -4.80926E+03 -1.94048E+03 -1.80361E+02 -7.19036E+03
 -7.47326E+02  1.68344E+03  4.81682E+03 -4.41514E+03  1.52053E+03  3.81576E+03  2.77717E+03  2.09993E+03
 -4.64400E+03  5.14097E+03 -6.28973E+03 -1.23593E+03  1.06276E+03 -5.81797E+03 -1.72026E+03 -5.77117E+03
  2.46051E+03 -7.83714E+03  3.36286E+03 -6.06600E+01 -2.64363E+03 -3.53142E+03 -5.88703E-01  2.10803E+03
  3.03616E+03  5.71478E+03 -1.82080E+03 -2.72335E+03  5.01486E+03 -6.71686E+03  3.12553E+03 -1.11353E+04
  1.00055E+04  1.72525E+03  2.51737E+03  3.72391E+03  3.68394E+02  8.07063E+03  4.97851E+03  1.19451E+04
 -4.31815E+03  4.33237E+03 -7.65959E+03 -2.45625E+03 -4.75272E+03 -9.71581E+02  3.77637E+03 -3.15855E+03
  5.91712E+03 -1.83367E+03  2.47239E+03 -5.59229E+02  4.44778E+03  6.54048E+03 -1.15974E+03  3.73120E+03
 -2.00442E+03  4.83875E+02 -1.32129E+03 -2.48296E+02 -1.47926E+03  1.76853E+03 -4.45079E+03  2.22051E+03
 -6.67720E+03  6.53462E+02 -7.73313E+03  7.56247E+03 -4.83459E+03 -5.81574E+03 -1.49398E+04 -5.99950E+03
 -2.73131E+03 -1.20945E+04 -1.24112E+03 -1.30769E+04  7.84175E+03 -1.09205E+04  1.15791E+04  1.05533E+03
  4.88267E+03  4.13116E+03 -1.17786E+03  1.35686E+03  4.72258E+03  1.23041E+04 -2.49214E+03  7.86401E+03
  1.94307E+03  6.63945E+03 -1.52627E+03 -3.46056E+03 -3.90967E+03 -3.47915E+03 -2.02606E+03  1.10571E+03
  9.12397E+01  8.88574E+03  9.08326E+01 -2.97237E+03 -3.20616E+03 -9.82251E+02  2.61477E+02 -5.54672E+03
  9.62060E+03 -1.77337E+03  7.40310E+03 -2.13935E+02  6.09809E+03  3.42754E+03  3.14978E+03  7.88315E+03
  1.55397E+03  5.63131E+03 -7.33685E+03  1.06343E+04 -1.07679E+04 -6.61576E+03 -1.15311E+04 -5.68331E+03
 -4.49054E+03 -2.27129E+03  3.59827E+03 -8.46538E+02  2.94977E+02 -2.51595E+03  6.83122E+03  2.66671E+03
  7.57477E+03  7.50213E+03  8.78887E+02  5.40840E+03 -4.20922E+03 -3.48764E+03  2.44949E+03  1.77811E+03
  5.70456E+03 -2.37268E+02 -6.44594E+02 -2.26930E+03 -2.61552E+03  9.07195E+03 -5.55701E+03 -2.28008E+03
 -4.37778E+03  8.38648E+02 -6.73120E+03 -2.58876E+03 -3.90484E+03 -5.66334E+03 -1.89030E+02 -5.17945E+03
  9.09577E+03 -4.38205E+03  8.04215E+03 -6.19387E+03  6.25743E+03  2.56286E+03 -1.76292E+03  7.28610E+03
 -3.92920E+03 -2.51865E+03  2.85031E+03  4.74820E+03 -7.02617E+03  5.91685E+03  1.42094E+03  1.10381E+03
 -6.79587E+03 -3.25919E+03 -5.05965E+03  8.26433E+02 -6.11110E+03 -3.82494E+03 -1.18018E+04 -7.34370E+03
 -3.17402E+03 -2.87199E+03 -1.38327E+03 -3.96793E+03 -4.24808E+03 -9.03402E+03  3.69029E+03 -8.37869E+03
  4.60133E+03 -3.35096E+03  3.03420E+03  6.43757E+03 -3.26363E+03  8.69849E+03 -1.32034E+03 -1.43506E+03
