 $NMID ID='MM_0lb_SNR50_8hz_g55_24.RAW', FMTDAT='(8E13.5)'
 TRAMP=1., VOLUME=1. $END
  3.13868E+05  3.71287E+03  3.36748E+05  2.54966E+05  8.05663E+04  3.36788E+05 -1.35771E+05  2.58932E+05
 -1.91644E+05  7.78377E+04 -1.08032E+05 -3.26736E+04 -7.95953E+02 -5.29280E+04  5.71137E+04 -1.46849E+03
  3.47435E+04  4.75628E+04 -1.70446E+04  7.81381E+04 -6.53376E+04  6.48299E+04 -8.54833E+04  2.92023E+04
 -8.02515E+04 -1.13423E+04 -6.16278E+04 -5.15334E+04 -1.62820E+04 -7.38570E+04  3.19651E+04 -4.80019E+04
  4.43199E+04  7.28022E+03  1.76577E+04  5.26759E+04 -3.38023E+04  5.32246E+04 -7.01545E+04  1.19158E+03
 -5.18979E+04 -5.59805E+04 -6.66057E+03 -7.59435E+04  3.59368E+04 -5.95212E+04  4.92531E+04 -1.84508E+04
  4.51928E+04  8.62334E+03  3.01942E+04  2.35108E+04  1.31501E+04  2.88580E+04 -4.21779E+03  2.97353E+04
 -2.24011E+04  1.40736E+04 -2.06754E+04 -7.62744E+03  1.49450E+04  3.80259E+02  2.83368E+04  1.49956E+04
 -2.24584E+03  3.54726E+04 -2.95997E+04  3.85390E+04 -6.90586E+04  1.96288E+03 -5.45005E+04 -4.86645E+04
 -6.34975E+03 -6.56024E+04  4.40486E+04 -4.41720E+04  6.38711E+04 -4.63803E+03  4.19672E+04  3.88710E+04
 -9.67142E+03  3.26664E+04 -3.11323E+04  2.64941E+04 -3.86240E+04 -2.91553E+03 -1.62810E+04 -1.62175E+04
 -5.41913E+03 -1.06908E+04 -8.57658E+03 -1.88738E+04  1.20723E+04 -2.59811E+04  2.45436E+04 -1.24465E+04
  1.22977E+04  1.21345E+04 -1.28100E+04  1.34049E+04 -2.43335E+04 -5.51457E+03 -8.25120E+03 -4.16116E+04
  2.40821E+04 -4.59042E+04  5.52147E+04 -1.19424E+04  4.72830E+04  2.30259E+04  1.89204E+04  4.96899E+04
 -1.58259E+04  3.62010E+04 -2.86006E+04  6.38875E+03 -1.92569E+04 -3.30164E+04  1.88639E+04 -3.80207E+04
  5.05659E+04 -7.28324E+03  3.53952E+04  2.55506E+04  2.37472E+04  5.23739E+04 -4.79129E+03  5.39782E+04
 -3.61394E+04  3.85091E+04 -4.78603E+04  1.63425E+04 -4.48961E+04 -1.59501E+04 -2.93491E+04 -4.36369E+04
  2.04307E+03 -4.43766E+04  2.70732E+04 -2.08196E+04  3.25428E+04  1.54020E+04  1.12172E+04  2.12010E+04
 -1.45458E+04  1.00022E+04 -1.37007E+04 -6.26107E+03  6.34921E+03 -1.16035E+04  2.36255E+04  7.93905E+03
  1.28176E+04  1.87508E+04 -5.53772E+03  3.26003E+04 -2.98748E+04  1.86636E+04 -3.39689E+04 -9.68967E+02
 -2.66415E+04 -1.79398E+04 -6.55687E+03 -2.68882E+04 -7.87809E+02 -2.80557E+04  2.50642E+04 -2.20830E+04
  3.79299E+04 -1.89379E+04  4.56490E+04  5.40871E+03  2.64219E+04  2.86345E+04  5.12553E+03  4.42719E+04
 -1.80201E+04  2.79097E+04 -3.07729E+04  1.43445E+04 -2.22515E+04 -7.15630E+03 -1.20157E+03 -1.16701E+04
 -4.26440E+03  4.33327E+02 -1.03142E+04  5.02344E+03 -2.16705E+04  8.16166E+02 -2.06679E+04 -1.02091E+04
 -1.22627E+04 -2.60423E+04  7.91263E+03 -3.28999E+04  2.15273E+04 -1.77963E+04  2.53421E+04 -1.34300E+03
  1.88222E+04  2.25025E+04  2.59732E+03  2.80491E+04 -9.28970E+03  1.53231E+04 -2.64356E+04 -5.14664E+03
 -1.14771E+04 -2.24483E+04 -3.39403E+03 -3.33294E+04  1.85598E+04 -2.34072E+04  2.44918E+04 -1.21609E+04
  1.82547E+04 -2.37806E+03  1.25782E+04  7.12568E+03  6.76337E+03 -1.82985E+03  1.17058E+04  5.79562E+02
  2.33191E+04  7.85476E+03  2.32574E+04  2.32225E+04  1.99204E+04  3.54477E+04 -7.52702E+02  4.52275E+04
 -3.01949E+04  4.08030E+04 -3.94575E+04  2.13457E+04 -4.58652E+04  2.63890E+03 -3.31568E+04 -2.52627E+04
 -1.78304E+04 -3.48252E+04  1.20737E+04 -3.05553E+04  2.62210E+04 -1.16289E+04  3.13758E+04  8.94312E+03
  8.09221E+03  2.42423E+04 -1.76944E+04  1.46694E+04 -2.68432E+04  2.85291E+03 -1.77020E+04 -1.88672E+04
 -5.76260E+03 -1.76658E+04  1.03245E+04 -1.58890E+04  1.68836E+04 -2.87147E+03  1.98987E+03  1.30679E+04
 -1.09276E+04  2.33168E+03 -1.14701E+04 -6.26645E+03 -1.55999E+03 -2.00901E+04  1.32678E+04 -1.77519E+04
  2.38485E+04 -1.92839E+04  3.58866E+04 -3.97633E+03  2.96804E+04  2.16011E+04  1.18869E+04  3.77392E+04
 -5.65983E+03  3.00043E+04 -1.62637E+04  2.47816E+04 -2.43673E+04  6.32618E+02 -2.23434E+04 -9.49607E+03
 -1.40695E+04 -9.72206E+03 -1.79049E+02  2.53463E+03 -1.30046E+03  1.97239E+03 -7.65283E+03  7.28102E+03
 -1.49655E+04 -7.39622E+02 -1.63993E+04 -1.32660E+04 -4.81778E+03 -1.14227E+04  1.02815E+04 -1.10024E+04
  1.34150E+04 -8.92115E+03  1.02436E+04  1.07735E+04 -4.23208E+03  7.58270E+03 -8.36018E+03  5.60972E+03
 -1.02305E+04 -1.60982E+04 -4.99521E+03 -1.60330E+04  4.27199E+03 -2.30087E+04  2.32072E+04 -9.91369E+03
  2.60961E+04  1.50271E+03  1.32246E+04  1.02472E+04  4.60510E+03  1.29930E+04 -1.31447E+04  1.49139E+04
 -1.74443E+04  3.63319E+03 -6.86606E+03 -3.70783E+02  4.56143E+03 -5.94268E+03  7.82443E+03 -7.05855E+02
  1.05344E+04  8.11793E+03 -2.79033E+03  1.31814E+04 -1.55956E+04  1.30688E+04 -1.69463E+04  3.08570E+03
 -5.57925E+03 -7.43659E+03  6.92894E+02 -1.59263E+04  6.43307E+03 -8.90672E+03  5.02866E+03  4.08760E+03
 -3.64403E+03  1.07202E+04 -4.85522E+03  8.92327E+03 -1.58373E+04  2.90125E+03 -1.30396E+04 -1.46517E+04
 -1.05283E+04 -1.61122E+04  4.34379E+03 -1.81344E+04  1.65475E+04 -1.32093E+04  1.88567E+04  3.85312E+03
  1.33095E+04  1.52957E+04  3.62302E+03  1.77466E+04 -1.04040E+04  6.47753E+03 -1.63414E+04 -2.50284E+03
 -1.64566E+04 -9.14923E+03  4.18976E+02 -1.31472E+04  6.29717E+03 -1.42023E+04  9.33528E+03 -4.04020E+02
  1.55067E+04  6.21368E+03  9.37908E+02  2.59797E+03  7.19071E+02 -3.24795E+03  1.13996E+04 -1.03364E+04
  3.29503E+03 -6.24418E+03  2.52149E+04 -3.55657E+03  1.55375E+04  2.12526E+04  1.17074E+04  1.78964E+04
 -1.71740E+03  3.20379E+04 -2.55934E+04  1.48842E+04 -2.47263E+04  2.70553E+03 -1.93711E+04 -8.59897E+03
 -1.31519E+04 -1.84893E+04  2.52487E+03 -2.21920E+04  9.35159E+03 -1.76768E+04  7.61041E+03 -6.88512E+03
 -2.87972E+03 -2.99277E+03  1.14374E+04 -3.83844E+03  6.28738E+03 -2.25983E+03  4.15570E+03  2.45690E+02
  8.13840E+03  2.34069E+03  1.26604E+04  1.28702E+04 -2.19867E+03  1.81592E+04 -1.53073E+04  8.54138E+03
 -1.45446E+04  7.26548E+02 -5.74745E+03 -5.66671E+03 -1.51633E+03 -1.28257E+04  6.39581E+03 -1.78488E+04
  1.72608E+04 -1.13261E+04  2.28256E+04  8.69128E+03  1.29724E+04  1.29817E+04  7.20145E+03  2.03194E+04
 -1.09478E+04  2.67192E+04 -1.58589E+04  8.05803E+02 -4.20637E+03 -5.95842E+03 -2.99165E+03  3.33503E+03
  2.46389E+03  3.59266E+03 -3.74877E+03  2.47476E+03 -1.06219E+04 -3.73358E+03 -1.35237E+04 -3.53763E+01
 -1.07150E+04 -1.47034E+04 -6.51317E+03 -1.74302E+04  1.06043E+04 -1.56048E+04  1.78393E+04 -4.15086E+03
  1.52984E+04  9.41694E+03  7.99384E+03  1.53710E+04 -8.34466E+03  1.93291E+04 -1.67774E+04  3.73295E+03
 -2.24159E+04 -5.29397E+03 -1.96510E+04 -1.10499E+04  4.11393E+03 -1.00987E+04  9.53745E+03 -8.35089E+03
  9.58967E+03 -7.02101E+03  5.73233E+03  6.73410E+03 -2.56971E+02  1.04316E+04  2.42395E+03 -2.26926E+03
  4.60496E+03  2.21389E+03  9.66474E+03 -6.42996E+02  5.20046E+03  7.29843E+03  6.74210E+03  9.98105E+03
 -9.23380E+03  6.00181E+03 -7.23108E+03  1.56290E+04 -2.38288E+04  5.69268E+03 -2.13106E+04 -7.65424E+02
 -4.17043E+03 -1.40896E+04  4.27624E+03 -2.15791E+04  1.15824E+04 -1.14755E+04  1.93302E+04  1.09254E+03
  1.14835E+04  1.30077E+04  1.30809E+03  2.24389E+04 -5.31499E+03  1.19934E+04 -5.03021E+03  9.40757E+03
 -3.08529E+03 -1.16273E+04  1.18006E+04 -9.62957E+03  7.27284E+03 -1.01153E+04  9.40452E+03  3.27418E+03
  7.27760E+03 -1.64425E+03  4.19460E+03  6.50717E+02  1.57172E+03 -2.44914E+02  1.61441E+03  4.81914E+03
  8.40837E+03  8.73674E+03  6.83578E+03  3.61356E+03  2.73525E+03 -1.60038E+01 -4.69708E+02  1.68927E+04
 -9.03967E+03  4.61418E+03 -1.83659E+04  1.55783E+03 -1.13380E+04  1.76068E+03 -5.19089E+03 -4.87283E+03
 -2.93663E+03 -9.31107E+03  3.83761E+03 -6.66228E+03  2.49909E+03  2.80011E+03 -1.66040E+03  7.45022E+03
 -7.34968E+03  3.88670E+03 -1.19192E+04 -7.25104E+03 -3.21107E+03 -9.01385E+03 -1.00473E+03 -9.94222E+03
  5.93593E+03 -6.46935E+03  5.46533E+03 -9.79339E+02  5.40707E+03  2.60010E+03 -3.63044E+03  7.98859E+03
 -6.63488E+03  3.55044E+03 -7.47246E+03 -2.03509E+03  3.90096E+03 -1.41043E+04  8.86462E+03 -3.77528E+03
  5.25233E+03  1.03276E+03  2.22827E+03  1.06830E+04  4.83044E+03  1.00932E+04 -6.88595E+03  2.09683E+04
 -1.38395E+04  9.49900E+03 -6.18139E+03  1.83058E+01 -8.58635E+03 -1.33636E+04 -1.26279E+03 -4.91928E+03
  1.11513E+04 -4.87424E+03  1.57259E+04 -6.60457E+03  6.52810E+03  6.90712E+03  4.81452E+03  1.04571E+04
 -5.01723E+03  4.95064E+03 -7.65000E+03  2.68113E+03 -6.88636E+02  6.73326E+03 -1.17616E+03  1.02642E+03
 -5.06626E+03  7.06499E+03 -5.80150E+03  5.24084E+02 -1.40807E+04 -9.49581E+02 -1.62805E+04 -3.06613E+03
 -9.34674E+03 -9.71097E+03 -2.87453E+03 -1.15464E+04  4.86578E+03 -8.95643E+03  1.40408E+04  1.65642E+03
  2.21097E+04  3.64820E+03  2.02945E+03  9.78730E+03  1.83093E+03  1.27484E+04 -5.37297E+03  8.79316E+03
 -1.08084E+04  4.43071E+03 -5.56415E+03  2.18259E+03 -5.13694E+03 -1.68684E+03 -1.33264E+04 -1.45782E+03
 -7.28496E+03  6.01864E+03 -5.06744E+03 -7.07266E+02  8.23254E+02  1.31641E+03  1.55173E+03 -3.00167E+02
  3.99194E+03 -8.92710E+02  8.56894E+03 -3.17207E+03  7.81347E+03  9.16575E+03 -4.03565E+03  9.25189E+03
 -1.13411E+04  1.53915E+04 -1.68127E+04  8.08183E+03 -1.85832E+04 -1.32064E+03 -5.10148E+03 -1.36701E+04
 -4.07801E+03 -1.38044E+04  5.30411E+03 -1.93444E+04  1.45583E+04 -1.23812E+04  7.55383E+03  3.16686E+03
  9.17180E+03  2.59089E+03 -3.79350E+02  4.15865E+02 -7.29630E+03 -2.08003E+03  4.09350E+03  5.05003E+02
  4.55425E+03  1.01859E+02  4.69850E+03  4.37544E+03  4.93091E+03  1.51391E+04  9.61704E+02  7.45165E+03
 -6.89051E+03  8.28210E+03 -1.14772E+04 -4.34853E+03 -7.28580E+03 -6.32546E+03  1.64282E+03 -6.86354E+03
  5.97448E+03 -6.95857E+03  6.35726E+03 -2.27325E+03  1.03461E+04  1.90768E+03  9.08491E+03  8.57203E+03
  6.13993E+03  4.89546E+03  4.57445E+03  1.34593E+04 -2.07091E+03  6.57724E+03 -6.98275E+03 -2.02971E+03
 -5.42589E+03 -1.20692E+03 -1.75554E+03  1.33613E+04  3.32013E+03  1.00272E+03 -8.30567E+03 -1.42236E+03
 -3.43198E+03 -2.28666E+03  1.30964E+03 -1.37150E+04  4.18922E+03 -3.50916E+03  7.76993E+03 -6.27847E+03
  5.47615E+03  3.42652E+03  1.35473E+04  7.56147E+03 -3.01033E+03  1.48859E+04 -1.21357E+04  7.67668E+03
