 $NMID ID='MM_0lb_SNR50_9hz_g55_90.RAW', FMTDAT='(8E13.5)'
 TRAMP=1., VOLUME=1. $END
  3.12311E+05 -4.05651E+03  3.36694E+05  2.52937E+05  8.50943E+04  3.34718E+05 -1.32412E+05  2.51278E+05
 -1.97477E+05  8.06649E+04 -1.08163E+05 -2.76454E+04  3.97483E+03 -4.87679E+04  5.49495E+04  3.74588E+03
  3.51468E+04  5.00360E+04 -2.22577E+04  8.09540E+04 -6.51381E+04  6.11141E+04 -8.76536E+04  3.68304E+04
 -9.02899E+04 -8.12543E+03 -6.17352E+04 -5.53576E+04 -2.06819E+04 -7.08693E+04  2.27078E+04 -4.66877E+04
  4.51795E+04 -8.18418E+02  1.33264E+04  4.72256E+04 -3.28098E+04  4.95124E+04 -6.48640E+04  3.61702E+03
 -5.14680E+04 -5.83763E+04 -3.58408E+03 -8.12834E+04  3.51245E+04 -6.12321E+04  5.12283E+04 -1.73646E+04
  4.50542E+04  1.01546E+04  2.88274E+04  2.43715E+04  1.62726E+04  2.56493E+04 -3.84469E+03  3.12953E+04
 -2.22416E+04  1.07780E+04 -1.11237E+04 -4.06547E+03  5.35668E+03 -2.89768E+03  2.53468E+04  1.00865E+04
  2.92871E+03  3.96556E+04 -3.54091E+04  3.67685E+04 -6.29008E+04  3.73223E+03 -6.02481E+04 -3.95226E+04
 -1.20731E+04 -6.45828E+04  4.30303E+04 -4.44220E+04  5.98051E+04 -7.28861E+03  3.85848E+04  3.21485E+04
 -1.15867E+04  3.79188E+04 -2.73622E+04  1.66726E+04 -4.05497E+04 -7.39025E+03 -2.24528E+04 -1.30426E+04
 -1.34570E+04 -1.16861E+04 -2.34803E+03 -2.14125E+04  1.12640E+04 -2.74233E+04  1.99021E+04 -1.66501E+04
  1.27346E+04  1.19848E+04 -9.60589E+03  1.36613E+04 -2.31184E+04 -1.05334E+04 -8.06279E+03 -3.59668E+04
  3.12081E+04 -5.31070E+04  5.68837E+04 -1.61805E+04  4.66286E+04  2.12191E+04  2.04469E+04  4.62257E+04
 -1.77046E+04  3.73145E+04 -2.61178E+04 -3.25837E+03 -9.49256E+03 -2.50865E+04  2.18054E+04 -3.53704E+04
  4.13369E+04 -1.10311E+04  4.05029E+04  2.47533E+04  2.13297E+04  5.41523E+04 -1.13934E+04  6.07780E+04
 -3.15906E+04  4.12843E+04 -5.02937E+04  3.32948E+03 -5.54134E+04 -2.33728E+04 -1.70051E+04 -4.12456E+04
  7.15692E+03 -4.24138E+04  3.89505E+04 -1.29746E+04  3.12875E+04  1.14188E+04  7.10014E+03  2.24381E+04
 -1.59532E+04  7.90220E+03 -1.54617E+04 -9.98426E+03  2.76866E+03 -1.07771E+04  2.48697E+04  1.30045E+04
  8.54544E+03  2.21373E+04 -3.11948E+03  2.94468E+04 -2.13900E+04  1.03625E+04 -3.01751E+04 -5.90614E+03
 -2.95274E+04 -1.38262E+04 -1.05925E+04 -2.46892E+04  1.10422E+03 -3.18916E+04  1.66121E+04 -2.33648E+04
  2.61534E+04 -1.79969E+04  3.07433E+04  6.74534E+03  2.58546E+04  2.34837E+04  1.46868E+03  3.78847E+04
 -1.97395E+04  3.05362E+04 -3.08084E+04  1.22303E+04 -2.73225E+04 -1.45590E+04 -4.55611E+03 -6.22317E+03
 -1.88464E+03  2.09309E+03 -7.94124E+03  3.36746E+03 -2.03565E+04  2.81225E+03 -2.28059E+04 -5.85017E+03
 -1.28761E+04 -2.07380E+04  7.13318E+03 -2.60067E+04  1.55874E+04 -1.89701E+04  2.48614E+04  1.11988E+03
  1.61252E+04  1.73395E+04 -3.18649E+03  3.21161E+04 -1.81869E+04  1.46748E+04 -2.41133E+04 -3.33326E+03
 -2.45512E+04 -2.29730E+04 -8.75960E+02 -2.04697E+04  1.67276E+04 -2.73992E+04  2.24596E+04 -1.43048E+04
  2.29886E+04  3.26416E+03  1.48548E+04  5.63445E+03  6.56622E+03 -7.68008E+02  1.11417E+04 -2.92794E+03
  2.90112E+04 -2.96065E+03  2.30488E+04  1.75558E+04  2.35703E+04  4.52561E+04 -5.13625E+03  4.46329E+04
 -2.03084E+04  4.06332E+04 -3.98279E+04  1.84800E+04 -5.15112E+04 -2.12597E+03 -3.78338E+04 -3.00260E+04
 -1.35933E+04 -3.71905E+04  1.03362E+04 -3.53272E+04  2.57427E+04 -1.89847E+04  2.95082E+04  5.92102E+03
  7.56911E+03  1.98747E+04 -1.08109E+04  1.29845E+04 -1.94841E+04  5.98121E+03 -2.01850E+04 -1.21493E+04
  8.48287E+02 -1.88040E+04  1.23558E+04 -1.02728E+04  1.71458E+04 -1.60294E+03  7.10568E+03  7.22622E+03
 -7.18121E+03  9.07927E+03 -7.39824E+03 -1.27788E+04 -6.53307E+02 -1.50050E+04  1.13460E+04 -1.77220E+04
  2.06511E+04 -1.28699E+04  2.29421E+04  7.48071E+02  2.56838E+04  1.46779E+04  1.01579E+04  3.16655E+04
 -4.98292E+03  3.02864E+04 -1.69438E+04  1.63061E+04 -1.73872E+04  4.06937E+03 -1.70127E+04 -9.21928E+03
 -8.04214E+03 -1.52935E+04 -1.89393E+03  5.41663E+03 -6.58746E+03  2.29483E+03 -8.60617E+03  1.13290E+04
 -1.38296E+04 -3.86759E+03 -1.26672E+04 -1.48728E+04 -1.08171E+04 -1.88834E+04  8.82701E+03 -1.52242E+04
  7.46230E+03 -6.46221E+03  6.70143E+03 -3.84720E+03 -3.10224E+03  3.64727E+03 -9.88018E+03 -4.10460E+03
 -7.00054E+03 -1.16634E+04  4.97343E+03 -1.92771E+04  1.14902E+04 -2.29738E+04  1.91845E+04 -5.67634E+03
  2.71604E+04 -4.32649E+02  1.86023E+04  1.73593E+04  8.01465E+03  1.96251E+04 -1.07929E+04  1.17571E+04
 -1.00174E+04  1.45590E+04 -1.21792E+04 -1.05794E+04  2.52808E+03 -3.12259E+03  1.14493E+04  1.08836E+04
  6.83762E+03  1.06427E+04 -4.57167E+03  1.35000E+04 -5.80342E+03  1.41899E+04 -1.42449E+04  3.53079E+03
 -4.94995E+03 -1.05438E+04  5.11758E+03 -2.01503E+04  3.58414E+03 -1.08732E+04  8.47567E+03  9.95504E+02
  1.11884E+03  1.06835E+04 -1.19734E+04  1.56409E+04 -2.19736E+04  4.13423E+03 -2.00831E+04 -2.47428E+03
 -9.31990E+03 -1.64987E+04  5.14046E+03 -1.96915E+04  1.63151E+04 -5.61298E+03  1.72347E+04  1.03006E+04
  1.25583E+04  1.14640E+04  3.25439E+03  1.55985E+04 -1.11907E+04  8.83518E+03 -1.29249E+04  4.62271E+03
 -7.83757E+03 -1.15835E+04 -1.29032E+03 -1.24813E+04  7.25724E+03 -1.21832E+04  3.15364E+03 -1.14985E+04
  4.41721E+03 -1.78034E+03 -3.08416E+03  6.56937E+02  5.68966E+03 -8.49410E+03  4.93146E+03 -1.36960E+04
  1.84266E+04  1.00410E+03  1.49797E+04  2.29964E+03  1.75366E+04  1.44222E+04  1.31957E+04  1.62852E+04
 -4.82524E+03  2.74690E+04 -1.59172E+04  1.83254E+04 -2.57565E+04  3.31435E+03 -2.34184E+04 -2.77675E+03
 -1.07326E+04 -2.28202E+04 -2.60473E+03 -2.31003E+04  6.07451E+03 -1.27560E+04  7.11705E+03 -7.53598E+03
  2.63165E+03 -6.00968E+03  3.90760E+03 -3.14467E+03  6.13580E+03 -3.79887E+03  6.43229E+03 -2.04328E+03
  1.13161E+04 -1.81641E+02  6.82483E+03  1.04893E+04  2.16696E+02  1.40356E+04 -8.62961E+03  5.40073E+03
 -1.45812E+04 -2.15715E+03 -6.05141E+03 -6.10878E+03 -3.99533E+02 -1.24517E+04  2.12335E+03 -1.60207E+04
  1.59522E+04 -5.52002E+03  2.10625E+04  2.12895E+03  1.20753E+04  1.16648E+04 -2.92461E+03  2.25126E+04
 -6.57639E+03  1.95769E+04 -1.05587E+04  3.25181E+03 -1.14013E+04 -2.20767E+03 -6.36403E+03 -1.73966E+03
  1.11025E+03  7.94916E+02  3.27580E+02  6.66478E+02 -1.29968E+03  5.30175E+03 -9.08094E+03 -1.07377E+03
 -9.34143E+03 -1.48555E+04 -6.39704E+01 -1.83893E+04  1.43848E+04 -1.32830E+04  1.27089E+04 -1.18317E+02
  1.85524E+04  6.91999E+03  6.42611E+03  1.47657E+04 -2.18676E+03  1.02251E+04 -1.51941E+04  1.35180E+04
 -1.21832E+04 -1.30938E+03 -9.72189E+03 -8.38948E+03 -4.87116E+03 -1.02768E+04  7.66229E+03 -3.95610E+03
  1.47086E+04 -1.10268E+04  8.38873E+03  5.89364E+03  1.20196E+03 -8.94600E+02  9.74702E+02 -2.01804E+02
  3.20329E+03  2.50699E+03  3.85703E+03  3.21186E+03  7.15733E+03  7.89340E+03  9.25553E+03 -1.34350E+03
 -1.56936E+03  1.28424E+04 -1.28446E+04  8.56267E+03 -1.30169E+04 -2.13907E+02 -1.69295E+04 -3.84380E+03
 -7.74078E+03 -1.37120E+04  9.41741E+03 -1.47040E+04  8.97135E+03 -1.34397E+04  6.00079E+03  1.55766E+03
  1.08221E+04  1.00231E+04 -1.58974E+02  1.08965E+04 -4.55583E+03  1.03285E+04 -3.09762E+03  1.34740E+03
 -1.50514E+03 -7.99265E+03 -5.73793E+03 -3.54184E+03  9.08796E+03 -1.70907E+03  3.33800E+03 -2.58481E+03
  4.84819E+03  2.03753E+03 -3.56145E+03  2.91907E+03 -1.43635E+02  3.51320E+03  1.89425E+03 -2.84083E+03
 -3.15260E+02  2.65103E+01  1.53298E+04 -1.82914E+03  1.21385E+03  1.40724E+04 -1.43807E+03  1.27410E+04
 -1.83990E+03  4.42154E+03 -1.08455E+04  2.52642E+03 -8.62187E+03  4.64175E+03 -3.27126E+03 -2.03043E+03
  4.45291E+03 -7.60895E+03  7.33971E+03 -6.37991E+02  4.31036E+03  2.90728E+03 -4.33119E+03 -3.01039E+02
 -7.76179E+03  7.30236E+03 -3.25971E+03  8.32718E+02  3.67722E+02 -3.52694E+03 -1.24093E+03 -7.54899E+03
  3.99963E+03 -7.99895E+03  2.33922E+03  1.99695E+03  9.55735E+03  4.01946E+03  2.33101E+02 -8.53434E+02
 -6.92867E+03  1.48307E+03 -2.83564E+03 -1.08783E+03  3.82187E+03 -5.70384E+03  5.64922E+03  1.76077E+01
  1.20267E+04 -2.89571E+03  6.41240E+03  1.58318E+03  6.30059E+03  1.13624E+04 -1.79282E+03  6.41444E+03
 -9.50574E+03  4.84100E+03 -1.02049E+04 -2.02160E+03 -8.63622E+03 -6.02814E+03  2.22411E+03 -6.19682E+03
  4.83829E+03 -1.42691E+03  9.05386E+03  2.95632E+03 -7.17871E+02  6.97633E+03  5.03506E+03  6.34583E+03
 -8.36968E+03 -3.01425E+03  2.34861E+03  3.33178E+02 -1.51447E+03  3.47049E+03 -5.54359E+03  1.36407E+04
 -1.87686E+03  7.65528E+02 -5.24656E+03  5.55490E+03 -1.36987E+04 -2.47834E+03 -9.26493E+03 -1.44741E+04
 -1.06134E+04 -1.05251E+04  3.63320E+03 -2.23769E+04  1.20537E+04 -1.09887E+04  1.52256E+04 -8.85203E+03
  1.75802E+04 -2.83164E+03  4.78544E+03  1.31731E+04 -4.05445E+03  9.51236E+03 -1.40214E+03  1.21691E+04
 -8.17801E+02  5.69223E+03 -5.94105E+02 -3.60222E+03  2.63316E+03 -9.55096E+03  1.43899E+03 -5.13634E+03
 -4.53461E+03  5.85717E+03 -2.28858E+03  1.46197E+03 -4.64563E+03 -6.48166E+03 -9.23343E+01 -4.33802E+03
  4.97501E+03  1.93476E+03  2.13648E+02  1.43225E+02  7.49612E+03  1.08547E+04  6.34313E+03  1.57764E+04
 -8.23795E+03  9.43068E+03 -1.57506E+04  3.14764E+03 -1.20154E+04  3.63236E+03 -1.53463E+04 -1.10942E+04
 -5.42598E+03 -8.13011E+03  6.59648E+03 -9.01659E+03  6.92402E+03 -4.62559E+03  5.54064E+03  7.64117E+03
  9.35375E+03  5.44481E+03 -2.23116E+03  6.26778E+03  3.21190E+03 -3.68757E+03  1.74603E+03 -5.04821E+03
  1.12911E+03  4.31476E+02 -3.49633E+02 -6.16703E+02 -5.20169E+03  9.22936E+02 -3.48754E+03  3.29526E+03
 -8.36309E+03 -2.05409E+03 -1.05519E+04  3.33020E+03 -5.76242E+03 -2.15655E+03 -7.96138E+03 -5.94634E+03
  9.91406E+03 -6.86564E+03  6.34551E+03 -7.05511E+03  8.79952E+03  5.65100E+02  4.26199E+03  2.45670E+03
 -5.82672E+03  5.79467E+03 -6.13814E+03 -5.34839E+02 -4.23765E+03  7.49521E+03 -5.39589E+03  2.62261E+02
 -8.85531E+02  3.76328E+02  5.32706E+02  3.83462E+03  5.70853E+03  4.91732E+03 -7.31660E+03 -6.25507E+02
 -4.37601E+03 -5.33456E+03 -1.27626E+03 -8.73156E+03  7.41990E+03 -4.81323E+03  3.69586E+03  1.35989E+02
  7.42314E+03 -4.47088E+01 -2.15931E+03  6.24391E+03  3.47589E+03  6.46074E+03 -1.78951E+03  1.06846E+03
