 $NMID ID='MM_0lb_SNR50_9hz_g55_58.RAW', FMTDAT='(8E13.5)'
 TRAMP=1., VOLUME=1. $END
  3.06313E+05  2.09425E+03  3.36976E+05  2.50713E+05  7.94396E+04  3.48588E+05 -1.33077E+05  2.51663E+05
 -1.91695E+05  8.24602E+04 -1.17059E+05 -2.96820E+04 -2.08088E+03 -5.03733E+04  5.07758E+04 -3.27299E+03
  3.51873E+04  5.90422E+04 -1.93639E+04  7.24926E+04 -6.75247E+04  7.07419E+04 -7.92548E+04  3.42605E+04
 -8.49747E+04 -1.38813E+04 -6.00123E+04 -5.14239E+04 -1.68895E+04 -6.85985E+04  2.86297E+04 -4.57451E+04
  4.20989E+04  4.21692E+03  2.48120E+04  4.97613E+04 -3.79009E+04  4.64621E+04 -6.87786E+04 -1.06176E+03
 -5.17395E+04 -5.27801E+04 -3.70991E+03 -7.74499E+04  3.48383E+04 -5.70996E+04  5.48435E+04 -1.60797E+04
  4.53872E+04  1.29529E+04  3.98581E+04  2.57920E+04  1.41134E+04  3.50813E+04  2.29942E+02  2.80165E+04
 -3.09070E+04  1.06112E+04 -1.82706E+04 -6.00727E+03  9.15174E+03 -6.72487E+03  2.22274E+04  1.53137E+04
  8.77698E+03  3.75585E+04 -3.03824E+04  3.87685E+04 -6.29073E+04  3.70012E+03 -6.21280E+04 -4.44527E+04
 -1.22991E+04 -6.49380E+04  4.71004E+04 -4.82709E+04  5.75168E+04 -3.92984E+03  3.89341E+04  3.43305E+04
 -7.53318E+03  4.21544E+04 -3.13977E+04  1.51917E+04 -3.16849E+04 -8.70144E+03 -2.04033E+04 -1.30617E+04
 -1.19138E+04 -1.79518E+04 -2.60589E+02 -2.19148E+04  1.04625E+04 -2.64913E+04  1.50701E+04 -1.43551E+04
  1.38104E+04  3.96722E+03 -7.94780E+03  8.86764E+03 -2.32864E+04 -6.19281E+03 -4.83691E+03 -3.66780E+04
  2.96370E+04 -5.18502E+04  5.30388E+04 -2.14854E+04  5.18540E+04  1.68786E+04  1.35803E+04  4.61047E+04
 -1.00061E+04  3.83516E+04 -2.44334E+04  3.08652E+03 -8.84597E+03 -2.89174E+04  2.20782E+04 -3.45392E+04
  4.25179E+04 -7.15087E+03  4.07935E+04  3.03915E+04  2.54294E+04  5.24960E+04 -6.16362E+03  5.77414E+04
 -3.70340E+04  3.80983E+04 -5.09036E+04  1.26794E+04 -4.05012E+04 -2.21558E+04 -2.85722E+04 -3.70323E+04
  7.26080E+03 -4.53940E+04  3.76457E+04 -1.76901E+04  3.63500E+04  1.27254E+04  2.60342E+03  2.41352E+04
 -1.03248E+04  7.42545E+03 -9.11773E+03 -5.45659E+03 -2.99594E+03 -1.32980E+04  1.87530E+04  5.97311E+03
  1.22133E+04  2.33306E+04 -7.31295E+03  3.32802E+04 -2.55939E+04  1.32948E+04 -3.56094E+04 -1.37083E+04
 -2.79259E+04 -2.21975E+04 -1.06241E+04 -2.96618E+04  8.34152E+03 -2.66681E+04  2.25800E+04 -2.23339E+04
  3.45358E+04 -1.71676E+04  3.57387E+04  4.76790E+03  3.09862E+04  2.93863E+04  2.43761E+03  4.65106E+04
 -1.94654E+04  3.41034E+04 -3.18617E+04  1.20657E+04 -2.42605E+04 -7.97703E+03 -5.67920E+03 -9.40495E+03
  4.00246E+03  1.78236E+03 -8.63303E+03  6.98615E+03 -2.16705E+04  5.54328E+03 -1.81489E+04 -1.37318E+04
 -1.25144E+04 -2.03495E+04  2.89439E+03 -2.49045E+04  1.81297E+04 -1.91010E+04  2.28401E+04 -1.71284E+03
  1.20127E+04  2.01166E+04 -6.43510E+03  1.74981E+04 -2.23991E+04  1.24173E+04 -2.76403E+04 -3.40279E+03
 -1.62536E+04 -2.44755E+04 -2.82642E+03 -2.49763E+04  1.09068E+04 -2.55639E+04  2.55484E+04 -1.43575E+04
  2.34674E+04 -9.83109E+03  1.63645E+04  8.20774E+03  4.88648E+03  8.75774E+03  1.03030E+04 -4.34660E+03
  2.23252E+04  5.11366E+03  2.23291E+04  2.32816E+04  1.46552E+04  4.09211E+04  8.60116E+02  4.54933E+04
 -2.71932E+04  4.10284E+04 -4.70193E+04  2.07327E+04 -4.17794E+04  7.36552E+01 -3.33162E+04 -2.28929E+04
 -1.30239E+04 -3.42276E+04  1.65576E+04 -2.96633E+04  2.92624E+04 -2.17174E+04  2.41638E+04  9.56221E+03
  8.70061E+03  1.88402E+04 -1.50590E+04  1.58301E+04 -1.96241E+04  3.33095E+03 -1.07484E+04 -1.52506E+04
 -1.91241E+03 -2.12159E+04  1.77923E+04 -1.37997E+04  1.46982E+04  2.54338E+03 -1.07879E+03  1.53175E+04
 -8.67922E+03  4.44211E+02 -1.06305E+04 -6.51070E+03  2.87073E+03 -1.79303E+04  1.20647E+04 -1.12683E+04
  2.52102E+04 -9.13867E+03  2.71919E+04  3.68562E+03  2.46901E+04  2.45455E+04  9.58236E+03  2.39662E+04
 -7.60307E+03  3.28131E+04 -2.33194E+04  2.02605E+04 -2.64411E+04  5.28430E+03 -1.16502E+04 -8.05447E+03
 -8.67133E+03 -3.75614E+03  5.02739E+03 -3.60728E+02  1.80054E+03  9.22780E+02 -1.43459E+04  7.17090E+01
 -1.36848E+04 -9.57970E+03 -1.89038E+04 -1.19948E+04 -1.46652E+03 -2.14375E+04  7.58166E+03 -1.23121E+04
  1.30462E+04 -7.31387E+03  1.01797E+04  7.85103E+03 -4.70379E+03  5.48451E+03 -1.05479E+04 -3.77701E+03
 -2.90620E+03 -1.44679E+04 -4.85089E+03 -1.41895E+04  6.58431E+03 -1.27912E+04  2.23536E+04 -3.48928E+03
  2.94026E+04  4.60000E+03  1.52694E+04  1.78984E+04  9.65010E+03  1.82937E+04 -4.53256E+03  1.77431E+04
 -1.84329E+04 -1.16834E+03 -6.70297E+03  4.95663E+03 -3.14829E+03 -4.62982E+03  4.44403E+03 -2.63567E+03
  1.11022E+04  7.28613E+03  3.02324E+03  1.07624E+04 -1.54588E+04  1.30947E+04 -1.05201E+04 -7.22764E+02
 -9.73471E+03 -8.12982E+03 -1.13471E+03 -1.27495E+04  1.00428E+04 -1.06349E+04  1.11368E+04  2.38468E+03
  5.29849E+03  9.69305E+03 -3.26508E+03  8.90893E+03 -1.57436E+04  7.01478E+03 -1.27394E+04 -3.40693E+03
 -1.15845E+04 -1.52995E+04  1.08902E+04 -1.54447E+04  1.92136E+04 -9.00443E+03  9.40187E+03  2.16160E+03
  1.02359E+04  1.20988E+04 -3.03177E+03  1.18350E+04 -1.60763E+04  1.18697E+04 -1.61208E+04  7.56640E+02
 -8.96079E+03 -4.30792E+03 -3.76387E+02 -1.50087E+04  3.99351E+03 -8.10994E+03  9.84466E+03 -8.88860E+03
  4.01305E+03  9.36203E+03 -3.27007E+03  2.25598E+03  6.44135E+03 -2.87673E+03  9.89196E+02 -6.77203E+03
  1.03837E+04 -2.31721E+03  2.24651E+04  3.50066E+03  1.54076E+04  1.08533E+04  1.64722E+04  2.25126E+04
 -6.73862E+03  2.34954E+04 -2.47009E+04  1.63416E+04 -3.29370E+04 -4.38349E+03 -1.77236E+04 -6.58900E+03
 -8.01849E+03 -1.81117E+04  2.53529E+03 -7.52041E+03  3.36550E+03 -9.43946E+03  3.99259E+03 -5.74972E+03
  3.48579E+02 -3.48335E+03  3.57203E+03 -9.04070E+03  6.01518E+03 -8.75432E+03  7.50133E+03 -3.51972E+03
  1.05642E+04 -4.42864E+03  4.85124E+03  1.07747E+04  4.84745E+03  9.19739E+03 -1.12155E+04  1.58312E+04
 -1.66482E+04  6.94378E+01 -5.38618E+03 -1.38589E+04 -3.98669E+02 -1.42124E+04  5.42096E+03 -1.17626E+04
  2.14298E+04 -1.12766E+04  2.16678E+04  2.80514E+03  1.59516E+04  1.83059E+04  3.37033E+03  1.84900E+04
 -7.91823E+03  1.08232E+04 -4.99821E+03  2.61564E+03 -6.78089E+02 -6.86560E+03 -2.79866E+03  2.89700E+03
 -7.28605E+03  1.56990E+03 -4.26471E+02  4.72306E+03 -7.78160E+03 -4.28768E+03 -5.79766E+03 -2.85706E+03
 -9.85162E+03 -9.61036E+03  2.07700E+03 -1.57706E+04  1.02824E+04 -1.71181E+04  1.95018E+04 -8.40131E+03
  1.12549E+04  1.60710E+04  8.76004E+03  1.88613E+04 -3.96482E+03  1.26399E+04 -7.99518E+03  8.43146E+03
 -2.04584E+04 -2.80972E+03 -1.23628E+04 -6.96540E+03 -4.78829E+02 -1.70060E+04  3.72426E+03 -1.04223E+04
  1.14056E+04 -5.23717E+03  1.12774E+04 -4.07617E+03 -4.61827E+02  1.55562E+03 -1.08630E+03 -2.40276E+03
  7.93163E+03 -1.97739E+03  7.97349E+03 -5.33511E+02  8.48336E+02  5.84494E+03  1.30048E+04  6.10830E+03
 -7.32304E+03  6.27857E+03 -1.26310E+04  1.57094E+04 -9.50796E+03  5.30118E+03 -1.70495E+04 -8.12992E+03
 -1.09625E+04 -1.06597E+04  7.15635E+03 -2.01197E+04  7.45512E+03 -1.54106E+04  1.55999E+04 -3.23896E+02
  1.03671E+04  7.91553E+03  8.37568E+03  8.39371E+03 -6.56400E+03  6.47658E+03 -3.50601E+03 -2.96630E+03
 -3.61990E+02 -1.03723E+04  7.11132E+03 -1.16835E+04  1.09112E+04  2.13826E+02  3.22803E+03  3.46217E+03
 -3.03994E+01  1.09228E+04  3.58995E+03 -2.63100E+03  3.39305E+03  1.61924E+03  2.81896E+03 -1.87687E+03
  3.45559E+03 -3.55748E+03  7.46251E+03  5.62997E+03  6.95216E+03  5.31142E+03 -2.08986E+03  1.14337E+03
 -9.07710E+03  7.93221E+03 -1.14108E+04  9.05457E+03 -7.45152E+03  3.73020E+03 -9.78353E+03 -1.28853E+03
  1.47919E+03 -9.22105E+03  1.93387E+03 -1.08066E+04 -1.43790E+02  4.06125E+03 -4.24364E+03  4.35605E+03
 -5.82616E+03  1.24951E+04 -8.03726E+03 -6.06016E+03 -4.87038E+03 -1.25531E+04  4.17898E+03 -8.82091E+03
  4.75645E+03 -3.55472E+03  9.91516E+03  1.89091E+03 -9.61579E+01  1.92107E+03 -1.36504E+03  9.00534E+02
 -7.11837E+03  4.43580E+03 -4.31243E+03 -2.58894E+03  5.40908E+03 -1.26943E+04  8.53256E+03 -3.81875E+03
  1.30785E+04  2.87774E+03  9.37074E+03  7.76196E+03 -9.24536E+01  1.23043E+04 -6.30036E+03  1.44364E+03
 -7.01538E+03 -2.22524E+03 -8.89733E+03 -3.40991E+03 -2.11642E+03 -1.14506E+04 -1.01469E+03  5.22117E+02
  9.13003E+03 -3.66969E+03  4.51874E+03  1.78993E+03  6.41047E+02  2.50392E+03 -3.20371E+03  9.07094E+03
  3.80370E+02  4.30839E+03 -3.19896E+03 -8.19485E+03 -3.74938E+03  1.20788E+03 -3.10190E+03 -5.34593E+02
 -6.90704E+03  2.40952E+03 -7.09996E+03  1.10234E+04 -3.26387E+03  1.75049E+02 -1.25865E+04 -8.41873E+03
 -1.13412E+04 -1.33812E+04  4.31677E+03 -2.00920E+04  9.54926E+03 -9.98894E+03  1.30626E+04 -3.61363E+03
  7.98274E+03 -2.11211E+03  1.17711E+04  1.15758E+04  4.00233E+03  1.17239E+04 -4.50842E+03  5.93207E+03
 -8.43624E+03  3.58630E+03 -5.32202E+03 -1.29245E+02 -1.93492E+03  2.28813E+03 -2.29136E+03  1.70496E+02
  1.89107E+03  3.75887E+03 -2.72846E+03 -2.90322E+03 -5.79775E+03  1.23448E+03  6.16000E+03 -7.42983E+03
  3.78615E+03 -4.46583E+03  2.69220E+03  3.83651E+03  3.35553E+03  7.99217E+03 -2.08855E+02  1.14656E+04
  1.58737E+03  1.25966E+04 -1.38669E+04  6.52866E+03 -1.00011E+04 -2.73161E+03 -9.54960E+03 -2.84233E+03
  3.59738E+02 -9.95175E+03  6.56382E+03 -1.26669E+04 -1.00710E+03 -5.21468E+02  6.95192E+03 -5.08489E+03
  2.52305E+03  7.14092E+03 -2.03592E+03  4.29096E+03 -1.12979E+03 -6.19091E+01 -3.71991E+03  5.71411E+01
  7.26200E+02  2.45512E+03 -2.78736E+03 -1.89192E+03  1.09150E+03  5.26245E+03 -6.26460E+02  1.04395E+04
 -6.92635E+03  4.05987E+03 -8.53918E+03  2.83383E+03 -7.33743E+03 -5.98958E+03  6.14686E+02 -2.52134E+03
  5.51964E+02 -5.65962E+03  1.47300E+04 -2.74310E+03  2.25088E+03 -3.08632E+03  8.65832E+03  2.96527E+03
 -1.25891E+03  8.95520E+03 -5.61477E+03  4.99860E+03 -2.56375E+03  6.09619E+03 -5.45511E+03  5.30299E+03
 -5.25510E+03  3.06572E+03 -1.33340E+02  3.18736E+03 -3.73262E+02 -4.04357E+03 -8.51262E+03 -1.45138E+03
 -1.04352E+04 -4.31185E+03 -2.40865E+03 -1.43370E+04  9.30514E+02 -1.07010E+04  4.70847E+03 -4.22345E+03
  1.03863E+04  5.58903E+03  5.48625E+03 -2.01221E+03 -3.92930E+02  5.38868E+03  5.66958E+02  8.95095E+03
