 $NMID ID='MM_0lb_SNR50_20hz_g40_82.RAW', FMTDAT='(8E13.5)'
 TRAMP=1., VOLUME=1. $END
  3.07481E+05 -4.18775E+02  3.37736E+05  2.51605E+05  8.75128E+04  3.37724E+05 -1.39417E+05  2.49177E+05
 -1.88546E+05  8.23139E+04 -1.10936E+05 -3.19164E+04  1.19579E+02 -5.17273E+04  5.09569E+04  6.72704E+02
  3.83484E+04  5.27328E+04 -1.96035E+04  7.33014E+04 -5.93433E+04  6.21545E+04 -7.91968E+04  2.81137E+04
 -8.07736E+04 -1.05683E+04 -5.78127E+04 -4.66890E+04 -1.09248E+04 -7.06869E+04  2.48925E+04 -4.73948E+04
  3.97603E+04  2.84719E+03  1.61413E+04  4.91700E+04 -3.17195E+04  4.78230E+04 -6.77408E+04  9.49089E+02
 -4.85055E+04 -5.55375E+04 -7.52457E+03 -7.49227E+04  3.16882E+04 -5.42082E+04  4.29306E+04 -1.39553E+04
  4.12667E+04  1.04375E+04  2.80307E+04  2.34184E+04  7.49945E+03  2.79426E+04 -4.97892E+03  2.92587E+04
 -2.26315E+04  1.04924E+04 -1.84089E+04 -2.07031E+03  5.68806E+03 -1.13383E+04  2.31393E+04  1.25368E+04
  8.40960E+03  3.32195E+04 -2.95930E+04  3.34254E+04 -6.09645E+04 -1.44404E+03 -5.24524E+04 -4.26816E+04
 -1.37626E+04 -5.76022E+04  3.61117E+04 -4.26435E+04  5.02853E+04 -2.15857E+03  2.85020E+04  3.05193E+04
 -6.46914E+03  3.07623E+04 -2.60427E+04  1.08524E+04 -2.66260E+04 -4.76633E+03 -1.14956E+04 -7.80165E+03
 -7.61094E+03 -1.24244E+04 -7.38742E+02 -1.54969E+04  2.60031E+03 -2.27177E+04  1.40888E+04 -1.38849E+04
  1.26466E+04  3.99827E+03 -6.97062E+03  1.91235E+04 -1.78024E+04  2.39796E+02 -6.94697E+03 -2.76902E+04
  2.05897E+04 -4.11436E+04  4.00005E+04 -1.47402E+04  4.22164E+04  1.63535E+04  1.42931E+04  4.04460E+04
 -1.49117E+04  2.82997E+04 -2.18501E+04 -2.73944E+03 -4.88303E+03 -2.48803E+04  1.55461E+04 -3.15673E+04
  3.68219E+04 -6.22963E+03  3.34033E+04  2.40354E+04  1.38200E+04  3.77029E+04 -4.16023E+03  3.98548E+04
 -2.96568E+04  2.97124E+04 -3.59777E+04  1.12013E+04 -3.50165E+04 -8.15259E+03 -2.17879E+04 -3.18518E+04
  5.41749E+03 -3.53470E+04  3.19456E+04 -1.36825E+04  2.76616E+04  1.14304E+04  1.76460E+03  1.51036E+04
 -1.67688E+04  1.07629E+04 -1.38499E+04 -1.12964E+04  4.93042E+03 -9.70723E+03  1.66242E+04  4.72784E+03
  8.63047E+03  2.25778E+04 -7.07858E+03  1.80691E+04 -2.19045E+04  5.89115E+03 -2.59186E+04 -1.32597E+04
 -1.53794E+04 -2.00060E+04 -4.69934E+03 -1.24908E+04  2.74838E+03 -1.26576E+04  9.93177E+03 -1.25664E+04
  1.84629E+04 -9.64182E+03  2.65071E+04  2.94288E+03  2.48556E+04  1.12910E+04  5.59091E+03  3.34497E+04
 -1.70450E+04  2.45067E+04 -2.11617E+04  5.50816E+03 -1.81260E+04 -9.78967E+03 -3.89823E+03 -1.43079E+04
  5.46553E+03 -4.08094E+03 -1.11629E+03  5.11559E+03 -1.43758E+04  6.49945E+03 -1.34211E+04 -1.36773E+03
 -7.79162E+03 -1.85733E+04  6.04406E+03 -1.91734E+04  3.53713E+03 -1.07073E+04  1.23866E+04 -1.36128E+03
  5.06850E+03  1.06505E+04 -1.38777E+03  1.22608E+04 -1.08479E+04  8.04415E+03 -1.28763E+04 -4.71273E+03
 -7.02937E+03 -1.21978E+04 -1.64927E+02 -1.92798E+04  7.71687E+03 -1.38559E+04  1.29494E+04 -4.32853E+03
  1.33836E+04 -8.52311E+01  9.85562E+03  8.10102E+03  3.60854E+03  5.59197E+02  8.20446E+03 -5.89965E+02
  1.03649E+04  3.81087E+03  1.66409E+04  1.12083E+04  1.10254E+04  2.42308E+04 -3.68008E+03  2.46843E+04
 -1.49836E+04  1.53101E+04 -2.36637E+04  1.18205E+04 -2.10198E+04  3.13342E+02 -2.11214E+04 -1.37768E+04
 -8.97093E+03 -2.16063E+04  3.25502E+03 -1.85580E+04  1.62796E+04 -5.10652E+03  1.32345E+04  1.60250E+03
  1.35590E+03  1.13496E+04 -4.85642E+03  9.17450E+03 -1.51951E+04  1.27655E+03 -7.30332E+03 -7.84862E+03
 -1.47493E+03 -9.13067E+03  6.60461E+03 -8.36864E+03  1.09427E+04  1.10332E+03  2.97561E+03  5.55114E+03
 -2.93118E+03  4.52911E+03 -1.45556E+03 -6.54269E+01 -1.56760E+03 -7.90421E+03  7.85021E+03 -1.08950E+04
  1.04734E+04 -4.35104E+03  9.10630E+03  2.73437E+03  8.04717E+03  6.91446E+03  3.60703E+03  9.38134E+03
  1.70898E+03  1.32637E+04 -6.15908E+03  9.35654E+03 -8.74794E+03  1.84854E+03 -7.81545E+03 -4.16494E+03
 -2.16183E+03 -1.99088E+03 -2.80014E+03 -7.58672E+02 -2.55370E+03 -1.31580E+03  4.25165E+00  5.83845E+03
 -4.20836E+03  2.11984E+03 -8.22845E+03 -6.12961E+03 -5.76303E+03 -1.06655E+04  3.31986E+03 -7.48878E+03
  2.72865E+03 -3.31126E+02  6.00121E+03  3.14358E+02  1.13678E+03 -1.07183E+03 -3.90453E+02  4.28154E+01
 -2.96820E+03 -6.88431E+03  4.70116E+02 -5.73609E+03  5.61240E+03 -9.23259E+03  7.11206E+03 -4.32740E+03
  1.18918E+04 -4.04944E+03  3.67219E+03  5.84810E+03  5.55591E+03  5.66007E+03  3.10951E+02  9.33281E+03
 -5.22760E+03  4.28314E+03 -5.86246E+03  7.14707E+02  2.05838E+03 -3.38810E+03  7.70554E+03  1.79763E+03
  1.21549E+03  4.74499E+03  2.11737E+03  6.30220E+03 -5.87322E+03  3.88093E+03 -4.99561E+03 -1.53275E+03
 -3.23007E+03 -3.89192E+03  3.14471E+03 -3.84877E+03  8.54987E+03 -2.81672E+03  3.53109E+03  5.18178E+03
 -4.15892E+02  7.09377E+02 -7.54531E+03  2.74114E+03 -3.06397E+03  4.08429E+03 -8.53673E+03  6.95013E+02
 -5.60299E+02 -2.52455E+03  3.56327E+03 -5.64019E+03  6.03044E+03 -4.64666E+03  1.32731E+03 -4.35826E+03
  2.77420E+03  5.21345E+03 -1.23735E+03  6.07470E+03 -5.84449E+03  8.23097E+03 -4.92966E+02 -2.05872E+03
 -3.46043E+03 -2.24574E+03 -5.41268E+02 -3.50217E+03  3.08707E+03 -5.84329E+03  4.75306E+03 -3.71012E+03
 -4.19528E+01  1.93263E+03  2.23993E+03 -8.14259E+02 -9.66757E+02 -1.57007E+03 -9.52184E+02  5.48210E+03
  4.00170E+02 -2.67349E+03  3.21913E+02 -5.37673E+02  3.89719E+03  1.62829E+03 -8.78871E+02  4.14505E+03
  1.68228E+03  6.23112E+03 -7.59144E+03  3.09371E+03 -9.65146E+03  1.89110E+03 -1.03570E+04 -3.75140E+03
 -4.84317E+02 -6.15835E+03 -1.08145E+03 -4.06003E+03 -9.82258E+02  4.24227E+03  1.58342E+03 -2.94374E+03
 -1.25526E+03 -4.32159E+03  1.74548E+02 -3.65700E+03  1.78684E+03  1.21324E+03  3.47385E+03  3.43194E+03
  3.25151E+03  3.16344E+03  3.75325E+03  3.92818E+03 -1.11726E+03 -7.64655E+02 -2.01795E+03  8.26411E+02
 -1.15802E+03  6.55068E+02 -6.95603E+02 -5.88092E+03  1.38828E+03 -7.56107E+03  3.40253E+03 -5.11867E+03
  4.99210E+03 -2.54752E+03  6.18127E+03  5.27219E+03  1.23786E+03  7.96367E+02  2.69588E+03  6.57516E+03
 -4.38267E+02  8.29107E+03  1.21831E+03  5.77575E+03  1.20848E+03  4.05060E+02 -6.85460E+02 -5.61493E+03
  2.46332E+03 -1.09589E+03  3.12001E+03  4.82782E+03 -1.36213E+03  2.51851E+03 -4.87072E+03 -2.35834E+03
 -2.56070E+03 -1.35422E+03  2.36472E+03 -2.30515E+03  6.68049E+03 -4.78999E+03  9.26010E+02 -1.39834E+03
  3.78683E+03 -1.04368E+02  2.37833E+02  1.20995E+03  8.90763E+02  2.78371E+03 -4.23315E+03 -2.81143E+03
 -3.36601E+02 -3.06385E+03 -3.42254E+03  2.50743E+03  7.22911E+02  1.10340E+03 -1.30395E+03 -8.82122E+02
 -1.28868E+03 -3.46728E+03 -7.58660E+02 -1.66758E+03  3.56585E+03  3.86408E+02  3.92973E+03 -1.68985E+03
  4.59381E+03 -1.18334E+03  4.41266E+02  2.29779E+03 -1.35161E+03  4.02252E+03 -3.72877E+03  2.65276E+03
 -1.77651E+03  3.08091E+03 -3.97500E+03  6.38030E+03 -1.71269E+03  1.67319E+03 -5.03159E+03 -8.72254E+02
  7.93250E+02 -6.69004E+03 -1.64535E+03 -5.71056E+03 -2.30674E+03 -4.93654E+03  4.79171E+03 -3.91904E+03
  7.48147E+02  3.21150E+03 -2.15648E+03 -3.83283E+03 -3.13218E+03  5.40508E+03  1.24112E+03 -1.42645E+02
 -4.31455E+02  9.00832E+02  3.40271E+03 -2.40981E+02  3.90442E+03 -3.21525E+03  1.73843E+03  2.17972E+03
 -2.14774E+03  1.14832E+03  4.17896E+03  2.06268E+03 -1.93022E+02 -2.45355E+02  5.00247E+03 -2.92277E+03
  1.65068E+03 -4.21179E+02  6.21709E+03  1.36617E+03  6.19318E+02  1.49671E+03 -1.58756E+03 -2.33494E+02
  2.29415E+02 -1.14517E+03  5.29910E+03 -2.96354E+03 -3.44783E+03 -2.52386E+03  1.31212E+02  1.30890E+03
  1.03168E+03  9.41048E+02  5.58941E+02 -3.24914E+03  3.54992E+03  3.58062E+02 -4.33260E+03  3.18212E+03
 -7.77594E+02 -1.92096E+02 -2.49238E+02 -3.56049E+03  2.11514E+03 -4.51624E+03 -1.21137E+03 -4.95996E+02
 -2.03865E+01 -3.50598E+03 -5.05018E+03  3.19593E+03 -1.25369E+03  8.74388E+02  6.52966E+02 -1.17529E+02
 -2.38239E+02 -2.95684E+03 -1.83554E+03  2.46495E+02  1.01066E+03  2.18393E+03  1.59568E+03  1.39720E+03
  2.88304E+03 -2.36077E+03  1.99263E+03 -3.38766E+00  2.06429E+03  1.54103E+03  1.21861E+03  2.34274E+03
  2.74723E+03  1.28588E+03 -1.37188E+03 -6.26354E+02 -1.68069E+03  2.06578E+03  5.06044E+02  7.31823E+02
  2.67545E+03 -7.80031E+03  5.82787E+02  2.60091E+03  2.55909E+03 -1.59358E+03 -3.38118E+03  6.22471E+03
 -3.76353E+03  5.28648E+02 -3.73560E+03  9.96536E+02 -1.98065E+03  3.55637E+01  2.32150E+03  3.94112E+02
 -2.41102E+03 -1.40033E+03 -1.85380E+02  2.32010E+02 -2.27099E+03 -5.03569E+03 -2.15500E+03  1.41161E+03
 -2.56817E+03 -1.95395E+03  6.19855E+02 -6.79632E+03 -6.52082E+02 -3.13025E+03  2.25200E+02 -1.44804E+03
  2.67528E+03 -1.15392E+03 -6.29089E+02  4.13058E+03  1.31186E+03  1.92744E+03  1.07283E+01  2.06277E+03
 -5.53060E+02 -4.17766E+03  9.17016E+02  2.96019E+03 -7.12639E+02  3.28314E+03 -3.47563E+03  1.09772E+02
  3.26374E+03  1.76661E+03  4.51916E+01  3.33544E+03 -3.62712E+03 -2.87989E+01 -1.83770E+03 -3.77555E+03
  3.48816E+03  5.08457E+01  8.92307E+02 -5.16923E+02 -1.16739E+03  4.98273E+03  7.44169E+02  4.68752E+03
  1.88503E+02 -1.86357E+03 -2.23564E+03  9.81513E+02  2.55850E+03 -7.56408E+02 -2.99507E+03 -6.26842E+03
 -3.33216E+03 -1.45548E+03  1.83993E+03  8.36849E+02 -2.12554E+03  6.60541E+02  3.79317E+02 -1.25934E+03
  4.34919E+02 -1.35143E+03  2.83462E+03 -4.66234E+01 -4.14183E+03  1.64233E+03  3.92087E+02 -9.93826E+02
  3.71167E+02 -3.94694E+03  1.06818E+03  2.18716E+03  8.61047E+02  8.49481E+02 -1.61590E+03 -3.84548E+03
 -3.29250E+03 -5.59080E+03 -6.36311E+02  3.52515E+03 -6.86198E+02  1.33950E+03  4.41373E+02  2.27859E+03
 -5.73380E+01 -3.31250E+02 -9.46729E+02  2.16708E+03  3.98488E+03 -3.51303E+02  1.03139E+03  2.25282E+03
 -8.02700E+02 -1.40182E+03 -1.71156E+03 -1.62566E+03 -2.35763E+03  8.46100E+02  1.18682E+02  8.11273E+02
  1.70356E+03  6.33986E+01  8.99527E+02 -1.61207E+03 -2.90514E+03 -4.88424E+03 -1.43456E+03 -1.62781E+03
 -1.52584E+03 -2.03251E+03  2.89190E+02 -9.21448E+01  2.67861E+03 -1.40182E+03 -2.78741E+03 -1.88633E+03
 -1.55369E+03 -3.55649E+03  2.30074E+03 -1.05163E+03  7.88496E+02 -1.14737E+03 -2.91509E+03 -4.02267E+03
