 $NMID ID='MM_0lb_SNR50_7hz_g40_3.RAW', FMTDAT='(8E13.5)'
 TRAMP=1., VOLUME=1. $END
  3.05674E+05 -6.28885E+03  3.29372E+05  2.54920E+05  8.68143E+04  3.41339E+05 -1.27387E+05  2.54018E+05
 -1.91336E+05  8.21796E+04 -1.17555E+05 -2.76603E+04 -7.30579E+03 -4.78799E+04  6.07169E+04 -2.76347E+03
  4.14246E+04  5.30392E+04 -1.76494E+04  7.69166E+04 -5.74492E+04  6.85453E+04 -8.08938E+04  3.26435E+04
 -8.92026E+04 -1.75373E+04 -6.06298E+04 -5.39942E+04 -1.03872E+04 -7.23404E+04  2.85835E+04 -4.52205E+04
  3.29467E+04 -2.22809E+02  1.50146E+04  4.67992E+04 -3.07842E+04  4.52677E+04 -6.76800E+04  4.13391E+03
 -5.65891E+04 -5.86140E+04 -9.03174E+03 -8.17335E+04  2.93464E+04 -5.56437E+04  5.20463E+04 -2.22848E+04
  5.27016E+04  9.35407E+03  3.35325E+04  2.63202E+04  1.95333E+04  2.66010E+04 -5.08808E+03  2.35833E+04
 -2.18217E+04  1.08983E+04 -1.54644E+04 -8.99023E+03  9.47421E+03  1.31208E+03  2.21305E+04  1.75552E+04
  1.34780E+04  4.20706E+04 -3.28263E+04  3.54995E+04 -6.20489E+04  7.88295E+02 -5.50076E+04 -4.25671E+04
 -1.14564E+04 -6.85887E+04  4.45673E+04 -5.00103E+04  6.81377E+04 -5.35433E+03  3.72023E+04  3.60849E+04
 -5.91920E+03  3.83585E+04 -3.96124E+04  1.65911E+04 -3.15917E+04 -2.20427E+03 -2.43612E+04 -1.27609E+04
 -9.93888E+03 -1.46091E+04  7.37045E+03 -2.16350E+04  1.23892E+04 -2.86878E+04  2.21712E+04 -1.71160E+04
  1.50616E+04  4.71562E+03 -1.33942E+04  1.27280E+04 -2.65098E+04 -4.90577E+03 -5.72888E+03 -4.40560E+04
  2.37656E+04 -5.43455E+04  4.93157E+04 -1.87136E+04  4.53931E+04  1.73303E+04  1.85819E+04  5.17799E+04
 -2.25396E+04  4.09784E+04 -3.25103E+04  3.41448E+03 -1.24352E+04 -3.19027E+04  2.20642E+04 -3.54096E+04
  4.27378E+04 -6.05743E+03  4.40022E+04  2.95146E+04  2.21996E+04  4.85820E+04 -1.39708E+04  5.76604E+04
 -3.48259E+04  3.43856E+04 -4.89645E+04  1.58912E+04 -4.83959E+04 -1.75292E+04 -2.87712E+04 -3.12520E+04
  6.25234E+03 -4.27399E+04  3.61037E+04 -2.38122E+04  3.14664E+04  4.35542E+03  7.30500E+03  2.07623E+04
 -1.73191E+04  1.13119E+04 -1.51620E+04 -9.48556E+03  6.88030E+03 -9.78470E+03  1.58930E+04 -1.50741E+03
  1.42409E+04  1.64176E+04 -7.12978E+03  2.76811E+04 -2.68052E+04  1.53381E+04 -3.62423E+04 -1.84749E+03
 -2.97963E+04 -1.11995E+04 -1.83990E+04 -2.94955E+04  3.78991E+03 -2.76004E+04  1.94679E+04 -3.23801E+04
  3.91494E+04 -1.66854E+04  4.02528E+04  1.21607E+04  2.60407E+04  2.12522E+04  3.09220E+02  4.76961E+04
 -1.75664E+04  3.53538E+04 -2.91555E+04  8.70876E+03 -2.77286E+04 -3.11100E+03 -6.36955E+03 -1.26864E+04
  4.59755E+03  3.38342E+03 -1.13985E+04  7.68664E+03 -2.69615E+04  7.30638E+03 -2.11358E+04 -1.19052E+04
 -2.13478E+04 -2.37230E+04  6.75763E+03 -2.30172E+04  1.58750E+04 -1.99983E+04  2.11019E+04 -6.88693E+02
  9.15632E+03  1.49397E+04  4.00700E+03  2.81553E+04 -9.79865E+03  1.39673E+04 -2.85987E+04 -8.71521E+03
 -1.02980E+04 -2.83744E+04  3.19089E+03 -2.96490E+04  1.70464E+04 -2.79914E+04  2.25877E+04 -1.41338E+04
  2.35772E+04  8.11692E+02  1.86348E+04  1.10176E+04  1.06103E+04 -1.69081E+03  1.48370E+04 -1.99968E+03
  2.12106E+04  6.88352E+03  2.04593E+04  2.42013E+04  1.62507E+04  3.94203E+04 -5.71920E+02  4.86425E+04
 -2.76946E+04  3.54481E+04 -5.01226E+04  2.98980E+04 -4.67503E+04 -4.96487E+03 -4.33300E+04 -3.12573E+04
 -1.99070E+04 -4.34132E+04  1.76255E+04 -3.90815E+04  2.95810E+04 -2.16055E+04  3.06459E+04  2.99458E+02
  1.22965E+04  2.01056E+04 -1.78022E+04  1.88958E+04 -1.58150E+04 -1.17653E+03 -7.91228E+03 -1.05403E+04
  2.05885E+03 -2.71267E+04  1.82210E+03 -1.42913E+04  1.66100E+04 -1.34010E+03 -4.47008E+02  8.07217E+03
 -5.45839E+03  9.17257E+03 -8.46345E+03 -6.59403E+03  5.83736E+03 -1.93947E+04  1.03443E+04 -2.13675E+04
  2.43279E+04 -1.38636E+04  2.76159E+04  2.70297E+03  2.72526E+04  2.44245E+04  6.49853E+03  3.74368E+04
  5.30462E+03  2.87167E+04 -2.29450E+04  1.72787E+04 -2.55863E+04  6.63546E+03 -7.02826E+03 -9.12978E+03
 -6.39985E+03 -1.40973E+04 -1.31838E+03 -2.81516E+03 -4.57015E+03 -5.22477E+02 -7.92643E+03  6.00675E+03
 -1.97761E+04 -5.43272E+03 -1.99123E+04 -1.20568E+04 -9.93737E+03 -1.47943E+04  6.06700E+03 -1.90945E+04
  1.69800E+04 -6.49858E+03  4.50054E+03  6.70021E+03 -4.37338E+03  8.16598E+03 -8.64769E+03  3.07996E+03
 -1.69369E+04 -1.17907E+04 -5.92423E+02 -2.15522E+04  1.12234E+04 -1.52231E+04  2.32144E+04 -1.19992E+04
  2.72052E+04 -3.08336E+03  2.00772E+04  1.24353E+04  5.46079E+03  2.36696E+04 -6.63213E+03  1.81717E+04
 -1.56150E+04  6.04730E+03 -8.61837E+03 -7.94095E+02  3.22125E+03 -3.80063E+03  2.82617E+03 -2.96851E+03
  1.30070E+04  1.10268E+04  1.42666E+03  2.06064E+04 -1.12479E+04  1.04878E+04 -1.81937E+04  3.12008E+03
 -1.25114E+04 -1.72778E+04  3.77457E+03 -2.04771E+04  1.06379E+04 -8.37912E+03  1.28550E+04  2.44995E+03
  8.43740E+03  1.36546E+04 -6.41296E+03  1.30168E+04 -1.40973E+04  1.13472E+04 -1.68689E+04 -4.74697E+03
 -9.54273E+03 -2.23034E+04  3.67974E+03 -2.14220E+04  1.50305E+04 -1.31062E+04  1.77789E+04  6.68328E+02
  1.78350E+04  5.92080E+03  1.65274E+03  1.92426E+04 -1.16587E+04  1.12231E+04 -1.02190E+04  1.42173E+03
 -1.45390E+04 -1.18402E+04 -3.46334E+03 -1.37839E+04  1.13152E+04 -1.08994E+04  1.12494E+04 -2.09230E+03
  6.12487E+03  1.03281E+04 -7.04682E+03  4.07277E+03 -9.18397E+03 -9.22869E+03  2.70012E+02 -9.06492E+03
  8.86277E+03  7.30383E+02  1.20733E+04  3.27428E+03  1.38746E+04  6.24972E+03  7.78820E+03  2.51955E+04
 -1.44586E+04  2.35228E+04 -2.31071E+04  1.65001E+04 -2.52003E+04 -4.72578E+03 -2.22536E+04 -8.41655E+03
 -1.03196E+04 -1.89088E+04  3.90199E+03 -2.48601E+04  5.24960E+03 -1.78110E+03  3.91515E+03 -7.96817E+03
  8.13890E+03 -5.71128E+03  8.67817E+03  7.29912E+02  1.06678E+04 -7.06273E+02  1.38172E+04 -7.50725E+03
  1.32001E+04  2.02479E+03  7.95091E+03  9.03305E+03 -6.85042E+03  1.71216E+04 -1.54831E+04  7.66396E+03
 -1.65873E+04 -1.34990E+03 -1.07953E+04 -1.13362E+04 -2.50627E+03 -2.09192E+04  9.60916E+03 -1.71794E+04
  2.51835E+04 -1.45311E+04  1.92947E+04 -2.18894E+03  1.66729E+04  1.62366E+04  2.06711E+03  1.48485E+04
 -7.36205E+03  1.83807E+04 -9.17024E+03  3.87586E+03 -1.41133E+04 -3.89130E+03 -6.94866E+02  2.90652E+03
 -2.71625E+03 -1.55833E+02 -6.03248E+03  4.92636E+03 -2.20330E+03 -4.02045E+03 -7.69794E+03 -8.38306E+03
 -6.61108E+03 -1.39261E+04  3.84986E+03 -9.02529E+03  2.73662E+03 -7.51002E+03  2.05307E+04 -7.29046E+03
  1.70751E+04 -4.25472E+02  1.32877E+04  1.74873E+04 -4.06051E+03  2.44765E+04 -6.36999E+03  1.23747E+04
 -1.19443E+04  3.44293E+03 -2.21347E+04 -1.01436E+04 -2.54250E+03 -1.66230E+04  1.08506E+04 -9.81692E+03
  1.06403E+04 -7.34058E+02  4.10231E+03  7.22045E+03  2.59589E+03  7.64388E+03  2.18220E+02 -2.31907E+03
 -2.28639E+03 -1.21123E+03  9.77740E+03  1.80663E+03  8.19096E+03 -9.84301E+02  5.20794E+03  1.07782E+04
 -8.09214E+03  1.04323E+04 -7.02664E+03  1.71386E+04 -1.72697E+04  5.94198E+03 -1.68691E+04 -1.89112E+04
 -5.21516E+03 -1.49077E+04  5.74179E+03 -2.37432E+04  1.29913E+04 -2.01247E+03  1.46611E+04 -3.27731E+03
  7.13870E+03  1.00821E+03  1.93356E+03  1.04753E+04 -5.24382E+03  1.28623E+04 -3.84672E+03 -2.00350E+03
 -1.66426E+03 -6.30022E+03  6.45024E+02 -7.56661E+03  9.03587E+03 -1.73881E+03  3.17776E+03 -4.33724E+03
 -1.71665E+02  1.79670E+04  4.80407E+03  1.23185E+04  4.92811E+03  3.96497E+03 -4.52958E+03  4.84839E+03
  5.95908E+03 -7.33566E+03  1.02088E+04 -3.51057E+03  8.73107E+03  1.37455E+03 -5.87940E+03  1.05286E+04
 -7.69899E+03  6.03873E+03 -2.73596E+03  6.11357E+03 -8.57528E+03  5.79787E+02 -2.28137E+03 -1.09787E+04
  4.56055E+03 -1.25362E+04  8.83003E+03  3.89122E+03  8.57273E+03  8.74830E+03 -1.25349E+03  5.39029E+03
 -6.94784E+03 -2.15398E+03 -7.99672E+03 -4.74014E+03 -1.27507E+03 -9.70730E+03  6.97091E+03 -5.76889E+03
  9.24325E+03 -3.08406E+03  5.17807E+03 -4.20284E+03  7.29406E+03 -7.89546E+02 -5.45003E+03 -3.80957E+03
 -5.41386E+03  3.29057E+02  1.40663E+03 -3.93754E+03  1.65199E+03 -1.10976E+04  1.42647E+04 -7.24157E+03
  1.24672E+04  9.79962E+03  1.51202E+04  9.45021E+03  6.77574E+03  4.21478E+03  9.52327E+01  8.55034E+03
 -1.08707E+04  4.53867E+02 -9.95221E+03  2.44786E+03 -3.73882E+03 -9.54879E+03  6.70718E+03 -1.24466E+04
  1.30390E+04 -3.98993E+03  9.58556E+03  4.36760E+03  3.80970E+03  9.03322E+03 -2.57515E+03 -2.23716E+03
 -7.12240E+03  8.57554E+02 -1.17071E+04 -4.04057E+03 -5.31903E+03  3.88488E+03  3.11158E+02  3.26043E+03
 -6.07584E+03  5.89266E+03 -1.00874E+04  1.18123E+03 -1.66939E+04 -2.48267E+03 -1.36655E+04 -8.95380E+03
 -7.65645E+03 -2.05268E+04 -9.27654E+03 -2.04591E+04  8.15759E+03 -1.35525E+04  2.23094E+04 -4.57407E+03
  1.72641E+04  7.35261E+02  2.85210E+03  8.39547E+03  7.76998E+03  8.09143E+03  4.56544E+03  1.55368E+04
 -2.97970E+03  7.10542E+03 -4.96133E+03  4.60936E+03 -5.82833E+03 -2.00786E+03  1.70409E+02 -2.86551E+03
 -4.26582E+03 -8.78152E+01 -3.77265E+03  3.52421E+02 -6.54734E+03 -6.72598E+03 -1.92755E+03 -6.17608E+03
  1.98740E+03 -9.36750E+03  6.44869E+03 -1.03466E+03  4.04001E+03  8.31938E+03  4.20299E+03  1.56184E+04
 -7.13905E+03  1.54669E+04 -8.74286E+03  8.45400E+03 -1.43519E+04 -5.81437E+03 -1.09038E+04 -3.12560E+03
 -9.07349E+03 -1.41553E+04  3.44270E+03 -1.02985E+04  1.03215E+04 -1.14557E+04  9.73393E+03 -2.80166E+02
  7.18815E+03  1.97358E+03  3.61499E+03  7.58698E+03  6.39156E+02 -2.12581E+03 -5.06051E+03 -1.38666E+03
  8.43854E+03  6.69253E+02 -7.20130E+02  3.46127E+03 -6.25538E+03  1.97091E+03 -3.88775E+03  1.17758E+04
 -7.24387E+03  5.17240E+03 -1.07333E+04  2.19223E+02 -5.53236E+03 -1.49507E+04 -5.06102E+03 -1.47249E+04
  1.01093E+04 -3.29804E+03  1.05679E+04 -2.64917E+03  9.45503E+03  1.46762E+03  1.17340E+04  4.04676E+03
  3.65674E+02  8.23679E+03 -1.16088E+03  7.14758E+03 -8.92523E+03  8.05557E+03 -1.23541E+04  2.85087E+03
  6.27812E+02  2.27996E+03 -5.02560E+02  5.80235E+03 -7.80761E+03  2.94923E+03 -1.04129E+04 -4.67649E+03
 -3.98286E+03 -4.40414E+03 -3.44177E+03 -1.17993E+04  5.49925E+03 -1.38439E+04  7.16116E+03 -3.90040E+03
  7.31383E+03 -1.77232E+03  6.72007E+03  9.69590E+03  4.34131E+03  1.63818E+04 -8.34621E+03  4.85160E+03
