 $NMID ID='MM_0lb_SNR50_18hz_g60_80.RAW', FMTDAT='(8E13.5)'
 TRAMP=1., VOLUME=1. $END
  3.04671E+05  2.15252E+03  3.42093E+05  2.50844E+05  8.47400E+04  3.36802E+05 -1.27931E+05  2.52139E+05
 -1.88310E+05  8.33303E+04 -1.10947E+05 -3.68028E+04  2.35834E+03 -4.66341E+04  5.46629E+04 -6.46818E+01
  3.50329E+04  5.31391E+04 -1.56070E+04  7.81268E+04 -6.20000E+04  6.51198E+04 -7.93341E+04  2.99383E+04
 -8.19503E+04 -1.19215E+04 -5.67501E+04 -5.43076E+04 -1.01123E+04 -7.39211E+04  3.00084E+04 -4.32493E+04
  4.00257E+04  5.64087E+03  1.86316E+04  4.63084E+04 -3.39066E+04  4.68550E+04 -6.80660E+04 -2.12523E+03
 -5.47133E+04 -5.86088E+04 -8.05746E+03 -7.50803E+04  3.25904E+04 -5.05212E+04  4.73120E+04 -2.11375E+04
  3.89717E+04  1.20032E+04  2.96477E+04  2.35014E+04  1.50759E+04  2.59346E+04 -7.43291E+03  2.84566E+04
 -2.33952E+04  8.59679E+03 -1.90465E+04 -6.17713E+03  2.74650E+03 -8.26181E+03  1.98996E+04  1.40610E+04
  1.14945E+04  3.74621E+04 -3.01177E+04  3.61699E+04 -6.25478E+04  2.84174E+03 -6.03503E+04 -3.58184E+04
 -1.23040E+04 -6.50521E+04  3.52463E+04 -4.72623E+04  5.72502E+04 -1.82542E+03  3.47442E+04  3.19722E+04
 -6.30236E+03  3.21557E+04 -2.76970E+04  1.02010E+04 -3.05959E+04  1.80548E+03 -1.36350E+04 -1.31097E+04
 -1.11849E+04 -1.57600E+04  1.67458E+03 -1.87834E+04  8.61409E+03 -2.48171E+04  1.41549E+04 -1.70748E+04
  8.54213E+03  7.80431E+03 -1.20854E+04  1.35340E+04 -1.70091E+04 -1.09323E+03 -1.05756E+04 -3.50918E+04
  1.98204E+04 -4.22610E+04  4.76889E+04 -1.96487E+04  4.21891E+04  1.61737E+04  1.49327E+04  4.35733E+04
 -1.54116E+04  3.41132E+04 -2.27808E+04  5.34293E+02 -8.92587E+03 -2.70337E+04  2.62782E+04 -3.17669E+04
  4.09588E+04 -7.11039E+03  3.22459E+04  2.49250E+04  1.83314E+04  4.27001E+04 -1.18316E+04  4.72512E+04
 -3.12053E+04  3.18773E+04 -3.78320E+04  1.20240E+04 -3.74238E+04 -1.47612E+04 -2.07518E+04 -3.63031E+04
  7.17523E+03 -3.31716E+04  3.08966E+04 -1.51082E+04  2.89622E+04  1.07793E+04  4.02572E+03  1.53712E+04
 -1.59422E+04  6.81651E+03 -1.10846E+04 -9.65344E+03  1.01218E+04 -1.07944E+04  1.87404E+04  9.67525E+03
  1.46517E+04  2.06126E+04 -6.55357E+03  2.36297E+04 -2.15424E+04  1.04767E+04 -2.60550E+04 -6.43507E+03
 -2.08556E+04 -1.31209E+04 -5.80761E+03 -1.66560E+04  2.31784E+03 -1.65339E+04  1.19462E+04 -1.74892E+04
  2.39515E+04 -8.34915E+03  3.27669E+04 -9.95852E+02  1.96494E+04  1.97292E+04  5.97073E+03  3.46090E+04
 -1.85035E+04  3.10536E+04 -2.57041E+04  9.75301E+03 -2.13999E+04 -1.04055E+04 -7.15678E+03 -1.45854E+04
  3.45979E+03 -2.42026E+03 -3.10618E+03  6.63975E+03 -1.05652E+04  4.91400E+03 -1.86563E+04 -4.44202E+03
 -1.08584E+04 -1.34621E+04  4.80665E+03 -2.00245E+04  1.22976E+04 -1.39501E+04  1.70595E+04  1.29270E+03
  5.93090E+03  1.82104E+04  3.97523E+03  1.66907E+04 -1.30227E+04  1.35396E+04 -1.86262E+04 -2.95752E+03
 -1.21006E+04 -1.68578E+04 -9.04176E+03 -2.00566E+04  4.82517E+03 -2.45718E+04  2.01686E+04 -2.43137E+03
  1.73971E+04 -2.25996E+03  1.27165E+04  1.79894E+03  6.67876E+03  2.56582E+02  6.45323E+03  3.52922E+02
  1.50934E+04  4.89995E+03  1.36793E+04  1.57366E+04  1.17130E+04  3.12841E+04 -1.62924E+03  2.71141E+04
 -1.76389E+04  2.06408E+04 -2.98467E+04  1.55101E+04 -3.04309E+04 -4.89020E+03 -2.30899E+04 -1.55367E+04
 -1.11474E+04 -2.37786E+04  1.05484E+04 -1.79358E+04  2.27643E+04 -1.41365E+04  1.83682E+04  7.02224E+03
  5.99484E+03  1.36967E+04 -9.27347E+03  1.48272E+04 -1.07405E+04  2.85978E+03 -9.49063E+03 -7.59171E+03
  2.63799E+03 -1.64214E+04  6.72866E+03 -6.27683E+03  9.45116E+03 -1.01118E+03 -1.54354E+03  1.06701E+04
 -8.37066E+03 -1.18176E+03 -2.35422E+03 -4.48311E+03  1.18718E+03 -1.35820E+04  5.86232E+03 -1.35375E+04
  7.78046E+03  1.09698E+03  1.42746E+04  8.54961E+02  8.74977E+03  1.49020E+04  9.31761E+03  1.55093E+04
 -1.62952E+03  1.56764E+04 -1.08499E+04  1.15901E+04 -1.48501E+04  1.39799E+03 -8.31606E+03 -4.46936E+03
 -5.06018E+03 -4.07548E+03 -2.43821E+03  5.98305E+03 -1.93942E+03  1.04251E+03 -5.01272E+03  1.03255E+03
 -6.17319E+03  1.32852E+03 -8.23403E+03 -6.53372E+03 -3.79181E+03 -1.01014E+04  3.27384E+03 -1.00652E+04
  1.31569E+04 -5.49676E+03  4.44177E+03  2.51985E+03  1.50050E+03  6.53997E+03 -3.43401E+03 -2.88074E+03
 -2.45033E+03 -4.78714E+03 -1.15367E+03 -1.00412E+04  4.37858E+03 -6.08286E+03  1.25950E+04 -8.70430E+03
  1.27380E+04 -3.41569E+02  1.15203E+04  5.40847E+03  1.36934E+03  8.00045E+03 -8.76353E+03  9.11833E+03
 -8.76682E+03 -2.61563E+03 -2.82879E+03  8.86584E+02  7.05916E+02 -1.67301E+03  9.45471E+03 -2.35365E+03
  7.20569E+03  2.13536E+03  1.27757E+02  1.10016E+04 -5.22931E+03  5.96493E+03 -1.25324E+04  5.29310E+03
 -7.54216E+03 -8.17118E+03 -4.93526E+02 -7.11736E+03  4.17015E+03 -5.47121E+03  5.67266E+03 -4.94103E+02
 -6.43378E+02  3.27719E+03  5.71997E+02  6.75502E+03 -9.53250E+03  1.87791E+02 -3.31662E+03 -4.27594E+03
 -3.00854E+03 -5.47864E+03  3.31312E+03 -8.87252E+03  1.38495E+04 -5.66082E+03  5.97769E+03 -3.37677E+03
  2.26721E+03  7.97645E+03 -3.13567E+03  8.93776E+03 -6.40110E+03  7.62182E+03 -4.81849E+03  5.96389E+02
 -4.05100E+03 -2.98515E+03  2.72896E+03  3.13319E+02  3.86724E+03 -1.38144E+03  4.01196E+03 -4.03159E+03
  9.50087E+02  3.04361E+03 -3.22965E+02  1.87915E+03  7.27994E+02 -5.88764E+02  6.41518E+02 -2.19192E+03
  1.88057E+03 -4.01164E+03  9.44742E+03  4.94031E+03  4.87238E+03  3.11221E+03  7.41275E+03  1.01531E+04
 -3.07678E+03  1.22469E+04 -9.50752E+03  4.78506E+03 -1.02815E+04  3.18091E+03 -5.81147E+03 -2.26642E+03
 -1.68650E+03 -8.80308E+03  6.15041E+03 -7.18227E+03  2.36286E+03  1.52866E+03 -2.47008E+03 -8.71121E+03
  1.04393E+03  1.24648E+03  3.16520E+02 -2.22387E+03  4.89038E+03  2.66648E+03  5.53333E+02  4.65115E+03
  3.40028E+03  2.85566E+03 -1.74453E+03  4.53253E+03 -4.52693E+02  2.97969E+03 -3.16197E+03  2.87410E+03
 -2.61324E+03 -7.26261E+03 -6.51780E+03 -5.70814E+03 -9.24131E+02 -1.71356E+03  6.19834E+02 -9.61680E+03
  6.72153E+03 -9.86518E+02  1.26604E+04 -7.85923E+02  6.33403E+03  9.25239E+03  3.15090E+02  8.63118E+03
 -1.97327E+03  9.52864E+03 -2.38610E+03  1.06119E+03  1.80926E+02  8.85331E+02 -1.90508E+03 -3.89404E+03
  1.52622E+03 -3.28605E+03 -3.90589E+02  2.46588E+03 -4.10841E+03  5.51890E+03 -6.25436E+03  1.18948E+03
  1.99028E+03 -6.24022E+03  4.22102E+03 -8.14674E+03  4.56733E+03 -6.62980E+03  4.93888E+03  1.78156E+03
  6.83712E+03  3.07494E+03  3.03842E+03  3.73423E+03  1.76549E+03  2.38678E+03 -5.73194E+03  7.95467E+03
 -8.10587E+03  2.47778E+03 -2.98376E+03 -1.20335E+03  1.44576E+03 -4.94215E+03 -4.85154E+02 -3.08491E+02
  3.24903E+03  2.30060E+02 -2.72162E+02  5.81029E+02 -1.05705E+03  3.91802E+02 -4.23771E+02  8.16698E+02
  5.25287E+01  3.96862E+01  2.50374E+03  2.82255E+03  3.10466E+03  1.35033E+03  1.65763E+03  3.15964E+02
  3.73017E+03  4.96623E+03 -2.76579E+03  5.25262E+03  1.17570E+03  3.90853E+03 -2.50541E+02 -1.70893E+03
 -4.86141E+03 -4.10192E+03  3.81859E+03 -4.82312E+03  5.76224E+03 -6.22246E+02  6.14346E+03  1.05854E+03
  7.18483E+03  8.52425E+02  2.30226E+03  5.79679E+03 -8.29624E+02  3.01054E+03 -2.12882E+03 -4.27470E+03
  2.03628E+02 -2.53651E+03  1.16549E+03 -3.98551E+03 -6.06359E+02  3.65250E+03  1.82440E+03  1.28167E+03
 -9.40653E+02  1.77359E+03 -2.47666E+03 -2.16660E+03  5.63444E+03 -7.62760E+02  7.70771E+03  2.79134E+03
 -4.09432E+03  5.26298E+03  5.03880E+03  7.57242E+03  7.40077E+02  4.47071E+03 -2.07376E+03  1.52514E+01
 -1.77742E+03  1.76345E+03 -2.29094E+03  3.05141E+03 -3.93311E+03 -6.90291E+02  3.71449E+03  7.10213E+02
 -4.02027E+03 -5.82920E+03 -3.28794E+03 -2.90374E+03 -1.13559E+03 -2.88137E+02 -1.98559E+03  2.37576E+03
 -2.74094E+03  4.20773E+03 -3.60448E+03 -1.95840E+03 -8.38912E+02 -3.54925E+03  2.45379E+03 -3.18781E+03
  5.40138E+03  7.37099E+02 -4.64522E+02  1.31898E+03  6.15426E+03 -1.02633E+03 -2.30177E+03 -6.60958E+02
 -3.55201E+03 -2.48827E+03  3.18750E+02 -8.22918E+02 -6.93628E+02 -4.75715E+03  2.85286E+03 -8.73623E+02
  1.59985E+03  3.20107E+03  2.64430E+02  3.37797E+03  4.62822E+03  4.28639E+02 -2.81073E+03 -2.25991E+03
 -1.91481E+03 -2.25783E+03 -2.36976E+03 -8.65493E+02 -2.12733E+03 -6.25525E+02 -3.68766E+03 -9.85667E+02
  2.19711E+03 -5.23351E+03  2.45379E+03  1.35771E+03  1.77091E+02  3.23896E+03  2.51053E+03  1.24830E+03
 -6.13750E+02 -8.68555E+02  1.28662E+03  1.85794E+03 -6.33107E+02  7.88966E+03  4.86400E+02 -3.10446E+03
 -2.19597E+03  5.81061E+03 -3.72381E+03  2.54789E+03 -5.16545E+02  3.25189E+01 -4.48542E+02  1.41836E+03
 -3.92235E+03 -5.64118E+03  1.58988E+03 -4.46701E+03  2.69518E+03 -5.59213E+02  1.18238E+03 -7.22705E+02
  3.93444E+03  1.06411E+03  3.10196E+03  3.70210E+03  7.14084E+02 -9.17302E+02 -1.71679E+03 -9.39646E+02
 -4.44971E+03  1.28903E+03 -5.76670E+02  3.49285E+03  2.16123E+02 -3.66888E+02  2.22903E+03  1.98969E+03
  6.03753E+02 -3.16943E+03 -2.13624E+02  2.86912E+03 -1.29968E+03  2.97906E+02  3.06214E+03  2.73387E+03
 -1.96532E+03 -7.20109E+03  3.36341E+03 -1.19982E+02  1.53038E+03  2.19463E+03 -1.84689E+03  3.16025E+03
 -4.92970E+03  1.59316E+03 -2.85828E+02 -5.27503E+03 -2.00033E+03 -2.34175E+03  2.94981E+03  2.12518E+03
 -2.62327E+00 -2.15212E+03  8.26811E+02  4.67743E+02 -2.05351E+02 -2.96677E+03 -6.00252E+03 -2.19092E+03
 -2.66677E+03 -2.97329E+03 -2.82292E+03  1.27868E+03 -2.48484E+02  2.02666E+03 -1.40720E+02 -1.23821E+03
  9.85543E+01  2.77360E+02  3.12874E+03  1.06351E+03  4.96524E+03 -4.76008E+02  2.45295E+03  3.26417E+03
 -3.48041E+03 -2.35705E+02  1.37528E+03  5.92383E+02 -2.62524E+03 -2.81474E+03  7.91846E+02 -1.98992E+03
 -4.65498E+02  2.43153E+02 -3.85303E+03  1.29318E+02  3.68417E+03  2.84412E+03  3.18644E+03  3.75347E+03
  3.89901E+03  4.60545E+03 -4.77905E+03  1.84485E+03  1.52958E+03  1.93665E+03  3.74790E+03 -3.33900E+02
 -1.40345E+03  7.53918E+02 -5.91124E+03  1.49251E+03  1.86365E+03  1.58080E+03 -4.33464E+03 -2.18531E+03
 -8.34317E+01 -3.23808E+03  1.03510E+03  3.18239E+02 -9.68040E+02  6.06655E+02 -1.97411E+03  2.33880E+03
  2.50942E+03  3.04278E+03 -5.95366E+03  4.12676E+02  2.43115E+03 -1.44788E+01 -7.48982E+02  4.76527E+03
