 $NMID ID='MM_0lb_SNR50_9hz_g50_29.RAW', FMTDAT='(8E13.5)'
 TRAMP=1., VOLUME=1. $END
  3.10044E+05 -5.64311E+03  3.34392E+05  2.50806E+05  8.74119E+04  3.44690E+05 -1.34923E+05  2.54642E+05
 -1.89125E+05  8.54276E+04 -1.15426E+05 -3.64650E+04  1.75874E+03 -5.08391E+04  5.15672E+04  6.94210E+03
  3.81757E+04  5.45065E+04 -2.04862E+04  7.64883E+04 -5.57163E+04  6.18312E+04 -8.54370E+04  3.23786E+04
 -8.58100E+04 -8.39248E+03 -5.86098E+04 -5.11162E+04 -1.83454E+04 -7.06428E+04  2.93159E+04 -4.72011E+04
  4.17508E+04  7.38819E+03  1.44397E+04  4.70098E+04 -3.56103E+04  4.48375E+04 -6.97914E+04 -1.84002E+03
 -5.68170E+04 -5.51873E+04 -1.04957E+04 -8.56836E+04  2.96630E+04 -5.69449E+04  5.45734E+04 -2.00813E+04
  4.30820E+04  1.87037E+04  3.79873E+04  2.69143E+04  2.50657E+04  3.09729E+04 -4.12356E+03  2.93737E+04
 -2.52719E+04  1.93068E+04 -2.22132E+04 -3.69540E+03  6.10916E+03 -9.63527E+03  2.40792E+04  2.02994E+04
  6.19255E+03  4.16274E+04 -3.17569E+04  3.93969E+04 -6.35438E+04  7.12977E+02 -6.30344E+04 -4.18156E+04
 -1.18964E+04 -6.74701E+04  4.35579E+04 -4.64866E+04  5.92367E+04 -4.46573E+03  3.52538E+04  3.55838E+04
 -3.18787E+03  3.82463E+04 -2.46364E+04  1.93485E+04 -3.47446E+04  1.01273E+03 -2.02268E+04 -1.00063E+04
 -9.94821E+03 -1.24831E+04  2.92427E+03 -2.37578E+04  1.19638E+04 -2.39247E+04  1.74276E+04 -1.27024E+04
  7.11681E+03  3.70657E+03 -1.16542E+04  2.23740E+04 -1.91497E+04 -1.01155E+04 -1.15908E+04 -3.73324E+04
  2.54403E+04 -3.84836E+04  4.87458E+04 -1.99764E+04  4.60660E+04  1.40089E+04  1.59282E+04  5.07723E+04
 -1.04564E+04  3.32000E+04 -2.72308E+04 -3.97357E+03 -1.76666E+04 -2.80245E+04  2.13713E+04 -3.63367E+04
  4.59078E+04 -9.41885E+03  3.63395E+04  2.52499E+04  2.06981E+04  5.01758E+04 -3.99690E+03  5.74892E+04
 -3.54318E+04  4.44735E+04 -4.83394E+04  9.76926E+03 -5.24907E+04 -1.72154E+04 -2.50990E+04 -4.24742E+04
  1.14368E+04 -3.99394E+04  3.91729E+04 -1.29905E+04  3.90272E+04  1.10786E+04 -1.34733E+03  2.24995E+04
 -1.26798E+04  8.42011E+03 -1.50568E+04 -1.21108E+04  5.91337E+03 -1.24950E+04  1.74085E+04  5.50698E+03
  1.67088E+04  2.16271E+04 -3.73874E+03  2.76490E+04 -2.54174E+04  2.10247E+04 -3.39396E+04 -7.11108E+02
 -2.07799E+04 -2.14447E+04 -9.88504E+03 -3.53021E+04  5.93025E+03 -2.21280E+04  2.36499E+04 -2.18847E+04
  3.10483E+04 -1.71874E+04  3.40601E+04  1.96065E+03  2.44329E+04  2.71905E+04  1.21714E+03  4.21959E+04
 -1.87700E+04  3.69755E+04 -3.24189E+04  1.28678E+04 -3.04483E+04 -9.42616E+03  7.90324E+02 -1.30229E+04
  1.13738E+03 -3.19323E+03 -1.36808E+04  9.47218E+03 -1.40540E+04  6.41157E+03 -1.31848E+04 -7.34900E+03
 -9.50281E+03 -2.45402E+04  2.50517E+03 -2.41683E+04  1.85253E+04 -9.99993E+03  2.03967E+04  9.28478E+02
  1.24924E+04  1.27037E+04  1.47481E+03  2.29194E+04 -2.12744E+04  1.25098E+04 -2.02842E+04 -1.02764E+04
 -2.09532E+04 -1.82979E+04  2.20860E+02 -2.99628E+04  1.25445E+04 -2.00537E+04  2.39343E+04 -1.06690E+04
  2.91039E+04 -1.62292E+03  1.10080E+04 -1.60396E+03  8.88554E+03  3.57239E+03  9.54904E+03  1.68592E+03
  2.27682E+04  4.40693E+03  2.13709E+04  1.87187E+04  1.98343E+04  3.95652E+04 -1.24986E+03  4.97549E+04
 -2.14397E+04  3.28049E+04 -4.70211E+04  2.06907E+04 -4.04723E+04 -4.36716E+03 -4.02552E+04 -3.04502E+04
 -2.08455E+04 -3.54059E+04  1.43512E+04 -2.60936E+04  3.01537E+04 -2.11761E+04  1.71947E+04  3.85735E+03
  2.22149E+03  1.74414E+04 -6.28699E+03  1.08532E+04 -1.70928E+04  5.20673E+02 -1.44953E+04 -1.53692E+04
 -2.43276E+03 -2.24666E+04  9.40811E+03 -1.41734E+04  6.26935E+03  5.19136E+03  3.10025E+03  5.15105E+03
 -5.38822E+03  6.39571E+02 -1.65206E+04 -1.02370E+04 -1.27166E+03 -1.56515E+04  1.16435E+04 -1.71253E+04
  2.66190E+04 -9.56638E+03  2.25662E+04  9.49443E+03  2.04682E+04  1.92489E+04  6.68334E+03  2.90056E+04
 -3.69092E+03  3.11305E+04 -1.96082E+04  1.94857E+04 -1.54629E+04  2.11769E+03 -1.15896E+04 -1.33079E+04
 -6.98054E+03 -3.14753E+03 -2.63441E+03 -2.17661E+03 -2.17810E+03  3.76665E+03 -1.12592E+04  9.89843E+03
 -1.62394E+04 -1.31304E+02 -1.93703E+04 -1.00336E+04 -4.60966E+03 -1.93022E+04  1.19281E+04 -1.68722E+04
  8.73165E+03 -1.05225E+04  9.00063E+03  1.25157E+04 -1.85501E+03  7.35945E+03 -7.20768E+03 -8.22496E+03
 -8.68625E+03 -4.58579E+03 -6.44356E+03 -1.82697E+04  8.19795E+03 -1.79492E+04  2.12101E+04 -2.55506E+03
  2.35667E+04 -1.78784E+03  1.83678E+04  1.16213E+04  5.77431E+03  2.01335E+04 -7.79023E+03  2.23308E+04
 -8.87180E+03  4.75705E+03 -5.59672E+03 -6.05055E+03 -2.01923E+03 -6.59462E+03  1.18455E+04 -7.18609E+02
  7.85823E+03  2.87332E+03  1.65891E+03  1.18058E+04 -1.21340E+04  6.56193E+03 -1.71314E+04  5.26021E+03
 -1.60954E+04 -7.37097E+03 -3.06413E+03 -1.50567E+04  7.41490E+03 -3.92002E+03  1.05264E+04  5.40510E+02
  5.28217E+03  1.34845E+04 -9.57846E+03  1.08567E+04 -9.49161E+03  4.13526E+03 -1.54218E+04 -7.57416E+03
 -1.80431E+04 -2.24146E+04  2.50314E+02 -1.84325E+04  1.02392E+04 -1.33401E+04  1.88958E+04  3.50193E+03
  1.21456E+04  1.77914E+04 -2.75466E+03  1.54380E+04 -1.66646E+04  8.72591E+03 -8.23509E+03 -4.82537E+03
 -1.04229E+04 -1.60827E+04 -1.70641E+02 -1.42040E+04  7.82363E+03 -1.04102E+04  9.32249E+03 -7.01824E+03
  8.07022E+03 -5.05741E+03  1.01541E+03 -8.76006E+01  7.83606E+03 -4.58304E+03 -8.49897E+01 -9.67424E+03
  8.01663E+03 -3.87520E+03  1.72143E+04  3.93975E+03  1.47502E+04  1.21262E+04  1.22198E+04  1.33612E+04
 -7.02099E+03  2.21233E+04 -2.03055E+04  1.42284E+04 -2.19717E+04 -1.11078E+03 -2.50352E+04 -9.07769E+03
 -1.63327E+04 -1.54004E+04  7.54873E+02 -1.88016E+04  1.13974E+04 -1.18119E+04  4.60721E+03 -2.67617E+03
  1.98822E+03 -9.73949E+03  8.15896E+03 -6.49878E+03  5.65961E+03  3.79126E+02  1.26220E+04 -6.42671E+03
  8.49638E+03  1.10600E+03  6.66297E+03  9.14736E+03  4.62825E+02  1.32908E+04 -1.64491E+04  1.39534E+04
 -1.43751E+04 -3.12509E+03 -6.03050E+03 -5.46379E+03 -7.93686E+03 -1.85210E+04  8.39662E+03 -1.25681E+04
  1.82156E+04 -4.80252E+03  1.98880E+04  2.32986E+03  1.15376E+04  1.59666E+04  9.82600E+03  1.32294E+04
 -5.44882E+03  1.41972E+04 -1.22602E+04 -1.05222E+03 -4.68230E+03 -7.51289E+03  1.21687E+03  2.45214E+03
 -1.27596E+03 -1.62564E+03 -4.14624E+03  1.88628E+03 -8.58050E+03  7.88949E+03 -9.31949E+03  4.80776E+01
 -7.62724E+03 -1.39764E+04  6.78024E+03 -1.18853E+04  8.52631E+03 -1.55202E+04  1.53782E+04 -7.56205E+03
  1.26984E+04  9.08160E+03  4.61244E+03  1.35774E+04 -3.70095E+03  1.29338E+04 -1.38749E+04  5.15084E+03
 -5.37964E+03 -1.81512E+03 -1.39995E+04 -3.56621E+03 -5.98705E+02 -1.60374E+04  2.79378E+03 -7.00269E+03
  1.35076E+04  3.30114E+03  5.69544E+03  1.15003E+04  3.38960E+03 -1.63630E+03  1.15924E+03  5.94068E+03
  4.93478E+03 -1.93763E+03  2.60837E+03  3.88638E+03  2.05302E+03  7.80596E+03  2.71876E+03  2.86666E+03
 -5.18022E+02  1.26279E+04 -1.52967E+04  1.76131E+04 -1.39964E+04 -2.95968E+03 -1.37445E+04 -8.58518E+03
 -5.59167E+03 -7.74780E+03  3.87193E+03 -1.71237E+04  7.90148E+03 -1.24828E+04  1.08581E+04 -4.83416E+03
  7.36245E+03  5.50980E+03  3.88768E+02  7.99291E+03 -2.51251E+03  1.18335E+03 -6.27089E+03 -3.09122E+03
  1.16573E+04 -6.13167E+03 -9.71124E+01 -7.55975E+03  1.28251E+04 -6.24763E+02  6.34482E+03 -1.50178E+03
  7.24928E+03  9.20475E+02  2.28033E+03  1.78323E+03 -7.42518E+03  8.61680E+03  2.73896E+03  8.12481E+02
  4.28681E+03  2.77278E+03  6.90888E+03 -5.23721E+02  3.84000E+03  7.89161E+03  2.98138E+02  7.01111E+03
 -5.53854E+03  1.14382E+04 -1.13194E+04  9.07337E+03 -8.34714E+03  1.69831E+02 -9.38358E+02 -3.64089E+03
 -3.26364E+03 -6.75868E+03  3.66189E+03 -3.64418E+02  4.28521E+03  6.27165E+03 -4.90990E+03  9.60928E+03
  1.35547E+03  5.20335E+02 -8.80699E+03 -1.48059E+03 -1.70431E+03 -1.01883E+04 -7.34506E+02 -9.99233E+03
  3.67644E+03 -5.51670E+03  5.55010E+03  3.98990E+03  1.59124E+03 -5.05752E+01  5.09344E+03  8.35531E+03
 -4.72100E+03  3.01430E+03 -2.52723E+03  1.77557E+03 -5.23200E+01  9.14211E+02  5.54642E+03 -4.88231E+03
  7.25187E+03 -2.43104E+03  8.05904E+03  4.31013E+03  4.16984E+03  8.63700E+03 -6.82708E+03  4.47398E+03
 -9.24425E+03 -3.41291E+03 -1.20745E+04 -2.29886E+02 -6.70338E+03 -3.79575E+03 -1.80550E+03 -3.69574E+03
  9.15526E+03  2.03649E+03  8.32021E+03  3.52016E+03  8.32834E+02  9.31422E+02 -8.52599E+02  3.70759E+03
  6.98440E+03 -3.44501E+03 -9.94170E+02 -1.04301E+03 -1.95353E+03 -4.96419E+03 -2.94843E+03 -1.84207E+03
 -4.47822E+03  5.09576E+03 -3.61247E+03  1.03621E+04 -9.47273E+03 -1.12811E+03 -1.16150E+04 -1.19416E+04
 -1.24867E+04 -5.80501E+03 -3.85100E+03 -1.56114E+04  7.78976E+03 -1.55172E+04  1.15463E+04 -4.33627E+03
  1.13085E+04 -2.00799E+03  6.43335E+03  8.42349E+03 -2.36831E+03  6.34125E+03 -8.62633E+03  4.60952E+03
 -7.72162E+02  1.04972E+04 -5.54130E+03  5.49375E+03 -2.71964E+02  3.62796E+02 -2.10148E+03  4.10766E+03
 -8.24909E+03  2.96117E+03 -9.97898E+02  2.95882E+03 -4.45128E+03 -2.73114E+03  3.44369E+03 -8.78532E+02
  4.08445E+03 -1.76462E+03  6.34804E+03 -6.88845E+03  5.94743E+03  6.74138E+03  1.14443E+03  7.46260E+03
 -6.17219E+03  1.15920E+04 -4.25172E+03  3.05696E+03 -1.66949E+04 -1.32538E+04 -6.47962E+03 -4.13967E+03
 -1.20260E+04 -9.75965E+03  1.51564E+03 -1.15323E+04  6.98205E+03 -3.83306E+03 -6.71361E+02 -3.14129E+03
  1.07524E+03  3.81128E+03  1.48033E+03  3.10090E+03  2.08922E+03  6.97265E+03 -1.83595E+03 -1.08155E+03
  3.46493E+03 -4.49454E+01  7.70574E+03  4.34841E+03 -4.15818E+03  7.09698E+03  1.07153E+03  4.27866E+03
 -1.63856E+03  6.41257E+03 -3.15174E+03  3.42238E+03 -3.94239E+03 -7.33440E+03  6.05028E+03 -4.18649E+03
  7.88501E+03 -1.01701E+04  1.17172E+04 -5.72739E+02  6.89275E+03 -1.93636E+03  5.36053E+03  6.46827E+03
  7.44742E+03  5.97500E+03 -2.33078E+03  5.96635E+03 -5.04992E+03  4.19247E+03 -2.30350E+03 -6.73709E+03
 -8.97265E+03  9.43300E+00 -9.28760E+02  3.96183E+02 -4.72185E+03 -7.13204E+03 -8.62101E+03  4.44705E+03
 -3.50086E+03  1.76421E+03 -1.97730E+03  1.09009E+03 -3.15601E+03 -7.42562E+03  6.85336E+03 -1.04639E+04
  9.17821E+03  5.48569E+03 -6.59967E+02  5.76086E+03  5.58274E+03  8.71961E+03 -7.49905E+03  2.26566E+03
