 $NMID ID='MM_0lb_SNR50_20hz_g45_11.RAW', FMTDAT='(8E13.5)'
 TRAMP=1., VOLUME=1. $END
  3.14115E+05  3.27242E+03  3.36866E+05  2.54970E+05  8.14051E+04  3.39473E+05 -1.29859E+05  2.49852E+05
 -1.90316E+05  8.05814E+04 -1.10266E+05 -3.29019E+04  2.24107E+03 -4.93721E+04  5.58499E+04 -4.55527E+02
  3.63922E+04  4.84388E+04 -1.69565E+04  7.29845E+04 -5.96280E+04  6.38150E+04 -8.07020E+04  3.44885E+04
 -7.82346E+04 -1.36192E+04 -5.44817E+04 -5.13394E+04 -1.53798E+04 -6.49545E+04  2.50181E+04 -4.46965E+04
  3.70315E+04  3.02109E+02  1.51511E+04  4.15741E+04 -3.65656E+04  4.62872E+04 -6.61512E+04 -1.45974E+03
 -5.19864E+04 -5.58851E+04 -3.68289E+03 -6.98731E+04  3.27906E+04 -5.59290E+04  4.74851E+04 -1.46068E+04
  4.12522E+04  1.22652E+04  2.92267E+04  2.30398E+04  1.16435E+04  2.67076E+04 -5.21956E+03  2.54783E+04
 -2.39616E+04  1.22337E+04 -2.10925E+04 -2.48509E+03 -1.43793E+03 -6.36955E+03  2.11133E+04  6.64221E+03
  8.61385E+03  3.11937E+04 -2.70492E+04  3.51884E+04 -6.14845E+04  1.49244E+03 -5.30285E+04 -3.67815E+04
 -1.39849E+04 -6.02950E+04  3.63086E+04 -4.03728E+04  5.86562E+04 -1.55277E+03  3.43685E+04  3.29702E+04
 -7.68319E+03  3.08807E+04 -2.72394E+04  8.41264E+03 -3.02656E+04 -5.67381E+03 -9.57187E+03 -1.09229E+04
 -8.48120E+03 -1.07355E+04 -2.16449E+03 -1.56535E+04  9.62620E+03 -1.96763E+04  1.56657E+04 -1.29727E+04
  1.43372E+04  3.63216E+03 -5.47540E+03  1.60580E+04 -1.46041E+04 -2.31840E+03 -1.04865E+04 -2.83854E+04
  2.24956E+04 -4.08455E+04  4.04710E+04 -1.57288E+04  4.16915E+04  1.95257E+04  1.26316E+04  4.24628E+04
 -1.30166E+04  3.03437E+04 -2.31253E+04  2.53400E+03 -7.46666E+03 -2.86368E+04  2.20471E+04 -3.14373E+04
  4.09735E+04 -9.82833E+03  2.98267E+04  2.08519E+04  1.11149E+04  4.36164E+04 -8.33742E+03  4.34699E+04
 -3.01666E+04  2.83750E+04 -3.55265E+04  6.76270E+03 -3.50210E+04 -1.22915E+04 -2.06153E+04 -3.44715E+04
  6.78235E+03 -3.10324E+04  2.66792E+04 -1.29035E+04  2.62848E+04  1.15255E+04  5.08695E+03  1.55796E+04
 -1.21350E+04  6.29044E+03 -8.38896E+03 -8.90136E+03  6.95048E+03 -1.16749E+04  1.77257E+04  4.54180E+03
  1.23233E+04  2.35536E+04 -5.71146E+03  2.06219E+04 -1.82612E+04  8.30386E+03 -2.53623E+04 -6.41561E+03
 -1.18031E+04 -1.83717E+04 -6.89748E+03 -1.67447E+04  4.71134E+03 -1.45298E+04  1.32351E+04 -1.17270E+04
  1.62453E+04 -1.24824E+04  2.56277E+04  1.49394E+03  2.10854E+04  1.48721E+04  4.33760E+03  3.35660E+04
 -1.47079E+04  2.71246E+04 -2.49113E+04  9.20112E+03 -2.28908E+04 -1.38476E+04 -1.83512E+03 -1.31767E+04
  5.46755E+03 -5.92171E+03  2.51413E+03  2.36666E+03 -1.37356E+04  3.83527E+03 -1.14344E+04 -4.38434E+03
 -1.27432E+04 -1.54985E+04  9.09715E+03 -1.83686E+04  1.27249E+04 -1.00266E+04  1.48529E+04 -9.28923E+02
  6.45629E+03  8.59094E+03  1.87359E+03  1.96876E+04 -9.27671E+03  1.06015E+04 -1.24819E+04  5.97517E+02
 -7.63210E+03 -1.20681E+04 -8.71801E+01 -1.45231E+04  7.42032E+03 -1.72438E+04  1.44333E+04 -5.07836E+03
  9.74189E+03 -9.01272E+02  1.15182E+04  5.92151E+03  6.94104E+03 -1.15118E+03  5.04655E+03 -3.23244E+03
  1.34530E+04 -3.12730E+02  1.69861E+04  1.01179E+04  3.14121E+03  2.58931E+04 -6.95864E+03  2.25293E+04
 -1.58026E+04  1.34366E+04 -2.03271E+04  8.71147E+03 -2.62835E+04 -1.28029E+03 -2.34840E+04 -1.51247E+04
 -5.83046E+03 -1.80581E+04  2.36532E+03 -1.74858E+04  1.65554E+04 -1.05377E+04  1.65433E+04  2.32182E+01
  2.79868E+03  6.59251E+03 -6.72154E+03  1.13598E+04 -1.28800E+04  3.72230E+03 -7.09491E+03 -6.40160E+03
  5.24676E+03 -1.07384E+04  3.57634E+03 -7.29895E+03  9.72332E+03 -4.70215E+03 -3.57168E+03  5.49277E+03
 -5.22594E+03  1.52631E+03 -4.52751E+03 -3.48935E+03  3.54203E+03 -1.11772E+04  4.65496E+03 -8.58235E+03
  4.82478E+03 -4.40160E+03  9.06371E+03  5.27867E+03  7.41581E+03  8.16921E+03  1.30468E+03  1.86140E+04
 -4.07319E+03  1.37532E+04 -7.96903E+03  1.02113E+04 -1.05509E+04 -2.53495E+02 -5.16414E+03 -4.04277E+03
 -9.82103E+03 -3.26058E+03 -5.04800E+02  6.02780E+02 -4.14996E+03  2.95633E+03 -4.23348E+03  5.05493E+03
 -9.40682E+03 -1.01183E+03 -9.84522E+03 -5.75630E+03 -3.70610E+03 -1.04830E+04  3.94187E+03 -4.68854E+03
  6.66476E+03 -1.29966E+03  6.27973E+03  4.55339E+02  1.19738E+03  3.85567E+03 -3.65059E+03  1.30892E+03
 -2.69707E+03 -3.11711E+02 -5.65860E+03 -7.70528E+03  4.54206E+03 -8.50257E+03  8.84915E+03 -3.13416E+03
  1.23244E+04  1.65509E+03  1.04788E+04  3.43199E+03  3.34969E+02  8.60929E+03 -4.02986E+03  7.89527E+03
 -6.01196E+03  4.93065E+03 -5.26290E+03 -6.06174E+02  1.90997E+03 -6.63972E+03  2.70320E+03 -2.46927E+03
  4.13572E+03  3.60899E+03  1.87951E+02  3.73971E+03 -3.94715E+03  8.77838E+02 -7.53672E+02  3.78401E+03
 -2.05176E+03 -1.21630E+03  2.37303E+03 -6.40875E+03  4.12726E+03 -4.27062E+03  3.71699E+02 -1.36997E+03
 -2.40666E+03  3.84319E+03 -4.39085E+03  7.64004E+02 -4.08847E+03  3.08854E+03 -7.99247E+03 -2.10988E+03
 -1.47218E+03 -3.94972E+03  9.10550E+02 -4.22814E+03  3.20512E+03 -1.57585E+02  5.57357E+03  2.08198E+03
  4.44658E+03  5.23008E+03 -2.29201E+01  8.97900E+03 -4.37130E+03  2.52041E+03 -3.64064E+03 -4.03102E+03
 -3.13267E+03 -1.04366E+04 -2.31482E+03 -4.12079E+03  5.24602E+03 -4.24365E+03  2.36148E+02 -9.32267E+02
  6.10852E+03  2.90090E+02 -1.63961E+03  4.73267E+03  9.72623E+02  1.96706E+03  2.62873E+03 -1.09761E+03
  2.19658E+03 -1.21674E+03  6.24711E+03 -1.05114E+03  4.49828E+03  6.66328E+03  2.84904E+03  4.43079E+03
 -9.48673E+02  6.79494E+03 -3.86768E+03  4.03618E+03 -7.94436E+03  1.73303E+03 -7.14755E+03 -1.80941E+03
 -8.18749E+02 -4.86418E+03  9.81088E+02 -5.29218E+03  2.38441E+03  4.25914E+03  1.69901E+03 -1.45301E+03
  2.05482E+03 -1.37998E+03  3.20964E+03 -1.05423E+03  3.50853E+03 -4.01870E+01  5.98085E+03  1.59188E+02
  4.96175E+03  6.84915E+02 -1.99348E+02  5.64269E+03 -1.76678E+03  3.44704E+03 -7.72166E+03  2.02904E+02
 -7.96457E+03  2.11430E+03 -3.11731E+03 -3.27167E+03  2.26367E+03 -4.09613E+03  3.26496E+03 -6.50612E+03
  1.87460E+03 -2.42112E+03  7.23024E+03 -7.54679E+02  6.99051E+03  8.19582E+01 -1.01160E+03  4.35129E+03
 -2.19431E+02  4.52802E+03 -3.89869E+01  5.16734E+03 -1.60138E+03  1.48574E+03  2.26905E+03 -8.37440E+02
  2.36951E+03  1.93101E+03  5.42764E+02 -1.95596E+03 -5.85463E+03  2.06839E+03 -3.86603E+03 -1.24483E+03
  1.05067E+03 -1.16083E+03  2.85869E+03 -6.77678E+03  2.95166E+03 -3.75561E+03  3.51153E+03  2.21418E+03
  2.03577E+03  3.00951E+03  3.98560E+03  2.48472E+03  2.95389E+03  4.73567E+03 -8.44924E+02  1.30337E+02
  5.42746E+02  2.60677E+03  5.14629E+02 -7.69470E+03  1.12157E+03 -4.40062E+03 -1.86419E+03 -1.29291E+02
 -1.85145E+02 -4.25974E+03  1.48331E+03  2.48285E+02  7.64133E+02 -1.02198E+03  2.19878E+03  1.99123E+03
  9.04282E+01  2.93437E+03  4.29836E+03  2.31115E+03 -3.68450E+02  4.84437E+03  1.90134E+03  5.02395E+03
 -3.95315E+03  5.02264E+03  2.45274E+03  5.96481E+03 -1.14840E+03  5.58850E+03 -1.14944E+03  4.65161E+03
 -2.86199E+03 -5.78505E+03 -1.74150E+03 -6.24978E+03  2.72277E+03 -3.48058E+03  2.30365E+03 -1.59530E+03
  2.97161E+03 -2.10835E+03 -2.04051E+03  5.18083E+03  3.40513E+02  1.74311E+03 -2.89635E+03 -2.50701E+02
 -2.57150E+02 -3.56003E+03  7.34299E+02 -4.87780E+03  2.05133E+02 -6.15800E+02  1.53092E+03  1.86360E+03
  2.26954E+02  1.30226E+03 -1.57996E+03  1.75373E+03 -9.39806E+02  1.46400E+03  1.00951E+03  1.51171E+03
  2.84451E+02  5.25561E+03  7.02663E+02 -3.22826E+02 -1.06957E+03  5.07820E+03 -1.68608E+03  4.75605E+03
  5.71782E+02  5.21524E+03 -1.23000E+03  1.89866E+03 -1.48649E+03  2.89530E+03  3.78233E+01 -2.84342E+03
 -2.01905E+03  6.27932E+03 -1.53537E+03  2.33305E+03 -1.23104E+03  1.01591E+03 -6.59294E+03  2.56121E+03
 -4.24756E+03  6.93113E+02 -4.76352E+02 -3.08422E+03 -3.39301E+03 -4.83232E+02  7.65202E+02 -9.97086E+02
  1.78700E+03  7.25561E+02 -5.65325E+02 -1.58202E+02  1.25893E+03 -1.27532E+03  4.14380E+03 -2.47952E+03
 -1.85752E+02  1.72302E+03 -1.45459E+03 -4.67747E+03 -1.55606E+03 -8.81386E+02 -2.18604E+03 -1.39693E+03
  7.22107E+02 -1.85463E+03  4.29419E+03  3.88998E+02  4.49984E+03 -1.85314E+03  5.22451E+02  8.34849E+02
 -1.43425E+03 -2.21838E+03 -3.92408E+03  2.56356E+03 -8.69356E+02 -2.80137E+03  4.64198E+02 -1.92378E+03
  2.30164E+03 -9.98828E+02  1.18446E+03  2.61668E+03 -4.62274E+03  7.45032E+01  2.62170E+03  2.39687E+03
  1.83827E+03 -7.53045E+02 -1.47752E+03 -9.96550E+02  9.55584E+02  8.71054E+02 -2.98904E+03  2.88358E+03
 -3.56496E+03  2.02013E+03 -1.36945E+03 -2.57862E+03 -2.54391E+03  1.56575E+03 -2.67114E+03  2.40581E+03
 -1.77927E+03  2.19561E+02  6.15425E+03 -6.94106E+02 -5.18501E+02 -1.12845E+03  4.13760E+03 -2.59090E+03
  1.19453E+03 -1.37741E+03 -1.85482E+03 -2.88036E+03 -8.47745E+02  3.79678E+03 -2.77393E+03  1.04388E+03
 -4.95243E+03 -1.12677E+03 -4.55118E+03 -2.07819E+03 -6.52809E+03  1.80560E+03 -1.53018E+03 -2.07411E+03
 -6.46726E+01 -4.34011E+02 -4.65761E+03  6.87679E+01  8.28197E+02  2.29034E+02 -2.43888E+03 -5.42540E+03
  1.77056E+03 -6.79309E+02  1.87070E+03  2.47142E+03  3.01052E+02  6.85117E+02 -2.85782E+03 -1.28939E+03
 -4.24010E+03  2.58357E+03 -9.06236E+01  1.72245E+03 -6.77533E+03 -2.66038E+03  2.49865E+03 -1.56804E+03
  2.01580E+03 -1.93765E+03  5.54961E+02 -2.80269E+03 -1.03758E+03  3.91310E+01 -1.84368E+03  2.36285E+03
  4.35819E+03 -2.98473E+03 -8.92648E+02  2.84958E+03  1.29765E+03 -1.54978E+03  2.92998E+03  4.59363E+03
 -4.76835E+02 -2.61834E+03  1.28213E+03  2.39792E+03  8.82807E+02  1.55111E+03  4.17538E+03 -1.52501E+03
 -1.23951E+03 -2.12326E+03 -1.97731E+03  1.77244E+03 -1.94647E+03 -1.16531E+03  2.35329E+03 -1.77348E+03
  3.98944E+03 -2.87466E+02  3.44680E+03  6.67589E+02  3.68673E+03  1.61093E+02 -2.51166E+03 -2.35803E+03
 -3.38798E+03  1.84300E+02 -1.26434E+03 -2.11588E+03 -4.32781E+02  1.73826E+03 -2.33846E+03 -5.36314E+02
  2.11513E+03  2.67469E+03 -1.99731E+03  1.01967E+03  7.20140E+01  8.47593E+02  2.61392E+03  4.96144E+02
  1.97825E+02  2.13540E+03  1.09399E+03 -8.32030E+01  9.94161E+02 -3.09332E+03 -7.58477E+02 -3.64651E+03
 -6.13245E+02  5.25382E+01 -7.30203E+02  2.01153E+03 -2.17400E+02  8.22290E+02 -1.13402E+03 -1.43806E+03
