 $NMID ID='MM_0lb_SNR50_7hz_g40_42.RAW', FMTDAT='(8E13.5)'
 TRAMP=1., VOLUME=1. $END
  3.05211E+05  1.61473E+03  3.41647E+05  2.55330E+05  9.25612E+04  3.40577E+05 -1.30554E+05  2.58669E+05
 -1.88019E+05  8.52207E+04 -1.11212E+05 -3.19176E+04  1.91073E+03 -4.94613E+04  5.32544E+04 -3.27385E+03
  3.63030E+04  4.97793E+04 -1.01750E+04  7.56944E+04 -6.95211E+04  6.85116E+04 -9.06209E+04  3.17215E+04
 -8.34203E+04 -1.11062E+04 -5.98444E+04 -4.98946E+04 -1.57780E+04 -7.65147E+04  2.84526E+04 -4.87128E+04
  3.67928E+04 -1.20381E+03  1.17785E+04  4.96004E+04 -3.89737E+04  4.61649E+04 -6.86489E+04 -2.03100E+03
 -5.61673E+04 -6.04865E+04 -5.25747E+03 -7.60934E+04  3.94959E+04 -5.68216E+04  5.46490E+04 -1.53810E+04
  4.88234E+04  1.37185E+04  2.99888E+04  2.67812E+04  1.43165E+04  3.01074E+04 -3.66086E+03  3.08882E+04
 -2.60945E+04  1.73329E+04 -1.72560E+04 -4.17124E+03  8.40739E+03 -9.12252E+03  2.61352E+04  1.01065E+04
  8.83063E+03  3.73333E+04 -3.32782E+04  4.33120E+04 -6.46373E+04  3.14993E+03 -6.93564E+04 -4.51655E+04
 -6.72231E+03 -6.30892E+04  4.23403E+04 -4.67493E+04  6.74355E+04 -4.09279E+03  4.04778E+04  2.85009E+04
  3.17592E+02  4.07564E+04 -3.09338E+04  2.36052E+04 -4.03602E+04 -2.30654E+03 -1.81831E+04 -1.22867E+04
 -6.47473E+03 -1.18779E+04  4.36377E+03 -1.73528E+04  2.72130E+03 -1.82593E+04  1.35365E+04 -1.30462E+04
  1.26115E+04  6.10368E+03 -1.32100E+04  1.27884E+04 -2.39179E+04 -4.98272E+03 -9.90403E+03 -3.67139E+04
  2.99289E+04 -4.80052E+04  5.38233E+04 -1.73118E+04  4.90168E+04  1.30439E+04  1.67708E+04  4.87253E+04
 -1.36172E+04  3.83978E+04 -3.06361E+04  4.46406E+03 -1.48194E+04 -2.99252E+04  2.17194E+04 -3.86865E+04
  4.82456E+04 -1.45705E+04  3.86020E+04  2.83654E+04  2.59864E+04  5.05246E+04 -9.02593E+03  5.69336E+04
 -3.32327E+04  4.19529E+04 -4.90019E+04  1.13133E+04 -4.62413E+04 -2.56567E+04 -2.85811E+04 -4.00377E+04
  5.67647E+03 -4.17769E+04  3.02374E+04 -1.65775E+04  3.48052E+04  5.11256E+03  1.01426E+04  1.41786E+04
 -1.79905E+04  1.30049E+04 -1.40175E+04 -7.63975E+03 -8.14040E+02 -8.99636E+03  1.76576E+04  7.42359E+03
  1.30104E+04  3.10340E+04 -1.10612E+04  2.81673E+04 -2.78323E+04  1.14552E+04 -3.11875E+04  1.91078E+03
 -2.14138E+04 -1.86674E+04 -9.90500E+03 -2.82983E+04  6.42078E+03 -3.48001E+04  2.04084E+04 -2.94175E+04
  3.71609E+04 -1.49522E+04  3.88227E+04  9.32371E+03  2.47565E+04  2.22094E+04  8.77152E+03  4.41520E+04
 -1.81254E+04  2.96300E+04 -3.44574E+04  1.13202E+04 -2.12854E+04 -1.24081E+04 -7.56575E+03 -1.62528E+04
 -6.28402E+02 -6.18098E+03 -7.74517E+03  1.32614E+04 -1.98552E+04  3.88797E+03 -2.04965E+04 -8.55226E+03
 -1.33664E+04 -2.34100E+04  2.65686E+03 -3.39550E+04  1.49915E+04 -2.56012E+04  2.71503E+04 -1.26912E+03
  1.95014E+04  2.02324E+04 -3.58158E+03  2.03102E+04 -1.64664E+04  1.18625E+04 -3.40031E+04 -2.82885E+03
 -1.63838E+04 -2.11546E+04  5.43024E+03 -2.40099E+04  1.44634E+04 -2.72654E+04  3.29109E+04 -1.01424E+04
  2.21160E+04  5.79624E+02  1.68539E+04  8.43985E+03  1.42884E+04 -2.24646E+03  6.35497E+03 -5.88030E+02
  2.32572E+04  1.22065E+04  2.36221E+04  1.66922E+04  2.23725E+04  3.77261E+04 -5.03463E+03  4.49058E+04
 -2.98405E+04  4.03470E+04 -4.05580E+04  1.79052E+04 -4.41601E+04 -7.99328E+03 -3.90316E+04 -3.11567E+04
 -8.01308E+03 -4.06664E+04  1.72970E+04 -4.27104E+04  2.97645E+04 -2.33328E+04  2.20666E+04  6.04592E+03
  7.96815E+03  2.70067E+04 -9.61866E+03  1.88505E+04 -1.89126E+04  7.05754E+02 -6.71301E+03 -1.62674E+04
  5.58821E+02 -2.52062E+04  6.24263E+03 -2.24445E+04  1.72571E+04  6.86872E+02 -2.95786E+03  1.51552E+03
 -8.43939E+03  1.41327E+04 -3.96951E+03 -1.24348E+04 -1.20598E+04 -2.10484E+04  1.74289E+04 -1.81616E+04
  3.15177E+04 -6.94517E+03  3.08000E+04 -3.80980E+03  2.34108E+04  1.03028E+04  1.28738E+04  3.63021E+04
 -4.68786E+03  3.46981E+04 -1.92709E+04  1.77153E+04 -3.26955E+04 -1.23241E+03 -1.10370E+04  5.62207E+02
 -1.34252E+04 -1.66507E+04  6.31767E+02 -2.64912E+03 -2.51498E+03  2.00585E+03 -8.35627E+03  3.30959E+03
 -1.60628E+04  3.99689E+03 -1.01496E+04 -1.68861E+04 -3.98912E+03 -1.97840E+04  3.58476E+03 -1.03036E+04
  9.94167E+03 -8.81957E+03  6.51965E+03 -2.89291E+03  1.02937E+04  3.15532E+03 -8.71551E+03 -3.57569E+02
 -1.30403E+04 -1.11801E+04 -7.99225E+02 -1.96713E+04  9.85820E+03 -1.71525E+04  1.95454E+04 -1.90210E+03
  2.67840E+04  1.00946E+04  1.61272E+04  2.17212E+04 -9.44438E+01  1.93082E+04 -1.27971E+04  1.94237E+04
 -1.40957E+04  2.27467E+02 -4.47152E+03 -5.34753E+03  3.31126E+03 -8.74159E+03  1.39362E+04 -2.33543E+03
  9.68908E+03  5.78597E+03  4.05853E+03  5.89413E+03 -6.65251E+03  1.09674E+04 -1.42094E+04  6.43461E+03
 -8.15728E+03 -5.93258E+03 -6.44625E+02 -1.52085E+04  3.53375E+03 -7.32368E+03  9.77627E+03  9.91291E+02
  3.20781E+03  1.12757E+04 -6.35594E+03  1.47328E+04 -1.67426E+04  5.54132E+01 -1.91428E+04 -3.97349E+03
 -1.10450E+04 -2.02387E+04  6.90471E+02 -2.33388E+04  2.22258E+04 -1.01926E+04  2.05985E+04  5.94759E+03
  1.51611E+04  1.86020E+04  4.38278E+02  1.75829E+04 -1.54652E+04  4.56152E+03 -1.73461E+04 -9.76404E+02
 -1.02731E+04 -5.58368E+03 -2.31156E+02 -9.82609E+03  1.14562E+04 -8.22879E+03  8.66703E+03 -3.00026E+03
 -1.78856E+03  4.03134E+03  3.99690E+03  1.22788E+04  1.21326E+03  1.39338E+03  7.71622E+03 -8.78600E+03
  1.84831E+04 -1.07652E+04  2.00802E+04  3.65484E+02  2.36142E+04  1.57918E+04  1.78126E+04  2.99539E+04
  2.93483E+03  2.22503E+04 -1.69322E+04  1.66697E+04 -3.32682E+04  1.45221E+03 -2.33151E+04 -8.25743E+03
 -1.17537E+04 -1.71528E+04  3.47140E+03 -2.96761E+04  1.21554E+03 -1.25941E+04  6.65525E+03 -5.74783E+03
  7.37767E+03 -7.01060E+03 -2.19004E+01 -5.06376E+03  8.07560E+03 -4.19812E+03  1.35585E+04 -6.79719E+03
  1.14515E+04 -1.40606E+03  7.80288E+03  1.17140E+04  9.02497E+03  1.13847E+04 -1.43687E+04  9.13398E+03
 -1.84892E+04 -8.52822E+02 -6.63996E+03 -1.14742E+04 -7.11407E+03 -2.16896E+04  1.37481E+04 -1.75979E+04
  1.86693E+04 -6.08715E+03  2.44239E+04  4.57781E+03  1.81666E+04  2.10405E+04  1.54557E+03  2.22735E+04
 -1.69021E+04  2.01947E+04 -1.42618E+04  3.91160E+03 -2.38649E+03  3.35415E+03 -4.19626E+03 -6.09246E+03
 -2.72618E+03 -6.35692E+03  3.20276E+03 -1.18536E+03 -6.84931E+03  4.87550E+03 -1.89620E+04 -2.65388E+03
 -1.20782E+04 -7.00797E+03 -3.24144E+03 -1.33863E+04  2.11690E+03 -1.64336E+04  2.03160E+04 -6.32890E+03
  1.70017E+04  1.03824E+04  9.30004E+03  1.47838E+04 -3.48254E+03  1.46630E+04 -2.03660E+04  1.12723E+04
 -1.36071E+04 -3.61987E+03 -5.73207E+03 -8.73634E+03 -2.98982E+03 -1.62929E+04  9.28980E+03 -9.17993E+03
  1.52641E+04 -8.20868E+03  3.79105E+03  4.00079E+03  3.32515E+03  5.63814E+03 -4.44578E+03  5.64208E+03
  1.85462E+03  6.23665E+03  6.14317E+03 -9.85597E+02 -7.76290E+02 -2.99460E+03 -1.56186E+03  6.68824E+03
  5.45744E+03  1.53715E+04 -1.42346E+04  1.81819E+04 -2.05760E+04  6.29606E+03 -1.88194E+04 -1.00242E+04
 -6.78325E+03 -1.73557E+04  8.03421E+03 -1.80107E+04  1.63035E+04 -6.95614E+03  1.27239E+04  3.77676E+03
  1.81675E+04  6.04416E+03  8.68392E+03  1.11005E+04 -1.45879E+03  9.09144E+03 -8.55099E+03 -1.88317E+03
  2.15843E+03 -3.11889E+03  7.30468E+03 -4.65242E+03  3.57907E+03 -2.60676E+03  6.26851E+03 -4.34523E+02
  2.95646E+03  1.01332E+03  2.51494E+03  5.49801E+03 -5.58680E+03 -3.26909E+03 -2.89003E+03  6.36249E+03
  3.77460E+03 -6.79453E+02  6.82417E+03 -2.74740E+02  3.13041E+02  2.10622E+03  1.56601E+03  1.50180E+04
 -2.88940E+03  8.73976E+03 -8.61901E+03 -1.07183E+03 -1.13698E+04 -6.07053E+03 -6.25630E+03 -1.50629E+04
  1.29536E+03 -8.80083E+03  7.03604E+03  9.92704E+02  8.55334E+03  4.67419E+03 -1.73318E+03  4.53635E+02
 -5.17644E+03 -6.13924E+03 -1.05234E+04 -5.30919E+03 -2.66795E+03 -9.07781E+03  3.58465E+03 -3.86250E+03
  2.03717E+03 -8.83437E+03  1.04428E+04 -1.78997E+03  6.69335E+03  9.00330E+03  1.19160E+03  1.13546E+04
 -4.62762E+03  8.89339E+03  4.92938E+03 -5.00364E+03  2.29814E+03 -8.59792E+03  3.78613E+03 -7.00995E+03
  1.21397E+04 -3.78532E+02  1.16156E+04  7.94551E+03  6.82176E+02  1.27675E+04 -1.18156E+04  1.34252E+04
 -1.15678E+04 -3.42969E+02 -1.16221E+04 -7.38671E+02 -5.03078E+03 -1.60308E+04 -1.43116E+03 -5.61672E+03
  1.51663E+04 -5.16238E+03  8.20198E+01  7.66352E+03 -4.11418E+03  1.14992E+04 -4.04478E+03  7.06157E+03
 -3.85667E+02  5.27642E+03 -3.92690E+03  3.89869E+03  7.69923E+03  1.29010E+03  7.85148E+03  3.83474E+03
  1.44374E+03  1.62281E+04 -6.65853E+03  5.75761E+03 -4.76830E+03 -2.36262E+03 -1.37550E+04 -1.10394E+04
 -6.28519E+03 -2.31402E+04  9.21758E+03 -2.48632E+04  1.66943E+04 -2.37063E+04  2.21414E+04 -6.16689E+03
  1.74244E+04  7.60996E+03  1.26373E+04  1.53179E+04  2.65498E+01  1.27698E+04 -2.48099E+03  5.94646E+03
 -8.13993E+03  5.81279E+03 -2.93602E+03  3.29212E+03 -4.23965E+03 -5.53230E+03 -1.02866E+03  4.96781E+03
 -7.60035E+03  5.86710E+03  1.03823E+03 -2.69303E+03 -2.46312E+03 -9.03467E+02 -9.80813E+03 -4.81524E+03
  1.36432E+04  2.11097E+02  6.45268E+03  3.84117E+03  9.87391E+03  2.93236E+03  1.01848E+04  1.10756E+04
 -8.13562E+03  1.60970E+04 -2.04125E+04  9.17439E+03 -2.34270E+04  6.81423E+03 -3.65889E+03 -2.90904E+03
 -1.44347E+03 -1.66778E+04 -3.15866E+03 -1.21314E+04  6.70533E+03 -8.55750E+03  1.24298E+04  6.73094E+02
  1.18902E+04  2.42495E+02 -1.55808E+03  4.90929E+03 -2.64403E+03 -2.38089E+03 -3.23057E+03  8.59374E+02
  9.80124E+03 -5.20256E+03  5.59550E+03 -5.63234E+02  3.77006E+03  6.96632E+03 -1.74259E+03  1.13087E+04
 -9.19797E+03  5.23784E+03 -9.24174E+03 -2.37509E+03 -1.27744E+04 -8.00345E+03 -1.65891E+03 -1.56085E+04
  6.85903E+03 -6.71290E+03  1.24564E+04 -4.15082E+03  1.08885E+04  3.21072E+03  1.03341E+04  5.71074E+03
 -3.02202E+03  1.23442E+04 -8.22445E+03  1.12634E+04 -7.07340E+03  8.92836E+03 -6.66908E+03  4.81529E+03
  2.66272E+02 -5.31343E+03 -1.44151E+03  3.68030E+03 -2.63707E+03  8.30989E+03 -3.92140E+03 -7.38989E+03
 -8.10972E+03 -4.78140E+03  1.57976E+03 -1.60745E+04  5.31254E+03 -6.71713E+03  4.45102E+03 -1.00227E+04
  1.11348E+04 -2.53983E+03  5.00537E+03  2.95407E+03  1.50810E+03  1.48530E+04 -6.73096E+03  2.28393E+03
