 $NMID ID='MM_0lb_SNR50_18hz_g45_2.RAW', FMTDAT='(8E13.5)'
 TRAMP=1., VOLUME=1. $END
  3.11289E+05  5.17436E+02  3.38546E+05  2.48268E+05  8.60450E+04  3.36449E+05 -1.31270E+05  2.47710E+05
 -1.90587E+05  8.74054E+04 -1.10367E+05 -3.53588E+04  1.99885E+03 -5.12337E+04  5.44961E+04 -2.05820E+03
  3.44314E+04  5.32289E+04 -1.38916E+04  7.59597E+04 -5.98501E+04  5.78068E+04 -8.27266E+04  3.60192E+04
 -8.24611E+04 -1.14712E+04 -5.58299E+04 -5.11658E+04 -1.71587E+04 -6.72388E+04  2.92923E+04 -4.72097E+04
  3.98363E+04  6.01650E+03  1.72824E+04  4.50828E+04 -3.68654E+04  4.74121E+04 -6.67372E+04 -1.85047E+03
 -5.20362E+04 -5.58061E+04 -6.00178E+03 -7.30238E+04  3.27219E+04 -5.44635E+04  4.41525E+04 -1.23123E+04
  4.27270E+04  1.03014E+04  3.31549E+04  2.65737E+04  1.42760E+04  2.72924E+04 -2.34911E+03  2.66761E+04
 -2.71365E+04  1.49676E+04 -2.00739E+04 -6.59779E+03  4.42363E+03 -5.45141E+03  2.52969E+04  1.47780E+04
  8.51784E+03  3.53727E+04 -3.08462E+04  3.26709E+04 -5.88831E+04  3.08878E+03 -5.63973E+04 -3.74402E+04
 -1.20141E+04 -6.36183E+04  3.85487E+04 -4.54777E+04  5.24875E+04  5.34732E+02  2.95625E+04  2.97348E+04
 -6.23690E+03  3.55477E+04 -2.62705E+04  1.09728E+04 -2.37937E+04 -8.89730E+03 -1.16518E+04 -1.40266E+04
 -2.72414E+03 -1.24599E+04 -3.37797E+03 -1.68471E+04  1.31197E+04 -2.41951E+04  1.79893E+04 -1.08115E+04
  1.26569E+04  1.53905E+03 -3.94886E+03  9.74411E+03 -2.15196E+04 -2.84222E+03 -1.17912E+04 -2.82347E+04
  1.76634E+04 -3.85415E+04  4.59031E+04 -2.09166E+04  3.99899E+04  2.01005E+04  1.33982E+04  4.53420E+04
 -1.81376E+04  3.27664E+04 -2.81788E+04 -4.43772E+03 -1.01590E+04 -2.57796E+04  2.03566E+04 -2.85669E+04
  3.81733E+04 -4.36828E+03  3.64478E+04  2.27542E+04  1.55103E+04  4.09143E+04 -4.09843E+03  4.76876E+04
 -2.53333E+04  2.95488E+04 -3.59557E+04  8.52437E+03 -3.47062E+04 -1.47808E+04 -2.60901E+04 -3.47349E+04
  6.94518E+03 -3.77535E+04  3.07571E+04 -1.12622E+04  3.12464E+04  1.32419E+04 -1.40547E+03  1.82674E+04
 -1.52295E+04  5.82587E+03 -1.32444E+04 -4.18833E+03  4.48234E+03 -7.09041E+03  1.63941E+04  4.83979E+03
  1.37252E+04  2.27971E+04 -1.79208E+03  2.68282E+04 -1.93669E+04  7.70091E+03 -2.48175E+04 -6.28626E+03
 -1.49656E+04 -1.79263E+04 -1.35351E+03 -1.97878E+04 -1.81015E+03 -1.68046E+04  1.20689E+04 -1.40250E+04
  1.72161E+04 -1.61665E+04  3.19634E+04  8.96923E+03  2.48634E+04  1.89072E+04  4.63199E+03  3.28494E+04
 -1.49393E+04  2.72733E+04 -2.84039E+04  7.44836E+03 -2.12370E+04 -7.17670E+03  3.08009E+03 -1.21413E+04
  5.49392E+03 -3.99439E+03 -7.94763E+02  5.91678E+03 -9.50024E+03  4.15784E+03 -1.35235E+04 -4.54126E+03
 -6.87868E+03 -1.43595E+04  4.32018E+03 -2.37954E+04  7.29413E+03 -1.79475E+04  1.61815E+04 -3.71593E+02
  1.18038E+04  1.09358E+04 -1.51716E+03  1.36422E+04 -5.08605E+03  9.43729E+03 -1.00391E+04 -7.92649E+03
 -8.49011E+03 -1.01623E+04 -4.52185E+03 -1.91415E+04  6.77735E+03 -1.42824E+04  1.66199E+04 -1.23338E+04
  1.60615E+04  4.74547E+01  1.43418E+04  3.68925E+03  8.50793E+03  5.06912E+03  6.43573E+03 -1.63268E+03
  1.27256E+04  4.93061E+03  1.51720E+04  1.45950E+04  1.28469E+04  2.25589E+04 -3.91703E+02  2.82174E+04
 -1.92830E+04  2.18321E+04 -2.27617E+04  7.06899E+03 -2.40563E+04 -4.17305E+03 -2.14328E+04 -1.04599E+04
 -1.23114E+04 -1.76752E+04  2.79156E+03 -1.78463E+04  1.79753E+04 -1.05736E+04  1.38434E+04  3.34461E+03
  8.35609E+03  1.11142E+04 -7.67095E+03  1.13457E+04 -1.50107E+04  4.08155E+03 -1.21522E+04 -6.58836E+03
 -1.92080E+03 -1.46193E+04  7.60218E+03 -1.01343E+04  1.15752E+04 -1.89679E+03  1.04412E+03  3.05047E+03
 -8.27503E+02  1.73561E+03 -3.12142E+03 -5.21782E+03  3.11647E+03 -1.50196E+04  6.28064E+03 -9.81874E+03
  1.00447E+04 -3.41061E+03  1.21360E+04 -4.77454E+02  3.80926E+03  1.21054E+04  7.51053E+03  9.70152E+03
 -1.50930E+03  1.72985E+04 -1.22557E+04  1.26120E+04 -1.24840E+04  4.47520E+03 -9.80983E+03 -1.06984E+03
 -4.79387E+03 -3.23415E+03 -1.73686E+02  9.75237E+02 -2.67055E+03  4.45899E+03 -4.24829E+03  2.60367E+03
 -1.03974E+04 -3.12685E+03 -1.22248E+04 -4.85315E+03 -1.93186E+03 -9.44748E+03  7.32713E+03 -9.17903E+03
  6.03569E+03 -2.92038E+03  2.40432E+03  2.16986E+03 -1.68937E+03  6.32407E+02 -2.20806E+03 -6.39992E+02
 -1.94506E+03 -4.22438E+03 -2.67039E+03 -7.48018E+03  4.00455E+03 -4.53850E+03  9.33474E+03 -5.16919E+03
  1.09163E+04 -1.01029E+03  1.41973E+04  4.32214E+03 -9.40185E+02  8.18174E+03 -6.56375E+03  9.42699E+03
 -5.72089E+03  1.74488E+03 -8.07604E+02  1.31986E+03  1.74601E+03 -2.66318E+03  6.66807E+03  2.69772E+03
  2.78302E+03  6.07452E+03  5.05183E+03  3.98046E+03 -3.47584E+03  5.15998E+03 -4.49548E+03  1.76120E+03
 -3.09643E+03 -5.42064E+03  1.09333E+03 -2.15820E+03  4.09547E+03 -4.50514E+03  4.92936E+03 -4.04374E+02
 -6.42171E+03  2.58029E+03 -1.15106E+03  1.01117E+04 -5.08018E+03  1.45597E+03 -6.59037E+03 -3.56966E+03
 -3.71932E+02 -6.73502E+03  9.00169E+02 -5.33010E+03  8.57275E+03 -2.33757E+03  2.31716E+03  1.14696E+03
  5.88397E+03  5.05848E+03  4.22962E+03  5.15213E+03 -5.37190E+03  1.47296E+03 -5.66495E+03  3.73491E+03
 -5.78206E+03 -3.13887E+03 -2.15373E+03 -5.72339E+03  2.57930E+03 -6.10975E+03 -5.27606E+01 -4.53495E+03
  2.96801E+03 -5.11509E+02  7.82962E+02 -1.20994E+03  7.35806E+02  2.12518E+03 -3.44160E+03 -1.99861E+02
  4.28170E+03 -7.33969E+02  8.90910E+03  2.41589E+03  5.61765E+03 -1.44796E+03  2.41475E+03  5.50086E+03
 -1.10634E+03  6.73328E+03 -4.92847E+03  8.77283E+03 -1.47891E+04  1.11528E+03 -5.69376E+03  1.81399E+03
 -2.96166E+03 -8.25210E+03 -1.79758E+03 -5.51382E+03  1.61835E+03 -4.04601E+03 -1.85429E+03 -3.57291E+03
 -2.33304E+03 -4.31906E+03  4.50950E+03 -4.00273E+03  1.27135E+03  2.63482E+03  3.31225E+03  1.77309E+03
  6.42052E+03 -5.80016E+02 -6.40801E+02  1.38592E+03 -2.31073E+03 -1.27380E+03 -5.91098E+03  8.48359E+02
 -8.12592E+03 -2.93801E+02 -5.35382E+03 -4.79532E+03  1.06385E+03 -2.02235E+03  2.28955E+02 -7.44674E+03
  6.24492E+03 -2.38523E+03  3.09312E+03 -3.10866E+03  5.93134E+03  3.90191E+03  5.40780E+02  1.14662E+04
  5.48073E+03  5.28942E+03 -8.38390E+03  1.20431E+03 -1.16982E+03 -2.97346E+03 -2.10173E+02  1.99898E+03
 -2.79754E+02 -1.34883E+03  1.12143E+02  3.64589E+02 -1.10934E+03  4.39323E+02 -4.17785E+03 -1.07114E+03
 -3.01345E+03 -4.81300E+03  1.18083E+03  4.42534E+02  4.44480E+03 -1.00969E+04  5.98069E+03 -6.80962E+03
 -3.36811E+03  6.47561E+03  2.67060E+02  1.92368E+03 -4.36928E+03  5.84846E+03 -5.61057E+02  1.23561E+03
 -5.12298E+03  2.58782E+03 -6.05968E+03 -9.14965E+03 -1.58116E+03 -3.66108E+03  3.80450E+03 -1.54663E+03
  5.02266E+03 -1.47862E+03  1.32102E+03 -2.80079E+03  1.81693E+03  2.24371E+03  7.69481E+02 -2.55527E+03
  2.16381E+03 -9.61030E+02  8.20675E+02  8.38090E+01  1.76371E+02  2.03766E+03  1.28715E+03 -2.07550E+03
 -1.48586E+03  2.95291E+03 -1.03095E+03  6.41136E+03 -2.69980E+03  1.92870E+03 -4.41716E+03 -7.74092E+02
 -1.22440E+03 -4.82676E+03  6.64199E+02 -3.61283E+03  4.83798E+03 -3.52462E+03  3.97678E+03 -5.79098E+03
 -2.35045E+02 -5.92097E+02 -1.21608E+03 -6.97011E+02  5.83813E+02  1.28105E+03 -1.86093E+03 -4.99106E+03
  2.21129E+03  4.04353E+02 -3.29549E+01 -1.21639E+03  9.32390E+02 -2.87187E+02  2.31305E+03  2.54970E+02
 -2.64156E+02 -3.81606E+02  2.12664E+03  8.59356E+02 -3.32678E+03  1.41541E+03  4.20422E+03 -6.71474E+02
  1.56001E+03  1.88309E+02  3.63415E+02 -5.10625E+02  3.70279E+03  6.46339E+03  2.06618E+03  4.32498E+03
 -4.98913E+03 -4.41279E+03 -7.77639E+02  3.04429E+03 -3.32753E+03 -3.65205E+03 -3.20744E+03 -2.21285E+03
  2.81613E+03 -1.96496E+03  1.93057E+03  3.95823E+03 -1.15231E+03 -1.79089E+03  1.51990E+03  2.32190E+03
  3.88107E+03  1.63597E+03 -3.04422E+02 -1.90587E+03  9.25439E+02 -3.30503E+03  4.61141E+02 -2.84133E+03
 -3.70348E+03  1.37384E+03 -2.25909E+03  4.54068E+02 -4.66600E+03 -3.48574E+03  2.51200E+03  1.83336E+03
  8.02523E+02  8.17203E+02 -2.61686E+03 -6.07304E+02  4.10647E+03  6.21594E+01  5.02510E+03 -1.35235E+03
  4.71323E+03  2.28159E+03  3.78189E+03  3.36440E+03  2.26935E+03  1.84993E+03  1.74225E+03  1.24697E+02
 -3.83442E+03  2.80238E+03 -4.02836E+03 -2.27446E+03  2.02155E+03 -2.75795E+03 -5.87872E-01 -1.91308E+03
 -1.20345E+03 -9.44977E+02  3.47680E+03 -9.12022E+02  5.31141E+02  2.71297E+03  2.83572E+03 -8.76938E+02
 -6.97234E+00 -9.32623E+01 -1.41395E+03  7.44153E+02  1.03552E+03  2.32656E+03  1.74140E+03  1.92912E+03
  2.52589E+03  2.50753E+03  1.18259E+03 -3.25975E+03 -5.42894E+02 -2.55438E+03 -2.10500E+03 -2.69041E+03
 -2.80812E+03 -3.22604E+03  1.78497E+03 -3.45131E+03  1.04804E+03 -6.05686E+03  6.48059E+03  1.89616E+03
  5.19664E+03  1.83097E+03 -4.17544E+02  1.50053E+03 -2.51443E+03  3.69581E+02  6.06013E+02  3.16038E+03
 -1.22038E+03 -6.25420E+02  1.03994E+03 -1.08954E+03 -4.88781E+03  6.84961E+01 -4.43248E+02 -3.58797E+03
 -2.50471E+03 -1.84898E+03  3.96943E+03  1.99175E+03  4.74874E+03  2.40106E+03 -1.14728E+03  1.85550E+03
  4.04544E+03  9.78257E+02  3.89860E+03  5.65529E+02 -4.06210E+02 -1.70321E+03 -2.20317E+03  3.25302E+03
 -2.41275E+03  5.78096E+03 -4.24032E+02  1.70623E+03 -1.95078E+03  5.72455E+03 -9.74845E+02  4.81274E+03
 -1.80680E+03 -6.94968E+02  5.73089E+02 -6.79138E+03  4.51804E+03 -4.27783E+02 -8.27739E+02 -4.67458E+03
  1.46649E+02  1.87690E+03  4.74562E+02 -9.97469E+02 -2.60418E+03  5.64072E+02  1.57749E+01 -3.71067E+03
 -2.66613E+03  1.10659E+02 -1.61343E+03 -1.32531E+03 -1.19899E+03 -1.89382E+03  1.15328E+03 -5.51376E+02
 -2.76350E+03  1.95208E+03  3.69757E+03  3.44642E+03  3.84370E+02  2.97593E+03 -4.51057E+03 -3.92995E+03
  2.72675E+03 -5.15645E+02  2.15874E+03  1.12848E+03  2.17096E+03 -1.31205E+03  2.02011E+03 -2.79785E+02
  2.52090E+03  1.18569E+03 -3.84065E+03 -1.89719E+03 -1.86408E+03  3.66093E+03  2.38452E+03 -1.69852E+03
 -4.95408E+02 -2.59076E+03 -2.30854E+03  2.21318E+03  4.69110E+02 -2.66019E+03 -1.03658E+03  2.38640E+03
  1.15368E+03 -3.37658E+03 -1.88828E+03 -2.81581E+03  1.38674E+00 -4.68684E+03  3.67769E+03  2.02525E+03
  1.64585E+02 -8.47173E+02 -5.84884E+01  2.29541E+02 -4.15238E+03 -5.24232E+03 -2.21850E+03  2.01059E+03
