 $NMID ID='MM_0lb_SNR50_20hz_g45_79.RAW', FMTDAT='(8E13.5)'
 TRAMP=1., VOLUME=1. $END
  3.08424E+05 -1.62542E+03  3.38265E+05  2.46835E+05  8.70648E+04  3.30934E+05 -1.33069E+05  2.47936E+05
 -1.86881E+05  8.37057E+04 -1.09237E+05 -2.97553E+04  8.32808E+02 -4.86927E+04  5.47596E+04 -7.67110E+02
  3.64472E+04  5.19096E+04 -1.93475E+04  7.61067E+04 -6.13792E+04  5.94340E+04 -8.22178E+04  3.02576E+04
 -8.11530E+04 -9.65003E+03 -5.59036E+04 -5.14684E+04 -1.62213E+04 -6.78502E+04  2.79955E+04 -4.62355E+04
  4.09127E+04 -7.67856E+02  1.41758E+04  4.64734E+04 -3.16141E+04  4.72072E+04 -6.71573E+04 -5.20312E+02
 -5.02583E+04 -5.36350E+04 -8.00691E+03 -7.29144E+04  3.26984E+04 -5.38780E+04  4.57022E+04 -1.14859E+04
  4.18424E+04  6.93747E+03  3.03649E+04  2.21197E+04  1.42376E+04  2.72707E+04 -3.70205E+03  2.52151E+04
 -2.16015E+04  1.03588E+04 -1.79439E+04 -5.33963E+03  3.20036E+03 -6.93823E+03  1.94959E+04  7.85447E+03
  9.86627E+03  2.82364E+04 -2.78706E+04  3.26116E+04 -5.82389E+04  1.90286E+03 -5.15160E+04 -3.91292E+04
 -1.04786E+04 -6.20547E+04  4.48374E+04 -4.64033E+04  5.54479E+04 -1.80423E+03  3.24388E+04  2.76650E+04
 -4.20277E+03  3.36975E+04 -2.77828E+04  1.22466E+04 -2.74603E+04 -4.57924E+03 -1.33310E+04 -7.89611E+03
 -1.15491E+04 -9.71030E+03 -3.33231E+03 -1.67018E+04  5.03254E+03 -2.12782E+04  1.53218E+04 -1.50334E+04
  1.74923E+04  6.41925E+03 -1.16409E+04  1.14923E+04 -1.74410E+04 -5.27172E+03 -1.66760E+03 -3.02783E+04
  2.03486E+04 -3.82875E+04  4.33844E+04 -2.15736E+04  4.21948E+04  1.77537E+04  1.47970E+04  3.76487E+04
 -1.34876E+04  2.95631E+04 -2.58959E+04 -8.43931E+02 -1.08051E+04 -2.52178E+04  2.12413E+04 -2.75221E+04
  3.58486E+04 -1.70806E+03  3.38785E+04  1.95500E+04  1.64761E+04  4.21657E+04 -9.53208E+03  4.39230E+04
 -2.95111E+04  2.70416E+04 -3.50587E+04  8.89000E+03 -3.15938E+04 -1.86948E+04 -2.55268E+04 -3.21600E+04
  2.67755E+03 -3.49545E+04  2.74989E+04 -1.22579E+04  2.41061E+04  9.45155E+03  3.30185E+02  1.16274E+04
 -1.37073E+04  7.85942E+03 -9.33632E+03 -8.92160E+03  5.79221E+03 -1.22874E+04  1.46565E+04  8.08410E+03
  9.51373E+03  2.27953E+04 -4.78677E+03  2.30691E+04 -2.17444E+04  2.48172E+03 -2.35082E+04 -5.09788E+03
 -1.62221E+04 -1.59269E+04 -5.05569E+03 -1.50295E+04  5.32354E+03 -1.39067E+04  1.39154E+04 -1.43519E+04
  2.08194E+04 -1.25851E+04  2.61259E+04 -1.05367E+03  2.09689E+04  1.77398E+04  8.13734E+02  2.98047E+04
 -1.08323E+04  2.84269E+04 -2.69329E+04  8.93975E+03 -2.28404E+04 -1.01948E+04 -1.06615E+03 -9.64620E+03
  2.81392E+03 -4.42065E+03 -3.13633E+03  4.73952E+03 -1.28263E+04  4.13073E+03 -1.28192E+04 -4.85691E+03
 -6.31707E+03 -1.53156E+04  4.31322E+03 -2.12294E+04  1.56076E+04 -1.76103E+04  1.21746E+04 -6.93138E+03
  9.13759E+03  1.20237E+04  2.83473E+03  1.35170E+04 -1.05203E+04  5.17010E+03 -1.19801E+04 -2.86740E+03
 -1.43730E+04 -1.25975E+04  4.11181E+02 -2.01846E+04  1.20057E+04 -1.56498E+04  1.24270E+04 -9.61418E+03
  1.02700E+04  5.07412E+03  7.43199E+03  2.46301E+03  5.34753E+03 -1.02137E+03  4.87510E+03  2.21083E+02
  1.51670E+04  3.40064E+03  1.26470E+04  1.43095E+04  7.37777E+03  2.23495E+04 -3.50885E+03  2.48551E+04
 -1.19478E+04  1.90095E+04 -2.15131E+04  7.60835E+03 -2.08335E+04  5.93321E+02 -1.94513E+04 -1.15538E+04
 -1.06896E+04 -1.83555E+04  9.19904E+03 -1.86270E+04  1.45489E+04 -8.62044E+03  1.69538E+04  6.18085E+02
  3.28789E+03  1.03324E+04 -7.65289E+03  8.12732E+03 -1.13025E+04  3.40267E+03 -6.03383E+03 -1.02686E+04
 -8.45415E+02 -1.13877E+04  1.88963E+03 -1.12801E+04  9.13690E+03  2.55122E+03 -2.93100E+03  3.10428E+03
 -8.31941E+03  2.09806E+03 -4.15364E+02 -5.17094E+03  3.97776E+03 -1.10569E+04  7.99190E+03 -1.07501E+04
  7.96476E+03 -4.96738E+03  8.95136E+03  1.49211E+03  8.04043E+03  8.89171E+03 -7.97557E+02  1.25574E+04
 -3.53497E+03  1.35587E+04 -4.05243E+03  8.11536E+03 -1.04495E+04  5.87765E+03 -6.59059E+03 -3.12604E+03
 -3.33273E+03 -6.61727E+03  8.45495E+02  2.88797E+03 -2.07559E+03  1.79433E+03 -3.50901E+03  5.79976E+03
 -7.67334E+03  2.76059E+03 -9.93832E+03 -3.85113E+03 -4.42855E+03 -6.43828E+03  1.05957E+03 -9.30611E+03
  5.18443E+03 -1.64996E+03  4.66450E+03  2.12058E+03 -3.22062E+03  3.45449E+03 -2.95180E+03 -2.05658E+03
  3.51336E+02 -7.34034E+03 -3.85909E+03 -8.29382E+03  1.82503E+03 -6.23024E+03  8.17213E+03 -5.97743E+03
  9.11901E+03  3.21111E+03  8.94254E+03  8.22946E+03 -1.08969E+03  2.58642E+03 -4.76582E+03  9.48102E+03
 -4.59607E+03  4.38221E+03 -3.09344E+02 -3.12405E+03  4.10358E+02 -2.49094E+03  5.08129E+03 -2.39217E+03
 -2.70243E+03  7.58896E+03  1.70501E+03  2.69451E+03 -1.85947E+03  7.77188E+03 -7.09246E+03  2.55596E+03
 -7.17787E+03 -5.21684E+03 -2.17931E+03 -6.89558E+03  1.82377E+03 -5.74868E+03  3.18943E+03 -5.21903E+02
  4.16051E+03  1.79628E+03 -8.18959E+03  1.17260E+03 -3.65210E+03  3.90084E+03 -2.01959E+03 -4.42368E+03
 -4.55493E+03 -4.37002E+03  3.85769E+03 -4.75081E+03  8.55954E+03 -5.49182E+03  7.83255E+03  2.44922E+03
  6.36354E+03  5.95121E+03  1.04310E+03  6.88286E+03 -8.45808E+02  4.42806E+02 -6.22080E+03 -2.31823E+03
 -6.15023E+03 -7.75993E+03 -3.32353E+03 -4.51713E+03  4.29940E+03 -6.21302E+03  3.31478E+03 -3.31981E+03
  2.44929E+03  3.90072E+03 -2.69686E+03  6.29823E+03 -5.13902E+02  2.73660E+02  4.41216E+02  3.54114E+03
  6.38802E+03 -1.04640E+03  4.21570E+03 -9.54259E+02  5.69895E+03  5.73313E+03  7.83727E+03  7.27771E+03
 -1.20069E+03  7.72502E+03 -8.76672E+03  7.23690E+03 -5.73426E+03  4.54591E+02 -6.75994E+03 -4.31453E+03
 -4.02575E+03 -2.43607E+03 -6.60378E+01 -4.17750E+03  2.93641E+03 -3.44976E+03  2.59716E+03 -8.37899E+02
  3.08405E+03  6.96982E+02  2.31645E+03 -5.44093E+03  3.68530E+03 -2.92245E+03  1.76825E+03  2.69042E+02
  6.33227E+03  2.91096E+03  4.51909E+03  2.87460E+03  7.30069E+02  3.00422E+03 -3.20314E+03  2.22078E+03
 -2.08353E+03  7.32071E+02 -2.78411E+03 -3.34925E+03 -1.00505E+03 -6.90515E+03  4.03285E+03 -3.93303E+03
  4.16614E+03 -2.29141E+03  4.81907E+03 -3.18004E+03  6.86889E+03  6.17815E+02 -3.16262E+03  5.42666E+03
 -9.65527E+02  8.21117E+03  1.05536E+03  1.37336E+03 -3.56764E+03  4.56840E+03 -2.40304E+03 -3.13478E+02
 -2.29063E+03  1.56066E+03  3.71840E+03 -1.26574E+02  1.11368E+02  1.93508E+03 -2.83816E+03  6.85524E+02
 -2.02517E+03 -1.03463E+04  4.55756E+02 -3.84392E+03  2.56261E+03 -6.78310E+03  2.98892E+03 -2.13800E+03
  5.08657E+03 -3.07131E+03 -9.69452E+02  4.53914E+03 -1.66679E+03 -7.27261E+02 -2.55527E+03  2.02539E+03
 -3.15641E+03 -6.23618E+03 -3.50392E+03 -2.05482E+03  3.67197E+03 -2.61434E+03 -6.32098E+02 -3.34937E+02
  3.49646E+03 -3.30428E+03  1.19052E+03 -2.26957E+03 -5.03888E+02  4.71280E+03  8.35878E+02 -1.67193E+03
  6.81508E+02 -1.89598E+03  4.48766E+03  4.79507E+03  2.30931E+03  1.79319E+03 -6.30896E+02  2.48632E+03
 -2.30663E+03  4.84677E+03 -6.11684E+02  1.94231E+02 -1.77306E+03  1.77230E+03  4.26511E+02 -3.16098E+02
 -9.57576E+02 -3.81547E+03  2.62890E+03 -1.31453E+03  3.67077E+03 -6.09164E+02  2.34317E+03  2.45112E+02
  4.72532E+03  1.86490E+03 -7.33620E+02  6.23315E+02  2.51706E+02 -1.94343E+02  2.75357E+03  1.19912E+03
  2.89321E+03 -5.58483E+02 -3.35103E+03  1.39305E+03 -4.94975E+02 -2.76208E+03  1.35529E+03  2.21123E+03
  1.80731E+01  2.63404E+03  2.35329E+03 -2.20236E+03  2.17781E+03  6.49904E+02 -2.72258E+02 -9.00970E+02
 -3.65470E+03 -8.04255E+02 -4.74420E-01  3.39903E+03 -3.76156E+03  1.56488E+03 -5.18050E+03  1.50367E+03
 -1.90884E+03  3.22829E+00 -4.94701E+02 -4.72547E+02 -2.58955E+03  1.10652E+03 -3.57795E+03 -1.03558E+03
  1.27021E+03 -3.95538E+03 -9.99648E+02 -1.37680E+02 -4.02971E+02  5.75388E+03 -4.65728E+03  5.04751E+03
  4.07702E+02  4.03353E+03  6.50245E+02 -5.68072E+02 -3.28906E+03  3.56327E+02  5.20950E+02 -5.80057E+02
  1.38215E+02 -2.72909E+03 -1.02006E+03  5.11659E+01  2.39315E+02  2.33378E+03  5.03091E+02  2.57538E+03
  4.64866E+02 -7.08837E+01 -2.85830E+03  2.55612E+03  2.15638E+03  8.28056E+01 -2.17976E+03 -3.07768E+03
 -1.68240E+02 -2.76342E+03  2.30378E+03 -2.73725E+02  1.55936E+03  1.94365E+03 -1.96548E+03 -5.16695E+03
  3.68727E+03  6.22534E+03 -8.87770E+02  1.61761E+03  1.45442E+03 -1.03911E+03  6.28444E+03 -2.79738E+03
  1.24625E+03  2.34943E+03 -1.29931E+03 -1.71139E+03 -1.04525E+03  3.19308E+03 -6.51194E+02 -1.41761E+03
 -2.69246E+03  2.65148E+03 -3.54524E+03  2.85945E+03  2.09818E+03  4.79994E+02 -1.81214E+03 -1.93101E+03
  6.69340E+02  3.87956E+03 -3.33871E+03 -1.69415E+03 -3.91627E+03  1.53589E+03  5.71282E+02  8.39754E+02
  2.17554E+03 -2.20898E+03  3.18461E+03  2.34314E+03 -1.42835E+03 -9.32985E+02  4.81899E+03 -4.05084E+01
  1.70215E+03 -1.02464E+03  2.74464E+03  2.87668E+03 -2.05517E+03  2.74399E+03  4.58126E+02  3.40731E+03
  4.19954E+01  1.55137E+03 -5.39733E+03  1.05937E+03 -3.29754E+03  2.35023E+03 -1.47124E+03 -4.02085E+02
 -2.39086E+03 -9.43154E+01 -4.12559E+03 -4.32827E+02 -5.62405E+02 -3.87337E+03 -1.18472E+03  2.75240E+03
 -7.73983E+02 -2.96381E+03 -9.92382E+01  1.04254E+02  2.85912E+03 -6.22095E+02  4.74844E+02 -1.69356E+03
 -3.82677E+03  2.52294E+03  1.09623E+03 -8.61537E+02 -4.26917E+02 -3.91378E+02 -1.41939E+02 -1.24316E+03
 -1.18581E+03 -1.05668E+03  5.63433E+02  4.98475E+03  5.85745E+02  2.35508E+02  2.98542E+03 -7.17092E+02
  1.48799E+03 -6.12464E+02 -2.98466E+03  3.26532E+03  1.31863E+03 -4.24685E+02  6.93682E+02  8.58018E+02
  2.02019E+03  3.02754E+03 -1.26960E+02 -5.42731E+02  2.39017E+03 -1.36473E+03 -2.07849E+03 -3.14170E+03
 -4.24651E+03  6.67607E+02 -3.22706E+03 -1.40350E+03 -2.67918E+03  7.39455E+02  7.85045E+01 -1.69558E+03
  2.89521E+03 -4.22686E+03 -3.40943E+03  1.14810E+03  1.52489E+03 -1.46143E+03 -2.01236E+03  5.20134E+03
 -8.22896E+02  1.05335E+03 -4.19622E+03  2.48003E+03 -6.18480E+02  1.04151E+03  9.03038E+02  5.83318E+02
 -4.11710E+03  5.70204E+02 -4.55179E+03  1.71125E+03  2.25422E+03 -1.74491E+03 -1.67887E+03 -1.96868E+02
 -6.20692E+02  4.24503E+02  2.20075E+02  6.95285E+02 -3.52945E+02 -2.39072E+03  1.69912E+03  1.83082E+03
 -2.00059E+03  3.50513E+03 -1.98975E+03 -8.71526E+01 -2.97898E+03 -1.92160E+03 -2.09434E+03  1.65146E+03
