 $NMID ID='MM_0lb_SNR50_15hz_g50_87.RAW', FMTDAT='(8E13.5)'
 TRAMP=1., VOLUME=1. $END
  3.14667E+05 -3.56335E+03  3.40452E+05  2.47148E+05  8.31219E+04  3.38002E+05 -1.33272E+05  2.51046E+05
 -1.88537E+05  8.06270E+04 -1.10679E+05 -3.51093E+04 -2.26572E+03 -4.83094E+04  5.82255E+04  1.52936E+03
  3.94485E+04  4.92989E+04 -1.52343E+04  7.59305E+04 -6.14033E+04  6.02427E+04 -7.66653E+04  3.20343E+04
 -8.51495E+04 -7.23915E+03 -5.51998E+04 -4.96074E+04 -1.56219E+04 -7.04330E+04  2.26329E+04 -4.93979E+04
  4.47527E+04  4.56877E+03  1.25761E+04  4.46939E+04 -3.40013E+04  4.79324E+04 -6.46111E+04  9.28490E+02
 -5.24479E+04 -5.75174E+04 -3.33511E+03 -7.55885E+04  3.47207E+04 -5.40878E+04  5.50271E+04 -1.38081E+04
  4.32804E+04  6.89360E+03  3.36560E+04  2.19990E+04  1.84378E+04  2.57736E+04 -8.13223E+03  2.80918E+04
 -2.37617E+04  8.34874E+03 -1.85314E+04 -4.29471E+03  5.01896E+03 -9.97499E+03  2.19966E+04  1.58533E+04
  5.69397E+03  3.76309E+04 -2.72752E+04  3.20909E+04 -6.09818E+04  4.62772E+03 -5.46535E+04 -3.62465E+04
 -1.28746E+04 -5.88632E+04  3.61118E+04 -4.35856E+04  5.84936E+04  3.36053E+03  3.33801E+04  3.43928E+04
 -8.02860E+03  3.33352E+04 -2.88178E+04  1.07907E+04 -2.79071E+04 -8.96084E+03 -1.41271E+04 -7.01080E+03
 -4.95694E+03 -1.15350E+04 -8.40606E+02 -1.82383E+04  8.01973E+03 -2.52587E+04  8.66351E+03 -1.21826E+04
  8.36795E+03  6.97712E+03 -8.29257E+03  1.52638E+04 -1.75550E+04 -7.96962E+03 -3.58683E+03 -3.43600E+04
  2.23725E+04 -4.32923E+04  4.29803E+04 -1.96310E+04  4.38330E+04  1.75034E+04  1.27493E+04  4.16522E+04
 -1.76114E+04  3.50625E+04 -2.52457E+04  2.33052E+03 -8.23409E+03 -2.47225E+04  2.24951E+04 -3.53947E+04
  4.36301E+04 -1.26095E+04  3.53816E+04  2.29419E+04  1.90850E+04  4.60148E+04 -5.60987E+03  5.16321E+04
 -3.09297E+04  3.36950E+04 -3.76969E+04  1.49882E+04 -4.31363E+04 -1.53257E+04 -2.71279E+04 -3.22347E+04
  8.67749E+03 -4.25473E+04  3.22856E+04 -1.30742E+04  2.50415E+04  1.07721E+04  5.68253E+03  1.76285E+04
 -1.30059E+04  6.63333E+03 -1.42098E+04 -6.50479E+03  8.13008E+03 -1.04266E+04  1.77597E+04  4.60727E+03
  1.05258E+04  2.28049E+04 -2.30373E+03  2.27504E+04 -2.28537E+04  1.12543E+04 -2.65002E+04 -6.73794E+03
 -1.67810E+04 -1.83973E+04 -8.46009E+03 -2.30292E+04  3.70253E+03 -2.14319E+04  1.79600E+04 -1.80714E+04
  2.75911E+04 -1.48174E+04  2.80753E+04  1.97797E+03  2.17581E+04  2.02481E+04  2.06351E+03  3.41333E+04
 -1.92995E+04  2.92833E+04 -2.65864E+04  1.02420E+04 -2.52750E+04 -1.41940E+04 -1.50277E+03 -8.42080E+03
  1.39465E+03 -3.75400E+03 -7.37751E+03  1.55498E+03 -1.55461E+04  2.43045E+03 -1.75153E+04 -4.89070E+03
 -6.71166E+03 -1.94940E+04  3.67721E+03 -2.57243E+04  1.94424E+04 -1.94791E+04  1.42914E+04 -1.66723E+03
  1.26381E+04  1.19872E+04 -3.55042E+03  2.12787E+04 -1.25378E+04  7.67014E+03 -1.94249E+04 -3.52390E+03
 -1.03750E+04 -1.68441E+04 -2.83183E+03 -2.42812E+04  1.16706E+04 -1.85794E+04  1.77132E+04 -9.48165E+03
  1.89015E+04 -9.74499E+01  1.31343E+04  4.83188E+03  6.88515E+03 -2.57557E+03  8.07799E+03 -4.33878E+03
  1.44907E+04 -1.08421E+03  1.74448E+04  1.29570E+04  1.21214E+04  2.69084E+04 -2.79276E+03  3.60100E+04
 -2.13021E+04  2.51303E+04 -3.42364E+04  9.85138E+03 -3.24921E+04 -1.56835E+03 -2.53581E+04 -1.81824E+04
 -9.65358E+03 -2.68714E+04  7.84372E+03 -2.67963E+04  1.76761E+04 -1.04064E+04  1.70933E+04  9.06782E+03
  8.19402E+03  1.13680E+04 -7.88319E+03  8.02917E+03 -1.26493E+04  1.34375E+03 -1.40167E+04 -8.83443E+03
 -1.72507E+03 -1.52984E+04  6.09737E+03 -5.43775E+03  6.03066E+03  3.36257E+03  9.62978E+02  4.80702E+03
 -7.71500E+03  3.19187E+03 -5.50987E+03 -3.88850E+03 -1.11978E+03 -1.31674E+04  6.10434E+03 -1.21725E+04
  1.65703E+04 -5.53744E+03  1.41043E+04  6.08759E+02  1.58309E+04  8.17900E+03  6.39353E+03  2.17954E+04
  7.11207E+02  2.23632E+04 -1.08193E+04  1.21234E+04 -1.50188E+04  4.00557E+02 -1.08263E+04 -2.24819E+03
 -1.57415E+03 -8.05770E+03 -1.31056E+03 -4.71613E+02 -1.79013E+03  2.90291E+03 -3.37899E+03  8.89424E+03
 -7.02602E+03 -4.11026E+03 -1.12088E+04 -1.13978E+04 -2.53672E+03 -1.66277E+04  4.62143E+03 -1.20346E+04
  8.87916E+03  1.95847E+03  4.28317E+03  6.00998E+02 -1.59587E+02  4.70902E+03 -6.08182E+03  8.44284E+02
 -3.39726E+03 -6.45974E+03  1.74971E+03 -1.41554E+04  5.41603E+03 -9.97528E+03  1.24331E+04 -6.34092E+03
  1.43393E+04  5.37561E+03  1.47394E+04  6.59318E+03  6.44081E+03  1.53782E+04 -3.28795E+03  1.08151E+04
 -7.03981E+03  1.50659E+03 -2.43591E+03 -5.44922E+03  3.51453E+03 -3.06437E+03  3.48322E+03 -1.30685E+03
  8.26572E+03  1.47754E+03  6.24368E+02  7.30449E+03 -5.92795E+03  9.54167E+03 -1.07582E+04  2.60233E+02
 -7.72339E+03 -4.45924E+03  1.16260E+03 -1.02891E+04  4.70308E+03 -1.27375E+03  4.90865E+03 -4.17313E+03
  3.44627E+03  4.93907E+03 -4.06444E+03  8.51589E+03 -7.52650E+03  3.28485E+03 -1.01192E+04 -4.23471E+03
 -5.09040E+03 -1.31339E+04  3.90541E+03 -1.56662E+04  1.23208E+04 -1.40603E+04  8.64016E+03  5.74679E+03
  8.86566E+03  7.85956E+03  1.91743E+03  9.85693E+03 -7.02052E+03  5.99658E+03 -5.73669E+03  1.17915E+03
 -4.67727E+03 -9.30839E+03 -2.25728E+03 -7.90391E+03 -2.87176E+03 -7.45056E+03  2.01652E+03 -3.43567E+03
  3.28379E+03  6.38529E+02 -6.30572E+02  1.76757E+03  7.53052E+01 -5.14930E+03  6.02054E+02 -1.73934E+03
  5.64071E+03 -2.99920E+03  6.96960E+03  1.44402E+03  5.40432E+03  6.84896E+03  2.82690E+03  1.06775E+04
 -6.24217E+02  1.60720E+04 -1.11744E+04  1.02096E+04 -1.82868E+04  3.45817E+03 -1.48978E+04 -4.85973E+03
 -6.54942E+03 -8.49240E+03 -9.94695E+02 -3.53147E+03  9.21456E+03 -7.47724E+02  7.32964E+03 -1.77994E+03
  2.78520E+03 -3.61654E+03  2.87848E+03 -6.76314E+02  5.80843E+03 -6.69009E+02  6.06180E+03 -5.59835E+03
  6.98237E+03  1.84548E+03  4.95473E+03  1.94155E+03  1.04209E+03  7.09434E+03 -6.77098E+03  7.09251E+03
 -4.19243E+03 -7.64156E+03 -5.28458E+03 -5.07707E+03  2.75908E+03 -6.32298E+03  5.63644E+03 -6.34329E+03
  9.24053E+03 -3.97964E+03  1.09027E+04  5.47835E+03  7.44740E+03  1.14033E+04 -6.29223E+02  1.31974E+04
 -2.72616E+03  5.31423E+03 -8.81492E+03  2.21069E+03 -1.03761E+03  3.13566E+03 -6.16342E+03 -3.42892E+03
 -9.55579E+02  9.39328E+03 -8.86911E+02  3.38781E+02 -1.70973E+03  6.87608E+03 -7.50778E+03  1.22032E+03
 -7.31625E+03 -3.89735E+03  3.91602E+03 -9.70538E+03  5.03416E+03 -4.43165E+03  3.77233E+03 -2.52589E+03
  3.29737E+03  4.51190E+03  2.15826E+03  7.71742E+03  1.35503E+03  7.57361E+03 -4.59208E+03  4.47391E+03
 -7.08182E+03  2.30281E+03 -1.12551E+04  6.33379E+02  1.09698E+03 -4.04279E+03  1.12626E+03  3.16064E+03
  4.03405E+03 -5.79562E+02  5.09121E+03  1.97723E+03  7.15907E+02 -5.66463E+03  1.50048E+03  3.70293E+03
  2.22298E+03  2.51817E+03  8.62295E+02  3.55895E+03  1.30381E+03  4.81866E+03  9.42689E+02  4.46760E+03
  6.87200E+02  3.45416E+03 -3.40846E+03  4.67005E+03 -8.19010E+03  7.58291E+03 -9.03847E+03 -8.15224E+02
  1.04737E+03 -6.30584E+03 -3.38381E+03 -8.68432E+03  4.10430E+03 -3.13755E+03  1.16318E+04 -4.51205E+03
  5.18084E+03  2.45930E+03  5.12286E+02  2.99585E+03 -2.77561E+03  2.70840E+03  3.22611E+03 -4.65767E+03
 -1.12275E+03  1.75776E+03 -1.21923E+03  1.87433E+03  6.34442E+02 -1.53098E+03  2.00531E+03  1.19662E+03
  1.00505E+03  2.50139E+03  2.90495E+03  4.67198E+03  3.85305E+03  2.41158E+03  1.77557E+03  1.84095E+03
  1.68773E+03 -4.13230E+03  3.13790E+03  2.88806E+02  2.93102E+03  3.95059E+03 -6.89208E+02  1.95329E+03
  1.99430E+03  5.83564E+03 -2.96277E+03 -2.48765E+03 -6.33799E+03 -5.60187E+03 -3.56122E+03 -1.05946E+03
 -2.40235E+03 -1.16397E+04 -2.15126E+03 -3.31151E+03  3.76086E+03  1.47238E+02 -1.52959E+03  3.91227E+03
 -2.72126E+03  3.31669E+03  8.34266E+02 -3.74531E+03 -5.42854E+03 -4.87985E+03  1.84922E+03 -4.63693E+03
  2.95131E+03  2.62074E+03  8.68900E+03 -1.63824E+03 -1.21327E+03 -1.36462E+03 -8.00892E+02  5.11110E+03
  8.52202E+02 -1.24021E+02 -6.80758E+03  2.30965E+03  2.47947E+03 -4.05058E+03  2.31753E+03  3.02246E+03
  7.98242E+02 -1.54263E+02  7.00570E+03  3.21814E+03  4.46433E+03  5.81849E+03 -9.68690E+02  1.16195E+03
 -3.86540E+03  1.35053E+03  2.04355E+03 -2.38986E+03 -4.68686E+02 -2.72628E+03 -1.45467E+03 -2.13002E+02
  4.43019E+03  2.10121E+03  2.66749E+03  3.76449E+02 -2.83622E+02  4.90935E+03  1.74051E+03  1.74051E+03
  3.31290E+03  3.56441E+03  4.98604E+02  3.30764E+03 -4.33695E+02 -1.49038E+02  6.37226E+02  9.28035E+02
 -6.15039E+02  4.79399E+03 -3.96892E+03  1.23748E+03 -4.41654E+03 -4.52823E+03 -3.98569E+03 -1.50375E+03
 -5.68771E+03  6.44625E+02 -1.22679E+03 -8.70059E+03  4.30699E+03 -2.04343E+03  3.46374E+03 -2.14195E+03
  5.04050E+03 -2.49586E+02 -1.42191E+03 -1.69144E+03 -6.51046E+02  3.89606E+03 -3.19143E+03  4.60469E+03
 -4.53302E+02  1.66422E+03 -7.30927E+03 -7.68530E+02 -7.75839E+02 -1.50934E+03  1.01541E+03  2.72652E+03
  1.34499E+03  2.65138E+03 -4.49029E+03  9.28985E+02  1.29507E+03 -9.20319E+02  9.95588E+02 -3.94260E+03
  3.13093E+03  2.69417E+02  2.37892E+03 -1.72352E+03  1.05901E+03  2.13921E+03  8.63363E+02  3.91079E+03
  1.14365E+03  3.13978E+03 -2.84202E+03  3.91996E+03 -5.84977E+03 -1.71841E+02 -5.32347E+03 -6.11907E+03
  1.43608E+03 -6.33488E+02  4.37943E+03  1.88007E+03  4.61594E+01  3.61899E+03  5.62905E+03 -9.17840E+02
 -4.34405E+01  2.57830E+03 -2.68320E+03 -8.12614E+02  2.50193E+03 -1.56768E+03  1.72089E+03 -1.08278E+03
 -4.77962E+02 -1.36331E+03 -1.60650E+03  8.18543E+02  1.89443E+03  2.09301E+03 -5.52243E+02 -8.09863E+02
 -4.95256E+02  1.84558E+03 -1.73684E+03  2.38906E+02 -4.71072E+03  1.70250E+03 -4.45062E+02 -2.13651E+03
  2.04320E+03  4.61965E+02  2.48724E+03 -5.73785E+03 -5.17890E+02 -1.55876E+03  6.85933E+03  3.55530E+03
  8.22291E+02  2.49476E+03  4.33782E+02  5.80694E+03 -4.92458E+02  3.14262E+03  9.51889E+02  2.52477E+03
  1.62854E+03 -1.61780E+02  2.12047E+03 -4.70070E+03 -5.98934E+01  2.18433E+03 -4.13613E+03  8.88004E+02
  3.72475E+02 -5.25722E+03 -1.11469E+03 -5.13569E+03  2.12557E+03 -2.91841E+02  3.61449E+03 -2.36027E+02
  8.86323E+02 -4.38880E+02  9.44825E+02  4.69102E+03  4.42277E+03 -1.12216E+02 -2.89341E+03  6.04600E+03
