 $NMID ID='MM_0lb_SNR50_13hz_g45_30.RAW', FMTDAT='(8E13.5)'
 TRAMP=1., VOLUME=1. $END
  3.10855E+05  2.88759E+03  3.37840E+05  2.54178E+05  8.29908E+04  3.38339E+05 -1.32951E+05  2.47892E+05
 -1.87603E+05  8.36686E+04 -1.14825E+05 -2.79171E+04 -5.07319E+02 -4.95672E+04  5.24948E+04 -4.31014E+03
  3.71004E+04  5.43875E+04 -1.51919E+04  7.50688E+04 -5.87399E+04  5.90340E+04 -8.64753E+04  2.87429E+04
 -7.76425E+04 -1.27927E+04 -5.92399E+04 -5.54145E+04 -1.73372E+04 -7.19816E+04  3.05807E+04 -4.75283E+04
  4.17621E+04  3.18561E+03  1.34980E+04  4.43676E+04 -3.38337E+04  4.25946E+04 -6.29428E+04 -7.20808E+02
 -5.27525E+04 -5.39264E+04 -3.54024E+03 -8.01431E+04  3.29011E+04 -5.04002E+04  4.90200E+04 -2.00084E+04
  4.21422E+04  9.83954E+03  3.34428E+04  2.97813E+04  1.78530E+04  2.89629E+04 -4.42838E+03  2.48424E+04
 -2.20616E+04  1.35786E+04 -1.28376E+04 -3.15101E+03  4.67031E+03 -5.06820E+03  1.52959E+04  1.20878E+04
  1.25909E+04  3.54388E+04 -3.60985E+04  3.10741E+04 -6.51598E+04  3.22869E+03 -5.51325E+04 -4.33899E+04
 -1.17401E+04 -6.54245E+04  4.24624E+04 -4.85684E+04  5.94034E+04 -1.34239E+03  3.70170E+04  3.32407E+04
 -6.97757E+03  3.69667E+04 -3.09132E+04  1.16952E+04 -3.26854E+04 -8.13878E+03 -1.83953E+04 -7.84362E+03
 -1.07847E+04 -1.10119E+04 -6.24195E+03 -1.53846E+04  5.62831E+03 -1.87619E+04  1.77446E+04 -1.12086E+04
  1.42620E+04  4.56857E+03 -8.56716E+03  1.29317E+04 -2.28301E+04 -6.66871E+03 -9.58192E+03 -3.46844E+04
  2.07933E+04 -4.47733E+04  5.07615E+04 -2.51322E+04  3.86652E+04  1.84943E+04  1.37142E+04  4.42914E+04
 -1.94668E+04  3.35902E+04 -2.43060E+04 -3.72658E+03 -1.26882E+04 -2.32460E+04  1.80014E+04 -3.06106E+04
  4.43812E+04 -9.95750E+03  3.63499E+04  2.32289E+04  1.90677E+04  4.52783E+04 -8.09946E+03  5.20523E+04
 -3.06891E+04  3.81202E+04 -4.37250E+04  5.33974E+03 -4.50877E+04 -1.60500E+04 -2.39555E+04 -4.03598E+04
  3.72974E+03 -3.34994E+04  3.35276E+04 -1.64025E+04  3.11360E+04  1.46818E+04  7.83002E+03  2.13540E+04
 -6.00091E+03  7.43616E+03 -1.41562E+04 -7.24798E+03  1.14500E+04 -1.06353E+04  2.19300E+04  6.47178E+03
  1.08628E+04  2.59876E+04 -1.06928E+04  2.31891E+04 -1.88808E+04  1.16415E+04 -2.58996E+04 -6.49444E+03
 -1.68625E+04 -1.36456E+04 -7.68465E+03 -2.43555E+04  7.38041E+03 -1.79551E+04  1.70155E+04 -1.90956E+04
  2.67635E+04 -9.08484E+03  2.93932E+04 -4.20843E+03  2.39057E+04  1.96375E+04  4.88109E+03  3.49778E+04
 -1.40213E+04  3.06898E+04 -2.69217E+04  1.40533E+04 -1.85502E+04 -1.05538E+04 -1.09222E+04 -1.52419E+04
  3.27851E+03 -4.96823E+03 -3.08737E+03  6.97339E+03 -1.00871E+04  8.86547E+02 -1.55237E+04 -4.79714E+03
 -7.17415E+03 -2.20340E+04  4.20501E+03 -2.18661E+04  1.51331E+04 -1.83977E+04  1.92433E+04 -2.32679E+03
  1.35478E+04  9.92078E+03  4.24296E+03  1.82211E+04 -1.48832E+04  1.15733E+04 -1.24737E+04 -3.91550E+03
 -1.50336E+04 -1.82925E+04  7.90760E+02 -2.70925E+04  1.36669E+04 -2.40921E+04  1.87321E+04 -1.44846E+04
  1.75071E+04  1.80750E+03  1.41838E+04  8.28548E+03 -8.17645E+01 -4.37563E+03  1.11215E+04 -2.70820E+03
  1.71961E+04  7.02870E+03  2.08651E+04  1.45433E+04  1.03506E+04  3.35143E+04 -2.57648E+03  3.66183E+04
 -1.99726E+04  2.55936E+04 -3.08418E+04  1.39820E+04 -3.21502E+04 -2.77092E+03 -2.83603E+04 -1.84681E+04
 -1.28542E+04 -3.50204E+04  1.26588E+04 -3.37167E+04  2.18790E+04 -1.04477E+04  1.91519E+04  7.47974E+03
  9.74898E+03  1.05753E+04 -7.45333E+03  1.01399E+04 -1.74158E+04  4.45787E+03 -1.34833E+04 -7.87420E+03
 -5.31603E+02 -1.20655E+04  1.97057E+03 -1.43596E+04  1.20039E+04 -1.25007E+04 -1.26985E+02  8.13187E+03
 -8.24114E+03  5.44436E+02 -8.29597E+03 -4.84871E+03  2.58326E+03 -1.73262E+04  1.61407E+04 -1.76631E+04
  1.90910E+04 -7.85101E+03  1.79794E+04 -3.99466E+02  1.68234E+04  1.07153E+04  5.81915E+03  2.00765E+04
 -4.21131E+03  2.18652E+04 -1.32425E+04  1.29391E+04 -1.52319E+04  4.14953E+03 -8.09782E+03 -5.51318E+03
 -4.81910E+03 -9.32675E+03 -3.55930E+03  5.88196E+03 -3.63761E+03  5.80285E+03 -4.07980E+03  5.98312E+03
 -1.03735E+04  3.78956E+03 -1.23146E+04 -1.81729E+04 -2.90613E+03 -1.82074E+04  7.99370E+03 -1.35578E+04
  1.19919E+04 -8.44738E+03  6.65765E+03  1.52406E+03 -2.89146E+03  3.41103E+03 -3.12259E+03  1.37606E+02
 -5.31548E+03 -4.94748E+03 -3.91358E+02 -1.13039E+04  4.31761E+03 -1.49545E+04  1.75418E+04 -4.01511E+03
  2.18541E+04  4.85496E+03  1.24856E+04  6.31516E+03  7.17331E+02  1.29716E+04 -8.35691E+03  1.50255E+04
 -6.41767E+03  4.64461E+02 -7.21047E+03 -3.05824E+03 -4.93930E+02 -8.73743E+02  6.44760E+03 -6.99582E+02
  5.68904E+03  4.05787E+03  5.60257E+02  1.05064E+04 -6.42882E+03  9.95537E+03 -1.48528E+04  5.36535E+03
 -4.13289E+03 -7.49083E+03  5.20497E+03 -5.93770E+03  6.16334E+03 -5.10318E+02  6.48822E+03  4.16931E+03
 -1.93267E+03  9.90072E+03 -3.81061E+03  6.34163E+03 -1.00282E+04  7.93570E+03 -3.69935E+03 -1.55827E+03
 -1.33751E+03 -1.35889E+04  5.25579E+03 -9.89280E+03  1.25687E+04 -7.61143E+03  1.06516E+04  5.54253E+03
  1.25778E+04  9.48782E+03 -6.36923E+02  1.50179E+04 -1.18547E+04  9.39866E+03 -1.18309E+04 -2.59021E+03
 -9.96838E+03 -8.17604E+03 -2.89396E+03 -5.86629E+03 -7.79205E+02 -8.52875E+03  3.46833E+02 -4.04434E+03
  6.06947E+02  4.18055E+03  1.13265E+03  3.06719E+03 -1.15506E+03  3.24885E+03  1.70869E+03 -5.05417E+03
  3.87677E+03 -5.81278E+03  1.39076E+04  1.43175E+03  9.39478E+03  4.50897E+03  1.00232E+04  1.12909E+04
  1.14983E+02  1.81461E+04 -1.53874E+04  1.14654E+04 -1.95281E+04  6.01870E+03 -2.07490E+04 -8.79242E+03
 -1.13045E+04 -1.17334E+04 -4.67103E+03 -1.08259E+04  4.11139E+03  1.04599E+03  1.04141E+04 -2.48046E+03
  2.19475E+03 -1.86535E+03  5.43928E+03 -1.86077E+02  2.88395E+03 -4.48469E+02  1.75487E+03 -1.27961E+03
  1.13731E+04  2.21239E+03  5.03191E+03  1.85285E+03 -3.81554E+03  1.73376E+03 -6.89593E+03  8.76293E+03
 -3.72259E+03 -7.31140E+02 -8.89733E+03 -2.56934E+03  3.66327E+02 -1.17417E+04  6.53219E+03 -6.26792E+03
  1.11880E+04 -7.57388E+03  1.49554E+04 -3.00367E+02  8.81570E+03  1.33439E+04 -1.15459E+03  1.01761E+04
 -4.63449E+03  9.47689E+03 -4.25070E+03  4.61262E+03 -1.61725E+03 -1.62459E+03 -4.14405E+03 -2.05418E+03
  3.60297E+03 -4.11824E+02 -1.53812E+03  2.49434E+03  2.10243E+02  2.11816E+03 -9.46674E+03  1.56924E+03
 -6.34256E+03 -1.00752E+04  1.61412E+03 -1.05815E+04  8.79400E+03 -8.47767E+03  3.63810E+03  3.00783E+03
  1.07853E+04 -8.48318E+02  5.18501E+03  9.64094E+03 -3.70467E+03  1.06178E+04 -9.02005E+03  5.59902E+03
 -6.94211E+03  1.98119E+03 -3.87326E+03 -2.04357E+03 -2.73855E+02 -1.94543E+03  4.07047E+03 -5.32651E+03
  9.40259E+03 -1.64857E+03  8.34654E+03 -2.45099E+03  2.76492E+03  3.52165E+03 -3.38601E+02  6.64877E+03
  1.91122E+03  3.54921E+03  1.78355E+03 -3.40157E+03  1.81098E+03 -3.28054E+02  6.34737E+03  1.20796E+04
 -1.74007E+01  1.01231E+04 -5.80981E+03  8.58822E+03 -7.27956E+03 -6.76158E+02 -7.65274E+03 -1.44106E+03
 -4.63076E+03 -4.98558E+03 -2.05359E+03 -8.98030E+03 -4.91511E+02 -3.16867E+03  8.46368E+03 -2.33223E+03
  5.02169E+03  6.01309E+03  5.72734E+03  2.54545E+03 -2.47799E+03  1.75809E+03 -2.74930E+03 -1.47973E+03
 -4.12922E+03  5.75064E+02  2.86396E+03 -9.92790E+03  7.05784E+03 -6.57510E+02  4.34562E+03 -1.86108E+02
  7.87520E+03  8.49230E+02  5.15700E+03 -1.40534E+03 -1.04566E+03  2.19668E+03  4.33049E+03 -3.36450E+03
  1.13589E+03  7.02021E+02  1.82251E+02 -2.53179E+03  2.82355E+03  2.68934E+03 -3.26510E+01  4.68478E+03
 -6.91311E+02  2.32543E+03 -6.82089E+03 -4.96913E+03 -4.32373E+02  3.26623E+02 -3.71268E+03 -2.82496E+02
  3.26536E+03 -5.94265E+03  1.43651E+03  6.79235E+03  2.49932E+03 -1.35083E+03  2.65295E+03  2.15482E+03
 -5.01407E+03  5.05753E+03 -2.56072E+03 -1.96988E+03 -3.86320E+03 -7.75953E+03  1.57824E+03 -8.09404E+03
  3.77335E+03 -3.48299E+02  3.80623E+03  1.16622E+03  2.26582E+03  4.20391E+02 -2.15855E+03  2.79089E+03
  1.76983E+03  3.35798E+03 -3.04413E+03 -4.34320E+03  1.16588E+03 -5.55917E+03  4.76121E+03 -1.79489E+03
  5.46627E+03  1.01690E+03  9.20312E+03 -2.84021E+03  2.11581E+03  3.41850E+03 -1.14542E+03  5.84418E+03
 -6.59217E+03 -9.35976E+02  1.10072E+02 -2.92055E+03 -2.03838E+03 -3.02184E+03  6.02888E+02 -4.00724E+03
  8.49154E+03 -6.92933E+03  5.88801E+03 -2.89147E+02  4.74688E+03  3.83889E+03 -1.52421E+03  7.43880E+03
  3.54196E+03  7.64703E+02  1.76503E+03 -6.46021E+00  4.63807E+02 -9.41577E+02 -3.49345E+03  1.13003E+03
 -4.23233E+03  1.31641E+03 -3.67229E+03  1.17963E+03 -2.35008E+03  1.64978E+03 -1.01040E+04 -6.44489E+03
 -4.77950E+03 -4.45110E+03 -2.35956E+02 -8.31374E+03  5.84941E+03 -3.48061E+03  2.91849E+03 -1.53686E+02
  3.58957E+02  2.22832E+03  7.65831E+02  5.49133E+03  1.79389E+03  4.46453E+03 -2.80882E+03  6.17559E+03
 -3.98846E+03  3.74288E+03 -1.63728E+03 -2.43940E+03 -2.11565E+03  1.89007E+03 -2.09603E+03  1.20251E+02
 -2.69236E+02 -4.61552E+03 -4.05480E+02 -6.70413E+03 -4.64857E+02 -4.96842E+02  1.15693E+02 -5.59356E+03
  9.96436E+02 -1.74327E+03  2.99304E+03  4.19361E+03  3.16706E+02  4.56745E+03 -2.10665E+03  4.52243E+03
 -2.82580E+03  7.03970E+03 -7.80674E+03  2.66214E+03 -3.12805E+03  4.17422E+03 -6.39973E+03 -2.42505E+03
 -5.58758E+03 -1.03074E+04 -2.65907E+03 -2.12913E+03  6.97338E+03 -1.05781E+03 -9.66912E+02  5.75444E+02
  5.73307E+03  1.45788E+03  9.48712E+02  2.21097E+03 -5.05967E+03  5.50835E+02 -2.16591E+03  1.03829E+03
  4.72587E+03 -4.14829E+03  1.06111E+04 -5.04310E+02  3.67150E+03  2.07630E+03 -2.72483E+03 -2.75406E+02
 -4.58469E+03  1.89154E+03 -6.57187E+03  1.93365E+03 -6.20735E+03 -1.07443E+02 -2.69693E+03 -1.13468E+03
  5.67311E+03  8.39569E+02  2.90200E+03 -2.02344E+03  4.94306E+03 -3.34295E+02 -2.01317E+03  4.38384E+03
 -4.59656E+03  4.06465E+03 -3.82941E+03  2.25083E+03  2.95709E+03  2.73940E+03 -3.15817E+03 -1.32285E+03
 -4.87018E+02 -1.73819E+03 -1.69161E+02  1.74281E+03 -6.04303E+03  4.27643E+03 -6.55843E+03 -7.00828E+03
 -4.46329E+03 -4.97973E+03  4.41918E+02 -6.20726E+03  1.37281E+03 -6.18952E+03 -2.22854E+03 -2.04989E+03
  1.00858E+03 -9.31119E+02  3.09410E+03  1.00325E+03  3.06968E+03 -1.23926E+03 -1.54510E+03  4.82795E+03
