 $NMID ID='MM_0lb_SNR50_8hz_g60_6.RAW', FMTDAT='(8E13.5)'
 TRAMP=1., VOLUME=1. $END
  3.11463E+05 -1.49622E+03  3.38405E+05  2.51543E+05  8.78604E+04  3.47696E+05 -1.37205E+05  2.50530E+05
 -1.91264E+05  8.46167E+04 -1.06980E+05 -4.26453E+04  6.67267E+03 -4.99154E+04  5.62180E+04  5.66637E+03
  3.54096E+04  5.78342E+04 -2.30210E+04  7.63163E+04 -6.94771E+04  6.61042E+04 -8.70254E+04  2.65336E+04
 -8.44957E+04 -1.86728E+04 -5.92526E+04 -5.57284E+04 -1.58156E+04 -7.84213E+04  2.56916E+04 -4.39878E+04
  3.93964E+04 -4.99948E+02  1.54116E+04  5.41844E+04 -3.80651E+04  4.66717E+04 -6.37435E+04 -2.78253E+03
 -5.59829E+04 -5.15760E+04 -1.22109E+04 -7.58574E+04  3.62193E+04 -5.93126E+04  5.06123E+04 -1.64997E+04
  4.50444E+04  1.35658E+04  3.13626E+04  2.77050E+04  1.68372E+04  2.75836E+04 -3.51371E+03  2.62050E+04
 -2.96391E+04  6.53857E+03 -1.91918E+04 -1.18382E+04  4.84001E+03 -1.25311E+04  2.77785E+04  8.87428E+03
  9.64661E+03  4.49100E+04 -3.27241E+04  4.24847E+04 -6.30352E+04  4.15309E+03 -5.35816E+04 -4.33678E+04
 -1.24061E+04 -7.44787E+04  4.09025E+04 -5.04443E+04  6.04521E+04 -1.09465E+04  3.00868E+04  3.45361E+04
 -2.65744E+03  4.77365E+04 -3.92645E+04  1.41278E+04 -3.22098E+04 -4.71956E+03 -2.28907E+04 -1.74483E+04
 -1.23617E+04 -1.99048E+04  9.70024E+02 -1.81642E+04  9.95566E+03 -2.17114E+04  2.12101E+04 -1.52804E+04
  1.82162E+04  5.85100E+03 -1.14732E+04  1.21337E+04 -2.75951E+04 -2.19411E+03 -8.38060E+03 -4.12849E+04
  2.26711E+04 -4.56535E+04  5.30358E+04 -2.04121E+04  4.28917E+04  2.27209E+04  2.65880E+04  4.82325E+04
 -1.44960E+04  2.49420E+04 -3.54085E+04  3.10820E+03 -1.71772E+04 -3.67637E+04  2.75690E+04 -3.70786E+04
  4.83437E+04 -1.28958E+04  4.11232E+04  3.04549E+04  2.51527E+04  4.16068E+04 -3.24718E+03  5.34625E+04
 -3.71967E+04  3.62688E+04 -5.37883E+04  6.28817E+03 -5.09831E+04 -1.23172E+04 -2.76196E+04 -4.07555E+04
  1.88418E+04 -3.51492E+04  3.74655E+04 -1.66120E+04  3.26903E+04  1.22999E+04  9.56403E+03  1.95902E+04
 -1.19648E+04  1.48196E+04 -1.03938E+04 -2.21144E+02  6.68798E+03 -1.33678E+04  2.14769E+04  8.00598E+03
  1.43690E+04  1.81911E+04 -2.42674E+03  2.73605E+04 -2.10172E+04  1.58048E+04 -3.34922E+04 -3.33935E+03
 -2.87629E+04 -1.55646E+04 -7.36156E+03 -2.15843E+04 -3.34077E+03 -2.44624E+04  2.17284E+04 -2.83205E+04
  3.23665E+04 -1.92308E+04  4.32014E+04  5.87404E+03  3.31590E+04  2.36143E+04  6.16502E+03  4.10514E+04
 -2.22981E+04  3.83644E+04 -3.04237E+04  1.10688E+04 -1.97596E+04 -2.30152E+00  6.33440E+02 -5.84162E+03
 -3.28084E+03 -7.78280E+01 -1.13932E+04  7.54899E+03 -2.34340E+04  8.51613E+03 -2.12249E+04 -1.29680E+04
 -9.87386E+03 -2.99080E+04  4.26308E+03 -2.81305E+04  2.30394E+04 -1.72253E+04  2.90947E+04  8.61579E+02
  1.74123E+04  1.76989E+04 -4.24000E+03  2.46278E+04 -1.92135E+04  1.95045E+04 -2.16312E+04 -4.09252E+03
 -1.73097E+04 -1.93591E+04 -2.12540E+03 -2.97774E+04  1.73398E+04 -2.84905E+04  1.93702E+04 -1.50647E+04
  2.29813E+04  9.41307E+03  1.69795E+04  1.41733E+03  1.55481E+04  1.34358E+03  8.99927E+03 -1.90237E+03
  1.85424E+04  3.86257E+02  2.60743E+04  1.51447E+04  2.24935E+04  4.20808E+04 -1.23481E+03  4.63810E+04
 -2.04593E+04  3.98866E+04 -4.34322E+04  2.60508E+04 -5.33179E+04 -1.04794E+04 -4.09205E+04 -3.04422E+04
 -1.71449E+04 -4.08632E+04  1.53404E+04 -3.35125E+04  2.73812E+04 -1.86254E+04  2.59155E+04  2.21473E+03
  5.48416E+03  2.48929E+04 -9.10398E+03  2.12524E+04 -2.08759E+04  5.60752E+03 -2.09188E+04 -1.92477E+04
 -2.71183E+03 -1.95797E+04  1.36112E+04 -1.20400E+04  1.20968E+04 -3.18334E+03 -1.91954E+03  6.16741E+03
 -1.73620E+04  1.08444E+04 -1.11764E+04 -7.68012E+03 -3.02697E+03 -1.47798E+04  1.23136E+04 -2.28809E+04
  2.85001E+04 -1.43529E+04  3.30148E+04  3.46719E+03  2.51727E+04  1.76776E+04  7.06887E+03  3.03837E+04
 -7.12968E+03  3.29941E+04 -2.30956E+04  1.92629E+04 -2.96880E+04  1.23935E+04 -1.26541E+04 -4.86759E+03
 -3.69402E+03 -2.27155E+03 -9.95695E+00  3.66426E+03 -4.75507E+03  3.25519E+03 -7.45516E+03  4.41516E+03
 -1.11459E+04 -5.42122E+03 -1.15964E+04 -1.13276E+04 -2.73930E+03 -2.14426E+04  1.59329E+03 -1.83688E+04
  1.88127E+04 -5.07720E+03  4.98884E+03  2.31386E+02 -1.24387E+03  6.85938E+03 -8.02169E+03  3.36619E+03
 -5.41492E+03 -1.16710E+04 -6.17719E+03 -1.71247E+04  9.63469E+03 -2.22188E+04  2.32492E+04 -1.07631E+04
  2.86555E+04  2.12739E+03  1.54880E+04  1.66026E+04 -5.11126E+02  2.65922E+04 -9.03741E+03  1.02665E+04
 -1.47963E+04  4.94834E+03 -7.51621E+03 -7.85743E+03 -2.20691E+03 -6.43892E+03  2.35932E+03 -5.58131E+03
  1.22931E+04  3.94213E+03  4.26862E+03  1.54751E+04 -8.26376E+03  1.65476E+04 -1.93501E+04  5.09594E+03
 -2.07862E+04 -7.37775E+03 -3.71848E+03 -1.32112E+04  1.01737E+04 -2.13103E+03  1.05878E+04  6.37457E+03
 -2.41722E+03  1.83370E+04 -9.52264E+03  1.30308E+04 -1.60295E+04  5.34084E+03 -1.68918E+04 -7.06517E+03
 -7.27966E+03 -2.49972E+04  1.43546E+03 -2.30817E+04  2.63439E+04 -1.66523E+04  2.05979E+04  7.44736E+03
  1.71006E+04  1.86116E+04  1.08519E+02  9.78607E+03 -1.59491E+04  1.20674E+04 -9.15265E+03  4.37046E+03
 -1.69258E+04 -1.84542E+04 -4.35119E+03 -1.80444E+04  1.29190E+04 -1.09315E+04  5.01397E+03  3.15343E+03
  3.35241E+03  9.27133E+02 -3.24327E+02  6.08208E+03 -1.32807E+03 -3.10937E+03  1.21803E+03 -8.93180E+03
  1.12693E+04 -7.68230E+03  2.35386E+04  9.39544E+02  2.77391E+04  2.05563E+04  1.94978E+04  2.54439E+04
 -2.06422E+03  3.25764E+04 -2.22445E+04  2.30017E+04 -2.59428E+04  8.71072E+02 -2.68045E+04 -2.24678E+03
 -1.05913E+04 -2.75941E+04 -6.55531E+03 -1.62524E+04  2.08078E+03 -5.17991E+03  6.05784E+03 -2.38159E+03
  7.26365E+03  1.57086E+03  1.25404E+04  3.12663E+03  7.07469E+03 -3.35335E+03  7.74050E+03 -5.30829E+03
  1.55728E+04  1.15050E+04  3.71920E+03  1.82603E+04 -1.88398E+03  2.08658E+04 -1.48686E+04  1.74610E+04
 -1.34952E+04 -3.74770E+03 -7.23442E+03 -1.26597E+04 -5.47909E+03 -1.84172E+04  7.91696E+03 -2.06069E+04
  1.73288E+04 -4.29342E+02  2.42614E+04  3.84369E+03  1.92881E+04  2.05421E+04 -1.83464E+03  2.02006E+04
 -1.10731E+04  2.18304E+04 -2.31728E+04 -2.90000E+03 -4.19939E+03  2.69457E+03 -6.20623E+03 -8.55787E+03
 -6.53228E+03  4.98033E+03 -3.59877E+03  1.06248E+04 -3.24174E+03  5.83800E+03 -8.94602E+03  3.48606E+03
 -9.62999E+03 -1.02698E+04 -2.13862E+03 -1.58463E+04  1.19252E+04 -1.82320E+04  1.91003E+04  3.22579E+03
  2.30939E+04  1.43729E+04  1.07527E+04  1.19015E+04  4.30250E+03  1.76390E+04 -1.29638E+04  3.54203E+03
 -1.77776E+04 -1.54655E+03 -9.44711E+03 -9.01432E+03  1.73989E+03 -1.49922E+04  5.84717E+03 -5.84246E+03
  1.42571E+04 -4.60544E+02  1.25875E+04 -3.48386E+03  9.46470E+02  3.08524E+03  4.07577E+03  1.03496E+03
  1.10790E+03 -1.38706E+03  6.26267E+03  3.01215E+03  3.30787E+03  2.30603E+03 -2.02563E+03  1.41926E+04
 -2.69017E+03  1.81624E+04 -1.56427E+04  1.49160E+04 -1.11209E+04  7.26137E+03 -2.41053E+04 -9.09671E+03
 -1.13303E+04 -1.77778E+04  7.31436E+02 -1.33985E+04  8.25342E+03 -1.46517E+04  1.23517E+04 -1.89529E+03
  8.19230E+03 -4.15185E+03  8.08353E+03  1.91845E+04 -6.18100E+03  5.43008E+03 -1.11357E+04  1.64297E+03
 -4.47927E+03 -7.86742E+03  4.53665E+03 -1.06547E+04  9.12219E+03 -3.94229E+03  6.38436E+03  5.04493E+02
  4.12061E+03  7.66912E+03  5.84849E+03  6.31824E+03 -6.25118E+03  1.56718E+03  2.96668E+03 -3.35999E+03
 -4.86525E+03  3.02456E+03  1.60793E+04 -6.50674E+02  3.49897E+03  1.81231E+04  6.01552E+02  1.07634E+04
 -1.98344E+04  4.52308E+03 -1.09284E+04  2.82010E+03 -1.89692E+04 -4.64606E+03 -1.17629E+04 -4.10256E+03
 -3.81880E+03  2.98611E+02  4.28553E+03 -2.20775E+02  7.50463E+03  3.80147E+03 -2.95522E+03  4.30567E+03
 -2.57428E+03  6.38972E+03 -1.29463E+04 -7.64309E+02 -8.84876E+03 -7.98650E+03  7.23426E+03 -4.17452E+03
  1.24392E+04 -1.14022E+04  9.52325E+03  3.15577E+03  7.91757E+03  6.71343E+03  3.75135E+03  7.70537E+03
  4.88189E+02  8.46814E+03  5.23973E+03 -2.35360E+03  5.34220E+03 -4.44299E+03  1.03446E+04 -9.92592E+03
  1.86304E+04  2.85553E+03  8.10226E+03  1.13960E+04  2.60210E+03  9.99437E+03 -7.53501E+03  1.52038E+04
 -9.61847E+03  5.97093E+03 -7.89368E+03 -5.42224E+03 -2.23789E+03 -3.89432E+03  3.14035E+03 -1.39164E+04
  3.59699E+03  6.77427E+01  5.64423E+03 -1.44701E+03  2.25511E+03  6.01745E+03  1.21771E+03  6.81014E+03
 -9.02985E+02  6.63778E+03 -2.62181E+03  6.01300E+03  5.75698E+03 -2.94830E+03 -2.55604E+03  1.96637E+03
 -2.32445E+03  1.42906E+03 -1.39986E+04  3.09421E+03 -9.40389E+03 -5.27462E+03 -1.16060E+04 -5.14612E+03
 -3.18398E+03 -9.94784E+03  4.12578E+03 -2.19998E+04  9.36113E+03 -1.44859E+04  1.67296E+04 -9.47243E+03
  1.20847E+04  1.53160E+04  1.18045E+04  1.47677E+04 -5.29285E+03  1.42543E+04 -8.09183E+03  1.55551E+04
 -7.06911E+03  2.83782E+03 -5.05602E+03 -3.76057E+03  6.27457E+03  1.50862E+03 -4.62181E+03 -3.62125E+03
  1.06340E+02 -8.35392E+01 -6.80528E+03  1.85276E+03  1.83806E+02  2.45497E+03  9.85861E+03 -1.89227E+03
  6.00563E+03 -4.68915E+03  5.41088E+03  4.13837E+03  1.47524E+04  7.28687E+03  2.89842E+03  9.37493E+03
 -9.54631E+03  1.96589E+04 -2.06064E+04  1.20929E+04 -2.10118E+04 -1.00272E+04 -2.13379E+04 -1.21518E+04
 -3.50223E+03 -1.50715E+04  5.86364E+03 -2.22488E+04  5.99688E+03 -7.90117E+03  1.88065E+04 -2.67693E+03
  5.16033E+03  6.44806E+03  9.85070E+02 -8.93633E+02 -6.93802E+03 -2.61859E+01  5.67824E+03 -3.77980E+03
  8.40992E+03  7.94329E+03  7.98363E+03  4.85998E+03 -2.38933E+02  2.80584E+03 -7.66264E+02  1.14279E+04
 -3.58513E+03  3.63234E+03 -1.29245E+04  1.81386E+03 -4.98031E+03 -1.31204E+04  1.84234E+03 -1.12974E+04
  4.00735E+03 -1.06051E+04  1.07564E+04 -6.76956E+02  1.34428E+04  2.31876E+03  8.18975E+03  9.15994E+03
 -6.11088E+03  3.19079E+03 -1.28560E+03  5.88283E+03 -7.97283E+03  2.75650E+03 -7.23995E+03 -2.97471E+03
  9.71534E+03  4.46631E+03  2.35365E+03  2.89896E+03 -3.05875E+03  2.50167E+02 -9.37177E+03 -1.77485E+03
 -9.64848E+03 -3.72795E+03 -1.40438E+03 -1.20072E+04  5.44758E+03 -6.96545E+03  6.97326E+03 -1.04991E+03
  1.11338E+04  5.03351E+02  5.55035E+03 -2.26761E+03  4.22096E+02  3.71699E+03 -1.07000E+04  4.46732E+03
