 $NMID ID='MM_0lb_SNR50_13hz_g55_66.RAW', FMTDAT='(8E13.5)'
 TRAMP=1., VOLUME=1. $END
  3.11074E+05  2.20196E+02  3.32631E+05  2.52287E+05  8.25506E+04  3.40292E+05 -1.29435E+05  2.50010E+05
 -1.88025E+05  7.91507E+04 -1.14932E+05 -3.70856E+04 -1.88131E+03 -5.18727E+04  5.25143E+04 -1.69811E+03
  3.94869E+04  5.07975E+04 -2.30804E+04  8.07872E+04 -5.99009E+04  6.08950E+04 -8.79952E+04  3.41360E+04
 -8.18315E+04 -1.62582E+04 -5.42001E+04 -5.49150E+04 -1.57218E+04 -7.15611E+04  2.61044E+04 -4.38178E+04
  3.62938E+04  5.15692E+03  1.47499E+04  5.00490E+04 -3.19488E+04  4.63963E+04 -7.08879E+04 -1.76022E+03
 -5.02295E+04 -5.73965E+04 -4.47787E+03 -8.10666E+04  3.41158E+04 -5.89465E+04  4.68984E+04 -1.63974E+04
  4.30729E+04  1.19493E+04  2.82496E+04  2.73350E+04  1.42386E+04  3.08506E+04 -4.65515E+03  3.13612E+04
 -2.52857E+04  1.01526E+04 -1.76003E+04 -4.34963E+03  4.52324E+03 -5.29223E+03  2.35640E+04  1.09398E+04
  8.11246E+03  3.59368E+04 -3.73231E+04  4.00684E+04 -6.48198E+04  2.92091E+03 -5.66311E+04 -4.20521E+04
 -1.37364E+04 -6.69231E+04  3.97567E+04 -4.59424E+04  6.54126E+04 -2.67367E+03  3.57631E+04  2.95393E+04
 -5.37525E+03  4.44199E+04 -2.81122E+04  1.45280E+04 -3.10869E+04 -8.14428E+03 -1.44163E+04 -8.03573E+03
 -9.30261E+03 -1.25761E+04 -3.95858E+02 -2.15887E+04  1.03760E+04 -3.19490E+04  1.35261E+04 -1.46522E+04
  1.20260E+04  3.72708E+03 -7.45675E+03  1.35527E+04 -2.50788E+04 -5.51991E+03 -1.23976E+04 -3.34786E+04
  2.51137E+04 -4.03632E+04  5.24423E+04 -1.81123E+04  4.28392E+04  1.64377E+04  1.90394E+04  4.54119E+04
 -1.34290E+04  3.82350E+04 -2.82198E+04 -1.21463E+03 -1.41283E+04 -3.03372E+04  2.35710E+04 -3.20161E+04
  3.74319E+04 -6.18227E+03  3.92171E+04  2.19803E+04  1.75662E+04  5.14233E+04 -8.26586E+03  5.30860E+04
 -3.79798E+04  3.46301E+04 -4.71164E+04  9.70569E+03 -4.13104E+04 -1.74883E+04 -2.37935E+04 -3.53810E+04
  7.40057E+03 -4.42563E+04  3.79133E+04 -1.64705E+04  3.08709E+04  6.38837E+03  4.86426E+03  2.52454E+04
 -1.45909E+04  8.81227E+03 -1.09501E+04 -5.88997E+03  7.55589E+03 -9.47527E+03  1.85506E+04  9.09070E+03
  1.60028E+04  2.04884E+04 -1.04845E+04  2.89442E+04 -2.50633E+04  1.43217E+04 -2.68298E+04 -4.53223E+03
 -2.21064E+04 -1.99510E+04 -1.22444E+04 -2.32573E+04  2.86811E+03 -1.90898E+04  1.87843E+04 -2.07168E+04
  2.75863E+04 -1.20359E+04  4.00392E+04  2.51318E+03  2.36585E+04  2.10696E+04  3.55100E+03  4.01672E+04
 -1.56248E+04  2.87070E+04 -2.98288E+04  1.03757E+04 -2.27800E+04 -1.67537E+04 -4.74162E+03 -1.32414E+04
  3.77936E+03 -2.08357E+03 -6.64773E+03  1.16266E+04 -1.83155E+04  6.83109E+03 -2.16062E+04 -8.47925E+03
 -6.44010E+03 -1.69716E+04  1.60470E+03 -2.20501E+04  2.17692E+04 -1.92845E+04  2.12443E+04  3.04660E+03
  7.03206E+03  1.78281E+04 -3.82428E+03  1.51170E+04 -1.97000E+04  1.12483E+04 -1.60735E+04 -2.18647E+03
 -1.72881E+04 -1.99963E+04 -8.57768E+02 -1.88222E+04  1.05776E+04 -1.92878E+04  1.81530E+04 -9.85725E+03
  2.24867E+04  1.39312E+03  1.34259E+04  2.70245E+03  1.01545E+04 -4.13936E+03  8.28192E+03  9.59653E+02
  2.03704E+04  4.20017E+03  2.26069E+04  1.77163E+04  1.41155E+04  3.19387E+04  1.51715E+03  3.65176E+04
 -2.49398E+04  3.41333E+04 -3.17719E+04  1.49033E+04 -3.53312E+04 -6.76944E+03 -2.98946E+04 -1.83790E+04
 -9.19236E+03 -3.12159E+04  1.55734E+04 -2.89370E+04  2.54009E+04 -1.55308E+04  2.40977E+04  6.30019E+03
  4.74172E+03  2.05483E+04 -9.11558E+03  1.80739E+04 -2.06481E+04  1.81238E+03 -1.14941E+04 -1.24254E+04
  4.67067E+02 -1.89015E+04  7.29750E+03 -1.19356E+04  8.38045E+03  1.47111E+03  1.64658E+03  7.30015E+03
 -1.05956E+04  3.66908E+03 -1.22300E+03 -7.22210E+03 -5.08090E+03 -1.58966E+04  1.06826E+04 -1.81854E+04
  2.07193E+04 -1.15276E+04  2.09358E+04  4.45674E+02  1.47837E+04  1.36326E+04  1.15675E+04  2.32360E+04
 -3.07942E+03  2.45051E+04 -1.29673E+04  1.73674E+04 -1.89514E+04  3.07876E+03 -1.60368E+04 -6.31256E+03
 -6.15955E+03 -4.62759E+03  5.70934E+03  2.00384E+03 -8.66947E+02  1.85608E+03 -2.40844E+03  2.21756E+03
 -7.83307E+03 -1.41508E+03 -8.17250E+03 -1.36679E+04 -3.03407E+03 -1.41397E+04  6.42878E+03 -9.78149E+03
  1.19353E+04 -9.02744E+03  7.11120E+03  1.15117E+03  4.58895E+03  7.48632E+02 -3.43606E+03  1.03133E+02
 -3.30028E+03 -9.73652E+03 -9.14947E+02 -9.22971E+03  3.48608E+03 -1.62076E+04  1.06390E+04 -9.76511E+03
  1.56452E+04  6.19207E+02  1.55301E+04  1.41827E+04  4.22910E+03  1.19933E+04 -6.67373E+03  1.61389E+04
 -8.36727E+03  7.40223E+03 -5.68237E+03 -4.56733E+03 -1.85238E+03 -4.33891E+03  7.86051E+03 -7.01198E+03
  6.07817E+03  5.00954E+03  2.90471E+03  1.00136E+04 -5.10495E+03  1.21956E+04 -9.36574E+03  2.01182E+03
 -1.22129E+04 -1.18994E+04 -1.60817E+03 -9.31996E+03  8.42151E+03 -9.02404E+02 -2.78367E+03 -5.61965E+02
  4.83376E+03  7.28355E+03 -5.42428E+03  1.07641E+04 -1.16253E+04  2.91258E+03 -1.46751E+04 -5.36488E+03
 -5.95173E+03 -7.04342E+03  8.91783E+02 -7.11834E+03  1.37877E+04 -6.86429E+03  5.34381E+03 -1.48860E+03
  1.01363E+04  1.17950E+04 -7.51148E+03  1.28376E+04 -1.00369E+04  6.29836E+03 -1.09211E+04 -9.45850E+02
 -4.88818E+02 -7.09325E+03  3.00294E+01 -7.97908E+03  5.75684E+03 -6.36568E+03  4.60384E+03 -5.95544E+03
  2.20735E+03  7.53168E+03 -2.22796E+03  2.82510E+02 -5.32754E+03 -2.19860E+03  2.20357E+03 -4.74860E+03
  1.04231E+04 -8.64128E+03  1.06953E+04  2.71503E+03  1.41664E+04  4.10086E+03  1.15246E+04  1.15391E+04
 -4.37030E+03  1.65542E+04 -1.63836E+04  1.01551E+04 -2.11578E+04 -1.09872E+03 -1.26710E+04 -1.21909E+04
 -3.57944E+03 -1.33816E+04 -3.21883E+03 -1.14877E+04  1.00904E+04 -5.33978E+03  7.15464E+03 -9.02890E+03
  4.38490E+03 -4.88241E+03  3.82834E+03 -4.29260E+03  1.28248E+03 -3.03480E+03  7.29999E+03 -1.62761E+03
  6.31450E+03 -1.03337E+03  6.28417E+03  8.99759E+03 -4.80266E+03  1.06990E+04 -4.36531E+03  7.17040E+03
 -8.34606E+03 -4.58465E+03 -4.12080E+03 -9.05855E+03  1.31108E+03 -9.01242E+03  6.44330E+03 -9.88618E+03
  1.54520E+04 -1.24278E+03  1.37587E+04  1.35771E+03  9.45192E+03  8.83664E+03  4.65472E+03  1.11362E+04
 -5.34823E+03  9.14560E+03 -6.99840E+03  8.22344E+03 -1.17818E+03 -1.72843E+03 -3.64176E+03 -5.33741E+03
 -6.45046E+03  3.65655E+03 -8.15196E+02  4.25107E+03 -2.88926E+03  1.88319E+03 -5.38463E+03 -5.80497E+03
 -2.73600E+03 -2.84498E+03  8.76424E+02 -6.94978E+03  6.28910E+03 -8.87163E+03  7.91331E+03  4.34548E+02
  6.99592E+03  5.21218E+03  4.36669E+03  1.10846E+04 -3.80903E+03  6.06077E+03 -6.05917E+03  7.84782E+03
 -1.03095E+04  6.24590E+02 -3.72521E+03 -5.66770E+03  2.78324E+02 -6.60371E+03  7.48116E+03 -5.23828E+03
  4.87638E+03 -4.06318E+03 -4.18263E+02  3.44762E+03 -2.31508E+03  3.07438E+02  3.66316E+03 -1.52172E+03
  1.04270E+04  4.37490E+02 -3.87185E+03  4.81536E+02  5.25810E+03  4.06565E+03  5.39266E+03  1.26929E+03
 -2.81197E+03  7.13400E+03 -4.23377E+03  1.15628E+04 -1.25594E+04  5.35686E+03 -9.49073E+03 -6.24937E+03
 -5.34838E+03 -1.08597E+04  2.50767E+03 -9.52338E+03  4.40556E+03 -7.21464E+03  9.41313E+03 -4.38432E+03
  3.25111E+03  4.40324E+03  4.31173E+02  1.09620E+04 -2.22145E+03  4.61686E+03 -5.28838E+03 -4.86873E+02
 -1.63815E+03 -6.38030E+03  6.83795E+02 -4.79202E+03  7.26457E+03 -6.73410E+03  1.08168E+04 -2.25057E+03
  1.10365E+03  4.36112E+02  1.47062E+03  6.52745E+03 -6.60647E+02 -3.96973E+02  9.45601E+02 -4.91949E+03
  2.63223E+02  1.64597E+03  3.43701E+03  4.02134E+03  6.33999E+01  7.78106E+03  6.73292E+02  4.80751E+03
 -1.50673E+03  9.60405E+03 -9.63861E+03  3.24650E+03 -7.75575E+03  4.46211E+02  4.31028E+01 -7.61001E+03
 -1.69559E+03 -5.98128E+03  4.58248E+03 -5.75596E+03 -3.10709E+03  2.75433E+03 -6.40640E+03  2.62825E+03
 -4.31581E+03  2.18828E+01 -8.40641E+02 -1.71121E+03 -2.64433E+01 -6.75383E+03 -1.57881E+03 -6.75334E+03
  1.30828E+03 -1.78524E+03  7.14680E+03  2.25488E+03  4.09201E+03  5.81521E+03  2.95450E+02  2.95963E+03
 -5.86727E+03 -1.41885E+03 -6.77115E+03  7.04091E+02 -1.05142E+02 -1.08608E+03  7.37858E+03 -5.35605E+03
  5.98964E+03 -1.59009E+03  8.11725E+03  1.96928E+02 -1.83475E+03  4.69239E+03 -1.81018E+03  3.58037E+03
 -1.60619E+03  2.18203E+03 -2.07833E+03 -6.12197E+03 -2.82642E+03 -2.29551E+03  5.27238E+03 -4.69593E+03
  3.28140E+03  1.59544E+03 -7.27528E+02  1.92575E+03  2.53064E+03  4.78818E+03  1.62732E+03  7.17184E+03
  5.13181E+03  4.78646E+02 -8.03842E+02  4.76556E+02  3.87010E+03 -2.37448E+00  2.70178E+03  2.39752E+03
 -2.29639E+03  3.01360E+03 -2.46686E+03 -3.57451E+03 -4.75460E+03  1.60027E+02 -5.54283E+03 -8.86405E+03
 -6.44677E+01 -5.81479E+03  4.10154E+03 -4.97661E+03 -1.87626E+03 -3.73445E+03  7.22879E+02 -1.95585E+03
  7.74236E+03 -4.60457E+03  6.96948E+03  5.59982E+03  1.32244E+02  8.76466E+03 -1.70145E+03  7.02358E+03
 -1.58704E+03  3.67994E+03 -9.66703E+03  3.13012E+03 -5.55604E+03 -1.88089E+02 -1.57952E+03  3.90746E+03
 -2.77750E+03  1.28709E+02  2.36127E+03  9.30911E+02  2.95569E+03 -6.10419E+03  6.64172E+02 -2.35547E+03
  3.15159E+03 -7.40872E+02  2.66434E+03  7.37113E+02  6.66578E+03  3.31664E+03  2.52924E+03  6.68103E+03
  1.92282E+02  1.15951E+04 -3.17038E+03  3.54608E+03 -6.27406E+03 -6.69911E+03 -2.64338E+03 -7.83232E+03
  4.94022E+02  2.60275E+03  5.17431E+03 -4.61111E+03 -1.12106E+03 -4.67876E+03  5.88334E+03 -4.38268E+02
 -3.52795E+03  2.12505E+02  4.95314E+03 -3.87662E+03 -3.24163E+03 -9.92845E+01 -5.28836E+03  1.66124E+03
 -2.71212E+03  1.08055E+03  1.79283E+03 -2.07807E+03  6.78719E+03  7.25700E+03 -5.21251E+02  6.05524E+03
 -6.59389E+03  2.32803E+03 -7.08149E+03  6.54516E+03 -1.58118E+03 -5.27023E+03 -2.28800E+03 -1.18959E+03
  3.19303E+03 -3.53484E+03  2.15910E+03 -6.55535E+02  5.60962E+03  5.84859E+03  2.05558E+03  2.63149E+03
  2.64957E+03  3.35396E+03  1.79814E+03  7.18610E+02 -1.47764E+03  2.95130E+03  2.96128E+03  3.16981E+01
  2.66626E+03 -4.33625E+03 -5.52498E+03 -3.02774E+03 -1.80015E+02  1.80149E+03 -7.75502E+03  9.90759E+02
 -2.45812E+02  1.83439E+03 -7.35869E+03 -1.85557E+03 -4.80977E+03 -2.19525E+03  4.45730E+03 -2.25865E+03
  3.51147E+03  2.07895E+03 -1.24178E+03  6.63557E+02 -2.06645E+02 -2.97679E+03 -4.07886E+03  3.35968E+03
