 $NMID ID='MM_0lb_SNR50_19hz_g55_26.RAW', FMTDAT='(8E13.5)'
 TRAMP=1., VOLUME=1. $END
  3.09568E+05  3.97423E+03  3.37324E+05  2.48855E+05  8.62312E+04  3.38502E+05 -1.33759E+05  2.51196E+05
 -1.90183E+05  8.00825E+04 -1.08835E+05 -3.07068E+04  2.20026E+03 -5.08511E+04  5.09923E+04 -2.89754E+03
  3.90999E+04  5.44280E+04 -1.87340E+04  7.64165E+04 -5.93307E+04  6.46057E+04 -8.42168E+04  3.01401E+04
 -7.95798E+04 -1.03019E+04 -5.87263E+04 -5.14463E+04 -1.38938E+04 -7.12715E+04  2.65932E+04 -4.28005E+04
  3.97258E+04  2.38464E+03  1.81223E+04  4.73983E+04 -3.22278E+04  4.74201E+04 -6.64711E+04 -3.74480E+03
 -5.59980E+04 -5.54712E+04 -8.77753E+03 -7.46693E+04  3.27003E+04 -5.54170E+04  5.05643E+04 -1.61106E+04
  4.08166E+04  1.31208E+04  3.23746E+04  2.46013E+04  1.90738E+04  2.87074E+04 -3.55863E+03  2.80068E+04
 -1.94077E+04  1.27921E+04 -1.85906E+04 -5.49416E+03  2.92073E+03 -4.97672E+03  1.80542E+04  1.16859E+04
  1.15664E+04  3.53425E+04 -3.70428E+04  3.39452E+04 -6.13083E+04  1.74450E+03 -5.83296E+04 -4.41198E+04
 -9.40931E+03 -6.22237E+04  3.83081E+04 -4.30153E+04  5.76044E+04 -1.35771E+03  3.14277E+04  3.16718E+04
 -3.89890E+03  3.50695E+04 -2.70403E+04  1.30713E+04 -2.86168E+04 -3.78409E+02 -1.52405E+04 -1.40838E+04
 -6.99987E+03 -1.34864E+04  4.90761E+03 -1.79035E+04  6.71961E+03 -2.14399E+04  1.43830E+04 -1.32225E+04
  1.51458E+04  5.85646E+03 -6.09889E+03  1.32444E+04 -2.11422E+04 -4.96175E+03 -8.07659E+03 -3.23003E+04
  2.44174E+04 -4.26191E+04  4.73331E+04 -2.06202E+04  4.31124E+04  2.20312E+04  1.41556E+04  4.08576E+04
 -1.60008E+04  3.21864E+04 -2.22344E+04  1.97398E+03 -5.28615E+03 -2.89866E+04  1.64453E+04 -3.54880E+04
  3.46415E+04 -8.54363E+03  3.17605E+04  1.83134E+04  1.89529E+04  4.15097E+04 -8.29366E+03  4.78216E+04
 -3.23793E+04  2.93833E+04 -3.77209E+04  8.47177E+03 -3.69471E+04 -1.47429E+04 -2.17667E+04 -3.41706E+04
  6.82089E+03 -3.49951E+04  2.87311E+04 -1.08477E+04  2.81178E+04  1.27881E+04  2.54795E+03  1.86014E+04
 -1.45198E+04  7.17145E+03 -1.03948E+04 -6.61188E+03  5.68477E+03 -9.56573E+03  1.60549E+04  6.61039E+03
  1.32595E+04  1.77970E+04 -3.22224E+03  2.61902E+04 -1.80522E+04  1.34951E+04 -2.61634E+04 -6.07101E+03
 -1.69045E+04 -1.60981E+04 -9.57576E+03 -1.36586E+04  5.04472E+03 -1.75961E+04  1.14637E+04 -1.43734E+04
  2.44761E+04 -1.33695E+04  2.87258E+04  1.16959E+03  2.26730E+04  1.74768E+04  6.39968E+03  3.45768E+04
 -2.34293E+04  2.62442E+04 -2.03400E+04  9.89483E+03 -2.17133E+04 -9.87847E+03 -2.65060E+03 -1.60610E+04
 -2.54832E+03 -7.16866E+03 -3.53943E+03  4.62065E+03 -1.26823E+04  2.16800E+03 -1.19411E+04 -5.61780E+03
 -1.21077E+04 -1.13198E+04  7.11287E+03 -1.73510E+04  1.83441E+04 -1.25573E+04  1.86201E+04 -2.43792E+03
  1.14752E+04  8.49331E+03  2.61868E+03  1.33706E+04 -1.03067E+04  8.45153E+03 -1.41109E+04 -2.54070E+03
 -1.35241E+04 -1.44775E+04  9.09143E+02 -1.57345E+04  8.12706E+03 -1.36647E+04  1.60839E+04 -7.75203E+03
  1.43030E+04 -3.67209E+03  1.28946E+04  6.22198E+03  8.88763E+03 -4.25187E+03  1.90615E+03  7.38779E+02
  1.73479E+04  2.40517E+02  1.28949E+04  1.60604E+04  4.42318E+03  2.51546E+04 -3.49617E+03  2.46911E+04
 -1.41131E+04  2.40697E+04 -2.84446E+04  6.60290E+03 -2.83515E+04  7.56585E+02 -2.52669E+04 -1.59412E+04
 -6.92362E+03 -2.01267E+04  3.67909E+03 -1.86415E+04  1.57296E+04 -1.20035E+04  1.33173E+04  5.89516E+03
  5.18700E+03  8.36050E+03 -1.11407E+04  6.40948E+03 -1.60151E+04  6.23015E+03 -6.88114E+03 -4.39100E+03
  3.06505E+03 -1.30634E+04  6.17175E+03 -8.42529E+03  9.97058E+03 -3.79051E+03 -2.16061E+02  2.03714E+03
 -5.55604E+03  4.91097E+02 -4.94123E+03 -6.11511E+03 -8.69296E+02 -9.86143E+03  9.11002E+03 -9.94469E+03
  1.30362E+04 -2.50247E+03  1.67431E+04  4.09767E+03  7.58415E+03  8.64666E+03  3.23677E+03  1.15344E+04
 -5.16544E+03  1.83534E+04 -8.34370E+03  1.00138E+04 -1.03954E+04  4.84081E+02 -1.05562E+04 -2.14830E+03
 -5.43973E+03 -1.84961E+03  6.99989E+02  6.37375E+02 -3.95316E+03  1.51672E+03 -4.61222E+03  1.73161E+03
 -7.40066E+03  3.64960E+03 -8.28037E+03 -4.81378E+03 -1.15286E+03 -1.27424E+04 -6.18055E+02 -6.37702E+03
  7.07663E+03 -2.52131E+03  9.50175E+03  3.25472E+03 -5.32820E+02  1.69757E+03 -6.64515E+03 -1.45643E+03
 -2.87838E+03 -4.23680E+03  1.14479E+03 -7.66857E+03  7.09941E+03 -7.11561E+03  1.02632E+04 -6.50137E+03
  1.21892E+04 -9.10619E+02  8.17405E+03  8.11162E+03  3.48093E+03  4.62046E+03 -4.02889E+03  9.23491E+03
 -7.71446E+03  4.48386E+03 -4.38716E+03 -1.55504E+03  3.90080E+03 -1.80836E+03  8.50720E+03 -4.74436E+03
  5.44505E+03  2.51129E+03  7.63068E+01  6.12075E+03 -3.02175E+03  9.35922E+03 -5.48228E+03  2.98118E+03
 -5.88809E+03 -3.57146E+03  6.97875E+02 -6.15063E+03  3.58558E+03 -4.43192E+03  2.85862E+03  1.30127E+03
 -2.30337E+02  3.36377E+03 -3.03828E+03  5.85085E+03 -1.15922E+04  4.32469E+03 -4.54860E+03  1.03729E+03
 -3.78738E+03 -2.27607E+03 -7.02114E+02 -4.85855E+03  6.51788E+03 -4.75109E+03  6.22783E+03  1.90258E+03
  2.73453E+03  6.71589E+03  2.26724E+03  5.06850E+03 -5.28351E+03  2.57334E+03 -3.87265E+03  7.69191E+00
 -3.28237E+03 -4.61514E+03 -2.61688E+03 -3.59449E+03  3.13893E+03 -4.46158E+03  2.25837E+03 -2.93846E+03
  3.27532E+03 -2.48029E+03  4.71905E+03  1.67152E+03  2.19305E+03 -9.60659E+00  1.30050E+03  2.59937E+03
  3.38727E+03  4.85443E+02  6.38617E+03  7.80381E+02  4.97324E+03  2.57469E+03  4.62716E+03  2.88558E+03
  2.62141E+03  6.89565E+03 -6.69729E+03  5.29665E+03 -1.00804E+04  6.33249E+02 -9.90852E+03 -9.26389E+02
 -5.12659E+03 -8.14751E+03 -1.18813E+03 -7.71581E+03  3.35720E+03 -3.78914E+03  1.35075E+02 -4.45556E+02
  2.46913E+03 -1.67280E+03  1.01154E+03 -2.28860E+03 -3.07206E+02  1.08445E+03  8.53631E+03 -1.02249E+03
  6.65997E+03  3.06779E+02 -2.02903E+03  1.96365E+03 -3.39134E+03  1.87432E+03 -4.87080E+03 -3.07383E+03
 -9.54272E+03  3.71787E+01 -9.68522E+02 -1.96344E+03  9.74086E+02 -8.78558E+03  2.15915E+03 -8.77923E+03
  3.66241E+03 -1.25100E+03  1.02701E+04  4.36015E+03  6.13943E+03  1.24514E+03  3.73615E+02  7.72366E+03
 -1.50283E+03  9.92438E+03  4.40369E+02 -2.77436E+03  2.57196E+03 -1.42159E+03 -2.85068E+02 -1.12723E+03
 -4.65933E+03 -3.78099E+03 -4.13132E+02  5.73388E+03 -1.85395E+03 -1.72492E+03 -1.34007E+03 -6.15583E+02
 -2.96098E+03 -4.23293E+03 -1.71442E+03 -8.82619E+02 -2.30884E+03  1.63592E+03  1.68829E+03 -5.41773E+02
  7.80543E+03  2.13729E+03  4.34317E+03  5.62842E+03  1.33610E+03  4.98874E+03 -7.08668E+03  5.73165E+03
 -3.70053E+03  6.35161E+03 -2.43828E+03 -1.42757E+03  2.74706E+03 -5.07738E+03  3.94029E+02 -1.20415E+03
  1.26239E+03  1.96579E+02  3.42378E+03 -7.12296E+02  2.17973E+03  1.10702E+03  1.57161E+03  2.23147E+03
  2.19941E+03 -2.38247E+03  1.80062E+03  3.09584E+03 -1.96469E+03 -1.58334E+03  3.22497E+03  5.23760E+03
 -2.56651E+03  2.34682E+03  1.62582E+01  4.25197E+03 -2.44910E+03  7.79806E+03 -2.72910E+03  5.80183E+02
 -9.85636E+02  2.07594E+03 -3.67121E+03 -3.86317E+03  7.47160E+02  3.17416E+02  4.88343E+03 -4.84352E+02
  3.88526E+03 -2.81038E+03  4.26430E+03  3.78800E+03 -3.40637E+03 -1.08316E+03 -1.35280E+03 -1.18364E+03
  2.97781E+03  3.70079E+02 -1.58826E+03  2.19238E+03  2.54928E+03  1.28422E+03 -7.12857E+02  1.87216E+03
 -4.08550E+03  8.52593E+02 -1.77088E+02 -1.47061E+03  2.23133E+03  2.36793E+03  2.09127E+03  8.21274E+02
  8.09965E+02 -5.76149E+02  5.23688E+02  1.90773E+03  3.24761E+03  2.75603E+03  3.90716E+03  3.47051E+02
 -8.20223E+02 -3.95600E+02  1.92236E+03  7.31266E+02 -5.07941E+03 -1.58838E+03 -2.33153E+02 -2.13147E+03
 -2.03275E+03 -1.47389E+03 -1.03619E+03 -4.24337E+03 -8.67811E+02  2.77146E+03  4.47166E+02 -8.13619E+02
  1.21421E+03 -1.02718E+03 -2.97701E+03  4.28002E+02  2.69268E+03 -2.23459E+03  2.41499E+02 -1.52528E+03
 -2.99052E+03  1.55086E+03  1.30322E+03 -2.96862E+02  3.02022E+03 -1.99276E+03  2.87195E+02 -2.32506E+02
  6.05746E+02  5.10660E+02  2.87951E+03  4.63358E+02  2.79631E+03 -4.05629E+03 -1.53982E+03  5.42626E+02
 -3.79382E+03  6.23652E+03 -8.97346E+02 -3.21307E+03 -4.44158E+02  3.56625E+02 -6.30738E+02  1.41918E+02
 -1.18896E+03  9.75990E+01 -2.10889E+03 -2.88964E+02 -2.62164E+03  8.58680E+02  1.79255E+02 -9.60322E+02
  3.47497E+03 -1.72256E+03  1.33125E+03  1.41034E+03  1.45771E+02 -2.08740E+03 -1.17988E+03  2.02617E+03
 -8.35227E+02  2.42018E+03  1.81747E+03  1.71095E+03  3.10751E+03  6.93287E+02 -2.02752E+03 -2.16459E+03
 -2.86815E+03  2.34343E+03  5.49117E+02  1.24036E+03  4.10437E+03 -1.76322E+03 -6.63878E+03  2.10268E+03
 -2.18576E+03  1.45676E+03 -7.32936E+02 -2.98554E+03 -8.37595E+02 -3.83444E+03  2.61392E+03  3.18708E+03
  3.88507E+03  4.23086E+02 -4.29433E+02 -1.07608E+03 -9.25590E+02  3.13745E+03 -2.13049E+02  1.05830E+03
 -1.74802E+03  5.15422E+02 -2.48399E+03 -1.46380E+03 -2.57871E+02 -2.43339E+03 -4.18234E+01 -3.35015E+03
 -3.42825E+03  4.69452E+03 -4.25828E+03 -2.71528E+03 -8.70793E+02  2.88803E+03  4.48985E+03 -3.72237E+03
  4.93866E+03 -4.14438E+03 -1.51843E+03  1.12614E+03  2.33355E+03  2.85986E+02 -2.27286E+03  3.21042E+03
 -3.53482E+03  4.74225E+03  3.01209E+03 -3.74286E+03  7.20816E+01  1.13702E+03 -9.37246E+02  1.95335E+03
  4.89295E+02  1.17640E+02  2.08619E+03 -7.68473E+02 -4.59041E+02  3.92862E+03  1.93331E+03  7.54561E+02
 -1.59143E+03 -1.34947E+03  3.44192E+03  2.14209E+03  3.05607E+02  1.66007E+03 -2.95106E+03  3.37007E+03
  2.89819E+03 -5.13610E+03 -2.94272E+03  3.21017E+03  2.80149E+02 -3.54665E+03  3.71440E+03  2.03117E+03
 -5.70958E+02  6.86933E+03 -1.94776E+03  4.12677E+03 -3.99987E+02  4.50134E+03  4.33815E+03 -7.60441E+02
 -1.52212E+02 -4.79074E+03  9.43984E+02 -1.87802E+03  2.45924E+03 -3.19012E+02 -3.40013E+03 -3.13726E+03
 -5.40458E+02  1.69425E+02 -1.87928E+03  6.33973E+02  2.53802E+03  6.37789E+02 -8.92677E+02 -1.04456E+03
  1.40345E+03 -1.61360E+03  2.10518E+02  1.07611E+03 -2.39113E+03 -2.14567E+03 -3.03583E+03  1.06609E+03
  2.63141E+03  4.12445E+02 -1.66847E+03  9.11869E+02  5.48961E+02 -3.33719E+03 -7.64975E+02 -1.85996E+03
  3.58100E+03  2.73993E+03  4.36421E+02  2.07502E+02 -1.11802E+03  1.89107E+03  1.34029E+03  2.63269E+03
