 $NMID ID='MM_0lb_SNR50_13hz_g45_89.RAW', FMTDAT='(8E13.5)'
 TRAMP=1., VOLUME=1. $END
  3.08679E+05  4.74845E+02  3.37385E+05  2.48515E+05  8.58303E+04  3.35790E+05 -1.31963E+05  2.49169E+05
 -1.90778E+05  8.58459E+04 -1.12499E+05 -3.43030E+04  4.38738E+02 -5.25086E+04  5.42512E+04 -2.23159E+03
  3.65361E+04  5.29650E+04 -1.88991E+04  7.54708E+04 -5.67376E+04  6.13216E+04 -8.66398E+04  3.35687E+04
 -7.85208E+04 -8.31948E+03 -5.22482E+04 -5.69576E+04 -1.35722E+04 -7.12061E+04  2.45512E+04 -4.00308E+04
  4.06055E+04  3.97963E+03  1.79075E+04  4.87231E+04 -3.79804E+04  4.79744E+04 -6.28819E+04  3.44860E+03
 -4.89034E+04 -5.66300E+04 -4.57817E+03 -7.62009E+04  2.97783E+04 -5.60741E+04  5.01555E+04 -1.42073E+04
  4.23803E+04  1.11073E+04  3.07930E+04  2.30810E+04  1.25958E+04  3.02122E+04 -7.58165E+03  2.85007E+04
 -2.71068E+04  1.78422E+04 -1.47132E+04 -4.93604E+03  7.63516E+02 -5.29942E+03  2.74943E+04  9.44591E+03
  2.07288E+03  3.63156E+04 -3.20964E+04  3.49153E+04 -6.67999E+04  3.28904E+03 -6.00516E+04 -4.35284E+04
 -1.22526E+04 -6.65725E+04  3.97888E+04 -4.36260E+04  5.52940E+04 -4.19452E+03  3.74433E+04  3.41189E+04
 -9.55235E+03  3.92063E+04 -3.68656E+04  1.73630E+04 -3.10599E+04 -3.36696E+03 -1.97029E+04 -8.84209E+03
 -1.11766E+04 -1.22973E+04  4.55909E+03 -1.75206E+04  1.14127E+04 -2.43267E+04  1.80343E+04 -2.07774E+04
  1.01143E+04  7.44702E+02 -1.28076E+04  1.04293E+04 -1.95427E+04 -6.16303E+03 -1.12103E+04 -3.36372E+04
  2.21956E+04 -4.50751E+04  4.73154E+04 -2.37029E+04  4.79366E+04  2.10919E+04  1.78713E+04  3.99094E+04
 -2.02205E+04  2.95490E+04 -2.71848E+04  1.00632E+03 -7.16852E+03 -2.91981E+04  1.79062E+04 -3.60510E+04
  4.08843E+04 -6.92520E+03  3.78560E+04  2.06567E+04  1.71282E+04  4.72014E+04 -8.17305E+03  4.84135E+04
 -3.38894E+04  2.88782E+04 -4.10468E+04  1.30926E+04 -4.14398E+04 -1.90924E+04 -1.97525E+04 -3.84822E+04
  5.64406E+03 -4.05978E+04  3.09106E+04 -1.76523E+04  3.22270E+04  6.70412E+03  5.93141E+03  2.50130E+04
 -1.81052E+04  1.00196E+04 -9.59606E+03 -6.35855E+03  6.63309E+03 -9.55716E+03  1.77815E+04  5.37696E+03
  5.99084E+03  1.57824E+04 -5.62316E+03  2.63098E+04 -2.62533E+04  6.16503E+03 -2.86934E+04 -3.73911E+03
 -2.30970E+04 -2.08483E+04 -7.58606E+03 -1.83305E+04  5.78623E+03 -2.05406E+04  1.11013E+04 -1.90390E+04
  3.19999E+04 -1.27093E+04  3.45145E+04  4.80355E+03  2.12942E+04  2.34070E+04  8.56622E+03  3.57896E+04
 -1.90983E+04  2.84216E+04 -2.88813E+04  1.08281E+04 -1.75978E+04 -5.91678E+03 -9.56043E+03 -1.29144E+04
 -2.13349E+03  1.18899E+03 -4.90008E+03  2.71385E+03 -1.61301E+04  1.98251E+03 -1.88264E+04 -6.83770E+03
 -6.66548E+03 -2.13269E+04  3.53336E+03 -2.74193E+04  1.76644E+04 -1.74726E+04  1.29134E+04  2.50010E+03
  1.35180E+04  1.50699E+04  9.53857E+02  1.70470E+04 -1.49034E+04  9.66949E+03 -2.33052E+04  8.70835E+02
 -1.40231E+04 -1.80476E+04 -4.24592E+03 -2.79150E+04  9.72737E+03 -2.23690E+04  2.32723E+04 -9.12236E+03
  1.89919E+04  2.65542E+03  1.22084E+04  3.16758E+03  5.16751E+03  3.41085E+02  8.00873E+03 -2.54710E+03
  1.49975E+04  3.45866E+03  2.18136E+04  1.57288E+04  1.43875E+04  3.16287E+04 -3.25093E+03  3.86405E+04
 -2.06259E+04  2.86659E+04 -3.51262E+04  1.09349E+04 -3.28343E+04 -3.78699E+03 -2.45382E+04 -1.85534E+04
 -1.47078E+04 -2.57886E+04  1.00838E+04 -2.66956E+04  2.38465E+04 -1.03436E+04  2.26645E+04  8.19907E+03
  1.11898E+04  1.52087E+04 -6.74161E+03  1.28279E+04 -1.22987E+04  3.02801E+02 -9.17721E+03 -1.07218E+04
 -3.56507E+03 -1.40748E+04  8.96305E+03 -1.37913E+04  5.90829E+03 -3.28738E+03 -3.02589E+03  2.73135E+03
 -8.72502E+03  8.70903E+03 -9.48310E+03 -9.05443E+03 -2.64866E+03 -1.64973E+04  9.60902E+03 -1.70574E+04
  1.90296E+04 -9.00682E+03  1.41982E+04  1.17149E+04  1.26854E+04  1.11760E+04  5.99003E+03  2.05164E+04
 -5.59934E+03  2.54815E+04 -9.49617E+03  1.27312E+04 -9.16788E+03  1.77086E+03 -1.03740E+04 -1.05615E+03
 -4.55547E+03 -3.16562E+03 -4.96690E+03  1.24299E+03 -1.60786E+02 -6.66717E+02 -5.44795E+03  6.13472E+03
 -6.43103E+03 -7.82357E+02 -1.42454E+04 -3.91662E+03 -1.11319E+04 -1.24206E+04  4.66746E+03 -8.04344E+03
  1.03870E+04 -6.45801E+03  6.74663E+03 -9.76864E+02 -2.34310E+03  1.43739E+03 -3.20162E+03  2.13346E+03
 -3.08964E+03 -6.17774E+03  2.04424E+02 -7.69409E+03  9.06443E+03 -1.15092E+04  1.07804E+04 -2.69269E+03
  1.10545E+04 -8.46350E+02  1.78894E+04  9.45069E+03  5.01594E+03  1.25305E+04 -6.76529E+03  1.72290E+04
 -9.89690E+03  3.27847E+03 -2.61314E+03  7.43321E+01 -1.88418E+03  1.81777E+02  4.88226E+03  1.52821E+03
  6.76711E+03  9.69877E+02 -3.20152E+03  1.25380E+04 -6.90179E+02  1.01726E+04 -1.73173E+04  2.00511E+03
 -8.40976E+03 -5.57195E+03  6.40078E+02 -9.95439E+03  7.55021E+03 -3.24940E+03  2.35085E+03  5.62616E+03
  5.67794E+03  6.66819E+03 -8.82225E+03  9.04372E+03 -1.15361E+04  5.47033E+03 -8.47976E+03 -2.44085E+03
 -4.44292E+03 -7.20296E+03  3.84162E+03 -1.03767E+04  8.91784E+03 -7.52047E+03  1.13248E+04  1.75202E+03
  9.98999E+01  1.17162E+04 -6.81930E+03  1.21650E+04 -8.70929E+03  7.95820E+03 -7.28885E+03  1.63608E+03
 -1.21516E+04 -3.72838E+03 -2.78517E+03 -8.43909E+03 -7.97829E+02 -1.00283E+04  3.38550E+03 -2.08286E+03
  5.38437E+03  2.43144E+03 -1.06639E+04  2.90743E+03  1.88943E+03  1.10657E+03  5.77916E+03 -3.50471E+03
  6.07085E+03 -2.35998E+03  1.56112E+04  2.98010E+02  9.96353E+03  6.27830E+03  1.06809E+04  1.84701E+04
 -3.80577E+03  9.36702E+03 -1.70422E+04  1.10367E+04 -1.82714E+04  5.60530E+03 -1.64523E+04 -6.50447E+03
 -6.94327E+03 -1.31532E+04 -1.18134E+03 -1.25447E+04  5.30989E+03 -4.16032E+03 -7.29224E+02 -5.30608E+03
 -3.77113E+02 -2.19909E+03  4.30148E+03 -4.68477E+03  1.94429E+03  5.15149E+02  6.00321E+03  3.29490E+02
  8.96091E+03  3.93998E+03  1.41215E+03  3.65703E+03 -2.86643E+03  1.36754E+04 -3.05563E+03 -8.85526E+02
 -1.01113E+04  1.93243E+03 -6.75758E+03 -6.75074E+03 -3.12955E+03 -1.06154E+04  3.05524E+03 -9.59755E+03
  1.23951E+04 -6.96947E+03  1.13639E+04  1.44119E+02  8.05790E+03  1.24726E+04  1.85020E+03  8.57131E+03
 -3.54578E+03  5.11785E+03 -6.67965E+03  2.00284E+03  3.72800E+02  8.34837E+02  4.87599E+02  6.28278E+02
 -4.96756E+03 -2.29964E+03  1.07859E+03  2.18282E+03 -3.48390E+03  2.06899E+03 -4.58277E+03 -1.52096E+03
 -2.99692E+03 -5.81296E+03 -5.30963E+03 -8.35604E+03  1.57241E+03 -6.71405E+03  9.38678E+03 -2.02880E+03
  1.14341E+04  4.69548E+03  1.68430E+03  7.67274E+03 -4.77203E+03  1.22327E+04 -1.11201E+04  5.68686E+03
 -8.86470E+03  5.42385E+02 -1.52437E+03 -4.41821E+03  4.25567E+02 -6.59161E+03  4.45394E+03 -9.90860E+03
  3.88216E+03 -2.55208E+03  6.35846E+03  1.29250E+03 -8.53891E+02  1.19990E+03  1.07310E+03  5.31815E+02
  3.25977E+03  6.62214E+03 -1.71970E+03  3.94566E+03  4.60567E+03  1.03865E+03  4.02342E+03  6.79274E+03
 -5.11448E+03 -1.66803E+02 -5.04000E+03  1.10449E+04 -5.56069E+03  4.12995E+03 -5.74405E+03  9.97799E+01
  2.10040E+03 -1.24525E+04 -2.79274E+03 -1.06457E+04 -5.17063E+02 -2.31700E+03  3.86999E+03  7.73818E+02
  5.18664E+03  6.10379E+03  3.51881E+02  2.59408E+03 -4.86338E+03  6.00005E+03 -5.66882E+03 -3.16258E+03
 -1.87549E+03 -2.17173E+03  2.99593E+03 -8.60556E+03  4.69413E+03  7.53923E+02  6.59921E+02  9.09852E+02
 -2.85490E+03  6.41147E+02  5.63618E+03 -3.69298E+03  2.37276E+03  6.76928E+03  2.94517E+03  5.10063E+02
 -2.64365E+03 -1.09399E+02  2.29004E+03 -2.27539E+03 -3.10989E+03  5.19938E+03 -2.59462E+03  3.81124E+03
 -4.83377E+02  1.49726E+01 -4.63462E+03  6.85260E+03 -5.75428E+03 -1.40274E+03 -2.71822E+03 -4.52259E+03
  5.52985E+03 -8.00677E+03  2.83358E+03 -3.20852E+03  5.35156E+03  4.90144E+03 -1.86064E+03 -8.45653E+02
 -7.95428E+02  2.76274E+03 -1.37083E+03 -1.21276E+03 -3.12620E+03 -6.35195E+03  4.72706E+03 -3.06650E+03
  2.23749E+03  4.10899E+02  3.27497E+03 -1.44695E+03  2.17449E+03  1.27843E+03  3.49990E+03  3.80407E+03
 -4.46944E+03  2.24149E+03 -6.19746E+03 -6.03839E+03  1.44032E+03  5.28822E+02  1.04345E+03 -1.09893E+03
  1.08091E+04  2.77559E+02  7.22351E+03  7.78125E+03  1.81058E+03  3.47271E+03  6.01146E+02  2.72118E+03
 -1.68744E+03  4.74630E+03 -5.55162E+03 -3.82193E+03 -3.15264E+03 -6.48082E+03 -1.39331E+03 -5.56308E+03
  5.21635E+03  1.52041E+03  3.24408E+03  2.73687E+03  1.18632E+03  1.04261E+04  2.25155E+02  1.98675E+03
  4.92670E+02  2.86642E+03 -1.00421E+03 -3.41677E+03 -3.46215E+03  1.14098E+03  4.21397E+03  1.21982E+03
 -4.25266E+03  1.56478E+03  1.31574E+03  1.20417E+03 -9.88324E+01  1.76910E+02 -2.90130E+03 -2.54374E+03
 -1.84686E+03 -5.61909E+03 -6.09943E+02 -7.91983E+03  6.03920E+03 -8.03535E+03  1.17021E+04 -1.46507E+03
  8.74800E+03  6.97147E+03  2.94915E+03  6.49507E+03 -1.32909E+02  4.08153E+03 -1.04608E+04  6.45209E+03
  3.65505E+02 -1.01847E+03  4.91066E+03  2.23723E+03  1.24196E+03  1.84782E+03  1.38528E+03  1.45730E+03
 -3.77008E+03  1.60024E+03 -3.03107E+03 -2.63748E+03 -6.80310E+02 -1.68054E+03 -1.33741E+03  3.29042E+02
  2.92112E+03 -3.98686E+03  1.23482E+03 -1.74752E+03  2.14071E+03  2.22398E+03  1.24330E+03  7.05618E+03
 -9.70988E+01  8.73736E+03 -1.71137E+03  2.05195E+03 -6.10672E+03 -8.75655E+01 -9.03487E+03 -8.04076E+03
 -7.60636E+03 -5.68432E+03  7.49836E+03 -3.65171E+03  2.95867E+03 -3.34626E+03  1.72613E+03  2.09048E+03
 -2.67053E+03  1.36629E+03 -5.84622E+02 -4.55699E+02  1.96642E+03  7.54417E+03  2.00361E+02  5.17271E+03
  6.30563E+03 -1.59489E+03 -4.39271E+02 -3.54625E+03  7.72155E+02  1.40218E+03  3.67656E+03  1.01457E+04
  1.22819E+03  5.85400E+03 -1.02584E+03  2.30326E+02 -6.01879E+03 -6.43676E+03 -7.52167E+02 -2.34675E+03
  3.48223E+03 -1.43504E+03  3.94266E+03  4.46922E+03  3.81135E+03 -9.28538E+02  3.38907E+03  4.23361E+03
  2.58392E+03  2.15696E+03 -2.79212E+03  2.01415E+03 -6.10321E+03  2.08486E+03 -5.31766E+02 -6.86310E+02
 -3.89510E+03 -1.55887E+03  6.22741E+02 -1.19578E+03 -4.23893E+03  4.29782E+03 -3.32882E+03  1.84351E+03
 -1.39566E+03 -6.98840E+02  2.75358E+03 -1.68576E+03  2.12155E+03 -1.84578E+03  6.29134E+03 -2.35515E+03
  5.63512E+03  2.25251E+03  3.27539E+02 -5.03567E+02  2.02996E+03  2.12528E+03 -1.62934E+03 -7.90113E+02
