 $NMID ID='MM_0lb_SNR50_10hz_g45_50.RAW', FMTDAT='(8E13.5)'
 TRAMP=1., VOLUME=1. $END
  3.14612E+05 -2.14735E+03  3.43406E+05  2.56082E+05  8.70193E+04  3.39379E+05 -1.34551E+05  2.51039E+05
 -1.87501E+05  7.94269E+04 -1.07247E+05 -3.14928E+04 -9.96308E+02 -5.01162E+04  5.80237E+04 -3.39086E+03
  3.36849E+04  5.18528E+04 -1.60748E+04  7.91300E+04 -5.59507E+04  6.34869E+04 -8.18948E+04  3.06699E+04
 -8.59287E+04 -6.09609E+03 -6.27869E+04 -5.63018E+04 -2.00182E+04 -6.94506E+04  2.55062E+04 -4.68409E+04
  4.14098E+04  8.11876E+03  1.88594E+04  4.97302E+04 -3.30227E+04  5.39074E+04 -6.90393E+04 -2.43982E+03
 -5.52884E+04 -6.06826E+04 -9.35589E+03 -8.03006E+04  3.60948E+04 -6.06285E+04  5.58563E+04 -1.42156E+04
  4.25445E+04  7.88858E+03  3.54271E+04  2.77010E+04  1.13198E+04  3.12094E+04 -7.10232E+03  2.60451E+04
 -2.05190E+04  1.42142E+04 -1.77192E+04 -6.33182E+03  4.81583E+03 -2.20308E+03  2.36178E+04  1.75092E+04
  6.81228E+03  3.97078E+04 -2.64419E+04  3.44232E+04 -6.49386E+04  2.60212E+03 -5.13702E+04 -5.31906E+04
 -1.11851E+04 -7.20644E+04  4.24511E+04 -4.59746E+04  6.32933E+04 -7.91288E+03  3.32137E+04  3.26681E+04
 -9.48267E+03  3.80557E+04 -2.77103E+04  2.13746E+04 -3.58233E+04 -3.20703E+03 -2.15175E+04 -1.09682E+04
 -5.58198E+03 -1.69620E+04  2.17521E+03 -1.86957E+04  1.05900E+04 -2.81947E+04  1.93640E+04 -1.04934E+04
  9.70995E+03  1.12331E+03 -1.14169E+04  1.87241E+04 -2.67257E+04 -1.01907E+04 -8.65113E+03 -4.01791E+04
  2.66143E+04 -4.69997E+04  4.97877E+04 -2.42275E+04  4.84692E+04  1.99858E+04  1.62254E+04  4.50545E+04
 -1.79619E+04  3.98545E+04 -3.18344E+04  7.16504E+03 -2.63272E+03 -3.23949E+04  1.87918E+04 -3.35395E+04
  4.42763E+04 -1.36285E+04  3.44089E+04  2.89533E+04  2.17092E+04  4.95458E+04 -6.72562E+03  5.70193E+04
 -3.34894E+04  3.60345E+04 -4.49694E+04  1.43962E+04 -4.71982E+04 -9.58011E+03 -2.67621E+04 -4.18993E+04
  9.52378E+03 -3.77796E+04  3.16509E+04 -1.55519E+04  3.26214E+04  9.39941E+03  4.44682E+03  1.59713E+04
 -1.32992E+04  1.50411E+04 -1.06968E+04 -3.70829E+03 -5.77347E+02 -1.16099E+04  1.69446E+04  1.42171E+03
  1.59591E+04  2.59882E+04 -6.43155E+03  2.75345E+04 -2.50802E+04  1.09654E+04 -3.05786E+04 -9.20232E+02
 -2.86020E+04 -2.45884E+04 -6.13123E+03 -1.81090E+04  7.14666E+03 -2.47745E+04  1.24927E+04 -1.83072E+04
  3.11956E+04 -1.01736E+04  3.62247E+04  5.09456E+03  2.52580E+04  2.97648E+04 -1.02811E+03  3.87406E+04
 -1.76164E+04  3.65367E+04 -2.84409E+04  1.56174E+04 -2.45659E+04 -9.47267E+03 -9.09393E+03 -4.95624E+03
  2.40980E+03  3.49504E+02 -3.33254E+03  1.19941E+04 -1.94740E+04  1.04789E+03 -2.05085E+04 -5.99471E+03
 -1.55037E+04 -1.97321E+04  6.09985E+03 -2.57239E+04  1.48837E+04 -2.30766E+04  1.99770E+04 -5.90439E+03
  1.06741E+04  1.48150E+04 -2.31156E+03  2.13405E+04 -2.18152E+04  1.08822E+04 -2.21362E+04 -1.71180E+03
 -1.55777E+04 -1.93948E+04 -7.34355E+03 -2.66729E+04  9.73122E+03 -2.60400E+04  2.15075E+04 -1.78088E+04
  2.08872E+04 -2.66273E+03  1.18741E+04  3.44084E+03  3.46351E+03 -5.20765E+03  1.16158E+04 -2.34621E+03
  2.61263E+04  4.06428E+03  2.17591E+04  1.59439E+04  1.36393E+04  3.55395E+04 -3.54748E+03  4.34721E+04
 -2.18355E+04  3.71333E+04 -4.13404E+04  1.37902E+04 -3.87606E+04 -6.05553E+03 -3.26260E+04 -2.65649E+04
 -1.45799E+04 -3.71610E+04  1.22337E+04 -3.54376E+04  2.59899E+04 -1.54365E+04  2.90579E+04  6.14049E+03
  7.57300E+03  1.58412E+04 -1.91732E+04  1.52536E+04 -1.77802E+04  5.85035E+03 -1.73543E+04 -1.01500E+04
 -1.69033E+03 -1.71097E+04  9.59362E+03 -1.03667E+04  1.18577E+04 -4.11565E+03  4.54621E+03  8.88990E+03
 -9.05896E+03  3.70467E+03 -4.84447E+03 -5.57725E+03 -1.49131E+03 -1.31034E+04  1.56004E+04 -1.65580E+04
  2.24666E+04 -1.40672E+04  2.37159E+04  5.52543E+03  1.84500E+04  1.78049E+04  1.44964E+04  2.88849E+04
 -4.96691E+03  2.34140E+04 -1.98498E+04  1.36580E+04 -2.20663E+04 -2.47589E+03 -1.22581E+04 -9.56614E+03
 -7.61670E+03 -3.11600E+03  6.98843E+02  4.22355E+03 -1.33447E+02  4.68979E+03 -2.31153E+03  2.01642E+03
 -1.15148E+04 -2.34115E+03 -1.55913E+04 -9.15707E+03 -3.72046E+03 -1.74886E+04  8.07962E+03 -9.16103E+03
  1.35231E+04 -5.11238E+03  5.51636E+03  4.15275E+03 -6.59016E+03  2.74063E+03 -6.74074E+03  6.36611E+02
 -4.03175E+03 -1.31508E+04 -3.72602E+02 -1.63462E+04  1.05057E+04 -1.58932E+04  1.92083E+04 -7.39084E+03
  1.93732E+04 -2.03249E+03  1.67521E+04  7.47063E+03 -2.72126E+03  1.63750E+04 -1.43619E+04  1.28053E+04
 -9.48830E+03  3.09512E+03 -8.31411E+03 -4.85639E+02  3.67068E+03 -2.48043E+03  9.68386E+03 -4.74459E+02
  1.18050E+04  3.40069E+03 -2.38218E+03  1.27899E+04 -1.28411E+04  1.02569E+04 -1.32157E+04  1.01865E+03
 -9.53900E+03 -4.14737E+03  3.82080E+03 -1.84367E+04  9.60166E+03 -1.06079E+04  8.78532E+03  4.43756E+03
 -2.28760E+03  5.84655E+03 -5.65785E+03  1.24726E+04 -1.23033E+04  8.06337E+03 -1.24541E+04 -4.90006E+03
 -3.13028E+03 -8.24962E+03  2.30161E+03 -1.86793E+04  1.52026E+04 -8.59845E+03  1.69289E+04  7.08928E+03
  1.01641E+04  1.24566E+04 -1.63339E+03  1.23418E+04 -2.01497E+04  9.40195E+03 -5.91268E+03 -5.01987E+03
 -8.12228E+03 -1.29441E+04  2.42905E+03 -8.20491E+03  4.00578E+03 -1.26293E+04  9.75660E+03 -8.68953E+03
  8.40242E+03 -2.63316E+02  5.27603E+02  5.73670E+03  6.58107E+02 -3.08172E+03 -2.79314E+02 -4.90974E+03
  1.41465E+04 -5.53033E+03  1.26307E+04  3.60184E+02  1.46466E+04  1.97293E+03  8.63930E+03  1.93155E+04
 -8.36163E+03  2.02735E+04 -1.53391E+04  1.47800E+04 -2.30551E+04  6.11615E+02 -2.08228E+04 -8.31366E+03
 -1.11695E+04 -1.41236E+04  2.14607E+03 -1.12562E+04  1.70452E+03 -4.97506E+03  5.28092E+03 -7.78159E+03
  6.22029E+03  4.28384E+03  5.78535E+01 -1.01734E+03  5.64856E+03 -4.26233E+03  4.52996E+03 -8.64823E+02
  8.34284E+03 -4.79519E+02  7.00459E+03  5.90134E+03 -2.79903E+03  8.41103E+03 -9.98720E+03  4.16705E+03
 -1.46335E+04  1.78176E+03 -6.68850E+03 -9.02471E+03 -2.66937E+03 -1.86730E+04  5.15656E+03 -1.40979E+04
  1.18410E+04 -1.10486E+04  1.94126E+04 -8.75601E+02  5.22232E+03  1.02055E+04 -5.33394E+03  1.62151E+04
 -2.75290E+03  1.20751E+04 -7.13981E+03  8.65298E+03 -6.95383E+03  9.12701E+03 -6.55559E+01 -1.80269E+03
  3.57075E+03 -3.20707E+03 -6.59933E+02 -1.36372E+03 -9.20981E+03  6.39331E+02 -4.89134E+03 -5.73090E+02
 -6.68689E+03 -5.45970E+03 -4.49414E+03 -6.57204E+03  9.72909E+03 -6.87015E+03  9.30244E+03 -7.22400E+03
  1.38056E+04  5.96320E+03  7.80555E+03  1.18456E+04 -9.96692E+02  1.00293E+04 -1.00939E+04  6.80316E+03
 -1.20858E+04 -3.23132E+03 -1.06923E+04 -1.10069E+04  1.79870E+03 -1.32839E+04  3.11788E+03 -1.04842E+04
  6.37569E+03 -7.75462E+03  8.70374E+03 -3.03739E+03  2.11855E+03  9.22036E+02  5.68553E+03  1.89754E+03
 -2.77236E+03  5.68081E+03  8.18899E+03  2.23052E+03  1.80637E+03  3.81718E+03  6.50771E+03  1.01632E+04
  3.36883E+02  7.14857E+03 -5.36048E+03  1.00168E+04 -1.65885E+04  3.31212E+02 -1.62892E+04 -5.26466E+03
 -5.63307E+03 -8.81848E+03  5.48821E+03 -1.42990E+04  9.84984E+03 -5.99134E+03  1.10384E+04 -6.37452E+03
  1.06090E+04  7.30705E+03  4.25532E+02  5.01150E+03  3.51133E+03  4.47014E+03 -5.00374E+03  1.64048E+03
 -1.48968E+03 -7.36246E+03  1.25539E+03 -4.17610E+03  7.48818E+03 -4.08022E+03  6.66169E+03 -1.64833E+03
  3.94045E+03  1.61327E+03 -8.63266E+02  1.98266E+03  3.25319E+03  8.63863E+03  6.13361E+03  4.79579E+03
  2.65548E+03 -5.56509E+03  5.07194E+03  1.00840E+03  1.68753E+03  1.01995E+04  9.74309E+02  8.46253E+03
 -1.29042E+03  6.04354E+03 -4.28571E+03  4.61815E+03 -2.96337E+03 -3.82548E+02  8.72409E+02 -3.93453E+03
  2.75189E+02 -5.66389E+03  5.35307E+03  3.32315E+03 -2.43466E+02  3.65787E+03  1.44022E+03  2.00833E+03
 -8.99134E+03  2.95414E+03 -8.79004E+03 -4.97986E+03 -2.90881E+03 -5.58063E+02 -8.12330E+01 -7.19717E+03
  3.64884E+03 -5.37926E+03  3.85620E+03 -9.76991E+02  1.03017E+03  1.90268E+02 -2.19595E+03  4.57529E+03
 -8.54160E+02  1.26027E+03  2.02065E+02 -6.04081E+03  6.16109E+03 -6.51284E+03  3.38241E+03  2.59173E+03
  3.19819E+03 -6.19842E+02  1.44515E+04  9.84536E+03  2.13455E+03  7.67897E+03 -8.40572E+03  8.19180E+03
 -6.94505E+03  2.86141E+03 -6.61872E+03  2.22850E+03 -5.82454E+03 -5.91255E+03  5.53909E+03 -6.81744E+03
  3.89837E+03 -1.75317E+03  9.63425E+03 -5.24257E+02  5.62968E+03  1.45054E+03 -3.65664E+03  6.29704E+03
  1.84057E+02  4.38077E+03 -2.39720E+03  9.00956E+03 -5.46905E+03 -3.13538E+03 -4.61914E+03 -1.10238E+03
  1.21682E+03  3.29906E+03 -3.49880E+03  3.17563E+03 -1.13663E+04 -1.81082E+03 -1.35205E+04 -4.53790E+03
 -2.99763E+02 -1.02231E+04 -2.00935E+03 -7.84103E+03  2.17638E+03 -1.00885E+04  9.57514E+03 -6.70450E+03
  1.62862E+04  4.31581E+03  3.35521E+03  6.21384E+03  5.60658E+03  4.98158E+03 -1.20765E+03  7.29443E+03
 -4.40097E+03  1.79167E+03 -5.32460E+03 -2.34260E+03 -3.05701E+03  4.64129E+03  2.45602E+03 -2.53085E+03
  1.89402E+03  3.87146E+03 -6.51214E+03 -2.31144E+03  7.06319E+02 -4.45351E+03  6.14914E+02 -4.35464E+03
  6.60504E+03 -7.88507E+03  1.81909E+03  4.15652E+03  1.67623E+03  4.54449E+03 -4.49370E+00  8.80478E+03
 -6.26631E+03  8.66227E+03 -6.11538E+03  7.37820E+03 -1.22025E+04  2.58126E+03 -5.14407E+03 -3.70286E+03
 -3.13569E+03 -2.12462E+03  3.17011E+03 -4.64478E+03  5.85996E+03 -4.98418E+03  3.53452E+03 -5.69988E+02
  4.22922E+03  5.31993E+03 -1.07643E+02  2.48728E+03 -2.54840E+03  5.55489E+03  3.89790E+03  6.96329E+01
  4.61839E+03 -2.18753E+03  6.03092E+03  3.68798E+03 -1.80717E+03  5.78615E+02  4.90693E+03  2.80894E+03
 -3.64810E+03  4.07714E+03 -3.04767E+03 -1.80746E+02  1.41170E+03 -7.03501E+03  3.66635E+02 -5.24975E+03
  2.46942E+03 -4.46877E+03  2.89805E+03  1.78946E+03  2.75857E+03  2.10486E+03  4.59611E+03  5.86516E+03
  1.01374E+03  5.47989E+03 -3.89911E+03  2.07979E+03 -3.16542E+03 -1.38836E+03 -1.79931E+03  3.12884E+03
 -1.89909E+03  5.54070E+03  1.03605E+03 -2.46375E+03 -5.60507E+03  1.50123E+02 -2.27101E+02  1.64344E+03
 -2.63479E+03 -2.08018E+03  1.41316E+03 -3.01830E+03  3.32341E+02 -4.48117E+03  7.84374E+03 -1.02228E+03
  5.44177E+03  2.92627E+03 -6.76820E+02  2.60004E+03  2.13887E+02  7.91224E+03 -2.36626E+03 -4.56172E+03
