 $NMID ID='MM_0lb_SNR50_12hz_g55_39.RAW', FMTDAT='(8E13.5)'
 TRAMP=1., VOLUME=1. $END
  3.09252E+05  1.52512E+03  3.38758E+05  2.53469E+05  8.47763E+04  3.36725E+05 -1.31844E+05  2.50970E+05
 -1.86877E+05  8.89826E+04 -1.11207E+05 -3.45029E+04  6.46901E+02 -5.38131E+04  5.57387E+04  3.01714E+03
  3.67607E+04  5.12501E+04 -2.29352E+04  7.53214E+04 -5.87565E+04  6.12923E+04 -8.56315E+04  3.43834E+04
 -8.38766E+04 -1.22859E+04 -5.81083E+04 -5.33141E+04 -1.50936E+04 -6.86778E+04  2.20494E+04 -4.65895E+04
  4.57361E+04 -6.06099E+03  1.08193E+04  4.93881E+04 -3.21668E+04  4.53798E+04 -6.40889E+04  1.89822E+03
 -5.70778E+04 -5.48578E+04 -8.92448E+03 -8.03807E+04  3.46780E+04 -4.76517E+04  4.73434E+04 -1.71715E+04
  4.31943E+04  8.43269E+03  3.50247E+04  2.32214E+04  1.94277E+04  2.47751E+04 -8.26775E+03  2.76997E+04
 -1.95630E+04  9.84528E+03 -1.54098E+04 -2.61005E+03  6.34166E+03 -5.99516E+03  2.27240E+04  1.39983E+04
  6.74765E+03  3.66195E+04 -3.67519E+04  3.75071E+04 -6.34138E+04  3.41639E+03 -5.89291E+04 -4.49864E+04
 -1.61216E+04 -6.32355E+04  3.75091E+04 -4.55127E+04  5.83649E+04 -7.19416E+03  3.57461E+04  3.31927E+04
 -4.76403E+03  3.73534E+04 -3.57238E+04  1.12245E+04 -3.29831E+04 -3.53253E+03 -1.55554E+04 -1.63741E+04
 -1.16335E+04 -1.89706E+04  2.01310E+02 -1.78306E+04  8.34843E+03 -2.64343E+04  7.90520E+03 -1.38780E+04
  1.39740E+04 -3.00902E+03 -6.35736E+03  1.09070E+04 -1.99252E+04 -4.28566E+03 -6.02849E+03 -3.87243E+04
  2.61857E+04 -4.97007E+04  5.17219E+04 -2.04794E+04  4.72564E+04  2.02173E+04  1.76903E+04  4.58125E+04
 -1.77102E+04  3.40209E+04 -2.91524E+04  7.94859E+03 -6.60861E+03 -2.77004E+04  1.85617E+04 -3.28496E+04
  4.37700E+04 -1.22772E+04  3.97700E+04  2.32891E+04  1.59048E+04  4.62223E+04 -1.02351E+04  5.19071E+04
 -3.09796E+04  3.66670E+04 -4.51850E+04  5.51801E+03 -4.34999E+04 -1.60382E+04 -2.48789E+04 -3.84141E+04
  7.46564E+03 -3.79797E+04  3.26112E+04 -1.56700E+04  2.73518E+04  5.35144E+03 -2.36243E+03  2.19960E+04
 -1.27736E+04  1.10212E+04 -1.30424E+04 -7.54748E+03  1.14039E+04 -4.43527E+03  1.92571E+04  1.04193E+04
  1.51630E+04  2.20350E+04 -3.85659E+03  2.20726E+04 -1.68555E+04  1.01667E+04 -2.61041E+04  2.90569E+01
 -2.39375E+04 -1.75178E+04 -8.49989E+03 -2.58601E+04  3.97874E+03 -2.26686E+04  1.49584E+04 -2.17400E+04
  3.20476E+04 -1.43749E+04  3.69837E+04  8.97701E+03  2.47363E+04  1.68670E+04 -1.28260E+03  4.00823E+04
 -1.99470E+04  3.12295E+04 -3.40036E+04  9.92772E+03 -2.13148E+04 -1.10911E+04 -6.38273E+03 -1.57540E+04
  6.21054E+03 -1.11748E+03 -8.33086E+03  4.80339E+03 -2.17510E+04  7.60950E+03 -1.70117E+04 -7.57531E+03
 -7.08342E+03 -2.32201E+04  8.07935E+03 -3.10987E+04  2.34145E+04 -1.82751E+04  1.40292E+04 -3.76174E+02
  1.14316E+04  9.00419E+03 -2.54680E+03  2.92146E+04 -1.39659E+04  1.67431E+04 -2.21387E+04 -4.32578E+03
 -2.02445E+04 -1.80661E+04 -4.26571E+03 -2.51618E+04  1.37987E+04 -2.07398E+04  1.97599E+04 -1.29454E+04
  2.12686E+04  7.28816E+02  1.61838E+04  4.63393E+03  7.86089E+03 -3.90751E+02  9.95254E+03  8.24798E+02
  2.86173E+04  6.92419E+03  2.21889E+04  1.89700E+04  1.69625E+04  3.01475E+04 -3.65420E+03  3.94795E+04
 -2.43057E+04  3.35101E+04 -3.53152E+04  2.18366E+04 -3.89321E+04 -6.57485E+03 -3.79877E+04 -1.72811E+04
 -1.09227E+04 -3.51222E+04  9.39448E+03 -3.54187E+04  2.77993E+04 -9.86464E+03  2.08287E+04  2.95673E+03
  7.41334E+03  1.89219E+04 -1.30654E+04  1.11733E+04 -1.37016E+04  3.91685E+03 -1.57374E+04 -1.04366E+04
 -3.38574E+02 -1.76944E+04  7.10683E+03 -7.57660E+03  1.29153E+04 -2.46993E+03 -4.16084E+03  9.35488E+03
 -7.58853E+03  6.60610E+03 -4.59963E+02 -3.90874E+03 -4.27373E+03 -1.44689E+04  1.12895E+04 -1.80201E+04
  2.57123E+04 -3.57501E+03  2.19706E+04  1.06512E+03  2.18363E+04  1.62629E+04  1.33986E+04  2.96046E+04
 -2.39365E+03  2.45532E+04 -1.53525E+04  1.88454E+04 -1.60971E+04  3.59060E+03 -1.32788E+04 -6.30186E+02
 -6.70325E+03 -5.63610E+03  2.40867E+03 -1.83525E+03 -3.78697E+03 -4.35051E+02 -4.00679E+03  5.84307E+03
 -1.09178E+04 -2.06220E+03 -1.55354E+04 -8.91480E+03 -3.10900E+03 -1.83380E+04  2.90727E+03 -9.53039E+03
  1.30237E+04 -7.63415E+03  8.63835E+03  4.93675E+03 -2.92532E+03  1.37374E+04 -5.67915E+03 -5.71090E+03
 -5.16967E+03 -9.31035E+03 -6.45929E+02 -1.17707E+04  5.45531E+03 -2.07288E+04  1.75755E+04 -3.24838E+03
  1.90950E+04  2.91579E+03  2.24730E+04  9.93474E+03  5.53791E+03  1.59200E+04 -1.00466E+04  1.39361E+04
 -1.81010E+04  4.88419E+03 -4.24686E+03 -1.04626E+03  7.87572E+02 -4.02818E+03  3.81020E+03 -8.49141E+03
  9.61819E+03 -3.93248E+02  1.90562E+03  9.86949E+03 -6.51792E+03  5.12249E+03 -1.25478E+04  3.83060E+03
 -4.66899E+03 -7.30003E+03  2.56682E+03 -9.50179E+03  4.52031E+03 -5.38007E+03  4.96895E+03  3.95894E+03
  1.82306E+03  3.37312E+03 -4.60465E+03  5.73538E+03 -1.09313E+04  4.15247E+03 -1.16670E+04  5.33786E+02
 -1.14718E+03 -9.97167E+03  2.84185E+03 -1.86738E+04  1.37069E+04 -1.08257E+04  1.63087E+04  3.93100E+03
  1.37417E+04  1.78608E+04 -1.03637E+02  1.26339E+04 -1.02136E+04  1.01086E+04 -1.65082E+04 -1.40355E+03
 -9.51569E+03 -1.01776E+04 -3.92095E+03 -6.81841E+03  5.55238E+03 -6.82204E+03  7.45240E+03 -6.35359E+03
  6.39038E+03  1.29346E+03  4.45865E+03  6.86196E+02 -4.21025E+02 -3.91015E+03  5.14014E+03 -5.11253E+03
  9.88396E+03 -3.45685E+03  1.50114E+04 -7.26143E+02  1.35558E+04  6.51898E+03  7.51654E+03  2.21551E+04
 -3.30823E+03  1.43134E+04 -1.52786E+04  1.24254E+04 -1.71551E+04 -1.00774E+02 -1.50235E+04 -6.40414E+03
 -5.79863E+03 -1.47129E+04 -5.06981E+03 -1.66254E+04  3.71044E+03 -8.05581E+03  4.80018E+03 -2.45648E+03
  2.41097E+03 -4.52458E+03  3.27182E+03  8.40841E+02  7.68778E+03 -8.87208E+01  3.39852E+03 -1.71200E+03
  1.11695E+04  1.46949E+03  7.29208E+03  6.93220E+03 -3.29108E+03  9.61743E+03 -5.54914E+03  4.33963E+03
 -1.01082E+04 -2.86035E+03 -6.73807E+03 -7.35822E+03  9.10247E+02 -6.62778E+03  3.72512E+03 -8.02025E+03
  1.01101E+04 -6.73930E+03  1.49855E+04  5.34401E+02  1.14508E+04  9.53969E+03  2.50378E+03  1.33527E+04
 -6.79356E+03  8.96498E+03 -7.30840E+03  6.01880E+02 -2.12586E+03 -3.12197E+03 -1.14606E+02 -2.20858E+03
  2.56152E+01  1.18148E+03  2.93396E+02  1.33952E+03 -4.43116E+03  4.53186E+03 -1.19497E+04  1.59531E+03
 -7.78283E+03 -9.86753E+03 -4.88020E+03 -1.52080E+04  7.17973E+03 -1.16238E+04  1.15458E+04 -5.59307E+03
  5.98530E+03  1.47888E+03  3.89062E+03  8.26100E+03 -3.18808E+03  9.75073E+03 -4.61047E+01  4.55670E+03
 -6.20820E+03 -3.10437E+03 -2.39856E+03 -1.14251E+04 -1.61189E+03 -5.71617E+03  7.78905E+03 -8.15647E+03
  3.31932E+03 -5.03743E+03  1.33628E+03  4.73194E+03  1.78445E+03  4.11534E+03  3.85448E+02  2.01857E+03
 -1.99691E+03  3.10196E+03  1.99907E+03  7.91042E+02  1.51191E+02  1.40888E+03  1.17798E+03  3.60392E+02
 -2.02546E+03  8.65039E+03 -2.88973E+03  1.06052E+04 -1.47573E+04  1.30335E+03 -1.34144E+04 -2.16812E+03
 -5.75835E+03 -1.05575E+04  1.36266E+03 -1.02551E+04  6.33433E+03 -6.45205E+03  1.16173E+04 -2.40852E+03
  7.60128E+03  8.28117E+03  3.57071E+03  6.99272E+03 -7.03401E+03  3.44704E+03 -3.62636E+03 -3.22092E+03
  1.69141E+02 -2.24585E+03  4.61428E+03 -1.04656E+04  4.88143E+03 -5.40955E+03  3.86423E+03  1.85263E+03
  1.84551E+03 -3.29651E+03  3.07682E+03  3.70173E+03  3.81971E+03 -3.62579E+03  1.83074E+03 -1.01254E+03
 -6.04828E+02  1.74213E+03  2.47453E+03 -2.42159E+03  3.25426E+03  2.72566E+03 -6.49858E+02  5.96665E+03
 -2.84700E+03  6.61587E+03 -5.75859E+03  4.40463E+03 -5.01696E+03 -2.95725E+03  2.23653E+03 -1.64419E+03
 -2.28273E+02 -1.16754E+04  3.93200E+03 -1.15748E+03  1.69221E+03 -8.87292E+02 -1.69986E+03  6.25769E+03
  1.11883E+03  3.72843E+03 -2.20559E+03 -3.40056E+03 -2.97407E+03 -7.79225E+03  1.98512E+03 -3.94576E+03
  3.49042E+03 -4.18070E+03 -5.73689E+02  2.35354E+03 -8.79386E+02  7.43702E+03  1.96783E+03  4.34219E+03
 -3.01430E+03 -8.09546E+02 -7.03141E+02 -4.44724E+03  1.78297E+03 -2.16061E+03  1.65039E+03 -6.94211E+03
  3.55505E+03 -5.27529E+03  6.60795E+03  4.70379E+03  1.36404E+02  8.54825E+02  7.86818E+02  8.77994E+03
 -5.57221E+03  2.58790E+03 -9.33867E+03  2.98756E+03 -1.81578E+03 -2.03425E+03  6.96487E+02 -4.00699E+02
  3.23027E+03 -6.81059E+02  1.84637E+03 -2.36844E+03 -1.30206E+03  1.41205E+03  5.62868E+03  3.41615E+03
 -3.15003E+03 -4.30275E+02  2.78461E+03  3.93779E+03  2.40787E+03  1.24426E+03 -2.61074E+02 -1.37088E+03
 -5.31305E+03  7.29601E+03 -5.45875E+03  3.54931E+03 -1.19666E+03  1.85430E+03 -6.13523E+03 -7.71420E+02
  2.14397E+03 -7.56098E+03  3.68967E+03 -1.21067E+04  2.54595E+03  3.40199E+02  1.14061E+04 -3.89918E+03
  1.33499E+04  3.26726E+03 -3.23793E+02  8.14508E+03 -1.23223E+03  5.94992E+03 -2.80817E+03  5.66635E+03
 -9.72327E+03  1.19294E+03 -2.90833E+03 -4.48377E+03  5.65458E+02  8.39566E+02 -1.85409E+03 -1.76741E+03
 -6.24734E+02  7.21486E+03 -3.63474E+03 -4.54386E+02  1.41252E+03  3.15250E+03 -2.39158E+03  7.42963E+02
  3.10069E+03 -7.39286E+03  4.39113E+03  1.23774E+03  1.26618E+04  4.77573E+03 -1.83928E+03  9.56880E+03
  8.66494E+01  7.74193E+03 -7.70831E+03  6.51261E+03 -8.34502E+01 -1.18594E+03 -9.72865E+03 -8.20469E+03
 -5.46810E+03 -4.19234E+03 -4.51811E+03 -7.43418E+03  4.17303E+03 -1.17824E+02  3.22704E+03 -4.13313E+03
  9.15179E+02  2.80684E+03  2.22636E+03 -2.86598E+03 -3.45198E+03  5.34721E+02  2.06619E+03 -9.47140E+02
  7.60906E+02 -1.94532E+03  2.79935E+03 -6.34162E+02 -3.09288E+02  7.42091E+03  1.41939E+03 -1.09807E+03
 -2.35542E+03  3.59528E+03 -3.29166E+03 -9.04502E+02 -7.59359E+03 -6.20714E+03 -6.49402E+02 -3.99995E+03
  4.28609E+03 -4.93996E+03  5.08436E+03 -2.87933E+03  3.71898E+03  3.91320E+03 -3.02393E+03  2.09250E+03
  7.10612E+03  5.74631E+03  2.62297E+02  2.52585E+03 -4.02470E+03  1.17473E+03  1.25911E+03 -4.04814E+03
  4.67906E+03 -5.03529E+03 -2.86540E+03 -7.37364E+01  2.61581E+03  6.49684E+03 -4.27972E+03 -2.80388E+02
 -9.96528E+03 -1.78625E+02 -2.85720E+03 -2.59517E+03 -1.22187E+03 -3.23805E+03  7.57105E+03 -4.91198E+03
  3.20908E+03 -7.50507E+00  2.89009E+03  1.88967E+03 -1.42502E+03  2.32512E+03 -1.21784E+03 -1.58946E+02
