 $NMID ID='MM_0lb_SNR50_8hz_g60_69.RAW', FMTDAT='(8E13.5)'
 TRAMP=1., VOLUME=1. $END
  3.06972E+05  8.51593E+03  3.42435E+05  2.49575E+05  7.75203E+04  3.38196E+05 -1.33523E+05  2.52428E+05
 -1.92440E+05  8.67129E+04 -1.07569E+05 -3.33981E+04  1.78217E+03 -4.69593E+04  5.20654E+04 -3.07529E+03
  3.51490E+04  5.38478E+04 -1.34305E+04  7.80939E+04 -6.07025E+04  5.71352E+04 -9.38826E+04  3.30395E+04
 -8.12840E+04 -1.35164E+04 -5.72833E+04 -5.95271E+04 -1.68390E+04 -7.75916E+04  2.93185E+04 -5.09450E+04
  3.80345E+04  1.36993E+03  2.32380E+04  5.52079E+04 -2.62487E+04  4.86991E+04 -7.11048E+04  1.09214E+03
 -5.88328E+04 -6.27680E+04 -8.72357E+03 -8.61326E+04  3.62424E+04 -5.71772E+04  5.46509E+04 -1.02401E+04
  4.48992E+04  2.07084E+04  2.89496E+04  3.16616E+04  2.18561E+04  3.36973E+04 -5.69422E+03  3.36936E+04
 -2.22239E+04  1.10817E+04 -2.05429E+04 -9.24283E+03  4.01628E+03 -8.51959E+03  2.07284E+04  5.81588E+03
  5.45357E+03  3.79647E+04 -3.30229E+04  3.90375E+04 -6.92015E+04  5.20703E+03 -5.59394E+04 -3.87621E+04
 -1.38811E+04 -6.68486E+04  4.37782E+04 -4.62328E+04  6.27092E+04 -1.40540E+03  3.20550E+04  3.03718E+04
 -4.11019E+03  4.13577E+04 -3.29025E+04  2.11416E+04 -3.38186E+04 -5.87235E+03 -1.86086E+04 -1.21758E+04
 -5.90768E+03 -1.25583E+04 -6.72418E+02 -2.20228E+04  6.92767E+03 -1.99097E+04  1.56477E+04 -1.42107E+04
  1.57935E+04  6.34710E+03 -1.01702E+04  1.39608E+04 -2.70872E+04 -7.45519E+03 -1.21151E+04 -3.79347E+04
  2.81290E+04 -4.77893E+04  5.02106E+04 -1.57969E+04  5.06912E+04  2.41617E+04  1.56586E+04  5.63291E+04
 -2.08106E+04  4.43802E+04 -3.30305E+04  5.07597E+03 -9.19449E+03 -2.33599E+04  2.77179E+04 -3.19482E+04
  4.70321E+04 -1.54495E+04  4.34850E+04  2.83365E+04  1.48935E+04  5.39227E+04 -1.76649E+03  5.99179E+04
 -4.02203E+04  3.73664E+04 -5.00531E+04  8.08949E+03 -4.99166E+04 -2.03569E+04 -2.17349E+04 -5.09169E+04
  6.06423E+03 -4.89284E+04  3.44445E+04 -1.68810E+04  3.52841E+04  8.18153E+03  4.86632E+03  2.04374E+04
 -1.54831E+04  9.61013E+03 -4.09062E+03 -9.64853E+03  3.42204E+03 -1.00446E+04  1.74460E+04  2.21284E+03
  7.59642E+03  2.28542E+04 -1.05778E+04  3.06630E+04 -2.63764E+04  2.14960E+04 -3.80202E+04 -2.32892E+03
 -3.31741E+04 -1.89505E+04 -9.28143E+03 -2.89548E+04  7.49780E+03 -2.87193E+04  1.75506E+04 -2.37745E+04
  3.89072E+04 -6.49024E+03  3.93500E+04  7.99244E+03  2.98098E+04  2.78123E+04  3.53044E+03  6.03675E+04
 -2.05026E+04  3.78244E+04 -2.59776E+04  1.00386E+04 -2.30074E+04 -5.21373E+03 -8.38522E+03 -4.34358E+03
 -1.42223E+03 -3.93930E+03 -1.13859E+04  7.41655E+03 -2.07187E+04  4.76810E+03 -2.50322E+04 -1.48792E+04
 -1.33753E+04 -2.39523E+04  5.44224E+03 -2.57584E+04  1.80353E+04 -1.89459E+04  2.87293E+04  8.86854E+02
  7.99080E+03  1.75066E+04 -2.94097E+03  2.50275E+04 -1.32469E+04  1.57732E+04 -2.49916E+04 -9.97542E+03
 -1.72907E+04 -2.45018E+04  1.88669E+02 -3.38027E+04  1.24074E+04 -2.87039E+04  2.52529E+04 -1.22406E+04
  2.35768E+04  5.08247E+03  1.91575E+04  7.38824E+03  1.74179E+04 -1.81492E+03  4.65731E+03 -3.61454E+03
  2.11845E+04  3.07941E+03  2.70615E+04  2.17481E+04  1.80455E+04  3.91979E+04 -5.76715E+03  4.68143E+04
 -2.09524E+04  4.54426E+04 -4.60286E+04  8.43635E+03 -5.05980E+04 -2.63654E+03 -3.43926E+04 -2.87843E+04
 -1.15651E+04 -4.27659E+04  1.09100E+04 -3.84078E+04  3.29211E+04 -1.01810E+04  2.60629E+04  3.21472E+03
  1.28987E+04  2.27999E+04 -1.65791E+04  1.86414E+04 -2.21456E+04  5.48360E+03 -1.74723E+04 -9.88057E+03
 -1.73880E+03 -1.45672E+04  1.63612E+04 -1.37560E+04  1.70380E+04 -4.55654E+03  4.48596E+03  1.03720E+04
 -9.61248E+03  3.86203E+03 -6.39194E+03 -6.17978E+03 -5.26725E+03 -1.76487E+04  1.02302E+04 -3.16865E+04
  2.07105E+04 -1.99128E+04  3.02288E+04  3.29097E+03  1.76420E+04  2.85386E+04  1.23037E+04  3.28598E+04
 -9.31073E+03  4.03102E+04 -2.06720E+04  2.61623E+04 -2.57904E+04 -2.44204E+03 -2.54375E+04 -1.55815E+04
 -6.32586E+03 -4.67180E+03 -2.14920E+03 -1.12558E+04  7.89051E+02  1.02904E+03 -1.13282E+04  6.39616E+03
 -1.72701E+04  2.33889E+03 -1.58715E+04 -1.23215E+04 -9.84614E+03 -2.49414E+04  7.21536E+03 -1.61393E+04
  1.26828E+04 -7.63640E+03  1.47476E+04 -6.41031E+02  6.14423E+03  3.18003E+03 -4.72409E+03  2.22596E+03
 -2.18240E+03 -8.44288E+03 -1.48987E+03 -2.30047E+04  1.13340E+04 -2.13455E+04  2.49746E+04 -7.78679E+03
  3.05082E+04 -3.94963E+03  8.36601E+03  1.61142E+04 -1.82618E+03  2.94326E+04 -1.00046E+04  1.33376E+04
 -1.64671E+04  6.85232E+03 -4.36899E+03 -2.70521E+03 -5.49772E+03 -1.05740E+03  1.18226E+04  1.91444E+03
  6.62343E+03  8.10782E+03 -2.79682E+03  1.50580E+04 -1.79147E+04  1.75355E+04 -9.85942E+03  8.92210E+02
 -1.43903E+04 -5.97325E+03  9.42776E+02 -1.43074E+04  1.77527E+04 -9.93977E+03  1.87359E+04  1.45535E+03
  4.39393E+03  3.24706E+03 -6.79273E+03  1.42513E+04 -9.71901E+03  2.81479E+03 -9.68303E+03 -1.05453E+04
 -5.62656E+03 -1.58715E+04  3.99312E+03 -2.39823E+04  1.29114E+04 -1.27883E+04  2.10796E+04  5.42562E+03
  1.80199E+04  1.12252E+04  3.60742E+03  1.76315E+04 -9.22650E+03  7.77187E+03 -1.25882E+04  2.30128E+03
 -1.70728E+04 -4.20407E+03  1.40395E+03 -1.88391E+04  1.34774E+04 -1.32385E+04  1.52442E+04 -6.28443E+03
  1.17181E+04  3.22714E+03 -4.33893E+03  4.65508E+03  3.28274E+03 -3.91413E+03  1.04347E+03 -1.58487E+04
  8.71377E+03 -6.01416E+03  1.99996E+04  6.41697E+03  2.02153E+04  1.30318E+04  5.40403E+03  2.97866E+04
 -1.22538E+04  3.35378E+04 -2.20860E+04  2.13630E+04 -3.10540E+04  5.65175E+03 -2.42948E+04 -7.88419E+03
 -1.22067E+04 -2.70218E+04 -4.61571E+03 -1.56250E+04  1.61341E+00 -6.27620E+03  6.93448E+02 -7.48362E+03
  4.32810E+03 -8.35216E+03 -2.67622E+03 -4.74118E+03  6.15842E+03  2.84560E+02  3.17681E+03  7.96539E+02
  1.67594E+04  2.96395E+03  1.04321E+04  6.30197E+03 -6.68043E+03  1.38814E+04 -1.72881E+04  1.47865E+04
 -2.14635E+04  5.20108E+02 -1.24945E+04 -1.29953E+04  1.20897E+03 -1.95242E+04  9.17235E+03 -1.79541E+04
  2.00811E+04 -8.06067E+03  2.13837E+04  4.49746E+02  1.02936E+04  8.32412E+03 -2.41760E+03  2.21282E+04
 -1.43027E+04  1.61831E+04 -7.67800E+03  2.25089E+03 -9.42883E+03 -3.64358E+03  8.95932E+02 -4.47334E+03
  4.71790E+03  2.75889E+03  3.08833E+03 -4.39385E+03 -1.32525E+04  2.58861E+03 -1.80756E+04 -1.02556E+04
 -8.23817E+03 -7.31785E+03 -2.93684E+02 -2.30906E+04  1.37575E+04 -1.47817E+04  1.90848E+04 -1.07756E+03
  2.52344E+04  1.63222E+04  1.04817E+04  1.89400E+04  2.61929E+02  9.45390E+03 -1.18725E+04  1.08434E+04
 -1.69201E+04  4.75378E+03 -9.41033E+03 -1.26386E+04 -5.73930E+02 -1.79596E+04  7.44607E+03 -6.19783E+03
  4.09603E+02 -6.00663E+03  9.94674E+03  1.14550E+03  6.15007E+03 -5.49207E+02 -5.17719E+03 -1.24994E+03
  3.62257E+03  1.27506E+03  7.01608E+03  4.72314E+02  8.32401E+03  1.71438E+04  8.00397E+03  1.39386E+04
  1.34287E+02  1.43711E+04 -1.26368E+04  9.42375E+03 -2.51992E+04 -6.31141E+01 -1.58243E+04 -6.15094E+03
 -1.47489E+03 -1.77697E+04  1.07125E+03 -1.94551E+04  1.20388E+04 -1.74238E+04  1.99499E+04 -5.65056E+03
  1.67450E+04  7.19610E+03 -2.09946E+03  1.97861E+04 -7.68984E+03  9.83329E+03  7.26268E+02 -1.46891E+03
 -4.81162E+03 -6.96247E+03  2.13838E+03 -1.11399E+04  1.15907E+04 -2.87772E+03  8.37161E+03  1.28530E+04
  3.79938E+02  5.77645E+03  4.00055E+03  5.73128E+03 -1.50110E+03  9.12332E+03  4.33779E+03 -2.25040E+03
 -2.57585E+03 -1.55182E+03  1.11232E+04  7.51970E+03  5.71912E+03  1.46507E+04 -5.93947E+03  1.23884E+04
 -1.50879E+04  9.33968E+03 -1.36219E+04  2.27267E+03 -1.07898E+04 -1.01923E+04 -9.72125E+03 -1.37573E+04
 -5.51077E+02 -1.03820E+04  6.36024E+03  1.79318E+02  1.78160E+02  3.32668E+03 -4.22611E+03  3.20675E+03
 -6.73267E+03  7.50236E+03 -1.77368E+04 -3.07013E+03 -3.28735E+03 -1.63916E+04  6.59763E+03 -5.72379E+03
  2.95434E+03 -1.07754E+04  5.06795E+03 -1.86634E+02  1.15413E+04  4.99018E+03  3.24503E+03  8.44195E+03
 -4.87237E+03 -9.10643E+03 -9.50967E+02 -1.70081E+03 -3.12688E+03 -2.01792E+04  6.10998E+03 -7.51130E+03
  1.64190E+04 -2.34480E+03  1.38450E+04  7.45932E+03  1.32783E+04  9.61334E+03 -6.70457E+03  1.45167E+04
 -6.53397E+03  2.09893E+01 -5.83646E+03  2.92315E+03 -8.70687E+03 -2.04761E+03  1.31940E+04 -6.00568E+03
  5.73228E+03 -4.71305E+03  5.39895E+03  8.70603E+02  2.00660E+03  7.95854E+03  1.78994E+03  7.43334E+03
 -1.95728E+03  5.00910E+03 -1.93893E+03  1.97441E+03  1.41768E+03  5.76215E+03  5.13188E+03  4.89153E+03
 -2.71957E+03  7.38983E+03 -8.53213E+03  1.77951E+03 -1.49041E+04 -2.90689E+03 -1.00774E+04 -1.31014E+04
 -7.63101E+03 -1.16194E+04 -4.74123E+02 -2.95908E+04  1.24494E+04 -1.56179E+04  1.44964E+04  6.88883E+01
  1.48251E+04  4.97192E+03  1.47505E+04  1.68349E+04  7.68462E+02  1.37320E+04 -1.50415E+04  1.27059E+04
 -1.14683E+04  3.56749E+03 -1.47641E+03 -5.90847E+03  1.90005E+03  3.57881E+02  3.46079E+03 -3.56293E+03
  3.90458E+03 -9.94291E+02 -2.37213E+03 -4.03871E+03 -8.69903E+02 -1.97592E+03 -4.83283E+03 -4.70826E+03
  6.70834E+02 -4.57069E+03  1.49461E+04 -1.23463E+03  5.60999E+03  1.13259E+04  2.30280E+03  1.51752E+04
 -4.18361E+03  1.08315E+04 -1.65034E+04  3.69618E+03 -1.06208E+04 -3.91069E+03 -1.79122E+04 -1.17254E+04
 -6.43182E+03 -1.23511E+04  5.42589E+03 -1.30842E+04  6.50267E+03 -1.13404E+04  1.32090E+04  2.00031E+03
  7.54550E+03  1.09190E+02 -3.65384E+03 -2.27394E+03 -1.11795E+03 -7.36986E+03 -4.34766E+02 -6.89823E+03
  1.18921E+03 -3.63352E+03  2.73669E+03 -3.86959E+03  2.29005E+03  2.08528E+03  5.41626E+03  1.29274E+03
  3.58643E+03  1.97439E+02 -1.12296E+04  5.68233E+03 -1.06356E+04 -6.81192E+03 -2.70758E+03 -7.66934E+03
  7.14645E+03 -1.68128E+04  8.16833E+03 -3.20428E+03  1.55902E+04  6.42722E+03  6.16752E+03  2.62317E+03
  2.08848E+03  5.21695E+03 -3.61537E+03  4.64378E+03 -7.48423E+03  2.09307E+03 -1.05781E+04  7.01563E+03
 -7.98200E+03  1.51004E+03 -1.99970E+03  1.39202E+03 -9.86100E+03 -2.19845E+03 -5.46403E+03 -1.09564E+04
 -9.89458E+03 -2.96205E+03  6.37383E+03 -9.04689E+03  3.53613E+03 -1.27312E+04  1.16071E+04 -9.20244E+03
  1.63127E+04  6.80760E+03  7.65954E+03  1.25478E+04  2.70865E+03  2.38726E+03 -7.35310E+03  5.25638E+03
