 $NMID ID='MM_0lb_SNR50_19hz_g50_60.RAW', FMTDAT='(8E13.5)'
 TRAMP=1., VOLUME=1. $END
  3.09002E+05 -5.26742E+01  3.38337E+05  2.49351E+05  8.65601E+04  3.39925E+05 -1.31239E+05  2.51332E+05
 -1.90305E+05  8.51289E+04 -1.07895E+05 -3.24002E+04 -2.99201E+03 -4.75729E+04  6.14471E+04  2.42733E+03
  3.29151E+04  5.17618E+04 -2.24232E+04  7.20464E+04 -5.69027E+04  6.49984E+04 -8.88759E+04  3.26471E+04
 -8.04733E+04 -1.29369E+04 -5.71045E+04 -5.33137E+04 -1.16255E+04 -6.60296E+04  2.98664E+04 -4.48363E+04
  3.90375E+04  9.72011E+03  1.28731E+04  4.95041E+04 -3.43908E+04  4.91804E+04 -6.54049E+04 -2.12727E+03
 -5.00621E+04 -5.80249E+04 -6.62976E+03 -7.47458E+04  3.25793E+04 -5.38657E+04  4.79005E+04 -1.23169E+04
  4.14304E+04  9.10723E+03  2.91793E+04  2.61956E+04  1.41310E+04  2.46879E+04 -7.53629E+03  2.47919E+04
 -2.50970E+04  1.32069E+04 -2.08141E+04 -1.88057E+03  3.31937E+03 -1.11839E+04  2.26371E+04  1.17909E+04
  3.19319E+03  3.19727E+04 -3.27282E+04  3.44633E+04 -5.99310E+04  4.37289E+03 -5.65419E+04 -4.14187E+04
 -1.10273E+04 -6.23819E+04  4.11853E+04 -4.75267E+04  5.84367E+04  1.01152E+03  3.25640E+04  2.71143E+04
 -5.85934E+03  2.64643E+04 -2.83765E+04  1.00813E+04 -2.94018E+04 -2.37346E+03 -1.67233E+04 -1.10173E+04
 -5.14436E+03 -1.28736E+04  1.45594E+03 -1.47532E+04  7.28535E+03 -2.30423E+04  1.27766E+04 -1.66815E+04
  1.42382E+04  4.87659E+03 -7.46365E+03  9.50573E+03 -1.75157E+04 -5.47923E+03 -7.43966E+03 -3.10392E+04
  2.19532E+04 -3.79942E+04  4.48929E+04 -1.64046E+04  3.93429E+04  1.97714E+04  1.48438E+04  4.15736E+04
 -1.41378E+04  2.93530E+04 -2.18835E+04 -9.91541E+02 -8.40634E+03 -2.55183E+04  1.90931E+04 -2.97288E+04
  3.85944E+04 -4.66805E+03  3.33734E+04  2.40652E+04  1.36761E+04  3.92483E+04 -9.27546E+03  4.76952E+04
 -2.90559E+04  2.65144E+04 -3.59472E+04  1.06140E+04 -3.86893E+04 -1.72830E+04 -2.00867E+04 -3.37574E+04
  9.09587E+03 -3.96244E+04  3.21389E+04 -1.40009E+04  2.38933E+04  9.03915E+03  1.95100E+03  1.66673E+04
 -1.25814E+04  6.85777E+03 -1.21417E+04 -8.73920E+03  5.23193E+03 -1.02138E+04  1.96382E+04  6.95810E+03
  1.01313E+04  1.83444E+04 -2.66214E+03  2.59588E+04 -1.95114E+04  8.95565E+03 -2.82677E+04 -6.71010E+03
 -1.64826E+04 -1.72649E+04 -7.00910E+03 -1.77483E+04  3.40508E+03 -1.36831E+04  1.48608E+04 -1.81007E+04
  2.42974E+04 -9.22825E+03  3.14534E+04  1.56975E+03  2.33314E+04  1.65813E+04 -4.88264E+02  3.08217E+04
 -1.57869E+04  2.64988E+04 -2.58586E+04  1.00841E+04 -1.64538E+04 -7.65626E+03 -4.80202E+03 -1.05548E+04
 -1.40337E+03 -6.17784E+03 -2.77904E+03  9.58399E+03 -1.23852E+04  3.36854E+03 -1.11757E+04 -1.66062E+03
 -8.25921E+03 -1.56624E+04  5.54062E+03 -1.80419E+04  1.34879E+04 -1.53000E+04  1.34975E+04  4.27843E+03
  7.07839E+03  5.77327E+03 -1.61063E+03  1.43125E+04 -1.07051E+04  1.06867E+04 -1.28749E+04 -6.22044E+03
 -9.92313E+03 -1.73278E+04 -1.25459E+03 -2.02236E+04  8.80028E+03 -1.41996E+04  1.83940E+04 -4.88881E+03
  1.45069E+04  1.07366E+03  9.64477E+03  3.97322E+03  6.28892E+03 -1.07291E+03  5.21965E+03  3.09300E+02
  1.30397E+04  3.88078E+03  1.84809E+04  1.20039E+04  9.11493E+03  2.07549E+04 -5.91056E+03  2.89297E+04
 -1.63449E+04  2.15516E+04 -2.66682E+04  8.77487E+03 -2.83131E+04 -2.46527E+03 -2.04481E+04 -1.35311E+04
 -7.58223E+03 -1.85226E+04  8.22344E+03 -1.67146E+04  1.78904E+04 -1.20928E+04  1.54241E+04  2.21372E+03
  5.17387E+03  1.22917E+04 -5.74769E+03  8.96572E+03 -8.22009E+03  9.02629E+02 -1.40393E+04 -4.56798E+03
  5.44303E+03 -1.23938E+04  4.85478E+03 -1.26637E+04  8.60814E+03 -1.82482E+03  1.37835E+03  4.94150E+03
 -6.50933E+03  1.49080E+03 -5.45030E+03 -5.77040E+03 -3.24941E+03 -7.78570E+03  8.38057E+03 -9.75007E+03
  1.40792E+04 -3.67059E+03  1.06761E+04  2.04399E+03  1.48137E+04  8.57346E+03  4.82824E+03  1.24882E+04
 -4.52170E+03  1.05999E+04 -1.14213E+04  1.18034E+04 -7.43698E+03  2.33217E+03 -3.78681E+03 -6.33777E+03
 -2.66051E+03  6.94691E+02 -1.87495E+03  2.09501E+03  1.92416E+02  5.49313E+03 -3.90330E+03  2.64909E+03
 -6.53510E+03 -2.25797E+03 -1.10926E+04 -6.81831E+03 -4.37490E+03 -1.14432E+04  3.80122E+03 -1.06883E+04
  1.05389E+04 -2.04225E+03  1.47773E+03  5.71688E+03  7.38262E+02  5.62975E+03 -4.14310E+02 -6.06500E+02
 -7.98182E+03 -1.29474E+03 -3.36484E+03 -3.27441E+03  5.49656E+03 -4.09245E+03  1.06257E+04 -4.47215E+03
  1.43216E+04 -8.32566E+02  8.26400E+03  5.09294E+03  3.69323E+03  7.58088E+03 -6.25859E+03  7.93334E+03
 -4.47311E+03  2.11169E+03 -2.90895E+03 -3.42264E+03 -9.86746E+02 -2.39394E+03  5.18843E+03 -2.13223E+03
  6.25331E+03 -6.46220E+02  3.46128E+02  5.98911E+03 -6.84316E+02  4.09936E+03 -4.22814E+03  3.35590E+03
 -4.16287E+03 -3.57059E+03  4.18150E+03 -6.57231E+03  2.43574E+03 -1.02994E+03  4.27728E+03 -1.92248E+03
 -3.83744E+03 -1.05796E+03 -1.07220E+03  5.55877E+03 -1.70505E+03  4.35180E+03 -6.13977E+03  8.16670E+02
  5.18878E+02 -5.74799E+03  2.57866E+03 -3.40968E+03  2.29099E+03 -4.91611E+03  8.62041E+03  1.03596E+03
  1.35784E+03  5.46229E+03 -6.24877E+02  6.73818E+03 -5.05901E+03  6.39860E+02 -3.82261E+03 -2.68525E+02
 -3.07388E+03 -3.68827E+03 -5.42084E+02 -4.00541E+03  5.57032E+03 -4.72842E+03  5.63500E+03 -4.10471E+03
  4.52382E+03  1.97321E+02  3.36567E+03  6.58814E+02 -1.01638E+03 -1.96212E+02 -1.88476E+03 -3.08093E+03
  3.83787E+03  8.14130E+02  1.02367E+04 -2.34044E+03  2.83452E+03  3.45266E+03  2.96697E+03  9.00106E+03
  6.57273E+02  1.07485E+04 -4.53540E+03  7.85655E+03 -1.07212E+04  3.13035E+02 -6.89644E+03  2.83120E+03
 -4.25129E+03 -1.21401E+04 -3.89167E+03 -7.49356E+03  5.75232E+03 -7.19455E+03  4.16875E+03 -1.49242E+03
 -4.78189E+02  2.91817E+03  2.52577E+03 -5.29642E+03  7.26966E+03 -1.27998E+02  9.42675E+01 -1.93032E+03
  8.39351E+03  1.55502E+03  3.46122E+03  6.54111E+03 -1.71639E+03  2.14196E+02 -1.70231E+03  2.08441E+03
 -6.01457E+03  2.98204E+03 -2.34825E+03 -6.41000E+03  2.34911E+03 -6.41794E+02  3.25841E+03 -3.22507E+03
  5.62286E+03 -3.20647E+03  5.46986E+03 -2.31084E+03  7.34784E+03  2.35811E+03  3.07799E+03  1.74892E+03
 -3.45368E+02  2.24662E+03 -2.00972E+02  3.22391E+02 -1.52219E+03 -4.76858E+03  6.33234E+02 -6.30725E+02
 -2.08490E+02 -8.89585E+02 -2.58866E+03 -1.17836E+03 -1.69120E+03  3.40262E+03 -6.58247E+03 -5.87784E+02
 -2.21427E+03 -6.21894E+03  1.20260E+03 -7.55309E+03  9.15990E+03 -4.88186E+03  2.07909E+03 -7.09838E+02
  2.88354E+03  8.49023E+03  2.23602E+03  4.49174E+03  1.08410E+03  7.56274E+03 -3.98732E+03  1.82189E+03
 -2.55024E+03 -2.24716E+03 -5.67558E+02 -7.66744E+02  9.18896E+02 -3.14635E+02 -1.06239E+02 -4.88080E+03
  4.06915E+03 -7.41606E+01  3.68603E+03  8.65187E+03  2.43748E+03 -2.28597E+03 -8.25658E+02 -1.96057E+03
  4.69857E+03 -1.94510E+03 -1.09525E+03  2.77236E+02  2.69814E+03  3.22369E+03 -1.45225E+02  1.17873E+03
 -5.63939E+02  3.19926E+03 -2.58586E+03  2.28339E+03 -3.17858E+03 -2.78437E+02 -4.36768E+03 -1.15870E+03
  3.36430E+02 -4.25778E+03 -2.12547E+03 -4.20903E+03  3.84821E+03 -4.94878E+03  6.73619E+03 -1.98131E+02
  3.92912E+03  4.69140E+03 -1.44499E+02  6.07829E+02  6.55938E+02  2.44192E+03  2.29113E+02  2.62967E+03
  3.69195E+03 -5.03717E+03 -1.48632E+02 -1.24148E+03  4.16726E+03 -2.71163E+03 -1.84422E+03  2.63452E+03
 -2.22171E+02  3.00891E+02 -3.12285E+03 -2.51663E+03 -6.50677E+01 -7.80168E+02  5.23263E+03  1.35336E+03
  1.21432E+03  9.00129E+02  2.70209E+03 -2.94615E+03  2.68112E+03  3.38549E+03  2.85710E+03  3.88502E+03
 -8.12043E+02 -1.22070E+02 -5.20997E+02  2.30054E+02 -2.77935E+03 -1.31453E+03  4.82762E+02  1.88917E+03
 -1.65614E+02 -4.11989E+03  1.15577E+02 -1.84925E+02  5.20265E+03  9.79875E+02 -2.58240E+01 -2.18194E+02
 -1.00280E+03  4.44973E+03  4.08311E+02 -2.64956E+03  2.15741E+03 -1.77466E+03 -1.45235E+03  8.02858E+02
  2.21257E+02  1.01783E+03 -2.87693E+03 -1.05473E+03  7.20211E+03 -1.28733E+03 -3.86096E+03 -1.63850E+03
 -1.65353E+03 -1.02658E+03 -2.10126E+03  1.05537E+03  3.28331E+03 -1.51909E+03  2.26120E+03 -3.83814E+03
  3.57863E+03  3.28547E+02  5.12153E+03  1.38542E+02  3.33307E+03  3.23177E+03 -1.85602E+03  3.45913E+03
 -2.76785E+03  3.75267E+03 -2.89089E+03  3.46458E+03  3.39395E+02 -1.97057E+03  3.84524E+03  5.45992E+02
  2.32720E+03 -2.70840E+03  3.96409E+03  3.09889E+03  1.23413E+02 -3.23658E+02 -5.28913E+03  4.63187E+02
  4.11197E+03  4.74597E+03 -2.14372E+03 -1.86735E+03  9.94969E+02  1.91514E+03 -1.90757E+03  1.82516E+03
 -5.77378E+02  2.89171E+03 -6.64949E+03  4.27687E+03 -2.35384E+02  1.83599E+03 -5.39454E+02  3.16055E+03
 -4.27937E+03  1.63674E+03  2.32908E+03 -1.82711E+03 -3.65904E+03 -3.86755E+03  1.18670E+03 -5.32704E+03
  1.51648E+03  3.53934E+03 -7.39660E-01  1.54208E+03  3.11753E+03 -3.90828E+02 -1.21174E+03  4.84210E+03
  5.67418E+02  1.64679E+03  4.34110E+03  9.36527E+02  1.33529E+03  3.40598E+02 -9.95306E+02  1.54008E+03
 -1.09501E+03  4.87947E+02  2.33320E+03 -1.39627E+03  5.01163E+02 -4.46201E+03 -3.83195E+03 -3.25862E+03
 -6.23867E+02 -2.11582E+03 -1.01530E+03 -3.60899E+02 -3.91777E+03 -3.07311E+03 -1.43319E+03 -9.33136E+02
 -1.85000E+03  2.32649E+03  3.77430E+02  4.15448E+03  1.35781E+03  1.50998E+03 -1.90600E+03 -3.37302E+03
 -3.64330E+03 -1.78744E+03 -6.52726E+02 -5.59925E+03 -2.21980E+03 -3.24427E+03 -2.54562E+03  1.60999E+03
  7.11578E+02 -4.26905E+03  2.88320E+02 -2.03038E+03 -7.12382E+02 -6.10832E+03 -4.43727E+03  3.02965E+03
 -4.22512E+02 -4.48314E+03  1.21497E+03  2.65685E+03 -2.13623E+03 -8.07163E+02  4.38554E+03 -5.06521E+02
  6.60846E+02  3.05643E+03 -4.24829E+02  2.67739E+03 -8.16062E+02 -4.30864E+03  3.81147E+02 -5.76553E+02
 -3.23236E+02 -1.09143E+03  2.57234E+03  3.81947E+03  3.23582E+03 -1.49750E+03  3.92798E+03 -1.45596E+03
  1.54856E+03 -1.31133E+02 -3.73110E+01  2.66605E+03 -5.89855E+02  2.68560E+02 -2.78584E+03  2.22791E+03
  1.14122E+03  1.50816E+02 -3.84118E+03 -2.03199E+03  1.16511E+03  7.05915E+01 -3.28783E+02 -1.08934E+03
  4.06450E+02 -9.76648E+02 -3.07453E+03 -8.73452E+02 -1.75938E+03 -1.98043E+03 -3.35025E+03 -3.19754E+03
 -2.87072E+03 -7.88719E+02 -1.61147E+03  9.74965E+02 -6.39628E+03 -6.17930E+02  1.94026E+03  1.70702E+03
