 $NMID ID='MM_0lb_SNR50_12hz_g60_34.RAW', FMTDAT='(8E13.5)'
 TRAMP=1., VOLUME=1. $END
  3.08672E+05  1.53107E+03  3.34411E+05  2.58762E+05  8.46346E+04  3.36315E+05 -1.30641E+05  2.48307E+05
 -1.89376E+05  8.60971E+04 -1.14898E+05 -4.00609E+04 -3.86878E+03 -5.06792E+04  5.78489E+04  1.48982E+03
  4.10178E+04  5.80359E+04 -1.71229E+04  7.22194E+04 -5.66289E+04  6.21094E+04 -8.41552E+04  3.81560E+04
 -8.28414E+04 -8.92416E+03 -5.33988E+04 -4.94106E+04 -1.74378E+04 -7.06653E+04  3.05615E+04 -5.04332E+04
  4.22275E+04  1.66502E+03  1.36977E+04  4.52944E+04 -3.36975E+04  4.62928E+04 -6.64567E+04 -2.62311E+03
 -5.23599E+04 -5.51277E+04 -1.10657E+03 -7.89289E+04  3.53386E+04 -5.79972E+04  4.93060E+04 -1.72670E+04
  4.68098E+04  1.27963E+04  2.90437E+04  2.83996E+04  1.59688E+04  3.51661E+04 -6.93723E+03  2.52547E+04
 -2.01687E+04  1.19929E+04 -1.37037E+04 -3.22431E+03 -1.07802E+03 -8.05009E+03  2.11931E+04  1.23805E+04
  1.41654E+04  3.08308E+04 -3.04871E+04  3.80260E+04 -6.94018E+04 -3.18039E+03 -5.62674E+04 -4.73358E+04
 -1.56151E+04 -6.69066E+04  4.19535E+04 -5.10493E+04  5.86128E+04  2.27964E+03  3.17377E+04  3.30237E+04
 -5.71868E+03  3.69933E+04 -2.77135E+04  1.60625E+04 -3.48387E+04 -4.38861E+03 -1.86263E+04 -1.09991E+04
 -1.49457E+04 -1.48129E+04  1.62583E+03 -2.18452E+04  7.45851E+03 -2.17590E+04  1.77256E+04 -1.53272E+04
  8.25790E+03  1.06086E+03 -1.32513E+04  1.02757E+04 -2.29020E+04 -4.83530E+03 -9.21089E+03 -3.38343E+04
  2.64885E+04 -5.16105E+04  5.05729E+04 -2.02042E+04  5.25108E+04  2.05800E+04  1.70693E+04  4.25818E+04
 -2.18448E+04  3.89172E+04 -3.02306E+04  1.09135E+03 -1.39863E+04 -2.84437E+04  1.65323E+04 -3.71522E+04
  4.74641E+04 -1.26981E+04  3.44393E+04  2.20541E+04  2.03738E+04  5.08461E+04 -1.02895E+03  4.97494E+04
 -3.97220E+04  3.80083E+04 -4.09590E+04  1.33184E+04 -4.46554E+04 -1.45035E+04 -2.13909E+04 -4.04912E+04
  4.95079E+03 -4.00848E+04  3.34308E+04 -1.59599E+04  3.29178E+04  9.44579E+03  3.02667E+03  2.57363E+04
 -1.16663E+04  7.94047E+03 -1.32818E+04 -1.16171E+04  6.45250E+03 -9.04808E+03  2.34694E+04  9.38872E+03
  1.39581E+04  2.25005E+04 -7.45196E+03  2.49429E+04 -2.07264E+04  1.77149E+04 -2.72070E+04 -7.38156E+03
 -2.20094E+04 -2.09990E+04 -1.14687E+04 -2.02594E+04  5.04361E+03 -2.36701E+04  2.18862E+04 -2.35087E+04
  3.17974E+04 -8.84786E+03  4.06081E+04  2.35844E+03  2.46580E+04  1.57407E+04  7.88477E+03  3.69976E+04
 -2.27233E+04  3.57630E+04 -2.80798E+04  1.31729E+04 -1.84067E+04 -1.32084E+04 -7.66104E+03 -1.65188E+04
  2.13307E+03 -3.28153E+03 -5.56926E+03  8.06443E+03 -2.67419E+04  1.54433E+03 -1.72363E+04 -1.36241E+04
 -1.37729E+04 -2.10232E+04  1.02902E+04 -3.04904E+04  1.50363E+04 -1.28716E+04  2.48708E+04 -2.07007E+03
  1.07324E+04  1.57663E+04 -5.56938E+03  2.13719E+04 -1.80343E+04  1.49678E+04 -1.96776E+04 -2.85048E+03
 -1.91055E+04 -2.08447E+04 -8.22461E+02 -2.63021E+04  1.50135E+04 -1.86656E+04  1.93920E+04 -1.31512E+04
  2.17950E+04 -6.29131E+03  1.47676E+04  3.79572E+02  8.59298E+03  2.46126E+03  3.62698E+03 -2.70242E+03
  2.16821E+04  2.85107E+03  2.61846E+04  1.88769E+04  1.95531E+04  3.48612E+04 -9.67069E+03  3.86627E+04
 -2.64932E+04  3.62651E+04 -4.27301E+04  1.65943E+04 -3.99156E+04 -3.40536E+03 -3.31313E+04 -2.48450E+04
 -1.43069E+04 -3.54057E+04  7.86619E+03 -2.80310E+04  2.92230E+04 -1.66884E+04  2.23751E+04  2.61675E+03
  1.12027E+04  1.35513E+04 -9.43800E+03  1.75979E+04 -1.89561E+04 -6.54482E+02 -8.15801E+03 -1.43480E+04
  3.22436E+03 -1.46548E+04  9.84350E+03 -1.38257E+04  4.36999E+03 -1.23107E+03  7.72175E+02  5.17698E+03
 -5.73498E+03  3.41303E+03 -5.48497E+03 -5.76003E+03 -1.23400E+03 -1.55312E+04  1.81057E+04 -1.54716E+04
  1.73562E+04 -8.40542E+03  2.37947E+04  2.42696E+03  1.68759E+04  1.56574E+04  1.09294E+04  2.90775E+04
 -5.18131E+03  3.09708E+04 -1.99220E+04  1.58490E+04 -1.61801E+04  4.64006E+03 -9.49928E+03 -1.02162E+04
 -5.10214E+03 -5.87165E+03 -3.28342E+03  8.77758E+01 -7.01385E+03  3.18192E+03 -9.89348E+03  4.56124E+03
 -1.98553E+04 -1.71471E+03 -1.16640E+04 -6.20606E+03 -2.31479E+03 -1.90374E+04  9.42892E+03 -1.82981E+04
  1.06219E+04 -7.50840E+03  6.71998E+03  6.76799E+02  1.57749E+03  2.12873E+03 -9.03748E+03  1.67868E+02
 -5.41725E+03 -6.32682E+03 -4.79060E+03 -9.97463E+03  7.76003E+03 -1.63502E+04  1.74373E+04 -5.75170E+03
  2.24827E+04  9.11410E+02  1.75637E+04  1.05563E+04  1.38808E+03  1.51849E+04 -1.01308E+04  1.75550E+04
 -1.07786E+04  4.11051E+03  5.41189E+02 -3.84064E+03 -6.23150E+03 -1.01858E+04  2.39911E+03 -3.17856E+03
  7.74912E+03  7.99237E+03  7.31965E+02  7.76912E+03 -9.52237E+03  8.78300E+03 -1.33385E+04  3.00577E+03
 -1.01354E+04 -5.27052E+03  7.08766E+02 -1.46090E+04  5.97008E+03 -4.96738E+03  6.37759E+03  1.23641E+03
  4.12208E+03  6.73618E+03 -8.63981E+03  6.04275E+03 -1.41669E+04  4.59379E+03 -1.09205E+04 -9.19018E+01
 -6.36641E+03 -1.12702E+04  7.43679E+02 -1.15909E+04  1.64639E+04 -8.33961E+03  1.09283E+04  3.66672E+03
  1.20931E+04  7.50522E+03 -1.98600E+03  9.11645E+03 -9.67779E+03  6.11273E+03 -8.22919E+03 -1.58362E+03
 -1.09328E+04 -8.84392E+03 -4.00417E+03 -1.04985E+04  1.05591E+04 -1.01169E+04  3.75125E+03 -2.15805E+03
  3.51255E+03 -1.57928E+03  2.40160E+03  2.92396E+02 -2.83990E+03 -1.65839E+03  1.94293E+03 -5.82088E+03
  1.02422E+04 -7.65699E+03  9.29113E+03  3.00379E+03  1.68941E+04  1.02563E+04  1.39749E+04  1.65307E+04
 -5.41186E+03  1.92930E+04 -1.34015E+04  1.45801E+04 -2.01286E+04  6.35033E+01 -1.21342E+04 -8.10080E+03
 -7.41265E+03 -1.80942E+04  5.82322E+02 -1.05569E+04  4.64246E+03 -1.11066E+04  3.34805E+03 -2.49072E+03
  1.71201E+03 -6.07294E+02  4.11030E+03 -4.40724E+03  5.45148E+03 -4.72579E+03  7.36696E+03  7.79663E+02
  9.59192E+03  5.61240E+02  2.62216E+03  5.32577E+03 -7.31516E+03  8.87487E+03 -1.04507E+04  4.90555E+03
 -1.39752E+04 -1.92959E+03 -5.98890E+03 -1.35878E+04 -3.40815E+03 -1.64062E+04  8.44876E+03 -1.04242E+04
  1.68711E+04 -6.50200E+03  1.34751E+04  4.64661E+03  8.47148E+03  1.17388E+04  1.82443E+03  1.43812E+04
 -3.59136E+03  7.02226E+03 -7.10253E+03  5.43070E+03 -8.59265E+02 -2.98077E+03 -4.39134E+02 -4.80638E+03
 -5.12134E+03  2.08815E+03 -2.42532E+03  4.70824E+03 -6.40456E+03 -2.51575E+03 -6.16584E+03 -3.38133E+03
 -4.89676E+03 -1.15208E+04 -6.53976E+02 -1.19627E+04 -1.87239E+03 -4.67399E+03  1.16500E+04  1.28215E+03
  9.97500E+03  8.01717E+03  5.93494E+03  9.04624E+03  1.70699E+03  1.31978E+04 -9.79801E+03  3.19338E+03
 -9.85582E+03  4.49362E+03 -4.86603E+03 -8.90151E+03  1.37456E+03 -1.38043E+04  6.65561E+03 -6.03812E+03
  4.23044E+03  2.24167E+03  2.80332E+03  1.61216E+03  1.20692E+03 -1.08789E+03  3.21801E+02  4.23728E+03
 -1.34605E+02  2.23419E+03  7.75078E+03 -1.58262E+02  2.50301E+03  1.95545E+03 -2.48335E+02  6.75006E+03
 -7.05282E+03  5.05752E+03 -8.72764E+03  1.39076E+04 -1.07560E+04  5.65772E+03 -7.63450E+03 -1.11413E+03
 -2.00447E+03 -7.05854E+03  3.19765E+03 -1.42895E+04  4.22294E+03 -1.05326E+04  8.43846E+03 -5.20708E+03
  9.75252E+03  5.99120E+03  4.57815E+02  5.62589E+03  3.43308E+01  1.59979E+03 -6.92853E+03  5.80249E+03
 -1.72792E+03 -1.04611E+04  2.60408E+03 -5.06996E+03  5.33811E+03 -1.15466E+03  7.84995E+03 -3.21132E+03
  3.53344E+02  5.96333E+03  2.08186E+03  2.24058E+02  2.56923E+02  7.37541E+02  3.67595E+03 -8.76673E+02
  2.45614E+03  1.14972E+03  2.97579E+03 -1.89998E+03  7.21313E+02  7.80775E+03 -5.07577E+03  6.40406E+03
 -8.77789E+03  2.65195E+03 -1.70398E+03 -4.18092E+03 -7.56766E+03 -2.28395E+03 -3.21250E+03 -2.04877E+03
 -1.31127E+03 -5.28001E+03  7.01237E+01 -6.82079E+02 -5.15135E+03  3.47341E+03 -1.79226E+03  7.98839E+03
 -3.39307E+03  4.72812E+03 -3.37222E+03 -3.83497E+03 -2.63322E+03 -5.69715E+03  3.23206E+03 -4.79180E+03
  3.62050E+03 -1.26282E+03  1.79585E+03 -1.98766E+03  3.85678E+03 -1.02222E+03  3.36042E+03  3.37223E+03
 -1.62756E+03  2.91108E+03 -3.50489E+03  7.71799E+02  1.80452E+03 -9.84725E+03  5.91885E+03 -5.78012E+03
  9.95011E+03  7.00460E+03  7.87600E+03  5.26171E+03  5.97511E+03  8.53563E+03 -3.53302E+03  5.87278E+03
 -6.54165E+03  4.19905E+03 -7.23577E+03 -5.13829E+02 -5.12953E+03 -2.56006E+03  7.72131E+02 -5.57805E+03
  1.39423E+02 -3.08335E+03 -1.32565E+02 -8.67918E+02  4.21287E+03  4.73847E+03 -2.85264E+03  7.50082E+03
  7.31419E+02  7.70881E+02 -3.86076E+03  3.55057E+03  2.32670E+02  1.59740E+03  2.04130E+03  2.28026E+03
 -1.96642E+03 -2.97239E+03 -5.83583E+03  7.49613E+03 -8.33904E+02  3.38959E+03 -4.20088E+03 -6.77730E+03
 -5.16585E+03 -7.41891E+03  2.21175E+03 -2.36531E+03  8.87997E+03 -5.91355E+03  7.67408E+03 -8.50310E+03
  1.54848E+04  1.01850E+03  5.10204E+03  8.95763E+03  2.26411E+03  4.33631E+03 -6.07704E+03  4.15822E+03
 -8.33014E+03  2.17067E+03 -5.49529E+02 -1.62687E+03 -2.01981E+03 -7.87089E+02  4.40841E+03  2.85712E+03
 -2.11038E+03  4.64724E+01  2.00203E+03 -3.07949E+01  8.14884E+02 -2.75448E+03  2.86113E+03 -4.24316E+03
  3.75527E+03 -3.14217E+03  1.07912E+03 -4.51236E+03  3.49678E+03  3.48696E+03  9.08082E+03  4.44526E+03
 -1.20063E+04  9.56063E+03  9.34441E+02  5.99032E+03 -6.43193E+03 -1.69470E+03  1.25012E+03 -9.40343E+03
 -3.27476E+03 -5.18466E+03  7.33849E+02 -1.02386E+04  3.11654E+03 -7.31589E+03  7.14520E+03 -3.38466E+03
  6.45096E+03  2.99581E+03 -2.21906E+03  2.52194E+03 -2.03723E+03 -8.95789E+03 -4.98989E+02 -9.67437E+02
 -1.61477E+03 -4.05786E+03  2.03856E+03 -1.20249E+03 -1.75684E+03  4.28245E+03 -2.79384E+03  3.38968E+03
  6.35948E+02 -4.31882E+02 -7.63801E+03 -5.77105E+02 -3.37357E+03 -2.38700E+03  2.54501E+03 -7.99364E+03
  4.02214E+03 -3.63253E+03  4.67040E+03 -2.22724E+03 -7.61249E+02 -2.58706E+02  2.61073E+03  4.22598E+03
  1.63483E+03  2.16298E+03 -4.36359E+03  5.06535E+03 -2.56094E+03  3.47391E+03 -2.54763E+03 -4.42036E+02
  2.41112E+02 -3.22958E+03 -6.90218E+03  6.68756E+03 -2.64810E+02  1.69909E+03  1.18858E+03 -1.61671E+03
 -2.69083E+03 -1.17827E+03  5.75901E+03 -2.19144E+03  1.79032E+03 -5.77252E+03  3.80273E+03 -3.12968E+03
 -2.05377E+03  3.07643E+03 -1.27339E+02 -1.48422E+03 -9.56984E+01  6.86003E+03 -7.61940E+03  1.05041E+03
