 $NMID ID='MM_0lb_SNR50_14hz_g60_36.RAW', FMTDAT='(8E13.5)'
 TRAMP=1., VOLUME=1. $END
  3.12318E+05  8.37675E+02  3.37557E+05  2.53633E+05  7.92878E+04  3.36797E+05 -1.32898E+05  2.49871E+05
 -1.91774E+05  8.12330E+04 -1.08352E+05 -3.89260E+04  4.93811E+02 -5.25960E+04  5.00327E+04  2.96106E+03
  3.68790E+04  5.41748E+04 -1.51691E+04  7.52218E+04 -6.03751E+04  6.09193E+04 -8.65063E+04  3.03693E+04
 -7.82448E+04 -1.13395E+04 -5.18662E+04 -5.02775E+04 -1.58479E+04 -6.96922E+04  2.81250E+04 -4.48427E+04
  4.03986E+04  8.30233E+02  1.91616E+04  5.22384E+04 -3.60662E+04  4.88784E+04 -6.85315E+04  2.20403E+03
 -4.88167E+04 -5.66969E+04 -8.47188E+03 -7.61486E+04  3.70769E+04 -5.78187E+04  5.06580E+04 -2.18674E+04
  4.85176E+04  1.59172E+04  2.82501E+04  2.27970E+04  1.65979E+04  2.82082E+04 -3.33032E+03  2.54983E+04
 -2.38000E+04  1.75460E+04 -1.75338E+04 -9.15973E+03  7.32843E+03 -1.16975E+04  2.54129E+04  1.39001E+04
  7.35963E+03  3.88175E+04 -3.03619E+04  3.67416E+04 -6.87769E+04  7.32473E+02 -6.04655E+04 -4.83984E+04
 -1.33945E+04 -6.68839E+04  3.86731E+04 -4.76221E+04  6.42248E+04 -4.01100E+03  3.25017E+04  3.05497E+04
 -8.76025E+03  3.91477E+04 -3.41989E+04  1.73187E+04 -2.82705E+04 -4.61939E+03 -2.14662E+04 -8.87237E+03
 -1.11839E+04 -1.46911E+04  2.32734E+03 -2.22810E+04  7.33016E+03 -2.79327E+04  1.71348E+04 -1.05776E+04
  1.32520E+04  8.10445E+03 -8.56559E+03  1.08931E+04 -2.11211E+04 -4.57540E+03 -7.32917E+03 -3.12604E+04
  2.43804E+04 -4.52980E+04  4.61419E+04 -2.51400E+04  4.50611E+04  2.70724E+04  1.45108E+04  4.66907E+04
 -1.73107E+04  3.41473E+04 -2.46548E+04  2.46846E+03 -1.12964E+04 -2.64995E+04  2.43465E+04 -3.11860E+04
  4.22467E+04 -1.29178E+04  3.53771E+04  2.60986E+04  1.80284E+04  5.00046E+04 -6.30986E+03  5.08421E+04
 -3.27528E+04  3.55521E+04 -4.26934E+04  6.59213E+03 -4.13389E+04 -1.33267E+04 -2.60162E+04 -3.65838E+04
  1.03955E+04 -4.03147E+04  2.91739E+04 -2.07781E+04  3.15735E+04  1.05993E+04  3.03003E+03  1.74950E+04
 -1.65313E+04  1.27285E+04 -5.85562E+03 -7.87802E+03  6.25877E+03 -8.70238E+03  1.73859E+04  6.89352E+03
  1.20338E+04  2.37548E+04 -5.71293E+03  2.01363E+04 -2.33814E+04  1.51266E+04 -2.62284E+04 -1.13247E+04
 -1.97668E+04 -1.59219E+04 -1.00775E+04 -2.28296E+04  4.83347E+03 -2.11760E+04  1.69192E+04 -2.18487E+04
  3.38696E+04 -1.49189E+04  3.44499E+04  2.16093E+03  2.47047E+04  2.04931E+04 -6.70454E+02  4.46182E+04
 -1.90096E+04  2.83751E+04 -3.00645E+04  9.45111E+03 -2.37059E+04 -7.65959E+03 -5.76873E+03 -1.69225E+04
  4.50509E+03  1.01364E+03 -9.25762E+03  8.09130E+03 -1.49519E+04  5.79049E+03 -1.32012E+04 -6.41887E+03
 -8.59050E+03 -2.30204E+04  7.15369E+03 -2.69761E+04  1.41938E+04 -1.64447E+04  1.72858E+04  1.51310E+03
  3.97639E+03  1.39968E+04  5.68949E+02  1.98669E+04 -1.58886E+04  9.50370E+03 -1.86593E+04 -1.85854E+03
 -1.37587E+04 -1.57962E+04 -2.52230E+02 -2.36474E+04  1.04710E+04 -1.60563E+04  2.35426E+04 -1.03355E+04
  1.72343E+04  1.42167E+02  1.24496E+04  6.85759E+03  1.12279E+04 -2.29942E+03  1.24399E+04  4.55501E+02
  1.71305E+04  1.10779E+03  2.00149E+04  1.46920E+04  1.17567E+04  3.02346E+04  8.34744E+01  3.60098E+04
 -1.99565E+04  3.43046E+04 -3.21563E+04  1.61932E+04 -3.37075E+04 -6.64844E+03 -2.78880E+04 -2.08371E+04
 -1.36813E+04 -2.78472E+04  1.64274E+04 -2.08318E+04  2.53805E+04 -1.41795E+04  2.03736E+04  8.42733E+03
  1.01114E+04  1.73038E+04 -8.80723E+03  1.76715E+04 -1.48064E+04  1.64947E+03 -7.01265E+03 -1.32060E+04
  4.32873E+03 -1.42964E+04  9.12001E+03 -1.11821E+04  1.11800E+04 -2.35954E+03  2.57217E+03  6.40155E+03
 -4.04113E+03  6.06093E+03 -8.15754E+03 -2.30397E+03 -2.11464E+02 -1.61118E+04  4.97235E+03 -1.89139E+04
  1.92553E+04 -8.38438E+03  1.71848E+04  3.19161E+03  1.04380E+04  2.30811E+04  4.41889E+03  2.50421E+04
 -1.68505E+03  1.81819E+04 -1.28378E+04  1.77090E+04 -2.04338E+04  5.47124E+02 -9.02061E+03 -6.24692E+02
 -6.49908E+03 -3.68277E+03  1.28250E+03 -1.72648E+02 -5.05548E+03  7.65195E+02 -4.78938E+03  4.74554E+03
 -1.06332E+04 -9.40858E+02 -1.70915E+04 -1.09152E+04 -7.10857E+03 -1.15593E+04 -9.52678E+01 -1.26291E+04
  1.18138E+04 -5.78209E+03  5.38216E+03 -2.83286E+03  3.42468E+03  7.04897E+03 -3.06625E+03  4.65811E+03
 -3.34264E+03 -9.50177E+03  1.26687E+03 -1.14812E+04  3.49002E+03 -1.19863E+04  1.48047E+04 -8.43916E+03
  2.04302E+04  3.84138E+03  1.45392E+04  8.96036E+03 -3.17944E+03  9.71731E+03 -1.12203E+04  8.03976E+03
 -1.72171E+04  9.54799E+03 -4.05552E+03 -5.11753E+03  7.94856E+01 -4.54636E+03  4.35713E+03 -5.66825E+03
  7.35268E+03  3.92494E+03  3.01849E+03  3.22180E+03 -8.10074E+03  9.43602E+03 -1.46398E+04  8.27813E+02
 -1.81145E+03 -1.19045E+04 -1.47387E+03 -3.58189E+03  6.95224E+03 -3.69086E+03  1.39461E+04  2.52801E+03
  3.92152E+03  8.79012E+03 -4.63729E+03  7.44069E+03 -4.87016E+03  3.79461E+03 -9.59052E+03 -1.71599E+03
 -5.94770E+03 -7.68291E+03  6.64407E+02 -9.77574E+03  1.93600E+03 -5.87841E+03  1.59316E+04  5.74470E+03
  8.17076E+03  9.74929E+03 -3.55076E+03  8.85719E+03 -8.62202E+03  7.18657E+03 -1.27151E+04 -4.68610E+03
 -4.29978E+03 -8.50092E+03 -2.18619E+02 -4.70153E+03  6.77369E+03 -5.95995E+03  7.44764E+03 -1.19038E+04
  2.09299E+03  1.92385E+03 -3.44597E+03  2.45005E+03  4.70311E+03 -1.26212E+03 -1.13580E+03 -2.52642E+03
  3.62710E+03  1.45780E+03  1.32340E+04  4.39337E+03  1.00725E+04  5.94450E+03  5.75409E+03  1.19076E+04
  5.78783E+02  1.05060E+04 -5.45578E+03  1.09407E+04 -2.14844E+04 -2.61395E+02 -8.82062E+03 -4.77570E+03
 -8.87929E+03 -1.14305E+04 -3.78779E+03 -3.32610E+03  6.56453E+03 -5.92546E+03  1.45829E+03 -9.99314E+02
  1.28278E+03 -1.15221E+03  8.50646E+02 -4.02481E+03 -9.17795E+01 -1.58555E+03 -3.17544E+02  4.68318E+03
  1.05300E+04  7.28529E+02  2.48419E+03  6.96329E+03 -7.24486E+03  3.61955E+03 -7.92788E+03  6.96524E+03
 -1.04750E+04  3.00432E+02 -4.96731E+03 -7.39853E+03 -1.29645E+03 -8.24836E+03  5.94704E+03 -1.25253E+04
  1.56056E+04 -6.23546E+03  1.62640E+04  4.13122E+03  9.60261E+03  1.13279E+04  1.42649E+03  8.94376E+03
 -6.42800E+03  1.09083E+04 -8.76762E+03  4.04927E+03 -1.15031E+03 -3.04924E+03 -2.00004E+03  3.08912E+03
  1.07623E+03 -4.76260E+03 -3.84330E+03  6.62960E+03 -8.89040E+02  2.38470E+03 -7.94394E+03 -9.77962E+02
  1.04096E+03 -7.30089E+03  7.24367E+02 -4.63943E+03  1.11474E+03 -9.28881E+03  8.77249E+03 -6.04876E+03
  1.17201E+04  7.02877E+03  1.16383E+04  2.88706E+03 -5.14333E+03  8.21431E+03 -8.61990E+03  4.02035E+03
 -6.88504E+03  2.41287E+03 -7.21772E+03 -5.59889E+03  1.91775E+03 -1.60155E+03  2.53754E+03 -4.03183E+03
  8.30065E+03 -3.49311E+03  2.77857E+03 -4.26096E+02  3.80008E+03  5.64359E+03  3.69764E+03  3.33011E+02
  2.17293E+03  5.30212E+03  3.45617E+03  6.00436E+03  5.49859E+02  4.66763E+03  4.93232E+02  7.70291E+03
 -1.27445E+03  8.96019E+03 -6.26492E+03  1.86505E+03 -6.21804E+03  1.59150E+03 -1.09083E+04 -1.23816E+02
 -5.87682E+03 -9.52950E+03 -2.90116E+03 -8.55426E+03  3.10743E+03 -4.46879E+03  8.54803E+03 -2.01028E+03
  4.98072E+03  5.16394E+03  6.11748E+03  5.97682E+03 -4.39737E+03  1.47611E+03 -4.49192E+03 -2.28317E+02
 -2.88557E+02 -2.75086E+03  4.12065E+03 -2.47073E+03  5.68015E+03 -1.58499E+03  2.04265E+03  3.52603E+03
 -1.66567E+03 -1.27187E+03  1.60077E+03  3.24156E+03  1.12785E+03 -1.70094E+03  2.45002E+03 -1.52222E+03
 -7.86329E+02  8.05415E+02  5.30231E+03  1.58806E+03  6.53903E+03  3.44354E+03  4.48259E+01  1.06182E+04
 -3.22879E+03  1.51118E+03 -1.44838E+04  3.35703E+03 -6.67105E+02 -1.27442E+03 -5.12929E+03  3.45848E+03
 -1.12893E+03 -3.30112E+03  2.37692E+03  2.62430E+03 -2.42538E+03  4.42719E+03 -8.43453E+02  3.26784E+03
 -3.76321E+03  6.91462E+03 -3.38136E+03 -1.05537E+03  2.30615E+03  5.07339E+02 -9.11255E+02 -2.48202E+03
 -9.71694E+02 -6.48409E+02 -1.56578E+03  4.86381E+02  1.32321E+03  6.85088E+02 -1.61836E+03  2.07629E+03
  7.29997E+02 -2.56754E+03 -1.70927E+03 -2.07854E+03  2.63831E+03 -2.95758E+03  6.15559E+03 -2.71060E+03
  4.52971E+03  1.02721E+03  3.02326E+03 -1.19096E+02  4.18861E+03  8.12369E+03 -2.39916E+03  4.28923E+03
 -4.76354E+03  5.54549E+03 -3.85176E+02  1.95336E+03 -4.69808E+02  9.89688E+02 -8.76036E+02 -2.12860E+03
  5.76107E+03 -5.69222E+02  3.41019E+03  5.44102E+02  4.29844E+03  1.76913E+03 -1.49507E+03  2.41236E+03
  4.58448E+02  2.11712E+03 -5.83178E+02  6.04173E+03 -1.73866E+03  5.68639E+03  2.94408E+03  4.24527E+03
  2.55202E+03 -2.74874E+03 -7.77326E+03  1.75582E+03 -7.68448E+03  3.24180E+03 -3.19014E+03 -1.10556E+03
  9.50171E+01 -8.77135E+03 -3.07934E+01 -7.13696E+03  3.69294E+03 -8.14626E+03  6.58358E+03 -8.28980E+03
  1.00039E+04 -2.56090E+03  8.00963E+03 -4.11462E+03 -2.86285E+03  8.03501E+03 -3.56273E+03  2.16664E+03
 -6.22582E+03  9.37443E+03  1.60082E+03  1.42813E+03 -4.87931E+01 -8.13218E+02 -2.95265E+03 -4.59548E+03
 -7.37419E+01  2.61932E+02 -1.46078E+03  2.28011E+03 -7.29497E+03 -3.21569E+03 -2.07436E+03 -5.26219E+03
  4.70564E+03 -3.78265E+03  5.33242E+03 -2.30263E+03  3.09108E+03  5.29911E+03  2.37456E+02  3.15795E+03
 -2.19038E+03  1.01431E+04 -8.66706E+03  7.59702E+03 -6.46249E+03 -1.27894E+03 -7.18622E+00 -1.23177E+02
 -4.86099E+02 -3.10622E+03 -1.30282E+03 -4.58955E+03 -2.89965E+03 -4.62511E+03  3.25888E+03  5.35100E+02
 -1.57517E+03 -1.60619E+03 -1.53179E+03  2.05911E+03 -1.95574E+03 -5.24636E+03 -5.27275E+02  9.88897E+01
  2.49494E+02  1.57376E+03  1.06725E+02 -3.54757E+03 -1.35440E+03  2.64250E+03  3.26930E+03  1.80313E+03
 -3.77416E+03  7.22354E+03  1.33935E+02 -3.13584E+03  6.50808E+02  1.64634E+03  3.12567E+03  1.70931E+02
  3.75921E+02 -4.27678E+03  7.86135E+03 -4.42406E+02  2.60415E+03  7.47502E+02  2.00381E+03 -8.40241E+02
  2.68687E+03 -2.24403E+03 -1.41536E+03  1.31541E+02 -3.54086E+03  6.81401E+00 -3.95358E+03  4.07449E+03
 -3.01596E+03  1.81581E+03 -3.96958E+03 -9.48554E+02 -2.37314E+03 -3.96979E+02 -1.54071E+03  2.76954E+03
 -3.88362E+03  1.65745E+03 -6.08179E+03  4.75068E+02 -3.40634E+02 -1.62674E+03  1.20738E+03  5.48201E+03
 -1.24678E+03 -1.54856E+03 -3.63730E+03  2.89007E+03  6.65630E+03 -2.73772E+03 -1.86569E+03 -4.46854E+03
