 $NMID ID='MM_0lb_SNR50_16hz_g40_59.RAW', FMTDAT='(8E13.5)'
 TRAMP=1., VOLUME=1. $END
  3.09035E+05  3.71529E+03  3.36799E+05  2.49935E+05  8.59319E+04  3.36518E+05 -1.32905E+05  2.51423E+05
 -1.89926E+05  8.73740E+04 -1.10160E+05 -3.61141E+04  3.70401E+03 -4.77277E+04  4.84533E+04  1.59353E+03
  3.54843E+04  5.01059E+04 -1.64249E+04  6.98170E+04 -5.76979E+04  6.32800E+04 -8.12534E+04  3.01760E+04
 -7.72651E+04 -1.17308E+04 -5.66420E+04 -4.96386E+04 -1.56094E+04 -6.89680E+04  2.63714E+04 -4.91808E+04
  3.89030E+04  4.29770E+03  1.17334E+04  4.53135E+04 -3.94286E+04  4.89512E+04 -6.64591E+04 -9.30391E+02
 -5.55980E+04 -5.53611E+04 -8.95293E+03 -7.21240E+04  3.48004E+04 -5.23843E+04  4.27870E+04 -1.67440E+04
  4.21910E+04  1.02817E+04  3.31458E+04  2.44741E+04  1.84961E+04  2.76456E+04 -5.71541E+03  2.76476E+04
 -2.26756E+04  1.39161E+04 -1.66039E+04 -4.07321E+03  5.16187E+03 -2.10895E+03  2.26834E+04  8.72194E+03
  1.01833E+04  2.81289E+04 -3.05656E+04  3.43324E+04 -6.40174E+04  2.24175E+03 -5.16874E+04 -4.14892E+04
 -1.21904E+04 -5.85976E+04  4.10590E+04 -4.51928E+04  5.84074E+04 -1.62692E+03  3.37046E+04  3.27601E+04
 -8.58025E+03  3.35555E+04 -3.07884E+04  1.28179E+04 -3.03068E+04 -8.64772E+03 -1.63381E+04 -1.29106E+04
 -9.44889E+03 -1.12883E+04  4.53738E+02 -1.58733E+04  6.32650E+03 -2.33820E+04  1.89345E+04 -1.72234E+04
  9.42451E+03  3.32929E+03 -6.68765E+03  1.19612E+04 -2.12601E+04 -3.70676E+03 -6.90083E+03 -3.38931E+04
  1.92863E+04 -4.19660E+04  4.85288E+04 -2.34991E+04  3.92945E+04  1.76156E+04  1.61121E+04  3.87737E+04
 -1.53586E+04  2.74732E+04 -2.00759E+04  2.57395E+03 -1.24201E+04 -2.60059E+04  2.46069E+04 -3.15873E+04
  3.60009E+04 -5.93380E+03  2.84992E+04  2.43129E+04  1.84460E+04  3.91177E+04 -5.23579E+03  4.92524E+04
 -3.09872E+04  2.90118E+04 -4.45377E+04  1.00900E+04 -4.12934E+04 -1.34680E+04 -2.17537E+04 -3.80765E+04
  8.37951E+03 -3.59391E+04  2.80611E+04 -1.25520E+04  2.50998E+04  9.63470E+03  8.99410E+02  2.45609E+04
 -1.78879E+04  4.10856E+03 -9.89426E+03 -7.37233E+03  8.41990E+03 -9.05966E+03  1.51239E+04  1.24969E+04
  1.43961E+04  2.34032E+04 -7.88762E+03  2.61342E+04 -2.16238E+04  7.03451E+03 -2.53894E+04 -2.05003E+03
 -2.08574E+04 -1.24858E+04 -8.40927E+03 -1.56684E+04  5.38040E+03 -8.86582E+03  1.33857E+04 -1.91840E+04
  2.27743E+04 -1.54938E+04  2.93997E+04  2.85304E+03  2.66730E+04  1.40933E+04  1.16468E+03  3.60498E+04
 -1.75257E+04  3.06387E+04 -2.75941E+04  4.75626E+03 -2.09428E+04 -1.40023E+04 -6.50558E+03 -1.23306E+04
  6.98982E+03 -6.90940E+03 -2.10416E+03  3.79013E+03 -1.59159E+04  6.31341E+03 -1.20891E+04 -6.48506E+03
 -5.85704E+03 -1.70170E+04  4.11566E+03 -2.00482E+04  1.23975E+04 -1.43758E+04  1.50036E+04 -7.94420E+02
  1.05955E+04  1.06853E+04 -9.79875E+01  1.63784E+04 -1.03867E+04  1.27207E+04 -1.74313E+04 -1.01568E+04
 -1.67539E+04 -1.45159E+04 -1.48996E+03 -1.81678E+04  8.52744E+03 -1.92665E+04  1.58457E+04 -1.10765E+04
  1.10075E+04  3.94834E+03  1.15480E+04  9.40293E+02  3.43690E+03 -2.40752E+02  7.30287E+03  1.52394E+02
  1.59894E+04  3.98269E+03  1.36268E+04  1.74250E+04  1.08030E+04  2.95825E+04 -1.45706E+03  2.80874E+04
 -1.65184E+04  2.47456E+04 -2.85976E+04  8.67171E+03 -2.93097E+04 -9.63766E+02 -2.33187E+04 -1.42492E+04
 -1.45199E+04 -2.20553E+04  1.05683E+04 -2.00705E+04  2.17464E+04 -1.30489E+04  1.79186E+04  7.42561E+03
  2.74742E+03  1.22946E+04 -3.85732E+03  1.11761E+04 -1.16301E+04  1.87461E+03 -9.50834E+03 -8.44743E+03
  2.91120E+03 -1.46261E+04  1.61357E+03 -1.11148E+04  1.15125E+04 -3.71095E+02  4.82965E+03  7.77210E+03
 -5.67501E+03  6.93578E+02 -6.63491E+03 -3.28677E+03 -3.98266E+03 -1.11396E+04  6.92073E+03 -1.08122E+04
  1.35194E+04 -3.41667E+03  1.25918E+04  5.92300E+03  1.31366E+04  1.24088E+04  4.51978E+03  1.91703E+04
 -4.61400E+03  1.95526E+04 -1.20433E+04  9.85544E+03 -1.22029E+04  4.23910E+03 -7.42167E+03 -4.63330E+03
 -3.29357E+03 -5.41888E+03 -1.90580E+03 -4.54625E+02 -1.68928E+02  1.12785E+03  1.61868E+02  5.85214E+03
 -9.92484E+03 -3.90433E+03 -9.32347E+03 -4.21705E+03 -6.13280E+03 -1.20062E+04  2.63592E+03 -9.92198E+03
  6.16874E+03 -3.18634E+03  1.24038E+04  7.45394E+03 -2.79746E+03  6.62209E+03 -4.22422E+03 -1.17017E+03
 -5.12517E+03 -5.83705E+03 -1.36271E+02 -8.66097E+03  4.69889E+03 -6.46205E+03  1.35567E+04 -3.42329E+03
  1.64850E+04  3.84468E+01  8.72170E+03  1.70997E+03  5.38430E+03  1.42967E+04 -5.93875E+03  4.01659E+03
 -4.78277E+03 -2.43942E+03 -5.56528E+03  1.06394E+03  3.31971E+03 -2.56830E+03  5.77449E+03 -1.85307E+03
  5.34571E+03  3.30874E+02 -3.75109E+02  7.98752E+03 -7.37799E+03  6.37039E+03 -8.73440E+03  2.60139E+03
 -6.50615E+03 -1.26491E+03 -1.21995E+03 -8.90400E+03  1.02889E+04 -1.46164E+03  5.03239E+03 -1.47388E+03
 -1.65105E+03  9.53144E+03 -1.83965E+03  4.44883E+03 -5.43085E+03  1.92372E+03 -8.67029E+03 -2.06129E+03
 -3.71486E+03 -9.18681E+03  1.04805E+03 -9.25767E+03  9.16596E+03 -8.27322E+03  7.40903E+03 -2.79075E+03
  4.98194E+03  8.30248E+03 -2.16798E+03  9.14646E+03 -9.35451E+03  6.95154E+03 -3.63071E+03 -9.03861E+02
 -1.04822E+04 -8.58267E+03  1.03978E+03 -5.83113E+03  6.55221E+03 -7.87219E+03  1.87275E+03 -2.65529E+03
  3.98563E+03  4.54593E+03 -4.21037E+03  4.45887E+03  2.38353E+03  1.25595E+03 -4.54600E+03 -3.05330E+00
  2.28322E+03 -1.68266E+03  4.83371E+03  4.01112E+03  4.62434E+03  8.45318E+03  5.90492E+03  9.91679E+03
 -4.68267E+03  1.22315E+04 -6.27874E+03  4.16128E+03 -1.24246E+04  1.19514E+03 -9.05274E+03 -5.20779E+03
 -2.74197E+03 -5.08457E+03 -3.04882E+03 -9.22225E+03  2.00757E+03 -2.64568E+03  1.94652E+03 -1.38953E+03
 -2.09236E+03 -3.89182E+03  3.59120E+03 -1.31479E+02  4.87028E+03 -7.00425E+02  5.48195E+03 -3.43879E+03
  3.67710E+03  8.17810E+02 -3.05479E+03  5.01773E+03 -1.94038E+03  4.05905E+03 -3.74334E+03  2.17484E+03
 -1.03737E+04 -5.97511E+02  1.91544E+03 -2.41076E+03 -2.20334E+02 -4.60002E+03  6.97381E+03 -3.60646E+03
  6.28085E+03 -4.27128E+03  1.04261E+04  3.21397E+03  2.11070E+03  6.29337E+03 -5.33778E+02  7.36265E+03
 -3.50418E+03  7.45032E+03 -3.20762E+03  6.37519E+02 -4.66170E+03 -8.52750E+02  9.12380E+02 -2.41050E+03
 -6.51214E+02  1.28619E+03  4.33591E+03 -2.41469E+02 -1.43409E+03 -1.93370E+03 -2.56510E+03  3.18377E+03
 -1.82627E+03 -2.80600E+03 -4.07757E+03 -7.15715E+03  5.37198E+03 -5.59678E+03  6.77526E+03  1.10018E+03
  3.77194E+03  5.67794E+02 -1.42320E+03  2.43762E+03 -1.84622E+03  8.14845E+03 -3.21076E+03  7.25845E+03
 -9.79141E+03  5.39336E+03 -5.53568E+03 -4.86050E+03 -2.07109E+03 -4.62662E+03  3.23321E+03 -1.89497E+02
  2.69601E+03 -2.58105E+03  4.37561E+03  1.07782E+02 -8.61227E+02  3.63525E+03  3.05456E+03  2.69823E+02
  2.46651E+02  3.80021E+02  6.65570E+02 -3.26855E+03  2.80716E+03  2.14140E+03  2.93204E+03  1.69483E+03
 -4.07327E+03  5.40369E+03 -3.79230E+03  8.24782E+03 -3.65096E+03 -2.40616E+02 -4.40197E+03 -2.28724E+03
  1.81998E+03 -4.01636E+03  4.84313E+03 -9.19492E+03  2.43196E+01 -3.34133E+03  1.42614E+03 -2.33480E+03
  3.93846E+03  8.35216E+03 -1.05338E+03  1.17379E+03 -4.87166E+03  1.70547E+03 -5.19398E+03 -3.25731E+02
  1.40512E+02 -4.12636E+03  3.57575E+03 -3.21921E+03  3.34208E+03 -3.15548E+03  4.67940E+03 -1.25638E+03
 -3.25325E+02  4.99700E+02  6.93371E+02 -3.14335E+03 -3.57915E+02  2.52865E+03  1.27994E+03  4.99252E+03
 -8.42641E+02 -7.04086E+02  1.02386E+03  1.94670E+02  6.05279E+02  4.53178E+03 -4.25389E+02  1.87825E+03
 -5.81885E+03  4.37288E+03 -4.15525E+03  2.76183E+03 -1.39686E+03 -7.11624E+02  2.96857E+02 -4.97690E+03
  1.75193E+03  2.05071E+03 -2.06172E+03 -2.24715E+03  6.90189E+02  3.58066E+03 -3.22821E+03  2.93882E+03
 -3.54447E+03 -2.58583E+02 -2.71127E+03 -5.91815E+03  1.76568E+03 -5.75943E+03  2.13725E+02 -2.04692E+03
  5.56717E+03 -7.56214E+02  2.91218E+03 -2.08536E+03  3.62934E+03 -2.13207E+03  8.44471E+02  9.82092E+02
 -1.41791E+03 -1.03118E+03 -2.74031E+03 -1.05423E+03  2.35460E+03 -3.80314E+03  5.29693E+03 -4.79068E+03
  3.80034E+03 -2.98933E+03  4.85992E+03 -1.91321E+03  5.97636E+03  1.96164E+03 -1.92444E+03  2.34608E+03
 -2.31593E+03  1.96115E+03 -2.76461E+03  3.65656E+01 -5.77471E+03 -3.13657E+03 -6.58396E+03 -1.16655E+03
  8.78312E+02  8.68232E+02 -1.38832E+03  1.44185E+03  3.61460E+02  1.66681E+02 -3.65696E+03  2.53975E+03
 -4.08998E+03  5.11732E+03 -1.89141E+03  3.91810E+03  2.17660E+02  3.98240E+03 -1.46465E+03 -1.19502E+03
  1.09427E+03  7.78224E+02  4.21807E+03  8.57752E+02  6.22131E+01  3.10445E+03 -1.15597E+03 -2.40570E+03
  2.89805E+03 -7.71476E+03  4.95866E+02 -5.45021E+03  3.95680E+03 -6.46994E+02  4.90962E+03 -2.09663E+03
  7.27162E+03  4.37491E+03  1.90271E+03  3.38253E+03  3.67841E+02  5.94733E+03  3.01426E+03  5.11332E+03
 -3.02616E+03  7.81409E+02 -5.70281E+03 -4.35488E+02 -3.67416E+03 -1.23058E+03 -2.03426E+03 -2.43077E+03
 -3.25652E+03  1.20951E+03 -2.46962E+03 -1.04360E+03 -2.29718E+03  3.91131E+03  1.90367E+03 -3.19834E+03
  3.93798E+03 -6.71594E+02 -4.15858E+03  9.28398E+02  3.01445E+02  1.98633E+03 -8.87817E+02  4.95910E+03
  3.93931E+02  1.52311E+03  5.62362E+02  3.88149E+03 -7.50389E+03 -4.23407E+03 -1.49022E+03 -3.21152E+03
  2.81093E+02 -1.30601E+03 -2.83587E+03 -2.05719E+03 -2.15662E+03 -2.19892E+03  7.93961E+03  3.31552E+03
  1.03036E+03  5.92316E+03  4.00421E+03  1.14690E+03 -1.64199E+02 -3.16557E+03 -1.31101E+03  4.22496E+02
 -2.61918E+03  6.02833E+03  7.68918E+02  1.50601E+02  2.25645E+03 -1.45720E+03  3.37917E+03  1.11482E+03
 -4.59582E+03 -1.12196E+03  3.30036E+03  3.04215E+03  1.14383E+03  1.55234E+03 -8.17418E+02 -5.41215E+02
 -1.47865E+02 -4.88250E+03  1.29175E+03  3.42294E+03  1.74536E+03  1.47393E+03  1.12595E+03  2.77538E+03
  3.83682E+03 -3.25507E+03  6.69225E+03  4.39340E+02 -9.70698E+02  4.53524E+03  2.99772E+03 -2.17678E+03
 -1.05653E+03 -1.24476E+03 -1.44094E+02 -3.75066E+02  3.73646E+03 -4.06559E+03 -5.75304E+02  4.39843E+03
 -4.54043E+03  1.94816E+03  1.69090E+03 -1.90453E+03 -7.92658E+02 -4.74793E+03  4.47398E+03 -2.59820E+01
  1.77123E+03 -8.81835E+02 -1.58350E+03  1.31917E+02 -3.04915E+03 -6.13619E+01 -1.87678E+03  5.56768E+03
