 $NMID ID='MM_0lb_SNR50_8hz_g55_100.RAW', FMTDAT='(8E13.5)'
 TRAMP=1., VOLUME=1. $END
  3.06184E+05 -1.05269E+04  3.27093E+05  2.49507E+05  8.45136E+04  3.32508E+05 -1.26276E+05  2.49779E+05
 -1.84109E+05  8.53156E+04 -1.13359E+05 -3.82033E+04 -2.05170E+03 -6.07696E+04  4.83011E+04 -6.48106E+03
  2.94783E+04  4.87931E+04 -1.66427E+04  7.28393E+04 -6.12553E+04  6.21783E+04 -9.02320E+04  3.34049E+04
 -7.86988E+04 -1.18627E+04 -6.07292E+04 -5.34773E+04 -1.76945E+04 -6.79628E+04  2.14961E+04 -4.78213E+04
  5.00239E+04  1.22351E+03  2.17133E+04  4.73868E+04 -3.90038E+04  4.43769E+04 -6.22880E+04  1.10713E+03
 -5.49676E+04 -5.75733E+04 -1.49994E+04 -8.04520E+04  3.62026E+04 -5.28711E+04  4.64958E+04 -2.57242E+04
  4.47954E+04  1.07843E+04  3.48477E+04  2.25271E+04  1.62641E+04  2.59339E+04 -1.33039E+04  2.65554E+04
 -1.75524E+04  9.52781E+03 -1.61126E+04 -8.82413E+03  3.87293E+03 -1.24399E+04  2.61763E+04  1.66525E+04
  1.84927E+04  4.20466E+04 -3.84986E+04  3.63381E+04 -7.39387E+04  3.33881E+03 -5.42693E+04 -4.84244E+04
 -1.90018E+04 -6.76183E+04  4.82312E+04 -4.77604E+04  6.05434E+04 -4.12625E+03  3.12593E+04  2.55738E+04
 -3.11176E+03  4.12541E+04 -3.72310E+04  1.51907E+04 -3.44452E+04 -2.07650E+03 -2.04536E+04 -1.81738E+04
 -1.57277E+04 -1.80045E+04 -2.69599E+03 -1.80479E+04  1.17681E+04 -1.98227E+04  1.96814E+04 -1.74399E+04
  1.03068E+04  8.48179E+03 -1.33596E+04  9.29986E+03 -2.50411E+04 -3.79632E+03 -9.39370E+03 -4.05914E+04
  1.99331E+04 -4.31649E+04  5.51308E+04 -2.40440E+04  5.40941E+04  2.50731E+04  1.94285E+04  4.35808E+04
 -1.80246E+04  4.04033E+04 -3.11132E+04  8.33476E+02 -1.53847E+04 -3.21689E+04  2.94881E+04 -3.33523E+04
  4.72426E+04 -1.39866E+04  4.81837E+04  2.21503E+04  2.06135E+04  5.79386E+04 -1.16142E+04  5.56757E+04
 -3.46043E+04  3.27975E+04 -5.08804E+04  1.12774E+04 -4.09880E+04 -1.91089E+04 -2.02863E+04 -3.99253E+04
  1.19731E+04 -4.43941E+04  3.45379E+04 -2.32222E+04  3.14637E+04  1.16312E+04  8.62335E+03  1.67638E+04
 -1.27263E+04  1.26008E+04 -9.56914E+03 -6.80836E+03  7.51372E+03 -1.71993E+04  2.13843E+04  1.08662E+04
  1.84212E+04  2.39574E+04  2.17354E+02  2.46803E+04 -2.78049E+04  1.83435E+04 -3.36375E+04  4.56935E+03
 -2.77696E+04 -1.97406E+04 -9.18151E+03 -2.62624E+04  4.04162E+03 -2.62433E+04  1.61182E+04 -2.48204E+04
  3.73286E+04 -1.66248E+04  4.45466E+04  7.27980E+03  3.33859E+04  2.63844E+04  3.59656E+03  4.16540E+04
 -2.42708E+04  2.91587E+04 -2.25622E+04  3.80098E+03 -2.78304E+04 -1.01434E+04  3.54962E+03 -1.31711E+04
 -7.91662E+03 -7.18042E+03 -6.27013E+03  9.85342E+03 -1.80451E+04  8.68253E+03 -2.10415E+04 -8.87075E+03
 -1.69900E+04 -2.86891E+04  9.66200E+03 -3.36896E+04  2.32115E+04 -1.96591E+04  2.06736E+04 -8.68093E+03
  1.20707E+04  4.90837E+03 -2.68774E+03  1.89725E+04 -2.10835E+04  1.77676E+04 -2.65920E+04  5.58507E+02
 -1.28293E+04 -2.44949E+04 -3.91044E+03 -2.50912E+04  1.34021E+04 -1.95610E+04  2.61356E+04 -7.45477E+03
  2.57624E+04 -6.56793E+03  1.26839E+04  3.73191E+03  1.23217E+04  2.36604E+03  1.84463E+04  7.19248E+03
  1.83619E+04 -8.52870E+02  2.44573E+04  1.46992E+04  2.69110E+04  3.42784E+04 -7.70176E+03  4.49062E+04
 -2.34995E+04  3.80497E+04 -4.74614E+04  1.68265E+04 -4.49096E+04 -6.92203E+03 -3.72732E+04 -3.33562E+04
 -1.39489E+04 -3.83536E+04  1.37916E+04 -3.76836E+04  3.02630E+04 -1.79649E+04  3.03481E+04  8.18844E+03
  1.04373E+04  1.48503E+04 -9.97720E+03  1.21335E+04 -2.65872E+04  3.00376E+02 -1.89419E+04 -1.50810E+04
  3.16383E+03 -1.48270E+04  9.63184E+03 -1.16012E+04  1.40617E+04 -2.49871E+03  1.41927E+03  1.23241E+04
 -9.33043E+03  2.92909E+03 -1.21372E+04 -7.94655E+03  2.91432E+03 -1.70381E+04  7.12224E+03 -2.29052E+04
  3.24335E+04 -1.02387E+04  3.08155E+04  7.09934E+03  1.99978E+04  1.72403E+04  1.22660E+04  3.04384E+04
 -7.59175E+03  3.68501E+04 -1.95199E+04  2.33863E+04 -2.56460E+04  5.10646E+03 -1.62109E+04 -6.87426E+03
 -6.06624E+03 -1.25407E+04 -6.03653E+02  2.84360E+03 -4.68479E+03  4.20210E+03 -4.85142E+03  5.13347E+03
 -9.92425E+03 -4.29890E+03 -1.67581E+04 -2.16717E+04 -1.31178E+04 -2.30676E+04  6.90847E+03 -1.04015E+04
  1.01319E+04 -2.67769E+03  1.38513E+04  1.00236E+04 -2.77832E+03  2.99073E+03 -1.62161E+04  5.95479E+03
 -7.78704E+03 -1.24510E+04 -4.11218E+03 -1.52130E+04  6.55059E+03 -1.82094E+04  2.18442E+04 -4.88259E+03
  2.52718E+04 -4.11348E+03  1.85609E+04  1.75282E+04  7.82063E+03  2.16049E+04 -1.44091E+04  1.95130E+04
 -1.13034E+04  4.78097E+03 -3.23326E+03 -6.67822E+03 -1.44135E+03 -7.04022E+03  5.27440E+03 -6.31261E+02
  9.13494E+03  1.33909E+04  4.74843E+03  1.23923E+04 -1.25075E+04  1.05653E+04 -2.24293E+04  2.39102E+03
 -1.21030E+04 -8.39853E+03  4.04941E+03 -1.19147E+04  7.54905E+03 -7.07072E+03  1.31070E+04  1.43203E+03
  1.00052E+04  1.13898E+04 -1.10682E+04  7.76829E+03 -1.57549E+04  2.76771E+03 -1.75760E+04 -9.32690E+03
 -1.28067E+04 -2.59524E+04  5.40351E+03 -2.34192E+04  2.13509E+04 -1.21011E+04  1.50844E+04  4.08314E+03
  1.10946E+04  1.07208E+04  3.32298E+03  1.70539E+04 -6.57347E+03  9.80843E+03 -1.93201E+04 -3.43185E+03
 -1.14890E+04 -1.03531E+04 -4.72392E+03 -1.63034E+04  6.39247E+03 -1.12566E+04  1.01834E+04  1.16149E+03
  3.55552E+03  5.48310E+03 -5.14808E+03  1.76263E+03  3.50802E+02 -4.12083E+03 -4.79684E+03 -9.14142E+03
  8.50597E+03 -5.29375E+03  1.84808E+04 -5.43068E+02  1.42182E+04  2.04259E+04  1.90800E+04  1.87511E+04
 -5.37591E+03  3.03876E+04 -2.57367E+04  2.08399E+04 -3.33051E+04  3.12526E+03 -2.18179E+04 -1.33159E+04
 -1.38696E+04 -2.11144E+04 -2.75371E+03 -1.74712E+04  8.64188E+03 -4.95423E+03  8.74428E+03  1.18820E+03
  4.29464E+03 -7.06360E+03  1.77739E+03 -1.26977E+03  6.33419E+03  6.94208E+01  1.64648E+04 -1.09191E+03
  1.45355E+04  2.29277E+03  6.50947E+03  1.51836E+04 -9.48157E+02  1.51633E+04 -1.30319E+04  8.52674E+03
 -1.59050E+04  1.32884E+03 -5.91980E+03 -1.09215E+04 -3.40703E+03 -1.66297E+04  1.12694E+04 -2.02435E+04
  1.86645E+04 -1.00325E+04  1.98988E+04  9.38284E+03  7.82411E+03  1.78954E+04 -3.40261E+03  2.37422E+04
 -9.25374E+03  1.22724E+04 -1.57335E+04  1.50140E+04 -7.92014E+03 -2.83913E+03 -7.40626E+03 -7.90534E+03
 -2.18015E+03  3.72591E+03 -4.29402E+03  6.87827E+03 -6.08266E+03  6.94992E+03 -1.07419E+04 -6.81318E+03
 -1.06614E+04 -1.19207E+04 -6.94943E+02 -7.64317E+03  1.03607E+04 -1.53482E+04  2.46009E+04 -7.73032E+03
  1.68801E+04  7.71156E+03  8.44136E+03  1.88269E+04 -4.18434E+03  1.81971E+04 -1.44670E+04  1.27901E+04
 -9.78205E+03 -7.59206E+02 -1.05800E+04 -1.13889E+04 -6.00765E+03 -1.19958E+04  3.82728E+03 -3.87072E+03
  8.04599E+03 -3.15024E+03  8.79145E+03  6.05279E+03 -1.23693E+03  1.81233E+03 -4.62720E+03  3.22161E+02
 -4.10784E+03 -5.47134E+03 -3.67476E+03 -2.27901E+03  3.70316E+03  5.86253E+03  8.18322E+03  8.25820E+03
 -6.20089E+03  9.70169E+03 -1.20254E+04  1.51498E+04 -1.65764E+04 -1.35926E+03 -2.23778E+04 -1.52788E+04
 -1.18613E+04 -2.29010E+04  8.95817E+03 -1.71368E+04  1.51673E+04 -1.07310E+04  1.25974E+04  5.58400E+02
  1.04488E+04  7.58620E+03  7.79029E+03  7.79236E+03 -1.87015E+03  9.94539E+03 -8.54141E+03  2.73851E+03
 -9.65689E+03 -7.66184E+02  9.35518E+03 -1.52661E+04  4.93240E+03  4.45402E+01  1.04969E+04  9.77856E+03
  1.17226E+04  6.24892E+03 -2.23068E+03  5.37430E+03  3.11048E+03  4.32304E+03 -2.89049E+02  6.00292E+03
  6.49536E+03 -2.22848E+03  4.98900E+03 -5.63096E+03  3.45938E+03  1.53345E+04  1.56868E+03  1.10935E+04
 -8.88199E+03  5.43945E+03 -1.54444E+04  3.58999E+03 -6.67590E+03 -2.42860E+03 -9.26291E+03 -3.05584E+03
  1.42104E+03 -8.77701E+03  1.26718E+04 -1.36382E+03 -2.78978E+01  3.47634E+03  2.16386E+03  2.21935E+03
 -9.95473E+03  1.07641E+04 -7.32420E+03 -5.67931E+03 -8.30976E+03 -8.84823E+03  4.69652E+02 -7.69657E+03
  4.60284E+03 -8.46514E+03  7.96501E+03  9.33128E+02  8.00255E+03  7.29684E+03  1.09430E+04  6.35690E+03
 -6.34775E+03  8.78327E+02 -1.46724E+02  8.92489E+02  8.47290E+03 -5.38307E+03  1.02368E+04 -1.00274E+04
  1.30855E+04 -4.52284E+03  7.76550E+03  4.49343E+03  5.01370E+03  1.64025E+04 -9.35820E+02  1.10650E+04
 -7.01638E+03  4.53900E+03 -1.02731E+04 -5.76074E+02 -9.71108E+03 -7.80266E+03 -8.25232E+03 -7.09060E+03
  5.99488E+03 -2.81172E+03  8.39386E+03 -1.76690E+03  5.56532E+03  7.42155E+03 -5.64114E+03  7.13836E+03
 -1.61939E+03  9.02591E+03  3.53807E+03  1.86669E+02  3.08905E+03 -1.24767E+03 -4.70811E+03  5.40803E+03
 -1.72741E+02  5.62230E+03 -5.19201E+03 -5.27518E+03 -1.27069E+04 -3.71145E+02 -1.54385E+04 -7.49459E+03
 -1.13690E+04 -1.20949E+04  8.19243E+03 -1.97954E+04  1.83667E+04 -2.15078E+04  1.64938E+04 -6.74411E+03
  1.39014E+04 -1.40919E+03  1.31236E+04  1.15872E+04  4.07739E+03  1.46414E+04 -7.56497E+03  6.35206E+03
 -6.39777E+03  5.45566E+03 -5.20457E+03  6.30598E+02  5.63449E+02 -4.24421E+03 -7.04109E+03  3.03463E+03
  3.16928E+03  7.13900E+02  3.47979E+03 -2.97965E+02  4.11335E+03 -7.41872E+03  9.94485E+02 -6.42014E+03
 -3.28864E+02 -5.54024E+03  1.53881E+03  5.76807E+03  1.14864E+04  6.98349E+03  7.17399E+03  1.59046E+04
 -3.35371E+03  1.81631E+04 -1.44464E+04  4.07717E+03 -1.25331E+04 -1.47749E+03 -1.35715E+04 -7.36894E+03
 -8.37943E+03 -1.33319E+04  4.37083E+03 -7.41805E+03  8.90109E+03 -2.65776E+03  5.47986E+03  5.73969E+03
 -7.34329E+02 -3.51032E+03  3.20294E+03  9.53459E+03 -3.39712E+03  1.16375E+03 -6.90254E+03 -7.61093E+03
 -2.34343E+03 -9.38607E+03  7.31614E+03 -4.27979E+03  2.78109E+03  6.97425E+03 -5.62543E+02  1.23351E+04
 -6.40603E+03  3.01310E+03 -1.27551E+04  9.14066E+03 -7.47441E+03 -4.10455E+03 -1.04672E+03 -1.01014E+04
 -2.41803E+03 -1.10616E+04  1.66733E+04  2.46587E+03  1.20345E+04  3.93170E+03  7.16000E+03  1.16428E+04
  1.12555E+03  1.22203E+04 -6.25451E+03  9.36149E+02 -6.82413E+03  1.05257E+04 -6.69683E+03 -2.72346E+03
  4.17687E+02  2.17707E+03  1.03263E+02 -1.48428E+03 -3.45857E+03  4.94686E+03  2.29811E+03 -4.12758E+02
 -1.66292E+04  3.79015E+03 -3.83669E+03 -9.83672E+03  2.94941E+03 -8.18361E+03  7.20301E+03 -1.36035E+03
  4.80921E+03  2.53099E+03  4.53845E+03  5.61239E+03  1.68284E+03  5.46360E+03 -7.65608E+03  1.83947E+03
