 $NMID ID='MM_0lb_SNR50_18hz_g55_42.RAW', FMTDAT='(8E13.5)'
 TRAMP=1., VOLUME=1. $END
  3.09706E+05 -5.36322E+02  3.36763E+05  2.53023E+05  8.36414E+04  3.34467E+05 -1.30683E+05  2.47344E+05
 -1.93225E+05  8.03335E+04 -1.14771E+05 -3.27552E+04  6.86308E+03 -4.81443E+04  5.48132E+04  1.70649E+02
  3.18007E+04  5.13694E+04 -1.69215E+04  7.90946E+04 -6.11666E+04  6.16892E+04 -8.51122E+04  3.58891E+04
 -8.11573E+04 -1.00636E+04 -5.86396E+04 -4.85992E+04 -1.21972E+04 -7.31757E+04  2.54807E+04 -4.06980E+04
  3.78097E+04  4.70369E+03  1.28755E+04  4.71879E+04 -3.40034E+04  4.63012E+04 -6.39949E+04  1.34614E+03
 -5.07392E+04 -5.38383E+04 -3.90431E+03 -7.04657E+04  3.01110E+04 -5.32974E+04  4.47031E+04 -1.76947E+04
  4.25423E+04  1.29885E+04  3.34578E+04  2.58888E+04  1.53931E+04  2.18435E+04 -3.86507E+03  2.78559E+04
 -2.42412E+04  1.18042E+04 -1.98481E+04  7.31453E+01  8.66007E+03 -8.07156E+03  1.86462E+04  1.33208E+04
  4.41368E+03  3.43527E+04 -2.90926E+04  3.95328E+04 -6.54824E+04  5.28045E+03 -5.40923E+04 -4.24296E+04
 -1.15960E+04 -6.28512E+04  3.80424E+04 -4.66839E+04  5.56554E+04  1.64940E+03  3.05100E+04  3.32770E+04
 -7.27292E+03  3.40602E+04 -2.73506E+04  1.68836E+04 -2.50000E+04  1.97112E+03 -1.32254E+04 -1.06297E+04
 -5.37043E+03 -1.87797E+04  4.76648E+02 -1.74357E+04  6.73437E+03 -1.91829E+04  9.78214E+03 -1.93644E+04
  1.64440E+04  1.96419E+03 -9.37164E+03  1.09518E+04 -2.29235E+04 -2.49403E+03 -9.70160E+03 -3.21703E+04
  2.83533E+04 -3.85531E+04  4.72976E+04 -2.23083E+04  4.39962E+04  2.37304E+04  1.14188E+04  4.16282E+04
 -1.02593E+04  3.00994E+04 -2.15372E+04  1.28587E+03 -1.18000E+04 -2.54693E+04  2.35722E+04 -3.20229E+04
  4.03976E+04 -9.37774E+03  3.16858E+04  2.53956E+04  1.86728E+04  4.38379E+04 -1.09038E+04  4.82105E+04
 -2.76740E+04  3.63988E+04 -4.13591E+04  1.26110E+04 -3.98352E+04 -1.83592E+04 -2.26817E+04 -3.80226E+04
  6.84737E+03 -3.28825E+04  2.71459E+04 -1.32497E+04  2.60038E+04  1.07831E+04  5.45230E+02  1.66095E+04
 -1.49265E+04  8.04512E+03 -9.22026E+03 -7.00749E+03  6.59439E+03 -1.11123E+04  2.07226E+04  7.56536E+03
  1.34964E+04  1.93719E+04 -4.02406E+03  2.54510E+04 -2.09736E+04  1.00830E+04 -2.65855E+04 -3.19961E+03
 -1.64445E+04 -1.55310E+04 -6.93377E+03 -1.65764E+04  1.60925E+03 -1.93302E+04  1.15892E+04 -1.49002E+04
  2.75739E+04 -7.85278E+03  3.05702E+04  2.84125E+03  2.05215E+04  1.80075E+04  4.47276E+03  3.85512E+04
 -1.65398E+04  3.06942E+04 -2.71162E+04  1.09131E+04 -1.84224E+04 -1.17332E+04 -5.03342E+03 -1.31445E+04
  5.82302E+03 -4.18361E+03 -2.90941E+03  7.02658E+03 -1.50404E+04  1.00299E+03 -1.20003E+04 -1.12534E+04
 -1.01277E+04 -1.63794E+04  4.52806E+03 -2.14662E+04  1.23042E+04 -1.66312E+04  2.03550E+04 -2.77095E+03
  9.06825E+03  1.35724E+04 -2.45735E+03  1.62952E+04 -8.82148E+03  1.32405E+04 -1.87217E+04 -2.67472E+03
 -1.06222E+04 -1.33057E+04  9.88129E+02 -1.90016E+04  1.18114E+04 -1.30584E+04  1.68399E+04 -5.46042E+03
  1.77715E+04  1.94026E+02  1.05402E+04  6.74107E+03  6.38126E+03  2.86591E+03  1.05297E+04  1.48979E+03
  1.48992E+04  8.70337E+02  1.85005E+04  1.01282E+04  1.18086E+04  2.88221E+04  3.40213E+03  2.58381E+04
 -1.61957E+04  1.80382E+04 -2.49844E+04  1.05022E+04 -3.03707E+04 -3.52815E+03 -2.46207E+04 -1.70920E+04
 -9.93217E+03 -2.09696E+04  6.16801E+03 -2.01769E+04  1.97479E+04 -7.62233E+03  1.35307E+04  3.45299E+02
  6.72021E+03  1.24536E+04 -4.55760E+03  1.07629E+04 -1.65453E+04  7.67333E+03 -1.21767E+04 -4.22811E+03
  5.18652E+03 -1.35565E+04  4.03196E+03 -1.06443E+04  1.10274E+04 -3.64353E+03  3.42377E+02  5.14480E+03
 -7.25270E+03 -1.31099E+03 -4.39569E+03 -8.07431E+03 -1.41778E+03 -8.96022E+03  7.86293E+03 -1.59125E+04
  1.20682E+04 -7.57805E+03  1.32994E+04  3.19628E+03  8.55095E+03  8.91433E+03  3.67475E+03  1.72367E+04
 -5.84132E+02  1.58950E+04 -8.84596E+03  1.13109E+04 -1.33220E+04  2.53225E+03 -9.30943E+03 -4.81609E+03
 -6.53428E+02 -3.94451E+03 -1.11442E+03  1.61907E+03 -3.16345E+03  2.84467E+03 -4.33625E+03  1.94292E+03
 -7.88444E+03 -1.55969E+03 -1.20326E+04 -7.50446E+03 -1.07009E+04 -1.23577E+04  3.94392E+03 -8.83605E+03
  7.35304E+03  4.62815E+02  4.71867E+03  3.07539E+03  5.10359E+02  4.84038E+03 -5.48831E+03 -4.31212E+03
 -3.14780E+03 -5.61638E+03  3.61919E+03 -9.61472E+03  3.39678E+03 -6.30865E+03  1.23345E+04 -7.49019E+03
  1.33792E+04 -4.87938E+03  9.56581E+03  8.11881E+03  2.18322E+03  1.38162E+04 -7.42599E+03  9.36818E+03
 -1.02938E+04  9.90271E+02 -4.93382E+03 -3.75937E+03  8.12324E+02 -5.89374E+03  5.83372E+03  7.12919E+02
  8.86392E+03  5.94340E+03  2.35688E+03  6.62069E+03 -5.62557E+03  4.90624E+03 -7.54948E+03 -1.46855E+03
 -5.90609E+03 -4.54617E+03 -3.36013E+03 -7.79430E+03  5.07919E+03 -5.29175E+03  1.58383E+03 -3.91776E+03
 -1.62733E+03 -6.11676E+02 -5.16335E+03  7.65518E+03 -2.70173E+03  3.41180E+03 -6.26304E+03  1.79155E+03
 -3.31515E+03 -8.22903E+02  3.56739E+03 -5.12111E+03  5.20048E+03 -4.67294E+03  1.31959E+04  1.31165E+03
  2.70513E+03  5.19968E+03 -1.42993E+03  8.53324E+03 -6.36147E+03  3.27298E+03 -4.80544E+03  5.33903E+03
 -9.09909E+03 -4.38513E+03 -1.55557E+02 -6.96300E+03  2.94411E+03 -4.25490E+03  2.01547E+03 -2.60051E+03
 -5.80738E+02  9.92078E+02  1.35155E+03  1.47732E+03  1.43123E+03 -1.87419E+03 -1.44732E+03 -5.01815E+03
  3.24663E+03  8.40003E+00  8.96753E+03 -3.80655E+03  4.30098E+03  3.23798E+03  3.89864E+03  1.17299E+04
  1.15937E+03  9.48789E+03 -8.92557E+03  5.86403E+03 -8.01356E+03  5.40236E+02 -7.78217E+03 -4.11363E+03
 -6.63422E+03 -6.15180E+03 -1.23372E+03 -3.32874E+03  6.03143E+02 -1.97274E+03  1.65133E+03 -1.01409E+03
  1.64745E+03  3.02297E+03  3.94107E+03  7.46017E+02  5.95971E+03 -2.25121E+03  2.58345E+03 -7.06240E+02
  4.09468E+03  3.33238E+03 -1.60100E+03  2.72605E+03  4.80881E+02 -1.63027E+03 -2.02278E+03  9.59536E+03
 -1.19177E+03  9.38080E+02 -6.42617E+03 -2.52519E+03  4.28703E+03 -7.62987E+03  3.84662E+03 -4.92147E+03
  5.78748E+03 -2.56281E+03  8.42578E+03  3.13808E+00  2.59964E+03  1.28106E+03  3.36287E+03  1.03184E+04
 -3.72698E+03  7.83837E+03 -3.57712E+03  3.58968E+03  6.34645E+02  3.90246E+01 -3.14976E+03  9.05704E+01
  1.74498E+03  7.48624E+02 -2.92387E+03  2.69294E+03 -6.97529E+02  4.31885E+03 -3.20135E+03  1.14065E+03
 -4.68780E+03 -2.90899E+03  1.74011E+03 -7.05702E+02  3.43882E+03 -6.98227E+03  1.09373E+03 -3.37240E+03
  2.51256E+03  1.35663E+03  5.55544E+02 -1.85724E+03  2.70163E+03  4.09747E+03 -6.35774E+03  3.44207E+03
 -4.44906E+03 -1.34465E+03 -3.43823E+03 -6.02419E+03  1.02999E+03 -3.68295E+03  2.82912E+03 -2.88080E+03
  2.80508E+03  1.23374E+03  3.13216E+02  5.40355E+02 -4.60199E+03  1.36146E+03 -1.91103E+02 -3.25580E+03
  3.58088E+03  2.12194E+03 -7.68497E+01 -1.05992E+03 -1.06016E+02  1.77490E+03 -1.95801E+03  3.40541E+03
 -4.20664E+03  8.77003E+02  9.39321E+00  5.52342E+03 -2.57547E+03  1.97007E+03 -2.98615E+03 -2.00364E+03
 -4.92411E+03 -3.88146E+03  3.74752E+03 -8.79116E+03  6.37356E+03 -3.05596E+03  2.65324E+03  1.60761E+03
 -8.32913E+01  2.18827E+03 -1.44860E+03 -9.47393E+01 -1.37756E+03  1.58873E+03 -1.28318E+03  1.62241E+03
 -2.88553E+03 -1.02816E+03  1.03594E+03  1.55842E+03  3.22787E+03 -4.62424E+03 -1.87444E+03  2.43871E+03
 -1.09406E+03 -1.58911E+03  2.43298E+02  2.57625E+03 -2.16070E+03 -1.52153E+03  5.08676E+03  4.38318E+03
  4.69090E+02 -4.84107E+03  2.69242E+03 -2.50348E+03  1.44085E+03  3.85654E+03  2.01612E+03 -2.40039E+02
 -2.36223E+03  2.73318E+03 -2.95393E+03  1.96893E+03 -1.89261E+02 -2.45353E+03 -4.08998E+03  4.72610E+02
  1.71739E+03  2.40408E+03  3.54140E+02 -1.97548E+03  3.02190E+03 -3.16528E+03 -2.09926E+03  1.39097E+03
 -5.58000E+03  6.77568E+03  1.70425E+03 -1.09314E+03  3.71086E+03 -3.15693E+03  1.91181E+03 -2.18213E+02
  1.28616E+03 -3.36844E+02  3.04918E+02 -2.00959E+03 -2.19372E+03 -1.57459E+03 -3.72217E+03  9.51209E+02
  1.22297E+03 -6.57202E+02  1.77982E+03 -1.88204E+03 -3.98063E+03 -3.42358E+03  2.92309E+03 -4.75218E+03
 -7.37424E+02  2.96590E+02  9.93922E+02  3.88835E+03 -4.56877E+03  2.04817E+03  2.12526E+03  5.53043E+02
 -1.74649E+03  9.60277E+01  2.14420E+03 -1.81692E+03 -5.64097E+03  1.42703E+03 -2.02786E+03  2.20379E+03
  2.65972E+03  4.59296E+02  1.73164E+03  2.72891E+03 -2.20176E+03  3.07928E+03 -2.67212E+03  6.20003E+02
 -4.86701E+03 -1.84677E+03 -2.92086E+03 -1.21450E+03  4.10695E+02 -1.15003E+03 -4.77542E+03  3.23928E+02
  3.54094E+02 -3.54125E+02 -1.16228E+03 -3.07609E+03 -6.15143E+02  2.25544E+02 -2.01007E+03 -5.36916E+03
 -4.03479E+03 -4.36719E+03  1.47117E+03 -6.22195E+03  1.84072E+02 -2.08224E+03 -1.69638E+03 -2.01864E+03
  2.29262E+02  1.94632E+03  1.43170E+03  2.76295E+03 -2.89053E+03  4.21262E+03  1.60364E+02 -7.59289E+02
  2.09256E+02  1.78519E+03 -3.64769E+03  3.44893E+03 -1.01728E+03  3.26419E+02 -1.93773E+03 -3.33113E+03
 -3.86946E+03  2.36012E+03  6.68859E+02  8.17087E+02  2.53315E+03  2.00563E+02 -1.89276E+03  2.46007E+03
 -1.04973E+03 -1.02542E+03  2.36741E+03 -5.97515E+03 -7.73396E+02  2.14482E+02 -2.25559E+03  3.85560E+03
  3.06370E+03  2.54570E+03 -1.50631E+03  5.43021E+03 -4.95988E+03 -2.38062E+03 -8.85827E+03 -2.62805E+03
  3.45201E+03 -3.79702E+03  1.22629E+03 -5.16584E+03  3.15850E+03  5.31894E+01  3.03952E+03 -4.99685E+03
 -1.63754E+03 -3.70819E+00 -5.98786E+03 -3.55313E+03  1.36410E+03  2.92356E+03 -2.83349E+03  1.21177E+03
 -3.17738E+02 -3.07847E+03  4.09498E+03 -1.93928E+02  1.42037E+03  2.15939E+03  5.20270E+03 -6.60828E+03
 -2.55866E+03 -2.07610E+03 -2.24859E+03 -2.87252E+03 -1.43070E+03  1.05384E+02 -2.86940E+03  3.66606E+03
  5.61733E+03 -2.08529E+03 -3.63935E+03 -4.40193E+03  1.89048E+03  1.59745E+03 -5.83439E+03 -2.12484E+03
  3.48965E+03  9.65932E+02  3.35460E+03  2.82062E+03  3.85860E+03 -1.85242E+03  4.90073E+02  2.94670E+03
 -2.91734E+03 -4.26923E+02  1.56644E+03  3.56279E+03  7.16132E+02 -1.11164E+03  3.56921E+02 -7.79775E+02
  3.66999E+03  1.62649E+03 -8.83948E+02 -6.83364E+03  1.76304E+03 -2.73875E+03  3.04331E+02  1.22206E+03
  5.35234E+03  3.42003E+02  4.93723E+02 -7.97904E+02  4.92604E+03 -1.74715E+03 -5.49125E+03 -1.81640E+03
