 $NMID ID='MM_0lb_SNR50_12hz_g45_80.RAW', FMTDAT='(8E13.5)'
 TRAMP=1., VOLUME=1. $END
  3.04200E+05  1.35643E+03  3.39519E+05  2.49965E+05  8.34995E+04  3.45757E+05 -1.32134E+05  2.50251E+05
 -1.91713E+05  8.39021E+04 -1.06289E+05 -3.12321E+04  3.30032E+02 -5.15581E+04  5.49238E+04  1.88395E+03
  3.88115E+04  5.06234E+04 -1.81485E+04  7.54547E+04 -6.13975E+04  6.37924E+04 -8.29265E+04  3.04938E+04
 -7.98110E+04 -1.47938E+04 -5.08407E+04 -5.17154E+04 -1.50484E+04 -7.07310E+04  2.28771E+04 -4.56339E+04
  3.93442E+04  3.12762E+03  1.70652E+04  4.98203E+04 -3.06677E+04  4.69478E+04 -6.49109E+04  3.40309E+03
 -5.81248E+04 -5.64206E+04 -8.19509E+03 -7.47600E+04  3.35258E+04 -5.31820E+04  4.83645E+04 -1.58331E+04
  4.42851E+04  8.47802E+03  3.36204E+04  2.89565E+04  1.70172E+04  2.72497E+04 -5.01968E+03  2.98883E+04
 -2.24287E+04  1.42412E+04 -1.44946E+04 -3.93227E+03  9.13260E+01 -8.90079E+03  2.21515E+04  9.76692E+03
  7.81690E+03  3.76107E+04 -2.61581E+04  3.58012E+04 -6.47382E+04  5.31474E+03 -6.22203E+04 -4.60433E+04
 -1.04117E+04 -6.26844E+04  3.84872E+04 -4.80132E+04  5.77285E+04 -6.41748E+03  3.88691E+04  3.00071E+04
 -3.24887E+03  3.68341E+04 -2.84809E+04  1.76547E+04 -3.43946E+04 -6.54978E+03 -1.82235E+04 -9.67763E+03
 -5.02824E+03 -1.62679E+04 -5.12055E+02 -1.71399E+04  9.52400E+03 -2.60957E+04  1.25566E+04 -1.39116E+04
  8.68885E+03  1.46988E+03 -6.60467E+03  1.33475E+04 -2.37064E+04 -5.77631E+03 -1.28233E+04 -3.12293E+04
  2.62614E+04 -4.15519E+04  4.99100E+04 -1.95090E+04  4.21226E+04  1.48007E+04  1.97969E+04  4.80392E+04
 -1.00871E+04  4.14084E+04 -2.77698E+04  6.13118E+03 -7.97965E+03 -2.67209E+04  2.03061E+04 -3.39000E+04
  4.31453E+04 -1.26785E+04  3.19781E+04  2.65601E+04  1.57304E+04  4.78104E+04 -6.86612E+03  5.04031E+04
 -3.06035E+04  3.05617E+04 -4.14835E+04  1.23777E+04 -4.34613E+04 -1.55889E+04 -2.00290E+04 -3.55534E+04
  9.83141E+03 -4.22616E+04  3.45890E+04 -1.89538E+04  2.83423E+04  1.68277E+04  6.04893E+03  2.21333E+04
 -9.31675E+03  1.28814E+04 -1.23033E+04 -1.86939E+03  7.48627E+03 -8.56292E+03  1.74726E+04  5.46262E+03
  1.18840E+04  1.98240E+04 -1.04581E+04  2.60854E+04 -1.98749E+04  1.16961E+04 -2.78423E+04 -1.25372E+03
 -1.84411E+04 -2.05991E+04 -1.33765E+04 -2.30971E+04  3.67971E+03 -2.08166E+04  1.70576E+04 -1.58964E+04
  2.55354E+04 -1.92927E+04  3.70457E+04  3.13563E+01  3.00993E+04  2.24779E+04  4.32079E+03  4.34406E+04
 -1.66475E+04  3.08985E+04 -2.91837E+04  9.00985E+03 -1.88953E+04 -1.29803E+04 -3.40217E+03 -1.36251E+04
  6.59784E+03 -5.40763E+03 -8.57779E+03  9.45333E+03 -1.68931E+04 -6.92516E+02 -2.10176E+04 -8.84558E+03
 -1.17924E+04 -2.52312E+04  1.07481E+04 -2.53825E+04  1.58829E+04 -1.76342E+04  2.12913E+04  4.42213E+03
  9.44907E+03  1.50548E+04  1.43042E+03  1.91156E+04 -1.49199E+04  1.75564E+04 -2.15596E+04  2.53591E+01
 -1.84028E+04 -1.24525E+04 -2.54360E+03 -2.51822E+04  1.28207E+04 -1.88966E+04  1.61544E+04 -6.16301E+03
  1.73594E+04 -7.69301E+01  1.28947E+04  5.93316E+03  7.76653E+03  3.46467E+03  1.36063E+04  1.04064E+03
  1.91848E+04  2.20545E+03  1.69907E+04  1.09777E+04  1.15842E+04  3.63517E+04 -4.42673E+03  3.58082E+04
 -2.59638E+04  3.13677E+04 -3.26036E+04  2.07273E+04 -3.97792E+04  1.26209E+03 -2.98028E+04 -2.39346E+04
 -1.01696E+04 -2.96122E+04  5.46076E+03 -2.49152E+04  2.05117E+04 -1.22831E+04  2.28555E+04  7.19734E+03
  9.21422E+03  1.35138E+04 -1.10366E+04  1.73553E+04 -1.72436E+04  9.89682E+02 -1.38418E+04 -1.16829E+04
  4.68522E+03 -1.87890E+04  7.40008E+03 -1.27531E+04  6.82888E+03  1.96047E+03  4.57306E+03  7.29213E+03
 -1.22131E+04  1.96839E+03 -3.78241E+03 -1.02577E+04 -1.67737E+02 -1.54223E+04  1.33017E+04 -1.86741E+04
  1.56145E+04 -1.07839E+04  1.93339E+04  3.64586E+03  1.58030E+04  1.38901E+04  1.28447E+04  2.20344E+04
 -6.71905E+03  1.97563E+04 -2.24910E+04  1.74162E+04 -1.51351E+04  4.67263E+03 -1.21767E+04 -3.43965E+03
 -1.89089E+02 -8.40248E+03 -2.57001E+03 -6.91951E+03 -4.91781E+03  5.43873E+03 -5.86487E+03  5.48289E+03
 -5.29157E+03  7.58857E+02 -1.29898E+04 -5.23991E+03 -5.69402E+03 -1.73507E+04  8.78176E+03 -1.67814E+04
  1.41307E+04 -6.85535E+03  5.64853E+03  6.48961E+02  2.48450E+03  3.97213E+03 -6.09501E+03  1.20229E+03
 -2.75271E+03 -1.14584E+04  8.29858E+02 -1.52254E+04  4.50586E+03 -1.21214E+04  1.30866E+04 -4.79586E+03
  1.18227E+04  2.59773E+03  1.06738E+04  1.04469E+04  3.71551E+03  1.29863E+04 -2.34977E+03  1.92940E+04
 -1.19076E+04  1.30656E+03 -1.51826E+03 -5.66511E+03 -2.36694E+03 -1.15963E+03  7.03618E+03  5.02299E+03
  3.65994E+03  5.32656E+03  3.31778E+03  1.07812E+04 -1.63435E+03  5.75340E+03 -5.73543E+03  8.87855E+02
 -1.08086E+04 -3.77077E+03 -4.64900E+02 -1.18776E+04  1.21201E+04 -7.36612E+03  8.73544E+03  2.73552E+03
  2.64779E+03  6.49293E+03 -4.38869E+03  7.59245E+03 -1.10118E+04  1.20865E+02 -1.45308E+04 -9.68724E+03
 -7.43676E+03 -1.23021E+04  7.63875E+03 -1.60993E+04  1.48932E+04 -5.26786E+03  9.87920E+03  1.96623E+03
  6.71543E+03  7.34041E+03 -3.64412E+03  1.45579E+04 -1.15749E+04  1.90003E+03 -1.23057E+04 -9.53564E+02
 -1.61975E+04 -7.82241E+03 -6.18127E+03 -8.77534E+03  3.51669E+03 -7.56415E+03  9.35259E+03 -3.42875E+03
  9.27879E+02  1.66185E+03 -3.33152E+03 -1.70660E+02  2.98394E+03 -2.61124E+03  2.98984E+03 -6.57626E+03
  5.50204E+03  9.35398E+02  9.74127E+03 -1.61770E+03  1.15638E+04  7.21349E+03  1.27291E+04  1.57974E+04
 -3.48642E+03  1.69005E+04 -1.52582E+04  1.20664E+04 -2.09652E+04  1.10634E+03 -1.40047E+04 -7.47177E+03
 -3.25034E+03 -1.36586E+04 -7.35480E+02 -1.25347E+04  5.13364E+02 -7.33028E+03  4.91827E+03 -3.94815E+03
  2.06481E+02  1.60505E+02  3.22424E+03 -1.41480E+03 -3.88223E+03 -2.05956E+03  1.09805E+04  4.33043E+03
  8.17245E+03 -3.41964E+03  2.04649E+03  8.21238E+03 -5.00643E+02  5.74784E+03 -8.62587E+03  2.29999E+03
 -1.32986E+04 -7.55477E+03 -4.70454E+03 -8.30858E+03 -1.78515E+03 -1.15049E+04  8.24715E+03 -1.07893E+04
  1.02781E+04 -6.47006E+03  1.01447E+04 -4.66325E+02  9.14526E+03  1.30301E+04  8.71536E+02  1.53170E+04
 -1.37896E+03  1.16129E+04 -6.35901E+03  5.74241E+03 -7.34262E+02 -2.89475E+03 -3.06996E+03 -6.05069E+02
 -7.33134E+02  7.75984E+03 -2.44021E+03 -2.84535E+03 -1.69972E+03  8.39010E+02 -3.41114E+03  2.32367E+03
 -8.31932E+03 -4.09762E+03  1.57675E+03 -1.23110E+04  5.47061E+03 -9.46255E+03  1.44864E+04 -3.13186E+03
  1.09596E+04  7.77880E+03  5.16816E+03  1.36048E+04  8.72879E+01  9.38060E+03 -9.21462E+03  4.00398E+03
 -8.56433E+03 -6.24490E+02 -8.14982E+03 -4.09981E+03  5.24763E+02 -1.01289E+04  7.20682E+03 -5.18281E+03
  6.39914E+03 -5.05428E+02  4.41042E+03  3.54699E+02  5.04550E+03  8.21046E+03  2.17885E+03  3.74575E+03
  1.58034E+03  3.19039E+02  4.79963E+03  2.99135E+03  6.09606E+03  7.06278E+03 -1.82333E+03  4.94336E+03
 -2.69756E+03  8.38342E+03 -6.20495E+03  7.85672E+03 -6.62815E+03  5.30152E+03 -1.50192E+04 -6.08267E+03
 -9.22394E+03 -1.20240E+04  3.89524E+02 -7.75715E+03  1.36338E+04 -3.19400E+03 -8.15939E+02 -5.53484E+03
  7.01647E+03  3.51823E+03  1.36762E+03  4.40233E+03 -4.01631E+03  2.74713E+03 -4.00468E+03  3.50627E+03
 -2.92802E+03 -8.04448E+03  2.42873E+03 -2.29409E+03 -2.81052E+01 -5.03534E+03 -3.29706E+02 -1.24578E+03
  3.83906E+03  7.69853E+01  1.89767E+03 -8.88179E+02 -6.54211E+03  3.91413E+03  3.20070E+03  9.23484E+02
  2.67023E+03  3.79134E+03  6.21783E+03  8.71229E+02  3.27275E+03  1.39584E+03 -1.18174E+03  8.34251E+03
 -7.63270E+02  3.03036E+03 -4.39438E+03 -1.43344E+03 -3.91024E+03 -2.44143E+03 -5.32591E+03 -5.23599E+03
  3.30483E+03 -6.18040E+03  1.89961E+03  8.59319E+02  1.49249E+03 -2.10266E+03  1.83208E+03 -1.84298E+02
 -3.91394E+03 -7.59530E+02 -3.12880E+03 -5.98293E+03 -1.78292E+03 -7.08699E+03  1.90215E+03 -9.03650E+03
  3.24251E+03 -4.37594E+03 -2.46191E+03  2.64585E+03 -3.27381E+02  3.50830E+03  1.17698E+03  3.09854E+03
  1.62977E+03 -4.53908E+02 -2.53393E+03 -1.03907E+03  4.84212E+03 -2.07827E+03  5.75571E+03 -6.31627E+03
  5.74234E+03  2.83639E+03  4.37911E+03  1.39450E+03  5.26218E+03  9.63585E+02 -1.78353E+03  3.35791E+03
 -7.99077E+03 -5.31632E+01 -9.52912E+01  3.34085E+03 -1.92406E+03 -3.89349E+03 -4.84758E+03 -5.41314E+03
  5.98118E+03 -1.80381E+03  6.33724E+03 -1.47290E+03 -4.58871E+03  3.20162E+02 -3.39503E+03  3.02047E+03
  8.35011E+02  2.90105E+03 -1.22460E+03 -3.58934E+03 -1.50511E+03  2.66597E+03  1.79893E+03 -2.46607E+03
 -1.45590E+02  2.69437E+03 -1.58866E+03  4.69414E+02 -5.70223E+03  9.03633E+02 -8.34693E+03 -7.00415E+03
 -3.34448E+03 -8.93630E+03  3.39274E+03 -1.34709E+04 -1.15461E+03 -4.25663E+03  6.52168E+03 -3.23017E+03
  6.96617E+03  4.07545E+03  5.89606E+03  6.77264E+03  5.59231E+03  5.80814E+03 -6.27562E+02  4.93782E+03
 -1.75289E+03  4.92901E+03 -8.93445E+01  3.99084E+03  1.76506E+03  2.86198E+03 -3.28113E+03 -7.28505E+02
 -1.54632E+03  6.12300E+03 -2.94597E+03  2.12853E+03 -6.79406E+02 -2.48784E+03  3.33202E+03 -9.84819E+02
  4.80103E+03 -8.31206E+03  6.81089E+03 -1.01718E+01  2.29590E+03  4.53432E+03  4.64621E+03  4.69495E+03
 -4.76095E+03  6.54919E+03 -6.85714E+03  6.14927E+03 -5.63898E+03 -2.75098E+03 -7.53049E+03 -5.59909E+03
 -4.82047E+03 -7.06011E+03  1.52936E+03 -5.00454E+03  7.64764E+03 -5.94843E+03 -4.33839E+02  3.12926E+03
 -9.47441E+02  2.38480E+03 -3.84707E+03  3.31246E+03 -5.72174E+03 -3.61535E+03  2.91301E+03  9.32088E+02
 -2.14214E+03  3.73167E+03 -2.88281E+03 -3.86314E+03 -5.84889E+03  3.98978E+03 -4.96371E+03  4.59279E+03
 -7.76314E+03  8.32815E+02 -5.30481E+03 -6.32186E+03  1.40125E+03 -2.97698E+03 -1.05349E+03 -5.32811E+03
  3.55865E+03 -8.71705E+03  4.92702E+03 -2.38377E+02  2.08760E+03 -2.11770E+03 -1.00058E+03  3.41326E+03
 -6.58111E+03  2.89577E+03 -3.31364E+03  3.02583E+03 -8.13231E+03 -1.21291E+03 -5.04685E+02  2.83566E+02
 -2.81638E+03  1.01584E+03 -6.64745E+03 -2.04229E+03 -5.89476E+03 -1.22494E+03 -3.41769E+03 -5.15676E+02
 -6.91068E+03 -1.81567E+03 -6.25761E+02 -2.65378E+03  3.88901E+03 -5.42187E+03  4.67374E+03 -5.72277E+03
  3.68673E+02  4.09840E+03  6.20617E+03 -1.29296E+03  4.63404E+02  2.84089E+03 -4.50433E+02  1.99657E+03
