 $NMID ID='MM_0lb_SNR50_10hz_g50_80.RAW', FMTDAT='(8E13.5)'
 TRAMP=1., VOLUME=1. $END
  3.11904E+05  5.18064E+03  3.37800E+05  2.47910E+05  8.75811E+04  3.33684E+05 -1.34118E+05  2.49348E+05
 -1.93461E+05  8.78344E+04 -1.07838E+05 -2.90588E+04  1.74593E+03 -5.36583E+04  5.59468E+04 -7.28398E+02
  3.67129E+04  5.37067E+04 -2.27336E+04  7.75309E+04 -6.13503E+04  6.18235E+04 -8.52021E+04  3.04213E+04
 -7.59415E+04 -8.46024E+03 -5.67501E+04 -5.07128E+04 -1.09559E+04 -7.23025E+04  2.66273E+04 -4.85110E+04
  3.87925E+04 -3.57668E+02  2.08287E+04  4.49486E+04 -3.65634E+04  5.30232E+04 -6.45494E+04 -1.70702E+03
 -5.04534E+04 -5.94734E+04 -1.01059E+04 -7.10148E+04  3.73130E+04 -5.73281E+04  4.25710E+04 -1.59364E+04
  4.39900E+04  1.34260E+04  3.68078E+04  2.75807E+04  1.81673E+04  3.07725E+04 -7.70995E+03  3.06612E+04
 -2.37879E+04  1.63797E+04 -1.94975E+04  1.01503E+03  6.97060E+03 -1.05741E+04  2.42857E+04  1.23836E+04
  4.24598E+03  3.59335E+04 -3.43617E+04  3.90603E+04 -7.22954E+04  1.84069E+03 -5.93057E+04 -4.20198E+04
 -1.78173E+04 -6.02801E+04  3.80584E+04 -5.06329E+04  6.08937E+04  3.56827E+03  3.46017E+04  3.47482E+04
 -4.63973E+03  4.35460E+04 -3.35028E+04  1.37998E+04 -2.95576E+04 -1.02159E+03 -1.64225E+04 -1.19567E+04
 -1.04908E+04 -9.99762E+03  7.93080E+02 -1.61334E+04  6.79985E+03 -2.40358E+04  1.59475E+04 -1.33686E+04
  9.86345E+03  9.51751E+03 -1.21205E+04  1.21162E+04 -2.39460E+04 -6.74171E+03 -6.14166E+03 -3.71192E+04
  2.59761E+04 -5.16954E+04  4.71548E+04 -2.24885E+04  4.98842E+04  1.76997E+04  1.56076E+04  4.73130E+04
 -2.00077E+04  3.72053E+04 -2.66867E+04  9.06459E+03 -1.66836E+04 -3.03699E+04  2.06455E+04 -3.10737E+04
  4.43362E+04 -2.68779E+03  4.07555E+04  2.19165E+04  2.16413E+04  4.97628E+04  3.02134E+01  5.18520E+04
 -2.66709E+04  3.77201E+04 -4.36509E+04  1.00354E+04 -4.60954E+04 -1.66237E+04 -1.95897E+04 -4.16085E+04
  6.32934E+03 -3.25041E+04  3.16916E+04 -1.10675E+04  3.68526E+04  6.65611E+03  1.51106E+03  1.69005E+04
 -8.68878E+03  1.69769E+04 -1.21396E+04 -6.22280E+03  6.06371E+03 -1.09463E+04  1.87367E+04  4.98110E+03
  1.74165E+04  2.71722E+04 -9.17676E+02  2.08187E+04 -1.97764E+04  1.23066E+04 -3.65752E+04 -4.53196E+03
 -2.63563E+04 -8.67252E+03 -7.54252E+03 -2.45490E+04 -3.02900E+02 -2.29558E+04  1.84660E+04 -2.01477E+04
  3.55284E+04 -8.67060E+03  3.43036E+04  4.81611E+03  2.61137E+04  2.16835E+04  6.27941E+03  4.30378E+04
 -1.51299E+04  3.96403E+04 -3.08265E+04  1.16885E+04 -2.43298E+04 -1.68775E+04 -7.88912E+03 -1.20180E+04
  8.63846E+03  3.82859E+03 -9.87521E+03  1.06524E+04 -1.55433E+04  2.99982E+03 -1.96019E+04 -1.38655E+04
 -1.28072E+04 -1.69113E+04  6.29583E+03 -2.71298E+04  1.78390E+04 -1.74910E+04  2.78725E+04 -7.67658E+03
  1.27792E+04  1.82772E+04 -6.36938E+02  2.44804E+04 -1.39179E+04  8.88816E+03 -2.54802E+04 -9.15418E+03
 -1.46062E+04 -2.00599E+04 -7.11596E+02 -2.38928E+04  1.15273E+04 -2.16240E+04  2.30197E+04 -6.36798E+03
  2.22719E+04 -3.50282E+02  1.36065E+04  7.19962E+03  8.10108E+03  2.18858E+03  9.21022E+03 -1.86395E+03
  2.09948E+04  2.58483E+03  3.10411E+04  1.38438E+04  1.93438E+04  3.67031E+04 -7.14803E+03  4.18727E+04
 -2.46463E+04  4.03713E+04 -4.69175E+04  1.33314E+04 -3.93131E+04 -3.11269E+03 -4.11398E+04 -2.11748E+04
 -1.08013E+04 -3.25368E+04  1.16706E+04 -3.25998E+04  2.53896E+04 -1.07557E+04  2.05037E+04  8.52044E+03
  3.72978E+03  1.01505E+04 -1.64330E+04  1.29358E+04 -1.77630E+04  1.14371E+03 -1.67054E+04 -1.10420E+04
 -3.26732E+03 -1.91884E+04  1.01355E+04 -1.34483E+04  1.00163E+04 -1.63728E+02  3.02697E+03 -9.89135E+02
 -6.12885E+03  2.39248E+03 -1.05730E+04 -8.58112E+03  5.25780E+02 -1.72762E+04  4.33384E+03 -1.83006E+04
  2.44499E+04 -9.29988E+03  2.44256E+04  4.78333E+03  1.73403E+04  1.62140E+04  1.49689E+04  2.79280E+04
 -6.58617E+03  2.76997E+04 -1.76666E+04  1.87891E+04 -2.31365E+04  2.17921E+03 -1.61316E+04 -6.32466E+03
 -8.94547E+03 -4.67580E+03  1.30827E+03 -2.07563E+02  2.59560E+03  6.57940E+03  2.06796E+03  2.78448E+03
 -1.12651E+04 -3.91618E+03 -1.34640E+04 -1.16596E+04 -5.34907E+03 -1.69248E+04  8.36303E+03 -1.28485E+04
  7.54644E+03 -2.87141E+03  7.79375E+03  5.40246E+03 -3.46959E+02  4.59150E+03 -7.67283E+03  2.12742E+02
 -3.97218E+03 -1.15229E+04 -8.21122E+02 -1.43313E+04  9.97694E+03 -1.01065E+04  1.49707E+04 -1.34347E+04
  2.24169E+04  3.14593E+03  1.93054E+04  1.41233E+04 -3.66192E+03  1.94338E+04 -1.24977E+04  1.72901E+04
 -1.03669E+04 -5.25533E+02 -2.82114E+03 -7.59168E+03  3.73294E+03 -2.06083E+03  3.40333E+03  2.20763E+02
  3.70634E+03  9.21501E+03 -1.51180E+03  2.10669E+04 -5.02927E+03  1.41410E+04 -1.06602E+04 -6.24933E+02
 -1.16938E+04 -5.37539E+03 -3.98683E+03 -1.58479E+04  1.01089E+04 -7.38212E+03  4.87628E+03  5.13420E+03
  7.21523E+03  3.96848E+03 -1.37620E+04  1.34940E+04 -8.24928E+03  7.93169E+03 -1.32043E+04 -5.99753E+03
 -8.03079E+03 -1.20168E+04  1.91476E+03 -1.68386E+04  1.40825E+04 -8.49587E+03  1.26235E+04 -2.11780E+03
  1.05832E+04  1.43249E+04  1.21460E+03  1.19844E+04 -1.06533E+04  8.27693E+03 -7.70169E+03 -6.93365E+03
 -1.18180E+04 -8.08612E+03  5.73803E+03 -7.23783E+03  6.74052E+03 -1.00072E+04  9.48539E+03 -2.90689E+03
  3.20646E+03  6.07160E+03  1.16675E+03  2.51947E+03  1.96877E+03 -8.91251E+02  3.59291E+03 -5.21530E+03
  1.41822E+04 -3.92851E+03  1.58833E+04  4.50068E+03  1.08121E+04  8.03307E+03  6.92858E+03  2.00809E+04
 -3.67268E+03  2.54046E+04 -2.21064E+04  8.25972E+03 -3.06736E+04 -3.25150E+02 -1.88434E+04 -8.43292E+03
 -7.09761E+03 -1.67833E+04 -2.15305E+03 -1.49486E+04  2.82020E+03 -1.07945E+04  8.37078E+02 -7.62005E+03
  8.02792E+03 -8.30191E+03  1.19622E+04 -4.55599E+03  5.03834E+03  2.30902E+02  5.72962E+03 -8.39110E+03
  8.92897E+03  4.03149E+03  2.30874E+03  3.07771E+03 -7.13538E+03  1.49005E+04 -7.66079E+03  9.96992E+03
 -1.39353E+04 -3.40480E+03 -7.20972E+03 -7.97339E+03 -3.74561E+03 -1.73409E+04  1.25549E+04 -1.03286E+04
  1.44438E+04 -8.85346E+03  1.77102E+04  3.22130E+03  1.12763E+04  1.17123E+04  6.52109E+03  2.07335E+04
 -6.44812E+03  1.09846E+04 -7.97439E+03  5.72034E+03 -7.06757E+03 -4.62148E+02 -2.17606E+03  1.43343E+03
  2.53419E+02  1.17136E+03  3.43816E+03 -1.24265E+03 -3.24268E+03  3.07800E+03 -1.55020E+04  3.16415E+03
 -1.31277E+04 -1.02175E+04  6.44141E+02 -1.64509E+04  8.27304E+03 -1.00248E+04  1.54246E+04  8.50918E+02
  1.09446E+04  9.21506E+03  1.03952E+04  1.24077E+04 -1.72526E+03  8.50620E+03 -1.36625E+04 -1.79619E+03
 -1.03039E+04  2.09351E+03 -1.01012E+04 -1.17226E+04 -5.96728E+03 -9.14276E+03  2.44531E+03 -9.10647E+03
  1.08533E+04 -9.32990E+02  6.75482E+03 -3.68784E+01 -5.41565E+02 -1.66678E+02  1.60866E+03 -1.50246E+03
 -8.43968E+02 -1.09932E+03  3.00500E+03  3.07377E+03  1.22435E+04  4.42308E+03  7.31816E+03  8.61984E+03
 -8.65381E+03  1.26258E+04 -1.32252E+04  1.13907E+04 -1.43132E+04  6.09525E+03 -3.72985E+03 -1.45567E+03
 -6.97509E+03 -1.42822E+04  5.47572E+03 -9.42745E+03  5.26939E+03 -1.15159E+04  1.30770E+04 -3.42182E+03
  1.24657E+04  6.91155E+03 -4.21413E+03  9.30565E+03 -4.89154E+03  3.83885E+03 -9.71348E+03  1.59752E+03
 -2.08640E+03  7.37873E+02  7.49472E+02 -5.44679E+03  4.49403E+03 -4.04670E+03  8.40041E+03 -2.84810E+03
 -1.09297E+03  7.25978E+02 -1.34978E+03 -4.46019E+03  1.66577E+03  2.42562E+03  4.29005E+03  2.47071E+03
  8.54806E+02  1.53978E+03  1.07297E+04  3.18017E+03  1.26785E+03  1.37045E+04  1.10513E+03  1.04008E+04
 -1.07832E+04  5.86350E+03 -1.22543E+04  3.89759E+03 -5.17663E+03 -3.00257E+03 -1.92860E+03 -5.42958E+03
  4.73240E+02 -3.51291E+03  2.52192E+03 -1.42393E+03  3.25050E+03  5.06295E+03 -3.48233E+03  4.66302E+03
 -3.14189E+03  3.17455E+03 -4.30490E+03  3.57469E+03 -2.45081E+03 -9.50450E+03 -1.21764E+03 -3.74544E+03
  6.69842E+03 -1.31983E+04  5.93996E+03 -4.18961E+03  3.78155E+03  4.23263E+03  2.64528E+03  6.14053E+03
 -1.10443E+03  2.42397E+03 -6.55065E+03 -4.36520E+03 -2.55879E+03  5.81135E+02  3.42846E+03 -4.81483E+03
  8.13647E+03  4.88358E+03  7.19446E+03  4.42057E+03  4.40147E+03  1.03122E+04 -3.03143E+03  1.05777E+04
 -4.96732E+03  4.61019E+03 -6.05191E+03 -1.59647E+03 -2.90171E+03 -6.70593E+03  2.17354E+03 -2.62852E+03
  1.24521E+04 -3.73392E+03  3.07616E+02  3.40191E+03 -2.07240E+02  1.05177E+04 -4.39895E+03  7.63702E+03
 -7.73079E+03  3.49117E+03 -2.37401E+03  3.53765E+03  1.38651E+03  1.96979E+03  3.46953E+02  7.61580E+02
 -9.37921E+02 -6.38114E+02 -4.29119E+03  4.75779E+03 -6.24149E+03  9.88257E+02 -3.89920E+03 -8.27446E+03
 -3.80267E+03 -1.01552E+04  2.04223E+03 -9.92225E+03  1.10930E+04 -7.27605E+03  1.71982E+04 -5.31736E+03
  1.39266E+04 -5.25774E+03  8.83939E+03  1.13669E+04 -6.26187E+02  4.50669E+03  2.25605E+03  9.63652E+03
  1.42117E+03  1.84087E+03 -1.97790E+03 -2.15566E+03 -6.07622E+02  5.41389E+03 -1.07199E+04  4.74304E+03
 -6.95780E+03  2.25558E+03 -2.50121E+03 -1.15154E+03  1.00167E+03 -8.55640E+02  3.13249E+03 -2.67581E+03
  1.47045E+03 -6.42485E+03  8.06837E+03 -2.28795E+03  4.92264E+03  4.21985E+03 -2.47523E+02  1.19556E+04
  2.48002E+02  9.15361E+03 -8.95802E+03  9.86689E+03 -8.61690E+03 -5.13618E+03 -6.66907E+03 -6.15768E+03
 -1.23730E+03 -1.18947E+04  3.01907E+03 -8.25959E+03  7.29638E+02 -3.31005E+03  1.13057E+04  2.97149E+03
 -4.94563E+03 -4.08824E+03 -4.82887E+03  6.61277E+03 -3.99209E+03 -5.28583E+03  7.79204E+02 -3.05955E+03
  1.09748E+04  4.46372E+03  6.69460E+03  1.14537E+03  1.17829E+03  9.01006E+03  1.56343E+03 -5.35223E+03
 -7.87682E+03 -3.82048E+01 -2.81277E+03  3.45140E+03 -9.76328E+03 -6.25853E+03  8.85282E+02 -7.34951E+03
  3.52877E+03 -6.20952E+03  7.95758E+03  2.26430E+03  4.90181E+03  1.67180E+03  5.72724E+03  5.85721E+03
 -1.07117E+03  3.86473E+03 -2.74079E+03  5.12461E+03 -5.09315E+03  1.94732E+03 -1.05350E+03  3.50463E+03
  1.33214E+03  2.30937E+03  3.60413E+03  1.45303E+03 -2.44810E+03 -2.14485E+03 -4.88372E+03 -3.03987E+03
 -6.32127E+03  1.56513E+03  1.71286E+03 -5.52954E+03  7.11934E+03 -8.04344E+03  6.64907E+03 -7.37240E+03
  2.25854E+03  2.52707E+03  4.38829E+03  1.47471E+03  3.34055E+03  5.50042E+03 -4.17556E+03  2.24796E+03
