 $NMID ID='MM_0lb_SNR50_15hz_g50_78.RAW', FMTDAT='(8E13.5)'
 TRAMP=1., VOLUME=1. $END
  3.12964E+05 -1.01343E+03  3.39440E+05  2.52695E+05  8.36548E+04  3.36432E+05 -1.34887E+05  2.45879E+05
 -1.92019E+05  8.27465E+04 -1.09172E+05 -3.07366E+04  9.33006E+02 -5.13964E+04  5.47212E+04  2.16035E+03
  3.58138E+04  5.46974E+04 -1.72474E+04  7.80504E+04 -5.63979E+04  5.77126E+04 -8.48670E+04  3.23147E+04
 -7.54271E+04 -1.09766E+04 -5.90907E+04 -5.16895E+04 -1.18244E+04 -6.86939E+04  2.86481E+04 -4.45655E+04
  4.28314E+04  7.88425E+03  1.09887E+04  5.21817E+04 -3.27218E+04  4.63560E+04 -6.54459E+04  1.70966E+03
 -5.44897E+04 -5.72625E+04 -6.68531E+03 -7.58504E+04  3.23347E+04 -5.38256E+04  4.99579E+04 -1.48093E+04
  4.41252E+04  1.47349E+04  3.29501E+04  2.41368E+04  1.45624E+04  2.76947E+04 -8.79808E+03  2.47379E+04
 -2.44230E+04  1.12327E+04 -2.04160E+04 -4.19193E+03  4.43965E+03 -5.50596E+03  2.38326E+04  1.01265E+04
  1.02491E+04  3.77741E+04 -3.04005E+04  3.42267E+04 -6.15146E+04  2.89899E+03 -5.33848E+04 -4.54832E+04
 -1.00282E+04 -6.17133E+04  3.86627E+04 -4.47590E+04  5.52854E+04 -3.24142E+03  3.44760E+04  2.84763E+04
 -7.92378E+03  3.69284E+04 -3.24964E+04  1.52273E+04 -3.25450E+04 -4.77660E+03 -2.13262E+04 -1.20886E+04
 -8.05522E+03 -1.35497E+04 -4.48563E+03 -1.51444E+04  5.75710E+03 -2.39926E+04  1.05961E+04 -1.62106E+04
  1.40656E+04  3.23724E+03 -7.89491E+03  9.57996E+03 -1.96885E+04 -4.19622E+03 -1.11979E+04 -3.05501E+04
  2.74025E+04 -4.11701E+04  5.08697E+04 -2.34245E+04  4.69932E+04  2.34788E+04  1.68110E+04  5.10697E+04
 -1.84920E+04  3.13287E+04 -2.09474E+04  4.19854E+03 -1.33089E+04 -2.72951E+04  2.26768E+04 -3.27182E+04
  4.20491E+04 -1.20037E+04  3.10112E+04  2.51431E+04  1.82915E+04  4.60931E+04 -9.41242E+03  5.03312E+04
 -3.13397E+04  3.30915E+04 -4.00401E+04  1.06442E+04 -4.15225E+04 -1.26614E+04 -1.75710E+04 -3.79383E+04
  9.99354E+03 -3.96253E+04  2.64695E+04 -1.64184E+04  3.04750E+04  1.01684E+04  7.69499E+03  1.69729E+04
 -1.20681E+04  5.97896E+03 -1.04349E+04 -9.42536E+03  5.15272E+03 -6.70775E+03  2.33498E+04  7.38780E+03
  8.54317E+03  2.38118E+04 -6.04171E+03  2.36141E+04 -2.01233E+04  1.54097E+04 -2.62412E+04 -5.07225E+03
 -1.44603E+04 -1.84613E+04 -7.18801E+03 -2.09991E+04  3.18635E+03 -1.78295E+04  1.11895E+04 -1.46193E+04
  2.71501E+04 -1.02375E+04  3.25627E+04  1.80198E+03  2.60807E+04  2.06160E+04  1.89837E+03  3.15558E+04
 -1.92158E+04  2.66774E+04 -2.43787E+04  1.35253E+04 -2.44182E+04 -9.76854E+03 -2.99337E+03 -1.40057E+04
  6.13743E+02 -3.73020E+03 -8.24910E+03  1.26618E+04 -1.74840E+04  8.75317E+03 -1.68539E+04 -2.74917E+03
 -1.10730E+04 -1.95655E+04  4.56923E+03 -2.64460E+04  1.81885E+04 -1.53917E+04  1.76081E+04  2.39210E+02
  9.08034E+03  1.74212E+04 -2.41256E+03  2.11587E+04 -1.61565E+04  1.07003E+04 -2.21948E+04 -3.48244E+03
 -1.10291E+04 -1.95277E+04 -1.96024E+03 -2.27590E+04  1.03905E+04 -2.23531E+04  1.98638E+04 -5.26445E+03
  2.07607E+04 -1.19073E+03  1.34313E+04 -4.36033E+03  7.65817E+03 -2.11443E+03  1.44098E+04 -6.19173E+03
  1.73689E+04  8.39795E+03  1.97647E+04  1.57598E+04  1.66755E+04  2.59265E+04 -2.36453E+03  3.63800E+04
 -2.23565E+04  2.59378E+04 -2.83843E+04  1.75637E+04 -2.75309E+04 -9.06010E+02 -2.75011E+04 -1.76888E+04
 -1.38990E+04 -2.76126E+04  5.77333E+03 -2.22231E+04  1.75399E+04 -1.17047E+04  1.98521E+04  4.76449E+03
  5.46116E+03  1.11411E+04 -8.12935E+03  1.27529E+04 -1.35463E+04  2.34998E+03 -1.40909E+04 -1.16343E+04
 -2.67867E+03 -1.41491E+04  4.85707E+03 -1.18926E+04  7.58207E+03  4.57245E+03  2.43543E+02  7.94744E+03
 -2.07913E+03  3.88275E+02 -5.46662E+03 -3.51212E+03 -2.84470E+03 -1.27199E+04  1.51553E+04 -1.97746E+04
  1.35229E+04 -3.36361E+03  1.24202E+04  2.03025E+03  1.29237E+04  1.22213E+04  5.67005E+03  1.90019E+04
 -7.51324E+03  2.25333E+04 -1.47703E+04  1.16621E+04 -1.32844E+04  8.51066E+02 -1.29545E+04 -3.88561E+03
 -9.28480E+03 -7.27225E+03 -1.47877E+03  2.20579E+03 -1.97017E+03  1.85061E+03 -4.26188E+03  4.31414E+03
 -4.38783E+03  1.52614E+03 -1.05475E+04 -9.79112E+03  6.76833E+02 -1.63701E+04  5.52826E+03 -1.11843E+04
  6.17161E+03 -4.78364E+03  1.34651E+04  1.89741E+03 -7.94169E+02  1.75699E+03 -6.67773E+03  9.62679E+02
 -9.55190E+03 -4.54354E+03 -3.48913E+03 -1.65392E+04  1.60201E+03 -8.66752E+03  1.56265E+04 -5.90518E+03
  1.28359E+04  4.29996E+03  8.63850E+03  7.18799E+03  4.41723E+03  1.53918E+04 -5.48484E+02  1.48796E+04
 -6.69806E+03 -2.69008E+03 -4.89834E+03  8.57764E+02  1.45631E+03 -4.70369E+03  8.61763E+03 -8.55232E+02
  8.60982E+03  4.40246E+03  1.97180E+03  9.11302E+03 -3.08034E+03  1.00606E+04 -1.14602E+04  6.12452E+02
 -3.60548E+03 -2.08220E+03  2.17962E+02 -1.08643E+04  5.06120E+03 -6.11133E+03  3.38608E+03  8.87114E+03
  1.71173E+03  4.95303E+03 -2.79287E+03  1.02762E+04 -5.94370E+03 -4.97710E+01 -6.41454E+03 -3.93683E+03
 -6.73781E+02 -5.09031E+03  1.50977E+03 -8.64638E+03  1.07215E+04 -6.49774E+03  1.15023E+04  2.57501E+03
  5.73061E+03  7.19977E+03 -2.76518E+03  9.08743E+03 -1.08853E+04  4.90587E+03 -6.33782E+03 -3.88847E+03
 -9.21498E+03 -1.90842E+03  6.91649E+02 -8.21839E+03  3.46759E+03 -3.99299E+03  6.82553E+03 -1.49997E+03
  4.74015E+03 -1.02799E+03  1.99340E+02  8.54435E+03 -1.14577E+03 -1.49343E+03  5.62293E+03 -6.32719E+03
  1.20398E+04  1.15659E+03  7.04126E+03  5.46407E+02  1.22017E+04  5.16979E+03  5.24837E+03  1.40162E+04
  8.30658E+02  1.32411E+04 -1.48552E+04  1.01918E+04 -1.30787E+04  2.70602E+02 -1.15447E+04 -7.45797E+03
 -6.34544E+03 -1.20569E+04  4.94740E+03 -7.68398E+03  1.70115E+03 -1.46308E+03  6.12234E+03 -1.30474E+03
  2.58206E+03 -6.40864E+03  4.83599E+03 -4.76310E+03  2.64747E+03 -2.40265E+03  8.30938E+03 -3.77790E+02
  3.60225E+03  8.46986E+03  2.41804E+03  1.91074E+03  4.63273E+01  5.89435E+03 -1.11035E+04  5.74585E+03
 -1.19340E+04 -2.43445E+03 -7.26517E+03 -1.01079E+04 -1.12405E+03 -7.77284E+03  6.86882E+03 -8.38401E+03
  8.12389E+03 -3.33823E+03  1.39168E+04  1.38060E+03  9.50462E+03  8.07186E+03 -3.05038E+02  4.72233E+03
  3.12103E+03  5.08492E+03 -6.00865E+03  4.11891E+02 -1.80211E+03  5.43979E+02 -2.82307E+03 -2.54162E+03
 -1.94601E+03 -2.10279E+03 -2.75067E+03  2.39369E+03 -7.54913E+03  7.95140E+03 -3.12497E+03  3.33910E+03
 -3.65392E+02 -8.14188E+03 -4.95814E+02 -1.04587E+04  6.42156E+03 -3.96470E+03  5.04218E+03 -3.37867E+02
  8.52155E+03  1.76474E+03  2.08065E+03  3.13518E+03 -8.38207E+02  1.13726E+04 -8.01498E+02  4.52147E+03
 -7.05425E+03  1.39249E+03 -3.75799E+03 -7.10606E+03 -4.12687E+03 -6.33303E+03  2.06042E+03 -3.55014E+03
  7.17485E+03 -4.00195E+01  5.22812E+03 -1.42236E+03 -1.44587E+01  1.98623E+03  3.43682E+02 -3.62920E+03
  2.38362E+03 -1.32172E+03  7.69079E+02  2.05049E+03  8.52857E+02  1.61449E+03  8.77936E+02  3.07404E+03
 -4.68783E+03  3.94803E+03 -1.09097E+03  8.92518E+03 -4.86814E+03  5.44570E+03 -7.99180E+03 -9.55812E+02
 -6.12133E+03 -1.22876E+04 -2.82196E+03 -1.03157E+04  7.06989E+03 -5.59838E+03  1.08274E+04  1.72481E+03
  6.54179E+03  4.41505E+03 -2.26692E+02  2.13665E+03  1.57010E+03  6.21585E+03 -2.22425E+03 -1.16555E+03
 -6.13368E+03 -2.17396E+03 -3.62238E+03 -1.47682E+03  8.40333E+02 -5.44871E+03  2.77603E+03  1.48631E+03
  1.79089E+03  4.55886E+03  6.24339E+02 -3.51233E+02  3.48211E+01  3.34553E+03 -1.71623E+02 -1.64041E+02
 -4.45101E+03 -3.06400E+02  8.41307E+03 -1.70095E+03 -1.29322E+02 -2.35044E+03 -3.82004E+03  6.30277E+03
 -1.11757E+03  3.54543E+03 -4.89531E+03  2.80219E+03 -2.03455E+03 -7.27744E+01 -2.74469E+03 -7.48491E+03
  1.26609E+03 -3.31460E+03  1.81379E+03 -8.41591E+01  1.53760E+03  1.12824E+02  2.23715E+03  3.18078E+03
  3.09831E+02  9.12880E+02 -1.72318E+03 -1.56426E+03 -3.56023E+03 -4.01278E+03  3.48668E+02 -7.34250E+03
  3.45023E+03 -9.94359E+02 -1.59659E+03 -1.59630E+03  3.32319E+02  3.77772E+03 -3.59063E+03  2.44936E+03
 -3.38119E+03  1.71872E+00 -7.12780E+02 -3.80847E+03 -2.64722E+03 -2.66543E+03  2.33028E+03  2.18464E+03
  3.22989E+03 -2.80005E+03  3.69733E+03  4.34646E+03  2.76969E+02  4.86207E+03 -1.97319E+02  5.32266E+03
 -1.49709E+03  1.62315E+03 -1.84282E+03 -2.49973E+03 -3.87967E+03  4.51414E+02 -9.23040E+02 -4.43027E+03
  4.86744E+03  1.83652E+03  7.89548E+03  2.59511E+03 -2.90934E+03  5.84076E+03 -3.70630E+01 -3.54136E+03
 -2.92035E+03  4.81099E+03  1.33809E+03 -1.83570E+03 -1.83166E+03  4.75706E+03 -2.12774E+03  1.35003E+03
 -1.50135E+03  7.72178E+02 -3.98635E+03  1.35837E+03 -3.05583E+03  2.73342E+03  6.66654E+02 -3.36653E+02
  1.79009E+03 -4.74696E+03 -1.57394E+03 -4.62645E+03  8.72433E+02 -4.84681E+03  3.46143E+03 -5.55929E+03
  7.07128E+03 -3.17243E+03 -5.03942E+02  4.66570E+03 -2.04330E+02  2.47282E+03 -3.38092E+03  4.26184E+03
 -1.81972E+03  1.23267E+03  7.11208E+02  2.08727E+03 -2.62551E+03  4.47064E+03 -1.27296E+03 -1.57706E+03
 -4.49888E+03  1.01994E+03 -1.90421E+03  1.88332E+02  1.73562E+03 -1.48470E+03 -1.45948E+03  4.96743E+02
  2.27418E+03  3.96552E+03 -2.30257E+03 -3.35341E+02  1.53133E+03  6.32814E+03 -7.65528E+02  3.19135E+03
 -8.57332E+02  6.10398E+02 -1.63682E+03 -2.99912E+02 -6.13466E+03 -4.54586E+02 -1.06912E+03 -8.24672E+02
 -8.80110E+02 -6.75208E+03  3.19976E+03 -6.12617E+02  2.01318E+03 -1.63136E+03  1.25110E+03  2.80002E+03
  4.59126E+03  2.09076E+03 -2.54236E+03 -2.40037E+03 -3.35984E+03  1.44897E+02 -1.17932E+03  4.01149E+03
  4.38631E+03 -4.75116E+02  2.10877E+03 -1.14583E+03 -2.26745E+03  5.98173E+02 -4.09540E+03  1.99673E+03
  2.89368E+03  4.24925E+03 -2.10703E+03  1.23391E+03 -6.24222E+03 -1.96720E+03 -2.27008E+03 -2.70523E+03
  3.65720E+03 -1.84652E+03  3.66585E+03 -2.88895E+02  2.35154E+03  4.19292E+03  4.07051E+03  1.77079E+03
  6.42740E+03  1.91687E+03  1.83119E+03 -1.65372E+03 -1.71917E+02  5.31772E+03  4.38554E+03  4.68924E+02
 -3.18094E+03 -2.71716E+03  5.21089E+02 -1.32803E+03  9.14564E+02 -5.04991E+03 -1.33699E+03 -8.50578E+02
 -3.40015E+03 -4.24714E+02  1.48082E+03 -1.92756E+03 -2.92137E+03 -4.63900E+03 -4.77003E+03 -1.35901E+03
  3.34891E+03 -3.61115E+03 -9.45696E+02  1.13815E+03  2.58960E+03 -3.96062E+02 -9.08019E+02  3.66322E+03
