 $NMID ID='MM_0lb_SNR50_10hz_g45_99.RAW', FMTDAT='(8E13.5)'
 TRAMP=1., VOLUME=1. $END
  3.11852E+05 -1.66627E+03  3.40711E+05  2.55661E+05  8.40425E+04  3.39111E+05 -1.28805E+05  2.53129E+05
 -1.89114E+05  8.91498E+04 -1.14683E+05 -2.76844E+04 -2.39937E+03 -5.36123E+04  5.58314E+04  2.49302E+03
  3.60919E+04  5.61444E+04 -1.32919E+04  7.62272E+04 -5.98037E+04  6.55506E+04 -8.23253E+04  3.47146E+04
 -8.71383E+04 -1.07494E+04 -5.82584E+04 -5.36756E+04 -1.11463E+04 -6.69397E+04  2.48115E+04 -4.79366E+04
  3.89354E+04  1.79994E+03  1.31246E+04  4.35435E+04 -2.87531E+04  4.47993E+04 -6.22363E+04  2.90809E+02
 -5.67650E+04 -5.94195E+04 -8.10763E+03 -7.99844E+04  3.58045E+04 -5.82964E+04  4.77528E+04 -1.32957E+04
  4.78498E+04  1.25088E+04  3.14682E+04  3.21467E+04  1.12395E+04  2.79592E+04 -1.02915E+04  2.00608E+04
 -1.53593E+04  9.74742E+03 -2.30542E+04 -2.00174E+03 -7.80525E+02 -8.33275E+03  2.70962E+04  1.18622E+04
  1.08288E+04  3.67697E+04 -3.55181E+04  3.58827E+04 -6.65163E+04  8.68912E+02 -5.96612E+04 -4.33320E+04
 -1.75874E+04 -6.49955E+04  4.04203E+04 -5.09565E+04  6.57362E+04 -1.35532E+03  3.93471E+04  3.29870E+04
 -5.86872E+03  3.03565E+04 -3.18449E+04  2.04051E+04 -3.30048E+04 -4.24578E+03 -1.61643E+04 -1.78717E+04
 -8.22735E+02 -1.31311E+04 -1.70955E+03 -2.21894E+04  5.65920E+03 -2.45401E+04  1.79888E+04 -1.66631E+04
  1.26230E+04  6.97648E+03 -5.02816E+03  1.36491E+04 -3.04710E+04 -6.19854E+03 -1.28360E+04 -3.88629E+04
  2.40921E+04 -4.37124E+04  5.09025E+04 -1.95012E+04  4.38289E+04  2.33565E+04  1.82135E+04  4.28258E+04
 -1.77636E+04  3.93282E+04 -2.41328E+04 -1.50386E+03 -1.53432E+04 -3.03044E+04  1.55629E+04 -3.35518E+04
  4.78406E+04 -9.87142E+03  3.76806E+04  2.52255E+04  1.62520E+04  5.40151E+04 -3.67339E+03  4.59409E+04
 -3.15866E+04  3.55049E+04 -4.61781E+04  1.29178E+04 -4.95361E+04 -1.53623E+04 -2.66064E+04 -3.88263E+04
  6.14448E+03 -3.92771E+04  3.47775E+04 -1.84997E+04  2.63964E+04  7.78660E+03  7.88079E+03  1.99026E+04
 -1.65498E+04  8.73657E+03 -8.18573E+03 -8.68304E+03  8.06070E+03 -1.34474E+04  1.42452E+04  1.16934E+04
  1.47564E+04  2.28669E+04 -5.56204E+03  2.89323E+04 -2.42270E+04  1.76199E+04 -2.68632E+04 -8.95592E+03
 -2.58009E+04 -1.77395E+04 -1.04021E+04 -2.17270E+04  8.41020E+03 -1.67516E+04  1.51421E+04 -2.29284E+04
  2.94741E+04 -1.41032E+04  3.66158E+04  7.43791E+03  2.49991E+04  2.43154E+04  2.04001E+03  3.80166E+04
 -1.44368E+04  3.62321E+04 -3.18163E+04  1.11328E+04 -1.95237E+04 -4.15523E+03 -7.38739E+03 -1.67385E+04
 -3.44234E+01 -3.53642E+03 -7.65863E+03  1.02209E+04 -1.62727E+04  4.68248E+03 -1.90661E+04 -1.25851E+04
 -1.36954E+04 -1.91227E+04  1.13325E+04 -2.44081E+04  1.53016E+04 -2.21897E+04  1.99079E+04 -4.33832E+03
  1.31476E+04  1.04823E+04 -1.00636E+03  2.57479E+04 -1.65207E+04  1.13567E+04 -1.99917E+04 -1.86946E+03
 -1.53890E+04 -1.84043E+04  1.67235E+03 -2.57357E+04  1.30296E+04 -1.72271E+04  2.38229E+04 -1.72113E+04
  1.66694E+04  2.18389E+02  9.73017E+03  5.89568E+03  1.12084E+04  1.28457E+03  1.54739E+04 -4.48242E+03
  1.85783E+04  6.02361E+03  2.52946E+04  2.35987E+04  1.50058E+04  3.59807E+04 -2.66173E+03  4.28472E+04
 -2.13271E+04  3.23732E+04 -3.44987E+04  1.88896E+04 -4.32560E+04 -5.37656E+03 -3.00576E+04 -2.51294E+04
 -1.42229E+04 -3.48654E+04  7.74306E+03 -3.00146E+04  2.59645E+04 -1.34623E+04  2.24909E+04  1.76701E+04
  7.71394E+03  1.29058E+04 -6.94834E+03  1.56233E+04 -1.79572E+04  2.35000E+03 -1.59211E+04 -1.49205E+04
 -2.75083E+03 -2.06039E+04  5.33485E+03 -7.32267E+03  8.63204E+03 -1.25075E+03  5.28105E+03  3.76092E+03
 -2.52504E+03 -3.35829E+03 -7.72657E+03 -1.38722E+04 -3.22846E+03 -1.88740E+04  1.56736E+04 -1.63530E+04
  2.19432E+04 -1.50701E+04  3.12806E+04  4.68897E+03  2.34595E+04  1.68091E+04  6.01117E+03  2.97376E+04
 -3.25354E+02  3.19762E+04 -2.19423E+04  1.76688E+04 -2.18727E+04  3.40808E+03 -1.34847E+04 -2.44837E+03
 -7.11752E+03 -4.26700E+03 -1.45717E+03  1.67070E+03 -2.64509E+03  3.69777E+03 -2.95749E+03  3.03166E+03
 -1.57283E+04 -3.27167E+03 -1.02683E+04 -7.66055E+03 -4.45250E+03 -1.53241E+04  8.29523E+03 -1.45152E+04
  6.20474E+03 -4.71288E+03  4.93067E+03  1.06813E+03 -8.71503E+02  1.09203E+04 -7.87866E+03 -1.96541E+03
 -7.83826E+03 -1.18567E+04 -4.86015E+03 -1.28677E+04  6.63410E+03 -1.08696E+04  1.78525E+04 -6.03822E+03
  2.66286E+04  6.06571E+03  1.48651E+04  1.30211E+04 -2.24155E+03  1.86653E+04 -6.23520E+03  1.63653E+04
 -1.08441E+04  3.36602E+03 -4.79068E+03 -1.84194E+03  3.35495E+02 -3.63010E+03  7.11010E+03 -6.23880E+03
  5.34307E+03  5.12142E+03  2.39287E+03  1.12187E+04 -8.30165E+03  1.09949E+04 -1.53196E+04  3.33013E+03
 -7.91745E+03 -5.21907E+03 -1.17189E+03 -1.49759E+04  1.26545E+04 -5.96593E+03  4.10545E+03  5.57830E+03
  3.41601E+03  6.22871E+03 -6.41655E+03  1.63423E+04 -1.47978E+04  2.32124E+03 -1.47521E+04 -3.96041E+03
 -7.29618E+03 -1.32785E+04  3.98386E+03 -2.32330E+04  1.08064E+04 -1.02708E+04  2.09925E+04  4.60740E+03
  1.00337E+04  7.62126E+03 -3.75040E+03  2.03943E+04 -7.00155E+03  7.18662E+03 -1.47527E+04 -3.95934E+03
 -4.99411E+03 -9.37654E+03 -1.71961E+02 -1.62480E+04  4.72840E+03 -1.08181E+04  4.64825E+03 -8.61482E+03
  1.95781E+03 -7.26376E+03  8.69677E+02 -7.15210E+02 -3.58438E+03 -4.16658E+02  3.57252E+03 -3.21081E+03
  1.20578E+04 -1.03594E+03  1.79447E+04  3.06188E+03  1.39151E+04  4.32896E+03  7.65997E+03  1.65222E+04
 -6.86905E+03  1.87490E+04 -1.92270E+04  1.57462E+04 -2.26634E+04 -2.89536E+02 -1.69793E+04 -9.90091E+03
 -4.31782E+03 -1.76123E+04 -5.66069E+03 -1.42411E+04  5.74096E+03 -6.68845E+03  1.01102E+02 -7.11701E+02
 -2.77564E+03 -1.21456E+03 -1.26022E+03 -5.87983E+03  5.18348E+03 -5.55047E+03  9.19601E+03  6.05309E+03
  1.49258E+04  4.56284E+03  8.61428E+03  1.27865E+04  1.61474E+03  1.10562E+04 -1.56360E+04  1.02775E+04
 -1.13300E+04 -4.36150E+03 -3.67993E+03 -6.41034E+03 -3.63161E+03 -1.66535E+04  8.83650E+03 -1.47905E+04
  1.52814E+04 -7.94585E+03  1.24020E+04 -1.58082E+03  8.44750E+03  8.44262E+03  2.20551E+03  1.69021E+04
 -7.84574E+03  1.03495E+04 -8.29322E+03  5.44263E+03 -9.05711E+03 -4.28348E+03  1.86069E+03 -8.18427E+03
  3.80487E+03  8.17418E+02 -3.91370E+03  1.76764E+03 -4.56141E+03 -6.16813E+03 -1.14275E+04 -1.25198E+03
  3.15639E+03 -2.19137E+03  1.72698E+02 -1.39836E+04  7.48074E+03 -7.44768E+03  1.44977E+04 -6.25069E+03
  1.49840E+04  9.26271E+03  1.00118E+04  1.10619E+04 -9.39619E+02  7.71157E+03 -6.07469E+03  9.76531E+03
 -1.10743E+04  2.88655E+03 -1.12584E+04 -4.98713E+03  5.08808E+03 -1.00510E+04  1.93384E+03 -6.88194E+03
  8.22255E+03 -4.31603E+02  2.98740E+03 -2.24708E+02 -2.96235E+03  2.48480E+03  4.78315E+03 -3.06024E+03
  1.52554E+03 -1.77688E+03  3.24251E+03  2.68528E+03  5.58045E+03  2.30714E+03 -1.22830E+03  1.15131E+04
 -3.09095E+03  9.05004E+03 -7.79568E+03  7.09374E+03 -1.32174E+04 -1.60821E+03 -1.12737E+04 -1.18413E+03
 -5.71817E+03 -1.54291E+04  7.76368E+03 -1.56488E+04  5.90067E+03 -1.00097E+04  5.11904E+03 -7.40101E+03
  1.89549E+03  3.91053E+03 -3.98613E+03  9.59620E+03 -4.74543E+03  8.04859E+03 -6.19098E+03 -2.33711E+03
 -6.79997E+03 -7.26779E+03  6.61801E+03 -7.83308E+03  5.31699E+03 -4.57265E+03  6.34290E+03  4.53488E+02
  5.45398E+03 -4.87023E+03  5.83884E+03  1.18136E+03  6.88391E+01  4.21499E+03  4.95619E+03  1.43026E+02
  1.57369E+03 -9.91405E+02  4.56460E+03  6.81309E+02 -1.50098E+03  8.56688E+03 -7.82657E+03  7.91000E+03
 -2.74951E+03 -1.26117E+03 -8.70754E+03  9.78777E+03 -9.82432E+03 -3.06269E+03 -3.82015E+03 -3.13152E+03
  4.21251E+03 -6.88518E+03  4.37994E+03 -2.80012E+03  2.90952E+03  4.81337E+03 -4.13165E+03  1.01552E+04
 -8.74108E+03  4.52024E+03 -5.68237E+03 -3.02089E+03 -1.76148E+03 -5.68532E+03  6.56988E+02 -6.86549E+03
  3.19329E+03 -1.58728E+03  4.65882E+03 -2.16589E+03  8.09421E+03 -9.37693E+02 -5.22192E+01  7.74608E+01
 -3.25830E+03 -2.19245E+03 -1.24195E+04  1.41778E+03  5.19865E+03 -7.57146E+03  6.67325E+03 -3.54073E+03
  1.82352E+03  1.84624E+03  1.01176E+04  5.07506E+03  2.79984E+03  8.73664E+03 -2.48661E+03  1.05470E+04
 -9.32127E+03  9.64410E+03 -9.82623E+03 -4.08620E+03 -7.60200E+03 -8.41809E+03  1.18245E+03 -2.31950E+03
  4.40124E+03 -7.73890E+03  2.91635E+02  2.52669E+03  2.88019E+03  4.68647E+03 -2.77648E+03 -8.18377E+02
 -4.73512E+03  2.48629E+03  8.24761E+02 -5.39706E+03 -6.35047E+03 -1.14237E+03 -1.92228E+03  2.72855E+03
 -5.01239E+03 -5.96291E+03 -2.15665E+03  3.27596E+02 -8.10496E+03 -1.07587E+03 -5.00683E+03 -4.91253E+03
 -1.52120E+04 -9.51753E+03  5.44545E+03 -1.78652E+04  8.50003E+03 -1.25455E+04  1.48797E+04 -5.44607E+03
  1.24746E+04  4.30524E+03  9.71953E+03  9.55366E+03 -1.11093E+03  6.12230E+03 -4.57516E+03  8.03762E+03
 -4.33850E+03 -2.30593E+03 -4.69918E+03  2.08717E+03 -4.57895E+03  1.06649E+02  2.95369E+03  3.98252E+02
 -7.91467E+02 -1.80251E+03  1.67417E+03  2.30797E+03 -6.45563E+03  3.86504E+02 -7.83070E+02 -2.67705E+03
  1.60767E+03 -8.28483E+02  3.61183E+03  2.85468E+03  4.30499E+03  8.15374E+03 -1.28215E+03  5.04429E+03
 -9.59794E+03  4.82465E+03 -9.06870E+03  7.64446E+03 -9.30287E+03  1.26144E+02 -7.86223E+03  1.99957E+03
 -5.04190E+03 -1.25230E+04  3.68609E+02 -9.51320E+03  6.79330E+03 -9.47473E+03  2.56764E+03 -3.69145E+03
  1.78972E+03  1.03622E+03 -3.65771E+03 -6.67786E+02 -4.53694E+02  3.67967E+03  4.83820E+03 -7.39110E+03
  8.29952E+01 -4.89294E+03  9.61876E+03 -4.13996E+03  4.89892E+03  2.17915E+03  5.08266E+03  3.65300E+03
 -2.03307E+03  6.25187E+03 -7.65863E+03 -1.01392E+03 -5.16400E+02 -6.52890E+03  7.11347E+03 -8.36411E+03
  8.78408E+02 -3.25803E+02  9.14072E+03 -1.87063E+03  1.03138E+04 -1.65092E+03 -3.44987E+03  7.56749E+03
  4.63278E+03  2.36630E+03 -7.91701E+02  4.96945E+03 -2.68978E+02  1.23130E+04 -4.37105E+03  4.54011E+03
 -5.14248E+03  5.11901E+03  1.26617E+03 -1.87198E+03  1.23694E+03 -1.47108E+03 -2.20858E+03  5.42053E+03
 -1.27520E+03 -2.38438E+03  6.07122E+03  8.96092E+01 -2.61435E+03 -1.04578E+04  5.06456E+03 -4.57915E+03
  1.46342E+03  7.99876E+00 -4.96294E+02 -1.69362E+03  2.82554E+03  1.10317E+04 -1.15706E+03  3.29008E+03
