 $NMID ID='MM_0lb_SNR50_20hz_g60_38.RAW', FMTDAT='(8E13.5)'
 TRAMP=1., VOLUME=1. $END
  3.09470E+05  2.77020E+03  3.35361E+05  2.53916E+05  8.58845E+04  3.37732E+05 -1.34220E+05  2.51115E+05
 -1.89296E+05  8.05656E+04 -1.12914E+05 -3.09471E+04 -1.43465E+03 -5.03836E+04  5.07517E+04 -1.03206E+03
  3.67344E+04  5.17681E+04 -1.88036E+04  7.38154E+04 -6.10821E+04  6.28623E+04 -8.51531E+04  3.43378E+04
 -8.46043E+04 -9.99487E+03 -5.65775E+04 -5.07038E+04 -1.84771E+04 -6.82131E+04  2.58562E+04 -4.55188E+04
  3.78061E+04  3.61635E+03  2.00740E+04  4.82540E+04 -3.51788E+04  4.44719E+04 -6.56941E+04  2.19614E+03
 -4.96709E+04 -5.50334E+04 -5.23666E+03 -7.55052E+04  3.30087E+04 -5.99575E+04  4.54654E+04 -2.17677E+04
  4.15965E+04  1.12863E+04  3.35944E+04  2.51598E+04  1.58604E+04  2.67485E+04 -2.28446E+03  2.59898E+04
 -2.04609E+04  1.42477E+04 -1.73440E+04 -6.09448E+02  5.50955E+03 -7.29567E+03  2.27176E+04  1.06104E+04
  3.75990E+03  3.22809E+04 -2.92193E+04  3.22271E+04 -5.94522E+04  5.23682E+03 -5.52156E+04 -4.33178E+04
 -9.75062E+03 -6.29118E+04  3.80128E+04 -4.53000E+04  5.77226E+04 -1.50029E+02  3.22329E+04  3.29173E+04
 -8.35998E+03  3.50128E+04 -2.79403E+04  1.63999E+04 -3.10979E+04 -6.29909E+03 -1.35551E+04 -1.56414E+04
 -5.14129E+03 -1.27196E+04 -4.80402E+03 -1.92809E+04  1.07594E+04 -2.22661E+04  1.98053E+04 -1.55196E+04
  1.14451E+04  7.04307E+03 -8.09957E+03  1.71963E+04 -1.96454E+04 -2.21713E+03 -8.17090E+03 -3.21795E+04
  1.76090E+04 -3.90009E+04  4.70187E+04 -2.21478E+04  3.99253E+04  1.97029E+04  1.54721E+04  3.85555E+04
 -1.86176E+04  2.96457E+04 -2.44425E+04  3.25996E+03 -1.02848E+04 -2.70510E+04  1.99599E+04 -3.25760E+04
  4.05267E+04 -5.49121E+03  3.06819E+04  2.27011E+04  1.54365E+04  4.52392E+04 -1.08819E+04  4.96513E+04
 -3.24302E+04  2.96840E+04 -3.92859E+04  9.51505E+03 -3.65711E+04 -1.34699E+04 -2.01313E+04 -3.01779E+04
  9.72550E+03 -3.30305E+04  2.73399E+04 -1.30825E+04  2.33523E+04  1.06459E+04  6.08805E+03  1.74173E+04
 -1.58600E+04  8.00471E+03 -6.38992E+03 -6.07762E+03  6.16488E+03 -9.85493E+03  2.02571E+04  4.01192E+03
  1.27395E+04  2.26015E+04 -4.25324E+03  2.59107E+04 -2.37113E+04  1.09153E+04 -2.08125E+04 -5.72832E+03
 -1.95397E+04 -1.42415E+04 -9.73893E+03 -1.89568E+04  4.08067E+03 -1.92245E+04  1.38153E+04 -1.63488E+04
  2.07944E+04 -1.40345E+04  2.74268E+04  3.27250E+03  2.33236E+04  1.96769E+04  4.94905E+03  3.42969E+04
 -1.36878E+04  2.93352E+04 -2.71674E+04  7.90335E+03 -2.08530E+04 -1.17705E+04 -2.90405E+03 -1.10140E+04
 -1.81391E+00 -2.82408E+03 -5.03284E+03  2.54935E+03 -1.50501E+04  5.90622E+03 -1.37704E+04 -5.31736E+03
 -9.75880E+03 -1.64060E+04  8.13725E+03 -2.06254E+04  1.30684E+04 -1.50425E+04  1.38088E+04 -2.65406E+03
  6.46414E+03  1.15303E+04 -3.22842E+03  2.02954E+04 -9.82488E+03  1.03412E+04 -1.34928E+04 -4.18098E+03
 -1.51275E+04 -6.68110E+03  3.58675E+03 -1.78037E+04  6.97134E+03 -1.68922E+04  1.89373E+04 -1.18355E+04
  1.74739E+04  3.27606E+03  1.62319E+04  1.35432E+03  5.45371E+03 -1.41348E+02  9.68635E+03 -5.33371E+03
  1.31583E+04  5.39835E+03  1.54833E+04  8.88912E+03  1.08846E+04  2.42618E+04  3.62202E+02  2.69042E+04
 -1.28761E+04  2.00423E+04 -2.18267E+04  1.35786E+04 -2.43202E+04 -3.54837E+03 -2.42327E+04 -1.49457E+04
 -1.47795E+04 -1.87232E+04  2.78745E+03 -2.08076E+04  1.70577E+04 -1.02340E+04  1.64538E+04  1.55143E+03
  5.13660E+03  1.05170E+04 -1.10571E+04  1.21498E+04 -1.18263E+04 -4.15101E+03 -6.59882E+03 -6.18883E+03
 -2.58817E+03 -1.22033E+04  8.72083E+03 -8.29400E+03  8.30685E+03 -2.87506E+03  1.14784E+03  2.74072E+03
 -3.85636E+03  2.47768E+03 -2.34471E+03 -2.54283E+03  2.18821E+03 -1.05252E+04  7.90117E+03 -8.23182E+03
  7.61075E+03 -2.21045E+03  1.31035E+04  3.07358E+03  1.01718E+04  7.07201E+03  5.91186E+03  1.33921E+04
 -5.49460E+03  1.40595E+04 -8.40635E+03  8.96662E+03 -1.09868E+04  3.02267E+03 -8.49437E+03 -1.73791E+03
 -8.64907E+03 -3.14202E+03 -1.70298E+03 -2.30742E+03  3.94158E+02  2.13265E+03 -6.15971E+03  3.62582E+03
 -8.31413E+03 -3.65674E+02 -1.06823E+04 -7.59468E+03 -2.40734E+03 -1.06616E+04  4.40095E+03 -1.17156E+04
  2.77032E+03 -9.60824E+03  2.19770E+03 -1.19685E+03 -4.90333E+03  2.77146E+03 -3.23231E+03  2.46948E+03
 -2.03456E+03 -3.08687E+03 -1.11975E+03 -6.05342E+03  6.58216E+02 -1.07020E+04  1.01163E+04 -2.44080E+03
  9.71979E+03  5.02721E+03  9.20055E+03  4.16308E+03  6.13077E+01  8.97929E+03 -4.80994E+03  1.36856E+04
 -1.11797E+04  2.19963E+02 -2.11737E+03 -1.50569E+03 -2.32783E+03  1.63545E+03  3.38155E+03 -3.57433E+03
  2.31298E+03  5.95269E+03 -8.78302E+01  9.70043E+03 -5.98827E+03  7.18730E+03 -2.10501E+03  7.35467E+02
 -7.59305E+03 -2.92612E+03 -2.17137E+03 -9.07749E+03  4.55880E+03 -8.39874E+02  5.37244E+03 -1.40674E+02
  3.94580E+03  1.61696E+03 -5.79659E+03  6.16396E+03 -2.28478E+03  7.29606E+02 -4.85057E+03 -4.57747E+03
 -1.87778E+03 -5.95398E+03  5.78553E+02 -6.83426E+03  9.32406E+02 -4.40723E+03  8.24269E+03 -1.52542E+03
  1.65440E+03  5.30806E+03  1.09003E+03  5.85429E+03 -4.60824E+03  4.67205E+03 -6.84724E+03 -1.99862E+03
 -3.34829E+03 -4.42945E+03  2.88864E+03 -3.41062E+03  3.93548E+03 -4.59690E+03  2.24992E+03 -4.12057E+03
  2.80235E+03 -3.06265E+02  2.32942E+03  4.77329E+03 -3.17720E+02 -3.24146E+03 -9.35652E+02 -2.14206E+03
  4.46693E+03 -1.71458E+03  5.08710E+03  1.96913E+02  3.20446E+03  3.74805E+03  1.28627E+03 -2.30593E+02
 -1.33618E+03  7.38746E+03 -1.08444E+04  6.66466E+03 -1.27049E+04  1.12975E+03 -3.21913E+03 -6.18757E+02
 -4.98149E+03 -3.87477E+03  4.54241E+02 -4.51702E+03  1.27267E+03  1.14850E+03  2.17056E+03 -1.73072E+03
  2.72253E+03 -3.57980E+03  2.54717E+03  3.61919E+03  2.80856E+03 -1.84223E+03  5.22059E+03  1.26069E+03
  7.74700E+03  4.52898E+03  3.73766E+03  8.30358E+02 -1.49586E+03  6.25462E+02 -1.01677E+03  3.68102E+03
 -4.31101E+03  7.30012E+02 -2.84542E+03 -4.11204E+03 -1.31319E+03 -4.65136E+03  3.23671E+03 -5.93380E+03
 -1.39867E+03 -5.61161E+03  8.80803E+03 -9.84894E+02 -8.25839E+01  5.33787E+03  1.70729E+03  4.07894E+03
  1.53529E+03  6.79022E+03 -5.74636E+03  2.38945E+03 -2.78758E+03  1.12682E+03  4.42924E+03 -4.37939E+03
  2.28918E+03 -1.19931E+03 -1.86907E+03  1.67021E+03 -2.75346E+03  2.07410E+03 -3.71622E+03  4.72363E+02
 -6.41498E+02  1.21852E+03 -1.59207E+03  2.85086E+02  1.56339E+03 -1.85178E+03  5.38208E+03  3.62547E+02
  3.96120E+03  8.13460E+02 -2.84099E+03  8.02437E+03 -1.08749E+03  4.99240E+03  6.24208E+03  2.02372E+02
 -2.53414E+03 -2.01073E+02 -2.44760E+02 -8.97589E+02  1.04715E+03 -7.68425E+03  6.07352E+02 -4.80941E+03
 -4.64733E+02 -9.68731E+02  3.86098E+03  7.17381E+03  2.68513E+03  2.57365E+03  5.10224E+02 -2.20437E+02
  1.11509E+03 -7.62867E+02 -1.47459E+03 -3.98310E+02 -1.74698E+03  1.82023E+03 -1.40934E+02  7.00789E+02
 -1.39237E+03  4.65502E+03 -1.75102E+03  4.73386E+03 -2.97763E+02  2.51385E+03 -4.17885E+03 -1.25087E+03
 -2.75167E+03 -2.46017E+03 -8.80632E+02 -3.77423E+03  2.83121E+03 -4.40097E+03  1.16063E+03 -6.03359E+02
  2.27899E+02  1.62486E+03 -4.26319E+03  1.01328E+03  9.59964E+02  1.33042E+03  1.03904E+03 -2.48216E+03
  2.48482E+03 -1.65858E+03  3.72709E+03 -7.33618E+02  4.73319E+02  3.46707E+03 -4.32090E+02 -9.28237E+02
 -5.32509E+03  2.22227E+03  5.12807E+03  3.45401E+03  1.15016E+03  4.12976E+02  9.69095E+02 -3.14416E+02
 -1.01312E+02  3.92383E+02 -4.86223E+02  1.49964E+03  9.13000E+02 -7.85588E+02  2.25683E+03 -3.92942E+03
 -5.77827E+03  5.64673E+03 -1.46431E+03  5.55940E+03  1.24170E+03 -3.16645E+03  5.00627E+02 -5.68862E+02
  1.67644E+03 -1.15571E+03 -8.58839E+02 -1.25839E+03  1.21341E+03 -1.57967E+03 -1.79136E+03  3.74036E+03
 -9.58057E+01 -3.79374E+03 -3.31693E+03  2.14771E+03 -1.94382E+03 -1.56537E+03  1.33244E+03 -3.57609E+03
  2.63124E+02 -1.21865E+03 -1.67974E+03  2.83346E+03 -3.36314E+03  1.29903E+03 -4.29571E+03  1.62319E+03
 -2.07307E+03 -2.41411E+02 -4.69409E+03  2.80721E+03  2.92770E+03 -3.48328E+03  1.87148E+03  3.46479E+03
  5.28249E+02  2.55937E+03  1.12097E+03  1.22871E+03  2.29387E+03  1.49303E+02  2.48069E+02 -8.00357E+02
 -4.52504E+03 -2.51842E+02 -1.38470E+03  3.41233E+03 -1.45547E+02 -4.19946E+03  3.50089E+02  1.22439E+03
 -2.40132E+03 -3.59311E+03 -1.03914E+03 -1.49387E+03 -1.24897E+03  4.53833E+03  4.87690E+03 -5.29184E+02
  1.54056E+02 -2.76659E+03  1.40937E+03 -9.76741E+02  1.49938E+03 -4.51312E+02  5.86441E+02 -4.36121E+02
  5.23704E+02 -2.02000E+02 -1.22434E+03  8.92745E+02 -3.57000E+03  4.68330E+03 -4.80553E+03  8.46312E+02
 -1.37303E+03 -6.57240E+03 -3.47778E+02 -4.55909E+03 -1.01833E+02 -2.56747E+03  6.15752E+02  2.73024E+03
  5.46772E+03  2.14971E+03  3.01388E+03 -2.70839E+03  2.14181E+01  4.99064E+03 -3.85312E+02  3.56063E+02
 -3.27550E+03  1.86906E+03  8.58641E+02  2.39667E+02  1.37571E+03 -9.06844E+02 -1.76785E+03 -7.40729E+02
 -3.26295E+03 -1.56772E+03  5.96198E+02  1.67628E+03 -1.75741E+03 -1.69326E+02  3.98497E+03 -7.11488E+02
  2.00262E+03 -6.19845E+02  1.48106E+03  1.09475E+03  1.68952E+03  2.23793E+03 -3.67023E+03 -1.74022E+03
  3.23042E+03  3.43300E+03 -4.85585E+02  7.95586E+01 -2.67776E+03 -2.24455E+03  1.47309E+03 -7.03647E+03
 -5.65743E+03 -3.38435E+02 -6.65748E+03 -1.82035E+03  4.72810E+03 -1.32449E+03  1.55573E+03  1.42599E+03
 -6.86637E+02 -2.96380E+02 -1.84077E+03  7.10467E+03  1.86720E+03  8.67339E+02  4.12376E+02  6.49355E+02
 -9.50951E+01  4.66074E+02  3.70492E+03 -1.49766E+03 -5.62064E+02  4.10806E+03  1.83503E+03 -1.20973E+03
  2.63009E+03 -4.11603E+03  5.97603E+03  1.85539E+03 -3.49846E+03 -2.00663E+02  2.84689E+03 -1.24048E+03
 -2.47785E+02  2.48471E+03 -2.27556E+02  2.03184E+03 -3.46044E+03 -3.05084E+03  2.29314E+03 -1.95772E+03
 -1.89525E+03  6.73474E+02  2.45001E+03 -1.37203E+03 -8.54401E+02 -4.75838E+01  3.22467E+02  2.18807E+03
  3.51236E+02  2.29078E+03  8.59567E+02  2.61957E+02 -1.45148E+02  7.41520E+02 -2.73650E+03 -5.82028E+01
 -2.72539E+03  9.79323E+02  4.92366E+03 -5.24309E+02  5.73890E+03  7.57300E+02  4.04341E+02 -1.29122E+03
 -1.85707E+02 -2.50674E+03 -2.85531E+03 -1.08083E+02 -1.67580E+03  4.13298E+03 -1.40655E+03 -2.72305E+02
