 $NMID ID='MM_0lb_SNR50_7hz_g40_74.RAW', FMTDAT='(8E13.5)'
 TRAMP=1., VOLUME=1. $END
  3.15755E+05  4.31977E+03  3.39221E+05  2.51174E+05  8.88192E+04  3.39051E+05 -1.38593E+05  2.49661E+05
 -1.84318E+05  8.67184E+04 -1.16222E+05 -3.35335E+04  3.50456E+03 -4.43681E+04  5.54980E+04 -7.70236E+03
  3.83062E+04  5.06674E+04 -2.06862E+04  7.68165E+04 -6.46533E+04  5.97805E+04 -8.57195E+04  3.31146E+04
 -8.06991E+04 -9.58892E+03 -5.96794E+04 -5.70934E+04 -8.87041E+03 -7.31243E+04  3.05483E+04 -5.02730E+04
  4.69019E+04  2.17444E+03  1.53670E+04  5.19762E+04 -3.93326E+04  4.15118E+04 -7.06261E+04 -7.47980E+03
 -6.34684E+04 -5.47763E+04 -9.84807E+03 -7.91575E+04  3.91955E+04 -6.07314E+04  4.60529E+04 -2.43366E+04
  4.65763E+04  1.22528E+04  3.12387E+04  2.13568E+04  2.19057E+04  2.69149E+04 -6.11878E+03  2.44171E+04
 -2.48022E+04  7.55497E+03 -2.16133E+04 -8.67738E+03  1.31377E+04 -8.03404E+03  3.21518E+04  2.18785E+04
  5.22636E+03  3.72426E+04 -2.65914E+04  3.97160E+04 -6.64938E+04  5.75737E+03 -6.71360E+04 -4.05523E+04
 -1.43647E+04 -6.87032E+04  3.75502E+04 -4.88132E+04  5.92466E+04 -4.98334E+03  4.31430E+04  3.45301E+04
 -6.36548E+03  3.89879E+04 -2.82050E+04  2.21363E+04 -3.66603E+04  9.87951E+02 -2.03872E+04 -1.39840E+04
 -4.77023E+03 -1.87096E+04  8.21920E+03 -1.88137E+04  3.81713E+03 -2.26735E+04  1.49895E+04 -1.29049E+04
  1.21305E+04  8.94505E+03 -9.31236E+03  1.40907E+04 -1.95334E+04 -5.09081E+03 -1.02442E+04 -3.00946E+04
  2.94108E+04 -4.31720E+04  6.13796E+04 -1.94287E+04  5.08664E+04  1.82703E+04  1.44420E+04  4.92053E+04
 -2.13570E+04  3.76121E+04 -2.37866E+04  2.85483E+03 -1.33438E+04 -2.82542E+04  2.20475E+04 -3.10494E+04
  4.32385E+04 -7.87455E+03  3.72161E+04  2.72173E+04  2.55251E+04  5.02889E+04 -1.26446E+04  6.11277E+04
 -2.80209E+04  3.78833E+04 -4.84132E+04  1.84952E+04 -5.19163E+04 -1.73750E+04 -2.18286E+04 -4.30316E+04
  2.38602E+03 -3.75776E+04  3.68071E+04 -1.78247E+04  3.30045E+04  1.43874E+04  5.90190E+02  2.15837E+04
 -2.14022E+04  1.00157E+04 -8.51429E+03 -1.30227E+04  9.18935E+03 -8.02690E+03  1.80553E+04  7.64216E+03
  1.28660E+04  2.08814E+04 -2.21064E+02  3.36845E+04 -2.99848E+04  1.32555E+04 -3.35387E+04 -2.20170E+03
 -2.57839E+04 -1.79271E+04 -1.77067E+04 -2.78998E+04 -9.03543E+01 -2.42505E+04  1.90321E+04 -2.30914E+04
  2.71668E+04 -2.09825E+04  4.17949E+04  3.23248E+03  2.40699E+04  2.93168E+04  7.76179E+03  4.44318E+04
 -2.09671E+04  4.01744E+04 -2.99497E+04  1.13104E+04 -2.78973E+04 -1.08238E+04 -3.90360E+03 -1.52073E+04
  4.60666E+03  1.67788E+03 -1.00324E+04  1.34400E+04 -2.56441E+04  1.06885E+04 -2.18459E+04 -6.02350E+03
 -4.46780E+03 -2.31539E+04  3.65353E+03 -3.05610E+04  1.35752E+04 -2.22055E+04  2.93502E+04  6.98353E+02
  1.32427E+04  2.26461E+04 -2.46886E+03  2.22432E+04 -1.73444E+04  1.27027E+04 -2.57460E+04 -3.11066E+03
 -2.74707E+04 -3.07037E+04 -8.19839E+02 -2.93579E+04  1.16840E+04 -2.23721E+04  2.46322E+04 -1.44129E+04
  2.93081E+04  1.59957E+03  2.40271E+04  2.42831E+03  9.80340E+03 -2.79747E+03  4.60877E+03 -3.57417E+03
  2.37561E+04 -1.67734E+03  3.21270E+04  2.59219E+04  1.50598E+04  3.47971E+04 -3.93795E+03  4.49760E+04
 -2.59329E+04  4.48465E+04 -4.86157E+04  2.29709E+04 -4.85138E+04 -1.17779E+04 -4.08775E+04 -2.50918E+04
 -1.30076E+04 -4.35430E+04  1.24970E+04 -3.15885E+04  2.46348E+04 -1.94762E+04  2.10645E+04  1.06879E+04
  5.00501E+03  1.65608E+04 -1.76246E+04  5.93859E+03 -2.00979E+04 -4.06715E+02 -1.18239E+04 -1.83502E+04
 -6.70315E+03 -2.14332E+04  1.53465E+04 -1.16481E+04  1.47954E+04  3.02488E+03  1.59352E+03  9.72531E+02
 -1.16613E+04  6.31784E+03 -1.14972E+04 -1.36674E+04 -2.03792E+02 -1.79281E+04  1.53122E+04 -2.28536E+04
  3.20248E+04 -9.39360E+03  2.97568E+04  9.27255E+03  2.30294E+04  2.07997E+04  1.54706E+04  3.45827E+04
 -6.47015E+03  3.40992E+04 -2.94633E+04  2.32781E+04 -2.60899E+04  9.01987E+03 -1.02432E+04 -1.02666E+04
 -9.36090E+03 -1.09853E+04 -1.31460E+03  1.02229E+03  7.56239E+02 -2.35144E+03 -2.82995E+03  7.65130E+03
 -1.82936E+04  3.56722E+03 -1.34919E+04 -1.32362E+04 -4.30622E+03 -1.92013E+04  2.80840E+03 -1.89835E+04
  1.07343E+04 -9.72527E+03  4.26016E+03  5.40312E+03  2.60347E+03  3.95496E+03 -3.85528E+03 -5.86943E+02
 -9.02812E+03 -4.17572E+03 -6.32242E+03 -1.50694E+04  6.26043E+03 -1.74083E+04  2.53776E+04 -1.79289E+04
  2.60350E+04  1.06536E+04  1.63628E+04  1.27424E+04 -6.09204E+02  1.66332E+04 -1.44322E+03  1.81776E+04
 -1.77885E+04  2.67536E+03 -1.11143E+04 -4.02045E+03  2.93158E+03  3.99744E+02  8.81577E+03  5.00378E+03
  2.88858E+03  8.07513E+03  3.09613E+02  1.55637E+04 -1.19633E+04  9.09965E+03 -1.80900E+04 -2.46383E+03
 -1.44534E+04 -8.65576E+03  7.10061E+03 -1.39199E+04  5.79975E+03  1.15616E+03  1.79941E+04  5.26781E+03
  1.25831E+03  1.17604E+04 -1.32519E+04  1.27359E+04 -9.90289E+03  1.21560E+03 -1.04335E+04 -1.05506E+04
 -5.81424E+03 -1.49904E+04  1.14693E+04 -1.99269E+04  1.93347E+04 -1.66224E+04  1.54611E+04  7.22176E+03
  6.60251E+03  2.28370E+04 -7.59421E+03  1.49541E+04 -1.47685E+04  6.15235E+03 -1.71523E+04 -4.92996E+03
 -1.87193E+04 -1.13510E+04 -3.07436E+02 -6.94272E+03  8.18084E+03 -1.43663E+04  8.74536E+03 -8.78225E+03
  1.83250E+03  5.00486E+03 -9.36697E+03  1.78902E+03 -1.41617E+03 -1.60493E+03  3.13963E+03 -6.52854E+03
  1.13984E+04 -1.53680E+03  1.62039E+04  4.39457E+03  2.34817E+04  9.10748E+03  1.28959E+04  2.56207E+04
 -8.16122E+03  2.45322E+04 -2.50328E+04  2.54331E+04 -4.06659E+04  9.51644E+03 -2.66193E+04 -8.13297E+03
 -5.35714E+03 -1.52131E+04 -4.36520E+03 -1.24757E+04  1.18885E+04 -7.12274E+03  4.61009E+03 -5.25568E+03
 -2.89465E+03  8.06331E+02  5.39802E+03 -4.21078E+03  1.77552E+04 -9.23217E+02  1.06175E+04  6.38884E+02
  1.08062E+04 -4.22062E+03  1.93924E+03  1.22555E+04 -4.65153E+03  1.30318E+04 -9.27891E+03  4.41107E+03
 -2.55733E+04 -9.82467E+02 -2.09128E+04 -1.14402E+04 -7.39614E+03 -1.83370E+04  9.24627E+03 -2.26986E+04
  2.14001E+04 -1.37553E+04  2.29040E+04  2.17679E+03  1.62717E+04  1.65178E+04 -1.41938E+03  1.18751E+04
 -1.10962E+04  1.77418E+04 -1.51664E+04  1.04634E+04 -5.39821E+03  8.10284E+02 -1.40384E+03 -9.61762E+03
  4.03026E+03 -3.05325E+03 -1.03901E+03 -2.08726E+03 -1.60965E+04  4.79988E+03 -1.73365E+04 -5.10317E+02
 -1.21014E+04 -1.16071E+04 -3.56446E+02 -1.11729E+04  1.49137E+04 -1.58256E+04  1.92033E+04 -1.37188E+04
  1.41419E+04  1.11175E+04  1.53484E+04  1.76155E+04 -3.56266E+03  1.58098E+04 -2.24368E+03  8.41070E+03
 -1.78147E+04 -1.09806E+03 -1.32120E+04 -9.40170E+03 -4.16046E+03 -1.46597E+04  7.90254E+03 -1.11603E+04
  1.72278E+04 -5.82402E+02  4.00317E+03 -1.53286E+03 -2.87941E+03  6.15608E+03 -3.35818E+03 -3.69755E+03
  3.55173E+03  5.63485E+03  5.92292E+03  1.57810E+03  8.83994E+03  6.83755E+03  7.78945E+03  7.42437E+03
 -2.63529E+03  2.01602E+04 -1.21993E+04  1.97142E+04 -2.56701E+04  4.47420E+03 -1.81353E+04 -1.70200E+04
 -1.13758E+04 -2.01644E+04  2.45654E+03 -1.86474E+04  1.40486E+04 -1.25925E+04  1.35978E+04 -3.78452E+03
  1.26044E+04  8.90293E+03 -1.37670E+03  6.94810E+03 -4.48822E+03  8.90501E+03 -8.51789E+03 -1.54511E+03
 -3.14827E+03 -1.24057E+04  2.87193E+03 -4.15740E+03  1.36241E+04 -9.24488E+03  9.70463E+03 -5.55778E+03
  3.11210E+03  1.96402E+03 -4.01280E+03  6.69043E+03  4.97292E+03  3.54185E+03  4.52449E+03 -2.88734E+03
  8.95092E+03 -2.29237E+02  6.84662E+03 -6.33258E+03  6.50606E+03  8.78356E+03 -2.60207E+02  1.04399E+04
 -9.79140E+03  1.06202E+04 -4.47492E+03  1.56967E+02 -8.48795E+03 -1.14813E+04 -9.43754E+03 -7.36926E+03
 -5.85643E+02 -4.07365E+03  4.09546E+03 -9.88250E+03  3.39864E+03  4.85737E+03 -4.87068E+03  4.78906E+03
 -5.70981E+03  5.24840E+03 -7.80899E+03 -2.56470E+03 -6.80858E+03 -1.05204E+04 -5.46450E+02 -2.29768E+03
  1.33177E+04 -4.31408E+03  1.31598E+04  2.15241E+03  9.76041E+03 -1.98345E+03 -5.84021E+03  3.26151E+03
 -2.89192E+03  2.23172E+03 -1.90319E+03 -1.69075E+03  6.87357E+03 -9.87209E+03  1.52664E+04 -5.68185E+03
  1.27278E+04  4.19813E+03  1.27725E+04  1.12446E+04  7.60193E+03  7.05849E+03  4.38263E+03  2.04389E+04
 -8.83611E+03  5.01188E+03 -1.35527E+04 -8.29654E+03 -7.13807E+03 -8.32911E+03  7.22789E+03 -5.69648E+03
  1.22133E+04 -1.26364E+03  1.21884E+04  1.47002E+03 -2.49108E+03  2.68801E+03  8.86070E+03  2.93712E+03
 -9.48430E+03  6.93458E+03 -2.79241E+03 -8.53759E+03  3.02557E+03 -1.12119E+03 -3.25499E+03  3.85279E+03
 -3.60341E+03  4.28337E+03 -3.67836E+03  8.10202E+03 -9.79522E+03  2.97977E+03 -1.79574E+04 -8.55064E+03
 -7.05858E+03 -1.80574E+04  6.06110E+03 -2.05495E+04  1.31809E+04 -1.37426E+04  1.80804E+04 -6.50159E+03
  2.02120E+04  5.02648E+03  1.72615E+04  1.18795E+04  4.58608E+03  1.28149E+04  2.96054E+03  7.81927E+03
 -4.25957E+03  4.28895E+03 -5.67324E+02 -5.92690E+03 -7.04940E+02 -2.12539E+03  2.51728E+03 -3.67689E+03
  8.10208E+02  1.83766E+03 -2.11587E+02 -4.27438E+03 -4.15907E+03 -4.87343E+03  3.93084E+03 -1.02173E+04
  2.00069E+03 -9.67561E+03  4.00483E+03  3.01310E+03  8.33943E+03  1.26197E+04 -4.58848E+03  9.99994E+03
 -9.69936E+02  1.76617E+04 -1.56772E+04  5.94052E+03 -1.91358E+04 -3.09045E+02 -1.59097E+04 -1.10935E+04
 -8.29100E+03 -9.95931E+03 -1.97766E+03 -5.73028E+03  1.12596E+04 -3.90729E+03  7.62576E+03 -1.72631E+03
  1.05640E+03  7.40639E+03  1.66110E+03  1.65538E+03 -5.48985E+03 -3.31305E+03  6.31094E+03  8.42387E+02
  5.12086E+03  1.24186E+03  9.44076E+03  3.18371E+03  4.36354E+03  1.26206E+04 -9.49394E+02  6.99477E+03
 -5.16985E+03  2.88115E+03 -4.82848E+03 -2.18761E+02 -3.90150E+03 -5.13858E+03  4.13212E+03 -1.10553E+04
  5.59332E+03 -9.36687E+03  1.44727E+04 -4.86712E+02  1.60863E+04  3.05761E+03  8.17988E+03  4.98587E+03
  3.85074E+03  2.45170E+03 -1.43461E+03  3.25054E+03 -9.66158E+03  3.51412E+03 -3.10390E+03  3.47240E+03
 -2.80096E+03  6.23130E+02 -3.38189E+03  3.24401E+03 -1.02017E+04  4.61065E+03 -7.44487E+03  1.50137E+03
 -3.88419E+03 -3.28957E+03 -5.73879E+02 -1.26439E+04  1.89298E+03 -1.33445E+04  1.71199E+04 -7.56039E+03
  6.22125E+03 -1.26692E+03  5.77553E+03 -1.21979E+03 -2.15105E+03  1.27984E+04 -6.28942E+03  1.06795E+04
