 $NMID ID='MM_0lb_SNR50_7hz_g45_26.RAW', FMTDAT='(8E13.5)'
 TRAMP=1., VOLUME=1. $END
  3.08122E+05 -4.73472E+03  3.31717E+05  2.49470E+05  9.12232E+04  3.34533E+05 -1.35993E+05  2.46063E+05
 -1.93812E+05  8.26779E+04 -1.15452E+05 -3.39722E+04  5.84236E+03 -5.35114E+04  5.48508E+04 -2.42054E+03
  4.62822E+04  5.27828E+04 -1.03869E+04  6.53561E+04 -5.86417E+04  6.62832E+04 -9.40994E+04  3.35144E+04
 -7.87160E+04 -1.09491E+04 -5.90850E+04 -5.00948E+04 -1.59230E+04 -6.77827E+04  2.38370E+04 -5.11005E+04
  4.73746E+04  3.98124E+03  1.89805E+04  4.41495E+04 -3.14722E+04  4.73231E+04 -7.32093E+04 -1.12320E+03
 -5.79470E+04 -6.65028E+04 -4.85609E+03 -7.80085E+04  3.45124E+04 -5.74314E+04  4.85418E+04 -1.71136E+04
  3.67847E+04  1.33730E+04  3.22090E+04  3.25972E+04  1.78363E+04  2.51336E+04 -6.77706E+03  2.25782E+04
 -3.13387E+04  1.46152E+04 -1.73778E+04 -5.72223E+03  1.06208E+04 -7.17683E+03  3.11256E+04  1.81220E+04
  7.87518E+03  3.52642E+04 -3.44681E+04  3.72859E+04 -7.15336E+04  2.45916E+03 -5.59734E+04 -4.91234E+04
 -9.85783E+03 -6.55193E+04  3.64696E+04 -4.47196E+04  6.16475E+04 -2.14480E+02  2.62093E+04  3.60008E+04
 -7.11344E+03  3.60371E+04 -2.84670E+04  1.82031E+04 -3.80060E+04 -4.67304E+03 -2.55539E+04 -1.28790E+04
 -7.57676E+03 -1.24451E+04  5.02223E+03 -2.71548E+04  3.77185E+03 -2.36142E+04  1.57752E+04 -1.89988E+04
  9.09439E+03  7.65571E+03 -1.16483E+04  1.60132E+04 -2.30101E+04 -8.73583E+03 -9.12693E+03 -4.54100E+04
  3.05820E+04 -4.90622E+04  5.06760E+04 -2.38942E+04  4.86323E+04  1.59368E+04  1.69593E+04  5.94110E+04
 -1.06942E+04  4.18080E+04 -3.22413E+04  3.12704E+03 -8.32338E+03 -3.59704E+04  2.91831E+04 -3.77009E+04
  4.05971E+04 -9.90179E+03  4.10019E+04  2.37839E+04  2.20376E+04  5.32690E+04 -7.30010E+03  6.48907E+04
 -4.00083E+04  3.58545E+04 -4.38870E+04  9.09957E+03 -4.61449E+04 -2.02354E+04 -2.96493E+04 -4.18441E+04
  1.01475E+04 -3.82172E+04  3.80960E+04 -1.40757E+04  2.35387E+04  1.19696E+03  8.22842E+03  2.34393E+04
 -1.83878E+04  1.58001E+04 -8.59682E+03 -1.09343E+04  4.48490E+03 -6.14904E+03  1.67536E+04  6.44531E+03
  1.09245E+04  1.93783E+04 -3.73704E+03  2.98893E+04 -2.05049E+04  1.46793E+04 -3.61772E+04  4.00406E+03
 -2.86877E+04 -1.61184E+04 -1.14933E+04 -1.88458E+04  2.88701E+03 -2.74988E+04  1.75410E+04 -2.21206E+04
  2.60955E+04 -1.95017E+04  4.28884E+04  5.52264E+03  2.92112E+04  2.27166E+04  9.37463E+03  4.42589E+04
 -2.21368E+04  3.69255E+04 -2.96807E+04  1.12297E+04 -2.70796E+04 -6.38239E+03 -2.83010E+03 -1.86361E+04
  9.25232E+03  4.01390E+03 -1.52003E+04  8.86437E+03 -1.89609E+04  9.13184E+03 -2.67155E+04 -7.95169E+03
 -1.23733E+04 -2.89476E+04  7.44918E+03 -3.55650E+04  1.89737E+04 -3.04382E+04  2.48142E+04 -8.37028E+03
  1.28039E+04  2.31564E+04  5.63474E+03  2.01245E+04 -1.87094E+04  1.05388E+04 -1.84059E+04 -6.08713E+03
 -1.96066E+04 -2.69736E+04 -5.65525E+03 -3.07357E+04  1.16268E+04 -2.01189E+04  2.02328E+04 -1.41363E+04
  2.99085E+04 -4.32881E+03  1.36332E+04  9.52401E+03  1.07694E+04  7.17130E+03  1.39921E+04  4.77609E+03
  2.56718E+04  7.04628E+03  2.83418E+04  2.17477E+04  1.79477E+04  4.03739E+04 -9.60875E+03  4.35998E+04
 -2.91611E+04  4.74185E+04 -4.45578E+04  1.67550E+04 -4.84573E+04 -1.93036E+03 -3.84490E+04 -3.00686E+04
 -1.60734E+04 -3.51934E+04  1.18365E+04 -3.77139E+04  3.37878E+04 -2.37993E+04  3.39060E+04  4.15921E+03
  8.72958E+03  2.51987E+04 -1.20859E+04  2.18180E+04 -1.94225E+04 -3.85057E+03 -1.54032E+04 -1.27252E+04
 -2.25435E+03 -2.71611E+04  8.01134E+03 -2.27070E+04  1.60025E+04 -4.29198E+02  1.79441E+04  4.69432E+03
 -1.49070E+04  1.99208E+03 -9.39696E+03 -5.14680E+03 -7.18421E+03 -1.37149E+04  1.31054E+04 -2.17600E+04
  2.46023E+04 -1.16168E+04  3.34523E+04  6.38399E+03  2.64589E+04  1.50680E+04  8.71843E+03  2.52857E+04
 -5.81464E+03  3.97099E+04 -9.47645E+03  1.97114E+04 -3.21017E+04  7.68997E+03 -1.71371E+04 -6.13252E+03
 -7.38897E+03 -4.01224E+03  4.48273E+03 -6.07863E+03 -2.41777E+03  5.58196E+03 -4.03864E+03  5.51590E+03
 -1.76226E+04 -2.90857E+03 -1.48079E+04 -1.32946E+04 -8.21069E+03 -1.66447E+04  5.82442E+03 -1.77067E+04
  1.81109E+04 -1.35275E+04  6.23029E+03 -3.89941E+03  5.67699E+02  9.91359E+03 -1.25764E+04 -1.43566E+03
 -6.92356E+03 -1.18213E+04 -9.32512E+03 -1.28948E+04  1.38445E+04 -2.84816E+04  2.08321E+04 -8.71992E+03
  2.41848E+04  8.51958E+02  1.77106E+04  8.86865E+03  1.69051E+03  2.05919E+04 -8.71843E+03  1.30885E+04
 -1.61163E+04  1.18503E+04 -4.90611E+03 -9.51867E+03  7.13453E+03 -8.02435E+02  1.13918E+04  1.36708E+03
  9.95421E+03  1.14360E+04 -4.10957E+03  1.71407E+04 -9.56921E+03  1.96345E+04 -1.14692E+04  3.89327E+03
 -9.90548E+03 -1.45758E+04  3.84423E+03 -2.24157E+04  1.16907E+04 -1.20096E+04  1.28636E+04  6.81647E+03
  7.53791E+03  1.40531E+04 -8.74411E+03  1.17173E+04 -8.43037E+03  1.47665E+04 -2.41077E+04 -9.33644E+03
 -9.68869E+03 -2.02946E+04  4.73793E+03 -2.20074E+04  1.86002E+04 -1.97236E+04  1.62564E+04  7.98401E+01
  1.23205E+04  1.90889E+04 -9.79745E+01  1.46717E+04 -1.31091E+04  7.70763E+03 -1.55365E+04 -1.35359E+03
 -1.50569E+04 -1.66206E+04 -6.35115E+03 -1.57853E+04  1.03993E+04 -6.52379E+03  1.62432E+02  3.97983E+02
  7.14133E+02  7.90825E+03 -4.00260E+03  4.83919E+03 -5.02777E+03 -4.13880E+03  8.26034E+03 -8.81969E+03
  1.23013E+04  1.59104E+03  2.46977E+04 -3.53140E+03  1.30807E+04  1.71335E+04  1.97236E+03  2.31829E+04
 -1.05287E+04  2.77866E+04 -2.30152E+04  1.82172E+04 -2.69577E+04  6.84376E+03 -2.20428E+04 -6.26833E+03
 -1.29699E+04 -1.98376E+04  5.71649E+02 -2.16922E+04 -5.89288E+02 -1.24480E+04  7.37285E+03 -6.75070E+03
  8.95135E+03 -3.39217E+03  2.92345E+03  1.90454E+03  5.54147E+03  6.54448E+03  5.19236E+03 -6.84781E+02
  1.06472E+04  4.30713E+03  9.87484E+03  2.30811E+03 -8.11200E+02  1.74788E+04 -1.53983E+04  1.02070E+04
 -2.65222E+04 -7.53551E+02 -1.18911E+04 -7.18252E+03 -3.76886E+03 -2.10457E+04  1.06045E+04 -1.89418E+04
  1.44549E+04 -1.04489E+04  2.36891E+04  3.23164E+03  1.07249E+04  1.39692E+04  1.22792E+02  2.04941E+04
 -8.41305E+03  1.96700E+04 -1.03304E+04  1.14394E+04 -5.79389E+03 -1.77701E+03 -1.06638E+03 -2.40495E+03
 -1.94085E+03 -7.43705E+03 -4.18143E+02 -5.20654E+02 -1.70838E+03  1.25968E+03 -6.28781E+03 -7.11564E+03
 -7.07440E+03 -1.03639E+04  8.09929E+03 -2.21404E+04  1.21654E+04 -1.81666E+04  1.43897E+04 -5.00596E+03
  1.29547E+04  8.61163E+03  3.50043E+03  1.60069E+04  5.77121E+03  2.02964E+04 -1.80205E+04  8.01642E+03
 -1.15429E+04 -6.39641E+02 -1.50691E+04 -1.69568E+04 -4.65144E+03 -1.17489E+04  9.18546E+03 -1.07592E+04
  1.33287E+04  1.68031E+03  3.98401E+03  7.66694E+03  3.02952E+03  6.38772E+03  1.19713E+03  6.45147E+03
  2.56174E+03  5.79815E+03  3.68665E+03  5.09830E+03 -9.10629E+02  6.58984E+03  7.89663E+03  3.82356E+03
  5.36035E+03  8.98002E+03 -1.09439E+04  1.20459E+04 -1.64581E+04  7.78938E+03 -2.30475E+04 -2.61594E+03
 -8.48678E+03 -2.00058E+04  7.41102E+03 -2.28028E+04  1.75027E+04 -9.73249E+03  1.00021E+04  4.39658E+03
  1.29429E+04  9.39095E+03  1.21763E+03  9.17487E+03 -6.02359E+03  8.18417E+03 -6.47754E+03 -1.21788E+03
 -7.59381E+03 -1.22281E+04  4.53739E+03 -1.28934E+04  6.61716E+03 -3.14312E+02  1.26494E+03 -8.96662E+02
 -2.99039E+03  1.09070E+03 -2.12702E+02  6.64734E+03 -3.10721E+03  8.42269E+03  7.95580E+03 -6.21649E+03
 -6.05330E+02  5.77483E+01  1.80408E+04  3.69384E+03  3.75934E+03  1.48975E+04 -1.20698E+03  1.46092E+04
 -7.00899E+03  1.52293E+04 -8.86884E+03 -2.53489E+03 -5.46291E+03 -8.89364E+02 -1.86918E+03 -1.05707E+04
 -4.27273E+03 -1.27592E+04  3.17520E+03 -5.30265E+03  9.06599E+03  5.10085E+03 -1.92031E+03  1.36305E+04
 -1.14120E+04  1.05407E+04 -9.46344E+03 -4.80809E+03 -9.56842E+03 -9.83715E+03  1.45382E+03 -1.42538E+04
  1.15133E+04 -4.38116E+03 -2.39974E+03 -4.66958E+03  1.99835E+03  7.21071E+02  1.30756E+03  4.20171E+03
 -3.34176E+03  1.14697E+04 -2.65744E+03 -3.61881E+03  7.36958E+03 -4.91152E+03  1.34135E+04 -1.41956E+04
  1.39981E+04 -4.42223E+01  1.34583E+04  4.75508E+03  1.86155E+03  9.02000E+03 -1.69621E+03  1.15734E+04
 -1.09183E+04  8.50015E+03 -1.27858E+04 -5.60439E+03 -7.69094E+03 -1.19714E+04  7.40528E+03 -4.49753E+03
  1.25244E+04 -5.24276E+03  1.77768E+04  5.86742E+03  3.60261E+03  6.85647E+03  2.74615E+03  1.03964E+04
  4.70626E+02  8.48889E+03 -4.76951E+03 -2.59495E+03 -5.80632E+03 -3.55512E+03  1.74086E+03  2.98769E+03
 -9.45341E+03  2.44046E+03 -4.32483E+03  2.65045E+03 -1.57303E+04 -4.67480E+02 -1.33709E+04 -4.23933E+02
 -4.24716E+03 -1.62292E+04  1.09401E+03 -2.71534E+04  9.04317E+03 -9.92611E+03  1.85238E+04 -7.80083E+03
  1.74969E+04  5.73373E+03  8.02590E+03  1.07208E+04  2.90113E+03  1.47848E+04 -7.40784E+03  1.02664E+04
 -7.09223E+03  9.50151E+02 -6.24669E+03 -5.91170E+03 -1.23761E+04  2.36360E+03  2.07279E+02  3.45776E+03
 -8.26730E+03  1.39463E+03  3.11495E+03  5.57340E+03 -1.07566E+04 -5.84877E+03  5.74997E+03 -7.17697E+03
  4.68910E+03 -4.50342E+02  1.31091E+04  3.89451E+02  1.09118E+04  8.44412E+03  7.43099E+03  1.29218E+04
 -7.14667E+03  1.82786E+04 -1.81772E+04  7.91439E+03 -1.86914E+04 -3.44023E+03 -1.05118E+04 -1.10368E+04
 -9.89361E+03 -2.53799E+04 -4.43383E+03 -8.50892E+03  3.53855E+03 -8.64587E+03  7.27552E+03  4.94485E+02
  1.63364E+03  5.51753E+03 -1.45457E+03  9.59882E+03 -9.99290E+03  2.48622E+03  2.80727E+02 -1.98962E+03
 -2.89169E+02 -1.22078E+02  3.71827E+03  1.97666E+03  1.79744E+03  9.96325E+03 -4.02935E+03  6.86894E+03
 -6.16794E+03  8.53914E+03 -1.85599E+04  1.77894E+03 -1.11220E+04 -7.76807E+02 -2.20069E+03 -1.57689E+04
  4.18506E+03 -9.11632E+03  5.75303E+03 -8.81163E+03  1.09832E+04  6.21067E+03 -3.98348E+03  9.14008E+03
  8.00273E+03  1.13130E+04 -1.13526E+04  7.24862E+03 -1.76511E+03  3.92757E+03 -4.51158E+03 -4.27043E+03
  5.77069E+03 -2.60763E+03 -2.32193E+03 -1.27931E+03 -5.77544E+02 -1.33251E+02 -1.68034E+04  2.80992E+03
 -6.17274E+03 -7.37348E+03  2.86489E+03 -8.27252E+03  6.40314E+03 -1.03152E+04  1.10479E+04  3.81529E+03
  1.53209E+04 -4.92632E+03  4.23889E+03  6.68653E+03  5.36096E+03  1.20541E+04 -9.34303E+03  7.40663E+03
