 $NMID ID='MM_0lb_SNR50_12hz_g55_26.RAW', FMTDAT='(8E13.5)'
 TRAMP=1., VOLUME=1. $END
  3.08219E+05  9.82696E+02  3.35740E+05  2.48906E+05  8.51915E+04  3.35729E+05 -1.28855E+05  2.52358E+05
 -1.88420E+05  8.51666E+04 -1.14157E+05 -3.25518E+04  1.56902E+03 -5.26784E+04  5.64686E+04 -3.46502E+03
  4.09591E+04  5.10717E+04 -2.55133E+04  7.35944E+04 -5.74991E+04  6.20930E+04 -8.36029E+04  3.57096E+04
 -7.94671E+04 -1.84056E+04 -5.74139E+04 -5.20447E+04 -1.17197E+04 -7.28664E+04  3.04431E+04 -4.88857E+04
  3.94210E+04  6.74759E+03  2.00652E+04  4.44279E+04 -3.36576E+04  4.67733E+04 -6.82907E+04 -3.86744E+03
 -5.63174E+04 -5.55997E+04 -8.00636E+03 -7.53377E+04  3.59474E+04 -5.70533E+04  4.50357E+04 -2.29154E+04
  4.34678E+04  1.37490E+04  2.92731E+04  2.39920E+04  1.64879E+04  3.10755E+04 -9.46183E+03  3.02945E+04
 -2.21716E+04  1.17738E+04 -1.54388E+04 -9.55268E+03  3.32944E+03 -6.71996E+03  2.53710E+04  1.02137E+04
  6.79221E+03  3.42978E+04 -3.25297E+04  3.76594E+04 -6.64782E+04 -5.50056E+01 -5.55371E+04 -4.65763E+04
 -1.49350E+04 -6.63598E+04  3.91318E+04 -4.57120E+04  6.23986E+04  1.05843E+02  3.75563E+04  3.59971E+04
 -5.21522E+03  4.04017E+04 -3.12685E+04  1.88623E+04 -3.11979E+04 -3.38300E+03 -1.43151E+04 -1.59790E+04
 -1.04986E+04 -1.52679E+04 -2.49000E+03 -1.97980E+04  7.63739E+03 -2.86529E+04  1.75030E+04 -9.39307E+03
  6.88560E+03  5.51919E+03 -1.29282E+04  1.14681E+04 -2.42952E+04 -3.45756E+03 -6.88661E+03 -3.36442E+04
  2.26343E+04 -4.12023E+04  4.97085E+04 -2.18269E+04  4.67699E+04  2.38317E+04  2.13786E+04  4.40435E+04
 -1.64425E+04  3.48430E+04 -1.83585E+04 -2.53020E+03 -1.25619E+04 -3.17573E+04  1.88003E+04 -3.59381E+04
  4.53534E+04 -1.47810E+04  3.79430E+04  2.70766E+04  2.10562E+04  4.90444E+04 -8.68209E+03  5.39578E+04
 -3.18010E+04  3.24188E+04 -4.49808E+04  1.60907E+04 -4.63652E+04 -1.45335E+04 -2.65536E+04 -3.61794E+04
  1.30245E+04 -3.78438E+04  3.45508E+04 -1.88419E+04  3.23114E+04  8.61592E+03  3.93804E+03  1.84616E+04
 -1.06782E+04  5.95986E+03 -1.10710E+04 -9.25566E+03  4.73278E+03 -1.27977E+04  2.06264E+04  6.74000E+03
  1.35894E+04  2.37018E+04 -5.55628E+03  2.03645E+04 -2.52694E+04  1.16233E+04 -3.22981E+04 -2.90442E+03
 -2.62812E+04 -1.96628E+04 -1.24358E+04 -2.49076E+04 -4.34307E+02 -2.92017E+04  1.71449E+04 -1.98264E+04
  2.69551E+04 -1.55509E+04  3.91453E+04  5.88130E+03  2.84607E+04  2.01659E+04  4.88451E+03  3.76021E+04
 -1.46169E+04  3.32658E+04 -3.19716E+04  1.05974E+04 -2.33159E+04 -9.73205E+03 -8.27036E+03 -1.38971E+04
 -1.64226E+03 -3.11166E+03 -3.83766E+03  3.71907E+03 -1.86312E+04  1.53013E+04 -1.76393E+04 -7.59983E+03
 -9.14716E+03 -1.92256E+04  1.04562E+04 -2.27387E+04  2.22857E+04 -1.76324E+04  2.57918E+04 -5.94185E+03
  1.45075E+04  1.58293E+04 -1.15688E+03  1.88747E+04 -1.42821E+04  1.01906E+04 -2.31867E+04 -4.23231E+03
 -2.30994E+04 -2.22034E+04 -8.21100E+03 -2.83172E+04  1.95387E+04 -1.85346E+04  2.21401E+04 -1.09249E+04
  1.61098E+04  1.06642E+03  1.57338E+04  1.05739E+04  7.82444E+02 -6.30573E+02  1.57064E+04 -8.25338E+02
  2.00350E+04  3.56307E+03  1.97867E+04  1.76176E+04  1.49873E+04  3.97455E+04 -2.60684E+03  4.65420E+04
 -2.36033E+04  3.14988E+04 -3.51474E+04  1.67512E+04 -3.79709E+04  1.21047E+03 -3.47044E+04 -2.07499E+04
 -1.32575E+04 -3.68000E+04  1.57552E+04 -2.56566E+04  2.66839E+04 -1.27753E+04  1.98453E+04  6.13737E+03
  1.28961E+04  1.93640E+04 -8.88959E+03  8.63510E+03 -1.54163E+04  8.00711E+03 -1.54887E+04 -5.67996E+03
 -1.20023E+03 -1.06415E+04  1.33666E+04 -1.00760E+04  6.38051E+03  4.52539E+03  4.55328E+03  1.33953E+04
 -9.72835E+03  7.81513E+03 -8.55027E+03 -4.55665E+03  6.94911E+02 -1.72095E+04  1.72521E+04 -1.94125E+04
  1.94028E+04 -8.82612E+03  2.21741E+04  1.65928E+03  1.27762E+04  1.86780E+04  1.03801E+03  2.49738E+04
 -7.36191E+03  2.85875E+04 -1.59060E+04  1.90772E+04 -1.52980E+04  8.32933E+03 -1.54711E+04 -4.41207E+03
 -1.22933E+04 -6.30467E+03  3.99524E+03 -1.83438E+03 -3.86641E+03  4.22016E+03 -9.35658E+03  3.14539E+03
 -1.21786E+04 -2.71040E+03 -9.23608E+03 -1.14377E+04 -1.05581E+04 -9.52438E+03  6.40391E+03 -1.44789E+04
  1.25607E+04  6.21005E+02  7.80555E+03  5.39523E+03  2.00057E+03  2.88251E+03 -1.04256E+04 -8.94609E+02
 -4.96924E+03 -3.32167E+03 -3.76484E+03 -1.46798E+04  7.02021E+03 -1.75034E+04  1.89142E+04 -4.73454E+03
  2.04560E+04  2.34875E+03  1.45958E+04  6.88332E+03  3.65430E+03  1.33841E+04 -9.96049E+03  1.31040E+04
 -1.12209E+04  1.08499E+04 -8.39725E+03 -2.78880E+03  1.42790E+03 -1.95892E+03  7.86894E+03 -8.15345E+02
  7.66700E+03  3.56990E+03  1.94109E+03  7.71084E+03 -5.55339E+03  4.60522E+03 -1.67898E+04  1.32747E+02
 -4.25902E+03 -1.24494E+04  3.91848E+03 -1.24209E+04  7.49279E+03 -6.49907E+03  5.70755E+03  2.30519E+03
  2.18397E+03  1.00768E+04 -7.75467E+03  1.16280E+04 -1.13001E+04  6.45677E+03 -1.16790E+04 -3.46320E+03
 -3.83031E+03 -1.44195E+04  9.33378E+03 -1.21998E+04  6.10611E+03 -9.29472E+03  1.52232E+04  2.61377E+03
  5.93721E+03  8.48455E+03  1.57379E+03  1.13843E+04 -1.04381E+04  1.30096E+04 -1.54806E+04  1.54696E+02
 -1.14547E+04 -1.24473E+04 -4.35293E+03 -1.02579E+04  5.78598E+03 -5.43865E+03  7.61046E+03 -5.91657E+03
  4.29862E+03  8.55930E+02 -5.42045E+03  3.45584E+03  2.76754E+03  2.31794E+02  7.34558E+02 -2.85087E+03
  9.02282E+03 -1.84954E+03  1.58450E+04  1.63103E+03  1.08104E+04  1.19382E+04  5.68014E+03  2.08039E+04
 -3.52886E+03  1.55984E+04 -1.15836E+04  1.71746E+04 -1.60144E+04  3.95880E+03 -1.43155E+04 -2.93610E+03
 -9.30410E+03 -1.72528E+04 -4.37132E+03 -8.79780E+03  2.26182E+03 -3.13690E+03 -3.65411E+03 -4.22193E+03
  4.41673E+02 -4.64956E+02  8.19123E+03 -3.24683E+03  4.58362E+02  1.51601E+03  3.72882E+03  2.03528E+03
  8.67329E+03  6.97395E+02  3.21797E+03  1.05080E+03 -5.21577E+02  3.53593E+03 -1.33583E+04  9.64999E+03
 -8.64373E+03 -2.93585E+03 -1.29043E+03 -4.58161E+03 -2.87737E+03 -1.30528E+04  4.05931E+03 -1.35549E+04
  7.09921E+03 -1.01918E+04  1.32538E+04  5.35064E+02  1.03272E+04  1.34036E+04  1.79337E+02  1.02746E+04
 -7.75477E+03  8.29998E+03 -1.27998E+04  1.28729E+03 -1.21244E+04 -4.45162E+03 -5.53583E+03 -7.71726E+03
 -8.97089E+02 -1.95359E+03 -2.50166E+03  1.05302E+03 -6.89872E+03  3.87058E+03 -4.87095E+03 -5.60191E+02
 -6.00320E+03 -5.63353E+03  1.94426E+03 -1.01625E+04  7.24136E+03 -1.34053E+04  7.34429E+03 -7.50726E+03
  8.11958E+03  3.87656E+03  6.53899E+03  1.36249E+04 -4.87324E+03  1.12893E+04 -3.06773E+03  4.65801E+03
 -1.51449E+04 -6.82928E+02 -9.90304E+03 -9.89643E+03 -2.70747E+03 -6.49797E+03  7.44122E+03 -1.46731E+04
  5.34828E+02 -9.61067E+02  6.82292E+03 -1.09207E+02  2.32978E+03  1.02817E+04  3.09739E+03 -1.94999E+03
  5.73727E+03 -6.59243E+02  4.96959E+03 -3.12663E+02  2.89110E+03 -1.15873E+03 -8.09373E+02  1.03103E+04
 -4.08018E+03  3.78170E+03 -1.18846E+04  1.56707E+03 -5.48497E+03 -2.02209E+03 -1.07503E+04 -7.75032E+03
 -1.10692E+04 -9.74514E+03  1.16010E+03 -1.07977E+04  7.61401E+03 -1.10787E+04  7.42081E+03  5.17705E+03
  1.01830E+04  1.34975E+03  5.10624E+03  9.90739E+03 -4.07811E+03  4.19020E+03 -3.12044E+02 -6.32627E+03
  9.05962E+02 -3.90600E+03  7.85760E+03 -1.44787E+02  7.01241E+03 -1.14127E+03 -2.43102E+03 -5.51168E+03
  5.85951E+03 -1.29916E+03  2.88427E+03  1.00200E+03  1.35037E+03  9.23639E+03  3.74543E+02  1.72925E+03
  4.29035E+03  1.78706E+03  2.74082E+03  2.39196E+02  2.45896E+03  1.81133E+03 -6.63426E+01  5.89289E+03
  1.42552E+02  4.01268E+03  6.88431E+02  2.32076E+02 -7.77864E+03 -3.83363E+03 -2.08652E+03 -2.55664E+03
  4.01618E+03 -4.69974E+03 -5.93776E+02  1.77748E+03 -1.74343E+03  3.17364E+03  1.55652E+03  7.27200E+02
 -2.62223E+03  3.13551E+03 -5.79925E+03 -5.31662E+03 -3.95631E+03 -3.74547E+03 -1.80323E+03 -7.14128E+03
  6.90708E+03 -8.57803E+02 -9.84115E+01  2.68325E+03  2.22576E+03 -4.76819E+03 -2.44281E+03  4.71679E+03
  2.24630E+03 -7.07723E+02 -7.97848E+03 -4.25283E+02  3.27900E+03 -5.14122E+03 -4.79731E+02 -7.15801E+03
  6.41951E+03 -1.26772E+03  7.12693E+03  6.71479E+03  2.33983E+02  3.78473E+03 -1.49732E+03  6.93095E+03
  1.51085E+02  3.97412E+03 -3.28302E+03 -1.62313E+03 -4.92741E+03 -6.59636E+03 -3.38732E+03 -3.25290E+03
  4.26450E+03 -3.29537E+03  8.30414E+03 -7.29142E+02  1.79857E+03  3.42507E+03 -1.80480E+01  5.46984E+02
  7.34017E+02  3.30704E+03 -6.62867E+03  2.93617E+03  6.21947E+02  8.46756E+02  1.49922E+03  6.96968E+02
  1.30403E+03 -2.31716E+02 -5.36218E+03  4.40049E+03 -1.00782E+04  3.19282E+03 -7.51831E+03 -5.53880E+03
 -5.74594E+03 -2.15154E+03 -1.77425E+03 -7.89139E+03  5.91979E+03 -1.08182E+04  7.02799E+03  2.15296E+03
  9.71755E+03  3.18174E+03  1.23635E+03  4.07298E+03  5.88777E+03  9.99091E+03 -2.76413E+03  2.63206E+03
 -4.54882E+03  2.74218E+03 -4.53354E+03 -3.87273E+03 -3.36423E+03 -2.47549E+03  6.33010E+02  8.49048E+02
 -3.59825E+03 -3.65202E+03 -7.10535E+03  6.14982E+02 -8.75786E+02  8.59381E+02 -2.88180E+03  1.49976E+03
  3.23796E+03 -3.61990E+03  6.10791E+03  1.04064E+03  5.12656E+03  5.09254E+03 -2.33661E+03  4.56516E+03
 -5.62640E+03  8.58219E+03 -6.24940E+03  1.07244E+03 -1.19543E+04  2.35447E+02 -1.31487E+03 -1.20532E+04
 -8.03647E+03 -4.28742E+03 -3.95269E+03 -9.64399E+03  7.05825E+03 -7.17088E+03  4.37728E+03 -2.54780E+03
  9.07167E+03 -1.06714E+03  5.39195E+02  3.27021E+00  2.78888E+03 -2.10104E+03 -2.80304E+02 -1.79424E+03
  2.46561E+03 -4.36123E+02  9.67132E+02  3.04779E+03  6.42505E+03  2.87124E+03  1.02048E+03 -2.34008E+01
 -1.01512E+03  4.59253E+03 -6.88173E+03 -1.07285E+03 -3.37072E+03 -4.76288E+03 -2.66601E+03 -1.00575E+04
  3.07165E+03 -1.00609E+03  8.05731E+03  1.85208E+03  4.76783E+03 -9.02357E+01  3.37394E+03  1.93621E+03
 -4.01686E+01  3.69268E+03  3.06465E+03  9.33431E+02 -3.84728E+03  2.16886E+03 -2.90400E+03  1.60712E+03
 -2.89686E+03 -1.07650E+03  5.01571E+03 -1.35297E+03 -1.32010E+03 -3.83928E+03 -1.47457E+03 -3.53852E+03
 -2.41929E+03 -4.66366E+03  4.20248E+03 -6.27163E+03  3.75943E+03 -7.60944E+03  7.62538E+03  1.70116E+03
  4.88711E+03  5.21673E+03  2.77094E+03  2.10452E+03 -3.68413E+03 -2.78852E+03 -2.80351E+03  3.67323E+03
