 $NMID ID='MM_0lb_SNR50_15hz_g40_92.RAW', FMTDAT='(8E13.5)'
 TRAMP=1., VOLUME=1. $END
  3.12977E+05  8.99816E+02  3.40032E+05  2.52354E+05  8.52050E+04  3.41244E+05 -1.29870E+05  2.48910E+05
 -1.90257E+05  8.17041E+04 -1.12351E+05 -3.60831E+04 -7.69805E+02 -4.98131E+04  5.56219E+04 -2.11066E+03
  3.78845E+04  5.46290E+04 -1.19919E+04  7.17886E+04 -6.10735E+04  6.31706E+04 -8.73499E+04  2.98565E+04
 -7.82148E+04 -8.95441E+03 -5.63930E+04 -4.63241E+04 -1.19778E+04 -6.74599E+04  2.64714E+04 -4.49764E+04
  3.65277E+04  5.62753E+03  1.29024E+04  4.91825E+04 -3.32152E+04  5.16489E+04 -6.76809E+04 -1.45727E+03
 -5.37218E+04 -5.74099E+04 -4.69961E+03 -7.69996E+04  3.13270E+04 -5.24434E+04  4.70188E+04 -1.47591E+04
  4.26559E+04  1.16558E+04  2.93446E+04  2.14608E+04  1.72212E+04  3.18322E+04 -4.02879E+02  2.83193E+04
 -2.12125E+04  1.64982E+04 -1.31925E+04 -7.72653E+03  7.66841E+03 -9.07239E+03  2.11961E+04  1.16002E+04
  9.63198E+03  3.57072E+04 -2.93299E+04  3.55336E+04 -6.35562E+04  3.84463E+03 -5.78757E+04 -4.23674E+04
 -1.03984E+04 -5.60514E+04  3.90425E+04 -4.81800E+04  5.25211E+04 -5.77377E+03  3.43975E+04  3.18223E+04
 -7.59180E+03  3.48857E+04 -3.10213E+04  1.60431E+04 -2.91599E+04 -6.28859E+03 -1.44766E+04 -1.28059E+04
 -3.87482E+03 -1.71737E+04 -2.58271E+03 -1.36396E+04  9.59211E+03 -2.12504E+04  1.62483E+04 -1.36995E+04
  8.22750E+03  8.27411E+03 -5.95905E+03  1.23498E+04 -1.86903E+04 -6.08099E+03 -7.98521E+03 -2.88946E+04
  2.75326E+04 -4.17902E+04  4.41304E+04 -2.03565E+04  4.22314E+04  1.76018E+04  9.20741E+03  4.48453E+04
 -1.43422E+04  3.11224E+04 -2.45961E+04 -1.73525E+03 -1.46562E+04 -2.95166E+04  2.13438E+04 -3.09678E+04
  3.85378E+04 -4.09678E+03  3.39202E+04  2.21654E+04  1.95642E+04  4.17932E+04 -1.02871E+04  4.91713E+04
 -2.62189E+04  3.32049E+04 -3.47542E+04  9.15457E+03 -4.20741E+04 -1.46047E+04 -2.10590E+04 -3.14954E+04
  3.89148E+03 -3.60210E+04  2.92454E+04 -1.14361E+04  2.98428E+04  9.19369E+03  5.39197E+03  2.33371E+04
 -1.46990E+04  1.07611E+04 -9.80199E+03 -6.19752E+03  5.20194E+03 -1.05485E+04  2.15391E+04  8.14545E+03
  1.27434E+04  2.57412E+04 -1.21845E+04  2.24642E+04 -2.30959E+04  1.29085E+04 -2.91187E+04 -3.33019E+03
 -1.38666E+04 -1.76656E+04 -6.13367E+03 -2.22745E+04  1.03523E+03 -1.83198E+04  1.21033E+04 -1.45926E+04
  2.25483E+04 -1.19917E+04  3.03595E+04  3.77291E+03  1.84811E+04  1.93136E+04  3.00537E+03  3.28902E+04
 -1.74112E+04  3.22726E+04 -2.72528E+04  1.12120E+04 -1.84776E+04 -9.34912E+03 -3.57544E+03 -1.61348E+04
  3.37620E+03 -5.62453E+02 -5.71227E+02  4.63695E+03 -1.36320E+04  9.44507E+03 -1.63208E+04 -3.78644E+03
 -1.12587E+04 -1.61904E+04  5.58335E+03 -2.34115E+04  1.37060E+04 -1.30621E+04  1.70386E+04 -6.70890E+02
  1.16820E+04  1.20608E+04 -2.91213E+03  1.96147E+04 -1.07461E+04  1.36793E+04 -1.74444E+04 -5.35231E+03
 -1.44276E+04 -1.59599E+04 -4.86819E+02 -1.84216E+04  6.71075E+03 -2.12139E+04  2.04683E+04 -7.31459E+03
  1.44448E+04  6.07105E+02  1.01233E+04  1.19702E+03  2.83738E+03  3.88261E+02  9.64325E+03 -2.58511E+03
  1.96956E+04  6.91939E+03  1.96483E+04  1.07116E+04  7.00086E+03  2.51841E+04 -5.02993E+03  2.88767E+04
 -1.48635E+04  1.78019E+04 -2.95357E+04  1.34753E+04 -3.27728E+04 -5.24482E+02 -2.48792E+04 -1.78291E+04
 -1.03895E+04 -2.46976E+04  7.06148E+03 -1.89411E+04  1.91753E+04 -1.14668E+04  1.71526E+04  2.15892E+03
  8.57439E+03  1.01992E+04 -5.88108E+03  1.06599E+04 -1.88766E+04  1.43797E+03 -1.10226E+04 -6.67885E+03
 -3.82885E+03 -1.37033E+04  1.74900E+03 -1.23961E+04  1.49494E+04 -1.32163E+01 -1.08770E+03  2.40988E+03
 -1.20480E+04 -3.10741E+03 -3.10782E+03 -6.05482E+03  2.30529E+03 -9.43786E+03  7.07107E+03 -1.20443E+04
  1.75063E+04 -4.47730E+03  1.66885E+04  1.73998E+03  1.23022E+04  1.43701E+04  7.95013E+03  2.43025E+04
 -1.12550E+02  2.06420E+04 -1.34253E+04  1.03602E+04 -1.53412E+04  3.55402E+03 -1.25533E+04 -3.46798E+02
 -4.55772E+03  2.07338E+03 -6.36293E+02 -1.79174E+03 -3.85524E+02  1.03736E+03 -9.86408E+02  4.88953E+03
 -1.49794E+04 -2.22245E+03 -9.38170E+03 -7.33088E+03 -2.65414E+03 -1.65595E+04  2.75300E+03 -8.26713E+03
  4.02838E+03 -3.48757E+03  6.13063E+03  3.40123E+02  2.02979E+03  6.03770E+03 -4.24105E+03  5.26890E+02
 -5.49842E+03 -7.62205E+03 -2.36283E+03 -9.31769E+03  3.80872E+03 -9.01083E+03  9.89206E+03 -6.76240E+03
  1.63734E+04  2.19299E+03  1.20254E+04  1.05690E+04  4.46142E+02  8.06371E+03 -1.10894E+04  1.23195E+04
 -9.38534E+03  1.01475E+03 -3.64259E+03 -6.37751E+03  1.21161E+03  1.87936E+03  5.21144E+03 -2.81573E+03
  2.40693E+03  2.64226E+02  1.57702E+03  7.48766E+03 -1.12999E+04  1.16342E+04 -1.18326E+04  2.30909E+03
 -1.88365E+02 -3.57687E+03  8.31675E+02 -7.49327E+03  5.93190E+03 -3.36038E+03 -1.08339E+03  4.31361E+02
  4.66006E+03  7.59992E+02 -6.36243E+03  6.17393E+03 -7.86387E+03 -1.07222E+03 -4.94535E+03 -2.76369E+03
 -4.28446E+03 -8.64341E+03  4.59727E+03 -9.11259E+03  1.22750E+04 -5.00797E+03  8.29921E+03 -1.89359E+03
  3.66820E+03  8.21006E+03  1.10199E+03  1.01450E+04 -8.03176E+03  7.52086E+03 -9.33048E+03 -2.56919E+03
 -8.72403E+03 -5.05434E+03 -6.48486E+02 -4.90143E+03  2.71445E+03 -3.47332E+03  6.93625E+03 -2.27248E+03
  3.29247E+03 -1.69600E+03 -2.70170E+03 -1.23703E+03  1.63438E+03  4.26947E+03 -1.23595E+03 -5.44689E+03
  8.03595E+03 -2.25395E+03  1.10156E+04  3.42200E+03  4.05556E+03  8.42049E+03  8.52096E+03  1.15830E+04
 -2.59401E+03  1.08447E+04 -1.06869E+04  9.89508E+03 -1.26131E+04  4.97617E+03 -7.19139E+03 -4.42262E+03
 -8.01850E+03 -8.44360E+03  3.82872E+03 -7.82901E+03  3.50595E+03 -3.65715E+03 -6.55129E+02  2.86177E+02
  4.29122E+03 -4.87683E+03  6.55001E+03 -3.72959E+03  1.05284E+04 -1.80673E+02  5.27065E+03  6.89454E+02
  6.67927E+03  6.53368E+02 -4.04444E+03  2.42801E+03 -3.14341E+03  4.69844E+03 -5.51392E+03  2.35209E+03
 -9.76106E+03 -1.36624E+03 -4.06206E+03 -3.73928E+03  8.93812E+02 -4.95065E+03 -2.19281E+03 -9.92444E+03
  1.15715E+04 -5.82383E+03  4.38762E+03  3.21085E+03  4.85779E+03  5.21129E+03  4.87420E+02  7.99161E+03
 -7.92623E+03  8.83503E+03 -6.38894E+03  2.18049E+03 -1.61231E+03 -1.93117E+03 -2.97382E+03 -8.08065E+02
  5.00266E+02  7.00465E+03  3.14302E+03  2.71708E+03 -7.25149E+03  7.03014E+03 -4.43204E+03  2.16814E+03
 -3.48823E+03 -2.55745E+03 -5.18401E+02 -6.11934E+03  8.15964E+02 -5.65895E+03  8.53251E+03 -3.36870E+03
  2.52967E+03  8.43945E+03  4.57099E+03  6.64450E+03 -3.40868E+03  8.78142E+03 -4.68078E+03  5.07878E+03
 -6.44097E+03 -2.45654E+02  2.22989E+02 -6.15214E+03  2.16158E+03 -9.97710E+03  4.64864E+03 -1.72602E+03
  2.72023E+03 -2.19883E+03  3.97609E+03  3.85047E+03 -9.81735E+02  1.21393E+03 -1.36708E+03 -3.81078E+03
  2.72472E+03  2.98401E+03 -1.03764E+01  3.48109E+03  2.61729E+03  9.40427E+03 -1.85144E+03 -7.86033E+02
 -4.41100E+03  1.89495E+03 -4.24397E+03  7.49170E+03 -1.08578E+04  1.84329E+03 -5.45571E+03 -7.51725E+02
 -2.57335E+03 -6.42133E+03  6.15434E+02 -5.97347E+03  9.08275E+03 -5.13567E+03  6.85910E+03  1.65274E+03
  5.53682E+03  2.26053E+03  4.63564E+03  2.96823E+03  2.19739E+03  4.10628E+03 -4.20560E+03 -5.24698E+03
 -4.09712E+03 -5.58061E+03  1.72555E+03  4.15987E+03  9.49044E+02 -1.45797E+03  4.00785E+03  3.83489E+03
  2.94438E+03  2.80802E+03  1.28299E+03 -2.26231E+03 -4.44357E+03  3.02399E+03  5.69163E+02  9.25277E+02
  2.43144E+02  1.38467E+03  4.31623E+02 -8.54317E+00 -2.25054E+03 -2.81672E+02  2.00938E+03  2.51234E+03
 -2.17720E+03  2.51600E+03  1.53526E+03  2.97129E+03 -3.21519E+03 -2.13761E+03  2.63036E+03 -4.22817E+03
  2.08300E+02 -3.73988E+03  1.04961E+03 -1.75184E+03  3.58871E+03  4.36822E+03  1.46398E+03  1.84980E+03
 -2.68679E+03 -3.97278E+03 -2.89753E+03 -2.63658E+03 -7.27337E+02 -1.17848E+03  1.11924E+03 -1.42325E+03
  2.23323E+03 -2.84594E+03  6.60119E+03 -3.75243E+03  3.08137E+03  1.11818E+03  2.87318E+02  2.78094E+03
 -2.09924E+03 -9.07204E+02 -3.19104E+03 -5.86403E+02 -1.40017E+03 -1.60640E+03  6.49820E+03 -1.53758E+01
  8.29352E+03  1.44703E+03  4.44877E+03  1.75919E+03  3.03037E+03  8.28883E+02  3.62870E+03  2.02322E+03
 -7.02398E+03 -2.64185E+03 -3.81336E+03 -9.21204E+02 -4.88103E+03 -2.94073E+02  2.72990E+03 -3.80230E+03
  1.19502E+03 -1.65193E+02 -3.15921E+02 -3.20815E+03 -1.23067E+03  3.10957E+03  3.51022E+02  1.80006E+03
 -1.10076E+03  3.06846E+02  1.28140E+03 -4.18073E+03 -3.43360E+03 -3.16691E+03  1.34640E+03 -1.09550E+02
  6.93115E+02  3.27267E+03  3.83925E+02  4.27020E+03 -4.27164E+03  2.42895E+03 -1.71780E+03 -7.75616E+02
 -5.20875E+03 -9.18038E+03  1.86276E+03 -5.41411E+03 -5.33385E+02 -4.88323E+03  7.44269E+03 -1.09036E+03
  2.97135E+03 -2.96301E+03  2.76513E+02  2.52736E+03  6.38247E+03  8.02043E+03  1.50844E+02  8.35055E+02
  5.10405E+02 -3.80842E+03 -1.19053E+03 -1.18475E+03 -2.49683E+03  1.44321E+03 -4.07047E+03  1.86922E+03
 -3.28627E+03 -4.64961E+02 -1.98182E+03  6.38095E+02  2.05475E+03  2.22054E+03  2.66188E+03 -2.60691E+02
 -4.41821E+02 -5.01611E+03  4.21545E+02 -1.97183E+03  2.93485E+03  3.08726E+03 -1.36512E+03  3.46853E+03
 -5.02806E+03  1.87553E+03 -2.44595E+03  4.29902E+03 -3.22080E+03  2.83622E+03 -2.98448E+03 -5.09836E+03
 -4.90446E+03 -4.00126E+02 -8.76682E+02 -4.47947E+03  5.46134E+02  4.72774E+03  3.52110E+03  4.08843E+02
 -1.57544E+03  2.49151E+03  1.76169E+03  1.24696E+02  6.62475E+02 -3.21963E+02 -1.78706E+03 -7.52183E+00
  2.20813E+03  1.57364E+01 -2.60672E+03 -4.10991E+02 -1.00454E+03 -7.01004E+02 -5.79511E+02  1.66989E+01
 -2.05296E+03  1.86346E+03 -5.40443E+03  4.53617E+03  8.00663E+02 -1.46115E+03 -6.97778E+03 -1.54182E+03
  2.92962E+03 -3.22697E+03  7.21079E+03  1.70164E+03 -1.46024E+03  4.72096E+03 -7.93091E+02  8.63052E+03
  2.43256E+03  2.69347E+03 -3.78191E+03  3.33379E+03  4.70726E+03 -1.34128E+03  1.92721E+03  1.92061E+03
 -2.07162E+03  8.00628E+03 -2.34617E+03  3.12695E+03 -3.53218E+03  2.67545E+03 -2.74890E+03  4.36118E+03
 -2.80825E+03 -5.06595E+03  1.39666E+03 -6.10390E+03  5.26096E+01  1.47442E+03  1.66254E+03 -4.05838E+03
  2.77620E+03  2.31118E+03 -1.62558E+03  5.01698E+03  1.78853E+03 -2.12587E+03 -3.31248E+03  1.93492E+03
