 $NMID ID='MM_0lb_SNR50_17hz_g40_69.RAW', FMTDAT='(8E13.5)'
 TRAMP=1., VOLUME=1. $END
  3.07075E+05  1.19930E+03  3.34731E+05  2.48877E+05  8.35234E+04  3.40593E+05 -1.35665E+05  2.51699E+05
 -1.89095E+05  8.31951E+04 -1.11124E+05 -3.25074E+04 -1.65534E+03 -4.77511E+04  5.14666E+04  3.32528E+03
  3.54363E+04  5.46685E+04 -1.53835E+04  7.49291E+04 -6.10583E+04  6.21315E+04 -8.21477E+04  3.21418E+04
 -8.05832E+04 -1.11423E+04 -5.52070E+04 -5.01648E+04 -1.65152E+04 -6.35328E+04  2.44717E+04 -4.44116E+04
  3.96450E+04  3.54424E+03  1.31601E+04  4.96981E+04 -3.69879E+04  5.04629E+04 -6.73632E+04 -2.61499E+03
 -5.06609E+04 -5.62400E+04 -8.35809E+03 -7.57065E+04  3.23804E+04 -5.46673E+04  4.43234E+04 -1.63131E+04
  4.23115E+04  8.29878E+03  3.10201E+04  2.18953E+04  1.48465E+04  2.74141E+04 -3.29605E+03  2.80158E+04
 -1.64701E+04  1.12096E+04 -2.12645E+04 -2.38883E+03  7.02809E+03 -8.29140E+03  1.95157E+04  1.30563E+04
  7.47690E+03  3.40564E+04 -2.85287E+04  3.46466E+04 -5.51054E+04  1.12443E+03 -5.70483E+04 -4.11870E+04
 -9.31184E+03 -6.46139E+04  3.58577E+04 -4.46966E+04  5.36460E+04 -3.31748E+02  3.40311E+04  3.32446E+04
 -6.73491E+03  3.79285E+04 -2.92435E+04  1.29294E+04 -3.34219E+04 -5.42420E+03 -1.66296E+04 -7.19135E+03
 -5.98776E+03 -1.38754E+04 -1.70778E+03 -1.18795E+04  5.41293E+03 -2.39174E+04  1.59585E+04 -1.34232E+04
  1.12622E+04 -8.77777E+02 -7.15004E+03  1.13594E+04 -2.20932E+04 -2.29782E+03 -5.27002E+03 -3.25759E+04
  1.97819E+04 -3.64125E+04  4.02503E+04 -2.16491E+04  4.46573E+04  2.21014E+04  1.42733E+04  4.26176E+04
 -1.26738E+04  3.22644E+04 -2.11978E+04  1.33900E+03 -8.32557E+03 -2.78035E+04  2.35060E+04 -3.25896E+04
  3.79989E+04 -5.94604E+03  2.88832E+04  2.30507E+04  1.64211E+04  4.41270E+04 -5.92104E+03  4.87613E+04
 -3.21985E+04  2.83315E+04 -3.26480E+04  1.11578E+04 -3.46095E+04 -1.94352E+04 -1.76308E+04 -3.10765E+04
  8.24879E+03 -3.34132E+04  3.07050E+04 -1.09001E+04  2.83830E+04  1.36554E+04  2.72681E+03  1.72392E+04
 -1.21725E+04  6.99036E+03 -8.77911E+03 -7.46496E+03  7.16803E+03 -1.42271E+04  1.31946E+04  3.36492E+03
  1.33108E+04  2.14804E+04 -1.11695E+04  3.01389E+04 -2.23194E+04  7.93038E+03 -2.54418E+04 -1.81033E+03
 -1.71367E+04 -1.54432E+04 -8.49594E+03 -1.67709E+04  1.01278E+03 -1.70629E+04  1.15746E+04 -1.25237E+04
  2.20333E+04 -1.17017E+04  2.75905E+04 -1.05441E+03  2.47757E+04  1.45394E+04  6.47040E+02  2.91843E+04
 -1.86435E+04  2.90942E+04 -2.75480E+04  9.88045E+03 -2.11040E+04 -1.40482E+04 -4.75383E+03 -1.26509E+04
  2.10110E+03 -4.37788E+03 -1.72491E+03  5.80621E+03 -1.06883E+04  2.28823E+03 -1.50080E+04 -6.95860E+03
 -9.17660E+03 -1.72089E+04  7.99513E+03 -1.31440E+04  1.44641E+04 -9.20603E+03  1.50825E+04 -3.73371E+03
  1.04927E+04  1.18622E+04 -5.90678E+03  1.80469E+04 -1.37132E+04  1.32768E+04 -1.25216E+04 -3.46463E+03
 -1.47628E+04 -1.61114E+04 -2.01133E+03 -1.82236E+04  1.41384E+04 -1.26993E+04  2.04063E+04 -6.87447E+03
  1.14304E+04 -3.40176E+03  1.38266E+04  3.59972E+03  8.66326E+03 -1.76719E+02  8.67197E+03 -1.10433E+03
  1.51610E+04 -8.63969E+02  1.37979E+04  1.07010E+04  1.23449E+04  2.73547E+04 -7.18470E+03  2.86253E+04
 -1.49179E+04  1.91320E+04 -2.60379E+04  5.56833E+03 -2.87845E+04  1.97110E+03 -2.10301E+04 -1.34263E+04
 -6.83170E+03 -2.29324E+04  4.29763E+03 -1.91127E+04  1.74279E+04 -1.19252E+04  1.60105E+04  2.86192E+03
  6.55477E+03  1.60582E+04 -6.26874E+03  1.24427E+04 -1.60651E+04  7.07187E+03 -1.19717E+04 -7.33322E+03
 -2.96041E+02 -1.36574E+04  1.07052E+04 -7.02820E+03  9.17846E+03  7.51715E+02  1.82760E+03  3.76194E+03
 -1.81704E+00 -1.09731E+02 -2.85758E+03 -6.30525E+03  1.47782E+02 -1.12175E+04  5.49258E+03 -9.94509E+03
  1.04706E+04 -4.12836E+03  1.60732E+04  1.86152E+03  1.02432E+04  1.07827E+04  5.94078E+03  1.42883E+04
 -7.65452E+03  1.77319E+04 -1.16590E+04  1.26393E+04 -9.82181E+03  3.30781E+03 -8.65494E+03 -8.51006E+02
 -5.40971E+03 -1.79926E+03  2.70533E+02 -2.16796E+03 -2.09354E+03  2.14360E+03 -3.90147E+03 -3.27805E+02
 -8.60851E+03 -1.97906E+03 -1.06607E+04 -7.50573E+03 -3.71327E+03 -1.27717E+04  1.87169E+03 -1.49733E+04
  9.27083E+03 -5.53692E+03  1.07461E+03  1.86083E+03  2.27248E+02  7.72074E+03 -3.01254E+02  5.10288E+02
 -2.18579E+03 -7.38109E+03  2.78374E+02 -1.21506E+04  4.57334E+03 -1.19128E+04  1.03382E+04 -5.20120E+03
  9.94536E+03 -3.32087E+02  9.48001E+03  1.24223E+03  2.90744E+03  1.08646E+04 -3.81733E+03  4.99091E+03
 -5.18972E+03  4.46972E+03 -4.14640E+03 -1.75388E+03  4.63753E+03 -4.01223E+02  4.00063E+03 -5.85745E+03
  4.41701E+03  2.86243E+03  2.09152E+03  6.65501E+03 -8.85884E+02  1.22002E+04 -7.51177E+03 -6.20088E+02
 -4.28357E+03 -1.91164E+03 -2.36839E+03 -7.97638E+03  5.86168E+03 -4.02136E+03  5.81993E+03 -4.17017E+01
  3.24523E+03  6.66935E+03 -6.06216E+03  4.44951E+03 -3.41213E+03  2.73482E+03 -5.85484E+03  8.62200E+02
 -5.37293E+03 -7.96571E+03  1.18393E+03 -8.42683E+03  5.33006E+03 -9.81594E+03  1.02224E+04  6.33273E+02
  6.17788E+03  5.10104E+03  2.19672E+03  8.31061E+03 -5.46203E+03  2.94209E+03 -8.67985E+03 -1.35609E+03
 -5.14731E+03 -5.75696E+03  2.13796E+03 -3.75732E+03  8.03772E+03 -7.74628E+03  2.90092E+03 -1.30332E+03
  3.66822E+03  2.76805E+03  2.64076E+03  6.46070E+03  2.16360E+02 -1.21462E+03  4.78693E+03 -2.75034E+03
  6.21005E+03 -1.44371E+03  5.51197E+03  2.67452E+03  7.71985E+03  3.95732E+03  4.11683E+03  5.50445E+03
 -1.54547E+03  1.18711E+04 -1.00656E+04  6.43900E+03 -9.98168E+03 -1.10928E+03 -5.90960E+03 -4.05822E+03
 -3.89048E+03 -4.86138E+03  4.09970E+02 -8.83264E+03  2.13061E+03  5.67953E+02  2.97869E+03 -2.80100E+03
  1.63716E+03  1.62425E+03  1.53426E+03 -3.29940E+03  2.00379E+03 -1.99703E+03  6.82544E+03  1.12328E+03
  7.07487E+03 -3.44979E+03  3.49121E+03 -7.70975E+02  1.91539E+03  5.54670E+03 -1.49316E+03  1.75820E+03
 -7.82594E+03  2.55666E+03 -4.45475E+03 -2.27606E+03 -2.36145E+03 -6.90863E+02  2.77567E+03 -5.48909E+03
  8.90328E+03 -1.90789E+03  9.45976E+03  1.48280E+03  3.34935E+03  6.31286E+03  9.59252E+02  5.06785E+03
 -4.46768E+03  1.05905E+04 -3.39457E+03  3.09146E+02 -6.78292E+03  5.93771E+03 -1.13195E+03  7.81120E+02
  3.19261E+03  3.36607E+03 -3.84931E+02  1.49786E+03 -2.12772E+03  5.81802E+03 -1.33420E+03  3.65993E+02
  1.98292E+02  2.30501E+02 -4.67805E+01 -2.75920E+03  4.38547E+03 -5.00599E+03  2.29489E+03  1.31898E+03
  6.95902E+03  6.95929E+03  6.18620E+02  8.42438E+03  1.36820E+03  9.18753E+03 -4.06277E+03  3.60849E+03
 -2.53644E+03 -1.59601E+03 -3.70665E+03 -1.19260E+03  1.46970E+03 -1.95905E+03  2.71528E+03 -2.77501E+03
  2.39267E+03 -2.75429E+03  5.97261E+03  1.36456E+03 -3.32706E+03  1.64281E+03  7.66626E+03 -2.04811E+03
 -8.11521E+01  5.15038E+01  4.62889E+03  3.21415E+02  2.92153E+03  3.49864E+02  5.11993E+03  1.22226E+03
 -1.77083E+03  1.33528E+03 -3.79315E+03  4.04733E+03 -5.72975E+02  2.36561E+03 -5.17566E+03 -2.25788E+03
 -5.97242E+03 -4.10960E+03  3.30102E+03 -7.18660E+03  5.55141E+03 -4.02091E+03  9.16825E+03  1.71646E+03
  1.02428E+03  5.40229E+03 -1.03436E+03  6.79554E+02  3.87483E+03  3.88172E+03 -1.60974E+03  1.30602E+03
 -2.84073E+03  4.61788E+03  4.65087E+03 -5.28665E+03  2.75402E+03  1.63499E+03  1.60381E+03 -8.50021E+02
 -9.22707E+02 -3.00458E+03  3.16751E+02  1.24338E+03 -1.79085E+03 -5.39761E+02 -1.71222E+03  5.10432E+02
  7.10105E+02 -3.79524E+03  2.03010E+03 -7.61153E+02  1.04039E+03  2.40461E+03 -5.08308E+03  9.86240E+03
 -2.55332E+03  2.29425E+03 -3.54983E+03 -5.33623E+02 -4.80607E+03  1.02992E+03 -1.14991E+03 -1.35055E+03
  1.61504E+03 -5.86351E+02  2.48365E+03 -6.23312E+02  1.05380E+03 -7.14549E+02 -2.50676E+02 -1.23876E+01
  1.22893E+03  7.03201E+02 -4.12840E+03 -1.27057E+03 -2.64700E+03 -5.05340E+03 -8.22308E+02 -1.57630E+02
  2.01563E+03  1.52211E+02  2.17831E+03 -4.11860E+03  2.36005E+03  4.61056E+03 -1.71150E+02  1.60811E+03
  5.01870E+03  1.97251E+02 -1.59736E+03 -3.41719E+02  1.00620E+03  2.71645E+01  4.34362E+03  8.14128E+02
 -9.17191E+02 -1.19469E+03  6.05985E+03  2.63321E+03  5.39074E+03  1.33562E+03  6.79496E+02  4.79292E+02
 -7.67729E+03 -1.04486E+03 -3.92901E+02  1.40441E+03 -1.96864E+03  2.25124E+03  4.06626E+03  1.73187E+03
  3.72905E+03 -3.15555E+03  2.04005E+03 -2.28053E+03 -3.03428E+03  4.20748E+03  1.33851E+03  4.88643E+03
 -3.65002E+03  2.41899E+03 -4.50772E+02 -2.01096E+03 -2.08462E+03  3.86077E+03  8.23232E+02 -1.05247E+03
 -1.19837E+03  3.48358E+03  1.00546E+02  3.09194E+03 -3.53530E+03 -1.18302E+03 -2.53521E+03 -8.41747E+02
 -4.34112E+03 -2.37412E+03  1.34603E+03 -5.23219E+03  4.13476E+03 -7.16056E+03  1.72390E+03 -2.50814E+03
  2.03908E+03  1.27048E+03 -8.58428E+02  3.91789E+03 -1.65178E+03  5.20323E+03  6.29064E+02  1.80482E+03
 -1.32574E+03  1.03450E+03  1.30998E+03  9.99952E+02 -5.62839E+02  9.68085E+02  1.11687E+03 -2.64252E+03
  9.45024E+02  4.91384E+03 -3.45447E+03 -4.44393E+03 -5.63195E+03  4.39613E+02 -6.53409E+03 -2.50138E+03
  1.98022E+03 -1.06625E+03  1.39476E+03  1.57888E+03  1.41381E+03 -1.58997E+01  4.73487E+03  1.43569E+03
 -7.93516E+03  4.84416E+02 -1.42489E+03  4.33842E+03  1.35451E+03  2.91114E+02 -1.99643E+03 -1.77065E+03
  9.86498E+02 -4.47320E+03 -1.63223E+03 -8.33565E+02  1.99626E+03 -2.06896E+03 -2.63501E+03 -1.31176E+03
  1.98022E+03  4.58199E+03 -6.92423E+02  2.87363E+03 -5.66558E+03  1.55621E+03  3.01406E+03 -2.31068E+03
  2.85478E+03 -5.37840E+03  8.81386E+02  1.80176E+02  1.29865E+02  3.89591E+03 -3.66485E+03 -3.58168E+03
  5.20554E+02  2.80175E+03 -4.69896E+03 -2.74651E+03 -3.48101E+03 -6.17523E+03 -2.95338E+02  6.67732E+02
 -3.24657E+03 -1.98795E+03 -1.16706E+03 -1.88416E+03  1.90895E+03  3.45892E+02 -2.15583E+03 -2.37518E+03
 -2.98424E+03  2.87300E+03 -1.82399E+02 -2.57021E+03 -3.08425E+03  1.46705E+03 -5.15612E+03  4.51018E+02
  2.63787E+02  8.57163E+02 -2.01987E+03 -1.06825E+03 -8.33842E+02  2.41417E+03 -1.78479E+03  3.63728E+02
 -4.79112E+03 -3.00978E+03  2.36535E+03 -2.88572E+03  5.46895E+03 -2.49169E+03 -1.66778E+03  1.55085E+03
  1.73050E+03  8.81005E+02  2.67885E+03  3.98867E+03 -7.45246E+02 -4.64371E+01 -8.38159E+02  7.59903E+03
