 $NMID ID='MM_0lb_SNR50_18hz_g45_84.RAW', FMTDAT='(8E13.5)'
 TRAMP=1., VOLUME=1. $END
  3.09679E+05 -1.41537E+03  3.35695E+05  2.48824E+05  8.35850E+04  3.35895E+05 -1.31536E+05  2.52920E+05
 -1.90722E+05  8.24263E+04 -1.11001E+05 -3.37367E+04  1.45644E+03 -5.09799E+04  5.39686E+04 -1.53143E+03
  3.53128E+04  4.85532E+04 -1.84986E+04  7.36073E+04 -6.21759E+04  6.24326E+04 -8.23372E+04  3.57003E+04
 -7.90124E+04 -1.21980E+04 -5.60653E+04 -5.50220E+04 -1.54715E+04 -6.43982E+04  3.14961E+04 -4.40007E+04
  3.82545E+04  4.44149E+03  2.03012E+04  4.62851E+04 -3.07538E+04  4.78016E+04 -5.90835E+04  9.74497E+02
 -5.13887E+04 -5.44635E+04 -3.96345E+03 -7.09453E+04  3.74602E+04 -6.00253E+04  4.56861E+04 -1.50635E+04
  3.80570E+04  1.37762E+04  3.15398E+04  2.09740E+04  1.98151E+04  3.03669E+04 -5.78186E+03  2.69724E+04
 -1.89650E+04  1.18939E+04 -1.76950E+04 -3.64529E+03  4.99861E+03 -4.09988E+03  2.23150E+04  1.23142E+04
  7.36267E+03  3.60763E+04 -3.11563E+04  3.27789E+04 -6.48936E+04  1.25554E+03 -5.56630E+04 -4.05237E+04
 -1.47140E+04 -5.88903E+04  3.49472E+04 -4.14643E+04  5.80437E+04 -2.83299E+03  3.27709E+04  2.93059E+04
 -8.35031E+03  3.09032E+04 -2.76249E+04  1.34148E+04 -2.49416E+04 -7.02807E+03 -1.31826E+04 -1.31652E+04
 -5.07610E+03 -9.30208E+03 -4.79864E+03 -1.34170E+04  2.83009E+03 -2.11773E+04  1.56530E+04 -1.47906E+04
  1.26594E+04  5.24322E+03 -4.74711E+03  1.48953E+04 -2.05719E+04 -3.82888E+03 -1.09930E+04 -2.67518E+04
  2.51415E+04 -3.79289E+04  4.02843E+04 -1.70589E+04  4.07066E+04  1.62850E+04  1.30630E+04  4.37364E+04
 -1.37830E+04  3.28227E+04 -2.21694E+04  4.25318E+03 -1.25864E+04 -2.29074E+04  1.94392E+04 -3.14711E+04
  3.28348E+04 -6.81337E+03  3.28121E+04  2.30033E+04  1.48600E+04  3.97479E+04 -8.92509E+03  4.76060E+04
 -2.71032E+04  2.85174E+04 -4.09863E+04  7.79431E+03 -3.90826E+04 -1.59710E+04 -2.01187E+04 -3.70049E+04
  8.14919E+03 -3.72440E+04  2.72608E+04 -1.47263E+04  2.43258E+04  1.32327E+04  5.73138E+03  1.66394E+04
 -1.13064E+04  3.50546E+03 -1.21862E+04 -8.78306E+03  1.75990E+03 -1.07309E+04  1.09644E+04  5.97974E+03
  1.27456E+04  2.27587E+04 -6.66190E+03  2.21176E+04 -1.76446E+04  1.00040E+04 -2.20949E+04 -3.73598E+03
 -1.69169E+04 -1.74209E+04 -4.54581E+03 -1.75811E+04  3.08999E+03 -1.46365E+04  1.31910E+04 -1.50282E+04
  2.14146E+04 -1.44322E+04  3.03067E+04  1.77038E+03  2.22284E+04  1.59931E+04  5.21047E+03  2.95267E+04
 -1.51528E+04  2.49875E+04 -2.53911E+04  9.44921E+03 -1.72119E+04 -9.23137E+03 -4.56207E+03 -1.60677E+04
  2.75124E+03 -2.60503E+03 -4.65130E+03  3.49707E+03 -1.12001E+04  4.80484E+03 -1.35158E+04 -2.57322E+03
 -9.13714E+03 -1.44819E+04  5.56488E+03 -1.66156E+04  1.51693E+04 -1.78213E+04  1.93339E+04 -2.19320E+03
  9.67444E+03  4.96963E+03 -1.70662E+03  1.48782E+04 -1.35928E+04  1.21159E+04 -1.79679E+04 -6.57865E+03
 -1.50643E+04 -1.51251E+04 -6.20360E+02 -1.51407E+04  1.12109E+04 -2.07378E+04  1.22103E+04 -3.28397E+03
  9.33812E+03  3.95348E+02  1.03078E+04  5.27561E+03  2.80637E+01 -2.00524E+03  4.41050E+03 -1.21856E+03
  1.64251E+04  3.12553E+03  1.62841E+04  1.35314E+04  9.84599E+03  2.63930E+04 -2.92506E+03  2.43403E+04
 -1.60883E+04  1.61925E+04 -2.44851E+04  1.06483E+04 -2.51672E+04 -2.56706E+03 -2.34589E+04 -1.56423E+04
 -1.14816E+04 -2.35756E+04  8.21740E+03 -2.10387E+04  1.73419E+04 -1.05588E+04  1.63997E+04  1.17988E+03
  9.02451E+03  1.23231E+04 -3.04835E+03  1.51580E+04 -1.72619E+04  4.38041E+03 -7.48088E+03 -9.49869E+03
  4.48694E+01 -1.11486E+04  5.46664E+03 -5.11210E+03  9.07292E+03  5.20205E+02  5.66660E+03 -1.11249E+03
 -3.68352E+03  1.54335E+03 -5.13664E+03 -8.19425E+03  3.76547E+03 -9.97150E+03  7.81939E+03 -1.55459E+04
  8.00521E+03 -1.00311E+04  1.65639E+04  5.10173E+02  1.02793E+04  6.93793E+03  5.25574E+03  8.97030E+03
  7.20567E+02  1.60938E+04 -6.43261E+03  8.79368E+03 -1.22992E+04  1.08441E+03 -1.07238E+04 -3.60311E+03
 -4.82272E+03 -2.29821E+01 -1.84730E+03  7.76593E+02  8.35475E+01  4.78281E+03 -5.72976E+03  8.04467E+02
 -5.41976E+03 -1.34831E+03 -8.65890E+03 -9.96329E+03 -6.54510E+03 -1.40862E+04  3.94537E+03 -9.59171E+03
  5.44178E+03 -3.86543E+03  4.96452E+03  5.76944E+03  1.12157E+03  3.35324E+03 -4.54570E+03 -2.06180E+03
 -3.86071E+03 -9.15861E+03 -2.13496E+03 -7.29535E+03  2.21524E+03 -7.64800E+03  8.27592E+03 -4.46853E+03
  1.12621E+04  3.54888E+03  6.30081E+03  7.62228E+03 -1.77027E+03  1.02101E+04 -6.01027E+03  7.47337E+03
 -4.40866E+03  4.43853E+03 -2.57306E+03 -1.42509E+03  1.83065E+02 -2.30923E+03  2.47358E+03 -3.22338E+03
  3.53429E+02  4.97488E+03  5.12711E+02  4.84496E+03 -4.38769E+03  6.41022E+03 -7.15477E+03  5.15978E+03
  1.11585E+03  2.07129E+02  1.41615E+03 -9.72179E+03  3.57402E+03 -4.88646E+03  5.07934E+03  2.29167E+03
  6.67681E+02  3.69837E+03 -3.98887E+03  1.78385E+03 -8.10336E+03  7.34732E+03 -4.55810E+03  5.63288E+02
 -1.79683E+03 -5.77522E+03  2.63685E+03 -5.26781E+03  3.86713E+03 -4.58035E+03  5.71134E+03 -5.54203E+02
  6.98734E+03  5.55627E+03  1.70027E+03  7.17599E+03 -1.48715E+03  2.20615E+03 -1.06124E+03 -1.20671E+03
 -7.87902E+03 -1.18829E+03 -2.77337E+02 -7.51081E+03  2.08887E+02 -5.93505E+03  2.83116E+03 -4.23656E+03
  2.26087E+03 -1.11337E+02 -4.67016E+02  2.59320E+03  4.44983E+03  6.55816E+02  1.93216E+03 -3.94245E+03
  5.07507E+03  3.44506E+03  3.78770E+03 -2.14959E+03  4.99670E+03  6.14932E+03  6.21662E+03  9.81386E+03
  5.82964E+02  6.60733E+03 -1.15585E+04  5.90533E+03 -1.03486E+04 -8.52243E+01 -6.67943E+03  1.97315E+03
 -3.25588E+03 -5.83935E+03  1.32119E+02 -7.94705E+03  2.10244E+03 -2.30150E+03  2.84389E+03  1.85686E+03
 -1.19202E+02 -4.06442E+03  1.33746E+03 -2.14145E+03  4.99567E+03  1.24528E+03  7.39167E+03  2.90831E+03
  3.35102E+03 -1.10101E+03  2.59102E+03  4.75671E+03  1.17035E+03  3.42770E+03 -5.66139E+03 -1.07620E+03
 -3.56432E+03 -1.12903E+03 -3.30218E+02 -2.10479E+03  4.83495E+03 -4.37425E+03  7.78867E+03 -6.36600E+03
  2.47353E+03 -1.59314E+03  1.10430E+04  4.83155E+02  6.12365E+03  4.71548E+03 -2.92599E+03  1.06256E+04
  3.05362E+02  7.26342E+03 -4.56780E+03  4.81073E+03 -1.03692E+03  2.28725E+03  5.41358E+02 -9.27437E+02
 -3.05552E+03 -3.38308E+03 -5.08096E+03  9.78300E+02 -1.55189E+03  1.81597E+03  1.94487E+02 -4.88733E+03
 -5.45559E+02 -6.18258E+03 -3.31245E+03 -9.15269E+03  5.57813E+03 -3.75784E+03  3.27104E+03 -3.19806E+03
  4.17460E+03  2.02706E+03  3.67430E+03  3.92169E+03 -1.96417E+03  4.31730E+02 -3.92991E+03 -1.47388E+03
 -3.77589E+03  2.91667E+03 -6.99889E+03 -1.19544E+03  4.63724E+03 -6.96286E+03  3.81530E+02 -4.58167E+03
  3.59791E+03 -3.68539E+02  2.37875E+03 -1.00767E+03 -2.27734E+02 -1.66464E+03  3.92429E+03 -2.21210E+03
  2.42101E+03  9.63471E+02 -1.77112E+02 -2.56965E+03  2.39575E+02  3.50390E+03 -7.18073E+02  3.77426E+02
 -1.19850E+03  8.72105E+02 -3.05753E+03  4.60158E+03 -2.00632E+03  1.25204E+03 -6.67840E+03  1.21135E+03
  1.81670E+03 -4.75823E+03 -1.44009E+03 -4.57941E+03 -2.80266E+02 -3.22836E+03  5.80461E+03 -8.08090E+02
  6.00728E+03  4.52009E+03 -1.37002E+03  1.60040E+03 -8.23679E+02  8.90156E+02 -4.02516E+03  1.66937E+03
  7.21802E+02 -4.59836E+03  2.77628E+03 -2.31615E+03  4.13505E+03  4.29681E+02 -1.11141E+03 -4.57014E+03
 -1.44936E+03  1.64161E+03  4.27312E+03  1.33038E+03  3.39409E+03 -4.99499E+03 -7.15459E+02 -2.16124E+03
 -2.25687E+02  2.95060E+02  4.68641E+02 -2.67281E+02 -5.73733E+02  3.00701E+03  1.63974E+02  2.21785E+03
 -3.29202E+03  4.22338E+02 -1.19889E+02 -6.02003E+03 -5.12760E+03  4.06172E+03 -1.95733E+03 -1.01125E+03
  1.68338E+02  4.18412E+02 -3.27839E+03  1.20900E+03 -4.34341E+03  3.03155E+02  5.77949E+02 -1.04354E+03
  2.24133E+02  2.39553E+03  2.83149E+03 -1.11091E+03 -2.16830E+03 -5.14307E+03 -3.47498E+03 -3.53169E+02
  9.32892E+02 -3.67635E+03  1.38634E+03  8.59783E+02  2.80767E+03 -1.32571E+03  2.17948E+03  1.21571E+03
 -2.63703E+02  5.15651E+03  2.60780E+03 -3.24621E+03 -3.98258E+03 -2.05836E+03  4.63501E+03  2.10148E+03
  5.54321E+03 -3.80542E+03  2.09522E+03 -9.16325E+02  4.52816E+03  2.18784E+03 -3.20453E+03  6.96649E+03
 -2.31096E+03 -4.86018E+03 -1.28639E+03 -6.71973E+02  2.16386E+03  1.13119E+03 -3.85900E+03 -4.51371E+03
 -8.84833E+02 -4.90395E+03  1.81260E+03  2.03517E+03  1.72936E+02  5.35866E+03  3.46165E+01  2.26970E+03
 -4.39391E+03  2.07954E+03 -8.16631E+01 -5.68327E-01 -1.23498E+03  2.20225E+03 -1.19472E+03 -6.69030E+02
 -3.62100E+03  2.79047E+03 -3.04223E+02  1.28289E+02 -4.94005E+03  6.91547E+02 -3.53035E+03  6.19452E+02
  5.71482E+00 -2.95744E+02  2.53538E+03  1.08380E+02  1.88451E+03 -4.33503E+03  4.02439E+03 -3.34841E+03
  7.78154E+02 -2.44427E+03 -3.34698E+02  3.43576E+03  1.15180E+03  3.50096E+03  1.57558E+03 -3.04834E+02
 -5.98653E+01  1.39064E+03 -7.18627E+02 -2.27202E+03 -2.34924E+03  2.31286E+03  4.52698E+01  3.02424E+03
  5.88788E+03 -2.04146E+03 -3.01021E+03  1.36571E+03  5.88246E+01 -4.02614E+03  1.79332E+03 -8.64686E+02
  5.36954E+03 -1.60969E+03  3.15617E+03  4.32601E+02  1.65402E+03  5.15206E+03 -5.68995E+02  1.43550E+03
  4.98534E+02  4.00670E+03 -5.85385E+02 -4.67107E+02 -1.33926E+03 -1.80792E+02 -2.39091E+03 -2.83027E+02
  2.44917E+02 -3.21911E+03  3.97561E+03  2.42139E+03  3.00103E+03  1.20666E+03 -6.91681E+02  2.16824E+02
  2.08358E+03 -3.65689E+03  2.35326E+03 -2.04077E+03  1.70953E+03 -3.56513E+02  3.84168E+02 -1.39959E+03
 -4.04921E+02  4.53977E+02  6.49877E+02  2.37962E+03 -8.91095E+02 -4.50611E+02 -1.76917E+03 -1.14159E+03
  2.62050E+03  3.03237E+03 -2.12145E+03 -3.31574E+03  3.24169E+03  6.48416E+01 -2.12892E+03  2.24998E+02
  2.15825E+03  1.37024E+03 -3.02850E+01 -3.13876E+03  6.17836E+03 -4.18011E+03 -6.55410E+02  2.92843E+03
 -1.80151E+03  2.26727E+03  3.32392E+03 -5.50269E+02 -2.56771E+03  7.59541E+02  1.99425E+03 -3.22006E+03
 -1.77910E+03  6.38269E+03  7.69773E+02  1.73697E+02 -4.10861E+03 -3.75375E+03  1.73598E+02 -1.75688E+03
  1.90136E+01 -3.03509E+03  1.69866E+03  9.45857E+02  5.66728E+03 -1.68385E+03  1.93587E+03  5.29337E+03
  4.67497E+03 -2.88493E+03 -8.58719E+02 -1.23375E+02 -1.00037E+03  6.22441E+02  5.13449E+02 -1.00226E+03
