 $NMID ID='MM_0lb_SNR50_16hz_g40_76.RAW', FMTDAT='(8E13.5)'
 TRAMP=1., VOLUME=1. $END
  3.13674E+05  2.65855E+03  3.38462E+05  2.53967E+05  8.30547E+04  3.35929E+05 -1.34637E+05  2.53012E+05
 -1.86769E+05  8.20448E+04 -1.10739E+05 -3.93332E+04  1.50535E+03 -4.95151E+04  4.97168E+04 -4.29756E+02
  3.58135E+04  5.19780E+04 -2.03394E+04  7.72209E+04 -5.97577E+04  5.79540E+04 -8.58211E+04  2.96952E+04
 -7.90254E+04 -1.17306E+04 -5.92249E+04 -5.08625E+04 -1.62656E+04 -6.50275E+04  2.93304E+04 -4.47852E+04
  3.63759E+04  3.57567E+03  1.55700E+04  4.76081E+04 -3.18693E+04  4.78234E+04 -6.58557E+04 -4.75886E+03
 -5.23936E+04 -5.86531E+04 -7.16432E+03 -7.51282E+04  3.32859E+04 -5.32472E+04  4.44218E+04 -1.65802E+04
  4.20494E+04  1.18747E+04  3.31374E+04  2.46610E+04  1.46296E+04  2.87009E+04 -7.61512E+03  2.32590E+04
 -2.43033E+04  1.08694E+04 -1.97510E+04 -7.95715E+03  5.75194E+03 -5.52522E+03  1.84366E+04  1.03357E+04
  6.00772E+03  3.10452E+04 -3.31948E+04  3.24110E+04 -5.96376E+04  1.91873E+03 -5.59607E+04 -4.28746E+04
 -1.10181E+04 -6.00938E+04  3.60762E+04 -4.20877E+04  5.50986E+04 -4.03249E+03  3.44305E+04  3.16259E+04
 -6.39538E+03  3.26818E+04 -2.49713E+04  1.21733E+04 -2.56075E+04 -4.74760E+03 -1.64188E+04 -1.15919E+04
 -4.04604E+03 -9.86844E+03  3.90278E+01 -1.59001E+04  1.49118E+03 -2.68856E+04  1.21619E+04 -1.66557E+04
  1.29094E+04  5.66725E+03 -8.69675E+03  1.34838E+04 -1.81610E+04 -8.82388E+02 -6.86566E+03 -2.88046E+04
  2.07931E+04 -4.02856E+04  4.15922E+04 -1.55993E+04  4.36508E+04  1.76343E+04  1.57496E+04  4.15917E+04
 -1.59297E+04  3.17515E+04 -2.43252E+04  2.29861E+03 -1.16371E+04 -3.09650E+04  2.28084E+04 -2.95152E+04
  4.10699E+04 -7.88223E+03  3.36845E+04  2.38552E+04  1.02126E+04  4.61889E+04 -8.20337E+03  4.62146E+04
 -2.38181E+04  2.81912E+04 -3.60027E+04  7.14091E+03 -3.98034E+04 -8.94558E+03 -2.20399E+04 -3.30944E+04
  2.49258E+03 -3.80350E+04  3.36424E+04 -1.71913E+04  2.74284E+04  1.07395E+04  6.18998E+03  1.98483E+04
 -1.44085E+04  1.21198E+04 -1.26143E+04 -9.69055E+03  6.38224E+03 -1.41918E+04  1.78979E+04  4.28047E+03
  1.35671E+04  2.45970E+04 -6.05998E+03  2.17230E+04 -2.10068E+04  9.45313E+03 -2.60229E+04 -6.96133E+03
 -1.58254E+04 -2.11071E+04 -8.04468E+03 -1.78607E+04  3.37491E+03 -1.41797E+04  1.05265E+04 -1.56374E+04
  2.36789E+04 -1.00623E+04  2.92092E+04  5.09119E+03  2.27529E+04  1.72264E+04  4.23955E+03  3.38882E+04
 -1.55575E+04  2.73050E+04 -3.03305E+04  1.35517E+04 -1.82334E+04 -5.84366E+03 -4.35576E+03 -1.24297E+04
  3.00892E+03 -2.45271E+03 -8.73612E+01  1.18770E+04 -1.75639E+04  4.96749E+03 -1.41306E+04 -1.03247E+04
 -8.01331E+03 -1.55299E+04  3.95697E+03 -2.01244E+04  1.16592E+04 -1.00293E+04  1.43918E+04 -3.97143E+03
  7.84691E+03  1.65636E+04 -4.22343E+03  1.56831E+04 -1.06928E+04  8.62106E+03 -1.76478E+04 -4.26047E+03
 -1.36498E+04 -1.59749E+04 -3.46024E+03 -1.78589E+04  1.31584E+04 -1.62146E+04  1.66562E+04 -7.46293E+03
  1.38878E+04 -2.83006E+02  1.33611E+04  3.63618E+03  3.06543E+03  2.33851E+03  8.03088E+03 -3.42132E+03
  1.60303E+04  1.42861E+03  1.58327E+04  1.34589E+04  6.86893E+03  2.69503E+04  1.44450E+03  2.73832E+04
 -1.80280E+04  2.59989E+04 -2.91676E+04  1.34058E+04 -2.68788E+04 -4.40813E+03 -2.67130E+04 -1.99893E+04
 -1.01520E+04 -2.09427E+04  9.44247E+03 -2.22595E+04  1.89222E+04 -5.67495E+03  1.81894E+04  2.33679E+03
  6.95087E+03  1.20996E+04 -6.56963E+03  1.01412E+04 -8.95600E+03  1.56074E+03 -7.05168E+03 -8.24192E+03
 -2.31170E+03 -1.25794E+04  9.58552E+03 -1.14444E+04  9.67238E+03 -2.30922E+03  1.26603E+03  4.14231E+03
 -8.73416E+03  4.94613E+03 -1.65597E+03 -4.24377E+03 -1.80288E+02 -1.24561E+04  8.55284E+03 -1.15734E+04
  1.39229E+04 -9.38475E+03  1.22194E+04  1.47652E+03  1.31215E+04  8.90595E+03  5.04130E+03  1.40803E+04
 -4.17781E+03  2.16383E+04 -1.05489E+04  1.14058E+04 -1.18861E+04  4.07725E+03 -1.32596E+04 -5.96996E+03
 -6.75554E+03 -1.32000E+03  2.74759E+03  1.91797E+03 -4.84831E+02  2.59233E+03 -5.65276E+03  1.00414E+03
 -9.49220E+03 -2.79944E+03 -7.55166E+03 -7.27675E+03 -4.65714E+03 -1.07570E+04  5.25913E+03 -8.78698E+03
  5.07712E+03  2.35085E+03  6.20680E+03  2.44052E+03 -4.43710E+02  9.80476E+02 -1.12393E+03 -1.52374E+03
 -5.82401E+03 -8.22747E+03 -7.71662E+02 -7.21045E+03  5.62534E+03 -1.27825E+04  1.21127E+04 -2.33538E+03
  9.67053E+03  4.21047E+02  1.10708E+04  1.25073E+04  4.10534E+03  1.38378E+04 -3.74208E+03  1.10491E+04
 -3.86704E+03  6.82949E+03 -5.30765E+03 -3.85997E+03 -1.07450E+03 -1.98577E+03  4.85280E+03 -1.05996E+03
  4.51133E+03  4.42229E+03  3.40810E+03  6.14183E+03 -3.36605E+03  6.57424E+03 -1.28118E+04  2.95019E+03
 -2.15465E+03 -5.76987E+03  7.04578E+03 -9.19439E+03  4.82381E+03 -3.59168E+03 -8.11248E+01 -3.21919E+03
 -1.91569E+03  3.52089E+02 -8.05054E+03  1.05357E+03 -4.46141E+03  1.05221E+03 -5.06619E+03 -9.89969E+02
 -2.70811E+03 -6.51488E+03  4.06903E+03 -1.21983E+04  3.73212E+03 -4.36765E+03  4.19855E+03  1.90507E+03
  4.10723E+03  6.59074E+03 -6.67076E+03  8.89450E+03 -1.40955E+03  6.20734E+03 -5.76565E+03 -1.05351E+03
 -9.94203E+03 -4.71364E+03 -2.73367E+03 -8.79268E+03  3.94516E+03 -1.91618E+03  5.47826E+03 -3.12165E+02
  1.63344E+03 -3.66714E+03 -2.21988E+03  1.43337E+03  2.18511E+02  2.20766E+03 -3.83730E+03 -6.03885E+01
 -5.59820E+02 -2.30049E+03  8.12232E+03 -5.90783E+03  8.81100E+03  7.81685E+03  7.89544E+03  5.34334E+03
  1.40823E+02  1.11622E+04 -5.34509E+03  1.25756E+04 -9.08881E+03  8.60274E+00 -9.54603E+03 -5.77948E+03
 -7.43718E+03 -6.88881E+03 -2.13148E+03 -7.94546E+03  4.34016E+03 -9.14310E+02  3.88578E+03 -1.94236E+03
  3.92426E+03 -8.38407E+02  1.30439E+03  1.03241E+03  5.57422E+03 -2.58699E+03  4.91441E+03  3.71531E+03
  9.29597E+03  6.33059E+02  3.02270E+03  6.39328E+03 -3.57862E+03  1.44874E+02 -6.08847E+03  1.71774E+03
 -6.12959E+03 -2.40544E+03 -7.18293E+03 -5.61707E+03  3.71500E+02 -8.92518E+03  1.02561E+03 -1.27196E+04
  2.92339E+03 -2.46084E+03  6.59414E+03 -3.44785E+03  7.13179E+03  1.18280E+03  3.27131E+03  6.89295E+03
 -4.22183E+03  3.50408E+03 -7.52177E+03  1.96199E+03 -1.62925E+03 -1.81320E+03  2.72506E+03  6.33784E+02
 -5.72676E+02 -1.53578E+03  1.76648E+03 -4.92287E+03 -2.27739E+03  5.01404E+02 -2.24969E+03  2.85726E+03
 -1.16161E+03 -6.52449E+03  3.02859E+03 -3.77785E+03  4.81200E+03 -3.07389E+03  2.64513E+03 -1.74886E+03
  5.00388E+03  3.28730E+03  3.45501E+03  3.66656E+03 -1.74734E+02  4.33361E+03 -9.20210E+03  2.11468E+03
 -4.43977E+03 -6.25519E+00 -2.90038E+03 -6.74291E+02  1.46807E+02 -4.81402E+03  1.25643E+03 -1.59181E+03
  9.15211E+02 -5.85471E+03  4.82386E+03  2.43533E+03 -2.16433E+03  1.83046E+03  9.97439E+02  2.22862E+03
  4.34794E+03 -3.66576E+02  5.67283E+03  2.42563E+03  3.74381E+03  4.87560E+03 -2.32567E+03  3.36335E+03
 -1.79221E+03  2.05752E+03 -1.89549E+03  8.64789E+03 -5.35921E+03  4.62285E+03 -9.36101E+03 -9.72526E+02
 -3.57687E+03 -6.60426E+03  4.37453E+02 -8.12165E+03 -1.26548E+03  3.59702E+01  9.44643E+02 -3.37075E+03
  6.22374E+03  7.99194E+03  2.01158E+03  3.30071E+03  2.01369E+03  1.81387E+02 -3.25453E+03 -3.21789E+03
 -2.85086E+03 -3.98424E+03  6.17087E+03  5.90439E+01  3.79288E+03 -7.34886E+02 -1.26691E+03  1.71143E+03
  4.01354E+03 -2.24674E+03  3.42571E+03 -1.31787E+03  2.70371E+03  3.68539E+03  3.99295E+03  5.08324E+02
 -1.61842E+03  4.65692E+03  4.61396E+03 -1.34781E+03  6.43101E+02  2.56833E+03  1.65703E+03  8.41296E+03
 -3.65000E+03  3.49203E+03 -3.27818E+03 -3.37658E+02 -2.63973E+03  1.43721E+03 -4.47237E+03 -2.25143E+03
 -4.79284E+03 -2.30743E+03 -2.48994E+03 -4.82560E+03  9.62472E+02 -2.00213E+03 -1.97798E+03  4.58127E+03
 -5.47001E+03  1.28217E+03 -4.61071E+03  5.93302E+02 -1.01626E+03  1.26313E+03  1.40767E+03 -4.91254E+03
  2.68984E+01 -2.40174E+03 -2.01354E+03 -4.13491E+03  3.86150E+03 -1.72592E+03 -1.45718E+03  3.64785E+03
  3.09823E+03 -1.73420E+03  1.04205E+03  3.86757E+03  1.05292E+03 -2.60471E+03  7.25012E+02  4.90074E+01
  3.05870E+03  7.23251E+02  2.41023E+03  1.97032E+03  3.62694E+03  3.39188E+03 -2.13740E+03  5.29456E+03
  2.66931E+02  2.02662E+03 -1.76626E+03  2.18971E+03 -1.65627E+02 -8.66693E+03 -5.99144E+02  4.17114E+02
 -2.24081E+03 -5.77762E+02  3.45756E+03  4.67160E+03  8.01780E+02  2.33006E+03 -5.57632E+03 -4.50015E+03
 -2.21231E+02  4.81830E+02 -4.41405E+03 -4.72928E+03  3.86501E+03  4.83603E+02  2.05994E+03 -2.29699E+03
 -1.99424E+03  2.22191E+03 -2.14391E+03  2.29410E+03 -5.42420E+03 -3.50667E+02 -4.81171E+02 -1.38466E+03
 -6.25446E+02  2.70905E+03  1.21123E+01 -2.93496E+03  3.17933E+02 -2.69794E+03 -3.03203E+02 -2.79426E+02
  3.00709E+02  6.53844E+02  3.04368E+02  3.53579E+02  4.11646E+03  5.30851E+03 -6.33449E+02  6.77789E+02
 -1.66915E+03  7.82468E+02  1.08131E+03 -4.80336E+03  8.88113E+02 -4.71180E+03  8.92592E+02  2.43284E+03
 -3.74604E+03  5.81424E+01 -2.89648E+02  3.01407E+03  4.29057E+03  1.05848E+01  3.12259E+03 -4.04057E+02
  2.72314E+03  1.23902E+03  3.34021E+03  2.01181E+03 -6.20916E+01  6.47711E+03 -3.67489E+03  2.41458E+03
  1.28478E+03  5.45375E+03 -2.15610E+02  1.77256E+03  1.83448E+03  9.50033E+02 -4.93325E+03 -6.94033E+01
  1.18063E+03 -3.49622E+03 -2.14333E+03  5.59409E+02  4.68243E+03  1.65847E+03 -1.51689E+03 -1.39641E+03
  3.19735E+02  1.52990E+03  2.53582E+03  6.94297E+03 -8.93496E+02  2.28415E+03  1.25881E+03  4.05234E+02
  2.50549E+03  1.59897E+03  1.23539E+03  7.75685E+02 -6.02556E+02 -5.67350E+01 -2.56684E+03  3.09546E+03
 -4.86219E+01  1.66124E+03 -7.25391E+02  4.27970E+03 -3.51844E+03 -5.98648E+03  1.91761E+01  1.30602E+03
  4.55481E+03 -1.10722E+03  4.54630E+02  3.33041E+02 -1.11726E+02 -1.49951E+03 -5.35180E+02 -1.28904E+03
  1.31994E+03 -9.13790E+02  1.10370E+03 -3.56592E+02  5.26952E+02  2.82420E+03 -1.63792E+03 -1.43011E+03
  1.61805E+02  2.44720E+03  1.23816E+03 -3.36203E+03  1.87331E+03  2.00226E+03 -5.28350E+02 -1.86899E+02
 -2.56172E+03  3.14769E+03 -2.81306E+03 -3.18606E+03  7.90869E+01 -5.21980E+03  3.94796E+03 -2.35861E+03
  5.12528E+03 -1.83447E+03  1.68113E+03  1.60808E+03 -4.04388E+03 -2.57599E+02 -3.59112E+03  5.69662E+02
