 $NMID ID='MM_0lb_SNR50_8hz_g45_75.RAW', FMTDAT='(8E13.5)'
 TRAMP=1., VOLUME=1. $END
  3.12109E+05 -2.94289E+03  3.39476E+05  2.47617E+05  8.32076E+04  3.40756E+05 -1.35034E+05  2.48713E+05
 -1.93143E+05  8.28919E+04 -1.13483E+05 -2.62450E+04  1.36093E+02 -4.96424E+04  5.54199E+04 -2.32829E+03
  4.23130E+04  5.55550E+04 -1.44345E+04  7.37709E+04 -6.07429E+04  6.46901E+04 -9.21403E+04  3.41975E+04
 -8.98221E+04 -1.51209E+04 -5.95945E+04 -5.42396E+04 -1.43891E+04 -6.86745E+04  2.41548E+04 -4.65945E+04
  3.96639E+04  8.71094E+03  1.08115E+04  4.92636E+04 -3.32680E+04  4.88540E+04 -6.88199E+04  7.42169E+02
 -5.18573E+04 -5.89232E+04 -1.58638E+04 -8.03430E+04  3.65942E+04 -5.84255E+04  4.60754E+04 -1.56577E+04
  5.04823E+04  1.15944E+04  3.21984E+04  2.59081E+04  2.15243E+04  2.39797E+04 -3.95505E+03  2.44718E+04
 -2.07688E+04  1.24164E+04 -2.19291E+04 -1.14918E+04  1.12843E+04 -7.91212E+03  1.98417E+04  9.53596E+03
 -5.22762E+02  3.44704E+04 -3.27863E+04  3.11096E+04 -6.62684E+04 -7.07981E+03 -5.40182E+04 -3.96635E+04
 -1.63640E+04 -6.30733E+04  3.98049E+04 -4.99331E+04  6.15656E+04 -7.62200E+03  3.64469E+04  3.98990E+04
 -4.48542E+03  3.86753E+04 -3.49278E+04  1.69800E+04 -3.00609E+04  1.66327E+03 -8.47559E+03 -6.65201E+03
 -1.04456E+04 -1.73086E+04  6.30206E+03 -1.61756E+04  1.18403E+04 -1.61097E+04  1.93315E+04 -1.47985E+04
  1.26806E+04  9.45307E+03 -9.59525E+03  8.32124E+03 -1.91673E+04 -4.33137E+03 -1.05257E+04 -3.17554E+04
  2.65411E+04 -4.93955E+04  4.46117E+04 -2.07703E+04  4.69592E+04  2.54747E+04  6.72978E+03  4.85561E+04
 -1.64211E+04  3.15130E+04 -3.08975E+04  3.04494E+03 -5.18531E+03 -2.78073E+04  2.99216E+04 -3.88707E+04
  4.14534E+04 -1.28669E+04  3.96429E+04  2.71357E+04  1.89052E+04  5.03784E+04 -1.07283E+04  5.27897E+04
 -3.55353E+04  4.04134E+04 -5.07665E+04  1.09490E+04 -4.23813E+04 -2.45453E+04 -2.52001E+04 -3.40379E+04
  7.72611E+03 -4.14935E+04  3.29337E+04 -2.26286E+04  2.86508E+04  1.33348E+04  5.36854E+03  2.25227E+04
 -1.20276E+04  6.30641E+03 -9.29187E+03 -1.08376E+03  1.15678E+04 -1.16065E+04  1.78022E+04 -3.20624E+02
  1.42980E+04  2.25907E+04 -7.76448E+02  2.73650E+04 -2.06930E+04  1.21111E+04 -3.49756E+04 -6.79641E+03
 -2.64962E+04 -2.37517E+04 -1.81805E+04 -3.16236E+04  1.11769E+04 -2.28191E+04  2.22533E+04 -2.95104E+04
  3.82879E+04 -1.37252E+04  3.42190E+04  2.26333E+03  2.91265E+04  2.97372E+04  4.80785E+03  4.51406E+04
 -1.63716E+04  3.86774E+04 -2.79086E+04  1.47183E+04 -1.64189E+04 -1.29361E+04 -5.95185E+03 -1.71538E+04
 -4.22230E+03  2.12114E+03 -8.81485E+03  6.85790E+03 -2.03250E+04  8.75521E+03 -1.72469E+04 -1.87207E+04
 -1.27051E+04 -2.18595E+04  1.37373E+04 -2.18281E+04  1.11870E+04 -1.80877E+04  2.49345E+04 -2.05425E+03
  1.57141E+04  9.61275E+03 -4.65378E+03  2.03908E+04 -1.28477E+04  2.00005E+04 -2.63192E+04 -1.13656E+04
 -1.88527E+04 -2.54707E+04 -1.40277E+03 -3.41148E+04  1.34909E+04 -2.16014E+04  3.16524E+04 -1.47540E+04
  2.09304E+04  2.33404E+03  1.55631E+04  3.44457E+03  7.84778E+03  1.23446E+04  1.57600E+04 -2.82507E+03
  2.07216E+04  2.02313E+02  2.99126E+04  2.20372E+04  1.45460E+04  4.05999E+04 -3.94585E+03  4.01745E+04
 -2.14532E+04  3.74858E+04 -3.83472E+04  1.68542E+04 -5.36629E+04 -2.89480E+03 -3.65333E+04 -2.56094E+04
 -1.14235E+04 -4.43874E+04  1.85141E+04 -3.92315E+04  2.57327E+04 -1.31579E+04  2.97523E+04  9.16447E+03
  7.30132E+03  2.03755E+04 -5.65537E+03  1.24066E+04 -2.28632E+04  4.33691E+03 -1.41734E+04 -8.55603E+03
 -2.17741E+03 -1.96115E+04  6.27590E+03 -7.89597E+03  1.62562E+04 -5.11168E+03  1.75066E+03  7.62080E+03
 -9.53551E+03  4.92762E+03 -8.20261E+03 -1.16595E+04 -6.19693E+03 -2.13255E+04  1.30452E+04 -2.00044E+04
  2.66628E+04 -1.47105E+04  2.74002E+04  1.11162E+03  2.33447E+04  2.26421E+04  1.78501E+04  3.34292E+04
 -8.95318E+03  4.02641E+04 -1.64968E+04  1.90394E+04 -1.30725E+04 -6.07164E+03 -1.82114E+04 -2.56021E+03
 -3.51868E+03 -1.34684E+04 -5.65054E+02 -2.39254E+03 -5.95496E+03 -1.49061E+03 -6.74623E+03  2.84740E+03
 -1.36054E+04  3.11758E+03 -1.75830E+04 -1.61850E+04 -7.74728E+03 -2.08250E+04  2.57574E+03 -1.31469E+04
  1.76990E+04 -4.16386E+03  1.82185E+04  2.62054E+03  2.57282E+03  6.96376E+03 -7.70117E+03 -2.21306E+03
 -9.08720E+03 -1.84253E+04 -6.50914E+03 -1.82589E+04  1.34708E+04 -2.47506E+04  2.19248E+04 -5.57213E+03
  2.52987E+04  2.16184E+03  1.67458E+04  2.01163E+04  2.25129E+03  1.46506E+04 -1.05740E+04  2.09666E+04
 -5.60686E+03  1.26090E+04 -1.02744E+04 -6.20958E+03  1.16446E+03 -8.52500E+03  1.18606E+04  1.18442E+03
  1.06504E+04  8.17860E+03  5.20774E+03  1.28902E+04 -5.69899E+03  1.20126E+04 -2.25151E+04  4.14133E+03
 -9.01305E+03 -8.73067E+03 -5.68904E+03 -1.82430E+04  1.21963E+04 -2.69602E+03  1.49288E+04  6.15486E+03
 -5.11464E+02  1.24004E+04 -9.09460E+03  1.14534E+04 -1.36354E+04 -1.32181E+03 -1.31113E+04 -4.80318E+03
 -8.27301E+03 -6.68989E+03  5.93753E+03 -1.76889E+04  1.57104E+04 -1.57279E+04  1.39582E+04  4.94839E+03
  8.24298E+03  1.36953E+04  1.18013E+03  1.34063E+04 -1.59169E+04  9.52986E+03 -1.22478E+04  3.09727E+03
 -1.54948E+04 -1.71839E+04  8.33795E+03 -1.59109E+04  7.03970E+03 -5.22822E+03  8.85527E+03 -6.58177E+03
  3.69814E+03  6.73320E+03  4.11387E+03 -5.27150E+03  2.63660E+03 -4.84344E+03 -3.74085E+03 -9.75456E+03
  1.16516E+04  3.16582E+01  2.59601E+04 -4.88456E+03  1.77997E+04  1.59084E+04  1.04662E+04  2.33008E+04
 -3.18218E+03  2.43595E+04 -2.41088E+04  1.48335E+04 -2.61507E+04  8.88656E+02 -2.43458E+04 -7.40280E+03
 -8.59291E+03 -1.95645E+04  2.79531E+03 -1.00141E+04  8.30881E+02 -1.07596E+04  4.76083E+03 -7.63538E+03
  3.94470E+03 -1.89801E+03  8.27532E+03 -4.79326E+03  2.26408E+03  3.94467E+02  1.30565E+04 -1.61202E+03
  1.61494E+04 -1.77645E+03  1.35947E+04  1.12581E+04  5.99618E+02  9.84110E+03 -1.22528E+04  8.73990E+03
 -1.53580E+04  2.41971E+03 -1.25028E+04 -1.11141E+04  1.89833E+03 -1.78759E+04  9.38552E+03 -2.03536E+04
  1.98708E+04 -6.31823E+03  2.47903E+04 -2.87033E+03  1.21087E+04  1.68947E+04  2.31907E+03  1.80955E+04
 -9.72663E+03  1.64714E+04 -7.83687E+03  2.43337E+03 -3.63906E+03 -2.04855E+03 -4.97856E+03 -9.98870E+03
  1.54793E+03 -3.25832E+03 -1.30982E+03  2.08126E+02 -9.83805E+02 -6.44562E+03 -5.53348E+03 -6.21423E+03
 -9.47805E+03 -1.29977E+04 -2.98810E+03 -1.82939E+04  8.74968E+03 -1.62665E+04  1.32506E+04 -2.63424E+03
  1.49705E+04  4.97485E+03  9.94440E+03  1.56384E+04 -4.83375E+03  1.34183E+04 -2.29926E+04  9.41045E+03
 -9.69594E+03 -1.82818E+03 -1.43798E+04 -1.25244E+04 -3.59962E+03 -1.27765E+04  3.85716E+03 -1.17624E+04
  3.06741E+03 -1.65779E+03  5.92103E+03  1.39466E+03  3.09879E+03 -6.00815E+02  1.88179E+03  3.68315E+03
 -9.91517E+02 -3.95370E+03  2.09710E+03  2.13743E+03 -4.67314E+03  8.24489E+03  3.12295E+03  9.39975E+03
 -1.24144E+03  1.06067E+04 -1.29656E+04  1.23953E+04 -2.16280E+04 -5.01753E+02 -1.16267E+04 -9.99952E+03
 -5.36843E+03 -1.96779E+04  5.11021E+02 -1.87584E+04  6.31194E+03 -1.17961E+04  1.99768E+04 -5.54086E+03
  1.24289E+04  8.50050E+03  7.10299E+03  8.75587E+03 -1.16402E+03  1.08369E+03 -1.09520E+04 -4.55022E+03
 -4.81161E+03 -1.36526E+04  5.17122E+03 -1.10372E+04  7.90624E+03 -1.59830E+03  8.41408E+03  6.60470E+03
  1.21213E+03  5.76759E+03  3.54455E+03  6.16404E+03 -5.21177E+03  8.62915E+03  1.04292E+03 -5.60370E+03
  4.44921E+03  2.65474E+02  5.40154E+03  5.33995E+03  3.50302E+03  1.00568E+04 -6.71094E+03  1.62957E+04
 -3.27781E+03 -5.83002E+02 -1.34664E+04  1.18933E+03 -9.63425E+03  3.64910E+03 -6.83131E+03 -7.07272E+03
  4.16233E+03 -7.16941E+03  1.09462E+04 -2.03769E+03  1.04595E+04  5.06714E+03 -1.16642E+04  1.43186E+04
 -6.50522E+03  4.39667E+03 -1.27881E+04 -5.13287E+03  3.94866E+02 -1.37367E+04  1.83341E+03 -1.38069E+04
  4.00763E+03 -7.77280E+03  8.55003E+03  4.94824E+03  9.18385E+03  1.04966E+04  2.52988E+03  1.97447E+03
 -6.86004E+03  5.90917E+02 -7.29391E+02 -4.36165E+03 -8.01270E+02 -9.84166E+03  6.24051E+03 -5.63684E+03
  1.25989E+04  3.24856E+03  8.80149E+03  2.74252E+02  8.42774E+03  9.55245E+03 -7.08657E+03  1.00232E+04
 -1.68196E+04  4.09496E+03 -7.25259E+03  1.42872E+03 -7.03589E+03 -3.08736E+03 -3.83460E+03 -6.94135E+03
  6.54077E+03 -6.69393E+02  1.52990E+03  1.33689E+03  1.63297E+03  9.36151E+03  2.15288E+03  9.77004E+02
 -1.05399E+04 -1.96731E+02 -6.22705E+03 -1.67566E+02 -1.60955E+03  2.69377E+03 -5.48964E+03  2.78022E+03
 -5.36644E+03  3.31002E+03 -1.09146E+04  2.89952E+02 -1.27558E+04  2.32775E+03 -4.81052E+03 -1.05777E+04
 -2.58633E+03 -1.14287E+04 -1.59203E+03 -1.69942E+04  1.23559E+04 -1.23247E+04  2.02985E+04  1.86724E+03
  1.21648E+04  6.87419E+02  9.76867E+03  9.66586E+03  4.02375E+03  1.61013E+04 -3.38927E+03  5.64470E+03
 -6.75857E+03  3.53015E+03 -9.70448E+03  1.10271E+03 -3.88329E+03  5.77818E+02 -1.90385E+03  1.45858E+03
 -1.33776E+02 -4.94864E+03 -3.62848E+03 -3.92473E+02  1.37668E+03 -2.16757E+03 -3.04465E+03  4.42158E+02
 -8.62752E+02 -4.85840E+03  5.63848E+03  8.68950E+02  8.77131E+03  1.46514E+03  9.36594E+02  1.29113E+04
 -3.00790E+03  7.96366E+03 -8.69180E+03  8.08840E+03 -1.43110E+04 -3.48999E+03 -1.15515E+04 -4.86396E+03
 -6.53577E+03 -7.86363E+03  1.01070E+04 -1.00402E+04  7.40015E+03 -6.25560E+03 -1.99702E+02  5.47766E+03
  2.03455E+03  4.40501E+03  2.00805E+03  9.67486E+03  5.55429E+02  5.96814E+03  8.86533E+03 -5.94061E+03
  1.07548E+04 -6.05639E+03  5.01940E+03  4.06183E+03  2.27620E+03  4.79539E+03 -1.99849E+03  3.01743E+03
 -9.94991E+03  9.83555E+03 -7.49687E+03  2.72247E+03 -6.28535E+03 -1.13332E+04  8.28461E+02 -8.67169E+03
  6.55158E+03 -1.46514E+04  1.70106E+04 -6.45478E+03  1.31405E+04  3.68289E+03  9.26977E+03  5.25413E+03
  2.40212E+03  1.42205E+04 -5.69001E+03  6.43559E+03 -3.39491E+03  6.03491E+03 -8.20087E+03 -4.36600E+03
 -7.06391E+03  3.75763E+03  7.22430E+02  2.69846E+03 -8.03730E+02  3.36945E+03 -8.40352E+03 -7.25978E+03
 -8.73239E+03 -5.72099E+03  5.27919E+03 -1.15868E+04  8.67243E+02 -3.65142E+03  7.48095E+03 -3.28502E+03
  1.12534E+04  2.97394E+03  5.77686E+03  5.21947E+03  4.95843E+03  5.29196E+03 -1.04740E+04  3.21585E+03
