 $NMID ID='MM_0lb_SNR50_7hz_g55_95.RAW', FMTDAT='(8E13.5)'
 TRAMP=1., VOLUME=1. $END
  3.12313E+05 -4.86128E+03  3.32042E+05  2.50238E+05  8.91865E+04  3.42438E+05 -1.37420E+05  2.54867E+05
 -1.97762E+05  8.64799E+04 -1.10373E+05 -2.95794E+04  8.56093E+03 -5.14952E+04  5.33209E+04 -1.28548E+03
  3.14619E+04  5.16713E+04 -1.83176E+04  8.40768E+04 -6.50290E+04  5.53580E+04 -8.39608E+04  3.20615E+04
 -8.06644E+04 -1.50966E+04 -5.71829E+04 -5.64796E+04 -1.70044E+04 -7.34422E+04  2.66577E+04 -4.82216E+04
  4.21824E+04 -2.83372E+03  1.64643E+04  5.32648E+04 -3.30810E+04  5.05381E+04 -7.18593E+04 -1.02006E+03
 -5.72380E+04 -5.02148E+04 -8.76469E+03 -8.31467E+04  4.01196E+04 -5.56780E+04  5.05337E+04 -2.37592E+04
  3.50382E+04  1.85950E+04  3.48672E+04  3.06945E+04  1.82193E+04  3.43739E+04 -8.13395E+03  2.69941E+04
 -2.59323E+04  9.88654E+03 -1.37115E+04 -1.67087E+03  5.92146E+03 -5.96300E+03  2.50414E+04  1.72722E+04
  7.57854E+03  3.26034E+04 -3.71664E+04  3.52731E+04 -6.78722E+04  1.05636E+04 -6.81823E+04 -4.95651E+04
 -1.12235E+04 -6.44667E+04  4.32642E+04 -4.32148E+04  6.22042E+04 -9.61195E+02  3.84295E+04  3.61789E+04
 -1.96148E+03  4.65225E+04 -3.62206E+04  2.27473E+04 -4.29879E+04 -4.20855E+03 -1.33229E+04 -7.29276E+03
 -1.08248E+04 -1.94216E+04  4.84328E+03 -2.11047E+04  1.61608E+04 -2.31475E+04  1.88920E+04 -8.81721E+03
  1.75450E+04  9.54141E+03 -1.15110E+04  1.31989E+04 -2.71909E+04 -6.74850E+03 -1.39865E+04 -4.01432E+04
  2.31798E+04 -4.68367E+04  5.53469E+04 -1.28414E+04  4.70106E+04  1.98906E+04  1.63084E+04  4.89227E+04
 -1.62097E+04  3.35256E+04 -3.48394E+04 -1.13164E+03 -6.18891E+03 -2.70931E+04  2.48343E+04 -3.58093E+04
  5.25837E+04 -1.06887E+04  4.34839E+04  3.37256E+04  2.45482E+04  5.85103E+04 -1.36332E+04  5.90981E+04
 -3.39227E+04  3.54908E+04 -4.37253E+04  8.24290E+03 -5.04858E+04 -2.00967E+04 -2.23325E+04 -4.43991E+04
  1.36161E+04 -4.44442E+04  2.53917E+04 -2.05670E+04  3.44183E+04  6.08615E+03  1.60464E+04  2.24154E+04
 -8.02814E+03  1.72611E+04 -9.54182E+03 -8.85343E+03  2.25851E+03 -1.16449E+04  2.26815E+04  6.42527E+03
  1.48364E+04  1.73898E+04  1.02799E+03  2.94396E+04 -2.00737E+04  1.40451E+04 -3.41245E+04 -5.41266E+03
 -2.83512E+04 -1.65969E+04 -1.60414E+04 -2.80739E+04  5.99277E+03 -3.42805E+04  2.52577E+04 -2.54301E+04
  3.82895E+04 -7.73546E+03  3.06954E+04  9.11779E+03  2.52965E+04  2.60996E+04  1.23514E+04  4.49875E+04
 -2.77480E+04  3.33070E+04 -2.80097E+04  1.14844E+04 -2.45268E+04 -1.28819E+04 -6.88530E+03 -9.16023E+03
  6.76083E+02  3.84800E+03 -8.32138E+03  8.71284E+03 -2.45809E+04  6.73425E+03 -2.29277E+04 -1.75780E+04
 -1.09750E+04 -2.72239E+04  8.07729E+03 -3.07636E+04  2.49334E+04 -1.45391E+04  2.22481E+04 -1.27295E+04
  1.62529E+04  1.32276E+04 -7.11951E+02  3.08068E+04 -2.00058E+04  1.09219E+04 -2.48848E+04 -3.06803E+03
 -2.40736E+04 -2.66807E+04 -7.98916E+02 -3.49588E+04  1.28044E+04 -3.03139E+04  2.53854E+04 -1.78042E+04
  2.51397E+04 -8.40125E+03  2.57226E+04  6.71651E+03  1.11923E+04  3.04054E+03  1.11476E+04  4.94612E+03
  3.21123E+04  1.60354E+04  3.32710E+04  2.07942E+04  1.92951E+04  4.32503E+04 -9.68809E+03  4.98631E+04
 -2.98055E+04  4.55207E+04 -4.74813E+04  2.21111E+04 -4.87009E+04 -1.75893E+03 -4.59663E+04 -2.97771E+04
 -1.17414E+04 -4.61719E+04  1.62749E+04 -4.00316E+04  2.25194E+04 -2.74748E+04  3.02639E+04  1.20018E+03
  1.69634E+03  2.37826E+04 -6.96608E+03  1.76590E+04 -2.69587E+04  9.92505E+03 -1.66552E+04 -1.35202E+04
  3.03243E+03 -1.55998E+04  1.63118E+04 -1.67228E+04  1.30777E+04  1.92057E+02  6.78902E+03  2.26539E+03
 -1.21116E+04 -2.28266E+03 -2.21621E+04 -5.90568E+03 -2.72203E+03 -3.33385E+04  1.50253E+04 -2.37716E+04
  2.53448E+04 -9.60927E+03  3.75333E+04 -2.35261E+03  3.44032E+04  2.10995E+04  1.23446E+04  3.64226E+04
 -1.02218E+04  3.62222E+04 -2.96783E+04  2.85799E+04 -2.13795E+04  1.12693E+04 -1.98510E+04 -3.62801E+03
 -6.18001E+03 -1.30727E+04  9.20845E+02  1.98286E+03 -7.69533E+03 -1.64014E+03 -5.79011E+03  6.66745E+03
 -1.55485E+04  1.91311E+03 -1.22332E+04 -7.29525E+03 -1.48802E+03 -1.58615E+04  4.24333E+03 -1.29142E+04
  9.33666E+03 -7.03957E+03  1.20437E+04 -8.91756E+02  2.17613E+03  8.14145E+03 -3.34452E+03  1.01659E+03
 -6.34112E+03 -1.40060E+04 -1.14405E+04 -2.19361E+04  9.61707E+03 -1.71481E+04  2.35294E+04 -1.54953E+04
  2.21582E+04  4.45083E+03  1.26951E+04  1.57096E+04 -8.91151E+03  2.14925E+04 -1.19815E+04  1.96402E+04
 -1.69217E+04  9.07737E+03 -6.00586E+03 -9.79481E+03  6.14282E+03 -1.43379E+03  5.56967E+03 -5.98356E+02
  8.34359E+03  1.02308E+04 -1.42031E+03  1.64535E+04 -1.25081E+04  1.02180E+04 -1.66142E+04  2.74423E+03
 -1.27212E+04 -5.00745E+03 -5.07665E+03 -1.07453E+04  1.22690E+04 -1.09397E+04  1.55793E+04  1.47664E+03
  3.74732E+03  1.02899E+04 -1.27395E+04  1.18084E+04 -1.69496E+04  2.95436E+03 -1.61380E+04  1.93692E+03
 -9.62640E+03 -2.06168E+04  7.88334E+03 -2.56742E+04  1.69571E+04 -9.61155E+03  1.95166E+04  4.42953E+03
  8.05373E+03  1.14083E+04 -3.26307E+02  1.57379E+04 -1.11851E+04  8.74290E+03 -1.46183E+04  3.48611E+03
 -9.55082E+03 -5.91266E+03 -4.41211E+03 -1.27019E+04  1.39853E+04 -1.31698E+04 -2.31915E+02  7.60899E+01
  7.71501E+03  4.92512E+03  3.57312E+03  7.72146E+03  4.50014E+03 -5.10447E+03 -7.24162E+03 -4.98026E+03
  7.94214E+03 -1.04702E+04  1.88847E+04  4.92709E+03  2.37936E+04  5.64680E+03  1.48910E+04  2.78599E+04
 -3.65848E+03  3.52879E+04 -3.11115E+04  2.18577E+04 -3.85868E+04  1.32461E+03 -2.36251E+04 -1.34880E+04
 -1.61456E+04 -1.65164E+04 -7.44074E+03 -1.67026E+04  9.26965E+03 -4.99853E+03  1.16414E+04 -1.04716E+04
  2.57308E+03 -1.65861E+04  1.01649E+04 -8.38877E+03  7.16492E+03 -4.37548E+03  1.58933E+04  3.38886E+03
  1.82507E+04  3.79860E+03  2.84538E+03  1.15097E+04 -3.01093E+03  2.02286E+04 -6.16280E+03  6.11065E+03
 -1.23943E+04  1.94660E+03 -7.94962E+03 -6.51775E+03 -7.95680E+03 -1.98228E+04  2.67057E+03 -2.34225E+04
  2.11504E+04 -4.43076E+03  2.46800E+04  5.12874E+03  1.33364E+04  1.71800E+04 -3.81433E+03  2.72661E+04
 -1.87641E+03  1.76867E+04 -9.40149E+03  7.96111E+03 -5.07559E+03 -6.29810E+03 -6.49416E+03  5.43422E+02
  3.52605E+03 -5.02850E+03 -5.08208E+03  7.21569E+03 -6.81337E+03  6.12798E+03 -1.82642E+04 -1.98676E+03
 -9.49425E+03 -1.29244E+04  3.09870E+03 -2.04157E+04  7.45483E+03 -2.00440E+04  1.59551E+04 -4.73558E+03
  1.88518E+04  1.12122E+04  8.80140E+03  1.34773E+04 -7.59645E+03  1.90025E+04 -1.62582E+04  1.17525E+04
 -2.31103E+04  1.40424E+04 -1.02067E+04 -1.22609E+04 -2.21699E+03 -1.98279E+04  5.33467E+03 -1.60631E+04
  1.12492E+04 -8.91404E+03  1.13360E+04  1.96759E+03  7.33006E+03  7.16116E+03  5.19952E+03 -1.04073E+03
  3.59094E+02  2.20724E+03  4.20519E+03  5.62971E+03  2.01207E+03  2.20687E+03  5.14647E+03  7.23366E+03
 -2.96796E+03  1.82751E+04 -2.04420E+04  1.37731E+04 -2.76201E+04  1.13804E+04 -1.55923E+04 -5.75022E+03
 -1.26773E+04 -2.49052E+04  2.90826E+03 -1.94301E+04  1.37832E+04 -1.48100E+04  2.05040E+04  4.72299E+03
  1.87211E+04  8.06657E+03 -5.84678E+03  9.47178E+03 -6.21480E+03  2.90570E+03 -1.12232E+04  6.00822E+02
 -1.09191E+04 -9.01949E+03  1.14458E+03 -1.22208E+04  1.08793E+03 -6.06271E+03  1.04733E+04 -5.50864E+03
 -4.37025E+03  7.05227E+03 -3.55174E+03  1.90497E+03  3.41780E+03  1.93250E+03  3.46385E+03 -3.02724E+03
  5.11413E+03 -6.35891E+03  5.61269E+03  2.08269E+03  3.77160E+03  6.87472E+03 -4.21501E+02  1.35663E+04
 -5.29743E+03  1.23192E+04 -7.01685E+03  2.76598E+03 -1.10684E+04  6.16296E+03 -6.05067E+03 -1.09351E+04
  1.18042E+01 -1.56936E+04  2.39378E+03 -4.42268E+03  8.31188E+02  1.05061E+04 -1.66166E+03  2.78374E+03
 -9.55286E+03  9.27823E+02 -1.29862E+04 -4.20971E+03 -5.96640E+03 -9.37787E+03 -1.52506E+03 -1.19095E+04
  9.60810E+03 -6.75932E+03  6.76459E+03  2.64719E+03  1.06768E+04  1.02472E+03 -3.93999E+03  1.40952E+04
 -7.91303E+03  2.02875E+03 -2.63057E+03 -4.95753E+03  6.49595E+03 -1.35708E+04  8.73278E+03 -6.07048E+03
  1.39346E+04  6.41719E+03  6.62080E+03  1.76108E+04  8.40617E+03  1.14588E+04 -1.34620E+04  1.56746E+04
 -4.78223E+03  6.49055E+03 -1.01928E+04 -3.73436E+03 -2.50662E+03 -1.10807E+04  2.24938E+03 -1.06126E+04
 -2.31222E+02 -6.47798E+03  3.90792E+03  8.25501E+03 -1.96882E+03  5.07963E+03  5.72828E+03  6.92290E+03
 -2.24882E+03  3.60976E+03 -2.64676E+03  5.50349E+03 -4.10237E+03  4.83011E+03 -1.14419E+04 -1.42663E+03
 -2.28067E+03  9.22199E+03 -9.97850E+03  7.29924E+03 -7.37793E+03  1.91336E+03 -1.33696E+04 -8.95199E+03
 -1.35438E+04 -1.82459E+04  2.69686E+03 -2.66703E+04  1.46650E+04 -1.11908E+04  1.92871E+04 -7.01242E+03
  2.07060E+04  8.08562E+03  1.32117E+04  1.24446E+04  3.40843E+03  1.29093E+04 -1.02162E+03  7.91900E+03
 -9.83403E+03 -1.71515E+03 -1.29754E+04 -2.64654E+03  9.74164E+02 -8.02167E+03  1.46556E+03  3.47939E+02
 -2.87137E+03  1.77974E+02 -3.52888E+03 -7.64306E+03  8.12857E+03 -1.11411E+03 -1.26753E+03 -5.51883E+03
 -6.38205E+02 -1.08159E+03  1.26209E+04 -1.48109E+03  1.20736E+04  1.29327E+04  4.65821E+03  1.67430E+04
 -1.08999E+04  1.35557E+04 -8.43570E+03  6.13752E+03 -1.47609E+04  3.79589E+03 -1.83921E+04 -9.85328E+03
 -1.36701E+03 -2.13794E+04 -2.86515E+03 -2.01272E+04  1.10909E+04 -6.54791E+03  7.62564E+03  2.80604E+03
  1.33654E+04  5.56904E+03  1.71856E+03  5.65949E+03  2.94012E+03  4.72998E+03  9.74154E+03 -7.10281E+03
  3.04091E+03 -6.59847E+03  3.38700E+03  6.26504E+03  9.72704E+03 -7.75764E+02  1.68866E+03  6.05371E+03
 -1.10963E+04  1.27845E+04 -1.45182E+04  1.06001E+04 -5.86715E+03 -4.90490E+03 -9.48171E+03 -1.20305E+04
  7.66407E+03 -1.42977E+04  8.76256E+03  5.28764E+03  2.43558E+04  2.93370E+03  9.02678E+03  1.03646E+04
 -7.24222E+03  1.78308E+04 -8.44680E+03  9.73812E+03 -6.83376E+03  5.35821E+03 -5.25992E+01  4.88701E+03
  2.10503E+03 -1.10901E+03  3.26168E+03  6.49927E+03 -7.60412E+03 -2.89297E+03 -9.92744E+03  1.61319E+03
 -5.48388E+03 -1.12327E+04 -2.18392E+03 -1.58179E+04  7.25240E+03 -1.36705E+04  7.23708E+03 -2.07772E+04
  1.12582E+04  2.20008E+03  8.68885E+03  9.55538E+03 -2.66976E+03  1.20945E+04 -7.01766E+03  3.86676E+03
