 $NMID ID='MM_0lb_SNR50_9hz_g45_96.RAW', FMTDAT='(8E13.5)'
 TRAMP=1., VOLUME=1. $END
  3.07324E+05 -2.98126E+03  3.36822E+05  2.51142E+05  8.71912E+04  3.34749E+05 -1.34079E+05  2.51776E+05
 -1.91093E+05  9.35332E+04 -1.14842E+05 -2.87715E+04 -3.51769E+02 -5.30929E+04  5.63882E+04 -1.67104E+03
  3.89341E+04  5.73606E+04 -1.38947E+04  7.04929E+04 -6.30287E+04  5.88399E+04 -8.70525E+04  2.99508E+04
 -8.10410E+04 -1.12378E+04 -5.16862E+04 -5.28181E+04 -9.63309E+03 -6.87453E+04  2.78373E+04 -4.14803E+04
  3.80295E+04  8.95282E+03  1.76537E+04  4.75407E+04 -3.30511E+04  5.04709E+04 -6.29421E+04 -2.60655E+03
 -5.42382E+04 -5.93782E+04 -2.53322E+03 -7.45694E+04  3.41449E+04 -5.76032E+04  4.80396E+04 -1.73037E+04
  4.89232E+04  1.27532E+04  3.50832E+04  2.17941E+04  1.05138E+04  3.23747E+04 -6.55368E+03  2.79935E+04
 -2.61516E+04  1.84790E+04 -1.42125E+04 -5.48895E+03  1.17693E+04 -7.60148E+03  2.01860E+04  1.34380E+04
  5.34738E+03  3.74808E+04 -3.56865E+04  3.45030E+04 -6.19702E+04  3.39240E+03 -5.81741E+04 -4.67783E+04
 -1.42805E+04 -6.99833E+04  4.43317E+04 -4.70917E+04  6.21084E+04 -1.48643E+03  3.42549E+04  3.72799E+04
 -9.16796E+03  3.97193E+04 -3.73574E+04  2.04840E+04 -3.29281E+04 -6.88110E+03 -2.06567E+04 -7.78112E+03
 -9.53149E+03 -1.40623E+04  5.48761E+02 -1.72708E+04  8.38466E+03 -2.76920E+04  1.19350E+04 -1.33954E+04
  9.99342E+03  9.26985E+03 -1.11113E+04  1.50744E+04 -2.51031E+04 -2.88640E+03 -1.82441E+04 -4.01086E+04
  2.53675E+04 -5.20343E+04  5.65629E+04 -1.93088E+04  4.65937E+04  1.59554E+04  2.49038E+04  4.64931E+04
 -1.14003E+04  3.83640E+04 -3.02488E+04  1.79952E+03 -8.20763E+03 -3.06093E+04  1.59565E+04 -3.42635E+04
  4.51138E+04 -1.09533E+04  4.15768E+04  2.57643E+04  1.87265E+04  4.81947E+04 -1.16794E+04  5.62875E+04
 -3.87911E+04  3.26363E+04 -4.84052E+04  9.09657E+03 -4.88499E+04 -1.91726E+04 -1.93298E+04 -4.45819E+04
  1.04770E+04 -3.78409E+04  2.95569E+04 -1.49370E+04  3.08691E+04  1.71480E+04  2.44995E+03  1.92245E+04
 -1.57775E+04  8.45258E+03 -1.40763E+04 -1.90118E+03  2.66535E+03 -1.56495E+04  1.86959E+04  2.42912E+03
  1.33764E+04  2.14476E+04 -9.09410E+03  3.34261E+04 -2.04813E+04  1.92815E+04 -3.08488E+04 -2.67734E+03
 -2.56039E+04 -2.00882E+04 -1.02435E+04 -2.49495E+04  6.42499E+03 -2.01797E+04  1.69382E+04 -2.52857E+04
  2.34060E+04 -1.35739E+04  3.97147E+04  5.49281E+03  3.17710E+04  2.84129E+04 -6.14049E+02  4.08426E+04
 -1.56620E+04  3.54156E+04 -2.74094E+04  6.54209E+03 -2.01183E+04 -6.86786E+03 -5.96914E+03 -1.20000E+04
  5.19184E+03  1.89165E+03 -4.12620E+03  1.04049E+04 -1.70068E+04  5.04484E+03 -1.69819E+04 -1.31888E+04
 -1.32582E+04 -2.47656E+04  1.38047E+04 -2.93536E+04  2.18737E+04 -2.57871E+04  2.96829E+04 -9.74140E+03
  1.46741E+04  1.50026E+04  3.39550E+03  2.45638E+04 -1.45938E+04  1.94100E+04 -2.50422E+04 -2.05489E+03
 -1.76251E+04 -2.22386E+04  4.20427E+02 -2.53823E+04  1.22771E+04 -1.99715E+04  2.17625E+04 -1.15518E+04
  2.19843E+04 -6.99962E+03  1.20713E+04  8.21403E+03  7.51577E+03  5.84991E+02  9.28100E+03 -3.14704E+02
  1.46379E+04 -1.95137E+03  2.47254E+04  2.29617E+04  1.48454E+04  4.17621E+04 -6.52352E+03  4.22874E+04
 -2.38126E+04  3.17485E+04 -4.57791E+04  2.39523E+04 -4.41129E+04  2.81549E+03 -3.42982E+04 -1.91830E+04
 -2.21953E+04 -2.98033E+04  1.83496E+04 -3.37356E+04  2.86177E+04 -9.39295E+03  2.07223E+04  6.40001E+03
  2.84112E+03  1.82423E+04 -1.17935E+04  1.92694E+04 -1.54670E+04  5.78077E+03 -1.63415E+04 -7.55351E+03
 -1.00252E+02 -2.32541E+04  8.97391E+03 -1.30995E+04  1.38519E+04 -2.45273E+03  3.90695E+03  7.25043E+03
 -1.25676E+04  6.01812E+03 -1.28683E+04 -6.68258E+03  2.39398E+03 -2.20735E+04  1.40797E+04 -1.83271E+04
  2.32257E+04 -1.32825E+04  2.07835E+04  5.25790E+03  2.93645E+04  1.90537E+04  9.02443E+03  2.45651E+04
 -2.30933E+03  2.26867E+04 -2.15006E+04  1.91101E+04 -1.96781E+04 -2.82145E+03 -1.41275E+04 -4.22306E+03
 -9.78996E+03 -4.75074E+03 -2.49260E+03  1.77905E+03 -7.63873E+03  6.86230E+03 -8.49272E+03  9.20782E+02
 -1.11447E+04  2.99055E+03 -1.89452E+04 -7.29409E+03 -2.30497E+03 -2.23718E+04  9.06191E+03 -1.51947E+04
  1.63340E+04 -9.11944E+03  1.00183E+04  2.69679E+03 -3.16824E+03  1.07733E+04 -1.41303E+04 -6.05064E+03
 -1.18046E+04 -1.08246E+04 -6.25867E+03 -1.10559E+04  1.14527E+04 -1.73233E+04  2.04636E+04 -9.45866E+03
  2.25786E+04  5.98255E+03  1.23348E+04  1.90299E+04  1.55871E+02  2.49399E+04 -5.01761E+03  1.85327E+04
 -6.05466E+03 -2.08715E+03 -9.95909E+03 -2.75028E+02  6.81697E+03 -5.59423E+03  1.00861E+04 -1.26405E+03
  2.68459E+03  6.17382E+03 -2.74237E+03  1.54145E+04 -1.34861E+04  1.06061E+04 -1.42352E+04  4.56749E+03
 -1.63540E+04 -7.31313E+03 -1.13633E+03 -1.30529E+04  8.04849E+03 -8.26187E+03  9.86833E+03  3.73500E+03
  4.72854E+03  1.02276E+04 -2.87305E+02  1.33256E+04 -1.31012E+04  7.56394E+03 -1.36082E+04 -1.76953E+03
 -8.25705E+03 -1.07114E+04  8.24436E+03 -1.63875E+04  6.13697E+03 -9.55985E+03  1.55782E+04  8.44094E+03
  1.09012E+04  1.81568E+04  1.80460E+03  1.82648E+04 -1.37984E+04  4.01566E+03 -1.03509E+04 -2.85794E+03
 -8.23262E+03 -1.07540E+04 -6.21472E+03 -1.35307E+04  8.08684E+03 -1.27645E+04  9.72646E+03 -6.98195E+03
 -1.45863E+03  5.08619E+03  1.36888E+02  2.36037E+03 -5.84416E+03 -8.73816E+03  4.57916E+03 -5.51961E+03
  5.44605E+03 -2.91561E+03  1.33455E+04 -6.51924E+03  1.61084E+04  1.35980E+04  7.67716E+03  2.19390E+04
 -2.81784E+03  2.70947E+04 -1.83500E+04  1.26156E+04 -2.16725E+04 -1.41301E+03 -1.59939E+04 -9.38241E+03
 -9.10145E+03 -1.21658E+04 -8.37471E+02 -1.34597E+04  6.99076E+03 -9.52314E+03  1.84094E+03 -9.06750E+03
 -2.03233E+03 -4.95879E+03  6.20100E+03 -2.76356E+03  8.33094E+03 -1.05606E+03  8.92899E+03 -1.39670E+03
  6.93659E+03 -1.91002E+03  8.71771E+03  7.20855E+03 -8.58641E+03  1.37344E+04 -9.73680E+03  4.83835E+03
 -1.67973E+04 -3.06739E+03 -9.95498E+03 -9.62344E+03 -8.13206E+02 -1.35640E+04  1.53210E+04 -1.56752E+04
  1.70080E+04 -8.96489E+03  1.68743E+04 -2.88046E+03  1.61546E+04  1.20555E+04  3.40450E+03  1.83701E+04
 -4.84656E+03  1.23744E+04 -7.03021E+03  8.66093E+02 -4.97297E+03 -3.92086E+01 -6.09139E+03 -3.18539E+03
 -3.38892E+03 -1.82765E+03  3.31472E+03  6.92041E+03  2.95079E+03  5.64813E+03 -1.17071E+04 -8.13442E+03
 -1.11684E+04 -1.22619E+04 -2.16283E+03 -1.11998E+04  6.09641E+03 -1.33365E+04  1.39152E+04 -6.22051E+03
  2.26650E+04  9.53339E+03  6.18614E+03  1.72751E+04 -7.68258E+03  1.21112E+04 -1.25873E+04  1.40458E+04
 -1.74703E+04 -5.11192E+03 -9.03275E+03 -1.01319E+04 -4.18127E+03 -1.07063E+04  2.46404E+03 -4.79929E+03
  5.09525E+03 -5.70987E+03  8.58605E+03 -5.83294E+03  2.26274E+03  6.61010E+03  1.56818E+03  4.80822E+03
  4.04079E+02  5.58030E+03  3.17057E+03 -2.38711E+03  3.36666E+03  3.60697E+03  5.79274E+03  9.41947E+03
 -3.18915E+03  8.15799E+03 -1.33150E+04  1.32123E+04 -1.22021E+04  1.05593E+03 -1.36326E+04  3.66664E+03
 -8.01898E+03 -2.03423E+04  7.03772E+01 -1.16973E+04  5.62445E+03 -8.20277E+03  1.06523E+04 -2.99864E+03
  1.06872E+04  1.18340E+03  6.81804E+03  2.75267E+03 -5.78947E+03  4.67031E+03 -8.79092E+03  2.08587E+03
 -5.49624E+03 -7.73320E+03  8.20024E+03  3.43367E+03  3.24391E+03 -6.72714E+03  1.90618E+03 -2.62853E+03
  1.09451E+04  6.21352E+03 -3.61123E+03 -1.19943E+03  1.23601E+03  9.95283E+03  2.74206E+02 -3.88868E+03
  4.91508E+03 -5.52819E+03  8.77000E+03  3.24196E+03 -5.55741E+03  8.64554E+03  1.97030E+03  1.28492E+04
 -7.13318E+03  3.75773E+03 -1.51682E+04 -5.16533E+03 -1.24777E+04 -2.90222E+03 -2.86997E+03 -3.17060E+03
  3.76652E+03 -7.28701E+03  1.88389E+03 -3.93973E+03  3.02071E+03  3.22101E+03 -3.12119E+02  5.75398E+03
 -7.10236E+02  8.37607E+03 -5.02919E+03 -6.30739E+03 -8.60247E+03 -1.12321E+04  1.59210E+03 -7.76974E+03
  2.69653E+03 -4.22876E+03  5.46322E+03 -5.80885E+03  4.51043E+03 -2.56535E+03 -3.12934E+03 -4.76504E+01
 -2.66599E+03  3.29969E+03 -1.54671E+03 -6.68430E+03  9.29696E+03 -9.33892E+03  9.70282E+03 -6.60820E+03
  5.17545E+03 -2.00985E+03  8.89818E+03  6.62782E+03  9.78695E+03  1.25672E+04 -2.41030E+03  5.99685E+03
 -9.71522E+03  9.74823E+02 -1.46032E+04 -2.87276E+03 -3.80741E+02 -1.17711E+04 -2.64019E+03 -3.95239E+03
  7.66998E+03 -1.82915E+03 -8.14281E+02  6.80352E+03  3.01973E+03  2.81916E+03 -2.98511E+03  7.63195E+03
 -2.09177E+03  4.88808E+03 -2.18381E+03 -2.33454E+03  4.18859E+03  1.56127E+03 -8.94379E+03 -4.72209E+02
 -3.89680E+03  3.25362E+03  2.61073E+02  2.61112E+03 -7.31164E+03 -1.79336E+02 -7.21926E+03 -5.99727E+03
 -5.04917E+03 -1.93571E+04  8.09784E+03 -1.62574E+04  1.14493E+04 -8.28954E+03  1.85170E+04  4.16430E+02
  9.56033E+03  4.05695E+03  1.21285E+04  1.15744E+04  7.72139E+02  8.33906E+03 -3.77289E+03  7.81247E+03
 -2.52537E+03  4.62766E+03 -7.89419E+02  1.64611E+03 -4.51069E+03 -3.32205E+03  3.16824E+03  5.20312E+03
 -1.69018E+03 -5.73332E+02 -3.33226E+03 -4.83412E+03 -2.41576E+03  4.66608E+03 -1.92695E+03 -1.23587E+03
  3.68993E+03 -4.90527E+03  7.93405E+02  5.95703E+03  8.37549E+03  4.62286E+03 -2.96568E+03  7.64565E+03
 -5.59432E+03  7.78089E+03 -9.02520E+03  1.22357E+04 -1.54384E+04 -2.23307E+03 -9.18229E+03 -8.46555E+03
 -1.81118E+03 -6.93685E+03  4.95227E+03 -1.02702E+04  9.09658E+03 -3.88607E+03  4.54778E+03 -3.32091E+03
  9.70177E+02 -1.02240E+03 -2.00097E+03  8.30705E+03 -8.02496E+03 -1.33173E+03 -1.24849E+03  3.63745E+03
 -2.56799E+03 -3.06521E+03  4.19960E+03 -8.41423E+02  4.04267E+03  7.17057E+03  5.42987E+03  3.51751E+03
 -5.38097E+03  8.29414E+03 -1.04526E+04 -2.10038E+03 -4.63360E+03 -6.30187E+03 -1.81589E+02 -3.89589E+03
  1.05460E+03 -9.81711E+03  5.31601E+03 -2.19052E+03  1.08189E+04  2.14338E+03  8.60724E+03  6.91801E+03
  3.14981E+03  1.17786E+04  2.67375E+03  6.82285E+03 -1.02925E+04  2.41700E+03 -5.50751E+03  2.18622E+03
 -4.73622E+03 -8.60801E+03 -9.63853E+02  3.26429E+02 -4.22887E+01  1.00899E+03 -4.86077E+03 -1.79356E+03
 -2.30612E+03 -2.43619E+03  2.87166E+03 -1.17941E+04  4.56285E+03 -8.51879E+03  1.16480E+04 -5.51589E+03
  8.27474E+03  4.58471E+02  3.58861E+03 -3.95364E+02 -3.47154E+03  8.04903E+03 -4.20062E+02  3.96653E+03
