 $NMID ID='MM_0lb_SNR50_7hz_g45_35.RAW', FMTDAT='(8E13.5)'
 TRAMP=1., VOLUME=1. $END
  3.15998E+05  4.19255E+03  3.37530E+05  2.48901E+05  8.26503E+04  3.40654E+05 -1.29866E+05  2.49779E+05
 -1.97436E+05  8.10799E+04 -1.11499E+05 -4.29458E+04  6.54092E+03 -5.41220E+04  5.59248E+04 -7.64580E+02
  3.57056E+04  6.09164E+04 -1.97431E+04  7.25346E+04 -6.04688E+04  5.81013E+04 -8.06984E+04  2.80274E+04
 -8.66044E+04 -1.31488E+04 -5.63899E+04 -5.57851E+04 -1.74892E+04 -7.60804E+04  2.23864E+04 -4.68992E+04
  4.63056E+04  4.48700E+03  1.44531E+04  4.37342E+04 -3.67702E+04  4.44112E+04 -6.13280E+04 -1.51011E+03
 -5.50670E+04 -6.16272E+04 -1.23391E+03 -7.46478E+04  3.04831E+04 -5.58651E+04  5.24279E+04 -2.00120E+04
  4.31351E+04  9.33171E+03  3.34138E+04  2.99405E+04  1.93276E+04  2.69411E+04 -8.75935E+03  3.59771E+04
 -1.96612E+04  1.18898E+04 -2.03054E+04 -1.57603E+03  1.28334E+04 -7.18540E+03  2.56801E+04  1.09750E+04
  8.66404E+03  3.32141E+04 -3.51709E+04  4.58359E+04 -5.92956E+04  6.33019E+03 -6.09511E+04 -4.77913E+04
 -9.55396E+03 -6.50653E+04  4.41566E+04 -4.86709E+04  6.01447E+04 -3.15604E+03  3.87470E+04  3.80931E+04
 -4.15228E+03  4.60389E+04 -3.71179E+04  1.86313E+04 -3.09080E+04 -5.48523E+03 -1.65398E+04 -1.33585E+04
 -8.80142E+03 -9.60930E+03  3.50323E+03 -2.21275E+04  1.13392E+03 -2.43558E+04  2.11535E+04 -1.71696E+04
  1.59162E+04  4.07963E+03 -1.10983E+04  1.48601E+04 -2.59541E+04 -1.15600E+04 -8.20004E+03 -4.34053E+04
  2.52374E+04 -4.84451E+04  5.33751E+04 -2.42867E+04  4.83055E+04  2.19442E+04  1.77098E+04  4.92048E+04
 -2.31572E+04  3.71258E+04 -2.91133E+04  1.25786E+04 -1.29334E+04 -3.24288E+04  2.12563E+04 -3.69375E+04
  4.33124E+04 -9.00891E+03  3.72563E+04  2.09396E+04  2.07222E+04  5.05920E+04 -1.28879E+04  5.48421E+04
 -3.72227E+04  4.81461E+04 -4.63886E+04  1.05761E+04 -4.86856E+04 -1.76039E+04 -2.86117E+04 -4.48959E+04
  1.21246E+04 -4.29578E+04  3.44309E+04 -1.87420E+04  3.38447E+04  1.32432E+04  7.83452E+03  2.25319E+04
 -5.24456E+03  1.03906E+04 -1.20291E+04 -4.02547E+03  6.74544E+03 -1.75079E+04  1.47487E+04  1.71142E+04
  1.44632E+04  2.34208E+04 -3.78348E+03  2.32162E+04 -1.74447E+04  1.24553E+04 -2.65163E+04 -8.59935E+03
 -3.50380E+04 -1.98307E+04 -1.24977E+04 -2.78296E+04 -5.94102E+03 -2.88330E+04  2.03654E+04 -2.82997E+04
  2.89166E+04 -1.26626E+04  3.90153E+04  1.02638E+04  2.94628E+04  2.15163E+04  7.57262E+03  4.38258E+04
 -2.39394E+04  3.75420E+04 -3.38915E+04  1.51173E+04 -1.53430E+04 -5.57408E+03  2.03341E+02 -1.46457E+04
 -1.60179E+03 -1.91866E+03 -6.72479E+03  1.25972E+04 -2.09448E+04  3.93004E+03 -2.39744E+04 -5.45387E+03
 -1.25580E+04 -2.33617E+04  5.46344E+03 -3.31043E+04  1.55905E+04 -1.39387E+04  1.92089E+04  3.05999E+03
  1.74193E+04  1.37459E+04 -1.15425E+04  2.29403E+04 -1.19273E+04  1.42060E+04 -2.93040E+04 -5.59279E+03
 -1.53524E+04 -2.11640E+04 -4.31401E+03 -3.06783E+04  6.20617E+03 -2.17879E+04  2.71025E+04 -1.32080E+04
  2.10312E+04 -3.82846E+03  1.54172E+04  3.22056E+03  1.10817E+04  5.92968E+02  1.38939E+04 -1.62797E+03
  3.47827E+04  3.36685E+03  2.62417E+04  2.09463E+04  1.93703E+04  4.00754E+04 -2.22876E+03  5.13260E+04
 -2.73900E+04  4.42147E+04 -4.96753E+04  2.02776E+04 -5.16393E+04 -5.62587E+02 -3.73411E+04 -3.15300E+04
 -1.45998E+04 -3.85899E+04  1.40974E+04 -3.94386E+04  3.35193E+04 -1.86721E+04  2.07733E+04  3.07509E+03
  7.42112E+03  1.91565E+04 -1.04352E+04  1.79774E+04 -1.69318E+04  3.58394E+03 -1.10994E+04 -1.60683E+04
 -2.47587E+02 -2.60986E+04  1.46869E+04 -1.12902E+04  1.31612E+04  5.28984E+03  4.00386E+03  1.62773E+04
 -1.10116E+04  4.35566E+03 -4.08714E+03 -1.05828E+04  9.43924E+02 -1.88811E+04  1.49882E+04 -2.49524E+04
  2.49154E+04 -1.40770E+04  2.99948E+04  3.40848E+03  2.59269E+04  2.10255E+04  1.09563E+04  3.05050E+04
 -2.44771E+03  3.65970E+04 -2.26279E+04  1.88188E+04 -2.40647E+04 -9.75336E+02 -1.29663E+04 -1.34121E+04
 -1.96501E+03 -1.87167E+04 -5.16272E+03 -1.96504E+03 -2.47087E+03  3.42724E+03 -6.22433E+03  6.82068E+02
 -2.21554E+04  2.48379E+03 -2.55286E+04 -7.05672E+03 -6.47403E+03 -2.37709E+04  8.06007E+03 -1.84104E+04
  1.09020E+04 -3.08295E+03  1.13629E+04 -4.46469E+02 -5.56980E+02  8.94061E+03 -5.10822E+03  3.13937E+03
 -8.98400E+03 -9.34976E+03  3.74707E+03 -1.40943E+04  3.60432E+03 -1.71180E+04  2.80019E+04 -2.48821E+03
  2.51017E+04  7.94981E+03  1.84101E+04  1.30994E+04  5.70731E+03  2.13791E+04 -1.01638E+04  1.75144E+04
 -1.77880E+04  1.00696E+04 -4.29039E+03 -8.42567E+03  9.21235E+03  6.29275E+02  8.34883E+03  2.68090E+03
  2.70643E+03  1.24319E+04  4.98151E+03  1.57859E+04 -1.08321E+04  8.33493E+03 -1.67704E+04  3.31399E+02
 -1.72553E+04 -1.13012E+04 -2.08703E+02 -2.22775E+04  4.59422E+03 -1.13182E+04  1.71226E+04  4.42191E+03
 -4.12566E+03  1.14232E+04 -1.12723E+04  1.72262E+04 -1.66772E+04  4.61338E+03 -2.00847E+04 -2.48228E+03
 -4.87663E+03 -1.87659E+04  1.10217E+04 -1.71407E+04  2.10739E+04 -1.24605E+04  2.12488E+04  3.22034E+03
  8.05854E+03  1.26933E+04  1.39916E+03  1.42626E+04 -7.93207E+03  9.98895E+03 -1.54501E+04 -2.34565E+03
 -1.97657E+04 -9.40730E+03  1.81212E+03 -1.39772E+04  5.19049E+03 -6.59776E+02  1.52212E+04 -6.75598E+03
  4.24018E+03  1.10639E+04 -6.61142E+03  6.67350E+03  2.40899E+02 -8.08594E+03  7.69447E+03 -3.72599E+03
  9.16143E+03 -9.07634E+03  2.11429E+04  7.70096E+02  2.15308E+04  1.95301E+04  1.17585E+04  2.09764E+04
  9.61205E+02  2.56986E+04 -2.00083E+04  1.65075E+04 -2.38938E+04  3.54720E+03 -2.34435E+04 -1.29726E+04
 -8.41742E+03 -2.35230E+04 -6.01420E+02 -2.17754E+04  5.13986E+03 -8.02764E+03  6.46841E+03 -2.80019E+03
  8.44411E+03 -4.19016E+03 -1.69572E+03 -3.94731E+03  9.25708E+03 -6.99397E+03  6.10841E+03 -3.11492E+03
  1.48429E+04  2.68628E+03  5.51546E+03  1.67196E+04 -4.09905E+03  1.49771E+04 -9.76115E+03  1.36461E+04
 -2.43983E+04  1.45537E+03 -9.03023E+03 -6.64006E+03 -1.11217E+04 -2.62652E+04  1.34896E+04 -2.09619E+04
  2.13897E+04 -1.00228E+04  2.30564E+04 -2.42187E+03  1.89703E+04  1.40238E+04 -4.18579E+03  1.94164E+04
 -1.24992E+04  2.27596E+04 -1.66709E+04  9.90250E+03 -8.72942E+03  3.18731E+03 -4.89893E+03 -4.11698E+03
 -3.71684E+03  7.27012E+03 -3.29050E+03  6.55096E+03 -1.58683E+04 -8.97408E+02 -1.45105E+04  1.23848E+03
 -1.63953E+04 -7.96307E+03  3.51373E+01 -1.63142E+04  8.68198E+03 -1.28114E+04  1.48885E+04  3.98234E+02
  1.03313E+04  1.31073E+04  7.82183E+03  1.47726E+04 -5.81584E+03  1.32266E+04 -1.69298E+04  3.16124E+03
 -1.50713E+04 -5.39953E+01 -7.96013E+03 -1.57121E+04 -5.03024E+03 -1.64775E+04  8.17277E+03 -1.02871E+04
  1.22876E+04 -9.40280E+03  1.19000E+04  1.02412E+04  6.03415E+03  7.12337E+03 -6.11526E+02  2.01646E+03
  2.58702E+03  4.19351E+03  4.64069E+02  5.54707E+03  7.19187E+03  3.01486E+03 -4.26984E+03  1.33740E+04
 -2.59733E+03  1.53692E+04 -1.13626E+04  1.94540E+04 -1.46309E+04  3.56907E+03 -1.70319E+04 -7.62234E+03
 -4.52689E+03 -1.72198E+04  6.23284E+02 -2.13972E+04  4.73275E+03 -9.57313E+03  1.31316E+04  1.63692E+03
  9.04056E+03  9.10572E+03  6.17879E+03  1.31646E+04 -5.41793E+03  1.04936E+04 -9.62038E+03 -4.99028E+03
 -8.85766E+03 -9.48827E+03  3.14493E+03 -1.50162E+04  3.35350E+03 -1.61164E+03  1.03481E+04  5.64321E+03
  9.32072E+03  8.49829E+02  2.10067E+03  6.56331E+03  6.76675E+03  4.70474E+03 -3.14820E+02 -4.44960E+02
  2.04269E+03  9.89054E+03  1.43479E+04 -2.01826E+02  9.17839E+03  7.86862E+03 -3.37854E+03  1.09734E+04
 -9.32793E+03  1.09022E+04 -3.30060E+03  8.43918E+03 -1.15070E+04 -5.21731E+03  5.53930E+03 -1.08641E+04
  1.88732E+03 -1.10416E+04  5.92853E+03 -5.22455E+03  3.85737E+03  1.18431E+04 -5.55755E+03  3.47287E+03
 -4.10182E+03  3.99175E+03 -8.88725E+03 -4.64017E+03 -1.13681E+04 -9.56925E+03  3.84513E+02 -1.09845E+04
  6.29799E+03  4.72477E+03  8.55725E+03  1.02717E+03  1.00456E+04  4.53094E+03  1.12154E+03  1.00918E+04
 -3.53530E+03 -4.49327E+03 -5.02914E+03 -1.07717E+03  4.61462E+03 -1.26395E+04  1.25283E+04 -8.93842E+03
  1.41441E+04  1.26451E+03  6.96591E+03 -7.65064E+02  7.44144E+03  1.47363E+04 -4.44721E+03  1.54469E+04
 -1.11240E+04  6.04832E+03 -7.62326E+03 -1.41370E+03 -6.83027E+03 -1.02349E+04  8.00141E+03 -6.19490E+03
  5.43827E+03 -3.62994E+03  1.20243E+04 -3.01879E+03  1.75898E+03  4.88508E+03 -3.43950E+03  7.84403E+03
 -5.16173E+03  2.95102E+03  6.16267E+02  5.45791E+03 -5.63334E+03  5.51923E+03  2.09156E+03  7.10638E+03
 -5.50285E+03  7.71562E+03 -8.78480E+03  9.51722E+03 -2.13465E+04 -2.61545E+03 -1.23827E+04 -8.17875E+03
 -1.01067E+04 -1.74601E+04  5.90937E+03 -1.99621E+04  1.50036E+04 -1.83048E+04  2.32666E+04 -4.35944E+03
  2.36697E+04  1.10097E+04  1.44511E+04  8.04029E+03 -8.11416E+03  1.51307E+04 -8.70008E+03  1.38031E+04
 -7.44673E+03 -1.83016E+03 -9.09766E+03 -1.73537E+03 -8.87499E+03 -3.01913E+03  9.45923E+03 -2.18249E+03
 -1.07401E+04 -2.21626E+03 -2.78225E+03  1.28270E+03 -5.83005E+03 -6.68907E+03 -5.49264E+02 -5.10890E+03
  3.54460E+03 -1.06905E+04  2.55338E+03 -1.81555E+03  1.30656E+04  8.64856E+03  8.52443E+03  1.26367E+04
 -5.18719E+03  1.05036E+04 -1.44775E+04  1.03037E+04 -1.75733E+04  3.30216E+02 -1.51871E+04 -1.07583E+04
 -2.29903E+03 -1.39082E+04  2.41383E+03 -9.09566E+03  1.01053E+04 -1.10661E+04  1.08618E+04  1.67375E+03
  7.34863E+03  5.17656E+03  2.21997E+03  2.82157E+03 -1.70935E+03  1.22592E+03 -8.91019E+02 -3.24114E+03
  6.44461E+03 -4.74375E+02  1.30984E+04 -7.07387E+02  3.87689E+03  7.21719E+03 -9.38756E+03  5.56084E+03
 -9.90022E+03  3.11167E+03 -7.79284E+03  2.33070E+03 -1.16288E+04 -1.14460E+04 -4.86554E+03 -1.27091E+04
  4.09591E+03 -1.08659E+04  1.42252E+04 -1.43893E+04  1.99561E+04  5.14551E+03  8.87597E+03  1.06102E+04
  8.48710E+02  1.27809E+04 -6.58914E+02  3.78578E+03 -7.63227E+03 -3.47138E+02 -3.38939E+03 -3.40585E+03
 -7.33420E+03  1.90138E+03 -6.08532E+03 -1.14386E+03 -1.01952E+04 -1.65097E+03 -9.00512E+03 -1.76540E+03
 -5.65539E+03 -2.91203E+03 -9.07699E+03 -3.24379E+03  3.84160E+03 -6.74874E+03  8.17468E+03 -6.94819E+03
  5.84462E+03  1.79883E+03  4.88048E+03  2.57023E+03 -2.44324E+03  1.09802E+04 -1.23394E+04  7.85563E+03
