 $NMID ID='MM_0lb_SNR50_18hz_g40_23.RAW', FMTDAT='(8E13.5)'
 TRAMP=1., VOLUME=1. $END
  3.09332E+05 -2.39160E+02  3.38471E+05  2.49586E+05  8.58470E+04  3.36673E+05 -1.29970E+05  2.53488E+05
 -1.89906E+05  8.23833E+04 -1.09372E+05 -3.00037E+04 -1.75607E+03 -5.12980E+04  5.15463E+04 -3.62300E+03
  3.21312E+04  5.23488E+04 -1.67459E+04  7.24152E+04 -6.16279E+04  5.90459E+04 -8.43879E+04  3.16672E+04
 -7.96596E+04 -1.02164E+04 -5.64679E+04 -5.04475E+04 -1.92957E+04 -6.86417E+04  2.57666E+04 -4.85159E+04
  3.51671E+04  6.34245E+03  1.71968E+04  4.69685E+04 -3.64395E+04  4.23409E+04 -6.04592E+04 -5.13930E+02
 -5.52812E+04 -5.33133E+04 -7.24336E+03 -7.31843E+04  3.15710E+04 -5.13007E+04  4.91015E+04 -1.58757E+04
  4.37800E+04  9.45968E+03  2.83006E+04  2.31658E+04  1.06601E+04  2.46681E+04 -3.24329E+03  2.59180E+04
 -1.32595E+04  8.88585E+03 -1.50719E+04 -5.59860E+03  4.49901E+03 -8.92573E+03  1.70548E+04  1.10578E+04
  9.67577E+03  3.20643E+04 -3.05089E+04  3.39410E+04 -6.10045E+04  8.86659E+02 -5.09372E+04 -4.06222E+04
 -1.47427E+04 -6.02476E+04  3.68272E+04 -4.32607E+04  5.75454E+04 -5.16645E+03  3.32651E+04  3.28951E+04
 -3.92578E+03  3.48076E+04 -2.55945E+04  1.61081E+04 -2.62981E+04 -4.96227E+03 -1.29647E+04 -7.83663E+03
 -1.10726E+04 -1.13079E+04 -3.18226E+03 -1.39823E+04  7.35558E+03 -2.21766E+04  9.67654E+03 -1.33639E+04
  9.83372E+03  6.03667E+03 -8.52029E+03  1.11293E+04 -2.19494E+04 -1.69910E+03 -6.44050E+03 -2.82478E+04
  2.36448E+04 -3.91355E+04  4.26181E+04 -2.35020E+04  4.17441E+04  1.85579E+04  1.68763E+04  4.15742E+04
 -1.65126E+04  3.06695E+04 -2.24373E+04 -2.89723E+03 -9.91832E+03 -2.84422E+04  2.44936E+04 -3.54222E+04
  3.60654E+04 -7.69253E+03  3.43632E+04  2.36431E+04  1.53817E+04  4.52325E+04 -1.29730E+04  4.21750E+04
 -2.89161E+04  3.38776E+04 -4.14447E+04  1.09761E+04 -3.88153E+04 -9.01215E+03 -1.84410E+04 -3.20876E+04
  5.44507E+03 -3.14027E+04  2.76778E+04 -8.29344E+03  2.28018E+04  1.41092E+04  6.11625E+02  1.77526E+04
 -1.15995E+04  3.90508E+03 -1.11106E+04 -9.16902E+03  8.35520E+03 -1.01880E+04  1.61761E+04  6.84748E+03
  1.46842E+04  1.88526E+04 -5.26894E+03  2.40607E+04 -2.10078E+04  5.79955E+03 -2.39225E+04 -4.41615E+03
 -1.79284E+04 -1.45347E+04 -2.66189E+03 -1.42834E+04  4.60797E+03 -1.81081E+04  8.11000E+03 -1.31215E+04
  1.90218E+04 -1.52652E+04  2.85930E+04  1.86827E+02  2.27638E+04  1.44951E+04  7.02476E+03  3.00328E+04
 -1.58613E+04  2.64229E+04 -2.65159E+04  9.98099E+03 -2.20270E+04 -1.02564E+04 -3.70665E+03 -1.59330E+04
  6.67519E+02 -1.25314E+03 -5.44034E+03  3.32159E+03 -1.11113E+04  8.23057E+03 -1.58293E+04 -4.11338E+03
 -1.21470E+04 -1.25564E+04  1.98267E+03 -2.12890E+04  9.48732E+03 -1.27378E+04  1.18428E+04  5.65914E+02
  8.48250E+03  1.47572E+04 -3.71334E+02  1.48637E+04 -9.33298E+03  8.91462E+03 -1.71058E+04 -2.34512E+03
 -1.20055E+04 -1.52860E+04 -1.21152E+02 -2.28897E+04  1.25777E+04 -1.92108E+04  1.85248E+04 -8.14466E+03
  9.98454E+03  4.33917E+03  1.20327E+04  2.11021E+03  5.63272E+03 -2.71131E+03  7.02241E+03 -1.28101E+03
  1.26369E+04  2.09714E+03  1.45307E+04  1.23092E+04  2.18952E+03  2.72455E+04 -2.83904E+03  2.72141E+04
 -1.87053E+04  1.99724E+04 -2.49907E+04  1.12457E+04 -2.10460E+04 -4.48396E+03 -2.20278E+04 -1.75496E+04
 -1.04468E+04 -1.92291E+04  3.14676E+03 -2.01468E+04  2.16529E+04 -1.05604E+04  9.84941E+03  6.09510E+02
  4.88543E+03  6.68957E+03 -5.32795E+03  8.70975E+03 -8.62522E+03  1.91236E+03 -1.00324E+04 -3.30643E+03
  6.94234E+02 -1.43781E+04  3.55759E+03 -1.22145E+04  4.60939E+03 -3.42250E+03  3.02977E+02  4.81099E+03
 -5.17082E+03  9.67445E+02 -3.65622E+03 -4.62219E+03  3.26537E+03 -1.11524E+04  8.76837E+03 -1.05591E+04
  1.04936E+04 -3.13194E+03  1.00080E+04  2.11085E+03  4.69698E+03  6.06141E+03  8.34131E+03  1.31364E+04
 -2.13565E+03  1.01152E+04 -9.67172E+03  8.86033E+03 -1.41203E+04  4.12734E+03 -5.28525E+03 -3.04635E+03
 -6.81967E+03 -5.95032E+03 -4.14825E+03 -1.86077E+03 -5.96740E+02  5.12427E+03 -5.13726E+03  5.84301E+03
 -7.65968E+03 -1.64717E+03 -9.71310E+03 -9.75600E+03 -8.76311E+03 -8.01301E+03  5.90498E+03 -7.79196E+03
  4.99336E+03 -6.43156E+03  5.52628E+03  4.84692E+03 -2.69391E+03  2.07829E+03 -3.17738E+03 -4.78058E+03
 -4.25943E+03 -6.11522E+03  1.52350E+03 -6.81938E+03  9.74462E+02 -6.37712E+03  1.31864E+04  2.17333E+03
  1.67099E+04 -3.09534E+03  5.47454E+03  7.27141E+03  2.19941E+02  9.25047E+03 -7.03896E+03  1.05778E+04
 -4.08009E+03  1.40134E+03 -1.27344E+03 -7.37297E+03 -1.49651E+03 -3.53230E+03  5.37232E+03 -2.37506E+02
  3.60981E+03  1.66738E+02  5.11194E+03  8.06894E+03 -5.12005E+03  4.48936E+03 -1.29417E+04 -1.19197E+03
 -5.64702E+03 -1.96608E+03 -1.47214E+03 -7.11153E+03  4.19133E+03 -3.47395E+03  3.89477E+03  2.72598E+03
  1.14377E+03  6.94936E+03 -3.93025E+03  3.70749E+03 -5.42146E+03  3.59659E+03 -5.37071E+03 -2.99543E+03
 -5.59942E+03 -5.86910E+03  5.08686E+03 -7.41749E+03  2.31688E+03 -8.39466E+03  4.71709E+03  4.28255E+03
  3.84832E+03  4.98559E+03 -1.79916E+03  2.34903E+03 -2.66091E+03  3.92388E+03 -7.20719E+03 -1.92898E+03
 -1.02299E+04 -5.78125E+03  9.68011E+02 -1.40352E+03  3.57049E+03 -6.74545E+02  5.29713E+03 -2.40935E+03
 -1.98354E+03 -8.75872E+02 -2.66918E+03 -1.45986E+03 -1.22212E+03  2.21194E+03  6.65111E+02 -5.28915E+03
  6.47928E+03 -5.78003E+02  4.77234E+03 -2.45974E+02  4.46058E+03  2.69125E+03  3.08149E+03  1.04874E+04
 -1.69869E+03  5.32916E+03 -7.14459E+03  4.79000E+03 -1.39977E+04  5.40541E+01 -7.71735E+03 -1.26138E+01
 -5.90392E+03 -5.86519E+03 -1.54186E+03 -5.61465E+03 -2.09474E+03 -6.42660E+03  4.60101E+02 -1.19279E+03
  4.76411E+03  1.90589E+03  7.72732E+02  1.81478E+03  7.83689E+03 -7.84525E+03  2.79511E+03  1.40158E+03
  6.51178E+03  6.12542E+01  1.74779E+03  2.48990E+03 -1.01736E+03  6.01615E+03 -6.10032E+03  1.98989E+03
 -7.19106E+03  2.74276E+03 -1.24093E+02 -5.08554E+03  1.65211E+02 -6.81645E+03 -1.46790E+02 -4.91193E+03
  8.96615E+03 -5.28979E+03  9.40114E+03 -1.42131E+03  4.37167E+03  3.53089E+02  2.50028E+03  8.20326E+03
 -1.76558E+03  4.16914E+03 -5.80732E+03 -1.04775E+03 -4.23555E+03  2.65612E+03  7.14590E+01  9.81644E+02
 -2.22172E+03 -2.83433E+03  4.32918E+02  8.82248E+02 -4.00464E+02 -1.40046E+03 -7.07981E+03  3.17751E+03
 -2.03378E+03 -1.89570E+03 -1.46848E+02 -6.65626E+03 -7.71157E+02 -2.61605E+02  7.48821E+02 -6.75982E+02
  3.06874E+03  1.20172E+03  3.80730E+03  5.99217E+03 -4.12896E+03  7.33365E+03 -1.48295E+03  3.19545E+03
 -4.51637E+03  2.52518E+03 -2.40410E+03 -5.82859E+03 -2.21104E+03  1.00281E+03  2.14113E+03 -5.23983E+03
  6.05278E+03 -8.93121E+02  1.18341E+03  1.59448E+03  2.75860E+02  2.68526E+03 -9.34427E+02  1.04857E+03
  6.46093E+02 -3.69063E+03 -4.55272E+02 -1.97453E+03  3.48946E+03 -3.61868E+03  3.85330E+03  3.10935E+03
 -1.07795E+03  5.75521E+02 -8.65644E+02  6.61253E+03 -1.85666E+03  5.00203E+02 -1.07880E+03  3.03399E+03
  2.33898E+03 -2.62630E+03  1.73297E+02 -2.88014E+03  3.80423E+03 -4.71825E+03  1.46197E+03 -2.60125E+03
  3.88545E+03  2.14627E+03 -1.45330E+03  3.38717E+02 -2.87068E+03 -2.15500E+03 -8.74364E+02  2.95390E+03
 -2.37689E+03 -1.48915E+03  4.35878E+03  2.87167E+03  5.54111E+03  1.64042E+03 -5.19175E+01  2.50992E+03
  2.72147E+03  2.06070E+03  1.38610E+03 -1.70033E+03 -1.63680E+03  2.84857E+03 -1.00980E+03 -2.03252E+03
  3.55725E+02 -4.45740E+03  3.65454E+03 -3.03729E+03 -3.80035E+03  3.07556E+03  2.63667E+03  4.38746E+03
 -3.14058E+03 -1.29201E+03 -4.73181E+03 -1.76543E+02 -1.06676E+03  1.39891E+03  6.84662E+01  7.24070E+02
 -1.66879E+03 -5.97292E+03  3.28097E+03  3.91661E+02  5.10658E+03 -1.12900E+03 -4.50919E+03 -2.80961E+03
 -2.32063E+02 -6.15072E+02 -6.10446E+02 -7.57115E+03 -4.42596E+02 -5.91164E+02 -2.12006E+02 -7.00518E+02
  1.13502E+03  2.44314E+02 -2.48236E+03  3.59675E+03  2.22393E+03  2.02694E+03 -1.78477E+03  2.52000E+03
  7.26511E+02 -1.02065E+03 -7.30101E+03 -2.62305E+03  1.57010E+03  1.77852E+03  1.01918E+02 -2.02195E+03
  2.69987E+03 -3.49422E+03  1.76681E+03  2.09914E+03  1.90078E+03 -1.98518E+03 -3.88051E+03  7.95281E+03
 -1.77861E+03  1.24989E+03  1.33241E+03  2.02327E+03  3.46318E+03 -1.49448E+03  2.14854E+03 -2.03931E+03
  2.90338E+03 -3.21207E+03  2.29695E+03  7.04928E+02 -3.21525E+03 -4.94292E+03  3.21536E+03  1.34815E+03
  2.89842E+02  3.29637E+03 -6.27367E+02  2.90694E+03 -1.15576E+03  2.65474E+03 -5.19324E+03 -2.10863E+03
  8.11314E+02  6.24812E+02 -1.56772E+03 -1.54639E+02 -5.02188E+03 -5.16306E+03 -2.85891E+03 -3.46831E+03
 -3.11224E+03  2.00595E+03  3.20732E+02 -9.51868E+02  2.65843E+03 -6.94254E+03  3.02959E+03 -2.67807E+03
 -1.84059E+03 -1.10337E+03  3.00610E+03 -1.37482E+02 -2.76243E+03  1.79655E+03 -2.82908E+03  5.31785E+02
  2.96808E+03  3.89507E+03 -3.23846E+03  2.24253E+03 -2.89026E+03  2.71567E+03  3.32515E+01  9.67510E+02
 -4.13295E+03 -1.46755E+03 -5.69833E+03 -3.44138E+02  3.38053E+03  9.78179E+02  1.20910E+03 -1.05388E+03
  3.02482E+03 -2.51011E+03  2.92526E+03 -9.07344E+02  8.36614E+02  4.84873E+02 -1.57727E+03  8.55212E+02
 -2.60204E+03  2.41877E+03 -5.33487E+03  1.87886E+03  1.70218E+02  3.03697E+02 -5.04373E+03  1.40172E+03
 -5.00320E+03  3.59092E+03  6.84427E+03 -1.97922E+03  1.05360E+03  1.58623E+03 -1.60198E+03  2.85094E+03
  7.84566E+02 -1.60750E+03 -1.91471E+03  2.29545E+03 -2.66946E+03  2.81939E+03 -7.55242E+02 -2.21542E+03
 -9.12377E+02 -1.87529E+01 -5.40759E+01  2.53734E+03  1.58709E+03  7.36754E+03 -7.50827E+02 -9.87030E+02
  5.15600E+02  6.30014E+03 -2.19264E+03  5.08704E+02  2.84580E+03 -4.08551E+03  5.78126E+03 -2.58507E+03
  2.74651E+03  4.88393E+03  1.65289E+03  4.18720E+02  3.52804E+03 -1.57827E+03 -4.24495E+03  1.20876E+03
 -3.06649E+03 -2.18912E+03 -2.63814E+03  3.13284E+03 -2.42016E+03  4.06100E+03 -3.32100E+02  1.62121E+03
 -1.14245E+03 -2.30036E+03  4.07118E+02  1.03656E+03  1.00682E+03  3.27248E+03  4.65105E+03 -5.16428E+02
 -1.38904E+02  4.04322E+03 -1.80423E+03  2.54136E+03 -1.09769E+03 -2.98227E+03  2.20734E+03  6.44337E+02
 -7.60198E+02  8.00045E+02 -5.72017E+02  1.55590E+03  3.14708E+03 -5.89132E+02 -2.50923E+03 -1.27285E+03
