 $NMID ID='MM_0lb_SNR50_17hz_g55_13.RAW', FMTDAT='(8E13.5)'
 TRAMP=1., VOLUME=1. $END
  3.09098E+05 -6.33105E+02  3.32924E+05  2.56852E+05  7.76178E+04  3.37219E+05 -1.31367E+05  2.48966E+05
 -1.91070E+05  8.88715E+04 -1.07410E+05 -3.67212E+04  1.51539E+03 -5.33330E+04  5.55900E+04  2.46392E+03
  3.69152E+04  5.63410E+04 -1.51747E+04  7.21809E+04 -6.33225E+04  6.33382E+04 -7.97609E+04  3.04795E+04
 -8.11966E+04 -1.33808E+04 -5.66683E+04 -5.16760E+04 -1.31228E+04 -6.89259E+04  2.14450E+04 -4.67744E+04
  3.85504E+04  3.86663E+03  1.33933E+04  4.48055E+04 -3.37464E+04  4.45654E+04 -6.58989E+04  1.84400E+03
 -5.44797E+04 -5.97804E+04 -8.35929E+03 -7.73897E+04  3.60711E+04 -5.05072E+04  4.61805E+04 -2.19405E+04
  4.01617E+04  8.05183E+03  3.51238E+04  2.61031E+04  1.51129E+04  2.97815E+04 -2.40521E+03  3.16274E+04
 -2.39217E+04  1.44205E+04 -1.84194E+04 -4.75596E+03  8.46984E+03 -8.82984E+03  2.20288E+04  1.39363E+04
  2.33317E+03  3.34045E+04 -3.17099E+04  3.82055E+04 -5.86942E+04  1.28733E+03 -5.77738E+04 -4.07116E+04
 -1.00471E+04 -6.35486E+04  3.78289E+04 -4.75009E+04  5.85734E+04 -9.22817E+02  3.83917E+04  3.80939E+04
 -7.42056E+03  3.02351E+04 -2.54587E+04  1.35549E+04 -2.84355E+04 -1.50061E+03 -1.07411E+04 -1.04379E+04
 -9.53681E+03 -8.92290E+03  2.18484E+02 -1.62980E+04  8.16215E+03 -2.62311E+04  1.63529E+04 -1.16905E+04
  8.39440E+03  3.08257E+03 -1.09046E+04  1.61326E+04 -1.93713E+04 -4.22655E+03 -1.01345E+04 -3.29668E+04
  1.83563E+04 -3.78457E+04  4.62592E+04 -2.10155E+04  3.97941E+04  2.05870E+04  1.68710E+04  4.17139E+04
 -1.32791E+04  3.13184E+04 -2.31686E+04  2.01985E+03 -1.14990E+04 -3.00022E+04  2.09028E+04 -2.97681E+04
  4.18221E+04 -5.24173E+03  2.94773E+04  2.35200E+04  2.07170E+04  4.36825E+04 -3.14392E+03  4.89210E+04
 -3.02973E+04  3.36117E+04 -4.13869E+04  7.91738E+03 -4.03082E+04 -1.65360E+04 -2.65251E+04 -3.52731E+04
  9.49218E+03 -3.74051E+04  3.14820E+04 -1.57531E+04  3.36642E+04  1.24765E+04  2.93203E+03  1.83968E+04
 -1.51758E+04  7.74351E+03 -1.23121E+04 -9.72684E+03  1.01315E+04 -1.32785E+04  1.84208E+04  9.04212E+03
  1.46806E+04  2.29421E+04 -7.52287E+03  2.03208E+04 -2.74794E+04  1.64461E+04 -2.95168E+04 -3.97886E+03
 -2.17964E+04 -1.85375E+04 -9.49871E+03 -1.82820E+04  4.03718E+03 -1.83951E+04  1.18236E+04 -1.49151E+04
  2.45021E+04 -1.12348E+04  3.06969E+04  1.53846E+02  2.58570E+04  1.66593E+04  9.89610E+03  3.24273E+04
 -1.77532E+04  2.80639E+04 -2.58307E+04  8.44646E+03 -1.52359E+04 -7.30759E+03 -4.19095E+03 -1.34930E+04
  1.19424E+03 -9.30172E+03 -5.95987E+03  6.10968E+03 -1.41333E+04  2.65702E+03 -1.28476E+04  1.12124E+03
 -1.33489E+04 -1.92729E+04  8.35831E+03 -1.89952E+04  1.17673E+04 -1.56236E+04  1.69381E+04  6.13164E+02
  1.11463E+04  1.40405E+04 -3.98326E+03  1.73556E+04 -9.15364E+03  8.46561E+03 -1.78598E+04 -5.57674E+03
 -9.14548E+03 -1.43612E+04 -2.01558E+03 -2.01520E+04  9.45682E+03 -2.22322E+04  1.18379E+04 -9.74664E+03
  1.67149E+04 -2.33122E+03  8.95748E+03  5.86924E+03  7.48657E+03  2.68107E+03  8.00231E+03 -1.62446E+03
  1.61482E+04  5.29624E+03  1.05937E+04  1.14912E+04  7.82007E+03  2.94005E+04 -4.06357E+03  3.27901E+04
 -1.93501E+04  2.27597E+04 -2.99847E+04  1.62383E+04 -2.80572E+04 -1.07966E+03 -2.64003E+04 -1.63685E+04
 -8.32114E+03 -2.42156E+04  1.00947E+04 -2.37663E+04  1.40214E+04 -1.20103E+04  1.86323E+04  3.44447E+03
  5.22404E+03  1.21127E+04 -1.08628E+04  1.59306E+04 -1.27415E+04  1.26061E+03 -1.19551E+04 -6.49937E+03
  4.34646E+02 -1.54795E+04  9.23329E+03 -1.28195E+04  1.24612E+04 -4.44484E+02  2.32497E+03  3.54127E+03
 -2.69058E+03  5.87248E+03 -2.66142E+03 -6.82534E+03  5.77913E+02 -1.21037E+04  8.56193E+03 -1.44522E+04
  1.77756E+04 -3.04115E+03  1.43094E+04  1.49745E+03  1.10954E+04  1.43335E+04  5.22250E+03  1.44787E+04
 -1.93468E+03  1.78654E+04 -1.76736E+04  1.01022E+04 -1.25411E+04  3.84470E+03 -1.16257E+04 -5.36950E+03
 -7.15258E+03 -1.35517E+03  3.69187E+02  1.35177E+03  2.53880E+03 -5.52781E+02 -2.44555E+03  4.32969E+03
 -8.24297E+03 -2.85198E+03 -9.60626E+03 -7.94691E+03 -3.34239E+03 -1.34826E+04  5.31997E+03 -1.33390E+04
  1.00877E+04 -3.28998E+03  1.00495E+03  1.94604E+03 -1.86176E+02  4.45760E+03 -4.24253E+03  2.19473E+03
 -3.78237E+03 -8.74954E+03  1.47276E+03 -1.09241E+04  4.06183E+03 -1.00295E+04  1.38135E+04 -5.15082E+03
  1.37835E+04  1.87876E+03  1.25521E+04  8.39207E+03  1.59867E+03  9.83383E+03 -5.08632E+03  8.01936E+03
 -5.75039E+03 -2.76124E+02 -5.14994E+03 -3.11836E+03 -4.88682E+03  3.04429E+03  6.50983E+03 -1.50312E+03
  8.05381E+03  8.27491E+03  2.51856E+03  8.06401E+03 -4.15440E+03  9.64588E+03 -4.72857E+03  3.51374E+02
 -6.75931E+03 -1.48393E+03 -4.40064E+02 -6.48149E+03  1.59313E+03 -6.28603E+02  5.22070E+03  1.28884E+03
  3.40380E+03  3.14048E+03 -3.11135E+03  4.89007E+03 -8.03274E+03  3.68342E+03 -4.76401E+03 -2.38834E+03
 -5.84375E+03 -8.06938E+03 -9.05563E+01 -8.95846E+03  7.61065E+03 -5.16680E+03  5.60883E+03  4.74121E+03
  5.27349E+03  5.87209E+03  4.82870E+03  5.88823E+03 -3.83142E+03  2.52434E+03 -1.16032E+04 -5.33335E+03
 -7.35603E+03 -1.05337E+04 -4.03049E+03 -9.84119E+03  1.16711E+03 -5.85189E+02  7.62906E+03 -6.64953E+03
  2.52074E+03  2.70504E+03 -4.53176E+03  6.87613E+01 -1.68612E+03  1.58311E+03 -1.04502E+03 -5.77089E+03
 -2.85569E+03  1.08291E+03  5.83684E+03  1.61880E+03  4.29379E+03  1.54575E+03  4.21603E+03  1.09082E+04
 -2.20452E+03  8.69619E+03 -1.09979E+04  6.14268E+03 -1.41287E+04 -2.16642E+03 -1.04822E+04 -4.37487E+03
 -8.13584E+03 -7.68708E+03 -4.15686E+02 -5.00249E+03  3.28004E+03 -6.66282E+02  6.52258E+03 -1.60783E+03
  1.69405E+03 -2.50802E+03  1.79186E+03 -6.68423E+03 -4.53526E+02 -1.79877E+03  8.83452E+03  4.13611E+03
  4.35087E+03  5.78388E+02  2.28367E+03  8.61062E+02  7.50925E+02  7.11948E+03 -4.00725E+03  2.13187E+03
 -6.21156E+03 -3.49795E+03 -7.80278E+03 -4.42832E+03  7.94091E+02 -1.08424E+04  4.09015E+03 -6.68755E+03
  5.06777E+03 -4.74139E+03  2.55818E+03 -1.51802E+03  4.11000E+03  5.40604E+03  1.99209E+03  9.71960E+02
 -4.26286E+03  2.86896E+03 -3.77615E+03  1.16498E+03  1.91946E+03 -1.37076E+03 -2.04033E+03 -2.58690E+03
 -9.61632E+02  5.61166E+03 -4.60888E+03  2.86787E+02  8.66523E+02  1.04334E+03 -2.47482E+03  3.68111E+02
 -2.51671E+03 -6.05047E+03  3.09869E+02 -1.00088E+04  2.79554E+03 -5.33460E+03  3.42777E+03  1.37823E+02
  4.87962E+03  1.06463E+03  2.01582E+02  5.13267E+03 -2.50286E+03  4.82139E+03 -8.81181E+03  2.46787E+03
 -6.25588E+03  2.31854E+03 -4.07899E+03 -5.14698E+03 -1.27669E+02 -2.27087E+03 -1.78617E+03 -2.34617E+03
  1.08512E+03 -2.06409E+03  3.56810E+03  5.92869E+02 -6.73381E+02 -1.58836E+03 -5.01929E+02 -1.29457E+03
  7.96833E+02  6.65488E+02  1.60865E+03  7.42125E+02  1.55807E+03 -1.46325E+03  6.23044E+03  2.93232E+03
 -4.51310E+03  1.62555E+03 -3.70572E+03  3.56697E+03  2.92041E+03  1.49728E+02 -3.00579E+03  1.95951E+03
 -5.22135E+03 -7.56596E+03 -3.52294E+03 -7.26449E+03  5.22909E+02 -6.05357E+03  3.98589E+03  2.76669E+02
  4.70692E+03 -2.83091E+03  9.29198E+02  5.04560E+03  2.18046E+03  4.25194E+03 -2.77518E+03 -2.23137E+03
 -5.07862E+02 -1.42600E+03  3.87441E+01 -5.39439E+03  2.81966E+03 -4.34896E+03 -5.08202E+02 -4.51086E+03
  1.39498E+03 -2.37604E+03  2.47060E+03 -3.62540E+03 -4.35931E+03  4.37850E+02  3.36748E+03 -3.23837E+03
  1.25567E+02 -2.35997E+03  9.51024E+03  4.93365E+03  5.50635E+03  1.29240E+03  5.55671E+03  8.37888E+03
 -5.65438E+02  1.27667E+03 -6.34588E+03  4.83184E+03 -3.90887E+03  1.81776E+03 -2.09257E+02  2.35104E+03
  1.16299E+03 -1.73067E+02 -1.08492E+03  3.21338E+03  1.82277E+02  2.81046E+03  1.22517E+02  2.96075E+02
  3.37153E+02  2.45996E+03 -1.32649E+03  7.43054E+02  1.46065E+03 -3.31102E+01 -1.19802E+03 -6.54245E+03
 -7.86068E+02 -1.21711E+03 -5.48867E+01  4.01831E+03 -3.69150E+03 -1.90897E+02 -3.20376E+03  3.58274E+03
 -1.15269E+03 -2.32609E+03 -3.35268E+02 -9.93195E+02  9.85770E+02  4.92054E+03  1.37451E+03 -9.34915E+01
 -2.58113E+02 -1.86386E+03  1.45865E+03  2.29039E+03  2.44803E+03 -2.53809E+03  1.16333E+03  2.73943E+03
 -1.25767E+02  1.99242E+03 -4.34803E+02  2.42775E+03  7.33118E+02  2.97828E+03  5.65008E+02  5.37895E+03
  4.81752E+03 -4.19015E+03  1.45096E+03 -3.57546E+03 -2.79832E+03 -5.49867E+02  1.01136E+03 -3.04725E+03
 -2.03691E+03 -1.19260E+03 -1.08478E+03  1.49616E+03 -7.53549E+03 -1.60784E+03  1.88074E+03 -7.74187E+02
 -4.25649E+03  4.00949E+03 -5.43328E+03 -2.14902E+03 -2.01206E+03  1.98239E+02 -6.90900E+03  1.23491E+03
  1.43741E+03 -3.09742E+03 -4.85524E+02 -6.86785E+03  2.81354E+03 -1.06454E+03  4.96034E+03 -3.64018E+03
  3.61706E+03  4.75912E+03  3.05495E+03  4.66790E+03 -2.72536E+03  7.80224E+02  9.93291E+02  1.54414E+03
 -1.80486E+03 -8.02495E+02 -8.17083E+02  1.48237E+02 -6.63630E+02  4.27839E+02 -1.05345E+03 -1.20050E+03
 -2.62550E+03 -2.98791E+03  5.18929E+03 -1.76057E+03  6.19793E+03 -2.68644E+03  3.04150E+03 -2.57960E+03
 -4.10126E+02  4.07220E+03  3.39892E+03 -5.90824E+03  3.76944E+03  4.68832E+02  4.33216E+03  2.79977E+03
 -5.80966E+03  1.26398E+03 -2.95064E+03  2.85676E+03 -2.52581E+03 -4.62617E+03 -1.21440E+03 -5.48725E+03
  9.37262E+02 -1.01818E+03 -3.22769E+03 -4.19876E+03  1.97059E+03 -4.64699E+03  1.51209E+03  7.84716E+02
  4.91869E+03 -2.89513E+03 -3.13717E+03  7.18744E+02 -7.04932E+02  5.95984E+02  6.71488E+02 -7.64623E+02
  1.37407E+02  5.98249E+02 -2.97118E+03  4.54598E+03  2.99465E+03 -1.31597E+03  1.82978E+03 -2.79894E+02
  9.39156E+02  3.62500E+03  4.76423E+02  2.68962E+03  5.24049E+02  2.75646E+03 -9.87039E+02 -1.12841E+03
  3.48993E+03  2.77748E+03  8.38644E+01 -4.78000E+02  9.46042E+02  1.31175E+03  3.20689E+03 -1.64367E+03
 -8.79873E+02  5.70494E+02 -4.41940E+03 -3.22316E+02 -2.22142E+03 -1.17641E+03 -3.94872E+03  9.37033E+02
 -4.51969E+03  1.06923E+03 -1.93518E+03  1.21701E+03  1.19310E+03 -1.23849E+03 -1.18880E+02  4.30132E+03
 -2.65426E+03 -3.11608E+03  2.53472E+03 -3.57452E+03 -1.49962E+03 -6.09090E+03  1.85239E+03  1.44546E+03
  5.46469E+03  4.89875E+03  2.62459E+02  2.77783E+02  5.60303E+03  1.13545E+03 -3.01360E+03 -4.16375E+02
