 $NMID ID='MM_0lb_SNR50_18hz_g50_84.RAW', FMTDAT='(8E13.5)'
 TRAMP=1., VOLUME=1. $END
  3.10414E+05  1.04684E+03  3.34549E+05  2.52950E+05  8.95648E+04  3.39052E+05 -1.29521E+05  2.46447E+05
 -1.89659E+05  8.44606E+04 -1.07815E+05 -3.27041E+04  1.68978E+03 -5.23890E+04  5.69208E+04 -4.79489E+03
  3.52150E+04  5.78681E+04 -1.12804E+04  7.36187E+04 -6.03875E+04  6.52381E+04 -8.11958E+04  2.81670E+04
 -7.76389E+04 -1.04305E+04 -5.50959E+04 -5.30081E+04 -2.02666E+04 -6.70886E+04  2.63535E+04 -4.51238E+04
  3.59630E+04  6.53862E+03  1.37124E+04  4.55837E+04 -3.27038E+04  4.21660E+04 -6.88416E+04 -2.07456E+03
 -5.34596E+04 -5.58138E+04 -6.53541E+03 -7.73236E+04  3.80754E+04 -5.69523E+04  5.07395E+04 -1.96450E+04
  4.36284E+04  6.84557E+03  2.92463E+04  2.09119E+04  1.55881E+04  2.96428E+04 -5.25801E+03  2.75517E+04
 -2.08563E+04  1.32187E+04 -1.91152E+04 -6.54842E+03  5.00067E+03 -7.96868E+03  2.22121E+04  9.26213E+03
  6.44805E+03  3.44530E+04 -2.64403E+04  3.47284E+04 -6.04677E+04  3.31446E+03 -5.57942E+04 -4.20145E+04
 -1.04279E+04 -5.72705E+04  3.60407E+04 -4.68503E+04  5.61820E+04 -1.15612E+03  3.22989E+04  2.79359E+04
 -4.51330E+03  3.30438E+04 -2.44867E+04  1.58272E+04 -3.03510E+04 -3.44336E+03 -1.03074E+04 -6.48366E+03
 -9.22379E+03 -1.32293E+04  1.58588E+03 -1.52562E+04  9.51369E+03 -2.19355E+04  1.78187E+04 -1.55175E+04
  1.47045E+04  2.93810E+03 -1.51903E+03  1.52327E+04 -1.95654E+04 -2.15682E+03 -4.63590E+03 -3.02412E+04
  2.21542E+04 -4.02146E+04  4.30052E+04 -2.22375E+04  4.38470E+04  1.85906E+04  1.51579E+04  4.54384E+04
 -1.44086E+04  3.08177E+04 -2.63079E+04  9.43016E+02 -4.00804E+03 -2.78902E+04  2.41563E+04 -3.62777E+04
  3.27484E+04 -7.65310E+03  3.31030E+04  1.89336E+04  1.46039E+04  4.05400E+04 -1.29254E+04  4.74766E+04
 -2.69564E+04  3.02955E+04 -3.76251E+04  9.51143E+03 -3.80632E+04 -1.80741E+04 -2.31978E+04 -3.38195E+04
  8.18281E+03 -3.41507E+04  2.83999E+04 -1.06104E+04  2.57314E+04  1.14909E+04  3.64355E+03  1.57369E+04
 -1.51716E+04  6.13391E+03 -8.92873E+03 -9.07109E+03  1.02094E+04 -1.32831E+04  1.18182E+04  8.06578E+03
  1.63867E+04  1.84540E+04 -8.69493E+03  2.56888E+04 -2.27453E+04  9.77669E+03 -2.80937E+04 -7.73755E+03
 -2.00897E+04 -2.35642E+04 -7.38996E+03 -1.99746E+04  3.85972E+03 -1.66408E+04  9.67873E+03 -1.53864E+04
  2.47443E+04 -1.41889E+04  2.82560E+04  3.69968E+03  1.72504E+04  1.63181E+04  6.31951E+03  3.50940E+04
 -1.36513E+04  2.77752E+04 -2.37816E+04  8.52725E+03 -1.64447E+04 -1.08419E+04 -6.42768E+03 -1.33012E+04
 -1.07205E+02 -4.94362E+03 -3.08021E+03  9.12497E+03 -1.73608E+04  8.95372E+03 -1.99723E+04 -3.27707E+03
 -7.89479E+03 -1.65697E+04  6.49530E+03 -2.28643E+04  1.71007E+04 -1.27584E+04  1.08312E+04 -4.20187E+03
  5.44917E+03  1.01398E+04  1.39486E+03  2.17233E+04 -9.87216E+03  1.67446E+04 -1.75339E+04 -5.80231E+03
 -1.23578E+04 -8.97187E+03 -4.48981E+02 -1.97176E+04  1.04029E+04 -1.83681E+04  1.81318E+04 -7.18664E+03
  1.65614E+04 -4.02038E+03  7.54687E+03  7.09090E+03  4.98228E+03  5.81941E+02  7.90507E+03 -9.10092E+02
  1.36124E+04  4.99548E+03  1.60558E+04  1.40717E+04  9.69102E+03  2.47843E+04 -2.55853E+03  3.06248E+04
 -1.94499E+04  1.93535E+04 -2.51571E+04  8.46543E+03 -2.53458E+04 -1.85444E+03 -1.75713E+04 -1.44328E+04
 -8.20271E+03 -2.09360E+04  4.09052E+03 -1.30378E+04  1.84451E+04 -1.45873E+04  1.17407E+04  2.06077E+03
  7.33028E+03  1.07324E+04 -1.05262E+04  1.04866E+04 -1.21329E+04  2.61228E+03 -1.13471E+04 -7.80640E+03
  1.82586E+02 -1.00555E+04  6.67431E+03 -7.86850E+03  5.94476E+03 -2.69233E+03  1.78595E+02  6.04611E+03
 -7.88447E+03  2.26498E+03 -3.61916E+03  1.64969E+03  4.17321E+02 -1.14446E+04  1.05806E+04 -1.27796E+04
  1.07654E+04 -1.05731E+04  1.24766E+04  3.64786E+03  1.32773E+04  6.97194E+03  7.16399E+03  1.26743E+04
 -2.08560E+03  1.51358E+04 -9.60743E+03  1.08191E+04 -1.76196E+04  5.48826E+03 -6.37341E+03 -2.74475E+03
 -3.88994E+03 -4.72498E+03  2.52141E+03  6.92735E+02 -9.89097E+02  2.95834E+03 -1.05029E+03  5.74583E+03
 -7.59981E+03 -5.34327E+02 -8.99377E+03 -8.58866E+03 -5.71030E+03 -1.32466E+04  4.69256E+03 -8.40315E+03
  8.26054E+03 -4.69807E+03  4.68351E+03  1.29665E+03  6.50888E+02  5.02544E+03 -2.74197E+03  9.95180E+02
 -2.94992E+02 -6.38124E+03 -2.68776E+03 -5.75110E+03  4.21426E+03 -1.12494E+04  1.32588E+04 -2.89919E+03
  9.20754E+03  2.05898E+03  6.53707E+03  6.99524E+03 -9.00769E+02  1.14903E+04 -6.15628E+03  1.07086E+04
 -5.04106E+03  2.73057E+03 -4.58550E+03 -3.90391E+03  5.58333E+03 -4.96433E+03  4.35282E+03 -2.30790E+03
  6.31365E+03  7.33258E+03  3.58555E+03  7.27474E+03 -3.73070E+03  8.68955E+03 -8.60734E+03  4.76971E+03
 -6.35872E+03 -6.11766E+03  2.90396E+03 -8.18439E+03  2.97208E+03 -7.89245E+03  1.17119E+03  1.14528E+03
  4.22176E+03  3.19127E+03 -5.27772E+03  3.74503E+03 -3.25490E+03  1.34282E+03 -2.09610E+03  2.01442E+02
 -2.66725E+03 -5.18928E+03 -3.41080E+03 -4.33440E+03  9.77427E+03 -8.09802E+03  8.39492E+03 -3.43438E+03
  8.98129E+03 -4.17931E+02  2.07049E+02  1.13835E+04 -5.00789E+03  2.41692E+03 -9.65106E+02 -1.63308E+03
 -7.45378E+03 -7.57776E+03 -9.84338E+02 -4.64202E+03  4.57883E+02 -4.60817E+03  4.09317E+03 -7.76205E+03
  2.82748E+03  4.57330E+03 -2.12999E+03 -1.10056E+02  2.59060E+03 -2.25104E+02 -8.92542E+02 -2.54302E+03
  4.10593E+03 -2.55927E+03  3.95497E+03  4.49342E+03  7.23944E+03  4.66148E+03  4.35471E+03  8.82846E+03
 -2.05212E+03  9.60317E+03 -8.88370E+03  1.01695E+04 -1.11948E+04  3.06627E+03 -9.91005E+03 -4.02648E+03
 -2.05138E+03 -3.93682E+03  6.07874E+03 -4.21970E+02  1.61207E+03  2.08272E+02  1.34032E+03 -6.67509E+03
  1.91361E+03 -4.31824E+03  1.51470E+03 -3.11316E+03  2.97405E+03 -2.19350E+03  3.12717E+03 -1.95217E+03
  5.16105E+03  1.30219E+03  1.46911E+03  2.05397E+03 -1.43178E+03  1.40483E+02 -4.10212E+03  7.46924E+03
 -7.24891E+03  2.50585E+01 -1.92397E+03 -3.92271E+03  6.21057E+03 -5.56973E+03  3.16577E+03 -7.05402E+03
  5.83890E+03 -5.40936E+03  5.40665E+03  1.02907E+03  4.90091E+03  5.87094E+02  9.10103E+03  6.41587E+03
 -3.24457E+03  4.50892E+03 -4.43763E+03  2.23648E+03 -1.48012E+03 -5.27085E+03  2.02700E+03  5.20247E+02
  1.65875E+02  2.38521E+03 -1.57001E+03 -4.71632E+02 -2.36291E+03  1.12207E+03 -6.19959E+03 -2.22271E+03
 -1.61660E+03 -5.25519E+03  1.33043E+02 -3.54098E+03 -6.53871E+02 -6.67595E+03  2.11502E+03 -4.28414E+03
  5.22249E+03  2.27322E+03 -7.26447E+02  1.44838E+03 -2.30942E+03  3.80457E+03 -1.68028E+03  5.45400E+01
 -3.77165E+03  1.44477E+03 -1.87178E+03 -1.74869E+03  7.24835E+02 -4.34690E+03  1.10198E+03 -6.85831E+03
  6.96214E+03 -1.18114E+03  2.87729E+02 -3.31891E+03 -3.16430E+03  2.28725E+03  1.60433E+02  8.17945E+02
  2.85681E+03  2.80307E+03  3.11861E+03 -3.32949E+02 -2.02104E+03  2.16733E+03 -2.44357E+03 -1.22513E+03
 -4.32599E+03 -1.53587E+02 -4.74976E+03  9.19605E+02 -3.99621E+03 -4.23256E+03 -4.76260E+03  7.23908E+02
 -1.59029E+03 -2.65568E+03  1.90634E+03 -2.41464E+03  1.63590E+03 -1.39841E+03 -9.38794E+02 -4.20080E+03
  1.41358E+03  2.15664E+03  1.42616E+03  3.51360E+03  3.68466E+02 -3.73058E+03 -4.04159E+03  3.94034E+03
 -1.96805E+02 -4.38083E+03 -1.35969E+03 -1.46900E+03  1.08498E+03  4.66026E+02  5.28760E+02 -3.92190E+03
  3.15552E+03 -1.77207E+03  1.07074E+03 -4.16718E+03  1.37931E+03  5.72609E+02  8.35866E+02 -4.96408E+03
  1.15806E+03  3.91311E+02 -3.09569E+02 -1.51318E+03  1.03783E+03 -7.85576E+02  2.46781E+02  3.82516E+03
 -5.62883E+03 -1.68536E+03 -3.97660E+03  1.49918E+03 -9.08382E+02 -3.77684E+02  3.58982E+03 -2.88821E+03
 -7.46498E+02 -2.28713E+03  2.52521E+03 -4.08129E+03  5.42287E+02  6.41304E+03  1.12992E+03 -1.02634E+03
 -4.81100E+03  3.98506E+02 -2.41598E+03 -2.74873E+03 -1.24577E+03 -2.40237E+03 -2.45344E+03 -2.24515E+03
 -5.43683E+03 -3.97830E+03  3.31202E+03 -2.49747E+03  1.73702E+03 -1.36806E+03  1.43096E+03  1.63749E+03
 -3.13238E+03  4.04698E+02 -2.87016E+03 -2.74405E+03  3.37407E+03  6.38817E+02  2.59051E+03 -6.75741E+03
  4.44938E+02 -3.23749E+03  4.56101E+03 -3.89639E+02 -2.38583E+03  1.71234E+03  3.02659E+02  5.65183E+03
 -6.63911E+02 -1.89719E+03 -5.35914E+03 -1.47755E+03 -1.84508E+03 -2.49995E+03  1.28915E+03 -1.89589E+02
  7.46883E+02  2.43785E+03  4.24000E+03  6.11895E+03  4.14297E+03  1.12319E+03  3.47738E+03  5.07942E+03
  9.77432E+01  1.29210E+03 -4.92076E+03  5.20477E+03  8.21453E+02  2.74082E+02 -2.29871E+03  3.51839E+03
  7.10523E+02  1.74770E+03 -6.28984E+02  3.58784E+03  2.17272E+02 -6.29115E+02 -1.32200E+03 -3.60750E+03
 -7.15125E+02  9.33867E+02  2.56235E+02 -7.95998E+02  2.06975E+03 -2.20076E+03  3.76166E+03  5.37735E+03
  4.05094E+03  7.55508E+02  3.45692E+03  2.37166E+03 -1.86676E+03  4.63590E+03 -2.07752E+02  3.21466E+03
  2.40762E+03 -3.10047E+02 -4.31951E+02 -3.25196E+03 -2.67484E+03  6.47168E+02 -1.20269E+03  3.21707E+03
 -3.15459E+03 -4.00062E+02 -4.04435E+03 -1.84101E+03 -4.61297E+02  1.37973E+02  1.76888E+03  2.21896E+03
  3.08429E+03  4.80194E+02  2.78580E+03  1.65114E+02  3.45178E+03  5.88815E+03 -2.35788E+03 -2.79577E+03
 -1.77781E+03 -6.97488E+02 -1.35057E+03  5.63802E+03 -2.78228E+03 -3.09717E+03 -1.06286E+03 -3.45398E+03
 -2.07528E+03  1.34295E+03  1.03822E+03 -1.37404E+03  5.30584E+02  8.80103E+02  1.96593E+03  4.21393E+02
  3.83846E+03  1.81442E+03 -1.19234E+03  2.75760E+02  2.31571E+02  5.69462E+03 -2.23851E+03  1.66207E+03
  3.08442E+03 -6.53037E+02  2.02640E+03  1.18879E+03 -4.00623E+03 -1.86996E+03 -5.82790E+02 -2.76381E+03
 -1.16308E+03  1.16008E+02  9.46385E+01 -7.96762E+02 -5.91780E+03 -1.44859E+03 -5.19520E+02 -3.08348E+03
 -5.52778E+03  4.46957E+02  2.66716E+03 -2.29112E+02 -1.42427E+03 -8.44641E+02 -5.46694E+02  7.00486E+03
  7.00946E+03  6.27602E+03  1.40931E+03 -2.73338E+03  5.23983E+03  1.62375E+03  6.13670E+02  1.98127E+03
 -1.09307E+02 -1.12714E+03  4.99192E+03  7.94519E+02  1.81077E+03  1.44931E+03 -4.84676E+03 -3.11877E+03
 -2.03386E+03  1.40173E+03 -3.28413E+03  3.02958E+03 -6.13969E+02 -2.49843E+03 -2.63743E+03  3.30796E+03
 -4.20507E+03 -2.95246E+02  8.94608E+01 -1.24694E+03 -3.24469E+03 -1.24979E+03  3.97349E+02  1.16380E+03
