 $NMID ID='MM_0lb_SNR50_15hz_g60_20.RAW', FMTDAT='(8E13.5)'
 TRAMP=1., VOLUME=1. $END
  3.03153E+05  3.86586E+03  3.36405E+05  2.51184E+05  8.62834E+04  3.38178E+05 -1.33211E+05  2.54123E+05
 -1.87657E+05  8.29665E+04 -1.11008E+05 -3.19728E+04  1.77865E+03 -4.74963E+04  5.61757E+04  1.95185E+03
  3.30976E+04  5.44065E+04 -1.40776E+04  7.30712E+04 -6.18228E+04  5.72257E+04 -8.73060E+04  2.72693E+04
 -7.81685E+04 -1.27174E+04 -6.21343E+04 -5.03595E+04 -1.09966E+04 -7.08425E+04  2.80702E+04 -4.91870E+04
  3.99086E+04  6.04457E+03  1.78482E+04  4.77143E+04 -3.38168E+04  4.59978E+04 -6.52233E+04 -1.26712E+02
 -5.40049E+04 -5.97907E+04 -8.19523E+03 -7.48359E+04  3.67063E+04 -5.09060E+04  4.21151E+04 -1.60881E+04
  4.08781E+04  8.25741E+03  2.70209E+04  3.25838E+04  1.48494E+04  3.60710E+04 -4.74816E+03  2.95959E+04
 -2.12951E+04  1.98236E+04 -1.84395E+04 -1.89723E+03  7.67663E+03 -5.58851E+03  2.49835E+04  9.13068E+03
  9.17055E+03  3.34496E+04 -3.59233E+04  3.64169E+04 -6.15179E+04  6.27127E+03 -5.85061E+04 -4.39550E+04
 -1.17340E+04 -6.21326E+04  4.25134E+04 -4.14539E+04  5.61136E+04 -1.93357E+03  3.44847E+04  3.50168E+04
 -1.41257E+04  3.88956E+04 -2.72226E+04  1.59410E+04 -2.47335E+04 -7.24549E+03 -1.29265E+04 -6.24234E+03
 -9.43476E+03 -1.65489E+04  4.58757E+03 -1.93213E+04  9.80187E+03 -2.52460E+04  1.51374E+04 -1.04487E+04
  1.04081E+04  3.29196E+03 -2.82242E+03  1.30533E+04 -1.79431E+04 -1.67225E+03 -1.04033E+04 -4.42643E+04
  2.25764E+04 -4.30569E+04  4.79175E+04 -1.46537E+04  4.20655E+04  2.04486E+04  1.49692E+04  4.60789E+04
 -1.61913E+04  3.22557E+04 -2.36479E+04 -6.57651E+02 -1.12761E+04 -3.05537E+04  2.51101E+04 -3.23653E+04
  4.03412E+04 -8.98102E+03  3.39880E+04  2.45308E+04  1.67738E+04  4.94145E+04 -8.19671E+03  5.30823E+04
 -3.22328E+04  3.39978E+04 -4.35157E+04  1.10494E+04 -4.47981E+04 -1.67794E+04 -2.09825E+04 -3.88322E+04
  7.80093E+03 -3.67324E+04  3.00599E+04 -1.17393E+04  2.60766E+04  1.47210E+04  2.20744E+03  2.31845E+04
 -1.30819E+04  6.03783E+03 -1.04729E+04 -6.18420E+03  6.88438E+03 -8.56644E+03  1.84494E+04  6.06676E+03
  1.73571E+04  2.39105E+04 -7.50029E+03  3.22968E+04 -2.16101E+04  8.37492E+03 -2.98336E+04 -7.66681E+03
 -1.46867E+04 -1.31330E+04 -5.36770E+03 -2.01612E+04  4.27882E+03 -2.22116E+04  1.46073E+04 -1.99156E+04
  2.33124E+04 -1.02484E+04  3.08795E+04  4.67571E+03  2.64793E+04  2.33411E+04  5.20574E+03  4.03633E+04
 -1.40561E+04  2.93074E+04 -3.01686E+04  7.56114E+03 -1.66912E+04 -1.04126E+04 -4.75519E+03 -1.26820E+04
  3.48013E+03  1.75431E+03 -3.05076E+03  8.39232E+03 -2.12189E+04  6.61313E+03 -1.74525E+04 -5.57917E+03
 -9.35391E+03 -2.28036E+04  2.85433E+03 -2.34886E+04  1.34502E+04 -1.66684E+04  1.35149E+04 -2.42701E+03
  1.31185E+04  1.44078E+04 -5.26534E+03  1.27564E+04 -1.08324E+04  6.83556E+03 -2.10347E+04 -3.01815E+03
 -1.82839E+04 -1.82081E+04 -2.29654E+03 -2.45018E+04  9.65880E+03 -1.70988E+04  1.68139E+04 -9.60044E+03
  1.89468E+04  2.71353E+03  1.40118E+04  2.10423E+03  4.86007E+03 -2.74600E+02  7.09153E+03 -4.75969E+03
  1.57776E+04  3.02552E+03  2.55885E+04  1.38120E+04  1.62608E+04  3.45740E+04 -2.02059E+02  3.51769E+04
 -2.13839E+04  2.65525E+04 -3.20288E+04  1.68941E+04 -3.64006E+04 -2.32621E+03 -2.44859E+04 -1.89271E+04
 -1.36522E+04 -2.68254E+04  9.62248E+03 -2.29547E+04  1.96686E+04 -9.96491E+03  2.03044E+04  3.97607E+03
  1.05481E+04  1.65543E+04 -1.32089E+04  1.30570E+04 -1.52223E+04  3.28196E+03 -1.14275E+04 -7.92957E+03
  3.68874E+03 -1.05593E+04  1.12226E+04 -1.25456E+04  9.86921E+03 -1.06170E+03  3.69587E+03  5.54922E+03
 -1.28993E+04 -4.58354E+03 -8.30628E+03 -6.80297E+03 -7.71932E+02 -1.49482E+04  4.48317E+03 -1.52986E+04
  2.03002E+04 -9.49313E+02  1.84107E+04  1.53684E+03  1.74906E+04  1.67935E+04  5.01262E+03  2.74795E+04
 -1.19066E+03  2.26209E+04 -8.57417E+03  1.78859E+04 -1.39074E+04  7.32567E+03 -1.12273E+04 -5.46800E+03
 -3.83719E+03 -8.03067E+03 -7.68200E+02  1.91590E+03 -2.18398E+03 -1.11334E+03 -5.46920E+03  6.06561E+03
 -8.07299E+03 -3.51569E+03 -7.05330E+03 -8.79076E+03 -4.67913E+03 -1.07524E+04  4.68781E+03 -6.97942E+03
  1.13389E+04 -8.49300E+02  1.67016E+02  6.45453E+03  4.24204E+03  6.29501E+03 -8.10333E+03  2.28244E+03
 -4.27800E+03 -6.02663E+03 -5.01582E+03 -1.14001E+04  7.10093E+03 -8.21103E+03  1.22701E+04 -9.98283E+03
  1.82349E+04  3.44024E+03  1.26816E+04  9.18930E+03  5.36664E+03  1.26000E+04 -5.79391E+03  5.95109E+03
 -9.93642E+03  4.08487E+03 -1.48041E+03  2.45528E+02  1.84920E+03  2.67125E+03  4.51379E+03 -4.89714E+03
  5.19898E+03 -7.79191E+02  1.66715E+03  6.95303E+03 -5.97515E+03  8.54415E+03 -1.11965E+04  2.75206E+03
 -8.35436E+03 -4.15817E+03  1.99187E+03 -1.09213E+04  7.27044E+03  4.83408E+03  7.33197E+03  4.74648E+03
 -8.08784E+02  3.66953E+03 -7.58911E+02  9.57524E+03 -8.52531E+03  7.16061E+03 -7.58338E+03 -2.38735E+03
 -7.52961E+03 -1.12525E+04  1.32871E+01 -1.57262E+04  8.76050E+03 -5.27138E+03  1.48140E+04  2.55623E+03
  7.24669E+03  7.85955E+03 -2.66112E+03  6.01396E+03 -1.09882E+04  7.96464E+03 -5.82996E+03 -2.65471E+03
 -3.42879E+03 -5.56677E+03 -6.34737E+03 -4.03718E+03  3.68373E+03 -2.33661E+03  5.44262E+03  1.24298E+03
  6.30868E+03  1.80615E+03 -6.14959E+03  2.53719E+03  5.16652E+03 -1.31176E+03  4.42307E+03 -6.20046E+03
  1.22785E+04 -1.93354E+03  1.11191E+04  8.52910E+02  1.47872E+04  5.12765E+03  5.43847E+03  1.22649E+04
 -4.70947E+03  1.91775E+04 -1.13824E+04  1.14598E+04 -1.05576E+04  2.64514E+03 -1.40288E+04 -4.05805E+03
 -4.78466E+03 -1.35962E+04  2.74667E+03 -1.42380E+04  2.11188E+03 -1.00219E+04  2.44595E+03  3.92163E+02
 -2.70290E+03 -4.59285E+02  2.25009E+02 -3.73133E+03  5.97704E+03 -5.90432E+03  1.08602E+03 -2.89410E+02
  1.03298E+04 -8.73026E+01  3.40749E+03  5.24471E+03  1.82179E+03  1.02020E+04 -6.15301E+03  8.15630E+03
 -1.08038E+04  1.98683E+03 -2.91219E+03 -5.88141E+03 -4.85264E+03 -9.74471E+03  7.19579E+03 -2.82862E+03
  6.16252E+03 -5.16772E+03  1.09811E+04  3.38058E+03  1.19079E+04  8.28396E+03 -9.93874E+02  6.60481E+03
 -6.48962E+03  1.21590E+04 -5.47031E+03  3.82239E+03 -5.47146E+03  3.01215E+03 -1.31208E+03  1.34261E+03
 -2.86980E+03  4.32009E+03  6.21913E+03  5.87513E+02 -1.08963E+03  3.98156E+02 -8.77895E+03  2.70262E+03
 -2.95175E+03 -6.80733E+03 -1.33952E+02 -7.58751E+03  2.78463E+03 -1.12303E+04  4.21150E+03 -1.14465E+03
  7.40729E+03 -1.39587E+03  7.34891E+03  7.88764E+03 -5.91279E+03  2.29610E+03 -4.49152E+02  5.80596E+03
 -3.39193E+03  1.68015E+03 -6.83605E+02 -2.92011E+03 -1.28018E+03 -1.28807E+04  2.14963E+03 -8.75784E+03
  4.97189E+03 -2.97986E+03 -1.30062E+03  7.42522E+03 -3.66820E+03  5.15602E+03  1.68497E+03  2.39853E+03
  7.09216E+02 -1.84547E+03  3.89257E+03  1.73629E+03  1.04366E+03  2.33923E+03  2.52440E+03 -2.17366E+03
 -2.05562E+02  2.44913E+03 -2.89042E+03  8.76460E+03 -7.67286E+03  7.41284E+02 -5.39400E+03 -3.09290E+03
 -3.82649E+03 -8.70137E+03 -2.76146E+02 -7.97857E+03  3.89952E+03 -7.70996E+03  1.19530E+04 -3.91538E+03
  1.22351E+03  3.53377E+03  3.89902E+03  5.64788E+03 -1.29808E+03  3.56538E+03 -5.00871E+02  3.21184E+03
 -6.11920E+03 -1.32526E+03  2.06778E+03  1.20912E+03  2.41403E+03  5.79700E+03 -9.69225E+02 -1.19730E+02
  5.09760E+03  2.05893E+03 -9.06888E+02  4.57993E+02  9.97957E+02 -2.81147E+03  3.40825E+03 -2.96651E+03
  9.58441E+02 -3.71910E+03  1.97092E+03  5.34736E+02  3.80670E+02  6.97712E+03  5.05225E+02  6.21758E+03
 -2.40989E+03  3.00414E+02 -4.86940E+03  3.91397E+03 -3.95314E+03 -7.90231E+02 -7.87648E+02 -3.83523E+03
  1.07174E+03 -2.66709E+03 -1.17387E+03 -1.06980E+04  5.01474E+03 -8.72052E+02 -3.23436E+03  4.21747E+03
 -7.10793E+02  4.73128E+03 -4.38377E+03 -4.30227E+03 -7.95281E+03  1.56794E+03  2.01237E+03 -1.41366E+03
  2.43614E+03  5.30200E+02 -1.09221E+03 -1.96164E+03  6.25624E+02 -2.04870E+03  1.75826E+03  1.71024E+03
  7.97528E+02  1.23707E+03 -6.34698E+03 -2.17660E+03 -2.53333E+03 -1.25198E+02  2.92179E+03 -2.82591E+03
  5.26730E+02  2.57141E+03  2.56694E+03  1.08669E+03  2.86589E+03  4.35067E+03 -2.74786E+03  2.74854E+02
  3.53775E+03  4.76448E+02 -3.09542E+03 -1.67232E+03  9.62353E+01 -3.99735E+03  4.32782E+03 -1.60459E+03
  1.19986E+03  5.13361E+03 -1.04931E+03  2.78494E+03  1.75850E+02  5.56907E+02 -2.54832E+03  2.93470E+03
  5.26136E+03  3.49251E+03  2.69598E+02 -7.08869E+02 -3.37906E+03 -6.77995E+01 -2.85649E+03  1.24457E+03
 -1.13230E+03 -8.67625E+02 -5.05902E+03 -2.74663E+03 -6.29228E+03  1.11377E+03 -5.88902E+03 -8.08280E+02
  1.64062E+03 -8.61885E+03 -2.50562E+03 -1.27105E+03  3.98246E+03 -2.61468E+03  6.09095E+03  2.86266E+02
  6.31312E+03  1.76496E+03  3.72436E+03  3.89911E+03 -6.40794E+03  1.27557E+04  1.08706E+03  3.42548E+03
 -3.96035E+03  1.66493E+03  3.20651E+03 -3.58609E+02  1.77286E+03  5.18799E+03 -7.03199E+02 -3.40799E+03
 -4.09299E+03  8.09935E+02 -3.87089E+03  3.97773E+03 -2.20754E+03  1.48688E+03 -1.17824E+03 -4.78635E+03
 -1.00034E+03  4.45327E+02  4.01272E+03  1.35291E+02  2.71803E+03 -8.34906E+02  1.98943E+03  3.96275E+03
  5.06587E+02  4.99479E+03 -1.38801E+03 -4.57608E+02 -2.95184E+03 -4.50627E+02 -4.59575E+03 -2.81365E+03
  9.69911E+02 -3.49939E+03 -5.85013E+02  4.50243E+02  2.99722E+03 -1.55300E+03  7.26073E+03  2.16831E+03
  4.64308E+03  1.35069E+03  1.79313E+03  6.05772E+02 -3.85355E+03 -3.18692E+02  1.88426E+03 -3.28330E+02
  3.36528E+02  3.39534E+03  1.50626E+02  3.86691E+03  2.48426E+03 -2.47687E+03  4.96893E+02 -4.37450E+02
  5.68867E+02  3.06096E+02 -2.44907E+03  7.10622E+02 -2.09904E+03 -6.06265E+03 -1.64676E+03  2.09770E+03
  1.71516E+03 -2.40790E+03  4.61284E+02  1.36983E+03  4.30651E+03  3.09628E+03  8.80528E+02 -8.31079E+02
  3.90474E+03 -3.32967E+02  1.50265E+03  7.76958E+02  8.50313E+02  5.27384E+03 -3.66767E+03 -2.04941E+03
 -2.85623E+03  7.19957E+02  2.80326E+03 -3.24936E+03  1.94363E+03 -1.72798E+03  9.17935E+02 -3.59772E+03
 -4.86749E+03  4.98632E+02  2.54711E+03 -5.20452E+03  3.32755E+03 -6.63140E+01  1.83116E+03 -1.05664E+03
 -3.31492E+03  5.92581E+02 -6.45172E+02 -1.08580E+03  4.37497E+03 -1.32679E+03 -2.14643E+03  1.31053E+02
