 $NMID ID='MM_0lb_SNR50_8hz_g40_97.RAW', FMTDAT='(8E13.5)'
 TRAMP=1., VOLUME=1. $END
  3.16917E+05 -1.73223E+02  3.35275E+05  2.50781E+05  8.18436E+04  3.37338E+05 -1.30293E+05  2.50910E+05
 -1.90159E+05  9.44724E+04 -1.11187E+05 -2.80192E+04 -3.87758E+03 -4.48903E+04  5.07427E+04  3.26673E+02
  2.88638E+04  5.55974E+04 -1.09543E+04  7.18874E+04 -6.33897E+04  6.18490E+04 -8.30522E+04  3.49179E+04
 -8.05754E+04 -7.04269E+03 -5.77531E+04 -5.47155E+04 -1.45804E+04 -6.88620E+04  2.25084E+04 -4.65463E+04
  4.77002E+04  1.05865E+04  1.54505E+04  4.51614E+04 -3.88315E+04  4.97921E+04 -6.64281E+04 -7.67583E+03
 -5.44211E+04 -6.42682E+04 -1.25439E+04 -7.95438E+04  3.55638E+04 -5.56084E+04  4.63480E+04 -1.58717E+04
  4.70521E+04  1.39229E+04  3.44798E+04  3.21681E+04  1.87730E+04  3.98002E+04 -4.67438E+03  1.86645E+04
 -1.96333E+04  1.25114E+04 -1.72728E+04 -4.00006E+03  3.92634E+03 -6.06107E+03  2.24260E+04  1.51061E+04
  1.03230E+04  3.58913E+04 -2.86910E+04  4.31547E+04 -6.51785E+04 -7.73204E+02 -5.45695E+04 -3.61075E+04
 -1.48713E+04 -6.42344E+04  4.15259E+04 -4.60664E+04  5.03758E+04 -9.26565E+01  3.92370E+04  2.85561E+04
 -2.76831E+02  3.38396E+04 -3.08717E+04  1.84109E+04 -2.52518E+04 -5.78277E+03 -2.11866E+04 -1.21098E+04
 -7.34259E+03 -2.03527E+04 -4.31592E+03 -1.98015E+04  7.07200E+03 -2.24771E+04  1.54064E+04 -1.59521E+04
  1.77537E+04  1.03530E+04 -1.29605E+04  1.09302E+04 -2.50231E+04 -1.03067E+04 -9.70559E+03 -4.05178E+04
  3.07757E+04 -4.11602E+04  5.56205E+04 -1.83978E+04  5.52005E+04  1.49775E+04  1.86203E+04  4.76516E+04
 -9.67492E+03  3.26567E+04 -2.66115E+04  3.20986E+03 -1.44227E+04 -2.57950E+04  2.30941E+04 -4.07984E+04
  3.93929E+04 -8.37434E+03  4.14953E+04  2.75533E+04  2.61457E+04  5.53580E+04 -7.42455E+03  6.13233E+04
 -4.10941E+04  3.53389E+04 -5.15698E+04  6.53419E+03 -4.59745E+04 -2.13597E+04 -2.94830E+04 -4.44758E+04
  8.32625E+03 -4.43437E+04  3.82048E+04 -1.29637E+04  3.61968E+04  1.14501E+04  1.16703E+04  2.32197E+04
 -1.24421E+04  8.56559E+03 -1.39704E+04 -2.98731E+03  6.65275E+03 -9.53542E+03  1.70492E+04  4.76078E+03
  2.06142E+04  1.76759E+04 -9.63389E+03  2.98690E+04 -2.61436E+04  1.69906E+04 -3.08369E+04 -7.10969E+03
 -2.89548E+04 -1.91012E+04 -1.59919E+04 -2.50158E+04  2.36693E+02 -2.56235E+04  2.61580E+04 -2.53540E+04
  3.43950E+04 -1.07427E+04  3.48668E+04  7.09030E+03  3.35987E+04  2.72316E+04  3.31452E+03  4.55612E+04
 -2.17693E+04  3.11108E+04 -2.98397E+04  1.06516E+04 -2.61442E+04 -1.00930E+04  7.11842E+02 -1.61545E+04
  2.65965E+03 -4.64222E+03 -5.55947E+03  1.13592E+04 -2.14039E+04  5.15230E+03 -1.61658E+04 -2.16641E+03
 -1.19898E+04 -2.21597E+04  1.43995E+03 -3.20135E+04  1.49981E+04 -2.35718E+04  2.14669E+04  4.14831E+02
  1.07516E+04  2.28005E+04 -1.25455E+03  1.87166E+04 -1.44850E+04  1.30440E+04 -2.68163E+04 -3.55580E+03
 -1.68588E+04 -2.48367E+04 -1.59243E+03 -2.37929E+04  1.53899E+04 -1.94121E+04  2.05142E+04 -1.66070E+04
  2.57750E+04 -2.79553E+03  1.45333E+04  6.49270E+03  7.55530E+03  2.40126E+03  1.28045E+04 -5.97554E+03
  1.62906E+04 -4.12840E+03  2.39908E+04  2.27842E+04  1.85781E+04  4.05039E+04  1.66154E+02  4.19503E+04
 -2.89853E+04  3.65660E+04 -4.80127E+04  1.87355E+04 -5.03892E+04 -1.10633E+03 -4.15922E+04 -2.14966E+04
 -1.89194E+04 -3.32416E+04  1.35072E+04 -3.15948E+04  2.63566E+04 -1.18500E+04  2.61779E+04  1.34020E+04
  1.02384E+04  1.57901E+04 -1.22637E+04  3.85192E+03 -2.07663E+04 -9.96907E+02 -1.36241E+04 -1.23510E+04
  3.68428E+03 -2.30010E+04  1.07566E+04 -9.30684E+03  1.42209E+04 -6.27329E+03  3.51960E+03  1.17876E+04
 -7.60786E+03  4.41258E+03 -2.74271E+03 -9.99725E+03 -5.69631E+03 -2.32611E+04  1.59750E+04 -1.50075E+04
  1.79913E+04 -1.13839E+04  3.36684E+04  4.60828E+03  2.16619E+04  2.60187E+04  8.46148E+03  3.01523E+04
 -1.25112E+03  3.44224E+04 -2.22562E+04  1.69790E+04 -1.50584E+04  2.03897E+03 -1.89244E+04 -2.97559E+03
 -1.10420E+04 -8.43755E+03 -6.12900E+03 -5.15403E+03 -6.03706E+03  7.25313E+03 -1.00215E+04 -1.74372E+03
 -1.18778E+04 -7.39958E+03 -1.33496E+04 -9.75230E+03 -5.58180E+03 -2.26440E+04  5.25210E+03 -1.72742E+04
  1.50895E+04 -1.18876E+04  1.18957E+04  8.97157E+03  1.77259E+03  9.51602E+03 -8.72455E+03 -1.17507E+03
 -1.35270E+04 -7.92975E+03  6.51157E+03 -1.52899E+04  1.07406E+04 -1.09573E+04  1.80687E+04 -9.78472E+03
  2.21509E+04  1.81488E+03  1.33683E+04  1.98563E+04  3.30743E+03  3.00793E+04 -8.33207E+03  1.26903E+04
 -1.26136E+04  3.53057E+03 -3.20727E+03 -4.21784E+03  2.78542E+02 -5.03727E+03  4.89153E+03 -3.96206E+03
  6.96536E+03  8.05034E+03  9.92040E+03  1.28523E+04 -9.24688E+03  1.40536E+04 -1.50676E+04  5.94949E+03
 -1.00619E+04 -1.00010E+04 -2.78799E+03 -1.05377E+04  9.78112E+03 -7.56090E+03  1.04337E+04 -1.50080E+03
 -1.54417E+03  7.96052E+03 -9.09034E+03  1.15863E+04 -1.57341E+04  4.02254E+03 -1.38664E+04 -6.20772E+03
 -1.05367E+04 -1.71555E+04  4.94019E+03 -2.14621E+04  9.09954E+03 -1.16036E+04  1.54971E+04  8.34369E+02
  1.51398E+04  1.29389E+04 -8.61314E+02  1.37506E+04 -7.62513E+03  8.04918E+03 -1.18466E+04 -5.09624E+02
 -1.60094E+04 -1.31930E+04 -3.09900E+03 -1.28512E+04  5.50359E+03 -1.47125E+04  1.03076E+04 -2.98114E+03
  4.64260E+03  3.91905E+03 -1.27022E+03  6.51071E+03 -2.01905E+03 -5.27952E+03  4.20341E+03 -5.27452E+03
  1.22034E+04 -2.36504E+03  1.75139E+04  8.00349E+03  1.59483E+04  1.27387E+04  1.41746E+04  2.05554E+04
 -4.88966E+03  2.62888E+04 -2.38331E+04  1.40800E+04 -2.91438E+04  2.27361E+03 -2.12227E+04 -1.24915E+04
 -7.35367E+03 -1.76479E+04 -3.43873E+03 -2.09959E+04  1.38007E+04 -1.11490E+04  5.32416E+02 -9.67620E+02
  9.11580E+03 -2.47928E+03  5.07810E+02 -8.17932E+03  6.14146E+03 -8.91385E+03  3.97902E+03 -5.21879E+03
  3.87796E+03  3.78609E+02  2.88754E+03  1.25127E+04  1.18537E+03  1.51410E+04 -9.57730E+03  1.22707E+04
 -1.74761E+04 -4.68779E+03 -5.49229E+03 -3.32515E+03 -1.80350E+03 -1.65185E+04  1.11927E+04 -2.09513E+04
  1.41734E+04 -3.65106E+03  1.97747E+04  2.33282E+03  1.88504E+04  1.43286E+04  4.29618E+03  2.03290E+04
 -1.07108E+04  1.78784E+04 -6.57666E+03  3.77395E+03 -9.98178E+03 -2.12559E+03 -8.31403E+03 -5.90323E+03
  1.99323E+03  5.04118E+02 -7.96259E+02  3.94569E+03 -9.61904E+03  3.42602E+03 -8.59272E+03 -1.99001E+03
 -9.44981E+03 -3.86650E+03 -3.80983E+03 -1.57384E+04  9.47990E+03 -1.77741E+04  1.25980E+04 -1.97942E+03
  1.74161E+04  6.35875E+03  7.16285E+03  6.67615E+03 -4.40109E+02  1.34979E+04 -7.84117E+03  8.66103E+03
 -1.33120E+04  2.63002E+03 -1.44734E+04 -1.21654E+04 -4.17378E+03 -1.63871E+04  5.37488E+03 -9.57647E+03
  7.56851E+03 -4.25769E+03  5.31932E+03  9.85664E+03  1.24636E+03  3.65478E+03  6.39936E+03 -2.59302E+03
 -1.37390E+03 -1.34693E+03  7.45226E+03  9.62989E+03  6.36496E+03  9.64412E+03 -1.65280E+03  9.73360E+03
  1.75780E+03  1.53671E+04 -1.53482E+04  1.48950E+04 -1.90353E+04  4.04859E+03 -1.49378E+04 -5.15141E+03
 -5.10179E+03 -1.88044E+04  6.79147E+03 -1.65323E+04  1.29201E+04 -1.51194E+04  1.23625E+04 -1.55730E+03
  1.38426E+04  4.84548E+03 -2.68353E+02  8.79177E+03 -1.25354E+03  7.84964E+03 -8.87584E+03 -2.92077E+03
 -4.10278E+03 -7.25639E+03  1.10609E+04 -3.71803E+03  7.83683E+03 -1.11806E+03  4.27029E+03  6.71329E+02
  3.04536E+03 -8.06782E+02 -7.43294E+03  3.97263E+03  3.36787E+03  6.04976E+03 -7.35370E+03  2.26538E+03
  7.64388E+03 -5.99790E+03  1.07410E+04  2.50947E+03  7.34097E+03  8.07050E+03  2.57016E+03  1.65295E+04
 -7.16261E+03  6.26540E+03 -1.00817E+04  5.09498E+03 -1.60327E+04  1.75880E+03 -5.69400E+03 -8.47117E+03
 -5.52984E+03 -1.00030E+04  8.21605E+03 -6.07447E+03  5.96636E+03  1.64670E+03 -5.13835E+03  6.56669E+03
 -1.00297E+04  1.19121E+03 -1.40809E+04 -7.26418E+02 -1.08461E+04 -1.10724E+04  4.21149E+03 -1.00187E+04
  5.40762E+03 -2.16298E+03  8.75056E+03  2.02169E+03  3.72087E+03 -3.79973E+03 -9.34536E+02  3.54729E+03
 -5.93800E+03  4.46188E+03 -1.07429E+04 -5.76170E+02  3.59545E+03 -1.02118E+04  6.93777E+03 -8.78223E+03
  1.42532E+04 -4.24942E+03  6.48937E+03  1.14736E+04  6.55151E+02  7.96855E+03 -5.06402E+03  1.05750E+04
 -1.40546E+03 -4.53705E+02 -1.09006E+04 -2.34379E+02 -7.99650E+03 -7.03460E+03  1.15578E+03 -2.03572E+03
  1.32426E+04 -3.97750E+03 -2.54701E+03 -1.82205E+02  2.23907E+03  2.02924E+03  6.47617E+03  5.75001E+03
 -8.03559E+03 -6.17781E+02 -6.54271E+03  6.34296E+03 -5.82253E+03 -2.39957E+01 -2.85826E+03  8.30150E+03
 -3.47571E+02  8.40608E+03 -5.23565E+03  6.41763E+03 -1.47146E+04 -8.90670E+03 -7.51357E+03 -1.05401E+04
 -9.08152E+03 -2.02044E+04  3.49528E+03 -1.64745E+04  1.25114E+04 -1.16710E+04  1.80168E+04 -2.42136E+03
  1.52597E+04 -1.06406E+01  5.16257E+03  1.12445E+04 -1.00419E+02  1.48564E+04 -7.01513E+03  1.35144E+04
 -3.85851E+03  3.14038E+03 -6.35992E+03 -5.32561E+03  8.71321E+02  5.46432E+03  3.57358E+03 -4.85677E+03
 -8.86744E+03  2.48345E+03 -6.88655E+03 -1.78297E+03  1.41110E+03 -1.62433E+03 -4.21972E+03  2.41018E+02
  9.20353E+02 -4.36997E+03  2.95223E+03  3.55767E+03  6.53674E+03  2.65373E+03  5.65855E+03  1.60819E+04
 -1.19219E+04  1.24667E+04 -1.13414E+04  8.52542E+03 -1.43819E+04 -5.99810E+03 -1.55925E+04 -1.06240E+04
 -4.47310E+03 -8.33014E+03  5.45362E+03 -6.78159E+03  5.48470E+03 -8.91499E+03  5.84811E+03  1.82314E+03
  2.30844E+02  4.37830E+03 -6.16538E+03  2.36524E+03 -5.65123E+03 -3.85762E+03 -2.31461E+03  2.20436E+03
  5.57227E+03 -1.73817E+03  1.11894E+04  1.02727E+03  1.02124E+04 -1.57455E+03  3.15619E+03  7.57374E+03
 -3.98309E+03  4.95773E+03 -5.92112E+03  2.69674E+02 -5.03055E+03 -8.85644E+03  3.39456E+02 -4.17927E+03
  5.78321E+03 -7.38809E+03  1.73978E+04 -4.38078E+03  1.18177E+04  6.07650E+03  4.75962E+03  9.23684E+03
  7.44841E+03  2.93170E+03 -8.04464E+03  6.61858E+03 -4.24025E+03  5.94376E+03 -6.57089E+03  3.09925E+03
 -7.08646E+03 -3.17559E+01  4.86897E+02  1.32661E+04 -5.50914E+03  2.99693E+03  1.97762E+03  6.35508E+02
 -4.04845E+03 -6.98058E+03  1.17967E+03 -7.97228E+03  3.69005E+03 -1.08383E+04  6.77219E+03 -2.07964E+03
  7.96447E+03  9.79309E+02  6.26735E+03  1.03052E+04 -1.63888E+03  8.03530E+03 -6.97893E+02  2.22070E+03
