 $NMID ID='MM_0lb_SNR50_12hz_g60_42.RAW', FMTDAT='(8E13.5)'
 TRAMP=1., VOLUME=1. $END
  3.09561E+05  1.89958E+03  3.35692E+05  2.50846E+05  7.98967E+04  3.34949E+05 -1.31950E+05  2.47280E+05
 -1.87740E+05  7.78116E+04 -1.08401E+05 -3.02932E+04 -2.05693E+03 -5.17875E+04  5.28331E+04 -1.27548E+03
  3.53872E+04  5.53663E+04 -1.53117E+04  7.72780E+04 -6.24079E+04  6.23165E+04 -7.95023E+04  2.89840E+04
 -8.05340E+04 -1.95532E+04 -5.30801E+04 -5.36298E+04 -1.71848E+04 -7.27209E+04  3.29209E+04 -4.41981E+04
  3.94051E+04  2.16933E+03  1.76583E+04  4.50557E+04 -2.80902E+04  5.35210E+04 -6.60996E+04 -1.59820E+03
 -5.59027E+04 -5.22010E+04 -4.52520E+03 -7.89576E+04  3.00094E+04 -5.80165E+04  4.85566E+04 -2.28651E+04
  4.08381E+04  1.00916E+04  3.40277E+04  2.72187E+04  1.61853E+04  2.32737E+04 -5.19548E+03  3.03232E+04
 -1.84294E+04  8.27788E+03 -1.54957E+04 -4.23759E+03  5.94195E+03 -7.78528E+03  2.26814E+04  1.06474E+04
  2.87985E+03  3.91572E+04 -3.29997E+04  3.69863E+04 -6.24111E+04  1.40652E+03 -6.01838E+04 -4.97852E+04
 -1.44098E+04 -6.50422E+04  3.95289E+04 -4.56654E+04  5.82433E+04 -4.08718E+02  3.34923E+04  3.26108E+04
 -3.47360E+03  4.04605E+04 -3.23835E+04  1.69333E+04 -3.24053E+04 -4.89917E+03 -1.83508E+04 -1.24997E+04
 -9.50594E+03 -1.58403E+04  6.59490E+02 -2.25128E+04  9.21322E+03 -2.02680E+04  1.17455E+04 -1.50382E+04
  1.03039E+04 -2.10219E+03 -1.12653E+04  1.32165E+04 -2.51275E+04 -4.89899E+03 -7.13575E+03 -3.04646E+04
  2.64607E+04 -4.07912E+04  4.76683E+04 -2.52376E+04  4.50816E+04  2.35147E+04  1.83371E+04  4.98565E+04
 -1.82059E+04  3.04583E+04 -3.10041E+04  9.63635E+03 -1.95764E+04 -2.65857E+04  1.79320E+04 -3.69906E+04
  4.35333E+04 -1.52899E+04  3.68488E+04  2.47316E+04  1.86625E+04  5.26572E+04 -4.21163E+03  5.55235E+04
 -3.69057E+04  4.02523E+04 -3.87329E+04  8.28771E+03 -4.56851E+04 -2.16170E+04 -2.28336E+04 -4.13308E+04
  4.87982E+03 -4.09956E+04  3.38816E+04 -1.59414E+04  3.10118E+04  9.96622E+03  4.34070E+03  2.44040E+04
 -1.29548E+04  4.62129E+03 -1.84930E+04 -5.01707E+03  2.33937E+03 -5.81073E+03  1.98091E+04  1.16657E+04
  1.72070E+04  2.96914E+04  3.91569E+02  2.42385E+04 -2.23555E+04  1.41300E+04 -3.55871E+04 -6.25963E+03
 -2.99598E+04 -1.57394E+04 -1.25573E+04 -2.66799E+04  3.55805E+02 -2.26597E+04  2.40825E+04 -1.93986E+04
  3.02437E+04 -1.28690E+04  3.16989E+04  6.50619E+03  2.67618E+04  1.76670E+04  5.33013E+03  4.44515E+04
 -1.90003E+04  2.61920E+04 -2.88277E+04  1.29079E+04 -1.70695E+04 -1.52719E+04 -4.36080E+03 -1.76995E+04
  3.48971E+03  3.46274E+03 -7.84256E+03  1.07904E+04 -2.09990E+04  1.12770E+04 -1.67543E+04 -1.07789E+04
 -8.40605E+03 -2.41323E+04  1.02801E+04 -2.70980E+04  2.02721E+04 -2.01566E+04  1.60288E+04 -4.67458E+03
  9.92303E+03  1.30598E+04  3.98341E+03  2.12459E+04 -1.31293E+04  1.33892E+04 -1.94597E+04 -5.56852E+03
 -2.03259E+04 -1.91763E+04 -1.29696E+03 -2.84942E+04  1.67456E+04 -2.59393E+04  1.98072E+04 -1.08919E+04
  2.26728E+04  3.92946E+03  1.81321E+04  7.83143E+03  9.23047E+03  3.01781E+03  7.38322E+03 -4.08751E+03
  1.80812E+04  1.43651E+03  2.05239E+04  2.09377E+04  1.10395E+04  2.69419E+04 -4.14472E+03  4.25755E+04
 -1.84975E+04  3.34718E+04 -3.92480E+04  1.96818E+04 -4.09387E+04 -4.20893E+03 -3.26138E+04 -2.41327E+04
 -1.49986E+04 -2.85059E+04  1.15776E+04 -3.00778E+04  2.71249E+04 -1.17593E+04  2.41936E+04  2.81439E+03
  5.45901E+03  1.45685E+04 -5.78122E+03  1.63649E+04 -1.39078E+04  4.67858E+03 -1.09075E+04 -1.45368E+04
 -8.40524E+02 -1.94562E+04  8.57650E+03 -1.28460E+04  1.32904E+04  3.37263E+02  4.50399E+03  6.61790E+03
 -8.73234E+03 -2.47588E+02 -6.73300E+03  1.21347E+03 -4.60120E+03 -1.39058E+04  5.87106E+03 -1.46076E+04
  1.45313E+04 -9.08642E+03  1.75745E+04 -1.76637E+03  2.14552E+04  1.56828E+04  7.62888E+03  1.91886E+04
 -8.45222E+03  2.54197E+04 -2.11539E+04  1.53045E+04 -2.16506E+04  8.34313E+03 -1.59136E+04 -4.18406E+03
 -6.98299E+03 -2.00883E+03  3.81872E+03 -4.03976E+03 -5.30478E+03  4.99043E+03 -9.87993E+03  3.00824E+03
 -1.04863E+04  4.27297E+02 -1.60432E+04 -2.71072E+03 -4.32590E+03 -1.37950E+04  5.61546E+03 -9.74233E+03
  1.50916E+04 -8.72258E+03  1.17488E+04  4.48941E+02  4.85389E+03  7.63386E+03 -8.62635E+03 -1.21452E+03
 -7.20293E+03 -1.19515E+04 -5.99125E+02 -1.56227E+04  7.53538E+03 -1.40088E+04  1.63621E+04 -1.31197E+04
  2.31425E+04 -2.28302E+03  1.23232E+04  1.60505E+04  2.04652E+03  1.52613E+04 -9.83587E+03  1.11019E+04
 -1.46548E+04  5.47945E+03 -3.57340E+02 -5.08925E+03  2.27687E+03 -5.42487E+03  8.06520E+03 -2.22816E+02
  1.66622E+04  7.24763E+03 -3.58987E+02  1.04487E+04 -7.56783E+03  1.18435E+04 -1.46638E+04  2.00621E+03
 -1.17068E+04 -2.15410E+03 -1.25487E+03 -8.90853E+03  9.17627E+03 -7.45365E+03  6.19106E+03  1.05243E+03
  6.27078E+02  7.70834E+03 -9.57838E+03  1.16608E+04 -6.45124E+03  3.50078E+03 -1.12168E+04 -6.53033E+02
 -4.01501E+02 -1.38736E+04  8.19232E+03 -1.87652E+04  1.40720E+04 -3.82406E+03  1.16951E+04  1.45034E+03
  8.51406E+03  1.12330E+04  1.06289E+03  1.53831E+04 -1.27302E+04  8.84711E+03 -1.58633E+04 -4.42331E+03
 -1.21922E+04 -5.93263E+02 -2.80075E+03 -8.21286E+03 -7.06757E+02 -9.78256E+03  2.17013E+03 -1.45902E+03
  3.30545E+03  4.76887E+03 -1.96919E+02  1.09238E+03  7.46552E+03 -3.78116E+03  1.89355E+03 -7.71401E+03
  5.07990E+03 -4.89246E+03  1.67674E+04 -2.88807E+03  1.33606E+04  5.45326E+03  2.15532E+03  1.92049E+04
 -3.01099E+03  1.84351E+04 -1.71172E+04  1.51752E+04 -2.16195E+04  3.75312E+03 -1.45100E+04 -1.19262E+04
 -9.00034E+03 -1.61133E+04  3.79979E+03 -1.44870E+04  5.30144E+03 -4.86467E+03  2.48633E+03 -1.01178E+04
  1.72274E+03 -8.53111E+02  4.89948E+03 -1.96348E+03  9.15014E+03 -1.04117E+02  9.37328E+03 -2.50909E+03
  1.68937E+03  2.99874E+03  8.36855E+03  5.76981E+03 -4.72411E+03  5.44150E+03 -8.77465E+03  1.04568E+04
 -1.32855E+04  1.93797E+02 -7.66344E+03 -8.44997E+03  5.23925E+02 -1.43256E+04  7.77579E+03 -1.36243E+04
  1.57748E+04 -9.06299E+03  1.55548E+04  2.06964E+03  7.26272E+03  1.22323E+04  1.85451E+03  1.84028E+04
 -4.88404E+03  8.04054E+03 -7.03308E+03  2.40927E+03 -3.41383E+03 -1.62335E+03 -3.91135E+03 -2.02856E+03
 -3.10170E+03 -1.48438E+03 -3.95964E+02  6.51934E+02 -5.14728E+03  4.25161E+03 -1.75441E+04 -5.23235E+02
 -3.74769E+03 -8.38159E+03  3.84389E+03 -6.97953E+03  7.23705E+03 -1.30828E+04  1.21986E+04 -4.39604E+03
  9.18119E+03  5.21859E+03  6.91458E+02  1.26891E+04 -6.19874E+02  1.14013E+04 -9.76235E+03  4.90036E+03
 -7.49230E+03  1.18015E+03 -8.37957E+03 -5.62872E+03  3.31374E+03 -1.30107E+04  9.72027E+02 -9.49969E+03
  1.07944E+04 -3.16826E+03  2.98640E+03 -1.22732E+03  6.39076E+03  9.03390E+02 -3.84757E+02 -5.87777E+02
  2.34600E+03  5.18681E+03  4.06644E+03 -2.07178E+03  2.14832E+03 -1.12192E+03 -5.59364E+03  8.24087E+03
 -3.43098E+03  9.86804E+03 -4.64533E+03  9.65114E+03 -7.44432E+03  6.66380E+03 -1.78525E+04 -4.44218E+03
 -1.05388E+04 -1.10937E+04  1.01960E+03 -1.53554E+04  4.88301E+03 -7.69874E+03  1.16673E+04 -1.66728E+03
  8.52633E+03  8.63835E+03  6.03093E+03  7.67783E+03 -6.10147E+02 -4.09924E+03 -3.24848E+03 -1.70230E+03
 -3.88549E+03 -4.15425E+03  2.40744E+03 -1.98117E+02  5.86861E+03 -3.53926E+03  4.15364E+03 -1.92692E+02
  3.58605E+03  8.95097E+02 -8.35008E+02  3.59856E+03  1.73093E+03  2.75394E+03 -1.74242E+03  3.06757E+02
  1.00432E+03 -6.36463E+02  1.09169E+04  6.47115E+02 -1.67000E+03  4.95441E+03 -7.28832E+03  6.76415E+03
 -6.14342E+03  6.73792E+03 -7.38192E+03 -1.66641E+03 -4.35913E+03 -1.72947E+03 -1.49572E+02 -2.37200E+03
 -1.85327E+03 -8.43356E+02  4.22296E+03 -6.99044E+03  3.68688E+03  4.61353E+03  2.44438E+03  6.48776E+03
 -3.57767E+02  3.84321E+03 -4.84683E+02 -5.28873E+03 -1.66516E+03 -6.47965E+03  2.77001E+03 -7.11389E+03
 -6.05227E+02 -6.09929E+02  8.18138E+03 -2.82828E+03  4.69488E+03 -5.13289E+03  2.72077E+03  4.04259E+03
 -4.21988E+03 -1.87405E+02 -3.76449E+03 -7.13751E+03  1.72424E+03 -6.43326E+03  3.21696E+03 -1.19632E+03
  4.08600E+03  4.74125E+03  7.10174E+03  5.37121E+03 -6.93570E+02  5.82192E+03  2.18199E+03  7.88991E+03
 -5.43107E+03  7.83518E+02 -6.41861E+03 -2.72173E+03  1.77837E+02 -4.12848E+03  3.16466E+03 -4.78695E+03
  4.46061E+03 -6.33911E+03  1.31342E+03  3.24355E+03  1.89491E+03  5.40670E+03  4.14159E+03  4.51759E+02
 -7.97591E+02  3.52259E+03 -2.70753E+03 -1.59857E+02  9.84586E+01 -1.74451E+03 -6.65685E+03 -1.15028E+03
 -3.27182E+03  9.07031E+02 -7.39992E+03 -2.49745E+03 -6.55082E+03  1.33443E+03 -6.44370E+03 -1.50020E+02
 -2.60528E+03 -6.67061E+03  5.24830E+03 -1.01500E+04  6.04727E+03 -3.87042E+03  9.26482E+03  3.14723E+02
  4.56239E+03  1.49156E+03  1.71476E+03  6.77766E+03 -3.63062E+03  5.60342E+03 -7.82055E+03  3.04665E+03
 -6.51494E+03  7.89613E+03 -3.60709E+03  1.83199E+02 -3.70674E+03  1.18520E+03  3.49293E+01  1.78463E+03
 -3.78928E+03 -3.26718E+03 -9.28216E+02 -3.12623E+03 -2.07999E+03  1.54465E+03  6.60037E+03 -2.18630E+03
  1.46412E+03 -3.91439E+03  2.29324E+03  4.37910E+03  1.32314E+03  7.71331E+02 -1.50385E+03  7.86228E+03
 -2.52744E+03  4.04788E+03 -2.25985E+03  6.49256E+03 -2.10733E+03  4.16961E+03 -6.34180E+03 -5.79092E+03
  1.18716E+03 -8.04857E+03  3.76572E+03 -8.43040E+03  1.54461E+03  1.62424E+03  2.78049E+03 -1.67745E+03
  2.59296E+03  5.52757E+03  2.81066E+03  3.30277E+02  2.92914E+03 -3.23496E+03  1.90241E+03 -7.27086E+01
  5.10675E+03  2.58837E+03  4.19101E+03  4.17648E+03 -6.72769E+02 -8.91085E+02  3.89782E+03  4.26759E+03
  3.39193E+02  7.11382E+01 -3.60625E+03  2.20814E+03  3.25490E+02  1.76354E+03 -6.10201E+03 -6.19911E+03
  4.83485E+03 -1.05630E+03  3.69156E+03 -1.78093E+03  1.57033E+03 -1.19758E+02 -1.07909E+03  3.32814E+03
  1.40238E+03  2.74576E+03 -1.49223E+03  2.29582E+03 -7.75664E+03  2.28785E+03 -6.08191E+03  7.72809E+02
 -1.58254E+03  9.11594E+02  7.03998E+02  8.85937E+02  5.84349E+01 -1.87129E+03 -1.87633E+03 -8.28689E+03
 -5.31339E+03 -3.06056E+03 -2.08390E+03 -1.77503E+03  1.29145E+03 -5.78931E+03  6.96251E+03 -4.14863E+03
  1.92568E+03  8.52195E+02  3.67388E+02  8.73126E+03 -3.71096E+03  1.90163E+03 -3.63113E+03  3.88939E+03
