 $NMID ID='MM_0lb_SNR50_13hz_g55_28.RAW', FMTDAT='(8E13.5)'
 TRAMP=1., VOLUME=1. $END
  3.13653E+05  2.88947E+03  3.36444E+05  2.47606E+05  8.60822E+04  3.38732E+05 -1.31234E+05  2.49614E+05
 -1.84691E+05  8.14774E+04 -1.12874E+05 -3.87536E+04 -1.92258E+02 -5.14204E+04  6.02281E+04  3.34006E+02
  3.22710E+04  4.84406E+04 -1.88050E+04  7.29063E+04 -6.09522E+04  6.48745E+04 -8.79540E+04  2.76326E+04
 -8.18497E+04 -5.87614E+03 -5.51777E+04 -5.17610E+04 -1.57586E+04 -6.56411E+04  3.30013E+04 -5.01057E+04
  4.72705E+04  5.91837E+03  1.84336E+04  4.99667E+04 -3.56679E+04  4.44451E+04 -6.27334E+04 -1.92116E+03
 -4.92044E+04 -6.65877E+04 -6.07247E+03 -8.03975E+04  3.27468E+04 -5.31515E+04  4.80818E+04 -2.13204E+04
  4.30572E+04  1.47735E+04  3.13524E+04  1.97471E+04  1.65568E+04  3.11236E+04 -6.27230E+03  2.20337E+04
 -1.93662E+04  1.22440E+04 -2.10079E+04 -9.18479E+03  5.92867E+03 -1.10467E+04  2.41930E+04  1.63100E+04
  5.63909E+03  3.87762E+04 -2.88018E+04  3.70769E+04 -6.38036E+04  6.15446E+03 -5.91599E+04 -4.47192E+04
 -1.05040E+04 -6.73318E+04  4.00988E+04 -3.98399E+04  6.03786E+04 -4.40237E+03  3.59509E+04  3.22635E+04
 -8.26445E+03  3.47897E+04 -2.78667E+04  1.72287E+04 -3.41494E+04 -3.02264E+03 -2.03538E+04 -1.19851E+04
 -3.72468E+03 -1.51551E+04  5.11339E+01 -2.47725E+04  9.92103E+03 -2.41576E+04  1.32829E+04 -1.09306E+04
  1.47486E+04  9.61457E+03 -1.00809E+04  1.36631E+04 -2.10514E+04 -8.77404E+03 -7.11591E+03 -3.11913E+04
  1.93526E+04 -4.53625E+04  4.86902E+04 -2.04867E+04  5.10306E+04  2.24271E+04  1.34485E+04  4.65029E+04
 -1.58993E+04  3.80539E+04 -2.78519E+04  7.31065E+03 -1.19298E+04 -2.66878E+04  1.83151E+04 -3.67001E+04
  4.11266E+04 -7.38528E+03  3.72355E+04  2.55473E+04  1.85471E+04  4.57436E+04 -4.42803E+03  4.42962E+04
 -3.53571E+04  3.12098E+04 -4.78124E+04  6.56151E+03 -4.10816E+04 -2.24051E+04 -2.51695E+04 -3.99015E+04
  6.36603E+03 -4.18020E+04  3.71876E+04 -1.53325E+04  3.04689E+04  1.10138E+04  5.17271E+03  2.11610E+04
 -1.20531E+04  6.18764E+03 -1.44636E+04 -1.98926E+03  2.52694E+03 -1.02962E+04  2.19738E+04  8.98216E+03
  1.58935E+04  2.43006E+04 -3.52723E+03  2.69220E+04 -2.38166E+04  8.84296E+03 -3.13596E+04 -2.00115E+03
 -2.52876E+04 -2.08948E+04 -1.35798E+04 -2.06353E+04  2.85358E+03 -1.55759E+04  2.35992E+04 -1.91900E+04
  2.99408E+04 -1.11776E+04  2.61881E+04  1.23353E+03  3.29753E+04  1.58573E+04  1.68579E+03  3.52140E+04
 -1.91762E+04  3.24701E+04 -2.92899E+04  1.40621E+04 -2.54020E+04 -9.31498E+03 -2.56895E+03 -1.54104E+04
 -9.29500E+02 -2.10615E+03 -1.62940E+03  1.14139E+04 -1.77553E+04  7.82770E+03 -1.55471E+04 -5.99215E+03
 -8.76606E+03 -2.05752E+04  1.02685E+04 -2.65175E+04  1.37151E+04 -2.14073E+04  1.52106E+04  2.53219E+03
  1.17796E+04  1.50760E+04 -6.34463E+03  2.28318E+04 -1.62696E+04  1.65022E+04 -2.04720E+04 -4.18876E+03
 -2.00128E+04 -2.17180E+04 -2.48962E+03 -2.61341E+04  1.64723E+04 -1.92075E+04  1.96562E+04 -6.37551E+03
  1.91256E+04 -4.83605E+02  1.28920E+04  5.75963E+03  5.13138E+03 -2.50445E+03  1.07414E+04 -4.26508E+02
  1.64840E+04  7.59704E+03  2.23469E+04  2.41722E+04  1.51445E+04  3.25089E+04 -9.92078E+03  4.09294E+04
 -1.94566E+04  3.29136E+04 -3.66947E+04  1.83239E+04 -3.38538E+04 -4.07929E+02 -2.93520E+04 -2.10649E+04
 -9.53770E+03 -3.25486E+04  1.01205E+04 -2.86751E+04  1.86804E+04 -1.77663E+04  2.35653E+04  1.14964E+04
  1.06367E+04  1.57868E+04 -1.20926E+04  1.36308E+04 -2.33356E+04  1.28641E+03 -1.40104E+04 -9.38110E+03
 -5.01012E+03 -1.61850E+04  5.24365E+03 -1.54322E+04  9.34141E+03 -1.83686E+03  8.41002E+03  7.98991E+03
 -3.83952E+03  7.81556E+03 -8.45556E+03 -4.06490E+03  1.47969E+03 -1.95263E+04  9.79435E+03 -1.68715E+04
  1.83250E+04 -1.20660E+04  2.00766E+04  5.77042E+03  1.95428E+04  2.02176E+04  1.13640E+04  2.88787E+04
 -3.70210E+03  2.53911E+04 -1.87439E+04  1.64203E+04 -1.70112E+04 -6.23946E+02 -9.48661E+03  2.71662E+03
 -1.17831E+04 -7.36168E+03 -2.50241E+03 -4.79153E+02  8.78004E+02 -1.56125E+03 -6.45028E+03  2.57445E+03
 -1.26101E+04 -2.57871E+03 -1.12868E+04 -1.08639E+04 -7.10357E+03 -1.89671E+04  9.47513E+03 -1.93893E+04
  9.24243E+03 -5.10985E+03  8.24601E+03  1.76619E+03 -2.26232E+02  6.31759E+03 -7.32282E+03  5.08174E+01
 -1.69708E+02 -6.96406E+03  2.74729E+03 -1.48928E+04  7.68355E+03 -1.28299E+04  1.13648E+04 -8.01909E+03
  1.55977E+04  1.31484E+01  1.70200E+04  7.63512E+03  8.79961E+03  1.26206E+04 -5.74501E+03  1.92580E+04
 -1.04823E+04  5.76623E+03 -9.10344E+03  3.10036E+02  1.08398E+04 -4.97359E+03  7.09545E+03  1.72960E+03
  6.16737E+03  5.08598E+03 -1.92258E+02  1.07544E+04 -4.10531E+03  1.46380E+04 -1.30456E+04 -2.99118E+03
 -1.04421E+04 -7.59570E+03  3.03954E+03 -7.54888E+03  5.83999E+03 -1.87373E+02  6.48343E+03 -1.85244E+03
  5.61670E+03  7.18967E+03 -5.43154E+03  9.32813E+03 -1.01912E+04  9.75597E+03 -1.45569E+04 -6.50730E+03
 -7.59453E+03 -1.55397E+04  3.67889E+02 -1.39287E+04  1.39295E+04 -4.70932E+03  9.19809E+03  4.23671E+02
  6.29975E+03  1.08811E+04 -2.58940E+03  1.28747E+04 -1.01784E+04  8.59532E+03 -8.60216E+03  7.14874E+01
 -6.83360E+03 -4.77447E+03  5.93120E+02 -6.38883E+03 -2.32934E+03 -9.17594E+03  5.77315E+03  1.40229E+03
  4.33471E+03  1.97774E+03 -4.08742E+02  2.93963E+03  3.69288E+03 -4.47984E+03  1.12696E+03 -4.69514E+03
  6.81513E+03  1.77607E+03  1.10387E+04 -1.12458E+03  1.37589E+04  8.95627E+03  1.00567E+04  1.14532E+04
  3.79420E+02  1.35229E+04 -1.31371E+04  9.64800E+03 -1.79148E+04  3.87214E+03 -1.75095E+04 -3.16507E+03
 -6.76866E+03 -1.12771E+04 -1.26833E+03 -1.08375E+04  6.70469E+03 -9.92710E+03  6.61693E+03 -5.34697E+03
 -3.25273E+03 -4.51515E+01  6.08153E+03 -3.60750E+03  3.26776E+03 -6.34706E+03  4.58679E+03  1.30697E+03
  6.76710E+03  4.21213E+03  3.44293E+03  6.86757E+03 -4.69470E+03  7.00316E+03 -4.00493E+03  2.81256E+03
 -1.15682E+04 -4.40733E+03 -7.57223E+03 -5.62155E+03 -6.98916E+03 -1.34986E+04  8.26165E+03 -1.16060E+04
  1.22715E+04 -9.41824E+03  1.18621E+04  3.97745E+02  9.54099E+03  1.47838E+04  7.82633E+02  1.41791E+04
 -5.76726E+03  1.09675E+04 -9.95529E+03  3.53423E+03 -7.30627E+03 -4.60149E+03  7.77472E+02  1.18556E+03
 -1.12500E+03  5.50959E+03  1.79237E+03  5.15026E+03 -2.83308E+03  3.12561E+03 -5.40553E+03 -3.58094E+03
 -1.07269E+04 -7.83660E+03  2.61634E+03 -1.05314E+04  4.80621E+03 -1.05166E+04  9.56436E+03 -2.58608E+03
  8.03785E+03  2.06939E+03  2.48338E+03  8.76615E+03 -6.43909E+03  6.29960E+03 -9.98872E+03  5.93189E+03
 -1.45791E+04 -7.85605E+02 -4.98438E+03  9.49594E+01  1.44748E+03 -7.96241E+03  5.61229E+03 -6.10405E+03
  8.30343E+03 -3.81441E+03  2.63171E+03  3.02692E+03 -1.21792E+02  7.57579E+03  4.85103E+03 -3.34496E+03
  2.29366E+03 -5.62861E+03  2.38064E+03  1.48575E+03  2.71064E+03  1.85712E+03  5.18348E+03  7.12132E+03
  7.56315E+02  9.64212E+03 -7.92838E+03  5.26873E+03 -7.65241E+03  1.68188E+03 -9.59836E+03 -5.40719E+03
 -9.01214E+03 -9.48909E+03 -5.77757E+03 -7.42032E+03  9.99080E+03 -7.88272E+02  8.75828E+03 -3.00800E+03
  2.91190E+03  3.38361E+03  2.42175E+03  9.61355E+03 -4.84186E+03  1.10020E+03 -2.87608E+03 -2.64680E+03
  8.41965E+02 -6.71753E+03  1.34726E+03 -1.63827E+02  3.57363E+03 -1.43816E+03  5.81293E+03 -8.28992E+02
  1.00074E+03  2.66215E+03  1.25869E+03 -9.15314E+02  8.75154E+02 -2.42205E+03  9.94363E+02 -4.50480E+01
  8.50527E+02  2.79112E+03  5.83441E+03 -1.32831E+02  4.46599E+03  8.60235E+03 -4.39091E+03  5.84086E+03
 -3.55606E+03  4.57102E+03 -8.00468E+03  8.89013E+02 -7.04012E+03  4.88784E+03 -2.42008E+03  2.09734E+03
 -6.09302E+01 -2.43582E+03  2.59181E+03 -1.21084E+03  4.17744E+02 -3.27385E+03 -2.09661E+03  3.96109E+03
 -7.05998E+03  2.86780E+03 -7.14613E+03  3.87426E+03  1.18514E+03  1.85119E+01  2.08847E+03 -7.42892E+03
 -1.53612E+03 -4.38152E+03  3.89420E+03  1.03348E+03  4.21653E+03  2.53329E+01  2.67840E+03 -1.67306E+03
 -1.16967E+03 -6.29005E+02  4.26117E+02 -1.80190E+03 -1.73101E+03 -3.16000E+03  9.21955E+03  4.44109E+02
  9.15900E+03  7.25865E+03  4.95679E+03  6.13926E+03  6.72864E+03  1.61139E+03  1.39435E+03  6.01464E+03
 -4.01372E+03  2.27240E+03 -2.77314E+03  3.33529E+03  3.27185E+03 -4.92227E+03 -4.31012E+03  1.94948E+03
  3.66587E+03 -4.78187E+03 -1.02036E+02  2.55451E+03 -1.58870E+03  4.81677E+03  1.66104E+03  6.25348E+02
 -2.19055E+03  1.54673E+03 -8.35945E+01  1.50574E+03 -1.63397E+03 -7.29792E+02  1.77773E+01  3.76073E+02
 -1.13831E+03  5.27076E+02  1.77260E+02  3.58730E+03 -3.33854E+03  6.84661E+02 -6.30566E+03 -3.55231E+03
 -1.43402E+03 -1.23196E+04  5.60619E+03 -8.02264E+03  2.02128E+03 -8.63500E+03  8.60844E+03 -3.37599E+03
  7.93127E+03  3.43792E+03  3.94026E+03  8.25343E+03 -3.76244E+03  7.56739E+03 -6.05139E+03  3.13274E+03
  3.72413E+01  3.05506E+03 -3.90570E+03 -1.24362E+02 -1.43662E+03  4.10195E+02  2.19597E+03  4.38715E+03
 -3.03961E+03 -1.76300E+03 -1.24744E+03  1.67484E+03 -1.75405E+03 -4.15768E+03  1.20058E+03  1.62068E+03
  4.35364E+03 -8.35240E+02  2.07095E+03  5.73203E+03  4.95257E+03  2.61960E+03 -3.64687E+03 -2.15094E+03
 -1.58363E+03  4.98911E+03 -4.45614E+03 -1.56092E+03 -7.39813E+03 -8.25472E+02 -1.57674E+03  1.68864E+03
 -2.33808E+02 -2.22428E+03 -1.16155E+03 -2.22595E+03  5.26026E+03 -1.09084E+03  6.73307E+03 -2.92958E+03
  5.23960E+02  5.23276E+03  1.26714E+03  2.79941E+03 -1.65978E+02 -1.41441E+03  4.97390E+02  2.13714E+03
  3.82432E+03  9.51490E+02  5.80929E+03  5.20911E+03  1.18419E+03  2.20692E+03  2.00429E+03  1.80787E+03
  5.52047E+02  1.81612E+03 -2.42516E+03 -3.51405E+03 -1.59316E+03 -5.77782E+02 -2.61203E+03 -3.64051E+03
  3.92460E+03 -6.78793E+03  1.88831E+03 -2.35967E+03  2.05584E+03 -1.36684E+03 -2.33756E+03  4.52826E+03
  3.58131E+02  4.27972E+03  4.87902E+03 -9.46194E+02 -2.69558E+03  4.67649E+02 -2.95001E+03  6.91237E+02
  2.35051E+03  6.00454E+03  1.46588E+03 -3.40698E+03 -2.86978E+03 -2.77750E+03 -2.09302E+03  5.52616E+03
 -1.17309E+03 -3.01132E+03 -6.07607E+03 -5.69367E+03  1.98294E+03 -2.81491E+03  3.02213E+03 -1.82859E+03
  6.27184E+03  3.99817E+03  1.22014E+03  4.20552E+03  6.85033E+02  2.91775E+03 -1.77230E+03  6.43511E+03
