 $NMID ID='MM_0lb_SNR50_8hz_g50_1.RAW', FMTDAT='(8E13.5)'
 TRAMP=1., VOLUME=1. $END
  3.13843E+05  2.84017E+03  3.41521E+05  2.54057E+05  8.31063E+04  3.39151E+05 -1.35816E+05  2.51943E+05
 -1.85709E+05  8.87419E+04 -1.19133E+05 -3.04911E+04  3.56695E+03 -4.51467E+04  5.39133E+04 -3.13124E+03
  3.71157E+04  5.10138E+04 -1.82111E+04  7.47785E+04 -6.24479E+04  6.70303E+04 -8.78053E+04  2.63678E+04
 -8.45019E+04 -9.44621E+03 -5.64860E+04 -5.66213E+04 -1.52213E+04 -7.06146E+04  3.32846E+04 -4.31549E+04
  4.12462E+04  5.27854E+03  2.27518E+04  4.84168E+04 -3.58636E+04  4.68224E+04 -6.82814E+04  2.62800E+02
 -5.06651E+04 -5.50265E+04 -7.78279E+03 -7.33093E+04  2.93452E+04 -6.07976E+04  5.13057E+04 -1.58510E+04
  4.51570E+04  1.74331E+04  3.53395E+04  2.30486E+04  1.75917E+04  3.29281E+04 -7.31602E+03  2.65973E+04
 -2.40086E+04  1.43585E+04 -1.75494E+04 -6.86729E+03  7.03620E+03 -5.31500E+03  2.85088E+04  1.75248E+04
  8.39045E+03  3.92806E+04 -3.08325E+04  4.04477E+04 -6.44970E+04  1.66092E+03 -5.92761E+04 -3.61311E+04
 -1.68227E+04 -6.59912E+04  3.91976E+04 -4.30020E+04  5.89808E+04 -2.30054E+03  3.64556E+04  4.41306E+04
 -5.31793E+03  4.27663E+04 -3.87364E+04  1.80437E+04 -3.58162E+04 -9.55897E+02 -2.35585E+04 -8.97818E+03
 -1.25304E+04 -1.24484E+04 -3.86464E+03 -1.68227E+04  7.24001E+03 -1.94872E+04  1.19649E+04 -1.56541E+04
  1.20512E+04  7.32792E+03 -4.73334E+03  1.58429E+04 -2.55172E+04 -9.58620E+03 -1.00179E+04 -4.06079E+04
  2.98038E+04 -4.04379E+04  5.70691E+04 -2.30315E+04  5.18362E+04  1.85846E+04  1.46905E+04  5.13075E+04
 -2.03662E+04  3.28512E+04 -2.65090E+04  6.82896E+03 -1.57767E+04 -3.03285E+04  2.01981E+04 -3.70116E+04
  5.01314E+04 -1.13932E+04  4.44995E+04  2.22496E+04  2.06043E+04  5.47483E+04 -5.46550E+03  5.68251E+04
 -3.81805E+04  3.44742E+04 -5.60514E+04  1.25426E+04 -4.80890E+04 -1.94817E+04 -3.58237E+04 -3.75702E+04
  8.33960E+03 -3.88024E+04  3.78547E+04 -1.88169E+04  3.96001E+04  1.34080E+04  7.88129E+03  2.10489E+04
 -1.63819E+04  8.81697E+03 -1.13858E+04 -8.75735E+03  5.51159E+03 -5.39845E+03  1.53738E+04  3.25991E+03
  1.93552E+04  2.11551E+04 -4.60241E+03  2.86902E+04 -2.66616E+04  1.13124E+04 -3.05972E+04 -4.34251E+03
 -2.52934E+04 -2.04696E+04 -1.56590E+04 -2.74199E+04  1.20758E+04 -2.34671E+04  2.20035E+04 -2.10281E+04
  3.44859E+04 -1.80624E+04  3.99476E+04 -1.13743E+02  3.37921E+04  2.38271E+04  5.93233E+03  4.34477E+04
 -2.20113E+04  3.58474E+04 -3.65611E+04  1.83038E+04 -1.94042E+04 -1.18239E+03 -9.39908E+03 -1.56296E+04
  1.74638E+03 -6.14167E+03 -9.51748E+03  6.39128E+03 -3.28574E+04  4.30718E+03 -2.15135E+04 -4.59755E+03
 -9.86316E+03 -2.04667E+04  9.16955E+03 -2.99508E+04  1.96188E+04 -1.28985E+04  2.36602E+04  2.80656E+03
  6.55611E+03  1.63661E+04 -6.81657E+03  1.94491E+04 -1.75922E+04  8.41948E+03 -2.43976E+04 -7.01483E+03
 -1.93668E+04 -2.39047E+04  2.72854E+03 -2.91143E+04  1.86664E+04 -2.94026E+04  2.44013E+04 -1.73392E+04
  1.56784E+04 -1.90573E+03  1.75690E+04  8.78190E+03  1.05691E+04  3.38297E+03  9.50867E+03 -1.71438E+03
  2.01860E+04  6.04575E+03  2.50566E+04  2.38706E+04  2.36644E+04  3.86063E+04 -6.85625E+03  4.10665E+04
 -2.46492E+04  3.79928E+04 -4.42242E+04  1.42294E+04 -5.40887E+04 -5.01423E+03 -4.02945E+04 -2.57704E+04
 -1.48015E+04 -4.21314E+04  1.13595E+04 -3.14658E+04  2.92579E+04 -1.79962E+04  2.73013E+04  1.41409E+04
  1.00632E+04  1.86795E+04 -2.03696E+04  1.13172E+04 -1.38337E+04 -3.66539E+03 -1.55693E+04 -4.05527E+03
 -3.52010E+03 -2.72570E+04  1.02787E+04 -1.34203E+04  1.76070E+04 -3.93842E+03  2.05852E+03  9.48768E+03
 -1.06895E+04  3.10645E+03 -1.39712E+04 -1.03302E+04 -3.72081E+03 -2.13363E+04  8.17465E+03 -1.76294E+04
  3.12303E+04 -1.33126E+04  2.31735E+04 -1.56987E+03  3.04484E+04  1.73308E+04  1.42203E+04  3.64467E+04
  2.91171E+02  3.04360E+04 -2.34774E+04  1.85673E+04 -2.81249E+04  8.05078E+03 -9.73202E+03 -1.06002E+04
 -2.93868E+03 -6.74940E+03  4.42002E+02 -3.67937E+03 -3.94014E+03  5.21799E+03 -8.51892E+03  9.94003E+03
 -1.66101E+04 -5.27812E+03 -1.84240E+04 -9.22295E+03 -3.56501E+03 -2.69121E+04  8.55750E+03 -1.44334E+04
  1.63823E+04 -5.17216E+03  9.50059E+03  6.49802E+03  5.69706E+03  6.13002E+03 -8.59486E+03  3.58779E+03
 -1.09122E+04 -1.05073E+04  9.39671E+02 -1.47468E+04  1.23072E+04 -1.67153E+04  2.34085E+04 -4.98720E+03
  2.84479E+04  1.36672E+03  2.01692E+04  1.49385E+04  3.33034E+03  2.32876E+04 -1.02501E+04  1.54522E+04
 -1.13577E+04  3.35537E+03 -1.39242E+04 -7.03542E+02  1.62763E+03 -6.97903E+03  2.00559E+04  4.32937E+03
  1.07494E+04  4.84831E+03 -3.53263E+03  1.35790E+04 -6.86681E+03  7.89797E+03 -2.11169E+04  9.76414E+03
 -1.06657E+04 -8.70935E+03 -5.96952E+03 -1.44184E+04  2.80755E+03 -6.66124E+03  8.76727E+03  1.07711E+03
  4.39788E+03  8.75587E+03 -2.30294E+03  1.89210E+04 -1.66343E+04  6.34678E+03 -1.44035E+04 -1.00911E+04
 -9.89674E+03 -1.18116E+04  1.84170E+03 -1.43623E+04  1.59416E+04 -1.92124E+04  1.86352E+04 -1.15353E+03
  1.38788E+04  2.22056E+04 -1.00176E+04  1.48662E+04 -1.37816E+04  1.21000E+04 -2.09026E+04 -5.29451E+03
 -9.63072E+03 -1.52599E+04  4.83288E+03 -1.30510E+04  1.10210E+04 -1.06371E+04  1.44185E+04 -9.01568E+03
  7.55265E+02  6.41496E+03 -3.09342E+03  7.83203E+03 -7.19577E+03 -6.09085E+03  1.09725E+04 -1.21357E+04
  1.42471E+04 -6.30389E+03  1.68581E+04  1.94576E+03  1.68838E+04  1.42415E+04  1.11854E+04  2.48419E+04
 -5.79764E+03  2.08320E+04 -2.75053E+04  2.48393E+04 -2.54680E+04  5.38767E+03 -2.15842E+04 -8.55087E+03
 -7.97359E+03 -2.49863E+04  1.30635E+02 -1.85281E+04  6.77550E+03 -4.63342E+03  4.13158E+03 -2.99978E+03
  9.79067E+03 -3.02399E+03  5.51392E+03 -1.38609E+04  7.64734E+03  4.35822E+03  1.32679E+04 -8.37953E+02
  1.41136E+04 -3.28980E+02  1.52294E+04  6.28414E+03 -1.19091E+03  1.27460E+04 -1.25009E+04  8.45719E+03
 -1.22516E+04  2.20695E+03 -1.95376E+03 -8.19794E+03 -2.01891E+01 -1.90308E+04  7.37241E+03 -1.90709E+04
  1.53815E+04 -4.30697E+03  2.42564E+04  1.02081E+04  1.36017E+04  1.73596E+04 -1.58342E+03  1.90068E+04
  7.81233E+01  1.90029E+04 -7.90654E+03  5.56993E+03 -7.63714E+03 -5.10262E+03  3.56081E+03 -3.40764E+02
 -3.50641E+03  5.13981E+03 -2.86730E+03  2.14172E+03 -8.12475E+03  5.26439E+03 -1.08841E+04 -1.75416E+03
 -6.73995E+03 -1.62583E+04 -4.91402E+03 -1.72512E+04  8.22061E+03 -1.49005E+04  1.78112E+04 -5.27545E+03
  1.72417E+04  6.60164E+03  9.12878E+03  1.76574E+04  5.44507E+03  1.26246E+04 -1.18136E+04  4.07267E+03
 -1.36330E+04 -3.71727E+02 -1.38908E+04 -1.36414E+04 -6.31353E+03 -1.94545E+04  4.55646E+03 -1.87544E+04
  1.08154E+04 -5.33316E+03  5.77292E+03  8.07718E+03  3.88104E+03  6.63986E+03  3.26027E+03 -5.48469E+02
  6.63226E+03  2.31607E+03  1.01755E+04  1.56838E+03  8.59654E+03  1.56890E+03  2.31560E+03  1.01849E+04
 -1.67594E+03  1.34997E+04 -1.36615E+04  1.30187E+04 -1.53583E+04 -1.31861E+03 -1.27905E+04 -3.51179E+03
 -5.45079E+03 -1.34765E+04  5.72794E+03 -1.79856E+04  6.69584E+03 -1.44518E+04  1.12765E+04 -8.28342E+03
  1.25253E+04  6.83280E+03  6.87173E+03  6.46957E+03 -2.46792E+03  1.98586E+03 -4.52721E+03  5.65587E+03
  1.03776E+03 -9.13768E+03  4.51855E+03 -1.00049E+04  2.95556E+03 -7.25544E+03  7.51394E+03  3.02331E+03
 -1.46925E+03  1.98086E+02  2.14957E+03  6.53767E+03 -4.17081E+03  2.91230E+03 -1.77648E+03 -2.96833E+03
  3.10644E+03 -4.72949E+03  4.81394E+03  4.07754E+03  2.43585E+03  1.00598E+04 -4.14498E+02  1.22297E+04
 -4.82452E+03  3.29608E+03 -6.37880E+03 -2.95968E+03 -1.47551E+04  4.29888E+02 -8.13659E+03 -3.65309E+03
  4.00850E+03 -6.89325E+03  9.28538E+03 -4.59541E+03  1.49894E+03  4.97371E+03 -2.57247E+03  7.13138E+03
 -1.30712E+04 -4.04503E+03 -1.25267E+04 -1.13551E+04  5.22420E+02 -1.01981E+04 -8.59519E+02 -1.09591E+04
  7.49870E+03 -4.04115E+03  9.44668E+03 -3.42379E+03  8.83671E+03  6.10235E+03 -6.12319E+03  2.46179E+03
 -3.06459E+03  9.96370E+02 -1.08460E+04 -6.45190E+03 -8.11895E+03 -4.32471E+03  7.61081E+03 -3.03003E+03
  1.04997E+04 -5.52170E+02  9.68984E+03  6.72356E+03  3.46341E+03  1.61059E+04 -4.06494E+03  1.26248E+02
 -5.77648E+03  7.47790E+03 -8.61134E+03 -4.13561E+03 -1.01151E+04 -3.08936E+03  2.08749E+03 -1.05544E+04
  6.82080E+03 -4.65737E+03  1.25203E+04 -8.77601E+02  7.45350E+03  1.09550E+04  2.74748E+03  4.34513E+01
 -6.59206E+03  1.21582E+03 -9.47885E+02  2.84253E+02  5.05963E+03  5.86111E+03 -1.74843E+03  5.11638E+03
 -1.19254E+03  7.38087E+03 -2.50434E+03  3.08431E+03 -9.59418E+03  3.14143E+02 -1.31767E+04 -6.91161E+03
 -7.55018E+03 -1.69916E+04  6.66247E+03 -1.92182E+04  1.03121E+04 -8.55035E+03  1.96261E+04 -9.37795E+03
  1.38142E+04  3.28367E+03  1.27067E+04  5.89868E+03  2.85972E+03  2.02262E+04 -8.34128E+03  3.79778E+03
 -9.15690E+03  9.31742E+03 -4.34667E+03 -9.51760E+02 -5.63549E+03 -1.29243E+03 -2.78027E+03  3.60980E+03
 -5.05816E+03  3.40014E+03 -5.93940E+03 -2.50355E+02  2.38694E+03 -4.31424E+02  1.63385E+03 -6.96871E+03
  3.78845E+03 -7.23249E+03  7.56545E+02 -1.63448E+03  6.24766E+03  9.82158E+03  5.45155E+03  1.28596E+04
 -9.20228E+03  1.86222E+04 -1.31131E+04  8.05490E+03 -9.22280E+03  2.30268E+03 -1.49918E+04 -9.82152E+03
 -2.97519E+03 -1.46349E+04 -4.58770E+03 -2.54128E+03  1.06511E+04 -1.17601E+03  1.22439E+04  2.99554E+03
  6.21494E+03  1.20869E+03 -3.70722E+03  4.94962E+03 -2.42814E+02  2.52239E+03 -1.82770E+03 -6.05122E+03
  2.37070E+03 -8.67245E+03  9.93343E+03  6.01270E+03  8.74919E+02  1.56881E+03 -1.32180E+03  9.54054E+03
 -7.45292E+03  8.93480E+03 -1.26943E+04  4.81314E+03 -3.20286E+03 -9.71819E+03  4.49160E+03 -1.41640E+04
  7.22449E+03  2.86771E+01  7.78974E+03 -6.61242E+03  4.37476E+03  8.65400E+03  5.70081E+03  2.51643E+03
  3.71169E+02  9.99467E+03 -3.73904E+03  8.26734E+03 -2.36011E+03  5.80070E+03 -2.48228E+03 -2.04209E+03
  6.46827E+02  2.18872E+03  2.71629E+03 -4.34268E+03 -8.89037E+03 -2.33413E+03 -4.80953E+03 -1.69947E+03
 -9.54045E+03 -5.01845E+03 -1.58555E+03 -1.32207E+04  8.73227E+03 -1.13434E+04  6.02761E+03 -5.94423E+03
  1.03047E+04  6.12285E+03  1.02360E+04  3.90883E+03  1.25251E+03  1.29817E+04 -9.05676E+03  8.11407E+03
