 $NMID ID='MM_0lb_SNR50_12hz_g60_41.RAW', FMTDAT='(8E13.5)'
 TRAMP=1., VOLUME=1. $END
  3.10387E+05 -2.63694E+03  3.39992E+05  2.49904E+05  8.38199E+04  3.36081E+05 -1.31727E+05  2.58218E+05
 -1.88307E+05  8.51727E+04 -1.09813E+05 -3.26243E+04  4.33542E+03 -4.88419E+04  5.30523E+04 -1.88888E+03
  3.41439E+04  5.43953E+04 -1.13123E+04  7.42521E+04 -6.54537E+04  5.97403E+04 -9.18630E+04  3.29648E+04
 -7.58342E+04 -7.32934E+03 -5.16476E+04 -5.92159E+04 -1.26791E+04 -7.61790E+04  2.46040E+04 -4.99109E+04
  4.40249E+04  1.22717E+03  1.69868E+04  4.70982E+04 -2.82710E+04  5.11079E+04 -6.30364E+04  1.53370E+03
 -5.45503E+04 -5.84313E+04 -9.86706E+03 -8.30611E+04  3.51710E+04 -5.42821E+04  4.52963E+04 -1.92506E+04
  4.77338E+04  1.39104E+04  3.68989E+04  2.91030E+04  1.65048E+04  3.33695E+04 -7.67238E+03  2.59064E+04
 -2.09527E+04  1.19595E+04 -2.01973E+04 -3.83304E+03  8.73960E+03 -1.70221E+03  2.24558E+04  1.53945E+04
  8.59023E+03  4.10959E+04 -3.36850E+04  3.40594E+04 -6.40570E+04  2.89283E+03 -6.34150E+04 -4.18020E+04
 -1.08099E+04 -6.22766E+04  4.61520E+04 -4.18910E+04  5.76320E+04  1.67891E+03  3.90830E+04  3.21523E+04
 -6.99843E+02  3.67735E+04 -2.91223E+04  1.98378E+04 -3.60140E+04 -7.79148E+02 -2.10896E+04 -1.07908E+04
 -1.27173E+04 -1.93313E+04 -4.24570E+03 -2.15452E+04  6.75593E+03 -2.18248E+04  2.18173E+04 -1.79130E+04
  9.86340E+03  8.43919E+03 -1.44845E+04  1.52522E+04 -2.22694E+04 -8.34706E+03 -1.16800E+04 -3.53229E+04
  2.16236E+04 -4.67109E+04  5.33665E+04 -2.03720E+04  4.15188E+04  1.79134E+04  1.25946E+04  4.82320E+04
 -1.78461E+04  3.01323E+04 -2.08662E+04  6.63923E+03 -1.44479E+04 -2.70370E+04  1.95683E+04 -3.54766E+04
  4.64937E+04 -1.19966E+04  3.93736E+04  2.21842E+04  2.39102E+04  5.22781E+04 -9.64722E+03  5.28463E+04
 -3.69886E+04  4.07447E+04 -4.62887E+04  1.13809E+04 -4.96310E+04 -1.90942E+04 -2.99659E+04 -4.17973E+04
  5.78610E+03 -3.94549E+04  3.28955E+04 -2.36556E+04  3.03465E+04  8.56801E+03 -1.61630E+02  2.24338E+04
 -1.32116E+04  1.08188E+04 -6.98710E+03 -2.93233E+03  8.73229E+03 -1.26907E+04  2.41352E+04  7.96459E+03
  1.35144E+04  1.63559E+04 -3.87192E+03  2.63834E+04 -2.85785E+04  1.70650E+04 -3.03966E+04 -3.38465E+03
 -2.29212E+04 -1.97715E+04 -7.08478E+03 -2.21054E+04  7.20196E+03 -2.36597E+04  1.76879E+04 -1.79077E+04
  2.50637E+04 -1.42403E+04  3.45484E+04  1.04616E+04  2.62072E+04  2.44745E+04  1.57587E+03  4.26640E+04
 -1.60989E+04  3.10503E+04 -2.85060E+04  7.80756E+03 -2.18032E+04 -1.14961E+04 -4.24973E+03 -1.20357E+04
 -3.24914E+02  2.50532E+03 -4.30389E+03  6.62950E+02 -1.91404E+04  3.82955E+03 -1.91549E+04 -1.39848E+04
 -1.13107E+04 -1.89253E+04  3.07663E+03 -2.67998E+04  1.86925E+04 -2.04226E+04  1.79279E+04 -5.62042E+02
  1.17782E+04  1.16840E+04 -3.72581E+03  1.44263E+04 -8.51583E+03  1.24330E+04 -1.86399E+04 -4.71756E+03
 -6.68325E+03 -1.58087E+04  6.67050E+02 -2.39846E+04  1.54366E+04 -2.12319E+04  2.43916E+04 -1.32006E+04
  2.09023E+04 -1.21090E+03  1.62367E+04  4.77488E+03  1.16432E+04 -1.49106E+03  1.30754E+04  8.92629E+02
  1.50518E+04  7.11239E+02  1.69459E+04  2.01028E+04  1.39045E+04  4.06057E+04 -5.87660E+03  3.87517E+04
 -2.57688E+04  3.02074E+04 -4.31281E+04  1.56126E+04 -4.19314E+04 -4.40214E+03 -3.32726E+04 -2.76655E+04
 -1.85328E+04 -3.04296E+04  1.11753E+04 -2.76521E+04  2.64352E+04 -1.46226E+04  1.99761E+04 -5.92817E+02
  1.05173E+04  1.64263E+04 -7.27891E+03  1.79830E+04 -1.31633E+04  8.76250E+03 -1.14389E+04 -1.52376E+04
 -4.68004E+03 -1.66624E+04  6.19911E+03 -1.63652E+04  1.33944E+04 -3.59118E+02  2.52175E+03  6.48206E+03
 -8.72931E+03  2.88273E+03 -9.60510E+03 -6.61783E+03  9.09213E+02 -1.82783E+04  8.86233E+03 -1.48527E+04
  2.30830E+04 -1.35382E+04  1.82742E+04  6.64396E+03  1.73161E+04  1.42670E+04  8.95528E+03  2.82228E+04
 -9.57335E+03  2.81944E+04 -1.41498E+04  1.59867E+04 -1.70057E+04  9.28914E+03 -1.91863E+04 -4.88202E+03
 -4.03297E+03 -7.06952E+03 -4.63698E+03 -3.00360E+03 -6.04224E+03  5.91429E+03 -6.92155E+03  4.87538E+03
 -1.13615E+04 -8.78062E+02 -1.40833E+04 -9.28490E+03 -5.10939E+03 -2.13201E+04  2.25764E+03 -1.77613E+04
  1.14366E+04 -2.62312E+03  4.81954E+03  2.17202E+03  3.35395E+03  4.75607E+03 -1.51419E+04  2.66528E+02
 -9.25021E+03 -1.35103E+04 -2.63779E+03 -1.56213E+04  3.59005E+03 -7.30480E+03  2.04609E+04 -4.43991E+03
  2.18373E+04  4.06054E+03  2.03731E+04  1.15003E+04  3.06367E+03  1.80697E+04 -8.79047E+03  9.37458E+03
 -5.62424E+03 -1.36064E+03 -9.75386E+03 -6.61689E+03  2.66487E+03 -6.54569E+03  1.23091E+04 -1.24276E+03
  6.32046E+03  9.57136E+03  1.23409E+03  1.20567E+04 -4.41287E+03  1.02226E+04 -2.33664E+04  4.22111E+03
 -7.15568E+03 -8.34595E+02 -2.77353E+03 -1.06354E+04  1.00197E+04 -5.43321E+03  1.01971E+04  6.33296E+03
  2.46795E+03  1.21920E+04 -6.81129E+03  9.03502E+03 -6.93564E+03  2.87054E+02 -1.17537E+04 -5.57791E+03
 -6.82318E+03 -1.33166E+04  3.49172E+03 -1.64528E+04  1.03295E+04 -1.42051E+04  1.96791E+04  4.21580E+02
  1.00408E+04  9.43761E+03  6.90605E+01  1.60073E+04 -7.74747E+03  3.44212E+03 -9.75040E+03 -6.21319E+02
 -1.08724E+04 -1.21407E+04  1.71047E+01 -1.17903E+04  5.52052E+03 -6.32322E+03  8.78811E+03  1.04481E+03
  7.11560E+03 -4.25629E+03 -1.81893E+03  2.68427E+03  1.08939E+03 -1.03999E+03  7.62401E+03 -7.34976E+03
  9.67019E+03 -3.40103E+03  1.10658E+04  7.08364E+03  1.23705E+04  7.07463E+03  8.78191E+03  1.66501E+04
  8.68813E+01  2.24859E+04 -1.77566E+04  1.56893E+04 -2.43131E+04  3.85839E+03 -1.42300E+04 -9.01848E+03
 -9.08884E+03 -1.32633E+04 -8.35836E+03 -9.00662E+03  2.68408E+03 -7.58360E+02  4.81830E+03 -7.44332E+03
  7.50938E+03 -6.01285E+03  3.88165E+03 -6.08839E+02  7.69497E+03  4.14645E+02  1.22671E+04 -1.56711E+03
  8.22285E+03 -9.82417E+01 -4.86797E+03  4.32124E+03 -3.17957E+03  7.95514E+03 -5.96145E+03  1.04191E+04
 -1.39076E+04 -3.88758E+02 -7.40895E+03 -1.09392E+04  6.23261E+02 -1.72212E+04  9.24961E+03 -1.60234E+04
  1.41569E+04 -5.94251E+03  1.94804E+04  1.17232E+03  1.09289E+04  1.04720E+04 -8.62008E+02  1.16168E+04
 -1.01263E+04  1.09244E+04 -4.32155E+03  2.95768E+03 -5.01257E+03 -2.49967E+03 -1.58375E+03 -6.17763E+03
 -2.55624E+03 -4.23120E+03 -5.51964E+03  1.72274E+02 -2.35767E+03  1.29767E+03 -8.66665E+03 -2.33749E+03
 -6.43011E+02 -5.77345E+03 -3.25495E+01 -1.37559E+04  4.92305E+03 -1.32955E+04  9.83502E+03 -2.20409E+03
  2.73701E+03  1.60927E+03  1.73256E+03  5.80650E+03 -3.79383E+02  1.51721E+04 -1.09897E+04  5.57302E+03
 -1.39973E+04  3.61541E+03 -1.02779E+04 -8.09130E+03 -7.95297E+02 -1.42143E+04  4.29723E+03 -9.44714E+03
  6.29611E+03 -1.65578E+03  2.54366E+03 -5.32569E+02  5.24969E+03  4.62115E+03  4.00640E+02  6.71675E+02
  6.74076E+02  2.81107E+03  7.23648E+03  1.24556E+03  4.52934E+03  5.14475E+03  8.99197E+02  2.02036E+03
 -2.31390E+03  1.35640E+04 -6.79147E+03  9.63388E+03 -9.97651E+03  4.36082E+03 -1.41443E+04 -3.97140E+03
 -6.03471E+03 -1.51927E+04 -3.05262E+03 -1.29161E+04  6.56189E+03 -9.43504E+03  8.95684E+03 -3.83779E+03
  6.60844E+03  4.21448E+03  2.15298E+03  5.91832E+03  1.17606E+03  3.79001E+03  1.45154E+03 -2.32540E+03
 -6.35186E+02 -9.77272E+03  5.52935E+03 -4.85073E+03  4.98475E+03 -6.82539E+02  6.35373E+03 -1.09005E+03
 -6.70080E+02 -2.03012E+02 -1.60938E+03  2.07846E+03 -1.28485E+03  7.29644E+03 -6.14777E+02  1.15119E+02
  3.29751E+03 -3.81201E+03 -2.90192E+03  5.84421E+03  3.79210E+03  6.63007E+03  1.46737E+03  7.99844E+03
 -2.00190E+03  3.99502E+03 -4.17497E+03  2.71279E+03 -4.32487E+02  3.98660E+03 -8.89041E+02 -5.23699E+03
 -4.37059E+02 -3.69318E+03  3.58596E+03  4.80898E+01  4.38171E+03 -5.72809E+02  1.38577E+03  4.07244E+03
 -2.94077E+03  2.47192E+03 -8.25304E+03 -1.72729E+03 -2.54949E+02 -6.44806E+03 -2.29228E+03 -8.56300E+03
 -1.54101E+03 -6.34714E+03 -1.44329E+03 -2.15957E+02  3.21704E+03  3.08740E+03 -6.38249E+02  4.09944E+03
 -3.30402E+03  5.16805E+02 -4.24983E+03 -4.20282E+03 -6.57076E+02 -5.05312E+03  7.33562E+03 -5.19835E+03
  7.52392E+03  3.94696E+03  6.87065E+03  5.58233E+03  6.08546E+03  1.88832E+02 -3.09100E+03  7.00541E+03
 -5.44087E+03  1.66808E+00 -7.88921E+03  2.26727E+03 -1.04965E+03 -6.65340E+03  6.32064E+03 -2.90893E+03
  3.46817E+03 -3.53530E+03  1.85158E+03  4.37147E+03 -2.38439E+03  2.99269E+00 -4.47117E+02  6.47280E+03
  1.89437E+02  6.66283E+03  4.33711E+03  2.13688E+03 -5.88676E+03 -3.20345E+02 -3.28720E+03  4.75732E+03
 -1.73595E+03  3.90620E+03 -4.72360E+03  2.57408E+03 -4.18298E+03  2.25213E+03 -4.26228E+03  1.63409E+03
 -7.20942E+02 -9.03860E+03  2.37638E+03 -1.15193E+04  9.01431E+03 -1.50228E+04  8.22458E+03 -4.84645E+03
  4.30767E+03  2.16084E+02  3.94960E+03  4.54948E+03  7.07393E+03  3.85305E+03  8.09500E+02  5.24694E+03
  7.18140E+02  1.36732E+03 -6.79592E+03 -1.17859E+03  1.99508E+02  2.61601E+03 -2.45982E+02  4.09820E+03
  3.36038E+03 -1.60105E+03  3.74531E+02  2.94027E+03 -2.82800E+03 -5.57156E+03  3.36873E+03  2.08986E+03
  4.11211E+03  5.13741E+02  6.16858E+03 -4.88593E+02  6.54433E+03 -7.78451E+02  2.00227E+02  1.03769E+04
 -7.98567E+03  2.95833E+03 -6.95143E+03 -7.36777E+02 -1.15251E+04  3.59630E+03 -1.45562E+04 -7.09682E+03
  1.72637E+02 -9.60741E+03  4.94458E+02  1.64187E+03  3.47842E+03 -2.96926E+03  8.55499E+03 -4.16005E+03
  1.24754E+03 -6.38129E+02 -4.63392E+03  4.32928E+03  6.80387E+02 -3.32452E+03  1.77442E+03 -4.43687E+03
  7.00315E+03 -1.47274E+03  1.79137E+03  3.75893E+02 -1.72250E+03 -1.52189E+03  3.74953E+02  6.59873E+03
 -7.50767E+03 -4.45467E+03 -6.89643E+03 -8.86684E+02 -6.05205E+02 -1.36509E+03 -1.93526E+03 -1.69512E+03
  6.12220E+03 -8.43161E+03  3.89666E+03  1.38630E+03  7.28143E+03  5.53784E+03  6.57823E+03  4.83094E+03
  2.46726E+03  4.80518E+03 -5.41038E+03  3.72424E+03  1.65030E+02  3.30437E+03 -7.40798E+03  1.89629E+03
 -1.75969E+03  2.39390E+03 -2.36064E+03  5.92351E+03 -2.21619E+03 -1.03784E+02 -6.40497E+03 -7.31010E+02
 -7.33993E+02  2.79279E+03 -1.79629E+03 -3.29882E+03  7.88956E+03 -1.35349E+04  3.17938E+03  4.74096E+03
  3.20841E+03  6.93314E+02 -7.27823E+01  4.51670E+03  4.06611E+03  7.68468E+03  2.15689E+03  5.42129E+03
