 $NMID ID='MM_0lb_SNR50_9hz_g55_70.RAW', FMTDAT='(8E13.5)'
 TRAMP=1., VOLUME=1. $END
  3.08172E+05 -1.63011E+03  3.34405E+05  2.51268E+05  8.01735E+04  3.41702E+05 -1.28403E+05  2.57242E+05
 -1.89843E+05  8.22115E+04 -1.18086E+05 -3.17519E+04  3.44853E+03 -4.95259E+04  5.89028E+04 -8.44723E+02
  4.13343E+04  5.49793E+04 -1.51434E+04  8.02192E+04 -6.25839E+04  6.76543E+04 -9.10189E+04  3.18559E+04
 -8.42869E+04 -1.16612E+04 -5.69160E+04 -5.36463E+04 -1.67697E+04 -7.69868E+04  2.55483E+04 -4.19799E+04
  4.28181E+04  6.25596E+03  1.99215E+04  5.05918E+04 -3.65222E+04  4.67402E+04 -6.42069E+04 -1.80834E+03
 -5.77136E+04 -6.05796E+04 -7.95147E+03 -7.98468E+04  2.99436E+04 -5.13704E+04  4.51822E+04 -1.74489E+04
  4.57791E+04  1.42457E+04  3.82580E+04  3.20459E+04  1.76275E+04  2.75463E+04 -3.86527E+03  3.12905E+04
 -2.42452E+04  1.18954E+04 -2.17165E+04 -5.34393E+03  1.34741E+04 -6.03486E+03  2.37100E+04  1.47112E+04
  9.48226E+03  4.23614E+04 -3.74978E+04  3.76366E+04 -6.27057E+04  5.04131E+03 -5.87347E+04 -4.40035E+04
 -1.70082E+04 -6.32083E+04  4.12934E+04 -4.72921E+04  6.55077E+04 -6.28334E+03  3.61631E+04  3.35124E+04
 -9.24751E+03  4.73903E+04 -3.14296E+04  2.13180E+04 -3.74221E+04 -6.39041E+03 -1.84181E+04 -1.07958E+04
 -1.50002E+04 -8.72877E+03 -3.67857E+03 -1.82582E+04  1.08526E+04 -1.81634E+04  1.30712E+04 -1.65986E+04
  1.08182E+04  2.32589E+03 -1.14364E+04  1.13000E+04 -2.76031E+04 -3.54095E+03 -1.32251E+04 -4.07171E+04
  2.67685E+04 -5.82593E+04  4.99960E+04 -2.25279E+04  4.99551E+04  1.48364E+04  1.53481E+04  4.51602E+04
 -1.40860E+04  3.67575E+04 -2.61631E+04  1.40705E+03 -9.49962E+03 -3.15149E+04  2.33068E+04 -3.57642E+04
  4.82108E+04 -1.30734E+04  3.84273E+04  3.12694E+04  2.50817E+04  5.78924E+04 -4.96664E+03  5.40506E+04
 -3.79996E+04  3.94422E+04 -4.74648E+04  9.55920E+03 -5.15490E+04 -2.03257E+04 -3.02359E+04 -4.05316E+04
  6.30521E+03 -4.05886E+04  2.94629E+04 -1.49336E+04  3.44462E+04  1.80295E+04  3.76519E+03  2.29120E+04
 -1.14178E+04  8.47179E+03 -9.13779E+03 -9.82117E+03  2.28195E+03 -1.68819E+04  1.91027E+04  6.26813E+03
  1.29020E+04  1.62971E+04 -6.28475E+03  2.68998E+04 -2.57116E+04  1.06208E+04 -2.76757E+04 -9.87140E+03
 -2.57243E+04 -1.66774E+04 -1.09696E+04 -2.77329E+04  6.60808E+03 -2.81304E+04  2.23135E+04 -1.93531E+04
  3.84978E+04 -1.60110E+04  3.33549E+04  4.98852E+03  3.16011E+04  2.31162E+04  5.69289E+03  4.04840E+04
 -1.81142E+04  3.48486E+04 -2.59086E+04  5.93461E+03 -2.37577E+04 -7.73550E+03 -9.98694E+03 -1.51566E+04
 -1.01642E+03 -4.20788E+03 -2.34222E+03  7.86469E+03 -2.13283E+04  5.78130E+03 -2.46580E+04 -8.64284E+03
 -1.19066E+04 -2.58014E+04 -2.98393E+03 -3.91660E+04  2.57028E+04 -2.22163E+04  1.57265E+04 -7.25381E+02
  1.20648E+04  1.69219E+04  1.66096E+03  2.21522E+04 -1.98256E+04  1.29600E+04 -1.97064E+04 -7.48330E+03
 -2.06849E+04 -1.85924E+04 -6.20905E+03 -2.91680E+04  1.43011E+04 -2.57394E+04  3.05590E+04 -9.54178E+03
  2.62478E+04 -5.58319E+03  1.31454E+04  7.09577E+03  7.92058E+03  2.18072E+03  1.25094E+04 -3.24821E+03
  2.63034E+04  8.74686E+03  2.40732E+04  2.34945E+04  1.45861E+04  4.35471E+04 -4.68003E+03  4.28717E+04
 -2.43749E+04  3.88298E+04 -4.68533E+04  1.94145E+04 -5.15585E+04 -6.85501E+03 -3.39115E+04 -2.44466E+04
 -8.64333E+03 -4.10262E+04  1.13233E+04 -4.10778E+04  2.75793E+04 -1.07239E+04  2.26253E+04  9.71687E+03
  8.42992E+03  1.92027E+04 -1.36515E+04  1.71423E+04 -1.88035E+04  2.78243E+03 -1.51529E+04 -1.31674E+04
 -5.90892E+03 -2.54650E+04  4.93602E+03 -1.83886E+04  1.09644E+04 -3.55913E+03  3.91126E+03  5.50092E+03
 -5.38695E+03  1.38436E+03 -5.93062E+03 -4.31582E+03 -2.35294E+03 -2.35176E+04  9.66983E+03 -2.31363E+04
  2.02414E+04 -9.83101E+03  3.57364E+04  6.74758E+03  2.29824E+04  1.74502E+04  3.99836E+03  2.89297E+04
 -5.62096E+03  3.01995E+04 -1.86093E+04  2.31617E+04 -2.10203E+04  1.35287E+03 -1.43486E+04 -7.05665E+03
 -1.07643E+04 -7.05172E+03  3.14033E+03 -3.81507E+03 -8.50492E+03  6.44788E+03 -1.49916E+04  6.31873E+03
 -1.60810E+04  3.19422E+03 -1.66653E+04 -1.84035E+04 -9.52632E+03 -1.98669E+04  8.26245E+03 -1.46652E+04
  1.61759E+04 -1.31083E+04  7.21624E+03  6.22373E+03  1.93974E+03  7.19914E+03 -8.00870E+03  4.95165E+03
 -1.22832E+04 -1.23950E+04  2.94823E+03 -1.01353E+04  1.04141E+04 -1.61898E+04  2.17022E+04 -7.27552E+03
  2.31383E+04 -3.65460E+02  2.39990E+04  9.05575E+03  9.17321E+03  2.07874E+04 -1.21397E+04  2.16321E+04
 -1.86085E+04 -2.17653E+02 -5.24402E+03 -9.31726E+03 -1.10451E+03 -6.52624E+02  1.11778E+04 -8.08652E+03
  9.64450E+03  1.21323E+04  3.86553E+03  9.57562E+03 -1.09072E+04  5.80995E+03 -2.08286E+04  3.60957E+03
 -7.18893E+03  1.12966E+02  2.57388E+03 -1.09841E+04  9.31072E+03 -7.79405E+03  1.04828E+04 -2.17351E+01
 -3.29218E+03  1.62420E+04 -4.01331E+03  1.82615E+04 -2.07721E+04  8.10531E+03 -1.42709E+04 -8.98065E+03
 -8.12523E+03 -1.64219E+04  1.22376E+03 -2.21653E+04  1.98251E+04 -1.15575E+04  1.94420E+04  1.29934E+04
  8.92074E+03  1.32229E+04 -7.45777E+03  1.76970E+04 -1.05295E+04  1.02201E+04 -8.23609E+03  1.30362E+03
 -6.09067E+03 -5.37979E+03 -9.07553E+03 -1.02912E+04 -2.63251E+03 -9.55477E+03  1.33351E+04 -4.81143E+03
  5.72497E+03 -4.80667E+03 -1.52274E+03  2.02934E+03 -1.60403E+03 -1.89054E+03  3.35022E+03 -3.91800E+03
  1.36202E+04 -1.07192E+03  1.57953E+04  4.48143E+03  1.95789E+04  1.34466E+04  1.15478E+04  2.00324E+04
 -7.42940E+03  2.68682E+04 -1.47722E+04  2.11660E+04 -3.30558E+04  3.02162E+03 -2.55301E+04 -2.01263E+03
 -1.15550E+04 -1.65094E+04 -4.38227E+03 -1.14485E+04  9.67904E+03 -7.27149E+03 -1.19346E+03 -8.22704E+03
  7.33620E+03  1.57742E+03  3.04023E+03 -6.13776E+03  5.15030E+03 -9.59676E+03  7.20783E+03 -7.47856E+02
  1.11784E+04  4.69441E+02  5.93438E+03  8.08145E+03  4.21209E+03  4.81463E+03 -1.20150E+04  5.14020E+03
 -1.66423E+04 -1.44028E+03 -9.66355E+03 -1.21425E+04 -6.77178E+02 -1.74324E+04  1.11436E+04 -1.65218E+04
  1.66057E+04 -7.18535E+03  2.32352E+04  9.83072E+03  1.64648E+04  1.74749E+04  2.07477E+03  1.61899E+04
 -6.09939E+03  1.29015E+04 -8.79638E+03  8.42279E+03 -5.84590E+03  3.12907E+03 -4.59923E+03 -6.81229E+03
 -6.95754E+03 -8.01643E+03 -3.45134E+03  1.10599E+03 -1.32365E+04  3.46723E+03 -6.08203E+03 -1.46079E+03
 -4.58445E+03 -1.61440E+04 -5.10763E+03 -1.82443E+04  1.57756E+04 -1.14649E+04  1.49987E+04 -7.25246E+03
  1.25150E+04  7.49678E+03  6.94628E+03  1.17591E+04 -1.97963E+03  1.48182E+04 -4.39871E+03  7.70066E+03
 -2.00735E+04 -1.46608E+02 -9.61415E+03 -7.48503E+03 -8.15568E+03 -1.67757E+04  3.14031E+03 -8.19229E+03
  1.35492E+04 -2.72295E+03  1.16193E+04 -5.19494E+03 -3.67882E+03  4.44743E+03  5.09019E+03 -4.21920E+03
 -1.67061E+03 -1.45817E+03  9.39857E+03  1.26363E+03 -3.01836E+03  8.06417E+03  7.68256E+03 -1.89486E+03
 -3.02674E+03  1.23716E+04 -1.41432E+04  1.80097E+04 -1.16409E+04  3.81926E+03 -1.34139E+04 -2.03804E+03
 -1.33696E+04 -1.47146E+04  3.81018E+03 -1.70228E+04  1.16756E+04 -1.55085E+04  1.98242E+04 -3.19289E+03
  7.49478E+03  2.09512E+03  1.28322E+03  1.50924E+04 -1.12564E+04  4.96613E+03 -6.01113E+03 -1.29299E+03
 -2.58629E+03 -9.15767E+03 -4.61961E+02 -1.03439E+04  1.19288E+04 -5.46119E+03  4.62234E+03  9.60401E+01
  1.73320E+03  1.93714E+03  4.70711E+02  7.01985E+02 -3.08921E+03  4.65176E+03  4.43287E+03 -2.50326E+03
 -2.86436E+03 -4.24458E+02  9.27332E+03  4.69259E+03  2.08406E+03  5.51685E+03  3.42240E+03  1.13917E+04
 -1.27618E+04  7.02002E+03 -6.26604E+03  8.24404E+03 -4.33768E+03 -6.63652E+03 -7.78058E+02 -5.20919E+03
 -1.74459E+03 -2.87456E+03  9.03902E+03 -2.20779E+03  4.66470E+03  7.67547E+03  2.51481E+03  8.76669E+03
 -7.18737E+03  5.26299E+03 -1.85354E+03 -5.47052E+03 -8.30526E+03 -5.02319E+03  4.90474E+03 -1.24570E+04
  9.32912E+03 -8.70231E+03  6.23264E+03  2.08644E+03  9.67008E+03  3.64860E+03 -3.05971E+03  5.97621E+03
 -2.30444E+03  5.90427E+03 -6.02680E+03 -1.39728E+03 -1.72818E+03 -5.26652E+03  4.82929E+03 -6.99062E+03
  3.45608E+03  2.12694E+03  2.64888E+03 -1.31443E+03 -4.53618E+03  6.93207E+03 -5.84429E+03  7.27394E+03
 -9.63579E+03  8.49359E+02 -1.09755E+04  5.36275E+03 -5.66082E+03 -7.31061E+03 -1.13932E+03 -9.71355E+03
  1.19555E+04 -4.26982E+03  3.95444E+03 -3.36284E+02 -2.76388E+03  2.56537E+02  3.23972E+02  1.03712E+04
  1.08723E+03  6.13695E+03 -7.52493E+03  1.74998E+02 -1.71855E+03 -1.08534E+03 -3.86476E+03 -1.86610E+03
 -5.85754E+03  4.62992E+03 -7.94819E+03  5.09450E+03 -1.01237E+04 -4.76288E+03 -1.37807E+04 -2.05869E+03
 -7.71725E+03 -1.67477E+04  4.23071E+03 -1.53554E+04  1.09678E+04 -1.17421E+04  1.26656E+04 -8.08006E+03
  6.86793E+03 -3.02315E+03  6.15455E+03  1.05867E+04 -2.44102E+03  8.33225E+03 -2.73124E+03  1.54075E+04
 -6.84964E+03 -1.49555E+03 -7.20589E+03 -5.08140E+02  2.93223E+03 -8.53013E+03 -2.09662E+03  5.11736E+03
 -2.47966E+03  4.88769E+03  3.03112E+03 -2.87208E+03  2.71044E+03 -5.24439E+03  5.58448E+03 -9.04310E+03
  9.53386E+03 -3.17990E+03  1.28732E+04  1.99757E+03  1.30760E+04 -2.26950E+03  2.06927E+03  6.58751E+03
 -9.10145E+03  1.04963E+04 -6.44189E+03  9.12626E+03 -1.64093E+04  1.69444E+03 -6.82013E+03 -4.95684E+03
 -5.04134E+02 -1.22437E+04  2.96101E+03 -1.17456E+04  7.14372E+03 -1.21438E+04  8.66271E+03  2.59259E+03
  1.92593E+03 -2.87257E+03 -3.53887E+03  1.30717E+04 -9.64239E+02 -5.00825E+03  5.29252E+03 -5.30408E+03
 -5.09798E+03 -5.17785E+03  6.79168E+03  5.50952E+03  5.78720E+03 -9.20675E+01  6.73991E+03  1.00068E+04
 -4.20316E+03  3.33525E+03 -4.15630E+03  1.54975E+03 -6.34841E+03 -6.87699E+03 -3.02811E+03 -9.36125E+03
  5.68400E+03 -7.20031E+03  6.42461E+03 -3.71500E+03  1.24054E+04 -5.25548E+03  1.20750E+03  8.59384E+03
  6.44752E+03  1.24092E+04 -5.31068E+03  4.54030E+03 -1.03958E+04 -4.93036E+02  6.62959E+02 -4.17088E+03
 -9.99617E+03 -3.11766E+03  2.58672E+03  1.52753E+03 -5.57891E+03  7.53390E+02 -1.01003E+04 -2.82425E+03
 -1.01081E+04 -3.80958E+03 -3.72589E+03 -4.15174E+03  8.64366E+03 -7.05566E+02  3.16430E+03  5.82200E+03
  7.34927E+03 -4.01798E+03  4.25991E+03  3.75294E+03 -1.75364E+03  1.26612E+04 -9.98551E+03  2.75594E+03
