 $NMID ID='MM_0lb_SNR50_11hz_g55_90.RAW', FMTDAT='(8E13.5)'
 TRAMP=1., VOLUME=1. $END
  3.09573E+05  4.89928E+03  3.31573E+05  2.50500E+05  8.01368E+04  3.43236E+05 -1.32269E+05  2.52761E+05
 -1.89089E+05  8.12047E+04 -1.11781E+05 -3.27282E+04  1.52152E+03 -4.89511E+04  5.41787E+04 -6.92945E+03
  3.03610E+04  4.61150E+04 -1.98296E+04  7.23834E+04 -5.77696E+04  6.53882E+04 -8.14903E+04  2.92095E+04
 -7.95180E+04 -1.30657E+04 -5.17488E+04 -5.37705E+04 -1.48588E+04 -7.28315E+04  2.67954E+04 -5.05319E+04
  4.51265E+04  4.98762E+03  1.61311E+04  5.34596E+04 -3.67849E+04  4.42066E+04 -7.00426E+04 -2.91293E+03
 -5.77034E+04 -5.78839E+04 -5.57993E+03 -8.06950E+04  3.75048E+04 -5.90380E+04  4.82544E+04 -1.96685E+04
  4.37828E+04  1.12177E+04  3.18181E+04  2.31587E+04  1.88586E+04  2.48719E+04 -1.62404E+04  3.14590E+04
 -2.28248E+04  1.02211E+04 -1.44655E+04 -6.95834E+03  1.11864E+04 -1.16431E+04  2.01249E+04  9.84763E+03
  6.90549E+03  3.33492E+04 -3.06029E+04  3.41783E+04 -6.70581E+04  3.69679E+03 -5.84340E+04 -4.14600E+04
 -1.06850E+04 -6.45943E+04  4.33848E+04 -4.74359E+04  5.81666E+04 -4.93575E+02  3.88250E+04  3.05827E+04
 -1.38768E+04  3.71836E+04 -3.74274E+04  1.88185E+04 -3.32106E+04 -5.14199E+03 -1.62837E+04 -1.38264E+04
 -1.04702E+04 -1.63640E+04 -4.67232E+03 -1.89165E+04  1.04569E+04 -2.51382E+04  2.32349E+04 -1.20936E+04
  1.61282E+04  5.44233E+03 -9.83618E+03  1.41973E+04 -2.10211E+04 -5.14259E+03 -8.69062E+03 -3.45230E+04
  2.29889E+04 -4.73595E+04  5.32622E+04 -2.06161E+04  4.70616E+04  2.55220E+04  1.67915E+04  4.64851E+04
 -1.50515E+04  3.58508E+04 -2.82331E+04  4.84283E+03 -1.15089E+04 -2.84759E+04  1.98064E+04 -3.24618E+04
  4.38039E+04 -1.74021E+04  3.89687E+04  2.65301E+04  2.23590E+04  4.83235E+04 -1.00697E+04  5.61017E+04
 -3.47369E+04  3.30346E+04 -5.13359E+04  1.45879E+04 -5.06442E+04 -1.45669E+04 -1.92177E+04 -3.89128E+04
  3.61974E+03 -4.28982E+04  3.76744E+04 -9.94730E+03  2.67932E+04  1.20041E+04  1.71141E+03  1.73957E+04
 -1.19463E+04  1.04454E+04 -1.43037E+04 -1.06251E+04  9.88185E+03 -9.33018E+03  2.14474E+04  2.57640E+03
  1.62359E+04  1.90470E+04 -3.51271E+03  2.75313E+04 -1.53793E+04  9.89196E+03 -3.15515E+04 -6.71978E+03
 -2.72493E+04 -1.61557E+04 -1.13085E+04 -2.15506E+04  5.77309E+02 -2.24446E+04  2.00278E+04 -2.87056E+04
  2.55100E+04 -1.26388E+04  3.87390E+04  2.53462E+03  2.76416E+04  2.63152E+04  5.44400E+03  4.11533E+04
 -2.17526E+04  3.81948E+04 -3.00532E+04  1.05863E+04 -2.13874E+04 -4.02373E+03 -3.30409E+03 -1.62723E+04
  3.95665E+03 -6.37439E+02 -7.50160E+03  1.08202E+04 -1.63598E+04  1.14237E+04 -2.21675E+04 -1.01013E+04
 -7.37624E+03 -2.19522E+04  5.73824E+03 -2.10502E+04  1.59702E+04 -1.68364E+04  2.30887E+04  2.00092E+03
  1.60373E+04  1.78714E+04 -4.05549E+03  2.37502E+04 -1.07678E+04  1.20225E+04 -1.92628E+04 -5.16339E+03
 -2.25181E+04 -1.90576E+04 -2.46453E+03 -2.12659E+04  1.27836E+04 -2.19212E+04  2.08733E+04 -1.06063E+04
  2.10799E+04 -5.93775E+03  1.53913E+04  5.82753E+03  6.05564E+03  1.48785E+03  9.54901E+03 -8.18569E+02
  2.20311E+04  3.22278E+03  2.15548E+04  2.04213E+04  1.36154E+04  3.46122E+04 -2.54683E+03  4.15715E+04
 -2.96801E+04  3.53297E+04 -3.72231E+04  2.08360E+04 -3.94397E+04  9.39297E+02 -3.15660E+04 -1.97613E+04
 -1.12335E+04 -3.09970E+04  1.45783E+04 -2.90733E+04  1.87903E+04 -1.71246E+04  2.75221E+04  2.24543E+03
  3.28082E+03  1.75208E+04 -1.33950E+04  1.13674E+04 -2.33762E+04  5.08261E+03 -1.36319E+04 -1.49982E+04
  2.72446E+02 -1.14371E+04  1.16858E+04 -1.52240E+04  4.46191E+03 -2.65761E+03 -2.13530E+03  9.09884E+03
 -9.72815E+03  4.01509E+03 -9.29335E+03 -9.80872E+03  4.29557E+03 -1.46545E+04  7.41172E+03 -1.26120E+04
  2.02344E+04 -9.25425E+03  2.00678E+04  1.36503E+03  2.52247E+04  1.70197E+04  7.76871E+03  2.70601E+04
  2.50022E+03  2.95862E+04 -1.46417E+04  1.39835E+04 -1.51780E+04  6.12862E+02 -1.79099E+04 -8.10082E+03
 -5.07862E+03 -7.38553E+03 -4.74071E+03  1.45479E+03 -3.04330E+03  5.99493E+03 -7.11477E+03  6.89197E+03
 -1.45037E+04  2.31945E+03 -1.62995E+04 -1.47759E+04 -6.90143E+03 -1.91828E+04  4.03756E+03 -2.02272E+04
  1.05131E+04 -4.79572E+03  7.33513E+03  5.68195E+03  2.70521E+03  6.51536E+03 -4.98267E+03 -1.24617E+03
 -2.64803E+03 -9.96180E+03  5.37726E+03 -1.56911E+04  7.96191E+03 -1.76176E+04  2.50436E+04 -8.82380E+03
  2.14081E+04 -2.82456E+03  1.80568E+04  1.25699E+04  2.62272E+03  1.54572E+04 -8.03563E+03  1.82465E+04
 -5.89313E+03  5.64616E+03 -7.69583E+03 -2.68527E+03  4.41987E+03 -4.00929E+03  5.86501E+03 -2.56696E+03
  5.50968E+03  5.76437E+03  2.89074E+02  7.40397E+03 -2.25879E+03  1.37233E+04 -1.73441E+04  1.86516E+03
 -4.53271E+03 -1.13670E+04  5.88666E+03 -1.29202E+04  1.15593E+04 -1.81573E+03  2.92135E+03  2.29190E+03
  3.11605E+03  1.17836E+04 -1.12314E+04  1.15767E+04 -7.10766E+03  6.33899E+03 -9.36100E+03 -3.03553E+03
 -1.09585E+04 -1.37851E+04  5.07909E+03 -1.46631E+04  1.24679E+04 -6.99571E+03  1.64161E+04  7.41146E+03
  1.44943E+04  8.54736E+03 -5.79146E+03  1.40758E+04 -5.25931E+03  5.19381E+03 -1.52007E+04  2.11591E+03
 -8.60588E+03 -1.41108E+04 -6.81946E+03 -7.48923E+03  8.31998E+03 -7.52308E+03  5.58266E+03 -8.59341E+03
  2.94991E+03  2.23136E+03 -1.06312E+03  5.51949E+03 -3.17370E+03 -2.83460E+01  3.87999E+03 -4.18018E+03
  7.93710E+03 -3.63200E+03  6.96719E+03  1.54861E+03  1.03197E+04  1.35370E+04  2.69163E+03  1.57819E+04
 -8.26621E+03  1.94234E+04 -1.64051E+04  1.50239E+04 -1.85368E+04  2.71491E+03 -2.05022E+04 -8.88665E+03
 -8.25332E+03 -2.05981E+04  2.15490E+02 -1.56023E+04  1.00277E+04 -1.28652E+04  9.03537E+03 -5.92216E+02
  4.54038E+03 -3.27966E+03  2.81399E+03  1.60727E+03  4.97348E+03  1.65196E+03  8.34326E+03  3.48880E+03
  9.03404E+03  6.07956E+03  8.76190E+03  8.38307E+03  1.25852E+03  1.26523E+04 -6.57554E+03  9.24381E+03
 -1.04971E+04 -4.87098E+03 -4.85284E+03 -8.70279E+03  5.67334E+01 -1.32254E+04  2.64525E+03 -1.21865E+04
  1.99303E+04 -1.16387E+04  2.52883E+04 -4.03051E+00  6.61846E+03  8.90924E+03  9.77308E+03  1.83127E+04
 -1.06430E+04  7.65844E+03 -6.41950E+03  6.43360E+03 -3.23106E+03  2.60262E+03 -4.40782E+03  5.35520E+02
 -1.52960E+03  3.37930E+03 -7.00798E+03 -1.33094E+03 -3.90545E+03  1.91425E+03 -9.71839E+03  1.30312E+03
 -9.01707E+03 -1.03482E+04 -1.71465E+03 -1.23418E+04  8.17727E+03 -9.70977E+03  1.23053E+04 -2.89730E+03
  1.35275E+04  4.23561E+03  4.69091E+03  9.87712E+03 -7.61886E+02  1.36251E+04 -1.14079E+04  6.73539E+03
 -1.40876E+04  2.07628E+03 -9.41737E+03 -6.95005E+03  3.70473E+03 -5.63056E+03  8.09412E+03 -4.39698E+03
  7.86218E+03 -4.11488E+03  9.22322E+03 -1.24453E+03 -8.94422E+02  4.05658E+02  3.76644E+03  1.59469E+02
 -2.14100E+03  3.70999E+03 -2.80076E+02  2.03203E+03  7.58399E+03  3.89416E+03 -2.40819E+03  2.32173E+03
  7.76521E+02  7.26942E+03 -5.23898E+03  1.34795E+04 -7.19151E+03  7.52166E+03 -9.92406E+03 -5.38775E+03
 -1.02436E+04 -1.30599E+04  3.70015E+03 -1.60983E+04  7.84213E+03 -7.88416E+03  7.47721E+03 -1.18646E+04
  9.66465E+03  3.47717E+03 -1.61894E+03  9.42598E+03 -4.43235E+03  1.94633E+03 -7.70759E+03 -1.72896E+03
  4.28711E+02 -7.42108E+03  5.50945E+03  5.15367E+02  7.35308E+03 -6.86268E+02  2.58710E+03 -3.67377E+02
 -8.45015E+02  2.63858E+03 -2.96150E+02  6.97523E+02  1.09279E+03  7.32998E+03 -4.21372E+03  5.70487E+02
  5.28061E+03 -3.29337E+03  4.71164E+03  1.10103E+03  1.15819E+04  6.01717E+03  1.81026E+03  6.93618E+03
 -1.85829E+03  7.49226E+03 -4.01464E+03  1.87141E+03 -8.82407E+03 -5.01395E+03 -2.80347E+03 -7.26376E+03
  4.20480E+03 -9.70269E+03  6.32615E+03 -6.80845E+03  3.29917E+03  3.53999E+03 -1.76938E+03  8.31631E+02
 -3.12134E+03  6.84471E+03 -8.60811E+03 -3.68485E+03 -4.19584E+03 -5.38491E+03  1.78797E+03 -7.22015E+03
  8.10884E+03 -6.97753E+03  2.78432E+03 -1.15916E+03  4.36232E+03  2.11291E+03  2.37052E+03 -1.32566E+03
 -3.08231E+03  2.47437E+03 -1.22921E+03  1.21387E+03  3.76244E+03 -5.96588E+03  3.15350E+03 -9.40618E+03
  7.26933E+03  1.05628E+03  1.10513E+04  4.72511E+03  3.47245E+03  7.69368E+03 -4.38814E+03  8.39205E+03
 -8.83953E+03  1.07496E+04 -4.18941E+03  5.15837E+03  3.14667E+03 -1.06929E+04 -1.55266E+03 -5.17289E+03
  8.32809E+03 -1.61700E+03  3.99841E+03  4.13121E+03 -3.88666E+03  3.83706E+03  1.77612E+03 -1.56434E+03
  1.93082E+03  4.36467E+03 -4.93051E+03 -7.76793E+02 -1.38667E+03  3.97511E+02  5.67557E+03  2.56153E+03
  2.35750E+03  2.10117E+03 -5.53822E+03  3.11299E+03 -8.98533E+03 -1.15586E+03 -8.29169E+03 -7.96787E+03
 -3.41356E+03 -1.29393E+04 -8.37755E+02 -8.84973E+03  6.47853E+03 -7.25530E+03  1.77039E+04 -6.95724E+03
  1.00589E+04 -1.59451E+03  5.54484E+03  7.23397E+03 -5.12039E+03  5.02188E+03 -3.33012E+03  8.24753E+03
 -8.08462E+03  1.23824E+03  4.15560E+02  3.05933E+02  3.11318E+03  1.80770E+03 -2.83786E+03 -1.04849E+03
 -2.59079E+03  3.34435E+03 -3.98418E+03  4.60627E+03 -4.76906E+03 -5.24977E+02  7.28268E+02 -5.52497E+03
  5.49799E+03 -6.54130E+03  2.43169E+03  5.00645E+03  3.37694E+03  8.41495E+03 -1.80565E+02  9.86542E+03
 -3.91563E+03  6.22683E+03 -8.40021E+03  5.42276E+03 -1.03962E+04  3.03713E+03 -4.62166E+03 -2.08387E+03
 -4.59766E+03 -5.80906E+03  4.48252E+03 -5.90645E+03  5.31364E+03 -6.17325E+03  5.47377E+03 -4.55500E+02
  3.21497E+03  1.69044E+03  2.90428E+03  2.96526E+03 -2.96831E+03 -8.46137E+02  9.37398E+03  6.23563E+02
  4.61635E+02  2.08390E+03  7.12583E+03  1.81077E+03  4.73373E+03  7.94897E+03 -5.87435E+02  3.79815E+03
  5.02582E+02  2.46095E+03  3.20334E+01 -2.11916E+03  2.58246E+03 -4.98234E+03  3.10275E+03 -8.50130E+03
  8.54250E+03 -7.08272E+03  7.69387E+03 -2.98951E+03  9.61970E+03 -8.25979E+01  2.82468E+03  3.92516E+03
 -3.07538E+03  4.74982E+03 -1.06938E+03  2.53720E+03 -8.30032E+03  7.59532E+03  7.22202E+02 -4.67170E+03
 -4.16235E+03 -1.24419E+03  1.30304E+03 -1.38866E+03 -6.61896E+02 -2.14779E+03  1.03793E+03  3.16144E+02
 -2.57149E+03 -1.06669E+03 -4.48089E+02 -5.12183E+03  2.39310E+03 -8.05973E+03  6.19516E+03 -8.63811E+02
  4.17138E+02  1.65841E+03  2.88404E+03  2.36086E+03  3.23859E+03  5.35754E+03 -4.27706E+02  5.38779E+03
