 $NMID ID='MM_0lb_SNR50_18hz_g55_65.RAW', FMTDAT='(8E13.5)'
 TRAMP=1., VOLUME=1. $END
  3.11801E+05 -1.99477E+03  3.40295E+05  2.50694E+05  8.31089E+04  3.41186E+05 -1.37342E+05  2.54036E+05
 -1.92525E+05  8.29719E+04 -1.10026E+05 -3.43307E+04  1.94219E+03 -5.03766E+04  5.27098E+04  4.57989E+01
  3.26533E+04  4.98132E+04 -1.71427E+04  7.74684E+04 -6.14351E+04  6.61650E+04 -8.50051E+04  3.31759E+04
 -7.79791E+04 -9.34149E+03 -5.70131E+04 -5.46231E+04 -1.48467E+04 -7.03400E+04  2.95793E+04 -4.51582E+04
  3.78372E+04  3.59707E+03  1.54255E+04  4.89751E+04 -3.81080E+04  4.78408E+04 -6.04612E+04  7.45024E+02
 -5.06184E+04 -5.55328E+04 -9.40561E+03 -7.75585E+04  3.80116E+04 -4.95817E+04  4.47862E+04 -1.86732E+04
  4.46502E+04  8.67698E+03  3.01779E+04  2.71446E+04  1.28205E+04  2.64522E+04 -5.56604E+03  2.91449E+04
 -1.90578E+04  1.01138E+04 -2.20967E+04 -5.73911E+03  4.56675E+03 -7.77096E+03  2.09313E+04  1.23667E+04
  1.26152E+04  3.45435E+04 -3.28289E+04  3.66276E+04 -5.92204E+04 -1.82054E+03 -5.27446E+04 -4.72799E+04
 -1.67396E+04 -5.77917E+04  3.67901E+04 -4.34402E+04  5.72282E+04 -8.19175E+03  3.22225E+04  2.90444E+04
 -6.24974E+03  3.32178E+04 -2.72938E+04  1.69906E+04 -3.13292E+04 -6.22530E+03 -1.15369E+04 -1.12314E+04
 -3.05816E+03 -1.57827E+04  4.79426E+02 -1.61040E+04  1.07605E+04 -2.33916E+04  1.44799E+04 -1.24505E+04
  1.48196E+04  9.59550E+02 -6.52732E+03  1.50682E+04 -1.84141E+04 -7.85955E+03 -1.12113E+04 -3.28191E+04
  1.97513E+04 -4.62069E+04  4.91935E+04 -1.92065E+04  4.14965E+04  2.11208E+04  1.14181E+04  3.96978E+04
 -1.89449E+04  3.18859E+04 -2.58735E+04  6.10397E+03 -9.01263E+03 -2.49591E+04  2.16926E+04 -3.08880E+04
  4.23455E+04 -7.49043E+03  2.97137E+04  2.11757E+04  1.40927E+04  4.76500E+04 -9.21785E+03  4.83891E+04
 -2.88886E+04  2.84330E+04 -3.41397E+04  8.66167E+03 -4.03090E+04 -1.48623E+04 -2.15828E+04 -3.61956E+04
  1.09180E+04 -3.96616E+04  2.63779E+04 -1.37730E+04  2.33724E+04  1.16848E+04  2.44954E+03  1.89224E+04
 -1.29212E+04  5.22313E+03 -8.37898E+03 -8.21222E+03  4.79987E+03 -1.05500E+04  2.16666E+04  3.82812E+03
  1.16235E+04  2.35577E+04 -4.56590E+03  2.18895E+04 -2.46628E+04  1.28938E+04 -2.54989E+04 -2.55383E+03
 -1.74702E+04 -1.56958E+04 -3.83718E+03 -1.70275E+04  1.53724E+03 -1.76052E+04  1.68022E+04 -1.63254E+04
  2.00003E+04 -1.38264E+04  2.81175E+04  2.47905E+03  2.53992E+04  2.06193E+04  5.30609E+03  3.27293E+04
 -1.68544E+04  2.55344E+04 -2.44277E+04  8.62873E+03 -2.04660E+04 -8.77070E+03 -2.47745E+03 -1.49563E+04
 -2.66291E+03 -2.84926E+03 -2.39209E+03  8.49019E+03 -1.42830E+04  4.88982E+03 -1.32412E+04 -7.42737E+03
 -1.13215E+04 -1.57817E+04 -3.36905E+03 -1.91219E+04  1.88428E+04 -1.72590E+04  1.60333E+04  7.95936E+02
  9.41125E+03  1.11813E+04 -2.63341E+01  1.50712E+04 -7.65820E+03  1.09690E+04 -1.96211E+04 -3.88699E+03
 -8.93882E+03 -1.59918E+04 -2.33690E+03 -2.04737E+04  7.32092E+03 -1.69567E+04  1.87589E+04 -5.50656E+03
  1.80586E+04  8.63913E+02  9.33181E+03  5.07198E+03  7.94073E+03 -2.21260E+03  6.88523E+03  1.41870E+02
  1.37697E+04  2.41260E+03  1.73067E+04  1.45619E+04  9.53213E+03  2.35464E+04 -3.12222E+03  2.79942E+04
 -1.68847E+04  2.31627E+04 -2.73916E+04  6.10821E+03 -2.60222E+04  1.77162E+03 -2.29234E+04 -1.15597E+04
 -6.45357E+03 -2.38267E+04  1.00227E+04 -1.98830E+04  1.36598E+04 -9.19029E+03  1.93728E+04  3.45757E+03
  8.93882E+03  1.10338E+04 -9.17698E+03  8.25743E+03 -1.47430E+04  5.23922E+03 -1.07566E+04 -5.76126E+03
 -8.88257E+02 -1.43436E+04  9.27640E+03 -7.17744E+03  9.84698E+03 -3.16605E+03  4.05165E+03  6.76680E+03
 -5.03687E+03  1.67009E+03 -2.35907E+03 -7.24340E+03  3.34428E+03 -1.65023E+04  9.28686E+03 -1.16732E+04
  1.38417E+04 -6.17513E+03  1.12627E+04  9.68874E+02  1.11078E+04  9.80624E+03  5.12968E+03  1.33869E+04
 -6.18879E+03  1.63623E+04 -9.87092E+03  8.50171E+03 -7.87501E+03  2.17268E+03 -1.25161E+04  1.45255E+03
  1.96945E+02 -3.76382E+03 -7.12414E+03  5.25360E+02  2.23651E+03 -2.30314E+02 -6.26891E+03  4.78145E+03
 -1.10447E+04 -3.23071E+03 -9.09174E+03 -9.23205E+03 -1.66499E+03 -1.14204E+04  5.08757E+03 -6.96029E+03
  5.59927E+03 -3.03125E+03  7.31484E+03  4.22484E+03 -2.71598E+03 -1.16874E+03 -1.21856E+03 -2.72960E+02
 -1.49994E+03 -3.28277E+03  5.63116E+02 -1.20712E+04  1.46020E+03 -8.62687E+03  1.03938E+04 -4.44662E+03
  7.97035E+03 -3.68775E+03  7.38077E+03  7.08416E+03  1.22208E+03  8.77061E+03 -1.03335E+04  1.23400E+04
 -6.61553E+03  1.01930E+03 -3.62156E+03  8.13808E+02  5.79369E+01  2.33081E+02  5.81300E+03 -3.69668E+01
  4.84945E+03  2.60471E+03  2.98894E+03  1.01061E+04  2.54519E+02  6.79623E+03 -9.26135E+03  4.02359E+03
 -5.14969E+02 -4.79204E+03  1.42244E+03 -8.14206E+03  3.41602E+03 -5.87060E+02  7.19610E+03  1.56631E+03
 -1.17592E+03  6.30350E+03 -1.34960E+03  2.68314E+03 -7.29159E+03  1.25747E+03 -4.07590E+03 -2.62105E+03
 -3.68860E+03 -3.84566E+03  1.32458E+03 -4.91722E+03  3.97529E+03 -8.70865E+03  4.80190E+03  5.65076E+03
  6.07667E+03  4.87962E+03  9.25168E+02  7.82666E+03  9.33365E+01  5.22127E+03 -7.38707E+03 -4.74063E+03
 -1.06518E+04 -3.88201E+03 -4.10214E+03 -8.85533E+03  5.00869E+03 -3.53615E+02  7.15896E+03 -1.51450E+03
  3.54971E+03 -2.01806E+03  3.88450E+02 -8.08289E+01 -2.17209E+03  1.32486E+03  1.40819E+01 -6.53190E+01
  6.71809E+03  1.59882E+03  5.22539E+03  2.60407E+03  4.83050E+03  2.95644E+03  7.09657E+03  4.25014E+03
 -2.82098E+03  5.37773E+03 -5.68237E+03  1.19060E+04 -1.06145E+04  5.11026E+03 -1.12427E+04 -4.70161E+03
 -7.06093E+03 -3.52771E+03  2.20006E+03 -8.18288E+03  3.47718E+03 -3.31707E+03  3.27123E+03 -5.31416E+03
  5.91219E+03 -1.73848E+03 -1.68917E+03 -3.49351E+03  3.72652E+03 -9.18566E+02  3.73254E+03  2.80352E+03
  5.57799E+03  1.60144E+03 -1.66689E+03  1.70185E+03 -2.39908E+03  3.60954E+03 -4.64400E+03  5.45708E+02
 -5.98670E+03 -4.58443E+03 -2.70642E+03 -2.01055E+03 -3.15508E+03 -3.32499E+03  4.75593E+03 -4.63861E+03
  1.03165E+04 -4.14054E+03  1.22853E+04 -7.63957E+01  2.03302E+03  4.52170E+02 -3.52970E+03  4.83547E+03
 -3.81503E+02  6.03865E+03 -1.08465E+03  2.01143E+03 -3.77609E+03  1.91225E+03 -1.27795E+03  3.46373E+03
 -6.21852E+03  3.31470E+03  1.50937E+03  2.47709E+03 -2.93584E+03  6.50181E+03 -5.48620E+03  1.13445E+03
  8.24831E+02 -2.99547E+03  5.14391E+02 -5.55336E+03  6.03178E+03 -3.01441E+03  6.56131E+03  4.31875E+02
  1.94466E+03  1.02494E+03  3.88420E+03  2.60698E+03 -4.20472E+02  3.63431E+03 -3.50661E+03  3.73406E+03
 -5.72133E+03 -1.45638E+02 -4.74215E+03 -5.73779E+03 -1.69208E+03 -4.29761E+03 -7.74010E+02 -4.73042E+03
  3.31159E+03  3.45732E+03  1.34237E+03  2.02456E+03  4.07711E+03 -2.64616E+03  1.15376E+02 -7.07100E+02
  2.07595E+03 -2.43543E+03 -3.35743E+03 -2.61536E+03  2.41731E+03  3.25119E+03  8.66781E+03  2.80399E+03
  2.08246E+03  2.90679E+03 -2.16677E+03  3.23145E+03 -8.15309E+03  1.44539E+02 -5.81172E+03 -1.83749E+03
 -2.91597E+03 -3.02461E+03 -2.04505E+02 -4.35949E+03  1.17822E+03 -3.62105E+02  1.84401E+03  1.06164E+03
  3.37841E+02  2.60084E+02 -1.30494E+03  5.93087E+02 -7.27517E+02  3.26772E+02 -1.81322E+03 -9.50007E+02
  7.63377E+02  7.80181E+02  5.32686E+02 -9.29488E+01  2.06066E+03  4.13772E+02  1.18196E+03  4.94241E+02
 -2.38732E+03  3.66792E+03 -5.54425E+01 -1.17391E+03  1.95998E+03 -1.68357E+02  3.73299E+03  9.50184E+02
 -1.46509E+03  6.46418E+02 -3.27369E+02 -3.35121E+02 -4.50819E+03  2.83120E+03  1.47537E+02  1.13507E+03
 -8.73326E+02 -1.20363E+03 -5.37066E+02  1.25998E+03 -1.08870E+03 -1.90475E+03 -5.64565E+03 -3.60917E+03
 -4.06618E+03 -4.65883E+02  1.45659E+03  4.66793E+03 -2.38226E+03  3.04636E+03 -9.68610E+02 -2.20358E+03
 -4.82374E+03  1.16967E+03  4.74911E+03  7.08149E+02 -4.57749E+02 -1.01223E+03 -2.44636E+03 -3.16856E+03
 -2.64288E+03  2.97768E+03  3.03675E+03  9.82155E+02 -2.28700E+03 -7.86363E+02  4.93426E+03 -2.34500E+03
 -1.15933E+03  3.61182E+03  3.32820E+03 -2.38445E+02  4.01938E+03  5.23872E+02  4.82972E+03 -9.12148E+02
  4.59521E+03  3.29556E+03  7.32927E+03 -3.97779E+03  4.66735E+03  1.29308E+03 -9.37278E+02  2.51841E+03
  2.20956E+03 -3.89876E+03 -2.12307E+03  6.15630E+02 -1.10236E+02  1.98425E+02  2.26322E+02 -8.75696E+02
  3.45230E+03 -1.21777E+03 -2.35215E+02  5.10274E+03  1.31918E+03  5.02023E+03  4.36204E+03  2.56990E+03
  3.08514E+02  1.12697E+03  1.48873E+03 -2.91152E+02 -3.19262E+03 -1.06005E+03 -5.27394E+01  1.22672E+03
 -3.67450E+03 -8.71596E+02 -5.62669E+03  4.40354E+03 -1.49133E+03 -2.05387E+03 -4.35955E+03  2.45009E+03
 -6.54007E+02 -2.42122E+03  6.13730E+02 -3.35220E+03  5.51364E+03 -3.25628E+03  3.88442E+03 -2.97425E+03
  3.89413E+03 -2.24849E+02  1.30048E+03  4.67071E+03  4.74152E+02  2.42205E+03  8.34939E+02 -5.12731E+01
 -1.00273E+03  1.95131E+02  1.78410E+03  3.04230E+03  4.57282E+03  3.11875E+03  1.24885E+03  3.26878E+03
 -8.73412E+01 -6.92691E+02  1.53791E+03 -5.57703E+03  7.06070E+02  5.22708E+03  1.00201E+02  1.57148E+03
  6.24331E+02 -6.35535E+03 -2.77339E+03  7.97566E+02  6.08475E+01  9.47200E+02 -6.56717E+02  4.65568E+03
  4.02281E+02  6.06451E+03 -1.10379E+02  1.09513E+03 -5.40587E+03  2.98482E+03 -1.02330E+03 -4.72275E+03
 -2.16584E+03 -5.20601E+03  9.85456E+02 -1.34593E+03  4.61477E+03 -5.31897E+02  2.40609E+03  5.05510E+02
 -6.20792E+03 -1.61893E+03  1.07158E+03 -4.71455E+03  4.11963E+02 -3.44999E+03  1.80749E+03  4.55395E+03
  6.84990E+02  9.65094E+02  2.80859E+03  1.57069E+03  2.64597E+03 -1.07058E+01 -4.11516E+03  1.05148E+03
 -2.00188E+03  6.95127E+02  3.05243E+03 -9.40031E+02 -3.42976E+03 -5.96803E+02  1.12682E+03  1.24322E+03
  1.44707E+03 -1.14812E+03 -4.30922E+02 -3.25863E+03  2.38799E+03 -5.84992E+03  2.15052E+03 -7.94667E+02
 -2.44604E+03 -8.10249E+02 -2.05204E+03  2.56135E+03  2.12407E+03  3.84299E+03 -3.56294E+03  1.81439E+03
  9.05961E+02  4.81997E+02 -6.03770E+03 -1.73280E+03 -4.67682E+03 -3.87881E+03  1.82675E+03 -8.61988E+02
 -3.98823E+02 -1.70933E+03  2.55104E+03 -4.12343E+03  1.58705E+03  2.00387E+02  4.44295E+03  1.40925E+03
 -1.69827E+02  1.90621E+03  1.12139E+02  6.95110E+03  1.60166E+03  1.25165E+03 -1.25708E+03  6.31185E+03
