 $NMID ID='MM_0lb_SNR50_19hz_g45_18.RAW', FMTDAT='(8E13.5)'
 TRAMP=1., VOLUME=1. $END
  3.10679E+05 -3.81574E+02  3.35713E+05  2.46647E+05  8.80015E+04  3.39291E+05 -1.34530E+05  2.46077E+05
 -1.90301E+05  8.34528E+04 -1.14658E+05 -3.36151E+04  1.68167E+03 -5.36748E+04  5.18962E+04  2.49198E+03
  3.57456E+04  5.56554E+04 -1.64069E+04  7.10496E+04 -5.84120E+04  6.85696E+04 -8.05948E+04  3.35196E+04
 -7.59683E+04 -1.45084E+04 -5.62642E+04 -4.76189E+04 -1.44988E+04 -6.44990E+04  2.13187E+04 -4.13711E+04
  4.06880E+04  3.40308E+03  1.97717E+04  4.63370E+04 -3.07571E+04  5.04816E+04 -7.04745E+04  1.13570E+03
 -5.36526E+04 -5.33594E+04 -6.54295E+03 -7.50086E+04  3.56565E+04 -5.56946E+04  4.73285E+04 -1.72983E+04
  4.22374E+04  1.59688E+04  2.99867E+04  2.55063E+04  1.72657E+04  3.15765E+04 -3.05735E+03  2.94029E+04
 -2.24312E+04  1.31193E+04 -2.06474E+04 -3.57338E+03  3.11200E+03 -4.88746E+03  2.02283E+04  1.47940E+04
  4.85267E+03  3.58638E+04 -3.10870E+04  3.46132E+04 -6.48572E+04 -1.61559E+03 -5.90383E+04 -4.40111E+04
 -1.39527E+04 -6.29080E+04  3.93930E+04 -4.09708E+04  5.72133E+04 -3.93046E+03  3.31689E+04  3.22791E+04
 -7.28651E+03  3.35220E+04 -2.65623E+04  1.53094E+04 -2.71769E+04 -8.74681E+03 -1.43781E+04 -9.13458E+03
 -7.41612E+03 -1.39352E+04 -1.72334E+03 -1.73069E+04  5.81669E+03 -2.72448E+04  1.72456E+04 -1.63565E+04
  1.26867E+04  2.89730E+03 -4.66669E+03  1.41273E+04 -1.95768E+04 -9.03482E+02 -9.55669E+03 -2.94377E+04
  2.08472E+04 -3.60523E+04  4.40748E+04 -1.69764E+04  4.33344E+04  1.75481E+04  1.33221E+04  4.13358E+04
 -1.48170E+04  3.03852E+04 -2.91429E+04  4.61107E+02 -6.38336E+03 -2.34722E+04  2.18409E+04 -3.48130E+04
  3.59458E+04 -4.28102E+03  3.10240E+04  2.35421E+04  1.40188E+04  4.02132E+04 -8.12693E+03  5.07863E+04
 -3.14144E+04  2.79900E+04 -3.56858E+04  8.13337E+03 -3.75104E+04 -1.57147E+04 -2.19861E+04 -3.46856E+04
  4.27107E+03 -3.51034E+04  2.71239E+04 -1.28647E+04  2.72066E+04  1.11733E+04 -5.10762E+02  1.76917E+04
 -1.36676E+04  7.43592E+03 -5.09205E+03 -9.39349E+03  6.76538E+03 -9.45851E+03  1.62281E+04  3.62235E+03
  1.41513E+04  2.05598E+04 -7.84247E+03  2.23024E+04 -2.16592E+04  1.08862E+04 -2.32436E+04 -5.02269E+03
 -1.64967E+04 -1.57810E+04 -2.43476E+03 -1.87177E+04  9.17849E+02 -1.22603E+04  8.20507E+03 -1.53634E+04
  1.75522E+04 -1.06339E+04  2.60490E+04  2.44831E+02  2.14334E+04  1.79575E+04  7.09536E+03  3.43999E+04
 -1.48884E+04  2.96440E+04 -2.45283E+04  9.15118E+03 -1.84826E+04 -3.58341E+03 -8.92578E+03 -1.24662E+04
  1.64502E+03 -5.81463E+03 -1.61535E+03  2.50809E+03 -1.10413E+04  6.42512E+03 -1.11112E+04 -5.33058E+03
 -9.41617E+03 -1.27016E+04  1.16028E+04 -1.98345E+04  1.15249E+04 -1.37643E+04  1.14364E+04 -1.88184E+03
  1.05793E+04  1.20663E+04 -3.70233E+03  1.60388E+04 -1.08549E+04  8.43059E+03 -1.99555E+04 -4.45348E+03
 -1.35570E+04 -1.48546E+04 -3.06137E+03 -2.04581E+04  7.82381E+03 -1.49047E+04  1.83468E+04 -7.23237E+03
  1.26357E+04 -1.95564E+03  9.28195E+03  2.68117E+03  6.68654E+03 -3.99759E+03  6.35753E+03 -3.80714E+02
  1.32129E+04  1.80308E+03  1.43486E+04  1.23993E+04  1.28786E+04  2.59232E+04 -3.59114E+03  2.53877E+04
 -1.76459E+04  1.93430E+04 -2.30668E+04  8.99002E+03 -2.40659E+04  7.12354E+02 -1.95454E+04 -1.37951E+04
 -9.58081E+03 -1.54302E+04  6.08461E+03 -1.88958E+04  1.91193E+04 -1.01503E+04  1.59442E+04  4.33598E+03
  2.55873E+03  6.47450E+03 -5.82700E+03  1.83734E+04 -1.52489E+04  4.08955E+03 -1.32027E+04 -7.60343E+03
 -5.62956E+02 -1.24481E+04  4.61347E+03 -9.25810E+03  5.81325E+03 -1.76279E+03  2.50157E+02  6.59913E+03
 -6.15713E+03  3.14891E+03 -2.91933E+03 -2.30795E+03  1.80032E+03 -9.30167E+03  5.97592E+03 -1.02775E+04
  1.30518E+04 -2.66851E+03  1.00470E+04  8.34360E+03  1.17606E+04  7.84399E+03  3.04956E+02  1.35543E+04
 -1.94213E+03  1.73815E+04 -1.14311E+04  8.21756E+03 -6.69590E+03  1.88232E+03 -5.01595E+03 -7.26252E+02
  2.00286E+02 -2.32488E+03 -2.49180E+03  3.73474E+03 -2.87369E+03  4.53838E+03 -3.93435E+03  2.68235E+03
 -9.19920E+03 -1.20403E+03 -6.03921E+03 -7.08626E+03 -2.17974E+03 -1.48391E+04  4.15931E+03 -9.15592E+03
  1.11118E+04 -3.03436E+03  4.88498E+03  8.20270E+02  7.13241E+02  3.92147E+03 -6.35529E+03 -1.84007E+03
 -4.24954E+03 -8.63745E+03  6.69225E+02 -1.01802E+04  6.51685E+03 -5.72086E+03  7.41990E+03 -2.43754E+03
  7.61911E+03 -2.66245E+02  9.11205E+03  8.86170E+03 -7.45501E+02  6.90252E+03 -9.17963E+02  7.11079E+03
 -5.59746E+03  5.02485E+03 -6.93164E+03  4.09748E+02  3.95671E+03  1.53227E+03  6.20884E+03  2.11943E+03
  8.68969E+02  4.75948E+03  2.29766E+03  6.10151E+03 -6.99374E+03  4.73409E+03 -7.26314E+03 -3.52723E+03
 -2.86161E+03 -4.38495E+03  2.34981E+02 -3.57002E+03  6.27235E+02 -6.11665E+03  3.97757E+03 -1.96695E+03
  1.65646E+03  3.06402E+03  7.48211E+01  3.43311E+03 -6.37188E+03  7.45290E+03 -2.06663E+03 -1.23618E+03
 -3.30136E+03 -7.91697E+03  1.08614E+03 -3.67079E+03  6.47266E+03 -1.96044E+03  4.93995E+03  2.51330E+03
  6.02864E+03  5.48552E+03 -1.83625E+02  9.22484E+03 -3.60796E+03  3.10309E+03 -7.57534E+03 -3.95301E+03
 -9.29104E+03 -7.96719E+03 -7.04834E+03 -5.39165E+03  5.59759E+03 -3.54872E+03  5.32283E+02 -6.13222E+02
  4.87217E+03 -1.92911E+02 -3.99747E+03 -8.43772E+03  1.37595E+03  2.09456E+03  2.62555E+03 -4.42255E+03
  5.18670E+03  1.84828E+03  4.37547E+03  2.21762E+03  3.10593E+03 -9.33560E+02  2.82488E+03  8.22102E+03
 -1.45512E+03  8.33908E+03 -9.48319E+03  3.47208E+03 -9.30910E+03 -1.04497E+03 -1.21219E+04 -3.35778E+03
 -3.92245E+03 -6.20655E+03 -3.43578E+03 -2.42174E+03 -5.42561E+02 -1.49888E+03  2.05869E+03 -5.88791E+02
  2.94009E+03  3.49335E+03  2.90394E+03 -6.50695E+02  3.56513E+03 -1.61483E+03  3.30987E+03  1.95912E+03
  6.57129E+03  1.03633E+03  4.15584E+03  3.06592E+03  1.25178E+03  6.25135E+02 -4.95047E+03  3.89759E+03
 -9.16002E+03 -6.05271E+02 -3.95595E+03  3.76603E+03  5.20357E+01 -1.25136E+03  7.52236E+03 -3.96915E+03
  5.39890E+03 -4.83892E+03  7.80470E+03 -2.72245E+03  5.27676E+03  6.22061E+03  3.73010E+01  6.41312E+03
 -3.10485E+03  3.80346E+03 -2.62035E+03 -6.25976E+02 -1.58675E+03 -1.50745E+03 -1.72962E+03  1.58680E+03
  3.59176E+03  1.63342E+03  1.10395E+03  9.38073E+02 -1.01432E+03 -8.46616E+01 -1.11176E+03  1.00479E+03
 -1.03900E+03 -5.30890E+03  2.76120E+03 -5.54246E+02  3.08749E+03 -3.87608E+03  1.51110E+03 -9.72657E+01
  4.83451E+03  5.55744E+03  1.49107E+03  3.00510E+03 -1.49538E+03  4.92512E+03 -3.95838E+03  1.04282E+03
 -7.17638E+03 -2.15377E+03 -1.84391E+03  3.49845E+03  4.09472E+03 -5.68691E+03  1.53352E+03 -5.74540E+03
  3.13931E+03 -1.33481E+03 -7.62414E+02 -4.95276E+02 -1.96711E+03  3.22420E+02  9.76904E+02  3.39467E+03
  2.44801E+02 -3.57503E+03  1.82630E+03  4.21939E+02  9.89212E+02  3.78053E+03  3.30824E+03 -2.42420E+03
 -1.62795E+03 -1.74004E+03 -4.07122E+03  8.13560E+01 -5.90556E+02 -3.05318E+02 -1.37485E+03  5.32064E+03
 -4.04584E+03 -4.09992E+03  9.16585E+02 -4.12234E+03  2.04224E+03 -1.38070E+03 -4.72735E+02  5.56023E+03
 -2.12014E+03  5.80592E+02  2.59507E+03  4.37706E+03  7.46242E+02  3.26321E+02  8.03829E+02 -1.14148E+03
  2.29978E+03  8.93608E+02  1.11490E+03 -2.43247E+03 -1.24145E+01 -2.14642E+03  2.17292E+03  4.77739E+03
  3.68553E+03 -4.28924E+03 -1.63508E+03  1.20873E+03  1.23471E+03 -1.12727E+03  1.39234E+03  1.86305E+03
 -5.09848E+03 -5.87618E+02  1.32202E+03 -1.53694E+03 -3.81432E+02  3.13335E+03 -6.92333E+03  3.55145E+03
  6.16979E+01  5.11971E+02 -5.33377E+03 -2.28312E+03  2.16906E+02  2.86718E+03 -2.72478E+03 -1.50443E+03
  2.02615E+03  8.96132E+02  2.81775E+03  1.78482E+03  2.11625E+03  2.21019E+03 -4.09346E+02  6.57890E+03
 -3.34869E+03 -3.28844E+03  9.36769E+02 -3.70028E+02 -3.31069E+03 -2.88760E+03  8.16291E+02  9.80872E+02
 -3.62050E+03 -2.37166E+03  1.04030E+03 -2.66797E+03  1.29633E+03 -1.98315E+03  4.02405E+03  2.27801E+03
 -2.17639E+03  8.47421E+02  1.24726E+02 -2.43917E+03  3.13069E+02  1.77086E+03  4.82660E+03 -5.11272E+03
 -3.10920E+02 -9.45083E+02  2.68674E+03  5.73724E+01  7.33214E+02 -3.15386E+03 -1.23879E+03  6.61498E+03
  5.82798E+02  3.61974E+03 -5.47402E+02  2.77967E+03 -1.71627E+03 -7.23030E+02 -1.53379E+03 -5.69914E+03
  2.55188E+02  2.49993E+03 -1.89957E+03  7.18210E-01  5.32205E+03  3.40944E+01  8.18621E+02  3.83187E+03
  2.32706E+03  2.67824E+03 -8.65435E+01 -2.30037E+03 -2.56801E+03  2.03930E+02  2.58218E+03  1.81423E+03
 -3.85540E+03  1.61595E+03 -2.79621E+03  2.29664E+03  1.92172E+03  3.53753E+03 -2.48670E+03 -2.24102E+03
 -9.97420E+02 -2.64885E+03  2.71254E+03 -3.37929E+03  2.50922E+03 -2.59328E+03  2.31356E+03 -3.34415E+03
  2.15493E+03  2.33785E+03  2.38386E+02  7.51680E+03  1.00805E+03  7.53773E+02 -5.21837E+03 -4.51669E+02
 -1.13447E+03 -2.37126E+03  2.31060E+03 -2.50135E+03  7.73049E+02  4.39292E+02 -4.04714E+03  1.51129E+03
 -1.13478E+03  1.35253E+03 -3.88196E+03  1.40899E+03 -3.54576E+03  2.99431E+03  1.43290E+02 -4.26453E+03
 -4.97690E+02 -3.86738E+03  1.54585E+03  2.83593E+03  3.48273E+03  1.27972E+03  2.20951E+03  2.63186E+03
  1.32371E+03  4.21278E+03  2.31601E+03 -1.27943E+03 -2.86512E+03 -5.12652E+02 -5.04285E+02  2.73464E+03
  2.20992E+03 -4.10880E+03  1.01805E+03  1.91123E+03 -6.10819E+02 -2.70212E+03  5.33459E+03 -1.52855E+03
 -1.54594E+03 -2.78769E+03 -3.00702E+03 -4.37271E+02  3.79622E+03  3.07596E+03 -2.94307E+03  1.56202E+03
  8.97793E+02  3.99233E+03 -1.62691E+03 -5.47960E+02 -1.70568E+03  1.15887E+03 -6.76735E+02  1.14163E+03
 -4.90338E+03  1.31510E+03 -9.23569E+02  1.05768E+03  5.55628E+01  4.61421E+02 -1.48352E+03 -2.17203E+03
  1.80258E+03  1.14097E+03  3.06768E+03  2.88421E+03  1.24814E+03  3.63595E+03  3.23964E+03 -4.04248E+02
  9.46002E+02  4.74391E+03 -2.45664E+03  2.12555E+03 -3.76445E+03  6.03761E+03  9.95651E+02 -1.35144E+03
  4.06465E+02 -8.40219E+02  5.97312E+02  5.43124E+02  1.29576E+03 -2.45812E+03 -2.47521E+03 -4.76409E+02
  1.65514E+02  2.38579E+03 -7.43094E+02  3.25501E+03 -6.67223E+02 -1.73888E+03  9.06355E+02  6.58140E+02
  2.09068E+03  3.62363E+03 -1.02589E+03 -7.05635E+02 -1.13677E+03  1.80392E+03  1.82152E+03  2.11248E+03
