 $NMID ID='MM_0lb_SNR50_20hz_g60_74.RAW', FMTDAT='(8E13.5)'
 TRAMP=1., VOLUME=1. $END
  3.13378E+05  4.38230E+02  3.38909E+05  2.51369E+05  8.67847E+04  3.39663E+05 -1.30518E+05  2.45263E+05
 -1.90932E+05  8.34295E+04 -1.06946E+05 -3.58096E+04  2.60637E+03 -4.33323E+04  5.53962E+04  1.71743E+02
  3.76042E+04  5.42744E+04 -1.23812E+04  7.64672E+04 -5.39602E+04  5.40638E+04 -8.31120E+04  3.04609E+04
 -7.84775E+04 -1.07105E+04 -5.58307E+04 -5.52654E+04 -2.17260E+04 -6.81773E+04  2.68475E+04 -4.70162E+04
  3.44177E+04  4.57917E+03  1.60224E+04  4.64257E+04 -3.76315E+04  4.84366E+04 -6.28747E+04 -1.34350E+02
 -5.35987E+04 -5.48253E+04 -3.79156E+03 -7.48330E+04  3.44923E+04 -5.27234E+04  4.74996E+04 -1.47449E+04
  4.62212E+04  1.00219E+04  3.17296E+04  2.37074E+04  1.76600E+04  2.83652E+04 -5.69765E+03  2.71429E+04
 -2.32790E+04  1.18155E+04 -1.95048E+04 -5.77985E+03  3.82956E+03 -5.97373E+03  2.23428E+04  9.26082E+03
  9.03800E+03  3.24184E+04 -2.96304E+04  3.27359E+04 -5.99001E+04  2.25423E+03 -6.07275E+04 -4.09584E+04
 -1.05195E+04 -6.37483E+04  3.59321E+04 -4.52953E+04  5.57482E+04 -4.93631E+03  3.38766E+04  3.05935E+04
 -3.52940E+03  3.13040E+04 -2.94928E+04  1.45666E+04 -2.78388E+04 -2.83279E+03 -1.54899E+04 -8.20271E+03
 -5.02934E+03 -1.21784E+04 -4.46824E+03 -1.59790E+04  7.54091E+03 -2.39308E+04  1.82571E+04 -1.08134E+04
  1.30305E+04  4.49027E+03 -3.58216E+03  1.20707E+04 -2.05899E+04 -4.85979E+03 -1.08948E+04 -3.34100E+04
  2.43277E+04 -4.18666E+04  4.46315E+04 -2.21248E+04  4.39790E+04  1.46457E+04  1.07418E+04  4.12512E+04
 -1.18620E+04  3.36540E+04 -2.31687E+04  4.47894E+03 -7.87399E+03 -2.88189E+04  1.90730E+04 -3.18532E+04
  3.94706E+04 -4.85768E+03  3.51256E+04  2.12562E+04  1.53108E+04  4.65744E+04 -5.54709E+03  4.46035E+04
 -2.93222E+04  3.02003E+04 -3.83692E+04  5.20804E+03 -3.86954E+04 -1.72680E+04 -1.93641E+04 -3.70327E+04
  5.60354E+03 -3.37698E+04  3.07471E+04 -1.35872E+04  2.95270E+04  4.67108E+03  7.36511E+02  1.68143E+04
 -1.57181E+04  6.03966E+03 -6.92791E+03 -9.65768E+03  4.65763E+03 -7.81602E+03  1.38389E+04  6.60039E+03
  1.23413E+04  2.14068E+04 -1.08167E+04  2.45134E+04 -2.07698E+04  1.23932E+04 -2.98598E+04 -6.10925E+03
 -1.49547E+04 -1.20479E+04 -7.30170E+03 -1.68100E+04  2.94216E+03 -1.42623E+04  1.45795E+04 -2.05089E+04
  2.05435E+04 -9.13041E+03  3.22884E+04 -2.44288E+03  2.35713E+04  1.96105E+04  5.22486E+03  3.56297E+04
 -1.75382E+04  2.86627E+04 -3.16602E+04  1.24403E+04 -1.99110E+04 -1.03975E+04 -1.93603E+03 -1.04124E+04
  2.69472E+03 -9.74021E+03 -1.78315E+03  8.08978E+03 -1.48517E+04  3.44874E+03 -1.39169E+04 -1.77861E+03
 -4.09586E+03 -1.30654E+04  1.63926E+03 -2.16662E+04  1.06521E+04 -1.31210E+04  1.41486E+04 -2.01605E+03
  1.26479E+04  1.11044E+04 -2.76860E+02  1.53723E+04 -3.92214E+03  5.59184E+03 -1.83285E+04  1.97187E+03
 -1.13792E+04 -1.24308E+04 -3.52244E+03 -2.19927E+04  4.18761E+03 -1.52324E+04  1.23828E+04 -7.90343E+03
  1.32170E+04 -2.06553E+03  6.73959E+03  2.40800E+03  6.64989E+03 -2.24182E+02  7.24227E+03 -1.13006E+03
  1.42520E+04  5.18848E+03  1.67193E+04  8.14736E+03  7.84522E+03  2.49477E+04 -1.86695E+03  2.80488E+04
 -1.51103E+04  1.83892E+04 -2.47221E+04  1.43184E+04 -2.32437E+04 -2.04985E+03 -1.77115E+04 -1.33609E+04
 -1.38557E+04 -2.27153E+04  1.15889E+04 -1.87066E+04  1.95203E+04 -1.13599E+04  1.28633E+04 -8.47832E+01
  2.99216E+03  1.37321E+04 -6.85447E+03  1.12834E+04 -1.26612E+04  3.94107E+03 -1.07536E+04 -1.05375E+04
 -1.17402E+03 -1.16334E+04  5.23789E+03 -8.20657E+03  9.99901E+03  7.00691E+02 -1.29105E+02  3.81751E+03
 -3.35798E+03 -3.85364E+02 -6.26854E+03 -2.75098E+03  3.12493E+03 -1.01401E+04  9.82313E+03 -1.46627E+04
  1.65953E+04 -4.69677E+03  9.11838E+03  5.20303E+03  1.35633E+04  7.00939E+03  5.76317E+03  1.70318E+04
 -1.00534E+03  1.69436E+04 -1.07259E+04  1.10785E+04 -1.17750E+04  2.61757E+03 -1.31708E+04 -1.59554E+03
 -6.67588E+03 -1.74738E+03 -4.41401E+03  3.36393E+03 -3.01164E+01  2.34649E+03 -4.81281E+03  1.36653E+03
 -1.07082E+04 -4.88855E+03 -7.92037E+03 -1.06503E+04 -6.12380E+02 -1.08609E+04  7.59003E+03 -8.75051E+03
  3.24228E+03 -4.27420E+03  5.84771E+03 -1.60622E+03 -1.29799E+03  4.22932E+03 -2.09464E+02 -1.03246E+03
 -2.21620E+03 -6.61651E+03  2.43418E+03 -7.13779E+03  3.06862E+03 -4.76687E+03  9.00032E+03 -4.59601E+03
  1.00422E+04  1.63615E+03  7.40201E+03  5.00619E+03 -2.27739E+02  1.09057E+04 -3.83239E+03  7.35511E+03
 -5.04952E+03  2.49169E+03 -3.79068E+03 -5.83601E+03  4.14407E+03 -2.89797E+03  6.11769E+03  1.06148E+02
  6.08771E+03  3.75809E+03  5.27354E+02  8.33057E+03 -5.12264E+03  9.48930E+03 -7.30614E+03 -7.08830E+02
 -7.94028E+03  3.07649E+03 -3.18342E+03 -1.16775E+04  3.13002E+03 -2.02219E+03  2.16931E+03  2.77975E+02
  1.16485E+03  6.85978E+02 -5.20553E+03  7.04790E+03 -7.46505E+03 -1.48226E+03 -4.13835E+03  3.23571E+02
 -3.79565E+03 -4.09230E+03  4.41990E+03 -1.00286E+04  6.49928E+03 -4.88399E+03  5.45720E+03  5.12620E+03
  3.57015E+03  2.67998E+03 -1.04977E+03  7.37491E+03 -6.90678E+03 -1.17724E+03 -8.41158E+03 -1.27541E+03
 -8.22147E+03 -5.65219E+03  1.34720E+03 -2.90327E+03  3.64169E+03 -5.57640E+03 -1.93314E+03 -3.41112E+03
  6.47625E+03 -2.43797E+02  1.19662E+03 -6.30262E+02 -7.35411E+02  2.38930E+03  4.70254E+02 -4.18546E+03
  4.84886E+03 -3.53986E+03  4.19160E+03 -9.52532E+02  1.93956E+03  6.30219E+02  8.58807E+03  6.73186E+03
 -1.21866E+03  7.03399E+03 -1.00049E+04  3.01270E+03 -8.29345E+03 -1.61075E+03 -4.61407E+03 -2.02367E+03
 -2.98549E+03 -1.26042E+04 -2.09109E+02 -5.75561E+02  2.96601E+03 -2.71533E+03  1.57415E+03  3.07822E+03
  5.91787E+03 -6.14241E+03  4.50440E+03 -3.52384E+03  1.66369E+03 -2.18316E+03  2.80990E+03 -5.78747E+02
  2.75091E+03  2.59054E+03  4.51546E+03  2.10114E+03  5.25986E+02  3.91104E+03 -2.41399E+03 -3.55509E+03
 -1.03683E+04 -2.07034E+03 -1.23217E+03 -3.77239E+03 -6.74055E+01 -1.50735E+03  4.23503E+03 -2.24242E+03
  2.39773E+03 -6.23605E+02  4.35272E+03  1.29581E+03 -8.60155E+02  5.44608E+03  2.02572E+03  3.56524E+03
 -1.07802E+03  4.86287E+03 -6.74636E+03  5.94304E+02 -2.69218E+03 -1.41008E+03 -1.40287E+03 -1.02460E+03
 -4.08886E+03 -3.96771E+03  1.36196E+03  1.78002E+03 -2.13703E+03  3.79321E+03 -2.12325E+03  1.94195E+03
 -2.25059E+03 -6.25072E+02 -2.72333E+03 -4.59234E+03 -6.14322E+01 -4.39378E+03  2.86291E+03 -5.52898E+03
  4.92633E+03 -5.55412E+02 -7.33713E+02  3.45639E+03 -8.86909E+02  3.60731E+03 -2.02309E+03  1.32181E+03
 -7.15738E+02 -7.32414E+02 -1.63987E+03 -1.60712E+03  1.54699E+03 -2.48251E+03  4.85060E+02  4.39839E+03
  4.12143E+03 -1.45936E+03  5.87286E+02 -1.42883E+03 -2.95010E+03  1.14943E+03  3.10582E+03 -8.86278E+02
  3.17749E+03  2.44660E+03 -2.47775E+03 -2.20583E+02  6.35210E+02  2.06476E+03 -1.65028E+03 -4.74130E+02
  9.85191E+02  2.71944E+03 -2.33111E+03  4.05047E+03 -2.83385E+03  2.41803E+03 -4.37106E+03 -1.25809E+03
 -3.18765E+01 -4.43412E+03 -2.69876E+03 -7.85315E+03 -7.13484E+02 -3.29338E+03  2.51524E+03 -2.83245E+03
 -7.37265E+02 -1.42212E+03 -8.59903E+02  1.69747E+03 -2.08324E+03  2.70423E+03 -1.75006E+03 -6.87431E+02
 -1.06599E+03  2.04502E+03 -1.11210E+02 -4.45896E+03  1.97773E+03 -3.19905E+03  8.77934E+02  1.02873E+03
 -3.44659E+03  2.48843E+02  3.27951E+03 -1.97877E+03 -1.18760E+02 -5.85764E+02  3.68390E+03 -4.38480E+02
 -2.93873E+03  2.39449E+03  4.52139E+03  2.32082E+03  2.20781E+03 -7.10618E+02 -5.85827E+03  5.67714E+03
 -2.81490E+03 -5.20307E+02  3.52904E+02  2.55763E+03  8.37349E+02 -2.02489E+02  3.79866E+02 -5.29572E+02
 -3.26915E+03 -3.34931E+03  6.24963E+02 -8.93785E+02  1.33016E+03  1.40055E+03  7.94181E+02  3.08817E+03
 -3.15226E+02  6.12733E+03 -4.07053E+03  2.62396E+01 -3.32609E+02 -4.73060E+03  1.69075E+03 -4.07715E+03
  1.67185E+03 -5.36526E+02  2.38291E+03 -1.96437E+03 -2.64431E+02  1.50089E+03 -9.49836E+02 -1.71516E+03
  1.69008E+03 -1.92994E+03 -1.16655E+03  2.99850E+03 -9.64881E+02 -1.17231E+03  3.19701E+03 -5.41680E+03
  5.62400E+03  1.88240E+03  6.17500E+03  1.27893E+03  4.40159E+03  1.66721E+03  2.01898E+03 -2.22738E+03
  1.35853E+03 -1.60256E+02  1.03995E+03 -6.68270E+02  1.45731E+03 -4.10090E+03  2.78573E+02 -1.72907E+03
  5.60219E+03 -8.62437E+02  2.67368E+03  3.60160E+03 -2.97231E+02 -3.34250E+02  1.61318E+02  2.36524E+03
  2.40215E+03  2.03485E+03 -2.06417E+03  2.21575E+03  3.30475E+03 -5.85108E+02  1.77788E+03 -2.19322E+03
 -2.68821E+03  5.96918E+03  8.79570E+02  4.11148E+03 -4.75405E+03  1.46040E+03 -1.65783E+03 -3.93841E+03
 -3.77887E+03 -3.70936E+03 -1.68228E+03 -2.09025E+03  2.48849E+03 -3.54196E+03  6.84822E+02 -2.87306E+03
  6.29213E+03 -9.99979E+02 -4.44321E+03  1.38628E+03 -1.91180E+03  7.98642E+02 -2.30317E+03  2.18077E+03
 -1.65778E+03 -1.79804E+03 -1.85854E+03 -2.12140E+03  1.77431E+03  5.81115E+02  2.61946E+03 -1.00264E+03
 -1.12163E+03 -2.20975E+03 -6.37970E+03 -1.69973E+03 -1.03446E+03 -4.21231E+03  3.05872E+03 -1.48125E+03
  3.61818E+03 -2.19799E+03 -2.04070E+03  2.49295E+02 -2.05127E+03  2.72190E+02  3.45648E+03 -1.63629E+02
 -2.66225E+03  2.58236E+03 -4.02423E+03  1.80216E+03  2.09232E+03  2.73910E+03 -3.07335E+03 -2.28448E+02
 -3.43190E+03 -1.67571E+03  1.69295E+03 -5.29699E+02  3.76783E+03  1.27197E+03  5.93160E+02 -6.23244E+03
 -1.58419E+02 -1.46113E+03  1.90976E+03 -8.11386E+01  5.67473E+03 -3.86128E+01  1.27558E+03 -1.41886E+03
  6.79067E+03 -6.88349E+01  1.95104E+03 -2.51038E+03 -1.04029E+03 -4.11926E+02  4.39178E+02 -2.77971E+03
  7.35647E+01 -2.53754E+03 -2.59255E+03  2.57629E+02  2.04191E+03  2.68867E+03  2.69250E+03  2.44217E+02
  1.80868E+03 -5.59246E+02  1.38759E+03 -2.97816E+03  1.96520E+03  1.94572E+03 -1.15806E+03  2.25271E+03
  9.45899E+02  8.72332E+02 -1.36007E+03 -2.85744E+02  1.12839E+03  2.12114E+03  3.46204E+03 -3.60700E+02
  5.34894E+02 -3.22673E+03  5.19803E+02  7.91971E+02 -3.00621E+03 -2.83993E+02  2.24072E+03  4.17076E+03
  5.80387E+02  4.48776E+03 -4.25527E+03 -2.27125E+03  5.99478E+03 -4.26386E+03  1.28122E+03 -9.85877E+02
  4.05294E+03 -6.35664E+02 -1.51584E+03  9.84435E+02  3.57184E+03 -1.46516E+03  1.91567E+03  2.88218E+01
