 $NMID ID='MM_0lb_SNR50_20hz_g45_76.RAW', FMTDAT='(8E13.5)'
 TRAMP=1., VOLUME=1. $END
  3.10470E+05 -1.10015E+03  3.36298E+05  2.48632E+05  8.65975E+04  3.37753E+05 -1.32620E+05  2.51016E+05
 -1.88791E+05  8.40440E+04 -1.10498E+05 -2.87937E+04  1.08371E+03 -5.43946E+04  5.37062E+04 -7.60869E+02
  3.34018E+04  5.24706E+04 -2.05465E+04  7.12079E+04 -6.31595E+04  6.45447E+04 -8.18479E+04  3.77470E+04
 -7.95441E+04 -1.26761E+04 -6.19151E+04 -5.00790E+04 -1.49156E+04 -6.55712E+04  3.07390E+04 -4.45762E+04
  3.93920E+04 -1.09798E+03  1.14083E+04  4.59277E+04 -3.24660E+04  4.53249E+04 -6.50564E+04 -2.50016E+03
 -5.15111E+04 -5.51925E+04 -7.43952E+03 -7.49172E+04  3.28416E+04 -5.26799E+04  4.58298E+04 -1.53006E+04
  4.07723E+04  1.19136E+04  3.08960E+04  2.08367E+04  1.64888E+04  2.85336E+04 -3.44662E+03  2.45324E+04
 -1.72160E+04  1.17175E+04 -1.90317E+04 -2.63974E+03  3.01987E+03 -7.53796E+03  2.48154E+04  7.25400E+03
  7.45716E+03  3.35136E+04 -2.77679E+04  3.28283E+04 -6.02979E+04  1.73214E+02 -5.64443E+04 -4.24865E+04
 -1.00792E+04 -6.04982E+04  3.59386E+04 -3.91317E+04  5.59312E+04 -2.54220E+03  2.86635E+04  2.68082E+04
 -9.03637E+03  3.08983E+04 -2.93210E+04  1.32305E+04 -2.86152E+04 -5.32112E+03 -8.97442E+03 -1.04510E+04
 -1.03197E+04 -1.10241E+04  6.45775E+02 -1.14063E+04  3.75265E+03 -2.22055E+04  1.01227E+04 -1.32682E+04
  1.12481E+04  2.96669E+03 -6.77409E+03  1.37479E+04 -1.61614E+04 -3.05382E+03 -1.17312E+04 -3.31221E+04
  2.18889E+04 -3.84547E+04  4.52401E+04 -1.76216E+04  4.09604E+04  1.66827E+04  1.61197E+04  3.96210E+04
 -1.58558E+04  3.04697E+04 -2.23233E+04  5.37592E+02 -6.08702E+03 -2.65651E+04  2.08470E+04 -3.12557E+04
  3.72451E+04 -8.41218E+03  2.47955E+04  1.56822E+04  1.51963E+04  4.15373E+04 -5.97813E+03  4.42026E+04
 -2.71982E+04  2.70347E+04 -3.30373E+04  8.86855E+03 -3.34319E+04 -9.88467E+03 -1.73229E+04 -3.16401E+04
  6.11691E+03 -3.30399E+04  2.92671E+04 -1.32257E+04  2.77390E+04  9.98482E+03  2.78753E+03  1.60177E+04
 -1.36643E+04  5.12096E+03 -6.67194E+03 -1.05136E+04  5.58920E+03 -5.62299E+03  1.78874E+04  1.14350E+04
  1.24023E+04  2.14638E+04 -8.29425E+03  2.36264E+04 -2.07276E+04  8.62488E+03 -2.52068E+04 -7.55912E+03
 -1.78893E+04 -1.54584E+04 -4.66994E+03 -1.35887E+04  3.14670E+03 -1.19664E+04  1.25652E+04 -1.71308E+04
  1.98999E+04 -1.07944E+04  2.84688E+04 -4.93480E+03  2.33997E+04  1.44129E+04  4.10020E+03  2.72525E+04
 -1.48511E+04  2.75308E+04 -2.52345E+04  7.98008E+03 -1.76798E+04 -9.45359E+03 -6.99027E+03 -9.69984E+03
  1.65688E+03  1.66775E+03 -4.94357E+03 -7.45314E+01 -1.19098E+04  7.10791E+03 -1.19648E+04 -8.81766E+03
 -7.30879E+03 -1.81838E+04  7.22174E+03 -1.96617E+04  8.79515E+03 -1.39106E+04  1.36173E+04 -3.49320E+02
  6.69050E+03  6.83523E+03 -2.93331E+03  1.39958E+04 -7.70403E+03  1.01689E+04 -1.49590E+04  8.55484E+02
 -8.79689E+03 -1.37116E+04  7.09534E+02 -1.69938E+04  5.68634E+03 -1.27049E+04  1.17787E+04 -6.77491E+03
  1.31882E+04  1.05509E+03  1.05478E+04  3.01536E+03  2.52330E+03 -4.21072E+03  4.34849E+03 -2.34249E+03
  1.25923E+04  5.93145E+03  1.24229E+04  1.75868E+04  9.73075E+03  2.46138E+04 -4.16094E+03  2.26293E+04
 -1.57302E+04  1.97951E+04 -2.10610E+04  7.05250E+03 -2.39894E+04 -2.06036E+03 -1.80910E+04 -1.18773E+04
 -7.22287E+03 -1.94703E+04  7.54795E+03 -1.62334E+04  1.47755E+04 -1.10258E+04  1.42350E+04  7.15388E+03
  6.84092E+03  7.69075E+03 -8.38640E+03  1.30281E+04 -1.06897E+04  6.16260E+02 -6.28433E+03 -7.21451E+03
  2.46031E+03 -8.13437E+03  3.15360E+03 -8.52630E+03  5.63700E+03  2.19794E+03  7.64726E+02  6.77201E+03
 -4.53108E+03  1.66866E+03 -1.17461E+04 -3.67473E+03 -1.18645E+02 -8.02309E+03  6.61843E+03 -8.05893E+03
  1.58211E+04 -4.23062E+03  9.23498E+03  4.94348E+03  1.12189E+04  6.69635E+03  6.82037E+03  1.30593E+04
 -5.14428E+02  1.51506E+04 -1.00886E+04  5.73762E+03 -7.20114E+03  1.96562E+03 -7.66094E+03  9.98496E+02
 -1.85237E+03 -2.05004E+03 -4.39507E+03  5.46624E+01 -2.06082E+02  4.40617E+03 -4.42087E+03  4.28680E+03
 -6.13560E+03 -4.43105E+02 -7.29314E+03 -7.28871E+03 -3.95287E+02 -9.15337E+03  3.00665E+03 -6.00882E+03
  6.13047E+03 -2.40374E+03  3.91169E+03  1.80140E+03  4.65332E+03  4.09512E+03 -8.19936E+02  3.57597E+03
 -4.33563E+03 -3.43024E+03 -5.56531E+03 -5.32787E+03  1.34086E+03 -8.26193E+03  8.45199E+03 -5.36201E+03
  1.29385E+04 -1.50126E+03  6.54499E+03  3.19653E+03  1.28787E+03  1.31331E+04 -1.57971E+03  1.15883E+04
 -8.62245E+03  2.85987E+03 -3.74356E+03  8.76865E+02  1.58853E+03 -5.28533E+02  2.54112E+02 -1.06696E+03
  6.35169E+02  2.97905E+03  1.73003E+03  5.29669E+03 -7.03049E+03  5.19239E+03 -6.13784E+03 -1.65606E+02
 -3.94249E+03 -1.67599E+03  1.14783E+03 -5.83569E+03  6.35212E+02  5.11591E+02  1.65747E+03 -1.52299E+03
  7.12301E+02  1.47558E+03 -1.43360E+03  7.50301E+03 -4.41026E+03 -7.46757E+02 -1.26191E+03 -5.11889E+03
 -4.57380E+03 -6.40369E+03 -1.11495E+03 -3.91715E+03  5.41714E+03 -3.42901E+03  6.48226E+03  1.30095E+03
  5.91527E+03  4.50762E+03 -1.79097E+03  6.45906E+03 -4.64518E+02  5.37985E+03 -6.62571E+02  2.58354E+03
 -4.76093E+03 -4.19433E+03 -8.70172E+02 -4.85022E+03  3.58839E+03 -6.23803E+03 -1.92554E+02 -3.24342E+03
  3.45551E+03 -3.19467E+03 -2.05860E+00  1.71770E+03 -3.24720E+02 -3.82927E+03 -4.42654E+02  1.81989E+03
  1.54781E+03  7.37723E+02  6.30365E+03  3.99573E+02  5.30572E+03  2.67318E+03  5.69231E+03  7.20347E+03
 -1.27896E+03  9.24299E+03 -6.61051E+03  6.25339E+03 -4.63759E+03  3.51301E+03 -5.98339E+03 -3.28277E+03
 -7.33581E+03 -1.90518E+03 -5.05173E+02 -6.48042E+03  1.29130E+03 -1.09913E+03  1.24036E+03 -3.37145E+03
  3.07118E+03 -2.58394E+03  5.87236E+01 -3.37796E+03  2.74147E+03  2.43465E+03  1.24394E+03 -4.04279E+01
  4.62624E+03  4.90404E+03  9.70084E+02  3.12947E+03 -4.46890E+03  4.89725E+03 -5.82671E+03  3.92812E+03
 -5.98182E+03 -3.77384E+03 -6.13081E+03 -1.94594E+03 -1.95279E+03 -5.73300E+03  4.19408E+03 -3.73415E+03
  4.38529E+03 -4.73966E+02  9.09360E+03  3.20995E+03  4.39385E+03  4.77993E+03 -6.40255E+01  5.43896E+03
 -1.97871E+03  2.60079E+03 -1.57764E+03  1.15413E+03  9.35653E+02 -4.90908E+03 -3.95488E+01 -5.17504E+03
  1.24709E+03 -7.31923E+02  2.18794E+03  3.44790E+03 -2.84016E+03 -2.96967E+02  1.11133E+03  3.93582E+01
  3.62081E+03 -2.07021E+03  6.63252E+02 -8.76443E+03  1.19437E+03 -4.52761E+03  1.71530E+03 -4.21678E+03
  6.49842E+03  2.21048E+03  3.39050E+03  4.16648E+03  1.61336E+03  3.98583E+03 -1.67403E+03  9.23000E+02
 -6.21697E+03  4.61759E+03 -3.87343E+03  3.10136E+02  5.09884E+03 -5.68204E+03 -6.51239E+02  1.24010E+02
  2.13619E+03 -2.10537E+03  1.34708E+02 -2.34470E+03  5.46488E+01  4.71871E+03 -5.22454E+00  2.28412E+02
  1.93157E+02 -1.61495E+03  1.42480E+02  6.75771E+02  6.50923E+02  3.26554E+03  1.93369E+03  1.82760E+03
 -2.66596E+03  2.95952E+03 -3.23324E+02  1.00777E+03 -2.94401E+03  1.32285E+03 -8.38600E+03  1.04820E+03
  2.07880E+02 -4.03199E+03  3.95533E+03 -1.23215E+03  1.63120E+03 -8.09254E+02  6.11667E+02 -4.19970E+03
  6.87781E+03  2.07032E+03  1.00818E+03  6.33929E+02 -7.81623E+02  2.84176E+03 -1.95424E+03 -6.35522E+02
  7.42062E+00 -3.78319E+03  1.74848E+03  2.08054E+02 -1.44129E+03  1.33962E+03  1.94876E+03  8.54752E+02
  6.75663E+03  3.91789E+03  2.60825E+03 -8.11010E+02  9.19389E+02 -5.05519E+02 -1.01548E+03  6.63037E+02
  7.41208E+01 -4.28116E+02  2.98381E+03  7.02659E+02 -1.94723E+03  3.09869E+03 -1.51332E+03  3.41633E+03
  1.59432E+03  3.13925E+03 -3.68517E+03  3.74245E+03 -5.14897E+02 -1.08741E+03  2.92376E+02 -1.19942E+03
  2.36596E+03 -2.91208E+03  1.15651E+03  2.41942E+03 -3.08884E+03  3.12418E+01 -2.51208E+03  1.11691E+02
 -1.47832E+03 -2.17931E+03  2.65793E+03 -5.68430E+02 -1.25194E+03 -2.82644E+03 -1.87226E+03 -4.30581E+03
  2.13372E+03 -3.55378E+03  1.36337E+02  6.28226E+03  1.75328E+03 -7.42159E+02 -3.05126E+03 -1.06982E+03
  1.90921E+03 -2.09501E+03 -2.34378E+03 -9.98121E+02 -4.50111E+03 -4.63125E+02  2.42047E+03  9.60616E+02
  4.71379E+02 -1.23775E+03 -1.29731E+03 -7.23030E+02 -8.14525E+02  1.28023E+03 -3.90927E+03  2.80885E+03
  2.66003E+02 -1.14648E+03 -1.93103E+03  1.74313E+03 -2.53773E+03 -2.66910E+03  1.43309E+03 -1.90924E+03
 -3.25555E+03 -3.32057E+03 -5.59655E+02  4.38253E+02  2.91558E+03  2.58587E+03 -9.25172E+02 -2.58032E+03
 -3.26826E+03  3.27596E+03 -1.09943E+02  5.99491E+02  9.71210E+02 -4.88620E+03 -2.04220E+03  4.20441E+03
 -1.89229E+03  2.53304E+02 -2.37292E+03  2.32549E+03 -3.18407E+03 -1.00326E+03 -1.53678E+03  9.03440E+02
  3.24358E+03 -1.40188E+03 -8.81190E+02 -6.08630E+03  3.09674E+03  2.34394E+03  3.65956E+03 -3.16174E+03
  3.40307E+03 -2.48483E+03  2.41022E+03 -3.43073E+03  1.28387E+03  6.71388E+02 -2.01837E+03  1.74020E+03
  2.88993E+03 -8.64324E+02 -2.72070E+03 -1.64321E+03  2.99453E+03  1.24267E+03 -6.32398E+03  2.89305E+03
 -2.07776E+03  3.61831E+02 -1.68168E+03 -1.83218E+03 -3.59281E+02  5.02293E+03  9.23659E+02 -1.08039E+03
 -4.29188E+02 -8.47890E+02  7.81129E+02  3.27804E+03 -1.40893E+03  6.05935E+02  1.69781E+03  2.37742E+03
 -4.12654E+02  2.51847E+03  2.98793E+03  4.62986E+03 -1.57792E+03 -8.22569E+02 -2.04135E+03 -1.08712E+03
 -6.21341E+03 -7.04851E+02 -4.41693E+02 -2.53782E+03  3.59934E+03  9.37808E+02  1.69148E+02  3.45147E+02
  1.83282E+02  1.39181E+03  3.13831E+03  2.37038E+03 -8.64584E+02 -1.44049E+03  3.03371E+02 -3.46388E+03
 -3.09440E+03  1.55138E+03  7.17193E+02 -1.25062E+03  2.97610E+02 -2.42039E+03  1.17477E+01  1.06132E+02
  1.53486E+03  6.98308E+03 -2.41396E+03  2.71938E+03 -2.55799E+03 -1.54966E+03  1.13940E+02 -1.69141E+03
 -3.98360E+03 -1.41708E+03  1.43596E+03  1.11734E+03 -2.92404E+02 -2.28108E+02  3.00035E+03 -3.21292E+03
  1.40014E+03  2.17965E+03 -5.55205E+02 -1.78915E+03 -1.79271E+03 -1.03429E+03  8.45550E+02 -2.07444E+03
  2.45488E+03  2.94407E+03  1.30945E+03  1.11818E+03 -2.35566E+03  1.82732E+03  2.61115E+02  2.17355E+03
 -2.24713E+03  1.00892E+03  1.90677E+03 -1.18716E+03  2.21016E+03  1.19216E+03  6.66619E+02  1.72245E+03
 -4.78660E+01 -8.75067E+02 -1.00160E+03 -1.71093E+03 -1.78145E+03 -3.59160E+02  4.03556E+02 -1.40771E+03
