 $NMID ID='MM_0lb_SNR50_17hz_g50_56.RAW', FMTDAT='(8E13.5)'
 TRAMP=1., VOLUME=1. $END
  3.11044E+05 -4.48101E+02  3.40388E+05  2.49752E+05  8.65645E+04  3.36778E+05 -1.34305E+05  2.46805E+05
 -1.89429E+05  8.51466E+04 -1.10050E+05 -3.17846E+04 -8.61780E+02 -4.90327E+04  4.79596E+04  1.70335E+03
  3.35386E+04  5.27244E+04 -1.46624E+04  7.45346E+04 -5.76327E+04  6.25961E+04 -8.30338E+04  3.36350E+04
 -8.06365E+04 -1.13476E+04 -5.16402E+04 -4.57849E+04 -1.42528E+04 -7.04066E+04  2.52547E+04 -3.95345E+04
  4.37009E+04  3.25139E+03  1.58550E+04  4.80783E+04 -3.01976E+04  4.81136E+04 -6.33055E+04 -5.80112E+03
 -5.33328E+04 -5.59058E+04 -4.10506E+03 -7.26871E+04  3.48999E+04 -5.61582E+04  4.59621E+04 -1.44835E+04
  4.57938E+04  1.20283E+04  2.94205E+04  2.99845E+04  1.84023E+04  3.03628E+04  3.25910E+02  3.06387E+04
 -2.42462E+04  1.69218E+04 -2.16113E+04 -8.98949E+03  4.23857E+03 -7.14214E+03  2.29947E+04  1.18313E+04
  7.86952E+03  2.89446E+04 -3.10602E+04  3.49692E+04 -6.11175E+04  2.21397E+03 -5.97218E+04 -4.10628E+04
 -1.02347E+04 -6.09401E+04  3.67780E+04 -4.38739E+04  5.47459E+04 -5.82715E+03  3.44890E+04  3.05952E+04
 -1.09063E+04  3.05995E+04 -2.91665E+04  1.33965E+04 -3.19192E+04 -4.95218E+03 -1.86596E+04 -9.56335E+03
 -7.51848E+03 -1.13127E+04 -2.24165E+02 -1.60335E+04  3.27189E+03 -1.30168E+04  1.44146E+04 -1.28216E+04
  1.26388E+04  8.06275E+03 -6.67140E+03  1.89275E+04 -2.44151E+04 -1.54658E+03 -9.91433E+03 -3.05716E+04
  2.09376E+04 -4.47390E+04  4.35268E+04 -1.90416E+04  4.44949E+04  1.91364E+04  1.67185E+04  4.30085E+04
 -2.27048E+04  3.31526E+04 -2.27420E+04  7.33269E+02 -7.71158E+03 -2.73121E+04  2.33495E+04 -3.47910E+04
  3.79941E+04 -7.95940E+03  2.92735E+04  2.57558E+04  1.89583E+04  4.32470E+04 -6.59367E+03  4.91819E+04
 -2.68760E+04  3.56780E+04 -4.06001E+04  1.39718E+04 -3.93146E+04 -1.57205E+04 -2.76270E+04 -3.44402E+04
  1.18148E+04 -3.27277E+04  3.13126E+04 -1.10899E+04  2.75615E+04  6.10865E+03  1.73898E+02  2.16480E+04
 -1.12132E+04  7.58262E+03 -1.31144E+04 -7.77215E+03  1.85103E+03 -1.03137E+04  1.90925E+04  6.17960E+03
  9.59507E+03  2.24020E+04 -5.75051E+03  2.33414E+04 -1.97913E+04  1.62102E+04 -3.12989E+04 -7.12740E+03
 -1.70852E+04 -2.12135E+04 -4.15552E+03 -2.00480E+04  1.59455E+03 -2.03591E+04  1.39873E+04 -1.77226E+04
  2.41341E+04 -1.18862E+04  2.86549E+04 -1.04916E+01  1.90960E+04  1.94142E+04  3.85305E+03  3.49765E+04
 -1.20069E+04  2.95819E+04 -2.56038E+04  9.47604E+03 -1.82912E+04 -1.04796E+04 -1.94172E+03 -1.41307E+04
  1.12219E+03 -1.26500E+03 -1.71624E+03  8.39707E+03 -1.64417E+04  3.58075E+03 -1.52033E+04 -4.82884E+03
 -8.16930E+03 -1.82202E+04  1.17869E+04 -2.05745E+04  1.45832E+04 -1.67004E+04  1.51327E+04 -3.77165E+03
  9.20280E+03  1.45867E+04  1.13535E+03  1.24266E+04 -8.73045E+03  1.24440E+04 -1.89710E+04 -4.34480E+03
 -1.26256E+04 -1.03924E+04 -1.14675E+03 -2.15941E+04  7.92178E+03 -1.68811E+04  1.70095E+04 -9.31001E+03
  1.59421E+04 -9.38246E-01  9.81479E+03  5.48082E+03  8.81131E+03  1.58530E+03  1.01849E+04 -4.02119E+03
  1.48997E+04  5.10436E+03  1.49425E+04  1.19007E+04  1.60331E+04  3.24270E+04  1.55478E+03  3.17402E+04
 -1.48570E+04  2.62681E+04 -2.90771E+04  1.30437E+04 -2.61145E+04 -2.83823E+03 -1.94662E+04 -1.62654E+04
 -8.67701E+03 -2.43297E+04  7.30522E+03 -2.24285E+04  1.99604E+04 -1.01431E+04  1.53808E+04  2.98816E+03
  7.07909E+03  1.48547E+04 -7.26416E+03  1.28475E+04 -1.03059E+04 -2.46335E+03 -7.62138E+03 -8.29180E+03
  9.52436E+02 -1.38427E+04  3.25967E+03 -6.48670E+03  9.00696E+03 -4.41142E+03 -2.43096E+03  5.28019E+03
 -6.35092E+03  2.68059E+03 -5.39027E+03 -4.65387E+03 -1.35276E+03 -1.04280E+04  1.29119E+04 -1.36226E+04
  1.12352E+04 -8.42308E+03  1.53430E+04  4.01543E+03  1.21329E+04  9.90467E+03  5.06232E+03  1.45848E+04
 -1.85096E+03  2.25687E+04 -1.30069E+04  1.06688E+04 -1.29115E+04  4.53786E+03 -9.92748E+03 -2.27181E+03
 -5.55241E+03 -1.52243E+03  2.94707E+03  4.25250E+03 -2.46928E+03  7.46165E+03 -3.51908E+03  6.69190E+03
 -1.02137E+04  2.03527E+01 -1.07950E+04 -7.36683E+03 -2.06836E+03 -7.71560E+03  6.51234E+03 -7.97428E+03
  6.16140E+03 -5.33226E+03  7.92053E+03  3.03333E+03 -1.31864E+03  7.83919E+03 -7.14527E+03 -1.47500E+03
 -1.30118E+03 -7.19733E+03 -3.06597E+03 -7.97542E+03  4.68314E+03 -6.45390E+03  1.33907E+04 -2.49660E+03
  1.25024E+04  8.54144E+02  6.13706E+03  6.94303E+03  1.46960E+03  7.02397E+03 -4.38370E+03  1.16201E+04
 -7.21549E+03  6.29918E+03 -8.49318E+03 -1.05649E+03  2.05264E+03 -4.90952E+03  3.67980E+03  1.52000E+03
  1.86677E+03  4.43483E+03 -9.61698E+02  7.76712E+03 -7.45635E+03  6.90188E+03 -5.52165E+03  3.93945E+03
 -4.50667E+03 -2.07058E+03 -1.36505E+03 -8.56033E+03  4.49480E+03 -5.35019E+03  7.43133E+03  3.38529E+03
  2.34213E+03  3.47561E+03 -9.57823E+03  6.65174E+03 -5.55531E+03  9.29684E+02 -4.79580E+03 -1.69985E+02
 -4.17776E+03 -5.74185E+03  2.36966E+03 -3.64761E+03  1.07301E+04 -3.83913E+03  1.01959E+04  1.02832E+03
  3.66020E+03  8.55001E+03 -2.18616E+03  9.37227E+03 -4.28501E+03  3.89910E+03 -7.47187E+03 -3.16078E+02
 -5.70598E+03 -3.23117E+03 -3.77039E+02 -3.60161E+03 -3.03687E+03 -3.74254E+03  2.62454E+03 -2.58599E+02
  4.32213E+03 -4.66737E+03  1.25742E+03  1.51721E+02  1.16013E+03  1.23038E+03  1.84144E+03  1.29427E+03
  8.32977E+03 -7.11560E+02  7.74963E+03 -2.27260E+03  4.80307E+03  4.80179E+03  1.05194E+04  9.71073E+03
 -9.19785E+02  9.59957E+03 -1.42799E+04  5.86995E+03 -1.04219E+04  2.36419E+03 -8.42608E+03 -6.38271E+03
 -8.63267E+03 -7.41834E+03  9.20554E+02 -6.09945E+03  4.89565E+02 -4.35214E+01  1.73661E+03 -3.33050E+03
  8.16969E+03  2.94219E+02 -1.22397E+03 -2.17353E+03  2.65668E+03 -5.34314E+02  3.44364E+03  6.75853E+03
  4.68792E+03  4.80091E+03  7.56562E+02  5.87780E+03 -2.84865E+03  2.01047E+03 -5.51243E+03  4.39294E+03
 -7.58894E+03 -1.51607E+03 -3.77529E+03 -4.70110E+03  3.72790E+03 -1.35792E+03  9.41498E+03 -1.68868E+03
  7.79442E+03 -4.92994E+02  7.03367E+03  2.21532E+03  7.47517E+03  5.24687E+03  3.86755E+03  6.98043E+03
 -7.70114E+02  5.65928E+03 -2.71493E+03  9.81533E+02 -5.01496E+03  1.57548E+02  3.87705E+03  3.46687E+03
 -4.86731E+02 -2.93013E+03 -1.50952E+03  4.01102E+02 -3.95668E+03  2.42703E+03 -7.15291E+03  2.43428E+03
 -2.08263E+03 -2.30206E+03  5.80649E+03 -4.48508E+03  5.01726E+03 -7.15441E+03  3.65458E+03 -7.70616E+03
  6.17521E+03  2.36025E+03  1.64684E+03  5.52728E+03  6.07345E+02  8.43087E+03 -1.24199E+03  4.34243E+03
 -4.20857E+03 -2.69515E+03 -2.68800E+03 -3.81268E+03  2.22308E+03 -5.16873E+03  2.35498E+03 -2.63341E+03
  3.03660E+03 -1.29396E+03  4.27114E+03  1.74360E+03  1.75251E+03  1.41977E+03  1.24948E+03  2.00146E+03
  1.91016E+02  4.00644E+03  1.40038E+02  1.35889E+02  2.48551E+03  6.13529E+03  3.78961E+03  5.29478E+02
  3.72407E+03  2.37471E+03 -2.54772E+03  7.04814E+02  3.23001E+01  3.65015E+03 -4.82771E+03 -3.99114E+02
 -5.49995E+03 -3.13699E+03 -2.16125E+02 -3.61462E+03  2.49784E+02 -1.37288E+03  4.52217E+03 -4.94273E+03
  1.58660E+03  1.56444E+03  7.54399E+01  3.66167E+03 -3.16076E+03  2.84539E+03 -4.54456E+02 -2.32192E+03
 -2.56112E+03 -9.51700E+02  1.47074E+03 -3.24513E+03  5.68864E+03  2.60116E+03  5.71430E+03 -8.15010E+02
 -1.36376E+03  4.80471E+03 -2.08622E+03  2.09520E+03 -1.96787E+03  1.82637E+02  1.90457E+03  5.61774E+02
 -2.60416E+03 -2.97923E+02  1.41654E+03  3.75896E+03 -3.65286E+03  2.83338E+03  5.16959E+03  4.25638E+03
 -2.25648E+03  2.11902E+03 -1.80334E+03  2.16496E+03 -5.53002E+02 -4.61715E+03 -2.90284E+03 -4.60067E+03
 -1.73093E+03 -4.38788E+03  2.25742E+02 -6.70234E+03  2.29032E+03  4.53137E+03 -3.21832E+03 -2.65812E+02
 -2.31860E+03  1.27603E+03 -5.09094E+02 -4.75921E+03 -4.09045E+02  2.98829E+02  2.07158E+03 -2.61532E+03
 -1.65891E+03 -1.90426E+03  2.05213E+03 -6.44419E+02 -2.96231E+03 -1.53507E+03  1.53004E+02  3.53995E+03
 -2.15972E+03  3.60252E+02 -4.02549E+03  2.30222E+03 -1.46708E+03  1.89081E+03  4.07034E+03 -3.76091E+02
  1.11900E+03 -1.90718E+03  4.91556E+03  5.16387E+03  1.67370E+03  1.20676E+03 -5.41793E+00  2.74622E+03
  1.55790E+03  1.04197E+03 -2.94093E+03  2.01919E+03 -5.29594E+02 -9.16661E+02 -3.67067E+02  1.63181E+03
 -1.94389E+03  2.04644E+03  1.46166E+02  5.83796E+03  2.01130E+03 -2.57357E+03 -7.07660E+02  5.67923E+03
 -8.71265E+02  3.46921E+02 -2.64601E+03 -4.19491E+02  6.16472E+02  3.50014E+03  1.19040E+02  2.91929E+03
  3.34860E+02  6.19687E+03 -1.93516E+03  3.42474E+03 -2.30397E+02 -2.36513E+02 -4.06267E+03 -5.72041E+03
 -3.26946E+02 -7.65661E+03 -1.71003E+02 -5.08019E+03  2.41315E+03 -5.69968E+03  6.31910E+03 -3.23432E+03
  5.25554E+03 -4.34029E+02  5.01025E+03  6.07595E+03  1.00196E+03  2.46342E+02 -7.33019E+03  2.58122E+03
 -8.34388E+03 -1.02222E+03 -1.66892E+03  1.20923E+03  3.92648E+03  7.05484E+02  1.10105E+03  5.29183E+02
 -3.16019E+03 -2.90961E+03  6.25617E+02  2.17800E+02  3.21995E+03  3.21806E+01 -2.30686E+03 -9.73981E+02
  7.36231E+02 -9.15132E+01 -2.69981E+03  4.53117E+02  3.26467E+03  1.58826E+03  5.17793E+03  4.38165E+03
 -4.14555E+02  4.29629E+03 -4.08973E+03  5.84833E+03 -4.23906E+03  1.19832E+03 -4.49894E+03 -2.26887E+03
 -2.41277E+03  2.67945E+03 -2.92586E+03 -2.44161E+03 -4.18293E+02 -2.12795E+03  9.32797E+02  1.69663E+03
  1.14443E+03 -6.65756E+02  1.20537E+03  1.66555E+03  6.83508E+02  4.05407E+03 -6.76064E+03 -4.31065E+03
  5.68226E+02  5.31329E+01 -3.44409E+02  3.39670E+02 -3.82883E+03  3.91023E+03 -1.67514E+03  6.70803E+02
 -1.48762E+02 -3.36947E+02 -3.76333E+03  2.02725E+03 -1.88740E+03 -1.11486E+03 -5.06531E+02 -6.05768E+03
  3.85897E+03 -2.37739E+03 -9.27191E+02  3.46647E+03  3.76676E+03  1.13617E+03 -1.13265E+03  2.02068E+03
 -3.76134E+02  4.89176E+03 -3.17313E+03  2.41840E+03 -2.63205E+03  2.49757E+03  4.33312E+03  3.76319E+02
  7.67600E+01 -1.74795E+03 -1.02504E+03  5.33947E+02 -3.47919E+03  1.74537E+03 -3.08112E+03 -2.02468E+03
  1.12543E+02  3.22828E+02 -1.53577E+03 -3.86217E+03  2.06296E+02  2.30315E+03  1.54131E+03 -2.63593E+03
  2.49440E+03 -9.72206E+02 -2.94292E+03  2.29859E+03 -4.73404E+03  9.75124E+02  1.80395E+03  4.16084E+03
