 $NMID ID='MM_0lb_SNR50_19hz_g45_76.RAW', FMTDAT='(8E13.5)'
 TRAMP=1., VOLUME=1. $END
  3.11033E+05 -2.80467E+02  3.35451E+05  2.50301E+05  8.26468E+04  3.36007E+05 -1.33137E+05  2.50441E+05
 -1.86920E+05  8.62408E+04 -1.08359E+05 -3.58289E+04  2.24867E+03 -5.19689E+04  5.34458E+04  1.27973E+03
  3.27190E+04  5.57410E+04 -1.77889E+04  7.45546E+04 -5.82811E+04  6.23727E+04 -7.80627E+04  3.28254E+04
 -8.15294E+04 -1.14750E+04 -5.72554E+04 -4.83137E+04 -1.60311E+04 -6.80254E+04  2.90078E+04 -4.49274E+04
  3.76386E+04  1.13046E+03  1.75036E+04  4.70531E+04 -3.18431E+04  4.64301E+04 -6.73726E+04 -1.20732E+03
 -5.33240E+04 -5.71648E+04 -5.21478E+03 -7.16404E+04  3.11550E+04 -5.18263E+04  4.46896E+04 -1.87515E+04
  3.69254E+04  1.24587E+04  2.97202E+04  2.23127E+04  1.74364E+04  2.80467E+04 -8.50818E+03  2.66452E+04
 -1.98073E+04  1.54522E+04 -2.12058E+04 -3.16971E+03  4.99319E+03 -7.37009E+03  2.03264E+04  1.07564E+04
  8.15701E+03  3.30941E+04 -2.80031E+04  3.65620E+04 -6.29673E+04  3.84846E+00 -5.47850E+04 -4.10878E+04
 -1.39643E+04 -5.99193E+04  3.49010E+04 -4.18949E+04  5.39131E+04  5.55699E+02  3.13433E+04  3.03950E+04
 -3.82060E+03  2.98235E+04 -2.64135E+04  1.19119E+04 -2.64448E+04 -8.56460E+03 -1.45550E+04 -1.43394E+04
 -1.58511E+03 -1.49942E+04  2.25381E+03 -1.70590E+04  7.34946E+03 -2.29201E+04  1.32270E+04 -1.82843E+04
  1.22176E+04  1.04158E+03 -5.32010E+03  1.44021E+04 -1.94793E+04 -7.61311E+03 -5.26730E+03 -3.23799E+04
  1.96361E+04 -4.02527E+04  4.74220E+04 -2.27467E+04  4.20180E+04  1.75375E+04  1.08483E+04  4.08627E+04
 -7.57195E+03  3.35344E+04 -2.17623E+04  2.65254E+03 -1.01232E+04 -2.75246E+04  2.16926E+04 -3.26818E+04
  3.85657E+04 -9.48485E+03  3.21420E+04  1.99588E+04  1.33149E+04  4.44150E+04 -6.14785E+03  4.50626E+04
 -3.05888E+04  2.56436E+04 -3.82151E+04  1.38755E+04 -3.89208E+04 -1.63383E+04 -2.25734E+04 -3.44603E+04
  8.24614E+03 -3.62961E+04  3.00096E+04 -8.05006E+03  2.59401E+04  8.40998E+03  1.00221E+03  1.80677E+04
 -1.59973E+04  5.56992E+03 -1.19868E+04 -9.10404E+03  9.96189E+03 -1.15086E+04  1.71520E+04  5.58094E+02
  1.29803E+04  2.43393E+04 -9.50202E+03  2.23019E+04 -2.06518E+04  8.99224E+03 -2.45383E+04 -9.94888E+03
 -1.29384E+04 -1.93716E+04 -3.99310E+03 -1.54508E+04  2.93829E+03 -1.55261E+04  8.69815E+03 -1.42513E+04
  2.47916E+04 -1.38761E+04  2.75876E+04 -1.97463E+03  1.88996E+04  1.44250E+04  3.67792E+03  3.53502E+04
 -1.32180E+04  2.55798E+04 -2.79588E+04  6.72609E+03 -2.02261E+04 -1.40435E+04 -5.18957E+03 -1.52817E+04
  1.82401E+02 -4.92719E+03 -2.52916E+03  5.86737E+03 -1.39590E+04  5.21929E+03 -1.21260E+04 -1.92822E+03
 -3.21683E+03 -1.72115E+04  7.63003E+03 -1.65854E+04  1.28898E+04 -1.90649E+04  1.98223E+04 -4.20497E+03
  5.00354E+03  1.08008E+04 -2.94408E+03  1.34769E+04 -6.26868E+03  6.16936E+03 -1.77082E+04 -1.36136E+03
 -1.44778E+04 -1.40229E+04 -8.30508E+02 -1.99067E+04  1.23550E+04 -1.72801E+04  1.41749E+04 -9.42260E+03
  1.31097E+04  2.30812E+03  1.18162E+04  5.83965E+03  2.56741E+03 -1.07160E+03  5.32852E+03 -2.63991E+02
  1.35500E+04  3.85971E+03  1.47124E+04  1.58935E+04  1.30030E+04  2.29064E+04 -2.94253E+03  2.75549E+04
 -1.38456E+04  1.91991E+04 -2.71211E+04  8.35230E+03 -2.41094E+04  1.68128E+02 -1.74440E+04 -1.20096E+04
 -1.20320E+04 -2.09631E+04  8.09776E+03 -1.84900E+04  1.58460E+04 -1.29068E+04  1.33556E+04  7.02592E+03
  6.23711E+03  6.43262E+03 -4.68414E+03  1.05785E+04 -1.02486E+04 -1.25301E+02 -1.14310E+04 -1.18244E+04
  1.53034E+03 -1.37910E+04  2.91735E+03 -8.87324E+03  9.33974E+03 -2.16046E+03  2.91917E+03  6.19461E+03
 -6.95412E+03 -3.97580E+03 -5.71606E+03 -4.85162E+03  5.01791E+02 -1.04639E+04  8.33656E+03 -1.02251E+04
  1.06804E+04 -1.10261E+03  9.95573E+03  4.10043E+03  1.05877E+04  8.55709E+03  1.57017E+03  7.69446E+03
  4.69990E+02  1.45483E+04 -1.07806E+04  1.29646E+04 -1.16063E+04  1.47363E+03 -7.46315E+03 -3.13214E+03
 -4.95334E+03 -1.24246E+03  1.08247E+02  1.33420E+03 -5.65217E+03 -2.07430E+03 -2.10534E+03  6.09708E+03
 -6.73066E+03 -7.79342E+01 -8.11653E+03 -6.76425E+03 -1.58268E+03 -1.39224E+04 -4.05226E+02 -1.10643E+04
  2.36500E+03 -1.29633E+03  6.56373E+03  3.81378E+03 -3.87042E+03  4.69482E+03 -2.92444E+03 -4.07879E+02
 -5.49887E+03 -3.60266E+03  4.09686E+02 -8.91829E+03  4.95828E+03 -8.27604E+03  5.99846E+03 -7.14902E+03
  8.66224E+03 -6.49399E+02  5.81965E+03  5.50108E+03  2.35596E+03  7.42803E+03 -9.80650E+03  7.86518E+03
 -4.94758E+03  5.12372E+03 -5.28498E+03 -3.42511E+02  1.20744E+03 -2.10946E+03  2.27907E+03 -3.88759E+03
  4.95896E+03  7.16530E+03  2.11982E+03  8.55027E+03 -1.35072E+03  6.21142E+03 -9.77313E+03  1.66025E+03
 -4.16925E+03 -6.88775E+03 -5.77920E+01 -2.96579E+03  2.37892E+03 -3.86983E+03  4.19188E+03 -5.62215E+02
 -1.60326E+03  5.30373E+03 -6.83522E+03  5.54291E+03 -2.62557E+03 -1.40597E+03 -2.95942E+03 -1.62429E+03
 -2.42972E+03 -4.28714E+03  2.75820E+03 -3.93802E+03  6.30164E+03 -1.21057E+03  3.86627E+03  3.64195E+03
  3.82198E+03  3.66300E+03 -2.58675E+03  9.60448E+03 -4.31958E+03  4.89358E+03 -6.96544E+03  2.49943E+02
 -3.54587E+03 -7.03960E+03  1.26560E+03 -6.21968E+03  1.79580E+03 -6.23385E+03  8.28854E+02 -7.35296E+03
  3.68043E+03 -9.77311E+02 -6.50837E+02 -4.86582E+02  2.65951E+03 -1.04866E+03 -1.72915E+03 -6.23738E+02
  6.26095E+02 -1.68152E+02  4.03642E+03  6.31652E+03  5.54638E+03 -5.34343E+02  1.00254E+04  7.14253E+03
 -3.12992E+03  6.40668E+03 -4.52230E+03  3.74391E+03 -7.54189E+03  2.52878E+03 -5.31122E+03 -2.46147E+03
 -5.18923E+03 -6.70263E+03  1.85690E+03 -4.53002E+03  2.27270E+03 -7.32521E+02  4.00213E+03 -3.64886E+03
  9.14072E+02  6.43737E+02 -6.77040E+02 -2.63952E+03 -1.90224E+03  1.08760E+03 -1.47581E+03 -3.84919E+02
  3.42369E+03  3.93491E+03  6.90185E+02  2.14524E+03  9.80966E+02  1.59820E+03 -4.11403E+03  2.28533E+03
 -2.28188E+03  8.64028E+02 -1.44990E+02  5.71085E+02 -4.25963E+02 -2.14696E+03  6.28873E+03 -1.22561E+04
  2.57462E+03 -1.36952E+03  5.98596E+03  3.26536E+03  5.08794E+03  2.74496E+03  5.68390E+03  4.46048E+03
  9.42941E+02 -1.35562E+03 -6.73604E+03 -4.53719E+02  2.86126E+02 -2.07078E+02 -4.99920E+03  1.71196E+03
  1.71407E+03 -1.61881E+03 -3.02387E+03  1.80061E+03 -4.56160E+03  6.17984E+02 -7.58876E+03  1.42795E+03
 -3.20408E+03 -5.89134E+03 -2.13648E+03 -4.85943E+03  1.42465E+03 -3.17089E+03  5.34026E+03 -1.79123E+02
  2.44077E+03  3.27311E+03  4.60292E+03  4.37059E+03 -2.46410E+03  6.96860E+03 -2.53512E+03 -7.88013E+02
  4.08127E+03  4.09894E+03 -1.09528E+03  1.96373E+03 -3.88994E+02 -5.67438E+03 -2.17204E+03 -4.03374E+03
  6.61296E+02 -2.93686E+03  1.08930E+03 -2.74820E+03 -9.69843E+02 -1.82814E+03  4.80858E+03  3.20925E+03
  3.42212E+03  1.14690E+03  1.39318E+03 -1.68472E+03 -3.21938E+03 -4.85595E+03  2.08934E+03 -2.00928E+03
 -1.97297E+03  3.39552E+03 -5.84598E+03  4.43934E+03 -3.56275E+03  3.92843E+03 -2.12697E+03  1.01821E+03
 -3.66894E+03 -4.12119E+03 -2.95080E+02 -9.16711E+03 -1.40754E+02 -2.78140E+03  4.40950E+03 -5.70252E+03
  4.49406E+03  1.33759E+03  3.61644E+03  7.21514E+02  5.90207E+03  1.91982E+03 -3.36590E+03  2.89572E+03
  1.87488E+02  3.30176E+03  1.19020E+03 -2.47859E+01  1.65422E+03 -5.95977E+03  1.50448E+03  3.84928E+03
  2.17665E+02  2.31535E+03 -5.22523E+02  1.84067E+03 -2.37929E+02 -2.52905E+03  8.35972E+02  1.29651E+02
 -2.70629E+03  3.35030E+03  6.74336E+01 -3.05723E+03 -1.37498E+03  1.79441E+03 -2.53796E+02 -2.22874E+02
 -4.01474E+03  1.07537E+03 -7.76389E+02 -7.87489E+02 -1.77602E+03 -7.03681E+02  2.32451E+03 -1.64752E+03
 -6.77542E+03 -1.16764E+03  8.99743E+02 -5.11310E+02  6.10180E+02  3.70536E+03 -1.49543E+02 -1.06519E+03
 -1.51157E+03 -4.82785E+02 -2.56184E+01 -1.64958E+03  2.07845E+03 -2.80650E+03  3.33517E+03 -2.95188E+03
  1.09825E+03  5.27948E+02 -4.89238E+02 -1.15712E+03  3.41598E+03  3.19696E+03 -6.72851E+02  2.86166E+02
  2.82474E+03  6.71770E+02 -4.31615E+03 -1.87893E+03 -3.40141E+03 -4.64219E+03  2.01385E+03 -1.39741E+03
  1.91613E+03 -4.51928E+02  3.97911E+03 -1.10159E+00  3.23652E+03 -4.30918E+02 -2.26253E+02  2.05509E+03
  2.07816E+03  1.51111E+03  2.30497E+03  2.16605E+03 -1.72663E+03  2.82450E+03 -1.28026E+03 -4.35009E+03
 -1.07129E+03  1.47410E+03  1.62791E+03 -2.95018E+03 -1.43738E+03  2.92113E+02 -1.59275E+03  2.05775E+03
 -3.86118E+03 -4.96778E+02 -1.60439E+03  9.36915E+02  1.01441E+03  5.01625E+02 -2.84677E+03  1.29069E+02
 -1.63247E+03  5.66202E+02 -4.49484E+03 -1.70635E+02 -1.04090E+03  3.97698E+03 -2.67837E+03  8.67066E+02
 -1.84607E+03 -2.11240E+03  1.17515E+03 -3.44052E+03  4.20518E+02  2.68911E+02  4.88868E+03  1.70059E+02
  1.09279E+03  1.33164E+03  7.67465E+02  8.94499E+02 -1.56196E+03 -3.34998E+03  1.33484E+03  1.26426E+03
 -2.17363E+03 -1.11180E+03 -6.20304E+03  6.84870E+02  5.00741E+03  1.38672E+03  2.11750E+03 -7.68714E+02
  6.74947E+02 -3.51116E+03  2.91987E+03  3.42816E+03 -3.04427E+03 -1.90344E+01 -2.55955E+03  1.32446E+03
  1.04128E+03  8.83863E+02 -2.70754E+02  1.26778E+03  3.67237E+03  6.42994E+03  1.46214E+03  1.64384E+02
 -3.27117E+03  9.25785E+02 -3.70068E+03 -1.34927E+03 -2.01320E+03 -1.80932E+03 -6.93535E+03  3.02566E+03
 -3.38151E+03  8.45158E+02 -7.92693E+01 -1.75722E+03  1.54933E+03  1.14590E+03  5.86962E+02 -7.69168E+02
  2.57779E+03 -8.46501E+02 -7.50741E+01 -1.97654E+03 -3.25229E+03 -3.60544E+03  1.67723E+03  1.93913E+03
  1.38877E+03  2.23243E+03 -4.59421E+03  8.13887E+02 -5.73206E+02  1.69797E+03  1.26216E+03  3.15973E+03
 -3.76352E+03 -4.08681E+03 -2.93692E+02  2.89992E+02 -1.19893E+03  1.88765E+03 -2.11939E+03  1.01266E+03
  3.04040E+03 -1.38683E+03 -1.37509E+03 -2.87743E+03  1.93272E+03  5.09043E+03 -2.01243E+02  1.37880E+03
  8.34900E+02  4.09316E+02 -1.88244E+03  3.24901E+03 -3.47054E+03 -1.21367E+03 -7.91878E+03  1.48822E+03
  1.82725E+03  1.40685E+03  1.15753E+03 -2.35804E+02 -4.17232E+03  7.61824E+02 -3.21055E+03 -4.65218E+03
 -1.71497E+03 -2.30491E+03 -3.47092E+03  8.12882E+02 -5.21030E+03  2.93652E+03  5.56490E+03 -1.84801E+03
  3.08686E+03 -3.16301E+03 -1.16228E+03 -2.60037E+03 -4.98156E+03 -2.63088E+03 -3.62400E+03  4.21631E+03
