 $NMID ID='MM_0lb_SNR50_12hz_g50_95.RAW', FMTDAT='(8E13.5)'
 TRAMP=1., VOLUME=1. $END
  3.09873E+05  6.47890E+03  3.38583E+05  2.53369E+05  8.35520E+04  3.37733E+05 -1.37436E+05  2.56799E+05
 -1.90219E+05  8.23142E+04 -1.09218E+05 -3.02454E+04 -3.61385E+03 -5.41913E+04  5.28030E+04 -4.29561E+03
  3.48192E+04  5.54131E+04 -1.69561E+04  7.46529E+04 -5.34641E+04  6.38471E+04 -8.54957E+04  3.24818E+04
 -8.58821E+04 -1.11381E+04 -5.54795E+04 -4.83317E+04 -1.76899E+04 -7.40763E+04  2.83242E+04 -5.21772E+04
  3.95950E+04  5.43486E+03  1.87984E+04  5.15200E+04 -3.34707E+04  4.70082E+04 -6.73685E+04  2.77854E+03
 -5.59684E+04 -5.73737E+04 -4.70700E+03 -8.08805E+04  2.90406E+04 -5.66298E+04  4.91633E+04 -1.99340E+04
  4.10685E+04  1.27960E+04  3.12974E+04  3.10682E+04  1.22873E+04  2.87304E+04 -8.26890E+03  2.79369E+04
 -2.00214E+04  1.34566E+04 -2.06292E+04 -1.07955E+04  3.65958E+03 -1.00995E+04  2.31138E+04  1.63033E+04
  8.96857E+03  3.56552E+04 -3.06831E+04  3.75467E+04 -6.69862E+04 -1.76039E+03 -5.81208E+04 -4.39777E+04
 -1.14598E+04 -5.88767E+04  4.14088E+04 -4.96236E+04  5.80293E+04  4.81189E+02  3.46550E+04  3.22273E+04
 -7.16573E+02  3.57622E+04 -2.92120E+04  1.90055E+04 -3.19860E+04 -1.92771E+03 -1.23212E+04 -9.98979E+03
 -8.30112E+03 -1.13724E+04  1.81969E+03 -1.92761E+04  4.85990E+03 -2.45283E+04  1.11654E+04 -1.31791E+04
  1.30510E+04  7.10971E+03 -1.10423E+04  1.17782E+04 -2.04384E+04 -4.69461E+03 -6.75024E+03 -3.91420E+04
  2.17280E+04 -4.48441E+04  5.20468E+04 -1.84274E+04  4.42785E+04  1.91994E+04  2.20908E+04  4.11037E+04
 -1.11650E+04  3.20589E+04 -2.34393E+04 -1.58191E+02 -8.18080E+03 -3.04219E+04  2.08923E+04 -3.37430E+04
  4.30686E+04 -7.81749E+03  4.01628E+04  2.50176E+04  1.73412E+04  5.44195E+04 -6.95241E+03  5.45446E+04
 -2.97929E+04  3.45533E+04 -4.38525E+04  1.04785E+04 -4.21622E+04 -1.88627E+04 -2.29172E+04 -3.68499E+04
  3.90758E+03 -4.41367E+04  2.85958E+04 -1.22480E+04  2.70484E+04  1.34293E+04  7.81865E+02  1.79616E+04
 -1.63876E+04  1.57902E+04 -1.16411E+04 -4.19443E+03  1.07382E+04 -1.14570E+04  1.82954E+04  6.72145E+03
  1.79488E+04  2.09797E+04 -6.66173E+03  2.52701E+04 -2.33791E+04  1.33799E+04 -2.93858E+04 -1.08770E+03
 -2.38251E+04 -2.30173E+04 -8.17810E+03 -2.52899E+04  6.78614E+02 -2.10972E+04  2.06685E+04 -1.59847E+04
  3.16409E+04 -9.97675E+03  3.32407E+04  3.19710E+03  2.30612E+04  1.85648E+04  7.78289E+03  3.61572E+04
 -2.21495E+04  3.30972E+04 -2.76489E+04  1.57554E+04 -2.33145E+04 -5.07951E+03 -4.94409E+03 -9.07381E+03
  3.36047E+03  4.08178E+03 -5.60249E+03  6.14002E+03 -2.02617E+04  8.25555E+03 -1.35512E+04 -1.30894E+04
 -1.05618E+04 -2.23983E+04  1.19705E+04 -2.55315E+04  1.77334E+04 -1.52942E+04  2.04515E+04 -3.59968E+03
  1.25733E+04  1.76889E+04  3.44298E+03  1.60970E+04 -1.53657E+04  9.67382E+03 -1.88547E+04 -3.36897E+03
 -8.28373E+03 -1.92542E+04  1.89442E+02 -2.23298E+04  1.44210E+04 -2.38231E+04  1.62189E+04 -1.27358E+04
  1.70832E+04  1.58023E+03  1.72346E+04  1.26360E+03  6.29182E+03 -9.17114E+01  1.20485E+04  1.24436E+03
  1.61545E+04  5.35081E+03  2.10342E+04  1.71670E+04  1.91373E+04  3.11747E+04 -4.89515E+03  3.85923E+04
 -1.97953E+04  3.05338E+04 -3.27852E+04  1.54809E+04 -4.11828E+04 -3.97669E+03 -2.48115E+04 -2.58212E+04
 -1.51509E+04 -2.89208E+04  9.56536E+03 -2.88394E+04  2.67920E+04 -1.20417E+04  2.05140E+04  5.78904E+03
  1.15766E+04  1.60855E+04 -1.08844E+04  1.32985E+04 -1.61575E+04  7.42048E+03 -1.36446E+04 -1.24717E+04
  5.92088E+03 -7.07217E+03  7.95171E+03 -1.45971E+04  1.03816E+04 -3.65188E+03  1.28322E+03  8.24376E+03
 -3.73705E+03  3.58345E+03 -5.40544E+03 -8.28912E+03 -4.81319E+02 -1.19029E+04  7.95960E+03 -1.62851E+04
  2.37056E+04 -6.71542E+03  2.11886E+04  8.55790E+03  1.61653E+04  1.89297E+04  4.71678E+03  2.54304E+04
 -5.55877E+03  2.84510E+04 -1.25800E+04  2.10343E+04 -2.02130E+04  1.15588E+02 -1.06362E+04 -2.06898E+03
 -5.83279E+03 -2.93326E+03  1.62715E+03 -9.23720E+02 -1.60644E+03  2.88873E+03 -2.69950E+03  7.44110E+02
 -1.57683E+04 -1.29427E+03 -1.14675E+04 -4.76876E+03 -6.57361E+03 -1.79498E+04  2.72730E+02 -1.32445E+04
  1.16735E+04 -5.40157E+03  6.97333E+03  3.34780E+03  6.56539E+03  6.78254E+03 -3.16434E+03  2.06148E+03
 -8.07730E+03 -6.01513E+03 -3.38265E+03 -1.02666E+04  1.30739E+04 -9.46030E+03  1.79715E+04 -9.13044E+03
  2.28527E+04  2.74882E+03  1.17998E+04  9.83990E+03 -2.59378E+03  1.47862E+04 -9.36339E+03  1.12568E+04
 -1.30889E+04  2.19660E+03 -3.48027E+03 -4.33799E+03 -1.07832E+03 -3.38348E+03  7.49244E+03 -2.75846E+02
  3.78003E+03  8.37106E+03  2.64531E+03  1.20619E+04 -9.95560E+03  1.01436E+04 -1.60769E+04  6.74281E+02
 -9.78691E+03 -6.22013E+03  1.56651E+03 -1.44672E+04  5.77796E+03 -8.48642E+03  8.11442E+03  5.16658E+03
  4.39583E+03  9.44909E+03 -8.26566E+03  1.18774E+04 -8.96158E+03  3.23739E+03 -1.15315E+04  1.21560E+03
 -1.08919E+04 -1.37766E+04 -1.06088E+03 -1.53289E+04  1.12869E+04 -6.52372E+03  1.14856E+04  4.39218E+03
  7.59879E+03  1.37222E+04  4.46599E+02  1.53494E+04 -1.06705E+04  6.63717E+03 -8.84829E+03  4.97609E+02
 -7.50449E+03 -6.47498E+03 -4.65006E+02 -1.24319E+04  4.09532E+03 -9.49993E+03  7.18387E+03 -3.34681E+03
  7.05096E+03 -1.56949E+03 -1.73849E+03 -1.58915E+03  8.07832E+02 -5.57375E+03  4.29927E+03  6.38192E+02
  7.71058E+03 -3.85785E+03  1.51739E+04 -2.37283E+03  1.55737E+04  6.88251E+03  8.59123E+03  1.67091E+04
 -1.88481E+03  1.49229E+04 -1.73609E+04  9.42836E+03 -1.67573E+04 -2.21198E+03 -1.54812E+04 -1.21229E+04
 -4.48120E+03 -1.19543E+04 -9.00063E+01 -6.53183E+03 -7.97533E+02  1.13948E+03  4.23626E+03 -4.86424E+03
  3.43586E+03 -1.97563E+03  1.87632E+03 -1.48928E+03  5.04074E+03  4.81786E+02  3.51775E+03  1.01217E+03
  9.64313E+03  3.72259E+03  7.10413E+02  6.48289E+03 -1.91345E+03  3.87577E+03 -5.76427E+03  1.17202E+04
 -4.61221E+03 -4.49944E+02 -6.91046E+03 -5.33275E+03  3.70942E+03 -1.15195E+04  3.63207E+03 -1.07161E+04
  1.25801E+04 -8.73834E+03  1.02781E+04 -2.64359E+03  9.10710E+03  1.36528E+04 -7.68954E+02  1.41257E+04
 -3.46986E+03  1.40208E+04 -2.98187E+03  4.56895E+03 -9.46617E+03 -4.64704E+03  5.54851E+01 -4.37847E+02
 -8.64775E+02 -4.73363E+03 -1.76880E+03  1.89648E+03 -6.50327E+03 -3.62031E+03 -7.90858E+03 -1.55488E+03
 -1.35353E+03 -7.76445E+03  4.94834E+03 -9.05750E+03  6.27266E+03 -1.06816E+04  5.39709E+03 -2.12904E+03
  1.26802E+04  2.64644E+03  4.70056E+03  1.38408E+04 -4.31558E+03  1.22771E+04 -3.44039E+03  4.73495E+03
 -4.66023E+03  3.97101E+03 -5.09598E+03 -9.56476E+03 -1.41808E+03 -1.18913E+04  9.60331E+03 -5.72872E+03
  2.21411E+03 -5.09030E+03  7.77369E+03  8.46147E+02 -7.52984E+02  9.78457E+03  9.20359E+02  6.73736E+03
  2.33666E+03  5.95308E+03  2.18018E+03 -1.05674E+03  5.57021E+03 -3.03291E+02  2.13961E+03  6.55144E+03
 -6.17184E+03  9.94049E+03 -6.21022E+03  5.84987E+03 -1.15261E+04  5.29038E+03 -1.15654E+04 -2.59186E+03
 -3.65193E+03 -1.59294E+04  5.83758E+02 -1.01348E+04  1.21711E+04 -4.56057E+03  1.45242E+04 -4.22455E+03
  9.04654E+03 -4.58105E+02  2.10250E+03  1.01476E+04 -1.19747E+03  5.30160E+03 -3.26881E+02 -7.67851E+02
 -2.31078E+03  2.21926E+03  2.81338E+03 -1.41830E+03  2.49176E+03 -2.66201E+03  5.45019E+03 -1.53299E+03
  7.43752E+02  3.46463E+03 -1.93882E+03 -1.31288E+03 -6.15827E+03  2.64687E+03  5.04807E+03 -1.29478E+03
  1.90143E+03 -1.46118E+03  2.32490E+03 -3.50711E+03  1.45208E+02  6.57861E+03  3.08477E+03  1.20876E+04
 -3.45983E+03  6.85184E+03 -5.04097E+03  2.17999E+03  4.19536E+02 -3.89442E+03 -5.87039E+03 -6.41096E+03
  5.73032E+03 -7.06205E+03  2.06774E+03 -3.58371E+03  3.33494E+03  3.34274E+02 -5.74961E+03  3.01645E+03
 -6.45483E+03  8.38896E+02 -4.65145E+03 -5.91797E+03 -4.68399E+03 -1.07810E+03 -2.17696E+03 -6.66808E+03
  4.14627E+03  2.91126E+02  6.96821E+03 -2.81271E+03  1.52184E+03  5.41630E+02 -1.46556E+03  2.73231E+03
  7.30221E+02 -2.51403E+03 -3.17984E+03 -8.39741E+02  3.59871E+03 -5.07257E+03  4.20281E+03  9.20812E+02
  9.10716E+03  4.10443E+03  5.54901E+03 -1.44272E+03 -6.05801E+02  3.66581E+03 -2.05872E+03  6.14007E+03
 -6.12273E+03  1.86167E+03 -1.21057E+03 -5.42343E+03 -1.39695E+03  1.45536E+03 -1.03886E+03 -2.41109E+03
  7.76469E+03 -5.64663E+03  6.56786E+03 -2.95762E+03  9.87155E+02  2.36050E+03 -2.09775E+03  5.37165E+03
 -5.51199E+03  1.76217E+03 -9.28359E+02  3.61438E+03  4.08469E+03 -4.16617E+02  2.76205E+03  4.38653E+02
 -1.76341E+03  2.93564E+03 -7.20032E+02  5.75644E+03 -1.01871E+04 -8.37908E+02 -6.41394E+03 -5.76077E+03
 -3.13736E+03 -6.82097E+03 -2.78984E+03 -6.48066E+03  8.38642E+03 -8.28209E+03  8.53192E+03  1.15532E+03
  9.19415E+03  3.04579E+03 -2.37130E+03  1.07758E+03  3.48336E+03  7.72699E+03 -2.51736E+03  3.78855E+03
 -5.52406E+03  1.05695E+03  1.87097E+03 -1.66468E+03 -2.48697E+03  5.07903E+02  1.13345E+03  3.99430E+03
 -6.85500E+03  1.85780E+03 -3.94632E+03  2.55275E+03  5.50321E+02 -2.65335E+03  1.33157E+03 -4.27497E+03
  2.18216E+03 -1.92071E+03  6.38454E+02 -2.29464E+03  1.24145E+03 -5.30038E+02 -2.60653E+03  8.57967E+03
 -2.35844E+03  9.61242E+03 -3.54109E+03 -3.49170E+03 -7.19564E+03  2.83498E+03 -1.99787E+03 -1.23945E+03
 -3.60263E+03 -4.26392E+03  9.15865E+02 -5.02852E+03  3.16599E+03 -3.94653E+03  9.07353E+03 -3.53331E+03
  1.18630E+04 -4.45532E+03 -6.07920E+03  3.75294E+03 -9.49348E+03 -6.67713E+03  6.46662E+01  2.99862E+02
 -2.19663E+03 -3.07333E+03  1.62305E+03  1.07509E+03  1.59953E+03  3.37042E+03 -2.60855E+03  5.62714E+03
  4.52948E+02 -1.47851E+03  9.13256E+02 -1.06310E+03  2.23550E+02 -1.59438E+03 -3.82351E+03 -7.96695E+03
  2.38144E+03 -3.44052E+03  8.37660E+03 -5.61175E+03 -1.13111E+01 -1.09479E+03 -1.44459E+03  2.50015E+03
  9.18830E+02  3.84281E+03  1.92628E+03  1.39791E+03 -2.35906E+03  2.69681E+03 -1.02534E+03 -1.89406E+03
  8.08945E+02  1.54234E+03  2.67850E+03  2.12762E+03 -4.89358E+03 -1.21858E+03 -6.81040E+03 -5.26499E+03
  6.85131E+01 -3.70805E+03  2.71766E+03 -1.75662E+03  4.60347E+03 -4.05622E+03  2.40041E+03 -5.95279E+02
  6.84784E+03 -1.77523E+03  3.70263E+03  1.89543E+03 -8.78134E+02  5.91248E+02  8.11858E+02  5.37402E+03
