 $NMID ID='MM_0lb_SNR50_16hz_g45_64.RAW', FMTDAT='(8E13.5)'
 TRAMP=1., VOLUME=1. $END
  3.12213E+05 -1.14450E+02  3.37285E+05  2.50264E+05  8.57970E+04  3.37661E+05 -1.34535E+05  2.46856E+05
 -1.93686E+05  8.12591E+04 -1.07124E+05 -2.97583E+04  5.70885E+02 -4.93524E+04  5.06865E+04 -4.54090E+03
  3.78705E+04  5.14323E+04 -1.52770E+04  7.40996E+04 -5.97694E+04  6.09408E+04 -8.15347E+04  2.72217E+04
 -8.19170E+04 -1.36656E+04 -5.86284E+04 -5.37471E+04 -1.69214E+04 -6.83239E+04  2.69382E+04 -4.77646E+04
  3.70849E+04  3.47719E+03  1.81349E+04  4.58316E+04 -3.26256E+04  5.01447E+04 -6.86527E+04 -2.19903E+03
 -4.98135E+04 -5.49422E+04 -7.62663E+02 -7.93122E+04  2.69045E+04 -5.07269E+04  4.30357E+04 -1.99238E+04
  4.65219E+04  1.41995E+04  3.08271E+04  2.82431E+04  1.61661E+04  2.77241E+04  1.50559E+03  3.13967E+04
 -2.31049E+04  1.81804E+04 -1.87475E+04  2.60780E+03  4.62265E+03 -6.84089E+03  2.01868E+04  9.21616E+03
  5.01848E+03  3.36524E+04 -3.39823E+04  3.49452E+04 -6.12495E+04  1.87268E+03 -5.73018E+04 -4.12340E+04
 -1.47349E+04 -5.80593E+04  3.91960E+04 -4.95728E+04  5.67563E+04 -4.17442E+03  3.15350E+04  3.16817E+04
 -6.69789E+03  3.25679E+04 -2.72017E+04  1.43708E+04 -2.91217E+04 -4.90695E+03 -1.62779E+04 -1.17597E+04
 -9.48409E+03 -7.68787E+03  7.96681E+02 -2.10570E+04  6.99258E+03 -1.97454E+04  1.81786E+04 -1.15345E+04
  1.12032E+04  5.91060E+03 -6.32577E+03  1.02815E+04 -1.99186E+04 -5.95556E+03 -7.89738E+03 -3.35876E+04
  2.41418E+04 -4.37150E+04  4.62823E+04 -2.19517E+04  4.38617E+04  2.32519E+04  1.59300E+04  4.04044E+04
 -1.93656E+04  3.21306E+04 -2.61158E+04  1.43669E+03 -1.07366E+04 -2.57558E+04  2.12334E+04 -3.54810E+04
  3.99774E+04 -7.61143E+03  3.57956E+04  2.29380E+04  1.23606E+04  3.88187E+04 -5.57603E+03  5.13653E+04
 -2.96171E+04  2.94590E+04 -4.01285E+04  7.87383E+03 -3.76022E+04 -2.02331E+04 -2.00796E+04 -4.13410E+04
  1.30376E+04 -3.14343E+04  2.71587E+04 -1.03709E+04  2.95387E+04  1.14742E+04  4.69933E+03  1.86663E+04
 -1.80926E+04  5.26413E+03 -1.37166E+04 -8.40208E+03  6.67183E+03 -1.09424E+04  1.78982E+04  6.88105E+03
  1.49488E+04  2.10562E+04 -3.70541E+03  2.40095E+04 -2.11976E+04  1.04713E+04 -2.13461E+04 -5.25699E+03
 -1.59157E+04 -2.05454E+04 -7.72493E+03 -1.97964E+04  5.91145E+02 -2.26200E+04  1.49505E+04 -1.48810E+04
  2.08477E+04 -1.38728E+04  3.37190E+04 -2.55017E+02  2.63677E+04  2.04190E+04  9.63472E+03  3.05558E+04
 -1.71274E+04  2.81997E+04 -2.63873E+04  1.12369E+04 -2.15264E+04 -1.27865E+04 -9.07738E+03 -1.18369E+04
  2.97675E+03 -1.28837E+03 -1.57887E+03  2.86692E+03 -1.68548E+04  3.23031E+03 -1.69297E+04 -9.54524E+03
 -8.53073E+03 -1.23068E+04  1.78770E+03 -1.93276E+04  9.33329E+03 -1.58211E+04  1.21475E+04 -3.84838E+03
  8.17520E+03  1.15513E+04  3.63016E+03  1.91000E+04 -6.26858E+03  1.27063E+04 -1.77287E+04 -5.15997E+03
 -1.43909E+04 -1.53458E+04 -1.66384E+03 -2.35175E+04  7.07484E+03 -1.72551E+04  1.77104E+04 -7.14502E+03
  1.14804E+04 -9.90450E+02  1.43184E+04  2.25628E+03  7.65450E+03  3.05276E+03  1.27435E+04  1.72711E+03
  1.24184E+04  8.92220E+02  1.51253E+04  1.68190E+04  1.15891E+04  2.92984E+04  4.41829E+01  3.19278E+04
 -1.96405E+04  2.02704E+04 -2.42374E+04  1.09657E+04 -2.37007E+04  1.58062E+03 -2.40026E+04 -1.53254E+04
 -1.00303E+04 -2.28303E+04  4.15869E+03 -2.14316E+04  1.89979E+04 -1.06145E+04  2.27225E+04  5.08681E+03
  9.58944E+03  1.03920E+04 -8.28771E+03  1.26053E+04 -1.12117E+04 -2.01815E+03 -9.62679E+03 -5.61154E+03
  2.96207E+03 -1.88161E+04  3.38655E+03 -8.60717E+03  7.15995E+03 -3.32371E+03  4.69555E+02  9.49553E+03
 -4.83848E+03  1.59291E+03 -5.18442E+03 -5.99793E+03 -9.41378E-01 -1.15837E+04  8.15351E+03 -1.23438E+04
  1.79026E+04 -4.21092E+03  1.67145E+04  3.84843E+03  8.37303E+03  1.43306E+04  3.62030E+03  1.89588E+04
 -1.55959E+03  2.02746E+04 -9.63805E+03  1.12871E+04 -1.30884E+04 -1.64574E+02 -6.79322E+03  5.49147E+03
 -2.43522E+03 -6.16462E+03 -9.00267E+02  9.35729E+01 -4.82546E+03  1.36803E+03 -1.90696E+03  3.59004E+03
 -9.40350E+03 -2.71276E+03 -4.79983E+03 -7.77244E+03 -3.26060E+03 -1.57149E+04  6.28655E+03 -1.07143E+04
  8.27277E+03 -2.13281E+03  4.91227E+03  6.12395E+03  6.19379E+03  3.89571E+03 -4.83051E+03  2.42622E+03
 -1.59468E+03 -9.64894E+03  2.00058E+02 -8.83488E+03  3.44542E+03 -7.41571E+03  5.84230E+03 -4.41575E+03
  1.59018E+04  2.94082E+02  6.04829E+03 -2.01036E+02  3.82386E+03  9.36896E+03 -4.85438E+03  6.27678E+03
 -1.08330E+04  2.52368E+03 -2.96071E+03 -3.95372E+03 -1.03553E+03 -8.06598E+02  5.31392E+03  1.23508E+03
  5.01008E+03  6.16700E+03  4.18962E+02  1.05250E+04 -5.17316E+03  9.73333E+03 -6.74609E+03  3.63221E+03
 -5.41469E+03 -5.99256E+03 -1.80841E+03 -8.77674E+03  2.13097E+03 -7.60700E+03  1.02274E+03 -1.27344E+03
 -2.44875E+03  6.03200E+03 -7.03301E+03  5.45113E+03 -1.00905E+04  3.95004E+03 -6.26370E+03 -9.41419E+02
 -3.66523E+03 -7.76102E+03 -4.55233E+02 -8.09184E+03  6.81896E+03 -4.80788E+03  7.02165E+03  3.03779E+03
  2.15857E+03  1.06818E+04 -7.77346E+02  8.66955E+03 -4.23383E+03  3.25865E+03 -5.60550E+03 -2.66032E+03
 -4.52946E+03 -4.44603E+03 -5.43326E+03 -3.99166E+03  3.46354E+03 -5.54921E+03  1.03527E+04 -4.13353E+03
  8.26813E+02  2.18740E+03 -3.68268E+03 -1.40091E+03  2.56449E+03 -2.60030E+03 -3.33547E+02 -3.96807E+03
  4.37332E+03 -1.23233E+03  5.05713E+03  5.99097E+02  8.92927E+03  5.19866E+03  5.90753E+03  1.01878E+04
 -1.93945E+03  1.18365E+04 -5.97758E+03  1.09628E+04 -1.40211E+04 -1.53283E+03 -6.18755E+03 -1.10280E+03
 -4.79778E+03 -7.30619E+03  1.17185E+03 -1.11055E+04  2.12548E+03 -2.97815E+03  2.84246E+03 -4.19581E+03
  5.03061E+03 -1.09388E+03  7.00562E+03 -2.67750E+03  2.96858E+03  3.25094E+03  3.37339E+03 -6.85876E+02
  3.78854E+03 -1.29332E+03  4.32145E+02  5.84906E+03 -9.05842E+02 -5.36724E+02 -5.67889E+03  5.31134E+03
 -2.68442E+03 -3.90636E+02 -5.59432E+03 -4.23535E+03 -3.53981E+03 -1.47882E+03  2.52046E+03 -8.15009E+03
  7.94856E+03 -1.13916E+03  9.55364E+03 -3.92422E+03  5.11357E+03  6.80714E+03  2.14426E+03  1.00053E+04
 -4.78746E+03  6.19039E+03 -2.87696E+03  1.78660E+03 -2.26017E+03  9.93376E+02  1.80433E+01 -1.30806E+03
  1.12601E+03  4.09211E+03  1.16946E+03  2.44686E+03 -1.01737E+04 -3.15426E+03 -2.36183E+03 -1.36673E+03
 -2.33049E+03 -6.39595E+03  4.52608E+03 -5.92173E+03  6.00807E+03 -4.37581E+03  7.00049E+03 -2.98818E+03
  5.59726E+03  7.48118E+02  1.28249E+03  4.16755E+03  5.36126E+02  9.21549E+03 -8.44275E+03  5.16109E+03
 -8.50160E+03 -4.11059E+03 -2.68488E+03 -2.10589E+03 -2.42650E+03 -1.76911E+03  6.94287E+03  1.76749E+03
 -8.19162E+00 -2.53242E+03 -1.90600E+03 -5.33584E+02  1.86681E+03  3.68297E+03  1.31964E+01  1.54189E+03
  1.92385E+03 -1.78960E+03  5.87344E+03  5.58208E+03  3.56268E+03 -1.63665E+03 -1.87710E+03  2.83061E+03
 -1.71621E+03  3.35435E+03 -1.76139E+03  1.12076E+03 -7.98352E+03  6.15885E+03 -5.81603E+03  5.12292E+02
 -6.58391E+02 -6.60077E+03 -5.77331E+03 -6.83485E+03  4.19515E+03 -7.43974E+03  7.91507E+03 -2.33485E+03
  3.88965E+03  5.87327E+03  1.63751E+03 -3.87269E+03  1.05698E+02  2.73360E+03 -1.71180E+01 -1.98296E+03
  3.53606E+03 -1.34793E+03 -1.94729E+03 -5.18355E+03  1.92433E+03  2.40935E+03 -6.54970E+02  4.32077E+02
 -1.57831E+03 -9.62196E+02  3.01764E+03  1.80662E+03 -5.21054E+03  1.10135E+01 -7.41003E+02 -1.78645E+03
 -6.16649E+03 -2.42833E+03  2.64452E+03  1.79468E+03  8.24262E+02 -7.51550E+02  2.11946E+03  7.42967E+03
  1.59158E+03 -5.03984E+02 -1.00798E+03 -1.03994E+03 -4.83687E+03  5.71731E+03 -2.39290E+03 -2.31106E+03
 -3.94432E+03  1.15900E+03  2.54965E+03  2.94397E+03 -2.57240E+03  6.82122E+03 -1.49569E+03  3.02614E+03
 -2.68343E+03  3.05709E+03 -1.13639E+03 -3.94491E+03 -3.08448E+02 -2.17679E+03  2.82372E+03 -6.26102E+03
 -1.66724E+03  6.26193E+02  4.68863E+03 -1.42824E+03  2.04115E+03  1.48360E+03  9.27905E+02  4.06400E+03
 -2.12101E+03 -2.00351E+03  1.07039E+03  5.74245E+02  2.33157E+02  1.01872E+03  4.09193E+03 -2.57897E+03
  1.05861E+03  1.31346E+03  4.59306E+03  2.78020E+02  4.19809E+03  1.75000E+03 -3.79952E+03  5.28413E+03
 -1.31370E+03 -2.84868E+03 -4.52383E+03  1.65123E+03 -4.72248E+03 -4.99658E+03 -3.41184E+03 -4.91633E+03
  1.17592E+03 -6.74794E+02  1.21730E+02 -5.39515E+01 -4.85268E+02  2.50090E+03  2.45495E+02 -1.01005E+02
 -2.68612E+03  4.26966E+03  6.67643E+02  3.33808E+01 -3.43178E+02  1.34351E+03 -3.02643E+03 -1.36252E+03
 -1.58185E+03  2.28474E+02 -3.79204E+03  1.21899E+03 -4.35136E+03 -1.46023E+03 -3.68606E+02 -3.36189E+03
 -1.87073E+03 -1.06644E+04  5.27100E+02 -5.49380E+03  6.44199E+02 -5.20435E+03  8.26720E+03 -5.25106E+03
 -6.13343E+01  3.24511E+02  1.09200E+03  1.57638E+03  4.93320E+03  1.55110E+03 -2.18816E+03  4.01020E+03
 -4.13270E+02 -1.21034E+03 -2.60067E+03  9.55448E+02  2.36976E+03  3.70973E+03  1.59080E+03  5.09191E+03
 -1.41620E+03  3.74599E+03 -2.27777E+03  2.63413E+02  1.24820E+03 -4.34213E+03 -6.61820E+02 -2.26542E+03
  3.33852E+03 -2.54855E+03  5.39861E+03  3.39049E+03  7.88525E+03  1.11481E+03  7.27171E+02  5.51908E+03
 -7.74055E+02 -2.98351E+03 -4.48545E+02  2.16480E+03 -8.26704E+03 -6.06001E+03 -3.02048E+03 -6.28057E+03
  2.56805E+03 -3.24918E+03  8.56091E+02 -4.71621E+03 -4.78240E+02 -4.11013E+03  4.30774E+03  3.11833E+03
 -1.68673E+03 -6.57335E+03 -6.53965E+02 -3.54037E+03  9.97380E+01  4.65879E+03 -3.91566E+02 -5.23158E+03
  2.59047E+03 -1.49748E+03  3.49208E+03 -9.23655E+02 -1.28478E+03  1.42747E+01  1.74947E+02 -7.28134E+01
  2.39826E+03 -1.58702E+02 -1.57088E+03 -2.97058E+03  4.07889E+03  1.60739E+03  9.85725E+02 -5.28076E+03
 -3.37085E+03 -1.36839E+03 -9.05630E+02 -2.07509E+02  3.64219E+03 -3.46555E+03 -1.78897E+03  7.48663E+02
 -1.70702E+03  7.07724E+03 -9.79426E+02 -3.58240E+02 -1.05096E+02 -2.32043E+02 -3.05307E+03 -3.13488E+03
 -2.27379E+03  1.37171E+03 -7.33473E+03 -9.06587E+02  2.06807E+02  2.08863E+03  8.97899E+02 -2.92039E+03
  1.33343E+03 -2.92555E+03 -4.14584E+03 -1.71119E+03  2.01403E+03 -4.73551E+03 -4.35053E+03 -2.35776E+03
 -1.60588E+03  4.06309E+02 -1.63912E+03  4.11709E+03  4.33264E+03 -2.30579E+03 -5.18389E+02  2.29870E+03
