 $NMID ID='MM_0lb_SNR50_18hz_g55_68.RAW', FMTDAT='(8E13.5)'
 TRAMP=1., VOLUME=1. $END
  3.08303E+05  2.81819E+03  3.35807E+05  2.51292E+05  8.51775E+04  3.39239E+05 -1.34341E+05  2.49138E+05
 -1.92466E+05  8.73941E+04 -1.13657E+05 -3.20877E+04  2.00078E+03 -5.01236E+04  5.23503E+04 -5.23454E+02
  3.30371E+04  5.03116E+04 -1.72270E+04  7.50190E+04 -6.07045E+04  6.04233E+04 -8.04560E+04  3.02423E+04
 -7.79148E+04 -1.43674E+04 -5.65324E+04 -4.84653E+04 -1.27033E+04 -7.12483E+04  2.68733E+04 -5.12512E+04
  4.10886E+04  2.57108E+03  1.48453E+04  4.55520E+04 -3.24069E+04  4.71107E+04 -6.62265E+04 -1.00038E+03
 -5.32486E+04 -5.93501E+04 -7.23496E+03 -8.09662E+04  3.41176E+04 -5.63625E+04  4.67686E+04 -1.93046E+04
  4.58841E+04  1.55052E+04  3.14048E+04  2.61748E+04  1.68530E+04  3.06196E+04 -1.83677E+03  2.37395E+04
 -2.42720E+04  1.80204E+04 -2.26096E+04 -3.54570E+03  4.64854E+03 -1.35292E+04  2.11718E+04  8.87182E+03
  4.22610E+03  3.12428E+04 -3.19593E+04  3.71263E+04 -5.96875E+04 -2.63054E+02 -5.88785E+04 -4.19933E+04
 -1.00761E+04 -6.00255E+04  3.74138E+04 -4.62680E+04  5.33404E+04 -9.69571E+02  3.32226E+04  3.10659E+04
  1.45175E+03  3.52636E+04 -2.93621E+04  1.64478E+04 -2.47834E+04 -6.25798E+03 -1.77612E+04 -9.86494E+03
 -9.11346E+03 -1.07042E+04 -1.33188E+03 -2.40753E+04  4.68833E+03 -2.06246E+04  1.85933E+04 -1.75659E+04
  1.08132E+04  5.07559E+03 -1.00724E+04  1.07433E+04 -1.90582E+04 -5.32048E+03 -6.04968E+03 -3.51168E+04
  2.10699E+04 -4.01193E+04  4.88066E+04 -2.05322E+04  4.21826E+04  1.57874E+04  1.41704E+04  4.43354E+04
 -1.34616E+04  3.35422E+04 -2.55531E+04  2.49455E+03 -1.24985E+04 -2.46479E+04  2.38514E+04 -3.00329E+04
  3.51090E+04 -8.64842E+03  3.01023E+04  2.20806E+04  1.24361E+04  4.49685E+04 -7.28115E+03  5.07962E+04
 -3.24307E+04  2.59263E+04 -4.19181E+04  8.76050E+03 -4.05525E+04 -1.51846E+04 -2.34558E+04 -3.62855E+04
  8.44934E+03 -3.73081E+04  2.93548E+04 -1.13500E+04  2.73438E+04  1.41794E+04  1.08959E+03  1.64649E+04
 -1.04112E+04  1.04931E+04 -4.62927E+03 -8.38804E+03  4.43089E+03 -9.34873E+03  1.53129E+04  2.82322E+03
  9.31188E+03  1.83878E+04 -5.20989E+03  2.28943E+04 -2.55744E+04  1.33132E+04 -2.79233E+04 -3.15589E+03
 -2.42603E+04 -1.78531E+04 -8.48598E+03 -2.31378E+04  5.07127E+03 -1.46083E+04  1.16017E+04 -1.74411E+04
  2.30666E+04 -1.43794E+04  3.08329E+04  1.97789E+03  2.28644E+04  1.77490E+04  5.95922E+03  3.22658E+04
 -2.50736E+04  2.87694E+04 -2.70644E+04  1.30983E+04 -2.04292E+04 -5.61428E+03 -1.41161E+03 -1.62849E+04
  3.49660E+03 -5.88160E+03  2.23787E+03  5.50375E+03 -1.81409E+04  8.10433E+03 -1.70604E+04 -3.51371E+03
 -8.48464E+03 -1.63716E+04  4.66103E+03 -1.87061E+04  1.77770E+04 -1.27031E+04  1.44742E+04  1.31339E+03
  5.76248E+03  1.02870E+04 -9.09515E+02  1.83462E+04 -8.48510E+03  1.13227E+04 -1.05005E+04  2.01056E+03
 -1.71779E+04 -1.31969E+04 -8.61460E+03 -1.89551E+04  5.88872E+03 -1.75283E+04  1.48031E+04 -8.03271E+03
  1.75878E+04  3.11304E+03  1.41269E+04  3.77964E+03  3.77526E+03  1.43768E+03  9.56751E+03 -3.49470E+03
  1.79663E+04  7.11081E+03  1.47266E+04  1.66520E+04  1.15904E+04  2.31200E+04 -1.64391E+02  2.70251E+04
 -1.86195E+04  2.52469E+04 -2.53930E+04  1.11758E+04 -2.60554E+04 -2.55956E+01 -2.21432E+04 -1.86459E+04
 -1.14484E+04 -2.15225E+04  6.68650E+03 -1.63279E+04  1.94187E+04 -1.12484E+04  1.62364E+04  2.34992E+03
  7.29954E+03  1.02678E+04 -1.15903E+04  9.31582E+03 -1.60032E+04  1.08821E+03 -1.19935E+04 -9.68571E+03
 -1.58109E+03 -1.97264E+04  3.84781E+03 -7.90763E+03  1.14707E+04 -2.05914E+03  1.95337E+03  3.06648E+03
 -5.78449E+02  1.59333E+03 -5.83524E+03 -4.16481E+03 -6.60979E+02 -1.32877E+04  8.49867E+03 -9.17874E+03
  1.60085E+04 -5.66841E+03  1.46270E+04 -1.18863E+03  1.19024E+04  1.28509E+04  5.91822E+03  1.97334E+04
 -4.81759E+03  1.74615E+04 -9.59193E+03  1.25776E+04 -1.55389E+04  6.26576E+03 -7.92842E+03  4.75981E+02
 -4.44846E+03 -4.99954E+02  5.07690E+03  2.14409E+00 -2.86531E+03  1.53145E+03 -3.92932E+03  6.46777E+03
 -1.12567E+04  8.10786E+02 -1.01118E+04 -9.33424E+03 -1.99888E+03 -8.57752E+03  6.87009E+03 -8.49067E+03
  6.57446E+03 -1.73444E+03  6.82900E+03  2.86484E+03 -2.24325E+03 -5.37139E+02 -9.31646E+02  1.85604E+03
 -3.15196E+03 -4.28995E+03  2.71458E+03 -8.65575E+03  4.77474E+03 -8.76087E+03  9.50745E+03 -6.44771E+03
  1.11673E+04 -1.88906E+03  4.19830E+03  5.15759E+03 -7.07295E+02  8.52769E+03 -5.55089E+03  1.25865E+04
 -7.44897E+03  8.39995E+02 -2.46723E+02 -1.27159E+03  2.71749E+03 -1.58032E+03  6.56696E+02 -5.88861E+02
  9.38888E+03  3.64772E+03  2.41420E+03  8.38953E+03 -4.11236E+03  7.73154E+03 -6.59139E+03 -5.21827E+02
 -7.37321E+03 -3.94144E+03  3.79045E+03 -2.01846E+03  3.94912E+03 -6.31544E+02  8.67695E+03 -2.97468E+02
  1.56020E+03  4.89806E+03 -3.81263E+03  5.64121E+03 -5.93889E+03  2.50313E+02 -1.49037E+03 -4.28258E+03
 -5.86852E+03 -5.96093E+03  2.41888E+03 -7.71448E+03  5.17263E+03 -4.82637E+03  8.70358E+03 -1.38696E+03
  5.57839E+03  8.55746E+03 -3.63843E+03  4.73748E+03 -3.50732E+03  1.49152E+03 -4.41673E+03  2.85703E+03
 -1.03232E+04 -2.40714E+03  1.08209E+03 -5.50470E+03  2.51667E+03 -4.89494E+03  1.02025E+03 -2.46625E+03
  9.81578E+02  1.22161E+03  1.84267E+03 -8.81339E+02 -1.49505E+03 -4.16925E+02  7.27009E+02 -2.59391E+03
  2.80533E+03 -3.66804E+03  4.70117E+03  5.36900E+03  5.87992E+03  5.19016E+03  8.36656E+03  8.28925E+03
 -2.79790E+03  9.88908E+03 -9.29222E+03  9.70744E+03 -1.08033E+04  5.29786E+02 -9.67380E+03 -8.99249E+03
  2.56215E+02 -8.04645E+03 -8.75989E+02 -3.12798E+03  2.03972E+03 -3.76572E+03 -4.84611E+02 -4.24177E+03
 -1.34554E+03  2.00484E+03  1.84349E+03 -4.74555E+03  6.22525E+03  1.05729E+03  4.72632E+03 -5.39325E+03
  4.88850E+03 -9.27839E+02  3.47445E+03  3.79274E+03  3.52703E+02 -5.13700E+02 -2.08503E+03  5.52194E+03
 -4.99263E+03 -9.25206E+02 -1.25978E+03 -3.00400E+03  5.27836E+02 -5.43497E+03  4.94736E+03 -4.46208E+03
  6.60979E+03 -5.09358E+03  3.20949E+03 -2.32633E+03  8.39881E+03  2.40465E+03 -2.70701E+03  7.75427E+03
 -1.86806E+03  9.22016E+03 -2.10825E+03  5.10381E+03 -1.49958E+03 -7.85139E+02  2.15653E+03 -3.74381E+03
  9.23871E+01  3.21784E+03 -1.14517E+03  3.80278E+03 -3.78043E+03  2.36319E+03 -5.10947E+03  2.41336E+03
 -1.80034E+03 -5.03247E+03  4.50671E+02 -2.16101E+03  3.93854E+01 -4.42327E+03  2.96652E+03 -2.98477E+02
  8.12605E+03  4.22266E+03  2.43636E+03  4.87033E+03 -3.11961E+03  1.29737E+03 -9.36285E+02  2.42389E+03
 -5.56134E+02 -1.57529E+03 -3.25407E+03 -6.68219E+02  3.23750E+03 -8.61735E+02  1.66718E+03 -6.73126E+03
  7.85453E+03  3.68618E+03  2.65221E+03 -2.27173E+02  1.03445E+02  9.38761E+02  2.84825E+02 -3.56119E+03
  2.21972E+03 -4.02562E+03  5.51668E+03  2.13489E+02  5.07084E+03  1.59193E+03  4.87015E+03  4.01630E+03
 -1.61971E+03  9.13932E+02 -6.09677E+03  4.11551E+03 -3.29173E+03  2.50696E+02 -5.96027E+03  2.23136E+03
 -1.14005E+03 -2.53008E+03  8.60482E+02 -2.90193E+03  3.49773E+03 -8.03193E+03  9.37619E+03 -2.51962E+03
  1.69584E+03  4.21141E+02 -4.08906E+03  3.40339E+03 -8.76676E+02 -4.76709E+03 -2.56770E+03 -5.69941E+03
 -3.33537E+03 -3.90387E+03  1.02893E+03  2.95458E+02 -1.49964E+03 -4.78113E+03  4.15783E+03 -7.35863E+02
 -1.36699E+02  1.54189E+03 -2.07342E+03  1.72771E+03 -2.02422E+03  2.42035E+03  2.14748E+03 -3.34095E+03
 -2.79111E+03 -9.15621E+02  3.23016E+03 -2.96446E+03 -9.04477E+02  5.97555E+03 -7.94691E+03  1.05498E+03
 -3.37879E+03 -8.72367E+02 -1.40555E+03 -4.04135E+03 -1.57617E+03  3.01318E+03 -3.15211E+03 -8.07000E+02
 -1.23715E+03 -1.57708E+03  2.03483E+03 -3.29487E+03 -2.68521E+03  8.71316E+02 -3.18500E+02 -4.52968E+02
 -9.83344E+00 -6.85940E+03 -2.90618E+03 -7.92345E+02 -3.35484E+03 -2.05441E+03 -3.20332E+02  7.92105E+02
 -2.37539E+03 -4.42685E+03  1.26622E+03 -1.76223E+03  1.41317E+03  1.91615E+03  1.97957E+03 -1.38133E+03
 -3.29810E+03  1.99488E+03  4.63867E+03 -4.65485E+03 -1.07558E+03  6.87654E+02  4.16504E+03 -1.64688E+01
  3.22336E+03 -1.11809E+03 -5.50992E+02  2.49683E+02  7.55996E+03  1.94852E+03 -1.67601E+03  3.38528E+03
 -8.95628E+02  3.61896E+02 -8.29972E+03  9.98457E+02 -2.28725E+03  1.20711E+03 -1.40250E+03  1.56323E+03
  5.41470E+03 -7.11546E+02 -9.50680E+02  2.83617E+03 -3.62481E+03  2.57598E+03 -1.36605E+02  2.68486E+03
  1.79211E+03  1.29971E+03 -8.79852E+02 -1.41694E+03  3.49814E+02  2.58937E+03 -3.77028E+03  4.82715E+03
  4.74049E+03 -1.73413E+03 -3.15405E+03  3.62563E+03  1.57916E+03  6.15508E+02  6.03845E+02 -1.04330E+02
  4.34140E+02 -2.85710E+03  1.70495E+03 -3.04063E+03 -3.86066E+03 -4.69330E+03 -4.62122E+02 -4.37556E+02
  4.64246E+03  1.15040E+03 -4.65004E+01  1.68890E+03  6.28709E+02  1.36758E+03  3.36275E+03 -2.17594E+02
 -8.47467E+02 -5.55005E+02  6.51636E+02 -2.98800E+03 -3.20300E+03 -4.35562E+03  1.78090E+03 -4.08502E+02
 -2.09031E+03 -7.42752E+02  3.46901E+03  4.34514E+02  1.26153E+03 -1.52943E+03  1.95735E+02 -3.31990E+03
  5.24946E+02 -2.18960E+03  2.76817E+03 -1.21061E+03  3.25192E+03 -1.09018E+03 -3.75915E+03  3.71665E+03
 -3.87028E+03 -1.31101E+03 -2.98329E+03  5.37034E+03 -5.09746E+03 -5.60886E+03 -3.69501E+03  4.75714E+01
 -3.07717E+03 -1.88688E+03 -8.50658E+02  4.77231E+02 -6.25900E+02  2.46152E+03 -8.28901E+02  1.29922E+03
 -4.59005E+02 -8.58395E+02 -7.38899E+01  2.04779E+03 -9.19308E+02  1.35035E+03 -2.87973E+03  1.20555E+03
 -1.15470E+03  2.50589E+03 -2.56420E+03  2.51894E+03 -4.61635E+02 -1.96022E+03 -1.52378E+02  1.35765E+03
 -4.24607E+03 -2.11335E+03  3.29770E+03  3.15710E+03  2.48781E+03 -1.24753E+03  1.04509E+03 -5.41514E+02
 -1.44294E+03 -7.77232E+02  3.42092E+03  2.32877E+02  4.57294E+03  1.71572E+03  2.88881E+03 -3.97236E+02
 -3.73906E+03 -1.25787E+03  6.52982E+02  4.89133E+02 -5.10850E+02  2.69130E+02  1.79625E+03  7.05921E+02
 -2.67735E+03  9.53394E+02 -9.96419E+02  2.96669E+03 -1.18164E+03 -4.29348E+03  3.54826E+03  1.03618E+03
 -4.18907E+03 -2.69530E+02 -2.06408E+03  2.84317E+02 -1.08790E+03 -5.36236E+03  4.14629E+03  1.93381E+03
  1.39053E+02  2.32280E+03 -2.25212E+03  5.66335E+02  3.38202E+03 -1.44932E+03 -5.10543E+03 -1.26596E+03
