 $NMID ID='MM_0lb_SNR50_10hz_g40_87.RAW', FMTDAT='(8E13.5)'
 TRAMP=1., VOLUME=1. $END
  3.12035E+05 -1.65782E+03  3.31553E+05  2.50829E+05  8.57346E+04  3.39559E+05 -1.30378E+05  2.52244E+05
 -1.88281E+05  8.21469E+04 -1.15339E+05 -2.41491E+04 -2.18022E+03 -4.98252E+04  5.51516E+04 -3.10788E+03
  3.77842E+04  5.71655E+04 -1.96378E+04  7.35861E+04 -5.90526E+04  6.97239E+04 -7.58005E+04  2.69009E+04
 -8.04579E+04 -1.45266E+04 -6.00817E+04 -5.77590E+04 -1.31530E+04 -6.90793E+04  2.78840E+04 -4.14863E+04
  3.75192E+04  7.11156E+03  1.77519E+04  4.67927E+04 -3.50848E+04  4.81971E+04 -6.44826E+04 -1.53111E+03
 -5.26765E+04 -5.53767E+04 -1.10648E+04 -7.67938E+04  3.66824E+04 -5.50757E+04  4.63468E+04 -1.92900E+04
  4.10322E+04  1.42791E+04  3.05860E+04  2.39230E+04  1.73426E+04  2.96163E+04 -8.65411E+03  2.77527E+04
 -2.24967E+04  1.00774E+04 -1.11880E+04 -7.93740E+02  8.50380E+03 -4.43090E+03  2.08817E+04  1.50092E+04
  9.56926E+03  3.62571E+04 -2.59498E+04  3.39300E+04 -6.49143E+04  1.70122E+03 -5.90536E+04 -4.40789E+04
 -1.84864E+04 -6.32657E+04  4.93278E+04 -4.49536E+04  6.18326E+04 -2.46686E+03  3.43111E+04  3.18926E+04
 -5.13381E+03  3.69537E+04 -3.22526E+04  1.47956E+04 -3.15210E+04 -5.54708E+03 -2.09238E+04 -1.45379E+04
 -1.27661E+04 -1.46651E+04 -4.00700E+02 -2.23354E+04  2.69261E+03 -1.95524E+04  1.77331E+04 -1.08910E+04
  5.58282E+03  8.00965E+03 -1.31777E+04  1.31453E+04 -2.26158E+04 -1.13584E+04 -1.29580E+04 -3.28057E+04
  2.64088E+04 -4.70803E+04  5.41704E+04 -1.77981E+04  4.34073E+04  1.60666E+04  2.20421E+04  4.79368E+04
 -1.70969E+04  3.35683E+04 -2.06096E+04 -1.87114E+02 -1.27478E+04 -2.99345E+04  1.91221E+04 -3.29611E+04
  3.93665E+04 -4.46924E+03  3.35833E+04  2.22155E+04  2.07069E+04  4.70442E+04 -2.99041E+03  5.45706E+04
 -3.49900E+04  3.43780E+04 -4.30999E+04  9.17769E+03 -3.99318E+04 -1.40438E+04 -2.52145E+04 -3.81425E+04
  8.07161E+03 -4.08801E+04  2.93603E+04 -1.26384E+04  3.04237E+04  8.48975E+03  6.38046E+03  1.93814E+04
 -9.71287E+03  5.73247E+03 -1.01738E+04 -6.67580E+03  3.14998E+03 -1.32560E+04  2.21547E+04  5.52317E+03
  1.70799E+04  2.50336E+04 -3.57063E+03  3.09442E+04 -2.26015E+04  1.65242E+04 -3.52880E+04 -3.35918E+03
 -2.63674E+04 -2.50199E+04 -1.19445E+04 -2.54955E+04  4.69418E+03 -2.16905E+04  1.87823E+04 -1.68501E+04
  2.66607E+04 -1.88232E+04  3.58983E+04  8.64308E+03  2.61174E+04  2.90526E+04  3.95100E+03  3.41511E+04
 -2.17606E+04  3.52570E+04 -3.07221E+04  1.15395E+04 -1.79293E+04 -1.59259E+04 -6.35524E+03 -2.15215E+04
 -8.88997E+02 -2.28201E+03 -9.06401E+03  5.13957E+03 -2.34696E+04  3.16126E+03 -2.10471E+04 -1.18076E+04
 -1.22037E+04 -1.82636E+04  6.58815E+02 -2.71408E+04  2.18095E+04 -1.98877E+04  1.48040E+04  4.32089E+03
  1.30975E+04  1.05523E+04 -2.48686E+03  2.21619E+04 -1.39479E+04  1.44804E+04 -2.07821E+04 -2.13945E+03
 -1.81668E+04 -1.95576E+04 -5.25387E+03 -2.60197E+04  8.09900E+03 -2.50312E+04  2.45354E+04 -1.67419E+04
  3.00276E+04 -3.22189E+03  1.42150E+04  5.92772E+03  7.11991E+03  4.69204E+03  7.96158E+03  5.56470E+03
  1.63187E+04  3.22692E+03  2.49628E+04  1.15542E+04  1.25872E+04  4.17879E+04 -2.01510E+03  3.21754E+04
 -2.48700E+04  3.00050E+04 -4.06214E+04  1.78950E+04 -3.62610E+04 -6.28977E+03 -2.52936E+04 -2.30576E+04
 -1.27521E+04 -3.55988E+04  7.61951E+03 -3.58435E+04  2.88736E+04 -1.22852E+04  2.20738E+04  6.73504E+03
  8.95942E+03  1.48688E+04 -1.01420E+04  2.08033E+04 -1.69033E+04  4.99072E+03 -1.52082E+04 -1.40035E+04
  4.25478E+03 -1.75030E+04  8.95897E+03 -1.02099E+04  7.94889E+03  6.48631E+02  5.81447E+03  4.91980E+03
 -6.49700E+03 -1.57212E+02 -9.04844E+03 -1.37448E+04  2.25649E+03 -1.36534E+04  1.46058E+04 -1.82886E+04
  2.58970E+04 -6.15771E+03  2.34025E+04 -1.19720E+03  1.87382E+04  1.89188E+04  1.39471E+04  2.45421E+04
 -4.24692E+03  3.32881E+04 -1.95992E+04  1.95518E+04 -1.89353E+04  4.17735E+03 -9.77301E+03  6.50618E+03
 -1.12528E+03 -7.98805E+03 -2.97165E+03 -2.93292E+03  1.17481E+03 -7.37964E+02 -7.33108E+03  4.83619E+03
 -1.05146E+04 -2.34425E+03 -1.36160E+04 -1.36330E+04 -6.43661E+03 -2.02806E+04  4.99871E+03 -1.26575E+04
  1.80964E+04 -1.02831E+04  5.48290E+03 -7.85469E+02 -3.22821E+03  3.32178E+03 -1.17292E+04 -2.00523E+03
 -7.02608E+03 -1.21003E+04  2.79568E+02 -1.90149E+04  8.73429E+03 -1.58012E+04  1.34978E+04 -5.98935E+03
  1.98553E+04 -3.06453E+03  1.97631E+04  1.16254E+04  5.32988E+03  1.20016E+04 -1.06741E+04  1.38869E+04
 -1.40419E+04  5.11680E+03 -9.41052E+03 -7.18171E+03 -1.16186E+03 -4.96336E+03  3.89308E+03 -1.47595E+03
  7.37191E+03  8.51311E+03 -5.91545E+03  1.31345E+04 -1.13508E+04  5.91574E+03 -9.22426E+03  7.43698E+03
 -1.25809E+04 -1.67798E+03 -1.55094E+03 -1.16673E+04  1.32351E+04 -8.78466E+03  8.79495E+03  4.36209E+03
 -2.55591E+03  6.58365E+03 -6.04014E+03  9.86960E+03 -1.50972E+04 -1.79298E+02 -1.67077E+04 -2.17400E+03
 -7.55970E+03 -1.49243E+04  7.36938E+03 -1.87011E+04  1.58062E+04 -6.39002E+03  1.65183E+04  4.50404E+03
  1.09541E+04  1.33348E+04 -6.15101E+03  1.46835E+04 -7.34213E+03  6.46599E+03 -8.89683E+03 -4.49954E+02
 -1.42279E+04 -1.49888E+04 -5.64319E+03 -1.28429E+04  3.14132E+03 -7.01050E+03  5.66648E+03 -6.06072E+03
  4.46994E+02  8.51087E+02 -1.74785E+03 -2.11452E+03  1.59325E+03 -6.82262E+03  5.88957E+03 -1.24164E+04
  1.35138E+04 -5.19256E+03  1.36619E+04  2.19855E+03  1.46240E+04  6.77131E+03  1.18047E+04  1.09721E+04
 -3.82271E+03  1.62742E+04 -1.80817E+04  1.34096E+04 -2.38033E+04 -7.34487E+03 -1.58948E+04 -1.01938E+04
 -1.30617E+04 -1.24233E+04  1.45668E+03 -1.77266E+04  2.85446E+03 -1.67606E+03  2.03723E+03  4.55976E+03
  2.82559E+03  6.13938E+02  3.28006E+03 -5.95904E+03  5.13026E+03 -1.44960E+04  6.15724E+03 -4.97070E+02
  1.04666E+04 -3.23953E+03  7.53084E+03  3.67615E+03  1.48658E+03  1.42401E+04 -6.93738E+03  3.02315E+03
 -1.88008E+04 -1.42628E+03 -6.97466E+03 -7.75483E+03  2.64697E+03 -1.56903E+04  6.33010E+03 -1.36275E+04
  1.13230E+04 -5.16089E+03  2.29547E+04 -1.87922E+02  9.67451E+03  7.65072E+03  1.02797E+04  1.18282E+04
 -7.75763E+03  1.26694E+04 -6.11512E+03  1.10226E+04 -8.22540E+03  3.64675E+02 -9.22566E+01 -4.07578E+03
 -5.78665E+02 -7.48148E+02 -9.30079E+03  1.09027E+03 -6.82425E+03  2.83499E+03 -8.12755E+03 -3.27885E+03
 -8.21389E+03 -1.25988E+04  1.64302E+02 -1.02010E+04  1.06029E+04 -1.04355E+04  5.66553E+03 -1.08348E+04
  1.81504E+04  6.99101E+03  1.10638E+04  3.18598E+03 -7.88640E+03  1.20871E+04 -1.36303E+04  9.79539E+03
 -1.17451E+04 -1.20938E+03 -9.04332E+03 -1.05566E+04  2.69207E+03 -1.51523E+04  4.99380E+03 -7.66798E+03
  1.32020E+04 -6.42527E+03  9.82229E+03  7.24109E+02  2.11302E+02  4.10462E+03  2.07988E+03  2.11881E+03
  8.95144E+02  9.00881E+02  3.82071E+03  7.63930E+03  1.25549E+03  6.36176E+03  3.94382E+03  1.18442E+04
  4.89995E+03  1.49687E+04 -1.14907E+04  9.65708E+03 -1.61468E+04  3.62803E+03 -1.37319E+04 -3.41386E+03
 -4.75879E+03 -1.32552E+04  2.15609E+03 -1.53390E+04  2.41222E+03 -1.12939E+04  1.22888E+04 -6.98123E+03
  1.14121E+04  1.97614E+03  4.01385E+03  6.54679E+03 -4.83306E+03  4.30233E+03 -3.30626E+03  1.57176E+03
 -5.38560E+03 -7.52507E+03 -3.52183E+03 -7.36504E+03 -1.85644E+03  1.20811E+03  4.80842E+03  4.45656E+03
  1.85061E+03  2.98472E+03  3.75786E+03 -2.31898E+03  3.02357E+03 -6.27258E+02 -8.93947E+02 -1.65838E+03
  5.68144E+03 -4.78294E+03  7.60303E+03  1.91713E+03  4.07594E+02  4.34662E+03 -1.59963E+03  9.86241E+03
 -5.66941E+03  5.23215E+03 -4.78599E+03 -6.61714E+02 -6.60548E+03 -6.14664E+03 -5.75636E+03 -3.65799E+02
  8.11111E+02 -4.85201E+03  6.26324E+03 -2.22099E+03  5.42136E+03  7.59865E+03 -6.76575E+03  1.08248E+03
 -6.24631E+03  1.34356E+03 -3.35891E+03 -5.02212E+03  4.71058E+02 -2.72743E+03  4.68671E+03 -5.41646E+03
  1.98905E+03 -7.54721E+03  8.79890E+02 -5.19246E+03  7.26776E+03  4.52409E+03 -2.08951E+03  2.49358E+03
 -3.93547E+03 -8.49428E+02 -2.33062E+02  1.95981E+03  7.46302E+03 -4.93370E+03  9.99998E+03  4.74003E+02
 -2.63736E+02 -5.59375E+03  6.28640E+03  1.25359E+04 -7.54229E+01  9.84014E+03 -2.57984E+03  7.12156E+03
 -8.10141E+03  2.25366E+02 -1.34662E+04 -1.87447E+03 -4.24309E+03 -8.51219E+03 -5.29535E+02 -5.85739E+03
 -7.58649E+01  2.07028E+02  5.08019E+03  6.85188E+03  2.33414E+03  4.82007E+03 -5.81456E+03  6.94243E+02
  4.25630E+03  4.62528E+02 -1.27083E+03  1.72405E+03  2.14652E+03 -1.71959E+03 -3.41239E+03  2.78779E+03
 -1.13639E+02  7.41406E+03 -5.95662E+03  5.94573E+03 -5.77585E+03  3.09193E+03 -1.03221E+04  3.73219E+02
 -3.92118E+03 -1.50061E+04  7.00005E+03 -1.23731E+04  1.03839E+04 -1.10376E+04  1.67103E+04 -5.56322E+03
  1.07655E+04  2.10300E+03 -1.47388E+03  1.41094E+04  4.77835E+02  1.17033E+04 -7.64944E+03  8.88639E+03
 -1.50716E+03 -4.03171E+03 -1.80163E+03 -3.41105E+03  1.04466E+03 -1.51697E+03 -4.34486E+03  4.65726E+02
  2.70556E+03  6.95939E+03 -5.77093E+03  1.27233E+03  1.17651E+03  5.53374E+03 -1.26429E+02 -3.43697E+03
 -1.21711E+03 -1.94704E+03  3.11810E+03  5.80792E+03  7.27053E+03  3.62079E+03  2.48824E+03  3.96849E+03
 -4.63306E+03  1.01321E+04 -1.14299E+04  8.50636E+03 -7.65732E+03 -3.14797E+03 -1.24203E+04 -1.08061E+04
 -1.58673E+03 -1.95764E+03  4.19671E+02 -2.99546E+03  3.22404E+03  3.50650E+03  1.09049E+04 -2.57504E+03
  5.31755E+03  1.42984E+03 -2.57942E+03  4.55241E+03 -1.69981E+03 -2.21359E+03 -5.46945E+02  3.74584E+03
  8.44068E+03  1.86582E+03  5.62181E+03 -2.45105E+03 -1.31458E+03 -1.94263E+03 -3.16601E+03  9.02424E+03
 -2.19955E+03  4.15604E+03 -4.60416E+03  2.16004E+03 -2.00150E+03 -3.60526E+03  1.03029E+03 -6.47162E+03
  6.28074E+03 -8.96868E+02  1.92763E+03 -2.47545E+03  9.39217E+03  2.41681E+03 -2.37866E+03  8.36765E+03
 -2.60272E+03  3.35107E+03  1.65607E+02  7.20719E+03  7.59956E+02  2.49590E+03 -4.93980E+01 -1.45663E+03
  1.89491E+02  2.01085E+03 -6.07383E+02  3.77553E+02 -4.35886E+03  2.72447E+03 -9.84058E+02 -4.57459E+02
 -2.46542E+03 -7.84287E+03 -3.24134E+03  1.44986E+02  5.36719E+03 -4.16225E+03  2.42814E+03  1.15225E+03
  2.35201E+03  2.04189E+03  4.31034E+03  3.85699E+02 -3.28831E+03  8.59489E+03 -1.47988E+03  8.94072E+03
