 $NMID ID='MM_0lb_SNR50_9hz_g55_99.RAW', FMTDAT='(8E13.5)'
 TRAMP=1., VOLUME=1. $END
  3.11080E+05 -5.67240E+03  3.34280E+05  2.47342E+05  8.12528E+04  3.34189E+05 -1.27807E+05  2.51743E+05
 -1.84554E+05  8.59482E+04 -1.18883E+05 -3.60245E+04 -6.59609E+02 -5.63918E+04  5.24520E+04 -1.79793E+03
  2.77668E+04  5.51010E+04 -2.38141E+04  7.67178E+04 -6.22139E+04  6.68039E+04 -8.55557E+04  3.20847E+04
 -8.46737E+04 -1.10057E+04 -5.34391E+04 -4.58592E+04 -1.57198E+04 -6.71863E+04  2.73051E+04 -5.08367E+04
  4.60173E+04  3.94296E+03  1.89075E+04  4.79548E+04 -3.56062E+04  4.65818E+04 -6.48654E+04  4.36768E+03
 -5.55044E+04 -5.88610E+04 -1.03257E+04 -7.96796E+04  3.94581E+04 -6.15449E+04  4.82929E+04 -2.40666E+04
  4.67646E+04  1.19344E+04  3.60499E+04  2.01754E+04  2.00135E+04  2.97475E+04 -9.01252E+03  2.78153E+04
 -2.27964E+04  1.61525E+04 -1.38756E+04 -5.27550E+03  8.19394E+03 -6.84787E+03  1.89187E+04  1.41233E+04
  5.58109E+03  4.17940E+04 -3.90582E+04  3.44196E+04 -6.38889E+04  4.70710E+03 -5.50865E+04 -4.66460E+04
 -1.61144E+04 -7.02531E+04  4.11763E+04 -4.35867E+04  6.32722E+04  4.61996E+03  3.63940E+04  3.42451E+04
 -9.07767E+03  4.61689E+04 -3.25843E+04  1.99880E+04 -3.32727E+04 -2.67371E+03 -1.95233E+04 -9.28293E+03
 -8.95876E+03 -2.09795E+04 -3.39909E+03 -2.31436E+04  8.71196E+03 -2.07082E+04  1.67932E+04 -1.20676E+04
  9.81076E+03  5.90749E+03 -7.46740E+03  1.07864E+04 -2.33554E+04 -4.93700E+03 -1.73959E+04 -3.95724E+04
  1.89714E+04 -3.99039E+04  4.89287E+04 -3.00239E+04  5.35867E+04  1.78375E+04  1.61835E+04  4.20692E+04
 -2.17815E+04  3.18886E+04 -2.74529E+04 -4.34666E+03 -1.79440E+04 -2.89609E+04  2.22889E+04 -4.54092E+04
  4.28631E+04 -1.66575E+04  3.93304E+04  2.34649E+04  2.14301E+04  5.46851E+04 -1.18854E+04  5.60591E+04
 -2.97339E+04  4.62859E+04 -4.10200E+04  1.20896E+04 -4.31245E+04 -2.15546E+04 -1.82583E+04 -3.49106E+04
  1.09918E+04 -3.84139E+04  3.24972E+04 -1.71089E+04  3.31485E+04  1.86497E+04  5.37369E+03  1.58972E+04
 -1.43392E+04  1.06458E+04 -1.05419E+04 -2.88660E+03  8.31085E+03 -7.03605E+03  1.62237E+04  9.60028E+03
  1.44295E+04  2.25872E+04 -2.30404E+03  2.51643E+04 -2.00215E+04  2.06489E+04 -3.20571E+04  1.49925E+03
 -3.44053E+04 -2.79377E+04 -1.10452E+04 -2.74434E+04 -3.32249E+03 -2.87784E+04  2.01824E+04 -2.45748E+04
  3.34308E+04 -1.34744E+04  3.73440E+04  2.48765E+03  2.54590E+04  2.97927E+04  5.17073E+03  3.90302E+04
 -2.02149E+04  3.07583E+04 -3.74134E+04  1.55943E+04 -2.95714E+04 -4.74999E+03 -5.01911E+03 -9.59574E+03
  1.22907E+03  1.68028E+03 -1.10713E+04  6.43094E+03 -2.59424E+04  8.82658E+03 -2.00804E+04 -3.05822E+03
 -1.37697E+04 -1.78737E+04  5.42230E+03 -3.30950E+04  1.75167E+04 -1.65483E+04  2.20418E+04 -1.76699E+03
  1.57804E+04  1.35843E+04  2.04066E+03  2.59293E+04 -1.85254E+04  4.93007E+03 -2.05956E+04 -6.07062E+03
 -1.55523E+04 -1.95482E+04  2.51182E+02 -3.21594E+04  1.58802E+04 -2.19365E+04  2.03111E+04 -1.81773E+04
  2.02031E+04 -2.17884E+03  1.17623E+04  2.73581E+03  8.32986E+03  6.57388E+03  1.18950E+04 -5.97653E+03
  2.44170E+04  2.63155E+03  2.89463E+04  1.86990E+04  2.21415E+04  3.50341E+04 -6.20820E+03  4.13971E+04
 -2.29708E+04  4.16934E+04 -4.38964E+04  1.98387E+04 -4.81238E+04 -6.53777E+03 -3.35498E+04 -2.70017E+04
 -1.10690E+04 -3.41590E+04  1.71086E+04 -3.03679E+04  2.74881E+04 -1.36505E+04  2.30607E+04  8.20073E+03
  6.71237E+03  1.75086E+04 -8.14027E+03  1.39501E+04 -1.26214E+04  3.82327E+03 -1.07503E+04 -7.65322E+03
  1.24287E+03 -2.57266E+04  1.34239E+04 -1.32302E+04  1.29044E+04 -6.01553E+03  3.74485E+03  8.47509E+03
 -1.33968E+04  6.27800E+03 -1.13291E+04 -1.00521E+04  2.51295E+03 -2.39844E+04  1.02632E+04 -2.35037E+04
  2.84877E+04 -1.48199E+04  2.47328E+04 -2.12443E+01  2.71937E+04  1.20171E+04  6.88250E+03  3.22270E+04
 -4.17479E+03  3.78502E+04 -2.03564E+04  1.65907E+04 -2.41849E+04  3.50693E+03 -1.05715E+04 -5.84776E+03
 -5.51152E+03 -1.15935E+04 -3.48717E+03 -1.48415E+03 -1.12164E+03  1.70730E+02 -8.84255E+03  4.84197E+03
 -1.74810E+04 -4.44727E+03 -1.50697E+04 -1.15254E+04 -5.13384E+03 -1.85678E+04  1.05550E+04 -1.73565E+04
  1.41796E+04 -6.23759E+03  8.92805E+03  5.11885E+03  1.50278E+03  3.33386E+02 -7.54473E+03 -2.76729E+03
 -9.54084E+03 -1.19220E+04 -9.54443E+03 -1.12554E+04  1.03383E+04 -1.72413E+04  1.77594E+04 -1.20106E+04
  2.22368E+04 -3.29281E+03  2.92380E+04  1.31299E+04  6.30602E+02  1.93549E+04 -8.97180E+03  1.86926E+04
 -6.20814E+03 -8.45167E+02 -4.76725E+03 -1.84419E+03  8.36400E+03  3.65469E+03  9.87255E+03  3.24322E+03
  6.60154E+03  6.65269E+03  5.86617E+03  2.10612E+04 -1.91558E+03  1.75229E+04 -1.14214E+04 -9.39110E+02
 -1.61369E+04 -8.14411E+03  3.71567E+02 -1.27970E+04  2.32644E+03 -6.73170E+03  4.87313E+03  3.98166E+03
 -1.75734E+03  1.01192E+04 -1.04379E+04  1.66057E+04 -1.67011E+04  1.76041E+03 -8.95155E+03 -1.15183E+04
 -1.32929E+04 -1.57760E+04  8.11477E+03 -2.34551E+04  9.71301E+03 -7.71503E+03  2.35587E+04 -1.68655E+03
  1.38132E+04  1.23216E+04  2.14514E+02  1.54809E+04 -1.16362E+04  1.18198E+04 -6.66403E+03  7.21695E+02
 -1.01086E+04 -5.44198E+03 -2.38247E+03 -1.27158E+04  5.08845E+03 -9.37180E+03  4.03275E+03 -1.50103E+03
  1.09949E+04 -4.90234E+03  8.57635E+02 -4.07392E+02 -9.34101E+03 -6.25684E+03 -1.53174E+03 -6.93018E+03
  1.07389E+04 -3.63993E+03  1.67888E+04  1.29646E+03  1.56933E+04  1.42735E+04  6.16078E+03  2.06980E+04
 -5.15700E+03  2.90631E+04 -2.28031E+04  1.38264E+04 -2.88958E+04  8.05898E+02 -2.54815E+04 -1.58155E+04
 -1.26907E+04 -1.66282E+04  5.25441E+03 -1.87673E+04  4.32348E+03 -5.14179E+03  6.80201E+03 -5.76618E+03
  3.76503E+03 -7.06484E+03 -5.40508E+03 -2.02567E+03  8.33063E+03 -1.01562E+02  8.78277E+03 -1.69629E+03
  9.12542E+03  5.81971E+03  1.04292E+04  8.22228E+03  3.49386E+03  1.61384E+04 -1.33767E+04  6.41988E+03
 -1.50444E+04 -1.20467E+03 -6.94540E+03 -1.80194E+04 -4.71825E+03 -1.69481E+04  1.48187E+04 -1.88921E+04
  1.70835E+04 -7.90449E+03  2.67334E+04  7.35868E+03  1.23105E+04  1.40034E+04  3.17783E+03  1.65384E+04
 -8.35953E+03  1.29844E+04 -1.51797E+04  6.15338E+03 -1.13405E+04  2.35842E+03 -4.67180E+03  4.87899E+02
 -9.17127E+02  4.73613E+03 -7.37552E+03  6.91828E+02 -1.10001E+04  1.19115E+03 -1.02075E+04  2.46622E+03
 -1.14390E+04 -1.22926E+04  1.65845E+03 -1.37938E+04  8.62546E+03 -2.05100E+04  1.01059E+04 -7.81015E+03
  1.56515E+04  1.01418E+04 -1.25099E+03  1.58877E+04 -5.71455E+03  1.10371E+04 -7.86608E+03  7.85358E+03
 -1.70856E+04  2.09972E+03 -1.42114E+04 -4.64341E+03 -2.19070E+03 -1.68920E+04  7.95993E+03 -6.61833E+03
  1.16033E+04 -3.28824E+03  3.50110E+03  2.94761E+03  5.90886E+03  1.43342E+03  3.29677E+03 -8.45451E+02
  1.35026E+03  3.34170E+03  3.06227E+03 -2.42782E+02  6.26641E+03  7.47813E+03  2.15959E+03  2.88972E+03
 -5.31870E+03  1.02522E+04 -1.41313E+04  1.77726E+04 -6.36401E+03  7.26337E+03 -1.40682E+04 -2.95650E+03
 -8.74285E+03 -2.20942E+04  1.06406E+03 -2.00188E+04  1.13899E+04 -1.74896E+04  1.69279E+04  3.50392E+00
  6.31004E+03  7.37705E+03 -6.48668E+03  1.04678E+04 -8.90008E+03  1.07153E+04 -1.03759E+04 -1.22672E+03
 -5.96209E+03 -9.24164E+03  1.59906E+03 -5.30295E+03  6.82290E+03 -5.59882E+03  9.93027E+03  2.23188E+02
 -4.16387E+03 -4.40524E+03  8.22524E+02 -6.39131E+03 -2.83028E+03  3.22498E+03  3.52180E+03 -4.88985E+03
  3.04799E+03 -5.49929E+03  1.00757E+04  3.96457E+03 -1.77696E+03  1.09947E+04 -1.84574E+03  7.63815E+03
 -6.90324E+03  4.02929E+02 -3.79299E+03  4.43523E+03 -6.50615E+03 -4.68982E+03  4.42711E+02 -9.65686E+03
  1.78636E+03 -8.60107E+03  7.88536E+03 -1.96895E+03  4.57124E+03  4.46906E+03 -3.94031E+03  4.17099E+03
 -5.38684E+02  3.41846E+03 -9.44179E+03 -2.07366E+03 -6.26303E+03 -5.08889E+03 -4.53976E+03 -1.25433E+04
  8.77386E+03 -5.80377E+03  3.85145E+03  2.18702E+03  3.95603E+02  1.02640E+04  3.52962E+03  3.30183E+03
 -2.11160E+03 -1.89786E+03 -6.64946E+03 -2.10666E+03  3.74244E+03 -5.55938E+03  6.76747E+03 -5.60675E+03
  1.27278E+04  2.94852E+03  4.88704E+03  1.17344E+04 -1.74303E+03  1.31993E+04 -6.89738E+03  7.32766E+03
 -6.95212E+03  1.96968E+03 -9.72806E+03 -2.15098E+03  3.22087E+03 -3.09838E+03  5.51620E+03 -1.62345E+03
  6.76635E+03 -4.37989E+03  7.35775E+03  1.13513E+04  1.36294E+03 -2.19284E+03  5.36346E+03  1.14578E+03
 -8.89432E+02  8.42393E+03 -2.36556E+03  6.84817E+03  3.02244E+02 -1.81427E+03 -6.04711E+02  1.44267E+03
 -1.19320E+03  9.00823E+02 -6.04618E+03  1.43855E+03 -6.47925E+03  9.76432E+02 -9.59023E+03 -8.55861E+03
 -5.43281E+03 -1.05417E+04  8.34814E+02 -1.06815E+04  7.93252E+03 -1.16315E+04  1.51934E+04 -1.15386E+04
  1.09178E+04  4.47584E+03  7.95235E+03  1.22364E+04  1.98802E+02  4.84647E+03 -1.32219E+03  5.85556E+03
 -1.15527E+04  2.51590E+03 -8.47853E+03 -2.32547E+03 -4.72333E+03 -9.82812E+02 -3.45727E+03  1.88943E+03
 -2.91756E+03  1.37393E+03 -6.80972E+02 -5.92743E+03 -5.83390E+03 -2.32120E+03  3.89383E+02 -8.37941E+03
  9.20078E+03 -6.03224E+03  7.92306E+03 -2.42509E+03  8.98823E+03  5.69575E+03 -2.57719E+03  1.14238E+04
 -6.82263E+03  8.08234E+03 -1.94136E+04  1.28993E+04 -7.95997E+03 -2.51581E+03 -1.40816E+04 -4.71096E+03
 -5.28593E+03 -1.48919E+04  9.30866E+03 -3.46020E+03  8.68611E+03 -1.00245E+04  1.83832E+03 -4.03989E+03
  3.74543E+03  2.27680E+02 -3.22139E+03  4.84502E+03 -2.88178E+03 -4.29844E+03 -5.09163E+03 -9.39783E+02
  1.27380E+03 -6.57246E+03  3.53652E+03  2.31889E+03  3.93832E+03  9.55169E+00  2.72088E+03  2.79863E+03
 -8.57435E+03  1.13084E+03 -4.74121E+03  2.74340E+03 -4.23724E+03 -1.73759E+03 -4.81434E+03 -6.83444E+03
  6.17480E+03 -3.09343E+03  5.77638E+03 -5.01996E+03  1.07759E+04 -3.39869E+02  6.99890E+03  3.05789E+03
 -1.75770E+02  1.49889E+04 -2.65497E+03  2.54388E+03  3.73699E+02 -1.42469E+03  1.12440E+03 -2.48710E+03
 -3.33813E+03 -2.57434E+03 -2.77230E+03  1.09955E+03 -9.69147E+02  6.92240E+03 -1.48748E+03 -8.80874E+02
 -8.19940E+03 -3.23953E+03 -2.57387E+03  3.19172E+03  4.40226E+03 -1.14645E+04  3.26700E+03 -1.40503E+03
  4.72733E+03 -4.44300E+03 -4.37589E+02  8.92874E+03 -4.49839E+02  6.06433E+03 -4.01407E+03  4.72908E+03
