 $NMID ID='MM_0lb_SNR50_17hz_g40_71.RAW', FMTDAT='(8E13.5)'
 TRAMP=1., VOLUME=1. $END
  3.11584E+05  3.41023E+03  3.39026E+05  2.54034E+05  8.94609E+04  3.31157E+05 -1.30924E+05  2.51849E+05
 -1.88077E+05  8.66972E+04 -1.13483E+05 -3.16097E+04 -1.10175E+03 -4.99821E+04  5.38219E+04  7.04439E+02
  3.57621E+04  4.93697E+04 -1.93504E+04  7.50237E+04 -5.49359E+04  6.31907E+04 -8.13728E+04  3.06960E+04
 -8.15102E+04 -1.16480E+04 -5.42604E+04 -5.11247E+04 -1.52804E+04 -7.09097E+04  2.86875E+04 -4.73643E+04
  3.98013E+04  1.35580E+03  1.59668E+04  4.72068E+04 -3.55408E+04  4.91501E+04 -6.74469E+04  2.99805E+03
 -5.17286E+04 -5.64003E+04 -3.75110E+03 -7.75349E+04  3.57266E+04 -5.09732E+04  4.73993E+04 -1.82811E+04
  4.08086E+04  1.23168E+04  3.13027E+04  2.42352E+04  1.75166E+04  2.73733E+04 -3.09381E+03  2.88210E+04
 -1.92929E+04  1.50350E+04 -1.98752E+04 -7.53944E+03  1.97986E+02 -6.51019E+03  2.19114E+04  8.72540E+03
  3.67034E+03  3.37580E+04 -3.09546E+04  3.13419E+04 -6.21980E+04  3.75661E+03 -5.47490E+04 -3.85901E+04
 -1.19419E+04 -6.49480E+04  4.07495E+04 -4.24175E+04  5.98201E+04  1.95757E+03  3.12177E+04  2.90683E+04
 -7.47136E+03  2.95127E+04 -3.07596E+04  1.31578E+04 -2.79588E+04 -5.76364E+03 -1.63341E+04 -3.98610E+03
 -1.11775E+04 -1.26374E+04  3.60704E+03 -2.08423E+04  9.69647E+03 -2.36491E+04  1.50462E+04 -1.26685E+04
  1.52808E+04  4.94050E+03 -6.15157E+03  1.28105E+04 -2.25656E+04 -1.07246E+03 -1.45875E+04 -3.04106E+04
  2.05439E+04 -4.25122E+04  4.08742E+04 -1.45260E+04  3.83889E+04  1.49867E+04  1.59192E+04  4.12094E+04
 -1.16821E+04  2.91322E+04 -1.99935E+04  1.90237E+03 -1.03548E+04 -2.88774E+04  2.02812E+04 -3.11966E+04
  3.96008E+04 -1.15410E+04  3.20958E+04  2.25820E+04  1.01315E+04  4.50875E+04 -8.13887E+03  4.49165E+04
 -3.09130E+04  3.13056E+04 -4.01650E+04  9.42096E+03 -3.81810E+04 -1.19097E+04 -2.38227E+04 -3.49382E+04
  6.71556E+03 -3.39086E+04  2.95113E+04 -1.48705E+04  2.89948E+04  6.58289E+03  1.83479E+03  2.02181E+04
 -1.33640E+04  6.46633E+03 -7.69845E+03 -9.14151E+03  4.95040E+03 -6.21492E+03  1.56865E+04  7.16112E+03
  1.55264E+04  2.02977E+04 -5.16807E+03  2.61315E+04 -2.32298E+04  1.01290E+04 -2.44579E+04 -3.81484E+03
 -1.24688E+04 -1.34738E+04 -6.98948E+03 -1.84311E+04  5.42581E+03 -1.40626E+04  1.43499E+04 -1.57608E+04
  2.50772E+04 -9.46852E+03  2.72893E+04  6.93903E+02  1.86523E+04  1.50926E+04  4.59895E+03  3.20629E+04
 -1.92085E+04  2.95968E+04 -2.62860E+04  9.45500E+03 -2.17931E+04 -1.37226E+04 -3.14756E+03 -1.80003E+04
 -4.16998E+02 -4.66387E+03 -2.69459E+03  7.87052E+03 -1.24314E+04  4.63647E+03 -1.17552E+04 -4.21839E+03
 -1.00796E+04 -1.60452E+04  4.67409E+03 -1.89287E+04  1.25140E+04 -1.36696E+04  1.25221E+04  8.91897E+02
  9.37605E+03  1.02416E+04  1.27510E+03  1.65747E+04 -9.24940E+03  1.26899E+04 -1.69768E+04 -1.33115E+03
 -9.23214E+03 -1.55108E+04 -5.15901E+03 -1.61428E+04  7.42640E+03 -1.51193E+04  1.75320E+04 -1.15038E+04
  2.04660E+04  6.11902E+02  9.66102E+03  8.61528E+03  5.29203E+03 -6.13086E+02  5.87509E+03  1.36835E+03
  1.55956E+04  6.47224E+03  1.12367E+04  1.32678E+04  8.76275E+03  2.81013E+04 -2.08747E+03  2.43339E+04
 -1.53429E+04  1.78911E+04 -2.42308E+04  1.05723E+04 -2.60955E+04 -3.64048E+03 -1.79580E+04 -1.31381E+04
 -9.30002E+03 -1.99711E+04  4.98110E+03 -1.93072E+04  1.73301E+04 -1.14312E+04  1.62330E+04  3.50155E+03
  4.89599E+03  1.60400E+04 -1.40350E+04  1.51363E+04 -1.47365E+04  2.35778E+03 -8.64712E+03 -4.52196E+03
 -7.51481E+02 -1.03244E+04  5.42066E+03 -8.29945E+03  8.93436E+03 -4.51403E+03 -6.83409E+02  3.33988E+03
 -2.49199E+03 -9.54030E+02 -4.36915E+03 -7.05580E+03  2.91362E+03 -8.43311E+03  8.86757E+03 -1.33553E+04
  1.46022E+04 -6.34372E+03  1.61312E+04  4.47937E+03  1.41486E+04  1.05373E+04  6.70911E+03  1.61132E+04
 -4.10162E+03  1.78857E+04 -1.14425E+04  1.20523E+04 -1.29326E+04  5.12785E+03 -9.54877E+03  6.88313E+02
 -9.30861E+03 -3.79662E+03  2.62996E+03  1.74304E+03 -4.59078E+03  3.81326E+03 -4.02194E+03  1.07242E+03
 -7.55672E+03 -5.42216E+03 -7.91041E+03 -9.44371E+03 -1.15303E+03 -9.99843E+03  2.77475E+03 -1.27616E+04
  7.72536E+03 -2.52556E+03  3.79888E+03  2.55239E+03  8.38652E+02  4.04426E+03 -4.70336E+03 -1.52708E+03
 -4.72762E+03 -7.68379E+03 -3.41707E+03 -8.46850E+03  3.61374E+02 -1.23562E+04  9.44197E+03 -1.94069E+03
  1.75294E+04  2.54555E+02  6.49628E+03  9.68303E+03  2.41021E+03  8.93445E+03 -6.08560E+03  1.10101E+04
 -4.75082E+03  4.45062E+02 -4.95836E+03 -5.76526E+02  9.33341E+02 -2.63028E+03  3.55735E+03  1.43565E+03
  5.59938E+03  3.79478E+03  2.42405E+03  5.71646E+03 -4.12193E+03  5.60168E+03 -8.49444E+03  5.67049E+03
 -6.33406E+03 -5.13847E+03 -1.85482E+03 -1.18910E+04  2.79768E+03 -4.02977E+03  2.46153E+03  8.79587E+02
  1.22358E+03  2.48045E+03 -4.50516E+03  5.68344E+03 -8.63119E+03  7.85743E+03 -6.19357E+02  1.07339E+02
 -4.66055E+03 -8.67689E+03  7.33340E+02 -6.62475E+03  6.88941E+03 -6.22139E+03  7.02878E+03 -1.80426E+02
  5.45619E+03  6.79225E+03  2.41045E+03  7.51719E+03 -5.06924E+03  4.60783E+03 -5.80204E+03  1.19568E+02
 -5.98123E+03 -7.77993E+03 -3.97573E+03 -5.07095E+03  3.15735E+02 -4.75535E+03  6.27777E+03 -5.09942E+03
  9.80883E+02  2.02555E+03 -7.57219E+01  1.92100E+03 -2.95617E+03 -2.96632E+03  4.18421E+03 -2.97374E+03
  4.32547E+03 -2.72155E+02  3.87567E+03  2.91413E+02  3.05378E+03  4.58684E+02  4.37590E+03  7.87309E+03
 -1.28840E+03  1.09664E+04 -8.12935E+03  4.88987E+03 -1.21757E+04 -2.37055E+03 -1.04825E+04 -4.59743E+03
 -9.07824E+03 -9.93008E+03  2.67817E+03 -3.22829E+03  2.19289E+03 -2.33485E+03  9.34786E+02 -3.12982E+03
 -2.12186E+03 -3.87257E+03  5.18316E+03 -1.23706E+03  4.51122E+03 -6.27889E+02  3.25529E+03  2.21694E+03
  6.19796E+03  2.39889E+03  6.02941E+03  1.03757E+03 -6.28845E+03  4.03731E+03 -1.41045E+03 -1.59780E+03
 -7.20069E+03  1.36713E+03 -3.94119E+03 -5.04259E+03 -1.32956E+03 -8.33383E+03  1.79251E+03 -5.43382E+03
  9.73590E+02 -3.01753E+03  8.28165E+03  9.47189E+02  5.16482E+03  9.98050E+02  7.15661E+03  6.73032E+02
 -2.39738E+02  7.58346E+03 -1.81023E+03  4.16200E+03 -1.14434E+03 -1.20238E+03 -4.75303E+03  1.63079E+03
 -2.26361E+03 -1.46323E+03 -6.03057E+03  5.04937E+03 -3.89275E+03  2.15143E+03 -4.26743E+03 -3.50124E+03
 -1.62004E+03 -7.68313E+03 -1.97345E+02 -5.63314E+03  5.87832E+03 -5.14231E+03  2.47609E+03 -9.62392E+02
  6.96126E+03  1.85850E+03  7.11170E+02  2.29167E+03 -2.32115E+03  3.29176E+03 -3.59370E+03  2.59913E+03
 -3.97995E+03 -2.14824E+03 -4.52172E+02  1.52170E+03 -1.19402E+03 -5.52258E+03  5.22647E+03 -2.70637E+03
  2.96498E+03 -1.66116E+03  2.42849E+03 -5.12914E+03 -3.85051E+03  2.48480E+03  2.28512E+03  1.68647E+03
  2.75334E+03  3.63096E+02  1.24904E+03 -3.00527E+03 -2.28417E+03  1.69508E+02  4.17088E+03  2.01044E+03
 -6.10329E+02  2.78471E+03 -1.93044E+01  3.29455E+03 -3.17105E+03  2.12395E+03 -8.66852E+03 -2.67739E+03
 -1.08486E+03 -2.09570E+03  1.37050E+03 -7.24330E+03  1.52103E+03 -7.27525E+03  5.79837E+03  1.69249E+03
  4.30672E+03  6.32294E+02  1.38210E+02  6.63815E+03 -3.55638E+03  6.15118E+02 -5.75522E+03  9.43241E+02
 -1.94386E+03 -1.38922E+03  5.09481E+03 -5.52953E+02  5.46569E+03  7.55202E+02  3.06481E+03 -1.78722E+03
  5.41710E+03  2.63956E+02 -3.38122E+03 -9.82504E+02  7.94362E+02 -1.38432E+03 -4.94637E+02 -6.55668E+03
 -3.03387E+03 -3.41974E+03 -1.87787E+03  1.18499E+03 -3.60557E+02  8.90382E+03 -1.10070E+03  4.37712E+03
 -2.53573E+03 -2.52312E+03 -3.64799E+03 -1.12396E+03  3.12413E+02 -6.45396E+03 -4.14088E+02 -1.07840E+03
  5.17761E+02 -2.09598E+03  2.86681E+03 -3.00052E+03  7.36747E+03  1.35616E+02 -1.49699E+03  3.38835E+03
 -4.10528E+02  1.06507E+03 -2.56232E+03 -4.01910E+02 -1.69335E+03 -7.86837E+03 -1.10679E+03 -1.52774E+03
 -3.78122E+02  1.54330E+03  9.32994E+02  4.43626E+03 -6.07945E+02 -2.61952E+03  2.40056E+03  9.92003E+02
 -1.32139E+03  4.48663E+02 -1.43695E+02  4.58821E+03  3.24796E+03 -3.18470E+03  1.48685E+02 -4.06656E+03
 -2.62206E+03  5.38198E+02  4.37577E+03 -8.21287E+02  4.66100E+03  1.30458E+03 -5.51833E+03  4.90697E+03
 -1.95829E+02  5.38848E+03 -8.28283E+02  1.04965E+03 -2.28016E+03 -5.25460E+03  6.69852E+02 -3.02507E+03
  5.21967E+03 -2.08588E+03  3.55733E+03 -3.03257E+02  2.22410E+03 -1.77640E+03 -2.71243E+03  3.52459E+03
 -6.03322E+02 -9.50105E+02 -3.64405E+03 -1.04141E+03  9.23477E+02 -6.20182E+03 -1.64406E+03  3.73206E+03
 -3.83058E+03  4.89896E+03 -2.32739E+03  1.00450E+03 -3.95981E+03 -1.23541E+03 -5.83603E+03 -5.06027E+03
 -1.91534E+03 -5.33480E+03 -7.86640E+02 -6.15559E+03  2.08251E+03 -4.98767E+03  7.92848E+03 -8.77005E+02
  4.31213E+02 -1.98038E+03  1.83528E+03  8.50719E+03 -1.18327E+03  3.48732E+03  6.65300E+02  6.01432E+02
 -4.61544E+01  1.06810E+03 -3.79001E+03 -3.22976E+03 -7.99957E+02  2.60664E+03  5.87636E+02 -4.08751E+02
  6.45340E+01  1.62835E+03  4.19334E+02  2.47818E+02 -1.28564E+02 -2.95171E+03  1.62203E+03 -2.69100E+03
  2.11087E+03 -2.08238E+03 -7.65821E+00  2.51607E+03  5.14826E+02  2.40712E+03  4.24970E+02  3.16368E+03
  2.50358E+03  5.99611E+03  3.37804E+03  5.12810E+03 -4.62451E+03  1.06376E+03 -3.98338E+03 -5.76461E+03
  1.74890E+02 -2.35555E+02  3.11348E+03 -2.16676E+03  2.51608E+03  3.89481E+03 -3.02930E+03 -4.35315E+02
  3.84069E+03  7.49594E+02 -1.58827E+03 -1.21171E+03  4.94703E+02 -4.59433E+03  2.04493E+03  2.56558E+03
  2.64595E+03 -6.57513E+02  1.11615E+03  2.37191E+03 -1.15419E+03  1.63849E+03  3.21788E+03  5.01624E+03
 -6.95119E+02  6.69369E+02 -3.54164E+03  2.50788E+03 -4.31911E+03  1.00428E+03 -2.76034E+03 -1.03785E+03
 -5.25882E+03  2.58866E+03 -8.58914E+02  3.74193E+03  5.40619E+03  3.40722E+02  1.69125E+03  4.94333E+02
 -4.17807E+03 -1.63749E+03  2.14712E+02  3.82144E+02 -1.72617E+03  2.98931E+03 -1.19608E+03  8.61081E+02
 -4.49885E+02 -1.06402E+03  2.89396E+02 -1.45524E+03 -2.41396E+03 -7.68633E+02 -2.78947E+03 -5.25921E+02
  4.20861E+03 -3.64526E+02 -4.66351E+03 -3.16058E+03  1.49558E+03 -1.88959E+03  3.86815E+02  6.30961E+03
 -8.16004E+02  2.62237E+03 -5.72542E+01  3.22398E+03 -6.05820E+02 -1.15548E+03 -3.05369E+03 -2.03256E+03
