 $NMID ID='MM_0lb_SNR50_7hz_g60_6.RAW', FMTDAT='(8E13.5)'
 TRAMP=1., VOLUME=1. $END
  3.04587E+05 -3.70341E+03  3.37484E+05  2.49751E+05  8.80617E+04  3.35979E+05 -1.35821E+05  2.48687E+05
 -1.93415E+05  8.44517E+04 -1.06513E+05 -3.86451E+04 -6.19886E+03 -5.61521E+04  5.93143E+04 -7.68105E+03
  3.69147E+04  5.00568E+04 -1.68115E+04  8.00466E+04 -6.02290E+04  6.44300E+04 -8.12191E+04  3.18942E+04
 -8.03005E+04 -1.09682E+04 -6.36220E+04 -4.96814E+04 -1.67948E+04 -7.37160E+04  2.71445E+04 -4.75265E+04
  4.28837E+04  1.63571E+02  1.69909E+04  5.33465E+04 -2.76305E+04  5.43709E+04 -7.15450E+04  6.64980E+02
 -4.51707E+04 -5.36935E+04 -1.09363E+04 -7.71155E+04  3.27513E+04 -6.01313E+04  4.53009E+04 -1.49291E+04
  5.07431E+04  7.69819E+03  3.47096E+04  2.82412E+04  1.73830E+04  3.39806E+04 -9.83750E+03  3.11344E+04
 -2.19925E+04  1.19029E+04 -2.22276E+04 -4.97186E+03  1.34379E+04 -1.26142E+04  2.61823E+04  2.11985E+04
  3.46191E+03  3.62740E+04 -3.44422E+04  3.92063E+04 -6.54283E+04  1.26273E+03 -5.59077E+04 -4.46437E+04
 -6.85949E+03 -5.91420E+04  4.85591E+04 -4.20227E+04  5.72229E+04 -1.07404E+04  4.03783E+04  3.02004E+04
  2.24976E+03  4.54405E+04 -3.26902E+04  1.68157E+04 -3.74357E+04 -1.79031E+03 -2.51562E+04 -6.56034E+03
 -1.12870E+04 -2.12168E+04  3.85342E+03 -2.21015E+04  7.24920E+03 -1.95491E+04  1.73754E+04 -1.51681E+04
  1.91955E+04  1.35379E+04 -7.48591E+03  1.24451E+04 -3.03900E+04 -1.11403E+04 -6.64553E+03 -4.30234E+04
  2.87668E+04 -5.10410E+04  5.07593E+04 -1.95806E+04  4.48880E+04  1.77532E+04  1.76455E+04  4.92245E+04
 -1.98329E+04  3.59115E+04 -3.55409E+04  4.40401E+03 -1.55382E+04 -2.49713E+04  2.71952E+04 -3.93453E+04
  4.02465E+04 -1.01676E+04  4.58668E+04  2.30961E+04  2.02738E+04  5.28341E+04 -3.57090E+03  5.46203E+04
 -3.13139E+04  4.23540E+04 -5.46790E+04  1.22433E+04 -5.54379E+04 -1.63753E+04 -2.46081E+04 -3.95117E+04
  5.38484E+03 -4.38334E+04  3.80182E+04 -1.71508E+04  3.41168E+04  6.77236E+03  6.13142E+03  1.85101E+04
 -1.25394E+04  1.42149E+04 -1.10935E+04 -1.90712E+03  1.38363E+03 -1.04016E+04  1.97672E+04  1.05408E+04
  1.74478E+04  2.46431E+04 -8.61358E+03  2.82139E+04 -2.66078E+04  1.54533E+04 -3.27855E+04 -2.80244E+03
 -2.81964E+04 -1.93082E+04 -8.27935E+03 -2.81035E+04  6.68620E+01 -2.56189E+04  2.50579E+04 -2.75386E+04
  2.96398E+04 -1.62525E+04  4.43275E+04  1.42741E+04  2.49403E+04  2.83701E+04 -2.27510E+03  3.72277E+04
 -1.62596E+04  3.25115E+04 -3.63994E+04  1.17804E+04 -2.90354E+04 -1.55761E+04 -3.56083E+03 -1.53312E+04
  8.60468E+03  1.03346E+03 -5.21753E+03  4.88984E+03 -2.40802E+04  5.78608E+03 -2.39372E+04 -1.94856E+04
 -1.80153E+04 -2.54733E+04  4.96131E+03 -3.21445E+04  1.74015E+04 -2.60109E+04  2.48424E+04 -1.36006E+03
  2.32477E+04  2.36039E+04  2.37908E+03  2.08739E+04 -1.38283E+04  6.51274E+03 -2.83924E+04 -1.49848E+04
 -1.63656E+04 -2.45754E+04 -7.52910E+03 -2.91913E+04  1.66247E+04 -2.03913E+04  2.49305E+04 -1.24089E+04
  3.00570E+04 -2.04947E+03  9.21586E+03  4.25405E+03  7.00868E+03 -4.17530E+03  2.89171E+03 -1.24230E+03
  2.85442E+04  3.06168E+03  3.33753E+04  2.03809E+04  2.02327E+04  4.15276E+04  4.34237E+02  4.79673E+04
 -3.26768E+04  4.67156E+04 -4.59981E+04  2.41306E+04 -5.30989E+04  4.58017E+03 -5.00181E+04 -3.09395E+04
 -1.45799E+04 -4.30426E+04  1.11409E+04 -3.02196E+04  3.49589E+04 -1.76507E+04  3.43893E+04  1.06582E+04
  8.51104E+03  2.89423E+04 -1.33199E+04  1.90777E+04 -2.87651E+04 -1.48328E+03 -1.50757E+04 -1.81652E+04
 -2.94765E+02 -1.95389E+04  1.42066E+04 -1.51495E+04  1.45318E+04 -1.26987E+03  1.29465E+04  6.33064E+03
 -7.94941E+03  8.68524E+03 -1.52172E+04 -8.25576E+03  6.24622E+03 -2.00659E+04  1.85364E+04 -2.24823E+04
  2.73672E+04 -2.09867E+04  2.59803E+04  8.24041E+03  2.65115E+04  2.44550E+04  1.05832E+04  4.29382E+04
 -7.75810E+03  3.46988E+04 -2.79192E+04  2.18844E+04 -2.53023E+04  2.29059E+03 -2.25484E+04 -1.27066E+04
 -1.21295E+04 -1.31059E+04 -4.17983E+03  5.11430E+03 -2.78497E+02  3.65064E+03 -6.04346E+03  3.58838E+03
 -1.65546E+04 -3.08492E+03 -1.69766E+04 -7.30599E+03 -6.55781E+03 -2.50579E+04  7.86047E+03 -1.45787E+04
  1.27998E+04 -7.63822E+03  1.34874E+04  6.31615E+03 -7.26527E+03 -2.20071E+03 -1.47881E+04  5.07401E+02
 -1.28056E+04 -1.57630E+04 -6.72939E+03 -1.57374E+04  1.46525E+04 -9.95049E+03  2.12474E+04 -1.37135E+04
  2.63689E+04  3.90867E+03  1.14046E+04  1.76431E+04  5.80407E+03  1.96217E+04 -1.09191E+04  2.41409E+04
 -1.86003E+04  6.08389E+03 -2.17553E+03 -1.26839E+04  4.17855E+03 -1.25820E+04  1.32787E+04  1.35672E+03
  3.35606E+03  1.29861E+04  2.96905E+03  6.84233E+03 -1.25811E+04  5.42641E+03 -1.91644E+04 -2.99244E+02
 -1.55156E+04 -1.09664E+04 -1.56606E+03 -2.19989E+04  3.52756E+03 -1.68034E+04  1.20023E+04  9.08145E+03
 -4.44144E+03  1.86459E+04 -2.88804E+03  1.13504E+04 -2.46424E+04  7.44033E+03 -1.26242E+04 -3.98508E+03
 -1.16068E+04 -1.06263E+04  9.46788E+02 -2.82511E+04  2.45239E+04 -1.57323E+04  2.58996E+04 -2.26622E+03
  1.23649E+04  1.97148E+04 -5.39970E+03  2.11006E+04 -1.20734E+04  1.64902E+04 -1.47529E+04 -7.83581E+03
 -8.20032E+03 -1.29415E+04 -2.52003E+03 -1.99009E+04  3.64304E+03 -4.67215E+03  9.09927E+03 -2.49621E+01
  2.35039E+03  4.84235E+03 -3.19791E+03 -4.08631E+03 -7.76432E+03 -6.82092E+03  2.85811E+02 -1.12051E+04
  1.32201E+04 -5.00572E+03  3.02641E+04  2.15369E+03  2.10898E+04  1.94239E+04  1.31519E+04  2.45175E+04
 -1.31810E+04  3.13276E+04 -2.63973E+04  1.63355E+04 -3.61761E+04  4.06752E+03 -2.50526E+04 -1.35235E+04
 -1.46866E+04 -2.91370E+04  1.70119E+03 -1.55402E+04  3.60050E+03 -6.83749E+03  1.14777E+04 -3.61006E+03
  7.36803E+03 -1.16915E+03  6.84490E+03 -9.47593E+03  4.58178E+03 -5.98951E+03  1.34799E+04  1.21804E+03
  1.48667E+04  4.43800E+03  5.93592E+03  1.27521E+04 -7.67181E+02  1.00940E+04 -1.75869E+04  2.87342E+03
 -1.52634E+04 -1.10708E+03 -1.45436E+04 -1.28653E+04 -1.51427E+03 -3.06603E+04  3.23543E+03 -1.81972E+04
  2.84075E+04 -1.98055E+04  2.71135E+04  3.38452E+03  1.85709E+04  1.81865E+04  7.56007E+03  2.52343E+04
 -1.47578E+04  2.02301E+04 -1.77725E+04  9.83351E+03 -1.26487E+04 -2.48085E+03 -5.40291E+03 -4.75594E+03
 -1.42528E+03 -5.15421E+02 -4.14497E+03 -1.24301E+03 -4.21340E+03  4.48348E+03 -9.29974E+03 -1.40951E+03
 -1.46165E+04 -1.39355E+04  3.30238E+03 -1.64403E+04  6.89382E+03 -2.08372E+04  2.85718E+04  1.06272E+03
  2.36184E+04  1.39025E+04  1.28980E+04  1.84830E+04 -2.76060E+03  1.35671E+04 -1.71430E+04  1.61213E+04
 -2.09698E+04  4.80503E+03 -1.17809E+04 -1.79080E+04  3.71755E+03 -2.31073E+04  8.32214E+03 -9.74621E+03
  9.48975E+03 -1.19227E+03  1.23561E+04  7.50191E+03 -1.10273E+03  8.65038E+03 -2.52718E+03  2.40707E+03
  4.73140E+02 -1.46141E+02  4.47468E+03 -3.47622E+00  1.20975E+04  3.33057E+03  2.83772E+03  1.44285E+04
 -7.28996E+03  1.02054E+04 -1.29586E+04  2.09269E+04 -2.89665E+04  6.07041E+03 -1.91882E+04 -1.13174E+04
 -1.14113E+04 -1.43365E+04 -3.69036E+02 -2.46276E+04  7.57321E+03 -1.36322E+04  2.04951E+04 -3.11592E+03
  7.61786E+03  4.50342E+03  7.01546E+03  1.13922E+04 -4.94604E+03  2.36077E+03 -6.92992E+03 -8.18990E+03
 -5.50843E+03 -1.24428E+04  6.64821E+03 -1.47621E+04  8.11809E+03 -4.15452E+03  5.93745E+03  3.49765E+03
  9.14298E+03  1.62518E+03 -2.19659E+03  7.79451E+03  3.03650E+03  9.25777E+03  1.93450E+03 -1.84085E+03
  6.79471E+03 -3.50758E+03  8.44402E+03 -6.50778E+02  1.91026E+02  4.15371E+03  4.66012E+03  1.69233E+04
 -1.21979E+04  1.75993E+04 -1.26663E+04  8.72612E+03 -1.05043E+04 -5.72466E+03 -1.83348E+03 -1.42308E+04
 -1.93014E+03 -1.11784E+04  2.53429E+03 -9.28829E+03  5.30056E+03  1.84206E+03  4.13957E+03  1.01604E+04
 -4.81025E+03  9.94493E+03 -7.66519E+03 -1.27490E+03 -1.96170E+03 -1.16049E+04  1.12205E+04 -7.37197E+03
  8.25253E+03 -1.31663E+04  8.44043E+03  1.27078E+03  1.15734E+04 -3.09061E+03 -4.83402E+03  2.50522E+03
 -6.22358E+02  1.41627E+03 -8.13362E+03  5.81340E+03  1.42351E+03 -1.20602E+04  1.39353E+04 -1.14596E+04
  1.00326E+04  7.25813E+03  1.69740E+04  9.20154E+03 -7.41415E+01  1.90232E+04 -7.19384E+03  1.33186E+04
 -1.85415E+04  7.28164E+03 -1.52373E+04 -2.76456E+03 -6.03218E+03 -6.86537E+03  2.15684E+03 -1.14521E+04
  1.24800E+04 -4.14840E+03  1.22410E+04  2.92639E+03  9.71944E+02  8.26801E+03  7.29241E+01  1.68746E+03
 -2.62542E+03  5.68174E+03 -8.95208E+03 -6.34173E+03 -4.72282E+03  3.41380E+03  4.11677E+03  4.26867E+03
 -2.76970E+03  9.02806E+03 -1.59662E+04  3.91219E+03 -2.08211E+04  5.08290E+02 -1.46622E+04 -9.06964E+03
 -1.07623E+04 -2.15910E+04  4.41102E+03 -2.15791E+04  1.15508E+04 -1.75357E+04  1.71221E+04 -2.69934E+03
  3.13607E+04  8.21086E+03  1.79254E+04  1.48372E+04 -4.87979E+03  1.82701E+04 -6.64479E+03  1.08464E+04
 -5.62879E+03  2.60999E+03 -4.11891E+03  2.97202E+03 -2.04184E+03  5.15516E+03 -9.15939E+03 -1.06208E+03
 -5.28563E+03  2.28090E+02 -1.40513E+04 -1.95380E+03  1.07866E+03 -3.69722E+03 -1.24599E+03  3.27685E+01
  2.00249E+03 -2.62018E+03  9.19298E+03  6.63771E+02  9.72696E+03  1.12565E+04  6.11224E+03  2.13162E+04
 -1.41534E+04  1.62759E+04 -1.54169E+04  7.56838E+03 -1.91006E+04 -9.70116E+03 -1.35246E+04 -1.52247E+04
 -7.04832E+03 -2.05731E+04  9.62875E+03 -1.41664E+04  8.83093E+03 -1.13723E+04  4.06953E+03  4.00186E+03
  5.22895E+03  8.59378E+03  5.23449E+03  9.99703E+01 -9.27842E+03 -3.52393E+03 -1.97704E+03 -7.56930E+03
 -3.63243E+03 -4.56595E+02  3.24003E+03  4.14723E+02  3.08673E+03  3.46209E+03 -1.29325E+03  9.75334E+03
 -3.59901E+03  8.12900E+03 -6.94331E+03 -1.96162E+03 -7.01280E+03 -8.35432E+03 -2.63839E+03 -5.15064E+03
  4.81060E+03 -5.15823E+03  1.57331E+04 -5.25410E+03  8.61660E+03 -4.50344E+03  7.47287E+03  1.27979E+04
  4.19549E+02 -1.83825E+03 -3.41473E+03  6.49886E+03 -6.28213E+03 -5.49960E+02 -3.22623E+03  3.58220E+03
 -6.12335E+03 -8.73812E+03 -3.75963E+03  1.36133E+03 -1.25400E+02 -2.95905E+03 -8.59394E+03 -3.34953E+03
 -1.04088E+04 -7.81213E+03 -2.25625E+03 -8.90161E+03  2.86938E+02 -1.55223E+04  1.26807E+04  2.17295E+03
  6.85150E+03 -3.24673E+03  8.51629E+03  7.54423E+03  1.91670E+03  1.22464E+04 -3.11129E+03  3.49011E+03
