 $NMID ID='MM_0lb_SNR50_18hz_g40_81.RAW', FMTDAT='(8E13.5)'
 TRAMP=1., VOLUME=1. $END
  3.08463E+05 -3.74207E+03  3.42638E+05  2.51186E+05  8.48678E+04  3.34972E+05 -1.35213E+05  2.50801E+05
 -1.90912E+05  8.13979E+04 -1.08663E+05 -3.70153E+04  2.72287E+03 -5.31524E+04  5.58624E+04  6.82110E+02
  3.71704E+04  4.91962E+04 -1.86082E+04  7.66977E+04 -6.36227E+04  5.81108E+04 -8.36117E+04  3.06837E+04
 -7.76879E+04 -1.11555E+04 -5.53368E+04 -5.04693E+04 -1.61118E+04 -7.08873E+04  2.35365E+04 -4.83834E+04
  3.73105E+04  1.57021E+03  1.77140E+04  4.64350E+04 -3.20818E+04  4.35555E+04 -6.05583E+04 -5.14496E+03
 -5.27975E+04 -5.32960E+04 -7.02280E+02 -7.36891E+04  3.21547E+04 -5.33719E+04  4.59767E+04 -1.87368E+04
  4.04634E+04  7.79678E+03  2.89375E+04  2.39879E+04  1.59721E+04  3.08922E+04 -7.70702E+03  2.78139E+04
 -1.84000E+04  1.17853E+04 -1.78077E+04 -7.87270E+03  4.45989E+03 -8.93334E+03  2.35542E+04  6.22984E+03
  5.50712E+03  3.72513E+04 -2.64060E+04  3.19008E+04 -6.19356E+04  2.41428E+03 -5.78238E+04 -4.40093E+04
 -1.63865E+04 -5.59321E+04  3.63801E+04 -4.17435E+04  5.36142E+04 -2.83846E+03  3.31358E+04  2.88255E+04
 -6.71240E+03  3.34247E+04 -3.29526E+04  1.25778E+04 -2.21921E+04 -5.40319E+03 -1.35685E+04 -1.05053E+04
 -1.81976E+03 -1.07701E+04 -3.26621E+03 -1.53901E+04  4.62079E+03 -1.89926E+04  1.72614E+04 -1.24705E+04
  9.40248E+03  4.54447E+03 -5.29705E+03  1.80151E+04 -1.92801E+04 -3.46611E+03 -4.98821E+03 -3.22550E+04
  1.55785E+04 -3.91001E+04  4.51826E+04 -1.84305E+04  4.17478E+04  1.75568E+04  1.47809E+04  4.36498E+04
 -1.42632E+04  2.96654E+04 -2.14182E+04  1.95891E+03 -4.21576E+03 -2.29389E+04  2.17642E+04 -2.89100E+04
  3.74392E+04 -8.44168E+03  3.17119E+04  2.01350E+04  1.17002E+04  4.33148E+04 -1.16935E+04  4.67841E+04
 -2.76780E+04  3.10723E+04 -3.49236E+04  1.17140E+04 -3.50695E+04 -1.33497E+04 -2.24724E+04 -3.03356E+04
  9.11815E+03 -3.33332E+04  3.06585E+04 -1.20513E+04  3.06187E+04  1.25739E+04  3.65024E+03  1.58740E+04
 -1.25714E+04  7.04992E+03 -6.99396E+03 -7.20816E+03  7.07664E+03 -1.12332E+04  1.64316E+04  8.30645E+03
  9.94298E+03  1.96634E+04 -9.30866E+03  2.22774E+04 -2.12385E+04  7.10181E+03 -2.61817E+04 -2.95410E+03
 -1.66347E+04 -1.69195E+04 -4.92604E+03 -1.81933E+04  6.51596E+03 -1.14076E+04  1.33391E+04 -1.79488E+04
  1.80995E+04 -1.40989E+04  2.73716E+04  2.82427E+03  2.26406E+04  1.33486E+04  7.58685E+03  2.93172E+04
 -1.75174E+04  2.70029E+04 -2.64094E+04  9.12901E+03 -1.58620E+04 -1.63886E+04 -5.14380E+03 -1.60039E+04
  4.43293E+02 -4.99064E+03 -2.97057E+03  7.54073E+03 -1.45908E+04  6.59939E+03 -1.29506E+04 -8.98181E+03
 -1.09623E+04 -1.67054E+04  1.98802E+02 -1.55095E+04  9.51980E+03 -9.47137E+03  1.37121E+04 -3.61041E+03
  8.50406E+03  1.38950E+04 -1.95943E+03  1.71364E+04 -9.52759E+03  6.67693E+03 -1.47593E+04 -4.86719E+03
 -9.17061E+03 -1.04668E+04  1.34766E+03 -1.89982E+04  5.11399E+03 -1.16999E+04  1.78223E+04 -1.11000E+04
  1.45188E+04  1.15077E+03  1.07757E+04 -5.13890E+02  1.73850E+03 -1.60398E+03  8.14374E+03 -1.51170E+03
  1.37065E+04  6.54737E+03  1.17288E+04  7.44193E+03  9.66459E+03  2.17310E+04 -2.61789E+03  2.66115E+04
 -1.80907E+04  1.48391E+04 -2.26188E+04  9.25269E+03 -2.35094E+04 -2.25193E+03 -2.16528E+04 -1.88362E+04
 -9.74843E+03 -1.94656E+04  7.07247E+03 -1.78114E+04  1.50502E+04 -1.25381E+04  1.44549E+04  3.24768E+03
  4.18247E+03  1.48179E+04 -3.81466E+03  6.64184E+03 -1.29218E+04  2.18224E+03 -5.58631E+03 -7.08162E+03
 -1.61005E+03 -1.57546E+04  5.86544E+03 -4.89685E+03  6.48322E+03 -5.53587E+03  5.76880E+02  1.57394E+03
 -2.66044E+03  9.43935E+02 -5.64804E+03 -6.07236E+03 -4.76443E+03 -9.53627E+03  6.93967E+03 -5.89413E+03
  1.57909E+04 -5.94449E+03  1.32508E+04  4.56974E+03  6.96745E+03  1.23523E+04  5.10908E+03  8.58713E+03
 -2.18302E+02  1.55779E+04 -1.07642E+04  1.30676E+04 -9.87608E+03 -8.21988E+02 -6.63973E+03  3.25083E+02
 -8.76047E+03 -3.62614E+03  2.91700E+02  2.53309E+03  9.98699E+02 -1.10935E+03 -5.38389E+03  3.44212E+03
 -7.10550E+03  3.60103E+03 -8.79636E+03 -7.40575E+03 -2.19443E+03 -1.18551E+04  2.28477E+03 -8.19670E+03
  6.50703E+03 -2.86116E+03  8.12664E+03  1.98272E+03 -1.48062E+03  1.36311E+03 -6.79026E+03  4.31477E+03
 -2.14574E+03 -5.78836E+03 -1.96975E+03 -3.31733E+03  3.68239E+03 -9.87716E+03  1.00277E+04 -6.12159E+03
  8.78670E+03  2.19187E+03  7.33656E+03  9.83168E+03  3.38096E+03  1.04008E+04 -3.43595E+03  6.90727E+03
 -8.42886E+03 -9.60930E+02 -5.98233E+03  1.93638E+03  5.91638E+02 -4.79907E+03  9.28521E+03 -1.98829E+03
  3.23517E+03  7.08620E+01  6.97266E+02  7.14137E+03 -6.48987E+03  9.78749E+03 -3.91073E+03  6.57986E+03
 -4.06936E+03 -4.33435E+03 -1.22338E+03 -1.56649E+03  3.80343E+03  8.00032E+02  8.68523E+03  1.07508E+03
 -4.12819E+01  5.17284E+03 -4.30284E+03  3.14899E+03 -2.97346E+03  1.40054E+03 -5.58274E+03 -1.75735E+03
 -4.06102E+03 -6.33006E+03  2.82177E+03 -2.66456E+03  7.82483E+03 -2.98283E+03  6.81537E+03  2.75859E+03
  5.06694E+03  6.08751E+03 -3.11822E+02  4.83549E+03 -2.22950E+03  3.59698E+03 -3.14360E+03  2.42732E+02
 -6.79024E+03 -5.12209E+03 -2.19420E+03  1.37086E+03  2.36231E+03 -3.24820E+03  1.37516E+03 -2.91312E+03
 -5.73811E+02  2.44979E+03 -2.99789E+03 -9.59305E+01  1.42316E+03 -3.35334E+03  2.13515E+03 -1.93760E+03
  5.61570E+03 -1.92392E+03 -7.29340E+02 -1.14988E+03  6.67548E+03  5.69671E+03  7.03777E+03  8.59440E+03
 -1.87018E+03  1.03755E+04 -6.09411E+03  8.36119E+03 -8.16632E+03  7.14784E+01 -7.49387E+03 -3.84542E+03
 -4.22454E+03 -7.69101E+03 -2.78381E+03 -7.07012E+03  3.67244E+03  2.22761E+03  5.65589E+03 -6.47458E+02
  5.35708E+03  8.97996E+02  1.98107E+03  1.23592E+02  4.55077E+03 -3.36408E+03  2.56708E+03  4.83543E+03
  3.46731E+03 -5.64012E+02 -8.06998E+02  5.21742E+03 -2.86862E+03  1.44339E+03 -8.66168E+03  4.14799E+03
 -8.24092E+03 -4.44160E+03 -3.13660E+02 -5.05911E+03 -2.63163E+03 -3.48407E+03  1.24531E+03 -3.49168E+03
  4.74058E+03 -2.15863E+03  8.38821E+03  1.31362E+03  6.24010E+03  2.11107E+03 -3.42044E+03  3.62703E+03
 -2.20662E+03  7.65140E+03 -4.61322E+03  4.90207E+03  2.26853E+03 -1.21122E+03 -3.76028E+03 -2.18786E+03
  9.95041E+02 -2.24753E+03  3.83406E+01  6.89969E+03  1.62477E+03  2.36905E+03 -1.54410E+03  1.23028E+03
 -2.09601E+03 -3.82929E+03 -4.30923E+02 -4.01486E+03  6.84508E+03 -1.85671E+03  2.38169E+03 -2.19790E+03
  4.08085E+03  2.25129E+03  3.90532E+03  2.88323E+03 -1.01439E+03  2.56201E+03 -3.93581E+03 -2.74725E+02
 -1.67387E+03  2.19345E+03 -5.69015E+03 -5.21949E+03 -6.94881E+02 -4.00230E+03  1.48227E+03 -2.60507E+03
  4.67519E+03 -3.26875E+03  4.24367E+02  3.20975E+03 -9.76407E+02 -2.01044E+03 -6.72309E+02 -4.38485E+02
  2.08591E+03  1.68393E+03  3.99797E+02  2.54711E+03  1.60374E+03  3.69929E+03  1.58655E+03 -5.42317E+02
 -2.20168E+03 -4.61027E+02 -3.88962E+03  7.82646E+03 -4.08172E+03  7.06973E+02 -7.66778E+02 -3.46200E+03
 -2.28651E+03 -4.16535E+03 -2.21842E+02 -4.29733E+03  4.01577E+03 -4.80318E+03  4.81182E+03 -3.79629E+03
 -1.35826E+03  1.62168E+03  1.50371E+03  2.40293E+03 -1.39291E+03  2.05456E+03 -4.99253E+03 -8.26987E+03
 -3.11432E+03 -3.13147E+03  4.62321E+03 -1.05787E+03  5.49238E+02 -2.97667E+03  3.22759E+03 -2.78528E+03
 -1.25559E+03 -1.34297E+03  1.52075E+03  5.55881E+02 -1.12893E+03  2.71088E+03  7.61742E+02  4.09218E+02
  9.26167E+02  6.49225E+02  4.72038E+03 -3.95767E+02 -5.04399E+01  6.07382E+03 -6.58903E+02  1.40525E+03
 -5.84511E+02  1.21379E+01 -2.56623E+03  2.04418E+03 -1.69341E+03 -1.91373E+03  2.96072E+03 -2.34956E+03
 -1.29857E+03 -2.50958E+03 -2.24044E+03  6.60355E+02  5.19050E+03 -1.59793E+03  9.54491E+02  1.90273E+03
  1.76347E+03  1.00484E+02  2.37964E+03 -2.10425E+03 -3.77231E+03 -7.78734E+02 -1.76061E+03 -4.43719E+03
  5.26040E+03  3.58214E+03  2.72785E+03  1.11135E+03  2.05880E+03 -2.02634E+03  1.13568E+03  5.59054E+02
 -2.41674E+02  2.81690E+03  2.31294E+03  2.26072E+03  6.26030E+02 -5.24981E+02 -2.71484E+02  1.53361E+03
  4.29866E+02  4.06182E+03  3.10828E+03  4.03571E+03  8.39208E+02 -9.51838E+01 -1.08488E+03  2.68258E+03
 -2.56409E+03  3.36463E+03 -2.22672E+03 -1.00389E+03 -1.74000E+03 -2.45408E+03  3.15082E+03  2.09692E+03
  2.12025E+03 -3.51205E+02  4.56195E+03 -5.55262E+03 -3.71417E+03  1.34654E+03  2.02755E+03 -3.80078E+03
  1.82411E+03  1.04980E+03 -3.47771E+03 -5.35448E+03 -1.55461E+03  2.22281E+03 -1.33883E+02 -1.54119E+03
 -3.73944E+03 -1.52410E+02 -3.91266E+03 -1.26629E+03 -1.13472E+03  2.37409E+03 -2.37657E+03 -1.98499E+03
 -4.08504E+03 -1.92792E+03 -4.11683E+03 -2.40035E+03  1.01000E+03 -3.07469E+03  1.34659E+03 -1.17523E+03
  5.36721E+03  6.72069E+02  2.45629E+03  1.66709E+03 -3.45817E+03  4.28719E+03 -3.29615E+03  4.29558E+03
 -2.98263E+03  1.66318E+03 -2.67510E+03 -2.84758E+03  3.80443E+02  1.83252E+03  7.95446E+02  2.20387E+03
  1.65715E+03  4.88175E+03 -1.57258E+03  3.83251E+03  1.08591E+03 -2.66728E+02 -7.24111E+02 -4.76900E+02
  3.76755E+03 -1.40864E+03  1.51047E+03  4.74212E+02 -2.89742E+02  1.92896E+03 -4.33478E+03  1.84171E+03
 -2.58619E+03  6.86401E+03 -6.20367E+03  2.63674E+03 -1.57447E+03  1.28908E+03  4.07391E+02  2.60022E+02
  2.21662E+03 -2.90835E+03  5.94573E+03  1.11229E+03  3.79494E+03 -3.08376E+03 -1.78936E+03  6.82054E+02
 -2.19721E+03 -2.74154E+03 -4.85145E+03  1.66965E+03 -4.15308E+03  3.82439E+02  6.50341E+02  3.94440E+03
  3.93473E+03  4.63752E+03  1.81047E+03  1.72118E+03  1.67722E+02  2.51764E+03  7.86955E-01  9.05703E+02
  4.49361E+03 -6.70280E+02 -1.58763E+03  1.85110E+03 -3.97136E+03 -1.55919E+02 -1.15067E+03  3.61088E+02
 -6.94998E+02 -1.44351E+03  2.45910E+03  5.33228E+01  3.93860E+03 -4.53325E+03 -6.19055E+02 -3.00098E+02
 -3.03616E+03  3.33596E+03 -1.03541E+03 -3.88193E+03 -1.69104E+03  3.59129E+03 -1.97046E+02  7.00529E+02
  8.31896E+02  2.56222E+03  8.71668E+02  1.70613E+03  1.88788E+02  5.89962E+02  1.01077E+03 -1.99468E+03
  1.45425E+03 -8.08749E+02  2.29780E+03  1.39904E+03 -1.75961E+03  1.40210E+03 -7.35922E+02  2.09064E+03
  8.86037E+01 -2.22060E+03  7.76021E+02 -3.63478E+02 -2.22005E+03  8.13870E+02  3.98237E+03  2.61719E+03
