 $NMID ID='MM_0lb_SNR50_9hz_g60_7.RAW', FMTDAT='(8E13.5)'
 TRAMP=1., VOLUME=1. $END
  3.08239E+05  2.62415E+03  3.39844E+05  2.53397E+05  8.60534E+04  3.37233E+05 -1.25756E+05  2.58698E+05
 -1.83600E+05  8.16502E+04 -1.11866E+05 -2.78795E+04 -6.10740E+03 -5.12924E+04  5.77219E+04 -3.66505E+03
  3.54974E+04  5.34535E+04 -1.46451E+04  7.98268E+04 -5.88039E+04  6.93436E+04 -8.41185E+04  3.47639E+04
 -8.30990E+04 -1.84572E+04 -5.48925E+04 -5.36014E+04 -1.39402E+04 -6.83416E+04  3.51372E+04 -5.32489E+04
  4.01985E+04  3.85254E+03  1.62937E+04  5.18621E+04 -3.64242E+04  4.46778E+04 -6.93273E+04  3.12212E+03
 -5.01552E+04 -5.92901E+04 -6.55555E+03 -8.04061E+04  3.69658E+04 -5.92828E+04  4.95927E+04 -1.62408E+04
  4.40901E+04  1.50688E+04  2.98574E+04  2.71018E+04  9.29553E+03  2.55514E+04 -3.98908E+03  2.78363E+04
 -2.36478E+04  7.91580E+03 -1.80512E+04 -4.74159E+03  6.65379E+03 -1.95567E+03  2.02788E+04  9.88067E+03
  7.33885E+03  4.47268E+04 -3.59051E+04  2.76948E+04 -6.95900E+04  3.87606E+03 -5.37149E+04 -4.61095E+04
 -9.51801E+03 -6.93393E+04  4.10286E+04 -4.35078E+04  6.50335E+04 -2.78557E+03  3.50243E+04  3.77090E+04
 -1.49090E+04  3.60778E+04 -2.70030E+04  2.09072E+04 -3.14311E+04  2.38916E+03 -1.69522E+04 -1.40954E+04
 -1.42889E+04 -1.14130E+04  2.77821E+03 -1.25940E+04  1.04013E+04 -2.64558E+04  1.40957E+04 -1.28549E+04
  1.15338E+04  7.39643E+03 -1.23563E+04  1.19673E+04 -2.41785E+04 -6.00494E+03 -4.85954E+03 -3.86242E+04
  2.50544E+04 -5.07564E+04  5.11094E+04 -1.41723E+04  4.93635E+04  2.45578E+04  1.44121E+04  4.72877E+04
 -1.51019E+04  3.25962E+04 -3.15936E+04 -1.17963E+02 -1.64847E+04 -2.65046E+04  1.99279E+04 -3.83392E+04
  3.94275E+04 -1.05735E+04  4.30898E+04  2.53382E+04  1.64435E+04  5.30217E+04 -3.99849E+03  5.47407E+04
 -3.15144E+04  3.71094E+04 -4.81991E+04  1.14938E+04 -5.57876E+04 -2.09401E+04 -2.64830E+04 -4.08890E+04
  9.21067E+03 -4.08259E+04  3.70251E+04 -1.52044E+04  3.37922E+04  1.21809E+04  7.37880E+03  2.56068E+04
 -1.03573E+04  7.71788E+03 -1.30145E+04 -1.62169E+04  7.34498E+02 -1.41401E+04  1.85150E+04  5.16008E+03
  2.30558E+04  1.98068E+04 -1.41643E+03  2.56088E+04 -2.24445E+04  1.76492E+04 -3.54433E+04 -3.66082E+03
 -3.26499E+04 -1.21782E+04 -8.30788E+03 -2.71397E+04 -2.64823E+03 -2.76477E+04  2.11695E+04 -2.31198E+04
  3.47133E+04 -1.78662E+04  3.77038E+04  5.82602E+03  3.18811E+04  3.18652E+04  5.41684E+03  4.46789E+04
 -1.57612E+04  3.23523E+04 -3.16158E+04  1.14705E+04 -2.29093E+04 -7.82489E+03 -6.02239E+03 -1.55059E+04
 -2.12566E+03 -3.09594E+03 -2.59009E+03  1.44717E+04 -2.23900E+04  2.59349E+03 -2.04066E+04 -1.08421E+04
 -1.04086E+04 -2.41491E+04  7.88335E+02 -3.77202E+04  1.85038E+04 -2.25694E+04  2.31976E+04 -1.99351E+03
  1.42655E+04  1.94507E+04 -1.61357E+03  2.81738E+04 -1.88380E+04  9.16706E+03 -2.21180E+04 -5.15172E+03
 -1.41579E+04 -2.09536E+04 -6.30368E+03 -2.46917E+04  8.47035E+03 -1.97526E+04  2.18596E+04 -1.41920E+04
  1.69915E+04 -4.60876E+03  1.50872E+04  4.82680E+03  6.40461E+03  6.40890E+02  9.38375E+03  8.76965E+03
  1.89652E+04  3.88340E+03  2.84289E+04  1.34760E+04  2.05924E+04  4.15157E+04 -3.16733E+03  4.83593E+04
 -2.70492E+04  4.09247E+04 -4.54366E+04  1.83402E+04 -4.55414E+04 -3.74939E+03 -4.21164E+04 -2.30497E+04
 -8.13630E+03 -4.02582E+04  7.12304E+03 -3.32241E+04  3.65410E+04 -1.04626E+04  2.26125E+04  4.83656E+03
  6.17246E+03  1.93532E+04 -1.22443E+04  2.34933E+04 -2.31602E+04  1.41338E+03 -2.02477E+04 -1.44236E+04
  5.40947E+03 -1.36717E+04  1.16980E+04 -1.18350E+04  1.30570E+04 -3.22465E+03  1.14242E+04  8.41634E+03
 -4.09607E+03  7.53849E+03 -7.98792E+03 -1.43896E+04 -3.04773E+03 -1.87882E+04  1.02135E+04 -2.32338E+04
  2.21138E+04 -1.31310E+04  2.71443E+04  2.19160E+03  2.43631E+04  1.73404E+04  1.54917E+04  3.73099E+04
 -1.02824E+04  3.90336E+04 -2.34424E+04  2.23341E+04 -3.04656E+04  4.66082E+03 -1.93146E+04 -5.19881E+02
 -3.79589E+03 -1.12930E+04  6.06372E+03  2.16019E+03  1.82118E+03  1.17321E+03 -3.88921E+03  8.65241E+03
 -1.14272E+04  2.85567E+03 -1.56375E+04 -8.32234E+03 -5.19537E+03 -2.18426E+04 -1.60769E+03 -1.92219E+04
  1.22438E+04 -1.20915E+04  1.03784E+04  4.22934E+03 -4.87913E+02  6.18650E+03 -3.93143E+03  3.27271E+03
 -1.01795E+04 -1.16273E+04  2.18421E+03 -1.57058E+04  5.53602E+03 -1.42617E+04  2.34318E+04 -8.51370E+03
  2.70918E+04  3.67452E+03  1.58149E+04  1.45153E+04  7.84577E+03  1.88721E+04 -4.28114E+03  2.06155E+04
 -1.43652E+04  1.76628E+03 -7.75318E+03 -3.46598E+03  8.36459E+03 -3.83133E+03  1.31551E+04 -3.36268E+03
  3.21673E+03  9.84402E+03 -2.74413E+02  1.92595E+04 -8.21219E+03  1.54864E+04 -1.24193E+04 -2.83825E+03
 -4.94913E+03 -8.92498E+03 -2.20070E+03 -1.92449E+04  6.72168E+03 -6.90103E+03  1.35799E+04 -1.01891E+03
  4.32726E+03  6.13339E+03 -1.93943E+03  1.38004E+04 -2.03766E+04  9.91833E+03 -1.81266E+04 -7.92233E+03
 -7.98774E+03 -1.31372E+04  3.28763E+03 -2.16317E+04  1.68112E+04 -1.40334E+04  2.05200E+04  1.60140E+02
  8.35739E+03  9.18238E+03  3.06671E+03  1.84007E+04 -8.88067E+03  9.11600E+03 -1.13904E+04 -1.04237E+04
 -1.51897E+04 -8.84796E+03  1.09399E+03 -1.52693E+04  4.78229E+03 -1.08999E+04  1.22926E+04 -3.39229E+03
  4.82638E+03  4.54802E+03 -2.65623E+03 -3.98827E+03 -3.60969E+03  6.16290E+02 -4.51444E+03 -6.75579E+03
  1.49028E+04 -7.29306E+03  1.87906E+04 -8.25177E+02  1.55633E+04  1.66226E+04  9.22203E+03  2.46482E+04
 -4.35996E+03  2.65086E+04 -2.39230E+04  1.68118E+04 -3.23180E+04  1.47577E+03 -2.39384E+04 -9.98173E+03
 -5.84320E+03 -1.15525E+04 -6.53892E+02 -1.84730E+04  4.52159E+03 -1.80414E+04  8.72302E+03 -3.94401E+03
  3.97738E+03  1.15552E+03  3.04001E+03  3.84121E+03  4.20437E+03 -2.72140E+03  8.99311E+03  1.02436E+03
  1.30847E+04  6.71443E+03  6.23679E+03  1.37037E+04 -1.76009E+03  1.33790E+04 -1.30455E+04  1.69340E+04
 -2.19619E+04 -6.88700E+02 -6.08713E+03 -9.05813E+03  5.30085E+02 -1.78287E+04  9.05728E+03 -1.87677E+04
  2.36594E+04 -5.88816E+03  2.53863E+04  3.81705E+03  1.80738E+04  9.64394E+03 -3.14398E+03  2.08815E+04
 -8.37580E+03  1.69246E+04 -1.16002E+04  7.08984E+03 -6.11653E+03 -6.52634E+03  9.47785E+01  3.92269E+02
 -1.90771E+03  8.33637E+03 -8.86049E+02  4.65399E+01 -5.67555E+03  1.88961E+03 -1.67868E+04 -1.98884E+03
 -5.78493E+03 -2.67741E+03 -2.73841E+03 -2.20836E+04  8.43145E+03 -1.35411E+04  1.35530E+04 -5.09814E+03
  1.44789E+04  5.94851E+03  5.72728E+03  5.78208E+03 -4.07781E+03  1.79551E+04 -7.36472E+03  7.66165E+03
 -1.20067E+04 -5.78482E+03 -1.52819E+04 -6.63327E+03 -2.13797E+03 -9.04541E+03  7.07824E+03 -1.13205E+04
  1.07561E+04 -4.01648E+03  6.11007E+03  6.41143E+02 -1.37388E+03  6.74906E+03  2.55179E+03 -2.97620E+03
  3.28313E+03 -1.42293E+03  7.55855E+03 -2.26321E+02  4.48619E+03  9.25941E+02  1.47818E+03  1.27302E+04
 -1.47844E+03  1.16492E+04 -1.24855E+04  1.69284E+04 -1.68219E+04  1.29573E+04 -1.90973E+04 -6.12103E+03
 -8.32084E+03 -1.24262E+04  1.73315E+03 -2.04552E+04  1.43257E+04 -1.03392E+04  1.26443E+04 -2.67666E+03
  6.61854E+02 -1.91197E+03 -1.42705E+03  9.02197E+03 -7.20727E+03  2.10721E+03 -6.20288E+03 -1.06429E+04
 -3.51763E+03 -8.27404E+03  3.71698E+03 -2.24766E+03  7.34936E+03 -2.91985E+03  2.42026E+03  2.44217E+03
 -2.47482E+03  1.13303E+04  3.45269E+03  1.27407E+04 -1.15724E+03  1.82117E+03 -1.00756E+03 -3.38408E+03
  6.48949E+03 -5.69997E+03  9.34427E+03  3.74322E+03  8.25502E+02  8.85303E+03 -4.39468E+02  1.16212E+04
 -9.14863E+03  1.34569E+03 -9.44098E+03 -3.55089E+03 -8.15564E+03 -2.71689E+03 -1.59410E+03 -2.87867E+03
 -2.89407E+03 -1.98225E+04  4.22075E+03 -5.63413E+03  3.07275E+03  4.77491E+03 -1.38916E+03 -3.22464E+02
 -5.53003E+03  4.64518E+03 -8.08433E+03 -1.24861E+03 -2.01699E+03 -9.24018E+03  3.18285E+03 -7.73564E+03
  9.05909E+03 -1.01262E+04  7.93889E+03  6.50482E+03  2.20459E+03  3.78970E+03 -3.72310E+03  7.92008E+02
 -4.31699E+03  4.78507E+03 -4.40500E+03 -3.59556E+03  2.46541E+03 -4.57573E+03  7.43412E+03 -8.48157E+03
  1.31585E+04 -5.66308E+03  1.02619E+04  1.03908E+04 -1.39882E+03  1.18623E+04 -2.22268E+03  1.04015E+04
 -6.03243E+03  5.13159E+03 -1.50355E+04 -2.54126E+03 -3.90539E+03 -7.26756E+03  6.10416E+03 -2.89365E+03
 -1.74271E+03  1.44800E+02  5.66406E+03  4.11390E+03 -3.31356E+02  7.92051E+03  4.74578E+03 -1.70987E+03
 -2.91485E+03  7.57986E+03 -3.00027E+03  7.87208E+02  1.36098E+03  2.54064E+03  1.78798E+03  1.83160E+03
  1.80749E+03  3.02975E+03 -5.12337E+03 -2.22928E+02 -1.52958E+04 -3.82567E+03 -1.27977E+04 -3.74361E+03
 -7.44300E+03 -1.44713E+04  7.54478E+03 -1.50899E+04  9.76975E+03 -8.83097E+03  1.42000E+04 -1.80204E+03
  1.93057E+04  5.80507E+03  4.38549E+03  9.25416E+03  4.32600E+03  1.80897E+04  2.02349E+03  1.14014E+04
 -1.07212E+04  9.62538E+02  1.10921E+03 -2.24093E+03  2.25689E+03 -4.97288E+01  5.61502E+03  2.79441E+03
 -5.88851E+02 -4.23271E+03 -6.71430E+03  4.99790E+01  8.27961E+02  2.17373E+02 -3.54882E+03 -1.21070E+04
  4.65725E+03 -7.30680E+02  7.65990E+03 -5.17670E+02  1.57078E+04  4.92120E+03  1.04157E+04  1.58017E+04
 -6.07056E+03  8.43560E+03 -1.61227E+04  1.65782E+04 -1.68797E+04  3.72375E+03 -7.24620E+03 -9.12809E+03
 -3.76915E+03 -1.21028E+04  5.27291E+03 -1.10185E+04  1.05708E+04 -4.65561E+03  8.36226E+03 -3.95112E+03
  5.80257E+03 -3.12847E+02 -5.66449E+03  1.51540E+03 -5.30442E+03  3.56910E+03  5.98771E+03  6.09801E+02
 -1.20670E+02  7.37646E+02  4.04751E+03  1.38921E+03  8.08585E+03 -4.30401E+03 -8.39145E+02 -7.69160E+02
 -3.84876E+03  3.25525E+03 -5.98404E+03  3.19795E+03 -3.31988E+03 -4.93636E+03 -1.10125E+02 -8.36188E+03
  8.57640E+03 -5.71522E+03  7.28568E+03 -7.23308E+03  7.58709E+03 -2.79675E+03  9.53465E+03  2.08095E+03
 -1.45312E+03  8.89338E+03 -9.09412E+03  4.55055E+03 -5.95844E+03 -1.62342E+03 -5.95824E+03  3.08936E+03
 -1.01758E+04  4.30091E+03  2.59743E+03 -1.20312E+03 -7.08859E+03  4.55218E+03 -1.86728E+04 -2.90812E+03
 -5.09955E+03  4.78629E+03 -3.62853E+03 -1.12381E+04  4.22548E+03 -7.73727E+03  8.61120E+03 -7.99466E+03
  9.27105E+03  5.62236E+03  1.83328E+03  3.65996E+03 -6.02251E+03  1.51446E+04 -6.54133E+03  4.86161E+03
