 $NMID ID='MM_0lb_SNR50_18hz_g45_51.RAW', FMTDAT='(8E13.5)'
 TRAMP=1., VOLUME=1. $END
  3.13568E+05  1.99270E+03  3.35560E+05  2.49909E+05  8.37668E+04  3.38391E+05 -1.32334E+05  2.50039E+05
 -1.89623E+05  8.11066E+04 -1.11929E+05 -3.05938E+04  3.81636E+03 -4.69302E+04  5.55081E+04 -6.78518E+02
  3.94067E+04  5.19823E+04 -1.61237E+04  7.71302E+04 -5.89987E+04  6.49668E+04 -8.56350E+04  3.34985E+04
 -8.30366E+04 -1.15031E+04 -5.64348E+04 -5.15915E+04 -1.10967E+04 -6.81753E+04  2.62858E+04 -4.34486E+04
  3.51190E+04  3.22542E+03  1.58980E+04  4.90214E+04 -3.77060E+04  4.38429E+04 -6.64586E+04 -2.28789E+03
 -5.17952E+04 -5.37140E+04 -6.72285E+03 -7.35914E+04  3.42612E+04 -5.31451E+04  4.58386E+04 -1.33993E+04
  4.28884E+04  1.05792E+04  2.89918E+04  2.75617E+04  1.67289E+04  2.65352E+04 -8.44540E+03  2.26766E+04
 -2.08324E+04  1.22037E+04 -1.84246E+04 -8.01832E+03  4.32638E+03 -1.23653E+04  2.10795E+04  1.32838E+04
  1.17445E+04  3.37410E+04 -3.23778E+04  3.33337E+04 -5.90164E+04 -3.27271E+03 -5.77137E+04 -4.10690E+04
 -1.48994E+04 -5.74997E+04  3.32743E+04 -3.78143E+04  5.04856E+04 -4.49738E+03  2.99423E+04  3.17867E+04
 -7.49985E+03  2.99490E+04 -2.86059E+04  1.32327E+04 -2.67744E+04 -3.20221E+03 -1.70393E+04 -8.44790E+03
 -1.20446E+04 -8.19516E+03 -3.70813E+03 -1.68579E+04  5.82569E+03 -2.27799E+04  1.73411E+04 -1.28122E+04
  1.50847E+04  5.55546E+03 -8.49302E+03  1.26624E+04 -1.95419E+04 -5.86222E+03 -9.90392E+03 -3.13220E+04
  2.21974E+04 -4.27177E+04  4.06347E+04 -2.07513E+04  4.53658E+04  1.94386E+04  9.58425E+03  4.08109E+04
 -1.72659E+04  2.92937E+04 -2.20529E+04  3.15196E+01 -1.08776E+04 -2.73157E+04  2.10141E+04 -3.33980E+04
  3.84829E+04 -4.59274E+03  3.29372E+04  2.30819E+04  1.55869E+04  4.10509E+04 -7.18606E+03  5.01647E+04
 -2.92454E+04  2.96771E+04 -3.45254E+04  1.08166E+04 -3.32362E+04 -1.73011E+04 -2.17167E+04 -3.44297E+04
  1.33825E+03 -3.48602E+04  2.64811E+04 -1.35387E+04  2.97761E+04  1.22698E+04  3.82924E+03  1.99609E+04
 -1.52025E+04  1.07336E+04 -9.33574E+03 -6.83284E+03  7.77189E+03 -1.08595E+04  1.65289E+04  1.00807E+04
  1.35959E+04  2.27757E+04 -9.63060E+03  2.13991E+04 -1.71806E+04  1.01086E+04 -2.60839E+04 -7.55606E+03
 -1.87545E+04 -1.73099E+04 -5.29937E+03 -1.71581E+04  3.64037E+03 -9.17516E+03  1.28451E+04 -1.48741E+04
  2.46023E+04 -1.04273E+04  2.31772E+04 -2.94032E+03  1.82487E+04  1.75265E+04  8.59044E+03  3.43622E+04
 -1.83327E+04  2.74858E+04 -2.42442E+04  1.26844E+04 -2.04213E+04 -8.81959E+03 -3.01345E+03 -1.50147E+04
 -2.24101E+03 -3.82089E+03 -3.51043E+03  1.19741E+04 -1.31720E+04  1.03074E+04 -1.34017E+04 -2.57624E+03
 -7.87349E+03 -1.58837E+04  3.15568E+03 -1.71208E+04  1.13513E+04 -1.05095E+04  9.67176E+03  3.54921E+03
  1.22716E+04  1.04169E+04  4.00432E+02  1.78713E+04 -1.66848E+04  1.40282E+04 -1.36141E+04 -2.14768E+03
 -1.14102E+04 -1.30487E+04  1.14554E+03 -2.09260E+04  8.16701E+03 -1.50286E+04  1.44876E+04 -5.67626E+03
  1.62863E+04  3.10916E+03  1.36982E+04  4.45483E+03  4.61516E+03  1.82276E+03  1.12477E+04  4.64102E+02
  1.89073E+04  7.65950E+03  1.65052E+04  1.17593E+04  6.38030E+03  2.18147E+04 -4.48549E+03  2.94383E+04
 -1.64409E+04  2.23104E+04 -2.09311E+04  1.42223E+04 -2.47478E+04 -2.12162E+03 -2.24777E+04 -1.24427E+04
 -9.40382E+03 -2.16927E+04  8.22273E+03 -2.01926E+04  1.90172E+04 -7.83463E+03  1.66661E+04  1.16524E+03
  6.75541E+03  9.43450E+03 -1.12333E+04  8.77693E+03 -1.15515E+04  2.09360E+03 -1.20319E+04 -9.39332E+03
  3.01935E+03 -1.08427E+04  7.74119E+03 -5.83003E+03  6.44408E+03 -2.95632E+03  2.65029E+03  9.58275E+02
 -6.81585E+03  2.15064E+02 -3.22014E+03 -2.84880E+03  1.73219E+03 -9.05668E+03  7.33031E+03 -9.43327E+03
  1.00020E+04 -5.40605E+03  1.33547E+04  5.24592E+03  9.63165E+03  6.89808E+03  6.53206E+03  1.33932E+04
 -3.54650E+03  1.73258E+04 -8.80873E+03  8.06888E+03 -6.15161E+03 -5.41554E+02 -8.91661E+03  6.58313E+02
 -3.37366E+03 -6.08432E+03  1.96938E+03 -2.20356E+03 -3.52382E+03  1.53951E+02 -1.43791E+03  3.67299E+03
 -9.06992E+03  3.19619E+03 -8.02194E+03 -1.02476E+04 -5.56995E+03 -9.43109E+03  2.17801E+03 -7.80723E+03
  7.40975E+03 -5.25229E+03  4.96945E+03  3.53631E+02 -2.00734E+03  6.90273E+02  4.14168E+02 -9.30308E+02
 -5.65954E+03 -1.03106E+03 -2.43882E+03 -9.20234E+03  1.86208E+03 -1.03390E+04  8.94289E+03 -2.93659E+02
  1.26621E+04  4.83949E+03  1.12978E+04  3.82878E+03  3.40256E+03  9.36680E+03 -1.84494E+03  8.47161E+03
 -7.58095E+03  2.75898E+03 -7.67905E+03 -2.71198E+03  9.75665E+02 -1.32924E+03  9.11786E+03  4.53213E+02
  2.79910E+03  2.83753E+03  2.24777E+03  6.50301E+03 -2.00887E+03  5.92341E+03 -6.42147E+03 -2.05759E+03
 -4.97375E+03 -8.72220E+03 -1.62234E+03 -3.84756E+03  2.45342E+03 -2.62814E+03  4.12572E+03  2.35633E+03
 -2.41786E+03  3.62735E+03 -1.00151E+04  6.14552E+03 -6.02534E+03 -9.23631E+02 -7.74672E+03 -4.81207E+03
  1.71085E+03 -2.68601E+03 -8.03959E+02 -1.11991E+04  2.78877E+03 -3.11497E+03  7.64688E+03 -1.93913E+03
  2.74732E+03  1.93992E+03  1.70796E+03  1.05476E+04 -2.45673E+03  6.40903E+03 -3.01081E+03 -1.99831E+02
 -4.35997E+03 -8.35618E+02 -3.76541E+03 -5.93665E+03  6.55012E+03 -3.10473E+03 -4.47617E+02 -1.91983E+03
  5.35421E+03  2.38959E+03 -2.36049E+03  2.91468E+03  2.47002E+03  4.13135E+01  4.02036E+03 -2.42017E+03
  6.91505E+03 -3.82396E+03  7.21846E+03  1.97687E+03  5.65393E+03  4.61769E+02  4.75807E+03  8.74408E+03
 -1.45406E+03  1.03800E+04 -1.15683E+04  6.10246E+03 -1.11972E+04  9.56374E+02 -7.70527E+03 -4.20445E+03
 -6.42808E+03 -3.67817E+03 -9.24508E+02 -5.11417E+03  2.32972E+03  1.17472E+03  5.61675E+02  5.15201E+03
  4.47634E+03 -3.20800E+03  3.25103E+03 -7.47478E+02  1.06544E+03 -3.87146E+03  1.23191E+03 -1.87451E+03
  7.82192E+03  2.17410E+03  2.92079E+03  2.57042E+03 -4.98993E+03 -4.27504E+01 -3.02571E+03  3.81745E+03
 -3.27429E+03 -2.84493E+03 -3.03447E+03 -5.28126E+03  2.19670E+03 -5.52550E+03  5.17619E+03 -9.16657E+03
  3.48429E+03 -8.32484E+03  9.49476E+03 -1.41053E+03  9.67345E+03 -2.81578E+02  2.22162E+03  4.30880E+03
 -4.63539E+03  7.84143E+03 -3.78193E+03  7.90251E+01 -7.97998E+02 -8.89112E+02 -4.45248E+03  2.63341E+03
  1.92533E+03 -1.68451E+03 -4.17665E+03  5.57254E+03  9.01754E+02  1.26512E+03 -2.09083E+03 -1.12532E+03
 -2.91191E+03 -6.50848E+03  3.45925E+03 -2.11501E+03  9.26165E+03 -3.23550E+03  3.74730E+03 -2.89993E+03
  2.29346E+03  6.90127E+03  9.22613E+02  5.80300E+03 -2.21117E+03  7.26969E+02 -1.22896E+03  1.96585E+03
 -2.91476E+03 -2.30862E+03 -6.48373E+03  3.71472E+02  2.32695E+03 -1.33589E+03  6.84568E+02 -5.82771E+03
  9.51274E+02  4.02088E+03  1.29736E+03  3.13990E+03  5.79439E+02  3.88309E+03  2.90829E+03 -1.86610E+03
  1.82936E+03 -1.68306E+03  6.30701E+02  8.04031E+02 -1.86984E+03  1.93661E+03 -8.68230E+01  3.31052E+03
 -5.34700E+03  2.35785E+03  4.20168E+01  5.97253E+03 -1.60506E+03  1.26110E+03 -8.08013E+03  3.19243E+03
 -2.34738E+03 -3.88769E+02 -3.80773E+03 -1.19200E+02  6.90726E+03 -2.32895E+02 -1.87999E+03 -8.85574E+02
  1.66483E+02 -1.23192E+02 -6.52605E+02  5.38735E+03  3.79538E+03  1.67441E+03  9.40417E+02  5.98192E+02
 -2.50169E+03 -2.63860E+02 -3.15134E+03 -4.43192E+03  2.36388E+02 -4.76752E+02  1.74839E+03 -3.43071E+03
  2.59471E+03  3.06963E+03  1.67435E+02 -3.68886E+02  4.65725E+02 -6.73810E+03  3.40981E+03  1.26984E+02
 -1.80686E+03 -1.30180E+03  5.84562E+03  2.25611E+03  3.96264E+03  4.73659E+03 -1.59268E+03  3.96363E+03
  9.96878E+02 -4.07053E+03  2.58810E+02  1.02523E+03 -1.59291E+03 -3.51366E+01  2.27753E+02  3.24510E+03
 -3.51200E+02 -1.67183E+03  1.09690E+03 -5.25611E+02  2.30125E+03 -2.30924E+03 -4.10682E+03  3.06955E+03
  2.41807E+02 -4.94383E+03 -5.07400E+02  3.34026E+03 -5.58510E+02 -6.01729E+03 -3.90774E+00 -2.87252E+03
  4.61555E+03 -4.19735E+02 -8.05544E+02 -3.23886E+02  5.45554E+02  2.87640E+03  2.57793E+02  3.66099E+03
  1.73712E+03 -2.08175E+03 -3.96148E+02 -7.77395E+02  2.54308E+02  2.48981E+02 -1.53659E+03 -2.52333E+03
  4.83371E+03 -2.83789E+03  3.23178E+03 -2.05755E+03  2.43998E+03  6.13098E+03  7.78946E+02  2.26510E+03
 -3.98662E+02  3.33211E+03  8.80022E+02 -2.18812E+03  3.06941E+02 -9.86086E+02 -1.99060E+03 -2.16749E+03
  4.53883E+03  1.00631E+03 -4.27117E+03  1.15794E+03 -4.56156E+02 -1.81111E+02 -2.08400E+03  2.73793E+03
  1.89571E+03  2.19387E+03 -1.04589E+03  2.96630E+03  1.70803E+03  6.21601E+03 -2.14542E+03 -3.58182E+03
 -4.22766E+03 -1.72505E+03 -3.84150E+03  1.59655E+03  5.82928E+01 -1.29388E+03 -1.48364E+03  5.92970E+02
 -4.39412E+02 -1.08702E+03  2.92594E+03 -5.89886E+03 -3.05489E+02  3.23343E+03  1.26251E+03  2.31072E+03
  4.13921E+03  2.58954E+03  1.95225E+03  4.39105E+03  2.47201E+03  1.74331E+03 -1.90189E+03 -2.53057E+02
 -3.01169E+03  2.75008E+03 -4.05121E+03  6.38172E+02  6.06687E+01 -5.10143E+02  5.06155E+03 -2.44569E+03
  2.72969E+02 -5.05286E+03  1.38594E+03 -1.25662E+03  2.82684E+03  4.67399E+03  2.49186E+03  1.24913E+03
  7.26063E+03 -3.19365E+03  3.83096E+03 -2.23508E+02  3.52589E+03  4.72576E+03 -2.05201E+03  2.65856E+03
 -2.24562E+03 -2.48406E+03 -5.39849E+03  1.54693E+02 -1.27726E+03 -2.96693E+03 -2.77238E+03 -1.16444E+03
  2.84205E+03 -1.05966E+03 -4.38282E+01 -7.04572E+02  4.35082E+03  7.73851E+02  3.41185E+03 -9.28055E+02
 -3.01421E+03  1.53237E+03  5.02725E+03  3.38158E+03 -1.84209E+03 -8.05381E+02 -6.36442E+02 -5.49335E+03
 -2.00137E+02 -4.88812E+03  1.72632E+03 -4.15592E+02  2.61181E+03  3.40477E+03  3.28814E+03  6.45191E+03
  3.21764E+02  2.91794E+03 -1.38537E+03 -2.12821E+02 -3.55105E+02 -5.08598E+02 -2.69188E+03 -1.32559E+03
  2.32281E+03 -3.29955E+03 -4.67455E+02 -3.62002E+03  3.89104E+03 -4.06903E+03  9.19839E+02  3.71303E+03
  3.04518E+02 -2.67970E+03 -6.64683E+02 -1.26243E+03  2.21432E+03 -3.62203E+03  2.28639E+01  1.04058E+02
  7.29681E+02  1.14880E+00  3.69716E+03  3.80794E+03  3.81133E+03  1.81055E+02 -3.00027E+03 -2.96196E+03
 -2.61067E+03 -4.06563E+03 -1.44404E+03  2.32358E+02  3.57439E+03  5.26355E+03  3.36359E+02 -4.01130E+03
  1.89770E+03 -2.05794E+03 -3.28236E+03 -1.03801E+03  2.21807E+03 -8.28938E+01  3.75011E+02 -3.99583E+02
