 $NMID ID='MM_0lb_SNR50_13hz_g60_15.RAW', FMTDAT='(8E13.5)'
 TRAMP=1., VOLUME=1. $END
  3.04477E+05  4.06311E+03  3.41368E+05  2.46793E+05  8.58348E+04  3.42896E+05 -1.33166E+05  2.56461E+05
 -1.96164E+05  8.18848E+04 -1.13299E+05 -2.93848E+04 -4.25072E+03 -5.05049E+04  5.71899E+04  1.21140E+03
  2.80202E+04  4.60962E+04 -1.82053E+04  7.68753E+04 -5.94927E+04  6.41243E+04 -8.64309E+04  3.66962E+04
 -7.96895E+04 -1.70442E+04 -5.96735E+04 -5.06552E+04 -1.55478E+04 -7.01545E+04  3.02345E+04 -4.58033E+04
  4.07653E+04  6.18125E+03  1.51867E+04  5.01275E+04 -3.07973E+04  4.83565E+04 -6.15265E+04 -9.51804E+03
 -5.11785E+04 -5.47943E+04 -7.87539E+03 -8.08933E+04  3.67478E+04 -4.89456E+04  4.93409E+04 -1.81530E+04
  5.01015E+04  1.04639E+04  3.31718E+04  2.80211E+04  1.62485E+04  2.72426E+04  7.27627E+02  2.87888E+04
 -2.35994E+04  1.24849E+04 -1.60903E+04 -9.50712E+03  8.34145E+03 -1.07286E+04  1.99487E+04  8.86500E+03
  2.04929E+03  3.85495E+04 -3.50419E+04  3.92946E+04 -6.72032E+04  2.50809E+03 -5.58189E+04 -4.31248E+04
 -1.91841E+04 -6.91516E+04  4.26501E+04 -5.16566E+04  5.80584E+04  5.99791E+02  3.81699E+04  3.82950E+04
 -8.15989E+03  3.97523E+04 -3.15761E+04  1.52944E+04 -3.38656E+04 -5.76344E+03 -2.51507E+04 -1.19413E+04
 -1.06886E+04 -1.06997E+04  1.11881E+03 -1.92431E+04  9.81169E+03 -1.99439E+04  1.74409E+04 -1.44342E+04
  1.09208E+04  5.91517E+03 -1.07042E+04  1.59693E+04 -2.04313E+04 -6.48381E+03 -3.18883E+03 -4.26814E+04
  2.44120E+04 -4.78251E+04  5.16026E+04 -2.17237E+04  4.65209E+04  1.81303E+04  7.87732E+03  4.69260E+04
 -1.75158E+04  3.65525E+04 -2.76027E+04  2.63719E+03 -8.29031E+03 -2.80952E+04  2.29760E+04 -3.75600E+04
  4.50923E+04 -1.15767E+04  3.99175E+04  2.10675E+04  2.62288E+04  4.80985E+04 -1.94947E+03  5.31415E+04
 -3.42843E+04  3.30743E+04 -4.07363E+04  1.07536E+04 -5.04875E+04 -1.69208E+04 -2.46628E+04 -4.15652E+04
  8.97775E+03 -3.70775E+04  3.01270E+04 -1.45421E+04  3.04390E+04  1.24932E+04 -6.02680E+02  2.33913E+04
 -1.38108E+04  1.69509E+04 -1.33160E+04 -2.31141E+03  1.68631E+03 -6.74926E+03  1.72708E+04  9.52661E+03
  8.14818E+03  2.08300E+04 -3.06965E+03  2.83126E+04 -2.86841E+04  8.93994E+03 -2.79249E+04 -3.66221E+03
 -2.00630E+04 -1.70834E+04 -1.05380E+04 -1.97003E+04  2.07815E+02 -2.52388E+04  2.20111E+04 -1.90636E+04
  3.00794E+04 -1.39696E+04  3.42493E+04  4.87471E+03  2.41658E+04  2.50049E+04  3.67403E+03  3.65127E+04
 -1.68267E+04  3.04188E+04 -2.84620E+04  5.71871E+03 -1.96671E+04 -1.11806E+04 -8.17082E+03 -1.33566E+04
 -2.24882E+03 -9.84529E+02 -7.79109E+03  5.65156E+03 -2.20818E+04 -2.57660E+02 -2.03340E+04 -6.26474E+03
 -1.03708E+04 -2.31057E+04  1.12418E+03 -2.16428E+04  1.84255E+04 -2.16519E+04  2.28975E+04 -3.10747E+03
  1.44822E+04  1.21346E+04  1.71462E+03  2.30376E+04 -1.37963E+04  1.48461E+04 -1.87464E+04 -4.18139E+03
 -2.11686E+04 -2.09552E+04 -2.51844E+03 -2.99131E+04  1.38334E+04 -1.79353E+04  1.91112E+04 -1.32865E+04
  2.30572E+04 -8.11654E+02  1.34971E+04  6.75642E+03  3.95970E+03  2.85524E+03  1.07235E+04 -9.57115E+02
  2.50518E+04 -5.34895E+02  2.18563E+04  1.92258E+04  1.56168E+04  3.50635E+04 -3.24537E+03  3.94487E+04
 -2.43596E+04  3.00254E+04 -3.75412E+04  1.89851E+04 -4.36549E+04 -2.03553E+03 -3.03762E+04 -2.07646E+04
 -1.44631E+04 -2.93233E+04  5.22434E+03 -2.96858E+04  2.52850E+04 -1.50139E+04  1.82396E+04  1.23925E+04
  8.21802E+03  1.46743E+04 -1.00102E+04  1.23712E+04 -1.66752E+04  1.33107E+03 -1.33532E+04 -1.14716E+04
 -3.14567E+03 -1.85097E+04  8.41676E+03 -1.64133E+04  1.18592E+04  2.32416E+03 -2.32542E+01  5.05136E+03
 -1.24795E+04  6.23889E+03 -9.44128E+03 -4.97717E+03  4.41419E+03 -1.97560E+04  1.13584E+04 -1.37889E+04
  2.06149E+04 -1.19450E+04  1.93710E+04  8.02664E+03  2.05490E+04  1.51879E+04  9.31178E+03  2.80651E+04
 -1.06129E+04  2.80135E+04 -1.55824E+04  1.68510E+04 -1.80009E+04 -4.53254E+02 -1.37067E+04 -2.52762E+03
 -6.60313E+03 -7.82306E+03 -1.72443E+03  2.34736E+03 -3.16547E+03  9.86297E+02 -5.90014E+03  7.37977E+03
 -1.15466E+04  2.58161E+03 -1.47243E+04 -8.32153E+03 -5.09854E+03 -2.06355E+04  3.62177E+03 -1.81790E+04
  1.05709E+04 -7.36298E+03  9.06260E+03  5.46436E+03  5.25560E+03  4.79918E+03 -3.42884E+03  2.76774E+03
 -9.76178E+03 -8.16700E+03 -3.69529E+02 -1.66287E+04  2.92788E+03 -1.02540E+04  1.64085E+04 -7.71414E+03
  2.20919E+04 -2.45435E+03  1.82349E+04  8.66758E+03  5.12386E+03  2.12701E+04 -6.24791E+03  9.35726E+03
 -7.81193E+03  5.29511E+03 -4.19330E+03 -2.65677E+03  3.94072E+03 -4.54363E+03  1.36184E+04  1.36374E+03
  7.10642E+03  5.35072E+03  3.03227E+03  9.79286E+03 -4.04184E+03  1.15795E+04 -9.36196E+03  4.56518E+03
 -3.44316E+03 -6.98500E+03  3.07629E+03 -6.42445E+03  7.15937E+03 -2.53732E+03  4.86603E+03  4.59928E+03
 -7.25978E+02  5.33463E+03 -5.79706E+03  1.48942E+04 -1.07634E+04  8.25336E+03 -3.99489E+03 -5.46654E+03
 -1.01820E+04 -1.51028E+04 -3.72770E+03 -1.67105E+04  1.01112E+04 -5.72100E+03  1.25599E+04  2.23253E+03
  1.52048E+04  1.17130E+04  2.24992E+03  9.22848E+03 -7.35790E+03  4.30260E+03 -1.13038E+04 -2.20598E+03
 -1.34468E+04 -1.05110E+04 -3.65720E+03 -9.79502E+03  7.14926E+03  2.27023E+03  4.90501E+03 -9.47986E+02
  6.25289E+03 -3.20430E+03 -2.04168E+02  3.78122E+03  2.28305E+03 -6.02903E+03  3.69726E+03 -7.59764E+03
  7.87848E+03 -1.87559E+03  4.41027E+03  1.13886E+03  1.64392E+04  3.05915E+03  9.27274E+03  9.74165E+03
 -2.94331E+03  2.23623E+04 -1.81534E+04  1.59519E+04 -1.99463E+04  2.24093E+03 -1.12718E+04 -1.08229E+04
 -4.92849E+03 -1.31621E+04 -2.03524E+03 -1.19798E+04  5.69661E+03 -1.78431E+03  2.03867E+03  7.81178E+02
  1.04149E+04 -1.58751E+03  1.30094E+02 -5.88526E+03  6.40422E+03 -1.36197E+03  8.06374E+03 -6.73726E+03
  7.88299E+03  3.99420E+03 -1.62269E+03  7.98252E+03 -1.34119E+03  5.14506E+03 -9.31309E+03  6.65247E+03
 -1.12807E+04 -7.28517E+03 -7.56122E+03 -3.99902E+03 -4.53186E+02 -1.32960E+04  6.64825E+03 -1.11582E+04
  1.68485E+04 -7.38560E+03  1.32006E+04 -5.49664E+03  8.53806E+03  3.83435E+03  8.28555E+02  1.50946E+04
 -6.68695E+03  6.58938E+03 -2.49981E+03  6.65632E+03 -4.97987E+03 -1.94293E+03 -2.65555E+03 -6.15306E+03
 -4.01703E+02 -3.99296E+03 -2.06544E+03  3.17774E+03 -3.84283E+03  3.85116E+03 -9.92360E+03  1.20350E+03
 -6.63744E+03 -1.81420E+03 -1.16983E+03 -1.02965E+04  8.86031E+03 -7.75025E+03  1.23584E+04  2.35959E+03
  6.97332E+03  4.15288E+03  2.41504E+03  1.24293E+04 -3.77684E+03  8.13765E+03 -6.62403E+03  7.16139E+03
 -5.42319E+03 -3.32011E+03 -6.54649E+03 -1.97108E+03 -3.47753E+03 -1.08909E+04  7.50507E+03 -5.23701E+03
  6.63580E+03 -3.07977E+03  4.83215E+03  5.78100E+03 -3.90601E+03  1.35619E+03  5.20753E+03  2.62495E+03
  5.51190E+02 -2.22182E+02  2.51505E+03  2.27882E+03  2.43833E+03  4.84335E+03  4.82614E+03  2.37246E+03
 -1.54381E+03  8.52119E+03 -5.71442E+03  8.75463E+03 -1.14322E+04  4.23976E+03 -1.05592E+04 -4.20039E+03
 -1.09248E+03 -1.29203E+04 -1.76480E+03 -1.22907E+04 -3.91520E+03 -2.34542E+03  4.45840E+03  3.15529E+03
  3.87108E+03  7.07938E+03  5.48607E+03  8.69090E+03 -3.08621E+03  3.68209E+03 -5.42471E+03  3.25604E+03
  3.07936E+03 -5.45619E+03 -7.82967E+02 -2.84040E+03  1.94415E+03  1.68120E+03  4.07286E+03 -1.44540E+02
  2.03822E+03  4.54120E+03  3.80691E+03  4.24979E+03 -3.06314E+03  1.10905E+03  3.22181E+03  1.53921E+03
 -6.32484E+02 -4.70247E+02  4.72299E+03  1.93455E+03  3.55290E+03  7.35888E+03  1.19649E+03  6.06573E+03
 -3.24439E+03  1.99363E+02 -9.31665E+03  3.92862E+03 -7.15646E+03  7.01927E+02 -2.62714E+03 -2.01017E+03
  2.99731E+03 -1.41553E+03  1.64999E+03 -1.69504E+03  8.86003E+03  2.21175E+03 -4.77078E+02 -1.00961E+02
 -5.10757E+03  1.50238E+03 -3.38363E+03 -4.47074E+03 -7.66261E+03 -7.50437E+03  4.99922E+03 -2.19179E+03
  1.35979E+03 -2.69718E+03  2.50758E+03  7.46884E+02  2.96749E+03  5.18692E+03  6.29163E+02 -2.38876E+03
 -6.92128E+03  9.75113E+02  5.16759E+02 -4.63234E+03 -2.07329E+03 -5.38583E+03  1.12001E+03 -2.88551E+03
  6.24209E+03  4.59484E+03  5.46116E+03 -1.62368E+03  1.89050E+03  5.90847E+03 -8.70954E+02  8.15236E+03
 -4.64405E+03  4.32037E+03 -8.47449E+03  2.91423E+03 -1.35480E+03 -5.65764E+03 -1.14749E+03  2.46241E+02
  5.57402E+03  2.19313E+03  6.84130E+03  5.90047E+03 -1.46445E+03  6.32324E+03  3.30576E+03 -8.30309E+02
 -6.95148E+02  4.99935E+02 -2.27415E+03  2.96633E+03  1.92821E+00  3.83443E+03  7.64368E+02  3.90363E+03
 -2.60547E+03  2.09908E+03 -3.08924E+03  3.18710E+03 -1.78591E+03 -3.78314E+03 -5.23368E+03 -3.99906E+03
  1.33245E+03 -7.30247E+03 -2.77738E+03 -8.45080E+03  1.79994E+03 -9.93940E+03  8.45174E+03  1.75314E+02
  6.58990E+03 -5.42157E+02  6.87829E+03  5.95574E+03  7.53043E+02  6.33926E+03 -3.84785E+03  9.36642E+01
  9.13304E+02  6.36962E+02 -1.26110E+03 -2.20632E+02 -6.32662E+02  4.77613E+03  1.14309E+03  3.35994E+03
 -3.99547E+03  9.99100E+02 -5.63270E+03  2.67711E+03  5.55421E+02 -8.46280E+03 -4.56514E+02 -3.55193E+02
 -2.33103E+02 -6.41753E+03  1.54589E+03 -1.06541E+03  6.48783E+03  7.55036E+02  2.94305E+03  6.20784E+03
 -6.84134E+03  6.50929E+03 -5.17860E+03 -2.16684E+03 -1.03105E+04 -3.69941E+03 -1.76023E+03 -5.10164E+03
 -2.17392E+03 -1.56626E+03  3.13070E+03 -6.43094E+03  4.42578E+03 -5.12896E+02  3.63669E+02 -1.41934E+03
  5.46141E+03  1.61614E+03  5.11241E+03  3.21312E+03  3.00482E+03 -5.59391E+03  1.45881E+03 -2.75316E+03
  2.37381E+03  2.98916E+02  8.32238E+03  8.28673E+02  2.35901E+03  2.88436E+03  1.50479E+03  6.27811E+03
 -2.44354E+03  4.26636E+03 -3.25004E+03 -4.11671E+03 -5.69505E+03 -5.39446E+03  1.63678E+03 -4.57678E+03
 -3.74790E+02  4.62459E+03  3.21430E+03  3.91776E+03  6.39398E+03  6.47021E+01  6.05728E+03  7.17997E+03
  1.40716E+03 -1.81899E+03 -5.04514E+03  6.23933E+03  2.37338E+03 -3.96678E+02 -2.19122E+01  1.17123E+03
  2.46057E+03 -4.77998E+03  2.93211E+03  9.22190E+02 -1.02425E+03 -1.56203E+03 -4.95434E+03  1.58198E+03
 -7.10421E+03 -3.24454E+03 -4.31576E+02 -2.14210E+03  5.48543E+03 -2.42649E+03  2.39909E+02 -9.57853E+02
  5.29804E+02 -2.99468E+03  6.87076E+03  3.69640E+02  1.44763E+03  7.53855E+03 -3.17564E+03 -1.47418E+03
