 $NMID ID='MM_0lb_SNR50_15hz_g50_52.RAW', FMTDAT='(8E13.5)'
 TRAMP=1., VOLUME=1. $END
  3.14908E+05 -3.43553E+03  3.38502E+05  2.48726E+05  8.49001E+04  3.35552E+05 -1.31770E+05  2.56142E+05
 -1.91261E+05  8.10033E+04 -1.09967E+05 -3.30939E+04 -3.05278E+02 -4.89985E+04  5.39403E+04 -3.54636E+02
  3.08413E+04  4.85400E+04 -1.31629E+04  7.86789E+04 -6.24346E+04  6.01232E+04 -8.58044E+04  2.21177E+04
 -8.06153E+04 -1.62071E+04 -5.24722E+04 -5.03207E+04 -1.42411E+04 -6.24431E+04  2.45013E+04 -4.63941E+04
  4.07562E+04  4.16267E+03  1.15556E+04  4.17032E+04 -3.65834E+04  4.70487E+04 -6.51044E+04 -1.86291E+03
 -5.24988E+04 -5.81689E+04 -6.23515E+03 -7.91582E+04  3.27328E+04 -5.82723E+04  5.19480E+04 -1.89160E+04
  4.00330E+04  1.57462E+04  2.81852E+04  2.72833E+04  9.92436E+03  3.49544E+04 -3.77747E+03  2.51275E+04
 -2.97289E+04  1.68358E+04 -1.63958E+04 -2.07057E+03  2.71551E+03 -1.05112E+04  2.33638E+04  1.49366E+04
  2.58592E+03  3.26892E+04 -3.41136E+04  3.51037E+04 -5.90218E+04  4.15951E+02 -5.35678E+04 -4.59298E+04
 -1.16189E+04 -5.94009E+04  4.01739E+04 -4.42330E+04  5.78799E+04  3.34919E+02  3.78972E+04  3.44161E+04
 -2.13659E+03  2.98604E+04 -3.07626E+04  2.15237E+04 -3.22114E+04  5.43714E+01 -1.59702E+04 -1.06518E+04
 -7.60184E+03 -1.12176E+04 -2.57306E+03 -1.42700E+04  8.27448E+03 -2.57822E+04  1.62767E+04 -1.57140E+04
  1.25171E+04  6.86861E+03 -7.36834E+03  1.59840E+04 -2.07829E+04 -6.39391E+03 -8.55136E+03 -3.66585E+04
  2.27021E+04 -4.26355E+04  4.75664E+04 -1.65842E+04  3.94149E+04  1.76261E+04  1.56420E+04  4.71614E+04
 -1.78538E+04  3.24489E+04 -2.90875E+04  6.04065E+02 -1.19265E+04 -3.02729E+04  2.29039E+04 -3.30296E+04
  4.01782E+04 -9.16117E+03  3.56747E+04  1.94896E+04  1.82481E+04  4.26673E+04 -3.67243E+03  4.59907E+04
 -3.09969E+04  3.02063E+04 -4.08641E+04  9.36230E+03 -3.94975E+04 -1.70731E+04 -3.03815E+04 -3.78983E+04
  7.07497E+03 -3.74003E+04  3.01145E+04 -1.03172E+04  2.75640E+04  7.68579E+03  6.61784E+03  2.19387E+04
 -1.92412E+04  5.06259E+03 -1.09874E+04 -1.12444E+04  5.25894E+03 -1.17568E+04  1.31374E+04  1.08588E+04
  1.56775E+04  1.79720E+04 -8.46312E+03  2.39422E+04 -2.25048E+04  9.24536E+03 -2.67040E+04 -9.69405E+03
 -2.26612E+04 -1.63601E+04 -8.64724E+03 -1.92564E+04  3.85153E+03 -1.88125E+04  1.45351E+04 -1.54730E+04
  2.79541E+04 -1.04313E+04  3.28832E+04  2.17340E+03  2.09811E+04  1.81901E+04  5.29170E+03  3.38908E+04
 -1.46367E+04  3.08121E+04 -2.71736E+04  9.69242E+03 -1.33367E+04 -9.64420E+03 -2.21893E+03 -1.37195E+04
  4.60289E+02 -2.73746E+03 -3.56003E+03  2.00962E+03 -1.42615E+04  4.89367E+03 -1.64865E+04 -6.29445E+03
 -8.78284E+03 -1.48872E+04  6.91777E+03 -2.18092E+04  1.45782E+04 -1.63152E+04  1.75702E+04 -2.82021E+03
  1.64603E+04  1.15940E+04 -4.22574E+03  1.81909E+04 -1.07454E+04  1.00669E+04 -1.98588E+04 -4.81596E+03
 -1.29409E+04 -1.65254E+04 -4.93496E+03 -2.71285E+04  1.58626E+04 -1.90454E+04  2.16082E+04 -9.06326E+03
  1.57728E+04  2.50550E+03  1.18352E+04 -1.99876E+02  5.63383E+03  1.27275E+02  1.32250E+04 -3.25181E+03
  1.56191E+04  5.36559E+03  2.14721E+04  1.08681E+04  1.09930E+04  3.01907E+04 -5.57329E+03  3.19869E+04
 -1.81293E+04  2.65648E+04 -3.12835E+04  1.34243E+04 -2.70158E+04 -1.05101E+04 -2.90324E+04 -1.65138E+04
 -1.11860E+04 -2.74061E+04  1.11969E+04 -2.14871E+04  1.78326E+04 -1.30903E+04  1.72425E+04  6.77805E+03
  1.14772E+04  1.39289E+04 -8.84858E+03  1.30340E+04 -1.45981E+04  4.88396E+03 -1.16417E+04 -9.30757E+03
  4.82480E+02 -1.57717E+04  7.44163E+03 -7.99356E+03  1.51713E+04  2.08702E+03  3.41464E+03  2.96463E+03
 -9.02037E+03 -1.33631E+02 -2.87131E+03 -5.63242E+03 -3.97418E+03 -1.34557E+04  7.90431E+03 -2.11428E+04
  1.67695E+04 -9.84806E+03  1.92330E+04  9.24211E+03  1.60331E+04  9.81766E+03  8.97912E+03  1.99225E+04
 -1.43296E+03  1.56232E+04 -1.11565E+04  1.12091E+04 -1.24783E+04  1.21257E+03 -1.13913E+04 -3.72784E+01
 -1.10596E+04 -1.01857E+04 -4.15665E+03  1.32262E+03 -3.11420E+03  7.29471E+03 -4.23623E+03 -9.68530E+02
 -8.83703E+03  3.96538E+03 -7.73354E+03 -1.05483E+04 -6.94553E+03 -1.48384E+04  9.20233E+03 -1.64347E+04
  6.96759E+03 -5.29764E+03  2.24347E+03  4.25155E+03 -2.55108E+03  6.64024E+03 -7.39327E+03 -1.54208E+03
 -6.84876E+03 -6.98705E+03 -9.89778E+02 -1.53687E+04  1.20926E+04 -7.63370E+03  1.05247E+04 -9.55325E+03
  1.13630E+04 -1.97419E+03  1.48184E+04  5.89866E+03  3.78230E+03  1.31512E+04 -6.20174E+03  9.79092E+03
 -8.69122E+03  7.64991E+03 -1.59125E+03 -3.28374E+03 -8.24929E+02 -1.03341E+03  9.90962E+03 -3.02200E+02
  5.37303E+03  4.04433E+03  2.21319E+02  4.19210E+03 -7.50197E+03  7.45620E+03 -8.86736E+03  3.35959E+03
 -8.75139E+03 -1.48118E+03 -2.32382E+03 -6.76171E+03  3.89996E+03 -7.24221E+03  4.40438E+03 -1.88138E+03
 -1.70223E+03  1.54610E+03 -2.39962E+03  4.24141E+03 -8.67490E+03  1.27316E+03 -5.05314E+03  5.30719E+02
 -1.38595E+03 -4.95169E+03  4.42189E+03 -9.23696E+03  1.05243E+04 -7.79470E+03  8.44556E+03  3.03632E+03
  5.50992E+03  1.13705E+04  3.48293E+03  8.68175E+03 -1.18500E+04  6.39676E+03 -8.47160E+03  1.69547E+03
 -4.47356E+03 -7.97515E+03 -1.18590E+03 -6.87151E+03  2.25420E+03 -5.34636E+03  5.38178E+03  4.50782E+02
  1.01024E+03 -3.42761E+03  3.59378E+03  2.99413E+03  6.46106E+02 -4.10493E+03  5.00259E+03  4.20156E+03
  6.05337E+03 -2.02032E+03  7.38950E+03  2.37919E+03  8.48803E+03  6.19972E+03  4.98397E+03  1.12955E+04
 -5.11009E+03  1.19166E+04 -1.29405E+04  1.27602E+04 -1.08242E+04  2.31501E+02 -1.15340E+04 -5.13253E+03
 -5.50486E+03 -1.23010E+04  5.71329E+02 -8.33306E+03  5.54476E+03 -8.76219E+03 -2.29138E+03 -1.19310E+03
  3.02128E+03  3.02341E+02  2.79785E+02  3.47663E+02 -2.55015E+03 -1.59487E+03  3.99320E+03  4.84217E+03
  4.86159E+03  3.41074E+03 -4.89758E+02  4.13162E+03 -1.50077E+03  6.47165E+03 -4.94073E+03  4.93167E+03
 -2.45344E+03 -3.13632E+02 -5.77462E+03 -1.15709E+03  4.46319E+03 -6.12277E+03  6.24071E+03 -5.40944E+03
  8.66026E+03 -6.89093E+03  6.87367E+03 -6.55017E+02  4.62493E+03  6.86662E+03 -2.11362E+03  7.15179E+03
 -1.59477E+03  5.73703E+03 -9.33181E+03  4.05113E+03 -7.26150E+03 -3.03946E+02 -2.82468E+02 -2.33339E+03
 -4.48207E+03 -7.12060E+02  2.15075E+03  8.20105E+02 -1.39780E+02  2.53028E+03 -2.61941E+03 -2.24688E+03
  1.76039E+03 -8.25416E+03  1.15164E+03 -6.65146E+03  9.82062E+03 -1.03772E+04  6.11676E+03  1.33739E+03
  7.88421E+03  2.12035E+03  4.83880E+03  3.42750E+03 -9.20377E+02  5.95752E+03 -1.09071E+04  6.71525E+03
 -7.38203E+03  4.04181E+03 -6.96639E+03 -6.13191E+03 -1.53393E+03 -4.11134E+03  1.91415E+03 -3.78185E+03
 -6.42714E+02  1.37627E+03  5.97893E+02  3.47888E+03  2.49046E+03  4.17287E+03  4.81564E+03  2.10357E+03
  1.86265E+03 -1.11365E+03 -9.26780E+02 -4.23695E+03  6.94708E+03  4.11119E+03  4.38790E+02  1.48498E+03
  1.18977E+03  7.84515E+03 -8.74043E+03  2.14522E+03 -1.41659E+03  1.52462E+03 -9.34727E+03  2.30402E+03
 -1.31491E+03 -8.58159E+03  4.42923E+03 -9.60871E+03  6.02238E+03 -7.64433E+03  2.36361E+03  3.67260E+03
  3.96528E+03  2.80668E+03  4.66141E+02  2.88134E+03  2.43909E+03  2.03726E+03 -2.00888E+03  2.97641E+03
  2.70745E+02  7.73219E+02 -9.84709E+02 -7.45412E+03  2.27181E+03 -4.62939E+03  4.12477E+03  1.85949E+03
 -2.11123E+03  1.44110E+03  3.31470E+03 -1.23658E+03 -3.00828E+03  2.54409E+03  5.95164E+03  4.67310E+03
  2.92110E+03 -2.64834E+03  6.76868E+03  1.44679E+03  1.19284E+03 -3.16976E+03  1.16386E+02  2.25858E+03
 -2.44505E+03 -9.30018E+02 -6.15282E+02  3.34668E+03 -8.43681E+02 -4.21671E+03 -2.75240E+03 -4.92949E+03
  6.97376E+03 -1.39915E+03  3.55682E+03 -1.47239E+03 -2.81739E+03  9.03617E+02 -2.22537E+03  2.35540E+03
 -4.22010E+03  1.32083E+03  8.14921E+02 -5.61321E+03 -7.88948E+03 -1.13890E+04 -3.39107E+03 -4.75226E+03
 -1.82719E+03  7.34777E+02  3.91558E+03  1.84089E+02  2.47048E+03 -1.60332E+03 -1.58176E+03 -1.82276E+03
  1.81782E+01 -3.10629E+03 -1.61141E+03 -2.21891E+02  3.25072E+03 -4.42348E+03  3.45738E+03 -8.41988E+02
  6.54995E+03  1.43237E+03  4.03577E+03  2.32783E+03  2.20052E+03  3.06465E+01  1.78695E+03  5.13273E+03
 -2.72127E+03  5.47280E+02 -2.82268E+03  1.01568E+03 -1.26058E+03 -1.11991E+03  1.29499E+03 -2.88778E+03
 -1.53710E+03 -1.83363E+03  4.70410E+03 -3.72405E+02  3.94876E+03  3.32806E+03  4.69116E+03  5.77723E+03
  4.88173E+03  3.72697E+03 -2.65439E+03 -5.19873E+03 -9.14681E+02  5.15878E+03 -3.17650E+03  6.03759E+02
 -3.24831E+03  3.05586E+03 -1.81466E+03 -1.07514E+03 -3.22343E+03 -3.49104E+02 -8.71307E+03 -1.27832E+03
 -2.79527E+03 -2.25074E+03 -2.65515E+03 -3.89820E+03  6.12368E+03 -1.38109E+03  6.30988E+03 -4.38094E+02
  7.74228E+03  1.99923E+03 -2.11412E+03  2.68432E+03 -2.13902E+03  2.42261E+03 -6.94993E+02  4.56125E+03
 -6.50352E+03  2.03590E+03  5.93343E+03 -5.14821E+03 -3.73749E+03 -3.85683E+03  5.02411E+02  1.87801E+03
 -6.81439E+02 -1.08931E+02 -2.25754E+03  1.12130E+03 -1.95045E+03  6.19118E+02  2.35757E+03 -2.88437E+03
  2.99364E+03 -4.09701E+03  3.17839E+03 -2.73034E+03  2.93528E+03  2.70144E+03 -3.91308E+03  9.35266E+02
 -4.49040E+03  8.72086E+03 -1.99933E+03  1.85711E+03 -4.69635E+03 -1.13929E+03  3.77112E+03 -3.98595E+03
 -1.24839E+03 -1.84421E+03  1.36693E+03 -1.71236E+03 -2.30505E+03  1.41709E+03  2.31131E+03 -1.08797E+03
  1.85931E+03  2.74540E+03 -1.38911E+03  2.08508E+03 -2.30133E+03  1.36705E+03  1.20904E+03  4.05781E+03
  2.51902E+03 -2.28440E+03  1.04552E+03 -1.03085E+03  5.53781E+02 -1.65790E+03 -2.90223E+02  7.08403E+03
  8.18163E+02 -6.49837E+03 -6.33199E+03  9.52173E+02 -9.79528E+02 -5.05135E+03 -1.01250E+03 -3.83444E+03
 -1.55775E+02 -2.63991E+03  5.32427E+03 -3.32148E+02 -5.17247E+02 -1.92709E+03  2.83872E+02 -2.96833E+03
  6.13296E+03 -1.54616E+03  3.34131E+02 -1.23362E+03 -1.00168E+02 -1.27670E+03 -1.92285E+03 -2.81698E+03
 -1.76806E+03 -2.55173E+03  5.56618E+01 -3.32954E+03 -2.37777E+03  3.84492E+03 -1.48302E+03 -6.76942E+02
 -2.47110E+02  6.24651E+02 -4.56704E+03  2.11188E+03  3.26855E+03 -1.20823E+03  2.23705E+03  1.98331E+03
  3.36912E+03  6.71261E+02  2.16221E+03  1.51082E+02 -1.02739E+03  5.95839E+03  1.31278E+03 -2.34343E+03
