 $NMID ID='MM_0lb_SNR50_8hz_g55_58.RAW', FMTDAT='(8E13.5)'
 TRAMP=1., VOLUME=1. $END
  3.08779E+05  5.37013E+03  3.33317E+05  2.50974E+05  8.70497E+04  3.39885E+05 -1.34595E+05  2.49633E+05
 -1.97512E+05  7.58484E+04 -1.14161E+05 -3.36052E+04 -6.82663E+02 -5.17488E+04  4.88728E+04  3.83691E+03
  3.88758E+04  5.92198E+04 -1.06834E+04  7.95759E+04 -6.13957E+04  6.55592E+04 -8.44431E+04  3.81418E+04
 -8.20542E+04 -8.74313E+03 -5.54706E+04 -5.29509E+04 -9.68395E+03 -7.39618E+04  2.60344E+04 -4.32242E+04
  4.26963E+04  1.66227E+03  1.25107E+04  5.17676E+04 -3.79012E+04  5.02042E+04 -6.45749E+04  2.33244E+03
 -5.66601E+04 -5.19202E+04 -7.57684E+03 -7.79178E+04  3.86273E+04 -5.45018E+04  4.55572E+04 -2.16719E+04
  4.57306E+04  1.08743E+04  3.92061E+04  2.08984E+04  2.19420E+04  3.09873E+04 -2.97257E+03  2.72658E+04
 -2.22662E+04  1.23696E+04 -1.37336E+04 -8.96369E+03  6.24948E+03  1.70360E+03  2.85876E+04  1.29271E+04
  1.47065E+04  3.72273E+04 -3.56232E+04  3.65653E+04 -6.89863E+04  3.29899E+03 -5.96427E+04 -4.69568E+04
 -1.93118E+04 -6.37989E+04  4.31536E+04 -5.08540E+04  6.36105E+04  1.03505E+02  3.60402E+04  3.31451E+04
 -2.37194E+03  4.19093E+04 -2.91614E+04  2.04869E+04 -3.08388E+04 -2.13136E+03 -2.34720E+04 -2.08450E+04
 -1.42528E+04 -2.07786E+04 -2.75014E+02 -1.89414E+04  2.49467E+03 -2.18466E+04  1.82897E+04 -1.28384E+04
  1.18236E+04  9.82303E+03 -7.13417E+03  1.41900E+04 -2.08821E+04 -5.15790E+03 -6.76136E+03 -4.06735E+04
  2.15021E+04 -4.74118E+04  4.38573E+04 -2.67152E+04  4.86873E+04  2.45585E+04  1.48751E+04  5.50843E+04
 -2.10712E+04  3.47240E+04 -2.41012E+04 -1.17068E+03 -1.81625E+04 -2.57832E+04  2.34358E+04 -3.99636E+04
  4.23473E+04 -1.40688E+04  3.97938E+04  2.51646E+04  2.03833E+04  5.29303E+04 -9.01765E+03  5.35780E+04
 -4.09663E+04  3.92472E+04 -4.91353E+04  1.23715E+04 -4.95696E+04 -1.62299E+04 -1.67710E+04 -4.79539E+04
  8.04171E+03 -4.13858E+04  4.01463E+04 -2.10205E+04  2.99698E+04  5.13735E+03  2.62232E+03  2.43929E+04
 -1.71492E+04  1.14001E+04 -1.57465E+04 -6.23860E+03  6.69699E+03 -1.14250E+04  1.75484E+04  7.99846E+03
  1.16259E+04  2.33274E+04 -7.43322E+03  2.19250E+04 -3.14790E+04  1.63509E+04 -2.72620E+04  3.13096E+02
 -2.93495E+04 -1.99933E+04 -1.96490E+04 -2.50575E+04 -8.17182E+03 -3.02477E+04  1.53744E+04 -2.59991E+04
  2.97495E+04 -1.12914E+04  4.69031E+04  1.05965E+03  3.53401E+04  1.89108E+04  1.03844E+04  4.24876E+04
 -1.95857E+04  3.84682E+04 -3.17788E+04  1.54971E+04 -2.61895E+04 -7.35410E+03 -7.25098E+01 -1.37178E+04
 -1.68274E+03 -1.20077E+02 -1.02880E+04  1.16199E+04 -2.33951E+04  2.59301E+03 -2.24082E+04 -3.88309E+02
 -1.73438E+04 -2.21663E+04 -2.42906E+02 -2.90743E+04  1.69808E+04 -1.87855E+04  2.00639E+04  6.74849E+02
  1.84757E+04  1.42792E+04 -1.51304E+03  2.76497E+04 -1.39272E+04  1.43233E+04 -3.65871E+04 -7.22019E+03
 -1.17736E+04 -2.17588E+04 -1.68371E+03 -2.86974E+04  1.57157E+04 -2.01472E+04  2.13019E+04 -1.29872E+04
  2.41395E+04  4.09827E+03  1.59243E+04  5.34932E+03  7.94159E+03  1.19400E+03  1.28681E+04 -9.22449E+01
  2.49356E+04 -5.59880E+02  2.23230E+04  1.40227E+04  2.39110E+04  3.59594E+04 -1.19510E+02  4.74667E+04
 -2.12104E+04  4.17495E+04 -4.14748E+04  1.80993E+04 -5.12963E+04 -7.83106E+03 -2.84456E+04 -2.83583E+04
 -2.15140E+04 -3.91271E+04  7.16830E+03 -3.15150E+04  2.40986E+04 -1.23526E+04  2.90260E+04  1.33673E+04
  1.20834E+04  2.20699E+04 -9.12436E+03  1.13961E+04 -2.47102E+04  5.38135E+03 -1.86094E+04 -1.11733E+04
 -4.07572E+03 -1.58723E+04  1.41531E+04 -2.30199E+04  1.00252E+04 -3.10726E+03 -1.42251E+03  8.57133E+03
 -7.55971E+03  8.34515E+03 -4.60440E+03 -1.23742E+04 -1.92262E+03 -2.09833E+04  1.57481E+04 -2.51972E+04
  2.73850E+04 -1.36488E+04  3.88051E+04 -6.15754E+03  2.91117E+04  2.01390E+04  1.04168E+04  3.27597E+04
 -1.16032E+04  2.79184E+04 -1.80721E+04  2.15831E+04 -2.33851E+04 -1.21831E+03 -1.91608E+04 -7.15377E+03
 -1.43268E+04 -1.00081E+04  1.97115E+03  4.72548E+03 -3.03734E+03  5.95569E+03 -9.01616E+03 -1.19822E+03
 -1.61343E+04 -7.21467E+03 -7.53963E+03 -1.28580E+04 -1.03877E+03 -1.97806E+04  7.92346E+03 -1.37888E+04
  1.49166E+04 -8.18752E+03  3.85242E+03  6.87132E+03 -2.85273E+03  6.11986E+03 -6.34755E+03 -2.36316E+03
 -1.09315E+04 -1.70706E+04 -3.99793E+02 -2.20461E+04  9.35686E+03 -1.69243E+04  2.58375E+04 -8.35529E+03
  2.65513E+04  1.25462E+03  2.14338E+04  1.28836E+04  1.47245E+03  2.17793E+04 -9.50081E+03  1.57519E+04
 -1.80287E+04  2.73679E+03 -7.36234E+03  5.05144E+03  5.60626E+03 -1.62459E+03  2.44074E+03 -4.22988E+03
  5.67733E+03  9.36633E+03  9.86057E+02  1.43256E+04 -1.07049E+04  9.74032E+03 -1.93763E+04  6.80321E+03
 -1.17314E+04 -1.01803E+04 -9.19399E+03 -1.03589E+04  1.36784E+04 -5.97651E+03  4.98885E+03  3.26532E+03
  5.12850E+03  9.02768E+03 -8.55499E+03  9.91441E+03 -1.47197E+04  7.47841E+03 -1.21144E+04 -7.15337E+02
 -1.07598E+04 -1.52917E+04  3.16854E+03 -1.77812E+04  1.85971E+04 -1.73554E+04  1.94609E+04  2.16530E+03
  1.24160E+04  1.87911E+04 -6.63784E+03  1.43373E+04 -1.67508E+04  9.16822E+03 -1.57208E+04 -9.20361E+03
 -8.52654E+03 -1.57731E+04 -2.49008E+03 -1.04051E+04  6.70812E+03 -8.28701E+03  1.06888E+04 -4.86226E+03
  1.32718E+03  1.23638E+03 -5.72849E+03  3.51753E+03  1.99176E+03 -3.08120E+03  5.40482E+03 -2.76488E+03
  1.65353E+04 -2.38173E+03  1.95570E+04  4.97149E+03  1.34791E+04  1.30725E+04  1.43585E+04  2.37737E+04
 -6.63520E+03  2.67315E+04 -2.24162E+04  1.93138E+04 -3.19702E+04  6.91484E+03 -2.31219E+04 -1.32621E+04
 -1.39157E+04 -1.47679E+04  2.52342E+03 -1.54523E+04  4.95170E+03 -2.38499E+03  1.18807E+04 -1.78704E+03
  1.14486E+04 -1.04067E+03  6.55597E+03 -8.52082E+03  2.98325E+03 -8.41115E+03  6.95473E+03 -1.04042E+03
  1.33735E+04  9.03479E+03  4.71632E+03  1.34638E+04 -4.73675E+03  1.05993E+04 -7.17529E+03  1.46477E+04
 -1.46589E+04  2.16260E+03 -8.86028E+03 -1.66977E+04 -3.38183E+03 -6.59036E+03  7.65681E+03 -1.43512E+04
  1.76258E+04 -1.24614E+04  2.17190E+04 -1.45872E+03  1.08795E+04  1.49855E+04  5.19630E+03  2.77425E+04
 -6.98285E+03  8.51382E+03 -2.03206E+04  7.17084E+03 -1.16829E+04 -2.24428E+03 -8.36714E+03 -1.10365E+04
 -4.04998E+03  3.85044E+03  4.90023E+03  6.47788E+03 -5.43536E+03  3.75808E+03 -1.29311E+04  1.53554E+03
 -8.87974E+03 -9.14124E+03  1.06476E+03 -1.43733E+04  1.01506E+04 -1.61641E+04  1.66406E+04 -5.25479E+03
  1.92521E+04  1.11583E+04  4.59697E+03  1.92279E+04 -5.64887E+02  1.86425E+04 -1.76844E+04  1.24975E+04
 -1.84875E+04  2.29140E+03 -1.34509E+04 -1.53499E+04 -2.16874E+02 -1.75609E+04  2.36467E+03 -8.66039E+03
  7.73084E+03 -8.25173E+03  1.17099E+04  3.39090E+03  1.02088E+04  9.27727E+03  2.30651E+03 -1.48595E+03
  1.66129E+02  1.53553E+03  1.68856E+02 -5.74029E+01  1.02836E+04  5.51582E+03  1.44338E+03  1.09327E+04
 -2.16834E+03  1.35929E+04 -1.07030E+04  1.48195E+04 -1.91075E+04  3.80994E+03 -2.32580E+04 -6.11104E+03
 -4.03283E+03 -1.63563E+04  3.90346E+03 -2.03157E+04  1.00669E+04 -1.48505E+04  2.09472E+04 -2.96538E+01
  1.62506E+04  1.06094E+04 -5.37498E+03  4.65447E+03 -6.08629E+03  1.63125E+03 -7.70371E+03 -1.84845E+03
 -8.50965E+03 -8.21859E+03  1.59927E+04 -1.26040E+04  1.16342E+04 -8.14011E+02  1.17701E+04  1.02670E+04
  8.21911E+03  1.42438E+04  2.41334E+03  3.32014E+03 -1.17019E+03  3.76400E+03 -5.64359E+03  1.42338E+03
  4.42696E+03 -3.73021E+01  1.56408E+03 -6.86606E+03  5.87611E+03  7.43087E+03 -4.86060E+03  5.35267E+03
 -7.14984E+03  6.59728E+03 -1.60404E+04  3.79257E+03 -1.11357E+04 -7.78568E+03 -4.67964E+03 -8.07458E+03
 -9.12618E+01 -2.39694E+03  8.58534E+03 -4.68435E+03  4.75935E+03 -7.90874E+02  8.86213E+02  7.59701E+03
 -1.13466E+04 -1.55956E+03 -1.50743E+04  2.14670E+03 -1.56959E+03 -6.52918E+03  7.42563E+03 -1.43170E+04
  7.76182E+03 -8.42462E+03  4.74724E+03  4.53017E+03  4.70819E+03  1.00698E+04  1.58280E+03  3.74926E+03
 -9.26926E+03  3.26957E+03 -4.49034E+02 -6.53905E+03 -2.71436E+03 -6.79753E+03  6.54014E+03 -4.19631E+03
  1.37325E+04  4.94250E+03  1.24036E+04  1.87104E+04  7.03995E+03  1.44215E+04 -5.62262E+03  5.29841E+03
 -1.25456E+04  3.37463E+03 -8.70288E+03  3.94296E+03 -4.63309E+03 -6.09794E+03  2.47525E+03 -7.29697E+03
  5.98619E+03 -2.39727E+03  1.15699E+04 -3.39072E+03  6.52529E+03  9.70251E+03 -3.00686E+03  6.36752E+03
 -5.78717E+03  1.24992E+04 -1.29707E+04 -1.69777E+01  1.14210E+03  3.29098E+03 -4.05464E+03  1.75141E+01
  2.69535E+03 -2.72455E+03 -1.75429E+04  5.17644E+03 -8.60912E+03  8.25594E+02 -1.65108E+04 -4.35741E+03
 -1.19928E+04 -1.61186E+04  2.97818E+03 -2.01248E+04  1.18772E+04 -1.31881E+04  2.16754E+04 -2.98277E+03
  1.52219E+04  4.64019E+02  1.87161E+04  9.82547E+03 -3.33613E+03  5.52840E+03 -1.44526E+04  7.51837E+03
  5.76432E+02 -2.02793E+03 -9.28517E+02 -2.21201E+03 -2.22872E+03 -6.13724E+03 -4.26588E+03  5.61280E+03
  5.80280E+03 -2.72946E+02  2.50081E+03  2.34954E+03 -3.89132E+03 -2.40331E+03  5.93058E+03  1.48361E+03
  8.74248E+03 -3.71084E+03  5.68405E+03  4.82184E+03  5.90818E+03  5.04545E+03  6.06724E+03  1.47124E+04
 -4.09594E+03  1.97100E+04 -1.61892E+04  3.83243E+03 -1.59469E+04  3.91127E+02 -1.56942E+04 -1.24570E+04
 -5.01594E+03 -1.08575E+04  1.18011E+03 -9.09498E+03  1.01301E+04 -8.14931E+03  6.81379E+03  1.24576E+03
  1.11663E+04  4.58057E+03 -8.24772E+02 -9.98713E+02 -8.82116E+03 -7.40719E+03 -2.01744E+03 -2.20398E+03
  1.69379E+02 -4.79096E+03  1.18362E+04  2.36492E+03  3.06190E+03  3.66676E+03  1.57520E+03  4.02257E+03
 -6.66788E+03  6.16151E+03 -1.29459E+04 -9.76739E+02 -3.00798E+03 -2.76008E+03  1.92680E+03 -1.05974E+04
 -8.40851E+02 -3.49744E+03  1.37478E+04 -7.68982E+03  7.59429E+03  5.73812E+03 -1.78270E+03  6.21388E+03
  4.45354E+03  1.42989E+04 -7.77226E+03  7.82547E+03 -9.69767E+03  2.08131E+03 -9.91249E+03  1.18029E+03
 -5.03748E+03 -7.09415E+03 -3.24307E+02  6.80779E+03 -1.22699E+04  3.18455E+03 -5.41105E+01 -4.45815E+03
 -1.94836E+02 -4.11743E+03 -1.11576E+01 -1.07317E+04 -2.02291E+03 -4.48412E+03  4.35255E+03 -9.58986E+03
  1.33207E+04  6.25148E+03  7.28721E+02  7.53950E+03  1.32147E+03  8.43785E+03 -1.47972E+04  2.73431E+03
