 $NMID ID='MM_0lb_SNR50_18hz_g50_87.RAW', FMTDAT='(8E13.5)'
 TRAMP=1., VOLUME=1. $END
  3.06550E+05 -4.90590E+02  3.40401E+05  2.48847E+05  8.26612E+04  3.37694E+05 -1.31737E+05  2.52715E+05
 -1.89574E+05  8.23475E+04 -1.10707E+05 -2.94919E+04  4.28163E+03 -4.85485E+04  5.74599E+04  4.38162E+02
  3.37835E+04  5.73169E+04 -1.83696E+04  7.29383E+04 -5.93958E+04  6.39060E+04 -8.18862E+04  3.17386E+04
 -8.52053E+04 -1.04001E+04 -5.90986E+04 -4.82975E+04 -1.17849E+04 -6.90766E+04  2.63271E+04 -4.38023E+04
  4.25733E+04  8.09396E+02  1.26357E+04  4.95658E+04 -3.76669E+04  4.59108E+04 -6.55976E+04 -2.11769E+03
 -5.35242E+04 -5.53670E+04 -7.78370E+03 -7.71011E+04  3.44736E+04 -5.45996E+04  4.18934E+04 -1.37043E+04
  4.22215E+04  8.27130E+03  3.04749E+04  2.66192E+04  1.49777E+04  2.76303E+04 -4.87033E+03  2.78585E+04
 -2.17343E+04  1.42806E+04 -1.78161E+04 -4.49575E+03  6.45148E+03 -7.48020E+03  2.01646E+04  1.05196E+04
  8.45291E+03  3.54704E+04 -3.20465E+04  3.23633E+04 -6.14412E+04  4.94515E+03 -5.52057E+04 -3.74751E+04
 -1.23011E+04 -6.35287E+04  3.86367E+04 -4.30186E+04  5.54775E+04 -3.88315E+02  2.73123E+04  3.21146E+04
 -3.92746E+03  3.33009E+04 -2.83323E+04  7.47354E+03 -2.41433E+04 -5.75571E+03 -1.29375E+04 -1.07233E+04
 -7.13364E+03 -1.32588E+04 -3.38902E+03 -1.76834E+04  6.37010E+03 -1.86483E+04  1.36062E+04 -9.34220E+03
  1.53188E+04  4.58647E+03 -7.08327E+03  1.27594E+04 -2.08935E+04 -4.87426E+03 -8.52312E+03 -3.41067E+04
  2.36578E+04 -4.08200E+04  4.13307E+04 -2.16768E+04  4.18104E+04  1.63229E+04  1.71067E+04  4.13378E+04
 -1.29638E+04  3.82374E+04 -2.78277E+04  1.31122E+03 -9.71799E+03 -2.94456E+04  2.33396E+04 -3.49991E+04
  3.60912E+04 -1.12673E+04  3.40334E+04  2.46169E+04  1.60551E+04  4.50437E+04 -9.23731E+03  4.45251E+04
 -3.49826E+04  3.08434E+04 -4.00670E+04  1.29330E+04 -3.62202E+04 -1.55684E+04 -1.78478E+04 -3.74128E+04
  6.27923E+03 -3.07209E+04  2.73895E+04 -1.31116E+04  2.67991E+04  1.04907E+04 -2.14350E+03  2.29087E+04
 -1.51080E+04  4.32820E+03 -9.84481E+03 -8.68269E+03  9.11406E+03 -8.01120E+03  2.09167E+04  7.54396E+03
  1.37670E+04  2.48758E+04 -7.34520E+03  1.82021E+04 -2.26859E+04  9.50488E+03 -2.28280E+04 -3.92496E+03
 -1.99216E+04 -1.87147E+04 -6.29204E+03 -1.46553E+04  1.70775E+03 -1.23379E+04  1.15114E+04 -1.22599E+04
  2.16333E+04 -1.30536E+04  2.92687E+04  5.76310E+03  2.73446E+04  1.82600E+04 -4.83279E+02  3.30837E+04
 -1.45613E+04  2.38532E+04 -1.84195E+04  7.87094E+03 -1.66859E+04 -1.00565E+04 -7.56197E+03 -9.95856E+03
  5.48488E+03 -2.48737E+03 -4.47995E+03  4.21103E+03 -1.56636E+04  4.84589E+03 -1.33863E+04 -5.56129E+03
 -9.04820E+03 -1.23616E+04  5.19537E+02 -2.45515E+04  1.59273E+04 -1.22563E+04  1.63272E+04 -3.20822E+03
  8.03645E+03  1.10551E+04 -2.32441E+03  1.69768E+04 -1.21737E+04  1.27204E+04 -1.57730E+04 -9.65663E+02
 -1.35354E+04 -1.10465E+04  1.33321E+02 -1.70347E+04  1.46643E+04 -1.61863E+04  1.91651E+04 -9.31259E+03
  1.32646E+04 -1.57936E+03  8.65547E+03 -4.88212E+01  8.82410E+03  9.82297E+02  1.19865E+04 -2.10521E+03
  1.47475E+04  3.62577E+03  2.00616E+04  1.38715E+04  8.16221E+03  2.28231E+04 -1.79385E+03  2.76188E+04
 -1.86338E+04  2.36734E+04 -2.30375E+04  7.80595E+03 -2.68498E+04  2.46615E+03 -2.46627E+04 -1.22931E+04
 -1.27573E+04 -2.23461E+04  8.75639E+03 -2.06213E+04  1.67964E+04 -9.44270E+03  1.43250E+04  4.05690E+03
  7.86340E+03  1.49165E+04 -6.49481E+03  1.05673E+04 -8.82209E+03  6.13816E+03 -1.12458E+04 -6.77958E+03
 -2.21536E+03 -1.08383E+04  8.73744E+03 -8.63431E+03  5.73661E+03 -3.67279E+02  7.98652E+02  4.30300E+03
 -4.29393E+03 -3.59248E+03 -6.58730E+03 -2.74143E+03  7.99673E+01 -7.21625E+03  7.19754E+03 -1.13001E+04
  1.61952E+04 -6.74271E+03  9.93552E+03 -3.76837E+03  1.36887E+04  1.15480E+04  7.43261E+03  1.40667E+04
 -9.68796E+02  1.45977E+04 -1.06065E+04  1.13056E+04 -8.61447E+03  7.87391E+02 -1.36166E+04 -4.49028E+03
 -7.19354E+03 -4.84166E+03 -3.41819E+03  2.98773E+03 -4.53697E+03 -2.03234E+03 -3.48635E+03  2.93181E+03
 -7.72947E+03  1.30091E+03 -5.57440E+03 -1.14227E+04 -2.75448E+03 -1.18681E+04  4.90055E+03 -8.78253E+03
  6.72860E+03 -1.99483E+03  9.72927E+03  3.57269E+02  2.70929E+03  9.73219E+02 -3.44362E+03  7.25909E+02
 -3.85869E+03 -5.62102E+03  1.11835E+03 -8.74319E+03  3.82583E+03 -7.73772E+03  4.33145E+03 -6.23726E+03
  1.06574E+04  1.62057E+03  7.34377E+03  7.59471E+03  2.99515E+03  2.43531E+03 -7.01069E+03  1.58006E+04
 -6.51766E+03  9.20153E+03 -3.60243E+02 -2.03744E+03  4.28427E+03 -7.28625E+02  3.86250E+03 -2.32325E+03
  6.87600E+03  4.48992E+03 -1.02800E+03  5.90082E+03 -5.26364E+03  1.15416E+04 -4.76227E+03 -2.20681E+03
 -4.47771E+03 -6.90078E+03  2.23008E+03 -5.61687E+03  3.02647E+03  8.84403E+02  5.41161E+03 -4.32828E+03
 -3.59766E+03  4.14654E+03 -5.79846E+03  7.42810E+03 -9.09316E+02  3.12568E+03 -4.61315E+03 -2.40002E+03
 -4.94145E+03 -8.87145E+03  4.10375E+02 -1.06155E+04  9.11147E+03 -3.10041E+03  9.34775E+03  3.07120E+03
  2.39684E+03  1.94823E+03 -1.45896E+03  1.13141E+04 -7.03921E+03  8.82071E+02 -3.65987E+03 -1.65575E+03
 -6.44299E+03 -5.48199E+03  1.81481E+03 -7.47492E+02  4.22480E+03 -4.46910E+03 -6.52710E+02 -3.11542E+03
  1.17135E+03  2.23630E+02 -1.04365E+01  5.19806E+03 -1.14373E+03  4.16323E+03 -3.18427E+03  2.88761E+02
  3.25292E+03 -2.67967E+03  8.11485E+03  2.86543E+03  2.19678E+03 -9.80210E+02  4.79822E+03  9.23934E+03
  2.49325E+02  1.08368E+04 -8.21977E+03  4.78205E+03 -1.21392E+04  6.70826E+02 -8.82052E+03 -1.21218E+01
 -5.36962E+03 -4.29990E+03 -2.07973E+03 -1.00945E+04 -6.66664E+02 -1.92332E+03  3.72534E+03 -5.06595E+01
  9.72925E+02 -4.61859E+03  4.25089E+03 -2.47854E+03  6.41571E+03  1.86405E+02  6.29564E+03  2.11878E+03
  2.21548E+03  9.01116E+02  2.57438E+03  6.53033E+03 -2.01055E+03  4.30854E+03 -5.34845E+03  1.56301E+03
 -4.23383E+03  1.05058E+03 -6.89525E+03 -2.16928E+03  2.17426E+03 -8.27625E+03  3.90485E+03 -5.56368E+03
  1.56846E+03 -2.81759E+03  5.06855E+03 -4.09955E+03  5.54629E+03  4.54578E+03  4.03749E+02  6.50887E+03
 -3.03536E+03  8.15254E+03 -3.31755E+03  4.18825E+03 -2.85663E+03  1.36393E+03 -3.95023E+03 -4.04883E+03
  4.23676E+02 -3.99443E+03 -4.53079E+02  3.79463E+03 -7.93778E+03 -5.01535E+02 -6.79626E+03 -2.54959E+03
 -4.60633E+03 -1.48495E+03 -2.70836E+03 -5.28636E+03  1.71568E+03 -4.95416E+03  7.16810E+03 -3.16287E+03
  5.45671E+03  1.68406E+03  1.66145E+03  3.76469E+03 -2.12459E+03  9.70514E+03 -2.49192E+03 -1.50551E+03
 -5.20311E+03  3.25376E+03 -4.96400E+03 -7.58406E+02  2.45159E+02 -3.10525E+03  2.53956E+03 -2.77970E+03
  7.17589E+02  4.91562E+02  2.48907E+03 -1.94059E+03  2.12763E+03  1.66683E+03  1.46431E+02  2.56934E+03
 -1.40001E+03  1.03986E+03  2.51196E+03  4.22696E+03 -2.11432E+02  8.12358E+02 -1.69032E+03 -6.72104E+02
  8.67577E+02  7.41379E+02 -4.31241E+03  2.89443E+03 -4.00691E+03  7.17489E+02 -6.74720E+02 -1.95383E+02
 -7.50873E+03 -6.47054E+03 -6.49982E+01 -3.49418E+03  1.01293E+03 -8.02350E+03 -1.91749E+03 -4.05012E+02
  3.18505E+03  3.82971E+03  1.27292E+03  3.88832E+03 -2.85653E+02  1.27361E+03 -3.52597E+03  2.83486E+03
 -2.66321E+03  4.20538E+03  1.08610E+03 -2.78662E+03  1.76311E+03 -3.15214E+03  7.83061E+02  3.31581E+03
 -9.44929E+02 -3.21867E+03 -4.80386E+03  5.62304E+00 -9.39216E+02 -3.16681E+03  9.52762E+02  1.00090E+03
 -5.92283E+02  6.25572E+03  1.50361E+03  5.94853E+02  1.94236E+02  3.29130E+03  6.06702E+02  5.48957E+03
 -2.42828E+03 -1.01228E+03 -5.06780E+03 -7.75302E+02 -1.26125E+03  2.35177E+03 -1.72571E+03 -4.60357E+02
 -1.04931E+03 -7.07139E+03  3.63509E+02  1.09855E+03  3.42500E+03  3.87547E+03 -3.39420E+03  1.16067E+03
 -6.32477E+03  3.27891E+03  3.08809E+03 -1.33327E+03  6.32634E+02 -2.36314E+03 -5.32830E+02 -3.26486E+03
  1.75136E+03  6.80079E+03  2.45183E+03  4.00184E+02  2.63995E+03  1.70213E+03  2.24945E+03  2.98494E+03
  7.50309E+02  5.70934E+02  4.17338E+03 -2.19256E+03  1.48416E+02 -4.33371E+03  3.12738E+02 -1.02178E+03
  9.65624E+02 -5.20487E+02  6.34488E+03 -6.48902E+02  2.59681E+03  2.19850E+03  4.29944E+03  5.18079E+03
 -4.52765E+02 -6.10431E+02 -2.21481E+03  5.65006E+02 -2.28923E+03 -3.16466E+03  3.81219E+03  1.62591E+03
  1.74706E+03  1.35690E+03 -5.17889E+03 -1.23244E+03  1.63453E+03 -2.65396E+02  2.35851E+03  1.38136E+03
  1.41280E+01  2.62258E+03  1.35997E+03 -4.96920E+02 -1.20623E+03 -1.82795E+03  1.21796E+02  6.60612E+02
 -1.39419E+03  4.26902E+03 -4.99432E+03  8.38741E+02 -4.78950E+02 -1.06711E+03 -2.34696E+03 -2.89462E+03
 -6.69730E+03 -1.01602E+03 -1.09403E+03 -5.95101E+03 -2.55076E+03 -2.69943E+03  7.06143E+03  4.01506E+03
  4.68835E+03 -3.21324E+03  3.33987E+03 -1.09975E+02 -1.06248E+03  1.99012E+03 -2.38288E+03  3.98116E+03
 -6.59845E+02 -2.14054E+02  2.71530E+03  1.94083E+03 -4.48186E+03  2.91331E+03  1.64380E+03  1.93523E+02
  4.22824E+03  6.72362E+02  2.49267E+03  3.16290E+03 -1.82055E+03 -8.78890E+02 -8.92550E+02  2.08896E+03
 -3.79648E+02  2.20830E+03  2.66692E+03 -7.28788E+01  1.60493E+03 -4.28835E+03 -2.27160E+03  1.50192E+03
  8.24657E+02 -1.80804E+03  9.29934E+02  2.41618E+03 -1.96454E+03 -3.28674E+03  1.49563E+03 -2.62226E+03
  7.09661E+02 -4.29446E+03 -1.57435E+03 -1.59496E+03  1.27928E+03 -6.26890E+02 -1.62610E+03  7.31934E+02
  8.54662E+02 -8.21679E+02  8.49710E+01  9.23184E+02 -1.15016E+03  2.96990E+03 -2.43728E+03 -6.67421E+02
 -6.34349E+03 -1.82853E+03  4.81058E+02  8.59161E+02 -2.80667E+03 -2.41522E+03  2.22609E+03  2.88214E+03
  6.47701E+02 -1.11261E+03  1.29669E+03 -6.57956E+02 -6.01852E+02 -4.16640E+02 -2.61711E+03  3.32161E+02
  1.38559E+03 -2.83402E+03 -1.44694E+03 -4.56095E+03 -1.29140E+03 -4.84307E+03 -5.76595E+02 -6.83437E+02
  3.54313E+03 -8.31553E+02 -4.90746E+03  2.83116E+03 -4.93721E+03  6.27997E+03 -2.74691E+03  3.12859E+02
  1.43058E+03 -2.40979E+03 -3.02245E+03  7.67791E+02  1.02353E+03  1.65586E+03 -1.08660E+03  3.09380E+03
 -4.47966E+03 -1.83713E+03  7.35883E+02 -4.23821E+01 -5.86492E+03 -1.13012E+02  1.14524E+03  3.60194E+02
 -1.73968E+02  3.73504E+02  2.28580E+02  1.86924E+03  3.37720E+03  1.88703E+03  2.18732E+02  7.54419E+02
