 $NMID ID='MM_0lb_SNR50_14hz_g50_79.RAW', FMTDAT='(8E13.5)'
 TRAMP=1., VOLUME=1. $END
  3.11859E+05 -1.24113E+03  3.37123E+05  2.47750E+05  8.12259E+04  3.40998E+05 -1.33199E+05  2.52988E+05
 -1.95853E+05  8.34732E+04 -1.15245E+05 -3.46063E+04 -5.48699E+02 -5.38917E+04  5.37014E+04 -2.12479E+03
  3.48058E+04  5.38255E+04 -1.32137E+04  7.62297E+04 -5.65727E+04  6.69837E+04 -7.81567E+04  2.96886E+04
 -8.48905E+04 -1.75066E+04 -5.72156E+04 -4.85483E+04 -1.82220E+04 -6.97984E+04  2.90825E+04 -4.46754E+04
  3.96254E+04  6.43896E+02  1.26145E+04  4.45991E+04 -3.56474E+04  4.96028E+04 -6.72959E+04 -1.85878E+03
 -5.09296E+04 -5.30308E+04 -8.17899E+03 -7.34160E+04  2.91318E+04 -5.79852E+04  4.90422E+04 -1.77173E+04
  4.58693E+04  1.30352E+04  3.05723E+04  2.40231E+04  1.78805E+04  3.38210E+04 -6.97135E+03  2.51600E+04
 -2.42412E+04  1.39930E+04 -1.61935E+04 -4.00761E+03  3.74048E+02 -6.23084E+03  2.55359E+04  1.47023E+04
  5.13216E+03  3.59076E+04 -3.07783E+04  3.43035E+04 -6.44284E+04  3.51383E+03 -5.64224E+04 -4.49898E+04
 -1.16884E+04 -6.48372E+04  3.88780E+04 -4.96637E+04  5.82907E+04 -6.83161E+02  3.32847E+04  3.09476E+04
 -2.19397E+03  3.92302E+04 -2.61473E+04  1.92027E+04 -2.93633E+04 -5.35215E+03 -1.98299E+04 -1.03881E+04
 -6.43893E+03 -1.25203E+04 -1.93066E+03 -1.86296E+04  9.91762E+03 -2.70237E+04  1.51822E+04 -1.77636E+04
  1.16326E+04  1.24337E+03 -1.30712E+04  1.09191E+04 -2.39608E+04 -2.89871E+03 -7.13275E+03 -3.10985E+04
  2.21711E+04 -4.54765E+04  4.48040E+04 -1.61868E+04  4.36374E+04  1.62010E+04  1.13636E+04  4.43226E+04
 -1.41689E+04  3.09740E+04 -2.90369E+04 -3.07839E+02 -1.56366E+04 -3.01039E+04  1.74871E+04 -3.66172E+04
  4.55621E+04 -7.96386E+03  3.44684E+04  2.44826E+04  2.01444E+04  4.90296E+04 -1.17826E+04  5.31156E+04
 -3.15220E+04  3.45432E+04 -3.71233E+04  1.13849E+04 -4.51697E+04 -1.60016E+04 -2.28751E+04 -3.79086E+04
  7.15672E+03 -4.13762E+04  3.28165E+04 -1.39191E+04  2.62864E+04  8.09033E+03  3.81552E+03  2.06320E+04
 -1.06234E+04  2.01344E+03 -1.24485E+04 -5.62052E+03  6.89904E+03 -5.15479E+03  1.47704E+04  7.48313E+03
  1.42306E+04  1.80456E+04 -1.18947E+03  2.24086E+04 -2.21040E+04  9.31100E+03 -2.64874E+04 -8.17032E+03
 -1.96350E+04 -1.96768E+04 -1.52363E+04 -1.78155E+04  6.98017E+03 -1.77656E+04  1.38592E+04 -2.12268E+04
  3.00787E+04 -1.08859E+04  3.38848E+04 -5.15294E+02  2.68122E+04  2.05349E+04  4.49619E+03  3.40525E+04
 -1.47382E+04  3.04418E+04 -3.24362E+04  7.88583E+03 -2.30898E+04 -1.03475E+04 -6.09476E+03 -7.53730E+03
  5.82252E+02 -2.53308E+02 -5.21668E+03  4.31034E+03 -1.76507E+04 -7.03761E+02 -1.64461E+04 -1.07747E+04
 -1.32361E+04 -1.97826E+04  3.32176E+03 -2.27784E+04  1.74695E+04 -1.71545E+04  1.50576E+04 -7.91415E+00
  6.57523E+03  1.05184E+04  3.88466E+03  1.91281E+04 -1.07937E+04  7.25182E+03 -2.08927E+04 -3.85826E+03
 -1.67477E+04 -1.83646E+04  5.26784E+02 -2.69532E+04  1.23454E+04 -2.10748E+04  1.93555E+04 -1.03624E+04
  1.77634E+04 -2.93048E+03  9.88416E+03 -3.22315E+03  5.57521E+03  5.76017E+02  1.65400E+04  8.84322E+02
  2.21174E+04  3.22054E+03  1.67664E+04  2.34488E+04  1.21913E+04  3.02883E+04 -5.30089E+03  3.62161E+04
 -1.42689E+04  2.86403E+04 -3.80592E+04  1.10688E+04 -3.45923E+04  9.78221E+02 -2.71295E+04 -2.02446E+04
 -1.46120E+04 -2.48640E+04  8.67933E+03 -2.10834E+04  2.48796E+04 -1.08075E+04  2.10864E+04  4.07761E+03
  8.78359E+03  1.61769E+04 -6.35940E+03  1.13777E+04 -1.47817E+04 -2.63330E+03 -1.17477E+04 -7.47865E+03
 -5.59149E+02 -1.11127E+04  1.40396E+03 -1.43205E+04  1.01798E+04  4.21409E+03  1.83331E+01  5.82242E+03
 -5.33897E+03 -3.87795E+02 -5.18773E+03 -1.17191E+04  2.57118E+03 -1.46495E+04  7.39094E+03 -1.08530E+04
  1.78054E+04 -1.25523E+04  2.15274E+04 -4.12504E+03  1.55409E+04  1.22290E+04  4.67034E+03  2.12252E+04
 -4.11892E+03  2.42937E+04 -1.77197E+04  1.12756E+04 -1.61645E+04  5.92439E+03 -1.27820E+04 -4.29202E+03
 -5.90057E+03 -8.47461E+03 -5.64021E+03  3.12581E+03 -4.22306E+03 -2.08733E+03 -3.34051E+03  4.69922E+03
 -7.83258E+03 -2.86161E+03 -1.27966E+04 -6.91497E+03  4.37773E+02 -1.24323E+04  5.18890E+03 -1.03018E+04
  1.30953E+04 -2.04217E+03  6.09511E+03 -3.92173E+03  1.96530E+03  9.63109E+03 -6.28535E+03  7.30544E+03
 -5.33018E+03 -6.43781E+03 -2.91158E+03 -1.24297E+04  6.43551E+03 -9.43455E+03  1.14136E+04 -6.13258E+03
  1.80125E+04 -2.33609E+03  8.15564E+03  1.34791E+04  4.69915E+03  1.51509E+04 -1.13033E+04  1.31619E+04
 -8.58845E+03  2.82642E+03 -5.10280E+03 -3.18207E+03  1.23433E+03 -3.26061E+03  8.26741E+03 -2.07392E+03
  4.73844E+03  3.91431E+03  4.24441E+03  1.14482E+04 -6.22126E+03  4.67544E+03 -7.26100E+03  1.71100E+03
 -1.52273E+04 -1.96687E+03  1.40538E+03 -1.18711E+04  4.48369E+03 -2.66332E+03  6.88860E+03  6.96942E+02
  3.83054E+02  8.05205E+03 -4.84603E+03  1.00575E+04 -8.73833E+03  6.77540E+02 -6.15814E+03 -5.84745E+02
 -1.00624E+04 -1.15490E+04 -8.54866E+02 -6.27083E+03  1.17427E+04 -6.62699E+03  9.84644E+03 -2.80036E+02
  8.00817E+03  1.00808E+04  5.65260E+02  8.92285E+03 -1.25007E+04  6.80598E+03 -9.68768E+03  3.83590E+02
 -8.29041E+03 -3.38881E+03  4.81757E+02 -7.32459E+03  2.85119E+03 -1.16018E+03  3.34872E+03 -1.05651E+04
  6.79969E+03  4.35063E+03  4.78540E+03 -1.82673E+03  1.37824E+03  6.71179E+02 -1.21966E+03 -6.70772E+03
  4.41020E+03 -4.66905E+03  8.95928E+03  5.14805E+02  1.05836E+04  4.79322E+03  8.69082E+03  7.81864E+03
  1.05106E+03  1.30971E+04 -1.43769E+04  1.19008E+04 -1.90020E+04 -1.17855E+03 -8.73524E+03 -3.94412E+03
 -6.77287E+03 -1.15818E+04 -2.69041E+03 -8.02643E+03  1.98193E+03 -5.21543E+03  2.30610E+03 -6.78081E+03
  1.58088E+02 -6.60504E+03  4.51758E+03 -1.83009E+03  2.78785E+03  1.74701E+03  9.20547E+03  4.35668E+02
  6.33281E+03  2.39650E+02  7.15032E+02  2.33444E+03  7.36060E+02  5.92962E+03 -1.00299E+04  6.83229E+02
 -9.46852E+03  4.69037E+01  1.23783E+03 -7.77295E+03  2.20481E+03 -1.04100E+04  3.54686E+03 -7.61922E+03
  9.38854E+03 -7.66675E+03  1.10458E+04  9.09987E+02  8.05375E+03  5.29091E+03  3.71535E+03  8.69564E+03
 -2.47403E+03  1.06545E+04 -4.84043E+03  2.22129E+03 -5.74342E+03 -6.30575E+03 -3.49759E+03  3.68373E+03
  3.69793E+02  6.41304E+01  2.68586E+03  5.70341E+03 -4.52348E+03 -1.83508E+03 -8.10170E+03 -1.54641E+02
 -2.09066E+03 -4.82352E+02 -1.37542E+03 -6.47610E+03  6.81480E+03 -2.75232E+03  5.11038E+03 -1.24852E+02
  9.94761E+03  2.59085E+03  1.11993E+04  6.42630E+03 -2.30174E+03  5.62606E+03 -7.08667E+03  3.58047E+03
 -7.97052E+03  1.06856E+03 -8.76660E+03 -3.03189E+03 -5.20280E+02 -4.86262E+03  5.32487E+03 -4.28859E+03
  7.72189E+03 -3.70176E+03  4.26575E+03 -4.31052E+03 -2.69583E+03  4.21958E+03  1.60376E+03 -3.32434E+03
  1.79519E+03 -2.39549E+03  6.34676E+03 -4.78895E+02  1.05930E+03  1.71643E+03  5.71205E+03  3.86237E+03
 -1.86885E+03  2.42189E+03 -4.59734E+03  7.45464E+03 -6.45287E+03 -3.56960E+03 -7.82299E+03 -9.76448E+03
 -8.47226E+03 -8.76658E+03  3.56058E+02 -6.87624E+03  7.08448E+03 -4.62785E+03  1.52013E+03 -3.52440E+03
  7.67850E+02  5.47611E+03 -1.66801E+03  2.39345E+03 -5.09915E+03  1.50116E+03 -1.54358E+03 -4.62699E+03
 -1.40044E+03 -4.86760E+03  2.57951E+03 -5.79364E+03 -3.54323E+02  8.71043E+02 -2.63271E+02 -6.51554E+03
  2.63727E+03  4.79976E+03  1.02435E+03 -6.28607E+03 -5.15804E+03  6.29381E+03  1.62551E+03  3.20787E+03
  5.85120E+03  1.51412E+03  5.78142E+03  1.91901E+03  5.16995E+02  5.09415E+03 -5.56836E+03  9.56780E+03
 -4.07060E+03  2.23150E+03 -7.19225E+03 -1.92619E+03 -6.38791E+03 -6.17854E+02 -5.21813E+01  4.44412E+03
  1.21421E+03 -3.04654E+03 -2.35287E+03 -2.61160E+03  7.74839E+02  6.68495E+03 -2.61529E+03  2.22043E+02
 -1.37566E+03  2.27745E+03 -1.30460E+04 -4.96988E+02 -6.43281E+03 -7.62461E+03  1.25582E+03 -3.03125E+03
  6.65876E+03 -1.86257E+03  4.13137E+03 -5.29138E+02  2.26015E+03  1.73605E+03  6.00783E+03 -1.47953E+03
  1.89161E+03 -4.10910E+03 -4.13353E+03 -6.10386E+03  3.39928E+03 -1.88514E+03  4.75800E+03 -3.67459E+03
  9.30152E+02 -1.19769E+03  3.81041E+03  5.09095E+02  3.15922E+03  1.98850E+03  5.92820E+02  4.02426E+03
 -8.18840E+03  7.54202E+02 -1.40136E+03  4.11792E+03 -8.50062E+00 -6.68920E+03 -2.12101E+03 -2.13750E+03
 -3.33405E+02 -5.31984E+03  4.69357E+02  5.71543E+03 -1.48566E+03  3.28061E+03  2.96525E+03  3.33709E+03
 -2.03365E+03  2.02100E+03  1.88123E+03 -3.81291E+03 -2.74834E+03  1.80900E+02  8.43320E+02  2.47505E+03
 -3.16431E+03 -4.16349E+03 -3.25724E+03  4.40746E+03 -2.12967E+03 -5.97123E+03 -2.16908E+03 -2.27400E+03
 -2.56212E+03 -8.27190E+03  2.89228E+03 -6.39543E+03  2.12824E+03 -1.78663E+02  8.07387E+03  2.97029E+03
  7.32090E+03  9.86806E+02  7.59213E+03  5.59247E+03 -1.95952E+03  3.24488E+03 -4.31079E+02  7.10795E+03
  3.16050E+03 -9.15812E+02 -1.72967E+03 -1.43878E+03  6.34225E+02 -1.57120E+03  3.62778E+03 -4.80370E+03
 -3.93330E+03  7.37059E+02 -2.25690E+03 -2.46426E+03  8.10870E+02  6.89214E+02 -2.93900E+03  1.48063E+03
 -1.25588E+03  8.29076E+02 -2.87645E+03 -8.49620E+02 -9.39900E+02  5.68196E+03 -2.59684E+03  8.10498E+03
 -4.49321E+02  3.33637E+03 -3.74186E+02  4.88267E+03 -6.54568E+03 -9.89889E+02 -2.30618E+03 -1.43614E+03
 -1.50685E+03 -9.30483E+03 -3.00527E+03 -3.52162E+03 -1.28665E+03 -3.36787E+03  2.21994E+03 -1.49500E+03
  1.52137E+03 -1.79448E+03 -2.86594E+03 -3.72684E+03 -4.68413E+03 -1.65738E+03 -1.77414E+03  2.00457E+03
  5.20761E+02  7.71922E+02 -1.79509E+03  6.36463E+02  2.08142E+03  6.28854E+03 -3.46214E+03  1.29100E+03
 -2.67907E+03 -2.41695E+03  2.86738E+03  1.26719E+02 -2.86928E+03 -2.04579E+03  5.25183E+03 -9.49745E+02
  6.23479E+03 -9.54800E+02 -8.00364E+02  2.68700E+02  3.94460E+03 -1.27792E+03  4.02919E+03 -1.62535E+03
  4.17555E+03  4.71792E+03 -1.33431E+02  4.64404E+02 -4.70525E+03  2.77009E+03 -1.71644E+03  3.92530E+02
  2.26848E+03  1.43089E+03 -2.10822E+03 -5.06658E+02 -9.33529E+02  4.00870E+03 -3.99680E+03  3.02453E+03
 -5.28919E+03 -2.53280E+03 -5.13770E+03 -1.69146E+03  1.99995E+03 -5.53062E+03  3.79257E+03  8.18459E+02
  4.35506E+03 -1.13044E+03  4.41125E+03  8.57574E+03 -2.31192E+03  2.40294E+03 -7.16227E+03  3.12011E+03
