 $NMID ID='MM_0lb_SNR50_16hz_g40_45.RAW', FMTDAT='(8E13.5)'
 TRAMP=1., VOLUME=1. $END
  3.06897E+05 -3.93973E+03  3.41340E+05  2.50855E+05  8.42083E+04  3.36586E+05 -1.32130E+05  2.47917E+05
 -1.92416E+05  8.61228E+04 -1.10181E+05 -3.66916E+04  6.50038E+02 -4.82608E+04  5.32953E+04 -1.37845E+03
  3.51778E+04  5.27523E+04 -1.91940E+04  7.90696E+04 -6.13273E+04  6.20080E+04 -8.31096E+04  3.73496E+04
 -8.07025E+04 -1.07296E+04 -5.68359E+04 -5.05276E+04 -1.69201E+04 -6.77424E+04  2.47014E+04 -4.41921E+04
  3.87513E+04  5.52299E+03  1.47868E+04  4.57713E+04 -3.56723E+04  4.63354E+04 -6.59111E+04 -2.64505E+03
 -5.37711E+04 -5.56852E+04 -4.50336E+03 -7.42690E+04  2.95368E+04 -5.71076E+04  4.53500E+04 -1.54263E+04
  4.15844E+04  1.61426E+04  3.09911E+04  2.86821E+04  1.84736E+04  2.99153E+04  2.08179E+03  2.80894E+04
 -2.58547E+04  1.20606E+04 -1.95506E+04 -6.39033E+03  7.89709E+03 -9.86644E+03  2.12669E+04  1.19738E+04
  6.28547E+03  3.70658E+04 -3.28373E+04  3.33500E+04 -6.28727E+04  1.64128E+01 -5.41296E+04 -4.21881E+04
 -1.02247E+04 -6.11311E+04  4.03638E+04 -4.28558E+04  5.61481E+04 -4.81192E+03  2.69725E+04  3.12848E+04
 -2.68036E+03  3.86821E+04 -2.72919E+04  1.23180E+04 -3.16545E+04 -6.17995E+03 -1.57987E+04 -1.08434E+04
 -7.96849E+03 -1.08773E+04 -6.09599E+02 -1.53455E+04  8.83809E+03 -2.30729E+04  1.10809E+04 -1.48559E+04
  1.36461E+04  6.34169E+03 -9.18750E+03  1.35368E+04 -1.93049E+04 -3.21861E+03 -5.25320E+03 -3.19666E+04
  2.46613E+04 -3.69207E+04  4.33014E+04 -2.10236E+04  4.23457E+04  1.73918E+04  1.51679E+04  4.62719E+04
 -1.51996E+04  3.48338E+04 -2.74690E+04 -4.33480E+03 -9.64777E+03 -2.45088E+04  2.56067E+04 -2.76636E+04
  3.70805E+04 -5.85555E+03  3.14275E+04  2.21395E+04  1.29361E+04  4.40599E+04 -9.08154E+03  4.61839E+04
 -3.00715E+04  3.13134E+04 -3.62891E+04  1.07650E+04 -4.34980E+04 -1.65202E+04 -1.72930E+04 -3.58054E+04
  8.55603E+03 -3.75155E+04  2.92403E+04 -1.13882E+04  2.92675E+04  1.15811E+04  7.09820E+03  1.62245E+04
 -1.49667E+04  6.04811E+03 -1.22144E+04 -5.20746E+03  5.48082E+03 -1.04369E+04  1.81613E+04  7.85229E+03
  4.20993E+03  2.28943E+04 -7.23002E+03  2.31825E+04 -1.85642E+04  1.32396E+04 -2.41628E+04 -6.82115E+03
 -2.14547E+04 -1.79515E+04 -5.18549E+03 -1.54456E+04  3.63456E+03 -1.80537E+04  2.01398E+04 -1.36320E+04
  2.32389E+04 -1.16812E+04  2.88130E+04  1.47487E+03  2.12956E+04  1.26809E+04  1.82374E+03  3.45530E+04
 -1.71049E+04  2.80190E+04 -2.05023E+04  8.25245E+03 -1.97418E+04 -9.05987E+03 -1.41528E+03 -1.22694E+04
 -1.39557E+03 -4.28384E+03 -5.58211E+03  2.56661E+03 -1.37853E+04  6.14163E+03 -1.52116E+04 -7.15187E+03
 -5.67487E+03 -1.71532E+04  3.31262E+03 -1.64389E+04  7.54677E+03 -1.75075E+04  1.23639E+04  1.82003E+03
  1.13181E+04  1.37189E+04  1.59379E+03  1.39719E+04 -1.11609E+04  8.40227E+03 -1.28215E+04 -4.01897E+03
 -1.14571E+04 -1.56762E+04 -3.09577E+02 -2.14790E+04  9.25417E+03 -1.24647E+04  1.59779E+04 -6.98434E+03
  1.25158E+04 -1.69543E+02  1.17535E+04  5.01059E+03  4.13616E+03 -8.46712E+02  1.00945E+04  3.88957E+03
  1.88045E+04  3.25776E+03  1.37420E+04  1.14769E+04  6.11198E+03  2.64859E+04 -3.09350E+03  2.51324E+04
 -1.37755E+04  2.36339E+04 -2.81988E+04  1.26278E+04 -2.99985E+04  5.92089E+02 -2.45606E+04 -1.92860E+04
 -6.97193E+03 -2.29877E+04  8.91505E+03 -1.71226E+04  1.49664E+04 -1.26336E+04  1.85882E+04  7.89592E+02
  8.63673E+03  1.54298E+04 -5.59262E+03  1.65436E+04 -1.42391E+04  5.43850E+03 -7.77443E+03 -8.13774E+03
 -1.82385E+03 -1.49412E+04  4.26485E+03 -1.00945E+04  8.00544E+03 -9.07136E+02  4.02960E+03  6.27291E+03
 -6.62706E+03  3.39345E+03 -5.75809E+03 -6.27673E+03  5.68734E+03 -1.51598E+04  7.49126E+03 -1.07559E+04
  1.38422E+04 -4.22530E+03  1.83254E+04  5.87607E+02  1.40626E+04  1.06628E+04  2.39465E+03  1.44913E+04
  7.06414E+02  1.94702E+04 -1.16130E+04  1.39576E+04 -1.36521E+04  6.23307E+03 -9.02967E+03  1.47233E+03
  3.09589E+03 -3.98730E+03  9.66845E+02 -1.95166E+03 -2.63674E+03  6.51238E+03 -4.57933E+03  3.26924E+03
 -8.76811E+03 -2.88030E+03 -6.15883E+03 -1.02589E+04 -1.28223E+03 -1.09308E+04  4.14162E+03 -1.23456E+04
  6.39451E+03 -6.17879E+03  2.18169E+03  1.86242E+03  2.10393E+03  6.13212E+03 -7.55996E+03  2.01875E+02
 -3.63385E+03 -6.46966E+03 -1.76858E+03 -5.27396E+03  2.85262E+03 -1.16922E+04  1.45741E+04 -8.71662E+03
  1.34195E+04 -8.93697E+02  1.25596E+04  1.11932E+04  2.06636E+03  9.88870E+03 -6.82590E+03  7.83465E+03
 -9.57558E+03  6.57534E+03 -8.01113E+03  5.82978E+02  1.41677E+03 -2.92521E+03  1.12518E+04 -7.42578E+02
  2.90929E+03  3.47872E+03 -2.06527E+03  6.67018E+03 -4.31095E+03  2.63294E+03 -9.62443E+03  1.55741E+03
 -1.11526E+04 -2.60660E+03 -2.89139E+02 -7.94855E+03  4.01357E+03 -6.20155E+03  5.55552E+03 -3.32721E+02
  4.38338E+03  8.57815E+03 -7.64029E+03  1.18331E+04 -6.05022E+03  6.49904E+03 -5.40034E+03 -4.06898E+03
 -4.17185E+03 -7.28894E+03  1.03822E+03 -9.59929E+03  9.41948E+03 -7.22584E+03  9.73511E+03  3.10536E+03
  5.74464E+03  1.19807E+04 -3.60213E+03  5.42850E+03 -7.42966E+03  4.41252E+03 -8.37468E+03 -7.21495E+02
 -1.05968E+04 -9.41296E+03 -1.70117E+03 -1.11229E+04  2.83354E+03 -5.77174E+03  2.60338E+03 -2.42062E+03
  5.41917E+03  5.45585E+02 -6.98139E+02 -6.39720E+01 -2.25675E+03 -3.86432E+03 -2.45067E+03 -4.30619E+03
  7.14235E+03 -9.51979E+02  9.58344E+03 -3.48669E+02  6.63270E+03  5.28393E+03  5.14204E+03  8.68362E+03
  3.44563E+02  7.54605E+03 -1.03311E+04  8.01662E+03 -1.26862E+04  7.33353E+02 -1.00360E+04 -5.75862E+03
 -7.13919E+03 -1.29994E+04 -3.17977E+02 -4.82018E+03  6.49716E+03 -4.36579E+01  2.45869E+03  1.70281E+03
 -7.99661E+03 -5.93068E+03  9.40915E+03 -4.48525E+03  5.87459E+03 -1.13769E+03  4.50751E+03  1.20208E+03
  1.55916E+03  5.35870E+03  5.91108E+02  6.86518E+03  1.16381E+03  7.71260E+03 -6.26329E+03  5.86396E+03
 -7.48724E+03  3.19359E+02 -6.54067E+02 -4.70820E+03  3.27329E+03 -3.58138E+03  4.79679E+03 -6.82946E+03
  4.13258E+03 -7.00590E+03  7.66409E+03  3.56772E+02  5.90874E+03  2.44776E+03 -1.54016E+03  8.24741E+03
  1.08115E+03  6.08563E+03 -2.42277E+03  6.07359E+03 -3.93670E+03 -1.76073E+03 -3.38844E+03  1.73161E+03
  3.17170E+02 -7.02894E+02 -7.35816E+02  3.02988E+02 -3.38703E+03  9.50379E+02 -4.20581E+03 -2.69929E+03
 -8.49546E+03 -3.16153E+03 -2.53349E+03 -4.67642E+03  4.35922E+03 -6.46272E+03  4.27718E+03 -1.66089E+02
  6.62813E+03  2.25294E+03  5.47083E+03  5.84711E+03 -2.14669E+03  4.87742E+03 -6.45922E+03  3.76789E+02
 -9.00897E+03  5.69779E+02 -5.69231E+03 -6.52356E+03 -3.98702E+03 -2.03137E+03 -2.67583E+03 -4.04815E+03
  3.18921E+03 -2.14249E+03 -1.04631E+03  2.79194E+03  1.95204E+03 -4.49989E+03  4.58557E+03  2.27154E+03
  5.75825E+03  3.58114E+03  3.79415E+02 -1.80280E+03  3.79059E+03  7.14518E+02  1.21528E+03  8.97690E+03
 -3.61145E+03 -6.10790E+02  1.30623E+03  4.31959E+03 -2.31571E+03  1.94458E+03 -1.69782E+03 -3.09452E+03
 -1.59264E+03 -5.04872E+03  3.37761E+03 -6.24307E+03  2.98482E+03 -8.44424E+03  5.60874E+03 -3.10413E+03
  1.76572E+03  1.78229E+03 -5.20749E+03  3.97174E+03  8.49750E+02  4.62291E+01 -2.11329E+03  3.12971E+03
 -3.46113E+03 -5.08498E+02  1.50261E+03 -2.29728E+03  5.55157E+03 -2.80941E+03  1.75699E+03  1.45239E+03
 -9.29566E+02  3.71616E+03  4.76198E+02 -1.45929E+02  2.47561E+03  6.46816E+03  2.30402E+03  2.29234E+03
  8.41837E+02  6.00382E+03  4.84852E+03  1.97210E+03  3.90491E+03  3.21015E+03 -1.05622E+03  7.31143E+02
 -5.22127E+02 -4.05679E+02 -8.12308E+02  1.54822E+03  1.37740E+03  2.37288E+03 -2.57314E+03 -5.20741E+03
 -1.56746E+03  2.54524E+03  1.95116E+03 -1.09964E+03  3.29291E+03  2.06476E+03 -5.00680E+03  6.42069E+02
 -1.87535E+03  1.70447E+03 -3.82477E+03 -2.78123E+03 -3.27538E+03 -3.01594E+03  2.42797E+03 -3.80172E+03
  1.06033E+03 -2.53366E+03 -1.45549E+03  2.32546E+03  1.95210E+02 -1.25128E+03  1.03865E+03  1.43619E+03
  9.01542E+02 -4.06366E+02 -1.52512E+03  2.90005E+02 -1.31029E+03 -1.30164E+03  9.55855E+02 -4.29275E+03
  2.91150E+03  1.29046E+03  3.89065E+03  1.15396E+03  8.09072E+02  3.25947E+03 -1.56713E+03  7.69073E+02
 -6.22594E+03  3.77925E+03 -3.66987E+03  2.69933E+03  1.67632E+03  2.05895E+03  4.08601E+03 -3.50952E+03
  7.57288E+02  5.81689E+02 -1.20268E+03 -2.05995E+02  7.34776E+02  4.53140E+03 -4.32756E+02  2.46743E+03
 -1.01415E+03  5.24877E+03 -2.27890E+02 -4.48283E+03  3.47563E+02  3.54020E+03 -1.87563E+03  3.21473E+03
 -7.84864E+03  4.50755E+03  3.59412E+03  2.36142E+03  7.93883E+02 -4.24101E+01 -2.09390E+03 -7.07755E+03
 -1.05617E+03 -5.90173E+03 -2.15658E+03 -1.77955E+03  3.69034E+03 -1.57281E+03 -2.74278E+02 -4.03563E+03
  1.98407E+03  2.23108E+03  1.67036E+03  2.09496E+03 -1.40977E+03  3.68018E+03  4.30047E+03  4.20909E+03
 -3.05314E+03 -3.24474E+03 -8.43685E+02 -2.50908E+03  3.33745E+03  3.26909E+03  5.19134E+02  3.01743E+02
 -4.01814E+02 -4.00054E+03  4.30002E+02 -1.88866E+03  5.42069E+03  1.69213E+03 -3.29342E+00  1.43110E+03
 -1.16030E+03 -2.30899E+03  1.53005E+03  1.67398E+03  4.07175E+03  5.17509E+03 -2.03899E+03  5.35638E+03
 -3.34090E+03  1.14309E+03 -9.26119E+02  2.13062E+03 -3.35951E+03 -4.71176E+03 -1.24750E+03 -3.00923E+03
 -1.73267E+02  9.86421E+02 -1.58859E+03 -7.67080E+03  1.27555E+03 -1.28826E+03  6.36000E+03 -1.08372E+03
 -1.73526E+03  1.62677E+03 -1.16979E+03  1.99922E+03 -2.75210E+03  1.49789E+03 -4.10361E+02 -6.68121E+03
  4.50690E+03 -1.89592E+03  1.26458E+03 -1.68469E+03  1.03517E+03 -1.03498E+03  3.27728E+03 -1.50124E+03
  3.51731E+02  4.21383E+03  8.86588E+02 -2.61767E+02  9.46371E+02 -7.06184E+02 -1.74183E+03 -6.00573E+02
  3.86190E+03 -1.64447E+02  3.02926E+03 -1.05117E+03 -3.69069E+03 -1.18327E+03  4.93352E+03  2.33211E+03
  5.27700E+03 -1.24345E+03 -1.86222E+03  5.20969E+03 -1.19297E+03  1.95596E+03  2.52735E+02  3.81686E+02
  1.87447E+03 -1.26966E+03 -2.07678E+03  2.50034E+03 -2.97820E+03 -8.89680E+02 -3.46348E+03 -3.62907E+03
 -1.95570E+03  4.82219E+03 -4.79425E+03 -3.91708E+03 -2.01425E+03 -2.09567E+03  3.79698E+03 -3.51037E+03
  1.23757E+03 -3.58236E+03 -3.34271E+03  1.83077E+03  8.34435E+02  1.41800E+03 -2.76032E+03 -5.10046E+02
