 $NMID ID='MM_0lb_SNR50_12hz_g55_41.RAW', FMTDAT='(8E13.5)'
 TRAMP=1., VOLUME=1. $END
  3.11430E+05 -7.02127E+02  3.38921E+05  2.48013E+05  9.00104E+04  3.38814E+05 -1.33012E+05  2.48567E+05
 -1.94018E+05  8.78062E+04 -1.08236E+05 -3.16530E+04  4.26641E+03 -5.21836E+04  5.37595E+04  7.97798E+02
  3.14972E+04  5.25311E+04 -1.86893E+04  7.66762E+04 -5.50148E+04  6.05041E+04 -9.04239E+04  3.33824E+04
 -8.39187E+04 -5.80673E+03 -5.50427E+04 -4.90181E+04 -1.65544E+04 -6.73576E+04  2.66692E+04 -4.82250E+04
  4.08976E+04  1.24338E+03  2.01898E+04  5.42506E+04 -3.42707E+04  4.92980E+04 -6.70518E+04  4.11563E+01
 -5.49153E+04 -5.88905E+04 -6.21689E+03 -7.69003E+04  3.45686E+04 -5.58483E+04  4.68410E+04 -2.16935E+04
  4.44989E+04  1.28263E+04  3.58292E+04  2.31710E+04  1.92857E+04  2.99707E+04 -6.20751E+03  2.80006E+04
 -1.91257E+04  4.39483E+03 -1.79665E+04 -5.58495E+03  3.16141E+03 -9.16018E+03  2.55613E+04  1.67370E+04
  3.24894E+03  3.85796E+04 -3.49600E+04  3.29173E+04 -7.01730E+04  3.96830E+03 -5.78451E+04 -4.23762E+04
 -1.30386E+04 -6.16302E+04  3.89474E+04 -4.75282E+04  5.67692E+04 -5.73986E+02  3.85151E+04  2.97459E+04
 -3.15751E+03  3.61495E+04 -3.47598E+04  2.26413E+04 -3.14601E+04 -3.03051E+03 -2.11618E+04 -9.98705E+03
 -8.55675E+03 -1.27789E+04 -5.27403E+02 -1.97106E+04  5.64386E+03 -3.03104E+04  1.30165E+04 -6.10445E+03
  1.00550E+04  7.53911E+03 -9.55773E+03  8.69707E+03 -2.16770E+04 -8.78864E+03 -1.15538E+04 -3.78689E+04
  2.46646E+04 -4.91975E+04  4.85966E+04 -1.59132E+04  4.82266E+04  1.94433E+04  1.61606E+04  4.21560E+04
 -2.02604E+04  3.30807E+04 -2.11356E+04  2.58000E+03 -1.37064E+04 -3.18050E+04  2.64674E+04 -3.63265E+04
  4.60645E+04 -1.08912E+04  3.79504E+04  2.83741E+04  1.82024E+04  5.08049E+04 -1.07742E+04  5.02211E+04
 -3.06635E+04  3.50578E+04 -3.99852E+04  7.76598E+03 -4.11145E+04 -2.06566E+04 -2.00665E+04 -3.69092E+04
  4.09085E+03 -4.32315E+04  3.01364E+04 -9.97403E+03  3.17210E+04  1.19378E+04  6.84158E+03  2.01220E+04
 -1.75963E+04  6.89006E+03 -1.47786E+04 -9.76102E+03  9.59086E+03 -1.68859E+04  1.79150E+04  6.25398E+03
  1.45033E+04  2.42748E+04 -5.84075E+03  2.83804E+04 -2.80546E+04  8.93000E+03 -3.08646E+04 -3.26843E+03
 -2.18564E+04 -1.67578E+04 -1.14704E+04 -1.77990E+04  6.21540E+03 -1.93306E+04  1.86262E+04 -2.11035E+04
  2.91051E+04 -1.07459E+04  3.39504E+04  1.69020E+03  2.75358E+04  1.90723E+04  1.10733E+04  3.99001E+04
 -2.29096E+04  3.00872E+04 -2.70832E+04  4.25545E+03 -2.45189E+04 -7.65888E+03 -2.47437E+03 -1.03117E+04
  5.09685E+03  3.67814E+03 -6.00271E+03  2.85692E+03 -1.75187E+04  3.66075E+03 -1.79257E+04 -8.04541E+03
 -1.18158E+04 -1.97757E+04  8.87302E+03 -2.53172E+04  1.30935E+04 -1.95363E+04  1.77385E+04 -8.28378E+02
  1.16695E+04  1.31613E+04 -3.07262E+03  1.81147E+04 -2.17843E+04  1.36815E+04 -2.19012E+04 -5.97728E+03
 -2.39963E+04 -2.16013E+04 -7.33115E+01 -2.58822E+04  1.29799E+04 -1.78257E+04  1.64545E+04 -8.10311E+03
  1.80268E+04 -4.18781E+03  1.01719E+04  5.51278E+03  8.57601E+03  1.36264E+03  6.73965E+03 -7.53918E+03
  1.85385E+04 -2.03295E+03  1.90152E+04  1.84121E+04  1.67440E+04  3.01658E+04 -3.84548E+03  3.55558E+04
 -1.63938E+04  3.30895E+04 -3.42399E+04  1.44115E+04 -3.87381E+04  2.31677E+03 -3.10162E+04 -1.86817E+04
 -1.24011E+04 -3.29114E+04  1.58318E+04 -2.55792E+04  2.51739E+04 -9.61525E+03  1.96848E+04  1.05082E+04
  1.14366E+04  1.84697E+04 -9.56146E+03  1.78044E+04 -2.09033E+04  8.59695E+02 -1.05243E+04 -1.22892E+04
 -2.61256E+03 -1.75551E+04  1.22762E+04 -1.32356E+04  1.62413E+04 -3.45606E+03  5.74644E+03  4.77051E+03
 -8.11375E+03  7.37461E+03 -1.04785E+04  7.77833E+01  6.88500E+02 -9.19658E+03  1.17322E+04 -1.83455E+04
  2.14706E+04 -9.52870E+03  2.32596E+04  1.73840E+03  2.05562E+04  1.87769E+04  7.96578E+03  2.68932E+04
 -1.73868E+03  2.77501E+04 -1.47552E+04  2.17909E+04 -2.09476E+04  2.84487E+03 -9.59436E+03 -4.70950E+03
 -1.13524E+04 -5.88470E+03  1.91585E+03 -1.76973E+03 -7.65156E+03  3.53596E+03 -2.28857E+03  2.55827E+03
 -9.56030E+03  4.46314E+03 -1.41297E+04 -1.01693E+04 -8.89946E+03 -1.47148E+04  4.18620E+03 -2.13440E+04
  1.26687E+04 -4.25245E+03  6.98948E+03  6.36993E+03  8.68389E+02  7.42939E+03 -4.69851E+03 -3.38093E+03
 -9.69136E+03 -4.13669E+03 -1.88860E+03 -1.12179E+04  8.14497E+03 -1.15306E+04  1.75046E+04 -5.54718E+03
  2.57549E+04  1.95559E+03  8.02194E+03  9.69955E+03  5.62621E+03  1.44820E+04 -1.18498E+04  1.43819E+04
 -1.18593E+04  3.01787E+03 -1.07692E+04 -1.02450E+03  1.93748E+03 -1.76012E+03  3.65929E+03 -1.67746E+03
  8.63664E+03  2.17987E+03  1.40889E+03  1.32875E+04 -4.50907E+03  9.85131E+03 -6.97878E+03  4.59117E+03
 -1.29574E+04 -9.53110E+03 -1.14393E+03 -1.44607E+04  1.36590E+04 -5.61705E+03  9.60444E+03  2.99584E+03
  2.56340E+03  4.96370E+03 -5.07714E+03  1.02220E+04 -1.49343E+04 -3.73667E+02 -1.31681E+04 -1.87411E+03
 -1.26232E+04 -1.31608E+04 -5.14096E+02 -1.45609E+04  6.30734E+03 -9.83004E+03  1.24649E+04  1.55066E+03
  1.16422E+04  7.40169E+03 -3.40597E+03  8.21538E+03 -8.42051E+03  7.47581E+03 -7.98299E+03  1.12077E+03
 -4.95599E+03 -7.93285E+03 -2.05538E+03 -7.59229E+03  4.23987E+03 -8.83942E+03  8.89978E+03 -6.48599E+02
  6.38487E+03  2.89780E+03 -2.00335E+03  8.76554E+03 -4.41836E+03 -2.13616E+03 -1.78969E+03 -1.02155E+04
  1.01509E+04 -4.34320E+03  1.51395E+04  1.81485E+03  1.43513E+04  9.42978E+03  9.78912E+03  1.77002E+04
 -4.37494E+03  2.04798E+04 -1.39627E+04  1.65895E+04 -1.97906E+04  1.48806E+03 -1.90648E+04 -5.33771E+03
 -5.96023E+03 -1.23815E+04 -3.38913E+03 -1.53198E+04  3.77824E+03 -6.66564E+03  2.73805E+03 -7.68454E+03
 -4.42654E+03 -4.29909E+03  3.47667E+03 -2.73120E+03  9.23129E+03 -1.52445E+03  6.01865E+03 -2.36011E+03
  9.09895E+03  3.86372E+03  1.93614E+03  8.79761E+03 -2.16489E+03  9.05819E+03 -1.09980E+04  2.09074E+03
 -1.08864E+04 -1.84708E+03 -5.46568E+03 -3.98870E+03 -3.34852E+03 -1.36351E+04  5.95641E+03 -6.54271E+03
  9.75116E+03 -6.46135E+03  1.89225E+04 -4.47076E+03  6.26424E+03  1.26080E+04  6.02637E+03  1.81351E+04
 -6.48066E+03  5.42796E+03 -6.01498E+03  4.77703E+02 -2.33114E+03 -5.29472E+03 -3.52528E+03 -3.88182E+03
 -1.09964E+03 -1.46368E+03 -3.81095E+03  1.34711E+03 -1.40276E+03  2.45504E+03 -9.26254E+03 -1.44656E+03
 -5.17283E+03 -3.84276E+03  2.39165E+01 -1.25328E+04  6.10520E+03 -7.51264E+03  1.59908E+04 -8.06995E+02
  1.15325E+04  3.47359E+03  8.32064E+03  1.04424E+04 -2.18748E+03  9.23404E+03 -1.34472E+04  5.54142E+03
 -4.38401E+03 -4.17392E+02 -1.85410E+04 -4.82068E+03 -9.13073E+02 -1.20219E+04  6.77825E+03 -1.35980E+04
  7.19361E+03  1.56263E+03  3.91900E+03  4.60834E+03 -5.95101E+01  6.59344E+03 -4.74079E+02 -2.75267E+03
  3.49394E+03 -3.56781E+03  4.95099E+03 -2.85362E+03  3.34597E+03  2.62766E+03  1.63532E+03  8.08230E+03
 -3.39693E+03  1.35258E+04 -5.11422E+03  9.64849E+03 -5.13129E+03  4.24378E+03 -1.35346E+04 -5.40526E+03
 -4.65687E+03 -1.28778E+04  1.23625E+03 -1.04862E+04  4.29121E+03 -8.12902E+03  1.32449E+04 -8.47451E+03
  7.94333E+03  8.60288E+03 -1.80931E+03  3.96921E+03 -3.97320E+03  9.93450E+03 -3.30849E+03 -3.93747E+02
  7.74632E+03 -5.76352E+03  8.62431E+03 -8.64419E+03  1.13931E+04  6.01719E+03  3.35494E+03 -2.30014E+03
  4.72959E+03  2.94713E+03  1.44939E+03  2.58435E+02  2.85062E+03  2.79476E+03 -6.88630E+02  1.09557E+03
  1.98610E+03 -1.53314E+03  3.09755E+03  1.44747E+03  1.45108E+03  3.54227E+03 -4.49938E+03  7.94046E+03
 -4.14855E+03  2.13975E+03 -5.26307E+02  5.95350E+03 -4.00060E+03 -4.86693E+03 -1.52639E+03 -1.01019E+04
 -5.34745E+03 -2.12190E+03  2.41280E+03 -4.54517E+03 -2.56224E+03 -2.49119E+03 -1.23451E+03  5.01726E+03
 -5.44485E+03 -1.94911E+03 -7.28078E+03  1.88690E+03 -2.51194E+03 -8.37168E+02  7.05510E+02 -6.33304E+03
  2.06500E+03 -5.35837E+03  1.30210E+03 -3.20740E+03  6.95465E+03  2.69584E+03 -4.83290E+01  7.82242E+03
 -4.28757E+03  4.83695E+03 -1.22040E+03 -2.59422E+03  1.34652E+03 -4.34313E+03  5.42189E+03 -1.87874E+03
  8.66679E+02 -2.42772E+03  2.64835E+03  5.00348E+03  6.11027E+03  7.71730E+03 -6.94321E+03  7.49265E+03
 -7.97859E+03 -7.02112E+02 -7.84359E+03 -4.78275E+03 -2.08660E+03 -3.79266E+03  4.73191E+03 -5.68875E+03
  6.92060E+03 -1.15077E+04  9.01932E+03  3.20620E+03  4.19600E+03  6.47535E+03 -3.56208E+03  3.42733E+03
  6.31900E+02  2.32394E+03 -5.99711E+02 -8.73327E+02  3.50616E+03  6.90590E+03 -1.16650E+03 -1.44733E+03
 -3.01608E+03  3.72453E+03 -6.26800E+03  1.62250E+03 -8.72960E+03 -6.54702E+03 -3.48413E+03 -1.39935E+03
 -2.94634E+03 -8.29069E+03  2.00818E+03 -8.07841E+03  2.15361E+03 -7.77022E+03  8.98470E+03 -4.80051E+02
  1.96448E+03 -2.06298E+03  6.79418E+03  6.01904E+03  1.95719E+03  8.72307E+03 -2.58731E+03  5.68839E+03
 -7.64388E+03  5.99069E+02 -8.91582E+03  5.70229E+02  5.00988E+03 -2.44549E+03  3.48449E+02  4.13899E+03
 -1.59654E+03  1.93644E+03 -8.52478E+03  2.44700E+02 -4.88292E+02 -2.69119E+03 -2.67254E+03 -8.98582E+03
  1.11826E+04 -5.96752E+03  1.97520E+02 -3.73047E+03  2.15817E+03  5.50154E+03 -2.29703E+03  8.15205E+03
 -1.09177E+03  2.45232E+03 -2.19146E+03  8.96409E+03 -7.19192E+03 -3.42144E+02 -9.24143E+03 -7.41964E+03
 -7.56213E+03 -2.11294E+03  3.71838E+03 -2.30051E+03  1.57609E+03 -4.71335E+02  3.62748E+03 -6.99085E+01
  3.63265E+03  3.18056E+03 -1.48474E+03 -3.59005E+03 -1.46950E+03  1.86826E+03 -2.11238E+03  6.93607E+01
  3.09791E+03 -4.49390E+03 -1.02180E+03 -2.84701E+03  4.08753E+03  5.02418E+03  3.58926E+03 -1.72080E+02
 -3.62215E+03  5.29827E+03 -5.73143E+03 -1.67539E+03 -4.08860E+03 -7.08819E+02 -9.78040E+02 -2.30290E+03
  3.86827E+03 -3.28158E+03  6.50347E+03 -3.71918E+03  1.73465E+03 -5.73302E+03  3.25144E+03  8.18340E+03
 -1.19067E+03  3.89095E+03 -4.32390E+03 -8.22550E+02 -5.68917E+03  1.59846E+03 -1.55821E+03  9.83194E+02
 -5.96413E+03 -3.68198E+03 -1.47892E+03 -3.47643E+02 -3.43624E+03  3.25105E+03 -1.95860E+03 -2.45528E+03
 -9.69911E+02 -4.75522E+03  7.59987E+02 -6.29151E+03  4.41844E+03 -5.91325E+03  7.00203E+03 -1.77659E+03
  5.83183E+03  1.08723E+03 -2.71522E+03  3.26876E+03 -2.16732E+03  7.77989E+03  1.37262E+03  3.08236E+03
