 $NMID ID='MM_0lb_SNR50_18hz_g40_37.RAW', FMTDAT='(8E13.5)'
 TRAMP=1., VOLUME=1. $END
  3.13945E+05 -3.55473E+03  3.39704E+05  2.53203E+05  8.71686E+04  3.38855E+05 -1.34981E+05  2.49768E+05
 -1.90998E+05  8.13876E+04 -1.07676E+05 -3.19746E+04  5.10872E+03 -4.75356E+04  5.44293E+04  8.98038E+02
  3.41258E+04  5.33866E+04 -1.69263E+04  7.51073E+04 -6.23908E+04  6.33101E+04 -8.38481E+04  3.33182E+04
 -7.62824E+04 -9.09657E+03 -5.27280E+04 -5.08532E+04 -1.50877E+04 -6.37656E+04  2.53198E+04 -4.40070E+04
  3.65813E+04  5.71701E+03  1.50721E+04  4.38867E+04 -3.62432E+04  4.53709E+04 -6.50211E+04  6.49857E+02
 -5.35471E+04 -5.33102E+04 -7.73155E+03 -7.72030E+04  3.33689E+04 -5.31585E+04  4.58805E+04 -1.82448E+04
  4.17913E+04  1.09702E+04  3.14217E+04  2.37559E+04  1.99983E+04  2.65008E+04 -2.76146E+03  2.94136E+04
 -2.46067E+04  1.36110E+04 -2.42461E+04 -5.93574E+03  5.17310E+03 -7.91388E+03  2.57850E+04  1.27686E+04
  6.84532E+03  3.07415E+04 -2.67409E+04  3.63772E+04 -5.90193E+04  5.24978E+02 -5.49057E+04 -3.84398E+04
 -1.25307E+04 -6.12116E+04  3.48291E+04 -4.56249E+04  5.69462E+04  9.27255E+02  3.40149E+04  3.37431E+04
 -6.58825E+03  3.07208E+04 -2.80732E+04  1.25216E+04 -2.67994E+04 -1.89666E+03 -1.33991E+04 -1.07826E+04
 -7.98110E+03 -9.74215E+03  2.48363E+03 -1.32113E+04  1.01331E+04 -2.08974E+04  1.22166E+04 -1.25912E+04
  1.49898E+04  4.73726E+03 -2.35276E+03  1.17758E+04 -1.70668E+04 -4.21111E+03 -8.59774E+03 -3.27681E+04
  2.31596E+04 -3.68567E+04  4.63665E+04 -2.11935E+04  4.17296E+04  1.84230E+04  1.78303E+04  4.43141E+04
 -1.73296E+04  3.07601E+04 -2.23271E+04  2.51158E+03 -6.29220E+03 -2.63067E+04  1.92804E+04 -3.22703E+04
  3.59468E+04 -8.34094E+03  2.98670E+04  2.35789E+04  1.53201E+04  4.37572E+04 -8.70458E+03  4.63829E+04
 -2.64931E+04  2.93119E+04 -3.92109E+04  7.80451E+03 -3.67269E+04 -1.37914E+04 -2.13844E+04 -3.46514E+04
  8.56019E+03 -3.80469E+04  2.84407E+04 -1.27881E+04  2.77757E+04  1.08764E+04  5.91388E+03  1.85689E+04
 -1.31709E+04  9.74591E+03 -7.82740E+03 -7.56580E+03  6.35978E+03 -8.42196E+03  1.89959E+04  3.09762E+03
  1.21018E+04  2.05099E+04 -4.67535E+03  2.19470E+04 -2.19037E+04  8.63165E+03 -2.44453E+04 -8.37470E+03
 -1.78093E+04 -1.51926E+04 -7.93629E+03 -1.66438E+04  2.97374E+03 -1.09900E+04  1.18241E+04 -1.68213E+04
  2.35819E+04 -1.23979E+04  2.93682E+04  1.75405E+03  2.10482E+04  1.72057E+04  3.71004E+03  3.31969E+04
 -1.76572E+04  2.80220E+04 -2.99959E+04  7.31769E+03 -1.81632E+04 -1.13734E+04 -3.64715E+03 -1.12230E+04
  2.05599E+03 -5.60982E+03  2.23258E+03  2.22398E+03 -1.60086E+04  7.07830E+02 -1.31900E+04 -2.71988E+03
 -4.27949E+03 -1.50860E+04  7.42289E+03 -2.33715E+04  1.15596E+04 -9.32455E+03  1.09630E+04 -7.68561E+02
  7.47679E+03  1.44654E+04  1.39467E+02  1.71540E+04 -7.50053E+03  8.06780E+03 -1.17606E+04 -4.30698E+03
 -9.23573E+03 -1.58046E+04  6.93962E+02 -1.69324E+04  7.75088E+03 -1.54256E+04  1.70130E+04 -6.14996E+03
  1.09506E+04  4.14561E+02  9.68961E+03  4.27853E+03  6.44722E+03 -4.93302E+02  2.40277E+03  1.92408E+02
  1.55352E+04  2.31508E+03  1.10521E+04  1.16932E+04  6.84896E+03  1.93106E+04 -8.75118E+02  2.83093E+04
 -1.52408E+04  1.67670E+04 -2.14499E+04  1.28030E+04 -2.54592E+04 -4.27644E+03 -2.60345E+04 -1.80877E+04
 -7.04156E+03 -1.78615E+04  3.89187E+03 -2.08540E+04  1.76266E+04 -1.27682E+04  1.31700E+04 -3.62097E+03
  7.12073E+03  6.08029E+03 -4.94761E+03  1.11279E+04 -1.48875E+04  2.93019E+02 -8.56347E+03 -9.49718E+03
  2.49768E+03 -1.01174E+04  9.59729E+03 -1.10880E+04  7.03028E+03 -3.29031E+03  2.18050E+03  2.62497E+03
 -1.16296E+04  2.89759E+03 -3.55874E+03 -3.52315E+03 -1.09762E+03 -9.89890E+03  3.61685E+03 -8.42337E+03
  1.26235E+04 -2.35738E+03  9.09978E+03  2.83515E+03  9.65810E+03  1.03194E+04  2.69722E+03  1.27590E+04
 -2.23673E+03  1.51008E+04 -7.82506E+03  7.46726E+03 -1.23766E+04  2.32519E+03 -6.21291E+03 -4.94911E+03
 -9.57803E+03 -3.29099E+03 -4.08415E+03  3.72263E+03 -1.20711E+03  3.18545E+03 -2.58578E+03  6.16893E+03
 -6.39956E+03 -3.51784E+02 -6.12513E+03 -5.37585E+03 -4.83119E+03 -9.45387E+03  4.81870E+03 -6.03092E+03
  9.05314E+03  6.05380E+02  6.35295E+03  5.91098E+03  3.43426E+02  2.08794E+03 -3.74736E+03 -3.08791E+03
 -8.85362E+03 -6.38437E+03 -2.73044E+03 -6.67870E+03  7.56136E+03 -8.70179E+03  9.52725E+03 -5.03451E+03
  1.16109E+04 -1.14247E+02  1.19493E+04  6.93399E+03  2.21460E+03  1.06418E+04 -6.40853E+03  6.00607E+03
 -7.49042E+03  4.02745E+03 -2.32575E+03 -8.03864E+03  2.73881E+03 -3.70399E+03  3.05023E+03  2.60548E+03
  2.93777E+03  3.09882E+03  2.57411E+03  3.97197E+03 -3.12606E+03  2.92003E+03 -7.73593E+03  8.22137E+02
 -5.91209E+03 -4.26161E+03 -3.09605E+02 -6.03639E+03  6.54896E+03 -4.96982E+03  4.74586E+03  3.24493E+03
 -1.58728E+03  4.59353E+03 -3.03451E+03  3.38545E+03 -5.68152E+03  6.22939E+02 -7.17341E+03  2.70213E+02
 -3.58300E+03 -5.46370E+03  2.92250E+03 -9.44152E+03  1.31487E+03 -7.80367E+03  4.13118E+03  1.96578E+03
  5.66487E+02  5.06412E+03  3.37212E+03  9.62645E+03 -2.96202E+03  5.56530E+03 -7.74004E+03 -8.86079E+02
 -4.84343E+03 -5.19518E+03 -4.45343E+03 -4.62557E+03  1.76472E+03 -6.59539E+03  1.46027E+03 -4.28219E+03
  1.09033E+03 -3.49029E+03 -1.72176E+03  3.66894E+02  6.22246E+02 -3.97492E+03 -1.62856E+03 -2.57834E+03
  7.39973E+03 -2.80217E+03  1.10143E+03  2.85693E+03  8.30598E+03  3.55884E+03  8.11889E+03  5.04982E+03
 -1.16990E+03  1.01009E+04 -6.38842E+03  1.01869E+04 -8.92046E+03 -1.36966E+03 -6.41111E+03 -3.61951E+03
 -4.38273E+03 -8.04369E+03  2.08820E+03 -3.30746E+03 -8.36189E+02 -3.91786E+02  3.74130E+02 -3.61906E+03
 -1.84721E+03  9.89466E+02  2.69560E+03 -2.02249E+03  8.28595E+02 -4.51722E+02  4.68348E+03  1.94374E+03
  5.80176E+03  4.23877E+03  2.07819E+03  1.94802E+03  3.11802E+03  7.23631E+03 -7.54011E+03  4.53349E+03
 -6.41991E+03  6.84001E+02  8.79630E+01 -7.32134E+03 -7.25813E+02 -8.20093E+03  1.90039E+03 -3.23458E+03
  1.01138E+04 -4.28287E+03  7.14822E+03  8.48725E+03  4.13140E+03  8.55202E+02  3.68271E+02  5.16238E+03
 -2.52211E+03  5.85050E+03 -9.09089E+02  6.65121E+02 -2.01745E+03  2.47467E+03 -3.60709E+03 -2.09743E+03
 -1.97101E+03  3.14189E+01 -6.24548E+02 -1.17120E+03 -1.62225E+03  2.86112E+03 -9.01498E+03  1.98333E+03
 -1.28450E+03 -5.57762E+03 -2.34571E+03 -6.76699E+03  5.19959E+03 -4.43807E+03  4.00372E+03  1.94230E+03
  5.09326E+03  2.20140E+03  4.24991E+03 -5.98917E+02 -4.14511E+03  9.21724E+03  2.99332E+01  4.02027E+03
 -1.98931E+03 -5.75415E+02 -4.27336E+03 -5.05628E+02 -9.08583E+01 -5.30792E+02  2.78792E+03 -3.55532E+03
  5.40654E+03 -1.57620E+03 -5.90213E+02  2.17120E+03  4.21928E+02  3.54703E+03  3.70753E+03  1.03035E+03
  2.19386E+03 -5.90763E+02  6.07743E+03  9.97254E+02  2.55119E+03  3.84400E+03  9.28873E+02  4.07171E+03
 -1.33748E+03  1.86879E+03 -1.62504E+03  4.40241E+03 -1.57378E+03  5.17722E+02 -2.21306E+03 -6.61561E+02
  1.07173E+03 -2.42701E+03  3.11043E+03 -6.10516E+03  4.12200E+03  5.06511E+02  4.76349E+03  4.32446E+03
 -3.50854E+03  3.89116E+03  4.30275E+02  3.89620E+03 -1.81188E+03 -4.83460E+02 -3.16059E+03  3.89161E+02
  8.23821E+02  2.10380E+03  5.28399E+03  2.46943E+03  1.39290E+03  7.21532E+02 -1.93746E+02 -1.32756E+03
  3.15744E+03  2.03655E+02 -5.22797E+02  4.73273E+03  2.67715E+03  7.72535E+02  2.59116E+03  1.15985E+03
  7.13590E+01  1.96059E+03 -1.84660E+03  1.96998E+03 -2.15115E+03  7.84564E+01 -1.84841E+03 -1.17271E+03
 -2.80849E+03  3.80281E+03  1.71029E+03 -2.98249E+03 -3.42778E+03  2.26749E+02 -4.82581E+03 -1.55373E+03
  1.41402E+03 -1.89874E+03 -2.43779E+02  2.08663E+03  3.82363E+03 -1.46558E+03 -2.17878E+03  5.48672E+03
 -6.64206E+03  4.12909E+03 -2.55557E+03 -9.38015E+01  3.95314E+02 -3.06181E+03  3.95997E+03 -2.97924E+03
  1.38862E+03 -1.86727E+03  5.46144E+03 -3.16365E+03  2.88809E+03 -4.17054E+03 -1.47367E+03  2.46942E+03
 -8.04868E+02 -7.43007E+02 -3.63509E+03  1.55518E+03  5.32699E+02 -6.78511E+03  3.79694E+03  2.36464E+03
 -3.96307E+02  5.04136E+02  3.13131E+03  4.47710E+03  9.68188E+02 -2.77533E+03 -3.15986E+03  2.45739E+03
 -8.61982E+01  5.36038E+03  2.80343E+03 -1.73150E+03 -4.23415E+03 -1.74040E+02 -3.39264E+03 -2.53384E+03
 -5.59429E+01  6.57555E+02  1.31415E+03  2.20777E+03 -8.97920E+02  7.99635E+02 -2.08013E+02 -2.04646E+02
 -5.72061E+02 -2.52041E+03 -1.58264E+03 -8.84106E+02 -4.68168E+02  4.96867E+02 -2.11564E+02 -2.94593E+03
 -2.68152E+03  1.76612E+03 -5.48023E+03 -1.19441E+02 -1.44837E+03  2.62605E+03 -2.05287E+03 -1.84571E+03
 -7.96905E+02 -5.40856E+03 -2.61832E+03 -6.12634E+02  8.26050E+01 -3.74972E+03  4.95739E+03 -4.49871E+03
  6.93698E+03 -4.68197E+02  1.44733E+03  1.46255E+02 -2.49577E+02  1.91104E+03 -3.31781E+03  3.84254E+03
 -2.52671E+03  1.68979E+01 -1.06176E+03 -2.60029E+03  2.85771E+03 -4.03927E+02  3.66040E+02  1.04501E+03
 -4.98070E+03  2.40810E+03 -2.64905E+02 -2.23201E+03  2.41089E+02 -1.40471E+02  2.43001E+03 -7.09707E+02
  3.49904E+03 -2.27764E+03  3.10261E+03 -8.23318E+02  6.04112E+03  2.17862E+03 -8.54381E+02  7.04310E+03
  1.82946E+03  1.85312E+03 -1.90485E+03  1.67374E+03 -4.04692E+03  3.22221E+02 -2.35514E+03  1.93546E+03
  6.45500E+02 -2.69031E+03 -1.80228E+03  2.16210E+03 -2.39066E+03  2.16166E+03  1.51660E+03  3.84060E+02
  1.95198E+03  2.78552E+02  1.69496E+03 -3.10796E+03 -3.28361E+03  5.50914E+02  1.59070E+03 -3.24501E+02
  2.09459E+03  1.25105E+02 -3.79034E+02  2.00835E+03 -5.78729E+02  3.95675E+03  7.58897E+02  3.19283E+03
  2.29083E+03 -3.45309E+02  2.95432E+02  1.12175E+03 -2.74826E+03  1.99452E+03  4.10069E+03 -2.03928E+03
 -6.49320E+02 -4.17793E+03 -5.40197E+02  2.90762E+03  1.13774E+03 -1.93006E+02 -2.05496E+03  1.24979E+03
 -6.69342E+02  4.09947E+03 -2.37444E+02 -3.58573E+03  1.45239E+02  1.05814E+03  4.93789E+03 -7.92925E+02
  2.02180E+03  2.91185E+02 -5.29174E+02 -1.24268E+03  2.33557E+02  3.65911E+03 -2.41186E+03 -1.12239E+03
 -1.19115E+03  6.32183E+02 -1.45771E+02 -5.55048E+03 -8.12263E+02 -3.68454E+03 -1.99962E+03 -3.92214E+03
 -9.16175E+02 -1.16006E+03 -2.14688E+03  3.98700E+03 -1.02865E+03  4.61361E+03 -2.18382E+03 -1.37127E+03
