 $NMID ID='MM_0lb_SNR50_20hz_g55_93.RAW', FMTDAT='(8E13.5)'
 TRAMP=1., VOLUME=1. $END
  3.09606E+05 -3.32209E+03  3.36227E+05  2.54113E+05  8.36220E+04  3.38618E+05 -1.31129E+05  2.52412E+05
 -1.88511E+05  8.71758E+04 -1.11674E+05 -3.37626E+04  4.42179E+02 -4.90612E+04  5.69027E+04  6.24105E+02
  3.61055E+04  5.17271E+04 -1.47350E+04  7.74039E+04 -6.24080E+04  6.50789E+04 -8.10401E+04  2.91545E+04
 -8.36726E+04 -1.12599E+04 -5.63572E+04 -4.75005E+04 -1.34193E+04 -6.46859E+04  2.57221E+04 -4.09338E+04
  3.42490E+04  1.64305E+03  1.93684E+04  4.53674E+04 -3.60836E+04  4.58854E+04 -7.00697E+04 -4.03408E+01
 -5.45897E+04 -5.40570E+04 -7.64112E+03 -7.31234E+04  3.26651E+04 -5.22229E+04  4.60932E+04 -1.64828E+04
  4.27931E+04  1.38386E+04  3.23845E+04  2.81138E+04  1.17897E+04  2.95318E+04  1.48378E+02  2.89389E+04
 -2.56557E+04  1.21906E+04 -1.90265E+04 -4.63684E+03  3.56977E+03 -1.24260E+04  2.43948E+04  1.37723E+04
  6.90010E+03  2.94447E+04 -2.93958E+04  3.20066E+04 -6.20259E+04  1.17995E+03 -5.61882E+04 -4.07704E+04
 -1.84872E+04 -6.16152E+04  3.56944E+04 -4.03222E+04  5.34503E+04 -1.26045E+03  2.84327E+04  3.06847E+04
 -4.95049E+03  3.40820E+04 -2.82395E+04  1.18898E+04 -2.85795E+04 -6.73289E+03 -1.16976E+04 -9.47784E+03
 -6.42430E+03 -1.43750E+04  1.34477E+03 -1.35469E+04  2.42162E+03 -2.27003E+04  1.41312E+04 -1.56037E+04
  1.25538E+04  6.94809E+03 -8.62858E+03  1.11169E+04 -1.86068E+04  1.69773E+02 -5.96014E+03 -2.81444E+04
  1.99818E+04 -4.31685E+04  4.50516E+04 -2.03618E+04  4.11780E+04  1.77305E+04  9.76785E+03  3.99423E+04
 -1.45971E+04  3.15328E+04 -2.30646E+04 -1.98650E+03 -8.65623E+03 -2.73512E+04  2.06785E+04 -3.39035E+04
  3.94925E+04 -5.52944E+03  3.09165E+04  1.95134E+04  1.87061E+04  3.73929E+04 -7.59853E+03  4.44258E+04
 -2.89158E+04  2.94624E+04 -3.95969E+04  8.38874E+03 -3.84495E+04 -1.21445E+04 -1.56824E+04 -3.33798E+04
  6.93769E+03 -3.38362E+04  2.93841E+04 -9.92947E+03  2.48025E+04  8.98732E+03  2.81806E+03  2.00850E+04
 -1.97598E+04  2.66799E+03 -1.17480E+04 -3.72436E+03  5.83874E+03 -7.36274E+03  1.53566E+04  3.33363E+03
  1.51708E+04  2.00503E+04 -4.40690E+03  2.11206E+04 -2.14098E+04  1.51420E+04 -2.54010E+04 -6.56035E+03
 -1.36251E+04 -1.71058E+04 -4.10780E+03 -1.93356E+04  5.62271E+03 -1.38711E+04  1.18024E+04 -1.62237E+04
  2.49280E+04 -9.11495E+03  2.79878E+04 -2.48872E+02  2.68150E+04  1.44034E+04  6.10647E+03  3.19649E+04
 -1.64065E+04  2.83567E+04 -2.53813E+04  1.04033E+04 -1.98028E+04 -1.02350E+04 -2.73928E+03 -1.29861E+04
  4.26873E+03 -4.29144E+03 -2.77765E+03  4.11298E+03 -1.41378E+04  2.59858E+03 -1.61298E+04 -2.07888E+03
 -9.86770E+03 -1.94791E+04  9.81736E+02 -2.07345E+04  1.28176E+04 -1.60754E+04  1.80124E+04  8.23377E+02
  9.63943E+03  1.50413E+04 -5.51957E+02  1.57055E+04 -8.60691E+03  7.75727E+03 -1.50691E+04 -3.00700E+03
 -1.14174E+04 -1.81991E+04  6.16142E+02 -1.65875E+04  1.02272E+04 -1.64544E+04  1.69006E+04 -8.38979E+03
  1.66260E+04  7.14028E+02  1.35426E+04  1.00397E+04  3.39063E+03  5.65735E+01  6.87231E+03 -2.85106E+03
  9.66437E+03  6.00504E+03  1.52000E+04  1.83661E+04  9.02611E+03  2.39295E+04 -1.00696E+04  2.59857E+04
 -1.68547E+04  1.91161E+04 -2.82041E+04  1.41800E+04 -2.09541E+04 -1.57093E+03 -1.93026E+04 -1.63683E+04
 -8.02458E+03 -2.15885E+04  8.12029E+03 -1.64628E+04  1.60525E+04 -8.12830E+03  1.74377E+04  2.80475E+03
  7.12397E+03  1.16168E+04 -8.16210E+03  1.42726E+04 -1.18337E+04  1.57512E+03 -1.02527E+04 -8.12890E+03
 -4.50209E+02 -9.13616E+03  5.17620E+03 -7.52583E+03  5.22157E+03 -2.70949E+03  3.60109E+03  2.75495E+03
 -3.93489E+03  2.90432E+03 -5.32294E+02 -7.07585E+03 -4.19872E+03 -8.16051E+03  6.14339E+03 -9.88494E+03
  7.54027E+03 -3.97207E+03  1.48263E+04  5.47737E+03  9.37809E+03  7.48241E+03  5.43317E+03  1.24995E+04
 -1.38272E+03  1.55715E+04 -1.04013E+04  6.41306E+03 -9.01428E+03  1.16777E+03 -7.82428E+03 -5.86802E+02
 -4.40195E+03 -5.66104E+03 -2.61606E+03  4.43188E+03 -4.95520E+03  1.57450E+03 -4.32383E+03  4.40082E+03
 -1.17304E+04  1.58479E+03 -8.06735E+03 -8.84854E+03 -2.80205E+03 -9.59140E+03  4.22266E+03 -1.05159E+04
  7.69143E+03 -8.73890E+03  7.06798E+03  1.39734E+03  1.67314E+03  4.59751E+03 -2.19429E+03  2.85117E+03
 -4.05182E+03 -7.18273E+03 -2.68186E+01 -7.33462E+03  1.56421E+03 -5.85987E+03  7.82900E+03 -2.83323E+03
  8.55426E+03  1.73524E+03  1.22921E+03  6.78903E+03  2.41217E+02  3.43895E+03 -3.71678E+03  7.89197E+03
 -8.56966E+03  4.57993E+02 -1.06564E+03 -8.98304E+02  1.98650E+03 -3.35194E+02  5.06973E+02  3.50886E+03
  6.93133E+03  8.32079E+02 -8.67474E+02  2.18363E+03 -5.72202E+03  7.29260E+03 -5.71576E+03  3.40228E+03
 -1.93523E+03 -3.86531E+02  1.47605E+03 -7.83067E+03  3.94587E+03 -7.51680E+02  5.30864E+03  6.99633E+02
 -2.32681E+02  7.07257E+03 -4.67541E+03  3.23567E+03 -2.63225E+03  1.45385E+03 -6.05847E+03 -1.42296E+03
 -5.50249E+03 -1.87485E+03  2.00825E+03 -8.15219E+03  5.01810E+03 -4.62001E+03  3.89130E+03 -2.64298E+02
  4.33051E+03  4.98874E+03 -1.23430E+03  6.51944E+03 -5.03121E+03  3.09853E+03 -3.36596E+03 -4.00931E+03
 -4.09150E+03 -5.26968E+03 -2.93992E+02 -8.30760E+03  5.50025E+03 -3.13487E+03  2.80341E+03 -4.29928E+03
  2.50601E+03 -6.31940E+02 -3.48692E+03  2.98405E+03  1.99974E+03 -4.03504E+03  3.39566E+03 -6.24132E+02
  5.58930E+03  2.24401E+03  4.97625E+03  3.73364E+03  4.36856E+03  8.11386E+03  1.87327E+03  6.89886E+03
 -3.05669E+03  8.23924E+02 -8.75385E+03  5.09754E+03 -1.14947E+04 -1.41056E+03 -6.15142E+03 -4.24009E+03
 -2.13446E+03 -5.76399E+03 -4.88025E+02 -3.36174E+03 -8.36340E+02 -1.85062E+03  4.77055E+03  2.61183E+03
  4.95961E+03 -3.85055E+03 -1.48073E+03 -1.00176E+03  3.26670E+03 -1.59249E+03  1.67661E+03 -2.93462E+03
  4.24498E+03  9.72822E+01 -5.24029E+02 -1.42137E+01 -1.54607E+02  8.11724E+02 -7.25701E+03  8.57655E+02
 -5.03636E+03 -4.80666E+02 -2.78640E+03 -4.63863E+03 -7.19486E+02 -8.24337E+02  7.58778E+02 -3.43249E+03
  6.78189E+03 -2.07741E+03  6.17082E+03 -1.84815E+03  8.18569E+03  2.74885E+03  5.08841E+03  7.71139E+03
 -4.73588E+03  5.57361E+03 -2.58048E+03  2.19114E+03 -4.25880E+03  1.74719E+03  5.97825E+02 -1.74638E+03
  2.24763E+03  2.73430E+03 -4.36768E+02 -3.40508E+02  2.14156E+03  7.16711E+02 -1.32753E+03  6.44412E+02
 -2.27832E+03 -6.55855E+03 -2.92024E+03 -4.91348E+03  6.60190E+03 -7.43363E+03  1.63430E+03  2.77303E+03
  3.43676E+03  2.43723E+03  5.82895E+01  7.41007E+03 -2.33792E+03  3.78062E+03  1.31249E+03  2.98406E+03
 -9.63676E+02  1.40715E+03 -7.75318E+03 -2.26034E+03 -2.71196E+03 -3.85002E+03 -3.45723E+02 -1.01918E+02
 -8.77086E+02 -2.01818E+03  2.10739E+03 -1.91133E+03  1.12420E+03  2.88880E+03  2.82486E+03 -7.94826E+02
  4.28174E+03 -4.86351E+03 -1.05281E+03 -1.03019E+03  4.94993E+03  2.50056E+03  1.43258E+03  1.23558E+03
  5.69418E+02  6.28475E+03  7.52748E+02  2.44035E+03 -1.63627E+03  4.02887E+02 -3.74061E+03  2.37577E+02
 -2.90388E+03 -3.07769E+03 -2.36911E+03 -9.27241E+03  3.21001E+03 -1.15843E+03  3.17889E+03  1.98222E+01
  7.90887E+02  4.09161E+03  2.37676E+03  4.24151E+03  1.92496E+03  9.26280E+02 -2.86156E+03 -1.37176E+03
 -3.40970E+03 -5.23001E+02  9.45229E+02  3.51492E+03  3.86020E+03 -3.38462E+03 -3.98497E+03  3.16771E+03
 -4.04110E+03  1.61605E+03  3.73952E+03  4.72966E+02  9.14768E+02  5.82900E+03  3.01526E+03  7.09170E+02
  9.39796E+02  3.04073E+03  6.03095E+02  2.88385E+02 -1.19506E+03  1.07839E+03 -2.02734E+03  5.07515E+03
  2.79531E+02 -5.14701E+01  5.68522E+02  1.33828E+03 -4.58316E+03  1.01679E+02  2.25972E+03 -1.74211E+03
 -8.05214E+02 -4.25542E+03 -8.13470E+02 -9.52881E+01 -3.05165E+02  2.81841E+03  3.10341E+03 -8.43426E+02
 -9.59171E+02 -3.52930E+03  1.92552E+03  1.16295E+03 -6.35558E+03 -4.45958E+03 -2.17528E+02  1.21979E+02
  2.89196E+02 -3.27789E+02  1.21118E+03 -7.69888E+00  4.32623E+03  1.53657E+03 -6.52661E+01 -1.16054E+03
  1.43806E+02  3.24110E+03  5.31425E+02  1.75496E+03 -5.09413E+03 -1.84804E+03  1.25722E+03 -1.03920E+03
 -2.99693E+03  5.57120E+02  3.09819E+03  2.06243E+03  1.82446E+03 -1.88412E+03  2.32523E+03  1.63563E+03
 -5.77288E+03 -1.67672E+03  2.20800E+03  1.64530E+03 -9.01007E+02 -1.07265E+03 -1.82527E+03 -6.98296E+02
  1.01699E+03 -2.34960E+03 -1.76253E+03 -6.21845E+02  2.98080E+00 -9.37693E+01  7.15131E+02  2.02772E+03
  2.16972E+03 -2.10289E+02 -4.09685E+03  1.86750E+03 -3.57539E+03  1.34550E+03 -4.85803E+02  1.12785E+03
 -1.28878E+03  5.79205E+01 -2.41208E+01  1.25661E+03 -3.35836E+03  3.40061E+01  1.07690E+03  1.31798E+03
 -1.66768E+03 -1.83893E+03 -9.71457E+02  2.40307E+03 -1.72476E+03 -1.27481E+03  9.27520E+02 -3.70125E+03
  2.40654E+03  1.29409E+03  2.27411E+03 -2.16984E+03 -4.80018E+03  4.92840E+03 -3.56829E+03 -3.87136E+02
 -8.17771E+02  6.16642E+03 -1.20320E+03 -5.49727E+03 -2.01990E+03 -3.88073E+03  2.40121E+02 -1.66342E+03
 -1.46828E+03 -2.05461E+03 -2.27403E+03 -4.98117E+02  5.57558E+01 -3.11720E+03 -4.05722E+03  2.61055E+03
 -1.02411E+03  3.85710E+02  5.73155E+03  2.01053E+03  4.12276E+03  2.86918E+03 -7.07110E+02  3.51106E+03
 -1.21362E+03  2.30604E+03 -7.41924E+03  2.01444E+03  1.35320E+03  3.72749E+03 -6.79415E+02  7.01592E+02
 -1.97897E+02 -1.82755E+02 -1.50581E+03 -1.61341E+03 -3.61775E+03  1.22521E+03 -6.11596E+02  1.78877E+03
 -1.08808E+03 -2.20339E+03  4.56866E+02 -2.27849E+03  4.87258E+02 -2.27117E+03  4.50892E+03  2.93102E+03
  2.80546E+03  8.10040E+02 -2.85686E+03  2.46618E+03 -1.67433E+03  1.31452E+03 -1.09861E+03  3.59645E+03
 -2.27288E+03  1.55556E+03 -3.47547E+03 -5.33695E+03  3.05559E+03  2.07131E+03 -2.43419E+03 -1.99747E+03
  5.37557E+03  1.02261E+03  7.29199E+02 -1.36767E+03 -1.23135E+03  6.54067E+02  2.50720E+02  1.27553E+03
 -4.53742E+03 -3.25951E+03  7.14585E+03  2.93387E+03  1.40882E+02  2.20231E+03 -7.19503E+02 -3.51726E+03
 -1.43084E+03  2.14304E+03  1.25475E+03  4.92518E+03 -5.81593E+02 -1.11670E+03 -1.35539E+03 -9.62217E+02
 -3.98399E+02 -8.19228E+02  2.38471E+03 -3.69253E+03  2.83293E+03 -6.32912E+03  7.40080E+02  2.64680E+02
  1.01934E+03  2.97619E+03  1.34973E+03  1.94601E+03 -1.96304E+03 -4.27433E+03 -1.74262E+03  5.30584E+03
