 $NMID ID='MM_0lb_SNR50_14hz_g50_65.RAW', FMTDAT='(8E13.5)'
 TRAMP=1., VOLUME=1. $END
  3.10384E+05 -3.55523E+03  3.39117E+05  2.53941E+05  8.36088E+04  3.40767E+05 -1.28842E+05  2.53417E+05
 -1.86386E+05  8.77998E+04 -1.13254E+05 -2.92603E+04  1.19099E+03 -5.00511E+04  5.24739E+04 -2.06734E+02
  3.10804E+04  5.86909E+04 -1.78753E+04  7.77501E+04 -6.25344E+04  6.71087E+04 -7.99156E+04  3.85250E+04
 -7.87780E+04 -1.28800E+04 -5.91061E+04 -5.18270E+04 -1.19009E+04 -7.28926E+04  2.45165E+04 -4.61095E+04
  4.22118E+04  9.61514E+03  1.74366E+04  5.11338E+04 -3.66273E+04  4.49749E+04 -6.70074E+04  1.88970E+03
 -4.82383E+04 -5.84784E+04 -8.32428E+03 -8.15581E+04  3.10924E+04 -5.35362E+04  4.71163E+04 -1.77749E+04
  4.14028E+04  8.64885E+03  3.26344E+04  2.40493E+04  1.96751E+04  2.99422E+04 -6.44119E+03  3.25590E+04
 -2.11633E+04  1.41944E+04 -1.77068E+04 -8.44470E+03  7.37670E+03 -9.04887E+03  2.79128E+04  8.58015E+03
  9.61787E+03  3.33054E+04 -3.23197E+04  3.52548E+04 -6.33814E+04  1.61381E+03 -5.59937E+04 -4.34569E+04
 -1.86656E+04 -5.88399E+04  3.90142E+04 -4.79401E+04  5.88294E+04 -4.71340E+03  3.17368E+04  3.25040E+04
 -6.74028E+03  3.87819E+04 -2.64530E+04  1.26327E+04 -3.02840E+04 -6.15761E+03 -1.73233E+04 -7.31628E+03
 -5.85463E+03 -1.23628E+04  4.31576E+03 -2.11906E+04  4.38331E+03 -2.53360E+04  1.55492E+04 -1.31839E+04
  1.53144E+04  8.38457E+03 -8.72269E+03  1.67221E+04 -2.22016E+04 -3.13543E+03 -7.05891E+03 -3.07233E+04
  2.36378E+04 -4.47868E+04  5.58068E+04 -1.93141E+04  4.92007E+04  1.55833E+04  1.54377E+04  4.29088E+04
 -1.62284E+04  3.04174E+04 -2.81742E+04  6.77293E+03 -1.13581E+04 -2.25866E+04  2.02402E+04 -3.37923E+04
  3.79820E+04 -1.07775E+04  3.66699E+04  1.96676E+04  1.70794E+04  4.68875E+04 -8.03272E+03  5.14222E+04
 -3.46653E+04  3.99991E+04 -3.96526E+04  7.63173E+03 -4.10050E+04 -1.70870E+04 -2.56387E+04 -4.07982E+04
  7.33322E+03 -3.76886E+04  2.87749E+04 -1.78720E+04  2.92457E+04  8.56610E+03  3.57397E+03  1.71850E+04
 -1.29912E+04  7.74430E+03 -1.00230E+04 -8.41561E+03  7.45183E+03 -1.17474E+04  1.64483E+04  6.77483E+03
  1.32202E+04  1.92546E+04 -6.21096E+03  2.74124E+04 -2.04513E+04  1.30284E+04 -2.18165E+04 -1.99823E+03
 -2.18679E+04 -1.85454E+04 -4.44416E+03 -1.98949E+04  3.19656E+03 -1.80482E+04  1.90594E+04 -1.61500E+04
  2.48027E+04 -1.35537E+04  3.12772E+04  6.37781E+03  2.57188E+04  2.11122E+04  5.43032E+03  3.31320E+04
 -1.87182E+04  2.92826E+04 -2.98116E+04  1.40009E+04 -2.13435E+04 -3.70475E+03 -4.81435E+03 -1.28258E+04
 -1.38795E+03  1.51668E+03 -7.06312E+03  7.76751E+03 -1.53145E+04  7.22853E+03 -1.96707E+04 -6.39147E+03
 -7.78126E+03 -1.96311E+04  2.56014E+03 -2.27408E+04  1.69208E+04 -1.74965E+04  1.59469E+04 -1.87542E+03
  1.19232E+04  1.34816E+04  6.67415E+02  1.04580E+04 -9.64970E+03  1.31926E+04 -2.14966E+04 -5.76769E+03
 -2.04105E+04 -1.39162E+04 -4.16889E+03 -2.28625E+04  1.22337E+04 -1.76557E+04  2.52426E+04 -5.26339E+03
  2.21359E+04 -3.34918E+03  1.18223E+04  4.11485E+03  1.31441E+04  3.99357E+03  5.98584E+03  4.25232E+03
  1.41534E+04  1.68006E+03  2.03148E+04  1.73143E+04  1.47319E+04  2.77751E+04 -5.64015E+03  3.81502E+04
 -2.13072E+04  2.71454E+04 -3.18512E+04  1.70447E+04 -3.17702E+04  1.39969E+03 -2.57460E+04 -2.00089E+04
 -1.57248E+04 -2.44121E+04  1.41683E+04 -2.42056E+04  1.53670E+04 -1.57647E+04  2.13150E+04  9.25341E+03
  1.11846E+04  1.48083E+04 -6.26600E+03  1.27782E+04 -1.81278E+04  6.25796E+03 -1.32508E+04 -8.83377E+03
  1.24278E+03 -1.90200E+04  7.01353E+03 -1.48868E+04  4.50396E+03 -1.91945E+03 -7.30154E+02  2.88523E+03
 -9.43252E+03  1.24521E+03 -1.02875E+04 -8.63643E+02  1.59767E+03 -1.47792E+04  1.12400E+04 -1.04360E+04
  1.91130E+04 -7.95430E+03  2.29638E+04  2.04430E+03  1.76036E+04  1.59534E+04  1.00650E+04  2.06862E+04
 -8.51346E+02  2.02363E+04 -1.14574E+04  1.85746E+04 -1.41413E+04  6.89644E+03 -1.00932E+04 -6.36427E+03
 -4.09132E+03 -3.77370E+03  4.92074E+03  1.48900E+03 -3.53659E+03  4.86643E+03 -9.94445E+02  2.72105E+03
 -1.27178E+04  3.27197E+03 -1.06538E+04 -3.85206E+03 -2.85437E+03 -1.68247E+04  5.67112E+03 -4.80386E+03
  1.08327E+04 -7.18909E+03  5.94872E+03  6.14387E+03 -2.91374E+03  9.93890E+03 -7.86640E+03 -4.97419E+03
 -5.19260E+03 -4.44789E+03 -3.12708E+03 -1.15914E+04  6.35986E+03 -9.19424E+03  1.61384E+04 -8.96729E+03
  1.99893E+04  1.77688E+03  1.42568E+04  7.77935E+03  3.22643E+03  1.43147E+04 -9.94278E+03  1.35991E+04
 -8.36148E+03  4.14512E+03 -8.60888E+03 -1.93838E+03  1.63540E+03 -3.53208E+03  6.83231E+03  2.83390E+03
  1.34354E+03  4.07955E+03 -3.34084E+02  1.10606E+04 -8.28451E+03  9.00487E+03 -1.07759E+04  3.56188E+03
 -6.53989E+03 -3.96913E+03  4.42390E+02 -1.22746E+04  5.01293E+03 -8.48185E+02  7.65807E+03  7.17118E+02
  2.24606E+03  4.99058E+03 -9.80396E+03  1.02992E+04 -9.49223E+03  4.87857E+03 -7.69112E+03 -4.42492E+03
 -2.44537E+03 -9.18846E+03  1.65755E+03 -1.10903E+04  9.19725E+03 -1.75195E+03  7.25085E+03 -6.05713E+03
  4.47524E+03  9.10862E+03 -1.44162E+03  8.97773E+03 -6.45241E+03  3.03698E+03 -7.27768E+03 -5.90194E+03
 -7.16017E+03 -7.69125E+03 -5.05684E+03 -5.70717E+03  5.67193E+03 -8.67166E+03  4.88113E+03 -2.78267E+03
 -6.22827E+03  3.67083E+03  2.63433E+03  1.44149E+04 -3.77923E+03 -1.99600E+03  2.58659E+03 -7.90561E+03
  4.32383E+03 -3.41342E+03  1.30174E+04 -8.40064E+02  6.89514E+03  4.86491E+03  4.37138E+03  1.20810E+04
 -2.30849E+03  1.41453E+04 -1.39924E+04  1.74383E+04 -1.69743E+04  7.59304E+03 -1.21676E+04 -7.49241E+03
 -3.76976E+03 -1.19844E+04  1.69421E+03 -1.00794E+04  7.08369E+02  3.85875E+02  4.30567E+03 -4.02457E+03
  7.81788E+02  1.29561E+03  4.50479E+03 -6.97629E+03  5.83076E+03 -2.38518E+03  5.41615E+03 -4.69399E+03
  1.06999E+04  4.12456E+03  2.94890E+03  3.82467E+03 -2.44848E+03  5.95320E+03 -1.14749E+04  4.91539E+03
 -8.29608E+03 -5.97111E+03 -2.28285E+03 -5.77629E+03  1.05487E+03 -1.03153E+04  9.02422E+03 -7.56981E+03
  7.43841E+03 -7.30998E+03  5.22711E+03 -1.77750E+03  8.07418E+03  6.55797E+03  9.93461E+02  1.34917E+04
 -8.12754E+03  1.11904E+04 -7.33863E+03  6.33748E+03 -5.21222E+03 -1.35298E+02  9.92285E+02 -6.37739E+03
 -1.47385E+02 -7.66831E+02 -1.35312E+03  1.88642E+03 -7.55069E+03  2.31177E+03 -1.40287E+03 -1.57088E+03
 -2.73362E+03 -3.85173E+03  3.65620E+02 -1.09653E+04  6.02875E+03 -6.10498E+03  3.49605E+03 -1.27116E+03
  1.07834E+04  5.14933E+03  5.33127E+02  3.11135E+03 -6.21691E+03  1.29013E+04 -6.74740E+03  2.98833E+01
 -9.64233E+03 -1.99020E+02 -9.10964E+03 -7.76801E+03  1.96066E+03 -3.81032E+03  3.84936E+03 -1.15200E+04
  5.52840E+03 -2.65561E+03  4.50792E+03  2.51022E+03 -5.28248E+03  2.99181E+03 -1.92342E+03  2.23140E+03
 -6.65263E+02  8.33820E+03 -9.38154E+02 -3.08340E+03  3.20347E+03  1.39687E+03  2.49236E+03 -1.08712E+03
 -3.78317E+03  3.45114E+03 -3.78855E+03  6.15496E+03 -4.24151E+03  3.17397E+02 -1.16226E+04  3.67088E+02
 -1.63986E+03 -4.38862E+03  3.56858E+03 -8.86800E+03  1.09266E+03 -3.42957E+03  8.95876E+03  1.91635E+03
  3.63252E+03  5.78754E+03  1.91920E+03  4.96571E+03 -2.13139E+03 -1.31531E+03 -4.09964E+03 -4.63295E+02
 -3.37672E+03 -1.96172E+03  1.80279E+03 -1.13008E+03  4.38796E+03  7.97661E+02  4.39018E+03  2.76405E+03
  4.55791E+03  2.83516E+03 -1.81893E+03 -1.67000E+03  1.78821E+03  1.90127E+03  4.93251E+03  7.99278E+02
  3.22062E+03  3.85749E+03  5.08933E+03  2.01251E+03 -4.06688E+03  1.35694E+03  9.62983E+02  7.20916E+03
 -2.89563E+03  3.20603E+03 -3.27131E+03  1.69339E+03 -2.55169E+03 -4.35456E+03 -4.35791E+03 -5.06982E+02
 -3.57620E+01  1.35022E+03  3.27512E+03  1.39424E+03  5.08444E+03  5.76851E+03 -2.10232E+03  6.15202E+02
 -2.53451E+03  8.83999E+02 -2.88246E+03 -5.53584E+02  1.88081E+03 -4.32124E+03  4.41206E+03 -4.27683E+03
  2.01839E+03 -1.73824E+03 -3.53008E+03  4.46584E+03  3.41837E+03 -6.04943E+03 -1.74761E+03  4.29381E+03
 -1.58562E+03 -1.30516E+03  1.06231E+03 -1.42988E+03 -2.13931E+03 -3.69437E+03  3.81626E+03 -2.16269E+03
  6.87783E+03 -2.75701E+03  8.15834E+03  6.34820E+03 -7.42365E+02  8.05475E+03 -4.46780E+03  5.75742E+03
 -2.86375E+03  2.39403E+03 -3.08540E+03 -2.60135E+03 -7.28845E+02 -5.45111E+03  1.77695E+03 -1.87573E+03
  4.96074E+03  6.73478E+02  2.13504E+02  1.35691E+03  2.69652E+03 -4.15918E+02 -4.84688E+03  7.09908E+03
  8.34483E+02  5.16806E+03 -2.33045E+03 -1.62546E+03  1.47001E+03  1.41594E+02 -3.46352E+03 -5.45266E+03
  1.84188E+03 -1.70330E+03 -4.85711E+03  2.12843E+03 -4.40260E+03 -1.51612E+03 -9.06204E+03 -3.08384E+03
 -4.19096E+03 -3.79047E+03  7.95341E+02 -3.40237E+03  5.54767E+03 -2.74356E+03  9.27950E+03 -2.66314E+03
  5.17900E+03  6.73763E+02  2.85763E+03 -3.27595E+02 -2.18604E+03  5.53239E+03 -9.02619E+03  2.98200E+03
  1.27918E+03  3.12949E+03 -5.75513E+03  2.57976E+03  8.35924E+02 -1.88292E+03 -6.01051E+02 -3.89655E+03
  6.31405E+03 -2.49652E+03 -5.62610E+03  7.40230E+02 -1.44727E+03 -2.46899E+03  1.62871E+02 -9.35302E+02
  8.40068E+03 -4.71469E+03  3.80096E+03  3.16510E+03  8.43086E+03  9.02163E+03 -1.88230E+03  8.38930E+03
 -3.39057E+03  5.55828E+03 -3.49938E+03  6.53383E+02 -6.21225E+03 -6.06291E+03  4.80310E+03 -3.51624E+03
 -4.53124E+03 -2.69354E+03  1.32832E+03 -5.88440E+03  2.38239E+03  1.06896E+03  6.74995E+03 -2.08159E+03
  2.43638E+03  1.19296E+03 -8.54158E+02  3.92101E+03  2.94518E+03  2.63883E+03  7.07239E+02 -4.05911E+03
  2.28469E+03  6.25774E+03 -4.34911E+02  4.51166E+03 -2.11957E+03  3.68235E+03 -1.05083E+03 -3.67294E+02
  1.45761E+03  1.29136E+03  4.51503E+02 -6.29065E+02 -1.38093E+03 -1.25908E+03  4.78150E+02 -3.84683E+03
 -1.57940E+02 -4.02036E+02  2.72243E+03  9.58271E+02  5.46287E+03  1.05540E+03  4.09355E+02  4.12122E+03
  5.75859E+03  2.39402E+03 -1.14316E+03  1.47056E+03  4.50962E+02  7.85920E+02 -8.24495E+03  3.06946E+03
 -1.81892E+02 -2.46063E+03 -1.23884E+03  1.89824E+02 -3.54489E+03  2.92221E+03  1.91163E+03  4.38884E+02
 -4.45682E+03 -7.43554E+02 -3.36138E+03  1.47239E+03  6.29224E+03 -1.11008E+03  2.64878E+02 -8.81990E+02
  2.74182E+03  3.94388E+03 -1.24094E+03 -3.00095E+02 -3.94439E+03  9.97365E+03 -3.98142E+03  7.28807E+03
