 $NMID ID='MM_0lb_SNR50_8hz_g40_52.RAW', FMTDAT='(8E13.5)'
 TRAMP=1., VOLUME=1. $END
  3.04960E+05 -8.71427E+03  3.31827E+05  2.47588E+05  8.44404E+04  3.37263E+05 -1.36299E+05  2.53313E+05
 -1.86123E+05  8.63227E+04 -1.10351E+05 -2.94866E+04 -2.10669E+03 -5.20088E+04  5.52279E+04  2.40341E+03
  3.41593E+04  5.37423E+04 -2.54004E+04  8.07382E+04 -6.31204E+04  6.58095E+04 -8.79562E+04  2.33004E+04
 -8.08767E+04 -8.76465E+03 -5.67740E+04 -4.72419E+04 -2.28167E+04 -7.12119E+04  3.11263E+04 -4.61859E+04
  4.25827E+04  6.58583E+03  1.66621E+04  5.28280E+04 -3.54865E+04  5.27065E+04 -6.85679E+04  7.80303E+01
 -5.21178E+04 -5.50431E+04 -1.95850E+03 -7.86331E+04  3.76053E+04 -5.52726E+04  5.43755E+04 -1.23617E+04
  5.03802E+04  1.39055E+04  3.10041E+04  3.41711E+04  1.38927E+04  2.76485E+04 -1.22837E+04  3.13683E+04
 -2.27509E+04  6.00359E+03 -1.37796E+04 -1.20345E+04 -1.71143E+03 -6.72793E+03  2.36478E+04  1.23845E+04
  5.52956E+03  3.82922E+04 -3.12127E+04  3.60072E+04 -6.44796E+04  2.27594E+03 -5.96629E+04 -4.53758E+04
 -1.38240E+04 -6.41434E+04  3.65249E+04 -5.60580E+04  6.01781E+04 -5.97118E+03  4.24253E+04  2.79513E+04
 -1.05584E+04  4.04233E+04 -3.10022E+04  1.82288E+04 -3.01431E+04 -4.82399E+03 -2.36435E+04 -1.79359E+04
 -7.02712E+03 -1.27623E+04 -2.89954E+03 -1.59068E+04  3.63013E+03 -2.41783E+04  2.18853E+04 -1.25736E+04
  6.82287E+03  4.70943E+03 -7.34447E+03  1.71342E+04 -2.04199E+04 -5.52597E+03 -6.25023E+03 -3.35588E+04
  2.36687E+04 -5.21492E+04  5.19116E+04 -1.69665E+04  5.20175E+04  1.72929E+04  1.09195E+04  4.58105E+04
 -1.80106E+04  3.73866E+04 -2.55987E+04 -2.60358E+03 -1.10047E+04 -3.01537E+04  1.83240E+04 -3.32943E+04
  4.36262E+04 -1.37197E+04  3.70142E+04  2.49447E+04  2.54767E+04  5.48060E+04  3.76953E+02  5.81084E+04
 -3.96106E+04  3.76440E+04 -4.70693E+04  1.33627E+04 -4.37339E+04 -1.61965E+04 -2.33217E+04 -4.35402E+04
  1.95691E+03 -4.26743E+04  3.28724E+04 -1.49276E+04  3.20330E+04  5.75320E+03  1.06771E+04  2.16137E+04
 -8.58155E+03  8.58131E+03 -1.08969E+04 -3.67773E+03  2.25528E+02 -1.20300E+04  1.68772E+04  6.02132E+03
  1.40941E+04  2.47984E+04 -5.62312E+03  2.73391E+04 -2.67232E+04  1.24632E+04 -3.27136E+04 -2.43688E+03
 -2.83757E+04 -1.38193E+04 -9.49368E+03 -2.32299E+04  7.07672E+03 -2.73410E+04  2.35372E+04 -3.05669E+04
  2.46170E+04 -8.98983E+03  4.01566E+04 -1.11300E+03  2.71906E+04  1.96945E+04  6.99436E+03  3.61649E+04
 -2.37580E+04  3.20151E+04 -3.66465E+04  8.48931E+03 -2.13158E+04 -1.22296E+04 -4.68429E+03 -9.05524E+03
  2.08130E+03  1.46386E+03 -8.34812E+03  1.61478E+04 -1.89619E+04  5.44577E+03 -1.94814E+04 -5.15251E+03
 -9.57165E+03 -3.14410E+04  3.93426E+03 -3.00191E+04  1.79685E+04 -2.68098E+04  2.79954E+04 -1.04609E+02
  1.65410E+04  1.95670E+04  4.20060E+03  2.63300E+04 -1.62166E+04  1.37293E+04 -2.69220E+04 -1.42286E+03
 -2.63064E+04 -2.50027E+04 -5.08254E+03 -2.47343E+04  9.11347E+03 -2.21432E+04  2.36362E+04 -7.05028E+03
  2.64508E+04 -1.44813E+03  1.22490E+04  7.96615E+03  9.02974E+03  4.54080E+03  1.40558E+04 -3.64681E+03
  2.22659E+04  1.45916E+03  2.21908E+04  1.87938E+04  1.83360E+04  3.54661E+04 -4.57119E+02  4.01387E+04
 -2.90854E+04  3.73670E+04 -3.40600E+04  1.86041E+04 -4.40979E+04 -3.42164E+03 -3.84625E+04 -2.81212E+04
 -1.77112E+04 -3.31789E+04  1.59685E+04 -3.45822E+04  2.62120E+04 -1.88796E+04  2.65344E+04  1.27520E+04
  3.73536E+03  2.42457E+04 -1.39687E+04  1.81098E+04 -1.08000E+04  5.86972E+03 -2.04333E+04 -1.78691E+04
 -7.22412E+02 -1.58591E+04  5.06777E+03 -1.40072E+04  1.80111E+04  1.49352E+03 -1.46533E+02  6.39192E+03
 -8.15811E+03  6.15291E+03 -7.80478E+03 -5.71953E+03  5.87944E+03 -1.15676E+04  1.25061E+04 -2.27394E+04
  2.33816E+04 -1.72569E+04  2.30961E+04  9.75865E+02  2.39581E+04  2.16074E+04  1.03498E+04  2.80203E+04
 -7.85163E+03  3.67838E+04 -2.10991E+04  2.79396E+04 -2.44077E+04  3.20955E+03 -1.68571E+04 -1.22621E+04
 -7.45366E+03 -1.49048E+03 -2.83002E+03  9.27749E+02 -7.43295E+03  7.02204E+03 -1.53672E+04  1.33428E+04
 -1.42059E+04  7.01391E+01 -1.57639E+04 -6.78083E+03 -5.32018E+03 -2.19830E+04  4.28262E+03 -1.27675E+04
  1.23616E+04 -1.04580E+04  8.82341E+03  2.28166E+03  1.84238E+03  1.16493E+04 -8.15827E+03 -6.20146E+03
 -1.01528E+04 -9.49790E+03 -1.04129E+04 -1.61617E+04  9.21759E+03 -1.23878E+04  2.50397E+04 -8.94148E+03
  2.22267E+04  2.72014E+03  1.82276E+04  1.01173E+04  5.49362E+03  2.28264E+04 -1.38463E+04  1.06948E+04
 -1.73664E+04  8.86396E+03 -9.76883E+03 -6.31467E+03  1.34568E+03 -4.30286E+03 -1.61590E+03 -6.23012E+03
  4.49473E+03  1.40556E+04 -5.87857E+03  1.30025E+04 -7.11323E+03  1.07364E+04 -8.58008E+03  8.65955E+03
 -9.83533E+03 -6.84030E+03 -8.19957E+02 -1.51865E+04  1.32516E+04 -5.71609E+03  7.42875E+03  2.61434E+03
  5.35097E+02  8.67696E+03 -1.22905E+04  9.03895E+03 -9.48128E+03  4.27608E+03 -1.83916E+04 -8.05193E+03
 -1.47733E+04 -1.59729E+04  3.39531E+03 -1.29532E+04  9.84946E+03 -6.36352E+03  1.71768E+04  5.80010E+03
  1.62202E+04  1.23269E+04 -3.38765E+03  1.60152E+04 -1.10613E+04  1.65029E+04 -1.39965E+04 -4.89498E+03
 -9.23283E+03 -7.60723E+03  1.57628E+02 -6.75597E+03  8.46869E+03 -9.32942E+03  1.10669E+04 -4.04911E+03
  8.92265E+03  4.41536E+03 -2.55951E+03 -6.07651E+03 -5.86546E+03 -1.13136E+04  1.89903E+03 -3.33629E+03
  1.22721E+04 -6.23719E+03  1.80187E+04  5.52252E+03  2.20417E+04  1.41058E+04  1.10450E+04  2.16262E+04
 -2.14640E+03  2.65025E+04 -2.44475E+04  1.88816E+04 -2.99444E+04  7.08907E+03 -2.28386E+04 -1.16530E+04
 -3.91316E+03 -2.20608E+04 -1.12432E+03 -1.04533E+04  1.10161E+04 -7.30029E+03  5.43252E+03 -8.54815E+03
 -2.97533E+03 -8.99787E+03 -4.58869E+02  5.62873E+02  1.63306E+03  4.32698E+03  1.12982E+04 -6.98268E+02
  7.31417E+03  2.68398E+03  7.00592E+03  5.94298E+03 -4.92688E+03  1.13677E+04 -1.16263E+04  1.40547E+04
 -1.54998E+04 -4.98610E+03 -5.88951E+03 -7.12850E+03 -7.80435E+03 -1.31435E+04  7.48556E+03 -2.29224E+04
  1.96530E+04 -7.13208E+03  2.46654E+04  1.47985E+03  7.00267E+03  1.97816E+04  2.26962E+03  1.92042E+04
 -9.99254E+02  1.22505E+04 -6.12535E+03  8.30714E+03 -6.47290E+03 -2.45562E+03 -7.99699E+03 -4.28877E+02
 -1.42780E+03 -1.57420E+03  4.66749E+03  7.88915E+03 -1.03407E+04  3.15347E+03 -9.57672E+03  2.69810E+03
 -3.48823E+03 -6.89884E+03  1.29450E+03 -1.59792E+04  6.52792E+03 -1.04821E+04  1.48167E+04 -7.50902E+03
  1.92224E+04  1.42312E+04  3.51242E+03  1.58857E+04 -7.57031E+03  9.74020E+03 -1.72563E+04  3.14904E+03
 -2.01666E+04  4.39500E+03 -1.24953E+04 -9.19752E+03  4.09512E+03 -1.75184E+04  1.08275E+04 -1.09976E+04
  1.12765E+04 -7.61906E+03  5.82133E+03  1.01207E+03  6.77580E+03  1.35787E+03  2.96409E+03 -6.37506E+02
  6.13938E+02 -3.02381E+03  1.33862E+03 -1.96992E+03  7.66829E+03  4.90450E+03  3.88619E+03  1.01550E+04
 -4.02598E+03  1.35491E+04 -1.14568E+04  1.49545E+04 -1.39233E+04  1.58451E+03 -1.15621E+04 -1.14089E+04
 -1.73313E+03 -1.56255E+04  3.09382E+03 -1.63043E+04  1.60021E+04 -9.90977E+03  1.92704E+04 -4.13364E+03
  1.51925E+04 -1.21422E+03 -4.29567E+03  1.60073E+04 -5.05724E+03  8.71006E+02  9.47571E+02  3.62290E+02
 -2.75617E+02 -9.06205E+03  6.12930E+03 -7.39023E+03  5.43395E+03 -5.93017E+03  1.05945E+04  3.67824E+02
  1.98534E+03  2.15873E+03 -2.81034E+02  6.26520E+03  4.30657E+03  4.11164E+03  2.77387E+03 -7.83320E+03
  3.76616E+03  1.55231E+03  6.69296E+03 -2.44065E+03 -1.11476E+02  1.08717E+04 -1.54967E+03  1.10288E+04
 -9.33864E+03  2.37972E+03 -1.27517E+04 -1.39412E+02 -5.49536E+03 -3.41733E+03 -6.67043E+03 -1.12301E+04
  5.59285E+03 -1.21572E+04  2.13941E+03 -2.49481E+03  8.85495E+03  1.30201E+03  5.10005E+03  2.55829E+03
 -9.47316E+03 -6.23503E+02 -5.28358E+03 -3.27095E+03 -1.09265E+04 -9.77453E+03  3.66869E+03 -1.48378E+03
  1.32594E+03 -1.30434E+04  1.98247E+02 -2.95017E+03  4.61882E+03  1.75509E+03  2.86878E+03  2.76450E+03
 -1.92547E+03  2.52347E+03 -4.54955E+03 -5.78939E+03 -6.05703E+03 -1.06698E+04  8.27894E+03 -5.54451E+02
  8.15809E+03  4.65301E+03  1.08157E+04  8.92450E+03 -2.52284E+01  1.57757E+04 -3.71559E+03  1.53745E+04
 -1.00467E+04  6.30902E+03 -5.00329E+03 -7.07740E+03 -4.30754E+03 -8.86811E+03 -3.66692E+03 -1.40598E+04
  1.27702E+04 -1.13566E+04  4.94451E+03  5.73655E+03  2.41236E+02  6.09590E+03  3.69369E+03  2.33230E+03
 -6.59708E+03  4.22284E+03 -3.35165E+03  2.43435E+03 -6.47291E+03 -9.80200E+02 -4.19359E+03 -6.97302E+02
 -1.03348E+04  3.84653E+03 -2.35153E+03  6.14279E+03 -1.11168E+04 -2.24775E+02 -1.71443E+04 -1.43594E+04
 -2.31572E+03 -1.27363E+04  7.85808E+03 -2.08609E+04  1.18690E+04 -5.57267E+03  1.84932E+04 -4.48446E+03
  1.45335E+04  2.11559E+03  1.08465E+04  8.79794E+03  1.16051E+03  9.23839E+03 -7.59806E+03  9.76534E+03
 -3.21241E+03  4.64832E+03 -2.09727E+03 -3.81549E+03 -6.60011E+02 -3.19131E+03  8.99806E+02 -1.14208E+04
 -4.39317E+03 -2.42666E+03 -1.19100E+03 -2.51269E+03 -1.68720E+02  2.37030E+03  2.25681E+03 -3.87689E+03
  3.99722E+03 -4.14563E+03  5.91591E+03 -2.24231E+02  8.22929E+03  6.92530E+03  5.13519E+03  1.15994E+04
  6.53694E+02  8.61984E+03 -1.59327E+04 -1.23332E+03 -1.83129E+04 -1.00141E+04 -7.87634E+03 -7.59988E+03
 -5.90233E+03 -1.88215E+04  1.91049E+03 -1.40692E+04  5.59541E+03 -1.25458E+04  5.10228E+03 -3.98803E+03
  1.32598E+04  5.62028E+03 -4.65241E+03  7.03510E+03  4.80687E+03  2.10376E+03  1.16770E+03 -3.22700E+03
  1.32276E+03 -7.81080E+03  1.72804E+03  1.41114E+03  8.94214E+03  1.85374E+02  1.75552E+03  2.27744E+03
 -6.47158E+03  8.09521E+03 -9.81294E+03 -2.66453E+02 -3.27991E+02 -2.62182E+03 -5.63856E+03 -9.33090E+03
  6.54725E+03 -1.21529E+04  1.42744E+04 -7.74794E+03  1.22190E+04  2.23726E+03  4.02888E+03  1.32170E+04
  2.61697E+03  5.48297E+03 -2.76206E+03  7.30384E+03 -2.05672E+03  5.27950E+03 -3.35766E+03 -2.65364E+03
  9.70020E+02  2.64704E+02 -4.80827E+03 -2.86530E+03 -5.67110E+03 -2.11444E+03 -1.11055E+04 -7.51261E+03
 -8.64929E+03 -4.72686E+03 -6.61682E+03 -9.11225E+03 -5.34742E+02 -1.13927E+04  7.69390E+03 -4.27333E+03
  9.83650E+03 -5.48478E+03  6.48460E+03  3.57804E+03 -1.44567E+03  3.34780E+03 -1.09572E+04 -5.75019E+02
