 $NMID ID='MM_0lb_SNR50_8hz_g50_76.RAW', FMTDAT='(8E13.5)'
 TRAMP=1., VOLUME=1. $END
  3.12536E+05 -2.67384E+03  3.34917E+05  2.56483E+05  8.78446E+04  3.38668E+05 -1.34756E+05  2.54303E+05
 -1.86681E+05  8.68150E+04 -1.11029E+05 -2.70401E+04  3.80553E+03 -5.21615E+04  5.00994E+04  1.69491E+03
  3.31965E+04  5.60024E+04 -1.17068E+04  7.38939E+04 -5.90483E+04  6.37586E+04 -8.19920E+04  3.28101E+04
 -8.37489E+04 -9.86357E+03 -4.98640E+04 -5.30418E+04 -1.09933E+04 -6.32067E+04  2.91583E+04 -4.70413E+04
  4.25578E+04  4.30047E+03  1.45808E+04  4.77124E+04 -3.08861E+04  4.70417E+04 -6.96315E+04 -1.53757E+03
 -4.75050E+04 -5.99367E+04 -1.67135E+04 -8.10399E+04  3.46609E+04 -4.77608E+04  4.71154E+04 -1.64866E+04
  5.24179E+04  6.94772E+03  3.44415E+04  2.62585E+04  1.11990E+04  2.48916E+04 -7.33944E+03  2.56385E+04
 -2.14189E+04  8.22556E+03 -1.82320E+04 -1.67361E+03  8.39550E+03 -8.51038E+03  1.96466E+04  9.61688E+03
 -1.32676E+03  3.80752E+04 -3.06981E+04  3.97501E+04 -5.82560E+04  7.05546E+03 -5.72544E+04 -4.29559E+04
 -9.85755E+03 -7.40043E+04  4.53142E+04 -4.75925E+04  5.74211E+04  1.43869E+02  4.07033E+04  3.94263E+04
 -8.47874E+03  3.46143E+04 -3.61667E+04  2.26560E+04 -3.61751E+04  1.38782E+02 -1.79535E+04 -1.63670E+04
 -1.38998E+04 -8.96963E+03 -1.15425E+03 -2.19305E+04  1.21604E+04 -2.47783E+04  1.03467E+04 -1.39422E+04
  1.35020E+03  6.61739E+03 -4.40328E+03  1.44566E+04 -1.93251E+04 -6.11894E+03 -1.43062E+04 -3.34986E+04
  2.25872E+04 -4.71971E+04  4.98951E+04 -1.88786E+04  4.60319E+04  2.53932E+04  1.72941E+04  4.88822E+04
 -1.74087E+04  3.95694E+04 -2.34367E+04  1.94197E+03 -1.21465E+04 -3.05405E+04  2.28474E+04 -3.66265E+04
  4.84487E+04 -1.03454E+04  4.93349E+04  3.00192E+04  2.33975E+04  5.31179E+04 -4.63275E+03  5.36515E+04
 -3.38761E+04  3.83475E+04 -4.89345E+04  1.42601E+04 -4.48547E+04 -1.83236E+04 -2.49387E+04 -4.63018E+04
  5.22709E+03 -3.49115E+04  3.56177E+04 -1.54650E+04  3.35513E+04  1.72899E+04  1.03534E+04  2.58434E+04
 -1.66747E+04  2.99546E+03 -1.15313E+04 -6.97741E+03  5.99839E+03 -1.19393E+04  2.21507E+04  9.93392E+03
  1.35097E+04  2.46015E+04 -6.16431E+03  2.91275E+04 -2.08622E+04  1.13557E+04 -3.04685E+04  5.56885E+03
 -2.60517E+04 -1.77396E+04 -9.41062E+03 -2.92875E+04  3.62564E+03 -2.46817E+04  2.08865E+04 -2.56303E+04
  3.49677E+04 -1.81741E+04  3.40107E+04  5.38448E+03  2.38999E+04  2.23845E+04  5.79627E+03  3.91950E+04
 -2.04492E+04  2.79626E+04 -3.60067E+04  1.83313E+04 -1.72748E+04 -1.32891E+04 -5.35757E+03 -7.81490E+03
  3.45949E+03  7.52417E+02 -4.88637E+03  1.01924E+04 -2.39550E+04  5.37566E+03 -2.25547E+04 -7.62597E+03
 -8.97010E+03 -2.38881E+04  1.57874E+04 -3.15004E+04  1.81871E+04 -1.86551E+04  2.40882E+04 -3.99994E+03
  1.72659E+04  1.73956E+04 -4.68460E+03  2.63139E+04 -1.79561E+04  2.02337E+04 -2.16420E+04  1.95702E+03
 -1.40527E+04 -2.31049E+04 -3.20024E+03 -2.68864E+04  1.57779E+04 -2.08864E+04  2.31325E+04 -1.37176E+04
  2.91171E+04  2.78749E+03  1.93917E+04  6.38818E+03  7.78727E+03  7.53254E+02  1.88954E+04  1.67312E+03
  2.22411E+04  6.47392E+03  2.60913E+04  2.29033E+04  1.69016E+04  3.45191E+04 -4.33221E+03  4.13061E+04
 -3.29173E+04  3.61422E+04 -4.28135E+04  2.16067E+04 -4.36521E+04 -1.43060E+03 -4.06868E+04 -2.74399E+04
 -1.67756E+04 -4.67328E+04  1.21696E+04 -3.15413E+04  3.18221E+04 -1.14454E+04  2.98925E+04  3.57030E+03
  1.08821E+04  2.02205E+04 -1.44383E+04  1.29867E+04 -1.80238E+04 -1.11443E+03 -2.29458E+04 -1.25075E+04
  2.20454E+03 -2.56758E+04  8.38942E+03 -7.36248E+03  1.00096E+04 -6.90137E+03  2.77364E+03  4.39297E+03
 -1.18961E+04  4.69700E+03 -1.69640E+04 -1.04213E+03 -1.47143E+03 -1.67519E+04  7.75154E+03 -2.30593E+04
  2.01930E+04 -1.28458E+04  3.08183E+04  8.92195E+03  2.60597E+04  2.11204E+04  8.40400E+03  2.98831E+04
 -7.67188E+03  2.97678E+04 -1.81803E+04  2.14494E+04 -1.61714E+04 -3.40464E+02 -1.04728E+04 -5.31192E+03
 -5.05920E+03 -6.83999E+03  5.06271E+03 -6.77777E+03 -5.61558E+03 -2.00048E+03 -6.97745E+03  1.37558E+03
 -1.93499E+04  1.43607E+03 -1.08931E+04 -1.31011E+04 -1.19194E+04 -2.21019E+04  3.38949E+03 -1.51931E+04
  1.44656E+04 -3.22727E+03  1.12513E+04  1.52876E+03  1.37667E+03  7.81675E+03 -4.12577E+03  2.73027E+02
 -3.66352E+03 -1.41879E+04 -6.22658E+03 -2.08272E+04  6.37247E+03 -1.62500E+04  2.16367E+04 -7.33106E+03
  2.87540E+04  7.88069E+03  1.95253E+04  1.36122E+04  6.04714E+03  1.95396E+04 -1.49095E+04  1.60695E+04
 -1.03976E+04  7.43804E+03 -2.96252E+03 -2.07141E+03  4.84804E+02 -3.83968E+03  1.79330E+04  9.16466E+02
  1.17786E+04  6.05702E+03 -1.22093E+03  1.68541E+04 -1.50827E+04  1.39177E+04 -1.67355E+04  3.54679E+03
 -1.53387E+04 -1.00872E+04  2.51935E+03 -7.77322E+03  1.07036E+04 -1.01589E+04  8.64576E+03  3.74677E+03
 -3.06147E+03  1.12551E+04 -6.69777E+03  1.43210E+04 -1.73868E+04  9.16818E+03 -2.47572E+04 -6.89714E+03
 -5.14762E+03 -1.81854E+04  9.11040E+02 -1.94719E+04  8.76559E+03 -3.99563E+03  1.82039E+04  3.83814E+03
  5.95517E+03  1.14053E+04 -3.37329E+03  1.33337E+04 -1.40655E+04  6.68927E+03 -8.34676E+03  7.02176E+02
 -1.67415E+04 -9.92685E+03 -4.66593E+03 -1.71053E+04  1.27046E+04 -1.19340E+04  1.06329E+04 -5.79706E+03
  5.67899E+03  2.42092E+02  1.50380E+03  3.40716E+03  2.18340E+03 -2.00794E+03  2.98415E+03 -1.34403E+04
  8.58457E+03 -7.63100E+03  1.86216E+04  5.44092E+03  1.77260E+04  1.37827E+04  1.16722E+04  2.35316E+04
  1.12641E+02  2.38825E+04 -2.49101E+04  2.29953E+04 -3.44046E+04 -1.69828E+03 -2.15427E+04 -1.12960E+04
 -8.96037E+03 -1.32782E+04 -3.27406E+03 -1.44509E+04  2.79406E+03 -4.36731E+03  9.53893E+03 -3.22456E+03
  5.15136E+03 -6.18660E+03  5.33516E+03 -5.97452E+03  5.00930E+03 -6.54144E+03  6.02413E+03 -2.44321E+03
  7.20517E+03  3.09926E+03  2.96138E+03  1.04348E+04 -3.48580E+03  9.74152E+03 -1.41125E+04  3.21862E+03
 -2.04966E+04 -2.91694E+03 -1.42831E+04 -1.24899E+04  6.39267E+03 -2.26358E+04  6.31926E+03 -2.16155E+04
  2.18537E+04 -5.83655E+03  2.54944E+04 -3.79330E+03  1.68546E+04  2.34438E+04  1.27565E+03  2.23192E+04
 -1.31892E+04  1.85083E+04 -1.10939E+04  7.32330E+03 -1.38931E+04 -2.26846E+03 -5.83629E+03 -2.46310E+02
 -5.65660E+03 -6.45587E+02 -2.57433E+03  6.16603E+03 -4.52783E+03  1.83285E+03 -1.09853E+04  1.41181E+03
 -7.52584E+03 -1.22395E+04  3.08827E+03 -2.02049E+04  7.40748E+03 -1.20302E+04  1.28851E+04 -2.68511E+03
  1.98738E+04  1.03009E+04  8.75664E+03  1.52045E+04 -1.38404E+03  2.01513E+04 -6.11061E+03  7.29360E+03
 -7.62096E+03  2.72937E+03 -1.61454E+04 -1.01738E+04 -2.16597E+03 -1.44430E+04  9.61416E+03 -1.52696E+04
  1.51777E+04 -7.66373E+03  1.01923E+04  5.75173E+03  7.86096E+03  5.40657E+03  5.37266E+03  2.50075E+03
  4.53446E+03  4.95373E+03  1.08918E+04 -3.19990E+03  3.50148E+03  8.42687E+03  5.81910E+03  1.75231E+04
 -6.23500E+03  1.12729E+04 -1.21996E+04  1.36719E+04 -1.41559E+04  5.79923E+03 -2.61681E+04 -8.49879E+03
 -7.59388E+03 -1.49589E+04  8.96504E+02 -2.18158E+04  7.73922E+03 -1.33140E+04  1.54602E+04 -5.79069E+03
  9.14587E+03  1.22996E+04  3.95948E+01  1.13088E+04 -3.32440E+03  5.46945E+03 -9.48844E+03  2.49669E+03
 -5.57321E+03 -3.34716E+03  2.18268E+03 -1.04007E+04  2.66582E+03 -2.54387E+03  5.12907E+03 -5.14042E+01
  8.64948E+03  4.16757E+03 -4.49806E+02  2.39179E+03 -2.34257E+03  1.58054E+02 -1.20656E+02 -1.73585E+03
 -2.66410E+03 -4.39595E+03  1.23517E+04  5.94109E+03  5.46135E+03  1.71432E+04 -4.39207E+03  1.29355E+04
 -9.44622E+03  1.25986E+04 -1.15901E+04  7.15561E+03 -1.19203E+04 -6.71746E+03 -2.43124E+03 -5.61093E+03
 -7.44205E+02 -4.48361E+03  6.96226E+03 -6.35569E+03  2.61646E+03  1.23990E+02  2.88345E+03  7.64674E+03
 -1.21154E+04  1.38956E+03 -6.99099E+03 -6.78523E+03 -6.74092E+03 -1.12616E+04 -1.72191E+03 -1.09404E+04
  8.68199E+03 -1.10524E+04  1.01255E+04 -3.89058E+03  5.52055E+03 -4.69398E+01 -7.24840E+03  4.25927E+03
 -2.01529E+03  1.00424E+04 -1.08831E+04 -7.37629E+03  8.52992E+03 -4.99949E+03  1.77364E+04 -7.18724E+03
  1.24793E+04  2.30983E+02  1.06830E+04  4.56591E+03  3.99797E+03  1.70571E+04 -6.95279E+02  4.48170E+03
 -1.10931E+04 -1.58992E+03 -1.22219E+04 -8.35460E+03 -1.08423E+04 -7.95248E+03  3.77514E+03 -9.80773E+03
  6.11500E+03 -1.23676E+03  4.89277E+03  6.74116E+03  8.43819E+02  5.49335E+03  2.47328E+03  4.90402E+03
 -1.08841E+03  4.61772E+02  4.48605E+02 -4.56873E+03  1.44679E+03  4.05272E+03 -4.50149E+03  2.40917E+03
 -6.85842E+03  3.22858E+03 -5.05253E+03  4.69758E+03 -7.53281E+03  3.02904E+03 -1.20070E+04 -1.05378E+04
 -7.89377E+03 -1.81090E+04  5.88153E+03 -2.20033E+04  7.76445E+03 -1.00793E+04  1.23860E+04  2.27279E+03
  1.10873E+04  2.48296E+03  8.90337E+03  1.65503E+04 -1.02661E+03  9.65657E+03  6.68209E+02  3.89456E+03
 -4.86010E+03 -2.09425E+02  1.79622E+03 -6.94579E+03  2.13846E+02  8.77819E+02  1.39203E+03  5.60719E+01
  1.06891E+03 -3.80450E+03  1.09948E+02 -1.49997E+03 -1.11259E+04 -4.01273E+03  8.67957E+02 -2.76405E+03
  4.86337E+03 -6.06389E+03  1.02959E+03  2.44823E+03  2.14005E+03  1.43596E+03  4.32894E+03  1.31117E+04
 -3.12414E+03  1.68604E+04 -1.69003E+04  4.70087E+03 -2.13438E+04  4.43932E+03 -1.07934E+04 -1.09800E+04
 -1.01689E+03 -1.48666E+04  9.75522E+03 -1.73359E+04  3.89531E+03 -1.41239E+02  2.49901E+03  1.61212E+03
  4.03205E+03  6.74056E+03 -1.74859E+03  4.53735E+03 -2.77436E+03  2.90233E+02  6.14912E+02 -1.00551E+04
 -2.91067E+03  1.07329E+02  9.84809E+03 -8.62905E+02  7.34742E+03  5.26827E+03  2.60428E+03  6.80240E+03
 -7.23397E+03  1.28682E+04 -6.75923E+03 -8.55748E+02 -4.71428E+03 -3.05807E+03 -2.40431E+03 -1.25067E+04
  1.38454E+04 -1.25769E+04  6.44885E+03 -1.27527E+03  7.73376E+03  3.70687E+03  1.17276E+04  1.28548E+04
  4.39611E+03  1.63964E+04 -5.62676E+03  3.45296E+03 -3.68043E+03 -1.73830E+00 -7.39681E+03 -3.65436E+03
 -6.64147E+03 -3.77565E+02 -1.15078E+04  3.10833E+02  8.69704E+02 -1.06295E+02 -8.55585E+03  1.50470E+03
 -6.14623E+03 -6.25021E+03 -4.19607E+03 -6.78044E+03  6.67671E+03 -7.01940E+03  6.47645E+03 -7.57190E+03
  7.50568E+03 -1.40951E+03  6.66067E+03  5.99500E+03  4.15852E+03  1.27442E+04 -9.72169E+03  5.75618E+03
