 $NMID ID='MM_0lb_SNR50_11hz_g45_25.RAW', FMTDAT='(8E13.5)'
 TRAMP=1., VOLUME=1. $END
  3.12376E+05  1.21939E+03  3.39262E+05  2.52812E+05  9.00384E+04  3.40532E+05 -1.35053E+05  2.59217E+05
 -1.87652E+05  8.37693E+04 -1.14197E+05 -2.93048E+04  9.24479E+02 -5.34073E+04  6.28634E+04  8.37099E+02
  3.09157E+04  5.54083E+04 -1.68298E+04  7.58439E+04 -6.39599E+04  6.62188E+04 -7.91999E+04  3.05289E+04
 -8.33350E+04 -1.06318E+04 -5.89050E+04 -5.10492E+04 -2.07502E+04 -7.16176E+04  3.06809E+04 -4.56201E+04
  3.68489E+04  6.90287E+03  2.32506E+04  4.56085E+04 -3.61884E+04  4.68504E+04 -7.32828E+04 -1.06238E+02
 -5.88089E+04 -5.83773E+04 -4.54386E+03 -8.26135E+04  3.11443E+04 -5.69291E+04  4.61508E+04 -2.26191E+04
  4.30234E+04  1.44666E+04  2.86451E+04  2.53681E+04  1.22273E+04  2.87361E+04 -5.35136E+03  3.23361E+04
 -2.24687E+04  1.06204E+04 -1.96669E+04 -2.51448E+03  2.19864E+03 -9.77793E+03  2.85006E+04  1.58173E+04
  6.12808E+03  3.48785E+04 -3.06239E+04  3.62790E+04 -6.30040E+04 -3.44398E+03 -5.64435E+04 -4.52247E+04
 -1.21048E+04 -6.16816E+04  4.21924E+04 -4.87270E+04  5.92735E+04 -4.59469E+03  3.78936E+04  3.37785E+04
 -9.59879E+03  4.03919E+04 -2.47086E+04  2.21596E+04 -2.62288E+04  8.71054E+02 -1.58796E+04 -1.36839E+04
 -5.19721E+03 -1.14657E+04 -3.27698E+03 -1.93671E+04  5.18848E+03 -2.45089E+04  1.64538E+04 -1.18893E+04
  7.82860E+03  8.21549E+03 -3.61773E+03  1.08837E+04 -1.74360E+04 -9.18805E+03 -1.14687E+04 -3.38106E+04
  2.05140E+04 -4.47533E+04  4.84591E+04 -1.88172E+04  4.68866E+04  1.50422E+04  1.15822E+04  3.91188E+04
 -1.23736E+04  3.50985E+04 -2.35315E+04  2.36766E+03 -1.08703E+04 -2.68388E+04  2.10362E+04 -3.53606E+04
  4.65207E+04 -7.24060E+03  3.37779E+04  2.11627E+04  1.73969E+04  5.20543E+04 -1.31949E+04  4.92828E+04
 -3.46976E+04  3.87820E+04 -4.40434E+04  1.05022E+04 -4.22494E+04 -2.22771E+04 -2.12878E+04 -4.18229E+04
  1.08064E+04 -3.89688E+04  3.88312E+04 -1.53390E+04  2.99592E+04  1.15558E+04  7.04474E+03  2.19921E+04
 -1.15471E+04  1.33951E+04 -1.30948E+04 -1.04202E+04  3.81070E+03 -1.56889E+04  2.14387E+04  9.01971E+03
  1.43860E+04  2.53261E+04  1.52523E+03  2.49258E+04 -1.96466E+04  1.71079E+04 -3.08534E+04 -2.75326E+03
 -2.69468E+04 -1.46644E+04 -9.63271E+03 -2.23541E+04  4.04990E+03 -2.33111E+04  1.75777E+04 -1.64032E+04
  3.00325E+04 -1.64760E+04  3.47549E+04  3.45078E+03  3.11093E+04  2.19636E+04  6.50369E+03  3.94394E+04
 -2.26966E+04  2.96402E+04 -3.01674E+04  1.23035E+04 -1.99674E+04 -9.03066E+03 -1.04362E+03 -1.28562E+04
  3.67048E+03  2.84875E+03 -2.43653E+03  4.79956E+03 -1.43062E+04  4.11767E+03 -2.09388E+04 -1.02676E+04
 -1.14165E+04 -2.63925E+04  4.78264E+03 -2.44780E+04  1.71226E+04 -1.97186E+04  1.96586E+04 -1.00338E+03
  1.81612E+04  1.32412E+04 -1.92932E+03  1.95895E+04 -2.00758E+04  1.58698E+04 -2.15658E+04 -2.76157E+03
 -1.82590E+04 -2.19574E+04  3.60415E+03 -2.44529E+04  1.36625E+04 -2.06447E+04  2.11888E+04 -9.68624E+03
  2.27796E+04 -6.18559E+02  1.33077E+04  4.63451E+03  9.53765E+03 -2.17650E+03  6.60590E+03 -5.47087E+03
  2.45547E+04 -3.13038E+02  2.73002E+04  1.51094E+04  1.96398E+04  3.71354E+04 -1.98999E+03  3.85860E+04
 -2.24245E+04  2.84504E+04 -4.50759E+04  1.29478E+04 -4.29030E+04  1.39264E+03 -2.59030E+04 -2.53927E+04
 -1.43160E+04 -2.95196E+04  9.69917E+03 -2.39286E+04  2.64950E+04 -1.70556E+04  1.90253E+04  7.50864E+03
  1.30097E+04  1.31713E+04 -6.08465E+03  8.95349E+03 -1.55884E+04 -3.01467E+01 -1.87891E+04 -9.60137E+03
  1.97193E+03 -1.50734E+04  1.40445E+04 -1.11077E+04  8.79856E+03 -5.51256E+03  3.15771E+03  9.13415E+03
 -1.03107E+04 -2.74989E+03 -9.22894E+03 -3.46706E+03 -2.40597E+03 -2.36946E+04  1.04552E+04 -1.33668E+04
  2.69289E+04 -1.18017E+04  1.82731E+04  6.81517E+03  2.16974E+04  1.80718E+04  3.36077E+03  3.12460E+04
 -5.99927E+03  2.54811E+04 -1.83272E+04  1.90834E+04 -1.87899E+04  6.98873E+03 -1.06408E+04 -7.03177E+03
 -8.84248E+03  1.46927E+03 -2.98718E+03  4.45106E+03 -3.12707E+03  2.35013E+03  3.89633E+01  1.74498E+03
 -1.37993E+04 -2.21800E+03 -7.12232E+03 -9.69128E+03 -7.30540E+02 -2.04787E+04  6.20477E+03 -1.45544E+04
  1.24288E+04 -4.09255E+03  9.40614E+03  5.49367E+03  4.25267E+02  7.97040E+03 -4.94247E+03 -1.00035E+03
 -9.22130E+03 -1.16861E+04 -3.11032E+03 -1.53825E+04  8.65283E+03 -1.08600E+04  1.71911E+04 -4.46129E+03
  2.32696E+04  3.29964E+03  9.39253E+03  1.13783E+04 -5.70989E-01  1.38392E+04 -1.44604E+04  1.58145E+04
 -9.39107E+03  3.86972E+03 -3.72672E+03 -8.02086E+02  5.58781E+03  3.34836E+03  1.22061E+04 -3.91498E+03
  2.98294E+03 -4.05691E+01  4.27550E+03  3.26379E+03 -1.47102E+04  5.89626E+03 -1.36767E+04  4.16327E+02
 -5.68092E+03 -1.56655E+04 -4.46653E+03 -9.03820E+03  8.50037E+03 -4.85191E+03  1.01254E+04  4.93087E+03
  4.05413E+03  9.64890E+03 -7.16264E+03  6.48424E+03 -1.27444E+04  3.55952E+03 -9.73769E+03 -8.73407E+02
 -4.63075E+03 -1.48247E+04  3.83660E+02 -7.31108E+03  1.46524E+04 -1.75201E+04  1.02879E+04  2.92698E+03
  4.14867E+03  1.19295E+04 -4.61133E+02  1.46382E+04 -1.12929E+04  4.79370E+03 -1.02376E+04 -4.47975E+03
 -8.05721E+03 -1.41238E+04 -2.64325E+02 -6.13089E+03  8.15295E+03 -7.32592E+03  4.46053E+03  4.18055E+03
  5.06554E+03 -1.44151E+03 -2.92998E+03  3.87510E+03 -3.41693E+03 -1.45415E+03 -2.33869E+03 -7.66306E+03
  2.30959E+03 -4.90836E+03  1.42339E+04 -2.95057E+03  9.28418E+03  3.58439E+03  9.07298E+03  1.83561E+04
 -4.69413E+03  1.82427E+04 -1.47503E+04  1.27714E+04 -1.52402E+04 -8.35504E+02 -1.38634E+04 -1.19786E+04
 -7.57849E+03 -1.69325E+04 -4.72273E+03 -1.19384E+04  1.00450E+04 -9.98746E+03  1.34750E+03 -2.28423E+03
  2.00227E+03 -4.95535E+03  4.81599E+03 -1.45750E+03  6.15577E+03 -4.81482E+03  5.94915E+03 -1.55728E+03
  5.74886E+03  7.03579E+03  2.32430E+03  6.45047E+02 -9.41635E+02  5.47050E+03 -6.39922E+03  9.15192E+03
 -8.58506E+03 -4.76454E+03 -7.24548E+03 -1.75974E+03 -2.92350E+03 -1.28498E+04  8.55032E+03 -8.32094E+03
  1.45827E+04 -6.92518E+03  1.60188E+04  7.31087E+03  4.95764E+03  1.15450E+04  7.50346E+03  1.42657E+04
 -1.07990E+04  1.13346E+04 -1.07616E+04  1.53032E+03 -6.39250E+03 -6.49696E+02 -2.70025E+03 -2.20527E+03
 -6.09907E+03 -5.01632E+03  8.77976E+02 -4.97152E+03 -3.74468E+03 -3.07582E+02 -1.08582E+04 -8.62066E+02
 -6.34629E+02 -9.72846E+03  5.55717E+01 -1.21132E+04  1.00754E+04 -7.42748E+03  1.28534E+04  3.57076E+03
  9.08548E+03  1.08360E+04  8.26617E+03  1.26274E+04 -6.20963E+03  1.25590E+04 -1.13427E+04  8.47526E+03
 -9.08987E+03  6.46444E+03 -1.09647E+04 -7.54883E+03 -1.90042E+03 -4.68448E+03  4.83473E+03 -1.45763E+04
  2.30244E+03 -3.15152E+02  7.78543E+03  2.10955E+03  3.30190E+03  3.47770E+03  3.35690E+03  5.07912E+01
  1.61739E+03  3.97551E+03 -9.68978E+02  3.79363E+03  1.21546E+03  1.89794E+03  5.55701E+03  5.69139E+03
 -1.21293E+03  1.45744E+04 -7.41068E+03  8.31310E+03 -8.35664E+03  1.01525E+03 -1.41987E+04 -4.99734E+03
 -3.14808E+03 -1.24816E+04  1.23407E+03 -8.65750E+03  4.56042E+03 -2.29503E+03  1.67303E+04  1.32498E+03
  1.22765E+03  1.16644E+03 -2.57978E+02  5.56056E+03 -3.43729E+03  4.23920E+03 -1.58679E+03  2.54695E+03
 -4.86480E+03 -1.05931E+04  1.79543E+03 -5.08263E+03  5.92413E+03 -8.81816E+03  7.84719E+02  5.61692E+03
  3.01349E+03  2.51937E+03 -2.41865E+02  2.07072E+03 -7.09426E+03  7.98628E+02  2.45713E+03  4.27786E+03
 -1.90651E+03 -1.49436E+03  4.95436E+03  2.99869E+03 -1.42607E+03  3.70025E+03 -2.94371E+03  1.06641E+04
 -7.87345E+03 -1.65768E+03 -9.79001E+03  1.49153E+03 -6.79062E+03 -3.31609E+03  9.61531E+02 -6.50100E+03
 -1.15039E+02 -1.46551E+03  1.39654E+03 -3.57566E+03  3.97649E+02  6.20604E+03  2.93180E+03  4.76392E+03
 -5.96944E+03  6.55388E+03 -5.54712E+03 -3.93860E+03 -2.01567E+03 -6.64837E+03  4.15149E+03 -5.66093E+03
  6.96387E+03 -3.97865E+03  6.24004E+03 -6.99558E+02  8.71327E+03  7.02004E+03  2.51138E+03  7.65105E+03
 -3.97391E+01 -1.97024E+03 -4.24678E+03  1.89767E+03 -1.43141E+03 -3.02394E+03  3.77632E+03 -3.25706E+03
  7.72415E+03  3.00356E+03  9.42769E+03  4.72475E+03  7.49537E+03  5.69738E+03  1.18203E+03  7.71574E+03
 -3.53183E+03  1.04388E+03 -5.96466E+02  2.71784E+03 -5.43464E+03 -8.05969E+03 -3.14130E+03 -7.86981E+03
  7.57296E+03 -5.43409E+03  5.42337E+03  3.53141E+03  3.74178E+03  2.08581E+03 -1.61668E+03  1.12401E+03
 -1.21148E+02  9.34421E+03  7.99500E+02 -6.30300E+02  1.12861E+03  2.25460E+03 -6.77880E+03 -2.30261E+03
 -6.77587E+03 -1.78791E+03 -4.88106E+03  8.02030E+03 -2.24796E+03 -4.30886E+02 -9.03453E+03 -7.45310E+03
 -1.54169E+03 -1.30388E+04  1.35046E+02 -9.24847E+03  4.73343E+03 -1.55500E+04  1.57812E+04 -2.53347E+03
  8.83796E+03  2.46509E+03  2.59383E+03  6.14198E+03 -7.00987E+02  2.34197E+03  5.48133E+02  4.95761E+03
 -4.20470E+03 -2.51448E+03 -9.80799E+02  4.51906E+03 -1.59099E+03 -5.80297E+02 -3.14677E+03  1.43882E+03
 -7.18479E+03 -4.35796E+03  6.75944E+03 -3.19411E+03 -2.20128E+03  8.71603E+02 -4.71769E+03 -3.45492E+03
  3.21642E+03 -8.44224E+03  8.25480E+03 -3.67670E+02  4.71946E+03  3.05369E+03 -1.55825E+03  2.43532E+02
 -3.90671E+03  6.41809E+03 -3.76621E+03  5.70301E+03 -5.64458E+03 -5.35523E+03 -6.13171E+03 -9.70134E+03
  9.07609E+02 -6.45019E+03  2.84810E+02 -5.44147E+03  4.77264E+03 -2.68133E+03  1.05994E+04 -2.46771E+03
  2.51429E+03  4.67781E+03  4.47214E+03 -3.73605E+03  1.18283E+03  2.28319E+03  3.12560E+03 -3.26738E+02
 -1.18884E+03 -9.67718E+02 -6.53527E+03  6.85876E+03 -2.86007E+03 -3.59981E+03  6.72468E+03  7.82910E+03
 -6.94244E+03  5.87494E+03 -5.59315E+03  7.66827E+02 -3.77794E+03 -9.58062E+03  1.10836E+03 -4.70803E+03
  8.89572E+01 -3.64338E+03  2.10550E+03 -1.40630E+03  6.29964E+03  3.85270E+03  8.98406E+02  2.64981E+03
  2.40756E+02  3.90295E+03 -3.97173E+03  1.73148E+03 -3.84453E+03 -1.00416E+03 -3.73878E+03 -1.97027E+03
  4.95219E+03 -5.59006E+03 -2.36688E+03 -5.86716E+02 -5.05118E+03  8.60273E+02 -2.22497E+03  2.46914E+03
 -4.33092E+03  2.66859E+03  1.72740E+03 -5.54288E+03  2.90107E+03 -6.80223E+03  9.88997E+03 -9.54463E+03
  5.36924E+03  1.08284E+03 -3.10801E+03  8.40989E+03  2.14705E+03 -1.49431E+03 -7.82000E+02  2.30721E+03
