 $NMID ID='MM_0lb_SNR50_14hz_g60_89.RAW', FMTDAT='(8E13.5)'
 TRAMP=1., VOLUME=1. $END
  3.05141E+05 -2.28524E+03  3.39373E+05  2.52576E+05  8.17874E+04  3.38611E+05 -1.35040E+05  2.50083E+05
 -1.89808E+05  7.86391E+04 -1.12235E+05 -3.33674E+04 -4.11617E+03 -5.34838E+04  5.20517E+04  1.97734E+03
  3.21499E+04  5.09042E+04 -1.74850E+04  7.59838E+04 -6.34514E+04  6.83109E+04 -8.50840E+04  3.73371E+04
 -8.36210E+04 -9.25066E+03 -5.62799E+04 -5.13263E+04 -1.27620E+04 -7.15111E+04  2.74015E+04 -4.47561E+04
  4.19364E+04  4.82410E+02  1.61584E+04  5.22552E+04 -3.35436E+04  4.20910E+04 -6.60091E+04 -1.56888E+02
 -5.39810E+04 -6.17289E+04 -1.08488E+04 -7.56383E+04  3.67626E+04 -5.88498E+04  4.59436E+04 -1.34502E+04
  4.40717E+04  1.33899E+04  3.38323E+04  1.93620E+04  1.13777E+04  2.97680E+04 -7.10020E+03  2.80672E+04
 -2.19544E+04  1.10475E+04 -1.45707E+04 -2.23018E+02  4.23494E+03 -5.53058E+03  2.38805E+04  1.29761E+04
  1.03189E+04  3.85710E+04 -3.42998E+04  2.89060E+04 -6.32871E+04  2.78600E+03 -5.56307E+04 -4.33529E+04
 -1.48283E+04 -5.88782E+04  4.17038E+04 -4.45752E+04  6.06398E+04  4.76639E+02  3.70896E+04  2.89268E+04
 -5.50901E+03  3.78986E+04 -3.24254E+04  1.86283E+04 -2.90449E+04 -5.13258E+03 -1.91063E+04 -1.15231E+04
 -3.94366E+03 -1.58466E+04 -2.98895E+03 -1.34415E+04  4.19121E+03 -2.14075E+04  1.66130E+04 -1.61475E+04
  9.56503E+03  7.41073E+03 -9.04168E+03  1.29385E+04 -1.92962E+04 -2.65790E+03 -9.46093E+02 -3.81668E+04
  1.86032E+04 -4.19998E+04  5.14631E+04 -2.52790E+04  4.28921E+04  2.49019E+04  1.71446E+04  4.22649E+04
 -1.52504E+04  3.19898E+04 -2.66381E+04  5.50932E+03 -5.93057E+03 -2.55726E+04  1.94187E+04 -3.76471E+04
  3.84501E+04 -9.37101E+03  3.62054E+04  1.93851E+04  1.99530E+04  4.76315E+04 -7.17803E+03  5.30454E+04
 -3.25530E+04  3.45457E+04 -4.06787E+04  1.74401E+04 -4.25514E+04 -1.68382E+04 -2.47794E+04 -3.86647E+04
  1.33526E+04 -4.04445E+04  3.50849E+04 -1.55054E+04  3.08593E+04  4.79934E+03  2.54153E+03  2.50931E+04
 -1.46572E+04  9.27429E+03 -1.01431E+04 -1.05735E+04  8.24107E+03 -1.80009E+04  1.52722E+04  4.34038E+03
  1.35128E+04  2.56660E+04 -8.06660E+03  2.35197E+04 -1.99776E+04  1.57721E+04 -2.58400E+04 -1.48080E+03
 -2.90907E+04 -1.47403E+04 -8.96491E+03 -1.94578E+04  5.09624E+03 -2.13856E+04  1.64415E+04 -1.70174E+04
  2.56906E+04 -1.38835E+04  3.62278E+04  6.33517E+03  2.62567E+04  2.24840E+04  3.45661E+03  3.89406E+04
 -2.06600E+04  2.56008E+04 -2.95727E+04  5.62765E+03 -2.07897E+04 -1.01281E+04 -2.21190E+03 -1.37564E+04
 -1.79823E+02 -4.08560E+02 -5.02824E+03  1.01460E+04 -1.48106E+04  2.77118E+03 -1.32289E+04 -8.65228E+03
 -1.20500E+04 -2.28446E+04  7.44295E+03 -2.82573E+04  1.51711E+04 -1.27386E+04  1.88725E+04  1.77344E+03
  9.10412E+03  1.23812E+04 -4.98232E+03  1.84495E+04 -1.15145E+04  1.40359E+04 -1.89410E+04 -2.09744E+03
 -1.68750E+04 -1.84438E+04 -3.43931E+03 -2.73475E+04  8.32667E+03 -2.06630E+04  2.08957E+04 -1.09794E+04
  1.92256E+04 -1.45688E+03  8.18846E+03  3.63901E+03  6.66829E+03  1.82260E+03  1.30413E+04 -1.86727E+03
  1.79955E+04  8.34582E+02  2.22244E+04  1.69992E+04  1.43103E+04  3.60381E+04 -3.66621E+03  3.83753E+04
 -2.20912E+04  3.32461E+04 -3.21318E+04  1.42459E+04 -3.42931E+04 -1.95689E+03 -3.35961E+04 -1.99292E+04
 -1.03314E+04 -2.34087E+04  1.06863E+04 -2.86533E+04  2.46126E+04 -1.36677E+04  1.76902E+04  3.93144E+03
  1.36412E+04  1.76824E+04 -9.33222E+03  1.61004E+04 -2.04683E+04  4.74871E+03 -1.37159E+04 -1.12446E+04
  1.91886E+03 -1.57652E+04  5.02957E+03 -8.52459E+03  1.58232E+04  3.73440E+03  2.21614E+03  1.03250E+04
 -6.35957E+03  2.83370E+03 -5.31129E+03 -9.73567E+03 -7.01387E+01 -1.91856E+04  1.02765E+04 -1.41874E+04
  2.29373E+04 -6.76722E+03  2.05221E+04  1.43440E+03  1.83507E+04  1.02220E+04  7.49377E+03  1.60856E+04
 -8.72746E+03  2.64963E+04 -1.25167E+04  1.35479E+04 -1.66396E+04  1.88378E+03 -1.24465E+04 -4.66558E+03
 -5.97965E+03 -4.54455E+03  1.89494E+03  2.93344E+02 -2.38533E+03 -3.36206E+02 -2.82863E+03  9.49880E+03
 -1.09032E+04 -4.17882E+03 -8.94122E+03 -8.33771E+03 -4.30999E+03 -1.54378E+04  5.33143E+03 -1.69876E+04
  1.01415E+04 -5.07777E+03  5.78019E+03  9.10215E+03  2.02964E+03  5.39877E+03 -6.06895E+03 -2.72909E+03
 -1.96899E+03 -7.20441E+03 -5.75892E+03 -1.62609E+04  7.30260E+03 -1.16803E+04  1.31083E+04 -7.04701E+03
  1.78084E+04  1.45876E+03  1.29461E+04  7.23813E+03  1.15998E+03  1.44376E+04 -6.98728E+03  1.38188E+04
 -5.73122E+03  7.96056E+03 -4.70346E+03 -3.12047E+03  7.72540E+03 -2.30196E+03  1.00867E+04 -6.93875E+02
  7.88639E+03  7.47677E+03  7.08535E+03  9.86472E+03 -8.34959E+03  4.92925E+03 -1.46342E+04  4.01557E+03
 -4.39788E+03 -4.51873E+03 -8.17126E+02 -7.54784E+03  1.06358E+04 -6.18554E+03  5.86165E+03  5.17387E+03
  2.98760E+03  6.42033E+03 -6.61855E+03  8.07616E+03 -1.11094E+04  1.09068E+03 -1.05701E+04 -4.03862E+03
 -6.24437E+03 -1.48642E+04  4.25988E+03 -7.42737E+03  7.31045E+03 -5.65360E+03  1.23834E+04  1.01394E+03
  3.62888E+03  1.06129E+04  1.72836E+02  1.22372E+04 -8.19787E+03  6.31896E+03 -1.22065E+04 -5.69920E+02
 -5.04977E+03 -9.06475E+03  1.36885E+03 -5.85482E+03  1.73275E+03 -8.04180E+03  6.25567E+03 -6.16780E+03
  7.02523E+03  2.25388E+03  2.99453E+03  2.98357E+03  1.97700E+03 -1.98613E+03 -1.28326E+03 -1.73414E+03
  7.73507E+03 -1.05727E+04  1.12695E+04 -3.19843E+03  6.87927E+03  5.05425E+03  7.20121E+03  1.54028E+04
  3.20557E+03  1.61830E+04 -9.72965E+03  9.16916E+03 -2.25978E+04 -9.18882E+02 -1.71212E+04 -1.12570E+03
 -1.03043E+04 -1.28807E+04 -1.84161E+02 -1.07517E+04  2.21983E+03 -5.38675E+03  5.02844E+03  2.34364E+03
  3.99805E+03 -4.73872E+03  6.04782E+03 -2.63487E+03  4.44357E+03  6.13663E+02  4.45064E+03 -1.22598E+03
  1.94736E+03  1.52859E+03  4.92046E+03  8.73053E+03 -2.34637E+03  8.88920E+03 -8.99900E+03 -6.79762E+02
 -7.53788E+03 -8.81975E+02 -6.78807E+03 -1.02577E+04 -5.01689E+03 -6.59851E+03  3.12788E+02 -7.31235E+03
  1.25917E+04 -5.41721E+03  1.21903E+04  4.89141E+03  1.62757E+04  9.40413E+03 -1.17118E+03  7.09316E+03
 -7.27223E+03  5.97136E+03 -5.90610E+03  4.18624E+03 -5.68566E+03  4.03186E+03  2.33008E+03  4.88896E+01
 -7.79581E+02 -1.71288E+03 -3.78218E+03  8.38632E+02 -1.64176E+03  2.56365E+03 -6.53989E+03 -2.29067E+03
 -2.45689E+03 -7.21561E+03 -1.26501E+03 -1.41278E+04  1.71017E+03 -8.46888E+03  5.68140E+03  3.78453E+03
  8.00482E+03  6.95483E+02  7.28549E+03  6.54705E+03  8.63129E+02  7.02584E+03 -3.71344E+03  3.05252E+03
 -2.10534E+03  3.18411E+03 -7.22446E+03 -5.46131E+03  1.65477E+03 -5.54977E+03  4.44978E+03 -6.20912E+03
  4.16233E+03 -4.67625E+03  2.23799E+03 -7.61166E+02  6.70048E+02  5.46092E+03  2.16552E+03  4.04599E+03
 -1.08053E+02  3.62924E+03  5.48334E+03 -2.33678E+02  2.56450E+02 -1.51508E+03  2.61219E+03  8.36510E+02
 -4.05038E+03  2.76298E+03 -5.88416E+03  7.35411E+03 -7.90815E+03 -2.22544E+03 -1.04719E+04 -1.03075E+03
 -2.11139E+03 -7.71027E+03  1.92151E+03 -1.39295E+04 -3.78883E+03 -4.45531E+03  5.43016E+03 -3.94508E+02
  3.13975E+03  4.96679E+03  2.53960E+03  6.97137E+03  4.97804E+02  3.51066E+03 -1.56368E+03  2.18496E+02
 -1.13394E+03 -2.66151E+03 -1.01654E+03 -4.86979E+03  4.03203E+03 -3.17488E+02 -1.67766E+03 -2.09823E+03
 -1.28969E+03  7.36644E+03  2.73314E+02  3.82227E+03  3.07492E+03  2.71534E+03 -3.69417E+03  4.63070E+03
 -1.17378E+03  5.30077E+03  4.72930E+01  6.11115E+03 -4.05736E+02  8.52661E+03 -1.87315E+03  3.91303E+03
 -8.20825E+03  1.01945E+03 -4.02474E+03 -1.01749E+03 -2.43720E+03  1.16089E+03  1.45658E+03 -1.11935E+03
 -5.35198E+03 -2.58036E+03 -1.90700E+03  6.00204E+02  5.81281E+03  7.96790E+02 -2.53806E+02  7.88600E+02
  2.70341E+02  6.11580E+02 -2.88594E+03 -5.26858E+03 -6.03354E+02 -8.58263E+03 -4.50107E+03 -9.81507E+02
  8.76362E+03 -2.60469E+03  6.71780E+02 -4.79051E+02 -3.43738E+02  2.57616E+03 -2.60176E+02  1.45221E+03
 -6.41683E+01 -2.17384E+03 -3.08175E+02  1.25758E+03  1.27923E+03 -2.43840E+03  4.79859E+03 -8.59484E+02
  6.75631E+02  1.78062E+03  1.04930E+04  1.54352E+03  4.66165E+03  6.23912E+03  2.95151E+01  9.29079E+02
 -2.42027E+03  2.64271E+03 -2.35514E+03 -1.37177E+03 -7.21201E+01 -4.29652E+03 -5.52817E+02 -6.61912E+03
  5.34043E+03 -1.29913E+03  4.42042E+03  4.00851E+03  2.34244E+03  2.59703E+03 -3.12898E+03  1.53253E+03
 -5.28287E+03  2.09595E+03 -2.59964E+03 -9.16558E+02  2.68400E+03 -3.22461E+02  6.33116E+02  3.91903E+03
  1.70583E+03  3.53277E+03 -1.63955E+03  2.35163E+03 -2.06069E+03 -1.50556E+03 -8.59803E+03 -4.99425E+03
 -3.81736E+03 -6.90721E+03  1.88988E+03 -3.89133E+03  5.27155E+03 -7.10306E+03  8.08820E+03 -5.37626E+03
  3.03690E+03  1.52646E+03  5.73312E+03  5.97069E+03  3.69472E+03  5.01826E+03 -1.90157E+03  2.06232E+03
 -2.42022E+03  1.62602E+02 -2.87285E+02 -5.86214E+03 -9.98831E+02  2.13926E+03 -5.40404E+02 -2.45391E+03
 -2.09340E+03  9.03369E+02  1.90280E+03 -3.56703E+03  1.89463E+03  1.45292E+03  6.19364E+02 -3.56452E+03
  1.36692E+03  5.99883E+03  1.60744E+03  3.18140E+03  6.82240E+03  4.73731E+03  3.43339E+03  5.83230E+03
  2.93898E+02 -9.45976E+02  1.78295E+03  4.37422E+03 -8.57265E+03 -1.75798E+03 -6.79150E+03 -4.41732E+03
  6.13385E+02 -2.52643E+03  6.82517E+02 -1.52241E+03  4.17136E+03 -6.90722E+03  6.47135E+03 -3.13079E+03
 -1.44577E+03  5.15549E+02 -5.93059E+03  7.52500E+03 -2.26487E+03  2.03609E+02 -3.69703E+03  2.33446E+03
  8.27965E+02  3.89873E+03  1.42154E+03 -1.64123E+03  2.73483E+02  4.69227E+02  2.62595E+03  8.97464E+02
 -4.61109E+03 -7.21671E+02 -7.91804E+03 -2.49492E+03 -5.46550E+03 -4.51149E+03 -2.93394E+03  3.01729E+02
  2.17519E+03 -5.28288E+03  2.72824E+02 -3.82264E+03  2.04349E+03 -5.80344E+03  3.15950E+03  1.64512E+03
 -4.66443E+02  4.49218E+03 -1.30901E+03  3.04837E+03  7.73519E+02 -1.92372E+03  6.59235E+01 -1.06328E+02
  1.34832E+02  7.41576E+02  1.62949E+03 -7.38021E+03  4.03147E+02  1.88964E+03 -8.68180E+02  1.66015E+03
  2.63175E+03  1.57397E+02  2.28642E+03 -1.64675E+03  5.23885E+03 -6.46632E+03  4.06119E+03 -3.37206E+03
 -3.66197E+02 -1.58056E+03 -8.88766E+02  2.96040E+03 -8.00494E+02  3.35539E+02  2.61175E+03  7.61873E+02
