 $NMID ID='MM_0lb_SNR50_20hz_g45_3.RAW', FMTDAT='(8E13.5)'
 TRAMP=1., VOLUME=1. $END
  3.11607E+05 -1.09325E+03  3.36184E+05  2.48292E+05  8.08221E+04  3.35451E+05 -1.34396E+05  2.47700E+05
 -1.86794E+05  8.28423E+04 -1.09147E+05 -3.41573E+04  1.87208E+03 -5.10352E+04  5.15070E+04  4.75457E+02
  3.64504E+04  5.36497E+04 -1.66395E+04  8.02504E+04 -5.74267E+04  6.07510E+04 -8.02209E+04  2.92783E+04
 -8.29933E+04 -1.21601E+04 -5.46531E+04 -4.95116E+04 -1.65095E+04 -6.83369E+04  2.43799E+04 -4.48403E+04
  4.09126E+04 -1.68413E+03  1.46075E+04  4.85214E+04 -3.02525E+04  4.68338E+04 -6.56941E+04 -3.43300E+03
 -5.04196E+04 -5.49415E+04 -8.16953E+03 -7.52363E+04  3.36721E+04 -5.26652E+04  4.41377E+04 -1.71187E+04
  3.78729E+04  1.00917E+04  3.08693E+04  2.57257E+04  1.29636E+04  2.77715E+04 -8.93369E+03  2.38566E+04
 -2.00268E+04  1.18372E+04 -2.05903E+04 -4.09208E+03  3.86683E+03 -7.29420E+03  2.29757E+04  9.25950E+03
  7.50297E+03  3.22364E+04 -2.94773E+04  3.33902E+04 -6.18622E+04  1.13160E+04 -5.65508E+04 -3.94364E+04
 -1.00770E+04 -6.03612E+04  3.70386E+04 -4.03849E+04  5.82006E+04 -4.18628E+03  3.49722E+04  2.78221E+04
 -4.06885E+03  3.29584E+04 -3.08087E+04  9.58744E+03 -3.51108E+04 -9.21377E+03 -1.46668E+04 -1.00511E+04
 -9.88940E+03 -1.00001E+04 -1.50303E+03 -1.87321E+04  6.06186E+03 -2.17684E+04  1.14701E+04 -1.48406E+04
  1.15838E+04  6.71670E+03 -3.12975E+03  1.28674E+04 -1.98537E+04 -4.52592E+03 -8.66523E+03 -2.92428E+04
  2.12187E+04 -4.02626E+04  4.39512E+04 -1.67458E+04  4.37451E+04  1.67387E+04  1.38683E+04  3.65918E+04
 -1.34272E+04  2.87954E+04 -2.05854E+04 -3.62796E+03 -5.29523E+03 -2.78648E+04  2.31459E+04 -3.25754E+04
  3.90890E+04 -9.09468E+03  3.17797E+04  2.34155E+04  1.44378E+04  4.36967E+04 -8.71428E+03  4.38808E+04
 -2.80836E+04  2.69171E+04 -3.40896E+04  1.07424E+04 -3.46954E+04 -1.83381E+04 -1.90994E+04 -2.98089E+04
  9.53418E+03 -3.30250E+04  2.91539E+04 -1.32529E+04  2.65316E+04  1.12519E+04  6.33236E+02  1.72348E+04
 -1.17148E+04  4.33873E+02 -8.48705E+03 -4.71675E+03  8.12114E+03 -1.10902E+04  1.76026E+04  9.97064E+03
  1.11266E+04  1.94215E+04 -8.71545E+03  2.56828E+04 -2.50973E+04  6.72116E+03 -2.27808E+04 -7.50281E+03
 -2.06977E+04 -1.76067E+04 -8.88516E+03 -1.70705E+04  6.21413E+03 -1.68160E+04  1.33049E+04 -1.54415E+04
  1.89110E+04 -8.02177E+03  2.96127E+04  1.77199E+03  1.82694E+04  1.73637E+04 -6.13545E+02  3.23870E+04
 -1.42370E+04  2.87347E+04 -2.73261E+04  7.42291E+03 -1.90607E+04 -1.03915E+04 -1.85141E+03 -1.63136E+04
  3.19972E+03 -6.45777E+03 -4.18072E+03  3.79738E+03 -9.29666E+03  9.41530E+03 -1.11512E+04 -6.17788E+03
 -4.61730E+03 -1.33947E+04  4.32222E+03 -1.78580E+04  1.12684E+04 -1.55663E+04  1.25855E+04 -2.32261E+03
  2.50730E+03  9.38224E+03 -2.87712E+03  1.22420E+04 -6.53853E+03  7.03114E+03 -1.26463E+04 -4.55923E+03
 -1.15258E+04 -1.23032E+04 -3.22943E+03 -2.57544E+04  7.55941E+03 -1.36928E+04  1.83066E+04 -6.64728E+03
  1.52475E+04  4.75829E+03  6.08088E+03  4.86261E+03  8.06333E+03  3.03909E+03  7.83654E+03  1.00601E+03
  1.20086E+04  4.52164E+03  1.70903E+04  1.03206E+04  1.07072E+04  2.36136E+04 -4.65538E+03  2.29077E+04
 -1.20709E+04  1.74306E+04 -2.25567E+04  1.03166E+04 -1.90485E+04 -2.85131E+03 -2.05588E+04 -1.02085E+04
 -1.10781E+04 -1.63542E+04  4.36341E+03 -1.42267E+04  1.67521E+04 -1.10087E+04  1.03429E+04  5.24661E+02
  6.57863E+03  1.03992E+04 -5.42927E+03  9.61300E+03 -1.21528E+04  3.95611E+03 -1.50382E+04 -5.82917E+03
 -1.27879E+03 -1.38460E+04  6.96110E+03 -6.43970E+03  5.59323E+03 -1.37563E+03 -2.71371E+01  5.90423E+03
 -2.10497E+03 -1.00470E+03 -2.83462E+03 -4.01171E+03 -2.00084E+01 -6.49024E+03  7.19383E+03 -9.09354E+03
  7.30144E+03 -1.55987E+03  8.06820E+03  2.48259E+03  1.08023E+04  4.40722E+03  5.29619E+03  1.67676E+04
 -5.03605E+03  1.59680E+04 -8.10578E+03  7.68935E+03 -9.60252E+03  2.14411E+03 -8.09930E+03 -1.47481E+03
 -7.23959E+03 -4.10551E+02  2.88880E+03  3.87927E+03 -1.17854E+03  2.48255E+03 -4.21899E+03  6.85623E+03
 -7.89172E+03 -2.20193E+03 -1.17147E+04 -9.59754E+03 -4.51502E+03 -9.87216E+03  5.79528E+03 -6.74264E+03
  8.17258E+03 -1.26815E+03  8.32964E+03  3.23845E+03  2.02451E+03  9.41128E+03  1.99319E+03 -1.74086E+03
  2.88138E+03 -2.56337E+03 -2.96717E+02 -7.78206E+03  6.10005E+02 -3.31707E+03  7.12420E+03 -2.20003E+03
  1.02001E+04  7.06817E+03  1.11206E+04  6.52516E+03  7.07567E+03  5.01461E+03 -2.56268E+03  8.53401E+03
 -7.33002E+03  4.13833E+03 -2.46733E+03 -1.01156E+03  2.54531E+03 -5.60514E+03  4.70716E+03 -6.30113E+02
  6.69334E+03  2.14847E+03 -1.91318E+03  5.09528E+03 -1.32979E+03  5.61761E+03 -5.84314E+03  3.52350E+03
 -9.19278E+03 -4.08146E+03  1.18619E+03 -4.34235E+03  3.07836E+03 -3.89415E+03  3.02533E+03  4.79178E+01
  1.44827E+03  6.71245E+03 -5.13609E+03  3.96829E+02 -4.34672E+03  4.22851E+03 -3.85378E+03  6.40361E+02
 -2.10018E+03 -2.11790E+03 -5.85862E+02 -7.29591E+03  3.37158E+03 -3.39643E+03  5.29397E+03  3.23032E+02
  3.03531E+03  1.79435E+03  1.03120E+03  8.03771E+03 -6.03997E+03  8.72290E+03 -2.37336E+03 -4.05697E+02
 -9.32311E+03 -4.11301E+03  1.75485E+02 -4.15492E+03  2.36205E+03 -7.06273E+03  1.30110E+03 -1.80100E+03
  4.70077E+03 -3.91286E+03 -4.13634E+03  2.40587E+03  3.11269E+03 -1.27995E+03 -5.44043E+03  3.09856E+03
  6.29776E+03  1.81808E+03  2.22282E+03  3.81261E+02  5.70591E+03  9.28882E+02  2.44154E+03 -1.47406E+03
 -1.15575E+02  7.62779E+03 -4.74194E+03  4.91203E+03 -9.66307E+03  5.87153E+03 -1.81786E+03 -4.92516E+03
 -1.38114E+03 -8.70601E+03  6.25818E+02 -5.31792E+03  1.63499E+03  9.41457E+02  3.43305E+03 -1.25616E+03
  1.90245E+03  4.58571E+03 -1.03395E+03  9.11605E+02  6.31428E+03  3.41769E+02  8.04680E+02  3.24800E+03
  4.00695E+03 -1.39464E+03 -4.85364E+01  3.10800E+03 -1.86450E+02  4.47531E+03 -4.08991E+03 -1.28949E+03
 -2.79326E+03 -2.89766E+02 -5.44579E+03 -1.99978E+03  1.22112E+03 -4.54068E+03  1.37080E+03 -8.23640E+03
  3.94400E+03 -1.42574E+03  4.12623E+03  2.75987E+03  2.80777E+03  1.85222E+03  2.72383E+03  8.57394E+03
 -9.71484E+02  6.47504E+03 -2.45141E+03  3.57833E+03  1.65232E+03 -1.96300E+03 -2.12827E+03 -1.03007E+01
  1.67088E+03 -3.48383E+03  1.86488E+03  2.05779E+03  5.14750E+02 -1.32068E+03 -5.05094E+03  1.15401E+03
 -1.66332E+03 -2.22730E+03  3.76210E+03  2.11618E+03  7.30598E+03 -7.90868E+03  1.99903E+03 -1.59899E+03
  3.26733E+03  2.74940E+03 -3.19527E+03  2.66194E+03  4.29281E+02  7.35170E+03 -2.37632E+03 -9.09801E+02
 -5.16490E+03 -5.37623E+01 -5.87370E+02 -2.68963E+03  1.05863E+03 -2.53337E+03  5.38843E+03  2.67009E+02
  6.23151E+02  1.42044E+03  1.61599E+02  1.56196E+03 -5.63052E+02 -8.79299E+02  1.12409E+03  5.95877E+01
  3.10207E+03 -9.27312E+02  8.41148E+02  3.62192E+03 -1.45891E+03  7.67638E+02  4.40971E+03  8.52446E+02
  1.09296E+02  1.31831E+03 -4.06725E+03  3.64253E+03 -2.73719E+03  2.62610E+03  3.59697E+02  3.58407E+02
  9.42293E+02  1.87395E+01  1.25840E+03  2.44088E+02  1.17832E+03  6.00627E+02 -3.15803E+02  9.83924E+02
 -3.52576E+03  7.25055E+02  6.86024E+02  2.14875E+03  8.91798E+01  2.83957E+03  1.77498E+03  2.92949E+03
 -3.15171E+03 -1.45394E+03 -3.00626E+03 -3.11829E+03  4.02401E+03  4.34296E+03 -3.31554E+03  1.28735E+03
 -2.52365E+03 -1.83611E+03  4.91019E+03 -3.12977E+03 -4.14422E+03  1.37430E+02  1.35372E+03 -2.91041E+03
 -2.03890E+03 -1.25252E+03  8.01741E+01 -1.75134E+03  4.70081E+03  3.14048E+03  2.58580E+03  3.39776E+03
 -8.36069E+02 -1.06255E+03 -5.09841E+03 -1.78486E+03 -1.33632E+03  5.28198E+02  2.38370E+03  4.75761E+02
  4.65044E+01 -2.01717E+03  2.89380E+03 -5.78711E+03  3.16031E+02  1.89559E+03  3.70828E+03  1.34769E+03
 -3.13111E+03 -8.95776E+02  9.53193E+02 -2.15389E+03 -1.43711E+03 -3.17193E+03  1.60740E+03 -1.16274E+03
  3.93979E+03  3.91228E+03  3.87518E+03 -1.45066E+03  1.20072E+03 -1.13748E+03 -5.56556E+02  1.33120E+03
  1.14360E+03  2.07587E+03 -1.42511E+03  1.55866E+03 -6.13018E+00 -2.52772E+03  3.37010E+03  4.64350E+03
  5.41230E+02 -3.79721E+03  9.45879E+02 -3.23252E+03 -3.18282E+02  2.44895E+03  3.48455E+03  5.03135E+03
  1.00144E+03 -4.65060E+02 -5.98820E+02 -9.63077E+02 -2.72179E+03  3.80312E+02  7.79717E+02 -2.93930E+03
  1.95774E+03 -2.23367E+03  4.70571E+03  3.70465E+03  2.94031E+03  3.67034E+03  1.52482E+03  1.17467E+03
 -9.45705E+02  3.75786E+03 -1.48573E+03  9.65176E+01  2.97149E+01 -3.36810E+03 -7.40827E+02 -1.46190E+02
 -2.94541E+03  7.40430E+02 -1.30070E+03  2.40823E+03 -3.08997E+03  7.23616E+02 -2.00713E+03 -1.91583E+03
 -2.86203E+02 -3.01860E+03 -1.85628E+02  1.20279E+03 -1.05666E+03 -1.76704E+02  2.70964E+03 -5.97754E+03
 -2.18055E+03 -1.12247E+03  3.51715E+02  3.60940E+03 -5.76449E+02 -1.71325E+03 -3.55600E+03  1.78462E+03
 -6.44667E+03  3.04205E+03 -2.65985E+02 -1.72117E+02 -1.07461E+03 -6.38594E+00 -4.50567E+03 -2.15200E+03
 -7.11707E+02 -4.40279E+02 -1.91854E+03 -2.60422E+03  1.84259E+03  3.16276E+02  2.23845E+03  1.75697E+03
  6.17973E+02 -2.11098E+03 -1.36346E+03  1.13003E+03  3.06623E+03 -1.33266E+02 -3.70339E+03  3.94273E+03
  8.61471E+02  3.25842E+03 -8.84234E+02 -1.59922E+03  9.91630E+02 -1.30582E+03 -1.83125E+03 -2.29535E+03
 -1.66971E+03  5.77832E+02 -2.86923E+03  2.29196E+03 -9.15441E+02 -2.66440E+03  1.60187E+03  2.71348E+02
 -1.58692E+03 -1.91728E+03  1.09636E+03  1.22950E-01 -3.75307E+02  4.13616E+03  2.59737E+03 -3.62658E+03
  2.43124E+03  8.43405E+02  1.77356E+03  7.89494E+02  1.82446E+03 -7.07945E+02 -1.94675E+03  1.33276E+03
 -4.54455E+02 -3.69181E+03  1.12517E+03  6.18745E+01 -1.08780E+03 -3.36542E+02 -8.29563E+02 -5.87365E+02
 -1.86747E+03  3.80344E+02 -9.11944E+02 -1.83482E+03  3.46898E+03  1.05561E+02  2.68638E+03 -2.98742E+03
  4.56977E+02  3.31455E+03 -2.87449E+03  2.20070E+03 -2.87875E+03  7.32750E+02  3.41232E+03  9.76757E+02
 -1.14583E+03  1.25594E+03 -4.27984E+03  1.50891E+02 -4.62993E+03 -3.39997E+03  3.67180E+02  2.43037E+03
  3.43222E+03  5.12232E+03  2.36717E+02 -9.01965E+02  6.87051E+02 -1.02062E+03  2.35525E+02 -7.36795E+02
  4.97210E+03 -6.43452E+02 -2.55106E+03  1.77197E+03  4.05256E+02  5.21614E+02 -7.04269E+03 -7.49249E+02
