 $NMID ID='MM_0lb_SNR50_15hz_g50_53.RAW', FMTDAT='(8E13.5)'
 TRAMP=1., VOLUME=1. $END
  3.14063E+05  3.66586E+03  3.37843E+05  2.47720E+05  8.47082E+04  3.42033E+05 -1.31716E+05  2.44354E+05
 -1.89528E+05  8.55465E+04 -1.08400E+05 -3.45054E+04 -1.69005E+03 -4.52078E+04  4.87845E+04  3.08640E+03
  3.52908E+04  5.24999E+04 -1.38091E+04  7.38220E+04 -6.02256E+04  6.37266E+04 -8.70971E+04  2.81300E+04
 -8.30030E+04 -9.54740E+03 -5.43825E+04 -5.31996E+04 -1.50710E+04 -6.76908E+04  2.91068E+04 -4.66326E+04
  4.08437E+04  3.91816E+03  1.74422E+04  4.83170E+04 -3.69226E+04  4.51697E+04 -6.93185E+04  1.21539E+01
 -5.48198E+04 -5.77158E+04 -5.27769E+03 -7.74428E+04  3.14698E+04 -5.41270E+04  5.00187E+04 -1.61146E+04
  4.42284E+04  1.05045E+04  3.65791E+04  2.21240E+04  1.21547E+04  2.75859E+04 -6.91804E+03  2.71064E+04
 -2.50191E+04  1.20403E+04 -1.93327E+04 -1.78974E+03  9.40116E+03 -6.86742E+03  2.55984E+04  1.52752E+04
  8.57787E+03  3.32332E+04 -2.94811E+04  3.07239E+04 -5.91207E+04  1.39716E+03 -5.80310E+04 -4.52132E+04
 -9.67277E+03 -6.19786E+04  4.10966E+04 -4.65913E+04  5.61489E+04 -5.46209E+03  3.36553E+04  3.20830E+04
 -8.60475E+03  3.82635E+04 -2.96039E+04  2.10337E+04 -3.21906E+04 -1.23059E+04 -2.00167E+04 -1.42646E+04
 -9.35630E+03 -1.19268E+04 -1.57334E+03 -1.55712E+04  8.17189E+03 -2.16421E+04  1.72066E+04 -1.06875E+04
  1.22528E+04  5.67766E+03 -6.08815E+03  8.96768E+03 -1.83531E+04 -5.02641E+03 -8.16031E+03 -3.65065E+04
  2.39863E+04 -4.40489E+04  4.64764E+04 -2.08983E+04  4.35008E+04  1.85177E+04  1.61318E+04  4.35565E+04
 -1.65233E+04  3.03557E+04 -2.61263E+04  1.59481E+03 -1.11330E+04 -2.40954E+04  1.91602E+04 -3.34452E+04
  4.22298E+04 -6.31869E+03  3.37538E+04  2.28659E+04  1.73769E+04  4.16032E+04 -8.39581E+03  4.86829E+04
 -2.83566E+04  3.34376E+04 -4.19683E+04  1.18627E+04 -3.88653E+04 -1.77275E+04 -2.36655E+04 -3.88295E+04
  1.24701E+04 -4.14996E+04  3.06903E+04 -1.38190E+04  2.83007E+04  7.24092E+03  4.70200E+03  1.96484E+04
 -1.11232E+04  1.01200E+04 -1.36452E+04 -5.60943E+03  6.76607E+03 -6.01216E+03  2.09309E+04  3.67631E+03
  1.50412E+04  2.24277E+04 -9.78299E+03  2.63633E+04 -1.98138E+04  1.20783E+04 -3.04104E+04 -9.96226E+03
 -1.80959E+04 -2.08498E+04 -9.46425E+03 -1.96516E+04  1.66936E+03 -1.85572E+04  2.13457E+04 -1.46062E+04
  2.73492E+04 -1.49382E+04  3.45251E+04  3.46247E+03  2.49165E+04  2.16927E+04  7.43083E+03  3.83273E+04
 -1.79787E+04  2.93340E+04 -3.22930E+04  1.03042E+04 -2.45524E+04 -7.72423E+03 -6.41577E+03 -1.36687E+04
 -1.59570E+03 -1.49904E+03 -3.40315E+03  4.13370E+03 -1.50097E+04  6.58703E+03 -1.75986E+04 -3.31359E+03
 -1.01080E+04 -1.66819E+04  4.63981E+03 -1.98152E+04  1.39328E+04 -1.44735E+04  1.85135E+04  1.09584E+02
  7.93955E+03  1.22720E+04  1.94023E+03  1.79517E+04 -1.20945E+04  1.21311E+04 -1.75562E+04  5.11356E+02
 -1.87928E+04 -1.71766E+04  1.04641E+03 -1.81123E+04  1.02859E+04 -1.95015E+04  2.30453E+04 -9.96833E+03
  1.98199E+04  4.62781E+02  1.04902E+04  6.83034E+03  9.54922E+03  4.95308E+03  7.45099E+03 -6.55008E+02
  1.32191E+04  4.25630E+03  1.59197E+04  1.86262E+04  9.21167E+03  3.18086E+04 -3.46612E+03  3.65002E+04
 -1.86585E+04  2.68708E+04 -3.00897E+04  1.36087E+04 -2.87011E+04 -2.44329E+02 -2.91860E+04 -2.13932E+04
 -9.61502E+03 -2.94575E+04  8.05154E+03 -2.27539E+04  1.78251E+04 -1.32541E+04  1.73488E+04  7.16225E+03
  7.11609E+03  1.25339E+04 -1.21975E+04  1.32187E+04 -1.66623E+04  3.00821E+03 -8.73977E+03 -1.30305E+04
  4.73554E+03 -1.78107E+04  6.65540E+03 -1.32827E+04  1.17444E+04 -3.35243E+02  5.63476E+03  9.90903E+03
 -6.93013E+03  2.88444E+03 -7.71722E+03 -5.66506E+03  2.02598E+03 -1.41666E+04  8.11195E+03 -1.19795E+04
  1.53804E+04 -3.72150E+03  1.71617E+04  6.59018E+03  1.66030E+04  1.20717E+04  5.82064E+03  2.75216E+04
  4.79592E+03  1.86127E+04 -1.60226E+04  1.37603E+04 -1.22347E+04  2.93756E+03 -1.06784E+04 -6.52297E+03
 -9.63572E+03 -5.69133E+03 -7.50936E+02 -2.24860E+02  2.61668E+03  8.05154E+03 -8.83748E+03  8.62812E+03
 -1.24132E+04  2.64436E+03 -1.58223E+04 -8.58744E+03 -2.03740E+03 -8.31589E+03  4.87485E+03 -1.29834E+04
  3.92851E+03 -6.65830E+03  7.06648E+03  2.53226E+03 -1.00158E+03  2.41228E+03 -1.73277E+03 -8.79315E+02
 -9.69423E+03 -6.84271E+03 -1.21375E+03 -3.80996E+03  4.87130E+03 -8.00968E+03  1.38315E+04 -4.71617E+03
  1.69827E+04  3.40736E+03  1.19875E+04  9.71238E+03  6.34457E+02  1.37580E+04 -4.74396E+03  6.05586E+03
 -5.87244E+03  5.41415E+03 -2.53921E+03 -1.06625E+03  4.27571E+03 -5.54646E+03  6.43304E+03 -1.88918E+03
  5.58958E+03  6.59176E+03  1.84041E+03  1.16679E+04 -6.51639E+03  2.46769E+03 -1.04456E+04  1.66964E+03
 -9.67560E+03 -9.46988E+03 -4.64463E+03 -7.71934E+03  4.20448E+03 -3.46198E+03  4.57227E+03  1.19864E+03
  1.68498E+03  4.42300E+03 -7.42101E+03  3.79831E+03 -1.04951E+04  1.55139E+03 -1.39230E+04 -7.72337E+03
 -3.77051E+03 -8.23055E+03 -6.47949E+02 -8.25125E+03  9.68791E+03 -8.38365E+03  8.76072E+03  6.76854E+03
  7.68029E+03  9.47106E+03  5.17709E+02  7.88086E+03 -8.81269E+03  6.38871E+03 -6.61799E+03 -3.34729E+03
 -4.36970E+03 -1.11504E+04 -4.29781E+03 -8.60542E+03  3.75681E+03 -7.13953E+03  3.09762E+03 -4.75797E+03
  5.56273E+03  6.63368E+02 -1.11257E+03  2.21474E+03  6.13148E+02  6.26153E+02  8.57437E+01 -3.03475E+03
  1.14431E+04 -2.98696E+03  1.04302E+04  1.33060E+03  1.00841E+04  6.90289E+03  6.81265E+03  1.09115E+04
 -1.66658E+03  1.35004E+04 -1.33538E+04  1.21296E+04 -1.35514E+04 -3.01057E+03 -1.04849E+04 -7.81288E+03
 -6.75254E+03 -1.04408E+04 -5.53793E+03 -1.04626E+04  6.38412E+03 -4.65215E+03  3.08606E+03 -2.80026E+03
 -6.72879E+02 -7.19915E+02  4.28361E+03 -3.99752E+03  6.60569E+03 -1.81203E+03  4.49890E+03  2.59870E+03
  8.46944E+03  3.31443E+03 -5.70367E+02  4.62703E+03 -4.39006E+03  3.21789E+03 -4.72385E+03  6.60253E+02
 -7.08100E+03  2.88633E+03 -3.78746E+03 -6.67682E+03 -6.43764E+02 -4.46175E+03  9.08961E+03 -5.46812E+03
  9.60620E+03 -5.40720E+03  1.38065E+04 -4.01645E+03  9.38280E+03  9.50750E+03 -2.04859E+02  1.03764E+04
 -3.67604E+03  8.40036E+03 -5.70437E+03  7.07648E+02 -2.29876E+03  1.49437E+02 -7.20607E+03 -2.22236E+03
 -5.47690E+03  3.58102E+03 -8.23428E+03  6.61461E+03 -6.71527E+03 -1.19782E+03 -4.00426E+03  3.57280E+02
 -9.16105E+02 -6.05035E+03  3.89288E+02 -8.05576E+03 -2.05841E+03 -1.00272E+04  7.12782E+03 -3.82251E+03
  9.52410E+03  1.49520E+03  4.44200E+03  1.02032E+04 -1.46137E+03  6.79128E+03 -4.03437E+03  3.46608E+03
 -8.92377E+03  7.43516E+03 -2.73055E+03 -6.82891E+03  1.73365E+03 -8.20792E+03  2.43615E+02 -5.39570E+03
  6.11826E+03 -4.88482E+03  2.22709E+03 -9.61418E+02  1.67365E+03  2.92554E+03 -3.26978E+02  1.14649E+03
  2.87091E+03  6.84071E+02 -2.44195E+03 -2.06746E+03  7.01075E+03  5.73417E+01  2.80475E+03  2.91554E+03
  1.13745E+03  1.05129E+04  1.08884E+01  4.02349E+03 -3.74591E+03  1.77028E+03 -1.13184E+04 -4.43769E+03
 -5.17258E+03 -5.18119E+03 -1.07134E+03 -6.40882E+03  3.72597E+03 -3.57602E+03  1.03448E+04 -1.22110E+03
  5.92851E+03  6.28651E+03  1.04967E+03  7.06930E+03 -3.98639E+03  5.13125E+02 -5.07673E+03 -1.14205E+03
 -2.01032E+03 -3.44846E+03  1.54019E+03 -3.13512E+03  6.92667E+03 -5.34942E+02  4.74036E+03  4.97370E+03
  1.00106E+02 -1.63211E+03  7.52519E+02  2.41782E+03 -5.15565E+02  3.86390E+02 -1.20034E+02  1.78009E+03
 -3.52532E+02  4.87940E+01  1.68852E+03  4.48749E+02 -5.94565E+01  5.49479E+03  1.57094E+03  3.95408E+03
 -3.11826E+03  5.09756E+03 -5.18415E+03 -3.46526E+02 -3.43880E+03  1.13241E+03 -1.87175E+03 -5.89966E+03
  5.42485E+03 -8.63922E+03  3.77573E+03  9.99959E+01 -1.64533E+02 -1.66504E+03 -2.96810E+02  4.77541E+02
  1.30987E+02 -2.44129E+03 -6.16862E+03 -3.17000E+03 -1.38162E+03 -7.51312E+03  5.84760E+03 -1.10707E+03
  3.86660E+02 -6.88253E+03 -6.19296E+02  4.37184E+03  1.46103E+03 -7.52740E+02  7.58194E+02  7.27417E+03
 -5.73064E+03  1.16552E+03 -5.55479E+03 -1.31713E+03  4.59459E+03 -1.78022E+03 -2.89019E+02  1.60455E+03
  4.47265E+03 -4.25496E+03  5.91556E+03 -4.64475E+03 -6.29161E+02  3.66004E+03  4.84980E+03  2.80225E+03
 -2.68852E+02  1.35389E+03 -2.75483E+03 -2.42985E+03 -2.62869E+03 -2.16921E+03 -1.68201E+03  1.04510E+03
  2.66178E+03  5.19881E+02  5.34994E+03  1.93745E+03  3.40702E+02 -8.14825E+02  1.14886E+03  4.91275E+03
 -5.34048E+03  4.74084E+03  1.37494E+03  1.83719E+03 -2.35015E+02 -1.12044E+03  3.86712E+03 -1.65575E+03
  2.08008E+03 -1.05565E+03 -2.36683E+03  1.77940E+03 -4.53279E+02 -6.63194E+02 -7.20669E+03 -3.53787E+03
 -3.18786E+03 -6.63690E+03 -2.43604E+03 -7.95633E+03  3.41013E+03 -3.00314E+03  2.99484E+03 -1.03913E+01
  5.60305E+02  2.03425E+03  3.89879E+03  5.14288E+03  1.75773E+03  5.51822E+02 -8.21206E+02 -3.38613E+02
 -3.82155E+02  2.64993E+02  1.26328E+03 -2.78145E+03 -5.16377E+02 -1.66390E+03  4.36319E+03 -2.30976E+03
  2.26989E+03 -8.52910E+02 -5.79582E+03 -9.02468E+02  9.15262E+03  3.94718E+03  1.18452E+03 -1.42587E+02
  1.03460E+03  9.98940E+02  2.57401E+03  4.91026E+02 -9.99475E+01  3.99542E+03  3.40268E+03  5.29395E+03
 -9.17573E+02  3.87761E+03 -2.37824E+03  2.52523E+03 -3.11518E+03  1.85729E+03 -4.43910E+03 -8.07389E+02
  8.56081E+02 -8.79013E+02  1.46191E+03 -1.08554E+02  2.18399E+03 -2.90910E+03 -2.67025E+03 -3.13414E+03
  6.03107E+02  2.43934E+03  3.01941E+03  2.49498E+03  2.61427E+02 -1.39073E+03  1.42697E+03 -1.18054E+02
 -2.61639E+03 -1.67315E+03 -2.62155E+03 -3.50236E+02 -1.16503E+03  2.44148E+03  8.20204E+02  1.97499E+03
  1.01164E+03 -2.10586E+03 -5.49887E+03 -1.44648E+03  1.61578E+03 -2.89975E+03  1.93417E+03 -5.74997E+03
  2.32737E+03 -1.18533E+03 -4.01128E+02 -1.15829E+03  6.61744E+02  3.11364E+02 -9.91863E+02  3.10251E+03
 -8.36128E+02  2.22627E+03 -1.27966E+03  6.04778E+01  4.36255E+03 -2.85081E+03  2.90800E+03  2.78894E+03
 -5.43622E+03 -9.05697E+02  2.42073E+03 -1.81865E+03 -2.80396E+03 -1.29261E+02 -4.25798E+03 -4.94148E+03
 -7.45353E+03 -4.26067E+02 -4.90005E+02 -4.24384E+03  2.38066E+03 -4.07566E+03  1.15683E+03 -1.02294E+03
  1.76648E+03 -1.25802E+03 -2.13481E+03  2.07945E+03 -5.46010E+02  1.56047E+03 -3.82215E+03  1.64130E+03
