 $NMID ID='MM_0lb_SNR50_11hz_g45_9.RAW', FMTDAT='(8E13.5)'
 TRAMP=1., VOLUME=1. $END
  3.12829E+05  5.50440E+03  3.38328E+05  2.49633E+05  8.08691E+04  3.43645E+05 -1.37882E+05  2.50593E+05
 -1.89525E+05  8.28135E+04 -1.12783E+05 -3.15228E+04  4.69617E+03 -4.50454E+04  5.18103E+04  4.31055E+02
  3.06585E+04  5.47459E+04 -1.90579E+04  7.46113E+04 -5.78838E+04  6.50126E+04 -8.61471E+04  3.60528E+04
 -8.72053E+04 -1.49000E+04 -6.13086E+04 -5.20498E+04 -1.37221E+04 -7.03079E+04  2.85051E+04 -5.03755E+04
  4.07912E+04  4.30864E+02  1.27485E+04  4.99843E+04 -3.17598E+04  4.72771E+04 -7.18220E+04  1.80930E+03
 -5.51392E+04 -5.41829E+04 -2.49945E+03 -8.33168E+04  3.89180E+04 -5.50582E+04  4.75157E+04 -2.06277E+04
  5.38971E+04  1.15780E+04  3.23944E+04  2.02210E+04  1.96793E+04  3.35259E+04  1.87801E+03  3.19154E+04
 -1.90842E+04  1.22615E+04 -2.18864E+04 -7.74872E+02  7.83738E+03 -7.84647E+03  2.23706E+04  1.06660E+04
  3.18822E+03  3.64761E+04 -3.36002E+04  3.42160E+04 -6.29375E+04  1.44565E+03 -5.64682E+04 -4.04716E+04
 -1.41834E+04 -6.26072E+04  4.42326E+04 -4.08531E+04  5.80402E+04 -7.01634E+03  3.58249E+04  3.24323E+04
 -1.02391E+04  3.45910E+04 -2.84837E+04  2.00741E+04 -3.76493E+04 -1.50232E+03 -1.65037E+04 -1.39637E+04
 -9.71621E+03 -1.04553E+04 -1.01386E+03 -2.60670E+04  1.00949E+04 -2.08598E+04  1.42200E+04 -1.06768E+04
  1.22649E+04  7.43648E+03 -1.04390E+04  1.17270E+04 -2.16112E+04 -5.02568E+03 -5.68178E+03 -3.15767E+04
  2.35683E+04 -4.57983E+04  4.88988E+04 -1.81025E+04  4.68959E+04  2.21825E+04  1.74028E+04  4.54375E+04
 -1.76738E+04  3.18666E+04 -2.82728E+04 -1.12336E+03 -1.20686E+04 -2.75230E+04  2.14419E+04 -3.96741E+04
  4.36834E+04 -7.58794E+03  3.73505E+04  2.30830E+04  2.43730E+04  4.73938E+04 -5.72608E+03  5.18087E+04
 -2.83416E+04  3.11053E+04 -4.50305E+04  1.41880E+04 -4.49401E+04 -1.43603E+04 -2.72458E+04 -3.69709E+04
  9.75169E+03 -3.76349E+04  2.98365E+04 -1.25123E+04  2.73541E+04  1.36681E+04  3.22790E+03  2.21179E+04
 -1.48551E+04  1.40654E+04 -9.61072E+03 -8.42745E+03  2.23289E+03 -1.02038E+04  1.87613E+04  5.99664E+03
  1.40972E+04  2.51001E+04 -3.52920E+03  2.82757E+04 -2.30954E+04  1.30294E+04 -3.22578E+04 -1.70469E+03
 -2.12086E+04 -1.26491E+04 -7.41636E+03 -2.66450E+04  2.68468E+03 -2.34191E+04  1.15362E+04 -1.89402E+04
  2.92988E+04 -1.60066E+04  4.10884E+04  4.79903E+03  2.73986E+04  2.72796E+04  6.96852E+03  4.38638E+04
 -1.54069E+04  2.75156E+04 -3.66451E+04  9.24549E+03 -1.37054E+04 -1.09151E+04  2.71564E+03 -6.66802E+03
  5.11463E+02 -3.81228E+03 -4.37847E+03  1.09012E+04 -1.95483E+04  1.50543E+03 -1.67339E+04 -3.31220E+03
 -9.64162E+03 -1.62880E+04  1.18831E+04 -2.50204E+04  1.49441E+04 -2.17041E+04  2.69774E+04 -4.68146E+03
  1.82186E+04  1.58405E+04 -4.16083E+03  2.05866E+04 -1.17754E+04  1.07307E+04 -2.33171E+04 -4.09481E+03
 -1.67660E+04 -1.73028E+04 -4.60035E+03 -2.04505E+04  6.62523E+03 -1.89963E+04  2.03842E+04 -1.24621E+04
  1.84074E+04 -3.83491E+01  1.14550E+04  1.90481E+03  8.25899E+03  9.80962E+02  1.15205E+04 -5.59943E+02
  2.03513E+04  3.36486E+03  2.32552E+04  2.01195E+04  1.43460E+04  3.15134E+04 -8.57250E+02  3.86716E+04
 -2.26059E+04  3.43740E+04 -3.71642E+04  2.27761E+04 -3.49423E+04 -6.40334E+03 -3.63900E+04 -2.04499E+04
 -8.58955E+03 -3.22343E+04  1.34764E+04 -2.49608E+04  2.19162E+04 -1.03564E+04  2.51010E+04  2.75233E+03
  1.19995E+04  1.18184E+04 -1.11770E+04  1.74105E+04 -2.14932E+04  1.78755E+03 -1.04581E+04 -1.40755E+04
  1.63946E+03 -2.33993E+04  8.86994E+03 -1.49830E+04  8.93591E+03 -4.35110E+02  2.38233E+03  5.49528E+03
 -1.10284E+04  1.66942E+03 -1.61462E+03 -2.49743E+03 -2.84575E+03 -1.37974E+04  6.61105E+03 -1.65345E+04
  2.13415E+04 -7.83444E+03  2.44743E+04  3.15308E+03  1.82749E+04  1.77016E+04  9.24606E+03  2.84580E+04
 -2.18418E+03  2.14627E+04 -1.80967E+04  2.11003E+04 -1.67926E+04  6.29514E+03 -1.54008E+04 -2.78269E+03
  3.85687E+03 -7.57682E+03  1.37163E+03  2.43811E+03 -4.26376E+03  2.36017E+03 -5.46650E+03  6.37345E+03
 -1.22690E+04  1.54188E+03 -1.87050E+04 -1.61962E+04 -8.87295E+03 -2.11788E+04  6.11671E+03 -1.24070E+04
  1.06924E+04 -4.42756E+03  9.00266E+03  2.49758E+03 -8.97780E+02  7.81284E+03 -6.28481E+03  1.23426E+03
 -6.98789E+03 -4.92234E+03  2.78389E+03 -1.24095E+04  7.60197E+03 -1.48567E+04  1.84642E+04 -9.00646E+03
  2.50602E+04  8.22410E+03  8.30629E+03  1.44230E+04 -3.41250E+03  1.37500E+04 -1.04036E+04  1.52484E+04
 -4.25558E+03  8.29692E+03 -3.37061E+03 -2.10114E+03 -2.00073E+03 -7.25257E+03  7.08082E+03 -2.18838E+03
  6.01813E+03  1.93649E+03 -1.85161E+03  1.21375E+04 -9.06613E+03  2.37729E+03 -1.57898E+04  3.40089E+03
 -4.18049E+03 -5.74236E+03 -5.94429E+03 -1.34166E+04  1.19545E+04 -1.27808E+04  4.01950E+03 -6.95412E+02
  2.52772E+03  1.16431E+04 -1.34639E+04  5.61426E+03 -9.88541E+03  6.78378E+03 -1.06956E+04 -6.25479E+03
 -1.59098E+03 -8.28593E+03  3.24716E+03 -1.97459E+04  1.62312E+04 -1.25170E+04  7.87583E+03  4.03926E+03
  1.00813E+04  1.31610E+04 -9.15166E+02  1.26395E+04 -7.15814E+03  4.20332E+03 -1.51746E+04  3.54197E+03
 -1.03031E+04 -9.05610E+03 -8.57358E+01 -4.05990E+03  4.92088E+03 -1.48986E+03  7.90591E+03 -3.47750E+03
  1.87386E+03  8.83949E+02 -5.29903E+03  1.94905E+03  5.99154E+03 -4.21200E+03  5.58377E+02 -5.20674E+03
  1.06170E+04 -9.32136E+03  1.43087E+04  3.15887E+03  4.95089E+03  1.29610E+04  8.24740E+03  1.52552E+04
 -6.12250E+03  2.02375E+04 -1.74509E+04  1.40502E+04 -1.92312E+04 -2.49343E+01 -1.85182E+04 -5.86915E+03
 -8.26054E+03 -1.09285E+04  6.18980E+02 -5.32878E+03  4.79431E+03 -4.49757E+02  4.40171E+01 -4.41241E+03
  2.80128E+03 -2.89954E+03  1.98331E+03 -1.56766E+03  6.88324E+03 -1.74891E+03  3.04592E+03  1.42943E+03
  5.66378E+03  1.33180E+03  3.81384E+03  9.57656E+03  7.53677E+02  7.97824E+03 -5.53879E+03  1.28463E+03
 -9.41613E+03 -4.99976E+03 -1.39528E+03 -1.24515E+04 -3.74662E+02 -9.34736E+03  6.01099E+03 -1.39576E+04
  1.19549E+04 -6.28023E+03  2.34868E+04 -2.69927E+03  1.51691E+04  3.65528E+03  3.68244E+02  1.13305E+04
 -4.22867E+03  1.18641E+04 -5.87186E+03  1.06204E+03 -7.36061E+03 -1.07713E+03 -4.60953E+03  2.66876E+03
 -4.21211E+03 -1.14765E+03 -4.33364E+03  5.61001E+03 -2.53457E+03 -2.96185E+03 -2.89787E+03 -3.38092E+03
 -6.30122E+03 -3.74710E+03  1.54668E+03 -1.57073E+04  8.12135E+03 -7.67673E+03  4.41764E+03 -1.21291E+03
  1.08460E+04  5.39548E+03  6.48010E+03  8.76979E+03 -4.56359E+03  1.18061E+04 -1.08477E+04  1.06952E+04
 -1.31688E+04  2.40851E+02 -8.39474E+03 -1.32993E+03  8.70851E+03 -1.34523E+04  9.36066E+03 -5.36505E+03
  9.82072E+03 -5.03112E+03  7.56151E+03  5.18423E+03 -6.87938E+03  6.44358E+03 -2.52945E+03  2.61065E+03
  3.11420E+03  2.50571E+03  4.65841E+02  5.19813E+03  3.06948E+03  3.33723E+03  1.63096E+03  5.02037E+03
 -3.05496E+03  9.50701E+03 -4.07309E+03  7.66167E+03 -1.33156E+04  6.14924E+03 -1.38810E+04 -7.24185E+03
 -2.70500E+02 -1.26945E+04 -6.01148E+02 -1.04644E+04  2.59870E+03 -6.52968E+03  1.03689E+04 -5.31374E+03
  1.22419E+04 -8.29065E+02 -1.88108E+03  7.28942E+03 -1.49248E+03  4.27795E+03 -9.04212E+03 -1.55086E+03
  5.46133E+03 -4.06243E+03  1.27746E+03 -8.45075E+03  2.39107E+03 -5.93603E+03  3.62228E+03 -7.85213E+03
  1.35058E+03  2.21668E+01 -4.61990E+02  4.91113E+03 -4.41913E+03 -3.50476E+03  5.88043E+03 -3.46527E+03
  1.69650E+03 -1.86616E+02  2.55017E+03 -1.34790E+03  2.78878E+03  3.28126E+03 -5.80136E+03  6.48280E+03
 -8.93112E+03  6.66760E+03 -9.59445E+03  3.00043E+03 -1.36527E+04 -2.82540E+03 -4.54411E+03 -2.09746E+03
 -1.75153E+03 -3.87954E+03  3.91262E+03 -4.80263E+03  3.94958E+03  3.22258E+03 -5.36357E+02  3.88396E+02
 -1.13789E+04  2.03950E+03 -3.33412E+03  8.77275E+02  1.22820E+02 -6.67907E+03 -2.30559E+03 -3.21268E+03
 -4.93157E+03 -4.41130E+03  2.90019E+03  2.50047E+03  4.99698E+03  4.56982E+03 -3.90422E+02  1.38583E+03
 -6.96786E+03 -1.94231E+01 -6.88164E+03  1.30962E+03  1.20514E+03 -2.44189E+03  7.31350E+02  3.72922E+02
  4.65580E+03  1.92145E+03  1.07895E+04  7.76681E+03 -7.56999E+02  8.56444E+03  3.52924E+03  9.63420E+03
 -6.94434E+03  3.14809E+03 -3.59196E+03  3.78192E+02 -4.88204E+03 -7.66582E+03  2.91749E+02 -8.91997E+03
  4.82426E+03 -4.43787E+03  6.42035E+03  3.40460E+03 -3.47231E+03  8.23077E+03 -2.22334E+03  2.74977E+03
 -2.33739E+03  3.35766E+03  1.24730E+03 -4.65132E+03 -7.01455E+02 -7.07122E+03 -4.12253E+03 -3.96459E+03
 -4.39125E+03  6.42510E+03 -5.61114E+03  4.94865E+03 -5.72062E+03 -4.64402E+03 -1.25469E+04 -7.18702E+03
 -5.52487E+03 -5.38773E+03 -3.35307E+03 -1.18881E+04 -2.36912E+03 -1.19235E+04  2.46021E+03 -3.80407E+03
  8.84534E+03  3.93381E+03  2.34394E+03  6.98432E+03  5.59126E+02  6.73175E+03 -2.87553E+03  7.14887E+03
 -4.88873E+03  6.04400E+03  1.68602E+03  1.60172E+03  1.51237E+03  9.17703E+02 -2.88468E+03  5.75073E+03
 -5.34886E+03  1.81997E+03 -5.39283E+02 -4.37129E+03 -1.14750E+02 -3.02499E+03  1.21962E+03 -6.62020E+03
  3.68389E+03 -9.04957E+03  4.66494E+03 -1.32965E+02 -2.13775E+03 -3.50972E+02  8.04281E+02  1.03483E+04
 -8.16637E+02  6.68057E+03 -2.87592E+03  7.13049E+03 -7.61742E+03 -6.52118E+03 -7.82064E+03 -3.06808E+03
 -8.41949E+03 -6.21304E+03  4.38948E+03 -8.03849E+03  3.05443E+03 -2.99269E+03  1.84687E+02  1.96433E+03
  5.97871E+03  5.30713E+03  5.50264E+02 -1.76043E+03 -6.97517E+03 -1.61775E+03  2.00380E+03  3.84090E+03
  5.81598E+03 -4.82225E+03  8.20098E+02  8.78066E+02 -3.91883E+02  9.93198E+03 -3.44799E+03  5.18663E+03
 -3.04577E+03  2.48294E+03 -7.90219E+03 -1.31164E+03 -8.04328E+03 -8.33038E+03  2.04591E+03 -3.60257E+03
 -1.59803E+02 -3.79356E+03  1.78534E+03  1.81520E+03  1.02466E+04  5.23142E+03  1.36381E+03  3.38751E+03
 -7.31658E+01  3.89181E+03 -5.42898E+03  1.22060E+03 -3.73128E+03  4.26122E+03  3.08170E+03 -2.62458E+03
 -3.25220E+02  2.15782E+03  8.11210E+02  2.65398E+03  2.66838E+03  3.75862E+02 -5.49779E+03  2.05215E+02
  3.27342E+02 -1.21999E+03 -6.65921E+03 -7.37790E+03 -2.06118E+03 -6.17054E+03  1.23545E+03 -2.37846E-01
  3.57923E+03  2.88867E+03  5.26043E+03 -1.34726E+01  1.35809E+03  6.84832E+03 -2.93340E+03  4.44617E+02
