 $NMID ID='MM_0lb_SNR50_20hz_g45_27.RAW', FMTDAT='(8E13.5)'
 TRAMP=1., VOLUME=1. $END
  3.07809E+05  2.85259E+03  3.37835E+05  2.50429E+05  8.40204E+04  3.36539E+05 -1.34162E+05  2.50934E+05
 -1.86193E+05  8.14284E+04 -1.09291E+05 -3.28133E+04  2.95343E+03 -5.44742E+04  5.21944E+04  1.03091E+03
  3.42444E+04  5.42197E+04 -1.48861E+04  7.41189E+04 -5.98318E+04  6.13049E+04 -8.19536E+04  2.96491E+04
 -7.53898E+04 -9.33198E+03 -5.71899E+04 -5.15972E+04 -1.37628E+04 -6.91334E+04  2.30355E+04 -4.33979E+04
  3.95728E+04  6.53777E+03  1.12235E+04  4.63276E+04 -3.49393E+04  4.85713E+04 -6.78585E+04 -4.70322E+03
 -5.15857E+04 -5.45134E+04 -5.31569E+03 -7.34700E+04  3.00023E+04 -5.07367E+04  4.24992E+04 -1.44974E+04
  4.07187E+04  1.21088E+04  3.43460E+04  2.55077E+04  1.60081E+04  2.75072E+04  1.36005E+03  2.34573E+04
 -2.46388E+04  1.39725E+04 -1.65378E+04 -4.59671E+03  5.39920E+03 -4.29354E+03  2.57246E+04  1.04131E+04
  8.27589E+03  3.11433E+04 -2.92218E+04  3.34044E+04 -6.18811E+04  2.98467E+03 -5.19861E+04 -4.12505E+04
 -6.76698E+03 -6.16344E+04  3.75651E+04 -4.29114E+04  5.03361E+04 -4.94538E+03  3.11804E+04  2.56036E+04
 -9.73471E+03  2.99085E+04 -2.89785E+04  1.43180E+04 -2.68105E+04 -4.44110E+03 -1.22350E+04 -8.51167E+03
 -7.32606E+03 -1.27697E+04  2.05350E+02 -1.68718E+04  4.33561E+03 -1.91488E+04  1.28987E+04 -1.30214E+04
  1.79035E+04  4.73622E+03 -7.42517E+03  1.02474E+04 -1.90403E+04 -3.96080E+03 -8.25879E+03 -3.22174E+04
  2.25546E+04 -3.95431E+04  4.09448E+04 -1.68627E+04  4.29823E+04  2.14291E+04  1.14617E+04  4.35337E+04
 -1.54204E+04  3.03672E+04 -2.29933E+04 -6.94490E+01 -9.01736E+03 -2.79753E+04  2.07007E+04 -3.09067E+04
  3.72400E+04 -6.40278E+03  2.53628E+04  2.25996E+04  9.35385E+03  3.87053E+04 -6.66818E+03  4.40506E+04
 -2.78714E+04  2.75058E+04 -3.20855E+04  7.14903E+03 -3.61530E+04 -1.89145E+04 -2.01251E+04 -2.99183E+04
  2.09722E+03 -3.06647E+04  2.62191E+04 -1.34351E+04  2.66000E+04  1.11421E+04  3.70048E+03  1.82130E+04
 -1.59553E+04  1.10962E+04 -1.14067E+04 -9.23504E+03  5.54153E+03 -7.21149E+03  1.72748E+04  8.99283E+03
  1.30557E+04  2.23596E+04 -5.98387E+03  2.18231E+04 -1.69882E+04  9.08489E+03 -2.50515E+04 -6.52598E+03
 -1.27668E+04 -1.98890E+04 -4.26497E+03 -1.31686E+04 -1.37208E+03 -1.45270E+04  1.13595E+04 -1.15784E+04
  1.91784E+04 -1.14575E+04  2.74085E+04 -4.20489E+02  1.91424E+04  1.52983E+04  6.73748E+03  3.06910E+04
 -1.88640E+04  2.72935E+04 -2.69569E+04  1.26118E+04 -1.65288E+04 -1.25420E+04 -8.76636E+03 -1.60442E+04
  6.32053E+03 -1.97275E+03 -2.89437E+03  4.78639E+03 -9.48352E+03  4.46358E+03 -1.54708E+04 -6.31239E+03
 -5.57324E+03 -1.20685E+04  3.68725E+03 -1.77246E+04  1.22551E+04 -1.25145E+04  9.69848E+03 -1.05226E+02
  7.98412E+03  1.15033E+04 -8.77055E+02  1.35620E+04 -7.33998E+03  5.57980E+03 -1.49037E+04 -4.03650E+03
 -1.34631E+04 -1.08506E+04  2.84657E+03 -1.86163E+04  1.16451E+04 -1.68863E+04  1.53059E+04 -7.17192E+03
  1.20488E+04  1.29764E+03  1.24666E+04  1.79136E+03  6.90969E+03 -2.88738E+03  7.04458E+03 -2.16690E+03
  1.43558E+04  2.73046E+03  1.63271E+04  1.50618E+04  1.21152E+04  2.58880E+04  1.05351E+02  2.29007E+04
 -1.85266E+04  1.73680E+04 -1.78202E+04  1.04284E+04 -2.17576E+04  1.39434E+03 -2.09181E+04 -1.32094E+04
 -1.32793E+04 -1.82330E+04  1.87164E+03 -1.61476E+04  1.67569E+04 -8.73027E+03  1.41823E+04  3.25204E+03
  6.38076E+03  8.08211E+03 -3.83477E+03  8.65860E+03 -1.30358E+04  7.16356E+02 -5.80658E+03 -6.85616E+03
 -2.98652E+03 -1.30265E+04  5.12539E+03 -1.46416E+03  6.13909E+03 -1.41749E+02  3.02612E+03  1.05742E+03
 -6.89222E+03 -3.24742E+03 -2.70085E+03 -3.90689E+03 -7.69658E+02 -3.95125E+03  6.07119E+03 -5.54655E+03
  1.04195E+04 -5.11929E+03  1.45550E+04 -1.09445E+03  5.38450E+03  5.82708E+03  6.08347E+03  1.24951E+04
 -1.09846E+03  1.09050E+04 -9.80945E+03  1.16723E+04 -3.15792E+03  2.61973E+03 -5.10615E+03  1.77287E+03
 -6.01645E+02 -3.65553E+03 -2.17408E+03  1.97548E+03 -3.11605E+02  2.37789E+02 -4.83926E+03  4.62760E+03
 -8.76972E+03  2.55937E+03 -9.28144E+03 -5.52011E+03 -1.08260E+03 -8.33261E+03 -3.21345E+03 -7.44355E+03
  6.74817E+03 -6.61133E+03  5.66402E+03  7.78149E+02  4.58858E+03  3.00919E+03 -4.28176E+03 -3.17072E+03
 -3.74520E+03 -1.91358E+03 -1.88371E+03 -6.17380E+03  9.59885E+01 -5.12153E+03  7.82853E+03 -4.77670E+03
  9.51731E+03  1.41884E+03  8.43087E+03  5.48646E+03  4.29469E+03  7.83188E+03 -7.74042E+03  2.62813E+03
 -4.21558E+03  3.41300E+03 -7.75827E+03 -2.34266E+03  2.23367E+03 -5.75498E+03  4.22858E+03  2.72053E+02
  3.52396E+03  1.67272E+03  1.52773E+03  6.60336E+03 -1.16587E+03  5.68865E+03 -6.88004E+03  6.76002E+03
 -4.55861E+03 -2.97898E+03  1.24707E+03 -3.16542E+03  2.90550E+03 -6.56684E+03  4.01012E+03  1.48810E+02
  1.33804E+03  1.83945E+02 -6.48679E+03  5.17858E+03 -3.18887E+03  1.69578E+03 -3.52179E+03  1.68275E+03
 -2.79693E+03 -2.21269E+03  3.57147E+03 -6.51639E+03  6.11915E+03 -7.01151E+03  6.14363E+03  2.21337E+03
  3.13442E+03  3.38664E+03  1.86771E+03  7.23909E+03  2.32852E+02  2.30424E+02 -2.26274E+03  1.56068E+03
 -9.21287E+03 -6.29694E+03  1.51968E+03 -3.76426E+03  7.67664E+02 -5.34958E+03  3.63524E+03 -5.22571E+03
  2.55895E+03 -1.80307E+02  5.64057E+02 -1.61998E+03 -1.45265E+03  6.34336E+02  2.09927E+03 -1.54219E+03
  5.24161E+03 -1.06945E+03  3.38600E+03  4.51247E+02  4.13017E+03  4.82978E+03  6.25070E+03  5.81297E+03
  1.43827E+03  7.51547E+03 -3.69871E+03  4.06971E+03 -9.56821E+03 -3.36765E+02 -7.71106E+03 -4.03924E+03
 -6.79042E+03 -6.26571E+03 -1.37376E+03 -5.59695E+03 -5.97188E+02 -2.73337E+03  1.34663E+03 -2.13969E+03
  2.40415E+03  6.20457E+02  3.53302E+03 -2.58197E+03  5.40860E+03  6.80389E+03  3.87813E+03  2.85434E+03
  7.12971E+03  2.39402E+02  1.08741E+03  7.54976E+03 -4.48403E+03 -8.84934E+01 -2.57537E+03  1.57235E+03
 -2.46631E+03  2.72615E+01 -9.93809E+02 -6.41188E+02 -1.88951E+02 -4.12621E+03  5.13001E+03 -3.14722E+03
  4.95463E+03 -2.77168E+03  3.21729E+03  1.84461E+03  5.22825E+03  2.07830E+03 -8.29845E+02  3.52195E+03
  2.07401E+01  5.91371E+03 -3.08321E+03  4.36463E+03 -9.52439E+02 -5.53861E+03 -4.96037E+02 -1.69281E+03
 -2.98062E+03 -2.36869E+03 -2.00644E+03 -2.53946E+03  1.17355E+03  7.43177E+02 -3.29110E+03  1.49171E+03
 -3.49122E+03 -7.29190E+03  5.05486E+03 -3.35280E+03  2.99338E+03 -7.21466E+03  3.27387E+03 -1.66886E+03
  2.88482E+03  1.34190E+03  1.31782E+02  1.55985E+03 -6.07019E+02  2.83496E+03  2.28863E+03 -4.37487E+03
 -3.82349E+03  1.53947E+02 -3.86456E+03 -3.34219E+03 -1.98965E+03  9.33663E+02  6.95748E+03 -5.51719E+03
  1.08220E+02 -3.96637E+03 -2.44889E+03  2.68810E+03 -1.87744E+03  5.63103E+02  4.49181E+03  2.16395E+03
  1.52999E+03  1.41566E+03  7.33079E+02 -3.01366E+02 -5.39218E+01  3.60009E+03  1.47518E+03 -2.16116E+03
  3.90648E+03  7.18399E+02 -1.31094E+03  7.65768E+03 -2.08323E+03 -1.08240E+02 -3.29327E+03 -2.60927E+03
 -1.17056E+03  4.93916E+02  2.96404E+02 -9.41398E+03  5.14994E+02 -2.70470E+03  2.18123E+03  4.60093E+03
 -9.93554E+02  4.92289E+03  1.37677E+03  1.41872E+03 -1.56778E+03  3.14466E+03 -6.24366E+02  4.26355E+02
 -8.26543E+02 -3.76706E+02 -1.97684E+03 -6.10617E+03  1.17437E+03  7.12376E+02  4.21286E+03 -3.41364E+02
 -5.69743E+02 -1.64633E+03  2.44812E+03 -4.06543E+02 -3.62751E+02 -1.73917E+03  4.48685E+02 -5.61229E+02
  6.28325E+02 -1.53328E+02  2.59882E+03 -5.00205E+02  3.97900E+02  3.12551E+03  4.01168E+03 -4.29340E+02
  3.74207E+03 -4.03737E+03 -2.53590E+03  9.71934E+02  1.84039E+03 -8.68718E+02 -1.32318E+03 -3.40496E+03
  4.92868E+02 -4.10461E+03  1.12614E+03  1.11102E+03  4.35053E+03 -3.27441E+03 -1.43630E+03  3.55327E+02
 -6.74570E+03  1.01405E+03 -9.31013E+02  3.01616E+02 -4.64391E+03 -5.13088E+03  2.26399E+02 -3.30312E+03
  3.27415E+02 -1.48864E+03  2.87633E+03 -2.78455E+03 -1.77989E+02  1.91742E+03 -1.11296E+02  3.73780E+03
  2.17376E+02 -2.79405E+03 -2.85035E+03 -1.42179E+03 -2.02472E+03 -8.13344E+02  2.73108E+03 -2.53568E+03
  1.78135E+03 -1.93238E+01  1.01967E+03  1.44857E+02  1.22657E+02 -3.85058E+02 -3.91645E+03  2.59985E+03
 -3.26793E+03 -3.27390E+03 -3.59075E+03  1.80444E+03 -3.41427E+00 -2.06209E+03  8.01750E+02 -1.65092E+03
  6.53877E+02 -3.30105E+03  3.48576E+02  4.33482E+02  1.26961E+03  1.56503E+02  5.46799E+01 -1.17290E+02
 -1.83328E+03  6.46158E+02 -2.32352E+03 -5.58978E+02 -2.30268E+03  3.86705E+01 -1.89922E+03  8.63876E+02
 -1.00818E+03  1.99256E+03 -3.77166E+03 -5.99482E+02  1.64192E+03 -7.07093E+02  7.09626E+02 -1.85620E+03
 -2.46327E+03 -6.76245E+03  1.45432E+03  7.10526E+01  6.76236E+02 -9.72746E+02 -6.93164E+02 -6.26574E+02
  3.16920E+03 -1.18729E+03 -2.26204E+03 -8.72469E+01 -1.77962E+03  4.60810E+03  1.98501E+03 -7.43318E+02
  1.50033E+03  6.09311E+02  5.26698E+01  2.13265E+03  2.11255E+03 -1.75315E+03 -2.88323E+03  8.36824E+02
  9.03833E+02 -7.83446E+00 -4.95254E+02  1.26270E+03  1.32732E+03  1.23782E+03  2.07825E+03 -2.13451E+02
  9.33708E+01  1.46420E+03 -2.21888E+03 -1.80819E+02 -2.94924E+03  2.21859E+03  1.88454E+03  1.70711E+03
 -3.27541E+02  1.76565E+03 -3.80749E+03  5.96123E+03 -2.75189E+03 -6.65070E+02 -1.13405E+02  9.21020E+02
 -1.70597E+03  5.44529E+02 -9.29536E+02 -4.96943E+03  8.38900E+01 -4.20005E+02 -8.82396E+02  1.33933E+03
 -2.43808E+03 -1.31591E+03  1.51510E+03 -3.55841E+03 -5.33553E+03 -8.32694E+02  1.49249E+02  2.89563E+03
  3.00173E+03 -2.60233E+01  2.84926E+03  1.27636E+02  2.81830E+02  1.91744E+03  2.40077E+03  7.02962E+01
  7.45790E+02 -2.99626E+03  1.53230E+03  1.36465E+03 -1.62699E+03 -2.44600E+03  2.47026E+03  4.90847E+02
 -5.66447E+03 -1.02741E+03 -1.03362E+03  1.64912E+03  1.44513E+02  3.20811E+03 -4.28986E+03  8.32181E+02
  2.99246E+03 -1.42817E+03 -1.20147E+03  2.87834E+03 -5.17407E+02  3.28438E+03 -3.76517E+02  2.18957E+03
 -2.25495E+03 -5.19741E+02 -4.00021E+02 -2.75913E+02 -4.66387E+03  8.69895E+02 -1.45385E+03 -2.99272E+03
  4.64848E+02  2.08897E+02 -1.54185E+03  1.59561E+02  1.29430E+03 -1.86039E+03  3.62857E+03  8.62199E+02
  1.57145E+03  2.73381E+03  1.51323E+02 -6.76137E+02 -2.63711E+02  1.08746E+03  1.50871E+03 -3.93736E+03
