 $NMID ID='MM_0lb_SNR50_16hz_g45_50.RAW', FMTDAT='(8E13.5)'
 TRAMP=1., VOLUME=1. $END
  3.08503E+05 -2.13959E+02  3.36419E+05  2.52017E+05  8.53789E+04  3.35127E+05 -1.32155E+05  2.49566E+05
 -1.89858E+05  8.04804E+04 -1.13675E+05 -3.07216E+04 -1.72564E+03 -4.95133E+04  5.33397E+04 -1.44412E+02
  3.71006E+04  5.57439E+04 -1.95558E+04  7.48859E+04 -6.06074E+04  6.30559E+04 -8.32103E+04  3.13807E+04
 -8.63222E+04 -1.39164E+04 -5.90101E+04 -4.85112E+04 -1.33371E+04 -7.02270E+04  2.35739E+04 -4.72643E+04
  4.68150E+04  5.49621E+02  1.64199E+04  4.55627E+04 -3.53823E+04  4.44610E+04 -6.85889E+04 -6.96800E+02
 -5.53302E+04 -5.93249E+04 -3.25301E+03 -7.72202E+04  3.33776E+04 -5.36246E+04  4.43883E+04 -1.44210E+04
  4.48523E+04  1.12053E+04  3.11641E+04  2.44927E+04  1.51344E+04  2.77523E+04 -2.08774E+03  3.03305E+04
 -1.84499E+04  1.41483E+04 -1.92954E+04 -7.07852E+03  3.72990E+03 -4.81022E+03  2.55402E+04  1.49149E+04
  5.82326E+03  3.86433E+04 -3.22408E+04  3.41242E+04 -6.07342E+04  1.87069E+03 -5.37165E+04 -4.73837E+04
 -9.41662E+03 -6.10685E+04  3.69874E+04 -4.56286E+04  5.55377E+04 -2.87832E+03  3.22628E+04  3.21213E+04
 -8.48113E+03  3.44542E+04 -2.69735E+04  1.17979E+04 -2.58296E+04 -7.41728E+03 -1.97803E+04 -8.97728E+03
 -4.71783E+03 -1.58517E+04 -9.86901E+02 -1.68280E+04  1.18147E+04 -2.58264E+04  1.28459E+04 -1.74660E+04
  1.15983E+04  6.68986E+03 -6.32329E+03  1.22529E+04 -2.65458E+04 -7.82685E+03 -4.96044E+03 -3.09556E+04
  2.21707E+04 -4.13479E+04  4.71492E+04 -1.82178E+04  4.55106E+04  2.13375E+04  1.38522E+04  3.95912E+04
 -1.71574E+04  3.12657E+04 -2.56822E+04  2.70286E+03 -1.05948E+04 -2.51326E+04  2.26402E+04 -3.36640E+04
  4.03683E+04 -4.77503E+03  2.98405E+04  2.17511E+04  2.16936E+04  4.59107E+04 -9.89588E+03  4.55746E+04
 -2.70124E+04  2.93506E+04 -3.85075E+04  1.31905E+04 -3.90452E+04 -2.05167E+04 -1.92458E+04 -3.52577E+04
  7.72729E+03 -3.77510E+04  3.43188E+04 -1.59846E+04  2.74289E+04  1.12903E+04  5.39954E+03  2.00218E+04
 -1.67454E+04  4.28038E+03 -8.05604E+03 -5.14802E+03  6.30100E+03 -8.44775E+03  2.17924E+04  2.59815E+03
  1.38316E+04  2.05003E+04 -5.83085E+03  2.73684E+04 -2.56150E+04  1.17698E+04 -2.73192E+04 -8.84878E+03
 -2.24509E+04 -1.91228E+04 -1.16949E+04 -1.49957E+04  1.31526E+03 -1.07352E+04  1.37624E+04 -1.47681E+04
  1.92901E+04 -8.85561E+03  2.80525E+04 -2.25482E+03  1.91229E+04  1.60438E+04  1.66186E+03  3.95219E+04
 -1.62436E+04  2.99907E+04 -2.87884E+04  1.05264E+04 -2.21451E+04 -8.64250E+03 -9.07310E+03 -1.62561E+04
  4.45286E+03 -4.32435E+03 -2.88278E+03  8.26859E+03 -1.38431E+04  4.49574E+03 -1.34048E+04 -4.43411E+03
 -1.14788E+04 -1.44642E+04  7.11777E+03 -1.92641E+04  1.58908E+04 -1.40428E+04  1.44356E+04  1.32519E+03
  1.33718E+04  9.55861E+03 -7.13463E+03  2.07470E+04 -1.24692E+04  1.01253E+04 -2.04389E+04 -9.30875E+03
 -1.36785E+04 -1.58339E+04 -4.91672E+03 -1.94141E+04  9.17470E+03 -1.38674E+04  1.47735E+04 -9.91448E+03
  8.78487E+03  2.24899E+02  1.22518E+04  7.57843E+03  2.70290E+03  2.03412E+02  6.87314E+03  2.09312E+03
  1.52676E+04  1.17069E+03  1.81254E+04  1.79572E+04  1.05612E+04  2.73044E+04 -2.93861E+03  2.91789E+04
 -1.91078E+04  2.39987E+04 -3.38464E+04  9.48552E+03 -2.48210E+04 -4.19977E+03 -2.61967E+04 -1.75512E+04
 -4.30930E+03 -2.25530E+04  8.26921E+03 -2.09594E+04  2.13643E+04 -1.02420E+04  1.68771E+04  3.64523E+03
  6.95802E+03  1.25308E+04 -5.46114E+03  1.45938E+04 -1.33800E+04  4.30183E+03 -1.14812E+04 -8.38734E+03
 -1.39154E+03 -1.45966E+04  7.90214E+03 -1.26437E+04  6.98486E+03 -7.93955E+02 -3.02605E+01  5.38392E+03
 -7.57514E+03  3.93342E+03 -3.15385E+03 -4.99388E+03 -6.90894E+02 -1.13227E+04  1.21234E+04 -1.09578E+04
  1.42304E+04 -8.43115E+03  1.52541E+04 -1.36344E+03  9.74754E+03  1.07038E+04  6.70924E+03  1.73195E+04
 -7.17801E+03  1.96859E+04 -1.32669E+04  1.09813E+04 -1.52455E+04  4.55504E+03 -9.12508E+03 -2.12137E+02
 -6.12685E+03 -1.82561E+03 -4.74240E+03 -1.96238E+02 -2.24099E+03  3.25416E+03 -6.21217E+03  2.75452E+03
 -1.02816E+04 -1.93915E+03 -1.07809E+04 -1.07538E+04 -6.37405E+03 -1.59873E+04  3.19952E+03 -1.01527E+04
  6.63296E+03  8.01662E+02  1.29817E+03  1.12867E+03  2.01217E+02  4.70618E+03 -2.31375E+03 -1.47268E+03
 -4.44692E+03 -5.25345E+03 -1.79218E+03 -1.01330E+04  5.51016E+03 -1.15601E+04  1.03954E+04 -8.85296E+03
  1.17188E+04  4.79224E+03  9.99917E+03  8.04030E+03  7.65075E+02  1.26336E+04 -7.79157E+03  1.04066E+04
 -6.80968E+03  4.47308E+03 -4.30891E+03 -1.02426E+03  6.47278E+02 -1.01822E+03  5.18470E+03  4.98429E+02
  4.31579E+03  5.08444E+03  4.64805E+03  6.48333E+03 -6.35218E+03  9.05630E+03 -1.11879E+04  3.22204E+03
 -6.19822E+03 -4.71258E+03 -1.59278E+03 -1.36586E+04  5.53202E+03 -2.38406E+03  1.92005E+03  2.06110E+03
  1.61846E+03  3.67007E+03 -6.92403E+03  4.64190E+03 -6.11371E+03  6.22824E+02 -9.39476E+02  3.71608E+03
 -6.14524E+03 -1.02892E+04  7.90707E+02 -7.39843E+03  9.08977E+03 -2.12184E+03  9.71573E+03 -7.69385E+02
  7.37683E+03  7.57503E+03  1.83587E+03  8.81923E+03 -2.02485E+03  6.03855E+03 -8.24196E+03 -1.95350E+03
 -1.05808E+04 -7.97368E+03 -7.03097E+02 -7.32409E+03  3.90974E+03 -9.36125E+03  1.90943E+03 -6.29364E+03
  1.68595E+03 -1.28543E+03  1.67085E+03  3.98066E+03  3.57483E+03 -9.87439E+01  1.64353E+03 -5.28006E+03
  5.14163E+03  9.05425E+02  9.77687E+03  1.57408E+03  1.06440E+04  1.93537E+03  7.95014E+03  1.05151E+04
 -1.88075E+03  1.64805E+04 -7.72567E+03  6.25404E+03 -1.02875E+04  4.63475E+03 -8.63830E+03 -4.61869E+03
 -6.73532E+03 -9.22375E+03  4.50513E+02 -1.02675E+04  4.22645E+03 -1.59194E+02 -2.58906E+03 -3.64561E+03
  1.61889E+03 -2.17888E+03  9.83852E+01 -2.20214E+03  3.89102E+03 -4.80950E+02  4.21952E+03 -4.00714E+03
  4.07187E+03  4.00078E+03  1.69450E+03  2.00795E+03 -4.85755E+03  8.69623E+02 -8.75239E+03  5.48736E+03
 -8.47511E+03 -7.57171E+02 -9.80887E+03 -1.33686E+03  4.93095E+03 -6.21084E+03  1.88090E+03 -5.90657E+03
  8.51571E+03 -5.84634E+03  5.30163E+03  5.24784E+03  1.07340E+04  4.20555E+03  1.25081E+03  1.38110E+04
 -3.88240E+03  3.09254E+03 -9.09449E+02  1.10817E+03 -3.40158E+03  1.87555E+02 -2.39622E+03  1.75169E+03
 -3.05706E+03  2.03883E+02  3.38765E+02  2.75184E+03 -6.13897E+03  4.59676E+03 -6.73971E+03 -6.34706E+02
 -2.21575E+03 -9.46656E+03  5.20790E+03 -1.02371E+04  6.16136E+03 -7.41432E+03  8.56341E+03  2.85889E+03
  6.67938E+03  3.09131E+03 -3.36481E+03  4.18803E+03  1.37887E+03  5.05358E+03 -8.06611E+03  1.77547E+02
 -9.59662E+03  2.03330E+03 -4.41254E+03 -4.87479E+03 -3.23954E+03 -6.43552E+03  2.10472E+02  9.33988E+02
 -1.93174E+03 -4.33894E+03  2.56376E+03  4.15941E+03 -2.61600E+03  4.89495E+03 -8.06964E+02 -3.36752E+02
  5.48793E+03  6.27899E+02  5.59454E+02  2.44827E+03  4.45145E+03  8.94227E+03 -1.63743E+03  4.19968E+03
 -1.75801E+03  8.58502E+03 -5.97188E+03  7.43672E+03 -2.18302E+03  1.61629E+03 -6.12282E+03 -9.21911E+02
 -1.42244E+03 -4.12202E+03  2.11376E+03 -9.60467E+03  4.59922E+03 -2.35424E+03  2.75407E+03  1.78450E+03
  2.53932E+02  1.60036E+03  3.40829E+02 -8.25698E+00 -1.22742E+01  5.25453E+03  4.96247E+03 -3.47756E+03
  1.26724E+03  7.53523E+02  1.83251E+03  7.97524E+02  5.44787E+03 -3.75426E+03  6.94565E+02  2.67707E+03
  1.83108E+03 -5.59276E+03 -3.83168E+03  5.45490E+02 -4.14963E+03  1.31582E+03  1.10714E+03  3.43487E+03
  2.59181E+03  7.19549E+02  3.19862E+03  2.22908E+03  6.69751E+03  1.73242E+03  4.49237E+03  5.03632E+03
 -2.62560E+03 -4.19139E+03 -6.59423E+03  2.42893E+03 -1.99190E+03  1.73073E+03  6.56787E+03  1.24457E+02
 -3.57952E+02  4.29871E+01  3.41583E+03 -3.41991E+03 -3.75727E+02  5.90965E+03  1.49974E+03 -2.74095E+03
 -5.82200E+03  2.96143E+03 -2.29554E+03 -1.99144E+03  2.52062E+03 -2.70124E+03  1.88400E+03 -3.12598E+03
  2.22384E+03 -1.12836E+03  7.13063E+02 -1.93613E+03  1.00563E+03 -3.35882E+03 -9.13205E+02  3.70376E+02
 -5.39095E+03  1.51384E+03 -2.59021E+03  2.66924E+03  1.32629E+03  7.52550E+02  5.33431E+03 -1.56303E+03
  2.36246E+03  2.41917E+03  2.38127E+03  8.51019E+02  4.03567E+03  6.51499E+03 -4.55923E+03  4.09875E+03
 -4.17506E+03  3.83585E+03 -3.36845E+03 -6.55603E+03 -4.05090E+03  1.74263E+03 -3.69962E+03  1.27483E+02
 -2.12778E+03 -4.48221E+02  3.67596E+03  1.88864E+03  2.24727E+03  2.98444E+03  2.90156E+03 -4.05886E+03
 -3.44611E+03  3.18930E+03 -1.11934E+03  3.09298E+03 -2.05988E+03  6.77491E+02 -1.51880E+03 -6.78544E+02
 -3.10086E+03  3.62286E+03 -4.37861E+03  5.72443E+03 -1.16674E+03 -2.65307E+03 -8.61754E+03 -2.23942E+03
 -2.25882E+03 -7.16739E+03  3.32392E+03 -2.06995E+03  1.60166E+03  5.57095E+02  7.38525E+03 -4.75453E+03
  2.30500E+03  2.40537E+03 -5.26704E+03  4.37087E+03  1.57133E+03  3.88329E+03  3.59779E+02  1.91885E+03
 -9.97144E+02  1.07486E+03 -4.92331E+03 -2.28377E+03 -3.68659E+03  3.85840E+03 -4.80389E+03  9.43058E+02
  2.10271E+03  3.45036E+03  2.29678E+03 -8.68009E+02 -2.00462E+03 -3.00634E+03  2.32501E+03 -3.06131E+03
 -4.98879E+03 -2.58846E+03 -9.11946E+02  5.04703E+03  6.74257E+03  1.20216E+03  3.65284E+03  5.22400E+03
 -4.75132E+03  5.52346E+03 -1.93746E+03  4.19485E+03 -4.67772E+03 -2.59281E+03 -3.19478E+03  1.59119E+03
 -3.19274E+03  1.94304E+03  5.01856E+03  3.44257E+02  2.25941E+03  2.40327E+03  4.63913E+03  2.78843E+03
  3.24963E+03 -1.87889E+02 -4.66654E+02 -2.25046E+03  3.99728E+03  6.50377E+02  2.50756E+03 -3.04141E+03
  7.47344E+02  3.31294E+02  3.41680E+03 -7.20768E+02 -1.34947E+03 -9.79713E+02  1.01743E+03  4.05403E+03
  5.51838E+02 -1.78969E+03 -8.14169E+02 -3.50187E+03 -1.88366E+02  1.19406E+02  3.20990E+03 -9.31161E+02
  1.23080E+03  1.43913E+03  6.86386E+03  5.24539E+02  4.05395E+03  4.81494E+02  4.40943E+03 -2.52438E+03
  1.35242E+03 -1.04540E+03  6.93959E+02 -7.72297E+02 -2.56452E+03 -6.42017E+02  9.39603E+02 -3.88217E+03
  1.37732E+03  3.05588E+03  4.19713E+03  9.51122E+02 -4.97887E+03  2.30044E+02 -2.60501E+03  1.53171E+03
 -3.15491E+03 -3.06659E+03 -1.78105E+03  1.01309E+02  4.09946E+02 -8.88137E+02  1.46345E+03 -1.97425E+03
  3.79777E+02  3.99341E+03 -2.33950E+02 -5.22234E+03 -4.56272E+03  6.74032E+03  1.53253E+03  4.44608E+03
