 $NMID ID='MM_0lb_SNR50_9hz_g45_2.RAW', FMTDAT='(8E13.5)'
 TRAMP=1., VOLUME=1. $END
  3.14710E+05  1.51745E+01  3.40731E+05  2.50546E+05  8.32685E+04  3.37016E+05 -1.33912E+05  2.48696E+05
 -1.84503E+05  8.17128E+04 -1.13899E+05 -3.70577E+04 -1.93996E+03 -4.93875E+04  5.61330E+04  1.08598E+03
  3.43723E+04  5.34998E+04 -1.42245E+04  8.39577E+04 -6.52286E+04  6.75721E+04 -9.15468E+04  3.38246E+04
 -8.84679E+04 -1.04448E+04 -6.05288E+04 -4.82126E+04 -1.43288E+04 -6.73233E+04  2.32189E+04 -5.31488E+04
  4.20146E+04  8.22953E+03  2.02481E+04  4.93036E+04 -3.83607E+04  4.47689E+04 -6.67229E+04  4.83583E+03
 -5.93356E+04 -6.61564E+04 -7.84137E+03 -7.54029E+04  3.76595E+04 -5.18484E+04  5.05078E+04 -1.72014E+04
  5.05447E+04  1.47790E+04  3.22529E+04  2.48629E+04  1.46526E+04  2.35030E+04 -3.13325E+03  2.60168E+04
 -2.73895E+04  9.97146E+03 -1.36829E+04 -3.36637E+03  5.49889E+03 -7.13183E+03  2.82928E+04  1.55683E+04
  5.77522E+03  3.55371E+04 -3.15848E+04  3.28798E+04 -6.60161E+04  1.40111E+03 -5.77896E+04 -4.36825E+04
 -1.77574E+04 -6.29367E+04  4.20093E+04 -4.50729E+04  5.65208E+04  1.72103E+03  3.39833E+04  3.90684E+04
 -1.05179E+04  3.86156E+04 -2.82295E+04  1.51111E+04 -2.73507E+04 -1.32967E+03 -1.65328E+04 -9.67949E+03
 -8.04904E+03 -1.09644E+04  4.79555E+02 -2.03017E+04  1.22352E+04 -2.32777E+04  1.51351E+04 -9.57487E+03
  8.85925E+03  1.44814E+03 -1.08067E+04  1.71278E+04 -2.71249E+04 -4.58585E+03 -6.39796E+03 -3.21883E+04
  2.61654E+04 -4.58703E+04  4.58179E+04 -2.60406E+04  4.59024E+04  1.89763E+04  1.83538E+04  4.95698E+04
 -2.18105E+04  3.73165E+04 -3.03283E+04  1.00329E+04 -4.10141E+03 -3.99704E+04  2.04046E+04 -3.59548E+04
  4.70357E+04 -1.22944E+04  3.76707E+04  2.87612E+04  2.23879E+04  4.48375E+04 -9.92348E+03  5.83171E+04
 -3.52129E+04  3.17012E+04 -4.92401E+04  7.09094E+03 -4.44923E+04 -1.99801E+04 -2.96409E+04 -4.52940E+04
  9.50721E+03 -3.79482E+04  3.41522E+04 -1.74858E+04  3.10038E+04  1.39591E+04  6.68472E+03  1.88272E+04
 -1.59438E+04  6.50884E+03 -1.17245E+04 -9.05811E+03  2.85134E+03 -6.86502E+03  1.68319E+04  5.20413E+03
  2.04079E+04  2.52464E+04 -5.16738E+03  2.87861E+04 -1.73868E+04  1.28774E+04 -3.54755E+04 -1.94004E+03
 -2.95518E+04 -2.12500E+04 -1.10811E+04 -2.33473E+04  1.20526E+04 -2.20528E+04  2.21044E+04 -2.66684E+04
  3.10180E+04 -1.73678E+04  4.00256E+04  1.04470E+04  3.04250E+04  2.04097E+04  5.60498E+03  4.85715E+04
 -1.82809E+04  3.25548E+04 -2.89065E+04  1.52335E+04 -2.54348E+04 -9.33057E+03 -5.42586E+03 -1.39124E+04
  5.67765E+03 -6.76251E+03 -1.25730E+04  5.79325E+03 -2.69851E+04  6.23747E+03 -1.69007E+04  8.77971E+02
 -1.43217E+04 -2.79076E+04  5.06652E+03 -3.08174E+04  2.00916E+04 -2.15797E+04  2.33219E+04 -4.64905E+03
  1.49172E+04  1.52363E+04 -3.21584E+03  1.59020E+04 -1.91804E+04  1.43111E+04 -1.98299E+04 -1.08417E+04
 -1.27621E+04 -2.24268E+04 -7.37841E+02 -2.73498E+04  1.36582E+04 -2.59482E+04  1.84538E+04 -1.73255E+04
  1.39884E+04 -3.42434E+02  1.87851E+04  3.58425E+03  1.10553E+04  8.79958E+03  5.42731E+03 -4.83641E+02
  2.17282E+04  4.12604E+03  2.36934E+04  1.30758E+04  1.59237E+04  3.53380E+04 -5.67535E+03  4.13393E+04
 -2.80598E+04  3.21835E+04 -3.87909E+04  2.16613E+04 -4.49469E+04 -5.82544E+03 -4.06400E+04 -2.83173E+04
 -1.55587E+04 -3.17113E+04  2.18625E+04 -3.19559E+04  2.57081E+04 -1.23053E+04  2.19388E+04  8.95859E+03
  7.57180E+03  1.74189E+04 -1.05894E+04  1.78154E+04 -1.90256E+04  7.80635E+03 -1.02347E+04 -1.10005E+04
  1.75837E+03 -1.78169E+04  1.27704E+04 -1.60622E+04  1.53323E+04 -4.02832E+03  2.68010E+03  1.34125E+04
 -9.96521E+03  1.56288E+03 -1.16761E+04 -5.55417E+03 -1.20919E+03 -2.09201E+04  1.63019E+04 -1.85165E+04
  2.08424E+04 -1.63420E+04  2.00864E+04  3.82781E+03  2.29995E+04  2.27755E+04  1.46171E+04  3.31400E+04
 -3.79654E+03  2.39630E+04 -1.86850E+04  1.60929E+04 -2.22049E+04  7.55378E+02 -1.46868E+04  3.92008E+03
 -6.02526E+03 -8.76173E+03  5.18685E+02 -3.01030E+03 -5.53755E+03  4.89681E+03 -8.40588E+03 -2.30386E+03
 -7.66279E+03 -9.53619E+02 -1.52236E+04 -1.10519E+04  6.62668E+02 -2.15606E+04  2.95351E+03 -1.75845E+04
  1.16274E+04 -7.50851E+03  8.93268E+03  8.36342E+01  7.80813E+02  7.79438E+03 -1.26227E+03  3.80494E+03
 -3.92274E+03 -6.98801E+03 -3.21513E+03 -1.38398E+04  1.00547E+04 -1.89503E+04  2.16431E+04 -4.49688E+03
  2.09653E+04  6.22711E+03  1.79315E+04  1.58781E+04  2.87801E+03  1.74311E+04 -7.74262E+03  1.14021E+04
 -1.19684E+04  1.03230E+04 -7.65108E+03 -2.45556E+03  3.86582E+03 -5.52124E+03  2.90519E+03  2.14121E+03
  3.51877E+03  3.24311E+03  1.33207E+03  1.29490E+04 -7.35152E+03  8.43241E+03 -1.83489E+04  2.39705E+03
 -1.39258E+04 -4.02901E+03  4.73176E+03 -1.51234E+04  1.19648E+04 -8.28783E+03  8.57496E+03  2.60651E+03
  4.55174E+03  1.13645E+04 -1.00322E+04  6.65427E+03 -1.00537E+04  5.71100E+03 -1.20935E+04 -4.83049E+03
 -2.41473E+03 -1.26487E+04  9.86055E+02 -2.19640E+04  8.54723E+03 -1.55160E+04  2.19536E+04  1.96073E+03
  9.01250E+03  1.14371E+04  5.27052E+03  1.55339E+04 -1.34553E+04  1.26544E+04 -1.32811E+04  2.83445E+03
 -7.12850E+03 -1.41356E+04  2.79349E+03 -1.31640E+04  1.29325E+04 -1.10107E+04  6.53999E+03 -1.93176E+03
  6.74388E+03  2.27099E+03 -1.01566E+03  3.22149E+03 -1.74188E+03 -2.68153E+03 -1.06778E+03 -5.18654E+03
  1.98013E+04 -6.86182E+03  1.74836E+04  6.90259E+02  1.15070E+04  4.34829E+03  1.51427E+04  2.49315E+04
  1.52708E+02  2.86043E+04 -1.61801E+04  1.81123E+04 -2.50934E+04  6.14567E+03 -1.43429E+04 -5.94657E+03
 -1.22072E+04 -1.96184E+04  1.53428E+03 -1.72554E+04  8.42369E+03 -5.93159E+03  8.85795E+03 -3.18229E+03
  1.29904E+03 -9.46898E+03  4.58275E+03 -1.14375E+02  8.03443E+03 -1.20695E+03  4.67769E+03 -4.90320E+03
  5.72536E+03  5.05716E+03  4.08537E+03  1.07097E+04  1.68587E+03  1.29258E+04 -1.07531E+04  8.52794E+03
 -2.08126E+04 -3.20205E+02 -1.21751E+04 -6.15721E+03 -7.85772E+02 -1.84245E+04  4.67600E+03 -1.20283E+04
  1.26340E+04 -9.57263E+03  2.12764E+04  3.04700E+03  1.68360E+04  1.78999E+04  1.02347E+04  1.41783E+04
 -4.01984E+03  1.94177E+04 -5.00698E+03  1.13239E+04 -4.22479E+03 -7.31449E+02  2.04920E+03  3.47252E+03
 -2.48334E+03 -8.13178E+03 -5.08675E+03  9.41815E+03 -2.23442E+03  7.77085E+02 -7.44316E+03  2.72779E+03
 -3.22054E+03 -1.27468E+04 -9.05868E+01 -1.03864E+04  4.33431E+03 -6.86425E+03  9.73174E+03 -4.96362E+03
  1.27829E+04  3.88661E+03  1.44447E+04  4.73478E+03 -6.34468E+02  1.40280E+04 -7.99720E+03  9.93031E+03
 -1.15146E+04 -6.18197E+02 -1.58893E+04 -1.48441E+04  2.13202E+03 -1.21974E+04  6.87396E+03 -1.11724E+04
  1.31410E+04 -3.18680E+03  6.53725E+03  4.47278E+03  8.55161E+02  7.32051E+03  1.19214E+03  4.16331E+03
  4.17170E+03 -1.26816E+03  3.94087E+03  6.10542E+03  7.69208E+03  5.93561E+03  3.27605E+03  1.00739E+04
  5.95455E+02  7.60972E+03 -1.71110E+04  1.32965E+04 -2.05434E+04  8.74654E+02 -7.83983E+03 -3.00388E+03
 -6.28329E+03 -1.50133E+04  4.90947E+03 -1.33134E+04  1.04952E+04 -1.10064E+04  1.18467E+04 -8.20291E+02
  1.28905E+04  6.41408E+03  7.28459E+03  6.88302E+03 -6.15460E+03  6.16701E+03 -8.65913E+03 -4.35033E+03
 -3.12989E+03 -1.20346E+04  5.78584E+03 -6.88066E+03  5.18406E+03  8.56337E+01  2.27946E+03 -8.91611E+02
  2.10434E+03  9.04973E+02 -4.92367E+02  7.50127E+03  1.99036E+03 -1.06658E+03 -2.21314E+03  4.48107E+03
  4.92193E+03 -3.21294E+03  5.95996E+03  6.30360E+03  6.76714E+03  6.33851E+03 -8.74599E+02  5.77169E+03
 -2.30495E+03  5.52073E+03 -1.49901E+04  1.13594E+03 -1.43760E+04 -1.37599E+04 -1.15043E+04 -2.21967E+03
 -1.49201E+03 -1.03423E+04  2.90426E+03 -3.98703E+03  3.31551E+03  1.15365E+03 -8.12308E+03  6.79550E+03
 -3.37735E+03  2.70502E+03  1.84155E+03 -1.39272E+03 -1.10077E+04 -9.54632E+03 -1.86699E+03 -3.07264E+03
  5.40848E+03 -2.38163E+03  8.36785E+03 -5.53808E+03  9.93447E+03 -5.07171E+03  3.71533E+03  1.39429E+04
 -3.17888E+03 -9.28041E+02 -1.11573E+03 -3.69696E+03  3.66528E+03 -3.52376E+03  4.88439E+03 -7.07785E+03
  5.99552E+03  7.14651E+02  3.32748E+03  3.03082E+03 -2.25728E+03  7.32782E+03 -3.49098E+02  8.20372E+03
 -9.05437E+03  3.81992E+03 -2.73440E+03 -5.13061E+02 -2.67437E+03 -5.52576E+03  1.29973E+03 -1.69773E+03
  1.25702E+04 -3.50473E+03  6.92469E+03  2.46540E+03  8.81127E+02  6.58053E+03 -5.08791E+03  3.24866E+03
  7.76083E+02 -3.30967E+03 -6.36527E+03  6.17587E+03  3.98147E+01 -4.14929E+02 -1.91549E+02  5.18148E+03
 -7.35223E+03  6.74088E+03 -1.17067E+04  2.67379E+03 -6.15813E+03 -4.13675E+02 -4.76900E+03 -3.82492E+03
 -9.68951E+03 -1.28254E+04  4.52920E+03 -1.12891E+04  1.09837E+04 -1.32493E+04  1.04764E+04 -3.56725E+03
  1.17010E+04 -3.16424E+02  6.39344E+03  1.06101E+04  6.89068E+02  9.29761E+03 -5.83443E+03  7.04489E+03
 -5.33214E+03  7.58539E+03 -9.92300E+03 -3.17748E+03  1.36549E+03  2.10455E+03 -8.32323E+02  1.41990E+03
 -4.87711E+03 -4.62163E+03 -3.22708E+03  5.51890E+03 -3.59558E+03 -5.14365E+03  3.20519E+03 -3.29011E+03
  3.68516E+03  5.30517E+03  7.36337E+03  4.46105E+03  1.64605E+03  6.18623E+03  1.63420E+03  1.45734E+04
 -8.96649E+03  8.98029E+03 -8.42506E+03  7.33646E+03 -8.66576E+03 -1.31808E+03 -1.02335E+04 -8.76431E+03
 -1.30601E+04 -1.03882E+04  3.28686E+02 -5.43890E+03  9.13159E+02 -8.48402E+03  7.26822E+03 -1.17688E+03
  3.97539E+03  2.54097E+03  3.30049E+03  1.38499E+04 -8.39932E+02 -2.93015E+03 -2.64668E+03 -7.54438E+03
  3.39431E+02 -7.09627E+03  2.83502E+03  6.42637E+03  3.08367E+03  7.41836E+03  3.40185E+02  6.48635E+03
 -2.00481E+03  8.29477E+03  6.24648E+02 -2.12527E+03 -1.05540E+04 -3.13579E+03  4.64882E+03 -2.95699E+03
  3.83815E+03 -1.17440E+04  1.37965E+03 -6.40570E+03  7.10139E+03  2.44605E+03  4.42570E+03  9.25272E+03
 -1.90004E+03  5.78647E+03  2.55157E+03  3.99113E+03 -8.20037E+03  9.52751E+03 -4.79190E+03 -1.39876E+03
  2.40131E+02  1.43199E+03 -2.11376E+03  2.00399E+03 -3.90718E+03  4.21276E+03 -9.36009E+03 -5.00679E+02
 -7.86103E+03 -9.55030E+02  4.19072E+03 -5.46524E+03  5.84334E+03 -1.06206E+04  5.92485E+03 -6.40061E+03
  5.30904E+03  1.35975E+03  6.03570E+03  8.07341E+03  3.56091E+02  6.89717E+03 -3.89350E+03  3.46804E+03
