 $NMID ID='MM_0lb_SNR50_9hz_g50_36.RAW', FMTDAT='(8E13.5)'
 TRAMP=1., VOLUME=1. $END
  3.10533E+05 -1.33219E+02  3.43119E+05  2.53761E+05  8.66702E+04  3.32216E+05 -1.25389E+05  2.56546E+05
 -1.93769E+05  8.21575E+04 -1.15807E+05 -3.34211E+04 -2.03911E+03 -4.89577E+04  5.40971E+04 -3.51597E+03
  3.83596E+04  4.82554E+04 -2.22721E+04  7.90807E+04 -5.89443E+04  6.61678E+04 -8.21059E+04  3.68057E+04
 -8.74074E+04 -1.14481E+04 -6.10192E+04 -4.76817E+04 -1.66327E+04 -7.10327E+04  3.05221E+04 -4.21069E+04
  3.91116E+04  4.51272E+03  1.71476E+04  5.14659E+04 -3.08033E+04  4.68307E+04 -7.01673E+04  4.93196E+02
 -5.35907E+04 -5.95450E+04 -8.41953E+03 -8.03078E+04  3.94335E+04 -5.14741E+04  5.54525E+04 -1.31143E+04
  4.67894E+04  7.82801E+03  3.04878E+04  2.31690E+04  1.65605E+04  2.78385E+04 -1.24708E+04  3.14405E+04
 -2.38090E+04  1.51650E+04 -2.98923E+04 -5.36464E+03  1.01495E+04 -7.61995E+03  2.35116E+04  1.38514E+04
  9.04248E+03  4.09195E+04 -3.77324E+04  4.26976E+04 -6.45791E+04  1.11738E+04 -6.40671E+04 -4.75525E+04
 -1.10866E+04 -6.49419E+04  4.14923E+04 -5.39183E+04  6.08689E+04 -2.16262E+03  3.99082E+04  3.79649E+04
 -1.21251E+04  3.70642E+04 -3.65971E+04  1.78211E+04 -3.49230E+04 -1.50308E+03 -1.70666E+04 -1.17356E+04
 -1.70431E+04 -1.32343E+04 -2.80715E+03 -2.42976E+04  9.36953E+03 -2.74167E+04  1.44932E+04 -1.09821E+04
  1.46251E+04  3.80965E+03 -6.77922E+03  1.61251E+04 -2.26145E+04 -2.07096E+02 -4.17699E+03 -3.22914E+04
  2.58373E+04 -4.86758E+04  5.15381E+04 -1.89627E+04  4.89676E+04  2.08029E+04  1.78637E+04  5.01017E+04
 -1.59008E+04  3.32960E+04 -3.12436E+04  3.99214E+03 -1.37288E+04 -3.47204E+04  1.77131E+04 -3.05198E+04
  3.96253E+04 -1.03988E+04  3.94000E+04  2.51111E+04  1.73466E+04  5.13391E+04 -1.10818E+04  5.25857E+04
 -4.07109E+04  3.87188E+04 -5.23746E+04  1.49682E+04 -4.51550E+04 -2.30657E+04 -2.34842E+04 -3.99168E+04
  5.79895E+03 -5.12433E+04  3.13768E+04 -1.25979E+04  3.91978E+04  1.44083E+04  7.53965E+02  2.52931E+04
 -1.19792E+04  6.28819E+03 -1.16125E+04 -9.47614E+03  1.84209E+03 -1.57625E+04  2.20705E+04  6.27534E+03
  1.17331E+04  2.74048E+04 -5.87282E+03  2.43273E+04 -2.21121E+04  1.46214E+04 -3.23587E+04 -1.28931E+02
 -2.72798E+04 -9.04894E+03 -8.29851E+03 -2.03933E+04  3.47297E+03 -2.75332E+04  2.56354E+04 -2.28228E+04
  2.98535E+04 -1.31598E+04  3.39663E+04  9.05734E+03  2.19280E+04  2.65546E+04  2.61460E+03  4.37413E+04
 -1.88215E+04  3.72349E+04 -2.64673E+04  1.56966E+04 -2.30866E+04 -1.17478E+04 -3.78425E+03 -1.18965E+04
 -3.07182E+03 -2.02327E+03 -7.81074E+03  8.13235E+03 -1.56229E+04 -2.09035E+03 -1.62482E+04 -2.55974E+03
 -1.07954E+04 -1.90531E+04  4.58388E+03 -3.84672E+04  1.83627E+04 -1.63128E+04  2.18908E+04 -9.91977E+02
  1.33435E+04  1.60509E+04 -3.67807E+03  1.91772E+04 -2.28516E+04  1.23373E+04 -2.71573E+04 -3.79861E+03
 -1.73610E+04 -1.82367E+04 -2.60807E+03 -3.39279E+04  1.91528E+04 -3.38953E+04  1.89542E+04 -7.46501E+03
  2.50178E+04  1.13866E+02  1.61137E+04  3.44248E+03  9.71754E+03  3.34468E+03  5.28710E+03  7.29955E+02
  1.73044E+04  7.62541E+03  3.05209E+04  1.61610E+04  2.23709E+04  3.88858E+04 -2.21997E+03  4.22210E+04
 -2.06925E+04  3.68789E+04 -4.02510E+04  1.92986E+04 -4.29088E+04 -4.13985E+02 -3.52699E+04 -2.65921E+04
 -1.71599E+04 -3.94596E+04  1.20960E+04 -3.65916E+04  3.03452E+04 -1.92278E+04  1.87709E+04  7.14588E+03
  4.59756E+03  2.16590E+04 -8.85979E+03  1.95402E+04 -2.16784E+04 -2.24581E+03 -1.53762E+04 -1.19281E+04
 -8.33949E+03 -1.36977E+04  5.57422E+03 -1.22583E+04  1.44687E+04 -1.52632E+03  4.24369E+03  5.24458E+03
 -8.79201E+03  3.85376E+03 -1.46704E+04 -8.91719E+03  2.00213E+03 -2.19836E+04  1.46307E+04 -2.38597E+04
  2.35993E+04 -5.49923E+03  2.46523E+04  2.88583E+03  2.19230E+04  1.67630E+04  1.58251E+04  2.73487E+04
 -1.26398E+04  3.16521E+04 -2.41665E+04  2.06753E+04 -2.04107E+04  1.84564E+03 -1.58687E+04 -7.70899E+03
 -4.49473E+03 -8.52636E+03  4.17465E+03 -4.30489E+03 -6.37184E+03  6.35679E+03 -1.45829E+04  2.79105E+03
 -1.53905E+04  1.48979E+03 -1.31792E+04 -7.64677E+03 -6.56058E+03 -1.41583E+04  5.97908E+03 -2.11741E+04
  1.34685E+04 -7.61917E+03  1.18281E+04  3.66726E+03  1.59231E+03  6.67891E+03 -1.65210E+04  2.55865E+03
 -1.77955E+04 -1.40105E+04 -1.14056E+03 -1.94388E+04  9.20674E+03 -1.99842E+04  1.80281E+04 -1.44039E+04
  2.19092E+04  2.44797E+03  1.34631E+04  1.28614E+04  8.36600E+03  1.80255E+04 -4.89547E+03  2.17154E+04
 -1.49774E+04  1.50106E+03 -9.36691E+03 -6.03627E+02  1.28028E+03 -9.66384E+03  8.57640E+03  7.52430E+03
  9.90743E+03  6.96870E+03  4.58413E+03  1.24771E+04 -1.11036E+04  1.45802E+04 -1.56743E+04  2.38160E+03
 -1.22699E+04 -4.59231E+03 -6.73602E+02 -1.32815E+04  7.00351E+03 -5.83664E+03  1.19829E+04  4.81512E+03
 -2.01382E+02 -6.14762E+02 -8.34541E+03  1.16568E+04 -1.29413E+04  1.06779E+01 -1.04373E+04  2.88405E+02
 -1.20277E+04 -1.39123E+04  6.01791E+03 -2.27288E+04  1.83952E+04 -1.45927E+04  1.58627E+04  3.20601E+03
  1.14268E+04  1.03668E+04  3.44526E+03  1.78867E+04 -5.80681E+03  7.75777E+03 -7.92118E+03  4.45297E+01
 -1.60939E+04 -1.27384E+04  3.06950E+03 -1.90874E+04  3.86392E+03 -1.40039E+04  9.74041E+03 -2.94742E+03
  2.37097E+03  9.05132E+03  2.23487E+03  1.83831E+03 -2.10708E+03  6.51827E+02 -2.25555E+03 -7.33610E+03
  5.37808E+03  1.39497E+02  2.04261E+04  2.24475E+03  1.64384E+04  9.39668E+03  4.99848E+03  2.26927E+04
 -3.77067E+03  2.78847E+04 -1.31663E+04  1.59803E+04 -3.22654E+04 -8.31101E+02 -1.80094E+04 -3.66149E+03
 -1.36252E+04 -1.96164E+04 -1.72336E+03 -1.80294E+04  1.43134E+04 -5.59714E+03  6.40382E+03 -9.15755E+03
  6.77890E+03 -4.68136E+03 -1.07056E+03 -7.58039E+03  1.05446E+04 -6.60659E+03  1.00170E+04 -2.88652E+03
  1.35571E+04  1.87078E+03  8.75479E+02  1.03925E+04 -1.29399E+03  1.22951E+04 -1.22397E+04  1.24437E+04
 -1.68389E+04  3.43216E+02 -1.31050E+04 -1.12825E+04 -4.16921E+03 -1.49218E+04  4.91884E+03 -1.48860E+04
  2.32408E+04 -5.46222E+03  1.78367E+04  8.76246E+03  1.17203E+04  9.88924E+03  4.64674E+03  1.97199E+04
 -8.16409E+03  1.10894E+04 -1.08465E+04  1.10301E+04 -7.93334E+03 -6.21103E+03 -5.78853E+02 -4.43532E+03
 -4.21701E+03 -2.78224E+03 -1.99627E+03  4.93309E+03 -3.38887E+03 -1.61513E+03 -1.37431E+04 -1.32002E+03
 -3.65436E+03 -6.60530E+03  2.07782E+03 -1.78554E+04  5.33738E+03 -9.30461E+03  1.25781E+04 -6.33442E+03
  1.92741E+04  5.56172E+03  2.19435E+03  9.87933E+03 -7.94113E+03  1.42020E+04 -8.41760E+03  9.29337E+03
 -1.71370E+04  7.97548E+03 -9.44270E+03 -7.29181E+03 -1.04705E+03 -7.62065E+03  6.87940E+03 -1.14675E+04
  8.41741E+03 -3.16909E+03  9.04228E+03 -8.86732E+00  3.53276E+03  2.72299E+03  7.89897E+02  3.34693E+03
  9.55594E+03 -2.99355E+03  7.36617E+03  2.10219E+03  1.08611E+03  2.34202E+03  7.92286E+03  6.36739E+03
  1.01146E+03  1.79939E+04 -8.10712E+03  9.02120E+03 -1.65512E+04  3.24554E+03 -1.79157E+04 -4.17798E+03
 -5.77718E+03 -1.72956E+04 -1.21304E+03 -1.29882E+04  6.27846E+03 -1.00292E+04  1.80823E+04  4.69190E+02
  9.55491E+03  4.24780E+03  3.51475E+03  5.43761E+03 -3.28813E+03  1.37345E+04 -1.09970E+04  6.10617E+03
 -2.53423E+03 -6.10407E+03  7.22626E+02 -6.67758E+03  3.07974E+03 -2.49242E+03  1.02373E+04  1.85508E+02
  3.62126E+03  4.73736E+03 -5.87819E+03  2.62145E+03 -3.42969E+03  3.65530E+03  4.30713E+03  8.33063E+02
  5.89006E+03  1.84835E+03  7.39673E+03 -6.92849E+02 -5.05811E+03  8.10625E+03 -2.63088E+03  1.13117E+04
 -9.70539E+03  1.39224E+04 -9.98778E+03 -3.76658E+03 -5.38359E+03 -4.01681E+03  1.45587E+02 -8.33843E+03
  1.70138E+03 -1.01153E+04  7.56705E+03 -3.94885E+03 -7.92803E+02  2.54091E+03 -1.97370E+02  6.81826E+03
 -3.48738E+03  6.71682E+03 -6.18790E+03 -6.95762E+02 -7.94437E+03 -8.18772E+03  3.50323E+01 -5.03577E+03
  4.66439E+03 -6.16094E+03 -3.59014E+03 -1.90733E+03 -2.19633E+03  5.24857E+03  1.69753E+03  4.20363E+03
 -4.61632E+03  7.54839E+02 -1.03020E+04 -1.60527E+03  3.57012E+03 -3.92501E+03  9.96875E+03 -4.89317E+02
  1.24995E+04  3.16658E+03  7.67151E+03  3.69435E+03  2.69403E+03  1.24207E+04 -6.31507E+03  4.64164E+03
 -9.19136E+03  3.96171E+03 -1.22658E+04 -2.28987E+03 -2.34924E+03 -3.46454E+03  7.17953E+03 -3.41546E+03
  8.75262E+03 -7.39690E+03  2.23631E+03  4.33087E+03  2.95728E+03  8.86569E+03 -4.04930E+03  6.05675E+03
 -6.78640E+03  1.64790E+03 -1.39150E+03  1.13350E+03 -5.81038E+02  1.74478E+03 -1.23132E+03  3.78704E+03
  1.09108E+02  3.06193E+03 -3.68708E+03 -2.01814E+03 -7.35443E+03  1.62435E+03 -6.53207E+03 -1.83409E+03
 -2.78798E+03 -1.14928E+04  1.97913E+03 -1.76195E+04  8.64139E+03 -1.29039E+04  1.72031E+04 -5.10170E+03
  1.25375E+04  2.96901E+03  9.75153E+03  1.04343E+04  2.30058E+03  1.13094E+04 -7.01586E+03  8.69828E+03
 -1.11632E+04  5.90536E+03  1.60685E+03 -5.34159E+02  4.07582E+03 -3.24235E+03  2.05262E+03  1.14508E+03
 -2.59687E+03 -4.72562E+03 -1.45955E+02  1.48883E+03 -5.57845E+03 -4.03581E+03 -9.00195E+02 -6.77552E+03
 -6.01958E+02 -6.46400E+03  2.15715E+03 -6.08183E+00  1.90336E+03  1.99060E+03  3.30691E+03  1.65977E+04
 -8.91476E+03  9.78602E+03 -8.80692E+03  1.14425E+04 -1.07989E+04  5.46971E+02 -7.93570E+03 -4.54792E+03
 -1.16770E+03 -1.37422E+04 -2.71176E+03 -8.78172E+03  1.03332E+04 -1.16577E+04  6.06540E+03  3.82926E+03
  5.59761E+03  4.79464E+03 -1.14685E+03  6.40997E+03 -5.34252E+03 -2.99548E+02 -2.32561E+03 -4.33940E+03
  7.09313E+01  3.17130E+03  9.04457E+03 -2.37250E+03  3.19289E+03  9.67050E+03 -1.29786E+03  2.54600E+03
 -9.03030E+03  3.28275E+03 -8.33201E+03 -5.63408E+02 -2.58190E+03 -7.89022E+03  4.02280E+02 -1.01343E+04
  3.36561E+03 -1.60280E+04  7.94134E+03  9.59085E+02  8.91806E+03  1.13863E+03  3.72469E+03  4.47538E+03
 -6.00632E+02  4.43666E+03  3.32706E+03  7.83770E+03 -3.01168E+02  1.22569E+01 -6.94434E+03 -6.75952E+02
 -7.08346E+03 -1.69900E+03  6.70295E+02 -4.80054E+03 -4.21898E+03  1.97512E+03 -1.47423E+04 -4.03445E+03
 -5.59426E+03 -2.94871E+03  1.99686E+03 -6.82713E+03  1.57648E+03 -1.13288E+04  7.14972E+03 -2.62338E+03
  8.40540E+03  1.13406E+03  3.82407E+03  7.01674E+03  5.05643E+03  9.59982E+03  7.70675E+02  9.20621E+03
