 $NMID ID='MM_0lb_SNR50_11hz_g50_36.RAW', FMTDAT='(8E13.5)'
 TRAMP=1., VOLUME=1. $END
  3.10648E+05  1.81253E+03  3.41571E+05  2.46432E+05  8.59456E+04  3.34947E+05 -1.28203E+05  2.48263E+05
 -1.95206E+05  8.42234E+04 -1.08023E+05 -3.24959E+04  2.25912E+03 -5.57467E+04  5.31974E+04  5.13300E+03
  3.51974E+04  5.40330E+04 -2.16806E+04  7.48460E+04 -6.28253E+04  5.97346E+04 -8.58745E+04  3.05923E+04
 -7.82867E+04 -1.00237E+04 -5.35057E+04 -5.34733E+04 -1.90173E+04 -6.93840E+04  2.44317E+04 -5.34585E+04
  3.72938E+04  5.57242E+03  1.57063E+04  4.37849E+04 -3.88602E+04  4.71036E+04 -6.76796E+04  2.13500E+03
 -5.43104E+04 -5.99641E+04 -8.39241E+02 -7.85307E+04  3.87335E+04 -5.93469E+04  4.59471E+04 -2.23866E+04
  4.26683E+04  1.43851E+04  3.47440E+04  2.10223E+04  1.57274E+04  3.07076E+04 -8.62209E+03  2.82006E+04
 -2.30697E+04  1.25260E+04 -1.80796E+04 -7.42710E+03 -2.80304E+03 -6.58890E+03  2.47224E+04  1.51511E+04
  1.14670E+04  3.60725E+04 -3.46121E+04  2.92314E+04 -6.63709E+04  2.43715E+03 -6.10291E+04 -4.19173E+04
 -1.26343E+04 -6.08174E+04  4.16897E+04 -4.67364E+04  5.68935E+04 -7.88402E+03  3.75945E+04  3.88458E+04
 -8.70193E+03  3.71527E+04 -3.34667E+04  1.92566E+04 -3.11180E+04 -4.60446E+03 -1.92544E+04 -8.01054E+03
 -1.03209E+04 -1.92451E+04 -8.97974E+02 -2.22423E+04  9.09596E+03 -2.50967E+04  1.79965E+04 -9.22969E+03
  1.37317E+04  4.24827E+03 -1.68311E+04  1.11592E+04 -2.85466E+04 -6.57277E+03 -6.23263E+03 -3.69166E+04
  2.03258E+04 -4.57529E+04  4.70709E+04 -1.85547E+04  4.49466E+04  2.25803E+04  1.45395E+04  4.41909E+04
 -1.78038E+04  3.72642E+04 -2.81919E+04  1.02845E+04 -1.05891E+04 -3.01867E+04  1.61932E+04 -3.32807E+04
  3.91903E+04 -8.39855E+03  3.60931E+04  2.61697E+04  1.94380E+04  4.89888E+04 -8.88516E+03  5.31004E+04
 -2.61419E+04  3.76971E+04 -3.91678E+04  9.72638E+03 -4.53552E+04 -1.77214E+04 -2.49288E+04 -3.98065E+04
  1.56961E+04 -4.35707E+04  3.23379E+04 -1.10654E+04  2.96746E+04  1.04872E+04 -1.57849E+03  2.19214E+04
 -1.28236E+04  1.18220E+04 -1.57627E+04 -6.85749E+03  7.50705E+03 -1.26729E+04  1.68291E+04  3.08309E+03
  1.34365E+04  2.52912E+04 -5.77024E+03  3.02738E+04 -1.68320E+04  7.22914E+03 -2.52487E+04 -6.78386E+03
 -2.49493E+04 -2.17923E+04 -9.16704E+03 -2.92382E+04  6.04990E+02 -2.40931E+04  2.03838E+04 -2.20531E+04
  2.85780E+04 -1.75155E+04  3.62656E+04  7.50284E+03  2.67206E+04  2.38469E+04  6.51974E+03  4.09312E+04
 -2.31831E+04  3.18675E+04 -2.67515E+04  1.07204E+04 -2.11321E+04 -7.53691E+03 -1.61772E+03 -1.25826E+04
  8.86845E+02 -3.05754E+03 -9.31959E+03  4.75616E+03 -1.81287E+04  7.65777E+02 -2.55752E+04 -9.29767E+03
 -1.31622E+04 -1.42765E+04  8.25044E+03 -2.45838E+04  1.89178E+04 -2.29839E+04  2.41894E+04  2.21007E+03
  2.22704E+04  1.70110E+04  1.68983E+03  1.87593E+04 -1.07650E+04  9.11780E+03 -2.40103E+04 -7.73682E+03
 -1.38619E+04 -2.05316E+04 -3.97563E+03 -2.37733E+04  1.11264E+04 -1.83315E+04  2.05515E+04 -1.71172E+04
  1.52356E+04 -1.32145E+03  1.66851E+04  7.24028E+03  7.49253E+03  4.40290E+03  1.43862E+04 -4.70858E+01
  1.91675E+04  4.59201E+02  2.79132E+04  1.39710E+04  1.91619E+04  2.95635E+04 -2.77357E+03  3.88665E+04
 -1.94807E+04  3.45944E+04 -3.52005E+04  1.55574E+04 -4.32236E+04 -7.57306E+03 -3.33460E+04 -2.38217E+04
 -1.18018E+04 -3.62528E+04  1.03608E+04 -2.75763E+04  2.48109E+04 -2.01722E+04  2.38832E+04  9.99307E+03
  9.90252E+03  2.03867E+04 -1.27113E+04  1.53672E+04 -2.25999E+04  5.67083E+03 -1.61190E+04 -8.71370E+03
 -1.80527E+03 -1.89002E+04  1.14054E+04 -1.39629E+04  7.10157E+03  6.00382E+03  7.29831E+03  8.53217E+03
 -1.37551E+04  1.87493E+03 -8.53520E+03 -7.21364E+03 -3.78428E+03 -1.53197E+04  8.21945E+03 -1.84494E+04
  1.91545E+04 -1.31030E+04  1.99481E+04  6.83834E+03  2.65528E+04  8.46043E+03  1.10917E+04  2.85113E+04
 -1.07120E+04  3.07967E+04 -1.02297E+04  2.13889E+04 -1.56867E+04  8.04596E+03 -1.61018E+04 -5.06118E+03
 -1.72015E+03 -5.78512E+03 -6.25687E+03 -3.48893E+03 -6.68449E+03  4.62308E+03 -6.44115E+03 -6.51340E+02
 -1.15454E+04  1.32199E+03 -8.72042E+03 -1.10597E+04 -6.13484E+03 -1.54428E+04  5.33381E+03 -1.77495E+04
  1.06571E+04 -5.12461E+03  1.00455E+04  5.89347E+03  5.04670E+03  3.07418E+03  4.71364E+02 -3.23509E+03
 -6.37969E+03 -1.26706E+04 -4.42207E+03 -1.67510E+04  1.01640E+04 -1.33622E+04  1.34136E+04 -5.62958E+03
  2.02791E+04  2.15599E+03  1.24268E+04  8.07312E+03 -5.69215E+02  1.53859E+04 -1.10423E+04  1.57014E+04
 -1.40139E+04  1.19566E+02 -5.59170E+03  4.77963E+02  1.06383E+03 -7.23539E+03  6.22411E+03  2.87946E+03
  6.33923E+03  1.32322E+04 -6.17082E+03  1.13722E+04 -7.34486E+03  1.09923E+04 -1.49841E+04  8.24930E+03
 -8.84235E+03 -9.14320E+03  7.29883E+02 -1.27090E+04  4.24437E+03 -4.64948E+03  9.15055E+03  2.22975E+03
 -1.82178E+03  9.41084E+03 -8.15999E+03  1.37904E+04 -1.43530E+04  3.66289E+02 -1.02862E+04 -4.04850E+03
 -9.22722E+03 -1.46548E+04  7.97406E+03 -1.87437E+04  1.08777E+04 -4.47559E+03  1.34790E+04  5.92412E+03
  4.90487E+03  9.18289E+03  1.42263E+03  1.24269E+04 -1.12338E+04  6.95121E+03 -1.01861E+04 -2.59930E+03
 -8.59681E+03 -1.15041E+04 -3.81873E+03 -1.55894E+04  6.59249E+03 -1.14494E+04  6.94769E+03 -6.41660E+03
  5.62256E+03  6.83144E+02  4.39854E+03  1.09640E+03 -7.88779E+03 -4.57052E+03  8.84965E+03 -5.23813E+03
  1.11762E+04 -2.84630E+03  1.26065E+04  1.53941E+03  1.13484E+04  9.31784E+03  9.70905E+03  1.53730E+04
  3.88397E+00  1.58770E+04 -1.39142E+04  1.07624E+04 -2.22541E+04 -2.06808E+02 -1.79926E+04 -9.73434E+03
 -1.17365E+04 -1.40306E+04 -1.25722E+02 -1.56289E+04  6.99141E+03 -5.46899E+03  2.85947E+03 -3.25004E+03
  9.20828E+03 -3.67264E+03  4.95933E+03 -2.15456E+03  8.59853E+03 -2.18325E+03  1.33882E+01 -3.31290E+03
  1.31782E+04  1.04966E+03  5.08617E+03  7.90471E+03 -1.32467E+03  5.57405E+03 -1.89092E+04  4.91738E+03
 -9.60652E+03 -1.62288E+03 -5.04138E+03 -7.70702E+03 -6.26969E+03 -1.01610E+04  2.97237E+03 -1.56453E+04
  9.65175E+03 -9.04304E+03  2.32298E+04  1.41087E+03  9.83660E+03  1.29017E+04  4.44443E+03  1.56852E+04
 -8.50150E+03  1.78327E+04 -7.35601E+03  4.37005E+03 -6.32259E+03 -7.29600E+02  1.94936E+03 -2.31811E+02
  2.67937E+03  8.14183E+02  1.13319E+03  1.10304E+03 -6.66450E+03 -2.68869E+03 -8.78678E+03  8.17057E+02
 -3.51340E+03 -7.20578E+03 -9.28104E+02 -8.76422E+03  5.83812E+03 -8.54431E+03  1.56273E+04 -2.11305E+02
  1.77561E+04  7.84547E+03  4.66036E+03  9.61599E+03 -1.03628E+03  9.91945E+03 -1.09572E+04  4.50571E+03
 -1.32323E+04 -1.80423E+03 -1.18639E+04 -8.52405E+03 -8.57392E+03 -1.02832E+04  2.84256E+03 -8.08090E+03
  6.47737E+03  4.93530E+03  5.56652E+03  7.11247E+03  5.59686E+03  5.63924E+03  6.88321E+02  8.37718E+03
  2.47814E+02  9.57614E+02  5.52662E+03 -4.77611E+03 -6.90595E+02  5.85890E+03 -2.88423E+03  1.75344E+03
 -1.01976E+04  8.28424E+03 -7.63056E+03  5.58146E+03 -1.50725E+04  3.09813E+03 -1.07993E+04 -2.91887E+02
 -1.93027E+03 -1.46475E+04  8.06458E+03 -1.31279E+04  3.35561E+03 -1.05343E+04  8.67637E+03 -3.78816E+03
  7.67802E+03  5.42794E+03  5.72665E+03  6.49578E+03 -4.00672E+03  3.72046E+03 -6.80824E+03 -6.69544E+03
 -6.79699E+03 -6.05886E+03  4.38868E+03 -4.51083E+03  4.49507E+03  3.66612E+02 -4.60019E+02  1.64014E+03
  4.19896E+03  2.66149E+02  5.46967E+01  2.42149E+03  1.40756E+03 -3.76338E+02  3.81977E+03 -1.64894E+03
  3.10280E+03 -6.09775E+03  5.14097E+03  7.43847E+03 -1.40526E+03  1.62996E+03 -4.11649E+03  1.12065E+04
 -1.95695E+03  1.36300E+03 -8.08806E+03  6.59995E+01 -5.19755E+03  4.15500E+02 -6.72845E+03  1.22539E+03
  3.22259E+03 -2.61719E+03  7.72138E+03  3.03826E+02  2.48712E+03  2.23361E+03  9.41856E+02  9.58461E+02
 -1.06816E+04 -3.18490E+03 -4.37546E+03 -5.43724E+03 -7.11629E+02 -3.19432E+03  1.02179E+03 -3.57179E+03
  1.54608E+03 -3.84452E+03  8.60185E+02 -2.55047E+03 -2.07272E+03  5.43970E+03  2.86023E+03  2.92053E+03
  1.67284E+03  1.57918E+03 -9.33792E+03 -2.43105E+03  1.77831E+03 -4.95729E+03  8.93069E+03 -6.78694E+03
  3.08481E+03 -2.72990E+03  1.04976E+04  4.85144E+03 -5.30341E+02  2.16006E+03 -2.69437E+03  5.27486E+03
 -7.03460E+03  9.07138E+03 -6.27256E+03 -3.95524E+02 -1.38472E+03 -8.13074E+03  1.98597E+03 -6.40390E+03
  4.31738E+03  1.34539E+03  2.12518E+03 -1.68653E+03 -3.31978E+03  7.96419E+03 -2.62095E+02  9.31281E+02
 -2.25110E+03  3.62852E+03  2.20857E+03 -2.85867E+03  2.20553E+03  6.82021E+02 -3.68201E+03  3.24115E+03
 -4.88261E+03 -1.34036E+03 -3.72041E+03 -1.14534E+03 -4.88658E+03 -2.11631E+03 -7.58438E+03 -5.79555E+03
 -4.72304E+03 -1.05177E+04  7.29140E+03 -8.63924E+03  5.21789E+03 -1.05262E+04  1.15593E+04  1.82941E+03
  9.45760E+03  5.66540E+03  8.06114E+03  6.96921E+03  4.95163E+03  8.27319E+03 -5.93503E+03  4.64864E+03
 -6.59984E+03 -1.56949E+03 -9.11845E+03  2.61282E+03  8.42518E+03 -1.90396E+03  5.19314E+03 -4.02875E+02
 -3.27874E+03 -1.55052E+03 -2.67086E+03  3.02521E+03 -1.75498E+03 -1.63073E+02 -2.39073E+03 -2.09570E+02
  1.04028E+03  2.58866E+03 -9.07509E+02 -3.43198E+03  2.06157E+03  1.98644E+03  4.13587E+03  1.21392E+04
 -1.23689E+04  1.22259E+04 -1.02408E+04  5.79761E+03 -1.10824E+04  1.08971E+03 -6.94137E+03 -4.33214E+03
  1.15764E+03 -4.50025E+03 -1.34658E+02 -6.59989E+03 -7.65643E+02 -4.94040E+02  4.47358E+03  4.80183E+03
 -8.66400E+02  1.84739E+03  2.04467E+03  7.01476E+03 -7.42351E+03  1.45955E+02  2.44538E+03  1.31182E+02
 -9.27563E+02  3.15614E+02  3.76007E+03 -4.67409E+03  2.45043E+03 -4.49807E+03  1.55874E+03  3.42125E+03
 -8.55907E+03  1.43587E+03 -4.77781E+03  4.26262E+02  3.82222E+02 -3.53555E+03  6.78786E+02 -5.94957E+03
  4.68727E+03 -1.55828E+03  1.93052E+03 -3.99432E+02  1.92027E+03 -4.07796E+03  6.45892E+03  6.19448E+03
  3.84528E+03  2.14229E+03 -5.12640E+02  4.18726E+03 -1.10496E+04  3.84882E+03 -3.08776E+03 -1.17171E+03
 -9.13538E+03 -2.61564E+03 -3.63518E+03  3.43011E+03 -2.06534E+03  4.94690E+01 -1.09435E+03 -2.36796E+01
 -4.00113E+03  1.96325E+03  6.28426E+02 -4.55579E+03  2.82824E+02 -6.84777E+03  2.90140E+03  2.75248E+03
  4.38656E+03  1.32000E+03  4.05459E+03  5.12047E+03 -2.67203E+03  6.74124E+03 -5.06441E+03  2.68138E+03
