 $NMID ID='MM_0lb_SNR50_16hz_g40_52.RAW', FMTDAT='(8E13.5)'
 TRAMP=1., VOLUME=1. $END
  3.08305E+05  3.76307E+03  3.34311E+05  2.50557E+05  8.46137E+04  3.37355E+05 -1.31856E+05  2.51396E+05
 -1.89987E+05  8.19344E+04 -1.11421E+05 -2.92107E+04  5.45164E+03 -4.84706E+04  5.38829E+04  1.79398E+03
  3.56818E+04  5.35868E+04 -1.30180E+04  7.40525E+04 -5.55312E+04  6.56426E+04 -8.35869E+04  3.12117E+04
 -8.00755E+04 -1.04482E+04 -5.70442E+04 -5.76791E+04 -1.30842E+04 -6.98089E+04  2.81265E+04 -4.37392E+04
  4.01085E+04  2.15846E+03  9.98023E+03  4.87586E+04 -3.20898E+04  4.64456E+04 -6.98689E+04  2.29641E+03
 -5.70579E+04 -5.69125E+04 -4.58148E+03 -7.81282E+04  3.61407E+04 -5.35978E+04  4.59164E+04 -1.51821E+04
  3.55343E+04  1.00779E+04  2.96895E+04  2.52262E+04  1.15717E+04  2.63724E+04 -3.56699E+03  2.59202E+04
 -2.48602E+04  1.28687E+04 -1.68025E+04 -7.66183E+03  4.14734E+03 -7.44802E+03  1.66511E+04  1.04638E+04
  5.56199E+03  3.09772E+04 -3.23053E+04  3.56653E+04 -5.89428E+04  2.08338E+03 -5.69537E+04 -4.32659E+04
 -1.53799E+04 -6.33119E+04  3.88502E+04 -4.77136E+04  5.76020E+04 -3.65553E+03  3.05789E+04  3.28137E+04
 -1.66652E+03  3.22251E+04 -2.91564E+04  1.40774E+04 -2.69749E+04 -3.51690E+03 -1.54540E+04 -1.19814E+04
 -1.15652E+04 -9.09565E+03  2.39508E+03 -1.51809E+04  6.91378E+03 -2.43985E+04  1.04406E+04 -1.41895E+04
  1.58744E+04  3.21177E+03 -5.04025E+03  1.18909E+04 -1.66760E+04 -4.52461E+03 -5.69450E+03 -3.28509E+04
  2.10688E+04 -3.66384E+04  4.88084E+04 -1.32886E+04  4.15740E+04  2.10157E+04  1.10047E+04  4.10101E+04
 -1.60321E+04  2.75333E+04 -2.47443E+04 -2.08881E+03 -8.72189E+03 -2.74851E+04  2.23465E+04 -3.27018E+04
  3.78053E+04 -9.43003E+03  2.99073E+04  2.51512E+04  1.96171E+04  4.27925E+04 -8.80287E+03  4.49149E+04
 -2.79281E+04  3.33622E+04 -3.77366E+04  1.00727E+04 -4.15574E+04 -1.33748E+04 -1.70392E+04 -3.55473E+04
  6.51998E+03 -3.63915E+04  3.26431E+04 -1.22924E+04  2.97090E+04  8.69706E+03  4.09055E+03  2.05518E+04
 -1.33369E+04  7.31935E+03 -8.98313E+03 -1.03912E+04  5.34047E+03 -9.60217E+03  1.85578E+04  1.18131E+04
  1.22360E+04  2.13736E+04 -7.93488E+03  2.68777E+04 -1.78175E+04  1.24534E+04 -2.37243E+04 -5.49251E+03
 -2.03844E+04 -1.88307E+04 -8.16161E+03 -1.62698E+04  3.02172E+03 -1.86705E+04  8.68918E+03 -1.87295E+04
  2.59043E+04 -1.35083E+04  3.00758E+04 -7.06103E+02  2.42782E+04  1.88016E+04  5.53804E+03  3.20408E+04
 -1.97022E+04  2.84716E+04 -2.41782E+04  1.36188E+04 -1.98665E+04 -1.13251E+04 -3.46019E+03 -1.49751E+04
  8.39360E+02  2.44242E+02 -2.73717E+03  6.65915E+03 -1.42530E+04  5.24090E+03 -1.80434E+04 -4.31945E+03
 -7.78050E+03 -1.53428E+04 -1.73135E+03 -1.80450E+04  1.19721E+04 -1.50770E+04  1.40607E+04  9.79186E+02
  9.50002E+03  1.26691E+04 -1.69470E+03  1.88019E+04 -9.85310E+03  1.10189E+04 -1.72041E+04 -9.01055E+02
 -9.99412E+03 -1.72790E+04 -8.90939E+02 -1.78302E+04  1.22824E+04 -1.48783E+04  1.69210E+04 -5.25518E+03
  1.74286E+04  4.14420E+03  1.03623E+04  5.11140E+03  3.25477E+03  2.84936E+03  6.47319E+03 -3.95185E+03
  1.30023E+04  1.96400E+03  1.64471E+04  1.48074E+04  9.16877E+03  2.65200E+04 -3.30183E+03  2.69774E+04
 -2.32407E+04  2.45994E+04 -2.11696E+04  9.05765E+03 -3.12526E+04 -1.12145E+03 -2.19225E+04 -1.55109E+04
 -1.20474E+04 -2.20761E+04  3.53201E+03 -1.65144E+04  1.81223E+04 -8.95971E+03  1.73640E+04  3.10434E+03
  4.07126E+03  1.02893E+04 -7.92301E+03  1.17765E+04 -8.60398E+03  2.47348E+03 -1.32849E+04 -7.64790E+03
  1.82271E+03 -1.26748E+04  6.53097E+03 -1.27966E+04  1.00747E+04 -1.91671E+03 -1.52577E+03  2.73645E+03
 -5.67455E+03  1.24472E+03 -3.83515E+03 -4.17027E+03 -1.67823E+02 -1.32670E+04  6.06140E+03 -1.28894E+04
  1.35036E+04 -3.50451E+03  1.28046E+04 -8.06920E+02  1.20837E+04  4.98497E+03  6.15782E+03  1.66784E+04
 -4.20811E+03  1.86287E+04 -1.10018E+04  1.03168E+04 -1.56241E+04  6.30842E+03 -1.25601E+04  1.97198E+03
 -5.58828E+03 -7.16798E+03 -5.06961E+03  4.74461E+03  9.77420E+02 -2.98304E+02 -6.60539E+03  4.34803E+03
 -1.35326E+04 -7.26055E+02 -9.37786E+03 -1.18597E+04 -4.09201E+03 -9.95068E+03  9.18171E+02 -9.81183E+03
  7.91407E+03 -1.17668E+03  7.53392E+03  3.30009E+03  1.07331E+03  7.21018E+03 -9.34210E+03  8.87639E+02
 -1.20160E+02 -3.79268E+03 -1.47824E+03 -1.17535E+04  9.42097E+03 -1.04206E+04  1.20351E+04 -3.07227E+03
  1.49642E+04  9.34253E+02  1.51371E+04  1.06468E+04  7.92086E+03  7.50627E+03 -4.86493E+03  7.79308E+03
 -8.21676E+03  3.50332E+03 -5.35942E+03 -9.33614E+02  1.09995E+03  4.68103E+02  8.10346E+03 -2.91968E+03
  5.46601E+03  1.61174E+03  2.91727E+03  8.13073E+03 -2.55540E+03  5.51200E+03 -9.22118E+03  1.18143E+03
 -5.67523E+03 -2.17863E+03 -2.08446E+03 -9.87000E+03  2.85765E+03  6.59413E+02  5.74737E+03  1.82180E+03
  3.09487E+02 -1.39669E+03 -3.53132E+03  7.57062E+02 -3.82514E+03  4.60965E+03 -8.28989E+03 -1.65478E+03
 -3.68513E+03 -1.17636E+03  2.94645E+03 -7.13327E+03  9.29679E+03 -2.31735E+03  8.92465E+03  2.08013E+03
  1.45279E+03  9.07654E+03 -1.59533E+03  7.20432E+03 -5.80215E+03  3.01400E+03 -6.59111E+03 -6.77620E+03
 -8.18825E+03 -8.40906E+03 -1.54115E+03 -9.61007E+02 -1.43755E+02 -2.87649E+03  4.72787E+03 -3.22814E+03
  7.89691E+02 -7.18092E+02 -2.50269E+03  8.73873E+02 -1.02593E+03 -3.00649E+03 -4.46268E+02 -2.48203E+03
  5.88434E+03  3.42985E+03  7.05401E+03  1.23319E+03  5.66530E+03  2.32405E+03  3.10576E+03  1.17143E+04
  5.52027E+02  1.02584E+04 -7.46252E+03  6.22732E+03 -9.96264E+03  9.64043E+02 -1.11755E+04 -5.35503E+03
 -2.07658E+03 -7.81595E+03 -2.38272E+03 -7.62378E+03  3.85978E+03 -2.20579E+03 -5.55671E+02 -3.45742E+03
  5.81776E+03 -3.39259E+03  1.14784E+03 -1.97505E+03  1.15737E+03  5.38524E+02  3.71193E+03 -1.62914E+03
  6.13973E+03 -1.92675E+03  4.38608E+03  3.42396E+03 -9.82832E+02  2.37468E+03 -7.71208E+03  4.83105E+03
 -3.92535E+03 -1.76163E+03 -1.93116E+03 -2.27374E+03  4.85208E+02 -1.16965E+04  9.28217E+02 -4.31763E+03
  7.80734E+03 -6.38309E+03  8.94592E+03  2.74856E+01  1.39663E+03  7.56826E+03  8.58874E+03  8.97789E+03
  3.24714E+02  7.23095E+03 -5.31032E+03  4.09231E+03  6.24092E+03 -6.09353E+03  2.14644E+03 -2.79606E+03
 -4.47339E+03  8.65566E+02 -4.44808E+03  3.65618E+03 -6.93963E+03  3.38146E+03 -3.77132E+03 -1.73062E+03
 -2.58884E+03 -5.69488E+03  4.59417E+03 -6.86438E+03  6.37101E+03 -5.62678E+03  6.51048E+03 -2.23409E+03
  4.56327E+03  2.86128E+03  3.07456E+03  7.69219E+03 -2.05024E+03  7.38411E+03 -7.35034E+03  4.45864E+03
 -5.92884E+03  2.27093E+03 -9.45912E+03 -1.04471E+03 -2.70424E+03 -3.65833E+03  4.82401E+03  2.47446E+03
 -1.34804E+03 -4.97392E+03  5.13542E+03  3.68185E+03  2.31519E+02 -1.67008E+03  1.05524E+03 -1.29633E+03
  2.67163E+03 -5.04832E+03  6.00845E+02  3.03160E+03  2.20586E+03 -1.05973E+03  2.16187E+03  1.45478E+03
 -3.32561E+02  6.18066E+03 -7.77954E+03  6.76336E+03 -1.66886E+03  1.99726E+03 -5.60528E+03 -3.75811E+03
 -7.54034E+02 -5.68911E+03 -2.32303E+03 -1.69549E+03  3.28631E+03 -3.16040E+03  2.37601E+03  8.06078E+02
  2.86866E+03  4.59867E+03 -1.69981E+03  6.95151E+03 -5.52615E+02  3.25092E+03  1.60099E+03 -7.78993E+02
 -7.06555E+02 -1.18149E+03  7.54833E+02 -2.95384E+03 -1.24126E+03  1.47695E+03  2.09893E+03 -4.21533E+02
  3.01185E+03  1.84185E+03  4.32701E+03  4.91862E+02 -1.59157E+03  2.86192E+02  4.17393E+03  1.07076E+03
 -5.12507E+02 -1.79517E+03  2.89929E+03  2.61152E+03  5.71704E+03  6.22083E+03  3.24387E+02  3.79554E+03
 -8.95893E+03  3.39329E+03  1.48569E+03  6.36532E+02  5.47079E+01 -2.27111E+03 -2.95618E+03 -4.22125E+03
 -5.40936E+02 -1.81002E+03  6.27503E+02  5.08884E+01  7.28466E+03  2.37346E+03  2.84238E+03 -1.44264E+02
 -1.75642E+03  5.35130E+02 -1.55263E+03  9.53397E+02  8.92222E+02 -5.04774E+03 -3.80634E+03  2.93750E+03
 -5.68353E+02 -4.55602E+03  2.56094E+03  1.41900E+03  1.93592E+03 -1.52334E+03 -8.20781E+02  1.24490E+03
 -3.75789E+03 -1.53647E+03  2.93064E+02 -1.05220E+03 -2.85381E+03  2.74603E+03  4.10722E+03  1.57534E+03
 -1.59537E+02  4.39325E+03  2.87252E+03 -2.46381E+02  1.25851E+03  7.14275E+02  5.40701E+02  8.82821E+03
  2.90556E+03  8.59552E+03 -3.95328E+03 -1.44612E+03 -2.96360E+02 -2.93630E+03  2.95267E+03 -9.80655E+02
  5.90499E+03  7.09871E+02  1.26014E+03  5.09224E+02 -5.76445E+02  9.66560E+02  4.09705E+03  5.21515E+02
  2.24234E+03 -3.27154E+03 -1.83814E+03 -1.37055E+03  1.03063E+03  2.66045E+03  7.31043E+02 -8.89257E+03
 -9.28548E+02  2.16768E+03  9.82462E+01  7.11867E+02 -3.95972E+03 -1.89967E+03 -4.42908E+03 -3.53081E+03
 -2.03047E+03 -4.63556E+03  1.72828E+03 -1.61894E+03  5.15778E+02 -2.32551E+03  5.42812E+03  4.46548E+02
  1.96254E+03 -4.66598E+03  6.37948E+02  1.31676E+03 -9.10397E+02  9.62622E+03 -2.17786E+03 -4.10006E+02
 -1.09586E+03  1.61120E+03 -2.94658E+03 -7.88964E+02 -1.89620E+03  3.12217E+03  1.25648E+03 -4.82247E+03
 -9.92946E+02 -9.13117E+01  1.93805E+03 -1.09729E+03 -2.57468E+03 -2.45397E+03 -2.16245E+03 -1.71925E+03
  2.46723E+03  4.00749E+03  6.04280E+03  6.78444E+03  4.65063E+02  3.37993E+03 -1.95030E+02 -5.31224E+02
 -1.60679E+03  2.71393E+03 -3.38982E+03  3.82513E+03 -3.72727E+01 -2.64039E+03 -1.51011E+03 -1.39411E+03
 -2.67038E+03 -3.83337E+03  9.14023E+02 -2.30827E+03  3.67702E+02 -4.86238E+03  4.09225E+03  4.39924E+03
  1.83333E+03  2.33369E+03  7.38854E+02 -6.09597E+03 -3.15009E+03  1.62739E+03 -4.63647E+03 -5.70282E+02
  5.44635E+03 -2.60486E+02  9.94047E+02 -2.48182E+03  6.79508E+03 -2.58219E+02  4.72452E+03  5.32993E+02
 -5.74961E+03 -1.78652E+02 -3.66216E+03 -2.93393E+02 -3.95037E+03 -2.52308E+03 -4.56766E+03 -4.39927E+03
  3.10728E+03  6.04314E+02  7.44621E+02 -1.67130E+03  2.84101E+03 -1.67154E+03  9.89243E+02  3.70935E+03
  3.24957E+03 -5.68579E+02 -1.95805E+03 -2.86785E+03  9.11761E+02  4.63811E+03  2.13067E+03 -1.55273E+03
 -5.41601E+03  6.23710E+02  3.96810E+03  7.72057E+02 -3.93444E+03 -1.08116E+03 -1.28736E+03 -3.38493E+03
  2.62279E+03 -1.76030E+03 -1.71655E+03  1.79717E+03 -3.38899E+03 -1.50067E+03  4.89798E+02  1.78291E+03
  3.77081E+03  6.42663E+03 -8.85167E+02  4.10226E+03 -1.75295E+03  1.55792E+03 -2.03603E+03  2.45642E+03
