 $NMID ID='MM_0lb_SNR50_11hz_g60_97.RAW', FMTDAT='(8E13.5)'
 TRAMP=1., VOLUME=1. $END
  3.14470E+05 -7.04833E+01  3.40170E+05  2.50284E+05  8.63057E+04  3.34848E+05 -1.33549E+05  2.48651E+05
 -1.84604E+05  7.91028E+04 -1.15179E+05 -3.19931E+04  3.97467E+02 -4.72841E+04  5.32327E+04 -1.76406E+03
  3.53721E+04  5.50039E+04 -8.56377E+03  7.77529E+04 -6.32008E+04  6.30583E+04 -8.32027E+04  3.06588E+04
 -8.43859E+04 -9.34327E+03 -5.25732E+04 -5.76498E+04 -9.00507E+03 -6.76900E+04  2.49749E+04 -4.26171E+04
  3.82868E+04  3.52369E+03  1.76919E+04  5.05291E+04 -3.38222E+04  4.78361E+04 -6.93471E+04 -8.54884E+02
 -5.76492E+04 -6.22929E+04 -7.45790E+03 -7.97908E+04  2.84889E+04 -5.79288E+04  4.29814E+04 -2.02114E+04
  4.82405E+04  2.63430E+03  3.20513E+04  2.17078E+04  1.61515E+04  3.02870E+04 -5.35258E+03  2.74872E+04
 -1.61045E+04  1.49246E+04 -2.04751E+04 -2.36199E+03  9.83582E+03 -8.41492E+03  2.23824E+04  2.20832E+04
  1.20225E+04  3.35768E+04 -3.73580E+04  4.23348E+04 -6.89150E+04 -9.60779E+02 -5.64567E+04 -4.15508E+04
 -1.35874E+04 -6.24401E+04  4.23368E+04 -4.60932E+04  5.99881E+04  2.02587E+03  3.48541E+04  3.16094E+04
 -1.24476E+04  4.26951E+04 -3.00755E+04  1.53890E+04 -3.28987E+04 -6.61513E+03 -1.78348E+04 -1.47372E+04
 -1.07723E+04 -1.51986E+04 -5.12511E+03 -1.36606E+04  7.36573E+03 -2.36223E+04  2.26670E+04 -9.91914E+03
  1.03589E+04  1.23217E+04 -7.57131E+03  1.30715E+04 -2.58685E+04 -7.07980E+03 -1.08847E+04 -3.62150E+04
  2.39724E+04 -5.04574E+04  4.70131E+04 -1.77279E+04  4.85593E+04  1.71940E+04  1.87190E+04  4.19776E+04
 -2.08250E+04  4.03968E+04 -3.28867E+04 -1.76747E+03 -8.09670E+03 -2.94743E+04  2.11184E+04 -4.06907E+04
  4.69657E+04 -1.17826E+04  4.08194E+04  2.45859E+04  2.38154E+04  4.91853E+04 -6.89156E+03  5.38015E+04
 -2.97842E+04  3.37926E+04 -4.29828E+04  8.59819E+03 -5.24847E+04 -1.53024E+04 -2.58626E+04 -3.91555E+04
  9.54684E+03 -3.36455E+04  3.58920E+04 -1.69786E+04  4.00501E+04  1.14595E+04  1.10127E+04  1.95230E+04
 -1.23648E+04  5.40682E+03 -1.39710E+04 -8.38092E+03  1.17356E+04 -5.88114E+03  1.39735E+04  4.92751E+03
  1.40613E+04  2.02630E+04 -5.50626E+03  2.15414E+04 -2.15646E+04  1.58621E+04 -3.05358E+04  1.51038E+03
 -2.56916E+04 -1.95745E+04 -1.34322E+04 -2.66347E+04 -5.96836E+02 -2.39295E+04  1.98023E+04 -2.29839E+04
  3.13816E+04 -9.69324E+03  4.06697E+04  3.81879E+03  3.09597E+04  2.17850E+04  7.66704E+03  4.12415E+04
 -1.80487E+04  2.88655E+04 -2.74705E+04  9.20391E+03 -2.25076E+04 -1.06226E+04 -3.68801E+03 -1.22221E+04
  4.38646E+03 -3.05374E+03 -6.81554E+03  1.01179E+04 -2.64876E+04  3.20780E+03 -1.89860E+04 -1.56549E+04
 -1.43262E+04 -2.36896E+04 -2.44011E+02 -2.92509E+04  1.50323E+04 -1.18303E+04  2.21809E+04 -2.86099E+03
  9.63968E+03  1.26018E+04 -3.42308E+03  2.11288E+04 -1.80191E+04  1.16098E+04 -2.89184E+04 -9.76064E+03
 -1.35928E+04 -2.37652E+04 -2.96230E+03 -1.86801E+04  1.59527E+04 -1.94750E+04  2.28214E+04 -8.25223E+03
  2.12819E+04  4.08667E+03  1.56841E+04  7.89811E+03  1.14271E+04  3.26481E+00  6.49834E+03 -9.38565E+03
  1.83428E+04  1.97535E+03  2.34010E+04  1.91143E+04  1.21240E+04  3.92481E+04  1.63492E+03  3.77657E+04
 -2.63065E+04  3.53597E+04 -3.95714E+04  1.47982E+04 -4.67062E+04  6.58558E+02 -3.54982E+04 -2.18441E+04
 -1.85424E+04 -3.72171E+04  1.30451E+04 -2.91883E+04  2.24437E+04 -1.22162E+04  2.65793E+04  6.96438E+03
  4.53281E+03  1.77903E+04 -1.07760E+04  1.91202E+04 -1.63371E+04  8.26232E+03 -1.13724E+04 -8.19673E+03
  3.45376E+02 -1.42412E+04  1.01961E+04 -1.30890E+04  1.73592E+04 -2.21799E+03  2.20580E+03  6.71071E+03
 -9.23959E+03  8.95519E+03 -1.34918E+03 -5.22760E+03  1.02101E+03 -1.89131E+04  1.90152E+04 -2.27866E+04
  2.85730E+04 -6.38601E+03  3.00940E+04  5.92808E+03  1.99537E+04  1.55997E+04  1.19089E+04  3.29038E+04
 -4.07213E+03  2.71685E+04 -1.46969E+04  1.53019E+04 -2.15750E+04  9.73488E+02 -1.63916E+04 -4.62308E+03
 -1.14929E+04 -4.43915E+03 -5.90275E-01 -1.27424E+03 -4.93021E+03  5.42157E+03 -8.06240E+03  6.57497E+03
 -1.60087E+04  1.32454E+03 -1.21418E+04 -1.23916E+04 -7.85426E+03 -1.96625E+04  6.52496E+03 -1.42425E+04
  8.86738E+03 -8.73015E+03  9.80538E+03  5.03876E+03  2.15029E+03  3.12511E+03 -6.50683E+03 -1.10658E+03
 -5.21731E+03 -7.35331E+03 -1.10264E+03 -1.45416E+04  9.87850E+03 -1.58175E+04  1.83999E+04 -1.42845E+04
  1.96633E+04 -2.72692E+03  1.65037E+04  1.62499E+04  5.10546E+03  1.64064E+04 -1.17227E+04  2.04444E+04
 -8.79805E+03  3.09507E+03 -7.15173E+03 -1.38966E+03  1.62242E+03  6.70531E+02  3.93739E+03 -2.04152E+03
  1.03183E+04  8.18315E+03 -1.25964E+03  1.72042E+04 -6.53941E+03  9.83328E+03 -1.17806E+04 -2.20350E+03
 -9.75635E+03 -9.81299E+03  6.67074E+02 -1.23586E+04  5.96572E+03 -7.78992E+03  5.16604E+03  1.76184E+03
  5.81767E+02  1.26608E+04 -5.23313E+03  1.62576E+04 -1.54100E+04  5.37145E+03 -1.33531E+04 -5.14344E+03
 -8.76731E+03 -1.87306E+04  5.83709E+02 -2.03094E+04  1.40484E+04 -1.14390E+04  2.08247E+04  6.49261E+03
  7.65572E+03  1.94667E+04  3.18319E+03  9.11105E+03 -1.30972E+04  3.51229E+03 -1.17204E+04 -4.03062E+03
 -1.24264E+04 -1.09280E+04  5.09250E+03 -1.04230E+04  8.01953E+03 -7.22124E+03  2.23247E+03 -3.59644E+03
  5.36049E+03  6.15149E+03  1.44471E+03  6.32372E+03 -2.76802E+02  2.32083E+02  2.02726E+02 -8.45986E+03
  8.42548E+03 -5.91659E+03  1.78910E+04  5.11472E+03  1.23392E+04  1.03795E+04  1.44638E+04  1.25588E+04
 -8.02141E+03  2.36258E+04 -2.25930E+04  1.44846E+04 -2.17397E+04  5.67074E+03 -2.14562E+04 -1.41211E+04
 -6.12468E+03 -1.49807E+04  2.52006E+03 -1.43471E+04  5.05673E+03 -1.32860E+04  4.98179E+03 -2.93580E+01
  6.30156E+03 -2.68032E+03  2.62954E+03 -4.77465E+03  1.02667E+04 -3.73799E+03  3.99501E+03 -2.27416E+03
  1.49986E+04  1.37500E+03  2.15384E+03  1.05463E+04  3.35681E+03  1.17182E+04 -1.79787E+04  1.05595E+04
 -1.38087E+04 -3.26805E+03 -5.39806E+03 -8.57012E+03  2.51442E+03 -1.35149E+04  2.85292E+03 -1.29685E+04
  1.67305E+04 -2.67292E+03  1.92107E+04 -4.11244E+03  1.15789E+04  1.17845E+04 -1.73909E+03  1.90683E+04
 -2.84123E+03  1.23604E+04 -3.10923E+03  4.74074E+03 -9.67159E+03 -2.78040E+03 -6.31009E+03 -1.14021E+03
 -1.66133E+03 -1.28453E+03 -9.91027E+03  1.09946E+04 -5.08638E+03  4.47773E+03 -8.29256E+03 -1.03960E+02
 -3.81287E+02 -3.30062E+03 -1.32524E+03 -9.96730E+03  1.03223E+04 -9.26862E+03  1.39361E+04 -7.05748E+03
  1.06433E+04  1.14396E+04  4.85479E+03  8.45972E+03  1.52712E+03  1.12246E+04 -6.95170E+03  9.38321E+03
 -1.68555E+04  1.58555E+03 -9.17151E+03 -1.07738E+04 -2.80305E+03 -8.93719E+03  7.43045E+03 -1.08491E+04
  4.28998E+03 -2.47189E+03  2.79684E+03  1.10126E+03 -2.17895E+03  1.05802E+04  3.14807E+03  5.48127E+03
  8.76910E+02 -1.13029E+03  6.15056E+03  2.31332E+03  3.53296E+03  7.03097E+03  4.10303E+02  7.37388E+03
  1.76138E+03  1.31149E+04 -5.39411E+03  1.19324E+04 -1.39022E+04  4.13718E+03 -1.49543E+04 -3.67509E+03
 -4.45672E+03 -1.15733E+04  5.04937E+03 -1.30176E+04  7.20924E+03 -2.57807E+03  1.89229E+04 -6.97049E+03
  8.24648E+03  1.08405E+04 -3.86963E+03  9.36724E+03 -4.56509E+03  4.69634E+03 -6.55207E+03 -3.02515E+03
  2.58598E+03 -2.44017E+03 -1.98017E+03 -8.41597E+03  4.87969E+03 -5.27297E+03  5.52139E+03 -3.29195E+03
  4.53370E+03  5.72911E+03  7.37013E+02  8.63366E+01 -6.08180E+03  1.05791E+03  2.24511E+03 -3.31690E+01
  2.61852E+03 -2.11078E+01  3.13563E+02  4.36252E+02  8.14627E+03  7.92664E+03  4.52327E+02  9.39959E+03
 -1.54133E+04  4.53564E+03 -5.41598E+03  2.63634E+03 -5.97089E+03 -1.37717E+03 -5.38019E+03 -3.56257E+03
  1.45260E+03 -5.96264E+03  3.73607E+03 -1.21132E+03  8.17671E+02  3.69127E+03 -4.75981E+03  6.81290E+03
 -1.28961E+03  5.31997E+02 -4.56974E+03 -8.02458E+03 -5.64657E+03 -5.38319E+03 -6.41173E+03 -9.82193E+03
  1.57596E+03 -6.02584E+03  7.25025E+03 -2.45769E+03 -3.46574E+02 -9.39012E+02  5.19442E+03  3.25031E+03
  3.51464E+03 -8.85596E+02 -8.84383E+03  1.90663E+03  4.14231E+03 -1.37103E+03  6.76926E+03 -4.38050E+03
  8.36306E+03  1.98053E+02  5.34447E+03 -9.88511E+02 -1.06912E+03  7.62058E+03  8.90828E+00  5.40839E+03
 -8.30634E+03  3.05636E+03 -9.46393E+03 -2.43054E+03 -5.53977E+03 -7.14473E+03 -7.42551E+02  1.29764E+03
  1.23663E+04  2.88464E+02  6.10334E+03  1.00618E+04  3.31275E+03  4.21083E+03 -6.37564E+03  3.82143E+03
 -6.87457E+03  8.33069E+03 -2.41262E+03  2.27399E+03 -4.34896E+03 -1.29669E+02  5.83724E+02  4.46892E+03
 -1.93985E+03  3.88634E+03 -1.01831E+04  4.71405E+03 -2.97077E+03  5.53270E+03 -1.89740E+03 -7.07106E+03
  1.36155E+03 -1.31166E+04  5.97854E+03 -9.47207E+03  1.42133E+04 -5.85536E+03  1.16789E+04  2.43030E+03
  9.43241E+03 -3.63212E+03  3.29049E+03  9.77311E+03  1.35927E+02  6.39042E+03  7.81597E+02  4.76372E+03
 -4.67946E+03 -3.79744E+03 -2.11017E+02 -3.98020E+03 -6.15720E+02  2.03920E+02  4.45470E+03  1.52838E+03
  1.48120E+03 -2.78658E+03 -2.56426E+03 -4.66213E+03  3.02312E+03 -4.66717E+03 -4.79345E+03 -2.04991E+03
  7.49193E+03 -5.93114E+03  4.36736E+03 -1.99263E+03  4.17341E+03  6.37256E+03  1.17318E+03  1.45813E+03
 -6.24275E+02  5.61851E+03 -1.33696E+04  3.64564E+03 -1.02963E+04  1.32438E+03 -6.22000E+03 -5.37827E+03
 -3.76029E+03 -8.90048E+03  4.96600E+03 -4.12296E+03  2.69594E+03 -4.42234E+03  8.48626E+03 -9.73291E+02
  2.49277E+03  1.81681E+03  1.91666E+03  4.11666E+02 -3.04169E+03  3.66861E+02 -1.19821E+03 -2.20483E+03
  6.10492E+02  5.75402E+02 -3.49563E+03 -1.62933E+03  2.25960E+03  4.47708E+03  6.80561E+02  9.00457E+03
 -2.52967E+03  2.76485E+03 -3.38823E+03  2.67425E+03 -1.54037E+03 -7.19783E+03 -8.19477E+03 -1.47282E+03
  8.78522E+03 -9.03114E+03  3.58602E+03 -6.98849E+03  9.65779E+03  5.87886E+03  9.79204E+01  1.06236E+04
  3.70286E+03  7.42163E+03 -5.82938E+03  6.47336E+03 -1.28829E+03 -4.06137E+03 -5.33499E+02 -3.07143E+02
 -2.04062E+03  2.77272E+03  1.61872E+03 -3.54912E+03 -3.07083E+03 -2.90596E+03 -4.06070E+03  4.15243E+03
  3.68086E+03  3.36227E+03 -6.72231E+02 -3.41336E+03  2.89527E+03 -4.90437E+03  8.86133E+03 -2.26388E+03
  5.31926E+03  5.64510E+03  4.84984E+03  7.79552E+03 -2.94736E+03  4.43689E+03 -3.90182E+03  1.37216E+03
