 $NMID ID='MM_0lb_SNR50_17hz_g45_68.RAW', FMTDAT='(8E13.5)'
 TRAMP=1., VOLUME=1. $END
  3.09209E+05 -2.54048E+03  3.38164E+05  2.48696E+05  8.36262E+04  3.39565E+05 -1.28694E+05  2.49603E+05
 -1.94315E+05  7.72226E+04 -1.08626E+05 -3.19670E+04  1.15490E+03 -5.20489E+04  5.39993E+04  5.79138E+03
  3.48141E+04  5.21279E+04 -1.86766E+04  7.31994E+04 -5.88926E+04  6.47353E+04 -8.11275E+04  2.72876E+04
 -7.76350E+04 -1.90355E+04 -5.34152E+04 -4.81259E+04 -1.55318E+04 -6.49505E+04  2.21964E+04 -4.49257E+04
  3.94379E+04  1.59189E+03  1.44741E+04  4.60423E+04 -3.33087E+04  4.66484E+04 -6.71520E+04 -1.16054E+03
 -5.17299E+04 -5.23802E+04 -5.22884E+03 -7.47174E+04  3.14607E+04 -4.99457E+04  4.42004E+04 -1.52655E+04
  3.88095E+04  1.18933E+04  3.21067E+04  2.79098E+04  1.39969E+04  2.69981E+04 -3.20275E+03  2.50128E+04
 -1.70488E+04  1.21909E+04 -1.84251E+04 -2.48269E+03  5.87275E+03 -6.53053E+03  2.38608E+04  9.56076E+03
  8.07091E+03  3.35126E+04 -2.84383E+04  3.47768E+04 -6.37661E+04 -9.43472E+02 -5.13792E+04 -4.07207E+04
 -1.40972E+04 -5.67006E+04  3.62998E+04 -4.30743E+04  5.53296E+04 -3.75529E+03  3.28401E+04  3.79935E+04
 -6.06036E+03  2.92878E+04 -3.00338E+04  1.19565E+04 -2.90517E+04 -1.68378E+03 -1.31608E+04 -8.20539E+03
 -1.00245E+04 -1.08752E+04 -2.12293E+03 -1.92272E+04  3.73290E+03 -1.83617E+04  1.30326E+04 -1.39269E+04
  1.28193E+04  5.18003E+03 -7.08689E+03  1.44027E+04 -2.12681E+04 -2.58294E+03 -9.10159E+03 -3.16794E+04
  2.15976E+04 -4.21247E+04  5.02747E+04 -1.99082E+04  4.59843E+04  2.38388E+04  1.69323E+04  4.36942E+04
 -1.40222E+04  3.43216E+04 -2.53824E+04  2.77071E+03 -5.36035E+03 -3.06968E+04  2.07434E+04 -3.14108E+04
  3.77146E+04 -7.03682E+03  2.96612E+04  1.80843E+04  2.01759E+04  4.25406E+04 -5.51840E+03  4.67818E+04
 -2.61417E+04  3.57769E+04 -4.07835E+04  9.83579E+03 -4.22426E+04 -1.97042E+04 -2.20482E+04 -3.71179E+04
  9.98061E+03 -3.50485E+04  3.11630E+04 -1.20679E+04  2.67536E+04  9.55155E+03  1.75033E+03  2.11740E+04
 -1.25134E+04  5.89048E+03 -6.12376E+03 -3.46693E+03  7.50408E+03 -7.59935E+03  1.59835E+04  7.32792E+03
  1.25035E+04  2.61568E+04 -4.39168E+03  2.48927E+04 -2.21389E+04  8.57227E+03 -2.55468E+04 -7.96675E+03
 -1.63353E+04 -1.59095E+04 -8.05097E+03 -2.06423E+04  1.90478E+03 -2.14897E+04  1.44754E+04 -1.48165E+04
  2.28080E+04 -1.26301E+04  2.61268E+04  1.76375E+03  1.86762E+04  1.63070E+04  5.56988E+03  3.29277E+04
 -1.82183E+04  3.00316E+04 -2.41294E+04  8.70821E+03 -1.69359E+04 -1.22014E+04 -7.82736E+03 -1.42736E+04
  1.53862E+03 -1.64241E+03  3.84469E+03  4.19617E+03 -1.12988E+04  5.54844E+03 -1.41206E+04 -8.16491E+03
 -7.83810E+03 -1.71219E+04  7.15548E+03 -2.11327E+04  9.80063E+03 -1.84075E+04  1.45154E+04 -4.12107E+03
  8.58307E+03  1.34064E+04 -2.96283E+03  1.87572E+04 -5.28666E+03  3.98231E+03 -1.31399E+04 -5.74083E+03
 -1.20147E+04 -1.76035E+04 -2.91612E+02 -1.74387E+04  1.29315E+04 -1.99821E+04  1.42114E+04 -1.25017E+04
  1.59565E+04 -1.17695E+03  1.29682E+04  1.32662E+03  6.33190E+03 -3.44177E+02  7.79722E+03 -2.73481E+03
  1.76821E+04  5.15112E+03  1.05407E+04  1.37868E+04  9.94502E+03  2.45862E+04 -1.24629E+03  2.70117E+04
 -1.36542E+04  2.03046E+04 -2.49318E+04  9.47627E+03 -2.60103E+04 -6.49616E+03 -2.13128E+04 -1.53659E+04
 -1.27898E+04 -2.16028E+04  8.52287E+03 -1.85487E+04  2.07408E+04 -1.05980E+04  1.67730E+04  8.11955E+03
  8.83603E+03  7.24822E+03 -9.34827E+03  8.48461E+03 -1.67588E+04  6.24127E+02 -8.95853E+03 -1.03691E+04
 -3.52662E+02 -9.09465E+03  6.34593E+03 -1.03667E+04  1.06689E+04 -9.89842E+01  6.64434E+02  2.56905E+03
 -5.24086E+03  2.60791E+03 -6.92152E+02 -4.16304E+03  1.79041E+03 -1.03215E+04  4.04080E+03 -1.32410E+04
  9.80997E+03 -4.87062E+03  1.52088E+04  4.05786E+03  1.23097E+04  1.14093E+04  5.09621E+03  1.94842E+04
  9.58459E+02  1.65591E+04 -1.01645E+04  1.26473E+04 -1.32894E+04 -1.63167E+03 -7.46234E+03 -2.88271E+03
 -1.43138E+03 -2.85704E+03 -1.83310E+03  5.51272E+02 -3.16357E+03  1.54961E+03 -2.06426E+03  5.38893E+03
 -8.44835E+03  3.65984E+03 -8.24120E+03 -5.72517E+03 -5.79077E+03 -1.54414E+04  4.01970E+03 -4.03963E+03
  1.22114E+04 -6.76307E+03  5.50775E+03 -1.53775E+03  9.16475E+02  2.45063E+03 -6.74173E+03  2.67838E+03
 -1.00491E+03 -8.62485E+03  5.04711E+03 -9.35966E+03  5.87727E+03 -1.21659E+04  1.23333E+04 -1.88719E+03
  1.52891E+04 -2.12305E+03  9.08291E+03  5.85859E+03  1.27295E+03  1.23355E+04 -7.90474E+03  7.54216E+03
 -7.82093E+03  2.38254E+03 -1.83630E+03 -6.68637E+02  1.67135E+03  3.47970E+02  7.08778E+03  7.87132E+02
  2.57317E+03  6.56581E+03 -2.01075E+02  5.90739E+03 -1.08261E+03  7.51064E+03 -8.96898E+03  5.92640E+03
 -4.34204E+03 -1.10404E+03 -2.94308E+03 -1.36527E+04  7.22732E+03 -8.37285E+02  4.06657E+03 -7.89756E+01
 -1.79456E+03  6.99547E+03 -3.11673E+03  9.71938E+03 -9.99179E+03  2.59777E+03 -5.57839E+03  5.41668E+02
 -2.53375E+03 -7.35207E+03  4.17802E+03 -2.56001E+03  5.09532E+03 -3.54984E+03  4.28577E+03 -1.86897E+03
  6.02216E+03  6.92624E+03 -8.26268E+02  6.49038E+03 -4.52109E+03  5.62029E+03 -7.28591E+03 -9.39521E+02
 -6.18496E+03 -5.56940E+03 -2.49818E+02 -4.08562E+03  4.30186E+03 -3.91852E+03  2.48283E+03 -2.14791E+03
  9.67229E+02  1.68506E+03  6.25969E+02  6.59188E+02 -5.64591E+02  1.32000E+03  1.40053E+03 -7.43243E+03
  3.23312E+03 -6.83591E+03  4.38296E+03  3.17798E+03  1.13327E+04  3.52573E+03  8.32718E+03  5.97816E+03
  3.90582E+02  1.00866E+04 -8.16513E+03  8.11406E+03 -1.03928E+04  4.75843E+03 -9.18217E+03 -3.74304E+03
 -1.02124E+04 -8.85169E+03  2.92262E+03 -5.71958E+03  1.16549E+03  1.19420E+03  4.54226E+02  2.22549E+03
  2.49800E+03 -8.25035E+03  4.45847E+03 -3.14238E+03  2.87378E+03 -6.16895E+02  5.23484E+02  3.06135E+03
  8.47835E+03  1.31564E+03 -5.45667E+02  2.14060E+03 -6.72141E+02  3.96621E+03 -9.54611E+03  6.27539E+03
 -2.37659E+03 -6.75949E+01 -2.48152E+03 -3.92784E+03  4.01353E+03 -4.90441E+03 -3.12133E+02 -1.20558E+03
  7.69973E+03 -1.90975E+03  7.35942E+03 -9.26618E+02  3.86947E+03  4.33244E+03  3.15012E+03  6.81618E+03
 -2.14786E+03  5.50315E+03 -3.57436E+03 -1.26683E+03 -4.39398E+03  3.72242E+03 -6.35369E+02 -4.72649E+03
 -5.80661E+03  1.87222E+03 -5.69949E+01  1.12170E+02 -2.92563E+03  2.91144E+03 -3.86972E+03 -2.98438E+03
 -2.11896E+03 -2.74764E+03  7.90654E+03 -4.02613E+03  4.79014E+03 -5.35940E+03  4.75729E+03 -2.91578E+03
  6.98496E+03  1.31402E+03 -7.47889E+02  7.35706E+03 -3.28437E+03  7.12796E+03  9.08621E+02  9.79899E+02
 -1.73332E+03  5.89957E+03 -5.24027E+03  6.13215E+02  1.79683E+03 -8.15516E+03  3.04995E+03  3.61856E+02
 -4.34840E+02  9.98600E+02  3.67799E+03 -4.18587E+02 -9.95196E+02  2.53032E+02  6.11874E+03 -1.16583E+03
  5.16545E+03  3.77947E+03  2.09365E+03 -1.04371E+03  1.91971E+02  2.80901E+03  1.25047E+03 -8.44412E+02
 -3.71550E+03  2.35528E+03 -2.38576E+03  5.32009E+03 -2.51814E+02  3.79718E+03 -4.34064E+03 -4.25921E+03
 -4.28509E+03 -5.90614E+02  4.76102E+03 -5.79351E+03 -1.49942E+03 -2.78668E+03  3.14757E+03  1.36544E+03
  2.83745E+02  4.34244E+03 -1.70807E+03  2.83796E+03 -2.88958E+03  4.96415E+03 -6.44377E+03  7.96803E+02
 -2.90819E+03 -1.07922E+03  3.32929E+03 -2.28131E+03  4.46798E+02 -4.24062E+02  5.66562E+03 -4.53031E+02
 -2.82525E+03  3.87159E+02 -1.23825E+03 -3.43289E+03 -7.06716E+02  3.02284E+03  5.66503E+03  1.49635E+03
 -6.56310E+02 -2.09206E+03  1.53286E+03  8.06297E+02  1.88818E+03  6.05634E+03 -2.92153E+03  3.83371E+03
 -1.75647E+03  3.46292E+02 -2.85274E+03 -3.03005E+03 -2.04219E+03 -9.28122E+02 -6.85114E+02  2.12506E+03
  5.55030E+02  5.49735E+03  4.97788E+03  3.15911E+03 -3.04892E+03  6.37005E+02 -2.09685E+03  3.78705E+03
 -3.72517E+03  2.81305E+03 -2.61527E+03 -3.38384E+03  2.01605E+03 -1.25405E+03 -2.21446E+02  5.86241E+02
  9.08631E+02 -4.78295E+03 -1.67987E+03 -1.61354E+03  3.47765E+03 -1.65714E+03  3.38926E+03  5.14451E+03
  3.14253E+03  2.08179E+03  9.71697E+02  3.36967E+03 -2.99735E+02 -2.13197E+03  1.32745E+03  9.79056E+02
  3.06940E+03  2.38886E+03  4.49230E+03  2.95843E+03  2.80133E+02  4.24971E+02  6.48157E+01  3.40571E+03
 -1.49818E+03 -1.35776E+03 -2.69494E+03 -1.25902E+03 -2.21452E+03 -4.26053E+03 -1.06917E+03 -5.13228E+03
  8.36675E+02  3.22300E+03  9.47203E+02  2.14232E+03 -3.22614E+03  2.66880E+03 -6.65855E+01  1.60614E+02
  1.57502E+03 -4.30401E+03 -5.33398E+02 -1.84651E+03  2.83770E+03  3.77543E+03 -5.34749E+02 -2.50628E+03
  2.89412E+03  8.81568E+02 -2.59790E+03 -6.09808E+02 -1.28074E+03 -9.45113E+02 -3.32624E+03 -3.83054E+03
 -1.87718E+03 -2.80196E+03  2.94670E+03 -1.85104E+03  7.83707E+02 -3.57970E+03  7.20329E+02 -1.16675E+03
  6.67914E+03  5.52101E+03  3.33342E+03 -8.22807E+02  3.15281E+02  3.77533E+03 -2.27864E+03 -1.23048E+03
  6.54437E+02 -2.63473E+03 -1.40875E+03  1.22730E+03  3.26681E+03  4.83110E+02 -2.22451E+03  4.68504E+01
 -1.83166E+03  4.13024E+03 -1.09330E+03 -1.14597E+03  3.59664E+03 -3.90342E+03 -2.17669E+02 -2.65458E+03
  2.81115E+03  1.06944E+03 -2.45414E+03  3.51244E+03  5.72515E+03  5.45874E+03 -9.73694E+02  2.17262E+03
 -1.33039E+03  1.81930E+02 -1.98902E+03  5.42871E+02 -5.11058E+03  3.21525E+03 -6.62546E+03 -2.99010E+03
 -1.05864E+03 -1.97698E+03  4.84916E+02 -2.05185E+03 -1.44049E+03 -1.59330E+03 -4.91680E+02 -2.32933E+03
 -6.13593E+02  1.47743E+03 -6.80004E+02 -2.00967E+03 -5.97977E+03 -6.41794E+02  1.57854E+03 -2.50837E+03
  9.78017E+02 -2.75699E+02  6.27991E+03  2.82407E+03 -2.14087E+03 -5.23868E+02  2.12552E+03 -3.04293E+03
 -2.84014E+03 -7.38879E+02  5.61841E+02 -2.48863E+02 -5.90453E+02  2.15958E+02  6.59618E+02 -3.78630E+03
 -4.45473E+03 -4.03421E+03  6.72580E+02  4.62959E+03  7.02056E+03 -8.78648E+02  2.01827E+03  2.06908E+03
  6.91345E+01  6.77818E+02  2.04162E+03  6.20113E+02 -3.39287E+03  3.34851E+03 -3.38830E+03  2.25022E+03
 -4.29360E+03 -3.69317E+03  2.13711E+03 -3.04176E+03 -3.40883E+03  8.90476E+02 -1.81525E+03  1.97486E+03
  4.37007E+02  4.73782E+03  6.16665E+03  1.73830E+03  4.58429E+03  2.93605E+03  2.49009E+03 -1.51331E+03
 -3.46439E+03 -1.08115E+03 -2.53812E+02 -2.02315E+03 -5.17085E+03  3.24583E+03 -7.14405E+03  1.69409E+03
