 $NMID ID='MM_0lb_SNR50_14hz_g40_70.RAW', FMTDAT='(8E13.5)'
 TRAMP=1., VOLUME=1. $END
  3.10451E+05  3.63339E+03  3.42305E+05  2.50576E+05  8.46677E+04  3.39738E+05 -1.29755E+05  2.50461E+05
 -1.85476E+05  8.31409E+04 -1.12390E+05 -3.27477E+04  5.36993E+02 -4.74767E+04  5.74359E+04  2.08793E+03
  3.32153E+04  5.22472E+04 -1.67738E+04  7.25927E+04 -5.91841E+04  6.66443E+04 -8.23170E+04  3.20059E+04
 -7.77334E+04 -8.99657E+03 -5.36657E+04 -4.68940E+04 -1.60349E+04 -6.60093E+04  2.79718E+04 -4.61704E+04
  4.04172E+04  4.07905E+03  1.31321E+04  4.96209E+04 -3.40014E+04  4.99261E+04 -6.80865E+04 -8.51743E+02
 -5.42641E+04 -5.69064E+04 -9.08654E+03 -7.32322E+04  3.32418E+04 -5.07505E+04  4.61965E+04 -2.33637E+04
  3.97689E+04  1.37577E+04  3.30807E+04  2.30000E+04  1.74827E+04  2.91876E+04 -5.76238E+03  2.56780E+04
 -2.31632E+04  1.03997E+04 -1.96176E+04 -2.28185E+03  7.64494E+03 -6.21634E+03  2.77691E+04  8.14768E+03
  6.39414E+03  3.86234E+04 -2.79108E+04  3.21896E+04 -6.51361E+04  4.84058E+03 -5.38083E+04 -4.15233E+04
 -1.44237E+04 -6.04212E+04  4.02528E+04 -4.61371E+04  5.97205E+04 -2.41482E+03  3.75391E+04  3.01833E+04
 -3.93399E+03  3.29730E+04 -2.66805E+04  1.11216E+04 -3.18591E+04 -6.23612E+03 -1.13124E+04 -1.37241E+04
 -9.50223E+03 -1.19639E+04 -1.32788E+03 -1.74433E+04  9.84658E+03 -2.46072E+04  1.76529E+04 -1.54202E+04
  1.33299E+04  3.14526E+03 -2.81272E+03  9.35610E+03 -2.03615E+04 -4.06822E+03 -6.77341E+03 -3.27073E+04
  2.20489E+04 -4.27830E+04  4.79779E+04 -1.64942E+04  5.03407E+04  1.72324E+04  1.59324E+04  4.58010E+04
 -1.57359E+04  3.42118E+04 -2.71566E+04  2.90268E+03 -5.81370E+03 -2.47916E+04  2.06729E+04 -3.45315E+04
  3.77833E+04 -1.10890E+04  3.62594E+04  2.39124E+04  1.76479E+04  4.33993E+04 -6.72042E+03  5.36310E+04
 -3.27203E+04  3.41690E+04 -3.90971E+04  7.11072E+03 -4.16873E+04 -1.14830E+04 -2.25527E+04 -3.67861E+04
  9.27370E+03 -3.87134E+04  3.07324E+04 -1.37601E+04  3.35167E+04  1.23316E+04  4.79934E+03  2.31035E+04
 -1.70338E+04  7.37077E+03 -1.38769E+04 -2.73523E+03  8.73102E+03 -8.88812E+03  1.78439E+04  5.48777E+03
  7.94267E+03  1.69324E+04 -5.09177E+03  3.04488E+04 -2.50349E+04  1.52220E+04 -2.57311E+04 -8.35967E+03
 -1.47696E+04 -1.22187E+04 -7.67324E+03 -2.07217E+04  5.09142E+03 -2.11506E+04  1.83689E+04 -1.42819E+04
  2.33848E+04 -7.26246E+03  3.55109E+04  6.28099E+03  2.35311E+04  1.63806E+04  1.07357E+04  3.44759E+04
 -1.30206E+04  3.02552E+04 -2.86954E+04  1.04259E+04 -2.03138E+04 -7.02986E+03 -8.29027E+03 -1.07596E+04
  1.61560E+03 -3.61978E+03 -2.65488E+03  7.00898E+03 -1.89863E+04  5.28746E+03 -1.34918E+04 -9.27855E+03
 -1.12111E+04 -1.87936E+04  7.13694E+03 -2.49607E+04  1.37144E+04 -1.19448E+04  1.35436E+04 -4.10313E+03
  1.15063E+04  1.47211E+04 -4.55016E+03  1.81554E+04 -1.23278E+04  1.13565E+04 -1.67782E+04 -3.80710E+03
 -1.36958E+04 -1.76088E+04 -4.97218E+03 -2.14459E+04  9.47135E+03 -2.16676E+04  2.42548E+04 -1.01685E+04
  1.65179E+04  1.41981E+03  1.42599E+04  1.02171E+03  5.38745E+03 -4.63799E+02  1.11401E+04 -6.44635E+03
  2.27078E+04 -4.72297E+02  2.23869E+04  1.44219E+04  1.23549E+04  2.97683E+04 -7.72650E+03  2.87163E+04
 -1.97801E+04  2.59285E+04 -2.94631E+04  1.05730E+04 -3.29073E+04 -1.65483E+03 -2.66236E+04 -1.63527E+04
 -1.20255E+04 -2.62602E+04  5.48451E+03 -2.99822E+04  1.87896E+04 -1.06525E+04  2.01131E+04  7.24181E+03
  7.18977E+03  1.19206E+04 -1.01377E+04  1.49385E+04 -1.39041E+04  3.02593E+03 -1.09264E+04 -6.63682E+03
  4.64937E+02 -1.75269E+04  3.32276E+03 -6.91995E+03  1.12313E+04 -2.15683E+03 -2.38899E+01  6.38661E+03
 -1.03899E+04  1.25387E+03 -1.14915E+03 -4.07487E+03 -5.27728E+03 -1.02093E+04  1.10084E+04 -1.72906E+04
  1.53389E+04 -6.71497E+03  1.36357E+04  8.30398E+03  1.67561E+04  9.63127E+03  8.14967E+03  1.41950E+04
 -4.60757E+03  2.12589E+04 -1.66601E+04  1.70339E+04 -1.69437E+04  4.00983E+03 -1.39246E+04 -1.22217E+03
  1.76832E+02 -7.32331E+03  5.10648E+02  1.90624E+03 -5.54266E+03  5.61943E+03 -5.92953E+03  2.89786E+03
 -1.35784E+04 -2.77617E+03 -8.04382E+03 -1.04710E+04 -1.74313E+03 -1.69562E+04  1.04590E+04 -4.78372E+03
  8.82460E+03 -2.71713E+03  9.55151E+03  1.24808E+03  2.03378E+02  2.86735E+03 -3.33290E+03 -3.81317E+03
 -3.67710E+03 -7.40423E+03 -2.16448E+03 -1.24521E+04  6.31463E+03 -1.29425E+04  1.48591E+04 -4.58196E+03
  1.36480E+04  2.47414E+03  8.32556E+03  1.14157E+04  7.45479E+03  8.35683E+03 -5.08290E+03  7.81028E+03
 -1.25016E+04 -8.57922E+02 -4.91739E+02 -5.74848E+03  7.27395E+03 -2.39773E+03  5.71673E+03 -4.22239E+03
  2.81358E+03 -1.18548E+03  2.34001E+03  1.14646E+04 -4.55377E+03  8.56851E+03 -1.29360E+04  2.86927E+03
 -5.34983E+03 -3.47931E+03 -8.63471E+03 -5.70934E+03  6.37129E+03 -5.14490E+03  5.20060E+03 -5.12099E+02
  2.35397E+03  5.39845E+03 -4.66486E+03  6.01501E+03 -1.02706E+03 -2.25042E+03 -4.59500E+03  2.64048E+02
 -2.15757E+03 -8.53576E+03 -1.96855E+03 -5.86123E+03  9.29111E+03 -8.62349E+03  9.74045E+03  2.84627E+03
  9.07710E+03  6.77192E+03 -1.67233E+03  1.05884E+04 -5.22698E+03  3.73087E+03 -8.15983E+03 -2.22026E+03
 -9.49662E+03 -1.19858E+04 -9.39404E+02 -1.33541E+04  5.81129E+03 -1.06495E+04  1.35363E+03 -8.30366E+03
 -1.62063E+03 -1.64557E+01 -2.85267E+03  3.06759E+03 -1.56608E+03  1.61761E+02  1.30460E+03 -3.09855E+03
  8.74372E+03 -4.64394E+03  6.92471E+03 -2.35643E+03  9.98103E+03  3.74923E+03  9.26686E+03  1.16366E+04
 -2.64473E+03  9.34069E+03 -9.84366E+03  9.72228E+03 -1.45701E+04  2.66675E+03 -1.16382E+04 -4.54636E+03
 -1.40806E+04 -1.14831E+04 -1.87343E+03 -9.09398E+03  3.82155E+03 -4.75347E+03  3.13420E+03 -3.48925E+03
 -3.84289E+03 -4.14997E+03 -7.59823E+02 -2.05415E+03  7.44822E+03 -6.02466E+03  7.85429E+03  5.37932E+03
 -2.35621E+02 -8.60554E+02  5.69090E+03  2.53632E+03 -4.84919E+02  4.20564E+03 -4.65304E+03  6.12509E+03
 -8.93239E+03 -2.68079E+03 -2.53015E+03 -1.12691E+04 -1.91536E+03 -8.13845E+03  5.11434E+03 -9.82703E+03
  8.21538E+03 -4.67252E+03  1.05758E+04 -4.58570E+03  7.63529E+03  7.80953E+03  4.19105E+03  1.13922E+04
 -5.00297E+03  1.02350E+04 -2.32989E+03  3.17619E+03 -3.87712E+03 -3.49526E+03 -5.00565E+02 -2.69194E+03
  4.77691E+02 -9.89953E+02 -3.67272E+03  2.75530E+02 -3.51064E+03  3.39449E+03 -7.16772E+03 -3.14269E+03
 -3.02833E+03 -2.10545E+03 -2.10286E+03 -6.13501E+03  4.29798E+03 -6.77420E+03  8.49709E+03 -6.41704E+02
  7.66417E+03  5.88794E+03  2.98664E+03  7.47648E+03 -2.79643E+02  4.43738E+03 -7.41018E+03  2.86965E+03
 -1.10661E+04 -1.18392E+03 -1.80328E+03 -3.97229E+03 -3.42187E+03 -2.73563E+03  2.20576E+03 -8.82740E+03
  2.11584E+03  1.37700E+03  1.22206E+03  2.52187E+03  6.77892E+02  1.24634E+03  2.57083E+02  3.61065E+03
  3.46469E+03 -1.36757E+03  8.49858E+01  1.29172E+03  6.24301E+03  3.78167E+03  3.79249E+03  8.43872E+02
 -3.49097E+03  9.14672E+03 -3.89463E+03  5.53941E+03 -6.27704E+03 -2.37543E+02 -8.56055E+03 -1.88629E+03
  3.06007E+02 -7.11612E+03 -1.09839E+03 -8.60411E+03  9.39702E+03 -3.62908E+03  4.79128E+03 -4.53789E+03
  4.28204E+03  2.13842E+03  1.28557E+03 -8.94490E+02 -4.50052E+03  3.57836E+03 -4.01576E+03  1.36268E+03
 -3.59493E+03 -8.26041E+03  1.13317E+03 -3.24244E+03 -6.83318E+02 -5.34924E+03 -2.03480E+03 -1.54157E+03
 -2.47486E+03  1.72673E+03 -2.92475E+03  2.24869E+02 -2.97963E+03  9.54942E+02 -2.61388E+02  1.03115E+03
 -4.05969E+03 -1.13922E+03  4.81252E+03 -1.00157E+03  4.41897E+03  3.03295E+03 -1.46950E+03  6.03073E+03
  1.06291E+03  3.37020E+03 -3.89068E+03 -9.41155E+02 -3.73438E+03  1.57699E+03 -3.67856E+03 -2.02724E+03
  6.41977E+02  3.10864E+02 -1.23653E+03  7.28639E+02 -4.55352E+02  5.10395E+03  9.75954E+02  1.50891E+03
 -2.66399E+03  3.57319E+03 -6.95610E+03  2.90504E+03  2.75318E+03 -2.46113E+03  5.16830E+03 -1.64047E+03
  3.43544E+03 -2.79825E+02  2.71420E+03  6.54284E+02  1.10752E+03 -5.63389E+03  1.49719E+03 -2.05032E+03
  9.45099E+02  2.89522E+03  5.15041E+03 -1.00813E+01  5.87786E+02 -5.19977E+03  6.00957E+03  1.06105E+03
  1.99019E+03 -3.35983E+03  2.56475E+03  1.55609E+03 -3.08967E+03  5.61565E+02  1.13885E+02  4.90739E+03
 -4.90040E+03 -1.08474E+03 -3.02033E+03 -1.09634E+03  4.00061E+02 -2.74540E+03  6.05832E+02 -1.67991E+03
  2.15739E+03 -2.13963E+03  1.29746E+03  3.73003E+03  1.40968E+03  2.70100E+03  2.49034E+02  8.50903E+02
  6.57610E+02  2.81371E+03 -3.14513E+03  4.34259E+03  3.37846E+03  4.28565E+03  1.14029E+03  2.77755E+03
 -2.39148E+03  1.63903E+03 -5.89824E+03  9.42794E+02 -1.01068E+03 -8.42366E+02 -9.12817E+03 -3.54896E+03
 -1.59329E+03 -6.51316E+03  4.50262E+03 -1.07741E+04  4.25535E+03 -7.09351E+03  7.87228E+03 -6.74137E+03
  4.91798E+03  4.39411E+02 -2.28347E+03  5.53044E+03 -6.81160E+01  2.71324E+03 -3.20283E+03  4.42678E+03
 -3.33948E+03 -2.31437E+02 -4.07793E+03 -2.10812E+03 -3.14257E+03  1.91210E+03  6.82693E+02  4.65384E+03
 -2.02703E+03 -1.25383E+03 -5.76062E+03  4.55360E+03 -6.23131E+03 -4.96528E+02  4.43228E+03 -1.88285E+03
 -3.90925E+03  1.27410E+03  8.23430E+02  7.51398E+02  2.67624E+03  1.41869E+03  7.01295E+02  1.77029E+03
 -6.20935E+02  5.74283E+03  1.20240E+03  4.53310E+03 -4.47576E+03 -1.64472E+03 -1.47491E+03 -4.46518E+03
 -3.75361E+03 -5.08676E+03  4.54224E+03  9.43888E+01  5.34079E+03 -9.93110E+02  2.21376E+03 -2.55877E+03
  1.11671E+04 -5.72402E+02  3.50569E+03  5.24284E+03  4.28182E+02 -2.51339E+03 -5.92687E+02 -5.99290E+03
 -3.06173E+03 -2.75882E+03 -6.48528E+02  5.42898E+03  2.92933E+03  1.20660E+03 -1.71786E+03  1.43684E+03
  2.93840E+03 -1.04801E+03 -1.14712E+03 -1.05715E+03 -2.44370E+03  6.45203E+02 -4.02930E+03 -1.00554E+03
  1.42594E+03 -2.63171E+03  2.45675E+03  2.10228E+03  2.31421E+03  2.88124E+03 -4.96216E+02  4.26997E+02
 -3.06278E+02  2.45175E+03 -3.92551E+03  4.77654E+03  1.18858E+03  9.29078E+02 -3.65943E+03  2.45914E+02
  6.75306E+03 -3.46951E+03 -1.66131E+03 -7.63933E+02  2.57943E+03  1.10673E+03  1.02927E+03  4.55349E+02
 -5.34039E+03 -3.33812E+03 -1.27443E+03 -3.81699E+03  3.82170E+03 -2.74265E+03  3.09625E+03  1.03468E+03
  4.83296E+03  3.36237E+03 -2.34775E+03 -1.38402E+03 -4.16230E+03  2.21634E+03 -2.01480E+03  4.36747E+03
