 $NMID ID='MM_0lb_SNR50_14hz_g50_88.RAW', FMTDAT='(8E13.5)'
 TRAMP=1., VOLUME=1. $END
  3.11587E+05  3.89526E+03  3.34885E+05  2.45894E+05  8.53056E+04  3.38061E+05 -1.37173E+05  2.50500E+05
 -1.89387E+05  8.37287E+04 -1.06554E+05 -3.29475E+04  5.73575E+03 -5.42592E+04  5.52816E+04  1.35855E+03
  3.11278E+04  5.58292E+04 -1.71383E+04  7.45919E+04 -6.29457E+04  6.57404E+04 -8.50635E+04  3.18237E+04
 -8.31465E+04 -1.20551E+04 -5.52945E+04 -4.58652E+04 -1.09498E+04 -7.06899E+04  2.37903E+04 -4.00592E+04
  3.58968E+04  6.71401E+02  1.68204E+04  5.14902E+04 -3.82952E+04  4.49665E+04 -6.45629E+04  7.46846E+02
 -5.38002E+04 -5.84879E+04 -1.38057E+03 -7.90905E+04  3.60793E+04 -5.70839E+04  4.59553E+04 -1.40284E+04
  4.55039E+04  1.15304E+04  2.63508E+04  2.32540E+04  2.06014E+04  2.81597E+04 -2.80626E+03  2.42266E+04
 -1.93420E+04  9.44081E+03 -1.28644E+04 -8.51445E+03  6.04497E+03 -1.35157E+04  2.18456E+04  1.13013E+04
  5.34297E+03  3.45180E+04 -2.94062E+04  3.70616E+04 -6.14932E+04  8.59047E+02 -5.26884E+04 -4.68716E+04
 -1.52433E+04 -6.06190E+04  3.70480E+04 -4.70845E+04  5.94792E+04 -8.63760E+02  3.35829E+04  3.02618E+04
 -1.02176E+04  3.64207E+04 -2.57031E+04  1.66498E+04 -2.58319E+04 -3.51728E+03 -1.57385E+04 -1.16154E+04
 -6.76420E+03 -1.40417E+04 -4.02296E+03 -2.27553E+04  8.73545E+03 -2.33277E+04  1.48994E+04 -1.80520E+04
  1.28970E+04  9.92877E+03 -9.99584E+03  1.66975E+04 -2.49362E+04 -8.79980E+03 -3.70405E+03 -3.53001E+04
  2.29149E+04 -4.60418E+04  4.82965E+04 -1.65199E+04  4.39753E+04  1.78795E+04  1.66237E+04  4.58015E+04
 -1.11517E+04  3.38025E+04 -2.61456E+04  2.55203E+03 -1.23616E+04 -2.58240E+04  1.57399E+04 -3.51069E+04
  4.17616E+04 -8.84272E+03  4.55558E+04  2.46660E+04  2.04949E+04  4.44494E+04 -6.84666E+03  5.20102E+04
 -3.04066E+04  3.31869E+04 -4.39789E+04  1.12135E+04 -4.37141E+04 -1.55156E+04 -2.17804E+04 -3.49706E+04
  5.76575E+03 -4.09322E+04  3.40932E+04 -1.47992E+04  3.42691E+04  9.55902E+03  6.62966E+03  1.56684E+04
 -1.03201E+04  1.11278E+04 -1.68360E+04 -7.45029E+03  9.13887E+03 -9.08816E+03  2.02853E+04  7.86596E+02
  1.43573E+04  1.96890E+04 -5.41095E+03  1.80586E+04 -2.37723E+04  1.06843E+04 -2.22724E+04 -6.73211E+03
 -2.31670E+04 -2.05627E+04 -7.46555E+03 -2.04234E+04  3.47512E+03 -1.49547E+04  1.57504E+04 -1.51210E+04
  2.56261E+04 -1.34896E+04  3.41041E+04  2.83805E+03  1.90708E+04  1.78840E+04  3.33066E+03  3.68034E+04
 -2.08840E+04  3.23905E+04 -2.36778E+04  1.12343E+04 -1.90393E+04 -2.44562E+03 -6.52955E+03 -1.22252E+04
  4.74560E+03 -3.76008E+03 -2.64480E+03  7.46449E+03 -1.48559E+04 -6.82851E+02 -1.15290E+04 -3.49957E+03
 -9.33004E+03 -1.81533E+04  4.75961E+03 -2.12056E+04  1.42942E+04 -1.31573E+04  1.57339E+04 -5.02136E+03
  1.04661E+04  1.20475E+04 -2.34115E+03  1.19292E+04 -1.45629E+04  1.79772E+04 -1.57609E+04  1.23327E+03
 -1.91337E+04 -2.01008E+04 -1.71521E+03 -2.22785E+04  7.03224E+03 -2.28616E+04  1.62617E+04 -1.12134E+04
  1.45836E+04 -2.25921E+03  9.61915E+03  4.96755E+03  6.65445E+03 -6.54584E+02  8.85047E+03  9.56458E+02
  1.86197E+04  1.58933E+03  1.91463E+04  1.18959E+04  8.85690E+03  3.40784E+04  5.14519E+02  3.66002E+04
 -1.87305E+04  3.57881E+04 -2.67912E+04  8.69444E+03 -3.39007E+04 -2.44076E+03 -2.95766E+04 -1.31973E+04
 -1.09356E+04 -3.23241E+04  1.34156E+04 -2.97833E+04  2.48581E+04 -1.50215E+04  1.78870E+04  4.63082E+03
  8.19619E+03  1.46114E+04 -1.60699E+04  8.87528E+03 -1.70883E+04  1.05485E+03 -1.70776E+04 -8.18609E+03
  3.19277E+03 -1.33542E+04  1.23135E+04 -8.40500E+03  1.20513E+04 -4.61721E+02  6.50019E+03  8.32302E+03
 -7.56707E+03 -8.88969E+02 -1.04584E+04 -5.58412E+03  2.57381E+03 -1.00840E+04  6.11651E+03 -1.32802E+04
  2.02404E+04 -6.86240E+03  1.57612E+04  1.93833E+02  1.71028E+04  1.24111E+04  9.42968E+03  1.35801E+04
 -4.65173E+03  2.04495E+04 -1.35837E+04  1.59384E+04 -1.93607E+04  6.62697E+03 -8.28255E+03  8.34710E+02
 -1.91597E+03 -7.09340E+03 -2.08887E+03  1.40342E+03 -5.33250E+03  2.26661E+03 -8.85370E+03  4.64072E+03
 -7.83891E+03 -2.18160E+03 -7.59151E+03 -7.72795E+03 -2.89113E+03 -1.71837E+04  6.49794E+03 -1.34018E+04
  9.05561E+03 -2.12288E+03  6.10715E+03  6.16044E+03 -3.27412E+02  7.84276E+03 -4.63460E+03 -2.25806E+03
 -3.57378E+03 -9.09818E+03 -3.57778E+03 -7.61737E+03  1.34056E+03 -1.36719E+04  9.49370E+03 -6.79887E+03
  1.46052E+04  2.43902E+03  9.27336E+03  1.00514E+04  5.53274E+02  1.34149E+04 -9.79373E+03  1.23973E+04
 -1.33997E+04  1.71544E+03 -4.80678E+03 -1.77179E+03 -2.57785E+03  5.85853E+01  9.33256E+03 -2.41085E+03
  4.66071E+03  5.26004E+03  3.50354E+03  5.94557E+03 -1.94072E+03  1.44976E+04 -8.98811E+03  3.10222E+03
 -3.07183E+03 -6.39594E+03 -3.87828E+03 -8.63448E+03  7.39703E+03 -6.53367E+03  3.80045E+02  7.88743E+03
  1.72666E+03  3.80099E+03 -6.52050E+02  5.12881E+03 -3.66837E+03  4.15203E+03 -1.12987E+04 -5.04346E+02
 -4.58258E+03 -3.58873E+03  7.50302E+02 -1.30808E+04  1.39649E+04 -7.40763E+03  1.20147E+04  2.55747E+03
  1.20041E+03  9.25206E+03  1.97148E+03  7.87253E+03 -7.35626E+03  4.81118E+03 -6.92454E+03 -3.07712E+03
 -9.28068E+03 -4.72512E+03 -5.95043E+03 -6.48248E+03  5.97251E+03 -8.91441E+03  6.28359E+03 -4.02821E+03
  4.70469E+03  2.20876E+03  1.54754E+03  3.14169E+03  5.11760E+03 -3.65127E+03  5.69688E+02 -5.62810E+03
  6.52814E+03 -3.91052E+03  7.13453E+03 -7.23568E+03  1.15072E+04  2.73316E+03  7.39131E+03  1.11106E+04
 -3.45829E+03  1.82313E+04 -1.11680E+04  7.92598E+03 -1.71839E+04  4.01687E+03 -1.24771E+04 -9.94933E+03
 -8.76621E+03 -1.02639E+04 -6.32749E+03 -8.74743E+03  6.94406E+03 -2.64344E+03  4.23841E+03 -6.13978E+03
  6.69022E+03 -4.09045E+03  1.14461E+02  3.29967E+02  9.09693E+03 -9.77330E+02  4.31772E+03  2.04760E+03
  7.94845E+03  1.45862E+01  5.45122E+03  7.67421E+03 -9.82173E+02 -6.79105E+00 -6.62506E+03  3.78914E+03
 -1.22015E+04  5.21602E+02 -2.10308E+03 -9.24269E+03 -2.76877E+02 -7.15376E+03  7.04121E+03 -1.25896E+04
  8.34447E+03 -4.87684E+03  1.55715E+04 -3.07289E+03  5.52243E+03  1.04595E+04 -2.07339E+03  3.36460E+03
 -4.93067E+03  1.17498E+04 -4.15283E+03  3.14681E+03 -6.67377E+03 -2.95623E+03  1.17651E+03 -2.07044E+03
  1.41516E+03  8.88697E+02 -2.12135E+03  4.38149E+02 -5.15899E+03  7.40552E+02 -3.67451E+03 -2.31079E+03
 -1.78504E+02 -1.01733E+04 -1.13358E+03 -2.38086E+03  5.36523E+03 -1.08855E+04  6.45550E+03 -2.04057E+03
  9.06264E+03  6.31863E+03 -6.31669E+02  5.44308E+03  6.48762E+02  4.91564E+03 -8.69178E+03  6.43696E+03
 -3.61878E+03  1.37780E+03 -7.77407E+02 -2.40652E+03 -1.98708E+03 -6.09481E+03  3.98985E+03 -3.37243E+03
  2.08678E+03 -5.01583E+03  6.54659E+03 -2.23672E+02 -4.55816E+01 -3.02122E+02 -3.45412E+02  3.12715E+03
  4.08133E+03  8.31711E+03  6.76167E+02  2.41867E+03 -4.34962E+02  5.81026E+03  2.58776E+03  2.40216E+03
  2.02088E+03  3.96641E+03 -1.98069E+03  8.75945E+03 -6.31609E+03  4.05190E+03 -4.35905E+03 -1.16914E+03
  1.58546E+01 -7.95364E+03 -3.68121E+03 -5.09461E+03  1.81698E+02 -7.77437E+03  1.34499E+04 -5.84762E+03
  5.53717E+03  8.73602E+03  3.12200E+03  3.55385E+03 -8.29648E+02  9.79817E+02 -9.98726E+03  2.23684E+03
 -3.95108E+03 -4.78767E+03  4.82402E+02 -1.01679E+03  3.65043E+03  2.60366E+03  2.39502E+03 -1.41095E+03
  2.57325E+03 -3.26474E+03 -3.43065E+02  1.74019E+03 -7.06971E+01  1.10455E+03 -8.17478E+02  2.90303E+01
 -3.34186E+03 -4.84260E+02  1.59408E+03  2.76717E+03  5.20229E+02  2.94062E+03 -1.32117E+03  2.37158E+03
 -5.51043E+03  3.33541E+03 -7.61332E+03 -2.59095E+03 -6.32058E+03 -1.58647E+03  5.62141E+02 -3.93006E+03
  2.99644E+02 -3.68044E+03  3.14896E+03  1.00500E+02 -8.64565E+01  1.14850E+03  2.35972E+03  2.64307E+03
  1.67519E+03  2.05797E+03 -5.79150E+03 -4.31548E+03  2.02228E+02 -3.80668E+03  5.75407E+02 -1.63102E+03
  4.87941E+03  1.88531E+03  6.33145E+03 -2.49180E+03  9.15310E+02  5.86177E+02 -4.09207E+02  4.92014E+03
 -1.99292E+02  6.75339E+02 -3.92417E+03  3.11899E+02  2.03199E+03 -5.66293E+03  6.83986E+03 -3.08443E+03
  4.61780E+03  2.41933E+02  3.40876E+03  1.43677E+03  5.45682E+03  4.90789E+03  2.38273E+03 -9.65823E+02
 -5.12159E+03  1.31794E+03 -2.40253E+03 -2.25057E+03 -5.09347E+03 -3.41294E+03  2.63539E+03 -6.96388E+03
  6.21077E+02 -2.90694E+03  2.45265E+03  2.64190E+03  3.52551E+03 -7.64482E+02 -2.58346E+03  1.63403E+03
 -1.74185E+03 -3.56441E+03  2.13519E+03  1.57774E+03 -1.56056E+03 -5.82470E+03 -3.30876E+02  1.05377E+03
 -6.47946E+02  3.85302E+03 -3.17379E+03 -2.75786E+03 -8.37117E+03  6.69478E+03 -1.00406E+04  3.30610E+01
 -1.31036E+03 -1.02064E+04  7.99251E+03 -2.13539E+03 -1.01316E+03 -8.47676E+03  5.31644E+03 -3.62069E+03
  3.51729E+03  3.27077E+03 -3.08757E+02  4.08050E+03 -2.76542E+02  5.21932E+03 -5.88115E+03 -2.80721E+02
 -2.75393E+03  3.84417E+03  1.57423E+03 -1.56195E+03  1.77713E+03 -2.34909E+03 -1.51427E+02  1.56804E+03
 -2.05486E+03  4.97352E+02  4.27071E+02  1.87606E+02 -3.32535E+03 -3.41330E+03  2.72125E+03 -3.85270E+03
 -3.34394E+02  2.98128E+03  1.74546E+03  2.71687E+02  1.60793E+03  2.84672E+03 -2.99150E+03  6.60404E+02
 -4.21622E+03  6.67566E+03 -9.25629E+03  2.70783E+03  9.47894E+02  2.04510E+03 -7.22857E+02  4.15606E+03
  4.71041E+01 -7.96869E+03  6.32050E+03 -1.71017E+03  4.42187E+03 -4.93588E+03  2.47411E+03 -4.03139E+03
  1.27808E+02  2.10824E+03  1.92780E+03 -2.38429E+03 -2.86776E+03 -3.82404E+03  2.20895E+03 -9.66506E+02
  1.04117E+03  2.14956E+03  1.28395E+03 -1.38525E+03  7.36843E+02  1.25627E+03  5.36353E+03  4.68636E+03
 -4.53547E+03  5.37834E+03 -1.44300E+03 -3.87849E+03 -1.53399E+03 -3.63831E+03 -1.60018E+03  4.84584E+01
  1.48955E+03 -4.10895E+03  2.32013E+03 -1.56862E+03  1.10394E+03  6.22364E+03  3.12377E+03  2.83085E+03
  2.47998E+03  4.89788E+01 -1.48199E+03  3.63473E+03 -6.11769E+03  2.42159E+03 -4.84781E+03 -6.97835E+02
 -3.57500E+03 -9.24874E+02 -3.57487E+02  6.15456E+02  7.34123E+02 -1.90795E+02  3.75483E+02 -1.78435E+03
 -3.28700E+03  3.09646E+02 -2.18113E+03  2.24965E+03  2.97973E+03 -5.87539E+02 -6.84345E+01 -3.60469E+02
 -4.44616E+02  3.11986E+03 -3.03630E+03  1.36513E+03  1.32598E+03 -9.32982E+02 -2.67832E+03  4.29318E+03
