 $NMID ID='MM_0lb_SNR50_17hz_g45_39.RAW', FMTDAT='(8E13.5)'
 TRAMP=1., VOLUME=1. $END
  3.10397E+05 -4.75769E+02  3.40750E+05  2.46745E+05  8.63888E+04  3.39160E+05 -1.30944E+05  2.49196E+05
 -1.91777E+05  8.07215E+04 -1.05852E+05 -3.09319E+04  2.39290E+03 -4.92199E+04  4.94191E+04  5.26540E+03
  3.15637E+04  4.98046E+04 -1.45981E+04  7.76030E+04 -6.42404E+04  6.64359E+04 -8.32791E+04  3.15826E+04
 -7.88873E+04 -7.27814E+03 -6.14912E+04 -4.91666E+04 -1.56736E+04 -6.63377E+04  2.93695E+04 -4.73789E+04
  3.91368E+04  3.47063E+03  1.80712E+04  4.06855E+04 -3.04914E+04  4.70748E+04 -6.82860E+04 -2.97162E+03
 -4.84346E+04 -5.44039E+04 -5.87905E+03 -7.92127E+04  3.27585E+04 -5.47032E+04  4.89827E+04 -1.77217E+04
  4.31966E+04  7.12285E+03  3.09798E+04  2.91329E+04  1.45756E+04  2.57634E+04 -4.37108E+03  2.46618E+04
 -1.86688E+04  1.02682E+04 -1.56959E+04 -1.99490E+03  5.14187E+03 -7.00958E+03  2.15417E+04  1.01360E+04
  3.47677E+03  3.12500E+04 -3.13105E+04  3.46108E+04 -6.48443E+04  2.14878E+03 -5.65869E+04 -4.28167E+04
 -1.18268E+04 -6.10665E+04  3.68869E+04 -4.73083E+04  5.48381E+04  2.35586E+03  3.50420E+04  3.35487E+04
 -1.00110E+04  3.35660E+04 -2.91624E+04  9.51982E+03 -3.01972E+04 -4.79861E+03 -1.53537E+04 -1.43068E+04
 -5.35081E+03 -1.01755E+04  1.46895E+03 -1.66016E+04  6.45668E+03 -2.28385E+04  1.06748E+04 -1.00398E+04
  9.56778E+03 -4.72136E+02 -4.00164E+03  1.65957E+04 -2.16936E+04 -5.34824E+02 -9.86960E+03 -3.12210E+04
  2.20416E+04 -4.22898E+04  4.83159E+04 -1.65464E+04  4.51580E+04  1.64853E+04  1.52652E+04  4.60030E+04
 -1.55420E+04  3.22637E+04 -2.40703E+04  1.59680E+03 -6.30206E+03 -2.84753E+04  2.23392E+04 -3.08058E+04
  3.87116E+04 -1.05971E+04  3.36454E+04  2.35806E+04  1.63749E+04  4.17791E+04 -9.19257E+03  4.92785E+04
 -2.79531E+04  3.31552E+04 -3.95276E+04  8.39898E+03 -3.80573E+04 -1.57453E+04 -1.81787E+04 -3.08545E+04
  4.12243E+03 -3.27494E+04  3.12678E+04 -1.57080E+04  2.41951E+04  9.98548E+03  1.02564E+04  1.81473E+04
 -1.78792E+04  7.61413E+03 -9.91348E+03 -4.55688E+03  7.09296E+03 -1.43776E+04  1.67352E+04  6.39094E+03
  1.58596E+04  2.12802E+04 -5.83536E+03  2.20165E+04 -2.14565E+04  1.23681E+04 -2.79341E+04 -7.80110E+03
 -1.87937E+04 -1.54873E+04 -7.73904E+03 -1.78254E+04  1.44950E+03 -1.16370E+04  1.05750E+04 -1.83326E+04
  2.01512E+04 -1.11114E+04  2.89379E+04  5.32475E+02  2.70140E+04  1.81429E+04  6.84634E+03  3.23534E+04
 -1.50530E+04  2.55634E+04 -2.82807E+04  1.29795E+04 -1.72867E+04 -1.51846E+04 -3.88825E+03 -1.13694E+04
  1.18095E+03 -5.27437E+03 -4.36573E+03  5.54641E+03 -1.25035E+04  6.65158E+03 -1.21894E+04 -6.21447E+03
 -9.30711E+03 -1.64234E+04  1.56881E+02 -1.69199E+04  1.20333E+04 -1.50694E+04  1.49103E+04 -3.46610E+03
  1.48150E+04  1.29774E+04  2.06695E+03  1.63211E+04 -6.67347E+03  9.85435E+03 -1.58051E+04  2.27612E+03
 -1.28877E+04 -1.55227E+04 -2.95356E+03 -2.15683E+04  7.57946E+03 -1.44985E+04  1.86587E+04 -7.30462E+03
  1.49870E+04 -8.18030E+02  1.02978E+04  6.97529E+03  3.24912E+03  2.28080E+03  8.45842E+03 -4.84976E+03
  1.38273E+04  1.68178E+03  1.32369E+04  1.34867E+04  6.36391E+03  2.51582E+04  3.29227E+02  2.71370E+04
 -1.94678E+04  2.09756E+04 -2.60967E+04  1.01284E+04 -2.00385E+04 -4.73012E+03 -2.85504E+04 -2.00767E+04
 -1.35311E+04 -2.13488E+04  7.89855E+03 -2.36535E+04  1.80423E+04 -1.35787E+04  1.91120E+04  6.48530E+03
  5.80688E+03  9.30300E+03 -6.77913E+03  9.25816E+03 -1.61359E+04  1.99322E+03 -1.27888E+04 -9.81523E+03
 -2.89378E+03 -1.47402E+04  8.46812E+03 -1.00210E+04  8.47992E+03 -3.09795E+03  4.66283E+03  8.92986E+03
 -5.60306E+03  1.37667E+03 -9.74244E+03 -5.90683E+03  3.76704E+03 -1.06114E+04  9.31115E+03 -1.31186E+04
  1.36264E+04 -2.95274E+03  1.27628E+04  1.50618E+03  1.01067E+04  1.63973E+04  7.32439E+03  1.38057E+04
 -4.04917E+03  1.94693E+04 -1.23592E+04  1.12722E+04 -1.21001E+04  1.70916E+03 -7.42501E+03 -1.21706E+03
 -8.19071E+03 -3.18217E+03 -2.64614E+03 -5.72052E+03 -3.61296E+03  4.33438E+03 -6.60804E+03  3.34302E+03
 -7.37457E+03  3.48316E+03 -7.44594E+03 -7.11888E+03 -3.89749E+03 -1.26710E+04  2.41855E+03 -5.14615E+03
  9.09004E+03 -4.08623E+03  8.41687E+03 -2.55863E+03  3.94489E+03  3.77655E+03 -3.61278E+03 -1.08565E+02
 -2.89573E+03 -1.15739E+03  1.29287E+03 -8.99224E+03  5.79735E+03 -1.05457E+04  1.06264E+04 -4.09640E+03
  1.65630E+04 -8.01495E+02  7.63731E+03  6.68653E+03  3.79653E+03  1.30827E+04 -1.00870E+04  1.18121E+04
 -9.83985E+03  1.97605E+03 -5.01650E+03 -3.49840E+03  1.15233E+03 -5.29312E+03  5.15478E+03 -4.00828E+03
  3.47048E+03  7.69200E+03 -3.57195E+03  5.45341E+03 -4.90245E+03  4.54529E+03 -6.71904E+03  6.58439E+02
 -6.40509E+03 -5.95856E+03 -1.03636E+03 -7.83446E+03  6.92477E+03 -2.85217E+03  8.63039E+03  2.09385E+03
  1.88068E+03  3.89429E+03 -1.76675E+03  2.11228E+03 -3.05764E+03 -8.46895E+02 -7.64786E+03 -2.07440E+03
 -3.13573E+03 -8.00240E+03  7.86297E+02 -1.32925E+04  4.53244E+03 -5.68171E+03  9.59612E+03  6.15797E+03
  5.40977E+03  1.24063E+03  3.84935E+03  7.55463E+03 -7.07014E+03  1.93410E+03 -7.11927E+03 -3.17170E+03
 -6.13979E+03 -3.77187E+03 -5.94724E+03 -4.72471E+03  2.86380E+03 -2.59091E+03  3.76544E+03 -2.09418E+02
  1.85827E+03  2.91609E+02  1.74056E+03 -8.99337E+02  2.39316E+03 -6.79774E+02  3.49995E+02  6.92858E+03
 -8.00003E+01 -3.69792E+03  9.37785E+03  2.07148E+03  4.42898E+03  4.67875E+03  7.50019E+03  5.81072E+03
 -2.06776E+03  1.40334E+04 -1.30608E+04  5.51320E+03 -1.13537E+04  2.03958E+03 -1.10710E+04 -1.87011E+03
 -4.51241E+03 -4.76841E+03 -2.41691E+03 -1.42325E+03  3.10020E+03 -5.61608E+03  5.24273E+03 -1.16962E+03
  1.32832E+03 -1.56731E+03  1.46906E+03 -6.03821E+02  4.53041E+03 -7.01402E+03  3.67654E+03  1.25962E+03
  2.43200E+03  3.34183E+03  6.10726E+03  2.23286E+03  2.86277E+03  1.45333E+03 -4.52922E+03  6.47270E+03
 -3.82632E+03  9.69269E+02 -3.50750E+03 -7.46628E+03 -1.40689E+03 -7.79140E+03  5.08871E+03 -9.36598E+03
  9.30946E+03 -5.14600E+03  7.57742E+03  5.30694E+03  4.61840E+03  4.85615E+03 -1.06846E+03  7.42804E+03
 -1.44082E+02  6.26525E+03 -1.45606E+03  2.78997E+03 -3.84109E+01  2.00443E+03 -4.84204E+03 -2.23775E+03
 -1.56167E+03  4.74931E+02 -9.90293E+02  3.36295E+03 -3.30979E+03  2.79497E+03 -4.37995E+03  4.55372E+03
 -3.57993E+03 -1.87897E+03 -7.81165E+02 -9.44022E+03  5.33324E+03 -8.77816E+03  5.14871E+03 -2.66423E+03
  6.50572E+03  2.38889E+03  4.42087E+03  2.93926E+03 -1.94240E+03  2.05673E+03 -4.11699E+02  3.92194E+03
 -5.09967E+03 -2.30280E+03 -4.05762E+03 -8.21534E+02 -1.33861E+03  2.52080E+02  1.89413E+03 -5.71497E+03
 -7.92632E+02 -2.80797E+02  1.69897E+03 -1.56282E+03  5.45912E+02  2.85587E+03  4.97053E+03  2.15655E+02
  1.40399E+02 -3.57836E+03 -3.04088E+02 -1.36914E+03  2.14863E+03  4.79024E+03 -1.64489E+02  4.16257E+03
  4.66454E+01  3.62376E+03  1.04871E+03  4.89851E+03 -8.05841E+03 -1.70745E+03 -5.66001E+03  6.66590E+02
 -7.71838E+03 -4.54609E+03 -4.30207E+03 -6.30259E+03 -1.41588E+03 -4.58384E+03  6.70954E+03 -1.46330E+03
  2.84273E+03  3.48231E+02 -9.84976E+02  2.03980E+03 -2.38052E+02  8.14047E+01 -2.23173E+02 -7.08084E+02
 -2.22065E+03 -4.25167E+03 -3.90010E+03 -4.11844E+03  4.42695E+03 -2.56172E+03  1.13164E+03  5.37893E+03
  2.66453E+03 -4.16672E+02  2.89616E+03  3.43871E+03  7.47072E+01  2.41186E+02  2.03089E+03  2.03044E+03
  1.58229E+03  1.00525E+03  4.28479E+03 -2.72719E+02  2.98780E+02  3.03811E+03  3.55815E+03  2.33049E+03
 -1.37679E+03  7.79389E+02 -1.95857E+03 -3.10158E+03 -2.28693E+03 -2.09557E+03  1.30140E+03 -2.77182E+03
 -8.41887E+02 -2.16279E+03  5.29258E+02 -3.60654E+03  3.04152E+03 -2.24585E+03  3.29731E+03  4.56442E+02
 -2.53823E+03 -1.66304E+03 -2.10769E+03 -3.31216E+03  5.56479E+03 -6.48827E+03  7.31168E+02 -1.35411E+03
 -6.71325E+02 -1.43201E+03  5.36751E+03  4.04825E+02 -1.38555E+03  8.36593E+02  1.99958E+03 -2.30386E+02
 -8.67757E+02  2.06923E+03 -4.45457E+03 -1.83744E+03 -2.15653E+03  2.01444E+03  7.92590E+01 -4.83745E+03
  5.00456E+03  5.02466E+03  5.24141E+03  3.46354E+03  2.09074E+03  6.61591E+02 -2.82968E+03  5.77062E+02
  2.54315E+03 -1.45816E+03  5.24993E+02 -1.70295E+03 -3.47092E+03 -7.80437E+02  1.93565E+02 -2.86013E+03
  2.71503E+03  1.07543E+03 -4.51489E+02  3.58287E+03  1.98149E+03  1.92483E+03 -6.44424E+02  1.64289E+03
 -2.91172E+03  8.19334E+02 -1.91612E+03  3.20850E+02  2.56376E+02 -1.37052E+03  4.66990E+03 -2.11115E+03
 -6.09369E+02  7.34102E+03 -5.69540E+03  3.33885E+03 -7.32889E+02 -2.48941E+03 -1.28686E+03  4.93229E+02
 -3.14921E+03 -4.73030E+03 -1.21318E+03 -7.76720E+03  4.67974E+03 -4.75289E+03  2.87116E+03 -1.54382E+03
  3.29700E+03 -6.84531E+02  4.47775E+02  2.00482E+03 -3.13683E+03  2.43694E+03 -2.88741E+02  3.93175E+03
 -2.56174E+03 -3.02795E+02 -5.35217E+03  1.26450E+03  1.62168E+03  4.88793E+03 -2.10615E+03  4.12801E+02
 -1.96627E+03  3.34684E+03 -2.40499E+02 -4.59500E+03  2.21160E+03 -2.15447E+03 -4.08479E+03  9.65293E+02
  4.71332E+02 -5.66286E+02  4.44082E+03 -6.65793E+01  7.44280E+02  4.00200E+03 -2.23008E+03  1.05040E+03
 -1.62087E+03 -1.93712E+03  3.03120E+03  1.69917E+03 -3.43061E+03  1.40095E+03 -7.59692E+03 -3.81578E+03
 -8.46019E+02 -2.14512E+03  1.78014E+03 -3.00276E+03  9.83516E+02  1.61044E+03  3.39912E+03 -2.30720E+02
  3.38229E+02  1.23882E+03 -3.57747E+03 -1.02840E+03 -1.03868E+03 -2.37745E+03 -3.75175E+02 -1.23526E+03
  7.40776E+03 -2.35265E+03 -6.03099E+01  1.92929E+03  3.66020E+03  3.02222E+03  2.33684E+03  3.67330E+03
 -2.05058E+03  1.84700E+02 -3.72748E+03  7.98082E+02 -1.31425E+03 -2.68699E+03  1.49948E+02  3.48351E+03
  2.32976E+03 -2.21034E+03  1.65834E+03  7.66991E+00  7.13723E+03  1.65880E+03  7.93325E+02  2.40538E+03
 -3.08853E+03 -2.14425E+03 -1.17145E+03  3.31256E+03 -5.33748E+03 -3.49857E+03 -2.14096E+03  1.50760E+02
 -4.43330E+03  5.82392E+03 -7.55233E+02  2.92863E+03 -1.91675E+02 -6.02624E+02 -4.39243E+03  2.37038E+03
 -3.18568E+03 -2.30481E+03 -1.80376E+03 -6.67080E+03  6.53087E+02 -4.51809E+03  1.25369E+03  1.57020E+03
 -4.05745E+02  4.43768E+03  1.68906E+03 -4.51422E+02  1.01231E+03  2.18012E+02 -3.13948E+03  8.10225E+02
