 $NMID ID='MM_0lb_SNR50_12hz_g55_76.RAW', FMTDAT='(8E13.5)'
 TRAMP=1., VOLUME=1. $END
  3.09357E+05 -3.03241E+03  3.34885E+05  2.49323E+05  8.29606E+04  3.38621E+05 -1.33353E+05  2.51913E+05
 -1.89231E+05  8.19979E+04 -1.13511E+05 -3.32899E+04 -2.09568E+03 -5.24650E+04  5.58007E+04 -1.33880E+03
  3.74874E+04  5.07047E+04 -1.47178E+04  7.83892E+04 -6.02388E+04  6.01869E+04 -8.61209E+04  3.25137E+04
 -8.08338E+04 -1.70506E+04 -5.70392E+04 -5.04000E+04 -9.49495E+03 -7.47857E+04  3.23505E+04 -5.27480E+04
  4.37174E+04  3.31644E+03  1.26745E+04  4.98483E+04 -3.63510E+04  4.62984E+04 -6.25702E+04  7.25054E+02
 -5.60810E+04 -5.79452E+04 -1.03422E+04 -8.24029E+04  3.58711E+04 -5.34513E+04  4.72728E+04 -1.92833E+04
  4.03984E+04  6.08115E+03  2.96354E+04  2.85386E+04  1.33073E+04  3.14587E+04 -1.21588E+04  2.74143E+04
 -2.29869E+04  9.87771E+03 -2.31590E+04 -8.91815E+03  9.16804E+03 -5.86485E+03  2.38094E+04  8.64398E+03
  7.42164E+03  3.47274E+04 -3.02922E+04  3.69252E+04 -6.45060E+04  4.39023E+03 -5.40488E+04 -4.05530E+04
 -1.12172E+04 -6.53800E+04  3.83636E+04 -4.63396E+04  6.41612E+04 -1.31544E+03  3.26083E+04  3.55888E+04
 -6.79314E+03  3.77254E+04 -2.47112E+04  1.86150E+04 -3.26219E+04 -8.19483E+03 -1.78959E+04 -1.11096E+04
 -8.45641E+03 -1.37059E+04  2.19382E+02 -2.38653E+04  7.02432E+03 -2.01260E+04  1.43136E+04 -9.63371E+03
  1.13749E+04  9.29360E+03 -1.16761E+04  1.41833E+04 -2.23431E+04 -5.82562E+03 -7.42546E+03 -3.59970E+04
  2.03051E+04 -4.60840E+04  5.29324E+04 -1.91668E+04  4.64600E+04  2.34143E+04  1.28630E+04  4.54976E+04
 -1.66679E+04  3.35045E+04 -2.90664E+04  5.46554E+03 -9.69911E+03 -3.03596E+04  1.93477E+04 -3.45692E+04
  4.53186E+04 -1.25823E+04  3.76769E+04  2.32156E+04  1.73589E+04  4.84588E+04 -7.03438E+03  5.65078E+04
 -3.68326E+04  2.93611E+04 -4.38982E+04  9.74546E+03 -4.27748E+04 -1.27149E+04 -2.95873E+04 -3.80696E+04
  7.31813E+03 -4.03039E+04  2.56681E+04 -1.69748E+04  2.79340E+04  1.00440E+04  7.07860E+03  2.22536E+04
 -1.25981E+04  9.24262E+03 -7.18458E+03 -7.44206E+03  5.80611E+03 -1.02073E+04  1.80201E+04  5.51557E+03
  1.54654E+04  2.02977E+04 -5.38220E+03  2.57651E+04 -2.16346E+04  1.61772E+04 -3.40594E+04 -1.61019E+02
 -2.16824E+04 -1.48028E+04 -1.19329E+04 -2.05673E+04  8.47145E+03 -2.49448E+04  1.97992E+04 -2.60578E+04
  2.68265E+04 -1.85824E+04  3.93380E+04  3.35576E+03  2.52363E+04  2.41545E+04  6.11233E+03  4.02459E+04
 -1.24530E+04  2.37509E+04 -2.68871E+04  1.17894E+04 -2.34014E+04 -1.38629E+04 -6.14939E+03 -1.31288E+04
  1.57988E+03  3.60396E+02 -6.15631E+03  5.26726E+03 -1.81050E+04  1.25194E+04 -1.93040E+04 -1.55685E+04
 -9.90096E+03 -1.98471E+04  7.13307E+03 -3.08397E+04  1.80407E+04 -1.49935E+04  2.37653E+04 -2.09161E+03
  9.21582E+03  1.53621E+04  6.58032E+02  2.30329E+04 -1.29809E+04  8.02933E+03 -2.33991E+04 -1.84474E+03
 -1.75914E+04 -1.97099E+04 -5.36177E+03 -2.64535E+04  8.63207E+03 -1.89301E+04  2.09875E+04 -1.18563E+04
  2.12297E+04 -3.62221E+03  1.12275E+04  4.37189E+03  1.24606E+04 -5.59038E+03  7.59070E+03  3.45431E+03
  2.17335E+04  3.73171E+03  1.97629E+04  1.10476E+04  1.27088E+04  3.70401E+04 -2.67734E+03  4.08107E+04
 -2.33317E+04  3.29245E+04 -3.02164E+04  1.55273E+04 -3.51056E+04 -6.82111E+03 -3.37801E+04 -2.53101E+04
 -7.41480E+03 -2.74743E+04  1.66013E+04 -2.72529E+04  2.91475E+04 -1.07733E+04  2.04583E+04  8.79587E+03
  1.12827E+04  1.62573E+04 -1.20179E+04  1.61629E+04 -1.74136E+04 -2.10821E+03 -1.72482E+04 -1.44895E+04
 -4.89095E+03 -2.09044E+04  8.61724E+03 -1.36458E+04  1.41208E+04  1.22921E+03  2.17792E+02  1.09924E+04
 -5.76683E+03  8.04158E+03 -1.61120E+03 -2.38100E+03 -2.84503E+03 -1.59261E+04  9.33586E+03 -1.27959E+04
  2.07232E+04 -9.86233E+03  2.02601E+04  5.18106E+03  1.29914E+04  9.43413E+03  5.23803E+03  2.61471E+04
 -8.69363E+03  2.35404E+04 -1.27787E+04  1.58600E+04 -2.03828E+04  4.23797E+02 -1.07428E+04 -3.56946E+03
 -5.04407E+03 -7.45884E+03  6.54816E+02  6.64236E+03 -3.48508E+03  2.09189E+02 -4.16164E+03  5.91988E+03
 -1.09925E+04 -3.14315E+03 -1.21886E+04 -8.40565E+03 -6.75883E+03 -7.20627E+03  1.90387E+03 -1.29052E+04
  3.35951E+03 -1.48613E+03  1.24930E+04  6.45105E+03  3.26521E+02  9.33216E+03 -3.44309E+03  1.97944E+03
 -7.60801E+03 -5.32404E+03 -7.07335E+03 -1.28003E+04  6.33199E+03 -1.34325E+04  1.61056E+04 -7.13109E+03
  1.61094E+04  1.60298E+03  1.64286E+04  1.22535E+04  1.64177E+03  1.17936E+04 -8.69738E+03  1.18883E+04
 -9.98737E+03  2.72379E+03 -3.74627E+03 -3.40763E+03 -1.17864E+02 -4.08263E+03  1.15636E+04  9.08787E+02
  8.32963E+03  8.43025E+03  3.55514E+03  1.27675E+04 -6.50544E+03  1.54437E+04 -1.72084E+04 -2.78044E+03
 -6.99705E+03 -6.34238E+03 -1.42817E+03 -1.11839E+04  5.79836E+03 -6.08477E+03  1.06189E+04  2.63029E+02
  5.31096E+03  5.27542E+03 -5.77860E+03  1.32490E+04 -3.39449E+03  3.68931E+01 -1.07317E+04 -2.05324E+03
 -2.34906E+03 -1.53177E+04  5.04810E+03 -1.54044E+04  9.82583E+03 -9.95570E+03  1.23036E+04  2.68864E+03
  1.21058E+04  1.28910E+04  4.97160E+02  1.28003E+04 -1.28345E+04  1.34375E+04 -1.05135E+04 -8.47022E+03
 -7.86581E+03 -1.10603E+04 -3.24150E+03 -6.88683E+03  4.11116E+03 -1.18455E+04  6.60515E+03 -4.44856E+03
  5.79726E+03 -3.68780E+03 -3.21515E+03  7.51116E+03 -1.44959E+02 -2.07483E+03  1.42878E+03 -3.72089E+03
  8.47004E+03  3.77741E+03  1.58264E+04  2.53094E+02  1.46238E+04  5.60862E+03  8.15619E+03  1.67457E+04
 -4.26458E+03  1.81471E+04 -1.48346E+04  1.53068E+04 -2.02802E+04 -6.35172E+02 -1.46751E+04 -6.40794E+03
 -1.47985E+04 -1.29166E+04 -3.55337E+02 -7.24706E+03  1.29956E+03  4.97756E+01  2.51731E+03 -5.75302E+03
  1.56140E+03 -5.47340E+03  4.11332E+02 -5.06810E+03  2.98122E+03 -7.12205E+03  2.06998E+03 -1.43316E+02
  1.60524E+04  7.48616E+03 -2.76795E+03  6.55657E+03 -4.94882E+03  2.44139E+03 -1.48670E+04  8.48235E+03
 -1.37273E+04  1.85741E+03 -7.17091E+03 -3.69191E+03 -2.23288E+03 -1.40205E+04  5.26970E+03 -1.03233E+04
  1.44695E+04 -8.90634E+03  1.23267E+04  2.26430E+03  1.39469E+04  1.48494E+04  3.73406E+02  1.51537E+04
 -2.65230E+03  1.25884E+04 -5.28369E+03 -2.39413E+02 -9.31572E+03  1.91234E+03 -6.17332E+03 -4.11535E+03
 -2.29694E+03  4.66972E+03 -1.46637E+02  2.47891E+03 -3.13285E+03  3.54565E+03 -1.01535E+04  3.62835E+03
 -2.66635E+03 -1.04235E+04  1.46779E+03 -1.22704E+04  1.34396E+04 -9.44572E+03  8.43865E+03 -3.52536E+03
  1.27008E+04  5.81026E+03  2.15747E+03  1.18356E+04 -3.97178E+03  5.54751E+03 -3.93402E+03  5.87156E+03
 -8.61261E+03 -8.51419E+02 -9.86941E+03 -5.47618E+03  6.30860E+02 -9.11454E+03  5.00594E+03 -6.87573E+03
  1.44194E+04  9.49327E+02  3.47397E+03 -7.07986E+02  8.05457E+03  5.23176E+03  4.46890E+03  5.82360E+03
  2.25637E+03  3.13394E+03  2.45320E+03  2.54043E+03 -2.86175E+02  1.05447E+04 -4.21213E-01  4.47416E+03
 -1.61481E+03  9.03549E+03 -4.34991E+03  5.78060E+03 -6.51711E+03  1.75393E+03 -1.17701E+04 -6.06728E+03
 -5.47121E+03 -7.24964E+03  3.58584E+03 -1.26124E+04  7.66737E+03 -4.16208E+03  9.02531E+03 -3.15251E+03
  5.19759E+03  3.11751E+03 -1.02098E+03  6.64976E+03 -1.31805E+03  3.30146E+03 -6.38510E+03 -1.12217E+03
  2.72834E+02 -5.36742E+03  7.27934E+03 -2.69480E+02  4.26240E+03  3.75795E+02  5.27192E+03  1.21715E+03
  2.68532E+03  4.97338E+03  3.92414E+03  3.99266E+02  1.06989E+03  3.86022E+02 -7.12583E+03 -2.64858E+03
  6.03901E+03  1.41853E+02  2.98117E+03 -1.98038E+03  2.13058E+03  4.72519E+03 -2.53609E+02  2.02118E+03
 -4.66482E+03  6.52908E+03 -2.45550E+03  1.19459E+03 -7.25079E+03 -2.15735E+03 -3.64871E+03 -4.70560E+03
  2.72579E+03 -2.22041E+03  2.83352E+03 -1.41523E+03 -4.09659E+02  2.36007E+03 -3.26881E+03  4.46691E+03
 -8.29171E+03  1.68877E+03  5.79796E+02 -6.93797E+03 -1.06733E+04 -6.81847E+03  6.28896E+03 -6.07080E+03
  5.45515E+03  2.82043E+03  8.36166E+03 -2.40070E+03  4.00507E+03  7.89151E+03  3.17269E+03 -1.17523E+03
 -6.22520E+03 -1.11525E+03 -4.54834E+03 -7.20972E+03 -7.73588E+02 -4.05539E+02  4.70488E+03 -1.93620E+03
  5.71949E+03  3.09855E+03  3.98421E+03  4.12101E+03  5.20356E+02  9.77798E+03  4.19612E+03  3.79240E+03
 -1.02615E+04  3.80414E+03 -4.96821E+03 -3.44462E+03 -1.59106E+03 -3.81850E+03 -1.32409E+03 -3.52298E+02
  2.97055E+03 -3.13911E+03  1.35713E+02  4.89725E+03  4.29640E+03  3.83180E+03 -1.35333E+03  2.14398E+03
  1.79786E+03  3.76671E+03 -8.02620E+03  4.14292E+02 -2.13919E+01 -3.16020E+03 -5.54369E+03  5.94922E+02
  2.16075E+03  4.58354E+03 -1.37660E+03 -3.78201E+02 -7.57016E+03  9.92766E+02 -1.06357E+04 -8.46974E+03
 -4.87510E+03 -6.37498E+03 -3.62446E+02 -1.15461E+04  7.41856E+03 -8.35905E+03  8.34422E+03 -1.34389E+03
  8.72018E+03  2.29384E+03 -1.11595E+03  1.77996E+03  1.11051E+03  9.89656E+03  8.46410E+02  3.66211E+03
  1.13184E+01  7.37609E+03 -1.66755E+03  1.98150E+03  2.57278E+03 -2.19981E+03  4.34529E+01  9.83687E+03
  1.34333E+03 -2.20964E+03  1.98501E+03  7.90538E+02 -2.43610E+03 -5.79977E+03 -2.72454E+03  1.00883E+03
  5.70007E+03  2.07788E+03  1.46970E+03 -1.90761E+03  2.84790E+03  3.52011E+03 -2.72959E+02  4.19040E+03
 -1.45188E+03  1.17079E+04 -4.78200E+03  1.10361E+04 -9.27578E+03  1.87393E+03 -6.75482E+03 -4.16561E+03
 -4.54254E+03 -1.08355E+04 -2.30136E+03 -5.71854E+03  3.71123E+03 -3.06608E+03  6.93838E+03 -2.72208E+02
 -1.15559E+03  4.84956E+03  7.20183E+02  1.85464E+03 -2.72915E+03  1.30637E+03  3.25914E+03  1.75916E+03
  4.16181E+03 -2.45066E+03  3.63333E+01 -6.41503E+02  6.62926E+03  1.71267E+03 -6.27832E+03  5.09899E+03
 -1.51507E+03 -7.97811E+02 -1.81443E+03 -5.74500E+02 -3.96965E+03 -5.12678E+03 -4.47352E+03 -8.56249E+03
  6.32460E+03 -2.15436E+03  5.83262E+03  1.02516E+03  2.57317E+03 -4.93150E+03  1.91835E+03  6.76321E+03
  3.76892E+03  4.79584E+03 -1.33268E+03  4.00857E+03 -5.68345E+03  8.69919E+01 -5.66804E+03 -2.88654E+03
 -8.52575E+01  2.94392E+03  4.53736E+03 -4.45231E+02 -1.87224E+03 -2.29561E+03 -6.59989E+03 -7.67576E+03
 -2.23462E+03 -1.62723E+03 -5.00713E+03 -5.76308E+03  5.54654E+03 -5.07330E+03  4.35220E+03  1.14485E+03
 -8.23067E+02 -2.26816E+03 -5.42597E+03  6.61790E+03 -2.65662E+03  3.98506E+03  3.35248E+03  4.35474E+03
