 $NMID ID='MM_0lb_SNR50_12hz_g60_30.RAW', FMTDAT='(8E13.5)'
 TRAMP=1., VOLUME=1. $END
  3.12647E+05  2.76586E+03  3.37610E+05  2.53328E+05  8.13545E+04  3.43184E+05 -1.31791E+05  2.50405E+05
 -1.97825E+05  8.26505E+04 -1.09049E+05 -3.25874E+04 -8.40519E+02 -4.82214E+04  5.70976E+04  7.66124E+03
  3.04331E+04  4.70429E+04 -1.48126E+04  7.42493E+04 -6.07596E+04  6.02316E+04 -8.20789E+04  3.30776E+04
 -8.38051E+04 -7.38013E+03 -6.40231E+04 -4.99947E+04 -1.54435E+04 -7.42074E+04  2.44008E+04 -4.42575E+04
  3.86815E+04  4.81091E+03  1.44368E+04  4.81080E+04 -3.52962E+04  4.78338E+04 -6.48432E+04 -3.56088E+03
 -5.40743E+04 -5.45452E+04 -8.63597E+03 -7.59966E+04  3.57029E+04 -5.55604E+04  5.09453E+04 -1.77234E+04
  4.79458E+04  1.13255E+04  3.12390E+04  2.60921E+04  1.84759E+04  3.01129E+04 -1.17851E+04  2.72458E+04
 -2.20340E+04  1.67351E+04 -1.85791E+04 -3.83937E+03  4.77532E+03 -8.71937E+03  2.59073E+04  1.33236E+04
  9.38386E+03  3.35607E+04 -3.41149E+04  3.90994E+04 -6.12300E+04  3.06329E+03 -5.45268E+04 -4.42321E+04
 -1.60256E+04 -6.14981E+04  4.66435E+04 -4.98551E+04  6.54372E+04  2.66699E+02  3.77387E+04  3.63597E+04
 -6.40549E+03  3.93697E+04 -2.99180E+04  1.73091E+04 -3.54123E+04 -6.62193E+03 -2.01584E+04 -1.32551E+04
 -7.80147E+03 -1.06252E+04 -1.97780E+03 -2.08130E+04  9.03531E+03 -2.46821E+04  1.82181E+04 -1.01826E+04
  1.16839E+04  8.10345E+03 -7.77095E+03  1.54777E+04 -2.08195E+04 -3.35819E+03 -8.02762E+03 -3.20800E+04
  2.57019E+04 -4.52687E+04  5.34284E+04 -2.15522E+04  4.81834E+04  1.73111E+04  1.61195E+04  4.15707E+04
 -1.33367E+04  3.77063E+04 -2.87651E+04  5.72350E+03 -7.39656E+03 -2.52732E+04  2.72722E+04 -3.60603E+04
  4.43480E+04 -5.76637E+03  3.89949E+04  2.32799E+04  2.40059E+04  5.08575E+04 -8.43314E+03  6.02005E+04
 -3.41377E+04  3.69286E+04 -5.03458E+04  8.38605E+03 -4.71532E+04 -1.91608E+04 -2.55003E+04 -4.42367E+04
  8.39466E+03 -4.13953E+04  3.41789E+04 -1.25004E+04  3.14348E+04  1.01718E+04  1.08365E+04  2.51413E+04
 -1.68960E+04  1.28293E+04 -1.43383E+04 -9.48022E+03  6.56256E+03 -7.77752E+03  1.72703E+04  5.12009E+03
  1.39020E+04  2.01113E+04 -3.35671E+03  2.75425E+04 -2.64011E+04  9.91817E+03 -2.98890E+04 -6.33306E+03
 -2.05212E+04 -2.02368E+04 -1.05594E+04 -1.83827E+04  7.82120E+03 -2.55617E+04  1.65284E+04 -1.85762E+04
  3.15626E+04 -1.69417E+04  3.91832E+04  5.30821E+02  2.96906E+04  2.16393E+04  4.00742E+03  4.54572E+04
 -1.83065E+04  3.05208E+04 -2.59198E+04  1.14809E+04 -2.38524E+04 -1.02948E+04 -8.93409E+03 -9.44183E+03
  3.37427E+03 -3.12116E+03 -7.03335E+03  4.23880E+03 -2.01444E+04  8.32914E+03 -1.39064E+04 -2.58566E+03
 -1.45407E+04 -2.20194E+04  1.25585E+03 -2.88179E+04  1.68692E+04 -9.59467E+03  1.57162E+04  2.34716E+03
  1.47920E+04  1.37634E+04 -4.19434E+03  1.75979E+04 -1.56979E+04  1.49149E+04 -2.04534E+04 -5.03207E+03
 -1.45666E+04 -2.64355E+04 -3.29099E+03 -2.89023E+04  1.26231E+04 -2.63887E+04  2.39738E+04 -9.29955E+03
  2.19693E+04 -5.13842E+02  8.60832E+03  3.39786E+03  9.60463E+03 -1.43143E+02  1.61003E+04 -5.54444E+03
  1.69784E+04  1.81865E+03  2.03535E+04  1.68769E+04  1.29546E+04  3.79642E+04 -3.52222E+03  4.12229E+04
 -2.57952E+04  3.27681E+04 -4.39672E+04  1.77591E+04 -3.72366E+04 -5.98644E+02 -3.26446E+04 -2.33348E+04
 -1.38051E+04 -3.19932E+04  1.16850E+04 -2.52551E+04  2.41946E+04 -1.11240E+04  2.05079E+04  7.81257E+03
  6.73480E+03  1.28034E+04 -1.10108E+04  1.31165E+04 -2.33392E+04  6.25260E+03 -1.26978E+04 -9.51325E+03
  2.28539E+03 -1.76211E+04  1.30632E+04 -9.92587E+03  1.42713E+04 -1.27780E+03  2.20568E+03  8.89735E+03
 -2.81547E+03  1.65941E+03 -6.79965E+03 -6.37272E+03 -9.36408E+02 -1.42473E+04  1.37369E+04 -1.80550E+04
  2.15434E+04 -8.73082E+03  1.74713E+04  3.52707E+03  1.52120E+04  1.77926E+04  7.12362E+03  2.72417E+04
 -2.94122E+03  2.99317E+04 -1.41530E+04  1.65529E+04 -2.07690E+04 -1.10624E+03 -1.00389E+04 -5.19515E+03
 -4.35893E+03 -3.18406E+03  2.13423E+03  1.91125E+03 -1.70681E+03  2.15145E+03 -3.00937E+03  1.02754E+04
 -1.17041E+04  2.78543E+03 -1.92600E+04 -8.90912E+03 -6.40844E+03 -1.93779E+04  1.02678E+04 -1.88419E+04
  1.00529E+04 -9.30091E+03  1.23864E+04  3.24635E+03 -2.19521E+03  4.74442E+03 -3.13545E+03 -2.38402E+02
 -3.02095E+03 -6.25996E+03 -6.77655E+02 -1.65548E+04  1.04980E+04 -1.11116E+04  1.78946E+04 -7.40597E+03
  1.95658E+04  3.23796E+03  1.81082E+04  1.15438E+04  2.47422E+03  1.11281E+04 -6.53689E+03  1.54507E+04
 -5.18600E+03  4.10043E+02 -7.73733E+03 -3.99444E+03  1.03580E+03 -1.34337E+03  4.64595E+03  1.42408E+03
  9.37980E+03  1.11944E+04  8.28704E+03  1.56239E+04 -9.23951E+03  6.13118E+03 -1.02234E+04  1.98314E+03
 -8.32558E+03 -5.66001E+03 -2.37158E+02 -1.58411E+04  7.99161E+03 -6.28525E+03  8.85377E+03  1.77007E+02
  5.36981E+03  1.23477E+04 -9.91905E+03  6.60046E+03 -1.32079E+04  4.98618E+03 -8.57301E+03 -6.74403E+03
 -5.60138E+03 -1.12632E+04  6.24599E+02 -1.74927E+04  8.82283E+03 -3.08928E+03  1.05065E+04  6.87940E+02
  9.47489E+03  1.31422E+04 -6.55537E+03  1.47148E+04 -8.88738E+03  5.74947E+03 -7.15043E+03  2.96965E+03
 -1.39194E+04 -1.03760E+04  7.94745E+02 -1.21325E+04  3.60817E+03 -6.48975E+03  6.18647E+03  8.18696E+02
  5.41621E+03  7.55295E+03 -8.40990E+02  4.71856E+03 -2.34002E+03 -4.11846E+03  3.59049E+03 -9.63854E+03
  1.22922E+04 -5.94082E+03  7.98701E+03  1.53836E+03  1.11962E+04  1.16118E+04  1.02286E+04  1.66024E+04
 -7.22964E+03  2.22882E+04 -1.53080E+04  1.44810E+04 -2.43497E+04 -1.95945E+03 -1.73360E+04 -1.23854E+04
 -7.38053E+03 -1.74110E+04 -8.50734E+03 -1.12584E+04  6.28483E+03 -9.87055E+03  2.31784E+03  2.57943E+03
  3.49805E+03  7.59405E+02  5.90243E+03  1.76492E+03  3.83305E+03 -9.82182E+03  9.39513E+03 -3.11114E+03
  9.81336E+03 -3.09358E+03  3.08881E+03  9.06834E+03  1.93523E+02  1.00523E+04 -9.37643E+03  7.35813E+03
 -1.08504E+04 -5.98618E+02 -6.54541E+03 -6.08928E+03  3.93623E+03 -1.22134E+04  7.50146E+03 -1.50781E+04
  9.94198E+03  9.52426E+02  1.05028E+04  5.45116E+03  1.16597E+04  9.56396E+03  7.44663E+03  1.59388E+04
 -1.62645E+03  1.54454E+04 -6.92599E+03  4.90579E+03 -7.59799E+03 -8.14045E+03  2.05277E+03 -6.19804E+03
  5.64877E+03 -1.35013E+03 -3.70194E+03  1.64103E+03 -1.73717E+03 -1.32821E+03 -1.43608E+03 -2.24465E+03
 -1.38761E+03 -9.33671E+03 -2.50386E+03 -1.07355E+04  1.45840E+04 -9.16266E+03  6.06864E+03 -4.25562E+03
  1.32135E+04  2.05721E+03  4.99528E+03  8.00155E+03 -1.67734E+03  9.78924E+03 -6.38051E+03  9.28935E+03
 -7.63996E+03 -1.75316E+02 -9.11460E+03 -7.56126E+03  3.34287E+03 -4.79565E+03  7.74969E+03 -9.86738E+03
  1.09943E+04  1.23542E+03  1.96090E+03 -1.09227E+03  2.08109E+03  1.73554E+03 -8.66038E+02  7.20130E+03
  3.89066E+03  2.99743E+03  1.47136E+03  2.44737E+03  1.54254E+03  5.61275E+03 -8.61655E+02  5.89207E+03
 -3.70802E+03  7.25365E+03 -6.09303E+03  7.16235E+03 -1.05794E+04  4.65336E+02 -1.27661E+04 -2.40324E+02
 -3.52637E+03 -1.34747E+04  5.37287E+03 -1.31770E+04  4.40777E+03 -9.43759E+03  7.79572E+03  4.01869E+02
  9.21413E+03  7.88008E+03  4.75848E+02  7.66629E+03 -3.62731E+03  3.91982E+03 -5.97794E+03 -1.92102E+03
 -4.13385E+03 -7.18854E+03  7.47979E+03 -6.57791E+03  6.11291E+03 -8.82633E+02  5.84804E+03 -7.43066E+02
  5.01525E+03  2.52430E+03 -6.90609E+03  1.59945E+03 -1.28399E+03 -3.25007E+03  2.46953E+03  5.68980E+03
  2.19603E+03 -4.74031E+03  1.86521E+03  9.76573E+02  6.77608E+02  5.98209E+03 -4.95860E+02  9.01506E+03
 -8.26698E+03  1.10019E+04 -7.36616E+03 -7.63803E+03 -6.98713E+03  3.81964E+03  1.88049E+02  2.32010E+03
 -3.52943E+02 -3.53582E+03  3.10999E+03 -4.66465E+03 -3.36606E+03  4.30304E+03 -4.72026E+03  4.75436E+03
  1.33145E+02 -4.09874E+01 -5.58130E+03 -4.58732E+03 -2.96491E+03 -4.63880E+03  1.64321E+03 -5.32047E+03
  3.60582E+03 -9.63124E+02  9.71844E+03 -1.00141E+04  1.09225E+04  2.70405E+03 -2.29487E+03  2.88164E+03
 -4.73157E+02 -1.92330E+03 -7.76151E+03 -3.87797E+03  2.17708E+03 -5.92161E+03  4.33709E+03 -3.89179E+03
  8.57792E+03  1.58676E+03  5.41338E+03  6.11574E+03  2.84481E+03  8.91605E+03 -2.27881E+03  1.00501E+04
 -1.68597E+03  6.50559E+03 -1.01911E+04  1.21345E+03  3.10128E+03 -3.50721E+03  2.28284E+03 -1.30122E+03
  1.78521E+03  1.42827E+03 -2.76370E+03  8.67928E+03  3.89704E+03  2.33974E+03 -1.24031E+02  8.19885E+03
 -1.38122E+03  4.20891E+03 -7.79381E+00  5.37920E+03 -3.63283E+03  6.38071E+03 -6.98636E+03 -1.57482E+03
  2.77498E+03  1.52860E+03 -7.80966E+02  4.16188E+03 -3.46794E+03 -1.12907E+03 -8.95448E+03 -4.20418E+03
 -7.14963E+03 -5.92877E+03  6.61254E+03 -1.30987E+04  3.63716E+03 -4.71176E+03  1.34038E+04 -1.63824E+03
  7.42867E+03  1.41215E+03  1.10015E+04  1.16943E+04 -2.06627E+03  2.19924E+03 -5.56035E+03  4.23574E+03
 -7.64994E+03  7.85935E+03  2.07584E+03 -5.09799E+02  3.30547E+03  1.51727E+03 -2.60173E+03 -2.97064E+03
  1.05564E+03  4.06782E+03  2.61014E+03  4.07296E+03 -6.56690E+03  3.95942E+02 -1.49778E+03 -3.09900E+03
  2.72725E+03 -2.19313E+02  5.76380E+03 -3.89826E+03  5.70040E+03 -1.17821E+03  4.56104E+03  7.73308E+03
 -5.34427E+03  1.04023E+04 -3.60014E+03  9.76128E+03 -1.00808E+04 -4.36390E+02 -5.32845E+03 -1.20363E+03
 -5.55980E+03 -6.42200E+03  5.64432E+02 -4.67629E+03  1.13175E+04 -6.14279E+03  9.05531E+03  2.03029E+03
  1.63626E+03  4.36403E+03  5.53411E+03  2.50554E+03 -3.53519E+03  7.65590E+02 -4.44164E+02 -1.09512E+03
 -1.81232E+03  6.27227E+02  2.53222E+03  5.77437E+03  3.25157E+03 -1.56650E+03  4.58281E+03  1.15114E+03
  2.74067E+03  3.61593E+03 -5.88733E+03  1.51974E+03 -7.85803E+03 -2.26150E+03 -1.65419E+03 -3.44122E+03
  1.06606E+03 -5.81188E+03  9.51599E+03 -4.66153E+03  5.80353E+03 -6.74661E+03  9.14727E+02 -5.55625E+01
  1.01915E+03  4.38136E+03 -6.53888E+03  2.80280E+03 -6.11901E+03  8.50108E+03 -5.38592E+03  3.39331E+03
 -1.83940E+02 -1.81467E+02  2.90204E+03  1.47541E+03 -1.74314E+03 -4.53238E+03 -6.93361E+02 -2.20273E+03
 -7.56271E+03 -8.51084E+02  6.59382E+03 -7.87904E+03  1.40211E+03 -4.19429E+03  4.52325E+03 -1.15407E+03
  3.51815E+03 -3.85664E+03  5.43395E+02  4.12819E+03 -2.12563E+03  3.30043E+03 -4.58214E+03  1.66417E+03
