 $NMID ID='MM_0lb_SNR50_11hz_g40_64.RAW', FMTDAT='(8E13.5)'
 TRAMP=1., VOLUME=1. $END
  3.13085E+05  7.56497E+03  3.37862E+05  2.50871E+05  8.23727E+04  3.39918E+05 -1.31155E+05  2.52708E+05
 -1.91301E+05  7.75587E+04 -1.09632E+05 -3.20596E+04 -1.98189E+03 -5.35400E+04  5.32923E+04 -3.89097E+03
  3.69258E+04  5.12572E+04 -1.61281E+04  8.00199E+04 -6.25071E+04  6.49748E+04 -7.74769E+04  3.02858E+04
 -8.70029E+04 -1.22952E+04 -5.98303E+04 -4.96335E+04 -2.05866E+04 -7.30364E+04  2.63054E+04 -4.42115E+04
  3.59439E+04  4.20089E+03  1.87583E+04  4.95858E+04 -3.36080E+04  4.07285E+04 -6.70703E+04 -4.58917E+03
 -5.01924E+04 -5.68188E+04 -8.82920E+03 -7.42284E+04  3.63464E+04 -5.96354E+04  5.44664E+04 -1.46600E+04
  4.38099E+04  7.06294E+03  3.42784E+04  2.95569E+04  2.02276E+04  3.03742E+04 -9.41450E+03  2.75366E+04
 -2.08727E+04  1.28212E+04 -2.23158E+04 -8.63114E+03  5.65453E+03 -1.26493E+04  2.14969E+04  1.79863E+04
  7.86001E+03  3.32237E+04 -3.42696E+04  3.76977E+04 -6.14604E+04  4.27755E+02 -5.26672E+04 -4.55031E+04
 -1.50209E+04 -6.89456E+04  3.55591E+04 -4.89073E+04  5.92649E+04  7.71053E+02  3.15622E+04  3.36177E+04
 -1.23556E+04  3.94216E+04 -3.22357E+04  1.83120E+04 -3.31841E+04 -1.90766E+03 -1.55724E+04 -8.71341E+03
 -6.91691E+03 -1.30408E+04  1.78750E+03 -2.24833E+04  3.46211E+03 -1.99569E+04  1.46206E+04 -1.22554E+04
  1.05760E+04  9.05735E+03 -1.34587E+04  1.50909E+04 -2.52482E+04 -4.93602E+03 -9.33940E+03 -3.85295E+04
  2.17225E+04 -4.60313E+04  5.09971E+04 -1.99554E+04  4.96592E+04  1.96877E+04  1.77452E+04  4.32926E+04
 -1.14691E+04  3.07771E+04 -2.57875E+04 -1.25262E+03 -7.25836E+03 -2.35090E+04  1.98890E+04 -3.78640E+04
  3.44432E+04 -7.09080E+03  3.94410E+04  2.56394E+04  1.73813E+04  5.15829E+04 -7.74237E+03  5.09776E+04
 -3.23736E+04  3.68338E+04 -4.98374E+04  1.54927E+04 -4.40638E+04 -1.47854E+04 -2.59383E+04 -4.25411E+04
  6.69776E+03 -3.66608E+04  3.36765E+04 -1.78962E+04  2.85137E+04  1.21592E+04  4.06127E+03  1.88257E+04
 -1.50510E+04  1.10322E+04 -7.57343E+03 -4.06392E+03  1.14335E+04 -1.17837E+04  1.97777E+04  5.33210E+03
  1.72696E+04  2.65268E+04 -3.73874E+03  2.78891E+04 -2.15096E+04  1.59110E+04 -3.70454E+04 -2.14051E+03
 -2.26627E+04 -1.49192E+04 -5.63760E+03 -1.84892E+04  5.78398E+03 -2.08937E+04  1.30715E+04 -2.36708E+04
  3.11272E+04 -1.81660E+04  3.35268E+04  8.40032E+03  2.72201E+04  2.62732E+04  5.92452E+03  3.67903E+04
 -2.20517E+04  3.14094E+04 -2.50364E+04  1.10789E+04 -2.33849E+04 -9.38530E+03 -6.64419E+03 -1.13612E+04
 -5.25921E+03 -4.84352E+03 -7.37432E+03  7.76814E+03 -1.77767E+04  9.94323E+02 -1.91130E+04 -1.02512E+04
 -1.24621E+04 -1.96073E+04  1.14892E+03 -2.06421E+04  1.14878E+04 -1.64124E+04  2.30160E+04 -2.69861E+03
  1.31556E+04  1.82618E+04 -5.26023E+03  1.88449E+04 -1.55171E+04  1.45160E+04 -1.47040E+04 -2.53231E+02
 -1.37404E+04 -1.63019E+04 -2.37952E+03 -2.47902E+04  1.10867E+04 -1.98072E+04  1.81581E+04 -8.31462E+03
  1.72123E+04 -8.37592E+01  1.72417E+04 -1.15342E+03  7.20557E+03  6.68672E+02  1.32540E+04  4.37014E+02
  2.59943E+04  5.22010E+03  2.26509E+04  1.84099E+04  1.78543E+04  3.72389E+04 -1.25079E+03  3.62227E+04
 -2.17432E+04  3.03753E+04 -3.60811E+04  1.64377E+04 -3.34802E+04 -4.04403E+03 -2.89760E+04 -1.71992E+04
 -1.54435E+04 -2.43860E+04  1.15482E+04 -2.28444E+04  1.91424E+04 -9.09363E+03  1.96643E+04  5.81404E+03
  5.11067E+03  1.87544E+04 -1.09898E+04  1.55879E+04 -2.07900E+04  2.81831E+02 -1.76849E+04 -6.91617E+03
 -1.34273E+03 -2.46844E+04  4.28101E+03 -1.08205E+04  1.02081E+04 -6.62598E+02  7.75350E+02  1.19197E+04
 -1.01698E+04  4.16584E+03 -5.47846E+03  5.83972E+02  7.90909E+02 -1.48621E+04  1.23110E+04 -1.65308E+04
  1.56757E+04 -1.21448E+04  1.81564E+04  3.04941E+03  1.93879E+04  1.72950E+04  1.25192E+04  2.90018E+04
 -6.08673E+03  3.25742E+04 -1.69912E+04  2.02962E+04 -1.29029E+04  2.73499E+03 -1.06370E+04  4.17860E+02
 -5.30351E+03 -2.85463E+03 -3.10720E+03  2.12166E+03 -5.58603E+03  3.25281E+03 -7.70464E+02  8.71611E+03
 -1.23266E+04  1.48704E+03 -1.23674E+04 -9.59680E+03 -8.81020E+03 -2.07374E+04  2.80111E+03 -1.65860E+04
  8.80375E+03 -8.22843E+02  9.56767E+03  2.58018E+03 -1.04317E+03  7.76896E+03 -5.88382E+03 -3.42252E+03
 -2.09923E+03 -7.03610E+03  2.23201E+03 -1.84095E+04  6.91607E+03 -1.33945E+04  1.78759E+04 -7.22713E+03
  2.03435E+04  4.86723E+03  1.60117E+04  9.17545E+03  3.11000E+03  1.79173E+04 -1.38425E+04  8.69746E+03
 -1.02285E+04  9.65783E+02 -7.78823E+03 -1.08954E+03 -2.09889E+03  7.74317E+02  5.02285E+03  1.02199E+02
  1.04747E+04  1.80010E+02 -8.24736E+00  5.96872E+03 -4.72439E+03  1.12119E+04 -9.08017E+03  1.82926E+03
 -9.86701E+03 -3.61087E+03  1.96107E+02 -1.21141E+04  3.60567E+03 -1.13788E+04  8.56018E+03  7.06161E+03
  4.27478E+03  1.27975E+04 -3.65161E+03  2.47456E+03 -7.31620E+03 -2.77364E+02 -1.22620E+04  1.92911E+03
 -3.35600E+03 -1.43411E+04  7.66012E+03 -1.01835E+04  1.30566E+04 -7.28399E+03  1.54358E+04  5.14164E+03
  6.42398E+03  1.36870E+04 -3.10075E+03  1.04073E+04 -7.15234E+03  1.16460E+04 -1.02234E+04 -3.45192E+03
 -1.20946E+04 -7.77259E+03  6.86456E+02 -7.37538E+03  5.31330E+03 -7.12663E+03  1.15172E+04 -4.77034E+03
 -1.67806E+03  1.76760E+03 -3.28393E+03  6.74944E+01 -1.66318E+03 -8.32891E+03  6.28481E+02 -3.78406E+03
  1.27850E+04 -5.68146E+03  1.19724E+04  6.66620E+03  5.05826E+03  5.57757E+03  1.01734E+04  1.51481E+04
  1.85455E+03  1.44289E+04 -1.24218E+04  1.58823E+04 -1.95479E+04  3.08478E+03 -1.76098E+04 -9.04582E+03
 -2.72533E+03 -1.15442E+04  4.73260E+03 -1.51505E+04  2.12701E+03 -1.46884E+03  3.68648E+03 -9.14754E+03
  8.45558E+03 -4.47039E+03  1.22844E+03 -1.96847E+03  1.76289E+03 -7.64587E+03  5.87747E+03  2.80338E+03
  9.95022E+03  5.64290E+03  2.16746E+03  1.06045E+04  8.96728E+02  1.07115E+04 -8.80416E+03  8.06733E+03
 -1.09243E+04  5.03338E+03 -6.75309E+03 -5.50320E+03 -1.06965E+03 -1.29357E+04  6.48763E+03 -9.18379E+03
  1.24664E+04 -7.03436E+03  1.03687E+04  2.41094E+03  1.33004E+04  9.84262E+03  2.84972E+03  1.16125E+04
 -8.59912E+03  1.51052E+04 -9.80364E+03  4.90849E+03 -8.52099E+03 -7.17955E+03 -1.53261E+03 -5.52728E+03
  9.33743E+02  1.00273E+03 -1.68876E+03  4.34481E+03 -1.63900E+03  1.52436E+03 -9.61667E+03 -2.33899E+03
 -1.15601E+03 -8.36025E+03 -2.05796E+03 -1.04571E+04  8.08017E+03 -1.16165E+04  9.50258E+03 -4.30571E+03
  1.01986E+04  3.52107E+03  8.69017E+03  4.51246E+03  3.12876E+03  1.47672E+04 -8.25743E+03  4.55221E+03
 -5.30215E+03  2.25815E+03 -6.54176E+03 -1.44872E+04  1.71005E+03 -8.98740E+03  4.28396E+03 -6.38315E+03
  1.40138E+04 -5.17853E+03  6.52220E+03 -6.92605E+02  1.99233E+03  1.81810E+03 -1.58620E+03  2.77911E+03
  5.51794E+03  7.30562E+03  3.19798E+03  5.28457E+03  3.85363E+03  5.56796E+03  5.55820E+03  5.16407E+03
 -5.92436E+03  6.94432E+03 -1.09730E+04  8.96833E+03 -1.75800E+04  2.30993E+01 -1.31390E+04 -2.62215E+03
  3.74835E+02 -7.52019E+03  5.07053E+03 -1.36575E+04  8.90600E+03 -7.04440E+03  9.27218E+03 -1.04404E+03
  5.27207E+03  5.90721E+03  1.80160E+03  4.19646E+03 -7.60281E+02  1.54088E+03 -6.84593E+03 -8.02558E+03
  1.75484E+02 -2.20184E+03  4.78179E+02 -7.19769E+03  7.10159E+03 -2.70603E+03  4.16000E+03  1.43588E+03
  5.20685E+03  4.46292E+02  9.25363E+02  7.09760E+03  8.54835E+02  2.37156E+03  3.37234E+03 -1.38955E+03
  3.11636E+03 -1.96227E+03  5.36893E+03  4.98901E+03  5.25672E+03  7.89429E+03 -1.79233E+03  5.03137E+03
 -5.21183E+03  9.80484E+03 -2.70779E+03  4.76039E+03 -4.27008E+03 -1.75389E+03 -4.24066E+03 -5.27286E+03
  3.19326E+03 -6.40314E+03  4.65337E+03  1.49659E+03  1.40454E+03  4.62644E+03 -1.78380E+03  8.30248E+03
 -3.89563E+03  3.96194E+03 -5.06628E+03 -2.42386E+03 -5.29106E+03 -6.75155E+03  2.71821E+03 -5.44762E+03
  4.63407E+03 -4.43710E+03 -1.71512E+03 -7.43490E+02  5.80337E+03  2.84844E+03  2.65136E+03  3.75858E+03
 -3.04856E+03 -4.12655E+03 -3.19729E+03 -5.83926E+03  6.23404E+03 -4.78884E+03 -5.63500E+02 -3.45857E+03
  7.70244E+03 -4.85732E+02  9.84221E+03  4.76938E+03  1.63919E+03  7.70189E+03 -6.74157E+03  4.62262E+03
 -2.71414E+03  4.89562E+03 -6.19544E+03  1.54901E+03 -7.84291E+03 -2.15146E+03 -1.37300E+03 -3.66264E+03
  2.41106E+03 -3.14585E+03  3.57121E+03  3.39954E+03 -6.28698E+02  2.32213E+03 -5.14916E+02 -2.41136E+02
 -5.91595E+02  2.57934E+03 -1.90172E+03  4.98955E+01 -3.78753E+03  2.29072E+02 -1.18141E+03  5.05229E+03
  1.95957E+02  5.43765E+03 -1.17582E+04  2.79104E+03 -8.44464E+03  1.65410E+03 -6.28851E+03 -1.17575E+04
 -3.42300E+03 -5.26451E+03  4.74125E+03 -1.69546E+04  3.08433E+03 -1.05677E+04  1.03147E+04 -9.00096E+03
  7.16437E+03  6.55171E+02  2.34062E+03  9.30892E+03  9.83822E+02  6.21527E+03 -1.23762E+03  4.75242E+03
 -5.69580E+02  3.35936E+03 -4.05049E+03 -4.71026E+03  3.18336E+03  2.63785E+03  2.08186E+02  2.86213E+03
 -2.24107E+03 -8.31422E+02 -4.97361E+03  3.05775E+03  3.08170E+03 -4.90386E+03  7.48297E+03 -2.11243E+03
  1.52622E+03 -3.78455E+03  3.64598E+03  4.62700E+03  1.33846E+04  7.46391E+03 -5.85802E+02  5.17859E+03
 -5.30868E+03  1.01140E+04 -4.81489E+03  5.62396E+03 -9.65780E+03 -2.03668E+03 -5.18428E+03 -7.17930E+03
 -6.10286E+03 -4.70646E+03 -4.28582E+03 -5.28018E+03  6.28716E+03 -2.39891E+03  7.81866E+03  2.38599E+03
  5.72765E+03  2.89160E+02 -3.13708E+03 -2.45091E+03  1.17195E+03  2.08686E+03 -9.59385E+02 -4.08928E+03
  2.90474E+03 -5.50926E+03  4.08731E+03  3.75951E+03  2.95669E+02  5.29714E+03 -3.76120E+02 -5.54830E+02
 -5.42514E+03  6.20651E+03 -9.17837E+03 -6.01197E+02 -6.89498E+03 -1.52133E+02  3.13115E+03 -7.36079E+02
  7.53663E+03 -4.78059E+03  6.13244E+03 -1.61505E+03  4.03324E+03  6.66060E+03 -7.40655E+02  5.35959E+03
 -2.85950E+03  9.26482E+03 -2.56729E+03  1.32809E+03 -4.70035E+03 -2.86831E+03 -1.40589E+03 -5.34532E+02
  1.72291E+03  2.65492E+03 -5.86244E+03  5.54018E+03 -3.07157E+03  2.61599E+03 -2.86226E+02 -9.60099E+02
 -3.63057E+03  1.27151E+03  7.46663E+02 -3.91321E+03  2.73346E+03 -3.65241E+03  4.68424E+03 -7.52236E+01
  5.84527E+03  6.93875E+02  4.07741E+03  1.04751E+03 -3.78944E+03  8.19173E+02 -3.41314E+03  2.99177E+03
