 $NMID ID='MM_0lb_SNR50_16hz_g45_53.RAW', FMTDAT='(8E13.5)'
 TRAMP=1., VOLUME=1. $END
  3.11881E+05  3.51219E+03  3.34393E+05  2.51318E+05  8.15815E+04  3.35176E+05 -1.32495E+05  2.50086E+05
 -1.87422E+05  7.80995E+04 -1.07078E+05 -2.99607E+04  2.53920E+03 -5.21288E+04  5.23408E+04  1.72749E+03
  3.50522E+04  5.54669E+04 -1.44650E+04  7.64930E+04 -6.07852E+04  6.07634E+04 -8.32081E+04  3.03644E+04
 -8.16718E+04 -1.25134E+04 -5.89494E+04 -5.02357E+04 -1.30182E+04 -7.15566E+04  2.81461E+04 -4.62179E+04
  3.81669E+04  1.03596E+03  1.46875E+04  4.56263E+04 -3.54368E+04  4.81187E+04 -6.66069E+04 -1.66091E+03
 -5.09140E+04 -5.55624E+04 -1.19832E+04 -7.86441E+04  3.14238E+04 -5.63448E+04  4.59448E+04 -1.19573E+04
  4.20487E+04  1.21069E+04  3.34831E+04  2.86508E+04  1.91610E+04  2.83542E+04 -1.10188E+03  2.65613E+04
 -2.18781E+04  1.04302E+04 -1.79031E+04  2.42410E+03  3.26018E+03 -7.32218E+03  2.21829E+04  7.14195E+03
  9.44576E+03  3.31996E+04 -3.25506E+04  3.52472E+04 -6.15793E+04  4.88323E+03 -5.60997E+04 -4.51822E+04
 -1.49945E+04 -6.08051E+04  3.90544E+04 -4.34384E+04  5.81225E+04 -3.54771E+03  3.55282E+04  3.31479E+04
 -7.23575E+03  3.30207E+04 -2.78412E+04  1.24745E+04 -2.38332E+04 -4.28488E+03 -1.59693E+04 -1.36804E+04
 -7.65310E+03 -1.01268E+04 -3.39787E+03 -1.60728E+04  1.12543E+04 -2.28323E+04  1.48932E+04 -1.70977E+04
  1.18647E+04  4.76869E+03 -6.64889E+03  1.13190E+04 -1.98621E+04 -2.16703E+03 -4.39645E+03 -3.59480E+04
  2.20118E+04 -4.48440E+04  4.67340E+04 -2.13670E+04  4.13024E+04  2.19066E+04  1.01152E+04  3.85165E+04
 -1.88974E+04  3.16165E+04 -2.15117E+04 -1.49937E+03 -8.48338E+03 -3.14337E+04  1.91318E+04 -3.65306E+04
  4.05353E+04 -5.14550E+03  3.49650E+04  2.12661E+04  1.67553E+04  4.57101E+04 -1.00361E+04  4.48523E+04
 -2.98135E+04  3.13622E+04 -3.50925E+04  8.40094E+03 -4.10654E+04 -1.48409E+04 -2.56618E+04 -3.72306E+04
  3.25595E+03 -4.31513E+04  3.27662E+04 -1.08204E+04  2.77080E+04  8.85151E+03  1.90239E+03  1.80401E+04
 -1.38527E+04  5.72868E+03 -1.41249E+04 -7.27757E+03  9.48987E+03 -1.23347E+04  1.55362E+04  5.29605E+03
  1.04287E+04  2.23105E+04 -5.76995E+03  2.37250E+04 -2.29223E+04  7.96533E+03 -2.70168E+04 -7.33846E+03
 -1.55749E+04 -1.79952E+04 -6.39282E+03 -1.76137E+04  5.79828E+03 -1.67025E+04  1.14990E+04 -1.96759E+04
  2.30820E+04 -1.48803E+04  3.04170E+04 -1.02884E+03  2.58059E+04  1.43539E+04  4.11722E+03  3.62249E+04
 -1.43211E+04  2.91304E+04 -2.84157E+04  7.94473E+03 -1.92604E+04 -1.23292E+04 -9.48520E+03 -1.55015E+04
  4.93572E+03 -7.35987E+03 -4.25150E+03  7.78418E+03 -1.67096E+04  4.54798E+03 -1.73158E+04 -1.07494E+04
 -1.13985E+04 -1.57581E+04  2.94630E+03 -1.72112E+04  1.71693E+04 -1.27697E+04  1.62525E+04  8.56052E+02
  1.04197E+04  1.37708E+04 -3.30963E+03  1.66328E+04 -1.36314E+04  9.82809E+03 -1.92707E+04 -2.02712E+03
 -1.22203E+04 -1.61635E+04 -5.44464E+03 -1.96246E+04  6.48596E+03 -1.65101E+04  1.67502E+04 -6.14346E+03
  1.51539E+04  1.35404E+03  1.58832E+04  7.91650E+03  6.97165E+03  2.61788E+03  5.78633E+03 -7.02629E+03
  1.54248E+04 -7.28160E+02  1.33263E+04  1.48352E+04  5.14319E+03  2.83866E+04 -4.61770E+03  3.33625E+04
 -1.85619E+04  1.88039E+04 -2.87963E+04  8.04549E+03 -3.04817E+04 -2.88320E+03 -2.95454E+04 -1.85283E+04
 -1.14939E+04 -2.50118E+04  7.28723E+03 -2.15118E+04  1.64527E+04 -8.07994E+03  1.98410E+04  3.62162E+03
  5.69083E+03  1.51506E+04 -1.09827E+04  1.46922E+04 -1.20983E+04  5.50499E+03 -1.23091E+04 -9.83759E+03
 -1.38611E+03 -1.47502E+04  7.23471E+03 -9.34507E+03  8.66492E+03 -8.92587E+02  3.17149E+03  5.61027E+03
 -7.63435E+03  1.49160E+03 -4.48930E+03 -6.89618E+03  2.27918E+03 -8.41315E+03  1.02666E+04 -1.10182E+04
  1.26632E+04 -4.22652E+03  1.50974E+04  3.84634E+03  7.15618E+03  1.51585E+04  7.47733E+03  1.68168E+04
 -2.22913E+03  1.53793E+04 -1.48882E+04  1.09316E+04 -1.13704E+04  6.10746E+03 -1.12981E+04 -2.52206E+03
 -6.08716E+03  2.12498E+03  7.70435E+02  3.05355E+03 -1.12965E+03 -1.74551E+03 -5.44692E+03  2.71320E+03
 -7.65376E+03 -2.73409E+03 -7.95743E+03 -7.93973E+03 -6.31462E+03 -7.24664E+03  7.90928E+02 -1.09404E+04
  8.76096E+03 -4.39829E+03  8.28883E+03  3.93964E+03  8.39660E+02  4.98167E+03 -4.64918E+02 -3.59959E+03
 -5.19306E+03 -6.61427E+03 -4.28053E+02 -6.53338E+03  6.51165E+03 -8.18898E+03  1.10231E+04 -1.00531E+04
  1.30989E+04 -3.42919E+03  9.60741E+03  8.12860E+03 -1.44618E+03  6.11446E+03 -8.19909E+03  8.78609E+03
 -1.20019E+04  2.20112E+03 -2.80391E+03 -1.48299E+03  1.36229E+03 -1.87739E+03  5.13666E+03 -1.37928E+03
  7.45824E+03  5.93185E+03 -3.74519E+02  4.94579E+03 -2.30548E+03  2.44183E+03 -9.71301E+03  1.70204E+03
 -5.50767E+03 -6.16724E+03 -7.83584E+02 -7.68313E+03  7.67088E+03 -6.94464E+03  9.63662E+03  4.65900E+03
  4.59953E+02  2.08333E+01 -5.43118E+03  2.02435E+03 -5.90043E+03  2.41911E+03 -5.37330E+03 -4.00734E+03
 -2.22680E+03 -1.20028E+04 -1.98987E+03 -9.78583E+03  6.33766E+03 -1.22885E+03  7.28629E+03  4.72383E+03
  6.99401E+03  7.25873E+03  3.04777E+03  1.20267E+04 -6.07380E+03  5.91678E+03 -8.49963E+03  1.54749E+03
 -9.64709E+03 -7.60158E+03 -1.53406E+03 -5.02319E+03  7.07136E+03 -7.27580E+03  5.60441E+03 -3.11793E+03
  2.14374E+02  7.29296E+02 -1.39134E+03  3.63308E+03  6.97637E+02 -8.12273E+02  9.00978E+02 -3.77884E+03
  8.74232E+03 -5.14916E+02  7.63690E+03  2.57726E+03  4.47397E+03  4.69394E+03  5.10610E+03  9.04415E+03
 -1.47139E+03  1.49031E+04 -1.46132E+04  8.48294E+03 -9.30129E+03  6.61221E+03 -1.51373E+04 -1.72090E+03
 -6.21642E+03 -9.56630E+03  2.31519E+03 -5.73138E+03  3.58018E+03  3.47351E+03  4.02311E+03 -6.69525E+03
  2.36197E+03 -5.40592E+03  1.56651E+03 -3.98078E+03  3.11151E+03 -1.47328E+03  6.88036E+03 -3.93186E+03
  6.07788E+03  3.13108E+03  2.35406E+03  2.84516E+03 -2.07781E+03 -1.96976E+03 -4.03224E+03  7.68717E+03
 -5.05855E+03 -2.26696E+03 -2.94536E+03 -3.08146E+03  4.11957E+02 -6.21992E+03 -1.12905E+03 -9.93256E+03
  3.98543E+03 -2.62943E+03  1.29011E+04 -3.82334E+02  1.34103E+03  4.06565E+03 -3.50242E+01  3.91861E+03
 -3.70947E+03  9.69247E+03 -4.05076E+03  5.21472E+03 -1.71823E+03 -3.96554E+02  8.01159E+01 -1.32618E+03
 -3.24139E+03 -9.00412E+02 -2.80273E+03 -8.45568E+02 -1.56449E+03  4.21010E+03 -7.01593E+03 -1.28541E+03
  1.49039E+03 -6.82273E+03  1.08559E+03 -5.04293E+03  2.12310E+03 -8.21987E+03  2.75830E+03  1.59498E+03
  4.54692E+03  7.14558E+03  3.00676E+02  4.22374E+03  1.48887E+03  5.38633E+03 -3.69641E+03  3.37894E+03
 -6.65930E+03 -3.28795E+02 -6.81449E+03 -1.60203E+03 -5.72648E+03 -6.07467E+03  4.12612E+03 -4.03106E+03
  5.74230E+03 -6.18094E+03  9.09879E+02 -1.06207E+03 -2.95546E+02  1.23248E+03  1.97434E+03  4.12320E+02
  7.36571E+03  2.14150E+03  2.02002E+03  4.22794E+03  1.41639E+03 -2.23397E+02  5.10568E+03  1.37970E+03
 -3.80588E+03  6.61596E+03 -3.69832E+03  4.02146E+03 -4.58550E+03  2.54534E+03 -5.40156E+03 -2.74642E+03
 -5.59803E+02 -2.98227E+03  1.33945E+03 -8.85387E+03  7.87602E+03 -2.30216E+03  4.33201E+03 -3.82066E+02
  5.23096E+03  1.91803E+03  2.84363E+03  5.46358E+03 -6.58106E+03  6.70276E+03 -5.41265E+03 -2.48388E+02
  2.02251E+02  1.27469E+03  5.94278E+03  2.57000E+03  3.59877E+03  2.86629E+03  2.54720E+03 -3.35251E+03
  1.73833E+03 -3.32320E+03  1.38335E+03  1.80621E+03 -1.38333E+03 -3.35413E+03 -9.13876E+02 -1.21033E+03
 -3.36667E+03  2.55832E+02  4.97789E+03  1.38770E+03 -2.34590E+03  2.26695E+03  1.34500E+02  1.80936E+03
 -2.02103E+03  2.37486E+03 -4.83681E+03  2.33081E+02 -3.45200E+03 -6.96186E+03  3.34578E+02  4.18487E+00
 -1.37952E+03 -3.93008E+03 -4.42813E+03  9.61691E+02  1.24958E+03  7.71954E+02 -1.60565E+02 -1.37421E+03
 -7.42694E+02 -2.65746E+03 -2.16628E+03 -6.61434E+03  1.26640E+03  2.08753E+03  1.48522E+03  2.60355E+02
  3.04536E+03  3.76904E+03 -5.41206E+02  1.81713E+02 -1.59581E+03  3.08395E+02 -2.14578E+03 -1.54642E+03
 -3.31196E+03  1.59494E+03  1.74578E+03  4.17311E+03  3.81901E+03 -1.03193E+03  4.63148E+03 -2.89914E+02
 -5.04038E+02 -8.72864E+02  3.01636E+03  3.81974E+03  2.26909E+03  4.44483E+02  3.07790E+03  1.10759E+03
 -9.80050E+02  2.71356E+03 -4.14401E+02 -1.57433E+03 -1.71320E+03  5.80096E+03 -2.99610E+03 -5.18404E+02
  2.72172E+03 -4.84411E+02 -3.27222E+03  1.04695E+03 -6.76510E+02 -7.57028E+02 -8.34117E+02 -1.49242E+02
 -1.85494E+03  6.48219E+03  2.35623E+02 -2.68146E+03  2.31837E+03  1.86305E+03  2.31527E+03  4.67281E+03
 -2.33543E+03  1.83743E+03  6.58918E+02  5.97381E+02 -2.01473E+03  1.58965E+02 -5.41586E+03 -3.41567E+03
 -2.33712E+02 -1.81025E+03  2.67152E+03 -2.02362E+03  6.48457E+02 -2.49877E+03  3.35555E+03 -7.48498E+02
  3.80666E+03  6.56380E+02 -3.41337E+03  6.15391E+03 -2.95355E+02 -1.07234E+02 -3.48940E+03  1.37731E+02
 -1.24226E+03  1.17056E+03  6.10293E+02  5.41086E+02  5.98842E+02 -1.33917E+03 -3.73167E+03 -5.54529E+02
 -3.99389E+02  2.94598E+03  9.64357E+02 -1.48871E+03 -3.13893E+03 -2.21776E+03 -6.48982E+00  1.35052E+03
  2.37090E+03  3.97558E+03  4.36977E+03  4.10036E+03  3.83108E+03 -1.07022E+03 -6.84243E+02  1.20091E+03
 -1.69264E+03  9.71743E+02 -1.05273E+03 -1.72740E+03 -9.93470E+02  3.37296E+03 -2.50882E+03 -3.66871E+02
 -2.09371E+03 -2.73691E+03 -2.27994E+02  1.91440E+02  1.38203E+03 -3.91986E+03 -4.34371E+03 -9.80864E+02
  3.63336E+03 -2.03108E+03  7.72437E+02  2.41316E+03 -4.46354E+03 -2.58342E+03  2.78013E+03 -1.66759E+02
 -5.38631E+03 -6.01680E+02  5.02592E+03 -2.16358E+03 -9.39635E+02 -1.22321E+03 -1.11644E+03  2.91106E+03
 -6.72348E+03  3.02216E+03  2.14134E+03 -2.44808E+03 -5.26986E+03 -4.42762E+02  8.47030E+02 -5.76094E+03
 -1.40758E+03 -2.04182E+02  4.28743E+03  5.01637E+03  8.03077E+02  2.22619E+03  1.56498E+03 -1.27491E+03
 -6.50571E+02 -4.01480E+02  1.70937E+03  1.54988E+03 -5.06547E+03  1.44320E+03 -5.55736E+03 -4.08938E+02
 -1.51906E+01  1.49358E+03  2.21264E+03  1.39174E+03  5.40114E+02 -2.80334E+01  9.74961E+01  8.79774E+02
  4.41109E+02 -6.34463E+02 -4.64886E+03  1.73333E+03  6.30926E+03  7.17080E+03 -1.24935E+03  1.61763E+03
  1.97520E+02  3.12588E+03  5.68218E+01  2.91920E+03 -1.85523E+03 -3.26633E+03 -1.40742E+03 -2.39484E+03
