 $NMID ID='MM_0lb_SNR50_15hz_g45_2.RAW', FMTDAT='(8E13.5)'
 TRAMP=1., VOLUME=1. $END
  3.08942E+05 -1.35016E+02  3.37832E+05  2.47464E+05  8.77286E+04  3.36455E+05 -1.30668E+05  2.51032E+05
 -1.86290E+05  8.77749E+04 -1.07338E+05 -3.30569E+04 -1.93421E+03 -4.89378E+04  5.39393E+04 -2.75565E+03
  3.05478E+04  5.56007E+04 -1.95972E+04  7.62429E+04 -6.15425E+04  6.12401E+04 -8.06389E+04  2.90707E+04
 -7.69066E+04 -7.48185E+03 -5.96127E+04 -5.13553E+04 -1.62962E+04 -7.01336E+04  3.10442E+04 -4.26244E+04
  3.59431E+04  3.57034E+03  1.45561E+04  4.48645E+04 -3.97323E+04  4.48950E+04 -6.19240E+04 -4.42889E+03
 -5.26151E+04 -5.40862E+04 -1.01710E+04 -7.26282E+04  3.12884E+04 -5.53734E+04  4.37289E+04 -1.40209E+04
  4.74837E+04  1.30755E+04  3.40461E+04  2.56666E+04  1.87743E+04  3.43129E+04 -2.32882E+02  2.45582E+04
 -1.87640E+04  1.16297E+04 -2.13634E+04 -1.35646E+03  4.41092E+03 -1.03036E+04  2.10637E+04  1.35247E+04
  4.92900E+03  3.29426E+04 -2.67705E+04  3.20632E+04 -5.77532E+04  4.44371E+03 -5.85561E+04 -4.18208E+04
 -9.85309E+03 -6.14666E+04  4.30430E+04 -4.65330E+04  5.60083E+04  4.75250E+02  3.23170E+04  3.34493E+04
 -5.39397E+03  3.86097E+04 -2.91171E+04  1.27836E+04 -3.47024E+04 -6.66165E+03 -1.23011E+04 -1.06568E+04
 -7.75129E+03 -1.33813E+04 -1.68476E+03 -2.05378E+04  1.03690E+04 -1.91879E+04  1.17470E+04 -1.67107E+04
  1.04265E+04  1.12098E+03 -9.47511E+03  8.42798E+03 -2.16794E+04 -4.13060E+03 -6.97779E+03 -2.77505E+04
  2.03279E+04 -4.01043E+04  4.42696E+04 -2.15457E+04  4.10279E+04  1.73675E+04  1.72114E+04  4.26970E+04
 -1.80761E+04  3.18642E+04 -2.55158E+04  6.57335E+03 -9.27504E+03 -2.86681E+04  2.16681E+04 -3.11294E+04
  3.73471E+04 -1.00190E+04  3.29141E+04  2.04266E+04  1.57378E+04  4.60455E+04 -5.40444E+03  4.58773E+04
 -2.97072E+04  3.19389E+04 -4.26132E+04  1.26532E+04 -4.13271E+04 -1.55492E+04 -2.47515E+04 -3.64521E+04
  1.24507E+04 -3.19616E+04  2.66588E+04 -1.69371E+04  2.94164E+04  1.09885E+04  9.93498E+03  1.54470E+04
 -1.00332E+04  1.00442E+04 -1.01781E+04 -6.96188E+03  6.82929E+03 -1.08363E+04  2.00421E+04  6.17826E+03
  1.51928E+04  2.56603E+04  9.97300E+02  2.66770E+04 -2.23342E+04  8.94387E+03 -2.48948E+04 -7.57537E+03
 -1.75121E+04 -1.65761E+04 -7.10993E+03 -2.47145E+04 -4.01612E+02 -1.90621E+04  1.76004E+04 -1.80572E+04
  2.59317E+04 -1.26471E+04  3.26436E+04  4.77403E+03  2.59505E+04  2.01061E+04  8.31404E+03  3.54493E+04
 -1.62390E+04  2.82070E+04 -2.33685E+04  8.07076E+03 -1.59632E+04 -1.26521E+04  4.96200E+02 -1.07491E+04
  6.86119E+03 -6.06282E+03 -8.83033E+03  3.66278E+03 -1.07243E+04  6.54425E+03 -2.16622E+04 -2.44681E+03
 -1.56374E+04 -1.38564E+04  9.92908E+03 -2.24076E+04  1.74405E+04 -1.12715E+04  1.63800E+04  2.21285E+03
  9.56527E+03  9.38348E+03  1.43973E+03  1.65464E+04 -1.79049E+04  1.61393E+04 -1.73552E+04 -2.59226E+03
 -1.36724E+04 -1.63861E+04 -1.60103E+03 -2.42371E+04  9.41439E+03 -1.96872E+04  1.39630E+04 -8.10011E+03
  1.03844E+04 -2.16870E+02  1.21020E+04  3.12614E+03  4.48024E+03  1.69792E+02  4.41005E+03 -3.04260E+03
  2.10089E+04  3.67192E+03  2.26932E+04  1.59121E+04  1.09182E+04  2.72848E+04 -7.89265E+02  3.06896E+04
 -1.95176E+04  2.24170E+04 -2.74288E+04  1.33636E+04 -3.18600E+04 -4.28057E+01 -2.58957E+04 -1.32423E+04
 -9.54515E+03 -2.55821E+04  1.09877E+04 -2.19521E+04  1.60564E+04 -1.02968E+04  2.15677E+04  2.49864E+03
  6.52311E+03  1.16920E+04 -6.64760E+03  1.19614E+04 -1.28418E+04  1.58143E+03 -9.48740E+03 -1.21063E+04
 -9.89249E+02 -1.47947E+04  4.77714E+03 -9.52569E+03  8.91424E+03  9.37618E+02  2.85230E+03  7.37086E+03
 -9.39732E+03  6.43706E+01 -8.83783E+03 -2.31423E+03  1.73544E+03 -1.09671E+04  7.68192E+03 -1.09094E+04
  1.49863E+04 -8.40127E+03  1.75147E+04 -1.05091E+03  1.82678E+04  7.00640E+03  7.90141E+03  1.48344E+04
 -6.65000E+02  2.68528E+04 -1.62180E+04  1.23609E+04 -1.19140E+04  5.19440E+03 -1.16777E+04 -6.76211E+03
 -5.91804E+03 -1.20043E+03 -5.88878E+02  3.08033E+03 -2.94832E+03  6.86234E+02 -8.03931E+03  3.84833E+03
 -1.03239E+04 -4.66835E+02 -1.41043E+04 -7.78575E+03 -2.16138E+03 -1.45407E+04  5.02560E+03 -1.37718E+04
  6.79365E+03 -5.27773E+03  1.15927E+04  3.27847E+03  4.39390E+03  3.50264E+03 -5.29324E+03  6.17387E+02
 -7.60969E+03 -7.84385E+03 -3.62724E+03 -1.14218E+04  4.04470E+03 -7.71930E+03  1.51874E+04 -7.47810E+03
  1.42860E+04 -3.50569E+03  1.21085E+04  8.18048E+03 -1.98575E+02  1.13236E+04 -3.73874E+03  1.43407E+04
 -8.60678E+03  7.59368E+03 -5.00816E+03 -4.50577E+03  1.02530E+03 -4.34935E+03  4.54525E+03  1.63336E+03
  8.37737E+03  7.53240E+03  3.44765E+03  9.14993E+03 -9.60686E+03  8.29264E+03 -1.15865E+03 -1.42611E+03
 -7.78176E+03  4.25428E+02 -8.86964E+02 -1.06872E+04  3.79975E+02 -5.56005E+03  4.74403E+03  4.05770E+03
  7.71261E+02  6.14387E+03 -5.75661E+03  5.77249E+03 -6.84375E+03  2.15963E+03 -6.24795E+03 -2.01930E+03
 -3.19653E+03 -9.95772E+03  3.78034E+03 -6.51257E+03  6.30543E+03 -6.02582E+03  6.95028E+03  1.44454E+03
  4.05633E+03  7.46545E+03 -8.13613E+02  1.05815E+04 -6.86047E+03  8.12751E+03 -6.71917E+03 -2.82748E+03
 -8.96155E+03 -4.35068E+03  3.61609E+03 -5.97103E+03  1.00400E+03 -5.11467E+03  6.02064E+03 -2.59008E+03
  1.04388E+03  5.31395E+02  2.35000E+03  1.29935E+03 -1.05919E+03 -9.94319E+02  2.89225E+03 -1.36761E+03
  2.10160E+03 -4.10530E+03  7.85341E+03 -1.55785E+02  4.44284E+03  1.22179E+03  1.31009E+04  1.21233E+04
 -2.40244E+03  1.52463E+04 -9.78584E+03  6.71243E+03 -1.26944E+04  2.25912E+03 -1.37322E+04 -8.71539E+03
 -6.97636E+03 -1.19940E+04  5.56538E+02 -3.52642E+03  6.22897E+03 -3.36743E+03  5.01245E+03 -3.84075E+03
  3.88730E+03 -3.97354E+03  5.34382E+03  2.23315E+03  3.11121E+03 -2.48792E+03  3.17191E+01 -7.24220E+02
  4.84621E+03  4.06130E+03  3.01920E+03  7.01701E+03 -3.90021E+03  1.05856E+04 -8.90921E+03  7.36814E+03
 -9.06672E+03 -4.08448E+02  1.89381E+02 -6.91174E+03 -1.24023E+03 -7.01887E+03  6.89999E+03 -1.06303E+04
  3.62299E+03 -3.28346E+03  1.65285E+04 -1.76469E+02  1.12814E+04  4.10769E+03 -9.25323E+02  7.50782E+03
 -3.42722E+03  1.35054E+04 -5.86109E+03  2.16861E+03  1.24118E+03  1.01017E+03 -4.12371E+01 -3.43817E+02
 -5.82172E+02  2.28499E+03 -2.46583E+03  1.17879E+03 -6.67878E+03  3.36778E+03 -7.55670E+03 -2.40947E+03
 -3.89793E+03 -4.81609E+03  3.89040E+03 -8.92292E+03  3.50291E+03 -8.31703E+03  4.86852E+03 -3.05036E+03
  5.62018E+03  1.72724E+03  7.12465E+02  7.84544E+03  2.37863E+02  5.19554E+03 -6.70684E+03  4.65235E+03
 -8.74695E+03 -4.48241E+02 -3.08138E+03 -4.45449E+03  1.65731E+03 -6.68438E+03  3.29631E+03 -3.22135E+03
  1.56472E+03 -2.58602E+03  5.19467E+03  2.39717E+03  3.58763E+03 -3.96097E+02  3.47997E+03 -8.21461E+01
  2.18934E+03 -3.12361E+03  9.84468E+02  2.13012E+03  3.20592E+03  2.81004E+03  4.67962E+03  4.94617E+03
  8.76294E+02  2.12478E+03 -2.38337E+03  5.01888E+03 -7.94972E+03  4.50619E+03 -1.29654E+04 -8.57130E+02
 -5.47349E+03 -4.41839E+03  2.65393E+03 -8.95686E+03  7.36613E+02 -6.25326E+03  7.62249E+03  9.81437E+02
  5.22691E+03  4.31085E+03  6.89686E+02  4.29319E+03  9.26659E+01  1.25796E+03 -3.46921E+03 -2.63322E+03
 -4.21140E+03 -3.78706E+03  9.21827E+02 -3.50108E+03  5.23216E+02 -3.72100E+03  5.04448E+03 -9.82143E+02
  1.00910E+03 -7.45986E+01  4.64267E+02 -4.17396E+03 -4.83837E+02 -2.67905E+03  1.66699E+02 -7.02578E+02
 -5.00940E+02  3.07124E+03  5.89468E+03 -1.95709E+03 -8.98949E+01  2.59092E+03  5.54032E+02  4.42972E+02
 -2.23950E+03 -1.42563E+03 -6.29047E+03  9.03893E+02 -4.09768E+03 -2.25211E+03 -1.11926E+03 -7.49526E+02
  1.35266E+03 -4.92522E+03 -7.03264E+02 -1.29862E+03 -2.47262E+03  4.10475E+03  1.67592E+03 -5.77580E+02
 -4.39850E+03  4.24637E+03  5.30660E+03 -2.80809E+03 -3.71035E+03  1.67642E+03  2.96723E+02 -3.53079E+03
 -3.74849E+03  3.06531E+03  5.24978E+03 -2.01308E+03  2.45766E+03  2.57516E+03 -3.19137E+03  4.87052E+03
  6.58898E+02  5.35318E+03 -2.38406E+03 -6.36517E+03  2.60299E+03  3.02908E+03  2.97695E+02 -5.56635E+03
  6.08594E+03 -3.44849E+03  5.13070E+03  4.47526E+03  3.35905E+03  7.44183E+02 -4.81969E+03  3.88334E+02
 -1.04831E+03  1.72901E+03 -4.77210E+03  4.44111E+03 -4.23435E+03  8.97537E+02  2.27262E+03 -2.61264E+03
  9.41253E+02 -3.78100E+03 -7.20321E+02  2.96541E+03  3.22057E+03  5.59449E+03  1.49943E+03  3.95858E+02
  1.02699E+03 -2.32774E+03  1.60049E+03  1.39729E+03 -1.99055E+03  4.01879E+03  2.23601E+02 -1.11476E+03
 -1.06452E+03 -1.87885E+03 -2.67776E+03  4.82807E+03 -3.74180E+03 -1.07925E+03 -5.03868E+03 -1.42561E+03
 -5.50763E+03 -2.99518E+03  1.20454E+03 -5.53654E+03  4.52321E+03 -4.12961E+03  6.16671E+03 -6.39760E+03
  1.31778E+03 -2.75251E+03  5.50601E+03  3.05010E+03  2.52796E+03  5.24032E+03  2.13477E+03  2.95966E+03
  1.95112E+03  1.39316E+03  2.01624E+02 -1.27906E+03  3.42888E+03  1.11139E+03 -4.37470E+03 -5.98440E+02
 -3.29736E+03 -2.29402E+03  4.18469E+03 -4.63801E+02 -3.70052E+03  9.27964E+02 -1.60780E+03 -1.04951E+02
  1.48839E+02  2.61903E+03 -5.21410E+03 -3.06737E+03  1.80269E+03  2.59577E+03  3.14455E+03  2.17582E+03
 -3.45053E+03  5.30833E+03 -4.01190E+03  5.71243E+02 -1.14002E+03  5.08564E+03  1.00053E+03 -8.25276E+02
 -3.70510E+02 -6.07905E+03  3.43322E+03 -2.05659E+03 -3.58456E+02 -3.62504E+03 -1.12328E+03  4.25680E+03
  4.64712E+03 -1.03933E+03 -2.49587E+03  7.08398E+02 -3.06198E+03  1.83502E+02  3.91734E+03  6.46626E+02
  3.37345E+03  3.38642E+02  1.43515E+03  3.43779E+03  3.38068E+03  2.45887E+03  8.50471E+02  8.37439E+02
 -5.12549E+03  6.27426E+02 -8.14943E+01  1.09061E+03 -4.19493E+03  2.90779E+02  3.09062E+03 -1.67667E+03
  2.59613E+02 -5.07792E+03  3.99888E+03 -1.33331E+03  4.47943E+03 -4.41912E+03 -3.16277E+02  7.95985E+03
  4.07741E+03 -1.85172E+03  1.94930E+03  2.30029E+03 -1.28085E+03  3.95948E+02  8.59999E+02  4.07212E+02
 -6.41407E+03 -8.20905E+02 -9.76597E+02  3.93796E+03 -4.30614E+03  5.53759E+02  7.65996E+01  1.25808E+03
 -1.72024E+03 -2.95446E+03 -3.08901E+03 -4.26713E+03 -1.10466E+03  6.91166E+02 -1.30121E+03  3.66982E+02
  4.74051E+03  2.48729E+02 -1.82252E+03 -3.00132E+03 -5.16927E+01  1.36679E+03  9.60604E+03 -2.39513E+03
