 $NMID ID='MM_0lb_SNR50_13hz_g55_99.RAW', FMTDAT='(8E13.5)'
 TRAMP=1., VOLUME=1. $END
  3.08839E+05 -6.17877E+03  3.37991E+05  2.49945E+05  8.52133E+04  3.34136E+05 -1.32903E+05  2.48736E+05
 -1.86907E+05  8.63937E+04 -1.15965E+05 -3.23785E+04 -1.02824E+03 -5.17297E+04  4.94660E+04  2.24958E+03
  3.76267E+04  5.22280E+04 -1.89433E+04  7.47420E+04 -5.91746E+04  6.67657E+04 -8.82635E+04  3.41623E+04
 -7.54323E+04 -1.44845E+04 -5.82985E+04 -5.19655E+04 -1.47581E+04 -7.11534E+04  2.63010E+04 -5.01386E+04
  3.76789E+04  6.04104E+01  1.47314E+04  5.01685E+04 -3.57800E+04  4.45378E+04 -7.12788E+04 -2.55275E+03
 -5.15496E+04 -5.60814E+04 -4.35381E+03 -8.01541E+04  3.15472E+04 -5.71868E+04  4.93396E+04 -1.78042E+04
  4.31006E+04  7.66089E+03  2.80383E+04  2.62979E+04  1.34656E+04  2.83929E+04 -8.35717E+03  3.01914E+04
 -1.52203E+04  8.90022E+03 -2.09438E+04 -2.31981E+03  5.95679E+03 -6.80514E+03  2.11611E+04  1.52459E+04
 -2.81032E+02  3.29716E+04 -2.78217E+04  3.95504E+04 -6.35624E+04  5.14815E+03 -5.28079E+04 -4.37690E+04
 -1.48485E+04 -6.19417E+04  3.98899E+04 -4.31325E+04  5.54911E+04 -5.77082E+03  3.81163E+04  3.20141E+04
 -2.58964E+03  3.64750E+04 -3.17184E+04  1.47533E+04 -2.82053E+04 -4.27339E+03 -1.55143E+04 -1.22188E+04
 -8.91372E+03 -1.15807E+04 -1.01707E+03 -1.72635E+04  7.48683E+03 -2.51561E+04  1.27836E+04 -1.41357E+04
  7.46942E+03  7.65812E+03 -1.08179E+04  1.02428E+04 -2.28781E+04 -3.47264E+03 -6.68010E+03 -3.11058E+04
  2.67106E+04 -4.17729E+04  5.10461E+04 -2.49579E+04  4.62403E+04  2.47169E+04  1.55314E+04  4.33611E+04
 -2.02193E+04  3.09686E+04 -2.58846E+04  5.90533E+02 -1.12394E+04 -2.54863E+04  2.23765E+04 -3.54578E+04
  4.16993E+04 -8.25211E+03  3.58117E+04  2.49046E+04  1.69548E+04  4.75621E+04 -9.79093E+03  5.08481E+04
 -3.38531E+04  3.67944E+04 -4.19263E+04  1.54848E+04 -3.78728E+04 -1.68980E+04 -2.32137E+04 -3.86321E+04
  1.06035E+04 -4.24586E+04  3.28230E+04 -1.37806E+04  2.49143E+04  1.06524E+04  8.63078E+03  1.99168E+04
 -1.02334E+04  1.40557E+04 -1.12202E+04 -9.36934E+02  7.64289E+03 -4.93397E+03  1.33778E+04  1.97225E+03
  8.51417E+03  2.31694E+04 -4.85342E+03  2.51840E+04 -2.43242E+04  1.48581E+04 -2.94854E+04 -3.02306E+03
 -2.13168E+04 -1.89226E+04 -8.60681E+03 -2.17865E+04  2.24360E+03 -2.31082E+04  1.67130E+04 -2.27535E+04
  3.17678E+04 -1.29965E+04  3.20287E+04  2.08872E+03  2.02602E+04  2.12192E+04  2.51896E+03  4.52354E+04
 -1.62107E+04  3.83535E+04 -2.22871E+04  1.29179E+04 -1.93503E+04 -1.66178E+04 -7.19385E+02 -8.98712E+03
 -2.89207E+02 -8.61587E+03 -2.26194E+03  7.41825E+03 -1.34008E+04  3.42708E+03 -1.87124E+04 -1.06134E+04
 -1.18045E+04 -1.73129E+04  3.45319E+03 -2.50197E+04  1.10145E+04 -1.22159E+04  1.97731E+04 -6.14390E+03
  1.01263E+04  1.76020E+04  3.70731E+02  1.58598E+04 -1.45951E+04  8.22915E+03 -1.79146E+04 -5.61611E+03
 -1.45551E+04 -2.10360E+04 -2.91231E+02 -2.82637E+04  9.92459E+03 -1.56696E+04  2.10683E+04 -1.08547E+04
  1.70039E+04  3.21992E+03  1.44171E+04  6.81122E+03  5.44859E+03  2.29251E+01  1.09684E+04 -1.65200E+03
  1.73083E+04  7.97059E+02  1.86451E+04  1.08495E+04  1.14019E+04  3.31881E+04 -3.01865E+02  3.83444E+04
 -1.80600E+04  3.31158E+04 -4.00124E+04  1.57161E+04 -3.49782E+04 -2.05714E+03 -2.79082E+04 -2.55278E+04
 -1.46142E+04 -3.00432E+04  1.16966E+04 -2.97121E+04  3.10479E+04 -1.25877E+04  2.33809E+04  3.87350E+03
  1.33426E+04  1.35385E+04 -1.06214E+04  1.25271E+04 -1.83251E+04  2.69245E+03 -1.20253E+04 -8.57968E+03
 -6.72111E+03 -2.06690E+04  1.42707E+04 -1.33603E+04  1.01890E+04  1.29396E+03  4.06097E+03  6.72375E+03
 -9.77101E+03  4.24720E+03 -9.06245E+03 -8.65411E+03  2.79200E+03 -1.65583E+04  8.94596E+03 -1.81562E+04
  1.58593E+04 -4.55899E+03  2.07840E+04  7.16321E+03  1.90804E+04  1.24100E+04  8.48804E+03  2.26825E+04
 -3.31213E+03  2.66267E+04 -1.64641E+04  1.67001E+04 -1.40623E+04  2.03783E+03 -1.30126E+04  4.45332E+02
 -4.28955E+03 -7.29264E+03 -2.97395E+03  6.14239E+02  3.08513E+03  4.20774E+02 -1.02451E+04  2.96664E+03
 -1.11940E+04  3.20573E+03 -1.24817E+04 -1.27923E+04 -5.74890E+03 -1.54033E+04  5.17932E+03 -1.40513E+04
  1.00497E+04  2.24164E+02  9.31770E+03  5.71577E+03 -4.68349E+02  3.75448E+03 -2.50721E+03 -5.55840E+03
 -6.36615E+03 -7.19366E+03 -9.34949E+02 -1.01672E+04  6.13227E+03 -1.38469E+04  1.51389E+04 -1.13532E+04
  1.84007E+04  1.08442E+02  1.32871E+04  1.03878E+04  7.45450E+03  1.25576E+04 -6.81640E+03  2.04316E+04
 -7.15183E+03  6.37172E+02 -5.27400E+03 -5.86952E+03  2.26601E+03 -4.31531E+03  2.06686E+03 -2.66808E+03
  5.06471E+03  7.21041E+03 -2.30038E+03  1.00837E+04 -1.95218E+03  1.43381E+04 -1.21726E+04  9.80721E+03
 -9.11402E+03 -6.56396E+03 -1.13785E+03 -1.46372E+04  4.49423E+03 -9.37552E+03  3.77225E+03  3.96253E+03
 -1.53577E+03  5.80916E+03 -8.64606E+03  3.74518E+03 -9.64613E+03  9.46305E+03 -7.29684E+03 -3.85777E+03
 -8.10019E+03 -1.44131E+04  4.01074E+03 -1.41881E+04  1.73567E+04 -4.64947E+03  1.07322E+04  1.68879E+03
  9.75527E+03  1.08188E+04  4.86787E+02  1.12999E+04 -1.02475E+04  7.46698E+03 -5.85720E+03 -6.03911E+03
 -1.04081E+04 -3.82169E+03  1.71054E+03 -8.33717E+03  6.00290E+03 -4.89907E+03  7.97496E+03  2.69309E+03
  1.52840E+03  4.57759E+03 -5.07287E+02  3.54963E+03  3.62885E+03  1.78898E+03  2.84029E+03 -4.88728E+03
  5.54906E+03 -3.44398E+03  7.87239E+03  5.35589E+02  1.72313E+04  7.17260E+03  1.37043E+04  1.28966E+04
 -1.92977E+03  1.77629E+04 -1.30315E+04  1.02915E+04 -1.83307E+04 -1.31665E+03 -2.19384E+04 -9.25126E+03
 -8.48684E+03 -1.09393E+04 -3.96730E+03 -9.10591E+03  5.03916E+02 -7.20324E+03  4.28048E+03 -3.25310E+03
  1.86285E+03  1.35445E+02  5.53448E+03 -6.52169E+03  4.30611E+03 -5.29216E+03  4.27782E+03 -4.37660E+03
  6.16047E+03  2.80899E+03  4.12868E+03  1.82358E+03 -2.92830E+03  6.74571E+03 -4.92473E+03  8.43861E+03
 -7.21727E+03 -2.70942E+03 -3.13492E+03 -7.69167E+03 -3.34569E+02 -1.93125E+04  7.57760E+03 -1.20224E+04
  4.56739E+03 -1.86810E+03  1.50441E+04  7.49695E+03  1.01081E+04  8.96833E+03  6.03617E+03  1.52620E+04
 -3.14159E+03  1.30449E+04 -4.95666E+03  3.26380E+03 -9.76043E+02 -7.33649E+02 -4.91987E+03 -5.42865E+03
 -3.67293E+03  1.14022E+03  1.45875E+03 -1.92024E+03 -7.39135E+03  2.92758E+03 -7.64939E+03 -3.10343E+03
 -2.24925E+03 -3.36201E+03 -9.12049E+02 -1.06683E+04  4.82498E+03 -5.58850E+03  1.27962E+04 -4.41825E+02
  1.22396E+04  5.84805E+03  4.12883E+03  6.67926E+03  8.76911E+02  7.52637E+03 -6.45877E+03  4.95307E+03
 -1.17498E+04  3.53708E+03 -1.07214E+04 -9.25854E+03 -1.21556E+02 -1.12087E+04  1.51684E+03 -4.90656E+03
  1.04713E+04 -1.72202E+03  4.16118E+03  4.94519E+03 -5.52891E+01  4.13907E+03 -5.18682E+02  7.15060E+03
  1.67757E+03  2.66920E+03  5.09670E+03  1.22170E+03  7.96955E+03  4.45953E+03  1.78998E+03  1.29606E+03
 -4.87129E+03  6.29268E+03 -1.07643E+04  6.95386E+03 -6.18702E+03 -7.51581E+02 -1.22433E+04 -4.11776E+03
 -6.71768E+03 -9.29483E+03 -6.10649E+02 -1.09624E+04  3.18005E+03 -1.72024E+03 -1.08653E+03 -2.96691E+03
  1.28088E+03  2.26628E+03 -6.17430E+02  5.35592E+03 -1.79334E+03  4.96528E+03 -1.05944E+04 -8.47323E+02
  1.88835E+03  4.06710E+02  2.55192E+03 -4.39237E+03  3.33148E+03 -4.17728E+02  3.92828E+03  3.17474E+03
  2.81742E+03  1.07428E+03  8.99947E+03  5.12910E+02 -1.38150E+03  5.29436E+02 -8.10647E+02  2.93450E+03
 -1.09173E+03 -4.31568E+03  3.94196E+03 -1.54778E+03  1.64794E+03  3.68561E+03  2.28356E+03  2.44632E+03
 -4.95122E+02  2.24157E+03 -5.65533E+03 -4.85121E+03 -1.74330E+03 -6.94073E+01  1.17712E+03 -4.45537E+03
  1.74890E+03 -6.23612E+03  8.34751E+03 -6.72289E+03  7.68329E+02  4.08410E+03 -1.67367E+03  3.60899E+03
 -8.32974E+03 -1.73608E+03 -2.73739E+03 -3.41393E+03 -2.29850E+03 -6.83424E+03  4.50622E+03 -2.78021E+03
 -1.10902E+03 -4.02637E+03  4.99140E+03  1.36961E+03  2.05412E+03 -1.68933E+02  6.09218E+02  1.13372E+03
 -8.94625E+02  1.63527E+02 -8.68792E+03  5.50724E+01  1.86825E+03 -2.00091E+03  7.44951E+03 -1.91573E+03
  2.95473E+03 -8.61998E+01  2.97834E+03  4.23253E+03  2.20314E+03  8.32369E+03 -5.56233E+03  6.66464E+03
 -7.39292E+03  9.60609E+02 -8.15039E+03 -1.94247E+03  1.04288E+03 -6.22729E+03  5.23085E+03 -1.65231E+03
  6.58588E+03 -1.84592E+03  1.98195E+03  2.51375E+03  3.46790E+03  1.97938E+03  4.48063E+03 -1.18403E+02
  2.91037E+02  1.24924E+03 -2.36170E+03  1.34732E+03  1.06488E+03  1.80494E+03  3.09040E+03  5.22465E+02
  1.34323E+03  2.94918E+03 -5.91133E+03  2.43348E+03 -6.07604E+03  1.64805E+03 -2.26559E+03 -2.93710E+03
 -3.44165E+03 -8.74592E+03 -1.66865E+02 -5.90066E+03  6.43996E+03 -9.04972E+03  8.98947E+03 -6.58481E+03
  4.14210E+03  5.65328E+03  2.76468E+03 -5.16300E+02  2.07736E+03  3.96999E+03  4.27139E+02  1.49221E+03
  1.67965E+03  3.97729E+03 -1.39719E+03 -1.03896E+03 -6.76497E+03 -3.29112E+03  1.67817E+03  2.55662E+03
 -1.02991E+03 -2.16392E+03 -6.10245E+03 -3.34502E+02 -3.95453E+03  2.28878E+03 -2.74487E+03  3.11724E+02
  1.78396E+03 -9.62485E+02  4.47934E+03 -2.00681E+03  6.16044E+03 -4.02138E+03  4.35198E+03  1.74008E+03
 -1.67150E+03  4.05622E+03 -5.61291E+03  2.89466E+03 -2.30785E+03  1.78792E+03 -1.32639E+03 -2.53923E+03
 -3.45781E+02 -6.92911E+03  2.69508E+03 -6.44705E+03 -5.20723E+03 -5.19434E+02  4.24385E+03 -9.80167E+02
  2.03535E+03  3.07703E+03  6.97998E+02  1.72037E+03  3.19853E+03 -4.90197E+03  1.64751E+03 -6.87203E+02
 -1.85926E+03 -3.09473E+03 -1.26643E+03 -1.34679E+03 -2.88499E+03  5.80304E+03  3.01227E+03 -1.42164E+03
 -4.82346E+03 -4.80850E+02 -6.07195E+02  3.61954E+03 -2.39322E+03 -2.50550E+03  8.14851E+00 -5.51540E+03
 -1.60287E+03 -1.18643E+04  3.99869E+03  4.37925E+03  3.80106E+03 -1.05646E+03  1.61031E+00  4.51464E+03
  1.96370E+03  1.37794E+03 -4.50646E+03  4.99262E+03 -1.62170E+03  4.90612E+03  1.50469E+03 -6.22742E+02
 -2.19369E+01 -1.07727E+03 -5.05409E+03 -3.04976E+03  2.54489E+03  4.71918E+03 -1.98761E+03  1.85211E+02
 -4.96555E+03 -3.56174E+02  3.16364E+02 -1.00125E+03  3.52518E+03 -3.49506E+03  4.40630E+03  4.52743E+03
  3.59478E+03  7.73086E+02  2.56210E+03  2.89911E+03  4.22295E+03  7.38705E+02  2.86529E+03 -2.24859E+03
