 $NMID ID='MM_0lb_SNR50_20hz_g50_23.RAW', FMTDAT='(8E13.5)'
 TRAMP=1., VOLUME=1. $END
  3.09734E+05 -4.34935E+03  3.36888E+05  2.51403E+05  8.28938E+04  3.40790E+05 -1.35192E+05  2.52277E+05
 -1.89758E+05  8.43681E+04 -1.11962E+05 -3.75339E+04  2.37641E+03 -4.82769E+04  5.41331E+04 -2.06431E+03
  3.43996E+04  5.27032E+04 -1.56747E+04  7.17541E+04 -6.18609E+04  6.35944E+04 -8.34559E+04  2.70027E+04
 -7.80899E+04 -8.30306E+03 -5.33653E+04 -4.85339E+04 -1.67064E+04 -6.51160E+04  2.44487E+04 -4.43895E+04
  3.72287E+04  2.54468E+03  1.80806E+04  5.10998E+04 -3.06628E+04  4.80600E+04 -6.61276E+04  1.94292E+03
 -5.13155E+04 -5.26130E+04 -3.84209E+03 -7.98706E+04  3.35196E+04 -6.04110E+04  5.10058E+04 -1.53806E+04
  4.50592E+04  1.06843E+04  2.87823E+04  2.50236E+04  1.45180E+04  2.89742E+04 -6.53655E+03  2.58906E+04
 -1.99754E+04  1.08464E+04 -1.85591E+04 -4.65729E+03  1.30550E+01 -3.39552E+03  1.99036E+04  1.11156E+04
  5.19656E+03  3.41714E+04 -3.13802E+04  3.10504E+04 -5.67789E+04  3.18640E+03 -5.80472E+04 -4.10950E+04
 -1.43586E+04 -6.25350E+04  3.45962E+04 -4.14592E+04  5.60732E+04 -2.03214E+03  3.01667E+04  3.23421E+04
 -4.81544E+03  3.03199E+04 -2.93384E+04  1.41403E+04 -2.63107E+04 -9.04760E+03 -1.62197E+04 -1.03703E+04
 -3.84208E+03 -1.10221E+04 -6.47759E+02 -1.75985E+04  3.93848E+03 -1.97424E+04  1.10491E+04 -1.59697E+04
  1.18538E+04  9.28119E+02 -3.65328E+03  1.18513E+04 -2.18382E+04 -6.14237E+02 -8.84004E+03 -3.30249E+04
  2.28624E+04 -4.23263E+04  4.45586E+04 -1.59662E+04  4.40531E+04  2.07571E+04  1.55602E+04  3.98614E+04
 -1.54723E+04  3.13144E+04 -2.31716E+04  6.67524E+02 -7.74067E+03 -2.12703E+04  1.97744E+04 -3.47268E+04
  3.82277E+04 -5.91119E+03  3.37315E+04  2.34322E+04  1.09116E+04  4.37912E+04 -8.17040E+03  4.29313E+04
 -3.09214E+04  3.14872E+04 -3.47763E+04  1.07364E+04 -3.44640E+04 -1.72330E+04 -2.05979E+04 -3.53732E+04
  5.62129E+03 -3.13929E+04  3.11482E+04 -1.62595E+04  2.63703E+04  5.16509E+03  4.98544E+03  1.65983E+04
 -1.47932E+04  7.30224E+03 -1.11071E+04 -6.21259E+03  9.28240E+03 -1.20565E+04  1.45974E+04  1.65257E+03
  1.23104E+04  2.36096E+04 -7.47581E+03  2.41777E+04 -1.76815E+04  7.64700E+03 -2.40998E+04 -7.50103E+03
 -1.63644E+04 -1.75371E+04 -7.33908E+03 -1.40874E+04 -1.01839E+03 -1.42031E+04  1.56758E+04 -9.86360E+03
  1.81560E+04 -1.28955E+04  2.01244E+04  2.12793E+03  2.44995E+04  1.45674E+04  3.49687E+03  3.56486E+04
 -1.51590E+04  2.40247E+04 -2.49893E+04  8.65720E+03 -2.18050E+04 -1.04907E+04 -1.39502E+03 -1.42875E+04
  6.85997E+02 -2.63525E+03 -4.64853E+03  5.53641E+03 -1.25123E+04  2.92314E+03 -1.15553E+04 -2.17067E+03
 -1.33414E+04 -1.19443E+04  3.13718E+03 -1.84066E+04  1.49327E+04 -9.80067E+03  1.07157E+04 -2.01987E+03
  7.88396E+03  1.46252E+04 -4.12392E+03  1.30621E+04 -9.92015E+03  9.67104E+03 -1.69984E+04 -2.29612E+03
 -1.41060E+04 -1.15833E+04 -7.57319E+02 -1.88832E+04  6.23118E+03 -1.47070E+04  1.33039E+04 -6.32141E+03
  1.65703E+04  3.64028E+03  9.69694E+03 -5.37920E+02  1.15748E+03 -7.60361E+02  5.27486E+03 -1.74577E+03
  1.45549E+04  4.03978E+03  1.40139E+04  1.20427E+04  5.13331E+03  2.39077E+04 -3.16701E+03  2.08239E+04
 -1.88858E+04  1.67502E+04 -2.55894E+04  9.26489E+03 -2.13272E+04  1.44957E+03 -2.23462E+04 -1.35154E+04
 -9.66546E+03 -1.40664E+04  4.45175E+03 -2.05713E+04  1.86787E+04 -9.75361E+03  1.31781E+04  4.48130E+03
  9.81993E+03  9.93082E+03 -3.29241E+03  7.72811E+03 -1.07684E+04  6.64035E+03 -9.68295E+03 -9.80966E+03
 -1.07836E+03 -1.57657E+04  3.17977E+03 -8.34277E+03  8.66379E+03  6.68086E+01  1.98448E+03  5.22014E+03
 -6.15857E+03  2.21396E+03 -9.38837E+01 -7.36631E+03  2.75838E+03 -9.14407E+03  7.69169E+03 -8.00016E+03
  1.02489E+04 -4.34701E+03  1.23103E+04  3.76032E+03  8.09198E+03  5.79017E+03  4.73811E+03  1.07567E+04
  3.96724E+02  1.20433E+04 -8.25342E+03  1.05573E+04 -7.04103E+03  1.31214E+03 -8.38963E+03 -5.97614E+03
 -2.97148E+03 -1.35466E+03  1.71606E+03  1.56727E+03  6.78455E+02  2.58015E+03 -2.72365E+03  3.45869E+03
 -1.00859E+04  1.37180E+03 -9.82774E+03 -5.43028E+03 -1.07992E+03 -1.41297E+04  3.48467E+03 -6.89740E+03
  8.37381E+03 -3.24736E+03  8.63272E+03  1.81584E+03 -9.15760E+01  4.90237E+03 -4.44275E+03 -1.23300E+03
 -2.91228E+02 -4.96720E+03 -4.38497E+03 -8.30500E+03 -1.35419E+03 -6.62927E+03  5.30814E+03 -3.99778E+03
  9.52324E+03  1.67464E+03  6.25973E+03  2.17035E+03 -2.89078E+02  5.66509E+03 -5.56322E+03  9.74220E+03
 -2.30911E+03  3.71872E+03  2.61492E+03 -3.56065E+02  7.02685E+02 -8.80705E+02  1.09934E+03 -2.28105E+02
  3.85936E+03  1.23075E+03 -1.75675E+03  6.86755E+03 -4.01486E+03  3.75267E+03 -4.85617E+03 -2.28442E+03
 -5.52843E+03 -2.45936E+03  1.11342E+03 -5.54045E+03 -1.38952E+03 -4.24981E+03  1.57749E+03 -5.74528E+02
  1.74386E+03  2.76860E+03 -1.99013E+03  1.67667E+03 -3.93363E+03  2.37983E+03 -6.93302E+03  3.78565E+03
  3.75856E+02 -4.64123E+03  2.64292E+02 -6.31626E+03  2.95671E+03 -6.27357E+02  1.83700E+03  6.15786E+02
  3.20755E+03  5.63639E+03 -2.22880E+03  8.91819E+03 -5.92220E+03  3.45464E+03 -4.70300E+03  6.58424E+02
 -8.25922E+03 -7.34356E+03 -1.07348E+03 -3.60506E+03  3.72656E+03 -6.02004E+03  2.81033E+03 -3.25829E+03
  1.34969E+03  3.60721E+02  1.50904E+03  2.82973E+03  3.13191E+03 -1.48059E+03  1.05501E+03  5.38957E+02
  9.62268E+03 -1.49718E+03  5.34430E+03 -1.42065E+03  7.63635E+03  1.74239E+03  7.39005E+03  9.65873E+03
 -1.56128E+03  9.65628E+03 -3.20049E+03  4.71226E+03 -4.44980E+03  1.97061E+03 -1.12635E+04 -2.66247E+03
 -4.47875E+03 -8.40101E+03  2.40318E+03 -7.70172E+03  4.15222E+02  4.84313E+02  2.36061E+03 -2.17524E+03
 -7.08454E+02  2.20415E+03  3.32172E+03 -7.13336E+02  2.27157E+03 -1.94235E+03  5.45193E+03 -4.06375E+03
  5.64996E+03 -2.86322E+03  7.06023E+02  1.72258E+03  1.36322E+03  4.11668E+03 -2.89900E+03 -4.54500E+02
 -3.65458E+03 -3.70362E+03 -2.86631E+03 -6.16180E+03 -1.06840E+03 -4.26938E+03  4.28214E+03 -1.74997E+03
 -2.65143E+02 -3.81479E+03  8.08963E+03 -3.43393E+03  8.08928E+02  3.97678E+03  1.05785E+03  2.63713E+03
 -5.18500E+03  5.04971E+03 -4.94496E+03 -1.78973E+03 -1.35704E+03  3.83399E+03 -1.80030E+03 -2.32902E+03
 -1.20949E+02 -3.88271E+02 -2.99051E+03  4.34428E+03 -5.01583E+03 -2.79126E+03 -5.92811E+03 -4.06542E+03
  1.06412E+03 -3.36455E+03  2.71162E+03 -2.92658E+03  9.75493E+02 -2.95702E+03 -1.11976E+03 -7.86392E+02
  2.12275E+03  3.11454E+03  4.12609E+02  4.22352E+03 -3.65226E+03  2.43164E+03 -1.51185E+03  3.60454E+02
 -5.29692E+03  3.13488E+03 -1.90075E+03 -1.91056E+03  2.90330E+03 -2.89754E+03 -2.54607E+02 -7.45780E+02
  5.28968E+03 -1.29469E+03  1.47686E+03 -2.75605E+03  3.36062E+03 -2.56451E+01  4.82352E+03  2.26916E+03
  1.98784E+03 -1.36280E+03  3.46517E+03 -2.33607E+03  1.23354E+00  8.94196E+02  8.73326E+02 -1.67516E+03
 -2.92487E+03  1.42102E+03 -3.60442E+02  6.19811E+03 -7.86012E+02 -4.27935E+03 -5.36714E+03 -3.39737E+03
 -1.71961E+03 -9.86367E+02  4.60720E+02 -3.79522E+03 -1.22180E+03 -3.33778E+03  3.53445E+03 -1.25277E+03
  1.90720E+03  4.18343E+03  2.73732E+03  1.10103E+03 -3.72518E+03 -3.68223E+03 -1.13584E+03 -5.14581E+03
 -2.99759E+03  1.31555E+03  1.81705E+02 -6.19224E+02  1.02098E+03  4.85907E+02  2.15102E+03 -3.91869E+02
 -1.12447E+03  1.06862E+03  4.29953E+03  5.08733E+03  1.16821E+03 -1.27334E+03  1.55517E+02  7.48480E+02
 -3.43566E+03 -2.14645E+03  3.44786E+03 -1.25863E+03  1.47430E+03  9.20637E+03 -1.09014E+03  1.74502E+03
 -1.66811E+03 -2.13065E+03 -1.76568E+03  2.21054E+03  2.39867E+03 -6.99080E+02 -2.13885E+03 -1.83959E+03
  2.76495E+02 -3.13826E+03  6.35198E+02 -4.16970E+03 -2.90347E+03  2.87350E+03 -8.87048E+02  3.20943E+03
 -7.81146E+02 -3.73743E+03  7.95338E+02  2.80887E+03 -3.25559E+03  2.97722E+02 -1.49406E+03  2.26909E+03
 -1.02920E+03 -2.79664E+03  7.10377E+01 -2.18616E+02  9.48815E+02 -2.65651E+03 -2.80201E+03  1.31063E+03
  5.42798E+03 -2.99844E+03 -1.25746E+03 -1.94452E+03  3.62178E+03  1.18354E+03  1.22800E+03  2.02330E+03
  1.87469E+03 -1.48099E+03 -2.36503E+03  2.25605E+03 -7.02317E+02  2.97970E+03 -2.75596E+03  4.63342E+03
 -3.92589E+02  6.71175E+02 -4.46295E+03  2.91852E+02 -4.02851E+02 -1.94632E+03  2.11629E+03 -1.03706E+03
  4.55951E+03 -1.42251E+03  6.72357E+02  3.13455E+03  1.95389E+03  4.62001E+03 -7.86746E+02  2.46050E+03
  2.55014E+03 -1.16917E+03 -2.22246E+03  5.10947E+02 -1.88208E+02  3.19843E+03 -4.90504E+02  1.18913E+03
  6.99788E+02  8.83651E+02 -5.66807E+02  1.27114E+03 -3.44218E+02  9.92502E+01  1.08088E+03 -6.18359E+02
 -3.98522E+03 -3.29887E+03  1.15888E+02 -8.09921E+01 -3.50965E+03  3.14793E+02 -7.80754E+02 -3.99748E+03
  1.07571E+03  3.83906E+02  7.47709E+02  6.39021E+01  3.22270E+03  1.07167E+03 -1.14127E+03 -3.38808E+03
 -3.61330E+03  1.31152E+03  7.52222E+02 -4.10009E+03 -1.28898E+03  9.86881E+02 -3.91738E+03  8.86403E+02
  2.56314E+03 -5.73922E+02 -4.44017E+03 -5.41362E+02  2.13980E+03 -2.86196E+03  7.12577E+02  6.79142E+02
  1.91924E+03 -4.82148E+03 -4.39710E+03  4.47083E+03  6.39423E+02  9.89887E+02  1.20172E+03  4.17367E+03
 -2.72867E+02  3.27043E+03  3.70655E+03 -2.32679E+02  6.93963E+02  4.59760E+03 -2.56341E+02 -6.82631E+02
 -2.39586E+03 -3.30377E+03 -1.44845E+03 -8.97402E+02  3.95158E+03 -2.64265E+02 -8.51460E+02 -8.38941E+02
  2.20655E+02 -1.65470E+03 -5.19587E+03 -1.91007E+03 -7.79631E+02 -2.14728E+02  5.09252E+02 -9.73492E+01
 -2.99756E+02  2.63533E+02  4.68478E+03 -7.72512E+02  1.49546E+03 -2.23875E+03  1.68411E+03 -5.16034E+02
  5.55069E+02  1.60996E+03 -1.28208E+03 -5.51589E+03  2.19547E+03  1.47253E+03  2.68934E+03 -8.16822E+02
  7.20466E+02  7.58654E+02 -7.95322E+02  1.01162E+03 -1.48343E+03 -1.01931E+03  3.65908E+03 -9.65470E+02
  6.33178E+02  3.82925E+03 -4.39606E+02  3.16978E+03  8.67159E+01 -1.24189E+03 -4.19604E+01 -2.53802E+03
  1.69196E+03  7.77108E+02  8.85177E+02  2.40752E+03  7.61655E+02 -1.18099E+01 -2.97661E+03 -4.49204E+03
  3.28384E+02 -1.88727E+03 -2.02100E+03 -8.05667E+02 -1.57311E+03 -1.74141E+03 -1.23115E+03 -1.64350E+03
  2.21763E+03  7.58948E+01 -6.16132E+02 -1.24617E+03 -2.60669E+03 -1.16218E+03 -5.96094E+02 -1.29859E+03
