 $NMID ID='MM_0lb_SNR50_12hz_g60_70.RAW', FMTDAT='(8E13.5)'
 TRAMP=1., VOLUME=1. $END
  3.04171E+05 -1.39503E+03  3.42956E+05  2.49921E+05  8.25378E+04  3.40738E+05 -1.33343E+05  2.56283E+05
 -1.90800E+05  8.34064E+04 -1.12129E+05 -3.34689E+04 -9.26866E+02 -5.11425E+04  5.13281E+04 -1.99190E+03
  3.32583E+04  5.22491E+04 -2.01699E+04  7.26474E+04 -6.24592E+04  6.60569E+04 -8.58798E+04  3.92839E+04
 -8.28553E+04 -9.72189E+03 -5.92287E+04 -5.57044E+04 -1.46300E+04 -6.81494E+04  2.81778E+04 -4.46288E+04
  4.22303E+04  5.41203E+03  1.78890E+04  4.58066E+04 -3.64872E+04  4.80377E+04 -6.49130E+04  1.06688E+03
 -5.44806E+04 -5.20870E+04 -7.50418E+03 -7.64513E+04  3.42535E+04 -5.61840E+04  5.08024E+04 -2.05433E+04
  4.90680E+04  7.64253E+03  3.63055E+04  2.85477E+04  1.39042E+04  2.72051E+04 -5.82217E+03  2.81388E+04
 -2.61546E+04  1.49507E+04 -1.61861E+04 -8.01710E+03  7.51523E+03 -8.44598E+03  1.78842E+04  1.14576E+04
  1.58341E+03  3.39630E+04 -3.04242E+04  3.44740E+04 -6.46516E+04  9.53097E+02 -5.82630E+04 -4.46905E+04
 -1.48953E+04 -6.39951E+04  3.88672E+04 -4.45770E+04  5.99265E+04 -7.90938E+03  3.63417E+04  3.47010E+04
  2.70552E+03  4.03296E+04 -2.55638E+04  1.44965E+04 -3.07263E+04 -2.50338E+03 -1.87524E+04 -9.31222E+03
 -1.04167E+04 -1.58137E+04 -5.51905E+02 -2.03270E+04  1.12111E+04 -1.72123E+04  2.09407E+04 -1.00851E+04
  1.16282E+04  3.46841E+03 -8.43105E+03  1.39906E+04 -2.41936E+04 -6.58540E+03 -8.35392E+03 -3.05612E+04
  2.41409E+04 -4.95270E+04  4.82323E+04 -1.68318E+04  4.89799E+04  2.05380E+04  1.56353E+04  4.65921E+04
 -1.88984E+04  3.48174E+04 -2.69369E+04  3.90977E+03 -9.68703E+03 -2.64090E+04  2.30516E+04 -3.95524E+04
  3.87577E+04 -9.34138E+03  3.91273E+04  2.43914E+04  2.21727E+04  5.12390E+04 -7.68654E+03  5.11992E+04
 -3.81166E+04  3.31767E+04 -4.01993E+04  1.02516E+04 -4.56541E+04 -1.65788E+04 -1.87405E+04 -4.09630E+04
  7.44863E+03 -3.69598E+04  3.26347E+04 -1.98017E+04  2.74518E+04  6.91111E+03  8.41722E+03  2.25090E+04
 -1.41552E+04  1.25329E+04 -1.27096E+04 -9.64544E+03  8.16353E+03 -1.15910E+04  2.20886E+04  5.49708E+03
  1.44808E+04  2.55151E+04 -6.99295E+03  2.71749E+04 -2.15495E+04  1.04978E+04 -3.39946E+04 -2.30898E+03
 -2.41531E+04 -2.28791E+04 -1.07351E+04 -2.80152E+04  6.49858E+03 -2.23085E+04  1.78148E+04 -2.04438E+04
  3.28126E+04 -9.77309E+03  3.23698E+04  2.40616E+03  2.57334E+04  2.05343E+04  2.05936E+02  3.70495E+04
 -1.92429E+04  2.97575E+04 -3.42991E+04  1.02345E+04 -2.43348E+04 -1.00313E+04 -3.47930E+03 -1.04661E+04
  5.02991E+03  2.59808E+03 -7.29145E+03  6.47795E+03 -1.77198E+04  1.30612E+03 -1.71599E+04 -1.32542E+04
 -1.10715E+04 -2.14622E+04  1.13749E+04 -2.60778E+04  2.35905E+04 -1.29028E+04  1.94741E+04  5.36634E+03
  1.92930E+04  1.40173E+04 -7.52267E+02  2.18408E+04 -1.86082E+04  1.10362E+04 -2.18860E+04 -6.65623E+03
 -1.63408E+04 -1.31285E+04  1.27697E+03 -2.55609E+04  1.00446E+04 -2.69790E+04  1.87113E+04 -8.80488E+03
  2.01666E+04 -7.82892E+02  1.00011E+04  7.71675E+03  5.21230E+03  1.64361E+03  9.91608E+03 -5.02779E+03
  1.60520E+04  5.48131E+03  2.26477E+04  1.48621E+04  9.30407E+03  4.09199E+04 -2.50681E+03  4.16327E+04
 -2.01176E+04  3.16647E+04 -3.18224E+04  1.92793E+04 -4.02164E+04 -2.94915E+03 -3.27256E+04 -2.20786E+04
 -1.34697E+04 -3.45021E+04  1.03466E+04 -2.65659E+04  2.92559E+04 -1.66235E+04  2.45876E+04  2.88298E+03
  7.90519E+03  1.33906E+04 -1.28237E+04  1.62464E+04 -1.89299E+04  4.69937E+03 -1.17581E+04 -1.61857E+04
  1.52019E+03 -1.64609E+04  1.01571E+04 -9.46116E+03  6.17124E+03  2.74888E+03  9.74843E+03  8.80348E+03
 -5.22228E+03  8.18432E+02 -5.69706E+03 -4.31389E+03  1.37034E+03 -1.18108E+04  8.37537E+03 -1.59151E+04
  2.42056E+04 -1.19040E+04  2.68623E+04  4.80676E+03  1.88638E+04  1.54905E+04  1.24952E+04  2.26479E+04
 -1.12522E+04  2.84368E+04 -1.95984E+04  1.75069E+04 -2.46297E+04  4.52249E+03 -1.20944E+04 -4.84101E+03
 -4.19473E+03 -1.00457E+04 -6.03967E+01  3.17897E+03  1.99947E+02  3.38333E+02 -4.97762E+02  2.12846E+02
 -9.51363E+03 -2.78474E+03 -1.07608E+04 -1.22735E+04 -8.22075E+03 -1.94595E+04  9.91554E+03 -1.49570E+04
  1.48306E+04 -6.25052E+03  6.98579E+03  2.64895E+03  3.08382E+03  4.80948E+03 -5.01457E+03  3.96588E+03
 -6.48143E+03 -5.94188E+03 -1.17510E+03 -5.52125E+03  1.21372E+04 -1.79061E+04  1.64818E+04 -1.17071E+04
  2.86357E+04  3.28333E+03  1.48903E+04  5.25560E+03 -1.75025E+02  1.58396E+04 -7.39412E+03  1.76746E+04
 -1.57323E+04  6.45396E+03 -4.08065E+03 -5.22629E+03  2.15320E+03 -2.01139E+03  7.41824E+03  1.27286E+03
  4.15497E+03  5.38723E+03  4.50865E+02  9.04169E+03 -5.10998E+02  9.16469E+03 -1.58992E+04  4.19943E+03
 -9.23266E+03 -8.07307E+03 -3.62506E+03 -1.06730E+04  5.01948E+03 -6.62728E+03  3.99444E+03  3.04520E+03
 -1.17424E+03  7.84200E+03 -5.19544E+03  1.22455E+04 -1.47380E+04 -1.84289E+03 -1.44355E+04  5.25251E+02
 -5.71641E+03 -1.28727E+04  2.45251E+03 -1.15527E+04  1.74068E+04 -9.12043E+03  1.41937E+04  3.91032E+03
  7.37364E+03  1.07461E+04  4.02080E+02  1.52028E+04 -8.90996E+03  3.23188E+03 -1.21588E+04 -4.44882E+03
 -5.72429E+03 -1.00765E+04 -2.93927E+03 -7.79248E+03  4.52672E+03 -7.98669E+03  5.97317E+03 -3.25916E+03
  7.94983E+03  1.85205E+03  2.24670E+03  5.93746E+03 -7.70857E+03 -5.33267E+03  5.99987E+03 -2.21548E+03
  9.47600E+03 -4.41872E+03  1.15243E+04  5.95985E+02  1.69657E+04  4.74158E+03  6.97631E+03  1.54931E+04
 -4.55557E+03  1.72651E+04 -1.83994E+04  9.14064E+03 -2.03565E+04 -2.35284E+02 -1.52542E+04 -6.00452E+03
 -7.73595E+03 -1.19506E+04  1.73991E+03 -8.27982E+03  7.05143E+03 -5.82127E+03  3.38468E+03 -4.10434E+02
  4.84710E+03  1.16799E+03  6.07252E+03 -3.89836E+03  1.16610E+03 -4.64412E+03  5.88023E+03 -8.54456E+02
  9.74595E+03 -1.66072E+03  2.60103E+02  6.17233E+03 -4.02809E+03  6.94219E+03 -1.11585E+04  6.98357E+03
 -1.09272E+04 -4.29896E+03 -6.25942E+03 -4.27075E+03  1.19482E+03 -1.29799E+04  7.38169E+03 -1.43729E+04
  1.29049E+04 -1.07138E+04  1.48822E+04  5.72878E+02  1.04607E+04  1.16307E+04 -4.85549E+03  1.17550E+04
 -6.66286E+03  1.20395E+04 -1.01730E+03  2.95128E+03 -7.27187E+03 -1.65148E+03 -6.21047E+03 -6.13831E+03
  1.07175E+03  4.14281E+02  2.67957E+03  9.19777E+03 -3.15276E+02  3.82802E+03 -7.29421E+03 -3.21104E+02
 -9.33538E+03 -1.55462E+04  4.50294E+03 -6.91486E+03  2.02796E+03 -1.49965E+04  7.47950E+03  3.18825E+03
  1.29568E+04 -1.39923E+02  4.21301E+03  8.45483E+03  2.07546E+01  1.05552E+04 -1.03826E+04  2.61687E+03
 -1.47756E+04  6.17821E+02 -5.99120E+03 -6.44918E+03 -1.51764E+03 -1.30556E+04  8.31791E+03 -5.96952E+03
  1.01188E+04 -5.02146E+03  5.05209E+03 -1.56200E+03 -5.54910E+02  4.92510E+02 -3.70340E+03  3.50246E+03
  7.24608E+03 -1.08305E+03  3.45583E+02 -6.25486E+02  5.22105E+03  9.68569E+03  1.70543E+03  1.19231E+03
 -8.77484E+03  9.40786E+03 -8.90612E+03  1.10391E+04 -6.92540E+03  6.42640E+03 -3.72144E+03 -5.95394E+03
 -1.64004E+03 -1.45781E+04  3.72509E+03 -1.01107E+04  4.19590E+03 -7.72234E+03  8.25448E+03  1.03550E+03
  3.73507E+03  6.83169E+03  1.65607E+03  1.41881E+03  2.12546E+02  5.83660E+03  2.26458E+03 -4.32028E+03
 -1.91234E+03 -6.05082E+03 -1.90505E+03 -2.06542E+03  5.89533E+03 -5.04064E+03  7.16029E+02 -2.86157E+03
  1.29818E+03  1.06595E+03  1.63230E+03  5.36011E+03  6.73800E+02 -4.07624E+03 -1.67615E+01  2.47924E+03
  1.36268E+03  1.24344E+03  8.12944E+03 -2.60780E+03 -1.44560E+03  3.63631E+03 -2.89072E+03  7.40564E+03
 -6.11380E+03  7.66564E+03 -5.66357E+03 -6.63321E+02 -9.18984E+03 -4.22917E+03 -3.26483E+03 -2.15915E+03
  2.13843E+03 -3.16897E+03  1.63061E+03 -2.36434E+03  5.14266E+03  1.30708E+03  3.53844E+02  8.58866E+02
 -6.39530E+03  4.55285E+03 -3.09210E+03 -8.17001E+03 -9.57548E+03 -4.53608E+03  4.24085E+02 -5.85397E+03
  5.76501E+03 -7.10347E+03  4.63051E+03 -5.97259E+03  1.47645E+03 -2.45182E+02 -2.44434E-01  4.23366E+03
  4.62300E+03 -8.70724E+03 -1.67183E+03  3.35252E+03  3.32780E+03 -5.59590E+03  6.00740E+03 -4.99752E+03
  4.95635E+03 -4.28987E+03  1.14516E+04  5.58518E+03 -1.85974E+03  5.95462E+03 -7.95408E+02  4.74717E+03
 -4.44318E+03 -8.88959E+01 -6.36372E+03 -4.95471E+02 -5.40971E+03 -6.76488E+03  4.38785E+03 -3.49498E+03
  6.84848E+03 -3.57475E+03 -3.32684E+03  4.15938E+03 -3.36087E+03  8.54069E+03 -2.27049E+03  5.15911E+03
 -3.97783E+03 -6.85191E+03 -5.71720E+03  9.46085E+02 -4.66263E+03 -1.02126E+03 -8.80225E+03  1.06131E+03
  2.70932E+03  2.08095E+03 -8.63952E+03  8.32057E+03 -3.57365E+03  2.83553E+03 -4.22121E+03 -5.41124E+03
 -4.77895E+03 -3.84567E+03 -1.84582E+03 -7.93281E+03  3.47512E+03 -5.55104E+03  1.43058E+04 -7.49009E+03
  9.07750E+03 -5.81106E+02  8.63739E+03  5.73585E+03 -8.46361E+03  8.62255E+03 -1.71684E+03  8.89575E+03
 -6.43220E+03  2.79838E+03 -3.15364E+03  1.71943E+02 -2.65251E+03  1.03011E+03  3.00114E+03 -4.33958E+03
  4.38466E+03  1.88538E+03 -2.14279E+03  1.27475E+03 -5.18382E+02 -5.46175E+03  7.58449E+02  2.12346E+03
  7.61417E+03 -5.14179E+03  5.05353E+02  7.54342E+02  3.27577E+03  4.59752E+03 -7.16565E+02  6.72544E+03
 -4.51498E+03  2.02098E+03 -9.80077E+03  2.98176E+03 -1.07620E+04 -1.00994E+03 -6.95421E+03 -6.05142E+03
 -5.92371E+03 -7.43552E+03 -2.87330E+03 -8.34101E+03  6.22513E+03 -9.97684E+03  6.27847E+03 -5.77377E+02
 -5.23607E+02  3.06855E+03 -7.77046E+02  1.34964E+03 -6.67414E+02  1.38943E+03 -2.05769E+03  1.76041E+03
 -3.20687E+03  1.92950E+03  6.52942E+03  2.98203E+02 -2.39489E+03  2.18330E+03 -7.47324E+03  3.53320E+03
 -1.47532E+03  2.50831E+01 -3.21591E+03 -3.10130E+03 -4.49477E+03  1.24941E+03  3.72169E+03 -3.41322E+02
  1.46089E+03 -5.59929E+03  1.13700E+04  2.13781E+03  7.39946E+03  8.87567E+02  2.63418E+03  9.13912E+03
  1.74397E+03  2.62624E+03 -3.82340E+02  7.32079E+03  6.63797E+03 -1.58791E+03 -3.44403E+03 -1.90115E+03
 -5.42568E+02 -3.07490E+03 -1.27819E+03  1.49962E+03 -6.00291E+03  8.30868E+03  5.68779E+02 -1.93597E+01
 -2.22011E+03 -8.13857E+03 -1.39294E+03 -1.61181E+03  4.03256E+03 -1.84731E+03  1.33769E+03 -5.60759E+03
 -3.90280E+03  1.94151E+03  1.88965E+03  3.58261E+03  1.88021E+01  4.77917E+03 -4.85420E+03  2.18991E+03
