 $NMID ID='MM_0lb_SNR50_11hz_g60_35.RAW', FMTDAT='(8E13.5)'
 TRAMP=1., VOLUME=1. $END
  3.09140E+05  5.42226E+03  3.40701E+05  2.50719E+05  8.76812E+04  3.37363E+05 -1.35937E+05  2.51362E+05
 -1.94467E+05  8.54773E+04 -1.14369E+05 -3.41539E+04  1.30828E+02 -4.82469E+04  4.94229E+04  2.04027E+03
  3.94338E+04  5.91967E+04 -1.91716E+04  7.44697E+04 -5.82510E+04  6.31949E+04 -8.51249E+04  3.95430E+04
 -7.53273E+04 -1.47934E+04 -5.92191E+04 -5.54101E+04 -1.69739E+04 -6.51442E+04  2.36374E+04 -4.81992E+04
  3.76212E+04  5.51155E+03  1.40778E+04  4.69246E+04 -3.43279E+04  4.27999E+04 -7.20517E+04  1.32736E+03
 -5.55601E+04 -5.04280E+04 -9.97446E+02 -8.29090E+04  2.79233E+04 -5.73367E+04  5.16223E+04 -1.26349E+04
  4.59267E+04  8.80795E+03  3.21549E+04  2.28603E+04  1.69326E+04  3.23021E+04 -9.66143E+03  3.16691E+04
 -2.49330E+04  1.23100E+04 -1.97896E+04 -4.36513E+03  9.42969E+03 -4.65009E+03  2.49256E+04  1.91371E+04
  9.21235E+03  3.50479E+04 -3.06255E+04  3.37751E+04 -6.83554E+04 -9.67347E+01 -6.06331E+04 -4.47837E+04
 -9.43538E+03 -6.66982E+04  3.97776E+04 -5.16787E+04  6.11394E+04 -1.27882E+04  3.51859E+04  3.97393E+04
 -6.43434E+03  3.99341E+04 -3.23232E+04  1.80840E+04 -3.70542E+04 -2.51212E+03 -1.99177E+04 -1.40978E+04
 -9.83523E+03 -1.22317E+04 -2.13149E+03 -1.82009E+04  7.07584E+03 -1.97175E+04  1.11551E+04 -1.60290E+04
  1.45001E+04  1.07518E+04 -4.49614E+03  8.50522E+03 -2.44090E+04 -6.41259E+03 -9.69505E+03 -3.42827E+04
  1.93206E+04 -4.64815E+04  5.44168E+04 -2.04616E+04  5.50277E+04  1.96703E+04  1.93632E+04  4.82065E+04
 -1.64278E+04  3.39479E+04 -2.66786E+04  3.06070E+03 -6.60176E+03 -3.00383E+04  2.02143E+04 -3.59523E+04
  4.04783E+04 -9.96296E+03  4.35944E+04  2.85928E+04  2.12332E+04  5.59349E+04 -9.08828E+03  5.39221E+04
 -3.18093E+04  3.82708E+04 -4.61880E+04  1.32424E+04 -4.64097E+04 -1.35339E+04 -2.28204E+04 -4.76830E+04
  9.49230E+03 -4.57728E+04  2.71200E+04 -1.58616E+04  2.87817E+04  9.80109E+03  1.10143E+04  2.08042E+04
 -1.35474E+04  8.59270E+03 -1.00072E+04 -8.50110E+03  3.10730E+03 -9.00015E+03  1.49139E+04  1.07018E+04
  1.19569E+04  1.88044E+04  2.40889E+03  2.62519E+04 -2.33778E+04  1.86310E+04 -2.91083E+04 -3.66567E+03
 -2.40043E+04 -2.05096E+04 -1.79506E+04 -2.52067E+04 -8.29374E+03 -2.15480E+04  2.12031E+04 -2.37707E+04
  2.78599E+04 -2.20936E+04  3.42573E+04  3.80111E+03  2.45255E+04  2.63453E+04  6.45825E+03  3.77843E+04
 -1.76954E+04  3.18699E+04 -2.94023E+04  9.48520E+03 -1.93912E+04 -7.75939E+03 -5.18552E+03 -1.48419E+04
 -1.54681E+03 -2.15269E+03 -5.94792E+03  8.91841E+03 -2.44601E+04  7.15264E+03 -1.85150E+04 -8.96086E+03
 -7.97405E+03 -2.15883E+04  6.00513E+03 -2.86590E+04  1.93814E+04 -2.31382E+04  2.17627E+04  8.66124E+02
  8.51883E+03  1.47433E+04 -5.54559E+03  2.77903E+04 -1.73012E+04  1.29719E+04 -2.19172E+04 -1.10788E+04
 -1.86619E+04 -1.60020E+04 -4.81123E+03 -2.79651E+04  1.38869E+04 -2.13810E+04  2.05713E+04 -8.36132E+03
  1.85524E+04  6.27361E+02  1.41839E+04  9.13283E+03  7.91298E+03 -6.33026E+03  1.08925E+04  4.43394E+03
  2.28555E+04  7.09094E+02  2.24610E+04  2.10522E+04  1.41795E+04  3.30243E+04 -7.72005E+03  4.18547E+04
 -3.27108E+04  3.82404E+04 -3.14701E+04  1.90410E+04 -4.45951E+04 -1.25256E+03 -3.30157E+04 -3.09456E+04
 -1.54685E+04 -3.55084E+04  1.11998E+04 -3.21862E+04  2.51889E+04 -1.35314E+04  2.32506E+04  1.19397E+04
  9.29700E+03  2.07423E+04 -9.88022E+03  1.37058E+04 -1.52025E+04  4.65590E+01 -1.10137E+04 -1.23113E+04
  1.65004E+03 -1.98800E+04  1.05696E+04 -1.28469E+04  1.14248E+04 -2.15056E+02  4.05597E+03  4.94303E+03
 -8.32038E+03  4.50381E+03 -4.73331E+03 -9.30282E+03 -2.31062E+03 -2.35365E+04  1.48823E+04 -1.98546E+04
  2.31577E+04 -1.21660E+04  2.53711E+04  3.10974E+03  1.58770E+04  1.73587E+04  8.58979E+03  3.03243E+04
 -2.56316E+03  2.98735E+04 -2.41137E+04  1.92072E+04 -2.46946E+04  1.56845E+03 -2.01728E+04 -6.18407E+03
 -6.65540E+03 -4.89842E+03 -7.64467E+02  4.89596E+03  6.27508E+02  4.47090E+03 -9.19875E+03  4.84168E+03
 -8.52391E+03 -4.69728E+03 -1.81086E+04 -1.57021E+04 -1.12014E+04 -2.06109E+04  4.08316E+03 -1.58878E+04
  7.49650E+03 -1.30665E+03  9.70714E+03  3.74455E+03 -5.14625E+03  4.86988E+03 -6.45015E+03  5.96870E+03
 -3.97218E+03 -5.77782E+03 -4.13553E+03 -2.01238E+04  1.05030E+04 -1.22325E+04  2.09710E+04 -1.31528E+04
  2.02893E+04  2.91421E+03  1.60958E+04  1.12700E+04  1.22777E+02  1.66124E+04 -1.07405E+04  1.21827E+04
 -1.45322E+04  4.43039E+03 -8.10464E+03 -1.65343E+03  3.06148E+03 -3.87102E+03  5.40899E+03  1.79790E+03
  3.86669E+03  9.48962E+03  5.57604E+03  1.42395E+04 -1.08268E+04  1.46385E+04 -1.89414E+04  5.44003E+03
 -1.15198E+04 -4.44639E+03  1.88835E+03 -1.18044E+04  1.37801E+04 -7.93914E+03  3.63452E+03  7.27231E+03
 -1.44140E+03  1.08054E+04 -6.52814E+03  1.28748E+04 -7.53302E+03  2.79002E+03 -1.39225E+04 -2.47917E+03
 -4.52091E+03 -1.34882E+04  3.08798E+03 -1.28850E+04  1.85168E+04 -4.96715E+03  1.76014E+04  3.59671E+03
  5.54659E+03  1.43876E+04  4.17332E+03  1.74106E+04 -2.74173E+03  1.55786E+04 -1.11465E+04  9.61582E+02
 -7.33508E+03 -1.00737E+04 -1.20627E+03 -4.90638E+03  3.82462E+03 -1.26961E+04  8.25942E+03 -2.25650E+03
  7.70948E+03  2.13210E+03  4.19646E+03  2.46833E+03  1.12510E+03 -1.47776E+03  2.51402E+02 -8.35021E+03
  1.35313E+04 -5.43096E+03  2.05145E+04  6.40147E+03  1.74499E+04  1.19130E+04  6.06867E+03  2.02200E+04
 -5.33414E+03  2.02495E+04 -1.48105E+04  1.76930E+04 -2.86074E+04  5.21355E+03 -2.28737E+04 -7.63338E+03
 -1.48890E+04 -2.27781E+04 -2.31926E+03 -1.20456E+04  3.04821E+02 -5.10529E+03  4.34798E+03 -3.26928E+02
  5.41064E+02  1.48396E+03  1.49434E+03 -4.95893E+03  8.07603E+03 -8.66353E+02  9.52526E+03 -5.74439E+03
  1.24293E+04  1.63119E+03  5.23623E+03  1.24833E+04 -4.68752E+03  6.48858E+03 -1.30145E+04  1.06315E+04
 -1.73277E+04  5.91683E+03 -9.85484E+03 -1.08727E+04  5.69735E+03 -1.61618E+04  8.44200E+03 -1.17500E+04
  1.70485E+04 -9.84258E+03  2.17677E+04  7.82328E+02  1.57872E+04  9.84676E+03  6.75921E+03  1.06764E+04
 -1.12794E+04  1.47988E+04 -8.23340E+03  6.32374E+03 -6.93357E+03 -1.01240E+03 -1.92668E+03 -1.33451E+03
  3.20991E+03 -7.17755E+03  2.98813E+03  3.35245E+03 -2.73956E+03  2.55243E+03 -7.92491E+03 -4.70229E+03
 -2.89959E+03 -1.62855E+04 -6.39540E+03 -1.48571E+04  1.01364E+04 -1.15210E+04  8.10707E+03  2.68142E+02
  8.74828E+03  1.34105E+03  1.38987E+04  1.18278E+04  1.65236E+03  1.26416E+04 -1.23335E+04  3.45200E+03
 -1.01772E+04 -4.32972E+03 -1.19220E+04 -8.27963E+03  5.03144E+03 -1.52331E+04  5.27731E+03 -8.06029E+03
  4.27305E+03 -4.06416E+03  4.42852E+03  4.22127E+03  3.02192E+03  5.35763E+03  1.57206E+03  1.91087E+03
  2.41287E+03 -3.77857E+03  3.59984E+03  1.14911E+03  3.10209E+03  5.49312E+03  5.45623E+03  1.04968E+04
 -2.00922E+02  1.43308E+04 -2.76393E+03  3.65434E+03 -1.65193E+04  5.57987E+03 -8.68727E+03 -5.03177E+03
 -3.03361E+03 -1.18553E+04 -1.70490E+03 -1.97071E+04  8.77949E+03 -8.69414E+03  1.22300E+04 -8.07661E+03
  1.03494E+04  1.16370E+04  5.50226E+03  1.68986E+04 -8.50790E+03  1.48500E+03 -5.45276E+03  3.75315E+02
 -4.71820E+03 -7.80450E+03  2.20187E+03 -7.24835E+03  2.07266E+03 -3.98613E+03  3.22038E+03  2.29122E+03
 -1.06992E+03  2.89927E+03 -1.91040E+03  3.60733E+03 -5.34524E+03  5.11029E+03  3.57712E+03 -1.68393E+02
  3.68919E+02 -2.34339E+03  6.27285E+03 -1.21900E+03  4.36916E+03  7.01102E+03 -1.17071E+03  1.18873E+04
 -1.03272E+04  7.15953E+03 -7.89033E+03  2.53160E+03 -1.17620E+04  7.87194E+02 -4.39238E+03 -2.91149E+03
  2.58622E+02 -5.75070E+03  2.34349E+03 -7.74525E+02 -7.86932E+02  4.43580E+02 -5.03461E+03  8.11646E+03
 -8.52926E+03  2.17963E+03 -1.11508E+03 -3.31156E+03  1.99380E+02 -9.99137E+03 -2.23583E+03 -7.95497E+03
  8.65681E+03 -1.04524E+04  1.36499E+04 -6.72211E+03  5.33632E+03  3.11821E+03  3.25591E+03  3.29612E+03
 -2.91476E+03  6.09786E+02 -6.97014E+03 -7.36721E+03  4.79119E+03 -2.22049E+03  1.60428E+03 -2.70592E+03
  1.14895E+04  1.05305E+03  1.00040E+04  2.70377E+03  6.77159E+03  9.86322E+03 -6.14979E+03  1.27079E+04
  6.59637E+02  9.54846E+03 -2.62391E+03 -6.87138E+03 -4.29896E+02  4.32535E+03  1.85577E+03 -4.21791E+03
  5.21957E+03 -7.41391E+03  4.17504E+03  2.92301E+03 -4.73630E+03  4.12448E+03 -4.48718E+03  3.13017E+03
 -1.00748E+04 -9.73492E+02  9.67635E+02  1.38921E+03  2.44219E+03 -5.03461E+02 -3.97599E+03 -1.62562E+03
  3.82753E+03  4.95416E+03 -3.10457E+03  3.57194E+03 -7.06534E+03  2.59220E+03 -5.82922E+03 -3.89779E+03
 -6.06156E+03 -1.41746E+04  3.02548E+03 -1.46580E+04  1.00629E+04 -9.75327E+03  4.08535E+03 -5.82201E+03
  1.25565E+04  7.39600E+02  1.70620E+03  7.62767E+03 -1.21337E+03  7.43806E+03  1.52774E+03  9.10153E+03
 -9.34782E+02  7.56250E+03  3.37144E+03  2.38405E+03  1.86940E+02  1.69523E+03  2.87914E+03  3.12733E+03
  7.39184E+02 -2.38192E+03  2.46866E+02  4.15314E+03 -4.56361E+03 -3.14577E+01  4.94340E+03 -7.05063E+03
  7.98627E+02 -1.48311E+02  4.15150E+03  1.02090E+03  6.25413E+01  2.17068E+03  6.96530E+02  4.66163E+03
 -2.77056E+03  8.29638E+03 -8.72433E+03  1.14853E+03 -6.98037E+03  1.68863E+03 -1.04922E+04 -8.91636E+03
 -7.84116E+03 -6.48656E+03  1.45787E+03 -9.23561E+03  4.42521E+03  2.01002E+02  6.55503E+03 -5.04263E+03
  7.95388E+02  1.93477E+03  1.23270E+02 -1.89589E+03  7.25957E+02  1.45716E+03  6.62547E+03 -8.64160E+01
 -6.89317E+01  2.11572E+03  5.14179E+02  3.19810E+03 -8.47538E+02 -7.19001E+02  9.21871E+02  8.41556E+03
 -2.21304E+03 -5.98736E+01 -5.12656E+03 -1.19720E+03 -5.78365E+03  7.41062E+02  2.36435E+03 -3.80121E+03
  2.16936E+03 -4.95057E+03  9.74302E+03 -1.23516E+03  8.01055E+03  1.28741E+02  3.62722E+03  3.79142E+03
  1.38227E+03  1.81847E+03 -8.16380E+01  3.15796E+03  7.36763E+02  2.93426E+03  3.86793E+03 -1.26428E+03
  5.92116E+03 -3.15732E+03  1.96023E+03 -1.09971E+03  8.81210E+02 -2.02564E+03 -1.67681E+03 -5.56072E+03
  1.68303E+03 -2.01617E+02 -5.57804E+03 -4.96967E+03  4.55986E+03 -2.89965E+03  4.68886E+03  6.51835E+02
 -4.44086E+03 -2.08344E+03  5.50859E+03  5.47897E+03  7.32156E+02  4.09073E+03 -1.80563E+03  4.69966E+03
