 $NMID ID='MM_0lb_SNR50_16hz_g60_47.RAW', FMTDAT='(8E13.5)'
 TRAMP=1., VOLUME=1. $END
  3.07364E+05 -2.56993E+03  3.33608E+05  2.50755E+05  8.47011E+04  3.38371E+05 -1.34099E+05  2.50782E+05
 -1.92797E+05  8.44664E+04 -1.14195E+05 -3.37752E+04  1.33869E+03 -5.03717E+04  5.02367E+04 -1.88120E+03
  3.60983E+04  4.88284E+04 -1.62852E+04  7.45516E+04 -6.45063E+04  6.56900E+04 -8.57297E+04  3.40163E+04
 -8.30338E+04 -1.34715E+04 -5.87068E+04 -4.51829E+04 -1.10207E+04 -6.80707E+04  2.29535E+04 -4.98351E+04
  3.67346E+04  2.57122E+03  1.68969E+04  4.57119E+04 -3.11324E+04  4.68036E+04 -6.53081E+04  2.69377E+03
 -5.48759E+04 -5.99161E+04 -4.75155E+03 -8.04703E+04  3.09828E+04 -5.69553E+04  5.13010E+04 -1.50301E+04
  4.34892E+04  7.24097E+03  3.32036E+04  2.03772E+04  1.21097E+04  3.05601E+04 -6.90459E+03  2.99114E+04
 -2.65953E+04  1.38071E+04 -2.11936E+04 -5.39239E+03  2.77064E+03 -2.79185E+03  1.51803E+04  1.16610E+04
  7.87782E+03  3.47782E+04 -2.83501E+04  3.32222E+04 -6.14638E+04  1.88590E+03 -5.78524E+04 -4.62986E+04
 -1.11838E+04 -6.31518E+04  3.94707E+04 -4.41698E+04  5.66052E+04 -2.53539E+03  3.53958E+04  3.23770E+04
 -1.00042E+04  3.89121E+04 -3.24287E+04  1.75817E+04 -2.89578E+04 -7.07373E+03 -1.61366E+04 -1.40627E+04
 -1.08481E+04 -1.23537E+04 -2.71169E+03 -2.16203E+04  8.20568E+03 -1.92623E+04  1.54955E+04 -1.15734E+04
  1.54183E+04  2.91971E+03 -3.67116E+03  1.44498E+04 -1.82864E+04 -1.16696E+03 -7.58344E+03 -3.72195E+04
  2.04146E+04 -4.30822E+04  4.94329E+04 -2.07058E+04  5.09796E+04  1.73766E+04  1.70436E+04  4.67696E+04
 -1.38529E+04  3.58940E+04 -2.64871E+04 -4.37920E+03 -1.25102E+04 -3.06735E+04  2.23560E+04 -3.22938E+04
  3.79533E+04 -8.58738E+03  3.64413E+04  2.49211E+04  2.05299E+04  4.26828E+04 -1.35682E+04  5.16886E+04
 -3.29340E+04  3.86495E+04 -4.28897E+04  1.11597E+04 -4.49476E+04 -1.95513E+04 -2.59005E+04 -3.72288E+04
  6.45162E+03 -3.94060E+04  3.35205E+04 -1.09059E+04  2.82600E+04  9.14967E+03  2.26280E+03  2.24854E+04
 -1.57331E+04  2.32268E+03 -1.02287E+04 -5.02612E+03  4.31767E+03 -1.43690E+04  1.28761E+04  4.00663E+03
  1.40858E+04  2.65517E+04 -1.02891E+03  2.03456E+04 -2.28158E+04  1.47548E+04 -2.53762E+04 -6.42882E+03
 -2.16772E+04 -1.58099E+04 -4.90701E+03 -1.86863E+04  1.11066E+03 -1.74852E+04  1.42579E+04 -1.96996E+04
  2.35032E+04 -1.45628E+04  3.37854E+04  3.69354E+03  2.26565E+04  1.89863E+04  3.40184E+03  3.63368E+04
 -1.55132E+04  2.69412E+04 -2.38255E+04  1.06196E+04 -2.04778E+04 -1.12871E+04 -1.23260E+03 -1.34297E+04
  2.25814E+03 -2.66467E+03 -5.17003E+03  4.89552E+03 -1.61248E+04  2.68572E+03 -1.77973E+04 -4.19805E+03
 -9.95178E+03 -1.52137E+04  4.85382E+03 -2.50940E+04  1.72791E+04 -1.48243E+04  2.02451E+04 -5.98741E+02
  7.33673E+03  6.80245E+03 -4.29468E+01  1.78245E+04 -1.11919E+04  1.60453E+04 -1.64541E+04 -2.95072E+03
 -1.36333E+04 -1.59669E+04 -2.15565E+02 -2.16080E+04  1.24908E+04 -2.24895E+04  1.55026E+04 -1.02613E+04
  1.59720E+04  3.63242E+03  1.00368E+04  1.94769E+03  6.85967E+03  5.33610E+03  1.30577E+04 -3.87820E+03
  1.35188E+04 -2.07819E+03  1.84740E+04  1.80705E+04  9.81077E+03  2.96763E+04 -3.36923E+03  3.06045E+04
 -1.86281E+04  2.73676E+04 -3.41892E+04  1.27930E+04 -2.83354E+04  1.91125E+03 -2.65939E+04 -1.78823E+04
 -1.39381E+04 -2.39445E+04  1.07489E+04 -2.56166E+04  1.91509E+04 -1.53143E+04  1.69068E+04  6.28687E+03
  4.59568E+03  1.34987E+04 -1.16345E+04  1.18935E+04 -1.49092E+04  3.09390E+03 -1.16648E+04 -1.03286E+04
 -1.33231E+03 -1.46417E+04  1.02796E+04 -1.36743E+04  1.24442E+04  1.95952E+02  4.21178E+02  4.50301E+03
 -9.22188E+03 -7.55020E+02 -7.70700E+03 -4.37476E+03  2.69728E+02 -9.81141E+03  9.45997E+03 -1.64740E+04
  1.45101E+04 -8.82277E+03  1.99253E+04  2.31374E+02  1.02425E+04  1.38919E+04  1.02521E+04  1.69749E+04
 -2.69700E+03  2.11781E+04 -1.37500E+04  1.10948E+04 -1.67019E+04  1.69186E+03 -9.85999E+03 -1.21145E+02
 -4.24286E+03 -4.48705E+03 -3.69722E+03 -1.76593E+03  5.73299E+02 -3.27647E+03 -9.62703E+03  5.40456E+03
 -6.92926E+03 -8.40884E+02 -1.04446E+04 -8.11764E+03 -1.10401E+03 -1.16390E+04  2.84399E+03 -8.40573E+03
  9.33909E+03 -6.45295E+03  7.17116E+03  6.45442E+02  6.58455E+02  6.12292E+03 -5.84372E+03  4.59231E+03
 -6.21428E+03 -7.25971E+03 -1.36505E+03 -1.18518E+04  5.96157E+03 -9.66331E+03  1.40893E+04 -4.78258E+03
  1.58919E+04  3.38488E+03  1.04354E+04  1.03340E+04  7.53531E+03  1.01368E+04 -4.78816E+03  1.12313E+04
 -7.41005E+03  4.38315E+03 -8.93176E+03 -1.26574E+03  4.37337E+03  1.16225E+02  3.02929E+03 -2.73622E+03
  6.50864E+03 -2.54206E+02  3.39750E+03  8.38836E+03 -7.41655E+03  9.47866E+03 -1.05612E+04  2.06447E+03
 -3.15066E+03 -3.38153E+03 -2.97682E+03 -9.51362E+03  4.13550E+03 -6.98508E+03  5.41285E+03  1.88845E+03
 -4.08257E+03  2.33144E+03 -7.10128E+03  8.84101E+03 -1.09748E+04 -7.36066E+02 -5.55507E+03 -1.13669E+03
 -3.34424E+03 -1.37651E+04  4.04372E+03 -1.11600E+04  9.81670E+03 -7.24558E+03  7.63707E+03  2.02514E+03
  3.52909E+03  9.30173E+03  2.13725E+02  9.00071E+03 -1.04524E+04  4.00070E+03 -4.56823E+03 -4.77089E+02
 -8.67687E+03 -3.86425E+03  4.05534E+03 -1.00402E+04  1.43950E+03 -7.72791E+03  3.32746E+03 -4.35832E+03
 -1.57028E+02  2.10728E+03  6.21106E+03 -3.42163E+02  3.05390E+02 -1.83711E+03  1.63314E+03 -7.15562E+03
  8.67292E+03 -1.19005E+03  9.58836E+03  2.29560E+02  8.89186E+03  2.57749E+03  3.19181E+03  1.17351E+04
 -2.83595E+03  1.65642E+04 -1.12144E+04  4.45814E+03 -1.33492E+04 -1.29163E+03 -8.39892E+03 -6.85730E+03
 -3.49664E+03 -9.86640E+03  6.36065E+03 -6.95171E+03  4.83370E+03  9.45653E+02  2.84020E+03 -6.26861E+03
  2.51917E+03 -6.03055E+03  5.23178E+03 -5.20389E+03  2.76153E+03 -2.33270E+03  1.35658E+03 -9.33302E+01
  2.87300E+03  4.91410E+03  8.78434E+02  7.51704E+03 -2.27801E+03  3.34787E+03 -8.43683E+03  3.77320E+03
 -7.71676E+03 -4.90508E+03 -1.91386E+03 -1.84585E+03 -1.99872E+03 -8.91017E+03  1.75225E+03 -6.11138E+03
  4.42194E+03 -4.01177E+03  1.16787E+04 -2.10861E+03  9.32600E+03  6.97878E+03  1.71442E+03  9.94431E+03
 -6.10798E+03  5.47789E+03 -3.01595E+03  4.56969E+03  5.97588E+02 -4.20318E+03 -1.91632E+03  9.61447E+02
 -2.61706E+03  1.20556E+03  3.35161E+03  1.76326E+03 -4.28242E+03  4.42802E+03 -9.71804E+03 -6.06751E+03
 -4.12864E+03 -1.46259E+03 -3.07432E+03 -6.37690E+03  3.96609E+03 -3.78011E+03  4.71468E+03 -1.26037E+03
  7.67651E+03  8.90357E+03  5.12186E+03  5.80338E+03 -3.15765E+03  4.33694E+03 -2.68786E+03  9.80434E+02
 -5.53673E+03  5.06733E+03 -4.04051E+03 -5.00198E+03  3.86920E+01 -7.58902E+03  1.66931E+02 -1.27743E+03
  7.82031E+03 -3.38374E+03  5.71762E+03  1.71531E+03 -9.05446E+02 -9.53176E+02  4.57775E+03  5.74869E+02
  5.74359E+03 -1.68988E+03 -2.29767E+02  3.87572E+03  2.82057E+03  5.08662E+03  4.31599E+03  6.79603E+03
 -8.70817E+02  1.41695E+03 -4.96069E+03  1.90686E+03 -3.76739E+03  1.76731E+03 -2.73192E+03 -3.82616E+03
 -2.73928E+03 -4.17269E+03  2.72627E+03 -1.31724E+04 -1.36905E+03 -8.84043E+03  8.00172E+03 -4.47782E+03
 -1.21967E+03  3.41282E+03  8.97765E+02  3.51630E+03 -3.76538E+03  2.03889E+03 -3.26441E+03  8.68345E+00
 -3.09615E+03 -2.02093E+03  3.06859E+03 -6.13455E+02  6.16482E+03 -2.94148E+03  1.46103E+03  1.29592E+03
 -1.81994E+03  8.40105E+02  2.90894E+03 -9.79874E+02 -1.96234E+03 -5.06109E+03  2.34788E+03  1.72684E+03
 -5.93247E+02 -6.98365E+02  6.68968E+02  3.04958E+03  5.01336E+03 -2.20718E+03 -5.24709E+03  7.16948E+02
 -3.20071E+03  4.24554E+03 -1.45454E+03 -5.12776E+03 -1.43924E+03 -1.89867E+03  1.60666E+03 -3.19400E+03
  4.99661E+03 -2.52072E+03 -3.31912E+03 -4.44364E+02  3.56616E+03  3.28083E+02  2.32207E+03  2.29880E+03
 -5.10207E+03 -1.37411E+03  6.31943E+02 -1.46662E+03 -2.06522E+03 -5.28394E+03 -1.49882E+03 -2.38707E+03
  1.59395E+03 -1.29134E+03  3.59376E+03 -1.50412E+03  4.14324E+03  6.31271E+02 -3.76774E+03 -2.95663E+01
  5.10143E+03 -3.02597E+03 -6.91569E+03 -1.24367E+03 -3.78352E+03 -2.35401E+03  1.11216E+03 -1.83797E+03
  2.21558E+03  1.02709E+03  1.84041E+03  5.51523E+03  1.24933E+03  1.12278E+04  3.72339E+03  3.17137E+03
 -2.25261E+03  2.18841E+03 -1.23998E+03 -3.46016E+03  4.16072E+03  1.82062E+03  7.00457E+01 -1.15371E+03
 -1.69370E+02  1.06791E+02 -2.26439E+03 -3.21312E+03 -3.17914E+02  4.34625E+03  1.18923E+03  8.01882E+02
 -2.02879E+03  4.91380E+03 -2.84345E+02 -5.17808E+03 -1.52096E+03  6.12344E+02  1.60063E+03  1.73513E+03
  3.21787E+03 -2.00487E+02 -4.23632E+03 -2.81690E+02 -2.93743E+03  3.38357E+03 -5.69865E+03  1.26260E+03
 -4.34053E+03 -3.84405E+01  1.26778E+03 -5.89697E+03  5.07092E+02 -2.53538E+03  7.54161E+03 -2.90684E+02
  1.95597E+03 -7.47874E+02  2.20381E+03  3.60325E+03 -7.84460E+03  1.49658E+03 -2.65561E+03  2.72078E+03
 -3.81691E+03  1.83138E+03 -3.87111E+03 -3.61900E+02  4.35175E+02  3.02236E+03 -1.67401E+03 -5.86890E+03
 -1.53183E+03 -1.31644E+03  4.12120E+02 -2.60534E+03  8.30171E+02  1.13854E+03  4.39694E+02 -1.49735E+03
 -1.35802E+03  3.16787E+03 -8.13948E+02  3.90389E+03  1.57864E+03 -5.32270E+03  3.68990E+03 -4.61771E+02
 -2.47701E+03  5.83243E+02 -4.79605E+03  2.37898E+03 -5.01557E+03 -1.02060E+03 -2.15584E+03 -2.05244E+03
  2.94768E+03 -5.76006E+03  2.03775E+02 -3.58331E+03  3.72182E+03 -5.95673E+02  3.85611E+03  2.36495E+01
  2.45455E+03  2.11448E+03 -1.68337E+03 -8.32289E+02  1.74989E+01 -1.73710E+03 -6.21605E+03 -1.65679E+03
  5.29596E+03  1.99371E+03  1.00862E+03 -3.04960E+03 -1.01463E+03 -5.29752E+02  2.67570E+03 -2.00024E+03
 -3.26268E+03  1.57183E+03 -3.96543E+03 -5.84566E+02 -1.60458E+03  1.48956E+03 -1.82336E+03 -9.26051E+02
  1.44590E+03 -3.30175E+03  4.49956E+03  7.98551E+02  1.42566E+03 -2.07139E+03  6.72638E+02  5.10266E+03
  3.55597E+03 -4.02263E+03 -3.32999E+03  8.97797E+02 -2.68960E+03  2.39431E+03 -7.29202E+02  3.04911E+03
  1.72540E+03  1.40781E+03 -2.32783E+03 -1.70659E+03 -2.38913E+03  1.90834E+03 -4.08847E+03 -1.05586E+02
  2.00080E+03 -2.63166E+03 -3.35414E+03 -1.62172E+03 -1.01043E+03 -6.39230E+03 -1.90902E+03  2.16012E+03
  3.56205E+03  7.71394E+02 -4.16522E+02  2.57510E+03 -1.37140E+02 -1.99680E+03  1.47409E+03  7.08652E+03
