 $NMID ID='MM_0lb_SNR50_11hz_g40_53.RAW', FMTDAT='(8E13.5)'
 TRAMP=1., VOLUME=1. $END
  3.08912E+05 -2.45653E+03  3.37880E+05  2.54237E+05  8.74054E+04  3.36285E+05 -1.27178E+05  2.51926E+05
 -1.93375E+05  8.44700E+04 -1.14663E+05 -2.90141E+04 -1.49380E+02 -5.06117E+04  5.28946E+04  1.09221E+03
  3.58176E+04  5.76168E+04 -2.03238E+04  7.85661E+04 -5.79148E+04  6.34926E+04 -8.32796E+04  2.82720E+04
 -8.17974E+04 -8.61002E+03 -5.97378E+04 -5.67961E+04 -1.76813E+04 -6.73709E+04  2.95869E+04 -4.99932E+04
  3.82424E+04  1.05624E+03  2.08522E+04  4.45313E+04 -3.65509E+04  4.66693E+04 -6.57589E+04 -4.08615E+03
 -5.54274E+04 -5.69362E+04 -6.80482E+03 -8.04975E+04  3.44955E+04 -5.39646E+04  4.59914E+04 -1.93405E+04
  4.08524E+04  9.90727E+03  3.30924E+04  2.79554E+04  1.39625E+04  3.38683E+04 -4.19100E+03  2.18282E+04
 -2.97772E+04  6.64705E+03 -1.81245E+04 -3.14112E+03  2.03326E+03 -5.31257E+03  2.20433E+04  1.25721E+04
  7.89110E+03  3.41615E+04 -2.88071E+04  3.30279E+04 -6.20426E+04  5.81178E+03 -5.29263E+04 -4.38193E+04
 -1.45902E+04 -5.83925E+04  4.02104E+04 -4.42289E+04  5.24436E+04 -4.17691E+03  3.43410E+04  2.77552E+04
 -6.48592E+03  3.62387E+04 -3.35611E+04  1.86752E+04 -4.05583E+04 -8.91918E+02 -1.72814E+04 -1.47803E+04
 -7.36132E+03 -1.60212E+04 -6.60410E+02 -2.15024E+04  9.42604E+03 -2.25544E+04  1.45134E+04 -1.51059E+04
  9.86653E+03  8.22508E+03 -3.24102E+03  1.33937E+04 -2.47569E+04 -1.42734E+04 -1.85176E+04 -3.00101E+04
  2.07067E+04 -4.32862E+04  5.07564E+04 -1.87713E+04  4.64230E+04  2.02316E+04  1.86819E+04  4.43806E+04
 -1.64506E+04  3.69465E+04 -2.93133E+04  4.41043E+03 -1.05475E+04 -3.37331E+04  1.99211E+04 -3.59894E+04
  4.28083E+04 -8.41170E+03  4.03671E+04  2.29995E+04  1.61386E+04  4.41078E+04 -1.03259E+04  5.15701E+04
 -3.28087E+04  3.29199E+04 -4.32047E+04  1.23659E+04 -3.96575E+04 -1.68081E+04 -2.37501E+04 -4.25534E+04
  5.58752E+03 -3.76450E+04  3.36708E+04 -1.62848E+04  3.52670E+04  4.61022E+03 -3.90183E+02  2.16085E+04
 -1.23278E+04  9.74943E+03 -8.73597E+03 -3.43236E+03  1.09450E+04 -1.08499E+04  1.76241E+04  5.87337E+03
  1.13960E+04  2.54231E+04 -5.18523E+03  2.80556E+04 -1.97917E+04  9.67399E+03 -3.00324E+04 -3.47327E+03
 -2.46212E+04 -1.83542E+04 -1.20413E+04 -1.76597E+04  6.84297E+03 -2.48497E+04  1.65566E+04 -2.07581E+04
  2.43062E+04 -1.04313E+04  3.33506E+04  4.52333E+03  3.36904E+04  2.18930E+04  1.38043E+03  3.59474E+04
 -1.80083E+04  3.27579E+04 -3.07086E+04  5.56733E+03 -2.10365E+04 -1.08925E+04 -4.65101E+03 -1.14592E+04
  1.90652E+03 -1.01980E+03 -6.26443E+03  7.16618E+03 -1.45863E+04  6.92915E+03 -1.70840E+04 -1.13253E+04
 -6.87293E+03 -2.14891E+04  3.88277E+03 -2.84918E+04  1.82795E+04 -1.56379E+04  1.99487E+04 -2.24840E+03
  1.60651E+04  1.60513E+04 -5.85872E+03  1.62251E+04 -1.00026E+04  7.60058E+03 -2.13594E+04 -4.26301E+03
 -1.77487E+04 -2.28293E+04 -2.02256E+03 -2.27739E+04  1.30262E+04 -1.56627E+04  2.43501E+04 -1.01705E+04
  1.98190E+04  4.87191E+03  1.30804E+04 -1.71904E+02  7.47404E+03 -1.34313E+03  1.48393E+04 -4.09577E+03
  2.12887E+04  2.90095E+03  1.96738E+04  1.98199E+04  1.00108E+04  3.41802E+04 -3.20118E+03  3.46487E+04
 -1.92376E+04  3.18999E+04 -3.22525E+04  1.94127E+04 -3.94130E+04 -8.97229E+03 -3.51015E+04 -2.81569E+04
 -1.40639E+04 -3.40841E+04  1.34865E+04 -2.80428E+04  2.73549E+04 -1.41754E+04  2.11206E+04  3.32615E+03
  5.37709E+03  1.52453E+04 -5.77139E+03  1.54688E+04 -1.88889E+04 -1.22983E+03 -1.26434E+04 -8.10152E+03
 -5.08351E+02 -1.71307E+04  5.63545E+03 -1.21038E+04  1.43771E+04 -2.87038E+03 -3.55410E+02  8.45339E+03
 -7.95640E+03  3.24007E+03 -6.81445E+03 -6.05309E+03 -4.03590E+03 -1.14205E+04  1.18970E+04 -1.78684E+04
  1.57312E+04 -9.15356E+03  2.33652E+04  3.85065E+03  2.34912E+04  1.25208E+04  9.24667E+03  2.45631E+04
 -7.45236E+03  2.44309E+04 -2.04781E+04  1.26954E+04 -1.73624E+04  1.34737E+03 -6.93738E+03 -6.44047E+03
  1.55013E+03 -1.49546E+03 -1.24619E+03  1.44255E+02 -4.61988E+03  2.97808E+03 -1.19863E+04  1.03055E+04
 -8.41155E+03  3.01613E+03 -1.38849E+04 -1.38748E+04 -3.45478E+03 -2.10476E+04  7.61206E+03 -9.65643E+03
  1.09864E+04 -5.32931E+03  3.09378E+03 -1.00165E+03  4.30857E+03  4.53079E+03 -7.33827E+03 -4.09625E+02
 -5.68662E+03 -6.25872E+03  1.88769E+03 -1.37186E+04  1.47965E+04 -1.35371E+04  1.49103E+04 -7.25809E+03
  1.72486E+04  5.06774E+03  1.28420E+04  9.61449E+03  5.28982E+03  1.09117E+04 -4.41499E+03  1.02374E+04
 -1.43485E+04  9.31753E+02 -1.01531E+04  9.87046E+02  8.65696E+03  2.07933E+03  4.29941E+03 -3.08605E+03
  7.50747E+03  1.51513E+03  2.89431E+03  7.85808E+03 -8.44117E+03  7.78347E+03 -1.38029E+04  5.22428E+03
 -5.29799E+03 -1.67853E+03 -1.97507E+03 -8.84789E+03  8.54590E+03 -1.46202E+04  7.03552E+03  9.29079E+03
  5.14254E+03  5.43681E+03 -1.08781E+04  3.41685E+03 -1.44406E+04  1.62124E+03 -1.19394E+04 -1.29785E+04
 -1.10255E+04 -7.81075E+03  2.55536E+03 -1.50951E+04  1.04362E+04 -1.07000E+04  1.02309E+04  9.00790E+02
  6.08129E+03  1.01085E+04  4.24348E+03  1.16764E+04 -5.60311E+03  7.24209E+03 -8.97701E+03 -2.60126E+03
 -9.38370E+03 -1.21134E+04 -3.60326E+03 -8.56267E+03  6.28346E+03 -5.91048E+03  7.01038E+03 -2.45554E+03
  6.52842E+03 -2.70023E+03  1.24478E+02  5.40628E+03 -2.64628E+03  5.78809E+02  5.19324E+03 -3.83252E+03
  9.04927E+03 -5.82282E+03  1.32161E+04  8.23459E+03  9.14274E+03  8.28983E+03  1.01262E+04  1.55592E+04
 -2.95470E+03  1.40837E+04 -1.26186E+04  1.02858E+04 -1.81201E+04  4.82784E+03 -1.72504E+04 -7.89421E+03
 -7.98922E+03 -1.37980E+04 -1.28624E+03 -8.07277E+03  7.73442E+03 -8.02197E+03  6.36267E+03 -1.89140E+03
  2.77988E+03 -4.80112E+03  3.96445E+03 -5.17269E+03  4.49548E+03 -7.44895E+03  9.17873E+03  1.09522E+03
  9.24406E+03 -1.07630E+03  6.03892E+03  9.67344E+03 -5.88162E+03  7.08174E+03 -5.60483E+03  8.65290E+03
 -1.32369E+04 -3.16486E+03 -4.35227E+03 -7.42252E+03  1.18601E+03 -1.35811E+04  5.97524E+03 -9.80529E+03
  1.35733E+04 -1.04281E+04  1.32803E+04 -3.91463E+03  1.22583E+04  6.64189E+03  4.45907E+03  1.56240E+04
 -4.41805E+03  1.09378E+04 -1.20909E+04  4.19314E+03 -3.82510E+03 -4.13855E+03 -8.88139E+02 -2.10251E+03
 -4.73101E+03  5.69655E+03 -2.25258E+03 -2.23438E+03 -7.07387E+02  4.77455E+03 -1.03944E+04 -8.47657E+02
 -4.51541E+03 -1.03997E+04  1.74501E+03 -8.60341E+03  7.30700E+03 -9.01966E+03  1.04679E+04 -1.08857E+02
  7.04467E+03  2.79634E+03  4.19593E+03  9.08057E+03  9.56768E+02  8.99355E+03 -8.46666E+03  8.17736E+03
 -9.34444E+03 -3.78178E+03 -4.73598E+03 -4.63495E+03 -2.30664E+03 -2.90012E+03  7.24448E+03 -6.65736E+03
  1.72711E+03  7.52035E+02  1.48134E+03  1.32812E+03  3.81316E+03  2.29718E+03 -1.18995E+03  7.31817E+03
 -1.56505E+02  2.49049E+03  9.79816E+02  5.75032E+02  2.08936E+03  9.84558E+02 -1.14859E+03  5.73336E+03
 -1.18337E+04  4.97684E+03 -3.94853E+03  4.78069E+03 -1.50074E+04  9.95876E+02 -9.44274E+03 -7.09865E+03
 -1.03703E+04 -6.73416E+03  2.95138E+03 -9.17000E+03  3.89647E+03 -1.06452E+04  8.05718E+03 -4.43026E+03
  4.85331E+03  7.10174E+03  2.35106E+03  4.10060E+03 -1.95780E+03  5.23997E+03 -5.96957E+03  1.45840E+03
 -1.47157E+03 -3.08295E+03  1.95464E+03 -3.53259E+03  8.18779E+03 -1.03145E+03  6.23989E+03 -2.19935E+03
  2.60617E+03 -1.13040E+03  1.06418E+03 -3.62867E+03 -1.11176E+02  3.09849E+03 -7.21843E+03  3.02413E+03
  7.15960E+03 -3.63045E+03  7.03852E+03  2.64706E+03 -1.12453E+03  7.41129E+03  6.27122E+01  1.53253E+04
 -4.35270E+03 -4.31804E+02 -1.34072E+04  3.34216E+03 -4.38383E+03  1.02907E+03  5.26604E+03 -6.27332E+03
 -2.71547E+03 -3.97908E+03  1.78037E+03 -3.01603E+03  5.26423E+03 -3.36049E+03 -3.37432E+03  1.58249E+03
 -2.84616E+03  4.08409E+03 -6.67983E+03 -4.07192E+03  1.65367E+03 -2.84652E+03  7.57957E+02 -7.37732E+03
  3.34015E+02  9.98753E+02  7.44963E+03 -1.04624E+03  1.42747E+03  7.98729E+03 -4.18472E+03 -4.55628E+02
  6.43741E+02 -3.42519E+03 -3.79795E+03  1.27067E+03  2.25349E+03 -6.60666E+03  1.48315E+02 -6.05032E+03
  7.13428E+03  5.87379E+03  7.74542E+03  3.42576E+03  5.28769E+02  1.97660E+03  2.83889E+03  6.30001E+03
 -1.32227E+03  4.23915E+03 -6.09641E+03  1.93019E+03  9.37883E+01 -3.88511E+03  2.79949E+03 -6.61597E+03
  6.35220E+03 -8.64425E+03 -1.03321E+02  9.14694E+03 -7.08217E+02  2.93058E+03  4.78516E+03  7.81727E+03
 -5.26955E+03  3.09872E+03 -5.01896E+03  4.15644E+03 -3.76399E+03 -1.12454E+03 -2.13554E+03 -1.38022E+03
 -3.32472E+03 -1.69393E+03 -2.33041E+03  1.89514E+03 -8.02945E+03  4.08255E+03 -7.74184E+03 -5.21038E+03
 -1.83127E+03 -6.44894E+03  5.28140E+03 -1.44299E+04 -5.54750E+01 -1.00776E+04  1.11228E+04 -4.91838E+03
  9.85079E+03 -2.78439E+03  6.57422E+03  2.38971E+03  1.45188E+03  6.73544E+03 -6.48092E+03  3.78095E+03
 -2.43866E+03 -5.97683E+03 -2.64655E+03 -2.32986E+03  2.05870E+03  2.10221E+03 -1.89433E+03 -2.78296E+03
  2.50387E+03 -5.46223E+03  3.14277E+03 -9.43034E+02  2.66199E+03 -1.89134E+03  4.96395E+03 -1.04265E+03
  5.56561E+03 -7.09768E+03  1.06913E+02  2.02429E+03  2.05906E+03  2.81845E+03  3.26663E+03  2.94047E+03
 -8.19248E+02  1.59671E+04 -9.71576E+03  3.21370E+03 -7.49454E+03  4.08573E+03 -2.91660E+03 -8.25563E+03
 -3.46789E+03 -6.86250E+03  6.79571E+03 -1.94723E+03  2.99525E+03 -6.80382E+03  1.69620E+03 -2.61047E+03
  2.38132E+03  6.37527E+02  5.02529E+03 -3.44810E+03 -7.55435E+03  3.43987E+03  7.35422E+02  2.98855E+03
  5.12156E+01  2.41311E+03  4.21644E+03 -6.52197E+02 -1.15939E+03  5.35055E+03 -2.13732E+03  2.80979E+03
 -5.60443E+03 -1.14006E+03 -6.10748E+03  3.30475E+03 -3.24101E+03 -5.29920E+03  1.75809E+03 -5.74964E+03
  7.12752E+03  7.00154E+02  6.25505E+03  6.86020E+02  2.71785E+03  2.23637E+03  2.64238E+03 -7.14710E+02
  3.25819E+03  4.81322E+03 -5.96122E+03 -1.99513E+03 -9.16173E+02  1.28089E+04 -2.92409E+03 -7.54552E+02
 -4.12672E+03 -6.20472E+02 -2.07697E+03 -8.28400E+02 -3.57686E+03 -2.09603E+03 -1.51357E+03  2.89353E+02
 -3.34711E+03 -1.62859E+03  1.67287E+03 -3.70317E+02 -2.83612E+03 -7.88663E+03  2.66392E+03 -2.69882E+03
  4.13999E+03  1.35893E+03  3.26301E+03  2.83303E+03  1.77933E+03  5.93334E+03 -3.97283E+03  2.97040E+03
