 $NMID ID='MM_0lb_SNR50_11hz_g45_75.RAW', FMTDAT='(8E13.5)'
 TRAMP=1., VOLUME=1. $END
  3.07134E+05  4.77446E+02  3.38691E+05  2.57060E+05  8.92957E+04  3.34792E+05 -1.23298E+05  2.54178E+05
 -1.92509E+05  8.57627E+04 -1.08315E+05 -3.28975E+04 -1.54094E+03 -4.92568E+04  4.93581E+04  1.58196E+03
  3.46421E+04  5.38576E+04 -1.88409E+04  7.82197E+04 -5.91145E+04  6.65224E+04 -8.47623E+04  3.23225E+04
 -8.29332E+04 -1.35174E+04 -5.90129E+04 -5.10004E+04 -1.41940E+04 -7.05901E+04  2.67474E+04 -4.79359E+04
  3.91923E+04  5.96027E+03  1.78301E+04  5.09909E+04 -3.23763E+04  4.51765E+04 -6.49749E+04 -4.41949E+03
 -6.07235E+04 -5.54964E+04 -6.44815E+03 -7.81994E+04  3.25307E+04 -5.98983E+04  4.40884E+04 -1.69207E+04
  5.12921E+04  1.03434E+04  3.36672E+04  2.59258E+04  1.27045E+04  3.19260E+04 -4.54190E+03  2.63836E+04
 -2.58567E+04  6.54060E+03 -2.09990E+04 -5.22929E+03  4.60384E+03 -9.29919E+03  2.47562E+04  9.38755E+03
  7.33245E+03  3.84990E+04 -3.49177E+04  3.73315E+04 -6.36387E+04  1.11078E+03 -5.63113E+04 -4.42656E+04
 -1.50179E+04 -6.17716E+04  3.84499E+04 -4.92897E+04  6.04323E+04 -3.15265E+03  4.01940E+04  3.44148E+04
 -1.91503E+03  3.59765E+04 -3.41324E+04  1.92003E+04 -3.77905E+04 -9.52154E+03 -2.08462E+04 -1.55288E+04
 -1.00709E+04 -1.26334E+04  3.34610E+03 -1.93721E+04  8.57047E+03 -2.55217E+04  1.68098E+04 -1.28916E+04
  7.09920E+03  1.04816E+04 -1.04459E+04  1.04799E+04 -2.33103E+04 -7.32686E+03 -9.36428E+03 -3.46890E+04
  1.95434E+04 -4.75663E+04  5.10822E+04 -1.70127E+04  4.93165E+04  1.78013E+04  1.96205E+04  4.56099E+04
 -1.36335E+04  3.38973E+04 -2.69754E+04  4.77345E+03 -1.03742E+04 -2.51954E+04  1.55650E+04 -2.90742E+04
  4.29499E+04 -7.34833E+03  3.50487E+04  2.86876E+04  1.78955E+04  4.84390E+04 -1.02728E+04  5.49031E+04
 -3.16113E+04  3.67828E+04 -4.91015E+04  1.28398E+04 -4.61844E+04 -1.44884E+04 -2.64327E+04 -3.90512E+04
  5.70674E+03 -3.70393E+04  3.10401E+04 -1.88031E+04  2.99058E+04  1.39129E+04 -4.75022E+02  1.88623E+04
 -1.63463E+04  7.70407E+03 -1.54275E+04 -6.11366E+03  5.19488E+03 -5.47974E+03  2.20806E+04  7.56014E+03
  1.35936E+04  2.37612E+04 -6.56686E+03  2.68744E+04 -2.09947E+04  1.57389E+04 -3.33739E+04 -7.34820E+03
 -2.27947E+04 -2.30260E+04 -9.67202E+03 -2.10963E+04  4.19288E+03 -2.21778E+04  1.83915E+04 -1.79145E+04
  2.93274E+04 -7.82869E+03  3.74131E+04 -6.82419E+02  2.34455E+04  2.07450E+04  8.24159E+03  3.62964E+04
 -1.60958E+04  3.39229E+04 -2.82857E+04  1.24058E+04 -2.42469E+04 -5.94229E+03 -6.70107E+03 -1.35052E+04
 -4.55064E+03  2.37423E+03 -4.65574E+03  1.14068E+04 -2.15597E+04  1.91706E+03 -1.26454E+04 -7.59134E+03
 -1.29110E+04 -2.17089E+04  6.34818E+03 -3.22246E+04  1.81338E+04 -1.90543E+04  1.93844E+04 -6.72224E+02
  1.42994E+04  1.40608E+04 -8.44250E+02  2.41349E+04 -1.02837E+04  1.75747E+04 -2.64088E+04 -4.68441E+03
 -1.99722E+04 -2.81657E+04  7.52937E+02 -2.66867E+04  1.18656E+04 -1.93747E+04  1.99183E+04 -9.56367E+03
  1.76771E+04 -3.29072E+03  1.75932E+04  6.30285E+03  6.70685E+03 -3.70920E+02  9.42766E+03 -1.01926E+03
  2.08254E+04 -1.97551E+02  2.45492E+04  1.81878E+04  2.06892E+04  3.77666E+04 -5.05049E+03  3.54087E+04
 -2.98779E+04  2.78320E+04 -3.40944E+04  1.81079E+04 -3.61663E+04 -2.78818E+03 -2.91227E+04 -2.86266E+04
 -1.24129E+04 -3.36185E+04  1.26857E+04 -2.87444E+04  1.95596E+04 -1.25964E+04  1.89993E+04  2.28409E+03
  1.09457E+04  1.46632E+04 -1.31065E+04  1.21448E+04 -2.23206E+04 -5.16805E+03 -1.69836E+04 -1.38674E+04
 -4.36624E+03 -1.52691E+04  9.83733E+03 -1.22652E+04  6.66352E+03 -3.00024E+03  7.89511E+02  8.35314E+03
 -3.07955E+03  8.13675E+03 -5.51780E+03 -5.12633E+03  1.46469E+03 -1.92419E+04  9.60219E+03 -1.12693E+04
  1.40897E+04 -4.51189E+03  2.32609E+04  3.31355E+03  1.94814E+04  1.76781E+04  9.85923E+03  2.18967E+04
 -3.22282E+03  2.34368E+04 -1.72225E+04  1.70264E+04 -1.84582E+04  1.73925E+03 -8.88744E+03 -2.80112E+03
 -5.93534E+03 -6.65829E+03  5.54614E+02  4.49953E+03 -3.42776E+03  6.00608E+03 -8.90697E+03 -4.36879E+02
 -6.68448E+03  2.85735E+03 -1.55348E+04 -5.68767E+03 -7.00058E+03 -1.93824E+04  1.09713E+04 -1.13083E+04
  9.00985E+03 -3.77493E+03  8.29095E+03  5.63834E+03 -2.77086E+03 -5.18180E+01 -7.43040E+03 -2.05116E+03
 -5.60528E+03 -7.95992E+03  3.73620E+03 -1.48036E+04  9.17363E+03 -7.92110E+03  1.69010E+04 -8.79936E+03
  2.66111E+04 -7.38872E+02  1.51073E+04  1.71307E+04  1.01836E+03  1.06711E+04 -7.94282E+03  1.40662E+04
 -1.09735E+04  1.49100E+03 -8.09271E+03 -2.28003E+03  1.84679E+03 -3.13601E+03  7.17591E+03  3.82412E+03
  2.29753E+03  3.26538E+03  7.67181E+03  1.05776E+04 -5.68888E+03  5.07091E+03 -9.93885E+03  3.80791E+03
 -1.17146E+04 -5.43486E+03  3.14391E+02 -1.90129E+04  8.86617E+03 -6.13550E+03  8.40056E+03 -3.32215E+03
 -2.13937E+03  9.04578E+03 -8.98096E+03  8.77562E+03 -9.51426E+03  4.58108E+03 -1.39553E+04 -3.16909E+03
 -1.08247E+04 -7.72518E+03  2.22283E+03 -1.06525E+04  1.04671E+04 -1.30314E+04  1.23224E+04  5.63654E+03
  5.01217E+03  1.35153E+04  3.46802E+03  9.26647E+03 -6.40097E+03  9.07338E+03 -9.39420E+03  3.82060E+02
 -7.43712E+03 -1.07843E+04 -6.48194E+03 -9.01602E+03  4.28024E+03 -7.97247E+03  6.56984E+03 -3.41969E+03
  3.31383E+03  3.43138E+03 -2.14194E+02  1.99161E+03 -1.83656E+03 -3.14125E+03  7.28992E+03 -8.35267E+03
  1.28337E+04 -4.70410E+03  1.91417E+04  1.87621E+03  1.29749E+04  1.13490E+04  1.24798E+04  1.39765E+04
 -5.39438E+02  1.77619E+04 -1.48201E+04  1.61743E+04 -1.86117E+04 -1.85401E+03 -1.78717E+04 -8.87060E+03
 -1.98092E+03 -1.06326E+04  1.33040E+03 -1.26558E+04  1.04224E+04 -1.10242E+04  2.41664E+03 -1.03828E+03
  3.83074E+03 -3.42221E+03 -2.41861E+03 -2.44703E+03  2.08768E+03 -5.15406E+03  6.75148E+03  7.66242E+02
  1.23431E+04 -4.06131E+03  5.14833E+03  1.01348E+04 -8.61521E+03  6.51053E+03 -6.40212E+03  2.64343E+03
 -7.07764E+03 -1.26102E+03 -5.48467E+03 -5.27561E+03 -7.58171E+03 -1.61940E+04  1.90765E+03 -9.56414E+03
  1.48960E+04 -7.88349E+03  2.04483E+04 -2.13771E+03  1.42696E+04  9.48838E+03  1.43561E+03  1.14362E+04
 -1.47111E+03  1.16132E+04 -3.56820E+03  1.43072E+03 -9.02504E+03 -5.77313E+02 -3.97059E+03  2.19297E+03
 -6.29885E+03  5.22916E+03  1.67813E+03 -3.75565E+02 -8.55263E+03  3.88982E+03 -1.35645E+04 -1.12028E+03
 -4.89162E+03 -4.33632E+03  7.79119E+02 -1.46514E+04  7.93223E+03 -8.04305E+03  8.59702E+03 -2.39256E+03
  6.06881E+03  7.78444E+03  6.20579E+03  1.36939E+04 -4.37975E+03  1.30670E+04 -6.97403E+03  5.37359E+03
 -4.36531E+03 -1.34700E+03 -6.18398E+03 -9.90039E+03  6.76622E+02 -7.63352E+03  3.66176E+03 -6.82823E+03
  1.02607E+04 -8.52294E+02  2.12666E+03 -1.09467E+03  3.49105E+03  1.17146E+03  3.39429E+03  4.37231E+03
  6.95073E+03  1.71902E+03  4.70524E+03  5.83305E+03  3.98127E+03  5.94496E+03  1.57732E+03  3.44193E+03
 -7.04061E+03  7.56144E+03 -9.01393E+03  6.36650E+03 -1.68014E+04  8.33995E+02 -7.13892E+03 -4.67763E+03
 -1.06665E+04 -6.92915E+03  3.94113E+03 -9.31690E+03  3.82267E+03 -3.21963E+03  1.15452E+04  1.13335E+03
  6.59512E+03  1.87451E+03  1.91991E+03  2.93753E+03 -6.47031E+03 -3.23212E+03 -3.11296E+03 -2.34797E+03
  2.90054E+03 -4.21312E+03 -1.00738E+03 -3.37941E+03  3.32993E+03 -4.93046E+02  2.76856E+03 -7.94024E+03
  1.90315E+03  5.52010E+03 -5.47294E+03  6.43296E+03 -1.02345E+03 -3.38478E+03  1.93905E+03 -4.06210E+02
 -3.59249E+02  4.85206E+03  2.57533E+03  2.42140E+03  6.03495E+03  5.26709E+03 -1.90777E+03  4.84491E+03
  1.39815E+03  4.48092E+03 -4.95405E+03  3.86271E+03 -7.01078E+03 -8.78341E+03 -6.74438E+03 -7.66353E+03
 -3.82582E+01 -9.29317E+03 -1.27658E+03 -1.44515E+03  3.46182E+03  6.14554E+03 -6.48517E+03  6.52783E+03
 -9.51194E+03  1.59145E+03 -3.60847E+03 -8.19184E+03  3.57856E+02 -5.64037E+03  4.67312E+03 -6.66240E+03
  3.55889E+03 -2.72964E+03  2.49124E+03 -2.05169E+03  1.07880E+04 -8.64882E+02  1.23556E+03 -2.80866E+03
 -1.77040E+02  1.57216E+03  3.40802E+03 -4.25393E+03  3.32856E+03 -5.39757E+03  3.85840E+03 -1.01497E+04
  5.74325E+03 -3.83770E+03  7.60009E+03  6.00793E+02  2.96672E+03  9.27796E+03 -2.38414E+03  7.72350E+03
 -1.12504E+04  8.12244E+01 -7.12508E+03 -8.59278E+02  2.27805E+03 -3.99638E+03 -2.51886E+03 -3.73256E+03
  1.07351E+02 -3.41122E+03 -5.33196E+02  2.93662E+03  4.76261E+03  2.46232E+03 -3.16233E+03  6.26426E+03
 -1.97037E+03  1.20422E+03 -2.07859E+03 -2.40606E+03  6.23922E+03  1.08125E+03 -2.41155E+02 -6.71720E+02
 -6.44198E+03  9.15616E+02 -5.77587E+03 -1.01491E+03 -5.23158E+03  1.92093E+03 -1.06280E+04 -2.80172E+03
 -2.66717E+03 -5.06391E+03 -4.18437E+03 -5.22524E+03  3.30259E+03 -9.20605E+03  1.30950E+04  2.46067E+03
  6.72075E+03 -4.17309E+03  8.17878E+03  6.21002E+03 -3.83513E+03  5.03677E+03 -4.62492E+03  1.54404E+03
 -2.63486E+03  2.00706E+03 -8.25232E+02  1.71481E+03 -2.01980E+03  9.75792E+02  4.06102E+03  3.36061E+03
 -2.72060E+03  3.56923E+02 -2.26393E+03 -5.40158E+03 -3.65385E+02  1.32875E+03 -3.03353E+03 -4.87046E+03
 -1.09879E+03  3.21453E+02  5.87963E+03 -1.67830E+03  2.41477E+03  3.66789E+03  2.16456E+03  6.22379E+03
 -1.58712E+03  5.67239E+03 -6.59083E+03  7.89451E+03 -7.98042E+03 -1.94398E+03 -6.63382E+03 -9.99793E+03
 -3.33523E+03 -9.34109E+03  5.86083E+02 -1.07302E+04  5.46739E+03  7.11964E+02  6.57462E+03 -1.17579E+02
  3.28967E+03 -1.17348E+03  7.34408E+03  9.54673E+02  7.97891E+03 -3.03346E+03  2.12274E+03 -6.36420E+03
  8.38038E+03  2.70250E+03  2.19772E+02  4.57458E+03  5.42523E+03  3.15524E+02 -4.36982E+02  1.98147E+03
 -8.89097E+03  7.19499E+03 -7.66460E+03  4.80819E+03 -4.98328E+03 -4.47321E+03  4.19496E+03 -3.05550E+03
  5.56516E+03 -7.27096E+03  7.08963E+03 -4.06212E+03  6.69263E+03  1.65204E+03  3.29312E+03  8.21644E+03
  1.05725E+03  3.88241E+03  4.90669E+02  2.52756E+03  4.46132E+03  2.06857E+02 -5.14064E+03  4.05073E+02
 -1.16877E+03 -1.43332E+03 -5.62589E+03 -7.43452E+01 -2.30428E+03  2.48133E+02  9.10935E+02 -2.44748E+03
 -1.62040E+03 -3.65630E+03 -7.29324E+02 -6.24678E+03  6.83588E+03 -1.03087E+04  4.75574E+02 -6.64909E+03
  1.75603E+03 -1.54531E+03 -1.18944E+03  2.32668E+03  6.42139E+03  6.26900E+02 -3.46542E+03  4.00648E+03
