 $NMID ID='MM_0lb_SNR50_10hz_g40_3.RAW', FMTDAT='(8E13.5)'
 TRAMP=1., VOLUME=1. $END
  3.11170E+05  1.90725E+03  3.38101E+05  2.47849E+05  8.62828E+04  3.45436E+05 -1.30985E+05  2.52516E+05
 -1.87994E+05  8.38533E+04 -1.12337E+05 -3.28510E+04 -1.85829E+03 -5.44528E+04  5.31095E+04 -1.42005E+03
  3.64852E+04  5.80505E+04 -1.46990E+04  7.60188E+04 -6.31855E+04  6.76423E+04 -8.10005E+04  3.45679E+04
 -8.49030E+04 -1.15176E+04 -5.96930E+04 -5.25290E+04 -2.36409E+04 -6.68143E+04  3.46712E+04 -4.93200E+04
  4.51233E+04  4.02419E+03  2.22774E+04  4.81046E+04 -3.59350E+04  5.43756E+04 -6.49415E+04  5.04436E+03
 -5.81416E+04 -5.88156E+04 -8.73885E+03 -7.82451E+04  3.14530E+04 -5.80638E+04  5.05447E+04 -1.63418E+04
  3.68898E+04  1.05649E+04  3.24157E+04  2.50419E+04  2.17568E+04  2.81205E+04 -6.36622E+03  2.56570E+04
 -2.53382E+04  7.48283E+03 -1.88541E+04 -6.22731E+03  8.56705E+03 -1.10267E+04  2.33076E+04  6.95578E+03
  2.77866E+03  3.76980E+04 -2.92129E+04  3.54655E+04 -6.31250E+04  1.65853E+03 -5.42888E+04 -3.97801E+04
 -8.43370E+03 -6.30958E+04  3.66160E+04 -4.78353E+04  6.12055E+04 -5.65376E+02  3.49975E+04  3.16074E+04
 -3.66264E+03  3.82989E+04 -2.49461E+04  1.97490E+04 -3.73344E+04 -2.31099E+03 -1.74988E+04 -1.35422E+04
 -4.70726E+03 -1.42415E+04  4.78023E+03 -1.53744E+04  4.18174E+03 -2.45078E+04  1.50024E+04 -1.02034E+04
  6.69987E+03  9.93849E+03 -8.10591E+03  1.11799E+04 -1.35940E+04 -2.51828E+02 -9.71438E+03 -3.84766E+04
  2.06535E+04 -4.42652E+04  5.19246E+04 -2.26794E+04  5.21607E+04  2.31615E+04  2.10362E+04  4.50762E+04
 -1.80514E+04  3.67317E+04 -3.15669E+04  2.78378E+03 -7.90303E+03 -3.17726E+04  2.77856E+04 -4.27884E+04
  4.17257E+04 -1.08138E+04  3.62323E+04  2.53157E+04  1.89021E+04  4.76965E+04 -8.89642E+03  5.26457E+04
 -3.44029E+04  3.01224E+04 -4.17215E+04  4.43041E+03 -4.07210E+04 -1.81661E+04 -2.69080E+04 -5.00040E+04
  3.02252E+03 -3.89687E+04  3.26517E+04 -1.49338E+04  3.16106E+04  8.58263E+03  2.98967E+03  2.22881E+04
 -2.14147E+04  1.25694E+04 -8.91829E+03 -9.21990E+03  6.20658E+03 -1.40767E+04  2.10423E+04  2.68280E+03
  1.29273E+04  2.83361E+04 -2.45610E+03  2.71725E+04 -2.48057E+04  1.45589E+04 -3.66169E+04 -4.14941E+03
 -2.16532E+04 -1.91237E+04 -8.02607E+03 -2.18393E+04  6.79495E+03 -1.58991E+04  2.05742E+04 -2.34561E+04
  3.18544E+04 -2.00934E+04  3.29560E+04  4.66854E+03  2.52845E+04  2.05773E+04  4.47323E+03  4.11184E+04
 -2.36867E+04  3.61287E+04 -3.17122E+04  6.05563E+03 -1.99631E+04 -9.23726E+03 -9.20090E+03 -1.06509E+04
  5.44907E-01 -7.94574E+03 -2.66231E+03  8.89527E+03 -1.77915E+04  4.38145E+03 -2.49746E+04 -7.98539E+03
 -1.06664E+04 -2.14948E+04  8.57516E+03 -2.90117E+04  1.64948E+04 -2.24576E+04  1.44600E+04  1.37288E+03
  1.70301E+04  1.45431E+04 -3.81905E+03  2.54917E+04 -1.94708E+04  1.88621E+04 -2.15209E+04 -2.80693E+03
 -1.03682E+04 -1.25252E+04 -4.73283E+03 -2.39549E+04  1.24534E+04 -2.13510E+04  1.74121E+04 -8.47836E+03
  2.32288E+04  1.13151E+03  1.70258E+04  4.94177E+03  1.23044E+04  2.43533E+03  1.14019E+04 -2.48175E+02
  2.58967E+04  9.88621E+02  2.31497E+04  1.51075E+04  1.34341E+04  3.02660E+04 -3.56260E+03  4.46868E+04
 -2.05297E+04  3.42933E+04 -3.96573E+04  9.84804E+03 -3.52840E+04 -2.09129E+02 -3.74993E+04 -2.43976E+04
 -1.46610E+04 -3.34262E+04  1.09230E+04 -3.02203E+04  2.58663E+04 -1.52846E+04  2.45892E+04  6.16609E+03
  9.50852E+03  1.81685E+04 -1.39986E+04  1.15959E+04 -2.55652E+04  2.61645E+03 -1.17542E+04 -1.04609E+04
  5.41149E+03 -1.77261E+04  1.61959E+04 -8.93852E+03  1.14353E+04  4.17405E+03  5.94144E+03  6.61294E+03
 -8.15600E+03  2.37927E+03 -9.20498E+03 -7.44996E+03 -3.55581E+03 -1.32197E+04  1.16368E+04 -1.69364E+04
  2.31892E+04 -1.05491E+04  2.48339E+04  2.03490E+03  2.10044E+04  1.48332E+04  2.57300E+03  2.84926E+04
  1.17830E+03  2.99930E+04 -1.71100E+04  2.52020E+04 -2.15579E+04  4.64990E+03 -1.04780E+04 -2.95402E+03
 -7.43730E+03 -8.66851E+03 -3.13659E+03  1.08255E+03 -3.19631E+03  8.72233E+03 -6.11653E+03  2.28468E+03
 -1.31574E+04 -3.76855E+03 -1.28647E+04 -2.42465E+03 -3.40566E+03 -1.62253E+04  3.12135E+03 -1.42774E+04
  4.40803E+03 -5.31831E+03  5.71190E+03  5.65501E+03  1.24718E+03  8.23198E+03 -1.09992E+04 -8.63847E+02
 -6.30021E+03 -1.09311E+04 -9.17727E+02 -1.12501E+04  8.37666E+03 -1.56286E+04  1.67348E+04 -2.19556E+03
  2.45646E+04  6.84648E+03  1.53275E+04  9.59767E+03  4.97421E+03  1.83083E+04 -8.02135E+03  9.53216E+03
 -1.05970E+04  3.68409E+03 -5.18128E+03 -2.90479E+03  7.02215E+03 -2.07967E+03  1.11019E+04 -4.21850E+03
  8.08122E+03  3.61842E+03  4.40790E+03  1.32548E+04 -1.08112E+04  1.49262E+04 -1.59872E+04  8.13710E+03
 -8.71620E+03 -1.01316E+04 -3.72959E+03 -1.01729E+04  1.23228E+04 -5.58684E+03  1.19033E+04  9.75816E+02
  2.82973E+02  1.17598E+04 -6.77728E+03  1.12077E+04 -1.01525E+04  3.33442E+03 -1.32364E+04 -8.20268E+03
 -4.87692E+03 -1.75002E+04  3.31590E+03 -1.39270E+04  1.26806E+04 -8.17115E+03  1.38403E+04  4.05191E+03
  3.64465E+03  1.14796E+04 -5.72279E+03  1.64720E+04 -1.35775E+04  3.77770E+03 -1.02792E+04  4.56435E+03
 -4.81886E+03 -1.31158E+04 -6.22123E+02 -9.99281E+03  8.24066E+03 -5.92194E+03  6.85749E+03 -2.01867E+03
  6.20528E+02 -3.17159E+03  9.61396E+02 -2.43614E+02 -4.84240E+03 -3.26753E+03  2.29965E+03 -3.93039E+03
  1.12775E+04 -4.17248E+03  1.44554E+04  5.22817E+02  9.30428E+03  8.45966E+03  1.55707E+04  1.04476E+04
 -5.41261E+03  2.73151E+04 -1.43809E+04  1.03943E+04 -1.92710E+04  1.31574E+03 -1.37407E+04 -5.59820E+03
 -6.88128E+03 -1.77027E+04 -1.68709E+03 -1.15238E+04  3.61380E+03 -1.03651E+04  3.17064E+03 -3.53621E+03
  8.13593E+03 -9.99036E+03  5.87601E+03 -1.08703E+03  1.94680E+03 -2.11292E+03  8.10931E+03 -4.74506E+03
  1.41537E+04  4.38415E+03  8.33176E+02  8.08150E+03 -9.99956E+03  1.00913E+04 -1.16754E+04  8.29519E+03
 -8.08413E+03  1.08040E+03 -7.40221E+03 -1.53754E+04 -5.68780E+03 -1.45299E+04  2.23439E+03 -1.80374E+04
  1.21564E+04 -1.01407E+03  1.99212E+04  3.55751E+03  1.10863E+04  9.66508E+03 -8.47447E+02  1.70585E+04
 -5.00587E+03  1.32275E+04 -1.01557E+04  9.36317E+03 -6.87060E+03  3.04319E+03  2.38998E+03 -1.47246E+03
  3.69900E+02  3.50880E+03 -2.84378E+03  1.84894E+03 -6.30782E+03 -2.94494E+03 -1.18409E+04  2.47966E+03
  6.53601E+03 -9.10654E+03 -2.84899E+02 -1.49197E+04  8.51993E+02 -1.57771E+04  1.43125E+04 -7.74087E+03
  1.06398E+04  3.84497E+03  6.34746E+03  2.24502E+03 -4.11334E+03  1.24761E+04 -2.57611E+03  1.10410E+04
 -1.21921E+04 -5.11325E+03 -8.10759E+03 -5.25791E+03 -1.01736E+03 -9.46308E+03  8.25335E+03 -4.40395E+03
  9.64526E+03 -4.44632E+03  3.25818E+03 -2.12729E+03 -5.64066E+03  3.23319E+03  2.17634E+03  5.65931E+03
  5.54450E+03  1.80075E+03  3.57945E+03 -3.32951E+02  3.88571E+03  7.87559E+03  3.21686E+03  1.27360E+03
 -1.35540E+03  8.54503E+03 -4.41337E+03  1.59726E+04 -1.33127E+04  3.80925E+03 -9.99990E+03 -5.25543E+02
 -1.61487E+03 -1.32960E+04  4.16212E+03 -1.29640E+04  6.99305E+03 -8.12447E+03  7.25383E+03 -1.27142E+03
  4.83175E+03  4.27932E+03 -1.07769E+03  9.57354E+03 -6.26112E+03  1.75739E+03 -9.58135E+03  1.81693E+03
 -8.11463E+03  4.75980E+02  4.58944E+03 -2.24727E+03  4.61094E+03 -2.28134E+03  6.66696E+02  3.72477E+01
  3.63971E+03  1.58192E+03  4.86253E+03 -1.04537E+03 -1.28051E+03 -8.71191E+02  4.37977E+03  3.73780E+02
 -2.43303E+03 -3.24331E+03  7.62027E+03 -2.69684E+03  1.78466E+02  8.63648E+03  1.29477E+03  9.46896E+03
 -6.41491E+03  5.35793E+03 -1.77786E+03  4.43646E+03 -7.54547E+03 -7.04203E+03 -4.13088E+03 -3.86323E+03
 -3.92614E+03 -6.17497E+03  1.13318E+03 -4.09241E+03  4.14358E+02  4.23028E+02  5.09071E+02  4.71648E+03
 -1.85485E+03  6.84307E+02 -7.74478E+03 -5.77557E+03 -6.48664E+03 -9.31733E+03  5.46523E+03 -1.30495E+03
  2.56314E+03 -7.37179E+03  3.59487E+03 -9.93887E+03  6.59605E+03  4.15323E+03 -7.52827E+02  3.02572E+03
 -3.35469E+03  7.18230E+01  2.72944E+03 -4.75210E+03  2.25814E+02 -6.42877E+03  6.11921E+03 -2.18862E+03
  1.70974E+03  2.03398E+03  7.68615E+03  5.06970E+03  5.86743E+03  8.64184E+03  1.95450E+02  1.15550E+04
 -8.61997E+03 -1.58981E+03 -9.78655E+03 -8.76404E+03 -4.75187E+03 -6.99425E+03 -2.46717E+02 -3.73971E+03
 -1.29747E+03 -3.09405E+03  4.09193E+03  1.41875E+03 -7.68680E+02  3.20110E+03 -1.18199E+03  8.22246E+03
 -7.34779E+02  4.09659E+03 -3.71656E+03 -3.05155E+03 -4.14802E+03 -8.01414E+02 -4.43122E+03  2.33438E+03
 -2.10404E+03  8.03457E+03 -6.61944E+03  3.73406E+03 -9.93743E+03 -6.11523E+03 -7.06676E+03 -4.82425E+03
 -1.11654E+04 -3.58530E+03  6.87530E+03 -1.27719E+04  7.81010E+03 -8.24937E+03  8.20385E+03 -6.26899E+03
  6.77853E+03  5.67608E+03  8.26731E+03  1.10235E+04 -9.74202E+02  3.93987E+03 -4.27020E+03  2.82797E+03
 -7.94979E+03  3.64762E+03  4.83209E+03 -5.23807E+03 -1.51581E+03  1.45121E+03 -4.60064E+03 -4.53286E+03
 -2.21380E+03 -1.93261E+03 -1.66759E+03  9.20380E+02  2.47650E+03 -1.62403E+03 -4.58517E+03 -1.88978E+03
  1.46672E+03 -1.03343E+03  3.84768E+03 -3.51753E+03  9.80368E+03 -9.77895E+02 -1.84257E+03  6.10579E+03
  9.74643E+02  7.68895E+03 -8.97009E+03  4.81483E+03 -1.41423E+04  1.28218E+03 -2.77221E+03 -7.85115E+03
 -8.01114E+03 -8.02636E+03  3.30752E+03 -7.19115E+03  9.53867E+03 -9.02432E+03  7.55194E+03 -4.18469E+03
  3.70866E+03 -6.13764E+02  3.12621E+03  5.00102E+03  2.34462E+03 -1.48988E+03  2.69222E+03 -5.63094E+03
 -2.88501E+03  3.95706E+03  7.22574E+03 -9.01574E+02  2.53115E+03  3.81498E+03  5.21128E+03  6.42888E+03
 -3.83067E+03  3.18070E+03 -6.36925E+03  5.23101E+03 -9.46765E+02  2.81586E+02 -7.15235E+03 -4.21588E+03
  5.02338E+03 -1.02040E+04  1.20507E+03 -4.22985E+03  4.79000E+03  4.66512E+03  1.26055E+03  3.71066E+03
  2.46285E+03  2.73420E+03 -1.81467E+03  5.44465E+03 -3.58707E+03  4.15720E+03  5.01913E+02 -3.15961E+03
 -5.56358E+02  9.37954E+01  1.83779E+03  5.00067E+02 -5.38438E+03  2.45344E+03 -2.04827E+02 -2.46968E+03
 -2.71353E+03 -3.82464E+03 -5.74714E+03 -6.74135E+03  5.23378E+03 -5.41873E+03  7.84016E+03  9.80177E+02
  1.97700E+03  1.69201E+02  1.04900E+03  4.32511E+02  2.24230E+02  6.25138E+03 -6.89365E+03  5.84145E+03
