 $NMID ID='MM_0lb_SNR50_9hz_g55_84.RAW', FMTDAT='(8E13.5)'
 TRAMP=1., VOLUME=1. $END
  3.15374E+05  6.07828E+01  3.32764E+05  2.48140E+05  8.40898E+04  3.34504E+05 -1.28437E+05  2.53628E+05
 -1.89858E+05  7.79413E+04 -1.21898E+05 -2.55011E+04 -3.38924E+03 -4.86589E+04  5.16666E+04  7.78466E+02
  3.49493E+04  5.45472E+04 -1.61537E+04  7.84892E+04 -6.02267E+04  6.69248E+04 -8.12651E+04  3.12353E+04
 -8.19398E+04 -1.44567E+04 -5.50375E+04 -5.19525E+04 -8.92677E+03 -7.22927E+04  2.74374E+04 -4.50844E+04
  4.35020E+04 -1.28166E+03  2.45430E+04  5.02486E+04 -4.23611E+04  4.62869E+04 -6.50329E+04  3.64576E+02
 -5.67324E+04 -5.64765E+04 -7.86844E+03 -7.85917E+04  3.50618E+04 -5.48061E+04  4.73102E+04 -1.64385E+04
  4.90111E+04  1.51294E+04  3.31594E+04  2.70315E+04  2.28997E+04  3.24791E+04  7.63486E+01  2.54434E+04
 -2.15249E+04  1.04736E+04 -1.51808E+04 -4.12708E+03  1.41230E+04 -1.09256E+04  2.72387E+04  1.61266E+04
  4.76265E+03  3.51288E+04 -2.84087E+04  3.58572E+04 -6.07351E+04 -5.52325E+03 -5.40206E+04 -3.81683E+04
 -1.72210E+04 -7.01441E+04  3.70140E+04 -3.96577E+04  6.47181E+04 -5.28854E+03  3.48265E+04  3.79022E+04
 -3.25384E+03  4.15582E+04 -3.47787E+04  1.58324E+04 -3.21033E+04 -5.54640E+03 -2.14010E+04 -1.16382E+04
 -9.05961E+03 -1.03946E+04 -4.56735E+02 -2.24311E+04  8.11894E+03 -2.20016E+04  2.11659E+04 -1.15409E+04
  1.08482E+04  3.09876E+03 -8.65389E+03  1.37831E+04 -2.66372E+04 -7.53047E+03 -8.47311E+03 -3.46365E+04
  2.92020E+04 -4.92507E+04  5.37230E+04 -2.70510E+04  4.87909E+04  2.00657E+04  2.40105E+04  4.57104E+04
 -2.12520E+04  3.77716E+04 -2.83823E+04 -2.95966E+03 -1.51938E+04 -2.53497E+04  2.21579E+04 -3.56002E+04
  4.62830E+04 -1.11454E+04  4.13897E+04  2.19703E+04  2.27979E+04  5.38079E+04  8.70126E+02  5.60453E+04
 -3.47728E+04  3.90585E+04 -4.71895E+04  2.00866E+04 -5.38065E+04 -2.20393E+04 -2.92627E+04 -4.30387E+04
  1.30452E+04 -4.05831E+04  3.66733E+04 -1.46976E+04  3.42688E+04  9.90437E+03  5.24626E+03  2.09309E+04
 -1.68703E+04  6.86368E+03 -5.35070E+03 -5.00578E+03 -2.68524E+03 -1.60758E+04  1.72327E+04  7.28317E+03
  1.55058E+04  2.96221E+04 -8.86203E+03  2.43582E+04 -2.43341E+04  1.27458E+04 -3.52300E+04 -4.39689E+03
 -2.38523E+04 -1.72894E+04 -1.46955E+04 -2.19250E+04  3.42185E+03 -2.67483E+04  1.59480E+04 -1.69450E+04
  3.08070E+04 -1.23811E+04  3.50008E+04  4.92576E+03  2.45520E+04  3.30974E+04  3.25962E+03  3.93950E+04
 -2.42599E+04  2.98416E+04 -3.38451E+04  1.22253E+04 -2.42414E+04 -1.26221E+04 -5.76484E+03 -1.62574E+04
  2.33709E+02  2.96752E+03 -1.14282E+04  3.67106E+02 -1.91677E+04  9.92200E+03 -2.42227E+04 -1.00863E+04
 -1.12928E+04 -1.61356E+04  8.78359E+03 -3.16827E+04  1.15219E+04 -2.51433E+04  1.79374E+04 -3.44420E+03
  1.36563E+04  1.86207E+04 -1.20624E+02  1.92662E+04 -1.30818E+04  1.81069E+04 -2.70719E+04 -1.09182E+04
 -2.17391E+04 -1.98879E+04 -8.43477E+03 -2.80988E+04  1.27852E+04 -2.40508E+04  2.64908E+04 -1.88863E+04
  2.56826E+04 -1.17823E+03  1.93998E+04  4.53153E+03  1.29277E+04  4.89435E+03  1.35773E+04  1.56884E+03
  2.14632E+04  6.36491E+02  2.50379E+04  2.02858E+04  1.47088E+04  3.61585E+04 -9.05029E+02  4.29052E+04
 -2.82590E+04  3.88603E+04 -4.34380E+04  2.10907E+04 -4.66838E+04 -2.83578E+03 -3.74415E+04 -2.35247E+04
 -1.62184E+04 -3.68259E+04  1.05987E+04 -3.24417E+04  2.69039E+04 -1.81506E+04  2.97147E+04  3.23213E+03
  5.49947E+03  2.25569E+04 -1.78412E+04  2.06173E+04 -2.27063E+04  3.42934E+03 -1.46381E+04 -1.86397E+04
  3.67024E+03 -1.70115E+04  1.21878E+04 -6.85095E+03  1.66940E+04 -7.49494E+03  3.06251E+03  8.38838E+03
 -6.44695E+03  4.66931E+03 -1.13410E+04 -9.50319E+03  5.75288E+02 -1.67844E+04  1.68611E+04 -2.35872E+04
  1.99810E+04 -1.04865E+04  2.12764E+04  4.09507E+03  2.08382E+04  2.14633E+04  9.70766E+03  3.22828E+04
 -6.43872E+03  3.13406E+04 -1.67700E+04  2.38706E+04 -2.34973E+04  9.73000E+03 -1.46632E+04 -9.15843E+03
 -6.29684E+03 -7.10830E+03 -6.58504E+03  4.54038E+03 -3.75283E+03 -8.56517E+02 -8.53330E+03  1.93089E+03
 -1.56564E+04 -1.23463E+03 -1.73816E+04 -1.00486E+04 -4.70869E+03 -1.65892E+04  8.51881E+03 -2.40919E+04
  1.18216E+04 -6.04674E+03  9.37864E+03  1.03989E+04 -2.60137E+03  6.89991E+03 -6.92037E+03 -9.15715E+02
 -6.15435E+03 -7.49216E+03  2.00521E+03 -1.57406E+04  1.23450E+04 -1.14315E+04  1.44874E+04 -8.17227E+03
  2.31222E+04  5.84732E+03  1.67446E+04  1.72588E+04  4.94561E+03  2.29700E+04 -1.19205E+04  1.57219E+04
 -9.00643E+03  6.70895E+02 -7.98373E+03 -2.65105E+03  1.00878E+04 -1.32097E+03  7.15779E+03 -4.97902E+03
  7.85437E+03  1.06270E+04 -1.86416E+03  1.18992E+04 -1.13034E+04  9.23618E+03 -1.79093E+04  5.10993E+03
 -1.70966E+04 -5.91235E+03  7.30381E+02 -2.00639E+04  8.32132E+03 -8.89685E+03  4.96163E+03  6.99672E+03
  6.00723E+03  1.44743E+04 -3.86268E+03  1.33995E+04 -1.77855E+04  6.28112E+02 -1.18639E+04 -3.13562E+03
 -1.12696E+04 -1.66427E+04 -1.58424E+03 -2.09567E+04  8.10875E+03 -8.08810E+03  1.43744E+04  1.47105E+03
  6.72605E+03  6.58497E+03 -5.91794E+03  1.47541E+04 -1.38080E+04  1.09402E+04 -1.49353E+04  1.98792E+03
 -1.10689E+04 -4.84737E+03 -2.92861E+03 -8.70215E+03  3.27852E+03 -7.43315E+03  1.16100E+04 -2.82075E+03
  2.93956E+03  5.11063E+03 -1.61683E+03  1.56146E+03  8.85281E+02 -2.01028E+03  2.98117E+03 -4.38971E+03
  9.35697E+03 -5.40686E+03  1.55562E+04 -7.09883E+01  2.05192E+04  1.06766E+04  1.21379E+04  2.37354E+04
 -6.38593E+02  2.48465E+04 -2.47391E+04  1.46705E+04 -2.10935E+04  3.73937E+03 -2.51369E+04 -7.98305E+03
 -3.61065E+03 -2.10396E+04  1.53648E+03 -1.80202E+04  2.77605E+03 -7.66575E+03  1.00928E+04 -7.55046E+03
  6.70867E+02  1.03726E+03  6.92919E+03 -2.69516E+03  1.43126E+04 -2.12919E+03  5.49477E+03 -1.25399E+04
  2.44674E+03  7.40853E+03  8.86725E+03  7.00267E+03 -1.80487E+03  1.68876E+04 -1.51615E+04  1.27718E+04
 -1.38717E+04 -5.83556E+02 -8.78342E+03 -6.13210E+03  4.19637E+03 -1.87095E+04  7.00048E+02 -1.29962E+04
  1.81909E+04 -8.52142E+03  1.27168E+04  5.67370E+03  1.53632E+04  1.29138E+04  6.53246E+03  1.81861E+04
 -1.06172E+03  2.40354E+04 -1.75921E+04  6.08504E+03 -6.06311E+03  1.99649E+03 -4.63630E+03 -6.05397E+03
  1.76831E+03 -1.86822E+03 -1.56668E+03  9.59648E+02 -9.56083E+03  4.76125E+03 -7.80410E+03 -1.05268E+03
 -8.64201E+03 -5.51676E+03 -2.93633E+03 -1.30955E+04  1.81059E+04 -6.90416E+03  1.63997E+04 -3.25742E+03
  1.28450E+04  9.70992E+03  9.08471E+02  1.24604E+04 -2.19209E+03  1.81287E+04 -1.16801E+04  5.75599E+03
 -1.40920E+04  3.88132E+03 -7.44506E+03 -1.17342E+04 -1.59465E+03 -2.13479E+04  9.62432E+03 -1.08868E+04
  3.19749E+03  4.40673E+02  1.36465E+04  3.55034E+03  1.04899E+03  9.46557E+03 -3.79201E+03  2.48538E+03
  1.96717E+03 -1.14744E+03  4.04665E+03 -2.86936E+03  4.35584E+03  8.65551E+03  3.79621E+03  6.45752E+03
 -1.25436E+03  1.86388E+04 -1.51927E+04  1.59993E+04 -1.74700E+04  5.91872E+03 -1.88031E+04 -7.35956E+03
 -8.41136E+03 -8.80244E+03  1.19649E+03 -1.37432E+04  1.34602E+04 -6.04064E+03  8.90701E+03 -4.09545E+03
  1.15169E+04 -9.76463E+01  7.04160E+03  9.79665E+03 -5.76640E+02  7.42925E+03 -4.92981E+03 -2.39757E+03
 -2.19799E+03 -1.47701E+04 -1.35613E+03 -9.16591E+03  1.59869E+03 -3.74736E+03  3.95798E+03 -2.39801E+02
  3.52725E+03  9.67893E+03  3.81773E+03  8.95972E+02 -6.29383E+02 -1.79420E+03  5.50681E+03  3.94783E+03
  1.12984E+02 -3.25441E+02  8.08623E+03  5.28297E+03  4.73880E+03  6.30928E+03  3.37132E+03  1.03176E+04
 -6.94710E+03  8.29489E+03 -1.00346E+04  1.67600E+03 -9.89248E+03 -1.31454E+04  1.26018E+03 -3.70424E+03
  2.00806E+03 -1.00133E+04  4.91782E+03 -4.83728E+03  8.89661E+03 -1.08043E+03 -4.42617E+03  3.89383E+03
  2.92670E+03  5.64431E+02 -1.26677E+04 -1.15997E+03 -4.83644E+03 -8.26247E+03  2.69578E+03 -1.92946E+03
  3.33688E+03 -7.23888E+03  4.18289E+03 -1.28424E+01  7.10533E+03  5.82632E+03  1.35535E+03  7.90397E+03
 -7.75597E+03  3.70637E+03 -4.31566E+03 -7.38832E+03  6.02386E+03 -5.65752E+03  1.03080E+04 -1.07625E+03
  9.36942E+03  2.73548E+03  1.27794E+04  8.43413E+03  3.26790E+03  9.63516E+03  1.60246E+02  1.43125E+04
 -1.11336E+04  8.09925E+03 -6.67130E+03 -4.18458E+03 -4.37967E+03 -6.93716E+03  2.69406E+03 -7.84093E+03
  9.05676E+03 -1.10801E+03  7.21046E+03 -2.47676E+03 -2.05292E+03  3.27398E+03  4.38402E+03  3.13269E+03
 -2.82404E+03  7.21507E+03 -4.33722E+03  3.90097E+03 -3.69733E+03  3.12156E+03 -4.24426E+03  5.49957E+03
 -8.23920E+03  2.50042E+03 -3.68062E+03 -3.62210E+02 -4.98116E+03  2.30089E+03 -9.33057E+03 -6.85615E+03
 -5.91683E+02 -1.27624E+04  2.98281E+03 -1.53463E+04  9.67835E+03 -1.27898E+04  1.39742E+04 -9.06759E+03
  1.37046E+04  5.45345E+03  1.25058E+04  5.55743E+03  5.08794E+01  8.45724E+03 -3.67718E+03  7.53735E+03
 -1.19529E+03  2.34506E+03 -7.20284E+03  1.23665E+03 -2.21549E+03  2.15260E+03  1.48367E+03  3.26316E+03
 -2.05568E+03 -2.51485E+03 -6.07268E+03  3.22801E+03 -3.70463E+03 -4.15788E+03  1.91273E+03 -2.41587E+03
  1.57435E+03 -6.51294E+03  7.20100E+03 -4.49039E+03  6.63496E+03  1.04809E+04  3.87515E+03  1.59888E+04
 -1.04068E+04  1.04602E+04 -1.60428E+04  3.41197E+03 -1.37236E+04  4.41734E+02 -1.02531E+04 -1.13844E+04
 -8.55622E+03 -6.14914E+03  6.86064E+03 -6.38268E+03  9.77788E+02 -1.22458E+04  1.70151E+04  2.69493E+03
  1.65185E+03  3.76080E+03  1.00663E+03  1.04371E+03 -1.39362E+02 -3.73220E+03 -8.38169E+03 -2.93501E+03
  6.26679E+03 -2.44861E+03  5.43645E+03  3.01541E+03  2.68236E+03  1.03190E+04 -2.14617E+03  1.18220E+04
 -5.15881E+03  4.03104E+03 -4.66725E+03  3.74628E+03 -5.71664E+03 -6.62347E+03  4.94326E+03 -9.07138E+03
  1.18816E+04 -1.06076E+04  7.96138E+03 -1.55897E+03  5.86461E+03  2.05814E+03  2.89703E+03  6.07015E+03
  2.94487E+03  5.00545E+03 -2.62515E+03  2.97039E+03 -2.95803E+03  4.07926E+03  3.12122E+02  9.23957E+02
 -6.34079E+03 -4.26941E+03  3.97355E+03  1.04243E+03 -1.26135E+03  1.56257E+03 -7.79746E+03 -3.61362E+03
 -1.00173E+04 -1.43169E+03  1.17558E+04 -6.84287E+03  5.29108E+03 -8.66904E+03  3.57625E+03 -4.07326E+03
  7.53970E+03  6.02116E+03  8.39127E+03 -1.72414E+02  3.86456E+03  1.06654E+04 -6.48018E+03  6.24690E+03
