 $NMID ID='MM_0lb_SNR50_16hz_g55_10.RAW', FMTDAT='(8E13.5)'
 TRAMP=1., VOLUME=1. $END
  3.10546E+05 -1.82666E+03  3.40546E+05  2.52698E+05  8.29409E+04  3.36772E+05 -1.32156E+05  2.51871E+05
 -1.93980E+05  8.41239E+04 -1.13944E+05 -3.14717E+04  2.83312E+03 -5.48705E+04  5.65214E+04 -3.98654E+03
  3.66864E+04  5.51782E+04 -1.78875E+04  7.68194E+04 -6.13832E+04  6.55479E+04 -8.28598E+04  3.12500E+04
 -7.64157E+04 -1.19198E+04 -5.49150E+04 -5.16448E+04 -1.68287E+04 -6.78137E+04  2.67333E+04 -4.78269E+04
  4.04868E+04  4.61419E+03  1.65708E+04  5.34405E+04 -3.06991E+04  4.42624E+04 -6.54677E+04 -1.08569E+03
 -5.60798E+04 -5.51034E+04 -1.03193E+04 -7.02254E+04  3.65621E+04 -5.94351E+04  4.68340E+04 -1.20358E+04
  3.97632E+04  7.85117E+03  3.13752E+04  2.68799E+04  1.44549E+04  2.83536E+04 -5.52463E+03  3.03368E+04
 -1.98637E+04  1.44017E+04 -1.73807E+04 -9.63059E+03  7.38995E+03 -7.04758E+03  2.31435E+04  1.23130E+04
  2.88573E+03  3.98653E+04 -3.03752E+04  3.36531E+04 -6.39325E+04  3.09285E+03 -5.62512E+04 -4.25653E+04
 -1.09718E+04 -6.41051E+04  4.20010E+04 -4.46767E+04  5.63374E+04 -2.01360E+03  3.51827E+04  3.50982E+04
 -9.92799E+03  3.63894E+04 -3.02366E+04  1.73538E+04 -2.81904E+04 -1.06211E+04 -2.10341E+04 -1.00415E+04
 -9.06755E+03 -1.07275E+04  1.95126E+02 -1.63462E+04  9.15445E+03 -2.24957E+04  1.66566E+04 -1.17237E+04
  1.56348E+04  6.31768E+03 -2.72282E+03  1.35521E+04 -1.72097E+04 -2.75163E+02 -8.32735E+03 -3.79607E+04
  2.50143E+04 -4.20101E+04  4.50448E+04 -1.86478E+04  4.54148E+04  1.60207E+04  1.46722E+04  4.47801E+04
 -1.94666E+04  3.53055E+04 -2.28615E+04  3.29268E+03 -6.24058E+03 -2.69011E+04  1.63964E+04 -2.75229E+04
  3.58471E+04 -1.03455E+04  3.30308E+04  2.21813E+04  1.48856E+04  4.91368E+04 -9.15474E+03  4.94879E+04
 -3.19264E+04  3.35261E+04 -4.28413E+04  7.47659E+03 -3.82034E+04 -1.70326E+04 -2.29931E+04 -3.73802E+04
  3.04897E+03 -3.85041E+04  3.11928E+04 -1.63683E+04  3.20237E+04  1.41763E+04  5.68707E+03  2.08323E+04
 -1.30396E+04  7.31139E+03 -1.21943E+04 -6.53444E+03  9.04799E+03 -1.03518E+04  1.78672E+04  9.06949E+03
  1.23280E+04  2.41420E+04 -5.46680E+03  2.67537E+04 -2.41745E+04  7.48057E+03 -2.63020E+04 -4.06513E+03
 -1.83969E+04 -1.34557E+04 -7.04388E+03 -2.26109E+04  3.81046E+02 -1.78541E+04  1.64390E+04 -1.99274E+04
  2.10148E+04 -9.12120E+03  3.30741E+04  4.99159E+03  2.29861E+04  2.47252E+04  4.09699E+03  3.28797E+04
 -1.81845E+04  2.84414E+04 -2.57899E+04  1.32483E+04 -1.82636E+04 -1.53629E+04 -2.39010E+03 -1.42172E+04
  4.95271E+03 -9.01704E+02 -1.08537E+03  6.23478E+03 -1.66755E+04  4.69816E+03 -1.98841E+04 -6.02669E+03
 -1.18747E+04 -1.83851E+04  5.16356E+03 -1.91416E+04  1.36907E+04 -1.87570E+04  2.20630E+04 -4.59987E+03
  1.12667E+04  1.21943E+04 -4.99567E+03  2.12534E+04 -1.14496E+04  1.00247E+04 -1.80727E+04 -9.51679E+03
 -1.83954E+04 -1.43151E+04 -2.91965E+03 -1.99721E+04  1.35886E+04 -1.87179E+04  1.62452E+04 -6.31671E+03
  1.50436E+04  3.38734E+03  1.22000E+04  7.44710E+03  6.93208E+03  2.68129E+03  5.66510E+03 -6.37807E+02
  1.21845E+04  5.02899E+03  1.81083E+04  1.39926E+04  1.27715E+04  2.96208E+04 -2.89041E+03  2.80700E+04
 -1.86388E+04  2.42253E+04 -3.15872E+04  1.19196E+04 -3.60887E+04  4.30718E+02 -2.22263E+04 -1.96911E+04
 -8.36031E+03 -2.56951E+04  6.72082E+03 -2.28256E+04  2.45095E+04 -1.14126E+04  1.78080E+04  4.00008E+03
  4.83071E+03  1.56452E+04 -7.21373E+03  7.56126E+03 -1.54985E+04  2.61336E+03 -1.61640E+04 -6.27101E+03
 -6.00638E+02 -1.66075E+04  8.19839E+03 -1.07499E+04  1.12363E+04  1.66613E+03  2.47453E+03  7.14796E+03
 -3.77291E+03  3.40481E+03 -1.06312E+04 -6.82969E+03  1.67624E+03 -1.05470E+04  9.18164E+03 -1.38312E+04
  1.23898E+04 -3.94902E+03  1.41458E+04 -2.61194E+03  1.88487E+04  1.20158E+04  3.41663E+03  1.61535E+04
 -6.10560E+03  2.46625E+04 -1.21821E+04  1.18645E+04 -1.44580E+04  7.40960E+03 -7.90530E+03 -4.50720E+03
 -1.16332E+04 -2.37632E+03  1.75312E+03  8.74242E+02 -2.20795E+03  2.52850E+03 -1.39680E+03  1.97313E+03
 -7.84271E+03 -2.79569E+03 -8.92517E+03 -9.20005E+03 -5.24278E+03 -1.40002E+04  3.95009E+03 -1.26802E+04
  8.77771E+03 -5.48349E+03  7.27097E+02  7.48652E+03  2.82530E+03  6.33141E+03 -5.78257E+03 -1.33655E+03
 -6.41509E+03 -1.25018E+04  3.92889E+02 -4.38839E+03  9.49971E+03 -9.56204E+03  1.00434E+04 -3.20135E+03
  1.58727E+04 -2.76123E+03  1.28507E+04  1.00851E+04  2.91126E+03  1.04108E+04 -7.13283E+03  1.23476E+04
 -4.89286E+03  2.35772E+03 -6.48237E+03 -7.41450E+03  3.29183E+03 -8.43246E+03  7.83029E+03 -3.62981E+03
  9.00896E+03  5.73520E+03 -1.43983E+02  5.19292E+03 -5.72344E+03  8.41411E+03 -1.25086E+04  4.54669E+03
 -5.86529E+03 -2.96685E+03  4.63721E+03 -8.33025E+03  8.56455E+03 -1.74824E+03  3.17796E+03 -7.22894E+02
  5.96313E+03  1.34439E+03 -5.74126E+03  5.22329E+03 -5.45605E+03  1.14735E+03 -3.13816E+03 -5.87508E+03
 -1.02614E+04 -8.92300E+03  1.61826E+02 -1.07093E+04  9.14163E+03 -5.46604E+03  1.12237E+04  2.44574E+03
  8.16217E+03  9.45798E+03  6.53063E+02  9.30813E+03 -8.75737E+03  3.90056E+03 -7.64547E+03  1.08038E+03
 -9.47074E+03 -6.81420E+03 -5.75351E+03 -6.26952E+03 -7.45600E+02 -3.17711E+03  6.81458E+03 -5.62364E+02
 -1.34496E+03 -3.39659E+03 -3.38909E+03  2.50950E+03 -3.44213E+02 -1.80166E+03  9.78262E+02 -5.69709E+03
  5.70950E+03 -3.30128E+03  9.50170E+03 -2.78503E+03  5.67463E+03  2.72896E+03  3.06390E+03  1.03504E+04
  5.65394E+02  1.06639E+04 -6.58690E+03  7.13274E+03 -1.29060E+04  1.06560E+03 -5.54993E+03 -7.52976E+03
 -1.05717E+04 -1.17404E+04  2.92550E+02 -3.13201E+03 -1.66001E+03 -4.21850E+03  2.66701E+03 -6.27040E+03
  3.68719E+03  1.62161E+03  7.57242E+02 -1.63661E+03  1.79075E+02 -9.36199E+02  6.10716E+03 -4.71111E+02
  3.34966E+03  3.32521E+02 -6.03266E+02  8.41823E+03  6.70755E+01  2.91990E+03 -5.42185E+03 -6.74613E+02
 -5.69838E+03 -3.63369E+03 -5.08965E+03 -2.84563E+03 -8.98679E+02 -7.70439E+03 -1.53280E+03 -8.64061E+03
  1.13303E+04 -5.69847E+03  1.36495E+04  3.14416E+03  6.82137E+03  2.74352E+03 -2.44700E+03  1.23940E+04
 -4.13888E+03  8.89264E+03 -4.94764E+03 -3.68895E+03 -6.52163E+03  3.14850E+03 -7.33160E+01  3.18777E+03
 -2.17961E+03 -1.66907E+03 -3.65419E+03  6.43514E+02 -3.51338E+03  3.46027E+03 -1.01003E+04  1.18412E+03
 -6.56624E+03  1.08728E+03  1.14907E+03 -3.70519E+03  5.44849E+03 -5.58154E+02  4.46127E+03  8.69128E+02
  7.05705E+03  1.14696E+03  3.71889E+03  8.14379E+03 -2.56759E+03  6.20682E+03 -4.76981E+03  7.10527E+03
 -9.54383E+03  6.76490E+03 -6.61982E+03 -1.30818E+03 -1.65415E+03 -2.38288E+02  2.55804E+03 -2.03662E+02
  4.21679E+03 -1.64924E+03  2.90472E+03  1.53246E+03  1.49983E+03  3.62802E+03  3.01568E+03  2.28984E+03
 -2.21725E+02  3.76511E+02  1.99330E+03  4.77265E+01  2.37222E+03  4.18817E+03 -2.26371E+03  6.29503E+03
  6.03833E+02  5.45477E+03 -3.42712E+03  7.64497E+03 -8.18405E+03  1.25366E+03 -8.11687E+03 -1.98224E+03
 -2.12345E+03 -1.10278E+04  1.83495E+03 -5.29939E+03  2.06284E+03 -5.59038E+03  5.78347E+03 -2.24034E+03
 -2.16642E+03  4.94918E+03 -1.04759E+03  6.21842E+03 -1.49483E+03  2.65025E+03 -1.41569E+03 -4.52081E+03
 -1.87317E+03 -6.27050E+03 -5.53077E+03 -4.27175E+03  6.20235E+03 -2.06485E+03  1.41350E+03 -2.49211E+03
  3.31685E+03 -1.51279E+03  4.76102E+03  5.48780E+02 -2.05448E+03  1.75559E+03  8.03087E+02  3.06102E+03
  2.60603E+03 -3.09153E+03 -8.84278E+01  5.35480E+03  1.45898E+03 -1.32891E+03 -2.13787E+03  1.64742E+03
 -2.73201E+03 -5.02252E+02 -4.32148E+02  2.94088E+03 -4.15127E+03 -3.39352E+03 -3.02654E+03 -2.12016E+03
  1.17026E+03 -3.68533E+03  1.58413E+03  1.80772E+03 -1.28269E+03 -5.23239E+02 -6.53131E+03  1.31891E+03
 -1.49531E+03  3.58977E+03 -3.06460E+03  1.61423E+03  3.19968E+03 -2.44906E+03  4.81201E+03 -2.39660E+03
  9.15646E+02 -7.31838E+03 -1.77910E+02 -3.68079E+03  5.44116E+03 -9.35522E+02 -3.13861E+03  7.47945E+03
  2.84678E+03  1.60289E+03 -3.40483E+03 -2.37842E+03 -4.26162E+03  1.36601E+03  7.22953E+03 -2.76435E+03
  2.78808E+03  2.59848E+03  1.16033E+03  2.73693E+03  4.11838E+03  3.71628E+03 -1.65130E+03  5.64336E+03
 -1.82966E+03  5.42231E+03 -4.48770E+03  4.30562E+02 -1.84563E+03 -6.94818E+03  4.97247E+03 -4.56039E+03
 -9.41693E+02  1.43262E+03  4.79814E+02  9.24760E+02  2.05375E+03  8.74485E+02 -8.23565E+02 -1.22741E+03
 -2.02472E+03  9.50003E+02 -1.68775E+03 -1.38897E+03  2.34930E+03  4.42191E+03 -3.88504E+03  2.52399E+03
  3.70394E+03 -1.63669E+03 -1.66744E+02 -4.76112E+02 -4.75076E+03 -1.93777E+03 -3.16479E+03 -4.66628E+02
 -4.27064E+03 -3.05411E+03  2.42589E+03 -2.03794E+03 -3.05275E+03 -2.58000E+03  4.04848E+03 -3.49192E+03
  3.62624E+03  1.87116E+03  3.33320E+03  1.27627E+03 -1.09348E+03  2.15491E+03  1.88628E+03 -6.63086E+02
 -1.79571E+03  3.60932E+03 -1.60084E+03 -5.67371E+02 -8.95825E+02  3.17405E+01 -2.22719E+03  3.40039E+02
 -4.51266E+03 -8.08584E+01 -2.13427E+03 -1.29340E+03  2.74827E+03  4.24665E+02 -1.61253E+03 -6.80900E+02
  9.35102E+02 -1.82709E+03 -8.54607E+02 -5.56753E+02  5.23255E+03  7.42751E+02  6.15520E+02  1.75702E+03
 -1.29961E+03  2.12159E+03 -4.41996E+03  4.96396E+03 -2.95300E+03 -9.13716E+01  3.34349E+02 -4.53682E+03
 -3.75052E+03 -2.26794E+03  2.97330E+03 -2.53146E+03 -1.48035E+03 -3.89134E+03  3.18266E+03  2.52261E+03
  2.42008E+03  2.93300E+02  3.71169E+03  3.05433E+03 -6.08691E+02  1.92561E+02 -4.53680E+03  1.35523E+03
 -8.20640E+02  5.63435E+02  4.00067E+02  1.27289E+03 -2.14453E+03  1.36187E+02  1.74881E+03  5.57111E+00
  1.21395E+03 -2.61222E+03 -4.85018E+03  2.40599E+02  5.57706E+02 -3.26317E+03  3.52231E+03  2.50798E+03
  2.85956E+03  2.35718E+03  3.44665E+03 -9.55143E+02  1.55324E+03  1.25091E+02 -1.86188E+02 -3.34337E+03
  4.00866E+03  1.19072E+03 -1.71630E+03  2.11894E+03 -7.18106E+02  6.12047E+02  8.06973E+02 -2.36090E+02
 -2.04312E+03 -3.43122E+03 -3.11788E+03 -1.03717E+03 -3.55311E+03 -1.64466E+03 -8.18914E+02  3.17375E+03
 -2.14036E+03  2.42001E+03 -7.84925E+02  2.08302E+03  3.39440E+03 -1.99140E+02 -1.32341E+03 -1.66138E+03
  5.53966E+03  2.00254E+03  3.38472E+03  3.11909E+03 -2.37310E+03  3.08271E+03 -2.53777E+03  1.97816E+02
