 $NMID ID='MM_0lb_SNR50_16hz_g60_73.RAW', FMTDAT='(8E13.5)'
 TRAMP=1., VOLUME=1. $END
  3.13039E+05  7.20452E+02  3.37479E+05  2.51704E+05  8.24748E+04  3.39349E+05 -1.29944E+05  2.45273E+05
 -1.89550E+05  8.51708E+04 -1.12540E+05 -3.39358E+04  3.96555E+03 -5.15181E+04  5.52820E+04 -4.47929E+02
  3.01067E+04  5.43471E+04 -1.80922E+04  7.77467E+04 -6.35589E+04  6.02216E+04 -8.64312E+04  3.46085E+04
 -7.99715E+04 -1.47224E+04 -5.32835E+04 -5.47168E+04 -1.39588E+04 -7.32710E+04  2.85859E+04 -4.85980E+04
  3.92637E+04  3.82269E+03  1.82795E+04  4.40051E+04 -3.20862E+04  4.62746E+04 -7.21949E+04  4.96174E+02
 -5.49360E+04 -5.46641E+04 -1.42205E+03 -7.28789E+04  3.51660E+04 -5.27751E+04  4.57622E+04 -1.68118E+04
  4.69992E+04  1.24437E+04  3.26275E+04  2.96531E+04  1.40020E+04  2.51970E+04 -2.03837E+03  2.75162E+04
 -2.38322E+04  1.53783E+04 -1.85399E+04 -5.32305E+03  6.02771E+03 -6.31083E+03  2.00973E+04  1.04970E+04
  5.77633E+03  3.70204E+04 -3.18608E+04  3.83260E+04 -6.51409E+04  2.07709E+03 -5.93428E+04 -4.35182E+04
 -1.16454E+04 -6.65533E+04  4.32787E+04 -4.43441E+04  6.12554E+04 -1.07936E+03  3.25778E+04  3.17279E+04
 -6.32175E+03  3.20084E+04 -3.37474E+04  1.67276E+04 -2.90994E+04 -6.68781E+03 -1.64252E+04 -9.18985E+03
 -6.94505E+03 -1.26245E+04 -2.28959E+02 -1.71920E+04  9.84299E+03 -2.00136E+04  1.09451E+04 -1.74654E+04
  1.01327E+04  3.51750E+03 -1.15647E+04  1.56850E+04 -2.24901E+04  6.57573E+02 -8.56661E+03 -3.54287E+04
  2.24604E+04 -4.20491E+04  4.72829E+04 -1.86296E+04  4.09833E+04  1.72346E+04  1.02259E+04  4.77408E+04
 -1.51204E+04  3.56457E+04 -2.66617E+04  4.64670E+03 -1.31881E+04 -2.79462E+04  1.76790E+04 -3.56763E+04
  4.09466E+04 -1.08674E+04  3.56092E+04  2.46629E+04  1.88671E+04  4.23892E+04 -6.65155E+03  4.73439E+04
 -3.07316E+04  3.34801E+04 -4.00339E+04  7.90202E+03 -4.25914E+04 -1.65052E+04 -2.16522E+04 -4.08434E+04
  6.94827E+03 -3.93470E+04  3.00466E+04 -1.62077E+04  2.51868E+04  9.82978E+03  2.05214E+03  1.32730E+04
 -1.33422E+04  4.15556E+03 -8.32969E+03 -3.29361E+03  7.63985E+03 -1.18124E+04  1.43871E+04  5.54918E+03
  1.81063E+04  2.54127E+04 -5.62285E+03  2.36794E+04 -2.58406E+04  7.50891E+03 -2.79156E+04 -5.87048E+03
 -1.93402E+04 -1.86444E+04 -1.22300E+04 -1.88231E+04  1.11351E+03 -1.98672E+04  1.75775E+04 -1.90076E+04
  2.53571E+04 -1.25722E+04  3.42213E+04  1.70369E+03  2.02668E+04  2.21015E+04  3.16884E+03  3.81712E+04
 -2.01752E+04  3.11883E+04 -2.59153E+04  1.22995E+04 -1.92948E+04 -1.05472E+04 -1.03448E+04 -9.30859E+03
  3.06721E+03 -2.82454E+03 -4.91114E+03  8.02696E+03 -1.64891E+04  3.90193E+03 -1.67830E+04 -1.05266E+04
 -1.04717E+04 -1.76025E+04  6.36255E+03 -2.01301E+04  1.94445E+04 -1.77793E+04  1.79394E+04 -1.05860E+03
  1.31406E+04  1.42244E+04 -2.70309E+03  1.86435E+04 -8.02105E+03  9.50106E+03 -1.73674E+04 -4.42048E+03
 -1.42010E+04 -1.06533E+04 -1.44500E+03 -2.30274E+04  8.81444E+03 -1.62694E+04  2.02598E+04 -1.25344E+04
  2.08540E+04  4.47019E+03  1.28382E+04  1.23280E+03  1.23201E+04  2.01199E+03  6.62592E+03  6.19964E+02
  2.04130E+04  2.89478E+03  1.83043E+04  1.72225E+04  1.24202E+04  3.23016E+04  3.47627E+03  3.33931E+04
 -1.83177E+04  2.23498E+04 -3.44435E+04  1.36533E+04 -3.04792E+04 -2.73445E+03 -2.90730E+04 -1.65726E+04
 -1.43837E+04 -3.28352E+04  7.11331E+03 -2.02424E+04  2.05136E+04 -1.65499E+04  1.95671E+04  4.74279E+03
  6.82249E+03  1.27405E+04 -6.17523E+03  1.18025E+04 -1.83596E+04  6.55584E+03 -1.51137E+04 -1.14111E+04
 -3.53846E+02 -1.21608E+04  1.16989E+04 -9.34141E+03  8.95387E+03  3.83645E+03  5.31274E+03  8.98882E+03
 -6.30507E+03  2.65112E+03 -7.26361E+03 -8.22096E+03  1.35584E+03 -9.55427E+03  5.70199E+03 -8.23598E+03
  1.37081E+04 -8.11390E+03  1.41713E+04  3.29282E+03  1.66935E+04  1.08162E+04  1.04270E+04  1.84845E+04
 -4.34206E+03  2.20721E+04 -1.05394E+04  1.58072E+04 -1.48271E+04  3.45852E+02 -1.08725E+04 -6.33411E+03
 -8.01926E+03 -1.26780E+03 -9.92287E+02  2.40089E+03 -3.41576E+03  3.20646E+03 -3.43991E+03  1.12431E+04
 -1.06911E+04  5.10218E+03 -7.48931E+03 -9.76289E+03 -6.19540E+03 -1.39493E+04  6.76398E+03 -1.26315E+04
  1.02227E+04 -9.13538E+03  2.91416E+03 -7.31165E+02  3.78101E+03  7.57690E+02 -4.15338E+03  2.39956E+03
 -2.48890E+03 -5.55656E+03 -1.03865E+03 -1.36510E+04  4.63260E+03 -1.16748E+04  1.26503E+04 -5.41558E+03
  2.05679E+04  3.22987E+03  1.13077E+04  8.09418E+03 -7.83944E+02  1.32791E+04 -9.03084E+03  1.24408E+04
 -9.73710E+03  4.45126E+03 -8.13502E+03 -4.43552E+03  2.70506E+03 -2.46241E+03  4.19622E+03 -7.24954E+03
  7.48763E+03  7.53862E+02 -9.28515E+02  1.00958E+04 -2.03675E+03  5.57475E+03 -6.42697E+03  1.35828E+03
 -8.65545E+03 -6.64051E+03  1.29497E+03 -7.57085E+03  7.01238E+03 -5.53918E+03  1.74802E+03  7.94335E+02
 -1.16293E+03  4.31486E+03 -7.42729E+03  6.09625E+03 -1.04602E+04  4.70554E+03 -6.49769E+03 -4.48455E+03
 -4.72745E+03 -4.56908E+03 -2.10302E+03 -1.38470E+04  8.91184E+03 -2.20355E+03  1.18080E+04  7.39290E+02
  8.35412E+03  4.40098E+03  3.53306E+03  1.13212E+04 -2.02045E+03  1.72160E+03 -5.66469E+03  1.27902E+02
 -6.52970E+03 -5.37008E+03  9.47445E+02 -8.25022E+03  2.67806E+03 -6.13195E+03  7.79615E+03 -3.06380E+03
  6.56223E+03 -2.69243E+03  8.42838E+02 -1.19829E+03  6.09726E+03 -2.02191E+03  1.92022E+03 -7.08255E+03
  2.71030E+03 -3.20844E+03  1.06427E+04  1.85871E+03  1.14904E+04  7.02956E+03  1.11978E+04  8.08826E+03
 -1.19348E+03  1.45354E+04 -8.16158E+03  9.01079E+03 -1.64870E+04  3.21452E+03 -1.36952E+04 -5.92013E+03
 -4.12732E+03 -7.03276E+03  1.18997E+03 -1.58370E+03  2.38339E+03 -2.23347E+03  2.89272E+03 -8.53103E+03
  4.80234E+03 -4.33273E+03  5.14760E+03 -3.63947E+03  7.26057E+03 -1.80698E+03  4.56954E+03  2.37229E+03
  9.69798E+03 -6.04381E+02  2.22294E+03  6.88709E+03  2.36304E+02  2.62144E+03 -5.44938E+03  5.29653E+03
 -6.18821E+03 -3.24541E+03 -4.26008E+03 -7.08386E+03  7.52102E+02 -7.40840E+03  1.14138E+03 -1.20224E+04
  7.07960E+03 -3.86237E+03  1.06016E+04  6.42578E+02  5.80794E+03  1.26914E+04  6.85108E+03  1.08115E+04
 -1.83883E+03  6.84900E+03 -5.03932E+03  2.79361E+03 -7.37191E+03 -2.99164E+03 -1.81870E+03 -7.36222E+03
 -9.59426E+02 -1.50345E+03 -2.85987E+03  1.68720E+03 -6.63530E+03  7.14373E+03 -3.38989E+03 -3.52045E+03
 -6.81390E+03 -5.70517E+03 -5.62225E+02 -7.66471E+03  3.40788E+03 -5.03291E+03  4.13366E+03 -5.80637E+03
  7.12501E+03  4.63725E+03  5.11683E+03  6.39672E+03  4.86678E+03  7.92334E+03 -4.42315E+03  8.41377E+03
 -9.01723E+03 -1.65547E+03 -5.97987E+02 -7.69829E+03 -2.15658E+03 -1.00541E+04  2.28591E+03 -3.60887E+03
  2.59300E+03  4.88869E+02 -2.32194E+03  9.61701E+02  4.32999E+03 -2.14497E+03  6.53072E+02  3.65610E+03
  4.01117E+03  3.12244E+03  1.28474E+03  3.39509E+03  2.41937E+03 -1.21380E+03 -2.30150E+03  4.83835E+03
  1.29159E+02  1.12539E+04 -1.25879E+03  3.42076E+03 -9.54087E+03 -2.34690E+03 -5.29094E+03 -1.19627E+02
 -4.06188E+03 -9.78681E+03 -8.15332E+02 -6.74801E+03  8.35379E+02 -5.31321E+03  1.13372E+03  1.56947E+03
  7.60250E+03  6.92091E+03 -1.66899E+03 -1.88928E+03 -7.71201E+02  2.59792E+03 -3.93416E+03 -3.43949E+03
 -3.60209E+03 -3.14755E+03  1.77989E+03 -5.08151E+02  3.21285E+03 -3.65249E+03  4.94879E+03 -5.35324E+03
 -9.70708E+02  5.64358E+02  2.88573E+03 -3.41471E+03 -2.90166E+03  1.33615E+03  1.63058E+03 -3.92455E+03
 -1.90654E+03  4.03394E+03  6.77834E+03 -3.51741E+03  2.53770E+03  1.14990E+03  3.90643E+03  1.73188E+03
 -3.15208E+03  2.39527E+03 -1.91609E+03  3.26470E+03 -4.95811E+03  5.52601E+01 -6.35089E+02 -2.59933E+02
  2.76564E+03 -1.08374E+03  3.30433E+03  1.74609E+03  3.05052E+03  2.27116E+03 -9.50709E+00  2.77029E+03
 -3.55989E+03  1.28095E+03 -3.35545E+03 -2.24319E+03  3.97092E+03  1.84367E+03 -1.63679E+03 -5.23643E+02
  3.73793E+03  1.43410E+03  6.16928E+02 -3.57966E+03 -3.19088E+03  3.12423E+03  4.08491E+02  3.03488E+03
  1.19525E+03 -1.16681E+03 -1.65060E+03 -5.38249E+03  6.19083E+03 -2.48318E+03  3.13126E+03  7.43955E+02
  4.21052E+02  4.82142E+03  3.11909E+03  2.81265E+03  1.63987E+03  4.54148E+03  2.00824E+03  3.46077E+03
 -2.30112E+03 -4.54523E+01 -3.51876E+03  9.53350E+02 -8.24105E+03  7.12333E+02  2.86724E+03 -2.43357E+03
  3.28990E+03  1.21682E+03  3.82869E+03  2.22850E+03  1.81339E+03  2.86847E+03  2.25000E+03 -3.81059E+02
  1.96553E+02  3.34021E+03  2.09890E+03  2.37959E+03 -9.69016E+02 -1.76938E+03 -2.34951E+03  4.40951E+03
 -3.22082E+03  2.65189E+03 -3.99536E+03 -4.50783E+03 -8.07215E+02 -4.43272E+03 -3.17281E+03 -7.80234E+02
  1.71025E+03  1.19314E+03  3.74938E+03 -5.10678E+03  4.15901E+03 -4.37811E+03  5.51670E+03  4.24314E+02
  1.26789E+03 -2.16727E+03  7.00368E+03 -1.25394E+03 -2.53150E+03  6.51412E+03 -2.79163E+03 -2.50069E+03
 -6.37250E+03  2.09545E+03 -2.42282E+03 -2.08531E+03  1.12051E+03 -5.49723E+03 -5.85009E+03  2.08479E+03
 -3.10426E+03  2.11014E+03 -3.44147E+02 -2.18445E+01  6.41849E+02  6.83177E+02 -5.68646E+02  1.50832E+03
  1.30378E+03  1.05050E+03  4.66628E+02  5.03506E+02  3.25000E+03  2.12793E+03 -6.97870E+01  4.48210E+03
  9.55056E+02  1.35564E+03 -1.58595E+03  2.29685E+03 -3.91742E+03  2.24766E+03 -5.38710E+03 -8.80006E+03
 -1.50416E+03 -6.33260E+03  4.32488E+03 -1.93275E+03 -2.15729E+03 -3.27556E+03  2.95411E+03  8.22917E+02
 -7.92936E+02  2.42462E+03 -2.09193E+02  4.69286E+03 -6.49560E+02 -1.69676E+02 -4.46280E+03 -8.06635E+01
  1.63818E+03 -2.60199E+03  4.35927E+03 -2.18986E+03  2.43789E+03  3.22564E+03 -7.72852E+02  2.27896E+03
  8.88500E+02  2.23344E+03 -4.12329E+03  1.51965E+03  1.08878E+02  2.23941E+03  1.55100E+03 -1.03012E+03
 -1.35840E+03  2.02619E+03 -5.65962E+02  3.92236E+03  5.79722E+03 -1.43859E+03  2.59576E+03  9.06879E+02
 -2.14337E+03 -1.23323E+03 -5.90785E+02  7.53025E+02  2.29896E+03  1.61988E+03 -2.11899E+03 -2.70630E+03
 -1.22507E+03  1.55600E+03  2.03485E+02  2.98330E+03 -2.96056E+03  1.30063E+03 -1.52122E+03 -4.16377E+03
  9.03758E+02  3.72701E+03 -2.64051E+02 -2.65746E+03 -1.31714E+03 -5.46003E+03 -2.41658E+03 -3.43157E+03
  4.55753E+03 -2.89174E+03  4.99042E+01  2.85212E+03 -2.57378E+02  4.20392E+03 -7.56207E+02  1.64134E+03
