 $NMID ID='MM_0lb_SNR50_17hz_g60_2.RAW', FMTDAT='(8E13.5)'
 TRAMP=1., VOLUME=1. $END
  3.06740E+05 -9.09906E+02  3.37491E+05  2.50753E+05  7.76980E+04  3.37405E+05 -1.30025E+05  2.49557E+05
 -1.91165E+05  8.00377E+04 -1.13551E+05 -3.36646E+04  8.44270E+03 -4.76573E+04  5.31135E+04 -5.07790E+02
  3.72761E+04  5.11366E+04 -1.96169E+04  7.57740E+04 -5.82519E+04  6.52395E+04 -8.74078E+04  3.47030E+04
 -7.86867E+04 -1.31888E+04 -5.85836E+04 -4.89018E+04 -1.34145E+04 -6.78365E+04  3.11748E+04 -4.43517E+04
  3.74067E+04  3.52300E+03  1.40707E+04  5.24698E+04 -3.76139E+04  4.85799E+04 -7.25691E+04 -5.31912E+03
 -5.06953E+04 -5.68461E+04 -5.36195E+03 -7.86657E+04  3.24195E+04 -5.33813E+04  4.59121E+04 -1.26630E+04
  4.51450E+04  6.95277E+03  3.08943E+04  2.28967E+04  1.60567E+04  3.48167E+04 -3.16201E+03  2.90014E+04
 -2.05127E+04  1.08691E+04 -1.97908E+04 -3.60304E+03  5.94738E+03 -7.58287E+03  2.12756E+04  1.50102E+04
  6.19323E+03  3.34775E+04 -3.29173E+04  3.76644E+04 -6.25201E+04  5.69233E+03 -5.30643E+04 -3.95598E+04
 -1.21627E+04 -6.50508E+04  4.09450E+04 -4.39365E+04  5.21502E+04 -1.36945E+03  3.24207E+04  3.03706E+04
 -8.57824E+03  3.80568E+04 -2.82675E+04  1.84532E+04 -2.85579E+04 -8.80317E+03 -1.87297E+04 -1.20595E+04
 -1.03550E+04 -1.21449E+04  2.06332E+02 -2.31440E+04  1.20172E+04 -2.55738E+04  1.10617E+04 -1.63788E+04
  1.05935E+04  8.05888E+03 -1.11861E+04  1.07656E+04 -2.07465E+04 -3.89548E+03 -6.24054E+03 -3.09836E+04
  2.42269E+04 -4.55427E+04  4.42610E+04 -1.93550E+04  3.81660E+04  2.27115E+04  1.08128E+04  4.58720E+04
 -1.34923E+04  3.24184E+04 -2.65312E+04  5.52755E+03 -5.79913E+03 -2.91832E+04  2.50518E+04 -3.29159E+04
  3.66391E+04 -1.12097E+04  3.28688E+04  2.09028E+04  1.99755E+04  4.55464E+04 -6.60943E+03  5.09522E+04
 -3.05877E+04  3.08330E+04 -4.02135E+04  9.83200E+03 -4.21546E+04 -1.98452E+04 -2.12006E+04 -3.57165E+04
  7.11892E+03 -3.66750E+04  2.95263E+04 -1.12627E+04  3.27714E+04  9.68840E+03  3.43859E+03  1.91350E+04
 -1.66164E+04  4.71766E+03 -1.29276E+04 -1.08756E+04  7.35679E+03 -8.65589E+03  1.78481E+04  4.61611E+03
  1.23185E+04  2.43133E+04 -7.44418E+03  2.25977E+04 -2.07741E+04  8.69711E+03 -2.81719E+04 -6.99416E+03
 -2.07768E+04 -1.88145E+04 -6.79578E+03 -1.54701E+04  3.89210E+03 -1.54904E+04  1.17022E+04 -1.53693E+04
  2.38347E+04 -1.26226E+04  2.91172E+04  5.28858E+02  2.29998E+04  2.09326E+04  1.87259E+03  3.56053E+04
 -1.68873E+04  3.31387E+04 -3.03482E+04  1.10181E+04 -2.13986E+04 -1.21148E+04  3.10292E+03 -1.28479E+04
  3.69770E+02  1.44143E+03 -6.95319E+02  8.36829E+03 -1.21109E+04  9.52522E+03 -1.44287E+04 -1.02146E+04
 -8.93980E+03 -1.25679E+04  1.44489E+02 -2.12928E+04  1.34244E+04 -1.54508E+04  1.61055E+04 -2.46598E+03
  9.46611E+03  1.40856E+04 -3.90205E+03  1.62957E+04 -1.46336E+04  8.46512E+03 -1.84192E+04 -1.57761E+03
 -1.04458E+04 -1.47440E+04 -4.02580E+02 -2.20420E+04  1.16060E+04 -1.71110E+04  2.13251E+04 -6.62242E+03
  1.73298E+04  1.41280E+02  9.94383E+03  2.20217E+03  7.50031E+03  9.77882E+02  8.50227E+03 -1.12939E+03
  1.25726E+04  8.57348E+03  1.81100E+04  1.39528E+04  6.09313E+03  3.36260E+04 -5.48468E+03  2.88552E+04
 -1.85503E+04  2.46272E+04 -2.16806E+04  9.26691E+03 -3.09311E+04 -5.98599E+03 -2.38707E+04 -1.52935E+04
 -1.11114E+04 -2.53713E+04  7.13412E+03 -2.18763E+04  2.21881E+04 -1.51353E+04  1.89148E+04  5.40149E+03
  4.00861E+03  1.73271E+04 -4.87247E+03  1.05790E+04 -1.46615E+04  5.45329E+03 -1.77769E+04 -6.90243E+03
 -3.04421E+03 -1.65772E+04  6.63300E+03 -1.12156E+04  7.63812E+03 -2.39306E+03  3.24929E+03  6.91130E+03
 -9.74716E+03  4.98019E+03 -3.04914E+03 -5.20448E+03 -3.06728E+03 -8.76348E+03  1.26939E+04 -1.31021E+04
  1.38559E+04 -3.09459E+03  1.70245E+04  6.99823E+03  9.51476E+03  1.43164E+04  3.09246E+03  1.62643E+04
 -3.35733E+03  2.07441E+04 -1.04672E+04  1.44002E+04 -1.55374E+04  2.19874E+03 -1.00074E+04 -5.63554E+03
 -2.82014E+03 -6.52070E+03 -1.68646E+03  5.26631E+02 -2.42014E+03  4.27566E+03 -3.06801E+03  8.57786E+03
 -8.37584E+03 -3.84567E+03 -7.21592E+03 -5.70147E+03 -1.48074E+03 -1.25919E+04 -3.57944E+02 -1.04866E+04
  1.03174E+04 -5.80792E+03  6.70876E+03  2.90852E+03  2.05624E+03  2.35329E+03 -3.57082E+03 -5.78357E+03
 -2.96874E+03 -1.02685E+04 -2.57471E+03 -1.01339E+04  1.05710E+04 -8.14576E+03  1.32671E+04 -4.79774E+03
  1.58141E+04  2.20706E+03  1.34306E+04  6.54484E+03 -9.81137E+02  1.01502E+04 -5.43250E+03  1.26562E+04
 -6.86220E+03  2.31206E+03 -8.73025E+03 -3.90318E+03 -2.02340E+03 -2.56698E+03  3.06471E+03 -3.46651E+02
  5.43758E+03  6.00947E+03 -2.65658E+03  4.25140E+03 -4.61644E+03  2.60555E+03 -9.88423E+03 -2.15419E+03
 -1.05302E+04 -4.16579E+03  1.43558E+03 -4.16724E+03  4.24010E+03 -6.34973E+03  6.39806E+03  1.93740E+02
 -4.51513E+02  4.20405E+03 -7.91913E+03  4.70974E+03 -1.24161E+03 -1.80400E+03 -5.64624E+03  3.43476E+02
 -4.99296E+03 -6.78366E+03 -2.15071E+03 -1.00045E+04  8.48145E+03 -4.81177E+03  6.72436E+03  1.42007E+03
  1.07638E+04  6.42500E+03  4.78588E+02  7.82582E+03 -4.29677E+03  1.77396E+03 -5.67841E+03  1.96850E+02
 -1.03790E+04 -5.61000E+03 -3.58706E+03 -6.98857E+03 -1.74008E+01 -5.06942E+03  6.02785E+03 -4.16907E+03
  1.15076E+03 -1.50182E+03 -5.34075E+00  4.05464E+03  5.94336E+03 -2.50019E+03  2.24898E+03 -7.43512E+03
  4.97613E+03  1.41667E+02  7.37910E+03 -2.15276E+02  9.96337E+03  6.78356E+03  6.19683E+03  1.12801E+04
 -4.55078E+03  1.41550E+04 -9.15026E+03  8.47753E+03 -7.99557E+03 -1.13484E+03 -9.51088E+03 -3.63255E+03
 -2.93900E+03 -8.00263E+03 -2.53813E+03 -4.87605E+03 -8.66015E+02 -5.65381E+02 -2.28653E+03 -2.21166E+03
  7.90035E+02 -1.34549E+03 -2.07358E+03 -2.64574E+02 -9.94778E+02 -1.03682E+03  7.64113E+03  2.50623E+02
  1.36955E+03  4.07422E+03  1.64114E+03  7.42575E+03 -2.78815E+03  5.44322E+03 -3.58246E+03  5.98759E+03
 -6.48639E+03 -4.40420E+03 -6.72630E+03 -2.50694E+03 -2.35401E+03 -7.80665E+03  2.42035E+03 -8.87063E+03
  8.87430E+03 -3.20802E+03  1.00210E+04  3.81430E+02  8.18560E+03  5.49714E+03  6.30660E+03  1.34854E+04
 -7.40783E+03  3.62107E+03 -4.71038E+03  4.98789E+03  4.46691E+02 -1.94105E+03 -1.47913E+03 -1.72261E+03
 -6.62016E+02  2.33337E+03 -9.96215E+02 -1.02462E+03 -7.31022E+03  1.87058E+03 -5.57986E+03 -2.05006E+03
 -8.75130E+02 -7.05498E+03  4.69908E+02 -7.37826E+03  8.05756E+03 -7.94907E+03  5.98020E+03  2.58575E+03
  7.69266E+03  8.34869E+03  2.12229E+03  4.95158E+03 -9.58286E+02  1.09210E+04 -6.25991E+03  6.07511E+03
 -4.16121E+03  4.46291E+03 -6.07834E+03  1.82924E+02 -3.56160E+03 -8.06561E+03  3.02026E+03 -2.70145E+03
  1.10479E+03 -5.40942E+03 -3.95832E+02  6.35846E+02 -2.47844E+02  2.83972E+03 -1.53052E+03 -1.63135E+03
  2.70425E+03  3.12044E+03 -2.23185E+03  2.33851E+03  1.95769E+03  2.32506E+03 -2.96817E+02  4.94377E+03
 -7.60703E+02  3.92443E+03 -4.93439E+03  4.69692E+03 -1.70578E+03 -4.97478E+02 -8.79474E+03 -1.22115E+03
 -1.80487E+03 -8.34828E+03  5.05506E+03 -3.57020E+03  7.63213E+03 -3.98082E+03  7.81551E+03  1.12343E+03
  4.29835E+03  2.77451E+03  4.99354E+03 -9.95659E+02  3.25850E+03  6.91935E+02 -8.82427E+02 -3.29373E+03
 -5.83400E+03  1.06664E+03  1.70637E+03 -1.64962E+03  3.03928E+03 -4.04948E+03  9.15766E+02  6.77743E+02
 -1.54090E+03 -3.65379E+03 -3.28191E+02  3.77329E+02  1.38964E+03  1.63216E+00 -1.65804E+03 -2.16153E+02
 -8.88538E+02 -6.52564E+02  7.08725E+03  2.26955E+03  1.29151E+03  1.33042E+03 -1.39276E+03  5.51846E+03
  1.70296E+02  2.09359E+03 -2.05559E+03 -1.81808E+03  6.25443E+02  2.84159E+03  1.54878E+03 -5.38638E+02
  3.57251E+03 -1.43619E+03  1.06736E+03  6.60981E+02  7.86077E+02  5.20507E+03 -1.57296E+03  9.01508E+02
 -3.31506E+03 -1.78807E+03  3.36596E+03 -3.25157E+03 -1.44926E+03 -1.31650E+03 -4.39549E+02 -5.76457E+03
  9.74623E+02 -1.94974E+03  6.84500E+02  2.66395E+03 -4.76510E+02 -8.59936E+02  5.84879E+03  6.91576E+02
  3.45430E+02 -1.65233E+03 -2.09426E+03  4.20568E+03 -2.87541E+03 -1.26016E+03  5.38079E+03 -6.11268E+02
  9.18993E+02  4.98795E+03  3.51631E+02  8.58136E+02  1.44448E+03 -4.78292E+01 -9.00763E+02  2.37136E+03
  4.07496E+03 -3.28667E+03 -2.21996E+03  1.90741E+03 -5.00222E+02 -5.46087E+03  1.33056E+03 -1.51198E+03
  2.77446E+03  2.84464E+03  1.21527E+03  3.67425E+03  5.75346E+03  1.05552E+03  8.80638E+02  5.75168E+03
 -1.52899E+03  5.09852E+02 -3.25369E+03  2.49132E+03  2.97819E+03  4.09649E+02 -4.66750E+02  2.97080E+03
  6.73796E+03  5.97940E+02 -1.01835E+03 -6.98319E+02 -1.96177E+03  2.70721E+03 -3.51138E+03 -1.43974E+02
  2.12704E+03 -6.73765E+03  4.18437E+03 -5.87166E+03 -4.46077E+02 -3.65754E+03  6.39445E+03 -3.74258E+03
  3.94247E+03 -1.59174E+03  1.10579E+02 -2.45199E+03 -1.43269E+03  3.05408E+03 -1.37887E+02  5.24993E+03
  1.23019E+03  1.34760E+03 -2.29200E+03 -2.40485E+03 -7.61839E+02  2.24262E+03 -1.82582E+03 -2.12421E+03
  1.99002E+03 -1.30258E+03 -7.19220E+02  2.21263E+03  1.39774E+03 -3.72791E+03  7.62360E+02 -3.99482E+03
  5.42941E+02 -2.02823E+03 -1.66742E+03 -1.52805E+03 -1.22288E+03 -1.74366E+03  1.84366E+03  3.41182E+03
 -2.09897E+03  1.25291E+03 -5.21885E+03  1.24212E+03 -1.31410E+02 -3.23513E+03 -3.68591E+03 -7.54156E+01
 -3.17837E+03 -8.19615E+03 -2.28668E+03 -2.87210E+03 -2.64107E+03  9.28095E+02 -2.15552E+03 -1.46786E+03
 -1.13442E+03  7.72063E+01  6.58681E+01 -4.17139E+02  5.83211E+03  2.92414E+02  5.44075E+03  1.67725E+03
  3.04245E+02  7.01654E+02  7.08975E+02  3.45248E+03 -1.37324E+02  1.84804E+03  1.02785E+03  2.15462E+03
 -1.17296E+03  3.64232E+03 -3.20669E+02  7.30089E+02 -1.86884E+03 -1.76625E+02  3.08460E+03  8.07749E+02
  1.12050E+03  4.98635E+03 -3.96368E+03 -5.20757E+03  1.30675E+02 -4.67030E+03 -1.28881E+03  3.11997E+03
 -5.02086E+03 -2.42853E+03  1.89965E+03  4.81903E+03 -1.72837E+03 -1.20369E+03 -4.28472E+03 -3.10549E+03
 -1.30449E+03 -5.85492E+03  5.45049E+03 -5.11183E+03 -1.66877E+03 -4.37856E+03 -1.04711E+02  5.91192E+02
  8.86644E+02  2.02125E+03 -1.55780E+03 -6.18668E+03  5.40677E+03  7.85911E+02 -2.21749E+03  3.53471E+03
  1.70100E+02  7.87855E+02 -1.10453E+03 -7.18926E+02 -5.40486E+03  2.76337E+03  1.43916E+01 -8.67769E+02
