 $NMID ID='MM_0lb_SNR50_13hz_g50_72.RAW', FMTDAT='(8E13.5)'
 TRAMP=1., VOLUME=1. $END
  3.07922E+05 -2.23138E+03  3.37921E+05  2.52380E+05  7.98649E+04  3.37289E+05 -1.33385E+05  2.52688E+05
 -1.94958E+05  8.24584E+04 -1.17275E+05 -2.87694E+04 -2.02937E+03 -5.11038E+04  5.62347E+04  4.28754E+02
  3.39542E+04  5.37087E+04 -1.34090E+04  8.04811E+04 -6.35156E+04  6.26559E+04 -8.34947E+04  3.80921E+04
 -7.90868E+04 -1.32820E+04 -5.77897E+04 -5.09153E+04 -6.71690E+03 -6.55879E+04  2.92286E+04 -4.64500E+04
  4.34898E+04  8.13382E+02  1.95965E+04  4.75841E+04 -4.11475E+04  5.03054E+04 -6.63112E+04  1.42757E+03
 -4.96659E+04 -5.43945E+04 -5.28948E+03 -7.57608E+04  3.17192E+04 -5.42421E+04  4.87019E+04 -1.79576E+04
  4.60095E+04  1.12938E+04  3.35107E+04  2.26649E+04  1.57497E+04  3.29743E+04 -2.59903E+03  2.76304E+04
 -2.18400E+04  1.06628E+04 -1.79083E+04 -6.00886E+03  9.75636E+03 -3.87967E+03  1.72489E+04  1.17407E+04
  6.93894E+03  3.27496E+04 -2.93605E+04  4.21420E+04 -6.08262E+04 -1.03876E+03 -5.91009E+04 -4.13485E+04
 -1.37530E+04 -6.33001E+04  4.08618E+04 -4.82992E+04  5.79220E+04  2.63875E+03  3.18366E+04  3.67234E+04
 -5.84606E+03  3.90384E+04 -2.78794E+04  1.69211E+04 -3.51810E+04 -8.80189E+03 -1.51124E+04 -1.04563E+04
 -7.30516E+03 -1.61909E+04 -2.53029E+03 -1.73364E+04  5.38980E+03 -2.27231E+04  1.23831E+04 -1.66965E+04
  7.93166E+03  7.48186E+03 -5.75967E+03  9.44734E+03 -2.47309E+04 -3.20052E+03 -1.39949E+04 -3.06803E+04
  1.81892E+04 -4.74133E+04  5.22106E+04 -1.67181E+04  4.92593E+04  1.96863E+04  1.36251E+04  4.36243E+04
 -1.89437E+04  3.20859E+04 -2.75384E+04  1.24383E+03 -1.00229E+04 -3.21935E+04  2.01267E+04 -3.52826E+04
  4.45455E+04 -6.60949E+03  3.92189E+04  1.76095E+04  1.56114E+04  4.53993E+04 -3.39658E+03  5.31518E+04
 -3.14176E+04  3.64083E+04 -3.93570E+04  1.00220E+04 -3.80555E+04 -1.89053E+04 -2.33034E+04 -3.57815E+04
  7.12920E+03 -4.33384E+04  2.62255E+04 -1.56941E+04  3.14308E+04  1.42974E+04  8.22358E+03  2.00922E+04
 -1.33624E+04  8.03471E+03 -1.36494E+04 -5.41433E+03  3.23882E+03 -1.11659E+04  2.27492E+04  7.18294E+03
  1.32017E+04  1.45544E+04 -4.12898E+03  2.86293E+04 -2.01677E+04  1.47159E+04 -2.40230E+04 -1.15830E+04
 -2.22513E+04 -1.74302E+04 -5.04292E+03 -2.42730E+04  4.89688E+03 -1.81799E+04  1.76820E+04 -1.91385E+04
  2.59735E+04 -1.40285E+04  3.19842E+04  1.00456E+03  2.96096E+04  1.79274E+04  2.72924E+03  3.50434E+04
 -2.50233E+04  2.29217E+04 -3.15221E+04  6.58024E+03 -2.06909E+04 -9.20171E+03 -5.81029E+03 -9.29086E+03
  3.53584E+03 -4.67700E+03 -8.64693E+03  9.81004E+03 -2.11708E+04  6.96149E+03 -1.96180E+04 -8.37383E+03
 -1.14627E+04 -1.86122E+04  5.34770E+03 -2.74358E+04  9.62372E+03 -2.09126E+04  1.82864E+04 -1.35491E+03
  1.02423E+04  1.68854E+04 -1.40019E+03  1.94325E+04 -1.11372E+04  1.07086E+04 -2.05148E+04 -4.64025E+03
 -1.12167E+04 -1.88189E+04  1.26972E+03 -2.40392E+04  8.69159E+03 -1.70872E+04  1.97999E+04 -7.96151E+03
  2.30497E+04  2.65971E+03  1.56616E+04 -1.37296E+03  6.92958E+03  1.28283E+03  3.50975E+03 -2.65265E+03
  2.05975E+04 -1.51874E+03  2.01143E+04  1.73174E+04  1.19738E+04  3.47583E+04 -1.58198E+03  3.66826E+04
 -2.03049E+04  2.55558E+04 -3.54884E+04  1.38068E+04 -4.03360E+04  1.53305E+03 -2.97589E+04 -1.82257E+04
 -1.08533E+04 -2.51793E+04  8.25520E+03 -2.31390E+04  2.24775E+04 -1.57804E+04  2.15433E+04  5.07550E+03
  3.73405E+03  1.31382E+04 -3.30084E+03  1.25822E+04 -1.85843E+04  6.95642E+03 -1.32060E+04 -1.40463E+04
  2.42357E+03 -1.32010E+04  6.38126E+03 -9.68693E+03  1.07884E+04 -9.38975E+02  4.38822E+03  1.10916E+04
 -3.81232E+03  2.86072E+03 -7.22793E+03 -4.73615E+03 -5.34713E+03 -9.72631E+03  1.40097E+04 -1.42495E+04
  1.48407E+04 -1.08659E+04  2.18304E+04 -2.33708E+03  1.39557E+04  1.18631E+04  9.15074E+03  2.29104E+04
 -4.32513E+03  2.76250E+04 -1.01511E+04  1.82752E+04 -1.75706E+04  3.73680E+03 -9.76405E+03 -2.80685E+03
 -8.73560E+03 -4.04529E+03 -7.84090E+03  7.98958E+03 -3.72102E+03  3.54009E+03 -1.73228E+03  8.12056E+03
 -7.18440E+03  1.61041E+03 -1.28757E+04 -7.70078E+03 -9.21844E+03 -1.49529E+04  6.29875E+03 -9.51965E+03
  1.06360E+04 -4.56672E+03  7.79358E+03  5.52047E+03 -1.15750E+03  8.24905E+03 -8.06012E+03 -1.80306E+03
 -2.14696E+03 -6.23744E+03  3.25122E+03 -7.78691E+03  6.82660E+02 -1.41671E+04  1.31746E+04 -6.11527E+03
  1.19361E+04  6.65492E+01  1.33405E+04  6.44015E+03  2.00702E+03  9.85721E+03 -7.47230E+03  1.35931E+04
 -7.55221E+03  5.16967E+03 -1.02072E+04 -5.12536E+03  3.32250E+02 -9.59237E+02  8.34788E+03 -1.10118E+03
  5.25119E+03  2.58396E+03  5.90451E+03  7.98359E+03 -2.02561E+03  6.96416E+03 -1.03215E+04  3.17186E+03
 -4.02220E+03 -5.93761E+03 -5.08226E+03 -1.34382E+04  4.85406E+03 -1.12221E+04  8.31165E+03  1.02400E+02
 -2.46275E+02  8.72466E+03 -2.27972E+03  1.16756E+04 -8.27476E+03  2.42623E+03 -1.03053E+04  2.18232E+03
 -4.04387E+03 -1.02825E+04  4.53025E+03 -1.74657E+04  1.18041E+04 -7.55925E+03  1.11103E+04  1.36962E+03
  4.15473E+03  9.09468E+03  1.51346E+03  1.67002E+04 -8.64430E+03  1.17521E+04 -4.35326E+03  1.65380E+03
 -7.62154E+03 -3.00183E+03 -2.72299E+02 -7.63011E+03  6.10440E+03 -7.17282E+03  3.04288E+03 -7.29554E+02
 -2.89466E+02 -2.94149E+02  2.53526E+03  5.62184E+03  1.31173E+03 -5.19380E+03  3.24765E+03 -2.56862E+03
  8.55726E+03 -5.81999E+03  4.85213E+03  6.46441E+02  1.07397E+04  1.17939E+04  9.06013E+03  1.36945E+04
 -1.63267E+03  1.57309E+04 -1.60284E+04  1.11458E+04 -2.27902E+04  4.56457E+03 -1.21892E+04 -1.79746E+03
 -4.31089E+03 -1.65349E+04 -2.00126E+03 -1.09079E+04  2.25637E+03 -9.63913E+03  5.51306E+03  1.12232E+03
  1.96514E+03 -1.10505E+03  1.57747E+03 -1.15868E+03  4.39697E+03  1.38543E+03  5.20715E+03 -1.70986E+03
  6.79419E+03  3.50074E+03  6.02755E+03  5.79294E+03  3.90544E+03  1.79525E+03 -7.22016E+03  3.55962E+03
 -1.24042E+04 -4.20308E+03 -8.06679E+03 -6.19405E+03 -2.01609E+03 -1.14990E+04  7.85933E+03 -1.45412E+04
  1.22084E+04 -3.61666E+03  1.44925E+04  4.70656E+03  6.93614E+03  1.10422E+04  3.39583E+03  7.82811E+03
 -4.63022E+03  1.08856E+04 -3.45762E+03 -7.98738E+02 -3.68444E+03 -1.17795E+03 -6.48324E+03  1.36749E+03
 -1.81800E+03  7.24729E+03 -3.13906E+03  1.38709E+02 -2.54602E+03 -2.82934E+03 -2.89200E+03 -1.51975E+03
 -5.03990E+03 -1.21892E+04 -2.42178E+03 -1.26305E+04  4.07820E+03 -2.74553E+03  6.55581E+03 -2.75192E+03
  7.64902E+03  1.15102E+03  3.50687E+03  3.17480E+03  5.50763E+02  6.74130E+03 -4.69991E+03  3.75101E+03
 -3.44983E+03  1.48589E+02 -9.59553E+03 -7.21772E+03  1.38395E+03 -8.88928E+03  5.14913E+03 -3.92308E+03
  3.44346E+03 -4.42932E+03  5.90884E+03  9.84158E+02 -1.05630E+03  3.29236E+03 -1.79710E+03  1.87546E+03
  6.20364E+02 -1.05750E+03 -1.45434E+03 -1.19668E+03  1.21399E+03  3.73241E+03  5.00300E+03  6.27370E+03
  2.67876E+02  1.15186E+04 -7.76494E+03  5.28378E+03 -7.46398E+03 -2.90230E+03 -8.37118E+03 -5.88868E+03
 -4.40264E+03 -1.31046E+04  1.03668E+03 -7.90557E+03  4.60734E+03 -7.20287E+03  6.52656E+03 -3.36548E+03
  6.64436E+03  7.78575E+03  2.34633E+03  4.94851E+03 -5.01353E+03  1.49326E+02 -6.41595E+03 -3.16503E+03
 -1.72478E+02  6.29307E+02 -7.51826E+01 -4.28025E+02  3.10559E+03 -5.67515E+02 -5.06939E+02 -2.20079E+03
  2.37496E+03  2.06326E+03 -3.47166E+01  2.25696E+03  1.55396E+03  2.80884E+03  4.92323E+03  7.32221E+03
  1.89110E+03 -7.88592E+02  5.82703E+03 -1.37482E+03  3.69719E+03  5.68219E+03 -6.15430E+02  6.47972E+03
 -5.12660E+03  4.09065E+03 -1.11848E+04  3.06165E+03 -1.09887E+04 -7.15168E+02 -3.64203E+03 -4.29332E+03
 -5.48744E+02  3.50301E+01  3.58043E+02 -1.45910E+03  2.79431E+03  1.95120E+03  6.62136E+02  8.50593E+02
 -6.60494E+03  5.38403E+03 -6.46401E+03  2.02537E+03 -3.69987E+03 -1.03237E+04  2.88331E+03 -9.34186E+03
  2.90890E+03  6.01319E+02 -1.61259E+03 -3.08533E+03  6.40936E+03  1.31716E+03  5.44001E+03 -2.67065E+03
 -2.11531E+03 -1.52672E+03 -5.47383E+02 -5.20520E+03  1.66829E+03  1.38118E+03  6.30785E+03 -3.67873E+03
  5.65262E+03  2.42455E+03  8.11319E+03  3.60916E+03  2.17611E+03  5.15939E+03 -6.12129E+03  3.87569E+03
 -1.09636E+04  8.92059E+03 -4.03573E+03 -4.07764E+03 -6.85495E+03 -6.22580E+03  1.63676E+03 -8.82865E+02
  1.89361E+03 -3.35419E+02 -2.14126E+03 -3.00154E+03  9.70111E+02  2.85364E+03  1.31892E+03  7.70602E+03
 -4.39802E+03  1.34884E+03 -4.47925E+03  8.48943E+02  1.29306E+03  2.32454E+03 -3.56051E+03  3.85591E+03
 -1.14336E+03  8.36516E+03 -5.52425E+03 -1.65372E+03 -5.35596E+03 -1.02096E+03 -5.42293E+03 -3.27491E+03
 -7.26838E+03 -2.91042E+03  5.02263E+03 -7.03069E+03  7.15037E+03 -4.61016E+03  3.71323E+03 -3.32219E+03
  8.45548E+03  1.05175E+03  9.50288E+02  6.41100E+03  4.55281E+03  5.40317E+03 -2.27585E+03  8.59346E+02
 -2.43470E+03  5.95129E+03 -2.63594E+03  4.30289E+03 -1.67136E+01 -3.73820E+03  1.04872E+03 -3.17907E+03
 -3.96402E+02 -2.17915E+03 -1.97068E+03  1.47127E+03  3.69313E+03 -2.05387E+03  2.27290E+03  1.10055E+03
  1.38773E+03 -3.82400E+03  5.13840E+03  2.06612E+02  6.70490E+03  5.29288E+03  3.18844E+01  4.26260E+03
 -3.58349E+03  1.10156E+03 -8.27719E+02 -3.90995E+03 -8.67278E+03 -2.57347E+03 -6.16240E+03 -6.09487E+03
  2.89175E+00 -4.82867E+03  1.06617E+03 -3.85925E+03  5.87177E+03 -1.82037E+02  7.77882E+02  2.44756E+03
  1.09459E+03  4.89607E+03 -7.15799E+02  1.69128E+03  2.94310E+02  6.42356E+03 -1.52058E+03  2.45186E+03
  6.73729E+03  3.79257E+03 -3.07740E+03 -3.16058E+03 -3.49227E+03  4.07957E+03  1.16419E+03 -1.86424E+03
 -7.26212E+02  4.68374E+03 -5.30830E+03  3.88771E+03 -3.96385E+03 -6.66918E+03  7.75926E+02 -3.52553E+03
  3.32450E+03 -5.61470E+03 -2.36981E+01 -7.70350E+03  3.57449E+03  4.92106E+03  1.96012E+03  2.03609E+03
  3.17918E+03  2.85528E+03 -4.65869E+03  3.71741E+03 -3.33092E+03 -5.62078E+02 -3.25192E+03  1.79476E+03
 -1.49419E+03 -3.55022E+03 -8.27285E+02  4.19269E+03 -3.73528E+03 -3.69559E+03 -2.96936E+03 -1.37152E+03
 -7.75290E+03  3.26788E+03 -6.90269E+01 -2.82713E+03 -2.15705E+03 -6.37493E+03  6.28671E+02 -6.63368E+03
  5.29802E+03  1.46293E+03  2.87940E+03  5.14200E+03  1.63263E+03  5.90219E+03  1.45983E+03  2.70240E+03
