 $NMID ID='MM_0lb_SNR50_11hz_g40_25.RAW', FMTDAT='(8E13.5)'
 TRAMP=1., VOLUME=1. $END
  3.08546E+05 -4.14925E+02  3.37212E+05  2.48984E+05  8.46569E+04  3.33429E+05 -1.35044E+05  2.45228E+05
 -1.90836E+05  8.72155E+04 -1.06279E+05 -3.19550E+04 -1.86207E+03 -4.95352E+04  5.31142E+04 -1.04662E+03
  3.54778E+04  5.17500E+04 -1.66805E+04  7.38649E+04 -6.10251E+04  6.41385E+04 -8.67254E+04  2.90880E+04
 -7.99451E+04 -7.99649E+03 -5.58665E+04 -4.94748E+04 -1.87864E+04 -7.26068E+04  2.51336E+04 -4.46916E+04
  4.10639E+04 -3.49067E+03  1.17859E+04  4.87662E+04 -2.80125E+04  4.77646E+04 -7.20193E+04 -7.87806E+01
 -5.65542E+04 -5.25306E+04 -5.95928E+03 -7.53159E+04  3.38104E+04 -5.45812E+04  4.90673E+04 -1.89295E+04
  4.52914E+04  1.56138E+04  3.17964E+04  3.07904E+04  1.17945E+04  3.25503E+04 -3.57621E+03  3.55663E+04
 -1.73241E+04  1.21246E+04 -2.17465E+04 -3.75400E+03  5.40213E+03 -3.41770E+03  2.34806E+04  1.72234E+04
  5.61078E+03  3.88000E+04 -2.86377E+04  3.54816E+04 -6.41913E+04 -1.30096E+03 -5.80417E+04 -4.32087E+04
 -1.35867E+04 -6.52105E+04  4.10427E+04 -4.43664E+04  6.30613E+04 -1.09902E+03  3.39983E+04  3.65566E+04
 -6.63668E+03  4.01010E+04 -3.19301E+04  1.85947E+04 -3.53887E+04 -3.79479E+03 -1.21806E+04 -1.52212E+04
 -9.56171E+03 -2.04474E+04  1.71869E+03 -1.24922E+04  6.39481E+03 -2.06868E+04  9.23698E+03 -1.38490E+04
  1.04055E+04  3.28476E+03 -1.62747E+04  1.03985E+04 -1.99639E+04 -5.18326E+03 -8.43884E+03 -3.45874E+04
  2.37609E+04 -4.64867E+04  5.14310E+04 -1.87596E+04  4.49097E+04  2.20956E+04  1.48848E+04  4.95958E+04
 -1.88120E+04  3.13186E+04 -2.26347E+04  5.04361E+02 -9.98499E+03 -2.61468E+04  2.09628E+04 -3.34632E+04
  4.03034E+04 -6.63427E+03  3.76789E+04  2.03940E+04  1.54581E+04  5.36897E+04 -9.20928E+03  5.16965E+04
 -3.12265E+04  3.29890E+04 -4.23152E+04  1.18391E+04 -4.43945E+04 -1.49511E+04 -2.57350E+04 -3.76144E+04
  7.09815E+03 -3.37223E+04  3.66152E+04 -1.33076E+04  3.27909E+04  1.43148E+04  7.12458E+03  2.11559E+04
 -1.80789E+04  5.91005E+03 -8.03485E+03 -7.59742E+03  2.41497E+03 -1.29711E+04  2.05678E+04  4.78730E+03
  1.51001E+04  2.29313E+04 -1.38728E+03  2.49118E+04 -1.75457E+04  1.15832E+04 -2.99010E+04 -8.74861E+03
 -2.07753E+04 -1.52540E+04 -8.06702E+03 -2.23155E+04  8.53764E+03 -2.49930E+04  1.44196E+04 -2.11777E+04
  3.02097E+04 -1.34858E+04  3.37731E+04  5.16950E+03  2.67083E+04  2.27488E+04  1.94226E+03  3.89307E+04
 -1.59664E+04  2.78257E+04 -3.18152E+04  1.61574E+04 -2.28229E+04 -1.08226E+04 -4.25330E+03 -1.35479E+04
 -4.10618E+03 -7.46815E+02 -6.85104E+03  1.29470E+04 -2.20050E+04  3.69781E+03 -2.15221E+04 -7.08920E+03
 -1.47645E+04 -1.82853E+04  1.04953E+04 -2.71993E+04  1.48227E+04 -1.13767E+04  1.67679E+04 -6.40760E+03
  1.30597E+04  1.04959E+04 -1.13488E+03  2.05363E+04 -1.78880E+04  1.00453E+04 -2.03713E+04 -6.66946E+02
 -1.02847E+04 -1.33875E+04 -2.48978E+03 -2.25594E+04  1.27592E+04 -2.43926E+04  1.71136E+04 -1.09193E+04
  1.86373E+04 -2.89408E+03  1.24846E+04  9.86369E+03  3.33772E+03 -1.59015E+03  1.09734E+04  2.51467E+02
  2.21080E+04  6.77698E+03  1.80373E+04  1.33151E+04  1.75045E+04  3.47840E+04 -4.71341E+03  3.62756E+04
 -2.07964E+04  3.27712E+04 -3.45738E+04  1.28696E+04 -3.68800E+04 -3.77567E+03 -3.52160E+04 -2.52344E+04
 -1.70949E+04 -2.75066E+04  1.26622E+04 -2.77190E+04  2.57939E+04 -1.26449E+04  2.19845E+04  4.92575E+03
  3.73301E+03  1.48154E+04 -8.45223E+03  1.08257E+04 -1.67365E+04  5.49593E+03 -1.72000E+04 -1.13432E+04
 -3.34567E+03 -1.56962E+04  1.37105E+04 -6.65377E+03  9.19269E+03 -1.58934E+03  2.76121E+03  1.41945E+04
 -6.33210E+03 -8.18932E+02 -1.26348E+04 -6.29532E+03  5.28811E+03 -1.50119E+04  8.49941E+03 -1.57519E+04
  1.98771E+04 -5.58611E+03  2.20723E+04  3.72992E+03  1.69848E+04  1.53058E+04  9.29151E+03  2.11948E+04
 -1.10227E+03  2.50049E+04 -1.93016E+04  2.14462E+04 -1.54419E+04  9.15141E+03 -1.37886E+04 -9.69489E+03
 -1.45525E+04 -8.14709E+03 -6.91726E+03 -2.51974E+03 -6.11616E+03  1.28216E+03 -3.50330E+03  2.60641E+03
 -1.08602E+04 -4.31217E+03 -1.52134E+04 -1.48664E+04 -7.04525E+03 -2.11996E+04  6.08437E+02 -1.67830E+04
  1.25668E+04 -6.33800E+03  7.82921E+03  7.09135E+03  1.48864E+03  4.37817E+03  1.87724E+03 -1.42898E+03
 -1.00095E+04 -6.84532E+03 -5.29362E+03 -1.24584E+04  1.58243E+04 -1.24428E+04  1.38439E+04 -1.47380E+04
  1.59625E+04  1.49646E+03  1.83530E+04  1.28416E+04  4.24288E+03  1.76749E+04 -6.75395E+03  9.86059E+03
 -8.55699E+03  1.78634E+03 -7.31608E+03 -4.89322E+03  3.74607E+03  1.68040E+02  7.48228E+03 -2.22072E+03
  2.09545E+03  7.68129E+03 -5.63280E+02  9.48970E+03 -9.02462E+03  1.21300E+04 -1.48609E+04  5.64308E+03
 -1.19465E+04 -8.46537E+03 -2.76429E+02 -1.03124E+04  8.69645E+03 -3.66797E+03  1.47977E+04  4.88129E+03
  3.58912E+03  5.19931E+03 -1.02640E+04  1.02592E+04 -1.21931E+04  5.51314E+03 -1.66339E+04 -5.78363E+03
 -9.27192E+03 -1.15050E+04  6.81605E+03 -1.34904E+04  9.04755E+03 -5.82957E+03  8.26202E+03  5.24255E+03
  6.38062E+03  1.10514E+04 -2.02988E+03  9.34578E+03 -8.69575E+03  6.43110E+03 -1.22714E+04  1.18619E+02
 -1.22154E+04 -1.15248E+04  2.23743E+03 -9.70516E+03  4.15760E+03 -9.28619E+03  8.81204E+03 -3.44231E+03
  1.84466E+03  3.80849E+03 -2.24805E+03  5.02632E+03  5.26163E+03  5.47313E+03  1.57765E+03 -1.13197E+04
  7.19166E+03  2.13532E+03  1.78197E+04  3.15543E+03  1.06704E+04  9.31843E+03  5.59195E+03  1.63500E+04
 -9.06093E+03  1.62803E+04 -1.73295E+04  1.57448E+04 -2.10950E+04 -5.51802E+03 -1.40128E+04 -4.28093E+03
 -9.60196E+03 -1.05578E+04 -1.61891E+03 -1.06791E+04  1.17191E+04 -6.74890E+03  2.03728E+03 -2.65989E+03
  3.13052E+03 -3.42760E+03  4.75362E+03 -5.76233E+03  6.75863E+03 -7.26607E+02  7.31317E+03  1.36913E+03
  6.30783E+03  9.16880E+02  7.11884E+03  8.76419E+03 -6.74032E+03  9.56191E+03 -8.25959E+03  8.12785E+03
 -9.78942E+03 -9.21111E+03 -4.35739E+03 -1.05431E+04 -3.92957E+03 -7.37332E+03  7.17199E+03 -8.90277E+03
  6.34498E+03 -9.11753E+03  1.72916E+04  1.64811E+03  1.22239E+04  7.55313E+03  3.39065E+02  1.74732E+04
 -5.42881E+03  9.91982E+03 -1.14797E+04 -4.89123E+03 -1.57139E+03  2.93217E+03  2.89158E+03  2.17407E+03
 -6.47441E+03  4.41634E+00 -5.36039E+03  2.32244E+03 -4.09795E+03  5.12055E+03 -1.11042E+04  1.25681E+03
 -5.59934E+03 -1.09226E+04 -1.85605E+03 -8.54856E+03  3.07971E+03 -6.63811E+03  9.98262E+03 -1.74855E+03
  1.57472E+04  2.17354E+03  6.32253E+03  7.43827E+03  2.60094E+03  1.29010E+04 -6.39833E+03  6.39712E+03
 -1.34594E+04 -1.14102E+03 -5.82246E+03 -4.25361E+03  2.15004E+03 -8.62923E+03  6.49696E+03 -3.96157E+03
  6.47272E+03 -4.80038E+02  5.08452E+03  3.22238E+03  3.34026E+03  5.19207E+03  4.64195E+03  4.98947E+02
  9.17522E+03  1.44981E+03  1.98250E+03  5.14671E+03  6.88920E+03  8.02416E+03  1.64540E+02  4.43747E+03
 -3.94428E+03  1.14001E+04 -3.67177E+03  8.14330E+03 -1.50913E+04  1.75810E+03 -1.17005E+04 -2.26980E+03
 -8.71268E+03 -1.28305E+04  4.35703E+03 -6.88695E+03  7.38959E+03 -6.02413E+03  9.96089E+03  3.13861E+03
  6.38187E+03  1.75620E+03  1.96480E+03  7.33119E+03 -4.85934E+03  4.75559E+03  3.03559E+03 -3.40037E+03
 -2.63566E+03  1.31230E+03 -2.83899E+02 -5.80534E+03  3.64215E+03 -6.84363E+03  6.33127E+03  5.05626E+03
 -1.17081E+03  3.89528E+03  3.83879E+03  1.62404E+03  5.91112E+02 -1.63316E+03 -1.56981E+03  3.17163E+03
 -1.05329E+03 -2.25187E+03  9.30658E+02 -3.51802E+03  3.73238E+03  1.05628E+04 -1.88198E+03  7.55109E+03
 -5.77343E+03  6.39051E+03 -8.80561E+03  2.52649E+03 -5.67002E+03  6.61098E+02 -4.66812E+03  2.32630E+02
 -2.05356E+03 -2.73310E+03  5.72839E+03 -4.12844E+03  4.44246E+03  3.25047E+03 -1.53987E+03  4.48150E+03
  1.34118E+03 -3.84239E+02 -6.60871E+03 -1.05545E+04 -5.56795E+03 -1.67303E+03 -9.03604E+02 -5.04605E+03
  1.68888E+03 -6.95630E+03  5.50124E+03 -1.14793E+03  3.54007E+03 -2.05734E+02  1.06450E+03 -4.15904E+03
 -1.96238E+03 -1.64131E+03 -1.25052E+03 -1.71870E+03  5.17396E+03 -5.84526E+03  7.86491E+03 -3.82016E+02
  5.57039E+03  4.00941E+02  4.83918E+03  7.02331E+03  6.16490E+02  5.73324E+03 -1.36420E+03  9.01195E+03
 -3.53751E+03  1.77026E+03 -2.40473E+03 -3.38223E+03 -6.25266E+03 -3.68638E+03 -2.23331E+03 -3.71524E+03
  2.60733E+03 -5.67574E+02  6.20094E+03 -1.60243E+03  1.19161E+03  4.37042E+03  2.11367E+03 -1.29490E+03
 -5.09458E+03  9.91737E+02 -6.46356E+03 -2.26445E+02  3.50395E+02  1.29450E+03  9.72311E+02 -1.24592E+03
 -4.42068E+03  5.29389E+02  8.87211E+02  6.26000E+03 -1.89253E+03  1.31764E+03 -5.33072E+03 -4.61516E+03
 -2.39874E+03 -5.42264E+03  6.25976E+03 -1.27684E+04  3.27185E+03 -3.84712E+03  1.08724E+04 -5.98885E+02
  8.99453E+03  6.27338E+03  5.01959E+03  5.72546E+03  6.36496E+03  1.42074E+04 -6.83253E+03  8.58649E+03
  1.79088E+02 -6.07668E+02 -1.67138E+03  1.39362E+03  4.37855E+03  1.98549E+03 -2.58445E+03 -1.57463E+03
 -8.48841E+03  2.09072E+03  4.77830E+03 -2.56785E+03 -7.30279E+02 -4.13542E+02 -1.73413E+03 -3.61318E+02
  5.86914E+03 -6.10542E+03  5.64121E+03  1.45833E+03  4.66582E+03  7.10597E+03 -6.77683E+02  6.72128E+03
 -7.41838E+02  8.83817E+03 -1.70359E+04  6.72381E+03 -7.17905E+03  1.78467E+02 -6.63989E+03 -6.44473E+03
 -3.87596E+03 -5.15794E+03  1.54087E+03 -7.18361E+03  5.54078E+03 -3.43345E+02  4.14644E+03  3.08239E+03
  4.43564E+03  2.11721E+03 -2.01075E+03  5.45632E+02  1.23744E+02 -2.73550E+03  4.79189E+03 -2.26262E+03
  5.85197E+03  4.27604E+03  2.80154E+03  7.33524E+03  2.97306E+03  1.76597E+03  2.60182E+03  3.56041E+03
  3.88168E+03  3.44700E+02 -5.17862E+03  1.78626E+03 -5.24233E+03 -2.68259E+03 -3.18871E+03 -5.77130E+03
  5.80701E+03 -1.43243E+03  3.27434E+03  2.55980E+03  6.34396E+03 -1.51197E+03  7.61117E+02 -7.77514E+02
 -3.87915E+03  1.94188E+03 -8.41596E+03  3.48200E+03  6.89863E+02 -9.45611E+02 -3.34118E+03  1.56606E+02
  5.22175E+03 -2.91153E+03 -1.72357E+03  3.69915E+02 -6.30365E+03  5.80977E+03  6.94844E+02 -3.25419E+03
 -9.34726E+03 -4.66621E+03  1.39235E+03 -7.14406E+03  3.52787E+02 -1.64552E+03  8.35737E+03 -2.67414E+03
  5.78770E+03 -2.40708E+02 -6.00468E+03  4.35568E+03  5.67742E+02  1.00629E+03 -2.27440E+03  3.35588E+03
