 $NMID ID='MM_0lb_SNR50_14hz_g45_58.RAW', FMTDAT='(8E13.5)'
 TRAMP=1., VOLUME=1. $END
  3.14181E+05  9.54504E+02  3.38793E+05  2.51244E+05  8.66767E+04  3.39676E+05 -1.34434E+05  2.54150E+05
 -1.97280E+05  8.45497E+04 -1.12195E+05 -3.45558E+04 -2.39040E+02 -5.41412E+04  5.23342E+04  1.92033E+03
  3.29620E+04  5.18093E+04 -1.75777E+04  7.42162E+04 -6.19572E+04  6.84747E+04 -8.49503E+04  2.75861E+04
 -7.96886E+04 -1.54827E+04 -5.59231E+04 -4.52659E+04 -1.37106E+04 -7.06115E+04  2.53649E+04 -4.37608E+04
  4.12007E+04  2.89859E+03  1.53485E+04  4.63154E+04 -3.60263E+04  4.81141E+04 -6.36942E+04  6.61445E+01
 -5.23329E+04 -5.27160E+04 -6.88561E+03 -7.34560E+04  3.52020E+04 -5.67601E+04  4.97589E+04 -1.64450E+04
  3.73386E+04  1.47490E+04  3.21976E+04  2.76619E+04  1.81713E+04  2.82575E+04 -8.10776E+03  2.63590E+04
 -2.21982E+04  1.71243E+04 -1.88144E+04 -3.58854E+03  5.75859E+03 -1.21359E+04  2.39612E+04  1.25999E+04
  5.38243E+03  3.76603E+04 -3.13896E+04  3.26841E+04 -6.45940E+04  5.70351E+02 -5.92321E+04 -4.06909E+04
 -1.48768E+04 -6.23191E+04  3.22898E+04 -4.31055E+04  6.06511E+04 -1.08504E+03  3.72365E+04  3.07344E+04
 -4.05763E+03  3.97920E+04 -2.50621E+04  1.59770E+04 -3.04895E+04 -7.54660E+03 -1.48360E+04 -1.25370E+04
 -4.73389E+03 -1.25383E+04 -4.96671E+02 -1.68908E+04  4.71986E+03 -2.24886E+04  1.34538E+04 -1.02577E+04
  1.14659E+04  6.73888E+03 -4.48980E+03  1.67331E+04 -1.92947E+04 -7.35313E+03 -7.69838E+03 -3.62377E+04
  2.10011E+04 -4.73203E+04  4.39136E+04 -1.79561E+04  4.72415E+04  1.81526E+04  1.55774E+04  4.78388E+04
 -1.64919E+04  3.05372E+04 -2.80387E+04  1.12645E+03 -1.06575E+04 -3.04391E+04  1.80595E+04 -3.46996E+04
  4.04829E+04 -1.26806E+04  3.80735E+04  2.06329E+04  1.91583E+04  4.85099E+04 -1.24220E+04  4.98406E+04
 -3.04358E+04  3.27796E+04 -4.35093E+04  9.84688E+03 -4.02004E+04 -1.28574E+04 -2.32800E+04 -3.63920E+04
  3.27085E+03 -3.63338E+04  2.90075E+04 -1.56322E+04  3.16865E+04  9.07714E+03  3.63252E+03  2.02257E+04
 -1.48369E+04  3.95166E+03 -1.03917E+04 -9.63480E+03  5.69475E+03 -8.81163E+03  1.66112E+04  4.41065E+03
  1.50890E+04  1.82809E+04 -5.71356E+03  2.84708E+04 -1.84709E+04  1.37385E+04 -2.67872E+04 -5.82158E+03
 -2.32363E+04 -1.75250E+04 -1.33028E+04 -1.96919E+04  1.15379E+03 -1.86982E+04  1.60382E+04 -1.22303E+04
  2.75464E+04 -1.85333E+04  2.95675E+04 -1.28754E+02  2.33776E+04  2.38473E+04  2.46147E+03  3.61090E+04
 -1.56497E+04  2.81771E+04 -2.72254E+04  7.21323E+03 -2.00774E+04 -8.15022E+03 -5.02623E+03 -1.45430E+04
  5.58081E+03 -7.33503E+03 -1.92829E+03  2.89338E+03 -1.74866E+04  5.09682E+03 -1.80767E+04 -8.18959E+03
 -6.24860E+03 -2.44660E+04  8.96355E+03 -2.61620E+04  1.42419E+04 -1.81017E+04  1.42657E+04 -2.27855E+03
  1.06342E+04  1.34816E+04  5.11995E+03  2.08329E+04 -1.45617E+04  1.07174E+04 -1.62141E+04 -5.00188E+03
 -1.78876E+04 -1.73977E+04  3.73915E+03 -2.73409E+04  8.64537E+03 -1.98249E+04  1.82925E+04 -6.17340E+03
  1.85227E+04 -2.42991E+03  1.48295E+04  1.37943E+03  7.37472E+03 -1.63623E+03  1.15353E+04 -6.42721E+02
  1.91215E+04  2.76669E+03  1.62320E+04  1.91116E+04  8.92998E+03  2.89229E+04 -1.44797E+03  3.55914E+04
 -2.26826E+04  2.94937E+04 -3.13623E+04  1.67905E+04 -3.34457E+04 -5.42709E+03 -2.66738E+04 -1.74884E+04
 -1.17469E+04 -2.92455E+04  3.42244E+03 -1.95060E+04  1.91145E+04 -1.25336E+04  1.67270E+04  2.51765E+03
  5.31991E+03  8.51022E+03 -7.59556E+03  1.37980E+04 -1.24188E+04  3.67568E+03 -1.36381E+04 -8.30376E+03
 -1.65837E+03 -1.88508E+04  1.11476E+04 -1.64279E+04  8.95835E+03  1.30014E+01  3.65619E+03  4.34381E+03
 -1.04480E+04  6.27458E+03 -4.34973E+03 -5.97430E+03 -1.67893E+03 -1.26856E+04  1.50878E+04 -1.46893E+04
  2.15783E+04 -5.88116E+03  1.58113E+04  8.11164E+03  1.58501E+04  1.07891E+04  6.61972E+03  2.20502E+04
 -3.69143E+03  2.36887E+04 -1.71510E+04  1.30851E+04 -1.42685E+04  2.33569E+03 -6.13089E+03 -3.34562E+03
 -7.62450E+03 -4.46308E+03 -2.92949E+03  2.45134E+03 -5.76537E+03  2.27785E+03 -4.72129E+03  2.02346E+03
 -8.27113E+03  1.27264E+03 -1.01961E+04 -1.46561E+04 -4.55932E+03 -1.47580E+04  4.01331E+03 -1.44004E+04
  9.49825E+03 -3.07981E+03  6.97772E+03  3.09390E+03  2.07665E+03  6.24332E+02 -5.69334E+03 -6.08019E+02
 -9.57871E+03 -8.44603E+03  8.92183E+02 -8.41019E+03  3.63510E+03 -9.13649E+03  1.68947E+04 -4.30166E+03
  1.38369E+04 -3.72930E+02  8.36058E+03  1.51775E+04  1.01797E+02  1.13498E+04 -5.27022E+03  1.26996E+04
 -7.26874E+03  4.73270E+03 -4.20467E+03 -1.55990E+03 -2.93960E+03 -5.19116E+03  7.68616E+03 -4.61817E+03
  3.92918E+02  3.30559E+03 -5.59120E+02  8.30235E+03 -4.41385E+03  1.18594E+04 -1.03617E+04  7.75245E+02
 -3.26919E+02 -7.66397E+03 -2.88338E+03 -7.67170E+03  1.02031E+04  1.60768E+03  6.39603E+03  4.82499E+01
  9.59279E+02  7.80425E+03 -5.53923E+03  7.20017E+03 -4.74442E+03  9.65965E+02 -5.43154E+03 -1.45480E+03
 -4.13151E+03 -8.84704E+03  1.43930E+03 -7.97721E+03  9.94488E+03 -8.48105E+03  1.06944E+04  4.36210E+02
  6.89383E+03  3.72583E+03  7.89150E+02  1.14152E+04 -6.67173E+03  8.37229E+03 -1.48071E+04 -2.66807E+03
 -1.91556E+03 -7.31801E+03  1.39911E+03 -8.94546E+03  2.63571E+03 -7.13939E+03  4.15150E+03 -3.34821E+03
  7.08291E+03  5.22366E+02  1.70262E+03  2.42658E+03  8.08713E+03 -1.43964E+03 -1.57684E+03  1.65180E+03
  1.12351E+04 -2.75300E+03  3.14235E+03  1.11982E+03  9.39569E+03  2.42330E+02  5.97063E+03  8.12733E+03
 -5.66855E+03  1.09450E+04 -1.41754E+04  1.28485E+04 -2.02867E+04  2.61851E+03 -1.12073E+04 -7.68870E+03
 -9.61494E+03 -9.16431E+03 -8.02832E+02 -8.92720E+03  4.31172E+03 -5.37917E+03  4.42330E+03 -8.71573E+02
  1.90145E+03 -2.50057E+03  4.86091E+03 -1.60104E+03  1.00776E+04 -4.69921E+02  5.22582E+03 -1.35482E+03
  5.88827E+03 -7.73760E+02  3.59763E+03  7.02197E+03 -3.37884E+03  6.27336E+03 -1.00247E+04  5.74890E+03
 -6.09081E+03  2.15803E+01 -2.33574E+03 -5.55611E+03  1.98277E+03 -1.16004E+04  2.75292E+03 -9.02854E+03
  5.45374E+03 -2.63158E+03  1.04676E+04 -3.15565E+03  9.11282E+03  5.90919E+03  2.02779E+03  8.51597E+03
 -4.40392E+03  4.52663E+03 -4.88558E+03  3.23288E+03 -1.10696E+03  1.21084E+03  1.39050E+02 -3.59782E+03
  5.20895E+03  5.22162E+02 -5.62781E+03  1.01922E+03  2.49246E+03  2.54469E+02 -1.03245E+04 -5.23966E+03
 -8.45914E+03 -3.36125E+03  1.52639E+03 -1.63244E+03  2.95753E+03 -5.46462E+03  5.10395E+03 -5.88910E+03
  6.18049E+03  2.48848E+03  5.37752E+03  1.39738E+04 -1.95048E+03  7.27455E+03 -9.66775E+03  8.16825E+03
 -8.44298E+03  4.29274E+03 -8.21010E+03 -5.77985E+03 -4.79982E+03 -7.43073E+03  7.53738E+03 -7.21983E+03
  2.13334E+03 -2.80930E+03  3.39136E+03 -2.31654E+03 -1.66388E+03  1.13650E+03  4.29270E+03 -2.45307E+03
  6.41378E+03 -2.99304E+03  3.29288E+03 -4.95933E+03  4.25491E+03 -1.93353E+03 -2.87001E+03  4.17143E+02
 -2.71280E+03  9.03443E+03 -2.41362E+03  9.46954E+03 -6.11938E+03 -2.08542E+03 -7.35178E+03 -4.67182E+03
 -6.22702E+03 -6.07001E+03 -1.52475E+03 -8.90102E+03  4.35820E+03 -5.30470E+03  4.55015E+03 -2.93102E+03
  4.17014E+03  4.06689E+03 -1.02083E+03  4.97118E+03  4.63135E+03 -1.80332E+03 -6.19501E+03  2.21344E+03
  1.16521E+03  9.40804E+01 -2.83330E+03 -5.39690E+02  3.92016E+03 -1.32720E+03  3.82814E+03  6.11904E+03
  6.40977E+03 -2.17452E+02  3.11221E+03  1.13447E+03  1.67582E+03 -1.33726E+03 -5.97788E+02  6.57787E+01
  4.09486E+03  1.54838E+03  3.33122E+03  5.40909E+03  2.60174E+03  6.36990E+03 -4.96934E+03  3.53997E+03
 -1.00606E+03  5.15482E+03 -5.97060E+03  1.93992E+03 -5.98709E+03 -5.66154E+03 -5.77707E+03 -9.29789E+03
  8.30532E+02 -4.76864E+03  7.69957E+02 -2.74639E+03  3.81185E+03  3.07379E+03 -1.51846E+03  9.46001E+02
 -4.12434E+03  3.57712E+03 -4.95621E+03 -2.97323E+03  2.34380E+03 -6.91876E+03 -2.38680E+03 -2.25279E+03
  6.32824E+02 -5.49829E+03  3.98002E+03  1.24027E+03  5.08620E+03  3.94357E+03 -2.88842E+03  1.63269E+03
  4.70192E+03  4.26692E+03  3.50775E+02 -3.86083E+03  3.96731E+03 -1.48644E+02  1.86840E+03 -2.45880E+03
  5.99500E+03 -2.13470E+02 -1.87303E+03 -1.40008E+03  2.11334E+03  2.79590E+03 -9.51373E+02  4.77246E+03
 -8.79517E+03 -4.29176E+03 -4.48588E+03 -1.56634E+03 -3.17505E+03 -4.42814E+02 -1.59362E+03 -1.89347E+02
  4.84882E+03  8.30917E+02  1.54446E+03  2.00527E+03 -1.32742E+03  6.54469E+03 -2.79259E+03  6.96503E+03
 -3.85917E+03 -2.37214E+01 -2.33636E+03 -6.23161E+02 -2.73855E+03  1.31625E+03  1.32595E+03 -2.60480E+02
 -7.18807E+03  1.53659E+03 -4.08590E+03  1.02820E+03 -6.12619E+03  3.25377E+02 -3.50982E+03 -5.32003E+03
 -2.11076E+03 -5.42859E+03  3.95053E+03 -8.26925E+03  5.77590E+03 -5.64799E+03  5.47567E+03 -6.60641E+03
  1.32252E+04 -4.01056E+03  5.72971E+03 -1.16091E+03 -4.12679E+02  5.70291E+02 -1.70807E+03  5.00940E+03
 -6.35283E+03  9.09954E+02  1.62581E+03 -1.12015E+02 -4.95973E+03  1.57776E+03  8.04893E+02 -3.42909E+03
  1.69646E+03  2.23978E+03 -2.05820E+03  1.24889E+03  2.04478E+03 -1.36903E+03 -1.78330E+03 -4.15749E+03
  9.72502E+02  8.70053E+02 -9.65581E+02 -1.81724E+01  4.88726E+03  5.63990E+03  2.85223E+03  1.20996E+03
 -3.65775E+03  5.11473E+03 -4.00847E+03  2.27081E+03 -9.06678E+02 -2.89686E+03 -6.57467E+03 -1.02225E+03
 -5.06216E+03 -3.29429E+03  2.35896E+03  2.48195E+03  5.01952E+01 -3.25128E+03  4.98276E+03 -3.48596E+03
  1.77108E+03  3.07953E+03  4.10692E+03 -3.45376E+03  2.16821E+03  4.49694E+02  1.75583E+03 -7.69368E+02
  6.69373E+03 -7.01888E+03 -1.45155E+03  1.56525E+03 -3.73646E+03 -3.32229E+01  2.52589E+03  1.64308E+03
 -4.37239E+03  9.11043E+03 -2.37877E+03  2.99306E+03  3.14447E+03 -3.77360E+03 -3.16921E+03 -3.35739E+03
  5.52054E+03 -1.79159E+03  4.96484E+03  5.69138E+02 -8.26681E+02  4.12599E+03  4.93193E+03  4.11877E+03
 -1.11712E+03  4.08706E+03  1.49696E+03  2.94889E+03 -3.40590E+03 -2.20846E+03 -2.20712E+03  2.62434E+03
 -4.43282E+03  1.72032E+03  1.14024E+03  1.47935E+03 -2.52013E+03  4.82233E+02 -6.73153E+02 -2.44204E+02
 -2.49858E+02  7.67018E+02  3.09435E+03 -1.96610E+01  3.90394E+01 -5.02685E+02  7.03588E+03 -3.52167E+03
  3.79249E+03  1.30253E+03 -2.07463E+03  1.05807E+03 -1.95453E+03  3.20861E+03 -4.29350E+03  2.63416E+03
