 $NMID ID='MM_0lb_SNR50_19hz_g40_28.RAW', FMTDAT='(8E13.5)'
 TRAMP=1., VOLUME=1. $END
  3.12039E+05  5.15299E+02  3.34999E+05  2.54112E+05  8.22835E+04  3.36185E+05 -1.30130E+05  2.46090E+05
 -1.89238E+05  7.86638E+04 -1.13483E+05 -3.21155E+04  1.35198E+03 -5.15042E+04  5.85825E+04 -3.10041E+03
  3.66306E+04  5.20910E+04 -1.95353E+04  7.72284E+04 -5.76746E+04  6.55471E+04 -8.30596E+04  3.30394E+04
 -8.16830E+04 -8.25020E+03 -5.77932E+04 -5.11776E+04 -1.20346E+04 -7.13626E+04  2.52224E+04 -4.46497E+04
  3.74260E+04  5.42595E+03  1.12618E+04  4.42100E+04 -3.31951E+04  4.44166E+04 -6.44345E+04 -2.14981E+03
 -5.12267E+04 -5.43206E+04 -7.03672E+03 -7.42256E+04  3.06438E+04 -5.19442E+04  4.49712E+04 -1.84351E+04
  3.88524E+04  1.09034E+04  3.07851E+04  2.26115E+04  1.25078E+04  2.72035E+04 -4.55124E+03  2.92511E+04
 -2.08392E+04  1.74084E+04 -1.82510E+04 -6.22379E+03  5.20469E+03 -8.47755E+03  1.93298E+04  8.32045E+03
  8.73857E+03  3.37845E+04 -2.84001E+04  3.42300E+04 -6.03824E+04  3.11091E+03 -5.21756E+04 -3.92039E+04
 -1.12955E+04 -6.18429E+04  3.80896E+04 -4.17929E+04  5.25061E+04  9.32993E+02  3.26241E+04  2.67861E+04
 -1.02070E+04  2.97560E+04 -3.04903E+04  1.01434E+04 -2.77271E+04 -7.59416E+03 -8.93842E+03 -9.72763E+03
 -6.61636E+03 -1.42467E+04 -5.14721E+03 -1.60287E+04  9.36405E+03 -2.25243E+04  1.15794E+04 -1.74723E+04
  1.09293E+04  5.56892E+03 -1.90396E+03  1.42023E+04 -1.94731E+04 -1.09975E+03 -8.45857E+03 -3.05746E+04
  1.91002E+04 -4.02902E+04  4.42291E+04 -1.79324E+04  4.00394E+04  1.70699E+04  1.26122E+04  4.29925E+04
 -1.98459E+04  3.41514E+04 -2.29898E+04  4.01039E+03 -9.74214E+03 -2.54915E+04  2.16560E+04 -2.37165E+04
  3.84381E+04 -7.11488E+03  2.91907E+04  2.08588E+04  1.63542E+04  4.05592E+04 -8.20094E+03  4.32825E+04
 -2.72833E+04  2.76897E+04 -3.54624E+04  1.15013E+04 -3.94889E+04 -1.62520E+04 -2.28170E+04 -3.10283E+04
  6.33376E+03 -3.29024E+04  2.62177E+04 -1.17354E+04  2.56752E+04  6.15403E+03  1.04269E+03  1.79231E+04
 -1.02203E+04  7.70465E+03 -1.22629E+04 -4.81071E+03  8.27631E+03 -9.16185E+03  1.73857E+04  7.26247E+03
  1.05260E+04  2.16244E+04 -6.41460E+03  2.24039E+04 -2.34745E+04  7.61042E+03 -2.54159E+04 -7.84686E+03
 -1.59661E+04 -1.85986E+04 -7.65321E+03 -1.51362E+04  4.60980E+03 -1.25490E+04  1.44830E+04 -1.64966E+04
  1.85342E+04 -1.22004E+04  2.35199E+04  1.87676E+03  2.33204E+04  1.60517E+04  4.03344E+03  3.47162E+04
 -1.05753E+04  2.95498E+04 -2.78948E+04  6.45635E+03 -2.26422E+04 -1.64120E+04 -5.43670E+03 -1.45838E+04
  4.43774E+03 -3.69381E+03  2.37500E+03  7.07717E+03 -1.00992E+04  3.43924E+03 -1.01130E+04 -5.54090E+03
 -8.25868E+03 -1.48286E+04  3.23463E+03 -1.75085E+04  1.28798E+04 -1.56896E+04  1.11344E+04 -5.53300E+02
  7.44096E+03  1.06434E+04  6.09945E+03  1.27238E+04 -6.74544E+03  7.65889E+03 -1.37133E+04 -6.68459E+03
 -1.46511E+04 -1.31076E+04 -3.56576E+03 -1.92465E+04  5.64655E+03 -1.39803E+04  1.74816E+04 -8.82723E+03
  1.39940E+04 -9.24211E+02  1.00131E+04  4.37735E+03  4.69088E+03  6.28069E+02  5.93269E+03 -1.83211E+03
  1.46087E+04  5.68135E+03  1.21028E+04  1.20897E+04  1.25610E+04  2.27541E+04 -7.68512E+03  2.38129E+04
 -1.57478E+04  1.78729E+04 -2.58231E+04  9.72524E+03 -2.22972E+04 -9.79854E+02 -2.01466E+04 -1.55993E+04
 -8.36552E+03 -2.05619E+04  4.14715E+03 -1.67306E+04  1.97076E+04 -1.06864E+04  1.63181E+04  6.99111E+03
  5.27501E+03  1.11399E+04 -8.13960E+03  1.05787E+04 -1.70036E+04  1.65431E+03 -1.28048E+04 -8.74152E+03
  2.44704E+03 -1.22460E+04  7.65342E+03 -9.34604E+03  1.34124E+04 -3.74402E+02 -1.34055E+03  4.76141E+03
 -3.64284E+03 -8.01142E+02 -3.57999E+03 -4.05970E+03  2.28775E+03 -8.18248E+03  8.69408E+03 -8.32801E+03
  1.44048E+04 -3.29559E+03  1.15764E+04  2.52243E+03  1.23278E+04  5.61676E+03  4.74790E+03  1.34519E+04
 -1.46382E+03  1.12042E+04 -9.57672E+03  1.04734E+04 -1.02404E+04  6.96266E+03 -4.67680E+03 -2.48698E+03
 -6.03254E+02 -2.14116E+03 -3.68131E+01 -1.07512E+03  2.21305E+03  1.06160E+02  1.50111E+03  2.69927E+03
 -4.93148E+03 -9.90631E+02 -8.22435E+03 -2.95790E+03 -6.07550E+03 -9.94246E+03  5.03169E+03 -8.92952E+03
  7.73937E+03 -5.35803E+03  2.76841E+03 -8.74193E+02 -2.57298E+03 -8.41061E+02 -2.52062E+03 -5.75364E+02
 -5.76502E+03 -5.10608E+03  2.94580E+03 -6.36095E+03 -3.76603E+02 -4.94122E+03  1.04396E+04 -5.45605E+03
  9.10563E+03 -3.20117E+03  4.27657E+03  3.47379E+03  1.86780E+03  1.13400E+04 -8.45527E+03  8.61004E+03
 -5.07788E+03  1.22200E+03 -6.82692E+03  3.33430E+03 -1.31491E+03 -4.34329E+03 -1.63614E+03  4.80211E+02
  2.26291E+03  3.85247E+03  5.30592E+03  5.47770E+03 -6.28757E+03  1.08349E+04 -4.46240E+03  3.95615E+03
 -4.50196E+03 -4.82591E+03  3.66130E+02 -1.03179E+04  2.14901E+03 -3.82793E+03  2.87798E+03  2.32163E+03
 -7.57602E+02  5.01348E+03 -4.08564E+03  6.95255E+03 -8.07041E+02  5.06047E+03 -7.97172E+03 -6.47310E+02
 -2.75128E+03 -7.30634E+03  2.39125E+03 -8.69835E+03  5.60757E+03 -2.14763E+03  5.28047E+03  1.12831E+03
 -1.10649E+03  4.99238E+03  1.22249E+03  7.64987E+03 -6.79374E+03  5.92251E+03 -9.43866E+03  1.09030E+03
 -5.15888E+03 -8.51807E+03 -3.48754E+03 -2.53408E+03  3.07395E+03 -4.57908E+03  5.45199E+03 -2.41538E+03
  1.87300E+03  1.77940E+03  2.13018E+03  3.01714E+02 -6.50578E+02 -2.47567E+02 -2.22584E+03 -1.40867E+03
  5.86470E+03 -1.61824E+02  7.24050E+03  1.92527E+03  7.58538E+03  1.80519E+03  3.15485E+03  8.46815E+03
 -2.33159E+03  1.33992E+04 -7.73208E+03  6.27859E+03 -1.36674E+04  2.82209E+03 -3.97770E+03 -1.36735E+03
 -5.53365E+03 -4.88992E+03  5.93623E+02 -1.44991E+03  4.11746E+03  1.14058E+03  4.30741E+03 -2.41864E+03
 -1.33457E+02 -1.21187E+03  7.31840E+02 -3.43223E+03  6.59648E+03 -4.24130E+03  2.06892E+03 -2.45955E+03
  2.31298E+03  6.71922E+02  1.81694E+02  4.74549E+03  5.51266E+02 -4.73675E+03 -2.69195E+03 -7.44647E+02
 -1.02812E+04 -4.04646E+02 -1.65122E+03 -1.95007E+03 -3.22761E+03 -4.16822E+03  2.44253E+03 -4.48737E+03
  3.55856E+03  1.58319E+02  7.08509E+03  3.59036E+03  3.48512E+03  6.25041E+03  3.36548E+02  8.03974E+03
 -4.34596E+03  5.67774E+03 -3.36888E+03  3.93626E+03 -3.68531E+03 -1.24279E+03 -4.45478E+03 -8.38766E+01
 -2.14938E+03 -3.77868E+03  2.02173E+03  1.07339E+03 -6.53933E+03  2.95606E+02 -5.07983E+03 -8.63748E+02
  1.44404E+03 -2.48763E+02 -4.00017E+02 -3.18317E+03  1.01524E+03 -1.65208E+03  2.87164E+03 -5.85413E+03
  5.55218E+03  2.32535E+03  4.26509E+03  2.00639E+01 -5.89200E+02  3.96447E+03 -1.78629E+03  4.87043E+03
 -7.75749E+02 -3.69975E+02 -4.02915E+02 -3.38987E+03 -5.40168E+01 -5.50828E+02  2.56054E+03  9.34046E+02
  1.73691E+03  7.71840E+02  4.48319E+02  1.86471E+03  1.25736E+03  2.87887E+03  2.87291E+03  1.87467E+03
 -1.92696E+03 -1.42563E+03  1.69512E+02  5.53328E+03  2.34538E+03  5.25477E+03 -4.06462E+02  2.00449E+03
 -2.52836E+02  2.34842E+03 -4.56323E+02  3.51507E+03 -5.83189E+03  3.24997E+03 -4.19609E+03 -5.04556E+02
 -3.21085E+03 -6.41002E+03 -3.62199E+03 -3.03524E+03 -3.34287E+03 -5.29900E+02  5.50444E+03 -1.92665E+03
 -1.06294E+03  3.95932E+03 -7.78746E+02 -7.91269E+02 -5.56632E+03  9.36425E+02  1.33556E+02  1.08969E+02
 -3.19877E+03 -4.64753E+03  4.86289E+02  4.97745E+03  1.42745E+03 -5.66810E+03  3.19033E+03  1.58030E+03
  4.19565E+03 -4.75938E+02  9.62886E+02 -1.09612E+03  1.23553E+03 -2.05248E+02  1.45474E+03 -2.90233E+03
  6.02048E+02 -1.42481E+03  1.34651E+03  1.95933E+01 -2.77061E+03  4.84994E+03  7.83748E+02  2.20800E+03
 -2.30550E+03  1.34510E+03  1.23650E+03  3.28114E+03 -4.92832E+03  4.17571E+01  1.30157E+03 -2.91425E+03
 -3.46125E+03  3.33288E+02  4.64165E+03  9.64546E+02  9.22501E+02  6.11460E+03  5.03041E+03 -4.15232E+02
 -5.35544E+02  2.32826E+03 -4.94459E+03 -4.79591E+02  7.73565E+02 -2.97443E+03  2.42777E+03 -3.18708E+02
 -2.83359E+03 -2.54803E+03 -2.15360E+03 -2.83577E+03  1.87951E+03  4.77951E+02  5.53323E+03  3.70174E+03
  3.82404E+03  6.00392E+02  7.94455E+02  5.63136E+02  4.39262E+03 -4.31310E+03  5.30310E+03 -1.52242E+03
 -5.08881E+02  2.28537E+03  8.25453E+02 -1.49463E+02  3.01823E+03  1.83732E+03  5.14644E+02  1.42686E+03
 -1.56157E+02  3.93354E+02 -2.23666E+03 -2.89350E+03 -1.07983E+03  2.52700E+03 -2.12334E+03 -4.65124E+02
  3.76480E+02 -4.17799E+03  1.06211E+03  1.91096E+03 -1.61562E+03  1.06911E+03  5.70432E+02  3.04474E+03
 -3.97074E+02 -2.44682E+03  3.52952E+03 -1.14547E+03 -2.75183E+03 -3.96872E+02  3.94599E+01  2.19585E+03
 -8.15414E+02  8.06647E+02 -3.09738E+03 -6.93657E+02 -5.40278E+03  3.65666E+03 -1.57399E+03 -8.46425E+02
 -3.05172E+03 -5.76294E+03 -1.47281E+03 -3.01205E+03  2.73138E+03 -3.63700E+03  1.87159E+03 -1.07131E+03
  2.17022E+03 -3.56545E+03 -3.58890E+01  1.24465E+03  2.85983E+03 -3.16951E+02 -2.26433E+03 -4.80798E+03
 -2.71051E+03  1.79612E+03 -2.66648E+03  1.46089E+03 -4.20262E+03 -9.86598E+02 -3.63497E+03 -2.40855E+03
 -3.83845E+03  4.54284E+02 -1.87736E+03 -3.01019E+03 -4.24265E+03  4.19827E+02  3.40883E+03  7.01041E+02
  1.23718E+03 -6.31847E+02 -2.85272E+03 -4.87484E+03  2.83837E+02 -1.28505E+03 -2.13623E+03  2.33052E+03
 -3.80353E+02  3.52538E+03 -3.10826E+03  2.74572E+03  6.50125E+02 -5.48865E+03 -2.30016E+03  1.00322E+02
  1.56095E+03  4.20778E+02  2.13530E+03  3.96531E+02  1.29318E+03 -6.02903E+02  2.55187E+02  2.65519E+03
 -2.02256E+02  3.09491E+03 -5.31436E+02  5.19399E+02  4.64718E+03 -1.19810E+03 -2.52847E+02 -4.38361E+03
  4.69974E+02  2.73570E+03  2.96384E+03  2.51883E+03  7.55195E+02  3.21156E+03 -1.38742E+03  4.92878E+02
 -3.76084E+03 -4.41096E+03 -3.03886E+03 -1.20613E+03 -3.04926E+03 -3.22068E+03  3.03535E+03 -5.43436E+03
 -4.35480E+03 -2.18068E+02  1.82270E+02 -2.47921E+03 -6.81647E+02  9.12870E+02  3.33173E+03  5.50948E+03
  2.32751E+03 -1.68288E+03 -3.55670E+03 -2.43761E+03 -1.69234E+03  5.46274E+03  2.37130E+02  1.82261E+03
 -2.88971E+03  1.08017E+03 -3.94975E+03 -3.02829E+03  1.64783E+03 -1.13392E+02  2.54106E+03  3.07953E+03
 -1.44502E+03 -4.28466E+03  3.47819E+02 -1.90352E+02  4.63391E+03 -3.01402E+03  2.18301E+03 -1.37304E+03
 -3.04897E+03  3.00258E+03 -1.35830E+03 -3.73605E+03  2.17616E+03 -3.65337E+03  2.21578E+03  1.32785E+03
