 $NMID ID='MM_0lb_SNR50_17hz_g55_39.RAW', FMTDAT='(8E13.5)'
 TRAMP=1., VOLUME=1. $END
  3.06635E+05 -7.83084E+02  3.35546E+05  2.45475E+05  8.43958E+04  3.39128E+05 -1.28498E+05  2.49050E+05
 -1.91549E+05  8.66870E+04 -1.10260E+05 -3.02941E+04  8.85875E+02 -5.15721E+04  5.80368E+04  1.91628E+03
  3.32274E+04  5.42603E+04 -1.68126E+04  7.94043E+04 -6.48371E+04  6.36410E+04 -8.44391E+04  2.71366E+04
 -7.55453E+04 -1.53797E+04 -5.24124E+04 -5.12154E+04 -1.63272E+04 -6.79955E+04  2.61042E+04 -4.37105E+04
  3.56972E+04  5.30012E+03  1.36187E+04  4.58820E+04 -3.29431E+04  4.93821E+04 -7.02086E+04 -8.68859E+02
 -5.67863E+04 -5.89804E+04 -3.83128E+03 -7.69205E+04  3.25946E+04 -5.22291E+04  4.86808E+04 -1.76883E+04
  4.24025E+04  1.21744E+04  3.05533E+04  2.36957E+04  1.87671E+04  3.04902E+04 -5.62492E+03  2.65466E+04
 -1.99806E+04  1.22301E+04 -1.53812E+04 -5.95773E+03  1.05078E+04 -5.76157E+03  2.38539E+04  1.29544E+04
  1.11504E+04  3.26593E+04 -3.53319E+04  3.27822E+04 -5.60250E+04  2.90262E+03 -5.55987E+04 -4.24980E+04
 -1.20503E+04 -5.72571E+04  3.70098E+04 -4.58159E+04  5.60671E+04  2.48462E+03  2.92799E+04  3.54940E+04
 -5.89510E+03  3.26487E+04 -2.77356E+04  1.47391E+04 -3.23440E+04 -4.68502E+03 -1.79195E+04 -1.28284E+04
 -8.92327E+03 -1.11459E+04  1.27856E+03 -1.94020E+04  4.51875E+03 -2.06430E+04  1.55598E+04 -1.16333E+04
  9.32392E+03  9.13067E+03 -8.66951E+03  1.15046E+04 -2.51276E+04 -5.22130E+03 -9.47291E+03 -3.32382E+04
  2.38367E+04 -4.17903E+04  4.41909E+04 -1.88889E+04  4.28650E+04  1.62121E+04  1.57690E+04  4.58672E+04
 -1.39197E+04  2.96552E+04 -2.78492E+04  5.60807E+03 -9.65674E+03 -2.74796E+04  2.28384E+04 -3.06317E+04
  3.85356E+04 -1.47884E+04  3.09320E+04  2.50390E+04  1.64290E+04  4.85020E+04 -7.01431E+03  4.36741E+04
 -3.18380E+04  3.00505E+04 -4.01850E+04  6.09470E+03 -4.32858E+04 -1.50646E+04 -2.77975E+04 -3.52695E+04
  5.73427E+03 -3.98550E+04  3.02949E+04 -1.20619E+04  2.48722E+04  1.18987E+04 -5.64434E+02  2.07210E+04
 -1.16443E+04  8.44421E+03 -1.34633E+04 -1.12749E+04  4.11882E+03 -1.18127E+04  1.76814E+04  2.23958E+03
  1.08067E+04  2.62187E+04 -6.41887E+03  2.21397E+04 -2.45702E+04  8.89591E+03 -2.79965E+04 -1.35708E+04
 -1.62705E+04 -1.63742E+04 -4.45593E+03 -2.01482E+04  4.42277E+03 -1.63859E+04  1.33665E+04 -1.63423E+04
  1.96880E+04 -1.64551E+04  3.05462E+04 -3.07815E+03  2.31709E+04  1.85984E+04  5.74433E+03  3.48074E+04
 -1.56462E+04  3.10077E+04 -3.11717E+04  1.49505E+04 -1.81666E+04 -1.19870E+04 -6.00712E+03 -1.60436E+04
  1.25030E+03 -4.40985E+03 -4.92673E+03  4.81151E+03 -2.00158E+04  5.62122E+03 -1.36806E+04 -8.00947E+03
 -5.25872E+03 -1.50314E+04  4.53984E+03 -1.80211E+04  1.71058E+04 -1.56158E+04  1.70048E+04 -3.75756E+03
  1.05805E+04  1.10761E+04  7.16511E+02  1.30981E+04 -9.97580E+03  6.66684E+03 -1.93613E+04 -7.24309E+03
 -1.35192E+04 -1.19783E+04  2.11998E+03 -2.28820E+04  1.09387E+04 -1.48280E+04  1.95279E+04 -8.20134E+03
  1.83414E+04  5.23558E+02  1.24027E+04  5.40542E+03  8.54507E+02  2.25761E+03  1.18704E+04 -3.02545E+02
  1.70585E+04 -4.29815E+02  1.33407E+04  1.21136E+04  7.07398E+03  2.28649E+04 -2.31557E+03  3.25681E+04
 -9.05260E+03  2.03866E+04 -2.94016E+04  1.09639E+04 -3.27112E+04 -2.43546E+03 -2.58084E+04 -1.09216E+04
 -1.22602E+04 -2.66922E+04  7.43183E+03 -2.39432E+04  1.83618E+04 -1.26044E+04  1.87761E+04  6.17641E+03
  7.25958E+03  1.23631E+04 -9.86507E+03  1.20085E+04 -1.64956E+04  6.59309E+03 -8.29343E+03 -9.36286E+03
 -1.99761E+03 -1.93859E+04  1.08004E+04 -1.08448E+04  1.11950E+04  1.87551E+03  2.68902E+03  4.19432E+03
 -7.23487E+03  1.20890E+03 -3.38126E+03 -5.00062E+03  1.34339E+03 -1.00424E+04  4.74396E+03 -1.31979E+04
  1.82159E+04 -8.02631E+03  2.06997E+04  4.74144E+03  1.33105E+04  1.18550E+04  4.07544E+03  1.36669E+04
 -1.21115E+03  1.96827E+04 -1.32285E+04  1.13507E+04 -9.07620E+03  8.19667E+03 -1.02621E+04 -2.64797E+03
 -6.72071E+03 -4.62237E+03  1.54761E+03  2.52921E+03 -1.18403E+03  1.37470E+03 -6.50030E+03  1.07236E+03
 -1.01990E+04 -2.43918E+03 -1.55530E+04 -9.74997E+03 -1.28356E+03 -1.72517E+04  7.69738E+03 -1.06382E+04
  6.00234E+03 -1.95106E+03  8.67949E+03  6.95032E+03 -3.20741E+01  5.70243E+03 -7.04647E+03  3.78875E+03
 -5.78433E+03 -8.00057E+03 -4.40980E+02 -8.68400E+03  6.19059E+03 -8.44585E+03  1.27712E+04 -7.91815E+03
  1.60432E+04  5.76801E+03  1.04342E+04  9.17087E+03  3.63762E+03  1.56584E+04 -6.97223E+03  9.77877E+03
 -4.28834E+03  4.46558E+03 -1.25605E+03 -5.61964E+03  2.81490E+03 -7.48486E+03  7.83174E+03  2.62235E+03
  1.92514E+03  5.51788E+03  1.13363E+03  8.41572E+03 -6.19888E+03  7.52541E+03 -1.27113E+04 -9.98363E+02
 -4.49955E+03  2.13740E+03  1.95439E+03 -8.74626E+03  5.08713E+03  2.99651E-01  1.44429E+03 -1.69540E+03
  3.36945E+03  4.62291E+03 -1.47640E+03  4.79761E+03 -6.63331E+03  5.74392E+03 -7.83830E+03 -3.99425E+03
  1.13892E+03 -5.43885E+03  4.76311E+03 -1.06773E+04  6.08358E+03 -8.19984E+03  3.88842E+03  4.47816E+02
  1.95341E+03  6.29810E+03  2.24802E+01  7.65705E+03 -7.88190E+03  3.07084E+03 -1.22826E+03 -1.61248E+03
 -9.16828E+03 -7.51338E+03 -1.57749E+03 -6.20254E+03  2.06340E+03 -3.59246E+03  7.75615E+03 -1.16703E+03
  4.99585E+03  3.05666E+03  2.70914E+03  6.93053E+02  8.69761E+02  1.08264E+03  1.18618E+02 -1.06406E+03
 -8.19770E+02 -1.04214E+03  1.14978E+04  1.58632E+03  8.54514E+03  6.35496E+03  5.90138E+03  6.33056E+03
  1.95075E+02  1.69087E+04 -8.13788E+03  1.21958E+04 -1.28725E+04  3.37960E+03 -8.99104E+03 -4.24854E+03
 -1.66386E+03 -6.92980E+03 -5.83418E+03 -8.17607E+03  3.86144E+03 -4.20432E+03  4.18790E+03  2.42956E+03
  6.23114E+02  2.60590E+03  3.06835E+03 -1.07641E+03  4.62848E+03 -2.80274E+03  5.73804E+03  4.70165E+03
  8.48701E+03  1.67622E+03  7.43892E+02  3.57690E+03  1.76264E+03  8.31569E+03 -4.36668E+03  2.27829E+03
 -5.75265E+03  1.87168E+02 -6.12077E+03 -2.40809E+03 -6.24721E+02 -7.86565E+03  3.34052E+03 -5.12134E+03
  7.71778E+03 -7.26596E+03  8.40127E+03 -7.86251E+02  4.83757E+03  4.58180E+03 -3.89665E+02  7.96007E+03
 -5.94941E+03  7.32088E+03 -4.19495E+03  1.13231E+03 -2.20511E+03 -5.34529E+03 -3.56323E+03 -1.57834E+03
  3.51753E+02  1.58857E+03  1.38895E+03  4.47925E+03 -2.98146E+03  2.92529E+02 -3.42966E+03 -2.00461E+03
 -1.50828E+03 -9.98460E+03  2.40243E+03 -7.87406E+03  2.82501E+03 -5.25004E+03  5.98161E+00 -2.94629E+03
  7.57052E+03  3.11975E+03  4.25093E+03  3.95302E+03  1.48666E+03  1.99911E+03 -5.00137E+03  3.89890E+03
 -3.01297E+03  1.12869E+03 -9.07042E+03 -1.19760E+03 -5.43494E+02 -4.01645E+03  1.73842E+03  1.87413E+03
  2.24594E+03 -1.38150E+03  2.26168E+03  2.46937E+03 -1.57871E+03  4.26841E+03  2.78960E+03 -5.20138E+01
  2.38175E+03 -2.11700E+03 -1.53891E+03  1.94874E+02  3.40718E+03  5.66774E+02  1.00615E+03 -3.01274E+02
 -4.21187E+03  5.44204E+03 -3.23124E+03  7.75177E+03 -3.42687E+03  4.41604E+03 -4.22074E+03  4.15146E+02
 -2.90625E+03 -5.70934E+03  3.40740E+02 -5.14207E+03  8.96626E+02 -2.66234E+03  1.77524E+03 -5.62039E+02
 -2.70667E+03  2.40480E+03  2.53510E+03  5.21012E+03 -3.47325E+03 -6.70375E+02 -4.25843E+03  7.26024E+02
  2.92460E+03 -3.19790E+03  2.09147E+02 -4.23361E+03  1.32409E+03 -1.62548E+03  9.12575E+02 -5.30381E+02
  1.41459E+03  4.92919E+03 -1.84808E+03 -2.10211E+03 -3.50458E+02 -7.01966E+02 -1.54438E+03 -3.28196E+03
  1.07773E+03 -1.96788E+03 -1.93337E+03 -1.20499E+03 -1.07862E+03  7.47012E+03  7.23410E+02  5.57915E+03
 -5.23044E+03  1.57000E+03 -7.19097E+03  1.78611E+00 -8.41366E+02 -1.82460E+03 -1.08337E+03 -1.30547E+03
  6.19614E+02 -2.25801E+03  3.44227E+03 -1.03379E+03 -6.40902E+02  4.73145E+03 -6.41606E+03  2.41586E+03
 -2.60270E+03  2.16851E+03 -8.16221E+02 -4.06428E+03 -6.54376E+02  1.60244E+03 -1.10886E+03 -3.24517E+03
 -4.33251E+02 -3.92997E+03  1.55664E+03 -1.53005E+03  5.11844E+03  1.64557E+03 -4.81331E+02  3.57479E+03
  4.64469E+03  3.78301E+03 -3.17022E+03 -4.97429E+03 -3.00456E+03 -4.86131E+03  9.22809E+03 -3.87653E+03
  4.30742E+03  1.43344E+03  3.34935E+03  4.59913E+02 -5.88499E+02  1.88922E+03  2.11394E+03  6.82735E+03
 -3.10564E+03  7.51210E+02 -6.89919E+03 -3.56966E+03  1.57298E+03 -4.34754E+03  1.02654E+03 -1.47853E+02
 -8.23795E+02 -1.46129E+03  2.75303E+03  3.01297E+03 -1.63305E+03  7.10344E+02  3.89575E+03 -1.39345E+03
  1.61899E+03  1.48745E+03  8.02348E+02  1.15187E+03  1.18211E+03  2.63711E+03 -2.66981E+03 -1.88760E+03
  4.23534E+03  2.27230E+03 -4.29357E+03 -2.81298E+02 -3.20081E+03 -4.80042E+02  9.42013E+02  2.57338E+02
 -2.98359E+03 -6.32781E+03 -5.16126E+03 -7.57914E+03  2.28614E+03 -7.44965E+03  4.71427E+03 -2.89951E+03
  1.60762E+03  2.75913E+03  2.84527E+03  3.11706E+03  4.60970E+02  1.32715E+03  2.50373E+02 -2.47729E+03
  3.54592E+02  4.34355E+03  2.57100E+03 -3.29780E+03 -2.83459E+03 -2.13033E+03 -2.02973E+03  6.08459E+03
 -3.66743E+02 -5.86960E+03 -4.95151E+03 -9.21321E+02  1.30913E+03 -1.14737E+03 -2.10986E+03  2.77920E+02
  2.56402E+03  2.51239E+02  4.74815E+03  3.91966E+03  2.34958E+03 -1.38318E+03 -3.58938E+02  2.49468E+03
 -8.19626E+02  4.08138E+03 -3.83858E+03  1.33770E+03  3.85426E+01 -1.95497E+02  9.35244E+02 -1.28199E+03
 -2.17104E+03 -3.57647E+02 -1.23249E+03 -1.77856E+03 -2.23340E+03 -7.13310E+03 -6.89745E+02 -3.89856E+03
  1.05542E+03 -2.51699E+03 -6.13223E+03 -4.05959E+03 -2.16699E+03 -5.38722E+02 -2.17059E+03  3.31196E+03
  3.95486E+03 -2.87943E+03 -2.57712E+02 -3.67650E+03  1.91419E+02  7.28698E+02  6.51317E+02  2.05559E+02
  8.25162E+02  1.08115E+03 -7.90977E+02  3.05056E+03 -3.89968E+03 -5.62588E+03  2.42806E+02 -4.48341E+03
  1.45657E+03  3.75118E+03 -1.89888E+03  6.70519E+02  4.18895E+02  1.06119E+03 -1.14810E+03 -6.37601E+02
  5.25429E+03  3.49850E+03 -2.89186E+03  1.55853E+03  5.44572E+02  2.97699E+03  1.17627E+03 -3.16683E+03
  1.52772E+03 -1.21379E+03 -4.23784E+03  9.16948E+02 -3.60433E+03 -5.86041E+02  6.72175E+02  1.00684E+03
 -3.22361E+03 -2.25749E+03 -7.24369E+02 -4.55148E+02  3.16106E+03 -9.35300E+02 -4.98247E+02 -1.00857E+03
 -1.89544E+03 -3.44392E+03  3.36945E+03 -9.64557E+02 -9.47486E+02  2.58117E+03 -3.07263E+03 -4.28484E+03
