 $NMID ID='MM_0lb_SNR50_19hz_g55_62.RAW', FMTDAT='(8E13.5)'
 TRAMP=1., VOLUME=1. $END
  3.09713E+05 -9.12954E+02  3.37751E+05  2.55348E+05  8.35354E+04  3.37814E+05 -1.34570E+05  2.49088E+05
 -1.90683E+05  8.42449E+04 -1.10485E+05 -3.21868E+04  1.11184E+03 -5.60983E+04  5.32019E+04  1.11550E+03
  3.00652E+04  5.65063E+04 -1.52116E+04  7.92542E+04 -6.44902E+04  6.39848E+04 -8.12314E+04  3.28782E+04
 -8.25050E+04 -1.27911E+04 -5.76892E+04 -5.31154E+04 -1.42261E+04 -6.43184E+04  2.63952E+04 -4.64964E+04
  3.95308E+04  2.70898E+03  1.63927E+04  4.78561E+04 -3.99131E+04  4.52949E+04 -6.53167E+04 -4.10652E+02
 -5.14598E+04 -5.69646E+04 -7.74632E+03 -7.47619E+04  3.20567E+04 -5.36403E+04  4.54338E+04 -1.70708E+04
  3.80129E+04  1.31158E+04  3.47812E+04  2.49960E+04  1.22987E+04  2.62365E+04 -4.64656E+03  3.07447E+04
 -2.39616E+04  1.41606E+04 -1.80090E+04 -4.04905E+03  8.38929E+03 -1.58993E+03  1.47842E+04  1.50561E+04
  6.66484E+03  3.45844E+04 -3.49007E+04  3.41464E+04 -6.20229E+04  3.49412E+03 -5.38238E+04 -4.64603E+04
 -1.22324E+04 -6.31935E+04  4.16178E+04 -4.52344E+04  5.80011E+04 -2.23132E+03  3.36886E+04  3.06532E+04
 -2.79124E+03  3.46111E+04 -2.68328E+04  1.68619E+04 -2.92661E+04 -4.98910E+03 -1.13527E+04 -1.29359E+04
 -1.25498E+04 -1.33108E+04 -3.19827E+03 -1.81433E+04  6.14046E+03 -2.42759E+04  1.45227E+04 -9.23612E+03
  1.52503E+04  4.16918E+03 -6.82889E+03  1.06404E+04 -2.31073E+04 -2.19948E+03 -7.88658E+03 -3.15889E+04
  1.78658E+04 -4.22083E+04  4.54410E+04 -1.61535E+04  4.62891E+04  1.80583E+04  1.23659E+04  4.00609E+04
 -1.57086E+04  3.19476E+04 -2.01009E+04  1.45351E+03 -7.97540E+03 -2.85753E+04  1.74494E+04 -3.42879E+04
  3.95693E+04 -7.04290E+03  3.58174E+04  1.60497E+04  1.76079E+04  4.38163E+04 -9.10587E+03  5.04097E+04
 -2.98166E+04  2.98221E+04 -3.61339E+04  6.74896E+03 -3.80743E+04 -1.60487E+04 -2.54669E+04 -3.71529E+04
  6.84254E+03 -3.48142E+04  3.11952E+04 -1.22109E+04  2.54350E+04  1.03919E+04  4.95574E+03  1.67334E+04
 -1.56765E+04  1.06353E+04 -9.38458E+03 -5.30101E+03  6.11195E+03 -9.84163E+03  1.90555E+04  9.38387E+03
  1.43122E+04  2.14310E+04 -7.36889E+03  2.01479E+04 -2.23361E+04  5.70506E+03 -2.37076E+04 -3.10559E+03
 -1.70353E+04 -1.31769E+04 -4.90987E+03 -1.70115E+04  2.84495E+03 -1.49357E+04  2.04408E+04 -1.53208E+04
  1.87088E+04 -1.07087E+04  2.71756E+04  8.04585E+02  2.35166E+04  1.87635E+04  4.27561E+03  3.71243E+04
 -1.71953E+04  2.81469E+04 -2.69464E+04  6.76177E+03 -2.18167E+04 -1.20589E+04 -5.54394E+03 -1.14879E+04
  5.84323E+03 -5.32443E+03 -3.14229E+03  3.83922E+03 -1.15513E+04  4.91873E+03 -1.23571E+04 -6.58981E+03
 -4.52336E+03 -1.45698E+04  5.82661E+03 -2.28990E+04  1.48275E+04 -1.53029E+04  1.41327E+04  1.26591E+03
  1.08499E+04  9.36582E+03 -1.76862E+03  1.84580E+04 -9.21746E+03  1.00696E+04 -1.44360E+04 -6.01420E+03
 -1.15828E+04 -1.38496E+04 -8.63394E+02 -2.12192E+04  8.68773E+03 -1.37925E+04  1.67853E+04 -1.04947E+04
  1.45049E+04  1.93358E+03  1.34660E+04  1.85348E+02  5.89343E+03  6.00961E+02  1.07163E+04 -4.27133E+03
  1.42723E+04  7.94172E+02  1.53590E+04  1.22194E+04  6.68468E+03  2.11926E+04 -3.66922E+03  2.83017E+04
 -1.67661E+04  2.05733E+04 -2.48082E+04  1.45176E+04 -2.68422E+04 -3.31641E+03 -2.43747E+04 -1.42040E+04
 -9.07880E+03 -2.37036E+04  7.15000E+03 -2.08279E+04  1.66318E+04 -6.62522E+03  1.49031E+04  3.72552E+03
  3.55632E+03  1.10537E+04 -6.01723E+03  1.09832E+04 -1.39611E+04  5.68525E+03 -1.07769E+04 -7.84215E+03
  2.34033E+03 -1.46972E+04  3.63007E+03 -1.18633E+04  5.43356E+03  1.07865E+03 -2.36802E+03  4.94320E+03
 -5.90228E+03 -9.06129E+02 -2.37969E+03 -6.95644E+03  4.71562E+03 -1.23196E+04  7.06149E+03 -1.11441E+04
  1.06753E+04 -3.70120E+03  7.88586E+03  4.33181E+03  1.12551E+04  8.33923E+03  5.94957E+03  1.45512E+04
 -3.29148E+02  1.67089E+04 -8.41523E+03  4.83153E+03 -9.65408E+03  5.15662E+03 -5.09998E+03 -4.22902E+03
 -9.76370E+03 -3.47214E+03 -3.21361E+02  3.20238E+03 -1.21947E+03  1.50052E+03 -5.37777E+03  8.24867E+03
 -8.21698E+03  4.34715E+02 -7.18820E+03 -6.83099E+03 -4.75191E+03 -5.93568E+03  2.31069E+03 -1.20010E+04
  3.32795E+03 -6.23700E+03  3.54690E+03  1.88331E+03  1.75804E+03  5.17741E+01 -3.57439E+03 -2.06111E+03
 -4.31805E+03 -3.66582E+03  4.24184E+02 -1.01862E+04  6.10271E+03 -1.27194E+04  7.06435E+03 -3.47459E+03
  1.11525E+04 -2.19568E+03  5.48365E+03  6.19429E+03 -4.80811E+03  7.83475E+03 -4.61611E+03  1.04152E+04
 -6.37130E+03  4.53278E+03 -1.55174E+03  1.00868E+02  4.81329E+03  4.35699E+03  3.23895E+03 -7.47477E+03
  3.04173E+03  3.23185E+03  5.93021E+03  5.67471E+03 -3.23972E+03  3.50910E+03 -1.26801E+04  2.18212E+03
  1.20503E+03 -9.43875E+03 -3.50379E+02 -6.99167E+03  5.64510E+03 -5.90435E+03  6.14540E+03  7.01533E+01
  3.04051E+02  4.86028E+03 -3.48250E+03  5.46906E+03 -5.42788E+03  2.42247E+03 -4.08830E+03  1.46789E+03
 -2.33922E+03 -1.02575E+04  2.62411E+03 -1.03082E+04  4.57856E+03 -6.84824E+02  1.67914E+03  3.24927E+03
  2.89652E+03  9.30747E+03  6.85616E+02  6.38885E+03 -4.95631E+03  4.75688E+03 -6.84276E+03 -2.81049E+03
 -4.64418E+03 -5.24990E+03 -2.31024E+03 -6.27012E+03  1.63882E+03 -4.08359E+03  4.46711E+03 -3.54296E+03
  3.52818E+03 -4.52854E+02 -4.67945E+03  2.49239E+02 -4.11763E+03  1.29742E+03  8.71819E+02 -3.34622E+03
  4.08663E+03 -4.36918E+03  5.64416E+03  1.87729E+03  3.46665E+03  5.63467E+03  2.99394E+03  5.15006E+03
 -2.90260E+03  8.62113E+03 -9.73500E+03  8.77000E+03 -8.60700E+03  4.25291E+03 -6.90887E+03 -1.68395E+03
 -4.41450E+02 -4.16728E+03 -7.15870E+02 -6.64907E+03  5.44002E+02 -1.30440E+03  1.71751E+03 -7.85650E+02
 -1.80806E+03 -2.70497E+03 -9.08509E+02  3.50711E+02  3.69424E+03 -2.48505E+03  3.25096E+03  4.42540E+02
  2.40043E+03  2.36769E+03 -4.63049E+03  2.50740E+03  1.39291E+01  9.29557E+02 -6.41807E+03  1.33802E+03
 -8.53727E+03  3.39668E+03 -2.35284E+03 -3.83793E+03 -1.78911E+02  3.76983E+02  2.21290E+03 -7.19200E+03
  4.60055E+03 -6.87435E+03  9.98112E+03 -3.13218E+03  3.15312E+03  9.71919E+03  2.17852E+03  6.08852E+03
 -4.73467E+03  3.05647E+03 -1.14642E+03 -1.93080E+03  5.07012E+03 -9.82344E+02  2.95234E+01 -2.33874E+03
 -8.57278E+02  6.93958E+00  5.28274E+02  6.37449E+03 -1.54598E+03 -2.14093E+03 -3.13646E+03 -2.17170E+03
  3.29614E+03 -8.78837E+03 -2.36830E+03 -4.56373E+03  3.64643E+03 -1.16149E+03  1.31531E+03 -3.02511E+03
  3.68777E+03  5.60577E+03  4.62710E+03  5.16218E+03 -2.73614E+03  4.69095E+03 -1.88693E+02  2.57942E+03
 -5.82446E+03  2.86785E+02 -4.81204E+03 -5.53629E+03  3.50255E+03 -9.42247E+02  3.49341E+03 -4.97625E+02
  5.67432E+03 -1.70459E+03  1.68312E+03  5.81414E+01 -1.36504E+03 -7.50339E+02  1.41031E+03 -2.32069E+03
  2.16416E+03 -3.87898E+03  1.73303E+02  1.84531E+03 -5.21575E+02  9.04309E+02  3.01019E+03  5.10806E+01
  8.34054E+01  4.11992E+03 -1.52187E+03  7.75754E+03 -6.08525E+03  1.80732E+03 -4.65127E+03  1.95662E+03
 -1.97737E+03 -2.41281E+03 -1.15202E+03 -5.26162E+03  3.59088E+03 -3.23933E+03  3.47104E+03 -4.04049E+03
 -6.06354E+02  1.57652E+03  2.31955E+03  6.02186E+03 -8.11450E+02  3.33381E+03 -4.52318E+03  1.91878E+03
 -9.80377E+02  5.08175E+02  7.30285E+03  5.08170E+02  2.66243E+03  2.30930E+03 -5.46344E+03  3.09583E+03
 -9.83696E+01 -4.63419E+02  3.50865E+03  1.60173E+03  1.32958E+03 -3.13910E+03  1.62400E+02  8.06484E+02
  5.91353E+02  1.60993E+03  1.05282E+03  4.41985E+03  5.20428E+02 -5.74130E+01 -1.89219E+03  2.88088E+03
 -7.25202E+02 -6.25912E+03  1.01495E+03  3.62557E+02  1.86083E+02  8.80841E+02 -2.85625E+03  1.27100E+03
  2.46270E+02 -5.40827E+02  6.39278E+02 -1.51228E+03 -6.14967E+02  2.60054E+03 -7.05062E+02 -2.37134E+03
 -3.38489E+03 -2.03148E+03 -3.74964E+03 -5.95710E+03  1.16592E+03 -2.55576E+03 -8.49567E+02 -4.24100E+03
  2.17462E+03 -3.35193E+02  1.29405E+03 -2.61801E+03  7.25140E+01  5.56939E+02  1.03541E+03  2.46442E+03
  7.49218E+01  2.47527E+03 -2.11710E+03 -4.69401E+02 -1.92782E+03 -2.06422E+03 -3.03054E+03 -1.12907E+03
 -1.01502E+02 -4.52742E+03  1.93918E+02  1.07626E+03  2.09498E+03  3.26393E+03 -3.23332E+02  1.30421E+03
 -4.72937E+03 -1.50424E+03 -4.22262E+03  1.56154E+03 -4.45337E+03 -2.94107E+03  4.52568E+01 -2.87214E+02
  1.72883E+03  4.89962E+03 -1.48166E+03 -7.20720E+01  5.01835E+02  3.22780E+03  1.27976E+03  4.15731E+03
 -3.58413E+03 -3.60550E+03  2.30240E+03 -1.18194E+03 -1.05406E+03 -5.20139E+02  2.57819E+03  2.53211E+03
 -2.39314E+03  3.64961E+03 -1.53108E+03  7.94255E+02 -2.44197E+03 -4.02125E+02 -4.50916E+03 -5.24888E+03
  5.28997E+03 -6.44085E+03  2.27060E+02 -2.26671E+03  5.56694E+03 -6.75031E+03  1.66462E+03  1.04930E+03
  8.03691E+02  6.48720E+02  2.24155E+03  2.43984E+03  2.61903E+03  2.59655E+03  9.85854E+02  3.15938E+03
  9.50009E+02  7.94010E+02 -6.65417E+02 -1.32720E+03  5.44408E+02  3.66583E+03  1.36688E+03 -3.15213E+03
 -9.33430E+02  2.51799E+03 -5.34264E+03  9.00281E+02 -1.73213E+03  4.15901E+03  1.28935E+03 -5.38952E+03
  2.20480E+03 -4.10495E+02 -4.01111E+03  3.50222E+03  4.59041E+03  3.82112E+03 -6.51310E+01  9.04859E+02
 -2.02962E+03 -1.41970E+03 -1.06979E+03  1.95067E+03 -3.10728E+03 -2.60369E+02 -3.39613E+03 -1.90193E+03
 -1.17560E+03 -2.82690E+03 -1.48556E+03 -4.05992E+03 -5.53816E+02  1.30678E+03  5.49504E+03 -2.12456E+03
 -4.53956E+02  4.08035E+03  1.64235E+03  3.24983E+03 -6.71481E+02 -3.71109E+03  3.97259E+02  4.46636E+02
 -3.33173E+03  2.28932E+03  1.58847E+03 -2.36924E+03 -1.53793E+03  8.31359E+02 -4.86189E+03  3.66444E+02
 -1.21155E+03  3.35285E+03  1.93007E+02  3.28325E+03  1.91253E+03  3.02598E+03  6.25031E+01 -4.85021E+01
  3.13121E+03 -1.90970E+03  4.23254E+03  1.06959E+03 -1.11189E+03  2.05193E+03  2.11697E+03 -3.73284E+03
 -1.10134E+03  4.80726E+03 -3.88440E+03 -7.11482E+02 -3.76545E+03  2.28473E+03  1.06495E+03  8.33992E+02
 -2.29041E+03 -4.98648E+02 -1.45251E+03  2.16361E+03  4.36468E+03 -2.71933E+03  4.41582E+02  3.42868E+03
 -1.53225E+03  2.64372E+03  2.95389E+03 -4.37601E+03 -2.82233E+03 -3.39014E+03  3.55897E+02  3.11068E+03
  2.35158E+03  4.47978E+01  1.24282E+03 -1.02794E+02  1.48126E+03 -1.24143E+03  8.11756E+01  7.63522E+02
