 $NMID ID='MM_0lb_SNR50_10hz_g60_60.RAW', FMTDAT='(8E13.5)'
 TRAMP=1., VOLUME=1. $END
  3.12061E+05 -2.52971E+03  3.40624E+05  2.47974E+05  8.31888E+04  3.39486E+05 -1.33629E+05  2.52447E+05
 -1.86485E+05  8.46196E+04 -1.17091E+05 -3.50206E+04  2.93006E+03 -5.39880E+04  5.66168E+04 -4.48934E+03
  3.53054E+04  5.14537E+04 -1.98114E+04  7.56436E+04 -5.77884E+04  5.76392E+04 -9.00208E+04  3.59295E+04
 -7.85567E+04 -1.08954E+04 -5.82369E+04 -5.48309E+04 -1.29515E+04 -7.94781E+04  2.81233E+04 -5.02217E+04
  4.51544E+04  8.99453E+03  1.08474E+04  4.44478E+04 -3.69383E+04  5.43105E+04 -6.62286E+04  8.49994E+02
 -5.52237E+04 -5.74926E+04 -4.15115E+03 -7.80823E+04  3.46209E+04 -5.43012E+04  4.67668E+04 -2.05950E+04
  4.15052E+04  9.63852E+03  3.70685E+04  2.38979E+04  1.33281E+04  2.51206E+04 -5.02616E+03  2.27520E+04
 -1.97464E+04  1.20577E+04 -1.44231E+04 -5.09340E+03  1.01284E+04 -9.05818E+03  2.61410E+04  1.56143E+04
  9.25014E+03  3.96096E+04 -3.52617E+04  3.95782E+04 -6.50347E+04  3.82352E+03 -5.82007E+04 -4.41702E+04
 -1.55398E+04 -6.81696E+04  3.86425E+04 -5.57814E+04  6.86991E+04 -5.77068E+03  4.09679E+04  3.11812E+04
 -4.60807E+03  3.43107E+04 -3.42777E+04  1.27588E+04 -3.48741E+04 -1.04557E+03 -1.80643E+04 -1.21386E+04
 -1.10319E+04 -1.88365E+04  1.28517E+03 -2.36331E+04  1.21017E+04 -2.09864E+04  2.12960E+04 -1.51166E+04
  9.38243E+03  9.41529E+03 -1.57301E+04  1.36598E+04 -2.34012E+04 -1.08357E+04 -8.63295E+03 -3.81707E+04
  1.87220E+04 -4.57816E+04  5.26122E+04 -2.73760E+04  5.12579E+04  2.04572E+04  1.91385E+04  5.26071E+04
 -2.27444E+04  3.66896E+04 -2.79629E+04 -2.40081E+03 -7.29713E+03 -2.90218E+04  2.38843E+04 -3.76588E+04
  4.67746E+04 -9.78078E+03  3.36206E+04  2.97361E+04  1.84560E+04  5.44045E+04 -2.64440E+03  5.72663E+04
 -3.33423E+04  3.88611E+04 -4.45541E+04  5.21098E+03 -4.12739E+04 -1.56587E+04 -2.96492E+04 -4.31578E+04
  7.15751E+03 -3.94209E+04  3.63779E+04 -2.01667E+04  2.92203E+04  1.34084E+04  4.78222E+03  1.69942E+04
 -1.75670E+04  6.61490E+03 -1.52217E+04 -5.15806E+03  9.70477E+03 -1.82875E+04  1.69414E+04  7.63083E+03
  1.38358E+04  2.27988E+04 -6.81719E+03  2.68712E+04 -2.18803E+04  1.47331E+04 -3.26022E+04 -7.42418E+02
 -3.20534E+04 -1.89071E+04 -1.46082E+04 -2.23078E+04 -1.77835E+03 -2.24339E+04  1.74575E+04 -2.61253E+04
  3.18123E+04 -1.83583E+04  4.12806E+04  2.13013E+03  3.09498E+04  2.30509E+04  9.55580E+03  4.10155E+04
 -2.06508E+04  3.57508E+04 -2.92225E+04  1.60032E+04 -2.80159E+04 -4.06341E+03 -4.57540E+03 -1.09920E+04
  4.47433E+03 -5.64610E+02 -9.66996E+03  7.24990E+03 -2.07140E+04 -7.37319E+02 -2.45656E+04 -2.19287E+04
 -1.64991E+04 -2.41406E+04  1.17059E+04 -3.10626E+04  2.14722E+04 -1.62294E+04  2.70572E+04 -4.82924E+03
  1.11606E+04  2.25192E+04 -9.22546E+03  2.16406E+04 -1.93675E+04  1.65132E+04 -2.23000E+04 -8.57440E+02
 -1.47507E+04 -2.23274E+04  2.03171E+03 -2.49671E+04  1.66984E+04 -1.54597E+04  2.63062E+04 -1.21838E+04
  1.96785E+04  1.52992E+03  1.98029E+04  1.88286E+03  8.15549E+03  8.03835E+03  7.28502E+03 -2.60983E+03
  2.05433E+04  4.98051E+03  2.52262E+04  1.90889E+04  1.45295E+04  3.79963E+04 -5.00969E+02  4.11686E+04
 -2.36206E+04  3.89187E+04 -3.98911E+04  1.86501E+04 -4.19832E+04  2.75290E+02 -2.97112E+04 -2.92997E+04
 -1.54396E+04 -3.90393E+04  1.72644E+04 -3.21197E+04  2.75926E+04 -2.10182E+04  2.00611E+04  1.35660E+04
  8.15090E+03  1.91662E+04 -1.48899E+04  1.50910E+04 -1.77464E+04 -8.41953E+03 -1.18691E+04 -8.06058E+03
  1.41049E+03 -1.41283E+04  1.33911E+04 -1.52044E+04  1.47122E+04  1.74151E+03 -3.03038E+02  7.41147E+03
 -9.46254E+03  7.44774E+03 -6.27519E+03 -1.14747E+04  1.18096E+02 -1.61652E+04  1.58213E+04 -2.11678E+04
  2.00319E+04 -1.26374E+04  2.55012E+04  5.92980E+03  2.68125E+04  2.16103E+04  7.42373E+03  2.60827E+04
 -7.80274E+02  3.00123E+04 -2.00375E+04  1.01003E+04 -1.65590E+04 -3.69223E+03 -1.95393E+04 -2.15636E+03
 -3.03151E+03 -5.19128E+03  2.32262E+03 -1.31927E+03 -3.09402E+03  2.22244E+03 -5.82491E+03  3.06710E+03
 -7.53681E+03 -4.69669E+03 -1.71942E+04 -1.25957E+04 -1.17749E+04 -2.06927E+04  5.06201E+03 -1.89344E+04
  9.02738E+03 -2.33908E+03  7.70190E+03  4.29302E+03  1.52557E+03  9.87409E+03 -4.12430E+03 -2.07151E+03
 -8.86924E+03 -1.03564E+04  2.89655E+03 -1.17154E+04  9.49554E+03 -1.21869E+04  2.04453E+04 -7.08989E+03
  2.47256E+04  5.34427E+03  1.73017E+04  1.41486E+04 -6.31807E+02  2.00809E+04 -9.61815E+03  1.21384E+04
 -1.70855E+04  5.50622E+03 -1.12593E+04  1.83287E+03 -1.52824E+03 -9.65266E+03  1.12286E+04 -7.79784E+02
  8.64384E+03  6.37654E+03  9.29385E+02  1.90413E+04 -1.34933E+04  1.68825E+04 -1.34830E+04  2.06027E+03
 -1.55528E+04 -4.71181E+03  1.02291E+03 -1.90177E+04  7.69417E+03 -5.73042E+03  1.08332E+04  5.08604E+03
  1.68511E+03  1.22521E+04 -4.56656E+03  1.13670E+04 -1.48669E+04 -2.89903E+03 -1.45587E+04 -1.87984E+03
 -1.06305E+04 -1.64103E+04 -2.50614E+03 -1.19221E+04  1.43116E+04 -7.62401E+03  1.26570E+04  1.54967E+03
  3.70252E+03  1.19260E+04  4.48968E+03  8.97523E+03 -1.02729E+04  8.95224E+02 -1.27563E+04 -5.91068E+02
 -1.00553E+04 -8.47526E+03  1.54534E+03 -7.18123E+03  9.08919E+03 -1.33501E+04  2.03898E+03 -4.99998E+03
  4.17610E+03  2.70167E+03  4.46589E+03 -2.90871E+02 -7.51043E+03 -3.03016E+03  5.32879E+03 -7.61339E+03
  1.29391E+04 -4.01474E+03  1.85668E+04  9.16696E+02  1.33580E+04  1.31617E+04  1.12489E+04  2.13605E+04
 -5.80757E+03  2.26633E+04 -1.70481E+04  1.56233E+04 -2.54263E+04 -5.91260E+02 -2.09575E+04 -9.32509E+03
 -1.03304E+04 -1.77452E+04  1.55907E+03 -1.33978E+04  4.57727E+02 -5.43263E+03  3.81782E+03 -9.19600E+03
  6.19398E+02 -4.20733E+03  6.14821E+03 -1.54592E+04  4.40441E+03 -3.44498E+03  1.45477E+04  2.43819E+02
  1.63686E+04 -6.16332E+02  7.06216E+03  1.43203E+04 -1.13817E+03  1.44327E+04 -1.49872E+04  8.42607E+03
 -1.92149E+04 -9.12422E+02 -6.49267E+03 -1.48791E+04 -9.84718E+02 -1.24242E+04  7.51400E+03 -1.67472E+04
  1.78581E+04 -6.59429E+03  1.51902E+04  2.25817E+02  1.16099E+04  1.35258E+04 -4.49926E+03  1.85151E+04
 -2.50946E+03  8.42942E+03 -1.10366E+04  1.01518E+04 -8.94315E+03  1.36366E+03 -2.04020E+03  1.13833E+03
 -5.38318E+03  5.92537E+03 -2.71698E+03  7.04072E+02 -4.28397E+03  4.78342E+03 -1.18881E+04  1.77317E+03
 -6.73432E+03 -1.36802E+04  3.45380E+03 -1.46163E+04  8.69443E+03 -8.01032E+03  1.51763E+04 -6.29226E+03
  1.74726E+04  1.08124E+04  5.64896E+03  1.44980E+04 -9.46273E+02  1.39866E+04 -9.40110E+03  7.09094E+03
 -1.37275E+04  3.67401E+03 -9.15755E+03 -7.04360E+03 -8.60612E+02 -1.53905E+04  1.22611E+04 -1.25326E+04
  6.10092E+03  1.70347E+03  4.79141E+03  5.51738E+03  2.83176E+03  5.72153E+03 -1.15261E+03  4.05891E+03
  5.05807E+03  2.10948E+03  5.38602E+03  5.03145E+03 -1.95039E+03 -2.21481E+02 -1.68750E+03  1.06007E+03
 -5.26962E+03  1.02008E+04 -1.17694E+04  1.25634E+04 -1.39662E+04  4.28916E+03 -1.05912E+04 -1.27380E+04
 -6.77969E+03 -1.75102E+04 -4.24080E+02 -1.25098E+04  6.50031E+03 -8.39495E+03  1.38846E+04 -9.02987E+02
  1.22803E+04  9.47162E+03 -1.10307E+03  1.26723E+04 -2.13646E+03  7.22849E+02 -5.68819E+03  4.08816E+03
  3.78969E+01 -2.21150E+03  9.48814E+03 -1.13391E+04  2.56943E+03 -2.54741E+03  2.17310E+03 -1.80038E+03
 -6.62752E+02  1.16504E+04  1.52329E+02  4.70511E+03 -1.49803E+03 -1.70922E+03  8.24344E+03 -3.30501E+03
 -1.04047E+03  5.72568E+03 -1.18830E+03 -7.50154E+02  2.58077E+03  3.39796E+03 -2.78768E+03  1.35548E+04
 -3.49448E+03  4.50991E+03 -6.76348E+03 -6.49171E+01 -5.12760E+03  1.30486E+03 -4.67061E+03 -1.89598E+03
 -1.36534E+02 -5.79087E+03  3.29912E+03 -3.76139E+03  4.50096E+02  1.33595E+02 -8.29372E+02  8.64276E+03
 -3.25914E+03  1.66284E+03 -5.02299E+03 -6.66443E+03 -4.13940E+03 -1.01302E+04  4.10198E+03 -7.76367E+03
  1.29478E+04  2.50490E+03  4.39763E+03  3.33010E+03  6.41949E+03  1.45242E+03  2.93417E+02  5.15976E+03
 -3.98878E+03  1.09900E+03 -3.67647E+03  2.54633E+03  8.35246E+03 -7.47873E+03  5.51067E+03 -2.95193E+03
  5.89901E+03  1.58043E+03  4.98372E+03  9.55927E+03  3.51988E+03  4.71942E+03 -1.54576E+03  1.24443E+04
 -6.56263E+03  1.08850E+03 -1.19544E+04 -8.17737E+03 -4.55838E+03 -2.76859E+03  1.04740E+02 -1.28051E+04
  1.16953E+04 -2.72410E+03  1.23970E+03 -5.17051E+02  4.81311E+02 -3.27220E+03  3.04986E+03  1.86528E+03
 -3.40458E+03 -6.42768E+02 -2.02010E+03 -4.63846E+03 -2.96401E+03  6.39196E+02  1.10206E+02 -1.73892E+03
  1.91240E+02 -8.96539E+02 -3.33399E+03  3.46407E+03 -1.41262E+04  1.85934E+03 -7.94456E+03 -4.65905E+03
 -4.59475E+03 -1.01036E+04  3.92006E+03 -1.31815E+04  9.21065E+03 -1.54586E+04  1.39612E+04 -2.60154E+03
  1.15491E+04  2.98739E+03  4.87492E+03  8.61692E+03 -7.23877E+02  1.14513E+04 -3.24369E+03  1.36376E+04
 -2.44752E+03 -1.19910E+03 -3.51599E+03 -1.84048E+03 -1.15362E+03  2.61327E+02 -9.65129E+02 -1.10399E+03
  3.59119E+03 -2.20522E+03 -3.68402E+03  1.57523E+03  5.25770E+03 -5.08765E+02 -3.16946E+02 -1.11842E+03
  2.31823E+03 -5.00257E+03  2.66541E+03  3.09764E+03  5.15074E+03  9.22750E+03 -1.22600E+03  1.41432E+04
 -1.06654E+04  1.38979E+04 -1.39821E+04  7.39530E+03 -1.00212E+04 -1.42981E+02 -6.05025E+03 -7.33512E+03
 -9.74038E+03 -1.08915E+04  4.44420E+03 -1.44768E+04  7.58205E+03 -6.00325E+03  1.01724E+04 -6.26501E+03
  7.70597E+03  3.45440E+02  3.11484E+03  2.48806E+03  3.50213E+03  4.18365E+03  1.32338E+03 -4.77907E+03
  4.87563E+02  9.21532E+02  6.76938E+03  5.03766E+03  2.41868E+03 -1.03618E+03 -2.18221E+03  9.20602E+02
 -2.00649E+03  4.09102E+03 -4.73319E+03  4.26871E+02 -5.63363E+03 -5.60583E+02  6.36062E+02 -9.37363E+03
  2.14657E+03 -5.06267E+03  8.04988E+03 -1.68495E+03  9.55611E+03 -5.67849E+03  7.11357E+02  9.46288E+03
  9.55975E+02  6.15241E+03 -9.35281E+03  8.11896E+02 -4.09642E+03 -3.84619E+02 -5.13657E+03  1.95183E+03
 -4.94036E+03 -5.63209E+02 -2.24366E+03 -4.45234E+03  4.33833E+01  4.70545E+01 -1.73979E+03 -3.01444E+03
 -8.82307E+03 -5.69320E+03 -1.10598E+03 -9.98457E+03 -1.78058E+03 -8.68406E+03  5.62535E+03  1.57029E+03
 -4.64465E+02  1.64330E+03 -1.45432E+03  1.32626E+04 -4.92546E+03  1.32041E+04 -6.87374E+03  1.00864E+04
