 $NMID ID='MM_0lb_SNR50_13hz_g60_30.RAW', FMTDAT='(8E13.5)'
 TRAMP=1., VOLUME=1. $END
  3.14202E+05  1.99621E+03  3.37600E+05  2.54105E+05  8.16714E+04  3.39395E+05 -1.32628E+05  2.54510E+05
 -1.89035E+05  8.52291E+04 -1.15821E+05 -3.29175E+04  4.81884E+00 -5.02310E+04  5.25058E+04 -1.75269E+03
  3.49641E+04  5.09643E+04 -1.26547E+04  7.43191E+04 -6.25427E+04  6.12007E+04 -8.61551E+04  3.21318E+04
 -8.38114E+04 -1.36793E+04 -6.12455E+04 -4.83507E+04 -1.34272E+04 -6.67773E+04  2.73056E+04 -4.75667E+04
  4.32728E+04  6.97565E+03  1.87626E+04  5.16257E+04 -3.71396E+04  4.97525E+04 -7.39528E+04  3.28545E+03
 -5.72485E+04 -5.67298E+04 -1.06403E+04 -7.79045E+04  3.74092E+04 -5.93989E+04  4.70270E+04 -1.93077E+04
  4.28146E+04  1.63569E+04  3.48009E+04  2.55942E+04  1.33565E+04  2.95464E+04 -6.26577E+03  2.29701E+04
 -1.72551E+04  1.10285E+04 -1.60269E+04 -4.00572E+03  6.89398E+03 -6.91076E+03  1.99991E+04  1.63442E+04
  1.12304E+04  3.29947E+04 -3.80771E+04  3.61409E+04 -6.33768E+04  2.97303E+03 -6.01477E+04 -4.30184E+04
 -1.21624E+04 -6.28182E+04  4.29227E+04 -4.92054E+04  5.93613E+04 -2.16008E+03  3.76935E+04  3.34512E+04
 -4.40605E+03  3.79918E+04 -3.05875E+04  1.86127E+04 -2.88210E+04 -7.42751E+03 -1.38260E+04 -1.14558E+04
 -1.15989E+04 -1.08515E+04  3.02301E+03 -1.87094E+04  1.01338E+04 -2.20030E+04  1.06733E+04 -1.90217E+04
  1.39626E+04  3.38348E+03 -6.36102E+03  8.47613E+03 -2.07272E+04 -9.32082E+03 -6.08634E+02 -3.50259E+04
  2.18702E+04 -5.35625E+04  4.87512E+04 -2.18612E+04  5.06179E+04  2.49953E+04  1.40285E+04  4.60194E+04
 -1.94189E+04  3.72212E+04 -2.81644E+04 -3.11947E+03 -1.55753E+04 -2.85605E+04  1.58344E+04 -3.22838E+04
  4.17187E+04 -1.10267E+04  3.91882E+04  2.57898E+04  1.79064E+04  5.22471E+04 -6.80673E+03  5.88140E+04
 -3.04437E+04  3.94757E+04 -4.13233E+04  8.31435E+03 -4.98873E+04 -1.96132E+04 -2.58281E+04 -4.40083E+04
  9.45144E+03 -4.02378E+04  2.94388E+04 -1.95563E+04  2.57929E+04  1.45426E+04  5.57636E+03  2.22774E+04
 -9.68276E+03  9.65718E+03 -1.03980E+04 -1.27953E+04 -3.05376E+03 -1.40472E+04  1.81207E+04  6.24955E+03
  1.79990E+04  2.51253E+04 -5.82846E+03  2.55878E+04 -1.95083E+04  1.22151E+04 -2.92257E+04 -6.34499E+03
 -2.09323E+04 -1.43958E+04 -5.34222E+03 -2.49174E+04  3.07862E+03 -2.01284E+04  1.68564E+04 -1.91386E+04
  2.89842E+04 -1.26017E+04  3.50249E+04  5.92977E+03  2.67027E+04  1.93537E+04  1.04001E+03  4.42598E+04
 -1.53436E+04  3.43123E+04 -3.10293E+04  8.85431E+03 -2.21883E+04 -7.65838E+03  3.39285E+02 -9.75093E+03
  3.86970E+03 -4.85512E+03 -4.06959E+03  6.39855E+03 -1.47908E+04  1.43342E+03 -1.68252E+04 -6.66024E+03
 -1.07279E+04 -1.58182E+04  2.81483E+03 -2.47859E+04  1.88384E+04 -1.86806E+04  2.43417E+04 -1.68700E+03
  1.06589E+04  1.66819E+04 -1.42929E+03  1.94174E+04 -1.71274E+04  8.50594E+03 -2.19908E+04 -2.01341E+03
 -1.43822E+04 -1.27370E+04 -2.34768E+03 -2.96211E+04  1.10067E+04 -2.17178E+04  1.86614E+04 -1.55029E+04
  2.22113E+04 -1.98010E+03  1.19947E+04  1.66419E+03  8.71956E+03  5.07528E+03  1.57261E+04  1.26875E+03
  1.73652E+04  6.58338E+02  2.48082E+04  1.85735E+04  1.14900E+04  3.21625E+04 -4.61511E+03  4.16209E+04
 -2.06614E+04  3.13226E+04 -4.30621E+04  1.67081E+04 -3.88683E+04 -4.18226E+03 -2.95856E+04 -2.25302E+04
 -9.63997E+03 -3.67215E+04  9.06584E+03 -3.12256E+04  2.69129E+04 -1.62610E+04  1.95725E+04  3.33092E+03
  7.44070E+03  1.36422E+04 -8.55036E+03  1.01314E+04 -2.01167E+04  2.23581E+03 -1.41416E+04 -9.51364E+03
 -3.91542E+03 -1.52509E+04  8.29432E+03 -1.63426E+04  1.09634E+04 -5.90993E+03 -1.28809E+02  8.96253E+03
 -2.95998E+03 -3.14971E+03 -6.74863E+03 -2.48273E+03 -7.50316E+02 -1.56729E+04  9.40147E+03 -1.67230E+04
  1.98524E+04 -6.72416E+03  2.13874E+04  3.15636E+02  1.46045E+04  1.22193E+04  7.73435E+03  2.19730E+04
 -4.01803E+03  2.57061E+04 -1.53736E+04  1.95622E+04 -2.11732E+04 -2.22996E+03 -1.20685E+04 -2.93418E+03
 -4.05484E+03 -3.96319E+03  7.20104E+02  1.32927E+03 -2.34914E+03  3.61309E+03 -5.87674E+03  1.16462E+03
 -8.96671E+03  3.90020E+03 -1.32952E+04 -8.47172E+03 -6.53416E+03 -1.86828E+04  2.46586E+03 -7.95384E+03
  9.54049E+03 -1.01693E+03  3.17939E+03  6.41299E+03 -4.83077E+03  4.78944E+03 -3.53053E+03 -2.90363E+02
 -1.70124E+03 -7.70454E+03  3.73739E+03 -1.03742E+04  8.60955E+03 -1.55339E+04  1.73873E+04 -8.71487E+03
  1.79959E+04  3.11590E+03  1.00404E+04  1.18920E+04  7.78663E+02  1.29638E+04 -9.54647E+03  1.06429E+04
 -5.95159E+03  7.80822E+02 -3.29013E+03 -5.67306E+03  2.03965E+03  1.38809E+03  9.25495E+02  1.15122E+02
  8.20407E+03  1.03410E+04  1.64155E+03  1.97947E+03 -5.90827E+03  8.07036E+03 -1.24685E+04  1.72722E+03
 -8.60029E+03 -2.20961E+03  6.06203E+03 -6.70409E+03  9.78419E+03 -5.21394E+03  5.11311E+03  2.61094E+03
 -9.46619E+02  6.70298E+03 -6.09684E+03  1.21530E+04 -1.26116E+04  6.28138E+03 -7.67380E+03 -2.66025E+02
 -4.81962E+03 -9.82282E+03  2.81569E+03 -8.99354E+03  9.87892E+03 -9.71085E+03  1.21363E+04  8.25773E+03
  8.20211E+03  1.01863E+04  1.06805E+03  1.46144E+04 -8.84709E+03  6.10191E+03 -1.27250E+04  1.92835E+02
 -1.35920E+04 -4.86141E+03  2.64284E+03 -7.13772E+03  1.66205E+03 -8.95018E+03  6.24843E+03 -2.80987E+03
  4.06263E+03 -9.37493E+01 -1.14488E+02  3.08673E+03 -8.16282E+01  1.21469E+03  3.69550E+03 -6.24750E+02
  7.34235E+03 -2.44786E+03  1.20886E+04  6.37254E+02  1.13896E+04  6.26388E+03  1.02017E+04  1.85274E+04
  2.49618E+03  1.76049E+04 -1.30519E+04  1.17767E+04 -1.22844E+04  5.99567E+03 -1.83881E+04 -8.76366E+03
 -9.18906E+03 -1.76851E+04 -1.77627E+03 -1.18705E+04  4.90052E+03 -8.23655E+03  6.63973E+02 -1.44627E+03
 -3.01353E+02 -3.86742E+03  3.11516E+03 -4.48320E+03  7.06824E+03 -5.39365E+02  2.74378E+03  3.39996E+03
  1.03712E+04  8.08443E+03  4.43947E+03  6.28211E+03 -5.90794E+03  7.47321E+03 -1.59956E+04  1.01166E+04
 -8.04693E+03 -2.88250E+03 -1.01824E+04 -9.25014E+03 -1.06479E+02 -1.08727E+04  9.29845E+03 -1.15081E+04
  1.12922E+04 -5.91704E+03  1.55223E+04  2.14195E+03  9.33269E+03  1.12504E+04  2.85980E+03  9.86852E+03
 -5.04735E+03  8.02466E+03 -1.82889E+03  6.03646E+03 -9.52514E+03  7.91920E+02 -7.49458E+03 -4.26956E+03
  1.36291E+01  4.11047E+03 -2.64202E+03  7.30575E+03 -3.48420E+03 -1.59328E+03 -8.97836E+03 -4.60812E+03
 -1.05951E+03 -6.52983E+03 -4.65667E+03 -9.07582E+03  5.06137E+03 -1.00510E+04  1.51394E+04 -1.29865E+02
  5.77790E+03  5.43434E+03  2.93076E+03  1.37160E+04 -1.39398E+03  6.28835E+03 -7.64774E+03  5.26434E+03
 -6.04850E+03  2.93982E+03 -5.79058E+03 -2.68338E+03  3.98699E+03 -7.87259E+03  3.78611E+03 -4.71397E+03
  4.74791E+03  2.44286E+03  5.52070E+03 -2.07244E+03  1.39344E+03  2.44205E+03  1.80792E+03  3.76353E+02
  5.86842E+03  5.81512E+03  1.95824E+03  5.48572E+03  7.24623E+03  2.49354E+03  9.71374E+03  1.08169E+03
  5.22057E+02  9.58636E+03 -7.51616E+03  5.36711E+03 -8.42440E+03  3.68838E+03 -1.10316E+04 -4.80657E+03
 -7.61829E+03 -6.69622E+03  4.90484E+03 -1.01228E+04  6.93693E+02 -6.98319E+03  8.38019E+03  2.50359E+03
  5.92834E+03  4.62114E+03 -1.63141E+03  1.37632E+03 -2.15868E+03  6.44887E+03  2.02773E+02 -2.37391E+03
 -4.05694E+03 -3.09510E+03  1.11272E+03 -3.98450E+03  5.74509E+02 -1.24004E+03  4.82233E+03 -5.20148E+02
 -2.33003E+03  7.76827E+03  6.81794E+03 -3.65901E+02 -1.19458E+03  2.09053E+03 -1.37693E+03 -1.75387E+03
  5.75369E+03 -2.14928E+03  6.62639E+03 -2.51655E+02 -2.98862E+03  8.94627E+03  3.69605E+01  6.94088E+03
 -7.63507E+02  7.36149E+03 -5.71023E+03 -5.17726E+02 -5.86975E+03 -4.88379E+03  2.35581E+03 -8.69235E+03
  5.78630E+02 -4.35930E+03 -1.73016E+02 -3.44456E+03  7.16906E+03 -1.41586E+03  1.27656E+03  3.38152E+03
 -6.19967E+03 -9.72831E+01 -6.57764E+03 -5.44042E+03  1.16196E+03 -2.74716E+03 -2.63534E+02 -4.76323E+03
  5.81022E+03  5.18492E+02  6.41742E+03 -4.05527E+03  3.41693E+03  2.10760E+03 -1.17395E+03  5.69240E+03
  2.38273E+03  5.36314E+03 -3.15657E+03 -4.32272E+03  6.51693E+02 -6.50079E+03  8.46922E+03 -1.92585E+02
  5.99867E+03  6.52759E+03  4.74334E+03  4.73727E+03  7.09702E+03  8.60872E+03 -1.90978E+03  6.78010E+03
 -9.50771E+02 -3.53948E+03 -3.27693E+02 -1.83100E+03 -3.68446E+03 -5.04780E+03 -3.06605E+03 -2.22584E+03
  5.88171E+03 -9.29642E+03  5.34087E+03  4.97715E+03  1.02202E+03  2.61629E+03  8.95063E+02  3.23987E+03
  8.54577E+02  3.05574E+03 -9.59169E+02  1.54080E+03 -1.73099E+03  3.25455E+03  1.41779E+03 -5.77739E+02
  6.92779E+02  2.11077E+03 -7.49031E+03  2.95483E+02 -5.28826E+03 -3.37570E+03 -7.61259E+03 -8.21644E+00
  1.16293E+02 -3.76365E+03  5.28332E+03 -7.67548E+03  6.55484E+03 -8.17960E+03  8.02827E+03 -3.21195E+03
  6.66903E+03  2.73835E+03  4.62434E+03  8.24030E+03  3.37392E+03  6.34832E+03  9.17551E+02  7.83695E+02
 -7.51962E+03  2.25365E+03 -3.07903E+03  4.18080E+02 -2.11238E+02 -2.59000E+03 -9.99653E+02 -2.04218E+03
 -2.67161E+03  1.34171E+03 -7.26851E+02  8.85460E+02 -3.03566E+03 -1.76172E+03 -3.45843E+03 -1.16667E+03
  4.79491E+03  2.09525E+03  1.30208E+03 -1.34556E+03  7.06268E+03  2.47893E+03 -6.97770E+02  2.79342E+03
  8.83114E+02  8.16557E+03 -3.61078E+03  3.53772E+02 -6.42571E+03 -4.60710E+03 -7.76424E+03 -3.82259E+03
  2.79365E+03 -8.63315E+03 -3.70127E+02 -3.55306E+03  5.45670E+03 -7.97447E+03  5.44431E+03  8.41597E+02
 -1.80990E+03  2.42912E+03 -2.02098E+03 -2.04110E+03 -3.75395E+02 -2.34546E+03  3.52732E+03 -3.30467E+03
  9.34989E+02  1.22459E+03  8.05589E+02  6.84215E+03  2.29033E+03  1.52157E+03  2.03397E+03  6.16973E+03
 -2.85630E+03  2.99238E+03  9.43250E+01  6.11407E+03 -5.66955E+03  4.36815E+03  4.21846E+03 -2.42036E+03
  4.25257E+03 -4.45468E+03  3.87886E+03 -8.05687E+03  6.57759E+03  1.17548E+03  8.89630E+03  3.46457E+03
  9.94853E+02  1.80385E+03  3.38676E+03  8.59432E+02  3.68183E+02  2.28920E+03  6.45778E+02 -6.24187E+03
 -4.49161E+03  9.67433E+02 -5.12994E+03  3.09784E+03 -1.40094E+03  9.61675E+02 -4.13695E+03  2.82727E+03
 -1.39693E+03 -2.20721E+03 -9.99520E+01 -7.55169E+03  8.96292E+03 -1.17459E+03  8.10627E+02 -3.19032E+03
  6.21083E+02  2.77587E+03  9.01903E+02 -6.97769E+02  3.76028E+02  5.31030E+02 -2.43700E+03  5.60763E+03
