 $NMID ID='MM_0lb_SNR50_11hz_g40_63.RAW', FMTDAT='(8E13.5)'
 TRAMP=1., VOLUME=1. $END
  3.10619E+05 -1.24671E+03  3.35312E+05  2.51120E+05  8.32218E+04  3.37078E+05 -1.28630E+05  2.53126E+05
 -1.86938E+05  8.29982E+04 -1.13049E+05 -3.33756E+04  2.18438E+02 -5.04437E+04  4.50396E+04 -2.26289E+03
  2.96724E+04  4.98520E+04 -1.79940E+04  7.95154E+04 -6.11128E+04  6.89279E+04 -8.61882E+04  3.17816E+04
 -7.67004E+04 -1.53106E+04 -6.25115E+04 -5.47188E+04 -1.41582E+04 -6.81044E+04  3.24325E+04 -4.31661E+04
  4.39665E+04  1.26420E+03  1.65109E+04  5.06831E+04 -4.00640E+04  5.17172E+04 -6.59896E+04 -3.24481E+03
 -5.55533E+04 -5.73171E+04 -1.89205E+03 -7.08905E+04  3.01476E+04 -5.77688E+04  4.77336E+04 -1.77595E+04
  4.87734E+04  1.44901E+04  3.50659E+04  2.96018E+04  1.32978E+04  2.70516E+04 -2.32465E+02  2.63597E+04
 -2.11404E+04  1.26447E+04 -2.16628E+04 -3.79399E+03  1.40445E+03 -7.03587E+03  2.86697E+04  1.28287E+04
  1.34938E+04  3.61318E+04 -2.84639E+04  3.48917E+04 -6.56756E+04  5.18915E+02 -6.31942E+04 -4.75927E+04
 -1.39003E+04 -6.80892E+04  3.98376E+04 -4.96209E+04  6.11615E+04 -2.98519E+03  3.41350E+04  3.57332E+04
 -5.91138E+03  3.73078E+04 -2.54855E+04  1.92719E+04 -2.93263E+04 -5.08340E+03 -1.78364E+04 -1.55870E+04
 -8.95204E+03 -1.24196E+04 -1.61724E+03 -1.44442E+04  1.13660E+04 -2.16531E+04  1.52023E+04 -1.73332E+04
  1.54615E+04  3.90078E+03 -1.09293E+04  6.28169E+03 -2.34375E+04 -3.78556E+03 -6.97552E+03 -3.27041E+04
  2.91393E+04 -4.65564E+04  5.11122E+04 -1.83422E+04  4.68446E+04  2.18344E+04  1.57771E+04  4.37816E+04
 -1.93639E+04  3.20186E+04 -2.70687E+04  9.77985E+02 -8.82810E+03 -2.98433E+04  1.80925E+04 -3.90062E+04
  3.75773E+04 -1.07322E+04  3.64440E+04  2.56133E+04  1.64861E+04  5.02662E+04 -8.83326E+03  5.19362E+04
 -3.38718E+04  3.80653E+04 -4.42970E+04  1.10427E+04 -4.75562E+04 -1.94430E+04 -2.13432E+04 -4.06876E+04
  2.85101E+03 -3.94401E+04  3.37576E+04 -1.69672E+04  2.83863E+04  1.59758E+04  3.18948E+03  1.74150E+04
 -1.33663E+04  1.21236E+04 -9.19935E+03 -7.88314E+03  5.41723E+03 -1.01228E+04  1.99562E+04  8.37198E+03
  1.42140E+04  2.25744E+04 -5.77206E+03  1.90778E+04 -2.38011E+04  6.47744E+03 -2.58581E+04 -7.00960E+03
 -2.78607E+04 -1.30657E+04 -1.27676E+04 -2.27108E+04  1.60508E+03 -2.40014E+04  2.18288E+04 -2.33467E+04
  2.85287E+04 -1.11714E+04  3.44122E+04  7.43267E+03  2.73506E+04  2.05546E+04  3.80334E+03  4.13858E+04
 -2.05242E+04  3.25064E+04 -3.21158E+04  7.67307E+03 -2.21368E+04 -1.53127E+04 -3.58507E+03 -1.25560E+04
  3.73627E+03 -3.88679E+03 -2.41253E+03  8.84547E+03 -2.07327E+04  6.19271E+03 -2.04029E+04 -6.64162E+03
 -8.64092E+03 -2.28304E+04  5.90194E+03 -2.50429E+04  1.40512E+04 -1.94713E+04  2.61347E+04  7.56849E+02
  1.15229E+04  2.47247E+04 -7.00685E+02  1.77128E+04 -1.34607E+04  1.63683E+04 -2.47605E+04 -4.39028E+03
 -1.60803E+04 -1.76835E+04 -1.37319E+01 -2.24343E+04  1.22684E+04 -1.78167E+04  2.40223E+04 -6.81603E+03
  1.75171E+04 -2.93860E+03  1.00078E+04  4.77216E+02  6.11973E+03  2.48140E+02  1.14194E+04 -1.80439E+03
  2.33775E+04  2.82312E+03  1.58822E+04  1.86063E+04  1.35934E+04  3.26262E+04 -3.66771E+03  3.31581E+04
 -1.69196E+04  2.21386E+04 -4.31785E+04  1.33613E+04 -4.02628E+04 -7.42797E+03 -3.61684E+04 -1.80973E+04
 -1.52454E+04 -3.09206E+04  9.08626E+03 -2.67032E+04  2.50507E+04 -1.55701E+04  1.89160E+04  2.96443E+03
  8.15735E+03  1.78663E+04 -6.24638E+03  7.35207E+03 -2.06208E+04  7.44856E+03 -1.03245E+04 -7.39675E+03
 -7.61332E+01 -1.18095E+04  8.96489E+03 -8.58788E+03  9.69362E+03 -2.90559E+03  7.96668E+03  8.00073E+03
  9.32900E+02  7.23650E+02 -8.49921E+03 -4.81756E+03 -7.09576E+03 -1.56722E+04  5.96099E+03 -1.95001E+04
  2.60262E+04 -5.68287E+03  2.53745E+04  3.46478E+03  2.08903E+04  1.16822E+04  4.81222E+03  1.96932E+04
 -1.19016E+03  2.62252E+04 -1.59250E+04  1.82951E+04 -1.58961E+04  4.46766E+02 -1.07125E+04 -4.21718E+03
 -4.69973E+03 -7.37126E+02 -1.53715E+03 -1.91941E+02 -4.13882E+03  1.51311E+03 -9.36454E+03 -7.16193E+02
 -1.17233E+04  8.48551E+02 -1.03080E+04 -6.74539E+03 -6.26302E+03 -1.56083E+04  6.01653E+03 -1.51276E+04
  1.19291E+04 -1.10251E+04  1.14273E+04  2.55713E+03  5.13819E+02  3.24890E+03 -6.12176E+03  5.31740E+03
 -6.40968E+03 -3.17955E+03 -6.99634E+02 -1.51830E+04  8.51801E+03 -9.62758E+03  1.65021E+04 -2.45283E+03
  1.90827E+04  6.25566E+03  1.14498E+04  6.63012E+03 -1.88368E+03  1.88356E+04 -9.02675E+03  1.10935E+04
 -5.35173E+03  6.21618E+03 -3.14738E+03  3.12981E+03  5.03709E+03 -6.65517E+03  9.94570E+03  1.70070E+03
  3.67163E+03  9.16222E+03  9.48928E+03  1.42087E+04 -7.31066E+03  8.33813E+03 -1.00730E+04 -1.71969E+03
 -1.32377E+03 -3.13235E+03  2.65713E+03 -1.68755E+04  7.44084E+03 -1.06438E+04  7.08493E+03 -3.03912E+03
  4.02498E+03  9.16612E+03 -6.12372E+03  1.01311E+04 -1.14654E+04  4.26622E+03 -9.56701E+03 -3.41397E+03
 -4.71326E+03 -1.56864E+04  4.59042E+02 -1.31291E+04  1.15812E+04 -8.57311E+03  1.79601E+04  1.69542E+03
  1.04522E+04  9.87998E+03 -5.32196E+03  9.82498E+03 -1.47843E+04  9.58849E+03 -1.51599E+04  6.77105E+02
 -7.06442E+03 -1.43813E+04  1.08785E+04 -1.32048E+04  5.75033E+03 -4.64389E+03  1.57538E+03 -7.27824E+03
  5.68016E+02  1.55044E+03  5.22252E+03  8.60095E+03  5.86732E+02 -6.98042E+03 -3.57782E+03 -2.85499E+03
  1.10534E+04 -5.82081E+03  1.25028E+04  5.98573E+03  1.10889E+04  7.05774E+03  5.46811E+03  9.37610E+03
 -1.86252E+03  1.78940E+04 -2.01824E+04  1.17874E+04 -2.37873E+04 -1.32500E+03 -1.89011E+04 -1.12229E+04
 -1.00703E+04 -1.92214E+04  3.30332E+01 -9.73286E+03  5.88563E+03 -8.74390E+03  3.51992E+03 -3.46938E+03
  4.17618E+03 -5.10051E+02  7.77409E+03 -6.47242E+03  4.88472E+03 -3.28383E+03  8.85994E+03 -9.85211E+02
  1.05900E+04  6.04544E+03 -6.79956E+02  8.80341E+03 -1.82578E+03  1.16827E+03 -1.07539E+04  8.38496E+03
 -5.92117E+03 -4.41663E+03 -2.02908E+03 -5.31312E+03  1.58253E+02 -1.38722E+04  2.27240E+03 -1.35041E+04
  1.20484E+04 -1.24316E+04  1.51316E+04  9.68593E+02  1.12401E+04  1.46040E+04  1.32997E+03  6.53014E+03
 -3.06421E+03  1.53652E+04 -9.89227E+03  6.76858E+03 -1.61451E+03  1.34635E+03 -1.54063E+03 -3.47562E+03
  1.63676E+03 -1.79141E+02 -5.09632E+03  5.19769E+03 -3.31480E+03 -2.07943E+03 -1.13015E+04  3.28382E+03
 -3.05652E+03 -1.37961E+04 -2.14795E+03 -1.26712E+04  1.01851E+04 -1.07349E+04  9.94815E+03 -7.36218E+03
  1.23382E+04  3.97661E+03  3.26812E+03  1.20178E+04  9.61992E+01  1.50941E+04 -5.96897E+03  5.58162E+03
 -1.16423E+04 -3.71923E+03 -8.47112E+03 -2.29533E+03 -2.81561E+03 -7.76516E+03  5.63111E+03 -4.21233E+03
  9.18034E+03 -2.18929E+03  5.36458E+03  2.44898E+03  5.81985E+03 -1.49841E+03  8.78511E+03  6.23614E+03
  4.97481E+03  2.97994E+03  3.05179E+03  4.15960E+03  3.48060E+03  7.58482E+03 -5.36693E+02  4.58786E+03
  6.04055E+02  7.86211E+03 -9.34732E+03  8.81926E+03 -8.84800E+03  2.24268E+03 -2.87172E+03 -2.67682E+03
 -5.52900E+03 -1.02984E+04  4.96027E+03 -9.70926E+03  3.87719E+03 -1.04467E+04  1.37767E+04  8.59017E+00
  5.61384E+03  1.66722E+03  6.04534E+03  5.84465E+03  2.25931E+03  2.38765E+03 -2.49360E+03  5.71044E+02
  1.37782E+03  1.53071E+03  1.23891E+03 -7.54959E+03  2.50225E+03  1.69149E+03  5.59383E+03 -1.29632E+03
  2.66458E+03 -1.86799E+03 -5.09527E+02  7.40889E+02  2.14969E+03 -1.12270E+02  4.34218E+03  2.80952E+03
  2.24534E+03  2.76453E+03  1.07460E+03 -4.67050E+02  1.00630E+02  4.10294E+03 -1.42152E+03  8.69559E+03
 -2.39706E+03  3.14990E+03 -4.25551E+03 -2.42512E+03 -4.29799E+03 -1.24126E+03 -5.59342E+03 -4.94754E+03
 -6.58022E+02 -1.08715E+04 -2.33406E+03 -5.16849E+02 -3.98313E+03  7.84588E+02  3.30686E+03  2.02880E+03
 -3.62058E+03  4.09022E+03 -6.96627E+03 -5.12507E+03 -3.88483E+03 -9.89718E+03  1.54131E+03 -7.44487E+03
  2.88076E+03  5.96798E+02  4.98260E+03  2.04184E+03  7.17617E+02  3.99458E+02  9.81920E+02  6.26682E+03
  1.03203E+03  4.01013E+03 -1.74600E+03  4.11652E+03 -2.50614E+02  4.53225E+02  5.68548E+03 -3.94804E+03
  8.73464E+03  2.75042E+03  4.11411E+03 -9.38475E+02  2.75250E+03  9.00784E+03 -4.98325E+03  2.12558E+03
 -6.83513E+03 -1.09895E+03 -9.59979E+02 -4.10646E+03 -4.12662E+03 -1.53147E+04  3.67620E+03 -1.59308E+03
  6.62653E+03  2.27543E+03  7.22385E+03 -1.55681E+03 -5.61409E+03  6.07666E+03  2.83492E+03  4.11833E+03
 -8.35324E+03  6.19379E+03 -7.16120E+03  3.81073E+03 -6.05056E+03  6.73729E+01 -2.79153E+03  1.94544E+03
 -6.16511E+02  4.54378E+03 -4.22467E+03  2.10703E+03 -9.64348E+03 -1.50863E+03 -1.08030E+04 -2.27886E+03
  2.69291E+02 -9.69511E+03  1.71880E+03 -1.20156E+04  5.06116E+03 -2.94609E+03  8.98565E+03 -8.44207E+03
  1.16047E+04 -2.57057E+03  1.41727E+03  4.48943E+03  1.56699E+03  6.16070E+03 -5.82392E+03  6.98754E+03
 -8.81278E+03  3.05911E+03 -1.03524E+04  7.06922E+02 -3.20495E+03  2.18360E+02 -1.92926E+03 -5.11389E+01
 -2.94430E+01 -1.65117E+03 -7.91747E+03 -2.68682E+03 -8.93019E+03 -6.02644E+03 -1.48845E+03 -7.08648E+03
  5.31519E+03 -3.76077E+03 -1.21296E+03  2.47771E+03  8.25190E+03  1.81533E+03 -1.66345E+02  7.13753E+03
 -3.11464E+03  1.28257E+04 -7.17733E+03  4.67717E+03 -8.03185E+03 -4.55483E+03 -2.42897E+03 -3.70279E+03
 -1.59418E+03 -5.35584E+03 -2.01143E+03 -1.28168E+04  7.38888E+03 -2.74832E+03  5.24180E+03  1.56473E+03
  5.74733E+03  4.33762E+03  6.12432E+01  1.95487E+03 -6.51387E+02 -3.79893E+02 -5.90987E+02 -7.67726E+03
  6.89218E+03  1.47652E+03  6.49173E+03 -3.13003E+03  8.25349E+02  3.69957E+03  1.25276E+03 -1.99397E+03
 -5.09002E+03  2.56128E+03 -6.01989E+02 -2.23078E+03 -1.53288E+03 -3.68039E+03 -1.89019E+03 -2.71589E+03
  4.43873E+03  1.16222E+03  7.87942E+03 -1.06446E+03  9.89653E+03  1.60880E+03  4.16226E+03  5.63044E+03
 -5.11854E+01  5.81506E+03 -4.49043E+03  8.18337E+03 -9.19668E+03  7.95407E+03 -6.01807E+03 -1.87805E+03
  4.79210E+03 -2.76379E+03  4.18215E+03  8.46846E+01 -2.61290E+03 -6.75315E+03 -7.90804E+02  1.37030E+03
 -3.97739E+03 -5.79784E+03  3.10019E+03 -1.36421E+03  3.80376E+02 -1.29952E+03  3.82356E+03 -3.97667E+03
  4.97696E+03 -1.88301E+03  7.84858E+02  1.84151E+02  1.88820E+03  4.53358E+03 -6.52871E+03  7.90984E+03
