 $NMID ID='MM_0lb_SNR50_9hz_g60_94.RAW', FMTDAT='(8E13.5)'
 TRAMP=1., VOLUME=1. $END
  3.04255E+05  9.64806E+01  3.40484E+05  2.48097E+05  8.06088E+04  3.36047E+05 -1.31040E+05  2.46424E+05
 -1.90490E+05  8.47939E+04 -1.13337E+05 -3.56054E+04 -2.31199E+03 -4.85363E+04  4.87106E+04  1.54547E+03
  3.18993E+04  5.36348E+04 -1.51481E+04  7.16917E+04 -6.10256E+04  6.58541E+04 -9.19111E+04  2.90762E+04
 -9.07102E+04 -7.42266E+03 -5.65781E+04 -5.09990E+04 -1.51217E+04 -7.44996E+04  2.82257E+04 -4.27785E+04
  4.31657E+04  3.90008E+03  2.13967E+04  4.84876E+04 -3.30003E+04  5.12918E+04 -7.30181E+04 -4.05802E+02
 -5.10508E+04 -5.90774E+04 -4.00871E+03 -7.47161E+04  3.34240E+04 -5.30413E+04  4.12762E+04 -1.79148E+04
  4.32209E+04  1.23910E+04  3.92104E+04  2.60721E+04  9.57361E+03  3.24765E+04 -6.72791E+03  2.65679E+04
 -2.00685E+04  1.22621E+04 -1.84255E+04 -1.18182E+04  1.49864E+04 -8.17893E+03  1.94698E+04  9.79981E+03
  7.78256E+03  3.75017E+04 -2.93557E+04  3.22563E+04 -6.85561E+04  6.28129E+03 -6.09946E+04 -4.39072E+04
 -1.87949E+04 -6.81861E+04  4.05299E+04 -4.55581E+04  6.04876E+04  1.54807E+03  3.70635E+04  3.16343E+04
 -5.87193E+03  4.18713E+04 -2.71046E+04  1.89843E+04 -3.12218E+04  1.39104E+03 -1.95467E+04 -1.27024E+04
 -1.15110E+04 -1.82773E+04 -2.57167E+03 -2.66891E+04  2.45599E+03 -2.68294E+04  1.99226E+04 -1.68850E+04
  9.64603E+03  1.00229E+04 -8.17170E+03  1.55771E+04 -2.11942E+04 -1.48394E+04 -5.29248E+03 -3.94651E+04
  3.19762E+04 -4.53034E+04  4.51649E+04 -1.93722E+04  4.74440E+04  2.20555E+04  1.70499E+04  4.82435E+04
 -1.59044E+04  3.14044E+04 -3.18384E+04  5.82173E+03 -1.21812E+04 -3.25308E+04  2.10131E+04 -3.80486E+04
  4.90769E+04 -6.89531E+03  4.37035E+04  2.44485E+04  1.60039E+04  5.43197E+04 -1.06174E+04  5.97789E+04
 -3.56937E+04  3.86169E+04 -4.86492E+04  1.43667E+04 -4.92384E+04 -2.25284E+04 -2.90531E+04 -4.92305E+04
  5.30108E+03 -4.53938E+04  3.38950E+04 -1.86547E+04  3.42406E+04  2.53912E+04  1.03478E+04  2.14455E+04
 -1.61564E+04  1.60538E+04 -6.89839E+03 -1.08110E+04  1.33019E+04 -8.48443E+03  1.86303E+04  3.45454E+03
  1.55405E+04  2.01704E+04 -5.11315E+03  2.53879E+04 -2.98556E+04  1.44217E+04 -3.21146E+04 -2.54222E+03
 -2.96774E+04 -1.63657E+04 -1.47643E+04 -2.65248E+04  8.92271E+03 -3.29513E+04  2.15607E+04 -2.71374E+04
  3.55131E+04 -1.31549E+04  3.53670E+04  5.96936E+03  2.68627E+04  3.36490E+04  1.28570E+03  3.60838E+04
 -1.40587E+04  3.42063E+04 -2.28711E+04  1.34612E+04 -2.56357E+04 -4.53858E+03 -9.18740E+03 -1.64189E+04
  1.85462E+03 -1.56765E+03 -7.77741E+03  6.53518E+03 -1.62673E+04  1.72196E+03 -2.48402E+04 -1.12125E+04
 -3.34680E+03 -1.84012E+04  8.01796E+03 -2.57467E+04  2.30104E+04 -1.47427E+04  2.21025E+04 -2.20057E+03
  1.96974E+04  1.66861E+04 -1.02266E+03  3.01875E+04 -2.00002E+04  9.03083E+03 -2.39903E+04  2.71439E+03
 -1.53584E+04 -1.99066E+04 -4.85442E+03 -2.98156E+04  1.17332E+04 -2.95756E+04  3.15994E+04 -1.36625E+04
  2.31091E+04  3.42536E+02  1.35243E+04 -1.41371E+03  6.75839E+03  9.36790E+03  8.94933E+03 -4.14394E+03
  2.48666E+04  3.40813E+03  2.98888E+04  1.92898E+04  2.05347E+04  4.25832E+04 -5.49755E+03  4.67657E+04
 -2.62804E+04  3.55075E+04 -4.42606E+04  2.38488E+04 -4.75985E+04 -4.64193E+03 -3.26118E+04 -2.60729E+04
 -2.46706E+04 -3.82294E+04  1.35651E+04 -3.16622E+04  2.42333E+04 -1.49908E+04  2.32452E+04  4.67470E+03
  1.03779E+04  1.55786E+04 -1.04600E+04  1.60683E+04 -2.55867E+04  3.56243E+03 -1.55388E+04 -1.00994E+04
 -2.74613E+03 -1.34019E+04  1.64806E+04 -1.21821E+04  8.38150E+03 -9.41617E+03  5.15730E+03  6.74326E+02
 -1.24452E+04  9.28127E+03 -4.55305E+03 -8.70116E+03 -8.00405E+03 -2.32804E+04  1.38719E+04 -2.16710E+04
  2.71229E+04 -8.45690E+03  2.96481E+04  2.94947E+03  2.12179E+04  1.83170E+04  8.40394E+03  3.71186E+04
 -4.25166E+03  3.47334E+04 -2.04040E+04  1.95322E+04 -2.54195E+04  4.62644E+03 -1.64202E+04 -9.75253E+03
 -7.18084E+03 -1.40066E+04  8.17123E+03  2.71045E+02 -1.18986E+03  1.12111E+04  1.73860E+01  7.62781E+03
 -1.63100E+04 -1.45037E+03 -1.95822E+04 -8.13133E+03 -1.04872E+04 -1.86642E+04  4.64771E+03 -1.95404E+04
  1.32365E+04 -6.10442E+03  1.45710E+04  3.91125E+03  2.60217E+03  3.58995E+03 -8.62501E+03 -4.41922E+01
 -1.11742E+04 -8.47405E+03 -2.79138E+03 -1.28230E+04  3.81994E+03 -1.43430E+04  1.99024E+04 -1.25026E+04
  2.17578E+04  7.79884E+03  2.32318E+04  1.42971E+04  8.78637E+03  1.96735E+04 -1.23460E+04  1.69158E+04
 -9.55341E+03  8.14906E+03 -1.56904E+04 -1.09804E+03  3.46404E+03 -6.65464E+03  7.61155E+03 -1.76051E+03
  2.59275E+03  5.14216E+03 -9.34227E+02  2.02730E+04 -9.66400E+03  1.78195E+04 -1.45311E+04 -2.85740E+03
 -1.43370E+04 -1.35500E+04 -5.04963E+03 -1.56953E+04  6.46874E+03 -8.43800E+03  1.12640E+04 -9.67564E+02
  6.15738E+03  1.00666E+04 -6.04030E+03  8.55350E+03 -1.34157E+04  4.43970E+03 -1.51819E+04 -8.21918E+03
 -8.29242E+03 -1.65458E+04 -1.22422E+03 -1.81639E+04  1.62068E+04 -1.71623E+04  1.99235E+04 -4.81663E+03
  8.15555E+03  1.02138E+04 -6.21228E+03  1.66741E+04 -1.44249E+04  5.36317E+03 -1.22404E+04  3.63612E+03
 -1.54855E+04 -1.27404E+04 -5.60055E+03 -1.63916E+04  6.63835E+03 -1.17666E+04  8.06929E+03 -6.67414E+03
  6.11352E+03  1.38091E+03 -2.84952E+03  1.52507E+03 -7.16041E+03 -6.20756E+03  5.50159E+03 -3.68763E+03
  1.31765E+04 -5.24127E+03  1.76255E+04  3.92706E+03  2.16052E+04  1.27016E+04  9.15248E+03  2.52304E+04
 -6.45823E+03  2.27183E+04 -1.86607E+04  1.75710E+04 -2.43205E+04  1.47632E+03 -1.87409E+04 -8.69262E+03
 -7.24598E+03 -1.05078E+04 -5.51986E+02 -8.47245E+03  4.06873E+03 -1.19342E+04  3.22009E+03 -3.13709E+03
  1.64319E+03 -4.72863E+03 -1.07234E+03 -2.11620E+03  5.95895E+03 -1.15963E+04  4.16608E+03  3.07530E+03
  1.07236E+04  4.18039E+03  3.92761E+03  1.06985E+04 -5.46250E+03  1.36920E+04 -1.21773E+04  1.19303E+04
 -2.01963E+04 -3.29731E+03 -5.73637E+03 -8.69289E+03  1.53897E+03 -1.52028E+04  6.60263E+03 -2.12964E+04
  2.18276E+04 -1.06723E+04  2.68480E+04  1.17591E+03  2.14610E+04  1.60977E+04  4.45515E+03  2.21820E+04
 -6.96894E+03  1.54529E+04 -1.40001E+04  5.65197E+03 -1.59491E+04  2.06246E+03 -7.19302E+03 -1.16832E+04
  2.43912E+03  5.30255E+03 -4.08947E+03 -2.27951E+03 -4.85919E+03  2.56323E+03 -7.70358E+03 -8.90561E+02
 -7.11725E+03 -6.58376E+03 -4.44759E+02 -1.59518E+04  1.36166E+04 -1.91894E+04  1.36546E+04 -2.84845E+03
  1.03592E+04  8.52259E+03  7.88654E+03  1.70238E+04  3.51106E+03  1.92419E+04 -7.01451E+03  1.13324E+04
 -1.64805E+04  3.97335E+02 -1.14108E+04 -3.70024E+03 -5.42595E+02 -2.32315E+04  8.90328E+03 -1.29265E+04
  1.20416E+04 -6.05118E+02  1.12902E+04  1.22500E+03  1.67962E+03  9.48720E+03  7.41280E+03 -2.84620E+03
  9.21851E+02 -9.01397E+02  3.43611E+02  5.51705E+03  7.49900E+03 -4.98954E+02 -2.17561E+03  5.29085E+03
  7.76067E+01  7.59475E+03 -1.22182E+04  2.00716E+04 -1.10132E+04  5.63079E+03 -1.52062E+04 -5.73209E+03
 -9.26000E+03 -1.09501E+04  2.98955E+03 -1.25904E+04  9.96541E+03 -6.91949E+03  1.35175E+04 -8.65396E+03
  6.97734E+03  9.23005E+03  3.22308E+03  1.44543E+04 -4.11808E+03  4.31008E+03 -2.93398E+03  1.40213E+03
 -4.74568E+03 -5.91265E+03 -3.36062E+03 -4.91758E+03  1.48849E+03 -9.75203E+03  5.34600E+03  7.57229E+03
  4.72510E+02  3.36355E+03  5.96475E+03  9.09747E+02 -3.86228E+03 -3.94580E+03  1.48758E+03 -2.03402E+03
  5.47695E+03 -6.01139E+03  4.20557E+03  3.14907E+03  6.38441E+03  3.20701E+03  2.98434E+03  1.21321E+04
 -1.51381E+04  8.63314E+03 -8.34899E+03  4.37321E+03 -1.12809E+04  1.27047E+03 -1.10521E+04 -3.47532E+03
 -3.59110E+02 -2.73853E+03  4.67269E+03 -6.80852E+03  1.91020E+03 -8.90850E+02  7.54559E+03  3.99159E+03
 -1.12940E+04 -1.49360E+03 -8.34625E+03 -3.71389E+03 -5.55778E+03 -1.53449E+04  5.20037E+03 -2.35085E+03
  9.20664E+03 -6.04572E+03  8.00380E+03  1.04483E+03  3.07158E+03 -1.81712E+03  5.66851E+03  2.12253E+03
 -8.70488E+03  3.73428E+03 -2.56895E+03 -2.45328E+03 -2.23549E+03 -4.41219E+03  7.51935E+03 -6.98495E+03
  1.17917E+04 -7.76107E+02  8.77312E+03  3.27317E+03  4.94778E+03  1.76869E+04 -7.34038E+03  9.18156E+03
 -7.24419E+03  3.91224E+03 -1.02860E+04 -1.72162E+02 -1.22083E+03 -9.88134E+03  1.30083E+03 -4.12626E+03
  1.07834E+04 -5.01828E+03  8.17497E+03  1.07185E+04  4.98964E+03  5.54147E+03 -2.65994E+03  4.39214E+03
  7.58304E+02  7.04005E+03 -2.91387E+03  1.04352E+04 -7.70289E+03  6.20386E+02 -1.00952E+03 -9.65765E+02
  6.04113E+02  6.56116E+02 -4.97630E+03  1.28652E+04 -1.09873E+04  4.98609E+03 -1.11544E+04 -7.33703E+03
 -2.29372E+03 -1.82776E+04  2.81646E+03 -1.51769E+04  1.53248E+04 -1.15891E+04  1.87104E+04 -3.22104E+03
  7.75628E+03 -7.25108E+02  1.91152E+04  1.50306E+04  7.53603E+02  5.11880E+03 -6.05989E+03  9.90066E+03
 -4.50809E+03  4.16453E+03 -1.90692E+03  1.19875E+03 -8.64160E+03 -4.45342E+03  1.16614E+03 -4.97772E+03
 -1.03271E+03 -1.65659E+03  3.88241E+03 -8.88478E+01 -7.84177E+02  4.40515E+02  2.48460E+03 -7.79720E+03
  1.30348E+03  2.33994E+03  8.27948E+03 -6.00947E+03  7.47630E+03  6.79126E+03  3.18031E+03  4.28442E+03
 -8.76456E+03  1.52104E+04 -1.03412E+04  1.12145E+03 -1.76819E+04 -2.72600E+03 -7.99181E+03 -5.41533E+03
 -1.79774E+03 -5.48100E+03  2.27835E+03 -7.59688E+03  1.14616E+04 -7.03203E+03  1.01526E+04  3.68293E+02
  2.04444E+03 -3.94990E+02 -3.11468E+03  6.15940E+03 -4.75492E+03  8.85596E+03 -3.09937E+03  1.62729E+03
  4.28551E+03 -1.59464E+03  1.96731E+03  1.85527E+02  1.53427E+04  2.44309E+03 -2.44933E+03  1.65430E+03
 -6.23625E+03  1.49083E+03 -1.58675E+04  6.08519E+03 -8.98989E+03 -1.72967E+03 -3.55839E+03 -6.40182E+03
  5.10711E+03 -5.14749E+03  5.28316E+03 -3.73530E+03  6.05155E+03  2.90626E+03  3.54792E+03  2.21859E+03
 -3.57263E+03  1.10921E+04 -6.31316E+03  2.73512E+03 -2.16135E+03  1.85538E+03 -2.00225E+03 -1.94845E+03
  1.06935E+03 -7.05989E+02  8.13432E+01  1.28383E+02 -2.28790E+03 -3.98405E+01 -6.98667E+03  6.03575E+03
 -8.27521E+03 -8.03632E+02  1.00844E+03 -5.69825E+03  2.74989E+03 -7.74287E+03  1.51207E+04 -1.59655E+03
  1.30897E+04  5.61089E+03  2.14753E+03  5.19672E+03 -2.23740E+03  9.17168E+03 -1.27644E+04 -4.17498E+03
