 $NMID ID='MM_0lb_SNR50_9hz_g55_2.RAW', FMTDAT='(8E13.5)'
 TRAMP=1., VOLUME=1. $END
  3.07193E+05  1.63009E+03  3.39524E+05  2.48404E+05  8.19762E+04  3.42724E+05 -1.30881E+05  2.48153E+05
 -1.94135E+05  8.14686E+04 -1.13075E+05 -3.82205E+04 -3.46808E+03 -5.49212E+04  5.02014E+04  3.60162E+03
  3.86365E+04  5.53816E+04 -1.11992E+04  7.11400E+04 -5.78032E+04  6.22837E+04 -9.50273E+04  3.31414E+04
 -7.97102E+04 -1.14453E+04 -5.52359E+04 -4.72177E+04 -2.22516E+04 -6.88165E+04  2.45448E+04 -4.90443E+04
  4.28707E+04 -2.07585E+03  2.08937E+04  4.73229E+04 -3.66907E+04  4.60555E+04 -7.16273E+04  1.74802E+03
 -5.82445E+04 -5.97647E+04 -4.60497E+03 -8.02244E+04  3.38175E+04 -5.36838E+04  4.70621E+04 -2.12782E+04
  4.22485E+04  1.48325E+04  2.78070E+04  2.66575E+04  6.61059E+03  2.80525E+04 -5.36062E+03  2.51507E+04
 -2.14070E+04  1.30741E+04 -1.09364E+04 -9.78514E+03  9.32656E+03 -1.04907E+04  1.59626E+04  1.68788E+04
  1.17897E+04  4.11721E+04 -3.43752E+04  4.02958E+04 -6.96421E+04 -3.85382E+03 -5.60145E+04 -4.42680E+04
 -1.37216E+04 -6.41820E+04  4.55838E+04 -4.21040E+04  6.37443E+04 -3.70151E+03  3.67549E+04  3.21210E+04
 -1.32776E+03  3.59733E+04 -2.94204E+04  1.91328E+04 -3.19017E+04 -3.35895E+02 -2.19497E+04 -1.15593E+04
 -1.17123E+04 -1.65288E+04 -3.14420E+03 -2.21407E+04  5.09602E+03 -1.74014E+04  1.43195E+04 -1.54136E+04
  1.07442E+04 -2.85687E+03 -1.48732E+04  1.22187E+04 -2.83174E+04 -5.81998E+03 -8.44795E+03 -3.13550E+04
  1.98138E+04 -4.78355E+04  5.34014E+04 -1.89794E+04  4.60311E+04  2.26562E+04  1.79797E+04  4.98572E+04
 -2.08262E+04  3.15127E+04 -3.02741E+04  1.79548E+03 -1.39641E+04 -2.63919E+04  2.08359E+04 -3.95534E+04
  4.96627E+04 -1.81604E+04  4.86151E+04  2.69637E+04  2.10089E+04  4.98362E+04 -8.58039E+03  5.52387E+04
 -4.33138E+04  3.63556E+04 -4.90783E+04  5.63791E+03 -4.59537E+04 -1.90467E+04 -2.44726E+04 -4.31908E+04
  1.06762E+04 -4.24859E+04  3.47297E+04 -1.39362E+04  3.69792E+04  1.60126E+04  2.13812E+02  2.60112E+04
 -1.19548E+04  6.64638E+02 -1.51846E+04 -5.50611E+03  4.20694E+03 -9.41986E+03  2.02932E+04  8.13232E+03
  1.49007E+04  1.86578E+04  5.56481E+02  3.02920E+04 -2.26583E+04  1.34189E+04 -3.12988E+04  7.87720E+02
 -2.80495E+04 -1.80826E+04 -1.35339E+04 -2.91188E+04 -2.59279E+02 -2.28953E+04  2.00262E+04 -2.61437E+04
  3.73327E+04 -1.22369E+04  3.96454E+04  8.49591E+03  2.58910E+04  2.42675E+04  1.70021E+03  4.06936E+04
 -2.21766E+04  3.39154E+04 -2.57565E+04  7.99866E+03 -1.86190E+04 -3.44918E+03 -1.66939E+03 -1.51417E+04
 -2.81501E+03  3.50507E+03 -1.05268E+04  6.73729E+03 -1.92754E+04  7.26728E+03 -2.42229E+04 -1.03571E+04
 -1.57436E+04 -1.63316E+04  9.67393E+03 -2.69160E+04  1.92322E+04 -2.33698E+04  1.85352E+04 -9.38766E+02
  1.16113E+04  1.16913E+04 -6.56510E+03  2.37843E+04 -1.90850E+04  1.59163E+04 -2.38247E+04 -5.30721E+03
 -1.67562E+04 -2.15480E+04  2.54213E+03 -3.04162E+04  1.80349E+04 -2.24389E+04  2.82534E+04 -1.76543E+04
  1.95766E+04  1.16756E+03  1.58084E+04 -2.48489E+03  1.41896E+04  4.26759E+03  9.62297E+03 -4.02037E+03
  2.50761E+04  5.13396E+03  3.56788E+04  1.71683E+04  1.36779E+04  4.05003E+04 -1.61103E+03  3.82747E+04
 -2.98803E+04  3.82580E+04 -4.20997E+04  2.32092E+04 -4.17099E+04 -2.34009E+03 -2.92669E+04 -2.64881E+04
 -1.42017E+04 -3.85162E+04  1.63567E+04 -3.82350E+04  3.06900E+04 -1.19943E+04  2.15214E+04  8.02869E+03
 -1.97723E+03  1.85896E+04 -1.02149E+04  1.59195E+04 -1.83537E+04  7.46005E+03 -1.39027E+04 -1.12447E+04
  1.26775E+03 -2.15183E+04  1.49768E+04 -1.65079E+04  2.05228E+04 -1.18099E+03  5.23582E+03  3.24129E+03
 -8.70787E+03  6.01386E+03 -9.22439E+03 -7.30867E+03 -9.41266E+02 -1.69475E+04  1.52207E+04 -1.82440E+04
  2.36080E+04 -1.17023E+04  2.82630E+04  1.06803E+03  2.10167E+04  1.87267E+04  1.02192E+04  2.56258E+04
 -7.89858E+03  3.66000E+04 -2.29651E+04  2.46844E+04 -2.19398E+04  1.73984E+03 -1.55620E+04 -9.61184E+02
 -7.24626E+03 -7.54376E+03 -5.12631E+03  8.96521E+02 -6.54485E+03  2.24610E+03 -4.79683E+03  1.67197E+03
 -1.27534E+04  2.67450E+03 -1.42569E+04 -8.59098E+03 -6.98165E+03 -1.99918E+04  1.03409E+04 -1.49490E+04
  1.79997E+04 -5.79911E+03  7.21422E+03  6.31953E+03 -7.68264E+02  7.61171E+03 -1.04639E+04 -1.43657E+03
  5.46974E+02 -9.68459E+03 -2.61332E+03 -1.70298E+04  8.27576E+03 -2.04225E+04  2.28348E+04 -4.74947E+03
  2.31699E+04  8.76651E+03  1.72214E+04  1.67951E+04  7.09505E+03  1.89939E+04 -3.37220E+03  1.54036E+04
 -1.39609E+04 -2.20049E+03  2.64037E+02 -1.15254E+04  8.27211E+02 -3.68635E+03  1.35439E+04  1.85163E+03
  6.28928E+03  6.25724E+03  1.09845E+03  2.17856E+04 -3.83421E+03  1.50004E+04 -1.35985E+04  8.03701E+03
 -1.52407E+04 -8.49521E+03 -1.45687E+03 -2.22638E+04  7.14050E+03 -2.92754E+03  7.91957E+03 -4.06221E+02
  4.51948E+03  1.58150E+04 -6.89513E+03  1.10316E+04 -1.47395E+04  2.73505E+03 -1.61542E+04 -7.21721E+03
 -6.49584E+03 -1.63857E+04  1.76848E+03 -1.87946E+04  1.46213E+04 -1.46590E+04  1.81544E+04  2.87216E+02
  1.38431E+04  1.21770E+04 -9.23645E+03  1.60304E+04 -1.26804E+04  6.56882E+03 -1.59607E+04 -2.42204E+03
 -3.69373E+03 -1.50563E+04 -3.92502E+03 -1.32555E+04  1.56202E+04 -5.25604E+03  1.49074E+04 -4.08047E+03
 -7.96417E+02 -3.78383E+03 -4.21998E+03  3.61598E+03 -2.28488E+03 -7.12546E+03 -4.62498E+02 -4.03635E+03
  1.16902E+04 -1.28707E+04  1.58034E+04 -6.45573E+02  1.92552E+04  1.25905E+04  5.97179E+03  3.05522E+04
 -2.96879E+03  2.31652E+04 -1.72725E+04  2.14241E+04 -2.70442E+04  5.27275E+03 -2.57820E+04 -1.28287E+04
 -1.17477E+04 -2.12793E+04  1.38934E+03 -1.64317E+04 -7.21640E+02 -3.57045E+03  2.85872E+03 -7.06089E+03
  6.70024E+03 -4.81540E+03  5.95661E+03 -1.28463E+03  1.24329E+04 -3.64719E+03  4.07228E+03  1.02062E+03
  1.28975E+04  1.08287E+04  6.56293E+03  1.26177E+04  3.75917E+03  7.00283E+03 -1.75267E+04  5.94812E+03
 -1.76253E+04 -1.44932E+02 -1.02366E+04 -1.43726E+04 -5.22267E+03 -1.71105E+04  1.41832E+04 -1.26429E+04
  1.79736E+04 -1.33936E+04  2.57770E+04  8.66026E+02  1.79675E+04  1.97459E+04  1.61535E+03  2.22629E+04
 -1.23839E+04  1.38668E+04 -1.19372E+04  1.09410E+04 -6.83585E+03  3.70409E+03 -2.12220E+03 -4.51366E+03
 -1.65967E+03  2.80222E+03 -8.41352E+03 -1.08268E+03 -5.76957E+03  6.37952E+03 -1.52558E+04 -5.12595E+02
 -7.31703E+03 -1.14482E+04 -7.27147E+03 -1.60103E+04  6.63242E+03 -1.48681E+04  1.22781E+04 -2.51034E+03
  2.02088E+04  4.28422E+03  1.16250E+04  1.20824E+04 -1.28217E+04  2.07515E+04 -6.71300E+03  1.32029E+04
 -1.35118E+04  5.83709E+02 -5.23991E+03 -6.33351E+03  8.08249E+02 -1.54497E+04  7.37530E+03 -7.63373E+03
  9.87072E+03  1.11383E+03  7.47347E+03  3.80481E+03 -6.11458E+02  1.00311E+03  3.30564E+03  3.38189E+03
  5.70281E+03  1.85452E+03  6.77370E+03 -2.41332E+02  3.75633E+03  5.41888E+03  6.73364E+03  6.27934E+03
  1.91505E+02  1.84677E+04 -1.62501E+04  1.02195E+04 -1.23839E+04  5.28397E+03 -1.10941E+04 -3.46485E+03
 -7.83786E+02 -1.13561E+04  4.73817E+03 -1.78013E+04  1.09762E+04 -1.60580E+04  1.41717E+04 -3.56194E+03
  1.64025E+04  6.73590E+03 -8.40278E+02  1.23094E+04 -6.00172E+03  5.99664E+03 -1.32927E+04 -1.85914E+03
 -1.74501E+02 -1.06215E+04  1.59693E+03 -7.42170E+03  3.11989E+03 -2.48098E+03  5.19903E+03  3.86565E+03
  1.63728E+03  5.83844E+03 -1.21553E+03 -3.42308E+03 -4.90018E+03 -3.48177E+03 -3.95105E+03 -5.66080E+03
  2.35431E+02 -2.89841E+03  1.37374E+04  8.12436E+03  5.39528E+03  1.34345E+04 -2.48852E+03  1.25062E+04
 -3.34894E+03  4.84787E+03 -1.58859E+04  7.78075E+03 -2.89152E+03  1.03477E+03 -4.26118E+03 -6.43611E+03
 -5.60540E+03 -1.66722E+02  1.19113E+04 -1.65979E+03  4.67035E+02  7.59133E+02 -3.17574E+03  7.22084E+03
 -5.67711E+03  6.99645E+03 -5.45164E+03 -8.46908E+03  8.85363E+02 -4.26420E+03 -3.08666E+03 -8.68062E+03
  9.95543E+03 -5.67892E+03  1.99225E+03 -5.48210E+03  5.91516E+03  5.80588E+03  4.15071E+03  4.45022E+03
 -5.74505E+03  5.65720E+03 -4.71538E+03 -3.81330E+03 -2.57958E+02 -1.36001E+04  1.94271E+03 -8.40207E+03
  8.50633E+03  1.28790E+03  5.55391E+03  8.42164E+03  3.99206E+03  4.18766E+03  4.91459E+02  6.70815E+03
 -1.34018E+04  2.55444E+03 -4.86374E+03 -2.09282E+03 -5.46406E+03 -5.08296E+03  6.27037E+03 -6.24278E+03
  8.38041E+02  1.84762E+03  4.19501E+03  3.94445E+03 -6.29771E+03  2.42463E+03  7.01746E+02  2.99088E+03
 -3.93013E+03 -7.37742E+02  1.06594E+03 -4.35165E+03 -2.34821E+03  2.98177E+03  4.79225E+03  3.90025E+03
  2.14686E+03  2.78392E+03 -5.67874E+03  1.76587E+03 -9.71838E+03  7.53342E+03 -3.76348E+03 -4.20443E+03
 -4.40619E+03 -1.34828E+04  4.40382E+03 -1.28151E+04  1.61286E+04 -3.44172E+03  1.42471E+04  1.97024E+02
  1.50449E+04  3.05985E+02  1.78669E+03  1.15831E+04 -3.54454E+03  3.29669E+03 -5.59367E+03  1.05794E+04
 -8.97254E+03  2.85261E+03 -5.50061E+03  9.88586E+02 -4.28393E+03  8.08905E+02  2.91885E+03 -2.72760E+03
 -7.92948E+02 -1.80592E+03 -4.40784E+03 -7.76968E+02 -5.65812E+03 -8.58019E+03  3.43198E+03  1.02513E+03
  2.56331E+03 -3.70134E+03  1.01173E+04 -1.98300E+03  4.99862E+03  5.06701E+03  6.79742E+01  6.76406E+03
 -1.64600E+02  1.68980E+04 -1.48939E+04  1.09486E+04 -9.58069E+03 -2.70503E+03 -1.36743E+04 -3.65865E+03
 -8.20086E+03 -1.52235E+04  7.13914E+03 -1.11435E+04  3.69891E+03 -6.08268E+03  6.97928E+03 -3.53903E+03
  1.35907E+03  9.14310E+03 -4.26092E+02  7.61231E+03 -3.64590E+03 -8.05769E+01 -4.84634E+03 -1.01480E+04
  7.17392E+03  4.13318E+03  8.13056E+03  8.36027E+03  7.67541E+02  1.07499E+04 -3.56574E+03  9.60881E+03
 -1.02761E+04 -1.26982E+02 -1.21589E+04 -8.37052E+02 -5.01055E+03 -2.84260E+03 -3.51817E+02 -1.16842E+04
  9.05515E+02 -1.13376E+04  1.29647E+04 -7.67412E+03  1.33597E+04  7.91661E+02 -1.01448E+03  7.03892E+03
 -3.72961E+03  3.29792E+03  5.28906E+03  8.71469E+03 -7.92083E+03  6.35325E+03 -3.34782E+03 -1.26092E+03
  1.94573E+03 -1.80455E+03 -7.64561E+03  1.44707E+03 -3.40542E+03  1.83951E+03 -1.00132E+04 -4.72214E+02
 -7.13694E+03 -9.66096E+02 -5.92741E+02 -1.17449E+04  2.96334E+03 -1.76989E+03  2.11893E+03  1.03981E+03
  5.03174E+03  4.96808E+03 -3.09644E+03  3.23992E+02 -4.69965E+03  7.97403E+03 -4.46538E+03  3.73770E+03
