 $NMID ID='MM_0lb_SNR50_7hz_g55_14.RAW', FMTDAT='(8E13.5)'
 TRAMP=1., VOLUME=1. $END
  3.07475E+05  8.66368E+02  3.33269E+05  2.48094E+05  8.92124E+04  3.39571E+05 -1.37117E+05  2.54647E+05
 -1.94296E+05  9.05324E+04 -1.17291E+05 -3.28658E+04 -3.30665E+03 -5.49097E+04  5.98917E+04  3.31801E+03
  4.21551E+04  5.72476E+04 -1.46585E+04  7.87166E+04 -7.09301E+04  6.98452E+04 -7.50607E+04  3.22719E+04
 -8.40032E+04 -1.48942E+04 -5.31522E+04 -4.70527E+04 -1.68595E+04 -7.67477E+04  2.23426E+04 -5.08514E+04
  4.92633E+04  6.39322E+03  1.96427E+04  5.55416E+04 -3.81538E+04  4.70704E+04 -7.08106E+04 -3.86911E+03
 -6.03465E+04 -5.40071E+04 -5.67307E+03 -7.64857E+04  3.10430E+04 -6.11147E+04  4.90990E+04 -2.18898E+04
  4.53101E+04  1.14432E+04  3.71392E+04  2.68398E+04  2.39062E+04  3.73003E+04 -7.18065E+03  3.14399E+04
 -2.38289E+04  1.67116E+04 -1.37794E+04 -2.37704E+03  3.44997E+03 -2.56260E+03  2.30913E+04  1.84280E+04
  1.18026E+04  3.26655E+04 -3.03513E+04  4.17480E+04 -6.97337E+04  2.84634E+03 -6.45363E+04 -4.49295E+04
 -1.03293E+04 -6.93407E+04  4.63260E+04 -4.70453E+04  6.50167E+04  6.99928E+02  4.10995E+04  3.50496E+04
 -5.91775E+03  4.04157E+04 -3.75705E+04  2.05562E+04 -3.84621E+04  2.06833E+03 -2.21037E+04 -1.32382E+04
 -1.77002E+04 -7.66773E+03 -5.92432E+03 -2.44054E+04  1.27536E+04 -2.87451E+04  1.62421E+04 -1.37387E+04
  1.41293E+04 -1.04523E+03 -1.04472E+04  9.73955E+03 -2.05088E+04 -9.25452E+03 -6.31941E+03 -4.23506E+04
  2.15165E+04 -5.43622E+04  5.22314E+04 -2.25935E+04  5.23194E+04  2.31983E+04  2.62393E+04  5.23432E+04
 -1.44067E+04  3.54555E+04 -3.13070E+04 -1.14931E+03 -1.55336E+04 -3.08231E+04  1.49983E+04 -3.66831E+04
  4.79401E+04 -1.03405E+04  4.81637E+04  2.26320E+04  1.85984E+04  6.23393E+04 -9.40245E+03  5.84064E+04
 -3.92653E+04  4.30443E+04 -5.57937E+04  1.73416E+04 -5.20891E+04 -2.20570E+04 -2.69405E+04 -5.28545E+04
  4.73542E+03 -4.75747E+04  3.84205E+04 -1.68105E+04  3.17333E+04  1.12925E+04  7.18437E+03  1.75243E+04
 -2.03784E+04  1.02638E+04 -1.49878E+04 -8.37700E+03  7.20408E+03 -1.09950E+04  1.67569E+04  7.11844E+03
  1.85213E+04  1.60162E+04  3.17289E+03  2.51924E+04 -2.56325E+04  1.71204E+04 -3.31107E+04 -3.72004E+03
 -2.99597E+04 -1.11264E+04 -1.49060E+04 -2.82276E+04 -1.09468E+03 -3.11625E+04  2.47622E+04 -1.29910E+04
  3.33377E+04 -9.17342E+03  5.26774E+04  1.08515E+04  3.46024E+04  2.39676E+04  1.61357E+03  4.34668E+04
 -1.95833E+04  4.16540E+04 -2.97532E+04  1.16650E+04 -2.64187E+04 -1.16766E+04 -5.97609E+03 -1.34332E+04
 -7.83868E+03  3.09193E+03 -1.09718E+04  1.83269E+04 -2.16897E+04 -1.24870E+03 -1.27139E+04 -1.25303E+04
 -1.34297E+04 -2.79316E+04  2.28330E+03 -3.48325E+04  2.26789E+04 -2.71242E+04  2.80630E+04 -6.33666E+03
  1.06767E+04  1.61763E+04 -4.95268E+03  3.26584E+04 -1.86893E+04  1.42918E+04 -2.65583E+04 -4.36989E+03
 -2.29512E+04 -2.70467E+04 -6.26082E+03 -2.48053E+04  1.31067E+04 -2.12299E+04  2.96339E+04 -1.22435E+04
  2.38921E+04  8.37446E+02  1.60305E+04  4.50561E+03  1.00396E+04  5.41695E+03  4.88616E+03  4.18138E+03
  2.36173E+04  6.23452E+03  3.40399E+04  1.27790E+04  2.20690E+04  4.00828E+04  2.73487E+03  4.77395E+04
 -3.04484E+04  4.54265E+04 -5.11550E+04  2.70626E+04 -5.71276E+04 -1.65612E+03 -4.10421E+04 -3.53470E+04
 -1.67838E+04 -5.02143E+04  2.14017E+04 -4.12198E+04  3.00696E+04 -1.64826E+04  3.15093E+04  1.86949E+04
  1.38245E+04  1.52691E+04 -1.62741E+04  1.29244E+04 -3.03061E+04 -3.42256E+03 -1.73093E+04 -1.42136E+04
  1.05592E+04 -2.43505E+04  8.27379E+03 -1.32530E+04  1.63780E+04 -4.69986E+03  5.40332E+03  1.35964E+04
 -1.61067E+04  5.19922E+03 -1.37916E+04 -4.97784E+03 -1.56911E+03 -2.39256E+04  1.40228E+04 -3.40285E+04
  2.72845E+04 -1.03954E+04  3.40900E+04  3.72306E+02  2.49157E+04  2.63293E+04  7.88364E+03  3.29809E+04
 -1.14212E+04  3.73490E+04 -1.59496E+04  3.00868E+04 -3.05522E+04  8.38762E+02 -1.46885E+04 -6.97336E+03
 -9.44574E+03 -6.72548E+03  5.01564E+03 -5.15882E+01  1.52015E+03  3.27298E+03 -1.09308E+04  1.14539E+04
 -2.34250E+04  1.28001E+03 -1.47631E+04 -1.33042E+04 -7.46374E+03 -2.60574E+04  1.23786E+04 -1.29319E+04
  2.20627E+04 -7.13219E+03  1.84261E+04  5.46997E+03 -5.44277E+02  1.19467E+04 -8.09561E+03 -1.73900E+03
 -8.15104E+03 -1.03884E+04  1.17537E+01 -1.62393E+04  1.35749E+04 -2.26355E+04  1.98708E+04 -1.05993E+04
  2.82851E+04  2.13654E+03  3.04811E+04  1.53993E+04  6.61253E+03  2.30250E+04 -1.11440E+04  1.32042E+04
 -1.04564E+04  7.57052E+03 -1.61805E+04 -5.39245E+03  5.27077E+03 -3.15674E+03  1.51873E+03 -8.56356E+03
  1.12776E+04  7.75220E+03  4.24953E+03  8.94822E+03 -1.24445E+04  1.66428E+04 -1.82223E+04  8.05660E+02
 -1.10603E+04 -1.25482E+04  1.57152E+03 -8.32139E+03  1.43290E+04 -9.20319E+03  1.24738E+04  1.03336E+04
  3.64700E+03  1.13020E+04 -9.52463E+03  1.61025E+04 -1.71562E+04  8.49411E+03 -1.64374E+04 -8.32433E+03
 -1.10118E+04 -1.77219E+04  3.23646E+03 -1.97416E+04  2.11121E+04 -2.02418E+04  1.59810E+04  1.03421E+04
  1.49206E+04  1.47250E+04 -2.74857E+03  2.19319E+04 -1.81780E+04  1.50959E+04 -1.26476E+04  1.91920E+03
 -1.48035E+04 -4.85791E+03 -8.13618E+01 -1.40397E+04  6.19466E+03 -9.02350E+03  9.87270E+03 -6.03800E+02
 -1.84113E+03 -2.99540E+03  4.82999E+03  6.44017E+03 -2.04092E+03 -9.29505E+03  4.31980E+03 -7.67772E+03
  1.32306E+04 -6.95195E+03  1.77312E+04  3.02399E+03  2.16403E+04  1.12141E+04  1.14999E+04  2.96028E+04
 -8.39278E+03  2.77530E+04 -2.26097E+04  2.63615E+04 -3.02833E+04  5.06608E+03 -2.51551E+04 -2.00879E+04
 -1.80592E+04 -2.39651E+04 -2.75382E+03 -1.59988E+04  8.67775E+03 -1.54124E+04  1.01325E+04 -5.08880E+03
 -5.24051E+03 -6.71487E+03  1.06948E+03  2.15922E+03  6.35339E+03 -8.31372E+03  1.00779E+04 -4.94224E+03
  7.35133E+03 -8.71003E+02  9.84292E+03  6.93365E+03 -2.89040E+03  1.08064E+04 -8.67671E+03  1.03397E+04
 -2.21539E+04  8.95233E+03 -1.36818E+04 -2.08954E+04 -4.40369E+03 -2.14983E+04  6.11141E+03 -2.09607E+04
  2.40474E+04 -9.49376E+03  3.25152E+04  6.65466E+03  2.09784E+04  1.38337E+04 -6.91659E+03  1.93406E+04
 -1.32543E+04  1.37213E+04 -1.41842E+04  9.97555E+03 -3.37441E+03  7.45676E+02 -1.72085E+03 -4.12807E+03
 -5.17090E+03 -2.50208E+03 -8.18894E+03  8.73062E+03 -7.45039E+03  3.24092E+03 -2.44565E+04 -3.49508E+03
 -7.42015E+03 -9.12482E+03  1.24024E+03 -1.41349E+04  1.26226E+04 -2.06842E+04  3.09483E+04 -7.45239E+03
  1.73375E+04  5.18222E+03  1.12585E+04  1.81563E+04 -5.30230E+03  2.84666E+04 -1.42700E+04  1.08977E+04
 -2.11176E+04  4.09473E+03 -1.23902E+04 -9.92544E+03  1.15192E+03 -1.01356E+04  1.36178E+04 -1.17868E+04
  1.72105E+04 -1.35344E+04  9.27353E+03  6.55234E+02 -1.02794E+03  8.14308E+03  2.18568E+00  8.75193E+03
 -2.08310E+03  3.49706E+03  9.11923E+03  9.52047E+03  9.18476E+03  4.98782E+03  5.05841E+03  5.18787E+03
 -1.59759E+03  1.47775E+04 -2.39154E+04  1.75870E+04 -2.13952E+04  5.42065E+03 -1.73060E+04 -1.21108E+04
 -1.09388E+04 -2.66074E+04  1.39827E+03 -2.28031E+04  1.47593E+04 -1.06216E+04  1.49289E+04  1.21154E+03
  1.20200E+04  8.11437E+03 -2.00428E+03  9.05520E+03 -1.03853E+04  7.78630E+03 -1.03163E+04 -2.59776E+03
 -7.55515E+03 -8.09935E+03  3.97625E+03 -1.07559E+04  6.02459E+03  6.56080E+03  3.35305E+03  3.00413E+03
  1.40608E+03  3.87059E+03 -5.47461E+03  9.43355E+03 -6.16462E+03  7.05995E+03  2.03759E+03  2.30596E+03
  2.43422E+03 -1.61942E+03  8.63075E+03  3.03330E+03  3.77666E+03  1.19942E+04 -6.31181E+03  1.36733E+04
 -1.66555E+04  1.57824E+04 -1.40064E+04 -3.21597E+02 -1.02546E+04 -4.32123E+03 -2.26105E+03 -1.07535E+04
 -3.55809E+03 -8.30367E+03  7.69566E+03 -4.41234E+03  1.32751E+04 -7.20806E+02 -4.97236E+03  4.22141E+03
 -2.24553E+03  5.76519E+03 -9.70887E+03 -1.00802E+04 -4.68947E+03 -1.24861E+04  5.88949E+03 -1.60086E+04
  8.39267E+03 -7.23572E+03  1.44267E+04 -3.61153E+03  1.26663E+04 -8.33005E+03 -6.77573E+03  3.73305E+03
  2.90947E+03  7.40001E+03 -4.96770E+03 -4.26524E+03 -5.23981E+03 -6.66189E+03  8.32957E+03 -5.98752E+03
  1.01213E+04  2.03780E+03  9.35018E+03  6.11985E+02 -9.02831E+02  1.72964E+04 -6.08302E+03  1.16203E+04
 -1.38825E+04 -1.59856E+03 -9.28886E+03 -1.83198E+03 -1.07848E+04 -1.17689E+04 -4.59419E+02 -1.01455E+04
  1.19871E+04 -1.76241E+03  5.99613E+03  1.05630E+03  7.89815E+03  3.31701E+03 -5.02026E+03  4.05547E+03
 -4.79896E+03  3.69834E+03 -7.09759E+03 -1.75536E+03 -2.17911E+03  4.74675E+03 -4.64535E+03  1.14031E+03
 -4.79017E+03  1.82382E+03 -1.01212E+04  7.11734E+03 -8.34091E+03  1.35700E+02 -1.46781E+04 -4.91440E+03
 -2.95479E+03 -1.52945E+04 -2.87757E+03 -2.32810E+04  1.38705E+04 -1.62383E+04  1.87944E+04 -3.02790E+03
  1.95875E+04  3.10163E+03  1.67440E+04  1.20267E+04  2.76124E+02  1.28002E+04 -7.95280E+03  1.42970E+04
 -6.76924E+03  6.20681E+02 -3.25445E+03  2.81191E+02  3.39430E+03 -6.40190E+03 -4.41212E+03 -5.47161E+03
 -1.03485E+03 -1.47164E+03 -2.52108E+03 -1.48649E+03  4.00999E+03 -6.59977E+03  1.55435E+03 -8.33790E+03
  1.43972E+04 -1.22579E+04  6.74333E+03  1.14099E+03  8.96194E+03  5.24183E+03  2.69863E+03  1.37543E+04
 -5.22656E+03  9.88476E+03 -7.72945E+03  1.34803E+04 -1.73198E+04 -3.73494E+03 -1.95854E+04 -7.28255E+03
 -3.65606E+03 -1.82131E+04 -1.84145E+03 -8.73108E+03  1.27716E+04 -1.08519E+04  8.56923E+03  5.87110E+03
  5.33268E+03  3.25331E+03 -1.63045E+03 -7.42232E+03 -3.82852E+03 -3.60389E+03  8.95789E+03 -1.34842E+04
  1.73219E+04 -5.99600E+02  1.93081E+03 -9.63521E+02  1.01674E+04  1.98998E+03  3.50558E+03  1.19542E+04
 -7.23923E+03  9.21179E+03 -7.99544E+03 -3.43359E+03 -7.61817E+03 -7.13312E+03 -5.33786E+03 -1.29418E+04
  7.34700E+03 -7.94487E+03  1.03105E+04 -1.90581E+03  1.96582E+04  5.96841E+03  5.36418E+03  1.07377E+04
 -1.28189E+03  3.46605E+03 -1.59565E+03  1.07537E+04 -1.04325E+04  5.94697E+03 -1.08071E+04  3.29418E+03
 -6.24427E+03 -3.03111E+03  2.69463E+02  1.27104E+03 -3.72607E+03 -2.01745E+03 -1.11184E+03 -2.10234E+03
 -6.56029E+03 -5.64574E+03  1.61027E+03 -1.36675E+04  4.19544E+03 -1.02655E+04  3.43046E+03 -2.65399E+03
  9.34647E+03  2.90121E+03  5.68118E+03  5.97794E+03  2.83778E+02  1.33915E+04 -4.45749E+03  4.68405E+03
