 $NMID ID='MM_0lb_SNR50_17hz_g50_38.RAW', FMTDAT='(8E13.5)'
 TRAMP=1., VOLUME=1. $END
  3.05844E+05  2.79891E+03  3.40547E+05  2.48283E+05  8.27886E+04  3.38230E+05 -1.27105E+05  2.51949E+05
 -1.90688E+05  8.01593E+04 -1.11381E+05 -3.06453E+04  2.77241E+02 -5.36407E+04  4.96611E+04  7.22889E+02
  3.47806E+04  5.38521E+04 -1.59450E+04  7.61194E+04 -5.90560E+04  6.57195E+04 -8.50206E+04  3.21636E+04
 -7.91327E+04 -1.31486E+04 -5.85416E+04 -5.32434E+04 -1.92269E+04 -6.70809E+04  3.03708E+04 -4.62169E+04
  4.01552E+04  3.29432E+03  1.69191E+04  4.54931E+04 -3.34131E+04  4.55890E+04 -6.50957E+04 -7.32830E+02
 -5.25403E+04 -5.62786E+04 -4.71958E+03 -7.26741E+04  3.18949E+04 -5.36752E+04  4.49698E+04 -1.69494E+04
  4.48443E+04  1.55839E+04  3.03090E+04  1.93442E+04  1.54073E+04  3.14718E+04 -1.70806E+03  2.92101E+04
 -2.29775E+04  1.19982E+04 -1.69338E+04 -5.84808E+03  4.24174E+03 -5.59613E+03  2.34234E+04  1.19659E+04
  1.22469E+04  3.87485E+04 -2.92686E+04  3.54520E+04 -6.27857E+04  6.81660E+03 -5.66776E+04 -4.28103E+04
 -1.27249E+04 -6.04843E+04  3.89851E+04 -4.80315E+04  5.82643E+04 -1.88095E+03  2.62373E+04  3.19756E+04
 -7.23958E+03  3.22581E+04 -3.30640E+04  1.57117E+04 -2.68194E+04 -8.35815E+03 -1.16100E+04 -1.06283E+04
 -9.56568E+03 -1.02956E+04  7.23009E+02 -1.69388E+04  6.50589E+03 -2.24720E+04  1.18579E+04 -1.91746E+04
  1.15065E+04  7.46852E+03 -6.43897E+03  1.13722E+04 -1.89421E+04 -1.45934E+03 -1.32303E+04 -3.20229E+04
  2.23298E+04 -3.85730E+04  4.28058E+04 -1.20027E+04  3.87167E+04  1.86066E+04  1.31182E+04  4.49792E+04
 -1.88823E+04  3.39120E+04 -1.98719E+04  6.10560E+03 -2.82259E+03 -2.53974E+04  2.06944E+04 -3.37158E+04
  4.48833E+04 -3.34050E+03  2.90682E+04  2.07755E+04  1.52062E+04  4.62705E+04 -9.04020E+03  4.63306E+04
 -2.94379E+04  3.46100E+04 -3.90405E+04  1.00719E+04 -4.06916E+04 -1.18961E+04 -1.97454E+04 -3.80028E+04
  3.32183E+03 -3.18457E+04  2.91505E+04 -1.56829E+04  2.81802E+04  1.02166E+04  2.45147E+03  1.97012E+04
 -1.59930E+04  9.54817E+03 -1.34987E+04 -1.04258E+04  4.92090E+03 -9.91681E+03  2.03186E+04  7.02131E+03
  1.28104E+04  2.31230E+04 -9.41887E+03  2.54483E+04 -1.83629E+04  1.07647E+04 -2.78313E+04 -1.11860E+04
 -2.05429E+04 -1.68630E+04 -9.13361E+03 -1.99527E+04  3.46010E+03 -1.30740E+04  1.36691E+04 -1.47364E+04
  2.21581E+04 -1.08246E+04  2.63691E+04 -3.94175E+02  2.42001E+04  1.69005E+04  5.27871E+03  3.68400E+04
 -1.51640E+04  3.49853E+04 -2.14877E+04  1.25517E+04 -1.90279E+04 -9.54047E+03 -3.17734E+03 -9.81854E+03
  1.69171E+03 -5.77219E+03 -4.43994E+03  4.14912E+03 -1.37718E+04  7.81764E+03 -1.73270E+04 -2.11356E+03
 -4.14647E+03 -1.34371E+04  1.31475E+03 -2.20029E+04  7.97497E+03 -1.44975E+04  1.28461E+04 -4.98760E+03
  9.31630E+03  1.12220E+04 -3.50458E+02  1.39073E+04 -1.21088E+04  1.10918E+04 -1.56646E+04  5.99384E+02
 -1.36461E+04 -1.76960E+04 -1.78014E+03 -2.28590E+04  8.51371E+03 -1.98704E+04  1.59559E+04 -6.52684E+03
  1.37555E+04  4.53424E+02  1.11515E+04  5.79284E+03  6.13549E+03  2.00272E+03  1.01276E+04 -2.55374E+03
  1.67128E+04  3.22452E+03  1.54120E+04  1.27728E+04  9.05203E+03  2.57999E+04 -1.75228E+03  3.18555E+04
 -1.95610E+04  2.28125E+04 -2.81509E+04  7.81127E+03 -2.69180E+04  1.50530E+03 -2.34343E+04 -1.53851E+04
 -1.29464E+04 -2.32642E+04  4.26860E+03 -2.37186E+04  1.66204E+04 -1.19321E+04  1.55117E+04  5.87777E+03
  6.60248E+03  1.37339E+04 -8.14207E+03  6.85927E+03 -1.14375E+04  3.64351E+03 -1.21898E+04 -6.52712E+03
  3.56829E+02 -1.28849E+04  7.87676E+03 -9.44407E+03  8.93799E+03 -5.32225E+03  3.52452E+03  6.31513E+03
 -9.89318E+03  3.42521E+03 -4.36462E+03 -4.41488E+03 -5.74236E+01 -8.76143E+03  8.55729E+03 -7.34459E+03
  1.59631E+04 -2.32729E+03  1.28192E+04  5.28327E+03  1.33049E+04  9.83873E+03  6.69459E+03  1.73156E+04
 -2.41935E+03  1.68500E+04 -5.45271E+03  1.32900E+04 -1.28271E+04  1.86141E+03 -3.80438E+03 -2.35769E+03
 -7.93591E+03 -4.49750E+03 -2.13641E+02  1.92735E+03  2.51148E+03  1.96992E+03 -2.85381E+03  7.79822E+02
 -8.48108E+03  3.96630E+03 -7.41483E+03 -5.80459E+03 -2.67431E+03 -1.17454E+04 -2.17314E+03 -7.02702E+03
  8.52485E+03 -6.66888E+03  3.22400E+03  1.56300E+02  4.97262E+02  1.55812E+03 -1.27294E+03 -3.02555E+03
 -5.26216E+03 -8.43324E+03 -5.77243E+02 -8.04197E+03  7.15697E+03 -1.22120E+04  1.28434E+04 -4.31267E+03
  1.58127E+04 -4.38235E+03  1.33946E+04  7.19814E+03  2.86578E+03  8.99152E+03 -4.68226E+02  6.07072E+03
 -9.14983E+03  3.66156E+03 -5.43729E+03 -5.88106E+03  2.88329E+03 -3.01565E+03  5.47874E+03  7.91486E+02
  1.99357E+03  7.03607E+03  2.08690E+03  1.01877E+04 -2.07810E+03  1.12717E+04 -1.34753E+04  2.17835E+03
 -5.21332E+03 -6.88061E+03 -1.25980E+03 -4.43247E+03  3.18688E+03 -5.56675E+03  2.82913E+03  9.56928E+02
  2.47357E+03  5.59922E+03 -7.80383E+03  4.47936E+03 -5.14474E+03  2.50935E+03 -2.61216E+03 -2.81665E+03
 -6.29084E+03 -6.21419E+03  5.98601E+03 -8.25649E+03  5.30531E+03  2.07873E+02  6.80533E+03  8.18860E+02
  4.21222E+03  8.34154E+03 -4.39123E+03  1.19819E+04 -6.71903E+03  2.58881E+03 -9.17556E+03 -4.24651E+03
 -4.89417E+03 -5.45926E+03 -2.39457E+03 -3.94652E+03  6.41786E+03 -3.44041E+03  5.12341E+03 -3.56006E+03
  1.77691E+03 -1.40130E+03  2.00413E+02  1.62389E+01  1.59110E+03 -6.06607E+03 -2.07306E+03  8.07885E+02
  3.33039E+03 -6.80486E+03  6.07380E+03 -4.55965E+03  3.93925E+03  5.93261E+03  7.54872E+03  6.57577E+03
 -6.51959E+03  1.04357E+04 -7.57438E+03  1.01935E+04 -1.18411E+04  6.47649E+03 -1.03752E+04 -5.43725E+03
 -5.81986E+03 -6.30907E+03  5.18156E+02 -7.97844E+03  1.44745E+03 -1.97754E+02  1.90311E+03 -6.65107E+01
  2.04482E+02 -5.00511E+03  4.61052E+01 -5.14429E+02  5.40670E+03  1.16659E+03  4.00319E+03 -3.16793E+03
  6.66299E+03  1.31572E+03  1.73944E+03  5.47520E+03 -7.90357E+02  4.21866E+03 -7.75955E+03  1.06234E+03
 -6.21869E+03  8.46887E+02 -4.21342E+03 -1.64478E+03 -2.06231E+03 -5.96137E+03  2.34583E+03 -8.75417E+03
  3.79888E+03 -4.64965E+03  5.80756E+03  4.31703E+02  2.60249E+03  6.63589E+03  1.07964E+03  2.32032E+03
  3.17858E+03  1.13279E+04 -1.74355E+03  2.69534E+03 -6.60939E+03 -2.01549E+03 -1.55356E+03  1.86327E+02
  3.01016E+03  1.59919E+03  2.74654E+03  3.15723E+02 -1.81800E+03 -1.29794E+03 -2.73522E+03  3.60321E+01
 -1.98016E+03 -4.72623E+03  5.19882E+02 -9.68189E+03 -3.80273E+02 -4.48038E+03  3.87224E+03 -5.00640E+03
  2.93867E+03 -4.46373E+02  3.14050E+03  5.95065E+03 -5.75272E+01  3.44894E+03 -4.43916E+03  2.35772E+03
 -4.17733E+03 -1.17586E+03 -6.45288E+03 -3.96453E+03  1.08664E+02 -6.09895E+03 -2.30722E+03 -6.36324E+03
  2.42704E+03 -1.21247E+03 -1.55295E+01  4.97357E+03 -3.99976E+02  8.51401E+03 -1.24011E+03 -1.26486E+03
  2.72099E+03  3.18108E+03  2.16488E+03  3.65152E+03  2.15851E+03 -7.91546E+02  3.19616E+03 -2.00424E+03
  1.97104E+03  1.95177E+03  1.98731E+03 -4.08129E+02 -4.11864E+03 -2.09963E+02 -4.66257E+03  3.21960E+03
 -2.53491E+03 -4.08832E+03 -3.34679E+03 -6.90415E+03  6.56627E+03 -2.32644E+03  2.42443E+02 -9.90779E+02
  4.23470E+03  2.00860E+03 -5.15545E+02 -8.64250E+02 -5.52068E+03 -2.57029E+03 -4.63132E+03  1.13015E+03
  5.98203E+01 -4.40920E+03 -2.25133E+02 -1.71114E+03  7.70031E+02 -4.86233E+03  3.62430E+03 -3.39260E+02
 -3.69079E+03  5.40501E+03 -9.19548E+02 -2.16889E+02 -2.67245E+03  2.22068E+02 -1.47426E+03 -4.08263E+03
 -1.05788E+03 -9.08863E+02  1.91808E+03  1.21989E+03 -4.27807E+02  4.78532E+03  2.36169E+03  5.80617E+03
 -3.44699E+03  4.72571E+02 -1.36300E+03  3.50732E+03  4.50528E+02  2.18553E+03 -1.05018E+02 -4.95412E+03
 -1.44617E+02  4.37991E+01  5.29149E+02 -2.73279E+03  2.07094E+03  2.49544E+03 -3.47047E+03 -1.71176E+03
 -4.66741E+03  9.59122E+01 -5.85332E+03  8.61401E+02  2.56960E+03 -6.30778E+03  1.03054E+04  1.33754E+03
 -5.10792E+03 -2.79385E+03  1.73209E+03 -2.46904E+01  2.16392E+03 -1.00677E+03  3.85880E+02  3.11783E+03
 -1.24165E+03  1.83838E+02 -2.43950E+03  9.24808E+02 -8.97867E+02 -1.70632E+03  1.58134E+03  6.99922E+02
  5.39756E+03  7.52898E+02 -1.37583E+03  6.05680E+02  4.08707E+03  4.62734E+03 -1.27796E+03  3.65068E+03
 -4.86603E+03 -2.93032E+03 -1.40821E+03 -3.37682E+02 -3.01048E+03 -6.60367E+02 -3.92675E+02 -8.45764E+02
  2.61936E+03 -3.33277E+03 -2.09264E+03  5.33111E+03 -3.25918E+03  3.59263E+03  2.77956E+03  2.44157E+02
 -4.84485E+02  1.98493E+03  4.24870E+03  1.82043E+03 -2.39683E+02  6.72097E+03  4.71849E+03  1.55617E+02
  2.78121E+02  2.74412E+03 -6.76406E+03 -4.12519E+03 -1.20767E+03  2.22738E+03 -5.47334E+03 -4.27448E+03
 -1.40563E+03 -1.86033E+03 -3.54269E+03 -6.37896E+03  1.71074E+03 -4.37969E+03  1.98621E+03 -3.00557E+02
  7.66106E+02  2.08407E+03  3.28268E+03 -3.56878E+02 -1.37802E+02 -3.62331E+02  6.09481E+02  2.02879E+03
  1.69026E+03  2.94457E+03 -2.38872E+03  8.85434E+02  6.36777E+03  1.42949E+03 -1.77416E+03 -1.51722E+03
  2.70766E+03 -4.21622E+03  2.44378E+02 -1.55898E+03 -5.05761E+02  7.59212E+02 -1.34319E+03 -4.05827E+03
  1.23060E+03 -2.68891E+03  1.05149E+03 -1.54798E+03  2.32997E+03  3.40890E+03 -2.60717E+03  2.88418E+03
  2.26248E+03  3.19192E+03 -4.51395E+03 -1.42475E+03 -3.94272E+03 -2.28067E+03 -5.93248E+03 -6.78170E+03
  1.02677E+03 -3.34950E+03 -6.27245E+03  1.28530E+03  1.12091E+03 -3.50989E+03  9.89134E+02 -1.81326E+03
  1.22752E+03 -3.37942E+03  3.97566E+03  5.70803E+03 -2.09849E+03 -2.47096E+03 -3.38297E+02 -1.67016E+03
  3.49951E+03 -1.72177E+03  2.34310E+03  1.25709E+03 -1.25309E+02  1.78599E+03  2.29292E+03 -8.28853E+02
 -3.76774E+03  4.30746E+02 -2.40928E+03  1.01882E+03 -2.21740E+03  7.61432E+01  3.54710E+02 -2.86140E+03
  1.36750E+03  1.46500E+03  1.68468E+03  3.72415E+03  1.10424E+03  1.43350E+03  3.17013E+03  1.63973E+03
 -2.73955E+03  1.61634E+03  7.02527E+02 -1.19701E+03 -4.53182E+03  2.20188E+03  9.85239E+02  5.46910E+03
 -2.69655E+03  2.11426E+03 -2.32534E+03 -2.95140E+03 -1.69904E+03 -4.10344E+02 -3.31821E+03 -2.13395E+02
  1.02441E+03  1.09592E+03  1.90021E+03 -5.09906E+02 -1.42731E+03 -8.23347E+03  1.90369E+03 -2.93642E+02
  5.20635E+03 -2.74379E+03 -1.65214E+03 -2.64662E+03  5.75899E+02  2.15771E+03  1.07456E+03  2.79739E+03
