 $NMID ID='MM_0lb_SNR50_16hz_g50_81.RAW', FMTDAT='(8E13.5)'
 TRAMP=1., VOLUME=1. $END
  3.06174E+05 -7.58744E+02  3.38866E+05  2.51477E+05  8.70828E+04  3.40244E+05 -1.32088E+05  2.50947E+05
 -1.90564E+05  8.42707E+04 -1.11243E+05 -3.38391E+04  2.18756E+03 -4.88047E+04  5.55162E+04  2.21310E+03
  3.41416E+04  5.43516E+04 -1.91148E+04  7.55879E+04 -5.90525E+04  6.55433E+04 -8.57266E+04  3.08526E+04
 -8.03235E+04 -1.14952E+04 -5.34315E+04 -4.82828E+04 -1.66808E+04 -7.03147E+04  3.06243E+04 -4.11491E+04
  3.94679E+04  8.85190E+02  1.70225E+04  4.97202E+04 -3.55990E+04  4.71235E+04 -6.51677E+04  1.38567E+03
 -5.28597E+04 -5.02865E+04 -1.93779E+03 -7.49182E+04  3.48022E+04 -5.51946E+04  3.88201E+04 -1.46566E+04
  4.00110E+04  1.16183E+04  3.41330E+04  2.94187E+04  1.38714E+04  2.72212E+04 -4.74575E+03  2.32432E+04
 -2.28993E+04  1.52510E+04 -2.16206E+04 -1.12860E+04  6.23314E+03 -3.54421E+03  2.21750E+04  6.86545E+03
  2.95116E+03  3.66895E+04 -3.29080E+04  3.21602E+04 -6.43818E+04  2.55055E+03 -5.17779E+04 -4.47307E+04
 -1.76942E+04 -6.42930E+04  4.12886E+04 -4.34706E+04  5.84448E+04 -1.62260E+03  3.16279E+04  2.94201E+04
 -6.46730E+03  3.05236E+04 -2.99727E+04  1.47000E+04 -2.84205E+04 -6.22750E+03 -2.04197E+04 -9.90667E+03
 -8.29985E+03 -1.34748E+04 -2.16512E+03 -1.70852E+04  6.37827E+03 -2.20706E+04  1.13013E+04 -1.61513E+04
  1.32004E+04  5.96370E+03 -6.02436E+03  1.29547E+04 -1.80954E+04 -3.97154E+03 -1.08789E+04 -2.90543E+04
  2.16252E+04 -4.52738E+04  4.63054E+04 -1.91088E+04  4.61495E+04  2.39660E+04  1.23218E+04  4.45580E+04
 -1.82309E+04  3.20280E+04 -2.52094E+04  9.00722E+02 -2.83717E+03 -2.94818E+04  2.20084E+04 -3.67855E+04
  3.81890E+04 -1.01188E+04  3.11604E+04  2.66366E+04  1.12587E+04  5.07767E+04 -8.74725E+03  4.97063E+04
 -3.12174E+04  3.28764E+04 -3.80473E+04  9.00431E+03 -4.36331E+04 -1.60116E+04 -2.02315E+04 -3.43415E+04
  1.02529E+04 -3.46173E+04  3.24622E+04 -1.99927E+04  2.64552E+04  9.46484E+03  6.13935E+03  1.68330E+04
 -1.31018E+04  1.14592E+04 -1.01858E+04 -9.70479E+03  6.56670E+03 -9.21060E+03  1.62035E+04  5.10217E+03
  1.58989E+04  1.96413E+04 -8.67102E+03  2.45393E+04 -2.13083E+04  7.68763E+03 -2.87545E+04 -8.16700E+03
 -2.05404E+04 -1.93761E+04 -8.12158E+03 -2.21688E+04  4.73582E+03 -1.91218E+04  1.73129E+04 -2.07163E+04
  1.95226E+04 -9.90162E+03  2.82832E+04  7.58834E+03  2.44449E+04  1.35115E+04  6.61499E+03  3.55044E+04
 -1.83035E+04  2.51041E+04 -2.73358E+04  1.18126E+04 -1.67069E+04 -1.03600E+04 -4.50265E+03 -1.36301E+04
  6.70378E+02 -2.15630E+03 -8.72224E+03  8.31801E+03 -1.32304E+04  5.95964E+03 -1.13511E+04 -5.08570E+03
 -1.09502E+04 -1.97548E+04  5.25973E+03 -2.35681E+04  7.22643E+03 -1.75645E+04  1.45457E+04  2.27716E+03
  6.45952E+03  1.06856E+04  3.70048E+02  1.83570E+04 -1.22037E+04  9.98022E+03 -2.03333E+04 -2.56190E+03
 -1.44251E+04 -1.58936E+04 -5.82243E+03 -2.05115E+04  7.04396E+03 -1.60674E+04  1.88567E+04 -6.81285E+03
  1.76033E+04 -1.89679E+03  9.31165E+03  8.83158E+02  4.53898E+03  1.07775E+03  6.11347E+03 -6.46858E+03
  1.80681E+04 -2.89066E+03  2.05256E+04  1.58173E+04  1.13304E+04  2.92792E+04 -5.30346E+03  2.77629E+04
 -1.71042E+04  2.34460E+04 -3.10587E+04  1.41739E+04 -2.78910E+04  1.02781E+03 -2.51271E+04 -1.80526E+04
 -1.09872E+04 -2.54310E+04  1.13142E+04 -2.06145E+04  1.86083E+04 -1.50736E+04  1.99407E+04  3.29966E+03
  8.24041E+03  1.09003E+04 -8.90912E+03  5.06667E+03 -1.89659E+04  3.93068E+02 -1.35754E+04 -1.17042E+04
 -1.72115E+03 -2.14138E+04  6.56909E+03 -1.05684E+04  9.48366E+03 -3.77964E+03  2.35828E+03  6.38530E+03
 -4.60161E+03  3.17310E+03 -3.47110E+03 -3.23757E+03 -1.99944E+03 -1.05240E+04  1.01864E+04 -1.36577E+04
  1.75211E+04 -5.39103E+03  1.56333E+04  4.04017E+03  1.40305E+04  9.35442E+03  7.31747E+03  1.63665E+04
 -4.75142E+03  1.64486E+04 -1.02703E+04  1.23595E+04 -1.72426E+04  1.95694E+03 -1.13254E+04 -5.53495E+03
 -7.24074E+03 -1.33606E+03  9.57715E+02 -1.75683E+03  5.05318E+03  2.14908E+03 -6.22402E+03  5.05504E+03
 -9.30688E+03  1.63429E+03 -1.14355E+04 -8.02607E+03 -5.89686E+03 -1.53436E+04  2.15978E+03 -9.15071E+03
  5.38855E+03 -6.51075E+03  3.09433E+03  6.82895E+02 -8.48978E+02  2.92444E+03 -4.75979E+03  3.63194E+03
 -4.28256E+03 -6.25700E+03 -2.70665E+03 -9.86637E+03  6.16105E+03 -1.12919E+04  1.48908E+04 -5.27763E+03
  9.83341E+03 -9.13983E+01  1.04315E+04  6.52179E+03 -3.42864E+02  1.52700E+04 -9.81530E+03  7.58439E+03
 -3.30427E+03  5.46096E+03 -2.91666E+03 -1.34305E+03  2.57065E+03  2.20515E+02  8.42966E+03  1.76639E+02
  6.15784E+03  2.25146E+03  1.34398E+03  8.27367E+03 -6.73552E+03  3.07370E+03 -9.76098E+03 -1.10899E+02
 -6.97010E+03 -6.25094E+03 -2.66008E+03 -6.09953E+03  3.33338E+03 -4.72774E+03  5.78110E+03  3.85442E+03
  2.17658E+03  9.39762E+03 -6.30319E+03  2.56649E+03 -5.95075E+03  4.28620E+03 -3.84960E+03 -2.72511E+03
 -1.74962E+03 -8.95627E+03  2.27431E+03 -4.44972E+03  7.80865E+03 -6.68056E+03  1.17891E+04 -1.03462E+03
  9.60670E+03  1.06476E+04  3.08152E+02  8.52663E+03 -5.11621E+03  1.68990E+03 -7.76030E+03 -1.04312E+03
 -5.66746E+03 -1.75273E+03 -4.41948E+03 -2.34855E+03  2.03478E+03 -2.74869E+03  2.15404E+03 -4.34602E+03
  3.45508E+03 -2.88655E+03  2.55726E+02  1.38321E+03  7.54254E+02 -3.48470E+03  1.58601E+03  3.75146E+02
  7.69968E+03  7.21212E+01  6.97272E+03 -1.80205E+03  4.78800E+03  4.44977E+03  8.25006E+03  8.51256E+03
 -3.94583E+03  8.95796E+03 -9.53508E+03  1.32203E+04 -9.75265E+03 -7.85631E+02 -7.05654E+03 -2.54282E+03
 -4.35542E+03 -8.41511E+03 -1.01061E+01 -6.95663E+03  3.12205E+03 -4.47633E+03  4.97675E+02 -3.22931E+03
 -1.22109E+03 -1.69365E+03  8.27747E+02  2.13993E+02  6.62474E+03  2.22837E+01  6.68883E+03 -3.92781E+03
  3.85525E+03  2.21902E+03  2.69100E+03  7.33871E+03 -1.21717E+03  3.53082E+03 -6.22654E+03  3.87307E+03
 -5.32355E+03 -1.25321E+03 -4.94957E+03 -7.91259E+03  2.28349E+03 -7.09361E+03  1.14542E+03 -5.46178E+03
  8.33123E+03 -5.35295E+02  1.34305E+04 -2.05837E+03  1.19852E+04  6.92591E+03  3.83197E+03  7.04601E+03
 -1.78558E+02  5.57774E+03 -8.50692E+03  1.39256E+03 -6.60202E+02 -2.20742E+03  4.31488E+02 -3.60269E+03
 -3.23338E+03  2.06736E+03 -4.15089E+01  3.54400E+03 -2.87886E+03  4.74425E+03 -3.50429E+03  4.45786E+03
 -1.45713E+03 -5.25038E+03 -8.58630E+02 -4.49498E+03  2.92898E+03 -6.12572E+03  6.17688E+03  1.55740E+02
  2.32529E+03  1.83676E+03  6.32195E+03  5.56276E+03  1.00683E+03  1.99447E+03 -6.35971E+03  3.55733E+03
 -5.86099E+03 -3.53762E+03 -5.28274E+03 -5.73618E+02 -2.09727E+03 -4.77280E+03  3.81173E+03 -6.40522E+03
  2.56840E+03 -5.32156E+03 -1.15904E+03  3.16807E+03  2.14300E+03 -9.30127E+02  1.39697E+03 -1.09066E+03
  1.15896E+03  4.93561E+01  1.54896E+03  1.54413E+03  4.26288E+03  2.52316E+02 -1.37194E+03  3.76692E+01
  1.22717E+03  9.53869E+02 -1.60142E+03  6.36423E+03 -4.39547E+03  6.54063E+03 -4.76337E+03 -4.20566E+03
 -1.69484E+03 -4.86539E+03  1.35814E+03 -7.63713E+03  4.42929E+03 -9.51575E+03  3.76384E+03  3.49644E+03
  4.63009E+03  4.03418E+03  4.18046E+03  2.56873E+03  4.78112E+02  1.51712E+03 -1.16941E+02  2.04690E+03
 -1.60623E+03 -3.34582E+02  4.79783E+03 -1.32199E+03  5.96773E+03 -2.99061E+03  9.14426E+02  5.49113E+03
 -1.88651E+03  1.05785E+03  2.45211E+03 -9.05385E+01 -1.01305E+03  1.72609E+03  2.22713E+03 -1.74797E+03
  1.64468E+03 -3.17908E+03  3.12347E+03 -1.20329E+03  2.72595E+03  5.22744E+03 -6.89583E+03  1.45012E+03
 -4.58987E+03  3.61267E+03 -3.19369E+03  1.58812E+02 -2.37807E+03 -2.26003E+03 -2.14859E+03  1.44732E+03
 -1.12636E+03 -1.99538E+03  9.71296E+02 -1.46902E+03  5.36765E+03  2.99241E+02 -3.67148E+03  6.53469E+03
 -3.88712E+03 -2.09726E+03 -2.31574E+03 -1.97278E+03 -5.15853E+03 -4.80632E+01  2.18386E+03 -4.24882E+03
 -9.13718E+01 -4.08623E+03  4.04980E+03 -1.27747E+03 -1.17464E+03  8.39012E+02 -1.93318E+03  4.03890E+03
 -2.33641E+03  2.22178E+03  8.81359E+02  1.82528E+03  4.96731E+03 -4.09196E+03  1.13699E+03  3.32564E+03
  4.97711E+03  2.37261E+03  5.83859E+03  1.48189E+03  3.02054E+03 -2.71268E+02  1.28009E+03  7.91364E+03
 -4.21475E+03  3.53760E+03 -1.09048E+03 -6.99452E+01 -3.88353E+02 -3.74782E+03  2.31707E+03  1.01522E+03
 -2.23145E+03  2.23313E+03 -9.07117E+02  2.97928E+03  3.69203E+01  1.75579E+03  1.81201E+03  2.59091E+03
 -3.95530E+03  5.21383E+03 -1.94236E+03 -4.19424E+03 -6.90432E+02 -1.11684E+03  3.81371E+01  1.20566E+03
 -2.69217E+03  4.22617E+03 -3.42626E+03 -1.61179E+03 -1.90560E+03 -3.63395E+03 -6.91410E+03 -5.60533E+03
  1.94854E+03 -1.22100E+03 -1.24617E+03 -1.09520E+03  3.62126E+03 -2.98766E+03  2.15075E+03  5.72422E+02
  1.74633E+03  1.03400E+03  3.49472E+03  4.83688E+03 -4.97345E+01  4.61825E+02  3.10182E+03  7.25724E+03
 -4.71296E+03 -5.30544E+02  1.69214E+03  1.91088E+03 -1.18016E+03  4.32207E+03 -2.64394E+03  5.73421E+03
  3.04072E+03 -4.03766E+03  6.49237E+02  2.23857E+03  6.31453E+02  1.31385E+03 -3.04156E+03 -3.15320E+03
 -9.03096E+02  6.64165E+02  1.60457E+03 -7.20660E+02  2.84737E+03  6.98170E+03  3.69975E+02  7.15399E+02
 -8.61351E+02 -9.24476E+02 -2.86184E+03  4.78759E+03 -6.19102E+03  4.04006E+02 -2.19466E+03 -4.32839E+03
 -1.12607E+03 -6.96743E+02 -1.10582E+03 -4.54704E+03 -9.42610E+02 -3.90024E+03  2.86632E+03  2.75739E+03
 -6.95499E+02  8.18492E+02  6.86611E+01 -1.67186E+03  2.67472E+03  6.97195E+01 -3.20718E+03 -1.51789E+03
  4.07491E+02  1.55437E+03 -2.69421E+03  3.03410E+01  6.12639E+02  4.63789E+03  1.92564E+03  6.96541E+02
 -6.80956E+02  3.95847E+03 -2.18746E+03  1.70061E+03 -2.65405E+02 -1.52078E+03 -3.71100E+03  4.23626E+02
 -3.79074E+03 -3.43841E+03  1.99797E+02  3.47207E+03  2.20273E+03  5.78013E+02  1.22366E+03  1.50823E+03
  3.10021E+03 -1.77785E+03 -8.36202E+02 -3.75344E+03 -2.22182E+03  5.72584E+03  1.23689E+03 -9.16934E+02
 -1.49651E+03  2.87723E+03 -1.93746E+03  3.15278E+03  4.37453E+02 -1.19253E+03 -2.97570E+02 -2.23289E+03
  2.47420E+03  3.04643E+02 -5.72551E+03 -2.09609E+03 -2.68318E+03 -1.52862E+03  1.50103E+03  6.05091E+02
  6.92336E+02  6.87219E+02 -3.47060E+03 -4.10572E+03  3.90388E+03 -1.60815E+03  2.73193E+03  8.16770E+02
