 $NMID ID='MM_0lb_SNR50_10hz_g55_64.RAW', FMTDAT='(8E13.5)'
 TRAMP=1., VOLUME=1. $END
  3.10034E+05 -9.99701E+02  3.37782E+05  2.53938E+05  8.19853E+04  3.39369E+05 -1.32837E+05  2.52233E+05
 -1.89394E+05  8.24849E+04 -1.13041E+05 -3.59250E+04 -3.96228E+03 -5.44049E+04  5.76429E+04  1.71311E+03
  3.76539E+04  5.54906E+04 -1.33256E+04  7.49154E+04 -5.96410E+04  6.13400E+04 -8.06611E+04  2.91932E+04
 -8.56071E+04 -1.78061E+04 -5.87244E+04 -4.69929E+04 -1.82080E+04 -6.65957E+04  3.08551E+04 -4.87794E+04
  4.21078E+04  8.54815E+03  2.05603E+04  4.52837E+04 -3.78309E+04  4.67954E+04 -6.85296E+04  1.25997E+03
 -5.07641E+04 -5.68284E+04  1.74788E+03 -8.26469E+04  3.73700E+04 -6.15377E+04  5.45099E+04 -1.37277E+04
  3.49583E+04  5.59404E+03  3.26680E+04  2.84759E+04  1.45275E+04  3.18080E+04 -2.93946E+03  3.06639E+04
 -2.49095E+04  1.11524E+04 -2.74577E+04 -2.32435E+03  1.23212E+04 -8.55224E+03  2.46405E+04  1.30507E+04
 -1.46787E+02  3.48096E+04 -3.30715E+04  3.45886E+04 -6.43681E+04  1.59427E+03 -6.16503E+04 -4.31959E+04
 -1.75424E+04 -6.38208E+04  4.34850E+04 -4.12220E+04  5.42173E+04  9.54888E+02  3.78293E+04  2.94605E+04
 -2.03058E+01  3.94949E+04 -2.34677E+04  1.36862E+04 -3.45757E+04 -4.66228E+03 -1.95414E+04 -7.78125E+03
 -1.36013E+04 -2.40677E+04  2.74872E+03 -1.80941E+04  1.13274E+04 -2.28703E+04  1.43330E+04 -9.06352E+03
  1.26190E+04  4.74903E+03 -9.73003E+03  1.81534E+04 -2.24321E+04 -6.47538E+03 -8.33701E+03 -4.18962E+04
  2.30257E+04 -4.80128E+04  5.20272E+04 -2.33075E+04  4.79128E+04  1.45205E+04  2.17011E+04  4.56451E+04
 -2.07984E+04  3.77505E+04 -3.19049E+04  7.88382E+02 -1.70538E+04 -2.86452E+04  1.73849E+04 -4.03835E+04
  4.85613E+04 -1.44937E+04  3.73131E+04  2.61892E+04  2.36417E+04  4.63133E+04 -9.39127E+03  5.78615E+04
 -2.96970E+04  3.60886E+04 -4.83871E+04  9.89532E+03 -4.41950E+04 -2.19970E+04 -2.12568E+04 -4.53829E+04
  8.16189E+03 -4.12924E+04  3.34278E+04 -1.87577E+04  3.42461E+04  1.47588E+04  9.34622E+03  2.02925E+04
 -1.75088E+04  1.37265E+04 -1.10234E+04 -5.08359E+03  3.28111E+03 -9.95018E+03  1.54862E+04  5.86014E+03
  1.43846E+04  2.40424E+04 -7.04909E+03  2.59902E+04 -2.47409E+04  1.89229E+04 -2.93861E+04 -3.05896E+03
 -3.06790E+04 -1.90009E+04 -6.81736E+03 -1.99513E+04  1.61352E+03 -2.03968E+04  1.45259E+04 -1.88659E+04
  3.28482E+04 -1.18483E+04  3.32095E+04  3.49367E+03  2.83646E+04  2.46396E+04 -5.96892E+02  4.35010E+04
 -2.31574E+04  3.12471E+04 -3.22955E+04  1.03744E+04 -2.17115E+04 -1.26821E+04 -2.61188E+03 -1.14735E+04
  2.56500E+03 -2.71680E+03 -3.95646E+03  6.61257E+03 -1.67027E+04  7.56558E+03 -2.17551E+04 -6.77775E+03
 -1.40167E+04 -2.24992E+04  8.69268E+03 -2.58985E+04  1.61508E+04 -1.83317E+04  2.98185E+04 -5.39280E+02
  9.42514E+03  1.79245E+04  1.71527E+03  2.09241E+04 -1.35445E+04  1.71971E+04 -1.75162E+04 -6.26893E+03
 -1.64321E+04 -2.58164E+04 -3.41144E+03 -2.94921E+04  1.39697E+04 -2.54648E+04  1.88122E+04 -1.06630E+04
  2.48363E+04 -2.39874E+03  1.73705E+04  2.98021E+03  1.25599E+04  6.63464E+03  8.20058E+03  1.65146E+03
  2.13857E+04  1.78996E+03  2.80113E+04  1.67382E+04  1.96995E+04  3.48629E+04 -1.25253E+03  4.14520E+04
 -2.88594E+04  3.47267E+04 -3.82795E+04  1.71091E+04 -4.40370E+04 -2.86498E+03 -3.96860E+04 -2.57116E+04
 -1.24184E+04 -3.97054E+04  8.15981E+03 -2.53635E+04  3.39488E+04 -1.36038E+04  2.44415E+04  8.02528E+02
  8.29534E+03  2.09771E+04 -7.01979E+03  1.58635E+04 -2.16237E+04  2.62525E+03 -1.71328E+04 -1.01879E+04
  1.33149E+03 -2.24153E+04  1.16594E+04 -9.71974E+03  1.24218E+04  4.89431E+03 -2.70040E+03  1.21113E+04
 -2.03640E+04  5.15704E+03 -1.09479E+04 -6.50653E+03  2.12691E+03 -2.21124E+04  1.38587E+04 -1.54459E+04
  2.44894E+04 -1.02759E+04  2.13288E+04 -6.66638E+02  2.74487E+04  1.99000E+04  1.16217E+04  3.52053E+04
 -1.61006E+03  3.05833E+04 -2.05427E+04  2.78753E+04 -2.15425E+04  5.87448E+03 -1.67964E+04 -8.20065E+03
 -2.35168E+02 -2.95842E+03  1.23713E+03  5.49229E+03  7.71042E+02 -3.49690E+03 -5.23582E+03  5.48882E+03
 -1.27509E+04 -1.58907E+03 -1.72713E+04 -2.97891E+03 -7.77944E+03 -2.04377E+04  2.29448E+01 -1.07642E+04
  1.53263E+04 -4.21612E+03  1.34503E+04  3.79803E+02 -1.95733E+03  9.11723E+03 -8.09505E+03  5.40960E+02
 -8.13545E+03 -1.46266E+04  2.08064E+03 -1.60728E+04  1.17786E+04 -2.07117E+04  2.26669E+04 -7.87021E+03
  2.05254E+04  1.04447E+04  1.39773E+04  1.16021E+04  6.94672E+03  1.85297E+04 -6.41413E+03  1.47572E+04
 -5.36813E+03  1.11719E+04 -1.40817E+04 -5.20492E+02  8.06438E+03 -1.24182E+04  5.65065E+03 -5.52534E+03
  6.36440E+03  1.23408E+04 -3.36632E+02  1.45019E+04 -6.44782E+03  1.39026E+04 -1.59053E+04  3.18959E+03
 -1.41923E+04 -4.39619E+03 -1.69100E+03 -1.42393E+04  7.77887E+03 -4.44949E+03  2.34252E+03 -1.51912E+03
  1.96245E+03  6.78371E+03 -3.59724E+03  1.20992E+04 -1.79569E+04  9.19498E+03 -1.20047E+04 -1.76050E+03
 -9.37854E+03 -1.15164E+04  4.11901E+03 -2.11270E+04  1.27052E+04 -1.43070E+04  1.41717E+04  5.31228E+03
  1.10335E+04  1.27162E+04 -5.81835E+03  1.21326E+04 -1.44134E+04  7.27368E+03 -1.01335E+04 -2.18505E+03
 -1.69175E+04 -1.09366E+04 -3.98322E+03 -1.44664E+04  5.16891E+02 -8.82516E+03  4.73135E+03 -7.05160E+03
  7.15734E+03  1.93133E+03 -4.65517E+03  2.53455E+03  2.12372E+02 -4.92594E+03  4.47518E+03 -8.33131E+03
  1.10019E+04  4.03754E+03  6.57780E+03  8.76233E+03  1.45321E+04  7.34409E+03  1.06963E+04  1.57742E+04
 -4.65974E+03  2.11263E+04 -1.88576E+04  1.96049E+04 -1.84106E+04  2.72766E+03 -1.82350E+04 -1.65364E+04
 -5.35172E+03 -1.65268E+04  1.08840E+03 -1.67292E+04  5.04605E+03 -7.40283E+03  7.81541E+03 -3.73432E+03
 -3.56246E+02 -1.26189E+03  7.06905E+03  2.04536E+02  4.73112E+03 -3.62983E+03  7.21298E+03  3.85575E+03
  8.05413E+03  5.22002E+03  8.01579E+03  1.13986E+04 -1.71937E+03  9.92697E+03 -9.74376E+03  1.25930E+04
 -1.76025E+04  2.09386E+03 -9.91267E+03 -4.33748E+03 -3.95761E+03 -1.60099E+04  1.51031E+04 -1.12986E+04
  2.23211E+04 -1.28809E+04  1.80574E+04 -5.86252E+02  1.32943E+04  1.09498E+04 -1.34988E+03  1.78205E+04
 -7.50270E+03  1.41582E+04 -8.52508E+03  5.46306E+03 -3.16618E+03 -6.82192E+01 -2.61908E+03  2.59227E+03
 -4.23527E+03  4.72435E+03 -4.04998E+03 -2.77906E+03 -9.12550E+03  9.30676E+03 -1.20388E+04  9.86705E+02
 -8.95481E+03 -1.39753E+04  5.24350E+03 -1.13150E+04  7.79608E+03 -1.15521E+04  1.34794E+04  8.90846E+02
  1.39568E+04  9.51199E+03  3.99279E+03  1.62228E+04 -5.66402E+02  1.71639E+04 -1.07394E+04  7.22551E+03
 -1.74518E+04  4.95164E+03 -5.63876E+03 -7.27561E+03  6.13888E+03 -1.58520E+04  6.11109E+03 -6.80446E+03
  7.41830E+03 -6.94411E+03  4.11477E+03 -1.27668E+03  2.13414E+03  6.46788E+03 -2.27512E+03  3.95655E+03
 -8.97558E+02  4.41051E+02  2.18670E+03 -2.95737E+03  5.84389E+03  8.55785E+03 -1.18917E+03  9.77008E+03
  9.19161E+02  7.95545E+03 -7.88421E+03  4.10968E+03 -1.58365E+04  3.95589E+03 -2.18285E+04 -9.17957E+03
 -1.01480E+04 -1.86441E+04  7.76026E+02 -1.64487E+04  1.45883E+04 -9.23458E+03  1.14869E+04 -2.96177E+03
  8.62414E+03 -1.02129E+03 -1.81564E+02  9.19650E+03 -5.34642E+03 -4.43449E+02 -9.56019E+03  4.36673E+03
 -6.41694E+03 -3.49861E+03  7.40181E+03 -8.54448E+03  3.40865E+03 -5.84852E+03  8.29245E+03  1.54015E+03
  2.69803E+03  2.69437E+03  4.58009E+03  9.62130E+03  2.60485E+03  5.24628E+03  3.00035E+03  6.76251E+02
  5.93267E+03 -2.03505E+03  8.60566E+01  3.18092E+03 -1.44299E+03  1.06668E+04 -5.52682E+03  4.22191E+03
 -3.22095E+03  1.73120E+03 -5.27891E+03  2.72886E+03 -5.98525E+03 -4.40939E+03  5.21740E+00 -1.29140E+04
  8.81142E+02 -1.46857E+02  8.19850E+03 -8.78907E+03  9.20535E+02  1.76980E+03 -3.38880E+03  4.77587E+03
 -8.37668E+03  3.20998E+03 -1.06864E+04  5.18367E+02 -5.70677E+03 -7.21012E+03 -7.11043E+02 -2.75505E+03
  1.13990E+04 -4.46125E+03  1.18088E+04  2.72017E+03  3.00689E+03  5.47945E+02 -2.73840E+03  6.58535E+03
 -8.77667E+02  1.68168E+03 -4.59621E+03 -2.62917E+03  1.84473E+03 -5.72133E+03  6.11875E+03 -6.26589E+03
  8.87783E+03 -6.25410E+02  9.05737E+03  1.07894E+03  3.80807E+03  8.36423E+03 -5.70266E+03  1.07646E+04
 -2.39384E+03 -6.38269E+02 -1.15956E+04  1.06388E+03 -7.55666E+03 -6.24325E+03  2.67669E+03 -7.22025E+03
  8.55692E+03  1.70528E+03  5.50423E+03  4.49329E+03  5.16045E+02  2.02276E+03  1.52307E+03  1.91935E+03
 -1.84202E+03 -3.83888E+03 -2.35599E+03  1.90478E+03 -3.82770E+03  1.00847E+03  1.92066E+03  5.59431E+03
 -3.34650E+03  7.24125E+03 -8.26219E+03 -1.55848E+03 -5.38931E+03  6.98514E+03 -8.72459E+03 -5.68559E+03
 -9.09618E+03 -1.16455E+04 -3.78099E+03 -1.68657E+04  3.86109E+03 -8.11658E+03  1.38434E+04 -5.76942E+03
  1.30769E+04  2.80518E+03  1.18362E+04  5.80756E+03 -3.95252E+03  1.07687E+04 -1.60985E+03  8.04954E+03
  1.33255E+03  2.19117E+03 -1.98532E+03 -1.81946E+03 -8.12284E+03  7.47776E+03 -3.37999E+02 -2.38278E+02
 -1.41391E+03 -4.35117E+03 -6.48994E+03  6.50293E+02  7.18616E+02 -5.41990E+03 -3.28776E+03 -7.34004E+03
 -3.90323E+03 -5.71694E+03  7.53488E+03 -5.44415E+03  8.87180E+03  5.66707E+03  7.15000E+02  3.53504E+03
 -1.07543E+03  6.99361E+03 -7.65704E+03  9.45150E+03 -9.30500E+03 -2.00722E+03 -9.35685E+03 -5.56640E+03
 -4.16610E+03 -3.85844E+03  3.76209E+03 -8.23127E+03  1.01118E+04 -5.35892E+03  6.14221E+03 -6.71881E+03
  7.53108E+02  3.77114E+03 -3.73129E+03  8.49001E+02  7.46701E+03  4.21063E+02 -6.59427E+02 -1.59921E+03
  8.83099E+02  2.96425E+01  7.90992E+03  2.52082E+03  8.96345E+02 -2.63154E+02  5.59170E+03  4.19757E+03
  2.38695E+02  1.11860E+03 -3.88670E+03  1.49839E+03 -7.58071E+03  2.66304E+03 -7.86893E+02 -2.42409E+03
  3.51965E+03 -9.84734E+03  5.33642E+03  8.91635E+02  8.86741E+03  3.79594E+03  1.98672E+03  7.80839E+03
 -6.44146E+03  3.71010E+03 -2.88613E+03  3.88747E+03 -8.95025E+03  2.97117E+03 -6.94149E+03 -9.78154E+02
 -4.23418E+03 -1.34525E+03 -3.97266E+03  2.04722E+03 -2.30584E+03  7.91240E+03 -3.80319E+03  3.02488E+03
 -3.71525E+03 -8.26192E+03  1.03676E+03 -8.04041E+03  2.35152E+03 -6.39084E+03  7.55052E+03  1.49810E+03
  3.00371E+03 -1.19373E+03  9.88417E+03  7.39811E+03  2.29998E+03  1.07943E+04  4.70729E+02 -3.69730E+01
