 $NMID ID='MM_0lb_SNR50_11hz_g50_77.RAW', FMTDAT='(8E13.5)'
 TRAMP=1., VOLUME=1. $END
  3.09333E+05  3.78097E+02  3.36786E+05  2.50929E+05  8.36646E+04  3.38852E+05 -1.31375E+05  2.51130E+05
 -1.90410E+05  8.02915E+04 -1.09502E+05 -2.91451E+04  4.49831E+03 -5.57557E+04  5.58152E+04 -1.28532E+03
  3.32972E+04  5.42482E+04 -1.47971E+04  8.18190E+04 -6.04359E+04  6.64424E+04 -8.44772E+04  2.92492E+04
 -8.26293E+04 -1.05518E+04 -5.62309E+04 -5.53673E+04 -1.54499E+04 -6.87011E+04  3.16770E+04 -4.81512E+04
  3.92436E+04  5.56803E+03  1.51884E+04  5.29567E+04 -3.72667E+04  5.36739E+04 -6.96131E+04  6.26005E+02
 -5.22363E+04 -5.85604E+04 -8.53795E+03 -7.80335E+04  3.39447E+04 -5.92751E+04  4.52391E+04 -1.21008E+04
  4.05204E+04  1.09730E+04  3.48550E+04  2.83414E+04  1.73492E+04  2.56503E+04 -3.67517E+03  2.79054E+04
 -2.25849E+04  1.16318E+04 -1.34139E+04 -6.14631E+03  6.00401E+03 -1.01211E+04  2.04648E+04  1.02553E+04
  1.10113E+04  3.69473E+04 -3.07514E+04  3.53438E+04 -5.83690E+04 -3.06830E+03 -6.01090E+04 -4.50472E+04
 -1.66303E+04 -6.19108E+04  3.75010E+04 -4.64101E+04  5.83623E+04 -7.11122E+03  3.77366E+04  3.28491E+04
 -1.23795E+04  3.98175E+04 -2.82020E+04  2.15084E+04 -3.41538E+04 -3.51258E+03 -1.87439E+04 -1.15357E+04
 -1.38548E+04 -1.41614E+04  2.53286E+03 -1.92599E+04  1.18237E+04 -2.79545E+04  1.38623E+04 -8.72959E+03
  9.84376E+03  6.98172E+03 -1.04146E+04  1.45911E+04 -2.18770E+04 -3.46139E+03 -8.76043E+03 -3.14190E+04
  2.16091E+04 -4.62026E+04  5.61270E+04 -2.52537E+04  4.73639E+04  2.07488E+04  1.77725E+04  4.56898E+04
 -1.46985E+04  3.54769E+04 -3.45495E+04  5.99351E+03 -1.37422E+04 -3.18752E+04  2.17287E+04 -3.61468E+04
  4.22350E+04 -1.27716E+04  3.68558E+04  2.64857E+04  1.99388E+04  5.23379E+04 -9.07636E+03  5.57385E+04
 -3.96856E+04  3.74891E+04 -4.46278E+04  1.04432E+04 -5.02021E+04 -2.23156E+04 -2.63803E+04 -4.10455E+04
  6.29525E+03 -4.57391E+04  3.15533E+04 -1.47843E+04  2.88527E+04  1.11923E+04  2.04551E+03  2.22195E+04
 -2.27025E+04  2.87581E+03 -1.82361E+04 -3.95843E+03  9.84718E+03 -9.29071E+03  1.67895E+04  8.67211E+02
  1.07694E+04  1.90493E+04 -4.67539E+03  2.64445E+04 -2.51142E+04  1.21067E+04 -2.67416E+04 -5.23900E+03
 -2.15755E+04 -1.63917E+04 -1.20351E+04 -2.23045E+04  5.15443E+02 -2.53302E+04  2.57289E+04 -1.67763E+04
  2.35258E+04 -1.63798E+04  3.73715E+04  3.41635E+03  2.21735E+04  2.19854E+04 -1.41727E+03  4.32511E+04
 -1.97650E+04  2.91836E+04 -2.99687E+04  1.49155E+04 -2.08840E+04 -9.46184E+03 -5.84263E+03 -7.89030E+03
  1.41103E+03 -4.92451E+03 -1.17971E+04  9.14405E+03 -1.87694E+04  6.22113E+03 -1.79258E+04 -6.49066E+03
 -1.02420E+04 -2.09774E+04  5.42855E+03 -2.52051E+04  1.40958E+04 -2.27083E+04  2.02852E+04 -9.66100E+02
  1.57898E+04  1.95078E+04 -3.66348E+03  1.98694E+04 -1.82766E+04  1.54046E+04 -2.07252E+04 -4.59350E+03
 -2.04476E+04 -2.32426E+04 -1.10481E+03 -2.52374E+04  7.66379E+03 -2.00051E+04  2.41721E+04 -9.85119E+03
  2.09480E+04 -3.89878E+03  1.67827E+04 -2.69822E+02  1.24520E+04 -1.42557E+03  6.07181E+03  1.33241E+02
  2.17562E+04  3.49619E+03  2.85300E+04  1.48804E+04  1.70404E+04  3.85115E+04 -6.99133E+03  4.40610E+04
 -1.63381E+04  3.18639E+04 -3.86975E+04  1.60676E+04 -3.98215E+04 -1.69793E+03 -3.07968E+04 -2.28210E+04
 -1.72996E+04 -3.13823E+04  1.04090E+04 -2.70215E+04  3.04396E+04 -1.52686E+04  2.49173E+04  7.74639E+03
  7.50928E+03  1.49852E+04 -5.27055E+03  8.26932E+03 -1.64735E+04  4.51402E+02 -1.15078E+04 -1.24233E+04
  5.08048E+03 -1.32093E+04  8.65852E+03 -1.23726E+04  1.47306E+04  1.02198E+03  5.33978E+03  5.56257E+03
 -8.81929E+03  1.23429E+03 -1.04660E+04 -1.21876E+04 -4.51152E+03 -1.42641E+04  1.02904E+04 -1.83514E+04
  2.22905E+04 -1.31155E+04  2.46624E+04  2.91772E+03  2.30545E+04  1.78441E+04  1.08717E+04  2.83594E+04
 -4.64316E+03  2.36750E+04 -1.30126E+04  1.87649E+04 -1.59351E+04  1.73767E+03 -1.22221E+04 -4.47418E+03
 -8.01474E+03 -5.17181E+03  4.16261E+03  3.97048E+03  2.27146E+03  2.21758E+03 -7.53010E+03  3.95674E+03
 -1.14438E+04 -8.18821E+02 -1.42673E+04 -8.84544E+03 -3.61872E+03 -1.20570E+04  7.56617E+03 -1.57426E+04
  1.41872E+04 -8.43346E+03  6.67756E+03  2.55180E+03 -3.37254E+03  6.18797E+03 -6.80669E+03 -4.12888E+02
 -6.54116E+03 -5.89467E+03 -2.34660E+02 -1.62832E+04  1.25346E+04 -1.54662E+04  1.67063E+04 -8.62545E+03
  2.38286E+04  7.41792E+03  1.71248E+04  9.07945E+03  4.03778E+03  1.67177E+04 -6.42577E+03  1.90728E+04
 -1.03432E+04  3.65423E+03 -1.60670E+03 -4.16830E+03  1.93190E+03 -5.05714E+03  8.08372E+03 -3.36188E+03
  8.22293E+03  4.48097E+03 -8.25417E+02  8.67698E+03 -1.07754E+04  1.28562E+04 -1.20913E+04  2.77762E+03
 -6.03670E+03 -1.00238E+04 -5.64614E+01 -1.02019E+04  9.07852E+03 -7.52617E+03  1.19442E+04  3.89556E+03
 -1.81477E+03  1.17257E+04 -4.49120E+03  1.04910E+04 -1.30862E+04  4.89631E+03 -1.42256E+04 -5.64953E+02
 -1.33447E+04 -1.21819E+04  8.69581E+03 -1.69128E+04  1.57767E+04 -1.09597E+04  1.38917E+04  1.56693E+03
  1.23298E+04  1.48359E+04 -1.71204E+03  1.75648E+04 -7.97513E+03  8.24643E+03 -3.47397E+03 -7.43721E+02
 -9.43791E+03 -1.24633E+04 -2.76273E+03 -8.95574E+03  2.23321E+03 -4.64203E+02  7.44520E+03 -9.86192E+03
  4.93668E+03 -3.25798E+01  1.22486E+02  2.16691E+03  7.27228E+02  5.85145E+03 -1.78878E+02 -6.22397E+03
  8.35066E+03 -5.87061E+03  1.24232E+04 -2.04899E+03  2.05876E+04  1.03508E+04  1.03513E+04  2.02019E+04
 -2.96059E+03  1.85411E+04 -2.14415E+04  2.00422E+04 -2.18003E+04  5.88999E+03 -1.51177E+04 -5.59739E+03
 -6.57354E+03 -1.30903E+04 -2.63482E+03 -1.20428E+04  1.32630E+03 -4.00762E+03  9.18646E+03 -4.08844E+03
  6.78879E+03 -5.10345E+03  2.90595E+03 -1.12221E+03  2.74056E+03 -2.41301E+03  7.10246E+03 -2.63287E+03
  7.52322E+03  1.69747E+03 -5.12800E+01  9.33877E+03 -5.37206E+02  9.41659E+03 -5.37409E+03  2.61616E+03
 -1.23771E+04  3.04633E+03 -9.08453E+03 -8.12380E+03 -2.70721E+03 -1.25716E+04  1.30169E+04 -1.55036E+04
  1.62973E+04 -1.08989E+04  1.60691E+04  1.27345E+03  9.33592E+03  1.24642E+04  5.36060E+03  1.45347E+04
 -7.36004E+03  1.02559E+04 -9.20574E+03 -1.00671E+03 -2.60626E+03 -1.40222E+03 -1.63655E+03  1.15211E+03
  9.53672E+02  1.51351E+02 -2.31119E+03  1.91602E+03 -8.68624E+03 -5.33335E+03 -1.17917E+04 -4.09093E+03
 -5.71804E+03 -9.44217E+03 -2.83105E+02 -1.14159E+04  9.00100E+03 -1.04401E+04  1.63071E+04  2.18938E+02
  1.05205E+04  6.93712E+03  8.52640E+03  1.25508E+04  3.31684E+03  8.85111E+03 -1.16379E+04  1.08048E+04
 -9.84552E+03 -1.03975E+03 -1.06761E+04 -7.80484E+03 -2.45922E+03 -9.33441E+03  8.79586E+03 -6.75200E+03
  3.78943E+03 -5.55306E+03  1.22237E+03  3.40072E+03  2.38102E+03 -3.64058E+02 -2.56035E+03 -3.55897E+03
  1.17406E+03 -1.64349E+03  2.94450E+03 -2.20359E+02  4.45719E+03  7.95932E+03 -1.20545E+02  3.44507E+03
 -8.16388E+03  1.16084E+04 -1.44639E+04  1.34990E+04 -1.33263E+04  3.90924E+03 -1.54134E+04 -7.47575E+03
 -8.24224E+03 -6.43757E+03  2.69520E+03 -1.50694E+04  8.77173E+03 -7.20916E+03  1.16516E+04 -6.12813E+03
  1.27384E+04  5.23726E+03  5.26081E+03  5.87472E+03 -1.19635E+03 -1.37631E+03 -7.52770E+03 -3.47643E+03
 -5.71690E+03 -1.02044E+04 -1.01431E+03 -6.96330E+03  3.56980E+03 -3.60982E+02  4.28808E+03  1.53367E+03
  3.21795E+03  3.86105E+03  3.93411E+03 -2.54864E+03  4.08123E+03 -2.29220E+03  1.34836E+03 -6.44620E+03
 -5.59140E+03  3.13245E+03  2.58673E+03 -1.02663E+03  5.60849E+03  6.92323E+03  1.13000E+02  3.66399E+03
 -1.84782E+03  1.02570E+04 -5.91377E+03  1.29486E+03 -5.93901E+03 -1.43388E+03  1.15959E+03 -3.96602E+03
  5.67505E+03 -1.06743E+04  1.11725E+03 -5.86080E+03  1.69585E+02  4.39369E+03  1.20440E+03  6.97607E+03
 -3.91548E+02 -2.16603E+00 -2.12811E+03 -4.30438E+03 -3.35300E+03 -1.00142E+04  5.14269E+02 -7.66178E+03
  9.34474E+03 -6.16356E+03  2.76643E+03  1.52839E+03  3.62658E+03 -8.03013E+03  3.61127E+03  3.88619E+03
 -4.24514E+03 -3.22230E+03 -9.55073E+02 -6.38442E+03  7.85471E+02 -3.68832E+03  4.08507E+03 -2.56323E+02
  4.74986E+03 -1.03642E+03  7.22372E+03  4.61064E+03  4.41441E+03  4.57708E+03 -2.45299E+03  1.22099E+04
 -1.16625E+03  1.66891E+02 -6.31528E+03 -2.12344E+03 -2.77470E+03 -7.26760E+03  3.50906E+03 -3.95563E+03
  1.21505E+03 -3.49772E+03  1.99609E+03  7.31722E+02  1.49352E+03  5.42290E+03 -2.20839E+02 -7.42199E+01
 -6.69292E+03  1.98523E+03 -1.44059E+03 -2.27640E+03 -3.65754E+03 -1.41462E+01  5.28388E+03 -1.32332E+02
 -4.31390E+03 -7.60494E+02 -8.40198E+03  1.07497E+04 -4.43565E+03 -2.67219E+02 -1.11490E+04 -1.24980E+03
 -2.78960E+03 -1.56673E+04  4.78798E+02 -1.02412E+04  5.74232E+03 -9.59886E+03  1.18316E+04 -5.07313E+03
  9.03455E+03  3.03316E+03  5.56657E+03  7.25728E+03 -6.22478E+02  9.11345E+03 -4.55262E+03  1.62734E+03
 -6.61392E+02 -3.30141E+03 -1.07056E+03 -1.62878E+03 -3.26161E+03  2.42086E+03 -1.51636E+03 -3.12622E+03
  5.80755E+03 -1.42030E+03  7.46202E-01 -4.47601E+03 -6.28580E+03 -5.13935E+03  2.94285E+03  1.77123E+03
  9.89325E+03 -3.24071E+03  4.40302E+03 -1.59090E+03  8.29457E+03  3.60807E+03 -4.87009E+02  3.61698E+03
 -1.82850E+02  6.07790E+03 -4.91347E+03  2.84767E+03 -6.63643E+03  9.70610E+03 -6.82159E+03 -9.54276E+03
 -1.26527E+01 -1.60509E+04  5.48712E+03 -1.08876E+04  2.12148E+03 -5.77660E+03  2.55939E+03  3.58739E+03
  2.03615E+03  2.17691E+03 -3.16163E+01 -2.01623E+02  1.68465E+03 -4.13904E+03 -3.87379E+02 -1.06875E+03
  1.53272E+03  2.19519E+03  2.90038E+03  5.92696E+03 -1.19430E+02 -4.50326E+03 -2.54465E+03  1.91607E+03
  5.96036E+02  1.10440E+03 -8.18490E+03 -9.96709E+02 -5.44704E+03 -1.22759E+03  1.05522E+03 -8.45450E+03
  1.37872E+04 -2.47487E+03 -4.31174E+02  2.36433E+03  7.90467E+03 -1.80717E+03  3.59048E+03  5.30878E+03
  5.84972E+03  8.57954E+03  6.65773E+02  3.75521E+03 -1.55314E+03  2.65224E+03 -1.84213E+03 -7.56548E+02
  7.74128E+02 -2.33897E+03  2.13899E+03  3.37622E+01 -1.76865E+03 -4.20411E+02 -9.38389E+03  5.21596E+03
 -1.20412E+02  1.32534E+03 -2.68314E+03 -1.41544E+03  5.48099E+03 -4.42123E+03  4.37274E+03 -4.15315E+03
  7.31177E+03  4.96929E+01  6.40167E+03  7.62142E+03  4.40838E+03  5.30969E+03 -3.06624E+03  7.48967E+03
