 $NMID ID='MM_0lb_SNR50_9hz_g50_17.RAW', FMTDAT='(8E13.5)'
 TRAMP=1., VOLUME=1. $END
  3.10473E+05 -1.93341E+03  3.41009E+05  2.45234E+05  8.52079E+04  3.38168E+05 -1.30571E+05  2.55562E+05
 -1.94401E+05  8.24518E+04 -1.12641E+05 -2.98625E+04 -5.34700E+03 -5.09373E+04  5.01782E+04  3.94660E+03
  3.80961E+04  5.36978E+04 -1.72769E+04  7.89884E+04 -7.00897E+04  6.61677E+04 -7.97208E+04  3.07455E+04
 -8.38266E+04 -1.26483E+04 -5.72969E+04 -5.31194E+04 -1.58600E+04 -6.95028E+04  2.91518E+04 -4.59758E+04
  3.90215E+04  8.94055E+03  1.40667E+04  4.72752E+04 -3.67619E+04  4.07061E+04 -6.51447E+04 -7.81623E+03
 -5.04620E+04 -5.65710E+04 -1.02364E+04 -7.72740E+04  3.44507E+04 -5.67717E+04  5.03665E+04 -1.91799E+04
  3.50871E+04  1.04898E+04  3.73811E+04  2.65734E+04  1.61169E+04  2.59520E+04 -3.83298E+03  2.82657E+04
 -2.17267E+04  6.91111E+03 -2.05269E+04 -4.26353E+03  1.22956E+04 -7.17058E+03  2.08289E+04  1.38329E+04
  7.78691E+03  4.42214E+04 -2.97720E+04  4.64266E+04 -6.58461E+04  4.54000E+03 -6.41581E+04 -4.45284E+04
 -8.53884E+03 -6.80067E+04  4.94604E+04 -4.54862E+04  6.20366E+04 -3.36315E+03  3.26076E+04  3.55863E+04
 -8.88684E+03  4.35132E+04 -3.15848E+04  1.97652E+04 -3.55391E+04 -1.00149E+04 -1.70455E+04 -8.18826E+03
 -1.03635E+04 -1.82222E+04  4.24514E+03 -2.01475E+04  1.16671E+04 -2.54220E+04  8.48150E+03 -1.27978E+04
  8.92490E+03  8.54427E+03 -1.35417E+04  1.40046E+04 -2.62475E+04 -4.33834E+03 -7.50145E+03 -4.15728E+04
  2.99994E+04 -4.70190E+04  4.80276E+04 -2.36858E+04  5.11425E+04  1.46204E+04  1.96578E+04  4.19789E+04
 -1.53135E+04  4.07865E+04 -2.91683E+04  6.35634E+03 -9.31014E+03 -3.01936E+04  2.07604E+04 -3.31179E+04
  4.99856E+04 -1.50891E+04  3.82685E+04  2.43545E+04  1.95117E+04  4.98151E+04 -9.36487E+03  5.85376E+04
 -3.66414E+04  3.90482E+04 -4.89829E+04  1.28495E+04 -4.89798E+04 -1.79282E+04 -2.26905E+04 -4.53925E+04
  4.38582E+03 -3.99945E+04  3.39114E+04 -1.98041E+04  3.82930E+04  1.12346E+04  4.59990E+03  2.11644E+04
 -1.57026E+04  1.34366E+04 -9.18208E+03 -9.67916E+03  5.15874E+03 -1.03403E+04  1.69179E+04  1.11497E+04
  1.33397E+04  2.93762E+04 -7.05924E+03  2.24840E+04 -1.99182E+04  1.85344E+04 -2.30065E+04  6.98857E+03
 -2.74281E+04 -1.64881E+04 -9.85517E+03 -2.68045E+04  2.95457E+03 -2.64013E+04  1.81062E+04 -1.79111E+04
  3.52776E+04 -1.72523E+04  3.76186E+04  2.78364E+03  2.71305E+04  2.25236E+04  2.03530E+03  4.36473E+04
 -1.93435E+04  2.96489E+04 -3.36327E+04  9.21280E+03 -2.14378E+04 -8.38577E+03 -7.41065E+03 -8.23740E+03
 -3.77315E+03 -3.30931E+03 -3.22202E+03  6.74611E+03 -2.43792E+04  1.09455E+02 -2.30779E+04 -8.53554E+03
 -1.07440E+04 -2.52485E+04  5.18294E+03 -3.23805E+04  1.83089E+04 -2.03451E+04  2.50835E+04 -4.25181E+01
  1.62281E+04  1.79132E+04  2.84856E+03  2.13249E+04 -1.15127E+04  1.13325E+04 -2.18644E+04 -4.63261E+03
 -1.48772E+04 -2.59748E+04  6.66209E+02 -2.43188E+04  1.42410E+04 -1.93779E+04  2.39529E+04 -5.41271E+03
  2.24156E+04  7.18377E+02  1.40504E+04  1.92130E+03  1.69250E+04  3.15511E+03  8.09079E+03 -3.65559E+03
  2.32684E+04 -2.98909E+02  2.08905E+04  2.10861E+04  1.79655E+04  3.99637E+04 -1.77424E+03  4.79982E+04
 -3.01048E+04  4.19563E+04 -4.12465E+04  2.36794E+04 -4.37117E+04 -4.88035E+03 -3.92236E+04 -3.21741E+04
 -1.41269E+04 -3.47664E+04  1.14671E+04 -3.16960E+04  2.52793E+04 -2.00832E+04  2.23861E+04  1.01419E+04
  4.26866E+03  2.13726E+04 -1.33018E+04  1.57800E+04 -1.87805E+04  5.40800E+03 -2.01880E+04 -7.16677E+03
 -1.94414E+03 -2.21244E+04  1.15572E+04 -2.10521E+04  1.03108E+04  5.61624E+03  1.94034E+03  1.60028E+04
 -3.84759E+03  9.41435E+03 -1.05012E+04 -2.83313E+03 -7.09670E+02 -2.08978E+04  9.04417E+03 -2.22242E+04
  1.68023E+04 -9.92730E+03  2.57929E+04 -1.00667E+03  2.27439E+04  1.91480E+04  1.70073E+04  3.66333E+04
 -2.22654E+03  2.99733E+04 -2.22136E+04  1.86789E+04 -2.13996E+04  3.75975E+03 -1.32605E+04 -8.51198E+03
  1.14156E+03 -1.61163E+04 -4.09259E+03 -5.34980E+03 -6.84005E+03  6.10776E+03 -6.93383E+03  6.25307E+03
 -1.22967E+04 -2.32000E+03 -1.36885E+04 -1.35175E+04 -5.01762E+03 -2.17128E+04  1.10247E+04 -2.00722E+04
  1.09880E+04 -6.71825E+03  1.00972E+04  8.54801E+03  3.86296E+02  2.75313E+03 -9.46497E+03  2.51019E+02
 -7.07471E+03 -1.52743E+04  1.46702E+03 -1.27011E+04  5.81586E+03 -1.27046E+04  2.16168E+04 -1.22223E+04
  2.57352E+04  1.30362E+03  1.89302E+04  1.88264E+04  3.01357E+02  2.16490E+04 -7.88919E+03  1.82130E+04
 -1.07597E+04  1.26511E+04 -6.73320E+03 -8.44041E+03  1.04355E+03 -3.85258E+03  2.04257E+03 -9.80723E+02
  5.94134E+03  7.77954E+03  2.40358E+03  1.15375E+04 -1.25906E+04  1.18841E+04 -1.13941E+04  8.38042E+03
 -5.36523E+03 -7.74426E+03 -6.58002E+03 -1.79378E+04  1.15830E+04 -1.32104E+04  9.05176E+03  6.64853E+03
  1.98735E+03  1.06557E+04 -7.22290E+03  1.65911E+04 -9.30201E+03  7.30190E+03 -1.41824E+04 -9.85731E+03
 -1.06158E+04 -1.72699E+04 -5.15110E+02 -1.90231E+04  1.51219E+04 -8.66257E+03  2.32142E+04  4.50675E+03
  9.19193E+03  2.10020E+04  4.49287E+03  1.13975E+04 -8.92129E+03  7.19425E+03 -1.31627E+04 -6.19035E+03
 -1.50530E+04 -4.63898E+03 -6.34685E+03 -1.55889E+04  7.89193E+03 -1.64680E+04  6.48818E+03 -5.81225E+03
  2.87920E+03  2.02358E+03 -1.15762E+03  5.12550E+03  3.17581E+03 -6.22872E+03  9.53244E+02 -6.20628E+03
  9.32917E+03  9.57411E+02  1.40685E+04  3.21694E+03  9.03414E+03  4.26993E+03  1.42789E+04  2.27796E+04
 -7.38278E+03  2.30279E+04 -1.33324E+04  1.42599E+04 -2.97478E+04  7.46581E+03 -1.64526E+04 -1.28968E+04
 -4.64346E+03 -1.62827E+04 -4.06172E+02 -9.83885E+03  2.28722E+03 -1.28299E+04  6.55915E+03 -5.86692E+03
  7.57459E+03 -2.28508E+03  2.03190E+03  2.86302E+02  8.86539E+02 -3.90764E+03  3.35886E+03  2.69492E+03
  1.21983E+04 -2.51406E+01  6.31212E+03  7.91460E+03 -4.23174E+03  1.12754E+04 -9.17197E+03  8.95681E+03
 -1.46162E+04 -5.51250E+03 -1.05905E+04 -1.32073E+04 -2.01479E+03 -1.89824E+04  4.20410E+03 -1.55040E+04
  1.18641E+04 -6.16499E+03  1.62758E+04 -2.53375E+03  1.87940E+04  1.57120E+04 -4.85439E+03  2.09258E+04
 -1.19023E+04  1.70910E+04 -8.97879E+03  4.58065E+03 -7.15633E+03 -2.81463E+02 -5.75381E+03 -4.65074E+03
  6.21599E+03  2.03773E+03 -2.76781E+03  1.37558E+03 -5.51777E+03  4.51709E+03 -7.93277E+03  4.74549E+03
 -1.09927E+04 -1.38326E+04 -5.24256E+03 -1.73892E+04  9.45412E+03 -1.26998E+04  1.76984E+04 -3.44338E+03
  1.53876E+04  2.94488E+03  6.53057E+03  8.12839E+03 -5.29871E+03  1.39435E+04 -1.51357E+04  1.10901E+04
 -1.52315E+04  4.33015E+03 -1.32407E+04 -3.56303E+03 -1.21871E+03 -7.34830E+03  1.07639E+04 -6.35695E+03
  8.94683E+03 -6.27803E+03  6.76961E+03  8.98373E+03  9.34459E+02  1.45193E+03  6.78811E+03  1.86127E+03
  2.49791E+03  3.99622E+03  6.24790E+02  2.57017E+03 -2.77143E+03  1.43323E+02  2.83778E+03  8.70724E+03
 -2.59158E+03  1.11152E+04 -9.02781E+03  1.47661E+04 -8.59205E+03  3.25094E+03 -1.05418E+04 -2.34275E+03
 -8.96139E+03 -1.75131E+04  3.90228E+03 -1.32866E+04  1.30299E+04 -9.57505E+03  8.73861E+03 -4.74588E+03
  1.40049E+04  5.00373E+02 -2.31275E+03  1.43409E+04 -6.88400E+03  1.24874E+03 -6.32060E+03 -3.20655E+03
 -1.16518E+03 -9.36439E+03  1.24812E+03 -1.00849E+04  6.27041E+03 -1.01860E+02  6.45679E+03 -1.85613E+03
  3.80524E+03  2.13018E+03  1.45890E+03  7.26853E+03 -1.05757E+03  4.19994E+03  4.11769E+03 -4.48758E+03
  6.03785E+03 -6.24948E+03  2.23546E+03  1.22465E+03  1.12617E+04  1.09487E+03 -3.61331E+03  1.47626E+04
 -5.99668E+03  7.68791E+03 -4.60101E+03  8.76370E+03 -1.51945E+04  2.57904E+03 -3.00737E+03  6.23907E+02
 -2.80095E+03 -8.97652E+03  6.50945E+03 -5.80379E+03 -6.23702E+03  7.22883E+03 -5.26797E+01  9.85380E+02
 -5.47822E+03  3.64479E+03 -9.77704E+03 -4.58537E+03 -2.31339E+03 -7.17379E+03  7.54550E+03 -8.27304E+03
  6.56446E+03 -1.04408E+04  4.77306E+03  2.41325E+03  5.43899E+03  4.15819E+02 -1.75524E+03  2.97815E+03
 -6.29584E+03 -6.75764E+02 -8.95244E+02  2.50175E+03 -5.56559E+03 -2.01459E+03  6.45739E+03 -7.70095E+03
  1.55221E+04 -1.42610E+02  9.94595E+03  4.68713E+03 -3.10883E+03  1.11832E+04 -7.81143E+02  8.84640E+03
 -4.44917E+03  2.51547E+03 -1.08309E+04  3.01585E+03 -2.22758E+03 -1.12639E+04  4.88631E+03 -8.28682E+03
  6.28023E+03 -8.40736E+03  1.11106E+04  4.08599E+03  6.87545E+03  1.16845E+04  2.94867E+01  2.69442E+03
  1.40361E+03  4.52860E+03 -6.59063E+03 -5.18180E+03 -6.58791E+03  1.19983E+03 -4.31690E+03  6.49086E+03
  3.69200E+03  2.20701E+03  9.93350E+02  5.04529E+03 -1.11312E+04  1.66156E+03 -1.75582E+04 -7.75179E+03
 -6.37132E+03 -1.03128E+04  6.88751E+03 -1.43973E+04  8.54052E+03 -1.54689E+04  1.30714E+04 -6.83465E+02
  9.68162E+03 -1.75872E+03  1.04338E+04  7.01816E+03  6.33719E+03  8.12485E+03 -3.32534E+03  1.37060E+04
 -4.65186E+03 -1.08192E+03  3.50218E+03 -2.24697E+03 -9.94197E+02 -2.01145E+03 -2.28698E+03  1.60433E+03
 -1.05214E+04  1.57125E+03 -3.02954E+03 -6.77688E+03  1.79350E+03 -2.99583E+03 -1.89375E+03 -3.81745E+03
  4.44719E+03 -5.35749E+03  1.38476E+04  7.06636E+03  1.40616E+04  9.61133E+03  3.43941E+03  9.56319E+03
 -7.49199E+03  1.36844E+04 -1.34083E+04  2.35846E+03 -1.15768E+04 -3.13807E+03 -4.22075E+03 -6.36087E+03
 -2.54597E+03 -1.30638E+04  1.32606E+03 -8.96356E+03  8.97588E+03 -7.75699E+03  8.48247E+03 -3.01002E+03
  8.61938E+03  1.96487E+03  2.89737E+03  6.17461E+03 -1.85124E+03 -6.76112E+03  6.17287E+02 -2.81594E+03
  8.71181E+03 -5.94812E+03  1.04669E+02  6.01292E+02  7.59311E+03 -3.50682E+02 -6.13328E+02  1.42859E+02
 -3.54896E+03  9.13903E+03 -1.08579E+04  5.54995E+03 -1.07625E+04 -1.41517E+04 -4.01611E+03 -1.04173E+04
  4.28956E+03 -6.21027E+03  9.22031E+03  9.45174E+02  7.06844E+03 -1.71829E+03  9.61609E+03 -3.46248E+02
 -2.24071E+03  6.59446E+03 -4.32236E+03  1.01045E+04 -4.75725E+03  5.96449E+03  1.06648E+03 -1.65076E+03
 -1.20696E+03 -6.97530E+03 -2.56203E+03  3.29006E+03 -1.65054E+03  7.51002E+03 -6.80006E+03  1.01652E+03
 -5.04183E+03 -5.41001E+03 -2.71748E+03 -8.26454E+03  1.72973E+03 -5.89336E+03  7.00641E+03 -1.04841E+03
  9.51452E+03 -7.38660E+02  9.40557E+03  7.02749E+03  1.45900E+03  5.08518E+03 -3.20184E+03  1.36765E+03
