 $NMID ID='MM_0lb_SNR50_12hz_g45_76.RAW', FMTDAT='(8E13.5)'
 TRAMP=1., VOLUME=1. $END
  3.09152E+05 -6.14268E+02  3.37837E+05  2.46660E+05  8.38072E+04  3.36895E+05 -1.30322E+05  2.46915E+05
 -1.91326E+05  7.41355E+04 -1.13670E+05 -2.97090E+04  7.35709E+03 -5.32577E+04  5.35744E+04  8.86446E+02
  3.82679E+04  5.31040E+04 -1.12552E+04  7.88574E+04 -5.87384E+04  6.60009E+04 -8.83110E+04  3.62844E+04
 -8.45167E+04 -1.36744E+04 -5.95734E+04 -5.10018E+04 -1.56323E+04 -6.74359E+04  2.61503E+04 -4.57619E+04
  4.25615E+04  4.53042E+03  9.81254E+03  4.37757E+04 -3.42546E+04  4.42442E+04 -6.99268E+04  3.57198E+03
 -4.94059E+04 -5.97602E+04 -9.63231E+03 -7.30815E+04  3.54059E+04 -5.31863E+04  4.83574E+04 -2.09146E+04
  5.02832E+04  1.38618E+04  3.02187E+04  2.72258E+04  1.36343E+04  2.68727E+04 -7.94099E+03  2.32360E+04
 -2.57629E+04  1.02858E+04 -2.26373E+04 -1.08196E+04  1.05486E+04 -8.68429E+03  1.75955E+04  1.51859E+04
  5.70926E+03  3.54618E+04 -3.42762E+04  3.37369E+04 -6.51150E+04  3.45713E+03 -5.40191E+04 -4.20602E+04
 -1.15149E+04 -6.36601E+04  4.26088E+04 -4.66891E+04  5.57638E+04 -4.93838E+03  3.40220E+04  3.39089E+04
 -5.27097E+03  3.17478E+04 -2.87969E+04  2.17890E+04 -3.85529E+04 -3.74904E+03 -1.78592E+04 -1.06782E+04
 -4.34926E+03 -1.77590E+04 -5.48787E+03 -2.52160E+04  4.66429E+03 -2.43289E+04  1.61191E+04 -1.33736E+04
  9.93571E+03  1.13538E+04 -1.00817E+04  1.47627E+04 -2.40824E+04 -7.94454E+03 -1.32846E+04 -3.46314E+04
  2.37416E+04 -4.85746E+04  4.94328E+04 -1.75309E+04  4.73075E+04  2.55233E+04  1.72689E+04  4.44667E+04
 -1.33595E+04  3.07647E+04 -2.38694E+04 -1.76239E+03 -1.06610E+04 -2.82920E+04  1.97038E+04 -3.73683E+04
  4.05432E+04 -9.79387E+03  3.62361E+04  2.69599E+04  1.65967E+04  4.45804E+04 -5.99129E+03  5.65054E+04
 -3.29206E+04  3.38591E+04 -4.27558E+04  1.19412E+04 -4.45703E+04 -1.59084E+04 -2.69657E+04 -4.19857E+04
  7.80098E+03 -3.50505E+04  2.91123E+04 -1.71581E+04  3.58803E+04  1.08488E+04  5.77300E+03  1.83681E+04
 -1.22298E+04  1.00893E+04 -1.48986E+04 -9.69630E+03  7.68617E+03 -8.50715E+03  1.85027E+04  1.48906E+03
  1.90259E+04  2.41657E+04 -6.02727E+03  2.62239E+04 -2.55507E+04  1.67235E+04 -2.91176E+04 -2.80113E+03
 -2.50867E+04 -2.08094E+04 -9.15846E+03 -2.45551E+04  5.90393E+03 -1.87013E+04  1.76765E+04 -1.56643E+04
  3.01051E+04 -1.41631E+04  3.50594E+04 -3.79951E+03  2.92657E+04  1.89431E+04  1.78284E+03  3.96078E+04
 -1.85749E+04  3.47193E+04 -2.67160E+04  1.02172E+04 -1.97042E+04 -8.86012E+03 -1.41754E+03 -9.93770E+03
  2.55759E+03 -4.94753E+03 -4.88754E+03  5.82000E+03 -1.96451E+04  3.24127E+03 -1.55567E+04 -1.16653E+04
 -1.34054E+04 -2.47723E+04  8.43227E+03 -2.78151E+04  1.28834E+04 -1.46837E+04  2.15293E+04  3.64099E+03
  9.53001E+03  1.71437E+04  2.62854E+03  2.01267E+04 -1.45932E+04  1.30402E+04 -1.80009E+04 -3.58839E+03
 -8.30644E+03 -1.54620E+04 -4.05190E+03 -2.47178E+04  7.34462E+03 -2.71713E+04  1.93475E+04 -6.51106E+03
  2.05302E+04  4.67234E+02  9.80116E+03  2.18092E+03  5.82323E+03 -5.06939E+03  5.59771E+03 -7.52410E+03
  2.30847E+04 -7.64248E+02  1.76367E+04  1.90556E+04  1.54553E+04  2.97990E+04 -3.14790E+03  3.49685E+04
 -1.61422E+04  2.76793E+04 -3.72665E+04  1.35301E+04 -3.41124E+04 -9.50429E+03 -2.72046E+04 -2.17542E+04
 -8.29813E+03 -3.55676E+04  1.34380E+04 -2.35228E+04  2.40652E+04 -1.29542E+04  1.58583E+04  4.60575E+03
  4.91625E+03  1.51737E+04 -4.49272E+03  1.41792E+04 -1.41093E+04  2.53379E+03 -1.18984E+04 -1.26610E+04
 -6.31536E+02 -1.30647E+04  6.10144E+03 -1.29204E+04  8.45284E+03  3.83282E+03  7.40624E+03  5.36298E+03
 -7.00652E+03  6.38537E+03 -1.40794E+03 -6.77917E+03 -2.80484E+03 -1.21088E+04  1.15934E+04 -1.18542E+04
  2.34184E+04 -7.79052E+03  1.93113E+04  4.62771E+03  1.84361E+04  1.41147E+04  2.46882E+03  2.14694E+04
 -2.70263E+03  2.41586E+04 -1.38857E+04  2.15294E+04 -1.73298E+04  3.64481E+03 -1.31293E+04 -5.86892E+03
 -6.44841E+03 -2.58524E+03 -5.05873E+03  3.33010E+03 -6.50599E+03  5.97351E+02 -4.67328E+03  2.24240E+03
 -1.13505E+04 -1.68457E+03 -9.58173E+03 -1.28162E+04 -3.21500E+03 -2.07314E+04  4.44466E+03 -1.27014E+04
  1.48479E+04 -4.49304E+03  6.11294E+03  8.21832E+02 -1.75318E+03  4.78912E+03 -2.64729E+03  1.00272E+03
 -3.01909E+03 -6.28571E+03  1.00487E+03 -1.76145E+04  5.51973E+03 -1.56397E+04  1.42233E+04 -8.48187E+03
  1.65600E+04 -2.41065E+03  1.56548E+04  1.40965E+04  2.43311E+03  1.60418E+04 -5.86954E+03  1.16036E+04
 -8.18267E+03  1.64201E+03 -5.65755E+03 -2.59252E+03  7.23104E+02 -2.20347E+03  5.83789E+03  3.27065E+03
  8.26299E+03  5.42765E+03 -2.05043E+03  1.28090E+04 -8.85938E+03  7.68705E+03 -1.48182E+04  4.03390E+03
 -1.12683E+04 -5.46810E+03  5.30674E+03 -9.11885E+03  8.42230E+03 -1.08621E+04  6.15232E+03  4.64358E+03
  1.35072E+03  6.52876E+03 -6.78486E+03  1.28869E+04 -7.65595E+03 -6.47225E+02 -1.01410E+04 -7.42295E+01
 -9.20640E+03 -9.15891E+03  6.32603E+03 -1.00014E+04  1.00274E+04 -1.02872E+04  1.32076E+04 -3.94666E+02
  1.19138E+04  1.08560E+04 -8.85663E+02  1.20303E+04 -1.34337E+04  8.44459E+03 -1.35407E+04 -3.93562E+03
 -1.14716E+04 -6.79738E+03  2.40415E+03 -1.03589E+04  5.40274E+03 -4.71159E+03  8.79967E+03 -4.88561E+03
  5.60905E+03  5.97667E+03 -1.02248E+03  5.97895E+01  9.01036E+02 -4.06046E+02  2.28395E+03 -2.75119E+03
  2.05701E+03 -3.58320E+03  9.44696E+03  7.51232E+03  7.81050E+03  1.42484E+04  5.83887E+03  1.55976E+04
 -5.32010E+03  1.61245E+04 -2.04435E+04  1.29506E+04 -1.96952E+04  3.01800E+02 -9.06653E+03 -6.77069E+03
 -1.05918E+04 -1.73022E+04 -4.06319E+03 -1.06840E+04  2.44109E+03 -3.95551E+03  4.50868E+03 -8.23708E+03
  5.77055E+03 -3.25348E+03  4.19411E+03  4.58152E+03  2.67890E+03 -3.52757E+03  7.18993E+03 -5.15100E+03
  6.49300E+03 -1.31320E+03  4.11021E+03  4.32546E+03 -4.70646E+03  2.83927E+03 -1.39480E+04  5.93920E+03
 -8.48512E+03  1.33921E+03 -4.66010E+03 -1.14388E+04 -5.61076E+02 -8.07053E+03  8.50564E+03 -1.47229E+04
  1.45069E+04 -8.92026E+03  1.35195E+04 -4.43438E+03  9.28112E+03  1.00463E+04  7.44001E+03  8.87608E+03
 -5.36608E+03  1.24415E+04 -6.92643E+03  1.31138E+03 -9.36172E+03  3.51238E+02 -3.91003E+03 -1.18758E+03
 -1.67732E+03 -2.54951E+02  2.73786E+03  5.87614E+03 -8.20125E+03  2.09838E+03 -1.39131E+04 -2.91466E+03
 -9.16512E+02 -9.22867E+03 -1.75991E+03 -7.57970E+03  7.65999E+03 -8.06382E+03  1.03549E+04 -3.45478E+03
  6.95833E+03  6.08903E+03  3.92752E+03  9.38013E+03 -4.41923E+03  7.51476E+03 -1.66905E+03  5.59878E+03
 -1.36395E+04 -1.38573E+03 -5.28456E+03 -1.07132E+03 -3.53694E+02 -8.90895E+03  4.48709E+03 -3.78512E+03
  3.35947E+03 -1.87505E+03  6.16282E+03  3.88586E+02  1.25469E+03  4.50235E+03  4.58896E+03 -4.07339E+02
  9.41989E+02  1.83136E+03  4.22131E+02  1.13290E+03  1.78745E+03  1.55274E+03  2.86956E+03  2.86016E+03
 -5.39108E+03  9.08970E+03 -7.89170E+03  1.02446E+04 -1.03004E+04  3.84891E+03 -7.65426E+03 -4.16887E+03
 -4.79500E+03 -9.16472E+03 -9.77880E+01 -1.07864E+04  2.77456E+03 -5.89076E+03  7.35504E+03 -2.71235E+03
  4.59627E+03  6.76108E+03 -3.68318E+02  3.09320E+03 -2.23566E+03 -3.57617E+03 -5.40373E+03 -2.04163E+03
  1.76508E+03 -3.23708E+03  3.11509E+03 -4.09617E+03  8.53917E+03 -1.95332E+03  3.68885E+02  2.63569E+03
  3.62971E+03  2.55575E+03  4.42526E+02 -8.03136E+02 -8.33936E+02  4.52908E+03  7.73928E+02  6.80195E+03
  2.63998E+03 -6.82974E+03  3.41355E+03 -3.09761E+03  1.72899E+03  5.37910E+03  2.02783E+03  4.05942E+03
 -6.89463E+03  1.12544E+04 -6.78781E+03  1.19967E+03 -2.07381E+03 -2.55799E+03 -9.26199E+02 -1.74469E+03
  5.23307E+03  4.96400E+03  4.46074E+03 -4.02858E+03 -1.40376E+03  3.88473E+02 -7.45256E+02  2.39677E+03
 -9.93970E+03  4.48632E+03 -3.37657E+03 -7.41664E+03 -3.35289E+03 -2.96813E+03 -4.66785E+03 -1.24416E+03
  2.93719E+02 -5.05185E+03  1.20925E+04  1.59730E+01 -3.04355E+03  5.28809E+02  2.20973E+03  5.06372E+03
 -5.06444E+03  4.52369E+03  2.33887E+02 -3.40296E+03  2.43414E+03 -3.15327E+03  2.04841E+03 -5.35097E+03
  1.16204E+04  5.63864E+03  5.49346E+03  1.99835E+03  5.03528E+03  5.74691E+03 -6.48293E+03  9.86167E+03
 -1.85245E+03  5.69512E+03 -1.80412E+03  2.28409E+03 -4.13451E+03  1.25309E+03  1.06250E+03 -2.62722E+03
  2.73752E+03  7.37124E+02  4.29070E+03  1.36536E+03  6.52005E+03  1.89473E+03  1.60443E+03  6.47219E+03
 -1.73255E+03  5.32452E+03  7.58370E+02 -1.55199E+01 -4.89566E+03 -1.05945E+03 -6.21682E+03 -2.73330E+03
 -4.22769E+03 -2.77953E+03 -1.43040E+03 -2.90313E+03 -5.11894E+03 -2.94849E+03 -7.14659E+03 -7.95750E+03
 -7.67941E+03 -1.06893E+04  4.33654E+03 -1.16603E+04  7.32902E+03 -8.67926E+03  1.08774E+04 -2.55049E+03
  6.97294E+03  1.90037E+03  4.30963E+03  6.07187E+03 -3.26641E+02  3.03902E+03 -4.05401E+03  2.32415E+03
  2.41548E+03  5.85900E+02 -4.67098E+03 -1.10094E+03  8.31113E+02  2.80683E+03 -6.42189E+02 -9.03607E+02
 -2.58166E+03 -1.37142E+03 -5.26460E+03 -7.71558E+03 -8.40989E+01 -1.44310E+03  1.00202E+03  1.16551E+03
  1.56437E+03  2.51727E+03  3.51169E+03 -1.24892E+02  5.87519E+03  7.56643E+02 -9.18363E+02  4.45974E+03
 -3.59026E+03  3.71741E+03 -1.02897E+04  4.98197E+03 -2.48935E+03 -1.02173E+03 -7.91419E+03 -9.71088E+02
 -4.29007E+03 -7.20061E+03 -2.95914E+03 -5.72822E+03  5.31388E+03 -2.37127E+03  3.09998E+03 -2.48356E+03
  6.47686E+03  6.19632E+02  1.54626E+03 -2.64768E+03 -2.72607E+03 -1.09182E+03  8.64910E+02 -4.93558E+03
  4.01290E+02 -1.08806E+03 -7.69282E+03  5.35830E+03  4.97333E+03  7.55439E+03  2.35076E+03  3.52548E+03
 -2.66352E+03  4.13811E+03 -2.56475E+03 -3.57769E+03 -6.50183E+03 -1.31915E+03  3.29830E+02  1.65761E+03
  5.31699E+03  1.31358E+03 -2.56521E+03  4.64658E+03  5.02592E+03  2.10783E+03  7.74101E+02 -1.10252E+03
  1.60410E+03 -5.14260E+02  3.53992E+03 -7.34637E+01 -7.02316E+03  2.89224E+03 -2.38468E+03  3.66439E+03
 -3.47912E+03  3.17323E+03 -3.33489E+03 -2.79350E+03  1.07037E+03 -4.30663E+03 -2.55632E+03  6.50807E+02
 -3.35035E+03 -1.12922E+03 -4.37129E+03 -5.15822E+03  1.02085E+03 -3.59860E+03  5.51403E+03 -3.49957E+03
 -4.74625E+02 -8.00502E+02  2.67897E+03  2.92120E+03 -8.51670E+02  3.10475E+03 -2.14124E+03  8.47285E+02
