 $NMID ID='MM_0lb_SNR50_13hz_g40_85.RAW', FMTDAT='(8E13.5)'
 TRAMP=1., VOLUME=1. $END
  3.05800E+05  3.56326E+03  3.42665E+05  2.51311E+05  8.27719E+04  3.38246E+05 -1.35352E+05  2.50395E+05
 -1.86787E+05  8.52856E+04 -1.08081E+05 -3.49855E+04  3.43061E+03 -4.76120E+04  5.13201E+04  1.62393E+03
  3.42885E+04  4.98610E+04 -1.65179E+04  7.73529E+04 -5.80606E+04  6.28928E+04 -8.62275E+04  3.50870E+04
 -8.08092E+04 -9.66816E+03 -6.16782E+04 -5.72350E+04 -1.88009E+04 -6.79244E+04  3.15505E+04 -4.08955E+04
  4.26403E+04  6.25453E+03  1.63854E+04  4.87436E+04 -3.15067E+04  4.83953E+04 -6.80375E+04  7.11649E+02
 -5.15304E+04 -5.71646E+04 -6.81049E+03 -7.79732E+04  3.17567E+04 -5.07391E+04  4.41966E+04 -2.10557E+04
  4.43658E+04  1.02736E+04  2.91973E+04  2.51747E+04  1.63236E+04  2.92693E+04 -7.50291E+03  2.48942E+04
 -2.36922E+04  1.61445E+04 -2.34280E+04 -5.99637E+03  8.05170E+03 -8.04640E+03  2.53104E+04  1.65054E+04
  1.18140E+04  3.47189E+04 -3.05579E+04  3.48972E+04 -6.48834E+04  1.95630E+03 -5.75785E+04 -4.21647E+04
 -9.60697E+03 -6.38385E+04  4.00027E+04 -4.76345E+04  5.46797E+04 -2.09484E+03  3.34030E+04  2.78700E+04
 -8.16566E+03  3.92460E+04 -3.26309E+04  1.72716E+04 -3.38817E+04 -7.15919E+00 -1.54188E+04 -4.11122E+03
 -8.43349E+03 -1.31865E+04 -4.27853E+03 -1.80161E+04  5.92255E+03 -1.99436E+04  1.72880E+04 -1.38966E+04
  1.66468E+04  7.20945E+03 -1.14241E+04  1.13227E+04 -2.64900E+04  2.89485E+02 -4.85374E+03 -2.84337E+04
  2.45088E+04 -4.14334E+04  4.83567E+04 -1.83400E+04  4.86641E+04  1.60418E+04  1.19559E+04  4.20845E+04
 -1.22440E+04  3.24792E+04 -2.86142E+04  4.11134E+03 -1.16467E+04 -2.19272E+04  2.06407E+04 -3.15185E+04
  4.00347E+04 -1.12093E+04  3.33991E+04  3.19272E+04  1.96770E+04  4.63873E+04 -8.01926E+03  5.06345E+04
 -3.43838E+04  3.34029E+04 -4.40202E+04  6.82695E+03 -3.59819E+04 -1.70484E+04 -2.00155E+04 -3.71392E+04
  8.69249E+03 -3.54901E+04  3.14746E+04 -2.00355E+04  2.67755E+04  8.19816E+03  1.88535E+03  2.17216E+04
 -1.34609E+04  8.08067E+03 -8.71784E+03 -9.24244E+03  4.50879E+03 -1.02266E+04  2.20152E+04  4.86628E+03
  1.02370E+04  2.46575E+04 -2.45851E+03  2.78202E+04 -2.52149E+04  1.03673E+04 -2.90614E+04 -6.58143E+03
 -2.15508E+04 -1.38147E+04 -3.19012E+03 -2.16459E+04  1.84235E+03 -2.03188E+04  1.32749E+04 -2.07192E+04
  2.74550E+04 -1.44145E+04  3.24354E+04 -1.31509E+03  2.71004E+04  2.07281E+04  5.76634E+03  3.34833E+04
 -1.87917E+04  3.65036E+04 -2.32830E+04  1.45883E+04 -2.39091E+04 -1.35758E+04 -2.44107E+03 -1.40400E+04
  2.12728E+03  4.86389E+03 -6.58989E+03  4.29238E+03 -1.46714E+04  7.58759E+03 -1.91164E+04 -6.37628E+03
 -1.30972E+04 -2.12639E+04  4.24345E+03 -2.77125E+04  1.59778E+04 -1.57180E+04  1.72346E+04 -6.08839E+03
  1.00171E+04  1.43216E+04 -2.42822E+03  2.38737E+04 -9.53606E+03  1.27283E+04 -1.94155E+04 -1.88913E+03
 -1.42789E+04 -1.79100E+04 -2.24603E+03 -2.76215E+04  6.23705E+03 -2.02411E+04  1.56116E+04 -8.26082E+03
  2.30049E+04 -3.09482E+03  1.31246E+04  5.34948E+03  1.43075E+04  1.51354E+03  1.28131E+04  3.03504E+03
  1.40401E+04  9.09828E+02  2.00205E+04  1.87795E+04  9.03089E+03  2.35244E+04 -1.05860E+03  3.73416E+04
 -1.99928E+04  2.76668E+04 -3.20590E+04  1.68783E+04 -2.95965E+04 -1.66783E+03 -2.74240E+04 -1.78901E+04
 -5.99507E+03 -2.37940E+04  1.19371E+04 -2.61723E+04  1.97726E+04 -1.39602E+04  2.37747E+04  2.70373E+03
  5.25971E+03  1.22036E+04 -8.03766E+03  6.84676E+03 -1.28030E+04  1.70988E+03 -1.26341E+04 -7.77356E+03
 -4.25570E+02 -1.52845E+04  6.85686E+03 -9.97545E+03  1.34814E+04 -1.41750E+03  8.88345E+02  8.86745E+03
 -7.08358E+03  6.00964E+03 -1.62374E+03 -1.62321E+03 -3.39010E+03 -1.62194E+04  1.12143E+04 -1.62868E+04
  2.14240E+04 -7.68579E+03  1.92963E+04  2.51334E+03  1.54208E+04  1.67119E+04  4.94280E+03  1.76223E+04
 -4.63273E+03  1.56723E+04 -1.78692E+04  1.68157E+04 -1.40364E+04  3.34683E+03 -1.01177E+04  6.16457E+02
 -8.89819E+03 -6.08842E+03 -3.24562E+02  1.16810E+03 -1.24688E+04  2.61291E+03 -5.47833E+03  4.87493E+03
 -1.20097E+04 -4.52252E+03 -9.18941E+03 -1.74060E+04 -6.44201E+03 -1.67063E+04  3.60310E+03 -6.90576E+03
  1.15591E+04 -1.83110E+03  8.76759E+02  7.79078E+02  3.72631E+03  4.37685E+03 -5.69393E+03  3.89791E+02
 -8.11693E+03 -9.56654E+03 -2.20330E+03 -7.77846E+03  5.23075E+03 -9.93908E+03  1.31504E+04 -8.39412E+03
  1.46789E+04  9.50335E+02  1.14437E+04  1.11751E+04 -1.54248E+03  1.59626E+04 -5.89404E+03  9.96479E+03
 -9.80446E+03  4.97462E+03 -7.82878E+03 -3.08868E+03  1.92289E+03 -7.65470E+03  4.72364E+03  9.00311E+02
  5.42803E+03  8.30719E+03 -1.83591E+03  9.24894E+03 -5.48603E+03  1.04184E+04 -1.01073E+04  3.25962E+03
 -5.06398E+03 -5.76074E+03  3.80202E+02 -1.29003E+04  4.15890E+03 -5.18606E+03  7.23579E+03 -1.88603E+02
  6.54263E+03  6.90265E+03 -5.52841E+03  8.80882E+03 -7.45133E+03  3.51111E+03 -8.58956E+03 -2.34884E+03
 -5.26944E+03 -1.02922E+04  1.31268E+03 -1.38553E+04  3.64755E+03 -6.85588E+03  1.56681E+04  1.73225E+03
  4.50006E+03  1.07005E+04 -1.69124E+03  1.08626E+04 -3.44752E+03  8.41306E+03 -1.23816E+04  6.00284E+03
 -4.39996E+03 -7.31084E+03 -1.80302E+03 -5.70926E+03  4.22282E+03 -9.31641E+03  6.21365E+03 -3.92102E+03
  9.09485E+02  2.33115E+03 -5.59861E+02  2.33953E+03 -2.56617E+03 -2.22789E+03 -9.29427E+02 -4.85181E+03
  4.83979E+03 -3.76682E+03  1.15558E+04  1.89861E+03  1.29197E+04  5.02885E+03  1.08221E+04  1.23623E+04
 -2.35040E+03  1.36787E+04 -1.51886E+04  1.07991E+04 -1.65727E+04  4.09573E+03 -1.46183E+04 -9.60065E+02
 -9.86614E+03 -1.41775E+04  2.82145E+03 -7.11604E+03  7.06736E+03 -5.97608E+03  4.14316E+03  5.46133E+01
  1.49189E+03 -9.45615E+02  3.10406E+03 -1.48460E+03  3.36213E+03 -3.46998E+03  5.92353E+02  1.24446E+03
  1.07717E+04 -7.19310E+02  2.15116E+03  4.98467E+03 -8.67159E+02 -2.31398E+03 -5.79244E+03  7.40573E+03
 -1.12285E+04  4.96955E+02 -4.37809E+03 -3.11220E+03 -7.55622E+02 -4.73233E+03  1.38368E+03 -6.76359E+03
  6.26861E+03 -3.49449E+03  1.32725E+04  2.11971E+03  7.21259E+03 -2.29033E+02  1.93524E+03  1.18794E+04
  9.34084E+02  8.89485E+03 -5.24570E+03  6.54548E+03 -4.00588E+03 -2.48895E+03 -1.41349E+03 -4.89429E+03
 -2.97358E+03  4.03320E+03  5.14679E+02 -1.64482E+03 -3.03997E+03 -1.95990E+03 -4.98679E+03 -2.43440E+03
 -5.48443E+03 -8.61661E+03 -3.74320E+03 -8.09436E+03  3.71026E+03 -1.01750E+04  9.66104E+03  7.79857E+02
  9.13837E+03  6.17171E+03  6.34763E+03  5.77565E+03  2.48721E+02  1.20750E+04 -9.41322E+03  7.15140E+03
 -6.96979E+03 -7.20098E+01 -1.01944E+04 -7.25633E+03  5.89699E+02 -4.97660E+03  2.85563E+03 -7.23898E+03
  3.53471E+03  6.48836E+03  3.47963E+03  6.44835E+03 -1.53045E+03  1.27186E+03 -1.57906E+03  2.96256E+03
  2.39067E+03 -7.90936E+03 -3.84891E+03  6.36534E+03 -9.00855E+00  2.95627E+03  3.27697E+02  6.50794E+03
  4.11289E+02  3.99740E+03 -7.57414E+03  7.57813E+03 -1.03500E+04 -8.67975E+02 -9.38613E+03 -5.06602E+03
 -4.30876E+03 -1.03092E+04  2.24769E+03 -7.92592E+03  4.56833E+03 -5.73876E+03  7.39783E+03 -6.68405E+02
  7.28570E+03  1.00851E+04  6.31368E+03  2.53265E+03 -2.42071E+03  4.10201E+03 -3.69739E+03  2.08522E+03
 -6.25747E+03 -6.40561E+03  3.46702E+03 -3.32000E+03  4.85643E+03 -3.08334E+03 -2.12799E+03  7.25524E+03
  3.14923E+03  2.42159E+03  1.51134E+03  9.40611E+02 -5.96839E+03  1.90934E+03  1.11843E+03 -2.30696E+03
 -1.35854E+03  2.92511E+03  3.66615E+03  5.96382E+03 -1.25668E+03  5.92423E+03  3.38037E+03  4.12462E+02
 -3.95859E+02  4.04683E+03 -4.01666E+03 -1.32583E+03  1.70763E+02 -3.52152E+02 -3.24069E+03 -3.71951E+03
 -6.89388E+02  1.06525E+03  2.38991E+03 -3.16614E+03  1.93348E+03 -1.56248E+03 -2.91854E+03  4.39761E+03
  1.23870E+03  2.49798E+03 -3.71363E+03 -3.47771E+03 -8.32452E+02 -6.00174E+03  2.38870E+03  5.52439E+02
 -1.56111E+03 -2.07432E+02  3.11245E+03 -5.04293E+03  3.22475E+03  4.77624E+03 -3.25936E+03  4.87644E+03
  5.05873E+02  8.09893E+02 -5.20189E+03 -2.02116E+03  5.75341E+02 -1.02776E+03  4.16456E+03 -2.29198E+03
  4.25544E+03 -4.10793E+03  4.57076E+03 -1.33448E+02  9.76856E+02  4.11336E+03 -5.09601E+03  3.58429E+03
 -7.61648E+03  2.99056E+03 -4.95625E+03  1.49805E+03 -2.67103E+03 -3.22717E+03  4.16107E+03 -3.99114E+03
  8.64164E+02  3.10488E+03 -2.72454E+03  2.41193E+03  1.37632E+03  1.00837E+03 -2.46558E+03  3.48909E+03
  8.98857E+02  1.78975E+03 -1.98433E+03  6.41294E+02  2.52786E+02  4.38372E+03  1.54809E+03 -1.73550E+03
 -3.03167E+03  3.51511E+03 -7.50943E+03  5.48548E+03 -6.50841E+03 -1.56594E+03  2.46053E+03 -4.82234E+03
 -2.65779E+02 -6.15292E+03  3.20393E+03 -6.80715E+03  3.68958E+03 -8.33846E+03  5.71979E+03 -3.91128E+02
  1.00671E+04  5.28661E+03 -5.82787E+02  6.13384E+03 -6.47566E+03  2.12851E+03 -2.95417E+03  5.30291E+03
 -5.66272E+03 -1.62992E+03 -2.01095E+02  3.32665E+03 -1.62409E+02  2.71021E+02 -7.19588E+01  2.04227E+03
  2.86458E+03  1.83901E+03  4.59734E+02  5.89048E+03  2.88241E+01 -2.30742E+02 -1.00403E+03 -2.66378E+03
 -6.68961E+02 -1.37968E+03  1.08876E+03 -7.31179E+02  2.77134E+03  2.72850E+03  2.35465E+03  5.91102E+03
 -1.42162E+03  4.09801E+03 -3.48660E+03  4.46127E+03 -3.05626E+03 -1.12779E+03 -3.86256E+03 -5.70206E+03
 -1.15446E+03 -8.51525E+02  2.76293E+02 -8.24449E+03  6.54175E+03  7.07268E+02  8.94947E+02 -1.10318E+02
  6.17603E+03  4.18631E+03 -2.28518E+03  1.73175E+03 -3.13532E+03  4.12745E+03  5.44686E+02  1.14540E+03
 -3.88796E+02 -7.96370E+02  2.51088E+03 -6.88787E+02  4.03359E+03 -5.73168E+03  4.04204E+02 -2.17636E+03
  3.37763E+02  2.35223E+03 -3.45623E+03 -2.36498E+03 -3.71742E+03 -1.81146E+03  2.53792E+03 -6.68546E+02
  5.87335E+03 -4.39528E+03  8.93721E+03  1.12665E+03  5.28424E+02 -1.24489E+03  4.20026E+03  1.86971E+03
  8.00394E+01  2.92717E+03 -7.37364E+01  3.19397E+03  2.57318E+02 -4.75499E+03 -2.79144E+03  1.25823E+03
 -4.73496E+03 -2.01910E+03 -3.35246E+03  2.32919E+03 -3.36361E+02 -9.81930E+02 -2.28276E+03 -2.76673E+02
 -3.79936E+03 -2.89673E+03 -1.14798E+03 -3.71132E+03  5.41858E+03 -5.41730E+03  2.68070E+03  2.97466E+03
  3.11088E+03  1.86871E+03 -2.62307E+03 -1.98873E+03  2.90606E+03 -7.11519E+02 -1.38888E+03  2.25669E+03
