 $NMID ID='MM_0lb_SNR50_7hz_g45_11.RAW', FMTDAT='(8E13.5)'
 TRAMP=1., VOLUME=1. $END
  3.13868E+05 -2.15220E+03  3.39544E+05  2.48620E+05  8.33291E+04  3.38681E+05 -1.35506E+05  2.52448E+05
 -1.92838E+05  8.63881E+04 -1.08581E+05 -3.64055E+04  1.92852E+03 -5.16984E+04  5.66410E+04  2.31814E+03
  3.96224E+04  5.88736E+04 -1.60201E+04  8.00156E+04 -5.99381E+04  6.53386E+04 -7.88914E+04  3.55511E+04
 -9.19662E+04 -8.31702E+03 -6.19865E+04 -5.01542E+04 -1.42885E+04 -6.74315E+04  2.96015E+04 -4.82520E+04
  3.73534E+04  9.97435E+03  1.34988E+04  5.14875E+04 -3.19877E+04  5.17299E+04 -6.75019E+04 -3.43443E+03
 -5.87102E+04 -5.79520E+04 -1.29056E+04 -8.01799E+04  3.77120E+04 -6.60746E+04  5.19131E+04 -1.51428E+04
  4.62284E+04  1.08777E+04  2.64807E+04  2.58619E+04  1.58688E+04  2.37380E+04 -4.38064E+03  2.51365E+04
 -1.81152E+04  9.86742E+03 -1.36742E+04 -1.24061E+03  1.31344E+04 -6.03640E+03  2.13738E+04  1.43189E+04
  5.05005E+03  3.69365E+04 -3.64840E+04  3.74772E+04 -7.45786E+04 -2.01624E+03 -5.60412E+04 -4.43349E+04
 -1.14420E+04 -7.00529E+04  4.34989E+04 -4.84455E+04  5.82804E+04  2.36546E+03  4.57818E+04  3.50135E+04
 -9.90336E+03  4.10177E+04 -3.01240E+04  1.79493E+04 -3.39243E+04  1.40648E+03 -1.71215E+04 -1.63408E+04
 -7.43954E+03 -1.36682E+04  1.20919E+02 -2.15584E+04  7.19029E+03 -1.70231E+04  1.67794E+04 -8.37976E+03
  5.20660E+03  2.56633E+03 -1.24764E+04  1.51549E+04 -1.99469E+04 -1.34345E+04 -9.31567E+03 -4.16112E+04
  2.71881E+04 -4.95382E+04  5.66048E+04 -1.86844E+04  5.19629E+04  2.65865E+04  1.05431E+04  4.97234E+04
 -1.21353E+04  3.30683E+04 -2.96679E+04  3.52137E+03 -9.03260E+03 -3.08138E+04  1.82720E+04 -4.26636E+04
  5.34095E+04 -3.07988E+03  3.83761E+04  2.38392E+04  2.21586E+04  4.38131E+04 -8.41660E+03  5.90508E+04
 -3.85963E+04  4.06694E+04 -5.33998E+04  8.42934E+03 -5.00145E+04 -2.39175E+04 -2.53277E+04 -4.17174E+04
  5.20424E+03 -4.36737E+04  3.58429E+04 -1.64796E+04  3.23185E+04  9.57541E+03 -2.71741E+03  1.75029E+04
 -1.15163E+04  1.08383E+04 -1.96133E+04 -6.76117E+03  2.20971E+03 -7.08590E+03  2.07782E+04  7.31479E+03
  1.58027E+04  2.53205E+04 -4.94723E+03  1.91777E+04 -2.43448E+04  1.66054E+04 -3.08927E+04  2.80811E+02
 -2.77879E+04 -2.12444E+04 -8.25963E+03 -2.26208E+04  7.48229E+03 -2.67741E+04  2.15371E+04 -1.92331E+04
  3.22979E+04 -1.19729E+04  4.36051E+04  2.99041E+03  2.78023E+04  2.23270E+04  4.20086E+03  4.48138E+04
 -2.78488E+04  3.15745E+04 -2.46686E+04  4.89756E+03 -2.26878E+04 -1.21706E+04 -9.56233E+03 -1.86704E+04
 -2.09268E+03  5.94167E+03 -5.99429E+03  6.29274E+03 -2.25527E+04  8.03643E+03 -2.30477E+04 -1.23644E+04
 -7.35933E+03 -2.42188E+04  5.39206E+03 -2.50783E+04  1.85345E+04 -1.92917E+04  2.04348E+04 -3.41410E+03
  1.03041E+04  1.73524E+04  1.50973E+01  2.84829E+04 -1.98944E+04  1.29726E+04 -2.02076E+04 -8.85165E+03
 -2.04092E+04 -2.47813E+04 -9.97673E+02 -3.46186E+04  1.64077E+04 -2.73877E+04  2.12631E+04 -1.72356E+04
  3.05974E+04 -4.79456E+03  2.35793E+04  4.16413E+03  1.13894E+04  1.00117E+03  1.50770E+04 -4.69775E+03
  2.15700E+04  3.83853E+03  2.74462E+04  1.40758E+04  1.99231E+04  3.77649E+04  1.03224E+02  4.64370E+04
 -2.97715E+04  3.62810E+04 -4.58216E+04  2.50593E+04 -4.96087E+04 -9.76278E+03 -4.20298E+04 -2.51592E+04
 -1.56296E+04 -4.05990E+04  7.66423E+03 -3.83650E+04  3.57845E+04 -1.08046E+04  2.95573E+04  1.06226E+04
  6.35200E+03  2.03603E+04 -7.45560E+03  1.45048E+04 -2.29896E+04  3.19402E+03 -1.74006E+04 -1.47333E+04
  2.22762E+03 -2.18753E+04  9.26393E+03 -2.02018E+04  1.49533E+04  1.09668E+03  3.11325E+03 -3.30594E+02
 -6.00271E+03  2.43806E+03 -1.21780E+04 -7.91123E+03  1.74013E+03 -2.05736E+04  1.34133E+04 -2.12667E+04
  2.74168E+04 -8.57313E+03  2.12739E+04  1.02969E+03  2.59634E+04  1.74529E+04  9.17340E+03  3.64492E+04
 -1.19340E+03  3.72068E+04 -2.03834E+04  1.67003E+04 -2.28771E+04  6.33290E+02 -2.40581E+04 -4.16979E+03
 -1.14839E+04 -6.24781E+03  4.84042E+03  4.43953E+03 -4.94761E+03  5.57295E+03 -5.67553E+03  1.20549E+04
 -4.95530E+03 -7.83282E+03 -1.87699E+04 -9.11491E+03 -1.16743E+04 -1.84519E+04  5.80919E+03 -1.84104E+04
  1.56271E+04 -7.58441E+03  1.30601E+04  8.58356E+03 -5.35141E+03  4.82327E+03 -1.38461E+04  1.13533E+03
 -7.26978E+03 -7.89539E+03  2.68254E+03 -1.42090E+04  1.30459E+04 -1.53245E+04  2.30854E+04 -1.30231E+04
  3.00271E+04  1.24834E+03  1.10398E+04  1.21311E+04  3.61820E+03  2.58743E+04 -8.26887E+03  1.87661E+04
 -1.28603E+04  2.02615E+03 -5.73406E+03 -7.38603E+03  4.35420E+03 -5.28171E+03  1.15670E+04 -8.23687E+03
  1.59177E+04  3.63820E+03 -4.45930E+02  1.84534E+04 -7.97677E+03  1.45790E+04 -1.31764E+04  6.40871E+03
 -9.32040E+03 -1.34764E+04 -5.51463E+03 -1.84461E+04  4.47863E+03 -3.99756E+03  6.35764E+03  2.73060E+03
  1.29418E+04  8.66657E+03 -1.11230E+04  1.02289E+04 -2.07164E+04  5.91520E+03 -2.72333E+04 -1.21560E+03
 -8.45871E+03 -1.78775E+04  5.47021E+03 -2.60814E+04  2.52028E+04 -9.79644E+03  2.41082E+04  3.22654E+03
  9.97631E+03  1.23887E+04 -4.96448E+02  1.44787E+04 -1.53878E+04  1.25944E+04 -8.91830E+03  3.39649E+03
 -1.27808E+04 -1.44309E+04 -2.75243E+03 -1.49617E+04  9.38377E+03 -1.90093E+04  1.24032E+04 -5.93324E+03
  2.12327E+03  1.02484E+04 -8.65001E+03  2.76974E+03 -1.42383E+03 -4.32916E+03  4.98479E+03 -1.14880E+04
  1.87900E+04  7.60978E+01  1.72742E+04  3.35247E+03  1.67533E+04  7.41904E+03  1.54793E+04  2.03188E+04
 -5.93897E+03  2.83414E+04 -1.86147E+04  2.02609E+04 -2.76699E+04  5.48076E+03 -2.41560E+04 -1.04938E+04
 -1.31909E+04 -1.77710E+04 -7.37531E+03 -1.41196E+04  7.13295E+03 -1.13699E+04  6.99433E+03 -4.31331E+03
  3.99113E+03 -2.40074E+03  3.66620E+03 -4.55406E+03  8.36772E+03  2.70234E+01  3.54430E+03 -8.16092E+03
  1.13377E+04  5.40326E+03  1.40270E+04  1.03129E+04  6.27359E+03  1.29614E+04 -1.52674E+04  9.20894E+03
 -1.62749E+04  8.98437E+03 -2.56772E+03 -1.22904E+04 -2.67686E+03 -1.59623E+04  6.49170E+03 -1.78021E+04
  1.96047E+04 -9.36009E+03  2.66308E+04  9.38606E+02  1.58983E+04  1.73465E+04  9.37404E+02  1.99764E+04
 -1.08211E+04  1.59516E+04 -1.29814E+04  5.96133E+03 -1.11429E+04 -2.02649E+03  3.75368E+02 -3.77111E+03
 -6.86941E+03 -6.15621E+03 -2.25150E+03  3.32260E+03 -3.10421E+03 -3.67631E+02 -1.59999E+04 -4.87399E+03
 -9.08099E+03 -8.74107E+03 -2.21860E+03 -1.87818E+04  1.19331E+04 -1.89700E+04  1.73666E+04 -5.09376E+03
  2.01599E+04  1.25129E+04  1.07284E+04  1.23170E+04 -8.60190E+03  1.01246E+04 -1.13249E+04  2.85572E+03
 -1.85091E+04 -1.46768E+03 -1.75264E+04 -1.88643E+04 -4.87046E+03 -4.65114E+03  3.54640E+03 -1.49717E+04
  1.01776E+04 -5.93896E+03  1.30390E+04  4.86143E+02 -5.00293E+03 -3.98378E+03  3.95910E+03  3.64812E+03
  8.43086E+03 -3.36043E+03  4.23399E+03  9.44702E+02  2.43728E+03  8.91320E+03  1.12050E+03  1.21309E+04
 -3.14035E+03  2.06606E+04 -8.31434E+03  1.41060E+04 -1.39059E+04  1.58379E+03 -1.82543E+04 -1.27951E+04
 -8.97454E+03 -1.54899E+04  1.12229E+04 -1.90522E+04  8.70571E+03 -1.43183E+04  1.46640E+04 -2.86638E+03
  1.54048E+04  3.21912E+03  2.08022E+03  6.19866E+03 -5.70222E+03  1.26099E+04 -5.84581E+03 -6.18354E+03
 -3.62139E+03 -1.48352E+04  6.14268E+03 -1.31119E+04  1.00892E+04 -7.13954E+03  1.10041E+04 -5.66744E+03
  6.12185E+03  4.53191E+03  4.34266E+02  5.40095E+03  1.04852E+03  2.29005E+03  6.90114E+02 -1.86567E+03
  2.36063E+03 -3.35315E+03  7.88779E+03 -1.73088E+02  8.47690E+03  1.14826E+04 -6.41532E+03  1.32584E+04
 -7.49578E+03  8.97857E+03 -1.50239E+04  1.22471E+03 -4.30943E+03 -5.26735E+03  6.00018E+03 -3.70396E+03
  2.90186E+03 -1.57430E+04  1.52555E+04 -5.86795E+03  8.06811E+03 -1.11540E+03 -2.10658E+03  5.80810E+03
 -1.51864E+03 -3.99780E+03 -3.82933E+03 -2.99457E+03 -6.30883E+03 -5.89260E+03  4.01611E+03 -1.50458E+04
  5.97192E+03 -6.85417E+03  5.70921E+03  2.71807E+03  6.48093E+03  1.27558E+03 -2.62507E+03  1.13225E+04
 -6.27615E+03  1.86726E+03  1.27345E+02 -8.62205E+03  1.61783E+03 -6.95451E+03  6.19009E+03 -7.84655E+03
  1.14565E+04 -2.09863E+03  1.06297E+04  4.84123E+03  5.02896E+03  1.38722E+04 -3.97840E+03  1.13054E+04
 -8.73477E+03  4.36672E+03 -1.39081E+04 -9.62110E+02 -4.89493E+03  1.27613E+03 -1.01406E+03 -1.36073E+04
  8.04723E+03 -8.10994E+02 -3.11458E+00  7.34424E+03  3.77389E+02  4.54884E+03 -4.49794E+02  8.62886E+03
 -1.37104E+04  6.15133E+03 -6.23730E+03  7.40794E+03 -2.00603E+03  2.36852E+03 -5.64123E+03  5.30537E+03
  1.43537E+03 -4.93980E+03 -7.81166E+03  5.02727E+03 -1.95887E+04 -7.20278E+03 -7.17454E+03 -4.26665E+03
 -1.00493E+04 -2.97115E+04  3.30784E+03 -1.86288E+04  2.15805E+04 -1.49885E+04  2.08669E+04 -4.24362E+03
  1.82003E+04  7.62678E+03  9.51758E+03  1.21458E+04  3.93214E+03  1.78429E+04  1.04189E+03  1.06807E+04
 -1.27309E+04  2.12011E+03 -4.32003E+02 -4.14297E+03 -2.92000E+03 -1.17815E+03  2.90285E+03 -5.63805E+03
 -4.49491E+03  3.54332E+03 -1.99023E+03 -3.50149E+03  3.13854E+02 -7.20649E+03  7.62736E+02 -3.64614E+03
  6.14369E+03  2.80892E+03  8.74543E+03 -5.88702E+03  6.66041E+03  1.49075E+04  3.44347E+03  1.61786E+04
 -1.02686E+04  1.02749E+04 -1.09580E+04  6.63214E+03 -2.11490E+04 -3.79678E+03 -1.85328E+04 -1.44039E+04
 -4.90774E+03 -1.61575E+04  9.09699E+03 -1.47915E+04  8.87176E+03 -6.56729E+03  1.64433E+04 -2.90034E+03
  7.84967E+03  8.97481E+03 -5.05031E+03  2.87967E+03 -1.00160E+03 -6.04605E+02 -1.18825E+03 -7.53183E+03
  3.65186E+03 -3.47037E+03  1.05114E+04 -5.84405E+03  1.02192E+04  5.67369E+03  3.09787E+03  1.13403E+04
 -9.90876E+03  5.76236E+03 -1.01884E+04  7.00173E+03 -1.21244E+04 -9.86906E+03 -4.26355E+03 -9.43366E+03
  1.00510E+04 -1.03819E+04  5.94742E+03 -6.11151E+03  1.02661E+04  7.04344E+02  9.18155E+03  1.06794E+04
  1.33410E+03  5.17737E+03  2.62717E+03  6.17655E+03 -1.30995E+04  2.41345E+03 -6.99586E+03 -4.22508E+03
 -9.13362E+03 -3.21384E+03 -7.80805E+03 -8.02343E+02 -7.25159E+03 -5.46539E+02 -5.78597E+03 -6.90403E+03
 -3.17727E+03 -7.39376E+03 -7.10646E+03 -1.11028E+04  7.45251E+03 -4.14450E+03  8.27590E+03 -8.88970E+03
  6.91910E+03 -3.42861E+02  2.34750E+03  4.83373E+03 -5.79816E+03  1.07148E+04 -7.10360E+03  7.12153E+03
