 $NMID ID='MM_0lb_SNR50_14hz_g60_59.RAW', FMTDAT='(8E13.5)'
 TRAMP=1., VOLUME=1. $END
  3.10584E+05 -4.78355E+02  3.38614E+05  2.52430E+05  8.51557E+04  3.40950E+05 -1.28667E+05  2.52212E+05
 -1.91535E+05  8.43572E+04 -1.08622E+05 -3.40501E+04  2.58114E+03 -4.35201E+04  5.76520E+04 -2.32261E+03
  3.70807E+04  5.32496E+04 -1.22877E+04  7.93233E+04 -6.11151E+04  6.72466E+04 -8.32879E+04  3.31281E+04
 -7.52194E+04 -6.17384E+03 -5.81055E+04 -5.38102E+04 -1.12532E+04 -6.64773E+04  2.87379E+04 -4.36633E+04
  4.36053E+04  5.23239E+03  1.46192E+04  5.15485E+04 -3.56607E+04  4.73563E+04 -6.80144E+04 -6.24603E+03
 -5.24979E+04 -5.39521E+04 -1.01348E+04 -7.86386E+04  3.58319E+04 -6.17925E+04  5.25075E+04 -1.81757E+04
  4.32485E+04  1.02007E+04  3.06794E+04  2.95783E+04  1.78039E+04  2.89302E+04 -3.11406E+03  2.28793E+04
 -1.97645E+04  1.18823E+04 -1.99250E+04 -5.35088E+03  3.62866E+03 -6.21364E+03  2.08744E+04  1.35198E+04
  6.62168E+03  3.33354E+04 -2.92699E+04  3.97112E+04 -6.73485E+04  2.09706E+03 -5.44795E+04 -4.68812E+04
 -1.27355E+04 -6.15309E+04  4.29985E+04 -4.13676E+04  5.64746E+04 -1.56244E+03  3.55571E+04  3.00175E+04
 -5.77335E+03  3.35263E+04 -3.43500E+04  1.55291E+04 -3.21330E+04  1.93109E+03 -1.62060E+04 -1.25325E+04
 -1.00606E+04 -2.40263E+04  9.85279E+01 -1.64621E+04  1.14416E+04 -2.39700E+04  1.53609E+04 -1.46124E+04
  1.52656E+04  7.64794E+03 -6.60253E+03  1.05066E+04 -2.25121E+04 -3.76365E+03 -8.68645E+03 -3.17274E+04
  2.48387E+04 -4.53440E+04  5.11490E+04 -2.04081E+04  4.66115E+04  1.74058E+04  9.74704E+03  4.39867E+04
 -1.77074E+04  3.28761E+04 -2.91394E+04  4.54898E+03 -9.96631E+03 -2.93050E+04  2.05723E+04 -3.96374E+04
  3.92094E+04 -8.54950E+03  3.32829E+04  2.68930E+04  1.54495E+04  4.87187E+04 -7.06571E+03  5.26524E+04
 -2.97057E+04  3.63887E+04 -4.45602E+04  1.08286E+04 -3.90422E+04 -1.65681E+04 -2.60388E+04 -3.77163E+04
  8.43502E+03 -3.58590E+04  2.75709E+04 -1.68173E+04  3.43387E+04  1.09606E+04  6.30351E+03  2.08171E+04
 -1.20813E+04  7.77904E+03 -6.93532E+03 -8.05342E+03  4.91743E+03 -1.04944E+04  1.81405E+04  5.48553E+03
  1.51990E+04  2.24173E+04 -2.71791E+03  2.99787E+04 -2.15653E+04  6.43868E+03 -3.09724E+04 -7.07667E+03
 -2.48153E+04 -1.87915E+04 -1.26702E+04 -2.45315E+04  2.04691E+03 -2.02769E+04  1.87543E+04 -1.59004E+04
  2.42013E+04 -1.59074E+04  3.62374E+04  2.51518E+03  2.54971E+04  2.23518E+04  1.10729E+03  3.77763E+04
 -1.83504E+04  3.87170E+04 -3.30736E+04  9.00476E+03 -2.58374E+04 -1.12778E+04 -1.17217E+03 -1.78834E+04
  2.73095E+03 -5.24435E+02 -3.75922E+03  6.20374E+03 -1.66831E+04  9.90573E+03 -1.47479E+04 -7.41607E+03
 -1.18846E+04 -2.23464E+04  3.28916E+03 -2.10304E+04  1.39866E+04 -1.46696E+04  1.82599E+04 -4.61881E+02
  1.48362E+04  1.39681E+04  2.04004E+03  1.76407E+04 -1.09915E+04  1.05446E+04 -1.75221E+04 -4.31335E+03
 -1.49663E+04 -1.93054E+04 -3.73531E+03 -2.50462E+04  1.31846E+04 -2.43312E+04  2.38857E+04 -1.30885E+04
  1.54130E+04 -3.92241E+02  1.35140E+04  3.78256E+03  1.04570E+04 -1.74143E+03  1.00116E+04  4.81097E+01
  1.45123E+04  5.66200E+02  1.76252E+04  1.39087E+04  1.42225E+04  3.34752E+04 -3.29009E+03  3.62985E+04
 -1.81592E+04  2.98695E+04 -3.68750E+04  1.50952E+04 -3.88454E+04 -5.55940E+03 -2.88613E+04 -1.67077E+04
 -1.45688E+04 -2.68879E+04  5.06677E+03 -2.35517E+04  2.37114E+04 -1.59996E+04  1.69853E+04  5.40566E+03
  7.21758E+03  1.41049E+04 -8.38758E+03  1.31486E+04 -1.67296E+04  1.59707E+03 -1.02926E+04 -8.51787E+03
  1.12788E+03 -1.73116E+04  1.20595E+03 -6.37596E+03  7.93056E+03 -3.37295E+03  1.37737E+03  1.37929E+04
 -8.18570E+03  3.93474E+03 -5.46781E+03 -9.46864E+03  6.93772E+02 -1.42436E+04  8.89906E+03 -2.15856E+04
  1.43516E+04 -4.52526E+03  2.41530E+04  1.48338E+03  1.72257E+04  1.26105E+04  5.52022E+03  1.73352E+04
 -3.20569E+03  2.58823E+04 -1.48012E+04  1.37796E+04 -1.92877E+04  8.13042E+02 -9.08057E+03 -1.48954E+02
 -2.79819E+03 -5.62462E+03 -9.67545E+02 -4.55001E+02 -5.23432E+03  6.08485E+03 -7.63995E+03  1.66217E+03
 -1.39456E+04 -2.20384E+03 -1.63043E+04 -1.17568E+04 -2.29586E+03 -1.42630E+04  3.62625E+03 -1.38661E+04
  1.71127E+04 -1.22423E+03  6.62410E+03  8.86574E+03 -1.56685E+03  7.15890E+03 -7.22084E+03  1.10755E+03
 -3.69195E+03 -9.55105E+03 -2.57116E+03 -8.51828E+03  1.12846E+04 -1.01655E+04  1.72488E+04 -9.37184E+03
  1.13750E+04  1.07625E+03  1.64336E+04  5.77049E+03  2.05631E+03  1.50404E+04 -5.68833E+03  1.30236E+04
 -7.51511E+03  5.36767E+03 -6.65418E+03 -2.24810E+03  2.92634E+03 -6.21839E+03  9.37877E+03 -1.22836E+03
  9.90979E+03  3.83735E+03  2.09581E+03  8.39583E+03 -8.26429E+03  1.23709E+04 -5.75079E+03  5.93667E+02
 -5.05016E+03 -4.14014E+03 -9.03942E+02 -9.65337E+03  4.64926E+03 -7.91421E+03  6.97994E+03  1.45490E+03
  7.39692E+03  1.18411E+04 -4.78721E+03  6.66136E+03 -7.84455E+03  5.85717E+03 -6.02811E+03 -7.27265E+03
 -4.12329E+03 -1.26282E+04  2.98541E+03 -1.15526E+04  8.07802E+03 -6.64899E+03  8.75105E+03  3.15576E+03
  4.03386E+03  6.71217E+03  2.72899E+03  1.30633E+04 -8.00885E+03  5.98038E+03 -3.04167E+03  3.19004E+03
 -6.27119E+03 -6.59637E+03 -4.53608E+03 -9.53969E+03  5.30400E+03 -8.91764E+03  6.68222E+03 -4.38714E+03
  2.04408E+03 -1.00694E+03  9.94417E+01  1.62625E+03  6.29451E+02 -6.61979E+03 -1.28126E+02 -2.73980E+03
  5.90144E+03 -5.71727E+03  9.75892E+03  3.64771E+03  1.17422E+04  7.62958E+03  1.18516E+04  1.09861E+04
 -5.54668E+03  1.29157E+04 -1.38725E+04  1.17296E+04 -1.74722E+04 -1.99983E+02 -5.63204E+03 -2.63322E+03
 -9.51646E+03 -1.08554E+04  3.41101E+02 -1.22953E+04 -7.66586E+02  9.12595E+01  7.48249E+02 -1.14580E+03
  1.49689E+03 -1.07631E+03  4.90095E+03 -1.80814E+03  3.14097E+03 -2.32740E+03  3.95537E+03 -4.43988E+03
  8.72494E+03  6.84714E+03  3.07701E+03  8.73788E+03 -2.27364E+02  3.26023E+03 -8.19042E+03  8.93865E+03
 -6.63492E+03 -4.51034E+03 -1.28565E+03 -5.29190E+03  1.07049E+03 -9.80866E+03  3.12970E+03 -1.26116E+04
  1.02675E+04 -5.73508E+03  1.11553E+04  9.85348E+02  8.46433E+03  1.08434E+04 -1.50821E+03  1.25991E+04
 -6.60727E+03  8.48248E+03 -6.92575E+03 -1.14444E+03 -2.16358E+03  4.11953E+03 -1.06238E+03  1.89479E+03
  2.69617E+03 -2.65738E+02 -1.24518E+03  5.47670E+02 -8.63619E+03  1.57665E+03 -1.99396E+03  1.43343E+03
  2.00310E+03 -7.28439E+03  3.88057E+03 -1.16128E+04  6.61597E+03 -1.47178E+04  1.00756E+04  1.11179E+03
  7.95846E+03  2.03539E+03  2.76087E+03  5.60321E+03 -4.39119E+02  7.54617E+03 -8.42466E+03  7.74751E+03
 -5.34769E+03 -2.67057E+03 -4.54202E+03 -3.39711E+03 -3.10249E+03 -4.99536E+03  4.02121E+03 -5.91733E+03
  3.98989E+03 -9.66609E+02  5.90077E+03  1.01771E+03  5.21043E+03  5.81545E+03 -2.14522E+03  5.58065E+03
  1.59049E+03  3.24751E+02  4.67923E+03  4.52023E+02  2.08859E+03  4.29739E+03  2.07235E+02  6.31581E+03
 -1.13948E+03  3.35328E+03 -6.50608E+03  5.99291E+03 -1.10932E+04  1.97012E+03 -9.48242E+03 -5.26816E+03
 -5.34490E+03 -1.76549E+04  4.93582E+03 -3.95915E+03  3.89129E+03 -2.87845E+03  5.96555E+03 -2.38058E+03
  6.46832E+03  7.72224E+03  2.98526E+03  6.61851E+02 -1.11734E+03 -4.81153E+02 -4.59476E+03  8.58087E+02
 -1.50487E+03 -4.27373E+03  1.05526E+03  8.33297E+02  8.88487E+02 -4.05943E+03 -7.94529E+02  2.38161E+03
  1.76887E+03  4.80039E+02  9.85683E+02  3.61586E+02 -3.30183E+03 -3.08184E+02  1.99194E+03 -1.71996E+03
  9.02873E+02 -5.03216E+03  1.24242E+03  3.02722E+03 -3.39960E+03 -1.47506E+03 -4.88262E+03  4.39049E+03
 -2.96607E+03  5.25727E+03 -1.01261E+04 -5.46930E+02 -4.93357E+03 -2.41346E+02 -1.99705E+03 -1.87581E+03
  2.36141E+03  1.64398E+02  4.68812E+03  5.76537E+02 -1.17390E+03  2.91663E+03  3.17633E+03  1.53058E+03
  8.51994E+02 -4.81602E+02 -8.32624E+03 -2.14160E+03 -2.82463E+03  5.94448E+02 -1.26071E+03 -4.92076E+03
  3.79498E+03 -2.86878E+03  5.30905E+03 -4.97463E+03  5.94316E+03 -2.67907E+03  3.09516E+03  3.78396E+03
 -3.76204E+03  1.04602E+03 -5.25184E+03 -1.84792E+03 -3.32645E+02  6.54672E+02  6.30505E+03  1.66863E+03
  2.94038E+03 -2.03095E+03  9.94737E+03  2.99132E+02 -2.36917E+03  6.71504E+03  1.56286E+03  3.94895E+03
 -7.82390E+03  3.61408E+02 -8.16417E+03 -2.89252E+03 -1.80989E+03 -5.63530E+02  9.27831E+02 -5.02446E+03
  3.53254E+03  3.00325E+03  4.20423E+03  2.64875E+03  9.32318E+02  4.67491E+03  9.47620E+02  3.42783E+03
 -3.30560E+03  6.04793E+03 -6.46772E+03  4.86486E+03 -3.90613E+02  7.00549E+03 -4.27025E+03  3.54083E+03
  3.08617E+02  5.07031E+03 -6.76775E+03  8.97811E+03 -8.16732E+03  3.09747E+03 -1.08166E+03 -3.35590E+03
 -6.65374E+03 -4.47730E+03  9.99255E+02 -7.57986E+03  6.76337E+03 -1.05098E+04  9.51763E+03 -2.22169E+02
  7.40709E+03  2.30087E+03  1.90201E+03  6.84418E+03  2.99090E+03  6.92969E+03  1.00306E+03 -5.66876E+02
  2.63528E+02  3.52341E+03 -1.84632E+03 -1.36483E+03 -6.79591E+02 -1.43019E+03 -3.63450E+02 -5.83565E+03
 -8.86091E+02  2.16924E+03 -2.90715E+03  1.85536E+03  3.05578E+02 -7.60048E+02  6.32252E+03 -2.59138E+03
  3.57391E+03 -4.64585E+03  1.18082E+03  6.31830E+02  2.07028E+03  1.92632E+03  7.87685E+02  4.84613E+03
 -2.58600E+02  5.89231E+03 -7.71535E+03  5.06881E+03 -3.39683E+03 -3.14392E+03 -1.22173E+02  2.15135E+03
  3.51264E+02 -6.03108E+03 -9.57516E+02 -5.67305E+03  8.18000E+02 -3.36004E+03  2.09855E+03  2.14637E+03
 -1.24303E+03  2.46863E+03 -1.00094E+03  1.38311E+03  1.72033E+03  3.15001E+03 -2.78718E+03  2.07457E+03
  3.38861E+03  1.44136E+03  3.96385E+03 -1.92294E+02  2.94446E+03  7.53146E+02 -3.67369E+03  5.18375E+02
 -2.48927E+03  3.10417E+03 -1.67996E+03 -5.16259E+03 -2.42058E+03 -5.18953E+03  1.26505E+03 -3.87698E+03
 -3.63807E+03 -2.44990E+03  3.12551E+03 -3.17944E+03 -4.81969E+02  2.95360E+03 -1.41030E+03  7.29095E+03
 -3.25804E+03  3.75348E+02 -2.51551E+03 -1.02143E+03 -2.87938E+03 -5.26818E+03  4.81869E+03  4.17019E+02
 -1.70785E+03 -5.77148E+03 -8.98953E+02  5.17197E+02 -2.76426E+03 -1.32039E+03 -1.00912E+03 -5.16182E+03
  1.75553E+03 -2.12423E+03  3.47596E+03 -1.11333E+03  1.58547E+03 -3.95271E+03 -2.10943E+03 -1.07381E+03
  2.09762E+03  1.32228E+03 -5.74572E+03  2.66258E+03 -1.27823E+02  3.66289E+03  2.12447E+02  7.08246E+03
