 $NMID ID='MM_0lb_SNR50_13hz_g60_45.RAW', FMTDAT='(8E13.5)'
 TRAMP=1., VOLUME=1. $END
  3.05597E+05  1.61022E+03  3.44197E+05  2.50907E+05  8.58355E+04  3.40754E+05 -1.36942E+05  2.50993E+05
 -1.89465E+05  8.38803E+04 -1.13756E+05 -3.44422E+04  2.35597E+03 -5.13236E+04  5.23759E+04 -2.70759E+03
  3.43553E+04  5.26185E+04 -1.76606E+04  7.55018E+04 -5.65418E+04  7.06863E+04 -8.30688E+04  3.18897E+04
 -8.40709E+04 -1.39424E+04 -5.37854E+04 -4.85295E+04 -1.42242E+04 -7.09924E+04  2.96473E+04 -4.47384E+04
  4.42215E+04  1.19188E+03  1.01740E+04  4.84400E+04 -2.83444E+04  4.79927E+04 -7.16174E+04  4.36534E+01
 -5.25279E+04 -5.64966E+04 -5.00736E+03 -7.60819E+04  3.33514E+04 -5.76590E+04  4.71321E+04 -1.80160E+04
  4.70299E+04  1.00383E+04  3.44432E+04  2.77269E+04  1.74718E+04  2.68396E+04 -1.30453E+03  2.48889E+04
 -1.88221E+04  5.56551E+03 -1.82476E+04 -3.93273E+03  1.00000E+04 -1.03137E+04  2.09962E+04  9.34708E+03
  3.34644E+03  3.61099E+04 -3.78799E+04  3.10430E+04 -6.52995E+04  9.63586E+02 -6.03233E+04 -4.17782E+04
 -7.45159E+03 -5.98176E+04  4.46994E+04 -4.50290E+04  5.84628E+04  1.11172E+03  3.45020E+04  2.92887E+04
 -1.01361E+04  3.48831E+04 -2.78043E+04  1.52187E+04 -3.09113E+04 -6.55392E+03 -2.12739E+04 -1.06998E+04
 -1.09693E+04 -1.55219E+04 -5.77906E+02 -2.29902E+04  6.85016E+03 -2.49325E+04  1.49106E+04 -9.88057E+03
  1.18766E+04  5.31145E+03 -7.42160E+03  1.22404E+04 -2.50201E+04 -3.63530E+03 -3.56651E+03 -3.70152E+04
  2.64746E+04 -4.49235E+04  5.08078E+04 -2.38265E+04  4.69827E+04  1.54699E+04  1.32397E+04  4.63652E+04
 -1.67817E+04  3.86134E+04 -2.49090E+04  2.64849E+03 -9.37848E+03 -3.18978E+04  1.72413E+04 -3.19371E+04
  4.58002E+04 -1.26212E+04  3.80900E+04  2.08847E+04  1.73244E+04  3.99668E+04 -1.06315E+04  5.45964E+04
 -2.93925E+04  3.80726E+04 -4.81897E+04  7.74728E+03 -4.76233E+04 -1.72001E+04 -2.59398E+04 -3.78346E+04
  8.76880E+03 -4.49516E+04  3.07702E+04 -1.45044E+04  3.20576E+04  6.60090E+03  2.80877E+03  1.96953E+04
 -1.17255E+04  5.48369E+03 -8.63796E+03 -1.04687E+04  1.01284E+04 -1.19140E+04  1.81687E+04  7.20149E+03
  1.66842E+04  2.26398E+04 -7.55360E+03  2.19316E+04 -2.63737E+04  1.25710E+04 -3.37487E+04 -2.99510E+03
 -2.09649E+04 -1.47138E+04 -9.84158E+03 -1.95442E+04  2.70635E+03 -2.45510E+04  1.06108E+04 -1.67993E+04
  2.62273E+04 -1.14695E+04  3.89289E+04  1.40080E+03  2.46929E+04  2.20086E+04  1.04781E+04  3.76637E+04
 -2.21442E+04  3.05022E+04 -2.99802E+04  1.20382E+04 -2.32841E+04 -1.12097E+04 -3.68835E+03 -1.32517E+04
  4.72638E+03 -6.29796E+03 -7.39367E+03  4.54785E+03 -2.25466E+04  7.91394E+03 -1.54136E+04 -7.87193E+03
 -1.07076E+04 -2.14552E+04  1.07201E+04 -2.87547E+04  1.82105E+04 -1.94087E+04  1.73473E+04 -3.57163E+03
  9.31987E+03  1.56386E+04  9.38552E+02  1.76485E+04 -1.56803E+04  1.47416E+04 -1.85968E+04 -4.27472E+03
 -2.34254E+04 -2.04081E+04 -5.20013E+03 -2.47825E+04  7.37048E+03 -2.01895E+04  2.37347E+04 -5.30869E+03
  2.19820E+04 -9.40816E+02  1.42114E+04  1.94842E+02  7.27388E+03  5.76405E+02  1.20329E+04 -4.27753E+03
  1.93215E+04  4.82823E+03  2.11424E+04  1.59520E+04  4.94248E+03  3.08361E+04 -6.28129E+03  3.39527E+04
 -1.96211E+04  3.40544E+04 -3.79498E+04  1.78058E+04 -3.79778E+04 -5.07267E+03 -2.93609E+04 -2.57416E+04
 -1.30464E+04 -3.37323E+04  5.02125E+03 -2.85931E+04  2.54237E+04 -1.33708E+04  1.95666E+04  1.02973E+04
  8.12688E+03  1.55886E+04 -8.60496E+03  1.62160E+04 -2.13554E+04  3.76655E+03 -1.25074E+04 -1.17977E+04
  7.32998E+02 -1.74660E+04  1.19795E+04 -1.03383E+04  5.59111E+03 -1.95456E+03  3.03584E+03  9.64744E+03
 -1.29037E+04 -1.19170E+02 -1.04000E+04 -4.88585E+03 -2.09785E+03 -1.47378E+04  1.28156E+04 -1.59915E+04
  1.88004E+04 -5.32184E+03  1.86144E+04  4.33928E+02  1.54097E+04  1.52361E+04  6.91116E+03  2.40061E+04
 -3.51205E+03  2.24787E+04 -1.84410E+04  1.41085E+04 -1.99059E+04  2.83063E+03 -1.41249E+04 -4.56678E+03
 -2.19642E+03 -8.66056E+03 -2.09840E+03 -3.12079E+03  1.84062E+03 -1.34526E+03 -5.98957E+03  7.10760E+03
 -1.06776E+04 -1.29886E+03 -1.33899E+04 -1.06609E+04 -4.59365E+03 -1.48480E+04  1.55392E+03 -6.69853E+03
  6.57530E+03  1.90310E+03  7.20574E+03  8.93665E+03  3.32869E+03  3.18097E+03 -1.23661E+04  1.64082E+03
 -4.09614E+03 -8.11745E+03 -4.00983E+03 -1.18531E+04  7.60224E+03 -1.09599E+04  2.00927E+04 -5.20209E+03
  2.07540E+04  2.78249E+03  2.08929E+04  1.28592E+04  6.78444E+03  1.68577E+04 -5.60303E+03  1.33565E+04
 -9.16650E+03  1.61753E+03 -5.37701E+03  2.62771E+03  5.83096E+03 -2.84375E+03  1.00745E+04  2.05640E+03
  9.04714E+03  6.56503E+03  5.11441E+03  9.90442E+03 -6.05720E+03  6.25508E+03 -9.85647E+03  7.07338E+03
 -9.25744E+03 -9.47547E+03  1.12387E+03 -1.01857E+04  9.99594E+03 -4.46719E+02  1.01487E+04  1.28738E+03
  5.17042E+03  5.16686E+03 -6.37250E+03  5.38215E+03 -1.13911E+04  4.77214E+03 -1.11910E+04 -2.18026E+03
 -8.85182E+03 -1.45953E+04  2.07544E+03 -1.43802E+04  1.39653E+04 -3.67101E+03  1.51039E+04  3.71915E+03
  8.98371E+03  1.20395E+04 -1.86688E+03  1.03798E+04 -7.03752E+03  7.54758E+03 -9.33289E+03  2.14152E+03
 -9.05629E+03 -5.20605E+03 -4.63709E+03 -6.33088E+03  4.84109E+03 -6.48761E+03  1.14112E+04 -7.29000E+03
 -2.94672E+03  6.58343E+02 -5.99790E+02  1.45481E+03  1.76402E+03  3.29716E+03 -4.62105E+02 -1.67657E+02
  8.00900E+03 -6.57021E+03  1.58928E+04  6.36555E+03  1.19487E+04  6.79256E+03  7.74309E+03  1.22640E+04
 -3.46658E+03  1.63018E+04 -1.45150E+04  1.19012E+04 -2.12297E+04  4.99366E+02 -1.39635E+04 -3.90229E+03
 -7.91886E+03 -1.78623E+04  2.96933E+03 -9.06230E+03  4.31436E+03 -2.60368E+03  4.34283E+03 -7.87369E+03
 -1.81409E+03 -4.08726E+03  8.40600E+03 -4.25024E+03  1.22655E+03 -8.59309E+03  9.13623E+03 -3.86951E+03
  1.06938E+04 -1.19444E+02  3.54036E+03  6.71666E+03 -2.80285E+03  6.36654E+03 -8.73821E+03  4.52028E+03
 -9.60131E+03 -2.57931E+03 -6.26989E+03 -6.04083E+03 -8.21444E+02 -3.90233E+03  1.21941E+04 -8.79437E+03
  1.30518E+04 -2.63176E+03  1.29231E+04 -7.65782E+02  1.21191E+04  1.63320E+04  3.36946E+03  8.52494E+03
 -4.58417E+03  1.12716E+04 -5.07694E+03 -4.01821E+03 -1.93883E+02  4.01763E+03 -2.75452E+03 -1.03497E+03
  8.16905E+02  5.18959E+03 -4.20111E+02  3.79118E+03 -6.58150E+03  6.23146E+03 -7.87266E+03  2.98014E+03
 -6.88858E+03 -2.44239E+03  3.45199E+03 -1.16919E+04  5.23759E+03 -1.11162E+04  1.01461E+04 -5.05908E+03
  9.37583E+03  6.66929E+03  6.89047E+03  1.18963E+04 -3.47869E+03  6.77897E+03 -2.66040E+03  4.07457E+03
 -7.51239E+03  6.94017E+03 -9.86166E+03 -3.50572E+03 -6.52683E+03 -1.39031E+04  1.21789E+03 -1.46386E+04
  5.18273E+03 -1.04115E+03  4.65790E+03  1.40022E+03  2.16586E+03  7.63759E+03 -2.31992E+03 -1.21379E+03
 -1.61837E+02  5.38987E+02  5.33137E+03 -1.73557E+03 -3.66823E+03  2.20694E+03  1.83714E+03  4.32570E+03
 -1.53425E+03  5.09396E+03 -7.11668E+03  5.07010E+03 -1.08468E+04  5.09713E+03 -7.83748E+03 -1.53526E+03
 -3.21173E+03 -1.16402E+04  1.06761E+04 -1.01801E+04  7.49033E+03 -6.98712E+03  1.73759E+04  5.34051E+02
  7.56622E+03  1.03713E+04  5.80308E+03  3.87499E+03 -3.09778E+03  4.25311E+03 -1.94230E+03  1.36279E+03
 -3.99601E+03 -5.26084E+03 -1.72348E+03 -3.66927E+03  1.70914E+03 -3.17917E+03  2.36397E+03  1.12107E+03
 -5.26174E+02  1.56584E+03  4.49137E+03  1.99117E+03  5.68234E+03  1.13719E+02  5.22101E+03 -3.15783E+03
  1.12244E+03  1.69592E+03  3.75391E+03 -2.78015E+03  2.75271E+02  3.30790E+03 -2.51803E+03 -7.66700E+02
 -7.99845E+03 -4.49299E+02 -3.80743E+03  3.67340E+03 -3.73584E+03 -6.34891E+02  2.12528E+03 -1.59808E+03
  5.29473E+02 -6.00945E+03  4.16289E+03 -2.01214E+03  1.21568E+03  5.59717E+03 -1.62386E+03  4.14266E+03
 -3.14753E+02  3.38584E+02 -4.86573E+03 -4.38669E+03 -3.37938E+03 -8.60472E+03  4.03589E+02 -1.18353E+03
  4.85947E+03  1.06470E+00  3.83840E+03  7.10997E+02  3.93671E+03  4.72648E+03  1.36855E+03  4.79481E+03
 -6.44944E+03  5.06503E+03 -5.95743E+03 -6.29999E+03  1.33617E+03 -8.73327E+03 -1.29575E+02 -7.70629E+03
  7.47883E+03 -3.56640E+03  3.18293E+03  8.61648E+03 -1.08836E+03  7.37037E+03 -1.87932E+03  3.61992E+03
 -5.82491E+03  4.02864E+02 -3.28655E+03  3.57578E+03 -5.27524E+03 -6.47366E+03  3.79998E+03 -1.80608E+03
  6.92458E+03  5.80335E+02  3.21450E+03  1.37284E+03 -8.62255E+02  2.58376E+03  5.30851E+03  3.90243E+03
  1.96544E+03  7.02373E+03  7.76285E+02  1.59833E+03 -3.01933E+02 -3.85965E+03  9.10873E+02 -6.32655E+03
 -7.39671E+02  5.61155E+03  8.07473E+02  8.52222E+03 -5.48140E+03  2.52426E+02 -9.60682E+03 -5.22545E+03
 -2.44206E+03 -1.01088E+04  7.82396E+02 -1.21720E+04  7.21062E+02 -1.02913E+04  7.24371E+03 -4.17483E+03
  4.04951E+03  1.78916E+03  2.63752E+03  4.53294E+03 -1.12635E+03  5.69209E+03  1.42413E+03  7.70256E+03
 -7.83096E+03  1.90772E+03 -2.11510E+03 -1.59769E+03  5.54440E+02  3.54200E+03 -6.37467E+02  2.54328E+03
 -1.64313E+03  3.13894E+03  9.89605E+02 -2.38557E+03 -2.38622E+03  2.44067E+03  2.47769E+03 -5.28425E+02
  4.58630E+03  2.83880E+03  3.98538E+03  1.38740E+02  4.18268E+03  1.95676E+03 -3.66005E+02  1.00922E+04
 -6.92864E+03  1.02054E+04 -1.08909E+04 -1.14100E+03 -5.43439E+03 -1.35110E+03 -6.47411E+03 -7.47956E+03
 -1.92287E+03 -9.55344E+03  3.89134E+03 -3.42603E+03 -6.44979E+02 -2.90438E+03 -1.88600E+03  1.38322E+03
  5.70606E+03 -1.35385E+03 -3.17729E+03  9.33423E+02  1.33731E+03 -1.91850E+03 -2.74407E+03 -3.95521E+03
  1.70979E+03 -5.31232E+03  4.28550E+03 -1.93613E+03  4.20027E+03  3.00701E+03  2.51386E+02 -1.57674E+02
  1.56758E+03  2.08126E+03 -5.79483E+02 -3.81913E+03 -2.24281E+03  1.62124E+03 -6.10782E+02 -4.15194E+03
 -9.89249E+01 -1.61988E+03  8.79157E+03  1.11345E+03  4.41238E+03  2.34129E+03  4.96329E+03  3.38044E+03
 -4.46438E+02  4.64045E+03  3.52118E+03 -1.29640E+03 -7.54673E+03  1.12529E+03 -3.18308E+03 -1.83320E+03
  1.82752E+03 -6.66939E+03 -6.87465E+02  1.14214E+03 -5.51446E+03 -4.32670E+03  3.11842E+03  8.69115E+02
 -3.36410E+03 -9.82908E+02 -6.20207E+02 -2.46007E+03  1.47129E+01 -5.72712E+03  2.71583E+03  1.50189E+02
  1.60497E+03 -4.85840E+03  1.68936E+02 -1.15685E+03  2.94278E+03 -7.20650E+02 -4.68741E+03  2.44578E+03
