 $NMID ID='MM_0lb_SNR50_19hz_g50_80.RAW', FMTDAT='(8E13.5)'
 TRAMP=1., VOLUME=1. $END
  3.05394E+05  8.50698E+02  3.37914E+05  2.47125E+05  8.50506E+04  3.35956E+05 -1.31225E+05  2.48715E+05
 -1.91648E+05  7.95856E+04 -1.09181E+05 -3.23777E+04  4.38867E+03 -4.90291E+04  5.45079E+04  1.91316E+03
  3.49151E+04  5.48652E+04 -1.75488E+04  7.73618E+04 -5.88074E+04  6.02640E+04 -8.28320E+04  3.12571E+04
 -7.89894E+04 -1.52520E+04 -5.37655E+04 -5.05455E+04 -1.39237E+04 -6.77942E+04  3.01996E+04 -4.82303E+04
  3.92514E+04  2.65333E+03  1.49952E+04  4.61320E+04 -2.90646E+04  4.48386E+04 -6.52574E+04  2.36941E+02
 -5.29112E+04 -5.27702E+04 -4.45132E+03 -7.43951E+04  3.70332E+04 -5.17513E+04  4.73621E+04 -1.75330E+04
  4.20673E+04  8.15133E+03  2.96974E+04  2.28317E+04  1.70972E+04  2.93484E+04 -3.57416E+03  2.89853E+04
 -2.06859E+04  1.34963E+04 -1.87525E+04 -6.98073E+03  3.40417E+03 -7.88534E+03  2.42245E+04  1.68823E+04
  3.89414E+03  2.71996E+04 -2.82568E+04  3.68454E+04 -6.48334E+04  2.56150E+03 -5.23020E+04 -4.19772E+04
 -1.30612E+04 -6.45533E+04  4.23404E+04 -4.18929E+04  5.32563E+04 -2.09868E+03  3.01038E+04  3.17190E+04
 -7.30294E+03  3.46066E+04 -2.94160E+04  1.66065E+04 -2.52391E+04 -4.79471E+03 -1.56998E+04 -9.94333E+03
 -9.58950E+03 -1.20206E+04 -1.59723E+03 -1.52399E+04  2.15170E+03 -1.94704E+04  1.76206E+04 -1.37071E+04
  1.30436E+04  3.56130E+03 -2.49652E+03  1.34109E+04 -1.95897E+04 -3.39520E+03 -8.91191E+03 -3.09011E+04
  2.12299E+04 -4.06784E+04  4.38932E+04 -1.92091E+04  4.39346E+04  1.57969E+04  1.30645E+04  4.20974E+04
 -1.60004E+04  2.92875E+04 -2.57081E+04  1.96697E+03 -1.01639E+04 -2.32267E+04  2.20666E+04 -2.89865E+04
  3.83974E+04 -6.32634E+03  3.35552E+04  2.15170E+04  1.82697E+04  4.39130E+04 -7.65087E+03  4.52361E+04
 -2.92759E+04  3.10826E+04 -3.77742E+04  6.66137E+03 -3.99150E+04 -1.44903E+04 -2.01894E+04 -3.97040E+04
  8.42293E+03 -3.52582E+04  3.18178E+04 -1.18419E+04  2.82058E+04  6.65940E+03  1.62122E+03  2.23418E+04
 -1.37297E+04  4.98639E+03 -1.17993E+04 -9.58742E+03  7.74898E+03 -1.24335E+04  1.56415E+04  4.09952E+03
  1.38597E+04  2.47603E+04 -4.64594E+03  2.11846E+04 -2.01332E+04  1.04336E+04 -2.55634E+04 -8.25438E+03
 -1.98157E+04 -1.80170E+04 -4.39875E+03 -1.79585E+04  3.99594E+03 -1.45512E+04  1.13926E+04 -1.58015E+04
  2.11966E+04 -8.70828E+03  2.71308E+04 -2.62385E+02  2.34647E+04  1.61528E+04  2.18633E+03  3.20518E+04
 -1.20288E+04  2.80568E+04 -2.93646E+04  1.39157E+04 -2.12673E+04 -1.21200E+04 -5.40392E+02 -1.17697E+04
  2.40432E+03 -8.64253E+03 -5.41530E+02  8.11802E+03 -1.06067E+04  5.83740E+03 -1.63931E+04 -3.90578E+03
 -9.59892E+03 -1.32748E+04  3.24623E+03 -2.02080E+04  1.11614E+04 -1.63046E+04  1.39460E+04 -4.40614E+03
  1.06479E+04  1.00952E+04  4.58582E+01  1.98934E+04 -9.84079E+03  9.46572E+03 -1.54266E+04 -1.11566E+04
 -1.17775E+04 -1.38695E+04 -1.79723E+02 -1.15573E+04  6.62723E+03 -1.73301E+04  1.85149E+04 -7.21343E+03
  1.82862E+04  1.54301E+03  1.23711E+04  6.95542E+03  5.21061E+03 -9.70796E+02  7.11298E+03 -2.86898E+03
  1.40304E+04  5.55426E+03  1.43517E+04  1.27786E+04  1.15491E+04  2.50858E+04  5.33024E+02  2.92725E+04
 -1.42073E+04  2.10354E+04 -2.41128E+04  8.47265E+03 -2.52794E+04 -8.43403E+02 -2.48380E+04 -1.59682E+04
 -1.06649E+04 -1.83422E+04  6.40211E+03 -2.11750E+04  1.55608E+04 -9.01817E+03  1.58704E+04  2.61174E+03
  3.05402E+03  8.37851E+03 -8.07291E+03  1.31395E+04 -1.44400E+04  4.80740E+03 -1.06158E+04 -5.34665E+03
  1.28800E+03 -8.70093E+03  4.57470E+03 -5.11700E+03  6.58095E+03 -3.56555E+03  3.39752E+03  6.32204E+02
 -7.69146E+03  1.70077E+03 -9.42770E+03 -5.47311E+03 -2.95545E+03 -8.26865E+03  8.19291E+03 -1.00336E+04
  1.17720E+04 -6.39049E+03  9.62525E+03  2.93313E+03  8.31371E+03  1.01531E+04  5.36853E+03  1.30951E+04
  3.40449E+03  1.69719E+04 -7.30922E+03  7.76014E+03 -1.02836E+04  6.77500E+03 -2.81302E+03 -6.84519E+02
 -3.59335E+03 -3.22829E+03 -4.21207E+02  6.41955E+02  2.67315E+03  4.80527E+03 -3.81547E+03  2.45153E+03
 -7.02021E+03  2.29238E+02 -9.20111E+03 -6.89701E+03 -5.38816E+03 -1.23054E+04  1.27149E+03 -1.18895E+04
  6.46889E+03 -5.34507E+03  8.61481E+03  3.61646E+03  1.41784E+02  7.34024E+01 -2.72962E+03  1.78350E+03
 -5.44003E+03 -5.23129E+03 -5.56604E+02 -7.62647E+03  5.09011E+02 -8.03153E+03  1.09789E+04 -1.39838E+03
  8.16381E+03  2.04253E+03  9.94058E+03  7.76868E+03  2.81984E+02  6.38062E+03 -1.63217E+03  8.42310E+03
 -5.30260E+03  8.21861E+02 -6.35541E+02 -3.65069E+03  1.98785E+03  7.16426E+01  3.03161E+03 -6.35984E+02
 -9.22962E+01  5.29162E+03  8.59557E+03  5.84079E+03 -3.22460E+03  6.26124E+03 -3.55539E+03  6.81886E+02
 -1.68979E+03 -4.97879E+03 -1.90588E+03 -9.70265E+03  4.50939E+03 -2.20802E+03 -4.48476E+02  7.45979E+01
  2.61238E+03 -7.29384E+01 -2.59197E+03  1.45707E+03 -1.97216E+03  5.23205E+03 -4.05132E+03 -1.19169E+03
 -3.05249E+03 -5.34982E+03  5.13193E+03 -7.47691E+03  7.17991E+03 -6.64651E+03  4.47493E+03 -7.55833E+02
  7.13017E+03  7.43187E+03 -2.81809E+03  7.56413E+03 -2.53825E+03  1.58501E+03 -1.00345E+04  2.88542E+03
 -4.76039E+03 -9.55147E+03 -3.20955E+03 -7.42502E+03  6.44200E+03 -4.80736E+03  2.78118E+03 -4.79987E+03
  4.11912E+03  1.39358E+02 -5.15015E+03  7.78325E+03 -7.02202E+02  1.87106E+03  2.67790E+03 -2.66448E+03
  2.12647E+03 -2.05579E+03 -5.05024E+02  1.73184E+03  8.46623E+03  5.42929E+03  6.01690E+03  9.73926E+03
 -2.84075E+03  1.27599E+04 -9.48523E+03  7.27384E+03 -7.80815E+03 -6.50033E+03 -6.89255E+03 -2.91931E+03
 -5.58175E+03 -6.20097E+03 -1.04838E+03 -8.40208E+03  6.25595E+03 -2.60338E+03  2.25423E+03 -3.10707E+03
  1.44312E+02 -1.16507E+02 -2.41330E+03 -3.32880E+03  1.83845E+02  1.72295E+03  4.88176E+03 -1.18379E+03
  2.34024E+03  5.36437E+03 -1.30909E+03  4.72379E+03 -8.77351E+02 -2.60319E+02 -5.83346E+03 -1.38216E+02
 -2.85450E+03 -4.03804E+02  1.97765E+03 -3.12816E+03  2.63042E+03 -5.16162E+03 -3.15241E+02 -3.31881E+03
  9.56563E+03 -2.52427E+03  7.55482E+03  2.11176E+03  6.02678E+03  3.66592E+03  5.56336E+03  7.61837E+03
 -1.85979E+03  6.49854E+03 -3.78215E+03  1.32506E+03 -7.84526E+02 -7.77079E+02 -1.99765E+03 -3.97970E+03
  1.94692E+02  4.48032E+02  1.24728E+03  5.55148E+03 -5.26130E+03 -1.91939E+03 -3.38297E+03  1.97645E+03
 -4.39744E+03 -4.51487E+03  2.44955E+03 -1.21253E+03  5.82331E+03 -6.30828E+03  4.47169E+03 -9.47735E+02
  4.80150E+03 -2.73702E+03  1.30033E+03  2.01203E+03 -1.73294E+03  5.40765E+03 -1.90221E+03  2.52547E+03
 -3.81486E+03 -2.95587E+03 -5.77357E+03 -2.66495E+03  1.18265E+03 -4.97225E+03  1.69010E+03  1.67489E+03
  1.10312E+03  4.38824E+03  1.34571E+03 -4.26007E+03  6.69709E+02  6.89144E+03 -8.13572E+02  2.31788E+02
  9.47649E+02 -9.16571E+02  1.06097E+03  3.22464E+03  5.04149E+03  4.43346E+03  1.21230E+03 -3.09809E+03
 -8.12143E+02  7.04438E+03  3.30827E+02  1.39761E+03 -7.18390E+03  4.49648E+03 -6.23228E+03 -3.45462E+03
 -2.62445E+03 -1.25584E+03  1.33096E+03 -6.62731E+03  3.17817E+01  2.33420E+02 -1.28386E+03 -1.55708E+03
 -2.00782E+03  1.56112E+03 -2.92491E+03  1.73212E+03 -2.10646E+03 -2.23420E+03 -1.95171E+03 -2.28150E+03
  1.66537E+03  2.59153E+03  3.65825E+03 -5.37602E+02  2.70972E+03  1.20985E+03  2.62152E+03 -1.89063E+03
 -8.86300E+02 -9.54923E+02  2.08345E+03 -2.33371E+03  9.96795E+02 -1.49242E+03  1.88020E+02 -4.21415E+01
 -8.83397E+02 -3.55451E+03  1.44252E+03 -2.63748E+02 -3.93279E+03 -1.33780E+03 -2.46932E+03 -2.58009E+02
 -1.28735E+03  3.10968E+03 -3.51039E+03  4.00827E+03 -6.47360E+02 -2.77128E+03 -2.81192E+02 -1.29970E+03
  7.15354E+02 -3.61633E+02  1.44279E+03  2.13696E+03  2.29187E+03 -2.03617E+03  1.92776E+03 -1.78705E+03
  9.90233E+02  2.80596E+03 -2.96555E+03  1.68405E+03 -1.49031E+03 -2.23945E+03  2.08757E+03 -4.67362E+03
  5.32645E+03  3.93704E+02  1.68531E+03 -3.51127E+03  2.08996E+03  8.45987E+02 -8.43123E+02  7.26449E+02
  1.09605E+03  1.18406E+01 -2.61586E+03 -2.58313E+03  4.66283E+03 -4.92656E+03  5.16607E+03  7.59094E+02
  2.22994E+01 -7.62889E+02 -3.05328E+02 -1.26370E+03 -3.19885E+02  5.82688E+03 -1.77231E+03  1.78953E+03
  2.27029E+02  2.50937E+01 -1.71725E+03  1.35335E+03 -2.04402E+03 -3.58409E+03  1.58737E+03 -3.46623E+02
  1.28406E+03  9.41219E+02  1.93983E+03 -2.70656E+03  3.70270E+02  3.35250E+03 -1.09690E+03 -2.48190E+03
  1.10251E+03  3.29268E+03 -2.95516E+03  3.27279E+03 -8.94563E+02  3.95466E+03  1.76135E+03 -9.45600E+02
  3.87367E+02  3.66132E+03 -1.24731E+03 -1.51972E+03 -2.66892E+02 -1.03823E+03 -4.08763E+03  2.22580E+02
 -3.23174E+03 -4.18537E+03 -2.68077E+03 -1.62677E+03 -1.98292E+03 -3.66260E+03  3.87061E+03 -1.63156E+03
  3.99285E+03 -5.06243E+02  3.13033E+03 -1.30965E+03 -2.48196E+03  1.63426E+03 -3.50029E+03  2.19413E+03
 -1.52753E+03  2.22660E+03 -1.29499E+03 -2.78711E+02 -3.42630E+03 -6.77562E+02 -6.07700E+02 -1.14270E+03
  2.58330E+03  2.16853E+02  3.43426E+03 -6.22508E+02 -2.01107E+03  7.12405E+02  4.71230E+02 -5.45604E+02
 -2.12409E+03  6.15486E+03 -7.30404E+02  2.56072E+03 -1.35194E+03 -1.06463E+03 -1.40349E+03  4.50396E+03
  5.42731E+02  3.53817E+03  1.22844E+02  1.21832E+03 -1.42646E+03 -3.80343E+03  9.53209E+02  3.90681E+03
  2.40955E+03 -2.29862E+03  1.51268E+03 -2.40385E+02  2.63569E+03  1.32452E+03  1.72321E+03 -1.06539E+03
 -2.37359E+03 -2.08773E+03 -1.18905E+03 -1.81071E+03  2.91141E+03 -1.24218E+03 -4.27812E+03 -1.12253E+03
 -1.08105E+03 -1.92201E+03 -3.18904E+02 -1.27086E+03  3.08966E+03 -2.45359E+03 -4.35515E+02 -7.91607E+02
 -7.16595E+02 -1.12904E+03 -1.23896E+02 -4.12878E+03  1.59630E+03 -1.07445E+03  3.06138E+03  2.82782E+03
  1.73307E+03 -1.04764E+03 -1.36682E+03  3.69263E+02  2.11841E+02  1.84556E+03  5.25941E+02  9.92279E+02
  5.89002E+02  1.98989E+03  1.82191E+03 -7.86898E+01 -1.24121E+03 -2.68477E+03  1.05210E+03 -3.84716E+03
 -4.19343E+03  7.35118E+02 -1.74683E+03 -7.20852E+03  3.82314E+03  3.68238E+03 -5.51067E+02 -2.24963E+03
 -5.97775E+03  2.19027E+02 -3.25768E+03  3.74660E+03 -3.80653E+03  1.84491E+03 -5.42752E+02  3.76398E+02
 -1.25500E+03  4.56140E+03  2.54277E+03 -3.85587E+03  2.83928E+03 -2.46746E+03 -2.32558E+03 -3.53782E+03
