 $NMID ID='MM_0lb_SNR50_18hz_g55_80.RAW', FMTDAT='(8E13.5)'
 TRAMP=1., VOLUME=1. $END
  3.10721E+05  3.24589E+03  3.35882E+05  2.48428E+05  8.37817E+04  3.37325E+05 -1.31307E+05  2.47746E+05
 -1.86208E+05  8.71714E+04 -1.09263E+05 -3.14861E+04  1.37628E+03 -5.24389E+04  5.45454E+04 -9.59392E+02
  3.39995E+04  5.22599E+04 -1.72749E+04  7.35371E+04 -5.49132E+04  6.45727E+04 -8.23057E+04  3.02866E+04
 -8.18600E+04 -1.23710E+04 -6.04732E+04 -5.14967E+04 -1.23960E+04 -6.58044E+04  2.41891E+04 -4.55287E+04
  3.66796E+04  2.15877E+03  1.45379E+04  4.80600E+04 -3.40862E+04  4.90319E+04 -6.50289E+04  2.79108E+03
 -5.38470E+04 -5.48175E+04 -3.18071E+03 -7.92858E+04  3.57351E+04 -5.61397E+04  4.73213E+04 -1.63841E+04
  4.55907E+04  1.52788E+04  2.76843E+04  2.75940E+04  1.21952E+04  2.71959E+04 -5.62742E+03  2.47943E+04
 -2.15718E+04  1.30740E+04 -2.05625E+04 -4.56898E+03  2.30387E+03 -7.03880E+03  2.12131E+04  9.60747E+03
  7.17437E+03  3.32572E+04 -3.14044E+04  3.57803E+04 -6.47302E+04 -2.28155E+03 -5.43839E+04 -4.43949E+04
 -1.12454E+04 -6.18451E+04  3.62892E+04 -4.29361E+04  5.74407E+04  1.48364E+03  2.79986E+04  3.27724E+04
 -8.43241E+03  3.32312E+04 -2.92493E+04  1.52398E+04 -3.20552E+04 -5.33151E+03 -1.67716E+04 -1.22501E+04
 -7.78687E+03 -1.08243E+04  1.82641E+03 -1.54222E+04  1.11115E+04 -2.58365E+04  2.01557E+04 -1.46381E+04
  1.23248E+04  3.64003E+03 -6.09082E+03  1.44778E+04 -1.78521E+04 -4.70618E+03 -1.11849E+04 -3.37706E+04
  2.29817E+04 -3.57244E+04  4.31243E+04 -1.82902E+04  4.18905E+04  1.87120E+04  1.81693E+04  4.63463E+04
 -1.84218E+04  3.35660E+04 -2.15754E+04  5.88160E+02 -1.14856E+04 -2.85095E+04  2.31625E+04 -3.13682E+04
  3.93811E+04 -9.42139E+03  3.10821E+04  2.58319E+04  1.61448E+04  4.81029E+04 -1.22982E+04  4.48454E+04
 -2.79415E+04  3.16265E+04 -3.75384E+04  7.32351E+03 -3.74830E+04 -1.59478E+04 -2.09033E+04 -3.63608E+04
  5.89311E+03 -3.50336E+04  3.17578E+04 -1.65301E+04  2.76869E+04  1.39066E+04  4.17836E+03  1.74511E+04
 -1.58724E+04  6.55722E+03 -8.24634E+03 -6.28719E+03  6.60785E+03 -6.81799E+03  1.69531E+04  8.37126E+03
  9.31884E+03  2.17867E+04 -2.18996E+03  2.26477E+04 -2.51683E+04  8.95493E+03 -2.32016E+04 -6.52685E+03
 -2.19224E+04 -2.00150E+04 -7.40887E+03 -1.38499E+04  3.91745E+03 -1.31220E+04  1.72054E+04 -1.84376E+04
  2.65764E+04 -1.50724E+04  2.78017E+04 -9.19892E+02  2.57353E+04  1.92342E+04 -4.06192E+02  3.55393E+04
 -1.51953E+04  2.87826E+04 -2.52736E+04  9.22209E+03 -1.90968E+04 -1.43109E+04 -3.09138E+03 -1.09762E+04
 -1.40296E+03 -8.25599E+03 -2.19462E+03  3.60232E+02 -1.30985E+04  3.38234E+03 -1.62584E+04 -1.06105E+04
 -6.33934E+03 -1.67460E+04  2.23424E+03 -1.93459E+04  1.51916E+04 -1.85161E+04  1.07217E+04 -1.31669E+03
  6.04683E+03  1.11351E+04 -3.78719E+03  1.48482E+04 -1.27139E+04  1.10684E+04 -2.00801E+04 -1.25763E+03
 -1.18611E+04 -1.57995E+04  1.90003E+02 -2.37824E+04  1.00321E+04 -2.02307E+04  1.88056E+04 -7.43956E+03
  1.60686E+04  3.16021E+03  8.64468E+03  3.22104E+03  8.47276E+03 -2.23220E+03  7.91107E+03  1.63092E+03
  1.79720E+04  2.64261E+02  2.02667E+04  1.39320E+04  1.06646E+04  2.09674E+04 -2.01859E+03  3.15564E+04
 -1.36676E+04  2.16700E+04 -2.55762E+04  9.61703E+03 -3.02733E+04 -1.56698E+03 -2.61371E+04 -2.04156E+04
 -1.37891E+04 -2.19328E+04  2.49736E+03 -2.18780E+04  1.59142E+04 -1.74686E+04  1.31462E+04  4.41268E+03
  1.79109E+03  1.38213E+04 -8.46219E+03  1.72024E+04 -1.33499E+04  3.06319E+03 -8.98366E+03 -6.94265E+03
 -1.46931E+03 -1.48167E+04  5.33562E+03 -1.23056E+04  6.22625E+03 -3.53143E+03 -2.39990E+02  5.81813E+03
 -4.79172E+03 -1.75011E+03 -3.54503E+03 -4.31167E+03  2.06094E+03 -1.24098E+04  4.73815E+03 -1.36883E+04
  1.60472E+04 -2.73005E+03  1.18786E+04  5.31965E+02  1.42756E+04  1.05662E+04  6.91634E+03  1.68851E+04
 -1.48040E+03  1.66319E+04 -1.10236E+04  1.04066E+04 -9.66434E+03 -1.03296E+03 -1.36317E+04 -4.58821E+03
 -2.23150E+03 -5.09309E+03  1.76138E+03  5.71695E+02 -3.66114E+03  4.13944E+03 -8.26576E+02  2.44434E+03
 -8.74319E+03  2.71092E+03 -1.43949E+04 -3.75854E+03 -3.05899E+03 -8.72925E+03  5.45705E+03 -7.08485E+03
  1.01251E+04 -4.98332E+03  7.68374E+03  5.68723E+02 -4.27105E+01  3.55421E+03 -4.04073E+03 -3.10354E+03
 -3.81906E+03 -5.47557E+03 -1.12567E+03 -7.37914E+03  3.47846E+03 -7.15360E+03  8.15963E+03 -7.58945E+02
  1.42388E+04 -1.69005E+03  1.22382E+04  9.37534E+03  2.85979E+03  8.92591E+03 -1.01982E+04  1.26873E+04
 -3.89412E+03  3.07846E+03 -4.27074E+03  3.09303E+03  4.18062E+03 -1.96704E+03  6.48660E+03  2.38187E+03
  7.80707E+03  5.27958E+03 -2.60735E+03  9.05640E+03 -4.62606E+03  6.50885E+03 -8.33789E+03  1.28296E+03
 -2.23221E+03 -3.80333E+03  5.93530E+02 -7.75020E+03  4.75799E+03 -5.94844E+03  5.27731E+03  2.03707E+03
  2.77625E+03 -2.11685E+01 -3.97897E+03  6.37248E+03 -5.33994E+03  5.99624E+03 -1.99398E+03 -1.04077E+03
 -1.39633E+03 -8.93299E+03 -2.52670E+03 -7.84084E+03  6.95933E+03 -5.97292E+03  9.69832E+03  1.60456E+03
  6.71375E+03  7.35338E+03 -3.07477E+03  8.00729E+03 -4.59110E+03  4.38343E+03 -5.16663E+03  2.33657E+03
 -9.33218E+03 -6.59591E+03 -8.45658E+02 -3.60145E+03  2.37463E+03 -5.40092E+03  6.22415E+03 -4.69084E+03
 -7.38648E+01 -1.72597E+03 -2.06992E+03 -4.22545E+03 -9.19215E+02 -4.55420E+03  2.42522E+03  4.47084E+02
  5.53931E+03 -6.84011E+02  5.94608E+03  2.00841E+03  7.34456E+03  7.07807E+03  4.21090E+03  9.05728E+03
 -2.93531E+03  8.81451E+03 -8.33566E+03  9.88499E+03 -1.34172E+04  1.72727E+03 -5.29635E+03 -3.54152E+03
 -5.71687E+03 -7.34870E+03 -2.41317E+03 -7.57112E+03 -4.61261E+02 -5.19093E+03  1.86082E+03 -1.88490E+03
 -1.27741E+02 -6.74091E+02  5.31684E+03 -4.77704E+02  3.20406E+03 -1.27890E+03  6.43364E+03  6.14012E+02
  6.58152E+03  2.59198E+03  2.91757E+02  4.94344E+03 -6.12450E+02  7.15792E+03 -8.31685E+03  3.37994E+03
 -5.86856E+03 -1.67010E+03 -6.05199E+03 -3.96413E+03  8.66062E+02 -5.31625E+03  5.68541E+03 -4.10160E+03
  1.32716E+04 -4.23257E+03  8.97286E+03 -1.00216E+03  1.51546E+03  4.50502E+03  4.22701E+03  7.84434E+03
 -3.79325E+03  6.85721E+03 -1.39479E+02  5.63576E+03 -2.37023E+03  1.64524E+03  3.99334E+01  3.13569E+03
  1.01562E+03 -8.77879E+02 -2.21620E+03 -2.30338E+01 -3.90926E+03  3.06080E+03 -6.71605E+03  1.53513E+03
 -3.44806E+03 -5.25960E+03 -6.45919E+01 -3.68295E+03  4.73367E+03 -7.26462E+03  3.83773E+03 -3.10929E+03
  3.79773E+03  1.21156E+03 -1.59370E+03  6.67968E+03 -1.90616E+03  8.61999E+03 -6.42090E+03  7.94887E+03
 -3.85966E+03  3.65848E+03 -3.78576E+03 -3.55677E+03  2.40195E+03 -4.87357E+03  3.60884E+03 -2.28401E+03
  2.33889E+03  6.63196E+02 -1.91700E+02 -1.05779E+03  1.64902E+03  4.76882E+03 -1.00278E+03  1.41506E+03
 -8.26210E+02  1.17030E+03 -5.84082E+02  1.54300E+03  6.35974E+03  5.67452E+03 -6.34490E+02  1.90786E+03
  9.41177E+02  6.69319E+03 -5.76676E+03  2.42483E+03 -6.69785E+03  7.51208E+02 -4.73617E+03  1.27551E+03
 -2.78886E+03  3.14602E+03  5.03755E+01 -7.94029E+03  3.50422E+02 -1.94501E+03  2.80128E+03 -9.96934E+02
 -1.20828E+03  5.03580E+03 -1.43212E+03  8.86777E+03 -7.90036E+02  7.59201E+02 -1.85148E+03  4.64944E+02
 -2.30965E+03 -1.85210E+02  4.80128E+02  6.94508E+02  8.64121E+02 -1.73364E+03  3.51480E+03 -5.29911E+02
 -5.63596E+02  4.36934E+03  3.42410E+02  2.98607E+03 -1.47767E+03  7.52794E+02  6.15662E+02  1.89173E+03
 -8.93848E+02  2.32508E+03  5.94508E+03 -8.04373E+02 -2.46698E+03  3.07664E+02 -6.33979E+00  3.37787E+03
  5.13820E+01  2.01232E+03 -3.26524E+02 -1.39694E+03 -2.71648E+03  1.35476E+03 -2.55512E+02  1.44411E+03
  1.49702E+03  4.44620E+02 -4.95531E+02  1.44338E+02  1.09086E+03 -7.73332E+01 -2.66365E+03  5.36010E+03
 -4.29658E+02 -2.46693E+03  9.14876E+02 -1.19603E+03  2.37857E+02 -5.43789E+03  7.49233E+02 -8.27326E+03
  5.87918E+02 -2.30610E+03  2.02728E+03  4.50879E+03  4.23880E+03 -3.41650E+02 -8.76933E+02  2.57422E+02
  9.24235E+02  4.37569E+02 -1.68039E+03 -1.91912E+03  2.13051E+02 -2.73350E+03  4.18324E+03 -2.49122E+03
  2.76195E+03 -1.95293E+03 -4.95868E+02 -3.16291E+03 -2.55232E+03  6.15106E+03  1.57056E+03  2.17209E+03
 -1.30028E+03 -4.00486E+03 -1.73162E+03 -2.14761E+03 -4.45394E+03 -2.21642E+03  6.29371E+02 -5.83468E+03
 -5.35877E+02  3.10273E+03  4.08083E+03 -3.26614E+03 -2.06070E+03  2.68223E+03  4.06129E+03  1.20470E+03
  1.91465E+03  2.62494E+03 -2.18569E+03  3.08811E+02  1.95534E+03 -2.82264E+02 -2.97470E+03  2.39792E+03
  1.25626E+03  3.97051E+03 -3.31769E+03  1.20306E+03 -1.36967E+03 -1.49508E+03 -6.91904E+01 -9.35604E+02
 -1.27001E+02 -1.99060E+03  2.52446E+03  1.33535E+03 -5.44416E+02 -1.18023E+03  2.20450E+03 -3.38481E+03
  5.31532E+03  2.74660E+03  8.64430E+02  2.46520E+03 -3.52284E+03  2.56927E+03 -4.31711E+03  1.23100E+03
 -2.24611E+03  1.36967E+01 -3.08599E+03 -7.69947E+02 -9.31795E+02 -1.04418E+03 -1.06708E+03  2.58698E+03
 -3.10856E+00 -5.61888E+02 -4.21006E+03 -4.70826E+02  3.32789E+03 -2.66021E+03 -4.28930E+02  2.23077E+03
  5.20421E+03  1.94533E+03  4.20612E+03  6.18144E+03  1.95355E+02  4.11854E+03  5.01307E+02  5.93805E+02
  1.73896E+02  3.87296E+03 -1.59220E+03  1.29810E+03  2.02946E+03  7.94391E+02  1.08958E+03  1.97811E+03
  3.45623E+03 -1.38648E+03  9.13496E+02  4.13168E+03 -4.76198E+03 -2.59337E+03  4.80250E+02  9.24406E+02
 -5.94852E+02  2.48947E+03  4.77014E+02  1.23535E+03 -3.63877E+03 -2.05487E+03 -6.48968E+02  2.45586E+03
  5.44690E+03  6.50673E+02 -6.19877E+02 -6.46454E+02  1.80776E+03  3.19819E+03  3.95322E+02  2.11932E+03
  1.95687E+02  3.77394E+03 -2.60586E+03 -6.46811E+02  1.56218E+03  7.69945E+02  2.96379E+03 -6.88859E+02
 -1.47243E+03 -4.30266E+03  2.63641E+03 -2.21311E+03 -1.46451E+03  2.14118E+03  7.79260E+02  3.24190E+03
 -5.12579E+01  3.67327E+03 -4.47813E+03  1.26366E+03 -1.34862E+03  8.11974E+02  1.55576E+03 -1.75447E+03
 -3.29562E+02  7.14213E+02  1.82637E+03  4.57873E+02 -3.69062E+03 -1.52898E+03 -5.44084E+03 -2.66564E+03
 -4.14993E+03  2.09413E+03 -3.34389E+03  3.54180E+03  9.16186E+02  1.31697E+03  1.48270E+03 -4.02636E+03
 -9.72543E+02  3.91617E+03 -1.86697E+03 -2.19208E+03  1.73041E+03  1.54593E+03 -3.38042E+03 -1.63228E+03
