 $NMID ID='MM_0lb_SNR50_15hz_g60_29.RAW', FMTDAT='(8E13.5)'
 TRAMP=1., VOLUME=1. $END
  3.10399E+05 -4.39424E+02  3.38457E+05  2.54918E+05  8.73901E+04  3.34860E+05 -1.28579E+05  2.52836E+05
 -1.90187E+05  8.07997E+04 -1.16146E+05 -3.90363E+04 -7.19560E+02 -5.09855E+04  5.03329E+04  2.50936E+03
  3.61462E+04  5.33396E+04 -1.70926E+04  7.86651E+04 -6.41025E+04  6.98439E+04 -8.75516E+04  3.26925E+04
 -8.44155E+04 -1.17383E+04 -6.22452E+04 -5.26502E+04 -1.19777E+04 -6.95569E+04  2.94803E+04 -4.89320E+04
  3.81928E+04  4.00983E+03  1.54350E+04  4.69661E+04 -3.45490E+04  4.78525E+04 -7.04839E+04 -1.99316E+03
 -4.86595E+04 -5.35168E+04 -6.41294E+03 -7.81565E+04  3.65954E+04 -5.32519E+04  4.83903E+04 -1.75119E+04
  4.39986E+04  1.01525E+04  2.97419E+04  2.52041E+04  2.15203E+04  2.83650E+04 -2.89030E+03  2.41551E+04
 -1.65223E+04  1.26777E+04 -1.47514E+04 -1.01341E+04  2.74090E+03 -1.16512E+04  2.06558E+04  1.49138E+04
  2.51274E+03  3.91968E+04 -3.21300E+04  3.33546E+04 -6.47827E+04  3.60999E+03 -5.26579E+04 -3.88509E+04
 -9.71735E+03 -6.24205E+04  3.97089E+04 -4.37517E+04  5.95242E+04 -8.82286E+02  3.75769E+04  3.09065E+04
 -5.97924E+03  4.07020E+04 -3.35503E+04  1.04808E+04 -3.15421E+04 -2.24172E+03 -1.32544E+04 -8.04837E+03
 -7.94276E+03 -1.02531E+04 -4.63954E+02 -1.90056E+04  7.88417E+03 -1.91730E+04  1.98584E+04 -1.10550E+04
  8.89706E+03  6.18323E+03 -6.25295E+03  1.23097E+04 -2.04160E+04 -1.03799E+04 -7.85826E+03 -3.59593E+04
  2.27039E+04 -4.86868E+04  4.43778E+04 -1.92897E+04  4.22857E+04  2.19398E+04  1.55484E+04  4.55479E+04
 -2.04938E+04  3.56383E+04 -2.85630E+04 -2.14343E+03 -9.24535E+03 -2.52447E+04  1.81786E+04 -3.63553E+04
  4.06262E+04 -7.89496E+03  3.51861E+04  2.25737E+04  1.62740E+04  4.68356E+04 -3.22232E+03  4.99348E+04
 -3.17072E+04  3.41067E+04 -4.04295E+04  7.90055E+03 -4.21472E+04 -1.39954E+04 -2.46628E+04 -3.86204E+04
  6.93441E+03 -3.45306E+04  3.63229E+04 -1.67596E+04  3.04314E+04  1.40119E+04  8.89442E+03  1.66240E+04
 -1.40843E+04  6.06561E+03 -1.18984E+04 -5.41545E+03  3.18806E+03 -8.57693E+03  1.68168E+04  5.81482E+03
  1.41617E+04  1.81169E+04 -2.51422E+03  2.31595E+04 -2.09413E+04  1.07698E+04 -2.43797E+04 -1.38597E+03
 -2.32039E+04 -1.50930E+04 -1.46219E+04 -2.13029E+04  3.45152E+03 -2.58319E+04  1.44712E+04 -1.69622E+04
  3.14517E+04 -1.59888E+04  3.48516E+04  2.47320E+03  1.86432E+04  2.20199E+04  2.57132E+03  3.97263E+04
 -2.06750E+04  3.39654E+04 -2.81675E+04  6.91917E+03 -2.14797E+04 -1.16927E+04 -2.82972E+03 -1.59184E+04
  1.23154E+03 -3.83454E+02 -6.42291E+03  6.17724E+03 -1.33569E+04  6.42096E+03 -1.53894E+04 -3.78634E+03
 -1.09638E+04 -1.64844E+04  2.11844E+03 -2.70651E+04  2.29021E+04 -1.39021E+04  1.88179E+04  3.54151E+02
  1.45328E+04  9.74810E+03 -2.88931E+03  1.90103E+04 -1.18090E+04  1.18610E+04 -1.82290E+04 -5.73990E+03
 -1.63697E+04 -1.85485E+04  2.03319E+03 -2.38198E+04  9.05976E+03 -2.12497E+04  2.14098E+04 -1.06576E+04
  1.64997E+04  3.74699E+03  8.50207E+03  3.38708E+03  7.64896E+03  1.84358E+03  1.38222E+04 -1.51446E+03
  1.86635E+04  1.71605E+03  2.11191E+04  1.23057E+04  9.93005E+03  3.22571E+04  1.54555E+03  3.47557E+04
 -2.03816E+04  2.92745E+04 -3.31165E+04  1.53561E+04 -3.46338E+04  2.05020E+03 -2.30845E+04 -1.81964E+04
 -7.30095E+03 -2.58113E+04  5.58941E+03 -2.40173E+04  1.96624E+04 -1.09729E+04  1.74861E+04  3.11780E+03
  7.10297E+03  1.50270E+04 -9.59624E+03  1.61436E+04 -1.51970E+04  2.93088E+03 -1.44851E+04 -1.60692E+04
  1.91068E+02 -1.62257E+04  7.56762E+03 -1.19705E+04  1.21038E+04 -2.20090E+02  6.15433E+03  3.57322E+03
 -1.11901E+04  3.05237E+03 -5.85834E+03 -3.09267E+03  1.99492E+03 -1.90551E+04  6.69843E+03 -1.24152E+04
  1.98676E+04 -7.29185E+03  1.50106E+04  2.94398E+03  1.52573E+04  1.39248E+04  3.50554E+03  2.03059E+04
 -6.34665E+03  2.01605E+04 -1.66308E+04  1.56776E+04 -1.80504E+04  1.17232E+03 -1.08017E+04  1.23986E+02
 -3.47316E+03 -3.70147E+03 -1.48670E+03  4.94360E+03  1.47241E+03  8.61516E+03 -8.81140E+03  1.50948E+03
 -7.91368E+03 -2.70310E+03 -9.21066E+03 -8.73957E+03 -6.93375E+03 -1.43632E+04  7.65579E+03 -1.59080E+04
  6.99141E+03 -4.04434E+03  8.46714E+03  2.70833E+03  1.78157E+03  1.04285E+04 -2.91701E+03  3.73890E+03
 -5.68817E+03 -6.81085E+03 -2.00647E+03 -1.04767E+04  1.90236E+03 -1.34838E+04  2.14657E+04 -1.82525E+03
  1.85920E+04  6.38629E+02  1.37679E+04  8.73060E+03 -1.69465E+03  1.21120E+04 -9.12527E+03  1.53992E+04
 -1.14112E+04  2.55283E+03 -5.33709E+03 -3.12474E+03 -5.67007E+02 -3.70245E+03  6.76921E+03  1.88672E+03
  6.37556E+03  1.72761E+03 -4.20342E+03  7.30175E+03 -4.69477E+03  4.18427E+03 -8.77336E+03  4.10653E+03
 -8.44776E+03 -6.87304E+03 -4.19155E+03 -2.56558E+03  8.21443E+03 -4.05153E+03  5.01868E+03  3.81361E+03
 -4.50901E+03  5.84603E+03 -4.19091E+03  1.25160E+04 -1.08973E+04  2.88341E+03 -6.14692E+03 -8.09911E+03
 -6.99723E+03 -6.09979E+03 -1.61349E+03 -1.10873E+04  1.05740E+04 -8.21327E+03  1.21954E+04  1.35049E+03
  4.16927E+03  4.76950E+03 -1.54940E+03  1.01989E+04 -8.75634E+03  7.45176E+03 -1.18006E+04 -4.55779E+03
 -9.20348E+03 -3.71897E+03 -1.85111E+03 -7.70202E+03  3.30891E+03 -7.82731E+03  7.03516E+03 -2.38613E+03
  2.18459E+03 -1.37411E+03  2.77639E+02  1.68706E+03 -7.24801E+01 -3.40195E+03 -1.46953E+03 -4.47488E+03
  1.01588E+04 -4.33301E+02  1.36843E+04  3.69868E+03  7.29775E+03  7.62570E+03  1.96957E+03  1.27688E+04
  3.85883E+03  1.24977E+04 -1.55445E+04  1.62106E+04 -1.91595E+04  2.78000E+03 -1.11829E+04 -3.17930E+03
 -7.09475E+03 -1.15537E+04  3.64290E+03 -7.53323E+03  3.38368E+03 -8.74973E+03  5.11732E+03 -4.67854E+03
  1.68735E+03 -6.77189E+02  4.48345E+03 -4.47470E+02  1.42541E+03  3.33292E+02  7.72105E+03  2.19431E+02
  8.91076E+03  6.60117E+02  5.76506E+03  1.17313E+04 -5.69071E+03  7.05167E+03 -4.89782E+03  2.46024E+03
 -1.02343E+04  9.30752E+02 -3.33507E+03 -7.52652E+03  4.80388E+03 -7.86704E+03  6.49364E+03 -1.08521E+04
  1.03538E+04 -8.45469E+03  1.54579E+04  5.18204E+03  1.20361E+04  6.14147E+03  4.15196E+03  9.66386E+03
 -5.01943E+03  1.10511E+04 -6.13834E+03  2.97872E+03 -8.93853E+03 -2.94547E+03  6.77128E+02  7.16883E+03
  1.88456E+03  1.79480E+02 -5.74257E+03 -6.62360E+01 -1.04999E+03  1.53228E+03 -7.18307E+03  5.77121E+02
 -4.11529E+03 -5.18294E+03  5.00315E+03 -1.23160E+04  5.65006E+02 -2.47154E+03  4.88257E+03  3.10956E+03
  7.55059E+03  4.71970E+03 -2.59532E+03  6.10450E+03 -3.61342E+03  9.20300E+03 -3.97618E+03  3.15215E+03
 -7.29876E+03  9.89382E+02 -6.67718E+03 -1.98929E+03 -9.65115E+02 -9.90997E+03  2.39198E+03 -6.64229E+03
  3.14763E+03 -7.07460E+03  6.03136E+03  6.26607E+02 -3.78569E+03  3.66642E+03  3.17750E+03 -1.12720E+03
  4.15472E+03  7.35470E+03  1.35857E+03  3.14231E+03  8.49894E+03 -7.87542E+02 -2.84665E+03  4.62565E+03
  1.68756E+03  4.82495E+03 -3.22779E+03  5.69330E+03 -3.91220E+03  1.07187E+03 -9.12673E+03 -3.92202E+03
 -7.78204E+03 -7.67617E+03  3.16428E+03 -1.15970E+04  4.77010E+02 -4.23086E+03  2.66785E+03  2.01933E+03
  8.34580E+03  4.54633E+03  1.86907E+03  5.47896E+03 -4.82571E+02  5.20409E+03 -2.41952E+03 -3.02697E+02
  2.23361E+02 -2.24783E+03  3.16037E+03 -3.39964E+02 -1.51312E+03 -2.17493E+03  1.52195E+03  3.58549E+03
  2.90137E+03  4.11764E+03  9.96649E+02  3.06108E+03  3.90366E+02  4.83002E+03  3.45908E+03  1.13007E+03
  2.10800E+03 -3.74876E+03  7.22482E+03  7.77596E+03  5.03007E+03  3.05748E+03 -2.50899E+03  7.24028E+03
 -8.10325E+03 -4.77402E+01 -3.72122E+03 -7.47832E+02 -1.69507E+03 -3.00965E+03 -4.45832E+03 -1.75059E+03
 -8.67294E+02 -1.32230E+03  2.52967E+02  6.53668E+02  4.67977E+03  3.13962E+03  6.63077E+02  2.46192E+03
 -1.42986E+03  6.60981E+03 -4.33212E+03 -2.35854E+03 -4.87539E+02 -1.14724E+04 -3.81261E+03 -9.80922E+02
  3.02248E+03 -2.28167E+03  2.00942E+03 -4.88499E+02 -5.79255E+02  2.67075E+03 -9.86399E+02  2.72139E+03
 -3.88321E+03 -2.99801E+02  3.46838E+03 -1.06442E+03 -1.91090E+01 -6.50705E+03  2.48513E+03 -4.72110E+02
  4.73592E+03  1.81246E+03 -1.15440E+03  4.11699E+03  2.39479E+03  3.76858E+03  4.29130E+02 -2.22446E+03
 -5.22574E+03  3.26014E+03 -6.96256E+03 -2.41135E+02 -1.49149E+03 -6.88791E+03  9.20678E+02 -1.57171E+03
  7.73604E+02 -5.37777E+03 -1.44239E+03  2.00541E+03  1.52062E+02  4.80789E+03 -1.51094E+02 -1.81964E+03
  4.11137E+03  1.34036E+03  9.97838E+01  5.15205E+01  6.83670E+02  3.61672E+03  5.98232E+02 -2.23565E+03
 -5.52205E+03  7.35325E+02 -8.49535E+02  4.31376E+03 -7.50835E+03  4.10422E+03 -3.51267E+03 -9.33118E+02
 -7.46070E+03 -5.42370E+03  2.02416E+03 -8.70194E+03  3.99824E+03 -2.79703E+03  7.27035E+03 -8.48468E+02
  2.99898E+03  2.62232E+03 -1.87911E+03  2.56628E+03 -1.60818E+03  4.37044E+03 -5.61851E+03  3.54629E+03
 -4.55871E+02 -4.54170E+03 -5.17092E+03 -1.03903E+03  3.10738E+03  2.36557E+02  3.06696E+02 -6.31754E+03
  2.23373E+03 -4.87448E+03  5.60158E+02  4.92876E+03  3.03017E+03 -4.99570E+03 -1.56794E+03 -3.46245E+03
 -1.69442E+02 -1.25210E+03  6.66700E+02 -5.72430E+02  4.98563E+03  9.11412E+02  5.54985E+02  3.36152E+03
 -3.28517E+03  3.75600E+03 -6.22171E+03  1.02786E+02 -1.90341E+03 -1.51561E+03  5.78772E+02  1.17130E+02
 -1.50584E+03 -1.76284E+03  3.77185E+03 -8.06962E+03  2.42808E+03 -1.39168E+03  2.54975E+03 -9.73860E+01
  1.60557E+03  5.58453E+03 -3.52925E+03  6.69681E+03 -4.48473E+03 -1.82829E+03 -4.22029E+03  1.39405E+03
 -3.94704E+02  1.02215E+03  2.39541E+02 -1.41672E+03 -2.34135E+03  1.02849E+03 -2.71794E+03 -1.04961E+03
 -5.78210E+03  4.44419E+03  1.12826E+03 -3.50429E+03 -6.51104E+03  3.44630E+03  5.36401E+02 -3.32172E+03
  1.42019E+03  1.96628E+03  1.96152E+02 -1.13836E+03  4.61325E+03 -1.27748E+02  3.05145E+03  3.22192E+03
 -5.15205E+02  4.04967E+03  1.24806E+03  1.74042E+03 -5.84170E+03  3.11629E+03 -5.84513E+02 -3.43555E+03
 -2.21839E+03  5.01110E+03  5.76567E+03 -2.75485E+03 -1.14659E+03  2.84062E+03  1.60361E+03  2.80213E+03
 -1.05863E+03 -5.05421E+03 -4.76065E+03  5.25285E+03 -6.96314E+03 -1.00557E+03  3.80866E+03 -2.81719E+03
  3.05474E+03 -4.30775E+03 -8.89225E+01  6.63891E+03  3.50892E+03  4.02939E+03 -2.24064E+03 -3.81036E+02
