 $NMID ID='MM_0lb_SNR50_13hz_g60_9.RAW', FMTDAT='(8E13.5)'
 TRAMP=1., VOLUME=1. $END
  3.11832E+05  3.30004E+03  3.34339E+05  2.51489E+05  8.46967E+04  3.41632E+05 -1.31127E+05  2.52344E+05
 -1.88972E+05  8.81506E+04 -1.10997E+05 -2.83926E+04 -1.64364E+03 -5.13217E+04  5.29856E+04  1.75486E+03
  3.59870E+04  5.31017E+04 -1.57963E+04  7.62030E+04 -6.14987E+04  6.56918E+04 -8.99936E+04  2.99919E+04
 -8.20046E+04 -1.30493E+04 -5.67828E+04 -4.62434E+04 -1.88787E+04 -7.08233E+04  2.39805E+04 -4.62093E+04
  4.19530E+04  1.06623E+04  1.56946E+04  5.10623E+04 -3.15002E+04  4.86494E+04 -6.59585E+04 -2.04345E+03
 -5.18659E+04 -5.20831E+04 -1.25116E+04 -7.57279E+04  4.14594E+04 -5.56850E+04  4.83931E+04 -1.65403E+04
  4.26102E+04  1.20644E+04  3.73338E+04  2.72442E+04  1.81142E+04  3.13035E+04 -2.93430E+03  2.72264E+04
 -2.42277E+04  7.34745E+03 -2.31905E+04 -6.40921E+03  5.46473E+03 -7.30382E+03  2.59535E+04  1.00501E+04
  5.13880E+03  3.90191E+04 -3.59324E+04  3.79370E+04 -6.31204E+04 -5.31956E+02 -6.11640E+04 -4.62032E+04
 -1.46128E+04 -6.29352E+04  4.28251E+04 -4.58689E+04  6.16577E+04 -6.55595E+03  3.59286E+04  3.41351E+04
 -6.72603E+03  4.11550E+04 -3.40542E+04  1.65212E+04 -3.26609E+04 -4.62646E+03 -1.35739E+04 -1.73436E+04
 -1.02317E+04 -1.19725E+04 -1.47935E+03 -1.83804E+04  5.42437E+03 -2.36576E+04  1.49372E+04 -1.18802E+04
  1.47430E+04  9.09406E+03 -1.53689E+04  9.86964E+03 -2.12903E+04 -5.28360E+03 -7.10705E+03 -3.68208E+04
  2.34888E+04 -5.03578E+04  4.94998E+04 -2.31434E+04  4.79180E+04  2.13178E+04  1.63069E+04  4.64951E+04
 -1.78794E+04  3.29939E+04 -2.39814E+04  1.32127E+03 -9.00818E+03 -3.37540E+04  2.42942E+04 -3.46386E+04
  4.58592E+04 -5.07018E+03  3.74725E+04  2.90339E+04  1.75010E+04  4.89388E+04 -1.05600E+04  5.10242E+04
 -3.70594E+04  4.04466E+04 -4.21180E+04  1.15860E+04 -4.48874E+04 -2.07785E+04 -2.60505E+04 -4.00916E+04
  6.13103E+03 -4.49552E+04  3.90061E+04 -1.52036E+04  2.89632E+04  7.13628E+03  8.53711E+03  2.26875E+04
 -1.35082E+04  1.09783E+04 -8.78301E+03 -8.98047E+03  5.13319E+03 -7.81268E+03  1.89030E+04  7.56959E+03
  1.08418E+04  2.35414E+04 -6.06895E+03  2.10707E+04 -2.54373E+04  1.57063E+04 -3.24938E+04 -4.19640E+03
 -2.42238E+04 -1.40141E+04 -9.52170E+03 -2.34178E+04  4.56974E+03 -1.89155E+04  2.04021E+04 -2.46845E+04
  2.76338E+04 -1.51330E+04  3.89852E+04  1.26105E+03  2.52431E+04  2.57043E+04  5.88583E+03  3.99026E+04
 -2.42411E+04  2.51356E+04 -3.49297E+04  1.20034E+04 -2.25700E+04 -8.24143E+03 -3.39386E+03 -1.08639E+04
 -1.63208E+03 -1.45508E+02 -7.61417E+03  9.46791E+03 -1.48871E+04  4.22690E+03 -2.34303E+04 -4.63162E+03
 -8.81404E+03 -2.42932E+04  2.06894E+03 -2.66814E+04  1.80541E+04 -1.39572E+04  2.11124E+04  3.28787E+01
  1.11478E+04  1.43761E+04 -2.27715E+03  2.07575E+04 -1.07744E+04  1.12854E+04 -2.10410E+04 -5.03161E+03
 -1.68559E+04 -2.23075E+04 -1.94262E+03 -2.61850E+04  1.20592E+04 -2.09103E+04  2.00686E+04 -1.46297E+04
  1.55709E+04  2.67534E+03  9.03901E+03  5.76452E+03  1.02771E+04 -5.43349E+02  9.17116E+03 -5.08458E+03
  2.31742E+04  5.12300E+03  1.97088E+04  1.50624E+04  1.25458E+04  2.90241E+04 -2.75691E+03  4.00508E+04
 -2.39673E+04  3.17652E+04 -3.78116E+04  1.66044E+04 -4.54850E+04  3.71955E+02 -3.14766E+04 -2.37533E+04
 -1.39498E+04 -2.60816E+04  1.35492E+04 -2.81859E+04  2.19277E+04 -1.41513E+04  2.35881E+04  7.45849E+03
  1.18090E+04  1.37731E+04 -1.53366E+04  1.40931E+04 -1.63353E+04 -1.73731E+03 -1.38487E+04 -1.00344E+04
  2.04021E+03 -1.77283E+04  8.91919E+03 -1.85113E+04  7.63468E+03 -6.66648E+03  4.84416E+03  5.18277E+03
 -8.24924E+03  2.52439E+03 -4.99800E+03 -6.81534E+03 -9.76654E+02 -1.61859E+04  1.28286E+04 -1.62862E+04
  1.89265E+04 -1.24344E+04  1.91256E+04  1.12763E+03  1.27857E+04  1.76050E+04  7.30874E+03  1.86150E+04
 -7.17999E+03  2.69618E+04 -1.35538E+04  1.55175E+04 -2.02191E+04  6.10343E+03 -1.32248E+04 -2.57536E+03
 -2.78119E+03 -6.80266E+03 -3.26884E+02 -2.51142E+03 -4.51974E+02  9.00141E+03 -1.15879E+03  3.23735E+03
 -1.36516E+04 -1.62474E+03 -1.23198E+04 -7.35061E+03 -3.99296E+03 -1.19821E+04 -1.73618E+03 -1.72462E+04
  1.21614E+04 -9.60587E+03  8.08257E+03  4.48911E+03 -4.64063E+03  8.08518E+03 -1.10517E+04  6.27568E+02
 -5.60572E+03 -6.72651E+03  4.05744E+03 -1.20649E+04  8.54892E+03 -1.47243E+04  1.22353E+04 -4.96065E+03
  1.84288E+04 -4.65957E+01  1.81655E+04  1.15936E+04  5.49726E+03  1.41263E+04 -3.91001E+03  1.15919E+04
 -1.01252E+04 -1.51629E+03 -7.44786E+03  2.58577E+02  3.69413E+03 -4.72828E+03  6.26102E+03 -3.07685E+03
  7.31448E+03  5.74262E+03  5.09135E+03  6.90607E+03 -1.23716E+04  7.46500E+03 -1.38968E+04 -1.48974E+03
 -4.81568E+03 -4.45971E+03  1.82629E+03 -8.34705E+03  2.21738E+03 -9.39126E+03  7.83337E+03  4.03821E+03
 -7.10049E+03  3.62034E+03 -6.65864E+03  6.85600E+03 -9.33867E+03  1.66537E+03 -7.89980E+03 -1.87630E+01
 -4.07891E+03 -1.07525E+04  3.78683E+03 -1.69269E+04  1.22130E+04 -8.68838E+03  1.22309E+04  1.01821E+04
  4.35590E+03  1.22103E+04  8.19819E+02  1.43224E+04 -5.19351E+03  5.20485E+03 -1.17249E+04 -3.09076E+03
 -1.03107E+04 -6.27430E+03 -3.90078E+03 -1.61418E+04  1.07682E+04 -2.11433E+03  4.18690E+03 -3.92817E+03
  1.21570E+03  5.25908E+02 -4.74323E+03  1.86939E+02  3.50922E+03 -4.32300E+03 -4.01788E+02 -4.03299E+02
  6.79624E+03  2.47568E+03  8.80486E+03  2.53586E+03  7.00832E+03  3.65335E+03  1.04155E+04  1.54682E+04
 -3.41945E+02  1.40348E+04 -1.28830E+04  1.11955E+04 -1.78007E+04 -1.21652E+03 -1.74988E+04 -6.00648E+03
 -7.74468E+03 -1.68227E+04  2.33795E+03 -1.13546E+04  5.08266E+03 -7.75448E+03  7.10664E+03 -1.80570E+03
  1.34463E+03 -3.39669E+02  3.98882E+03 -1.63702E+03  7.62957E+03 -4.46247E+03  1.66184E+03 -4.29036E+03
  1.22611E+04  2.26443E+03  4.80962E+03  1.02480E+04 -5.71671E+02  7.63355E+03 -6.45260E+03  5.32357E+03
 -1.42925E+04  1.84784E+03 -8.48298E+03 -6.31049E+03 -5.28795E+02 -1.67041E+04  8.18659E+03 -7.57143E+03
  8.01934E+03 -1.06837E+04  1.10567E+04  2.20105E+03  6.87594E+03  1.25024E+04 -4.10370E+01  1.44279E+04
 -1.06640E+04  1.31513E+04 -7.71382E+03  1.29277E+03 -9.61015E+03 -1.80919E+03  3.53296E+03  7.26039E+02
  1.49621E+03  9.39856E+02  1.52179E+03  3.35182E+03 -4.18288E+02 -2.31575E+03 -8.66443E+03 -1.41392E+03
 -1.81922E+03 -6.73043E+03 -3.88436E+02 -1.06265E+04  3.73391E+03 -1.21982E+04  7.88923E+03  3.37454E+03
  7.96351E+03  9.95036E+03  6.73354E+03  3.00206E+03 -1.47952E+03  8.46582E+03 -1.25447E+04  4.77100E+03
 -1.11997E+04  1.73493E+03 -8.82916E+03 -7.59636E+03 -6.00278E+03 -6.76899E+03  7.73775E+03 -5.94535E+03
  5.70660E+03 -3.23383E+03  3.52942E+03  2.97174E+03 -1.06760E+03  5.38541E+03  5.45528E+03 -5.22042E+02
 -1.45311E+03  3.42255E+03  2.77566E+03  4.43237E+03  5.08464E+03  1.24913E+04  2.23553E+03  6.25187E+03
 -5.77999E+03  5.68306E+03 -6.65454E+03  5.83329E+03 -9.63750E+03  7.71241E+03 -7.74501E+03 -3.81693E+03
 -8.21213E+03 -7.15964E+03  2.15125E+03 -9.10313E+03  9.14214E+03 -9.80278E+03  1.25118E+04 -5.42046E+03
  1.09464E+04  7.39196E+03  1.84805E+03  2.10058E+03 -5.62557E+03  2.83522E+03 -4.59399E+03 -2.43408E+03
 -1.38569E+03 -3.74027E+03  1.18224E+03 -8.72857E+03 -1.91531E+03  2.09991E+03  3.48091E+03 -7.58014E+02
  5.45977E+03 -1.01318E+03 -3.40997E+03  9.90322E+02  4.38430E+02 -2.65596E+03  6.37128E+02  2.60740E+03
  1.55867E+03  1.92910E+02  1.45174E+03  2.77264E+03  2.38197E+03  7.69287E+03  1.26352E+03  5.20942E+03
 -4.90563E+02  1.23668E+03 -1.01592E+04 -1.02180E+03 -3.89096E+03 -6.44985E+02 -2.51722E+03 -1.79405E+03
  3.52846E+02 -1.41893E+03  1.72907E+03  1.63552E+03  4.08299E+03 -6.63528E+02 -5.76894E+03  4.51695E+03
 -2.29773E+03  1.14085E+03 -4.71812E+03 -6.15902E+03 -5.74024E+02 -3.28530E+03  5.41176E+03 -1.68020E+03
  1.57488E+03 -2.74719E+03  2.61830E+03 -2.79838E+03  6.94444E+02  2.84389E+03 -3.23231E+02  2.06065E+02
 -6.35745E+03 -3.79953E+03 -2.93582E+03 -8.58595E+03  4.65222E+03 -2.76074E+03  8.55321E+03 -1.17282E+03
  2.80796E+03 -4.00703E+03 -4.03315E+02  3.19487E+03 -1.56349E+03  3.23184E+03 -5.09370E+03  5.15748E+03
 -4.92801E+03 -2.73581E+03 -1.22327E+03  2.82071E+02 -2.43788E+03 -4.45231E+03  1.50604E+03 -6.17014E+03
  3.77402E+03  1.06633E+03 -4.60313E+02  1.88537E+03  3.98790E+03  1.44100E+03 -4.48978E+03  2.57462E+03
  4.62381E+02 -1.56755E+03 -3.50246E+03  3.15402E+03  1.06321E+03 -2.87024E+03  1.85487E+03  5.57963E+03
  4.35612E+01  4.05427E+03 -5.35948E+03 -3.46798E+02 -7.58290E+03  2.29264E+03 -6.20303E+03 -2.10992E+03
 -5.31825E+03 -5.80085E+03  3.23535E+03 -5.65367E+03 -1.71978E+03 -1.26484E+04  6.32235E+03 -5.49497E+03
  8.04252E+03  9.65802E+01  6.55464E+03  4.17843E+03  4.46647E+03  4.70946E+03 -2.65510E+02  7.59777E+03
  1.98753E+03  8.28549E+02 -7.67988E+03 -9.49878E+02  4.67789E+03 -2.37403E+03  1.40828E+03  4.36558E+02
 -5.11427E+03  2.26793E+03  2.03423E+03  1.99955E+03  3.03323E+02 -9.24720E+02 -4.21389E+03 -5.63186E+03
  2.51524E+03 -1.51595E+03  7.71993E+02 -2.74416E+03  3.98338E+03 -8.82429E+01 -9.26264E+02 -2.76783E+03
 -2.55752E+03  4.41037E+03 -4.27689E+03  7.66195E+03 -6.79164E+03 -2.30651E+03 -6.97681E+03 -4.60815E+03
 -4.33700E+03 -6.57374E+03  6.45203E+02 -3.37304E+03  5.52235E+02 -3.24850E+03 -2.00457E+02  1.18923E+02
  3.63885E+03  3.86023E+03  7.06210E+03 -1.51832E+03  1.72231E+03 -1.01783E+03  3.63998E+02  3.33290E+03
  2.04833E+03  3.68761E+03  5.09517E+03  5.90424E+03  2.70286E+03 -2.95779E+03 -4.13444E+03 -1.37264E+03
 -3.48553E+03  7.01049E+03 -5.37169E+03  2.54937E+03 -9.52201E+02 -2.28866E+03 -4.43706E+02 -3.93113E+03
  1.20643E+03 -1.33529E+03  1.53070E+03  2.15704E+03  5.61424E+02  5.45797E+02  2.82897E+03  2.54610E+02
  1.52962E+03  2.52150E+03 -3.46478E+03  3.56588E+03 -2.34751E+03  2.09437E+03 -5.28022E+03 -3.27115E+01
 -4.09632E+03 -1.80225E+03 -8.68402E+02 -3.64094E+03  1.30992E+03  2.81312E+03 -6.08178E+03 -3.79881E+03
 -7.09239E+03 -1.07751E+03  4.77937E+03 -4.51937E+03  3.40408E+03 -2.78747E+03  5.27972E+03  4.59216E+03
  5.38197E+03  3.93600E+02 -2.76331E+03  4.12163E+03 -6.53972E+03  4.45300E+03  1.26303E+03  2.09796E+03
