 $NMID ID='MM_0lb_SNR50_20hz_g60_27.RAW', FMTDAT='(8E13.5)'
 TRAMP=1., VOLUME=1. $END
  3.10456E+05  3.89570E+01  3.39743E+05  2.46922E+05  8.52930E+04  3.40492E+05 -1.30733E+05  2.50760E+05
 -1.89561E+05  8.51412E+04 -1.13948E+05 -3.51060E+04  9.68412E+00 -4.87421E+04  5.32669E+04  6.64786E+02
  3.26918E+04  5.02162E+04 -1.71132E+04  7.74275E+04 -5.82745E+04  6.08189E+04 -8.21041E+04  3.09748E+04
 -7.84946E+04 -1.32727E+04 -5.87519E+04 -5.07150E+04 -1.59786E+04 -6.73165E+04  2.89422E+04 -4.66785E+04
  4.09160E+04  2.26819E+03  1.70566E+04  5.03225E+04 -3.78953E+04  4.73837E+04 -6.30513E+04 -4.70563E+02
 -5.12337E+04 -5.45518E+04 -8.05241E+03 -7.87900E+04  3.40233E+04 -5.26090E+04  4.55039E+04 -1.47122E+04
  4.69902E+04  1.01651E+04  3.33473E+04  2.43293E+04  1.83315E+04  2.98295E+04 -3.31692E+03  2.82013E+04
 -2.42223E+04  1.56926E+04 -1.66812E+04 -2.63752E+03  7.21622E+03 -8.20735E+03  2.23019E+04  1.36291E+04
  7.84209E+03  3.46349E+04 -3.16461E+04  3.20440E+04 -6.62146E+04  4.10243E+03 -5.43276E+04 -3.99219E+04
 -1.16350E+04 -6.11480E+04  3.44571E+04 -4.24801E+04  5.34088E+04 -5.39635E+03  2.88284E+04  3.20232E+04
 -5.17845E+03  3.23580E+04 -2.57684E+04  1.10615E+04 -2.82527E+04 -2.75027E+03 -1.89457E+04 -7.70209E+03
 -8.68132E+03 -1.22901E+04  3.98367E+02 -1.62607E+04  8.73249E+03 -2.34777E+04  1.81320E+04 -1.38937E+04
  9.40780E+03  4.07080E+03 -6.18305E+03  1.14447E+04 -1.84318E+04 -3.12780E+03 -1.04328E+04 -2.79588E+04
  2.10927E+04 -4.06002E+04  4.52168E+04 -1.78461E+04  4.60551E+04  1.77260E+04  1.08684E+04  4.48338E+04
 -1.99879E+04  3.07287E+04 -2.65833E+04  9.29622E+02 -6.88992E+03 -2.82270E+04  2.32856E+04 -3.50242E+04
  3.65350E+04 -2.21423E+03  3.09786E+04  2.56195E+04  1.75514E+04  4.47419E+04 -9.83519E+03  4.88392E+04
 -3.06562E+04  3.35744E+04 -3.53175E+04  6.23682E+03 -4.15040E+04 -1.63063E+04 -2.14120E+04 -3.71098E+04
  3.35531E+03 -3.61140E+04  3.22415E+04 -1.46552E+04  2.89909E+04  9.31330E+03  3.60503E+03  1.81699E+04
 -1.28995E+04  8.89635E+03 -9.41741E+03 -7.85175E+03  3.71790E+03 -7.91125E+03  1.74243E+04  4.73421E+03
  1.32183E+04  2.09760E+04 -5.21891E+03  2.43323E+04 -2.03704E+04  1.05585E+04 -2.41921E+04 -4.64867E+03
 -2.12119E+04 -1.41431E+04 -8.88429E+03 -1.76016E+04  3.27095E+03 -1.84305E+04  1.55801E+04 -1.58493E+04
  2.11605E+04 -1.35273E+04  2.95298E+04  2.56085E+03  2.10938E+04  1.61251E+04  8.14111E+03  3.30848E+04
 -1.96523E+04  2.67356E+04 -2.92218E+04  8.55933E+03 -2.48153E+04 -1.00026E+04 -7.05107E+03 -1.29626E+04
  1.61810E+03 -7.85333E+03 -8.94890E+02  7.42043E+03 -1.17912E+04  6.99021E+03 -1.68779E+04 -5.43185E+03
 -1.07200E+04 -1.82255E+04  1.79051E+03 -2.20341E+04  1.31779E+04 -1.19067E+04  1.35823E+04  1.35510E+03
  1.02963E+04  1.33535E+04 -3.16181E+03  1.82473E+04 -9.49687E+03  1.06333E+04 -1.35856E+04  4.75638E+03
 -1.38120E+04 -1.27733E+04 -1.36322E+03 -1.98731E+04  1.09699E+04 -1.29968E+04  1.77002E+04 -6.25691E+03
  1.59898E+04 -3.83732E+02  7.49093E+03  2.97916E+03  6.17232E+03  1.10903E+03  7.55623E+03 -3.95838E+03
  1.28465E+04  7.62512E+02  1.13743E+04  1.25000E+04  9.58232E+03  2.66779E+04 -3.95169E+03  2.51702E+04
 -1.90916E+04  2.05850E+04 -2.39998E+04  7.57013E+03 -2.32632E+04 -2.83037E+03 -1.71800E+04 -1.85734E+04
 -8.41638E+03 -1.85014E+04  8.20586E+03 -1.96583E+04  1.54796E+04 -1.03393E+04  1.76298E+04  6.21894E+03
  7.54325E+03  9.30764E+03 -9.75697E+03  1.00402E+04 -1.60297E+04  2.43350E+03 -1.26808E+04 -9.80246E+03
  1.74067E+03 -1.31525E+04  5.30710E+03 -8.13475E+03  7.01862E+03 -2.47582E+03  8.51402E+02  4.26627E+03
 -5.87581E+03  1.33712E+03 -2.86435E+03 -7.51314E+03 -5.09033E+02 -1.29950E+04  8.24390E+03 -1.03966E+04
  1.52303E+04 -3.49779E+03  8.64176E+03  1.38294E+03  1.00165E+04  9.89186E+03  5.89991E+03  1.27675E+04
 -3.60578E+03  1.20574E+04 -7.71222E+03  6.31863E+03 -9.11648E+03  4.14481E+03 -1.19223E+04 -8.34608E+03
 -6.57068E+03 -2.44762E+03 -3.75256E+03 -5.22263E+02  3.01862E+02  5.91837E+03 -3.07405E+03  3.66241E+03
 -1.12158E+04  1.64525E+03 -5.16351E+03 -3.95048E+03 -3.19376E+03 -1.25541E+04  7.02953E+02 -5.29108E+03
  8.89760E+03 -5.02958E+03  6.62528E+03  5.98347E+03 -5.86743E+02 -1.96572E+03 -8.25764E+03 -8.57120E+02
 -2.60107E+03 -8.03733E+03 -2.53058E+02 -8.68041E+03  3.29372E+03 -9.08292E+03  8.79222E+03 -9.32814E+03
  1.22829E+04 -4.98190E+01  7.94257E+03  5.66454E+03 -5.87835E+02  7.67640E+03 -3.22882E+03  4.16848E+03
 -6.37681E+03  1.93812E+03 -5.13382E+03 -2.32754E+03 -1.05244E+03 -7.69031E+02 -1.18788E+03 -1.21990E+03
  8.97287E+02  3.39996E+03  3.36893E+03  5.07236E+03 -3.13132E+01  8.88591E+03 -1.05569E+04 -8.15683E+02
 -5.70415E+03 -3.72179E+03 -2.98268E+03 -2.77305E+03  6.55502E+03 -5.75043E+02  5.87090E+03  3.62034E+03
  8.59441E+02  6.62771E+03 -2.85358E+03  4.47097E+03 -4.01584E+03  6.59496E+03 -7.58207E+03 -1.19247E+03
 -5.02526E+02 -6.55116E+03 -1.36138E+03 -6.85679E+03  8.00119E+03 -4.84045E+03  6.17464E+03  1.54187E+03
  6.52900E+02  5.68002E+03  3.74919E+03  4.34889E+03 -7.99594E+03  3.51873E+03 -2.03414E+03 -7.56810E+02
 -6.00790E+03 -5.83592E+03  8.09009E+02 -5.23979E+03  5.29550E+03 -8.95758E+02 -4.73146E+02  6.43783E+02
  4.74897E+03 -3.96902E+03 -9.45134E+02  2.33979E+03  2.25115E+03  9.02836E+02 -3.41129E+03  2.15800E+03
 -9.84390E+01 -3.31394E+03  9.48962E+03  1.11830E+03  7.98686E+03  3.48074E+03  7.49643E+02  8.19142E+03
  8.09013E+02  1.00957E+04 -5.43092E+03  5.40766E+03 -8.08114E+03  4.78460E+03 -6.33974E+03 -3.03130E+03
 -4.24537E+03 -7.14966E+03  2.87193E+03 -2.47307E+03  1.72848E+03 -1.54811E+03 -1.77026E+03 -3.00939E+03
  4.07932E+03 -1.57004E+03 -5.41602E+02  1.34974E+03  1.20882E+02 -3.07329E+03  9.64055E+02  2.22386E+03
  6.00279E+03  4.52887E+03 -5.15809E+03  2.26028E+03 -2.05131E+03  1.36536E+03 -1.97082E+03  2.01667E+03
 -6.96542E+03  4.53612E+02  2.88688E+03 -2.15733E+03 -1.79649E+03 -5.95360E+02  2.36916E+03 -7.70935E+03
  5.06732E+03  6.22189E+02  1.26047E+03 -1.80688E+03  5.23800E+03  1.59571E+03  2.48929E+03  1.95749E+03
 -3.18080E+03  5.79521E+03 -5.31923E+03  5.33282E+03 -2.49981E+03 -1.65696E+03 -2.40696E+03 -5.21845E+03
  2.11994E+02  1.03119E+03 -4.66672E+03 -3.99678E+03 -1.50381E+03 -1.30779E+03 -4.83535E+03  3.04056E+03
 -1.58296E+03 -2.74774E+03  1.58683E+03 -4.76034E+03  1.05788E+03 -4.96455E+03 -2.49923E+03 -1.74182E+03
  4.91938E+03  1.04633E+02 -3.55807E+03  2.10263E+03  2.57011E+03  5.75112E+03 -2.04153E+03  3.07002E+03
 -1.70757E+03 -1.36247E+03 -2.54670E+03 -4.85149E+03  6.80397E+02 -3.89719E+01  4.02758E+03 -2.56897E+03
  3.35238E+03 -5.44653E+03  1.13124E+03  1.49032E+03 -1.31239E+03  1.13562E+03 -5.06924E-02 -8.85012E+01
  5.78311E+02  3.36754E+03  9.51134E+02  1.65949E+03  1.40765E+03  5.37821E+03 -5.32817E+03  2.44147E+03
 -1.46428E+03  5.94385E+03 -1.76576E+03  4.45048E+03 -4.24909E+03  1.68989E+03 -7.78991E+02  5.77970E+02
 -2.09043E+03 -3.32864E+02  2.99914E+03 -8.07226E+03 -3.25237E+03 -2.84124E+03  1.45455E+03  3.12754E+03
 -7.92008E+02  2.39185E+03 -5.13014E+01 -9.79075E+02  2.11980E+03 -2.98946E+03 -1.15872E+03  4.03412E+01
 -2.14784E+03  2.91407E+02  1.92742E+03 -2.82838E+02  4.04824E+03  1.26684E+03  7.16252E+02  6.46099E+02
  2.37000E+03  4.55071E+03  3.93150E+03  6.90392E+03  3.37377E+03 -2.39583E+02  4.08197E+03  3.58897E+03
  1.68938E+03 -1.12510E+02  2.46534E+03 -1.45001E+02  1.73038E+03  4.53770E+03  4.78685E+03  1.61859E+03
  3.72837E+02 -2.45996E+03 -2.34103E+03  4.22685E+02 -3.91711E+03 -9.89073E+02 -1.30794E+03  1.54846E+02
 -3.04630E+03 -3.10774E+03  3.30274E+03 -1.19943E+03  2.45911E+03  3.44055E+03  4.46339E+03  1.82089E+03
 -2.65580E+02 -3.16074E+02  3.88344E+03 -2.72799E+03 -4.75065E+03  1.02178E+02 -1.03920E+02  8.13442E+02
 -2.32905E+03 -2.47877E+03 -1.39337E+03  3.60604E+02 -2.50662E+02  1.06815E+03  2.71515E+03 -5.19332E+03
 -3.00724E+03  2.80682E+03  3.09347E+03 -5.23624E+03  8.85840E+02  2.21212E+03  3.05274E+03 -1.92344E+03
 -5.82663E+01 -2.21611E+03  2.27242E+03  4.24564E+03  7.21986E+02 -6.60527E-01 -2.56532E+03 -3.51773E+02
  2.20608E+03  8.73435E+02 -2.57077E+03  6.01672E+03  2.02061E+03 -2.35338E+03 -4.59553E+02  1.14500E+03
  7.40414E+02 -5.41978E+03  3.63977E+03 -3.63411E+02 -3.60273E+03 -9.54846E+02  3.04281E+03 -2.75426E+01
  2.19586E+03 -1.62327E+03  8.17526E+02 -9.22846E+02 -1.34705E+03  8.74146E+02 -8.98863E+02  4.09394E+03
  3.16644E+03 -2.50059E+03 -3.99141E+03 -8.51794E+02  3.03316E+03 -6.43292E+02 -2.62060E+03  1.40634E+03
  5.26439E+01 -1.33085E+03  2.58679E+03 -1.10475E+03  3.84238E+03 -6.46785E+02  3.10647E+03 -7.65075E+01
  1.59698E+03  4.37651E+03  1.87365E+03  2.24109E+03 -2.77804E+03  2.92788E+03 -4.30473E+03  6.67023E+02
  8.83267E+02  3.94886E+03 -2.80340E+03 -7.29055E+02  6.82467E+02  1.28895E+03 -7.12778E+02 -1.06096E+03
 -8.62883E+02 -1.02963E+03  2.24707E+03  1.04442E+03  3.76539E+03 -2.18694E+03 -1.22723E+03 -4.56208E+02
 -1.58681E+03 -5.55774E+03  1.13597E+03 -2.73020E+03  1.85048E+02 -4.73980E+03 -1.82569E+03 -5.38023E+02
  4.96886E+03  4.45671E+03  2.32511E+02  3.35375E+03 -8.36325E+02 -3.17557E+03  1.26374E+03  3.34181E+03
  1.67569E+03 -2.06215E+03 -1.11202E+03 -2.54652E+02 -2.64314E+03 -1.36432E+03  1.36801E+03  4.44185E+02
  1.41596E+03 -1.06604E+03 -1.69254E+03 -2.55291E+03  1.26152E+03 -4.06118E+03 -7.35930E+02  1.24403E+03
  6.07409E+02 -1.89226E+03 -1.55001E+03 -1.33806E+03 -9.72345E+02  1.92102E+03  5.87321E+03  4.38640E+03
  4.95581E+02 -1.46171E+03  1.85979E+02  5.47988E+03 -5.40656E+03  1.44218E+03 -2.82558E+03 -1.62330E+03
 -1.15733E+03 -2.11607E+03 -3.07794E+03 -2.05003E+03 -4.92884E+03 -3.36377E+03  1.52517E+03 -1.56864E+03
  6.71656E+02 -1.89732E+03  1.81784E+03  8.08687E+02  4.57669E+02  2.12099E+03  3.83212E+03  2.86786E+03
 -2.67114E+03  3.99999E+03  1.34733E+03 -3.40435E+03  1.44662E+03  1.12226E+03 -1.39135E+03 -3.08692E+03
 -4.11842E+03  1.32046E+03 -2.63932E+03 -3.90046E+03 -1.18652E+03 -2.43883E+03  8.45551E+02 -3.98261E+03
 -8.37588E+02 -1.65444E+02 -1.53521E+03 -1.43111E+03  1.76426E+03  4.97078E+03  2.72960E+03 -1.95933E+02
