 $NMID ID='MM_0lb_SNR50_8hz_g50_5.RAW', FMTDAT='(8E13.5)'
 TRAMP=1., VOLUME=1. $END
  3.05574E+05  1.56428E+03  3.29558E+05  2.50783E+05  8.53708E+04  3.39014E+05 -1.35249E+05  2.51939E+05
 -1.88157E+05  8.27981E+04 -1.07138E+05 -2.59694E+04 -9.74947E+02 -5.33119E+04  6.10080E+04  3.05999E+03
  3.31648E+04  5.34632E+04 -1.56814E+04  7.74128E+04 -6.28952E+04  5.86384E+04 -9.15181E+04  3.39568E+04
 -8.42263E+04 -1.37807E+04 -5.96736E+04 -5.11581E+04 -1.93030E+04 -6.89710E+04  2.79218E+04 -5.22669E+04
  3.38693E+04  3.68520E+03  2.11853E+04  4.70052E+04 -3.50658E+04  4.73300E+04 -6.50956E+04  7.76965E+02
 -5.87601E+04 -5.98108E+04 -9.90018E+03 -8.59215E+04  3.87089E+04 -6.01821E+04  5.20345E+04 -1.54718E+04
  4.33020E+04  8.40174E+03  3.19971E+04  2.51071E+04  7.71566E+03  3.31216E+04 -3.63017E+03  2.76718E+04
 -2.14710E+04  1.40667E+04 -1.74214E+04 -1.83111E+03  1.05706E+04 -1.05853E+04  2.70012E+04  1.70435E+04
  6.73481E+03  3.84171E+04 -3.68258E+04  3.84892E+04 -6.05343E+04  3.51268E+03 -5.88763E+04 -4.39381E+04
 -9.96371E+03 -6.34544E+04  4.40411E+04 -4.68068E+04  6.31805E+04  5.91501E+02  3.70730E+04  3.37868E+04
 -1.27460E+04  4.87995E+04 -3.41765E+04  1.66760E+04 -2.94193E+04 -2.49356E+03 -1.71371E+04 -1.43050E+04
 -1.22076E+04 -2.00224E+04  4.66144E+03 -1.53024E+04  1.00476E+04 -2.61096E+04  1.42373E+04 -1.47832E+04
  1.20293E+04  1.30332E+04 -1.71889E+04  1.77655E+04 -2.47059E+04 -9.12538E+03 -1.24600E+04 -3.89529E+04
  2.80119E+04 -4.57897E+04  5.27375E+04 -2.04394E+04  4.64436E+04  1.93207E+04  2.17536E+04  4.69928E+04
 -1.65466E+04  3.90571E+04 -3.22061E+04  1.71524E+03 -8.40190E+03 -3.09458E+04  1.71151E+04 -3.67407E+04
  4.36948E+04 -1.40598E+04  4.61011E+04  2.59969E+04  2.04232E+04  5.20066E+04 -9.12895E+03  5.88982E+04
 -3.43501E+04  3.85840E+04 -4.67683E+04  9.47987E+03 -5.00927E+04 -1.93812E+04 -2.43107E+04 -4.01136E+04
  1.30271E+04 -4.60866E+04  4.07874E+04 -2.20843E+04  3.38762E+04  1.69261E+04  1.92555E+04  2.13826E+04
 -1.19924E+04  7.13014E+03 -8.43947E+03 -4.97806E+03  6.82483E+03 -6.65749E+03  1.64040E+04  9.65226E+03
  1.45287E+04  1.65475E+04 -1.12794E+04  2.90716E+04 -2.89420E+04  8.48440E+03 -2.94647E+04 -2.17613E+03
 -2.70540E+04 -1.81835E+04 -1.24852E+04 -2.52021E+04 -2.27894E+03 -2.36510E+04  2.25286E+04 -3.02001E+04
  3.06999E+04 -1.51100E+04  3.22489E+04  5.24824E+03  3.04383E+04  2.60241E+04  7.66906E+02  4.50914E+04
 -1.68460E+04  3.38977E+04 -2.12540E+04  1.23922E+04 -2.86863E+04 -8.44388E+03  2.19766E+03 -1.29370E+04
  5.02799E+03  1.41772E+03  3.69503E+02  7.94087E+03 -2.09920E+04  2.51862E+03 -2.13887E+04 -1.40134E+04
 -1.54114E+04 -2.86143E+04  1.09338E+04 -2.72510E+04  2.44974E+04 -2.00304E+04  2.39655E+04  4.50729E+03
  1.28907E+04  1.74289E+04 -3.94449E+02  2.61659E+04 -1.08711E+04  9.25469E+03 -2.28446E+04 -2.45752E+03
 -1.27226E+04 -2.56925E+04 -3.49868E+03 -3.16215E+04  1.77715E+04 -3.21639E+04  2.22252E+04 -1.16918E+04
  2.48192E+04  2.26611E+03  1.63353E+04  8.70351E+03  1.13967E+04  7.85950E+02  1.56484E+04 -1.07470E+04
  2.49232E+04  5.44657E+03  3.37306E+04  1.65824E+04  1.30083E+04  4.02540E+04 -2.56609E+02  4.63157E+04
 -2.66368E+04  3.41249E+04 -4.79616E+04  1.58122E+04 -4.65251E+04 -2.46840E+03 -3.91176E+04 -2.92955E+04
 -9.13171E+03 -4.34542E+04  1.26850E+04 -3.42797E+04  3.85296E+04 -1.78627E+04  2.60503E+04  5.90727E+03
  1.65321E+04  1.44816E+04 -1.27678E+04  2.30075E+04 -2.30295E+04  4.64361E+03 -1.88254E+04 -1.40120E+04
  1.10739E+03 -2.18656E+04  1.21012E+04 -1.12663E+04  1.44240E+04  8.30409E+01 -1.08037E+03  7.70375E+03
 -8.29723E+03  3.62992E+03 -1.71304E+04 -8.68512E+03 -1.64338E+03 -1.09548E+04  1.31183E+04 -2.71076E+04
  2.38040E+04 -8.61308E+03  2.70677E+04 -5.73460E+03  3.05012E+04  2.18655E+04  1.39963E+04  2.71246E+04
 -9.83953E+03  3.49541E+04 -2.82743E+04  2.41176E+04 -2.88587E+04  5.48831E+03 -1.74156E+04 -9.43444E+03
 -1.19225E+04 -2.92772E+03  1.59518E+03  4.27365E+03 -8.37606E+03  2.95336E+03 -6.30224E+03  4.20751E+03
 -1.76839E+04 -5.03896E+03 -1.90884E+04 -1.12662E+04 -2.41050E+03 -1.87091E+04  6.17459E+03 -2.01528E+04
  1.11889E+04 -7.77560E+03  1.19779E+04 -7.49738E+02  7.30013E+03  9.52401E+03 -1.34696E+04 -7.04851E+02
 -6.91225E+03 -4.84056E+03 -7.25761E+03 -1.44233E+04  1.00096E+04 -1.95469E+04  1.88768E+04 -9.75591E+03
  2.39664E+04 -5.07988E+03  1.71983E+04  1.59157E+04  6.57100E+02  2.07348E+04 -7.05041E+03  1.43718E+04
 -1.73272E+04  5.48886E+03 -2.92422E+03 -9.02336E+03 -3.08838E+03 -7.16748E+03  1.16185E+04  3.58847E+03
  1.37853E+04  1.43096E+04 -2.30725E+03  1.29198E+04 -1.36256E+04  5.33045E+03 -1.81869E+04  9.49055E+03
 -1.72281E+04 -5.47900E+03 -1.27104E+02 -1.48225E+04  4.65470E+03 -7.94386E+03  1.53703E+04  2.45590E+03
  9.01640E+03  1.39304E+04 -8.17913E+03  1.61543E+04 -1.76321E+04  3.95566E+03 -1.90084E+04 -4.53517E+03
 -4.61035E+03 -1.91133E+04  6.00309E+03 -2.18505E+04  2.32921E+04 -1.73355E+04  1.54654E+04  9.27722E+03
  1.09194E+04  1.70488E+04 -9.90670E+02  1.56113E+04 -1.54634E+04  1.09426E+04 -1.49245E+04 -9.64018E+03
 -1.22111E+04 -1.29880E+04 -2.22118E+03 -1.28830E+04  4.72217E+03 -1.29355E+04  2.63881E+03 -5.38473E+03
  7.13553E+03 -3.85300E+02  4.60361E+01  4.22713E+03 -3.11688E+03  8.99006E+02 -1.36523E+03 -6.16055E+03
  1.19892E+04 -4.84926E+03  1.47481E+04 -5.09676E+02  1.59457E+04  1.33624E+04  1.11808E+04  2.41550E+04
 -8.46917E+03  2.51288E+04 -2.04156E+04  2.32834E+04 -2.30314E+04  1.20301E+03 -2.54971E+04 -1.58142E+04
 -1.49120E+04 -1.52185E+04 -2.88404E+03 -1.03028E+04  7.83476E+03 -7.10879E+03  9.50535E+03 -7.19363E+03
  4.46909E+03 -1.07074E+04  5.76836E+03 -3.29685E+03  1.76915E+03 -1.09040E+04  1.43446E+04 -6.32283E+03
  1.30947E+04  8.88778E+03  8.12248E+02  1.49679E+04 -4.49165E+03  1.23207E+04 -1.33861E+04  9.27806E+03
 -2.14689E+04 -1.31329E+03 -9.98109E+03 -4.89243E+03 -1.90685E+02 -2.46435E+04  5.00163E+03 -1.73832E+04
  1.82692E+04 -7.27214E+03  2.80064E+04  3.17186E+03  1.36939E+04  8.21466E+03  8.49075E+03  1.88430E+04
  1.63360E+03  1.63750E+04 -1.31301E+04  6.97605E+03 -1.02403E+04 -6.21032E+03 -1.00573E+04 -2.77652E+03
 -1.63567E+03  3.40538E+03 -5.37148E+03  1.18450E+04  8.96401E+02  1.89652E+03 -6.39237E+03 -4.71613E+02
 -5.17740E+03 -9.93998E+03 -1.11926E+03 -1.86775E+04  1.81496E+04 -1.43874E+04  9.53383E+03 -7.40556E+03
  1.63353E+04  1.19732E+04  5.62333E+03  1.35419E+04 -4.35370E+03  1.56519E+04 -9.85748E+03  1.06861E+04
 -1.17021E+04  5.30112E+03 -1.45184E+04 -6.02499E+03  1.87302E+03 -1.33564E+04  6.93565E+03 -1.15968E+04
  1.03206E+04 -7.92140E+03  7.62609E+03  4.71165E+03  2.34237E+03  1.18513E+02 -2.56360E+03 -5.29087E+02
  2.31259E+02  5.49154E+03  2.92880E+03 -6.57109E+02  4.43103E+03  9.52877E+02  2.27048E+03  5.18670E+03
 -9.29700E+02  1.24043E+04 -1.23563E+04  1.35070E+04 -1.26515E+04 -4.36106E+03 -2.39733E+04 -8.62678E+03
 -1.50786E+04 -9.36641E+03  2.74711E+02 -1.79479E+04  5.62790E+03 -1.12470E+04  1.29661E+04 -7.46005E+03
  9.33326E+03  9.37378E+03 -2.52733E+01  8.72366E+03 -5.51066E+03  3.29850E+03 -4.88136E+03 -6.59874E+03
 -3.50791E+03 -6.16671E+02  6.32016E+03 -8.75939E+03  8.79003E+03 -5.03213E+03  1.20295E+03  4.02312E+02
  1.18155E+04 -2.85091E+02  1.78142E+03  6.72646E+03  1.62526E+03 -3.75049E+03  4.93104E+03  4.55922E+02
  2.20551E+03 -1.74923E+03  1.04087E+04  4.34488E+03  2.50838E+02  7.07818E+03 -1.45229E+03  1.02580E+04
 -3.35070E+03  1.11336E+04 -1.00694E+04  1.50075E+03 -1.63621E+04 -8.68952E+03 -1.16532E+04 -6.15184E+03
  7.66850E+03 -7.55509E+03  6.15325E+03 -7.80431E+03  6.93368E+03  7.52991E+03  2.78088E+03  7.88816E+03
 -9.68554E+03  1.40509E+03 -7.75550E+03  2.22513E+03 -7.84455E+03 -1.19920E+04  1.43721E+03 -1.40919E+04
  7.02200E+03 -9.45420E+03  1.11012E+04 -1.97332E+03  5.14237E+03  1.32866E+04 -1.36682E+03  6.52020E+02
 -3.47486E+03  1.32014E+03 -6.91658E+03  3.88518E+03 -3.80443E+02 -6.20816E+03  4.39247E+03 -7.05326E+03
  1.88862E+04  2.15505E+03  8.83914E+03  5.33622E+03  1.10680E+04  1.71443E+04 -6.76365E+03  8.72113E+03
 -5.23491E+03  2.41242E+02 -1.28530E+04  4.91380E+03 -5.62289E+03 -1.16444E+04 -3.61093E+03 -9.10913E+03
  6.09260E+03 -7.07088E+03 -2.21162E+03  2.47775E+03  2.36889E+03  1.81984E+03  3.06279E+03  2.22963E+03
  2.58135E+03  5.05292E+03 -5.97250E+03 -2.13971E+03 -2.38533E+03  5.42534E+03 -2.20354E+03  1.10155E+03
  1.85166E+03  3.58036E+03 -8.01776E+03  2.91724E+03 -1.73593E+04 -3.21835E+03 -1.27084E+04 -5.81000E+03
 -4.40215E+03 -2.01125E+04  7.43103E+02 -1.84439E+04  1.34880E+04 -1.43459E+04  2.06898E+04 -6.24326E+03
  1.25064E+04  4.02996E+03  1.27193E+04  1.38955E+04  3.37540E+02  1.55923E+04 -2.65659E+03  1.19897E+04
 -1.02447E+04  5.48539E+03 -2.87122E+03 -5.15157E+03 -4.39577E+03 -3.41155E+03  3.96682E+03 -1.81463E+03
 -2.07121E+03 -5.27008E+02 -4.72510E+03 -3.94868E+03 -3.88840E+03 -4.51126E+03 -5.66347E+03 -3.20578E+03
  1.26680E+04 -4.22117E+03  9.76171E+03 -3.79237E+03  7.94086E+03  1.03087E+04  8.33482E+03  1.05173E+04
 -6.77639E+03  1.11017E+04 -8.30885E+03  5.93565E+03 -1.74415E+04  3.57287E+03 -1.21936E+04 -5.46732E+03
 -2.38298E+03 -1.45718E+04  4.85503E+03 -1.01976E+04  7.43592E+03  1.23016E+02  8.66850E+03 -5.92224E+03
  6.59964E+03  4.08574E+03  4.73811E+03 -1.08320E+03  1.69518E+03  4.50234E+03 -4.62310E+03  7.78113E+03
  1.86086E+03  7.57671E+03  1.18038E+04  1.49712E+03  5.17858E+03  4.57705E+03  1.01078E+03  9.22014E+03
 -1.34096E+04  5.51317E+03 -6.05475E+03 -2.70215E+02 -1.01532E+04 -9.28084E+03  6.33417E+03 -5.07919E+03
  3.47098E+03 -7.36199E+03  7.34970E+03 -5.64893E+03  1.60190E+04  5.42942E+03  1.65998E+03  1.01697E+04
 -7.09795E+02  1.28275E+04 -4.77367E+03  3.59104E+03 -6.91819E+03  3.75153E+03  1.48047E+03  6.69141E+03
 -1.92725E+03 -4.65582E+03  3.25636E+03  2.44353E+02 -7.89466E+03  3.33414E+03 -1.23648E+04 -4.89387E+02
 -3.22093E+03 -4.28373E+03 -3.61329E+02 -4.88284E+03  5.59789E+03 -8.95265E+03  4.91148E+03 -2.47491E+03
  1.22702E+04  4.74357E+03  2.95282E+03  6.90237E+02  4.93488E+02  7.59879E+03 -1.33660E+04  6.36933E+03
