 $NMID ID='MM_0lb_SNR50_13hz_g50_19.RAW', FMTDAT='(8E13.5)'
 TRAMP=1., VOLUME=1. $END
  3.09776E+05 -1.10671E+03  3.39126E+05  2.53772E+05  8.42674E+04  3.40420E+05 -1.30945E+05  2.51040E+05
 -1.88085E+05  8.54994E+04 -1.11594E+05 -3.52913E+04 -4.42148E+02 -5.45237E+04  5.03913E+04  4.27591E+03
  3.02136E+04  5.08332E+04 -1.89170E+04  7.59191E+04 -6.02844E+04  6.08850E+04 -8.39428E+04  2.69080E+04
 -7.73063E+04 -1.18469E+04 -5.98926E+04 -5.15078E+04 -1.60707E+04 -6.85506E+04  2.56680E+04 -4.85603E+04
  4.16168E+04  8.31099E+03  1.79559E+04  4.75321E+04 -3.42993E+04  4.50826E+04 -6.36127E+04 -8.54557E+02
 -5.46678E+04 -5.74038E+04 -7.02128E+03 -7.58388E+04  3.32904E+04 -5.69891E+04  5.08603E+04 -1.59615E+04
  4.37986E+04  1.27136E+04  3.19834E+04  2.33758E+04  1.36800E+04  2.65887E+04 -4.70825E+03  2.63005E+04
 -2.03291E+04  1.13424E+04 -1.80404E+04 -8.95054E+03  9.75518E+03 -2.70646E+03  2.24258E+04  8.04998E+03
  7.07427E+03  3.95223E+04 -3.59835E+04  3.21058E+04 -6.55296E+04  1.13029E+03 -5.81680E+04 -4.09605E+04
 -1.01735E+04 -5.87013E+04  4.42039E+04 -4.79362E+04  5.51625E+04 -4.45782E+03  3.31037E+04  3.50318E+04
 -3.78550E+03  4.02162E+04 -3.39857E+04  1.76057E+04 -2.98105E+04 -2.40215E+03 -1.89717E+04 -1.46157E+04
 -8.76102E+03 -1.47379E+04 -2.47854E+03 -1.77635E+04  6.45630E+03 -1.67409E+04  1.72413E+04 -9.75438E+03
  1.50300E+04  3.90538E+02 -1.00094E+04  1.20140E+04 -2.66928E+04 -5.31986E+03 -7.92581E+03 -3.76819E+04
  2.38235E+04 -4.56468E+04  5.41248E+04 -2.35296E+04  4.50763E+04  1.69990E+04  1.62948E+04  4.65061E+04
 -2.04656E+04  3.44875E+04 -2.41506E+04 -7.13161E+02 -7.51599E+03 -2.86401E+04  2.10701E+04 -3.49785E+04
  3.69459E+04 -9.14709E+03  3.37110E+04  2.26347E+04  1.90710E+04  4.41839E+04 -7.26004E+03  4.97509E+04
 -3.57470E+04  3.44289E+04 -4.26279E+04  1.70835E+04 -3.95913E+04 -2.05449E+04 -2.58161E+04 -3.22516E+04
  9.01865E+03 -4.27555E+04  3.59538E+04 -2.14588E+04  2.68363E+04  9.57802E+03  4.52139E+03  2.37294E+04
 -1.47720E+04  9.23675E+03 -1.22502E+04 -1.02579E+04  5.32691E+03 -1.35005E+04  1.60083E+04  6.17058E+03
  1.43781E+04  2.66334E+04 -3.52605E+03  2.50149E+04 -2.70814E+04  1.55915E+04 -3.05952E+04 -1.86897E+03
 -2.57759E+04 -1.96615E+04 -9.09360E+03 -2.42046E+04  3.20527E+03 -1.83731E+04  1.75107E+04 -2.09007E+04
  2.55089E+04 -1.29354E+04  3.39660E+04  6.43681E+03  2.26562E+04  2.33693E+04  9.44109E+03  3.34832E+04
 -1.68293E+04  3.26926E+04 -2.49253E+04  5.45579E+03 -2.30220E+04 -1.26603E+04 -5.43221E+03 -1.56046E+04
  4.07247E+03 -1.92911E+03 -3.15203E+03  7.67209E+03 -1.34489E+04  2.29054E+03 -1.96121E+04 -9.53589E+03
 -9.83509E+03 -1.79867E+04  3.43606E+03 -2.51600E+04  2.02114E+04 -1.74089E+04  1.83731E+04 -1.60983E+03
  1.14886E+04  1.32241E+04  8.40718E+02  1.49105E+04 -9.91864E+03  5.88675E+03 -2.23051E+04 -4.09861E+03
 -1.56652E+04 -1.86916E+04 -2.09728E+03 -2.62476E+04  5.24612E+03 -2.09952E+04  1.67447E+04 -8.44889E+03
  1.95349E+04  3.43421E+03  1.04061E+04  5.98589E+03  5.14000E+03  3.74012E+03  9.27799E+03  1.28553E+03
  1.66662E+04  6.02667E+02  1.92461E+04  1.44140E+04  1.04883E+04  3.76819E+04  1.66810E+03  3.75211E+04
 -1.95538E+04  2.96725E+04 -3.14341E+04  1.30875E+04 -3.70873E+04 -5.98023E+02 -2.84343E+04 -2.01043E+04
 -1.22969E+04 -2.93437E+04  1.30850E+04 -2.49696E+04  2.38939E+04 -1.28200E+04  1.53636E+04  6.70201E+03
  6.03611E+03  1.61372E+04 -1.02703E+04  1.26004E+04 -1.84343E+04 -1.03409E+03 -1.10871E+04 -1.07426E+04
  2.85436E+03 -1.27485E+04  9.59875E+03 -1.11434E+04  7.33660E+03 -5.31046E+03  1.12711E+03  3.26622E+02
 -2.78596E+03  2.49143E+03 -1.93876E+03 -9.12142E+03 -3.11403E+03 -1.32722E+04  1.33861E+04 -2.04021E+04
  1.76587E+04 -6.10038E+03  2.11170E+04  1.44991E+02  2.05168E+04  1.45025E+04  9.12410E+03  2.24374E+04
 -4.29853E+03  2.21672E+04 -1.36511E+04  1.46081E+04 -2.15087E+04 -2.58047E+03 -1.35843E+04 -4.59797E+03
 -8.50910E+03 -5.18216E+03  1.52828E+03  5.31667E+02 -1.69350E+03  9.97225E+03 -5.52800E+03  5.69451E+03
 -1.04035E+04 -2.24457E+03 -1.09977E+04 -6.67414E+03 -6.55895E+03 -1.19199E+04  1.62027E+03 -1.26622E+04
  1.07169E+04 -6.39239E+03  6.16527E+03  4.22513E+03  2.43066E+02  5.38212E+03 -3.71004E+03  1.93501E+03
 -5.75513E+03 -9.10089E+03  1.39453E+03 -1.10057E+04  9.34522E+03 -1.11124E+04  1.39437E+04 -6.28844E+03
  1.51275E+04  7.54259E+02  1.16535E+04  9.51183E+03 -3.13675E+02  1.36915E+04 -7.68801E+03  7.34306E+03
 -8.89419E+03  4.13478E+03 -5.51730E+03 -1.61003E+03  4.96688E+03 -5.79064E+03  8.51692E+03 -4.47925E+03
  3.23062E+03  6.10492E+03 -4.38794E+02  1.04675E+04 -9.29274E+03  1.25283E+04 -1.76100E+04  3.72112E+03
 -6.98087E+03 -2.50068E+03  3.46099E+03 -1.01880E+04  1.13086E+04 -4.22858E+03  4.88292E+03  2.58288E+02
  2.06791E+02  8.42113E+03 -5.43288E+03  6.64837E+03 -9.20595E+03  4.71682E+03 -8.45966E+03 -6.65365E+02
  8.47302E+02 -1.09615E+04  3.38902E+03 -9.52646E+03  1.33256E+04 -5.29250E+03  1.29605E+04  3.43941E+03
  9.70396E+03  1.27622E+04  3.12297E+03  1.47673E+04 -8.72082E+03  7.48361E+03 -8.12812E+03 -2.53036E+03
 -5.58202E+03 -9.79872E+03  1.18819E+03 -6.58108E+03  3.10507E+03 -6.32887E+03  4.45576E+03  4.21580E+03
  4.28942E+03  3.86642E+03 -4.12770E+02  2.77586E+03  8.01914E+02 -6.86288E+02  2.29619E+03 -2.10671E+03
  8.47631E+03 -3.91483E+03  6.20017E+03  4.02800E+03  7.54289E+03  7.61757E+03  6.30048E+03  1.40154E+04
 -5.84225E+03  1.26935E+04 -1.14516E+04  1.59442E+04 -2.47501E+04 -5.21859E+02 -1.80839E+04 -5.90467E+03
 -8.73946E+03 -1.51060E+04 -2.54918E+03 -6.68089E+03  4.05666E+03 -8.04471E+03  4.43072E+03 -7.18861E+03
  4.62238E+03 -2.58699E+03  6.96309E+03 -1.27469E+03  2.92449E+03  3.46448E+02  2.37125E+03 -6.63449E+03
  7.49295E+03  4.98949E+03  3.31785E+03  3.35340E+03 -4.18551E+03  1.99614E+03 -4.84898E+03  7.44920E+02
 -7.90062E+03 -2.95066E+03 -9.22925E+03 -1.05220E+04 -5.31170E+03 -1.39473E+04  6.93402E+03 -1.18284E+04
  1.27624E+04 -3.18523E+03  1.76632E+04 -7.93605E+02  1.05850E+04  6.73813E+03  6.89111E+02  9.49209E+03
  8.79870E+02  1.11190E+04 -7.27724E+03  5.20879E+03 -7.34141E+03  6.86879E+02 -8.29388E+02 -5.67268E+03
 -5.69556E+02 -8.42420E+02 -2.32356E+03  3.48963E+02  1.91414E+03  5.00296E+03 -9.43120E+03 -2.26502E+03
 -8.93509E+03 -5.18919E+03  5.70846E+03 -1.11239E+04  1.35728E+04 -1.24031E+04  4.15317E+03 -4.43790E+03
  7.27306E+03  5.03293E+03  3.52601E+03  1.01483E+04 -5.33942E+02  1.54244E+04 -6.86371E+03  5.77074E+03
 -6.79213E+03 -1.54379E+02 -8.68439E+03 -2.84606E+03 -3.98101E+03 -1.11485E+04  6.53348E+03 -6.33177E+03
  9.60049E+03 -1.52921E+03  3.91397E+03 -6.66816E+02  3.13446E+03  4.06146E+03  6.28061E+03  3.78785E+03
  3.43495E+03 -1.44922E+03  4.09362E+03  3.28741E+03  6.29735E+03  9.55592E+03 -2.76284E+03  3.08383E+03
  1.08274E+03  5.98718E+03 -8.31616E+03  7.96138E+03 -1.37614E+04  3.64450E+03 -1.11257E+04 -6.39706E+03
 -5.05885E+03 -7.59623E+03  7.79051E+03 -6.28277E+03  8.54616E+03 -4.59798E+03  1.15996E+04 -4.60474E+02
  9.40751E+03  6.50570E+03 -1.15562E+03  1.25461E+03 -1.86393E+03  5.17886E+03 -8.77195E+03 -2.03452E+03
 -3.18313E+03 -5.47842E+03  3.77659E+03 -7.65583E+03  9.99205E+02 -3.24388E+03  2.09345E+03  2.08655E+03
  1.58041E+03  2.78515E+03  4.45881E+03  3.63806E+03  3.21243E+03  5.39277E+02  5.21635E+03 -7.17329E+03
 -6.34364E+02  2.29118E+03  5.99904E+02  3.48317E+03  4.80585E+03  1.13597E+04 -5.55978E+03  6.28557E+03
 -6.95022E+03  7.63823E+03 -8.56431E+02 -3.68230E+03 -5.18361E+03 -2.38964E+03  2.85523E+01 -4.16369E+03
  5.78349E+03 -4.72568E+03  5.80647E+03  3.07856E+03  6.00267E+03  2.38138E+03  4.67685E+03  2.72032E+03
 -5.03305E+03  2.82447E+03 -3.02311E+03  3.46234E+03 -2.63115E+03 -6.47539E+03  3.37426E+03 -6.80170E+03
  1.96184E+03 -3.42639E+03  2.72197E+03  5.88065E+02  1.78899E+03  6.56402E+02  8.64900E+02  5.05328E+03
 -1.41350E+03 -1.45543E+03 -2.86465E+03  3.27809E+03  6.58770E+03 -5.89456E+03  5.13017E+03 -3.83419E+03
  3.72274E+03 -1.40427E+03  3.88455E+03  3.40268E+03  4.62334E+03  2.58350E+03 -6.87835E+03  6.25315E+03
 -8.46848E+03 -3.09675E+03 -9.77436E+03  4.55064E+03 -6.26406E+03 -1.97002E+03  3.26498E+03 -2.77233E+03
  1.26037E+03 -3.48988E+03  2.76595E+03  1.22442E+03 -4.92106E+03  2.20475E+03  1.44944E+03  7.83428E+03
  6.68336E+02  2.85804E+03  2.17109E+03  2.66971E+02  1.81999E+03  2.03671E+03 -7.14118E+03  1.37400E+02
  1.21105E+03 -1.67576E+03 -3.20536E+03  2.80998E+03 -3.83999E+03  2.22255E+03 -5.53314E+03 -6.10480E+03
  2.77869E+03 -1.00971E+04 -1.24278E+03 -6.74691E+03  2.30789E+02 -1.29586E+04  1.12638E+04  1.62248E+03
  5.00564E+03  4.17667E+03  5.75932E+03  4.03664E+03  1.41925E+03  8.90766E+03  1.00091E+03  6.90096E+03
 -3.03229E+03  8.29894E+03 -1.67730E+03  6.41528E+02  8.51110E+02 -5.99461E+00 -2.08595E+03 -3.08922E+03
 -6.50417E+02  3.19086E+03 -1.95295E+03  1.08464E+02 -1.17712E+03  6.38986E+01  9.04689E+02 -2.42775E+03
  6.22417E+02 -4.76552E+03  5.93105E+03 -5.79261E+02  9.30451E+02  5.44864E+03  3.21900E+03  7.44055E+03
 -2.94910E+03  1.86202E+03 -6.66530E+03  3.21479E+03 -7.88815E+03 -3.63707E+03 -9.71724E+03 -1.03063E+03
 -3.99454E+03 -2.51887E+03  2.91125E+03 -1.05857E+04  5.78161E+03 -7.69253E+03  3.33783E+03 -4.10540E+03
 -3.37279E+02  9.46475E+02 -6.11630E+02 -1.88282E+03 -1.12149E+03 -3.42281E+03 -1.84232E+03 -4.21105E+03
  5.63019E+03  1.96558E+03  1.12056E+03  1.04524E+03 -2.76585E+03  1.18490E+02 -6.59000E+02  9.34308E+02
  2.26413E+02 -1.14023E+03 -1.04295E+03 -1.80999E+03 -4.13310E+03  6.99398E+03  4.16967E+03 -5.09465E+03
  2.31948E+03 -1.14706E+04  1.93296E+03  9.21963E+02  3.54200E+03 -3.39865E+02  3.08689E+03  3.48858E+03
 -6.07899E+02  4.71621E+03 -4.72749E+03  4.68607E+03 -6.71894E+03  2.48769E+03 -1.25637E+03 -3.11278E+03
  1.69622E+03  3.55837E+03 -1.73411E+03 -4.13495E+02 -2.81134E+03  3.14305E+03 -1.44139E+03 -4.12778E+03
 -5.39314E+03  1.33517E+03 -3.75090E+03 -2.41625E+03  2.35964E+03 -5.96449E+03 -5.96673E+02 -8.22367E+02
 -1.17439E+01 -2.92060E+03  3.56809E+03  8.80533E+02 -3.68659E+03  2.81237E+03 -1.09453E+03 -3.90828E+02
