 $NMID ID='MM_0lb_SNR50_8hz_g60_15.RAW', FMTDAT='(8E13.5)'
 TRAMP=1., VOLUME=1. $END
  3.10034E+05  5.90848E+03  3.34605E+05  2.52311E+05  8.55436E+04  3.45173E+05 -1.30857E+05  2.45372E+05
 -1.92793E+05  8.65479E+04 -1.20170E+05 -3.09641E+04 -2.74315E+03 -4.51895E+04  5.16437E+04 -3.66598E+03
  4.05995E+04  5.48923E+04 -7.71647E+03  7.65113E+04 -6.48331E+04  5.89895E+04 -8.03370E+04  3.83811E+04
 -7.75557E+04 -7.89778E+03 -5.74085E+04 -5.33984E+04 -1.83512E+04 -7.06553E+04  2.58546E+04 -5.01157E+04
  3.64339E+04 -8.93259E+02  1.76321E+04  4.45673E+04 -3.19079E+04  5.25801E+04 -6.61607E+04 -2.44923E+03
 -5.23044E+04 -6.60826E+04 -4.98284E+03 -8.58334E+04  3.44512E+04 -5.59177E+04  4.91345E+04 -1.82186E+04
  5.24358E+04  1.44762E+04  3.54309E+04  2.92210E+04  1.94937E+04  3.47897E+04  4.35013E+03  2.74210E+04
 -2.54727E+04  1.88573E+04 -2.04684E+04 -8.60918E+03  1.04982E+04 -3.12624E+03  1.69962E+04  1.28954E+04
  8.90339E+03  3.96148E+04 -4.07890E+04  4.20233E+04 -6.03542E+04 -1.04610E+03 -5.70372E+04 -5.00709E+04
 -1.34069E+04 -6.39477E+04  4.27989E+04 -4.73458E+04  5.86099E+04 -1.65905E+02  3.61626E+04  2.78809E+04
 -9.18847E+03  3.93195E+04 -2.93070E+04  1.98250E+04 -3.94400E+04 -2.35259E+03 -2.58228E+04 -1.07581E+04
 -7.31146E+03 -1.69382E+04 -4.19193E+03 -1.67555E+04  5.22979E+03 -2.35910E+04  1.77960E+04 -1.01608E+04
  8.37980E+03  9.10442E+03 -1.80988E+04  1.50336E+04 -1.97708E+04 -7.56500E+03 -1.14539E+04 -3.28277E+04
  1.62296E+04 -5.23999E+04  5.72956E+04 -2.32184E+04  4.53135E+04  2.01989E+04  2.31347E+04  5.05270E+04
 -1.30670E+04  3.70062E+04 -2.78838E+04  2.99169E+03 -1.97488E+04 -3.17804E+04  2.68882E+04 -3.69097E+04
  4.39646E+04 -1.45392E+04  4.56062E+04  2.56111E+04  2.49623E+04  6.47307E+04 -8.95501E+03  5.81325E+04
 -3.19875E+04  3.65293E+04 -5.17926E+04  1.04626E+04 -5.53906E+04 -1.86575E+04 -2.35322E+04 -4.13777E+04
  7.18427E+03 -3.81356E+04  3.54722E+04 -2.05953E+04  3.20122E+04  9.83180E+03 -1.09867E+03  2.47364E+04
 -1.23831E+04  1.17902E+04 -1.41878E+04 -9.61369E+03  4.98243E+03 -2.24833E+04  2.56528E+04  9.80590E+03
  1.78305E+04  2.81133E+04 -8.49146E+03  2.77139E+04 -1.66341E+04  1.70175E+04 -3.47941E+04 -4.53783E+03
 -2.17350E+04 -1.35913E+04 -1.43485E+04 -2.52532E+04  3.76374E+03 -2.97770E+04  2.05165E+04 -2.55425E+04
  3.34936E+04 -1.63093E+04  4.53663E+04  1.08883E+04  2.08312E+04  2.88109E+04  7.10466E+03  4.75882E+04
 -2.11464E+04  3.87928E+04 -2.48853E+04  1.11691E+04 -2.43708E+04 -9.62078E+03 -7.33164E+03 -1.19573E+04
 -1.96658E+03 -5.52505E+03 -7.06015E+03  7.17227E+03 -2.54651E+04  2.62210E+03 -2.47976E+04 -1.03375E+04
 -1.73106E+04 -2.59191E+04  7.21363E+03 -2.94000E+04  2.71761E+04 -1.92011E+04  2.78603E+04 -2.91822E+03
  9.85975E+03  1.51270E+04 -4.33559E+03  2.99556E+04 -1.81895E+04  1.42381E+04 -2.38953E+04 -4.43705E+03
 -2.36076E+04 -2.09568E+04 -3.91580E+03 -2.80117E+04  1.48218E+04 -2.41747E+04  3.05612E+04 -1.03303E+04
  1.61968E+04 -1.66814E+02  1.68433E+04  8.08212E+03  4.71291E+03  3.27451E+03  1.10286E+04 -6.64050E+03
  2.61745E+04  5.21054E+03  2.72402E+04  1.29896E+04  2.07811E+04  3.60965E+04 -7.84824E+03  5.26853E+04
 -2.78311E+04  3.96571E+04 -4.60756E+04  1.68613E+04 -5.36033E+04 -1.40654E+04 -3.79196E+04 -3.39979E+04
 -1.95623E+04 -4.00273E+04  1.45665E+04 -3.56878E+04  2.60811E+04 -1.82794E+04  1.72894E+04  1.19322E+04
  1.10004E+04  1.50680E+04 -1.52942E+04  1.78791E+04 -2.52660E+04 -2.26958E+03 -1.79612E+04 -1.70013E+04
  4.99794E+03 -2.46423E+04  5.69224E+03 -1.37995E+04  1.53618E+04  3.29208E+03  2.80914E+03  1.07854E+04
 -1.23328E+04  6.37942E+03 -1.09874E+04 -3.32609E+03 -7.08607E+03 -1.75480E+04  1.15955E+04 -2.17071E+04
  2.16099E+04 -1.12214E+04  3.70239E+04  6.86378E+03  3.27517E+04  2.47628E+04  5.57415E+03  2.92695E+04
 -8.67230E+03  3.52257E+04 -1.86193E+04  1.96406E+04 -2.40977E+04  5.56893E+03 -2.53512E+04 -9.93588E+03
 -3.90346E+03 -7.14115E+03 -1.86557E+03  1.16927E+03 -9.82056E+03  4.70385E+03 -3.82113E+03 -1.16764E+03
 -1.19455E+04  3.67060E+03 -1.16883E+04 -1.55160E+04 -2.36266E+03 -1.23427E+04  5.01080E+03 -1.67201E+04
  1.60894E+04 -1.34480E+04  1.21080E+04  5.26639E+03 -3.45753E+03  1.41070E+04 -5.16069E+03  1.88045E+03
 -8.31940E+03 -1.37241E+04 -4.06004E+03 -1.68515E+04  1.58412E+04 -1.66862E+04  2.69099E+04 -1.66266E+04
  3.02995E+04  4.36885E+03  2.17070E+04  2.10535E+04  9.23911E+03  1.71887E+04 -6.97572E+03  1.44450E+04
 -7.35654E+03  3.65863E+03 -4.44874E+03 -1.25393E+03  5.42592E+03 -7.26831E+03  3.71210E+03 -5.86360E+03
  3.53733E+03  7.69265E+03  4.23269E+03  1.22114E+04 -1.02538E+04  1.67686E+04 -1.65564E+04  1.00910E+04
 -1.41603E+04 -4.01091E+03  8.73478E+02 -7.38667E+03  1.05934E+04 -1.43992E+03  1.05693E+04  6.85881E+03
 -4.66919E+03  2.21282E+04 -1.01509E+04  3.49672E+03 -1.99316E+04  5.37324E+03 -9.10244E+03 -8.22313E+03
 -8.09458E+03 -1.57443E+04  3.12993E+03 -1.90987E+04  2.11146E+04 -9.28857E+03  2.82823E+04  1.86419E+03
  1.55244E+04  2.32491E+04 -3.16758E+03  1.99976E+04 -1.26064E+04  1.47585E+04 -8.02669E+03 -2.20577E+02
 -1.55245E+04 -1.41157E+04  1.21085E+03 -9.91938E+03  7.13968E+02 -7.34486E+03  9.37821E+03 -5.62449E+03
  5.31719E+03  4.15922E+03  1.25780E+03 -5.05758E+03 -8.03091E+03 -1.20020E+03  1.05032E+03 -8.92470E+03
  1.63519E+04 -2.61935E+03  2.14750E+04 -1.83483E+02  1.72932E+04  1.57142E+04  7.14925E+03  2.28504E+04
 -7.14729E+03  2.74758E+04 -2.68399E+04  2.68315E+04 -2.53859E+04  7.61765E+03 -1.88595E+04 -1.82127E+04
 -1.39311E+04 -2.90004E+04  7.02790E+03 -2.13600E+04  9.50238E+03 -1.45963E+04  7.31614E+03 -8.45360E+03
  6.25338E+03 -9.31773E+02  1.64892E+03 -6.22655E+03  5.91101E+03 -1.08536E+04  1.26173E+04 -1.91487E+03
  1.50190E+04 -7.82979E+03  1.46941E+04  1.47744E+04  3.44478E+03  1.09529E+04 -1.72451E+04  3.32480E+03
 -1.40490E+04 -2.84825E+03 -9.97088E+03 -1.01380E+04  4.81263E+03 -1.95951E+04  1.51532E+04 -1.93929E+04
  1.61791E+04 -5.78135E+03  2.10425E+04  9.16178E+03  1.23411E+04  1.46785E+04 -1.07732E+03  1.24989E+04
 -6.66404E+03  2.33382E+04 -1.82652E+04  2.81911E+03 -2.81149E+03  6.94410E+02  9.10253E+02 -3.84310E+03
  2.81094E+03  1.95560E+03 -4.03722E+03  7.90702E+03 -5.80606E+03  5.54633E+03 -1.85055E+04 -1.15809E+03
 -1.19140E+04 -1.20099E+04 -6.14981E+03 -2.15338E+04  1.18332E+04 -1.29797E+04  1.43333E+04 -1.58514E+03
  2.48384E+04  7.01333E+03  1.00793E+04  2.00314E+04  8.58462E+01  1.85638E+04 -9.77711E+03  8.92811E+03
 -2.46605E+04  6.87181E+03 -7.57396E+03 -9.78224E+03 -2.16785E+03 -1.64735E+04  8.45381E+03 -7.37068E+03
  1.03054E+04 -2.04527E+03  1.36338E+04  9.64979E+03 -2.01256E+02  8.20465E+03  3.67593E+03  9.60985E+03
  4.21951E+03 -6.57004E+03  3.77827E+03  5.60177E+03  2.31005E+03  9.46299E+03 -4.14432E+02  4.63837E+03
 -9.13680E+03  1.21997E+04 -8.51779E+03  1.38246E+04 -1.77927E+04  3.66848E+03 -2.80867E+04 -9.56120E+03
 -9.35071E+03 -1.40726E+04  1.72482E+03 -2.22335E+04  6.09305E+03 -1.05324E+04  2.19300E+04 -2.86714E+03
  1.38760E+04  2.33935E+02  3.17534E+03  1.24551E+04  5.98058E+02  9.30091E+03 -7.97439E+03 -3.90106E+03
 -9.32323E+03 -6.66871E+03  1.23666E+04 -9.30879E+03  1.27175E+04 -5.39783E+03  6.40307E+03  5.02567E+03
  5.77548E+03  7.28065E+03  8.91165E+03  9.31596E+03 -3.45395E+03  5.35038E+03 -2.12713E+03  3.22313E+02
  9.57080E+02 -3.95672E+03  6.50323E+03  5.45983E+03  1.14192E+04  1.00949E+04 -2.30943E+03  1.61750E+04
 -1.35567E+04  1.58412E+04 -1.24323E+04  3.54831E+02 -1.55467E+04 -4.21318E+03  6.71812E+02 -1.31145E+04
  2.29167E+03 -1.04759E+04  7.14049E+03 -3.30246E+03  1.46563E+03  2.12229E+03 -3.47699E+03  6.71731E+03
 -8.57582E+03  5.05447E+03 -1.25982E+04 -6.22072E+03 -7.60218E+03 -1.42455E+04  5.89593E+03 -1.27626E+04
 -1.51140E+03 -7.42457E+03  6.17372E+03 -4.23944E+03  2.49589E+03  5.90108E+03  3.76715E+03  5.14295E+03
 -4.85605E+03  3.07752E+03 -6.73299E+03 -2.70142E+03 -8.22924E+02 -1.89037E+04  8.60427E+03 -4.22861E+03
  1.41777E+04  2.24850E+03  1.05194E+04  9.81137E+03 -1.14775E+03  1.26828E+04 -6.45269E+03  1.34320E+04
 -5.81948E+03  2.81870E+03 -1.37118E+04  5.16237E+03 -3.92322E+03 -9.89645E+03 -1.36491E+03 -6.45711E+03
 -4.93429E+03 -1.12241E+03  9.68635E+03  4.39788E+03 -1.89340E+03  1.04092E+04 -2.34560E+03 -5.72067E+02
 -3.08935E+03  9.56448E+03 -1.90662E+03 -1.92102E+03  2.99994E+03 -5.22012E+03  4.38405E+03  2.72842E+03
 -4.46655E+03  1.95432E+03 -1.05692E+04  1.97601E+03 -5.98999E+03  2.95199E+02 -1.40297E+04 -5.86128E+03
 -9.45922E+03 -1.27123E+04  1.95893E+03 -2.09993E+04  5.80712E+03 -1.76128E+04  1.44325E+04 -1.03503E+02
  1.53988E+04 -1.35622E+03  9.69392E+03  1.55558E+04 -2.48402E+03  1.65552E+04 -8.37508E+03  1.36262E+04
 -1.33176E+04 -9.96085E+02 -4.36621E+02 -6.22265E+02  6.46893E+03  9.07980E+02  7.04089E+03  1.66494E+03
 -4.94997E+03  6.33671E+03 -5.72579E+03  3.53453E+03 -6.09164E+03 -2.29779E+02  5.18464E+03 -9.86568E+03
  9.48058E+03 -7.87918E+03  9.06678E+03 -2.53360E+03  7.44865E+03 -1.53605E+03  3.23330E+03  5.53088E+03
 -9.18177E+03  1.23076E+04 -1.44943E+04  7.95898E+03 -1.53444E+04 -2.11875E+03 -1.19017E+04 -1.22683E+03
 -2.49750E+03 -1.40173E+04  2.80128E+03 -2.16837E+04  4.68713E+03 -1.27463E+04  9.10563E+03 -4.37951E+01
  1.06103E+03  2.58642E+03 -7.69167E+02  4.18733E+03  7.53124E+02  1.79233E+03  2.15826E+03 -6.54792E+03
  2.26968E+03  2.01443E+03  9.05703E+03  5.69612E+03  1.84789E+03  3.00780E+03  5.29708E+02  8.96249E+03
 -2.48066E+03  1.83288E+03 -1.57609E+04  1.32282E+03 -1.16481E+04 -3.79988E+03 -3.62233E+03 -8.09175E+03
  7.42991E+02 -9.09939E+03  1.44035E+04 -1.24366E+03  1.09587E+04  2.37970E+03  8.69904E+02  2.67734E+03
  2.91582E+03  7.46232E+03  1.82338E+03  7.72966E+03 -3.76403E+03  4.78595E+03 -1.50286E+03 -8.53249E+03
 -4.10142E+03  6.36148E+03 -4.14335E+03  2.72448E+03 -1.29258E+04  2.22821E+03 -1.13218E+03 -1.27482E+03
 -1.30295E+04  2.90249E+03 -4.90896E+03 -2.67046E+03  3.27560E+02 -6.93440E+03  7.34714E+03 -1.67841E+03
  9.85238E+03  1.05236E+03  6.19757E+03  1.11979E+04 -2.51057E+03  8.26210E+03 -4.24099E+03  1.07640E+04
