 $NMID ID='MM_0lb_SNR50_13hz_g50_49.RAW', FMTDAT='(8E13.5)'
 TRAMP=1., VOLUME=1. $END
  3.08791E+05  1.22935E+03  3.33833E+05  2.43305E+05  8.38186E+04  3.45898E+05 -1.32021E+05  2.52280E+05
 -1.84690E+05  8.83800E+04 -1.09085E+05 -2.82747E+04  5.11704E+03 -4.93638E+04  5.71306E+04 -1.40039E+03
  3.30477E+04  4.92950E+04 -2.20194E+04  7.78511E+04 -6.07194E+04  5.89345E+04 -8.45585E+04  3.29396E+04
 -8.41369E+04 -1.46141E+04 -5.75377E+04 -5.41600E+04 -1.59309E+04 -6.91615E+04  2.53162E+04 -4.38838E+04
  3.68097E+04  4.84173E+03  1.39019E+04  4.83067E+04 -3.68966E+04  5.03973E+04 -6.77996E+04 -3.29884E+03
 -5.36862E+04 -5.53665E+04 -5.88172E+03 -7.84826E+04  3.29668E+04 -5.41091E+04  4.63629E+04 -1.63943E+04
  3.97399E+04  9.83564E+03  3.35411E+04  2.34348E+04  1.54346E+04  3.23814E+04 -1.81643E+03  2.90248E+04
 -2.40232E+04  1.22667E+04 -1.90202E+04 -6.52234E+03  4.77127E+03 -4.10910E+03  2.61892E+04  1.62485E+04
  8.10190E+03  3.14076E+04 -3.70588E+04  3.28148E+04 -6.21102E+04  1.90155E+03 -5.66096E+04 -4.47238E+04
 -1.37009E+04 -6.05807E+04  3.77513E+04 -5.27905E+04  5.73687E+04 -1.68194E+03  3.60186E+04  3.56258E+04
 -1.13603E+04  3.65043E+04 -3.36657E+04  1.17897E+04 -3.14396E+04 -4.36987E+03 -1.66445E+04 -1.46473E+04
 -7.69709E+03 -1.24343E+04  3.75687E+03 -1.57344E+04  6.40278E+03 -2.78442E+04  2.08869E+04 -1.37391E+04
  8.79473E+03  7.78758E+03 -8.63819E+03  1.38152E+04 -1.69673E+04 -1.10174E+04 -7.67364E+03 -3.79240E+04
  1.87703E+04 -3.91867E+04  5.21166E+04 -2.69176E+04  4.40007E+04  1.54472E+04  1.22628E+04  5.06046E+04
 -1.37745E+04  3.57461E+04 -2.42690E+04  4.19279E+03 -3.72545E+03 -2.82876E+04  2.35388E+04 -3.65159E+04
  4.51906E+04 -1.22441E+04  3.54795E+04  2.02743E+04  1.65590E+04  4.83313E+04 -9.18131E+03  5.02997E+04
 -3.11576E+04  3.21515E+04 -3.73805E+04  5.06672E+03 -4.43336E+04 -1.88590E+04 -2.05135E+04 -3.88117E+04
  5.31706E+03 -3.46866E+04  3.90306E+04 -1.34091E+04  2.80340E+04  8.99762E+03  2.48324E+03  1.78808E+04
 -9.90431E+03  1.10465E+04 -1.24893E+04 -1.34473E+04  7.61935E+03 -1.32482E+04  2.05777E+04  3.83484E+03
  9.30620E+03  1.95878E+04 -5.28856E+03  2.27975E+04 -1.78000E+04  1.42795E+04 -2.52442E+04 -5.97099E+03
 -1.94965E+04 -2.05968E+04 -9.73236E+03 -1.52437E+04  1.83016E+03 -1.94860E+04  1.65240E+04 -1.46498E+04
  2.54780E+04 -2.09377E+04  3.49053E+04  2.74481E+03  1.97783E+04  2.06376E+04  4.14824E+03  3.97476E+04
 -1.73805E+04  3.66852E+04 -2.64801E+04  7.92337E+03 -2.51466E+04 -1.02113E+04 -2.23654E+03 -1.52386E+04
  1.75082E+03 -2.44714E+03 -7.03794E+03  1.32985E+04 -1.82403E+04  1.73826E+03 -1.79988E+04 -7.18067E+03
 -1.12363E+04 -1.91409E+04  6.19306E+03 -2.59721E+04  1.27981E+04 -1.94008E+04  1.95279E+04  2.66214E+03
  1.56849E+04  1.42276E+04 -9.22883E+02  2.19820E+04 -1.29013E+04  6.02681E+03 -2.19994E+04  1.37618E+02
 -1.37720E+04 -1.64065E+04  1.30186E+02 -2.37935E+04  1.11021E+04 -1.76735E+04  1.90215E+04 -1.05927E+04
  1.50644E+04 -7.25632E+02  1.60468E+04  6.73366E+03  9.56739E+03  4.58094E+03  1.13034E+04 -1.28540E+03
  1.72626E+04  5.90022E+03  2.41586E+04  2.10219E+04  1.04027E+04  3.46261E+04 -3.98995E+02  3.50765E+04
 -2.08981E+04  3.05069E+04 -3.57618E+04  1.19243E+04 -3.58667E+04  4.80438E+02 -3.15623E+04 -2.02196E+04
 -8.56798E+03 -2.63313E+04  9.69069E+03 -2.99471E+04  2.20370E+04 -8.75992E+03  2.13422E+04  6.56787E+03
  5.02220E+03  1.41065E+04 -6.99324E+03  1.54264E+04 -1.68192E+04  3.44049E+03 -9.93075E+03 -8.66718E+03
  1.62639E+03 -1.53963E+04  9.34528E+03 -6.54119E+03  1.42953E+04 -2.81632E+03  4.58504E+03  2.57786E+03
 -1.27490E+04  4.04133E+03 -7.38343E+03 -5.75199E+03 -6.22850E+03 -1.74574E+04  8.57914E+03 -1.76757E+04
  1.58500E+04 -9.86907E+03  1.85766E+04 -4.89982E+01  1.80731E+04  1.42258E+04  1.09988E+04  2.21615E+04
 -1.36924E+03  2.72103E+04 -1.92503E+04  1.22059E+04 -1.50926E+04 -5.62377E+02 -1.07497E+04 -4.22762E+03
 -6.78548E+03 -3.03137E+03 -4.35729E+03 -5.78432E+03 -3.91633E+02  2.46125E+03 -6.16252E+03  1.72743E+03
 -1.29389E+04  3.31009E+03 -1.04017E+04 -8.28381E+03 -7.79497E+03 -1.59194E+04 -1.87988E+03 -1.02614E+04
  7.07621E+03 -8.29320E+03  6.78699E+03  4.96956E+03 -3.52459E+02  3.57363E+03 -7.33619E+03 -2.39282E+03
 -1.00238E+04 -9.45113E+03 -1.29766E+03 -5.33875E+03  1.07162E+04 -1.57202E+04  1.56265E+04 -7.74386E+03
  1.76270E+04 -1.05480E+03  1.62051E+04  1.33104E+04  2.95688E+03  1.31024E+04 -5.14639E+03  1.46692E+04
 -9.71116E+03  2.59953E+03 -2.59345E+03  1.57183E+03 -1.54834E+03 -2.26648E+03  6.87808E+03 -8.62226E+02
  5.03306E+03  6.01850E+03 -1.86071E+03  1.90854E+04 -7.58010E+03  6.62265E+03 -1.14173E+04  1.33695E+03
 -7.16311E+03 -4.74061E+03  3.40147E+03 -1.20127E+04  6.47502E+03 -4.35268E+03  8.05860E+03  1.57590E+03
  5.67491E+03  1.08110E+04 -1.05223E+04  1.07442E+04 -8.38428E+03 -1.74207E+03 -9.64981E+03 -3.34306E+03
 -2.98364E+03 -1.25059E+04  6.43164E+03 -1.59197E+04  1.28495E+04 -9.42365E+03  1.16095E+04  3.70353E+03
  2.09359E+03  4.91959E+03 -6.26047E+02  1.27485E+04 -8.51196E+03  8.71457E+03 -1.19513E+04  1.52760E+03
 -7.75384E+03 -4.02033E+03  3.68292E+03 -3.89245E+03  8.25464E+03 -9.41230E+03  3.60972E+03 -5.44974E+02
  8.73298E+03  4.65162E+03  2.53006E+03  2.39948E+03 -5.25565E+02  2.96905E+03  8.47073E+02 -5.70905E+03
  1.03675E+04 -5.94536E+03  1.08939E+04  5.17826E+03  2.76942E+03  6.01803E+03  4.19630E+03  1.77230E+04
 -9.86615E+03  1.89922E+04 -9.75852E+03  1.50698E+04 -1.32548E+04  3.74843E+03 -1.49157E+04 -4.04806E+03
 -8.27526E+03 -1.55774E+04 -2.09588E+03 -6.64529E+03  9.89615E+03 -6.14760E+03  6.90474E+03 -3.55668E+03
  8.48250E+02 -3.61438E+03  4.82166E+03 -7.53422E+03  6.09974E+03 -1.74420E+03  1.17486E+04 -3.44610E+03
  5.48129E+03  2.62586E+03  6.35364E+03  5.90466E+03  8.57802E+02  8.61250E+03 -8.97335E+03  3.04888E+03
 -1.33867E+04 -4.80528E+03 -5.69467E+03 -5.81580E+03 -2.95754E+03 -1.34426E+04  1.74933E+03 -9.79413E+03
  4.30640E+03 -1.03937E+04  8.41308E+03  1.27274E+02  7.52280E+03  7.62535E+03  3.43881E+03  8.09865E+03
 -6.97988E+03  8.25195E+03 -5.81739E+03  2.07834E+03 -4.74005E+03  5.52707E+02 -6.14038E+03  3.21838E+03
 -5.68059E+03 -2.90515E+03 -4.83960E+01  4.03902E+03 -2.20387E+03  3.21596E+03 -1.90018E+03  2.79923E+03
 -8.52645E+03 -3.23723E+02 -1.73104E+03 -6.06615E+03  2.22932E+03 -1.02021E+04  3.14673E+03 -6.09490E+03
  6.31322E+03  7.04041E+03  3.85866E+03  9.66620E+03 -3.39224E+03  8.43956E+03 -7.28285E+03  2.58792E+03
 -1.12627E+04  5.99323E+03 -7.17203E+03 -7.61173E+03 -4.85017E+03 -2.77506E+03  4.55227E+03 -2.38716E+02
  5.96596E+03 -5.56727E+02  4.64336E+03  2.12698E+03  2.52682E+03 -6.71957E+01  1.10368E+03 -1.62169E+02
 -1.20803E+03  2.11614E+03  1.75709E+03  3.46728E+03  5.76522E+03  1.52227E+03  1.67279E+03  5.54367E+03
  1.40601E+03  3.88950E+03 -3.88040E+03  4.19525E+03 -5.43062E+03  9.20100E+02 -4.56401E+03  1.75294E+03
 -3.27060E+03 -9.85674E+03  3.21231E+03 -1.04092E+04  5.30237E+03 -9.46256E+03  5.82706E+03  2.17686E+02
  8.16316E+03  4.76428E+03  6.14306E+03  7.38671E+03 -6.04200E+03  2.25267E+03 -6.47742E+03 -4.34402E+03
 -4.42650E+03 -2.92436E+03  4.68936E+02 -2.30683E+03  1.52584E+03 -1.44413E+03  4.89713E+03 -1.23346E+03
  3.86712E+03  2.88054E+03  1.58087E+03  1.53440E+03  7.41790E+02  2.41733E+03 -3.34148E+03  5.20958E+03
  3.94399E+03 -1.38399E+03  2.26897E+03  2.16154E+03  9.69039E+02  4.53146E+03  5.97931E+02  8.91112E+03
 -3.31135E+03  3.16157E+03 -4.15065E+03 -2.71505E+03  2.71746E+03 -1.98489E+03 -9.30709E+03 -8.13585E+02
  5.01578E+01 -2.25470E+03  4.81497E+03 -5.93668E+02  4.46708E+03  1.61779E+03  1.66617E+03  4.28898E+03
 -1.99511E+03  3.29740E+03 -1.35148E+03 -1.14815E+03 -6.58996E+03 -6.74667E+03  3.29519E+03 -7.30488E+03
  4.12852E+03 -5.54274E+03  3.45488E+03  3.84032E+03  1.72254E+03  7.41444E+02  2.25118E+03  1.11102E+03
 -3.64667E+03 -2.63799E+03 -5.39464E+03  8.08000E+02  1.13771E+04 -1.10893E+02  1.27606E+03  3.64518E+02
  4.55071E+03  4.77259E+03  4.40219E+03  2.52328E+03  1.40943E+03  3.27586E+03  7.75737E+02 -1.76509E+03
 -8.51586E+03  2.64936E+03 -4.40573E+03 -1.53860E+03 -6.67448E+03  2.44542E+03  7.74792E+02  1.14660E+03
  6.03538E+03 -1.93636E+03  3.59167E+03 -9.34409E+01 -1.32530E+03  1.11127E+03  2.34278E+03  5.55056E+03
 -2.23038E+03  1.78864E+03 -2.40064E+03  1.99339E+02 -3.19512E+03 -2.93381E+03  1.58281E+03  4.26298E+03
 -2.73872E+03 -3.59135E+03 -7.34914E+03  4.67947E+03 -4.93219E+03 -4.27025E+03 -9.03270E+03 -2.29723E+03
  6.21825E+02 -7.72501E+03 -7.69553E+03 -7.35343E+03  2.19622E+03 -1.01643E+04  3.63389E+03 -3.75763E+03
  6.50945E+03 -1.11310E+02  4.80481E+02  1.98978E+03  1.95930E+02  9.34846E+03 -4.88834E+03  2.96072E+03
  2.02228E+03 -2.62825E+03 -3.87725E+03 -6.07169E+03  8.86072E+02  3.44435E+03 -1.77735E+03 -6.63680E+02
 -3.79997E+03 -3.86801E+03  1.43654E+02 -2.08131E+03  6.15412E+01 -3.93138E+03 -5.37770E+03 -5.36950E+03
  3.26898E+03 -4.49343E+03  1.45569E+03 -6.33308E+03  2.88799E+03  2.51918E+03 -4.21555E+03  4.89860E+03
 -3.40886E+03  1.61160E+03 -4.58897E+03  2.64398E+03 -8.13107E+03  2.96716E+03 -8.11516E+03  6.20624E+02
  8.55078E+02 -5.31407E+03  1.73122E+03 -4.98646E+03  7.28893E+03 -3.43363E+02  5.59180E+03 -2.88400E+03
  7.67010E+03  7.31630E+03 -3.19373E+03  2.91315E+03  3.91548E+02  2.01688E+03  2.26127E+03 -3.88898E+03
 -2.98641E+02 -5.94132E+02  2.42567E+03 -6.92453E+02  4.82216E+03  9.53043E+02  4.36435E+03  2.19014E+03
  1.39124E+03  4.25284E+03 -4.77808E+03 -1.85083E+03 -5.91754E+02  2.81722E+02 -4.96586E+03 -2.32897E+03
  2.60201E+03  1.26115E+03  1.68958E+03 -2.25759E+03  5.92913E+02  2.84010E+03 -4.60848E+03  3.01897E+03
  7.21103E+03  5.22428E+03 -1.89126E+03  1.86666E+03 -6.52596E+03 -3.96696E+02 -9.77809E+02 -7.78979E+02
 -1.80943E+03  4.48781E+03  3.48686E+03 -9.23217E+02 -3.37741E+03 -1.46727E+03 -3.36573E+03  3.18004E+03
 -2.41858E+03 -3.79585E+03 -3.88786E+03 -4.58912E+03 -3.99508E+03 -3.81489E+03  5.09277E+03 -1.18903E+03
  2.03436E+03  2.17647E+02 -2.98838E+03  5.33722E+03  3.39111E+03  1.12030E+03  2.53951E+03 -5.19496E+02
