 $NMID ID='MM_0lb_SNR50_18hz_g60_67.RAW', FMTDAT='(8E13.5)'
 TRAMP=1., VOLUME=1. $END
  3.02496E+05 -9.48986E+02  3.36119E+05  2.53782E+05  8.27398E+04  3.39192E+05 -1.31197E+05  2.53814E+05
 -1.90078E+05  8.37057E+04 -1.09670E+05 -3.37303E+04  1.45169E+03 -5.19601E+04  5.15352E+04  1.52132E+03
  4.12048E+04  5.20261E+04 -1.75916E+04  7.66670E+04 -5.68498E+04  6.31649E+04 -8.51263E+04  2.89418E+04
 -7.78806E+04 -8.07973E+03 -5.74840E+04 -5.17394E+04 -1.21711E+04 -6.64131E+04  2.63506E+04 -4.66678E+04
  4.06921E+04  4.50781E+03  1.44269E+04  5.18609E+04 -3.50592E+04  4.66851E+04 -6.48184E+04 -2.61499E+03
 -5.18280E+04 -5.65977E+04 -6.06747E+03 -7.12708E+04  3.45240E+04 -5.28041E+04  4.40191E+04 -1.91211E+04
  4.08326E+04  9.22566E+03  3.27266E+04  2.69957E+04  1.58191E+04  2.63056E+04 -2.07133E+03  2.92604E+04
 -2.26786E+04  1.54023E+04 -1.79561E+04 -4.88769E+03  3.44233E+03 -4.07572E+03  2.05641E+04  1.42173E+04
 -1.39156E+02  3.42900E+04 -3.51740E+04  3.66943E+04 -6.30627E+04  4.51922E+03 -5.21057E+04 -4.30110E+04
 -8.71201E+03 -6.26614E+04  4.47620E+04 -4.62578E+04  6.36944E+04 -3.58189E+03  3.20633E+04  3.22657E+04
 -7.85897E+03  3.64184E+04 -3.24024E+04  1.43440E+04 -3.30658E+04 -4.97494E+03 -1.52125E+04 -7.80886E+03
 -6.24612E+03 -1.09312E+04 -1.67096E+03 -1.90013E+04  8.09757E+03 -2.63649E+04  1.51745E+04 -1.48416E+04
  1.12380E+04  6.04934E+03 -8.63632E+03  1.64429E+04 -2.04308E+04 -1.30006E+03 -7.18023E+03 -3.29917E+04
  2.13597E+04 -4.38675E+04  4.92061E+04 -2.13894E+04  4.19281E+04  2.26485E+04  1.73148E+04  4.61703E+04
 -1.57797E+04  3.22556E+04 -2.42401E+04  3.22948E+03 -3.75870E+03 -2.62907E+04  2.32003E+04 -2.72157E+04
  3.73471E+04 -9.58849E+03  3.01837E+04  2.11684E+04  1.76628E+04  4.17318E+04 -8.37613E+03  4.76271E+04
 -3.01033E+04  3.55032E+04 -3.98613E+04  9.96035E+03 -3.65596E+04 -1.82603E+04 -2.14233E+04 -3.90718E+04
  6.62287E+03 -3.91174E+04  3.62762E+04 -1.45399E+04  3.18241E+04  1.38084E+04  1.89663E+03  1.64912E+04
 -1.62311E+04  4.73718E+03 -1.17373E+04 -4.54491E+03  9.60317E+03 -6.38682E+03  1.54729E+04  8.65455E+03
  9.36151E+03  2.08800E+04 -5.58801E+03  2.67772E+04 -2.70400E+04  1.11045E+04 -2.54503E+04 -4.14790E+03
 -2.14181E+04 -1.63070E+04 -9.43494E+03 -1.78869E+04  1.82461E+03 -2.00054E+04  1.27240E+04 -1.58598E+04
  1.99817E+04 -1.25626E+04  3.48285E+04  2.60048E+03  2.42316E+04  1.24199E+04  4.24810E+03  3.13681E+04
 -1.57018E+04  2.61077E+04 -2.23033E+04  7.22953E+03 -2.19673E+04 -1.11928E+04 -4.73890E+03 -1.25963E+04
  2.99955E+03 -1.88273E+03 -4.48919E+03  5.76921E+03 -1.54398E+04  8.75707E+03 -1.72271E+04 -1.14694E+04
 -8.70379E+03 -2.05147E+04  5.91943E+03 -2.13471E+04  1.93843E+04 -1.65691E+04  1.42847E+04  1.09772E+02
  1.38074E+04  9.38270E+03 -3.14061E+02  1.13974E+04 -6.98411E+03  1.10487E+04 -1.92845E+04 -1.30160E+03
 -1.55401E+04 -1.30059E+04 -1.90965E+03 -2.30271E+04  2.10729E+03 -1.43365E+04  1.67795E+04 -6.68654E+03
  1.07367E+04  2.34217E+03  1.27534E+04  2.92442E+03  8.78178E+03  1.23727E+03  1.19023E+04  7.68565E+01
  1.59530E+04  3.87755E+03  1.39271E+04  1.05688E+04  1.13261E+04  2.99232E+04  8.59040E+01  2.86157E+04
 -1.94866E+04  2.77350E+04 -2.88266E+04  1.30355E+04 -2.81036E+04  3.03228E+02 -2.62850E+04 -1.37575E+04
 -1.16658E+04 -2.64465E+04  7.65954E+03 -2.21899E+04  1.97121E+04 -1.09111E+04  1.51959E+04  7.05570E+03
  6.10586E+03  1.42614E+04 -6.21725E+03  8.33123E+03 -1.40102E+04 -8.30955E+02 -1.01259E+04 -6.49815E+03
  7.47323E+02 -1.22580E+04  6.06455E+03 -6.94441E+03  9.19581E+03  2.52633E+03  1.82979E+03  4.49857E+03
 -2.37515E+03  4.47436E+03 -8.02459E+03 -4.82661E+03 -3.43248E+03 -1.25741E+04  1.06987E+04 -1.09535E+04
  1.59543E+04 -8.51539E+03  1.35246E+04  4.48115E+03  1.04138E+04  1.15929E+04  4.85560E+03  1.60966E+04
 -6.72941E+03  1.80248E+04 -1.24529E+04  1.17327E+04 -1.42597E+04  3.68010E+03 -7.04238E+03  2.87613E+03
 -5.02824E+03 -2.77693E+03 -1.05071E+03  1.01057E+03  1.66691E+03  2.57317E+03 -5.08991E+03  6.43417E+03
 -8.36607E+03  4.54544E+03 -1.20290E+04 -5.07017E+03 -3.20063E+03 -1.33986E+04  2.87580E+03 -7.36446E+03
  9.82029E+03 -6.77682E+03  3.83751E+03  3.04932E+03  2.39907E+02  5.21035E+03 -4.51303E+03  1.79064E+03
 -7.08322E+03 -4.17311E+03 -1.04633E+03 -1.02937E+04  5.30122E+03 -1.12216E+04  6.25113E+03  1.32735E+02
  1.46858E+04  1.59111E+03  9.48878E+03  6.40228E+03  7.74610E+02  1.13728E+04 -5.96632E+03  6.15712E+03
 -8.38649E+03 -2.19488E+02 -4.06251E+03 -4.66590E+03 -3.43423E+02  7.61660E+02  2.87154E+03  1.11766E+03
  4.81053E+03  1.62380E+03  4.62582E+02  7.84274E+03 -3.41887E+03  8.19825E+03 -5.44345E+03  6.74366E+02
 -4.70594E+03 -6.41495E+03  5.14445E+02 -6.85585E+03  8.27116E+03  9.70048E+01  3.29738E+03  1.86298E+03
 -1.32566E+02  3.87403E+03 -6.03123E+03  7.79258E+03 -5.17236E+03  4.25238E+03 -4.37716E+03 -3.99777E+03
 -8.96832E+03 -8.19993E+03  1.85986E+03 -8.33632E+03  8.22452E+03 -6.49322E+03  7.65185E+03 -1.98138E+03
  4.63002E+03  5.67108E+03 -3.14321E+03  7.14159E+03 -8.36323E+03  1.03288E+03 -7.25790E+03  5.36995E+01
 -5.21098E+03 -3.60586E+03  1.16724E+03 -4.63877E+03  5.77243E+03 -3.98031E+03  2.35343E+03 -3.87959E+03
  4.85683E+03 -2.72826E+03  9.88050E+02  8.13168E+02  2.29792E+03 -4.25237E+03 -9.00141E+02 -3.27404E+02
  5.37971E+03  4.32182E+03  6.14906E+03  3.07120E+03  1.12252E+04  6.38049E+03  7.17248E+03  1.09382E+04
  3.68328E+02  9.92389E+03 -6.11430E+03  4.05640E+03 -1.20987E+04  2.46018E+03 -9.58109E+03 -4.80178E+03
 -8.21335E+03 -7.40190E+03 -3.30710E+03 -8.56297E+03 -8.64376E+02 -3.38614E+03 -1.10393E+03 -2.24433E+03
 -8.76446E+02  1.57192E+03  3.60052E+03 -3.77625E+03  6.25152E+03 -1.18780E+03  1.22597E+04  8.29551E+02
  8.47623E+03 -3.09122E+03  9.16179E+03  8.30532E+03 -2.62139E+03  3.35419E+03 -4.74292E+03  9.16210E+02
 -6.00810E+03  1.86155E+03 -4.22184E+02 -2.87447E+03  6.97555E+01 -5.69512E+03  1.90412E+03 -1.15582E+04
  4.86317E+03 -5.19486E+03  6.71848E+03  2.16311E+03  8.52156E+03  3.38652E+03  1.39416E+03  7.31117E+03
 -4.12652E+03  6.83468E+03 -8.78001E+02  2.23267E+03 -1.07365E+03  1.84840E+03 -3.13100E+03 -1.30272E+03
  3.36254E+03  2.51685E+03 -1.26268E+03  2.27843E+03 -5.51855E+03 -8.15388E+02 -1.19970E+03 -2.30434E+03
 -2.08067E+03 -2.07644E+03 -9.27518E+02 -1.10805E+03  2.44422E+03 -5.90992E+03  5.43960E+03  4.79626E+02
  3.17632E+03  3.37316E+03 -7.43723E+02  2.79202E+02 -1.96466E+03  5.22002E+03 -4.78154E+03  5.35931E+03
 -6.91449E+03 -2.62973E+03 -4.39611E+03 -2.89511E+03  2.38290E+03  1.57410E+02  5.29934E+03 -1.63266E+03
  2.09661E+03 -4.12701E+03  1.05935E+03 -1.83815E+03 -7.98029E+02 -3.28574E+03 -3.27641E+03 -1.84168E+03
  5.34079E+03  5.69892E+03  7.93676E+02  2.07469E+03 -3.48844E+03  4.04867E+03 -1.24077E+03  4.88117E+03
 -5.42804E+03  2.72570E+03  7.02952E+01  6.92147E+03 -5.80186E+03  1.52066E+03 -4.19353E+03  1.35487E+03
 -3.70606E+03 -3.90787E+03  4.84836E+03 -7.23804E+03 -1.29951E+03 -6.43796E+03  9.51012E+02 -6.23528E+03
  2.51212E+03  5.53343E+03 -3.51173E+02 -1.19966E+03 -9.95656E+02  8.64464E+02  2.66271E+03 -8.84904E+02
  1.97756E+03 -1.15914E+03  3.02066E+02 -3.25897E+03 -1.97147E+02 -2.38787E+03  1.35280E+03 -6.38125E+02
  4.83201E+03 -3.03671E+03  3.78051E+03 -9.06416E+02 -3.87855E+03  1.48974E+03  1.91589E+03  6.26624E+03
  6.46162E+03 -3.85582E+03 -9.72724E+02 -1.66734E+02  9.92202E+02  2.58805E+03 -3.32684E+03  4.13931E+03
 -1.92319E+03 -1.05454E+03 -2.22646E+03  5.50191E+02 -1.69224E+03 -1.10539E+03 -3.52434E+03  4.05036E+03
  7.61043E+03 -1.28523E+03 -1.82884E+03  1.76152E+02 -1.67514E+03 -7.58801E+01 -2.31537E+03  3.36453E+03
 -8.53303E+02  1.33608E+03 -2.76187E+02 -4.10791E+03  9.56339E+00  2.11834E+03  2.80249E+03 -6.96794E+02
 -2.17015E+03  1.20443E+03  1.14890E+03  4.51538E+03  1.06829E+03 -2.09420E+03  1.71039E+03 -2.96568E+03
 -8.22243E+02 -2.97730E+03 -7.40120E+03  4.43712E+03  2.21529E+02 -8.18256E+02 -3.78791E+02 -3.08955E+03
  1.00517E+03  3.79231E+03  2.21760E+03 -8.98321E+02  5.44719E+03 -2.02010E+03  1.45023E+03 -1.63851E+03
  6.04302E+02  4.13334E+03 -1.44203E+03 -1.52495E+03 -1.63623E+03 -3.47736E+03  2.89339E+03 -3.01304E+03
  1.90677E+03  1.73763E+03  3.55708E+03  2.51635E+03  1.16172E+02  3.74093E+03  4.08376E+03  5.46761E+02
  1.19450E+03  7.17445E+03 -1.97599E+03  2.28002E+02  4.32189E+02 -1.83119E+03 -6.60620E+02 -4.60412E+03
  9.74701E+02  4.20256E+03  1.43397E+02  4.02576E+03  1.38980E+03 -1.01051E+03 -3.89347E+03  1.72467E+03
 -3.65604E+01 -3.66092E+03  1.36667E+03 -6.00283E+03 -3.39826E+03 -3.43150E+03  7.47022E+03 -2.46743E+03
  2.92951E+03  1.43790E+03  2.65541E+03  1.62768E+03 -9.03944E+02  1.76673E+03  6.01265E+02  7.90100E+02
 -1.56427E+03 -6.86524E+02  6.48082E+03  1.16898E+03 -1.89446E+02  1.13464E+02 -3.35476E+03  1.27797E+03
 -4.19410E+03  2.96084E+03 -1.23371E+03  2.24639E+02 -4.50970E+02 -1.82416E+03 -4.48786E+03  3.28300E+03
 -1.09977E+03  3.20256E+03  2.20927E+03  2.40862E+03  2.34120E+02  2.01153E+03 -1.53956E+03  1.48956E+02
 -4.45158E+02  6.69750E+03 -1.16506E+03  2.01601E+03 -3.39757E+03 -2.62326E+03  1.97224E+03 -4.38797E+03
 -2.23203E+03 -4.51923E+02 -2.91482E+02 -2.23554E+03 -1.08246E+03 -9.54819E+02 -3.82940E+03 -1.48639E+03
  4.30608E+03  1.57524E+03 -2.98306E+03  2.33299E+03 -1.46153E+03 -5.79953E+02  1.81972E+03 -1.64269E+03
  6.63426E+02 -4.07222E+03  8.72763E+02  2.38047E+03  4.37552E+03  3.22669E+03 -1.57472E+03  1.91727E+03
 -3.26135E+03 -5.43024E+02  2.28363E+03  3.61675E+03 -4.20580E+03 -3.27502E+03 -1.54735E+03  3.38270E+03
 -1.18347E+03 -1.66327E+03 -2.15429E+03  8.11157E+02  4.23548E+02 -3.22145E+01  3.85367E+03 -2.80388E+03
 -2.11304E+03  3.12320E+03 -3.34345E+03  5.00503E+03  1.41490E+03 -1.55157E+03  7.10935E+02 -1.42562E+03
  7.13620E+02  8.33843E+02 -2.48353E+03 -3.00215E+03 -2.58367E+03 -9.89344E+02  2.58792E+03 -2.23822E+03
 -2.67412E+03 -3.40012E+03 -3.40652E+03  7.66223E+03  3.31199E+03 -2.03414E+03  7.26319E+02  4.69178E+03
  1.80802E+03 -4.49358E+03  1.26441E+03 -2.27827E+03 -1.15737E+03  1.79860E+03  1.83479E+03  1.81450E+02
