 $NMID ID='MM_0lb_SNR50_15hz_g45_14.RAW', FMTDAT='(8E13.5)'
 TRAMP=1., VOLUME=1. $END
  3.14090E+05  5.83886E+02  3.37634E+05  2.52713E+05  8.53823E+04  3.42119E+05 -1.34993E+05  2.46814E+05
 -1.89979E+05  8.39798E+04 -1.14410E+05 -3.45868E+04 -1.28676E+02 -4.94261E+04  5.05981E+04 -3.03151E+03
  3.35424E+04  5.39723E+04 -1.65570E+04  7.25419E+04 -6.35972E+04  6.03133E+04 -8.33116E+04  3.19848E+04
 -7.88619E+04 -1.37853E+04 -5.71442E+04 -5.46145E+04 -1.69231E+04 -7.32113E+04  2.75973E+04 -4.73687E+04
  4.39335E+04  5.01858E+03  2.03083E+04  4.83932E+04 -3.93580E+04  4.73323E+04 -6.46828E+04 -3.48982E+03
 -5.45284E+04 -5.80947E+04 -8.41767E+03 -7.76986E+04  3.23809E+04 -5.44161E+04  4.76555E+04 -2.26199E+04
  4.27647E+04  1.12540E+04  3.58805E+04  2.27901E+04  1.43912E+04  2.79254E+04 -6.63603E+03  2.51040E+04
 -2.19938E+04  1.44744E+04 -1.79972E+04 -2.95095E+03  6.58240E+03 -7.12725E+03  2.50690E+04  1.25410E+04
  5.77468E+03  3.34984E+04 -3.42151E+04  3.57840E+04 -6.21660E+04 -8.27731E+02 -5.77236E+04 -4.24223E+04
 -1.65998E+04 -6.23406E+04  3.76916E+04 -4.18689E+04  5.39568E+04 -7.07474E+03  3.54721E+04  3.22530E+04
 -3.68281E+03  3.27953E+04 -3.12871E+04  1.51603E+04 -2.38688E+04 -6.83205E+03 -1.39639E+04 -1.00227E+04
 -3.42838E+03 -1.07921E+04 -2.90447E+03 -1.57863E+04  8.94073E+03 -2.46897E+04  1.15821E+04 -1.62400E+04
  1.29994E+04  3.02220E+03 -9.53214E+03  1.47931E+04 -1.56039E+04 -2.71696E+03 -7.72697E+03 -3.24907E+04
  1.88954E+04 -4.25982E+04  4.88780E+04 -1.41506E+04  4.53743E+04  1.95147E+04  1.48902E+04  4.16476E+04
 -1.41405E+04  2.97972E+04 -2.75374E+04 -3.00999E+02 -7.81002E+03 -2.75792E+04  2.29053E+04 -3.34946E+04
  4.28048E+04 -9.62013E+03  3.14160E+04  2.16785E+04  1.49728E+04  4.57054E+04 -1.02566E+04  4.51096E+04
 -3.08644E+04  3.10886E+04 -3.65168E+04  9.32358E+03 -4.36276E+04 -1.81594E+04 -2.03855E+04 -4.00998E+04
  3.53733E+03 -3.45728E+04  2.89234E+04 -1.30281E+04  2.77581E+04  1.01785E+04  1.45549E+03  1.91895E+04
 -1.19659E+04  4.62705E+03 -1.30730E+04 -8.97998E+03  3.14479E+03 -6.94629E+03  1.35246E+04  8.18416E+03
  7.87078E+03  1.71860E+04 -1.06963E+04  2.24725E+04 -2.11587E+04  9.89635E+03 -2.58690E+04 -3.40890E+03
 -1.78909E+04 -1.92752E+04 -6.59385E+03 -1.97781E+04  5.58647E+03 -1.27485E+04  1.30427E+04 -1.71109E+04
  2.25181E+04 -1.13045E+04  3.52574E+04  4.45296E+02  2.52926E+04  2.37270E+04  4.27284E+03  3.45694E+04
 -1.83189E+04  3.04004E+04 -2.97440E+04  1.27887E+04 -1.99447E+04 -1.09998E+04 -5.06122E+03 -1.82220E+04
  4.69004E+03  2.32764E+03 -6.92143E+03  9.22243E+03 -1.57184E+04  3.49250E+03 -1.43907E+04 -4.48687E+03
 -8.89446E+03 -1.63597E+04  2.70905E+03 -2.22612E+04  1.76025E+04 -1.43012E+04  1.76458E+04 -4.47234E+03
  1.01420E+04  1.23265E+04  1.35240E+03  1.80696E+04 -1.07825E+04  9.27396E+03 -1.79168E+04 -3.11580E+03
 -1.20875E+04 -1.98677E+04 -2.62561E+03 -2.29172E+04  7.96399E+03 -1.62414E+04  1.84294E+04 -1.39981E+04
  1.51074E+04  1.84619E+02  1.08005E+04  1.31144E+03  6.14082E+03  1.39815E+03  1.14105E+04 -1.41570E+03
  1.30778E+04  2.10908E+03  1.45065E+04  1.69769E+04  1.00232E+04  2.58932E+04 -3.17705E+03  3.10238E+04
 -2.30977E+04  2.37124E+04 -2.85530E+04  1.29504E+04 -2.74720E+04 -5.09886E+02 -2.69856E+04 -1.91980E+04
 -9.87731E+03 -2.59643E+04  8.74398E+03 -2.42734E+04  2.46609E+04 -9.26014E+03  1.79853E+04  8.97006E+03
  2.34026E+03  1.65961E+04 -8.02757E+03  1.10615E+04 -1.72715E+04 -8.17880E+01 -9.73372E+03 -7.87060E+03
  2.51101E+03 -1.59239E+04  5.33000E+03 -1.12458E+04  7.91664E+03  6.57207E+02  2.97527E+03  2.77290E+03
 -3.20305E+03  5.08526E+03 -7.58806E+03 -7.72870E+03  2.81879E+02 -9.22600E+03  6.58653E+03 -1.22096E+04
  1.03161E+04 -4.21114E+03  1.48819E+04  3.50894E+03  1.38204E+04  1.47282E+04  2.06521E+03  1.82609E+04
 -3.86496E+03  2.51884E+04 -1.27952E+04  1.18009E+04 -1.70797E+04  1.76223E+03 -9.91398E+03 -6.70532E+02
 -1.03004E+04 -6.77157E+03 -6.52135E+02 -7.08897E+01 -3.13922E+03  7.55738E+02 -4.25560E+03  5.72966E+02
 -1.00614E+04  1.18394E+03 -1.23520E+04 -9.87724E+03 -3.03801E+03 -1.59179E+04  9.90043E+03 -1.03563E+04
  1.00179E+04 -4.44667E+03  8.65072E+03  5.49752E+03 -6.79724E+02  8.01348E+03 -2.25499E+03 -6.72021E+02
 -1.08073E+03 -5.77279E+03 -1.09387E+03 -1.19635E+04  6.38523E+03 -8.26706E+03  1.19056E+04 -6.93897E+03
  8.16513E+03  3.02830E+03  1.04587E+04  7.64240E+03  4.44367E+03  1.30194E+04 -7.39183E+03  1.15233E+04
 -1.06119E+04  4.40773E+03 -6.04383E+03 -1.43898E+03  5.39059E+02 -3.51849E+03 -1.93048E+03 -1.33242E+03
  5.54959E+03  7.80871E+03  8.87064E+02  4.52731E+03 -6.14005E+03  8.49674E+03 -1.04036E+04  2.60649E+03
 -5.65093E+03 -3.03034E+03 -1.26497E+03 -6.64934E+03  5.17627E+03 -3.44858E+03  2.17229E+03  2.82414E+03
  2.31869E+03  8.10276E+03 -3.50256E+03  5.70845E+03 -6.26719E+03  4.42622E+03 -8.74439E+03 -2.77177E+03
 -1.14364E+03 -7.23148E+03  2.66255E+03 -1.13868E+04  8.41109E+03 -4.82846E+03  1.24688E+04  5.48528E+02
  6.56071E+03  2.17960E+03  8.71362E+02  7.98539E+03 -5.81844E+03  3.76006E+03 -1.06729E+04 -8.03853E+02
 -1.08158E+04 -5.22204E+03  2.06543E+03 -9.77580E+03  1.54380E+03 -5.00121E+03  3.69769E+03 -3.68442E+03
  9.99619E+03 -1.63593E+03 -3.72734E+03  4.88867E+02 -7.31158E+02 -1.00385E+02 -5.90415E+02 -2.19839E+03
  7.70008E+03 -3.18299E+03  1.09229E+04  1.06752E+03  7.88328E+03  6.32204E+03  8.87671E+03  9.92241E+03
 -4.92382E+03  1.09710E+04 -1.41570E+04  7.86550E+03 -9.20797E+03  3.20560E+03 -1.21644E+04 -4.13874E+03
 -4.62684E+03 -9.74999E+03  2.68995E+03 -6.48354E+03  1.59535E+03 -4.35938E+03  5.78449E+03 -1.04710E+03
  2.32570E+03 -1.52058E+03  7.76978E+02 -2.22513E+02  5.91216E+03 -1.42377E+03  7.71740E+03  2.92568E+03
  1.29166E+04  2.37515E+03 -2.41258E+02  1.07471E+02 -3.17036E+03  2.85295E+03 -5.41889E+03  1.00367E+04
 -4.45931E+03  2.89760E+03 -2.94861E+01 -7.31559E+03  5.56497E+02 -6.66510E+03  3.37246E+03 -7.33624E+03
  6.83991E+03 -9.36188E+02  7.37497E+03 -2.33727E+02  6.67840E+03  3.79136E+03  5.12574E+03  1.38564E+04
 -4.53599E+03  6.93781E+03 -3.99109E+03  1.81217E+03 -2.02007E+03 -4.32703E+03  2.42413E+03 -1.59421E+03
 -2.41301E+02 -7.40997E+02  2.70899E+03  3.10699E+03 -4.04456E+02  4.68753E+03 -6.02563E+03  7.00060E+01
 -4.36550E+02 -4.51298E+03  4.93705E+03 -8.66740E+03  5.39496E+03 -4.90943E+03  4.22212E+03  1.76654E+03
  1.00042E+04  2.44511E+03  1.94279E+03  8.58816E+03 -3.22716E+03  8.61470E+03 -6.04948E+03  5.99820E+03
 -3.31647E+03  3.99612E+03 -3.95660E+03 -1.34664E+03 -1.52136E+03 -3.53128E+03  6.90517E+01 -7.64389E+03
  4.86906E+03 -1.86366E+03  2.69813E+03  7.42047E+03  3.21993E+03  8.93443E+02  9.13183E+02  1.35348E+03
  1.28422E+03 -2.96340E+02  5.34825E+03  3.38787E+03 -1.14057E+03  4.23341E+03  4.71554E+02  4.37967E+03
 -6.13486E+02  4.76471E+03 -8.24118E+03  7.45751E+03 -8.17661E+03 -1.68331E+03 -6.13547E+03 -3.78930E+02
 -2.45919E+03 -5.92493E+03  2.93293E+03 -6.67445E+03  1.58569E+03 -4.98998E+03  4.39651E+03 -3.77696E+03
  3.17727E+03  3.75042E+03  1.45762E+03  6.58502E+02 -2.03400E+03 -3.05282E+03 -5.68580E+03 -3.71941E+03
 -3.33464E+03 -1.03727E+03  3.63790E+03 -3.96898E+03  6.66152E+03 -1.79291E+03 -1.15053E+03  4.33085E+03
  4.87806E+03 -9.28167E+02 -1.38984E+03 -7.57149E+02 -6.67563E+02 -1.70966E+03  4.10193E+03  1.22437E+02
  1.13868E+03  9.76150E+02  1.72430E+03  6.41714E+03  2.50260E+03  2.27741E+03 -6.74723E+02  4.93300E+03
 -1.55045E+03 -8.91259E+02 -4.87686E+03  6.30211E+02 -5.94649E+03 -5.14136E+03 -1.80515E+03 -4.55219E+03
  3.21632E+03  2.51708E+03  2.17738E+02 -5.02032E+03  3.65930E+02  3.18785E+03  5.32620E+03  2.86965E+03
 -3.86857E+03  6.33244E+02 -3.01984E+03 -4.78665E+03 -1.37779E+03 -2.67185E+03  1.55350E+02 -2.74186E+03
  2.62687E+03 -2.82831E+03  7.22756E+03  7.71735E+02 -2.33965E+03 -2.55875E+03  1.64952E+03  9.36499E+02
  4.43191E+02  6.88747E+03 -3.51398E+03 -2.89219E+03 -7.70171E+02 -4.62662E+03  2.05663E+03 -1.48697E+03
 -5.13088E+02  5.10127E+03  2.08212E+03 -3.95950E+02  1.89816E+03  7.18728E+03 -1.83543E+03  4.40556E+03
 -4.41930E+03  6.33257E+02 -4.19089E+03  2.39003E+03 -3.97159E+03 -4.51291E+03 -2.36699E+02 -2.63897E+03
  4.09074E+03 -7.71348E+03  1.06018E+03  4.05649E+03 -3.30607E+03 -1.19598E+03 -2.88999E+03 -1.34979E+03
 -2.05319E+03 -2.43247E+02 -4.18146E+03 -1.30577E+03 -2.12048E+03  2.75876E+03 -3.23138E+03  1.05678E+03
  1.60612E+03  3.99874E+03 -1.76721E+03  3.32201E+03 -2.01566E+03  1.14778E+03 -3.82078E+03 -2.91935E+03
  2.22772E+03 -7.66796E+03  3.09414E+03 -8.22155E+03  6.82590E+03 -5.65427E+03  4.80112E+03 -3.72306E+03
  1.02949E+03 -1.22054E+01  2.16610E+02  4.42777E+03  4.70485E+03  4.01448E+03 -5.17695E+03  1.06309E+03
 -2.26864E+03  4.27414E+02 -9.20423E+02 -4.52859E+03 -2.92167E+02 -5.51096E+02 -1.89643E+03 -2.38781E+03
  9.60270E+02 -5.59890E+02 -1.42196E+03 -8.10080E+02  2.67351E+03 -6.71774E+03 -9.74349E+02 -5.92762E+03
  7.93963E+03 -3.84996E+03  4.55035E+03 -1.95425E+03  6.48006E+03 -3.46391E+03  2.72345E+02  6.03210E+03
  2.43419E+03  4.52382E+03 -3.04571E+03  2.43343E+02  5.60379E+02 -1.15138E+03 -3.76918E+03  1.19096E+03
 -4.33566E+03 -4.53668E+03 -8.26049E+02 -1.07024E+03  4.37610E+03 -3.26857E+03  1.89626E+03  4.01149E+03
  1.85916E+03 -2.83007E+03 -1.46129E+03  2.47757E+03 -2.31368E+03  3.89490E+03  6.29763E+02 -1.71840E+03
  6.99662E+03  3.74511E+03  6.16056E+02 -1.96223E+03 -8.49224E+02  3.46508E+02 -1.06411E+03  8.88257E+02
 -2.75215E+03  3.92829E+03 -7.01323E+03  2.59202E+03 -3.67445E+03 -1.43247E+03 -2.41999E+03 -2.22078E+03
  4.01725E+03 -5.18990E+03 -6.04485E+02 -4.99066E+02 -1.48438E+02 -2.06701E+03 -7.47150E+01 -5.61977E+02
  4.11424E+02  1.77234E+03 -3.03798E+03  3.18093E+03  4.31626E+02 -3.06825E+03 -1.52547E+03 -8.76314E+01
 -6.99106E+02 -1.86171E+03  1.70418E+03 -8.29988E+02 -5.36491E+03  2.55271E+03 -4.91846E+03 -3.35905E+03
 -1.44920E+03  5.27120E+03  1.45896E+03 -3.04290E+03  3.21570E+03 -1.65174E+02 -3.15899E+02  9.33514E+02
  2.16495E+03 -1.67448E+03  5.40191E+03  2.01384E+03 -2.56419E+03 -4.17715E+03 -3.93773E+02  1.97133E+03
