 $NMID ID='MM_0lb_SNR50_14hz_g45_47.RAW', FMTDAT='(8E13.5)'
 TRAMP=1., VOLUME=1. $END
  3.12981E+05  1.83834E+03  3.38382E+05  2.48748E+05  8.85659E+04  3.40896E+05 -1.27994E+05  2.53681E+05
 -1.90055E+05  8.53775E+04 -1.12146E+05 -3.36049E+04  1.63613E+02 -5.08179E+04  5.72992E+04 -2.88774E+03
  3.03520E+04  5.31623E+04 -1.76311E+04  7.63780E+04 -5.77969E+04  6.26229E+04 -8.36863E+04  3.27232E+04
 -7.92392E+04 -1.06466E+04 -5.73348E+04 -4.94556E+04 -2.13264E+04 -6.81936E+04  2.67054E+04 -4.70917E+04
  4.38273E+04  4.80285E+03  1.05041E+04  4.48293E+04 -3.31261E+04  4.51430E+04 -6.56167E+04  1.52795E+03
 -5.20795E+04 -5.58296E+04 -8.40922E+03 -7.81421E+04  3.49203E+04 -5.27824E+04  4.97956E+04 -1.84683E+04
  4.54627E+04  1.02808E+04  2.99059E+04  2.67518E+04  2.19214E+04  2.53373E+04 -5.11459E+03  3.28225E+04
 -2.58544E+04  1.34399E+04 -2.30625E+04 -4.54950E+03  2.66927E+03 -8.33697E+03  2.18463E+04  2.00546E+04
  2.34603E+03  3.14835E+04 -3.11880E+04  3.23138E+04 -6.28639E+04 -4.61391E+02 -5.70579E+04 -4.11765E+04
 -1.13969E+04 -5.96846E+04  4.01175E+04 -4.47728E+04  5.57584E+04  1.73132E+03  3.48104E+04  3.10904E+04
 -4.39863E+03  3.52498E+04 -3.26388E+04  1.31966E+04 -3.25830E+04 -8.92565E+03 -1.82311E+04 -8.95453E+03
 -4.63430E+03 -1.24631E+04  5.68163E+02 -2.17722E+04  7.16812E+03 -2.60408E+04  1.68688E+04 -1.70784E+04
  1.51721E+04  6.10358E+03 -5.87648E+03  1.86179E+04 -1.99406E+04 -5.67424E+03 -8.56393E+03 -3.08426E+04
  2.58860E+04 -3.87051E+04  4.72285E+04 -1.85477E+04  4.09204E+04  2.06733E+04  1.66550E+04  4.12917E+04
 -1.54095E+04  2.85205E+04 -2.19395E+04  4.86259E+03 -8.35453E+03 -2.53656E+04  1.34989E+04 -3.03345E+04
  4.17199E+04 -9.96321E+03  3.25512E+04  2.30478E+04  1.80758E+04  4.58729E+04 -9.52704E+03  5.18558E+04
 -3.01123E+04  3.43302E+04 -4.03134E+04  1.28488E+04 -4.13544E+04 -1.22812E+04 -2.28415E+04 -3.51089E+04
  7.66829E+03 -3.91655E+04  3.23068E+04 -1.50987E+04  3.17660E+04  1.04934E+04  2.87183E+03  2.03316E+04
 -1.69708E+04  2.32345E+03 -9.17767E+03 -8.79338E+03  1.30001E+03 -1.18477E+04  1.55276E+04  5.27189E+03
  1.23111E+04  1.35450E+04 -8.17236E+03  2.41613E+04 -2.32833E+04  1.23647E+04 -3.06492E+04 -7.76191E+03
 -1.76101E+04 -2.01161E+04 -8.18796E+03 -1.46875E+04  3.17409E+03 -1.91778E+04  1.88132E+04 -1.83081E+04
  2.92549E+04 -1.19487E+04  3.71925E+04  6.71658E+03  1.82500E+04  1.94316E+04  6.63822E+03  3.42648E+04
 -1.68411E+04  2.89760E+04 -2.59985E+04  7.90808E+03 -1.91119E+04 -1.11725E+04 -7.37192E+03 -7.51378E+03
 -1.31076E+03 -4.04684E+03 -4.46313E+03  6.37667E+03 -1.77030E+04  1.61174E+03 -1.95357E+04 -6.02257E+03
 -5.55854E+03 -1.72775E+04  1.72713E+03 -2.29515E+04  1.52006E+04 -1.81903E+04  2.08929E+04 -1.07933E+03
  1.24529E+04  1.10358E+04 -2.40003E+03  1.99270E+04 -9.69145E+03  9.80769E+03 -1.78871E+04 -7.75733E+03
 -1.17789E+04 -1.62445E+04 -4.03920E+03 -2.58213E+04  6.15167E+03 -1.61633E+04  1.84624E+04 -3.25541E+03
  1.68926E+04 -1.52401E+03  1.43668E+04  1.30615E+03  4.29863E+03 -1.88806E+03  8.44746E+03 -2.03777E+03
  2.03749E+04  5.58939E+03  1.66958E+04  1.62607E+04  1.22688E+04  2.94649E+04 -5.17092E+03  2.96749E+04
 -1.69853E+04  2.42312E+04 -2.78922E+04  8.75131E+03 -3.51039E+04 -5.55902E+02 -2.45349E+04 -1.93906E+04
 -1.06505E+04 -3.05394E+04  8.29222E+03 -2.36186E+04  1.71144E+04 -1.46980E+04  2.08421E+04  3.77304E+03
  5.76035E+03  1.54884E+04 -1.17402E+04  1.27607E+04 -2.06097E+04  1.94139E+03 -1.62380E+04 -6.40061E+03
 -1.74823E+03 -1.21749E+04  9.62271E+03 -1.09006E+04  1.26777E+04 -1.43328E+03  3.76555E+03  7.95250E+03
 -7.12729E+03  5.39294E+03 -1.38118E+03 -7.12115E+03  1.51843E+02 -1.58822E+04  9.46681E+03 -1.08923E+04
  1.63609E+04 -1.07181E+04  2.07878E+04  4.85568E+03  1.81460E+04  1.21736E+04  5.63259E+03  2.33085E+04
 -2.81222E+03  1.99460E+04 -9.24158E+03  1.75914E+04 -1.59822E+04 -5.61236E+02 -1.09585E+04 -2.69084E+03
 -4.92668E+03 -4.92233E+03 -4.14784E+03  1.80260E+03  8.23432E+02 -5.11063E+01 -3.63610E+03 -2.16434E+03
 -6.68499E+03  2.49439E+03 -1.01203E+04 -1.13947E+04 -3.73493E+03 -1.09871E+04  1.57246E+03 -9.76867E+03
  9.21560E+03 -1.49712E+03  1.36654E+04  3.21850E+03 -2.26751E+03  7.05437E+03 -6.87685E+03  4.01411E+03
 -6.07844E+03 -2.42915E+03  1.56050E+03 -1.21972E+04  2.89570E+03 -1.37771E+04  1.41468E+04 -6.04093E+03
  1.71983E+04  3.64550E+03  8.51547E+03  1.40050E+04 -1.09124E+03  1.20134E+04 -5.97496E+03  9.48226E+03
 -7.76598E+03  5.73309E+03 -1.90064E+03 -4.17078E+03  2.76456E+03 -3.47317E+03  6.16211E+03  1.20257E+03
 -1.16886E+03  8.09179E+03  1.11406E+03  1.24232E+04 -1.14436E+04  3.75991E+03 -1.66435E+04 -2.88645E+03
 -7.01685E+03 -6.31715E+03  8.04684E+02 -1.28738E+04  5.57537E+03 -7.48151E+03  3.63395E+03  5.01539E+03
 -1.26769E+03  8.36951E+03 -8.09165E+03  5.80959E+03 -5.75550E+03 -1.25348E+03 -6.90698E+03 -1.38253E+03
 -3.23445E+03 -7.94133E+03 -1.05421E+03 -5.71189E+03  7.02697E+03 -2.52273E+03  1.43761E+04  1.59992E+03
  3.21749E+03  5.86058E+03  4.33011E+01  1.08058E+04 -6.42638E+03  6.05914E+03 -9.20641E+03 -3.00039E+02
 -1.09402E+04 -1.14150E+04  1.73727E+03 -1.63886E+03  8.12635E+02 -6.35795E+03  2.43364E+03 -5.27756E+03
  2.63838E+03  2.96812E+03 -5.61390E+02  5.71769E+03  1.38213E+03 -1.32763E+03  2.14982E+03 -5.49151E+03
  2.34605E+03 -8.82099E+03  1.14764E+04  1.12270E+03  1.21936E+04  3.07250E+03  4.27207E+03  9.53362E+03
 -3.87968E+03  1.50425E+04 -8.10684E+03  5.38110E+03 -1.65791E+04 -7.04265E+02 -1.24823E+04 -7.32680E+03
 -9.50638E+03 -9.67095E+03 -1.79628E+03 -7.24658E+03  5.30489E+02 -6.37730E+03  2.67145E+02 -5.67347E+03
  6.73188E+03 -1.16518E+03  9.75980E+03 -3.89278E+03  1.93083E+03 -5.11852E+03  6.32710E+03 -3.33622E+03
  6.77839E+03  3.97882E+02 -1.32979E+03  8.95737E+03 -8.90881E+02  1.86834E+03 -8.60071E+03  7.25480E+03
 -1.61678E+04 -2.86757E+02 -3.28633E+03 -9.86041E+03 -1.47182E+03 -7.43965E+03  8.65740E+03 -7.66057E+03
  1.26097E+04 -8.83620E+03  1.38662E+04  4.85562E+03  1.42676E+04  7.86672E+03  5.87782E+03  1.42172E+04
 -3.56390E+03  9.34341E+03 -3.16964E+03  6.01589E+03 -3.20120E+03  5.57817E+03  2.07637E+03  3.99193E+02
 -2.60897E+03 -9.79482E+02 -2.02327E+03  2.33181E+03 -4.03552E+03  2.67614E+03 -6.62965E+03  1.04010E+03
 -9.44668E+02 -4.42165E+03  1.96510E+03 -1.14804E+04  4.04751E+03 -7.47712E+03  7.28150E+03 -1.18603E+03
  8.10857E+03  7.17270E+03  4.13473E+03  8.29676E+03  1.49153E+02  7.23612E+03 -1.21526E+03  1.98201E+03
 -3.13615E+03 -2.90444E+02 -5.81289E+03 -1.54368E+03 -4.54249E+03 -2.85078E+03  5.07185E+03 -2.81406E+03
  5.32625E+03 -2.42436E+03  4.73030E+03  2.99744E+02  6.99269E+03  1.66603E+02 -1.81240E+03 -2.58681E+03
  3.88762E+02  4.42244E+03  4.14965E+02  6.97036E+02 -1.05511E+03  4.31986E+03  5.53335E+03  3.15573E+03
 -2.03561E+03  4.52773E+03 -7.45178E+03  1.19976E+04 -5.05824E+03 -2.15477E+03 -8.06160E+03 -3.05573E+03
  1.25922E+02 -6.03054E+03  2.86033E+03 -7.34448E+03  4.35963E+03 -1.05350E+04  4.54758E+03 -4.17529E+03
  3.35715E+03  7.43873E+03 -9.08685E+02  3.31623E+03  3.99558E+02  8.74032E+01  1.70330E+02 -8.62385E+02
  1.24350E+03 -3.37966E+02  1.14907E+03 -2.61178E+03  2.48178E+03 -8.83501E+02  4.96866E+02 -3.14241E+03
  3.45136E+03  3.61566E+03  2.06468E+03 -1.32728E+03  7.52981E+02 -1.48769E+03  2.98837E+03  2.55399E+03
 -8.91051E+02  2.01553E+03  6.89033E+03  1.69337E+03  8.69941E+03  6.78244E+03  1.37243E+03  7.03506E+03
 -2.77827E+03  1.85106E+03 -2.65691E+03  3.98856E+02 -3.34367E+03  1.48586E+03 -5.62710E+03 -2.99054E+02
  1.00006E+03 -2.57580E+03  5.86819E+03  1.23787E+03 -4.78203E+03  3.45447E+03 -1.99548E+03  1.95849E+03
 -3.02073E+03  1.97041E+03  9.48889E+02 -3.12734E+03 -6.58071E+03 -2.63265E+03 -2.45003E+03 -8.77571E+03
  2.42022E+03 -2.22972E+03  4.48977E+02  7.39276E+02  2.71571E+03  6.05478E+02 -2.86702E+03  3.59281E+03
  1.87238E+03 -1.04005E+03 -4.65160E+02 -3.71419E+01 -3.45160E+03 -5.21313E+03 -2.84153E+03 -4.21676E+03
  7.92202E+03  4.95697E+03  3.41450E+03 -5.29188E+03  6.34249E+03  8.67359E+03 -1.63912E+03  3.50062E+03
 -4.80040E+03 -4.37155E+03 -1.09485E+03  2.17209E+03  8.65306E+02 -3.14680E+03  1.66751E+03 -2.88580E+03
 -2.21089E+03 -7.92528E+02 -6.78542E+02  2.54032E+03  4.42182E+02  1.38635E+03 -5.33328E+03  1.89722E+03
  1.03188E+03  1.20687E+02  2.04782E+03  4.55697E+02 -1.65914E+03  3.55108E+02  1.73724E+03 -1.82314E+03
 -2.03951E+03  3.01944E+03 -5.78568E+03  8.63399E+03 -1.70342E+03 -1.37713E+03 -3.76737E+03 -5.06227E+03
 -8.10533E+02 -6.95980E+03  5.79040E+02 -7.45996E+03  5.73548E+03 -3.78100E+03  6.24519E+03  5.93441E+02
  4.72714E+03  1.57455E+02  3.98169E+03 -8.32061E+02 -2.52316E+03  1.92490E+03  2.12023E+03  3.23803E+02
 -1.60299E+02 -3.30018E+03  1.07392E+03  8.75217E+01 -2.99668E+02  2.47646E+03 -3.21623E+03  1.72027E+03
 -1.58875E+03  3.88563E+02  2.94904E+03 -6.08838E+02  1.07138E+03 -1.66572E+03  6.37143E+02 -2.40297E+03
 -2.79423E+03 -4.70209E+03  1.22402E+03  1.33896E+03 -3.63269E+02  2.57912E+03  5.38516E+02  1.40747E+03
 -7.74472E+02  2.68506E+03  5.41816E+02  3.02646E+03 -2.80037E+03 -2.92873E+03 -1.23670E+03 -8.54186E+03
 -5.74707E+03 -4.75959E+03 -1.65933E+03 -3.94832E+02  2.22881E+03 -7.64503E+01  1.44290E+03 -7.67901E+02
  3.30795E+03 -1.55588E+02 -8.92605E+02 -4.65251E+02  6.41467E+02  3.45136E+03 -1.27367E+03 -3.16938E+03
  4.44625E+03  1.66417E+03 -1.50665E+03  4.88315E+03  1.05306E+03  1.86534E+03 -1.52512E+03  8.90526E+02
 -5.73946E+02  3.06095E+03 -6.36067E+03  2.77243E+03 -1.57148E+03  1.87911E+03 -1.45009E+02  8.01799E+02
 -3.97478E+01 -5.57860E+03  3.13349E+01  2.98877E+03  4.72478E+03  4.11242E+02  5.20365E+03  1.34225E+03
  4.81670E+02  2.83944E+03 -9.79501E+02  2.68784E+03 -5.90030E+03  3.47332E+03 -2.32772E+03 -1.61117E+03
  4.49959E+03  1.87136E+02 -1.09647E+03  5.84837E+03  1.66335E+03  4.44503E+03 -2.25015E+03 -5.24825E+03
 -1.59786E+03 -2.02686E+03  7.92238E+02 -4.63584E+01  1.69201E+03 -2.08274E+03  6.57086E+02 -1.16919E+02
  4.14163E+03  1.11681E+03  6.13684E+03  2.76286E+03 -5.02718E+02  1.44265E+03  2.98001E+03 -2.24909E+03
