 $NMID ID='MM_0lb_SNR50_17hz_g50_25.RAW', FMTDAT='(8E13.5)'
 TRAMP=1., VOLUME=1. $END
  3.10651E+05  2.83073E+03  3.37500E+05  2.51649E+05  8.36255E+04  3.39524E+05 -1.29844E+05  2.48516E+05
 -1.92449E+05  8.45786E+04 -1.14065E+05 -3.06459E+04 -1.17461E+03 -5.33062E+04  5.42693E+04 -1.88122E+02
  3.56998E+04  5.19578E+04 -1.19367E+04  7.53441E+04 -5.92229E+04  6.06803E+04 -8.48553E+04  3.12380E+04
 -7.99468E+04 -1.19452E+04 -5.58497E+04 -5.38935E+04 -1.72270E+04 -6.74752E+04  2.38919E+04 -4.44253E+04
  4.00628E+04  2.37289E+03  1.74399E+04  4.47582E+04 -3.58775E+04  4.73467E+04 -6.65776E+04 -8.92663E+02
 -5.26601E+04 -5.45808E+04 -5.45366E+03 -7.36391E+04  3.50907E+04 -5.25431E+04  4.47523E+04 -1.76834E+04
  4.27395E+04  9.10224E+03  2.75910E+04  2.88318E+04  1.27570E+04  3.13268E+04 -5.64895E+03  2.85505E+04
 -2.27334E+04  1.68961E+04 -2.02271E+04 -1.29062E+03  2.46877E+03 -1.23615E+04  2.13376E+04  1.21192E+04
  9.45574E+03  2.89624E+04 -3.18488E+04  3.55881E+04 -6.00808E+04  3.27701E+03 -6.05767E+04 -4.19081E+04
 -9.70930E+03 -6.20344E+04  3.74350E+04 -4.33074E+04  5.46153E+04 -2.45011E+03  3.90465E+04  3.14093E+04
 -8.35058E+03  3.36532E+04 -2.99309E+04  1.75623E+04 -2.97565E+04 -3.22672E+03 -1.80632E+04 -9.25198E+03
 -1.00106E+04 -9.29503E+03 -3.88918E+03 -1.62911E+04  3.20135E+03 -2.21963E+04  1.58004E+04 -1.79092E+04
  1.38211E+04  3.07837E+03 -1.09963E+04  1.36610E+04 -1.86340E+04 -5.69291E+03 -9.40138E+03 -2.96840E+04
  1.87587E+04 -3.79402E+04  4.29514E+04 -2.07159E+04  4.14309E+04  1.93247E+04  9.92622E+03  4.00813E+04
 -1.04347E+04  3.38379E+04 -1.97920E+04  5.71620E+03 -7.62445E+03 -2.34000E+04  1.91988E+04 -3.15700E+04
  3.85998E+04 -5.54098E+03  3.76203E+04  2.68605E+04  1.85981E+04  4.67963E+04 -8.81261E+03  4.94428E+04
 -2.77447E+04  3.17148E+04 -3.94115E+04  9.50590E+03 -4.56397E+04 -1.08100E+04 -2.60692E+04 -3.72409E+04
  3.11634E+03 -3.55362E+04  3.30495E+04 -1.40379E+04  2.79273E+04  1.03671E+04  4.32655E+03  1.94802E+04
 -1.21917E+04  8.72918E+03 -9.20532E+03 -4.89664E+03  8.76735E+03 -7.43867E+03  1.88344E+04  5.69441E+03
  1.65273E+04  2.43309E+04 -8.32777E+03  2.01699E+04 -2.40475E+04  9.10606E+03 -2.47112E+04 -6.48403E+03
 -1.99466E+04 -2.08807E+04 -6.80120E+03 -1.72406E+04  4.58378E+03 -1.78165E+04  1.85017E+04 -1.90313E+04
  1.79415E+04 -7.78397E+03  3.19621E+04  3.42370E+03  2.36452E+04  2.43907E+04  4.21877E+03  2.87676E+04
 -1.71311E+04  2.95040E+04 -2.80118E+04  1.02805E+04 -2.60575E+04 -8.58920E+03 -3.40829E+03 -1.30541E+04
  2.71751E+03 -3.59600E+03  2.14012E+03  1.07265E+04 -1.55039E+04  4.08359E+03 -1.31667E+04 -8.82384E+03
 -5.98280E+03 -1.87934E+04  1.64038E+03 -2.25283E+04  1.56032E+04 -1.13592E+04  1.30688E+04 -3.72353E+03
  1.16352E+04  7.59199E+03  2.19907E+03  2.18161E+04 -9.90885E+03  9.55296E+03 -2.01298E+04 -3.19725E+03
 -1.29183E+04 -1.47371E+04 -5.14950E+03 -2.26758E+04  1.33649E+04 -1.49577E+04  2.10455E+04 -5.29490E+03
  1.80040E+04 -3.07654E+02  1.54871E+04  6.37392E+03  7.24687E+03 -1.00846E+03  9.41047E+03 -3.85598E+03
  1.51967E+04  4.55443E+03  1.49929E+04  1.02933E+04  1.28283E+04  2.29914E+04 -4.59823E+03  2.74248E+04
 -2.10229E+04  2.17055E+04 -3.00469E+04  1.19619E+04 -2.92898E+04 -1.16193E+03 -2.28656E+04 -1.34835E+04
 -1.45037E+04 -2.46021E+04  7.36691E+03 -1.86801E+04  1.57843E+04 -1.19976E+04  1.78401E+04  1.37714E+03
  9.69933E+03  1.02819E+04 -8.63258E+03  1.01754E+04 -1.51683E+04  1.79227E+03 -1.31029E+04 -3.27419E+03
  3.37204E+03 -1.40497E+04  6.12847E+03 -9.56625E+03  1.00526E+04  8.83988E+02  2.85486E+03  6.48520E+02
 -6.70638E+03  5.00595E+03 -3.72641E+03 -4.72766E+03 -1.77928E+03 -1.11393E+04  6.14380E+03 -9.72710E+03
  1.96030E+04 -4.30174E+03  1.31724E+04  1.21656E+02  1.09281E+04  9.13587E+03  5.97881E+03  1.54318E+04
 -5.75043E+03  1.81604E+04 -1.61288E+04  1.08987E+04 -1.21587E+04 -2.40126E+03 -7.69499E+03 -1.31677E+03
 -5.89631E+03 -4.38481E+03 -1.69369E+03  3.80025E+03 -1.68947E+03  1.26504E+03 -4.61471E+03  4.67488E+02
 -8.35122E+03  5.63568E+02 -9.22217E+03 -6.41691E+03 -4.19955E+03 -1.17202E+04  5.17700E+03 -9.26707E+03
  1.57447E+04 -2.65301E+03  8.09307E+03 -3.21867E+03 -2.92360E+02  4.67509E+03 -6.27402E+03  1.59775E+03
 -6.74990E+03 -6.52875E+03 -1.39292E+03 -1.02252E+04  1.07213E+04 -5.64574E+03  1.42971E+04 -1.19168E+03
  8.99568E+03  6.37347E+02  1.24510E+04  9.55029E+03 -6.72803E+02  9.51029E+03 -8.50758E+03  4.51483E+03
 -8.47200E+03  2.62892E+03 -3.99094E+03  4.74219E+03 -9.01891E+02  1.29414E+03  9.52610E+03 -3.60276E+03
  2.75581E+03  5.81747E+03  2.79182E+03  4.77551E+03 -5.43633E+03  1.03893E+04 -9.32873E+03  4.09228E+03
 -7.48525E+03 -5.10111E+03  7.95770E+02 -1.04685E+04  4.75369E+03 -1.46240E+03 -8.44221E+02  9.91387E+02
  1.89604E+03  4.43364E+03 -5.41322E+03  5.80421E+03 -3.35923E+03  3.98762E+03 -6.18401E+03  1.09848E+02
 -5.65026E+03 -9.70289E+03  4.17270E+03 -8.04908E+03  7.16164E+03 -3.49358E+03  9.37415E+03 -1.51170E+03
  3.44203E+03  6.00629E+03  2.79004E+03  1.09675E+04 -7.65110E+03 -3.00132E+02 -7.31263E+03 -7.51781E+02
 -5.70478E+03 -2.43084E+03  4.13414E+03 -2.87688E+03  4.96125E+03 -1.79276E+03 -6.73452E+02 -8.47490E+01
 -2.17479E+03 -3.96213E+02 -2.52978E+03 -8.32453E+02  1.54549E+03 -3.66094E+02 -3.39790E+01 -4.06929E+03
  6.15575E+03  3.03352E+03  9.56413E+03 -3.46636E+02  8.25102E+03  3.83268E+03  6.96583E+03  7.70786E+03
 -1.01499E+03  9.70286E+03 -1.33371E+04  7.43104E+03 -1.49087E+04 -1.03382E+03 -5.96628E+03 -4.92542E+03
 -3.36520E+03 -7.96772E+03 -1.03581E+03 -6.24653E+03  8.11932E+02 -2.93297E+03  6.99828E+03 -1.17618E+03
 -6.77689E+00  5.39161E+02  5.00862E+03 -2.13650E+03  3.82093E+03 -1.46587E+03  6.46038E+03  1.80380E+03
  3.72055E+03  1.05934E+03  3.25530E+03  2.36230E+03 -1.79724E+03  1.41949E+03 -9.96367E+03  7.81359E+03
 -5.97333E+03 -3.46219E+02 -1.09498E+03 -5.77518E+03  1.19520E+03 -5.47547E+03  4.34795E+03 -7.56627E+03
  9.65978E+03 -4.65877E+03  9.28571E+03 -3.57830E+03  1.24699E+04  5.02972E+03  1.24585E+02  3.16170E+03
 -9.83265E+02  8.58210E+03 -6.47133E+02  6.61415E+03 -3.80304E+03 -2.77983E+03  3.06526E+02 -4.67474E+03
 -9.86498E+02  3.33695E+03  2.25968E+03  3.37196E+03 -7.64080E+02 -4.23057E+03 -4.08128E+03 -2.80896E+03
  4.83243E+02 -3.85401E+03 -9.46583E+02 -8.42068E+03  6.72738E+03 -3.53389E+03  6.25835E+03 -2.28733E+03
  4.51257E+03  6.14194E+03  4.68903E+03  2.08381E+03  8.76044E+02  6.43484E+03 -3.71769E+03 -1.31756E+03
 -6.45950E+03  4.33830E+03 -3.73061E+03 -7.07494E+03  7.08863E+02 -3.23417E+03  2.46375E+03 -4.37691E+03
  6.66233E+03 -4.80833E+03  6.66776E+03  3.45721E+03  1.45071E+03  6.06692E+03  1.17058E+03 -2.14704E+03
  1.40824E+03  2.92616E+03  8.15053E+02  3.67481E+02  1.56232E+03  2.19243E+03  3.39439E+03  6.24260E+03
 -3.05007E+02  3.85401E+03 -3.50154E+03  1.30867E+03 -1.13048E+03  2.46595E+02 -6.59906E+03 -4.08217E+03
 -1.02356E+02 -4.84254E+03  5.39001E+02 -6.37407E+03  1.00175E+04 -2.72362E+03  5.72580E+03  3.21676E+03
  3.17060E+02  2.04393E+03  1.09635E+03  1.65842E+03 -8.42935E+02  3.59192E+03 -6.86359E+00  2.04151E+03
 -3.92808E+03 -5.16881E+03  1.73407E+03 -7.85000E+02  4.84844E+03  5.96225E+02 -9.67685E+02 -3.30997E+03
  7.15339E+01 -1.25253E+03 -3.84365E+03 -1.89278E+03  1.14485E+03 -5.84776E+00 -1.67722E+02 -1.32298E+03
 -4.64555E+02  4.47833E+02  4.67152E+03 -3.50810E+03 -3.89295E+03 -7.48170E+02 -1.80788E+03  8.50749E+03
 -2.62217E+03 -1.31187E+03 -4.98107E+03  1.01031E+03 -8.02017E+02  1.70644E+03 -2.11195E+03  3.05572E+03
 -7.10827E+02 -2.08219E+03  4.45462E+03 -4.75969E+02 -1.59141E+03 -6.06597E+02 -1.15292E+03 -1.54930E+03
  1.00585E+03  2.75139E+03 -3.65883E+03 -4.03479E+03 -2.33398E+03 -3.45122E+03 -1.66626E+03  1.96862E+03
  2.16908E+03  1.14163E+03  4.58374E+03 -1.69794E+03  2.66917E+02 -1.41675E+03  5.06290E+02  3.10440E+03
  9.63781E+02  9.15981E+02  1.18088E+03  1.68554E+03  2.16787E+03  2.24060E+02  9.99499E+02  3.29922E+02
  4.32098E+02  7.88752E+01  6.20954E+03 -2.80397E+02  1.55151E+02  2.13829E+03  3.42051E+02  1.54246E+02
  3.24962E+03  1.34092E+03 -4.87697E+03 -1.07621E+03  1.42424E+03 -3.29190E+03 -1.72476E+03 -2.94767E+03
  1.51336E+03  2.77070E+02 -2.26000E+02  9.10972E+02 -1.96713E+03  2.76454E+03  1.42786E+03  1.19945E+03
 -2.46289E+03  3.79679E+03  2.33000E+03  8.72625E+03  4.83548E+03  1.60268E+03 -3.86171E+03  8.19226E+02
 -1.06699E+03  1.51566E+03  8.24391E+02  3.22100E+03 -4.77130E+03  4.14016E+03  1.70966E+02 -7.67532E+02
 -6.27119E+03 -8.04509E+03  8.63429E+02  2.63496E+02  3.49104E+03 -6.25733E+03  1.40627E+03 -2.30697E+03
  6.54873E+03 -2.76430E+03 -3.18196E+03 -1.63899E+03 -2.76814E+03  7.61725E+03  7.78393E+02  1.23624E+03
  2.68184E+03 -1.91926E+03 -2.58440E+02  3.75713E+03  4.80444E+03  1.98463E+03 -1.74242E+03 -4.09853E+02
 -5.22968E+03  2.42874E+02  1.93746E+03 -1.30156E+03  2.06804E+03 -1.58847E+02 -2.08703E+03 -2.44053E+03
 -9.47095E+01 -1.74377E+03 -3.12692E+02  3.79385E+03  1.21378E+03  3.61475E+03 -1.58124E+03  5.56035E+03
 -7.83431E+02  4.36265E+03 -6.46552E+03  1.72871E+03 -4.37786E+03 -2.15138E+03 -1.94134E+03 -8.71490E+02
 -2.25116E+03 -5.69988E+02  1.27434E+03 -5.61140E+03  4.43855E+03  1.67218E+02  2.37788E+03 -1.79501E+03
  6.14866E+02  1.94351E+03  1.48285E+03  3.38375E+03 -1.06949E+03  3.68666E+03 -2.06868E+02 -3.64585E+03
 -2.45615E+03 -3.94093E+01  1.86327E+03  1.18691E+03 -4.92191E+02  2.04247E+03 -4.67604E+03  7.79009E+02
  2.69139E+03  2.48540E+01 -1.24325E+03 -1.14271E+03  6.61019E+02  1.59399E+03 -1.39643E+03 -2.93840E+03
  2.63451E+03 -1.14283E+03  2.52249E+03  2.93553E+03 -1.14643E+03  2.06169E+03  1.16730E+02 -2.46868E+03
 -1.63603E+03 -4.63337E+03  2.89581E+02  2.15818E+03 -7.69810E+02 -1.28521E+03 -3.69786E+03  4.69125E+02
  2.42516E+02 -4.13665E+03  3.48162E+03  5.76291E+02 -1.64156E+03  1.52190E+03 -2.96433E+03 -3.53180E+03
  7.59171E+02 -3.00235E+02  3.87375E+03 -2.79711E+03 -4.14560E+02 -1.90323E+03 -1.32121E+03  2.67406E+03
 -6.12526E+03 -1.71421E+03  4.02071E+03 -4.04355E+03  1.28208E+03 -1.94003E+03  1.04697E+03  2.49606E+03
