 $NMID ID='MM_0lb_SNR50_8hz_g50_92.RAW', FMTDAT='(8E13.5)'
 TRAMP=1., VOLUME=1. $END
  3.09893E+05  2.45402E+03  3.38554E+05  2.50732E+05  8.29795E+04  3.41521E+05 -1.32247E+05  2.57765E+05
 -1.87583E+05  7.97256E+04 -1.07901E+05 -3.28942E+04 -8.52781E+02 -4.97951E+04  5.27619E+04 -3.07139E+03
  4.43523E+04  5.04813E+04 -1.86694E+04  8.33958E+04 -6.23194E+04  6.70760E+04 -8.38893E+04  3.41682E+04
 -8.76324E+04 -1.51788E+04 -5.16389E+04 -4.79161E+04 -1.98196E+04 -7.27147E+04  3.11004E+04 -4.80718E+04
  3.41158E+04 -3.30358E+01  1.76121E+04  4.07861E+04 -3.17235E+04  5.29103E+04 -7.06600E+04 -2.12265E+03
 -5.43968E+04 -6.29120E+04 -1.22610E+03 -8.02262E+04  3.22757E+04 -5.91515E+04  4.69828E+04 -1.44598E+04
  3.98360E+04  6.30994E+03  3.26951E+04  2.30824E+04  1.21816E+04  2.39853E+04 -1.26546E+04  1.93995E+04
 -2.50620E+04  8.43300E+03 -1.89825E+04 -3.49256E+03  9.55158E+03 -9.60984E+03  1.12894E+04  1.35284E+04
  8.95941E+03  3.80592E+04 -3.91446E+04  3.48854E+04 -5.97493E+04  4.36902E+03 -6.02842E+04 -3.94625E+04
 -6.31905E+03 -6.85684E+04  4.09133E+04 -4.17505E+04  5.64755E+04 -6.41098E+03  4.04752E+04  2.86912E+04
 -4.29917E+03  3.87389E+04 -3.43455E+04  2.23512E+04 -3.60846E+04  2.07297E+03 -2.66668E+04 -1.31772E+04
 -7.17488E+03 -1.51089E+04 -5.32031E+03 -1.60598E+04  1.21502E+04 -2.31939E+04  1.37327E+04 -1.31514E+04
  4.55328E+03  4.82004E+03 -8.33654E+03  1.15469E+04 -2.42091E+04 -7.85971E+03 -8.45098E+03 -3.95036E+04
  2.48346E+04 -5.04074E+04  5.81181E+04 -2.99809E+04  5.08073E+04  1.52319E+04  1.54742E+04  4.97576E+04
 -2.42245E+04  2.83211E+04 -3.28306E+04  2.48029E+03 -5.86032E+03 -3.02538E+04  1.58391E+04 -4.25649E+04
  4.25285E+04 -1.33461E+04  3.83070E+04  2.46844E+04  2.29770E+04  5.30830E+04 -5.78379E+03  5.66447E+04
 -3.73473E+04  3.75966E+04 -5.01228E+04  9.29158E+03 -4.69255E+04 -1.56352E+04 -2.16787E+04 -4.10737E+04
  6.86355E+03 -4.13043E+04  3.07221E+04 -1.78082E+04  3.33005E+04  1.27739E+04  1.22679E+04  1.91425E+04
 -1.28556E+04  1.18438E+04 -6.91819E+03 -2.43010E+03  4.13560E+03 -7.47380E+03  3.00924E+04  8.78638E+03
  2.28393E+04  2.65212E+04 -1.91439E+03  2.41519E+04 -1.82659E+04  1.92281E+04 -3.17064E+04 -6.47700E+03
 -2.46642E+04 -1.71320E+04 -1.25150E+04 -2.99066E+04  2.43774E+03 -2.24402E+04  2.13685E+04 -1.91662E+04
  3.04972E+04 -1.04645E+04  4.09360E+04  7.76709E+03  3.22603E+04  1.99097E+04  6.08935E+03  4.50924E+04
 -1.66870E+04  2.89370E+04 -3.16652E+04  8.63582E+03 -2.04574E+04 -9.86642E+03 -9.11055E+03 -1.58913E+04
  3.43506E+03 -4.93124E+03 -7.07030E+03  6.69632E+03 -2.50166E+04  1.42759E+03 -1.51081E+04 -3.85499E+03
 -1.01887E+04 -2.77299E+04  3.37292E+03 -2.22324E+04  1.69504E+04 -1.34191E+04  1.85014E+04 -5.09469E+03
  1.69921E+04  1.58381E+04 -1.69586E+03  2.13480E+04 -1.45635E+04  1.63128E+04 -1.60048E+04 -1.19610E+04
 -2.16197E+04 -1.93703E+04 -2.25928E+03 -3.27466E+04  7.66843E+03 -1.93827E+04  2.32732E+04 -9.07077E+03
  2.19254E+04 -7.82564E+02  1.99110E+04 -1.03720E+03  1.34229E+04 -2.42138E+03  1.50550E+04  1.15764E+03
  2.89369E+04  5.78226E+03  3.07918E+04  2.47865E+04  1.58309E+04  4.30552E+04 -4.14859E+03  4.30338E+04
 -2.47383E+04  3.04694E+04 -4.84308E+04  2.20794E+04 -4.63626E+04 -3.84747E+03 -3.91232E+04 -2.38631E+04
 -1.93195E+04 -3.89468E+04  1.92571E+04 -3.21767E+04  2.72437E+04 -2.16180E+04  1.75930E+04  5.02956E+03
  1.10193E+04  1.88865E+04 -1.74098E+04  1.45436E+04 -1.52357E+04 -1.47495E+03 -1.31942E+04 -1.35620E+04
  3.54909E+03 -1.68187E+04  1.69263E+04 -1.27842E+04  1.63322E+04  1.31525E+03 -3.91906E+02  1.04019E+04
 -8.18180E+03  6.07739E+03 -9.08583E+03 -2.85090E+03 -9.03434E+02 -1.60862E+04  1.17892E+04 -1.87662E+04
  2.71740E+04 -1.21136E+04  3.13053E+04  2.92994E+03  2.36131E+04  2.29612E+04  5.41250E+03  2.66504E+04
 -3.62118E+03  3.75044E+04 -2.82718E+04  1.89440E+04 -2.18599E+04  5.38027E+03 -1.73966E+04 -1.20984E+04
  1.16228E+03 -1.13794E+04  6.05432E+03  3.43357E+03 -3.44835E+03  2.90490E+03 -1.31197E+04  1.77304E+03
 -1.18419E+04 -4.53690E+03 -1.77150E+04 -1.64542E+04 -1.30550E+04 -2.15586E+04  1.13643E+04 -1.48790E+04
  1.29065E+04 -4.52578E+03  1.40140E+04 -3.49736E+03 -5.07955E+03  1.23226E+04 -4.36947E+03  7.03855E+02
 -1.46943E+04 -1.17833E+04 -4.92598E+03 -1.62256E+04  1.15029E+04 -2.07815E+04  2.23206E+04 -5.67231E+03
  2.95283E+04  3.93883E+03  2.09957E+04  1.93928E+04  3.63489E+03  2.20894E+04 -1.22448E+04  1.50749E+04
 -1.56762E+04  8.25735E+02 -5.30792E+03 -2.09230E+03  7.94157E+03 -4.44354E+03  1.14207E+04 -1.29840E+02
  5.25271E+03  6.72708E+03 -6.98408E+02  1.48638E+04 -1.02503E+04  1.49240E+04 -1.31822E+04  1.60666E+03
 -1.14632E+04 -4.39734E+03 -7.19291E+01 -1.56042E+04  1.98314E+03 -1.31698E+04  1.03328E+04  1.02536E+04
  7.73357E+02  8.48250E+03 -9.78109E+03  1.75687E+04 -1.43234E+04  5.68871E+03 -1.58227E+04  2.56597E+03
 -7.63851E+03 -1.95352E+04  1.49828E+03 -1.89838E+04  1.78185E+04 -1.70510E+04  2.46350E+04  7.56668E+03
  1.04498E+04  8.71681E+03 -2.28330E+03  2.04266E+04 -1.08849E+04  4.93016E+03 -1.37446E+04 -6.77031E+03
 -3.35483E+03 -6.67608E+03  3.15099E+02 -1.24505E+04  8.48931E+03 -1.04757E+04  1.19171E+04 -4.35807E+03
  4.36131E+03  7.69966E+02 -2.99156E+03  2.33621E+01  1.81167E+03 -2.34576E+03 -5.01783E+00 -8.92668E+03
  1.42042E+04 -1.69213E+03  1.93941E+04  4.42387E+03  2.05898E+04  1.38927E+04  1.02481E+04  1.49478E+04
 -1.16585E+04  3.07247E+04 -1.73538E+04  1.93440E+04 -3.08999E+04  3.76453E+03 -2.71822E+04 -1.13586E+04
 -1.32165E+04 -2.32836E+04 -1.30668E+03 -2.37382E+04  1.37197E+04 -4.99071E+03  4.81697E+03 -6.32547E+03
  2.64409E+03 -1.27739E+03  8.08003E+03 -4.26934E+03  9.40743E+03 -4.03129E+02  8.59750E+03 -7.25336E+03
  1.28476E+04 -1.19140E+02  7.69208E+03  9.63968E+03  7.53919E+03  1.55572E+04 -1.92276E+04  1.53442E+04
 -1.64396E+04 -4.01422E+03 -7.20296E+03 -9.18452E+03 -2.57462E+02 -2.48523E+04  1.37117E+04 -2.01504E+04
  1.30680E+04 -1.28428E+04  2.92457E+04  5.45794E+03  2.09652E+04  2.02671E+04  8.97316E+02  1.65149E+04
 -1.14855E+04  1.50455E+04 -9.40104E+03 -7.41198E+02 -4.20404E+03 -4.63768E+03 -3.81917E+03  1.11535E+03
 -3.93676E+03 -5.71481E+03 -1.77033E+03  1.18585E+04 -4.12082E+03  3.99398E+03 -7.32835E+03 -1.52159E+03
 -6.79017E+03 -1.00376E+04 -4.63621E+02 -2.04351E+04  5.63926E+03 -1.58176E+04  1.97704E+04  5.03474E+01
  2.19513E+04  8.97468E+03  1.51001E+04  1.79155E+04 -1.12897E+03  1.30838E+04 -1.32075E+04  8.66111E+03
 -1.80773E+04 -2.48627E+03 -1.05101E+04 -7.84829E+03  2.36791E+03 -7.95419E+03  8.52979E+03 -1.57609E+04
  6.52438E+03 -1.02389E+04  4.04863E+03  3.30695E+03  3.04130E+03  5.97300E+03  3.58704E+03  1.12998E+03
  1.74763E+03 -4.91797E+02 -6.83795E+02  3.40467E+03 -5.85020E+02  8.06813E+03 -1.84033E+03  5.40214E+03
 -8.10757E+03  1.23417E+04 -1.42442E+04  1.09517E+04 -1.62121E+04  3.10467E+03 -1.14696E+04 -8.51931E+03
 -6.73377E+03 -1.57594E+04  2.69401E+03 -1.91143E+04  1.37064E+04 -1.39973E+04  6.99324E+03  2.30931E+03
  1.08630E+04  6.32364E+03  3.09958E+02  9.51936E+03 -8.19185E+03  4.32082E+03 -1.05706E+04 -3.37151E+03
 -2.58248E+03 -1.61059E+04  1.60339E+04 -7.67675E+03  7.01588E+03 -2.88888E+03  1.64472E+04  9.69795E+02
  5.33908E+03  2.33437E+03 -2.59136E+03  2.92171E+03  8.45016E+03  2.16959E+02  5.15095E+03 -2.44412E+03
 -1.79644E+02  3.03749E+03  4.17287E+03  8.71439E+03  1.03041E+04  2.38386E+03 -2.42684E+03  1.36597E+04
 -1.04922E+04  9.56844E+03 -1.76455E+04  2.87388E+03 -1.50224E+04 -8.67143E+03  5.20002E+02 -7.51420E+03
  6.31963E+03 -6.36372E+03 -2.57311E+03 -1.96754E+03  5.72482E+03  7.22920E+03  1.82460E+03  1.46632E+04
 -8.94118E+03  6.67268E+03 -8.69817E+03 -6.18555E+03 -8.00392E+03 -9.52306E+03  1.58126E+03 -3.66490E+03
  5.34166E+03 -7.45779E+03  1.17741E+04 -3.17948E+03  1.28907E+04  4.17619E+03  2.02774E+03  3.92138E+03
 -2.61807E+03  6.21727E+03 -9.70383E+03  1.23939E+03  7.11338E+03 -7.86348E+03  6.87402E+03 -2.12949E+03
  1.11478E+04 -3.41525E+03  1.37004E+04  3.55003E+03  3.80562E+03  1.58207E+04  2.65398E+02  1.56274E+04
 -8.10391E+03 -4.13112E+02 -9.20407E+03 -3.78236E+03 -2.66303E+03  1.36609E+03  1.03773E+03 -4.84748E+03
  1.91188E+03 -5.12497E+03  8.46075E+03  2.30630E+03 -1.06244E+03  5.96866E+03  4.90208E+02  5.44551E+03
 -1.49939E+03  8.53591E+03 -6.83074E+03 -1.34817E+03  1.66418E+03 -2.09004E+02 -2.09048E+03  2.69748E+03
 -6.48343E+03  6.76099E+03 -5.22966E+03  7.99728E+03 -1.35450E+04 -5.87684E+02 -1.20296E+04 -1.08173E+04
 -9.43022E+03 -8.81184E+03  3.48968E+03 -2.07886E+04  1.37246E+04 -1.40158E+04  1.20908E+04 -1.44749E+04
  1.70433E+04  2.90637E+03  1.47782E+04  9.43907E+03 -1.42459E+03  8.16801E+03 -5.10628E+03  2.83866E+02
 -1.02297E+04  4.17523E+03 -7.22590E+03  7.08491E+02  7.52131E+01 -1.24767E+03 -9.05222E+03 -6.76282E+03
 -5.67757E+03 -5.90847E+03  3.32991E+03 -6.34823E+03 -4.75621E+02 -1.25052E+03  1.69386E+03 -8.73432E+03
  1.64618E+03  9.03750E+02  1.30450E+04  5.52580E+03  1.03283E+04 -4.80573E+03  1.00779E+04  1.05318E+04
 -1.94689E+03  1.81484E+04 -1.38345E+04  1.38976E+04 -6.77797E+03 -4.64725E+03 -1.54788E+04 -1.00102E+04
 -1.31969E+04 -1.28162E+04 -8.62465E+02 -1.75766E+04  1.09194E+04 -5.19688E+03  1.14563E+04  2.90523E+02
 -3.28270E+03  1.03668E+04 -9.12862E+02  3.53399E+03 -5.61062E+03 -4.59289E+02 -2.21094E+03 -7.87038E+02
  5.56219E+03 -4.96671E+03  1.12540E+04  6.66297E+03 -3.70793E+03  4.06252E+03 -7.42636E+03  1.13809E+04
 -2.71458E+03  9.78047E+03 -1.03694E+04  7.88251E+03 -8.22715E+03 -5.46925E+03 -2.68010E+00 -1.01985E+04
  7.47287E+03 -1.21418E+04  4.47792E+03 -1.10439E+04  1.03079E+04  1.63336E+03  3.98418E+03  5.48280E+03
  2.31882E+02  6.20174E+03 -2.37660E+03  4.60667E+03 -6.24626E+03  3.48777E+03 -2.79886E+03 -4.25317E+03
 -4.42370E+03  6.91219E+03 -9.30875E+03  6.35474E+02 -6.28060E+03  1.07320E+04 -4.47099E+03  3.97620E+03
 -4.65233E+03 -1.03278E+04 -8.29786E+03 -9.76881E+03  5.25529E+03 -3.37704E+03  1.12279E+04 -2.78443E+03
  1.24200E+04  1.56853E+03  6.18562E+03  4.20493E+03  6.03686E+03  7.29633E+03 -8.22660E+03  1.27178E+02
