 $NMID ID='MM_0lb_SNR50_7hz_g40_61.RAW', FMTDAT='(8E13.5)'
 TRAMP=1., VOLUME=1. $END
  3.15841E+05 -1.15389E+03  3.33873E+05  2.49537E+05  8.45653E+04  3.37156E+05 -1.34059E+05  2.57363E+05
 -1.87554E+05  8.03379E+04 -1.08154E+05 -2.81216E+04  3.91328E+03 -5.11109E+04  5.17718E+04  1.82059E+02
  3.68345E+04  5.15958E+04 -1.62094E+04  7.83646E+04 -6.35451E+04  6.04363E+04 -8.59614E+04  3.17472E+04
 -8.82753E+04 -1.17962E+04 -5.50225E+04 -4.54904E+04 -1.37541E+04 -7.07120E+04  2.30253E+04 -4.98452E+04
  4.18206E+04  6.17882E+03  1.78512E+04  4.81717E+04 -3.22453E+04  5.63985E+04 -7.37534E+04  3.61589E+03
 -5.34288E+04 -5.83612E+04 -8.32371E+03 -8.21459E+04  3.21868E+04 -5.46436E+04  5.41061E+04 -1.58430E+04
  4.81353E+04  1.37022E+04  3.78390E+04  2.25966E+04  1.21529E+04  2.94582E+04 -1.14007E+04  2.16407E+04
 -2.12315E+04  6.95783E+03 -1.42069E+04 -4.85881E+03  9.40225E+03 -1.36382E+04  2.03240E+04  1.49066E+04
  3.99197E+03  3.24119E+04 -3.23393E+04  3.47332E+04 -6.63455E+04  7.70263E+03 -6.32691E+04 -3.81410E+04
 -8.35673E+03 -6.09091E+04  4.09818E+04 -5.10403E+04  6.46195E+04 -3.85263E+03  3.71451E+04  3.42846E+04
 -7.69654E+03  3.99772E+04 -3.00843E+04  2.15189E+04 -3.34974E+04 -1.31560E+04 -1.85510E+04 -7.32358E+03
 -1.21431E+04 -1.96800E+04 -2.23418E+03 -2.14740E+04  8.25389E+03 -1.91680E+04  1.05583E+04 -1.16661E+04
  1.27316E+04  1.72392E+03 -1.10233E+04  5.63272E+03 -2.07152E+04 -3.14360E+03 -4.24428E+03 -3.77253E+04
  2.49725E+04 -4.45111E+04  5.08353E+04 -1.93674E+04  4.28676E+04  1.73347E+04  1.85414E+04  5.02691E+04
 -1.51055E+04  3.94288E+04 -3.51720E+04  1.08336E+03 -1.07536E+04 -2.96322E+04  1.82339E+04 -3.58485E+04
  4.67091E+04 -1.12048E+04  3.71614E+04  2.09818E+04  2.63606E+04  5.66656E+04 -4.40211E+01  5.21514E+04
 -3.11994E+04  4.03465E+04 -4.89495E+04  7.92156E+03 -5.55817E+04 -2.03541E+04 -2.64044E+04 -4.20682E+04
  1.50371E+04 -4.46128E+04  3.62668E+04 -1.07479E+04  2.68559E+04  5.79387E+03  1.96713E+00  1.86010E+04
 -2.00755E+04  6.73812E+03 -8.82100E+03 -7.63551E+03  7.32057E+03 -1.17279E+04  2.17403E+04  9.82631E+03
  1.50748E+04  2.89336E+04 -1.51535E+03  3.39951E+04 -2.51484E+04  1.78712E+04 -3.01815E+04 -8.62775E+03
 -2.45733E+04 -1.58903E+04 -1.33192E+04 -2.83710E+04  4.48043E+03 -2.06611E+04  2.11978E+04 -2.21395E+04
  3.04628E+04 -1.52847E+04  4.49163E+04  7.88312E+03  2.30918E+04  3.29161E+04  8.77625E+03  4.60490E+04
 -2.79741E+04  3.82402E+04 -2.52956E+04  1.26657E+04 -1.64159E+04 -5.53185E+03 -1.04144E+04 -1.76503E+04
 -4.32840E+03 -3.15494E+03 -1.20164E+04  1.25158E+04 -1.91643E+04  1.29982E+03 -2.33047E+04 -1.17254E+04
 -6.07247E+03 -3.04970E+04  1.17241E+03 -3.27148E+04  2.15199E+04 -1.61820E+04  2.00575E+04 -7.91241E+03
  1.73014E+04  1.43756E+04 -6.22082E+03  3.36726E+04 -2.16364E+04  9.01537E+03 -2.10854E+04 -5.39996E+03
 -1.42134E+04 -2.01270E+04 -8.50037E+02 -3.38526E+04  1.68845E+04 -1.99890E+04  2.19628E+04 -1.01756E+04
  2.27925E+04  2.36239E+03  2.29877E+04  7.27351E+03  8.25030E+03 -6.15750E+02  1.02750E+04 -3.21578E+03
  2.55169E+04 -6.36859E+03  2.59488E+04  1.81275E+04  1.76655E+04  4.33708E+04  4.34853E+03  4.49659E+04
 -2.49144E+04  3.70096E+04 -4.32785E+04  2.89425E+04 -4.85001E+04 -4.75650E+03 -3.76759E+04 -3.12587E+04
 -1.82918E+04 -3.37955E+04  1.21282E+04 -3.62849E+04  2.57665E+04 -1.32117E+04  2.90857E+04  1.00502E+04
  5.71571E+03  1.85457E+04 -1.24771E+04  1.69788E+04 -1.76900E+04  4.92129E+03 -2.36619E+04 -1.93451E+04
  2.87789E+03 -2.47527E+04  1.00329E+04 -1.49805E+04  1.35977E+04  1.02558E+03  5.16137E+03  1.55625E+04
 -1.29729E+04  7.64708E+03 -1.58379E+04 -3.95705E+03 -5.84507E+03 -2.08905E+04  9.88167E+03 -1.93677E+04
  2.48521E+04 -1.34382E+04  3.30600E+04  8.49550E+03  2.48565E+04  2.05186E+04  1.22317E+04  3.74475E+04
 -3.32106E+03  3.48995E+04 -1.63332E+04  2.22677E+04 -2.60602E+04  9.10770E+03 -1.78075E+04 -3.66531E+03
 -1.20875E+03 -6.52839E+03  6.02827E+02 -4.83048E+01 -4.33847E+03  2.05607E+03 -7.36114E+03  4.86691E+03
 -1.72918E+04  9.93589E+02 -1.58552E+04 -1.34635E+04 -5.24806E+03 -1.40645E+04  5.87736E+03 -2.00024E+04
  5.80095E+03 -7.86695E+03  4.78044E+03  8.14923E+03  2.76997E+03  8.04501E+02 -4.96686E+03 -1.66694E+03
 -2.37551E+03 -1.40040E+04  8.31808E+03 -1.53285E+04  1.39417E+04 -1.76305E+04  2.14914E+04 -5.73487E+03
  2.70988E+04  6.74360E+03  1.05748E+04  1.91481E+04  3.73088E+03  2.37846E+04 -1.09143E+04  1.06506E+04
 -9.44828E+03  4.04669E+03 -9.99225E+03 -9.92660E+02  1.21429E+03  6.64161E+02  4.26959E+03 -5.62243E+03
  4.82187E+03  1.05879E+04  8.34457E+03  1.23090E+04 -1.44803E+04  1.09386E+04 -1.91018E+04 -1.32791E+03
 -1.00176E+04 -1.40287E+04 -5.43214E+03 -1.45805E+04  3.42473E+03 -3.59140E+03  1.38404E+04  5.23676E+03
  2.26379E+03  1.11282E+04 -4.01299E+03  3.49142E+03 -1.70324E+04  7.36725E+03 -1.89797E+04 -6.09794E+03
 -1.71749E+04 -1.73309E+04  1.04356E+04 -2.01456E+04  2.03303E+04 -1.48286E+04  1.78595E+04  1.29420E+03
  8.86272E+03  1.24643E+04  5.83965E+03  1.98068E+04 -1.46386E+04  1.48759E+04 -1.34658E+04 -3.46831E+03
 -1.38574E+04 -1.15897E+04 -6.73444E+03 -1.82055E+04  1.33094E+04 -5.68438E+03  5.62705E+03 -9.73903E+01
  1.02275E+04  1.35079E+03 -6.42020E+03  5.05503E+03  4.84011E+02 -1.28811E+03 -6.81232E+01 -1.37606E+04
  1.39502E+04 -6.67883E+03  1.98001E+04 -5.97124E+03  1.72932E+04  1.14888E+04  1.48402E+04  2.64398E+04
 -4.54138E+03  3.33761E+04 -2.09969E+04  2.44878E+04 -2.30487E+04  1.92841E+02 -2.02136E+04 -1.02136E+04
 -1.59844E+04 -1.82975E+04  5.62648E+02 -1.45892E+04  5.07353E+03 -5.50222E+03  6.41161E+03 -8.10001E+03
  6.24518E+03 -8.35308E+03  2.10652E+03 -3.68108E+03  8.33554E+03 -3.30505E+03  6.39844E+03 -6.32692E+03
  1.43429E+04 -3.21796E+03  1.47405E+04  1.43391E+04 -4.64279E+03  2.36343E+04 -1.14668E+04  9.68927E+03
 -1.43779E+04  3.53786E+03 -8.79252E+03 -1.40386E+04 -3.16506E+03 -1.77133E+04  1.14480E+04 -2.43737E+04
  2.65000E+04 -1.09670E+04  2.83134E+04 -3.90455E+03  1.18731E+04  1.82283E+04  1.62566E+03  1.74963E+04
 -9.52933E+03  2.10742E+04 -1.06796E+04  7.37451E+03 -8.85401E+03 -2.04863E+03 -2.98366E+03 -5.67495E+03
  1.46763E+03 -3.61596E+03 -9.46491E+02  1.23064E+03 -8.45760E+03  3.88550E+03 -1.16278E+04  1.80427E+03
 -1.42236E+04 -9.59800E+03 -7.00453E+03 -2.34639E+04  9.18711E+03 -1.77082E+04  2.04302E+04 -2.89499E+03
  1.97678E+04  4.27120E+03  4.88766E+03  1.94676E+04 -2.82743E+03  1.78946E+04 -1.10090E+04  1.25924E+04
 -1.38209E+04  6.99273E+03 -9.98018E+03 -1.20949E+04 -2.97981E+03 -1.09106E+04  4.39382E+03 -1.12210E+04
  1.33677E+04 -2.26295E+03  5.03403E+03 -9.32885E+00  2.16086E+03  8.79300E+03  1.75725E+03  3.27567E+03
  1.68584E+03 -1.71098E+03 -1.41006E+03  2.26527E+03 -5.45030E+03  7.16861E+03  9.09949E+03  5.46754E+03
 -5.79198E+03  1.83425E+04 -1.81707E+04  1.64209E+04 -2.33274E+04  3.20867E+03 -1.96713E+04 -1.00164E+04
 -1.15611E+04 -1.72904E+04  3.54745E+03 -1.96428E+04  1.72070E+04 -6.43055E+03  1.02724E+04 -6.58291E+03
  1.00939E+04  5.75054E+03 -3.53485E+02  1.02667E+04  2.47862E+03  1.40418E+04 -1.77121E+04  8.47731E+02
 -8.69763E+03 -7.99426E+03 -2.75022E+03 -7.51095E+03  5.06066E+03 -5.72109E+03  2.34402E+02  1.15084E+04
  4.59436E+03  5.49770E+03  3.45026E+02  3.27142E+03  3.70772E+02  5.28013E+03  3.07175E+03  1.42994E+03
  6.94271E+03 -2.00131E+03  7.21677E+03  4.09613E+03  7.24110E+03  1.47414E+04  5.00120E+03  2.27170E+04
 -3.17669E+03  1.16961E+04 -1.42780E+04 -5.16590E+02 -9.45734E+03 -2.05019E+03 -4.97535E+03 -5.85845E+03
 -2.90070E+03 -7.65936E+03 -1.41493E+03 -1.00280E+04  5.17057E+03  4.35951E+03  1.06075E+03  1.29752E+04
 -1.00345E+04  5.09225E+03 -1.33033E+04 -5.36509E+03 -5.31234E+03 -1.45683E+04  2.29098E+03 -1.03012E+04
  5.07240E+03 -1.68431E+03  4.59615E+03  7.60592E+02  6.47974E+03  3.95472E+03  3.06679E+03  5.56636E+03
 -1.28771E+03  1.87421E+03  3.85133E+02 -5.81631E+03 -6.07630E+03 -1.55133E+03  1.89121E+03 -6.72595E+03
  1.02055E+04  1.76915E+03  4.95917E+03  1.13174E+04  8.90360E+03  9.64965E+03 -5.39039E+03  1.45108E+04
 -1.71554E+04 -1.45648E+03 -9.61934E+03  5.92534E+03 -5.44536E+03 -1.39213E+04 -5.11249E+03 -6.88438E+03
 -7.52536E+02 -3.14272E+03  9.88082E+03  6.01362E+03  6.06281E+03 -1.71879E+03 -7.14588E+02  1.15708E+04
 -7.07932E+03 -2.95360E+03 -4.73911E+03 -2.69792E+02 -5.41750E+03  4.77171E+03  2.09314E+03  1.04770E+03
 -8.88343E+02  5.65953E+03 -5.22247E+03 -2.96916E+02 -1.60924E+04 -1.33783E+03 -9.73002E+03 -8.74454E+03
 -7.75100E+03 -7.17263E+03  8.75055E+03 -2.67865E+04  5.45531E+03 -1.22726E+04  1.86098E+04 -4.75722E+03
  1.67600E+04 -1.07137E+03  1.35046E+04  2.42371E+04  3.31817E+03  1.03391E+04 -3.55631E+03  1.21049E+04
 -7.97349E+03  5.45088E+03 -3.68063E+03 -1.00358E+02 -6.97474E+03  5.03577E+02 -6.59258E+02 -5.85783E+03
 -6.50182E+03  1.87662E+03 -7.50498E+03  1.09831E+03 -3.73252E+03 -5.00728E+03 -5.18137E+03 -8.76722E+03
  4.58125E+03 -3.69169E+03  7.95235E+03 -4.27121E+02  9.08627E+03  7.29396E+03  4.39067E+03  1.35616E+04
 -1.42056E+04  2.10534E+04 -1.06601E+04  6.41684E+03 -1.69885E+04 -1.40326E+03 -1.49432E+04 -1.08447E+04
 -7.23429E+03 -1.06584E+04  1.06729E+04 -1.98956E+04  7.23143E+03 -4.86992E+03  3.90461E+03  3.16814E+03
  1.80949E+03  1.09126E+04 -2.35944E+03  3.68740E+03 -6.51251E+03  1.69508E+03  3.40142E+03 -9.34921E+03
  5.28648E+03 -8.41132E+02  1.17500E+04  3.75168E+03 -5.07416E+02  1.06636E+04 -1.11142E+02  8.60264E+03
 -9.97670E+03  3.47177E+03 -1.27986E+04  2.33330E+03 -8.82128E+03 -7.80883E+03 -1.34241E+03 -1.35254E+04
  6.15629E+03 -1.22713E+04  5.00538E+03  3.18571E+03  1.46419E+04 -2.63764E+03  7.20157E+03  1.31397E+04
  4.58205E+03  3.81415E+03 -1.11376E+04  8.66751E+03 -7.98821E+03  3.94316E+03 -9.44070E+03 -1.12824E+03
 -8.17565E+02 -5.70630E+03  1.16396E+03  3.75712E+03 -4.08506E+02  1.15085E+03 -1.63595E+04  1.65528E+03
 -4.96095E+03 -8.51579E+02 -2.08631E+03 -6.99495E+03  6.66995E+03 -6.50888E+03  8.41052E+03 -4.63199E+03
  1.08698E+04 -2.04928E+03  8.85242E+03  1.32680E+04 -2.36518E+03  8.43106E+03 -3.90572E+03  8.35624E+02
