 $NMID ID='MM_0lb_SNR50_20hz_g50_53.RAW', FMTDAT='(8E13.5)'
 TRAMP=1., VOLUME=1. $END
  3.12189E+05  2.16641E+03  3.34745E+05  2.48448E+05  8.52979E+04  3.36314E+05 -1.30469E+05  2.50799E+05
 -1.87666E+05  8.10257E+04 -1.09974E+05 -3.41814E+04 -2.88861E+02 -5.04461E+04  5.31248E+04  3.29859E+02
  3.57633E+04  5.39604E+04 -1.76392E+04  7.22019E+04 -6.20037E+04  6.44158E+04 -7.95615E+04  3.22410E+04
 -7.64681E+04 -1.23051E+04 -5.64244E+04 -5.07193E+04 -1.42320E+04 -6.70714E+04  2.25366E+04 -4.42600E+04
  4.09961E+04  7.08876E+03  1.21733E+04  4.65003E+04 -3.33597E+04  4.73822E+04 -6.59888E+04 -4.29881E+03
 -5.21570E+04 -5.41725E+04 -8.29083E+03 -7.68105E+04  3.65885E+04 -5.25219E+04  4.86022E+04 -1.72175E+04
  4.02399E+04  1.29826E+04  2.95871E+04  2.50138E+04  1.81488E+04  2.48506E+04 -2.51971E+03  2.89843E+04
 -2.08892E+04  1.04221E+04 -1.71173E+04 -7.45488E+03  8.08095E+01 -6.25896E+03  2.05523E+04  1.36752E+04
  8.19120E+03  3.08980E+04 -3.10051E+04  3.51750E+04 -6.14927E+04  4.29642E+03 -5.58117E+04 -4.21175E+04
 -9.77329E+03 -5.62995E+04  3.75331E+04 -4.04665E+04  5.72743E+04 -5.67685E+03  3.13589E+04  2.97285E+04
 -7.22786E+03  2.98921E+04 -2.73592E+04  1.06941E+04 -2.58345E+04 -4.01895E+03 -1.20092E+04 -1.07029E+04
 -6.26408E+03 -1.38596E+04  5.19473E+02 -1.84648E+04  4.25234E+03 -2.19281E+04  1.31395E+04 -1.73224E+04
  1.00899E+04  2.49684E+03 -5.53532E+03  1.36057E+04 -2.21074E+04 -3.83529E+03 -8.15391E+03 -3.03577E+04
  1.87825E+04 -3.74054E+04  3.88525E+04 -2.22941E+04  4.33221E+04  1.96954E+04  1.32250E+04  4.01670E+04
 -1.66582E+04  3.25182E+04 -2.17290E+04  4.27882E+03 -8.85350E+03 -2.64468E+04  2.22064E+04 -3.05753E+04
  3.97534E+04 -8.61968E+03  2.98296E+04  2.24109E+04  1.69688E+04  4.29996E+04 -1.07328E+04  4.10658E+04
 -2.64431E+04  2.83967E+04 -3.68586E+04  8.52682E+03 -3.70421E+04 -1.58623E+04 -2.08692E+04 -3.41939E+04
  1.53397E+03 -3.12864E+04  2.66670E+04 -1.25067E+04  2.67365E+04  1.10230E+04  5.21783E+03  1.58319E+04
 -1.62173E+04  3.60222E+03 -1.05736E+04 -8.39142E+03  4.60496E+03 -6.47208E+03  1.54842E+04  1.03946E+04
  1.59401E+04  2.26900E+04 -4.02985E+03  2.55569E+04 -1.80395E+04  1.05668E+04 -2.30006E+04 -3.56572E+03
 -1.83528E+04 -1.65649E+04 -5.36350E+03 -1.72486E+04  2.60973E+03 -1.43144E+04  1.52411E+04 -1.24310E+04
  2.46996E+04 -1.01883E+04  2.83349E+04  4.42918E+02  2.25345E+04  1.65623E+04  2.44965E+03  2.71954E+04
 -1.32700E+04  2.56434E+04 -2.59890E+04  1.01141E+04 -1.73210E+04 -9.87089E+03  1.18325E+02 -1.25137E+04
  7.17742E+03 -6.48120E+03  2.71012E+02  6.41774E+03 -1.34001E+04  7.30668E+03 -1.20498E+04 -9.67403E+03
 -9.63684E+03 -1.59193E+04  3.10962E+03 -1.85734E+04  1.41381E+04 -1.54734E+04  1.27823E+04 -2.41907E+03
  5.67519E+03  9.51636E+03 -1.65207E+03  1.63992E+04 -1.02656E+04  7.96374E+03 -1.80769E+04  1.08081E+03
 -1.15296E+04 -1.27690E+04 -3.50648E+03 -1.74091E+04  6.78592E+03 -1.35193E+04  1.20510E+04 -6.74346E+03
  1.42828E+04 -2.19602E+03  8.42844E+03  6.18591E+03  7.50699E+03 -2.60192E+03  6.67437E+03 -3.74847E+03
  1.50306E+04  4.11298E+03  9.86801E+03  1.01937E+04  8.24905E+03  2.22844E+04 -8.59188E+03  2.56225E+04
 -1.65622E+04  1.73218E+04 -2.42683E+04  7.41097E+03 -2.62774E+04 -4.37058E+03 -1.69871E+04 -7.77570E+03
 -9.22008E+03 -1.93446E+04  2.23580E+03 -1.40852E+04  1.65229E+04 -8.79987E+03  1.01405E+04  2.14089E+03
  4.97571E+03  9.42297E+03 -7.11854E+03  1.31252E+04 -1.28545E+04  2.07056E+03 -1.38477E+04 -8.43178E+03
 -5.09447E+03 -1.56368E+04  8.16626E+03 -1.09057E+04  6.64070E+03 -4.72799E+03 -2.42946E+03  6.51055E+03
 -1.00241E+04  5.15061E+03 -7.16714E+03 -4.89227E+03  1.42790E+03 -7.46532E+03  7.20272E+03 -8.99091E+03
  1.06573E+04 -3.45045E+03  1.07424E+04  1.67959E+03  1.32184E+04  6.97321E+03  4.34606E+03  1.23792E+04
 -2.65034E+01  1.50259E+04 -9.33702E+03  9.57776E+03 -1.01108E+04  3.19762E+03 -5.67628E+03 -7.24342E+02
 -6.80679E+03 -3.65311E+03 -2.06022E+03 -7.49340E+02 -5.17064E+03  2.35680E+03 -1.08573E+03  3.61904E+03
 -5.15737E+03  1.26659E+03 -1.47662E+04 -3.14599E+03 -7.80476E+03 -1.25684E+04  1.07233E+03 -9.63401E+03
  1.27683E+04 -3.43283E+03  9.79546E+03  4.11960E+03  2.68061E+02  1.01586E+03 -2.01385E+03 -1.01507E+03
 -4.89534E+02 -5.33292E+03 -4.06508E+03 -3.16183E+03  3.14324E+03 -5.98185E+03  7.08940E+03 -4.27175E+03
  9.41843E+03  2.21533E+03  8.45577E+03  5.42372E+03  5.95403E+03  5.98645E+03 -3.64075E+03  1.52688E+03
 -6.28196E+03  5.58421E+03 -7.34290E+03 -9.76668E+02  1.90129E+03 -2.44189E+03  9.81732E+03 -3.02866E+03
  8.13388E+03  5.65882E+02  6.64447E+02  6.53243E+03 -5.05154E+03  6.45847E+03 -5.18788E+03  8.10487E+03
 -7.25879E+03 -3.13720E+03 -3.54044E+03 -3.58610E+03  4.09941E+03 -4.88395E+03  1.04325E+03  4.45995E+02
  3.82302E+02  2.23336E+03 -1.70965E+03  7.96190E+03 -3.52924E+03  8.35763E+02 -3.84516E+03  1.39941E+02
 -6.79839E+02 -6.13309E+03  1.57514E+03 -1.02210E+04  7.75077E+03 -5.31563E+03  5.99007E+03  2.32756E+03
  5.03768E+03  2.52643E+03  1.04980E+03  1.43413E+03 -6.00099E+03  4.77489E+03 -7.08844E+03 -7.58799E+02
 -8.13258E+03 -4.18502E+03 -4.42501E+02 -4.78172E+03  5.06054E+03 -5.03609E+03  3.29546E+03 -8.77976E+02
  6.69179E+03 -2.49628E+02 -2.68411E+02  1.01372E+03 -2.14359E+03  5.76856E+02 -4.82695E+02  1.07624E+03
  4.33586E+03  3.18436E+03 -5.30806E+02 -1.51983E+02  1.80494E+03  3.60146E+03  3.20103E+03  7.94324E+03
  2.85822E+01  9.25244E+03 -4.87884E+03  7.81391E+03 -1.03739E+04  5.48440E+03 -5.72999E+03 -5.35177E+03
 -3.06577E+03 -1.17532E+03 -2.70966E+03 -3.94972E+03 -2.18969E+03 -3.08057E+03  2.89282E+03 -2.14400E+03
 -1.86084E+03 -4.87330E+03 -7.55907E+02 -1.83769E+03  3.37226E+03 -6.80180E+03  6.65474E+03 -3.31810E+03
  1.94074E+03  1.99504E+03 -1.13914E+03  4.21455E+03 -2.34243E+03  8.73051E+02 -3.69823E+03  3.95920E+02
 -5.11573E+03  2.74056E+03 -3.08805E+02 -4.26690E+03  2.79972E+03 -7.76923E+02  4.33749E+03 -8.18932E+03
  6.53247E+03 -4.44630E+03  4.07508E+03 -7.29951E+02  4.81720E+03  5.90785E+03 -4.38176E+03  5.73234E+03
 -1.53506E+03  7.71262E+03 -3.57813E+03  1.61864E+03 -2.84365E+00  2.15349E+02 -6.73153E+02  1.43713E+03
  2.99516E+03  6.51188E+02  1.13371E+03  5.02128E+03 -3.62470E+01 -1.13357E+02 -1.82079E+03 -8.13063E+02
 -1.30381E+03 -4.88866E+03  9.74904E+01 -3.42944E+03  3.45441E+03 -1.14881E+02  2.43256E+03 -3.36892E+03
  1.42637E+03  1.77914E+03  3.16162E+03  4.95688E+03 -1.05808E+03  3.98131E+02 -4.24723E+03  5.95710E+03
 -5.57657E+03  1.44233E+03 -3.61301E+03 -3.75455E+03 -7.76722E+02 -6.56533E+03  2.86972E+03 -1.84076E+03
  8.30902E+01 -8.46971E+02 -8.34097E+02 -1.75437E+03  5.37608E+03  2.78499E+03 -9.03786E+02  3.35406E+03
  2.35419E+02  2.14113E+03 -1.93242E+03 -7.39149E+02  5.34423E+03  9.22736E+02  1.92352E+03  1.10932E+03
 -1.79510E+03  1.16004E+03 -1.34155E+03  1.57984E+03 -1.15770E+03  4.85093E+03 -1.94524E+03 -1.66750E+02
  1.65791E+03 -3.92218E+03  1.50136E+03 -4.33535E+03 -7.73401E+02 -6.00306E+03  5.85231E+03 -3.68373E+03
  3.12003E+03  2.41423E+03  2.15044E+02  2.51053E+03  2.81870E+03  2.08055E+03 -1.76752E+03 -1.55658E+03
 -4.77826E+02 -1.12210E+03  2.73878E+03  3.02140E+03 -2.69369E+02 -5.83322E+02 -1.94686E+03  8.07664E+02
  3.62021E+03 -7.04672E+02  1.90325E+03  2.34727E+03 -5.05125E+03 -1.70076E+02  1.37936E+03  2.88198E+03
 -8.38207E+02 -1.17246E+01  2.65549E+03  1.34972E+02 -2.06122E+03 -1.82142E+03 -1.80081E+03 -4.02296E+01
  3.84928E+02  3.08765E+03 -6.41539E+03 -7.37775E+02 -3.66359E+03 -1.12970E+03  3.14712E+03 -3.15547E+03
 -1.83946E+03 -3.04549E+03  2.49519E+03  2.91884E+03 -1.12902E+03  5.68442E+03 -2.20363E+03  1.25998E+03
 -1.73543E+03  3.32618E+03 -1.35586E+03 -6.93484E+03 -4.49166E+03 -3.19902E+03 -3.25782E+02 -2.68773E+03
  7.14928E+02 -1.05549E+03 -2.22249E+03 -2.59284E+02 -1.51897E+03  1.73551E+02  2.86275E+03  1.01388E+03
  5.02623E+03 -2.38067E+03  7.77229E+02 -1.53659E+03  2.74521E+03  2.42628E+02  2.39830E+03  1.53166E+03
  1.43261E+03 -3.03905E+02  3.95195E+03 -5.85233E+02 -6.39527E+02  2.87469E+03 -3.61614E+03 -3.23724E+03
 -3.53936E+02  2.23715E+03 -3.77494E+03  1.86859E+03 -2.01257E+03  1.49174E+03  2.15711E+03  3.20588E+03
  1.81535E+03 -3.00836E+03  3.26018E+03  1.46837E+03  7.75592E+02 -1.42277E+03  4.45354E+02 -7.21822E+01
 -4.23533E+03 -1.39514E+03  3.13458E+03  9.21206E+01 -7.52012E+02 -6.90083E+02 -1.59535E+03 -2.13635E+03
 -3.12955E+03  3.55804E+03 -3.26533E+03 -8.55740E+02 -2.50823E+03 -4.52395E+03 -5.56708E+03  3.86928E+03
  3.03751E+02 -7.31764E+02  3.35206E+03 -4.71211E+03  7.76784E+01  1.70644E+03  2.70227E+03  3.31135E+03
  4.40958E+03  1.36513E+03  3.60194E+03  4.93716E+03 -7.69861E+02  9.66461E+02  3.50054E+03 -1.59302E+03
 -4.01796E+03 -6.47201E+02 -2.26762E+03  4.35750E+03 -1.05342E+03  5.73783E+02 -4.01085E+02 -4.75762E+02
 -5.50673E+01 -8.98413E+02  1.64416E+03  5.29666E+02 -4.37098E+03  4.69579E+03  2.00480E+03  1.80527E+01
 -9.88774E+01 -2.56003E+02 -4.33824E+02  1.74116E+02  3.10065E+02  2.27087E+03 -2.94637E+03  9.62757E+02
 -3.22314E+03  2.99867E+03 -2.35030E+03 -1.09984E+03 -1.05089E+03 -3.41196E+03 -2.59696E+03  6.20492E+02
 -2.47413E+03  4.24821E+03  3.04198E+02 -3.90522E+03  1.47070E+03  1.46243E+03 -1.50857E+03 -3.05375E+03
 -5.93841E+03 -1.20435E+03  8.61985E+02  3.29332E+03  2.54113E+02 -5.94490E+02 -1.29203E+02 -9.42674E+01
 -1.22558E+03 -4.39702E+02  3.03785E+03 -1.90834E+03 -1.83841E+03 -2.39902E+03 -2.11282E+03 -1.22441E+03
 -5.87303E+03 -4.18122E+03 -2.01571E+03 -2.85728E+02  1.79789E+03 -2.43515E+03  5.26219E+03  1.29904E+03
  6.38208E+01  3.65822E+03  1.71118E+03  1.92790E+03 -1.86745E+03 -5.73743E+01  1.17188E+03  1.67861E+03
  4.15148E+03  1.17970E+03 -4.40327E+03 -1.89639E+03  4.18771E+03 -3.08978E+02 -2.88008E+03 -4.01906E+03
 -3.61000E+02  2.22801E+03 -3.18916E+03  1.72301E+03  2.47501E+02 -1.37343E+02 -1.79829E+03  5.18547E+03
 -4.56391E+03  1.70342E+03 -3.73580E+02 -3.40364E+03  3.24374E+03  4.65771E+02 -8.94121E+02  1.35335E+03
  3.26717E+03  3.40959E+03  1.14277E+03 -3.50709E+02  4.27916E+02 -2.62052E+03 -8.70592E+01 -3.40156E+03
