 $NMID ID='MM_0lb_SNR50_7hz_g60_31.RAW', FMTDAT='(8E13.5)'
 TRAMP=1., VOLUME=1. $END
  3.16761E+05 -8.21783E+03  3.46779E+05  2.52010E+05  8.42575E+04  3.39895E+05 -1.20281E+05  2.54600E+05
 -1.85723E+05  9.01124E+04 -1.10413E+05 -2.44620E+04 -3.59532E+03 -5.24434E+04  4.88659E+04 -7.17062E+03
  3.14297E+04  5.37790E+04 -2.73755E+04  7.41910E+04 -6.35848E+04  6.73458E+04 -8.55319E+04  3.21208E+04
 -8.87748E+04 -1.08493E+04 -6.17234E+04 -5.87379E+04 -1.24386E+04 -7.92955E+04  2.26805E+04 -4.68540E+04
  4.29848E+04  6.22468E+03  2.12778E+04  5.02912E+04 -4.24608E+04  4.92452E+04 -6.77078E+04 -6.52247E+03
 -5.57313E+04 -5.58649E+04 -9.89278E+03 -7.20638E+04  3.18319E+04 -5.26951E+04  5.98284E+04 -2.07656E+04
  5.43970E+04  1.47638E+04  3.49541E+04  2.14006E+04  1.69088E+04  2.96378E+04 -4.64990E+03  2.83173E+04
 -1.64617E+04  1.04328E+04 -2.59229E+04 -8.58138E+03  1.15876E+04 -8.78661E+03  2.21404E+04  2.40058E+04
  1.17743E+04  4.96638E+04 -2.95169E+04  3.69063E+04 -7.48241E+04  2.02000E+03 -5.98115E+04 -5.02013E+04
 -9.16645E+03 -6.57023E+04  4.94115E+04 -4.99696E+04  7.08651E+04 -1.67876E+03  4.08264E+04  3.31907E+04
 -7.15633E+03  4.49654E+04 -3.40065E+04  1.59733E+04 -3.65363E+04  2.32760E+03 -1.84998E+04 -7.51954E+03
 -1.01660E+04 -1.07172E+04  6.99602E+03 -2.24869E+04  2.94240E+03 -2.70512E+04  1.92761E+04 -5.29851E+03
  4.72232E+03  6.34126E+03 -5.68201E+03  1.91657E+04 -2.92139E+04 -4.74606E+03 -1.48028E+04 -3.60214E+04
  1.92985E+04 -4.71476E+04  5.53832E+04 -2.16737E+04  5.67246E+04  1.54876E+04  2.24283E+04  4.46109E+04
 -1.59108E+04  3.68135E+04 -3.52494E+04 -6.85111E+02 -1.62643E+04 -2.20236E+04  2.39980E+04 -3.91036E+04
  4.92998E+04 -8.80682E+03  4.22198E+04  2.86131E+04  2.96385E+04  4.84524E+04 -9.35724E+03  6.33806E+04
 -3.48543E+04  3.95591E+04 -5.04092E+04  2.18298E+04 -4.96258E+04 -2.46278E+04 -2.76409E+04 -4.83389E+04
  3.11290E+03 -3.99658E+04  3.65996E+04 -1.16763E+04  4.22722E+04  8.14003E+03  3.61374E+03  1.91544E+04
 -1.79372E+04  6.39073E+03 -1.90970E+04 -1.16213E+04  2.61544E+03 -2.30827E+04  2.37873E+04 -2.37939E+03
  1.02583E+04  2.80397E+04 -5.26734E+03  2.69366E+04 -2.75194E+04  1.43441E+04 -3.36990E+04  6.70113E+02
 -3.36990E+04 -1.68455E+04 -1.66866E+04 -2.76237E+04  6.34648E+03 -3.18119E+04  3.57263E+04 -2.56949E+04
  3.43042E+04 -1.99273E+04  4.17213E+04  9.17443E+03  3.29260E+04  2.53305E+04  9.25178E+03  3.83999E+04
 -9.83317E+03  3.99453E+04 -3.75483E+04  4.88567E+03 -2.59290E+04 -4.70626E+03 -5.77285E+03 -1.46933E+04
  1.40735E+03  3.42764E+03 -7.86766E+03  1.05405E+04 -2.51477E+04  1.08685E+04 -2.54419E+04 -1.11830E+04
 -6.45654E+03 -2.29670E+04  9.83017E+03 -3.91167E+04  2.07118E+04 -1.74854E+04  2.31423E+04  3.67331E+03
  1.17983E+04  1.44733E+04 -4.29890E+02  2.66895E+04 -1.64483E+04  1.37489E+04 -2.62242E+04 -1.01998E+04
 -1.79582E+04 -2.77670E+04 -7.63601E+03 -3.43994E+04  1.49617E+04 -2.39324E+04  1.72583E+04 -1.41157E+04
  2.17115E+04 -3.05111E+03  2.47900E+04  9.11100E+03  6.15917E+03 -6.96878E+03  1.45533E+04 -6.02922E+02
  2.61178E+04  6.72293E+03  3.42057E+04  2.07657E+04  2.37676E+04  4.09456E+04  3.04198E+02  5.21652E+04
 -2.35652E+04  4.41257E+04 -4.89968E+04  2.43145E+04 -5.24190E+04 -5.27848E+03 -3.73055E+04 -2.67972E+04
 -1.26658E+04 -4.07925E+04  7.23702E+03 -4.08333E+04  3.16010E+04 -2.43192E+04  2.02890E+04  1.51796E+04
  3.90900E+03  1.99296E+04 -1.37276E+04  1.75588E+04 -2.18557E+04  3.82342E+03 -1.52723E+04 -2.33605E+04
  1.02105E+02 -2.07970E+04  1.78454E+04 -1.54527E+04  2.25789E+04 -1.77137E+03  1.66139E+01  1.54627E+04
 -1.11084E+04  9.21964E+03 -1.26146E+04 -1.18660E+04  2.89097E+03 -2.75921E+04  1.12791E+04 -1.63168E+04
  2.67865E+04 -1.83887E+04  2.81987E+04  6.51888E+03  3.10289E+04  2.66326E+04  1.10886E+04  4.00075E+04
 -3.59565E+03  3.94169E+04 -1.97606E+04  3.02939E+04 -2.88368E+04 -1.20708E+03 -2.01280E+04 -5.01596E+03
 -6.90096E+03 -1.37736E+04 -1.25572E+04 -2.75104E+03 -3.83820E+03  1.23226E+04 -1.21250E+04  1.11757E+03
 -1.67664E+04  1.28808E+03 -2.13076E+04 -1.09953E+04 -6.83621E+03 -2.48312E+04  1.88910E+04 -2.20279E+04
  1.78810E+04 -8.38497E+03  1.04085E+04  5.42797E+03  2.27248E+03  5.37175E+03 -1.00926E+04  4.83036E+03
 -1.16847E+04 -1.76883E+04  5.58814E+02 -1.91972E+04  1.13751E+04 -2.08555E+04  2.47971E+04 -1.53322E+03
  3.40224E+04 -1.07524E+03  1.85832E+04  1.89119E+04  3.63622E+03  2.81363E+04 -9.11284E+03  2.03961E+04
 -1.81698E+04  4.16066E+03 -2.80733E+03 -5.88034E+02  3.96509E+03 -7.66609E+03  1.51749E+04 -5.66347E+03
  1.18344E+04  7.81857E+03  2.26063E+03  1.57702E+04 -5.24444E+03  1.78644E+04 -1.75165E+04  6.80125E+02
 -1.39842E+04 -9.50789E+03 -3.03995E+03 -1.36877E+04  1.62819E+04 -1.32957E+03  1.61286E+04 -5.12571E+02
  4.16049E+03  1.41363E+04 -5.63907E+03  8.68576E+03 -2.12595E+04  4.40644E+03 -1.64976E+04 -5.36639E+03
 -1.45703E+04 -9.51963E+03 -5.63120E+01 -2.88397E+04  2.10356E+04 -1.17367E+04  1.84236E+04  4.43507E+03
  1.42410E+04  1.52415E+04 -2.54239E+03  1.72956E+04 -1.51806E+04  1.21699E+04 -7.21192E+03  6.00016E+02
 -9.91518E+03 -1.01877E+04 -3.27683E+03 -1.66471E+04  1.02189E+04 -1.50664E+04  1.18211E+04  4.15411E+03
  9.81839E+03  1.02564E+04  1.92155E+03  6.20988E+02  1.81082E+02 -9.96517E+03  5.54863E+03 -1.84636E+04
  1.44311E+04 -1.04958E+04  1.29542E+04 -5.12703E+03  1.61822E+04  8.76729E+03  1.50854E+04  2.80950E+04
 -1.02303E+03  2.71565E+04 -2.81470E+04  2.38511E+04 -3.26254E+04  4.34441E+03 -2.05299E+04 -1.02221E+04
 -1.12879E+04 -1.92799E+04 -1.18708E+03 -1.69408E+04  1.33103E+04 -9.99651E+03  7.85158E+03 -4.23097E+03
  8.52377E+03  3.46116E+03  5.32002E+03 -4.83269E+03  4.87980E+03 -1.26310E+03  1.42399E+04  4.34559E+03
  1.25993E+04 -3.15614E+03  8.67645E+03  1.03530E+04 -2.28562E+03  1.06047E+04 -1.30891E+04  8.82295E+03
 -1.80346E+04 -1.77273E+03 -8.35685E+03 -8.04085E+03 -8.04104E+03 -1.79804E+04  1.81731E+04 -1.83535E+04
  2.06366E+04 -1.63644E+04  2.16072E+04  2.56561E+03  1.32199E+04  2.55559E+04  2.93274E+03  3.11745E+04
 -6.38644E+03  2.53661E+04 -1.11481E+04  5.17538E+03 -6.15856E+03 -2.27912E+03 -4.09108E+03 -9.74193E+02
 -6.21487E+03 -5.72952E+03 -8.92824E+02  5.29771E+03 -8.95953E+03  7.33833E+03 -1.99529E+04 -2.53263E+03
 -1.03045E+04 -2.64860E+03 -1.08167E+04 -1.53429E+04  8.94762E+03 -2.11970E+04  1.92431E+04 -1.09408E+04
  2.19394E+04  1.10034E+04  8.97625E+03  2.40419E+04 -8.02245E+03  1.89300E+04 -1.21467E+04  1.46340E+04
 -1.04353E+04  5.43929E+02 -1.04529E+04 -1.45035E+04 -6.90592E+03 -1.40650E+04  1.09533E+04 -1.51947E+04
  1.07179E+04 -1.22138E+04  1.18646E+04  7.95812E+03  7.24804E+03  3.12295E+03  4.79725E+03  1.16361E+03
 -2.81238E+03  2.25113E+02  7.51352E+03  4.75616E+03  8.32414E+03  1.35531E+04  6.12952E+03 -2.52907E+03
 -2.13586E+03  2.08327E+04 -1.82740E+04  1.65786E+04 -1.89772E+04  2.22311E+03 -2.52109E+04 -1.21694E+04
 -1.20342E+04 -2.25024E+04  2.71083E+03 -2.08806E+04  1.13465E+04 -1.84570E+04  2.31050E+04  4.17608E+03
  9.79038E+03  1.57477E+04  4.31855E+03  1.26301E+04 -6.08254E+03  6.83751E+03 -8.09525E+03  9.84121E+01
 -3.89088E+03 -1.15083E+04  1.27600E+04 -8.43164E+03  3.36453E+03 -5.87768E+03  7.68165E+03  8.43962E+02
  1.23167E+04  4.42789E+03 -2.05773E+03  7.08831E+03 -1.15732E+03 -1.39115E+03 -1.61825E+03 -2.05075E+03
  3.75378E+03 -6.94527E+03  1.43603E+04  2.71353E+03  7.04428E+03  1.55762E+04  3.10271E+03  2.01807E+04
 -1.06652E+04  1.16522E+04 -1.46940E+04 -1.74914E+03 -7.19493E+03 -3.86152E+03 -2.94149E+03 -1.87031E+04
  4.81608E+02 -6.36327E+03  6.52897E+03 -8.06179E+03  3.01754E+03 -4.60059E+03 -3.03461E+03  6.56867E+03
 -1.29153E+04  7.94906E+03 -5.43811E+03 -5.54349E+03 -9.09764E+03 -1.27816E+04  3.13779E+03 -8.26727E+03
  5.26270E+03 -2.35359E+03  1.23909E+04 -1.83459E+03  6.03895E+03 -1.63961E+03 -8.74805E+02  1.44692E+04
  3.84692E+02  4.92727E+03 -4.78673E+03 -2.05317E+03  1.43111E+03 -2.39963E+04  1.41258E+04 -8.86131E+03
  1.40420E+04  8.17379E+03  1.13534E+04  9.73038E+03 -9.67706E+02  1.09445E+04 -1.18654E+04  1.55031E+04
 -1.42290E+04  7.52403E+03 -1.33189E+04 -6.87148E+03 -4.76191E+03 -1.12991E+04 -3.25821E+03 -4.01466E+03
  6.57291E+03 -5.35935E+03  1.09316E+04  1.60028E+03  5.23599E+03  1.26126E+04  1.63470E+02  6.59054E+03
 -4.02606E+03 -2.38797E+03 -4.40780E+03 -1.06849E+03 -7.25990E+03  2.93303E+03 -8.89359E+02  1.75657E+03
 -3.36736E+03  4.51032E+03 -1.42152E+03  9.45002E+02 -1.34687E+04 -4.80194E+03 -1.80442E+04 -5.66713E+03
 -5.94953E+03 -1.03495E+04  1.47824E+03 -2.47950E+04  1.24864E+04 -2.03693E+04  1.68061E+04 -7.17501E+03
  1.66522E+04 -2.64758E+03  1.43918E+04  1.75956E+04  4.34608E+02  1.17580E+04 -1.35154E+04  1.16556E+04
 -1.42796E+04  7.25288E+03 -7.89840E+03  2.66233E+03 -1.33096E+03  6.16907E+03  1.42731E+03 -6.18197E+03
 -3.33944E+03  5.79224E+03 -1.01895E+02 -6.50686E+03  3.02991E+03 -8.37850E+03  4.73691E+03  3.62339E+03
  6.70734E+03 -8.44966E+03  8.50857E+03  3.89874E+03  9.60420E+03  8.85314E+03  1.60640E+03  1.65753E+04
 -3.72958E+03  1.60002E+04 -1.67843E+04  8.85007E+03 -1.70552E+04  6.26630E+03 -6.81985E+03 -9.27318E+03
 -7.64087E+03 -2.15775E+04  1.27364E+03 -1.69753E+04  1.84312E+04 -1.31452E+04  5.53638E+03  5.98665E+03
  2.36698E+03  6.56530E+02 -6.18839E+03  6.06422E+03 -8.59338E+02  2.35598E+03 -5.31947E+03 -2.21471E+03
  3.74471E+03 -4.75491E+02  7.69712E+03 -6.28679E+03  7.96708E+01  1.42959E+03  1.37245E+04  1.02361E+04
 -9.37082E+03  1.36690E+04 -1.21929E+04 -5.31002E+02 -9.95908E+03 -1.45533E+04  9.67977E+02 -1.46311E+04
  8.95312E+03 -1.31164E+04  9.94515E+03 -2.28854E+03  1.04221E+04 -6.08809E+02  2.20839E+03  1.44834E+04
 -5.19148E+03  1.07104E+04 -4.84199E+02  3.28048E+03 -6.19865E+03  8.42443E+03 -1.28547E+04 -6.99763E+01
 -5.26961E+03 -1.09904E+03  2.16299E+03 -6.13901E+02 -1.31990E+03 -8.89883E+02 -6.28105E+03  6.71077E+03
 -5.05159E+03 -1.08819E+04  1.34954E+03 -8.28976E+03  3.25891E+03 -1.16810E+04  8.83828E+03 -4.26536E+03
  9.65887E+03  1.94952E+03  1.38116E+04  9.53594E+03 -1.41703E+03  2.13015E+04 -4.72808E+03  5.94044E+03
