 $NMID ID='MM_0lb_SNR50_15hz_g60_69.RAW', FMTDAT='(8E13.5)'
 TRAMP=1., VOLUME=1. $END
  3.12186E+05 -4.00049E+02  3.38397E+05  2.54457E+05  8.19695E+04  3.37378E+05 -1.33388E+05  2.55857E+05
 -1.90707E+05  8.35612E+04 -1.12586E+05 -2.91632E+04  5.80284E+02 -5.02082E+04  5.38430E+04 -1.64679E+03
  3.92196E+04  5.02500E+04 -1.40240E+04  7.30976E+04 -6.44190E+04  6.15115E+04 -8.27358E+04  3.14211E+04
 -8.48996E+04 -1.09209E+04 -6.10297E+04 -5.33381E+04 -1.51462E+04 -6.94896E+04  2.51069E+04 -4.30904E+04
  4.03634E+04  5.83249E+03  1.67385E+04  4.77819E+04 -3.34002E+04  4.92665E+04 -6.73166E+04  4.83413E+03
 -5.53586E+04 -5.70918E+04 -5.52703E+03 -7.93842E+04  3.61927E+04 -5.60485E+04  5.30160E+04 -1.75027E+04
  4.39990E+04  1.19843E+04  2.96434E+04  2.03923E+04  1.59851E+04  2.81813E+04 -7.01289E+02  2.86245E+04
 -2.58524E+04  1.14513E+04 -1.58273E+04 -4.75421E+03  9.65750E+03 -9.35361E+03  2.36731E+04  1.64104E+04
  5.54421E+03  3.69139E+04 -3.53198E+04  3.75759E+04 -6.33267E+04 -2.70582E+03 -5.41589E+04 -3.94660E+04
 -7.31026E+03 -6.45418E+04  3.88735E+04 -4.29228E+04  5.65158E+04 -2.00801E+03  3.19161E+04  3.71979E+04
 -5.05621E+03  3.70339E+04 -2.96710E+04  1.68023E+04 -3.32222E+04 -4.82388E+03 -1.97715E+04 -9.94023E+03
 -6.86067E+03 -1.29797E+04 -2.58812E+03 -1.62200E+04  8.11372E+03 -2.45307E+04  1.78313E+04 -1.02454E+04
  9.60282E+03  3.26928E+03 -1.64104E+04  7.84903E+03 -2.62765E+04 -2.72697E+03 -1.16945E+04 -2.95878E+04
  2.23280E+04 -4.53148E+04  4.66108E+04 -1.70332E+04  4.57830E+04  1.84151E+04  1.43416E+04  4.32560E+04
 -9.46400E+03  3.60545E+04 -2.70016E+04  2.80513E+03 -9.56512E+03 -3.06738E+04  2.01716E+04 -3.28921E+04
  4.10644E+04 -9.24867E+03  3.51367E+04  2.52109E+04  1.78250E+04  5.00785E+04 -4.20025E+03  5.38832E+04
 -3.54066E+04  3.54728E+04 -4.68115E+04  5.49659E+03 -4.31385E+04 -2.12639E+04 -2.22576E+04 -3.80269E+04
  9.23645E+03 -3.30948E+04  3.37004E+04 -1.87459E+04  3.00047E+04  1.03730E+04  6.29722E+03  1.76076E+04
 -1.74338E+04  3.87751E+03 -8.77405E+03 -8.26576E+03  8.31620E+03 -1.35859E+04  2.47759E+04  5.20026E+03
  1.50602E+04  2.26775E+04 -7.07613E+03  3.51201E+04 -2.73819E+04  1.02584E+04 -3.44328E+04 -3.13759E+03
 -2.45207E+04 -1.95518E+04 -7.85625E+03 -2.43069E+04  6.60767E+03 -2.18136E+04  1.46033E+04 -2.09576E+04
  2.72747E+04 -2.00232E+04  3.42913E+04  2.16904E+03  2.46985E+04  2.16365E+04  8.45022E+03  3.32361E+04
 -1.57888E+04  3.32413E+04 -2.77254E+04  1.00333E+04 -2.30940E+04 -9.35223E+03 -6.70530E+03 -1.60006E+04
 -1.77070E+03 -5.63872E+03 -9.18096E+03  7.40683E+03 -1.72633E+04  9.75520E+03 -1.66139E+04 -8.87810E+03
 -9.32221E+03 -2.24089E+04  2.48966E+03 -2.09240E+04  1.20019E+04 -1.61190E+04  1.86151E+04 -3.33996E+03
  6.01331E+03  9.37931E+03 -3.55604E+03  2.11029E+04 -1.64494E+04  8.13165E+03 -2.23956E+04 -6.86727E+03
 -1.17127E+04 -1.57158E+04 -1.59756E+03 -2.65703E+04  6.08427E+03 -1.98322E+04  1.63069E+04 -1.11209E+04
  1.59450E+04 -1.37681E+03  1.80333E+04  3.75385E+03  9.80203E+03  2.52453E+03  6.93146E+03  2.36235E+03
  1.63747E+04  2.73939E+03  1.79572E+04  1.27057E+04  1.41738E+04  3.11811E+04  1.12911E+03  3.41083E+04
 -2.18339E+04  2.62078E+04 -3.10827E+04  1.19235E+04 -3.21977E+04  2.07344E+01 -2.59943E+04 -1.67984E+04
 -8.87518E+03 -3.28602E+04  1.14048E+04 -2.73763E+04  2.07018E+04 -1.38605E+04  2.37300E+04  3.58281E+03
  5.00839E+03  1.37706E+04 -1.01900E+04  1.26856E+04 -1.98546E+04  3.59812E+03 -8.99799E+03 -5.67967E+03
  5.69849E+03 -1.71917E+04  1.07192E+04 -9.39031E+03  9.11663E+03 -1.45691E+03  6.26350E+03  2.19589E+03
 -5.18611E+03  6.24607E+03 -5.02642E+03 -5.88982E+03  8.14130E+02 -1.74441E+04  8.81452E+03 -1.13792E+04
  1.87911E+04 -7.63061E+03  1.83468E+04  4.74286E+03  1.87769E+04  9.80860E+03  7.75200E+03  1.95323E+04
 -3.24934E+03  2.05883E+04 -5.69744E+03  1.63470E+04 -1.79995E+04  5.78181E+03 -1.71402E+04 -6.14681E+02
 -3.71096E+03 -6.06612E+03 -2.80402E+02  1.91010E+03 -2.65090E+03 -8.94091E+02 -6.65569E+03  5.07629E+03
 -8.74430E+03  6.08597E+02 -1.21421E+04 -1.08872E+04 -2.26238E+03 -2.00607E+04  4.95951E+03 -1.21032E+04
  6.74734E+03 -6.13399E+03  8.23850E+03  2.85381E+03 -9.61604E+02  1.73989E+03 -5.07757E+03 -7.55621E+02
 -3.83809E+03 -1.13049E+04 -3.76115E+02 -1.16211E+04  8.45391E+03 -7.92564E+03  1.41577E+04 -5.57244E+03
  1.43424E+04 -2.67567E+03  1.15591E+04  5.20828E+03  1.37655E+02  1.29384E+04 -4.58443E+03  1.03867E+04
 -5.51604E+03  2.94331E+02 -4.98065E+03 -2.13451E+03  2.40870E+03 -4.32404E+03  5.06805E+03 -7.76348E+03
  3.51871E+03  6.68523E+03  3.71217E+03  9.23554E+03 -8.99145E+03  8.12227E+03 -8.52356E+03  1.07632E+03
 -7.87453E+03 -8.55007E+02  4.40820E+02 -1.17700E+04  3.28489E+03 -6.63406E+03  8.65021E+03  1.86401E+03
  4.00105E+03  8.96885E+03 -2.33128E+03  8.04394E+03 -8.14284E+03  5.47591E+02 -5.39049E+03 -6.60691E+03
 -1.88722E+03 -7.82288E+03  3.01609E+03 -6.95549E+03  8.45657E+03 -1.12261E+04  1.27157E+04 -1.16659E+02
  5.70674E+03  1.16030E+04 -2.58951E+03  1.19855E+04 -7.51579E+03  7.97129E+03 -5.30603E+03 -3.05692E+02
 -8.50899E+03 -8.63589E+03  2.17821E+02 -5.59610E+03  4.34820E+03 -5.56956E+03 -1.62811E+03 -1.34585E+03
  3.50753E+03 -2.99185E+02  2.02856E+03  6.12331E+03  7.17884E+02 -7.43002E+02 -6.08537E+02 -3.75114E+02
  6.98506E+03 -3.60753E+02  1.35871E+04  3.09210E+03  7.66663E+03  6.15309E+03  9.26286E+03  1.02717E+04
 -9.30207E+03  1.23351E+04 -1.43012E+04  1.12353E+04 -1.49782E+04 -4.29033E+03 -1.15977E+04 -1.31661E+04
 -8.11315E+03 -8.14126E+03 -3.67191E+03 -2.96751E+03  3.52574E+03 -3.27011E+03  4.05360E+03 -3.34960E+03
  1.45169E+03  2.58381E+03  6.10121E+03 -8.09684E+02  6.09264E+03 -2.63138E+03  5.61761E+03 -3.18926E+03
  2.38013E+03  5.24219E+03  2.36052E+03  3.09736E+03 -2.58677E+03  5.31455E+03 -5.71101E+03  5.84566E+03
 -1.01551E+04 -6.22803E+03 -6.18492E+03 -3.69772E+03  5.97604E+02 -9.10174E+03  4.49570E+03 -5.57911E+03
  3.36411E+03 -5.70508E+03  1.27507E+04  3.84875E+03  1.14648E+04  9.56972E+03  4.64494E+03  1.09555E+04
 -4.76257E+03  8.03522E+03 -6.58559E+03  3.33828E+03 -8.06071E+03 -4.87538E+02 -3.13884E+03 -2.15846E+03
 -4.89269E+02 -1.98249E+03 -2.63855E+03  1.89063E+03 -1.34495E+03  1.52889E+03 -6.55889E+03 -2.54125E+03
 -6.23082E+03 -4.82123E+03 -1.58688E+03 -4.66029E+03  4.31214E+03 -7.85156E+03  5.10238E+03 -5.88312E+03
  1.05896E+04  7.20221E+03  9.85944E+01  2.69182E+03 -2.06154E+03  9.61010E+03 -1.27797E+03  3.22417E+03
 -6.38944E+03  3.66935E+03 -2.47444E+03 -6.54579E+03  1.14283E+03 -1.61432E+03  3.01696E+03 -9.44346E+02
  5.94840E+03 -5.39417E+03  6.48172E+02  4.12706E+02  8.07074E+02  2.06160E+03 -3.55584E+03  1.16653E+03
 -1.85430E+03  9.17137E+02  2.08611E+03  1.90328E+03  2.39119E+03  5.42622E+03  1.57523E+03  8.18865E+02
 -3.12214E+03  1.34342E+03 -3.31972E+03  7.10854E+03 -1.12684E+04  6.75791E+03 -9.03585E+03 -4.96032E+03
 -3.49454E+03 -5.89093E+03  2.82000E+02 -8.77246E+03  3.60402E+03 -3.38312E+03  5.25538E+03 -4.74952E+03
  1.39785E+02  3.42712E+02  3.11871E+03  7.97581E+03 -3.45524E+03  1.65078E+03 -2.02832E+03 -5.30397E+03
  1.32219E+03 -5.63287E+03 -2.14571E+02 -2.91622E+03  2.02667E+03  1.84252E+03 -2.90501E+03 -1.92434E+03
  2.13442E+03 -8.30446E+02  8.74328E+02  4.57254E+03 -4.01819E+03  8.02400E+02 -1.34877E+03  1.99227E+03
 -6.47256E+02 -2.48996E+03 -5.53713E+02 -9.79406E+02  3.58671E+03  8.74364E+02 -4.86582E+03  6.65433E+03
 -2.70796E+03  6.74022E+03 -4.86491E+03  3.29617E+03 -3.72675E+03 -4.49323E+03  1.07475E+02 -4.68474E+03
  3.40199E+03 -5.38855E+03  4.09668E+02  2.02938E+03  2.27374E+03  5.18191E+03 -3.75559E+03  3.83628E+03
 -5.12837E+03  1.49124E+03 -6.08013E+03 -7.45129E+03  5.58241E+03 -3.67744E+02 -1.89705E+03 -6.81516E+03
  5.35951E+03 -5.94443E+03 -2.87696E+02  3.05530E+03  2.71870E+03 -1.76782E+03 -2.02725E+03  5.10870E+03
  3.53328E+03 -3.84628E+03  9.72658E+02 -7.29499E+03  1.12630E+03 -4.68286E+03  6.77757E+03 -2.64051E+03
  1.21183E+03 -8.27589E+02  2.39783E+03 -3.03920E+03 -2.28784E+02  9.73424E+03  9.69410E+01  7.28334E+03
 -2.39509E+03 -4.02137E+03  4.56826E+02  1.97662E+00 -1.43413E+03 -4.18868E+03  8.77125E+02 -2.36687E+03
  2.72284E+03 -3.15547E+03  1.52671E+03 -2.16193E+03  4.63334E+03  3.74392E+03 -2.18598E+03 -9.46821E+01
  2.20574E+03 -2.87450E+03  1.19368E+03 -2.91262E+03 -1.50025E+03  1.80146E+02  2.76314E+03  3.39941E+03
  6.14843E+03  1.22610E+03 -2.43635E+03  2.90723E+03 -2.78237E+03  3.04697E+03 -8.49416E+03 -6.82862E+02
 -4.33216E+03 -7.98334E+03  6.11903E+03 -3.67271E+03  2.47162E+03 -4.97423E+03  7.09462E+03 -1.11260E+03
 -1.24233E+03  3.21780E+03  3.00122E+03 -2.09020E+02 -2.03392E+03  2.47443E+03 -7.93913E+03  5.68447E+03
 -3.97664E+03  7.94454E+02  1.89440E+03 -1.05622E+03  2.91317E+02 -3.48793E+03 -4.03792E+03  2.65142E+03
 -7.81378E+01  2.46610E+03  1.16918E+03  1.78272E+02  1.36883E+03 -2.60596E+03  2.17884E+03 -2.12594E+03
 -9.76199E+02 -1.85694E+03 -1.01626E+03 -1.33319E+02  2.26187E+03  2.48133E+03 -1.20849E+03  1.67598E+03
 -4.10904E+03  3.74994E+03 -2.16758E+03  1.37113E+03 -7.76722E+03 -2.59070E+03  1.30529E+03 -3.65517E+03
 -1.16720E+02 -3.53886E+03  9.73191E+02 -5.35229E+03  3.22706E+03 -1.50312E+03  5.20878E+02  2.84590E+03
  4.51704E+03 -1.92700E+02  2.64909E+03  2.26293E+03 -1.54968E+03  5.05730E+03  3.63428E+02  2.33941E+03
 -3.80767E+03  6.95515E+02 -4.12433E+02 -3.56276E+03 -7.91306E+02  1.34082E+03 -2.44691E+03 -1.11222E+03
  3.27589E+03  6.98319E+03 -1.55036E+03  4.04402E+03  8.44839E+02 -2.02017E+03 -1.72059E+03  1.31468E+03
  1.97483E+03 -7.38867E+03 -9.78729E+02 -3.53262E+01  2.92608E+03 -1.90046E+03  2.13684E+03  1.28494E+03
  4.44850E+03  1.56244E+03  1.58713E+03 -4.17768E+02  3.39974E+02 -4.73075E+03  3.25084E+03 -4.04248E+02
 -3.16802E+02 -1.80090E+03  1.48600E+03 -3.73123E+03 -4.10319E+03  1.12533E+03  1.98343E+03  1.07451E+02
 -6.41274E+03  2.14584E+03 -1.21761E+03 -3.07813E+03  2.06129E+03 -1.86776E+03  7.13412E+03  1.34912E+02
 -3.47356E+02 -7.29901E+03  2.74109E+03 -1.53536E+03  2.51510E+03  7.69840E+02  1.44958E+03  4.56457E+03
