 $NMID ID='MM_0lb_SNR50_16hz_g55_29.RAW', FMTDAT='(8E13.5)'
 TRAMP=1., VOLUME=1. $END
  3.06933E+05 -3.29750E+03  3.36167E+05  2.49345E+05  8.92529E+04  3.34919E+05 -1.32804E+05  2.54003E+05
 -1.93298E+05  8.36029E+04 -1.07773E+05 -3.46306E+04 -1.40938E+03 -4.88150E+04  5.35133E+04  1.36015E+03
  3.62590E+04  5.39623E+04 -2.29939E+04  7.49333E+04 -5.56401E+04  6.44126E+04 -8.15863E+04  3.07538E+04
 -8.03959E+04 -1.18090E+04 -6.17991E+04 -5.01098E+04 -1.40101E+04 -7.12951E+04  2.89223E+04 -4.65460E+04
  4.31414E+04  4.77751E+03  1.70730E+04  4.53338E+04 -3.18728E+04  5.02470E+04 -6.70340E+04 -1.10027E+03
 -5.38106E+04 -5.64375E+04 -5.78870E+03 -7.78789E+04  3.12218E+04 -5.24478E+04  4.88006E+04 -2.02070E+04
  4.22835E+04  9.41000E+03  2.98796E+04  2.31907E+04  1.48843E+04  3.06375E+04 -7.05491E+03  2.59938E+04
 -1.93844E+04  9.84124E+03 -2.21914E+04 -6.70611E+03  9.71787E+03 -7.29105E+03  2.30471E+04  1.23488E+04
  1.33981E+04  3.46584E+04 -2.84766E+04  3.28713E+04 -7.03632E+04  5.15106E+03 -5.87922E+04 -4.52238E+04
 -5.44331E+03 -6.47393E+04  3.71935E+04 -4.38747E+04  5.90949E+04 -3.69009E+03  3.56418E+04  3.64227E+04
 -9.14189E+03  3.57452E+04 -2.84756E+04  1.82020E+04 -2.90154E+04 -6.59213E+03 -1.16676E+04 -1.78181E+04
 -9.01291E+03 -1.11763E+04  6.38099E+02 -1.98370E+04  6.52569E+03 -2.38088E+04  1.10759E+04 -1.51854E+04
  1.00669E+04 -9.42182E+02 -4.94059E+03  1.13403E+04 -2.13984E+04 -6.44795E+03 -8.85242E+03 -3.17253E+04
  2.21724E+04 -4.12043E+04  4.56364E+04 -2.38842E+04  4.72205E+04  2.03008E+04  1.55983E+04  4.37615E+04
 -1.16539E+04  3.18677E+04 -2.33154E+04 -2.07996E+03 -9.86638E+03 -2.62495E+04  2.38770E+04 -3.48298E+04
  4.18243E+04 -7.61696E+03  3.35168E+04  1.88975E+04  1.33878E+04  4.85633E+04 -6.83246E+03  4.70619E+04
 -3.40416E+04  3.45818E+04 -4.28398E+04  5.37921E+03 -4.15703E+04 -1.55246E+04 -2.15622E+04 -3.65975E+04
  9.00270E+03 -3.73380E+04  2.89539E+04 -1.41867E+04  3.00032E+04  1.32556E+04  4.59862E+03  1.84058E+04
 -1.64814E+04  1.02392E+04 -1.03915E+04 -9.96708E+03  8.59455E+03 -1.09202E+04  2.07776E+04  5.98262E+03
  1.09297E+04  2.21572E+04 -4.98007E+03  2.32851E+04 -2.34878E+04  1.52171E+04 -2.93649E+04 -3.41849E+03
 -2.17340E+04 -1.97061E+04 -1.20670E+03 -2.32840E+04  8.54135E+03 -1.86809E+04  1.90469E+04 -1.80631E+04
  2.30922E+04 -9.92966E+03  3.13243E+04  5.82657E+03  2.25178E+04  2.15901E+04  1.75347E+03  3.38996E+04
 -1.43701E+04  2.95575E+04 -2.82812E+04  1.05461E+04 -2.27207E+04 -1.39834E+04 -7.68243E+03 -1.04856E+04
 -2.98481E+03 -6.94607E+03 -6.60985E+03  1.81803E+03 -1.36045E+04  6.91433E+03 -1.43058E+04 -7.82316E+03
 -6.40195E+03 -2.33614E+04 -1.26660E+03 -2.36460E+04  1.43153E+04 -1.56983E+04  1.50654E+04 -2.02051E+02
  7.87667E+03  1.78261E+04  5.48006E+02  2.09088E+04 -1.37112E+04  1.26239E+04 -1.73337E+04 -4.86339E+03
 -1.12043E+04 -1.32283E+04  6.83081E+02 -2.75976E+04  8.98678E+03 -1.44669E+04  1.49962E+04 -6.54644E+03
  1.41031E+04  1.99079E+03  7.74514E+03  3.75429E+03  5.47581E+03 -2.05892E+03  5.70576E+03 -2.82055E+03
  1.63962E+04 -5.56446E+02  1.97067E+04  1.22638E+04  6.06844E+03  2.65472E+04 -2.50306E+03  3.34595E+04
 -1.96371E+04  2.01926E+04 -2.88971E+04  8.32163E+03 -3.15812E+04 -5.56000E+03 -2.44659E+04 -1.76029E+04
 -7.95051E+03 -2.51231E+04  1.20410E+04 -2.45416E+04  1.85013E+04 -9.72893E+03  1.78900E+04  7.73519E+03
  7.62007E+03  1.28218E+04 -5.19580E+03  1.16766E+04 -1.76989E+04  3.51219E+03 -1.31319E+04 -9.22374E+03
  2.32681E+03 -1.60029E+04  7.71342E+03 -1.03399E+04  8.80503E+03 -7.79308E+02  1.98459E+03  6.46921E+03
 -3.37792E+03  8.52334E+02 -7.05612E+02 -4.12570E+03 -1.75960E+03 -1.60974E+04  1.33108E+04 -1.39686E+04
  1.16161E+04 -1.03454E+04  2.05803E+04  3.06226E+03  1.63050E+04  7.49531E+03  3.37752E+03  2.07806E+04
 -3.68901E+03  1.94324E+04 -1.16541E+04  5.83354E+03 -1.97737E+04  1.99878E+03 -1.36903E+04 -3.30089E+03
 -4.71668E+03 -1.98004E+03 -3.95987E+03  4.07093E+03 -4.09052E+03  2.67361E+03 -5.00130E+03  2.01415E+03
 -1.06119E+04 -2.86668E+03 -1.04191E+04 -9.05745E+03 -1.12168E+03 -1.10340E+04  6.85757E+03 -8.82181E+03
  1.09723E+04 -5.36644E+03  8.21695E+03  3.12747E+03  1.29194E+03  5.80249E+03 -2.16542E+03 -1.63202E+03
 -7.60242E+03 -4.62507E+03 -3.77002E+03 -9.53882E+03  5.53617E+03 -1.07950E+04  1.47143E+04 -1.96718E+03
  1.18572E+04  1.53682E+03  1.38752E+04  6.69285E+03  5.52449E+03  1.19736E+04 -7.27960E+03  1.67697E+04
 -1.01619E+04  5.57291E+03 -4.04257E+03 -2.87129E+03  3.37296E+03 -4.39384E+03  6.18309E+03 -3.19018E+03
  7.45074E+03  4.12341E+03 -1.54703E+03  6.45103E+03 -6.61085E+03  5.86098E+03 -9.21510E+03 -2.05631E+03
 -4.10894E+03 -3.91833E+03  1.25861E+03 -4.27069E+03  7.14722E+03 -1.33554E+03  2.77730E+03  3.01640E+03
 -1.57215E+03  7.07514E+03 -5.88979E+03  4.95600E+03 -9.49439E+03 -4.82816E+02 -7.18114E+03 -5.83741E+03
 -2.14621E+03 -5.24640E+03  1.45034E+03 -1.36440E+04  9.25458E+03 -4.69540E+03  6.09138E+03 -1.79569E+03
  5.24245E+03  1.05761E+04  3.36137E+03  9.66725E+03 -6.44371E+03  3.60443E+03 -6.33897E+03 -1.66116E+03
 -6.77704E+03 -7.67998E+03 -3.45908E+03 -6.24220E+01  1.14244E+03 -8.90809E+03  4.03786E+03 -4.94229E+03
  2.44264E+02  1.18095E+03  2.75892E+03  1.46861E+03  1.28192E+03  2.47946E+02 -1.59249E+03 -1.40159E+03
  6.59255E+03 -6.78458E+02  9.72497E+03  3.19134E+01  1.00087E+04  4.06361E+03  9.46766E+02  1.38043E+04
 -4.05345E+03  1.30328E+04 -9.52964E+03  1.44585E+04 -1.48977E+04 -6.52425E+02 -1.37525E+04 -3.43454E+03
 -9.20280E+03 -1.14325E+04 -3.44470E+03 -3.66455E+03  3.25458E+03 -6.06038E+03  7.74726E+03 -1.60509E+03
  3.55798E+03 -9.59585E+01  2.37393E+03 -8.11944E+03  3.32396E+03 -4.09723E+03  3.26636E+03 -3.12580E+03
  3.64061E+03  4.60778E+03 -1.45823E+03  4.14007E+03  3.30958E+03  9.89344E+03 -6.46513E+03 -3.09934E+03
 -1.08509E+04  1.10874E+03 -6.17073E+03 -3.97463E+03  1.97195E+03 -5.49092E+03  5.60619E+03 -9.80324E+03
  6.87956E+03 -1.14587E+03  1.73401E+04 -1.60248E+03  1.03878E+04  7.74493E+03  6.28759E+03  9.35818E+03
 -4.64416E+03  4.28449E+03 -4.91669E+03  3.45275E+03 -2.69827E+03 -7.61858E+02 -4.10157E+03 -4.06258E+03
  1.77742E+03  5.29461E+02 -3.04597E+03  6.54647E+02 -2.42297E+03  3.89757E+03 -7.43880E+03  6.25902E+02
 -5.36700E+03 -4.10348E+03  1.59149E+03 -5.62789E+03  4.96735E+03 -6.03287E+03  1.40773E+03 -2.80072E+03
  9.66550E+03  4.03626E+03  3.29415E+03  6.60984E+03 -3.83952E+03  4.23463E+03 -4.24758E+03  2.38504E+03
 -7.53401E+03  2.92289E+03 -4.67746E+03 -1.96527E+03 -3.62378E+02 -4.88262E+03 -3.15000E+03 -6.72809E+03
  6.58626E+03 -1.64678E+03  5.39108E+03  3.23625E+03  3.25545E+03  3.20844E+03  9.07786E+02  2.96667E+03
  4.34201E+03 -2.03668E+03  9.01667E+02 -3.46904E+02  2.08298E+03  3.80228E+03  3.83724E+03  4.62248E+02
 -4.51631E+03  5.40399E+03 -2.24355E+03  7.30700E+03 -9.52563E+03  2.99007E+03 -7.10373E+03 -2.65649E+03
 -4.75907E+03 -3.56767E+03  4.69143E+03 -8.86222E+03  6.46715E+03 -2.72637E+02  3.69936E+03 -1.51898E+03
  5.62638E+03 -4.44895E+03  3.15355E+03  9.07393E+02 -6.25294E+02  3.06388E+03  3.28839E+03 -2.37967E+03
 -1.62490E+03 -3.00862E+03  2.16860E+03 -3.19036E+03 -2.45312E+03 -2.99918E+03  1.78154E+03  5.61205E+03
  3.64712E+03 -1.42132E+03  4.77135E+03  2.15622E+03  4.29674E+03  4.53877E+03  1.98091E+03  7.70343E+03
 -1.91515E+03 -1.67749E+03  7.06576E+03  5.15357E+02  1.25149E+03  3.27358E+03 -2.65952E+03  6.26071E+03
 -3.60370E+03  4.03802E+01 -3.93054E+03 -7.15481E+02 -2.82833E+03 -2.75498E+03  2.18043E+01 -4.89202E+02
 -9.38741E+02 -3.28211E+03 -1.71036E+03 -1.98353E+03 -2.29708E+03 -3.10473E+03 -3.96179E+03  4.37270E+03
  6.44221E+02  5.16266E+03 -5.96003E+03 -2.18937E+03 -6.29855E+03 -6.39145E+03  3.61974E+03 -2.91155E+02
  1.22657E+03 -1.50604E+03  1.67174E+03 -4.71009E+02 -9.56068E+02  3.77917E+02  9.23382E+02  4.78987E+03
 -1.69501E+03 -2.86010E+03 -5.03002E+03 -5.54338E+03  3.80118E+03 -4.51486E+03  1.62341E+03  3.59221E+02
  5.65592E+03  2.96141E+03  3.20118E+03 -1.84023E+02  1.54774E+03  5.44434E+03  1.91334E+02  3.21981E+03
  9.25672E+02 -1.50838E+03  1.07219E+03  2.38320E+03  2.00759E+03 -5.01264E+03  1.03883E+03  3.82417E+02
  6.34535E+03 -4.64610E+03 -2.12683E+03 -2.54459E+02  5.92513E+03  4.88625E+03 -2.01272E+03  4.27636E+03
 -2.12767E+03  8.45872E+02 -1.11576E+03 -2.30284E+03 -3.16462E+03 -9.03065E+02  3.54232E+03  2.66135E+03
 -2.35434E+03  2.29197E+03 -3.13975E+03  3.35804E+03 -1.97680E+03  1.41834E+03 -2.65821E+03 -4.14752E+02
 -2.92658E+03 -1.91636E+03  9.71798E+02 -1.16051E+03  4.79184E+03 -5.07227E+03 -6.20705E+02 -4.19871E+03
  3.88831E+03  3.83651E+03  1.12331E+04 -1.38182E+03  1.85434E+03  3.37040E+03 -3.11141E+02  1.56238E+03
  1.05550E+03  2.97180E+03 -5.52642E+03  2.56550E+03 -3.20594E+02  2.11319E+03 -2.11613E+03 -1.98832E+03
  6.90205E+02 -1.09445E+03 -1.28205E+03  9.05591E+02  9.14283E+02  6.03128E+02 -6.44046E+02  1.10947E+03
 -2.01600E+03  1.72214E+03  4.59598E+03  3.38345E+03  1.51435E+03  4.33788E+03 -2.61560E+03  2.88384E+03
  3.13859E+03  3.79989E+03  2.70448E+02 -5.51447E+02 -4.94128E+03 -3.88916E+03 -1.77186E+03  3.52387E+01
 -1.66950E+03 -2.07675E+03  2.79942E+03  8.47396E+01  2.00233E+02  2.28991E+03  1.08694E+02 -1.41023E+03
  5.78465E+02  1.15714E+03  1.41839E+03 -2.46093E+03 -4.06623E+03  2.86706E+03 -2.21864E+03  1.33581E+03
 -9.53289E+02  8.01350E+02 -5.25112E+01 -1.17084E+03 -2.13406E+02  4.10311E+03  3.84870E+02 -2.18343E+03
  1.89010E+03  1.86311E+03  3.42531E+03  3.04288E+02 -4.13609E+02 -8.07657E+02  1.08786E+03 -2.62135E+03
 -2.78185E+03 -3.60588E+03 -2.19425E+03  1.42399E+02  5.78577E+03  3.43552E+03  2.97858E+03 -1.60243E+03
  1.16930E+03  1.77512E+03 -2.74659E+03  2.86243E+03  2.29728E+03  3.67345E+03 -7.22906E+03 -2.81375E+03
 -1.01098E+03  8.21065E+02 -3.03448E+03 -1.61643E+03 -8.48774E+02 -5.78495E+03 -3.35046E+03 -4.10032E+03
  1.20977E+03  2.45664E+03 -3.68248E+03  4.39590E+02  1.43709E+03  1.23071E+03 -1.64913E+02 -6.14015E+02
  1.68751E+03 -1.33619E+03 -2.55493E+03 -2.27689E+03  5.50748E+02  3.10825E+03  1.88645E+03 -9.03532E+02
