 $NMID ID='MM_0lb_SNR50_13hz_g40_4.RAW', FMTDAT='(8E13.5)'
 TRAMP=1., VOLUME=1. $END
  3.05395E+05  1.27540E+03  3.34532E+05  2.48527E+05  8.87165E+04  3.40149E+05 -1.35062E+05  2.52290E+05
 -1.90302E+05  7.97565E+04 -1.12658E+05 -2.82676E+04  8.58079E+01 -4.90613E+04  4.99933E+04  1.29543E+03
  3.80536E+04  5.05088E+04 -1.82242E+04  7.56657E+04 -6.30878E+04  6.57334E+04 -8.29633E+04  3.65374E+04
 -8.24001E+04 -1.19705E+04 -5.93012E+04 -4.72184E+04 -1.57937E+04 -6.99245E+04  3.17527E+04 -4.46870E+04
  3.80119E+04  8.35672E+03  1.43714E+04  5.13679E+04 -3.65914E+04  4.63299E+04 -6.59520E+04 -3.13761E+03
 -5.01020E+04 -5.99585E+04 -1.11129E+04 -7.60106E+04  3.56405E+04 -5.53985E+04  5.00582E+04 -1.78435E+04
  4.13677E+04  1.22402E+04  3.65868E+04  2.74267E+04  1.72558E+04  3.52038E+04 -2.66716E+03  2.75176E+04
 -1.95959E+04  1.54234E+04 -2.02487E+04 -6.15752E+03  8.01958E+03 -5.77762E+03  2.33967E+04  1.42811E+04
  6.86096E+03  3.49647E+04 -2.99057E+04  3.37240E+04 -6.73320E+04 -3.82387E+02 -5.94422E+04 -4.37738E+04
 -1.52244E+04 -6.07430E+04  4.03879E+04 -4.12431E+04  5.36406E+04 -1.78187E+03  3.42170E+04  3.24097E+04
 -8.52195E+03  3.89590E+04 -2.94838E+04  1.53831E+04 -3.22985E+04 -3.24426E+03 -1.29627E+04 -1.45721E+04
 -4.81740E+03 -1.30816E+04 -6.08980E+03 -1.87985E+04  8.02089E+03 -2.73969E+04  1.68167E+04 -1.43359E+04
  8.51559E+03  5.54714E+03 -5.11931E+03  1.51361E+04 -2.15628E+04 -9.08866E+03 -7.11149E+03 -3.39526E+04
  2.02342E+04 -4.59553E+04  5.08597E+04 -1.83708E+04  4.36390E+04  1.91452E+04  1.13894E+04  4.44201E+04
 -7.40796E+03  3.83723E+04 -2.14450E+04 -1.65459E+03 -1.22418E+04 -2.95553E+04  2.05250E+04 -3.82309E+04
  4.65111E+04 -9.25565E+03  3.33285E+04  2.36212E+04  1.81652E+04  4.75001E+04 -1.30951E+04  5.41637E+04
 -3.62816E+04  3.40373E+04 -4.18440E+04  1.04082E+04 -3.99693E+04 -2.09499E+04 -2.86646E+04 -3.97979E+04
  4.80741E+03 -3.81706E+04  2.99788E+04 -1.30723E+04  3.09177E+04  1.21764E+04  3.00019E+03  1.96822E+04
 -1.38956E+04  1.21988E+04 -6.01280E+03 -8.97216E+03  2.77380E+03 -1.27427E+04  2.00645E+04  4.48187E+03
  1.47289E+04  2.35804E+04 -1.22396E+03  2.26335E+04 -2.21892E+04  1.73857E+04 -2.79226E+04 -1.04564E+04
 -2.21798E+04 -1.53035E+04 -1.09688E+04 -1.86741E+04 -1.86513E+03 -1.60397E+04  1.57016E+04 -1.79189E+04
  2.81806E+04 -1.24294E+04  3.48084E+04  7.80108E+03  2.35596E+04  1.53346E+04  1.67697E+03  3.46225E+04
 -1.49369E+04  3.29332E+04 -2.78158E+04  1.01281E+04 -2.12880E+04 -1.07719E+04 -4.61414E+03 -1.50588E+04
  5.77171E+03 -1.89205E+03 -5.15188E+03  6.35134E+03 -1.13920E+04  2.97976E+03 -1.34803E+04 -5.02149E+03
 -3.52391E+03 -1.79739E+04  9.30498E+03 -1.97430E+04  1.73076E+04 -1.45269E+04  1.76099E+04 -3.50480E+03
  1.40717E+04  1.12373E+04 -3.02901E+03  2.06198E+04 -1.06951E+04  8.65743E+03 -1.70279E+04 -2.59030E+03
 -1.45870E+04 -1.54612E+04 -6.75434E+02 -2.59445E+04  3.20516E+03 -1.94892E+04  1.95190E+04 -1.10935E+04
  2.08718E+04 -5.05982E+02  1.29751E+04  3.93390E+03  5.88554E+03 -1.03220E+03  4.80417E+03 -7.96682E+02
  1.99502E+04  6.61424E+03  1.92504E+04  1.59343E+04  1.54834E+04  3.02321E+04 -1.63502E+03  3.17865E+04
 -2.12166E+04  2.94821E+04 -3.21627E+04  1.74066E+04 -3.51903E+04 -2.63976E+03 -3.02461E+04 -1.64941E+04
 -1.31120E+04 -3.08926E+04  9.91528E+03 -2.37031E+04  2.45622E+04 -1.20933E+04  1.74366E+04  4.96697E+03
  1.02070E+04  1.72431E+04 -9.72851E+03  8.10246E+03 -1.26021E+04  2.56916E+03 -7.75369E+03 -1.42555E+04
  5.81239E+02 -1.62919E+04  1.06213E+04 -1.47660E+04  1.29012E+04  1.61872E+03  3.15813E+01  2.78184E+03
 -7.05005E+03  6.01512E+03 -9.17285E+03  1.19337E+03  5.07997E+02 -1.88764E+04  8.54626E+03 -1.15462E+04
  1.96099E+04 -6.53361E+03  1.66289E+04 -3.20936E+01  1.54674E+04  1.47629E+04  9.09291E+03  2.17030E+04
 -3.50434E+03  2.09475E+04 -1.61854E+04  1.31388E+04 -1.50941E+04  6.25230E+03 -1.11817E+04 -3.43913E+03
 -7.82602E+03 -7.10819E+03 -2.63006E+03  1.43717E+03 -2.59022E+03  8.07150E+03 -4.82225E+03  2.72856E+03
 -8.30674E+03  2.95934E+03 -1.10659E+04 -9.77909E+03 -2.93038E+03 -1.51337E+04  1.08396E+03 -8.66037E+03
  6.25307E+03 -4.59173E+03  9.88712E+03  5.00559E+03  7.94433E+02  3.25960E+03 -7.08928E+03 -1.72774E+03
 -7.52279E+03 -6.28429E+03  1.31204E+02 -1.18653E+04  4.29052E+03 -9.89378E+03  1.45488E+04 -6.68730E+03
  1.49809E+04  3.88306E+03  5.00986E+03  6.07850E+03 -4.83149E+02  1.20243E+04 -9.90076E+03  7.55927E+03
 -1.20678E+04  4.36316E+03 -6.30279E+01 -2.80478E+03  4.65111E+03  2.22368E+02  6.06922E+03 -3.33986E+03
  7.07389E+03  1.27705E+03  2.35370E+03  7.91319E+03 -2.55110E+03  7.07874E+03 -6.96269E+03  3.15006E+03
 -8.80913E+03 -2.10823E+03  3.28520E+03 -1.10953E+04  8.21345E+03 -5.80283E+03  3.90525E+03  3.12656E+03
  2.11471E+03  8.17786E+03 -6.87387E+03  9.52237E+03 -7.45794E+03  1.28003E+03 -2.65796E+03 -1.84572E+03
 -8.75142E+03 -1.08215E+04  2.29285E+03 -1.21793E+04  1.44346E+04 -7.59711E+03  1.23070E+04 -2.11438E+03
  2.94987E+03  9.24691E+03 -6.34435E+03  7.20616E+03 -4.85108E+03  1.71049E+03 -3.50638E+03  1.48956E+03
 -9.52167E+03 -1.48250E+03 -3.54223E+02 -8.09381E+03  5.37309E+02 -5.14785E+03  6.00468E+03 -5.78805E+03
  3.14181E+03 -4.11643E+03 -5.68424E+03 -6.74781E+03  1.28443E+03 -3.02162E+03 -1.80910E+03 -5.10317E+03
  7.45563E+03 -3.93353E+03  1.01577E+04  2.11922E+03  9.87973E+03  1.03727E+04  1.04103E+04  1.18561E+04
 -1.23970E+03  1.49976E+04 -8.63611E+03  1.46274E+04 -1.49993E+04  6.05043E+03 -1.37930E+04 -7.27301E+03
 -7.04661E+03 -1.27792E+04  1.25456E+03 -1.21359E+04  3.49126E+03  1.88753E+03  4.65988E+03 -5.94744E+03
  3.53990E+03  4.63292E+02 -2.29353E+03  1.22082E+03  6.09848E+03 -3.16668E+03  1.06132E+04 -2.25182E+03
  6.34103E+03  1.76458E+03  4.45920E+03  4.95519E+03 -2.15773E+03  5.34202E+03 -8.81781E+03  1.44781E+03
 -1.25668E+04 -1.71495E+03 -4.31876E+03 -8.63546E+03 -1.23817E+03 -1.19301E+04  8.90746E+03 -5.75379E+03
  9.75281E+03 -8.90032E+03  1.11792E+04  5.63770E+03  9.84638E+03  5.99270E+03  1.27855E+02  1.22898E+04
 -6.07839E+03  9.36357E+03 -6.42224E+03  5.52118E+03 -4.35686E+03 -2.27201E+03  2.61075E+03  1.24013E+03
 -2.49995E+03 -2.19359E+03 -2.65566E+03  7.22465E+03 -8.58567E+03  6.12742E+03 -6.60526E+03 -1.15663E+03
 -5.44975E+03 -7.05598E+03  5.24662E+03 -8.07100E+03  9.34263E+03 -7.52009E+03  7.24710E+03 -1.74912E+02
  5.14861E+03  7.71634E+02  3.85348E+03  8.70881E+03 -4.79573E+03  1.00923E+04 -4.84869E+03  5.93406E+03
 -1.13844E+04  2.83670E+03 -6.77657E+03 -7.91749E+03  1.91815E+03 -1.89880E+03  4.43030E+03 -6.09930E+03
  8.25726E+03 -3.25193E+03  4.67886E+03  4.52332E+03  1.93604E+03 -5.92107E+02  8.77582E+02 -7.54156E+02
 -2.08104E+03 -1.21705E+03  3.64107E+03  2.92674E+03  3.85093E+03  3.74004E+03 -3.16216E+03  4.18822E+03
 -4.55615E+03  6.86877E+03 -6.41938E+03  7.32684E+03 -9.91756E+03  2.52222E+03 -3.16787E+03 -6.62414E+03
 -4.03421E+03 -8.22514E+03 -1.47593E+03 -1.05816E+04  3.78498E+03 -7.79993E+03  7.78667E+03 -2.67486E+03
  5.39466E+03  5.11659E+03  4.74617E+02  5.21759E+03 -7.43183E+03  6.99365E+03 -1.98134E+03  1.03966E+03
 -1.49439E+03 -6.70889E+03  4.70657E+03 -7.06854E+03  2.11073E+03 -3.03854E+03  4.40450E+03  1.40531E+03
 -4.00612E+03 -4.69587E+02  6.59354E+02  4.41591E+03 -1.24509E+03  9.65748E+02  7.21405E+02 -1.70977E+03
 -7.14272E+02 -1.88406E+03  5.17248E+03 -2.10256E+02  7.33618E+02  3.71722E+03 -6.20394E+03  8.65366E+03
 -6.06455E+03 -3.16675E+03 -7.73650E+03  1.45462E+03 -5.45150E+03 -1.15519E+03 -1.93321E+03 -5.22343E+03
 -4.78512E+02 -5.19702E+03  4.04825E+03  1.33187E+02  4.10218E+03  2.11381E+03  4.45847E+03  2.74860E+03
 -7.47452E+02  1.09647E+03  1.17669E+03 -7.23281E+02  5.91770E+03 -5.91481E+03 -3.78264E+02 -3.31411E+02
 -4.22377E+02 -4.80896E+03  2.86423E+03 -5.80022E+03  2.99229E+03  6.69193E+01  4.97745E+03  4.74647E+03
 -1.43303E+03 -2.39450E+03 -1.48173E+03 -9.85925E+02 -1.50222E+03  3.23660E+03  2.43664E+03 -1.45135E+03
  3.82620E+03  5.29877E+02  8.10067E+03  8.44747E+03  2.29787E+03  7.45112E+03 -1.23711E+03  5.84757E+03
 -5.19710E+03 -1.45714E+03 -6.09238E+03  4.75576E+03 -4.71639E+03 -5.03130E+03  3.25912E+03 -4.17385E+03
  3.96884E+03 -2.49112E+02  7.35524E+03  1.51093E+02 -1.65918E+03  1.72619E+03 -1.16827E+03  4.41735E+03
 -8.57257E+03 -2.50419E+03 -1.93866E+03 -5.15693E+01 -1.89297E+03  3.19233E+02 -1.21048E+03  1.57783E+03
 -3.97417E+03  3.81241E+03 -7.89722E+03  5.58247E+03 -6.02841E+03  1.20823E+03 -5.35268E+03 -6.07792E+02
 -4.33549E+03 -6.50066E+03 -5.26227E+03 -1.94626E+03  1.89813E+03 -4.47493E+03  1.31633E+04 -1.88688E+03
  6.73357E+03  2.86627E+03  7.65772E+03  3.50602E+03  2.00810E+03  2.28830E+03 -4.16008E+03  1.75997E+03
 -5.79633E+03 -4.02274E+02 -1.09055E+03 -3.29279E+03 -6.05332E+03  3.70393E+03 -7.04859E+03 -6.96620E+03
 -2.20944E+03  3.01150E+03 -3.27253E+03 -1.49191E+03 -8.94413E+02  1.10736E+03  3.30229E+02 -2.80783E+03
  1.90313E+02 -3.52552E+03  5.33591E+03 -8.41539E+02  4.89113E+03  4.52745E+03 -9.90054E+02 -3.48856E+03
 -1.65554E+03  1.31710E+03 -7.50023E+03  7.31035E+03 -2.43515E+03 -1.27235E+03 -9.96822E+03 -5.61075E+03
  3.02396E+02 -6.00114E+03  6.07605E+03  2.67874E+03  4.02271E+03 -4.83566E+03  2.71885E+03 -1.84577E+03
  6.49008E+03  1.30726E+03 -9.54909E+02 -1.57521E+03  2.84047E+03 -6.44217E+03  8.40402E+02  1.74803E+03
  9.73140E+02 -1.91667E+03 -3.95011E+03 -6.92884E+03 -3.03133E+03  6.24242E+01 -2.62276E+02 -1.10332E+03
 -4.15037E+03  4.01826E+02 -1.00240E+03  3.74105E+03 -3.23661E+03 -2.71140E+03  6.42814E+03 -6.86592E+03
 -7.91361E+00 -1.58740E+03 -3.00533E+02  9.53599E+02  1.47188E+03  1.61863E+03 -1.99760E+02  4.56119E+03
 -4.50583E+03  3.92683E+03  5.13854E+00  1.59964E+03 -1.14981E+03  6.12984E+03 -5.36129E+03 -5.07905E+03
 -5.35472E+02 -1.79693E+03  1.10386E+03  4.87965E+03 -5.39846E+02 -5.12646E+03 -7.87496E+02 -1.73861E+03
 -4.47077E+03  7.98934E+02 -2.45386E+03 -6.08184E+03  2.49956E+03 -4.30556E+03  2.45877E+03 -3.90110E+03
  5.95811E+01  6.67125E+02  3.32538E+03 -6.57100E+03 -1.08285E+03  8.95305E+02 -1.96607E+03 -1.21554E+03
