 $NMID ID='MM_0lb_SNR50_19hz_g50_54.RAW', FMTDAT='(8E13.5)'
 TRAMP=1., VOLUME=1. $END
  3.07536E+05  1.75773E+03  3.35507E+05  2.50213E+05  8.74128E+04  3.36184E+05 -1.33933E+05  2.51934E+05
 -1.90038E+05  8.17310E+04 -1.11605E+05 -3.28777E+04  2.08399E+03 -5.61080E+04  5.10385E+04 -2.21381E+03
  3.59906E+04  5.40076E+04 -1.62923E+04  7.42881E+04 -6.12931E+04  6.34631E+04 -8.37219E+04  3.25792E+04
 -7.70394E+04 -1.35667E+04 -5.54362E+04 -5.05317E+04 -1.48920E+04 -6.69160E+04  2.70270E+04 -4.82405E+04
  3.72838E+04  1.76232E+03  2.03672E+04  4.98874E+04 -3.55719E+04  4.82837E+04 -6.70765E+04  1.42072E+03
 -5.33799E+04 -5.91111E+04 -2.87111E+03 -7.49869E+04  3.33051E+04 -5.45180E+04  4.68091E+04 -1.69862E+04
  4.52416E+04  9.37256E+03  3.53503E+04  2.27562E+04  1.38111E+04  3.19336E+04 -3.84359E+03  2.40008E+04
 -2.16265E+04  1.20292E+04 -2.16400E+04 -4.02162E+03  5.78244E+03 -6.14577E+03  2.11121E+04  1.25210E+04
  7.50852E+03  3.17145E+04 -3.03121E+04  3.78317E+04 -5.74699E+04  6.34945E+03 -5.66411E+04 -4.16078E+04
 -7.62532E+03 -6.44056E+04  3.86282E+04 -4.14466E+04  5.22971E+04 -2.28013E+03  3.20770E+04  2.76977E+04
 -8.71309E+03  3.56237E+04 -2.35618E+04  1.31992E+04 -2.74150E+04 -5.90113E+03 -1.95112E+04 -1.08477E+04
 -8.80212E+03 -1.44467E+04 -7.53199E+03 -1.38539E+04  8.20646E+03 -2.06979E+04  1.34270E+04 -7.92856E+03
  9.62602E+03 -2.67320E+02 -8.26515E+03  1.04186E+04 -1.75869E+04  7.81511E+02 -5.45354E+03 -2.97258E+04
  2.11716E+04 -4.23299E+04  4.31183E+04 -1.78521E+04  4.03508E+04  1.99264E+04  1.07743E+04  3.92402E+04
 -1.44392E+04  3.03142E+04 -2.36164E+04  3.26329E+03 -7.83105E+03 -2.76931E+04  2.12616E+04 -3.13676E+04
  3.99885E+04 -1.06917E+04  3.12818E+04  1.94341E+04  1.76727E+04  4.73886E+04 -1.13885E+04  4.50569E+04
 -2.68647E+04  2.97417E+04 -3.93367E+04  1.04690E+04 -4.08040E+04 -1.44084E+04 -2.09683E+04 -3.39137E+04
  5.34482E+03 -3.08262E+04  2.72180E+04 -1.04921E+04  2.76728E+04  1.38131E+04 -4.60044E+02  1.65138E+04
 -1.31227E+04  9.28587E+03 -6.12296E+03 -4.30002E+03  5.26210E+03 -1.02555E+04  1.71301E+04  2.44805E+03
  1.14314E+04  2.03254E+04 -5.82155E+03  2.42783E+04 -2.23696E+04  1.05481E+04 -2.37988E+04 -5.78676E+03
 -1.66134E+04 -1.38437E+04 -5.66624E+03 -1.89823E+04  2.45730E+03 -1.21329E+04  1.23487E+04 -1.48096E+04
  2.17986E+04 -9.07125E+03  3.14233E+04  3.69383E+03  1.91629E+04  1.54377E+04  1.97613E+03  3.14315E+04
 -1.41649E+04  2.49747E+04 -2.38829E+04  7.95907E+03 -2.14039E+04 -1.19916E+04 -8.37797E+03 -1.17984E+04
  2.96773E+03 -3.64975E+03 -4.45016E+03  5.15535E+03 -1.33580E+04  9.97343E+03 -1.26270E+04  3.42486E+03
 -5.65525E+03 -1.39315E+04  4.20139E+03 -1.66020E+04  1.28751E+04 -1.34246E+04  1.30375E+04 -3.81038E+03
  1.46143E+04  9.09840E+03 -2.58521E+03  1.42356E+04 -9.54105E+03  8.22779E+03 -1.40648E+04 -1.14610E+03
 -9.99897E+03 -1.59000E+04 -9.76969E+02 -2.08817E+04  1.10995E+04 -1.62927E+04  1.28968E+04 -9.30678E+03
  1.65483E+04  6.71718E+02  1.16370E+04  4.64728E+03  2.94873E+03 -6.32709E+02  1.04350E+04 -2.56758E+03
  1.02578E+04  7.36958E+03  1.42926E+04  1.63872E+04  1.01009E+04  2.77258E+04 -5.46466E+03  2.92206E+04
 -1.79337E+04  2.13573E+04 -2.77180E+04  9.75122E+03 -2.35062E+04  9.61231E+02 -2.09366E+04 -1.71531E+04
 -9.56059E+03 -2.29181E+04  7.09257E+03 -2.01178E+04  1.73307E+04 -1.24131E+04  1.34528E+04  3.79613E+03
  5.91832E+03  9.13958E+03 -5.13065E+03  1.00351E+04 -1.11885E+04  1.15874E+03 -1.64790E+04 -8.99234E+03
 -2.03249E+03 -1.11154E+04  4.42075E+03 -1.13009E+04  4.14938E+03 -3.53703E+02  1.66563E+03  7.69907E+03
 -3.54497E+03  2.68075E+03 -3.04888E+03 -4.24685E+03  1.93355E+03 -1.34146E+04  1.11594E+04 -8.64323E+03
  1.15557E+04 -5.95769E+03  1.14193E+04  1.71763E+03  9.80486E+03  1.09197E+04  2.89288E+03  1.11067E+04
  3.89660E+02  1.58453E+04 -1.33675E+04  8.89991E+03 -1.24357E+04 -5.34578E+02 -8.58441E+03 -5.12599E+03
 -3.00106E+03 -7.51741E+02 -2.56932E+03 -2.93039E+03 -5.71005E+03  3.44271E+03 -1.37936E+03  6.61071E+03
 -3.43418E+03  2.26999E+03 -1.12121E+04 -9.02859E+03  5.75152E+02 -1.10914E+04  1.74488E+03 -6.30874E+03
  6.35064E+03 -4.36022E+03  7.33112E+03  4.68137E+03  6.67651E+02  6.18875E+03 -5.84376E+03  3.50163E+03
 -6.48486E+03 -5.75805E+03 -1.48554E+03 -4.59971E+03  1.62063E+03 -8.72165E+03  1.07892E+04 -4.80536E+03
  1.29801E+04  1.74916E+03  1.04915E+04  8.33384E+03  8.35913E+02  9.31674E+03 -3.90070E+03  2.26200E+03
 -4.12784E+03  3.84916E+02 -9.83895E+03  2.65611E+03  1.07151E+03 -3.87031E+02  4.51131E+03  9.42494E+02
  8.36039E+03  3.03423E+03  1.52894E+03  6.31783E+03 -5.22838E+03  1.08790E+04 -1.26094E+04  6.76525E+03
 -4.12910E+03 -1.31311E+03  6.20966E+02 -5.75597E+03  4.68969E+03 -3.44639E+03  1.12022E+03  4.66728E+01
 -1.59297E+03  8.65280E+03 -7.53889E+03  2.97291E+03 -5.38209E+03  3.38170E+03 -1.46980E+03 -4.43813E+03
 -5.16265E+03 -8.40971E+03  3.59351E+03 -6.05199E+03  6.25552E+03 -7.39835E+03  5.02737E+03  1.05904E+03
  4.60553E+03  3.19180E+03  2.63493E+03  6.58305E+03 -4.35420E+03  2.22608E+03 -6.99754E+01  2.17670E+03
 -4.16549E+03 -8.27129E+03  3.50226E+03 -2.90247E+03  2.69551E+03 -5.62271E+03  8.99958E+02  1.51870E+03
  5.37339E+03  4.17957E+03  1.05296E+03  2.26003E+03 -2.87522E+03  1.59697E+03  4.40158E+03 -1.96293E+02
  3.65335E+03  4.91786E+02  6.40107E+03 -6.29397E+02  9.48234E+03  4.33805E+03  4.29563E+03  7.84855E+03
 -2.48489E+03  1.13589E+04 -7.48563E+03  2.28755E+03 -1.22339E+04  1.62435E+03 -7.54031E+03 -3.68403E+03
 -3.55719E+03 -9.01354E+03 -3.34746E+03 -2.34047E+03  4.95170E+03 -3.96331E+03  6.26433E+02  2.35163E+03
 -1.45890E+03 -2.05943E+03  1.37106E+03 -1.68953E+03  4.18279E+02 -1.23067E+03  2.68614E+03 -1.17676E+03
  4.27231E+03  5.05300E+03  6.28930E+03  3.15494E+03 -1.21465E+02  5.75874E+03 -5.52829E+03  1.56042E+03
 -9.97436E+03 -4.25517E+02 -5.70301E+03 -2.39754E+03 -1.11949E+03 -3.35490E+03  8.22297E+02 -7.17732E+03
  4.43789E+03 -1.24617E+03  3.55054E+03 -2.03429E+02  7.02886E+03  8.42222E+03 -7.70162E+02  7.24858E+03
 -2.33041E+03  6.61408E+03 -3.36921E+03  3.52963E+03 -3.18948E+03  3.09095E+03  2.61379E+03 -2.00949E+03
 -2.66180E+03  1.85647E+03 -8.63835E+02  3.43978E+03 -1.72734E+03 -9.95008E+02 -3.48804E+03  1.95747E+03
  4.76397E+02 -2.16724E+03  2.11147E+02 -2.52932E+03  1.30305E+03 -1.04339E+03  2.40347E+03 -2.24951E+02
  3.24265E+03  5.40378E+03  4.92688E+02  4.56359E+03  8.27948E+02  6.58055E+03 -6.48703E+01  1.22956E+03
 -4.05783E+03  2.39459E+03 -5.02431E+03 -5.59200E+03 -4.63334E+03 -6.12014E+03  4.89506E+03  8.79442E+01
  1.75721E+03 -3.97272E+03  1.64401E+03  2.78302E+03  1.05930E+03  4.83079E+03  4.49091E+03 -4.91593E+02
  8.42567E+02  2.81022E+03  3.05935E+03  1.48747E+03  5.81171E+02 -3.37861E+03  1.38918E+03  9.83046E+02
  3.81624E+03  1.07047E+03 -1.31917E+03 -1.21246E+03 -2.61483E+03  4.74229E+03 -4.16469E+03  2.98144E+03
 -3.64306E+03 -2.33727E+03 -3.22501E+02 -2.61619E+03  3.93917E+03 -2.62162E+03  2.61125E+03  2.13203E+03
  3.51539E+03  2.41958E+03  3.86713E+03  2.46736E+03  3.72336E+03  4.88858E+03 -9.07157E+01 -5.88188E+03
 -2.84535E+03 -2.94239E+01  1.18983E+03  1.42601E+03 -1.84248E+03 -3.32567E+03  5.15374E+02  1.88911E+02
  1.65394E+03 -1.62278E+03  4.39419E+03 -7.84770E+02 -2.94581E+03 -1.41564E+03 -2.23750E+02  6.26121E+02
  1.58987E+03 -3.46881E+03 -1.36379E+03  1.12399E+02  2.32287E+03  9.13395E+02 -2.69843E+03  4.31661E+03
 -6.25884E+03  1.57075E+03  7.30768E+02 -9.51059E+01 -3.87316E+02 -1.99640E+03 -8.71747E+01 -5.59122E+03
 -3.74892E+03 -1.66837E+03 -1.47587E+03 -3.13425E+03  3.27867E+03  6.70973E+03  4.55026E+02  2.20021E+03
 -6.94728E+03  1.33023E+02 -2.86647E+03 -4.75126E+03 -2.48987E+03  5.03561E+02  7.30809E+02 -2.52255E+03
 -1.13659E+02  4.92396E+03 -3.69780E+01  4.22649E+03 -6.42843E+01  2.64719E+02  1.09289E+03 -1.98941E+02
 -5.71966E+02  1.06652E+03 -8.87617E+02 -4.72417E+01 -3.21330E+03  2.59868E+02  3.70771E+03  1.65278E+03
  3.90580E+03  2.99593E+02  2.68256E+03  1.51306E+03 -4.51833E+03  5.06961E+02 -1.81262E+03  1.71611E+03
 -1.66382E+03 -1.60798E+03 -3.05820E+03  3.56736E+03  5.51418E+02 -2.07603E+03  1.95814E+03  9.50761E+02
  3.87355E+03  4.40051E+03 -3.13775E+03 -2.63314E+03 -6.21253E+02  4.41314E+03 -1.77628E+03 -4.96545E+01
  2.53796E+03  2.22533E+03 -4.17552E+02 -1.96624E+02 -3.55660E+03  2.05340E+03  3.27059E+03 -1.31329E+03
  3.81575E+03 -1.59259E+03 -4.59093E+02  9.59257E+02  1.59266E+03 -1.57918E+03 -5.39204E+02  2.29169E+03
 -3.57542E+03 -1.28195E+03 -1.01780E+03 -3.16492E+03  6.10700E+03 -1.51714E+03  2.84410E+03 -2.53709E+03
  2.77854E+03 -1.94188E+03  1.79974E+03  2.63234E+03 -1.42838E+03  3.36748E+03  2.23001E+02 -7.26957E+01
 -2.98664E+03  3.17323E+03 -2.30449E+03  1.31013E+03  3.32218E+03  2.59517E+03  1.45920E+03  2.72827E+03
 -2.38721E+03 -6.26723E+02 -1.15216E+02  3.33141E+03  1.08420E+03 -8.75997E+02 -2.76200E+03 -1.98108E+03
 -8.06537E+02  5.46544E+02  1.78067E+03  1.00738E+03 -3.91250E+02  3.62180E+03 -1.10571E+02 -3.78322E+03
 -3.22535E+02  2.66254E+03 -8.08479E+02  5.80812E+03  1.88481E+03 -1.12766E+03 -3.69700E+03  1.68421E+01
  6.38861E+03 -8.21019E+03  1.74591E+03 -1.58750E+03  7.63773E+02 -1.93666E+03 -1.08538E+03 -1.14339E+03
 -1.52362E+02  1.87504E+03  2.17107E+03  1.37109E+03 -5.88879E+03  2.41565E+03 -4.39641E+03 -1.05899E+03
  3.28696E+02 -6.93356E+02 -3.52005E+02  2.14076E+02  2.80469E+03 -1.74111E+03  2.32962E+03  2.84926E+03
  1.35659E+03  3.83918E+03  3.53884E+03  1.82077E+03  2.58322E+03  1.93646E+03  4.92499E+03  1.20647E+03
 -9.64431E+02 -4.53657E+03  1.31263E+03 -1.31136E+03 -2.18363E+03 -2.73765E+03 -3.68480E+03 -4.29229E+02
 -1.06558E+03 -4.72180E+02 -2.62710E+03  3.96419E+03 -3.11710E+02  6.95958E+03 -3.39404E+03 -1.96644E+03
  4.33502E+03  3.07284E+02 -1.62798E+03 -3.97083E+03 -1.89990E+03  5.20137E+02 -5.26231E+03 -2.39795E+02
  3.46961E+03 -2.24690E+03 -1.20953E+03 -2.43135E+03  2.78016E+03 -1.28024E+03 -2.53781E+03  1.18331E+03
 -1.18725E+03  1.09154E+03 -9.48352E+02 -1.38174E+03 -3.62225E+02 -5.21647E+03 -1.13093E+03  2.93990E+03
