 $NMID ID='MM_0lb_SNR50_15hz_g45_92.RAW', FMTDAT='(8E13.5)'
 TRAMP=1., VOLUME=1. $END
  3.13165E+05 -1.04743E+03  3.42619E+05  2.51439E+05  8.01687E+04  3.41187E+05 -1.32210E+05  2.51602E+05
 -1.90863E+05  8.22342E+04 -1.15498E+05 -3.11600E+04 -3.14091E+03 -5.11368E+04  5.47879E+04 -2.20299E+03
  3.31728E+04  5.02695E+04 -1.60841E+04  7.54739E+04 -6.12197E+04  6.25947E+04 -8.29735E+04  3.01988E+04
 -8.33824E+04 -7.86370E+03 -5.26620E+04 -5.04640E+04 -1.63757E+04 -6.67854E+04  3.05798E+04 -4.20659E+04
  3.68093E+04 -2.55231E+03  1.58503E+04  4.74544E+04 -3.62534E+04  4.65306E+04 -6.87230E+04  1.26536E+03
 -5.35295E+04 -5.09210E+04 -1.07849E+04 -7.59873E+04  3.21755E+04 -4.81564E+04  4.54507E+04 -1.71492E+04
  4.29853E+04  9.33472E+03  3.48254E+04  2.12285E+04  1.66717E+04  3.48485E+04 -5.87887E+03  2.43109E+04
 -2.40147E+04  1.17802E+04 -1.66191E+04 -7.70479E+03  2.95760E+03 -1.11791E+04  1.97055E+04  1.19650E+04
  9.39307E+03  3.89833E+04 -2.85210E+04  3.36782E+04 -6.45408E+04  1.87502E+03 -5.53919E+04 -4.63776E+04
 -1.29359E+04 -6.26767E+04  3.78539E+04 -4.09765E+04  6.05158E+04 -1.07742E+03  3.27981E+04  3.48533E+04
 -8.81963E+03  3.08725E+04 -2.57808E+04  1.61948E+04 -2.99371E+04 -1.30498E+03 -1.28212E+04 -1.13696E+04
 -8.53876E+03 -1.39904E+04  9.00840E+02 -1.48413E+04  7.94373E+03 -2.73733E+04  1.47657E+04 -9.24400E+03
  1.11538E+04  5.32052E+03 -1.44118E+04  1.31472E+04 -2.36813E+04 -3.28124E+03 -7.62187E+03 -3.38548E+04
  2.26464E+04 -4.25803E+04  4.85017E+04 -1.75626E+04  4.79993E+04  1.99447E+04  1.50464E+04  4.13780E+04
 -1.42093E+04  2.96215E+04 -2.11977E+04 -3.19433E+02 -1.02498E+04 -2.62225E+04  1.44303E+04 -3.32360E+04
  3.78707E+04 -7.41320E+03  3.17749E+04  2.29623E+04  1.53940E+04  4.91882E+04 -8.09804E+03  5.14039E+04
 -3.34840E+04  3.22753E+04 -3.82309E+04  9.39065E+03 -3.86217E+04 -1.39785E+04 -1.89439E+04 -3.66140E+04
  6.11543E+03 -3.53413E+04  2.97699E+04 -1.42616E+04  2.36603E+04  1.06519E+04  5.98846E+03  2.01851E+04
 -1.48752E+04  5.60628E+03 -6.40009E+03 -1.08608E+04  5.64881E+03 -5.10635E+03  1.63769E+04  1.05494E+04
  1.19158E+04  2.24575E+04 -1.62259E+03  2.40600E+04 -1.53280E+04  5.73705E+03 -2.98513E+04 -1.26802E+04
 -1.59481E+04 -1.80869E+04 -8.42433E+03 -1.83480E+04  6.72116E+03 -1.83967E+04  1.03376E+04 -1.65672E+04
  2.62547E+04 -1.30691E+04  3.00445E+04  2.71476E+03  2.74929E+04  1.74985E+04  3.87506E+03  3.24729E+04
 -1.75366E+04  3.03937E+04 -2.23189E+04  8.86542E+03 -2.37028E+04 -9.59276E+03 -7.14332E+02 -1.34634E+04
  3.57016E+03 -2.09412E+03 -2.93952E+02  3.49457E+03 -1.45745E+04  5.43160E+03 -9.33569E+03 -3.61908E+03
 -8.07361E+03 -1.45246E+04  6.49860E+03 -2.39910E+04  1.78908E+04 -1.46425E+04  1.88551E+04 -5.12984E+02
  8.70812E+03  1.18375E+04 -4.64720E+03  1.79093E+04 -1.27582E+04  1.54606E+04 -1.68005E+04 -2.41511E+03
 -1.21366E+04 -1.64467E+04 -5.56084E+03 -2.24236E+04  6.31140E+03 -1.76807E+04  2.02434E+04 -1.15772E+04
  1.86423E+04  1.70332E+03  5.39805E+03  4.26916E+03  1.81008E+03  1.40607E+03  5.03066E+03 -1.27074E+03
  1.55620E+04  2.30873E+03  1.77198E+04  1.23330E+04  1.90869E+04  2.15154E+04 -3.73580E+03  2.87882E+04
 -2.01158E+04  2.22864E+04 -2.60087E+04  8.79895E+03 -3.29431E+04 -2.16321E+03 -2.28902E+04 -1.78802E+04
 -1.59649E+04 -2.59050E+04  9.35972E+03 -2.08966E+04  1.89981E+04 -6.76377E+03  2.33803E+04  4.97606E+03
  5.96690E+03  1.40041E+04 -9.25211E+03  1.10449E+04 -1.13090E+04  2.34684E+02 -1.29812E+04 -7.78111E+03
  2.23898E+03 -1.68840E+04  1.00629E+04 -9.36068E+03  1.35300E+04 -3.76034E+03  4.70698E+03  3.89943E+03
 -1.20064E+04 -7.76354E+01 -6.45847E+03 -9.03831E+03  2.24472E+03 -2.00322E+04  1.00398E+04 -1.42142E+04
  1.76161E+04 -2.84676E+03  1.97690E+04  2.36401E+02  1.46625E+04  1.25297E+04  8.55373E+03  1.91176E+04
  7.24141E+02  1.78474E+04 -1.16647E+04  1.53823E+04 -1.43865E+04  1.95782E+02 -1.04808E+04 -4.24269E+03
 -6.68190E+03 -1.47882E+03 -1.90891E+03 -6.29548E+02 -4.11933E+02  3.83183E+03 -5.54176E+03  3.81349E+03
 -1.00073E+04  1.52159E+03 -1.00260E+04 -1.15536E+04 -6.45789E+03 -1.84452E+04  2.31467E+03 -9.01132E+03
  1.59802E+04 -4.70034E+03  1.20465E+04  1.62629E+03  2.81816E+03  7.34721E+03  4.95603E+02  9.27596E+01
 -5.10564E+03 -7.38919E+03 -4.73234E+03 -8.42571E+03  5.22926E+03 -6.78911E+03  1.01582E+04 -6.56927E+03
  1.81115E+04 -2.40080E+03  9.14951E+03  4.19231E+03 -2.09627E+03  9.17887E+03 -8.06169E+03  1.02784E+04
 -7.74143E+03  7.42987E+03  6.51237E+02 -4.35642E+03 -4.44888E+02 -6.33380E+03  7.54045E+03 -1.57462E+03
  5.95692E+03  1.48282E+03  2.47625E+03  1.08701E+04 -4.24489E+03  9.17487E+03 -1.04221E+04 -1.74240E+03
 -5.81083E+03 -9.61279E+03  3.55098E+02 -6.03917E+03  5.59910E+03 -2.88927E+03  7.95831E+03 -4.28136E+03
 -4.51048E+02  5.02662E+02 -2.64283E+03  5.27905E+03 -8.43417E+03  4.61893E+03 -1.13473E+04 -1.32772E+03
 -8.91407E+03 -7.13588E+03 -2.10005E+03 -1.24899E+04  1.03806E+04 -7.31980E+03  7.78899E+03  1.11251E+03
  8.19117E+03  7.46505E+03  2.95083E+03  9.23264E+03 -5.95109E+03  6.01380E+03 -4.41247E+03  3.63813E+03
 -7.43453E+03 -5.87725E+03 -4.66954E+03 -6.60305E+03  2.09298E+02 -5.44536E+03  4.80490E+03 -3.75127E+03
  8.49346E+01  3.06772E+03  2.25516E+02  1.34767E+02 -4.93363E+03 -2.14733E+03  2.74861E+02 -4.94851E+03
  6.50917E+03  1.45817E+02  8.81352E+03  5.61987E+02  4.34892E+03  3.71560E+03  3.37404E+03  1.10410E+04
 -3.80343E+03  9.27381E+03 -6.79770E+03  7.92036E+03 -1.35046E+04  1.45538E+03 -8.44800E+03 -6.64807E+03
 -5.79386E+03 -6.81665E+03 -7.47994E+03 -7.90271E+03  4.10063E+03  1.99538E+03  6.20865E+03 -5.07894E+02
 -7.55633E+02 -4.01386E+03 -9.59902E+02 -4.06167E+03  1.16982E+03 -2.14451E+03  6.21567E+03  2.47888E+03
  4.14114E+03 -2.50247E+02 -7.49055E+02  1.04600E+04 -2.09404E+03  6.15554E+03 -3.16010E+03  5.88373E+03
 -9.04005E+03 -3.69055E+02 -2.69034E+03  2.14657E+03  4.65855E+03 -5.14889E+03  4.83322E+03 -6.97120E+03
  5.78240E+03 -4.01183E+03  8.78980E+03  6.18923E+03  6.50398E+03  5.64835E+03 -2.21388E+03  1.14685E+04
 -2.34538E+03  6.86881E+03 -8.67824E+03  4.57181E+03 -1.84971E+03 -3.66419E+02  4.20856E+02 -1.68263E+03
  2.27991E+03  2.06515E+03 -4.41816E+02  1.58340E+03  1.03870E+03 -2.51838E+03  1.37271E+02 -5.49175E+02
 -6.52861E+03 -8.20302E+03  3.63763E+03 -4.23991E+03  5.13434E+03 -5.18218E+03  4.37732E+03 -3.34906E+03
  8.00154E+03  2.92051E+03  2.57786E+03  4.40230E+03  2.23156E+03  3.64589E+03 -8.72942E+03  5.36032E+03
 -3.95340E+03  5.23519E+03 -2.94689E+03 -1.28786E+03 -1.33359E+03 -7.13769E+03  2.35959E+03 -5.98797E+03
  4.25532E+03 -3.44895E+03  3.90160E+02 -3.02110E+03 -1.00424E+04  2.80774E+03 -1.62096E+03 -6.32225E+02
  1.37485E+03  4.31961E+03  3.40239E+03  3.50870E+03 -1.27157E+03  5.34654E+03  3.71657E+03  3.80744E+03
  2.28775E+03  7.64703E+03 -4.83443E+03  7.59564E+03 -7.86597E+03  4.76811E+03 -6.31556E+03 -3.85523E+03
 -6.20224E+03 -1.61047E+03  2.97266E+01 -9.01955E+03  3.74690E+03 -3.39448E+03  4.53092E+03 -1.87666E+03
  2.80399E+03  1.63623E+03  1.81364E+03  4.26047E+03  1.05862E+03  2.66867E+02 -8.30967E+02 -1.31036E+03
 -1.69870E+03 -4.82216E+03 -2.19061E+03 -5.28436E+03  5.22925E+03  8.19773E+02  2.59759E+03 -9.86234E+02
 -2.43770E+02  2.34981E+03 -1.96565E+03  2.20946E+03  1.21441E+03 -2.60458E+03 -8.19915E+02  2.84587E+03
 -2.11059E+03  5.16267E+02  2.68217E+03 -1.69527E+03  5.79853E+03  7.41320E+03 -2.13384E+03  9.29874E+03
 -2.12431E+03  4.71818E+03 -4.18767E+03  4.17075E+03 -5.55656E+03  1.43994E+03  7.31169E+02  4.90352E+02
  6.44823E+02 -4.40906E+03  1.62562E+03 -6.47462E+02 -2.43039E+03 -1.29572E+03  6.57188E+02  2.67524E+03
 -4.00117E+03  7.99387E+02 -7.72798E+02 -1.32941E+03 -1.22580E+03 -2.09646E+03  2.21355E+03 -1.01893E+03
  4.25781E+03 -6.37390E+02  1.07763E+02  3.95716E+02 -1.54790E+02  1.60823E+02  4.99711E+03 -3.86043E+03
 -1.55619E+03  3.74661E+03 -2.40334E+03 -1.83316E+03  3.61481E+03 -2.88262E+03  2.20538E+03 -3.23418E+02
 -2.14104E+03  6.30654E+03  8.31715E+03  3.37187E+03 -4.88576E+03 -4.30927E+02 -2.56223E+02  4.18106E+03
 -2.37134E+03  6.98277E+02 -1.48747E+03 -1.79763E+02 -5.81766E+02 -3.77898E+03  2.59610E+03 -4.37148E+03
  3.39242E+02 -1.89429E+03  4.42028E+03 -1.32773E+03  2.37870E+02  4.24495E+03  3.40351E+03  5.75354E+03
 -9.07148E+02 -1.67449E+02 -9.82769E+03  1.63548E+03 -1.54849E+02 -1.10400E+03  3.91507E+03  2.86837E+03
 -2.37282E+03  2.50283E+03 -4.47715E+03  4.27410E+03 -1.96473E+03  2.85979E+03 -4.00672E+03 -3.56661E+03
 -5.16217E+03 -8.51188E+03  1.20356E+03 -6.63854E+03  3.59833E+03 -3.04156E+03  6.50426E+03  9.63380E+02
  3.57874E+03  1.90548E+03  5.69013E+03  8.97459E+02 -5.91553E+03  2.62248E+03 -3.71523E+03  5.84157E+03
 -9.20505E+02  1.07992E+03  3.05122E+02 -1.49098E+03  1.68849E+03 -7.63673E+02 -1.92311E+03 -3.45437E+03
  1.19114E+02 -3.96548E+03  2.65135E+03  9.51586E+02 -2.41949E+03  5.38708E+02 -3.32983E+03 -9.97631E+02
  3.98827E+03 -4.98406E+03  2.70632E+03  2.18416E+03  2.09730E+03  2.44759E+03 -5.68332E+03  6.39241E+03
 -2.44133E+03  2.51631E+03 -4.40985E+03  1.73781E+03  3.01456E+01 -4.86138E+03 -4.82268E+03 -5.41738E+03
 -2.21379E+03 -6.30683E+03  5.50106E+03 -8.06938E+02  4.66734E+03 -2.41924E+02  4.34424E+03 -2.25244E+02
 -2.09409E+03  4.88907E+02  2.16565E+03  1.38342E+03  2.98993E+03 -7.89254E+02  1.70724E+03  3.20467E+03
  9.67904E+02 -1.78235E+03 -2.86803E+03  2.30468E+03  2.88623E+02 -1.33577E+03 -3.05081E+03  1.18542E+03
  3.98019E+02  9.65298E+02 -4.58086E+03  9.50681E+02  1.48230E+03 -2.01247E+03  5.01497E+02 -2.75526E+03
 -1.02538E+02  2.48013E+03 -1.97523E+03 -6.51443E+03  3.43129E+03 -2.32166E+03  2.24565E+03 -1.62421E+03
  1.80067E+03  6.42464E+02 -2.87203E+03 -7.75647E+02 -1.40673E+03  8.06683E+02 -2.00972E+03 -5.38604E+02
 -7.53669E+02 -3.23746E+03  3.25194E+02  3.18833E+03 -6.33882E+02  5.63625E+03 -4.14960E+03 -2.46305E+03
 -5.81280E+02 -1.82541E+03  1.74042E+03 -7.53912E+02 -1.62536E+03 -1.95917E+03  2.43094E+03  1.99042E+03
  2.09237E+03 -2.11771E+03 -4.35126E+02 -2.19587E+03 -3.08686E+03  3.93151E+03 -5.20232E+03 -2.34919E+03
