 $NMID ID='MM_0lb_SNR50_8hz_g60_31.RAW', FMTDAT='(8E13.5)'
 TRAMP=1., VOLUME=1. $END
  3.08148E+05  3.98765E+03  3.34465E+05  2.56315E+05  8.33260E+04  3.39628E+05 -1.28513E+05  2.52809E+05
 -1.93262E+05  8.38267E+04 -1.14397E+05 -3.17597E+04  1.95542E+02 -5.67503E+04  5.45593E+04  2.14199E+02
  3.79530E+04  6.06998E+04 -2.18682E+04  7.52814E+04 -5.72190E+04  6.49752E+04 -8.79072E+04  3.41838E+04
 -8.52094E+04 -1.80710E+04 -6.04043E+04 -5.04456E+04 -9.95079E+03 -7.50667E+04  3.34449E+04 -4.58323E+04
  5.11088E+04 -7.41632E+02  1.94348E+04  4.72716E+04 -3.26433E+04  5.75203E+04 -7.14527E+04 -4.70838E+03
 -5.30334E+04 -6.01441E+04 -9.86994E+03 -8.23387E+04  2.85187E+04 -5.76292E+04  4.51119E+04 -1.68642E+04
  5.39406E+04  5.39081E+03  3.86567E+04  2.37029E+04  1.76960E+04  2.73720E+04 -8.27975E+03  2.41251E+04
 -2.26824E+04  1.21100E+04 -1.60162E+04 -1.47676E+04  1.75135E+04 -1.52759E+04  2.56416E+04  1.75510E+04
  8.05487E+03  3.32394E+04 -3.29420E+04  3.60385E+04 -6.58620E+04 -2.16828E+02 -5.84453E+04 -4.79515E+04
 -9.62882E+03 -6.83316E+04  4.89087E+04 -5.21885E+04  6.38268E+04 -1.84906E+03  3.38821E+04  3.51900E+04
 -3.88036E+03  4.29689E+04 -3.95292E+04  1.87651E+04 -3.77675E+04  5.33594E+02 -1.99738E+04 -1.13753E+04
 -8.12705E+03 -1.00182E+04  1.64807E+03 -1.96679E+04  7.01091E+03 -2.17837E+04  2.02132E+04 -1.45382E+04
  5.28936E+03  9.57085E+03 -1.09300E+04  9.11941E+03 -2.34472E+04 -9.26864E+03 -1.37008E+04 -4.11981E+04
  2.13071E+04 -4.48873E+04  5.80706E+04 -2.37145E+04  5.45889E+04  2.40371E+04  1.20265E+04  4.61248E+04
 -9.62550E+03  3.38143E+04 -2.97157E+04  4.28947E+03 -1.54487E+04 -2.51322E+04  2.15307E+04 -3.58556E+04
  4.90305E+04 -1.39114E+04  3.97262E+04  2.85592E+04  2.40865E+04  5.61061E+04 -6.89837E+03  6.05507E+04
 -3.61573E+04  3.34202E+04 -5.10370E+04  1.22481E+04 -5.14001E+04 -2.05358E+04 -2.46909E+04 -4.08693E+04
  1.04197E+03 -3.85370E+04  3.51786E+04 -1.64287E+04  2.67953E+04  7.74548E+03 -1.77430E+02  2.90435E+04
 -1.12792E+04  1.47471E+04 -5.67895E+03 -1.67314E+04  4.69288E+03 -1.98213E+04  1.22661E+04  4.23746E+03
  1.66667E+04  2.82996E+04 -1.07847E+04  2.43274E+04 -2.82455E+04  1.66795E+04 -3.27202E+04  6.24767E+03
 -2.84205E+04 -1.42765E+04 -1.47392E+04 -3.18194E+04  1.33033E+03 -2.63026E+04  1.98478E+04 -2.37170E+04
  3.61557E+04 -1.52945E+04  3.89430E+04  6.26359E+03  2.77512E+04  2.17182E+04  6.82109E+03  4.64989E+04
 -2.16102E+04  3.62708E+04 -2.85386E+04  1.41847E+04 -3.01467E+04 -1.53363E+04 -4.84213E+03 -1.45205E+04
  2.94787E+02  7.06449E+02 -1.08636E+04  9.60954E+03 -2.60068E+04  4.42267E+03 -2.21752E+04 -1.35829E+04
 -1.46083E+04 -2.61481E+04  9.12895E+03 -2.59551E+04  2.02223E+04 -2.33963E+04  2.23586E+04 -5.50537E+03
  1.07122E+04  1.84430E+04 -6.81709E+03  2.55819E+04 -2.05451E+04  1.00099E+04 -3.14892E+04 -7.75294E+03
 -1.90888E+04 -2.80938E+04  2.54234E+03 -3.07831E+04  9.87808E+03 -3.12052E+04  2.02381E+04 -1.13558E+04
  2.46026E+04 -2.99835E+03  2.02672E+04  1.46037E+04  8.52468E+03  8.09302E+03  1.13743E+04 -3.08751E+03
  2.20664E+04  4.39016E+03  2.29886E+04  1.58152E+04  1.86255E+04  4.47106E+04 -7.20150E+03  5.27921E+04
 -3.12185E+04  4.01588E+04 -4.11015E+04  1.42694E+04 -4.81454E+04 -7.19376E+03 -3.65370E+04 -2.30891E+04
 -1.55490E+04 -4.94503E+04  1.58377E+04 -3.69143E+04  3.22825E+04 -1.94465E+04  2.74070E+04  9.93063E+03
  9.92639E+03  1.90913E+04 -1.79288E+04  1.86982E+04 -2.08898E+04  2.94879E+03 -1.85741E+04 -1.58289E+04
  4.01309E+03 -2.38537E+04  4.53575E+03 -1.13736E+04  1.16054E+04  5.90987E+03  1.30840E+04  7.76957E+03
 -1.09852E+04  4.36796E+03 -6.21237E+03 -1.10223E+04 -5.42505E+03 -2.49108E+04  1.22445E+04 -2.44911E+04
  2.74495E+04 -1.34630E+04  2.62648E+04  9.05359E+03  2.88238E+04  1.76403E+04  1.38055E+04  3.12534E+04
 -5.61257E+03  3.79600E+04 -1.25059E+04  2.11040E+04 -2.43828E+04  7.87515E+03 -2.06704E+04 -7.72899E+03
 -8.92635E+03 -1.49713E+04  2.11438E+03  5.06290E+03 -1.66581E+03  3.36890E+03 -9.54791E+03  1.01716E+04
 -1.81436E+04  7.82440E+03 -1.46289E+04 -1.44742E+04 -6.29416E+03 -1.52344E+04  8.70101E+03 -1.14886E+04
  1.49156E+04 -8.52726E+03  8.80411E+03  1.01623E+04 -2.32099E+03  9.25892E+03 -4.45787E+03 -1.53556E+03
 -5.28086E+03 -6.39614E+03  3.69589E+02 -1.58656E+04  5.24331E+03 -2.09495E+04  2.49201E+04 -9.76398E+03
  3.19383E+04  5.82788E+03  2.31923E+04  1.63935E+04 -1.17568E+03  2.47219E+04 -4.11080E+03  2.56031E+04
 -1.49328E+04  5.91434E+03 -8.63626E+03  2.85102E+03  4.87507E+03  2.23187E+02  1.00862E+04  2.47786E+03
  7.89933E+03  5.58185E+03  6.28245E+03  1.40622E+04 -8.81024E+03  1.37464E+04 -1.64600E+04  5.97434E+03
 -1.88487E+04 -4.75169E+03 -6.67387E+03 -1.10858E+04  1.12319E+04 -4.05563E+03  6.36220E+03  8.11590E+03
  4.00172E+03  1.48811E+04 -1.18599E+04  1.24788E+04 -1.61093E+04 -3.45193E+03 -1.74500E+04 -6.66000E+03
 -1.35461E+04 -2.09703E+04  6.99335E+03 -1.91342E+04  1.94572E+04 -1.27069E+04  2.13128E+04  6.18033E+03
  1.46012E+04  8.44129E+03 -6.18228E+02  2.10176E+04 -1.13999E+04  4.55444E+03 -1.62300E+04 -3.88522E+03
 -1.49709E+04 -1.66132E+04  3.28514E+03 -1.22274E+04  3.12881E+03 -1.11864E+04  5.89623E+03 -5.86450E+03
  2.32621E+03  2.62820E+03 -6.56572E+03 -2.32951E+03 -8.88124E+03 -8.55870E+03  2.66785E+03 -3.72113E+03
  5.28451E+03 -3.59988E+03  1.20876E+04  5.78239E+03  1.99326E+04  8.25717E+03  1.06864E+04  2.47198E+04
 -6.10614E+03  2.82675E+04 -2.12999E+04  2.45966E+04 -3.19819E+04 -1.99733E+03 -2.77274E+04 -1.36102E+04
 -4.21867E+03 -2.31562E+04 -1.07935E+03 -1.27805E+04  1.03179E+04 -1.31838E+04  1.27194E+04 -3.98546E+03
  8.04295E+03 -1.10736E+04  1.26346E+04 -7.68236E+03  3.26835E+03  3.28382E+03  1.48574E+04 -6.46914E+02
  1.60220E+04  6.94218E+03  4.33933E+03  3.69526E+03  2.86550E+03  2.11192E+04 -1.32854E+04  8.39492E+03
 -1.81882E+04 -3.58549E+03 -1.49056E+04 -6.83934E+03 -6.95023E+03 -1.17152E+04  1.02211E+04 -1.56118E+04
  1.59941E+04 -9.75198E+03  2.27111E+04  4.09615E+03  1.27560E+04  1.50205E+04  5.30843E+03  3.19875E+04
 -6.11885E+03  1.60462E+04 -1.64668E+04  1.52770E+03 -1.00851E+04 -4.68889E+03 -5.21759E+02 -4.74779E+03
 -5.76799E+03  1.45189E+02 -4.74413E+03 -5.98140E+02 -1.22491E+04  3.84127E+03 -5.61652E+03  1.15391E+03
 -9.88737E+03 -8.29404E+03 -1.79621E+03 -1.45546E+04  5.77342E+03 -2.09097E+04  1.60444E+04 -9.27251E+03
  1.77873E+04  1.19868E+04  7.71569E+03  1.22561E+04 -6.45881E+03  1.70304E+04 -9.88038E+03  1.26410E+04
 -1.96149E+04  7.09638E+03 -1.67635E+04 -1.33702E+04 -6.38696E+03 -1.86753E+04  7.50753E+03 -1.04645E+04
  1.65734E+04 -3.68197E+03  8.82499E+03  4.32686E+02  5.51317E+03  9.68419E+02 -1.06210E+03  3.60916E+03
  9.54534E+03  2.90182E+03  5.46402E+03 -8.44510E+03  3.44934E+03  3.87465E+03  6.78469E+03  9.30541E+03
 -1.00978E+04  7.21106E+03 -7.20486E+03  1.20830E+04 -1.90611E+04  6.43535E+03 -1.91584E+04 -6.34628E+03
 -5.91551E+03 -1.99037E+04  1.98056E+02 -1.53399E+04  1.19447E+04 -1.38571E+04  2.14109E+04 -6.58369E+03
  8.03182E+03  1.10673E+04  6.97133E+03  8.44749E+03 -8.34410E+03  4.53592E+03 -8.85208E+03 -4.00338E+03
  2.83773E+03 -1.37900E+04 -5.21438E+03 -6.22057E+03  6.62116E+03 -7.59574E+03  1.54338E+04  3.87348E+03
  9.33406E+03  1.20673E+04 -8.98794E+03  3.12815E+03 -4.91349E+03 -1.35563E+03  3.52563E+03 -1.18094E+03
  1.06667E+04 -1.41029E+03  1.10749E+04  4.40430E+03  6.88823E+03  1.33600E+04  1.65437E+03  1.53212E+04
 -7.84566E+03  1.14926E+04 -4.52553E+03  5.85670E+03  4.30359E+02  7.58099E+02 -6.80080E+03 -2.74025E+03
 -2.47863E+03 -1.04827E+04  3.34467E+03  1.96175E+03  4.55984E+03  5.46458E+03 -3.66797E+03  4.83160E+03
 -5.65543E+03  6.06563E+03 -1.31479E+04 -9.67138E+03 -4.42261E+03 -1.09749E+04  5.49258E+03 -7.75753E+03
  1.16581E+04 -4.99213E+03  5.85936E+03 -1.57616E+03  1.11378E+04 -2.33148E+03  9.99919E+02  9.13566E+03
 -3.38531E+03  5.96217E+03 -4.58146E+03 -3.82242E+03 -3.17853E+03 -2.52501E+03  8.90951E+03  3.45212E+03
  9.67286E+03  6.96733E+03  7.86884E+03  1.20454E+04  6.65962E+03  1.25122E+04 -5.30369E+03  7.79605E+03
 -1.19046E+04  3.78088E+03 -1.03315E+04 -2.45243E+03 -3.13023E+03  1.88656E+02  8.19559E+03 -7.44589E+03
  1.02439E+04 -1.20471E+02  2.02534E+03  8.10260E+03 -3.35276E+03  3.06318E+03 -3.76383E+03  3.11209E+03
 -3.73447E+03  3.74972E+03 -6.10945E+03  1.08681E+03 -5.56982E+03 -5.09674E+02  3.97432E+03  3.37532E+03
 -4.51544E+03  3.99099E+03 -5.37647E+02  6.78604E+02 -9.07743E+03  3.01106E+03 -1.65943E+04 -5.92340E+03
 -1.01508E+04 -1.78072E+04  1.54870E+03 -1.91860E+04  1.45418E+04 -1.42236E+04  2.16963E+04 -2.44297E+03
  1.57462E+04  7.34249E+03  1.48614E+04  1.29527E+04  3.65805E+03  1.81325E+04 -4.65248E+03  7.77938E+03
 -8.34086E+03  1.92331E+02 -5.72151E+03 -9.64169E+02 -7.04521E+03  8.72613E+03  1.31803E+03  4.13755E+03
 -5.06228E+03  1.45281E+03 -1.20886E+02  2.93272E+03 -6.50568E+03 -2.99121E+03  7.90134E+03 -6.12749E+03
  1.43517E+04 -2.71541E+03  2.05159E+03  8.85599E+03 -9.08952E+01  9.24769E+03  9.97566E+03  1.57380E+04
 -1.95642E+03  1.36899E+04 -1.97177E+04  1.17372E+04 -1.66412E+04 -2.43171E+03 -1.60386E+04 -1.11631E+04
 -2.86871E+03 -1.17737E+04  6.55464E+03 -1.57411E+04  9.83529E+03 -6.57548E+03  1.31759E+04  2.51264E+03
  4.39072E+03  7.98010E+03  7.10694E+02 -1.41226E+03 -1.04807E+03  5.46816E+02 -8.77722E+03 -5.19195E+03
 -5.45093E+03 -1.51111E+03  3.00896E+02 -3.91739E+03 -2.19168E+03  9.63634E+03  5.63823E+03  8.62128E+03
  3.49528E+03  5.32564E+03 -3.84458E+03  1.53674E+03 -8.54087E+03 -8.27251E+03 -2.88916E+03 -1.24424E+04
  4.94779E+03 -1.21863E+04  1.83254E+04 -3.07846E+03  8.12331E+03 -5.15950E+03  8.24924E+02  7.17826E+03
 -1.01462E+03  7.66830E+03 -4.05373E+03  6.64547E+03 -1.05144E+04  1.52076E+03 -8.14819E+03 -4.86750E+03
 -7.50231E+03  4.83082E+03  2.45747E+03  1.04278E+04 -4.94126E+03 -3.85035E+03 -5.66687E+03  5.25691E+02
 -3.90861E+03 -8.75890E+03 -1.70452E+02 -1.24572E+04  7.95528E+03 -1.07119E+04  1.12110E+04 -8.62169E+03
  1.21232E+04  4.78295E+02  7.72123E+03  2.52878E+03  6.29706E+02  9.07060E+03 -1.35528E+04  3.34601E+03
