 $NMID ID='MM_0lb_SNR50_18hz_g45_54.RAW', FMTDAT='(8E13.5)'
 TRAMP=1., VOLUME=1. $END
  3.07191E+05  2.16806E+03  3.35916E+05  2.56326E+05  8.47020E+04  3.35910E+05 -1.33608E+05  2.48607E+05
 -1.91871E+05  7.73478E+04 -1.08447E+05 -2.87334E+04 -1.22789E+03 -4.91108E+04  5.04448E+04  1.28147E+03
  3.64692E+04  5.01228E+04 -1.89732E+04  7.60102E+04 -6.22027E+04  6.47752E+04 -8.49029E+04  2.91135E+04
 -7.78556E+04 -7.82766E+03 -5.85527E+04 -5.04198E+04 -1.46185E+04 -6.74125E+04  2.63815E+04 -4.50371E+04
  4.31354E+04  6.60367E+03  1.29853E+04  4.71758E+04 -3.48081E+04  4.49893E+04 -6.28037E+04 -4.33138E+02
 -4.66849E+04 -5.44504E+04 -3.22102E+03 -7.56884E+04  3.31221E+04 -5.29782E+04  4.54985E+04 -1.70204E+04
  4.56740E+04  1.28589E+04  3.05890E+04  2.14476E+04  1.46301E+04  2.77511E+04 -5.94432E+03  2.38365E+04
 -2.09334E+04  1.24789E+04 -1.73029E+04 -4.21901E+03 -2.06414E+03 -1.16484E+04  2.01716E+04  1.18546E+04
  6.67566E+03  3.59529E+04 -2.39328E+04  3.44730E+04 -6.09977E+04  3.88349E+03 -5.58656E+04 -4.22541E+04
 -1.20859E+04 -6.04114E+04  3.97738E+04 -4.47094E+04  5.57210E+04 -2.75789E+02  2.91795E+04  2.76862E+04
 -4.47406E+03  3.09566E+04 -2.30099E+04  1.05741E+04 -3.04244E+04 -7.42010E+03 -1.46756E+04 -1.03993E+04
 -3.59468E+03 -1.13941E+04 -2.07497E+03 -1.54523E+04  8.11790E+03 -2.36406E+04  1.25685E+04 -1.62760E+04
  1.20106E+04  3.19130E+03 -6.41665E+03  1.12367E+04 -1.84597E+04  3.27081E+03 -1.08588E+04 -3.34383E+04
  2.66173E+04 -4.42988E+04  4.49321E+04 -1.88278E+04  4.39521E+04  1.74106E+04  1.68803E+04  4.06083E+04
 -1.96255E+04  3.57305E+04 -2.63216E+04  3.05224E+02 -1.15296E+04 -2.61289E+04  2.32521E+04 -2.93343E+04
  3.69028E+04 -7.56425E+03  3.20475E+04  2.20010E+04  1.73113E+04  4.47044E+04 -9.54102E+03  4.31308E+04
 -2.71544E+04  2.81355E+04 -3.76190E+04  1.07047E+04 -4.17471E+04 -1.27986E+04 -2.22212E+04 -3.22364E+04
  6.48250E+03 -3.59431E+04  2.78270E+04 -1.32777E+04  3.14675E+04  1.28816E+04  1.88657E+03  1.76000E+04
 -1.32757E+04  1.12053E+04 -9.33408E+03 -7.11710E+03  8.84232E+03 -1.06421E+04  1.53795E+04  5.75330E+03
  1.37584E+04  2.48000E+04 -6.18318E+03  3.13691E+04 -2.10769E+04  9.81966E+03 -1.98220E+04 -4.70514E+03
 -1.84327E+04 -1.67153E+04 -3.15343E+03 -2.09408E+04  7.14026E+03 -1.20811E+04  1.81553E+04 -1.53661E+04
  2.22507E+04 -1.49662E+04  3.46397E+04  4.11115E+03  2.26371E+04  1.68094E+04  3.29142E+03  3.09774E+04
 -1.43157E+04  3.03366E+04 -3.17654E+04  8.21083E+03 -1.90295E+04 -1.19356E+04 -2.03529E+03 -1.64696E+04
  5.09091E+03 -6.69758E+03 -3.59367E+03  2.98802E+03 -1.34899E+04  6.13158E+03 -1.41458E+04 -2.58401E+03
 -1.08573E+04 -1.70538E+04  9.64555E+03 -2.34182E+04  1.26793E+04 -1.32235E+04  1.16405E+04  1.87191E+03
  1.18705E+04  1.05582E+04 -4.54023E+03  1.46036E+04 -7.12576E+03  7.38681E+03 -1.47087E+04 -3.28272E+03
 -1.16969E+04 -1.46954E+04  4.88593E+02 -1.70484E+04  1.06948E+04 -1.77621E+04  1.43326E+04 -9.64711E+03
  1.13027E+04 -1.00268E+03  9.49291E+03  5.48903E+03  7.55743E+03 -4.15489E+03  1.08961E+04  1.69316E+03
  1.31138E+04 -2.16574E+03  1.43987E+04  1.52629E+04  1.03088E+04  2.06423E+04 -1.92286E+03  2.96733E+04
 -1.77972E+04  2.10974E+04 -2.41402E+04  9.33395E+03 -2.60285E+04 -2.27045E+03 -2.46031E+04 -1.32898E+04
 -1.02810E+04 -1.74208E+04  1.00070E+04 -1.50673E+04  1.51073E+04 -1.22203E+04  1.82654E+04  2.29093E+03
  7.16206E+03  1.40357E+04 -8.38246E+03  1.61541E+04 -1.33996E+04  4.69610E+02 -8.92464E+03 -5.49069E+03
 -5.56409E+03 -1.34706E+04  5.93554E+03 -1.08277E+04  4.73023E+03 -1.49275E+03 -5.76542E+02  3.86933E+03
 -5.28925E+03  9.15823E+02 -3.61602E+01 -7.94578E+03 -3.14731E+03 -5.97307E+03  7.80378E+03 -6.89574E+03
  1.48306E+04 -6.19993E+03  1.45498E+04  3.97207E+03  9.26683E+03  1.07312E+04  4.09178E+03  1.00795E+04
  4.03492E+02  1.98275E+04 -6.50191E+03  1.05390E+04 -1.23052E+04  5.17599E+03 -6.26573E+03  2.00742E+03
 -7.63465E+03 -3.62173E+03 -1.58966E+03  9.36110E+02 -4.97248E+02  1.68609E+03 -4.00871E+03  3.09391E+03
 -5.09116E+03 -1.24494E+03 -1.10504E+04 -9.00942E+03 -4.98124E+03 -1.08786E+04  4.69677E+03 -7.62297E+03
  8.34013E+03 -8.09001E+03  5.20604E+03  1.71575E+03  7.29379E+01  7.52579E+02  4.37665E+02 -4.22040E+03
 -2.83815E+03 -2.10341E+03 -1.87753E+03 -5.25279E+03  2.59545E+03 -6.01853E+03  1.45339E+04 -2.82913E+03
  1.07475E+04  5.71112E+02  6.39769E+03  4.76790E+03  1.83028E+03  5.89098E+03 -8.54622E+03  6.83149E+03
 -7.16522E+03  2.34316E+03 -4.00193E+03  2.90931E+03 -1.05751E+03 -2.45300E+03  5.14366E+03 -6.67676E+02
  6.17309E+03  8.56935E+03  4.44859E+02  6.89321E+03 -8.59317E+03  8.04580E+03 -7.56615E+03  2.35074E+03
 -5.48510E+03 -6.20963E+02 -1.68917E+03 -5.25986E+03  6.87034E+03 -3.94897E+03  5.70713E+03  5.36489E+03
 -6.15345E+02  8.19212E+03 -8.19592E+03  4.43304E+03 -3.57911E+03 -4.85026E+03 -4.39938E+03  1.32476E+03
 -5.57817E+03 -7.73235E+03 -1.01549E+03 -2.94105E+03  5.56008E+03 -5.73059E+03  8.73662E+03  2.15244E+03
  5.60096E+03  4.59519E+00 -1.42768E+03  6.03838E+03 -4.86756E+03  3.52943E+03 -4.55796E+03 -2.10617E+03
 -4.85831E+03 -8.00282E+02 -3.55200E+03 -4.81261E+03  2.68214E+03 -1.76099E+03  4.71383E+03 -1.01821E+03
  1.89276E+03  1.68508E+03 -7.85350E+02 -9.46054E+02  5.43429E+03  4.99920E+02 -2.65718E+02 -1.23042E+03
  3.03649E+03 -4.84180E+02  9.70673E+03  1.87982E+03  7.48002E+03  4.11080E+03  5.64845E+03  1.10657E+04
 -2.36089E+02  8.13504E+03 -9.83892E+03  6.64198E+03 -7.15252E+03  8.37115E+02 -8.91951E+03  2.40098E+03
 -4.55460E+03 -4.56583E+03  1.04122E+03 -7.48180E+03  3.14820E+01 -3.58860E+03  5.64910E+02 -4.96000E+03
  3.10821E+03  2.39444E+03  3.08303E+03 -1.74871E+03  4.80585E+03 -9.69844E+02  6.38928E+03  2.64856E+03
  3.55043E+03  1.49616E+03 -8.60899E+02 -2.56891E+02 -2.44223E+02  2.62925E+03 -5.47932E+03  5.53060E+03
 -9.00207E+03 -1.70939E+03 -4.37373E+03 -8.41372E+03  9.59327E+02 -2.46761E+03 -1.53838E+03 -1.85071E+03
  1.85158E+03 -4.35828E+03  6.34701E+03 -7.91211E+02  2.58272E+03  3.56320E+03  2.01290E+03  7.86715E+03
 -3.18013E+03  3.73617E+03 -3.17785E+03  3.45863E+03 -1.49655E+03 -1.36557E+03 -4.31101E+03 -2.48856E+03
 -4.82215E+03 -2.65495E+03 -5.17300E+03 -3.42060E+03 -2.59708E+03  7.24231E+02 -2.93097E+03  9.94695E+02
 -2.22915E+03 -3.48922E+03  3.53408E+03 -1.82441E+02  5.73064E+03 -7.43155E+03  2.71894E+03 -2.46389E+03
  5.50288E+03  1.21972E+03  4.55407E+03  1.55567E+03  8.65562E+02  2.34309E+03 -4.47394E+03  1.61196E+03
 -9.88958E+03  1.62134E+03 -2.50149E+03 -1.21921E+03  3.99708E+03 -4.11526E+03  3.40686E+03 -4.42553E+03
  3.73032E+03 -2.11713E+03  2.61375E+03  3.54415E+02  3.64471E+02  3.96521E+03  4.85927E+03 -1.45538E+03
  1.24196E+03  9.77814E+02  6.54243E+01  7.95589E+02 -6.48700E+02  4.75133E+03  8.48286E+02  2.12835E+03
 -1.74006E+03  4.96786E+03 -1.93017E+03  4.40253E+03 -5.17462E+03 -1.68484E+03 -6.12946E+03  1.42737E+03
 -3.44190E+03 -4.02313E+03  2.79842E+03 -5.13056E+03  4.52302E+03 -6.38217E+03  2.19633E+03 -2.05043E+03
  6.42783E+02 -9.75651E+02  1.86912E+03  5.60984E+03 -9.07038E+02  4.67370E+03 -9.65842E+02  2.26157E+03
  2.08192E+03 -2.33010E+03  4.29764E+03 -6.77909E+02  2.36230E+03  2.87406E+03  5.98930E+02  2.25150E+03
  1.43715E+03 -2.35010E+02  5.08744E+03  1.08535E+02 -3.09813E+03 -1.43871E+03  3.37059E+03  3.38642E+03
  3.46821E+03 -7.76017E+01 -8.80636E+00 -3.16879E+03 -1.54149E+03 -1.26805E+03  1.53181E+03  1.86862E+03
 -2.07584E+03 -2.81360E+02 -7.54874E+03  1.85878E+03  1.32747E+01  1.33739E+03 -5.05773E+02 -3.10990E+03
 -9.90628E+02  1.60214E+03  3.81878E+03 -6.69429E+03  1.29558E+03  2.09485E+03  1.90916E+03  2.16390E+03
 -8.58005E+02  1.28783E+03  3.61895E+03 -3.90336E+02 -4.36429E+03 -5.49893E+03  2.05156E+03 -7.24932E+02
  1.90592E+02  2.01486E+03 -6.90006E+02 -2.11392E+03 -8.14969E+02  1.46213E+03  1.09508E+03  1.81950E+03
  7.20617E+02  1.17001E+03  8.71027E+02 -2.32582E+03  4.84168E+03  2.87568E+03 -6.07733E+02 -1.15232E+03
  8.54469E+03  1.61466E+03  3.90831E+03  1.41301E+02  2.90280E+03  3.41321E+03 -1.40963E+03  2.48188E+03
 -3.80728E+03 -2.85393E+02 -1.71467E+03  5.40481E+02 -8.88376E+02 -6.13204E+02  1.97193E+03  6.38514E+02
  2.81430E+03  3.32294E+01  2.52730E+02  1.69214E+03  2.74834E+03  5.01836E+03  4.81042E+03  3.06626E+03
 -3.37334E+03  2.98952E+03  9.20189E+02 -3.38297E+03 -6.74468E+02 -3.40403E+02  2.87139E+02  4.24503E+03
 -2.97126E+03  4.55812E+02 -3.52965E+03 -1.82953E+02 -4.33242E+03  3.14853E+03 -2.61172E+03 -5.17106E+02
 -2.25915E+03  1.18351E+03 -2.35840E+02 -2.75780E+03  9.01274E+02 -1.06643E+04  4.27117E+03 -2.09973E+03
  6.07864E+03 -1.32230E+03  8.28940E+02 -9.14466E+02 -1.66341E+03  2.25028E+03 -2.23794E+03  3.65175E+03
 -4.37257E+03 -2.40574E+03  6.02931E+02  6.64850E+02 -3.88898E+03 -2.67001E+03  1.70637E+03 -9.95699E+02
  9.83851E+02 -2.06685E+03 -5.66279E+02  2.22022E+03 -8.86055E+02 -2.70497E+01  8.85915E+02  8.60368E+02
  1.60585E+03 -4.90687E+03  5.15331E+02 -3.71129E+02  4.77802E+02  4.21174E+03  1.46495E+03  3.75377E+02
 -4.88671E+02  1.34884E+03 -1.05563E+04 -2.63211E+03  6.26009E+01  1.94219E+03 -6.54883E+02  1.20607E+03
 -1.26638E+03 -5.16459E+03  2.71679E+03 -2.23428E+02 -2.84703E+02 -9.10972E+02 -8.04743E+01  1.45203E+03
  6.40532E+02  1.81164E+03  5.06221E+02  2.92600E+03  5.50100E+02 -6.14803E+02 -3.53657E+03  1.75941E+03
  1.08534E+03  9.37679E+02 -5.78410E+02 -2.53134E+03  5.77068E+01  2.73437E+02 -5.71579E+02  2.41503E+03
 -2.07563E+03  7.03245E+02 -1.31605E+03 -2.50217E+03  1.61675E+02 -9.95155E+01 -3.45242E+02  2.35133E+03
  7.39081E+02 -1.40868E+03  3.54273E+03  1.01493E+03  2.34941E+03  4.34886E+02  4.66136E+03  1.69787E+03
  2.60402E+03 -4.31127E+03 -4.22000E+03 -3.82217E+03 -3.95992E+03  1.99937E+02 -1.11807E+03 -2.88931E+02
 -2.15486E+02 -2.16750E+03 -2.76799E+02 -2.85985E+03  1.42475E+03 -9.46489E+02 -9.10564E+02  1.05770E+03
 -3.24240E+03  4.67018E+02  1.44309E+03 -3.07882E+03 -1.98699E+03  4.29083E+02 -1.79464E+02  1.01217E+03
 -2.44400E+03 -1.47094E+03  1.30864E+03  2.66006E+03 -1.75731E+03  3.56828E+03 -2.12755E+03 -2.09198E+02
