 $NMID ID='MM_0lb_SNR50_9hz_g55_30.RAW', FMTDAT='(8E13.5)'
 TRAMP=1., VOLUME=1. $END
  3.11028E+05 -1.16802E+03  3.34126E+05  2.48032E+05  8.13809E+04  3.38677E+05 -1.33433E+05  2.56943E+05
 -1.97975E+05  8.56897E+04 -1.17276E+05 -3.43101E+04  3.27036E+03 -4.92740E+04  5.42659E+04 -2.44351E+03
  3.71161E+04  5.43804E+04 -1.24186E+04  7.63591E+04 -5.65836E+04  6.23307E+04 -8.56695E+04  3.19301E+04
 -8.54060E+04 -1.22084E+04 -6.28342E+04 -4.57177E+04 -1.98540E+04 -6.71814E+04  2.67748E+04 -4.22662E+04
  4.03494E+04  5.94272E+03  1.56338E+04  5.01215E+04 -3.50986E+04  4.74975E+04 -6.59778E+04 -1.53955E+03
 -5.71578E+04 -5.76769E+04 -6.97568E+03 -7.95509E+04  3.51242E+04 -5.83796E+04  4.59584E+04 -1.78958E+04
  4.57648E+04  9.90238E+03  3.56181E+04  2.90584E+04  1.59894E+04  2.86590E+04 -7.18866E+03  3.11869E+04
 -1.83585E+04  1.38561E+04 -2.34261E+04  2.25203E+03  4.58563E+03 -6.85447E+03  2.79381E+04  1.27679E+04
  4.88746E+03  3.57938E+04 -3.41254E+04  3.48943E+04 -6.17410E+04  1.06167E+03 -5.66262E+04 -4.26877E+04
 -1.11132E+04 -6.44913E+04  4.41199E+04 -4.99387E+04  5.75294E+04  3.98129E+03  3.98493E+04  2.93356E+04
 -6.38353E+03  3.47722E+04 -3.36790E+04  1.49940E+04 -3.22138E+04 -2.57733E+03 -2.46623E+04 -1.14256E+04
 -1.52003E+04 -1.77853E+04 -2.42888E+03 -2.34029E+04  8.73235E+03 -2.49695E+04  1.82878E+04 -1.11017E+04
  1.30860E+04  7.00133E+03 -1.12388E+04  1.31539E+04 -1.71516E+04 -1.27519E+04 -7.61859E+03 -3.74761E+04
  2.46336E+04 -4.38139E+04  4.99259E+04 -2.13354E+04  4.93364E+04  2.47081E+04  1.60884E+04  5.17852E+04
 -1.79846E+04  3.30792E+04 -3.00989E+04  7.37750E+03 -1.27718E+04 -3.07713E+04  2.45950E+04 -3.67125E+04
  4.30872E+04 -9.31619E+03  4.14209E+04  2.55041E+04  2.09277E+04  5.40668E+04 -6.24999E+03  5.88136E+04
 -3.50581E+04  4.08363E+04 -4.71383E+04  1.48604E+04 -4.87018E+04 -2.11304E+04 -2.98943E+04 -4.63512E+04
  1.00334E+04 -4.59234E+04  3.84012E+04 -1.08166E+04  3.34948E+04  8.52704E+03  9.14201E+03  2.13454E+04
 -1.56148E+04  1.88048E+04 -1.04808E+04 -2.53639E+03  4.91598E+03 -8.21852E+03  1.60790E+04  6.13398E+03
  1.02939E+04  2.38378E+04 -1.65842E+03  2.41054E+04 -2.17458E+04  1.45700E+04 -3.64552E+04 -9.39431E+02
 -2.26868E+04 -2.68990E+04 -1.06408E+04 -3.10263E+04  7.14441E+03 -2.78492E+04  1.57730E+04 -2.63978E+04
  3.62141E+04 -1.58074E+04  3.93164E+04  5.52246E+03  2.57261E+04  2.34643E+04  1.11657E+04  3.99268E+04
 -2.66693E+04  3.04745E+04 -3.67609E+04  6.67771E+03 -1.94776E+04 -1.94154E+03 -2.58350E+03 -1.10918E+04
  2.21567E+03 -2.60765E+02 -8.67214E+03  6.10678E+03 -2.02213E+04  5.07408E+03 -2.25938E+04 -3.73318E+03
 -6.90807E+03 -2.03449E+04  1.44931E+04 -2.57829E+04  1.36474E+04 -2.08013E+04  2.70175E+04 -1.35683E+03
  1.58420E+04  2.39528E+04  1.82676E+02  2.16937E+04 -1.63150E+04  1.71745E+04 -1.65109E+04 -2.68948E+03
 -1.75316E+04 -2.23862E+04 -6.49423E+02 -2.91017E+04  1.03896E+04 -2.72852E+04  2.63660E+04 -5.77157E+03
  2.28568E+04 -2.35248E+02  1.92790E+04  7.89932E+03  1.20629E+04 -1.10383E+03  1.38642E+04  3.41903E+03
  1.46618E+04  7.25030E+03  3.30197E+04  1.63707E+04  1.13498E+04  3.45412E+04 -2.48342E+03  4.54900E+04
 -3.10724E+04  3.96178E+04 -4.14745E+04  1.61038E+04 -4.63427E+04  1.13742E+03 -3.04996E+04 -2.47269E+04
 -9.67204E+03 -4.58556E+04  5.18456E+03 -3.34837E+04  2.56966E+04 -1.73996E+04  2.95526E+04  5.23398E+03
  1.07573E+04  2.04873E+04 -5.51177E+03  1.35587E+04 -2.68913E+04  3.56544E+03 -1.54923E+04 -1.56074E+04
 -2.05834E+03 -1.22779E+04  9.32390E+03 -1.36987E+04  6.87087E+03  8.03234E+02  2.23070E+03  1.52144E+04
 -1.30370E+04  1.92646E+03 -1.38653E+04 -6.07656E+03 -1.00356E+03 -1.78667E+04  8.34457E+03 -1.65599E+04
  1.93822E+04 -1.38118E+04  3.10886E+04  1.41498E+03  2.40639E+04  1.93233E+04  7.44249E+03  2.87136E+04
 -7.17566E+03  2.94285E+04 -1.85084E+04  1.75727E+04 -2.15582E+04  7.44285E+03 -1.09075E+04 -1.34719E+04
 -1.74031E+02 -9.13391E+03  4.93344E+03  3.30589E+02 -2.82150E+03  3.29567E+03 -5.61983E+03  7.86356E+03
 -1.98543E+04 -1.57695E+03 -1.69081E+04 -2.09479E+04 -9.03250E+03 -2.13438E+04  1.65211E+04 -1.88410E+04
  1.84082E+04 -6.58347E+03  9.08117E+03  4.90356E+03  1.92202E+03  4.69447E+03 -6.77688E+03  2.12481E+03
 -5.67952E+03 -1.48259E+04 -2.83377E+03 -2.01157E+04  1.48466E+04 -1.74975E+04  1.74735E+04 -3.16876E+03
  2.31361E+04  9.93493E+03  1.53004E+04  1.17001E+04  2.73630E+03  2.14281E+04 -1.24047E+04  1.92278E+04
 -1.11143E+04  3.33037E+03 -1.00952E+04 -1.23985E+04 -1.91607E+03 -3.73353E+03  6.62540E+03 -4.53431E+02
  1.10593E+04  1.01913E+04  1.93610E+03  1.18622E+04 -9.79482E+03  1.64136E+04 -1.62628E+04  7.97647E+03
 -1.09041E+04 -1.45339E+04  1.44706E+03 -1.63143E+04  9.56178E+03 -7.75489E+03  1.37099E+04  1.44341E+04
  8.94652E+03  1.16205E+04 -7.72274E+03  1.34561E+04 -2.01647E+04  4.85848E+03 -9.22285E+03 -3.29277E+03
 -8.22154E+03 -1.68502E+04  1.52570E+03 -1.85515E+04  1.58139E+04 -8.16673E+03  1.02880E+04  2.31367E+03
  1.01881E+04  9.21419E+03 -2.79823E+03  1.23873E+04 -6.91113E+03  7.87702E+03 -1.86397E+04  3.49536E+02
 -1.39013E+04 -9.46802E+03 -2.52664E+03 -1.78199E+04  5.70289E+03 -1.21179E+04  9.50763E+03  6.64941E+02
  8.03328E+03 -1.76080E+03 -7.14318E+03 -8.66600E+02 -5.65615E+03  6.77443E+03  3.68697E+03 -1.20126E+04
  1.15232E+04 -4.31306E+03  1.23828E+04 -1.10070E+03  2.12275E+04  1.27177E+04  1.34529E+04  2.31341E+04
 -1.88680E+03  2.47933E+04 -2.06197E+04  1.10799E+04 -3.25935E+04 -4.91089E+03 -2.19115E+04 -1.52396E+04
 -1.36968E+04 -1.97823E+04 -1.50720E+03 -1.66397E+04  6.34154E+03 -4.67562E+03  1.89012E+03 -4.05988E+03
  1.01847E+02 -4.73500E+03  9.39266E+02 -2.60369E+03  9.88788E+03 -3.04742E+02  1.40018E+04  4.98398E+02
  1.47363E+04  1.29119E+04  5.65771E+03  9.17256E+03  8.25104E+01  1.06730E+04 -9.11599E+03  1.97697E+04
 -1.57459E+04 -5.65353E+03 -1.02342E+04 -9.13167E+03  1.19414E+03 -1.78824E+04  8.19487E+03 -1.30002E+04
  1.42861E+04 -8.52401E+03  2.49365E+04 -2.36108E+03  2.36333E+04  1.32442E+04  4.55858E+03  1.65229E+04
 -8.31001E+03  1.18435E+04 -1.05625E+04  9.53759E+03 -8.57992E+03 -1.47558E+03 -8.07449E+03 -2.97182E+03
  1.46114E+03  9.72429E+02 -6.95102E+03  8.35370E+03 -8.58167E+03  8.02751E+03 -6.87051E+03  1.45171E+03
 -7.73321E+03 -9.28510E+03 -4.59127E+03 -2.23572E+04  1.10061E+04 -9.82326E+03  1.57880E+04 -9.17616E+03
  1.33591E+04  1.02893E+04  6.11156E+03  1.19158E+04 -8.53714E+02  1.24570E+04 -7.93957E+03  1.28790E+04
 -1.54579E+04  4.76589E+03 -1.61101E+04 -7.38445E+03 -6.15961E+03 -1.33463E+04  4.83458E+03 -5.71780E+03
  1.83601E+04  2.72080E+03  1.19963E+04  6.26472E+03 -3.15266E+03  3.57466E+03 -5.64423E+03  7.13766E+03
 -2.44404E+03  3.71459E+03  5.87086E+03 -4.97547E+03  4.31312E+03  6.68780E+03  7.68768E+03  7.45180E+03
 -5.32390E+03  1.23409E+04 -1.84427E+04  1.20062E+04 -1.01175E+04  4.36150E+03 -1.51913E+04 -4.91680E+03
 -1.23328E+04 -1.37539E+04  3.01935E+03 -1.72681E+04  1.60588E+04 -7.17407E+03  2.18900E+04 -5.03336E+03
  9.54039E+03  1.14819E+03 -3.50131E+03  1.28879E+04 -5.39234E+03  7.26334E+03 -3.47827E+03 -4.19537E+03
  3.47295E+03 -1.16563E+04  9.07811E+03 -8.56269E+03  5.64780E+03 -6.12674E+03  3.56927E+03 -6.43498E+03
  5.14205E+03  1.08716E+03 -2.02122E+03  3.88837E+03  2.64080E+03 -1.59512E+03  4.25366E+03  2.77821E+03
  4.34525E+03 -2.51694E+03 -2.90662E+02  5.72816E+03  3.96221E+03  1.04329E+04  1.80870E+03  1.39829E+04
 -8.56927E+03  9.74527E+03 -1.52854E+04  2.19470E+03 -1.25460E+04 -1.32426E+04  1.33374E+03 -1.32688E+04
  1.06903E+03 -8.21716E+03  6.64387E+03 -5.90167E+03 -4.65865E+01  2.78303E+03 -1.41152E+04  3.24499E+03
 -4.85730E+03 -1.25900E+03 -4.09279E+03 -4.50138E+03 -1.70530E+03 -5.56187E+03 -1.03240E+03 -1.57203E+04
  1.22400E+04 -5.06652E+03  1.72569E+03  1.33635E+03  8.60669E+03 -2.41377E+03  4.13872E+03  1.00513E+04
 -1.34432E+03  3.29431E+03 -1.69815E+03  1.02502E+03  3.52035E+03 -9.66460E+03  7.06006E+03 -9.46459E+03
  1.27708E+04 -1.64493E+03  1.46725E+04  8.38513E+03  9.49541E+03  1.20144E+04 -7.09681E+03  8.74466E+03
 -8.08033E+03  8.12296E+03 -7.44946E+03 -3.21252E+03 -6.83908E+03 -1.06154E+04  1.70121E+03 -2.60159E+03
  1.12839E+04 -1.88100E+03  1.60512E+03 -2.70239E+03 -4.80498E+02  3.87272E+03 -2.17091E+03  5.44684E+03
 -3.64863E+03  3.03467E+03 -1.02435E+04  6.80875E+03 -3.85619E+03  5.68631E+03  1.66274E+03  1.33128E+03
 -2.96325E+03  6.64466E+03 -3.36711E+03  9.95865E+03 -2.93235E+03  8.36040E+02 -7.59470E+03 -8.17746E+03
 -1.42349E+03 -1.47858E+04  5.66474E+03 -1.25667E+04  7.07506E+03 -8.52640E+03  1.45830E+04 -6.22405E+03
  1.59049E+04  7.64977E+03  7.63905E+03  1.04205E+04 -1.03572E+03  8.39023E+03 -5.04659E+03  3.78286E+03
 -4.90757E+03  4.86426E+03 -5.67212E+03 -2.41230E+03 -6.12994E+03 -1.89594E+03  4.59240E+03 -2.12965E+02
  7.72370E+02  1.85706E+03 -4.40895E+03  8.07143E+02  2.85099E+02 -6.29630E+03  1.84550E+02 -1.91354E+03
  1.08749E+04 -2.40525E+02  1.29744E+04  6.83858E+02  8.80899E+03  3.23675E+03 -8.52852E+02  9.49859E+03
 -7.56916E+03  6.03203E+03 -1.02131E+04  5.02511E+03 -7.59589E+03 -6.31726E+03 -1.20064E+04 -1.07604E+04
  1.68083E+03 -5.90863E+03  4.02027E+03 -6.27938E+03  3.66963E+03 -2.27772E+03  1.11241E+04  5.58665E+03
 -1.34192E+03 -2.57076E+03  4.69540E+03  7.21687E+03 -2.92354E+03 -3.95325E+03 -1.15449E+03 -7.07009E+03
  1.31030E+04 -8.76302E+03  4.51593E+03  1.90803E+03  5.40982E+03  3.70700E+03  3.44922E+02  6.56827E+03
 -5.09018E+03  4.80471E+03 -6.45852E+03  1.54154E+03 -6.84068E+03 -1.07408E+03  3.70658E+03 -8.93665E+03
  3.27522E+03 -4.84066E+03  5.54860E+03 -8.38218E+02  6.00396E+03  3.76002E+03  5.83732E+03  2.63072E+03
  9.33783E+02  9.10178E+03  7.87046E+01  7.31754E+03 -7.45593E+03  7.28282E+03 -4.10532E+00  1.13614E+03
 -3.51367E+03  2.87062E+03 -5.70608E+01  1.09146E+03 -4.06458E+03  3.06039E+03 -6.07972E+03 -8.59241E+03
 -7.03089E+03 -3.59430E+03 -4.79926E+03 -9.97965E+02  6.53128E+03 -1.07140E+04  3.97778E+03 -1.37328E+03
  1.25324E+04  6.63673E+03  2.69439E+03  8.18280E+03  3.36544E+03 -2.77104E+02 -4.37210E+03  6.34332E+03
