 $NMID ID='MM_0lb_SNR50_16hz_g45_24.RAW', FMTDAT='(8E13.5)'
 TRAMP=1., VOLUME=1. $END
  3.08167E+05  3.06679E+03  3.36702E+05  2.48174E+05  8.20113E+04  3.36876E+05 -1.31930E+05  2.52936E+05
 -1.86795E+05  8.43087E+04 -1.13101E+05 -3.23035E+04 -6.19115E+02 -5.11904E+04  5.25692E+04 -3.59041E+03
  3.32827E+04  5.63703E+04 -1.55737E+04  7.12788E+04 -5.75474E+04  6.35485E+04 -8.24757E+04  3.39463E+04
 -8.35427E+04 -1.21039E+04 -5.73448E+04 -5.26788E+04 -1.19444E+04 -6.59266E+04  2.81609E+04 -4.82701E+04
  3.94114E+04  5.83196E+03  1.07420E+04  4.80811E+04 -3.64878E+04  4.77760E+04 -6.75963E+04 -8.07220E+03
 -5.23318E+04 -5.64766E+04 -1.01575E+04 -7.77106E+04  3.44771E+04 -4.89859E+04  4.73195E+04 -1.75542E+04
  4.64616E+04  9.14776E+03  3.79216E+04  2.15515E+04  1.80003E+04  2.95486E+04 -1.13184E+03  2.37718E+04
 -2.31707E+04  1.44348E+04 -1.84280E+04 -4.67063E+03 -1.29906E+03 -5.06321E+03  2.50827E+04  1.06423E+04
  5.01727E+03  3.69152E+04 -3.09417E+04  3.49184E+04 -6.01932E+04  8.33645E+02 -6.10025E+04 -4.45060E+04
 -1.60930E+04 -6.13922E+04  4.08355E+04 -4.60782E+04  5.25619E+04  6.66779E+02  3.71930E+04  2.98167E+04
 -8.00324E+03  3.35488E+04 -2.73288E+04  1.67464E+04 -3.27619E+04 -2.37899E+03 -1.85908E+04 -1.68057E+04
 -3.49735E+03 -1.01498E+04 -2.23173E+03 -1.77454E+04  5.98359E+03 -2.48392E+04  1.78566E+04 -1.49688E+04
  1.05842E+04  2.71916E+03 -3.90658E+03  1.07019E+04 -1.81019E+04 -1.27932E+03 -9.55580E+03 -2.57225E+04
  2.18535E+04 -4.42482E+04  4.35730E+04 -1.78961E+04  4.49108E+04  1.89743E+04  1.53883E+04  4.31998E+04
 -1.22992E+04  3.33356E+04 -2.61926E+04 -3.44084E+02 -1.10079E+04 -2.50989E+04  1.93996E+04 -3.01494E+04
  3.82991E+04 -1.21523E+04  3.02820E+04  2.65770E+04  1.73900E+04  4.54331E+04 -1.12041E+04  5.40085E+04
 -3.05277E+04  3.69887E+04 -3.45621E+04  7.14641E+03 -3.95709E+04 -1.88680E+04 -2.37183E+04 -3.74434E+04
  5.63352E+03 -3.77078E+04  2.83564E+04 -1.26889E+04  2.67472E+04  1.86022E+04  4.42043E+03  1.92343E+04
 -1.47315E+04  1.00671E+04 -1.30554E+04 -8.98568E+03  3.68418E+03 -5.49238E+03  1.97372E+04  9.03048E+03
  1.43051E+04  2.20150E+04 -8.29347E+03  2.77641E+04 -2.07159E+04  7.26239E+03 -2.02105E+04 -8.27976E+03
 -2.17608E+04 -1.91584E+04 -9.12666E+03 -2.09154E+04  7.88476E+03 -1.61710E+04  8.91575E+03 -1.89037E+04
  2.86851E+04 -8.89245E+03  3.21147E+04  2.98391E+02  2.33242E+04  1.54615E+04  8.50738E+03  3.20855E+04
 -1.62601E+04  2.89416E+04 -2.49740E+04  7.08805E+03 -1.80703E+04 -6.61245E+03 -3.75923E+03 -1.19861E+04
  5.16659E+03 -1.58308E+03 -7.28436E+02  7.10767E+03 -1.45027E+04  6.89066E+03 -1.50977E+04 -6.77021E+03
 -9.98142E+03 -1.83587E+04  8.98574E+03 -1.83818E+04  9.09256E+03 -1.92980E+04  1.41046E+04 -6.63028E+02
  9.55270E+03  1.13815E+04 -2.17056E+03  1.44826E+04 -1.40587E+04  1.00439E+04 -2.30588E+04 -6.75174E+03
 -1.63341E+04 -1.87662E+04 -3.07099E+03 -2.49441E+04  8.31298E+03 -1.78143E+04  2.07368E+04 -1.01766E+04
  1.56091E+04  8.44219E+02  9.65987E+03  3.34260E+03  6.09118E+03  2.75408E+03  1.07647E+04 -3.33043E+03
  1.43935E+04  7.82371E+03  1.90189E+04  1.50355E+04  1.35304E+04  2.60280E+04 -2.65136E+03  2.74861E+04
 -1.77424E+04  2.58382E+04 -2.68497E+04  1.11991E+04 -2.75731E+04  3.01948E+03 -2.24729E+04 -1.69693E+04
 -1.20169E+04 -2.19363E+04  5.73687E+03 -2.18493E+04  2.08331E+04 -1.76623E+04  1.93173E+04  7.52187E+03
  6.03051E+03  1.17652E+04 -5.63079E+03  9.51013E+03 -1.74961E+04  3.57001E+03 -1.66501E+04 -3.67634E+03
  9.34228E+02 -1.42933E+04  7.50177E+03 -8.80182E+03  7.73560E+03 -1.69623E+03  7.94815E+02  5.79683E+03
 -1.82020E+03 -7.03056E+02  1.03924E+03 -7.30259E+03 -1.57715E+03 -1.23166E+04  1.43082E+04 -1.38949E+04
  1.58803E+04 -6.40468E+03  1.33945E+04  3.71506E+03  1.32583E+04  1.52091E+04  3.35912E+03  1.72606E+04
 -5.24197E+03  1.70705E+04 -5.83227E+03  1.09358E+04 -1.09336E+04  5.89395E+03 -9.24969E+03 -1.60379E+03
 -4.14929E+03 -6.42779E+03 -2.04283E+02  4.61319E+03 -6.22498E+02  3.37205E+03 -4.91455E+03  2.97966E+03
 -3.36896E+03  3.39511E+03 -1.01548E+04 -8.70320E+03 -1.81166E+03 -1.33340E+04  4.64615E+03 -8.84738E+03
  6.49499E+03 -1.22631E+03  4.11486E+02  1.42738E+03  5.14909E+02  2.26672E+03 -3.71690E+03  1.34115E+03
 -3.39347E+03 -4.89698E+03  2.20973E+03 -5.89925E+03  8.58625E+03 -1.21033E+04  1.26633E+04 -3.08967E+03
  1.67297E+04 -3.08146E+03  1.12339E+04  7.92174E+03 -6.24173E+01  9.96041E+03 -1.31997E+04  9.20109E+03
 -8.41330E+03  5.44553E+03 -6.68599E+03 -2.68229E+03 -2.12376E+02 -3.09607E+03  6.21798E+03 -4.09497E+02
  3.65936E+03  4.38090E+03  1.00952E+03  5.89664E+03 -4.35544E+03  9.10680E+03 -8.17025E+03  5.25614E+03
 -5.79870E+03 -3.31402E+02  1.13006E+03 -4.31431E+03  6.10572E+03 -5.22538E+03  4.79792E+03  1.38883E+03
  1.12499E+02  5.70374E+03 -3.29113E+03  6.27934E+03 -9.08798E+03  1.19383E+03 -2.88603E+03 -5.65590E+03
 -2.04679E+03 -6.21874E+03  9.17401E+02 -1.00304E+04  1.36782E+04 -3.59381E+03  9.98131E+03  2.35540E+03
  6.11854E+03  9.80312E+03 -3.31562E+03  7.48459E+03 -3.04497E+03  6.44861E+03 -1.23862E+04 -1.06297E+03
 -5.45492E+03 -5.70847E+03 -4.86993E+02 -9.46834E+03  5.33310E+03 -1.17855E+04  3.86729E+03 -2.86845E+03
 -8.36005E+02  3.53450E+03 -1.88163E+02 -4.94463E+02  1.44650E+03  1.92407E+03 -2.62020E+03 -4.80541E+03
  4.71253E+03 -1.26886E+03  8.92486E+03  2.91873E+02  6.50626E+03  3.61363E+03  9.10386E+03  8.60530E+03
 -1.33173E+03  9.69977E+03 -1.14262E+04  8.38998E+03 -1.05937E+04 -4.72570E+02 -8.39000E+03 -7.09437E+03
 -4.58211E+03 -1.01699E+04  2.31592E+03 -9.97231E+03  1.03344E+04 -3.05998E+03  8.25888E+02 -4.11018E+03
  3.62531E+03 -6.31470E+03  1.10434E+03 -4.01259E+03  5.02358E+03 -1.35465E+03  7.28559E+03  2.85201E+03
  4.85177E+03  1.70453E+03  3.77071E+03  7.84005E+03 -2.22294E+03  7.00276E+03 -6.65076E+03  8.34506E+02
 -3.15091E+03 -2.07995E+03  5.77890E+02 -7.05650E+03  2.75501E+03 -5.43332E+03  2.96290E+03 -1.50894E+03
  1.18455E+04 -2.23216E+03  1.35304E+04 -2.75563E+02  5.61108E+03  9.79169E+03 -1.96852E+03  7.91762E+03
 -2.85500E+03  1.05355E+04 -3.88477E+03  3.83769E+03 -1.50923E+03 -2.71830E+03 -6.16507E+03  3.08913E+01
 -1.33995E+03  5.87961E+03 -1.76842E+03 -3.18318E+03 -6.07586E+03  1.03137E+02 -1.51559E+03 -2.22610E+03
 -9.29924E+02 -8.93156E+03  1.36380E+03 -4.04384E+03  3.60492E+03 -4.49075E+03  8.78084E+03 -4.10845E+03
  2.99258E+03  2.08251E+03  1.89711E+03 -3.80523E+03 -4.26850E+03  6.47661E+03 -5.14899E+03  1.79876E+02
 -6.26926E+03 -8.73156E+01 -4.06103E+03 -6.51276E+03 -2.28351E+03 -4.85984E+03  4.14972E+02 -7.22843E+03
  1.46613E+03 -1.96686E+03  5.39458E+03 -9.62717E+02  1.46294E+03  4.87810E+03  3.70755E+03  3.73570E+03
  3.21751E+03 -2.05093E+03  5.47870E+03  4.11389E+03  4.82886E+03  7.90580E+03  2.15637E+03  3.34631E+03
 -6.69499E+03  3.65360E+03 -1.10890E+03  4.01395E+03 -5.02583E+03 -1.66058E+03 -9.17905E+03  3.95340E+03
 -2.44794E+03 -6.88653E+03  2.29011E+03 -7.66816E+03  4.33884E+03 -3.84588E+01  4.79755E+03  1.05780E+02
  2.14679E+03 -1.39764E+03 -9.78591E+02  4.30029E+03  2.95067E+03  2.09195E+02  1.85297E+03 -8.52288E+02
  1.02980E+03 -5.66309E+03 -1.62752E+03  3.41394E+02  6.10592E+01 -2.11138E+03  1.04215E+03  1.51765E+03
 -4.23832E+03 -2.17927E+03 -2.45327E+02  1.05166E+02 -1.28019E+03  1.83994E+03 -3.05502E+02 -1.48463E+03
 -7.69365E+02 -1.12930E+03  1.83913E+03  2.87747E+03 -1.44719E+03  9.13200E+02  3.87933E+03  7.89244E+03
 -4.46474E+03  9.85586E-02 -3.09069E+03  1.66039E+03 -6.48987E+03  2.10270E+02 -1.19086E+02 -3.67322E+03
  7.46323E+02 -3.99634E+03  4.48067E+02  1.11648E+02  1.50394E+03  9.91736E+03  3.86075E+03 -1.45068E+03
 -8.16272E+02 -3.32065E+03  5.51164E+02 -2.81286E+03 -4.96747E+03 -8.48634E+02 -4.31259E+02 -6.27016E+03
 -2.24703E+02 -1.58543E+03  3.06791E+03  4.30339E+03  2.62514E+03 -2.82721E+03  1.85610E+03  1.12440E+03
 -1.67415E+03 -2.10861E+03  9.61483E+02 -1.56153E+03  2.61884E+03  3.75684E+02  4.08440E+03 -2.74588E+03
  4.77176E+03 -4.79046E+03  8.30328E+03  4.60976E+03 -8.48828E+02  4.03195E+03 -3.30034E+03  6.96762E+03
 -1.98116E+03  8.55547E+02  5.53419E+02 -3.24232E+03  1.36215E+03  1.04263E+03  3.13964E+02 -1.66321E+03
  1.41368E+03 -4.41527E+02 -4.03900E+02  3.27510E+02 -3.02766E+01 -7.02665E+02  2.80207E+03 -6.80887E+02
  1.79618E+03 -1.10962E+03  2.82276E+03 -3.45624E+03  3.60453E+03 -1.22847E+03 -3.76894E+03 -1.50487E+02
 -7.16074E+02  1.49077E+02  2.34908E+03  3.26311E+03  8.78262E+02  9.43347E+02 -3.78905E+03 -1.69811E+03
 -5.59168E+03 -3.79895E+03 -1.80102E+03 -5.15498E+03  1.45591E+03 -2.78499E+03  5.50766E+03  7.95223E+02
  9.81588E+02 -3.88645E+03  2.18591E+02 -6.71631E+02  6.06884E+02  4.42302E+03 -1.06343E+03  5.44021E+03
 -2.53160E+03  1.37003E+03 -5.46731E+03 -3.13937E+03  4.00773E+02 -2.01895E+03 -8.63018E+03 -1.91848E+03
 -1.60297E+03  1.07147E+03 -1.26406E+02 -2.01479E+03 -8.33949E+02 -2.37142E+03  1.36909E+03 -1.64254E+03
  2.60531E+03 -4.25598E+03  3.95207E+03 -1.63330E+03 -9.82921E+02  5.40043E+03 -4.21570E+03  7.28183E+03
 -2.81026E+03  5.83441E+03 -1.65229E+03  6.71350E+02 -1.18244E+03  6.12007E+03 -3.72409E+03 -4.50716E+03
 -1.59930E+03 -2.50064E+03 -4.92033E+03 -2.71791E+03  6.47467E+03 -4.28513E+03 -3.36231E+02  2.47847E+03
  2.43250E+03  1.39424E+03  6.49249E+02  1.29436E+03  5.63909E+02  3.12353E+03 -2.47182E+03 -1.68442E+03
  2.30083E+01  3.41045E+03  5.19268E+03 -9.34155E+02 -3.01584E+03 -7.65991E+02  1.48678E+03  1.09212E+03
 -4.63038E+03  3.58876E+03 -2.67162E+03  1.86109E+02 -4.75348E+03  2.91133E+03  1.70785E+03 -1.63775E+03
  5.71026E+03  1.24553E+03 -3.13521E+01 -1.27710E+02 -4.22084E+03 -2.30317E+03 -1.54254E+03  1.24116E+02
  5.90450E+02 -6.49301E+02 -3.78376E+03  2.84412E+03 -2.54172E+03 -8.24821E+02 -4.38863E+03  2.03274E+03
  2.62255E+03 -1.48400E+03 -1.13974E+03 -1.60886E+02 -3.68315E+03 -8.79182E+02 -3.93761E+03 -1.06138E+03
 -1.36043E+03 -2.06038E+03 -3.97639E+03 -2.77513E+03 -1.08196E+03 -1.28132E+03 -1.55942E+02  9.51274E+01
  3.32826E+02  3.15206E+03  3.70056E+03  7.72468E+02 -2.09224E+03 -3.85219E+01 -1.68433E+03  7.82585E+03
