 $NMID ID='MM_0lb_SNR50_20hz_g60_95.RAW', FMTDAT='(8E13.5)'
 TRAMP=1., VOLUME=1. $END
  3.08841E+05 -1.60436E+03  3.35912E+05  2.50822E+05  8.72068E+04  3.32235E+05 -1.32606E+05  2.56075E+05
 -1.89684E+05  8.00247E+04 -1.08495E+05 -3.46148E+04 -1.66174E+03 -5.08271E+04  5.39596E+04 -9.46929E+02
  3.58830E+04  4.88819E+04 -1.76398E+04  7.74979E+04 -6.10368E+04  6.48304E+04 -8.14895E+04  2.70321E+04
 -7.96667E+04 -1.13565E+04 -5.82488E+04 -5.05675E+04 -1.78888E+04 -6.88138E+04  2.65300E+04 -4.57902E+04
  4.11642E+04  4.61683E+03  1.56388E+04  5.26322E+04 -3.41987E+04  4.33444E+04 -6.89265E+04  7.79270E+02
 -4.90135E+04 -5.39957E+04 -7.32234E+03 -7.91007E+04  3.24964E+04 -5.52544E+04  4.27100E+04 -1.84105E+04
  4.47114E+04  1.16578E+04  2.93482E+04  2.37593E+04  1.37992E+04  3.17527E+04 -3.55445E+03  2.93501E+04
 -2.72832E+04  1.36101E+04 -1.87779E+04 -2.08833E+03  6.76321E+03 -9.62807E+03  2.21193E+04  1.68179E+04
  5.20925E+03  2.87485E+04 -3.37975E+04  3.60947E+04 -6.24478E+04  2.50157E+03 -5.92604E+04 -4.01853E+04
 -1.91615E+04 -5.91534E+04  3.91453E+04 -4.09572E+04  5.90090E+04 -2.23874E+03  3.11713E+04  2.93602E+04
 -4.81043E+03  3.04245E+04 -3.20396E+04  1.12708E+04 -2.76734E+04 -5.68888E+03 -1.76559E+04 -1.24323E+04
 -5.68851E+03 -1.63413E+04 -5.34452E+02 -1.49148E+04  7.34836E+03 -2.38852E+04  1.95989E+04 -1.30448E+04
  1.25743E+04  4.62894E+03 -4.26825E+03  1.24405E+04 -1.37594E+04 -4.16526E+03 -8.08866E+03 -3.35285E+04
  2.17781E+04 -3.80709E+04  4.36849E+04 -2.05609E+04  4.30696E+04  1.94646E+04  1.51625E+04  4.30628E+04
 -1.47347E+04  3.03778E+04 -2.15930E+04  7.71172E+03 -9.09114E+03 -2.21290E+04  1.77628E+04 -3.49698E+04
  3.62304E+04 -6.32671E+03  3.56768E+04  2.31266E+04  1.72250E+04  4.84149E+04 -7.04727E+03  5.03362E+04
 -3.10152E+04  3.03385E+04 -4.37026E+04  8.03003E+03 -3.80807E+04 -1.80137E+04 -2.60435E+04 -3.47511E+04
  8.13365E+03 -3.36578E+04  3.22425E+04 -1.42040E+04  2.62454E+04  1.55643E+04 -2.80658E+02  1.94267E+04
 -1.16277E+04  6.57527E+03 -1.15452E+04 -9.83751E+03  3.09633E+03 -1.37637E+04  2.11639E+04  7.71061E+03
  8.66763E+03  1.90477E+04 -8.06750E+03  2.25934E+04 -2.22347E+04  5.38349E+03 -2.67192E+04 -7.01236E+03
 -1.83246E+04 -1.73019E+04 -1.68170E+03 -1.87976E+04  3.78934E+03 -1.85307E+04  1.61265E+04 -1.58325E+04
  1.89838E+04 -1.55507E+04  3.16792E+04 -1.87911E+03  2.00325E+04  1.76422E+04  5.66464E+03  3.33917E+04
 -1.58414E+04  3.15550E+04 -2.57339E+04  9.55336E+03 -1.93372E+04 -9.86016E+03 -2.75672E+03 -1.57869E+04
  6.26115E+03 -2.48854E+03 -6.84976E+03  6.57381E+03 -1.21083E+04  5.21626E+03 -1.04069E+04 -5.88011E+03
 -1.21396E+04 -1.59166E+04  5.19796E+03 -1.93269E+04  1.06198E+04 -1.73407E+04  1.33887E+04  7.24794E+02
  1.12178E+04  1.14814E+04 -3.79489E+03  1.54439E+04 -1.37654E+04  5.81242E+03 -1.93695E+04 -6.15072E+03
 -1.52240E+04 -1.76100E+04  1.43152E+03 -2.77055E+04  9.52250E+03 -1.55888E+04  2.10290E+04 -2.72052E+03
  1.59678E+04  4.93365E+02  1.10443E+04  3.76398E+03  6.93955E+03 -3.34872E+03  1.33864E+04  1.89027E+03
  1.71912E+04  5.00189E+03  1.08161E+04  1.34180E+04  9.68010E+03  2.28067E+04 -1.75508E+03  3.37818E+04
 -1.51779E+04  2.22118E+04 -2.97037E+04  8.88689E+03 -2.36276E+04 -2.13137E+03 -1.93395E+04 -1.42430E+04
 -9.26756E+03 -1.88127E+04  8.33651E+03 -2.00878E+04  1.72679E+04 -1.12136E+04  1.63430E+04  2.50637E+03
  5.34198E+03  1.37028E+04 -1.08452E+04  1.07828E+04 -1.12152E+04 -2.07311E+03 -1.34762E+04 -6.40805E+03
 -7.19421E+03 -9.46927E+03  5.69009E+03 -1.03519E+04  6.72223E+03 -2.97848E+03  1.52492E+02  9.79229E+02
 -7.02254E+03  9.71996E+02 -1.11303E+03 -1.33958E+03  4.30761E+03 -6.89882E+03  7.17449E+03 -9.14155E+03
  1.35388E+04 -2.99431E+03  9.33182E+03  3.05772E+03  1.08656E+04  1.17975E+04  3.18826E+03  1.32615E+04
 -2.25920E+03  1.12474E+04 -7.99731E+03  8.36113E+03 -1.04705E+04  2.98665E+03 -1.12327E+04 -1.37254E+03
 -3.77325E+03 -4.56409E+03  1.65870E+03  3.04339E+03 -3.81873E+03  2.21045E+03 -5.50334E+03  3.51249E+03
 -6.66814E+03 -2.05166E+03 -8.12174E+03 -7.54852E+03 -2.26950E+03 -9.75648E+03  2.34664E+03 -9.14117E+03
  7.07474E+03 -1.26263E+03  1.63518E+03  2.20919E+03  2.83699E+03  5.03430E+03 -3.03054E+02  2.89052E+03
 -1.34687E+03 -4.89550E+03 -5.37048E+02 -3.06756E+03  3.30492E+03 -4.92970E+03  1.08432E+04 -5.35399E+03
  1.25782E+04 -1.97616E+03  1.42773E+04  7.37454E+03  1.20275E+03  6.62798E+03 -5.72725E+03  1.09131E+04
 -7.89922E+03  1.01617E+03 -3.84102E+03 -2.70030E+03  2.11033E+03 -2.05319E+03  3.85034E+03  3.76175E+02
  5.73860E+03  2.95591E+03  5.93626E+03  6.14540E+03 -1.86908E+03  8.85187E+03 -5.24208E+03  1.45134E+03
 -5.00666E+03 -2.71413E+03  8.42442E+02 -5.99109E+03  6.03998E+03  1.58517E+00 -1.23334E+02  6.52270E+02
  4.05977E+03  3.49775E+03 -4.95376E+03  6.47855E+03 -3.38671E+03  3.85236E+03 -6.00346E+03 -2.50090E+03
 -3.48244E+03 -7.73058E+03  2.27474E+03 -5.03565E+03  9.45156E+03 -2.16061E+03  6.85070E+03  7.33771E+02
  2.85384E+03  4.34058E+03 -1.47212E+03  6.29481E+03 -8.17786E+03  1.00073E+03 -7.23824E+03 -2.77866E+02
 -9.50281E+03 -4.02039E+03 -3.60863E+03 -4.82174E+03  4.49664E+03 -7.50287E+03 -6.79951E+02  1.46887E+03
  3.54199E+03  5.74780E+02  1.58673E+03  4.14465E+03 -3.04816E+02  7.89994E+02  2.45115E+02 -7.29856E+02
  3.03586E+03  7.42549E+01  3.73148E+03  5.65868E+03  2.52960E+03  7.10656E+03  3.42701E+03  4.27911E+03
 -1.99308E+03  1.02701E+04 -9.35445E+03  4.11580E+03 -1.12610E+04  3.42352E+03 -8.90646E+03 -2.07836E+03
 -1.89544E+03 -5.21280E+03 -8.76499E+02 -3.22282E+03  1.14172E+03 -4.59810E+03  2.33229E+03 -6.71795E+01
 -5.93325E+02 -3.23514E+03  3.15701E+03  9.31036E+02  6.30341E+03 -4.47654E+03  2.57618E+03 -5.12013E+02
  4.92251E+03  4.36669E+03  3.23713E+03  4.65790E+03  9.29806E+02  4.29275E+03 -4.79567E+03  2.62411E+03
 -3.96808E+03 -2.78704E+03 -2.00455E+03 -6.55890E+02 -6.23453E+02 -9.40492E+03  2.63773E+03 -6.67580E+03
  5.23739E+03 -3.72748E+03  6.40468E+03 -1.91199E+03  3.24809E+03  2.31259E+03 -4.87965E+02  6.65790E+03
  1.32570E+02  6.91618E+03 -5.62983E+03 -1.83595E+03 -1.47693E+03  4.01207E+03 -2.51178E+02  2.63099E+03
 -6.76248E+02  3.13894E+03  3.31595E+02  5.57594E+03 -2.55401E+03  2.86712E+02 -5.64640E+03  9.43805E+02
 -2.63309E+03 -5.00115E+03  2.06002E+03 -3.23708E+03  7.02611E+03 -5.56662E+03  3.20243E+03  5.45902E+00
  8.46208E+02  7.29950E+03  9.02744E+02 -1.26316E+02 -1.74105E+03  5.52878E+03 -1.44131E+03  6.45924E+02
 -5.60387E+03  1.97375E+03 -2.18562E+03 -6.44744E+02 -2.66767E+03  1.85133E+03 -1.64138E+03 -6.47157E+02
  1.60474E+03  5.77930E+02  3.06559E+03  2.27352E+03 -3.53719E+02  4.90917E+03  1.63385E+03  1.06909E+03
  2.43119E+03  5.15649E+03  1.54607E+03 -2.00563E+03 -2.43588E+03  4.21253E+03 -2.57592E+03 -4.49308E+02
  1.62794E+03  3.16529E+03 -1.30141E+03  4.20656E+03 -3.97571E+03  5.14760E+03 -3.01395E+03  1.62353E+03
 -1.47391E+03 -5.57628E+03  1.17486E+03 -1.98983E+03  5.91526E+03 -3.74310E+03  3.51655E+03  1.65690E+02
  1.33853E+03  2.14726E+02 -3.73433E+03 -1.19693E+03  3.78921E+02 -1.03513E+03 -1.94324E+03 -4.49272E+02
 -1.82641E+03 -1.74553E+03 -1.38980E+03 -4.16985E+03  7.47883E+02  1.75124E+02  2.08793E+03  9.51960E+02
  1.30498E+03  1.38207E+03  4.96079E+03 -2.64508E+02 -2.17234E+03  2.74414E+03 -2.85540E+03 -9.48965E+01
 -4.21349E+02  4.88373E+02 -5.47440E+01  2.74219E+03  2.88380E+03  5.23127E+03 -1.24675E+03  5.93094E+03
 -9.61628E+02  1.05978E+03  1.08959E+03 -2.30135E+03  2.62025E+03  7.36951E+02 -1.45895E+02  2.52940E+03
 -1.27463E+02 -1.62257E+03  3.97587E+03 -1.66273E+03  2.50136E+02  6.48841E+03  1.11974E+03  2.29553E+03
 -2.12602E+03  1.96745E+03 -1.59282E+03  2.73982E+03 -1.43876E+03 -3.02173E+03 -3.91329E+02  1.21384E+03
 -4.36928E+03  5.21129E+02  2.98565E+03 -6.44305E+02  3.35965E+03 -1.66647E+03 -1.75412E+03 -1.04208E+03
 -4.72599E+03  1.81550E+03  2.71312E+03  1.47981E+03 -4.37855E+02 -3.48491E+03  3.40107E+03 -4.05084E+03
  1.47188E+03  1.71458E+03  2.80930E+03  7.05617E+02  3.65913E+03  6.45085E+02  2.44396E+03  6.37943E+03
 -1.48036E+03 -2.55776E+03  1.63508E+03 -1.83528E+03  1.67473E+02 -3.61252E+03 -3.22809E+03 -4.28145E+03
  1.05994E+03 -2.76222E+03  2.17625E+03 -5.40837E+02  2.08370E+03 -1.29985E+03 -1.89650E+03  5.43068E+02
 -8.51995E+03  4.10225E+01  1.44205E+03  2.01465E+03 -1.86291E+03  5.53038E+03  3.01404E+02  3.90551E+03
 -1.51192E+03 -9.61965E+02  1.81403E+03 -2.92477E+03  2.04249E+03  5.67683E+02  2.68083E+03  3.08684E+03
  4.41102E+02 -2.86640E+03  3.13236E+03 -2.86221E+03  1.07069E+03 -1.10652E+03  1.90425E+03 -4.64725E+03
  6.11741E+03 -8.89057E+02 -3.64972E+03  4.42215E+02  3.49067E+03 -1.55188E+03  2.63978E+03  3.71727E+03
  7.71063E+02  2.03139E+03  2.23913E+03  2.88803E+02 -1.11849E+03  4.94071E+02 -6.38743E+03 -1.89805E+03
 -4.24210E+02  3.73621E+03  1.83080E+03  1.24302E+03  1.39286E+03  1.12488E+03  2.27105E+03 -1.50108E+03
  3.39864E+03  1.38876E+03  3.45938E+03 -1.67186E+03 -3.97951E+01  4.31855E+03  2.62127E+03  3.96805E+03
 -2.35931E+02  1.86227E+03 -2.73281E+03 -5.39904E+02 -6.35211E+02  2.03116E+03 -1.02421E+03 -4.84652E+03
 -8.86728E+02  1.59952E+03  5.36672E+03  2.19659E+03  1.81461E+03 -2.38943E+03 -1.60280E+03  2.68636E+03
 -1.22285E+03 -4.35124E+03  1.85029E+03  4.89277E+02  4.30799E+03 -7.51147E+01  4.70895E+02  3.54685E+03
 -9.15186E+02  1.76674E+03  3.38007E+03  8.23758E+02  4.41647E+03 -5.15823E+03 -9.64780E+02 -7.84964E+02
 -1.95241E+02  1.85280E+03  1.90647E+03 -3.47783E+03  1.78474E+03  1.35426E+03 -1.91219E+03 -2.35753E+03
  2.52031E+02  1.43827E+03  2.95336E+03  7.47685E+02 -1.36722E+03 -4.81671E+03 -9.98001E+02 -1.60017E+03
  3.58332E+03  6.93365E+02 -1.92816E+03  2.29651E+03  4.38542E+03 -7.31681E+02  4.02313E+03 -1.04157E+03
 -5.66447E+02 -2.07057E+03 -3.12346E+03 -2.60382E+03 -2.80541E+03 -2.49926E+03 -2.21966E+03 -2.67301E+03
 -1.25350E+03 -4.98973E+02 -1.11507E+03 -7.87280E+02  1.76233E+03 -4.75056E+03  5.54494E+03  2.68412E+03
 -4.34476E+03  3.25991E+03  2.98827E+03  4.26182E+02 -1.88425E+02 -1.85043E+03  3.41142E+03  1.97522E+03
