 $NMID ID='MM_0lb_SNR50_14hz_g45_34.RAW', FMTDAT='(8E13.5)'
 TRAMP=1., VOLUME=1. $END
  3.13658E+05 -3.44602E+03  3.32311E+05  2.55398E+05  8.31074E+04  3.36441E+05 -1.31114E+05  2.49937E+05
 -1.88618E+05  8.30690E+04 -1.12636E+05 -3.26054E+04  1.30368E+03 -4.71998E+04  4.84232E+04 -3.53432E+03
  3.69504E+04  4.61387E+04 -1.60136E+04  7.58145E+04 -6.30877E+04  6.38803E+04 -8.46338E+04  2.53277E+04
 -8.06366E+04 -1.11599E+04 -5.31027E+04 -4.79424E+04 -1.65234E+04 -6.80895E+04  2.55357E+04 -4.78398E+04
  4.23627E+04  5.11871E+03  1.99356E+04  4.70538E+04 -3.58109E+04  5.11868E+04 -6.73740E+04 -5.53159E+03
 -5.52046E+04 -5.53956E+04 -5.90446E+03 -7.64342E+04  3.81820E+04 -5.59788E+04  4.54446E+04 -1.56969E+04
  4.61493E+04  1.19728E+04  3.20520E+04  3.16175E+04  1.60219E+04  2.28614E+04 -3.44790E+03  3.11703E+04
 -2.01414E+04  8.79996E+03 -2.15700E+04 -4.83010E+03  6.41107E+03 -4.89816E+03  2.11283E+04  1.25611E+04
  5.01107E+03  3.41829E+04 -2.90768E+04  2.81884E+04 -5.88028E+04  2.30297E+03 -5.67649E+04 -4.17156E+04
 -1.15400E+04 -6.78161E+04  3.95194E+04 -4.22935E+04  5.81648E+04 -1.02634E+03  3.23631E+04  3.09327E+04
 -4.66352E+03  3.65381E+04 -3.67543E+04  1.46765E+04 -2.93007E+04 -2.10595E+03 -1.51527E+04 -1.22130E+04
 -1.07055E+04 -1.48847E+04 -2.21844E+03 -1.63225E+04  1.01323E+04 -2.65086E+04  1.56363E+04 -1.59963E+04
  1.07187E+04  5.02503E+03 -1.17007E+04  1.45085E+04 -1.80532E+04 -2.97469E+03 -7.57807E+03 -3.28856E+04
  2.08375E+04 -4.13674E+04  5.13408E+04 -1.23915E+04  4.30247E+04  2.04318E+04  1.88391E+04  4.32545E+04
 -2.04498E+04  3.39587E+04 -2.83918E+04 -1.21377E+03 -1.04183E+04 -2.90343E+04  1.95506E+04 -3.14013E+04
  3.87002E+04 -4.11929E+03  3.41650E+04  2.31587E+04  1.60427E+04  4.90558E+04 -1.11064E+04  4.70242E+04
 -2.76529E+04  3.37464E+04 -4.19572E+04  6.49400E+03 -4.27792E+04 -1.65319E+04 -2.35212E+04 -4.04496E+04
  7.97750E+03 -3.93103E+04  3.33122E+04 -8.19789E+03  2.46854E+04  1.41884E+04  3.49886E+02  1.78332E+04
 -1.00679E+04  3.19253E+03 -1.15629E+04 -7.56282E+03  8.41387E+03 -4.19373E+03  1.80251E+04  8.77827E+03
  1.17758E+04  2.35889E+04 -6.47155E+03  2.82008E+04 -2.33270E+04  5.32231E+03 -2.14291E+04 -3.59251E+03
 -2.40186E+04 -1.49094E+04 -1.26922E+04 -1.69237E+04  1.88983E+03 -2.12704E+04  1.31625E+04 -1.80893E+04
  3.03056E+04 -1.50272E+04  3.11741E+04 -2.28814E+03  2.23974E+04  1.95341E+04  5.29045E+03  3.86385E+04
 -1.56671E+04  3.02448E+04 -2.43513E+04  7.06689E+03 -2.01154E+04 -1.18713E+04 -4.25853E+03 -1.60553E+04
  5.11432E+03  4.43376E+00 -3.40936E+03  7.41743E+03 -1.41909E+04  5.79248E+03 -1.53524E+04 -8.57649E+03
 -1.59222E+04 -1.84865E+04  6.50098E+03 -2.18386E+04  1.73524E+04 -1.17294E+04  1.58898E+04  1.21752E+03
  1.13907E+04  1.34008E+04  3.58455E+02  2.09702E+04 -1.29990E+04  1.30990E+04 -2.01990E+04 -8.77078E+02
 -1.68448E+04 -2.13860E+04 -2.43973E+03 -2.48965E+04  1.25616E+04 -1.83782E+04  2.38528E+04 -7.82078E+03
  1.48491E+04 -1.18319E+03  1.08446E+04  6.35217E+03  1.31637E+04  2.90019E+03  1.16208E+04 -1.16256E+02
  1.69420E+04 -3.58304E+02  1.99010E+04  1.15694E+04  1.13673E+04  2.81810E+04 -1.59967E+03  3.38899E+04
 -2.19843E+04  2.57587E+04 -3.09342E+04  1.30984E+04 -3.51646E+04 -3.98033E+03 -2.52861E+04 -2.11308E+04
 -1.39431E+04 -2.96632E+04  9.20499E+03 -2.63976E+04  2.54774E+04 -1.67589E+04  1.65669E+04  6.43366E+03
  6.50216E+03  1.16879E+04 -8.77130E+03  1.59867E+04 -1.20086E+04 -7.13149E+02 -1.46974E+04 -1.19951E+04
  6.53375E+02 -1.82066E+04  3.85207E+03 -1.44480E+04  1.10387E+04  2.06459E+02  2.76937E+01  7.38809E+03
 -7.41881E+03 -2.63846E+02 -1.05902E+04 -6.81683E+03  6.09141E+03 -1.42536E+04  4.64469E+03 -1.54344E+04
  1.18488E+04 -9.38391E+03  1.98365E+04  2.26878E+03  1.22154E+04  9.09154E+03  1.24126E+04  1.81479E+04
 -2.03683E+03  2.02742E+04 -1.31693E+04  1.27628E+04 -1.52884E+04  4.89539E+03 -1.26984E+04  1.45860E+03
 -2.91236E+03 -5.22248E+03  5.64106E+03  4.45596E+02 -2.54885E+03  5.70994E+03 -4.92743E+03  3.38683E+03
 -1.31539E+04 -3.62073E+03 -7.94179E+03 -1.08779E+04 -6.93859E+03 -1.65542E+04  2.64499E+03 -9.32384E+03
  6.90699E+03 -4.87464E+03  8.82689E+03  7.15925E+03 -1.56686E+03  1.87916E+03 -4.80890E+03  3.97829E+02
 -4.90353E+03 -7.02114E+03  1.37244E+03 -5.10238E+03  4.32792E+03 -1.28077E+04  1.49892E+04 -4.50720E+03
  1.73716E+04  6.44969E+02  9.17683E+03  1.28506E+04 -2.18302E+03  1.51215E+04 -7.65772E+03  9.11065E+03
 -6.03369E+03  6.18499E+03 -2.48792E+02 -4.52750E+03  9.54603E+02  1.08048E+03  7.08351E+03 -4.08528E+02
  5.64026E+03  8.58076E+03  2.19687E+03  5.35461E+03 -9.12079E+03  1.04497E+04 -9.43533E+03  5.16125E+03
 -6.59182E+03 -6.67642E+03  5.72008E+03 -7.75899E+03  1.90308E+03 -5.79142E+03  1.18676E+03  3.45244E+03
 -1.43816E+03  3.14869E+03 -6.31559E+03  6.90343E+03 -1.07506E+04  2.74462E+03 -7.67360E+03 -3.76680E+03
 -8.81145E+03 -8.97994E+03  3.56437E+03 -1.12823E+04  1.40681E+04 -6.06400E+03  1.08275E+04 -2.80805E+02
  6.32233E+03  8.23634E+03 -3.03984E+03  8.44918E+03 -5.59500E+03  4.20357E+03 -7.47400E+03  2.57305E+03
 -1.22076E+04 -5.56134E+03 -5.57396E+03 -6.11967E+03  4.49724E+03 -2.59522E+03  3.19901E+03 -3.48574E+03
  1.00986E+04  2.89091E+03 -3.91953E+03  3.02005E+03  2.56036E+03 -6.82930E+02  1.10895E+03 -4.47877E+03
  6.56676E+03  4.84243E+03  1.07557E+04 -5.32148E+03  7.96409E+03  5.55784E+03  6.66599E+03  1.21973E+04
 -2.18077E+03  1.79456E+04 -1.96684E+04  7.24898E+03 -1.88205E+04  1.94122E+03 -1.38218E+04 -5.30169E+03
 -4.25971E+03 -1.19241E+04 -7.44401E+02 -4.66472E+03  5.68450E+03 -6.57915E+02  4.38638E+03 -1.13916E+03
  2.36653E+03 -4.46641E+01  9.37820E+02 -8.61281E+02  4.39248E+03 -1.15969E+03  8.60689E+03  2.50302E+03
  2.96925E+03 -1.30558E+03  2.51369E+03  6.57575E+03  4.72389E+03  5.70463E+03 -7.21168E+03  7.40939E+03
 -7.42004E+03 -3.09233E+03 -3.65124E+03 -3.27851E+03  1.41664E+03 -1.08031E+04  3.81888E+03 -8.90968E+03
  9.99618E+03 -4.88822E+03  6.25402E+03 -6.01034E+02  1.23891E+04  1.09780E+04  5.98348E+02  8.29350E+03
 -5.12246E+03  9.48777E+03 -4.68975E+03  5.96343E+03 -1.06431E+04 -1.13934E+03  6.99841E+02  8.66617E+02
 -2.49178E+03  1.06911E+03 -4.69004E+03  4.24090E+03 -6.43180E+03  1.79325E+03 -8.50281E+03 -1.56327E+03
  1.46686E+03 -1.14758E+04  2.11480E+03 -1.00374E+04  7.78499E+03 -4.94126E+03 -3.75849E+02 -3.55994E+03
  1.01515E+04  4.20349E+03  2.87844E+02  5.93107E+03 -5.15309E+03  1.14829E+04 -9.24965E+03  5.61282E+03
 -8.17123E+03  3.18110E+03 -1.27798E+04 -4.53329E+03 -1.00405E+03 -7.96799E+03  3.30488E+03 -6.80104E+03
  3.85858E+03 -4.52127E+03 -3.54628E+02  8.92088E+01  2.66457E+03  4.37657E+02  1.48850E+03 -1.84466E+03
 -9.01086E+01  1.03610E+03  9.83760E+02  9.81956E+02  1.18618E+03  1.78877E+03  3.55702E+03  8.40358E+03
 -5.05530E+03  7.02822E+03 -8.05852E+03  4.85923E+03 -4.30499E+03  4.62973E+03 -5.39323E+03 -2.17049E+03
 -1.92702E+03 -9.57997E+03  1.56534E+03 -1.16197E+04  5.66736E+03 -3.44229E+03  6.06138E+03 -1.65203E+03
  1.21950E+03  2.80827E+03 -5.66075E+03  2.64949E+03 -3.40327E+03 -9.54081E+02 -5.44217E+03 -1.18117E+03
 -1.75249E+03 -1.07323E+04  4.44683E+03  6.61530E+02  2.88017E+03 -1.23484E+03  1.65847E+03  1.62825E+03
  5.42679E+02  1.96412E+02 -1.07905E+02 -1.27161E+03 -3.99447E+03  3.34671E+03 -1.53888E+02 -5.57491E+03
  1.61872E+03 -4.99046E+03  1.71536E+03 -1.16989E+03  5.35829E+02  2.77894E+03  4.47868E+03  7.27407E+03
 -6.39014E+03  5.17627E+03 -4.24321E+03  1.63305E+03 -6.63648E+03 -1.50277E+03 -4.82589E+03 -2.26808E+03
  1.92888E+03  7.91155E+02  8.66986E+02 -1.58438E+03  1.23020E+03  7.86979E+03  1.56936E+03  5.14860E+03
  7.39627E+02 -2.86979E+03 -1.69030E+03 -1.83881E+02 -6.58966E+03 -3.82500E+03  4.39737E+03 -2.80914E+03
  2.84029E+03 -2.97855E+03  6.91963E+03 -1.62708E+03  2.20162E+03  1.48362E+03 -3.59812E+03  1.01392E+03
  2.32998E+03 -3.61465E+03 -1.51000E+02  2.42320E+02  2.41611E+03 -1.16712E+03  3.42144E+03 -3.69416E+03
  1.71946E+03  3.90739E+02  4.97205E+03  5.83775E+03  5.46568E+03  5.04317E+03 -4.94480E+03  6.45236E+03
  1.03074E+03  3.90928E+03 -6.14529E+03  3.91500E+02  2.89655E+02 -1.35797E+03  1.79797E+03  1.29774E+02
  4.66470E+02 -6.30532E+02  2.44286E+03  3.67214E+03  7.93915E+02  7.40434E+03 -5.45579E+02  7.29363E+02
 -1.90496E+02 -2.70365E+03  2.66115E+03  4.35068E+03 -1.56858E+03 -2.02004E+03 -4.28171E+03  9.86270E+02
 -2.69356E+03 -1.98308E+02 -5.44562E+03 -4.06601E+02 -3.60580E+03  2.40762E+03 -4.65280E+03 -4.68568E+03
 -4.99762E+03 -8.70716E+03 -3.08166E+01 -5.28469E+03 -8.84013E+02 -4.70701E+03  4.83689E+03 -1.93871E+03
  5.83024E+03  3.36634E+03 -1.68149E+03  1.40953E+03 -2.49709E+03  8.93135E+02 -1.34146E+03  8.05305E+03
  7.77376E+02  1.41244E+03  1.60580E+03  1.30514E+03  7.78449E+01  8.69239E+02 -2.48592E+03 -7.94156E+03
  2.36591E+02 -7.22552E+03 -3.04545E+03  4.54072E+02  1.56608E+03 -2.25185E+03 -2.75139E+02 -2.53987E+03
  3.36543E+03  2.71550E+03  4.85595E+03  1.72822E+03  4.97520E+03  7.18562E+03 -1.28817E+03  6.60918E+03
  9.16336E+02  9.40342E+03 -3.79101E+03  3.07223E+03 -8.66130E+03 -4.89335E+03 -9.73056E+03 -8.07566E+02
 -4.80338E+03 -4.46244E+03  1.62534E+03 -3.65410E+03  3.57000E+03 -2.07135E+03  1.78678E+03 -3.32719E+03
 -1.72782E+03 -1.08489E+03  4.50093E+03  3.43151E+03 -5.07688E+03 -1.39110E+03  4.57147E+03 -5.73295E+02
  4.55788E+03 -3.27888E+03 -5.42955E+02  9.01276E+02  1.74246E+03  3.18657E+03  1.72019E+03  4.04294E+03
 -3.64328E+03  4.56998E+03 -4.81611E+03  7.00294E+02 -5.36465E+03  1.24563E+03  1.20160E+03 -3.50042E+03
  1.85713E+03 -1.09085E+03  4.32090E+03 -1.91567E+03  1.75541E+03  2.39920E+03 -4.56573E+03  1.48740E+02
  1.74894E+03  1.33185E+03 -1.23689E+03 -1.83992E+02  2.94412E+03 -3.03606E+02 -4.45634E+03  1.04681E+03
 -3.68995E+03  2.10480E+03  1.76285E+03 -3.96474E+01 -5.19900E+02  1.63187E+03 -3.36718E+03 -2.35718E+03
 -2.12125E+03 -3.18025E+02 -4.70093E+03 -3.47197E+03  2.55244E+03 -2.20669E+03  2.11523E+03 -2.77305E+03
  5.27002E+03  7.25810E+03 -4.49629E+03 -3.52927E+03 -3.27464E+03  4.84048E+03 -1.65329E+03  3.79312E+03
