 $NMID ID='MM_0lb_SNR50_10hz_g40_48.RAW', FMTDAT='(8E13.5)'
 TRAMP=1., VOLUME=1. $END
  3.09984E+05  1.84620E+03  3.32877E+05  2.46137E+05  8.88165E+04  3.39390E+05 -1.32004E+05  2.52614E+05
 -1.90401E+05  7.92524E+04 -1.12463E+05 -3.03800E+04  6.41411E+03 -4.69080E+04  5.37281E+04 -2.30859E+03
  3.79464E+04  5.53253E+04 -1.20668E+04  7.05901E+04 -5.90362E+04  6.02729E+04 -8.73708E+04  3.28498E+04
 -7.66271E+04 -1.48745E+04 -5.08341E+04 -5.41015E+04 -1.37331E+04 -6.59093E+04  2.68594E+04 -4.57007E+04
  3.95010E+04  7.37175E+03  2.00914E+04  5.24319E+04 -3.46750E+04  4.82942E+04 -7.48445E+04 -3.58024E+02
 -4.96655E+04 -5.70229E+04 -6.11738E+03 -7.23330E+04  3.33123E+04 -5.86942E+04  5.08509E+04 -1.56154E+04
  4.68444E+04  1.34172E+04  2.41243E+04  3.17812E+04  2.17055E+04  2.90086E+04 -4.26412E+02  2.58506E+04
 -2.75928E+04  9.70614E+03 -1.20935E+04 -9.28612E+03  4.09142E+03 -9.36139E+03  2.17169E+04  1.75417E+04
  6.20370E+03  3.42577E+04 -2.84106E+04  4.30657E+04 -6.71231E+04  9.04096E+03 -5.90675E+04 -4.67288E+04
 -1.53156E+04 -6.72984E+04  3.94233E+04 -4.83124E+04  6.13832E+04 -6.30005E+03  3.62916E+04  3.29643E+04
 -4.80130E+02  4.02196E+04 -3.01063E+04  2.03158E+04 -2.60636E+04 -4.97600E+03 -2.01192E+04 -4.51957E+03
 -1.42300E+04 -1.54953E+04  3.97569E+03 -1.85818E+04  8.23230E+03 -2.08162E+04  1.49780E+04 -1.64042E+04
  1.39193E+04  2.02477E+03 -1.22865E+04  1.00818E+04 -2.58311E+04 -3.77259E+03 -1.08605E+04 -3.59233E+04
  2.30223E+04 -4.03336E+04  4.65094E+04 -2.13919E+04  4.57328E+04  2.59832E+04  1.93900E+04  4.53584E+04
 -1.61783E+04  3.33590E+04 -2.76934E+04  4.65913E+03 -1.02037E+04 -2.72500E+04  1.87070E+04 -3.55434E+04
  4.82020E+04 -1.27109E+04  3.58435E+04  2.80834E+04  2.35866E+04  4.80213E+04 -6.36146E+03  5.52302E+04
 -3.38176E+04  3.75065E+04 -5.14671E+04  9.86181E+03 -4.31715E+04 -2.00980E+04 -2.54200E+04 -4.11360E+04
  5.94958E+03 -4.21457E+04  3.49680E+04 -1.76345E+04  3.14931E+04  1.28922E+04  5.45568E+03  1.27571E+04
 -1.32554E+04  6.24296E+03 -6.38172E+03 -1.37708E+03  7.76005E+03 -1.17270E+04  1.93301E+04  9.79617E+03
  1.42186E+04  2.19910E+04 -5.55590E+03  3.33171E+04 -2.27597E+04  1.37157E+04 -3.30820E+04  5.19116E+02
 -1.84528E+04 -1.95275E+04 -1.26079E+04 -2.59240E+04  5.55559E+03 -1.90404E+04  2.54132E+04 -1.85750E+04
  3.22181E+04 -9.69408E+03  3.91763E+04  1.25981E+03  3.15930E+04  2.63400E+04  2.10586E+03  4.38991E+04
 -2.14238E+04  3.42756E+04 -3.01340E+04  1.26427E+04 -1.82693E+04 -1.87072E+03 -6.69991E+03 -1.35368E+04
  3.55147E+03 -1.12329E+03 -8.12012E+03  4.40628E+03 -1.74726E+04  5.95670E+03 -1.83955E+04 -1.11469E+04
 -1.54137E+04 -2.33000E+04  5.63413E+03 -2.96390E+04  1.79054E+04 -1.92189E+04  2.31099E+04 -1.16134E+03
  1.65086E+04  1.60729E+04 -6.67773E+03  2.74747E+04 -2.09715E+04  1.02113E+04 -2.23466E+04 -5.58767E+03
 -1.65297E+04 -2.45007E+04 -4.18342E+02 -2.72889E+04  1.31890E+04 -2.05488E+04  2.30044E+04 -1.10886E+04
  2.56435E+04 -2.59616E+03  1.83718E+04  7.57782E+03  6.78098E+03 -2.35189E+02  5.76711E+03  1.35513E+03
  2.19925E+04  1.90245E+03  2.24410E+04  1.36577E+04  1.37448E+04  3.45947E+04 -1.37269E+03  3.57789E+04
 -2.28767E+04  3.17361E+04 -3.93454E+04  1.62163E+04 -4.07206E+04  1.45674E+03 -2.83352E+04 -2.42633E+04
 -4.67354E+03 -3.66764E+04  9.15786E+03 -2.66882E+04  2.49405E+04 -1.80955E+04  2.10179E+04 -5.89539E+03
  8.11502E+03  1.69271E+04 -5.75780E+03  1.20921E+04 -1.81362E+04  3.92269E+03 -1.19466E+04 -1.43419E+04
 -2.31256E+03 -1.73869E+04  1.10357E+04 -1.38709E+04  6.10112E+03 -5.18580E+03 -2.51109E+02  1.28434E+04
 -5.44060E+03 -1.42593E+03 -7.86476E+03 -3.41183E+03  8.31506E+02 -1.29719E+04  1.42159E+04 -1.68077E+04
  2.15026E+04 -1.17680E+04  1.76888E+04  4.15825E+03  1.99710E+04  1.59793E+04  6.52596E+03  2.85311E+04
 -6.72748E+03  2.83451E+04 -2.00986E+04  1.67239E+04 -2.11051E+04  6.85809E+03 -1.01379E+04 -4.53535E+03
 -1.18458E+04 -1.20814E+04  8.72106E+02  6.44296E+03  2.27898E+01  2.05950E+03 -7.65705E+03  5.90007E+03
 -7.64340E+03  1.56920E+03 -1.41711E+04 -1.24308E+04  4.59188E+02 -1.80676E+04  5.66250E+03 -1.17969E+04
  1.27533E+04 -6.23672E+03  6.61286E+03  5.22319E+02  1.83387E+03  3.19921E+03 -4.73530E+03 -6.38649E+03
 -8.02178E+03 -1.40447E+04 -3.80736E+03 -1.35981E+04  5.19448E+03 -2.11258E+04  1.78264E+04 -4.77446E+03
  2.03869E+04  5.24227E+03  1.86198E+04  1.19449E+04  6.39006E+03  1.58141E+04 -1.05338E+04  9.22401E+03
 -8.58597E+03  2.25952E+03 -2.74810E+03 -9.08692E+01  2.90601E+03 -8.48436E+03  1.35488E+04 -6.79642E+02
  5.44104E+03  4.27460E+03  1.26596E+03  1.28804E+04 -7.57269E+03  1.47333E+04 -1.83572E+04  1.77377E+02
 -9.56215E+03 -5.41406E+03  3.66419E+02 -1.76806E+04  6.89536E+03 -2.08411E+03  2.01488E+03  4.26341E+02
  4.84231E+03  8.62825E+03 -9.45417E+03  9.69723E+03 -1.22881E+04  1.16189E+04 -1.41569E+04  3.03472E+03
 -2.30369E+03 -1.38460E+04  3.41319E+03 -1.74430E+04  1.46655E+04 -8.34028E+03  1.33052E+04 -5.43417E+03
  4.50695E+03  2.26854E+03 -3.85905E+03  1.10371E+04 -9.56197E+03  5.78638E+03 -3.87093E+03 -4.26849E+03
 -6.10300E+03 -1.18538E+04  2.59839E+02 -1.51048E+04 -1.27725E+03 -7.39105E+03  5.64039E+03  8.44014E+02
  7.42773E+03  3.23509E+02  1.10453E+03 -8.38350E+01  2.16194E+03 -6.38340E+02  3.67493E+03 -3.45231E+03
  8.20565E+03 -8.66327E+02  1.23532E+04  3.66639E+03  1.01717E+04  6.31419E+03  6.95953E+03  2.24192E+04
 -1.38866E+03  2.35650E+04 -1.48390E+04  1.64598E+04 -2.45673E+04  5.73899E+03 -1.64606E+04 -1.01340E+04
 -5.76099E+03 -1.33910E+04  5.20841E+03 -9.03341E+03  3.55619E+03 -4.32804E+03  2.53444E+03 -9.89227E+03
  3.46392E+03 -7.81167E+03  2.02986E+03 -3.56098E+03  8.75502E+03 -3.46161E+03  5.48488E+03 -1.26782E+03
  5.92505E+03  6.78680E+03  6.47119E+03  7.59382E+03  5.21602E+02  5.32329E+03 -8.00847E+03  7.23244E+03
 -1.35196E+04 -2.22197E+03 -1.33774E+04 -1.00729E+04 -5.09606E+03 -1.11204E+04  1.91782E+03 -1.50596E+04
  1.13611E+04 -1.30846E+04  1.54275E+04  2.02895E+03  1.44159E+04  8.98153E+03  1.90682E+03  1.48014E+04
 -1.09457E+04  1.66205E+04 -4.53689E+03  8.90309E+03 -1.06635E+04 -5.22090E+03 -2.34491E+03 -8.83311E+03
  3.01809E+02 -2.00968E+03 -1.37612E+03  3.79607E+02 -5.05258E+03  3.44619E+03 -7.17869E+03 -8.18625E+02
 -8.88941E+03 -7.39613E+03 -1.63780E+03 -1.17097E+04  8.47911E+03 -1.38281E+04  6.40766E+03 -5.45832E+03
  6.11704E+03  3.42441E+03  8.29089E+03  1.42437E+04  1.72346E+03  9.68270E+03 -7.09805E+03  5.84928E+03
 -1.01161E+04  1.06615E+04 -1.66154E+04 -8.13903E+03 -2.51800E+03 -9.04879E+03  8.27786E+03 -1.05390E+04
  7.24685E+03 -2.73450E+03  5.19057E+03 -9.62784E+02  4.26955E+03  4.62088E+03 -3.93114E+03  1.83901E+03
  3.13279E+03 -2.01901E+03  3.32699E+03  1.57212E+03 -3.37692E+03  7.02334E+03  6.16646E+03  1.06234E+04
  2.27837E+03  3.50671E+03 -1.22743E+04  1.01858E+04 -1.16832E+04  3.71200E+03 -1.13172E+04 -2.05665E+03
 -1.00758E+03 -9.40123E+03  6.27346E+02 -1.04848E+04  6.50742E+03 -1.05188E+04  7.90343E+03 -1.18609E+03
  7.79648E+03  4.95482E+03  4.11729E+03  9.50824E+03 -3.27532E+03  3.15911E+03 -2.01352E+03  4.25972E+02
 -3.12755E+03 -5.67321E+03  2.73770E+03 -1.00249E+04  7.38381E+02 -3.64278E+03  7.19154E+03  3.94620E+03
  1.20135E+03 -1.64170E+03  6.25460E+03  2.31225E+03 -1.49534E+03  3.79260E+03 -5.55580E+03 -6.22830E+02
  5.29842E+03 -3.68381E+03  4.08444E+03  3.27931E+03  1.01314E+02 -3.99444E+03 -6.32044E+02  7.07051E+03
 -7.01484E+03  4.72680E+03 -9.96630E+03 -1.94903E+03 -9.47479E+02 -4.03055E+03 -5.87678E+03 -8.01088E+02
  1.23201E+03 -5.37977E+03  3.63353E+02  2.22666E+03  1.83284E+03  5.83970E+03  3.64371E+03 -1.35005E+03
 -7.44438E+03  5.29159E+02 -2.46070E+03 -5.26808E+03 -7.92510E+03 -7.62194E+03 -3.91183E+03 -9.78982E+03
 -1.45335E+03 -8.21195E+03  4.85145E+03  6.56221E+03  2.11035E+03  3.89692E+03 -1.23037E+02  1.94527E+03
 -5.68873E+03 -5.31622E+03  3.18640E+03  3.20472E+03 -4.10159E+02 -5.78657E+03  6.90330E+03 -3.99896E+03
  3.88818E+03 -1.89839E+03  5.76457E+03  5.97938E+03 -1.39069E+02  5.29233E+03 -4.91567E+03  6.57245E+03
  1.32456E+02  5.39718E+03 -1.31404E+04  3.44354E+03 -9.07323E+03 -9.70199E+03  2.29829E+03 -5.84356E+03
  4.04720E+03 -4.07548E+03 -2.34246E+03 -8.00613E+03  1.32195E+03 -1.79155E+03 -3.01508E+03  9.76751E+03
 -7.77260E+02  2.97180E+03 -1.36200E+03  2.89743E+03 -4.19765E+03  7.99167E+03 -4.44986E+03  4.10464E+03
 -9.75351E+03 -1.21555E+03 -7.57683E+03  2.37370E+03 -9.06453E+03  3.26095E+03 -1.20597E+04 -7.96610E+03
 -3.78536E+03 -1.24470E+04 -2.25190E+03 -1.64684E+04  6.01940E+03 -1.30197E+04  1.22772E+04 -6.61750E+03
  1.17890E+04  5.60499E+03  6.28886E+03  8.93229E+03  2.58091E+03  9.39068E+03 -4.65752E+03  9.26552E+03
 -3.43684E+03  4.56429E+03 -1.60007E+03 -7.20478E+02  1.32967E+02 -6.39855E+03  3.16676E+03  5.08296E+02
 -4.86626E+03 -1.75308E+02 -3.40318E+03  2.65899E+03 -3.61512E+03 -1.19318E+04  9.14297E+02  1.35104E+02
  4.04191E+03  3.17477E+03  2.55118E+03 -3.24181E+03  9.21046E+03  3.58783E+03 -3.85706E+03  8.21435E+03
 -6.22807E+03  1.25965E+04 -7.14449E+03  6.25611E+03 -6.14415E+03 -1.25209E+03 -9.22624E+03 -5.69840E+03
 -2.86026E+03 -8.18041E+03  8.04114E+02 -1.20018E+04  3.36126E+03 -3.24396E+03  5.65779E+03 -5.04874E+03
  6.11988E+03  7.07792E+03 -5.64696E+02 -3.59216E+02 -1.16242E+02  7.95563E+02  2.68627E+03  3.26438E+03
  8.50870E+03  1.87572E+03  8.67275E+03 -3.89607E+03 -8.49660E+01  6.23198E+03 -1.70258E+03  2.22666E+03
  5.40067E+02  1.09145E+03 -1.90427E+03  5.16288E+03 -2.92509E+03 -5.96484E+03 -5.79221E+03 -1.00561E+04
 -9.45867E+02 -1.11002E+04  7.04744E+03 -2.34123E+03  3.98244E+03 -2.36502E+03  9.03281E+02  7.67828E+03
 -8.84220E+02  6.07138E+03 -1.26125E+03  3.48424E+03 -3.15240E+03  7.25583E+02 -8.20734E+03  6.81770E+02
 -3.86285E+03 -3.64947E+03 -4.12569E+02  4.05546E+03  1.67467E+03 -8.22932E+02 -6.38029E+03 -6.54372E+02
 -2.83411E+03 -7.10265E+03 -1.48397E+03 -5.34336E+03  4.03666E+03 -7.99146E+03  5.05055E+03 -1.52025E+03
  4.68056E+03 -6.14268E+03  3.73940E+02  2.96976E+03 -2.10526E+03  7.78849E+03 -2.58845E+03  3.68641E+03
