 $NMID ID='MM_0lb_SNR50_9hz_g40_79.RAW', FMTDAT='(8E13.5)'
 TRAMP=1., VOLUME=1. $END
  3.11794E+05 -7.06707E+03  3.28443E+05  2.46792E+05  8.10144E+04  3.36584E+05 -1.26577E+05  2.57828E+05
 -1.91712E+05  8.14523E+04 -1.14727E+05 -3.50413E+04  6.81997E+03 -5.16198E+04  5.79019E+04 -2.62650E+03
  3.39876E+04  5.67938E+04 -1.96472E+04  8.38537E+04 -5.82869E+04  6.38351E+04 -7.73827E+04  2.67810E+04
 -8.76975E+04 -1.49480E+04 -5.92365E+04 -5.11347E+04 -1.67573E+04 -7.81289E+04  3.12737E+04 -4.84136E+04
  4.17615E+04  1.16730E+03  1.26281E+04  4.79654E+04 -4.19010E+04  4.78756E+04 -6.77475E+04 -6.95573E+03
 -6.07109E+04 -5.97069E+04 -6.49956E+03 -7.78204E+04  3.63314E+04 -5.90637E+04  5.19968E+04 -1.85607E+04
  4.06890E+04  1.36827E+04  3.56372E+04  2.56938E+04  1.65629E+04  3.09633E+04 -5.59954E+03  2.70437E+04
 -2.24030E+04  1.24708E+04 -1.50714E+04 -2.79608E+03  8.65367E+03 -1.14111E+04  2.43140E+04  1.45968E+04
  5.10156E+03  3.28057E+04 -2.56009E+04  4.30309E+04 -6.67832E+04  4.04351E+03 -6.35290E+04 -4.49964E+04
 -1.26826E+04 -6.72451E+04  4.05578E+04 -4.73793E+04  5.97217E+04 -9.89316E+03  3.65074E+04  3.10013E+04
 -2.12949E+03  3.30426E+04 -2.76143E+04  1.62083E+04 -2.98717E+04  1.00981E+03 -1.58636E+04 -1.34356E+04
 -6.23173E+03 -8.77006E+03  1.32397E+03 -2.77906E+04  8.50478E+03 -2.57265E+04  1.39353E+04 -1.58224E+04
  8.77427E+03  6.12066E+03 -4.83746E+03  1.25194E+04 -1.82149E+04 -9.71149E+03 -8.42334E+03 -4.41217E+04
  2.14723E+04 -4.77365E+04  5.00666E+04 -2.11791E+04  5.03815E+04  1.71117E+04  2.44975E+04  4.29273E+04
 -1.56780E+04  3.67173E+04 -2.66364E+04  3.96770E+03 -1.58627E+04 -3.20021E+04  2.38713E+04 -3.59594E+04
  4.49347E+04 -1.30466E+04  4.21122E+04  2.58876E+04  2.31362E+04  5.24642E+04 -9.95427E+03  5.56494E+04
 -3.02330E+04  3.61954E+04 -4.45646E+04  9.42837E+03 -4.50293E+04 -1.91420E+04 -1.97977E+04 -4.11622E+04
  7.92928E+03 -4.36100E+04  3.61739E+04 -1.77378E+04  3.22112E+04  1.15201E+04  1.26832E+03  2.57508E+04
 -1.62876E+04  5.26747E+03 -1.49218E+04 -8.96898E+03  3.25128E+03 -1.02674E+04  1.00996E+04  5.86074E+03
  1.42365E+04  2.35130E+04 -8.72736E+03  2.83989E+04 -2.44705E+04  1.49003E+04 -3.17341E+04 -1.07873E+04
 -2.58853E+04 -1.50081E+04 -9.82956E+03 -2.92548E+04  5.55919E+03 -2.24739E+04  2.30719E+04 -2.01640E+04
  3.61754E+04 -1.44139E+04  3.48990E+04  9.41000E+02  2.59844E+04  1.77275E+04 -1.98266E+03  4.86473E+04
 -2.31215E+04  3.30040E+04 -2.89792E+04  8.88084E+03 -2.42886E+04 -1.30896E+04 -6.29026E+03 -1.22134E+04
 -1.10849E+03 -9.12775E+03 -9.81334E+03  7.96251E+03 -2.03504E+04  6.64680E+03 -2.16170E+04 -4.37815E+03
 -9.32555E+03 -2.10600E+04  8.48028E+03 -2.51878E+04  9.78665E+03 -2.15250E+04  2.43293E+04 -8.20019E+02
  1.26014E+04  1.90608E+04  2.26020E+03  1.90796E+04 -1.23856E+04  1.19194E+04 -2.14298E+04  1.03355E+03
 -2.16310E+04 -2.91901E+04 -3.66070E+03 -3.20409E+04  9.93856E+03 -2.51989E+04  1.85472E+04 -1.22175E+04
  1.67669E+04 -2.79728E+03  1.85521E+04  5.08318E+03  2.44101E+03  1.47750E+03  1.19917E+04  1.17789E+03
  2.07526E+04  5.37454E+03  2.19609E+04  1.90517E+04  1.42279E+04  4.12465E+04  1.17640E+03  4.12057E+04
 -1.94455E+04  3.43373E+04 -4.15035E+04  2.48106E+04 -4.72423E+04 -1.92943E+03 -3.60600E+04 -2.03264E+04
 -1.11281E+04 -3.69536E+04  9.16879E+03 -3.27635E+04  2.42773E+04 -1.22896E+04  2.84789E+04  1.21088E+04
  7.69828E+03  2.09252E+04 -4.05856E+03  1.73194E+04 -1.67578E+04  3.59228E+03 -1.97044E+04 -1.24206E+04
  1.73255E+03 -2.63212E+04  1.42262E+04 -1.30778E+04  1.18525E+04 -2.01655E+03  4.80597E+03  9.37608E+03
 -1.28178E+04  6.40312E+03 -5.84790E+03 -7.58468E+03 -2.65052E+03 -1.74948E+04  2.73686E+03 -1.74292E+04
  2.57223E+04 -6.10950E+03  2.24721E+04  7.57499E+03  2.45254E+04  2.01044E+04  5.02898E+03  3.12981E+04
 -5.95941E+03  2.58887E+04 -2.01279E+04  1.92264E+04 -2.46305E+04  4.60470E+03 -1.83121E+04 -2.76558E+03
 -1.45724E+04 -8.59207E+03  1.21667E+03 -1.30839E+03 -6.83760E+03  2.11778E+03 -5.58742E+03  8.18389E+03
 -1.33596E+04 -6.22425E+03 -1.23623E+04 -2.61101E+03 -4.75314E+03 -1.79810E+04  3.64341E+03 -8.71555E+03
  1.14098E+04 -5.17191E+03  6.03993E+03  4.74529E+03 -6.31699E+03  1.74554E+03 -8.79565E+03 -2.13023E+03
 -8.34447E+03 -1.38869E+04  3.06400E+03 -7.97716E+03  1.09722E+04 -1.49232E+04  1.61002E+04 -2.81322E+03
  2.43094E+04  7.24639E+03  1.82260E+04  1.47903E+04  6.44132E+03  1.93168E+04 -4.88598E+03  1.19532E+04
 -8.45729E+03  4.26830E+03 -5.23904E+03  6.42114E+02  1.93066E+03 -4.98638E+03  1.05973E+04 -5.00090E+03
  5.71140E+03 -1.49222E+02  1.30736E+03  1.09613E+04 -2.92744E+03  1.10918E+04 -1.39036E+04  7.06317E+03
 -1.29169E+04 -8.41159E+03  2.34930E+02 -1.47844E+04  1.22629E+04 -8.20317E+03  1.23037E+04  5.69374E+03
 -1.34642E+03  6.63554E+03 -6.31112E+03  1.30744E+04 -1.38916E+04  5.45236E+03 -1.53316E+04 -2.41126E+03
 -7.07150E+03 -1.56329E+04  8.36535E+03 -1.18795E+04  1.39462E+04 -8.77216E+03  2.43127E+04  7.30581E+02
  7.86616E+03  8.29100E+03 -7.84839E+03  1.22137E+04 -1.30054E+04  9.69107E+03 -1.37138E+04  3.25599E+03
 -8.53661E+03 -7.49701E+03  5.45243E+02 -1.10807E+04 -8.59307E+02 -6.40817E+03  9.05954E+03 -3.56307E+03
 -2.58032E+03  2.83573E+03  6.69553E+03  2.94194E+03  1.98072E+03  1.27640E+03  9.26906E+01 -6.90328E+03
  8.74287E+03 -3.70531E+03  1.59834E+04  2.91427E+03  1.63402E+04  3.49378E+03  5.55015E+03  2.06653E+04
 -6.73215E+03  1.59245E+04 -1.86327E+04  1.69382E+04 -2.72148E+04  1.57606E+03 -2.15218E+04 -4.92303E+03
 -1.21057E+04 -2.19871E+04 -4.74685E+03 -1.55474E+04  8.43403E+03 -1.05293E+04  4.70270E+03 -7.17772E+03
  1.72866E+03 -1.05716E+03  5.19947E+03 -3.99195E+03  5.54895E+03 -5.65809E+03  4.62340E+03 -9.40671E+02
  6.11810E+03  1.16181E+04  7.04327E+03  7.55787E+03 -4.08633E+03  1.08340E+04 -1.49826E+04  1.35822E+04
 -1.04043E+04 -1.23358E+03 -2.50863E+03 -1.02967E+04  1.31252E+03 -2.09435E+04  1.12717E+04 -2.16519E+04
  1.69803E+04 -6.01900E+03  1.33855E+04  1.89186E+03  7.46214E+03  5.48406E+03 -1.30708E+03  1.26563E+04
 -9.00169E+03  9.04909E+03 -1.17977E+04 -2.25255E+03 -5.58241E+03 -6.27180E+03 -8.64569E+03 -3.64603E+03
 -4.56812E+03 -2.98737E+03 -7.08367E+03  1.08588E+04 -1.74395E+02  4.42762E+03 -4.85833E+03 -5.35774E+03
 -8.67468E+03 -4.87297E+03  4.47163E+03 -1.36447E+04  8.62954E+03 -1.33915E+04  1.54827E+04 -3.25469E+03
  1.06018E+04  7.79755E+03  5.40731E+03  1.34958E+04 -2.99753E+03  1.68791E+04 -4.59421E+03  1.28029E+04
 -1.27470E+04 -6.84375E+02 -1.38499E+04 -6.95412E+03  3.12788E+03 -1.46072E+04  2.79745E+03 -1.19490E+04
  1.28440E+04 -5.09881E+03  8.88966E+03 -6.28799E+03  6.44698E+03  1.01522E+03  1.59010E+03  6.02368E+03
  1.48276E+03  4.91804E+03  3.30392E+03  2.78297E+03  9.51417E+03 -5.74921E+02  4.94012E+03  2.22586E+03
  2.61306E+02  1.39021E+04 -1.19141E+04  1.51996E+04 -1.39169E+04 -2.90114E+03 -8.59157E+03 -1.11160E+04
 -3.75165E+03 -1.07328E+04 -1.73634E+03 -1.19017E+04  1.46492E+04 -1.05708E+04  1.39407E+04  2.57167E+03
  1.21169E+04  1.26032E+04  4.71549E+03  1.51084E+04 -4.24012E+03  3.03282E+03 -8.72610E+03 -1.49782E+03
  2.43277E+02 -9.48218E+03  1.41564E+02 -1.56584E+03  3.51901E+03 -2.62242E+03 -1.87655E+03 -6.10665E+02
 -7.37878E+02  3.86664E+03  5.14981E+03  4.83991E+03 -4.61301E+03  6.63700E+03 -2.12414E+03 -2.61954E+03
  6.46687E+03 -4.11003E+03  3.86794E+03 -5.44719E+03  3.02665E+03  1.07668E+04 -3.04072E+03  7.02772E+03
 -9.43656E+03  5.74522E+03 -1.25228E+04 -3.90911E+03 -1.09362E+04 -4.75384E+03 -6.54920E+03 -3.16153E+03
  1.97838E+03 -9.24984E+02  7.28810E+03 -1.22641E+03  6.85944E+03  4.45823E+03 -1.79536E+03 -1.45567E+03
 -1.44650E+04  3.22439E+03 -7.84574E+03 -5.37901E+03 -8.01287E+03 -8.33297E+03  4.00725E+03 -1.56363E+04
  1.08317E+04 -1.51779E+03  3.04240E+03 -8.15361E+02  3.46690E+03  1.74877E+03 -4.09548E+03  4.77358E+03
 -5.77039E+03  9.96913E+03 -5.31264E+03 -2.15923E+03  6.91524E+03 -3.43312E+03  7.41056E+03 -2.60470E+03
  1.41106E+04 -2.35584E+03  9.83681E+03  6.39562E+03 -3.16527E+03  6.44074E+03  1.06547E+03  7.37471E+03
 -1.12402E+04  1.06723E+04 -7.36334E+03 -3.45138E+03 -4.22861E+03 -9.53249E+03  1.40119E+03 -4.83014E+03
  6.65533E+03 -3.97652E+03  4.59755E+03  2.68746E+03  2.37720E+03  3.06892E+03 -7.51631E+03  6.10955E+03
  3.97062E+02 -3.32812E+02 -2.33889E+03  1.93295E+03 -7.84269E+03 -3.14738E+02 -4.17913E+03  1.99790E+03
 -4.74850E+02  3.27775E+03 -9.67848E+03  5.96424E+03 -7.63964E+03 -1.90250E+03 -8.47823E+03 -8.74454E+03
 -4.05723E+03 -1.42713E+04  6.39389E+03 -1.58956E+04  1.10176E+04 -3.88598E+03  1.40321E+04 -3.35390E+03
  1.37430E+04  1.44307E+03  6.91693E+03  9.40722E+03  5.71816E+03  1.01039E+04 -7.11301E+03  1.18722E+04
 -6.61588E+03  2.66477E+03 -1.07874E+04 -7.83835E+03 -4.90901E+03 -4.36159E+02 -4.65321E+03  2.91576E+03
 -1.29611E+03 -5.40077E+03 -3.44958E+03 -3.67500E+03 -2.28994E+03 -1.05376E+02 -2.61198E+03 -5.21129E+03
  2.40489E+03 -2.52314E+03  6.73423E+03  2.04063E+02  6.48283E+03  6.05811E+03  2.22571E+02  5.71360E+03
 -3.03477E+03  8.74039E+03 -8.79355E+03  8.64517E+03 -6.07491E+03  4.32512E+02 -1.41017E+04 -7.21771E+03
 -5.43915E+03 -1.22525E+04  9.49060E+02 -1.47208E+04  8.48734E+03 -1.00781E+04  2.59878E+03 -4.06097E+03
  6.40196E+03  1.46539E+03  1.15688E+03 -1.47479E+03 -1.69870E+03  1.58705E+03  3.02676E+03 -6.55858E+03
  1.08670E+03 -1.77439E+03  9.07815E+03 -2.88126E+03  3.63950E+03  4.60097E+03  5.01736E+02 -8.69114E+01
 -9.37968E+03  1.07247E+04 -9.74634E+03  2.64226E+03  6.20462E+02 -2.64961E+03 -2.85923E+02 -4.71533E+03
  3.44370E+03 -4.04737E+03  1.12315E+04  3.94878E+03  7.08473E+03  1.92578E+03  5.91389E+03  4.38039E+03
 -7.85878E+02  5.33494E+02  2.27597E+03  5.03456E+03 -5.64969E+03  2.05472E+03 -3.90329E+03 -3.70573E+03
 -3.03385E+03  5.50275E+03 -2.00439E+03  5.14857E+02 -8.87772E+03  2.40386E+03 -2.35208E+03  1.28424E+03
 -1.00649E+04 -6.85352E+03 -7.67992E+03 -7.82180E+03  5.93343E+03 -5.83346E+03  1.23202E+04 -4.84860E+03
  1.10929E+04 -3.25687E+02  7.95798E+02 -1.14198E+02  4.43354E+03  6.09656E+03 -4.48786E+03  7.72945E+02
