 $NMID ID='MM_0lb_SNR50_20hz_g60_43.RAW', FMTDAT='(8E13.5)'
 TRAMP=1., VOLUME=1. $END
  3.08175E+05  5.79706E+02  3.41035E+05  2.51784E+05  8.51909E+04  3.35474E+05 -1.34188E+05  2.49232E+05
 -1.89704E+05  8.79601E+04 -1.07572E+05 -3.08169E+04  3.05826E+03 -5.37837E+04  5.09547E+04  9.14032E+02
  3.73731E+04  5.34395E+04 -2.21372E+04  7.37263E+04 -6.03168E+04  6.16471E+04 -8.42728E+04  3.41012E+04
 -8.12687E+04 -1.12871E+04 -5.65515E+04 -4.73201E+04 -1.49342E+04 -6.44719E+04  2.48182E+04 -4.20826E+04
  4.12904E+04  6.20423E+03  1.51360E+04  4.61640E+04 -3.67201E+04  4.58163E+04 -5.94525E+04 -9.25603E+02
 -5.05368E+04 -5.42505E+04 -4.87509E+03 -7.66249E+04  2.98221E+04 -5.39525E+04  4.52976E+04 -1.99212E+04
  3.93788E+04  1.44667E+04  3.25903E+04  2.53034E+04  1.35490E+04  2.59796E+04 -3.58089E+03  2.18208E+04
 -2.43511E+04  1.36095E+04 -2.19118E+04 -2.70155E+03  3.85926E+03 -1.03716E+04  2.16503E+04  8.05479E+03
  1.24603E+04  3.32729E+04 -3.17793E+04  3.58492E+04 -5.83043E+04 -1.91755E+03 -5.62981E+04 -4.26826E+04
 -1.25875E+04 -5.91037E+04  3.96959E+04 -4.48050E+04  5.35478E+04 -2.70594E+03  2.69187E+04  3.56509E+04
 -1.22251E+02  3.63596E+04 -3.03173E+04  1.65868E+04 -2.73270E+04 -1.02366E+03 -1.53909E+04 -1.12104E+04
 -7.22997E+03 -1.03295E+04 -5.67595E+01 -1.41097E+04  9.95422E+03 -2.12710E+04  1.50071E+04 -1.38443E+04
  1.25707E+04  1.39278E+03 -4.11999E+03  1.59309E+04 -2.52983E+04 -7.54356E+02 -9.55715E+03 -3.20092E+04
  1.89040E+04 -3.92083E+04  4.49845E+04 -2.15497E+04  3.86379E+04  1.72170E+04  1.48180E+04  4.05245E+04
 -1.18007E+04  2.98973E+04 -2.07048E+04  1.33566E+03 -1.33999E+04 -2.78818E+04  2.21574E+04 -2.72449E+04
  3.90673E+04 -5.56686E+03  3.41894E+04  2.62401E+04  1.61947E+04  4.53195E+04 -8.66694E+03  4.84615E+04
 -2.98862E+04  2.76348E+04 -3.57527E+04  5.52323E+03 -3.73547E+04 -1.43377E+04 -2.11331E+04 -3.58684E+04
  1.18716E+04 -3.20790E+04  3.33312E+04 -1.51867E+04  2.95099E+04  8.34426E+03  2.65537E+03  1.67414E+04
 -1.51569E+04  8.08718E+03 -8.33800E+03 -7.66786E+03  3.67731E+03 -7.09538E+03  1.78004E+04  4.50753E+03
  1.12818E+04  2.10244E+04 -7.70163E+03  2.26359E+04 -2.09526E+04  8.36007E+03 -2.13681E+04 -7.55748E+03
 -1.53060E+04 -1.54371E+04 -5.34672E+03 -1.67725E+04  6.60102E+03 -1.36173E+04  1.00457E+04 -1.76258E+04
  2.35733E+04 -1.63260E+04  3.17213E+04  7.48243E+03  1.94920E+04  1.62930E+04  1.68051E+03  3.53661E+04
 -1.52672E+04  2.72907E+04 -2.87555E+04  9.89691E+03 -2.06288E+04 -1.32370E+04 -4.52396E+03 -1.36961E+04
  2.23504E+03 -1.21848E+03  1.46987E+03  8.29451E+03 -1.56585E+04  7.62484E+03 -1.19926E+04 -6.71973E+03
 -8.02929E+03 -1.52083E+04  6.03243E+03 -1.64617E+04  9.14808E+03 -1.14492E+04  1.25632E+04 -4.06602E+03
  1.30926E+04  1.10801E+04 -9.84455E+02  1.85146E+04 -1.12116E+04  1.07061E+04 -1.04638E+04 -8.62324E+02
 -1.42416E+04 -1.65828E+04 -6.16590E+03 -1.91638E+04  7.29000E+03 -1.34444E+04  1.26886E+04 -3.62119E+03
  1.08951E+04  2.19710E+02  8.29813E+03  3.80157E+03  1.00735E+04 -7.62634E+02  6.76805E+03 -6.60140E+03
  1.33019E+04  5.10364E+03  1.35264E+04  1.39235E+04  6.38181E+03  2.77290E+04  4.35469E+02  2.56102E+04
 -1.56781E+04  1.98894E+04 -1.94960E+04  2.25911E+03 -2.85831E+04 -2.30998E+03 -1.68138E+04 -1.69736E+04
 -1.15152E+04 -1.97410E+04  7.22855E+03 -1.68588E+04  1.76584E+04 -9.56435E+03  1.31544E+04  3.01953E+03
  9.53836E+03  9.77978E+03 -9.89971E+03  1.27337E+04 -1.07313E+04  3.98768E+03 -1.21290E+04 -5.62374E+03
 -3.41866E+03 -1.22112E+04  7.13522E+03 -7.40105E+03  1.09313E+04 -2.87634E+03  4.43817E+03  6.71706E+03
 -6.21621E+03  1.58288E+03 -1.54942E+03 -4.77636E+03  1.71619E+03 -1.01366E+04  8.96663E+03 -9.23746E+03
  1.30346E+04 -1.40812E+03  1.01572E+04  3.29393E+03  9.14029E+03  1.10567E+04  4.14341E+03  1.14472E+04
 -1.89974E+03  1.36814E+04 -7.95975E+03  7.27484E+03 -9.07645E+03  6.54280E+03 -8.35401E+03  4.11909E+02
 -1.02372E+04 -6.70269E+03 -3.19883E+03 -4.47505E+02 -1.08941E+03  3.12769E+03 -6.74439E+03  4.94431E+03
 -1.26769E+04 -1.21492E+03 -8.65658E+03 -3.74903E+03 -3.96697E+03 -1.34522E+04  5.59059E+03 -8.16553E+03
  5.61015E+03 -6.54073E+03  5.86858E+03  1.85622E+03 -1.03676E+03  3.66093E+03 -3.38324E+03  2.56795E+02
  2.45523E+01 -7.63947E+03 -5.91188E+02 -1.16268E+04  6.86372E+03 -1.05360E+04  6.30110E+03 -3.98486E+03
  1.19925E+04 -2.75454E+03  9.71325E+03  7.38416E+03  1.33815E+03  1.32095E+04 -3.97745E+03  6.63199E+03
 -5.77803E+03  4.07074E+03 -6.98564E+03 -5.36030E+03  1.08251E+03 -1.97626E+03  4.18010E+03  9.16991E+02
  1.23346E+03  4.01633E+03  1.07272E+03  6.50253E+03 -4.62331E+03  6.83637E+03 -5.31009E+03  3.70413E+03
 -5.17371E+03 -4.80382E+03  1.34635E+03 -6.71406E+03  4.87282E+03 -5.27798E+03 -1.10321E+03  6.70724E+03
  4.45216E+03  6.77091E+03 -5.23091E+03  2.65972E+03 -3.92269E+03 -2.33848E+03 -3.71302E+03  1.47765E+03
 -1.15452E+03 -6.02353E+03  1.81237E+03 -7.61397E+03  8.94698E+03 -2.57557E+03  6.18319E+03 -1.84788E+03
  6.71128E+03  5.37307E+03  1.28661E+03  6.43312E+03 -6.85586E+03  1.30025E+03 -1.95380E+03 -3.79726E+03
 -4.36273E+03 -7.97625E+03 -2.04741E+03 -6.74976E+03  2.54094E+03 -1.46350E+03  5.37011E+03 -2.19397E+03
  2.72850E+03  3.05336E+02  9.17725E+02  1.42780E+03 -1.44428E+03  8.70388E+02 -3.25337E+03  2.32917E+03
  3.67351E+03 -8.33688E+02  4.75564E+03  1.69982E+03  4.26644E+03  5.39247E+03  4.54665E+03  5.32660E+03
 -4.75648E+03  9.69924E+03 -6.09710E+03  4.53856E+03 -9.79077E+03  8.69129E+02 -4.90249E+03 -1.13448E+03
 -3.74069E+03 -4.82445E+03 -3.43433E+03 -9.88373E+03  3.03030E+03  1.66256E+03  2.43118E+02 -1.19899E+03
  8.90604E+02  8.50861E+01  2.41552E+03 -1.69912E+03  6.87608E+03 -1.61068E+03  6.56797E+03  2.13668E+03
  4.39413E+03 -1.73454E+03  1.35352E+02  5.88955E+03 -1.92219E+03  7.10445E+02 -4.22921E+03  9.09744E+02
 -7.31908E+03 -1.47236E+03 -3.76312E+03 -2.96605E+03  2.85960E+03 -5.07335E+03  1.04351E+03 -2.19685E+03
  5.51120E+03  8.44831E+02  8.17394E+03  2.03389E+01  5.52575E+03  6.27609E+03  6.83267E+01  7.40030E+03
 -4.06536E+03  5.07956E+03 -8.08391E+03  6.13103E+02 -1.14957E+02 -6.97964E+02  6.43904E+02  5.54644E+02
 -1.55364E+03  3.66259E+02 -4.52138E+03  3.67135E+03 -1.25151E+03  1.04782E+03 -5.84435E+03  3.28808E+03
 -3.00834E+03 -1.46070E+03  7.48931E+02 -9.34337E+03  2.24922E+03 -7.28919E+02  4.23880E+03  8.62702E+02
  2.76892E+03  1.81681E+03 -1.73613E+03  4.41446E+03 -2.14515E+01  4.41809E+02 -4.62266E+03  1.38839E+03
 -2.90400E+03  4.41315E+03 -5.99998E+03 -3.56392E+03 -1.16721E+03 -1.86230E+03  6.15507E+03 -2.45746E+03
  3.61040E+03 -2.19091E+03  3.40343E+03  5.99962E+03  9.77381E+01  5.45235E+03  5.75009E+03  5.27480E+03
  1.47144E+03  7.52032E+02  2.07076E+02  3.53826E+03  6.01951E+03  1.86110E+03  1.32480E+03  4.06036E+03
 -6.73722E+03  2.55980E+02 -1.69434E+03  7.89137E+01 -1.35640E+03 -1.68500E+03 -1.97083E+03  4.96744E+02
 -2.40282E+03 -1.68132E+03 -1.20025E+03 -4.73106E+03  2.80911E+01 -3.86918E+03  2.96210E+03 -4.47683E+03
  4.10558E+03 -8.46848E+02  3.10826E+02  1.50933E+03 -4.19543E+01 -2.24878E+03  5.68738E+02 -4.57070E+03
  1.25611E+03  1.45859E+03  6.40982E+02 -5.42932E+02  4.55529E+03 -4.47436E+02 -1.13694E+03  1.57367E+03
 -2.28634E+03 -1.16223E+03 -1.37884E+03  6.05706E+02  4.66029E+02  4.44758E+02  3.35219E+03  5.41881E+02
  5.95439E+03 -2.64518E+03  7.03056E+02  1.26955E+03  3.85018E+03  9.82213E+02  7.67625E+01  4.55867E+02
  2.13696E+03  2.63827E+03  8.18092E+02 -1.92659E+02 -4.12067E+02 -2.79094E+03 -8.02238E+02 -2.47546E+02
 -4.29736E+02  2.73601E+03 -3.03183E+03  2.20994E+03  1.61304E+03  7.62243E+02 -2.36424E+02  2.43144E+03
  1.24610E+03 -4.14804E+02 -7.33669E+02 -1.85482E+03 -2.46605E+03 -1.34255E+03 -7.30452E+02  2.93060E+01
 -5.57596E+02  2.23678E+01 -4.11510E+03  1.81570E+03 -1.51217E+03 -2.85139E+03 -9.10878E+02  2.75319E+03
 -8.68707E+02  2.33531E+03 -1.10005E+03  1.75246E+03  3.21615E+03  4.53881E+03  3.83583E+03 -1.07010E+03
 -3.33576E+03 -2.01500E+03  2.89148E+03  2.08648E+03 -1.50711E+03  1.35886E+03  8.77697E+02  1.86590E+03
 -1.99982E+03 -1.37709E+03 -3.55044E+03 -1.93250E+03 -2.67354E+03 -3.50965E+03  6.50732E+02  2.89822E+03
  1.99261E+02 -2.25732E+03  5.19890E+02  3.51236E+03 -3.36372E+02  1.07957E+03  8.45692E+02  4.56650E+03
  7.42748E+02 -3.27069E+03  2.69327E+03  2.17873E+03 -2.86516E+03  2.57358E+03  8.22378E+02  3.62399E+03
  2.54675E+03  5.24547E+03 -3.49482E+03  4.87921E+02 -9.51758E+02  4.42140E+02 -4.95113E+02 -3.09772E+03
 -4.01683E+03 -2.63117E+03 -1.93623E+03 -2.05313E+03 -1.46772E+03 -8.63860E+02  1.43948E+03  3.00617E+03
  1.54180E+03 -9.36930E+02 -4.29682E+03  4.82757E+02 -1.73155E+03  2.96998E+03  5.18226E+00  2.51019E+03
 -2.33508E+02  2.90212E+03  5.38145E+03 -1.29478E+03  2.79661E+02 -3.78922E+03 -4.09757E+03  1.50846E+03
  2.48827E+03 -2.56370E+03 -2.20789E+02 -1.38909E+02  1.05938E+03 -2.66375E+03  1.86966E+03 -1.68828E+03
  3.61915E+02  2.93620E+03 -1.21222E+03  1.29396E+03  1.23255E+03  1.75443E+03 -1.42246E+03 -6.36650E+02
 -5.03199E+03  1.31863E+03 -1.19144E+03 -1.54193E+03 -2.38046E+03  1.98884E+03 -7.15338E+02 -2.57839E+02
  1.52939E+03 -2.42421E+03  9.60762E+02  1.15621E+03  1.03038E+03 -2.17837E+03  2.74988E+03  1.37505E+03
  9.18439E+02  2.40836E+03  3.38172E+03  3.07064E+03  7.79465E+02  1.67928E+03 -4.23840E+03 -1.37771E+03
  2.36707E+03  3.70045E+03  3.01819E+03 -7.74751E+02 -3.44045E+03 -1.20813E+03  1.11930E+03  1.28531E+03
 -5.88914E+03  9.98311E+02  3.17427E+02  5.53457E+02 -3.97678E+03 -3.30910E+03 -1.18133E+03  9.53786E+01
  1.14119E+03  3.19241E+03  8.77906E+02  3.79721E+03 -3.36749E+03  3.85171E+02  5.05214E+03 -3.00370E+03
  4.23401E+03  2.00583E+03  3.00063E+02 -9.41390E+02  1.67758E+03  1.57247E+02  2.37570E+03 -3.37499E+03
 -1.86750E+03 -1.73117E+03 -2.55196E+03 -1.47346E+03 -1.03549E+03  2.41007E+03 -2.09873E+03 -1.50598E+03
 -2.00605E+03 -1.15410E+03 -8.75379E+02 -2.14351E+03 -1.20669E+03  3.53045E+03  1.85101E+03 -5.19203E+03
  2.50825E+03  2.29447E+03 -3.16453E+02  2.36192E+03 -5.72411E+02 -4.41059E+02 -4.45993E+02  6.67851E+02
