 $NMID ID='MM_0lb_SNR50_7hz_g45_90.RAW', FMTDAT='(8E13.5)'
 TRAMP=1., VOLUME=1. $END
  3.12551E+05  7.34880E+03  3.42169E+05  2.52094E+05  8.72120E+04  3.40246E+05 -1.31471E+05  2.42484E+05
 -1.79775E+05  8.29617E+04 -1.18351E+05 -3.38950E+04  9.71339E+02 -4.90640E+04  6.25100E+04  2.33454E+03
  4.05735E+04  4.53741E+04 -1.70497E+04  7.25689E+04 -5.12234E+04  6.03458E+04 -9.19420E+04  3.08568E+04
 -8.17408E+04 -7.94059E+03 -6.51197E+04 -5.43851E+04 -6.39802E+03 -6.92522E+04  3.46179E+04 -5.03393E+04
  4.05631E+04  5.37862E+03  1.64497E+04  3.74988E+04 -3.78809E+04  4.76407E+04 -6.44351E+04  9.75453E+03
 -6.25256E+04 -5.65492E+04 -5.12658E+03 -7.52753E+04  3.00924E+04 -4.99734E+04  4.45980E+04 -2.03971E+04
  3.82999E+04  1.00249E+04  3.42063E+04  2.31717E+04  1.26388E+04  3.04625E+04 -7.67749E+03  3.17494E+04
 -2.28462E+04  1.04576E+04 -2.46141E+04 -9.34232E+03  1.36886E+03 -1.18960E+04  2.15252E+04  9.79161E+03
  1.25477E+03  3.75612E+04 -2.72894E+04  4.44035E+04 -7.45290E+04  1.29784E+03 -6.29645E+04 -4.19321E+04
 -1.50091E+04 -6.64961E+04  4.20915E+04 -5.00529E+04  6.05069E+04 -3.60300E+03  4.68094E+04  3.44730E+04
 -5.44759E+03  3.97486E+04 -2.46041E+04  1.93612E+04 -3.04899E+04 -8.64902E+03 -1.71512E+04 -9.86112E+03
 -6.28572E+03 -1.19098E+04  2.49714E+03 -2.05323E+04  6.53149E+03 -1.98135E+04  1.32600E+04 -1.72108E+04
  1.21462E+04  1.07892E+04 -6.86587E+03  1.31063E+04 -1.69393E+04 -3.73796E+03 -7.67728E+03 -4.29622E+04
  2.71395E+04 -4.49597E+04  5.07173E+04 -1.74986E+04  5.36983E+04  2.53090E+04  1.87750E+04  5.19191E+04
 -1.37322E+04  3.74677E+04 -3.07084E+04  8.82628E+03 -7.02877E+03 -3.36396E+04  1.98590E+04 -4.18655E+04
  4.89760E+04 -1.36844E+04  4.00944E+04  2.46077E+04  3.11391E+04  5.44619E+04 -1.14749E+04  5.68051E+04
 -3.88874E+04  3.69455E+04 -4.75887E+04  4.30779E+03 -4.61729E+04 -2.78361E+04 -2.08758E+04 -3.95487E+04
  1.01790E+04 -4.40449E+04  3.87285E+04 -1.78506E+04  3.32464E+04  1.27541E+04  1.70682E+03  2.27376E+04
 -1.60538E+04  1.43843E+04 -2.32062E+04 -8.40146E+03  6.05829E+03 -1.47207E+04  1.34318E+04  9.79249E+03
  6.93420E+03  2.73162E+04 -1.89801E+03  2.05697E+04 -2.42513E+04  1.17068E+04 -3.27090E+04 -4.47371E+03
 -1.83611E+04 -2.08168E+04 -1.73386E+04 -3.01594E+04  7.77461E+03 -2.17655E+04  2.42385E+04 -2.70962E+04
  3.69420E+04 -1.46461E+04  3.83333E+04 -1.93046E+03  2.61458E+04  1.95986E+04  8.00961E+02  3.89508E+04
 -2.32307E+04  3.44044E+04 -3.13487E+04  1.40931E+04 -2.38685E+04 -7.30963E+03 -3.12473E+03 -1.05021E+04
 -6.40963E+03  7.26771E+03 -5.80389E+03  3.89755E+03 -2.12453E+04  4.95942E+03 -2.47023E+04 -7.42685E+03
 -8.35243E+03 -2.09530E+04  7.35183E+03 -2.14782E+04  2.49091E+04 -2.18608E+04  2.52473E+04 -9.28594E+03
  1.84692E+04  1.05112E+04 -5.55270E+03  2.79240E+04 -2.27985E+04  1.32996E+04 -2.74550E+04 -5.64168E+03
 -1.72336E+04 -3.02884E+04 -7.20817E+03 -2.94942E+04  1.83692E+04 -2.51586E+04  2.68855E+04 -1.60654E+04
  2.43047E+04 -4.15231E+03  1.46392E+04  5.11601E+03  1.10483E+04  1.03260E+03  1.93942E+04 -3.94042E+03
  1.75030E+04 -6.97427E+03  1.78465E+04  1.87987E+04  2.22059E+04  3.78901E+04  5.07997E+03  4.72328E+04
 -2.22455E+04  3.80224E+04 -4.35270E+04  2.47291E+04 -5.33947E+04 -3.68931E+03 -4.20039E+04 -2.53940E+04
 -1.81402E+04 -4.05474E+04  8.19061E+03 -3.22446E+04  3.01969E+04 -1.80456E+04  2.21441E+04  1.14312E+04
  8.13594E+03  2.59451E+04 -1.47451E+04  1.45322E+04 -1.36136E+04  5.30905E+03 -1.45373E+04 -1.21663E+04
  6.92985E+01 -1.36821E+04  9.75997E+03 -1.30910E+04  1.59573E+04  4.09060E+03  8.78256E+02  1.35078E+04
 -1.46850E+04  1.05230E+04 -1.28220E+04 -1.33217E+03  3.95923E+03 -2.26203E+04  1.60308E+04 -1.90377E+04
  3.10924E+04 -1.43014E+04  3.82305E+04  3.72553E+02  2.17188E+04  1.85374E+04  9.37975E+03  2.87111E+04
 -9.35252E+03  3.89173E+04 -2.28149E+04  2.14599E+04 -2.03572E+04  3.97805E+03 -1.95502E+04 -1.14336E+04
 -8.01142E+03 -6.04896E+03  4.21563E+03 -6.29959E+03 -3.40605E+03  5.19729E+03 -1.11338E+04  7.29735E+03
 -1.46573E+04 -4.62384E+03 -1.75842E+04 -1.78080E+04 -8.06402E+03 -2.54468E+04  3.94139E+02 -2.26089E+04
  1.84121E+04 -8.27934E+03  1.51356E+04  4.26496E+03 -6.02509E+03 -7.92821E+02 -1.12432E+04  3.42079E+03
 -1.64005E+04 -1.25903E+04 -1.07637E+04 -1.36567E+04  1.31990E+04 -1.54895E+04  1.09348E+04 -9.69161E+03
  2.05802E+04  1.05708E+04  1.66448E+04  2.03041E+04  5.00666E+03  1.79338E+04 -1.01096E+04  1.71062E+04
 -1.20349E+04  4.43167E+03 -6.98902E+03  1.51246E+03  5.95255E+03 -3.39766E+03  1.33588E+04  1.71501E+03
  1.02541E+04  9.86766E+03  5.84928E+03  2.12781E+04 -1.20625E+04  8.51362E+03 -1.82294E+04  3.86600E+03
 -1.52311E+04 -1.26423E+04 -7.91733E+03 -1.66570E+04  2.30308E+03 -1.14510E+04  1.40342E+04  7.22088E+03
  5.11248E+03  1.47138E+04 -1.35210E+04  1.11361E+04 -1.82751E+04  3.47001E+03 -2.33955E+04 -5.34844E+03
 -7.78503E+03 -1.53162E+04  5.13256E+03 -1.58553E+04  2.18170E+04 -1.30276E+04  2.12917E+04  5.15542E+03
  7.90774E+03  1.37526E+04  5.70166E+02  1.73978E+04 -1.62865E+04  1.28314E+04 -1.34008E+04  1.72478E+03
 -1.39974E+04 -1.21232E+04  2.13519E+03 -1.71120E+04  6.02115E+03 -2.75532E+03  1.32820E+04 -4.25770E+03
  1.24736E+04  6.68165E+03 -5.76334E+03  4.79440E+03  1.09442E+03  6.81348E+03  5.34476E+03 -3.33810E+03
  7.66933E+03 -9.38893E+03  1.90980E+04  4.44347E+03  2.14906E+04  8.06313E+03  1.00976E+04  2.71819E+04
 -3.82800E+03  3.16976E+04 -2.98347E+04  2.22526E+04 -3.26300E+04  2.51558E+03 -1.98482E+04 -4.28359E+03
 -1.63522E+04 -2.02115E+04  2.61912E+02 -1.19556E+04  1.26003E+04 -7.47510E+03  1.16435E+04 -5.43744E+03
  8.54600E+03 -7.94662E+03  5.87094E+03 -4.05647E+03  7.38284E+03  1.35353E+02  3.87008E+03 -1.75727E+03
  1.26943E+04  1.08965E+04  6.21947E+03  1.59852E+04  2.85670E+03  1.87123E+04 -1.63868E+04  2.81408E+03
 -1.54491E+04 -9.39780E+03 -1.18241E+04 -1.03782E+04 -5.33993E+03 -1.96831E+04  1.25662E+04 -1.57703E+04
  1.65864E+04 -1.02041E+04  2.62013E+04  9.74749E+03  1.52022E+04  1.56228E+04 -1.93206E+03  1.96639E+04
 -7.69572E+03  2.49321E+04 -9.75725E+03  6.32814E+03 -1.40596E+04 -1.08657E+04 -7.79075E+03 -7.27988E+03
 -6.09459E+02 -3.85424E+03 -2.19745E+02  2.57534E+03 -5.10895E+03  6.71635E+03 -1.04452E+04  1.82326E+03
 -1.20651E+04 -1.07066E+04 -2.40135E+03 -1.23297E+04  9.35153E+03 -8.86916E+03  1.72260E+04 -6.26767E+03
  1.65387E+04  3.82915E+03  1.07081E+04  2.29877E+04 -4.19693E+03  2.59587E+04 -1.47870E+04  1.14513E+04
 -2.05170E+04  2.46875E+03 -1.65016E+04 -1.60623E+04 -3.49473E+03 -2.53703E+04  7.53949E+03 -1.33568E+04
  1.49726E+04 -2.54074E+03  9.72277E+03  1.94643E+03  1.41648E+02  1.10809E+04  2.36356E+02  2.62398E+03
  8.03052E+02  2.01054E+03  5.92562E+03  3.50094E+03  1.17221E+03  1.84267E+03 -1.72763E+03  5.80790E+03
 -9.37550E+03  1.60812E+04 -1.44890E+04  1.08644E+04 -2.19855E+04  5.22738E+03 -1.95126E+04 -1.37840E+04
 -3.96186E+03 -1.76299E+04  6.50947E+03 -1.47913E+04  8.77825E+03 -1.39723E+04  1.31936E+04 -4.85513E+03
  7.62692E+03  1.19647E+04 -8.39914E+02  4.63920E+03 -3.85555E+03  1.05905E+03 -3.66246E+03  5.63829E+03
 -3.11613E+03 -8.16193E+03  5.60623E+03 -1.36449E+04  1.34324E+04 -1.02282E+04  1.01479E+04  6.28949E+02
  2.39801E+03  2.85116E+03  6.54656E+03  5.42547E+03 -2.62925E+03  3.52498E+03  4.45013E+03  3.11674E+03
  1.42454E+04 -2.72032E+03  2.39376E+03  6.53718E+03  8.49977E+03  7.21628E+03  1.90688E+03  1.12109E+04
 -1.42757E+04  1.39754E+04 -1.55955E+04 -4.59613E+01 -1.36769E+04 -5.77919E+03 -4.10457E+03 -4.97510E+03
 -1.52570E+03 -1.49943E+04  7.29342E+02 -8.89269E+03  1.03198E+04  8.83241E+03 -7.02698E+03  8.70500E+03
 -7.65390E+03  1.29808E+04 -5.29389E+03  4.26786E+02  7.88967E+02 -3.13863E+03 -2.46663E+03 -3.93168E+03
  7.90243E+03 -1.32897E+04  1.23094E+04  2.14563E+03  4.97531E+03  6.39429E+03  3.01304E+03  6.14524E+03
 -2.80867E+03  3.71099E+03 -1.00282E+04 -7.20359E+03  1.66885E+02 -8.13731E+03  7.79024E+03 -3.41974E+03
  1.48206E+04  5.83892E+02  1.49234E+04  1.00497E+04  7.07913E+03  2.28182E+04 -5.12426E+03  9.98557E+03
 -5.33510E+01  1.08579E+04 -1.67501E+04 -2.69835E+03 -7.56897E+03 -9.37821E+03 -2.67041E+03 -5.91721E+03
  1.30538E+04  1.49596E+02  1.14580E+04 -8.01391E+02  1.95099E+03  6.32627E+03 -2.51459E+03  1.94372E+03
 -3.71892E+03  6.06937E+03 -3.06236E+03 -1.49789E+03 -2.20872E+03  3.79516E+03  2.65531E+03 -3.93048E+03
 -6.56182E+02  2.13555E+02 -6.29828E+03  2.75984E+03 -1.76068E+04 -1.87058E+03 -1.68076E+04 -2.93769E+03
 -7.12171E+03 -2.00808E+04  8.27931E+03 -2.66999E+04  1.58893E+04 -1.21113E+04  2.41477E+04 -9.16938E+03
  1.35568E+04  2.45844E+03  5.90234E+03  1.88069E+04  2.19228E+03  1.75190E+04 -7.10311E+03  6.84627E+03
 -4.96343E+03  3.57945E+03 -4.18164E+03 -2.76141E+03 -2.74984E+03 -4.24792E+03 -2.91452E+03  1.14530E+03
 -7.25956E+02  6.51675E+03 -1.16803E+04  6.51988E+03 -4.47830E+03 -5.54626E+03 -2.29795E+03 -1.18279E+04
  7.53923E+03  5.96283E+03  1.44850E+04  1.35148E+03  1.02560E+04 -2.11589E+02  9.52206E+03  1.65619E+04
 -8.83650E+03  1.68627E+04 -2.00239E+04  1.06964E+04 -2.15108E+04 -1.37982E+03 -1.02146E+04 -6.70688E+03
 -5.81600E+03 -1.29255E+04  1.35664E+04 -8.54955E+03  1.05465E+04 -2.10248E+03  6.58423E+03  6.88232E+03
 -7.13690E+01 -2.36065E+03 -5.46297E+03  6.64091E+03  3.02558E+03  7.87260E+02  1.61062E+03 -3.17264E+03
  3.74745E+03 -3.01396E+03  6.12843E+03 -1.22933E+03  1.05191E+03  1.12836E+04 -2.22447E+02  1.10455E+03
 -9.75575E+03  7.85484E+03 -5.48861E+03  2.51319E+03 -6.49386E+03 -7.85991E+03 -3.87387E+03 -1.21404E+04
  1.44669E+03 -1.07592E+04  1.26862E+04 -1.63707E+03  8.86179E+03 -3.43902E+03  3.68774E+03  1.32613E+04
  4.59993E+03  1.39563E+04 -1.75034E+03  3.33852E+03 -3.17920E+03  6.66109E+03 -3.73557E+03 -3.16030E+03
  1.82611E+03 -7.66224E+03 -8.43922E+03  1.52900E+03 -4.85166E+03 -3.79795E+03 -1.22446E+04  3.49590E+03
 -9.54450E+03 -5.19553E+03 -6.05105E+03 -8.57852E+03  6.58106E+03 -7.26439E+03  1.12231E+04 -4.87635E+03
  6.97015E+03  5.43160E+03  4.74787E+03  1.19451E+04  3.08104E+03  1.59518E+04 -1.70607E+04  8.06582E+03
