 $NMID ID='MM_0lb_SNR50_19hz_g45_33.RAW', FMTDAT='(8E13.5)'
 TRAMP=1., VOLUME=1. $END
  3.07895E+05  1.34671E+03  3.32539E+05  2.49419E+05  8.49644E+04  3.35922E+05 -1.31658E+05  2.50046E+05
 -1.92674E+05  8.17358E+04 -1.15644E+05 -3.05106E+04  1.77354E+03 -4.84584E+04  5.32521E+04  2.38209E+03
  4.05900E+04  5.41191E+04 -1.51462E+04  7.75394E+04 -6.13592E+04  6.15882E+04 -7.70844E+04  3.35115E+04
 -7.99655E+04 -1.18978E+04 -5.53219E+04 -4.87607E+04 -1.41460E+04 -6.84551E+04  3.05431E+04 -4.34715E+04
  3.60364E+04  3.79479E+03  1.13547E+04  4.56114E+04 -3.16168E+04  5.05747E+04 -6.41769E+04  4.36937E+01
 -4.79348E+04 -5.51124E+04 -7.50092E+03 -7.44757E+04  3.62440E+04 -4.75131E+04  3.97295E+04 -1.42987E+04
  3.47983E+04  1.02258E+04  3.31139E+04  1.85884E+04  1.79272E+04  2.34054E+04 -4.29886E+03  2.44197E+04
 -1.88088E+04  1.55846E+04 -1.87784E+04 -7.78151E+03  6.35937E+03 -7.43852E+03  2.17367E+04  1.07780E+04
  7.40377E+03  3.36847E+04 -3.17154E+04  2.77509E+04 -6.09046E+04  5.69513E+03 -5.65037E+04 -4.02302E+04
 -8.64328E+03 -6.26872E+04  4.02973E+04 -4.39507E+04  5.26677E+04 -3.73402E+03  2.88444E+04  2.94381E+04
 -4.83879E+03  3.37712E+04 -2.58336E+04  1.01813E+04 -2.82654E+04 -9.00115E+03 -1.89170E+04 -8.93378E+03
 -6.33303E+03 -1.11999E+04 -1.47743E+03 -1.72073E+04  5.92572E+03 -2.27069E+04  1.57081E+04 -1.65606E+04
  9.94613E+03  1.08265E+04 -7.66453E+03  1.45730E+04 -1.68661E+04 -6.67038E+03 -1.11787E+04 -2.91478E+04
  1.98739E+04 -4.10081E+04  4.37337E+04 -1.65038E+04  3.74966E+04  1.98708E+04  1.62056E+04  4.32297E+04
 -1.62319E+04  3.09673E+04 -2.50257E+04  2.74550E+03 -8.46795E+03 -2.47343E+04  2.05193E+04 -2.88608E+04
  3.59133E+04 -5.88280E+03  2.92301E+04  2.11031E+04  1.49714E+04  4.44067E+04 -3.46607E+03  4.90812E+04
 -2.94013E+04  3.10737E+04 -3.52355E+04  6.58266E+03 -3.73631E+04 -1.36792E+04 -1.99469E+04 -3.50384E+04
  9.34189E+03 -3.70653E+04  2.74126E+04 -1.33638E+04  2.67095E+04  1.14763E+04  2.67207E+03  1.53989E+04
 -1.05723E+04  8.43156E+03 -1.12665E+04 -5.78954E+03  4.26955E+03 -1.37623E+04  1.50117E+04  6.07016E+03
  1.42113E+04  2.07216E+04 -8.18175E+03  2.52232E+04 -2.28243E+04  9.24914E+03 -2.68417E+04 -3.63988E+03
 -1.48306E+04 -1.49522E+04 -7.68756E+03 -1.26361E+04  2.71454E+03 -1.18607E+04  1.17566E+04 -1.65555E+04
  2.47151E+04 -6.06743E+03  2.61378E+04 -1.85084E+03  1.83355E+04  1.31395E+04  5.26490E+03  3.08400E+04
 -1.47185E+04  2.47963E+04 -2.42428E+04  1.09158E+04 -2.36789E+04 -1.20785E+04  6.20838E+02 -1.69311E+04
 -6.44140E+02 -8.45016E+03  3.51578E+03  4.30980E+03 -1.00080E+04  6.96851E+03 -7.88719E+03 -4.40659E+03
 -1.09962E+04 -1.35494E+04  1.49256E+03 -1.29959E+04  1.14933E+04 -1.73003E+04  1.68125E+04 -2.79974E+03
  9.20100E+03  1.17567E+04  4.22029E+03  1.61715E+04 -9.60351E+03  6.61434E+03 -1.26878E+04 -1.03111E+03
 -7.60934E+03 -1.36544E+04  3.61355E+03 -1.92685E+04  1.15592E+04 -1.41296E+04  1.59418E+04 -4.14251E+03
  1.09980E+04  2.35885E+02  8.60461E+03  2.03853E+03  3.83336E+03  1.56521E+03  9.96437E+03 -2.64944E+03
  1.40826E+04 -2.73354E+03  1.58885E+04  9.16203E+03  8.28773E+03  2.40781E+04 -1.14348E+03  2.36347E+04
 -1.80882E+04  2.02235E+04 -2.01787E+04  1.49990E+04 -2.16595E+04 -2.07974E+03 -2.04855E+04 -1.32106E+04
 -5.33917E+03 -1.99309E+04  4.70491E+03 -1.67604E+04  1.31333E+04 -1.04436E+04  1.32671E+04  4.21652E+03
  1.37027E+03  6.55815E+03 -6.29794E+03  8.25983E+03 -1.44993E+04  5.28015E+03 -6.24141E+03 -8.89103E+03
  4.32784E+02 -8.96760E+03  5.74101E+03 -5.85458E+03  7.34151E+03  3.97679E+03 -5.81630E+02  6.21490E+03
 -4.27628E+03 -1.08160E+03 -5.11572E+03 -5.62031E+03  1.26207E+03 -9.44034E+03  6.24144E+03 -7.81879E+03
  1.36086E+04 -1.69035E+03  1.15775E+04  6.26050E+03  1.01597E+04  9.82478E+03  2.49860E+03  9.62001E+03
 -4.76937E+03  1.34562E+04 -6.89203E+03  1.45626E+04 -1.31807E+04  6.74578E+03 -6.26034E+03 -4.14593E+03
  5.42409E+02 -1.46638E+03 -4.23217E+02  1.15888E+03 -8.81763E+02  1.87571E+02 -5.17423E+03  3.18028E+03
 -1.05551E+04 -3.63292E+03 -5.47664E+03 -7.30609E+03 -4.51190E+03 -1.43981E+04  6.40429E+03 -8.74928E+03
  4.60233E+03 -6.94169E+03  3.40965E+03 -2.46066E+02  2.03620E+03  6.74033E+03 -2.60223E+03  2.03651E+03
 -5.57906E+03 -2.20521E+03 -4.16803E+03 -3.84373E+03  9.10699E+03 -7.75546E+03  1.17112E+04 -2.63558E+03
  7.49392E+03  1.09057E+03  9.85090E+03  5.77844E+03  5.50248E+03  1.21497E+04 -5.75284E+03  7.74407E+03
 -6.82193E+03 -7.24859E+02 -5.45887E+03 -2.29973E+03  3.30980E+03 -2.73428E+03  4.73634E+03  2.70798E+03
  3.17732E+03  1.07252E+03 -2.17424E+03  4.53809E+03 -4.83169E+03  5.61397E+03 -7.36673E+03  3.45318E+03
 -8.10311E+03 -5.06472E+03  7.28237E+02 -7.74423E+03  2.58005E+03 -6.49800E+03  2.20064E+03  1.13171E+03
 -2.00128E+03  4.55838E+03 -2.27682E+03  5.25143E+02 -3.68892E+03 -2.65025E+01 -3.25755E+03 -2.88841E+03
 -3.94469E+03 -5.37988E+03  1.68293E+02 -9.61341E+03  7.14070E+03 -4.42396E+03  4.82282E+03  1.72003E+03
  4.19770E+03  3.63801E+03  1.18301E+02  7.13108E+03 -4.59255E+02  6.59912E+03 -3.07658E+03 -2.02053E+03
 -4.80788E+03 -6.76386E+03 -6.05645E+03 -3.46615E+03  3.63302E+02 -4.76917E+03  2.89837E+03 -3.99362E+03
  1.97764E+03  8.99168E+02  1.00540E+03  1.87945E+03 -5.92348E+01 -6.67590E+02  2.51601E+03 -3.79751E+03
  4.10204E+03 -2.09408E+03  4.76083E+03  3.30003E+01  5.48112E+03  3.45242E+03  3.85481E+03  8.16552E+03
  7.94583E+02  6.82992E+03 -9.59766E+03  6.50352E+03 -9.30375E+03  1.60369E+03 -7.93502E+03 -1.63083E+03
 -2.85915E+03 -4.09657E+03  3.08005E+01 -3.92961E+03  3.34504E+03  1.93138E+03  4.53008E+02 -2.31695E+03
 -9.78916E+02 -4.15784E+01  2.87057E+03 -6.26643E+03  1.78286E+03 -1.76960E+03  9.15470E+02 -1.36819E+03
  1.97559E+03  5.18994E+03  2.02585E+03  1.06128E+03  6.97983E+01 -1.93671E+03 -1.62782E+03  4.34046E+03
 -1.46985E+03 -1.09395E+03  2.57428E+02 -4.22934E+03  1.03616E+03 -4.52809E+03  1.96853E+03 -7.98461E+03
  4.47266E+03 -4.71736E+03  1.11900E+04  3.34505E+03  3.36768E+03  7.23251E+02  2.53265E+03  4.07736E+03
 -1.89128E+02  3.05411E+03 -1.21856E+03 -5.21207E+02  5.97522E+03  2.94859E+03  3.48782E+03  4.87092E+03
 -3.67446E+02  7.72626E+02 -1.68718E+02  7.06707E+02 -6.16789E+03  3.07713E+03 -6.88791E+03 -1.12446E+03
 -1.07904E+03 -4.08611E+03 -1.14564E+03 -3.44930E+02  6.13477E+02 -7.71976E+03  6.72725E+03 -8.94155E+02
  2.30535E+03  4.77847E+03 -2.03504E+03  8.50271E+03 -1.07749E+03  2.21059E+03 -3.97008E+03  2.40419E+03
 -3.75247E+03  2.90112E+02 -4.88609E+03 -1.30374E+03 -1.81883E+03 -5.47308E+03  3.63481E+03 -4.69324E+03
 -5.79651E+01  5.33227E+02  2.07755E+03  4.90983E+03 -2.33614E+03  1.62895E+03  1.28820E+03 -1.39901E+03
  1.00848E+03 -4.17165E+02  5.93602E+03  2.16664E+02  3.58319E+02 -1.66252E+03  4.69942E+03  3.40739E+03
 -9.73806E+02  3.21539E+03 -5.78251E+03  4.25880E+03 -5.98165E+03  2.22659E+03 -6.20938E+03  6.97233E+02
 -4.69503E+03 -2.94391E+03  1.13972E+03 -3.88473E+03  3.32167E+03 -2.07722E+03  3.75723E+03  3.57430E+02
  7.48433E+02  2.42990E+03 -2.29229E+02  1.74096E+03 -3.34370E+03  3.45815E+03  2.15244E+03 -2.58395E+03
  5.46861E+03 -2.59425E+03  3.00528E+01 -4.51537E+03  3.31885E+03  3.11239E+02  4.77979E+03 -8.85870E+02
 -1.08424E+03  1.17162E+03 -2.75349E+03  3.01598E+03 -2.04341E+03 -3.20956E+03  1.10536E+03 -4.43030E+02
 -7.60481E+02 -2.78481E+03  4.86644E+03 -2.66652E+03 -3.24895E+03  6.88783E+03  1.80729E+03  2.87280E+03
 -3.20750E+03  1.26607E+03 -2.50468E+03  4.26755E+03 -3.96744E+03 -6.84622E+01  4.73006E+02 -6.56507E+02
  2.39317E+03 -6.07943E+03  2.07420E+03 -1.09780E+03  2.76481E+03  3.14944E+02  5.02452E+03  1.80473E+03
 -1.00133E+03  1.59037E+03 -4.82363E+02 -1.51432E+03 -1.89925E+03 -5.20544E+03  4.04271E+03 -2.34967E+03
 -3.20274E+02 -4.33555E+02  9.49422E+02 -3.10893E+03 -9.71060E+02 -1.43778E+03  1.16818E+03  3.13340E+03
  4.25336E+03  2.07669E+02 -4.31979E+03 -3.48357E+03  9.99328E+02  2.91212E+03 -9.97918E+02 -1.06135E+03
  3.14469E+03  2.25823E+03  3.11044E+03 -1.86036E+03  8.59086E+02  4.75668E+03 -4.70908E+03  5.34192E+03
  1.39347E+03  1.04522E+03  1.46588E+03 -5.31234E+02 -3.08166E+03 -2.07242E+02  3.14453E+03 -1.54297E+02
  3.24278E+03 -5.17248E+00 -2.74421E+03  2.47038E+03  7.27785E+01  3.09254E+03  4.02700E+02 -1.54827E+03
  1.80878E+03  1.96293E+03  1.52927E+03 -2.50457E+03  1.41128E+03  2.36095E+03  1.97071E+02  1.01061E+03
 -1.62439E+03  9.10723E+01 -5.20074E+02  3.47222E+03 -2.06513E+03 -2.12554E+03  2.44804E+03 -1.07946E+03
 -2.42026E+03 -2.54977E+03  3.72848E+03 -3.94445E+03  6.05777E+03 -3.66373E+03  2.89220E+03 -4.42362E+02
 -2.97065E+03  1.93072E+03  1.43286E+03  2.93088E+03 -1.43131E+03  2.01585E+03  2.89857E+02  9.59159E+02
 -2.54124E+03 -5.72331E+02  1.73766E+02 -4.14832E+01 -1.82830E+03 -2.82680E+03 -3.68027E+03 -2.34440E+03
  6.27583E+02 -1.93921E+02 -2.78385E+03  1.46454E+03  1.25446E+03 -2.38998E+03  2.23610E+03  1.05260E+03
  1.34183E+03 -1.78473E+03  3.09924E+03 -5.44424E+02  1.42357E+02  5.28405E+03 -1.92808E+03  5.23640E+03
  2.18693E+01  1.16447E+03 -4.20207E+03 -1.65946E+03 -1.32640E+03  1.63818E+03 -3.82536E+03 -1.58710E+03
  2.99389E+02  2.42849E+03  5.07967E+03 -1.75353E+03  1.83646E+03  6.96727E+02  1.06700E+03 -7.02787E+02
  2.13241E+03  4.83424E+02 -4.51641E+03  1.09395E+03 -2.01334E+03 -3.10911E+03 -2.23774E+03 -1.09971E+03
 -1.36745E+02  3.41154E+03 -1.48943E+03 -1.04994E+03 -4.23709E+01 -1.36378E+03 -1.32115E+03 -1.37631E+02
 -2.45137E+03 -3.92331E+03  3.59572E+03 -2.90042E+03 -1.04514E+03  1.30395E+03 -2.92214E+03 -7.16538E+02
 -8.09395E+02 -3.11076E+02 -6.78212E+02  1.08879E+03 -3.27074E+03 -1.72295E+03  2.25546E+03  5.56942E+03
 -1.96861E+03  1.98500E+03  2.44555E+03  1.86802E+03 -4.87698E+02 -1.54547E+03 -2.50916E+02  5.98948E+02
 -8.36184E+02  2.96831E+03  1.45877E+03  2.03689E+03 -4.45769E+03  8.30063E+02 -1.02414E+02 -6.03500E+02
  1.54932E+03  1.18633E+03 -1.59731E+03 -4.02304E+03  1.67017E+03 -1.92928E+03 -1.28545E+03  4.06842E+02
  3.53985E+03  1.82006E+03  1.03066E+03  1.49347E+03  1.64552E+02  2.15476E+03 -8.75994E+02  2.05789E+03
