 $NMID ID='MM_0lb_SNR50_15hz_g60_23.RAW', FMTDAT='(8E13.5)'
 TRAMP=1., VOLUME=1. $END
  3.07955E+05 -4.55802E+03  3.39651E+05  2.50654E+05  8.27502E+04  3.35452E+05 -1.28045E+05  2.53147E+05
 -1.89237E+05  8.36597E+04 -1.12410E+05 -3.61103E+04  3.90687E+03 -5.35843E+04  5.00324E+04 -2.93208E+03
  3.53220E+04  4.88602E+04 -1.49934E+04  7.11574E+04 -6.09639E+04  6.13602E+04 -8.50167E+04  3.33001E+04
 -8.15229E+04 -2.04995E+04 -5.28756E+04 -5.26772E+04 -1.64112E+04 -7.78595E+04  2.54009E+04 -4.55768E+04
  3.58406E+04  7.15792E+02  1.55089E+04  4.58498E+04 -3.65632E+04  4.35980E+04 -6.67731E+04  1.17267E+03
 -5.37401E+04 -5.67552E+04 -4.34787E+03 -8.05368E+04  3.59904E+04 -5.54079E+04  5.07666E+04 -1.84538E+04
  4.43446E+04  6.37099E+03  3.26123E+04  3.00651E+04  2.08130E+04  2.87832E+04 -3.65513E+03  2.55941E+04
 -2.29006E+04  1.04062E+04 -1.92647E+04 -3.52501E+03  3.98260E+03 -1.68118E+03  2.78008E+04  1.27660E+04
  7.43557E+03  3.52571E+04 -2.95677E+04  3.87318E+04 -6.59879E+04  2.95260E+03 -5.33326E+04 -3.90372E+04
 -6.99459E+03 -6.61723E+04  3.66736E+04 -4.29964E+04  6.18607E+04 -6.34552E+01  3.32868E+04  3.81361E+04
 -1.14680E+04  3.53211E+04 -3.06218E+04  1.75140E+04 -3.06625E+04 -7.29795E+03 -1.83874E+04 -1.30871E+04
 -8.07095E+03 -1.48544E+04 -3.72180E+03 -1.69384E+04  1.15437E+04 -2.23438E+04  1.36809E+04 -1.50557E+04
  1.31907E+04  7.30879E+03 -9.18474E+03  1.74853E+04 -2.31298E+04 -5.53295E+03 -7.52679E+03 -3.64468E+04
  2.77766E+04 -4.21895E+04  5.15825E+04 -2.38136E+04  4.66979E+04  1.36359E+04  1.39508E+04  5.05386E+04
 -1.50808E+04  3.00815E+04 -2.95082E+04 -1.74880E+03 -1.12495E+04 -2.89420E+04  1.55173E+04 -3.73356E+04
  4.41797E+04 -9.05800E+03  3.77114E+04  2.08374E+04  1.70452E+04  4.37644E+04 -7.42261E+03  5.00698E+04
 -3.11753E+04  3.42100E+04 -4.07218E+04  1.32361E+04 -4.09150E+04 -1.64124E+04 -2.57763E+04 -3.81619E+04
  7.46506E+03 -3.91759E+04  2.55951E+04 -1.07122E+04  3.24460E+04  1.08013E+04  6.15299E+03  1.98208E+04
 -1.76617E+04  6.89720E+03 -1.65895E+04 -5.86556E+03  4.27855E+03 -1.44066E+04  2.08132E+04  7.98811E+03
  1.14297E+04  1.91084E+04 -4.87347E+03  2.42743E+04 -2.33256E+04  1.48756E+04 -3.01548E+04 -8.32422E+03
 -1.93489E+04 -1.97979E+04 -5.35571E+03 -1.90742E+04  4.36129E+03 -2.10058E+04  1.70481E+04 -1.86497E+04
  2.86939E+04 -6.57251E+03  3.50910E+04  2.99142E+03  2.60648E+04  1.89569E+04 -8.14783E+02  3.83922E+04
 -1.46684E+04  2.98323E+04 -2.97370E+04  1.15703E+04 -2.06671E+04 -7.24579E+03 -3.55586E+03 -1.55031E+04
 -2.43523E+03  6.72406E+02 -5.56695E+03  6.11337E+03 -2.15802E+04  8.02438E+03 -1.40107E+04 -5.26484E+03
 -1.22674E+04 -2.01015E+04  5.96138E+03 -2.82931E+04  1.73522E+04 -1.65475E+04  2.19172E+04 -1.36232E+03
  7.76797E+03  1.52240E+04  2.04822E+03  1.88982E+04 -1.73594E+04  8.98939E+03 -1.89681E+04 -1.05617E+04
 -8.58105E+03 -1.84401E+04 -2.35677E+02 -2.91044E+04  1.15468E+04 -2.06499E+04  2.00400E+04 -8.53083E+03
  2.08175E+04  5.62089E+03  8.76854E+03  4.39840E+03  6.12362E+03  2.95243E+03  9.45752E+03 -5.48690E+03
  2.13646E+04  1.99989E+03  1.60211E+04  1.35652E+04  1.39831E+04  3.17195E+04 -4.06413E+03  3.82348E+04
 -2.09718E+04  3.18131E+04 -3.47957E+04  1.32492E+04 -3.26652E+04 -8.23207E+02 -2.85372E+04 -1.86343E+04
 -9.40062E+03 -2.48661E+04  1.47064E+04 -2.23759E+04  1.84680E+04 -1.70669E+04  1.74620E+04  2.36787E+03
  4.76027E+03  1.65028E+04 -1.19458E+04  1.93408E+04 -1.84700E+04  4.52023E+03 -1.35069E+04 -1.06611E+04
 -5.07005E+03 -1.54691E+04  1.40454E+04 -1.27231E+04  1.14395E+04 -2.95064E+02  3.42730E+03  5.94930E+03
 -9.16896E+03  1.00371E+03 -6.97045E+03 -7.04861E+03 -4.75351E+03 -1.09044E+04  9.04812E+03 -1.66500E+04
  1.94919E+04 -9.00273E+03  2.04311E+04  1.65478E+03  1.58016E+04  1.72904E+04  6.06155E+03  2.40698E+04
 -5.78690E+03  2.44471E+04 -1.51737E+04  1.49070E+04 -1.84037E+04  5.91282E+03 -9.60162E+03 -6.76187E+03
 -9.79177E+03 -5.55889E+03 -5.90818E+00  2.37136E+03 -5.75044E+03 -7.78374E+02 -4.19176E+03  1.04248E+04
 -5.44498E+03  1.57356E+03 -9.31418E+03 -1.18088E+04 -7.06872E+03 -1.25837E+04  6.62409E+03 -1.10739E+04
  7.21436E+03 -3.94142E+03  3.18792E+03  4.36780E+03  5.28081E+02  6.62714E+03 -4.38629E+03 -1.47787E+03
 -8.83190E+03 -8.17954E+03 -8.59029E+02 -1.21521E+04  5.08250E+03 -1.34463E+04  9.06056E+03 -3.78915E+03
  1.98833E+04  2.06316E+03  1.39991E+04  1.20544E+04 -7.24387E+02  1.59498E+04 -6.48221E+03  1.15346E+04
 -8.53900E+03  2.04627E+02 -2.87516E+03 -4.38906E+03  1.30894E+03  1.00485E+03  6.04805E+03 -1.47519E+03
  4.46135E+03 -9.58280E+02  2.19809E+03 -1.58211E+03 -4.30676E+03  6.81067E+03 -1.16838E+04  1.93802E+03
 -6.23329E+03 -5.81234E+03 -7.22951E+02 -4.76288E+03  8.58509E+03 -2.37452E+03  1.08539E+04  7.81846E+01
  2.34415E+03  4.60571E+03 -8.72181E+03  4.91140E+03 -5.16546E+03  4.51111E+03 -1.82392E+03 -2.88872E+03
 -3.87032E+03 -1.14535E+04  3.12152E+03 -1.10741E+04  1.08707E+04 -4.42982E+03  1.19227E+04  4.07591E+03
  4.24322E+03  6.67644E+03 -2.30315E+03  1.28063E+04 -8.55312E+03  1.31847E+03 -9.21687E+03 -4.03022E+03
 -8.25377E+03 -3.30266E+03 -6.33704E+03 -8.67229E+03  3.39066E+03 -1.06977E+03  5.06623E+03 -5.89962E+03
  5.48566E+03  2.30160E+03 -4.78966E+02  4.42867E+03  2.39281E+03 -8.94572E+02  7.58729E+02 -3.69707E+03
  2.61030E+03 -1.42768E+03  1.08335E+04  4.08469E+03  1.03141E+04  5.86925E+03  8.71010E+03  1.37875E+04
 -2.00412E+03  1.63842E+04 -1.16884E+04  5.26717E+03 -1.84622E+04  2.85967E+02 -9.42535E+03 -2.57669E+02
 -1.12761E+04 -1.24758E+04  2.35843E+03 -7.58576E+03  3.12302E+03 -3.45961E+03  3.91199E+03 -5.24130E+03
  5.88538E+03 -5.56482E+03  3.76990E+03 -4.90198E+03  6.62019E+03 -3.42996E+03  3.64991E+03  3.64998E+03
  1.01766E+04  1.72722E+03  3.51910E+03  2.18237E+03 -5.12803E+03  5.19451E+03 -6.00302E+03  6.22853E+03
 -5.16760E+03  1.18419E+03 -5.20141E+03 -5.57973E+03 -4.33052E+03 -3.56370E+03  4.47630E+03 -9.89918E+03
  8.92249E+03 -5.88897E+03  1.40697E+04 -1.62775E+03  1.00894E+03  4.95373E+03 -1.51349E+03  8.36400E+03
 -2.73731E+03  7.67158E+03 -6.70067E+03  4.23440E+03 -6.08756E+03 -4.02701E+01 -2.57424E+03  2.41708E+03
 -2.28115E+03 -1.91338E+03  1.10303E+03  3.62723E+03 -2.29329E+03  2.37089E+03 -5.32481E+03  6.81161E+02
  8.20234E+02 -6.32677E+03 -8.36300E+02 -8.59386E+03  3.24729E+03 -8.65920E+03  9.11100E+02 -2.73621E+03
  6.62523E+03 -1.96823E+02  3.23919E+03  3.98664E+03 -1.40895E+03  1.01962E+04 -1.85614E+03  3.19704E+03
 -8.45784E+03  1.31562E+03 -4.91638E+03 -5.45831E+03 -1.61550E+03 -9.02540E+03 -2.02874E+03 -2.48765E+03
  4.58929E+03 -5.12626E+03 -1.05358E+03  2.93967E+03 -2.91897E+03  1.30043E+03  4.25593E+03 -2.76370E+03
  1.99448E+02 -4.15680E+03  3.93215E+02  3.29215E+03  6.00171E+03  7.34075E+03  3.51285E+03  4.39099E+03
 -2.51310E+03  3.44164E+03 -2.26046E+03  6.62250E+03 -6.29295E+03  4.79389E+03 -6.72146E+03 -5.41426E+03
 -3.56297E+03 -4.96174E+03  8.43730E+02 -1.19511E+04  5.92715E+03 -1.99683E+03  3.26815E+03 -5.27947E+03
  1.65679E+03  7.37364E+02  4.83991E+03 -4.67456E+03  4.21651E+02  2.03687E+03 -6.84032E+03 -1.03894E+03
 -1.92724E+03 -3.18978E+03  2.10931E+03 -6.33599E+03  5.84747E+03 -1.33706E+02 -1.05775E+03  5.43708E+03
  2.84167E+03  1.58789E+03  4.14548E+02  4.56903E+03 -1.05968E+03  3.87459E+03 -1.80309E+03 -4.04089E+03
 -1.83141E+02 -1.96499E+03 -3.03375E+03  5.21053E+03  9.10227E+02  3.60990E+03 -1.52027E+03  4.09030E+03
 -3.74530E+03 -7.25083E+02 -4.80641E+03  9.90723E+02 -7.57534E+03 -1.34150E+03 -1.74474E+03 -1.45326E+03
 -1.29272E+03 -2.02025E+03  3.78155E+03 -3.60391E+03 -4.51071E+02  7.03687E+03 -8.65498E+03  4.69270E+03
 -1.81191E+03 -4.90479E+02 -1.96556E+03 -2.29803E+03  7.41105E+02 -5.18952E+03  3.23069E+03 -3.91688E+03
 -1.20292E+03  7.65998E+02  1.44040E+03 -4.00395E+03  1.01379E+03 -2.46079E+03 -3.33697E+02  3.25430E+03
 -2.42909E+03 -3.27342E+03 -4.64234E+03  1.44395E+03  3.59875E+03 -1.24164E+03  5.24206E+03 -2.12615E+03
  1.57097E+03 -5.64425E+02  7.38927E+02  4.69302E+02  2.73460E+03  2.94440E+03 -2.14642E+03  6.37285E+02
 -6.80746E+03  3.96127E+03 -5.41960E+03  3.43889E+03  3.47482E+02 -7.25809E+03  1.48017E+03 -5.46665E+03
  4.49692E+03 -1.11428E+03  7.25859E+03  6.00972E+03  2.45516E+03  3.37303E+03  3.30568E+03 -1.03286E+03
  4.39707E+02 -1.32137E+03 -2.32554E+03  4.41622E+03  6.15453E+02 -9.79442E+02 -1.08758E+03  3.13000E+03
 -6.30114E+02  3.12666E+03 -3.40615E+03  3.25301E+03 -1.97686E+03  1.76341E+03 -6.24328E+03  8.08336E+02
 -4.19909E+03 -3.03252E+03  2.27134E+02 -8.12073E+03  5.25276E+03 -4.65797E+03  1.36913E+04 -3.31111E+03
  9.61326E+03 -5.02954E+03  6.02654E+03  4.10077E+03 -2.27308E+02  5.24522E+03 -8.34504E+02  4.37708E+03
  2.67760E+02  2.37956E+03 -1.74799E+03 -1.87790E+03  2.20078E+03  4.07912E+03  3.18464E+03  8.91410E+02
 -4.03186E+03  2.67928E+03 -3.62853E+03  3.17326E+02 -4.38020E+03 -2.71427E+03  7.09740E+02 -8.71371E+02
  7.67782E+01 -2.37169E+03 -1.10629E+03  3.88533E+03  3.13666E+03  8.80198E+02  1.80626E+02  1.46149E+03
  1.05897E+02  4.86421E+03 -3.58270E+03  2.47273E+03 -4.65586E+03  2.14996E+03 -1.40809E+03 -8.61717E+02
  3.85265E+02 -1.69553E+03  3.10889E+03 -2.35791E+03  2.50172E+03 -6.92228E+03  1.58967E+03  3.66675E+03
  4.67468E+01 -4.23674E+03 -4.85077E+03  3.29721E+03 -2.52585E+03  2.54004E+03 -6.01156E+03 -3.08828E+03
  1.98661E+03  1.11382E+03 -4.21672E+03 -4.41223E+03  1.02286E+03  4.09207E+03 -4.72907E+03 -1.49472E+02
 -4.35863E+03  2.19392E+03  2.93653E+03 -1.47155E+03  1.05058E+03 -3.58844E+03 -3.48032E+03  3.13834E+03
 -6.36624E+02 -2.33420E+00  3.42695E+03  2.64923E+03  2.95465E+03 -2.40356E+03  3.46059E+02  4.07319E+03
  3.34638E+03 -2.89126E+03  2.98168E+03  1.72053E+02 -5.07149E+03  5.01220E+03 -2.51339E+02 -1.72656E+03
 -1.81142E+03  2.79518E+03  1.42986E+03 -2.23713E+02  3.03176E+03  1.06277E+02 -2.16780E+03 -1.80018E+03
 -7.38734E+03  2.95061E+02  6.81438E+02 -2.06963E+02  1.77050E+03 -5.58375E+03  1.72096E+03 -7.67352E+02
  6.06889E+03  3.64265E+03  6.74001E+02  1.62181E+03 -2.35336E+03  5.01389E+03  2.42195E+03 -2.56662E+02
