 $NMID ID='MM_0lb_SNR50_13hz_g45_90.RAW', FMTDAT='(8E13.5)'
 TRAMP=1., VOLUME=1. $END
  3.05660E+05 -1.55166E+02  3.40580E+05  2.51370E+05  8.29338E+04  3.34825E+05 -1.36633E+05  2.49786E+05
 -1.91623E+05  8.28320E+04 -1.13519E+05 -3.38049E+04 -2.36276E+03 -5.13443E+04  5.67631E+04 -4.40205E+02
  3.55197E+04  5.33504E+04 -1.87418E+04  7.40262E+04 -6.16092E+04  6.44270E+04 -7.77152E+04  3.00991E+04
 -8.53126E+04 -1.28366E+04 -5.36888E+04 -5.49288E+04 -1.83320E+04 -7.18022E+04  2.56733E+04 -4.81069E+04
  3.30783E+04  3.93053E+03  1.95920E+04  5.20196E+04 -3.54903E+04  5.18771E+04 -6.40430E+04 -3.10790E+03
 -5.31106E+04 -5.90329E+04 -1.07190E+04 -7.57283E+04  3.71362E+04 -5.18716E+04  4.87607E+04 -2.27197E+04
  4.34164E+04  6.19830E+03  2.73831E+04  2.40874E+04  1.79555E+04  3.21087E+04 -4.72536E+03  3.11899E+04
 -2.41894E+04  1.09028E+04 -2.04736E+04 -4.99744E+03  1.95470E+03 -7.68011E+03  2.36161E+04  1.09300E+04
  8.09432E+03  3.51511E+04 -3.83245E+04  4.05780E+04 -6.43371E+04  2.18614E+03 -5.27370E+04 -3.94402E+04
 -8.85689E+03 -6.28846E+04  3.64870E+04 -4.73270E+04  5.93121E+04  5.12904E+02  3.50239E+04  3.72571E+04
 -6.58473E+03  3.44563E+04 -2.92233E+04  1.83456E+04 -3.39510E+04 -3.49176E+03 -1.79148E+04 -1.21838E+04
 -7.95066E+03 -1.12083E+04  3.77819E+03 -2.04176E+04  7.96880E+03 -2.24213E+04  1.27652E+04 -9.57284E+03
  1.31387E+04  2.67784E+03 -7.17932E+03  1.05613E+04 -2.38955E+04 -4.49473E+03 -6.31867E+03 -3.02525E+04
  2.26783E+04 -4.42243E+04  4.70769E+04 -2.18239E+04  4.60046E+04  2.17705E+04  1.81889E+04  4.54018E+04
 -1.85508E+04  3.54904E+04 -2.38580E+04  4.59797E+03 -7.93787E+03 -3.04782E+04  1.44612E+04 -3.34365E+04
  3.88966E+04 -6.22402E+03  3.45024E+04  2.57724E+04  2.33806E+04  4.61531E+04 -8.60391E+03  4.59145E+04
 -3.07910E+04  3.28892E+04 -4.19005E+04  1.01732E+04 -4.07536E+04 -1.91821E+04 -2.54154E+04 -3.72253E+04
  2.19444E+03 -3.67523E+04  3.14067E+04 -1.37667E+04  3.14475E+04  9.91177E+03  1.52861E+03  1.76616E+04
 -1.94530E+04  5.92890E+03 -1.19762E+04 -9.64401E+03  4.05513E+03 -1.59994E+04  1.46725E+04  7.94738E+03
  9.95077E+03  1.88996E+04 -6.05415E+03  2.24264E+04 -2.38383E+04  1.02558E+04 -2.62934E+04 -5.40023E+03
 -1.78379E+04 -1.29796E+04 -1.00128E+04 -1.87726E+04  1.79271E+03 -1.22893E+04  1.30967E+04 -1.88957E+04
  2.61140E+04 -8.94545E+03  3.27014E+04  4.27663E+03  2.48464E+04  1.24322E+04  2.57120E+03  4.24700E+04
 -1.80764E+04  3.54033E+04 -3.02384E+04  1.04188E+04 -1.67809E+04 -1.11763E+04 -3.09554E+03 -1.43570E+04
 -8.99079E+02 -7.94277E+02 -1.36298E+03  7.69607E+03 -1.87789E+04  3.34132E+03 -1.44772E+04 -8.49890E+03
 -7.74298E+03 -1.68027E+04  3.19670E+03 -2.59557E+04  1.50113E+04 -2.17472E+04  1.79854E+04  1.94552E+03
  1.32998E+04  1.50955E+04 -9.69805E+02  2.00826E+04 -1.35100E+04  9.31545E+03 -1.92458E+04 -7.37414E+03
 -1.61888E+04 -2.11588E+04 -4.27501E+03 -2.33650E+04  1.49388E+04 -2.14972E+04  2.17039E+04 -1.09013E+04
  1.76845E+04  1.85724E+03  1.56197E+04  9.42110E+03  1.01227E+04  4.45362E+03  8.38335E+03 -5.73431E+03
  1.88118E+04  3.14976E+03  2.14536E+04  1.51624E+04  1.01441E+04  2.81043E+04 -5.78720E+03  3.94708E+04
 -1.87060E+04  3.47165E+04 -3.09087E+04  1.32595E+04 -3.76863E+04 -2.88273E+02 -2.77164E+04 -1.68790E+04
 -1.25766E+04 -2.89502E+04  1.28322E+04 -2.82881E+04  2.07337E+04 -1.35684E+04  1.57858E+04  4.11659E+03
  4.18034E+03  9.20639E+03 -7.00030E+03  1.14749E+04 -1.26788E+04  7.47920E+03 -1.39901E+04 -7.93316E+03
  4.40479E+02 -1.43524E+04  8.06610E+03 -1.59778E+04  1.43499E+04 -1.25196E+03  2.96942E+03  9.08472E+03
 -5.06571E+03  4.06902E+03 -4.32857E+03 -6.43123E+03  2.09956E+03 -1.08581E+04  1.33865E+04 -1.04517E+04
  1.74284E+04 -5.61475E+03  1.95130E+04  1.74879E+02  1.66630E+04  1.14256E+04  8.43952E+03  1.65899E+04
  2.51963E+03  2.14292E+04 -1.44287E+04  1.61212E+04 -1.28888E+04  3.82236E+03 -1.06597E+04 -9.93828E+03
 -2.50616E+03 -1.84998E+03 -1.23880E+03  6.28368E+03 -1.77384E+03  5.61445E+03 -3.19833E+03  4.07491E+03
 -7.90171E+03  4.09737E+03 -1.21520E+04 -1.48592E+04 -7.08122E+03 -1.77432E+04  5.75030E+03 -1.58693E+04
  1.33115E+04 -4.81255E+03  1.46209E+04  9.60399E+02 -4.36324E+03  1.65663E+03 -4.99850E+03 -4.40349E+03
 -8.29981E+03 -3.45786E+03  1.30890E+03 -1.04625E+04  3.06175E+03 -5.41979E+03  1.52611E+04 -6.15428E+03
  2.09535E+04  4.37183E+03  1.57224E+04  1.00013E+04  9.32233E+01  1.85786E+04 -5.65529E+03  1.19263E+04
 -9.99373E+03  2.36017E+03 -4.29047E+03 -6.29553E+03 -6.19949E+02 -6.10588E+03  1.65313E+04 -1.73124E+03
  7.45946E+03  3.24397E+03  1.74917E+03  1.04533E+04 -9.07435E+03  7.79573E+03 -1.35806E+04  1.62785E+03
 -9.52143E+03 -6.73048E+03  1.25534E+03 -1.12773E+04  8.14933E+03 -3.47855E+03  2.83550E+03  3.10917E+03
  2.73544E+03  9.82053E+03 -8.17750E+03  2.63119E+03 -8.62142E+03  2.35889E+03 -1.37311E+04 -4.49330E+03
 -4.09372E+03 -7.84484E+03  1.69035E+03 -8.63391E+03  8.23190E+03 -7.30789E+03  7.40896E+03  1.46531E+03
  7.32088E+03  9.56431E+03 -6.10191E+03  9.57053E+03 -1.13841E+04  6.30105E+03 -5.86633E+03 -2.12225E+03
 -6.11669E+03 -6.25163E+03 -1.32938E+03 -7.69670E+03  4.46967E+03 -1.17450E+04  6.06530E+03 -1.57419E+03
  3.83806E+03 -2.13994E+03 -2.37025E+03 -1.49407E+03 -1.01756E+03 -1.20927E+03 -1.54650E+03 -8.04065E+03
  4.95156E+03 -1.90608E+03  1.18317E+04 -1.38699E+03  1.06112E+04  4.73275E+03  4.28913E+03  1.56506E+04
 -6.88795E+03  1.49396E+04 -1.57872E+04  1.45045E+04 -1.81071E+04  5.07039E+02 -1.42302E+04 -5.45498E+03
 -5.30293E+03 -1.59610E+04 -8.80943E+02 -1.20649E+04  6.99257E+03 -3.61056E+03 -3.26545E+02 -4.14019E+03
  6.33967E+03 -3.08140E+03  1.01948E+03 -1.72719E+03  3.20792E+03 -3.14264E+03  7.99752E+03 -2.36274E+03
  8.33438E+03 -2.29297E+03  4.30392E+03  2.02643E+03 -9.86901E+02  7.58154E+03 -6.53346E+03  6.12248E+03
 -9.27769E+03 -1.72470E+03 -9.32394E+03 -8.74424E+03 -3.45653E+03 -6.75758E+03  6.56571E+03 -1.20819E+04
  6.61946E+03 -4.09517E+03  7.40250E+03  1.87579E+03  1.06485E+04  8.50653E+03 -1.63779E+03  9.82680E+03
 -5.18708E+03  9.06307E+03 -7.63262E+03  2.56018E+03 -5.58142E+03 -7.95859E+02 -2.85575E+03  3.56526E+02
  1.63436E+03 -1.35378E+03 -2.29431E+03  3.22089E+03 -4.55379E+03 -1.11673E+03 -5.67868E+03  3.20641E+03
 -7.42792E+03 -4.66054E+03  2.53206E+03 -7.56401E+03  3.79341E+03 -7.10269E+03  1.01221E+04  7.08128E+02
  4.63440E+03  5.34885E+03  6.79875E+03  8.25388E+03 -6.03861E+03  9.59191E+03 -4.80389E+03  5.93912E+03
 -7.41754E+03  3.53859E+01  1.77411E+03 -2.25110E+03 -1.57473E+03 -7.71341E+03  1.73045E+03 -7.07993E+03
  6.26184E+03  4.05521E+03  4.54645E+03 -9.73458E+02 -2.85557E+02  3.03704E+03  1.26495E+03  3.51516E+02
 -4.52746E+03  3.25267E+03 -1.02357E+03  1.97249E+03 -2.09498E+03  3.23356E+03  1.74795E+03  3.32819E+03
 -1.53930E+03  2.06660E+03 -4.37415E+03  1.20669E+04 -7.36113E+03  5.46120E+03 -5.76908E+03 -4.64874E+03
 -7.48497E+03 -7.42985E+03  2.02238E+03 -1.15541E+04 -5.34074E+02 -5.21673E+03  9.04935E+03 -7.72767E+02
  4.79711E+03  1.17742E+03  3.65647E+03  7.58997E+03 -5.25341E+03  4.51989E+03 -5.34194E+02  9.27072E+02
 -1.12355E+03 -1.98058E+03  1.38652E+03 -4.77966E+03  2.65202E+02 -6.34054E+03  4.99961E+03 -8.37399E+01
  3.42532E+02  4.17403E+03  1.81362E+03 -2.41334E+03 -2.54553E+03 -6.58963E+03 -1.14039E+03  4.21246E+02
 -2.16759E+03  1.06405E+03 -7.62597E+02 -7.93741E+02  3.10283E+03  6.25419E+03 -4.31065E+03  5.34526E+03
 -3.91706E+03  1.46797E+03 -3.32874E+03  5.41111E+03  1.27208E+03 -6.18369E+03 -2.87461E+03 -5.44736E+03
 -1.95804E+03 -5.78937E+03  1.49054E+03  1.37232E+03  4.00447E+03  1.78377E+03 -8.53866E+02 -1.94301E+03
 -3.19087E+03 -6.44029E+02 -5.99874E+02 -3.89948E+03  3.67629E+02 -6.74726E+03  3.22809E+03 -5.48161E+03
  5.21172E+03  4.58624E+03  2.99095E+02 -2.76904E+03  7.00696E+03  1.36516E+03  8.82420E+02  4.71027E+03
  2.09990E+03  3.87902E+02 -3.62571E+03  5.74635E+02 -7.66590E+02 -5.72979E+03  2.61662E+03 -6.45740E+03
  7.65210E+03 -6.63476E+02  6.88026E+03  9.36548E+03 -1.00075E+03  3.57347E+03  4.34939E+03  9.59046E+03
 -9.60005E+02  5.57860E+03 -6.60053E+03 -2.39046E+03 -1.83419E+03  1.43525E+02  2.89457E+03 -2.30329E+03
  3.76120E+03  2.21900E+03  4.53742E+02  4.50113E+03  1.45391E+03  5.95118E+03  3.00988E+03  2.77675E+03
 -1.54163E+03  1.87253E+02  1.00228E+03 -4.77932E+02  1.20933E+03  1.05166E+03 -7.46401E+02  3.52807E+03
 -2.53385E+02  2.95060E+03 -6.19873E+03  7.63180E+03 -4.49974E+03  3.36020E+03 -5.07219E+03 -2.02973E+03
 -3.88667E+03 -1.07150E+04  4.42227E+03 -8.61347E+03  8.47809E+03 -2.93127E+03  4.01740E+03  6.26664E+02
  1.98000E+03  7.58107E+02  3.35173E+03  6.69428E+03  2.72454E+03  8.23510E+03  1.27939E+03 -1.37738E+03
 -6.76557E+03 -1.45514E+03 -1.75010E+03 -2.84007E+03 -1.28423E+03 -7.09554E+02 -3.72716E+03  1.15477E+03
 -4.16303E+03 -6.08881E+02 -2.06914E+03 -3.33116E+03  3.09174E+03 -4.58748E+03 -2.37703E+03  5.45185E+02
  1.06924E+04 -1.32536E+03  4.77660E+03  5.80853E+03  7.08058E+03  4.93988E+03 -2.80066E+03  3.45895E+03
 -5.20899E+03  9.77803E+03 -5.63613E+03  2.27197E+03 -8.79386E+03 -1.63430E+03 -5.12820E+03 -2.32071E+03
 -4.79483E+03 -4.65851E+03 -1.04449E+03 -8.07441E+03  4.39937E+03 -3.15140E+03  6.64155E+02 -2.30965E+03
  3.23381E+03  3.36492E+03 -2.28372E+03  4.90381E+03 -8.67144E+02  4.97328E+03  1.06160E+03 -9.98094E+02
  1.69861E+03 -2.13827E+03  4.65488E+02  8.43698E+02  4.79348E+02  2.90913E+03 -2.32202E+03  3.67932E+03
 -6.18101E+03  6.90738E+03 -5.49593E+03 -3.28482E+03 -9.91488E+02 -4.31880E+02 -3.36248E+03 -3.96271E+03
 -8.63661E+02 -5.77956E+03 -1.84606E+02 -3.66092E+03  5.69466E+02  2.43425E+03  6.03020E+02  1.01926E+03
  2.48152E+03  5.06965E+03 -2.15783E+03  4.13859E+03 -3.26837E+03  6.16414E+03  3.54972E+03 -3.44918E+03
  1.46857E+03 -1.99855E+03 -1.51384E+03 -1.65163E+03 -3.66157E+02 -1.70891E+03 -1.73380E+03  8.91984E+02
  2.38089E+03 -4.61869E+03 -5.84275E+03 -3.72825E+03  9.78228E+02 -5.65384E+03  4.84137E+03 -9.53312E+02
  2.18341E+03 -5.28124E+03  5.48832E+03  4.87020E+03 -2.41373E+03  4.82636E+03 -1.00217E+03  8.29351E+03
