 $NMID ID='MM_0lb_SNR50_15hz_g50_32.RAW', FMTDAT='(8E13.5)'
 TRAMP=1., VOLUME=1. $END
  3.04507E+05  2.36843E+03  3.36999E+05  2.52947E+05  8.58775E+04  3.40528E+05 -1.36841E+05  2.48551E+05
 -1.94585E+05  8.63878E+04 -1.08867E+05 -3.41382E+04  9.51702E+02 -4.85424E+04  5.15760E+04  1.54484E+03
  3.74376E+04  5.50691E+04 -1.87063E+04  7.06547E+04 -6.31569E+04  6.00648E+04 -8.21986E+04  3.40827E+04
 -7.93368E+04 -1.13184E+04 -5.73796E+04 -4.87376E+04 -1.54575E+04 -6.99658E+04  2.93404E+04 -4.36551E+04
  3.85089E+04 -3.87353E+02  1.62470E+04  4.29669E+04 -3.62884E+04  4.85324E+04 -6.59644E+04  2.54014E+01
 -5.38977E+04 -6.05981E+04 -7.81543E+03 -7.47722E+04  3.86890E+04 -5.12573E+04  4.67325E+04 -1.43231E+04
  4.00880E+04  9.69245E+03  3.29703E+04  2.51299E+04  1.46989E+04  2.93421E+04 -2.89798E+03  2.78459E+04
 -2.10918E+04  1.18892E+04 -2.00864E+04 -2.41046E+03  3.07752E+03 -8.40201E+03  2.05660E+04  1.13626E+04
  5.01642E+03  3.27018E+04 -2.77270E+04  3.82476E+04 -6.35669E+04  4.64021E+03 -5.78745E+04 -4.21563E+04
 -9.60076E+03 -6.39624E+04  3.69487E+04 -4.40156E+04  6.13224E+04  1.98750E+03  3.84966E+04  2.87117E+04
 -7.06014E+03  3.68397E+04 -2.89789E+04  2.00357E+04 -2.82171E+04 -7.89271E+03 -2.06041E+04 -7.54917E+03
 -4.28410E+03 -1.31912E+04 -2.30243E+03 -1.57988E+04  5.23053E+03 -2.20511E+04  1.25524E+04 -1.64054E+04
  1.29194E+04  5.92747E+03 -1.01838E+04  1.71016E+04 -2.06892E+04 -4.46257E+03 -4.07227E+03 -3.12604E+04
  2.33169E+04 -4.20819E+04  4.50908E+04 -2.02074E+04  4.36278E+04  1.87314E+04  1.21428E+04  4.28557E+04
 -1.47167E+04  3.22757E+04 -2.66280E+04 -2.37107E+03 -3.51728E+03 -2.66105E+04  2.22331E+04 -3.53363E+04
  4.00955E+04 -7.80426E+03  3.19390E+04  2.09633E+04  1.88922E+04  4.44312E+04 -8.14092E+03  5.24789E+04
 -3.37126E+04  3.14390E+04 -4.21925E+04  8.34284E+03 -4.42067E+04 -1.74360E+04 -2.28261E+04 -3.29839E+04
  3.91110E+03 -3.81391E+04  3.15757E+04 -1.16283E+04  2.67969E+04  1.14452E+04  4.47519E+03  2.08293E+04
 -1.09723E+04  1.56239E+03 -8.57333E+03 -8.69352E+03  3.97219E+03 -7.53784E+03  1.75823E+04  4.07188E+03
  1.38111E+04  2.08357E+04 -2.87860E+03  2.74654E+04 -2.10427E+04  8.84381E+03 -2.63282E+04 -7.33776E+03
 -2.16183E+04 -1.46786E+04 -7.25143E+03 -2.36593E+04  7.29968E+03 -2.14902E+04  1.76636E+04 -1.92228E+04
  3.03210E+04 -1.13141E+04  3.18634E+04  1.91603E+03  2.41643E+04  1.67741E+04  4.66901E+03  3.90653E+04
 -1.74657E+04  3.15485E+04 -2.53471E+04  8.68427E+03 -2.31538E+04 -1.19975E+04 -4.53464E+03 -1.21628E+04
  1.33219E+03 -2.05665E+03 -3.36853E+03  5.28173E+03 -1.79150E+04  7.92837E+03 -1.61425E+04 -4.96279E+03
 -1.04579E+04 -1.47722E+04  6.32818E+03 -2.15703E+04  1.03636E+04 -1.82118E+04  1.81574E+04 -7.16738E+03
  1.44678E+04  1.70489E+04 -1.42291E+03  2.10233E+04 -6.70285E+03  1.28442E+04 -1.60861E+04 -8.73380E+03
 -1.23296E+04 -1.42313E+04  1.89150E+03 -2.67826E+04  1.07535E+04 -1.50864E+04  1.92598E+04 -7.37156E+03
  1.49719E+04 -1.38037E+02  1.50264E+04  5.35457E+03  4.23084E+03  3.37955E+03  9.63914E+03 -6.62384E+02
  2.13847E+04  5.33871E+03  2.17815E+04  1.14569E+04  1.44994E+04  2.71538E+04 -4.63298E+03  3.40618E+04
 -1.76961E+04  2.69125E+04 -3.18872E+04  1.10093E+04 -3.28540E+04 -2.83599E+03 -2.19735E+04 -1.94323E+04
 -5.95827E+03 -2.70451E+04  1.15380E+04 -2.19435E+04  1.60234E+04 -1.82177E+04  1.60662E+04  7.37590E+03
  3.05493E+03  1.33938E+04 -4.94160E+03  1.32322E+04 -1.91114E+04  2.99672E+03 -1.37519E+04 -8.96581E+03
 -1.96689E+03 -1.27938E+04  8.16625E+03 -8.79574E+03  1.04614E+04 -2.34584E+03 -3.05455E+03  5.38010E+03
 -4.61020E+03  2.35778E+03 -4.41003E+03 -3.14980E+03 -7.02428E+02 -1.30246E+04  6.25575E+03 -1.10304E+04
  1.66960E+04 -9.42276E+03  1.68083E+04  8.74633E+02  1.46827E+04  8.67376E+03  9.24821E+03  1.74130E+04
 -2.78616E+03  2.43926E+04 -9.45546E+03  1.21356E+04 -1.43123E+04  9.21064E+03 -9.98098E+03  5.39257E+03
 -8.29196E+03 -7.07195E+03  6.69248E+02 -2.76108E+03 -2.12378E+03  6.84123E+03 -8.65897E+03  5.12396E+03
 -1.26060E+04  1.37697E+03 -1.02869E+04 -7.95709E+03 -4.35418E+03 -1.04300E+04  8.29826E+03 -1.10207E+04
  1.01050E+04 -6.76336E+02  1.02489E+04  6.14394E+03 -2.96087E+03  7.85894E+03 -5.05547E+03 -1.08191E+03
 -4.68522E+03 -3.15225E+03  4.00377E+03 -8.08163E+03  6.37071E+03 -9.08024E+03  1.52739E+04 -1.19363E+04
  1.62286E+04  1.92725E+03  1.83798E+04  8.20397E+03  4.09803E+03  1.05247E+04 -6.41475E+03  9.58323E+03
 -1.33733E+04 -6.73618E+02 -4.69118E+03  2.08841E+03  3.31186E+03 -1.32129E+03  8.98669E+03 -4.57570E+03
  6.83696E+03  2.02319E+03  1.02798E+02  7.04174E+03 -6.77548E+02  6.05621E+03 -1.18127E+04  1.28300E+03
 -7.25961E+03 -5.96508E+03 -7.12218E+03 -1.18931E+04  5.01708E+03 -7.71069E+03  3.25607E+03 -2.61684E+03
 -1.13021E+03  3.52499E+03 -7.21581E+03  4.85168E+03 -7.09013E+03  2.02024E+03 -5.73349E+03 -4.60970E+03
 -5.88639E+03 -9.24447E+03  1.20317E+03 -9.15568E+03  9.13272E+03 -5.22855E+02  7.40939E+03  1.94030E+03
  4.23717E+03  5.91917E+03  6.11312E+03  1.00832E+04 -8.62185E+03  8.03953E+03 -4.59465E+03 -1.07692E+03
 -7.32155E+03 -8.43646E+03 -5.26367E+02 -7.44908E+03  1.76286E+02 -6.91021E+03  4.65013E+03 -3.29624E+03
  4.02245E+03  7.13319E+03  6.09050E+02  2.65911E+03  3.75053E+03  5.50868E+02  2.94498E+03 -5.39562E+03
  1.15477E+04 -3.58971E+03  8.20732E+03  6.63421E+03  4.63609E+03 -2.20118E+02  7.85141E+03  9.30258E+03
 -3.34482E+02  1.59926E+04 -1.34669E+04  1.28942E+04 -1.41146E+04  2.11588E+03 -9.31378E+03 -1.16912E+03
 -8.89910E+02 -1.02673E+04 -2.19018E+03 -8.20546E+03  1.44928E+03 -6.98816E+03  1.17705E+03 -9.91072E+03
  2.55241E+02 -2.60025E+03  3.95750E+03 -3.47788E+03  7.43068E+03 -2.82139E+03  7.74099E+03  8.66690E+02
  3.89685E+03  3.52155E+03  1.39274E+03  7.49719E+03 -1.74074E+02  1.78958E+03 -6.98074E+03  6.30244E+03
 -8.26761E+03 -5.05450E+03 -3.06349E+03 -3.63680E+03 -4.96761E+01 -9.04071E+03  4.00070E+03 -6.33935E+03
  6.69042E+03 -9.19390E+03  1.15447E+04  7.02443E+02  1.23505E+04  3.61909E+03 -1.40712E+03  1.09189E+04
 -6.70771E+02  7.81913E+03 -4.19951E+03  5.00766E+03 -7.66203E+03  2.16493E+03  2.47409E+03 -3.62264E+03
  8.11748E+02  1.23802E+03 -1.33247E+03  1.12143E+03 -4.28970E+03  1.30063E+02 -2.11978E+03  5.84394E+02
 -2.90437E+02 -6.15132E+03  7.50459E+03 -6.59541E+03  9.21557E+03 -6.06570E+03  7.82140E+03 -4.32871E+03
 -2.35622E+02  2.83494E+03  2.99741E+03  3.03182E+03 -1.89631E+03  7.93081E+03 -3.90768E+03  8.85000E+01
 -7.93777E+03  5.64936E+01 -4.51503E+03 -2.95338E+03  2.74112E+03 -8.47052E+03  3.75339E+03 -8.88912E+03
  3.42542E+03 -1.95695E+03  3.86344E+03  4.52351E+03  3.58644E+03  4.56487E+03  4.56570E+03  1.76827E+03
  2.43397E+03  4.06063E+02  5.87537E+03  6.50973E+02  3.05981E+03 -1.70150E+03 -3.18528E+03  3.59619E+03
 -6.18003E+03  5.37635E+03 -6.73244E+03  9.43595E+03 -6.25513E+03  1.97205E+02 -6.57850E+03 -7.08838E+02
 -2.57236E+03 -8.03124E+03  3.16542E+03 -8.69469E+03  4.83699E+03 -6.14595E+03  4.42304E+03 -6.61836E+03
  6.00611E+03 -7.23061E+02 -5.27112E+02  3.08468E+03 -2.19371E+03  9.01456E+03 -4.79370E+03  7.94252E+02
 -6.80490E+02  8.48965E+02  1.79956E+03 -2.68089E+03  1.40084E+03 -1.73282E+03  2.28876E+03  4.68190E+03
  3.69964E+02  5.51902E+02  9.83862E+02  1.85771E+03  1.12624E+03 -1.80167E+03 -1.37171E+02 -1.21124E+03
  2.73037E+03  4.02156E+02  8.39967E+02  1.09229E+01  3.58122E+03  6.35137E+03 -1.44487E+03  3.22651E+03
 -4.21426E+03 -8.07128E+02  4.80686E+02 -1.43490E+03 -1.88737E+03 -2.09887E+03 -4.74565E+03  4.79637E+03
  3.00399E+03  8.46946E+02  4.01449E+03 -6.73835E+02  4.13014E+03  2.99289E+03 -2.01776E+03  3.44997E+03
 -1.13566E+03  5.98138E+03 -4.23696E+03 -4.34312E+03 -5.45426E+03 -2.37602E+03  2.84154E+03 -1.06448E+03
  2.41433E+03 -3.81370E+03  5.05227E+03 -1.11085E+03  9.28195E+02  3.34035E+03  5.07408E+03  3.62872E+03
 -2.08380E+03 -1.64982E+03  9.31666E+02 -3.27123E+03  2.46645E+03 -1.47790E+03  4.48885E+03 -4.32790E+03
  1.95269E+03  2.68722E+03 -2.38459E+02  1.79692E+03  1.90458E+03  1.95178E+03  1.08787E+02  7.65643E+03
 -7.61869E+03  6.30736E+02 -4.14873E+03  2.02363E+03 -3.10970E+03 -2.80275E+02  6.65105E+02 -3.53147E+02
  5.45860E+02  7.98939E+01  5.03928E+01 -3.14741E+03  1.52791E+03  4.84981E+03 -7.94232E+01  8.91012E+02
  3.05131E+03 -4.88725E+03  3.40228E+03  1.77571E+03 -7.56574E+02  2.46244E+03  2.78842E+03  2.15958E+03
  4.62127E+02 -6.68297E+02 -7.25499E+02 -1.32405E+03 -5.61425E+03 -6.63841E+02 -4.01974E+03 -2.11828E+03
  1.24208E+02 -7.83690E+02  2.09518E+03 -6.44537E+03  3.98052E+03 -5.51482E+03  1.04475E+04 -3.77622E+03
  4.92912E+03 -1.71577E+02 -2.31980E+03  3.77225E+02 -4.74466E+02  2.38502E+03 -7.71973E+02  4.39901E+02
 -2.90714E+03 -3.73740E+03 -2.85449E+03 -1.60254E+03 -4.91200E+03 -2.09620E+03  6.72371E+02  2.09438E+03
 -5.02086E+02 -5.59594E+02 -5.34147E+03 -1.08376E+03 -1.78876E+03  2.09954E+03 -1.09573E+03 -4.57578E+02
 -1.01913E+03 -4.96641E+02 -1.68028E+03  4.51445E+03  4.95269E+01 -1.02162E+03 -1.28188E+03  8.11524E+02
 -7.67379E+02  1.90000E+03 -4.58163E+02 -3.14964E+02 -3.08518E+03  1.58971E+03 -4.42407E+03 -1.36373E+03
 -4.30364E+03 -5.87235E+02  2.09795E+03 -3.48699E+00  1.83257E+03  3.00823E+03  2.63291E+03 -1.89582E+03
  2.43650E+03  1.29637E+03  3.41649E+03  1.82687E+03  2.03844E+03 -7.00134E+02  4.52184E+03 -1.37349E+03
 -2.35348E+03  8.63996E+03 -1.09955E+02  1.94600E+03 -4.82829E+02  7.26250E+03  1.47208E+03  2.62708E+03
  1.81209E+03  2.43678E+03 -3.35014E+03  1.57672E+03  1.31675E+03 -4.79394E+03 -5.50073E+03  4.21719E+02
  2.40106E+03 -8.87792E+02  5.16336E+03  1.58263E+01  2.78452E+02  3.53572E+02  4.82841E+03  1.91112E+03
 -4.72517E+02  5.77190E+02 -2.14550E+03 -2.66974E+03 -2.43364E+03  5.06835E+02 -2.75506E+03 -4.47405E+03
 -3.68319E+02  2.36698E+03 -7.56554E+02 -8.06859E+01 -7.53273E+02 -1.17340E+03 -4.68381E+03  1.68209E+03
 -4.57612E+03 -1.47822E+03 -1.72184E+03 -7.85874E+02  5.28093E+02 -6.71046E+03  6.72840E+03 -3.30308E+03
  3.67101E+02  5.42591E+02 -1.50344E+03 -1.35956E+03 -1.00485E+03  6.24992E+03 -5.80911E+02  3.95646E+01
