 $NMID ID='MM_0lb_SNR50_9hz_g50_84.RAW', FMTDAT='(8E13.5)'
 TRAMP=1., VOLUME=1. $END
  3.07439E+05  6.83383E+03  3.33657E+05  2.56564E+05  7.96931E+04  3.33905E+05 -1.33397E+05  2.51462E+05
 -1.91790E+05  8.13394E+04 -1.11296E+05 -2.92633E+04  6.66609E+03 -4.90857E+04  5.35569E+04  1.64864E+03
  3.22723E+04  4.98779E+04 -1.81043E+04  7.78948E+04 -5.89465E+04  6.42531E+04 -9.14158E+04  2.88823E+04
 -8.44814E+04 -1.38694E+04 -5.41710E+04 -5.07208E+04 -1.52285E+04 -7.00547E+04  3.40559E+04 -4.82442E+04
  4.17857E+04  9.28948E+03  1.37432E+04  4.57476E+04 -3.71138E+04  4.75747E+04 -6.77049E+04  2.88172E+03
 -5.25044E+04 -5.99970E+04 -8.57844E+03 -8.20402E+04  2.87172E+04 -6.02811E+04  5.58722E+04 -2.04104E+04
  4.88065E+04  1.49473E+04  3.60599E+04  2.68958E+04  1.14733E+04  2.86160E+04 -5.02383E+03  2.27873E+04
 -1.72739E+04  1.88650E+04 -1.57683E+04 -1.12966E+04  1.10457E+04 -5.69875E+03  2.14974E+04  2.20645E+04
  5.45737E+03  3.94973E+04 -3.72969E+04  3.32188E+04 -6.50405E+04 -3.63423E+03 -5.90036E+04 -4.14563E+04
 -1.08269E+04 -6.56251E+04  3.50604E+04 -4.87254E+04  6.25009E+04 -2.47255E+02  3.49530E+04  3.60081E+04
 -6.27396E+03  3.60612E+04 -2.84468E+04  1.80083E+04 -3.81470E+04 -2.65351E+03 -2.11704E+04 -1.37891E+04
 -6.63186E+03 -1.44035E+04  2.42359E+03 -1.64677E+04  3.22556E+03 -2.62321E+04  1.55470E+04 -1.15911E+04
  9.78577E+03  4.62270E+03 -8.51539E+03  9.58073E+03 -1.89769E+04 -8.12401E+03 -1.80115E+04 -3.69880E+04
  2.04686E+04 -4.73021E+04  5.58551E+04 -1.83627E+04  4.90951E+04  2.37797E+04  1.79232E+04  4.54749E+04
 -1.51241E+04  3.11220E+04 -3.03558E+04 -9.09881E+02 -1.31557E+04 -3.56095E+04  2.03915E+04 -3.34772E+04
  4.78478E+04 -1.00724E+04  4.03570E+04  2.78043E+04  1.80901E+04  5.42300E+04 -6.19237E+03  5.33920E+04
 -3.83728E+04  3.47617E+04 -4.64532E+04  9.85356E+03 -4.84127E+04 -1.84794E+04 -3.11868E+04 -3.82462E+04
  8.86282E+03 -3.95472E+04  3.18029E+04 -2.05451E+04  3.79000E+04  1.10642E+04  6.44208E+03  1.85993E+04
 -1.45669E+04  7.55433E+03 -8.35044E+03 -9.75638E+03  8.66906E+03 -6.81373E+03  1.88852E+04  5.52261E+03
  9.67712E+03  2.56615E+04 -5.20318E+03  2.88692E+04 -2.31329E+04  1.40335E+04 -3.45910E+04 -3.22306E+03
 -1.93261E+04 -2.10171E+04 -1.08628E+04 -3.11581E+04  6.91501E+03 -2.58564E+04  2.15833E+04 -2.75370E+04
  3.23096E+04 -1.49309E+04  4.05927E+04  4.16369E+03  2.33330E+04  3.30220E+04  6.53482E+03  4.19231E+04
 -2.46791E+04  3.71086E+04 -3.50534E+04  8.06080E+03 -2.72678E+04 -8.90256E+03 -8.33762E+02 -1.10656E+04
  5.70130E+03  2.91846E+03 -8.21282E+03  7.29228E+03 -2.35608E+04  7.20818E+03 -2.40219E+04 -3.42433E+03
 -1.47474E+04 -2.22922E+04  8.40403E+03 -3.10666E+04  2.36550E+04 -1.78971E+04  2.32904E+04 -3.17552E+03
  1.46714E+04  1.75044E+04  3.56177E+02  2.08897E+04 -2.22114E+04  8.84398E+03 -2.85447E+04 -2.16762E+03
 -1.98652E+04 -1.92586E+04 -2.98988E+03 -2.52045E+04  1.34417E+04 -1.33855E+04  1.90408E+04 -1.13931E+04
  2.87655E+04  1.12556E+03  1.90559E+04  9.10571E+03  2.01313E+03  3.12733E+03  1.16364E+04  2.45264E+02
  1.93007E+04  4.85490E+03  2.23861E+04  1.31966E+04  1.85296E+04  3.83487E+04 -6.13304E+03  3.90031E+04
 -3.03925E+04  3.39912E+04 -3.94449E+04  1.89971E+04 -4.69794E+04 -6.45972E+03 -3.94883E+04 -2.00943E+04
 -2.01600E+04 -3.61165E+04  1.42133E+04 -3.44158E+04  3.02716E+04 -1.53405E+04  2.38939E+04  7.62915E+03
  4.21430E+03  2.17046E+04 -4.98409E+03  1.10528E+04 -2.30530E+04  1.90940E+03 -1.81133E+04 -9.55791E+03
 -3.42705E+03 -1.65847E+04  1.48540E+04 -1.36858E+04  1.63507E+04  8.35511E+02  5.30501E+03  1.06590E+04
  1.93093E+03  3.05921E+01 -9.00803E+03  3.43827E+03 -3.12059E+03 -2.41968E+04  1.86284E+04 -2.43124E+04
  1.87319E+04 -1.31660E+04  2.67431E+04  3.84059E+03  1.89322E+04  2.41365E+04  1.06192E+04  2.85424E+04
  2.29485E+03  3.33017E+04 -2.43735E+04  1.75990E+04 -1.64540E+04 -1.10940E+03 -1.90336E+04 -8.47624E+03
 -9.84077E+03 -7.64232E+03 -3.75680E+03  1.56697E+02 -2.93025E+03  9.68908E+03 -3.52430E+03  6.44582E+03
 -1.80957E+04  7.54392E+03 -1.47868E+04 -1.56842E+04 -6.84218E+03 -1.47291E+04  3.92008E+03 -1.95153E+04
  6.70187E+03 -1.17057E+03  5.94428E+03  1.35053E+04 -2.69967E+03  3.69238E+03 -5.17647E+03  4.74574E+03
 -3.44784E+03 -5.76476E+03 -6.43451E+03 -1.66986E+04  7.00173E+03 -1.24578E+04  1.94550E+04 -1.23328E+04
  2.49302E+04  1.64672E+03  1.83646E+04  1.39415E+04  8.41228E+03  2.14292E+04 -1.04893E+04  1.39150E+04
 -1.10691E+04  4.77491E+03 -6.53040E+03 -5.87913E+03 -1.83829E+02 -5.65985E+03  3.93481E+03 -1.28836E+03
  6.23221E+03  3.29611E+03 -6.07518E+03  1.54687E+04 -9.84169E+03  1.48538E+04 -1.66576E+04  2.81347E+03
 -1.62338E+04 -1.06771E+04 -1.07966E+03 -1.57164E+04  6.08229E+03 -1.60755E+04  1.00132E+04  1.02920E+03
 -2.70375E+02  8.01850E+03 -9.03395E+03  1.07445E+04 -1.25493E+04  8.32759E+03 -7.42406E+03 -8.14182E+03
 -8.06631E+03 -1.62300E+04 -1.27679E+03 -2.06577E+04  1.85424E+04 -1.12378E+04  1.96655E+04 -4.47724E+03
  8.94139E+03  5.87721E+03 -3.41318E+03  1.69206E+04 -9.43339E+03  7.35677E+03 -6.79005E+03  1.62339E+03
 -1.38162E+04 -9.13548E+03 -1.83834E+03 -9.36064E+03  1.61507E+03 -8.78141E+03  7.10353E+03 -8.80149E+03
  5.09454E+03  5.11154E+03 -2.12618E+03  1.30317E+03  1.37672E+03 -3.24217E+03  4.93317E+03 -9.21190E+03
  1.36551E+04 -1.08543E+03  1.78499E+04  8.58739E+03  1.82390E+04  1.27960E+04  1.09215E+04  1.99388E+04
 -4.75592E+03  2.85369E+04 -2.37886E+04  1.67358E+04 -3.24217E+04  4.45869E+03 -1.81428E+04 -1.02443E+04
 -8.89032E+03 -1.88110E+04 -5.27782E+03 -1.14992E+04  8.99637E+03 -5.43092E+03  6.14079E+03 -2.44277E+03
  1.24745E+03 -2.78440E+03  5.57990E+03 -9.61003E+03  8.91966E+03  9.92430E+02  1.37573E+04 -9.11835E+03
  2.84902E+03  6.81156E+03  1.02052E+04  9.31718E+03 -7.37356E+03  1.23407E+04 -1.17052E+04  5.21203E+03
 -1.78406E+04  1.00662E+03 -5.80743E+03 -9.03507E+03  3.90079E+03 -1.87931E+04  4.91972E+03 -1.55749E+04
  1.28599E+04 -8.05581E+03  1.91640E+04  7.12669E+03  1.76056E+04  1.18782E+04  6.20087E+03  2.23772E+04
 -7.89678E+03  8.44943E+03 -6.30750E+03  4.17431E+03 -1.58626E+04 -3.76547E+03  1.26492E+02  4.75813E+03
 -1.13768E+02 -2.81171E+03 -4.45010E+03  1.00582E+03 -5.13018E+03  4.53784E+03 -8.39645E+03 -4.23235E+03
 -6.20455E+03 -6.87776E+03 -1.19382E+03 -2.64488E+04  5.70700E+03 -1.03244E+04  1.11291E+04  2.77908E+03
  1.18593E+04  1.13565E+04  9.61498E+03  1.28312E+04 -3.21153E+03  1.53948E+04 -1.39116E+04  4.47328E+03
 -1.36647E+04 -6.02738E+03 -1.19157E+04 -7.54017E+03  1.07715E+03 -8.21077E+03  4.50871E+03 -1.14581E+04
  1.13826E+04 -6.21223E+03  6.64667E+03  4.65433E+03  1.45141E+03  1.09414E+04 -5.39523E+03 -7.20608E+02
  2.78539E+03  2.90025E+03  7.43035E+03  4.00230E+02  2.09764E+03  1.41412E+04  4.26718E+03  5.21771E+03
 -4.97610E+03  9.41897E+03 -8.05013E+03  1.31028E+04 -1.31699E+04  3.03071E+03 -1.65705E+04 -6.09694E+03
 -8.82662E+03 -1.43711E+04  1.89164E+03 -2.55404E+04  4.19588E+03 -4.74111E+03  1.13266E+04 -3.42499E+03
  5.93006E+03  7.96673E+03  3.88700E+03  6.97482E+03 -7.62148E+03  4.02420E+03 -3.31722E+03  7.39538E+02
 -1.35217E+04 -8.07962E+03  6.77952E+02 -1.25318E+04  6.80951E+03  3.93495E+02  6.56971E+03  3.02022E+03
  7.70155E+03  1.24691E+04 -2.28451E+02  2.80579E+03 -1.04915E+03  4.75063E+03  1.14067E+01  7.45555E+02
 -7.14860E+02 -8.09956E+02  8.41755E+03  7.68156E+03  4.02018E+03  1.08414E+04 -3.86984E+02  7.23554E+03
 -6.11384E+03  8.70708E+03 -3.80228E+03 -6.86494E+02 -1.42763E+04  6.16495E+03 -3.77967E+03 -1.21161E+04
 -2.32301E+03 -2.61654E+03  6.12458E+03 -4.85240E+03  1.75670E+03  3.01286E+03  7.74382E+02  9.15607E+03
 -5.39311E+03 -5.78596E+02 -6.33824E+03 -5.34368E+03 -2.87159E+03 -9.23946E+03 -2.71853E+03 -9.45500E+03
 -9.26840E+02  1.80993E+03  7.51243E+03  3.69035E+03  5.64952E+03  4.63774E+02 -4.91400E+03  2.82223E+03
  8.94412E+03  2.28470E+03 -7.36157E+03 -4.78997E+02  3.80433E+03  5.22394E+02  5.38874E+03 -1.51058E+03
  6.53678E+03 -2.59662E+03  1.02257E+04  5.20504E+03  7.69453E+03  9.05334E+03  2.90834E+03  1.26119E+04
 -5.14990E+03  3.28951E+03 -4.57963E+03 -1.11845E+03 -3.21003E+02 -6.18981E+03  3.16243E+03 -8.61748E+03
  7.85064E+03 -6.37809E+03  4.05877E+03  5.76369E+03 -4.38063E+03  7.15094E+03 -3.46052E+03  4.31813E+03
 -2.97967E+03  2.29209E+03 -7.36347E+03 -5.98405E+03  3.32942E+03  6.00171E+03 -5.76115E+03  2.28434E+03
 -3.48575E+03  7.29686E+03 -4.20059E+03  6.73597E+03 -7.69605E+03  2.71378E+03 -1.05097E+04 -5.82448E+03
 -6.94839E+03 -1.27104E+04  4.29040E+03 -1.48002E+04  4.40010E+03 -1.07855E+04  1.36361E+04  1.57278E+03
  1.56068E+04  3.54022E+03  9.45128E+03  1.74038E+04 -2.66682E+03  5.00113E+03  1.93850E+03  7.40297E+03
 -4.34247E+03  2.23943E+03 -9.31931E+03  5.32452E+02 -3.93841E+03  1.89087E+03 -2.68829E+03  9.96376E+03
  6.25691E+03  5.54594E+02 -1.53811E+03  4.68151E+03  9.71501E+02 -7.84811E+03  1.69600E+03  5.54858E+03
  6.90374E+03 -1.58014E+03  6.88515E+03 -4.04557E+03  9.01310E+03  8.09264E+03  2.77752E+03  5.66772E+03
 -3.63791E+03  1.27032E+04 -9.72902E+03  1.15701E+04 -1.15995E+04  4.33801E+03 -1.34690E+04 -7.29613E+03
 -2.31893E+03 -8.69759E+03 -1.39916E+03 -6.04445E+03  4.24941E+03 -6.56888E+03  5.10951E+03  7.67990E+03
  4.61009E+03  3.67710E+03 -1.88342E+03 -4.24524E+03 -7.19637E+02 -3.85194E+02 -6.13322E+03 -1.50529E+03
  2.99376E+03 -6.17693E+02  1.97782E+03 -1.65470E+03  2.58429E+03  6.20209E+02 -1.20061E+03  5.32012E+03
 -7.37481E+03  3.10245E+03 -1.33930E+03 -3.46312E+03 -2.65544E+03 -6.85166E+03  1.63511E+03 -7.12584E+03
 -3.11987E+02 -8.25214E+03  9.21069E+03 -2.27680E+03  4.06816E+03  4.15969E+03  8.47358E+03  6.12759E+03
 -5.36155E+01  1.42933E+04 -3.48330E+03  6.59539E+03 -2.90432E+03  1.66192E+03 -8.65356E+03  4.44866E+03
  2.12120E+03  5.51459E+03 -3.28458E+03  4.10900E+03 -3.48430E+03  2.61462E+03 -5.70215E+03  1.97438E+03
 -9.22120E+03 -2.24611E+03  3.18422E+02 -2.80778E+03  1.92167E+03 -5.85113E+03  4.13873E+03  2.08464E+03
  1.15335E+04  2.03939E+03  2.67862E+03  5.23929E+03  2.33835E+03  7.48152E+03 -5.83471E+03 -1.81909E+03
