 $NMID ID='MM_0lb_SNR50_11hz_g55_20.RAW', FMTDAT='(8E13.5)'
 TRAMP=1., VOLUME=1. $END
  3.14805E+05 -5.51459E+03  3.35196E+05  2.51324E+05  8.93266E+04  3.41846E+05 -1.31296E+05  2.53325E+05
 -1.89055E+05  8.35612E+04 -1.07238E+05 -3.23033E+04  8.32302E+02 -5.48237E+04  6.19295E+04 -5.33621E+03
  3.51190E+04  5.08860E+04 -1.99818E+04  7.86089E+04 -6.35827E+04  6.39192E+04 -8.20354E+04  4.03906E+04
 -7.73256E+04 -1.06329E+04 -4.93706E+04 -5.10659E+04 -1.68818E+04 -7.08530E+04  2.72267E+04 -4.82196E+04
  3.73936E+04  4.18105E+03  1.86778E+04  4.70629E+04 -3.22307E+04  4.87506E+04 -6.67921E+04 -5.11479E+02
 -5.05222E+04 -5.66818E+04 -1.07786E+04 -7.50435E+04  3.47086E+04 -4.55475E+04  5.53958E+04 -1.95936E+04
  4.50493E+04  1.21358E+04  3.30024E+04  2.84418E+04  1.37841E+04  2.63055E+04 -7.89917E+03  2.27570E+04
 -2.66086E+04  9.72765E+03 -1.28664E+04 -6.42283E+03  9.29067E+03 -1.36109E+04  2.33309E+04  1.58606E+04
  9.08541E+03  3.91690E+04 -2.94774E+04  3.77010E+04 -6.40694E+04  4.49333E+03 -6.18169E+04 -4.05646E+04
 -1.49710E+04 -7.02284E+04  4.10090E+04 -4.78381E+04  5.61283E+04 -3.79789E+03  3.72843E+04  3.28708E+04
 -6.49326E+03  4.19433E+04 -2.89764E+04  1.57223E+04 -3.13054E+04 -8.67278E+03 -1.91745E+04 -1.64889E+04
 -6.92400E+03 -8.15816E+03 -8.93527E+02 -1.51148E+04  8.23752E+03 -2.63001E+04  1.35233E+04 -1.20202E+04
  1.25594E+04  3.47764E+03 -1.10996E+04  1.18579E+04 -2.31761E+04 -6.04743E+03 -1.00336E+04 -3.75054E+04
  2.29051E+04 -4.72598E+04  5.38726E+04 -1.64354E+04  4.97475E+04  1.90241E+04  1.68276E+04  4.66264E+04
 -1.96148E+04  3.73975E+04 -3.24299E+04  2.34966E+03 -1.08494E+04 -2.93707E+04  2.28521E+04 -2.76305E+04
  4.22226E+04 -1.29088E+04  4.15182E+04  2.37672E+04  2.00236E+04  4.93923E+04 -7.13376E+03  5.65167E+04
 -3.53947E+04  3.42173E+04 -4.80818E+04  1.61903E+04 -4.91493E+04 -1.07610E+04 -2.54480E+04 -3.97895E+04
  8.75366E+03 -4.13305E+04  3.40382E+04 -1.60417E+04  3.14322E+04  1.07501E+04  1.06428E+04  1.93726E+04
 -1.28955E+04  7.76548E+03 -1.07009E+04 -1.37369E+02  1.05406E+04 -1.13041E+04  1.98717E+04  7.22658E+03
  1.59456E+04  2.63066E+04 -2.38418E+03  3.20881E+04 -2.10335E+04  8.54489E+03 -2.74252E+04  1.01173E+03
 -2.16292E+04 -1.55795E+04 -8.88243E+03 -2.47993E+04 -6.71031E+02 -2.27909E+04  1.88913E+04 -1.83733E+04
  3.03862E+04 -1.08908E+04  3.84315E+04  3.05430E+03  2.22592E+04  2.68441E+04  1.66619E+03  4.07477E+04
 -2.03641E+04  3.41042E+04 -2.79708E+04  8.71511E+03 -2.28871E+04 -1.12877E+04 -2.56133E+03 -1.18795E+04
  3.73750E+02 -5.64478E+03 -7.62749E+03  1.15661E+04 -1.88509E+04  8.04398E+03 -1.79932E+04 -8.68447E+03
 -1.41971E+04 -1.95145E+04  3.67185E+03 -2.69830E+04  1.67525E+04 -2.17242E+04  2.20786E+04 -3.67426E+03
  1.09348E+04  1.40881E+04 -6.58092E+03  2.34205E+04 -1.72956E+04  1.37803E+04 -2.09393E+04 -3.62748E+03
 -8.36815E+03 -2.07663E+04 -2.46528E+03 -2.26914E+04  1.24034E+04 -2.36137E+04  2.50073E+04 -1.42532E+04
  2.30360E+04  2.66434E+03  1.47252E+04  4.09769E+03  9.33050E+03  3.77135E+01  1.33156E+04 -2.98393E+03
  1.59833E+04  1.91915E+03  2.52118E+04  1.73999E+04  1.59092E+04  2.98240E+04 -6.25881E+03  4.14374E+04
 -2.30635E+04  3.40815E+04 -3.82634E+04  1.11336E+04 -4.36066E+04 -3.05377E+03 -3.15395E+04 -2.67828E+04
 -1.15013E+04 -3.42059E+04  1.27009E+04 -3.04920E+04  3.00317E+04 -1.47334E+04  2.29752E+04  1.13163E+04
  9.02686E+03  1.47268E+04 -9.78278E+03  1.89318E+04 -2.03860E+04  2.46233E+03 -1.08715E+04 -1.59911E+04
  1.79049E+03 -1.89619E+04  1.25528E+04 -1.30717E+04  9.27183E+03 -2.45356E+03  3.88238E+03  8.40171E+03
 -7.70680E+03  2.88509E+03 -6.72366E+03 -8.76035E+03  2.86983E+03 -1.74993E+04  1.39584E+04 -1.59824E+04
  1.91508E+04 -1.32125E+04  2.56451E+04  5.30474E+02  2.15312E+04  2.06532E+04  5.67680E+03  2.24863E+04
 -2.06939E+03  2.97513E+04 -1.63516E+04  1.67065E+04 -2.16443E+04  2.25420E+03 -1.23800E+04 -4.09939E+03
 -1.77198E+03 -1.00044E+04 -2.65140E+03 -1.10522E+02 -7.89477E+02  5.03540E+03 -5.78817E+03  1.43694E+03
 -1.70195E+04 -2.62197E+03 -1.49376E+04 -5.08664E+03 -8.48132E+03 -1.54413E+04  1.09706E+03 -1.28858E+04
  7.07222E+03 -7.89501E+03 -9.66638E+02  6.43281E+03  5.62145E+03  6.98400E+03 -6.20638E+03 -1.13548E+03
 -9.91305E+03 -5.38725E+03 -1.43285E+03 -1.33164E+04  6.91003E+03 -1.18253E+04  2.62025E+04 -6.08357E+03
  2.37562E+04  2.94678E+03  1.17990E+04  1.27725E+04 -5.55555E+02  1.93236E+04 -7.05976E+03  1.54261E+04
 -9.87596E+03  9.53086E+03 -2.95657E+03 -5.06853E+03  3.38006E+03 -3.20216E+03  1.10426E+04 -2.04235E+03
  5.96661E+03  4.66808E+03  4.79988E+02  1.18222E+04 -1.20058E+04  2.35958E+03 -9.74706E+03  3.47088E+03
 -8.63644E+03 -1.14969E+04 -1.48625E+03 -1.35662E+04  1.21209E+04 -5.49158E+03  5.23302E+03 -3.01285E+03
  9.28256E+02  6.67780E+03 -9.12492E+03  1.58988E+04 -1.52596E+04  6.60427E+03 -1.25930E+04 -1.13236E+04
 -7.22404E+03 -1.00511E+04  1.99660E+03 -1.61295E+04  9.78478E+03 -8.19366E+03  1.31185E+04  7.09965E+02
  9.57387E+03  7.79372E+03 -7.68133E+03  1.63762E+04 -1.52022E+04  3.81231E+03 -1.31478E+04  1.39158E+03
 -9.68573E+03 -1.21166E+04  2.59659E+02 -8.71557E+03  7.00299E+03 -9.02023E+03  4.21007E+03 -7.77906E+03
  5.40976E+03 -6.59697E+02  2.23804E+03  3.26711E+02 -3.50569E+03 -4.20990E+03  6.32285E+02 -5.09216E+03
  9.46719E+03 -5.76408E+03  1.83801E+04 -6.83144E+02  1.50483E+04  4.51518E+03  1.38084E+04  1.59695E+04
 -4.21371E+03  2.18493E+04 -1.99856E+04  1.90099E+04 -1.94098E+04  4.86221E+03 -1.29644E+04 -7.19618E+03
 -1.03338E+04 -2.23284E+04  1.30770E+03 -1.15710E+04  1.39278E+03 -6.44566E+03  5.93211E+03 -3.09701E+03
  5.68436E+03 -5.49091E+03  4.96764E+03 -6.16752E+03  9.08069E+03 -4.22553E+03  1.01372E+04  1.12152E+03
  1.50877E+04 -6.30095E+02  3.34015E+03  3.15655E+03 -2.38528E+03  7.40627E+03 -8.14123E+03  9.02649E+03
 -1.35478E+04 -3.20362E+03 -1.15059E+04 -7.15256E+03  7.47063E+02 -9.46144E+03  7.03901E+03 -1.18931E+04
  1.31703E+04 -8.89058E+03  1.76710E+04 -2.40610E+03  1.22018E+04  1.08807E+04  1.59703E+03  1.12715E+04
 -4.95054E+03  1.64636E+04 -1.26923E+04  2.74277E+03 -1.82470E+03 -2.45829E+03 -4.06888E+03 -5.38162E+03
  5.15841E+02 -1.16790E+03  1.39984E+03  8.29785E+03 -6.82107E+03  2.16419E+03 -8.55619E+03 -6.26590E+03
 -3.87365E+03 -9.23449E+03 -1.13800E+03 -9.54135E+03  5.01583E+03 -1.31889E+04  7.48843E+03 -2.90876E+03
  9.75376E+03  6.97835E+03  5.71190E+03  1.23547E+04 -2.60332E+03  1.34560E+04 -1.02665E+04  9.98226E+03
 -1.15112E+04 -2.48740E+01 -5.40639E+03 -5.27491E+03  4.74258E+02 -7.06028E+03  2.05005E+03 -1.10081E+04
  6.05635E+03 -5.57743E+03  4.98614E+03 -3.82650E+03 -1.10150E+03  1.38904E+03  9.00418E+02  3.47009E+03
  1.15791E+03 -2.72700E+03  2.22036E+03  1.23345E+03  2.77224E+02  2.87575E+03  5.58097E+03  4.62884E+03
 -1.91336E+03  9.36036E+03 -5.92968E+03  7.99827E+03 -1.44731E+04  2.88481E+03 -1.90155E+04 -5.67919E+03
 -4.75967E+03 -1.60860E+04 -1.21121E+02 -1.84909E+04  1.29185E+04 -5.63690E+03  1.14762E+04 -8.36968E+03
  1.37735E+04  4.06850E+03  4.85669E+03  6.84157E+03  9.03026E+02 -2.92617E+02  2.61145E+03  3.26767E+03
 -1.57071E+03 -6.49916E+03  5.59710E+03 -6.10564E+03  2.64445E+03 -3.21465E+03  5.80890E+03  3.65130E+03
 -1.93668E+03  2.32278E+03  2.16884E+03  6.64734E+03  2.24818E+03  4.27974E+03  3.33911E+02 -9.98653E+02
  5.27552E+03 -2.38150E+03  4.80587E+03  3.70725E+03  1.92588E+03  4.34789E+03 -6.58676E+03  6.19288E+03
 -8.82373E+02  6.91510E+03 -9.42226E+03  4.38466E+03 -9.77009E+03 -2.03927E+03 -2.83253E+03 -1.94475E+03
  3.64380E+02 -1.16184E+03  3.92786E+03 -3.28302E+03  3.70650E+03  1.93496E+03 -3.71779E+03  7.88335E+03
 -5.84444E+03  7.80090E+02 -5.05567E+02 -2.55256E+03  1.38465E+03 -7.22739E+03  3.95919E+03 -4.31220E+03
  5.62744E+03 -5.25820E+02  8.76444E+02 -5.83309E+03  4.79428E+03 -4.83449E+03 -4.77260E+03  1.94634E+03
  8.30331E+02 -4.61130E+02 -4.10969E+03  2.84148E+02  1.57239E+03 -1.14063E+04  7.31642E+03 -4.78292E+03
  5.99268E+03 -2.50402E+03  7.12606E+03  3.77518E+03  5.43168E+02  8.78219E+03 -6.95433E+03  1.14563E+04
 -3.05536E+03 -1.13084E+03 -5.57216E+03 -2.35729E+03 -4.22104E+03  4.37893E+03  6.03943E+03  1.90987E+02
  7.67133E+03  5.63565E+01  6.04029E+03 -6.37251E+02  4.76428E+03  4.05744E+03 -3.23835E+03  2.61770E+03
  1.72911E+03  2.16825E+02 -3.81083E+03 -2.96907E+03  1.88923E+03  7.04755E+03 -1.02972E+03 -1.10222E+03
 -2.07397E+03  5.35034E+03 -6.78997E+03  5.48448E+03 -1.05384E+04  1.94813E+03 -2.73412E+03 -7.01389E+03
 -7.79070E+03 -1.31330E+04  7.78674E+03 -1.15844E+04  3.90522E+03 -1.01386E+04  1.01116E+04 -7.11391E+03
  8.89960E+03  3.51774E+03  4.26784E+03  1.30241E+04 -6.19927E+02  5.98579E+03 -2.98311E+03  3.97634E+03
  3.92949E+03 -1.46907E+03 -6.52065E+03 -4.58695E+03 -4.60923E+02 -2.12908E+03  4.01477E+03 -2.34858E+03
 -3.93290E+03 -2.87315E+03  1.29572E+02 -1.12599E+03 -1.41161E+03 -6.59466E+03 -3.85376E+03 -7.37642E+03
  4.20670E+03 -9.23520E+03  2.40478E+03 -3.54417E+03  5.36181E+03  4.16071E+03  2.83170E+03  5.34912E+03
 -1.02594E+04  8.81658E+03 -5.90013E+03  3.84315E+03 -1.00962E+04  1.72584E+03 -1.08531E+04 -8.60396E+03
  1.92176E+03 -8.52267E+03  2.17179E+03 -7.67076E+03  7.95251E+03  1.92099E+03  3.22804E+03 -8.57181E+02
  3.76443E+03  4.66387E+03 -1.13371E+03  2.46739E+03 -5.02262E+03  9.79335E+02  5.52400E+01  2.22002E+02
  3.38900E+03  2.09064E+03  5.95978E+02  7.01970E+02  4.41406E+03 -3.59610E+02 -1.77383E+03  1.47748E+03
 -2.41789E+03  6.00159E+03 -7.61931E+03  2.18972E+03 -3.05308E+03 -7.52550E+03 -1.03383E+04 -4.16572E+03
  6.40610E+03 -6.76344E+03  5.31878E+03  8.37668E+02  4.31626E+03  2.53302E+03  5.44014E+03  8.06389E+03
 -2.47676E+03  2.87723E+03 -3.37030E+03  6.70809E+03 -4.48055E+03  4.51054E+03 -4.80363E+03 -2.66166E+03
 -1.88408E+03  1.24374E+03 -4.35667E+03 -2.93889E+03 -1.65424E+03 -4.77293E+01 -1.64077E+02  1.06288E+03
 -9.17098E+03 -3.95633E+02  5.44817E+03 -4.38614E+03  2.08943E+03 -1.34378E+04  3.20376E+03 -3.09859E+03
  7.90742E+02  4.41791E+03  3.41269E+01  4.36203E+03  2.47411E+02 -6.76563E+02 -1.00906E+03  2.98937E+03
