 $NMID ID='MM_0lb_SNR50_9hz_g55_27.RAW', FMTDAT='(8E13.5)'
 TRAMP=1., VOLUME=1. $END
  3.11145E+05  3.97659E+02  3.34334E+05  2.51304E+05  8.78524E+04  3.36761E+05 -1.30367E+05  2.50197E+05
 -1.91613E+05  8.54166E+04 -1.18086E+05 -2.79619E+04  6.36262E+03 -4.71264E+04  5.59674E+04  1.69786E+03
  3.78839E+04  5.61988E+04 -1.68807E+04  7.16451E+04 -6.74544E+04  6.95609E+04 -8.08126E+04  3.14282E+04
 -8.62265E+04 -1.58766E+04 -5.76691E+04 -5.44804E+04 -1.50365E+04 -6.75845E+04  2.93083E+04 -5.07840E+04
  4.44457E+04  7.44653E+03  1.86530E+04  3.95763E+04 -3.44687E+04  4.66834E+04 -6.93685E+04 -6.20577E+03
 -5.47925E+04 -5.60713E+04 -9.74633E+03 -7.60213E+04  3.18333E+04 -5.44539E+04  4.64850E+04 -1.64234E+04
  4.48550E+04  1.95876E+04  3.63841E+04  2.69330E+04  1.76100E+04  3.14832E+04 -7.96453E+03  2.80699E+04
 -2.63266E+04  1.52944E+04 -1.73306E+04  1.25574E+03  6.20575E+03 -9.07947E+03  2.54903E+04  1.14145E+04
  4.58551E+03  3.64880E+04 -2.95206E+04  3.68137E+04 -6.31086E+04  3.51774E+03 -5.81939E+04 -4.20536E+04
 -1.27782E+04 -6.49670E+04  3.83602E+04 -4.39207E+04  6.45565E+04 -5.14803E+03  3.46042E+04  3.74771E+04
 -6.26576E+03  3.77809E+04 -2.53698E+04  1.60107E+04 -3.78439E+04 -1.27224E+04 -2.07106E+04 -8.07001E+03
 -1.54616E+04 -1.28451E+04 -2.65100E+03 -2.02497E+04  7.19646E+03 -2.17850E+04  1.43808E+04 -1.42018E+04
  6.11727E+03  5.04755E+03 -1.51359E+04  1.65274E+04 -2.19014E+04 -9.10123E+02 -8.82002E+03 -4.20871E+04
  2.83540E+04 -4.04354E+04  5.44799E+04 -2.61505E+04  5.03573E+04  2.30142E+04  2.02469E+04  4.68706E+04
 -1.81844E+04  4.04895E+04 -2.34565E+04  1.63333E+02 -1.98353E+04 -2.51845E+04  2.09402E+04 -3.46788E+04
  4.84756E+04 -1.23552E+04  3.97874E+04  2.57490E+04  2.61951E+04  5.76211E+04 -6.01804E+03  5.25539E+04
 -4.00389E+04  4.27664E+04 -5.21952E+04  1.77182E+04 -4.54395E+04 -1.50412E+04 -2.70745E+04 -3.60554E+04
 -1.52917E+03 -4.82359E+04  3.41740E+04 -2.50283E+04  2.99760E+04  1.57984E+04  9.52875E+03  2.25130E+04
 -1.19815E+04  1.15207E+04 -1.54474E+04 -9.50435E+03  4.83486E+03 -1.11792E+04  1.29905E+04  4.99476E+03
  1.74913E+04  2.31436E+04 -2.50497E+03  2.37665E+04 -2.84932E+04  1.56052E+04 -3.21599E+04 -2.18756E+03
 -2.42787E+04 -1.93802E+04 -1.23457E+04 -2.37974E+04  5.15058E+03 -2.18454E+04  1.97508E+04 -2.70781E+04
  3.20889E+04 -1.27250E+04  4.15980E+04  2.32252E+03  2.03646E+04  2.53520E+04  2.54160E+03  4.33594E+04
 -2.09034E+04  3.47096E+04 -3.21037E+04  1.38611E+04 -2.03344E+04 -1.29763E+04 -9.04515E+03 -1.37658E+04
 -2.78661E+03 -2.90557E+03 -1.30259E+04  7.34857E+03 -2.29727E+04  2.31947E+03 -1.36618E+04 -1.36085E+04
 -1.26070E+04 -2.59834E+04  5.96863E+03 -2.91583E+04  1.62465E+04 -2.08612E+04  2.52649E+04 -5.42387E+03
  1.22642E+04  1.53254E+04 -2.15431E+03  2.55927E+04 -1.85830E+04  1.35347E+04 -2.70306E+04 -2.76013E+03
 -1.30835E+04 -2.36241E+04 -3.48338E+03 -2.78982E+04  1.17483E+04 -2.52471E+04  2.49993E+04 -7.89095E+03
  2.10068E+04  1.84480E+03  1.58120E+04  1.10395E+04  5.59274E+03 -5.98648E+03  7.45983E+03 -1.94680E+03
  2.20965E+04  4.95015E+03  3.19902E+04  1.65887E+04  1.93423E+04  4.02700E+04 -2.33771E+03  4.35878E+04
 -2.81073E+04  3.33801E+04 -4.91939E+04  2.30276E+04 -4.47033E+04 -1.15723E+04 -3.22996E+04 -2.84719E+04
 -1.86859E+04 -4.58837E+04  1.30343E+04 -2.87804E+04  3.11666E+04 -1.57405E+04  2.50867E+04  6.17925E+03
  8.87299E+03  1.71379E+04 -1.02752E+04  1.30749E+04 -1.55383E+04 -1.67564E+03 -1.28401E+04 -1.04662E+04
 -7.72992E+03 -1.90936E+04  1.39026E+04 -1.21247E+04  1.44685E+04  5.28230E+03 -5.58306E+03  1.97927E+04
 -5.33460E+03  1.26604E+03 -1.01722E+04 -1.25910E+04 -1.21076E+04 -1.65251E+04  1.23056E+04 -2.14306E+04
  2.48788E+04 -9.92590E+03  2.10694E+04  8.36092E+03  2.67848E+04  1.92837E+04  8.00317E+03  2.90916E+04
 -6.51145E+03  3.42502E+04 -2.16381E+04  1.82205E+04 -2.11969E+04  4.33373E+03 -1.22408E+04 -2.25438E+03
 -6.47787E+03 -4.96064E+03  4.53472E+02  3.89488E+03  1.65659E+03  6.41733E+03 -7.51971E+03  5.31319E+03
 -1.26951E+04 -4.48688E+03 -1.69645E+04 -1.25246E+04 -6.51842E+03 -2.44654E+04  1.03405E+04 -2.03473E+04
  9.84779E+03 -9.52592E+03  1.43438E+04  3.78287E+03  1.72003E+03  1.28470E+04 -4.34105E+03  1.79285E+03
 -6.96396E+03 -1.05898E+04  3.00570E+03 -1.56218E+04  1.46377E+04 -2.42760E+04  1.50428E+04 -6.16542E+03
  2.45731E+04  1.83180E+03  1.68631E+04  1.13128E+04  6.06117E+03  1.18084E+04 -1.06414E+04  1.62088E+04
 -8.74027E+03  6.16117E+03 -6.84807E+03 -6.31319E+03  5.79796E+03 -8.83180E+03  2.91726E+03  2.15502E+02
  4.19180E+03  5.07239E+03  1.43147E+03  1.84214E+04 -9.20799E+03  4.87027E+03 -1.99555E+04  6.48561E+02
 -3.60587E+03 -8.39253E+03  1.87568E+03 -8.58246E+03  1.08788E+04 -7.56637E+03  1.32001E+04  4.13169E+03
  2.00667E+03  3.71850E+03 -8.71322E+03  1.34246E+04 -1.51812E+04  4.56344E+03 -1.00970E+04 -9.32193E+03
 -1.14723E+04 -2.00469E+04  7.01806E+03 -1.79373E+04  7.75477E+03 -8.88035E+03  1.41603E+04  1.40193E+03
  1.13482E+04  1.29352E+04 -2.23027E+03  1.98512E+04 -1.01324E+04  8.38666E+03 -1.22493E+04  4.35287E+03
 -7.52347E+03 -1.45043E+04 -2.35613E+03 -1.15288E+04  8.15542E+03 -1.03982E+04  5.38335E+03 -6.08555E+03
  6.17651E+03  7.24523E+03  2.93594E+03  9.89562E+03 -5.26431E+03 -9.86498E+02  1.82467E+02 -5.17000E+03
  1.17456E+04 -7.57184E+03  1.61847E+04  4.82890E+03  1.06501E+04  1.21700E+04  7.03235E+03  2.53725E+04
  5.08687E+03  2.21205E+04 -1.53749E+04  1.28861E+04 -2.47254E+04  2.54095E+03 -1.64347E+04 -1.16543E+04
 -1.42209E+04 -1.69022E+04  1.37142E+02 -2.04340E+04  3.97455E+03 -1.22471E+04  8.14701E+03 -4.09045E+03
 -2.53561E+03 -5.97302E+03  8.30896E+03 -1.31741E+04  1.08674E+04 -7.20042E+03  7.72114E+03 -8.21812E+03
  1.45563E+04  6.01536E+03  9.84394E+03  7.20581E+03 -1.98059E+03  1.65858E+04 -1.60087E+04  1.03381E+04
 -1.57911E+04  3.49984E+03 -1.29056E+04 -1.79560E+04  7.32243E+03 -2.16837E+04  8.98479E+03 -1.68177E+04
  1.54738E+04 -1.07832E+04  1.99266E+04  7.45539E+03  8.41936E+03  1.88616E+04 -3.14349E+03  1.70536E+04
 -1.50904E+04  1.13364E+04 -1.14409E+04  2.10115E+03 -1.17160E+04 -6.80473E+03 -3.74538E+03 -4.03890E+03
  3.05470E+03 -6.54272E+03  3.10438E+03  7.27930E+01 -8.29119E+03 -2.93826E+02 -1.24603E+04  4.35464E+02
 -8.22993E+03 -1.24331E+04  1.19804E+03 -8.12759E+03  7.70472E+03 -5.75041E+03  1.59210E+04 -2.41086E+03
  1.00332E+04  5.54633E+03  8.66981E+03  1.92617E+04 -3.53889E+02  1.14734E+04 -7.84848E+03  5.40287E+03
 -1.66733E+04 -1.44599E+03 -1.39272E+04 -9.45595E+03 -4.64001E+03 -1.61955E+04  8.02682E+03 -9.65655E+03
  8.24392E+03 -4.49546E+02  2.31959E+03 -4.86281E+03  3.23687E+03  3.29167E+03  5.02597E+03  2.32100E+02
 -8.29334E+02  5.96716E+02 -9.52007E+02  2.19619E+02  1.07716E+02  8.02614E+03 -2.41036E+03  7.21739E+03
 -3.55319E+03  1.15796E+04 -1.15092E+04  1.88794E+04 -1.38027E+04 -2.70603E+03 -1.81370E+04 -2.44066E+03
 -1.18079E+04 -1.63770E+04  7.82814E+03 -1.64532E+04  8.48427E+03 -1.08844E+04  2.12588E+04  1.96962E+02
  1.23190E+04  7.58529E+03 -1.33164E+02  7.44378E+03 -9.85855E+03 -2.45896E+03 -8.57501E+03 -4.13691E+03
 -4.03602E+03 -7.26576E+03  1.10026E+03 -7.00863E+03  2.19071E+02 -4.11043E+03  7.99645E+03  2.39265E+03
  9.51051E+03  6.45570E+03  6.62947E+03  1.75048E+03 -3.06131E+03  3.31727E+03  4.72674E+03 -2.30189E+03
  9.08170E+03 -3.28936E+03  2.61087E+03 -1.75988E+03 -2.06824E+03  3.04954E+03  1.32565E+03  4.29499E+03
 -7.30835E+03  9.76067E+03 -6.86389E+03 -8.25616E+03 -6.91704E+03 -4.90355E+03 -4.63619E+03 -3.10667E+03
  1.34610E+03 -7.02334E+03  4.22672E+03 -6.75740E+02 -2.57689E+03  2.01811E+03  5.68047E+03  9.89553E+03
 -3.50555E+03  3.89609E+02 -6.35599E+03 -2.24482E+03  4.58536E+02 -6.24624E+03 -3.78620E+03 -7.94629E+03
  4.23560E+03 -2.73804E+03  1.40570E+04 -2.07526E+02  5.96392E+02  1.94513E+03 -4.02054E+03  6.53404E+03
 -1.54570E+03 -7.20222E+03 -1.14807E+03 -2.29639E+03 -4.46644E+03 -6.03922E+03  3.18840E+03 -6.78747E+03
  3.20528E+03  1.61711E+03  9.01239E+03  5.67403E+03  2.50848E+03  1.10624E+04 -2.17695E+03  1.17257E+04
 -1.28261E+04  9.63030E+03 -1.33569E+04 -1.65067E+03 -1.11678E+04 -1.52401E+04  3.28610E+03 -7.16733E+03
  6.61104E+03 -9.97708E+02  6.88568E+03 -1.94488E+03  2.15351E+02  8.14294E+03 -1.77373E+03  1.02958E+04
 -5.38321E+03  2.92416E+02 -3.43078E+03 -3.01045E+03 -5.82301E+03  2.99037E+03 -4.85554E+03  1.55549E+03
 -7.78615E+03  3.97112E+03 -4.34596E+03  6.67734E+03 -1.06341E+04  3.09539E+03 -1.27252E+04 -3.51719E+03
 -1.54921E+04 -1.37114E+04  3.05597E+03 -1.43914E+04  1.43265E+04 -2.16359E+04  1.52331E+04 -4.55304E+03
  1.09067E+04  2.33750E+03  6.19370E+03  6.97709E+03  1.01629E+03  7.83264E+03 -4.58058E+03  5.79325E+02
 -6.70008E+03  6.09125E+03  2.39866E+02  9.09740E+02 -1.05436E+03 -6.10967E+03 -3.94731E+03  2.22247E+03
 -3.61480E+03  1.75767E+03 -3.33458E+03  1.88553E+03 -6.30631E+03 -6.73944E+02 -4.15673E+02 -2.30699E+03
  6.73056E+03 -1.00275E+04  8.72923E+03 -2.33460E+03  6.83374E+03 -4.41962E+02  2.94115E+02  1.30399E+04
 -1.00287E+04  1.31198E+04 -1.06039E+04  8.79877E+03 -1.14369E+04 -3.10024E+03 -4.06541E+03 -6.20812E+03
 -4.04516E+03 -1.03162E+04  9.85956E+02 -1.32257E+04  7.31814E+03 -1.72192E+03  1.19879E+04 -3.50618E+03
  5.91294E+03  8.23845E+03 -1.86411E+03 -1.66215E+03 -3.72248E+02 -9.60041E+03  1.34273E+03 -3.43886E+03
  7.21000E+02  1.81704E+03  3.75202E+03 -3.08777E+03  6.01166E+03  4.55679E+03 -1.45540E+02  1.15630E+04
 -4.67463E+03  4.92067E+03 -6.50352E+03 -2.01581E+03 -1.79723E+03  6.74762E+02 -6.38848E+02 -1.21530E+04
  5.52826E+03 -1.16139E+04  1.15149E+04 -6.33713E+03  1.04292E+04  3.50834E+03  7.72431E+03  1.16936E+04
  4.32730E+03  1.27072E+03 -1.78671E+03  8.08855E+03  5.47413E+02  3.54704E+02 -1.24347E+03  5.83143E+03
 -7.41875E+03  1.07097E+03  6.60334E+03 -1.69762E+03 -2.52191E+03 -3.38644E+03 -3.86515E+03 -2.19950E+02
 -5.84988E+03 -4.79911E+03 -1.04597E+03 -9.95381E+03  1.74274E+03 -1.60564E+04  6.25530E+03 -3.53472E+03
  5.14430E+03  4.02871E+03  5.80422E+03  1.15254E+04  1.62044E+03  7.45514E+03 -4.34384E+03  1.19971E+03
