 $NMID ID='MM_0lb_SNR50_17hz_g55_33.RAW', FMTDAT='(8E13.5)'
 TRAMP=1., VOLUME=1. $END
  3.11952E+05  1.27966E+03  3.37215E+05  2.53188E+05  8.48688E+04  3.35059E+05 -1.29265E+05  2.50077E+05
 -1.89473E+05  8.42176E+04 -1.08790E+05 -3.17867E+04 -5.49071E+02 -4.96293E+04  5.36256E+04 -3.29456E+03
  3.27322E+04  5.56783E+04 -1.71309E+04  7.17325E+04 -6.21250E+04  6.22133E+04 -8.51208E+04  2.98768E+04
 -8.35889E+04 -1.39804E+04 -5.65804E+04 -5.26277E+04 -1.52296E+04 -6.94079E+04  2.37035E+04 -4.39924E+04
  3.87726E+04  1.82839E+03  1.99833E+04  4.66908E+04 -3.15354E+04  4.72067E+04 -6.77831E+04 -2.64669E+03
 -4.86601E+04 -5.97134E+04 -7.74267E+03 -7.51476E+04  3.61093E+04 -5.54930E+04  5.07859E+04 -1.98739E+04
  4.20615E+04  9.00988E+03  3.00805E+04  2.43241E+04  1.38886E+04  3.02769E+04 -8.17172E+03  2.53396E+04
 -2.23346E+04  1.35969E+04 -1.67349E+04 -2.96603E+03  3.79390E+03 -2.61631E+03  2.07037E+04  1.38827E+04
  4.82813E+03  3.73627E+04 -3.13651E+04  3.86116E+04 -6.10861E+04 -2.88991E+03 -6.03078E+04 -4.44347E+04
 -1.39539E+04 -6.06006E+04  3.97221E+04 -4.84981E+04  5.81316E+04 -2.34730E+03  2.93961E+04  2.90869E+04
 -5.09133E+03  3.89786E+04 -3.21652E+04  1.66397E+04 -3.12239E+04 -3.39771E+03 -1.24113E+04 -9.51614E+03
 -9.23031E+03 -1.10102E+04 -3.78639E+03 -1.59506E+04  7.06905E+03 -2.17256E+04  1.77829E+04 -1.46249E+04
  1.40885E+04  5.27702E+03 -8.74645E+03  1.39569E+04 -2.21059E+04 -7.73691E+03 -7.78471E+03 -3.06892E+04
  2.29128E+04 -4.35701E+04  4.84963E+04 -2.10736E+04  4.12401E+04  1.88985E+04  1.50215E+04  4.25991E+04
 -1.88906E+04  2.98452E+04 -2.90577E+04  7.77799E+02 -1.18699E+04 -2.65390E+04  2.64868E+04 -3.44215E+04
  3.84731E+04 -7.04917E+03  3.50168E+04  2.53238E+04  1.60258E+04  4.47331E+04 -4.51378E+03  4.79155E+04
 -3.33242E+04  3.07425E+04 -3.99120E+04  1.27202E+04 -3.64866E+04 -1.51839E+04 -2.07856E+04 -3.78104E+04
  7.39478E+03 -3.49931E+04  3.49781E+04 -1.03900E+04  2.83729E+04  1.14597E+04  2.13118E+03  1.72313E+04
 -1.43608E+04  5.54458E+03 -1.38903E+04 -6.51422E+03  7.73577E+03 -8.10560E+03  1.48927E+04  4.58796E+03
  1.07842E+04  2.02558E+04 -5.88216E+03  2.11740E+04 -1.67213E+04  9.66013E+03 -2.56341E+04 -8.57895E+03
 -2.09595E+04 -1.58849E+04 -1.05269E+04 -1.98564E+04  7.06539E+03 -1.73834E+04  1.61558E+04 -1.97406E+04
  2.45716E+04 -1.31923E+04  3.23024E+04 -6.78227E+02  2.00906E+04  1.74722E+04  6.44437E+03  3.62736E+04
 -1.48990E+04  3.26709E+04 -3.01306E+04  1.19784E+04 -2.05223E+04 -8.79542E+03 -1.42170E+03 -1.51614E+04
  6.72013E+03 -7.17108E+01 -6.22592E+03  5.49950E+03 -1.47293E+04  4.39016E+03 -1.39499E+04 -6.55721E+03
 -1.11405E+04 -1.53077E+04  3.85559E+03 -1.94896E+04  9.35404E+03 -1.48585E+04  1.62302E+04 -3.93186E+03
  1.23905E+04  1.03580E+04 -9.76624E+02  1.38482E+04 -1.25579E+04  8.81368E+03 -1.26808E+04 -4.94760E+03
 -1.48019E+04 -1.62042E+04  2.27743E+03 -1.99632E+04  6.00517E+03 -1.54784E+04  1.65751E+04 -5.20658E+03
  2.06275E+04 -2.47520E+02  1.21335E+04  1.42307E+03  9.63687E+03  1.73635E+03  4.31630E+03 -5.32746E+02
  1.50663E+04  7.72531E+00  1.67836E+04  1.17245E+04  9.30833E+03  2.45486E+04 -6.18275E+03  3.24435E+04
 -2.18463E+04  2.11791E+04 -2.82838E+04  1.02272E+04 -2.81627E+04 -6.53160E+03 -2.72295E+04 -1.57948E+04
 -1.24157E+04 -2.16096E+04  3.01430E+03 -2.76632E+04  1.64540E+04 -8.64101E+03  1.92118E+04  3.57450E+03
  7.62803E+03  1.30046E+04 -8.95784E+03  1.22838E+04 -1.32038E+04  2.20172E+03 -1.11273E+04 -4.07080E+03
 -6.09593E+01 -1.33210E+04  3.72966E+03 -1.53369E+04  1.03979E+03 -5.65372E+03  4.21758E+03  4.99232E+03
 -4.46254E+03  2.23826E+03 -4.64373E+03 -7.61948E+03 -1.46385E+03 -1.40488E+04  1.04855E+04 -8.44009E+03
  2.15303E+04 -6.03489E+03  9.91041E+03  3.94619E+03  1.68862E+04  9.61753E+03  8.49079E+03  1.84462E+04
 -5.48040E+03  1.92681E+04 -9.93465E+03  1.15533E+04 -1.32639E+04  4.47206E+03 -9.77685E+03 -3.94101E+03
 -1.67137E+03 -2.68806E+03  7.55370E+02  6.09740E+03 -4.63111E+03  2.24248E+03 -8.07820E+03  4.41841E+03
 -1.05102E+04 -2.93343E+03 -8.49865E+03 -6.91271E+03 -2.78631E+03 -1.63914E+04  4.11219E+03 -9.12423E+03
  8.26783E+03 -6.87887E+03  6.20364E+03  1.96052E+03 -9.36130E+02  3.03393E+03  1.66668E+03  1.38922E+03
 -4.87810E+03 -1.07637E+04  9.11969E+02 -9.57386E+03 -4.71990E+02 -9.76541E+03  9.97936E+03 -7.67014E+03
  1.32614E+04  5.68611E+03  7.56757E+03  1.19461E+04  1.15578E+03  1.33282E+04 -7.83721E+03  1.07342E+04
 -4.23238E+03  7.59107E+03 -5.54427E+03 -5.16152E+03 -9.43798E+01 -5.40683E+03  4.33407E+03  3.09108E+02
  5.25073E+03  2.07569E+03  3.92951E+02  8.64966E+03 -7.61027E+03  1.12649E+04 -7.41425E+03  1.42989E+03
 -6.30951E+03 -4.53141E+03 -5.01587E+02 -7.37975E+03 -1.43950E+03 -3.78577E+03  2.55371E+03 -4.13803E+02
  2.20048E+03  1.42556E+03 -3.45882E+03  6.14854E+03 -1.14446E+04  4.34437E+03 -2.55407E+03  1.59276E+03
 -8.43348E+03 -6.65894E+03  1.05771E+03 -9.01850E+03  1.69990E+03 -4.71904E+03  7.23265E+03 -3.04723E+03
  3.00748E+03  5.15957E+03  2.29836E+03  3.77343E+03 -4.88539E+03  4.36908E+03 -4.89165E+03 -2.66742E+03
 -5.70296E+03 -6.21794E+03 -5.09856E+03 -1.23055E+04  1.66470E+03 -6.15352E+03  2.88201E+03 -1.36421E+03
  6.84037E+03 -8.87518E+02 -3.29167E+03  1.76362E+03 -1.88487E+03 -4.55761E+03  1.29554E+03 -4.60422E+02
  3.43693E+03 -3.86809E+03  4.82904E+03  1.39932E+03  3.79222E+03  1.29844E+03  4.87940E+03  1.02195E+04
 -7.44968E+03  1.21420E+04 -7.78135E+03  1.00168E+04 -1.02022E+04  2.84654E+03 -9.05939E+03 -3.61052E+03
 -7.27921E+02 -3.25278E+03 -1.99676E+02 -5.93877E+03  3.06345E+03 -3.06271E+03 -2.41546E+03 -2.20775E+03
  6.84069E+03 -1.89412E+03 -6.00803E+02  6.53525E+02  5.15270E+03 -1.07929E+03 -8.86508E+02  1.24237E+02
  3.64769E+02  9.94689E+02 -2.03869E+03  2.51962E+03 -1.37347E+03  6.64453E+03 -5.86824E+03  2.53634E+03
  2.31936E+02 -7.31834E+03 -4.19543E+03 -6.04682E+03 -1.20068E+03 -9.50688E+03 -4.11395E+02 -9.09357E+03
  1.01769E+04 -2.92972E+03  1.24236E+04 -2.49403E+03  6.00985E+03  3.04543E+03  2.92798E+03  1.19863E+04
 -7.90581E+02  5.85454E+03 -3.38455E+03  3.86297E+03 -2.63925E+01  3.08975E+03 -4.13255E+03 -2.40724E+02
 -1.61383E+03  6.11390E+03  1.45833E+03 -8.43293E+01 -5.72077E+03  4.77429E+03  5.59782E+02 -4.10484E+02
 -1.58193E+02 -6.95525E+03  1.51167E+03 -2.60111E+03  7.84533E+03 -4.56395E+03  5.17693E+03 -8.10849E+02
  9.20077E+02  8.55249E+03  3.49197E+03  6.20518E+03 -1.93172E+02  4.76597E+03 -3.40844E+03  2.17796E+03
 -7.75659E+03 -1.09372E+03 -7.12098E+03 -2.86558E+03 -4.08819E+03 -3.38176E+03 -2.43490E+02 -3.82537E+03
  3.94476E+03 -6.55598E+02  7.00594E+03  8.49942E+02  5.15287E+03  2.31179E+03  1.47692E+03 -1.86866E+03
 -1.60983E+03 -6.44698E+02  1.23860E+03  2.31964E+03  2.55433E+03  4.58943E+03  1.19442E+03  1.40079E+03
  4.68561E+02  3.43992E+03 -3.81189E+03  7.25086E+03 -2.29525E+03 -1.17881E+03 -2.33458E+03 -6.42049E+03
 -1.44601E+03 -6.34079E+03 -1.78985E+03 -9.41020E+03  4.03361E+03  8.90037E+02  5.89198E+03 -6.67279E+03
 -6.36317E+02 -5.85065E+02  8.95149E+02  3.62338E+03 -1.35974E+03  1.75106E+03  1.22338E+03  2.84531E+03
 -2.19273E+03 -1.31092E+03  2.17571E+03 -1.29670E+03  2.46075E+03  3.34537E+02  1.68730E+03  1.95047E+03
  1.82200E+03  1.61003E+03  3.06392E+03  1.07549E+02 -7.90410E+02 -8.99752E+02 -1.44999E+03  1.54566E+03
 -4.67130E+03 -4.18994E+03  4.83924E+03  1.48718E+03  3.04354E+03  4.55270E+03 -5.30019E+02  4.96374E+03
 -2.26785E+03 -1.15672E+03 -7.49942E+03  3.07066E+03 -2.88926E+03  2.23059E+03  7.33444E+02  5.73162E+02
 -1.94902E+03 -1.40707E+03 -2.76333E+03 -2.90108E+03 -2.01611E+03  4.54225E+02  1.05120E+03 -5.99894E+03
  4.53703E+03 -7.29153E+02 -3.30459E+03 -1.59600E+03  3.76062E+01 -2.29517E+03 -3.36651E+03  1.12263E+03
 -1.34071E+03  3.02948E+03  1.13854E+03  4.83202E+02  7.44424E+02  2.91138E+03 -2.18658E+03  5.57827E+03
 -3.16591E+03  3.29508E+02 -1.81754E+03 -1.91331E+02  3.64188E+03 -6.64977E+03  1.75695E+03 -5.31256E+03
 -1.58952E+03  1.36555E+03  5.10638E+03  3.33732E+03  2.38985E+03  2.46660E+03  5.66076E+03 -3.79691E+02
 -5.92321E+02 -1.64032E+03 -2.98668E+03  1.82815E+02 -1.49377E+03 -5.89155E+02  3.18977E+01  2.74174E+02
  4.42433E+03  3.87200E+03 -7.16863E+02 -2.33545E+03 -7.17780E+03  1.37879E+03  3.45217E+03  1.77366E+03
  5.44863E+02  6.07440E+02  2.01831E+03  3.77477E+03 -4.66400E+02 -3.08888E+02 -2.66084E+02  2.15479E+03
 -3.77800E+03 -2.02918E+03 -3.42677E+03  1.05132E+03 -3.64327E+03  1.14165E+03 -1.23452E+03 -4.15168E+03
 -3.55030E+03 -7.16909E+03  2.87835E+03 -1.84665E+03 -2.91272E+03 -3.90296E+03  2.22556E+03 -2.98873E+02
  7.90141E+03 -2.81731E+03  2.90253E+03  5.20649E+03  2.61776E+03  4.97489E+03 -5.52213E+03  1.54539E+03
 -5.52152E+03  1.40038E+03  1.13480E+03 -1.92383E+03  2.48439E+03 -2.22988E+03 -1.81529E+03  5.17791E+03
 -5.84171E+03 -2.10868E+03  4.09457E+03 -6.76356E+02  1.29629E+03  4.88656E+03 -6.48818E+02 -1.29192E+03
  3.51104E+03  7.23852E+02  1.28470E+03 -4.14980E+03  1.17359E+03  2.39730E+03  5.33657E+02  1.70900E+03
 -4.98349E+03  4.79095E+03 -1.69375E+03  3.84613E+03 -3.81644E+03 -7.70541E+02 -3.68962E+03 -4.88756E+03
 -4.25628E+03 -4.55679E+03 -2.78002E+03 -2.16232E+03  8.93213E+02 -2.07639E+03  1.03644E+03  2.32372E+03
  3.20524E+02  2.13024E+03 -1.32777E+02 -1.66471E+03 -4.50907E+03  2.41584E+03  3.54974E+03  1.52193E+03
 -9.42726E+01 -3.48617E+03  1.97126E+03  1.29645E+02  9.76629E+02  2.48062E+03  4.84745E+02  1.83623E+03
  5.38168E+02 -3.25317E+03 -2.24768E+03  9.66789E+02 -6.16843E+03  1.46218E+03  4.60186E+03  1.15820E+03
  3.23228E+03 -6.81138E+03  1.75375E+03  1.47364E+03  3.15533E+03  1.77203E+02 -5.08137E+02  3.94120E+03
  2.26288E+03 -2.45457E+03  1.12961E+03  1.70422E+03 -4.39761E+02 -1.80731E+03 -3.29895E+03  9.12975E+02
  2.21680E+03  2.87003E+02  2.01970E+03  5.10289E+03 -3.73591E+02  1.00050E+02 -3.51375E+03  9.21766E+02
 -3.31015E+03 -8.86624E+02 -3.42227E+02 -3.62407E+03  4.47681E+03 -5.93661E+03  2.43528E+03 -1.81033E+03
  1.51664E+02  3.80690E+03 -1.08629E+03  3.07383E+03  1.73303E+03  7.76380E+03  2.94500E+03 -1.80186E+03
