 $NMID ID='MM_0lb_SNR50_11hz_g50_98.RAW', FMTDAT='(8E13.5)'
 TRAMP=1., VOLUME=1. $END
  3.05014E+05 -1.80867E+03  3.42078E+05  2.52689E+05  8.00212E+04  3.38213E+05 -1.35028E+05  2.52134E+05
 -1.87303E+05  8.27141E+04 -1.10381E+05 -3.18366E+04  5.60866E+03 -4.97123E+04  5.83412E+04 -1.34441E+03
  4.24366E+04  5.24637E+04 -2.09301E+04  7.86347E+04 -6.77064E+04  6.60560E+04 -8.52224E+04  3.25769E+04
 -8.54963E+04 -1.16836E+04 -6.09474E+04 -5.28746E+04 -1.58543E+04 -7.01652E+04  2.60668E+04 -4.41002E+04
  4.30017E+04  5.06976E+03  1.92290E+04  5.33783E+04 -3.32274E+04  4.85553E+04 -6.72304E+04  3.33475E+02
 -5.38393E+04 -5.50396E+04 -9.53120E+03 -7.78569E+04  3.60460E+04 -5.67631E+04  5.15314E+04 -1.58887E+04
  3.95082E+04  1.40665E+04  3.25680E+04  2.43822E+04  1.82028E+04  2.46845E+04 -7.74588E+03  2.15773E+04
 -2.37824E+04  1.01376E+04 -1.71295E+04 -6.63501E+03 -2.66771E+01 -3.71016E+03  1.99972E+04  1.46109E+04
  7.46387E+03  3.78672E+04 -3.67907E+04  3.33306E+04 -6.93814E+04  4.13450E+03 -5.50862E+04 -4.63743E+04
 -1.25696E+04 -6.00108E+04  3.87568E+04 -4.60713E+04  5.79592E+04 -5.64363E+03  3.86369E+04  3.48968E+04
 -6.44465E+03  3.47104E+04 -3.26047E+04  1.71773E+04 -3.20394E+04 -6.81647E+03 -2.44819E+04 -1.36185E+04
 -1.04460E+04 -1.18578E+04 -2.91107E+01 -1.80494E+04  3.72797E+03 -2.27125E+04  1.13483E+04 -1.50561E+04
  8.98656E+03  7.37836E+03 -1.18397E+04  1.25335E+04 -2.47699E+04 -7.12013E+03 -6.86527E+03 -3.82225E+04
  2.60882E+04 -5.00526E+04  5.50737E+04 -2.08024E+04  4.71561E+04  2.05156E+04  1.68429E+04  4.41959E+04
 -1.84867E+04  3.84495E+04 -2.86184E+04  1.31607E+03 -1.40283E+04 -2.43177E+04  2.16689E+04 -3.24577E+04
  4.30023E+04 -1.41268E+04  3.98452E+04  2.49703E+04  2.03838E+04  4.34558E+04 -1.05247E+04  5.54434E+04
 -3.33622E+04  3.42512E+04 -4.78766E+04  1.33682E+04 -4.51897E+04 -1.87209E+04 -2.48623E+04 -4.19343E+04
  3.46002E+03 -3.97942E+04  3.35928E+04 -1.63813E+04  2.95735E+04  1.06932E+04  2.28035E+03  2.21658E+04
 -1.42458E+04  7.88290E+03 -9.22596E+03 -8.35825E+03  4.73047E+03 -1.13360E+04  1.88407E+04  5.00927E+03
  1.63627E+04  2.12506E+04 -6.66817E+03  2.24777E+04 -2.52365E+04  1.15379E+04 -3.09303E+04 -3.12680E+03
 -2.47183E+04 -2.09912E+04 -1.07187E+04 -1.85064E+04 -1.07177E+03 -2.52684E+04  1.79303E+04 -1.61880E+04
  3.30982E+04 -1.25471E+04  3.44095E+04  7.02574E+03  2.63885E+04  2.32655E+04  6.81273E+03  4.11271E+04
 -2.81442E+04  3.14466E+04 -3.40805E+04  8.72874E+03 -2.43866E+04 -1.14793E+04 -3.33159E+03 -1.09615E+04
  1.51393E+03 -4.01904E+03 -4.59331E+03  1.05637E+04 -1.38891E+04  6.47077E+03 -1.57533E+04 -4.50876E+03
 -9.51015E+03 -2.06276E+04  3.90638E+03 -2.36363E+04  1.49656E+04 -1.82970E+04  1.24236E+04  1.53650E+03
  1.10915E+04  1.39775E+04  2.07149E+03  1.90597E+04 -1.36598E+04  1.46018E+04 -2.13589E+04 -6.14868E+03
 -1.70303E+04 -2.37155E+04 -5.83379E+03 -2.49244E+04  1.17410E+04 -2.18535E+04  2.64402E+04 -1.39136E+04
  2.24819E+04  4.82122E+03  1.29083E+04  9.74868E+02  9.92640E+03  4.92814E+03  1.74934E+04 -4.47908E+03
  2.24565E+04  7.36618E+03  2.40391E+04  1.69090E+04  2.02802E+04  3.47909E+04  1.73877E+03  3.93275E+04
 -2.09983E+04  3.27547E+04 -3.32688E+04  1.51913E+04 -4.48134E+04 -5.70582E+03 -2.66348E+04 -2.21346E+04
 -1.22932E+04 -3.56010E+04  1.17650E+04 -2.89815E+04  1.84012E+04 -1.57030E+04  2.35635E+04 -6.88583E+02
  7.10131E+03  1.78320E+04 -8.64121E+03  8.76277E+03 -1.48912E+04 -2.67791E+02 -1.32032E+04 -8.12696E+03
 -3.65436E+03 -1.97670E+04  1.40207E+04 -1.24382E+04  1.05371E+04 -2.00027E+03  4.62888E+02  6.28435E+03
 -9.00598E+03  2.87510E+03 -6.62821E+03 -1.01466E+04 -3.57162E+03 -1.90647E+04  6.63836E+03 -1.71599E+04
  1.87274E+04 -5.84615E+03  2.12531E+04  5.22104E+03  1.96851E+04  1.45933E+04  1.41023E+04  2.15156E+04
 -1.08287E+03  2.55816E+04 -1.39696E+04  2.12782E+04 -2.65462E+04 -3.30488E+03 -1.65693E+04 -3.06021E+03
 -2.59813E+03 -8.69963E+03 -6.14196E+03  3.74125E+02 -2.76870E+03 -5.68592E+03 -1.08359E+04  2.26600E+03
 -1.26403E+04 -2.04283E+03 -1.13583E+04 -5.96835E+03 -4.03057E+03 -1.95310E+04  8.93340E+03 -2.02961E+04
  1.78477E+04 -4.95073E+03  8.12647E+03 -2.35368E+03 -7.61152E+02  2.77151E+03 -6.63046E+02 -1.43618E+03
 -6.00591E+03 -9.94877E+03 -7.14199E+02 -1.21509E+04  6.39462E+03 -1.59338E+04  2.17467E+04 -6.45055E+03
  1.79883E+04  8.08558E+03  1.30162E+04  8.89249E+03  5.42564E+03  1.61489E+04 -5.03457E+03  1.56430E+04
 -8.30286E+03 -6.42251E+02 -2.89900E+03  2.50612E+03  3.02609E+03 -2.49467E+03  1.02720E+04  2.51942E+02
  4.90972E+03  5.82267E+03  6.55637E+03  1.35862E+04 -1.09105E+04  8.80874E+03 -1.62216E+04 -4.05480E+03
 -1.06000E+04 -3.73537E+03  5.06915E+02 -6.61640E+03  3.48196E+03 -6.38023E+03  9.52038E+03  4.75670E+03
  4.05641E+03  9.59069E+03 -8.38416E+03  3.92131E+03 -1.39130E+04 -6.60032E+02 -1.49240E+04 -5.94244E+03
 -1.06973E+03 -1.58433E+04  5.00158E+03 -1.73927E+04  1.16497E+04 -1.32324E+04  1.61458E+04  4.28754E+03
  5.84039E+03  7.98386E+03  1.37613E+03  1.27896E+04 -1.42535E+04  6.22598E+03 -1.50157E+04  4.03754E+02
 -1.51139E+04 -7.22514E+03 -3.68053E+03 -1.38622E+04  2.74841E+03 -3.89844E+03  6.38011E+03 -1.95542E+03
  6.37913E+03  3.27985E+03 -3.40110E+03 -1.47331E+03 -5.29471E+01 -3.77610E+03  4.82284E+03 -4.59944E+03
  1.39261E+04 -4.14369E+02  1.33501E+04 -5.20021E+03  1.49246E+04  4.15504E+03  7.11340E+03  1.79041E+04
 -2.40370E+03  2.04311E+04 -2.20566E+04  1.19892E+04 -2.17118E+04  3.10121E+03 -2.02603E+04 -1.30371E+04
 -1.57148E+04 -1.15966E+04  3.62939E+03 -1.49026E+04  9.45905E+03 -7.51529E+03  5.01327E+03 -8.01778E+03
  1.52628E+03 -2.48384E+03  1.38924E+03 -4.78849E+03  1.38144E+02 -7.44865E+02  4.40311E+03 -4.89476E+03
  4.13771E+03  5.45755E+03  2.99156E+03  4.75822E+03  1.06919E+03  4.67282E+03 -1.31494E+04  4.94575E+03
 -1.45548E+04 -3.67326E+03 -9.39498E+03 -7.74767E+03  1.01854E+03 -1.85485E+04  1.02635E+04 -1.17648E+04
  1.43380E+04 -3.77171E+03  1.31547E+04 -6.36613E+03  9.93347E+03  7.29369E+03  2.43137E+02  8.12029E+03
 -1.01721E+04  1.58404E+04 -6.96022E+03  5.53587E+03 -8.02872E+03 -3.67872E+02 -5.13718E+03 -1.23163E+03
 -4.42690E+03  1.88817E+03 -3.45826E+03  6.34381E+03 -4.27708E+03  4.26685E+03 -6.03326E+03 -1.07660E+01
 -8.75362E+02 -6.27023E+03 -4.26006E+03 -1.45013E+04  1.16569E+03 -1.07354E+04  1.24752E+04  7.07416E+02
  8.81729E+03  4.88227E+03  2.09003E+03  9.60917E+03 -4.68879E+03  1.16106E+04 -7.92594E+03  7.80689E+03
 -1.44387E+04 -3.87648E+02 -1.14845E+04 -5.84147E+03  7.17307E+02 -1.50501E+04  4.34841E+03 -8.28470E+03
  2.67899E+03  6.54680E+02  8.46318E+03  1.83548E+03  1.97564E+03  2.29945E+03 -4.25339E+03 -2.33279E+01
  8.31011E+02 -6.68537E+03 -2.87887E+02 -2.02471E+03  5.77749E+03  3.57451E+03 -1.24485E+02  9.69321E+03
  7.79007E+02  7.30840E+03 -1.26546E+04  8.73312E+03 -7.66805E+03  5.03379E+03 -1.38717E+04 -4.40269E+03
 -9.49967E+03 -1.02329E+04  4.46895E+01 -7.52928E+03  8.01655E+03 -5.60594E+03  1.03378E+04 -5.75132E+03
  8.69265E+03  1.18798E+04  2.25892E+03  6.63788E+03 -6.42369E+03  4.56474E+03 -3.34954E+03 -1.10281E+03
  3.79890E+03 -4.55592E+03  3.91095E+03 -4.72184E+03  5.71312E+03 -7.03784E+03 -1.83307E+02  3.46232E+03
  9.05276E+03 -6.44139E+03  5.82361E+03  1.89989E+03  4.14893E+02 -1.11589E+03 -1.40408E+03 -1.95789E+03
 -1.12712E+03 -2.24846E+02  5.08010E+03 -5.94888E+03  5.76425E+03  1.10645E+04 -2.33107E+03  1.04405E+04
 -1.38706E+03  5.92947E+03 -7.12977E+03 -2.89429E+03 -1.11930E+04 -6.92469E+03 -3.93597E+03 -4.61257E+03
  6.30462E+02 -5.87540E+03 -1.01442E+03 -3.28496E+03  1.51164E+03  1.97500E+03  1.51563E+03  4.85432E+03
 -1.43923E+02  6.27264E+03 -4.67101E+03 -5.19837E+03 -1.81850E+03 -6.00830E+03  5.41504E+03 -1.07728E+04
  6.13652E+03 -2.08420E+03  1.66195E+03  4.94175E+03  3.88518E+03  4.18692E+03 -1.33928E+03  5.22631E+03
 -6.92436E+03 -2.91219E+03 -8.36739E+02 -8.34068E+03  3.22996E+03  1.50427E+03  6.52543E+03 -9.77534E+02
  1.63191E+03 -3.78923E+03  6.89594E+03  2.02089E+03  4.05163E+03  3.42589E+03 -6.07872E+03  1.06862E+04
 -7.37640E+03  1.81928E+03 -1.09513E+04  6.32430E+02 -2.90244E+03 -2.80491E+03 -9.85584E+01 -3.25218E+03
  6.48803E+03 -3.45745E+02  5.06275E+03  3.28089E+03  4.65297E+03  4.89955E+03  2.65135E+03 -7.95273E+02
 -2.85578E+03  5.64798E+03 -3.29323E+03  1.23784E+03  3.91220E+03 -1.29680E+02 -1.79599E+03  2.06882E+03
 -2.52921E+03  4.49980E+02 -4.43329E+03 -7.76834E+02 -7.31855E+03 -1.81297E+02 -1.37813E+04 -4.94754E+03
 -2.52763E+03 -1.25242E+04 -8.71808E+02 -9.00504E+03  7.43566E+03 -6.77350E+03  1.23123E+04 -6.81526E+03
  9.06899E+03  8.35078E+02  2.41756E+03  5.66501E+03 -1.46784E+03  1.37784E+04 -7.85036E+03  5.66585E+03
 -4.66706E+03  1.23647E+03 -6.99425E+02 -3.02046E+03 -2.26910E+02  1.82125E+03  1.33487E+03 -7.58041E+02
 -3.52544E+03  1.77620E+03 -4.08525E+03 -4.64123E+03 -1.60218E+03  1.18294E+03  3.72230E+03 -2.38267E+03
  5.81188E+03  1.62625E+03  1.74578E+01  1.59312E+03  4.83507E+03  5.18137E+03 -1.59954E+03  7.68060E+03
 -5.51661E+03  1.06549E+04 -1.30697E+04 -9.07666E+02 -8.37355E+03 -2.33308E+03 -6.96397E+03 -2.50490E+03
 -4.45463E+03 -3.74866E+03  3.00286E+03 -4.98137E+03  1.03063E+04 -6.44504E+03  4.87460E+03  6.67301E+02
  9.67599E+03  4.70889E+03 -1.89471E+03  3.26752E+03 -2.12718E+03 -3.13628E+02  1.35414E+03  1.31826E+03
 -1.29458E+03  2.02138E+03 -6.24793E+02  3.25815E+03 -1.63795E+03 -1.75079E+03  3.09387E+03  8.18533E+03
 -4.32362E+03 -1.18402E+03  2.71042E+02 -3.21421E+03 -3.61446E+03 -1.86140E+03 -3.61591E+03 -8.62780E+03
  3.26193E+03 -4.74363E+03  2.20666E+03  4.30901E+03  5.97487E+03  5.53308E+03  3.86965E+03  4.19836E+03
 -1.11629E+03  2.48364E+02 -5.44910E+03  6.86759E+03 -2.90755E+03 -3.52250E+03 -4.59004E+03  2.38743E+03
 -1.47970E+03  6.42350E+02 -1.07254E+03  4.15893E+03  5.32793E+01  3.71814E+03 -2.51118E+02 -9.26157E+02
 -4.65789E+03  6.74776E+01 -3.46487E+03 -7.90026E+03 -3.30177E+03 -1.08077E+04  1.09904E+04 -7.63956E+03
  1.13021E+04 -1.41757E+03  2.48389E+03  6.49203E+03  2.61230E+03  8.36149E+03 -8.74310E+03 -3.68593E+03
