 $NMID ID='MM_0lb_SNR50_14hz_g50_45.RAW', FMTDAT='(8E13.5)'
 TRAMP=1., VOLUME=1. $END
  3.09636E+05  6.73044E+03  3.34004E+05  2.49177E+05  8.50403E+04  3.35337E+05 -1.32231E+05  2.53713E+05
 -1.84685E+05  8.43627E+04 -1.13942E+05 -3.24044E+04  4.59577E+03 -5.38021E+04  5.15796E+04  1.05765E+03
  3.02521E+04  5.36900E+04 -2.18745E+04  7.39882E+04 -6.51919E+04  6.29713E+04 -8.51490E+04  2.85785E+04
 -8.08299E+04 -1.14531E+04 -5.59241E+04 -5.17428E+04 -1.55914E+04 -7.29045E+04  2.86039E+04 -4.32058E+04
  4.06834E+04  1.84577E+03  1.49619E+04  4.99888E+04 -3.73700E+04  4.57700E+04 -6.90393E+04 -1.41450E+03
 -5.41573E+04 -5.71881E+04 -8.82274E+03 -7.91949E+04  3.41574E+04 -5.19691E+04  5.17613E+04 -1.86670E+04
  4.24149E+04  7.26589E+03  3.08340E+04  2.06447E+04  2.02984E+04  3.01065E+04 -5.92722E+03  2.87828E+04
 -2.62201E+04  1.16485E+04 -1.53348E+04 -6.97761E+03  3.49561E+03 -1.09289E+04  2.11601E+04  1.62516E+04
  7.94080E+03  3.97293E+04 -2.68146E+04  3.67939E+04 -6.29440E+04 -1.18677E+03 -6.36567E+04 -3.97028E+04
 -1.42826E+04 -6.31434E+04  4.23206E+04 -4.39639E+04  5.98448E+04 -2.12750E+03  3.49991E+04  3.14233E+04
 -5.40379E+03  3.35559E+04 -2.27783E+04  1.43771E+04 -3.44100E+04 -8.10608E+03 -1.86308E+04 -1.03601E+04
 -9.23034E+03 -1.44323E+04 -1.74249E+03 -1.16166E+04  5.94755E+03 -2.21084E+04  1.23242E+04 -1.09945E+04
  8.09762E+03  9.31519E+03 -4.70136E+03  9.48090E+03 -2.12085E+04 -4.94109E+03 -5.76072E+03 -3.57124E+04
  2.68898E+04 -4.56063E+04  4.47221E+04 -1.91238E+04  4.55315E+04  1.55825E+04  1.58334E+04  4.48872E+04
 -1.98774E+04  3.13304E+04 -2.28400E+04 -8.13137E+02 -9.10936E+03 -2.54474E+04  2.28049E+04 -3.34398E+04
  4.12461E+04 -5.26582E+03  3.45524E+04  2.36976E+04  2.18304E+04  4.39649E+04 -7.26179E+03  5.54880E+04
 -3.07106E+04  3.30818E+04 -5.29832E+04  1.07429E+04 -4.31404E+04 -1.20611E+04 -2.71919E+04 -3.50421E+04
  1.15931E+04 -3.54009E+04  3.67967E+04 -1.41324E+04  2.94594E+04  9.75331E+03  2.74367E+03  1.64215E+04
 -1.56381E+04  9.94119E+03 -7.16757E+03 -1.07009E+04  9.00174E+02 -7.25341E+03  1.37270E+04  7.30991E+03
  1.84468E+04  2.54400E+04 -3.09653E+03  1.88658E+04 -2.30086E+04  1.26154E+04 -2.73205E+04 -6.22191E+03
 -1.90850E+04 -1.39041E+04 -1.37637E+04 -1.83031E+04  6.53953E+02 -2.38181E+04  1.57324E+04 -1.69121E+04
  2.26722E+04 -1.19649E+04  3.23625E+04  7.53780E+02  2.20946E+04  2.16422E+04  9.53348E+03  3.62532E+04
 -2.10191E+04  3.13372E+04 -2.41400E+04  1.33141E+04 -1.55266E+04 -1.13516E+04 -6.24265E+03 -1.73897E+04
  6.47787E+03 -4.90730E+03 -8.70608E+03  1.39831E+03 -1.63107E+04  1.04166E+04 -1.84945E+04 -8.67097E+03
 -9.59277E+03 -1.86472E+04  4.37437E+03 -2.31940E+04  1.29465E+04 -1.58707E+04  1.51421E+04  4.47166E+03
  7.71303E+03  1.11272E+04 -9.09691E+02  1.84778E+04 -1.22380E+04  1.21636E+04 -1.56184E+04 -2.83026E+03
 -2.03153E+04 -1.84797E+04 -4.62592E+03 -1.86678E+04  1.06124E+04 -1.94738E+04  1.75651E+04 -1.09763E+04
  1.93856E+04 -1.56319E+03  8.25325E+03  5.10081E+03  5.08114E+03  2.65438E+03  1.00113E+04 -4.97736E+03
  2.08586E+04  3.61615E+03  1.80521E+04  1.23758E+04  1.18757E+04  2.87067E+04 -5.88505E+03  3.10421E+04
 -1.99834E+04  2.11200E+04 -3.00996E+04  1.56817E+04 -3.39151E+04 -4.63618E+02 -2.63009E+04 -1.48606E+04
 -1.66134E+04 -2.63581E+04  6.27845E+03 -2.86902E+04  2.61264E+04 -1.03724E+04  1.92666E+04  2.16973E+03
  2.99408E+03  1.73175E+04 -1.09012E+04  1.50893E+04 -2.09355E+04  3.16371E+03 -1.72232E+04 -8.20945E+03
  4.33489E+03 -1.26567E+04  9.68286E+03 -1.91690E+04  7.94413E+03  2.29306E+03  2.46392E+03  1.37813E+04
 -4.97117E+03  2.81629E+03 -5.90877E+03 -3.49168E+03 -2.86592E+03 -1.45218E+04  9.60632E+03 -1.37390E+04
  1.72037E+04 -7.45197E+03  1.69281E+04  3.10068E+03  1.33172E+04  1.53174E+04  8.32813E+03  1.89495E+04
 -2.62674E+03  2.17934E+04 -1.21776E+04  1.88127E+04 -1.84862E+04  5.12941E+03 -1.64860E+04 -1.05337E+03
 -2.10753E+03 -6.85062E+03  8.46104E+02 -2.78095E+03 -4.73631E+03 -4.60033E+03 -5.53721E+03  2.09434E+03
 -9.59076E+03 -2.58895E+02 -1.24745E+04 -1.07325E+04 -4.26002E+03 -1.23145E+04  4.47496E+03 -1.22782E+04
  1.32227E+04 -7.65978E+03  5.92777E+03  1.91467E+03  2.79241E+03  4.15285E+03 -5.93209E+03  1.79089E+02
 -2.32564E+03 -8.67082E+03 -2.90148E+03 -9.33992E+03  7.38429E+03 -7.97697E+03  1.35918E+04 -9.61891E+03
  1.13551E+04  1.99514E+03  6.75165E+03  1.04566E+04  1.23640E+03  9.26102E+03 -9.08448E+03  1.11858E+04
 -8.16639E+03  5.78915E+03 -3.64047E+03 -5.31272E+03 -1.47461E+03 -6.04939E+03  8.69924E+03 -4.23112E+03
  1.53882E+03  5.00656E+03  2.66839E+03  1.05924E+04 -3.32186E+03  9.72772E+03 -1.54969E+04  4.49288E+03
 -4.05364E+03 -1.36846E+03 -3.28412E+03 -1.01358E+04  5.66443E+03 -7.56623E+03  1.59986E+03 -1.13728E+02
 -2.54438E+03  6.59817E+02 -8.17751E+03 -1.52630E+02 -6.66907E+03  3.26939E+02 -7.48679E+03 -1.48496E+03
 -3.17427E+03 -4.41255E+03  3.39409E+03 -9.53468E+03  1.00289E+04 -5.00895E+03  7.65639E+03  5.25180E+03
  9.63811E+03  1.23692E+04 -2.39168E+03  8.23285E+03 -7.24100E+03  3.91311E+03 -5.65192E+03 -3.72069E+03
  2.46426E+02 -5.28072E+03 -3.85597E+03 -3.93313E+03  2.80938E+03 -5.80312E+03  1.45951E+03 -3.51669E+03
 -4.67024E+02  1.98276E+03  3.36961E+02  4.54851E+03  1.53369E+03 -4.73601E+03  2.58821E+03 -5.95801E+03
  5.88819E+03 -5.00740E+02  7.90435E+03  6.98651E+01  1.17446E+04 -2.23133E+02  4.21282E+03  1.62552E+04
 -4.62993E+02  1.51161E+04 -1.57114E+04  1.36676E+04 -1.00131E+04  2.08893E+03 -1.44178E+04 -7.62997E+01
 -8.33407E+03 -9.05080E+03 -1.54856E+03 -1.44626E+04  8.15529E+02 -5.05242E+03  5.97102E+03 -6.88240E+03
 -1.34776E+03 -3.83210E+03  3.59425E+03 -3.86683E+03  2.64521E+03 -1.11063E+03  8.64753E+03 -5.70287E+02
  6.89737E+03  1.64658E+03 -8.53417E+02  1.21067E+03 -2.98803E+03  6.16354E+03 -6.59067E+03  4.82959E+03
 -8.85305E+03 -5.67095E+02 -1.56768E+03 -3.05870E+03 -2.22812E+03 -7.88852E+03  2.32132E+03 -7.60794E+03
  5.22563E+03 -7.60728E+03  9.79914E+03 -4.36358E+03  7.04061E+03  8.35021E+03  1.28441E+03  1.28019E+04
 -1.78141E+03  6.79186E+03  8.90293E+02  5.97499E+02 -6.63051E+03 -2.20528E+02 -6.77494E+03  4.22937E+03
 -1.44810E+03 -1.05761E+03  2.56485E+03  9.56583E+02 -2.93036E+03  4.83930E+02 -6.55306E+03  1.15063E+03
 -6.76135E+03 -5.70231E+03  4.40583E+02 -1.13890E+04 -1.67823E+02 -5.31336E+03  1.12958E+04  1.21021E+02
  9.02194E+03  3.40242E+03  4.42251E+03  6.01313E+03 -5.84935E+03  1.39532E+04 -6.85772E+03  2.94977E+03
 -1.03623E+04  1.03987E+02 -6.20036E+03 -8.01891E+03 -1.22834E+03 -5.10440E+03  5.65506E+03 -2.76599E+03
  5.83578E+03  2.05173E+03  3.47639E+03  6.02937E+03  2.45462E+03  4.74450E+03 -1.27461E+03  6.66612E+03
  2.39078E+03 -1.20418E+03  2.75684E+03 -1.26122E+03  2.44579E+03  6.82226E+03  6.43657E+03 -3.73004E+03
 -4.45494E+03  4.44267E+03 -3.51703E+03  6.47594E+03 -7.21043E+03  6.71690E+02 -8.04853E+03 -5.90290E+03
 -2.26728E+03 -7.00488E+03  6.49996E+03 -1.14108E+04  4.71415E+03 -7.28724E+03  4.57762E+03 -3.72189E+03
  1.57700E+03  3.03087E+03  4.78237E+03  6.93177E+03  4.01643E+03  4.41991E+03 -2.10996E+03  2.58258E+03
  4.72891E+01 -8.50521E+03  9.33961E+02 -3.66966E+03  3.10972E+03 -2.01249E+03 -2.23448E+03  2.24618E+03
  3.69213E+03 -1.30127E+03 -3.60501E+03  7.24554E+03  3.63243E+02 -9.88302E+02  4.60517E+03 -1.57414E+03
 -1.46661E+03 -3.19286E+03  1.67095E+03  1.46308E+03  1.50224E+03  8.15670E+03 -5.43040E+02  6.26932E+03
 -7.04457E+03  4.41010E+03 -6.11099E+03  1.71253E+03 -1.12436E+03 -1.56409E+03 -5.05011E+03 -3.16801E+03
  2.16054E+03 -1.33487E+03  4.35262E+03 -4.79536E+03  5.42924E+01 -1.49923E+03  1.79422E+03  3.17473E+03
 -1.71769E+03  6.30720E+03 -5.36867E+03  4.07803E+03 -9.16512E+02 -1.66536E+03  6.04479E+02  3.60455E+03
 -3.98835E+02 -3.90605E+03  1.83106E+03  5.18358E+03  3.48760E+03 -6.79561E+02 -6.56875E+02  7.33773E+03
 -8.19874E+02  4.61010E+03 -2.17531E+03  2.64481E+03 -9.81975E+02 -3.48944E+03 -1.91981E+03 -3.13235E+03
  6.06470E+03 -3.23275E+03  2.91914E+03  4.01706E+03  4.62855E+03  2.15719E+03  2.22154E+03  5.80590E+03
 -2.73507E+03  8.76158E+02 -5.43684E+03 -2.24057E+01 -3.18802E+03 -4.34979E+03 -3.02918E+03 -6.99010E+03
  7.75647E+03 -6.72246E+03  5.23953E+02  4.58303E+03  2.04282E+03  2.04734E+03 -1.53181E+03  1.61740E+02
  2.36133E+03 -1.68701E+03 -8.03819E+02  1.71766E+03 -2.57040E+03  1.80929E+03  9.78573E+02  1.59659E+03
 -3.03579E+03 -2.10100E+03 -6.37207E+03 -1.73952E+03 -3.27616E+03 -3.02299E+03 -2.44291E+03 -8.04265E+03
 -4.05393E+03 -4.81905E+03  6.19108E+03 -8.37467E+03  4.35232E+03 -1.92066E+03  1.12467E+04 -4.23479E+03
  6.51188E+03  7.91181E+02  6.15209E+03  1.04092E+04  2.73463E+03  2.06898E+03  1.84637E+02  6.48712E+03
 -3.04319E+03  2.11794E+03 -1.78047E+03 -2.28915E+03  3.58070E+03  3.42788E+02 -1.54535E+02 -2.76773E+03
 -3.94227E+03  5.64346E+02  7.51597E+02 -1.64818E+03 -4.06721E+03 -1.66809E+03 -1.60042E+03 -4.02749E+03
 -6.02140E+03 -4.18748E+03  2.25396E+03  3.16455E+03 -7.67689E+01  1.59266E+03  1.42340E+03  2.32895E+03
 -1.60081E+03  1.02652E+04 -7.92583E+02  4.44136E+03 -3.51354E+03 -3.12258E+03  2.38226E+02 -6.04669E+03
 -1.78663E+03 -6.64817E+03  3.22459E+03 -4.50951E+02 -5.78011E+03 -2.51235E+03  2.32477E+03 -1.30782E+03
  4.31632E+03  3.54037E+03  4.28194E+03  4.85563E+03  2.14798E+02  5.77157E+03 -5.69336E+03  5.93223E+02
  2.79260E+03  8.52959E+02  4.02279E+03 -1.13350E+03 -2.06801E+01  8.35705E+02  7.17983E+03  2.97563E+03
 -5.43796E+03  3.87075E+03  5.42365E+02 -3.05638E+03 -2.11635E+03 -9.77817E+01 -1.09224E+03 -3.33404E+03
  3.24017E+03 -3.38569E+03  5.77663E+03 -4.81576E+03  6.77214E+03 -2.71723E+03  1.02866E+03  1.76896E+03
 -1.40708E+03  5.27284E+03  4.82189E+03  1.70334E+03 -1.98355E+03  5.67388E+03 -1.14505E+03 -1.16840E+03
 -5.01593E+03 -2.66481E+03 -1.74441E+03  2.26631E+03  2.54714E+03 -4.78939E+03 -2.00099E+03 -2.53473E+03
 -3.05443E+03 -9.80941E+02  3.06409E+03 -3.87583E+03  3.10785E+03 -1.92103E+03  3.75143E+02 -5.16607E+03
  2.87393E+03 -3.44017E+03  2.78560E+03  2.03267E+03 -1.89562E+03  4.50579E+03  1.17095E+03  3.67585E+03
