 $NMID ID='MM_0lb_SNR50_16hz_g60_97.RAW', FMTDAT='(8E13.5)'
 TRAMP=1., VOLUME=1. $END
  3.09329E+05  1.50410E+03  3.35395E+05  2.49148E+05  8.13257E+04  3.37961E+05 -1.36197E+05  2.50966E+05
 -1.90778E+05  8.55119E+04 -1.11154E+05 -3.22060E+04 -8.55007E+02 -5.41887E+04  5.48323E+04  2.59433E+03
  3.35189E+04  5.61156E+04 -1.79460E+04  7.17160E+04 -5.84835E+04  6.75264E+04 -7.63516E+04  3.43070E+04
 -7.79801E+04 -1.07095E+04 -6.01493E+04 -5.62634E+04 -1.71110E+04 -7.12242E+04  2.85686E+04 -4.66560E+04
  4.13465E+04  5.46931E+03  2.30630E+04  4.63453E+04 -3.21298E+04  4.78004E+04 -6.54515E+04  1.07190E+02
 -5.26205E+04 -5.35486E+04 -8.19902E+03 -8.14125E+04  3.80014E+04 -5.46063E+04  4.80367E+04 -1.63664E+04
  4.59749E+04  1.22376E+04  3.49898E+04  2.04248E+04  1.62918E+04  3.08799E+04 -9.12104E+03  2.16567E+04
 -1.96413E+04  1.31091E+04 -1.83744E+04 -6.09930E+03  5.31743E+03 -4.73034E+03  1.83258E+04  1.23011E+04
  6.95233E+03  3.66821E+04 -3.30257E+04  3.62180E+04 -6.46060E+04  6.07138E+03 -5.85977E+04 -4.50856E+04
 -1.20438E+04 -6.29305E+04  4.09862E+04 -4.75368E+04  5.71908E+04 -2.29989E+01  3.08786E+04  2.93964E+04
 -7.55486E+03  4.13556E+04 -3.38252E+04  2.17109E+04 -2.62418E+04 -1.12163E+04 -1.86646E+04 -9.81430E+03
 -9.26255E+03 -1.37989E+04 -1.94829E+03 -1.87413E+04  6.68349E+03 -2.78587E+04  1.53897E+04 -1.59952E+04
  7.70192E+03  7.11364E+03 -1.11588E+04  1.31557E+04 -1.75200E+04 -3.01220E+03 -8.55022E+03 -3.77082E+04
  2.44495E+04 -3.88062E+04  5.07595E+04 -1.29714E+04  4.61347E+04  1.62557E+04  1.49384E+04  4.74187E+04
 -1.66907E+04  3.31705E+04 -2.24643E+04  2.10789E+03 -9.42609E+03 -2.81906E+04  1.64867E+04 -3.30005E+04
  4.52595E+04 -8.71193E+03  3.59406E+04  2.21537E+04  1.51785E+04  4.38397E+04 -5.84200E+03  5.00126E+04
 -3.06016E+04  3.30611E+04 -4.42768E+04  1.01715E+04 -4.29904E+04 -2.00605E+04 -2.20421E+04 -3.26356E+04
  1.02601E+04 -3.83024E+04  3.29266E+04 -1.69938E+04  2.87460E+04  1.23794E+04  4.43541E+03  2.00933E+04
 -1.42550E+04  1.14761E+04 -1.03122E+04 -5.71369E+03  4.80615E+03 -8.07757E+03  1.56336E+04  4.22062E+03
  1.45732E+04  2.14529E+04 -7.68026E+03  2.36378E+04 -2.23374E+04  9.11733E+03 -3.26189E+04 -4.05313E+03
 -2.22729E+04 -1.32203E+04 -6.14002E+03 -1.69094E+04 -1.11181E+03 -2.00878E+04  1.37128E+04 -1.91974E+04
  2.41768E+04 -1.18232E+04  3.15403E+04  7.63116E+03  2.31851E+04  1.89740E+04  6.57048E+02  3.70075E+04
 -1.88209E+04  2.94909E+04 -2.40486E+04  9.53483E+03 -2.06527E+04 -8.03881E+03 -6.64447E+03 -1.43103E+04
  7.19847E+03 -1.84193E+03 -6.54222E+03  3.96929E+03 -1.33675E+04  5.28508E+03 -1.73451E+04 -1.62256E+03
 -6.42639E+03 -1.80302E+04  6.76526E+03 -2.03393E+04  1.23292E+04 -1.27762E+04  1.71554E+04 -3.50100E+03
  1.06380E+04  1.26391E+04 -1.93466E+03  1.91879E+04 -1.31814E+04  1.06787E+04 -1.88577E+04 -4.69845E+03
 -9.00165E+03 -1.69487E+04 -3.36220E+03 -2.30957E+04  1.12554E+04 -2.05295E+04  1.95444E+04 -9.41423E+03
  1.64617E+04  3.52961E+03  9.03604E+03  1.00326E+04  1.20468E+04  3.30298E+02  8.44197E+03 -1.59189E+02
  9.54564E+03  3.60689E+03  2.07753E+04  1.39875E+04  1.60165E+04  2.91860E+04 -1.39140E+03  3.32732E+04
 -1.91035E+04  2.06787E+04 -3.09555E+04  9.97322E+03 -3.07689E+04 -6.31838E+03 -2.68213E+04 -1.81991E+04
 -5.01124E+03 -2.86243E+04  8.62819E+03 -2.55046E+04  1.88179E+04 -1.25246E+04  1.84639E+04  6.01162E+03
  5.66958E+03  1.81782E+04 -1.04103E+04  1.63412E+04 -1.91984E+04  6.17938E+03 -7.85953E+03 -1.25488E+04
 -4.87569E+03 -1.62273E+04  4.39699E+03 -1.01676E+04  1.04473E+04  1.79961E+02  1.79402E+03  9.38442E+03
 -6.48056E+03  4.08301E+03 -2.97060E+03 -4.75464E+03  2.69697E+03 -2.08219E+04  8.01931E+03 -9.51839E+03
  1.48440E+04 -4.98462E+03  1.82670E+04 -5.81811E+02  1.33272E+04  1.68341E+04  7.42871E+03  2.25793E+04
 -3.01235E+03  1.89014E+04 -1.22706E+04  1.68288E+04 -1.38346E+04  3.76100E+03 -1.57813E+04 -1.30145E+03
 -4.79948E+03 -4.28924E+03  2.11549E+02  1.87519E+03 -3.22148E+03  7.09364E+02 -7.69604E+03  2.53351E+03
 -9.12477E+03  1.39621E+03 -5.92656E+03 -5.89012E+03 -1.48843E+03 -1.26877E+04  8.34340E+03 -1.00423E+04
  9.94729E+03 -4.34237E+03  5.54491E+03  1.63795E+03 -8.68406E+02  4.94996E+03 -7.16645E+03 -2.40840E+03
 -2.23837E+03 -2.27792E+03 -2.65524E+03 -1.15935E+04  2.23802E+03 -8.87131E+03  1.34285E+04 -5.68145E+03
  1.83812E+04 -1.19371E+03  1.44758E+04  9.28384E+03  1.04795E+03  1.25515E+04 -7.89972E+03  1.66255E+04
 -4.25237E+03  2.68298E+03 -1.34519E+03  1.20348E+03 -9.80160E+00 -6.65656E+03  4.80930E+03 -3.00917E+03
  1.53894E+03  5.91044E+02  2.38705E+03  8.91090E+03 -7.94323E+03  9.51500E+03 -9.27625E+03 -6.70931E+01
 -5.29088E+03 -2.28600E+03  3.76414E+03 -8.13166E+03  8.62141E+02 -7.81520E+03  2.50141E+03 -1.15993E+03
 -3.20287E+03  2.69884E+03 -6.04746E+03  9.75839E+03 -8.19571E+03  2.62594E+03 -6.03982E+03 -1.02263E+04
 -5.15018E+03 -8.58283E+03  9.16307E+01 -1.16727E+04  7.14700E+03 -8.48928E+03  9.40703E+03  1.18795E+03
  1.06582E+04  9.90661E+03 -2.54092E+03  1.14709E+04 -5.45559E+03  1.91911E+03 -5.61539E+03  2.59212E+03
 -7.82537E+03 -6.76688E+03  2.49262E+03 -5.41892E+03  4.18577E+03 -5.43423E+03  2.23739E+03 -4.01590E+03
  4.88268E+02  2.86185E+03  9.80464E+02  6.75024E+03 -4.24669E+03 -3.65245E+03  4.85869E+02 -2.83135E+02
  6.15415E+03 -3.08431E+03  5.36784E+03  1.20273E+03  8.41899E+03  1.18984E+03  3.35914E+03  1.40464E+04
  3.78025E+02  9.32825E+03 -1.27758E+04  6.20982E+03 -1.66572E+04  3.68977E+03 -9.57048E+03 -4.14093E+03
 -3.54186E+03 -1.37261E+04  3.03777E+02 -9.94307E+03  9.22990E+02 -8.76637E+03  3.90050E+03  1.08526E+03
  2.96231E+03 -2.82416E+03 -1.35211E+03 -3.35979E+03  2.78692E+03 -6.06262E+03  2.06598E+03 -3.99812E+03
  5.67635E+03  1.34824E+03  3.34647E+03  2.36264E+03  6.49748E+02  5.68870E+03 -7.73396E+03  2.92648E+03
 -1.09081E+04 -4.24445E+03 -2.87825E+03 -2.47470E+03 -1.18217E+03 -8.53253E+03  3.47574E+03 -7.16596E+03
  7.96417E+03 -5.72466E+03  8.76621E+03  4.49156E+02  3.66439E+03  8.87836E+03  5.15325E+03  9.30952E+03
 -8.70128E+03  7.39935E+03 -1.58212E+03  4.25504E+03 -1.95368E+03  6.71065E+01 -4.66979E+03  3.12874E+01
  5.11346E+02 -4.66678E+03 -3.00017E+03  4.16796E+03 -2.80793E+03 -7.04629E+02 -8.44256E+03  1.76559E+03
 -7.88561E+02 -6.44158E+03  1.10472E+03 -5.85582E+03  5.43373E+03 -1.33989E+03  6.29000E+03  1.02865E+03
  6.97231E+03  5.29428E+03  6.05952E+03  9.48078E+03 -1.51385E+03  7.71390E+03  3.91167E+02  6.15953E+03
 -9.84635E+03  3.72281E+03 -3.70609E+03 -7.12650E+02 -1.99174E+03 -2.54473E+03  4.22514E+03  3.23246E+03
  1.62295E+03 -4.56603E+03  5.70758E+03 -3.46016E+02  3.92246E+02  3.55954E+02  3.39190E+02 -6.95428E+02
  3.08471E+03 -2.16300E+03  2.39741E+03  3.15232E+02  2.62032E+03 -1.23550E+03  2.93884E+03  3.94185E+02
 -7.89159E+02  4.60607E+03 -3.29554E+03 -2.91285E+03 -7.14654E+03  2.91439E+03 -6.02067E+03 -2.86368E+03
 -4.90956E+03 -4.58880E+03 -4.10960E+03 -9.04306E+03  1.32326E+03 -5.83570E+02  6.43854E+03 -4.08454E+03
  3.75877E+03  4.95511E+02 -1.32982E+03  6.69988E+03  1.25380E+03  4.97219E+03 -1.80581E+03 -1.79328E+03
 -1.10863E+03 -3.22760E+02  5.14605E+03 -1.40421E+03  4.42236E+02 -4.68827E+03  3.17857E+03  1.65239E+02
  9.51070E+02 -3.89598E+01 -7.36002E+02 -9.98800E+02 -5.52392E+03 -1.26161E+03 -1.85785E+03 -4.19479E+03
 -1.02095E+03 -3.76077E+02  4.74931E+03  1.97186E+03  4.49995E+03  3.34063E+03  1.65072E+03  5.00130E+03
  4.20773E+02  7.36540E+03 -1.76261E+03 -1.66315E+03 -1.54170E+03 -9.16830E+02 -2.46379E+03 -5.30415E+03
 -2.11285E+03  4.95742E+03 -3.47421E+03 -4.74254E+03  4.63630E+03  4.11785E+03  5.77094E+02  3.15186E+03
  5.29375E+02 -1.61893E+03 -9.37076E+02 -6.26073E+02 -4.29631E+03 -4.23057E+03  1.41087E+03 -1.16633E+03
  5.87974E+03 -4.25475E+03 -3.39668E+02  2.47989E+02 -4.56845E+03 -2.31759E+01  8.91158E+03  1.48479E+03
 -4.18292E+03 -2.34223E+03  7.99132E+02 -6.58976E+03  5.08652E+02 -2.35852E+03  3.56114E+03 -6.04655E+02
  1.94989E+03 -5.95163E+02  3.53631E+03  1.39798E+03  4.58442E+03  3.75570E+03 -3.29511E+03  1.29700E+03
  1.17057E+03  4.93386E+03  3.52312E+03 -3.64355E+03  6.06043E+02 -4.79187E+02  1.06955E+03 -2.94038E+03
  6.20098E+03 -4.13842E+03 -2.45077E+02  6.77140E+03  5.70459E+03  1.35127E+03 -2.45930E+03  1.04803E+03
 -2.09648E+03  3.12942E+03  3.80110E+03  2.28260E+03 -1.77955E+03 -8.54008E+02  1.88909E+03  3.70681E+03
 -6.26265E+02 -3.43503E+03  1.54032E+03  3.18421E+03 -3.23064E+03 -3.01463E+03  2.06785E+02 -2.56153E+03
 -2.61717E+03 -2.23179E+03  3.14333E+03 -9.14771E+03 -7.01001E+02 -3.05999E+03 -1.65965E+02 -1.40698E+03
  6.33677E+03  2.64340E+03  1.02791E+03  4.33424E+03 -3.72909E+03  4.37864E+02  5.45588E+02 -2.03086E+03
 -4.78598E+03 -2.97859E+03 -1.56530E+03 -6.53156E+02 -4.98131E+02 -2.46617E+03  1.02178E+03  4.45562E+02
 -4.39650E+03 -6.85302E+02 -4.31390E+03  4.36280E+02  3.41984E+03 -1.40430E+03  5.31907E+02 -1.13184E+03
  4.06478E+03 -1.83915E+03 -3.53061E+03  1.77476E+03 -1.82181E+03  3.65087E+01  1.70450E+02  3.96022E+03
 -3.17790E+03  3.39755E+03  2.77027E+03 -1.89923E+03 -4.06066E+03  2.45195E+02 -1.97235E+03 -3.66282E+03
  1.63329E+03 -8.80083E+03  8.06666E+02 -6.84644E+02  2.73186E+03  2.35492E+03 -3.24110E+00 -8.40192E+02
 -9.24783E+02 -7.75889E+02 -3.19364E+02 -1.42257E+03 -3.69261E+03 -3.09206E+03 -1.38671E+03  2.69544E+03
  2.06385E+02  1.13730E+03  3.63162E+03  7.61982E+02  2.99039E+03  1.30304E+03 -8.08910E+02  1.74654E+03
 -4.56366E+02  2.76357E+03 -1.21472E+03 -5.45979E+02 -3.68619E+03 -1.26900E+03  1.16974E+03 -1.09719E+03
  3.53612E+03 -5.46210E+03 -6.94118E+02  1.58223E+03  1.59694E+03 -3.78611E+03  5.08965E+03  3.58544E+03
 -2.54720E+03 -1.09474E+03  3.53011E+03  2.59994E+03  6.98143E+02  7.99783E+02 -4.16712E+03  1.94195E+03
 -2.99586E+03  4.40081E+02  2.61935E+03 -2.35335E+03  4.76363E+02 -5.52289E+02  4.15874E+03  3.92117E+02
 -8.45596E+02  4.98205E+00  1.21252E+03 -5.61988E+02  1.14028E+02 -2.67939E+03  3.46315E+03 -3.55903E+02
  7.27058E+03 -4.34425E+03 -2.75113E+03 -2.06099E+03 -8.11269E+02 -2.25002E+02 -2.10368E+03  2.68326E+03
