 $NMID ID='MM_0lb_SNR50_16hz_g55_69.RAW', FMTDAT='(8E13.5)'
 TRAMP=1., VOLUME=1. $END
  3.07386E+05 -3.47000E+03  3.36092E+05  2.47584E+05  8.63787E+04  3.37881E+05 -1.33194E+05  2.53600E+05
 -1.91978E+05  7.76995E+04 -1.14709E+05 -3.15313E+04 -1.60449E+03 -5.25599E+04  5.38412E+04  2.07992E+03
  3.68541E+04  5.40683E+04 -1.50100E+04  7.37606E+04 -6.11527E+04  6.08449E+04 -8.47173E+04  3.67832E+04
 -8.23695E+04 -1.14329E+04 -5.13385E+04 -5.50693E+04 -1.61167E+04 -6.54817E+04  2.81545E+04 -4.85245E+04
  3.97432E+04  1.59217E+03  1.41981E+04  4.95141E+04 -3.20739E+04  4.83561E+04 -6.90845E+04 -1.39431E+03
 -5.29737E+04 -5.97158E+04 -1.14531E+04 -7.25282E+04  3.02923E+04 -5.85760E+04  4.64272E+04 -2.12926E+04
  4.39149E+04  7.62791E+03  2.99841E+04  2.45521E+04  1.53198E+04  2.90781E+04 -5.50406E+03  2.92347E+04
 -3.01804E+04  1.24699E+04 -1.76323E+04 -2.79235E+03  7.31652E+03 -4.68093E+03  2.32807E+04  1.21727E+04
  8.03579E+03  3.77126E+04 -3.40792E+04  3.82763E+04 -5.95926E+04 -1.98332E+02 -5.76959E+04 -4.19909E+04
 -1.75796E+04 -6.38555E+04  4.20054E+04 -4.72484E+04  5.12973E+04 -6.62680E+03  3.67093E+04  3.39905E+04
 -7.56064E+03  3.99231E+04 -3.57822E+04  1.30562E+04 -2.83117E+04 -2.61774E+03 -1.60633E+04 -1.10201E+04
 -1.13421E+04 -1.00242E+04 -2.30357E+03 -1.86807E+04  9.17509E+03 -2.24504E+04  1.58148E+04 -1.66805E+04
  6.85355E+03  3.75251E+03 -9.15364E+03  1.62610E+04 -1.81522E+04  1.14715E+02 -9.96400E+03 -3.26877E+04
  2.49341E+04 -4.10956E+04  5.07294E+04 -1.64985E+04  4.33660E+04  1.92167E+04  1.55582E+04  4.44066E+04
 -1.68470E+04  3.49184E+04 -2.57187E+04 -2.26527E+01 -1.11739E+04 -3.27296E+04  1.68860E+04 -3.10338E+04
  3.49667E+04 -4.92751E+03  3.48448E+04  2.02235E+04  1.72302E+04  4.34044E+04 -9.84292E+03  5.46177E+04
 -3.23520E+04  3.13516E+04 -4.33195E+04  1.08936E+04 -3.94907E+04 -1.52672E+04 -2.40709E+04 -3.68628E+04
  8.00410E+03 -3.63821E+04  2.74235E+04 -1.28264E+04  2.98132E+04  6.48529E+03  5.25135E+03  1.70003E+04
 -1.95497E+04  4.56948E+03 -6.86798E+03 -3.47091E+03  5.40394E+03 -7.34139E+03  1.25928E+04  5.54715E+03
  1.06977E+04  2.27244E+04 -7.57547E+03  2.57341E+04 -2.93467E+04  1.35662E+04 -2.45602E+04 -3.88177E+03
 -1.90138E+04 -1.39592E+04 -9.08449E+03 -1.80158E+04  2.83491E+03 -1.49709E+04  1.92708E+04 -1.47291E+04
  2.10146E+04 -1.31550E+04  3.48970E+04  5.31839E+03  2.25725E+04  1.87323E+04  1.54851E+03  3.79480E+04
 -1.21332E+04  3.18381E+04 -2.74289E+04  9.56159E+03 -1.95231E+04 -1.38030E+04 -2.62315E+03 -1.63568E+04
 -3.21202E+03 -4.39553E+03 -5.60652E+03  1.80319E+03 -1.82479E+04  4.93139E+03 -1.46571E+04 -6.75947E+03
 -7.87372E+03 -1.62178E+04  5.81037E+03 -2.06724E+04  1.55487E+04 -1.70051E+04  1.71099E+04  2.27756E+03
  1.07054E+04  1.61003E+04 -6.71089E+02  2.04287E+04 -9.82939E+03  9.41103E+03 -1.89636E+04 -3.15842E+03
 -1.49231E+04 -1.72871E+04 -3.91646E+03 -2.44140E+04  9.31305E+03 -2.20363E+04  1.75288E+04 -5.45025E+03
  1.37102E+04  1.17738E+03  1.02974E+04  7.63571E+03  5.90184E+03  3.86524E+02  6.03865E+03  1.35112E+02
  1.52114E+04  7.64491E+02  1.98290E+04  1.29319E+04  1.21765E+04  2.85483E+04  3.57236E+03  3.34955E+04
 -1.40232E+04  2.36355E+04 -2.56724E+04  8.28095E+03 -2.68958E+04 -3.58744E+03 -3.24785E+04 -1.76571E+04
 -6.04784E+03 -2.83665E+04  5.81024E+03 -2.34915E+04  1.57192E+04 -1.23120E+04  1.64055E+04  8.07847E+03
  8.77237E+03  1.41735E+04 -6.03840E+03  1.34474E+04 -1.24457E+04 -1.77903E+03 -1.52907E+04 -8.78275E+03
  4.47688E+03 -1.91776E+04  8.90915E+03 -9.87863E+03  8.85989E+03  2.59495E+03  2.42789E+02  5.12549E+03
 -4.86319E+03 -2.46359E+03 -4.37746E+03 -6.19037E+02  8.41707E+02 -7.49553E+03  8.19187E+03 -1.16196E+04
  1.28695E+04 -2.88247E+03  1.24623E+04  8.74188E+02  1.49913E+04  1.09568E+04  7.54991E+03  1.75647E+04
 -4.58567E+03  1.85499E+04 -9.28313E+03  1.42148E+04 -1.45666E+04  1.18410E+03 -8.13812E+03 -3.46584E+03
 -7.82705E+03 -4.15729E+03  1.45226E+03 -3.70742E+03 -1.46001E+03  2.93321E+03 -4.21894E+03  4.60794E+03
 -1.00185E+04  1.42729E+03 -1.19757E+04 -6.68818E+03 -8.34094E+03 -1.44740E+04  5.78380E+03 -8.15042E+03
  1.13378E+04 -5.30143E+03  7.17259E+03  2.80005E+03 -9.92128E+02  2.88624E+03 -6.20309E+03  2.60802E+03
 -2.38790E+03 -3.24440E+03 -5.15643E+03 -1.09722E+04  8.07716E+03 -9.22580E+03  1.28336E+04 -2.77566E+03
  1.13758E+04 -1.51286E+03  1.30935E+04  6.59787E+03  2.97294E+03  1.01666E+04 -7.66207E+03  1.32978E+04
 -1.81717E+03  7.49174E+03 -2.89848E+03 -1.12623E+03  3.63428E+03 -3.16571E+03  9.61771E+03 -4.32655E+03
  7.55248E+03  8.83524E+03 -8.20437E+02  7.55906E+03 -2.65363E+03  6.90715E+03 -1.05981E+04  3.37837E+03
 -1.57707E+04 -3.34779E+03 -5.37807E+03 -7.22729E+03  5.81083E+03 -3.61868E+03  5.24307E+03  2.32318E+03
  1.33780E+03  8.68844E+03 -5.06918E+03  3.86475E+03 -5.18329E+03  3.64350E+02 -9.27281E+03 -4.90202E+03
 -7.25563E+03 -6.68846E+03  2.70512E+03 -1.03338E+04  7.64122E+03 -8.28779E+03  6.91535E+03  5.23851E+03
  9.74466E+03  6.56597E+03 -4.31107E+03  4.80464E+03 -8.08455E+03  8.14376E+03 -9.69780E+03 -1.15955E+03
 -7.25098E+03 -7.45373E+03 -3.14123E+03 -5.78052E+03  3.20176E+03 -3.51324E+03  3.62507E+03 -5.36494E+03
  5.81890E+03 -1.11374E+03 -7.09358E+02  3.70779E+03 -3.92324E+02  2.36468E+02 -6.97138E+02 -5.74392E+03
  4.70660E+03 -2.38578E+03  9.81960E+03  1.35996E+01  9.78932E+03  7.11070E+03  1.13604E+04  1.04520E+04
 -2.06544E+03  1.36948E+04 -9.36012E+03  5.68341E+03 -1.52018E+04 -1.87416E+03 -1.33676E+04 -6.80477E+03
 -9.71511E+03 -7.75237E+03 -1.43339E+03 -8.32536E+03  3.64368E+03 -2.38846E+03  4.05345E+03  2.34390E+02
  3.30588E+03  5.61032E+02  1.45391E+03 -8.10906E+02  7.88034E+03 -2.64052E+03  5.04258E+03  1.84637E+03
  7.59429E+03 -6.16079E+02 -6.39957E+02  4.76266E+03 -3.92489E+03  2.17173E+03 -6.98060E+03  4.11098E+03
 -7.48624E+03  1.24168E+03 -1.71769E+03 -4.91036E+03  3.49867E+03 -4.17143E+03  8.89834E+02 -3.47308E+03
  7.35792E+03 -5.90181E+03  8.12010E+03  1.95856E+03  8.31152E+03  7.07401E+03  3.50910E+03  6.45592E+03
 -9.35601E+02  4.87475E+03 -3.82951E+03  2.12321E+03 -2.64526E+03  4.74705E+03 -4.82954E+03 -1.77117E+03
 -4.01460E+02 -2.06341E+03  9.20285E+02  2.18265E+03  3.37464E+03  7.14395E+03 -1.18638E+03 -2.37199E+03
 -4.22880E+03 -6.41894E+03  1.71577E+03 -6.01295E+03  2.91872E+03 -7.59501E+03  7.24627E+03 -1.04038E+01
  4.88072E+03  1.69964E+03  5.36767E+03  1.60101E+03  4.96046E+02  3.26718E+03 -5.75721E+03  3.96217E+03
 -6.92855E+03  4.51271E+02 -1.04510E+03 -4.24481E+03  2.90884E+03 -4.68786E+03 -3.96189E+03 -8.61992E+02
  3.45152E+03  2.34925E+03  4.41185E+03  4.44583E+03 -2.12539E+03  4.43251E+03  1.04344E+03 -2.69970E+03
  3.41388E+03  2.00996E+02  5.52109E+03  3.29994E+03 -1.31527E+03  1.34274E+03 -5.97464E+02  6.56306E+03
  1.62938E+03  1.93988E+03 -4.25728E+03  7.38489E+03 -6.70507E+03  3.06990E+03 -9.75339E+03 -1.58941E+03
 -2.09774E+03 -5.95239E+03 -1.83260E+03 -8.14096E+03  1.84249E+03 -5.14029E+03  5.14397E+03  1.19365E+03
  8.99972E+03  5.41597E+03  8.85889E+02 -9.12727E+02  8.94570E+02  3.53043E+03 -2.70724E+03 -4.17062E+02
 -4.73618E+03  9.39988E+02  1.73679E+03  1.29084E+03 -2.01177E+03 -5.16612E+02  5.45173E+03  1.94462E+03
  2.13936E+03  3.40497E+03 -1.86236E+03 -1.20490E+03  5.28936E+03  4.93674E+03  3.26518E+03 -7.38799E+02
 -9.54273E+02 -3.68867E+03 -9.46181E+01  4.31427E+03 -2.08363E+03  5.60979E+03 -5.06188E+03  1.33266E+03
 -5.55118E+02  3.56491E+03 -1.16969E+03 -1.33027E+03 -5.33429E+03 -2.53322E+03 -3.96862E+03 -2.86291E+03
 -1.00947E+03 -2.31105E+03  2.65856E+03  7.46771E+03  1.22845E+03  3.09038E+03 -1.08344E+03  2.00104E+03
 -3.83331E+03 -5.37132E+02 -2.90878E+03 -3.74391E+03  1.83898E+03 -6.37082E+03  7.07827E+02 -5.91238E+02
 -1.60443E+03 -2.57736E+03  1.69489E+02 -1.80003E+03  4.55783E+03 -3.83675E+03 -8.73837E+01  5.22749E+02
 -1.41180E+03 -6.29011E+02 -6.94840E+03  7.15455E+03  5.48053E+03 -3.85172E+03  4.77949E+03  5.72682E+03
  2.56573E+03  5.89468E+02  7.69218E+02  1.72452E+03  9.90027E+01  7.02352E+03  1.91448E+03  2.45587E+03
 -6.44307E+03  1.52737E+03 -1.12602E+03 -4.32559E+03 -2.30101E+03  4.27959E+02 -4.90165E+02  1.66784E+03
  4.64617E+03  1.32928E+03  3.50829E+03 -2.78256E+03  1.08422E+03 -7.81557E+02 -2.89096E+03  6.10747E+02
 -7.53030E+02  8.14948E+03 -2.48593E+03  2.84893E+03  1.07232E+03 -1.00682E+03 -5.41437E+03  6.99002E+02
  3.84890E+02 -1.11563E+03  7.56400E+01 -1.62554E+03 -4.63310E+02  2.69657E+03 -5.16065E+03 -1.60643E+03
 -3.64110E+03 -2.76285E+03 -1.27671E+03 -3.06653E+02  1.74262E+03 -5.72698E+03  8.35828E+03  1.85625E+03
  8.19912E+03 -2.10429E+03  5.90391E+03  5.89518E+03 -2.27270E+03  2.21205E+03  6.92925E+02  1.37864E+03
 -2.29636E+03  8.24259E+02 -1.36000E+03 -4.85069E+02  1.74498E+03 -1.60117E+03 -2.11269E+03  1.59480E+03
 -6.46062E+02  8.43529E+02 -2.16691E+03  5.42152E+03  1.44090E+02 -3.48450E+03  1.82678E+03 -2.15611E+03
 -8.33168E+02  3.47089E+03  4.36449E+03 -1.62632E+03  3.51710E+03  1.37259E+02 -3.11830E+03 -7.43047E+02
 -8.05850E+02  3.73849E+03 -3.99557E+03 -6.79293E+02 -4.12102E+03  1.13094E+03 -6.62087E+02  1.32144E+03
  1.46104E+03 -2.84703E+03  1.61883E+03 -9.72073E+02 -4.01045E+03 -9.26775E+02  2.83938E+03 -3.28322E+03
 -2.81042E+03 -7.40557E+02 -2.55138E+03 -7.98447E+02  3.89161E+03 -9.91621E+01  3.42077E+02 -3.45230E+03
  2.50783E+03 -3.61208E+03  1.19197E+03 -8.76659E+02  2.39590E+03  5.00432E+03  9.54500E+02  1.06066E+04
 -3.55048E+03  4.68138E+03 -4.25118E+03  6.11825E+01 -4.53085E+03 -4.50008E+03  8.64107E+02 -4.97960E+03
  3.82375E+03  7.56368E+02  2.15797E+03  4.14032E+03  2.16111E+03  9.74051E+02  5.33714E+02  2.47811E+02
  3.54122E+03  2.78991E+03 -1.53633E+03 -3.27999E+02  3.75722E+02  3.40824E+03  2.31724E+03  2.76672E+03
 -6.34830E+01  8.77517E+02  5.93538E+02  1.09560E+03  2.01855E+03  1.10777E+03  1.18820E+03 -1.96640E+03
 -2.29947E+03  3.20356E+03 -4.48645E+03  1.03569E+03  2.74510E+02 -4.52985E+03  4.56002E+03 -2.69778E+03
  2.35907E+03  1.74932E+03  1.59555E+03 -5.73105E+02  3.16487E+03  2.90769E+03  7.07892E+02 -1.84020E+03
