 $NMID ID='MM_0lb_SNR50_19hz_g45_50.RAW', FMTDAT='(8E13.5)'
 TRAMP=1., VOLUME=1. $END
  3.09787E+05  2.80968E+03  3.35702E+05  2.49039E+05  8.14917E+04  3.35535E+05 -1.31686E+05  2.53838E+05
 -1.93158E+05  8.40839E+04 -1.11086E+05 -3.53900E+04  8.47198E+02 -5.25465E+04  5.42066E+04 -3.11850E+03
  3.58882E+04  5.22446E+04 -1.45463E+04  7.25851E+04 -5.88056E+04  6.15076E+04 -8.05460E+04  3.27263E+04
 -7.88650E+04 -8.53877E+03 -5.48616E+04 -4.94307E+04 -1.55355E+04 -6.80520E+04  2.64511E+04 -4.43944E+04
  3.67534E+04  4.74661E+03  1.45063E+04  4.71285E+04 -3.24934E+04  4.55197E+04 -6.59188E+04 -1.06507E+03
 -5.35273E+04 -5.67249E+04 -9.19789E+03 -7.71278E+04  3.44750E+04 -5.24056E+04  4.57218E+04 -1.86080E+04
  3.94860E+04  1.00240E+04  3.27873E+04  2.59737E+04  1.66060E+04  2.54074E+04 -5.41536E+03  2.53365E+04
 -2.06885E+04  9.79561E+03 -1.74617E+04 -1.89818E+03  5.56839E+03 -9.58399E+03  2.35173E+04  1.26623E+04
  1.01901E+04  3.39433E+04 -3.19399E+04  3.21152E+04 -6.16755E+04  2.80910E+03 -6.02174E+04 -4.60256E+04
 -1.39013E+04 -6.17882E+04  3.20194E+04 -4.44558E+04  5.55319E+04 -2.71365E+03  3.57246E+04  3.17860E+04
 -8.57970E+03  3.21125E+04 -2.42695E+04  1.39287E+04 -2.70830E+04 -8.77576E+03 -8.23088E+03 -1.18138E+04
 -6.36958E+03 -1.00193E+04 -2.07930E+03 -1.64638E+04  8.92818E+03 -2.20329E+04  1.47638E+04 -1.56077E+04
  1.42143E+04  1.85761E+03 -4.69456E+03  1.34231E+04 -2.12278E+04  1.35254E+03 -8.17903E+03 -2.85634E+04
  2.05207E+04 -4.00583E+04  4.21851E+04 -1.86514E+04  4.28914E+04  1.92966E+04  1.68730E+04  3.98677E+04
 -1.63109E+04  2.75951E+04 -2.39605E+04  3.77740E+03 -1.39745E+04 -2.51186E+04  1.78956E+04 -2.74711E+04
  3.38822E+04 -8.88077E+03  2.46813E+04  2.99452E+04  1.90172E+04  3.83980E+04 -1.01591E+04  4.12130E+04
 -2.67496E+04  2.22390E+04 -3.74007E+04  8.17922E+03 -3.94462E+04 -1.84259E+04 -2.32073E+04 -3.40718E+04
  6.18384E+03 -3.70329E+04  2.95988E+04 -1.40817E+04  3.08357E+04  1.19134E+04  1.00559E+03  2.25854E+04
 -1.93463E+04  2.38619E+03 -8.79927E+03 -8.36331E+03  7.65730E+03 -9.87170E+03  1.81149E+04  4.44012E+03
  1.26685E+04  2.62737E+04 -9.50857E+02  2.49938E+04 -2.18234E+04  1.02926E+04 -2.09398E+04 -9.39982E+03
 -1.82746E+04 -1.15897E+04 -7.25843E+03 -1.56184E+04  6.08625E+03 -9.81392E+03  9.64465E+03 -1.41525E+04
  1.70715E+04 -1.16905E+04  2.41989E+04  4.14842E+03  2.15334E+04  1.36592E+04  5.40702E+03  3.50830E+04
 -1.13049E+04  3.15887E+04 -2.33031E+04  1.19997E+04 -2.24564E+04 -1.07777E+04 -3.72892E+03 -1.19538E+04
  5.17791E+03 -8.25712E+03 -5.64694E+03  7.49419E+03 -1.66236E+04  4.10240E+03 -7.52095E+03 -2.02647E+03
 -6.35141E+03 -1.53486E+04  4.20760E+03 -1.98644E+04  1.10624E+04 -1.44261E+04  1.30087E+04 -3.93073E+03
  7.99426E+03  1.16320E+04 -2.39102E+03  1.34970E+04 -9.12575E+03  8.14056E+03 -1.30251E+04 -2.46115E+03
 -1.11394E+04 -9.91291E+03 -3.66730E+03 -1.76615E+04  1.14778E+04 -1.70789E+04  1.45910E+04 -7.60415E+03
  1.50318E+04 -2.66155E+02  7.13966E+03  2.79662E+03  7.07398E+03 -1.18848E+03  8.36976E+03 -3.57274E+03
  1.06066E+04  2.61215E+03  1.43619E+04  6.86344E+03  8.55173E+03  2.79234E+04 -4.50560E+03  2.74770E+04
 -1.46257E+04  1.99397E+04 -2.53571E+04  1.10995E+04 -2.30070E+04 -2.24017E+02 -1.78867E+04 -1.47997E+04
 -1.35371E+04 -2.37509E+04  5.26612E+03 -2.02064E+04  1.52251E+04 -1.04444E+04  1.21381E+04  8.27359E+03
  3.03683E+03  8.66594E+03 -7.40514E+03  1.01660E+04 -1.41174E+04  1.49350E+03 -6.68258E+03 -8.35795E+03
  5.33819E+01 -1.06565E+04  6.44300E+03 -1.17732E+04  7.92438E+03 -2.72874E+03  4.07126E+03  3.59899E+03
 -4.67248E+03 -3.47470E+03 -2.09069E+03 -3.71183E+03  6.76045E+02 -1.04130E+04  7.82074E+03 -6.22531E+03
  1.07089E+04 -5.50001E+03  1.11562E+04 -2.62491E+02  9.63938E+03  1.43266E+04  6.75253E+03  9.80170E+03
 -5.20449E+03  1.23484E+04 -8.29814E+03  1.03943E+04 -1.07151E+04  1.62409E+03 -7.01164E+03 -2.14207E+03
 -3.00227E+03 -8.25765E+03  1.08062E+03  1.54287E+03 -4.89782E+02  3.58493E+03 -3.34864E+03 -9.68884E+02
 -9.32339E+03  6.35456E+02 -8.56826E+03 -8.94903E+03 -5.08468E+03 -1.18077E+04  1.04715E+03 -6.09168E+03
  5.00817E+03 -1.78638E+03  6.49629E+01 -5.00111E+02  1.36573E+03  5.13896E+03  2.39488E+02 -1.20448E+03
 -8.38603E+03 -4.20836E+03 -1.75430E+03 -8.15536E+03  5.06072E+03 -6.41760E+03  1.29512E+04 -5.18974E+03
  1.05871E+04  3.42833E+03  9.39500E+03  2.67921E+03  1.47379E+03  8.24096E+03 -3.07322E+03  8.20616E+03
 -6.44628E+03 -1.88070E+03 -3.66432E+03 -5.08025E+03  4.52158E+03  9.85328E+02  7.70104E+03 -8.55306E+01
  3.72799E+03  4.83955E+03  1.94337E+03  6.13261E+03 -3.52794E+03  9.08510E+03 -7.29933E+03  4.03767E+03
 -8.55540E+03 -2.90857E+03  1.42274E+03 -6.01472E+03  2.95684E+03 -3.74462E+03  1.27095E+03  4.38945E+03
  9.92403E+02  3.83667E+03 -3.30068E+03  2.74280E+03 -4.24948E+03  4.30300E+03 -4.30011E+03 -3.78480E+03
  9.84317E+02 -2.05437E+03  6.03260E+02 -8.89479E+03  9.33168E+03 -6.53697E+02  1.39999E+03  3.29204E+03
  6.61213E+03  6.54101E+03  9.98789E+02  7.23534E+03 -5.98872E+03  4.35368E+03 -5.90499E+03 -1.93826E+03
 -6.11026E+03 -9.34120E+03 -2.71639E+03 -3.08324E+03  2.13248E+03 -3.82338E+03  3.10601E+03 -4.16082E+03
  4.45171E+03 -1.40071E+03  2.07472E+03 -1.62222E+03  1.75119E+03 -8.90880E+02  7.53811E+02 -2.37406E+03
  4.76349E+03  3.06878E+03  6.64302E+03  3.62872E+03  3.56832E+03  2.99269E+03  5.79401E+03  7.50985E+03
 -5.42512E+03  9.80451E+03 -8.74668E+03  6.01895E+03 -7.58249E+03  1.18290E+03 -3.51714E+03 -1.91890E+03
 -1.59852E+03 -7.30087E+03 -4.01965E+03 -9.30483E+02  3.32162E+03 -7.71442E+03  5.26416E+02 -4.99178E+02
  2.65970E+03 -3.85789E+03  2.66796E+03 -3.32623E+02  2.62725E+03 -3.07704E+03  3.90570E+03 -1.41308E+03
  6.22369E+03  4.16727E+02  2.92625E+03  6.35564E+03  2.11552E+03  2.30640E+02 -3.30874E+02  3.20285E+03
 -9.43142E+03  1.92489E+03 -3.28730E+03  6.73930E+01 -1.32626E+02 -3.13855E+03  6.56760E+03 -7.34879E+03
  5.90904E+03 -2.47727E+03  2.93328E+03  2.99694E+03  4.16003E+03  7.26027E+03  4.59138E+03  8.34469E+03
 -3.02758E+03  1.80724E+03 -6.73817E+02  1.73030E+03  1.70243E+03 -6.15617E+02 -1.83237E+03 -1.98932E+03
 -4.17107E+03  1.49614E+03 -2.80628E+03  1.06676E+03 -8.62643E+02  2.89725E+03 -7.93338E+03  1.35074E+03
  2.79326E+03 -1.11564E+03  4.09172E+03 -2.10220E+03  5.75853E+02 -7.99626E+03 -9.28620E+00 -8.15624E+01
  1.68286E+03  2.16293E+03  7.73303E+02 -4.40830E+01 -3.02673E+03  6.08721E+03 -4.29125E+03  7.19118E+03
 -3.42851E+03  9.77114E+02 -7.23927E+02  3.14044E+02 -6.74102E+02 -4.26775E+03  8.65461E+02 -2.69756E+03
  2.46379E+03 -1.23641E+03  3.17227E+03  2.89009E+03 -3.59139E+03  3.34831E+03  8.32529E+02 -2.67624E+03
  5.40170E+03 -3.45342E+03  9.27639E+02  1.50776E+03  1.38342E+03  1.02882E+03  2.84210E+02  4.24446E+03
 -5.82392E+02  3.65159E+03  4.80278E+02  7.89526E+03  8.26611E+02  4.37676E+03 -3.30338E+03  2.96662E+02
 -3.32698E+03 -6.71066E+03  5.01316E+03 -2.42416E+02 -1.94135E+03 -5.23545E+03 -4.64604E+02  2.82760E+03
  2.59791E+03  5.52245E+03 -2.29907E+03  1.80903E+03 -3.97930E+03  3.27635E+03  2.85871E+02 -8.26689E+02
  9.96810E+02 -3.47886E+03  1.94479E+03 -1.11827E+03  5.71411E+02 -1.68267E+03  2.02653E+03 -1.50325E+02
  3.42296E+03  1.16530E+03 -1.14442E+03 -4.49243E+03  8.40516E+00  6.81959E+02  1.17410E+03 -6.48572E+03
  6.73457E+02  2.28401E+02 -5.61079E+01  4.85622E+03  1.76661E+02 -1.07291E+03 -2.94950E+02  4.49171E+02
 -4.95752E+03  3.26296E+03 -1.68753E+03  1.61052E+03 -1.19062E+03 -2.05303E+03 -1.56348E+03 -2.62203E+03
 -2.06552E+03 -2.41096E+03  4.53751E+03 -1.33872E+03  7.95426E+02  2.47298E+03  9.53072E+02 -2.46862E+03
  9.98276E+02  2.05714E+03 -2.47297E+03 -8.11167E+02 -1.29528E+03 -1.50949E+03  2.49186E+02  2.28260E+03
 -1.69036E+03 -1.68260E+03 -9.80095E+02  4.35374E+03  5.26921E+01  1.45589E+03  8.50002E+01  7.79275E+02
 -9.51324E+01 -2.37459E+03 -8.78297E+02  8.53716E+02  1.98049E+03  9.10208E+02  8.27561E+02 -4.01009E+03
  3.86793E+03 -3.75732E+02  5.64301E+03 -4.37530E+03  2.69867E+02  5.76393E+03  9.18852E+02  6.18901E+02
  2.59438E+03 -2.89749E+02 -2.95682E+03 -1.11651E+03  2.66336E+03 -2.36093E+03  2.50130E+03 -9.07299E+00
  3.55029E+03 -2.06565E+03  3.46786E+03  2.61368E+01  2.36104E+03 -9.72013E+01  1.04969E+03 -1.17402E+03
  1.72060E+03 -2.52532E+02  1.32100E+02  2.90352E+03 -6.76953E+03 -7.40324E+02 -3.17589E+02 -2.78023E+03
 -2.35049E+02 -3.63374E+01 -2.00594E+03  2.96471E+03  6.49334E+02 -2.21483E+03 -2.28516E+03 -2.72175E+03
 -7.79979E+02 -5.17488E+03  8.78614E+02 -1.00621E+04  1.42418E+02 -1.00838E+02  3.96421E+03 -1.85874E+03
  1.22244E+03 -2.38105E+03  5.55980E+02  6.39079E+02 -2.83528E+03  3.88930E+03 -8.82454E+02  7.28053E+02
  2.08081E+03  3.43323E+03 -9.99102E+02 -2.54763E+03  7.90912E+02 -2.32859E+03 -3.66426E+03  1.82466E+02
  3.09107E+02 -3.50106E+03 -1.96717E+03 -3.46367E+03 -2.01205E+03 -2.28929E+03 -2.58165E+03 -1.09191E+03
  3.93300E+03 -3.29136E+03  1.04531E+03 -1.29390E+03  2.98616E+03  1.63965E+03 -3.89113E+03  1.12047E+03
  5.45520E+03 -3.70717E+02 -2.16676E+03  1.14953E+03 -4.79037E+02  1.75315E+03 -8.94509E+02 -1.13486E+03
 -3.62448E+03 -5.94374E+02 -1.26437E+03 -3.01299E+03  1.95506E+03  1.32757E+03 -9.40348E+02  2.08345E+03
  4.20925E+02 -6.08881E+02  1.11206E+03 -2.09915E+03 -2.45404E+03 -2.62638E+03 -1.66617E+03 -2.26907E+03
 -1.87717E+03  1.69858E+03 -2.21828E+03 -1.70297E+03  1.31579E+03 -2.06456E+03  4.17675E+02  1.75205E+03
 -2.32974E+03  1.45444E+03  1.81620E+02 -1.61488E+03 -1.28991E+03 -1.34842E+03  4.03733E+03  4.23757E+03
 -2.86801E+02 -3.65093E+03 -3.23496E+03  1.56752E+02  3.74943E+03 -3.99972E+02  2.26149E+03  7.16990E+02
  2.41469E+03  1.85963E+02  1.98214E+03  2.43112E+03 -3.35052E+03 -2.60806E+03  3.80593E+02 -1.07460E+03
  1.61420E+03  3.40844E+03 -2.35322E+03 -8.90684E+02 -1.36820E+01  2.52525E+03 -8.80478E+02 -4.88844E+03
 -8.67930E+02  1.01936E+03 -3.86526E+03 -7.11076E+01 -7.24499E+02 -4.38183E+03  5.80529E+02  4.28239E+03
 -3.46706E+02  1.54616E+03 -9.07734E+02 -3.98516E+02 -2.77078E+03  1.05546E+02 -1.98063E+03 -2.82562E+03
