 $NMID ID='MM_0lb_SNR50_7hz_g45_100.RAW', FMTDAT='(8E13.5)'
 TRAMP=1., VOLUME=1. $END
  3.06473E+05  4.07080E+03  3.44295E+05  2.49459E+05  8.21328E+04  3.41281E+05 -1.34354E+05  2.51640E+05
 -1.90606E+05  8.61738E+04 -1.14561E+05 -3.63122E+04 -1.56412E+03 -5.07405E+04  6.39689E+04 -4.60738E+03
  3.34409E+04  4.76023E+04 -2.22836E+04  7.69351E+04 -6.37777E+04  6.75399E+04 -8.54236E+04  3.22648E+04
 -8.55653E+04 -1.59489E+04 -6.33435E+04 -5.48388E+04 -9.29526E+03 -7.48943E+04  2.56943E+04 -4.91300E+04
  4.19532E+04 -7.12874E+02  1.48093E+04  4.14751E+04 -3.60429E+04  5.06149E+04 -6.90921E+04  3.42631E+03
 -5.75378E+04 -5.98535E+04 -1.36965E+04 -7.82836E+04  2.83504E+04 -6.14903E+04  4.88024E+04 -1.76801E+04
  4.55286E+04  9.05930E+03  3.52225E+04  2.91756E+04  1.74087E+04  3.23107E+04 -8.00878E+03  2.10424E+04
 -2.40999E+04  1.70034E+04 -1.70867E+04 -5.11784E+03  1.35177E+04 -2.10472E+03  3.10576E+04  8.91255E+03
  1.11318E+04  3.83673E+04 -4.06615E+04  4.50786E+04 -6.60588E+04  3.47279E+03 -5.84375E+04 -4.30033E+04
 -1.28655E+04 -7.10971E+04  3.78258E+04 -4.44607E+04  6.08243E+04 -6.09791E+03  3.85032E+04  3.46315E+04
  1.29890E+03  4.16895E+04 -3.28638E+04  2.71517E+04 -3.90580E+04  3.25257E+02 -2.08583E+04 -1.30858E+04
 -1.06341E+04 -1.86384E+04  7.00966E+03 -2.11453E+04  9.04509E+03 -2.43710E+04  1.86934E+04 -8.06424E+03
  6.05028E+03  9.12959E+03 -1.08237E+04  8.99570E+03 -2.55082E+04 -9.00978E+03 -1.13717E+04 -3.89640E+04
  2.42815E+04 -4.58620E+04  5.69157E+04 -1.97543E+04  4.96661E+04  1.87968E+04  1.36848E+04  5.50915E+04
 -1.77657E+04  3.80037E+04 -3.29346E+04  4.70392E+03 -8.90004E+03 -2.64801E+04  2.26177E+04 -3.31723E+04
  4.01135E+04 -1.35317E+04  4.00184E+04  2.17114E+04  2.80309E+04  5.50844E+04 -8.95708E+03  5.58632E+04
 -3.81763E+04  4.20013E+04 -4.91128E+04  1.40762E+04 -4.85613E+04 -2.47810E+04 -2.73559E+04 -5.25160E+04
  6.86335E+03 -5.29851E+04  3.25013E+04 -1.43946E+04  3.95533E+04  1.32005E+04  1.10958E+04  2.07774E+04
 -1.69009E+04  1.97279E+04 -7.53599E+03 -1.36165E+04  8.89654E+03 -1.46933E+04  1.61352E+04  8.15523E+03
  1.96989E+04  1.47457E+04 -2.70962E+03  3.54695E+04 -2.12415E+04  1.35630E+04 -3.33611E+04  7.70190E+02
 -2.53457E+04 -1.95963E+04 -1.86914E+04 -3.13516E+04  5.67503E+03 -2.69382E+04  1.75189E+04 -2.91887E+04
  3.05164E+04 -1.55086E+04  4.02723E+04  5.56024E+03  2.65422E+04  2.12149E+04  7.45476E+03  4.50697E+04
 -2.16552E+04  3.10469E+04 -3.37178E+04  7.17413E+03 -2.57194E+04 -1.24548E+04 -6.64304E+02 -8.51992E+03
 -7.31538E+03 -7.15620E+03 -6.65756E+03  1.13770E+04 -2.07958E+04  5.41849E+03 -2.31954E+04 -9.51944E+03
 -1.28518E+04 -2.88592E+04  1.23094E+04 -3.23626E+04  2.60693E+04 -2.42360E+04  1.95024E+04 -2.82797E+03
  1.80632E+04  1.41165E+04 -7.08764E+03  1.93053E+04 -1.58487E+04  1.89485E+04 -2.49406E+04 -4.88783E+03
 -1.40913E+04 -1.84341E+04  2.78641E+03 -3.13003E+04  1.37296E+04 -2.54798E+04  2.82324E+04 -8.94368E+03
  2.72424E+04  4.67048E+03  1.38137E+04  2.20189E+03  1.47396E+04  4.58125E+03  1.40870E+04 -2.58901E+02
  2.57413E+04  9.80766E+01  3.05323E+04  1.94567E+04  2.09130E+04  3.85336E+04  3.88275E+03  4.73325E+04
 -3.09135E+04  4.18893E+04 -4.38998E+04  1.96481E+04 -4.37035E+04 -1.70759E+03 -3.85025E+04 -3.10802E+04
 -8.22537E+03 -3.74802E+04  1.50347E+04 -3.03173E+04  3.04418E+04 -1.46324E+04  2.36905E+04  1.45211E+04
  7.36026E+03  1.97153E+04 -1.19944E+04  1.14645E+04 -1.95421E+04  4.71409E+03 -1.54488E+04 -1.06364E+04
 -7.70276E+02 -2.31242E+04  1.18482E+04 -1.96432E+04  6.05153E+03  1.33589E+03  1.41527E+03  8.66505E+03
 -1.15784E+04  9.01866E+02 -1.09016E+04 -8.14187E+02  2.24074E+03 -1.67699E+04  1.10381E+04 -1.90569E+04
  2.25641E+04 -1.16799E+04  3.32342E+04 -2.91251E+03  3.38162E+04  2.11285E+04  8.16847E+03  2.89397E+04
 -5.15702E+03  2.79963E+04 -2.09849E+04  2.27075E+04 -2.13743E+04 -1.55846E+02 -1.20361E+04 -7.51507E+03
 -8.06744E+03 -1.85610E+04  1.01465E+04  3.15281E+02 -3.60916E+03  1.71313E+03 -1.13152E+04  8.87979E+03
 -1.13352E+04  1.15841E+03 -1.35795E+04 -1.75679E+04 -2.31022E+03 -2.06195E+04  9.63707E+03 -2.17368E+04
  1.17658E+04 -5.33728E+03  1.10507E+04  3.74958E+03 -1.28300E+03  5.29042E+03 -8.59641E+03 -6.10354E+03
 -1.27552E+04 -1.57845E+04 -7.41716E+03 -1.43909E+04  1.71624E+04 -1.69103E+04  2.35895E+04 -1.28578E+04
  2.15963E+04  4.03136E+03  1.79873E+04  1.38379E+04  2.62272E+03  1.56329E+04 -1.24336E+04  2.05733E+04
 -1.20737E+04 -1.86225E+03 -6.40735E+03 -8.41501E+02  4.42050E+03 -6.49465E+03  1.15481E+04  6.31729E+00
  3.37406E+03  2.54786E+03  6.83869E+03  1.31104E+04 -3.83605E+03  1.62814E+04 -1.98806E+04  1.95513E+03
 -2.16598E+04 -1.05191E+04  1.56685E+02 -2.02345E+04  8.98780E+03 -9.47170E+03  1.41158E+04  9.59509E+03
 -4.57758E+02  1.20739E+04 -6.39900E+03  7.60947E+03 -1.49914E+04  5.62840E+03 -2.01423E+04 -1.20459E+04
 -4.23874E+03 -1.22089E+04  4.03509E+03 -1.75421E+04  1.79858E+04 -9.70868E+03  1.54070E+04 -6.27725E+02
  5.71533E+03  1.72093E+04  1.08421E+02  1.76337E+04 -1.11513E+04  1.41006E+04 -1.88215E+04  3.52778E+03
 -1.12795E+04 -9.02498E+03  3.42537E+02 -1.88078E+04  4.38682E+03 -1.76804E+04  8.19102E+03 -6.22971E+03
  1.90036E+03  2.08493E+03 -2.39345E+03  3.76135E+03 -2.08479E+03 -4.54980E+03 -1.36322E+03 -1.12191E+04
  1.75530E+04 -7.22800E+03  1.62987E+04 -1.17045E+03  2.71745E+04  1.30842E+04  1.18300E+04  2.09621E+04
 -6.28937E+03  2.76682E+04 -2.88145E+04  2.17066E+04 -2.80318E+04  4.57346E+03 -2.86600E+04 -3.07498E+03
 -1.37693E+04 -2.18599E+04  4.85155E+03 -1.30484E+04  2.07496E+03 -6.87568E+03  1.17390E+04 -6.91262E+03
  1.03679E+04 -5.19246E+03  2.05725E+03  1.27595E+03  7.28362E+03 -4.10763E+03  7.01931E+03 -4.55328E+03
  1.25599E+04  7.63502E+03  1.24465E+04  1.65488E+04 -6.43435E+03  1.55372E+04 -6.82503E+03  8.68178E+03
 -1.55508E+04  1.03877E+02 -1.19173E+04 -1.03412E+04 -5.53242E+02 -1.40128E+04  1.26284E+04 -1.69722E+04
  2.08660E+04 -1.66021E+04  1.90711E+04  9.09100E+03  2.18759E+04  1.97233E+04  7.47243E+03  2.22847E+04
 -1.34215E+04  2.05602E+04 -1.44742E+04  5.51834E+03 -1.04679E+04  1.83170E+03  2.88183E+03 -4.69864E+03
  1.26843E+02 -2.72891E+03 -3.33916E+03  3.84281E+03 -6.81617E+02  5.81449E+03 -1.23150E+04  3.48330E+03
 -1.23522E+04 -5.65566E+03  1.72251E+03 -1.45606E+04  1.99891E+04 -1.36933E+04  1.67005E+04 -1.06631E+04
  1.88175E+04  1.56116E+04  9.81677E+03  1.55035E+04  1.09145E+03  1.76342E+04 -1.47758E+04  1.60128E+04
 -2.01515E+04 -4.82873E+03 -1.43381E+04 -6.10263E+03 -1.29866E+04 -1.41802E+04  1.02700E+04 -1.31940E+04
  1.28326E+04 -2.87969E+03  7.97261E+03  3.28063E+03  2.51681E+03  6.41414E+03 -1.83974E+03  2.22998E+03
 -2.92007E+03 -4.81027E+03  9.00680E+03 -3.55596E+03  4.91007E+02  1.12468E+04  7.68245E+03  1.21714E+04
 -8.80729E+01  1.36083E+04 -1.35664E+04  8.69417E+03 -2.28100E+04  6.14883E+03 -2.68355E+04 -5.68556E+03
 -6.25678E+03 -2.30634E+04 -2.13767E+03 -2.05869E+04  1.21186E+04 -9.36892E+03  1.51874E+04 -3.78087E+03
  8.00698E+03  3.47526E+03 -7.38295E+03  4.30209E+03 -9.21554E+03  6.61318E+03 -1.07864E+04  5.41497E+03
 -2.86856E+03 -5.93297E+03  5.52602E+03 -1.07057E+04  6.35794E+03 -3.53485E+03  8.51209E+03  1.30629E+03
  2.94808E+03  1.19576E+04 -2.42727E+03  3.52291E+03  3.71488E+03  5.87838E+03  2.06924E+03  2.26615E+03
  3.85401E+03 -1.19531E+03  8.16972E+03  1.14083E+04  2.38492E+02  1.53280E+04 -6.42002E+03  1.57211E+04
 -6.12446E+03  7.21022E+03 -1.54238E+04  1.92766E+03 -1.59429E+04 -4.35243E+03 -1.32766E+02 -4.53243E+03
 -1.60126E+02 -7.49526E+03  7.61495E+03 -3.00347E+03  7.22723E+03  1.71185E+03 -1.84174E+03  1.48583E+04
 -1.45391E+04  7.20008E+03 -5.84327E+03 -5.97668E+03 -7.22446E+03 -1.69247E+04  2.19140E+03 -1.39931E+04
 -6.24911E+03 -7.03446E+03  7.84457E+03 -9.48012E+03  4.75795E+03  9.29663E+03 -9.85431E+02  1.58209E+03
 -4.21344E+03  6.57949E+03  2.18406E+01 -2.70722E+03  5.32984E+03 -9.80630E+03  1.37350E+04 -2.07621E+03
  7.93392E+03  2.76873E+03  1.23619E+04  1.16499E+04  7.23448E+03  9.98711E+03 -4.02073E+03  8.23559E+03
 -4.08461E+03  9.50939E+03 -1.30163E+04 -5.49159E+03 -1.40386E+04 -6.47656E+03  6.05431E+03 -1.36776E+04
  4.94578E+03 -4.59952E+03  4.16985E+03 -7.84447E+02  2.85042E+03  2.67619E+03 -1.63985E+03  1.57400E+04
 -3.70301E+03  4.15148E+03 -2.98532E+01  8.16480E+01  2.31985E+03 -2.83550E+02  2.55146E+03  5.79524E+02
  3.00061E+02  2.63735E+03 -2.57613E+03  4.63080E+03 -1.53677E+04  5.67459E+03 -1.79888E+04 -4.40780E+03
 -8.16476E+03 -1.64188E+04 -3.15927E+03 -2.47230E+04  1.68396E+04 -2.46028E+04  1.74366E+04 -8.53759E+03
  2.27522E+04  5.93960E+03  8.31062E+03  1.57806E+04  3.07726E+02  1.92046E+04 -1.40789E+03  7.22276E+03
 -1.37429E+04 -1.47247E+03 -5.42109E+03 -5.47458E+03  3.74500E+03 -9.47067E+02 -2.26163E+03 -1.63198E+03
  2.86044E+03  1.49502E+03 -2.07973E+03 -1.24845E+03 -7.59884E+03 -6.34595E+03 -2.07400E+03  9.23362E+02
  7.97866E+03  7.50618E+02  1.13597E+04 -4.35432E+03  1.29075E+04  1.87292E+03  4.80130E+03  1.47562E+04
 -6.51061E+03  1.39863E+04 -1.40283E+04  1.02366E+04 -1.33948E+04 -4.78591E+03 -2.54311E+04 -1.56188E+04
  2.83945E+03 -1.08271E+04  2.27624E+03 -1.63362E+04  5.68612E+03 -1.41498E+04  8.67905E+03  1.81430E+03
  1.42438E+04  6.82304E+03 -3.14947E+03  3.17782E+03 -9.63395E+02 -5.67853E+01  3.39162E+03 -9.15143E+03
  1.14189E+04 -2.39405E+03  1.11988E+03 -2.89454E+03 -1.93496E+03  1.04179E+04 -1.49601E+03  5.64798E+03
 -9.76849E+03  1.05191E+04 -7.87265E+03  4.45552E+02 -1.38347E+04 -1.49034E+04 -6.28183E+02 -1.01776E+04
  6.95784E+03 -1.09839E+04  1.40677E+04 -4.05699E+03  1.15494E+04  2.04661E+03  6.52387E+03  3.52934E+03
  3.40446E+03  6.92139E+03  2.43343E+03  7.58760E+03 -7.70599E+03  1.67293E+03 -3.45234E+03 -4.73716E+03
  1.72165E+03 -9.99240E+03  1.47938E+03 -1.53145E+03 -6.32935E+03  8.65664E+03 -1.67026E+04 -2.42442E+03
 -4.11921E+03 -1.11695E+04 -3.70516E+03 -1.65652E+04  1.80458E+03 -1.64181E+04  1.15236E+04 -5.52335E+03
  1.10765E+04 -7.69841E+03  1.07668E+04 -2.47559E+03 -9.91573E+02  1.29492E+04 -5.46750E+03  1.47502E+04
