 $NMID ID='MM_0lb_SNR50_16hz_g55_11.RAW', FMTDAT='(8E13.5)'
 TRAMP=1., VOLUME=1. $END
  3.10833E+05 -4.50521E+02  3.40808E+05  2.49522E+05  8.59628E+04  3.40037E+05 -1.35208E+05  2.45335E+05
 -1.87620E+05  7.97824E+04 -1.15025E+05 -2.96099E+04  3.99166E+03 -4.93933E+04  5.38514E+04 -1.69787E+02
  3.83359E+04  5.25124E+04 -1.40188E+04  6.97302E+04 -5.93608E+04  6.28860E+04 -8.86875E+04  2.98714E+04
 -7.75723E+04 -1.14746E+04 -5.48669E+04 -5.02766E+04 -1.70895E+04 -7.22836E+04  2.77144E+04 -4.38085E+04
  3.92585E+04  2.39555E+03  1.83776E+04  4.67433E+04 -3.59688E+04  4.45070E+04 -6.38336E+04  2.23076E+03
 -5.60270E+04 -5.63891E+04 -8.26104E+03 -7.40623E+04  3.25298E+04 -5.71161E+04  4.74681E+04 -1.83730E+04
  4.42889E+04  9.71487E+03  3.01249E+04  2.76249E+04  1.28351E+04  2.55136E+04 -3.23438E+03  2.92238E+04
 -2.37367E+04  1.18095E+04 -1.66343E+04 -3.98395E+03  7.20271E+03 -9.30287E+03  2.42556E+04  1.47786E+04
  1.03061E+04  3.59829E+04 -3.58574E+04  3.39609E+04 -6.68183E+04 -3.34472E+03 -5.76314E+04 -4.14729E+04
 -1.38314E+04 -6.15307E+04  3.78589E+04 -4.41453E+04  5.99757E+04  6.64544E+02  3.33525E+04  3.04709E+04
 -7.06485E+03  3.68952E+04 -2.68257E+04  1.26175E+04 -3.21842E+04 -5.88838E+03 -1.92472E+04 -8.73897E+03
 -6.30782E+03 -1.58830E+04  7.06635E+02 -1.76496E+04  6.60716E+03 -2.00838E+04  1.69999E+04 -1.58756E+04
  1.25445E+04  1.31148E+03 -7.31770E+03  1.08981E+04 -1.99276E+04 -4.59840E+03 -1.00408E+04 -3.33946E+04
  2.21571E+04 -4.20772E+04  4.85260E+04 -1.97429E+04  4.00806E+04  2.11628E+04  2.10022E+04  4.46196E+04
 -1.68500E+04  3.34385E+04 -2.09571E+04  9.30350E+01 -5.76609E+03 -2.79250E+04  1.72899E+04 -3.87793E+04
  4.29713E+04 -4.54170E+03  3.27118E+04  1.85218E+04  1.80542E+04  4.86774E+04 -7.79429E+03  4.45607E+04
 -2.88259E+04  3.12222E+04 -3.95636E+04  1.06075E+04 -4.39248E+04 -1.46815E+04 -2.77183E+04 -3.12240E+04
  2.86280E+03 -4.05216E+04  3.24504E+04 -1.32808E+04  2.91634E+04  6.41557E+03  3.84322E+03  1.37529E+04
 -1.24113E+04  6.38859E+03 -8.17316E+03 -7.45849E+03  2.45548E+03 -9.35658E+03  1.82638E+04  5.42549E+03
  1.33554E+04  2.60594E+04 -5.29468E+03  2.59424E+04 -2.07612E+04  1.39026E+04 -2.65740E+04 -1.14568E+04
 -2.32691E+04 -1.97963E+04 -1.08449E+04 -1.88392E+04  4.84697E+03 -1.74988E+04  1.72404E+04 -1.59834E+04
  2.71142E+04 -1.15424E+04  3.42730E+04  2.00739E+03  1.70878E+04  1.80497E+04  1.96653E+03  3.52374E+04
 -1.73097E+04  3.31817E+04 -2.62410E+04  8.78517E+03 -2.40129E+04 -1.41044E+04 -6.09166E+03 -1.35859E+04
  3.29994E+03 -3.16091E+03 -2.52568E+03  3.46400E+03 -1.83777E+04  4.50255E+03 -1.56461E+04 -7.00957E+03
 -7.32400E+03 -1.63849E+04  7.12389E+03 -2.06210E+04  1.54006E+04 -1.13850E+04  1.60817E+04 -4.01874E+02
  1.39547E+04  1.20446E+04 -3.65613E+02  1.67182E+04 -1.23701E+04  8.83314E+03 -1.72809E+04 -7.48464E+03
 -1.52325E+04 -1.61650E+04  7.94857E+02 -1.94026E+04  1.25583E+04 -1.89632E+04  2.04309E+04 -8.82302E+03
  1.68277E+04  2.77490E+03  1.51725E+04  1.89963E+03  1.03230E+04  2.20441E+03  7.86069E+03 -1.17718E+03
  1.28781E+04  9.64100E+02  1.81589E+04  1.84548E+04  1.08221E+04  2.69058E+04  5.84753E+02  3.51505E+04
 -1.95440E+04  2.46643E+04 -2.61781E+04  7.78961E+03 -2.99663E+04 -3.90086E+03 -2.31969E+04 -1.65626E+04
 -1.10760E+04 -2.22568E+04  1.01697E+04 -2.38215E+04  2.03032E+04 -9.04791E+03  1.96277E+04  3.83785E+03
  7.20756E+03  1.48937E+04 -6.93373E+03  1.04633E+04 -1.54549E+04  4.14393E+03 -1.32679E+04 -1.07797E+04
  2.58507E+02 -1.57843E+04  1.05104E+04 -9.59792E+03  9.11508E+03  8.97860E+02  3.35021E+03  7.40849E+03
 -4.86036E+03 -1.52723E+03 -4.05064E+03 -3.18589E+03  1.12725E+03 -1.05893E+04  1.14377E+04 -1.29693E+04
  1.54466E+04 -1.01449E+04  1.24818E+04 -3.62609E+03  1.75882E+04  1.31974E+04  9.15804E+03  1.56442E+04
 -1.56782E+03  2.13980E+04 -1.11455E+04  1.07406E+04 -1.15586E+04  3.04637E+03 -1.23992E+04 -4.53224E+03
 -4.78675E+03 -1.90006E+03 -8.29951E+02 -3.76489E+03 -2.68045E+03  2.17158E+03 -5.62158E+03  2.93457E+03
 -1.10311E+04 -2.79083E+03 -1.20992E+04 -6.91230E+03 -5.32882E+03 -1.22795E+04  2.97553E+03 -1.50780E+04
  8.57953E+03 -4.62365E+03  4.87852E+03  2.38749E+03  1.86828E+03  4.19859E+03 -2.55828E+03 -4.22354E+03
 -6.84178E+03 -9.93945E+02 -2.20136E+02 -1.32181E+04  1.52543E+03 -1.00361E+04  1.08521E+04 -7.38483E+03
  1.82197E+04 -1.77555E+03  6.12223E+03  8.36512E+03 -2.60242E+02  6.66752E+03 -3.31153E+03  9.71856E+03
 -9.76289E+03  3.47667E+03 -1.76720E+01 -8.47728E+00  4.00623E+03 -3.78002E+03  5.66651E+03  7.77229E+02
  5.02529E+03  1.82317E+03 -2.34434E+03  6.23848E+03 -3.62737E+03  1.11056E+04 -9.85141E+03  1.07118E+03
 -6.84452E+03 -5.24315E+03  9.19933E+02 -9.67805E+03  4.93372E+03 -3.01294E+03  6.94156E+03  3.91609E+03
  3.37536E+03  7.94544E+03 -6.64355E+03  9.96331E+03 -6.86491E+03  4.17751E+03 -2.55659E+03 -4.33311E+03
 -1.67283E+03 -7.47998E+03 -6.12702E+02 -8.09581E+03  9.46918E+03 -4.56009E+03  6.70903E+03  3.18240E+03
  7.33200E+03  6.54268E+03 -1.81079E+03  9.60290E+03 -1.05051E+04  2.28972E+03 -8.52264E+03 -5.97415E+03
 -7.10492E+03 -6.62003E+03 -2.15399E+03 -6.88142E+03  8.38461E+02 -6.22305E+03  5.28274E+03 -2.63836E+03
  4.95771E+03 -1.41765E+03 -8.60330E+02 -1.22311E+03 -3.53091E+03 -9.90816E+02  3.78957E+03  1.06916E+03
  7.75417E+03 -2.31531E+03  9.13016E+03 -1.48199E+02  9.59095E+03  4.37849E+03  6.62035E+03  9.78680E+03
 -1.57057E+03  1.27850E+04 -1.02368E+04  8.91424E+03 -1.08488E+04  6.36535E+03 -7.77291E+03 -2.34423E+02
 -2.97836E+03 -9.53532E+03  1.26701E+03 -8.96438E+03  2.09130E+03 -5.08386E+03  2.86040E+03 -4.54373E+03
 -8.43795E+02 -2.13628E+03  4.47085E+03 -2.52117E+03  4.55671E+03 -4.98668E+03  9.84342E+03  2.40998E+03
  4.65643E+03  5.23917E+03  1.01483E+03  1.01015E+03 -4.01023E+03  6.20188E+03 -7.78534E+03  4.12010E+03
 -9.87664E+03 -1.23233E+03 -5.94822E+03 -6.81192E+03 -2.11517E+03 -4.02840E+03  5.30754E+03 -1.28668E+04
  7.58124E+03 -7.91638E+03  1.02186E+04  6.32872E+03 -4.76546E+02  7.73778E+03  5.39167E+01  8.46024E+03
 -4.71295E+03  8.32288E+03 -3.81855E+03  1.93971E+03 -5.86575E+03 -2.29797E+03 -1.85778E+03  1.65688E+02
  3.05374E+02  4.38613E+03 -5.69944E+03  5.07786E+02  5.92523E+02 -7.80982E+02 -4.69805E+03 -6.50681E+02
  1.31895E+03 -4.55017E+03  3.66013E+02 -5.38146E+03  1.89764E+03 -7.15822E+02  2.66197E+03 -1.16119E+03
  5.48688E+03  1.62761E+03 -3.92110E+03  5.63160E+03  2.43664E+03  8.13357E+03 -1.55764E+03  7.67995E+03
 -7.17218E+03 -5.41992E+01 -5.82932E+03 -3.07633E+03 -2.26594E+03 -5.74795E+03  1.74649E+03 -6.54283E+03
  5.07392E+03 -4.85118E+03  2.04568E+03  1.67737E+03  5.22543E+02  3.34595E+03 -1.27728E+03  2.82173E+03
  3.38545E+03  1.14222E+03 -1.14580E+03  1.75654E+03 -3.21264E+02  2.04020E+03  1.78009E+03 -4.52211E+03
 -1.80921E+03  2.34786E+03 -5.68453E+03  3.85084E+03 -7.43067E+03  3.10728E+03 -7.93868E+03 -5.04553E+02
 -1.62583E+03 -3.95158E+03 -1.40559E+03 -5.19249E+03 -1.76789E+03 -5.71642E+03  4.17985E+03 -8.95994E+02
  3.65574E+03  4.53108E+03  2.05180E+03  9.37162E+03  1.26249E+02  5.08802E+03 -2.80099E+03  2.53352E+02
 -2.33791E+03 -1.04738E+03  3.19378E+03 -1.77899E+03  2.14301E+03 -4.30865E+03  3.25400E+03 -1.01853E+03
  2.49819E+03  3.49905E+03  1.70731E+03  2.78037E+03 -7.44609E+02  2.20158E+03  3.52019E+03 -2.24990E+03
  2.15475E+03 -2.87423E+03  6.22551E+03  2.04817E+03  3.37862E+03  5.48689E+03 -1.21815E+03  1.85429E+03
 -3.30993E+03  4.39334E+02 -3.13230E+03  2.59055E+03 -1.89464E+03 -1.16739E+03 -1.89858E+03 -7.60083E+02
  2.61690E+03 -5.02755E+03  3.92202E+03 -7.75423E+03  3.57859E+03  4.78328E+03  2.01739E+03  2.45065E+03
 -1.96722E+03  3.02225E+03 -7.81909E+03 -9.57064E+02 -1.24063E+03 -4.20443E+03 -1.38023E+03 -2.24142E+03
  7.77104E+02 -4.06586E+03 -1.26141E+02  4.83135E+03  2.35387E+01 -1.78446E+03  3.43900E+03  2.93393E+03
 -1.28051E+03 -2.39464E+03 -2.82143E+03  1.63867E+03  2.55165E+03 -2.46616E+03  1.91967E+03  1.09711E+02
  5.88780E+03 -1.17852E+03  6.31480E+02  7.30724E+02  9.49871E+01  3.97269E+03  3.65057E+02 -1.30591E+03
 -6.81518E+03  3.76535E+03 -5.14712E+03 -2.65174E+02 -5.15090E+03 -1.43493E+03  6.48261E+03  8.37425E+02
  3.88091E+03 -2.45845E+03  1.25337E+03  3.13336E+03 -1.30548E+03 -1.41473E+03 -2.43720E+03  1.39263E+03
  1.65471E+03 -2.25057E+03 -7.09079E+01  1.20441E+03 -2.54213E+03  1.82476E+03 -8.05218E+02  1.10280E+03
 -2.27825E+03  1.61379E+03 -1.11431E+03  1.07309E+03 -4.11155E+03 -2.01919E+03 -3.77458E+03  1.47915E+03
 -1.36398E+03 -5.81008E+03 -9.29196E+02 -5.09966E+03  3.91424E+03 -6.31702E+03  4.15658E+02 -3.47777E+03
  6.48692E+03 -3.47819E+03  7.33536E+03 -3.51802E+03 -4.60702E+03  2.48640E+03 -2.52080E+03  1.09190E+03
 -2.80370E+03 -1.45220E+03 -3.81660E+03 -6.39585E+02 -7.44612E+02  1.34932E+03 -2.12104E+02  1.66221E+03
 -4.36027E+03  2.93754E+03  1.26879E+03  2.74315E+03 -4.65351E+03 -1.51014E+03  3.29230E+03 -3.19631E+03
 -3.43797E+03 -4.08476E+03  3.85275E+03  1.93296E+02 -1.06252E+02 -3.89104E+02 -2.53624E+03  3.76925E+03
 -2.24081E+03  6.03787E+03 -2.04375E+03  1.70594E+03 -6.31449E+03 -1.26104E+01 -1.12107E+03 -4.24616E+03
 -7.01021E+02  5.30455E+02 -8.64985E+01  4.36417E+03 -1.17406E+03 -2.04100E+03 -1.98813E+03 -4.09124E+03
  6.61364E+02 -1.74918E+01 -5.02264E+03  5.29728E+03 -4.33918E+03 -1.44360E+03 -7.05895E+03  4.85615E+03
 -1.72012E+02  1.37092E+03  2.84176E+03  2.57319E+03  1.31372E+03  2.03291E+03  2.38400E+03  1.14366E+03
 -3.38562E+03  8.55653E+03  2.03902E+03 -2.30494E+03 -1.07409E+03 -7.10097E+03  3.15593E+03  8.23740E+02
 -2.59941E+03  9.73437E+02  2.32579E+03  1.07511E+03  1.96128E+03 -8.16704E+02 -3.14352E+03 -1.77966E+03
 -3.42664E+03  4.09379E+03  5.54777E+02 -2.49776E+02 -1.11746E+03  5.07334E+03 -4.27362E+03 -2.79412E+02
  5.66377E+03  2.24767E+03  1.03591E+03  3.62317E+03 -9.34522E+02  2.79306E+03 -1.94690E+03  1.49047E+03
 -4.01694E+03  2.97383E+03 -8.05119E+02  6.87288E+02  2.06475E+03  1.39123E+03 -3.51096E+03 -5.01781E+02
 -9.91467E+02 -5.87854E+03  1.56520E+02 -1.47053E+03 -2.45370E+03  3.36145E+03 -6.58347E+01  4.94438E+02
