 $NMID ID='MM_0lb_SNR50_13hz_g60_46.RAW', FMTDAT='(8E13.5)'
 TRAMP=1., VOLUME=1. $END
  3.14021E+05  1.57620E+03  3.40915E+05  2.50406E+05  8.81864E+04  3.40100E+05 -1.30657E+05  2.48391E+05
 -1.90700E+05  8.20691E+04 -1.08695E+05 -3.80985E+04  8.52918E+02 -4.76113E+04  5.30667E+04  9.73891E+02
  3.98992E+04  5.06784E+04 -1.54158E+04  7.22733E+04 -6.63928E+04  6.69895E+04 -8.70644E+04  2.76160E+04
 -8.38984E+04 -1.11274E+04 -5.69565E+04 -4.88241E+04 -1.90485E+04 -7.40098E+04  2.76570E+04 -4.45657E+04
  3.84937E+04  7.91106E+03  1.58171E+04  4.13395E+04 -4.05714E+04  4.92610E+04 -6.62834E+04  1.42461E+03
 -5.11886E+04 -5.42154E+04 -7.80478E+03 -8.21731E+04  4.04588E+04 -5.75269E+04  4.88732E+04 -1.96053E+04
  5.05348E+04  1.09743E+04  3.01089E+04  2.80245E+04  1.05205E+04  3.59605E+04 -8.68019E+03  2.46383E+04
 -1.95096E+04  8.75568E+03 -1.88525E+04 -5.39276E+03  8.24172E+03 -3.28138E+03  2.63396E+04  1.44713E+04
  5.12513E+03  3.42068E+04 -3.36877E+04  3.24441E+04 -6.43010E+04  4.61244E+03 -5.76934E+04 -4.33094E+04
 -1.17793E+04 -6.57698E+04  3.92717E+04 -4.39611E+04  5.83677E+04  2.75975E+03  3.49650E+04  3.39764E+04
 -9.48394E+03  3.59764E+04 -2.90833E+04  1.53111E+04 -3.29447E+04  3.26747E+03 -1.83857E+04 -1.46568E+04
 -9.52720E+03 -1.29664E+04  1.50162E+02 -1.42003E+04  1.35868E+04 -2.53976E+04  1.44938E+04 -1.06150E+04
  1.43517E+04  4.50531E+03 -1.10056E+04  1.34242E+04 -2.89788E+04 -1.23049E+04 -8.48697E+03 -3.79451E+04
  2.74114E+04 -4.81982E+04  5.24238E+04 -2.18457E+04  4.68207E+04  1.99072E+04  1.66079E+04  5.21871E+04
 -1.94354E+04  3.55423E+04 -2.56564E+04  6.77694E+03 -1.51271E+04 -3.00904E+04  2.66561E+04 -3.88960E+04
  4.61821E+04 -9.77840E+03  3.86215E+04  2.42900E+04  1.76064E+04  4.74678E+04 -1.01231E+04  5.23298E+04
 -3.54135E+04  4.14475E+04 -4.61613E+04  6.78401E+03 -4.79366E+04 -1.86675E+04 -2.43209E+04 -4.22357E+04
  4.08838E+03 -3.73929E+04  3.06207E+04 -1.93216E+04  2.91313E+04  1.15293E+04  4.11000E+03  2.02339E+04
 -1.04393E+04  1.30477E+04 -9.00549E+03 -7.96444E+03  5.08570E+03 -1.32940E+04  2.27418E+04  4.42138E+03
  1.35095E+04  1.98359E+04 -7.97070E+03  2.27630E+04 -2.39715E+04  1.16951E+04 -3.49091E+04 -4.80889E+03
 -2.10937E+04 -1.67415E+04 -3.16335E+03 -1.97169E+04  2.97797E+03 -2.36117E+04  1.72470E+04 -2.26676E+04
  2.97366E+04 -1.22158E+04  2.90619E+04  3.95297E+03  2.15328E+04  1.65616E+04  7.28878E+03  4.06647E+04
 -1.86936E+04  3.23672E+04 -2.90395E+04  1.14963E+04 -2.47630E+04 -7.55778E+03 -6.98692E+03 -9.56344E+03
  2.23536E+03 -2.35175E+03 -6.13136E+03  5.95565E+03 -2.09718E+04  5.21431E+03 -1.47975E+04 -9.32441E+03
 -1.30895E+04 -2.02358E+04  1.22969E+03 -2.92416E+04  1.49510E+04 -1.30361E+04  2.22567E+04  4.26035E+03
  1.06607E+04  1.25479E+04 -3.76835E+03  1.72036E+04 -1.50224E+04  9.91191E+03 -2.31154E+04 -7.21142E+03
 -1.28702E+04 -2.12326E+04 -8.93461E+02 -2.42103E+04  1.00407E+04 -2.20580E+04  2.18299E+04 -1.27499E+04
  1.81799E+04  5.73180E+03  1.48946E+04  3.46342E+03  4.64911E+03  3.43411E+03  7.87759E+03 -1.59516E+03
  2.06794E+04  5.48881E+03  2.09298E+04  1.13980E+04  1.59149E+04  3.59928E+04 -5.40068E+02  3.65557E+04
 -1.84044E+04  2.85248E+04 -3.56137E+04  1.55638E+04 -3.81286E+04  6.73024E+02 -3.10581E+04 -2.09518E+04
 -1.01670E+04 -3.32113E+04  1.27363E+04 -2.56146E+04  1.67264E+04 -1.34749E+04  2.63933E+04  8.27415E+03
  9.13858E+03  1.27799E+04 -1.45974E+04  1.85726E+04 -1.46340E+04  3.59760E+03 -1.48425E+04 -1.24668E+04
 -2.20341E+03 -1.99217E+04  1.47397E+04 -1.50404E+04  1.83758E+04 -5.79968E+03  6.43357E+03  5.42864E+03
 -8.60523E+03  3.07877E+03 -8.41881E+03 -9.83444E+03  4.53152E+02 -1.11525E+04  9.35494E+03 -1.23733E+04
  2.25070E+04 -9.02444E+03  1.74555E+04 -1.22878E+03  1.50907E+04  1.77290E+04  1.04493E+04  2.23908E+04
 -4.68482E+03  2.93877E+04 -1.65697E+04  2.22657E+04 -1.68391E+04  4.16110E+03 -1.05362E+04 -5.67718E+03
 -2.00341E+03 -8.79606E+03 -4.25768E+03  2.69968E+02 -3.31895E+03  5.62553E+03 -4.53478E+03  3.97642E+03
 -6.23587E+03 -4.59556E+03 -1.01413E+04 -1.21692E+04 -7.34245E+03 -1.89694E+04  9.17520E+03 -8.87471E+03
  1.20421E+04 -4.34805E+03  8.11746E+03 -1.98781E+03  2.16741E+03  3.77312E+03 -5.82789E+03  3.09562E+01
 -7.56000E+03 -4.14592E+03  2.35447E+03 -1.21411E+04  1.12620E+04 -1.53373E+04  1.66389E+04 -1.08257E+04
  2.22393E+04  2.47394E+02  9.12068E+03  1.04072E+04  3.65080E+03  1.44450E+04 -8.90380E+03  1.64437E+04
 -1.31868E+04  5.26447E+03 -5.14527E+03 -3.27433E+03 -1.32707E+03 -5.87925E+03  8.84478E+03 -2.96658E+03
  9.39758E+03  5.15790E+03  4.26464E+02  9.46526E+03 -5.36706E+03  1.21041E+04 -1.39097E+04  1.49408E+03
 -6.18933E+03 -1.17608E+04 -3.17944E+03 -1.08985E+04  6.19651E+03 -3.05117E+03  1.01618E+04  2.21497E+03
  6.39598E+03  1.08114E+04 -7.88221E+03  1.28925E+04 -1.35926E+04  2.62118E+03 -9.57549E+03 -4.39456E+03
 -6.51160E+03 -8.40214E+03  8.04113E+03 -1.38994E+04  8.05454E+03 -1.05560E+04  1.06930E+04  1.20000E+03
  4.11876E+03  9.21046E+03 -3.92076E+03  8.40753E+03 -9.39808E+03  1.36831E+04 -1.34421E+04 -3.28709E+03
 -1.10520E+04 -8.58923E+03 -7.08441E+03 -1.08172E+04  5.00067E+01 -8.94166E+03  5.09560E+03 -1.16988E+03
  6.24587E+03  1.17669E+03  3.27958E+02  3.76683E+03 -2.87791E+03 -2.65397E+03  2.21263E+03 -8.97492E+03
  8.34248E+03 -3.60172E+03  1.14210E+04 -2.84705E+03  9.89392E+03  5.87467E+03  1.02987E+04  9.95908E+03
  1.40387E+03  1.28103E+04 -9.22419E+03  1.07244E+04 -2.10069E+04  3.54919E+03 -1.75635E+04  1.18360E+03
 -4.56483E+03 -1.48368E+04  3.26756E+03 -5.47671E+03  5.42681E+03  4.25260E+03  6.30269E+03 -2.32595E+03
  1.32884E+03  1.11181E+03  6.11908E+03 -6.74239E+02  2.62913E+03 -3.16832E+03  6.41194E+03 -2.30725E+03
  8.12844E+03  2.30696E+03  5.08225E+03  7.84238E+03 -1.15970E+03  4.35019E+03 -6.53771E+03  8.10613E+03
 -7.06473E+03  1.22791E+03 -8.95147E+02 -4.78374E+03 -4.68326E+03 -8.99175E+03  7.14153E+03 -1.48390E+04
  6.17038E+03 -3.98258E+03  1.52978E+04 -6.14864E+02  1.32282E+04  5.31983E+03  4.74272E+03  1.60001E+04
 -3.67269E+03  7.87314E+03 -8.86798E+03  2.08061E+03 -3.46878E+03 -4.85050E+03 -6.37374E+03  3.67405E+02
  2.37992E+03  7.95581E+00 -3.43588E+03  2.85271E+03 -5.34562E+03 -1.04028E+03 -5.73124E+03 -2.64095E+03
 -7.22270E+03 -6.59586E+03 -3.01076E+03 -1.00968E+04  8.32625E+03 -1.11466E+04  7.75560E+03 -2.42408E+03
  9.55207E+03  3.38639E+03  1.42641E+03  6.47567E+03  3.80161E+02  1.35165E+04 -8.51913E+03  1.15029E+04
 -5.55136E+03  1.06597E+03 -6.67528E+03 -6.04036E+03 -9.70157E+02 -4.24187E+03  2.52705E+03 -6.16571E+03
  6.13464E+03 -3.04953E+03  5.65225E+03  5.28709E+03  9.16891E+02  1.73601E+03 -2.26618E+03  1.86617E+03
  4.62610E+03 -1.68377E+03  1.14017E+03  7.98554E+02  5.48778E+03  3.81264E+03  3.43742E+03  6.91918E+03
 -5.35014E+03  6.41936E+03 -4.77104E+03  4.00294E+03 -1.16077E+04  2.17975E+03 -1.19739E+04  4.05705E+03
 -2.63018E+03 -5.17075E+03  2.30038E+02 -9.71136E+03  1.60386E+03 -1.01778E+04  7.50269E+03 -4.45108E+03
  4.50681E+03  6.00351E+03 -3.74091E+03  7.72631E+03 -2.39905E+03  7.35494E+03 -1.84169E+03 -1.68986E+03
 -2.23816E+03 -2.97231E+03  2.54534E+03 -4.52457E+03  8.02082E+03 -7.68684E+03  4.17434E+03  1.17824E+03
  1.12818E+03  4.13591E+03 -1.60092E+01 -3.33859E+02 -1.04952E+03  4.14164E+03  3.43351E+03 -2.62405E+03
 -1.16521E+03  6.12565E+02  6.57656E+03  2.44075E+03  4.99766E+03  7.64809E+03 -3.32201E+03  8.21779E+03
  3.62906E+03  1.32457E+04 -6.12169E+03  1.70580E+03  1.78552E+02  1.64752E+03 -2.10926E+03  3.38765E+03
 -4.41176E+03 -2.86625E+03 -1.59760E+03 -3.72604E+03  3.26293E+03  3.41549E+03  2.34594E+03  2.74510E+03
 -5.63765E+03  1.57893E+03 -7.64538E+03 -6.37853E+03 -6.78945E+03 -6.24023E+03 -1.15911E+03 -5.81803E+03
  3.02609E+03 -5.23793E+02  4.78008E+03  2.70282E+03  2.17005E+03  7.80582E+02  4.71361E+02 -1.80404E+03
 -5.73732E+02 -1.66760E+02  7.23706E+02  9.30969E+01 -4.00043E+03 -1.72765E+03  5.80467E+03 -6.79485E+03
  8.73391E+03  1.13084E+03  7.56847E+03 -3.67146E+02  6.14405E+03  9.12804E+03  3.78709E+02  5.34628E+03
 -3.56058E+03  4.30734E+03 -7.90420E+03 -4.14431E+02 -6.45821E+03 -8.13340E+03 -1.14433E+03 -6.47083E+02
  3.92474E+03 -5.71920E+03  4.82341E+03 -2.77705E+03 -3.63111E+02  4.92434E+03  3.71808E+03  3.91815E+03
 -3.58562E+03  3.56121E+03  8.36320E+02  4.90749E+03 -1.18132E+03  1.13144E+03 -7.20488E+02  4.07327E+03
 -6.83410E+02  4.87605E+03 -7.60091E+03 -3.70644E+02 -5.32321E+03  3.03735E+03 -6.33862E+03 -4.39483E+03
  9.31739E+02 -3.85598E+03  2.78093E+03 -7.40414E+03  4.20032E+03  6.73499E+01  5.81196E+03 -7.47939E+03
  9.57456E+03  6.29630E+03  1.19036E+04  6.31153E+03 -4.71826E+03  8.36388E+03 -8.65486E+03 -2.60552E+02
  1.81413E+03  9.04748E+02 -3.81811E+03  2.38956E+03  6.25017E+03 -2.82675E+03 -1.83128E+03  4.92820E+02
 -9.05856E+02 -4.86766E+03 -3.43470E+03  2.08649E+03  4.63690E+03 -2.91719E+03  8.19195E+02 -2.59449E+03
  2.52766E+03 -3.88964E+03  5.40915E+02 -1.16496E+03  7.07919E+03  2.63262E+03  3.32861E+03  8.33220E+03
 -5.39833E+03  8.81504E+03 -7.60403E+03  7.81418E+03 -8.50958E+03 -3.04522E+03 -5.14386E+03 -7.66522E+03
 -3.17074E+03 -3.29803E+03  2.32146E+03 -5.17295E+03  9.15306E+02 -5.46087E+03  4.54264E+03  4.13175E+03
  6.28080E+03 -1.54216E+02  2.51470E+03 -4.48647E+03 -4.80559E+03 -9.23115E+02 -5.78922E+01  9.10290E+02
  1.22838E+03  2.03211E+03  3.10028E+03 -6.37496E+03 -3.42720E+02  3.65406E+03 -2.07678E+03  5.79624E+03
 -3.90979E+03 -3.63070E+03 -9.64330E+02 -2.84154E+03  1.55904E+03 -2.61765E+03 -7.96003E+01 -4.69962E+03
  2.66578E+03 -5.67262E+03  2.25621E+02 -9.68644E+02  6.14011E+03 -3.05686E+03 -1.52993E+03  8.68082E+01
  1.36593E+03 -7.34909E+02 -2.18885E+03  1.55545E+03 -1.24378E+03  1.45182E+03  2.16670E+03  1.53216E+03
  1.13059E+03 -4.71230E+03 -3.53356E+03  2.43077E+03 -4.70998E+03 -3.10987E+03 -9.78696E+02  2.04493E+03
 -5.85508E+03  7.55511E+02  4.50181E+03 -6.68944E+03  1.74638E+03 -3.05570E+03  3.29776E+03 -4.99001E+03
 -3.40657E+03 -1.61308E+03  2.57454E+03  2.77237E+03 -3.35942E+03 -7.06732E+02 -2.30428E+03  9.90219E+02
