 $NMID ID='MM_0lb_SNR50_11hz_g55_88.RAW', FMTDAT='(8E13.5)'
 TRAMP=1., VOLUME=1. $END
  3.10795E+05 -6.09232E+02  3.37290E+05  2.49779E+05  8.65437E+04  3.35016E+05 -1.29344E+05  2.58498E+05
 -1.89381E+05  8.04899E+04 -1.12613E+05 -3.32785E+04  3.34469E+03 -5.09601E+04  5.50120E+04  3.37617E+02
  3.44026E+04  4.86220E+04 -1.97041E+04  7.33025E+04 -6.02457E+04  6.68054E+04 -8.88328E+04  3.80581E+04
 -8.48166E+04 -1.05313E+04 -5.90292E+04 -5.27163E+04 -1.39589E+04 -6.91604E+04  2.63442E+04 -4.89061E+04
  4.14641E+04  4.88436E+03  1.23203E+04  4.69332E+04 -3.03074E+04  4.91523E+04 -6.77559E+04  5.61619E+03
 -5.63615E+04 -5.45476E+04 -1.25192E+04 -8.00542E+04  3.91033E+04 -6.23053E+04  5.30565E+04 -1.22467E+04
  4.48256E+04  1.68026E+04  3.07416E+04  2.47113E+04  1.58938E+04  3.27055E+04 -8.53992E+03  2.65521E+04
 -2.24868E+04  1.21075E+04 -2.13106E+04 -6.53000E+03  3.30361E+03 -8.05170E+03  2.21910E+04  1.83182E+04
  8.42036E+03  3.97900E+04 -3.15435E+04  3.51491E+04 -6.57156E+04  3.75809E+03 -5.89819E+04 -4.91337E+04
 -9.85321E+03 -6.56489E+04  3.78930E+04 -4.04864E+04  6.28111E+04 -4.33783E+03  3.56993E+04  3.41137E+04
 -7.13304E+03  3.97039E+04 -3.44026E+04  2.58741E+04 -3.78130E+04 -4.06580E+03 -1.50238E+04 -9.98580E+03
 -1.50829E+04 -1.77664E+04 -1.44017E+03 -1.97806E+04  4.82129E+03 -1.96853E+04  1.48346E+04 -1.44429E+04
  6.31124E+03  2.79759E+03 -5.52671E+03  1.14708E+04 -1.78234E+04 -8.92310E+02 -3.48781E+03 -3.76235E+04
  3.04517E+04 -4.95729E+04  4.62246E+04 -2.38731E+04  3.91548E+04  1.79756E+04  1.65183E+04  4.46271E+04
 -1.53496E+04  3.87707E+04 -2.71752E+04 -7.12847E+02 -1.08029E+04 -2.92239E+04  2.34618E+04 -4.03484E+04
  4.45569E+04 -1.08848E+04  4.09244E+04  2.62797E+04  1.67339E+04  4.80618E+04 -4.10676E+03  5.63061E+04
 -3.67411E+04  3.79083E+04 -4.47148E+04  4.53652E+03 -4.45437E+04 -1.91202E+04 -1.88878E+04 -3.98854E+04
  8.57923E+03 -4.15209E+04  3.45302E+04 -1.72075E+04  3.51324E+04  9.71731E+03  9.35580E+03  2.56405E+04
 -1.53085E+04  4.62632E+03 -1.47095E+04 -1.20532E+04  3.58191E+03 -1.90770E+04  2.15752E+04  7.56681E+03
  2.11809E+04  2.78901E+04 -6.06169E+03  2.86231E+04 -2.55225E+04  1.48401E+04 -2.90673E+04  1.79817E+03
 -2.44565E+04 -1.89032E+04 -1.16870E+04 -2.43837E+04  1.00466E+04 -2.09823E+04  1.95877E+04 -2.32594E+04
  2.54614E+04 -1.50295E+04  3.40240E+04  3.86130E+03  2.85783E+04  2.26587E+04  1.60036E+03  4.13794E+04
 -2.32508E+04  3.63488E+04 -2.55165E+04  1.28644E+04 -2.15154E+04 -6.94850E+03 -6.15251E+03 -1.48518E+04
  5.51737E+02  1.43392E+03 -9.33991E+03  5.56065E+03 -2.24115E+04  1.55059E+03 -1.57003E+04 -9.13838E+03
 -8.02389E+03 -2.14931E+04  5.76653E+03 -2.69839E+04  1.96076E+04 -1.70507E+04  2.15043E+04 -1.68459E+02
  1.09433E+04  1.95124E+04 -5.13764E+03  1.79990E+04 -1.76359E+04  9.72667E+03 -2.15040E+04 -5.92294E+03
 -1.68526E+04 -2.46246E+04  9.41384E+02 -2.62475E+04  1.37764E+04 -1.99509E+04  2.15653E+04 -9.65403E+03
  2.43443E+04  5.14804E+03  1.13735E+04  3.25224E+03  8.17052E+03 -1.83059E+03  1.49658E+04 -1.51099E+03
  2.15240E+04  3.57785E+03  2.41760E+04  1.52533E+04  1.38624E+04  3.57993E+04 -3.69220E+02  4.25833E+04
 -2.67963E+04  3.22083E+04 -3.56118E+04  1.97816E+04 -4.39075E+04 -6.27996E+02 -3.18301E+04 -2.39242E+04
 -1.66166E+04 -3.91824E+04  1.25014E+04 -2.68981E+04  2.40434E+04 -1.72976E+04  2.38031E+04  3.52739E+03
  8.14645E+03  1.49887E+04 -1.40073E+04  1.58560E+04 -1.56869E+04  3.02626E+03 -1.79197E+04 -7.92350E+03
 -1.19399E+03 -1.79891E+04  9.93385E+03 -1.06320E+04  1.53272E+04 -6.91102E+02 -1.55552E+02  9.01703E+03
 -8.67913E+03  5.87976E+03 -7.91879E+03 -3.32890E+03  4.16561E+02 -1.80838E+04  1.01328E+04 -1.38452E+04
  1.89532E+04 -1.09327E+04  1.54609E+04  3.97192E+03  1.39332E+04  1.25434E+04  9.08593E+03  2.55649E+04
  5.25632E+03  2.78845E+04 -1.27120E+04  1.48528E+04 -2.79146E+04  5.31408E+02 -1.13963E+04 -8.83501E+03
 -9.03595E+03 -8.94449E+03 -1.46787E+03 -1.52543E+03  2.89602E+02  1.70648E+03 -5.51359E+03  4.62417E+03
 -9.28600E+03 -1.32902E+02 -1.21405E+04 -1.28909E+04 -4.52398E+03 -1.88215E+04  9.23238E+03 -1.61854E+04
  1.26086E+04  1.65067E+03  1.27920E+04  3.27707E+03 -3.11036E+03  8.43295E+03 -8.53641E+03 -2.17782E+03
 -7.69016E+03 -1.25173E+04 -3.18854E+02 -1.20428E+04  6.61286E+03 -1.37082E+04  1.93649E+04 -3.32910E+03
  1.96073E+04 -5.86239E+03  2.00874E+04  1.20572E+04  5.07983E+03  1.50848E+04 -1.27476E+04  1.14179E+04
 -1.24904E+04  5.11207E+03 -7.55796E+02 -1.89213E+03  4.98411E+03 -5.83680E+03  1.12192E+04  2.76067E+03
  7.94891E+03  8.05191E+03 -8.33093E+02  1.43910E+04 -3.93909E+03  1.27759E+04 -9.35171E+03  4.16066E+03
 -1.06054E+04 -3.81564E+03  2.49984E+03 -1.24909E+04  5.41292E+03 -2.55649E+03  9.18522E+03  8.01656E+02
  3.11585E+03  1.06093E+04 -8.53346E+03  1.49083E+04 -1.09645E+04  3.61067E+03 -7.92354E+03 -2.87832E+03
 -4.30710E+03 -9.39605E+03  5.49030E+03 -1.58123E+04  1.72837E+04 -3.17173E+03  1.53053E+04  4.71906E+03
  1.14880E+04  1.09759E+04 -1.93763E+03  1.81073E+04 -1.11948E+04  1.26034E+04 -1.09262E+04  8.37811E+02
 -9.03172E+03 -1.06409E+04 -2.39590E+03 -1.10138E+04  1.84012E+02 -7.09458E+03  9.54782E+03  3.16162E+03
 -5.30368E+02  4.47935E+03 -6.70863E+03 -2.88418E+02  1.26264E+03 -9.15585E+03  3.72523E+03 -9.30623E+03
  6.66451E+03 -5.69268E+03  1.46732E+04  1.79878E+02  1.33082E+04  5.35641E+03  7.72002E+03  1.19765E+04
 -1.33752E+03  1.99326E+04 -1.58486E+04  1.31679E+04 -2.67108E+04  4.53697E+03 -1.94096E+04 -5.77890E+03
 -4.62428E+03 -1.80794E+04  2.81657E+03 -8.47849E+03  7.14458E+03 -3.07750E+03  7.27776E+03 -4.70776E+03
  3.43140E+02 -5.19829E+02  4.46292E+03 -5.03637E+03  5.64734E+03 -6.61152E+02  6.29883E+03 -4.66035E+03
  6.58659E+03  3.45526E+03  1.45040E+03  9.82034E+03 -2.63900E+03  1.15918E+04 -1.33338E+04  1.15736E+04
 -1.19871E+04  4.14331E+02 -1.19224E+04 -1.14830E+04 -8.22342E+02 -1.35342E+04  5.99813E+03 -1.09686E+04
  1.49505E+04 -6.34762E+03  1.60298E+04  3.51560E+02  2.50968E+03  1.17392E+04  4.27998E+02  1.24618E+04
 -2.83543E+03  1.74495E+04 -6.71573E+03  5.10297E+03 -1.01690E+04 -2.59933E+02 -2.70224E+03 -1.61638E+03
 -5.12249E+01  1.82281E+02 -1.88660E+03  7.48568E+03 -5.00119E+03  1.84771E+03 -2.42622E+03  1.67919E+03
 -6.99876E+03 -4.98873E+03  4.54275E+03 -1.31410E+04  8.27310E+03 -9.68030E+03  1.67815E+04 -5.74349E+03
  1.02818E+04  4.55006E+03  7.21867E+03  8.95936E+03 -9.39022E+02  1.25338E+04 -1.25764E+04  8.38697E+03
 -1.49268E+04  1.83013E+03 -1.23513E+04 -1.19381E+04 -2.34897E+03 -9.56504E+03  4.64911E+03 -1.02655E+04
  3.01394E+03 -4.25736E+03  9.39519E+03  3.80557E+03  3.73452E+03  2.10162E+03 -1.22689E+03 -2.13621E+03
  2.22675E+03  5.57014E+03 -2.24547E+03  1.08823E+03  1.69830E+03  1.03797E+04 -4.86943E+02  3.99965E+03
 -6.32740E+03  1.01478E+04 -1.26891E+04  5.31253E+03 -1.18165E+04  8.39352E+03 -1.46722E+04 -3.12095E+03
 -3.91621E+03 -1.07460E+04 -5.92623E+02 -9.89006E+03  8.41157E+03 -1.06416E+04  1.26797E+04 -6.92042E+03
  9.11807E+03  1.56357E+03  3.24559E+03  9.91512E+03  1.05099E+03  5.48139E+03 -5.31325E+03 -3.70969E+03
  1.69322E+03 -3.36141E+03  3.18417E+03 -8.64487E+03  7.24433E+03  1.03214E+03  2.93146E+03  6.73013E+03
  1.00789E+04  5.13469E+02  2.74616E+02  3.87709E+02 -4.18729E+03 -2.61354E+03 -2.37623E+03  3.87035E+03
  1.65685E+03  4.19896E+03  8.45320E+02  2.43832E+03  1.09755E+04  6.17981E+02  7.06420E+02  1.03641E+04
 -1.13093E+04  7.61602E+03 -1.14751E+04  5.18342E+02 -9.30756E+03 -1.73376E+03 -2.82935E+03 -3.40819E+02
 -4.33553E+03 -1.27247E+03 -9.79105E+02 -4.37427E+03  1.59595E+02  3.89984E+01 -5.22387E+02  5.49753E+03
 -6.07715E+03  7.85368E+03 -1.14683E+04 -2.60236E+03 -9.31533E+03 -6.43237E+03  2.49311E+03 -1.20073E+03
  8.80868E+03 -1.30284E+02  6.10283E+03 -9.13267E+03  8.37251E+03  2.98636E+03  4.60529E+03  5.23599E+03
 -3.63785E+02  1.01443E+03 -7.12683E+03 -2.16049E+03 -1.44526E+03 -7.45281E+03  6.20051E+03 -6.68203E+03
  6.64213E+03 -1.21100E+03  3.17198E+03  2.92626E+03  4.31887E+03  7.82399E+03  1.01786E+03  1.09755E+04
 -6.07586E+03  5.82291E+03 -9.20120E+03 -2.56859E+03 -3.74022E+03 -9.02698E+03  2.71096E+03 -8.01171E+03
  6.92287E+03  9.30061E+02  1.73039E+03  6.46349E+03  5.01391E+03  1.13718E+04  1.78167E+03  2.93455E+03
 -8.16298E+02 -1.99271E+03  1.13931E+03 -5.05487E+02 -2.52238E+03 -1.10125E+02  1.46076E+02 -5.46958E+03
 -5.13816E+03 -8.57108E+02 -7.23960E+03  5.35847E+03 -1.31328E+04  2.56829E+02 -5.26247E+03 -2.91796E+03
 -1.58487E+03 -1.11506E+04 -4.29946E+03 -8.20435E+03  1.06763E+04 -8.53190E+03  1.87266E+04 -2.66531E+03
  8.28983E+03  4.98269E+03  6.39716E+03  5.09594E+03 -1.85147E+03  7.02427E+03 -3.45723E+03  2.41608E+03
 -4.45686E+03  1.18973E+03 -3.93136E+03 -1.86979E+03  1.12445E+02 -4.67222E+01 -2.85276E+03  1.02816E+01
 -3.61455E+03  1.63146E+03  4.10894E+02 -1.47528E+03  3.19990E+03 -4.40034E+03  5.87875E+03 -1.05829E+03
 -4.25770E+03  2.60835E+03  9.41153E+02 -3.69196E+03  5.25943E+03  4.87488E+03  8.54447E+02  4.04354E+03
 -8.35616E+03  8.00137E+03 -1.10374E+04  8.05938E+03 -2.97946E+03  7.34457E+03 -5.65288E+03 -1.31480E+01
 -5.69704E+03 -3.19451E+03  2.26946E+03 -5.07523E+03  5.36093E+03 -3.63378E+03 -1.55977E+02 -4.74266E+03
  6.72259E+03  6.49744E+03  3.41569E+02  8.87417E+02  2.20705E+03  2.72518E+03  2.67886E+02 -1.61391E+03
  3.51850E+03  7.56184E+02 -1.11271E+03  5.27844E+03  4.45910E+03  8.58969E+02  8.71535E+03 -3.34499E+03
 -1.06823E+03  7.95516E+02 -5.98869E+03  2.00526E+03  1.37679E+03 -4.30281E+03  4.83228E+02 -1.41328E+04
  3.18607E+03 -3.45623E+03  8.97000E+03 -3.07362E+03  6.08892E+03  7.44359E+03  3.33158E+03  1.86520E+03
 -8.36009E+02  2.42519E+03 -4.59755E+03  7.22213E+02 -1.12723E+04  1.84481E+03 -4.40481E+03 -9.62458E+02
  2.19571E+03  3.31168E+03  1.28726E+03 -1.53579E+03  1.97985E+03 -4.88518E+02 -2.16441E+03 -2.98578E+03
 -6.37260E+03 -5.77274E+03  2.31297E+03 -1.04549E+03  3.96853E+03 -7.14409E+02  3.85334E+03 -1.83597E+03
  2.08576E+03 -3.15386E+02  3.56269E+03  3.45028E+02 -1.35697E+03 -1.83136E+03 -3.17302E+03  5.52869E+03
