 $NMID ID='MM_0lb_SNR50_10hz_g45_78.RAW', FMTDAT='(8E13.5)'
 TRAMP=1., VOLUME=1. $END
  3.14011E+05 -3.93223E+03  3.32588E+05  2.51824E+05  8.57894E+04  3.41848E+05 -1.34011E+05  2.56269E+05
 -1.89800E+05  9.10286E+04 -1.14894E+05 -3.94541E+04 -2.47344E+03 -5.02298E+04  5.30680E+04 -2.40021E+03
  3.53521E+04  5.19270E+04 -1.61142E+04  8.04798E+04 -5.85620E+04  6.27938E+04 -8.16382E+04  3.21954E+04
 -9.02981E+04 -1.31563E+04 -5.91123E+04 -5.08915E+04 -1.60572E+04 -7.08469E+04  2.82560E+04 -5.12559E+04
  4.50999E+04 -2.61010E+03  1.68856E+04  5.19916E+04 -3.73487E+04  4.92227E+04 -6.91132E+04 -3.29349E+03
 -5.51402E+04 -5.41204E+04 -6.89179E+03 -7.10130E+04  3.57745E+04 -5.45320E+04  4.83970E+04 -2.14368E+04
  4.38370E+04  1.59986E+04  3.33375E+04  2.43071E+04  1.98786E+04  2.99994E+04 -6.37273E+03  2.67922E+04
 -1.97009E+04  6.22671E+03 -1.68192E+04 -1.17519E+04  8.53955E+03 -3.22507E+03  2.25802E+04  1.35571E+04
  1.24253E+04  3.74654E+04 -3.15459E+04  3.49740E+04 -6.89630E+04  4.30997E+02 -5.52096E+04 -4.99124E+04
 -1.60991E+04 -6.02726E+04  3.94338E+04 -4.99112E+04  5.85146E+04 -5.79433E+03  3.93684E+04  3.21005E+04
 -8.60127E+03  3.10457E+04 -2.82010E+04  1.67780E+04 -4.02447E+04 -1.61320E+03 -2.03950E+04 -1.37027E+04
 -6.69146E+03 -1.24915E+04  3.74776E+03 -1.87908E+04  9.07520E+02 -2.87146E+04  8.52629E+03 -9.75354E+03
  1.86650E+04  5.05868E+03 -7.14186E+03  1.66135E+04 -2.50628E+04 -5.27226E+03 -9.52349E+03 -3.28209E+04
  2.35742E+04 -4.55110E+04  5.09802E+04 -1.97224E+04  4.77763E+04  2.09976E+04  1.91503E+04  4.75248E+04
 -1.99406E+04  3.73662E+04 -2.92711E+04  6.29697E+02 -1.58341E+04 -3.04883E+04  2.43231E+04 -3.61088E+04
  4.44092E+04 -6.70934E+03  3.98301E+04  2.57201E+04  1.73175E+04  5.45972E+04 -6.22922E+03  5.37477E+04
 -3.93991E+04  4.24563E+04 -4.54668E+04  1.56198E+04 -4.88033E+04 -1.67900E+04 -2.42931E+04 -3.79113E+04
  9.04021E+03 -3.72166E+04  3.17683E+04 -2.23109E+04  2.77011E+04  9.22909E+03  1.11496E+04  2.86594E+04
 -1.44952E+04  6.01647E+02 -7.91953E+03 -7.91122E+03  6.73651E+03 -1.11544E+04  1.90575E+04  5.27075E+03
  1.65200E+04  2.34261E+04  1.41790E+03  2.07990E+04 -1.97552E+04  1.27228E+04 -3.60112E+04 -1.51886E+03
 -2.44761E+04 -2.60918E+04 -1.24209E+04 -2.15737E+04  2.65918E+03 -2.69588E+04  1.18016E+04 -2.46614E+04
  2.54547E+04 -1.43229E+04  3.81003E+04  6.49480E+03  2.59923E+04  2.64338E+04  6.67686E+03  3.90969E+04
 -2.18939E+04  3.24625E+04 -2.72217E+04  4.90588E+03 -2.16788E+04 -1.09835E+04 -1.02640E+04 -9.93907E+03
 -3.58037E+02 -3.99493E+03 -1.04137E+04  5.48760E+03 -1.75227E+04  1.33308E+03 -1.66713E+04 -7.59458E+03
 -1.41323E+04 -2.14219E+04  8.41580E+03 -2.20810E+04  1.66266E+04 -1.93677E+04  2.27603E+04 -5.70694E+02
  1.45895E+04  1.66761E+04 -7.71378E+03  2.14546E+04 -1.35302E+04  1.30483E+04 -2.59258E+04 -5.00657E+03
 -1.76927E+04 -1.80760E+04 -9.58657E+02 -2.02422E+04  1.31901E+04 -2.41289E+04  2.11748E+04 -1.09758E+04
  2.34257E+04 -9.73131E+03  6.92506E+03  3.07090E+03  1.22214E+04  2.47322E+03  1.10117E+04 -4.46570E+03
  1.47826E+04  3.99029E+03  2.21073E+04  1.80144E+04  1.97513E+04  3.79291E+04 -2.71854E+03  4.29452E+04
 -2.02653E+04  3.60480E+04 -3.72804E+04  1.48787E+04 -3.75154E+04 -2.00983E+03 -3.46262E+04 -2.16643E+04
 -1.48562E+04 -4.08256E+04  9.11357E+03 -3.42060E+04  2.86269E+04 -1.87332E+04  1.85086E+04  5.59117E+03
  1.09215E+04  1.69112E+04 -1.53018E+04  1.50022E+04 -2.03277E+04  4.12405E+03 -1.76495E+04 -1.26427E+04
 -2.61605E+03 -2.13268E+04  8.29683E+03 -1.23533E+04  1.57226E+04  7.31795E+02  3.76680E+03  6.91959E+03
 -6.35660E+03  3.07374E+03 -1.01569E+04 -8.68587E+03 -2.66675E+03 -2.30182E+04  6.40437E+03 -1.87605E+04
  1.84952E+04 -1.16198E+04  2.53632E+04 -1.07336E+03  2.53032E+04  1.87197E+04  8.05054E+03  2.52543E+04
 -3.09614E+03  2.35213E+04 -1.81589E+04  8.55238E+03 -2.50012E+04  5.49090E+03 -2.03209E+04 -7.12169E+03
 -3.59052E+03 -7.95771E+03 -7.14759E+03 -7.93386E+02 -8.19726E+02  6.45663E+03 -1.22266E+04  1.71426E+03
 -2.04531E+04 -1.76419E+01 -1.67657E+04 -1.44504E+04 -5.41223E+03 -1.72210E+04  6.00549E+03 -1.18464E+04
  1.12306E+04 -5.60722E+03  1.18448E+04  6.68021E+02 -8.73327E+02  7.14278E+03 -2.41530E+03 -2.39185E+03
 -8.08295E+03 -6.80389E+03 -2.44861E+03 -1.65732E+04  9.85405E+03 -1.18345E+04  2.15920E+04 -8.01195E+03
  1.92355E+04 -1.14070E+03  1.26092E+04  1.49428E+04  4.11056E+03  2.48779E+04 -1.28197E+04  1.37358E+04
 -1.03728E+04  4.91114E+03 -4.31628E+03 -1.89699E+03 -5.04548E+03 -4.92576E+03  1.38750E+04  3.23190E+03
  1.20665E+04  3.08121E+03  1.79417E+03  8.11990E+03 -5.42377E+03  9.25003E+03 -1.43053E+04 -5.62256E+02
 -1.35869E+04 -8.97500E+03 -4.92493E+03 -1.41916E+04  6.69437E+03 -6.92197E+03  7.31739E+03 -8.72379E+02
  3.95872E+03  1.26469E+04 -5.07403E+03  1.04436E+04 -1.84961E+04  6.41592E+03 -9.60946E+03 -8.42394E+03
 -1.11593E+04 -1.80014E+04 -4.46904E+03 -1.21151E+04  1.07877E+04 -3.82693E+03  2.38928E+04  2.96105E+03
  8.99607E+03  9.71291E+03  4.39523E+03  1.38042E+04 -7.39938E+03  9.97608E+03 -8.56991E+03  4.53346E+02
 -5.90132E+03 -6.78150E+03 -7.66508E+02 -1.28297E+04  7.18667E+03 -6.52239E+03  2.96479E+03 -1.18754E+03
  5.60891E+03  1.85729E+03 -4.01184E+03  1.59862E+03 -7.16797E+02  2.42291E+03 -1.72426E+03 -5.83199E+03
  7.51721E+03 -3.57519E+03  1.26900E+04  6.48115E+03  1.81256E+04  8.30981E+03  1.12490E+04  1.77722E+04
 -8.76656E+02  1.83792E+04 -1.36139E+04  1.24178E+04 -2.26594E+04  3.29973E+03 -2.55347E+04 -6.03944E+03
 -1.08625E+04 -1.04781E+04  2.05398E+03 -1.58919E+04 -1.26060E+03 -3.82141E+03  7.53573E+03 -1.92318E+03
  8.15921E+02 -3.66151E+03  8.09265E+03 -5.67324E+03  5.40227E+03 -6.19563E+03  1.72330E+03 -7.24028E+03
  1.18011E+04 -2.57395E+02  2.20346E+03  1.24826E+04  2.83526E+03  7.06779E+03 -1.22894E+04  7.94020E+03
 -1.29886E+04  1.71879E+03 -8.34965E+03 -8.27616E+03  6.86924E+02 -8.58292E+03  1.43513E+03 -1.26805E+04
  1.39026E+04 -8.01015E+03  1.66766E+04  4.07734E-01  9.58908E+03  1.21645E+04 -3.91289E+03  1.68243E+04
 -2.83888E+03  1.08153E+04 -1.30833E+04 -9.34909E+02 -4.69264E+03 -3.61413E+03 -6.22710E+03 -2.84204E+03
  4.41046E+03 -4.15139E+03 -2.31339E+03  7.29452E+03 -6.02657E+03  1.22836E+03 -1.00865E+04 -1.87905E+03
 -6.99704E+03 -5.89384E+03  5.25252E+03 -1.33169E+04  8.60097E+03 -6.95725E+03  1.57700E+04 -3.30642E+03
  1.22902E+04  3.54866E+02  7.41241E+03  1.15855E+04 -6.90135E+02  1.28251E+04 -9.68405E+03  1.20733E+04
 -1.20279E+04  1.14228E+03 -5.61617E+03 -9.00959E+03  1.37045E+03 -1.03672E+04 -7.82080E+02 -5.87082E+03
  1.22581E+04 -1.21908E+01  2.44793E+03  3.61339E+03  5.08669E+03  2.94008E+03  1.72836E+03  1.01907E+03
  2.91939E+03 -1.80699E+03  1.82477E+03 -1.37616E+03 -2.07670E+03  4.73060E+01  1.07895E+04  7.46680E+03
 -3.19786E+03  3.80843E+03 -8.25359E+03  8.15427E+03 -1.01857E+04  4.93832E+03 -1.31808E+04 -8.88466E+03
 -9.46290E+03 -1.70780E+04  4.97326E+03 -1.86175E+04  1.59482E+04 -1.07265E+04  8.13261E+03  5.92832E+02
  5.29344E+03  1.31405E+03  4.98182E+03  1.28734E+04 -6.50678E+02  2.58655E+03 -6.47713E+03  2.02981E+03
 -6.47761E+03 -2.85850E+03  9.90242E+03 -1.71334E+03  4.13254E+03 -2.71656E+03  4.28287E+03  1.28497E+03
  4.46299E+03  3.53160E+03 -2.11923E+03  1.46177E+03  1.40060E+03 -2.49040E+03  3.86489E+03  1.58956E+03
 -3.22723E+03  4.72305E+03  4.08918E+03  5.50839E+03 -2.32135E+03  8.70703E+03  7.31398E+02  8.74565E+03
 -8.46143E+02  4.64128E+03 -4.67503E+03 -1.79055E+03 -3.85130E+03 -3.54189E+02  4.99902E+03 -6.70662E+03
  1.06729E+03 -8.71713E+03  7.40027E+03 -3.34777E+03  8.21105E+03  2.68689E+03 -6.65443E+02  3.78298E+03
 -2.32530E+03  5.42830E+03 -7.74328E+03 -3.88714E+03 -2.57006E+03 -4.39239E+03  1.25776E+03 -7.65219E+03
 -2.45902E+03 -9.18750E+03  8.28901E+03  5.84825E+03  4.09126E+03  3.60964E+03  5.84161E+03  6.87282E+03
 -3.39496E+02 -5.46666E+02 -2.06790E+03 -1.42956E+03  4.93963E+03 -3.57369E+03  6.68144E+03 -6.14451E+03
  8.99921E+03 -2.11521E+03  8.19901E+03 -3.26149E+02 -5.97408E+02  6.02415E+03 -5.32634E+03  5.49141E+02
 -5.87487E+03 -3.87910E+03 -5.53613E+03  5.69530E+02 -8.99210E+03 -5.81546E+03  5.53688E+03 -2.82350E+03
  1.13132E+04  7.83895E+02  5.35084E+03  3.90497E+03 -5.47039E+02 -2.92504E+03 -2.23434E+02  1.22592E+03
  3.57823E+03  1.08380E+03 -1.59297E+03 -5.52461E+03  1.73999E+02  6.15384E+03  2.80728E+03 -2.72570E+03
 -4.51369E+03  3.13310E+03 -7.70530E+03  2.21658E+03 -9.74584E+03  3.93252E+03 -1.38097E+04 -1.74698E+03
 -4.55102E+03 -8.54983E+03  1.51725E+03 -1.65542E+04  4.57741E+03 -8.35207E+03  1.71972E+04 -5.13252E+03
  1.20399E+04 -1.25468E+03  3.03067E+03  1.97232E+03  7.75497E+03  1.15328E+04 -5.14660E+03  9.46608E+03
  9.76013E+02 -2.15984E+03 -8.39229E+03  2.30985E+03  2.64350E+02  6.67274E+02 -2.82171E+03  4.29158E+02
 -4.23044E+02 -2.09905E+03  3.20085E+03 -3.72404E+03 -3.15558E+02  2.76405E+03  1.11535E+03 -9.78001E+02
 -1.49875E+03 -4.40668E+03  1.19135E+03 -3.14351E+03  1.17990E+04  5.55999E+03  2.41051E+03  1.71126E+04
 -7.57401E+03  1.53198E+04 -1.60671E+04  3.56830E+03 -8.09240E+03 -3.56067E+02 -3.58999E+03 -5.83308E+03
  2.19224E+01 -7.90261E+03 -9.21547E+03 -9.55791E+03  1.25625E+04  8.87991E+02  2.88194E+03  5.59738E+03
  4.86028E+02  3.91068E+03  1.61233E+03  9.91296E+02  9.69563E+02 -1.26071E+03 -6.05060E+03 -3.94529E+03
  7.35586E+03 -5.14341E+03 -2.37577E+03 -3.19004E+03  1.84103E+03  9.05761E+03  1.29050E+03  1.32516E+03
 -5.31954E+03  4.46422E+03 -4.80465E+03  1.73837E+03 -6.23392E+03 -5.87201E+03 -7.70756E+02 -3.62180E+03
  5.20448E+03 -9.52076E+03  8.21092E+03 -4.68285E+03  7.79176E+03 -7.56762E+02  3.67759E+03  2.08093E+03
  2.52054E+03  7.86744E+03 -2.71031E+03  5.62046E+03 -1.22762E+03  6.52441E+03 -9.31823E+03 -1.98016E+03
  1.35148E+03  8.89813E+02 -4.93290E+03  4.41215E+01 -6.40055E+03 -1.99660E+03 -4.25179E+03 -3.76718E+03
 -7.75149E+03 -9.46809E+03  4.15786E+03 -4.87782E+03 -1.80549E+03 -7.26974E+03  7.45560E+03 -5.57322E+03
  6.72193E+03  2.67985E+03  3.19730E+03  2.17233E+03  4.88531E+03  3.24906E+03 -1.30600E+03  2.11308E+03
