 $NMID ID='MM_0lb_SNR50_13hz_g50_30.RAW', FMTDAT='(8E13.5)'
 TRAMP=1., VOLUME=1. $END
  3.14340E+05 -1.95607E+03  3.35853E+05  2.52828E+05  8.33688E+04  3.41966E+05 -1.31181E+05  2.50624E+05
 -1.91662E+05  7.87727E+04 -1.14227E+05 -3.09535E+04  4.45143E+02 -5.07773E+04  5.38913E+04  4.74974E+02
  3.81452E+04  5.27787E+04 -1.45602E+04  7.83839E+04 -6.36957E+04  6.51202E+04 -8.42657E+04  3.55002E+04
 -7.96650E+04 -1.00311E+04 -5.77232E+04 -5.09952E+04 -1.45970E+04 -7.11962E+04  2.84392E+04 -4.12883E+04
  3.59196E+04  3.05058E+03  1.59662E+04  4.35526E+04 -3.25748E+04  4.77008E+04 -6.53593E+04 -2.60663E+03
 -4.99912E+04 -5.84501E+04 -5.10334E+03 -8.07950E+04  3.44216E+04 -6.08611E+04  4.75250E+04 -1.63683E+04
  4.43870E+04  1.21602E+04  3.06025E+04  2.76108E+04  1.66863E+04  2.59340E+04 -4.03199E+03  2.75089E+04
 -2.49395E+04  9.36967E+03 -1.78041E+04 -3.42907E+03  3.09928E+03 -1.48800E+03  2.37306E+04  1.18210E+04
  7.34914E+03  3.34600E+04 -3.05236E+04  3.60597E+04 -6.40765E+04  5.62225E+03 -5.85499E+04 -4.18228E+04
 -1.16573E+04 -6.67220E+04  4.19259E+04 -4.57318E+04  6.06333E+04 -3.15603E+03  3.66418E+04  3.15287E+04
 -6.04638E+03  3.86171E+04 -2.78427E+04  1.41261E+04 -2.74634E+04 -3.98002E+03 -1.28455E+04 -1.15659E+04
 -9.91494E+03 -1.54134E+04  1.50834E+03 -1.81738E+04  9.69804E+03 -2.37514E+04  1.70570E+04 -1.62827E+04
  7.33907E+03  2.58271E+03 -5.90882E+03  1.15073E+04 -2.46206E+04 -3.48899E+03 -3.18930E+03 -3.45655E+04
  2.73511E+04 -4.15691E+04  4.79774E+04 -2.59169E+04  4.16783E+04  2.15231E+04  1.80332E+04  4.68513E+04
 -1.50802E+04  3.34646E+04 -2.53153E+04  2.36310E+03 -7.21322E+03 -2.36186E+04  2.15331E+04 -3.47541E+04
  4.01096E+04 -1.02060E+04  4.05391E+04  2.63771E+04  2.07229E+04  5.13117E+04 -8.63970E+03  5.17776E+04
 -3.15488E+04  3.53497E+04 -4.10036E+04  1.10845E+04 -4.76260E+04 -1.60357E+04 -2.45188E+04 -3.82412E+04
  6.65332E+03 -3.86739E+04  3.07372E+04 -1.03365E+04  3.12685E+04  8.23034E+03  6.08305E+03  1.77757E+04
 -7.73846E+03  7.45784E+03 -8.53170E+03 -1.15402E+04  6.41981E+03 -9.51712E+03  1.62436E+04  3.81982E+03
  9.85277E+03  2.59382E+04 -8.17400E+03  2.44511E+04 -2.35254E+04  1.14069E+04 -2.83692E+04 -4.03194E+03
 -2.61812E+04 -2.37053E+04 -1.42827E+04 -1.80888E+04  7.32211E+03 -2.41288E+04  1.65715E+04 -1.60303E+04
  2.75233E+04 -1.57730E+04  3.23946E+04  4.86593E+03  2.54671E+04  1.70156E+04  7.10476E+02  3.18436E+04
 -1.51219E+04  3.24497E+04 -2.48861E+04  9.54689E+03 -2.30568E+04 -1.20100E+04 -2.58009E+03 -1.77362E+04
  6.24453E+01 -3.79913E+03 -7.12999E+03  4.10620E+03 -1.35811E+04  7.67698E+03 -1.64542E+04 -7.92428E+03
 -9.94018E+03 -2.32130E+04  2.46941E+03 -2.18538E+04  1.21086E+04 -1.92700E+04  1.79602E+04  7.32423E+02
  1.20759E+04  1.40175E+04 -2.08795E+03  1.50787E+04 -1.20700E+04  1.51827E+04 -2.12632E+04 -5.02579E+03
 -1.80346E+04 -1.79830E+04 -6.63952E+03 -2.64999E+04  1.20220E+04 -1.83527E+04  2.14192E+04 -4.69153E+03
  2.01733E+04  3.73246E+03  1.56418E+04 -6.78263E+02  8.19421E+03  2.58973E+03  1.78424E+04 -4.83289E+03
  1.76681E+04  1.93705E+03  2.14235E+04  1.54578E+04  1.36704E+04  2.94406E+04 -1.50028E+03  3.52911E+04
 -2.71020E+04  2.53942E+04 -3.43099E+04  1.61110E+04 -3.88171E+04 -2.01635E+03 -2.97044E+04 -1.91912E+04
 -1.15795E+04 -2.39970E+04  1.42754E+04 -2.55448E+04  1.93803E+04 -1.62564E+04  2.18717E+04  9.51938E+03
  8.55694E+03  1.96023E+04 -6.83441E+03  1.73071E+04 -1.48517E+04 -2.89466E+02 -1.01340E+04 -1.14501E+04
 -4.38384E+03 -1.52729E+04  9.39492E+03 -6.96248E+03  1.31943E+04 -4.40936E+01  1.16006E+03  5.81339E+03
 -4.08092E+03  8.67608E+02 -9.44066E+03 -6.32000E+03 -5.36486E+02 -1.46678E+04  6.43555E+03 -1.18115E+04
  1.44709E+04 -1.17911E+04  1.84268E+04  9.37680E+03  1.40311E+04  1.53671E+04  1.11014E+04  2.85953E+04
 -5.09905E+03  2.50586E+04 -1.64281E+04  1.32472E+04 -1.38306E+04 -1.57753E+02 -1.43290E+04 -5.07645E+03
 -6.22467E+03 -2.03360E+03 -2.28823E+03 -7.05109E+02 -3.50521E+03  2.44995E+03 -5.94640E+03  9.92463E+03
 -1.41222E+04 -5.97404E+02 -1.12555E+04 -7.43513E+03 -4.28409E+03 -1.79182E+04  6.36994E+03 -1.43423E+04
  1.02479E+04 -4.80844E+03  3.16154E+03  4.28743E+03 -3.05100E+03  3.92989E+03 -3.41734E+03 -1.65519E+03
 -5.29820E+03 -5.11909E+03  3.85360E+03 -8.25461E+03  2.78553E+03 -7.67780E+03  1.81383E+04 -9.91610E+03
  1.85606E+04  4.22487E+03  9.79931E+03  9.35400E+03  4.27527E+03  1.15937E+04 -5.33215E+03  5.62087E+03
 -9.82700E+03  4.12479E+03 -9.40651E+02 -2.82239E+03  4.97555E+02  4.63746E+03  8.24313E+03 -2.93068E+03
  2.29962E+03  4.16769E+03  1.43604E+03  5.87240E+03 -9.79262E+03  9.15676E+03 -1.18246E+04  9.95052E+02
 -1.66563E+03 -5.55095E+03 -2.23507E+03 -7.51961E+03  3.03224E+03 -5.64992E+03  7.18855E+03  6.08618E+00
  5.89272E+02  1.04752E+04 -6.50095E+03  5.45658E+03 -7.45573E+03  2.74561E+03 -3.15258E+03 -7.10240E+02
 -6.09778E+03 -9.75339E+03 -1.25946E+02 -1.65425E+04  9.43196E+03 -3.86802E+03  1.08102E+04 -1.32721E+03
  8.78054E+03  9.67691E+03 -7.13902E+02  1.15884E+04 -6.76616E+03  1.07817E+04 -7.53733E+03 -2.60652E+03
 -1.15741E+04 -1.00585E+04  4.79242E+02 -9.36815E+03  5.54406E+03 -1.61032E+04  5.81401E+03 -3.21074E+03
  5.01541E+03 -3.21780E+03 -2.17480E+03 -9.19623E+02  1.11417E+03 -5.00835E+03  4.50786E+02 -7.12696E+03
  9.45220E+03  1.08611E+03  1.13145E+04  2.72379E+03  1.00263E+04  2.96923E+03  8.00806E+03  1.14132E+04
 -4.72614E+03  1.45991E+04 -1.37927E+04  1.16591E+04 -1.72495E+04 -4.63085E+03 -1.45711E+04 -1.88517E+03
 -1.52345E+03 -1.37256E+04  3.01256E+03 -9.63122E+03  1.01191E+04 -4.73588E+03  2.69247E+03 -6.31868E+03
  3.96618E+03 -5.27762E+03  8.30330E+03 -1.91279E+03  5.04098E+03  9.31774E+02  2.75156E+03 -6.59193E+02
  7.18221E+03  4.36733E+03  3.65174E+02  9.62550E+03 -2.10255E+03  8.95928E+03 -5.56888E+03  1.06867E+04
 -7.84726E+03 -1.38898E+02 -2.99889E+03 -4.82203E+03 -1.93605E+03 -1.45778E+04  4.26562E+03 -1.25802E+04
  9.45210E+03 -6.71191E+03  8.15183E+03  8.51569E+02  1.15021E+04  1.44906E+04  3.48371E+03  9.43207E+03
 -5.52839E+03  8.62235E+03 -6.21940E+03  5.42241E+03 -1.33004E+03  1.65188E+03 -6.85994E+03 -2.91480E+03
  2.61446E+03  2.04178E+03  2.67216E+02  3.97540E+03  6.40704E+02  3.93210E+03 -6.12359E+03  2.33382E+01
 -6.19312E+03 -3.16657E+03 -1.88996E+03 -1.09275E+04  5.77144E+03 -8.98492E+03  5.96670E+03 -4.88087E+03
  9.24699E+03 -1.03034E+03  6.14475E+03  3.98863E+03 -5.41867E+02  7.88603E+03 -5.72686E+03  5.56671E+03
 -7.82525E+03  2.06513E+02 -4.81362E+03 -8.27466E+03  3.82437E+03 -9.65761E+03  4.86640E+03  6.08265E+02
  6.96438E+03  6.52381E+02 -1.05445E+03  4.21144E+03 -3.61425E+03  3.25336E+03 -1.21184E+03 -2.38696E+03
  4.81975E+03  5.50975E+03  1.01291E+03  1.02084E+03  1.34950E+03 -1.94608E+03  2.55117E+03  6.60966E+03
 -3.76193E+03  5.39300E+03 -9.46370E+03  3.39633E+03 -8.08066E+03  1.65812E+03 -8.06925E+03 -8.01816E+03
 -6.08697E+03 -1.18412E+04 -4.17129E+02 -8.80902E+03  5.60907E+03 -6.71042E+03  2.57056E+03 -4.52836E+03
  4.62445E+03  3.10674E+03  1.75474E+03  1.05830E+03  1.30430E+03  7.61077E+03  1.08292E+03  2.37406E+02
 -2.38470E+03 -4.36416E+03  3.30156E+03  1.74269E+03  6.18547E+03 -1.93628E+03 -1.08975E+02 -8.51318E+03
  1.19788E+03 -5.65525E+02  1.85006E+03  3.27620E+03  2.86188E+03 -9.97491E+01 -2.05433E+03 -8.86939E+02
  3.51922E+03  1.17513E+03  3.11437E+03  3.07410E+03  2.81877E+03  4.59279E+03 -3.26445E+03  4.68735E+03
  1.99486E+03  1.15011E+03 -6.54259E+03 -2.81358E+02 -6.67208E+03 -5.07191E+03 -4.24878E+03 -8.87451E+03
 -9.94942E+02 -3.09918E+03  5.39704E+02 -8.12251E+02  2.93777E+03 -2.17250E+03  1.72625E+03  1.37807E+03
 -6.71107E+03  2.26619E+03 -1.98532E+03 -8.20471E+02 -1.87317E+03 -2.05670E+03  6.16860E+03 -2.84232E+03
  3.15905E+03 -6.98081E+02 -3.51330E+02  3.46806E+03  2.09607E+03  4.58892E+03  9.75299E+02  3.13625E+03
 -3.33896E+03  2.15804E+03 -2.18528E+03 -2.54492E+03  4.79888E+03 -2.79060E+03  1.44699E+03 -2.47380E+03
  1.42970E+03  4.20718E+02  8.84555E+03  1.12758E+03  4.52550E+02  5.85946E+03  5.98063E+02  7.81651E+03
 -4.91358E+03 -1.09272E+02 -6.61581E+03 -2.62652E+03 -3.24379E+03 -7.08931E+03 -3.83828E+03 -4.99068E+03
  5.23235E+03 -4.96964E+03  4.71009E+03  4.65506E+01  7.75825E+02 -3.44983E+03  1.80916E+03  6.37762E+01
  1.72928E+03  3.44363E+03  9.94910E+02  5.79677E+03  2.18132E+03  6.40723E+02 -2.70755E+03  3.19622E+03
 -4.22056E+03 -1.37524E+03 -5.81455E+03  2.11032E+02 -6.63872E+03 -2.72956E+03 -6.38735E+03 -1.47530E+03
  4.44191E+02 -7.43597E+03 -1.58104E+03 -9.39876E+03  8.58331E+03 -5.57772E+03  1.83227E+03 -4.83022E+03
  2.13850E+03  2.40482E+03  1.37666E+02  7.15971E+03 -9.13721E+02 -5.44161E+03 -4.94812E+03 -5.38184E+02
 -2.70120E+03 -8.91461E+02 -2.00405E+03 -4.89870E+03 -4.45797E+03  1.62871E+03  2.99764E+03 -2.26543E+03
 -2.55157E+02 -4.09172E+03 -5.49785E+03 -1.17038E+03 -1.79623E+03 -3.51472E+02 -5.65662E+02  1.50631E+02
  1.18284E+03 -5.95187E+03 -2.41142E+03  4.73609E+02  1.37540E+03  6.15429E+03 -2.17075E+03  3.62178E+03
 -2.38965E+03  8.53691E+03 -7.50389E+03  3.86442E+03 -4.59430E+03  3.63449E+03 -6.95552E+03 -3.38049E+03
 -3.68702E+03 -8.80491E+03  1.45324E+03 -4.89647E+03  1.04023E+03 -5.25743E+03  5.40383E+03 -1.05792E+03
 -2.52084E+03  7.51984E+03  2.57037E+03  7.05279E+02  5.18752E+02  2.23786E+03  1.39904E+03 -2.54614E+03
  4.98119E+03 -1.86643E+02  1.64714E+02  7.27759E+03  3.58070E+01  5.67820E+03 -8.03027E+02  3.10813E+03
 -8.40155E+02  3.62953E+03  1.82787E+03 -7.50560E+02 -1.90947E+02 -4.16303E+03 -2.83588E+03 -1.03574E+03
 -1.26364E+03 -1.94932E+03  8.77718E+02 -5.66768E+02  1.09179E+03  4.10343E+03  3.60616E+03  6.54088E+02
  4.92918E+03  1.14638E+02 -1.29070E+03 -3.93031E+02 -2.20882E+03  4.25473E+03 -8.09125E+02 -1.41786E+03
 -1.89611E+03  3.75642E+03 -2.42289E+03 -1.42177E+03 -4.91681E+03 -2.85276E+03 -5.14825E+03  3.02430E+03
  2.37581E+03  3.98400E+03 -2.38840E+03 -3.98063E+03 -3.75468E+03 -5.55368E+03  3.50169E+03 -1.78293E+01
  4.81279E+03  4.11760E+03 -2.67845E+02  1.89876E+03  4.55037E+03  3.91770E+03  1.57484E+03 -1.20844E+03
