 $NMID ID='MM_0lb_SNR50_20hz_g45_90.RAW', FMTDAT='(8E13.5)'
 TRAMP=1., VOLUME=1. $END
  3.12679E+05  1.77575E+03  3.34528E+05  2.52913E+05  8.72779E+04  3.37801E+05 -1.31726E+05  2.51232E+05
 -1.92880E+05  8.46748E+04 -1.09532E+05 -3.47952E+04  9.70365E+02 -4.92685E+04  5.05980E+04  1.31699E+03
  3.88676E+04  5.21455E+04 -1.82238E+04  7.42103E+04 -6.32924E+04  6.42885E+04 -8.06629E+04  3.04614E+04
 -7.80034E+04 -9.23195E+03 -5.60848E+04 -5.12971E+04 -1.53461E+04 -6.85782E+04  2.64363E+04 -4.69141E+04
  4.49507E+04  4.01803E+03  1.64464E+04  4.72440E+04 -3.03029E+04  4.64719E+04 -6.92309E+04  4.57168E+01
 -4.75698E+04 -5.62591E+04 -8.22937E+03 -7.07801E+04  3.53207E+04 -5.10728E+04  4.59132E+04 -1.61620E+04
  3.81617E+04  1.10983E+04  2.90902E+04  2.55612E+04  1.42926E+04  3.06755E+04 -6.36208E+03  2.63690E+04
 -2.43565E+04  1.45503E+04 -1.51616E+04 -2.11249E+03  4.48051E+03 -1.07886E+04  2.40609E+04  8.27387E+03
  1.13227E+04  3.36708E+04 -2.63073E+04  3.53533E+04 -6.26510E+04  2.10873E+03 -5.58373E+04 -4.21869E+04
 -8.26381E+03 -6.34825E+04  3.47724E+04 -4.12624E+04  5.27961E+04 -2.82398E+03  3.19547E+04  3.00485E+04
 -7.88925E+03  3.19008E+04 -2.95859E+04  1.16363E+04 -2.60607E+04 -7.01087E+03 -1.07123E+04 -9.32678E+03
 -1.05891E+04 -1.35537E+04 -3.14359E+03 -1.37102E+04  1.70283E+03 -2.30935E+04  1.22045E+04 -1.07066E+04
  1.34476E+04  3.09124E+03 -3.70053E+03  1.35174E+04 -1.89768E+04 -3.01095E+03 -8.09258E+03 -2.92552E+04
  2.13304E+04 -4.27166E+04  4.50878E+04 -1.72232E+04  3.71810E+04  1.59273E+04  1.46865E+04  3.68697E+04
 -1.89199E+04  2.88721E+04 -2.22484E+04  2.58328E+03 -5.91465E+03 -2.66017E+04  1.42630E+04 -2.93453E+04
  3.67852E+04 -6.36757E+03  2.69941E+04  2.33961E+04  1.61389E+04  4.04589E+04 -1.13580E+04  4.61124E+04
 -2.95968E+04  2.95692E+04 -3.80758E+04  8.43406E+03 -3.67114E+04 -9.53143E+03 -1.94791E+04 -3.32204E+04
  7.87224E+03 -3.28023E+04  3.00834E+04 -1.08846E+04  2.31325E+04  9.36322E+03  2.30167E+03  1.48340E+04
 -1.27683E+04  6.56181E+03 -1.08350E+04 -8.57732E+03  5.29324E+03 -5.12768E+03  1.76955E+04  8.31259E+03
  9.31652E+03  2.07204E+04 -5.18427E+03  2.39489E+04 -2.32570E+04  7.44547E+03 -2.27125E+04 -7.00612E+03
 -1.47867E+04 -9.75924E+03 -6.19553E+03 -2.19508E+04  3.01317E+03 -1.26105E+04  8.62429E+03 -1.60965E+04
  2.18293E+04 -1.03795E+04  2.62153E+04 -1.16339E+03  1.51692E+04  1.69953E+04  6.59203E+03  2.86628E+04
 -1.95663E+04  2.91087E+04 -2.60859E+04  6.97410E+03 -1.37297E+04 -8.55937E+03 -3.27626E+03 -1.42361E+04
  1.78310E+03 -4.23582E+03 -2.07266E+02  6.67004E+03 -1.47029E+04  7.35318E+03 -1.56385E+04 -9.22356E+03
 -9.45208E+03 -1.75687E+04  5.07624E+03 -1.81418E+04  8.98955E+03 -1.24776E+04  1.10204E+04  7.34864E+02
  7.43403E+03  1.05341E+04  1.48508E+02  1.12315E+04 -1.38632E+04  8.66834E+03 -1.32173E+04 -9.27924E+03
 -6.60888E+03 -1.11056E+04 -3.71395E+03 -1.71600E+04  9.22329E+03 -1.13207E+04  1.61134E+04 -6.35351E+03
  1.44515E+04  1.55504E+03  1.06720E+04  3.89243E+03  2.76573E+03 -2.02352E+03  7.07830E+03 -1.06332E+03
  1.49222E+04  1.22137E+02  1.32209E+04  1.00545E+04  3.80517E+03  2.03690E+04  6.41189E+02  2.54773E+04
 -1.22406E+04  1.61044E+04 -2.16462E+04  6.41890E+03 -2.15860E+04 -7.97720E+02 -1.78151E+04 -1.31772E+04
 -1.41203E+04 -1.96324E+04  6.61188E+03 -1.35698E+04  1.52508E+04 -1.17546E+04  1.58471E+04  5.98008E+03
  6.57803E+03  5.73424E+03 -4.76120E+03  1.01223E+04 -1.19118E+04  1.36530E+02 -8.78042E+03 -9.62844E+03
 -7.46810E+02 -1.09403E+04  3.37656E+03 -6.37547E+03  7.21977E+03 -2.84424E+03  1.75992E+03  2.50824E+03
 -3.23613E+03  1.45524E+03 -4.86721E+03 -2.06122E+03 -1.90646E+03 -5.61333E+03  7.28601E+03 -1.07165E+04
  1.43826E+04 -4.13009E+03  9.13848E+03  2.05068E+03  9.08897E+03  4.40417E+03  5.21969E+03  1.11136E+04
  1.54246E+03  1.06149E+04 -5.17375E+03  9.16392E+03 -1.08321E+04  2.73403E+03 -9.67430E+03 -3.66024E+03
 -1.01585E+03 -1.90482E+03 -3.96279E+01  2.24011E+03 -3.98514E+03  3.29384E+03 -1.42235E+03  3.11722E+03
 -7.13011E+03  4.87854E+03 -7.66119E+03 -5.91961E+03 -6.13018E+03 -9.80489E+03 -1.54832E+03 -6.00385E+03
  8.84796E+03 -6.44640E+03  5.34362E+03  4.43615E+03  1.54339E+03  3.50285E+03 -6.16019E+03 -2.46733E+03
 -4.62592E+03 -5.99019E+03 -5.00831E+02 -3.57383E+03  2.07535E+03 -7.80121E+03  1.04738E+04 -2.83241E+03
  7.85779E+03  1.54374E+03  5.88651E+03  4.55901E+03 -7.90102E+02  7.42276E+03 -6.13099E+03  4.86496E+03
 -6.85170E+03  7.04498E+02 -2.53751E+03  6.24428E+02  2.52421E+03  1.80426E+03  6.79750E+03 -1.46030E+03
  4.98342E+03 -2.73454E+03 -3.97653E+02  9.16646E+03 -5.32940E+03  7.77057E+03 -8.01809E+03  2.27671E+03
 -3.16091E+03 -1.47362E+03  1.03536E+03 -4.13335E+03  4.42968E+03 -2.34243E+03  4.20401E+03 -1.72078E+03
 -1.84680E+03 -1.89562E+03  8.33001E+02  2.87286E+03 -3.09615E+03  3.07495E+03 -6.05403E+03  2.77794E+03
 -1.36558E+03 -7.68088E+03 -4.97031E+02 -7.13544E+03  2.84286E+03 -1.72921E+03  3.32243E+03 -8.48372E+01
  1.01315E+04  1.48281E+03 -1.18365E+03  7.15757E+03 -7.23208E+03  5.36727E+03 -2.55165E+03 -1.92362E+03
 -5.09484E+03 -1.37636E+03 -2.61321E+03 -9.37028E+03  2.83304E+03 -3.54703E+03  1.34066E+03 -5.76140E+03
  9.46349E+02  2.97921E+03 -1.31293E+03 -5.73817E+02  1.59592E+03  2.34460E+03 -4.05525E+03  2.22318E+03
  2.28961E+03 -1.52980E+02  4.40808E+03 -1.47262E+02  1.98018E+03 -2.57617E+03  2.31403E+03  2.84836E+03
 -5.61098E+03  3.79351E+03 -6.03388E+03  7.85934E+03 -1.19926E+04  6.69475E+02 -4.15578E+03 -3.05051E+03
 -5.75414E+02 -1.67475E+03  5.85737E+02 -4.85944E+02  1.53866E+03 -1.72824E+03  2.93345E+03 -1.67188E+02
 -2.43856E+01  1.97036E+02  4.14336E+03 -2.26836E+03  2.40382E+03 -3.03506E+03  3.22586E+03  8.60794E+02
  4.72029E+03 -1.81345E+03 -3.11643E+03  2.76638E+03 -1.28642E+03  5.08439E+03 -4.65188E+03  4.49528E+03
 -4.21087E+03 -4.71253E+03 -2.23021E+03 -2.39944E+03 -2.13878E+02 -4.35311E+03  3.90384E+03 -1.68094E+03
  4.90523E+03 -3.28478E+03  8.41062E+03 -1.83615E+03  5.52318E+03  1.73436E+03 -2.52209E+03  8.48119E+03
 -4.35081E+03  6.48384E+03 -3.45385E+03  2.06285E+03  8.38142E+02  3.20166E+02 -1.98513E+02 -5.89170E+02
 -1.20595E+03  1.42470E+02  2.27384E+03 -6.85383E+02 -6.58632E+02 -5.66841E+02 -1.78568E+03 -1.88544E+03
  3.79829E+03 -3.74249E+03  4.14102E+03 -4.36619E+03  2.76536E+03 -5.61763E+03  3.10331E+02 -2.47700E+01
  5.10261E+03  4.60927E+02  2.75062E+03  4.40472E+03 -3.29830E+03  2.02815E+03  2.59334E+03  4.02417E+03
 -1.14375E+03 -1.82753E+02 -5.22193E+03 -3.27007E+03 -4.11505E+03 -4.92038E+03  1.35118E+03 -5.40585E+03
  5.86842E+03 -2.77407E+03  1.65128E+02 -8.93114E+02 -2.15946E+03  3.24487E+02 -3.01121E+03 -2.56977E+01
 -5.10575E+03 -1.08820E+03  3.30122E+03 -2.09156E+03  8.72655E+02  2.54226E+02 -2.58205E+02 -8.80912E+02
 -1.35599E+03 -2.93383E+03 -1.61963E+03  4.78074E+03  1.67525E+03  4.17130E+03 -1.61259E+03 -1.02703E+03
 -3.30477E+03 -4.82232E+03 -2.84569E+03 -8.17108E+03  4.02325E+03 -1.23350E+03  2.23651E+03  7.05985E+02
  6.85577E+02  6.32435E+03  2.06579E+03  3.07739E+03 -2.37937E+03 -1.77801E+03 -5.90793E+03  1.71160E+02
  2.79748E+03  2.97311E+03  2.17151E+03 -4.94936E+03  1.00277E+03 -2.43305E+03  2.27842E+03 -2.32424E+03
 -2.24894E+02  2.08334E+03  3.37441E+03 -2.94783E+03  2.24280E+03 -2.50866E+03  1.38987E+03  1.58729E+03
  6.10684E+03  5.97964E+00  1.98372E+02  1.66575E+03 -2.13965E+03  5.78774E+02  8.78438E+02  5.72202E+03
  3.50232E+02  2.87419E+03 -4.08334E+03  8.64061E+02  2.08554E+03 -3.69828E+02  2.81417E+03 -2.32283E+03
 -6.59969E+02 -4.43208E+02  1.58794E+03 -1.88824E+03  2.36189E+02  2.25099E+03  1.10979E+03  1.44829E+02
 -1.48105E+03  1.00240E+02  2.70212E+03 -4.52645E+02 -1.22382E+03 -1.00123E+03 -8.87712E+02  1.96849E+03
 -2.20268E+03  1.92142E+03  5.87349E+02  2.30323E+03 -4.73646E+02  1.07033E+03 -2.89155E+02  6.62995E+02
  2.91450E+03  1.77388E+02 -1.38441E+03 -3.42328E+03  4.17338E+03 -2.94027E+03  2.54515E+03 -3.56379E+03
  4.36989E+03 -3.30517E+03  4.01204E+03  1.46939E+03 -5.04131E+03 -1.47119E+02 -6.29765E+01  4.23992E+03
 -1.38930E+03  1.06091E+03 -2.94841E+03 -1.48714E+02 -8.48819E+02 -1.40675E+03 -4.87480E+02  2.42448E+03
  1.22782E+03 -1.23977E+03  2.15790E+03  2.44513E+03  2.64243E+03  1.20183E+03  8.21826E+01 -5.00510E+02
 -7.64788E+02  4.11297E+02 -2.36272E+03 -5.26446E+02 -2.05132E+03 -2.17376E+02 -1.89012E+03  3.03437E+03
 -4.16424E+03  4.25279E+03  1.89896E+03  6.44037E+02 -2.11189E+03  1.56726E+03 -5.87966E+03 -3.72458E+03
 -5.09237E+03 -4.18701E+03  2.13049E+03  1.19025E+02  1.34281E+03 -5.00273E+03  3.51862E+02 -3.13384E+03
  4.44615E+02  1.97855E+03 -4.67419E+02  1.08501E+03 -1.55406E+03  3.75808E+03 -3.41106E+03  8.57399E+02
 -2.46166E+03  2.49649E+03 -2.85238E+03  1.18114E+03 -1.30772E+03  3.35780E+03 -1.05942E+02 -3.16494E+03
 -4.35900E+03  1.94349E+03  8.99840E+02  1.40102E+02  8.51450E+02 -9.33864E+02  1.90100E+03 -1.17511E+03
  1.98424E+03 -1.06766E+02 -3.09212E+03 -1.81546E+03  6.55918E+01  4.18400E+03 -2.75970E+03 -9.57262E+02
 -9.53539E+02  2.49944E+03  9.90740E+02  5.36667E+03 -2.30014E+03 -1.24832E+03 -1.53563E+03 -7.29678E+02
  2.07125E+03  4.78330E+02  1.94852E+03  3.71068E+02 -1.95399E+03  2.65888E+02  4.74600E+02 -5.10036E+01
 -1.27321E+03 -2.38581E+03 -3.56442E+03  1.39566E+03 -1.77861E+03 -9.85123E+01 -5.21630E+03 -1.21651E+03
  2.28503E+03  2.57175E+03  1.43028E+03  1.43035E+03  5.33255E+02  9.28214E+01 -7.85508E+02  1.00429E+03
 -7.01218E+03  9.01761E+01 -9.92721E+01  2.23759E+03  6.89648E+00 -1.73544E+03  5.07111E+02  7.45367E+02
 -4.10608E+02  6.37570E+02 -2.62686E+03  2.14628E+03 -2.04868E+03  4.82160E+02 -3.15806E+03  1.98856E+03
  2.61260E+03 -2.50872E+03  3.72768E+03 -2.50056E+03 -3.57240E+03  9.75737E+02 -2.39768E+03 -6.81065E+02
 -1.53424E+03  4.19069E+03  3.19222E+01  2.63485E+02  2.21972E+03  5.17084E+03 -4.02863E+02  1.57648E+03
 -5.58576E+02  1.03679E+02  4.46083E+03 -5.10037E+02 -1.79304E+03  1.18603E+03  3.23559E+03  1.66063E+03
  6.74696E+03 -6.19265E+01  2.15700E+03 -3.06203E+03  1.51746E+03  2.28424E+03 -1.75337E+03 -1.41910E+03
