 $NMID ID='MM_0lb_SNR50_7hz_g50_76.RAW', FMTDAT='(8E13.5)'
 TRAMP=1., VOLUME=1. $END
  3.12280E+05  2.07753E+03  3.38117E+05  2.52398E+05  8.04006E+04  3.37857E+05 -1.30500E+05  2.50970E+05
 -1.88558E+05  9.37978E+04 -1.14179E+05 -3.09303E+04  2.94749E+01 -4.73451E+04  4.86811E+04 -4.44693E+03
  4.16109E+04  4.37792E+04 -2.04457E+04  7.32104E+04 -5.55272E+04  6.95777E+04 -8.36028E+04  3.27285E+04
 -8.47720E+04 -2.07177E+04 -5.99961E+04 -5.84861E+04 -1.73523E+04 -6.92327E+04  2.65856E+04 -5.39453E+04
  4.57670E+04 -1.28390E+03  1.62913E+04  5.15181E+04 -3.44383E+04  4.60765E+04 -6.92270E+04 -3.48579E+03
 -5.47550E+04 -5.28947E+04 -4.64049E+03 -7.33818E+04  3.32070E+04 -5.88521E+04  4.30906E+04 -2.14414E+04
  5.12378E+04  1.03192E+04  3.57043E+04  3.59580E+04  1.21867E+04  2.26853E+04 -1.11384E+04  2.90269E+04
 -2.65208E+04  1.18191E+04 -2.04966E+04 -8.77924E+03  7.16439E+03 -7.53598E+03  2.89211E+04  1.95894E+04
  8.63288E+03  4.00403E+04 -3.32681E+04  3.21845E+04 -7.06659E+04  9.91815E+03 -6.55096E+04 -5.39420E+04
 -1.45338E+04 -6.31155E+04  4.27982E+04 -4.73101E+04  6.76532E+04  1.48987E+03  3.63693E+04  3.82121E+04
 -4.38685E+03  3.90972E+04 -2.71596E+04  2.72593E+04 -3.34938E+04 -9.59868E+03 -1.68896E+04 -8.61433E+03
 -5.33255E+03 -1.42868E+04 -2.24143E+03 -2.30482E+04  8.12623E+03 -2.72221E+04  8.59784E+03 -1.64885E+04
  1.53469E+04  3.04680E+03 -1.41788E+04  8.01014E+03 -1.52479E+04 -1.14450E+04 -1.17894E+04 -3.75647E+04
  2.65240E+04 -4.43227E+04  5.79880E+04 -2.26557E+04  5.22043E+04  1.72733E+04  2.30369E+04  4.45964E+04
 -1.88867E+04  3.65857E+04 -2.99343E+04  6.90052E+03 -5.11599E+03 -2.71627E+04  2.42153E+04 -3.97574E+04
  4.25467E+04 -1.41660E+04  4.35564E+04  2.77184E+04  2.67820E+04  5.36373E+04 -8.32113E+03  5.86035E+04
 -3.99590E+04  3.93096E+04 -4.67997E+04  7.36189E+03 -4.80754E+04 -1.67721E+04 -2.61650E+04 -4.48497E+04
  7.53050E+03 -3.90735E+04  3.42394E+04 -1.99271E+04  2.79537E+04  1.14879E+04  8.23673E+03  1.97612E+04
 -1.29249E+04  4.78425E+03 -5.56998E+03 -5.01755E+03  6.05899E+03 -1.24955E+04  1.92203E+04  2.55182E+03
  2.00640E+04  2.48092E+04 -6.41892E+03  2.92816E+04 -2.18588E+04  1.45912E+04 -3.34939E+04  1.63243E+03
 -2.22589E+04 -2.12003E+04 -1.06671E+04 -3.13484E+04  8.47318E+03 -2.15954E+04  2.49615E+04 -1.76149E+04
  3.36940E+04 -9.09618E+03  4.19151E+04 -1.64798E+03  3.10860E+04  2.29224E+04  6.36871E+03  3.85875E+04
 -2.08447E+04  3.08693E+04 -2.76436E+04  1.24489E+04 -2.45769E+04 -9.52286E+03 -1.02318E+03 -1.34987E+04
  2.54563E+03  2.53355E+03 -9.49388E+03  7.88211E+03 -2.99143E+04 -2.91678E+03 -2.18263E+04 -9.59879E+03
 -2.28806E+04 -2.32834E+04  1.02534E+04 -3.56963E+04  2.26159E+04 -2.46408E+04  3.19183E+04 -2.63932E+03
  1.46114E+04  1.92352E+04  3.56941E+02  3.03097E+04 -1.64404E+04  9.36783E+03 -2.99082E+04 -3.65516E+03
 -2.16426E+04 -1.69284E+04 -6.28604E+03 -3.44716E+04  1.83500E+04 -2.48704E+04  2.33413E+04 -1.26055E+04
  2.11675E+04 -4.88208E+03  1.89283E+04  1.32445E+04  1.13689E+04  5.27355E+03  1.69601E+04  1.60838E+03
  2.53945E+04  5.63205E+03  3.05647E+04  3.17225E+04  2.03393E+04  3.46150E+04 -6.55979E+03  4.72430E+04
 -2.41684E+04  3.89676E+04 -4.03776E+04  2.08769E+04 -5.35659E+04 -5.75723E+03 -3.77036E+04 -2.65200E+04
 -1.15228E+04 -4.38906E+04  1.46922E+04 -3.38958E+04  2.79388E+04 -1.16100E+04  2.56217E+04  9.56246E+03
  6.84798E+03  1.94840E+04 -1.18026E+04  1.15783E+04 -2.03425E+04  5.48138E+03 -1.41469E+04 -1.10358E+04
 -2.73717E+03 -1.38235E+04  1.25934E+04 -9.20878E+03  1.27693E+04 -4.09052E+03  9.71261E+03  1.05528E+04
 -1.24803E+04  2.73746E+03  1.25417E+02 -5.86044E+03  6.69558E+02 -1.92608E+04  6.34541E+03 -2.78039E+04
  3.00835E+04 -9.14312E+03  3.27497E+04 -3.01456E+03  2.56235E+04  2.78567E+04  1.46144E+04  3.20438E+04
 -1.49115E+04  3.50885E+04 -2.05992E+04  2.15925E+04 -2.49198E+04  1.10373E+04 -1.48984E+04 -1.21681E+04
 -1.04651E+04 -8.57103E+03 -4.30258E+03  7.36355E+03 -5.59296E+02  1.19641E+04 -1.49149E+04  6.61576E+03
 -1.38561E+04 -1.78811E+03 -1.37073E+04 -1.46268E+04 -3.67691E+03 -2.29622E+04  1.57937E+03 -2.48293E+04
  1.94254E+04 -1.31269E+04  1.23710E+04  2.44963E+03 -1.54545E+03  7.70056E+03 -1.11899E+04  2.83723E+03
 -9.44975E+03 -5.25249E+03 -2.46394E+03 -1.45736E+04  6.03479E+03 -1.82635E+04  2.13976E+04 -8.38173E+03
  2.78021E+04  1.28410E+03  2.32589E+04  2.06085E+04  3.82666E+03  1.80203E+04 -7.75007E+03  1.78724E+04
 -1.71516E+04  2.18280E+03 -2.54309E+03 -5.16096E+03  3.36675E+03 -6.86530E+03  1.18276E+04  2.31050E+02
  4.04005E+03 -2.41927E+03  2.86263E+03  1.20809E+04 -9.13026E+03  1.50449E+04 -1.76788E+04 -3.41778E+03
 -6.34478E+03 -1.05094E+04 -3.16001E+02 -1.27306E+04  1.31983E+04 -4.50906E+03  9.58744E+03 -2.30248E+03
  4.78536E+03  6.69189E+03 -8.94701E+02  1.36147E+04 -1.13739E+04  6.54089E+03 -1.59595E+04 -9.73632E+03
 -1.06678E+04 -2.73416E+04  4.25651E+02 -1.73329E+04  2.61805E+04 -1.24567E+04  2.29409E+04  7.87536E+02
  1.28821E+04  1.43436E+04 -1.03648E+03  1.62382E+04 -1.49075E+04  1.16639E+03 -2.43060E+04 -2.93058E+03
 -1.15543E+04 -7.35480E+03 -3.99836E+02 -9.98875E+03  5.58748E+03 -1.44851E+04  9.91586E+03 -1.14966E+03
  1.69511E+04  5.23563E+03 -2.84200E+03  7.66749E+02 -5.51897E+03 -1.36749E+03  6.84556E+03 -5.04333E+03
  1.75651E+04 -6.63587E+03  2.28985E+04  2.59813E+03  2.41035E+04  1.34342E+04  2.13741E+04  2.29051E+04
 -8.99420E+03  2.61815E+04 -1.74287E+04  2.54971E+04 -3.19231E+04  6.91881E+02 -2.44725E+04 -8.43896E+03
 -9.29049E+03 -2.07133E+04  3.44044E+03 -2.08222E+04  3.51831E+03 -1.58146E+04  5.79080E+03 -5.39261E+03
  1.28877E+04 -6.55184E+03  7.09326E+03 -6.86368E+03  1.10831E+03 -8.30303E+03  9.18588E+03 -7.17384E+03
  1.09804E+04 -5.40831E+03 -1.29913E+03  1.22055E+04 -6.67525E+02  1.87784E+04 -2.64569E+04  5.25158E+03
 -1.68502E+04 -1.83065E+03 -1.63722E+04 -1.51488E+04 -3.39650E+03 -2.26400E+04  7.35855E+03 -1.79521E+04
  1.82769E+04 -5.16622E+03  2.47551E+04  6.91576E+03  1.87978E+04  1.36196E+04  4.69788E+03  1.92187E+04
 -8.30207E+03  2.20620E+04 -9.04909E+03  3.31812E+03 -8.30949E+03  1.82040E+03 -3.25822E+03  6.09264E+03
 -8.65019E+03  1.19557E+03 -2.06982E+03 -4.75475E+03 -9.39094E+03  1.81045E+03 -1.09821E+04 -5.65963E+03
 -7.41808E+03 -1.02551E+04 -3.77799E+03 -2.01388E+04  1.08840E+04 -1.57729E+04  1.99581E+04 -9.53494E+02
  2.01052E+04  4.76245E+03  1.71047E+04  1.39373E+04 -2.73771E+03  1.55318E+04 -1.56652E+04  1.42278E+04
 -1.85027E+04 -3.55229E+03 -1.94411E+04 -8.68870E+03 -4.89416E+03 -1.55584E+04  1.23756E+04 -1.88927E+04
  8.27074E+03  9.16572E+02  1.22436E+04  1.84089E+03 -2.39569E+03  4.43217E+02 -3.39878E+03  5.57141E+03
  7.35509E+03 -6.13685E+02  3.15026E+03  1.57296E+02  4.63550E+03  3.57547E+03  1.11720E+04  7.14771E+03
 -4.91905E+03  9.50800E+03 -1.81995E+04  1.95735E+04 -2.24698E+04 -5.70043E+03 -1.78237E+04 -7.63845E+03
 -1.10867E+04 -1.74152E+04  2.64144E+03 -2.00050E+04  1.29456E+04 -1.60307E+04  1.77764E+04 -1.46716E+03
  9.41919E+03  8.46568E+03  4.14085E+03  9.54202E+03 -7.28071E+03  9.11671E+03 -5.14848E+03  9.88736E+02
 -1.04064E+04 -1.49233E+04  3.88406E+03 -1.11866E+03  1.29282E+04  9.21837E+03  1.39398E+04  5.30329E+03
  8.26500E+02  6.85836E+03  8.16391E+02 -4.08472E+03  1.57113E+03  2.19542E+03 -7.28482E+03 -1.14093E+03
 -2.14347E+03 -1.46016E+03  5.94770E+03 -2.63360E+03 -6.51350E+03  7.77402E+03 -2.78245E+03  8.99509E+03
 -8.53299E+03  8.23639E+03 -2.02074E+04  1.60530E+03 -1.00848E+04 -2.89258E+03 -9.86764E+03 -1.20695E+04
  2.81741E+03 -7.01630E+03  7.90181E+03  8.06036E+02  6.80313E+03  4.97679E+03  2.06495E+03  1.26348E+04
 -8.56997E+03  7.41384E+03 -8.09619E+03 -9.23183E+02 -1.13995E+04 -9.15987E+03 -3.91133E+03 -9.54131E+03
  6.42839E+03 -5.42657E+03  1.40887E+04  4.03155E+02  8.87695E+03  1.17794E+04  1.44232E+03  2.75476E+03
 -1.32104E+03 -7.43189E+02 -9.21871E+03 -1.11040E+04  3.08219E+03 -8.06285E+03  1.16496E+04 -6.62862E+03
  1.30916E+04 -2.18637E+02  1.18988E+04  1.67493E+04  4.38065E+03  1.24500E+04 -7.64668E+03  9.93612E+03
 -1.31594E+04  8.71448E+03 -1.02459E+04 -4.10731E+03 -5.27750E+03 -1.46700E+04  5.91862E+03 -4.96627E+03
  3.72422E+03 -1.40015E+04  8.06795E+03  4.65624E+03  6.03364E+02  9.65998E+03 -2.84739E+02  8.40367E+03
 -1.49862E+03  1.03793E+04 -2.07329E+03  1.34558E+03 -2.51478E+03  3.64380E+03 -1.33575E+03  2.37633E+01
 -3.40284E+03  1.23641E+03 -1.37648E+04  3.76754E+03 -1.56628E+04  2.28988E+03 -2.15690E+04 -1.52661E+03
 -9.63383E+03 -1.15665E+04 -4.33742E+03 -2.40528E+04  8.93340E+03 -1.36388E+04  1.95870E+04 -5.58270E+03
  2.66037E+04  1.09804E+04  5.87233E+03  1.70808E+04 -1.67935E+03  1.88887E+04 -1.04541E+04  1.41632E+04
 -4.73298E+03 -1.63987E+03  2.50378E+03 -2.06860E+03  2.01704E+03  3.50627E+03  2.95089E+03 -1.24931E+03
 -4.02443E+03  3.75787E+03 -2.35315E+03 -4.32414E+02 -7.29529E+03 -6.30098E+03 -8.77858E+03 -1.13854E+04
  4.90060E+03 -2.11031E+03  9.90049E+03  1.77450E+03  1.32109E+04 -2.71395E+03  1.86786E+03  1.21741E+04
 -5.03668E+03  1.52120E+04 -1.03257E+04  1.67016E+03 -1.28317E+04 -8.33367E+03 -1.80437E+04 -1.82092E+04
 -1.57377E+03 -1.27621E+04  6.74802E+03 -7.41347E+03  9.81975E+03 -6.87641E+03  1.69500E+04 -1.45658E+03
  2.16850E+03  1.11881E+04 -1.54809E+03  4.80207E+02  1.17080E+03 -1.21050E+03 -1.74234E+03 -1.36772E+03
  1.08918E+04  1.58672E+03  7.77449E+03  4.36858E+02  5.79883E+03  1.81610E+04  9.27981E+03  6.50796E+03
 -6.34233E+03  3.74729E+03 -1.22436E+04 -1.17472E+03 -1.12594E+04 -4.38734E+03  5.17649E+03 -1.46132E+04
  1.20333E+04 -1.20223E+04  1.74178E+04  2.31356E+02  1.50041E+04  1.26958E+03  9.13366E+03  1.66048E+03
  3.84616E+03  6.71358E+03 -6.86838E+03  4.88192E+03 -1.55461E+04  1.78884E+03 -6.72245E+03  6.96082E+03
 -3.52607E+03  1.24048E+04  7.79045E+03  4.14746E+03 -5.80926E+03  4.36529E+03 -1.01027E+04  3.49372E+03
 -9.16177E+02 -1.07833E+04 -4.58950E+03 -6.12513E+03  3.82667E+03 -1.41297E+04  8.14736E+03 -9.06682E+03
  7.84021E+03 -7.37832E+03  6.62308E+03  8.50330E+03 -1.61780E+03  4.52960E+03 -1.25241E+04  1.23025E+04
