 $NMID ID='MM_0lb_SNR50_12hz_g55_91.RAW', FMTDAT='(8E13.5)'
 TRAMP=1., VOLUME=1. $END
  3.17147E+05 -2.20340E+02  3.38188E+05  2.53367E+05  8.29925E+04  3.42699E+05 -1.27381E+05  2.51699E+05
 -1.88115E+05  8.17183E+04 -1.10471E+05 -3.09385E+04 -1.22043E+03 -4.93018E+04  5.17912E+04 -7.08160E+03
  3.63583E+04  5.18526E+04 -1.74102E+04  7.68787E+04 -5.92265E+04  6.64097E+04 -8.66527E+04  3.00456E+04
 -8.08790E+04 -7.92156E+03 -5.71295E+04 -4.99854E+04 -1.73889E+04 -6.87560E+04  2.44193E+04 -4.93576E+04
  4.22760E+04  4.41327E+03  1.16414E+04  4.12929E+04 -3.31140E+04  4.62629E+04 -6.80117E+04  2.02440E+03
 -5.98443E+04 -5.97234E+04 -1.26955E+04 -8.00944E+04  3.23827E+04 -5.81335E+04  4.77355E+04 -2.11785E+04
  4.60363E+04  8.36077E+03  2.70531E+04  2.79365E+04  1.56766E+04  3.03691E+04 -5.09658E+03  2.48673E+04
 -2.05200E+04  1.19993E+04 -2.43682E+04 -6.44492E+03  4.21574E+03 -7.80303E+03  2.11249E+04  1.37358E+04
  5.49358E+03  3.56574E+04 -3.01401E+04  3.86278E+04 -6.57763E+04  1.18492E+03 -5.60021E+04 -5.04007E+04
 -1.25699E+04 -6.76250E+04  4.94891E+04 -4.95674E+04  5.99334E+04 -3.81895E+03  3.48862E+04  3.23723E+04
 -6.26050E+03  4.04986E+04 -2.98900E+04  1.64905E+04 -2.90632E+04 -3.70577E+03 -1.85572E+04 -1.05397E+04
 -9.35679E+03 -1.22111E+04  3.83125E+02 -1.79162E+04  8.62720E+03 -1.89964E+04  1.69190E+04 -1.62251E+04
  1.29875E+04  2.02100E+03 -1.02389E+04  1.00904E+04 -2.35503E+04 -2.22990E+03 -7.00383E+03 -4.04450E+04
  2.47588E+04 -4.19240E+04  5.06653E+04 -2.00368E+04  4.46491E+04  1.72820E+04  1.93533E+04  4.27913E+04
 -1.80061E+04  3.33328E+04 -2.72168E+04  2.57040E+03 -5.06605E+03 -2.94236E+04  2.06564E+04 -3.08067E+04
  4.55875E+04 -1.12816E+04  4.11403E+04  2.05872E+04  2.06921E+04  4.75399E+04 -6.52716E+03  5.36576E+04
 -2.90075E+04  3.82290E+04 -4.59796E+04  1.20017E+04 -4.12986E+04 -2.11922E+04 -2.76436E+04 -3.92332E+04
  1.59031E+04 -3.88970E+04  3.50592E+04 -8.90835E+03  2.95709E+04  5.62752E+03  4.63270E+03  2.35297E+04
 -1.34664E+04  1.02155E+04 -1.40086E+04 -4.01157E+03  5.13044E+03 -1.81601E+04  1.44304E+04  4.40012E+03
  2.15569E+04  2.67965E+04 -6.08298E+03  2.28432E+04 -2.47667E+04  1.11145E+04 -3.01660E+04 -3.70910E+03
 -2.37602E+04 -1.52472E+04 -1.09877E+04 -2.29325E+04  8.93649E+03 -1.85597E+04  1.47701E+04 -2.36846E+04
  2.63853E+04 -1.14405E+04  3.28430E+04  5.80401E+03  2.30109E+04  2.36515E+04  8.17641E+03  3.80408E+04
 -2.24092E+04  3.26067E+04 -2.85658E+04  9.58634E+03 -1.34363E+04 -9.99933E+03 -4.30990E+03 -9.57728E+03
  3.15893E+03 -9.81408E+02 -4.39077E+03  7.98844E+03 -1.65768E+04  1.07231E+04 -1.78850E+04 -5.75562E+03
 -1.46155E+04 -2.59293E+04  1.05839E+04 -2.56926E+04  1.99697E+04 -1.77192E+04  1.68030E+04  9.08733E+02
  1.68679E+04  1.27132E+04 -3.04528E+03  1.81873E+04 -7.59427E+03  1.08924E+04 -2.48902E+04 -5.37127E+03
 -1.78670E+04 -2.41044E+04 -7.25156E+02 -2.75295E+04  1.38182E+04 -2.06396E+04  2.11301E+04 -1.31725E+04
  1.45318E+04  7.88212E+02  1.00488E+04  5.97497E+03  1.01867E+04  8.43211E+03  1.32485E+04 -3.44229E+03
  2.16650E+04  1.25272E+03  1.89530E+04  1.57838E+04  1.71824E+04  2.93502E+04  1.08588E+03  4.55939E+04
 -1.92535E+04  2.88714E+04 -3.69712E+04  1.42192E+04 -4.18551E+04 -4.22589E+03 -3.40436E+04 -2.27295E+04
 -1.01687E+04 -3.43168E+04  1.30284E+04 -2.70561E+04  2.58766E+04 -1.53655E+04  2.23699E+04  1.18213E+03
  2.39666E+03  1.35784E+04 -9.25671E+03  1.43725E+04 -1.89279E+04  2.63383E+03 -1.00820E+04 -1.54209E+04
 -6.94224E+03 -1.96551E+04  9.41990E+03 -1.55015E+04  1.17835E+04 -1.09579E+03 -2.23038E+03  8.98148E+03
 -6.20021E+03  7.33229E+02 -5.40940E+03 -8.78655E+03 -2.90148E+03 -1.10916E+04  1.25356E+04 -1.59628E+04
  1.79025E+04 -9.88381E+03  2.36592E+04  6.03970E+03  1.80140E+04  1.31712E+04  1.09165E+04  2.37412E+04
 -1.05386E+04  2.66936E+04 -1.37631E+04  1.73353E+04 -2.37184E+04  3.36700E+03 -1.37964E+04 -7.82942E+03
 -9.81399E+03 -4.83932E+03 -9.86778E+01  2.08246E+03 -4.84806E+03  4.10553E+03 -3.22822E+03  5.00200E+03
 -1.45779E+04 -2.64108E+01 -1.51896E+04 -1.29481E+04 -6.55612E+03 -2.14566E+04  5.23023E+02 -1.61142E+04
  8.83560E+03 -4.23690E+03  1.34712E+04  1.90258E+03 -4.63520E+03  1.32006E+03 -3.40749E+03  2.16667E+02
 -9.50506E+03 -1.51389E+04 -5.31634E+03 -9.56099E+03  2.72772E+03 -1.19631E+04  1.67630E+04 -9.47859E+03
  1.96383E+04  3.10870E+02  1.32297E+04  1.77487E+04  3.65524E+03  1.26579E+04 -7.50650E+03  1.28121E+04
 -9.18375E+03  1.45574E+03 -3.43106E+03 -2.00730E+03  7.51082E+03 -3.66017E+03  6.12928E+03 -1.23539E+03
  5.26894E+03  3.95222E+03 -4.08198E+03  1.16430E+04 -7.59669E+03  1.27098E+04 -1.21867E+04 -1.53735E+03
 -3.93538E+03 -5.35452E+03  1.30469E+03 -1.29353E+04  3.26347E+03 -1.16990E+04  7.27245E+03  1.91920E+03
  3.74969E+02  7.90561E+03 -7.11514E+03  1.20828E+04 -1.16230E+04  7.02609E+03 -1.07012E+04  1.22043E+03
 -6.01940E+03 -1.11112E+04  2.30322E+03 -1.17845E+04  8.58415E+03 -9.39691E+03  1.20525E+04  4.05090E+03
  6.15930E+03  1.64742E+04 -4.20236E+03  1.77376E+04 -5.25916E+03  9.96382E+03 -1.44542E+04 -6.24045E+03
 -9.75307E+03 -9.32934E+03 -1.69530E+03 -5.60964E+03  8.19963E+03 -6.70812E+03  4.56591E+03 -8.89604E+03
  1.82938E+03 -1.14805E+03  4.04988E+03  7.43320E+02 -4.30887E+03 -3.01052E+03  1.81491E+03 -4.80122E+03
  1.17170E+04 -8.00739E+03  1.33928E+04  2.92316E+03  9.98488E+03  8.76051E+03  7.29192E+03  1.44798E+04
 -1.83915E+03  1.77383E+04 -1.51660E+04  1.58968E+04 -1.79324E+04  1.88529E+03 -1.62530E+04 -9.58277E+03
 -5.62470E+03 -1.10453E+04  2.76128E+03 -1.16027E+04  8.90260E+03 -6.71323E+03  5.98732E+03 -5.10379E+03
  8.10727E+03 -3.74871E+03  3.53869E+03 -5.79904E+03  7.60195E+03 -2.29278E+03  5.11262E+03 -3.03508E+03
  5.10685E+03  3.07013E+03  6.68038E+03  8.36832E+03 -4.40151E+03  2.87431E+03 -7.72081E+03  7.50171E+03
 -1.17648E+04 -4.22295E+03 -2.08403E+03 -1.01332E+04  2.22753E+02 -1.55623E+04  1.03357E+04 -1.19238E+04
  1.52929E+04 -8.86990E+03  1.51774E+04 -4.62914E+01  1.00809E+04  1.00985E+04  3.52026E+03  1.42222E+04
 -6.42790E+03  1.20347E+04 -1.32901E+04  2.13064E+02 -3.30070E+03  2.44332E+03 -5.10735E+03  7.38046E+01
  6.60953E+03 -2.13208E+03  4.92852E+02  2.17167E+03 -6.21009E+03  3.90356E+03 -1.30157E+04 -3.10502E+03
 -6.61423E+03 -9.98256E+03  1.76521E+02 -1.82167E+03  8.36628E+03 -8.83023E+03  6.03468E+03 -6.60566E+03
  1.32439E+04  2.29324E+03  6.66837E+03  7.46512E+03  1.23491E+03  1.24793E+04 -9.73143E+03  9.71079E+03
 -1.44676E+04  4.10504E+03 -6.59081E+03 -3.77618E+03 -3.00865E+03 -1.08200E+04  7.94296E+03 -3.75469E+03
  6.86856E+03 -1.06385E+04  6.19062E+03  6.31194E+03  1.45572E+03 -1.53192E+03 -4.60721E+03  3.35634E+03
  6.60945E+02  1.37193E+03  4.53840E+03  9.35553E+02  3.41159E+03  8.51261E+03  1.43015E+03  6.42847E+03
  2.36660E+02  6.27442E+03 -4.41835E+03  8.92250E+03 -9.21924E+03  1.73966E+03 -1.48774E+04 -2.40780E+03
 -6.81116E+03 -7.81829E+03 -8.00757E+03 -9.31485E+03  5.26317E+03 -1.96284E+03  6.68693E+03  2.70272E+03
  4.77235E+03  4.05137E+03 -1.30325E+03  7.05489E+03 -3.20343E+03  2.41719E+03 -3.00721E+03 -1.86734E+03
 -3.08970E+03 -1.06317E+04  2.99550E+03 -4.74611E+03  4.49334E+03  3.06646E+03  3.01092E+03 -1.50175E+02
  2.26160E+03  6.41782E+02 -2.62252E+03  1.12962E+03  8.98275E+02  1.10690E+03  1.93143E+03  1.94003E+03
  7.34101E+02  2.07735E+03  6.38623E+03 -3.10618E+03  2.34189E+03  8.84533E+03 -3.05141E+03  9.63199E+03
 -3.58099E+03 -3.17688E+03 -8.24398E+03  3.20872E+03 -7.13689E+03 -2.91903E+03  6.18181E+02 -3.50979E+03
  4.07104E+03 -2.07438E+03 -8.81238E+02 -7.60723E+01  1.43084E+03  6.09452E+03 -4.18393E+03  5.13382E+03
 -3.86306E+03  3.79484E+03 -4.32342E-02  2.16631E+03 -6.71914E+03 -4.64860E+03  3.71434E+03 -7.92666E+01
 -2.64125E+02 -3.21418E+03  1.05621E+02 -2.78746E+03  1.70040E+02  2.71771E+03  2.37644E+03  1.76303E+03
 -1.91753E+03  5.57719E+02 -4.78280E+03 -5.93574E+03  5.82235E+03 -8.18436E+02  2.30398E+03 -4.01093E+03
  3.18732E+03  4.38476E+03  3.44473E+03  9.81169E+02  1.50812E+03  5.44714E+03 -4.65716E+03  9.35426E+03
 -4.70533E+03 -2.15336E+02 -6.75437E+03  4.22136E+02 -5.29100E+03 -9.12650E+03 -1.92567E+03 -1.68556E+03
  6.29802E+03  1.15432E+03  7.96398E+03 -3.57964E+03  2.81359E+03  8.70701E+02  2.29055E+03  7.18988E+03
 -2.99145E+03  6.02698E+02  3.33342E+03 -4.85510E+03 -2.14849E+03  3.11255E+03 -2.76828E+02  2.44314E+03
 -5.35985E+02  3.28018E+03 -3.30968E+03  2.40047E+03 -1.10723E+04 -5.00116E+03 -7.87762E+03 -4.96894E+03
 -1.79274E+02 -8.04278E+03 -1.06145E+03 -1.32477E+04  6.05714E+03 -3.71233E+03  4.75724E+03 -1.29113E+03
  1.26823E+04  1.98437E+03  1.93341E+03  8.07646E+03 -1.95333E+03  1.04586E+04 -5.58730E+03  3.19814E+03
 -7.52219E+03 -3.35744E+03 -5.22333E+03 -1.29741E+03  5.56962E+03  7.47749E+02 -2.81544E+03 -7.49748E+02
  4.10587E+02 -3.39584E+03 -1.30701E+03 -6.29225E+02 -3.77164E+02 -1.35906E+03  3.95822E+03 -1.09374E+03
 -2.93095E+02 -6.48721E+03  6.82143E+03 -3.93346E+03  5.36648E+03  4.39657E+03  6.06263E+03  2.50695E+03
 -5.69551E+03  5.67605E+03 -6.01891E+03  4.56899E+03 -1.06528E+04 -5.44247E+03 -3.89508E+03 -4.93922E+03
 -2.38097E+03 -1.06115E+04  4.73352E+03 -5.41108E+03  9.54293E+02 -1.97404E+03  3.60863E+03 -1.42480E+03
  1.11156E+03  1.87003E+03 -8.41306E+02  2.85217E+02  1.79267E+03  1.73185E+03 -3.64419E+02 -6.97913E+03
  1.36004E+03  9.51165E+02 -1.43077E+03  7.38377E+03  6.62480E+02  1.04781E+03  1.29958E+03  9.54783E+02
  1.49813E+03  3.20606E+03 -5.51884E+03 -8.85777E+02 -1.01542E+04  3.31673E+03 -1.56042E+03  1.47177E+02
  6.95598E+03 -8.41579E+03  3.29796E+03 -2.02755E+03  4.56727E+03  4.54939E+03  6.47022E+02  8.87085E+03
  2.42819E+02 -2.86633E+03 -1.30118E+03  1.02731E+04 -2.04248E+03  2.65113E+03 -3.61434E+03  1.59588E+03
 -1.37849E+03  3.70922E+03 -2.62951E+03 -4.94701E+03  1.04703E+03 -1.44110E+03 -3.12805E+03 -4.78534E+03
 -6.60592E+03 -4.94972E+03  1.32479E+03 -7.11251E+03  3.13279E+03 -7.71346E+02  4.26083E+03  5.31808E+03
  2.72573E+03 -2.25246E+03  5.19536E+03  3.54274E+03  3.29676E+03  3.87789E+03 -2.15535E+03  2.15856E+03
