 $NMID ID='MM_0lb_SNR50_20hz_g45_83.RAW', FMTDAT='(8E13.5)'
 TRAMP=1., VOLUME=1. $END
  3.10533E+05  1.31671E+03  3.39204E+05  2.51746E+05  8.52093E+04  3.36264E+05 -1.31067E+05  2.50189E+05
 -1.92907E+05  8.18150E+04 -1.11892E+05 -3.15170E+04  4.49365E+02 -5.35224E+04  5.39414E+04 -7.24184E+02
  3.28206E+04  5.53690E+04 -1.97956E+04  7.38138E+04 -6.12687E+04  6.15054E+04 -8.16142E+04  3.13924E+04
 -7.90327E+04 -1.29825E+04 -5.73485E+04 -4.71919E+04 -1.98804E+04 -6.65153E+04  2.44630E+04 -4.36557E+04
  3.59929E+04  6.46458E+03  1.82785E+04  4.82821E+04 -3.37021E+04  4.45888E+04 -6.60134E+04  1.80298E+03
 -5.18684E+04 -5.93693E+04 -5.11173E+03 -7.47226E+04  3.63510E+04 -5.32949E+04  4.71863E+04 -1.46753E+04
  4.00125E+04  1.11195E+04  3.20171E+04  2.45427E+04  2.09798E+04  2.53747E+04 -3.98289E+03  2.85249E+04
 -2.28786E+04  1.28892E+04 -1.94880E+04 -5.62455E+03  7.27920E+03 -6.12088E+03  1.90480E+04  9.58686E+03
  8.14320E+03  3.01387E+04 -3.27553E+04  2.87429E+04 -5.88868E+04  1.84380E+03 -5.62857E+04 -4.14072E+04
 -1.29020E+04 -5.55780E+04  3.96166E+04 -4.00401E+04  5.40481E+04  1.43298E+03  2.89039E+04  3.14480E+04
 -2.88462E+03  3.26450E+04 -2.96819E+04  1.09032E+04 -2.85911E+04 -5.21811E+03 -1.11679E+04 -6.64799E+03
 -8.74755E+03 -1.05575E+04 -1.00447E+03 -1.85500E+04  7.83016E+03 -2.48550E+04  1.27196E+04 -1.16536E+04
  1.19450E+04  5.07033E+03 -9.32461E+03  1.62810E+04 -2.05966E+04 -2.65656E+03 -7.94249E+03 -3.17670E+04
  2.16801E+04 -3.70637E+04  4.44819E+04 -1.71208E+04  3.95662E+04  1.79214E+04  1.39532E+04  4.12726E+04
 -1.34233E+04  3.17992E+04 -2.21442E+04  4.46934E+02 -4.34327E+03 -2.77949E+04  2.19588E+04 -3.19280E+04
  3.78509E+04 -6.64147E+03  3.08535E+04  2.40299E+04  1.19555E+04  4.00668E+04 -7.80190E+03  4.08597E+04
 -2.77667E+04  2.63569E+04 -3.38070E+04  4.92381E+03 -3.79416E+04 -1.63207E+04 -2.45406E+04 -3.40863E+04
  6.56663E+03 -3.30898E+04  2.80946E+04 -1.40170E+04  2.35994E+04  1.01857E+04  2.90751E+03  1.86417E+04
 -2.06753E+04  1.04206E+04 -9.25742E+03 -5.36876E+03  8.63592E+03 -7.82623E+03  1.61829E+04  9.38006E+03
  1.27711E+04  1.87981E+04 -5.58744E+03  2.28754E+04 -2.31222E+04  8.63540E+03 -2.54553E+04 -9.37304E+03
 -1.77456E+04 -1.41892E+04 -4.87398E+03 -1.47588E+04  3.10011E+02 -1.16972E+04  1.27755E+04 -1.42937E+04
  1.76752E+04 -9.03798E+03  2.31510E+04  2.11612E+03  2.52780E+04  1.58009E+04  7.07021E+03  3.02347E+04
 -1.56575E+04  3.19600E+04 -2.48360E+04  6.69222E+03 -2.44685E+04 -1.30671E+04 -2.70437E+03 -1.65505E+04
  6.12166E+03 -4.93505E+03 -4.65654E+03  2.11279E+03 -1.44230E+04  7.98214E+03 -1.27406E+04 -2.20606E+03
 -8.62703E+03 -1.45691E+04  3.57036E+03 -1.93841E+04  1.19104E+04 -1.56324E+04  1.14747E+04  4.61918E+02
  5.93530E+03  8.37057E+03  1.74437E+03  1.34800E+04 -5.48870E+03  7.69773E+03 -1.90618E+04 -5.17293E+03
 -9.90948E+03 -1.13115E+04 -3.79985E+03 -2.10502E+04  4.02133E+03 -1.22234E+04  1.21011E+04 -7.50016E+03
  1.09293E+04  1.85377E+03  4.92401E+03  4.38805E+03  4.52748E+03 -4.74626E+03  7.49326E+03  2.25120E+03
  1.32217E+04  2.68061E+03  1.35034E+04  1.39196E+04  9.80987E+03  1.89164E+04 -7.71429E+03  2.08381E+04
 -1.79085E+04  2.10558E+04 -2.53095E+04  5.90234E+03 -1.88017E+04 -1.11809E+03 -2.04642E+04 -9.97703E+03
 -1.34483E+04 -1.98635E+04  8.29893E+03 -1.66088E+04  1.69445E+04 -5.25308E+03  1.53548E+04  3.44810E+03
  7.78792E+03  9.01421E+03 -2.19159E+03  7.72924E+03 -1.31146E+04  1.14002E+03 -1.22481E+04 -7.00234E+03
 -2.65640E+02 -1.40950E+04  5.13042E+03 -8.27710E+03  8.52877E+03 -1.67837E+03  4.58363E+03 -1.02905E+03
 -4.56107E+03  3.58533E+03 -3.88222E+03 -5.84303E+03  1.36827E+02 -2.48369E+03  3.96490E+03 -6.94423E+03
  1.11474E+04 -2.46350E+03  6.89316E+03  4.62302E+03  1.00319E+04  1.11272E+04  1.58298E+03  1.40222E+04
 -3.61897E+02  1.44215E+04 -8.67685E+03  5.80934E+03 -1.18942E+04 -2.42102E+02 -6.08288E+03 -1.40894E+03
 -3.83447E+03 -2.07606E+03  1.97263E+03 -1.20350E+03 -1.32845E+03 -1.12959E+03 -9.83055E+02  4.71961E+03
 -5.24208E+03  2.15987E+03 -8.03162E+03 -5.30956E+03  1.24442E+03 -8.90828E+03 -2.47467E+03 -4.80137E+03
  6.67283E+03 -4.63333E+03  4.62852E+03 -3.68422E+03  1.90139E+03  1.06876E+03 -2.21335E+03 -2.30276E+03
  5.32093E+02 -4.74456E+03  4.10893E+02 -2.06556E+03  2.81300E+03 -4.87381E+03  6.37467E+03 -5.48717E+03
  1.17507E+04  1.05382E+03  9.81812E+03  6.33172E+03 -1.68280E+03  9.59048E+03 -3.33018E+03  5.84070E+03
 -6.48998E+03  9.72118E+02 -3.22859E+03  8.37887E+02  3.65989E+03 -5.74119E+03  5.52151E+03 -4.03647E+03
  2.02477E+03  6.13768E+03  2.65908E+03  2.67142E+03 -1.80986E+03  4.10664E+03 -7.08414E+03 -2.27220E+03
 -4.04462E+03 -3.14147E+03  1.62863E+03 -4.52178E+03  4.67121E+03 -3.62813E+03  5.14050E+03  2.31701E+03
 -1.09808E+03  1.28389E+03 -3.82860E+03  3.73681E+03 -2.45605E+03  1.69415E+03  5.17042E+02  4.79940E+02
  2.05349E+02 -4.68372E+03  2.45485E+03 -4.00022E+03  2.44643E+03 -4.28595E+03  3.86738E+03 -4.75714E+03
  6.39734E+03 -4.45547E+02  1.13737E+03  3.95321E+03 -7.83975E+03  2.60550E+03 -5.85230E+03  4.00564E+03
 -3.76594E+03 -2.43460E+03  9.12728E+02 -4.79118E+03  1.01436E+03 -3.24425E+03  1.42254E+03 -8.66353E+03
  7.77485E+03 -3.20047E+03 -4.80795E+02  5.52485E+03  8.16134E+02  9.54149E+02  1.70466E+03 -5.83851E+03
  1.53440E+03  4.84426E+03  4.94386E+03  2.80343E+03  3.76730E+03  3.48071E+03  8.70391E+03  1.03350E+04
 -5.50383E+03  1.02569E+04 -5.65010E+03  5.55442E+03 -8.21261E+03  1.18319E+03 -6.92331E+03  1.26179E+02
 -5.00300E+03 -4.04068E+03 -3.33993E+02 -3.38376E+03  1.09461E+02  8.91939E+02 -7.20751E+02 -1.06335E+03
  4.65871E+03 -9.47816E+02  3.26025E+03 -4.10902E+03  6.53407E+03 -2.43265E+03  3.97504E+03 -3.64446E+03
  3.41632E+03  7.37340E+03  1.85313E+03  1.55477E+03 -1.73607E+03  4.11318E+03 -6.07347E+03  4.18821E+03
 -7.75808E+03 -1.61079E+03 -3.35149E+02 -2.57442E+03  1.32054E+03 -3.02015E+03  2.64344E+03 -6.87918E+03
  3.01013E+03  2.47109E+03  6.86165E+03 -2.06877E+03  9.09626E+03 -1.27448E+03 -2.97694E+03  8.01529E+02
 -2.61290E+03  1.14623E+03 -4.00327E+03  2.42036E+03  1.38317E+03 -2.27098E+02  2.04585E+03 -1.87237E+03
 -3.37063E+03 -2.56610E+03 -2.11301E+03  6.40477E+02 -2.51899E+03  1.84750E+03 -5.08701E+03 -2.07641E+03
  4.55031E+02 -1.12528E+04  3.97025E+02 -2.69667E+03  4.31682E+03 -4.74284E+02  2.46804E+03  1.69483E+03
  1.94280E+03 -2.89027E+03  4.04800E+03  4.22117E+03 -9.73949E+02  3.10205E+03  4.72252E+02  7.05784E+03
  3.39720E+03 -3.22517E+03 -2.65288E+01  5.98950E+02  4.99829E+03 -3.63503E+03 -3.74157E+02 -6.68028E+02
  1.64133E+03  6.19802E+00  2.17118E+03 -2.90608E+03 -1.54332E+01 -4.85781E+02 -1.96640E+03 -1.01047E+02
  1.19055E+03 -2.72531E+03  1.47894E+03 -4.82731E+02  3.80559E+03  1.68147E+03  3.11094E+03 -1.24683E+03
 -1.28336E+03  6.84015E+03 -3.61204E+03  1.80069E+03 -9.67038E+02  1.73474E+03 -4.43216E+03 -2.60360E+03
 -2.44142E+03  1.00478E+02 -7.90791E+02 -4.47747E+03  2.38777E+03 -5.02343E+03  8.31304E+02 -4.87183E+03
  4.21174E+03 -3.56922E+02 -1.31423E+03 -2.76793E+02  3.16262E+03 -7.64857E+02  3.88998E+03 -7.72906E+02
  2.06896E+03 -3.79705E+03  1.56369E+02 -1.44071E+03 -2.31706E+03 -8.83180E+02  8.75419E+02 -1.60966E+03
 -2.69186E+03  1.83065E+02  6.89432E+02  4.07599E+03 -1.79150E+03  2.72477E+03  3.26720E+03 -3.32020E+03
 -1.74949E+03 -7.24163E+03  2.03099E+03 -1.34613E+02 -1.19589E+03  2.92656E+03 -4.48742E+03  2.67944E+03
  1.34137E+02  1.86433E+03 -1.94810E+03  2.35147E+03 -1.02618E+03 -7.16255E+02  1.01203E+03  1.67781E+03
 -1.50785E+03 -8.40917E+02  2.17719E+03  3.31097E+03 -4.36553E+03  3.28747E+02 -2.50338E+03  2.58324E+03
 -4.60919E+03  2.71688E+03 -1.07173E+03 -1.95003E+03  3.25193E+03 -2.08175E+03  5.57077E+03  1.51481E+03
 -1.26183E+03  5.07345E+03 -1.69112E+03 -6.18928E+03  1.87423E+03 -1.93123E+03 -1.70709E+02 -2.09710E+02
  2.92589E+03 -6.58771E+02 -2.07949E+03  1.69772E+03  1.70062E+03 -3.14462E+03  3.44627E+03 -3.24194E+03
  4.13993E+03  1.31591E+03 -2.47499E+02 -3.35026E+02  3.07205E+03 -2.52095E+03  2.89794E+03 -3.48994E+02
 -4.71059E+02  2.69991E+03 -3.64834E+03 -1.27276E+03 -4.68377E+03 -2.10933E+03  1.10457E+03 -4.29564E+02
  1.19195E+03  3.52641E+03 -1.34137E+02 -2.85875E+03  1.31748E+03 -2.21415E+03 -7.00620E+02 -7.12380E+02
 -2.02958E+03 -2.37307E+03 -2.55008E+03 -7.69883E+02 -3.03944E+03 -8.56858E+01  4.20684E+03  4.03653E+03
 -7.66610E+01 -1.27133E+03 -1.39437E+03  3.35518E+02 -9.98612E+02  1.45264E+03  2.90690E+02 -2.94515E+03
 -2.97296E+03 -2.97792E+03  4.90844E+03 -2.81121E+03 -1.12867E+02  1.19481E+02 -9.98123E-01 -3.83150E+02
  5.94449E+02  8.31454E+02  3.20872E+03 -9.65978E+02  3.56863E+02  1.61871E+03 -3.45743E+03  1.65048E+03
  1.65019E+03 -1.20394E+03  4.59414E+02 -2.35456E+02 -1.27489E+03  2.66629E+03  3.09768E+02 -2.74497E+03
 -1.35065E+03  1.91820E+01  1.32547E+03  1.47907E+03 -1.50232E+03 -3.13407E+03  3.03118E+03  2.92652E+03
  3.91728E+03 -5.24265E+03 -2.16795E+03 -6.14632E+02  4.75341E+03 -2.45287E+03  1.22740E+03  3.76364E+03
 -9.25997E+02  5.96972E+03 -3.23448E+03  5.01782E+02 -1.51608E+03 -2.85625E+02 -1.84684E+03 -2.03966E+03
 -9.46410E+02 -1.66629E+03  1.27790E+03 -4.75552E+02  2.07605E+03  1.60779E+03  6.63957E+02 -8.51983E+02
 -1.36645E+03 -7.01300E+02  3.46614E+03 -1.94144E+03 -2.54754E+03  2.76254E+03  2.19290E+03  3.38480E+03
  1.45357E+03  9.14086E+02  3.31625E+03 -4.60035E+03  1.54229E+03  1.53525E+01 -1.27879E+03  1.01358E+03
 -2.59259E+03 -2.09108E+03  2.09460E+03  6.92778E+02 -7.62568E+02  6.46753E+02 -1.89673E+03  5.82320E+02
 -3.10738E+02  3.35333E+01  2.77765E+02  3.14403E+03 -1.13808E+03 -1.46599E+02  4.75775E+03 -7.33808E+02
  3.39110E+03  1.36663E+03  1.06233E+03  2.21763E+03 -1.15604E+03  3.07087E+03 -3.21627E+03 -4.35550E+01
 -2.24517E+02 -3.82882E+03 -3.13220E+03  1.83093E+03  1.12128E+03 -2.75516E+03 -2.60708E+03  1.11570E+03
  2.34991E+03 -2.55184E+03  3.05516E+03  7.60562E+02 -3.43967E+03 -2.09495E+03  3.25332E+03  2.10485E+02
  2.07376E+03  1.33449E+03  8.16698E+02 -2.46489E+03  6.85334E+02  4.55514E+02 -5.03972E+03  2.42066E+03
