 $NMID ID='MM_0lb_SNR50_10hz_g60_32.RAW', FMTDAT='(8E13.5)'
 TRAMP=1., VOLUME=1. $END
  3.12735E+05  9.46293E+02  3.37623E+05  2.48472E+05  8.61537E+04  3.39283E+05 -1.31377E+05  2.55360E+05
 -1.96857E+05  8.54442E+04 -1.09869E+05 -2.94443E+04 -7.93121E+03 -5.42083E+04  5.43720E+04 -3.61497E+03
  3.83928E+04  5.35571E+04 -2.24564E+04  7.90463E+04 -5.69378E+04  6.17451E+04 -8.70017E+04  2.86143E+04
 -8.58566E+04 -1.20256E+04 -5.65834E+04 -5.33816E+04 -1.30834E+04 -7.06028E+04  2.64145E+04 -4.64821E+04
  4.10059E+04  8.19665E+03  1.78731E+04  4.87411E+04 -3.64732E+04  5.45829E+04 -7.31494E+04 -5.05015E+02
 -5.57433E+04 -5.64427E+04 -4.83122E+03 -8.00998E+04  3.65529E+04 -5.71520E+04  5.34321E+04 -2.07601E+04
  5.07834E+04  1.29441E+04  3.09614E+04  2.82961E+04  1.62336E+04  3.21786E+04 -7.04846E+03  2.41138E+04
 -2.00684E+04  1.15818E+04 -1.77466E+04 -7.77638E+03  4.93455E+03 -9.67203E+03  3.05212E+04  1.45140E+04
  6.18304E+03  3.88250E+04 -3.57329E+04  3.53665E+04 -6.11004E+04 -3.53404E+02 -5.97823E+04 -4.75144E+04
 -1.86350E+04 -6.22146E+04  4.53706E+04 -5.03437E+04  6.16883E+04 -2.55253E+03  4.07133E+04  3.37904E+04
  6.80238E+02  3.84193E+04 -3.23978E+04  2.55581E+04 -3.48561E+04 -3.69263E+03 -1.24482E+04 -1.58436E+04
 -6.16789E+03 -1.34214E+04 -3.87424E+03 -1.96878E+04  5.60980E+03 -2.21893E+04  1.12431E+04 -6.58827E+03
  8.24861E+03  8.57646E+03 -1.08290E+04  1.64902E+04 -3.02402E+04 -7.11946E+03 -1.16821E+04 -3.88768E+04
  2.39476E+04 -4.92314E+04  5.38504E+04 -2.02307E+04  4.91805E+04  2.06049E+04  1.17255E+04  5.30142E+04
 -1.75103E+04  4.02026E+04 -2.58024E+04 -5.27629E+03 -1.47667E+04 -2.93446E+04  2.42638E+04 -4.04237E+04
  4.88991E+04 -6.65300E+03  4.07992E+04  2.21048E+04  2.07289E+04  4.79204E+04 -4.88962E+03  5.15160E+04
 -3.08703E+04  4.07425E+04 -4.41260E+04  7.78835E+03 -4.22800E+04 -1.80313E+04 -2.52882E+04 -4.53286E+04
  1.37564E+04 -4.53713E+04  3.21541E+04 -1.53467E+04  3.13674E+04  8.60131E+03  7.73395E+03  2.42944E+04
 -1.71546E+04  1.11032E+04 -1.72711E+04 -5.58938E+03  7.70192E+03 -1.37866E+04  1.60871E+04  8.37330E+03
  1.47253E+04  2.48398E+04 -3.49244E+03  2.02448E+04 -2.31003E+04  6.44559E+03 -3.73537E+04 -4.69019E+03
 -2.64089E+04 -2.36306E+04 -1.51080E+04 -2.64611E+04  5.00244E+03 -2.42084E+04  2.68344E+04 -1.96119E+04
  3.39803E+04 -8.28017E+03  3.39370E+04  5.78452E+03  3.17126E+04  2.64699E+04  4.74493E+03  3.50645E+04
 -1.60164E+04  4.05665E+04 -3.31334E+04  1.65099E+04 -2.49986E+04 -5.79293E+03 -6.98467E+03 -1.06987E+04
 -3.29086E+03 -4.58121E+03 -3.93699E+03  8.52163E+03 -1.78185E+04  3.47054E+03 -2.09094E+04 -6.43694E+03
 -2.06619E+04 -2.28090E+04  8.67589E+03 -3.19362E+04  1.81816E+04 -1.88793E+04  2.26550E+04 -6.69204E+01
  1.26090E+04  1.38466E+04 -1.64897E+03  2.13540E+04 -1.51788E+04  1.55928E+04 -2.03624E+04 -3.54653E+03
 -1.75368E+04 -1.88442E+04 -6.34120E+03 -3.12061E+04  1.28944E+04 -2.69692E+04  2.07945E+04 -1.35569E+04
  1.84368E+04  5.59083E+03  1.50121E+04  4.86645E+03  7.76644E+02  1.47404E+03  9.72562E+03 -2.35830E+03
  1.55582E+04  4.31056E+03  2.83596E+04  1.62077E+04  1.36215E+04  3.91159E+04 -7.43206E+03  4.30899E+04
 -2.26228E+04  3.58533E+04 -3.85534E+04  2.07251E+04 -4.31270E+04 -1.98681E+02 -3.27872E+04 -2.44982E+04
 -1.39003E+04 -3.60939E+04  1.26183E+04 -3.41445E+04  2.96828E+04 -1.21290E+04  2.35093E+04  1.07250E+04
  8.41117E+03  2.33181E+04 -1.02883E+04  1.52456E+04 -1.69453E+04  1.28118E+04 -1.50493E+04 -1.28116E+04
 -3.15666E+03 -2.10203E+04  1.08391E+04 -1.44631E+04  1.35415E+04  3.18332E+03  1.01603E+03  8.47766E+03
 -9.74681E+03  7.34859E+03 -6.80229E+03 -6.88082E+03 -1.41498E+03 -1.29536E+04  1.44962E+04 -1.95877E+04
  2.33345E+04 -1.46540E+04  2.61780E+04  1.35445E+03  2.18772E+04  1.52658E+04  1.37081E+04  3.21416E+04
 -7.36203E+03  3.45153E+04 -1.88461E+04  1.89231E+04 -2.40890E+04 -1.61252E+03 -1.53857E+04 -3.78838E+03
 -8.39467E+03 -1.01539E+04 -1.64044E+03  2.12556E+03 -2.01337E+03  1.17393E+04 -9.60225E+03  2.34431E+03
 -1.56129E+04 -1.94662E+03 -1.53289E+04 -7.16668E+03 -4.39928E+03 -1.88565E+04  6.61615E+03 -1.41255E+04
  4.96167E+03 -1.95424E+02  4.03011E+03  5.53056E+01 -5.56408E+01  7.11285E+03 -6.68855E+03  1.05257E+03
 -7.69249E+03 -3.87121E+03 -3.30203E+03 -9.09776E+03  9.30022E+03 -1.67842E+04  2.39127E+04 -6.27302E+03
  2.59228E+04  4.29744E+03  1.94093E+04  1.51458E+04  7.01991E+03  2.22714E+04 -8.23760E+03  1.99471E+04
 -1.51019E+04  1.61433E+03 -2.18698E+03 -4.35817E+03  5.02453E+03  1.45752E+03  1.59922E+04  3.38848E+03
  8.19077E+03  7.57533E+03  1.31833E+03  1.30647E+04 -3.17575E+03  1.02282E+04 -2.01573E+04  1.85138E+02
 -1.56670E+04 -1.16923E+04 -2.65175E+02 -1.12481E+04  5.53345E+03 -1.08409E+04  1.33061E+04  3.76197E+03
  7.76695E+03  1.34234E+04 -1.06113E+04  1.37129E+04 -1.52404E+04  4.73854E+03 -1.41643E+04  2.84844E+03
 -5.77938E+03 -1.29477E+04  3.34657E+03 -1.13060E+04  1.97253E+04 -1.13662E+04  2.13476E+04 -2.43786E+03
  6.46302E+03  1.67766E+04 -1.67650E+03  1.55317E+04 -1.32364E+04  2.84547E+03 -1.56076E+04  2.80943E+02
 -9.12464E+03 -1.89640E+04 -7.36119E+02 -1.03677E+04  2.97599E+03 -9.24561E+03  1.39657E+04  4.45190E+03
  7.20043E+03 -2.25895E+03 -5.83181E+03  1.02458E+03 -1.75601E+03 -4.93006E+03 -1.00094E+02 -6.68586E+03
  1.68662E+04 -7.28884E+03  1.80143E+04 -5.07284E+03  2.07926E+04  1.25613E+04  1.23320E+04  1.91608E+04
 -1.18173E+03  2.66007E+04 -1.31593E+04  1.25377E+04 -2.14630E+04 -4.33864E+01 -2.41121E+04 -2.76222E+03
 -6.16270E+03 -1.32964E+04  3.83031E+03 -1.35962E+04  9.26558E+03 -1.08300E+04 -3.33040E+03 -1.14799E+04
  2.46104E+02 -4.24845E+03 -2.20125E+01 -4.61930E+03  8.99922E+03 -5.29868E+03  5.43004E+03 -1.17120E+03
  1.22190E+04  1.18141E+03  3.91063E+03  7.61327E+03 -4.83591E+03  1.06861E+04 -7.95202E+03  5.12248E+03
 -1.45392E+04 -5.40868E+03 -8.55747E+03 -8.91568E+03  3.69788E+03 -2.38724E+04  1.31355E+04 -1.10732E+04
  1.91778E+04 -9.03914E+03  1.46065E+04  1.75085E+03  1.48712E+04  1.15123E+04 -6.59422E+03  1.37914E+04
 -3.03561E+03  9.79456E+03 -7.11994E+03  1.27164E+03 -1.05349E+04 -7.42855E+02  1.69959E+03  3.44692E+01
 -5.30847E+03  6.26771E+01 -1.69955E+02  1.26564E+03 -8.14512E+03  3.36805E+03 -5.77693E+03  5.43763E+03
 -3.96735E+03 -4.95836E+03  4.43719E+03 -1.82818E+04  5.76408E+03 -1.27658E+04  1.08048E+04 -6.62116E+03
  2.19868E+04  4.11754E+03  4.91987E+03  1.11022E+04 -6.63259E+03  1.49113E+04 -7.61205E+03  9.80879E+03
 -1.28764E+04  1.60370E+02 -8.45356E+03 -1.20557E+04  6.70000E+03 -1.41457E+04  5.09843E+03 -7.96489E+03
  6.80120E+03 -4.50183E+03  4.21906E+03  4.92279E+03  1.85120E+03  6.12640E+03 -2.76936E+03  3.85974E+03
 -2.83383E+03  3.90300E+03  1.06275E+04 -3.69773E+02  2.55595E+03  7.23714E+03 -2.47430E+02  1.16654E+04
 -6.21664E+03  1.68993E+04 -9.82977E+03  1.01508E+04 -1.88947E+04  4.87143E+03 -1.54727E+04 -3.09402E+03
 -1.46073E+04 -1.56703E+04  3.10407E+03 -1.74606E+04  9.72782E+03 -1.09220E+04  1.48115E+04 -5.17052E+03
  7.32897E+03  1.01475E+04  2.04934E+03  1.25400E+04 -4.34294E+03  4.92669E+03 -7.49451E+03  2.76437E+03
 -3.50521E+03 -3.87368E+03 -4.53488E+02 -5.38226E+03 -6.98014E+01 -6.43293E+02  5.42030E+03  1.22056E+03
 -1.11608E+03  1.19608E+03  3.74010E+03  6.38634E+02  6.71152E+02  2.99856E+03  1.00518E+03  3.45052E+03
  1.87116E+03  1.69421E+03  1.20691E+04  5.81662E+03 -3.37605E+03  9.94134E+03 -2.59191E+03  8.42531E+03
 -1.27877E+03  1.45762E+03 -4.38495E+03  7.55525E+03 -1.03917E+04  3.38766E+02 -3.19132E+03 -6.49711E+03
  3.89825E+03 -8.02510E+03  6.73788E+03 -1.09714E+03  1.38476E+03  7.58250E+03  4.24548E+01  7.19634E+03
 -1.17514E+04 -2.40539E+03 -9.50460E+03 -9.51324E+03 -9.31931E+03 -7.59871E+03  1.37197E+01 -6.35527E+03
  9.19360E+03 -4.16202E+03  7.65456E+02  4.79827E+03 -2.34461E+03  6.51255E+03  6.03196E+03  2.10381E+03
 -3.10704E+03 -5.12565E+03 -1.45463E+03 -4.45731E+03 -6.84617E+02 -1.23206E+04  3.89712E+03 -7.59187E+03
  6.16214E+03 -1.07795E+03  1.17209E+04  4.91680E+03 -1.61009E+02  4.20186E+03 -1.80724E+03  6.69069E+03
 -1.08799E+03 -3.03602E+03 -9.65185E+03  2.65530E+02 -1.11722E+04 -3.98563E+03  4.27637E+03 -5.23206E+03
  4.62439E+03 -3.87277E+03 -2.32331E+02  6.51168E+03  2.08352E+03  7.52381E+03  1.13986E+03  5.25703E+03
 -3.76536E+03  4.61829E+02 -4.06673E+02  6.56563E+02  1.82168E+03  4.18330E+03 -3.57382E+03 -2.22689E+03
 -5.25233E+01  8.99308E+03 -5.52146E+03  7.81693E+03 -1.08133E+04  3.04583E+03 -8.90306E+03 -4.87721E+03
 -9.70255E+03 -1.65626E+04  5.56935E+02 -2.29062E+04  8.23364E+03 -1.50054E+04  1.32789E+04 -4.23588E+03
  8.04171E+03  5.56490E+03  3.19520E+03  9.75378E+03 -1.17584E+03  7.59591E+03 -4.77476E+03  8.11992E+03
 -2.93676E+03 -4.68951E+02 -6.44400E+03  2.92770E+03 -2.75768E+03 -7.11883E+02 -1.53454E+03 -3.01454E+03
  1.28465E+03  7.16577E+03 -3.84544E+03 -1.42760E+02  3.30514E+03  1.89690E+03  3.39004E+03 -4.87115E+03
  9.93214E+03  3.23621E+03  1.02566E+04 -5.35290E+02  8.53784E+03  1.69000E+03  2.89685E+03  4.37808E+03
 -7.43728E+03  1.44672E+04 -4.61767E+03  7.73458E+03 -3.93834E+03  3.73639E+03 -1.24943E+04 -1.11034E+04
  1.39778E+03 -1.06991E+04  1.05125E+03 -7.67172E+03  2.50351E+03 -4.68437E+03  1.29946E+04  5.10165E+03
  4.27277E+03  5.21017E+03  4.27381E+03  3.89311E+03 -1.91232E+03  6.08805E+03 -1.54888E+03 -1.65346E+03
  5.60574E+03  4.17094E+03  9.20880E+03 -2.39262E+01  4.63880E+03  1.11385E+04  2.09849E+03  2.80994E+03
 -6.07534E+03  8.20806E+03 -7.27475E+03  3.69042E+03 -4.70043E+03  2.60216E+03 -3.14827E+01 -4.77777E+02
  5.51195E+02 -4.46555E+03  7.58013E+03  2.93896E+03  8.45602E+03  5.03294E+03  8.04123E+03  1.11778E+04
  1.20699E+02  1.91580E+03 -7.91818E+03  5.85943E+03 -1.24808E+03  4.80896E+03 -2.13778E+03  4.08982E+03
 -6.33533E+03 -2.03967E+03 -8.55680E+03 -1.00981E+03 -4.98836E+03 -3.56998E+03 -3.58974E+03 -1.58630E+03
 -1.02764E+04 -1.02246E+04  1.98521E+03 -9.96166E+03  1.24551E+03 -5.30388E+03  7.73948E+03 -6.58021E+03
  9.73527E+03  1.76854E+03  7.48674E+03  7.08463E+03 -9.20831E+02  5.99197E+03 -3.66176E+03 -2.12973E+02
