 $NMID ID='MM_0lb_SNR50_19hz_g55_66.RAW', FMTDAT='(8E13.5)'
 TRAMP=1., VOLUME=1. $END
  3.12291E+05  2.02574E+03  3.37136E+05  2.54308E+05  8.25149E+04  3.40718E+05 -1.36584E+05  2.48573E+05
 -1.90887E+05  8.06424E+04 -1.11640E+05 -3.09949E+04 -2.32055E+03 -4.80652E+04  5.27962E+04  1.30969E+02
  3.35722E+04  5.45566E+04 -1.97399E+04  7.28868E+04 -6.26552E+04  6.54122E+04 -8.45126E+04  3.19854E+04
 -7.84769E+04 -1.22050E+04 -5.67419E+04 -5.36197E+04 -1.22382E+04 -6.57383E+04  2.99752E+04 -4.15274E+04
  4.39580E+04  5.08677E+03  1.53119E+04  4.67686E+04 -3.25319E+04  4.52184E+04 -6.28372E+04 -2.14772E+03
 -5.04956E+04 -5.61112E+04 -6.79322E+03 -7.53316E+04  2.84787E+04 -5.38018E+04  5.11492E+04 -1.94840E+04
  3.97027E+04  1.23426E+04  2.59759E+04  2.69171E+04  1.92877E+04  2.67944E+04 -7.36174E+03  2.57161E+04
 -2.42109E+04  1.14629E+04 -2.19098E+04 -6.20606E+03  2.53871E+03 -5.94975E+03  2.19245E+04  1.52782E+04
  1.18903E+04  3.51798E+04 -2.86686E+04  3.33070E+04 -6.10042E+04  6.46848E+03 -5.78591E+04 -4.39570E+04
 -1.21163E+04 -6.01867E+04  4.17722E+04 -4.24528E+04  5.81602E+04 -2.52464E+03  3.18766E+04  3.03022E+04
 -3.40838E+03  3.47913E+04 -2.97875E+04  1.48335E+04 -2.78122E+04 -6.46797E+03 -1.11222E+04 -1.34275E+04
 -6.84785E+03 -1.83809E+04 -3.22467E+03 -1.58465E+04  6.03985E+03 -2.48212E+04  1.75348E+04 -1.25589E+04
  1.79582E+04  3.96953E+03 -1.15070E+04  8.71501E+03 -2.39622E+04 -4.29251E+03 -9.73445E+03 -3.11866E+04
  2.19387E+04 -4.14991E+04  5.00292E+04 -1.84732E+04  4.61463E+04  1.60601E+04  1.58937E+04  4.04164E+04
 -1.39844E+04  3.28684E+04 -1.76666E+04  2.48007E+03 -6.96464E+03 -2.15919E+04  2.08399E+04 -2.94287E+04
  4.00290E+04 -6.05503E+03  3.01659E+04  2.08509E+04  1.33002E+04  4.43147E+04 -7.37731E+03  4.36499E+04
 -2.92103E+04  2.74231E+04 -4.33311E+04  1.17272E+04 -3.84046E+04 -1.36541E+04 -2.15714E+04 -3.59559E+04
  6.76439E+03 -3.69840E+04  3.36174E+04 -1.44318E+04  2.68701E+04  1.01822E+04  4.62347E+03  2.29009E+04
 -1.08706E+04  1.14997E+04 -9.69864E+03 -1.16862E+04  4.66202E+03 -7.88053E+03  1.76730E+04  7.66025E+03
  1.31637E+04  2.37837E+04 -7.17618E+03  2.51245E+04 -2.30874E+04  1.26304E+04 -2.17717E+04 -8.06501E+03
 -1.88549E+04 -1.42159E+04 -5.95991E+03 -1.66664E+04  2.56687E+03 -1.68083E+04  1.74341E+04 -1.61035E+04
  2.13110E+04 -1.62423E+04  2.95525E+04 -1.22540E+03  2.28873E+04  2.26509E+04  3.40784E+03  3.62279E+04
 -1.48009E+04  3.00878E+04 -2.45019E+04  1.06627E+04 -1.61934E+04 -1.09397E+04 -4.26194E+03 -1.86488E+04
  3.41492E+03 -7.08077E+03 -2.55895E+03  5.03123E+03 -1.08552E+04  6.88895E+03 -1.13481E+04 -5.19442E+03
 -8.32259E+03 -1.32805E+04  4.46707E+03 -1.81611E+04  1.59138E+04 -1.54654E+04  1.81006E+04  2.24749E+02
  1.23971E+04  1.16805E+04 -6.90243E+03  1.59351E+04 -8.64493E+03  7.49534E+03 -1.29950E+04 -3.11022E+03
 -1.20665E+04 -1.38494E+04  1.44539E+03 -1.62464E+04  6.61542E+03 -1.08224E+04  1.82064E+04 -1.06060E+04
  1.32215E+04 -2.00115E+03  8.94378E+03  2.63974E+03  3.41179E+03  1.61396E+03  6.71532E+03 -7.64230E+02
  1.26909E+04  7.13004E+03  1.56166E+04  1.29248E+04  1.00759E+04  2.67594E+04 -4.55741E+03  2.97696E+04
 -1.65509E+04  2.11833E+04 -2.08816E+04  1.08295E+04 -2.38226E+04  8.74703E+01 -2.08649E+04 -1.18940E+04
 -8.72369E+03 -1.80225E+04  9.31768E+03 -1.63748E+04  1.28687E+04 -1.17240E+04  1.49564E+04  6.63377E+03
  6.02618E+03  1.22913E+04 -1.30053E+04  1.27076E+04 -9.48035E+03  3.74785E+03 -8.93306E+03 -9.68473E+03
  1.08276E+03 -1.38441E+04  7.11377E+03 -7.45954E+03  8.06764E+03 -7.93306E+03  2.25651E+03  5.48970E+03
 -6.64741E+03  3.67003E+03 -5.92700E+03 -2.61414E+03  1.34919E+03 -7.24691E+03  5.08720E+03 -1.31606E+04
  1.34793E+04 -4.38783E+03  1.23571E+04  3.76300E+03  8.87082E+03  6.94418E+03  1.84551E+02  1.75755E+04
  3.18954E+03  1.44237E+04 -1.12918E+04  8.56446E+03 -7.45888E+03  2.76151E+03 -1.28170E+04 -2.37164E+03
 -6.30639E+03 -4.79331E+03  1.04707E+03  6.99396E+01  1.08121E+03  2.60144E+03 -6.09710E+03  5.83605E+03
 -7.77463E+03 -4.44077E+03 -1.12654E+04 -9.54523E+03 -3.06647E+03 -7.18834E+03  6.33711E+03 -9.71657E+03
  7.04735E+03 -4.28468E+03  6.18165E+03  4.03408E+03 -2.34218E+02  4.61077E+03 -3.25727E+03  2.22196E+03
 -4.36812E+03 -4.60768E+03  5.69618E+02 -6.90921E+03  5.35649E+03 -1.33040E+04  8.17930E+03 -4.12240E+03
  7.58394E+03  2.83542E+03  6.01041E+03  9.83153E+03 -2.71136E+03  1.63233E+03 -4.25869E+02  7.56500E+03
 -9.88369E+03  5.48447E+03 -8.27781E+02 -2.78354E+03  5.20079E+02 -3.46928E+03  3.42386E+03 -3.61902E+03
 -6.35211E+02  2.24547E+03 -8.68488E+02  8.07007E+03 -5.75257E+03  3.97497E+03 -4.76156E+03  4.25431E+03
 -6.99539E+03 -4.74778E+03  8.56834E+02 -5.66312E+03  6.39577E+03 -1.88880E+03  1.70315E+03 -1.99121E+03
  3.66391E+03  1.69175E+03 -4.05315E+03  5.66752E+03 -7.22597E+03  1.68771E+03 -3.73552E+03 -4.68198E+03
 -3.52443E+03 -3.58597E+03  1.95762E+03 -3.41303E+03  3.99618E+03 -3.48541E+03  8.75597E+03 -4.51491E+03
  3.55941E+03  6.97674E+03 -3.31815E+03  5.35265E+03 -5.95164E+03  5.10488E+03 -5.78908E+03  4.55167E+01
 -7.44507E+03 -6.16711E+03 -7.77930E+01 -4.26380E+03 -6.24747E+02 -2.47745E+03  3.16913E+03 -7.59166E+03
  5.53760E+02 -9.03675E+02 -3.46128E+03 -1.50025E+03  4.97036E+03  1.74597E+03  1.37543E+03 -7.72190E+02
  1.46811E+03  3.10982E+02  6.23284E+02 -1.04594E+03  4.02802E+03  4.05677E+03  1.09402E+03  5.64058E+03
 -2.61758E+03  4.95658E+03 -1.07277E+04  9.78528E+03 -1.16418E+04  5.74524E+03 -8.64716E+03 -1.43652E+03
 -4.28690E+03  2.52662E+02  2.36485E+03 -3.67124E+03 -1.58170E+03  8.65938E+02  1.93731E+03  3.43408E+02
 -2.27079E+03 -5.51291E+03  1.96886E+03 -1.30609E+03  6.31633E+03 -3.38972E+03  2.91322E+03  2.45744E+02
  7.61685E+03 -1.81422E+03  6.25453E+02  3.15769E+03 -4.32104E+03  3.13008E+03 -2.48520E+03 -2.15570E+03
 -2.04457E+03  1.28062E+02  1.95691E+03 -3.53957E+03 -1.54148E+03 -4.35110E+03  6.82979E+03 -5.82849E+03
  2.37267E+03 -2.31039E+03  6.26392E+02  3.22815E+03  2.72569E+03  4.98705E+03 -1.62488E+03  8.57494E+03
 -3.60808E+03  3.81152E+03 -4.15370E+03 -1.91846E+02 -2.85710E+03 -6.18654E+03  4.78637E+02 -1.72581E+03
 -6.57217E+02  2.25320E+02  1.19090E+03  1.27553E+03 -5.24558E+03  8.78219E+01 -5.81460E+02  3.07549E+03
  1.32792E+02 -4.71873E+03  2.03716E+03 -2.19933E+03  4.11048E+02  4.28539E+02  1.78693E+03 -1.71752E+02
  7.89163E+03  1.93158E+03  3.28843E+03  1.94561E+03 -8.13027E+02  3.32298E+03 -2.55933E+02  7.23864E+02
 -4.17347E+03 -2.84614E+03 -3.33961E+03  2.70598E+01  4.38859E+03 -8.12639E+02  2.29765E+03 -7.79304E+03
  4.15953E+03 -5.82734E+02 -2.62075E+02 -1.33938E+03  2.98738E+02  3.73876E+03  1.26769E+03  1.48680E+03
  2.56260E+03  3.90551E+03  1.30169E+03  3.02356E+03  2.08881E+02  3.17490E+03  2.10421E+02 -1.90592E+02
 -8.17521E+03  3.32330E+03 -1.16453E+03  4.18397E+03 -1.50279E+03  2.68069E+03 -3.93141E+03 -1.33604E+03
  1.93106E+03 -2.27742E+02  1.18904E+03 -2.56997E+03  5.87966E+02  2.14356E+02 -8.17980E+02 -2.69918E+01
  4.70990E+03  2.94923E+03 -1.83460E+02  7.05894E+03  2.13372E+03  3.16923E+03 -3.30297E+03  5.24703E+03
  1.10214E+03 -1.53311E+03  1.70944E+03 -1.53262E+03  5.18785E+03  3.10128E+01 -2.30401E+03 -3.54679E+03
  2.73712E+03  4.01213E+02 -2.82288E+03 -7.57965E+02 -1.98969E+03  3.11541E+03  2.62671E+03 -1.69615E+03
 -3.55676E+03  2.01027E+03  2.32233E+03 -2.86044E+02  3.68804E+02  2.03740E+03 -2.03151E+03  5.25917E+03
 -1.08752E+03 -4.15414E+03 -2.90980E+02 -8.02603E+02 -3.34677E+02  3.70375E+02  2.18539E+03 -1.51908E+03
  3.15347E+03  1.65501E+03 -2.24580E+02  2.33532E+03  1.28486E+03  4.28112E+02  3.23002E+03 -5.83397E+02
 -3.14977E+03 -5.10396E+03 -6.73261E+02 -3.60007E+03 -4.96110E+02  2.90086E+03  5.72354E+02 -2.41091E+03
  2.59989E+03  1.05290E+03 -2.78428E+03 -3.33253E+03 -1.57435E+03 -2.29647E+03  2.68286E+03  2.30897E+03
 -9.96744E+02 -9.59508E+02 -2.63579E+03 -3.93299E+03  3.13830E+03 -3.14289E+03  2.62383E+03 -2.98008E+03
 -3.69576E+03  7.58049E+02  3.04140E+03 -3.24006E+03  2.60247E+03  2.12168E+03  6.72286E+03 -3.11163E+03
 -1.93923E+03  1.00775E+03 -2.86656E+03  1.98519E+03 -4.60848E+03 -1.42484E+03  3.96436E+03 -2.05205E+03
 -2.57470E+02 -3.77472E+02  4.27348E+03 -3.12891E+03 -1.78473E+03  5.95753E+03 -4.58708E+03 -2.10971E+03
 -1.84426E+03 -7.81347E+02 -3.36026E+03 -4.71213E+02  2.06392E+02  2.71306E+03 -2.45119E+03  1.26624E+03
 -3.40079E+03  1.67154E+03 -4.00948E+03  4.74114E+03 -8.64440E+02  1.95310E+03 -2.53581E+03 -4.91281E+03
  2.62082E+03 -3.25854E+03 -2.75635E+03 -3.19453E+03 -1.55504E+03 -4.90314E+02  8.30633E+03 -4.96347E+03
  3.34587E+03 -1.07385E+03 -1.23963E+03  7.85287E+02 -7.41517E+01 -1.65045E+03 -6.40170E+02 -4.22968E+03
 -3.11247E+02 -3.77685E+03 -2.73379E+03 -1.23085E+03 -2.69860E+03 -3.71692E+02  2.21986E+03 -1.43788E+03
 -3.86671E+03  2.39259E+03  2.41663E+02 -3.39164E+03 -1.43664E+03  2.02736E+03  1.96384E+03 -6.40031E+03
  5.25596E+03  3.52158E+03  2.50205E+03 -4.08783E+03  1.54042E+03  1.62577E+02 -1.22270E+03  3.53602E+03
  3.99548E+03  5.02692E+03 -1.77046E+03  3.15198E+03 -3.01724E+03 -3.80648E+03 -1.22127E+03 -1.41045E+03
  4.91221E+02 -6.91694E+02 -1.26695E+03 -3.09421E+02 -6.65003E+02 -7.85391E+02 -1.71900E+03  2.34995E+03
  2.56314E+03 -2.72106E+02  1.20511E+02  6.90903E+02 -2.92650E+03 -1.06820E+03 -2.92746E+03  1.22330E+03
  5.01687E+02  3.91525E+03 -2.50115E+03  4.59835E+03  4.94709E+03  2.67994E+03  1.61505E+03  1.61144E+03
  1.13447E+03  4.20278E+03 -1.54681E+03 -5.38205E+02 -2.20178E+02 -3.56012E+02 -2.73039E+02 -2.04116E+03
 -3.82383E+03 -3.18616E+02 -4.12511E+03  2.81654E+03  3.95209E+03 -8.72594E+02  2.46436E+03 -2.08204E+03
 -2.00663E+03 -2.68159E+03  1.42713E+03 -2.81474E+02  2.92232E+03  1.62767E+03  1.18597E+03  2.82321E+03
 -9.49382E+02  4.19955E+03  5.56762E+02  3.21216E+03 -1.23593E+03 -8.93006E+02 -2.97009E+03 -1.76923E+03
  4.96959E+02  4.96849E+03 -3.64443E+02 -4.84577E+02  1.47498E+03 -1.03991E+03  2.32283E+03 -2.48858E+03
  1.42411E+03 -8.06011E+01 -2.56072E+03  2.96737E+03 -2.73616E+03  3.59366E+03  3.39590E+02  1.12004E+03
