 $NMID ID='MM_0lb_SNR50_10hz_g60_48.RAW', FMTDAT='(8E13.5)'
 TRAMP=1., VOLUME=1. $END
  3.10776E+05  1.99067E+02  3.34433E+05  2.52279E+05  8.71028E+04  3.36487E+05 -1.33876E+05  2.52544E+05
 -1.86452E+05  8.39101E+04 -1.11943E+05 -2.94063E+04  1.50615E+03 -5.06035E+04  5.33917E+04  2.59185E+03
  3.95888E+04  5.23089E+04 -1.23629E+04  8.12727E+04 -6.05438E+04  6.55170E+04 -8.47543E+04  2.45500E+04
 -7.70020E+04 -1.70630E+04 -6.38542E+04 -4.83366E+04 -1.22159E+04 -7.30005E+04  3.27482E+04 -4.70028E+04
  3.97382E+04  9.02049E+03  2.06481E+04  5.42183E+04 -3.71391E+04  5.29952E+04 -6.48153E+04  4.25697E+02
 -5.53773E+04 -6.20316E+04 -1.12338E+04 -7.47670E+04  3.25200E+04 -5.48149E+04  4.84140E+04 -2.05826E+04
  4.57833E+04  1.28541E+04  3.04631E+04  2.83192E+04  1.46531E+04  2.82049E+04 -9.46461E+03  2.91422E+04
 -2.18037E+04  1.72836E+04 -2.10146E+04 -6.24780E+03  8.01852E+03 -4.95728E+03  2.27785E+04  2.35176E+04
  5.92305E+03  3.79659E+04 -2.94707E+04  3.81723E+04 -6.05626E+04  2.53122E+03 -5.81611E+04 -4.16254E+04
 -1.03989E+04 -6.30454E+04  4.40348E+04 -5.02350E+04  6.30967E+04 -8.89235E+02  3.79384E+04  3.62144E+04
 -7.29376E+03  3.21013E+04 -3.21962E+04  1.55273E+04 -3.72791E+04 -4.93028E+03 -2.23232E+04 -1.00880E+04
 -8.58411E+03 -1.50064E+04 -9.56509E+03 -2.29778E+04  8.10465E+03 -2.84223E+04  1.17337E+04 -3.26442E+03
  7.59326E+03  6.09292E+03 -9.97632E+03  1.50117E+04 -2.63412E+04 -4.71317E+03 -1.38557E+04 -3.71874E+04
  2.25744E+04 -5.22474E+04  5.41339E+04 -2.61683E+04  4.64318E+04  2.30183E+04  2.05370E+04  4.88441E+04
 -1.28290E+04  3.22016E+04 -3.10575E+04 -6.13557E+02 -5.81742E+03 -2.70297E+04  1.88786E+04 -3.96053E+04
  4.24145E+04 -1.02401E+04  4.14146E+04  2.67407E+04  2.12305E+04  5.74097E+04 -6.20159E+03  6.07514E+04
 -3.25479E+04  3.66518E+04 -5.04516E+04  1.42476E+04 -4.39016E+04 -1.32190E+04 -2.43869E+04 -3.23655E+04
  4.51583E+03 -4.29622E+04  3.69578E+04 -1.08274E+04  3.74589E+04  1.34734E+04  8.47517E+03  2.42018E+04
 -1.63265E+04  7.95471E+03 -1.03791E+04 -9.21751E+03  9.24035E+03 -8.70960E+03  1.70254E+04  7.04996E+03
  1.37702E+04  1.95619E+04  3.30187E+03  2.18801E+04 -1.84897E+04  1.34559E+04 -3.62298E+04 -4.84298E+03
 -2.18617E+04 -1.13786E+04 -1.66933E+04 -2.32936E+04  9.12434E+03 -2.24457E+04  2.05195E+04 -2.71394E+04
  2.69154E+04 -1.48594E+04  3.72873E+04  4.64830E+03  3.20427E+04  2.81422E+04  3.82500E+03  4.30978E+04
 -2.60666E+04  3.31610E+04 -3.46413E+04  1.50266E+04 -1.71605E+04 -1.09405E+04 -7.45628E+03 -4.13126E+03
 -3.66410E+03  1.10626E+03 -4.75442E+03  8.38603E+03 -1.96180E+04  6.92744E+03 -1.84515E+04 -1.23620E+04
 -1.44303E+04 -2.40578E+04  8.04241E+02 -2.96682E+04  1.74908E+04 -2.00120E+04  1.60426E+04  1.11333E+03
  1.51241E+04  1.33513E+04 -5.92839E+03  2.32988E+04 -1.66829E+04  1.14002E+04 -2.01226E+04 -4.21558E+03
 -2.16474E+04 -1.58493E+04 -7.06224E+03 -2.90812E+04  1.27331E+04 -2.20257E+04  2.93898E+04 -1.40265E+04
  2.56769E+04  1.80215E+03  1.40653E+04  6.40080E+03  8.04487E+03 -2.41129E+03  1.20628E+04  2.43902E+03
  2.27369E+04  9.17210E+03  2.54639E+04  2.33179E+04  2.32305E+04  3.34174E+04 -1.85215E+03  4.32511E+04
 -2.67257E+04  3.13505E+04 -3.61434E+04  2.17777E+04 -4.84276E+04 -1.93930E+03 -3.21138E+04 -2.68407E+04
 -1.85157E+04 -4.30924E+04  1.30537E+04 -3.49154E+04  2.40471E+04 -1.06329E+04  2.50891E+04  6.49824E+03
  1.22150E+04  1.71354E+04 -8.03989E+03  1.60503E+04 -1.75171E+04  4.80248E+03 -2.63903E+04 -1.43555E+04
  1.12385E+03 -2.22815E+04  1.47029E+04 -1.77524E+04  1.50269E+04 -1.99170E+03  5.19943E+03  5.58669E+03
 -1.14823E+04  1.10180E+04 -1.61295E+04 -4.89648E+03  7.51887E+02 -1.64597E+04  9.72438E+03 -1.98651E+04
  2.51703E+04 -1.44796E+04  2.55975E+04  4.64954E+03  2.07404E+04  2.54065E+04  6.88660E+03  2.30397E+04
 -2.59986E+03  3.14739E+04 -1.87773E+04  2.59295E+04 -1.94128E+04  2.87813E+03 -2.39961E+04 -6.31796E+03
 -4.58928E+03 -5.73683E+03 -5.62981E+03 -6.91119E+03 -5.49033E+03  3.62345E+03 -5.80217E+03 -1.46823E+03
 -1.68708E+04  1.06367E+03 -1.23297E+04 -1.14676E+04 -2.97187E+03 -1.89016E+04  5.22616E+03 -1.49704E+04
  5.52381E+03 -1.44551E+04  5.93657E+03  5.22470E+03 -2.81906E+03  1.13771E+04 -1.29545E+04  5.43050E+02
 -9.85621E+03 -7.69743E+03 -1.08636E+03 -1.72134E+04  1.13121E+04 -1.90612E+04  1.55691E+04 -1.47771E+04
  1.99866E+04  2.11811E+03  1.33964E+04  1.14106E+04  5.54919E+03  1.54873E+04 -3.19928E+03  1.85375E+04
 -1.26125E+04  4.85615E+03 -4.59984E+03 -3.64180E+03  1.00298E+03 -8.04140E+02  8.61351E+03 -2.93374E+03
  9.47395E+03  1.03898E+04 -5.93434E+03  9.18541E+03 -8.38179E+03  1.91408E+04 -1.58627E+04  6.92596E+02
 -1.77388E+04 -8.80422E+03 -3.06267E+03 -1.25076E+04  5.93832E+03 -4.26460E+03  1.05363E+04  1.55242E+03
  1.14554E+03  5.72401E+03 -4.07824E+03  1.19826E+04 -1.26866E+04  1.07224E+04 -1.80590E+04 -4.42735E+03
 -1.08577E+04 -1.62862E+04  2.48248E+03 -2.55634E+04  1.01114E+04 -6.56244E+03  2.01232E+04 -1.01482E+03
  1.00629E+04  1.02335E+04  5.15454E+03  1.39565E+04 -1.29957E+04  9.17621E+03 -7.78016E+03 -5.39026E+02
 -1.61379E+04 -8.44375E+03 -1.00217E+03 -9.60951E+03  9.63645E+03 -1.13003E+04  5.92468E+03 -4.38889E+03
 -8.34687E+02  4.35657E+03  2.05315E+03 -3.05095E+03 -2.32166E+03 -4.89529E+03 -9.43300E+02 -6.17870E+03
  1.16571E+04 -6.46533E+03  1.58456E+04 -2.21668E+02  7.95334E+03  1.10839E+04  8.95329E+03  2.14094E+04
 -4.72451E+03  2.80703E+04 -1.66410E+04  1.70196E+04 -1.91037E+04 -2.41426E+03 -2.52936E+04 -4.74869E+03
 -1.21464E+04 -1.80036E+04  1.86585E+02 -1.38661E+04  6.20200E+03 -9.82473E+03  1.19850E+03 -1.92278E+03
  3.37105E+03 -1.28238E+03 -2.70509E+03 -9.05773E+03  8.67655E+03 -5.67943E+02  7.54475E+03 -3.05176E+03
  1.08324E+04  7.80669E+03  2.40786E+03  7.25401E+03  5.52265E+02  1.13830E+04 -9.51865E+03  7.99586E+03
 -2.10236E+04 -9.48055E+03 -1.22671E+04 -1.21123E+04 -5.16845E+03 -1.35376E+04  1.36408E+04 -1.80724E+04
  1.60772E+04 -6.06942E+03  1.68427E+04  2.61515E+03  9.51108E+03  1.40368E+04 -1.95609E+03  2.08945E+04
 -3.88574E+03  1.65461E+04 -1.73733E+04 -7.36901E+02 -5.61097E+03 -4.60098E+03  6.66402E+03 -6.63089E+03
 -1.56668E+03  2.26725E+03 -3.91420E+03  4.73595E+03 -5.03677E+03 -4.25925E+03 -9.67830E+03 -1.88709E+03
 -3.49442E+03 -1.21201E+04  1.00363E+03 -1.33323E+04  6.32562E+03 -6.76439E+03  1.19587E+04 -3.62467E+03
  1.06052E+04  9.49727E+03  6.44740E+03  1.38786E+04 -3.96071E+03  1.12228E+04 -8.26041E+03  7.84265E+03
 -1.31240E+04 -1.13158E+03 -9.70791E+03 -1.31547E+04 -6.21877E+02 -1.49385E+04  3.44848E+03 -1.00557E+04
  6.56512E+03 -7.45448E+03  1.16854E+04  5.04631E+03  4.99064E+03  4.01239E+03 -3.80265E+03  6.61223E+03
  4.33638E+03  6.21496E+01  5.49256E+03  8.81334E+02  5.47714E+03  1.12172E+04 -2.17970E+03  9.16994E+03
  1.10499E+03  9.71873E+03 -1.58140E+04  1.12339E+04 -1.19999E+04  8.31793E+02 -1.93660E+04 -5.24206E+03
 -4.45336E+03 -1.42820E+04  1.74989E+03 -2.11685E+04  1.22276E+04 -1.28320E+04  1.18547E+04 -4.20759E+03
  7.74880E+03  1.19812E+03  2.93483E+03  6.56244E+03 -9.04487E+03  9.97034E+03 -2.19981E+03 -2.97710E+03
 -4.55299E+03 -4.09774E+03  2.03909E+03 -4.07927E+03  5.93302E+03 -2.50331E+03  1.36249E+02 -3.50242E+03
 -3.06647E+02  7.88472E+02 -3.49090E+03  6.74799E+03 -6.68965E+03 -2.27585E+03 -5.95760E+03 -6.22928E+03
 -8.52799E+02 -2.38592E+03  8.87095E+03  2.55952E+03 -5.43016E+02  3.60120E+03 -8.83428E+02  1.33542E+04
 -7.34843E+03  7.70065E+03 -7.31148E+03 -8.72164E+02 -4.65609E+03  1.60453E+03  7.04730E+02 -2.16668E+03
 -1.75854E+03 -6.23799E+03  1.07993E+03  6.99363E+03  9.43565E+03 -1.19418E+03 -1.35711E+03  4.09772E+03
 -8.88212E+03  4.41938E+03 -3.47450E+03 -6.54870E+03 -5.81111E+03 -1.37701E+04 -2.25703E+03 -1.04145E+04
  5.66035E+03 -1.12081E+04  2.85590E+03 -4.01744E+01  6.00394E+03  5.10488E+02  5.97064E+03  3.90734E+03
 -3.40025E+03  8.51926E+03 -4.29823E+03 -7.43819E+02 -4.68482E+02 -6.10320E+03  1.08707E+04 -1.89542E+03
  1.71162E+04 -5.69585E+02  4.69956E+03  1.56565E+03  3.69874E+03  5.73987E+03 -8.47529E+03  1.19585E+04
 -1.42704E+04  7.29784E+03 -1.18742E+04 -2.38033E+03 -7.74949E+03 -1.14639E+04 -1.16752E+03 -1.17892E+04
  3.68016E+03 -4.30597E+03  4.35493E+03 -7.08976E+02 -2.57972E+03  1.91438E+03 -3.36155E+03  2.42514E+03
 -2.25319E+03  3.63814E+03 -4.17057E+03  4.33716E+03 -3.40890E+03 -2.44492E+02 -4.80162E+03  1.82011E+03
 -1.66956E+03  7.20031E+03  2.21679E+03  6.72806E+03 -7.67525E+03 -2.22044E+03 -1.26070E+04 -6.96815E+02
 -5.73483E+03 -1.40195E+04  3.72662E+03 -6.81040E+03  1.31608E+04 -1.05018E+04  1.24090E+04 -1.57998E+03
  1.17278E+04 -1.60585E+03  9.32819E+03  8.74605E+03  8.91365E+03  9.76631E+03 -7.89313E+03  8.33819E+03
 -8.30990E+03  3.81783E+03 -4.13991E+03  1.39536E+03 -6.65604E+03 -8.70274E+02 -2.75771E+03 -3.99840E+03
 -5.50262E+03  3.86696E+03 -3.02785E+03  5.63189E+03 -2.26243E+03  3.17636E+02 -5.57052E+03 -7.73717E+03
  1.09393E+04 -6.71461E+03  3.82772E+03  1.69835E+03  4.22707E+03  8.87259E+03  2.08158E+03  1.00029E+04
 -9.52581E+03  5.99329E+03 -6.02522E+03  6.89524E+03 -7.96793E+03 -2.86361E+03 -9.96368E+03 -7.35396E+03
  1.62289E+03 -4.09212E+03  8.70768E+03 -1.00182E+04 -3.67283E+03 -5.06902E+03  3.18582E+03  4.63996E+03
 -5.63218E+02  1.14611E+04  2.05397E+03  3.28995E+03 -1.33923E+03 -7.92933E+03  4.85062E+03  3.44832E+03
  3.42429E+03 -9.39280E+03 -2.88546E+03  2.88950E+03 -3.62736E+03 -2.90724E+03 -2.30741E+03  7.76956E+03
 -2.09261E+03  2.94047E+03 -2.19534E+02  2.79830E+03 -5.80074E+02 -9.11883E+03 -4.68513E+02 -9.54250E+03
  3.21510E+02 -7.55976E+03  7.20820E+03 -2.34491E+03  4.82363E+03  4.52286E+03  7.44187E+02  6.35790E+03
 -4.91777E+03  2.70713E+03 -3.39470E+03  3.33596E+03 -2.78828E+03 -2.18746E+03 -6.21357E+03  1.27249E+03
 -4.73562E+01 -1.73596E+03 -3.44546E+03 -3.62600E+02 -4.30814E+03  3.35043E+03 -2.15431E+03  1.50470E+03
 -5.00696E+03 -6.09448E+03 -2.94180E+03 -7.83980E+03  7.57742E+03 -6.39817E+03  8.17246E+03 -3.68484E+03
  9.08253E+03  3.49528E+03 -1.29927E+03 -1.68779E+03  3.11323E+03  8.38235E+03  7.33888E+01  3.97577E+03
