 $NMID ID='MM_0lb_SNR50_20hz_g55_7.RAW', FMTDAT='(8E13.5)'
 TRAMP=1., VOLUME=1. $END
  3.08130E+05 -2.77422E+03  3.39053E+05  2.50633E+05  8.53535E+04  3.38918E+05 -1.34498E+05  2.49377E+05
 -1.87020E+05  8.43826E+04 -1.15919E+05 -2.83298E+04  4.03806E+03 -4.85077E+04  5.41779E+04  1.62391E+03
  3.34227E+04  5.31109E+04 -1.68946E+04  7.49386E+04 -6.03888E+04  6.03885E+04 -8.44764E+04  2.98836E+04
 -7.70910E+04 -1.49852E+04 -5.60944E+04 -4.82481E+04 -1.34557E+04 -6.89798E+04  2.22227E+04 -4.27205E+04
  3.99075E+04  2.73674E+03  1.39605E+04  4.40341E+04 -2.95265E+04  4.68439E+04 -6.23239E+04  5.46841E+03
 -5.12973E+04 -5.71150E+04 -1.00105E+04 -7.81873E+04  2.36932E+04 -5.29831E+04  5.09889E+04 -1.92251E+04
  4.45886E+04  1.01869E+04  2.56236E+04  2.44859E+04  1.49065E+04  2.51457E+04 -6.40953E+03  2.59511E+04
 -2.33123E+04  1.31406E+04 -1.74820E+04 -5.02768E+03  1.69501E+03 -3.20695E+03  1.85903E+04  1.24554E+04
  8.24932E+03  3.55405E+04 -3.24261E+04  3.93670E+04 -5.99539E+04  1.22181E+03 -5.55421E+04 -4.28414E+04
 -1.14222E+04 -6.13500E+04  3.55435E+04 -4.28109E+04  5.59878E+04 -5.45967E+02  3.25946E+04  3.09617E+04
 -5.15032E+03  3.15143E+04 -2.76509E+04  1.78433E+04 -2.66188E+04 -7.83546E+03 -9.55761E+03 -1.02407E+04
 -5.52890E+03 -1.57765E+04  1.74306E+03 -1.53718E+04  5.65398E+03 -2.08326E+04  1.01346E+04 -1.62279E+04
  8.73080E+03  5.31306E+03 -8.31159E+03  1.22848E+04 -2.43402E+04 -5.55267E+03 -3.61842E+03 -3.24677E+04
  2.17771E+04 -4.04729E+04  4.35186E+04 -1.61715E+04  3.91289E+04  2.08328E+04  1.43609E+04  4.02146E+04
 -1.97798E+04  2.88937E+04 -2.88631E+04  1.46660E+03 -2.29211E+03 -2.74715E+04  1.93549E+04 -2.97869E+04
  3.94381E+04 -7.84021E+03  3.29417E+04  2.34751E+04  1.67287E+04  4.35340E+04 -7.56582E+03  4.37769E+04
 -3.07097E+04  2.76768E+04 -3.37073E+04  5.17888E+03 -3.92404E+04 -1.37349E+04 -2.26471E+04 -3.44125E+04
  5.70607E+03 -3.20636E+04  2.65029E+04 -1.06486E+04  2.71213E+04  1.25707E+04  7.37339E+03  1.78548E+04
 -1.47754E+04  6.79409E+03 -4.60953E+03 -6.88334E+03  5.47021E+03 -1.10509E+04  1.53866E+04  6.07798E+03
  1.10825E+04  2.43116E+04 -4.93653E+03  2.34413E+04 -2.40262E+04  1.01895E+04 -2.71657E+04 -8.39045E+03
 -1.73618E+04 -1.95529E+04 -6.25974E+03 -1.75366E+04  4.51723E+03 -1.57019E+04  1.38957E+04 -1.74927E+04
  2.25008E+04 -9.00626E+03  2.15424E+04 -2.04161E+03  2.15134E+04  1.91970E+04  4.57514E+03  3.36433E+04
 -1.45544E+04  2.79197E+04 -2.52171E+04  8.42422E+03 -1.79649E+04 -1.65771E+04 -4.27455E+03 -1.47645E+04
  1.66522E+03 -4.76710E+03 -5.04257E+03  2.22114E+03 -1.42428E+04 -1.03498E+03 -1.33318E+04 -2.62809E+03
 -1.23290E+04 -1.46617E+04  6.09769E+03 -1.85562E+04  1.26169E+04 -1.73782E+04  1.30118E+04  1.96223E+02
  7.00561E+03  6.08967E+03 -2.20361E+02  1.76319E+04 -6.63638E+03  8.40201E+03 -1.48766E+04 -2.03154E+03
 -1.46618E+04 -1.65425E+04 -3.80266E+03 -2.13585E+04  1.21340E+04 -1.64149E+04  1.46160E+04 -5.23202E+03
  1.57650E+04  5.70473E+03  7.82164E+03  7.47292E+03  3.21409E+03  1.18418E+03  2.98118E+03 -1.09076E+03
  1.60318E+04  1.85733E+03  1.30993E+04  8.80302E+03  6.50475E+03  2.16504E+04 -1.08571E+03  3.21564E+04
 -1.49177E+04  1.92678E+04 -2.40571E+04  7.56565E+03 -2.38524E+04  1.74970E+03 -2.16016E+04 -1.46171E+04
 -7.71359E+03 -1.95326E+04  7.84478E+03 -1.61506E+04  1.86183E+04 -1.32603E+04  1.40597E+04  3.13689E+02
  3.46850E+03  7.48643E+03 -6.90067E+03  9.49762E+03 -1.42238E+04  1.71070E+03 -8.73041E+03 -9.19976E+03
  2.08824E+03 -1.27934E+04  6.15558E+03 -5.58016E+03  4.86497E+03 -1.39564E+02 -8.47692E+02  6.90481E+03
 -6.17736E+03  3.27495E+02 -5.72403E+03 -7.37579E+03  4.46332E+03 -1.08823E+04  8.69980E+03 -8.19588E+03
  9.74025E+03 -3.86392E+03  1.14168E+04 -1.75037E+03  1.02676E+04  1.04681E+04  4.61203E+03  1.07448E+04
 -1.54719E+03  1.82441E+04 -9.14511E+03  7.75423E+03 -1.06956E+04  1.93417E+03 -7.95600E+03 -2.31733E+03
 -2.11123E+03 -1.77000E+03 -1.31086E+03  2.71727E+03 -4.02606E+03  2.31778E+03 -3.83395E+03  1.44714E+03
 -1.00847E+04 -1.71827E+03 -5.23199E+03 -5.62602E+03 -4.68449E+03 -1.20280E+04 -4.86033E+02 -9.82891E+03
  9.88996E+03 -3.31191E+03  8.05792E+03  1.88839E+03  1.22244E+03 -2.42663E+03 -4.01436E+03 -3.24984E+03
 -2.77504E+03 -5.43539E+03 -2.01303E+03 -5.34406E+03 -5.63369E+02 -7.44103E+03  1.07265E+04 -4.82936E+03
  1.08355E+04  2.61370E+03  1.07570E+04  3.65266E+03 -5.54601E+02  9.16259E+03 -5.35005E+03  1.00377E+04
 -3.92635E+03  6.67520E+03 -4.04389E+03 -1.53645E+03  4.65148E+03 -5.61754E+03  1.97023E+03 -4.38462E+03
  2.53568E+03  2.61148E+03 -2.94941E+03  5.93258E+03 -6.32106E+03  3.83004E+03 -7.43031E+03  1.00429E+02
 -5.05368E+03 -4.78656E+03 -3.22012E+03 -1.08514E+04  3.47389E+03 -1.23596E+03  3.53465E+03  7.55540E+02
  1.18192E+03 -3.42652E+02 -9.71386E+03  4.69859E+03 -7.47753E+02  2.30826E+03 -7.23657E+03 -2.15809E+03
  9.15719E+02 -7.67411E+03  5.57278E+02 -8.68891E+03  2.32827E+03 -3.79652E+03  3.68031E+03  4.19617E+03
  3.24101E+03  4.27015E+03  1.58302E+03  8.88915E+03 -5.43061E+03  2.79013E+03 -5.37987E+03 -1.28024E+03
 -5.37733E+03 -4.01677E+03 -1.58280E+03 -3.96920E+03  2.60163E+03 -4.69671E+03  7.12232E+02 -3.85996E+03
 -1.25586E+02 -5.89950E+02 -8.70258E+02  1.09657E+03 -3.75464E+02 -3.93023E+03  4.52104E+01 -2.48419E+03
  2.84028E+03  4.14996E+03  4.36834E+03  1.47408E+02  9.64041E+03  2.11569E+03  1.89834E+03  6.05641E+03
  3.35166E+02  8.59271E+03 -8.66407E+03  7.07292E+03 -1.06642E+04  1.85740E+03 -6.99478E+03 -1.97024E+03
 -4.80763E+03 -6.11874E+03  2.53914E+02 -6.07120E+03  2.70957E+03 -3.10046E+03  2.28287E+03 -7.19851E+02
 -7.16931E+02 -2.54457E+03  8.77882E+02 -3.73120E+03  3.48780E+03 -5.85032E+01  3.23754E+03  4.56567E+03
  1.74742E+03  1.99236E+03 -9.67327E+02  4.62146E+03 -4.83975E+03  1.63365E+03 -4.31575E+02  2.27758E+03
 -4.23913E+03 -2.39378E+03  5.72322E+01 -3.75635E+03  2.08057E+03 -3.80216E+03  7.23353E+03 -4.79819E+03
  4.67995E+03 -2.86681E+03  3.73804E+03  9.66694E+02  6.25573E+03  1.92726E+03  4.19729E+03  8.00911E+03
 -2.89273E+03  6.86196E+02 -1.76833E+03 -9.79609E+02 -5.01534E+03  5.71329E+02  7.96033E+02  3.06748E+03
  5.07056E+01  2.11885E+03  4.00275E+03 -1.23667E+03 -2.83142E+03  3.52850E+03 -3.01913E+03 -1.11896E+03
 -3.47829E+03 -2.88121E+03  1.24691E+02 -1.62449E+03 -1.08377E+03 -3.50979E+03  5.43938E+03 -6.13597E+02
  2.01999E+03 -1.92525E+03 -2.13502E+03  1.61597E+03  5.32244E+02  2.93706E+03 -2.49928E+03  6.79137E+03
 -2.06186E+03  1.81712E+02 -9.56105E+02  7.60737E+02 -2.47458E+02 -2.09914E+03  2.02768E+03 -8.01521E+03
  1.58541E+03  2.43037E+03 -4.65265E+03  1.56311E+03 -1.27330E+02  1.14984E+03  7.99674E+02  1.19411E+03
  5.00485E+03 -1.36836E+03  2.07871E+02  1.98766E+03  5.17097E+02 -3.55546E+03  1.62136E+03  7.20546E+03
 -3.52227E+03  3.06106E+03 -8.52125E+02  6.74379E+03 -3.92107E+02  4.96081E+03 -5.60977E+03 -3.05942E+03
 -1.46419E+03 -2.37712E+03  9.82571E+02  2.16482E+03  2.62404E+03 -4.79716E+03 -8.67077E+02 -1.93139E+03
  3.31758E+03  1.57762E+03 -4.99619E+03  2.70268E+03  1.73537E+03  4.75179E+03 -2.19433E+03 -1.74884E+02
  1.68944E+03 -3.17529E+03  2.01895E+03 -2.97678E+03 -5.23441E+02 -5.50178E+02  2.42324E+03  1.22741E+03
  2.42377E+02  2.04607E+03  2.25255E+02 -2.36467E+03 -3.10149E+03  1.82408E+03 -1.25098E+03 -1.60612E+03
  2.71036E+03  1.19573E+03  4.22230E+03 -1.77370E+03  1.06960E+03  7.93957E+03  2.20499E+03  4.48541E+03
 -3.65537E+03  3.37047E+03  2.42708E+03 -1.09079E+03 -6.80592E+03 -1.76284E+03 -2.47982E+03  1.49092E+02
  1.87085E+03  3.21778E+02 -1.92155E+03 -2.97340E+03 -1.80754E+03 -4.21793E+03 -3.00240E+03  1.66717E+03
  2.26321E+03  5.73464E+02 -6.71607E+02  4.32065E+02  1.77123E+03 -5.83385E+03  1.34805E+03 -3.19931E+03
 -5.01612E+01 -2.25926E+03 -2.66673E+03  8.22218E+02  2.52422E+03 -4.21997E+02 -3.53731E+02  1.71892E+03
 -1.08482E+03 -4.94058E+03  1.44356E+03 -6.36089E+02 -4.39885E+02 -2.64479E+03 -3.33256E+03 -4.46753E+03
  2.80455E+03  4.27585E+03  9.10938E+02  1.43957E+03  1.06869E+03  1.49754E+03  8.28435E+02 -2.67482E+03
 -1.84726E+03 -4.47933E+03  1.29208E+02 -2.44244E+03 -3.89921E+03  5.60983E+03  2.03627E+02  4.51517E+03
 -1.76227E+03 -2.48414E+03 -2.51157E+02  5.78411E+02 -1.00999E+03  2.70419E+03 -6.26104E+03  5.11353E+03
 -1.21990E+03  3.12489E+03 -8.59650E+02  7.00911E+01  3.48909E+03 -6.81393E+03 -2.65877E+03  1.21768E+03
  7.85211E+02  1.31053E+02 -2.81461E+03  1.13825E+03 -6.82642E+02  1.82156E+03 -2.84127E+03  5.16923E+02
 -1.84607E+03  1.32665E+03  5.95157E+01 -1.04705E+03  2.35606E+03 -1.35428E+03  2.96991E+03 -5.23166E+03
  1.38662E+03 -9.85425E+02 -7.51339E+02 -2.31188E+03  9.65222E+02 -2.35499E+03  5.76336E+02 -1.09290E+03
  3.15244E+02 -9.22311E+02  1.80796E+02 -3.22684E+03 -1.54117E+03  3.47279E+03  2.62231E+03  4.70174E+03
 -1.53811E+03  3.38196E+03  2.64288E+03 -7.64310E+01  1.15485E+03 -2.96026E+03 -3.29816E+03 -2.19203E+03
 -1.20111E+03  8.75369E+02  3.08924E+03  1.22875E+03 -1.24997E+03 -3.73211E+02 -1.50304E+02  1.20883E+03
 -3.17206E+03  2.27375E+02  3.99095E+02  2.23478E+03 -2.97733E+03 -2.37073E+02 -1.33482E+03  1.27950E+03
 -2.28882E+03 -1.72047E+03 -1.98827E+03 -1.34348E+03 -3.51144E+02 -1.79405E+03 -5.80824E+02 -5.17693E+02
  3.31145E+03  9.68435E+02 -3.28470E+03 -1.65359E+03  1.35946E+03  5.47958E+03 -1.18825E+03  2.05769E+03
  1.25404E+03  4.39734E+03  2.47488E+02  9.46009E+02 -1.23629E+02 -2.65112E+03  5.37626E+02 -1.20915E+02
  1.99084E+03  1.99944E+03  3.28977E+03 -3.57339E+03 -1.08720E+03  3.03777E+03  8.03592E+02  1.67455E+03
  5.42961E+03  7.52691E+02 -3.40679E+02  4.32167E+03 -4.25491E+02  2.42536E+02 -2.61787E+03  1.81197E+03
 -2.30664E+03 -1.71984E+03 -4.98618E+02  1.45926E+03 -3.12029E+03 -7.11123E+02  1.61070E+03 -2.09518E+03
  3.03412E+03  2.64392E+03 -1.73675E+02  9.27746E+02 -3.16022E+02  1.81975E+03 -4.96644E+02  1.83321E+03
  2.54867E+02 -1.05245E+02  1.02557E+02  3.68762E+03  3.20727E+03 -9.88248E+02 -5.85405E+01 -1.93043E+02
  7.81027E+03 -2.69329E+02 -3.04287E+03  3.47759E+03  5.09470E+03  5.97623E+03  1.22270E+03  1.69416E+03
