 $NMID ID='MM_0lb_SNR50_12hz_g60_26.RAW', FMTDAT='(8E13.5)'
 TRAMP=1., VOLUME=1. $END
  3.05556E+05 -1.59336E+03  3.33617E+05  2.50437E+05  8.07880E+04  3.45152E+05 -1.35181E+05  2.53659E+05
 -1.93337E+05  8.01574E+04 -1.12150E+05 -3.66814E+04  3.05473E+03 -5.46638E+04  4.93365E+04  1.98428E+03
  3.01906E+04  5.18326E+04 -1.35632E+04  7.70765E+04 -6.17515E+04  5.91807E+04 -8.27432E+04  3.34715E+04
 -8.20358E+04 -9.28200E+03 -6.02461E+04 -5.04481E+04 -1.34395E+04 -7.31547E+04  2.79235E+04 -4.40116E+04
  3.84080E+04  4.54567E+03  1.79789E+04  4.58223E+04 -3.75164E+04  4.88916E+04 -6.52019E+04  1.99235E+03
 -5.69544E+04 -6.14848E+04 -4.42585E+03 -8.22788E+04  3.54488E+04 -5.72020E+04  5.01189E+04 -2.26026E+04
  4.86501E+04  1.28243E+04  3.36280E+04  2.82569E+04  2.52956E+04  2.97432E+04 -8.22301E+03  3.02770E+04
 -2.56483E+04  9.38085E+03 -1.81064E+04 -7.34594E+03  4.11434E+02 -8.46022E+03  2.35094E+04  1.46477E+04
  8.52084E+03  3.94841E+04 -3.91598E+04  4.19458E+04 -6.98904E+04  5.71204E+03 -6.08209E+04 -4.59757E+04
 -1.34822E+04 -6.08125E+04  3.99667E+04 -4.66787E+04  5.71720E+04 -2.52357E+03  3.27086E+04  2.94028E+04
 -1.81465E+03  4.05872E+04 -2.88298E+04  1.74788E+04 -3.17986E+04 -6.07897E+03 -2.44932E+04 -1.08017E+04
 -1.16892E+04 -1.06456E+04 -6.33670E+03 -2.17636E+04  9.24398E+03 -2.35841E+04  1.76660E+04 -1.35920E+04
  7.48356E+03  4.27772E+03 -1.87008E+03  1.69959E+04 -2.34999E+04 -3.92330E+03 -9.16696E+03 -3.31194E+04
  2.30074E+04 -4.50656E+04  5.34816E+04 -1.45493E+04  4.56744E+04  1.87843E+04  1.23619E+04  4.72445E+04
 -1.31896E+04  3.71322E+04 -2.56534E+04  1.86351E+03 -1.89316E+04 -2.48988E+04  1.99135E+04 -3.41698E+04
  4.45688E+04 -8.54703E+03  3.73675E+04  2.34575E+04  1.99469E+04  5.26897E+04 -3.62855E+03  5.20943E+04
 -3.54542E+04  3.76899E+04 -4.96431E+04  8.79662E+03 -4.63345E+04 -1.55034E+04 -2.98522E+04 -3.90411E+04
  9.59134E+03 -4.53567E+04  3.50716E+04 -1.61027E+04  3.11043E+04  6.90109E+03  4.11179E+03  2.46576E+04
 -1.45228E+04  1.18780E+04 -1.29940E+04 -8.92288E+03  3.71883E+03 -8.28734E+03  1.37370E+04  7.64583E+03
  1.31414E+04  2.70196E+04 -4.88424E+03  2.84882E+04 -2.20901E+04  1.09843E+04 -3.29751E+04 -3.07579E+03
 -2.16521E+04 -1.66628E+04 -6.11188E+03 -2.76623E+04  8.49196E+02 -2.03095E+04  1.92838E+04 -2.33116E+04
  2.92170E+04 -1.15619E+04  3.26371E+04  4.63187E+03  2.47465E+04  2.95987E+04  3.80716E+03  4.29139E+04
 -1.70447E+04  3.25073E+04 -2.92853E+04  9.64132E+03 -2.47214E+04 -8.64705E+03 -8.00163E+03 -1.47873E+04
 -4.25005E+03 -5.67271E+03 -8.96149E+03  7.21207E+03 -1.82560E+04  2.94067E+03 -1.71828E+04 -7.21008E+03
 -1.34065E+04 -2.88006E+04  4.32858E+03 -2.26250E+04  1.68053E+04 -1.92217E+04  1.95744E+04 -4.67632E+03
  1.84377E+04  1.63999E+04  1.52493E+03  2.56670E+04 -1.49102E+04  1.48377E+04 -2.28628E+04  1.87400E+03
 -1.53387E+04 -2.46885E+04 -1.34510E+03 -2.61146E+04  1.28577E+04 -2.23019E+04  1.91080E+04 -1.68551E+04
  2.02930E+04  8.85482E+02  1.72018E+04  6.48869E+03  9.62923E+03 -2.11485E+03  1.11218E+04 -2.90555E+03
  2.06123E+04  6.72600E+03  2.35168E+04  1.46870E+04  1.29091E+04  3.41589E+04 -1.66027E+03  3.83062E+04
 -2.53092E+04  3.10243E+04 -4.05850E+04  1.34858E+04 -3.88636E+04 -4.36492E+03 -3.92273E+04 -2.36423E+04
 -1.05725E+04 -3.35217E+04  1.00345E+04 -2.85839E+04  2.30143E+04 -9.88433E+03  1.94129E+04  4.81226E+03
  9.52928E+03  1.65475E+04 -3.85096E+03  1.88018E+04 -1.78601E+04 -4.31246E+02 -1.40538E+04 -1.20669E+04
  5.07514E+03 -1.16911E+04  8.78166E+03 -1.69149E+04  1.49864E+04 -1.07295E+03  3.97747E+03  7.33918E+03
 -9.65468E+03  3.84292E+03 -7.22433E+03 -6.57717E+03 -3.94085E+03 -2.31409E+04  1.09360E+04 -1.25239E+04
  1.92370E+04 -1.13789E+04  2.76141E+04  3.10921E+03  1.67194E+04  1.55981E+04  1.13590E+04  3.14401E+04
 -7.16345E+03  3.14664E+04 -1.57640E+04  1.61475E+04 -1.98706E+04  2.61932E+03 -1.39699E+04 -5.66153E+03
 -5.60713E+03 -1.08058E+04  2.69383E+03 -7.23291E+02 -4.98686E+03  5.27658E+02 -9.00681E+03  7.62490E+03
 -1.49721E+04  4.22962E+02 -1.53429E+04 -6.65303E+03 -4.48476E+03 -1.97240E+04  7.76152E+03 -1.77707E+04
  9.34394E+03 -1.22150E+04  1.13807E+04  4.73360E+03  4.68181E+03  5.13208E+03 -3.99259E+03 -1.75368E+03
 -8.56752E+03 -6.55123E+03 -4.39372E+03 -1.07714E+04  1.16559E+04 -1.43448E+04  1.62000E+04 -9.55919E+03
  2.11827E+04 -6.50535E+03  1.90885E+04  9.37977E+03  2.05745E+03  1.49876E+04 -7.45651E+03  1.67652E+04
 -1.07627E+04  8.44714E+03 -4.10881E+03  2.13633E+03  5.02192E+03 -6.48231E+03  9.13609E+03  5.27204E+03
  5.05700E+03  4.21104E+03 -6.49080E+02  1.08556E+04 -3.63672E+03  1.19058E+04 -1.49793E+04  3.89183E+03
 -4.42895E+03 -2.93065E+03  5.68494E+03 -5.63823E+03  1.32554E+04 -5.54533E+03  7.58129E+03 -2.51646E+03
  5.54438E+03  1.15503E+04 -7.89587E+03  1.18327E+04 -1.27725E+04  3.89425E+03 -1.41231E+04 -4.77991E+03
 -6.32064E+03 -1.77567E+04  5.28444E+03 -1.58623E+04  7.40486E+03 -4.99733E+03  1.64333E+04  5.52208E+03
  5.95575E+03  1.16518E+04 -1.22448E+03  1.09619E+04 -1.41451E+04  5.52735E+03 -1.68751E+04 -8.88800E+02
 -7.85961E+03 -6.46845E+03 -1.12812E+03 -8.16817E+03  7.45452E+03 -1.04745E+04  3.08997E+03 -5.35979E+03
  4.60594E+03 -3.78182E+03 -5.02834E+03  4.33944E+03  3.02401E+02  1.21742E+03  3.91705E+03 -5.72224E+03
  1.35090E+04 -5.45521E+03  1.29475E+04 -2.95063E+03  1.48273E+04  1.26574E+04  7.67667E+03  1.91092E+04
 -1.41801E+03  2.04378E+04 -1.72329E+04  1.29405E+04 -2.13792E+04  8.65430E+03 -2.09171E+04 -5.34508E+03
 -1.13635E+04 -7.84777E+03  3.27305E+03 -1.04071E+04  7.44495E+03 -7.97165E+03  5.48210E+03  1.77440E+03
  5.40085E+03 -2.49082E+02 -2.65460E+02 -1.01874E+02  8.29455E+03 -7.03792E+03  1.21295E+04  2.11724E+03
  1.01061E+04  3.58116E+03  3.45388E+03  8.84730E+03 -7.09108E+03  7.05019E+03 -8.18237E+03  7.99815E+03
 -9.92522E+03 -1.03193E+03 -6.30018E+03 -9.15746E+03 -2.25142E+03 -1.06832E+04  5.71955E+03 -1.18474E+04
  1.46204E+04 -9.80055E+03  1.42513E+04  9.33343E+03  1.13088E+04  1.13865E+04  2.31320E+02  1.74883E+04
 -6.28242E+03  8.16516E+03 -9.62015E+03  1.13229E+03 -6.52785E+03 -2.79703E+03 -2.35551E+03  1.50611E+03
 -3.16062E+02 -2.03704E+03 -3.04237E+03 -2.01014E+03 -8.04233E+03  3.37156E+03 -9.84948E+03  1.31090E+03
 -6.24876E+03 -1.33130E+04 -4.47015E+03 -7.55568E+03  6.57911E+03 -5.29094E+03  6.93473E+03 -4.36975E+03
  1.55987E+04  7.34386E+03  4.12866E+03  7.40766E+03 -2.02408E+03  1.16551E+04 -1.06231E+04  1.16227E+04
 -1.58288E+04 -1.48481E+03 -9.72003E+03 -8.19074E+03 -2.10654E+03 -1.12573E+04  8.31974E+03 -5.08035E+03
 -6.88969E+02  2.32531E+03  1.18365E+03  2.58968E+03  6.05828E+03  2.39172E+03 -2.28172E+03 -1.89844E+03
  2.55668E+03 -1.07999E+03  3.32927E+03  2.89902E+03  1.56277E+03  7.40526E+03  4.81692E+03  1.99974E+03
 -1.81199E+03  7.50203E+03 -3.25493E+03  7.99659E+03 -9.86600E+03  4.35370E+03 -1.15710E+04  2.73454E+03
 -8.31262E+03 -1.10574E+04  5.16092E+03 -7.14019E+03  4.96168E+03 -5.29974E+03  7.56964E+03 -4.02063E+03
  5.23216E+03 -9.04223E+02 -2.02436E+03  1.04665E+04 -4.36942E+03  2.96256E+03 -6.95164E+03 -2.06903E+03
 -6.06962E+03 -3.89127E+02  4.33393E+03 -2.17696E+03  2.12147E+03 -3.62843E+03  1.65292E+03 -7.36404E+02
  6.58797E+03  9.30008E+03  4.56585E+03  5.57843E+03 -2.20712E+02  2.20514E+03 -1.51217E+02 -3.29194E+03
  7.48947E+02  2.37644E+03  9.98733E+02 -2.26845E+03  3.66599E+03  4.15302E+03  1.31151E+03  5.40886E+03
  8.20177E+02  1.07792E+04 -6.85801E+03  3.51161E+03 -7.73833E+03 -7.59891E+03 -5.48752E+03 -3.18544E+03
 -2.08324E+03  1.32205E+03  3.98854E+03 -1.69530E+03  1.55075E+03  8.75787E+02 -2.05039E+03  5.85466E+03
 -3.66367E+03  3.48013E+03 -2.32175E+03 -2.02610E+03 -7.10071E+02 -5.77621E+03 -1.70296E+03 -1.53220E+04
  1.01759E+04 -4.17586E+02  4.70915E+03 -8.71384E+02  3.28413E+03  4.70389E+03 -2.71158E+03  8.29547E+02
  1.40308E+03  5.33085E+03 -6.03012E+03  2.38614E+03 -1.23631E+03 -3.81200E+03  9.98134E+02 -8.06917E+02
  2.03880E+03  1.60261E+03  6.41086E+03  8.34303E+03  2.78854E+03 -1.11117E+03 -1.47696E+03  8.79948E+03
 -4.98313E+03  1.98911E+03  2.14304E+03  3.79120E+02 -3.25237E+03 -4.78858E+03 -1.09564E+03 -3.10085E+03
  4.14279E+03 -2.52599E+03  4.38459E+03  1.88682E+03 -1.92732E+03  7.50679E+03 -9.00738E+02  2.60063E+03
 -2.78178E+03 -1.05212E+03 -1.31006E+03 -9.97805E+01 -2.17574E+03 -3.90217E+03 -6.97739E+03  6.79531E+03
 -3.67962E+02  7.77518E+02 -4.04329E+03  1.53243E+03 -9.39573E+03  1.32075E+03 -6.66460E+03 -3.77120E+03
 -4.51085E+03 -6.85301E+03  3.81861E+02 -5.77337E+03  1.98144E+03 -5.61348E+03  9.53815E+03 -3.27091E+03
  7.83796E+03  2.02339E+03  9.39581E+03  7.43143E+03  2.86685E+02  7.43978E+03 -6.76220E+03  5.85338E+03
 -8.31734E+03  2.31894E+03  3.22880E+03 -7.46275E+02 -7.02666E+02 -3.58947E+03  3.60333E+02  6.00282E+03
 -3.90208E+03  1.61989E+02  1.39331E+03 -2.98017E+03  6.59540E+01 -8.02906E+03 -3.31002E+03 -1.72414E+03
  2.91424E+02 -3.95019E+03  5.46490E+03  6.54244E+03  4.69373E+03 -4.33389E+03  4.00935E+02  3.95895E+03
 -3.46443E+03  1.07367E+04 -7.59504E+03  3.34049E+03 -3.15352E+03 -7.05120E+02 -8.80394E+03 -1.05231E+03
 -6.10962E+03 -2.31926E+03  3.38407E+03 -9.87584E+03  9.10234E+03 -4.21349E+03  3.85900E+02  1.47624E+03
 -3.50470E+03  2.30461E+03  6.39818E+03  2.78877E+03 -1.95453E+03 -1.73264E+03 -2.69370E+03 -3.41223E+02
  5.82273E+03 -5.99423E+02  2.00441E+03  2.14930E+03  3.71095E+03  3.56833E+03 -1.06519E+03 -1.04614E+03
 -3.87047E+03  1.07728E+03 -4.75277E+03 -3.77097E+03 -4.84069E+03 -9.05112E+02 -2.18056E+03 -1.11918E+04
  4.38035E+03 -5.04496E+03  1.37878E+03 -4.94793E+03  8.90944E+03 -3.88040E+03  1.81780E+03  6.07042E+03
 -2.57878E+03  4.76700E+03 -3.19807E+03 -1.55017E+03  4.58342E+03  1.86315E+03 -2.30086E+02 -2.17957E+03
  2.99528E+02  6.74811E+03  3.08285E+03  4.15449E+03  2.76805E+02 -6.86567E+02 -6.98948E+03 -2.10796E+03
 -7.94238E+02 -5.17826E+03 -8.59197E+02 -2.48316E+03 -2.67660E+03  2.01266E+03  3.21216E+03 -4.35138E+03
  3.25770E+03 -9.59978E+02  4.27815E+03 -1.31864E+03 -4.40076E+03  4.16894E+03 -4.02622E+02  2.30142E+03
