 $NMID ID='MM_0lb_SNR50_14hz_g50_74.RAW', FMTDAT='(8E13.5)'
 TRAMP=1., VOLUME=1. $END
  3.10064E+05  3.39487E+03  3.38808E+05  2.50614E+05  8.62368E+04  3.34395E+05 -1.33677E+05  2.51960E+05
 -1.91341E+05  8.53679E+04 -1.17685E+05 -3.30548E+04 -1.39926E+03 -5.01769E+04  5.15861E+04  2.51876E+03
  3.59561E+04  5.21111E+04 -1.51483E+04  7.45703E+04 -6.04060E+04  6.87983E+04 -8.53177E+04  2.61108E+04
 -8.06032E+04 -9.90139E+03 -6.55641E+04 -5.36625E+04 -1.63072E+04 -6.90411E+04  2.27716E+04 -4.79205E+04
  4.13479E+04  1.64928E+03  1.48155E+04  4.72717E+04 -3.60881E+04  4.79154E+04 -6.21461E+04 -4.15613E+03
 -5.84459E+04 -5.77779E+04 -9.09757E+03 -7.77274E+04  3.46308E+04 -5.58577E+04  5.00813E+04 -1.56109E+04
  4.65018E+04  1.16539E+04  3.38598E+04  2.87675E+04  1.91668E+04  2.69701E+04 -6.30761E+03  2.52529E+04
 -2.05832E+04  1.36893E+04 -1.95472E+04 -6.68576E+03  4.82940E+03 -7.74091E+03  2.10342E+04  1.29706E+04
  4.12629E+03  3.11801E+04 -2.97533E+04  3.37190E+04 -6.91974E+04  4.46825E+03 -5.94998E+04 -4.60663E+04
 -1.22721E+04 -6.36842E+04  4.52512E+04 -5.03351E+04  5.73939E+04 -6.28211E+03  3.39787E+04  3.04377E+04
 -7.94238E+03  3.39794E+04 -3.03681E+04  1.80816E+04 -2.60063E+04 -5.06299E+03 -1.97389E+04 -8.39434E+03
 -1.01694E+04 -1.38557E+04 -4.60872E+03 -1.75846E+04  7.10224E+03 -2.54180E+04  1.78235E+04 -1.14684E+04
  1.41279E+04  4.00877E+03 -8.39639E+03  8.30570E+03 -2.19335E+04 -5.20295E+03 -6.55107E+03 -3.37338E+04
  1.99234E+04 -4.55655E+04  5.46784E+04 -2.16815E+04  4.61051E+04  2.24152E+04  1.71628E+04  4.58291E+04
 -1.72015E+04  3.18675E+04 -2.09704E+04 -2.76713E+02 -8.93127E+03 -2.63843E+04  1.91104E+04 -3.64155E+04
  4.42742E+04 -5.60863E+03  3.70683E+04  2.37136E+04  1.53587E+04  4.64678E+04 -5.65389E+03  4.89491E+04
 -3.28164E+04  3.11046E+04 -4.47093E+04  2.90861E+03 -4.20087E+04 -2.08018E+04 -2.31425E+04 -3.67752E+04
  4.71986E+03 -3.93687E+04  2.79299E+04 -1.43935E+04  2.97093E+04  1.29997E+04  6.12119E+03  2.55271E+04
 -1.25325E+04  1.20166E+04 -6.66811E+03 -3.83671E+03  9.69582E+03 -1.43314E+04  1.77596E+04  6.25192E+03
  8.32617E+03  2.06723E+04 -3.48926E+03  2.17187E+04 -2.47340E+04  8.28324E+03 -3.15707E+04 -7.82545E+03
 -2.41144E+04 -1.68098E+04 -8.98619E+03 -1.46720E+04  4.22370E+03 -2.38879E+04  1.65498E+04 -1.88712E+04
  2.60985E+04 -1.32544E+04  3.17091E+04 -1.65653E+03  2.25516E+04  1.68950E+04  1.11110E+02  3.44996E+04
 -1.96438E+04  3.04719E+04 -3.09876E+04  9.17031E+03 -2.09350E+04 -1.16842E+04  1.85777E+03 -1.44646E+04
  1.34376E+03  1.96995E+03 -3.72616E+03  3.74183E+03 -1.56665E+04  1.31204E+03 -1.57330E+04 -8.84934E+03
 -1.07595E+04 -1.62111E+04  3.89724E+03 -2.02264E+04  1.69541E+04 -2.36928E+04  1.79852E+04 -3.13372E+03
  1.40621E+04  1.32508E+04 -2.39033E+03  1.93573E+04 -1.81397E+04  1.29111E+04 -1.88450E+04 -7.93350E+03
 -1.63203E+04 -1.66658E+04 -3.46827E+03 -2.27122E+04  8.02258E+03 -1.54593E+04  2.23907E+04 -1.33790E+04
  1.97456E+04 -1.53804E+03  1.09191E+04  3.40193E+03  7.37759E+03 -1.67005E+03  6.95683E+03 -1.21893E+03
  2.17423E+04  3.46530E+03  1.79617E+04  1.06165E+04  1.04503E+04  2.70764E+04 -5.41696E+03  3.41428E+04
 -2.41691E+04  2.62624E+04 -3.15905E+04  1.42349E+04 -3.54294E+04 -1.78424E+03 -2.89186E+04 -1.88917E+04
 -1.19674E+04 -2.71613E+04  8.03672E+03 -2.37747E+04  2.38349E+04 -1.10852E+04  1.95964E+04  2.80980E+03
  1.21081E+04  1.78862E+04 -9.95974E+03  1.14225E+04 -1.63743E+04 -8.25833E+02 -1.80203E+04 -7.34307E+03
 -5.77036E+02 -1.46516E+04  9.83408E+03 -1.73355E+04  1.07380E+04  4.05537E+03  4.20784E+03  4.66280E+03
  9.07148E+02  3.26141E+03 -8.29184E+03 -1.09571E+04 -4.06541E+03 -1.34174E+04  9.82875E+03 -9.41995E+03
  2.13160E+04 -4.35398E+03  1.92892E+04  2.32451E+03  1.63882E+04  1.46204E+04  8.66026E+03  2.18058E+04
 -2.38134E+02  1.77631E+04 -1.24709E+04  1.44220E+04 -1.59004E+04  1.97785E+03 -1.06142E+04 -7.98364E+03
 -4.87788E+03 -7.62662E+03 -9.83527E+02  3.52914E+03 -4.52521E+03  3.25878E+03 -1.48705E+03  2.53746E+03
 -3.16230E+03 -1.40008E+03 -9.54963E+03 -1.13021E+04 -2.49785E+02 -1.67898E+04  2.62275E+03 -7.86203E+03
  6.62756E+03 -5.99388E+02  1.01981E+04  2.24748E+03 -2.98881E+02  4.33010E+03 -4.85657E+03 -3.52555E+02
  6.37154E+02 -1.03422E+04 -1.97963E+03 -7.56194E+03  9.73135E+03 -1.59765E+04  1.04433E+04 -1.25998E+04
  1.43979E+04  4.10543E+03  1.88007E+04  1.02500E+04  1.97777E+03  9.91243E+03 -9.91265E+03  1.75924E+04
 -1.20151E+04  3.85282E+03 -4.84598E+03  2.82812E+03  3.83444E+03  4.06194E+00  1.08343E+04 -1.98535E+03
  3.96070E+03  2.98947E+03 -2.52439E+03  1.08825E+04 -8.48758E+03  1.09594E+04 -1.07547E+04  2.76830E+03
 -7.19436E+03 -1.91805E+03 -1.17538E+03 -9.20175E+03  2.56411E+03 -8.71343E+01  7.35417E+03 -3.61013E+03
  5.39206E+02  5.76355E+03 -7.34537E+03  6.95893E+03 -5.29269E+03  4.57780E+03 -5.73020E+03 -4.90413E+03
 -7.71002E+03 -6.92867E+03  5.80865E+03 -1.24421E+04  8.64033E+03 -1.09587E+04  1.00519E+04  3.27321E+03
  8.11894E+03  6.76815E+03 -2.42203E+03  1.01307E+04 -1.10678E+04  6.37502E+03 -6.00770E+03 -1.78192E+03
 -5.11825E+03 -7.66902E+03 -2.71472E+03 -8.21537E+03  5.77187E+03 -7.24230E+03  1.60153E+03  4.02009E+03
  3.75189E+03  2.26784E+03 -1.13698E+03  1.09749E+03 -2.67897E+03 -1.48146E+03  1.19832E+03 -3.35449E+03
  1.08413E+04 -6.20273E+03  1.16292E+04  2.61084E+03  1.23139E+04  4.53906E+03  4.83097E+03  1.47294E+04
 -1.72172E+03  1.35443E+04 -1.60226E+04  1.54492E+04 -1.65753E+04  5.27681E+03 -1.42160E+04 -5.49466E+03
 -7.07358E+03 -1.45549E+04 -1.48570E+03 -1.20546E+04  5.88087E+03 -4.79591E+03  4.36059E+03  1.53350E+03
  3.01847E+03 -2.11921E+03  5.58765E+03  5.65305E+02  4.50892E+03 -9.15187E+02  1.12610E+04 -1.50439E+02
  8.26119E+03 -1.40178E+03  6.06575E+03  5.44125E+03 -8.73099E+03  3.84823E+03 -7.27323E+03  3.17812E+03
 -4.71926E+03 -1.47063E+03 -6.61199E+03 -1.93280E+03  3.29753E+02 -1.05448E+04  4.11420E+03 -6.21475E+03
  1.43865E+04 -4.82752E+03  9.60231E+03 -4.04070E+03  8.88813E+03  1.07935E+04  3.90425E+02  9.74132E+03
 -1.32546E+03  9.04137E+03 -3.76096E+02  3.22008E+03 -4.58678E+03  3.58232E+02 -2.66354E+03 -1.55618E+03
 -5.48910E+03  1.64310E+02 -2.75473E+03  7.23449E+00 -1.16390E+03 -1.41653E+03 -3.74025E+03 -1.62074E+03
 -4.31966E+03 -4.31899E+03  3.59128E+03 -1.01135E+04  4.46740E+03 -9.17459E+03  7.49790E+03 -3.65920E+03
  1.18293E+04  4.25045E+03  3.07585E+03  1.00675E+04 -2.80184E+03  5.32213E+03  5.77970E+02  6.58910E+03
 -8.50849E+03 -1.04392E+03 -5.91894E+03 -6.39296E+03  4.21753E+02 -5.04722E+03  4.80530E+03 -4.55312E+03
  9.52558E+02 -5.93309E+03 -2.73263E+03  2.20487E+03  5.39014E+03  8.29572E+03 -1.98810E+03  2.17643E+03
 -3.86368E+03 -4.03517E+03 -1.45582E+03  8.34973E+03  2.22375E+03  1.83899E+03  2.48013E+03  3.52567E+03
  9.44096E+02  3.13593E+03 -6.35277E+03  2.33920E+03 -2.47004E+03  1.14711E+03 -1.07817E+04 -2.02150E+03
 -4.78203E+03 -9.67597E+03 -2.54944E+02 -8.38803E+03  9.21052E+03 -2.82856E+03  7.09338E+03 -4.75196E+03
  1.10849E+04  4.37115E+03  2.55324E+03  1.35788E+02  1.73227E+03  1.01763E+02 -7.91117E+02  6.01028E+03
 -8.83286E+02  7.04432E+02  1.70282E+03 -2.85584E+03  3.28004E+03 -2.84355E+03  3.97578E+03 -6.33482E+02
  4.03883E+03  2.27290E+03 -1.58553E+03 -7.79339E+02  1.49346E+03  1.32691E+03  6.84049E+03  4.94091E+03
  3.63304E+03 -2.73935E+03  4.03701E+03 -2.62953E+03 -8.70552E+01  7.14957E+03 -1.18862E+03  5.31538E+03
 -1.61317E+03  3.55022E+03 -8.44819E+03  4.84743E+02 -1.53404E+03  8.02256E+02 -3.32894E+03 -1.93655E+03
  1.21396E+03 -5.14609E+03  2.28765E+03 -1.92970E+03  4.97399E+03  1.36248E+03 -2.37486E+02 -1.54785E+02
 -6.64338E+03  2.71003E+03 -4.49318E+03 -1.74405E+03 -4.75925E+03 -4.00429E+03  6.79884E+02  1.31081E+03
  1.62014E+03 -6.24904E+03  4.72479E+03 -6.41084E+02  6.84043E+02  2.01215E+03 -5.40441E+02  1.30566E+03
 -2.47411E+03  1.04139E+03 -2.50744E+03 -6.97802E+02 -4.71298E+03  2.84526E+03  2.54551E+02 -5.30262E+03
  1.77588E+03  5.19190E+03  3.93084E+03  1.73828E+03  3.13664E+03  7.65044E+03 -4.04393E+02  3.05974E+03
 -3.66625E+03 -3.93283E+03 -6.13776E+03 -2.59230E+03 -3.79291E+03 -4.99397E+02  4.97766E+03  3.72399E+03
  4.35162E+02  4.40867E+03  4.43550E+03  2.51630E+03  9.39151E+02  6.53217E+03 -6.55540E+01  4.51118E+03
 -1.96128E+03 -3.00542E+03 -1.53149E+03 -2.59736E+03 -3.40761E+02  4.01038E+02  2.03551E+03  2.93229E+03
 -9.60196E+02 -1.74626E+03 -2.29847E+03  1.56627E+03 -9.62194E+02 -3.23913E+03 -1.50520E+03 -4.32833E+03
  2.45647E+03 -5.58597E+03 -8.16893E+02 -8.63584E+03  1.49321E+03 -1.10556E+03  4.94985E+03  3.92263E+02
  5.41323E+03 -7.81391E+03  8.33221E+03  1.05617E+03 -2.48809E+02  1.77097E+03  5.09573E+02  7.14174E+03
 -9.67874E+02  3.77056E+03 -1.62810E+03  6.25978E+03 -2.59498E+03  1.92215E+03  1.67000E+02  2.77951E+03
  2.68812E+02 -3.53570E+03 -2.88517E+03 -1.38405E+03  6.10901E+02 -3.54402E+03 -4.33798E+03 -5.05693E+03
  7.13189E+03 -2.15796E+03  6.92832E+03  9.15230E+02  1.42044E+03  4.13801E+03  4.19775E+02 -5.36530E+01
 -3.61289E+03  1.00078E+03 -2.84063E+03  5.78009E+03 -2.74585E+03 -1.20646E+03 -4.24373E+03 -3.99584E+03
 -1.82951E+03 -4.42931E+03 -2.10427E+03 -5.23089E+03  3.83066E+03 -7.86816E+03  3.47729E+03  2.22094E+03
  1.92646E+03  4.56263E+02  8.78329E+02  7.66194E+02  5.68000E+03 -1.98321E+03  4.55794E+03  3.92039E+03
  1.69722E+03 -3.21096E+03  2.28857E+03 -5.43706E+01  1.22935E+02  2.05496E+03 -6.00599E+03 -1.71552E+03
  1.49441E+02  4.10459E+03 -3.44552E+03 -3.81339E+03 -9.07627E+03 -1.00604E+03 -5.57738E+02 -2.80733E+03
  9.41906E+02 -2.73813E+03  1.17145E+03 -8.34696E+02  4.88776E+03  1.37537E+03 -2.48132E+03  2.55214E+03
  1.24516E+03  6.47158E+03 -4.21825E+03  2.04370E+03 -2.16054E+03  2.19656E+02 -3.27708E+03 -4.34827E+03
  1.28916E+03 -6.18989E+03 -5.82853E+03 -3.39590E+03  9.61251E+02 -1.94375E+03 -3.82049E+03 -2.17016E+03
 -2.09075E+03 -8.51279E+02 -3.67775E+03 -1.57259E+03 -1.46925E+03 -6.18312E+03  5.96669E+03 -5.89762E+02
 -6.64403E+02 -2.88086E+03  1.32824E+03  3.53790E+02 -2.52384E+03  6.65720E+03 -3.09547E+03 -1.68161E+03
