 $NMID ID='MM_0lb_SNR50_10hz_g40_67.RAW', FMTDAT='(8E13.5)'
 TRAMP=1., VOLUME=1. $END
  3.08969E+05  9.28885E+00  3.38816E+05  2.59216E+05  9.01889E+04  3.36894E+05 -1.27252E+05  2.51701E+05
 -1.94735E+05  8.75270E+04 -1.07875E+05 -3.13075E+04  8.05945E+02 -5.08247E+04  6.17207E+04 -1.14362E+03
  3.92659E+04  5.54523E+04 -2.40395E+04  7.19873E+04 -6.04259E+04  6.33883E+04 -8.16982E+04  3.45240E+04
 -8.50143E+04 -9.34541E+03 -6.12359E+04 -5.17598E+04 -1.89908E+04 -6.09518E+04  2.84327E+04 -4.84729E+04
  3.81045E+04  2.59970E+03  1.67645E+04  5.33685E+04 -3.22810E+04  5.27109E+04 -6.92199E+04  5.66562E+03
 -5.88180E+04 -5.49547E+04 -6.68877E+03 -8.28855E+04  3.16327E+04 -5.63713E+04  5.00480E+04 -1.90044E+04
  4.74308E+04  1.46334E+04  3.13371E+04  2.73369E+04  1.99048E+04  3.03630E+04 -4.74931E+03  2.38564E+04
 -2.35279E+04  1.00886E+04 -1.61330E+04 -9.20066E+03  2.95347E+03 -1.04719E+04  2.69946E+04  1.82215E+04
  1.38730E+04  3.81792E+04 -2.95698E+04  3.57451E+04 -5.79602E+04  9.97566E+02 -5.93633E+04 -4.46557E+04
 -1.64938E+04 -6.90730E+04  3.97910E+04 -4.64830E+04  6.55754E+04 -6.99942E+03  3.10187E+04  3.77694E+04
 -1.04811E+04  3.97569E+04 -2.52752E+04  2.53964E+04 -2.87561E+04 -4.36365E+03 -2.00316E+04 -6.82832E+03
 -7.66975E+03 -1.56073E+04  2.05788E+03 -2.15259E+04  1.33784E+04 -2.38845E+04  1.53940E+04 -1.01427E+04
  9.39785E+03  7.13966E+03 -1.43168E+04  6.20721E+03 -2.02130E+04 -4.52925E+03 -1.03237E+04 -3.00156E+04
  2.77844E+04 -4.74302E+04  5.65431E+04 -1.45606E+04  4.40031E+04  1.83110E+04  1.50347E+04  4.24988E+04
 -2.32464E+04  3.24322E+04 -2.73351E+04  8.63165E+02 -1.05090E+04 -2.81333E+04  2.25661E+04 -3.97173E+04
  4.07014E+04 -7.14957E+03  3.88814E+04  2.66346E+04  2.23035E+04  4.59761E+04 -7.93998E+03  5.60164E+04
 -3.09208E+04  3.64192E+04 -4.68018E+04  1.33252E+04 -4.38283E+04 -2.04920E+04 -2.27259E+04 -3.97006E+04
  5.37225E+03 -4.28819E+04  2.98927E+04 -1.18523E+04  3.62023E+04  6.66935E+03  2.59736E+03  2.52333E+04
 -1.40800E+04  7.96892E+03 -8.21465E+03 -6.11713E+03  6.35025E+03 -1.40835E+04  2.10878E+04  8.09489E+03
  1.59903E+04  2.58970E+04 -4.43643E+03  2.71063E+04 -2.67988E+04  1.51791E+04 -2.67730E+04 -3.98562E+03
 -2.67003E+04 -1.57184E+04 -7.76678E+03 -2.20811E+04 -4.68071E+03 -2.61577E+04  2.04362E+04 -2.66462E+04
  3.30229E+04 -1.11188E+04  3.59918E+04  2.45041E+03  2.29557E+04  2.02598E+04  3.96125E+03  3.77903E+04
 -1.68653E+04  2.95108E+04 -2.82832E+04  5.46792E+03 -2.21386E+04 -1.11399E+04 -5.92654E+03 -1.23315E+04
 -1.73476E+03 -2.28439E+03 -1.15948E+04  6.00253E+03 -1.72844E+04  7.88121E+03 -1.57263E+04 -8.12433E+03
 -1.65339E+04 -2.06770E+04  3.45529E+03 -2.42347E+04  1.79613E+04 -1.58309E+04  2.16984E+04 -4.61209E+03
  1.19366E+04  1.84364E+04 -1.53259E+02  2.79486E+04 -1.66243E+04  1.74399E+04 -1.65840E+04 -6.29224E+03
 -1.32613E+04 -2.06785E+04 -8.04779E+03 -2.41625E+04  8.75617E+03 -1.71190E+04  2.16676E+04 -1.13092E+04
  1.80458E+04 -1.07462E+03  1.13316E+04  5.97540E+03  8.71277E+03  3.34184E+03  1.32646E+04 -4.66952E+03
  1.54438E+04 -1.03574E+03  2.42176E+04  1.41886E+04  1.07288E+04  3.77191E+04 -2.42883E+03  4.29844E+04
 -2.68987E+04  3.33582E+04 -3.52067E+04  1.78853E+04 -3.35834E+04  3.73538E+03 -3.41861E+04 -2.85349E+04
 -1.17083E+04 -3.24265E+04  1.46353E+04 -2.73879E+04  2.29799E+04 -1.96673E+04  1.96911E+04  5.10058E+03
  4.66730E+03  1.91082E+04 -1.06534E+04  1.45637E+04 -2.33581E+04 -1.22688E+03 -1.18612E+04 -1.35255E+04
 -2.44697E+03 -1.86347E+04  8.32855E+03 -1.37968E+04  1.23331E+04 -2.36286E+03 -2.10758E+02  3.59325E+03
 -1.44530E+04  4.27867E+03 -1.12840E+04 -6.01015E+03  2.86125E+03 -1.18298E+04  1.29787E+04 -1.94163E+04
  2.45251E+04 -8.38085E+03  2.22146E+04 -2.99157E+03  2.06348E+04  1.69204E+04  8.20121E+03  2.22422E+04
 -5.94687E+03  2.58902E+04 -1.81021E+04  1.76506E+04 -2.27018E+04  2.08520E+02 -1.57308E+04 -8.39957E+03
 -7.42524E+03 -4.71382E+03 -4.59867E+03 -3.79481E+03  4.26811E+03  1.06760E+03 -5.40821E+03 -2.90888E+03
 -1.63466E+04 -2.10656E+03 -1.32201E+04 -1.47438E+04 -2.72296E+03 -1.57090E+04  5.10192E+03 -1.44144E+04
  1.18704E+04 -1.23060E+03  1.46817E+04  1.35093E+02 -7.84006E+02  7.34918E+03 -6.44329E+03 -4.87823E+03
 -2.42155E+03 -7.71675E+03 -4.30486E+03 -1.53420E+04  1.10297E+04 -1.46125E+04  1.80459E+04 -8.93718E+03
  1.94828E+04 -8.61953E+02  1.20859E+04  1.18787E+04  2.98451E+03  1.65597E+04 -1.20262E+04  1.26449E+04
 -1.08746E+04  5.83715E+03 -8.06053E+03 -7.78563E+03 -2.41000E+03 -6.58083E+03  5.78085E+03  9.47580E+03
  3.21312E+03  7.79554E+03 -4.41424E+03  1.25461E+04 -1.04192E+04  1.40544E+04 -1.07345E+04  6.67382E+03
 -7.74247E+03 -3.99125E+03 -3.30573E+03 -1.21076E+04  9.14769E+03 -6.09043E+03  3.84850E+03  3.99416E+03
  3.42599E+02  6.53578E+03 -9.70714E+03  1.22034E+04 -1.00994E+04  1.11036E+04 -1.61888E+04 -1.05600E+03
 -6.30222E+03 -1.77670E+04 -6.24065E+02 -1.78970E+04  1.46499E+04 -9.58146E+03  1.41641E+04  3.56132E+03
  5.57545E+03  9.76061E+03  2.13442E+02  1.41108E+04 -1.56271E+04  6.64092E+03 -1.59889E+04 -1.30877E+02
 -3.56657E+03 -9.60076E+03 -2.74114E+03 -1.08564E+04  2.72312E+03 -5.38469E+03  2.22263E+03 -5.59991E+03
  3.78123E+03  9.29653E+02 -2.81647E+03  4.11056E+03 -3.43107E+03  1.80893E+02  1.79231E+03 -3.71627E+03
  7.67363E+03 -2.14529E+03  1.49507E+04  1.83653E+03  1.02592E+04  6.10446E+03  1.45279E+04  2.01528E+04
 -8.00062E+03  2.06014E+04 -1.67408E+04  1.53666E+04 -2.77204E+04  3.06917E+03 -1.56699E+04 -1.04914E+04
 -6.30178E+03 -1.50508E+04 -3.86274E+03 -1.16242E+04  1.05660E+02  1.82330E+02  6.37506E+03 -1.73982E+03
  3.54491E+03 -3.02122E+03  4.70367E+02 -5.17994E+03  7.43518E+03  2.46148E+03  3.73386E+03 -4.72218E+03
  8.43283E+03  4.56880E+02  3.52159E+03  1.13704E+04  2.52598E+03  8.58806E+03 -1.00815E+04  7.70333E+03
 -7.78377E+03  5.57049E+03 -8.70970E+03 -8.33582E+03  9.10637E+02 -1.45664E+04  4.02879E+03 -1.76118E+04
  1.08827E+04 -9.32183E+03  1.88032E+04  7.43871E+03  8.68417E+03  1.73445E+04  2.89278E+03  1.60106E+04
 -6.03569E+03  9.76109E+03 -1.17493E+04  2.02746E+03 -1.77374E+03  1.19471E+03 -5.16702E+03 -3.30436E+03
  2.69715E+03 -3.38331E+03  9.70414E+02 -9.52911E+02 -6.19659E+03 -1.03626E+03 -3.07926E+02  1.23632E+03
 -4.74205E+03 -7.98337E+03  1.89650E+03 -9.49035E+03  9.62514E+03 -1.18395E+04  9.79564E+03 -5.74058E+03
  1.41330E+04 -2.94028E+01  6.84656E+03  1.16372E+04 -1.87396E+03  1.64214E+04 -6.80498E+03  4.28784E+03
 -9.92751E+03  1.44421E+03 -6.90478E+03 -8.52316E+03 -4.38864E+03 -1.25961E+04  5.92374E+03 -1.05160E+04
  1.01451E+04  4.74216E+02  5.62105E+03 -2.26856E+02  3.50109E+03  2.26708E+03  1.54004E+03  2.92812E+03
  1.04716E+04  1.66597E+03  4.22716E+03  6.23575E+02  5.24784E+03  6.99008E+03 -3.28221E+03  1.43339E+04
 -4.31002E+03  1.13264E+04 -6.21853E+03  8.24616E+03 -1.92083E+04  6.26897E+03 -9.64745E+03 -7.49464E+03
 -6.04106E+03 -1.35842E+04  4.45244E+03 -1.18971E+04  1.19156E+04 -4.67279E+03  8.87509E+03  1.87143E+03
  5.58159E+03  3.76466E+03  7.27102E+03  4.65984E+03 -7.66096E+03  3.01522E+03 -1.37444E+03 -1.63790E+03
 -2.09090E+03 -1.18536E+03  2.08616E+03 -1.33805E+03  8.81003E+03 -2.46768E+03  6.92529E+03 -6.85895E+02
 -1.86889E+03 -8.49080E+01  7.31174E+03  1.73322E+01  6.48694E+02 -1.11951E+03  1.25009E+03 -9.42467E+02
  9.07966E+02  6.26600E+02  6.29847E+03  2.95820E+03 -5.95056E+02  5.48258E+03  1.76668E+03  8.62666E+03
 -5.86608E+03  2.66849E+03 -1.01674E+04 -2.97766E+03 -4.17479E+03 -3.13690E+03 -7.22178E+03 -3.99152E+03
  2.16864E+03 -3.78872E+03  6.17833E+02  2.99537E+03 -6.93171E+02  2.91617E+03 -3.98702E+03  1.60659E+03
 -7.19880E+03  4.80042E+02 -5.30381E+03 -9.14334E+02 -6.36134E+03 -1.18520E+04  1.07491E+03  2.69015E+03
  3.12622E+03 -7.46773E+03  4.89683E+03  2.18546E+03  1.84390E+03  4.84045E+03 -3.69322E+03  2.21974E+03
  8.24193E+02 -5.63738E+03  2.39396E+03 -2.34621E+03 -1.59563E+02 -1.07153E+03  1.00319E+03 -2.24279E+03
  8.23926E+03 -1.92458E+03  8.09259E+03  9.73267E+03  7.43634E+03  1.05636E+04 -3.64189E+03  4.34225E+03
 -4.19268E+03  4.35165E+03 -7.20371E+03  2.39995E+03  3.45771E+03 -2.02826E+03 -1.01637E+03 -6.50346E+03
  7.58686E+03 -5.44723E+03  6.18075E+03  1.12600E+04 -1.61954E+02 -1.71840E+03 -8.44767E+02  8.32930E+03
 -4.87310E+03  3.80935E+02  6.78384E+02  4.86459E+03 -7.40999E+03  8.71790E+02  4.43812E+03  1.24997E+03
 -6.87171E+03  6.25353E+03 -7.76786E+03  2.42312E+03 -3.24987E+03 -2.60562E+02 -1.35678E+04 -3.05043E+03
 -5.24848E+03 -1.02884E+04  7.76050E+03 -1.74826E+04  1.49745E+04 -6.07889E+03  1.08324E+04 -7.73723E+03
  9.23199E+03  3.62708E+03  7.46220E+03  7.11244E+03  3.00408E+03  5.73680E+03 -4.41191E+03  8.48834E+03
 -4.22158E+03  8.10375E+02 -5.38276E+03 -2.18579E+03  6.04264E+02 -4.55385E+03 -2.21373E+03  1.00449E+02
 -3.40994E+03 -2.28964E+03 -1.19106E+03  5.65506E+03 -1.68433E+03  1.00834E+03  5.97021E+02 -3.72343E+03
  1.09658E+04 -2.18419E+03  8.14544E+03  3.63405E+03  8.40579E+03 -8.92094E+03  1.14366E+03  9.84153E+03
 -8.45812E+03  8.41305E+03 -1.00992E+04  3.44345E+03 -1.43836E+04  3.92471E+03 -1.53328E+04 -5.69537E+03
 -1.08561E+03 -1.43712E+04  8.28904E+03 -1.17453E+04  2.17093E+03 -2.50430E+03  3.14105E+03  9.00851E+02
  5.31952E+03  4.98696E+03  1.45659E+03  3.27670E+02 -2.72295E+03 -9.64566E+02  1.87738E+03 -1.45505E+03
 -1.29656E+03  5.33551E+03  4.74692E+02 -7.92116E+02  8.49645E+03  7.39408E+03  1.47865E+03 -4.31881E+02
 -1.12660E+03  2.95321E+03 -8.17438E+03  3.01582E+03 -6.13632E+03 -7.16089E+03  2.57110E+03 -3.49871E+03
  5.03184E+03 -9.72735E+03  2.54107E+02 -8.22860E+02  5.85275E+03 -1.40868E+03  8.69173E+03  5.83614E+03
 -3.83506E+03 -2.43732E+03 -2.26168E+03 -5.55327E+03 -6.07836E+03 -1.70869E+03 -8.27577E+03 -1.59518E+01
  1.09090E+03  2.47752E+03 -4.85568E+03 -2.46880E+03  5.42805E+02  9.11343E+02  1.90384E+03  2.10065E+03
 -1.08219E+03 -4.26097E+03  3.26356E+03 -2.97591E+03 -1.87448E+03 -6.64396E+03  6.86098E+02 -6.59140E+03
  9.68353E+03  3.10781E+03 -1.56480E+03  3.40310E+03 -4.28015E+03  3.67905E+03 -3.26547E+03  3.63595E+03
