 $NMID ID='MM_0lb_SNR50_18hz_g60_23.RAW', FMTDAT='(8E13.5)'
 TRAMP=1., VOLUME=1. $END
  3.04450E+05  4.48894E+03  3.34403E+05  2.52538E+05  8.52854E+04  3.35535E+05 -1.31016E+05  2.47368E+05
 -1.91416E+05  8.05888E+04 -1.08948E+05 -3.29544E+04  9.31592E+01 -4.99874E+04  5.54930E+04  9.40847E+02
  3.61033E+04  5.77579E+04 -1.77357E+04  7.33315E+04 -6.40050E+04  6.30487E+04 -8.42194E+04  2.84565E+04
 -8.19307E+04 -1.35723E+04 -5.70964E+04 -4.79998E+04 -1.12297E+04 -6.81505E+04  2.63458E+04 -4.65001E+04
  3.77989E+04  6.23682E+03  1.43647E+04  4.83264E+04 -3.33785E+04  4.63976E+04 -6.90998E+04 -1.02295E+03
 -5.10753E+04 -5.96554E+04 -5.77168E+03 -7.58151E+04  3.80877E+04 -5.35339E+04  4.25139E+04 -1.43557E+04
  4.23251E+04  8.17662E+03  3.72829E+04  2.79314E+04  1.45715E+04  3.06327E+04 -6.18258E+03  2.86858E+04
 -2.14359E+04  1.45796E+04 -1.44196E+04 -1.04479E+03  6.62026E+03  3.79173E+02  2.34381E+04  1.59020E+04
  6.03567E+03  3.41556E+04 -3.27284E+04  3.46284E+04 -5.87571E+04  6.54372E+02 -5.56152E+04 -4.57005E+04
 -7.85864E+03 -6.10202E+04  3.89936E+04 -4.24886E+04  5.45896E+04 -7.52501E+03  3.33315E+04  3.42397E+04
 -1.06033E+04  3.51338E+04 -3.12131E+04  1.42032E+04 -3.23615E+04 -2.53408E+03 -1.67657E+04 -1.14477E+04
 -9.29867E+03 -1.25081E+04 -6.20021E+03 -1.67930E+04  7.47825E+03 -2.15141E+04  1.71325E+04 -8.95453E+03
  9.49298E+03  2.68031E+03 -4.16598E+03  8.49090E+03 -1.85627E+04 -7.35068E+03 -8.94372E+03 -3.51462E+04
  2.28389E+04 -4.38379E+04  5.15648E+04 -1.74054E+04  4.28462E+04  1.72503E+04  1.71031E+04  4.29129E+04
 -1.55235E+04  2.83027E+04 -2.72436E+04 -6.66142E+02 -9.71085E+03 -2.51237E+04  2.12444E+04 -3.31294E+04
  3.52121E+04 -9.55076E+03  3.64487E+04  2.37796E+04  1.57260E+04  4.49395E+04 -4.07506E+03  4.66126E+04
 -2.92535E+04  3.27447E+04 -3.94945E+04  9.58633E+03 -3.91702E+04 -1.22888E+04 -1.66181E+04 -3.20738E+04
  8.73745E+03 -3.83727E+04  2.94614E+04 -1.64656E+04  2.98233E+04  1.13946E+04  3.58586E+03  1.69292E+04
 -1.76290E+04  8.45193E+03 -7.50496E+03 -1.02360E+04  5.84061E+03 -1.06720E+04  2.13510E+04  4.55309E+03
  1.43110E+04  1.93709E+04 -2.86698E+03  2.27024E+04 -2.28097E+04  9.79582E+03 -2.93819E+04 -5.26725E+03
 -1.76408E+04 -1.90386E+04 -6.84446E+03 -2.13591E+04  2.19345E+03 -1.72357E+04  1.54704E+04 -1.61495E+04
  2.53845E+04 -6.48415E+03  2.56386E+04 -3.31530E+02  1.96684E+04  2.00282E+04  2.15261E+03  3.29302E+04
 -1.76601E+04  3.05445E+04 -2.48021E+04  8.79089E+03 -1.82195E+04 -1.00611E+04 -6.36748E+03 -1.05680E+04
  1.98295E+03 -3.46042E+03 -4.49920E+03  2.32447E+03 -1.31407E+04  3.65854E+03 -1.46965E+04 -5.51563E+03
 -7.11894E+03 -1.55100E+04  8.45679E+03 -2.53860E+04  1.34937E+04 -1.39174E+04  1.53809E+04 -3.81772E+03
  9.80210E+03  1.06870E+04 -1.05504E+03  1.56042E+04 -1.41744E+04  5.66464E+03 -1.61505E+04 -3.49884E+03
 -1.07131E+04 -1.53945E+04  1.49710E+03 -2.13968E+04  1.02709E+04 -1.78895E+04  1.99987E+04 -1.03812E+04
  1.90848E+04  3.06737E+03  1.17345E+04  4.48717E+03  5.59061E+03  5.43616E+03  9.45229E+03 -3.43966E+03
  1.70087E+04  3.62327E+03  1.92433E+04  8.72539E+03  1.30060E+04  2.61126E+04 -2.57056E+03  3.00167E+04
 -1.65703E+04  2.64298E+04 -2.54053E+04  9.90288E+03 -2.86984E+04 -3.86207E+03 -2.33709E+04 -1.74117E+04
 -9.74317E+03 -2.45009E+04  5.36350E+03 -2.02104E+04  1.81561E+04 -9.27150E+03  2.01568E+04  4.77444E+03
  4.49317E+03  1.56974E+04 -9.60085E+03  1.00969E+04 -1.28920E+04  2.70563E+03 -9.47315E+03 -8.20770E+03
 -5.28562E+03 -1.74732E+04  7.43495E+03 -9.10858E+03  8.30350E+03  2.08527E+03 -1.50314E+03  1.06548E+04
 -2.00417E+03  2.43859E+03 -4.00014E+03 -5.37179E+03  3.08764E+03 -1.18142E+04  1.03517E+04 -9.58333E+03
  1.65046E+04 -4.88051E+03  1.31987E+04  5.36523E+03  1.21645E+04  9.26498E+03  7.08915E+03  1.76643E+04
 -3.91255E+01  1.99893E+04 -1.02795E+04  1.74619E+04 -8.29383E+03  3.54704E+03 -9.71761E+03 -3.52553E+03
 -5.41187E+03 -7.54410E+03  1.47518E+03  4.16287E+03 -2.25023E+03  5.78501E+03 -7.23288E+03  5.15085E+03
 -7.50683E+03  1.37983E+03 -6.00223E+03 -8.28185E+03 -3.85251E+03 -1.21980E+04  2.36388E+03 -1.25810E+04
  7.45560E+03  1.50340E+03  3.44942E+03  1.30902E+03  3.08951E+03 -2.25057E+03 -5.71778E+03  2.37756E+03
 -7.13507E+03 -4.17934E+03  2.37431E+02 -7.76901E+03  2.17960E+03 -1.50740E+04  1.00497E+04 -2.61314E+03
  1.30258E+04  1.64664E+03  1.06680E+04  4.62052E+03 -9.37018E+02  1.12280E+04 -5.10961E+03  9.89672E+03
 -7.12133E+03  4.18114E+03 -8.41451E+03 -1.67333E+03  3.03188E+03 -1.17457E+03  3.16346E+03  1.62961E+03
  3.04989E+03  5.02902E+03  2.41497E+03  7.75381E+03 -1.06518E+04  4.93820E+03 -1.03234E+04 -2.98268E+02
 -5.93068E+03 -2.03703E+03  3.61782E+02 -9.45789E+03  3.82261E+03 -5.42808E+03  5.47426E+03 -4.53871E+02
 -8.58476E+02  4.40677E+03 -5.74663E+03  5.21108E+03 -6.12365E+03  2.05564E+03 -3.45848E+03  1.90938E+03
  1.28191E+03 -1.04200E+04  3.62651E+03 -7.72417E+03  6.21294E+03 -4.74026E+03  8.71043E+03  2.93991E+03
  7.45212E+03  8.75034E+03 -2.55660E+03  6.16239E+03 -6.36285E+03  4.49077E+03 -2.66603E+03  2.46337E+03
 -6.49107E+03 -5.10126E+03 -5.05534E+03 -7.56508E+03  1.64576E+03 -2.71174E+03  3.25961E+03 -1.86848E+03
  5.79218E+03  3.73222E+03 -1.18576E+02  1.67744E+03  8.59738E+02 -4.70966E+03  2.37615E+03 -4.45974E+03
  5.54408E+03 -7.98351E+02  4.91841E+03  2.21116E+03  6.64187E+03  5.23489E+03  6.54035E+03  1.02329E+04
 -3.88111E+03  6.56311E+03 -1.18176E+04  1.06931E+04 -9.03377E+03  2.94615E+02 -5.66708E+03 -2.50335E+03
 -4.32697E+03 -1.05560E+04 -2.67546E+03 -9.85813E+03  1.45338E+03  1.98022E+03 -7.17456E+02 -6.37178E+03
  3.53329E+03 -1.18343E+02  1.19677E+03 -5.30253E+03  3.99746E+03 -7.35944E+02  4.87772E+03  2.34010E+03
  6.11672E+03  5.92539E+03  1.74684E+03  2.70709E+03 -2.26853E+03  2.29778E+03 -5.40559E+03  1.92817E+03
 -5.22661E+03  1.05246E+03 -4.64563E+03 -5.15990E+03 -1.92766E+03 -2.35911E+03  6.42609E+02 -9.98400E+03
  5.88602E+03 -7.73856E+02  9.09886E+03  3.39462E+03  1.03144E+04  5.61790E+03  2.36367E+03  3.78850E+03
 -4.15043E+03  4.21449E+03 -6.44723E+03 -1.30996E+03 -3.59622E+03 -3.91804E+03  1.82236E+03  8.68575E+02
 -2.25351E+03  5.47818E+02 -3.38241E+03 -9.04913E+02 -4.71966E+03 -2.13213E+02 -4.69543E+03 -2.85903E+03
 -5.24389E+02 -4.21362E+03 -1.57548E+03 -6.16981E+03  3.21438E+03 -4.45767E+03  2.62987E+03 -4.32710E+03
  7.41986E+03  1.68635E+03  1.64016E+03  4.43847E+03 -1.83376E+03  3.53626E+03 -3.27470E+03  4.06292E+03
 -3.81841E+03  3.66968E+03 -7.71958E+03 -1.35702E+03  1.33094E+02 -1.78302E+03  3.32628E+03  8.30878E+02
  2.83754E+03 -4.56805E+03  1.35773E+03  1.29843E+03  7.65438E+01  4.51910E+03  1.22779E+03  1.01612E+03
  1.98669E+03 -4.07257E+02 -1.79123E+03  1.76289E+02  7.74445E+02  3.38660E+03  3.62821E+03  2.75258E+03
  2.41124E+03  5.43547E+02 -1.04141E+03  5.20416E+03 -4.65566E+03  3.32326E+03 -1.48688E+03  2.62400E+03
 -8.15960E+02 -5.57071E+03  4.53988E+03 -8.43193E+03  3.36275E+03 -7.29660E+03  5.99159E+03  5.98203E+02
  1.95776E+03 -1.27737E+03  8.18948E+01  6.85125E+03 -1.46677E+03  3.08884E+03 -1.97120E+03  1.08600E+03
 -2.68613E+03 -9.80676E+02  5.41330E+03 -8.68128E+02  4.27568E+02  2.05233E+02 -2.09780E+02 -1.35771E+03
 -1.32952E+03 -8.11078E+02  4.86467E+03  2.28810E+02  1.48911E+03  5.98116E+01  5.22322E+03 -3.51064E+03
  2.39533E+03 -3.85380E+03  2.65023E+03 -1.23612E+03 -1.86498E+03 -7.35135E+02  2.72638E+03  6.45359E+03
 -5.23647E+03  1.53444E+03 -2.89668E+03  5.71568E+03 -5.24314E+02 -1.80445E+03  9.13340E+02 -3.06141E+03
  1.42493E+03  1.42419E+03  9.62390E+01  2.77344E+03  4.22842E+03 -4.01985E+02 -4.78924E+02  3.65158E+03
 -3.90723E+03 -5.66774E+03  3.36652E+03 -2.21266E+02 -5.48919E+03 -1.19278E+03  6.74858E+02 -1.39395E+03
  1.42693E+02 -1.34701E+03 -1.94785E+03 -6.73569E+02  1.25076E+03 -3.61937E+03  1.52400E+03  1.75075E+03
  6.47229E+03 -1.54272E+03  1.29927E+03 -2.79327E+03  1.92698E+03 -1.64365E+01  2.89488E+03 -4.67128E+03
  1.69670E+03 -1.97887E+03  2.47387E+03 -3.68272E+03 -1.55304E+03  4.30620E+03  2.31391E+03 -3.13897E+03
 -1.29894E+03  2.10421E+03 -8.86858E+02  7.13593E+02 -3.78328E+03 -3.44806E+03 -1.87290E+03  1.89672E+03
  3.18644E+03  2.30220E+03  7.56221E+02  1.09107E+03  1.90400E+03  2.47429E+03  8.15083E+02  4.17266E+03
 -2.97350E+02 -9.38663E+02  1.66312E+03 -1.27367E+03  6.14571E+03  1.62822E+02  1.19420E+03  5.46229E+02
 -6.66618E+02  4.19276E+02 -1.91809E+03 -1.84889E+03 -1.36805E+03 -1.86060E+03  9.67869E+02  2.68662E+03
 -1.20328E+03 -7.85617E+02  2.72816E+02  1.84675E+02  1.46788E+03 -3.58732E+03  1.00524E+03  6.78957E+02
  2.02792E+03  2.58815E+03  1.01691E+03  2.22706E+03  2.74608E+03  2.47584E+03  3.33171E+03  1.45648E+03
 -3.77118E+03  2.34973E+03 -1.32992E+03  2.97590E+03  4.81760E+02 -1.23816E+03 -3.64697E+03  2.58713E+03
 -1.66650E+02 -9.65653E+01 -1.00493E+03  3.17256E+03  3.43646E+03 -3.48896E+03 -3.47567E+03 -3.75328E+03
  3.30974E+03 -2.09507E+03  1.62147E+03 -3.99504E+03  2.74731E+03  4.28140E+03  3.97693E+02  5.72021E+02
 -1.63157E+03  3.11607E+03 -2.97815E+03 -4.56179E+03 -1.04635E+03  1.03206E+03 -1.31574E+03 -4.49820E+03
 -5.56507E+01  2.05469E+03  1.54840E+02 -2.32091E+03  5.36234E+03 -6.13027E+03  6.60495E+02 -2.84105E+03
 -4.49520E+02  3.69006E+03 -3.15046E+03 -7.69652E+03 -1.59471E+03 -2.09973E+01  3.75653E+03 -3.90163E+03
 -5.88650E+03  5.05784E+03  1.27529E+03 -1.55502E+03  6.28290E+02  3.59182E+03 -1.89924E+03  1.48117E+03
  4.21237E+03  1.09636E+03  1.69309E+02  1.37238E+03 -7.04527E+03 -2.34818E+03  2.45806E+03 -2.63762E+03
 -9.05885E+01  2.05228E+03 -1.91371E+03 -2.57416E+03  1.89610E+03 -3.05517E+03  1.80077E+03  2.32487E+03
  1.81041E+03 -7.60122E+02 -4.30314E+03  2.79011E+03  2.49053E+03 -3.43111E+03 -3.11925E+03 -2.91396E+02
 -3.90540E+03  2.65609E+03  8.46560E+02  3.90073E+03 -4.20882E+03  1.99163E+03  9.45030E+02 -9.54655E+02
 -1.41273E+03  3.70783E+01  6.38763E+02 -5.08646E+02  2.32113E+03 -2.47559E+03  1.98901E+03 -1.50228E+03
  3.43113E+03 -8.90304E+02  1.97150E+03 -2.39137E+02 -2.20508E+03  9.23793E+02  3.84524E+03  1.07730E+03
