 $NMID ID='MM_0lb_SNR50_11hz_g55_17.RAW', FMTDAT='(8E13.5)'
 TRAMP=1., VOLUME=1. $END
  3.07611E+05 -1.34276E+03  3.38060E+05  2.52536E+05  8.22132E+04  3.42633E+05 -1.35831E+05  2.50222E+05
 -1.88357E+05  8.23974E+04 -1.11137E+05 -2.76477E+04 -2.08840E+02 -5.08961E+04  4.98231E+04  3.24459E+03
  3.20296E+04  5.16661E+04 -2.21297E+04  7.97341E+04 -6.26528E+04  6.64343E+04 -8.96380E+04  3.47883E+04
 -8.05649E+04 -7.70046E+03 -4.90675E+04 -4.66522E+04 -1.98393E+04 -7.12109E+04  3.25346E+04 -4.48982E+04
  4.43688E+04  5.05917E+03  1.74563E+04  5.60108E+04 -3.69487E+04  4.62954E+04 -6.32142E+04 -4.45997E+03
 -5.34465E+04 -6.06203E+04 -9.92516E+03 -7.80810E+04  3.14963E+04 -5.60926E+04  5.05706E+04 -1.55718E+04
  4.25701E+04  1.59541E+04  3.46918E+04  2.86211E+04  2.37448E+04  2.67600E+04 -3.53462E+03  3.21455E+04
 -2.60592E+04  1.03453E+04 -2.10714E+04 -2.36212E+03  8.53818E+03 -9.03445E+03  1.79613E+04  1.68031E+04
  1.30598E+03  4.26418E+04 -3.22678E+04  3.93455E+04 -6.25604E+04  2.29090E+03 -5.35015E+04 -4.21868E+04
 -1.22734E+04 -6.64549E+04  4.79490E+04 -4.90222E+04  6.04183E+04 -3.38062E+03  3.44587E+04  3.37218E+04
 -4.88884E+02  4.78351E+04 -3.56967E+04  1.65004E+04 -3.25178E+04  4.54369E+02 -1.82454E+04 -1.34461E+04
 -8.72587E+03 -1.53492E+04 -5.79827E+03 -1.70016E+04  9.50107E+03 -2.53375E+04  1.86967E+04 -1.22493E+04
  1.17757E+04  1.42902E+03 -9.20803E+03  1.36389E+04 -2.06328E+04 -7.32541E+03 -2.83154E+03 -4.00028E+04
  3.19825E+04 -4.49516E+04  5.04616E+04 -1.97972E+04  4.61548E+04  2.07028E+04  2.53695E+04  4.20841E+04
 -2.19099E+04  4.05432E+04 -2.41286E+04  8.69840E+03 -1.24154E+04 -2.96628E+04  1.73978E+04 -3.92468E+04
  4.12157E+04 -1.02400E+04  3.97846E+04  2.55456E+04  1.95142E+04  5.06388E+04 -6.65100E+03  5.45445E+04
 -3.63648E+04  3.64371E+04 -4.43906E+04  9.68019E+03 -4.03870E+04 -1.51309E+04 -2.44710E+04 -4.19548E+04
  9.49868E+03 -3.94274E+04  2.67005E+04 -1.76061E+04  3.00357E+04  1.42403E+04  2.97533E+03  2.31012E+04
 -1.20078E+04  1.21616E+04 -1.00085E+04 -8.79274E+03  3.88677E+03 -1.25245E+04  1.86198E+04  1.04587E+04
  2.14024E+04  2.92695E+04 -2.76710E+03  2.64620E+04 -2.57003E+04  9.40748E+03 -2.63754E+04 -3.90417E+03
 -2.08853E+04 -2.42456E+04 -1.23353E+04 -2.72413E+04  8.60709E+03 -2.45093E+04  1.60990E+04 -2.16932E+04
  3.19900E+04 -1.70745E+04  3.57705E+04 -9.47364E+02  2.47392E+04  1.86530E+04  5.81959E+03  4.15010E+04
 -1.87499E+04  3.49294E+04 -3.55306E+04  9.66686E+03 -2.55928E+04 -1.33654E+04 -4.52783E+03 -1.97259E+04
 -1.17591E+03 -3.87577E+03 -8.99236E+03  1.40679E+04 -1.93435E+04  5.85804E+03 -1.36030E+04 -9.80043E+03
 -9.78341E+03 -1.63718E+04 -1.26789E+02 -2.33723E+04  2.13428E+04 -1.79957E+04  2.53383E+04 -4.13566E+03
  1.30551E+04  2.01410E+04 -2.92837E+03  1.68536E+04 -1.49027E+04  1.59676E+04 -2.24150E+04 -7.60021E+03
 -1.35755E+04 -1.06372E+04 -6.56658E+03 -2.37549E+04  7.06037E+03 -2.32284E+04  2.31541E+04 -1.50611E+04
  2.02603E+04 -3.31788E+03  1.89436E+04  6.37751E+03  1.78662E+03 -5.22432E+02  1.51185E+04 -8.58874E+02
  2.27645E+04  1.66762E+03  2.30422E+04  2.05164E+04  1.94084E+04  3.79729E+04 -9.71978E+02  3.91120E+04
 -2.98174E+04  3.12193E+04 -3.40052E+04  1.87412E+04 -4.09937E+04  1.75841E+03 -3.00894E+04 -2.00066E+04
 -1.43856E+04 -3.45777E+04  1.19423E+04 -2.86237E+04  2.82899E+04 -1.45318E+04  2.29792E+04  9.70889E+03
  8.61357E+03  1.82355E+04 -1.04511E+04  1.56456E+04 -1.88084E+04  2.13011E+03 -1.43221E+04 -1.74485E+04
  2.03857E+03 -1.79451E+04  1.16085E+04 -9.70212E+03  1.15930E+04 -2.68788E+03 -1.30033E+03  9.19297E+03
 -8.58885E+03 -1.64925E+03 -1.18186E+04 -1.62005E+03 -1.43099E+03 -1.43104E+04  1.01182E+04 -1.83992E+04
  2.17089E+04 -1.03961E+04  2.50931E+04  4.37549E+03  2.56027E+04  1.51474E+04  9.67554E+03  2.43509E+04
 -3.74779E+03  2.77252E+04 -1.48031E+04  1.35457E+04 -1.89180E+04 -1.14357E+03 -1.80077E+04 -7.51759E+03
  6.97900E+02 -3.69878E+03 -2.65486E+03  3.20191E+03 -6.90021E+03  2.39879E+03 -3.85174E+03  3.33445E+02
 -1.21567E+04 -2.31000E+03 -1.38838E+04 -1.27561E+04 -7.69923E+03 -1.66462E+04  4.22143E+03 -1.09501E+04
  1.48951E+04 -8.64387E+03  1.84953E+03  4.75677E+03 -1.01597E+02  7.56254E+03 -7.23483E+03  4.89076E+03
 -4.84529E+03 -1.21789E+04 -2.28275E+03 -8.43584E+03  1.09219E+04 -1.70969E+04  1.86525E+04 -9.90527E+03
  1.96081E+04  3.21462E+03  1.56514E+04  8.40592E+03  5.29490E+03  1.58733E+04 -1.21741E+04  1.52197E+04
 -1.08203E+04  4.64198E+03 -6.26985E+03 -4.55306E+02  6.24315E+02  1.49906E+01 -1.33750E+00 -7.55187E+02
  6.06185E+03 -1.40503E+02 -1.67911E+03  1.20339E+04 -8.50007E+03  1.25135E+04 -1.42876E+04  3.27189E+03
 -7.18334E+03 -4.69036E+03 -3.30719E+03 -6.37784E+03  4.41655E+03 -1.35767E+03  8.90781E+03  7.12410E+03
 -2.02725E+03  9.48980E+03 -6.97512E+03  9.52235E+03 -1.41710E+04  7.84695E+03 -1.86951E+04 -3.86410E+03
 -5.64676E+03 -1.19091E+04  2.42380E+03 -1.39138E+04  1.32088E+04 -8.84690E+03  1.47376E+04  3.89190E+03
  9.51912E+03  8.73500E+03 -1.21633E+02  1.66431E+04 -9.75091E+03  1.43827E+04 -1.26645E+04 -2.86251E+03
 -1.05838E+04 -1.47079E+04 -4.85963E+03 -9.60551E+03  7.68369E+03 -7.10575E+03  4.41707E+03 -2.85005E+03
  8.01792E+02  6.52413E+03  7.79929E+02  9.76815E+01  3.72546E+03 -1.43537E+03 -3.68581E+03 -5.32776E+03
  1.05373E+04 -1.65053E+03  8.23194E+03  1.20522E+03  1.46264E+04  9.14044E+03  1.24865E+04  1.81357E+04
  1.54230E+03  2.04744E+04 -2.35134E+04  8.12769E+03 -2.03394E+04  1.84072E+03 -1.92290E+04 -1.30554E+04
 -9.82442E+03 -1.67466E+04  4.26112E+03 -9.40822E+03 -5.15858E+03 -8.24366E+02  3.19804E+03 -2.39419E+03
 -7.12620E+01  7.70833E+02  1.28488E+03 -6.39804E+03  5.83282E+03 -4.28284E+03  8.29842E+03  2.21868E+03
  1.01042E+03  3.85525E+03  2.28617E+03  6.57656E+03  2.09960E+03  9.52540E+03 -1.01088E+04  3.29002E+03
 -9.83519E+03  2.06758E+03 -1.30902E+04 -1.74239E+04 -3.87434E+03 -1.01203E+04  4.15388E+03 -1.18094E+04
  1.52466E+04 -1.04769E+04  1.19547E+04  1.22549E+03  1.47628E+04  1.09815E+04 -3.25346E+03  2.07134E+04
 -1.12712E+04  1.09920E+04 -1.30179E+04  8.57857E+03 -4.24100E+03  9.71712E+02  2.79899E+03  2.57876E+01
 -1.95045E+03  3.67226E+03 -1.23467E+03  3.65929E+03 -8.48107E+02  4.13372E+03 -5.09843E+03 -3.11276E+03
 -5.04692E+03 -6.79405E+03 -2.67045E+03 -1.30388E+04  4.48204E+03 -3.12220E+03  1.53966E+04  7.09394E+02
  8.45775E+03  6.95157E+03  1.76777E+03  1.00705E+04 -1.32821E+03  1.09832E+04 -1.25050E+04  3.40771E+03
 -1.33122E+04 -1.87733E+03 -1.01180E+04 -7.05211E+03 -1.31720E+03 -1.34414E+04  3.93923E+03 -2.79905E+03
  7.63763E+03 -2.82318E+03  1.45339E+04  9.99886E+02  4.99082E+03  4.71033E+03 -2.03636E+03  3.97715E+03
  9.43384E+03  1.32931E+03  3.34720E+03  5.10054E+03  5.57912E+03  4.85034E+03  7.55056E+03  1.08120E+04
 -8.94611E+02  5.93303E+03 -7.35531E+03  4.70159E+03 -1.60334E+04  3.42299E+03 -1.75660E+04 -5.91600E+03
 -8.79197E+03 -1.32904E+04  6.25467E+03 -1.76240E+04  2.40047E+03 -6.62243E+03  4.78836E+03  1.25271E+03
  6.96457E+03  4.57316E+03  2.93217E+03  6.00726E+03 -7.93908E+03  4.08641E+03 -5.86900E+03  2.12445E+03
 -4.10408E+03 -6.65494E+03  1.52322E+03 -3.96294E+03  2.69722E+03 -2.74501E+03  3.19887E+03 -3.46438E+02
  5.53496E+01 -4.16373E+03  3.11657E+03  6.01372E+03 -4.68538E+03  2.41664E+03  2.99386E+03 -4.97274E+03
 -1.85166E+02 -3.44178E+03 -7.53760E+02  1.83150E+03  8.12329E+03  3.15855E+03  8.32152E+02  2.00400E+03
 -5.43592E+03  5.15703E+03 -1.42720E+04  3.17877E+03 -6.46761E+03 -7.81389E+03 -1.72611E+03 -1.85429E+02
  2.96578E+03 -2.56887E+03 -5.92395E+02 -5.98485E+03  4.45125E+03 -1.03576E+03  2.73541E+03  7.92258E+02
 -1.82404E+03  8.36000E+03 -5.26578E+03 -6.20666E+03 -3.67827E+03 -2.88440E+03  1.07983E+03 -5.44148E+03
  3.33761E+03 -9.28848E+03  1.18488E+04 -7.02053E+02  7.89714E+02  1.91261E+03  7.49808E+03  3.43350E+03
 -5.02348E+03 -6.39762E+02  3.42131E+02 -3.93950E+03  1.50002E+03 -3.71539E+03  6.42129E+03 -6.82064E+03
  3.37971E+03 -2.19658E+03  7.32899E+03  6.96978E+03  2.55199E+03  6.79978E+03  1.89557E+03  7.00935E+03
 -8.71428E+03  3.51518E+03 -2.98924E+03 -6.36107E+03 -1.08949E+03 -1.23954E+04 -2.42534E+03  2.38448E+01
  6.56169E+03 -2.43082E+03  2.20210E+03  4.05982E+03  2.93826E+02  5.44352E+03 -4.29742E+03  3.06812E+03
 -4.24011E+03  6.60370E+03  2.19317E+03  3.22158E+03  6.30002E+02  5.82658E+02 -2.19046E+03  4.90079E+01
 -9.75937E+02  3.92982E+03  1.94671E+03  1.11509E+04 -7.02133E+03 -4.01313E+03 -8.27362E+03 -8.28822E+03
 -4.37793E+03 -5.35897E+03 -4.07519E+03 -1.06692E+04  4.17362E+03 -9.32131E+03  9.03838E+03  1.60295E+03
  7.97623E+03  2.83331E+03  2.66087E+03  1.45973E+04  1.58653E+03  4.22393E+03 -7.50103E+02  7.87726E+03
 -6.46635E+02 -3.28693E+03 -4.76661E+03 -4.17605E+03 -6.08280E+03  3.43279E+03 -2.38800E+03 -6.91817E+03
 -1.68094E+03 -2.53937E+03 -5.18595E+03 -1.00064E+04  5.45279E+03 -9.06376E+02  1.26299E+03 -1.19810E+03
  8.93441E+03 -2.84698E+03  5.71747E+03 -2.34953E+03  1.27911E+04  3.26458E+03  1.46035E+02  8.20606E+03
 -5.33891E+03  4.18534E+03 -6.61414E+03 -1.31807E+03 -7.96774E+03 -2.74493E+03 -5.32830E+03 -9.60323E+02
 -3.14832E+03 -1.24544E+04  4.27414E+03 -5.80797E+03  2.08725E+03 -2.08286E+03  6.05183E+03 -6.88509E+03
  6.32787E+03  6.41997E+02  1.78639E+03 -3.77819E+01  2.54577E+03  2.00253E+03  3.13796E+03 -6.25039E+03
  7.20727E+02 -2.32517E+03  3.66540E+03 -5.83782E+02 -6.29742E+03  1.56809E+02  6.08279E+03  5.26557E+02
 -2.39005E+03  3.66757E+03 -4.61804E+03 -1.91393E+03 -6.65330E+03  1.59951E+02  5.15024E+03 -5.81200E+03
  6.90342E+03 -4.85838E+03  3.53932E+03 -2.82409E+03  3.68494E+03 -3.70599E+03  5.07101E+03 -3.34790E+02
  5.12119E+02  7.81349E+03 -5.51773E+03 -1.33531E+03 -4.08172E+03  2.66705E+03 -4.84803E+03 -4.02607E+03
 -1.17471E+02  1.27254E+03 -3.40775E+03  5.01692E+02 -1.81291E+03  2.33469E+03 -7.70974E+03 -2.93055E+03
 -5.56543E+03 -9.18846E+02 -8.68700E+02 -4.59738E+03  1.06052E+04 -2.42061E+03  8.39291E+03 -9.52787E+03
  3.31730E+03  8.77458E+02  2.49813E+03  4.35773E+03 -2.81117E+03  7.84788E+03 -1.41307E+03  1.61065E+03
