 $NMID ID='MM_0lb_SNR50_14hz_g50_16.RAW', FMTDAT='(8E13.5)'
 TRAMP=1., VOLUME=1. $END
  3.17811E+05  1.50153E+03  3.40085E+05  2.47443E+05  8.22614E+04  3.38065E+05 -1.35570E+05  2.47115E+05
 -1.92525E+05  8.24583E+04 -1.14672E+05 -3.47810E+04 -4.63515E+03 -4.98511E+04  5.89404E+04  8.74269E+02
  3.31006E+04  5.19087E+04 -2.35250E+04  7.83576E+04 -6.05433E+04  6.67993E+04 -8.15612E+04  3.43870E+04
 -7.84459E+04 -6.42090E+03 -5.72360E+04 -5.13046E+04 -1.27066E+04 -7.21657E+04  2.72597E+04 -4.35832E+04
  4.60890E+04  4.79762E+03  1.57587E+04  4.63544E+04 -3.32958E+04  4.73864E+04 -6.51326E+04  3.79901E+03
 -5.12964E+04 -5.54624E+04 -8.14179E+03 -7.74990E+04  3.32786E+04 -5.05675E+04  4.91512E+04 -1.11743E+04
  4.44147E+04  1.06484E+04  3.38251E+04  2.80642E+04  1.51667E+04  3.31918E+04 -7.78321E+03  2.86884E+04
 -1.94923E+04  1.03301E+04 -1.72124E+04 -4.91100E+03  5.70495E+03 -4.90717E+03  2.22938E+04  1.62329E+04
  1.37070E+04  3.71080E+04 -3.12656E+04  3.31805E+04 -6.43468E+04 -1.10773E+03 -5.64452E+04 -4.14950E+04
 -1.08709E+04 -6.26651E+04  4.06506E+04 -4.11174E+04  5.78041E+04  8.07397E+02  3.17661E+04  3.69980E+04
 -9.97225E+03  3.22651E+04 -2.92730E+04  2.11638E+04 -3.09032E+04 -4.09036E+03 -1.60782E+04 -1.02664E+04
 -7.05681E+03 -7.96754E+03 -3.73200E+03 -2.06877E+04  9.09127E+03 -2.47156E+04  1.99599E+04 -1.19886E+04
  1.34173E+04  3.76688E+03 -1.21589E+04  1.18801E+04 -1.85015E+04 -5.66487E+03 -9.94835E+03 -3.06683E+04
  2.40396E+04 -4.24943E+04  5.01609E+04 -2.39663E+04  4.58197E+04  1.86047E+04  1.52742E+04  5.10052E+04
 -1.73455E+04  3.14587E+04 -2.24928E+04  4.06814E+03 -1.02528E+04 -3.11291E+04  2.30296E+04 -3.36780E+04
  4.60565E+04 -1.02104E+04  3.60420E+04  2.54721E+04  1.80674E+04  4.88662E+04 -7.64940E+03  4.49246E+04
 -3.66868E+04  3.48387E+04 -4.46310E+04  4.12154E+03 -4.13822E+04 -2.26555E+04 -1.99642E+04 -3.97212E+04
  2.88810E+03 -3.57178E+04  3.25098E+04 -1.34160E+04  3.33122E+04  9.27928E+03  3.32921E+02  1.44011E+04
 -1.40192E+04  1.06314E+04 -1.17961E+04 -1.10195E+04  3.35384E+03 -1.37166E+04  1.48598E+04  2.94898E+03
  1.31092E+04  1.73491E+04 -6.69760E+03  2.63872E+04 -2.61757E+04  1.31825E+04 -2.60585E+04 -1.89975E+03
 -2.11125E+04 -1.53237E+04 -9.61878E+03 -2.02603E+04  3.19048E+03 -2.14944E+04  1.44426E+04 -2.40092E+04
  2.50003E+04 -1.02023E+04  3.20227E+04  8.71678E+02  2.83053E+04  2.05539E+04  3.92043E+03  3.82053E+04
 -2.03107E+04  3.10469E+04 -3.05598E+04  4.06398E+03 -1.69751E+04 -8.20649E+03 -6.93991E+03 -1.43602E+04
  3.98623E+03 -1.30984E+03  1.75157E+03  1.27765E+04 -1.89307E+04  5.54320E+03 -1.84114E+04 -1.00089E+04
 -8.72527E+03 -1.58372E+04  6.16965E+03 -2.32690E+04  1.46700E+04 -1.73990E+04  1.66527E+04 -2.08061E+03
  1.35083E+04  1.36670E+04 -3.85317E+01  1.82875E+04 -1.16010E+04  1.24874E+04 -2.33720E+04 -3.28247E+03
 -1.31988E+04 -1.64313E+04 -2.97169E+03 -1.96792E+04  8.71940E+03 -1.43021E+04  1.85155E+04 -9.86679E+03
  1.61967E+04  9.59392E+02  1.20846E+04  2.24119E+03  6.83459E+03  2.92605E+03  1.00936E+04 -1.09319E+03
  1.97381E+04  4.43346E+03  1.81056E+04  1.52022E+04  9.01989E+03  2.88960E+04 -6.54957E+03  3.84667E+04
 -1.59159E+04  3.14222E+04 -3.28174E+04  1.33901E+04 -3.48999E+04 -6.21145E+02 -2.82700E+04 -2.12189E+04
 -1.60795E+04 -2.82663E+04  1.28344E+04 -2.76267E+04  1.81471E+04 -1.68800E+04  2.19991E+04  1.79362E+03
  8.17118E+03  1.49149E+04 -1.15667E+04  9.94781E+03 -1.82056E+04  6.49770E+03 -7.07542E+03 -9.52700E+03
 -3.41757E+03 -1.01563E+04  9.67108E+03 -9.22691E+03  1.46239E+04  4.40419E+03 -1.51992E+03  6.81633E+03
 -1.25278E+04  8.50861E+02 -9.95324E+03 -3.96973E+03 -2.67284E+03 -1.37916E+04  6.93194E+03 -1.50661E+04
  1.39667E+04 -2.41392E+03  2.21652E+04  4.73287E+03  1.54108E+04  1.59575E+04  8.10609E+03  2.39197E+04
 -6.55657E+03  2.29988E+04 -1.11141E+04  9.01973E+03 -1.61492E+04  3.63992E+03 -1.08524E+04 -4.48914E+03
 -7.84332E+03 -4.60248E+03  3.23786E+03  8.85230E+01 -1.26849E+02 -1.16267E+03 -6.26239E+03  6.17860E+03
 -1.00614E+04 -5.94391E+02 -7.99755E+03 -1.12286E+04 -1.30607E+04 -1.59812E+04  9.57618E+02 -1.07192E+04
  6.54008E+03 -3.74411E+03  1.24355E+04 -9.83466E+02 -2.70233E+03  7.37763E+03 -2.11550E+03  1.04104E+03
 -2.13319E+03 -7.89426E+03 -4.35622E+03 -1.14587E+04  6.28197E+03 -1.13936E+04  1.57824E+04 -4.75887E+03
  2.01924E+04 -2.38659E+03  1.23909E+04  7.15653E+03  2.91145E+03  9.28176E+03 -5.06862E+03  1.00074E+04
 -1.32803E+04  4.46734E+03 -2.99151E+03  1.40522E+03  2.52330E+03 -7.68828E+01  7.12334E+03  8.94723E+02
  8.46671E+03  1.16141E+04 -3.54293E+03  5.65221E+03 -8.03072E+03  1.29889E+04 -1.19242E+04  4.11954E+03
 -4.43699E+03 -1.28766E+04  9.78333E+02 -9.23166E+03  3.21109E+03 -3.83794E+03  9.18985E+03  4.95533E+03
 -2.14373E+03  8.03302E+03 -2.23527E+03  1.00527E+04 -8.67533E+03  4.39885E+03 -9.78154E+03 -1.14179E+03
 -5.62475E+03 -1.19116E+04  2.78724E+03 -1.31569E+04  9.85412E+03 -7.41070E+03  1.11564E+04  1.37572E+03
  2.93060E+03  6.34200E+03 -2.23098E+03  1.14152E+04 -8.38351E+03  3.97964E+03 -7.30059E+03  2.29579E+03
 -7.32920E+03 -8.68654E+03  9.14659E+02 -6.06276E+03  1.04671E+03 -1.04363E+04  5.24028E+03 -5.95752E+03
  4.73063E+03  4.51364E+03 -1.61091E+03  3.56157E+03  7.41958E+03 -4.26366E+03 -1.44814E+03 -6.93900E+03
  7.06445E+03 -2.63436E+03  7.54294E+03  6.33393E+03  1.05753E+04 -1.98036E+02  9.59368E+03  2.01248E+04
  1.00264E+02  1.48435E+04 -1.45233E+04  9.64061E+03 -2.43302E+04  6.08087E+03 -1.15875E+04 -3.75355E+03
 -8.16721E+03 -1.06513E+04 -2.26293E+03 -1.14114E+04  4.12430E+03 -5.46870E+03 -4.47527E+02 -3.18138E+03
  3.93024E+03  2.51757E+02  1.46454E+03 -6.61346E+03 -3.10457E+02  1.93213E+03  6.63558E+03 -2.71308E+03
  4.93855E+03  1.10024E+03  2.33413E+03  6.35846E+03 -1.03571E+03  6.10517E+03 -1.05126E+04  3.26397E+03
 -1.33760E+04 -2.73999E+03 -8.38713E+03 -6.72479E+03 -5.56010E+03 -8.07349E+03  7.96746E+03 -8.58836E+03
  5.57813E+03 -8.06879E+03  1.24066E+04  3.39886E+03  6.47771E+03  1.35148E+04  2.58729E+03  1.27252E+04
 -1.90704E+03  1.21516E+04 -6.67391E+03 -2.39671E+03 -9.10755E+02 -1.53501E+03 -3.17193E+03 -8.62957E+02
  9.36584E+02  5.01163E+03 -5.07913E+03 -1.99161E+03 -5.87118E+03  2.91361E+03 -6.85823E+03  3.44916E+03
 -2.97797E+03 -2.84434E+03 -2.21669E+03 -5.82441E+03  7.09392E+03 -7.03601E+03  4.94591E+03  3.10685E+03
  7.47352E+03  4.81755E+03  8.20463E+03  1.00754E+04 -5.43389E+03  1.22756E+04 -1.12646E+04  7.18707E+03
 -9.30630E+03  1.28325E+03 -1.15133E+04  1.45855E+03 -2.34224E+03 -4.52330E+03  4.34441E+03 -5.99165E+03
  8.35087E+03 -1.56110E+03  7.60659E+03  1.31063E+03  5.58336E+03  5.24453E+02 -2.14361E+03  2.85202E+03
 -5.09462E+02 -8.80812E+02 -1.01986E+02 -2.97207E+03 -6.38359E+03  9.49955E+02  4.78579E+02  1.57077E+03
 -4.25067E+03  8.22288E+03 -9.35587E+03  6.91230E+03 -6.70468E+03  2.34327E+03 -8.63649E+03 -3.50898E+03
 -3.39976E+03 -7.98173E+03  4.32278E+03 -9.18754E+03  2.31309E+03 -5.26131E+03  3.15411E+03 -3.32166E+03
  5.49185E+03  2.38292E+03  9.37698E+02  4.32367E+03 -4.95439E+03 -4.16292E+02 -1.67971E+03 -2.37341E+03
  2.14474E+03 -4.60919E+03 -9.71429E+02 -5.45336E+03  5.47869E+03 -9.06990E+02  7.72694E+00  1.20534E+03
  5.15222E+03  7.34338E+02  7.20297E+02  1.61664E+03 -3.06281E+02  1.50617E+03  2.18564E+02 -1.16825E+03
 -6.33172E+02 -9.65373E+02  7.44809E+03  8.43565E+03 -1.79192E+03  4.21114E+02 -9.11788E+02  6.14398E+03
 -3.79723E+03  2.66255E+03 -1.86281E+02  2.03482E+03 -6.31931E+03  8.02202E+02 -3.94064E+03 -3.08121E+03
  3.81802E+03  6.60505E+01  2.22976E+03 -1.14148E+03  4.95563E+02  2.55665E+03 -2.54024E+02 -3.18209E+02
 -9.03688E+03  8.07219E+02 -5.44740E+03 -2.05961E+03  6.36517E+02 -3.96242E+03  1.25681E+03 -7.72583E+03
  3.56016E+03 -1.67639E+03  3.47067E+03  4.63544E+03  4.31031E+03  2.25377E+03  1.01200E+02 -9.62224E+02
 -1.08050E+02 -1.50717E+03 -9.01502E+03 -6.96028E+03 -6.00518E+02 -9.01242E+02  8.56682E+03 -3.10495E+03
  3.33048E+03  9.45692E+02  9.22645E+03  2.95326E+03  6.39123E+03  1.00057E+03 -1.00035E+03  2.75816E+03
 -6.40278E+02  3.23864E+02 -4.99033E+03  1.22932E+03 -7.60850E+02 -6.79253E+02  2.03652E+03  1.51391E+03
  2.88436E+03 -2.25637E+03 -1.27847E+03  2.34491E+03 -7.61679E+02  2.58018E+03 -9.06489E+02 -1.01167E+03
 -5.15760E+03  3.70144E+03 -2.22244E+02  8.61008E+02  2.80985E+03  4.15205E+02 -1.07709E+03 -7.16414E+02
 -6.68549E+02  5.14770E+03 -8.88325E+02 -1.88290E+03  3.01516E+01  2.30372E+03  3.44855E+01 -6.34343E+03
 -7.61297E+03 -8.95629E+03  4.77990E+03 -3.86238E+03  6.76808E+03 -2.28130E+03  5.19406E+03 -4.77476E+03
  4.59063E+03  3.54857E+03  2.10477E+02  5.67176E+03 -1.67165E+03  1.74703E+03  2.57306E+03  1.33899E+03
 -5.24857E+03  4.66774E+02 -5.93593E+03  9.75158E+02  2.84903E+03 -4.10207E+03  5.57398E+03  9.98184E+02
  1.67213E+03  2.22847E+03 -6.57047E+03  8.99622E+02 -1.20764E+03 -2.85353E+03  7.13523E+03 -5.88661E+03
  3.55145E+03  1.39575E+03  8.91623E+01  8.61883E+02  6.49131E+03  7.24329E+02  2.49608E+03  2.34680E+03
 -8.90375E+02  2.38873E+03  3.45205E+02 -3.17934E+03 -2.08168E+03  1.67994E+03 -4.31720E+03 -4.71137E+03
 -8.09554E+02 -4.16228E+03 -2.78446E+03 -7.18687E+03  2.44602E+03  1.89604E+03 -1.28457E+03 -1.09041E+03
  1.18343E+03  2.97622E+03  9.75610E+02 -1.00655E+03 -7.23378E+02  2.28677E+02 -2.65874E+03 -3.56617E+03
 -6.11066E+02 -2.36774E+02  2.95711E+03 -2.10265E+02  2.12970E+02 -9.15483E+02  4.97389E+02  7.49215E+02
 -1.61902E+03  2.97208E+03 -3.92757E+03 -1.29769E+03 -1.16095E+03  3.87560E+03  1.81374E+02 -6.29809E+03
 -1.29552E+03 -7.67716E+02  2.83940E+03  1.42165E+03  5.50121E+03  5.29164E+03  1.31187E+03  5.43351E+01
 -2.47962E+03  9.96637E+02  3.82941E+03 -1.04887E+03 -7.31545E+02  3.57406E+03 -3.08974E+03  8.91943E+02
  5.79052E+02  3.06977E+03  3.46740E+03  1.27425E+03 -1.74163E+03  6.07457E+02 -1.12399E+03 -4.96834E+03
 -1.61571E+02 -1.78605E+03  1.49019E+02 -1.60987E+03  1.70078E+03 -2.96927E+03  6.78729E+03 -1.35893E+03
  4.10458E+03  6.96481E+03  2.05433E+03  1.05827E+03 -1.56706E+03  4.11645E+02  2.94908E+03  4.40293E+03
