 $NMID ID='MM_0lb_SNR50_15hz_g60_38.RAW', FMTDAT='(8E13.5)'
 TRAMP=1., VOLUME=1. $END
  3.10565E+05  1.71637E+03  3.37834E+05  2.47744E+05  8.28196E+04  3.38756E+05 -1.31172E+05  2.49132E+05
 -1.90582E+05  8.61610E+04 -1.13822E+05 -2.92719E+04  4.12965E+03 -5.08510E+04  5.38052E+04  1.02136E+03
  3.57803E+04  5.25494E+04 -1.29035E+04  7.59385E+04 -6.67449E+04  6.06059E+04 -8.71050E+04  3.36376E+04
 -8.38371E+04 -1.01288E+04 -5.90077E+04 -4.88953E+04 -1.01952E+04 -7.16831E+04  2.86409E+04 -5.10573E+04
  3.47887E+04 -2.82213E+01  1.40338E+04  4.50562E+04 -3.74852E+04  4.30507E+04 -6.50006E+04 -8.18306E+02
 -5.41000E+04 -5.58697E+04 -5.79011E+03 -8.15059E+04  3.37820E+04 -5.51847E+04  4.96411E+04 -2.08515E+04
  4.62868E+04  9.97387E+03  3.46214E+04  2.57883E+04  1.98600E+04  2.93068E+04 -4.82356E+03  2.33586E+04
 -2.06224E+04  1.16048E+04 -1.84549E+04 -4.16551E+03  4.25131E+03 -8.36653E+03  2.20832E+04  1.20519E+04
  6.69049E+03  3.67522E+04 -3.15059E+04  3.52861E+04 -6.02743E+04 -2.79135E+02 -5.33186E+04 -4.09291E+04
 -1.71490E+04 -6.40846E+04  4.17527E+04 -4.62639E+04  5.93829E+04  6.61740E+02  3.63027E+04  3.45079E+04
 -4.29293E+03  4.14202E+04 -3.49258E+04  1.61423E+04 -3.10504E+04 -5.63439E+03 -1.92181E+04 -9.88098E+03
 -9.61570E+03 -1.53781E+04 -5.10672E+03 -1.68296E+04  5.89284E+03 -2.21050E+04  1.54639E+04 -1.54509E+04
  1.01295E+04  4.23227E+03 -1.19022E+04  1.04954E+04 -2.28330E+04 -7.80610E+03 -5.40416E+03 -3.62058E+04
  2.37995E+04 -4.11166E+04  4.71056E+04 -1.70330E+04  4.84204E+04  1.81530E+04  1.69396E+04  4.02145E+04
 -2.00070E+04  3.13322E+04 -2.45415E+04 -1.23382E+03 -1.22870E+04 -3.25286E+04  2.34645E+04 -3.10046E+04
  4.00367E+04 -6.82527E+03  3.76254E+04  2.75642E+04  1.89792E+04  4.66065E+04 -5.91938E+03  4.87051E+04
 -3.28285E+04  3.51483E+04 -4.05701E+04  7.34356E+03 -4.20044E+04 -2.06237E+04 -2.60441E+04 -3.67578E+04
  4.10019E+03 -3.77326E+04  3.34950E+04 -1.48378E+04  2.68429E+04  1.34140E+04 -4.26577E+03  1.78432E+04
 -1.07247E+04  8.88871E+03 -1.21711E+04 -6.02880E+03  2.54841E+03 -1.10300E+04  1.41021E+04  5.04477E+03
  1.63420E+04  2.46808E+04 -6.45337E+03  2.39217E+04 -2.28933E+04  1.27933E+04 -3.08093E+04 -4.65141E+03
 -2.50916E+04 -1.74750E+04 -1.13774E+04 -2.14090E+04 -3.14119E+03 -1.99436E+04  1.61047E+04 -1.39585E+04
  2.47248E+04 -1.19179E+04  3.33177E+04 -1.13331E+03  2.44516E+04  2.24366E+04  3.13358E+03  3.77304E+04
 -1.97371E+04  2.92120E+04 -2.87942E+04  8.34935E+03 -1.94607E+04 -1.13606E+04 -7.40029E+03 -1.43217E+04
  4.51264E+02 -5.86102E+03 -5.73624E+03  5.50541E+03 -1.32789E+04  6.14990E+03 -1.33262E+04 -4.58416E+03
 -1.07647E+04 -1.62527E+04  7.95793E+03 -2.27691E+04  1.88456E+04 -2.01169E+04  2.02089E+04  2.04001E+03
  1.34343E+04  6.65881E+03 -5.61097E+03  1.95222E+04 -1.46238E+04  5.71837E+03 -2.13668E+04  2.42391E+02
 -1.71973E+04 -1.48099E+04  8.68490E+02 -2.30123E+04  7.34547E+03 -2.21744E+04  1.96020E+04 -1.37478E+04
  2.01763E+04 -5.79329E+02  1.44575E+04  1.49781E+03  5.45571E+03  1.09383E+03  1.00814E+04 -1.44486E+03
  1.98823E+04  4.59090E+03  1.51882E+04  1.23667E+04  1.53260E+04  3.37127E+04 -5.63655E+03  3.61851E+04
 -2.09716E+04  2.70615E+04 -3.04801E+04  1.76834E+04 -3.61662E+04 -9.29474E+02 -2.70043E+04 -2.09460E+04
 -1.23741E+04 -2.98057E+04  1.38415E+04 -2.34387E+04  2.57690E+04 -1.26508E+04  1.71496E+04  5.74708E+03
  1.23312E+04  1.46133E+04 -3.99756E+03  1.63079E+04 -1.85908E+04  6.10959E+03 -1.75078E+04 -1.00399E+04
  1.74072E+02 -1.23056E+04  8.20300E+03 -1.03356E+04  1.07607E+04 -2.52059E+03  4.00498E+03  2.95150E+03
 -7.90294E+03  1.96913E+03 -4.12051E+03 -8.19199E+03  2.27266E+03 -1.46624E+04  1.07080E+04 -1.67695E+04
  1.16551E+04 -8.40109E+03  1.46207E+04  8.72551E+03  1.36116E+04  1.38967E+04  2.80020E+03  1.88769E+04
 -7.38568E+02  2.68899E+04 -1.84965E+04  1.24364E+04 -1.36144E+04  4.32848E+03 -1.25226E+04 -6.25437E+03
 -1.95433E+03 -3.74927E+02  2.83650E+03 -9.34563E+02 -5.37120E+03  2.29984E+03 -5.88707E+03  5.32413E+03
 -1.32840E+04  3.21261E+02 -1.08437E+04 -6.40122E+03 -5.34354E+03 -1.12109E+04  6.92046E+03 -1.25544E+04
  9.45233E+03 -6.42061E+03  1.19627E+04  3.80371E+03 -2.70017E+03  5.59542E+03 -6.48143E+03  3.72868E+03
 -5.82134E+03 -8.85486E+03 -1.09792E+03 -1.22102E+04  4.96995E+03 -1.03841E+04  1.47092E+04 -5.72868E+03
  1.79614E+04  3.95198E+03  1.11993E+04  1.12140E+04  5.89544E+03  1.09761E+04 -9.83479E+03  1.30241E+04
 -1.07368E+04  2.26142E+03 -3.01159E+03 -2.91105E+03  8.78974E+02 -3.80055E+03  4.80278E+03 -1.13490E+03
  6.72432E+03  7.77030E+03 -1.75812E+03  1.08555E+04 -4.09067E+03  8.99899E+03 -1.52025E+04  4.05538E+02
 -3.74078E+03 -5.25914E+03 -2.71209E+03 -1.35310E+04  8.09041E+03 -9.96635E+03  3.77996E+03  1.32720E+03
  1.99411E+03  9.48142E+03 -3.70665E+03  6.96781E+03 -7.74998E+03  1.92657E+03 -9.28801E+03 -4.57366E+03
 -2.31716E+03 -1.10747E+04 -1.18999E+03 -8.74241E+03  6.51446E+03 -5.80020E+03  1.23477E+04  4.24667E+03
  8.17263E+03  9.37954E+03  1.22749E+03  1.11549E+04 -7.31304E+03  9.24177E+03 -1.35985E+04  3.61159E+03
 -6.56684E+03 -6.10550E+03 -7.57273E+03 -9.06136E+03  4.65777E+03 -6.18562E+03  5.43438E+03 -4.48311E+03
  5.38079E+03  5.73161E+03 -4.92647E+03  5.88486E+03  4.26535E+03 -1.19990E+03  7.51076E+02 -5.98753E+03
  1.05829E+04  3.09150E+02  8.28374E+03  3.59447E+03  6.82478E+03  3.03064E+03  5.10541E+03  1.20687E+04
 -5.86345E+03  1.64524E+04 -1.17125E+04  6.09362E+03 -1.82716E+04 -4.76321E+01 -1.15242E+04 -2.91628E+03
 -4.27392E+03 -9.29545E+03 -4.32771E+03 -6.98244E+03  8.45439E+03 -2.56981E+03  4.19119E+03 -3.93106E+03
  3.70031E+03 -2.55178E+03  2.65258E+03 -1.35517E+03  7.18757E+03 -5.36892E+03  7.99757E+03 -2.62214E+03
  1.64039E+03  2.79256E+03  6.25413E+03  6.86931E+03 -1.89432E+03  9.04645E+02 -1.31527E+04  6.59345E+03
 -7.72249E+03 -6.97048E+03 -4.22830E+03 -3.77815E+03 -1.33684E+03 -9.04782E+03  4.99228E+03 -5.37465E+03
  1.06712E+04 -1.07250E+04  1.31965E+04  2.91979E+03  6.17370E+03  8.63747E+03 -1.68418E+02  1.45259E+04
 -5.06587E+03  6.52237E+03 -8.80571E+03  5.60510E+03 -3.91648E+03 -7.37837E+02 -1.20525E+03 -2.22969E+03
  7.91685E+02 -3.89423E+03  2.88360E+02  4.86286E+03 -5.07843E+03  2.49865E+02 -4.82032E+03  1.84120E+02
 -8.37108E+02 -8.66880E+03 -4.94459E+02 -7.29396E+03  3.19036E+03 -6.85398E+03  4.57733E+03  1.74675E+03
  1.33640E+04  2.51288E+03  2.96655E+03  6.42556E+03 -8.61747E+02  9.56477E+03 -6.39893E+03  3.52478E+03
 -9.61774E+03  1.19263E+03 -3.25835E+02 -5.22317E+03 -2.15390E+03 -3.95502E+03 -1.75366E+03 -1.54851E+03
  8.64059E+03  1.63269E+03  4.66013E+03  3.12289E+03  3.31364E+03 -2.04358E+03  5.88009E+03 -2.18861E+03
  1.24625E+03 -1.71792E+03  2.39952E+03 -2.96643E+03 -2.32778E+02  5.79817E+02  3.29584E+02  6.62357E+02
 -1.42563E+03  9.05009E+03 -2.56763E+03  3.95259E+03 -1.49448E+03  5.36015E+03 -1.07966E+04 -2.06833E+03
 -5.96628E+03 -4.76563E+03 -1.20954E+03 -8.12893E+03  7.26829E+03 -5.12194E+03  4.41506E+03 -1.32389E+03
  4.39804E+03  3.68683E+03  2.14054E+03  2.75125E+03  1.83486E+03  4.20849E+03 -8.69614E+02  4.81448E+03
 -1.67902E+03 -7.23445E+03  2.09665E+03 -4.96727E+03  4.62219E+03 -2.31273E+03  3.87254E+03  5.19709E+02
 -2.63644E+03  1.89027E+03  6.90017E+03  1.53442E+03  5.47928E+02  3.54810E+03  3.79797E+03 -1.59169E+03
  4.62847E+03  4.91514E+03  1.51290E+03  2.53927E+03  5.97793E+02  5.73508E+03  1.80449E+03  3.54564E+03
 -4.18028E+03  8.77592E+03 -3.14817E+03  3.15635E+03 -4.16542E+03  3.68421E+02  2.82968E+03  6.83972E+02
 -4.12211E+03 -1.67652E+03  4.74687E+01  4.73529E+03  3.55537E+03  1.96022E+03 -4.50992E+02  5.25050E+03
 -3.70095E+03  1.07497E+03 -7.75325E+03  3.54192E+03 -5.12900E+03 -8.88810E+02 -1.59400E+03 -4.78039E+03
 -1.68310E+03 -1.24979E+03  4.66601E+03  7.33225E+02  2.22057E+03 -6.78829E+02  4.95744E+03  4.59710E+03
 -2.52833E+03 -3.27185E+03  1.28999E+03 -2.96950E+03 -4.12941E+02 -2.49034E+03  1.76779E+03 -5.08083E+03
  3.66359E+03  5.64347E+03  8.66234E+03  3.60133E+03 -3.61049E+03 -2.50795E+03  7.05528E+02  4.41047E+03
 -3.56781E+03 -3.57222E+03 -5.65245E+03  3.50186E+03 -3.84226E+03 -8.48366E+03 -1.35050E+02 -1.19763E+03
  4.00789E+02 -1.16313E+03  3.65377E+03  2.12764E+03 -3.07702E+03  2.72783E+03 -4.56556E+03  3.50530E+03
  1.34184E+03 -4.04436E+03 -1.61395E+03 -2.47806E+03 -1.41746E+03 -1.32169E+03  3.51540E+03  1.29340E+03
 -2.99870E+02 -2.01605E+03 -4.99697E+03  1.69351E+02 -6.82487E+02  3.20320E+03 -6.61132E+03 -5.56765E+03
 -5.05085E+03 -2.87162E+03  6.73071E+02 -5.43753E+03 -2.96909E+02 -8.47130E+03  2.90200E+03 -3.21305E+03
  1.07773E+03  1.29267E+03  1.41985E+03 -2.24500E+02  2.65782E+03  3.38859E+03 -5.46566E+01  4.86423E+03
 -1.91502E+03 -2.22724E+02  6.35132E+01 -3.53235E+03  2.30011E+03 -2.35236E+03  5.51643E+03 -8.55949E+01
 -1.08915E+03 -9.37044E+02 -6.62778E+03  4.74535E+03  2.38305E+03  9.59385E+02 -4.49702E+03  3.01177E+03
  2.70710E+03 -1.56348E+03  2.33841E+03 -1.99158E+03  7.48814E+03  4.13136E+03 -2.87348E+03  2.10280E+03
  1.25414E+03 -1.35305E+02 -1.50001E+03  4.94874E+03 -4.04388E+03 -3.54291E+03 -1.43265E+03 -6.04359E+03
  3.34819E+03  9.91308E+01  1.01058E+03 -4.59403E+03  2.46098E+03 -4.69804E+03  1.19893E+03 -3.65838E+03
  1.76026E+02 -1.84949E+03 -5.13778E+03 -1.21371E+03 -3.47778E+03  3.08590E+02  2.30955E+03  4.82019E+02
 -3.08150E+03  5.81793E+02  8.01907E+02 -1.33419E+03 -8.63046E+01  5.66680E+03  2.99099E+03  5.18479E+03
 -7.05802E+02  3.56193E+03 -2.75211E+03 -7.72985E+02 -2.97666E+03 -6.45955E+02  4.48678E+02 -7.35615E+03
  1.19452E+03 -5.12365E+03  1.79247E+03  4.86174E+02 -1.81722E+03 -6.50395E+03  2.79535E+03  2.50567E+03
 -6.43340E+03  4.43237E+03 -3.19528E+03 -5.02611E+02 -9.29377E+02  1.25770E+03  4.75293E+02 -1.15593E+03
 -2.65540E+03 -3.79299E+03 -8.48083E+02 -3.99943E+03 -7.81761E+02  3.09399E+03  8.35259E+02  1.56434E+03
 -3.50607E+03 -3.44931E+03 -1.25041E+03 -6.12039E+03  2.25962E+03 -1.69824E+03  3.43773E+03 -3.62467E+03
  7.96373E+02 -2.34418E+03  6.03687E+03 -1.57100E+03  1.34285E+03  4.31300E+03  1.73616E+02  1.42836E+03
