 $NMID ID='MM_0lb_SNR50_20hz_g45_99.RAW', FMTDAT='(8E13.5)'
 TRAMP=1., VOLUME=1. $END
  3.08648E+05  3.05490E+03  3.37813E+05  2.53575E+05  8.70303E+04  3.36248E+05 -1.34891E+05  2.50184E+05
 -1.89186E+05  8.32665E+04 -1.07468E+05 -3.28476E+04  1.54995E+03 -5.26975E+04  5.35319E+04  6.26282E+02
  3.73781E+04  5.02188E+04 -1.85328E+04  7.63049E+04 -6.34928E+04  6.51159E+04 -8.04169E+04  3.05832E+04
 -7.91862E+04 -1.16408E+04 -5.67612E+04 -5.22695E+04 -1.55363E+04 -6.58038E+04  3.04715E+04 -4.80992E+04
  3.63121E+04  6.01619E+03  1.37063E+04  4.55288E+04 -3.47007E+04  4.47012E+04 -6.29171E+04 -3.13193E+03
 -4.84061E+04 -5.11907E+04 -3.72439E+03 -7.31844E+04  3.36685E+04 -5.31606E+04  4.60989E+04 -1.66648E+04
  3.93416E+04  8.54557E+03  3.12254E+04  2.27799E+04  1.08796E+04  2.79674E+04 -5.57818E+03  2.75720E+04
 -2.27528E+04  1.48438E+04 -2.04549E+04 -3.59942E+03  7.41119E+03 -7.83096E+03  1.96915E+04  1.40330E+04
  8.47808E+03  2.98625E+04 -2.84302E+04  3.41419E+04 -5.95799E+04  1.86625E+02 -5.69671E+04 -4.29319E+04
 -1.56520E+04 -5.74454E+04  3.97358E+04 -4.13585E+04  5.11849E+04  1.01882E+00  2.99166E+04  3.34931E+04
 -3.48351E+03  3.59116E+04 -2.64544E+04  1.25481E+04 -2.36018E+04 -5.87343E+03 -1.71270E+04 -8.84354E+03
 -5.74501E+03 -1.16477E+04 -3.21931E+03 -1.71142E+04  5.41349E+03 -1.82277E+04  1.56897E+04 -1.72068E+04
  1.47892E+04  1.80252E+03 -4.44663E+03  1.50889E+04 -2.07188E+04 -1.23638E+03 -7.27309E+03 -3.31397E+04
  2.17471E+04 -3.79936E+04  4.44946E+04 -1.89853E+04  4.11174E+04  1.92451E+04  9.74803E+03  3.76122E+04
 -1.52867E+04  3.16819E+04 -2.41438E+04  3.31284E+03 -7.99321E+03 -2.39828E+04  2.03419E+04 -2.96345E+04
  3.57626E+04 -3.51815E+03  3.03788E+04  2.68854E+04  1.86655E+04  4.24908E+04 -8.87195E+03  4.03347E+04
 -2.90103E+04  2.96868E+04 -3.64405E+04  1.19069E+04 -3.91010E+04 -1.94027E+04 -1.76660E+04 -3.44871E+04
  9.43403E+03 -3.21139E+04  2.69680E+04 -8.50397E+03  2.51729E+04  7.89801E+03  7.84821E+02  1.90298E+04
 -1.36041E+04  9.51759E+03 -7.60670E+03 -9.32722E+03  3.88931E+03 -8.06567E+03  2.09638E+04  5.09663E+03
  1.42122E+04  1.85470E+04 -5.31447E+03  1.81422E+04 -2.06596E+04  3.83368E+03 -2.52624E+04 -6.85341E+03
 -1.43254E+04 -1.61033E+04 -6.70103E+03 -1.81847E+04  6.00476E+03 -1.40557E+04  9.78038E+03 -1.76294E+04
  1.90395E+04 -1.29590E+04  2.61053E+04  3.83999E+00  1.71085E+04  1.43961E+04  7.11784E+03  3.27866E+04
 -1.67856E+04  2.82529E+04 -2.51029E+04  7.68985E+03 -1.76422E+04 -1.02822E+04 -2.80265E+03 -1.63853E+04
  2.44100E+03 -5.88942E+03 -6.18633E+03  4.36616E+02 -1.13734E+04  3.36880E+03 -1.55348E+04 -3.92277E+03
 -7.33763E+03 -1.62405E+04  1.77124E+03 -1.65889E+04  8.93684E+03 -1.35674E+04  1.14331E+04 -7.08395E+02
  8.05666E+03  1.11773E+04 -2.17861E+03  1.41244E+04 -8.36678E+03  9.70489E+03 -1.37588E+04 -5.54168E+03
 -9.13932E+03 -1.13625E+04 -1.34677E+03 -1.94998E+04  9.34562E+03 -1.33457E+04  1.40699E+04 -6.74337E+03
  1.34297E+04  4.50288E+02  7.03836E+03  2.77056E+03  7.36459E+03  1.89026E+03  5.31671E+03 -3.15044E+03
  1.54200E+04  2.85216E+03  1.45284E+04  1.12796E+04  9.35207E+03  2.23858E+04 -3.09816E+03  2.27492E+04
 -1.63443E+04  1.80660E+04 -2.37057E+04  6.86427E+03 -2.04916E+04 -4.15461E+03 -2.02466E+04 -1.18587E+04
 -9.86848E+03 -2.10785E+04  4.73378E+03 -1.40812E+04  1.69400E+04 -8.89587E+03  1.43215E+04 -1.38522E+03
  6.93576E+03  1.03944E+04 -2.02412E+03  9.95857E+03 -1.07366E+04  1.85308E+03 -8.51456E+03 -1.54890E+03
  4.67613E+03 -1.29452E+04  7.01826E+03 -9.83791E+03  4.36815E+03 -7.17287E+02  3.46607E+03  3.27763E+03
 -4.77090E+03  9.22204E+02 -4.45983E+03 -4.61416E+03 -2.36509E+03 -8.31063E+03  6.49383E+03 -4.85754E+03
  9.75047E+03 -9.77457E+01  1.25379E+04  2.46361E+03  9.29869E+03  1.04206E+04  3.35799E+03  1.63106E+04
  1.79084E+03  1.67825E+04 -8.76011E+03  7.93828E+03 -7.61117E+03  2.09961E+03 -7.55053E+03  1.36811E+03
 -4.72893E+03 -5.05782E+03 -5.36019E+03  1.16830E+03 -4.96202E+03  4.31769E+02 -3.00576E+03  2.83304E+03
 -1.08329E+04 -9.31063E+01 -3.82187E+03 -1.23431E+04 -5.04012E+03 -1.10220E+04  2.50383E+03 -6.42870E+03
  4.82631E+03 -4.77545E+03  3.65183E+03 -1.06934E+03  5.56754E+02  1.15900E+03  1.95303E-01 -5.75298E+02
 -1.68147E+03 -2.60793E+03 -7.43122E+02 -7.13291E+03  9.68223E+03 -7.66847E+03  7.13533E+03 -4.35929E+03
  8.08887E+03 -1.33607E+03  8.43253E+03  3.48309E+03  5.13691E+03  5.95915E+03 -6.65647E+03  5.13052E+03
 -4.55730E+03 -2.16793E+03 -3.08614E+03  9.50694E+02  3.13165E+03 -2.16659E+03  3.95754E+03  3.47487E+03
  3.54880E+03  3.27986E+03  2.71685E+03  1.12082E+04 -5.00382E+03  2.53020E+03 -6.55939E+03 -1.81221E+03
 -5.01347E+03 -2.35375E+03 -1.37443E+03 -9.42409E+03  1.44020E+03 -2.60339E+03  2.28485E+03  3.66286E+03
 -1.70503E+02  3.03873E+03 -5.96615E+03  2.33120E+03 -5.44922E+03 -2.09118E+02 -1.28307E+03 -2.45312E+02
 -1.97331E+02 -7.82711E+03  2.96924E+03 -6.58842E+03  5.72351E+03 -6.23019E+03  6.09169E+03 -2.45158E+02
  8.76228E+03  6.19350E+03 -6.69817E+02  2.57903E+03 -1.61542E+03  8.16596E+03 -2.70121E+03  3.41007E+03
 -2.92137E+03 -1.94010E+03  3.39178E+03 -1.28810E+03  1.36513E+03 -3.33933E+03  1.23556E+03 -5.93556E+03
  1.19382E+02  5.95585E+02 -1.49936E+03  2.50033E+03  2.93793E+03  1.61719E+00  1.01467E+03 -3.23418E+03
  3.57380E+03 -1.68878E+03  8.55511E+02  5.22961E+02  1.16532E+03 -2.00608E+02  6.97539E+03  6.37269E+03
 -4.19566E+03  9.26483E+03 -9.26603E+03  5.72146E+03 -8.63975E+03  2.75321E+03 -7.07073E+03 -6.10798E+03
 -4.08021E+03 -6.97600E+03  2.08695E+02 -5.12673E+03 -2.11013E+02  1.06759E+03 -1.24543E+03 -2.19285E+03
  1.45606E+03 -7.95100E+02  2.73349E+03 -2.64020E+03  2.75984E+03  2.91516E+03  7.63852E+03  1.63304E+03
 -1.20159E+03 -1.23106E+02  2.89553E+03  5.98587E+03 -5.18289E+03  3.40634E+03 -6.19808E+03  2.95385E+02
 -6.62214E+03 -5.94207E+02 -6.98426E+03 -1.67662E+02  2.20923E+03 -8.60424E+03  4.70802E+02 -5.67110E+03
  7.21360E+03 -8.20321E+02  7.97754E+03 -2.86959E+03  4.44961E+03  6.00126E+03  3.32184E+03  6.07227E+03
 -4.70572E+03  6.09188E+03  8.36508E+02  1.29084E+03 -1.56937E+03 -4.51905E+03 -5.83380E+02 -2.43607E+02
  2.52765E+01  3.94727E+03 -1.32516E+03  1.77335E+03 -2.31936E+03 -3.97361E+02 -3.87411E+03 -4.85703E+02
 -3.12581E+03 -2.60665E+03  1.96920E+03 -5.19054E+03  2.83494E+03 -2.84517E+03  2.72862E+03  1.20703E+02
  5.52488E+03  3.48614E+03  2.94835E+03  3.65852E+03 -1.77046E+03  6.88797E+03 -2.73188E+03 -3.39783E+02
 -8.59396E+03  2.92002E+03 -2.90968E+03 -6.32110E+03  1.57028E+03 -3.77557E+03  3.43464E+03  1.39193E+02
  3.09678E+03 -1.05813E+03  9.97746E+01  6.07525E+03  1.67765E+03  4.21740E+03  2.16430E+03  3.50885E+03
  2.42819E+03  2.30248E+03  3.17946E+03  3.91667E+03  2.45915E+02  1.35071E+03 -5.08771E+02 -1.54898E+03
 -2.07296E+03  2.86523E+03 -1.63658E+03  1.33159E+03 -7.33984E+02 -2.20275E+03 -3.36833E+03 -7.18048E+02
 -6.81651E+03 -3.50344E+03  3.22216E+03 -3.18885E+03  2.99045E+03 -5.59796E+03  6.73459E+03 -2.76732E+03
  4.24760E+03  5.83464E+02  2.44828E+03  4.51183E+03  2.42381E+02  4.83103E+02 -1.91557E+03 -1.35244E+03
 -1.15313E+03 -2.09931E+03  3.59304E+03 -2.63114E+03  3.20190E+03 -2.07017E+03 -2.21857E+03  1.49967E+03
  2.73750E+03 -2.31458E+02  6.57720E+02  1.96694E+03 -2.59992E+03  2.49796E+03  2.16129E+02  8.69451E+02
  1.88743E+03 -1.30136E+03  2.41647E+03  1.43955E+03  1.88993E+03 -4.37978E+02 -2.04578E+03  4.35624E+03
  6.33095E+02  5.33244E+03  1.20380E+03  5.62907E+03 -8.40525E+02  2.62089E+02 -1.31052E+03  2.60595E+03
 -2.31447E+03  2.49580E+03 -2.78010E+02 -1.20813E+03  8.31908E+02  4.74895E+02 -4.10852E+02  2.95009E+02
  5.61816E+02 -1.38558E+03 -7.99878E+02  1.22500E+03 -7.88644E+02 -4.65577E+03  3.35832E+02 -1.69807E+03
 -5.49505E+03 -1.49642E+03  1.75263E+03  1.28654E+03  1.69011E+03  2.35503E+03  5.76750E+02  3.74471E+03
 -7.26770E+02 -6.32071E+02  1.49025E+03  8.88164E+02 -2.23352E+02 -2.04003E+02 -9.69501E+02  3.20936E+03
  2.13506E+03  3.39888E+03  4.92964E+03  2.64391E+03  5.89657E+03  2.25818E+03  1.20625E+03  2.44721E+03
 -2.24544E+03  9.13442E+02  3.25162E+03 -1.40541E+03 -4.94484E+03 -1.41237E+03  6.03857E+02  4.67971E+03
  2.79392E+03 -2.70672E+03  1.89968E+03 -1.12455E+03 -6.42488E+03 -2.09025E+02 -2.95256E+03  2.76395E+03
 -4.00796E+03  4.38673E+03 -8.99078E+02  1.46407E+03  3.28872E+03  3.03195E+03 -2.55220E+03 -1.52604E+03
  2.39041E+03 -2.73653E+03 -2.60531E+03  7.38639E+03 -1.70865E+03  6.30319E+02 -1.46083E+03  6.23596E+02
 -1.28586E+03  2.46676E+03  1.20651E+03 -3.64417E+03  1.58412E+03 -4.21743E+03  2.05829E+03 -5.83889E+02
  9.29105E+02 -1.23896E+03 -3.13506E+03  3.62576E+03 -3.35850E+03  2.42036E+03 -1.36320E+02  3.92678E+03
 -3.00262E+03  3.82367E+02 -2.40840E+03  1.16189E+03 -2.58973E+03  6.60985E+02  1.40473E+03 -2.42083E+03
  9.49134E+02  2.20545E+03 -2.49783E+03 -1.74743E+03 -5.49937E+02 -4.29812E+03 -1.91116E+03 -1.51470E+03
 -1.29530E+03 -7.87941E+02  2.35302E+03  7.79484E+02 -1.85698E+03 -3.64507E+02  3.99658E+02  3.09654E+03
 -2.28322E+03  5.48599E+03 -1.78312E+03  2.62292E+02 -4.34537E+03 -6.22597E+02  9.15099E+02  2.15552E+03
 -2.06312E+03 -1.26598E+03  1.82913E+03 -2.00791E+03 -1.81394E+02  4.39190E+02  1.72308E+03  2.05174E+03
  1.14629E+03 -1.73733E+03 -9.21558E+02  2.95146E+03  2.08937E+03  2.74642E+03 -3.28703E+02 -5.95178E+02
  2.70516E+03  1.41002E+03  1.43919E+03  2.68632E+03 -2.58668E+03  2.21672E+01  4.65627E+03 -3.51609E+03
  1.67525E+03 -2.35035E+03 -6.12841E+03 -2.16605E+03 -3.01421E+03 -3.70326E+03  5.58048E+02  8.40137E+02
  2.25257E+03  8.62323E+02  2.08510E+03  5.85437E+02 -2.47570E+02 -2.50064E+03 -6.05745E+02 -4.12734E+02
  1.97345E+03 -1.01040E+03  2.24378E+03 -3.70284E+02  1.01239E+03 -2.45539E+03  7.63312E+02  1.76073E+03
  3.14174E+02 -3.55837E+03 -1.83306E+03  2.59422E+03  1.11195E+02 -9.73297E+02  5.30944E+02 -6.92917E+02
  2.00003E+03 -1.75617E+03  4.72321E+03 -6.25391E+03  2.20528E+03 -2.15777E+03  2.03544E+03  5.34467E+02
  3.36618E+03  1.26111E+03  8.99859E+02 -1.82266E+03  1.56115E+02 -1.88430E+02 -1.67027E+03 -2.55176E+03
