 $NMID ID='MM_0lb_SNR50_11hz_g60_57.RAW', FMTDAT='(8E13.5)'
 TRAMP=1., VOLUME=1. $END
  3.09552E+05  6.15364E+03  3.38245E+05  2.55563E+05  8.75956E+04  3.38551E+05 -1.39275E+05  2.51910E+05
 -1.86142E+05  8.45805E+04 -1.13773E+05 -3.23657E+04 -4.18868E+03 -5.40360E+04  5.55167E+04 -1.31021E+03
  2.96977E+04  6.02933E+04 -1.61035E+04  7.44520E+04 -6.02635E+04  6.02717E+04 -8.76660E+04  2.95930E+04
 -8.06307E+04 -9.15821E+03 -5.66877E+04 -4.72942E+04 -1.99196E+04 -6.39140E+04  3.60446E+04 -4.77974E+04
  4.00868E+04  1.04638E+03  1.49283E+04  5.75081E+04 -3.50250E+04  5.14003E+04 -7.12145E+04  3.65686E+03
 -5.14147E+04 -5.68244E+04 -3.41454E+03 -8.58663E+04  2.99814E+04 -5.09220E+04  5.01582E+04 -2.34649E+04
  4.35976E+04  1.25496E+04  2.66294E+04  2.59013E+04  1.75921E+04  3.28397E+04 -2.96494E+03  2.84297E+04
 -2.51236E+04  1.96827E+04 -1.91777E+04 -3.57147E+03  4.01303E+03 -2.61083E+03  2.15416E+04  1.26261E+04
  4.77019E+03  3.46201E+04 -3.45207E+04  4.00060E+04 -6.62070E+04  2.25223E+03 -5.64982E+04 -4.08658E+04
 -3.22163E+03 -6.51299E+04  3.96253E+04 -4.48855E+04  6.34068E+04 -2.71864E+03  4.33161E+04  3.11439E+04
 -3.20599E+03  3.61221E+04 -2.82578E+04  1.98085E+04 -3.33595E+04 -5.71267E+03 -1.69595E+04 -1.38882E+04
 -6.18561E+03 -6.86941E+03 -2.50767E+03 -2.13786E+04  8.29764E+03 -2.46690E+04  1.71339E+04 -1.69417E+04
  1.63818E+04  2.79485E+03 -1.04677E+04  1.37722E+04 -2.36945E+04 -6.56256E+03 -9.21713E+03 -3.63182E+04
  2.98885E+04 -4.67794E+04  5.16715E+04 -2.23310E+04  5.03116E+04  2.49420E+04  1.25331E+04  3.74796E+04
 -1.44389E+04  3.89673E+04 -2.68546E+04  4.79263E+03 -8.02974E+03 -3.11665E+04  2.60588E+04 -3.42557E+04
  3.74052E+04 -9.28600E+03  3.99434E+04  2.76787E+04  2.63017E+04  5.13662E+04 -4.24928E+03  6.01873E+04
 -3.26062E+04  3.65798E+04 -4.78190E+04  1.27780E+04 -4.61390E+04 -1.78388E+04 -2.41919E+04 -3.74293E+04
  8.02826E+03 -4.08052E+04  3.66938E+04 -1.69107E+04  3.19954E+04  1.03045E+04  5.45758E+03  1.79201E+04
 -1.26659E+04  6.76126E+03 -1.11653E+04 -7.20969E+03  8.69399E+03 -1.80247E+04  1.86209E+04  8.65673E+03
  1.51676E+04  2.03422E+04 -7.00034E+03  2.27612E+04 -2.02979E+04  6.84142E+03 -3.23067E+04 -4.95995E+03
 -2.49266E+04 -2.15076E+04 -1.01353E+04 -2.29733E+04 -9.14117E+02 -2.08592E+04  2.01412E+04 -1.84299E+04
  3.10122E+04 -1.00836E+04  3.66338E+04  5.71919E+03  2.78475E+04  2.43946E+04  3.84808E+03  4.18816E+04
 -1.53093E+04  3.58378E+04 -2.76191E+04  9.61733E+03 -2.57375E+04 -1.30359E+04 -6.63704E+03 -1.44306E+04
  4.19369E+03  2.72130E+03 -6.35314E+03  8.80019E+03 -1.93588E+04  8.31630E+03 -2.05591E+04 -9.49056E+03
 -1.11416E+04 -1.99063E+04  6.53343E+03 -1.98055E+04  1.47153E+04 -2.29380E+04  1.99736E+04  3.04154E+03
  1.55946E+04  1.36742E+04 -7.49569E+02  2.27331E+04 -1.64420E+04  1.17300E+04 -2.71757E+04 -2.67648E+03
 -1.87507E+04 -2.37276E+04 -4.39885E+03 -3.34660E+04  1.15915E+04 -1.76078E+04  2.41514E+04 -1.17235E+04
  2.18946E+04  4.73868E+03  1.61499E+04  4.28414E+03  9.56931E+03 -3.55806E+03  7.43857E+03 -5.03886E+03
  1.98630E+04  1.74488E+03  2.15503E+04  1.90629E+04  2.25019E+04  3.80416E+04  4.59957E+03  4.21604E+04
 -2.71699E+04  3.78481E+04 -4.68767E+04  1.54951E+04 -4.08692E+04 -9.81282E+01 -3.22418E+04 -2.69807E+04
 -1.49008E+04 -3.50586E+04  9.38152E+03 -2.66423E+04  2.90841E+04 -1.21810E+04  2.76599E+04  9.90889E+03
  5.25392E+03  1.45982E+04 -1.19851E+04  1.40200E+04 -1.69721E+04  5.35454E+03 -2.13122E+04 -1.40929E+04
 -3.90966E+03 -1.37733E+04  9.71066E+03 -1.62704E+04  1.12721E+04 -4.87919E+03  4.78660E+03  8.82660E+03
 -5.61966E+03  8.42490E+02 -5.14785E+03  4.04578E+02 -1.33269E+02 -2.05430E+04  1.34116E+04 -1.62497E+04
  1.54678E+04 -1.11280E+04  2.50167E+04  1.42478E+03  2.53358E+04  1.63544E+04  9.98731E+03  3.48890E+04
 -7.68082E+03  2.90243E+04 -2.59914E+04  1.64680E+04 -2.06485E+04  3.95504E+03 -1.23618E+04 -9.39096E+03
 -6.79989E+02 -4.53233E+03 -5.20013E+03 -8.74787E+02 -3.20801E+03  4.67020E+03 -2.76977E+03  8.07555E+03
 -1.06142E+04  7.78255E+03 -1.25289E+04 -1.01081E+04 -2.34595E+03 -1.21239E+04  2.31598E+03 -1.60166E+04
  9.76435E+03 -8.41914E+03  9.56240E+03  6.27740E+03 -7.70192E+02  9.35311E+03 -8.10705E+03  3.01513E+03
 -1.01927E+04 -8.23204E+03 -5.81691E+02 -1.07967E+04  1.28881E+04 -1.49077E+04  1.95368E+04 -5.81077E+03
  1.91811E+04 -1.03118E+03  1.51126E+04  1.39791E+04 -1.13720E+03  1.76731E+04 -1.09073E+04  1.69317E+04
 -1.17344E+04  5.47891E+03 -7.15765E+03  1.18271E+03 -1.38014E+03 -2.57732E+02  1.29436E+04  3.59989E+03
  2.52969E+03  6.48239E+03 -4.53093E+03  1.16391E+04 -8.06378E+03  1.33614E+04 -1.05924E+04  2.55345E+03
 -7.59510E+03 -8.87636E+03  3.79100E+03 -7.48222E+03  7.83477E+03 -2.84543E+03  4.77858E+03  4.05461E+03
  3.94391E+03  1.17540E+04 -1.05336E+04  1.24702E+04 -1.53127E+04  5.98087E+03 -1.58293E+04 -2.98670E+03
 -1.03756E+04 -1.23462E+04  8.12102E+03 -1.23949E+04  1.90584E+04 -1.10382E+04  1.60393E+04  5.24776E+03
  7.67937E+02  1.69173E+04  8.36551E+02  1.57270E+04 -6.56146E+03  8.93839E+03 -1.28820E+04 -1.88627E+03
 -4.13664E+03 -1.10470E+04 -1.04290E+03 -4.38567E+03 -1.21998E+01 -2.74520E+03  5.94347E+02 -7.29683E+02
  2.46012E+03  1.42858E+03 -2.07642E+03  7.01588E+03 -1.58101E+03  2.59665E+03 -5.66852E+02 -7.10620E+03
  1.41604E+04  1.25145E+03  1.38953E+04 -1.56934E+03  5.64010E+03  9.52900E+03  7.42432E+03  1.82573E+04
 -5.44073E+03  2.17904E+04 -1.67462E+04  1.54492E+04 -2.54766E+04  9.39506E+03 -1.40739E+04 -1.00868E+04
 -9.42758E+03 -1.36151E+04 -1.98411E+03 -1.54803E+04  8.55885E+03 -6.25283E+03  2.84655E+03 -8.23425E+03
  6.17320E+02 -4.48310E+03  6.39104E+03 -4.70995E+03  6.13636E+03 -4.48914E+03  8.96978E+03 -6.75571E+02
  9.10725E+03  5.93231E+03  4.24604E+03  8.23186E+03 -1.23474E+03  1.35299E+04 -5.58470E+03  3.40449E+03
 -1.25662E+04 -1.75577E+03 -5.19080E+03 -1.52664E+04 -3.78340E+03 -1.24576E+04  7.19853E+03 -1.17485E+04
  1.33011E+04 -5.48592E+03  1.94263E+04 -8.61629E+02  9.37918E+03  8.55688E+03 -8.58530E+02  1.23128E+04
 -4.92653E+03  1.49227E+04 -9.99007E+03  5.08131E+03 -2.74166E+03 -3.40402E+03 -6.58438E+03 -4.94459E+03
 -2.35973E+03 -3.93144E+03  3.84996E+03  2.24038E+03 -4.70101E+03 -2.13569E+03 -7.94681E+03  3.72058E+03
 -4.02415E+03 -7.43073E+03 -1.31756E+02 -1.46617E+04  7.92811E+03 -9.70646E+03  1.11522E+04 -6.43343E+03
  1.52979E+04  9.31288E+03  4.82175E+03  1.19446E+04  1.38583E+03  1.41919E+04 -2.97573E+03  7.59026E+03
 -1.38034E+04  2.01874E+03 -4.39630E+03 -8.03776E+03 -3.75727E+03 -1.48717E+04  5.60436E+03 -1.55652E+04
  3.60002E+03 -3.02542E+03  4.20993E+03  9.28410E+03 -1.11617E+03  3.93206E+03  4.15902E+03  1.63789E+03
  3.94065E+03  2.66667E+03 -6.30815E+02  2.29716E+03  3.80500E+03  4.88137E+03  3.73670E+03  6.32570E+03
  2.42350E+02  5.85841E+03 -1.40522E+04  1.26127E+04 -8.19960E+03  8.21952E+03 -1.84337E+04 -3.30986E+03
 -9.62907E+03 -1.25148E+04  2.20438E+03 -1.10974E+04  5.71836E+03 -1.33083E+04  1.40721E+04 -3.90477E+03
  8.14837E+03  5.39847E+03  4.07937E+03  1.06118E+03 -2.32697E+03  4.00715E+03 -6.83162E+03  1.25305E+03
 -8.13230E+00 -7.73786E+03  7.12474E+03 -6.87590E+03  6.49106E+03 -4.52573E+03 -8.88288E+02  1.15271E+02
  4.79615E+03  4.26284E+03 -1.31496E+03  1.35859E+03  2.73602E+03 -1.18685E+02  1.23669E+03  3.43984E+03
 -3.94038E+02 -6.09652E+03  3.05606E+01 -4.33476E+03  4.21846E+03  9.14362E+03  3.85738E+03  1.28842E+04
 -5.26492E+02  1.59133E+03 -1.49402E+04 -5.91015E+03 -1.17569E+04 -5.79247E+03 -2.47988E+03 -2.30817E+03
 -3.06179E+03 -2.43554E+02  3.60282E+03 -2.24824E+03  1.44956E+03  3.63863E+03 -3.95397E+03  1.04164E+04
 -5.75358E+03  7.09193E+03 -1.17199E+03 -4.94297E+03 -4.57167E+03 -1.25256E+04 -1.10752E+02 -4.18388E+03
  8.45814E+03 -3.31813E+03  3.61867E+03  7.70285E+02  2.47251E+03  1.81327E+03  9.64554E+02 -1.39322E+03
  1.32623E+03  1.28573E+03 -2.85021E+03 -2.23521E+03 -7.68326E+03 -1.78230E+03  4.70457E+03 -3.97367E+03
  1.25152E+04  1.69695E+03  1.81574E+04  2.00303E+03 -1.75770E+03  9.80967E+03 -4.67719E+03  1.01023E+04
 -2.69902E+03  1.14007E+03 -6.32039E+03 -5.44164E+01 -1.00256E+04 -9.65357E+03  4.56902E+03 -5.64959E+03
  9.82757E+03 -6.04345E+03 -1.11847E+03 -2.19074E+03  2.20808E+02  5.94397E+03  2.59737E+03 -2.23078E+03
 -2.21412E+03  7.02968E+03 -2.39574E+03  1.48559E+03 -7.70980E+02  1.06739E+03 -3.48795E+03 -1.53065E+03
  1.19195E+03 -4.18566E+02 -5.02733E+01 -1.54971E+03 -3.40959E+03 -7.74379E+02 -1.04385E+04 -3.54022E+03
 -3.01572E+03 -1.17843E+04 -1.00979E+03 -1.44287E+04  6.66936E+03 -8.66760E+03  1.24234E+04 -5.17323E+03
  3.37590E+03 -2.53643E+03  1.23754E+04  4.00900E+03 -8.43306E+02  2.00739E+03 -3.62882E+03  5.98291E+03
 -7.55315E+03  7.55098E+03 -5.33382E+03  5.39562E+01 -4.23482E+03  6.16347E+02 -2.45151E+03 -1.20579E+03
 -3.69613E+03  3.60956E+03 -3.39051E+03 -1.17903E+03 -5.47693E+03  1.45114E+02 -6.91748E+02 -4.77064E+03
  3.22540E+03 -6.78829E+03  3.69572E+03  7.86472E+02  4.85689E+03  7.23414E+03 -1.41293E+03  2.30004E+03
  2.00276E+02  9.30197E+03 -1.02418E+04  3.81805E+03 -1.32956E+04  9.18632E+02 -4.15585E+03 -7.18828E+03
 -1.00365E+02 -8.19282E+03  7.42306E+03 -2.86505E+03  2.71665E+03 -5.68325E+03  3.21833E+03 -3.35793E+03
  2.49650E+03  9.68792E+02  2.54122E+03 -1.12691E+02 -2.99870E+03  5.66171E+03 -3.72349E+03  1.34250E+03
  5.74418E+03 -2.92115E+03  6.19209E+03  4.40319E+03  2.71939E+03  4.04924E+03 -6.37898E+01  2.14093E+03
 -5.24563E+02  7.65225E+03 -5.50704E+02 -3.98461E+02  4.22717E+02 -5.26113E+03 -1.29626E+03 -4.14666E+03
  1.87039E+03 -7.06087E+03  5.65460E+03  5.31874E+01  5.16940E+03  1.22138E+03  4.69675E+02  1.11467E+03
 -1.05270E+03  3.31616E+03 -2.66969E+03  6.18269E+03 -4.09669E+03  4.09884E+03  1.24881E+03 -1.02957E+03
  4.52584E+03  3.36309E+03 -5.34357E+02  2.16267E+03 -7.34222E+03  3.95301E+02 -1.75459E+02 -3.16108E+03
 -6.18652E+03 -5.46283E+03  2.37642E+02 -7.17176E+03  6.98465E+02 -1.17771E+04  4.81697E+03 -4.45612E+03
 -9.84207E+02  2.04940E+03  3.65540E+03  2.84256E+03  3.39146E+03  6.84787E+03 -3.12321E+03  6.74954E+03
