 $NMID ID='MM_0lb_SNR50_10hz_g40_100.RAW', FMTDAT='(8E13.5)'
 TRAMP=1., VOLUME=1. $END
  3.05293E+05  4.28822E+03  3.35066E+05  2.50792E+05  7.89900E+04  3.31031E+05 -1.35792E+05  2.49227E+05
 -1.87665E+05  8.89752E+04 -1.11147E+05 -2.64664E+04 -2.40407E+03 -5.06850E+04  5.15118E+04  4.62702E+03
  3.53341E+04  5.20165E+04 -1.46824E+04  7.50617E+04 -6.16535E+04  6.63685E+04 -8.65918E+04  3.77427E+04
 -8.39863E+04 -1.23042E+04 -5.71584E+04 -4.41635E+04 -2.04063E+04 -6.51092E+04  3.24267E+04 -4.96435E+04
  4.28517E+04 -9.41182E+02  1.78690E+04  5.21521E+04 -3.26565E+04  5.07895E+04 -6.55329E+04 -2.46174E+03
 -5.49567E+04 -5.80651E+04 -9.53057E+03 -7.66929E+04  3.65532E+04 -5.46935E+04  5.20637E+04 -1.99015E+04
  4.44874E+04  1.70405E+04  3.55851E+04  2.25684E+04  1.47400E+04  2.73827E+04 -5.79812E+03  2.54798E+04
 -2.54932E+04  9.92278E+03 -2.17601E+04 -4.64791E+03 -1.37425E+03 -5.83836E+03  2.22718E+04  1.33927E+04
  5.20773E+03  3.43295E+04 -3.46262E+04  3.57027E+04 -6.79124E+04 -3.08099E+03 -5.85874E+04 -4.22653E+04
 -1.18341E+04 -6.39341E+04  4.48941E+04 -4.34751E+04  5.74817E+04 -1.87591E+03  3.75334E+04  4.08922E+04
 -7.44934E+03  3.75786E+04 -3.16534E+04  1.63166E+04 -3.40453E+04 -3.62779E+03 -1.81743E+04 -8.58673E+03
 -8.06414E+03 -1.79752E+04  4.83745E+03 -2.37768E+04  6.57452E+03 -2.15898E+04  1.43264E+04 -1.48925E+04
  1.15393E+04  6.07358E+03 -7.63306E+03  9.03951E+03 -2.31752E+04 -1.30246E+04 -8.20808E+03 -3.51912E+04
  1.85782E+04 -4.57692E+04  4.90933E+04 -1.82791E+04  4.40977E+04  1.52785E+04  1.61845E+04  4.45210E+04
 -1.67225E+04  3.71811E+04 -3.17571E+04  2.04696E+03 -1.08767E+04 -2.68863E+04  1.52978E+04 -3.55816E+04
  4.24713E+04 -9.00232E+03  4.42231E+04  2.28289E+04  1.78743E+04  4.53795E+04 -8.48630E+03  5.01494E+04
 -3.70736E+04  3.46269E+04 -4.67476E+04  6.75703E+03 -4.87666E+04 -1.38458E+04 -2.78586E+04 -3.84382E+04
  6.52116E+03 -4.34742E+04  3.35883E+04 -1.28505E+04  3.00195E+04  6.27849E+03  5.32331E+03  2.73161E+04
 -1.78152E+04  3.07366E+03 -1.28067E+04 -5.97477E+03  7.21621E+03 -1.12995E+04  1.81601E+04  9.40229E+02
  1.66367E+04  2.33781E+04 -4.71964E+02  2.25734E+04 -2.31604E+04  1.73921E+04 -2.78651E+04 -5.19821E+03
 -2.72896E+04 -1.35925E+04 -7.30169E+03 -2.37134E+04  4.99887E+03 -1.99465E+04  1.81646E+04 -2.34998E+04
  2.94353E+04 -1.45629E+04  3.66594E+04 -6.46721E+01  2.51111E+04  2.25914E+04  7.19810E+03  3.85170E+04
 -1.83975E+04  3.56701E+04 -3.17143E+04  1.36792E+04 -2.54874E+04 -1.11626E+04 -4.00003E+03 -1.58795E+04
  6.61592E+02 -7.95000E+02 -7.78062E+03  4.92271E+03 -1.89177E+04  4.78720E+03 -2.02099E+04 -1.32867E+04
 -1.13011E+04 -2.46429E+04  7.50907E+03 -2.80636E+04  1.67161E+04 -1.44792E+04  1.90562E+04 -4.50477E+03
  1.34989E+04  7.36906E+03  2.54784E+03  1.94933E+04 -1.52206E+04  9.10463E+03 -2.14980E+04 -5.43412E+03
 -1.96638E+04 -1.08016E+04  1.92948E+03 -3.00397E+04  1.22393E+04 -2.58396E+04  1.68384E+04 -1.24274E+04
  2.08125E+04 -4.79336E+03  1.37078E+04  3.47735E+03  1.03981E+04  3.50991E+03  1.16872E+04 -1.76850E+03
  1.39122E+04  3.58158E+03  2.26838E+04  1.25113E+04  1.89901E+04  3.30620E+04 -5.41206E+03  4.33316E+04
 -1.79046E+04  3.50427E+04 -3.36656E+04  1.44058E+04 -4.33019E+04 -4.99400E+03 -3.14039E+04 -1.82777E+04
 -1.65643E+04 -2.95773E+04  9.31629E+03 -3.10273E+04  2.55192E+04 -1.24313E+04  2.09325E+04  1.04461E+04
  1.01172E+04  1.56295E+04 -1.27005E+04  1.49277E+04 -1.33659E+04  5.55722E+03 -1.22561E+04 -1.23154E+04
 -3.14505E+02 -1.74339E+04  6.44070E+03 -1.30489E+04  1.07301E+04  8.30064E+02  3.21551E+03  9.09200E+03
 -6.63106E+03  3.02313E+03 -1.14371E+04 -1.35040E+04 -2.61436E+03 -1.04805E+04  1.68648E+04 -1.26420E+04
  1.92849E+04 -8.05998E+03  2.22113E+04  7.97106E+03  2.10404E+04  1.51019E+04  1.45348E+04  2.79019E+04
 -8.35126E+03  2.78333E+04 -1.95828E+04  1.51893E+04 -1.62896E+04  5.82912E+03 -1.77197E+04  6.16314E+02
 -5.88318E+03 -1.30432E+03 -6.10390E+02  2.59316E+02  7.63550E+02  3.52790E+03 -8.94440E+03  1.09310E+04
 -2.01658E+04  1.23370E+03 -1.59533E+04 -1.56045E+04 -6.01525E+03 -1.32967E+04  7.40820E+03 -1.46772E+04
  1.34101E+04 -7.55023E+03  3.91521E+03  3.85423E+03  1.70586E+03  8.34452E+03 -5.40849E+03 -1.22704E+03
 -1.61145E+03 -1.37589E+04  3.37642E+02 -1.04003E+04  8.06049E+03 -1.78889E+04  1.94440E+04 -6.28208E+03
  2.56705E+04  5.25985E+03  1.54524E+04  1.07151E+04  4.82171E+03  1.88791E+04 -5.55047E+03  1.42308E+04
 -1.54561E+04  2.95814E+03 -5.44895E+03 -5.13531E+03  6.51621E+03 -4.41795E+03  8.92266E+03 -1.60325E+03
  1.04887E+04  8.08166E+03 -3.15074E+03  1.49033E+04 -1.03732E+04  8.75155E+03 -1.38411E+04  7.77203E+03
 -9.57276E+03 -7.57814E+03 -1.96779E+03 -1.68542E+04  9.28287E+03 -6.15181E+03  2.62012E+03  4.38739E+03
  2.87232E+03  1.05418E+04 -5.17330E+03  7.04121E+03 -8.43813E+03  7.60812E+03 -1.52313E+04 -5.62348E+03
 -6.23886E+03 -1.69348E+04  1.59096E+03 -1.85362E+04  1.53962E+04 -1.11503E+04  1.35097E+04 -2.78667E+03
  7.13351E+03  8.52861E+03 -3.45896E+02  1.44671E+04 -1.35751E+04  8.08190E+03 -9.66425E+03  9.04694E+02
 -9.18039E+03 -4.59571E+03  3.87321E+02 -1.78708E+04  1.15566E+04 -7.74202E+03  6.67046E+03 -4.67452E+03
  7.57630E+03  5.31236E+03 -1.63838E+03  7.31050E+03  4.39531E+02 -2.65632E+03  4.98159E+03 -1.28228E+04
  1.34701E+04 -4.32839E+03  1.63711E+04 -5.35084E+03  1.15748E+04  8.15796E+03  9.53073E+03  2.15590E+04
 -8.95726E+03  2.53837E+04 -1.38398E+04  1.18002E+04 -2.43723E+04  5.81892E+03 -2.39674E+04 -1.12249E+04
 -7.74147E+03 -1.66156E+04  4.19424E+03 -1.89268E+04  1.07200E+04 -2.07825E+03  4.90623E+03 -8.77099E+02
  2.06680E+03 -5.72898E+03 -3.07313E+03 -2.73229E+03  4.71284E+03 -2.83946E+03  1.15693E+04  3.56094E+03
  1.26615E+04  1.92284E+03  7.62731E+03  7.75327E+03 -8.68325E+03  1.12590E+04 -1.64414E+04  7.12529E+03
 -7.65234E+03 -4.37504E+03 -1.09190E+04 -1.00701E+04 -1.85932E+03 -1.32536E+04  5.83234E+03 -1.23059E+04
  1.71414E+04 -5.23965E+03  1.51056E+04  9.68293E+02  1.25024E+04  1.13429E+04  5.05922E+03  1.27652E+04
 -8.55788E+02  1.76443E+04 -8.65522E+03  8.46229E+03 -9.11637E+03 -4.49998E+03  2.11893E+02 -1.87465E+03
  4.21066E+03 -5.71366E+03 -2.87598E+03  1.77246E+03  4.79950E+03  1.80882E+03 -1.14871E+04  1.53509E+03
 -2.12190E+03 -8.35570E+03  1.75566E+03 -1.24576E+04  7.21666E+03 -8.15174E+03  1.01512E+04 -2.58532E+03
  1.37799E+04  7.68299E+03  7.10325E+03  1.32415E+04 -9.02528E+02  6.17848E+03 -1.50944E+04  5.39300E+03
 -1.23739E+04 -1.35752E+03 -4.29137E+03 -3.83155E+03  4.30048E+02 -9.88193E+03  8.63561E+02 -6.27950E+03
  7.47831E+03 -8.08734E+01  6.75970E+03 -1.72254E+03 -1.41798E+03  5.74987E+03  1.40268E+03  2.33239E+03
  4.77313E+03 -3.08333E+03 -9.86739E+02  3.51928E+03 -1.03135E+03  5.13488E+03  2.40215E+03  6.03027E+03
 -6.26359E+03  6.95134E+03 -7.17676E+03  1.70353E+04 -1.32158E+04  1.70778E+03 -1.65204E+04 -6.39493E+03
 -5.91652E+03 -8.68015E+03  9.22138E+02 -1.77970E+04  4.49966E+03 -4.40501E+03  7.53553E+03 -3.75803E+03
  1.16572E+04  5.09819E+03  4.92966E+03  8.90985E+03 -1.51490E+03  2.49525E+03  1.84454E+03  3.42804E+02
 -2.64043E+03 -1.92970E+03  4.37380E+03 -3.37972E+03  7.77118E+03 -5.76034E+03  6.38348E+03  3.77833E+03
  6.33666E+03 -2.40359E+01 -2.27448E+03  1.14557E+03  4.30794E+02 -1.42935E+03  5.35076E+03  1.16924E+03
  6.37353E+03  2.46954E+03  9.16214E+03  3.07834E+03  3.49958E+03  1.08495E+04 -1.08305E+03  9.14496E+03
 -6.46683E+03  4.48473E+03 -2.31361E+03  1.03129E+03 -6.83140E+03 -2.13102E+03  9.47552E+02 -4.63484E+03
 -1.56838E+03 -9.99162E+03  1.97844E+03 -1.80772E+03 -3.43778E+02  8.02148E+03  3.28419E+03  8.60642E+03
 -3.21953E+03 -1.02213E+03 -8.39200E+03 -1.33847E+03  1.78003E+03 -8.80580E+03  3.58496E+03 -6.93591E+03
  8.80921E+03 -8.45176E+03  5.91827E+03 -4.96322E+03 -3.39651E+02 -1.47230E+03  3.05632E+03  6.67004E+02
 -6.72738E+03  2.30078E+02 -8.00703E+03 -2.76839E+03  3.22843E+03 -7.32470E+03  6.00752E+03 -1.16636E+04
  1.17777E+04  3.76157E+02  9.83060E+03  1.07264E+04  6.21274E+01  1.04082E+04 -7.86173E+03  1.13698E+04
 -7.65625E+03  2.53026E+03 -1.17715E+04 -4.50973E+03 -7.07286E+03 -4.38239E+01 -6.96831E+03 -1.90396E+03
  2.54614E+03  4.22961E+03  4.64966E+03 -1.14369E+03  3.89563E+03  5.95809E+03 -2.70186E+03  4.37276E+02
 -4.28785E+03 -2.02713E+03 -8.83720E+02  1.97397E+03 -2.69542E+03 -4.92040E+02 -2.75341E+03  2.94208E+02
 -1.06259E+04  3.77416E+03 -8.21100E+03  1.66741E+03 -9.82503E+03  1.00661E+03 -9.91755E+03 -9.19853E+03
 -2.41802E+03 -1.00871E+04  6.51596E+03 -1.82523E+04  7.38232E+03 -4.32810E+03  5.59173E+03  1.89627E+03
  7.43570E+03  3.24250E+03  1.08117E+03  5.58557E+03  5.64289E+02  1.19834E+04 -3.90593E+03  9.89697E+03
 -2.78219E+03 -1.61544E+03 -1.91406E+03  1.70907E+03 -2.71286E+03 -4.46194E+01 -1.68998E+03 -3.37981E+03
  4.47413E+03  5.20925E+03 -5.95364E+03 -2.61981E+03  2.91149E+03 -2.75949E+03  3.44515E+03 -8.18964E+03
  7.37738E+03 -4.67319E+03  2.79120E+03 -4.18158E+02  1.00475E+04  3.98678E+03  1.86903E+03  6.75289E+03
 -3.88643E+03  6.41501E+03 -1.20866E+04  9.86305E+03 -1.54752E+04  1.37816E+03 -7.66477E+03 -7.67724E+03
 -2.44665E+03 -8.89759E+03  2.06875E+03 -7.56434E+03  5.36770E+03 -5.42363E+03  6.58433E+03  9.83049E+02
  4.83533E+03  4.13202E+02 -4.41934E+03  7.01129E+03  2.19738E+03  2.54103E+03  7.17661E+03 -9.27600E+03
  3.42388E+03  5.75760E+02  1.00176E+04  4.18541E+03  1.80046E+03 -4.04395E+02  1.85959E+00  3.44725E+03
 -6.38630E+03  7.05335E+03 -1.05485E+04 -5.91044E+03 -7.89515E+03 -4.29856E+03  3.73888E+02 -6.53791E+03
 -2.53546E+03 -1.56059E+03  6.76520E+03  8.06737E+02  1.02397E+04  6.94930E+02  4.60896E+03  3.23577E+03
  5.73170E+03  7.42310E+03 -8.42670E+02  4.49053E+03  1.70156E+03  5.25326E+03 -6.46566E+03  4.59890E+03
  7.79743E+02 -2.75345E+03  1.38314E+03  1.63929E+03 -3.85073E+03  5.23478E+03  1.27921E+03  3.72020E+03
 -1.51377E+03 -9.29560E+03 -4.95425E+03 -6.03901E+03  1.03862E+04 -4.12317E+03  9.71993E+03 -2.19128E+03
  2.38245E+03 -2.30117E+03  1.67904E+03  5.24240E+03 -4.52393E+03  7.06021E+03 -2.62576E+02 -9.86699E+01
