 $NMID ID='MM_0lb_SNR50_8hz_g50_25.RAW', FMTDAT='(8E13.5)'
 TRAMP=1., VOLUME=1. $END
  3.17039E+05 -4.33026E+03  3.44426E+05  2.51743E+05  8.37534E+04  3.40948E+05 -1.33869E+05  2.48502E+05
 -1.85468E+05  8.90964E+04 -1.14191E+05 -4.05169E+04  5.02610E+03 -4.78091E+04  5.25671E+04 -1.34889E+03
  3.07102E+04  5.09264E+04 -1.80658E+04  7.95561E+04 -5.83286E+04  6.74146E+04 -8.78281E+04  3.34387E+04
 -8.20638E+04 -9.89651E+03 -6.08480E+04 -5.56834E+04 -1.87951E+04 -6.83413E+04  3.26744E+04 -5.05073E+04
  3.46202E+04 -1.17350E+03  1.43229E+04  4.99800E+04 -3.52252E+04  4.44528E+04 -6.81744E+04  2.35065E+03
 -5.44512E+04 -6.02963E+04 -5.06757E+02 -8.22799E+04  3.33686E+04 -5.72892E+04  5.05351E+04 -1.40776E+04
  4.13973E+04  9.80323E+03  2.90837E+04  1.94576E+04  1.05595E+04  3.91929E+04 -4.44419E+03  2.86888E+04
 -2.11965E+04  1.14940E+04 -1.43527E+04 -2.58873E+03  3.68228E+03 -3.02282E+03  2.03923E+04  1.77926E+04
  9.31532E+03  4.09620E+04 -3.52002E+04  3.96795E+04 -6.61871E+04  7.64228E+03 -5.79697E+04 -4.63872E+04
 -8.01530E+03 -6.81212E+04  4.03801E+04 -4.57939E+04  6.66717E+04 -4.94170E+03  3.65890E+04  3.61637E+04
 -6.66701E+03  3.95164E+04 -3.31345E+04  2.02111E+04 -3.95863E+04 -5.24132E+03 -2.22557E+04 -1.54203E+04
 -1.11266E+04 -2.08065E+04  1.29990E+03 -1.83739E+04  3.67992E+03 -2.25826E+04  2.05488E+04 -1.66355E+04
  1.35231E+04  1.03104E+04 -1.02043E+04  1.11924E+04 -1.63066E+04 -2.92941E+03 -1.58318E+04 -4.03119E+04
  1.99887E+04 -4.71058E+04  5.38605E+04 -2.38079E+04  4.61338E+04  1.86034E+04  1.24952E+04  4.32026E+04
 -1.79310E+04  3.21160E+04 -2.94827E+04  9.89837E+02 -1.80766E+04 -2.65619E+04  2.49135E+04 -3.04858E+04
  4.70638E+04 -1.17119E+04  3.87696E+04  3.18108E+04  2.35039E+04  5.85829E+04 -4.64560E+03  4.92736E+04
 -3.57906E+04  3.98984E+04 -5.27116E+04  1.11983E+04 -5.31198E+04 -1.77231E+04 -2.83844E+04 -4.40998E+04
  6.16157E+03 -4.25866E+04  3.28655E+04 -1.57944E+04  3.24715E+04  1.45050E+04  2.10537E+03  2.21665E+04
 -1.01173E+04  1.20370E+04 -1.60098E+04 -1.53386E+03  2.73308E+03 -1.35517E+04  1.66643E+04  5.37538E+03
  1.68918E+04  1.84979E+04 -1.60378E+03  2.60645E+04 -2.20517E+04  1.87338E+04 -4.11204E+04 -3.77204E+03
 -2.78830E+04 -2.09863E+04 -1.03017E+04 -2.46079E+04  1.63282E+03 -3.27207E+04  2.15437E+04 -1.85245E+04
  3.68276E+04 -1.98959E+04  3.83114E+04  1.71096E+02  2.84782E+04  2.73498E+04  1.94052E+02  3.57530E+04
 -1.89920E+04  4.07687E+04 -3.24179E+04  1.41992E+04 -2.20756E+04 -1.39483E+04 -2.69873E+03 -1.26879E+04
 -3.25993E+02  4.50607E+03 -9.45284E+03  1.47858E+04 -2.17756E+04  2.45073E+03 -2.15514E+04 -1.39772E+03
 -1.41314E+04 -2.66777E+04  7.42181E+03 -2.85977E+04  1.71472E+04 -1.49998E+04  2.30243E+04 -2.06770E+03
  1.82107E+04  1.25037E+04 -2.77449E+03  2.34976E+04 -1.39516E+04  2.11345E+04 -2.45390E+04 -3.35550E+03
 -1.94701E+04 -2.59057E+04 -1.30157E+02 -2.80156E+04  9.11017E+03 -2.17015E+04  2.52311E+04 -1.12772E+04
  3.00009E+04  2.67054E+03  1.83787E+04  8.88650E+03  1.05177E+04  7.95692E+03  1.07640E+04  2.96294E+02
  2.38438E+04  5.09029E+03  2.81550E+04  1.78514E+04  1.70256E+04  4.10967E+04  3.30442E+01  5.03256E+04
 -3.00153E+04  4.00472E+04 -4.35030E+04  2.07669E+04 -5.18002E+04  9.45019E+02 -3.89668E+04 -2.65389E+04
 -8.74780E+03 -3.62166E+04  1.60445E+04 -3.24201E+04  2.62259E+04 -2.02902E+04  3.01732E+04  5.31637E+03
  2.22329E+03  2.01942E+04 -2.07858E+04  1.57953E+04 -1.35958E+04 -5.80410E+03 -1.87713E+04 -6.26319E+03
 -4.18133E+03 -2.06273E+04  7.91746E+03 -2.01518E+04  1.55518E+04 -1.05073E+03  2.31088E+03  1.53595E+04
 -4.81926E+03  4.47224E+03 -6.61560E+03 -2.24731E+03 -4.02501E+03 -1.74775E+04  1.26846E+04 -1.41244E+04
  2.95278E+04 -1.20609E+04  2.02001E+04 -6.49818E+03  2.10439E+04  1.91209E+04  1.35181E+04  2.41009E+04
 -8.83462E+03  3.14465E+04 -1.83740E+04  1.93415E+04 -3.13754E+04  3.84378E+03 -1.23342E+04 -3.83784E+03
 -1.08752E+04 -1.41790E+04 -5.83039E+03  1.35606E+03 -1.09863E+03  5.25201E+03 -5.18628E+03  1.00700E+04
 -1.21687E+04  4.21776E+03 -1.94659E+04 -8.22200E+03 -6.33588E+03 -1.77517E+04  5.82679E+03 -1.36770E+04
  1.34662E+04 -5.79344E+03  1.56039E+04  4.36763E+03 -3.69108E+03  1.67182E+04 -6.44179E+03 -1.77956E+03
 -4.07970E+03 -6.02476E+03  1.34357E+03 -1.76765E+04  3.37880E+03 -1.44652E+04  1.90679E+04 -1.00999E+04
  2.16328E+04  2.37293E+03  1.37002E+04  9.39711E+03  4.20587E+03  1.46196E+04 -1.11184E+04  1.89394E+04
 -1.31379E+04  1.84853E+03 -1.50982E+04 -8.29943E+03 -5.09237E+03 -6.50152E+03  7.51368E+03 -2.85201E+03
  5.84419E+03  3.45751E+03  3.44580E+03  6.19570E+03 -5.77699E+03  1.12941E+04 -1.90403E+04  5.28419E+02
 -1.29483E+04 -6.95719E+03 -1.69667E+02 -2.16694E+04  7.87045E+03 -4.77640E+03  1.10494E+04  1.33833E+04
  6.50523E+03  1.14457E+04 -9.87839E+03  1.47221E+04 -1.56401E+04  8.90214E+03 -1.25569E+04 -8.47094E+03
 -5.70220E+03 -2.39253E+04  5.43169E+03 -1.44620E+04  2.01052E+04 -1.42878E+04  1.78442E+04  3.20285E+03
  1.27726E+04  1.56407E+04 -3.91751E+03  1.83041E+04 -6.91805E+03  1.39565E+04 -1.76217E+04 -5.78233E+03
 -1.18804E+04 -1.56013E+04 -3.57952E+03 -1.35873E+04  8.94363E+03 -7.77733E+03  4.99426E+03 -8.69130E+03
  4.31473E+03  6.45570E+03  1.22619E+02  7.74860E+02 -7.11695E+01 -5.24145E+02  1.48667E+02 -1.17721E+04
  9.86128E+03 -9.96339E+03  1.41595E+04  9.59760E+03  2.52216E+04  1.20006E+04  8.54560E+03  2.78502E+04
 -5.35477E+03  2.56661E+04 -2.37775E+04  1.43991E+04 -2.80653E+04  5.40187E+03 -2.11392E+04 -1.21606E+04
 -9.81755E+03 -2.05106E+04 -7.01921E+02 -1.57047E+04  6.54495E+03 -1.14595E+04  6.92419E+03 -7.22498E+03
  1.08300E+04  4.75917E+03  3.77324E+03 -4.18173E+03  3.88570E+03 -2.60644E+03  4.75795E+03 -8.16473E+02
  1.40340E+04  9.03389E+02  7.29832E+03  8.35239E+03  1.35899E+03  9.54810E+03 -1.21649E+04 -2.65419E+02
 -1.07163E+04  4.23348E+02 -8.20605E+03 -1.26731E+04  1.29074E+03 -1.27158E+04  1.11862E+04 -1.55316E+04
  2.01221E+04 -8.45082E+03  2.63730E+04  2.35274E+03  1.29797E+04  1.37752E+04  7.36545E+03  2.57657E+04
 -5.42242E+03  2.26789E+04 -1.30990E+04  8.78727E+02 -7.79263E+03 -3.18402E+03  9.26525E+02 -9.67954E+03
 -4.09535E+03  3.41553E+03 -1.65600E+03  2.44871E+03 -2.88937E+03  6.80479E+03 -1.30900E+04 -1.88684E+03
 -7.65816E+03 -6.19208E+03 -1.55065E+03 -1.35277E+04  5.14035E+03 -1.53675E+04  1.18001E+04 -1.26242E+03
  1.68506E+04  5.76909E+03  4.98377E+03  1.53952E+04 -7.85073E+02  2.59991E+04 -9.74724E+03  1.34402E+04
 -1.37554E+04 -2.27150E+03 -1.07270E+04 -1.28855E+04 -2.04197E+03 -1.00523E+04  6.69036E+03 -6.50164E+03
  1.20324E+04 -4.26742E+03  6.40489E+03 -4.20139E+02  6.29963E+02  6.64458E+03  2.59430E+02 -9.08552E+02
 -4.85127E+03  5.12143E+03  8.26033E+03 -1.98198E+03  7.32522E+03  5.28828E+03 -3.31939E+03  9.36128E+03
 -8.94949E+03  1.08514E+04 -1.42578E+04  1.44846E+04 -1.95267E+04  1.84800E+02 -1.61882E+04 -2.05079E+02
 -2.64828E+03 -1.18043E+04  5.81927E+03 -2.10022E+04  6.75819E+03 -1.26832E+04  1.12925E+04 -2.23465E+03
  8.86615E+03  8.33079E+03 -1.75047E+03  7.46282E+03 -9.19821E+03  3.41998E+03 -1.63521E+04 -3.64932E+03
 -5.17717E+03 -6.93039E+03  8.65752E+03 -1.05906E+04  2.79078E+03 -3.66424E+02  7.70265E+03 -1.29730E+03
  4.52976E+03  7.18159E+03  1.24705E+03  6.88308E+03 -2.18148E+03  2.01014E+03 -2.19674E+03 -1.89012E+03
  3.41128E+03  3.03252E+03  5.64203E+03  4.87916E+03  7.23622E+03  7.15423E+03 -4.81850E+03  9.48001E+03
 -1.61616E+03  2.82059E+03 -7.19147E+03  1.70318E+03 -5.03162E+03 -5.34983E+03  3.09657E+03 -5.37567E+03
  1.10992E+03 -9.80655E+03  6.74241E+03 -8.93380E+03  1.29399E+04 -3.70013E+02  5.29906E+03  4.76694E+03
 -1.49783E+04  8.85266E+03 -1.41560E+04 -6.58912E+03 -9.31702E+03 -1.20320E+04  3.15574E+02 -1.15172E+04
  1.47976E+02 -7.41434E+03  1.25808E+04 -3.70379E+03  5.34099E+03  5.36631E+03 -6.89923E+03  8.66864E+03
  2.80504E+03 -6.60919E+02 -1.19432E+04  1.14101E+03  9.46419E+03 -6.25586E+03  7.06317E+03 -3.64736E+03
  1.25502E+04  6.68368E+03  5.31101E+03  9.20930E+03  4.76845E+03  1.02619E+04 -4.05620E+03  7.26343E+03
 -7.59083E+03  1.26471E+03 -1.48213E+04 -1.08491E+03  1.47092E+03 -4.51747E+03  4.36784E+02 -6.25774E+03
 -6.11952E+02 -4.44953E+03  1.02848E+03  1.24616E+03  2.11926E+03  2.91285E+03 -7.25060E+03  6.80571E+03
  3.24165E+03  3.74295E+03 -9.89687E+03  4.05426E+03  4.08259E+02  6.77997E+02 -4.44968E+03  3.85999E+03
 -8.68017E+03  1.15640E+04 -1.24167E+04  2.29791E+03 -1.96493E+04  6.27669E+02 -7.81336E+03 -7.19550E+03
 -6.55601E+03 -1.17309E+04 -2.26848E+02 -1.41826E+04  1.50244E+04 -1.71662E+04  1.70870E+04 -6.57511E+02
  1.44813E+04 -6.95335E+02  1.38760E+04  1.49455E+04  1.14397E+04  1.18135E+04 -3.61892E+02  2.47573E+03
 -4.37550E+03  7.26752E+03 -6.97721E+03 -1.60617E+01 -1.71014E+03 -1.31813E+03  3.14715E+03 -3.23524E+03
  4.26612E+03 -2.29542E+03 -3.97521E+02 -4.59369E+03 -3.25110E+03 -4.04416E+03 -2.45288E+03 -4.52526E+03
  5.28690E+03 -3.20313E+03  1.28636E+04  6.56860E+02  1.13424E+04  1.00106E+04  5.19223E+03  1.47157E+04
 -1.18975E+04  2.06188E+04 -1.39450E+04  4.61804E+03 -2.07056E+04  1.12326E+03 -1.34273E+04 -9.76773E+03
 -8.49040E+03 -2.14305E+04  4.07049E+03 -1.37495E+04  1.92027E+03 -8.32331E+03  5.77009E+03  2.64122E+03
  8.61016E+03  4.74299E+03 -6.81955E+03  3.35466E+03 -5.44893E+03  2.41850E+03 -1.26728E+03 -2.53539E+03
  1.70960E+03  1.61199E+03  1.44518E+04  4.34961E+03  3.21436E+03  5.17353E+03 -5.92962E+03  6.81492E+03
 -8.41645E+03  9.57493E+03 -3.64585E+03 -5.08158E+03 -7.96124E+03 -1.97613E+03  5.00605E+03 -8.90085E+03
  2.35914E+03 -1.02587E+04  6.12002E+03 -6.14717E+03  1.27960E+04  3.58209E+03  4.10433E+03  9.20610E+03
  5.88784E+03  9.06034E+03 -1.03292E+04  8.06939E+03 -2.34947E+03 -4.19850E+03 -1.04987E+04  3.78628E+02
  3.14646E+02 -3.91195E+03 -4.31106E+03  2.79866E+03 -8.31879E+03  4.33293E+03 -1.37032E+04  1.42856E+03
 -6.00582E+03 -3.92429E+03 -1.06411E+03 -7.50522E+03  7.93180E+03 -1.13550E+04  5.04227E+03 -8.90897E+03
  7.33752E+03 -8.61104E+02  9.93133E+02  6.40222E+03 -2.99137E+03  1.18682E+04 -5.88331E+03  5.40173E+03
