 $NMID ID='MM_0lb_SNR50_20hz_g60_28.RAW', FMTDAT='(8E13.5)'
 TRAMP=1., VOLUME=1. $END
  3.08566E+05  7.98458E+02  3.37513E+05  2.50269E+05  8.26960E+04  3.38111E+05 -1.30761E+05  2.49455E+05
 -1.92832E+05  8.32738E+04 -1.10563E+05 -3.08795E+04 -1.53146E+02 -5.27060E+04  5.42398E+04 -4.50463E+01
  3.19186E+04  5.23318E+04 -1.56738E+04  7.64985E+04 -6.11339E+04  6.14550E+04 -8.30611E+04  3.60881E+04
 -7.51264E+04 -1.32358E+04 -5.28821E+04 -5.03694E+04 -1.82850E+04 -6.89673E+04  2.65452E+04 -4.28482E+04
  3.70102E+04  4.01410E+03  1.42019E+04  4.28310E+04 -3.14565E+04  4.24264E+04 -6.53343E+04  3.96495E+02
 -5.65366E+04 -5.47645E+04 -3.80596E+03 -7.54732E+04  3.31693E+04 -5.01115E+04  4.74173E+04 -1.91474E+04
  4.15668E+04  9.54048E+03  2.75422E+04  2.89550E+04  1.32261E+04  3.26906E+04 -1.03651E+04  2.70055E+04
 -2.19644E+04  1.29474E+04 -1.97078E+04 -3.81384E+03  3.18018E+03 -4.66528E+03  2.06528E+04  7.97786E+03
  6.24506E+03  3.52254E+04 -2.98194E+04  3.56454E+04 -6.09240E+04 -3.90154E+02 -5.62861E+04 -3.86957E+04
 -1.27560E+04 -6.66792E+04  3.87386E+04 -4.42258E+04  5.92730E+04 -6.17835E+02  3.28303E+04  2.97277E+04
 -7.07540E+03  3.07940E+04 -2.94772E+04  1.53957E+04 -2.83165E+04 -3.90370E+03 -1.65147E+04 -4.63487E+03
 -4.54684E+03 -1.13614E+04 -2.80522E+03 -2.01129E+04  5.86731E+03 -1.75235E+04  1.79947E+04 -1.59239E+04
  1.60435E+04  4.79050E+03 -9.61291E+03  1.29662E+04 -2.16430E+04 -3.88977E+03 -5.81562E+03 -3.43297E+04
  2.25295E+04 -4.42469E+04  4.83657E+04 -1.83970E+04  4.19161E+04  1.70693E+04  1.74124E+04  4.09650E+04
 -1.69799E+04  3.11894E+04 -2.29535E+04  9.41554E+02 -8.84206E+03 -2.54395E+04  1.97085E+04 -3.13170E+04
  3.75068E+04 -9.60451E+03  3.14685E+04  1.99751E+04  1.86087E+04  4.50536E+04 -7.71782E+03  4.81820E+04
 -2.95735E+04  2.98300E+04 -3.99149E+04  6.41591E+03 -4.17432E+04 -1.56445E+04 -1.95350E+04 -3.39444E+04
  5.44582E+03 -3.25315E+04  2.38108E+04 -1.23461E+04  2.74172E+04  1.11668E+04  3.68031E+03  1.47623E+04
 -1.27265E+04  7.43432E+03 -9.12589E+03 -6.69790E+03  6.91349E+03 -8.39262E+03  2.33059E+04  6.57004E+03
  1.49257E+04  2.39845E+04 -1.13576E+04  2.59889E+04 -1.80437E+04  7.91958E+03 -2.63458E+04 -3.76809E+03
 -1.73339E+04 -1.37067E+04 -7.73532E+03 -1.79312E+04  3.41953E+03 -1.32219E+04  1.44667E+04 -1.51019E+04
  1.87200E+04 -1.10497E+04  2.72601E+04  4.48441E+03  2.12015E+04  1.93233E+04  2.38854E+03  3.64524E+04
 -1.70543E+04  2.28618E+04 -2.54852E+04  6.12155E+03 -1.82629E+04 -6.71329E+03 -2.50456E+03 -1.51563E+04
  2.37768E+03 -4.36988E+03  9.25950E+02  6.06542E+03 -1.07022E+04  4.05711E+03 -1.08685E+04 -7.50926E+03
 -9.48029E+03 -1.55616E+04  6.21283E+03 -1.79896E+04  1.39245E+04 -1.56307E+04  1.53438E+04 -1.91153E+03
  1.31070E+04  1.08703E+04 -2.19055E+03  1.64013E+04 -9.04331E+03  5.64587E+03 -1.42790E+04 -5.94054E+03
 -1.15964E+04 -1.36986E+04  1.55826E+03 -1.86875E+04  6.81339E+03 -1.78089E+04  1.52240E+04 -1.06685E+04
  1.27757E+04 -1.77139E+03  6.82703E+03  7.39296E+03  5.42198E+03 -3.76903E+03  2.98900E+03  3.68403E+03
  1.49130E+04  3.93502E+03  1.53499E+04  1.01591E+04  8.60429E+03  2.18000E+04 -5.81500E+03  2.52760E+04
 -1.96414E+04  2.30983E+04 -2.52934E+04  7.23713E+03 -2.55146E+04 -1.38757E+03 -2.32818E+04 -1.70155E+04
 -1.03170E+04 -2.04659E+04  8.33489E+03 -1.81470E+04  1.53958E+04 -1.22549E+04  9.24408E+03 -8.93265E+02
  8.97341E+03  1.07361E+04 -6.30704E+03  1.15036E+04 -1.68440E+04  4.77238E+03 -9.30907E+03 -7.15063E+03
 -1.08252E+02 -1.23368E+04  7.78798E+03 -1.06758E+04  7.78491E+03 -2.79437E+03 -3.97352E+01  7.11385E+03
 -7.77004E+03  3.38211E+03 -7.04578E+03 -7.17805E+03 -2.53168E+03 -9.06084E+03  7.10661E+03 -1.17344E+04
  1.30447E+04 -1.27859E+03  1.40132E+04  6.95203E+03  1.11083E+04  6.76926E+03  4.29430E+03  1.40901E+04
  3.79290E+03  1.54747E+04 -4.16914E+03  7.18616E+03 -1.29912E+04  6.02789E+03 -5.80631E+03 -2.20599E+03
 -6.02293E+03 -4.05127E+03  3.95519E+03  1.30103E+03 -6.26313E+02  1.12308E+03 -1.51516E+03  6.97387E+03
 -6.13806E+03 -3.10748E+02 -1.19004E+04 -5.51046E+03 -3.92688E+03 -1.31017E+04  3.09449E+03 -8.17434E+03
  4.44399E+03 -3.44654E+03  5.35897E+03  2.58442E+03 -5.57708E+01  5.10481E+03 -3.13498E+03  2.31278E+03
 -3.72954E+03 -6.72355E+03  1.34643E+03 -8.39287E+03  3.30522E+03 -4.57343E+03  1.17919E+04 -4.75134E+03
  8.71151E+03  6.51689E+01  9.67678E+03  2.94539E+03  4.96917E+03  8.09317E+03 -3.41583E+03  7.33409E+03
 -6.74016E+03  3.34733E+03 -3.98964E+03  1.79367E+03  1.85644E+03 -1.27671E+03  6.05878E+03 -4.87565E+03
  4.27635E+03  5.05834E+03  3.43732E+02  7.41436E+03 -7.40890E+03  8.59002E+03 -7.16755E+03 -1.94246E+03
 -6.00500E+03 -2.80377E+03  3.25080E+03 -6.51488E+03  7.29182E+03  4.03753E+02  3.15370E+03  1.97066E+03
  7.27468E+02  2.66110E+03 -4.36922E+03  3.24310E+03 -4.80338E+02  3.06668E+03 -8.97674E+03 -2.10678E+03
 -2.78812E+03 -6.01708E+03  1.79556E+03 -8.10802E+03  2.24102E+03 -1.74686E+03  9.51106E+03  1.29466E+03
  1.78781E+02  2.45476E+03 -2.70627E+03  8.81581E+03 -7.02228E+03  2.72641E+03 -4.79693E+03 -1.56900E+03
 -7.74604E+03 -1.51905E+03  3.33636E+03 -1.57563E+03  3.23661E+03 -9.84700E+03  9.19314E+03 -4.64838E+03
  4.01058E+03 -1.43071E+03 -6.88318E+02  3.47028E+03 -9.68750E+00 -3.62975E+03  1.20816E+03  4.05383E+03
  5.24774E+03  1.52693E+03  2.65241E+03  3.00556E+03  4.52666E+03 -2.91498E+02  5.81598E+03  6.46781E+03
 -1.35150E+03  7.52639E+03 -1.06927E+04  3.65286E+03 -9.95209E+03  1.57925E+03 -6.28781E+03  2.81070E+03
  6.61119E+01 -5.26062E+03 -1.15987E+03 -2.66010E+03  3.72495E+03 -1.43993E+03  2.60306E+03  1.44349E+03
 -9.95577E+02  3.00763E+03 -9.18095E+01  4.23583E+03  2.02632E+03  4.63702E+02  2.12281E+03  2.79642E+02
  8.67471E+03  5.24627E+02  1.90748E+03  3.32998E+03 -2.17977E+03  6.73138E+03 -2.90947E+03 -4.01356E+02
 -7.02687E+03  3.16139E+03 -1.94631E+03 -4.82604E+03 -3.38037E+02 -1.73609E+03  1.57260E+03 -8.10059E+03
  3.00023E+03 -3.24884E+02  4.34103E+03  2.39083E+03 -8.04617E+02  4.57926E+03  5.69688E+03  4.59366E+03
  1.33637E+03  3.66983E+03 -4.55017E+03  5.03752E+03 -3.31203E+03 -6.73030E+03  3.05570E+03  4.60248E+03
  1.12724E+02 -5.21247E+03 -2.64909E+03  2.29647E+03 -1.81703E+03  4.39513E+02 -6.55547E+03  1.54129E+03
  1.29553E+03 -2.14893E+03  5.33481E+03 -5.99209E+03  3.75236E+03 -6.81564E+02  1.45685E+03  2.61779E+03
  2.97298E+03 -4.32841E+02  1.46301E+03  1.71990E+03  2.42620E+03  5.41146E+02 -5.49904E+03  2.50048E+03
 -1.12406E+03  3.27510E+02 -1.82361E+03 -3.73453E+03 -1.07441E+03 -7.73695E+03  5.77594E+02 -4.68871E+03
  5.38247E+03 -1.37483E+03  2.59919E+03  6.41969E+02  1.23986E+03  3.19378E+03  2.39643E+02  4.27827E+02
  7.59340E+03  2.32056E+03 -3.87515E+03  4.45093E+03  4.26037E+03  1.79289E+03  8.29810E+02  3.49653E+02
 -2.06836E+03 -5.04944E+02 -1.35918E+03  1.49621E+02  2.73310E+03  8.56262E+01 -9.84870E+02  6.78799E+02
  1.07759E+03 -4.38995E+03  2.37738E+03 -6.68206E+03  2.80348E+03 -1.11329E+03 -1.04414E+03  9.21009E+02
 -8.74900E+02 -2.15139E+03  2.21866E+03  1.66409E+03  2.18110E+03  1.51660E+03 -1.91961E+03  2.56459E+03
 -1.05871E+03 -3.33718E+03 -3.07951E+03 -5.62552E+03  1.60165E+03 -1.80851E+03  8.96750E+02 -1.60518E+03
  2.17100E+03  2.90393E+03  1.81860E+02 -3.85028E+02  3.43071E+03  2.00036E+03  4.56881E+03  2.50511E+03
 -1.80606E+02 -1.95113E+03 -1.12816E+03  3.94459E+03 -4.18038E+03  4.75724E+02 -1.28303E+03  5.56895E+03
 -2.91712E+03  2.79699E+03  1.28299E+03  2.10067E+03 -3.35120E+03 -1.29591E+03  2.32822E+02  1.96700E+03
  5.97055E+02  2.90078E+02 -1.36397E+03  1.72851E+02 -1.79133E+03 -1.50928E+03 -2.56262E+03 -1.81044E+03
 -1.89431E+03 -8.40568E+02 -4.95540E+03 -2.19552E+03  2.07127E+02  1.72927E+02  2.55726E+02 -1.20932E+03
  4.68924E+01  2.64107E+03 -5.84313E+02  2.37200E+02 -1.96236E+02 -4.97208E+02  3.89386E+02 -1.78588E+03
 -1.72628E+03 -1.53311E+03  1.10255E+03  1.90200E+03 -3.08626E+03 -1.10867E+03  2.26104E+03 -1.64399E+03
  1.25271E+03  7.81511E+02  1.86178E+03 -2.79230E+03  3.08265E+03  2.74053E+03  1.99616E+03  3.63580E+02
 -1.58040E+03  2.38344E+03 -1.37360E+03  4.64749E+03 -1.82817E+03 -2.41997E+03 -1.73252E+03 -1.21109E+03
  1.43016E+03  2.34825E+02  4.72594E+03  7.12336E+02  4.95993E+02  4.05372E+03  4.59452E+03 -2.65453E+03
 -3.23061E+03 -3.17729E+03  6.28907E+02 -9.91699E+02  1.38603E+03  1.40913E+03 -1.16648E+03 -2.44755E+03
  7.99882E+01  1.98350E+03 -3.00322E+03  1.68435E+03  2.09219E+02 -1.36964E+03  1.08463E+03  2.75981E+03
  4.58228E+03 -1.28674E+03  2.89158E+03 -5.04692E+03  4.10119E+01 -2.13843E+03  2.57402E+03  1.84681E+01
  2.02570E+03  1.85634E+03  9.41667E+02 -1.59922E+03 -2.42241E+02 -5.32122E+02 -1.20344E+02  3.97203E+03
  2.75287E+03  7.34742E+02  7.18734E+02  1.15412E+02  1.43305E+03  3.54669E+03  5.84435E+02  1.55068E+03
 -4.27841E+02  2.21269E+03 -1.20235E+03 -2.10620E+03  8.26613E+02 -1.49755E+02 -1.93281E+03 -5.28246E+03
 -1.45179E+03  2.67922E+03  2.89054E+03 -1.30673E+02 -6.91633E+02 -2.41857E+03 -4.79472E+02  1.81286E+03
 -1.23072E+03  2.49758E+03 -4.68550E+03 -1.69756E+03 -2.00864E+03  4.42592E+02 -2.44637E+03 -1.98943E+03
 -7.45160E+02  3.16122E+03 -1.71558E+03  3.66531E+02  3.27860E+02 -3.25376E+03  5.60944E+02  3.58636E+03
  6.79441E+02  1.60608E+03 -2.38527E+03  2.72764E+03 -2.35070E+03  3.65642E+03  1.72616E+03 -1.47425E+03
  2.06581E+02 -3.02943E+02  1.04859E+03 -2.25915E+03  2.44674E+02  4.33637E+03 -1.57869E+03 -7.15800E+02
 -4.37120E+03 -1.94638E+03 -2.03494E+03  2.21053E+03 -7.22169E+02 -1.41725E+02 -1.66839E+02 -1.62184E+03
  1.05638E+03 -2.40054E+03 -1.28760E+03  6.56898E+02  6.93286E+02  5.83160E+02  7.06106E+02  2.35341E+03
  5.68252E+03 -2.80481E+03 -3.21455E+03  4.25824E+02  5.18285E+03  5.20428E+03 -2.70651E+03 -4.87860E+02
  7.99364E+02 -3.85125E+03 -8.12597E+02  4.20456E+02 -1.99089E+03 -8.85350E+02 -5.30053E+02 -1.48652E+03
  1.12203E+03  2.45871E+03  3.00085E+02  8.87777E+02 -3.47599E+02  4.99560E+03  3.37251E+02 -2.76796E+02
  2.81963E+03  3.35823E+03  1.50475E+03 -2.45348E+03 -2.37804E+03  7.58312E+02  1.55177E+03  1.39664E+03
