 $NMID ID='MM_0lb_SNR50_8hz_g50_96.RAW', FMTDAT='(8E13.5)'
 TRAMP=1., VOLUME=1. $END
  3.10909E+05 -1.69803E+03  3.39056E+05  2.55209E+05  9.00459E+04  3.37591E+05 -1.34184E+05  2.52960E+05
 -1.93279E+05  8.74128E+04 -1.12796E+05 -3.08921E+04  7.37112E+02 -4.79529E+04  4.32624E+04 -3.52855E+03
  4.02176E+04  5.23420E+04 -1.77434E+04  7.41518E+04 -6.24000E+04  6.99891E+04 -8.51224E+04  3.52563E+04
 -8.22520E+04 -9.46513E+03 -5.72577E+04 -5.23481E+04 -1.77392E+04 -6.35442E+04  3.95989E+04 -4.69268E+04
  3.79073E+04 -1.22789E+03  1.75376E+04  4.79931E+04 -3.53597E+04  4.84209E+04 -7.15418E+04  2.92173E+03
 -6.26309E+04 -5.69879E+04 -5.22196E+03 -7.85393E+04  3.46817E+04 -5.32404E+04  5.59344E+04 -1.48602E+04
  4.50993E+04  6.64518E+03  3.14507E+04  3.25364E+04  2.05390E+04  3.84467E+04 -4.61045E+03  2.68885E+04
 -2.51736E+04  1.40704E+04 -1.93346E+04 -7.13507E+03  9.31420E+03 -6.81588E+03  2.65146E+04  1.53073E+04
  9.45048E+03  3.75516E+04 -3.18917E+04  4.00175E+04 -6.43356E+04  1.11006E+04 -5.84835E+04 -4.73630E+04
 -1.17601E+04 -7.08678E+04  3.35449E+04 -5.21175E+04  5.83807E+04 -6.70802E+03  4.23236E+04  3.75890E+04
 -4.70065E+03  4.54833E+04 -3.52704E+04  1.45205E+04 -3.75025E+04 -9.01649E+03 -1.66868E+04 -5.90153E+03
 -1.10995E+04 -1.54062E+04  1.48854E+03 -1.09876E+04  5.61282E+03 -2.63696E+04  8.26668E+03 -1.16224E+04
  1.21368E+04  6.43451E+03 -7.21445E+03  1.74425E+04 -2.25746E+04 -8.19740E+03 -1.05895E+04 -4.26163E+04
  3.29950E+04 -5.21371E+04  4.73475E+04 -2.00120E+04  5.01906E+04  2.02234E+04  1.44421E+04  5.01614E+04
 -1.56902E+04  3.61606E+04 -1.99629E+04  8.56548E+03 -1.34457E+04 -2.95679E+04  1.66987E+04 -2.80711E+04
  4.28017E+04 -1.11361E+04  3.92202E+04  2.63074E+04  2.20913E+04  4.83889E+04 -4.33345E+03  5.96683E+04
 -4.34198E+04  4.35779E+04 -5.51738E+04  1.52139E+04 -5.04718E+04 -1.50133E+04 -2.33523E+04 -5.03099E+04
  6.10045E+03 -3.72968E+04  4.09876E+04 -2.20847E+04  2.86298E+04  1.01583E+04  6.07277E+03  2.01768E+04
 -1.71740E+04  1.07929E+04 -4.72038E+03 -1.03568E+04  1.01327E+04 -6.73182E+03  2.03768E+04  5.19439E+03
  1.44150E+04  2.01250E+04 -7.07845E+03  2.22455E+04 -2.41492E+04  1.34136E+04 -3.41999E+04  1.52406E+03
 -3.37595E+04 -1.19687E+04 -8.93358E+03 -2.97566E+04  9.57863E+02 -2.90040E+04  2.44956E+04 -2.73982E+04
  2.52821E+04 -1.07188E+04  4.51268E+04  2.72262E+01  2.78252E+04  2.46817E+04  1.95070E+03  4.51189E+04
 -1.78128E+04  3.44116E+04 -3.70603E+04  1.40479E+04 -2.52408E+04 -1.22066E+04 -7.44524E+03 -1.34967E+04
 -3.73702E+03  4.35300E+03 -5.11983E+03  4.41458E+03 -2.34748E+04  8.11893E+03 -2.16727E+04 -1.25475E+04
 -6.59586E+03 -2.49947E+04  7.66123E+03 -2.70114E+04  1.99869E+04 -2.41978E+04  2.29464E+04 -7.24032E+03
  2.01754E+04  9.32004E+03 -4.45210E+03  2.61064E+04 -1.40032E+04  7.83938E+03 -2.41267E+04 -5.24635E+03
 -1.05713E+04 -2.10237E+04  4.36546E+03 -2.44587E+04  1.61030E+04 -2.81769E+04  2.83926E+04 -1.25633E+04
  2.40443E+04 -5.06716E+03  1.67372E+04  4.07247E+03  5.49408E+03  4.33154E+03  1.45370E+04 -7.32867E+03
  2.66765E+04  4.78832E+03  2.63074E+04  2.56643E+04  1.36827E+04  3.82694E+04 -3.69753E+03  3.86643E+04
 -3.00736E+04  4.06535E+04 -5.03535E+04  1.64713E+04 -5.14632E+04 -5.02636E+03 -3.56588E+04 -2.90423E+04
 -1.21487E+04 -4.66779E+04  2.34151E+04 -2.39609E+04  3.18758E+04 -1.14436E+04  3.04010E+04  6.90387E+03
  9.89450E+03  1.82932E+04 -5.22965E+02  1.77935E+04 -2.12349E+04  6.05353E+03 -1.03376E+04 -7.16506E+03
 -1.34836E+03 -2.28323E+04  9.57518E+03 -1.46265E+04  1.16446E+04 -4.38214E+03  3.21420E+03  6.30136E+03
 -3.66875E+02  5.17575E+03 -4.90823E+03 -1.24048E+04 -4.78093E+03 -1.78107E+04  1.33618E+04 -1.96021E+04
  3.25336E+04 -1.56888E+04  2.70761E+04  2.38432E+03  2.45371E+04  1.65522E+04  1.42244E+04  2.24856E+04
 -7.87308E+03  3.29096E+04 -2.16675E+04  2.28991E+04 -2.74570E+04  9.50928E+03 -1.00643E+04 -9.03007E+03
 -7.44010E+03 -6.78954E+03  3.18668E+03 -4.65220E+03 -6.45552E+03  9.49813E+03 -7.75184E+03  1.07947E+04
 -1.61078E+04  4.89770E+02 -7.65959E+03 -1.27048E+04 -3.38199E+03 -2.36298E+04  9.10544E+03 -2.28191E+04
  1.00837E+04 -8.13178E+03  1.27953E+04  7.46580E+03 -4.44181E+03  7.93009E+03 -1.32619E+04 -3.71867E+03
 -7.92096E+03 -7.67631E+03  9.26812E+02 -1.29569E+04  1.03100E+04 -1.55807E+04  2.28644E+04 -8.08731E+03
  2.42141E+04 -1.12953E+03  1.52782E+04  1.43097E+04  4.88331E+03  1.40191E+04 -1.09609E+04  1.33400E+04
 -1.31047E+04  4.22851E+03 -4.48475E+03 -1.64006E+03  2.42023E+03 -4.48911E+03  1.58306E+04 -1.10172E+03
  1.24419E+04  5.23659E+03  5.86273E+03  1.43015E+04 -1.26677E+04  6.20021E+03 -2.59563E+04 -3.62530E+03
 -1.11301E+04 -6.34184E+03 -3.00554E+03 -9.66684E+03  8.80530E+03 -5.38538E+03  1.20722E+04  3.23952E+03
  1.03027E+04  1.21948E+04 -9.23227E+03  1.33894E+04 -2.16783E+04  5.14951E+03 -1.51635E+04 -1.22057E+04
 -3.18888E+03 -1.99430E+04  6.48670E+03 -1.23142E+04  1.14878E+04 -8.03209E+03  2.00771E+04  4.51134E+03
  1.33749E+04  1.53830E+04  4.67411E+03  1.36093E+04 -1.16914E+04  1.03740E+04 -1.29051E+04 -2.97352E+03
 -1.23752E+04 -8.97193E+03  5.44390E+02 -1.97326E+04  4.34150E+03 -8.48748E+03  9.74171E+03 -8.87964E+03
  1.82148E+02 -1.40256E+03  8.39277E+02  5.44954E+03 -2.34011E+03  1.23907E+03  1.97156E+03 -1.05832E+04
  1.29892E+04 -2.53531E+03  1.88004E+04  2.13422E+03  1.76035E+04  1.18712E+04  1.01835E+04  2.73658E+04
 -5.67241E+03  2.14592E+04 -2.44857E+04  1.67496E+04 -2.02544E+04  1.17154E+03 -2.31812E+04 -5.62083E+03
 -1.01288E+04 -2.45755E+04  1.91257E+03 -2.06408E+04  1.34018E+04 -1.36552E+04  3.17837E+03 -1.11314E+04
  2.81981E+03 -2.44396E+03  2.40416E+03 -8.56509E+03  7.17950E+03 -2.62744E+03  1.04518E+04 -1.24221E+03
  7.94499E+03  9.71268E+03  7.13472E+03  8.41743E+03 -7.22404E+03  1.62895E+04 -1.16517E+04  1.15981E+04
 -2.02658E+04 -1.55757E+03 -5.46632E+03 -7.73217E+03  6.77117E+03 -2.04880E+04  9.10736E+03 -1.96614E+04
  8.29237E+03 -1.26545E+04  1.97693E+04  7.88272E+03  1.56628E+04  1.31646E+04 -5.39207E+03  2.08630E+04
 -9.57662E+03  2.47288E+04 -1.26992E+04  4.39936E+03  4.20886E+02 -7.44656E+03 -3.41432E+03  2.32294E+03
 -1.23115E+03 -1.84095E+03 -6.73065E+03  4.01233E+03 -4.86595E+03  2.42947E+02 -1.20115E+04  1.67824E+03
 -9.23320E+03 -1.22269E+04  2.15228E+03 -8.38134E+03  1.16281E+04 -1.34189E+04  2.46706E+04 -6.39915E+03
  1.64447E+04  1.02973E+04  1.19770E+04  1.47692E+04  5.69200E+02  2.30706E+04 -1.39003E+04  4.91649E+03
 -1.32514E+04  1.42015E+03 -8.63039E+03 -1.07937E+04 -2.50852E+03 -2.39472E+04  5.40578E+03 -1.19129E+04
  1.82709E+04 -1.38165E+03  7.30275E+03  3.33320E+03  1.57820E+03  5.13380E+03  2.14810E+03  3.40206E+03
  2.84478E+02  2.64820E+03  8.53386E+03  2.63224E+03  5.63943E+03  5.75779E+03  7.94145E+03  7.24830E+03
 -2.46152E+03  9.15794E+03 -4.09760E+03  1.66613E+04 -1.91723E+04  1.06584E+03 -1.79715E+04 -6.59259E+03
 -7.27423E+03 -1.95822E+04  4.87450E+02 -1.93651E+04  9.24795E+03 -1.18330E+04  2.37745E+04 -3.27056E+03
  1.54450E+04  5.58793E+03 -4.43136E+03  1.57023E+04 -5.43951E+03  9.56597E+03 -4.24718E+03 -8.28582E+03
 -8.27020E+03 -3.85768E+03  2.82278E+03 -8.21191E+03  5.63372E+03 -8.72780E+02  4.26980E+03  9.24149E+03
  5.78124E+03  4.79352E+03  2.35931E+02 -6.87848E+02  2.88845E+03  4.43696E+03  1.12634E+03  7.96094E+02
  6.24568E+02 -6.77019E+03  5.28329E+03  2.07992E+03  8.99498E+03  1.32083E+04 -3.02794E+03  1.58264E+04
 -1.21169E+04  7.67342E+03 -2.90822E+03 -1.93310E+03 -6.27953E+03 -5.21822E+03 -6.56075E+03 -4.60098E+03
  3.45993E+03 -1.54450E+04 -1.07506E+03 -1.19981E+03  2.13424E+03  1.60996E+03  1.80422E+03 -1.71535E+03
 -3.67056E+03 -4.57980E+02 -5.43272E+03 -1.04499E+04 -6.43526E+03 -1.57502E+04  2.21200E+03 -1.29435E+04
  5.66941E+03 -9.41703E+03  5.44127E+03 -5.52350E+03  9.55923E+03  2.14393E+03 -1.07983E+03  5.22487E+03
 -8.36749E+03 -5.43873E+03  5.21323E+03 -4.34540E+03  5.51519E+03 -2.58319E+03  5.74193E+03 -9.56963E+03
  1.59012E+04  4.38216E+03  7.85483E+03  6.71656E+03 -1.20991E+03  1.25234E+04 -1.51864E+03  8.34558E+03
 -8.18663E+03 -1.31749E+03 -1.28968E+04 -6.75963E+03 -4.25452E+03 -5.41472E+03  2.82883E+02 -6.95563E+02
  1.04350E+04  8.32823E+02  7.71042E+03 -1.69090E+02  3.03637E+03  5.94824E+03  3.28338E+03  6.66356E+03
 -1.83433E+03  1.03222E+02 -3.78603E+03  5.95903E+03 -6.46411E+02 -1.44173E+03 -2.73391E+03  8.30445E+03
 -1.05219E+03  9.66070E+03 -9.10288E+03  8.03215E+03 -7.62663E+03 -5.61399E+02 -1.22329E+04 -5.11828E+03
 -4.12812E+03 -1.57589E+04  3.99514E+03 -1.56047E+04  6.41475E+03 -1.43236E+04  1.46263E+04 -6.91640E+03
  1.60709E+04 -4.96648E+03  8.08261E+03  6.28162E+03  8.63300E+02  8.71038E+03 -7.46511E+03  1.29485E+04
 -3.87837E+03 -6.94936E+02 -7.72683E+03  3.65211E+03  5.96214E+02  4.83924E+03  3.10625E+03 -2.47862E+03
 -7.41409E+03  1.65611E+03 -3.08324E+03 -2.92734E+03  1.04320E+03 -1.12490E+04  2.96433E+03 -4.79566E+03
  2.11451E+03 -8.18329E+03  1.04401E+04  4.45819E+03  6.94788E+03  5.16363E+03  4.83628E+03  6.20611E+03
 -5.72174E+03  1.51710E+04 -1.28710E+04  9.67713E+03 -1.54472E+04  2.18510E+03 -1.07290E+04 -1.13214E+04
 -5.19746E+03 -1.86723E+04  1.36620E+04 -8.81379E+03  7.02467E+03 -4.94740E+03  1.32278E+03 -8.80317E+02
  7.16024E+03  4.42680E+03  8.92536E+02 -6.74345E+03 -1.08053E+04 -2.60047E+03 -5.11750E+02 -2.19530E+03
  8.58888E+03  1.67875E+03  5.09946E+03  7.35540E+03 -3.09981E+02  4.78966E+03  1.58014E+03  3.02630E+03
  1.50621E+03  4.25556E+03 -4.43184E+03  1.43562E+03 -9.39146E+03 -5.18368E+03  5.22227E+02 -7.41554E+03
  7.95927E+03 -3.18464E+03  1.57287E+04 -1.57753E+03  1.08894E+04  6.87610E+03  8.68643E+03  4.58879E+03
  1.86891E+03  7.26518E+03 -2.45810E+03  1.02731E+04 -5.79589E+03  2.72847E+01 -9.04916E+03 -7.63992E+03
 -4.28549E+03 -3.03258E+03 -1.03005E+03  7.74502E+03 -4.62696E+03  1.55851E+03 -5.36497E+03 -1.73385E+03
 -5.79102E+03 -7.44894E+03 -7.80598E+03 -3.24390E+03  4.19781E+03 -1.15418E+04  9.68554E+03 -3.79625E+03
  2.18592E+03  3.03160E+03  5.94113E+03  8.08305E+03 -4.78912E+03  1.25771E+04 -8.23549E+03  8.70093E+03
