 $NMID ID='MM_0lb_SNR50_20hz_g55_97.RAW', FMTDAT='(8E13.5)'
 TRAMP=1., VOLUME=1. $END
  3.09973E+05 -1.33383E+03  3.37816E+05  2.48762E+05  8.66483E+04  3.39025E+05 -1.34890E+05  2.52474E+05
 -1.92684E+05  8.19019E+04 -1.12510E+05 -3.27963E+04  9.88466E+02 -4.86417E+04  5.04340E+04 -1.95150E+03
  3.28145E+04  4.98954E+04 -1.35675E+04  7.54440E+04 -5.99128E+04  6.46780E+04 -8.51865E+04  3.40505E+04
 -8.04210E+04 -1.41887E+04 -5.48866E+04 -4.99340E+04 -2.09663E+04 -7.15867E+04  2.50063E+04 -4.86829E+04
  3.63931E+04  9.16424E+03  1.09862E+04  4.95848E+04 -3.32851E+04  4.94861E+04 -6.71789E+04  1.18043E+03
 -5.05394E+04 -5.54322E+04 -2.41207E+03 -7.32934E+04  3.37716E+04 -5.38680E+04  4.37807E+04 -1.59017E+04
  4.44335E+04  7.62166E+03  3.05961E+04  2.58690E+04  1.50119E+04  2.68023E+04 -3.22080E+03  2.61238E+04
 -2.13600E+04  8.88632E+03 -1.65278E+04 -3.62828E+03  9.58592E+03 -5.67523E+03  1.86432E+04  1.22732E+04
  5.61643E+03  3.34921E+04 -3.25478E+04  3.36402E+04 -5.77602E+04 -5.83049E+01 -5.75091E+04 -4.03822E+04
 -1.17632E+04 -6.21177E+04  3.71827E+04 -4.87260E+04  5.47424E+04 -3.38230E+03  3.39942E+04  3.19212E+04
 -8.84053E+03  2.77993E+04 -2.79303E+04  1.19308E+04 -2.48589E+04 -6.19762E+03 -1.41553E+04 -9.54287E+03
 -9.42237E+03 -1.21068E+04  7.00322E+02 -1.36859E+04  6.48309E+03 -2.44786E+04  1.00580E+04 -1.31580E+04
  1.52988E+04  4.08429E+03 -1.30996E+04  1.14777E+04 -1.97317E+04  5.33015E+02 -7.67593E+03 -3.05427E+04
  2.35348E+04 -4.30518E+04  4.07688E+04 -2.00814E+04  4.27024E+04  1.40304E+04  1.81844E+04  3.82943E+04
 -1.54726E+04  3.03436E+04 -2.26031E+04 -3.17811E+03 -7.87230E+03 -2.64567E+04  1.99711E+04 -3.56607E+04
  3.70754E+04 -3.21380E+03  3.23612E+04  2.34487E+04  1.44159E+04  4.43426E+04 -7.42734E+03  4.22997E+04
 -2.51160E+04  2.98216E+04 -3.48601E+04  4.29631E+03 -3.76733E+04 -1.18147E+04 -2.02689E+04 -3.46389E+04
  8.19604E+03 -3.38798E+04  3.07049E+04 -1.23636E+04  2.71057E+04  7.80029E+03  4.62606E+02  2.01834E+04
 -1.29165E+04  6.01739E+03 -1.00180E+04 -7.01028E+03  7.77827E+03 -1.41033E+04  2.20473E+04  7.39880E+03
  9.50096E+03  2.13584E+04 -4.49543E+03  2.12212E+04 -1.99824E+04  1.05329E+04 -2.26892E+04 -2.40929E+03
 -1.56142E+04 -1.85934E+04 -4.26813E+03 -1.66114E+04 -2.62371E+02 -1.21708E+04  1.29482E+04 -1.22409E+04
  2.29536E+04 -8.89238E+03  2.64587E+04  1.28575E+03  2.10445E+04  1.67059E+04  6.48211E+03  3.64033E+04
 -1.79625E+04  2.60200E+04 -2.62701E+04  1.04891E+04 -2.09710E+04 -1.00107E+04  6.65121E+02 -1.51828E+04
  6.60551E+03  1.15518E+03 -3.81493E+03  4.02952E+03 -1.02251E+04  8.49660E+03 -1.36742E+04 -4.79092E+03
 -7.92195E+03 -1.75829E+04  1.47698E+03 -1.77895E+04  1.06720E+04 -1.39764E+04  1.31743E+04 -9.75669E+02
  9.75549E+03  1.57710E+04 -4.71175E+03  1.83518E+04 -7.70264E+03  1.17610E+04 -1.51256E+04 -5.01606E+03
 -1.00572E+04 -1.68040E+04 -2.25598E+03 -1.84642E+04  1.45785E+04 -1.49640E+04  1.34565E+04 -6.54252E+03
  1.42722E+04  4.23623E+03  1.00334E+04  3.27256E+03  4.04749E+03  1.25572E+03  5.06866E+03  8.07447E+02
  1.24443E+04  2.86585E+03  1.46766E+04  1.18788E+04  9.23659E+03  2.21422E+04 -5.33360E+03  2.55219E+04
 -1.61399E+04  2.26845E+04 -2.23298E+04  1.13845E+04 -2.70814E+04 -2.86590E+03 -2.27383E+04 -1.52452E+04
 -8.82173E+03 -1.84045E+04  4.38544E+03 -2.08144E+04  1.29853E+04 -1.22033E+04  1.55415E+04  5.30720E+03
  7.46125E+03  6.57475E+03 -5.70819E+03  1.33388E+04 -1.19440E+04  2.72908E+03 -9.33290E+03 -4.30719E+03
  1.61917E+03 -1.27393E+04  6.23238E+03 -1.08717E+04  1.28729E+04  2.63680E+03 -1.29010E+03  1.13570E+03
 -3.95351E+03 -2.08954E+02 -3.40306E+03 -5.12211E+03  6.04523E+02 -1.17442E+04  6.47658E+03 -1.20500E+04
  9.51725E+03 -5.82650E+03  8.44697E+03  2.50721E+03  1.16884E+04  9.82376E+03  5.90525E+03  1.33146E+04
 -2.16923E+03  1.43503E+04 -1.01486E+04  8.96524E+03 -6.95536E+03  1.72271E+03 -3.58502E+03 -2.43844E+03
 -7.41840E+03 -2.49152E+03  1.74401E+03  5.58829E+03 -3.04458E+03  2.79849E+03 -6.48390E+03  2.35978E+03
 -7.40929E+03  8.61232E+02 -1.16610E+04 -8.88914E+03 -4.20061E+03 -1.30953E+04  1.75333E+03 -1.34000E+04
  8.33033E+03 -5.95050E+03  9.82875E+03  2.55058E+03  3.19419E+03  3.52250E+03 -3.72950E+03  8.32073E+02
 -1.58694E+02 -1.97484E+03 -2.73728E+03 -3.18872E+03  3.93196E+03 -1.29840E+03  9.86623E+03  1.68674E+03
  9.29737E+03 -3.27358E+02  8.19689E+03  6.81011E+03  2.26677E+03  8.16787E+03 -5.86525E+03  7.41756E+03
 -9.44072E+03  1.85494E+03 -7.40473E+03 -5.09044E+03  3.27300E+03 -1.88696E+03  5.21203E+03 -3.29392E+03
  1.16528E+03  9.23762E+03 -8.63880E+02  7.95937E+03 -1.70678E+03  6.87816E+03 -6.31764E+03  1.88455E+03
 -7.45726E+03 -2.66994E+03 -8.16701E+02 -8.29579E+03  2.69420E+03 -1.98685E+03  4.68314E+03 -2.87871E+03
  3.52736E+03  2.47294E+03 -4.00080E+03  3.27274E+03 -4.77833E+02  3.89930E+03 -1.66986E+03 -2.43776E+03
 -4.12664E+03 -6.85287E+03 -2.23435E+03 -7.87136E+03  3.38170E+03 -3.65497E+03  6.68261E+03  6.51717E+01
  3.87774E+03  5.49014E+03  4.85379E+03  6.18246E+03 -3.69331E+03  1.96166E+03 -5.07558E+03 -2.56059E+03
 -9.60874E+03 -7.01250E+03 -1.12335E+03 -4.32727E+03  1.44614E+03 -7.48334E+03  3.04252E+03 -1.04811E+03
  3.12808E+03  1.30473E+03  2.60999E+03 -6.83760E+02  1.11897E+03 -2.45774E+03 -4.82605E+03 -9.92365E+02
  3.77440E+03  2.80082E+03  3.33816E+03 -2.06440E+02  6.52056E+03  4.87148E+03  9.22718E+03  3.32711E+03
 -2.61949E+03  6.63247E+03 -5.39935E+03  1.90947E+03 -1.06106E+04 -8.15416E+01 -6.60780E+03  2.08861E+03
 -6.59040E+03 -4.15366E+03 -3.92714E+03 -6.53029E+03  1.60714E+03  1.75003E+03  1.24101E+03 -1.65197E+03
  2.00703E+03  3.57343E+03  5.32063E+03 -7.55339E+03  7.07416E+03 -2.68143E+03  7.24670E+03 -1.11121E+03
  6.38759E+03  3.04935E+03 -1.31394E+03  2.16482E+03 -4.33217E+03  1.41789E+03 -1.54435E+03  2.58514E+03
 -5.46454E+03 -9.20424E+02  1.50150E+03 -7.53295E+02 -8.50110E+02 -6.30909E+03 -2.96281E+02 -6.04582E+01
  3.86199E+03 -3.24132E+03  4.59323E+03 -4.17188E+03  8.43748E+03  4.29842E+03  2.08292E+02  8.22242E+03
 -3.46142E+03  4.43139E+03 -2.73326E+03  3.55929E+03 -7.84097E+02  1.77160E+03 -9.94254E+02 -6.98993E+02
  1.34935E+02  1.58564E+03  4.74470E+02  3.11902E+03 -3.72985E+03  1.17529E+03 -2.20138E+03  5.65704E+02
 -1.42363E+03 -3.03294E+03 -7.73120E+02 -6.94637E+03 -1.38469E+03 -3.49419E+03  2.15536E+03 -2.80901E+03
  2.14384E+03  2.49849E+03  3.47424E+02  9.16867E+02 -1.64144E+03  4.92310E+03  3.91439E+03  3.54817E+03
 -1.37569E+03 -4.35224E+03 -4.52080E+03 -1.19537E+03 -3.43114E+03  1.74662E+03  1.37026E+02  3.55687E+03
  3.34494E+03  5.55123E+03  4.14101E+03  2.53676E+03  1.86347E+03  1.03985E+03 -1.49807E+03 -4.15494E+02
  2.24260E+03 -3.14245E+03  6.42661E+02 -1.03132E+02  1.75782E+03  2.97363E+03  3.15320E+03  1.34807E+03
 -7.93368E+02  1.87347E+03 -2.57574E+03  3.42408E+03 -7.08077E+02  1.43550E+02 -8.22999E+03 -1.08161E+03
  1.09236E+03 -1.60741E+03 -2.26522E+03 -3.91951E+03  1.37466E+03  1.04818E+02  3.42261E+02 -9.18409E+02
  7.39863E+02  2.41407E+03 -7.02596E+02  1.30746E+03  1.74758E+03  1.36810E+03 -4.20449E+03 -2.75482E+03
 -9.32616E+02 -3.26419E+03  4.78177E+02  5.22511E+03  2.21335E+03 -3.19835E+03 -7.59884E+02 -4.02209E+02
 -2.69144E+03 -2.76410E+03  2.56065E+02  1.50373E+03  2.06046E+03  3.34153E+02 -1.47404E+03  3.82618E+02
 -8.62205E+02  5.75343E+02  3.73054E+03 -3.01292E+03 -1.35126E+02  8.00357E+02 -1.73377E+02  8.31159E+02
 -8.23164E+01 -3.97993E+02 -7.38390E+03 -1.11903E+03 -3.12496E+03 -1.05202E+03  3.54376E+03  1.53177E+03
  6.43516E+02 -3.41700E+03  1.94062E+03 -2.55884E+03  2.57285E+03  1.81707E+03  2.45008E+02 -3.20436E+02
 -5.07881E+03  3.86500E+03 -1.34306E+03  1.41664E+02  4.25355E+02  2.87346E+03 -3.18959E+03 -1.67456E+03
  1.24691E+03 -1.77448E+03  4.06965E+03  5.25052E+02 -3.08746E+02  3.29602E+03  1.65183E+02  6.31126E+02
  1.14328E+02 -1.99897E+03 -3.75687E+02  5.18141E+02  6.13131E+03  1.18500E+03 -1.32201E+03 -4.97868E+03
  4.15321E+02 -1.22209E+03  2.20110E+03  3.51387E+03  2.50167E+03  1.84079E+02  2.04771E+03  5.22917E+03
 -1.91470E+02 -2.24783E+03 -2.16016E+03 -1.44925E+03  1.46853E+03 -2.74470E+02  7.42390E+03 -9.39797E+02
  3.16006E+03 -1.57317E+03  2.83505E+03 -4.84617E+02  2.71827E+03  7.26824E+02 -5.55666E+02  4.98351E+03
  4.62913E+02 -7.86124E+02  7.09937E+02 -1.87369E+03  5.18360E+03  4.10305E+03 -1.96214E+03  1.49123E+03
 -1.32331E+03 -1.59907E+03 -4.82857E+03 -5.66164E+02 -2.43620E+03 -2.95605E+03 -2.31512E+03  1.17167E+03
 -2.87855E+03 -2.22316E+03 -3.19997E+03 -7.32180E+02  4.85258E+03 -1.21336E+03 -6.58828E+02 -3.76607E+03
  3.93406E+03  1.07800E+03  3.04046E+03  1.22129E+03 -4.38521E+02 -1.56683E+03  3.00594E+03 -1.37019E+03
  3.51612E+03  1.06298E+03  2.52906E+03  5.41308E+02 -3.88172E+03 -2.83224E+03 -5.16746E+02 -2.25349E+03
  6.66773E+02 -6.75752E+02 -8.12263E+02 -1.41751E+03  3.09916E+03  3.25666E+03 -5.49138E+02 -4.24253E+03
  1.57708E+03  7.80797E+02 -1.31042E+03 -1.50769E+01  4.15219E+02  3.20804E+03 -1.04323E+03  5.05306E+02
 -6.63346E+02  3.20928E+03 -3.03294E+03 -1.46773E+02 -4.78554E+03 -1.74450E+02  4.23688E+02 -6.37429E+02
 -3.40447E+03  1.72595E+03  2.60403E+03  5.23835E+03  1.17528E+03  3.34481E+02 -5.59274E+02 -2.07624E+03
  2.25419E+03  2.07713E+03  3.39447E+03  2.21533E+03  2.23571E+02 -3.47056E+03 -3.87096E+02 -5.64701E+02
 -2.73887E+03 -1.80579E+03  6.86484E+02  1.64365E+03 -4.18439E+03  9.52740E+02 -2.79393E+03 -1.26681E+03
  2.57844E+03  4.40126E+02  2.22122E+03  2.59662E+03  3.10562E+03 -3.33031E+02 -1.12164E+03 -2.18148E+03
 -3.28966E+03  2.43466E+03 -1.84562E+03 -1.42813E+03  2.10407E+03 -1.11892E+03  1.33198E+03 -2.12692E+03
  2.74092E+03  3.77319E+02  2.19570E+03 -3.35995E+03  3.56202E+03  9.97459E+02  1.35993E+03  4.53049E+02
  2.66060E+03 -3.02589E+03  4.39339E+03  1.61834E+03  5.56969E+02 -1.87876E+02 -3.61323E+03 -2.10806E+03
  2.84496E+03 -9.32931E+02  6.67159E+02 -2.26937E+03 -1.58051E+03 -3.73777E+03 -1.48941E+03 -2.95925E+03
 -3.34975E+03  3.78400E+03  1.09532E+03  2.29066E+03  4.61240E+02 -1.50740E+03 -2.36987E+03  1.90376E+03
