 $NMID ID='MM_0lb_SNR50_9hz_g40_29.RAW', FMTDAT='(8E13.5)'
 TRAMP=1., VOLUME=1. $END
  3.08152E+05  6.62050E+02  3.40806E+05  2.51030E+05  9.23658E+04  3.44293E+05 -1.34980E+05  2.56239E+05
 -1.87899E+05  8.50086E+04 -1.16268E+05 -2.85296E+04  3.98701E+03 -4.61032E+04  5.32920E+04 -4.29255E+03
  3.84166E+04  5.35669E+04 -1.54108E+04  7.33300E+04 -6.06832E+04  6.09388E+04 -9.01405E+04  3.89151E+04
 -8.80465E+04 -1.36598E+04 -5.57373E+04 -4.92833E+04 -1.21637E+04 -7.13373E+04  2.03920E+04 -4.44874E+04
  3.74129E+04  4.52912E+03  1.68699E+04  4.59890E+04 -3.87253E+04  5.05690E+04 -6.70476E+04 -2.48524E+03
 -5.70689E+04 -5.40118E+04 -8.59726E+03 -8.18750E+04  3.45762E+04 -6.06929E+04  5.21289E+04 -1.84426E+04
  4.32512E+04  1.26405E+04  3.27478E+04  2.62109E+04  1.70362E+04  2.42382E+04 -6.24454E+03  2.30133E+04
 -2.51092E+04  1.85647E+04 -1.98822E+04 -9.07759E+02  1.02063E+04 -6.08660E+03  2.38310E+04  9.53432E+03
  1.09875E+04  3.99437E+04 -2.95379E+04  3.59910E+04 -6.15820E+04 -3.31494E+03 -5.93279E+04 -4.75792E+04
 -1.15564E+04 -7.45614E+04  4.39650E+04 -4.57266E+04  5.88914E+04  2.77322E+03  3.18570E+04  3.29300E+04
 -6.16717E+03  3.39674E+04 -3.03042E+04  1.72603E+04 -3.64294E+04 -5.87692E+03 -1.65844E+04 -9.73362E+03
 -6.02465E+03 -1.31511E+04 -9.15578E+02 -1.61901E+04  6.67508E+03 -1.84583E+04  1.66166E+04 -9.17582E+03
  1.22250E+04  3.93319E+03 -1.14894E+04  1.80301E+04 -2.37050E+04 -7.42417E+03 -3.59727E+03 -3.95953E+04
  2.48932E+04 -5.14572E+04  5.54801E+04 -2.10701E+04  4.01500E+04  1.84069E+04  1.84848E+04  4.46298E+04
 -2.05346E+04  3.56990E+04 -2.57597E+04  5.28062E+03 -9.65302E+03 -2.85263E+04  2.05156E+04 -3.89393E+04
  4.72200E+04 -1.23324E+04  4.66861E+04  2.11420E+04  1.77324E+04  5.68954E+04 -7.82982E+03  4.98818E+04
 -3.50579E+04  3.56714E+04 -4.42852E+04  8.98609E+03 -4.61661E+04 -2.09287E+04 -2.09421E+04 -4.42467E+04
  8.37726E+03 -4.45332E+04  3.93772E+04 -2.02401E+04  3.79968E+04  1.36003E+04  5.40096E+03  2.24358E+04
 -1.27220E+04  1.48775E+02 -1.20385E+04 -8.36828E+03  9.84139E+03 -2.30754E+04  2.45344E+04 -2.08274E+03
  1.56661E+04  1.92077E+04 -8.53233E+03  2.92791E+04 -2.10576E+04  1.59018E+04 -3.24140E+04 -3.67865E+03
 -1.94551E+04 -1.69600E+04 -6.64914E+03 -2.36325E+04  4.33600E+03 -2.27634E+04  1.76857E+04 -2.40715E+04
  2.97967E+04 -7.51914E+03  3.91035E+04  6.67735E+03  2.56673E+04  2.40075E+04  1.36661E+03  4.25421E+04
 -2.11006E+04  3.81494E+04 -3.13271E+04  1.13894E+04 -2.31130E+04 -1.13475E+04 -3.33716E+03 -1.54234E+04
 -2.34763E+03 -4.15523E+03 -7.52994E+03  8.62187E+03 -1.95845E+04  1.19762E+03 -2.23470E+04 -1.44536E+04
 -1.43128E+04 -2.62370E+04  6.28241E+03 -2.69305E+04  1.20037E+04 -1.75006E+04  2.25300E+04 -5.31617E+03
  1.22983E+04  1.54869E+04 -6.00595E+02  2.45158E+04 -2.23483E+04  1.19276E+04 -2.20811E+04 -4.01411E+03
 -1.34688E+04 -1.35201E+04 -1.63839E+03 -3.00927E+04  1.03368E+04 -2.60248E+04  2.32555E+04 -1.13117E+04
  1.69791E+04 -5.79816E+02  1.63301E+04  6.75413E+03  1.18055E+04  7.37456E+03  1.57467E+04 -4.75387E+03
  2.04424E+04  2.05709E+03  2.60776E+04  1.53349E+04  1.21284E+04  4.14247E+04 -3.06823E+03  4.28947E+04
 -1.98803E+04  3.40150E+04 -4.19338E+04  1.92308E+04 -4.32940E+04  4.60869E+03 -3.50644E+04 -2.40038E+04
 -1.11351E+04 -3.10116E+04  6.18675E+03 -3.85408E+04  3.11268E+04 -1.65656E+04  2.12388E+04  4.23904E+03
  1.46658E+04  1.71485E+04 -9.25397E+03  1.68440E+04 -1.58502E+04 -8.48249E+02 -1.73630E+04 -1.00336E+04
 -3.60625E+02 -2.14069E+04  8.53833E+03 -8.77237E+03  1.05106E+04  5.18533E+02  3.98690E+03  6.61802E+03
 -1.16932E+04  8.07608E+03 -4.38771E+03 -6.77982E+03 -3.03956E+02 -1.24584E+04  1.47020E+04 -2.13648E+04
  2.07358E+04 -1.00634E+04  2.02154E+04  4.82539E+03  2.13369E+04  2.28192E+04  1.01574E+04  2.24447E+04
 -1.06369E+04  2.70661E+04 -2.14349E+04  2.07002E+04 -2.35904E+04  2.61801E+03 -1.35111E+04 -2.31781E+03
 -7.12425E+03 -1.05482E+04 -4.97416E+03  5.01571E+03  3.45262E+03  2.83414E+03 -2.49327E+03  3.89803E+03
 -1.26173E+04 -5.76161E+03 -1.27516E+04 -1.00315E+04 -5.20803E+03 -1.65065E+04  8.83221E+03 -1.89182E+04
  1.40225E+04 -7.42444E+03  1.36127E+04  8.07706E+03 -3.00296E+03  4.49779E+03 -4.45871E+03  3.32246E+03
 -7.39737E+03 -1.21741E+04  7.30334E+02 -1.26747E+04  5.31978E+03 -1.45252E+04  1.79079E+04 -5.60114E+03
  2.22322E+04  3.54606E+02  1.63897E+04  2.34013E+04  4.29206E+03  1.59466E+04 -6.28775E+03  1.02665E+04
 -1.19001E+04  7.29433E+03 -6.38543E+03 -2.21476E+03  1.29022E+03 -7.85151E+02  7.02896E+03  2.80408E+03
  5.83518E+03  5.90906E+03  3.43237E+03  1.32553E+04 -1.26150E+04  1.05504E+04 -1.98041E+04  9.71418E+02
 -9.26789E+03 -9.18007E+03 -1.06913E+02 -1.22902E+04  8.33499E+03 -6.07569E+03  6.69506E+03  5.82920E+02
  5.27164E+03  1.13303E+04 -1.48872E+04  2.35043E+03 -1.40321E+04  6.77823E+03 -9.21392E+03 -2.33643E+03
 -9.28450E+03 -1.74103E+04  5.15442E+03 -1.11915E+04  1.11395E+04 -1.05524E+04  1.60647E+04  8.98245E+02
  9.83080E+03  1.60165E+04 -7.14806E+02  1.51333E+04 -8.14231E+03  1.48593E+04 -1.13013E+04 -5.05632E+03
 -7.66041E+03 -1.47801E+04 -3.80204E+03 -1.18160E+04  7.39327E+03 -1.06281E+04  1.73439E+04 -4.85447E+03
  8.56019E+03  9.29295E+03  1.92644E+03  1.04179E+03 -1.77617E+03 -9.90069E+03  2.06364E+03 -3.58330E+03
  4.34694E+03 -5.09796E+03  1.37370E+04  2.71723E+03  1.45272E+04  6.88884E+03  1.02213E+04  2.25403E+04
 -4.04435E+03  1.75916E+04 -1.67731E+04  1.95328E+04 -1.84745E+04  8.51215E+03 -2.24097E+04 -9.83660E+03
 -8.44883E+03 -1.23242E+04  3.22041E+03 -1.34340E+04  5.97197E+03 -6.81764E+03  2.47400E+03  4.22864E+02
  8.73760E+03 -2.34162E+03  1.21736E+04 -2.22663E+02  4.68803E+03  1.24462E+03  9.15456E+03  4.18264E+03
  9.20474E+03  6.97545E+03  4.79874E+03  8.76792E+03 -1.43448E+03  1.55991E+04 -9.36996E+03  1.00346E+04
 -9.42078E+03  2.90536E+03 -8.69841E+03 -1.13401E+04 -9.65830E+02 -2.16121E+04  8.71070E+03 -1.39562E+04
  1.35496E+04 -1.62411E+04  1.56083E+04 -1.28449E+03  8.10464E+03  1.01724E+04  4.26902E+03  1.97281E+04
 -1.00242E+03  1.24306E+04 -1.25601E+04 -2.36189E+02 -1.02016E+04  7.20904E+01 -5.48822E+03 -2.60352E+03
  8.50727E+02  3.69912E+03 -2.41519E+02  1.70440E+03  3.15192E+03 -3.46124E+02 -7.98473E+03 -1.68058E+03
 -1.26764E+04 -4.83233E+03 -3.32092E+03 -2.11094E+04  5.71429E+03 -1.07057E+04  1.22034E+04 -5.01812E+03
  2.27632E+04  7.42614E+03  3.66832E+03  1.81453E+04 -3.67734E+03  1.73349E+04 -9.37269E+03  7.21749E+03
 -1.42226E+04 -1.00174E+03 -6.24884E+03 -5.98142E+03 -2.76824E+03 -9.98627E+03  6.98246E+03 -1.02448E+04
  9.40286E+03 -9.26081E+03  7.18472E+03 -1.59692E+03  6.30656E+03  3.53994E+03  6.53360E+03 -1.82405E+02
  7.80609E+03 -9.06231E+02 -1.15074E+03  3.98006E+03  2.37937E+03  2.44136E+03  6.06385E+03  1.02784E+04
 -2.50291E+03  1.65802E+04 -8.86465E+03  8.55612E+03 -2.10784E+04 -1.97194E+03 -1.32548E+04 -4.58972E+03
  5.47587E+02 -1.28540E+04  6.99283E+03 -1.75658E+04  1.41088E+04 -7.60525E+03  9.10181E+03 -4.70015E+03
  5.82581E+03 -2.18920E+03  6.66343E+03  7.21566E+03 -9.35694E+03  6.45108E+03 -7.05215E+03 -1.70760E+03
 -2.11438E+03 -6.13889E+03  6.53875E+03 -7.12821E+03 -4.39954E+03 -7.01902E+03  4.08142E+03  8.77644E+02
  4.04546E+03 -6.65971E+01  8.30748E+02  7.22647E+03 -1.02639E+03  7.82038E+03  5.19165E+03 -6.24473E+03
  3.22601E+03  8.72474E+02  7.63870E+03 -2.31552E+03  6.68614E+03  4.08746E+03 -2.07288E+03  1.01071E+04
 -6.17309E+03  9.27098E+03 -1.69866E+04  2.09503E+03  2.57860E+03 -6.34333E+03  1.02664E+03 -5.90586E+02
  2.46638E+03 -6.98137E+03  7.01585E+03 -6.00934E+03  5.23703E+02  6.13911E+03 -3.49803E+03  3.88779E+03
 -6.29762E+03  4.27303E+03 -4.42909E+03 -5.21896E+03 -3.61117E+02 -5.32051E+03  8.53003E+02 -9.19335E+03
  6.70111E+03  2.29408E+03  3.82651E+03 -1.55615E+03 -5.08745E+02  2.36651E+03  6.45702E+03  3.30877E+03
  3.08813E+03  5.66990E+03 -7.27571E+03  2.89989E+02  3.97030E+03 -4.14113E+03  7.63698E+03 -1.05100E+04
  9.72711E+03 -6.68587E+01  6.02094E+03  8.05122E+03  2.82654E+03  1.61786E+04 -8.90928E+03  1.00323E+04
 -6.21058E+03  5.80844E+03 -1.97386E+00  4.48450E+02 -8.86900E+03 -6.91278E+03  1.86898E+03 -9.50279E+03
  8.61776E+03  8.74656E+02  1.02899E+03  8.65322E+02  2.98268E+02  3.61724E+03  4.26232E+02  3.44494E+03
 -2.82230E+03  5.77071E+03 -3.92092E+03 -3.95820E+02  1.76222E+03 -2.70207E+03 -5.67993E+03 -2.62808E+03
 -3.55863E+03  3.67993E+03 -6.50217E+03  4.26537E+03 -9.71228E+03  8.69814E+02 -5.93623E+03 -5.86780E+03
 -1.07521E+03 -1.14922E+04  1.46929E+03 -1.18464E+04  3.11844E+03 -9.74415E+03  1.77000E+04 -3.16809E+03
  1.13209E+04  2.04611E+03  8.73040E+03  1.05179E+04  3.39565E+03  9.06857E+03 -6.83807E+02  8.67630E+03
 -7.38534E+03 -2.53340E+03 -2.19136E+03 -2.90424E+03  1.61218E+03  1.59502E+03 -6.72905E+03 -1.26097E+03
 -6.46016E+03 -7.60095E+03 -2.01638E+03 -5.80314E+02 -3.78877E+03 -2.51818E+03 -3.66851E+03 -8.83930E+03
  2.24810E+03 -5.04668E+03  4.86519E+03 -2.17217E+03  8.55630E+03  5.89132E+03  1.10143E+03  7.01707E+03
 -5.32451E+03  1.15306E+04 -1.06238E+04  9.15287E+03 -1.12680E+04  3.11009E+03 -1.45355E+04 -3.37208E+03
 -5.72285E+03 -1.06304E+04  5.71367E+03 -1.15291E+04  3.07448E+03 -8.67932E+03  9.58553E+03  4.65384E+03
  2.48325E+03  4.92415E+03 -4.44627E+02  4.77100E+03  2.74554E+03 -4.01076E+03 -1.78175E+03  4.26564E+01
  1.10334E+04 -6.21503E+02  2.23725E+03  4.72643E+03  2.09746E+03 -7.70691E+02 -7.32653E+03  3.27924E+03
 -5.64878E+03  6.82838E+03  9.33743E+02 -1.67830E+03 -3.12290E+03 -1.07651E+04  1.75641E+03 -7.57684E+03
  1.63301E+03 -1.25039E+04  4.62901E+03 -5.96379E+03  8.06270E+03 -2.03616E+03  4.73057E+03  1.14593E+04
 -2.57889E+03  9.66261E+02  9.05940E+02  3.42358E+03  3.06402E+02  4.03423E+03  5.98175E+02  1.84153E+03
 -6.58623E+03 -4.71732E+02  3.17130E+03  5.47873E+03 -3.70396E+03  6.03362E+02 -8.57439E+03 -7.10596E+03
 -8.09763E+03 -9.50833E+03 -5.33119E+03 -1.16934E+04  5.36715E+03 -8.11782E+03  8.56961E+03 -3.59886E+03
  1.41034E+04 -2.72362E+03  9.54305E+02  4.13922E+03 -2.82079E+03  6.41345E+03 -4.92677E+02  6.65875E+03
