 $NMID ID='MM_0lb_SNR50_16hz_g55_62.RAW', FMTDAT='(8E13.5)'
 TRAMP=1., VOLUME=1. $END
  3.07854E+05 -5.04391E+03  3.42244E+05  2.51779E+05  8.23046E+04  3.41700E+05 -1.32121E+05  2.51618E+05
 -1.92734E+05  8.46145E+04 -1.12813E+05 -3.09289E+04 -6.33512E+02 -4.90398E+04  5.22567E+04  2.34990E+03
  3.78028E+04  4.87220E+04 -1.58923E+04  7.73580E+04 -6.10017E+04  6.53120E+04 -8.46073E+04  2.72048E+04
 -7.94250E+04 -9.79823E+03 -5.55118E+04 -5.20548E+04 -1.64256E+04 -6.85048E+04  2.52959E+04 -4.25339E+04
  3.99003E+04  4.33848E+03  1.63335E+04  4.48565E+04 -3.73147E+04  4.60893E+04 -6.92184E+04  3.47461E+03
 -5.27349E+04 -5.28094E+04 -5.03426E+02 -8.38497E+04  3.15230E+04 -5.56194E+04  5.18265E+04 -1.65050E+04
  4.25167E+04  1.04898E+04  2.78204E+04  2.73832E+04  1.64633E+04  2.71824E+04 -4.23980E+03  2.82608E+04
 -2.41708E+04  1.05212E+04 -1.70855E+04 -4.48070E+03  8.24749E+03 -9.78502E+03  2.24807E+04  1.56547E+04
  1.11486E+04  3.83111E+04 -2.79922E+04  4.03981E+04 -6.31576E+04  1.64958E+03 -6.04885E+04 -3.99004E+04
 -1.64443E+04 -6.42958E+04  4.12705E+04 -4.65490E+04  5.65428E+04 -2.13184E+03  3.83683E+04  3.46238E+04
 -7.66591E+03  3.79831E+04 -2.84237E+04  1.11831E+04 -3.23244E+04 -7.30102E+03 -1.33324E+04 -1.21601E+04
 -1.13780E+04 -1.00158E+04 -1.27715E+03 -1.80729E+04  4.61727E+03 -2.55621E+04  1.31085E+04 -1.28885E+04
  9.54548E+03  4.62008E+03 -2.60063E+03  1.20020E+04 -2.17709E+04 -8.37271E+03 -7.70130E+03 -3.42974E+04
  2.16611E+04 -4.53618E+04  4.59072E+04 -2.39790E+04  4.75422E+04  1.93861E+04  1.37323E+04  4.28588E+04
 -1.39198E+04  3.60672E+04 -2.28368E+04  7.19128E+03 -4.78234E+03 -2.86941E+04  1.75674E+04 -3.25040E+04
  3.88219E+04 -7.54364E+03  3.65053E+04  2.37016E+04  2.11692E+04  4.73708E+04 -1.18313E+04  4.70304E+04
 -3.12686E+04  3.05727E+04 -3.94228E+04  8.64962E+03 -4.28902E+04 -1.34937E+04 -2.74208E+04 -3.79702E+04
  7.20884E+03 -3.78403E+04  3.26163E+04 -9.37784E+03  2.52212E+04  1.31941E+04  6.93214E+03  2.03652E+04
 -1.09773E+04  1.06027E+04 -1.31162E+04 -6.92175E+03  5.55130E+03 -5.11846E+03  1.64761E+04  5.40159E+03
  1.90833E+04  2.05455E+04 -7.78288E+03  2.45416E+04 -2.47542E+04  1.02458E+04 -2.77999E+04 -4.40173E+03
 -2.30039E+04 -2.08410E+04 -6.23399E+03 -1.33629E+04  3.41386E+03 -1.94516E+04  1.64043E+04 -1.76293E+04
  2.44532E+04 -1.36866E+04  2.51782E+04  3.02790E+03  2.13534E+04  1.95288E+04  7.44601E+03  3.69382E+04
 -2.29368E+04  2.91589E+04 -2.81427E+04  7.30176E+03 -2.10323E+04 -9.96409E+03 -5.44624E+03 -8.86987E+03
  2.22529E+03 -3.50850E+03 -3.55437E+03  6.56084E+03 -1.74099E+04  5.65427E+03 -1.70037E+04 -7.65798E+03
 -1.23527E+04 -2.03988E+04  3.20109E+03 -2.43392E+04  1.80204E+04 -1.36067E+04  1.46563E+04 -2.43948E+03
  9.34987E+03  1.22445E+04 -8.14101E+02  1.79145E+04 -1.28858E+04  8.96485E+03 -1.71470E+04 -5.65602E+03
 -9.63231E+03 -1.97779E+04 -7.88585E+03 -2.37794E+04  6.81733E+03 -1.42685E+04  1.89381E+04 -8.57115E+03
  1.75742E+04  4.44893E+03  1.03546E+04  2.64799E+03  6.24870E+03  3.28307E+03  6.52849E+03 -1.93489E+03
  1.83636E+04  2.83557E+03  1.55389E+04  1.35594E+04  1.66990E+04  2.59045E+04 -3.33693E+03  2.73853E+04
 -2.07193E+04  2.60269E+04 -3.48223E+04  1.45243E+04 -2.47831E+04  1.20984E+03 -2.31196E+04 -1.85559E+04
 -5.78907E+03 -2.95167E+04  1.20926E+04 -1.94488E+04  2.05117E+04 -1.70698E+04  1.79305E+04  6.09241E+03
  5.42424E+03  1.74131E+04 -9.45202E+03  1.02479E+04 -2.26775E+04 -1.82582E+02 -1.09534E+04 -9.11932E+03
 -2.05714E+03 -1.46170E+04  7.91712E+03 -1.28774E+04  7.67317E+03 -3.32455E+02  7.05389E+02  2.14699E+02
 -8.54264E+03  1.85144E+03 -3.95392E+03 -6.52669E+03  7.46568E+02 -1.19346E+04  1.18271E+04 -1.07888E+04
  1.47977E+04 -4.47111E+03  1.05791E+04  5.98007E+03  1.45685E+04  9.72438E+03  4.05632E+03  2.01286E+04
 -2.78489E+03  1.90565E+04 -1.28301E+04  1.51766E+04 -1.44135E+04  6.77768E+02 -8.02401E+03 -6.65062E+03
 -1.45522E+03 -7.84369E+03 -8.57736E+03  5.31723E+03  3.77598E+02 -1.12047E+03 -3.65022E+03  6.68272E+03
 -7.51639E+03 -3.59435E+03 -1.12066E+04 -1.00140E+04 -3.28699E+03 -1.58434E+04  7.57048E+03 -1.09961E+04
  9.44097E+03 -2.97190E+03  8.57696E+03 -1.89718E+03 -1.85427E+03  1.07603E+04 -7.07687E+03 -4.47094E+02
 -4.58532E+03 -7.27059E+03  4.87362E+03 -1.04753E+04  5.65111E+03 -1.40924E+04  1.46116E+04 -3.35979E+03
  1.92890E+04  3.91711E+03  1.21057E+04  9.68263E+03  1.42482E+03  1.41284E+04 -4.88727E+03  8.29850E+03
 -9.13927E+03  6.76966E+03 -1.35252E+03 -3.14703E+03  1.71909E+03 -5.28091E+03  9.54082E+03  9.70807E+02
  7.99313E+03  1.36296E+03 -9.86759E+02  1.08910E+04 -5.77364E+03  6.56712E+03 -8.63034E+03  3.35936E+03
 -7.97283E+03 -6.64962E+03  1.99882E+03 -1.03721E+04  1.87758E+03  2.84950E+02  4.79957E+03  3.45549E+03
 -1.48472E+03  3.57428E+03 -2.20610E+03  1.99271E+03 -9.32393E+03  2.93549E+03 -4.96032E+03 -7.74710E+03
 -5.11032E+03 -6.49093E+03  4.67594E+03 -9.87968E+03  1.02543E+04 -1.53636E+02  1.40629E+04 -1.23941E+03
  4.20921E+03  9.77841E+03  5.79670E+02  1.43338E+04 -8.55462E+03  5.61183E+03 -6.60603E+03 -1.87199E+03
 -2.53434E+03 -4.79215E+03 -5.46680E+03 -7.68958E+03 -3.79349E+02 -4.77068E+03  6.35800E+03 -5.47294E+03
  3.53356E+03 -4.14781E+02  1.12112E+03  6.42482E+02 -3.46926E+03 -3.32953E+03 -1.38251E+03 -6.80686E+03
  4.37868E+03 -9.30478E+02  9.43949E+03  1.74256E+03  6.84182E+03  3.98314E+03  3.40852E+03  1.06651E+04
  3.90710E+02  1.15911E+04 -8.42796E+03  1.18994E+04 -8.28652E+03 -1.81529E+03 -1.09262E+04 -6.10399E+03
 -5.40002E+03 -1.15524E+04 -8.02728E+02 -1.12538E+04  1.50854E+03 -1.38336E+03  5.61696E+03 -5.52443E+03
  8.61976E+03  1.28766E+03  4.69033E+03  1.43591E+02  2.89411E+03 -3.41371E+03 -1.40383E+03 -2.06475E+03
  2.63558E+03  1.08699E+03  5.37066E+03 -3.12663E+02  1.44165E+03  9.15102E+02 -4.27358E+03  9.54433E+02
 -1.09102E+03 -2.36160E+03 -2.75138E+03  5.50795E+02  2.79121E+03 -6.53687E+03  4.80329E+03 -1.07946E+04
  2.80059E+03 -9.96903E+03  7.79614E+03 -2.52903E+03  2.10041E+03  6.90201E+03  5.53833E+02  5.25258E+03
 -4.27489E+03  1.03740E+04 -9.42916E+03  1.66460E+03 -2.95203E+03 -6.04288E+03 -4.83905E+03  1.49186E+03
 -1.22586E+03 -2.78800E+02 -3.39254E+03  6.61334E+02 -4.88876E+03  5.46685E+03 -6.10436E+03 -5.41404E+03
 -7.79051E+03 -2.34408E+03  9.45953E+02 -2.06427E+03  6.60300E+03 -5.55242E+03 -2.13008E+02  1.11798E+03
  6.43981E+03  6.88411E+02  4.74576E+03  4.66275E+03 -4.41518E+03  6.08498E+03 -4.80586E+03  5.40208E+03
 -9.74156E+03  1.26621E+03 -1.10343E+04 -4.07998E+03 -3.47610E+03 -5.61752E+03  1.42657E+03 -7.00519E+03
  1.03435E+04  3.91798E+02  4.16000E+03  1.06328E+03  2.00630E+03 -1.31345E+02  1.65908E+03  1.86409E+03
  3.82214E+03  7.24552E+03  1.40073E+03  2.05047E+03 -1.52691E+03  3.43227E+03 -9.61702E+02  8.77348E+02
  7.22479E+02  7.63174E+03 -6.24616E+03  5.21451E+03 -9.94778E+03  9.41246E+02 -3.08137E+03 -1.91280E+03
 -1.53354E+03 -7.74140E+03 -4.86725E+03 -2.17868E+03  7.13816E+02 -8.08392E+03  2.25672E+03 -3.36763E+03
  6.94272E+03  4.91012E+03  2.91321E+03  7.96951E+03 -5.10481E+02  2.35503E+03 -4.26743E+03 -1.21449E+03
  2.82790E+02 -6.91398E+01 -3.78697E+03 -5.16522E+03  4.04779E+03 -2.30951E+03  5.65197E+03  5.85425E+02
 -4.50038E+02  3.10907E+03 -9.13530E+02  7.50154E+02  2.49147E+03  3.57496E+03  1.82341E+03 -6.03417E+03
 -2.25030E+02 -3.36616E+03  2.24027E+03  8.69419E+03 -7.70608E+02  7.11560E+03 -5.39976E+02  4.56180E+03
  6.67942E+03  1.45861E+02 -2.52326E+02 -1.60267E+02 -1.08281E+03 -1.53364E+03 -2.12218E+03 -9.99968E+02
  1.63389E+03 -1.82156E+03  1.72681E+02 -3.35819E+03  2.17682E+03  6.67528E+02 -2.84674E+03 -1.56434E+03
 -2.48521E+03 -1.94545E+03 -3.63965E+03 -3.00704E+03 -1.81952E+03 -2.75467E+03  1.68359E+03 -2.40119E+03
  3.77598E+03 -5.39742E+03  2.67223E+03  6.19706E+02  1.59394E+03 -2.85803E+03  1.73054E+03  4.26337E+02
 -6.87698E+02  3.69270E+03 -1.54710E+03  3.06234E+02 -1.34875E+03 -9.76399E+02 -2.31901E+03 -1.09336E+03
  4.53738E+03  1.72368E+03  3.38383E+03 -2.67608E+03  2.18762E+03  5.24608E+03 -2.87906E+03  2.47196E+03
 -3.24923E+03  9.78197E+02 -5.81921E+03  1.75043E+03  4.92944E+02 -2.67519E+03 -3.37158E+03 -2.81464E+03
  1.38751E+03 -1.56617E+03  1.81465E+03  6.40493E+02  3.22067E+03  6.18101E+01  1.30504E+03  2.20294E+03
  1.42039E+03  3.06598E+03 -5.13908E+03 -7.62097E+01 -8.42980E+02  3.65347E+03  3.16475E+03 -9.80593E+02
  2.20911E+03  1.30560E+03 -2.02827E+03  7.45866E+02 -6.50775E+03 -1.16376E+03 -5.85115E+03 -5.49905E+03
 -2.83777E+03  9.41804E+02 -1.64706E+03 -5.50820E+03  4.36458E+03 -6.30669E+02  5.94237E+03 -2.69617E+03
  2.83108E+03  8.12139E+02 -3.22865E+02  1.27152E+03 -4.38244E+03 -2.23018E+03 -4.77868E+02  2.47876E+03
 -3.76374E+03 -2.11492E+02 -3.24041E+03  5.97228E+02 -3.75368E+03 -3.03341E+03  1.64751E+03  6.64633E+02
 -2.42563E+03  4.54524E+01  2.26737E+03 -1.09987E+03  1.77664E+03  1.68428E+03 -1.45401E+03 -1.15660E+02
  6.04509E+03  1.54878E+03  5.69427E+03 -1.87663E+02  3.81843E+03  1.84569E+03 -3.71195E+03  4.23577E+03
 -4.55870E+01  4.34018E+02 -1.86287E+02  2.16864E+03 -1.73754E+03  1.43490E+03 -5.11176E+03 -4.13937E+03
 -4.85404E+03  5.22108E+02  1.29159E+03 -1.28564E+03  4.40911E+03  1.80590E+02  4.83392E+03  1.41007E+03
  8.39576E+02  6.09433E+03 -7.18868E+02  8.59946E+03 -3.22007E+03  1.18654E+03 -3.27257E+02 -1.74817E+03
  9.28230E+00  2.53028E+03 -1.25048E+03  2.82517E+03 -1.56657E+02  3.34188E+03  8.85543E+02  2.33929E+03
 -1.20129E+03  2.63676E+03 -2.68616E+02  1.65665E+03 -3.15025E+03 -4.11325E+03 -4.10939E+03 -4.38113E+03
 -1.30508E+03 -1.81169E+03 -1.24827E+03  6.05122E+01  5.01171E+02  5.11445E+02  1.95230E+03  1.92415E+03
 -1.79135E+03  1.39063E+03 -2.04949E+03  5.68975E+02 -2.46261E+02 -2.31357E+03 -2.87117E+03  1.18176E+03
  4.35349E+01  5.01590E+02 -2.33714E+03  5.73851E+03  1.12783E+01  2.35378E+03  2.31614E+03  4.51598E+03
 -5.53723E+03  3.81799E+02 -8.40372E+02 -1.23643E+03  1.32317E+03 -2.08184E+02  2.19902E+03  1.58512E+03
  1.68394E+03  2.00837E+03  2.58405E+03  1.75428E+03 -3.24073E+03  4.66353E+03 -4.21173E+03 -1.80517E+03
