 $NMID ID='MM_0lb_SNR50_14hz_g55_4.RAW', FMTDAT='(8E13.5)'
 TRAMP=1., VOLUME=1. $END
  3.12274E+05  3.23827E+03  3.39404E+05  2.46245E+05  8.43632E+04  3.38488E+05 -1.36436E+05  2.49696E+05
 -1.86545E+05  8.51522E+04 -1.17804E+05 -3.17557E+04 -1.62687E+03 -4.87735E+04  4.93153E+04  4.80750E+03
  3.46303E+04  5.63539E+04 -1.03019E+04  7.57713E+04 -5.77210E+04  5.79673E+04 -8.49855E+04  2.90647E+04
 -8.07906E+04 -1.09988E+04 -5.93480E+04 -4.77703E+04 -1.13593E+04 -6.78055E+04  2.20455E+04 -4.46050E+04
  3.90894E+04  7.11439E+03  1.76305E+04  5.17124E+04 -3.17571E+04  4.47096E+04 -6.87948E+04  2.54610E+03
 -5.52604E+04 -5.00138E+04 -1.09067E+04 -7.84747E+04  3.19563E+04 -5.88231E+04  4.55897E+04 -1.59293E+04
  4.14209E+04  1.40414E+04  3.34829E+04  2.29928E+04  2.27429E+04  3.20668E+04 -3.24646E+03  2.93899E+04
 -2.37874E+04  1.10548E+04 -1.35354E+04 -5.97277E+03  1.54152E+03 -9.56023E+03  2.73074E+04  9.27633E+03
  6.94638E+03  3.81498E+04 -3.92567E+04  3.60512E+04 -6.19812E+04  8.34818E+03 -5.40966E+04 -4.27632E+04
 -1.57982E+04 -6.21095E+04  3.45435E+04 -4.34348E+04  6.00474E+04 -1.22083E+03  2.94028E+04  3.09273E+04
 -8.53658E+03  3.57320E+04 -3.12390E+04  2.05835E+04 -2.81212E+04 -5.02593E+03 -1.97427E+04 -1.05349E+04
 -8.07670E+03 -1.67995E+04  9.46934E+02 -1.55162E+04  2.20493E+03 -2.38106E+04  1.74269E+04 -1.26829E+04
  1.03989E+04  8.25648E+03 -8.30558E+03  1.44967E+04 -2.48235E+04 -4.16263E+03 -7.40439E+03 -3.35866E+04
  2.19443E+04 -4.13847E+04  4.90917E+04 -2.00634E+04  5.03360E+04  1.89279E+04  1.78771E+04  4.57858E+04
 -1.57912E+04  3.30152E+04 -2.71741E+04 -4.07184E+02 -1.36644E+04 -2.27579E+04  2.28993E+04 -3.80675E+04
  4.82821E+04 -1.12475E+04  3.89624E+04  2.02493E+04  1.70671E+04  5.06833E+04 -6.84034E+03  4.86556E+04
 -3.07588E+04  3.09456E+04 -3.96040E+04  1.08154E+04 -4.77767E+04 -1.55959E+04 -1.72528E+04 -3.78148E+04
  8.66151E+03 -3.13027E+04  3.01786E+04 -1.42152E+04  2.95953E+04  1.29964E+04  7.94131E+03  1.63365E+04
 -2.16288E+04  8.07893E+03 -1.36165E+04 -9.11850E+03  6.26430E+03 -9.27762E+03  1.53258E+04  5.05857E+03
  1.36063E+04  2.99758E+04 -7.79500E+03  2.63871E+04 -2.00184E+04  9.30770E+03 -2.75184E+04 -4.61412E+03
 -2.50997E+04 -1.94472E+04 -1.05525E+04 -2.14026E+04  3.19242E+03 -1.71539E+04  1.16170E+04 -1.63422E+04
  2.26943E+04 -7.13201E+03  3.83216E+04  5.52692E+03  2.26503E+04  1.84432E+04  3.05485E+02  4.06102E+04
 -1.49290E+04  2.66593E+04 -2.72909E+04  1.55016E+04 -2.13866E+04 -1.37539E+04 -1.87970E+03 -1.30029E+04
  3.62850E+03 -4.04435E+03 -6.76149E+03  8.24484E+03 -2.21886E+04  2.42419E+03 -1.67504E+04 -8.45760E+03
 -1.00434E+04 -1.79099E+04  6.13797E+03 -2.50631E+04  1.46807E+04 -1.51869E+04  2.05313E+04 -7.05507E+03
  1.70052E+04  1.54130E+04 -3.69077E+03  1.98515E+04 -1.34067E+04  1.17462E+04 -2.08334E+04 -2.99844E+03
 -1.56216E+04 -2.01539E+04  2.06473E+03 -1.89701E+04  1.19138E+04 -1.88371E+04  2.36848E+04 -7.94931E+03
  1.83246E+04 -1.47744E+03  1.48797E+04  4.03723E+03  6.97242E+03 -1.00702E+03  6.01174E+03 -1.36025E+03
  1.44491E+04  6.47171E+03  2.05438E+04  1.95068E+04  1.06414E+04  3.16740E+04  2.28224E+03  3.47731E+04
 -2.08389E+04  3.05358E+04 -3.26617E+04  8.03446E+03 -3.57752E+04  1.18123E+03 -2.99205E+04 -2.08682E+04
 -1.30577E+04 -2.33887E+04  1.16751E+04 -2.48894E+04  1.65200E+04 -7.61247E+03  1.85782E+04  2.60243E+03
  4.96553E+03  1.78561E+04 -1.12449E+04  1.38929E+04 -2.14050E+04  2.95414E+03 -1.26472E+04 -1.10418E+04
  1.99989E+03 -1.89368E+04  7.71460E+03 -1.21869E+04  1.16858E+04 -2.65931E+03  7.18013E+03  5.86858E+03
 -3.35521E+03  8.69940E+03 -7.90057E+03 -6.77329E+03 -2.43104E+03 -1.38797E+04  7.25550E+03 -1.83827E+04
  1.79847E+04 -8.95110E+03  2.03315E+04  1.76091E+03  1.68326E+04  1.57072E+04  8.50247E+03  2.23569E+04
 -6.02693E+03  2.58116E+04 -1.70135E+04  1.82203E+04 -1.84872E+04  6.14394E+03 -1.61478E+04 -3.24474E+03
 -2.57046E+03 -7.92043E+03 -2.98226E+03  2.77460E+03  1.80297E+02  5.01023E+03 -3.72528E+03  6.10390E+03
 -1.04870E+04  1.99426E+03 -9.19494E+03 -9.22724E+03 -3.29574E+03 -1.77848E+04  8.72514E+03 -1.88016E+04
  9.54598E+03 -5.93008E+03  8.39855E+03  1.25234E+03 -5.93219E+02  3.41749E+03 -1.54657E+03  6.42257E+02
 -7.52962E+03 -9.96983E+03  3.92933E+03 -1.07578E+04  3.55584E+03 -1.08776E+04  1.42060E+04 -2.71479E+03
  1.21646E+04  6.36667E+03  9.29372E+03  8.97595E+03  8.95532E+02  1.33235E+04 -8.06983E+03  1.28358E+04
 -8.47602E+03  2.95385E+03 -7.91285E+02 -8.40074E+03 -2.45798E+03 -4.05839E+03  7.63983E+03  2.30593E+02
  5.69702E+03  6.29141E+03  1.59163E+03  4.62476E+03 -4.86536E+03  1.07967E+04 -1.66945E+04  2.96285E+03
 -7.69027E+03 -7.78829E+03 -9.26510E+03 -9.74175E+03  5.68581E+03 -5.26840E+03  9.24792E+03  6.98632E+02
 -2.72630E+03  6.72142E+03 -4.34524E+03  1.29449E+04 -9.37725E+03  5.38286E+03 -4.40540E+03 -1.25703E+03
 -4.90450E+03 -1.22411E+04  1.02202E+03 -1.19146E+04  6.00755E+03 -1.28037E+03  1.70484E+04  4.13184E+03
  8.41468E+01  4.03415E+03 -2.28093E+03  5.45544E+03 -2.15407E+03  1.15076E+04 -5.71588E+03 -6.90004E+03
 -1.00153E+04 -9.73875E+03 -1.69837E+03 -4.46733E+03  1.21153E+04 -8.54167E+03  8.36589E+03 -1.58995E+03
  3.58417E+03  2.70089E+03  1.56505E+03 -1.91152E+02 -7.34622E+02 -1.25910E+03 -4.68314E+03 -2.61451E+03
  1.13586E+04 -6.14995E+03  6.72153E+03  4.25481E+01  1.00971E+04  1.14425E+04  7.94868E+03  9.44409E+03
 -1.58411E+03  1.57074E+04 -1.50379E+04  1.50957E+04 -1.07854E+04  1.22819E+03 -1.51837E+04 -1.36525E+03
 -9.46687E+03 -1.12535E+04  8.89318E+02 -4.87778E+03  5.14214E+03 -8.75758E+03  3.89576E+03 -1.21622E+03
  1.61412E+03  9.99691E+02  3.12712E+03 -2.77246E+03  1.47640E+03 -5.06307E+03  6.31055E+03 -7.64281E+02
  8.12049E+03  7.66889E+01  4.82259E+03  7.60739E+03  1.09837E+03  3.37392E+03 -9.83582E+03  7.16995E+03
 -1.04491E+04 -1.76669E+03 -4.20887E+03 -8.17999E+03  3.79218E+03 -1.16708E+04  3.44880E+03 -1.24157E+04
  8.71659E+03 -6.59141E+03  1.35399E+04  3.34955E+03  1.04490E+04  3.83384E+03 -3.27425E+02  7.79057E+03
  2.24134E+01  9.36672E+03 -8.68151E+03  6.71015E+03 -7.77563E+03 -5.91141E+03 -6.06254E+02 -2.46136E+03
 -2.42399E+03 -3.57029E+02 -1.88510E+03 -1.66878E+03 -2.50825E+03  5.91995E+03 -9.14781E+03 -1.13566E+02
 -2.93110E+03 -5.87688E+03  1.22819E+02 -6.53265E+03  5.78787E+03 -4.99342E+03  5.39037E+03  2.19878E+03
  6.93850E+03  3.73545E+03  2.92474E+03  6.82527E+03  8.80429E+01  5.46078E+03 -5.78528E+03  2.64430E+03
 -1.02036E+04  6.66197E+03 -4.27674E+03 -1.84678E+03  5.37037E+03 -4.91937E+03  4.60941E+03 -8.84206E+03
  5.37243E+03 -3.06793E+03  4.66574E+03  2.02826E+03 -1.09344E+03  3.67947E+03 -2.08963E+03  6.28356E+02
  3.98960E+03  8.01915E+02 -9.85270E+02 -3.40994E+02  4.24122E+03  9.74037E+03 -1.40958E+02  1.03690E+03
 -9.97339E+02  5.01304E+03 -9.19060E+03  5.43178E+03 -2.34229E+03 -3.57076E+01 -3.69366E+03  3.45193E+03
 -3.14422E+03 -3.91485E+03  2.17629E+03 -6.60398E+03  4.79733E+03 -4.69342E+03  5.60887E+03 -3.40293E+03
  6.00875E+03  5.73573E+03 -2.27781E+03  7.18503E+03 -5.30926E+03  7.30178E+03 -3.38515E+03 -3.25555E+03
  1.44036E+03  3.35596E+02  2.61020E+03 -6.63034E+03  8.37957E+03 -2.75326E+03  1.38778E+03 -2.49579E+03
  8.48229E+02  2.84813E+03  1.79404E+03  7.61931E+02 -1.55580E+03  1.65533E+03 -2.33952E+03 -3.16758E+03
 -2.98439E+03  9.81962E+02  4.06492E+03 -1.96164E+03  3.82727E+03  8.96435E+03 -5.56777E+03  9.93167E+03
 -9.58016E+03  4.07414E+03 -2.17805E+02  3.36569E+03 -5.12468E+03 -3.55477E+03 -1.55960E+03 -4.02438E+03
  4.28819E+03 -6.33684E+03  1.63535E+03 -2.78574E+03  3.60310E+03  4.48244E+03  3.90630E+02  3.56035E+03
  2.76364E+02  1.38332E+03 -1.92933E+03  8.12343E+02 -1.71784E+03 -8.08811E+03  1.80297E+01 -3.81160E+03
  6.93835E+03 -1.31493E+03  2.08666E+03 -1.04477E+03  3.67607E+03  9.59454E+01  4.00184E+03  7.03185E+03
  6.49712E+03  4.75153E+02  3.48341E+02  1.50085E+03  5.50107E+03 -3.01028E+03  5.15136E+03  7.32950E+00
  8.43699E+03  6.18560E+03  1.56581E+03  3.14515E+03 -4.34809E+02  4.14431E+03 -1.96701E+01 -2.61023E+03
 -3.30387E+03  1.43070E+03 -4.55783E+03  3.08486E+03 -3.91251E+03 -3.98150E+03 -2.85486E+03 -2.80528E+03
  8.47858E+03  4.84702E+03  2.43196E+03  4.67762E+02 -2.42015E+02  2.47634E+03  1.86633E+03 -8.71432E+02
 -6.16116E+02  3.63407E+03  1.90621E+03  5.97975E+03 -1.23231E+01  2.81342E+03 -7.73056E+03 -5.16667E+02
 -1.60304E+03  2.61379E+03 -2.39190E+03  2.96443E+03  2.09177E+03  2.89054E+02 -5.64066E+03 -7.02966E+03
  1.85764E+03 -4.59801E+03  1.16063E+04 -4.55910E+03  2.49715E+03 -8.12582E+03  3.61976E+03 -2.24964E+03
  6.24453E+03 -1.12371E+03  9.55820E+02  5.16541E+03  3.35552E+03  1.97324E+02  1.92368E+03  3.25841E+03
  6.54638E+02  4.23287E+03  2.41238E+02  9.50475E+02  1.04859E+03  3.47217E+03 -2.48106E+03 -2.77233E+02
  3.80378E+02  6.99861E+02 -3.21127E+03 -4.39444E+02  3.70993E+03 -5.86183E+03  2.35861E+03 -1.23237E+03
  5.98088E+03  9.70298E+02 -9.99055E+02 -2.80992E+03  3.12765E+03  4.52698E+03 -4.76317E+03  3.62698E+03
 -2.43657E+03  5.91646E+03 -5.68152E+03 -8.17184E+02 -3.51622E+03  4.27777E+02 -6.78136E+03 -2.65862E+03
 -3.31016E+03 -3.34552E+03  1.93435E+03 -3.18558E+03  2.67196E+02  5.82870E+03 -3.08568E+03  2.30832E+03
 -9.01427E+01  1.41684E+03 -3.11151E+03  3.84045E+03 -8.34331E+02 -2.57853E+03  6.94300E+02  3.35300E+03
 -1.06819E+03  1.34767E+03  3.14345E+03  2.53234E+02  3.30777E+03  7.15052E+02  1.33840E+03 -1.50518E+03
 -1.32689E+03  2.27522E+02 -5.96988E+03 -1.12248E+02  1.13460E+03  3.33749E+02 -1.53309E+03 -3.11326E+03
  2.87325E+03 -5.03856E+03  6.28049E+03 -2.16352E+03  5.88476E+03 -2.12176E+03  2.89673E+03  6.73755E+03
  5.41710E+03  4.80647E+03 -1.94641E+03  8.82772E+00 -3.71309E+03  1.45670E+03 -2.91360E+02 -3.13317E+02
 -1.79069E+03  2.81178E+03  3.40546E+03  3.00612E+02  5.01513E+02 -2.61438E+03 -4.39904E+03  1.38791E+03
 -8.57420E+03 -1.80073E+03  1.05764E+03 -7.68308E+03 -2.79512E+03 -1.05057E+03  1.61787E+03 -2.00148E+03
 -1.06775E+03  1.85462E+03  5.44513E+03  1.62956E+03  1.93016E+03  3.26847E+03 -1.76258E+03  7.28455E+03
