 $NMID ID='MM_0lb_SNR50_17hz_g45_58.RAW', FMTDAT='(8E13.5)'
 TRAMP=1., VOLUME=1. $END
  3.10131E+05  5.44061E+03  3.40737E+05  2.52467E+05  8.33168E+04  3.37931E+05 -1.30004E+05  2.51420E+05
 -1.87630E+05  8.08752E+04 -1.11095E+05 -2.95729E+04  1.09284E+03 -5.08401E+04  5.50491E+04  1.95364E+03
  3.09269E+04  5.27321E+04 -1.65824E+04  7.57897E+04 -5.87081E+04  6.16470E+04 -8.61289E+04  3.18240E+04
 -8.12815E+04 -8.93033E+03 -6.23094E+04 -5.00346E+04 -1.67330E+04 -7.09167E+04  2.71207E+04 -4.54103E+04
  3.83709E+04  4.08887E+03  1.34735E+04  4.70866E+04 -3.11883E+04  4.07766E+04 -6.97456E+04  8.84072E+02
 -5.22279E+04 -5.44566E+04 -5.50544E+03 -7.92841E+04  3.50025E+04 -5.20542E+04  4.26249E+04 -1.53525E+04
  3.99511E+04  1.08725E+04  2.97634E+04  2.45854E+04  1.48374E+04  3.13281E+04 -1.01166E+04  2.73682E+04
 -1.95365E+04  1.47364E+04 -2.05528E+04 -4.05566E+03  8.69305E+03 -7.35894E+03  2.37469E+04  1.25540E+04
  6.28241E+03  3.12771E+04 -2.98776E+04  3.38118E+04 -5.94456E+04  4.58397E+03 -5.81087E+04 -4.60652E+04
 -1.51636E+04 -6.09825E+04  3.82760E+04 -4.66158E+04  5.62585E+04 -7.94175E+03  2.87965E+04  3.61281E+04
 -5.55550E+03  3.44812E+04 -2.68008E+04  1.21994E+04 -2.75827E+04 -5.77420E+03 -1.64597E+04 -1.27740E+04
 -9.11830E+03 -1.18392E+04 -1.65308E+03 -1.44398E+04  5.11294E+03 -2.68577E+04  1.55761E+04 -9.70673E+03
  1.10430E+04  8.87332E+03 -9.96637E+03  1.10247E+04 -2.04843E+04 -4.01976E+03 -8.40417E+03 -3.57752E+04
  2.41128E+04 -4.07010E+04  4.50446E+04 -1.81502E+04  4.21999E+04  1.38677E+04  1.05410E+04  4.47618E+04
 -1.58088E+04  2.76944E+04 -2.32986E+04  2.32314E+03 -9.41369E+03 -2.58042E+04  1.82784E+04 -3.21813E+04
  3.68898E+04 -7.08497E+03  3.03395E+04  2.18870E+04  1.38085E+04  3.99851E+04 -8.04474E+03  4.73858E+04
 -2.63363E+04  2.95158E+04 -3.93607E+04  6.29572E+03 -4.63854E+04 -1.64998E+04 -1.97034E+04 -3.34403E+04
  4.51340E+03 -3.20893E+04  3.07408E+04 -1.41717E+04  3.08264E+04  9.87744E+03  4.13645E+03  1.68075E+04
 -1.19317E+04  6.35593E+03 -9.84916E+03 -1.01740E+04  4.54598E+03 -3.41351E+03  1.54457E+04  3.81224E+03
  1.27808E+04  1.94868E+04 -7.78677E+03  2.55562E+04 -2.51134E+04  1.12665E+04 -2.54777E+04 -4.30764E+03
 -1.62830E+04 -1.64460E+04 -1.04983E+04 -1.70266E+04  5.04999E+02 -1.36987E+04  1.39207E+04 -1.29133E+04
  2.32304E+04 -1.58775E+04  3.34997E+04 -2.86892E+03  2.11672E+04  1.37699E+04  8.23963E+03  3.51540E+04
 -1.76981E+04  2.62858E+04 -2.56786E+04  1.06901E+04 -1.82549E+04 -1.38464E+04 -2.18865E+03 -1.42793E+04
  3.72112E+03 -2.80243E+03 -5.22601E+03  8.63116E+03 -1.17485E+04  4.06739E+03 -1.46786E+04 -3.49492E+03
 -6.93896E+03 -2.10557E+04  3.57456E+03 -1.83835E+04  1.58209E+04 -1.45786E+04  1.87484E+04  1.25061E+03
  1.21449E+04  1.38524E+04 -3.82564E+03  1.40484E+04 -1.27343E+04  1.02536E+04 -1.66006E+04 -9.76880E+03
 -1.46051E+04 -1.55502E+04  1.24421E+03 -1.80142E+04  1.19958E+04 -1.65792E+04  2.06906E+04 -1.00200E+04
  2.14772E+04  7.79067E+02  1.13927E+04 -2.19622E+03  7.24412E+03  3.81373E+03  5.75733E+03  1.73161E+02
  1.57182E+04  6.59076E+02  1.24453E+04  1.49463E+04  1.22096E+04  2.53600E+04 -1.91230E+03  2.96334E+04
 -1.91451E+04  2.47509E+04 -2.70193E+04  1.00925E+04 -2.67003E+04 -6.65837E+03 -2.53396E+04 -1.13954E+04
 -1.17642E+04 -2.35634E+04  5.41495E+03 -2.23621E+04  1.75286E+04 -1.08337E+04  1.35778E+04  3.15235E+03
  5.83438E+03  1.53577E+04 -6.77162E+03  1.18479E+04 -8.80107E+03 -2.05059E+03 -9.77387E+03 -1.01609E+04
  9.45339E+02 -1.32918E+04  7.12812E+03 -1.20188E+04  2.26503E+03 -1.49693E+03  2.29188E+03  5.27542E+03
 -6.47991E+03 -7.56477E+02  1.62839E+03 -7.30515E+03 -4.45765E+03 -9.81714E+03  3.01352E+03 -1.51409E+04
  1.52016E+04 -2.16409E+03  1.11624E+04  6.33625E+03  1.37760E+04  1.32821E+04  1.61115E+03  1.82548E+04
 -2.62261E+03  1.68533E+04 -9.35932E+03  6.47803E+03 -1.43303E+04  2.98488E+03 -1.40318E+04 -9.03037E+03
 -5.29786E+03 -1.46344E+03  5.57322E+02 -9.85145E+02 -3.05836E+03  1.45425E+03  1.82906E+02  5.40427E+03
 -9.32203E+03  2.51704E+03 -1.22330E+04 -6.12023E+03 -3.84931E+03 -1.56469E+04  1.43453E+03 -1.34656E+04
  8.27356E+03 -5.96863E+03  1.64637E+03 -2.31911E+03  7.49479E+03  2.39722E+03 -5.11868E+03  9.15565E+02
  2.77525E+03 -5.75537E+03 -1.22258E+03 -7.77712E+03  3.89944E+03 -9.84523E+03  7.67136E+03 -4.50737E+03
  1.70827E+04 -3.15638E+03  1.18213E+04  9.65778E+03  3.96231E+03  1.13980E+04 -6.41171E+03  7.52940E+03
 -2.41265E+03  5.20265E+03 -8.70360E+03 -1.06089E+03  3.29441E+03 -9.85866E+02  9.52097E+03 -2.55136E+03
  3.80596E+03  7.25945E+03  5.64027E+03  1.28094E+03 -4.24573E+03  9.10353E+03 -1.01170E+04  1.96480E+03
 -3.14569E+03 -4.46984E+03  1.12613E+03 -4.63209E+03  1.76340E+03 -7.56366E+03 -3.53626E+03 -7.05078E+02
  1.02264E+03  7.84118E+03 -4.73767E+03  4.73860E+03 -1.00950E+04  5.03291E+03 -6.08018E+03 -3.07276E+02
  1.93383E+03 -4.79494E+03  5.69612E+03 -1.05340E+04  8.88393E+03 -6.16325E+03  1.25673E+04  9.55780E+02
  6.07115E+03  8.43215E+03 -5.83586E+02  4.47577E+03 -3.87822E+03  1.02317E+04 -2.53192E+03 -1.17184E+02
 -3.99289E+03 -8.66086E+03  4.18844E+03 -7.43035E+02  3.03186E+03 -3.11314E+03  4.46976E+02  1.61930E+03
  8.82391E+02 -1.39170E+03  1.45798E+03  6.90451E+02  3.29355E+03  3.41683E+03 -1.72338E+03 -6.19390E+03
  2.23503E+03 -2.04514E+02  2.26859E+03  1.22928E+03  9.16152E+03  1.22690E+03  8.16984E+03  7.58510E+03
  3.32908E+03  1.21942E+04 -1.40111E+04  5.91913E+03 -1.55917E+04  4.95262E+02 -4.65469E+03 -1.69416E+03
 -4.77526E+03 -1.05195E+04 -2.01701E+03 -7.53064E+03  1.13999E+03 -4.49620E+03 -1.85345E+03 -1.43910E+03
  5.39547E+03 -7.56609E+03  4.20271E+03 -2.69171E+03  2.64339E+03  3.94841E+02  8.55909E+02  2.89762E+03
  4.01610E+03 -3.97740E+02  2.12006E+03  2.86250E+03 -8.42859E+02  1.94631E+03 -4.16254E+02  6.11698E+03
 -8.19680E+03  2.03789E+03 -2.05255E+03 -4.89545E+03 -5.12709E+03 -9.43401E+03  3.01054E+03 -7.80053E+03
  5.64376E+03 -5.70542E+03  1.22570E+04 -3.05455E+02  7.75899E+03  3.06068E+03 -2.34927E+02  4.15875E+03
 -1.82388E+03  5.44078E+03 -2.90113E+03  1.17515E+02 -6.71648E+03 -3.67711E+03  4.06385E+02  4.85640E+02
 -3.87341E+03 -2.04137E+02  7.79369E+02  1.32531E+03  1.65853E+02 -1.04640E+03 -3.63817E+03  6.28683E+02
 -5.54909E+02 -1.99175E+03  2.88517E+03 -1.61464E+03  3.63035E+03 -1.02481E+04  3.12102E+03  1.08163E+03
  7.42070E+03 -2.33173E+03 -1.65412E+02  1.04837E+04 -4.11104E+03  4.02514E+03 -5.41560E+03  2.89398E+03
 -4.51195E+03  1.45587E+03 -5.85250E+03 -5.11676E+03  3.36559E+03 -4.27894E+03  7.00768E+03 -2.66339E+03
  3.64080E+03 -1.96696E+03  1.90653E+03 -2.98194E+03 -1.28930E+03  5.71744E+03  3.77397E+03 -1.02518E+02
  2.03002E+03 -2.65089E+03  4.09583E+03 -2.54389E+03 -2.01258E+03  2.53103E+02  3.97716E+03  3.75470E+03
 -3.31543E+03  1.85061E+02 -4.35781E+03  5.29717E+03 -3.82828E+03  2.52440E+03 -5.95802E+03 -2.19663E+03
 -4.35310E+03 -9.48807E+03  5.12349E+02 -1.55557E+03  3.87586E+03 -3.81587E+03  5.76259E+01 -3.69426E+03
  3.44622E+03  5.57076E+03  1.34422E+03  5.08851E+03 -1.47779E+03  3.97928E+03 -1.07207E+03  4.30571E+03
 -2.51170E+03 -5.15604E+03 -2.75932E+02 -3.29781E+03  4.58178E+03  5.36123E+02 -1.01133E+02  3.45022E+01
 -1.35496E+03  4.48969E+03 -9.74458E+02  1.41005E+03  1.24835E+03  1.58137E+03  2.08841E+03 -1.57816E+02
  3.86208E+03 -3.14666E+03  1.56263E+03  1.65736E+03 -1.85218E+03  2.97053E+03  2.64282E+02  6.23444E+03
  8.45162E+02  1.49108E+03 -4.53332E+02  1.00314E+03 -6.92292E+02 -3.17823E+03 -4.17650E+03 -4.28152E+03
  2.14250E+03 -5.82602E+03 -1.47941E+03 -3.15880E+02  4.10229E+03  2.92339E+03  1.03284E+03  1.71812E+03
 -6.35626E+03  1.72464E+03 -2.96225E+03  8.17580E+02 -1.06402E+03 -1.34558E+03 -2.58927E+03  1.22071E+03
  2.46705E+03 -2.08673E+03  6.09400E+02  5.42148E+03  4.79243E+03  1.29139E+02 -4.57954E+02  2.01749E+02
 -2.76436E+03  2.49117E+03  3.54400E+03 -3.24466E+03 -3.20629E+02 -4.11399E+03  4.64270E+03 -2.17817E+03
  3.28325E+03  1.24336E+03  2.36749E+03  4.45432E+03  6.92189E+02  1.68101E+03  2.03217E+02 -1.27966E+03
 -4.67444E+02  9.23140E+02 -9.59036E+02  9.82394E+02 -3.97069E+02 -2.90939E+02 -2.24855E+02  7.80306E+02
  4.81503E+03  1.19669E+03 -6.77966E+01  4.16548E+03 -2.45438E+03  2.63104E+03  1.92428E+03  1.71920E+03
 -3.15319E+02  4.32762E+02 -1.20311E+03 -1.40898E+02  1.15194E+03 -2.26387E+03 -8.38716E+02  1.71672E+03
 -2.33386E+03  1.20079E+03 -1.46787E+03  5.01513E+03 -9.16749E+02 -7.45394E+01 -2.82087E+03  2.26176E+03
  7.59422E+03 -4.29494E+03  4.71473E+03 -3.58077E+03  9.00552E+00 -2.33120E+03  8.62488E+03 -7.33631E+02
  3.70202E+02  2.32844E+03  2.41216E+03  1.84019E+03 -2.07053E+02  6.08398E+03 -1.75516E+03 -2.80154E+03
  6.19120E+02  2.96900E+03 -1.67922E+03  3.25334E+03 -2.94474E+03 -6.72324E+00 -5.71748E+02  7.33557E+02
 -2.91882E+03 -3.31414E+02 -2.20902E+01  3.94094E+03  3.30878E+03 -3.25974E+03  3.25583E+03 -6.06638E+03
 -3.03551E+03  2.10095E+03  4.35600E+02 -2.33255E+03  2.78853E+03  3.02763E+02 -5.51458E+03  1.26224E+01
 -3.78886E+02  3.66804E+03 -3.39128E+03  5.45963E+01 -2.37410E+03  8.21138E+02 -4.25273E+03  1.87869E+03
  1.54764E+02 -3.98437E+03 -4.79410E+02 -1.28283E+03 -1.27545E+03 -1.64845E+03  4.80370E+02 -2.27120E+02
 -1.38819E+02 -3.20240E+03  3.34083E+03 -9.36749E+02 -8.80982E+02  6.02253E+02 -1.96349E+03  1.86348E+03
  3.31054E+02 -3.51656E+03  2.32729E+02  5.46143E+02  2.62845E+03  1.48636E+03 -4.63998E+02  1.16699E+03
 -1.07131E+03  4.48404E+03 -4.26182E+03 -1.50316E+03  2.52149E+02 -2.39027E+03 -7.18040E+02 -1.61813E+02
 -6.42143E+02 -2.38430E+03 -3.18922E+03  9.25673E+02  4.87296E+03 -3.12479E+03  6.07251E+03 -2.80681E+02
 -3.16124E+03 -4.15236E+03  3.08928E+03 -1.22149E+03 -2.61184E+03 -1.40096E+02  9.28445E+02  4.13291E+02
  2.66428E+03  1.65350E+03  3.60600E+03  4.88456E+02 -2.75257E+02  1.41823E+03 -5.31896E+03  2.52531E+03
  6.71851E+03  1.66652E+03  5.27594E+03 -2.34972E+03  5.60888E+02  1.29203E+03 -3.13762E+03  3.53365E+03
 -9.43759E+02  2.15722E+03 -2.94316E+03  6.91137E+03  2.69086E+03  1.67461E+02 -1.46446E+03  4.29904E+03
