 $NMID ID='MM_0lb_SNR50_16hz_g50_61.RAW', FMTDAT='(8E13.5)'
 TRAMP=1., VOLUME=1. $END
  3.10474E+05 -9.20627E+02  3.39765E+05  2.48281E+05  8.25844E+04  3.32403E+05 -1.34794E+05  2.50329E+05
 -1.94369E+05  8.25253E+04 -1.14395E+05 -3.21192E+04  3.11387E+02 -4.88923E+04  5.48723E+04  2.80936E+03
  3.46034E+04  5.44458E+04 -1.49537E+04  7.41832E+04 -5.93991E+04  6.62019E+04 -8.21304E+04  3.41307E+04
 -7.91379E+04 -1.40728E+04 -5.51314E+04 -4.55003E+04 -1.63023E+04 -6.70787E+04  3.62666E+04 -4.49091E+04
  3.79749E+04  1.49634E+03  2.00335E+04  4.87383E+04 -3.35319E+04  4.42438E+04 -6.85112E+04 -4.95043E+03
 -5.44062E+04 -5.73939E+04 -4.99013E+03 -7.54590E+04  3.70940E+04 -5.08180E+04  4.90853E+04 -1.76030E+04
  4.79052E+04  1.03586E+04  3.04478E+04  2.00631E+04  1.71506E+04  3.05168E+04 -5.99037E+03  2.67717E+04
 -2.36902E+04  1.11764E+04 -1.94727E+04 -1.43522E+03  9.24653E+03 -9.03078E+03  1.55216E+04  1.38148E+04
  9.28587E+03  3.39116E+04 -3.49993E+04  3.31120E+04 -6.03847E+04  2.91489E+03 -5.67145E+04 -3.97274E+04
 -7.34494E+03 -6.08801E+04  3.48245E+04 -4.13797E+04  5.70650E+04 -1.14966E+03  3.58682E+04  3.58880E+04
 -2.08090E+03  3.27319E+04 -3.42917E+04  1.55321E+04 -2.87072E+04 -4.65312E+03 -1.84239E+04 -1.28256E+04
 -6.01760E+03 -1.14553E+04  9.45206E+00 -1.33461E+04  8.37814E+03 -2.38592E+04  1.57459E+04 -1.05802E+04
  1.17517E+04  9.39997E+03 -9.11132E+03  1.65706E+04 -1.99709E+04 -2.81666E+03 -1.07777E+04 -3.41567E+04
  2.38312E+04 -4.63618E+04  5.03033E+04 -1.77770E+04  4.47342E+04  1.76444E+04  1.78189E+04  4.76403E+04
 -1.78423E+04  2.81725E+04 -2.53062E+04 -4.26472E+02 -7.45068E+03 -2.78476E+04  1.84306E+04 -3.17261E+04
  3.94418E+04 -7.67648E+03  3.24531E+04  2.82383E+04  1.76033E+04  4.50661E+04 -7.92269E+03  4.59598E+04
 -3.27652E+04  3.22299E+04 -4.00672E+04  1.06553E+04 -4.23694E+04 -2.27866E+04 -2.59740E+04 -3.48434E+04
  9.03074E+03 -3.85282E+04  3.32748E+04 -1.32605E+04  2.91765E+04  8.67463E+03  4.33617E+03  2.25248E+04
 -1.35007E+04  4.60854E+03 -1.32605E+04 -9.97546E+03  4.81543E+03 -9.90753E+03  1.64109E+04  2.81215E+03
  8.87174E+03  2.17388E+04 -9.16762E+03  2.22337E+04 -1.65934E+04  1.29937E+04 -2.38750E+04 -5.57943E+03
 -2.01928E+04 -1.76088E+04 -8.01157E+03 -1.65781E+04  8.78643E+02 -1.58043E+04  1.04802E+04 -1.29732E+04
  2.82700E+04 -1.31519E+04  3.18251E+04  3.64810E+03  2.15898E+04  1.52463E+04  8.91914E+03  3.36199E+04
 -1.46468E+04  2.79194E+04 -3.19616E+04  1.15519E+04 -2.32325E+04 -1.08106E+04 -6.77124E+03 -1.22375E+04
 -2.92004E+02 -1.26653E+02 -3.49541E+03  5.67478E+03 -1.13509E+04  1.59884E+03 -1.64515E+04 -6.32691E+03
 -1.33657E+04 -2.25877E+04  5.59397E+03 -2.25595E+04  1.62320E+04 -1.29118E+04  1.80469E+04 -5.37079E+03
  9.56899E+03  1.03950E+04  1.41363E+03  1.51190E+04 -1.20855E+04  1.47340E+04 -1.98701E+04 -4.97130E+03
 -1.44350E+04 -1.60457E+04  1.58288E+03 -1.94120E+04  6.33843E+03 -1.60771E+04  1.88404E+04 -8.50238E+03
  1.40528E+04 -1.31563E+03  9.27809E+03  7.49644E+03  6.25116E+03  1.85454E+03  8.75020E+03 -4.15023E+02
  1.63099E+04 -9.20153E+02  2.04246E+04  9.87285E+03  1.05944E+04  3.24557E+04 -7.49511E+03  3.21665E+04
 -2.03327E+04  2.59431E+04 -3.40810E+04  1.23698E+04 -2.55221E+04 -1.20387E+03 -2.88914E+04 -1.69478E+04
 -1.19722E+04 -2.61523E+04  8.67861E+03 -1.97599E+04  2.02176E+04 -6.37550E+03  1.85366E+04  5.55269E+03
  8.88665E+03  1.46289E+04 -1.38134E+04  8.38644E+03 -1.61692E+04  1.16089E+03 -1.05909E+04 -1.03781E+04
 -4.54437E+03 -1.77769E+04  7.01707E+03 -1.41586E+04  6.31416E+03  9.40262E+01  6.43404E+02  3.71785E+03
 -2.88911E+03  1.31665E+03 -5.49204E+03  3.05559E+02 -4.53956E+02 -1.77745E+04  5.65001E+03 -1.38791E+04
  1.53741E+04 -8.28066E+03  1.18368E+04  3.23108E+03  1.64616E+04  1.28761E+04  3.56250E+03  1.06224E+04
 -5.01907E+03  2.13026E+04 -1.56225E+04  1.14792E+04 -1.38667E+04  3.01246E+03 -1.09332E+04 -1.17749E+03
 -5.79069E+03 -1.44818E+03 -1.13463E+03  3.57209E+02 -2.22822E+03  2.50434E+03 -5.97181E+03  4.11885E+03
 -1.01390E+04 -3.02665E+03 -1.27193E+04 -5.20558E+03 -3.68585E+03 -1.36810E+04  7.61909E+03 -1.09673E+04
  1.23418E+04 -7.21914E+02  8.08679E+03  1.51810E+03 -3.72371E+03  3.33144E+03 -1.60936E+03  9.41859E+02
 -4.23081E+03 -7.32951E+03 -1.46048E+03 -8.22405E+03  3.57815E+03 -9.37582E+03  1.62159E+04  5.32086E+02
  1.35904E+04  3.83050E+03  1.01475E+04  8.13002E+03  8.12691E+03  6.38303E+03 -4.78600E+03  8.83848E+03
 -7.13955E+03  2.13900E+03 -5.98167E+03 -6.53573E+02  2.56426E+03 -2.79262E+03  1.14015E+04  1.21944E+03
  8.23425E+03  2.64503E+03 -1.32393E+03  1.11368E+04 -7.03583E+03  6.26126E+03 -9.49284E+03  3.04671E+03
 -8.26883E+03 -5.94990E+03  8.00536E+02 -8.69960E+03  3.56431E+03 -7.33723E+03  4.70451E+03  4.74189E+03
  1.99250E+03  3.41777E+03  1.64763E+03  6.67467E+03 -5.61172E+03  6.06446E+03 -8.22286E+03 -1.51303E+03
 -3.71896E+03 -8.10069E+03  2.00200E+03 -1.10041E+04  1.06423E+04 -9.90930E+03  6.07603E+03  1.70360E+03
 -3.92757E+03  7.60514E+03 -8.58968E+02  9.60626E+03  5.44682E+02  3.88562E+03 -5.92320E+03  2.51495E+02
 -4.14752E+03 -4.59116E+03 -8.93179E+02 -2.18772E+03  6.29932E+03 -2.65827E+03  4.36382E+03 -2.61379E+03
  4.22893E+03 -7.62549E+02  5.72250E+02  1.67936E+03 -2.24334E+03 -1.10835E+03  7.62512E+02 -1.27884E+03
  6.22362E+03  3.90983E+03  7.31584E+03 -9.22353E+02  5.12776E+03  8.33557E+03  9.56647E+03  7.79499E+03
  5.81200E+02  1.38877E+04 -1.10014E+04  8.27041E+03 -1.38293E+04 -3.68349E+03 -1.17783E+04 -4.03856E+03
 -7.95920E+03 -7.12042E+03 -8.84481E+02 -8.79428E+03  3.97980E+03 -8.98642E+03  3.25293E+03 -4.53008E+03
  1.09346E+03 -4.19799E+03 -2.36281E+03 -2.35999E+03  2.13138E+03 -2.13557E+03  6.16101E+03  4.90101E+03
  4.26352E+03  1.18830E+03 -1.23330E+03  2.45912E+03 -4.88615E+02  3.23170E+03 -5.59169E+03  3.46776E+03
 -7.17297E+03  1.29404E+03 -1.84823E+03 -8.36350E+03 -4.79247E+02 -8.07028E+03  6.77491E+03 -1.04135E+04
  8.49415E+03 -6.30313E+03  1.08288E+04  3.83967E+03  7.45551E+03  2.04544E+03  3.31622E+03  8.63658E+03
 -1.92957E+03  8.56395E+03 -1.01459E+03  1.54914E+03 -4.02050E+03  1.13420E+03  2.83033E+02  5.94125E+02
 -2.06597E+03 -1.28370E+03 -7.13106E+01 -8.37675E+02 -1.67454E+03  1.47133E+03 -3.67691E+03  1.99971E+03
  1.34744E+03 -7.30450E+02 -9.81076E+02 -7.20383E+03  3.78788E+03 -4.02061E+03  5.61625E+03 -4.58725E+03
  6.27158E+03  2.93923E+03  1.43996E+03  6.15588E+03 -1.16462E+03  5.12855E+03 -7.49746E+03  5.43416E+03
 -4.90632E+03 -2.87823E+03 -6.29803E+03 -6.57643E+03 -4.23793E+03 -6.83096E+03 -7.51613E+02 -4.84715E+03
  7.40050E+03  2.15294E+03  7.78647E+03  1.44197E+03  5.61766E+03  1.95446E+03  3.23851E+03  4.45539E+03
 -1.89820E+03 -3.09452E+03 -4.09713E+02  5.56919E+03  7.11080E+02  3.45855E+03  2.80451E+02  1.72505E+03
  1.03464E+03  1.94384E+03 -4.14834E+03  5.90074E+03 -6.15763E+03 -3.56096E+02 -4.93037E+03 -1.45518E+03
 -1.56211E+03 -2.69552E+03 -2.05264E+03 -3.19675E+03  3.13897E+03 -3.72833E+03  7.11694E+03 -5.61877E+02
  1.07828E+03  1.22450E+03 -2.97310E+03  2.43202E+03  5.40111E+03  1.00184E+03  1.31123E+03  4.01749E+03
  8.50426E+02 -4.70038E+03  6.20418E+03  1.80709E+03  2.06276E+03 -5.21476E+02  7.46152E+02  7.12012E+02
 -6.97082E+02 -4.52443E+03  4.74635E+03 -8.48058E+02  9.32214E+02  2.63450E+03 -2.03736E+03 -6.18229E+02
  3.39611E+03 -5.79763E+03  7.38952E+03 -9.11049E+02 -7.93856E+02  3.55035E+03 -1.17963E+03  3.39088E+03
 -3.91103E+03  3.85061E+03  1.95504E+02 -2.46120E+03 -6.99710E+03 -5.63974E+03  7.77286E+02 -3.69541E+03
  1.04291E+03 -9.19093E+02  4.33630E+03 -1.26634E+02  1.64347E+03  3.46530E+03 -1.49180E+03  3.63817E+03
 -2.17513E+03  4.42395E+03 -7.32649E+03 -1.01949E+03 -2.40455E+03 -4.35797E+03 -2.36043E+03 -1.52361E+03
  1.98672E+03 -2.37783E+03 -1.22641E+03 -4.17942E+02  3.65329E+02  1.76831E+03  2.40204E+03  4.02591E+03
 -8.77103E+02 -3.05282E+02 -7.86947E+02 -2.23608E+03 -2.62388E+03 -3.83899E+03  2.10343E+03 -3.14525E+03
  4.06523E+03 -2.95452E+03  1.74875E+03 -6.30163E+02  4.10525E+03  5.08872E+03 -2.66533E+02 -1.36829E+03
  1.75037E+03 -3.70750E+03 -3.49658E+03  7.50846E+02 -6.67085E+02 -3.28964E+03  4.80626E+02 -1.94322E+03
  7.24636E+02  2.78675E+03  8.36988E+02  4.14152E+03 -1.51545E+03  1.99599E+03 -3.45629E+03  6.40443E+03
  2.24724E+03  4.46295E+02  2.31135E+03 -2.86125E+03 -7.02791E+01  3.13113E+02 -2.90800E+03  5.60791E+02
 -1.06874E+03 -2.65684E+02 -5.37710E+02 -2.68526E+03 -2.88059E+03  1.69789E+03 -3.09574E+03 -1.45965E+03
  6.86404E+02 -1.82559E+03  7.16445E+02  4.61005E+02  1.07782E+03 -5.37395E+03  9.27205E+03 -2.64933E+03
 -9.62071E+02 -1.08276E+03  1.92466E+03  1.70086E+03  6.45204E+02  1.41998E+03  2.19392E+03  1.23254E+03
 -4.86866E+03  2.97345E+03 -2.09536E+02  1.63773E+03 -2.09488E+03  5.88939E+02 -3.53509E+03  3.08471E+03
  1.72188E+03  1.29219E+03 -1.18005E+03 -1.76576E+03  1.19780E+03 -8.01774E+02  1.66466E+03  9.33989E+02
  5.58730E+03  7.65269E+01  6.84247E+01  1.83973E+03  7.31423E+02  4.03211E+03  1.73892E+03  3.38607E+03
 -2.77757E+02  5.96915E+03  2.53419E+03  2.36921E+03 -1.75505E+03 -2.18320E+03 -3.28541E+03 -1.63685E+03
  1.58918E+03 -7.50692E+03  6.62488E+02 -1.52701E+03  1.53325E+03  7.61426E+02  1.51098E+03 -2.45440E+01
  1.57134E+03  1.67114E+03  2.66189E+03  2.40790E+03  6.89898E+02  1.08464E+03 -7.75848E+02  2.45862E+03
  1.08854E+03  1.28741E+03 -3.40255E+03  4.32919E+03 -1.25322E+03  1.13354E+03  3.32604E+03  2.75081E+03
 -1.65151E+03  1.29626E+03 -3.71103E+03  1.15214E+03 -3.75023E+02 -2.72649E+03 -4.96445E+02 -4.50865E+03
  7.15052E+02  2.98289E+03  1.53797E+02  1.86034E+03 -9.63405E+02  5.75252E+02  4.22245E+03  1.03135E+03
  3.54359E+03  7.49726E+02  3.36861E+03  3.23498E+03 -2.31041E+03  2.37264E+03  3.22107E+03  1.85561E+03
  7.54193E+02 -1.05124E+03  6.29362E+02  5.69107E+03  3.22939E+03  1.04317E+03 -1.63189E+02 -2.65770E+03
  4.79048E+03 -3.37549E+03 -4.25308E+03 -7.14575E+03 -2.68035E+02 -3.72643E+03  1.67892E+03  3.54524E+03
  1.13981E+03 -1.50855E+03  3.56724E+03  4.84039E+02 -2.16077E+03  5.00609E+03  2.05895E+03  7.55879E+02
