 $NMID ID='MM_0lb_SNR50_8hz_g55_70.RAW', FMTDAT='(8E13.5)'
 TRAMP=1., VOLUME=1. $END
  3.10526E+05  2.98121E+03  3.36136E+05  2.49478E+05  7.56883E+04  3.39645E+05 -1.34444E+05  2.55631E+05
 -1.92095E+05  8.53804E+04 -1.15230E+05 -3.95116E+04  5.44483E+03 -4.89510E+04  4.88447E+04 -4.39212E+03
  3.91245E+04  5.25615E+04 -1.22006E+04  7.30324E+04 -6.45570E+04  6.93065E+04 -9.19423E+04  3.16263E+04
 -8.08588E+04 -6.95269E+03 -5.12093E+04 -4.55107E+04 -1.36879E+04 -6.86425E+04  2.77417E+04 -4.43792E+04
  4.28142E+04  6.79017E+03  1.77672E+04  4.54227E+04 -3.30219E+04  4.68990E+04 -7.46748E+04 -2.58205E+02
 -5.80574E+04 -5.85124E+04 -8.61374E+03 -8.18032E+04  3.57490E+04 -4.93664E+04  4.94145E+04 -1.83342E+04
  4.66536E+04  1.47301E+04  2.51493E+04  2.62160E+04  2.44730E+04  3.08871E+04 -2.93361E+03  2.39697E+04
 -2.05951E+04  8.89467E+03 -1.67258E+04 -9.27418E+03  6.75510E+03 -9.98386E+03  3.02861E+04  1.30868E+04
  6.84282E+03  3.28030E+04 -3.18248E+04  3.10393E+04 -5.87818E+04  1.19492E+03 -5.20416E+04 -3.67800E+04
 -9.22604E+03 -6.44643E+04  4.27117E+04 -4.83898E+04  6.27944E+04 -2.50927E+03  3.56880E+04  3.36807E+04
 -9.04251E+03  4.23980E+04 -3.79704E+04  2.58175E+04 -3.50728E+04 -4.83895E+03 -1.90872E+04 -1.28655E+04
 -9.86267E+03 -1.14837E+04 -5.86491E+03 -2.07768E+04  4.61016E+03 -2.06645E+04  1.49672E+04 -1.73532E+04
  1.93732E+03  8.88626E+03 -2.05131E+04  1.51463E+04 -2.28721E+04 -4.14657E+03 -9.03991E+03 -3.93067E+04
  2.14513E+04 -5.31850E+04  6.31338E+04 -1.95463E+04  5.66416E+04  2.07614E+04  1.73335E+04  5.19712E+04
 -1.93122E+04  3.52176E+04 -2.63809E+04 -3.27967E+03 -1.35828E+04 -2.96600E+04  1.39396E+04 -3.76344E+04
  4.19814E+04 -1.66581E+04  4.16587E+04  3.20108E+04  2.48798E+04  4.69938E+04 -6.64986E+03  6.32736E+04
 -4.03548E+04  3.97220E+04 -5.41264E+04  7.58014E+03 -5.29896E+04 -2.38285E+04 -2.80225E+04 -4.57893E+04
  6.48167E+03 -4.70817E+04  2.64063E+04 -2.16169E+04  3.74641E+04  1.33852E+04  7.48454E+03  2.35991E+04
 -1.35701E+04  1.10344E+04 -1.11904E+04 -9.60996E+03  6.55775E+03 -1.26701E+04  1.14098E+04  3.99734E+03
  1.48936E+04  2.19668E+04 -7.40067E+03  2.71078E+04 -3.08142E+04  1.03574E+04 -3.97955E+04 -5.87227E+02
 -2.35892E+04 -1.94300E+04 -1.81905E+04 -2.93450E+04  7.28565E+03 -2.69452E+04  2.25396E+04 -2.61386E+04
  3.39910E+04 -2.00347E+04  3.66786E+04 -1.38853E+03  3.23202E+04  1.98930E+04  5.51291E+03  4.09516E+04
 -2.07750E+04  3.36551E+04 -3.22254E+04  1.28053E+04 -1.95066E+04 -7.01771E+03 -8.26464E+03 -1.28115E+04
  3.17754E+03 -7.53213E+02 -9.66609E+03  9.52815E+03 -2.42334E+04  3.62967E+03 -2.17111E+04 -8.02378E+03
 -1.45069E+04 -2.44341E+04  3.58338E+03 -2.45724E+04  1.44332E+04 -1.83185E+04  2.39749E+04 -7.57792E+03
  1.52761E+04  1.95246E+04 -4.22530E+03  2.34903E+04 -1.12386E+04  8.83706E+03 -2.83875E+04 -9.06898E+02
 -1.83852E+04 -2.18727E+04 -8.80043E+02 -2.54687E+04  1.52172E+04 -2.49757E+04  3.13457E+04 -1.60570E+04
  1.84098E+04 -3.13147E+03  1.82646E+04  1.51329E+03  1.23025E+04 -4.17938E+03  8.93152E+03 -6.35558E+03
  2.44452E+04  1.00089E+03  2.49415E+04  2.78923E+04  1.55130E+04  3.95125E+04  3.40101E+03  4.87160E+04
 -2.75156E+04  4.21275E+04 -4.69878E+04  2.14071E+04 -4.34043E+04  2.65291E+03 -4.06763E+04 -3.04683E+04
 -2.01621E+04 -4.12869E+04  1.91989E+04 -3.06673E+04  3.13647E+04 -1.91975E+04  2.54428E+04  9.83090E+03
  9.41849E+03  2.30166E+04 -1.08967E+04  1.52088E+04 -2.26124E+04  1.05707E+04 -1.78058E+04 -1.27349E+04
  4.36932E+02 -1.83556E+04  9.50974E+03 -2.07032E+04  1.30077E+04  4.56328E+03 -1.11616E+03  7.13377E+03
 -5.03871E+03  1.07813E+04 -1.24313E+04 -7.18219E+03 -4.19130E+03 -1.54531E+04  9.68260E+03 -2.50271E+04
  2.56668E+04 -1.40691E+04  3.37460E+04  3.24058E+02  2.44258E+04  2.14066E+04  6.40791E+03  3.11185E+04
 -1.16445E+04  3.56513E+04 -1.95867E+04  1.88102E+04 -2.68566E+04  6.02691E+03 -1.43730E+04 -4.63771E+03
 -5.94762E+03 -3.62620E+03  4.95486E+02  2.61336E+03 -3.22136E+03  6.96528E+02 -7.70962E+03  4.80091E+03
 -9.28762E+03 -7.32728E+03 -1.77987E+04 -1.84214E+04 -8.78871E+02 -2.67296E+04  6.11010E+03 -1.36595E+04
  1.20022E+04 -1.07026E+04  8.67442E+03  1.06190E+04 -1.16992E+03  8.24515E+03 -1.02136E+04 -4.40365E+02
 -9.69621E+03 -9.06660E+03  4.86854E+02 -9.90031E+03  1.13715E+04 -1.50435E+04  2.17329E+04 -3.01424E+03
  2.92726E+04 -1.33660E+02  2.87765E+04  1.50159E+04  2.26408E+03  2.28141E+04 -1.19495E+04  1.61594E+04
 -1.71345E+04  3.48070E+03 -8.29954E+03 -6.01537E+03  6.67732E+03 -3.21067E+03  1.10700E+04 -7.00827E+02
  1.08897E+04  8.86982E+03 -2.40661E+03  1.98489E+04 -6.86995E+03  1.06387E+04 -1.65516E+04 -4.09448E+03
 -1.08767E+04 -1.45421E+04 -5.04471E+03 -1.59549E+04  1.05090E+04 -8.58386E+03  1.38276E+04  5.11220E+03
  2.37645E+03  1.13344E+04 -1.26278E+04  1.01151E+04 -1.20679E+04  2.38346E+03 -1.99360E+04 -6.97648E+03
 -5.44610E+03 -2.04108E+04 -1.03822E+03 -2.13855E+04  2.31016E+04 -1.95300E+04  2.51530E+04 -1.47060E+01
  1.31836E+04  7.38033E+03  1.10722E+03  1.94069E+04 -7.71359E+03  9.78180E+03 -1.56165E+04  8.12984E+03
 -6.60965E+03 -1.53616E+04 -9.39170E+03 -1.19634E+04  6.11777E+03 -1.16888E+04  7.56013E+03  1.22496E+03
  3.82534E+03  5.19313E+03 -6.66101E+03  3.38054E+02  2.30302E+01 -1.78677E+03  4.43251E+03 -1.28502E+04
  1.66157E+04 -3.70236E+03  1.33804E+04  4.79202E+03  1.56516E+04  1.45486E+04  1.63158E+04  2.85212E+04
 -9.88125E+03  2.70076E+04 -2.08516E+04  2.09706E+04 -3.31004E+04  1.33834E+04 -2.32435E+04 -1.04733E+04
 -1.00526E+04 -2.44909E+04 -5.26824E+03 -1.67851E+04 -6.78215E+02 -1.15911E+04  7.38013E+03 -6.29151E+03
  8.19339E+03  2.24505E+03  9.70554E+03 -2.70530E+03  6.26750E+03 -9.68836E+03  6.58247E+03  4.54756E+03
  4.39442E+02 -1.17695E+02  9.81763E+03  5.45058E+03 -1.79522E+03  1.68779E+04 -7.58846E+03  1.24479E+04
 -1.75747E+04 -3.42730E+03 -3.44071E+03 -8.36784E+03  2.60202E+03 -2.37313E+04  8.25368E+03 -2.09276E+04
  2.47514E+04 -9.66288E+03  1.87710E+04  1.18900E+03  1.18283E+04  1.29525E+04 -1.82741E+03  9.37111E+03
 -1.12342E+03  1.67696E+04 -1.51475E+04  3.08852E+03 -9.98395E+03 -2.26285E+03 -8.14710E+03 -3.43437E+02
 -3.13095E+03  1.50141E+03 -9.21820E+03  4.57034E+02 -6.10959E+03  7.41455E+03 -8.05927E+03 -4.39280E+03
 -1.35763E+04 -1.12675E+04  2.82715E+03 -1.58420E+04  1.06059E+04 -1.48019E+04  2.02827E+04 -3.27287E+03
  1.50585E+04  1.06051E+04  7.73308E+03  2.15297E+04 -1.01464E+04  2.01140E+04 -1.21802E+04  1.93426E+03
 -1.23343E+04 -2.85948E+03 -1.16222E+04  2.88483E+03  6.08558E+03 -1.97197E+04  5.62673E+03 -1.64616E+04
  5.72988E+03 -2.40843E+03  7.90810E+03  5.39861E+03  4.27457E+03  8.06516E+03 -3.92289E+03  6.39212E+03
 -2.71393E+03  5.42297E+03  4.91156E+03 -1.65878E+03  6.76492E+03  2.25951E+03  3.81760E+02  1.19748E+04
 -5.37472E+03  1.51748E+04 -1.12080E+04  1.62301E+04 -1.99979E+04  1.65060E+02 -1.51637E+04 -7.27007E+03
 -1.38424E+04 -1.31611E+04  5.04780E+03 -1.58127E+04  1.35977E+04 -1.54960E+04  1.43969E+04 -5.54633E+03
  1.54643E+04  3.29929E+03  5.37810E+03  3.56926E+03 -4.78958E+03  1.15083E+04 -9.56407E+03  5.72265E+02
 -2.12686E+03 -3.67021E+03  1.08649E+04 -1.35115E+04  3.68725E+03 -2.93347E+02  5.25705E+01 -7.29460E+02
  4.51542E+03  9.68014E+02  2.42419E+03  4.38144E+03  4.42970E+03  5.35527E+03  4.38604E+03  2.77796E+03
  5.12043E+03  1.51120E+03  1.40554E+04  4.19028E+03  2.97242E+03  8.37180E+03 -2.76675E+03  1.97372E+04
 -1.23178E+04  8.72264E+03 -1.29762E+04 -4.58907E+02 -1.86367E+04 -3.03161E+02 -1.19850E+04 -9.05275E+03
  1.05631E+04 -1.05335E+04  1.04521E+04 -3.93735E+03  1.30465E+04  7.97164E+03  2.37433E+03  4.58793E+03
 -5.81898E+03 -1.74695E+03 -6.03360E+03 -9.78394E+02 -1.05527E+04 -5.19572E+03  4.82946E+02 -1.07660E+04
  7.59454E+03 -1.12831E+04  8.51607E+03 -2.28837E+03  6.67282E+03  5.42251E+03  2.16167E+03 -7.26907E+03
 -2.20156E+03  7.97292E+02 -3.74084E+03 -1.44043E+03  2.94931E+02 -5.90622E+03  4.64014E+03 -6.53779E+03
  8.75561E+03 -1.08940E+02  7.58295E+03  9.48703E+03  5.41081E+02  1.06516E+04 -3.34445E+03  1.31037E+04
 -1.07756E+04  4.44563E+03 -5.50000E+03  5.92329E+03 -8.62945E+02 -9.48455E+03  3.71853E+01 -1.10448E+04
  1.06788E+04 -5.77938E+03  2.01759E+03  5.67033E+03  6.52809E+03  3.90871E+03 -6.51655E+03  1.07919E+04
 -1.40469E+03  1.81207E+03  4.46373E+03  4.71086E+02 -2.84863E+03  5.99317E+02  3.16935E+03  7.66437E+02
 -1.88365E+03  1.15322E+04 -8.13447E+03  1.51013E+04 -1.65267E+04  1.25725E+04 -1.46789E+04 -8.17402E+02
 -1.09865E+04 -2.07330E+04  4.58062E+03 -1.77037E+04  9.33507E+03 -1.71012E+04  1.58325E+04 -4.13706E+03
  1.48823E+04  8.16306E+03  1.28792E+03  4.38919E+03  6.09342E+03  1.29324E+04 -5.38730E+03  5.56860E+03
 -1.01526E+04  5.38945E+03 -3.90254E+03 -6.39014E+02 -2.84294E+03 -6.06387E+03 -2.82079E+03  2.26519E+03
  1.00270E+03  8.24209E+02 -1.17203E+04  4.06518E+03  7.52149E+02  1.33556E+03  6.73271E+02 -1.81320E+03
  3.26825E+03 -6.91139E+03  1.08589E+04  1.04837E+03  1.02405E+04  4.95530E+03  1.39722E+03  1.97740E+04
 -5.97117E+03  1.60664E+04 -1.09836E+04  6.30349E+03 -2.12116E+04 -3.45051E+03 -1.04488E+04 -1.42447E+04
 -1.90105E+03 -1.51705E+04  3.41725E+03 -2.19208E+04  9.67916E+03 -1.57608E+03  1.55459E+04 -4.01676E+03
  2.35979E+03 -1.35086E+03 -6.66068E+01 -6.74161E+03 -6.48009E+02 -7.05328E+03  5.02934E+03 -2.15905E+03
  8.32303E+02 -7.24302E+03  5.48896E+03  1.35425E+03  8.72521E+03  1.09732E+02 -4.30242E+01  9.60637E+03
 -8.07421E+03  8.13065E+03 -1.11052E+04  9.96119E+03 -9.08598E+03 -1.15488E+04 -6.41382E+03 -1.07794E+04
  6.42734E+03 -1.04309E+04  5.40190E+03 -6.78128E+03  1.48755E+04 -5.30944E+03  3.70065E+03  9.45582E+03
  4.32946E+03  1.38872E+04 -3.06259E+02 -4.40469E+03 -9.18858E+02  2.29487E+03 -8.50168E+03  7.41552E+03
 -3.79799E+03 -3.41534E+02 -3.97030E+03 -6.16924E+02  6.65151E+02 -6.22758E+02 -6.92252E+03 -1.26298E+03
 -4.86719E+03 -8.24327E+03  1.28677E+03 -9.36663E+03  3.25962E+03 -6.12401E+03  7.17770E+03  1.73739E+02
  8.21340E+03 -1.98686E+03  7.28707E+03  1.45428E+04 -1.51961E+03  1.36917E+04 -5.46140E+03  7.24269E+03
