 $NMID ID='MM_0lb_SNR50_13hz_g50_57.RAW', FMTDAT='(8E13.5)'
 TRAMP=1., VOLUME=1. $END
  3.06368E+05  2.03651E+03  3.34678E+05  2.53799E+05  8.33387E+04  3.37295E+05 -1.35065E+05  2.58763E+05
 -1.91164E+05  8.40884E+04 -1.13339E+05 -3.32075E+04  4.44820E+03 -4.93810E+04  5.36510E+04 -2.72378E+03
  3.64344E+04  5.45368E+04 -1.51421E+04  7.58898E+04 -5.84465E+04  6.71391E+04 -8.10466E+04  3.72634E+04
 -7.88230E+04 -1.22063E+04 -5.91370E+04 -5.34673E+04 -1.84880E+04 -7.09192E+04  2.45618E+04 -4.71065E+04
  3.27750E+04  6.29527E+03  1.87750E+04  5.15911E+04 -3.50454E+04  4.84890E+04 -6.27269E+04 -1.35434E+03
 -5.88758E+04 -5.85864E+04 -4.42895E+03 -8.03829E+04  3.13361E+04 -5.39082E+04  5.10998E+04 -1.45527E+04
  4.64341E+04  8.99577E+03  3.43002E+04  2.58267E+04  9.15283E+03  3.44373E+04 -9.62734E+03  2.76211E+04
 -2.17986E+04  1.30303E+04 -1.72554E+04 -3.57440E+03  8.48659E+03 -6.30525E+03  2.16883E+04  1.25851E+04
  5.48718E+03  3.48326E+04 -3.53378E+04  3.93515E+04 -6.07108E+04  2.49380E+03 -6.37486E+04 -4.55405E+04
 -1.59013E+04 -6.35090E+04  4.05204E+04 -4.20927E+04  5.72181E+04 -1.84376E+03  3.24158E+04  3.55131E+04
 -3.65554E+03  3.71515E+04 -3.79246E+04  1.61260E+04 -3.18175E+04 -3.41583E+03 -2.21177E+04 -1.23028E+04
 -1.07586E+04 -1.50172E+04 -1.72028E+03 -1.41077E+04  1.17025E+03 -1.97833E+04  1.62936E+04 -1.57011E+04
  1.43257E+04  6.50210E+03 -9.08546E+03  1.99566E+04 -1.97254E+04 -5.59293E+03 -8.52218E+03 -3.39071E+04
  2.68905E+04 -4.53987E+04  5.31973E+04 -2.02495E+04  4.14477E+04  2.05495E+04  1.24605E+04  4.27886E+04
 -1.40620E+04  3.35031E+04 -2.25608E+04  1.70566E+02 -1.28196E+04 -2.94583E+04  1.87627E+04 -3.17798E+04
  4.43840E+04 -5.35934E+03  4.16497E+04  2.37460E+04  1.79413E+04  4.58073E+04 -8.70040E+03  4.98781E+04
 -2.77174E+04  3.60181E+04 -4.78852E+04  1.16593E+04 -4.02712E+04 -1.69628E+04 -2.24898E+04 -3.71183E+04
  1.52011E+04 -4.04422E+04  3.06857E+04 -1.26524E+04  3.04698E+04  1.27881E+04  4.34211E+03  1.95425E+04
 -1.02313E+04  1.02378E+04 -6.32656E+03 -1.33865E+03  5.08607E+03 -1.20530E+04  9.56148E+03  6.47051E+03
  1.44963E+04  2.43324E+04 -7.34373E+03  2.64006E+04 -2.39857E+04  1.11845E+04 -3.31378E+04 -2.48193E+03
 -2.31019E+04 -1.45986E+04 -1.03591E+04 -1.82709E+04  9.01011E+03 -2.02243E+04  1.37206E+04 -2.53980E+04
  2.89884E+04 -9.26649E+03  3.11870E+04  4.40143E+02  2.48867E+04  1.57895E+04  9.83863E+03  3.82209E+04
 -1.78623E+04  2.88733E+04 -2.84290E+04  1.05490E+04 -2.08056E+04 -1.11107E+04  1.65892E+03 -1.50130E+04
  1.83176E+03 -5.64267E+03 -2.04752E+03  3.29337E+03 -1.54105E+04  1.88613E+03 -1.30534E+04 -5.97198E+03
 -9.20356E+03 -2.30485E+04  9.05204E+03 -2.39498E+04  1.28668E+04 -1.73728E+04  2.06690E+04 -3.06616E+03
  1.16580E+04  1.26033E+04 -4.21835E+03  1.95189E+04 -1.32171E+04  9.45055E+03 -1.95876E+04 -2.44565E+03
 -1.82558E+04 -2.02412E+04 -4.88786E+03 -2.53692E+04  1.36214E+04 -2.52409E+04  1.94972E+04 -1.21468E+04
  1.88856E+04 -9.88277E+01  1.42608E+04 -1.85439E+02  1.26097E+04  1.81984E+03  4.96775E+03 -4.53826E+03
  1.90797E+04  2.87234E+03  2.11874E+04  1.43556E+04  1.82218E+04  2.97578E+04 -4.13198E+03  4.07692E+04
 -2.37932E+04  3.31655E+04 -3.22635E+04  1.45446E+04 -3.13499E+04 -3.29516E+03 -2.78121E+04 -1.69512E+04
 -1.24699E+04 -3.07061E+04  1.04594E+04 -2.84850E+04  2.41658E+04 -5.46266E+03  2.44872E+04  4.88657E+03
  3.79463E+03  1.13446E+04 -1.21433E+04  1.14164E+04 -1.23265E+04 -2.68885E+03 -8.67936E+03 -1.30913E+04
  1.96084E+03 -1.39974E+04  1.01358E+04 -1.43233E+04  1.74354E+04 -7.38004E+03  4.08599E+03  1.12700E+04
 -5.28192E+03 -1.04131E+03 -3.77306E+03 -4.51208E+03 -2.79806E+03 -1.54771E+04  1.02601E+04 -1.52963E+04
  2.43765E+04 -4.07250E+03  1.49049E+04  1.85827E+03  1.97094E+04  1.13991E+04  6.17116E+03  2.09037E+04
 -2.82172E+02  2.06296E+04 -1.91392E+04  1.71882E+04 -1.49793E+04  4.95061E+03 -1.11826E+04 -1.40389E+03
 -2.46193E+03 -1.17973E+03 -4.27383E+03  5.15219E+02 -3.46761E+03  2.29051E+03 -8.85151E+03  2.19152E+03
 -1.05968E+04  3.51711E+03 -4.03924E+03 -6.02937E+03 -3.28610E+03 -1.16293E+04  7.53431E+03 -1.85866E+04
  8.12906E+03 -4.07076E+03  1.57969E+04  5.60145E+02 -5.22246E+03  7.50271E+03 -7.57836E+02 -2.60860E+03
 -8.87610E+03 -7.18598E+03  1.31898E+03 -5.80800E+03  1.44733E+04 -1.18994E+04  1.35918E+04 -1.04233E+04
  1.40135E+04  1.58897E+03  1.27349E+04  9.36020E+03  3.87683E+03  8.75339E+03 -4.83633E+03  1.54118E+04
 -1.81514E+04  5.43977E+03 -3.38682E+03 -2.63140E+03  6.06869E+03  1.81750E+03  1.01957E+04 -4.10264E+03
  4.43093E+03  5.65081E+03  6.18970E+03  9.87828E+03 -6.47348E+03  1.13266E+04 -8.59860E+03  1.37520E+03
 -6.46080E+03 -7.36578E+03  2.46419E+03 -1.11525E+04  1.05511E+04  3.08653E+03  6.96332E+03 -2.35098E+03
  7.24134E+02  1.17297E+04  1.85820E+03  7.75492E+03 -1.13449E+04 -1.86245E+02 -5.27792E+03 -3.57888E+02
 -8.13770E+03 -1.43274E+04  3.43350E+03 -1.83453E+04  1.15922E+04 -6.38793E+03  9.48135E+03 -8.19634E+02
  4.09448E+03  9.26538E+03  1.54422E+03  8.31000E+03 -1.10848E+04  7.42636E+03 -5.88222E+03 -3.04457E+03
 -6.81179E+03 -9.92535E+03 -2.47491E+03 -8.34768E+03  6.86828E+03 -5.00916E+03  1.35561E+04 -2.38179E+03
  2.81182E+03  1.32238E+03 -4.03605E+03  3.10304E+03 -1.90760E+03  4.14788E+03 -1.11972E+03 -5.83222E+03
  7.32201E+03 -6.52084E+03  9.70639E+03  2.48525E+03  1.39644E+04  5.68200E+03  8.91208E+03  1.40754E+04
 -4.93483E+03  1.67135E+04 -1.69256E+04  9.40502E+03 -1.99343E+04 -2.09670E+03 -9.59909E+03 -9.83346E+03
 -6.32514E+03 -1.34498E+04 -8.94542E+02 -1.01303E+04  9.74203E+02 -1.97211E+03  5.34323E+03 -5.40479E+03
  1.80528E+03  3.08978E+03  6.39479E+03 -3.67775E+03 -6.53741E+02 -2.37683E+03  6.39856E+03 -3.44763E+03
  1.00373E+04  7.58896E+02  3.88475E+03  2.30692E+03  5.10023E+03  5.43561E+03 -7.62664E+03  4.40782E+03
 -7.04473E+03 -5.91162E+02 -8.16404E+03 -7.98836E+03  1.70759E+03 -6.55696E+03  2.55467E+03 -8.77703E+03
  1.56187E+04  6.36033E+02  1.40015E+04 -2.34578E+03  5.88877E+03  1.48328E+04  4.69208E+03  1.02995E+04
 -6.10347E+03  6.43147E+03 -5.28591E+03  2.42965E+03 -5.83774E+02 -7.50971E+01 -9.30731E+02 -3.55728E+03
 -4.06880E+03 -3.73312E+03 -1.42086E+03  3.80553E+03  1.78097E+03 -1.88609E+02 -5.41653E+03  7.77309E+01
 -5.11118E+03 -1.57594E+03  1.54364E+03 -6.56887E+03  2.03452E+03 -9.86863E+03  1.03581E+04 -7.81431E+03
  5.70042E+03  2.33530E+03  6.48651E+03  8.97651E+03 -2.68698E+03  8.06068E+03 -5.16006E+03  7.65986E+03
 -1.36459E+04 -1.05595E+02 -6.98422E+03 -5.88315E+03 -4.38230E+03 -7.62312E+03  1.88146E+03 -7.06267E+03
  7.28702E+03 -3.72814E+02  5.26122E+03  3.90049E+03 -1.89106E+03 -1.48396E+03  2.66222E+03  4.53219E+03
  1.40789E+03  1.06542E+03  1.86167E+03  7.62493E+02 -9.66098E+02 -1.90116E+02  1.62621E+03  5.95636E+03
  7.42917E+02  5.80070E+03 -8.97238E+03  9.97612E+03 -6.80703E+03  5.88288E+03 -4.86426E+03 -6.05074E+03
 -4.68144E+03 -9.46241E+03  6.08763E+03 -8.13816E+03  2.39139E+03 -4.96825E+03  8.30276E+03 -1.13290E+03
  3.83751E+03  8.78176E+03  8.51987E+02  4.20804E+03 -2.26544E+03  5.32566E+03  2.89710E+02  6.00621E+02
  1.27913E+03 -2.46163E+03 -1.12869E+03 -4.60571E+03 -4.81035E+02 -2.42274E+03  9.35348E+03  1.41482E+03
  3.66207E+03  4.33468E+03 -2.84816E+03  2.82138E+03 -3.91417E+03 -3.55553E+03  1.87003E+03 -6.34638E+03
  2.20233E+03 -2.27222E+03 -1.17201E+03  8.61052E+01  1.35532E+03  3.37264E+03 -3.11990E+03  8.86728E+03
 -3.15148E+03  2.50925E+03 -1.20343E+03  4.16472E+03 -3.25352E+03 -2.19215E+03  2.29227E+03 -2.28931E+03
  1.22723E+03 -3.21630E+03  7.52147E+02 -1.55931E+02 -3.91935E+03  3.43591E+02 -3.40898E+03  3.53707E+03
 -4.62377E+03  2.72285E+02 -4.83365E+03 -1.21523E+02 -2.15912E+03  2.02170E+01  5.39440E+03 -4.22783E+03
  3.29190E+03 -2.56992E+03  4.80868E+03  5.38218E+01  8.75198E+02 -1.53314E+02 -1.78481E+03  2.19831E+03
 -2.34664E+02  1.49643E+03 -6.29773E+03  2.13581E+03 -4.59690E+03 -4.28793E+02  1.29871E+04  5.34166E+02
  1.79281E+03 -6.83989E+03  9.07372E+03  4.87890E+03  6.85108E+03  5.92201E+03 -3.85110E+03  4.53512E+03
 -1.73153E+03  5.17178E+03 -4.81729E+03 -2.64223E+03 -6.15910E+03 -7.01774E+03 -3.16399E+03 -9.62104E+03
  4.27398E+03 -5.70823E+03  6.34119E+03  1.92341E+03  1.66083E+03  3.80399E+03  2.10189E+02  1.34084E+03
 -2.44096E+03  6.14648E+02 -5.01561E+03  3.08194E+03  2.62379E+03  3.02970E+03 -3.24947E+03  1.46915E+03
 -5.08676E+03  4.63355E+03 -5.09350E+03  2.41623E+03 -1.04641E+04 -3.07557E+03 -6.36296E+03 -2.77491E+03
  1.93256E+02 -9.39462E+03  2.12025E+01 -9.38790E+03  9.50530E+03 -6.18543E+03  3.52465E+03  1.14514E+03
  1.39192E+04  6.98371E+02  7.28245E+02  1.17689E+04 -2.74425E+03  3.48996E+03 -2.42474E+03 -1.41456E+02
 -6.19254E+03  1.75783E+03 -5.29901E+03 -8.80784E+02  1.73915E+03 -3.42886E+03 -2.34592E+03 -2.57670E+03
 -2.00597E+03 -9.29159E+03 -3.89298E+03  1.79811E+03  2.79770E+02  1.65364E+03  2.19779E+03 -4.63999E+03
  7.47779E+03 -3.89658E+03 -4.54429E+02  7.96257E+02  4.18548E+03 -1.34235E+03  7.13082E+03 -1.89647E+03
 -2.54275E+03  4.37736E+03 -4.84856E+03  6.94286E+03 -5.29067E+03  1.00686E+03 -5.81125E+03 -2.49184E+03
 -5.79232E+03 -3.14673E+03 -4.91865E+03 -8.05294E+03 -1.51550E+03 -4.21231E+03  1.17473E+02 -1.21904E+03
  4.08443E+03  4.44521E+03  7.17569E+03  7.52045E+03 -4.99921E+02  2.40702E+02 -2.26557E+03 -1.04538E+03
 -7.01433E+02  3.80727E+02 -3.87043E+02  4.58364E+02  3.66792E+03  3.83195E+02  2.03507E+03  5.42412E+03
 -4.80083E+03 -4.17378E+03 -4.08277E+03 -1.25888E+03 -2.41999E+03  1.50741E+03 -5.95745E+03 -3.67676E+03
 -1.28539E+02 -6.58825E+03  3.57948E+03  2.47571E+03  8.47457E+02 -2.79900E+03  4.75806E+03  6.43970E+03
  2.49875E+03  6.13362E+02 -4.74050E+02  3.02877E+03  1.94625E+03  1.09891E+02 -4.73067E+03 -2.58636E+03
 -1.94281E+03  2.38375E+03 -7.70793E+02  1.01509E+02 -2.93655E+03 -3.60295E+02 -6.80048E+03 -9.98045E+01
 -5.61835E+02 -5.38160E+03 -2.66660E+03  1.40301E+03  3.98240E+03 -4.79426E+03  1.08564E+03 -4.87763E+03
  3.62638E+03 -2.21206E+03 -7.77254E+02  3.29767E+03 -2.30462E+03  3.36018E+03  1.02762E+01  2.65758E+03
