 $NMID ID='MM_0lb_SNR50_10hz_g50_56.RAW', FMTDAT='(8E13.5)'
 TRAMP=1., VOLUME=1. $END
  3.10702E+05 -2.00998E+03  3.35928E+05  2.52933E+05  8.80608E+04  3.42370E+05 -1.34863E+05  2.58108E+05
 -1.84686E+05  8.15796E+04 -1.16176E+05 -3.59652E+04 -1.25799E+03 -5.11192E+04  4.81234E+04  4.28213E+02
  3.98411E+04  5.76956E+04 -1.82034E+04  8.14580E+04 -6.38676E+04  6.13871E+04 -8.35768E+04  3.72758E+04
 -8.20639E+04 -7.73813E+03 -5.94399E+04 -5.15776E+04 -1.60168E+04 -7.47168E+04  2.54496E+04 -4.32097E+04
  4.16149E+04  6.80539E+03  1.45961E+04  4.08610E+04 -3.78919E+04  4.17316E+04 -6.69528E+04 -2.20658E+03
 -5.26123E+04 -5.59061E+04 -3.84503E+03 -7.78351E+04  3.73915E+04 -6.11694E+04  4.86233E+04 -1.68989E+04
  4.51581E+04  1.12206E+04  3.19957E+04  2.39533E+04  2.09434E+04  2.57802E+04 -9.65431E+03  2.72590E+04
 -2.66140E+04  1.41796E+04 -2.00460E+04 -4.61427E+03  3.77608E+03 -3.29166E+03  2.46563E+04  1.83199E+04
  1.15297E+04  3.45229E+04 -3.13818E+04  3.23709E+04 -6.05677E+04 -2.01152E+03 -5.91064E+04 -4.49789E+04
 -1.03158E+04 -6.48350E+04  4.37706E+04 -4.67400E+04  5.92981E+04  1.17942E+03  3.80000E+04  3.15848E+04
 -4.30045E+03  3.58910E+04 -3.28207E+04  2.07233E+04 -3.01667E+04 -6.29460E+03 -2.00494E+04 -1.00353E+04
 -1.13468E+04 -1.35781E+04 -9.92447E+02 -2.16309E+04  8.71986E+03 -1.71521E+04  2.23274E+04 -9.59355E+03
  5.24826E+03  1.53290E+03 -1.15841E+04  1.05118E+04 -2.15479E+04 -4.20630E+02 -9.52329E+03 -3.86959E+04
  2.09840E+04 -4.82123E+04  5.12163E+04 -2.03007E+04  5.19551E+04  1.92335E+04  1.68125E+04  4.60531E+04
 -1.51642E+04  3.39472E+04 -3.06624E+04 -8.90371E+02 -1.51412E+04 -2.98271E+04  2.28295E+04 -3.75260E+04
  3.95140E+04 -1.40953E+04  3.73391E+04  2.74791E+04  2.28725E+04  4.79543E+04 -1.04956E+04  5.61970E+04
 -3.57055E+04  3.77688E+04 -4.52023E+04  1.26337E+04 -3.79762E+04 -2.13125E+04 -2.22662E+04 -4.61848E+04
  5.84497E+03 -4.47962E+04  3.00498E+04 -1.42865E+04  3.43607E+04  9.46456E+03  7.29079E+03  1.66787E+04
 -1.50131E+04  6.97347E+03 -6.09036E+03 -8.91237E+03  1.02327E+04 -1.47377E+04  1.99477E+04  3.90624E+03
  2.07336E+04  2.28547E+04  1.21076E+03  3.07143E+04 -2.60534E+04  1.56935E+04 -3.40687E+04 -3.82285E+03
 -2.05295E+04 -2.20325E+04 -1.30419E+04 -3.01054E+04  7.20075E+02 -2.09619E+04  2.32115E+04 -2.38181E+04
  2.86537E+04 -1.87024E+04  3.85090E+04  5.12152E+03  2.96993E+04  2.33285E+04  7.28518E+03  3.83446E+04
 -1.77342E+04  3.61436E+04 -2.35190E+04  9.04876E+03 -2.18195E+04 -4.46344E+03 -3.75681E+03 -1.70132E+04
 -1.32682E+03 -8.77634E+02 -2.07069E+03  8.12203E+03 -2.30635E+04 -1.58283E+03 -1.96014E+04 -1.18325E+04
 -8.09366E+03 -2.34221E+04  7.06931E+03 -2.13936E+04  1.88645E+04 -1.85743E+04  2.01349E+04 -5.48391E+03
  1.13403E+04  1.23887E+04 -1.70950E+02  1.64937E+04 -1.74648E+04  1.51256E+04 -2.40370E+04 -7.41969E+03
 -1.79118E+04 -2.13325E+04 -5.59858E+02 -2.63167E+04  8.80896E+03 -2.42207E+04  1.62493E+04 -1.34837E+04
  1.77513E+04  9.25119E+02  1.68013E+04  6.41506E+03  8.38121E+03  2.20574E+03  1.15683E+04 -2.90758E+03
  1.60886E+04  5.58323E+03  1.74790E+04  2.05228E+04  2.06668E+04  3.79375E+04 -1.43989E+03  3.74627E+04
 -2.44616E+04  2.94918E+04 -3.83366E+04  1.79375E+04 -4.10451E+04 -7.51253E+03 -3.20565E+04 -2.99059E+04
 -1.50911E+04 -3.23950E+04  1.53653E+04 -2.90942E+04  3.08021E+04 -1.23613E+04  2.22428E+04  7.79302E+03
  1.08483E+04  2.06158E+04 -1.01046E+04  1.54080E+04 -1.95203E+04  5.46807E+03 -1.68461E+04 -1.59528E+04
  4.13415E+02 -1.49774E+04  1.23745E+04 -1.59413E+04  1.29354E+04  3.31462E+03  5.34862E+03  4.50409E+03
 -1.12116E+04  5.99944E+03 -5.81745E+03 -6.26730E+03  2.77881E+03 -1.51577E+04  1.05532E+04 -1.32541E+04
  1.94870E+04 -1.11517E+04  1.77706E+04  4.40655E+03  2.41757E+04  1.43380E+04  1.06724E+04  3.13095E+04
 -9.78246E+02  3.33173E+04 -2.39550E+04  2.41515E+04 -1.79186E+04  8.85306E+03 -1.77643E+04 -9.58296E+03
 -4.21683E+03 -8.10716E+03 -4.04848E+03 -7.09780E+02 -3.14979E+03  5.98109E+03 -5.47450E+03  6.39194E+03
 -1.72666E+04  4.18134E+03 -2.01943E+04 -1.30754E+04 -3.84445E+03 -1.62118E+04  9.54664E+02 -1.82567E+04
  1.23009E+04 -6.73738E+03  1.01206E+04  8.96558E+03  5.10003E+01  6.51584E+03 -7.87791E+03 -5.64799E+03
 -2.67119E+03 -1.05245E+04 -3.01091E+03 -1.55886E+04  1.22949E+04 -1.45732E+04  2.07661E+04 -3.29137E+03
  1.45616E+04  4.37734E+03  1.24122E+04  1.07331E+04  4.71296E+03  1.38651E+04 -8.26461E+03  1.67582E+04
 -1.59994E+04  6.99000E+03 -7.72125E+03  3.74972E+00  7.94117E+03 -1.67201E+03  1.04209E+04 -3.03324E+03
  4.79937E+03  4.90781E+03  2.44847E+03  1.00029E+04 -3.93065E+03  1.21495E+04 -1.58081E+04  4.07915E+03
 -1.07730E+04 -4.93419E+03  2.01071E+03 -1.77449E+04  7.85987E+03 -5.22628E+03  9.20781E+03  5.30952E+03
 -4.66851E+02  7.77474E+03 -1.01530E+04  1.18220E+04 -1.40237E+04  2.04546E+02 -1.30176E+04 -7.55732E+01
 -7.32181E+03 -1.84213E+04  6.90173E+03 -1.10243E+04  1.30286E+04 -8.37680E+03  1.55207E+04  2.95091E+03
  8.24381E+03  1.39912E+04  5.97892E+03  9.70840E+03 -1.31613E+04  3.84714E+03 -1.25558E+04 -1.77391E+03
 -1.45711E+04 -6.90085E+03 -2.26468E+03 -1.23736E+04  6.61082E+03 -1.27920E+04  8.38544E+03  6.63231E+02
 -1.36176E+03  1.33342E+03 -5.50136E+03  7.98867E+03 -3.21539E+03 -6.39892E+03  2.43839E+03 -9.82759E+03
  1.23816E+04 -6.81023E+02  1.64985E+04  1.65508E+03  1.27339E+04  1.17880E+04  9.94828E+03  2.54765E+04
 -7.38768E+02  1.84117E+04 -1.11010E+04  1.66503E+04 -2.75337E+04 -2.48177E+03 -1.78499E+04 -8.54119E+03
 -1.12751E+04 -2.12392E+04 -1.10412E+03 -1.42718E+04  7.51677E+03 -4.22015E+03  1.11747E+04 -1.22020E+04
 -1.19436E+03  1.14172E+03 -1.29588E+02 -7.43515E+03  2.58350E+03 -5.76222E+03  4.13415E+03  2.42697E+03
  8.92828E+03  6.91936E+03  2.49096E+02  8.41889E+03 -1.94443E+03  9.38714E+03 -9.34243E+03  8.04724E+03
 -1.27515E+04  9.85841E+02 -9.69121E+03 -1.78977E+04  4.67825E+02 -1.38304E+04  7.45752E+03 -1.37172E+04
  1.57446E+04 -1.29516E+04  1.48405E+04  2.87208E+03  1.32953E+04  1.20392E+04  3.13101E+03  2.03403E+04
 -9.45303E+03  1.45223E+04 -1.13060E+04  9.64828E+03 -2.79638E+03 -1.43303E+03 -7.06960E+03 -8.38209E+03
 -4.79341E+03  8.25870E+02 -4.46242E+03  9.08592E+03 -5.05338E+03 -8.72918E+02 -1.04425E+04 -6.18902E+02
 -4.77153E+03 -1.01731E+04  3.91173E+03 -7.03649E+03  1.16170E+04 -1.79844E+04  1.39783E+04  6.51972E+03
  1.24811E+04  2.77049E+03  6.57449E+03  8.79573E+03 -3.68457E+03  1.30740E+04 -5.00452E+03  7.97194E+03
 -1.22798E+04  3.06582E+03 -4.93083E+01 -5.98822E+03  1.22067E+03 -8.90519E+03  2.48379E+03 -1.00865E+04
  8.53999E+03  6.32424E+02  6.47583E+03  1.25438E+03 -5.27850E+03  3.48009E+03 -3.71103E+03 -1.35049E+03
  6.65263E+03  5.56725E+03  2.43815E+02  6.26931E+03 -1.56969E+03  8.09038E+03  3.28278E+03  1.12410E+04
 -8.67883E+03  1.80194E+03 -1.12525E+04  9.31638E+03 -1.62952E+04  4.73417E+03 -1.29341E+04 -5.82025E+03
 -1.03256E+04 -1.18709E+04  3.09530E+03 -1.67969E+04  1.24385E+04 -5.37137E+03  1.23544E+04 -1.65412E+03
  8.82004E+03  5.65815E+03 -6.88816E+02  9.20119E+03 -2.72783E+03  3.26128E+03 -1.18322E+04 -5.94317E+03
  3.95783E+03 -2.98172E+03  3.24408E+03 -6.89528E+03  4.17494E+03 -1.66134E+03  1.11097E+04  2.71086E+03
  5.00165E+03  3.95210E+03  2.56361E+03 -6.93543E+02  5.05475E+03  6.35042E+03  6.39119E+03 -4.18317E+03
  6.54782E+03 -4.84760E+02  1.26145E+04  2.34517E+03  6.28371E+03  1.38982E+04  3.69578E+02  1.24087E+04
 -4.28053E+03  1.00266E+04 -8.41477E+03 -2.97761E+03 -9.23634E+03 -6.18058E+03 -1.75070E+01 -9.11580E+03
  2.61914E+03 -5.18400E+03 -2.79503E+02 -9.02971E+03  2.93583E+03 -8.79298E+02  2.36585E+03  3.33934E+03
 -7.88995E+03  7.44904E+02 -1.16533E+04 -3.55743E+03 -8.13409E+03 -4.72703E+03  4.85359E+03 -1.67463E+03
  3.61955E+03 -2.31524E+03  4.98663E+03  6.14898E+03  3.83503E+03 -2.59262E+03  2.28815E+03  5.82266E+02
 -2.76480E+03  1.88227E+03 -2.17643E+03 -4.39606E+02  3.19663E+03 -4.21618E+03  6.62497E+03 -9.63367E+03
  7.84065E+03  7.13408E+03  1.27885E+04  1.01845E+04 -2.34503E+03 -6.97621E+02  3.11272E+03  6.32122E+03
 -8.82976E+03  1.36290E+03 -7.60669E+03 -5.90572E+03 -5.14144E+03 -2.80717E+03 -1.01859E+03 -3.38937E+03
  7.39997E+03 -8.08865E+03  4.78705E+03  5.08138E+03  4.03753E+03  9.22948E+03  5.46212E+03  7.13182E+03
  2.49427E+02  5.62334E+02  3.72529E+02 -3.50451E+03  4.00847E+03 -4.43591E+03 -5.46979E+03  2.86993E+03
  4.82770E+02  2.62906E+03  8.06929E+01  5.00109E+03 -9.17231E+03  2.88779E+03 -5.06716E+03 -9.77805E+03
 -1.73539E+03 -1.53178E+04  3.90783E+03 -1.03610E+04  3.37900E+03 -1.10212E+04  1.58607E+04 -7.81804E+03
  6.78435E+03 -2.18168E+02  6.04138E+03  7.19052E+03 -1.85208E+03  5.60713E+03 -4.85440E+02  5.62507E+03
 -6.36824E+03  4.07633E+03 -6.52095E+03  5.27050E+03 -1.58432E+03 -4.53811E+03 -4.60410E+02  1.25707E+03
 -4.53000E+03  1.43091E+03 -1.30517E+03 -4.12761E+03  3.79988E+03 -9.64246E+02 -5.25379E+02 -4.57602E+03
  2.83268E+03 -4.69516E+03 -5.00903E+01 -6.60050E+02  5.98429E+03 -4.67297E+02 -1.70104E+03  9.84183E+03
 -6.09499E+03  1.36444E+04 -8.95609E+03  4.94215E+03 -1.33078E+04 -3.70351E+03 -5.63712E+03 -6.70585E+03
  2.17511E+03 -1.41132E+04  2.78849E+03 -6.43322E+03  5.07947E+02 -1.25019E+03  5.81397E+03 -4.85807E+03
 -1.93057E+03 -4.15066E+02 -1.16424E+03  1.87952E+03 -3.78408E+03 -6.95210E+03  1.78744E+03  2.45823E+03
  6.15005E+03 -5.86478E+03  3.42333E+03 -1.36997E+03  4.39377E+03  5.68510E+03  1.94510E+01  6.67352E+03
 -4.38282E+03  6.24024E+03 -3.65921E+03  8.81772E+02 -3.19009E+03  5.14028E+02  2.11964E+03 -4.78379E+03
  4.11250E+03 -3.32184E+03 -4.18641E+02  1.89239E+02 -1.39866E+03  2.63885E+03  5.99578E+03  1.01640E+04
 -1.40187E+03  6.58356E+03 -3.83885E+03  3.95459E+03 -2.39094E+03  3.30602E+03  5.97629E+02  2.75334E+01
  3.16023E+03 -2.83240E+03  6.98516E+03  5.82194E+03 -3.02183E+03  3.28354E+03 -4.63172E+03  6.37693E+02
 -4.80320E+03 -3.85577E+03 -3.14464E+03 -6.96084E+03  3.25669E+03 -1.82915E+03  9.42161E+03  1.25169E+03
  5.23093E+02 -3.37851E+03  5.92083E+03 -1.06962E+03 -1.62566E+03  7.60152E+03  4.64132E+02  8.29133E+03
