 $NMID ID='MM_0lb_SNR50_20hz_g45_65.RAW', FMTDAT='(8E13.5)'
 TRAMP=1., VOLUME=1. $END
  3.07211E+05  3.84078E+03  3.40320E+05  2.51856E+05  8.07401E+04  3.39145E+05 -1.36308E+05  2.48833E+05
 -1.90550E+05  7.93413E+04 -1.10720E+05 -3.69747E+04  6.53147E+03 -4.90265E+04  5.39288E+04  3.55575E+03
  3.85111E+04  5.19386E+04 -1.59981E+04  7.24779E+04 -5.80289E+04  6.17551E+04 -8.14754E+04  2.86556E+04
 -7.76042E+04 -1.10738E+04 -5.37067E+04 -4.88818E+04 -1.59383E+04 -6.99455E+04  2.48832E+04 -4.66388E+04
  3.85799E+04  4.07002E+03  1.55900E+04  4.53177E+04 -3.93226E+04  4.37342E+04 -6.52059E+04 -2.60809E+03
 -5.34155E+04 -5.71270E+04 -7.28473E+03 -7.76411E+04  3.03134E+04 -5.39953E+04  4.63794E+04 -1.66652E+04
  3.64020E+04  9.37037E+03  3.18122E+04  2.43803E+04  1.64247E+04  2.12032E+04 -3.11962E+03  2.85667E+04
 -2.15455E+04  1.59315E+04 -1.94998E+04 -2.67049E+03  2.92802E+03 -6.99125E+03  2.05666E+04  6.69327E+03
  6.69116E+03  3.62654E+04 -3.31964E+04  3.40215E+04 -6.46725E+04  1.71830E+03 -5.11234E+04 -4.04742E+04
 -1.34554E+04 -5.91684E+04  3.71343E+04 -4.49187E+04  5.58721E+04 -4.73666E+03  2.98707E+04  3.16100E+04
 -1.43709E+03  3.14838E+04 -2.94742E+04  7.66668E+03 -3.10770E+04 -4.36923E+03 -1.88660E+04 -9.45427E+03
 -1.05817E+04 -1.34520E+04 -2.62714E+03 -1.80240E+04  8.21284E+03 -2.22201E+04  1.42953E+04 -1.47401E+04
  1.20517E+04  2.50119E+03 -5.33898E+03  1.27552E+04 -2.13687E+04 -7.61816E+03 -2.05091E+03 -3.25455E+04
  1.61082E+04 -3.45643E+04  4.24870E+04 -1.81447E+04  3.84760E+04  1.44370E+04  1.21752E+04  3.89766E+04
 -1.49014E+04  3.35268E+04 -2.41726E+04  2.11114E+03 -4.58715E+03 -2.43404E+04  2.06592E+04 -3.09424E+04
  3.73721E+04 -4.62157E+03  3.27195E+04  2.45771E+04  1.83033E+04  4.10692E+04 -5.56996E+03  4.27375E+04
 -2.64483E+04  2.77035E+04 -3.54942E+04  6.21813E+03 -4.00139E+04 -1.18984E+04 -1.97909E+04 -3.27822E+04
  6.25434E+03 -3.06496E+04  2.95280E+04 -1.14099E+04  2.73379E+04  1.41843E+04 -8.86103E+02  1.53018E+04
 -1.07470E+04  6.88942E+03 -8.15313E+03 -3.51780E+03  5.86429E+03 -1.15162E+04  1.68565E+04  4.83349E+03
  8.26076E+03  1.92101E+04 -6.25034E+03  2.62871E+04 -2.28446E+04  7.52280E+03 -2.36795E+04 -5.07986E+03
 -1.69465E+04 -1.70717E+04  5.12750E+02 -1.82680E+04  6.37040E+03 -1.36428E+04  1.46603E+04 -1.41620E+04
  2.05823E+04 -1.05993E+04  2.70138E+04  1.35993E+03  2.18051E+04  1.54565E+04  3.89956E+03  3.06393E+04
 -1.81808E+04  3.04844E+04 -2.72334E+04  9.03960E+03 -2.02199E+04 -9.49135E+03 -3.28854E+03 -1.68070E+04
  4.76626E+03 -5.77399E+03  2.00565E+03  4.11045E+03 -1.31438E+04  5.28303E+03 -1.40389E+04 -6.14753E+03
 -7.47956E+03 -1.26626E+04  4.24508E+03 -1.71934E+04  1.21300E+04 -1.59888E+04  1.42742E+04 -1.26156E+03
  1.06006E+04  6.36589E+03  1.19488E+03  1.20066E+04 -9.56912E+03  6.85728E+03 -1.40261E+04 -4.39762E+03
 -6.95351E+03 -1.22904E+04 -3.38780E+03 -1.62085E+04  1.21595E+04 -1.42006E+04  1.56507E+04 -5.30988E+03
  1.15218E+04 -1.93819E+02  8.78744E+03  2.64839E+03  7.59570E+03  1.15465E+03  6.64300E+03 -1.61307E+03
  1.19201E+04  3.87409E+03  1.13840E+04  7.95134E+03  5.39374E+03  1.79441E+04 -3.31298E+03  2.32832E+04
 -1.83345E+04  2.18390E+04 -2.24535E+04  4.60360E+03 -2.60522E+04 -2.51430E+02 -2.36510E+04 -1.30292E+04
 -3.85828E+03 -1.54910E+04  4.65433E+03 -1.34018E+04  1.54117E+04 -1.00998E+04  1.50633E+04  5.07503E+03
  7.70023E+03  1.04971E+04 -5.31275E+03  4.76753E+03 -1.04729E+04  8.95049E+03 -1.00867E+04 -9.01081E+03
  1.24204E+03 -1.31735E+04  7.43352E+03 -1.19497E+04  8.81149E+03 -3.31588E+03  1.25962E+03  7.41322E+03
 -7.05448E+03 -3.70080E+02 -4.49533E+03 -2.80827E+03  6.51364E+02 -3.66252E+03  3.33179E+03 -7.91617E+03
  9.20227E+03 -4.06354E+03  9.44824E+03  6.45689E+03  1.09310E+04  6.50812E+03  3.83094E+03  1.09571E+04
  5.53446E+02  1.14524E+04 -6.16254E+03  6.49973E+03 -1.07610E+04  5.54055E+03 -9.37783E+03 -3.64177E+03
 -8.46440E+02 -2.83580E+03  1.01762E+03  3.18147E+03 -1.11961E+03 -7.02498E+02 -3.72765E+03  1.82376E+03
 -9.95431E+03  2.15961E+01 -1.00440E+04 -9.13768E+03 -1.69544E+03 -5.75504E+03  2.40152E+03 -6.76978E+03
  6.82991E+03 -6.77710E+03  5.55170E+03 -8.82363E+02  4.38639E+03  2.58124E+03 -6.45955E+03  3.41877E+03
 -2.82366E+03 -4.04866E+03 -5.23397E+02 -6.85428E+03  3.45875E+03 -5.42573E+03  1.03593E+04 -4.60499E+03
  9.17873E+03 -8.73202E+02  8.28675E+03  6.53940E+03 -1.04283E+03  9.70039E+03 -4.82211E+03  9.19082E+03
 -3.24491E+03 -6.40105E+02 -1.24394E+03  4.19002E+02 -1.79432E+03  1.02717E+03  3.60936E+03 -3.30697E+03
  2.98896E+03 -3.31138E+02  1.87026E+03  7.30044E+03 -5.43443E+03  6.59281E+03 -2.82130E+03  8.70959E+02
 -7.28236E+03 -5.99582E+03 -2.32506E+03 -6.41230E+03  1.80080E+03 -1.47251E+03  1.67506E+03  3.90255E+03
 -2.05217E+02  4.93392E+03 -6.14728E+03  6.35900E+02 -4.85062E+03  3.80205E+03 -5.29872E+03 -7.62073E+02
 -5.61549E+03 -6.22580E+03 -1.92580E+03 -9.42205E+03  4.00990E+03 -4.88429E+03  4.21608E+03  1.33614E+03
  8.64419E+02  5.43344E+03  8.33035E+02  5.66673E+03 -3.40965E+03  3.65626E+03 -2.41049E+03  3.73356E+02
 -3.53056E+03 -1.31024E+03 -3.37758E+03 -5.80730E+03  5.75856E+03 -7.75980E+03  1.04110E+03 -1.35674E+03
  2.77702E+03 -1.03496E+03  1.17572E+03  4.87874E+01  1.90072E+03  1.80999E+03  3.28922E+03 -1.11118E+03
  3.95564E+03  1.61379E+03  3.74061E+03 -1.59814E+03  5.35647E+03 -7.22279E+02  7.70134E+03  6.96713E+03
 -5.12659E+02  4.05717E+03 -5.95072E+03  7.21793E+03 -8.71701E+03 -4.28252E+03 -1.12721E+04 -3.75904E+03
 -6.60793E+03 -7.13648E+03  1.01878E+02 -1.08783E+03  2.28192E+03 -3.09931E+03  3.87532E+03 -4.58441E+03
  2.29494E+03  1.65911E+03  5.22813E+03 -6.91792E+02  5.64501E+03 -5.18608E+02  1.40296E+03 -9.66649E+02
  1.60936E+03  7.46194E+03 -1.74163E+03  3.02448E+03 -2.28326E+03 -5.19896E+02 -2.88799E+03  2.60493E+03
 -6.93877E+02 -2.43633E+03 -4.33397E+03 -3.31043E+03 -1.82202E+03 -2.15044E+03  1.83917E+03 -6.65867E+03
  5.68345E+03 -4.10001E+03  4.41607E+03 -1.32053E+03  2.90815E+03  3.99165E+03 -7.88784E+01  7.24601E+03
 -1.09121E+03  8.13904E+03 -3.25176E+03 -7.48131E+02  3.91539E+03 -7.36987E+02 -3.03608E+01 -6.33429E+02
 -1.81592E+03 -7.94185E+02 -3.23567E+03  7.87104E+02  1.50682E+03 -3.37434E+03 -1.55681E+03  4.31566E+03
 -2.20322E+03 -2.49542E+03  1.67020E+03 -6.42367E+03  3.18459E+03 -4.46195E+03  6.66705E+03  7.86752E+02
  1.81611E+03 -6.99407E+02  1.40816E+03 -1.74009E+02 -8.85264E+02  8.57365E+03 -3.08665E+03  1.20952E+03
 -1.98007E+03  7.88406E+02 -3.05892E+03 -1.09679E+03 -3.11302E+01 -4.65725E+03  6.76237E+02 -1.84367E+03
  4.17465E+02 -4.31352E+03  5.84949E+03  3.40625E+02 -1.29373E+03  1.41872E+03  2.09363E+03 -1.72181E+03
  4.18079E+03  8.95388E+02 -1.59288E+03  4.21914E+03 -5.50846E+02 -1.11132E+03 -3.99693E+03  4.83102E+02
 -1.79868E+02  5.60421E+03 -2.17738E+03  1.01103E+03 -1.91488E+03  2.67895E+03 -4.00917E+02  1.13462E+02
 -1.93808E+03 -3.22766E+03  3.46859E+03 -6.84053E+03  2.99883E+03 -5.27628E+03  3.23091E+03 -1.01101E+03
  1.40434E+03  1.97217E+03  2.21929E+03  4.41593E+03  1.32877E+03  2.57944E+03 -6.23603E+03 -3.39308E+02
 -1.38616E+03 -9.35498E+02  4.98540E+03 -2.39657E+03 -1.10798E+03  3.18614E+03  2.65314E+03 -8.46067E+02
  5.19301E+02 -9.17797E+02 -1.28766E+03 -1.43184E+03  2.15870E+02 -1.29825E+02  5.07637E+03  1.73494E+03
 -1.03217E+03  2.45484E+03  3.97284E+03  1.63285E+03  6.85132E+01  4.00362E+03 -2.52420E+02  1.04584E+03
 -1.46735E+02 -1.38738E+03  2.42966E+03 -3.33777E+03 -4.74758E+02 -6.30125E+02 -5.40663E+02  8.76589E+02
 -3.98455E+03 -1.21200E+03 -1.12091E+03  3.34176E+02  1.49364E+03  3.05873E+03 -2.57516E+03 -1.60804E+03
 -3.11312E+03 -3.72611E+03 -1.96442E+03 -1.33355E+03  2.35874E+03 -2.75360E+02  1.64021E+03  1.34047E+02
  1.77422E+03 -8.40979E+02  3.40887E+03 -1.99435E+03 -2.14325E+02  2.40441E+03 -1.29589E+03 -1.88331E+03
 -3.99434E+03 -2.26748E+03 -5.59647E+02  1.17137E+02  7.12003E+01  2.39984E+03  2.65331E+03 -2.48536E+03
  5.01450E+02 -1.99205E+03  7.16737E+02  2.55725E+03  3.51736E+03 -1.05575E+03 -1.12997E+03  1.89212E+02
 -2.39124E+03 -7.63540E+02  2.88299E+03  1.81778E+03  1.39827E+03 -1.81171E+03  4.99477E+03  1.51363E+03
  3.84200E+03 -1.69267E+02 -1.58306E+02 -6.59652E+02  1.97626E+02  2.34178E+03  4.57429E+03  2.25796E+03
  1.56338E+03 -1.55586E+03 -1.18073E+03 -5.15427E+02  1.86920E+03  2.72141E+03 -4.88543E+03 -3.00092E+02
 -1.22550E+03  5.61243E+02 -3.80523E+03  4.99266E+03  4.76793E+03 -2.51302E+03 -5.46921E+03 -3.23903E+02
 -1.09332E+03  1.88557E+02 -9.34488E+02 -8.67795E+03  2.73053E+03 -4.14717E+03  1.14804E+03 -3.56919E+03
  3.74864E+03 -6.80858E+03  3.10665E+02  1.28643E+03 -8.94560E+02 -8.00954E+02 -2.12892E+03 -5.25032E+03
 -3.04687E+03  1.52165E+03  3.21843E+03 -1.40389E+03  1.82960E+01 -4.93524E+02  9.71416E+02  2.88011E+03
 -5.13811E+03  2.16059E+02 -4.18345E+03 -1.09978E+03  4.23382E+03 -7.48652E+02  4.00878E+03  1.28108E+03
 -2.78362E+02  2.32009E+03 -9.38935E+02 -3.09204E+03  1.37387E+03 -3.13170E+03  2.46734E+03 -1.28175E+03
 -3.05959E+03  3.61912E+03  1.70391E+02 -7.00100E+02 -2.63090E+03 -9.74100E+02 -2.69537E+03  5.10936E+02
 -2.62066E+03 -1.35124E+03  1.24757E+03 -5.45337E+03 -8.23217E+02 -2.20629E+03  4.36325E+03  2.57997E+03
 -1.56630E+03  1.23073E+03  2.88062E+01 -1.85806E+03 -4.98172E+03  3.24166E+03  2.28838E+02 -2.07676E+01
  9.80683E+02  2.15327E+03  4.17187E+03 -2.42484E+02 -1.48241E+03  1.30249E+02  2.49414E+03 -1.33353E+03
  9.68854E+02  1.86011E+02 -1.14895E+03  1.16574E+03  1.76875E+03  1.64277E+03 -3.21378E+03  3.26500E+03
  3.25801E+03 -2.54724E+03  1.41179E+03 -1.28558E+03  4.87689E+02  5.09676E+02  1.25987E+03  1.68686E+03
 -2.10675E+03  1.02986E+03 -1.21992E+03 -1.37891E+02 -5.35872E+02  9.25715E+02 -1.25352E+02  3.33702E+02
  4.74803E+03  1.40378E+03 -6.84851E+02  3.51988E+02  2.69342E+03 -1.55945E+03  1.67312E+03 -4.30482E+03
  4.01473E+02  4.89645E+02  4.77017E+03  2.67594E+02 -3.52788E+02  1.63333E+03 -8.66292E+02  1.07490E+03
 -2.82200E+03 -4.17734E+03 -4.20772E+03 -5.73913E+02  1.54242E+03 -8.43654E+01  3.61529E+03  1.39880E+03
