 $NMID ID='MM_0lb_SNR50_13hz_g45_41.RAW', FMTDAT='(8E13.5)'
 TRAMP=1., VOLUME=1. $END
  3.15769E+05 -1.33436E+03  3.39598E+05  2.47755E+05  8.85313E+04  3.38191E+05 -1.29969E+05  2.54262E+05
 -1.90746E+05  8.01946E+04 -1.16672E+05 -3.58605E+04  3.68620E+03 -4.99035E+04  5.98252E+04  8.75136E+02
  3.41993E+04  5.32492E+04 -1.86039E+04  7.58840E+04 -5.70556E+04  6.01304E+04 -8.45364E+04  3.59873E+04
 -8.02671E+04 -1.61269E+04 -5.35714E+04 -5.26438E+04 -9.99797E+03 -7.11056E+04  2.68021E+04 -4.81477E+04
  4.02108E+04  8.66278E+03  1.90108E+04  4.73652E+04 -3.52968E+04  4.65495E+04 -6.44503E+04  2.17785E+03
 -4.91361E+04 -5.67809E+04  2.47786E+03 -8.52049E+04  3.26160E+04 -5.62543E+04  4.66578E+04 -1.15171E+04
  4.09171E+04  9.08979E+03  3.78907E+04  2.27685E+04  1.94832E+04  3.45406E+04 -1.78034E+03  2.95796E+04
 -1.52474E+04  9.86677E+03 -2.08915E+04 -3.35194E+03  6.05470E+03 -2.33917E+03  2.63125E+04  9.20992E+03
  1.00155E+04  3.60085E+04 -3.57774E+04  3.67486E+04 -6.31034E+04 -1.32349E+03 -5.80017E+04 -4.62034E+04
 -1.29428E+04 -6.13307E+04  3.75266E+04 -5.38364E+04  5.99026E+04 -2.72718E+03  3.31828E+04  3.15772E+04
 -6.92560E+03  3.60302E+04 -2.88006E+04  1.38997E+04 -3.47496E+04 -8.23856E+03 -1.68345E+04 -1.28784E+04
 -4.80961E+03 -1.71964E+04 -5.36896E+03 -2.15159E+04  9.50825E+03 -2.23534E+04  1.88012E+04 -1.23964E+04
  1.25234E+04  5.02191E+03 -9.05201E+03  1.24729E+04 -1.89398E+04 -5.11445E+03 -1.31212E+04 -3.23669E+04
  2.02205E+04 -4.39577E+04  4.74018E+04 -1.89585E+04  4.82194E+04  2.24903E+04  1.50669E+04  4.86080E+04
 -1.60415E+04  3.27168E+04 -3.25239E+04 -1.86456E+03 -1.20440E+04 -2.66678E+04  1.84690E+04 -3.47120E+04
  4.11694E+04 -9.52988E+03  3.84103E+04  1.95718E+04  2.44933E+04  5.22373E+04 -7.57999E+03  4.78666E+04
 -3.16055E+04  3.63071E+04 -4.36021E+04  1.45084E+04 -4.03789E+04 -1.40863E+04 -2.39641E+04 -3.69828E+04
  5.75257E+03 -3.13481E+04  3.38097E+04 -1.30747E+04  2.71505E+04  9.22695E+03  6.52770E+03  2.51370E+04
 -1.48895E+04  7.19266E+03 -1.26181E+04 -8.65627E+03  3.12342E+03 -1.26341E+04  1.73006E+04  6.19132E+03
  1.14641E+04  1.81660E+04 -3.90780E+03  2.70621E+04 -1.96798E+04  1.17745E+04 -2.60399E+04 -7.70336E+03
 -1.68128E+04 -1.41092E+04 -8.62783E+03 -2.37432E+04  8.89821E+03 -2.14151E+04  1.63003E+04 -1.50382E+04
  2.49421E+04 -1.42746E+04  2.89588E+04  3.67385E+03  2.62971E+04  1.77567E+04  2.62689E+03  3.83081E+04
 -1.33900E+04  2.53471E+04 -2.77173E+04  1.00328E+04 -2.16737E+04 -7.21223E+03 -1.39132E+03 -1.90883E+04
  6.48496E+02  1.08364E+03 -4.51582E+03  7.14790E+03 -1.57615E+04  6.39852E+03 -1.59715E+04 -1.01649E+04
 -9.65632E+03 -2.38681E+04  7.05774E+03 -1.82261E+04  1.30847E+04 -1.66799E+04  1.58275E+04 -3.53691E+03
  9.39353E+03  1.16775E+04 -2.23375E+03  2.01078E+04 -1.25401E+04  9.91234E+03 -2.46896E+04 -6.71127E+03
 -1.66307E+04 -1.54969E+04 -7.56731E+02 -2.33722E+04  1.40931E+04 -2.20587E+04  2.03685E+04 -7.52719E+03
  2.02606E+04 -8.74683E+02  8.36872E+03  4.32659E+03  4.18075E+03  2.22249E+03  7.94283E+03  1.06067E+03
  1.39981E+04  4.32800E+03  2.17874E+04  1.80676E+04  1.22022E+04  3.51342E+04 -3.77231E+03  3.43529E+04
 -1.90753E+04  2.59272E+04 -3.22341E+04  1.06155E+04 -3.46673E+04  8.11833E+01 -3.01927E+04 -1.74213E+04
 -1.60317E+04 -3.19022E+04  1.47640E+04 -2.76755E+04  2.67658E+04 -1.56692E+04  2.08887E+04  5.29297E+03
  5.14746E+03  1.73651E+04 -6.02328E+03  9.87947E+03 -1.65801E+04  1.47609E+03 -1.39244E+04 -1.36926E+04
 -1.90846E+03 -1.51153E+04  1.42907E+02 -1.14422E+04  9.55402E+03 -1.14519E+03  3.18354E+03  6.68590E+03
 -4.85766E+03  2.12152E+03 -6.72978E+03 -4.89288E+03  1.00112E+03 -1.20978E+04  7.06594E+03 -1.28373E+04
  1.64887E+04 -7.03298E+03  2.23168E+04  7.24187E+02  1.54852E+04  8.94521E+03  1.03492E+04  2.42454E+04
 -3.25961E+03  2.33084E+04 -1.54560E+04  1.57654E+04 -1.70692E+04  3.67050E+02 -1.01701E+04 -4.48655E+03
 -2.97308E+03 -1.21652E+03 -3.74768E+03  6.24372E+02 -2.08638E+03  2.16973E+03 -3.96066E+03  9.35091E+03
 -1.28757E+04  7.89917E+02 -1.40013E+04 -6.82881E+03 -1.17370E+03 -1.61483E+04  7.00357E+03 -1.30658E+04
  8.20096E+03 -5.06349E+03  7.70491E+03  1.12588E+03 -8.56595E+02  7.85983E+02 -6.75993E+03 -5.90341E+02
 -8.48489E+03 -4.03662E+03  3.50402E+03 -1.12896E+04  3.15171E+03 -1.38206E+04  1.24201E+04 -6.71528E+03
  1.36819E+04 -1.22390E+02  1.19203E+04  6.52894E+03  1.68348E+03  8.40428E+03 -7.35063E+03  1.36091E+04
 -1.36923E+04  7.97143E+03 -9.84699E+03 -3.56261E+03 -4.44728E+02  2.03834E+02  9.85934E+03  6.30904E+03
  6.24779E+03  6.36776E+03 -3.66410E+03  9.72535E+03 -4.37915E+03  1.36986E+04 -1.41494E+04  4.88669E+03
 -9.14097E+03 -7.77560E+03 -2.48242E+02 -1.18644E+04  9.38918E+02 -3.43571E+03  6.74058E+03  1.33285E+03
  2.92246E+02  4.06703E+03 -6.49625E+03  1.30060E+04 -1.23815E+04  4.47193E+03 -1.18428E+04 -2.58376E+03
 -6.67238E+03 -1.73846E+04  5.87688E+03 -8.85547E+03  1.05685E+04  2.69957E+03  1.26774E+04  3.54364E+03
  4.12941E+03  6.19055E+03 -8.95798E+02  1.33116E+04 -7.73107E+03  9.02708E+03 -1.08379E+04  7.91284E+02
 -9.31644E+03 -1.06420E+04  2.65174E+03 -3.55808E+03  7.35596E+03 -7.83180E+03  1.85077E+03 -3.69141E+03
  4.12479E+03  7.16630E+03 -4.73423E+02  2.09962E+03 -3.45535E+01 -1.52922E+03  1.57839E+03 -5.41330E+03
  8.78112E+03 -4.74349E+03  1.14816E+04 -2.61186E+03  3.58199E+03  2.36352E+03  1.09385E+04  1.30451E+04
 -1.41897E+03  1.35338E+04 -1.55910E+04  5.25910E+03 -2.11094E+04 -4.75063E+03 -1.58260E+04 -4.62287E+03
 -7.45125E+03 -1.02328E+04 -2.90141E+03 -1.15817E+04  5.48148E+03 -2.05352E+03  5.62987E+03 -7.12291E+03
  1.74584E+03  1.17765E+03  3.82386E+03 -2.81598E+02  4.20990E+03 -2.31482E+03  5.61542E+03  1.01575E+03
  1.02645E+04  4.18942E+02  7.06772E+03  5.63747E+03 -2.20281E+03  7.72550E+02 -9.40203E+03  6.46420E+03
 -6.71433E+03  5.27219E+03 -5.53059E+03 -5.75203E+03 -2.71607E+03 -1.26919E+04  5.51537E+03 -9.46145E+03
  1.17600E+04 -1.00846E+04  1.07357E+04  2.13226E+03  9.62488E+03  2.93213E+03  2.43305E+03  9.96898E+03
 -4.04154E+03  5.97032E+03 -6.15716E+03  1.82948E+03 -5.98735E+03 -2.38309E+03 -6.31615E+02  3.65364E+02
  1.34394E+03 -1.75321E+03  7.73087E+02  7.72571E+02 -7.18105E+03  9.49140E+02 -8.49318E+03 -8.45042E+02
 -7.49566E+03 -1.16149E+04  5.80800E+03 -8.25004E+03  4.02362E+03 -4.95886E+03  6.06769E+03 -1.00518E+03
  9.30330E+03  4.15294E+03  4.03727E+03  8.41920E+03 -4.37853E+03  1.10261E+04 -8.21254E+03  1.49258E+03
 -8.20730E+03  5.00023E+03 -6.05255E+03 -5.55238E+03 -1.15059E+03 -7.07072E+03  5.10159E+03 -6.12093E+03
  3.25211E+03 -4.81881E+03  7.10664E+03 -2.36064E+03 -2.15952E+03 -1.77982E+02 -2.93197E+03 -2.98720E+03
  3.55147E+03  5.13539E+03  1.87591E+03  7.50495E+03  2.37672E+03  4.88488E+03  5.55440E+03  4.05394E+03
  1.90084E+01  7.33835E+03 -1.00532E+04  6.63426E+03 -6.31400E+03 -2.88462E+03 -1.02242E+04 -8.10785E+02
 -5.23635E+03 -1.30107E+04  1.60115E+03 -1.44931E+04  7.62386E+03 -4.23715E+03  5.34001E+03 -1.89540E+03
  5.16191E+03  5.33986E+03  4.78954E+03  7.56454E+03 -4.23681E+02  1.80145E+03 -1.70309E+03 -3.54271E+03
  6.63588E+03 -5.32630E+03  2.04912E+03 -4.20880E+03  4.50215E+03 -1.27623E+03  5.79009E+03 -2.78174E+03
  3.77059E+03  5.38306E+03 -6.03699E+02  4.56924E+01 -4.73223E+03  1.66728E+03  5.42346E+03  1.74688E+03
  3.76417E+03 -4.56465E+03  3.23699E+03  3.44973E+03 -2.95381E+03  8.01577E+03 -5.36187E+01  3.97907E+03
 -4.20154E+03  4.06726E+03 -1.66143E+03  3.86980E+02 -7.10271E+03  8.68110E+02  1.83039E+03  1.52817E+03
 -4.39369E+02 -1.38854E+03  2.96009E+03 -2.48956E+03  5.88532E+03  4.67540E+03 -2.47061E+03  1.98712E+03
  5.38358E+02  4.41419E+03 -3.53007E+03 -3.92729E+03  1.02428E+03 -2.42975E+03 -2.75646E+03 -7.76602E+03
  2.20264E+03 -2.66103E+03  3.29072E+03  1.12613E+03 -4.35328E+03 -1.97810E+03  1.71419E+02  8.44706E+03
  1.74237E+03 -1.46842E+03 -5.34023E+03  2.19106E+02 -1.17584E+03 -3.20930E+03  6.18250E+02 -3.44660E+03
  7.98546E+03 -2.89717E+03  3.36573E+03  2.29112E+02 -1.66938E+03  6.16168E+03 -4.39550E+03  5.29510E+03
 -7.35421E+03 -1.94573E+03 -3.49378E+03 -1.99651E+03 -2.58441E+03 -3.85634E+03  2.27918E+03 -6.80200E+02
  9.02789E+03 -5.39301E+03  4.56334E+03  1.88351E+03  5.81659E+03 -1.37671E+03 -1.08247E+03 -4.01224E+03
  2.89913E+03 -4.26768E+03 -3.20484E+02  2.30876E+03  2.55284E+03  6.00620E+01 -1.20657E+03 -6.34804E+01
  3.99383E+03  1.30309E+03 -8.32665E+03  7.22743E+02 -7.78524E+03 -2.51154E+03 -6.49462E+03 -9.88649E+02
 -3.34201E+02 -7.84015E+03 -4.29176E+03 -6.63555E+03  5.34342E+03 -4.97435E+03  9.08860E+03 -2.96577E+03
  1.11703E+04 -1.60836E+03  1.57456E+03  7.19016E+03 -1.19658E+03  4.85646E+03 -2.58921E+03  7.94891E+02
 -6.46458E+03  4.42519E+03 -1.24150E+03 -4.44265E+03  1.11937E+03 -6.98703E+02 -3.09708E+03  1.09430E+03
 -2.36914E+03 -2.61127E+03 -8.08379E+02  3.13008E+03  2.57894E+03  1.70823E+03 -1.77682E+03 -1.60728E+03
  3.49555E+03 -5.66817E+03 -2.34421E+03  3.43867E+03  3.69495E+03 -1.43380E+03 -1.94292E+03  7.61402E+03
 -3.51409E+03  5.32462E+03 -7.02658E+03  2.94935E+02 -4.71213E+03 -3.19698E+03 -4.59288E+03 -8.74172E+02
 -4.77809E+03 -2.10595E+03  6.29355E+03 -1.56050E+03  3.84353E+02  2.22771E+03  2.51678E+03 -4.82742E+02
  3.61943E+03  4.46122E+03  3.40872E+03 -5.22592E+03 -6.63571E+02 -2.57455E+02 -3.49809E+03  6.11465E+02
  5.79560E+03  4.16460E+03 -1.46288E+03  2.66375E+03  1.79792E+03 -3.67651E+03 -3.22295E+03  6.46538E+02
 -3.77171E+03  6.30581E+03 -5.22269E+03  3.86126E+03 -2.31882E+03 -6.54611E+02 -3.05133E+03 -7.11217E+03
  5.58382E+03 -6.63972E+03  2.82285E+03 -2.83905E+03  3.43088E+03  1.83140E+03  3.15365E+03  3.79951E+03
  4.73330E+02  6.07213E+03 -5.26088E+03  3.64357E+03 -3.29143E+03  1.98997E+03 -2.84119E+03 -5.54747E+02
 -7.03503E+01  2.71111E+03 -3.48590E+02 -2.13344E+03 -4.42189E+03  3.52043E+03 -5.77675E+02  2.31046E+03
 -6.51394E+02 -2.68982E+03 -7.51974E+03  9.72584E+02  5.18958E+03 -1.56593E+03  7.60386E+03  2.17597E+03
  4.41871E+03  2.89742E+02  2.35447E+03  1.44782E+03  3.47744E+03  3.49555E+03  5.19262E+02  5.89883E+03
