 $NMID ID='MM_0lb_SNR50_11hz_g50_79.RAW', FMTDAT='(8E13.5)'
 TRAMP=1., VOLUME=1. $END
  3.09334E+05  4.35541E+03  3.37533E+05  2.54001E+05  8.45518E+04  3.42546E+05 -1.30476E+05  2.50933E+05
 -1.90884E+05  8.25862E+04 -1.18978E+05 -3.39302E+04 -1.19743E+03 -4.59691E+04  5.43811E+04 -2.07757E+03
  3.43292E+04  5.74490E+04 -1.36729E+04  7.48573E+04 -5.91985E+04  7.12169E+04 -8.02757E+04  2.80291E+04
 -7.67261E+04 -8.44447E+03 -5.68608E+04 -5.36440E+04 -1.12800E+04 -7.09195E+04  3.02656E+04 -5.15549E+04
  3.74720E+04  1.00637E+04  1.54607E+04  4.54675E+04 -3.62057E+04  4.91184E+04 -7.31142E+04 -2.09832E+03
 -5.08188E+04 -5.31285E+04 -4.45561E+03 -7.82649E+04  3.28071E+04 -5.44539E+04  5.48276E+04 -1.70676E+04
  4.34904E+04  1.46410E+04  3.30433E+04  2.37622E+04  2.18649E+04  3.21055E+04  2.00436E+03  2.54461E+04
 -2.38938E+04  1.27222E+04 -1.84522E+04 -2.86628E+03  3.76244E+03 -8.53569E+03  1.94216E+04  1.38851E+04
  7.99122E+03  2.91715E+04 -3.26175E+04  4.45004E+04 -6.93757E+04  4.11653E+03 -5.74230E+04 -4.37449E+04
 -1.48949E+04 -6.88270E+04  4.03133E+04 -5.49584E+04  5.85687E+04 -5.99189E+02  2.87228E+04  3.47783E+04
 -4.90282E+03  3.82746E+04 -3.16957E+04  1.96309E+04 -2.73086E+04 -2.30244E+03 -1.74061E+04 -1.52108E+04
 -9.05960E+03 -1.67502E+04 -3.98274E+03 -1.60979E+04  4.90401E+03 -2.19652E+04  2.00957E+04 -1.10555E+04
  8.74076E+03  2.48830E+03 -7.33216E+03  1.80151E+04 -2.35712E+04 -1.15937E+03 -8.79710E+03 -3.35060E+04
  2.72040E+04 -4.58989E+04  4.81641E+04 -2.13846E+04  4.31842E+04  2.33702E+04  1.37102E+04  4.22306E+04
 -1.88352E+04  3.73747E+04 -2.87304E+04 -1.48587E+03 -9.26215E+03 -2.50044E+04  2.47437E+04 -3.71503E+04
  4.00888E+04 -7.88799E+03  3.72358E+04  2.81045E+04  1.78316E+04  5.32554E+04 -1.08447E+04  6.01254E+04
 -3.14576E+04  3.96193E+04 -4.87812E+04  1.28475E+04 -4.91806E+04 -1.18248E+04 -3.15358E+04 -3.94534E+04
  6.85261E+03 -3.73883E+04  3.29768E+04 -1.10363E+04  3.03185E+04  1.15776E+04  8.72263E+03  2.02073E+04
 -1.92043E+04  1.32692E+04 -1.23632E+04 -7.98262E+03  2.60639E+03 -2.58740E+03  2.04577E+04  5.90821E+03
  1.11775E+04  2.38590E+04 -8.75947E+03  1.97525E+04 -1.69440E+04  1.00774E+04 -3.51529E+04 -2.08689E+03
 -2.69871E+04 -1.69928E+04 -1.06541E+04 -2.74523E+04  1.76661E+03 -2.08931E+04  1.90705E+04 -2.29975E+04
  2.78788E+04 -1.39143E+04  3.63666E+04  2.41089E+03  2.46845E+04  1.96824E+04  3.18606E+03  3.96441E+04
 -1.74418E+04  3.37806E+04 -3.11610E+04  1.43281E+04 -2.79403E+04 -1.33259E+04  2.69662E+03 -8.58230E+03
 -2.71064E+03  1.18783E+03 -1.23588E+04  1.18548E+04 -1.44752E+04  7.05099E+03 -2.12383E+04 -4.30886E+03
 -6.47068E+03 -2.01905E+04  1.16111E+03 -2.80665E+04  1.35105E+04 -1.65279E+04  2.14697E+04 -3.06244E+03
  1.22293E+04  1.77896E+04  9.87907E+02  2.28865E+04 -1.71184E+04  8.57587E+03 -2.26166E+04 -1.00631E+04
 -2.09836E+04 -2.20564E+04 -8.26511E+03 -2.41227E+04  1.28000E+04 -2.05628E+04  2.05045E+04 -8.98119E+03
  2.19110E+04 -7.89507E+02  1.43927E+04  2.45738E+03  7.85324E+03  2.23970E+03  1.10289E+04 -2.86755E+03
  2.53441E+04 -6.76965E+03  2.52105E+04  1.76755E+04  1.82917E+04  3.95424E+04 -6.39999E+02  3.74583E+04
 -2.63141E+04  3.39370E+04 -3.64190E+04  1.33829E+04 -3.73707E+04 -7.30291E+03 -2.92208E+04 -2.62510E+04
 -9.32330E+03 -3.19923E+04  1.10428E+04 -3.03129E+04  2.84453E+04 -1.72014E+04  2.33803E+04  8.81576E+03
  9.20552E+03  1.72989E+04 -1.33724E+04  1.50525E+04 -2.18902E+04  3.34869E+03 -1.57280E+04 -5.90805E+03
 -5.65086E+01 -1.31135E+04  1.46282E+04 -1.14917E+04  6.42782E+03 -2.12447E+03  9.98302E+03  9.27335E+03
 -1.14314E+04  3.17582E+03  7.74533E+02 -1.08069E+04  2.61407E+03 -1.45948E+04  1.26435E+04 -2.38582E+04
  1.58872E+04 -6.54079E+03  2.18063E+04  7.01406E+03  2.09448E+04  1.35194E+04  4.42435E+03  2.32353E+04
 -9.67568E+02  2.38593E+04 -1.80300E+04  1.33734E+04 -1.65475E+04  4.42750E+02 -1.06278E+04 -4.65504E+03
 -5.68042E+03 -9.22431E+03  8.92282E+01 -1.43225E+03  2.44246E+03  4.05300E+03 -1.02434E+04  5.58177E+03
 -1.67426E+04 -8.00022E+03 -1.23022E+04 -1.15914E+04 -7.37974E+02 -1.73232E+04  4.69126E+03 -1.00159E+04
  7.51601E+03 -4.52333E+03  8.48643E+03  3.41794E+03  1.18986E+03  7.70384E+03 -8.59945E+03 -4.60540E+03
 -7.12152E+03 -9.14638E+03 -2.79343E+03 -1.66125E+04  1.63332E+04 -1.31807E+04  1.83525E+04 -6.16494E+03
  2.12550E+04  1.30211E+03  1.37891E+04  1.71281E+04  2.84410E+02  1.62472E+04 -9.97638E+03  1.50645E+04
 -1.54756E+04  3.89810E+03 -1.03114E+04 -4.21013E+03  7.44882E+03 -1.23435E+03  4.73375E+03 -3.29749E+02
  7.48399E+03  3.69122E+03 -5.19092E+02  1.04257E+04 -8.09084E+03  7.90165E+03 -1.70898E+04  3.05040E+03
 -4.87083E+03 -2.46399E+03 -1.51412E+02 -9.06028E+03  1.02830E+04 -4.90414E+03  5.42749E+03  2.46050E+03
  1.44881E+03  1.46968E+03 -5.48948E+03  1.47882E+04 -7.65383E+03  6.14158E+03 -1.27987E+04 -9.11260E+03
 -4.64684E+03 -1.02729E+04  1.82278E+03 -1.60357E+04  1.39167E+04 -9.67411E+03  1.60726E+04  8.18008E+02
  8.81646E+03  1.25939E+04 -6.80825E+03  1.23062E+04 -1.25799E+04  6.53317E+03 -1.08305E+04 -2.45417E+03
 -4.72087E+03 -1.15053E+04  1.38872E+03 -1.25329E+04  5.36135E+03 -9.88116E+03  9.04025E+03 -3.84397E+03
  2.93196E+03 -3.58065E+03 -9.87376E+01  2.56694E+03 -3.06646E+03 -6.93329E+03  2.51271E+03 -2.25522E+03
  4.26242E+03 -6.39133E+03  1.44458E+04  1.76249E+03  1.21988E+04  7.69631E+03  8.61290E+03  1.57639E+04
 -3.53203E+02  1.15545E+04 -1.80944E+04  1.42414E+04 -2.32684E+04  2.92525E+03 -1.56142E+04 -4.16478E+03
 -9.66667E+03 -1.15279E+04 -1.76443E+02 -1.16961E+04  7.59622E+03 -7.13318E+03  7.72895E+03 -4.89256E+03
  1.41268E+03 -8.22189E+03  1.47838E+03 -4.63064E+03  1.10056E+04 -3.66078E+03  3.57229E+03  3.73417E+02
  1.34382E+04  1.34774E+03  8.52630E+02  3.62541E+03 -3.68858E+03  8.34359E+03 -8.21492E+03  9.96786E+03
 -1.46846E+04 -2.57580E+03 -6.21384E+03 -9.52522E+03  6.07636E+02 -1.02181E+04  6.72156E+03 -1.34592E+04
  1.35833E+04 -1.41364E+04  1.81246E+04  1.67487E+03  1.18128E+04  7.99806E+03  2.76759E+03  1.04448E+04
 -6.69877E+03  1.17175E+04 -1.29898E+04 -1.06361E+03 -9.49685E+03 -8.94336E+01 -8.24918E+02 -6.09836E+03
  6.99589E+02 -6.31667E+01 -9.71391E+03  1.68669E+03 -5.60162E+03  1.51472E+03 -1.28066E+04  1.71399E+03
 -6.04024E+03 -7.68858E+03 -1.19363E+03 -9.83073E+03  8.39770E+03 -8.29637E+03  1.16619E+04 -5.74470E+02
  1.86530E+04  6.50979E+03  3.98438E+03  7.36677E+03 -3.66323E+03  1.18765E+04 -7.61163E+03  4.47972E+03
 -1.40083E+04  7.15261E+03 -8.29615E+03 -3.90687E+03 -5.29797E+02 -9.09297E+03  1.75701E+02 -5.02982E+03
  1.03080E+04 -1.55199E+03  3.09174E+03 -1.62153E+03  3.61296E+03  5.80763E+03 -1.65928E+03  9.32029E+02
  2.59169E+03 -6.67152E+02 -2.44420E+02 -3.62004E+03  9.19408E+03  3.81663E+03  6.74943E+03  7.48865E+03
 -3.26615E+03  4.98389E+03 -1.36217E+04  8.48494E+03 -1.21793E+04  8.26624E+01 -7.78100E+03 -5.98302E+03
 -5.05592E+03 -1.56813E+04  6.69946E+02 -9.19658E+03  2.87152E+03 -6.38747E+03  1.05681E+04 -7.58529E+03
  1.03506E+04  1.38823E+03 -1.77000E+02  8.91782E+02 -8.31415E+03  8.61397E+03 -4.64676E+03  2.16645E+03
 -3.58565E+03 -4.74108E+03  4.71258E+02 -6.74171E+03  8.25628E+03 -4.30886E+03  3.82522E+03 -2.45648E+02
  1.19778E+02 -1.06145E+03  8.19288E+03  3.65984E+03 -4.21445E+03 -1.84259E+03  1.34805E+03 -1.54546E+03
  1.53240E+03 -3.48517E+03  6.11034E+03  5.39862E+03  7.08315E+03  8.34032E+03 -2.41699E+03  1.20321E+04
 -5.93659E+03  1.37227E+03 -3.44617E+03  8.79519E+02 -4.89855E+03 -1.12701E+03  1.39976E+03 -6.09079E+03
  2.63593E+03 -6.64435E+03  4.74386E+03 -5.86974E+03  7.08778E+03  3.55054E+03 -4.08624E+02  1.77785E+03
 -4.60748E+03 -9.67953E+00 -5.97210E+03 -2.48871E+03 -6.79016E+03 -6.31054E+03 -3.17994E+03 -5.06473E+03
  8.74620E+02 -2.16961E+03  4.60624E+03 -8.55931E+02 -1.58236E+03  4.35559E+03  6.04183E+03  7.76724E+02
  5.71404E+01  6.02981E+03 -5.28638E+03 -3.38468E+03  5.58120E+03 -3.63665E+03  6.60805E+03  1.44422E+03
  4.52580E+03 -1.11010E+03  6.74614E+03  8.78605E+03  5.73183E+03  5.29438E+03 -3.94302E+03  6.09601E+03
 -1.10224E+04  3.19492E+03 -4.92351E+03 -2.49190E+03 -5.56722E+03 -2.98747E+03  8.73492E+03 -8.86286E+03
  6.35913E+03  1.69903E+03  6.04428E+03 -1.70430E+03  6.48678E+03  2.49730E+03 -3.04237E+03  1.05580E+03
 -2.99070E+03 -2.66764E+03 -2.50704E+03  4.24691E+03 -4.83479E+02  1.84040E+03 -3.76929E+03  2.83594E+03
 -8.17662E+03  5.41618E+03 -3.24314E+03 -3.73840E+03 -5.08834E+03  9.24434E+02 -8.26655E+03 -6.27711E+03
 -4.91058E+03 -9.58641E+03  3.37038E+03 -1.25017E+04  4.35229E+03 -1.04479E+04  1.56378E+04 -5.64835E+03
  1.17772E+04  5.52951E+02  3.24274E+03  4.69520E+03 -2.16547E+03  1.04579E+04 -3.34193E+03  5.92551E+03
 -6.41389E+03  3.69032E+03 -1.11306E+03  2.08234E+03  1.57697E+03  5.52506E+02  9.68957E+02 -9.68894E+02
 -7.97273E+01 -4.29615E+02 -9.81119E+03 -4.87812E+03  1.32015E+03 -3.45578E+02 -3.19453E+03 -4.43019E+03
  5.60936E+03 -2.36068E+03  3.98013E+03  2.15052E+03  2.66229E+03 -5.80578E+01  4.62145E+03  3.13009E+03
 -2.70805E+03  8.51126E+03 -7.51378E+03  8.93646E+03 -1.01447E+04  3.41789E+03 -5.83961E+03 -5.95100E+03
 -1.50010E+03 -4.82476E+03  6.00207E+02 -6.87205E+03  8.89075E+03 -2.20762E+03  2.16317E+03  2.43524E+03
  1.54809E+03 -1.15199E+03 -5.82871E+02  1.37836E+03 -3.16076E+03 -2.55812E+03  4.62529E+03 -6.76608E+02
  2.57987E+03 -9.75222E+02  1.89199E+03 -1.54038E+02 -4.66851E+03  1.91251E+03 -4.06138E+03  2.86761E+03
 -2.30395E+03  5.38407E+03 -5.51437E+03 -1.03847E+02 -3.14088E+03 -7.70591E+03 -1.34168E+02 -5.55103E+03
  3.55134E+03 -3.83943E+03  7.01374E+03  2.47618E+03  5.93595E+03  7.44538E+03  7.99649E+02  5.66830E+03
 -3.87032E+03  6.75135E+03 -4.42779E+03  4.23637E+03 -3.29749E+03  7.53301E+03 -5.04961E+03  2.72354E+03
 -8.94227E+03  2.93716E+03  2.85269E+02 -1.58914E+03 -4.82682E+03  2.33943E+03 -1.35582E+03 -3.14791E+02
 -1.95894E+03 -1.63856E+03 -6.38571E+03 -9.88085E+03  3.44532E+03 -2.71905E+03  3.77405E+03 -2.48395E+03
  3.52727E+03 -9.28039E+02  1.78868E+03  9.81802E+03 -1.39265E+03  6.76323E+03 -4.79856E+03  2.54518E+03
