 $NMID ID='MM_0lb_SNR50_11hz_g40_3.RAW', FMTDAT='(8E13.5)'
 TRAMP=1., VOLUME=1. $END
  3.09750E+05  1.86520E+03  3.38000E+05  2.53303E+05  8.69721E+04  3.31735E+05 -1.35261E+05  2.51647E+05
 -1.91595E+05  8.23124E+04 -1.11729E+05 -2.74888E+04 -9.25155E+03 -5.00700E+04  5.54170E+04 -6.94285E+02
  3.20958E+04  5.12585E+04 -2.36289E+04  8.11938E+04 -6.56046E+04  6.42623E+04 -8.82394E+04  3.65072E+04
 -8.52642E+04 -1.12258E+04 -6.23249E+04 -4.85612E+04 -1.76966E+04 -6.90923E+04  2.63600E+04 -4.33908E+04
  4.41300E+04  5.83496E+03  1.60240E+04  4.46532E+04 -3.31989E+04  4.87978E+04 -6.40355E+04 -3.29383E+03
 -5.47581E+04 -5.88818E+04 -1.51199E+04 -8.03488E+04  3.77966E+04 -5.76124E+04  5.10479E+04 -2.15401E+04
  4.42566E+04  1.33730E+04  3.07175E+04  2.42328E+04  2.08151E+04  3.16298E+04 -1.90174E+02  2.50870E+04
 -1.76775E+04  6.14277E+03 -2.02575E+04 -4.97982E+03  1.02232E+03 -1.12450E+04  2.42969E+04  1.46520E+04
  7.71344E+03  3.58458E+04 -3.47216E+04  3.51848E+04 -6.14525E+04  2.90749E+03 -6.19818E+04 -4.89272E+04
 -1.25583E+04 -6.10717E+04  3.78660E+04 -4.82432E+04  5.81653E+04 -7.56125E+02  2.97857E+04  2.59755E+04
 -5.37862E+03  3.80478E+04 -3.34895E+04  1.70668E+04 -3.52291E+04 -6.40705E+03 -1.93092E+04 -1.36026E+04
 -9.55748E+03 -1.79519E+04  1.14868E+03 -1.83469E+04  5.88519E+03 -2.56678E+04  1.43127E+04 -1.92799E+04
  7.01576E+03  2.31279E+02 -8.28136E+03  9.52652E+03 -1.83992E+04 -7.12598E+03 -5.86432E+03 -3.34649E+04
  2.04732E+04 -4.46871E+04  4.80417E+04 -1.68890E+04  4.73861E+04  2.00661E+04  1.58875E+04  4.48788E+04
 -1.63768E+04  3.65091E+04 -2.82390E+04  5.70651E+03 -9.63943E+03 -2.81032E+04  2.25471E+04 -3.53632E+04
  3.87896E+04 -1.19303E+04  3.72920E+04  2.25789E+04  1.77704E+04  4.99288E+04 -9.68333E+03  4.92387E+04
 -3.68872E+04  3.70779E+04 -4.04986E+04  1.27163E+04 -4.30854E+04 -1.87232E+04 -2.54249E+04 -4.09244E+04
  8.04428E+03 -4.20957E+04  3.47037E+04 -1.74674E+04  3.26721E+04  8.38514E+03  5.64694E+03  2.26847E+04
 -1.10459E+04  1.07232E+04 -9.81963E+03 -1.34631E+04  2.16493E+03 -2.58071E+03  1.92709E+04  4.11922E+03
  1.04752E+04  2.49439E+04 -9.51512E+03  1.99653E+04 -2.18973E+04  1.65837E+04 -3.44212E+04 -7.49041E+03
 -2.20201E+04 -2.12241E+04 -9.98977E+03 -2.07003E+04  2.57868E+03 -2.45431E+04  1.77803E+04 -2.00471E+04
  2.89505E+04 -1.56891E+04  4.02268E+04  2.95568E+03  2.34265E+04  2.14396E+04  3.03153E+03  3.54635E+04
 -2.18128E+04  2.85731E+04 -3.07985E+04  7.94939E+03 -1.84985E+04 -5.25618E+03 -5.57290E+03 -1.34031E+04
 -3.43119E+03 -2.36104E+03 -9.86383E+03  1.04165E+04 -2.22269E+04  6.47523E+03 -2.11980E+04 -8.10951E+03
 -9.26590E+03 -2.30614E+04  8.74206E+03 -2.57440E+04  1.15081E+04 -1.22225E+04  1.55578E+04 -2.85514E+03
  9.61854E+03  1.88328E+04  6.03223E+03  2.42386E+04 -1.45658E+04  1.03918E+04 -1.88522E+04 -1.54950E+03
 -2.06952E+04 -1.97781E+04 -4.23970E+03 -2.79772E+04  1.09390E+04 -1.44837E+04  2.15896E+04 -9.99543E+03
  1.79817E+04  9.28277E+02  1.57619E+04  3.49824E+03  6.11616E+03 -1.88624E+03  1.29031E+04 -4.75507E+03
  2.18018E+04  1.12908E+03  1.69382E+04  1.83029E+04  1.96954E+04  3.65431E+04 -7.60313E+03  4.10948E+04
 -1.84398E+04  3.42294E+04 -3.53944E+04  1.25597E+04 -4.32232E+04 -3.20410E+03 -2.95774E+04 -2.02331E+04
 -1.47443E+04 -3.53606E+04  1.06923E+04 -2.74232E+04  2.91268E+04 -1.64231E+04  1.90460E+04  3.10782E+03
  1.10578E+04  1.74619E+04 -6.92423E+03  1.78111E+04 -1.87358E+04  5.14885E+03 -1.05345E+04 -1.03216E+04
  6.55665E+03 -1.60927E+04  1.11833E+04 -8.03584E+03  1.05132E+04  1.45482E+03  1.79836E+03  1.10493E+04
 -4.80349E+03  2.73022E+03 -5.07495E+03 -1.18052E+04  4.01929E+03 -1.43596E+04  8.87621E+03 -1.51528E+04
  2.07628E+04 -7.91937E+03  1.80888E+04  2.41614E+03  2.06532E+04  1.46711E+04  4.34881E+03  2.88471E+04
 -9.26814E+03  2.93211E+04 -1.74053E+04  2.00323E+04 -1.60485E+04  5.92554E+03 -1.25648E+04 -3.48018E+03
 -1.93656E+03 -5.79248E+03 -3.06554E+03  5.62622E+02 -9.29089E+03 -6.93318E+02 -3.37227E+03  7.44030E+03
 -1.39668E+04 -1.20506E+03 -1.04539E+04 -1.04709E+04 -1.13343E+04 -1.88244E+04  9.99678E+03 -1.41709E+04
  1.37553E+04 -4.63207E+03  5.72311E+03  2.52840E+03 -5.40084E+03 -1.94494E+03 -4.55113E+03  3.14719E+03
 -1.26998E+04 -9.77170E+03 -6.29580E+03 -4.53929E+03  8.71697E+03 -1.89687E+04  1.36073E+04 -9.47442E+03
  1.63504E+04  3.35778E+03  1.30649E+04  1.31848E+04  3.60282E+03  1.71280E+04 -4.46084E+03  1.00611E+04
 -1.57938E+04  7.33805E+03 -9.56301E+03 -2.64204E+03  5.45586E+03 -5.52081E+03  4.20284E+03 -4.00761E+03
  6.71411E+03 -2.80928E+02  3.12817E+03  8.26218E+03 -9.13696E+03  1.30392E+04 -1.49286E+04  2.20405E+03
 -6.17450E+03 -4.76166E+03 -5.08165E+03 -1.61402E+04  6.87005E+03  2.75255E+02  9.00148E+03 -1.41134E+03
  2.04263E+03  6.14944E+03 -3.21533E+03  1.11151E+04 -1.25313E+04  3.57270E+03 -1.18230E+04 -8.89032E+03
 -6.35723E+03 -1.12820E+04  3.06995E+03 -1.42308E+04  1.01632E+04 -9.36113E+03  1.60862E+04  3.24163E+03
  4.41043E+03  8.22072E+03  4.62090E+03  1.55017E+04 -1.40180E+04  4.94809E+03 -8.87883E+03 -5.73282E+03
 -2.11242E+03 -1.13728E+04 -9.94646E+02 -1.21018E+04  2.57905E+03 -1.04044E+04  4.91660E+03 -6.72002E+03
  7.05198E+03 -9.97499E+02  3.15785E+03  7.03802E+03  3.26028E+03 -1.08680E+03  1.02071E+02 -5.81296E+03
  1.18439E+04  3.05479E+03  1.16744E+04 -2.36602E+03  1.12837E+04  6.05734E+03  9.69388E+03  1.62486E+04
 -6.05797E+03  1.80077E+04 -1.33563E+04  1.20668E+04 -1.86601E+04  6.64957E+03 -1.49697E+04 -8.12387E+03
 -1.21869E+04 -9.71759E+03 -2.47721E+03 -1.25065E+04  1.14950E+04 -1.07109E+04  4.61591E+03 -4.72715E+03
 -1.27955E+03 -5.69130E+03  5.34203E+03 -5.80354E+02  3.00961E+03 -3.41009E+02  4.61865E+03  4.01384E+01
  9.39051E+03  2.93441E+02  1.00605E+04  1.02805E+04 -2.17492E+03  9.29593E+03 -8.11063E+03  6.03496E+03
 -1.33009E+04 -5.36006E+03 -7.70154E+03 -1.78446E+03 -5.18339E+03 -1.03600E+04  1.21173E+04 -9.63972E+03
  1.59870E+04 -4.38143E+03  1.12074E+04  2.83812E+03  7.34222E+03  6.53968E+03 -4.83728E+03  1.71768E+04
 -7.20234E+03  1.06637E+04 -4.96284E+03  3.39320E+03 -4.95768E+03 -7.14560E+03 -5.35029E+03 -2.83185E+03
 -1.11203E+03 -4.02457E+03 -8.59574E+03  5.87140E+03  6.71102E+02  9.63823E+03 -1.84804E+03 -4.56703E+03
 -5.57907E+03 -1.07980E+04 -8.85052E+02 -1.20409E+04  1.22525E+04 -9.09385E+03  8.71018E+03 -3.27680E+03
  1.73477E+04  3.68353E+03  3.24813E+03  1.00445E+04  9.17482E+02  8.64901E+03 -7.75823E+03  6.73260E+03
 -8.68657E+03 -1.85664E+02 -7.64877E+03 -3.71531E+03 -2.85024E+03 -1.37774E+04  7.59918E+03 -4.25148E+03
  7.64926E+03 -2.41735E+03  5.55829E+03  3.21440E+03  9.07064E+02  2.97705E+03 -2.77602E+03 -6.13790E+00
  1.00194E+03  5.99174E+03  4.69968E+03  4.80523E+03 -5.23984E+02  2.02690E+03  5.74258E+03  4.27922E+03
 -8.71452E+02  1.37697E+04 -9.51682E+03  1.05013E+04 -6.15504E+03  1.81257E+03 -1.18893E+04 -5.67368E+03
 -5.37030E+03 -1.63490E+04  3.74504E+03 -1.76781E+04  6.30116E+03 -6.93876E+03  1.44233E+04 -3.07257E+03
  7.77668E+03  6.01587E+03  4.02769E+02  4.79680E+03 -4.11330E+03  5.61359E+03 -3.67512E+03  5.06467E+03
 -3.99833E+03 -4.21767E+03 -2.43395E+01 -5.84533E+03  1.15143E+03 -2.01935E+03  2.88058E+03  4.46446E+03
  3.59629E+03 -1.69831E+03  6.49151E+03  4.01858E+03 -4.80311E+03  8.13860E+02  5.21439E+03  4.51410E+02
  1.34260E+03  3.63600E+03  4.93895E+03  8.48518E+03  4.45866E+03  9.24019E+03 -4.35807E+03  1.68597E+03
 -5.32967E+03  1.09350E+03 -1.61626E+03 -1.61146E+03 -7.42930E+03  6.49298E+02  1.89325E+02 -7.28080E+03
 -2.07465E+02 -3.47844E+03  8.83739E+03 -3.47246E+03  5.30971E+03  3.08542E+03  2.47439E+03  7.10596E+03
 -5.70119E+03  2.55436E+03 -6.45569E+03 -3.72836E+03  3.70846E+01 -6.35801E+03  1.81049E+03 -6.53418E+03
  2.45708E+03 -2.69558E+02  6.37148E+03 -6.32751E+02  6.90960E+03  4.10961E+03 -4.81733E+03  6.07927E+03
 -4.19139E+03 -6.35591E+03 -5.03564E+03 -2.15389E+03 -1.34061E+03 -3.46863E+03  5.60873E+03 -5.67104E+03
  4.84023E+01  2.40754E+03  1.08360E+04  4.62105E+03  1.56207E+03  3.95963E+03 -7.61465E+03  5.20319E+03
 -7.57374E+03  1.40685E+03 -4.49944E+03 -5.98254E+02 -5.63944E+03  1.88796E+03 -6.53957E+02 -7.07028E+02
  2.42997E+03 -4.28564E+03  2.08619E+03 -6.01345E+03 -2.61237E+03 -2.29335E+03 -2.42777E+03  2.95673E+03
 -5.56899E+03  1.91793E+03  4.17841E+03  5.22012E+03  8.67976E+02  3.12485E+03 -8.71542E+02  4.25878E+03
 -4.28252E+03 -9.11917E+02 -6.61119E+03  6.13269E+03 -6.57418E+03 -6.07794E+03 -8.74326E+03 -5.55943E+03
  1.47971E+02 -6.42822E+03  1.08120E+03 -6.26342E+03  4.91056E+03 -9.70185E+03  9.40613E+03 -8.22649E+03
  8.37292E+03  7.60454E+03  6.56372E+03  7.99608E+02 -2.55314E+03  8.88421E+03 -1.04274E+02 -3.04465E+03
  4.90850E+02  2.76070E+03 -8.21451E+03  8.54453E+01  6.70142E+02 -1.26000E+03 -4.45537E+03  9.82998E+02
  1.46315E+03  3.91142E+03 -3.44557E+03  2.23743E+03 -2.21838E+03 -2.39398E+03 -6.09648E+03 -5.15420E+03
  6.62194E+03  3.92596E+03 -2.17708E+03  1.60745E+03  6.83013E+03  4.66118E+03  2.79758E+03  6.77808E+03
 -7.60147E+01  1.02573E+04 -1.04991E+04  2.36212E+03 -7.42749E+03 -3.68789E+03 -4.56623E+03 -9.42754E+03
 -7.42982E+03 -1.05530E+04  3.43605E+03 -9.30683E+03  3.07148E+03 -5.99641E+03  9.34462E+03  5.59948E+03
  3.99289E+03 -4.74373E+03 -1.11556E+04 -1.60065E+03 -5.83311E+03  3.06351E+03 -9.80318E+01  5.17034E+03
 -5.59331E+02 -1.22758E+03  2.78580E+03 -2.62000E+03  5.21706E+03  1.29133E+03  3.06450E+03  4.77128E+03
 -6.93478E+03  5.85241E+03  2.70045E+03  1.18432E+03 -1.49739E+03 -1.17330E+04 -3.92995E+03 -3.59430E+03
  5.15904E+03 -2.76529E+03 -2.82179E+02 -7.06327E+03  8.85213E+03  6.25062E+03  9.78459E+02  1.11227E+04
  2.05411E+03  1.13982E+03 -6.12974E+02  3.63597E+03 -8.80555E+02  1.14974E+03 -5.53487E+03  9.20756E+03
  3.19945E+03 -2.89459E+03 -5.30827E+02  5.33281E+03 -3.12171E+03 -5.16386E+03 -2.36470E+03 -1.08456E+03
  3.37601E+02 -1.76860E+03 -8.91207E+02 -9.30500E+03  6.70555E+03 -2.84849E+03  2.75811E+03 -1.44022E+03
  8.56125E+03 -3.00912E+02  4.33508E+03  5.96250E+03  3.20762E+03  4.13469E+03  1.99534E+03  3.10077E+03
