 $NMID ID='MM_0lb_SNR50_14hz_g60_94.RAW', FMTDAT='(8E13.5)'
 TRAMP=1., VOLUME=1. $END
  3.11555E+05 -6.23638E+03  3.37037E+05  2.49824E+05  8.42765E+04  3.40796E+05 -1.36434E+05  2.57305E+05
 -1.92445E+05  8.43701E+04 -1.11712E+05 -3.48725E+04 -1.68374E+03 -5.86944E+04  5.52244E+04 -4.91180E+02
  3.54083E+04  5.50726E+04 -9.34155E+03  7.79524E+04 -6.30701E+04  6.51019E+04 -8.73272E+04  3.40136E+04
 -8.15713E+04 -1.11828E+04 -6.02178E+04 -4.63770E+04 -1.40680E+04 -7.38535E+04  2.51966E+04 -4.53365E+04
  3.99811E+04  2.41878E+03  1.90020E+04  5.32796E+04 -3.19072E+04  4.73451E+04 -6.13410E+04  2.00673E+03
 -5.18853E+04 -5.90227E+04 -7.00147E+03 -7.49973E+04  3.68820E+04 -5.95192E+04  4.72573E+04 -1.56016E+04
  4.50074E+04  1.20893E+04  2.84453E+04  3.08615E+04  1.05111E+04  3.09038E+04 -9.91300E+01  2.36801E+04
 -2.30034E+04  1.39394E+04 -1.94033E+04 -2.19520E+03  5.37533E+03 -7.70826E+03  1.95898E+04  1.25976E+04
  1.24737E+04  3.89611E+04 -3.78607E+04  3.84271E+04 -6.16206E+04 -6.29264E+03 -5.38858E+04 -4.06892E+04
 -1.37201E+04 -6.08713E+04  3.67388E+04 -4.58700E+04  6.07507E+04  1.17223E+03  3.40861E+04  3.37722E+04
  1.07475E+03  3.35243E+04 -3.14375E+04  1.57398E+04 -3.48337E+04 -1.32425E+03 -1.62598E+04 -1.02783E+04
 -1.13461E+04 -1.15042E+04 -2.14154E+03 -1.96214E+04  8.19979E+03 -1.94250E+04  2.02224E+04 -1.52353E+04
  8.78438E+03  7.07438E+03 -9.69530E+03  1.57534E+04 -2.16347E+04 -5.53306E+03 -1.07285E+04 -3.90833E+04
  2.57459E+04 -4.21304E+04  5.26067E+04 -1.71819E+04  4.90831E+04  1.89343E+04  1.75408E+04  4.41453E+04
 -1.58161E+04  3.70458E+04 -2.01617E+04  4.95088E+03 -9.17506E+03 -3.00565E+04  1.80820E+04 -3.58270E+04
  3.76357E+04 -1.01554E+04  3.31800E+04  2.49955E+04  2.39430E+04  4.64897E+04 -7.26439E+03  5.46994E+04
 -3.76230E+04  3.05616E+04 -4.39999E+04  1.46607E+04 -4.15542E+04 -1.21142E+04 -2.42831E+04 -3.64849E+04
  8.54810E+03 -3.61301E+04  3.21806E+04 -1.79425E+04  3.39074E+04  9.45477E+03  2.66833E+03  1.91688E+04
 -1.44319E+04  9.83441E+03 -1.16330E+04 -1.29363E+04  4.29633E+03 -7.18932E+03  2.00327E+04  9.75663E+03
  1.00696E+04  2.46016E+04 -6.99820E+03  2.97813E+04 -2.55570E+04  1.47132E+04 -3.10044E+04 -4.44929E+03
 -2.25228E+04 -1.99837E+04 -1.06749E+04 -2.94344E+04  5.10476E+03 -1.84500E+04  1.45284E+04 -2.51677E+04
  3.00730E+04 -1.44056E+04  3.53607E+04 -2.38512E+03  2.30733E+04  2.12954E+04  3.79450E+03  3.56274E+04
 -1.55250E+04  2.96608E+04 -2.82298E+04  1.81743E+04 -2.29030E+04 -1.00546E+04 -2.70585E+03 -1.40872E+04
 -2.48304E+02 -4.13395E+03 -7.92569E+03  8.28673E+03 -1.23113E+04  4.04461E+03 -1.61283E+04 -2.95428E+03
 -1.70032E+03 -2.15118E+04  6.45270E+03 -2.98914E+04  1.56701E+04 -1.62630E+04  2.16756E+04  5.84532E+03
  7.45338E+03  9.16356E+03 -4.47554E+03  1.71071E+04 -1.17959E+04  1.43104E+04 -1.84851E+04 -1.49524E+02
 -1.69265E+04 -1.82482E+04 -1.10002E+03 -2.41244E+04  1.14928E+04 -2.47470E+04  1.90597E+04 -1.00629E+04
  2.12595E+04  1.74399E+03  1.85658E+04  4.95949E+03  9.10509E+03  2.84824E+03  1.08508E+04  9.35056E+02
  2.59566E+04  3.85422E+03  2.15347E+04  1.87735E+04  1.74635E+04  3.24713E+04 -6.54867E+03  4.06480E+04
 -2.06718E+04  3.41411E+04 -3.16803E+04  1.23725E+04 -3.60326E+04 -6.36633E+03 -2.98075E+04 -1.74479E+04
 -1.19423E+04 -2.75039E+04  6.89392E+03 -2.71548E+04  2.41490E+04 -1.46005E+04  1.89997E+04  2.37548E+03
  8.08862E+03  1.20271E+04 -8.67731E+03  1.76967E+04 -1.90744E+04  5.90797E+03 -1.40166E+04 -8.50130E+03
  1.94445E+03 -1.68036E+04  6.28865E+03 -1.46371E+04  6.58823E+03 -1.01249E+03  4.62561E+03  1.12217E+04
 -1.00333E+04  3.68832E+03 -8.57129E+03 -9.29174E+03 -1.22909E+03 -1.95739E+04  7.81705E+03 -1.53487E+04
  1.47155E+04 -7.84651E+03  1.51486E+04  6.29707E+03  1.89866E+04  1.56004E+04  7.09028E+03  2.63445E+04
 -8.49987E+02  1.81634E+04 -1.74372E+04  1.51005E+04 -1.86105E+04  4.74516E+03 -1.15707E+04 -4.88351E+03
 -5.83920E+03 -7.22759E+03  1.20215E+03  2.72870E+03 -1.99158E+03  1.98403E+03 -4.68777E+03  5.10779E+03
 -1.21560E+04  2.89470E+03 -8.30951E+03 -1.41847E+04 -6.98244E+03 -1.70827E+04  7.37130E+01 -1.48792E+04
  1.01517E+04 -6.10460E+03  1.53416E+03  3.16181E+03  4.40073E+03  8.46547E+03 -9.03385E+03 -5.84990E+02
 -7.64430E+03 -9.44305E+03 -2.20299E+03 -1.19215E+04  3.07783E+03 -1.25353E+04  9.32414E+03 -4.94718E+03
  1.54570E+04  4.66124E+03  1.05335E+04  1.28117E+04  2.27753E+03  1.22017E+04 -7.02420E+03  1.26097E+04
 -9.98023E+03  3.23318E+03 -1.07508E+03 -1.20778E+03  4.72002E+02 -6.71833E+03  7.38419E+03 -2.86000E+03
  3.67334E+03  3.57443E+03 -4.32440E+02  6.29284E+03 -1.11730E+04  9.15655E+03 -1.34102E+04 -3.27256E+02
 -5.33594E+03 -7.57975E+03 -2.18542E+03 -1.10004E+04  1.82587E+03 -7.57203E+03  3.27485E+03  1.02175E+03
 -3.55560E+03  7.28459E+03 -9.66564E+03  6.01281E+03 -1.06170E+04  6.94909E+03 -8.96924E+03 -2.55924E+03
 -6.91432E+03 -8.50364E+03  1.59839E+03 -1.03503E+04  9.92189E+03 -6.50814E+03  7.92571E+03  3.15335E+03
  4.90878E+03  1.13756E+04  4.31444E+02  1.20647E+04 -7.94828E+03  7.64695E+03 -1.08013E+04 -5.41609E+02
 -1.18871E+04 -8.23506E+03  1.24298E+03 -6.18893E+03 -1.20647E+03 -3.23724E+03  1.85536E+03 -1.33465E+03
  7.20293E+03 -6.18217E+02  1.15530E+03 -1.28991E+03  2.33822E+03 -9.97786E+02  1.78171E+03 -4.30822E+03
  6.36666E+03 -4.44199E+03  5.89606E+03  4.28011E+02  1.00796E+04  8.03043E+03  1.10538E+04  8.15718E+03
 -7.43372E+03  1.89680E+04 -1.32108E+04  1.08148E+04 -1.52561E+04  1.78675E+03 -1.16493E+04 -5.60073E+03
 -6.05810E+03 -1.35020E+04  2.16875E+03 -1.10226E+04  7.00328E+03 -5.38866E+03  3.05037E+03 -3.15265E+03
  4.87731E+03  1.24699E+03  3.31239E+03 -1.48941E+03  4.12069E+03  1.39774E+03  6.23343E+03 -2.41907E+03
  9.28731E+03  5.15272E+03  6.12423E+02  5.67879E+03  1.51205E+03  5.79193E+03 -9.45989E+03  7.70102E+03
 -8.51287E+03 -6.24385E+02 -6.12777E+03 -7.69720E+03  4.42691E+03 -2.40633E+03  8.10916E+03 -9.22085E+03
  1.22197E+04 -6.52156E+03  1.45124E+04 -4.26014E+03  9.16076E+03  7.34926E+03 -6.88334E+01  1.01334E+04
 -6.33383E+03  1.10241E+04 -1.35290E+04  5.86557E+03 -5.81221E+03 -3.55046E+03 -8.49140E+03  2.29986E+03
  1.77220E+03  2.61862E+03 -2.07411E+03  3.54609E+03 -1.72914E+03 -9.70715E+02 -8.31430E+03 -1.57934E+03
 -4.51640E+03 -5.99134E+03 -4.61302E+03 -7.64537E+03  5.91297E+03 -5.60866E+03  1.07818E+04 -2.72453E+03
  9.32803E+03  6.98661E+03  3.60614E+03  1.17038E+04  1.32180E+02  6.78759E+03 -8.32302E+03  7.69568E+03
 -7.85975E+03  2.08172E+03 -5.44631E+03  6.81944E+02 -1.19223E+03 -7.04060E+03  6.45780E+03 -4.40722E+03
  4.86146E+03  1.16861E+03  4.20186E+03  3.29669E+03  5.42125E+02  6.93863E+02  8.66499E+03  2.63200E+03
  5.78373E+03 -6.47328E+01  6.68936E+03 -3.03824E+03 -6.93880E+02  6.19078E+03  5.22710E+03 -7.58740E+02
 -2.30878E+03  8.39111E+03 -7.42817E+03  7.78011E+03 -8.52077E+03  3.22577E+03 -1.27622E+04 -3.29519E+03
 -2.21172E+03 -5.05900E+03 -1.48544E+03 -1.04302E+04  4.42394E+03 -1.03472E+04  8.05109E+03 -2.88245E+03
  9.89219E+03  3.11376E+03  4.40331E+03 -1.76927E+03 -1.87940E+03  7.35992E+03 -3.20351E+03 -6.90811E+03
 -8.85750E+02  3.88828E+02  2.67268E+03 -5.57504E+03  2.14612E+03 -6.45163E+02  4.38083E+03  3.12492E+03
  2.88960E+03  3.94709E+03 -3.17821E+03  5.06366E+02  6.33959E+03  1.88716E+03  1.38173E+03  7.52271E+03
  3.91296E+03 -1.53595E+03  2.50691E+02  2.45757E+03  4.04135E+02  5.75336E+03  2.13159E+02  9.17642E+03
 -9.46349E+03  3.25612E+03 -7.44720E+03  3.65578E+03 -5.92914E+03 -3.03825E+03  3.57299E+03 -5.11653E+03
  2.85261E+03 -7.07266E+03  2.27760E+03 -4.24315E+03  5.40420E+03  6.26394E+03 -5.60499E+03 -7.73505E+02
 -5.13312E+03  4.19520E+03 -5.97936E+03 -2.75888E+03 -4.80063E+03 -2.82122E+03  5.25930E+02 -3.35300E+03
  2.22836E+02  5.55500E+01  3.48620E+03  1.06505E+03 -3.18410E+03  3.73721E+03  5.37474E+02  5.13388E+03
 -1.14325E+03 -3.56440E+03  3.90864E+03  3.84379E+03  8.78916E+02 -7.73311E+02  3.01760E+03  1.61622E+03
  8.79058E+03 -2.42559E+03  8.37496E+03  4.72839E+03 -6.24967E+02  8.46225E+03 -2.13573E+03 -3.02938E+02
 -7.78831E+03 -3.38307E+02 -4.63770E+03 -5.12807E+03 -1.42587E+03 -2.13268E+03 -2.53128E+03 -1.90936E+03
  3.02494E+03 -2.85571E+03  1.20994E+02 -2.20308E+02  5.33859E+03  6.92576E+03  1.31946E+03  1.09321E+03
  3.11370E+03  8.18012E+02 -3.09716E+03  1.49344E+03  2.02873E+03  6.50456E+02 -3.94662E+03 -1.34671E+03
 -3.85883E+03  5.26766E+03 -8.79522E+03  9.07626E+02 -4.07632E+03 -4.79042E+03 -5.22686E+03 -7.87538E+03
 -1.21663E+03 -3.98398E+03  2.56494E+03 -5.64165E+03  3.28577E+03 -5.62258E+03  4.78972E+03 -7.66900E+02
  4.80353E+03  6.36398E+03  2.28178E+03 -7.86163E+01  2.47604E+03  4.05301E+03 -5.17184E+03  4.30386E+03
 -6.50576E+03  2.49744E+03 -2.80446E+03 -1.13093E+03 -1.69549E+03 -1.02866E+03 -8.35587E+02  1.15449E+03
 -3.34566E+03 -7.35804E+02  1.10674E+03  1.65721E+03 -2.98124E+03  9.71881E+01 -2.49107E+03  2.42576E+03
 -1.42849E+03 -2.84598E+03  2.65036E+02 -2.83237E+02  5.12013E+03  3.24207E+03 -2.06015E+03  3.80162E+03
 -4.50121E+03  6.72272E+03 -3.04768E+03  3.97503E+03 -8.42099E+03  2.57842E+02 -3.13698E+03 -1.19034E+03
 -1.78257E+02 -8.34304E+03 -2.15648E+03 -5.86860E+00  6.47920E+03 -4.17050E+03  6.93874E+03  8.53895E+02
  2.06521E+02  1.41402E+03 -1.69550E+03  1.04059E+03  2.94541E+03  2.09989E+03 -2.50525E+03  2.32680E+03
 -4.03055E+02 -3.42763E+03  4.55485E+03 -2.08522E+03  5.79337E+03 -1.58816E+03  9.46215E+02  3.24895E+03
 -6.03227E+03 -2.39214E+02 -6.94189E+03  1.61951E+03 -7.22267E+03 -4.71074E+03  6.34248E+02 -4.01958E+03
  4.81702E+03 -1.04527E+04  2.53934E+03 -3.25228E+03  3.86566E+03  2.95842E+03  1.11738E+03 -1.74152E+03
  7.27772E+02  3.03290E+03  8.78379E+02  1.93620E+03 -5.47378E+03  1.08709E+03  3.66539E+03 -1.45375E+03
 -3.99538E+02  3.25727E+03 -2.02888E+03 -5.35590E+03 -9.04160E+02 -3.53224E+03  2.80925E+02 -2.06234E+03
 -1.47696E+03 -3.64735E+03 -3.71369E+02 -3.26427E+03 -6.42259E+02 -3.54965E+03  4.22635E+03 -4.91513E+02
  3.39646E+03 -2.99990E+03 -5.01593E+02  1.17308E+03  3.58394E+03  4.92609E+03 -3.00465E+03 -4.23448E+03
