 $NMID ID='MM_0lb_SNR50_18hz_g55_94.RAW', FMTDAT='(8E13.5)'
 TRAMP=1., VOLUME=1. $END
  3.10498E+05 -4.36285E+02  3.43139E+05  2.48659E+05  8.44424E+04  3.37193E+05 -1.35262E+05  2.53536E+05
 -1.89144E+05  8.56457E+04 -1.10140E+05 -2.99109E+04  3.57083E+03 -4.91483E+04  5.60253E+04  3.20626E+03
  3.46002E+04  5.39492E+04 -1.36470E+04  7.43379E+04 -6.02211E+04  6.49854E+04 -8.45177E+04  2.65345E+04
 -8.29910E+04 -1.18372E+04 -5.54674E+04 -5.23903E+04 -1.56170E+04 -7.17455E+04  2.38477E+04 -4.53767E+04
  4.50190E+04  1.22144E+03  1.61143E+04  4.85444E+04 -3.36564E+04  4.73992E+04 -6.46229E+04 -5.27862E+02
 -5.16167E+04 -5.31682E+04 -7.50844E+03 -7.33482E+04  3.45555E+04 -5.41261E+04  4.74292E+04 -2.35984E+04
  4.16133E+04  1.41068E+04  2.92430E+04  2.25820E+04  1.33503E+04  2.64213E+04 -3.06774E+03  2.76927E+04
 -2.69922E+04  9.44971E+03 -2.10618E+04 -1.49989E+03  4.37043E+03 -7.12320E+03  1.93266E+04  9.41770E+03
  5.96313E+03  3.76092E+04 -3.17035E+04  3.32946E+04 -6.17935E+04  3.11163E+03 -5.30144E+04 -4.40995E+04
 -1.27833E+04 -6.64906E+04  4.39512E+04 -4.49146E+04  5.65736E+04 -2.56498E+03  3.46763E+04  3.62992E+04
 -5.43584E+03  3.62491E+04 -3.27584E+04  1.31998E+04 -3.18262E+04 -4.31378E+03 -1.67779E+04 -7.04049E+03
 -9.39989E+03 -1.77912E+04 -6.31345E+02 -1.84284E+04  4.89108E+03 -2.05497E+04  1.65395E+04 -1.61336E+04
  1.32134E+04  4.95941E+03 -4.53675E+03  1.43844E+04 -1.64387E+04 -6.32452E+03 -9.05657E+03 -3.35574E+04
  2.06654E+04 -4.01184E+04  4.69063E+04 -2.27104E+04  4.33073E+04  1.82561E+04  1.66767E+04  3.90356E+04
 -2.02294E+04  3.08258E+04 -2.10635E+04 -1.19102E+02 -1.37351E+04 -2.52332E+04  1.94264E+04 -3.19220E+04
  3.91711E+04 -5.51171E+03  2.91498E+04  2.18239E+04  1.30440E+04  4.40483E+04 -7.09250E+03  4.93883E+04
 -2.54538E+04  3.07413E+04 -3.69343E+04  1.10213E+04 -4.12191E+04 -1.27653E+04 -2.12906E+04 -3.45241E+04
  9.58255E+03 -3.13699E+04  3.06494E+04 -1.25833E+04  2.90533E+04  6.96191E+03  4.31809E+03  1.90317E+04
 -1.05502E+04  9.18640E+03 -8.36101E+03 -1.05284E+04  1.15096E+04 -1.52711E+04  2.05528E+04  6.53340E+03
  1.28280E+04  1.80589E+04 -6.44039E+03  2.35294E+04 -2.28530E+04  1.28236E+04 -2.71207E+04 -8.88751E+03
 -1.46221E+04 -1.80037E+04  2.76443E+02 -1.37315E+04  3.20543E+03 -1.69483E+04  1.20777E+04 -1.58387E+04
  2.42796E+04 -1.11537E+04  2.61439E+04 -3.57365E+02  1.95357E+04  2.14375E+04  4.43172E+03  3.29441E+04
 -1.54893E+04  2.74417E+04 -2.62478E+04  4.78115E+03 -2.05380E+04 -1.16565E+04 -3.98968E+03 -1.62823E+04
  6.42658E+03 -4.99766E+03 -4.75140E+03  5.74191E+03 -1.62123E+04  7.14382E+03 -8.54556E+03 -2.62945E+03
 -7.24526E+03 -2.15106E+04  8.47122E+03 -1.75593E+04  1.37071E+04 -1.40328E+04  1.67215E+04  8.50784E+01
  1.21727E+04  8.73080E+03 -1.27672E+03  1.38819E+04 -1.03172E+04  1.20993E+04 -1.83098E+04 -4.99847E+03
 -1.32456E+04 -5.84020E+03  3.71899E+02 -1.69802E+04  8.35834E+03 -1.59940E+04  1.61729E+04 -5.83336E+03
  1.35952E+04  1.46565E+03  8.94800E+03  3.22482E+03  1.05238E+04 -1.65542E+02  9.70931E+03  2.14098E+03
  1.30220E+04  2.23630E+03  1.48211E+04  1.38210E+04  8.98888E+03  2.33059E+04 -3.58430E+03  2.98684E+04
 -1.51877E+04  1.77573E+04 -3.15178E+04  8.34131E+03 -2.59981E+04 -3.83077E+03 -2.72694E+04 -1.53473E+04
 -9.43792E+03 -2.56438E+04  5.01496E+03 -1.53566E+04  1.63363E+04 -1.32443E+04  1.76413E+04  3.83914E+02
  3.42434E+03  1.34461E+04 -1.16119E+04  1.53601E+04 -1.10982E+04  6.27059E+03 -1.41042E+04 -1.00014E+04
 -4.34744E+03 -1.68736E+04  6.14651E+03 -6.75699E+03  1.00734E+04 -2.86655E+03  1.68038E+03  6.86615E+03
 -4.64586E+03  5.39801E+03 -7.29502E+03 -2.76338E+03  1.27382E+02 -1.24476E+04  6.05719E+03 -1.76089E+04
  1.29159E+04 -8.42701E+03  1.78237E+04  5.51725E+02  1.29937E+04  8.39047E+03  3.38634E+03  1.77536E+04
 -4.46885E+03  1.36511E+04 -9.57123E+03  1.12556E+04 -1.29346E+04  3.81960E+03 -1.09907E+04 -1.32845E+03
 -1.95013E+03 -1.70169E+03  1.42081E+03  4.89851E+03 -5.49175E+03  6.01681E+03 -2.83434E+03  6.68798E+03
 -1.00124E+04  1.69908E+03 -9.97816E+03 -6.37838E+03 -4.70321E+03 -1.44565E+04  3.16803E+03 -8.22522E+03
  4.71351E+03 -5.60103E+03  4.09987E+03  3.77900E+03  4.83568E+03  6.99123E+03 -6.40114E+03  1.46737E+03
 -5.83297E+03  1.42283E+03 -2.04293E+03 -7.04425E+03  2.04001E+03 -9.38869E+03  1.61582E+04 -5.00696E+03
  1.57175E+04  2.35866E+03  1.14886E+04  7.47355E+03  2.53673E+03  1.27170E+04 -8.48386E+03  4.24670E+03
 -9.82698E+03  5.32082E+03 -3.53470E+03 -4.33936E+03  6.16378E+02 -9.80577E+02  7.91095E+03 -1.97209E+03
  7.64369E+03  2.86682E+03  2.37071E+03  5.90309E+03 -1.69347E+03  8.12568E+03 -3.85672E+03  3.95136E+03
 -6.02871E+03 -4.37331E+03  3.82434E+03 -7.72781E+03  3.99793E+03 -6.73470E+03  2.11155E+03 -4.85547E+02
  3.59793E+03  3.36378E+03 -8.82520E+03  8.89743E+03 -9.52634E+03 -8.59239E+02 -5.78590E+03  8.20307E+02
 -1.26578E+03 -1.06407E+04  2.29561E+03 -7.59501E+03  8.84664E+03 -3.02604E+03  5.00035E+03  4.17851E+03
 -1.85251E+03  9.16534E+03 -1.72750E+03  9.70948E+03 -6.23264E+03  2.28095E+03 -7.63530E+03 -1.50133E+02
 -8.89515E+03 -8.34391E+03 -2.33774E+03 -7.75800E+03  5.92509E+03 -7.91176E+03  2.94804E+03  3.22518E+03
  5.89110E+03 -4.15355E+03 -1.15207E+03  4.82840E+03  9.84335E+01 -1.06051E+03  4.82680E+03 -3.22855E+03
  7.19917E+03  2.63619E+02  6.06729E+03 -2.36365E+03  7.10485E+03  6.17821E+03  4.58440E+03  1.00762E+04
 -2.10420E+03  9.05677E+03 -4.95972E+03  5.62706E+03 -1.23958E+04 -1.46042E+03 -8.32581E+03 -3.12794E+03
 -6.56784E+03 -6.24447E+03  1.01952E+03 -6.35963E+03 -3.95736E+01 -4.40437E+03  5.07935E+03 -1.49667E+03
 -4.00140E+03 -4.08921E+03  2.76358E+03  3.53498E+02  1.75333E+03  1.27953E+03  5.92392E+02 -2.77573E+02
  6.85812E+03  2.50991E+03  4.60195E+03  3.31896E+03 -1.80439E+03  2.04441E+03 -3.07918E+03  2.58501E+03
 -7.85961E+03 -6.45627E+03 -3.14085E+03 -2.29288E+03  1.58894E+02 -4.28411E+03  3.30611E+03 -4.08305E+03
  6.82457E+03 -2.55436E+03  5.93788E+03  5.00543E+02  9.01601E+03  1.72862E+03 -1.79580E+03  3.50855E+03
 -2.98354E+03  3.45652E+03 -3.63069E+03  2.36270E+03 -6.38778E+03 -4.12397E+03  9.38698E+02  1.23899E+03
 -4.85810E+02  5.25628E+03  3.55303E+03  2.47886E+03 -3.68171E+03 -1.68270E+03 -5.23854E+03 -4.83048E+03
 -3.11739E+03 -2.01946E+03  2.94312E+03 -5.71897E+03  6.03574E+02 -3.42389E+03  8.08653E+03 -5.36983E+03
  3.61588E+03  2.61317E+03  8.15317E+02  6.44994E+03  4.12590E+03  3.50889E+03 -4.81623E+03 -4.52524E+02
 -1.24037E+03  4.24333E+03 -5.08958E+03  2.84515E+03 -2.03754E+03  7.68000E+02 -1.33005E+03 -1.00563E+03
  4.23274E+03 -2.03683E+03  4.16668E+03 -8.21826E+02 -2.81137E+03 -4.83234E+02  1.50018E+03  1.06558E+03
  9.44366E+02 -2.19889E+02 -3.28084E+02 -3.04053E+03  6.04058E+03  1.90256E+03  1.87908E+03  3.49442E+03
 -2.16920E+03  2.29729E+03 -2.29306E+03  2.54024E+03 -5.30132E+03 -3.81974E+02 -5.67949E+03  4.41222E+02
 -2.60987E+03 -2.29422E+03  2.69789E+03 -3.70495E+03  4.30579E+03 -6.05507E+03  1.13959E+04  7.97871E+02
  3.88540E+03  2.90308E+03  1.96775E+03  1.75427E+03 -1.75187E+03  6.72522E+03 -6.64608E+02 -2.78453E+02
 -2.17718E+03 -1.64100E+03  2.04413E+03  8.54596E+01 -1.33938E+03  1.25780E+03 -5.36195E+03 -3.07500E+02
  1.10133E+03  1.30822E+03  2.46081E+03 -6.13099E+03 -5.40732E+01  2.15438E+03  5.02811E+03 -2.70211E+03
 -2.54360E+03 -1.68794E+03  5.00151E+03 -1.18237E+03 -2.76422E+03  1.92121E+03 -1.47637E+03  3.22797E+03
 -2.36189E+03  7.13300E+02 -1.74184E+03 -1.89448E+03  6.94367E+02  1.46080E+03 -2.89813E+03 -4.66991E+02
 -1.08385E+03  5.30385E+01 -2.07058E+02 -2.80036E+03  9.03483E+02 -5.99797E+02 -4.61949E+03  1.96873E+03
 -3.87699E+03  9.37530E+02 -2.49809E+03 -1.52995E+03 -1.91475E+03 -6.61054E+02  2.85151E+02 -2.26277E+03
  2.16509E+03 -3.09995E+03  3.25078E+03  1.47009E+02  3.59391E+03 -1.98419E+03 -8.56367E+02  1.97210E+03
  1.74926E+03 -3.34513E+03 -5.57567E+02 -1.49112E+03  6.00686E+02  1.20407E+03  3.50587E+03 -4.20994E+03
 -2.60558E+03 -9.66118E+00  8.46611E+01  9.66824E+02 -2.30046E+03  5.11925E+03 -3.73716E+03  4.06974E+03
 -3.88171E+03 -2.40064E+02 -1.96827E+03 -3.35940E+02  5.39552E+02 -3.47993E+03 -6.41952E+03 -5.28774E+02
  7.64482E+03 -6.82297E+03  4.13096E+03 -3.92475E+02  6.34488E+03  1.14879E+03  2.89929E+02  1.07004E+03
  1.52368E+03  1.37570E+03  1.60976E+03  3.92952E+03 -3.42643E+01 -1.03781E+03  1.79283E+03 -1.28490E+03
 -1.43398E+03 -4.59442E+03 -1.09666E+03 -1.16797E+03 -8.91979E+01  9.42402E+02  5.02592E+03  1.51098E+03
  4.50382E+02 -3.19924E+03  2.15899E+03 -7.54590E+03 -6.51557E+02 -5.53841E+03  4.53455E+03 -2.10857E+03
  2.82646E+03 -1.77152E+03  1.18617E+02  3.49870E+03 -9.87261E+02  5.35208E+03  3.79195E+02  2.32229E+03
 -1.06181E+03 -5.57476E+01 -5.67408E+02  6.51538E+02 -9.94393E+02  1.65101E+01 -3.95355E+03  1.07124E+03
 -6.59905E+02 -6.28005E+02 -5.48320E+02  8.58658E+02 -1.30327E+03 -4.98245E+03 -8.11192E+01 -2.13081E+03
  5.45821E+03 -3.00677E+02  1.67715E+03  1.35660E+03  2.76305E+03  1.98784E+03  1.83316E+03  3.34645E+03
  2.08797E+03  3.81081E+03 -3.27486E+03 -1.69590E+03 -2.56083E+03  8.30711E+02 -5.67281E+03 -2.08064E+02
 -5.12109E+03 -3.02871E+03 -1.36328E+03 -8.62643E+02  1.98027E+03 -1.62334E+03 -1.80331E+03  1.78895E+03
 -7.00280E+02  7.59610E+02  8.72399E+02 -1.07309E+02 -7.96480E+02  3.28809E+03 -1.61871E+03 -2.69578E+03
  7.57787E+02 -3.13881E+03 -7.37997E+02  1.62793E+03 -3.04843E+03 -4.81840E+03 -1.46521E+03 -4.10868E+03
 -2.19491E+03  3.73525E+03  3.50923E+03 -3.29827E+03 -3.45821E+03 -2.26706E+03  3.69633E+03 -1.45406E+03
  2.09454E+03 -4.60752E+03 -4.98498E+02 -1.88001E+03  1.13065E+03 -4.61033E+01 -1.06445E+03  1.33629E+03
 -2.53571E+01  1.13684E+03 -4.57751E+03 -2.35669E+03  1.46017E+03 -9.46403E+01 -6.58340E+02  4.77479E+02
  1.78311E+02  1.42973E+03  2.63374E+03 -1.53147E+03  2.52511E+02 -7.82816E+02  2.40099E+03 -1.78819E+03
 -1.54949E+02  6.96841E+02 -1.52252E+03  5.47466E+02 -2.05341E+03 -5.69779E+03 -4.15876E+03 -1.23489E+03
 -3.16229E+03 -3.61275E+03  2.62856E+01  9.74497E+02 -3.14290E+03 -6.80325E+02 -2.04853E+03  2.80004E+03
