 $NMID ID='MM_0lb_SNR50_18hz_g50_12.RAW', FMTDAT='(8E13.5)'
 TRAMP=1., VOLUME=1. $END
  3.09365E+05 -1.53514E+02  3.35850E+05  2.48929E+05  8.44729E+04  3.39352E+05 -1.36818E+05  2.51487E+05
 -1.87204E+05  8.11679E+04 -1.11999E+05 -2.71191E+04  2.71530E+03 -4.86612E+04  5.14175E+04 -1.03819E+02
  3.62422E+04  5.21776E+04 -1.95928E+04  7.61245E+04 -5.81900E+04  6.46562E+04 -7.78068E+04  3.39572E+04
 -7.85604E+04 -1.40113E+04 -5.83411E+04 -4.71343E+04 -1.49286E+04 -7.01188E+04  2.54503E+04 -4.50393E+04
  4.48012E+04  4.15729E+03  1.53707E+04  4.47816E+04 -3.94532E+04  4.54805E+04 -6.93299E+04 -3.12487E+02
 -5.48591E+04 -5.49568E+04 -9.72531E+03 -7.54168E+04  3.37335E+04 -5.65971E+04  4.61750E+04 -1.80347E+04
  4.26029E+04  1.51834E+04  2.72859E+04  2.26501E+04  1.56912E+04  2.71068E+04 -7.59392E+03  3.27191E+04
 -1.94954E+04  1.55681E+04 -1.64991E+04 -2.59065E+03  1.53989E+03 -7.53001E+03  2.26157E+04  9.64782E+03
  1.27194E+04  3.34173E+04 -3.03487E+04  3.37757E+04 -6.53393E+04  2.22384E+03 -5.93355E+04 -4.26371E+04
 -1.39159E+04 -6.49547E+04  3.86521E+04 -4.33514E+04  5.69268E+04 -4.73839E+02  3.40952E+04  3.22246E+04
 -9.32062E+03  3.13877E+04 -2.75345E+04  9.35603E+03 -2.53570E+04 -4.44675E+03 -1.54622E+04 -7.83238E+03
 -9.22113E+03 -1.23382E+04  2.40988E+03 -1.57041E+04  7.45461E+03 -2.29024E+04  1.43251E+04 -5.96389E+03
  1.17087E+04  5.24328E+03 -2.29079E+03  1.30753E+04 -1.88595E+04  1.45348E+03 -1.20560E+04 -3.19666E+04
  2.16963E+04 -4.33925E+04  4.31091E+04 -1.50435E+04  4.08882E+04  1.82973E+04  1.08758E+04  4.33300E+04
 -1.49868E+04  3.03837E+04 -2.14482E+04  2.32074E+03 -8.27447E+03 -2.74486E+04  2.33756E+04 -2.95645E+04
  3.56746E+04 -7.91149E+03  3.36514E+04  2.34397E+04  1.74207E+04  4.65016E+04 -8.66160E+03  4.43754E+04
 -3.11494E+04  2.70151E+04 -3.30161E+04  1.08589E+04 -4.28366E+04 -1.24489E+04 -1.85571E+04 -3.66722E+04
  7.52314E+03 -3.29234E+04  2.65812E+04 -9.75397E+03  2.78659E+04  9.41551E+03  4.35536E+03  2.13831E+04
 -1.32392E+04  9.09384E+03 -1.06833E+04 -8.87166E+03  8.84049E+03 -7.08904E+03  1.77397E+04  8.50412E+03
  1.08172E+04  1.95640E+04 -3.94773E+03  2.33684E+04 -2.35854E+04  1.03366E+04 -2.26532E+04 -6.43435E+03
 -1.41906E+04 -1.70919E+04 -7.37978E+03 -1.77867E+04  5.91132E+03 -1.48725E+04  1.01120E+04 -1.71052E+04
  2.26451E+04 -1.57058E+04  2.92238E+04  6.40044E+02  2.34207E+04  1.59163E+04  4.44902E+03  3.45380E+04
 -1.23958E+04  2.75727E+04 -2.74214E+04  1.13754E+04 -1.47176E+04 -1.15073E+04 -2.72813E+03 -1.25602E+04
  2.32377E+03 -2.12768E+03 -2.68644E+03  3.40216E+03 -1.30687E+04  2.25295E+03 -1.67431E+04 -7.59891E+03
 -5.81778E+03 -1.66541E+04  5.61560E+03 -1.84122E+04  1.23590E+04 -1.87918E+04  1.65965E+04  2.80529E+03
  9.53430E+03  1.33711E+04  1.39347E+03  1.91919E+04 -1.23526E+04  9.15929E+03 -1.45956E+04 -5.62019E+03
 -1.67669E+04 -1.79010E+04  1.17947E+03 -1.61264E+04  4.82355E+03 -1.44564E+04  1.78259E+04 -8.32603E+03
  1.46027E+04  1.95628E+03  1.02071E+04  4.39737E+03  4.64148E+03 -1.73727E+03  9.14255E+03 -5.28734E+02
  1.61571E+04  3.37670E+03  1.52793E+04  9.52281E+03  8.75625E+03  2.43399E+04 -3.29462E+03  2.81650E+04
 -2.05813E+04  2.23183E+04 -2.99740E+04  1.14901E+04 -2.91194E+04 -3.62733E+00 -1.99919E+04 -1.72359E+04
 -7.50890E+03 -1.94755E+04  9.91156E+03 -2.36748E+04  1.57217E+04 -1.41962E+04  1.58603E+04 -4.88807E+02
  1.78064E+03  1.40032E+04 -1.21557E+04  1.39395E+04 -1.25302E+04  6.68355E+02 -1.35363E+04 -9.74185E+03
  1.27020E+03 -1.34335E+04  7.58316E+03 -1.13013E+04  9.60898E+03 -2.52558E+03  3.00426E+03  6.81931E+03
 -7.10365E+03  2.00807E+03 -4.37031E+03 -7.70077E+03  7.41434E+02 -1.33082E+04  5.93823E+03 -9.54941E+03
  1.53614E+04 -6.90678E+03  1.46937E+04  4.34141E+03  1.47525E+04  5.48722E+03 -9.30806E+02  1.50688E+04
 -3.31444E+03  1.10822E+04 -9.51897E+03  1.08282E+04 -1.61299E+04  2.08207E+03 -1.08580E+04  2.62416E+03
 -1.11887E+03 -4.07981E+03 -2.21681E+03  4.50337E+03 -3.16242E+03  4.31879E+02 -2.51069E+03  4.11956E+03
 -7.93935E+03 -3.76498E+03 -1.12402E+04 -9.12828E+03 -2.55199E+03 -1.46680E+04  7.78670E+03 -1.02329E+04
  5.41565E+03 -7.80787E+03  8.70509E+03 -3.80761E+02 -1.34385E+03  1.31220E+03 -6.64796E+03 -1.29884E+03
  8.94878E+01 -4.51258E+03 -3.35434E+03 -2.88396E+03  4.23272E+03 -6.58669E+03  9.24053E+03  2.63028E+03
  1.18556E+04 -3.20123E+01  1.38837E+04  8.45649E+03  1.01162E+03  5.97391E+03 -4.23736E+03  7.31939E+03
 -8.23708E+03  2.62294E+03 -6.70385E+03 -3.76651E+03 -3.12686E+02 -1.15430E+03  7.10720E+03 -2.99893E+02
  6.00785E+03  3.93776E+03  6.43643E+03  1.05303E+04 -1.49320E+03  6.84902E+03 -8.69008E+03 -1.49094E+03
 -7.16983E+03 -6.30998E+03 -1.82289E+02 -8.23280E+03  2.87766E+03 -1.62709E+03  2.70248E+03  1.15995E+03
  2.41541E+03  3.88034E+03 -1.48180E+03  8.05278E+03 -4.52549E+03  4.79519E+03 -7.49737E+03 -1.99461E+02
 -5.21576E+03 -5.62347E+03  3.56241E+03 -6.19291E+03  9.36801E+03 -4.07430E+03  9.19063E+03  3.72832E+02
  6.52988E+03  6.57895E+03  3.69412E+02  5.11619E+03 -6.59471E+03  4.46187E+03 -9.55481E+03 -2.61618E+02
 -6.34023E+03 -6.61603E+03 -2.10459E+03 -5.83752E+03  3.06096E+03 -3.87276E+03  1.74498E+03 -7.27046E+03
  2.61173E+03  1.38704E+02 -1.84764E+03  4.90410E+03 -1.53092E+03 -3.37398E+03 -9.87140E+02  2.85078E+02
  4.44012E+03  3.76449E+03  5.95939E+03  2.79872E+03  5.89854E+03  2.16413E+03  3.65638E+03  8.82828E+03
 -5.43396E+03  8.32761E+03 -1.30710E+04  6.45527E+03 -1.25519E+04 -3.25865E+03 -1.07285E+04 -4.85332E+03
 -4.12091E+03 -7.00733E+03 -6.08702E+02 -1.20880E+03  4.91286E+03 -1.07786E+03  3.49221E+03 -3.31756E+03
  1.32364E+03 -1.87379E+03  1.27720E+03  1.16212E+03  3.82763E+03  2.41831E+03  3.27582E+03  9.61850E+02
  5.08335E+03  2.73940E+03 -8.59457E+02  4.62178E+03 -2.30952E+03  3.54222E+03 -2.55518E+03  5.61678E+03
 -8.29938E+03 -2.63859E+03 -3.48534E+03 -6.44877E+03  1.95779E+03 -5.25071E+03  3.67971E+03 -6.67104E+03
  7.27912E+03 -2.24289E+03  5.89278E+03  2.48341E+03  7.08931E+03  6.72182E+03 -8.94482E+02  7.58252E+03
 -5.93970E+03  5.65291E+03  4.41535E+02  5.07366E+02 -2.04889E+02  1.60173E+03 -3.40730E+03 -2.50454E+03
  1.97677E+03  3.09143E+03 -1.52001E+03  1.06867E+03 -3.66855E+03  3.11287E+03 -1.57876E+03  1.93536E+03
 -2.76905E+03  1.51003E+03  1.30580E+03 -4.15488E+02  4.04033E+03 -1.08420E+04  2.61582E+03 -4.28091E+03
  2.56215E+03  4.11357E+03 -1.76041E+03  3.10492E+03 -2.76960E+03  2.59338E+03  5.42001E+02 -1.03487E+03
 -7.64467E+03  5.38126E+03 -6.42424E+03  2.96486E+03  4.05745E+03 -4.53008E+03  1.83331E+03 -6.20916E+03
  2.83009E+03  4.50425E+03  8.78980E+02 -1.21663E+03  4.17087E+03  2.61997E+02  1.45511E+03  1.07527E+03
  1.41155E+03 -1.43405E+02  1.78257E+03  5.69041E+03 -1.90541E+03  1.68657E+03  1.53172E+03  4.41229E+03
 -3.93962E+02  6.78690E+03 -3.47899E+03  5.16691E+03 -4.37562E+03 -1.88623E+02 -6.26450E+03 -1.41279E+03
 -1.41077E+03  6.32357E+02 -2.46450E+03 -1.23948E+03 -1.89817E+03 -4.79827E+03  5.84663E+03  6.60612E+02
  5.24482E+03  9.14869E+02 -4.62287E+02  1.92156E+03  3.55865E-01  4.20894E+03 -4.23606E+03  3.83611E+02
 -1.66544E+03 -2.39188E+03  8.23916E+02  1.61289E+02  2.22190E+03  9.77284E+02 -2.59797E+03 -2.33547E+02
 -3.10641E+03  4.26832E+02  2.45829E+03  3.42060E+03 -4.86459E+02  3.70040E+03  2.09840E+02 -3.20991E+02
  1.09665E+03 -2.31747E+03 -3.00994E+03  3.06221E+03  4.40145E+03  5.15134E+03 -4.89874E+02  1.75916E+03
 -2.31574E+03 -4.20043E+03  1.71592E+03  2.20178E+03 -1.10379E+03  7.30295E+02  1.71029E+03 -3.29696E+03
 -5.86973E+03 -2.98242E+03  8.21393E+02 -2.93217E+03  3.08908E+03  3.18134E+03 -1.09786E+03  1.53819E+03
  6.65934E+02 -1.67813E+03 -4.00861E+03 -5.67549E+02 -2.58829E+03 -3.32121E+03  8.81480E+02 -5.42769E+03
 -3.11868E+03 -2.64133E+03  5.34522E+03 -1.94365E+03  2.78989E+03 -9.48710E+02 -1.38839E+03 -7.43138E+02
  3.67491E+02 -6.70653E+02  4.23767E+02 -3.48316E+02  2.54316E+02  4.18129E+02 -1.59890E+02  2.08724E+02
  1.81769E+03 -1.14733E+03  1.64189E+03  3.00952E+03 -1.43506E+02 -3.16952E+03  1.98866E+02  3.16646E+02
 -1.43757E+03  1.55654E+03 -3.38875E+03  5.39417E+02 -1.12769E+03 -5.24455E+03  8.32701E+02 -1.60657E+03
 -2.25178E+03 -9.04023E+02  1.89544E+03  6.18372E+03  4.77573E+03  1.95498E+03 -9.70882E+02  3.45347E+03
 -1.41821E+03 -1.97777E+03  1.45426E+03 -4.27941E+02  2.41618E+03 -1.22786E+03 -4.19223E+03  3.22695E+03
  9.07044E+02  1.22220E+03 -7.91113E+02  1.13920E+03 -8.30608E+01  1.15555E+03 -1.68265E+03 -2.53835E+03
 -2.46915E+03  2.46619E+02 -3.57628E+03 -5.35516E+03  1.17364E+02  1.18077E+02  3.37107E+02 -2.66926E+03
  4.05543E+02 -3.42799E+03 -1.06032E+03  1.89629E+03 -2.09437E+03  9.93236E+01 -5.47402E+02 -3.85205E+03
 -3.87299E+03  1.44646E+03  3.85573E+03  1.45615E+01  2.36248E+03  2.26306E+03  6.04357E+02 -4.94595E+02
  1.31880E+03  2.26027E+03 -2.57053E+02 -2.34387E+03 -3.17880E+03 -6.47968E+02 -3.03741E+03 -4.16319E+02
  1.71369E+03  4.97556E+03 -3.40051E+03 -2.43649E+03 -1.55117E+02 -5.79415E+02 -4.98276E+02  1.56342E+03
 -3.00049E+03  5.88697E+03 -4.99214E+02  1.56871E+03 -2.80293E+03 -4.37170E+03 -6.95696E+03  2.61017E+03
  2.75651E+03 -9.36367E+02  2.12152E+01  9.78983E+02 -5.27741E+01 -1.65681E+03  1.35951E+03 -7.52894E+02
  5.43467E+02 -4.19155E+02 -2.48410E+03 -2.34215E+03  2.89811E+02 -8.51053E+02  4.14591E+03  1.75105E+03
 -6.34000E+02  8.82890E+02  1.59735E+03  8.79813E+02 -7.50185E+02 -2.02613E+03  2.75692E+03 -1.93954E+03
 -6.53392E+02  2.66779E+03  1.65791E+03 -1.98790E+03 -7.74295E+02 -2.03912E+03  3.55844E+03 -3.76521E+03
 -1.46334E+03  1.66660E+03 -1.25276E+03  9.81184E+01  1.61097E+03  3.60284E+02  2.72240E+03  3.57084E+03
  9.10192E+02 -1.64905E+03 -2.75832E+03 -9.21578E+02 -2.33869E+03  2.20600E+03  5.02560E+03  6.09782E+01
 -3.86476E+03 -1.60673E+03 -2.28491E+03 -9.84136E+02 -1.59308E+03 -1.80607E+03 -1.09495E+03 -1.74665E+03
  1.47985E+03  3.66423E+03 -5.83528E+02 -8.67992E+02  2.17531E+03 -5.51430E+02  3.10183E+03 -1.20432E+03
 -1.30300E+03  9.93979E+02  3.09626E+03  2.63451E+03  3.69046E+03  2.44167E+03 -2.41041E+02  4.01468E+03
