 $NMID ID='MM_0lb_SNR50_19hz_g55_42.RAW', FMTDAT='(8E13.5)'
 TRAMP=1., VOLUME=1. $END
  3.08810E+05  3.16012E+02  3.36346E+05  2.48494E+05  8.63374E+04  3.36978E+05 -1.33372E+05  2.49447E+05
 -1.86859E+05  8.53785E+04 -1.14422E+05 -3.15090E+04 -3.59928E+02 -4.85582E+04  4.90331E+04  4.07223E+03
  3.40390E+04  5.50764E+04 -2.03266E+04  7.74791E+04 -5.98621E+04  6.37659E+04 -8.26924E+04  3.39989E+04
 -8.35373E+04 -1.16653E+04 -5.48433E+04 -5.05163E+04 -1.39153E+04 -7.02140E+04  2.55146E+04 -5.09609E+04
  4.37947E+04 -4.26365E+02  1.31934E+04  4.79821E+04 -3.39265E+04  4.64406E+04 -6.56800E+04  8.12506E+02
 -5.61282E+04 -5.66314E+04 -7.11101E+03 -7.54482E+04  3.39399E+04 -5.61290E+04  4.39316E+04 -1.79988E+04
  4.69169E+04  9.03860E+03  3.07376E+04  2.23236E+04  1.61527E+04  2.83271E+04 -3.91177E+03  3.12883E+04
 -2.21979E+04  1.53604E+04 -1.96738E+04 -3.73927E+03  5.75917E+03 -7.48351E+03  2.54848E+04  1.48320E+04
  7.87385E+03  3.33514E+04 -3.05422E+04  3.58665E+04 -5.91820E+04  8.21748E+03 -5.78907E+04 -4.31023E+04
 -1.35014E+04 -5.93985E+04  4.12721E+04 -4.39995E+04  5.63038E+04 -1.25879E+03  3.62139E+04  3.12401E+04
 -9.35155E+03  3.53502E+04 -2.31889E+04  1.00309E+04 -2.74983E+04 -3.94305E+03 -1.30168E+04 -1.20085E+04
 -7.66179E+03 -1.23692E+04 -2.79578E+03 -2.01681E+04  2.92860E+03 -1.81752E+04  1.58981E+04 -1.30590E+04
  1.58014E+04  6.40418E+03 -3.80747E+03  1.39916E+04 -1.88691E+04 -5.21678E+03 -8.89865E+03 -3.09865E+04
  1.99857E+04 -3.96884E+04  4.48008E+04 -2.20507E+04  4.75293E+04  1.73342E+04  1.51291E+04  4.15397E+04
 -1.88934E+04  2.88525E+04 -2.67565E+04 -6.42479E+03 -1.04028E+04 -2.93356E+04  2.01957E+04 -3.10382E+04
  4.22251E+04 -4.83853E+03  3.40959E+04  2.09792E+04  1.53951E+04  4.25761E+04 -6.52140E+03  4.88539E+04
 -2.94862E+04  3.01886E+04 -3.49700E+04  8.94441E+03 -3.97268E+04 -1.68937E+04 -2.20192E+04 -3.17344E+04
  4.68633E+03 -3.18308E+04  3.05424E+04 -1.14302E+04  2.61689E+04  1.05389E+04  3.26138E+03  1.52626E+04
 -1.30681E+04  7.32746E+03 -3.43548E+03 -1.11812E+04  8.59656E+03 -1.20655E+04  2.16087E+04  6.68333E+03
  1.30246E+04  2.25304E+04 -4.40372E+03  2.30036E+04 -2.27127E+04  7.40553E+03 -2.50801E+04 -8.46043E+03
 -1.54784E+04 -1.96031E+04 -1.06857E+04 -2.07323E+04  5.31942E+03 -1.59313E+04  1.07394E+04 -1.05570E+04
  2.12783E+04 -1.37736E+04  2.77618E+04  2.67789E+03  2.17388E+04  1.91526E+04  9.47616E+03  3.18301E+04
 -1.60424E+04  3.10228E+04 -2.95004E+04  6.85677E+03 -1.94555E+04 -1.20163E+04 -4.09970E+03 -1.62917E+04
 -8.45805E+02 -2.26545E+03  1.00169E+03  4.00104E+03 -1.19816E+04  1.12391E+03 -1.48316E+04 -1.68943E+03
 -1.08501E+04 -1.57591E+04  1.32959E+03 -1.99802E+04  1.00046E+04 -1.47478E+04  1.62319E+04  2.24732E+03
  9.62959E+03  1.06311E+04 -2.58355E+03  9.41516E+03 -8.62414E+03  7.96908E+03 -1.79751E+04 -4.93042E+02
 -9.47182E+03 -1.67127E+04  2.55694E+03 -1.93340E+04  9.36092E+03 -1.40956E+04  1.73374E+04 -7.15736E+03
  1.76208E+04 -1.09600E+03  1.15974E+04  3.45035E+03  3.23178E+03  1.50053E+03  4.71239E+03 -4.51134E+02
  1.14104E+04  2.13925E+03  1.40467E+04  1.47674E+04  1.15259E+04  2.36069E+04 -2.56261E+03  3.05397E+04
 -1.52308E+04  2.23700E+04 -2.63110E+04  7.48716E+03 -2.44438E+04 -1.87456E+03 -2.27659E+04 -1.54351E+04
 -1.04374E+04 -2.00064E+04  5.03738E+03 -1.51659E+04  1.84102E+04 -1.29421E+04  1.72446E+04  4.18165E+03
  4.70060E+03  1.22641E+04 -1.00292E+04  1.32602E+04 -1.50811E+04  4.65324E+03 -1.30575E+04 -7.53732E+03
 -1.13178E+03 -1.10261E+04  1.13704E+04 -7.00407E+03  7.81389E+03  6.04712E+02  2.98059E+03  3.46930E+03
 -1.33760E+03  3.00266E+03 -2.50803E+03 -9.26521E+02  3.20979E+03 -5.64062E+03  9.96793E+03 -9.26901E+03
  1.11340E+04 -7.17453E+03  1.37401E+04  1.57193E+02  9.05596E+03  1.02829E+04  1.26477E+03  1.31721E+04
 -2.62857E+02  2.05699E+04 -8.82605E+03  1.51082E+04 -1.32587E+04 -6.18221E+02 -1.28708E+04 -3.52224E+03
 -6.84421E+03 -3.61505E+03 -3.07013E+03 -3.22446E+03 -1.40306E+03 -2.73008E+03 -5.27032E+03 -9.32572E+02
 -7.07776E+03  3.36431E+03 -8.97112E+03 -8.48529E+03 -4.67891E+03 -1.23479E+04  4.72700E+03 -8.40995E+03
  7.38896E+03 -2.70164E+03  6.24185E+02 -2.04384E+02  1.21640E+03  1.54889E+03  1.57519E+02 -7.81473E+02
 -7.72800E+03 -3.44548E+03  1.12794E+03 -6.20124E+03  5.00015E+03 -1.33400E+04  9.76952E+03 -4.90162E+03
  1.38695E+04  3.97581E+02  8.77380E+03  6.48444E+03 -1.13927E+03  6.69541E+03 -6.15824E+03  1.15179E+04
 -5.35784E+03 -7.51588E+02 -5.41673E+03  6.49789E+03  3.14923E+03 -2.73745E+03  3.02686E+03  7.27821E+02
  2.69410E+03 -1.08888E+03  1.10292E+03  6.06882E+03 -5.71421E+03  7.74989E+03 -9.65691E+03 -9.54247E+02
 -3.16734E+03 -4.60690E+03  1.72964E+03 -7.32409E+03  2.79551E+03 -3.10715E+03  4.03874E+03 -1.36883E+03
  4.59373E+03 -1.47194E+03 -1.83384E+03  6.31833E+03 -4.94052E+03  5.33765E+03 -2.49654E+03 -1.13645E+03
 -3.80897E+03 -5.77194E+03  3.88656E+03 -8.21614E+03  8.15034E+03 -7.59769E+03  9.55026E+03 -1.01629E+03
  5.28643E+03  3.11389E+03  5.58710E+01  8.49295E+03 -6.19108E+03  4.57075E+03 -6.54325E+03 -2.42429E+03
 -6.15559E+03 -2.19388E+03  8.90231E+02 -1.48583E+03 -2.71298E+03 -6.28180E+03  4.15522E+03 -1.11530E+03
 -4.29815E+02 -2.68927E+02  5.16488E+03  1.72521E+03  3.32871E+03  2.81395E+02 -2.94836E+03  1.29253E+03
  1.58386E+03 -2.41986E+02  4.10368E+03  7.14343E+02  8.81903E+03  2.06340E+03  8.03594E+03  1.05887E+04
 -1.70684E+03  1.18010E+04 -5.23619E+03  9.57701E+03 -6.18958E+03  1.41747E+03 -1.08468E+04 -2.61188E+03
 -2.06566E+03 -5.47679E+03  2.24266E+03 -4.02076E+03 -4.11560E+03 -4.23936E+03  2.08037E+03 -1.95792E+03
  5.74330E+03 -4.64858E+03  5.51518E+02 -8.82457E+00  1.35708E+03  8.82142E+02  5.46312E+03 -2.84472E+01
  6.54162E+02 -1.11147E+03  6.09906E+03  6.70618E+03 -5.97920E+03  7.22563E+03 -4.06229E+03  4.02476E+03
 -4.73521E+03  1.85323E+03 -1.22608E+03 -3.72402E+03  5.23232E+02 -8.57830E+03  2.81750E+03 -4.20090E+03
  1.57817E+03 -4.11436E+03  1.89073E+03 -1.16338E+03  6.37675E+03  4.43057E+03  2.01970E+03  3.97850E+03
 -3.53520E+03  6.25578E+03 -3.54461E+03  1.11341E+03 -4.92317E+03 -6.37555E+02 -1.89209E+03  5.12503E+02
 -1.47553E+03 -9.01157E+02 -1.39206E+03  2.58624E+02  7.49637E+02  3.09785E+03 -5.26191E+03  2.67053E+03
 -1.65578E+03 -5.81117E+03  1.15712E+03 -3.86150E+03  5.77317E+03 -3.98291E+03  3.69724E+03 -3.80475E+03
  5.71305E+03  1.90147E+03  2.96585E+03  2.23862E+03  2.05139E+03  3.73094E+03 -1.32180E+03  2.79954E+03
 -2.49083E+03 -4.41312E+03 -3.32864E+03 -4.30776E+03 -2.22188E+01 -7.50942E+03 -3.05689E+03  3.57099E+03
  1.25707E+03  2.20684E+02  3.29022E+02  1.75855E+03 -1.17980E+02  1.90445E+03  2.29269E+03  3.09320E+03
  5.58020E+03  2.66549E+03  4.23281E+03  2.05996E+03  3.29165E+03  1.00992E+03 -1.36005E+03  5.79096E+02
 -2.09216E+03  6.60600E+03 -9.26462E+02  5.25391E+03 -3.09740E+02  6.58055E+03 -5.55515E+03  2.90673E+03
 -4.13651E+03 -2.81983E+03  2.25349E+03 -6.49121E+03  2.76102E+03 -5.43755E+03  7.91216E+02 -2.80173E+03
 -1.71187E+03  3.66977E+03  6.03972E+02  3.44910E+03 -3.65758E+03  5.00139E+03 -3.54269E+03 -1.86098E+03
 -1.08223E+03 -3.83610E+03  4.18483E+03 -4.68161E+03  2.75637E+03 -1.02023E+03  8.28124E+02  3.98636E+02
  2.13783E+03 -5.53074E+03  6.61310E+03  1.30867E+02 -1.54084E+03  2.46221E+03  5.44982E+02  1.05660E+03
 -3.53196E+02  2.16071E+03  6.86665E+02  9.71644E+02 -1.80474E+03  2.07148E+03 -9.25991E+02  1.43683E+02
 -2.89470E+02 -2.40883E+02 -1.35559E+03  1.75885E+03 -3.79116E+03 -3.79485E+02 -1.57636E+03 -4.37060E+03
 -6.76263E+02  8.26527E+02  4.63668E+02 -2.77284E+02 -8.12775E+02  3.57459E+03 -5.47564E+03  3.64881E+03
 -1.24385E+03  2.45612E+03  1.19229E+03 -1.29282E+03 -5.24203E+03 -5.57360E+03 -2.44952E+03 -3.29124E+03
  5.13356E+03 -5.53131E+03  1.36977E+03 -1.43273E+03  8.46857E+02  3.52525E+03 -1.04775E+03  1.59671E+03
 -1.35044E+03  3.62666E+03 -3.17978E+03 -5.01632E+03  3.24419E+03 -6.28891E+02  1.12778E+03 -6.14430E+02
  1.88021E+03  1.63504E+03 -3.95241E+02  4.01741E+03 -1.29582E+03  4.74632E+03 -7.32604E+02  2.62033E+03
  1.46548E+02 -1.46635E+03 -1.62219E+03  1.28559E+03 -3.13037E+01  2.21619E+03 -1.26960E+03  4.36417E+02
  3.15811E+03  2.74827E+03  2.00399E+03 -3.86283E+03  8.80929E+02 -1.74260E+03 -1.42163E+01 -4.55039E+02
 -1.19474E+03 -4.13727E+02 -4.15873E+03  1.75554E+03 -1.45173E+03 -1.68467E+02 -6.41250E+03 -3.33465E+02
  1.02512E+03  5.75608E+02  2.43937E+03 -2.26434E+03 -2.93260E+03  2.54797E+03 -3.67880E+02 -4.86015E+03
 -3.06469E+03 -3.79780E+03  4.27122E+03 -4.65481E+03  1.03860E+03  4.21250E+01  9.80066E+02  2.66389E+03
  3.98189E+02 -4.23548E+03  6.97754E+02  3.31177E+03 -1.15771E+02  5.12204E+02 -3.05017E+03 -1.30417E+02
  2.39511E+03  4.23074E+03  3.64470E+03 -7.81045E+01  5.46284E+02  1.19736E+03 -8.84541E+02  1.11966E+03
  2.12577E+03 -4.20295E+01 -1.17395E+03  3.43405E+02  1.57627E+03 -3.66438E+03  1.45880E+02  1.23703E+03
 -8.83198E+02 -1.75742E+03  2.34210E+03  3.00121E+03  1.51297E+03  2.42233E+03 -4.16564E+00  3.57886E+03
  1.29223E+03  6.69545E+02 -1.89669E+03 -4.36328E+02 -4.17339E+03 -2.19834E+03 -5.46203E+02 -2.56476E+03
 -1.34441E+03 -3.02916E+03  1.45563E+02 -3.10991E+03 -1.70986E+03  5.36331E+02 -1.57222E+02 -9.97779E+02
  3.24588E+03 -1.49244E+03 -1.27027E+03  5.35568E+03  4.00970E+03 -2.87704E+03  3.01960E+03 -1.14686E+03
 -1.72201E+03  1.32595E+03  3.30077E+03 -1.82783E+03 -1.51558E+03 -2.58744E+02 -3.43626E+03  3.14502E+03
  1.76691E+03  2.30464E+03 -2.94207E+02 -2.12814E+03  3.64053E+03 -1.61269E+03 -1.30033E+03 -1.48670E+03
 -3.41686E+02 -9.03555E+02  3.10043E+03  5.30862E+03 -5.54201E+02  9.63161E+02  2.21809E+02  1.11788E+03
  5.37889E+03 -4.04919E+03 -4.76732E+02  2.83429E+03  3.49821E+03 -4.91304E+02 -4.21427E+03  2.46476E+02
 -3.47312E+03 -2.35577E+03 -9.29228E+02 -2.22193E+03  1.55743E+03 -3.02144E+03 -7.83343E+02 -2.80558E+03
  7.53336E+01  3.63418E+03 -5.48153E+03 -1.07385E+03 -4.57537E+02 -2.89261E+03 -2.89248E+03  1.09248E+03
 -1.19560E+03 -2.99286E+03 -2.87127E+03  2.38790E+03  1.60355E+03 -5.13873E+01  6.38560E+02 -2.99333E+03
