 $NMID ID='MM_0lb_SNR50_14hz_g55_13.RAW', FMTDAT='(8E13.5)'
 TRAMP=1., VOLUME=1. $END
  3.09862E+05 -2.61367E+03  3.34300E+05  2.52734E+05  8.62901E+04  3.43556E+05 -1.36555E+05  2.55657E+05
 -1.89021E+05  8.55095E+04 -1.08040E+05 -3.01395E+04 -2.22389E+03 -4.80054E+04  5.35140E+04 -4.29657E+03
  3.47676E+04  5.34433E+04 -2.00326E+04  7.54363E+04 -5.95011E+04  6.46423E+04 -8.40785E+04  2.79320E+04
 -8.31496E+04 -1.10616E+04 -5.57056E+04 -5.15716E+04 -1.48150E+04 -7.39361E+04  2.51439E+04 -4.54049E+04
  3.87569E+04  3.60395E+03  1.57245E+04  4.54273E+04 -3.35717E+04  4.27218E+04 -6.42061E+04 -1.01904E+03
 -5.49029E+04 -5.35964E+04 -8.96214E+03 -7.97936E+04  3.26308E+04 -5.59423E+04  4.87374E+04 -1.69736E+04
  4.82805E+04  7.08776E+03  3.59537E+04  2.45162E+04  1.68246E+04  2.67035E+04 -4.91492E+03  2.77772E+04
 -2.29445E+04  1.69796E+04 -1.68940E+04 -8.52960E+03  6.57426E+03 -9.23825E+03  2.19987E+04  1.02619E+04
  6.00335E+03  3.78491E+04 -3.19480E+04  4.14287E+04 -6.51258E+04  5.72486E+03 -5.94073E+04 -4.49921E+04
 -1.11945E+04 -6.56802E+04  4.08181E+04 -4.33771E+04  5.94419E+04 -3.81770E+03  3.54142E+04  3.26518E+04
 -8.62638E+03  3.69380E+04 -2.82934E+04  1.62395E+04 -3.00270E+04 -5.21320E+03 -1.70857E+04 -1.34718E+04
 -5.64966E+03 -1.25850E+04  6.89797E+02 -2.42734E+04  1.24500E+04 -2.98073E+04  1.02541E+04 -1.46886E+04
  8.61527E+03  4.88777E+03 -1.30750E+04  1.13351E+04 -2.32197E+04 -4.37455E+03 -5.07464E+03 -3.77793E+04
  2.16647E+04 -4.41273E+04  5.12836E+04 -2.20329E+04  4.61982E+04  1.52152E+04  1.97730E+04  5.00618E+04
 -1.33197E+04  4.07691E+04 -2.62616E+04  5.13421E+03 -1.14471E+04 -3.32416E+04  2.11799E+04 -3.60429E+04
  4.32114E+04 -7.87864E+03  3.35676E+04  2.30127E+04  2.17057E+04  4.99153E+04 -1.06806E+04  4.95360E+04
 -3.37150E+04  3.41812E+04 -4.50754E+04  4.92917E+03 -4.62501E+04 -1.02312E+04 -2.08246E+04 -3.29934E+04
  5.83158E+03 -3.74445E+04  2.84103E+04 -1.89299E+04  2.34737E+04  1.13870E+04  1.98992E+03  2.35044E+04
 -1.20301E+04  5.87504E+03 -1.03986E+04 -6.16895E+03  3.96278E+03 -1.02007E+04  1.41053E+04  5.86214E+03
  1.04420E+04  2.17085E+04 -3.81905E+03  2.95187E+04 -2.35994E+04  7.67494E+03 -2.97261E+04 -9.00300E+02
 -2.04210E+04 -2.52033E+04 -7.11820E+03 -1.36305E+04  3.26516E+03 -1.80811E+04  1.32608E+04 -1.92866E+04
  2.38646E+04 -1.56421E+04  3.51331E+04  3.94472E+03  2.75313E+04  1.72821E+04  1.73924E+03  3.43572E+04
 -1.91161E+04  3.06744E+04 -3.10482E+04  1.08501E+04 -2.08337E+04 -1.45519E+04 -6.42329E+03 -1.06585E+04
 -5.85131E+02 -1.26317E+03 -5.55894E+03  5.17927E+03 -1.80056E+04  8.50021E+03 -1.90991E+04 -3.41349E+03
 -9.06891E+03 -1.91534E+04  8.18552E+03 -2.35468E+04  1.04230E+04 -1.37387E+04  2.13939E+04 -7.58404E+03
  9.31106E+03  1.21988E+04 -3.42410E+03  1.97005E+04 -1.60498E+04  5.71406E+03 -1.89170E+04  1.32034E+01
 -1.42554E+04 -1.46293E+04 -1.48386E+02 -2.37976E+04  9.96854E+03 -2.05545E+04  1.49819E+04 -8.12053E+03
  1.89306E+04 -3.68984E+03  1.27612E+04  2.96946E+03  1.02570E+04 -9.64381E+02  1.41083E+04 -5.57705E+02
  1.50779E+04  3.55920E+03  1.76223E+04  1.53029E+04  1.82226E+04  3.75722E+04  2.27281E+02  3.77995E+04
 -2.22010E+04  3.15799E+04 -3.30794E+04  1.22249E+04 -3.36097E+04 -4.88015E+03 -2.53938E+04 -1.69272E+04
 -7.69578E+03 -3.02419E+04  7.41807E+03 -2.23689E+04  1.91759E+04 -2.12942E+04  1.50745E+04  4.59627E+03
  5.06867E+03  1.83597E+04 -9.30472E+03  1.95552E+04 -1.74559E+04 -2.18562E+03 -1.77658E+04 -1.27472E+04
  1.79667E+03 -1.56836E+04  1.02420E+04 -1.22080E+04  1.06546E+04  2.91674E+03  2.92225E+03  5.42456E+03
 -5.52957E+03  3.88608E+03 -6.03334E+03 -6.36238E+03 -4.71803E+03 -1.77743E+04  8.44268E+03 -1.45617E+04
  1.92154E+04 -9.40719E+03  1.67666E+04 -5.31080E+02  1.70696E+04  1.33811E+04  5.36214E+03  2.11198E+04
 -1.89671E+03  1.76045E+04 -1.88339E+04  1.64639E+04 -1.49465E+04  5.18902E+03 -6.34280E+03  1.84721E+03
 -6.54948E+03 -6.73455E+03 -1.18915E+03  5.29208E+03  7.24570E+02  1.38600E+03 -8.00076E+03  5.32481E+03
 -9.88702E+03 -3.24333E+03 -1.45961E+04 -7.23667E+03 -7.91542E+03 -1.45192E+04  1.24237E+04 -1.08022E+04
  7.47098E+03  2.98397E+02  7.17106E+03  4.14036E+03 -4.18222E+01  3.00605E+03 -6.93735E+03  1.67520E+03
 -3.86270E+03 -5.58314E+03  1.16565E+02 -8.29123E+03  6.20239E+03 -1.28869E+04  1.40110E+04 -8.15102E+03
  1.66776E+04 -7.86575E+02  1.56282E+04  7.74358E+03  4.04064E+03  1.73162E+04 -1.02805E+04  1.12891E+04
 -3.13041E+02  2.06804E+03 -9.27168E+03  2.25480E+02  1.64088E+03 -2.49226E+03  9.74121E+03 -2.01944E+02
  9.66052E+03  1.31826E+03  5.36531E+02  9.23507E+03 -7.45347E+03  1.00376E+04 -9.08640E+03  1.76228E+03
 -7.18515E+03 -4.91215E+03 -3.87250E+02 -7.61562E+03  9.05167E+03 -6.66628E+03  5.57456E+02  4.68933E+03
  5.76702E+03  6.75291E+03 -3.03639E+03  9.37426E+03 -6.73947E+03  2.54259E+02 -5.99368E+03 -4.33039E+03
 -4.35442E+03 -1.05985E+04  6.85429E+03 -8.18867E+03  8.25774E+03 -3.50222E+03  1.48738E+04  3.16805E+03
  6.19515E+03  1.37445E+04  4.51383E+02  1.23180E+04 -4.98398E+03  2.18974E+03 -6.56574E+03  3.91382E+03
 -6.85640E+03 -1.28626E+04 -3.88971E+03 -2.89549E+03  3.91430E+03 -1.14968E+04  6.22578E+03 -9.38122E+03
  3.40065E+03  1.33270E+03 -1.36189E+03  1.99994E+03 -3.25106E+03 -3.78738E+03 -4.20577E+03 -7.51633E+03
  6.85696E+03 -3.52179E+03  1.07374E+04  4.00820E+03  1.06769E+04  7.45662E+03  8.47863E+03  1.41723E+04
 -2.08020E+03  1.43063E+04 -9.12282E+03  1.53530E+04 -1.42481E+04  1.16910E+03 -1.13010E+04 -5.18891E+03
 -1.11690E+04 -1.50916E+04 -2.59630E+03 -7.85679E+03  6.51232E+03 -3.13795E+03  5.82859E+03 -4.93679E+03
  3.10392E+03 -4.24294E+03  3.56728E+03  6.24282E+02  9.52204E+03 -1.07103E+03  1.29558E+03  9.04821E+02
  4.42112E+03  4.45594E+02  1.97503E+03  6.10262E+03 -2.33532E+03  2.96295E+03 -7.03994E+03  3.43896E+03
 -8.75375E+03 -2.36682E+03 -6.00478E+03 -8.33548E+03 -1.19976E+03 -1.21155E+04  5.21870E+03 -8.44915E+03
  1.26542E+04 -3.65805E+03  1.08063E+04 -5.20263E+03  7.19660E+03  1.21244E+04  9.59282E+03  4.94187E+03
  1.93642E+02  1.25793E+04 -4.01041E+03  7.01895E+02 -1.29162E+03 -2.40366E+03 -1.10076E+03 -6.12723E+03
 -2.26639E+03  1.53251E+03  4.63864E+03  2.52549E+03  9.86667E+02  2.33918E+03 -6.50141E+03  1.58299E+03
 -3.77103E+03 -1.25038E+04 -3.16124E+02 -1.29836E+04  1.76612E+03 -9.68613E+03  8.19688E+03  5.60149E+02
  7.72076E+03  2.88057E+03  8.19932E+03  3.98941E+03 -1.99126E+03  4.79913E+03 -2.33268E+03  7.42391E+03
 -6.08860E+03 -1.29244E+03 -4.99047E+03 -5.44983E+03  4.35258E+02 -7.36275E+03  7.69123E+03 -1.76279E+03
  4.58963E+03 -4.00462E+02  6.80474E+03  5.71162E+03  1.78016E+03  5.67797E+03  1.34539E+03 -8.32286E+02
  1.36953E+03 -4.59635E+02 -1.83444E+03 -2.94577E+03  2.22271E+03  5.31564E+03  3.18552E+03  9.88725E+02
  7.02017E+03  8.68496E+03 -1.19528E+03  6.13235E+03 -8.11514E+03  4.26202E+03 -6.45763E+03 -3.57765E+03
 -1.12572E+03 -7.37957E+03  6.43030E+02 -1.08103E+04  9.47428E+03 -9.94208E+03  7.10266E+03 -4.61832E+02
  7.74143E+03  3.09123E+03 -6.56892E+02  3.03329E+03 -2.71701E+03  5.78853E+02 -4.97706E+03  2.51695E+03
  9.08995E+02 -5.58825E+03  8.11251E+02  5.14075E+01  1.81597E+03 -1.36601E+03 -9.88939E+01 -6.04605E+02
  2.81522E+03 -1.12134E+02 -3.58449E+03 -1.64294E+02 -3.92860E+03  2.27206E+03  3.99797E+03  9.11193E+02
  7.06433E+03 -1.92803E+03  4.12468E+03 -1.30801E+03 -2.98490E+03  2.20466E+03  3.22552E+03  5.40205E+03
 -3.72368E+03  2.15365E+03 -6.43243E+03 -2.48529E+03 -4.28017E+03 -4.52559E+03 -1.21911E+03 -2.38838E+03
  2.31762E+03 -6.06087E+02  1.76418E+03 -6.09392E+03 -4.58155E+03  6.51492E+03 -1.87791E+03  2.54820E+02
 -2.81080E+03 -1.94187E+03 -4.10251E+03 -1.71606E+03 -2.37827E+03 -3.22919E+03  6.57522E+03 -4.05917E+03
  1.30666E+03 -1.04205E+03 -2.04497E+03 -1.78774E+03  2.51397E+03  3.01097E+03  2.58930E+03  3.17211E+03
 -3.02876E+03  9.18702E+02 -4.63638E+03 -2.22763E+03 -6.52046E+03 -6.52077E+03  5.50776E+03 -5.49250E+03
  1.82793E+03 -3.90393E+02  2.38412E+03  7.51037E+03 -1.01451E+03  4.17021E+02 -2.52454E+03  2.76297E+03
  1.65940E+03  9.00126E+02 -2.29283E+03 -2.01696E+03 -4.36731E+03 -2.92893E+03 -3.10633E+03  9.18578E+02
  5.72197E+03 -6.19512E+03  4.66669E+03  1.40391E+03  1.52407E+03  1.13381E+03 -3.02293E+03  2.45113E+03
 -2.50156E+03  1.64474E+03 -1.65605E+03 -2.87905E+03 -2.62415E+03  1.99878E+03 -8.17427E+02 -7.95942E+02
 -6.39000E+02 -2.83886E+03 -1.49370E+03  4.51730E+03  1.37945E+03  3.66677E+03 -1.74053E+03 -3.77243E+03
  7.48004E+02 -1.57899E+03  1.59824E+03 -9.67372E+03  6.16708E+03 -2.34700E+03  5.23528E+03 -1.63479E+03
  6.41997E+03  2.92736E+03  3.96007E+03  1.73338E+03 -4.26616E+03  7.85677E+03 -2.90647E+03 -1.04154E+03
 -1.64973E+03  4.36516E+03 -4.07701E+03 -4.07923E+03 -9.91643E+02  1.86244E+03  6.58810E+02 -2.26272E+03
  1.32036E+03 -8.85818E+02 -4.08706E+03 -1.25904E+03  7.30438E+02  2.03826E+03  1.83928E+03 -1.66835E+03
  5.05917E+03 -2.49988E+03  4.77677E+03 -7.33867E+01  1.08551E+03  4.37168E+03  6.21091E+03  6.01102E+03
 -2.20554E+03  7.59800E+03 -4.55882E+03  1.37258E+03 -3.41299E+03  5.71309E+02 -1.01483E+03 -6.22666E+03
  5.05471E+02 -2.05651E+03 -3.90608E+02 -3.99084E+03  3.15392E+03 -5.79142E+03  4.11072E+03  3.71811E+03
  3.66968E+03  5.80589E+03  1.28731E+03  3.49557E+03 -1.61099E+03 -5.02141E+03 -4.00695E+03  1.93152E+02
 -2.99380E+02 -2.86677E+03  3.67741E+01  7.90540E+02  2.71511E+03  2.01328E+03  1.45287E+03  3.93542E+03
 -1.89541E+03 -2.19665E+03 -8.92152E+02  3.07248E+03 -6.97803E+03  9.72772E+01  2.14875E+03 -3.87020E+03
 -1.72716E+03 -4.26118E+03  2.68638E+03 -5.87306E+02  6.13089E+03  3.79385E+03  2.58852E+03  2.61294E+03
  2.52369E+02 -2.05654E+03 -4.20161E+03 -2.11210E+03 -7.85947E+02  3.85687E+03 -2.72196E+03  5.29821E+03
 -1.31408E+03  6.61655E+02 -1.78616E+03 -2.63218E+03  4.95489E+01  1.25760E+03 -1.79434E+03  3.59051E+03
 -2.65674E+03 -3.65882E+03 -7.44594E+02  5.27532E+02 -1.55163E+03  1.13092E+02 -8.94669E+02 -1.05404E+03
 -3.80072E+03 -3.20576E+03  3.91039E+03  6.93197E+02 -1.38367E+02  3.49604E+03  3.17390E+03  1.79815E+03
