 $NMID ID='MM_0lb_SNR50_13hz_g50_94.RAW', FMTDAT='(8E13.5)'
 TRAMP=1., VOLUME=1. $END
  3.10335E+05  1.96763E+03  3.38713E+05  2.51118E+05  8.40158E+04  3.35258E+05 -1.35901E+05  2.53111E+05
 -1.88307E+05  8.45976E+04 -1.11505E+05 -3.48017E+04  2.13907E+03 -5.01075E+04  5.17533E+04  1.21337E+03
  3.54983E+04  5.04447E+04 -1.56709E+04  7.78146E+04 -6.10140E+04  6.39970E+04 -8.13369E+04  2.81218E+04
 -8.13546E+04 -1.41865E+04 -5.40350E+04 -4.83203E+04 -1.00856E+04 -7.09582E+04  2.26764E+04 -4.71625E+04
  4.57155E+04  4.96562E+03  2.05609E+04  5.34964E+04 -3.24448E+04  4.75872E+04 -6.64022E+04 -8.14404E+02
 -5.29343E+04 -5.74783E+04 -3.76258E+03 -7.55202E+04  3.27214E+04 -5.39624E+04  4.60279E+04 -2.06413E+04
  4.10364E+04  7.10726E+03  2.88145E+04  2.47701E+04  2.20165E+04  3.05371E+04 -4.49744E+03  2.00306E+04
 -1.78193E+04  7.05019E+03 -1.83706E+04 -2.62456E+03  1.94544E+03 -4.51648E+03  2.59492E+04  1.11947E+04
  1.46118E+04  3.33500E+04 -3.14918E+04  3.81683E+04 -6.18554E+04  2.53822E+03 -6.29174E+04 -4.68994E+04
 -1.16253E+04 -6.51189E+04  3.98164E+04 -4.42766E+04  5.86035E+04 -1.73599E+03  3.23991E+04  3.45735E+04
 -6.45150E+03  3.58766E+04 -3.22473E+04  1.54933E+04 -2.75975E+04 -1.79181E+03 -1.19759E+04 -9.05828E+03
 -1.13795E+04 -1.37367E+04  1.90780E+03 -1.39259E+04  9.07219E+03 -2.37722E+04  1.90452E+04 -1.57061E+04
  1.08013E+04  1.08870E+04 -6.52291E+03  1.59612E+04 -1.88764E+04 -2.83443E+03 -1.83950E+03 -3.06418E+04
  2.32461E+04 -4.57218E+04  4.52986E+04 -1.97505E+04  4.61850E+04  2.47222E+04  1.63714E+04  4.06230E+04
 -1.69552E+04  3.08029E+04 -3.19761E+04  1.84265E+03 -7.34761E+03 -2.86875E+04  1.70185E+04 -3.81638E+04
  4.28127E+04 -7.84981E+03  3.41243E+04  2.41633E+04  2.15659E+04  4.19146E+04 -3.62188E+03  5.40436E+04
 -3.64503E+04  3.43971E+04 -4.60838E+04  4.42075E+03 -3.97545E+04 -1.86137E+04 -2.58173E+04 -4.10437E+04
  4.50175E+03 -3.72492E+04  3.57707E+04 -1.40065E+04  2.97627E+04  1.18693E+04  4.08820E+03  1.86378E+04
 -1.52538E+04  6.82600E+03 -1.29000E+04 -7.17707E+03  4.60301E+03 -1.30740E+04  1.91655E+04  7.04231E+03
  1.29379E+04  2.44226E+04 -1.36029E+03  2.41836E+04 -2.51371E+04  1.39460E+04 -3.25316E+04 -3.28751E+03
 -2.44590E+04 -1.91903E+04 -8.70684E+03 -2.14678E+04  6.25419E+03 -2.02548E+04  1.24093E+04 -1.69612E+04
  2.73367E+04 -1.09495E+04  3.53208E+04  1.04945E+03  2.45561E+04  2.33892E+04  5.19365E+03  3.50768E+04
 -1.63006E+04  3.46341E+04 -2.86617E+04  1.21389E+04 -2.69420E+04 -8.20734E+03 -3.18372E+02 -1.45097E+04
 -2.25096E+03 -3.99824E+03 -3.21278E+03  6.33438E+03 -1.96856E+04  5.26362E+03 -1.38132E+04 -9.18032E+03
 -1.18657E+04 -1.97392E+04  4.61085E+03 -2.68640E+04  1.64094E+04 -1.63162E+04  1.87160E+04  2.13288E+03
  1.47284E+04  1.54877E+04  1.62361E+03  1.92133E+04 -1.41589E+04  1.36025E+04 -2.17790E+04 -4.65698E+03
 -1.52090E+04 -1.58615E+04 -2.55181E+03 -2.56764E+04  1.18476E+04 -2.19972E+04  2.16872E+04 -1.01858E+04
  1.48878E+04 -9.31811E+02  1.29791E+04  1.26565E+03  1.22241E+04 -9.40668E+02  9.56881E+03 -2.64261E+03
  1.61254E+04 -4.48936E+03  2.20140E+04  1.78365E+04  1.57668E+04  3.08803E+04 -6.41056E+02  3.37884E+04
 -2.42884E+04  2.91776E+04 -3.42459E+04  1.74327E+04 -3.42831E+04  1.15527E+03 -3.26008E+04 -2.66800E+04
 -1.31337E+04 -3.08726E+04  8.07057E+03 -2.92346E+04  1.99643E+04 -1.18082E+04  1.43184E+04  7.53753E+03
  7.11653E+03  1.81943E+04 -1.19715E+04  1.10919E+04 -1.40452E+04  5.56503E+03 -8.98992E+03 -1.12019E+04
  1.63010E+03 -1.37397E+04  6.12050E+03 -8.99687E+03  1.23477E+04 -2.25598E+03  1.52187E+03  4.65795E+03
 -5.25067E+03  1.01902E+03 -1.70774E+02 -9.29482E+03  1.65654E+03 -1.38852E+04  6.80239E+03 -1.37324E+04
  1.47196E+04 -4.56696E+03  2.38573E+04  4.32083E+03  2.27523E+04  1.63330E+04  6.58509E+03  2.70249E+04
 -4.36915E+03  2.18449E+04 -1.13508E+04  1.56561E+04 -1.94596E+04 -2.69722E+03 -1.09414E+04  5.57901E+02
 -5.17509E+03 -4.46626E+03  2.70778E+03 -4.17742E+03 -1.63181E+03  6.56206E+03 -4.76451E+03  6.22916E+03
 -1.31616E+04 -1.37895E+03 -1.27969E+04 -1.49123E+04 -1.13203E+04 -1.24977E+04  4.91636E+03 -1.54820E+04
  1.21756E+04 -4.67387E+03  6.18616E+03  5.66522E+03  2.30269E+03  5.33671E+03 -5.34104E+03 -1.47602E+03
 -6.74983E+03 -7.36792E+03 -2.25992E+03 -9.21192E+03  5.66100E+03 -1.05291E+04  1.59030E+04 -1.01438E+04
  2.28697E+04 -1.36826E+03  1.43296E+04  1.48767E+04  2.72242E+03  1.65714E+04 -6.33005E+03  1.70001E+04
 -3.84348E+03  6.12519E+03 -5.33194E+03 -2.67886E+03  1.01593E+03 -2.96603E+03  8.19202E+03  1.62611E+03
  2.10234E+03  4.67809E+02 -1.71512E+03  8.97502E+03 -7.24196E+03  9.44491E+03 -1.24664E+04  2.72860E+03
 -8.24246E+03 -9.36015E+03  1.08558E+03 -1.06304E+04  8.59598E+03 -3.71320E+02  8.50568E+03 -1.27798E+03
 -4.11789E+03  7.64883E+03 -5.83682E+03  8.89501E+03 -1.60153E+03  5.69924E+03 -7.07961E+03  7.68238E+02
 -7.96792E+03 -1.00706E+04  3.75469E+03 -9.08223E+03  1.22641E+04 -4.84569E+03  1.02099E+04  3.48052E+03
  2.64666E+03  9.73643E+03 -2.18398E+01  8.77935E+03 -8.83387E+03  8.32557E+03 -8.67626E+03 -1.89525E+03
 -3.90031E+03 -1.00596E+04 -2.77349E+03 -8.32432E+03  5.47228E+03 -8.95358E+03  5.54302E+03 -9.71123E+02
  4.12637E+03  4.39880E+03  2.33891E+03  2.56150E+03  1.84897E+01 -3.81156E+02  1.78008E+03 -6.95631E+03
  9.63486E+03 -1.34268E+03  1.06478E+04 -5.41766E+03  1.67049E+04  1.17357E+04  8.16611E+03  1.12012E+04
 -8.97637E+03  1.69241E+04 -1.28447E+04  9.63880E+03 -1.97782E+04  3.69692E+03 -1.56181E+04 -2.96120E+03
 -6.48258E+03 -1.16981E+04 -3.22999E+03 -1.83518E+04  3.01949E+03 -5.18673E+03  1.82372E+03  3.65010E+02
  3.96189E+03 -6.48218E+03  3.06058E+03  8.72175E+02  8.53691E+03 -2.86340E+03  4.34271E+03  4.96922E+03
  8.53885E+03 -4.30745E+03  3.82830E+03  8.74111E+03 -1.13179E+03  5.88291E+03 -9.73383E+03  1.04825E+04
 -9.71015E+03  3.40976E+03 -4.09160E+03 -5.07547E+02  3.27671E+03 -1.59198E+04  9.64301E+03 -1.03542E+04
  9.06428E+03 -5.70678E+03  9.97987E+03  1.97415E+03  6.47921E+03  7.85852E+03  1.80663E+03  1.42892E+04
 -4.68953E+03  1.35365E+04 -9.26636E+03  4.21240E+03 -5.83516E+03 -4.50227E+03  1.80302E+03  1.24217E+03
  3.79236E+03  1.09815E+03 -5.26691E+03  2.76768E+03 -6.54771E+03  3.69662E+03 -5.19828E+03 -4.64245E+02
  3.59044E+02 -7.78012E+03  2.55379E+03 -9.92777E+03  6.52584E+03 -6.08255E+03  8.65760E+03 -7.15734E+03
  1.35461E+04  6.07093E+03  3.47995E+03 -1.03622E+03 -2.26146E+03  1.17372E+04 -5.13864E+03  6.17428E+03
 -9.91645E+03  6.00609E+03 -7.81514E+03 -4.80427E+03  2.53059E+03 -4.52514E+03  2.48404E+03 -2.88558E+03
  1.01107E+04 -5.11070E+03 -9.19001E+02  2.42112E+03 -3.51275E+03 -2.35451E+03  3.35079E+01 -3.02054E+02
 -2.04671E+03  2.69790E+03  2.44964E+03  4.46092E+02  3.81468E+03  1.48543E+03  1.65230E+03  3.49080E+03
 -3.53610E+03  1.08535E+04 -8.41162E+03  7.24691E+03 -9.12396E+03  2.39629E+03 -1.03721E+04 -3.89209E+03
 -4.35961E+03 -6.71252E+03  1.40277E+03 -1.22882E+04  4.48460E+03 -7.18162E+03  6.23979E+03 -3.48184E+03
  8.47815E+03  4.47406E+03  8.01635E+02  7.53662E+03 -1.68344E+03 -1.26014E+02 -1.12329E+03  1.14359E+02
 -4.18581E+02 -3.07343E+03  3.07658E+03 -4.37862E+03  1.47553E+03 -2.43963E+03  7.66094E+03 -3.25019E+02
  4.08874E+03  4.95134E+02  9.54861E+02 -1.59218E+03 -3.31415E+03 -5.08493E+02  6.76657E+03 -4.42105E+03
  1.24926E+03 -3.39392E+03 -1.40018E+03 -1.89484E+03  3.28778E+03  2.21499E+03  1.72417E+03  2.74246E+03
 -8.29997E+03  5.12697E+03 -5.08968E+03  7.29000E+03 -3.31897E+03 -2.21146E+03 -5.00502E+03 -6.19411E+03
 -2.91715E+03 -6.00879E+03  8.03752E+02 -4.47889E+03 -1.10861E+03 -1.31709E+03 -2.47192E+03  3.95604E+03
  3.17106E+03 -2.14604E+03  1.00170E+03 -5.16863E+03 -4.52342E+03 -5.01272E+03 -2.88852E+03 -3.14099E+03
  9.94754E+02 -4.32511E+03  3.27861E+03 -2.09364E+03  5.27987E+03 -3.61180E+03  8.83887E+02  9.30102E+02
 -3.49211E+03  4.11169E+02 -5.58188E+03  3.93739E+03 -2.94561E+03 -8.73194E+02 -1.99332E+03 -5.12495E+03
  4.13031E+03  4.06338E+03  3.66613E+03  1.78209E+03  5.30552E+03  1.44774E+04  6.84504E+02  9.97712E+03
 -4.22281E+03  2.00337E+03 -5.77825E+03 -1.12981E+03  1.12448E+03 -3.74436E+03  5.57339E+02 -1.00583E+03
  4.51772E+03 -3.04763E+03  5.34194E+03  2.22694E+03 -8.56630E+02  3.98862E+03  1.45135E+03 -1.75538E+03
 -2.38301E+03  3.48611E+03 -4.75175E+03  2.04377E+03  3.82559E+03  3.24056E+03  7.54358E+02  1.95520E+03
  3.62525E+03  2.77029E+03 -5.06338E+02  4.12254E+03 -1.84827E+03  1.74297E+03 -4.49464E+03 -6.52011E+03
 -6.32385E+02 -8.87659E+03 -4.26002E+03 -4.80289E+03  3.18863E+03 -1.08724E+04  8.14144E+03 -7.09851E+03
  7.98668E+03 -1.79082E+03  6.99858E+03  3.08942E+03 -3.28481E+03  5.58286E+02  1.19318E+03 -7.41527E+02
  3.13210E+02  3.02128E+03 -3.47929E+03 -1.68204E+03 -6.47178E+02  1.04793E+03 -2.20933E+03  3.44460E+03
  3.34630E+03 -9.13666E+01 -2.10744E+03  3.11088E+03 -5.39614E+02 -3.06302E+03  5.25952E+03 -2.28432E+03
  3.40524E+03  2.58155E+03  4.56078E+03 -5.65473E+02  3.34472E+03  6.16418E+03  9.29360E+01  4.30697E+03
 -4.21274E+03  5.64207E+03 -3.60660E+03 -1.34245E+02 -1.24624E+03 -1.58857E+03 -4.74303E+03 -5.28986E+03
 -3.67064E+03 -2.16028E+03 -3.01800E+03 -5.84927E+03  6.24133E+03 -2.54276E+03  7.97588E+03  7.89904E+03
  8.23393E+02  1.23273E+03 -3.41610E+03  4.30283E+03  1.38951E+03 -1.53671E+03  4.31389E+03  1.64022E+03
 -1.73499E+03  2.84042E+03 -1.72549E+02 -2.55602E+03  2.81838E+03  1.22138E+03  1.55230E+03  1.85728E+03
 -1.76728E+03  3.60118E+03  5.52452E+02  7.34850E+02 -4.25908E+03  2.78007E+01  3.32638E+03 -5.31632E+03
  5.32971E+03 -1.14087E+04  3.19121E+03 -2.47385E+03  3.31188E+03  4.34584E+03 -1.71342E+03  2.47906E+03
  2.40419E+03 -6.55316E+02 -4.42689E+02  4.94972E+03  5.56613E+02 -2.02266E+03 -6.68538E+02  5.86658E+03
 -7.72633E+02 -2.78371E+03 -3.87184E+03 -4.60486E+03  1.64240E+03 -2.97487E+03 -2.99401E+03  1.52895E+03
 -4.91769E+03 -7.42371E+03 -2.52366E+03  8.05125E+02  6.04225E+03 -1.11205E+04  1.08734E+03  2.91811E+03
  5.97610E+02 -1.60843E+03 -1.41189E+03  8.87303E+02 -1.41336E+03 -2.53655E+03 -1.93971E+03  2.60184E+03
