 $NMID ID='MM_0lb_SNR50_9hz_g60_78.RAW', FMTDAT='(8E13.5)'
 TRAMP=1., VOLUME=1. $END
  3.11927E+05 -3.65334E+03  3.38759E+05  2.45585E+05  8.43316E+04  3.39232E+05 -1.35010E+05  2.53166E+05
 -1.89450E+05  7.94014E+04 -1.12880E+05 -2.78782E+04  6.62560E+02 -5.24446E+04  5.51202E+04  3.78988E+02
  3.09465E+04  5.42124E+04 -1.60022E+04  8.40975E+04 -6.26869E+04  7.03150E+04 -9.08990E+04  3.87393E+04
 -7.58382E+04 -1.48045E+04 -6.10747E+04 -6.01695E+04 -1.72693E+04 -6.98912E+04  2.98734E+04 -4.92992E+04
  4.25797E+04  7.87028E+02  2.32566E+04  4.57934E+04 -4.19549E+04  4.46401E+04 -6.70179E+04  5.82732E+02
 -5.16435E+04 -5.68204E+04 -6.69809E+03 -8.12251E+04  3.31078E+04 -6.11982E+04  5.24411E+04 -1.19452E+04
  4.69850E+04  1.28267E+04  3.14212E+04  1.77250E+04  1.46615E+04  2.85216E+04 -5.07450E+01  2.32901E+04
 -2.86916E+04  1.62267E+04 -1.45716E+04 -6.91942E+03  9.66334E+03 -4.28299E+03  2.51087E+04  1.40747E+04
  1.17706E+04  3.52797E+04 -3.13721E+04  4.07049E+04 -6.55622E+04  5.67948E+03 -5.64757E+04 -4.35614E+04
 -1.17777E+04 -6.43290E+04  3.86310E+04 -4.52313E+04  6.06632E+04  6.12907E+02  4.20396E+04  3.64221E+04
 -5.68345E+03  4.55709E+04 -3.16002E+04  2.31442E+04 -3.42803E+04 -5.53895E+03 -2.36078E+04 -7.57601E+03
 -1.16141E+04 -1.51106E+04 -1.04226E+03 -1.63375E+04  1.17625E+04 -2.14312E+04  1.61476E+04 -1.32908E+04
  1.30422E+04  6.33470E+03 -9.85674E+03  1.16847E+04 -2.29208E+04 -5.44829E+03 -7.52059E+03 -3.52555E+04
  2.26727E+04 -4.59036E+04  5.57981E+04 -2.24845E+04  4.21029E+04  2.27961E+04  2.11883E+04  5.48434E+04
 -1.48940E+04  3.91037E+04 -3.61833E+04  9.50096E+02 -1.35600E+04 -2.29909E+04  2.04585E+04 -3.40667E+04
  4.59613E+04 -1.28339E+04  3.91158E+04  2.42068E+04  1.92346E+04  5.34593E+04 -9.96592E+03  6.05389E+04
 -3.04949E+04  3.54624E+04 -5.28730E+04  1.00503E+04 -4.89425E+04 -1.85230E+04 -2.63848E+04 -4.38006E+04
  1.16181E+04 -5.08410E+04  3.60109E+04 -1.96846E+04  3.64843E+04  9.93113E+03  4.30360E+02  1.95166E+04
 -1.46754E+04  1.40876E+04 -8.50469E+03 -1.83343E+03 -1.27477E+03 -7.20822E+03  1.97056E+04  9.86943E+03
  1.48359E+04  2.74134E+04 -3.35543E+03  2.78237E+04 -2.08526E+04  1.16416E+04 -2.76909E+04 -9.62600E+02
 -2.86531E+04 -2.01828E+04 -1.53033E+04 -2.44907E+04  3.54323E+03 -2.32103E+04  1.54390E+04 -2.33123E+04
  3.46966E+04 -1.71417E+04  3.48616E+04  9.88736E+03  3.09527E+04  2.51177E+04  1.21189E+03  4.16511E+04
 -2.15909E+04  3.63658E+04 -3.22002E+04  8.55532E+03 -2.17566E+04 -1.50542E+04 -1.10335E+04 -1.60074E+04
 -3.88205E+01 -1.04202E+03 -8.89352E+03  4.07343E+03 -2.04219E+04  8.08054E+02 -2.18739E+04 -1.44864E+04
 -4.78426E+03 -2.90068E+04  8.69469E+03 -3.00965E+04  2.01509E+04 -2.45427E+04  2.38365E+04  1.09137E+03
  1.75215E+04  2.26643E+04  2.68200E+03  1.75084E+04 -2.46098E+04  4.83398E+03 -2.41731E+04 -5.42618E+03
 -1.35413E+04 -2.23428E+04  1.62726E+03 -3.58383E+04  1.62596E+04 -2.71379E+04  2.72963E+04 -1.34423E+04
  2.18077E+04  6.10431E+03  1.49874E+04  6.94121E+03  1.30998E+04 -4.95637E+02  1.60146E+04 -7.00328E+03
  1.41827E+04  3.51632E+03  2.85191E+04  1.86279E+04  1.71948E+04  3.56039E+04  6.59336E+03  4.21808E+04
 -3.05090E+04  4.34826E+04 -4.20984E+04  1.53977E+04 -4.08508E+04 -3.64071E+03 -3.82785E+04 -2.55223E+04
 -1.10528E+04 -4.13064E+04  1.12383E+04 -2.98463E+04  2.47080E+04 -1.61692E+04  2.75333E+04  9.03635E+03
  6.23089E+03  1.80803E+04 -9.23822E+03  1.95707E+04 -2.12658E+04  2.21387E+03 -1.03378E+04 -1.00790E+04
 -5.26627E+02 -1.77270E+04  1.49149E+04 -1.23539E+04  1.00703E+04 -7.52927E+03  9.25333E+03  1.00868E+04
 -2.89761E+03  2.53554E+03 -6.19327E+03 -4.89303E+03 -4.68583E+03 -1.89445E+04  1.46734E+04 -2.16481E+04
  3.38567E+04 -1.55313E+04  3.21412E+04  4.14943E+03  2.14661E+04  1.55200E+04  1.27832E+04  3.31193E+04
 -8.30015E+03  3.23230E+04 -1.83038E+04  1.94392E+04 -2.47907E+04  1.78379E+03 -1.36839E+04 -3.77393E+03
 -2.49004E+03 -5.34282E+03 -3.89587E+03 -1.37473E+03  3.37741E+03  1.63032E+03 -1.28458E+04 -1.82244E+02
 -1.50463E+04  1.00053E+03 -1.32279E+04 -1.11364E+04 -7.29472E+03 -2.24374E+04  7.96236E+03 -1.35488E+04
  1.19844E+04 -6.79184E+03  8.97968E+03  7.11666E+03  4.65042E+03  1.19204E+04 -1.33006E+04  6.14062E+03
 -8.69513E+03 -1.26204E+04 -4.98324E+03 -1.46005E+04  1.15536E+04 -1.95059E+04  2.57986E+04 -1.05101E+04
  2.84759E+04  6.06264E+03  1.84994E+04  1.16529E+04  1.50892E+03  1.70377E+04 -9.08425E+03  2.03514E+04
 -1.38904E+04  4.34946E+03 -1.03690E+04 -6.95677E+03 -3.46680E+03 -1.25476E+04  9.65320E+03  2.83269E+03
  6.72464E+03  1.43552E+03  1.42002E+03  1.33228E+04 -1.31218E+04  2.00248E+04 -2.19870E+04  5.10235E+03
 -5.08732E+03 -5.39233E+03  8.58112E+02 -1.23820E+04  1.03588E+04 -7.97719E+03  1.32638E+04 -3.98146E+03
  4.11371E+03  1.24941E+04 -8.32270E+03  1.52968E+04 -2.09022E+04  7.72356E+02 -1.17458E+04 -2.38914E+03
 -7.97415E+03 -1.46540E+04  6.90442E+03 -2.01761E+04  2.41526E+04 -1.57959E+04  2.39319E+04  8.94529E+03
  9.48773E+03  1.36839E+04 -4.52667E+02  2.08661E+04 -1.24109E+04  1.10820E+04 -1.39657E+04  1.83398E+03
 -1.00380E+04 -1.40591E+04 -8.51851E+02 -1.30073E+04  5.08004E+03 -1.40451E+04  2.75954E+03 -2.46897E+03
  4.09369E+03  4.19939E+03  4.18893E+02  2.95032E+03 -1.46684E+03  1.50732E+03  4.05052E+03 -8.29886E+03
  1.05477E+04 -3.43432E+03  1.72557E+04  5.21307E+02  1.25490E+04  1.45055E+04  1.17476E+04  2.10926E+04
 -1.14333E+04  2.44150E+04 -2.92100E+04  1.56343E+04 -2.57189E+04  1.57743E+03 -2.84847E+04 -1.11859E+04
 -6.62970E+03 -2.00855E+04  1.82116E+03 -1.46200E+04  8.49492E+03 -8.25476E+03  6.48335E+03 -5.23263E+03
  4.90732E+03 -3.57032E+03  9.65874E+03  3.73860E+03  1.46185E+03 -4.17969E+03  4.84716E+03 -2.64469E+03
  7.89825E+03  2.64273E+03  5.81614E+03  1.33721E+04 -5.40637E+02  1.03262E+04 -1.69767E+04  7.23073E+03
 -1.32642E+04 -1.91779E+03 -9.62852E+03 -1.87508E+04 -4.53784E+03 -1.75975E+04  1.22194E+04 -2.37255E+04
  6.94201E+03 -1.16617E+04  1.84946E+04 -1.17635E+03  1.56356E+04  1.21327E+04  5.96153E+02  2.08567E+04
 -7.88366E+03  1.60936E+04 -8.79630E+03  5.06333E+03 -1.23047E+04 -2.48656E+03 -6.39323E+03 -2.68470E+03
 -3.71057E+03 -4.98931E+03 -5.70677E+03  1.44985E+03 -7.16799E+03 -1.77614E+03 -8.89738E+03 -3.00764E+03
 -9.43068E+03 -1.61095E+04  3.37233E+03 -1.96498E+04  6.67659E+03 -1.70910E+04  1.78233E+04 -4.95801E+03
  2.08738E+04  8.71065E+03  3.12930E+03  1.44135E+04 -8.33904E+02  1.24077E+04 -1.14536E+04  1.04046E+04
 -1.71226E+04  2.38304E+03 -6.22795E+03 -8.22295E+03  4.20320E+03 -1.72727E+04  9.58317E+03 -8.77901E+03
  8.30630E+03 -6.69505E+03  6.55909E+03 -3.55513E+03  5.13098E+03  5.47921E+03  3.16971E+03  1.26501E+04
  3.71637E+03  6.01449E+02 -3.49821E+03  3.29971E+03  7.24171E+03  5.67033E+03  3.80202E+03  8.51372E+03
 -2.95949E+03  1.16350E+04 -1.03458E+04  1.23798E+04 -1.56583E+04 -4.75216E+02 -1.65103E+04 -7.20313E+03
 -1.10463E+04 -1.42135E+04  7.52085E+03 -1.11872E+04  1.21648E+04 -1.49787E+04  1.44648E+04  6.12068E+02
  4.17794E+03  6.06020E+03 -1.45001E+03  8.51443E+03 -1.13649E+04  2.43914E+02 -2.92038E+03  1.31909E+03
 -5.80105E+03 -6.19253E+03  9.58519E+03 -6.64200E+03  8.06930E+02 -5.15120E+02  1.07143E+04  7.63371E+02
 -5.28785E+03  3.68834E+03  5.39208E+03  6.55832E+03  5.73245E+02  3.55631E+02 -1.12073E+03  4.58051E+03
  5.90360E+03 -3.94370E+03  2.77963E+03  5.63319E+03  6.37427E+03  3.54965E+03 -6.14717E+03  8.19442E+03
 -1.48088E+04 -2.94442E+02 -1.61514E+04 -1.91224E+02 -1.40708E+04 -8.35383E+03  2.51567E+03 -6.14473E+03
 -1.37864E+03 -1.00692E+03  7.65626E+03 -1.93117E+03  8.73593E+03  6.47549E+03 -5.91143E+03  1.36450E+03
 -6.23990E+03 -1.49674E+03  7.08614E+02 -4.52369E+03 -3.14471E+03 -1.06351E+04  5.32767E+03 -3.94671E+03
  1.04796E+04 -9.47697E+03  2.51495E+03 -1.47714E+03  3.15711E+03  6.56513E+03 -4.30312E+03  3.80182E+03
 -1.20513E+04  7.67430E+03 -7.21734E+03 -7.27932E+03  3.01906E+03 -6.92568E+03  1.07012E+04 -2.84100E+03
  1.16429E+04  2.51819E+03  1.01427E+04  4.52345E+03  6.11043E+01  9.57785E+03 -2.31626E+03  1.33559E+04
 -1.16313E+04  1.47904E+02 -1.36177E+04 -1.17722E+03 -3.59977E+02 -1.16227E+04  2.08358E+03 -6.42181E+03
  4.87735E+03 -1.03785E+03  8.89184E+03  7.53317E+03  5.83726E+03  8.00263E+03 -4.52358E+03  6.59428E+03
  5.20983E+02  7.61873E+03 -2.61088E+03 -5.25720E+02  1.19920E+02  5.41714E+03 -6.79553E+03 -4.42481E+03
 -2.66913E+03  2.96004E+03 -2.15233E+03  1.07012E+04 -1.24636E+04  3.46024E+03 -9.54102E+03 -5.78870E+03
 -6.13201E+03 -7.65022E+03  9.90708E+03 -1.64604E+04  9.81456E+03 -1.28871E+04  1.18373E+04 -3.96796E+03
  1.37987E+04  7.47793E+03  1.13384E+04  1.23372E+04 -3.03501E+03  1.15632E+04  1.26563E+03  3.89118E+03
 -1.11543E+04 -1.12745E+03 -5.78238E+03  7.38868E+02 -7.12910E+02 -3.28877E+03 -1.64031E+03  3.49782E+03
 -5.06509E+03 -1.95176E+03 -2.42602E+02 -6.14369E+03 -2.46974E+03  2.96469E+03 -5.50398E+03 -3.06487E+03
  1.07842E+04 -1.00479E+04  7.04523E+03  4.41300E+03  4.71633E+03  2.07769E+03  1.25127E+03  1.41511E+04
 -5.17741E+03  9.90524E+03 -6.68783E+03  1.92270E+03 -1.97923E+04 -5.93129E+02 -1.66643E+04 -1.58439E+04
 -8.26068E+03 -1.29012E+04  2.74271E+03 -5.43234E+03  7.77034E+03 -8.13756E+03  9.44625E+03  3.60072E+03
  9.09303E+03  4.10753E+03  1.18099E+03  2.04068E+03 -2.33017E+03  3.59415E+03  1.54318E+03 -5.64362E+03
  3.87545E+03  2.93176E+03  5.91607E+03  5.90769E+03  8.64420E+03  5.89360E+03  4.74634E+03  8.29421E+03
 -8.72911E+03  6.46899E+03 -9.85132E+03 -2.24176E+03 -1.76297E+03 -1.18674E+04  2.16118E+02 -8.09336E+03
  6.46047E+03 -1.18827E+04  1.34611E+04 -5.33217E+03  1.26074E+04 -2.95027E+03  2.59172E+03  9.84715E+03
  2.28462E+03  1.27948E+04  1.02412E+03  1.00041E+04 -3.90923E+03  9.36046E+02 -4.57522E+03 -3.24513E+03
 -6.24129E+03  2.87146E+03 -3.64226E+03 -2.88101E+03 -2.72114E+03 -6.12889E+02 -9.67295E+03 -3.61162E+03
 -5.52230E+03  1.93713E+03 -1.02428E+03 -4.15382E+03  5.22508E+03 -6.30257E+03  7.25916E+03 -2.51517E+03
  7.38315E+03  2.81580E+03  2.08192E+03  9.40045E+03 -4.42393E+03  7.31839E+03 -4.41937E+03  4.55572E+03
