 $NMID ID='MM_0lb_SNR50_20hz_g45_59.RAW', FMTDAT='(8E13.5)'
 TRAMP=1., VOLUME=1. $END
  3.12966E+05 -1.43251E+03  3.41717E+05  2.49483E+05  8.41609E+04  3.38200E+05 -1.35229E+05  2.47497E+05
 -1.87662E+05  7.87215E+04 -1.12890E+05 -3.50275E+04  5.17050E+03 -5.40723E+04  5.13633E+04  1.92942E+03
  3.86928E+04  5.16008E+04 -2.28306E+04  7.44501E+04 -5.88180E+04  6.54365E+04 -8.50398E+04  3.28648E+04
 -7.88806E+04 -6.77375E+03 -5.26472E+04 -5.16887E+04 -1.18035E+04 -6.85942E+04  3.18098E+04 -4.44074E+04
  4.15469E+04  2.43417E+03  1.78576E+04  4.90699E+04 -3.26009E+04  4.84932E+04 -6.43936E+04  6.08863E+03
 -4.82886E+04 -5.88489E+04 -2.52127E+03 -7.14446E+04  3.03666E+04 -5.25948E+04  4.63968E+04 -1.62372E+04
  4.33497E+04  1.39010E+04  2.64438E+04  2.72262E+04  1.29308E+04  2.81524E+04 -7.47293E+03  2.71167E+04
 -2.45648E+04  1.17368E+04 -1.85883E+04 -3.91616E+03  2.91641E+03 -5.19922E+03  2.07489E+04  1.05682E+04
  4.67611E+03  2.85201E+04 -3.16087E+04  3.25336E+04 -6.22995E+04 -1.00509E+03 -5.41968E+04 -3.70551E+04
 -1.38256E+04 -5.67383E+04  3.56660E+04 -4.58279E+04  5.31375E+04 -2.01771E+03  2.86920E+04  3.26332E+04
 -6.27846E+03  3.19830E+04 -2.89478E+04  1.10464E+04 -2.72247E+04 -7.26811E+03 -1.78425E+04 -9.82144E+03
 -2.47001E+03 -9.89989E+03 -1.82845E+02 -1.57286E+04  5.04587E+03 -1.83001E+04  1.63270E+04 -1.15906E+04
  1.78730E+04  3.54211E+03 -4.28003E+03  1.63713E+04 -2.11331E+04 -3.51859E+03 -5.98833E+03 -2.64817E+04
  1.77854E+04 -4.07865E+04  4.24690E+04 -1.63749E+04  4.20966E+04  1.80322E+04  1.05377E+04  3.99040E+04
 -1.66669E+04  2.88311E+04 -2.01437E+04  1.21732E+03 -6.51961E+03 -2.76522E+04  2.22110E+04 -3.37336E+04
  3.78651E+04 -6.96819E+03  3.27930E+04  2.81129E+04  1.61879E+04  3.82006E+04 -8.19646E+03  4.49271E+04
 -2.58300E+04  2.87069E+04 -3.43354E+04  8.86020E+03 -3.78091E+04 -1.54643E+04 -1.98308E+04 -3.04656E+04
  4.27629E+03 -3.03517E+04  2.71455E+04 -1.23241E+04  2.28978E+04  7.44772E+03  2.46701E+03  1.64912E+04
 -1.28970E+04  3.73220E+03 -7.85666E+03 -3.46291E+03  7.48369E+03 -6.76823E+03  1.36801E+04  7.38692E+03
  1.10619E+04  2.09776E+04 -4.20426E+03  2.30103E+04 -2.15154E+04  1.13818E+04 -2.09777E+04 -7.08142E+03
 -1.53956E+04 -2.02533E+04 -5.49272E+03 -1.50712E+04  4.15393E+02 -1.26411E+04  9.53598E+03 -1.49130E+04
  2.00545E+04 -1.24316E+04  2.68315E+04  1.90291E+03  1.96146E+04  1.83767E+04  6.03360E+03  3.10678E+04
 -1.47551E+04  2.63171E+04 -2.64791E+04  6.26925E+03 -1.93183E+04 -9.92995E+03 -4.66102E+03 -1.41758E+04
  3.27446E+03 -9.66658E+03 -6.98852E+02  5.84472E+03 -1.29923E+04  4.30277E+03 -1.97542E+04 -5.23831E+03
 -1.20654E+04 -1.08908E+04  2.79254E+03 -1.91453E+04  1.26840E+04 -1.53027E+04  1.40071E+04 -3.71714E+01
  1.19057E+04  1.05430E+04 -2.53245E+02  1.37485E+04 -5.75409E+03  5.46265E+03 -1.26082E+04 -3.76120E+03
 -1.63072E+04 -1.16645E+04 -1.64872E+02 -2.30472E+04  7.76077E+03 -1.65110E+04  1.36546E+04 -5.31460E+03
  1.51242E+04 -1.78594E+03  8.56473E+03  4.13292E+03  2.33664E+03  4.35761E+03  5.92743E+03 -6.03175E+02
  1.46011E+04  2.42216E+03  8.25699E+03  1.36884E+04  6.60230E+03  2.21296E+04 -9.83297E+02  2.69215E+04
 -1.07007E+04  1.75936E+04 -2.31337E+04  1.31341E+04 -2.44769E+04 -5.62384E+03 -2.08628E+04 -1.16072E+04
 -1.02669E+04 -1.53106E+04  2.52048E+03 -1.91179E+04  1.55080E+04 -9.78456E+03  1.51066E+04  4.56441E+03
  2.57971E+03  1.10132E+04 -5.52810E+03  1.13987E+04 -1.00763E+04  6.97481E+02 -1.24729E+04 -4.55152E+03
 -1.17655E+03 -1.23330E+04  6.00890E+03 -7.11569E+03  6.88434E+03 -4.62973E+03  5.06717E+03  3.73501E+03
 -7.31437E+03  3.81553E+03 -3.42540E+03 -6.72623E+03  2.59416E+03 -1.04430E+04  6.60939E+03 -1.10876E+04
  6.87504E+03 -4.06986E+03  1.19274E+04  2.59682E+03  1.13082E+04  5.60199E+03  2.55098E+03  9.95880E+03
 -2.11834E+03  1.48227E+04 -5.66181E+03  9.45757E+03 -1.28168E+04 -5.96018E+02 -1.07558E+04 -5.39374E+02
 -8.09619E+03 -2.30489E+03  2.99844E+03  6.56088E+02  6.01623E+02 -1.42969E+03  8.24046E+02  4.74326E+02
 -5.25302E+03 -3.90127E+03 -7.12429E+03 -8.63074E+03 -2.11385E+03 -1.09470E+04  2.82023E+02 -8.68218E+03
  7.79073E+03 -6.23542E+02  6.84526E+03 -9.76417E+02 -6.94305E+02  3.94931E+03 -2.71251E+03 -1.93738E+03
 -6.30030E+02 -2.46642E+03 -1.21358E+03 -7.09838E+03  9.09425E+02 -9.05360E+03  9.60047E+03 -2.60265E+03
  8.30161E+03  3.04728E+03  6.94521E+03  3.80922E+03 -1.85965E+02  1.17970E+04 -2.71306E+03  6.24663E+03
 -9.42916E+03 -3.55192E+03 -4.86165E+03  2.33614E+03  1.58363E+03 -6.78518E+03  2.49353E+03 -7.21088E+02
  3.40293E+02  7.59882E+02  2.41812E+03  9.79005E+03 -2.19253E+03  2.79495E+03 -6.75446E+03  3.84365E+03
  1.10905E+03 -5.30051E+03  1.64555E+02 -7.66122E+03  5.36021E+03 -2.14784E+03  2.15008E+03  5.29368E+03
  7.72946E+02  3.66903E+03 -1.32718E+03  3.29241E+03 -2.80431E+03  3.02125E+03 -4.50272E+03  3.54679E+03
 -1.53869E+03 -5.36236E+03  2.16702E+03 -2.21890E+03  6.31524E+03 -4.59077E+03  5.51529E+03  2.61875E+03
  2.14454E+03  2.30802E+03 -9.79235E+02  2.36564E+03 -2.65311E+03  6.76287E+03 -5.69126E+03 -1.94286E+03
 -5.52983E+03 -2.97065E+03  3.08199E+03 -9.05764E+02  3.66234E+03 -5.01573E+03  9.92131E+02 -4.21752E+03
  1.75646E+03 -1.38014E+03 -1.94033E+02  2.68158E+03 -3.84997E+02  3.69966E+03 -8.44478E+02  2.59624E+03
 -6.53780E+01  3.84456E+02  1.20101E+03 -2.30876E+03  3.43167E+03 -5.27002E+02  1.44849E+03  7.90344E+03
 -1.64587E+03  8.07320E+03 -9.05173E+03  1.08132E+04 -7.52870E+03  1.20194E+03 -4.76409E+03 -2.46743E+03
 -3.60063E+03 -1.07640E+03 -5.89324E+02 -4.50937E+03  1.82791E+03 -3.23663E+03 -1.14439E+03 -3.57824E+03
  3.01541E+03 -7.19254E+03  2.00081E+03  5.07751E+02  5.18928E+03  1.82532E+03  2.00653E+03  2.03082E+03
  1.44603E+03 -7.81616E+02  4.88826E+02  3.47799E+03  9.35929E+02 -3.76960E+01 -4.01998E+03  1.48250E+03
 -8.39492E+03 -1.95714E+03 -5.05573E+03 -5.83457E+02  7.28201E+01 -3.27917E+03  6.81872E+03 -7.04288E+03
  4.27253E+03 -1.69203E+03  4.29501E+03 -9.95622E+02  1.88602E+03  4.69750E+03 -1.50979E+03  3.78333E+03
  5.78765E+02  6.09633E+02 -2.82406E+02  8.38117E+02 -4.06492E+03  1.87766E+03 -1.70850E+03 -3.84266E+03
 -1.54406E+03 -1.26318E+03 -1.65838E+03  1.18586E+03 -3.00654E+03 -3.38799E+03 -4.69831E+03 -1.12546E+03
 -3.37252E+03 -4.77060E+03 -4.13523E+02 -4.27143E+03  1.34902E+03 -7.55275E+03  3.88619E+03  8.49772E+02
  8.53503E+01 -1.37541E+03 -2.27442E+02  5.74271E+03 -4.26910E+03  1.61030E+03 -2.95361E+02  3.08534E+03
 -1.12636E+03  4.60674E+03 -3.17958E+03 -4.25508E+03  3.09094E+03 -4.39708E+02  1.67561E+03 -3.61551E+03
 -9.66665E+02 -9.06214E+02  1.21520E+03  2.81814E+03  1.87901E+03  4.88732E+03 -2.07395E+02 -3.68442E+02
  1.37175E+03 -5.16042E+01  9.39423E+02 -1.58600E+03  2.17337E+03  3.58250E+03  1.56636E+02  2.85795E+03
  1.30591E+03  1.78792E+03  2.48005E+03  4.72618E+03 -1.12317E+03  2.49967E+03 -6.28897E+03 -4.26855E+02
 -2.29498E+03 -3.53927E+03  3.81130E+01  6.58367E+02  2.20538E+03 -3.31146E+03  1.52902E+03  3.77497E+03
  3.91090E+03  1.13494E+03 -3.97556E+03  2.37366E+03  1.05338E+03 -1.99791E+03  6.54237E+02 -2.31246E+02
 -8.47997E+02 -3.39266E+03  9.99927E+02 -1.87911E+03  7.29829E+02 -2.69177E+03  3.01574E+02  1.00852E+03
  9.45832E+02  2.01569E+03 -6.17451E+01  4.26928E+03  3.03624E+03  5.54701E+02  1.26636E+03 -1.15426E+03
 -9.36716E+02  3.98761E+02  1.48258E+03  7.36944E+03 -7.65211E+02  3.48061E+03  1.93835E+03  2.77295E+03
 -3.41270E+03  7.96089E+02 -5.43921E+02  1.51500E+03 -4.77123E+03 -3.00120E+03 -3.99435E+03 -1.88851E+03
  1.03089E+03 -4.54049E+02 -1.80241E+02 -1.53362E+02  9.63194E+02  2.74244E+03  1.55157E+02  2.16616E+03
 -5.33189E+03  1.56483E+03 -4.08724E+02  1.49530E+03 -4.19323E+03 -4.24629E+02 -2.33217E+03 -3.02452E+03
 -2.80309E+03 -3.61675E+03  3.60767E+03 -1.68678E+03  6.06316E+02 -6.30412E+01 -4.23823E+03  1.23678E+03
 -8.37426E+01 -1.86956E+03  2.88161E+03  3.04740E+03 -2.11227E+03  9.80790E+02  9.97719E+02 -1.39018E+02
  1.10653E+03  3.81330E+03 -1.50890E+03  7.01599E+02 -6.31622E+02  1.82757E+03 -1.29118E+03  1.37993E+03
 -1.77248E+03 -5.25863E+02  2.36304E+03  6.85230E+02  4.72016E+03 -1.81263E+03 -4.41072E+03 -1.74498E+02
  9.85743E+02  1.45631E+02 -6.18455E+02  6.36896E+01 -1.78311E+03 -2.70089E+02 -1.42064E+03  4.09779E+02
 -4.74189E+03 -1.73917E+03  1.46957E+03 -1.68830E+03 -1.28953E+03  6.38888E+02  1.59475E+03  4.16809E+03
  3.98470E+03 -8.94529E+02  1.75248E+03 -2.16686E+02 -2.99133E+02  1.12293E+03 -1.06431E+02 -3.19339E+03
 -9.38657E+02 -4.31992E+03 -5.44323E+02 -4.49601E+03  1.26381E+03 -2.47575E+03  2.11597E+03  7.54340E+02
 -1.79996E+03  6.73312E+02  1.39547E+03  3.70228E+03 -9.95551E+02  2.29397E+03 -7.90583E+01  8.19914E+01
  2.29652E+03 -2.81516E+02  7.76029E+02  3.17708E+02  4.43006E+01  2.55095E+02 -4.15336E+03 -1.76005E+03
 -2.56627E+03  1.27295E+02 -1.36563E+03  1.81893E+02 -2.12218E+03 -2.54792E+03 -2.69440E+03 -2.78184E+03
  8.88644E+02 -1.12410E+03 -2.47765E+03 -9.51409E+02  4.91622E+03  3.36572E+03  1.14981E+03 -4.84004E+03
  1.32369E+02  1.34456E+03  2.48348E+03  2.24969E+02  1.21036E+03 -7.40475E+02 -3.19745E+03  4.83466E+02
 -1.97890E+03  2.98445E+03  1.78294E+03 -5.16048E+03  3.49630E+03  4.85343E+02  2.16219E+03  9.33246E+02
  2.59343E+03  1.59982E+03  2.64091E+02 -1.72569E+03  1.67091E+03 -9.27651E+02 -1.88549E+03  3.87399E+02
  4.38297E+03 -2.14280E+03  6.36710E+02  9.17386E+02 -2.83265E+02 -3.01309E+03  1.60710E+03  1.42858E+03
  2.56793E+02  5.28890E+03 -3.17962E+03  2.21236E+03 -2.06720E+03  1.66815E+03 -1.02545E+03  3.95018E+02
  4.63375E+02 -3.14452E+03  4.13779E+02  2.18024E+03  1.14585E+03  1.05906E+03 -1.89244E+03 -1.04044E+03
 -5.56921E+02 -2.73429E+03  4.69188E+02  2.31576E+03 -1.13001E+03 -2.68300E+03  4.12330E+02 -7.13836E+02
  8.81545E+02  1.00666E+03 -2.64123E+03 -6.19364E+02  2.02108E+03 -1.06400E+03 -2.91529E+03 -2.65513E+02
  2.83318E+03 -5.54617E+02 -4.42797E+01 -1.26538E+03  4.22023E+02 -1.14163E+03  3.03662E+03 -7.97036E+02
 -6.88550E+03  3.14447E+03 -1.51074E+03  2.95930E+03 -9.69871E+02  7.67134E+02  3.86801E+03 -7.08422E+02
