 $NMID ID='MM_0lb_SNR50_16hz_g45_27.RAW', FMTDAT='(8E13.5)'
 TRAMP=1., VOLUME=1. $END
  3.10505E+05  5.81474E+01  3.35654E+05  2.49706E+05  8.33813E+04  3.38420E+05 -1.36326E+05  2.51851E+05
 -1.94352E+05  8.26020E+04 -1.13765E+05 -3.11891E+04  1.12132E+03 -5.27516E+04  5.18534E+04  2.20409E+03
  3.71816E+04  5.60721E+04 -1.64923E+04  7.09275E+04 -5.98083E+04  6.49200E+04 -8.44422E+04  2.91978E+04
 -7.88897E+04 -9.15038E+03 -5.57939E+04 -4.75805E+04 -1.16817E+04 -6.84299E+04  3.67287E+04 -4.94076E+04
  3.75468E+04  6.63399E+03  1.40689E+04  4.48166E+04 -3.33771E+04  4.48619E+04 -6.53023E+04  7.87492E+02
 -5.49192E+04 -5.71409E+04 -3.91236E+03 -7.88127E+04  2.92613E+04 -5.18012E+04  4.67873E+04 -1.99089E+04
  4.37081E+04  1.27504E+04  3.25738E+04  2.45268E+04  1.96564E+04  3.06893E+04 -8.50622E+03  2.91252E+04
 -1.85431E+04  1.20274E+04 -2.03844E+04 -2.60364E+03  8.23483E+03 -7.30180E+03  1.86567E+04  1.18314E+04
  7.88783E+03  3.52399E+04 -3.36049E+04  3.60800E+04 -6.18242E+04  1.43014E+03 -4.95338E+04 -3.99057E+04
 -1.17001E+04 -5.98635E+04  3.36850E+04 -4.58840E+04  5.36725E+04  3.18966E+02  3.26798E+04  3.11826E+04
 -1.03542E+04  3.48131E+04 -3.17499E+04  1.88100E+04 -2.79690E+04 -3.93584E+03 -1.29242E+04 -9.95943E+03
 -1.18394E+04 -1.52158E+04  1.01122E+03 -2.29420E+04  5.53192E+03 -2.34814E+04  1.36747E+04 -1.24391E+04
  1.08642E+04  9.54201E+03 -2.09469E+03  1.40129E+04 -2.09300E+04 -3.30108E+03 -6.60990E+03 -3.42139E+04
  2.32560E+04 -4.42533E+04  4.99178E+04 -1.39905E+04  4.08491E+04  1.53582E+04  1.88319E+04  4.29022E+04
 -9.14660E+03  3.45952E+04 -2.19347E+04 -2.12100E+03 -8.65402E+03 -2.06674E+04  2.05971E+04 -2.88386E+04
  4.30118E+04 -9.14120E+03  3.30780E+04  2.00393E+04  1.83668E+04  4.41990E+04 -8.64207E+03  4.47005E+04
 -2.67670E+04  2.98232E+04 -3.47487E+04  9.54667E+03 -3.69977E+04 -1.73248E+04 -2.39816E+04 -3.79106E+04
  6.47878E+03 -3.39672E+04  3.16444E+04 -1.55613E+04  2.70633E+04  1.23017E+04  3.48718E+03  1.83269E+04
 -1.28374E+04  1.28547E+04 -1.24430E+04 -9.20828E+03  8.34428E+03 -1.13008E+04  1.79204E+04  9.63928E+03
  1.68791E+04  1.98267E+04 -3.76076E+03  2.21839E+04 -2.16609E+04  1.25673E+04 -2.67952E+04 -3.03492E+03
 -2.36039E+04 -1.95466E+04 -6.11676E+03 -1.61044E+04  1.76910E+03 -1.73531E+04  1.45340E+04 -1.52732E+04
  2.61597E+04 -1.33512E+04  2.81025E+04  3.67034E+03  2.55889E+04  1.72894E+04  2.27263E+03  3.82998E+04
 -1.77989E+04  2.57110E+04 -2.55080E+04  7.02650E+03 -2.36782E+04 -1.12018E+04 -3.41066E+03 -1.36518E+04
 -7.46740E+02 -1.74267E+03 -3.71932E+03  5.53303E+03 -1.39071E+04  5.79324E+03 -1.25297E+04 -3.50310E+03
 -1.05189E+04 -2.18156E+04  5.20824E+03 -2.25361E+04  1.50647E+04 -1.53004E+04  1.78454E+04  1.26918E+02
  1.03100E+04  1.44433E+04 -3.28732E+03  1.48587E+04 -1.10260E+04  5.46551E+03 -1.60907E+04 -4.24553E+03
 -1.31327E+04 -1.24903E+04  4.23684E+02 -2.20893E+04  7.79353E+03 -1.46794E+04  2.28690E+04 -7.87758E+03
  2.14110E+04  3.32029E+02  8.19905E+03  5.02777E+03  8.65342E+03 -3.15397E+03  9.76332E+03  6.58887E+02
  1.46576E+04  6.50461E+03  1.64653E+04  1.90424E+04  7.49416E+03  2.58382E+04 -5.30362E+03  2.94562E+04
 -1.50249E+04  1.79819E+04 -2.77382E+04  1.31996E+04 -3.55046E+04  1.01820E+03 -2.54877E+04 -1.70843E+04
 -1.33674E+04 -2.71083E+04  5.89331E+03 -1.92793E+04  1.51155E+04 -9.32772E+03  2.07597E+04  5.43709E+03
  2.62680E+03  1.26550E+04 -6.48848E+03  8.77188E+03 -1.24357E+04  1.82467E+03 -5.48267E+03 -5.24789E+03
  6.00301E+02 -1.96995E+04  1.18606E+04 -8.06074E+03  8.24784E+03 -1.54135E+03 -2.32516E+02  1.53512E+03
 -5.08018E+03  3.65656E+02 -2.33274E+03 -5.06746E+03 -7.43995E+02 -1.21790E+04  9.93331E+03 -1.24744E+04
  1.53133E+04 -4.74175E+03  1.61052E+04  2.55010E+03  1.14878E+04  1.25849E+04  8.23411E+03  1.80740E+04
 -3.21779E+03  1.89054E+04 -1.51370E+04  1.54386E+04 -1.78511E+04  3.71378E+03 -9.20968E+03 -2.43894E+03
 -5.20717E+03 -1.75757E+03 -5.15739E+02  3.86065E+03 -2.28288E+02  4.00777E+03 -6.12924E+03  4.98430E+03
 -7.09253E+03  9.10228E+02 -7.61766E+03 -8.92769E+03 -1.03107E+03 -1.38294E+04  8.28555E+03 -1.01804E+04
  5.24371E+03 -1.29338E+03  1.22680E+04 -2.80696E+02  2.07766E+02  2.41839E+03 -8.71743E+03 -2.23344E+03
 -7.38381E+03 -2.48483E+03 -2.25943E+03 -8.04479E+03  6.08302E+03 -8.71285E+03  1.49087E+04 -1.45734E+03
  1.52934E+04  6.12888E+03  1.17141E+04  1.12977E+04 -9.39447E+02  1.19270E+04 -4.32823E+03  9.59976E+03
 -1.19869E+04  5.38775E+03 -4.19827E+03 -1.82549E+03  5.21723E+03 -4.48536E+03  5.06729E+03 -2.51505E+03
  3.31891E+03  7.95556E+03  3.53491E+03  6.45716E+03 -5.83028E+03  9.54916E+03 -9.67741E+03  3.94729E+03
 -2.44640E+03 -8.44285E+03  1.64559E+03 -7.53068E+03  2.86971E+03 -6.08723E+03  2.49019E+03  3.91995E+03
  2.12113E+02  4.57191E+03 -8.15407E+03  4.68335E+03 -9.07940E+03  4.15137E+03 -6.35447E+03  9.54382E+02
 -7.20236E+03 -9.98294E+03  6.68823E+03 -1.03855E+04  5.60615E+03 -5.32084E+03  8.86718E+03  3.78822E+00
  3.07150E+03  3.52611E+03 -2.44663E+03  9.55711E+03 -7.82683E+03  3.58410E+03 -7.08176E+03  8.16218E+02
 -3.01059E+03 -9.93227E+03  1.96914E+03 -9.04391E+03  8.27951E+02 -5.91689E+03  2.83949E+03 -6.39537E+03
  2.17602E+02  2.06741E+03 -1.77217E+03  1.35245E+03 -2.27314E+03  8.75284E+02 -3.05465E+03  2.41984E+03
  3.82210E+03  1.60018E+03  7.34439E+03  6.94981E+03  7.99220E+03  2.93953E+03  7.43886E+03  1.12200E+04
  1.36254E+03  1.12313E+04 -9.32957E+03  9.34606E+03 -1.37977E+04  1.60188E+03 -3.32419E+03 -2.15754E+03
 -8.62701E+03 -8.99882E+03 -5.51898E+03 -3.15934E+01 -5.29813E+02  1.49762E+03  4.07132E+03  7.05327E+02
  6.02461E+03 -5.65880E+03  2.91330E+03 -4.51904E+03  2.49603E+03 -2.28989E+03  2.73527E+03 -7.44660E+01
  3.92882E+03 -2.52386E+03  3.11519E+03  3.33069E+03 -1.76945E+03  2.66952E+03 -1.03062E+04  7.88264E+03
 -5.85541E+03  1.26428E+02 -3.39204E+03 -1.30443E+03  5.45139E+03 -8.14613E+03  1.57076E+03 -5.18339E+03
  8.71093E+03 -8.74398E+03  8.67764E+03 -2.63302E+03  4.18637E+03  5.47823E+03  5.15229E+02  8.76968E+03
 -1.90009E+03  9.03515E+03 -4.42304E+03  5.86995E+03 -4.08918E+03  2.63432E+03 -2.44868E+03  6.83288E+01
 -1.88004E+03  1.56310E+03  2.91220E+02  4.00175E+03 -6.40877E+03  4.26179E+03 -3.44892E+03 -3.77182E+03
 -6.06838E+03 -4.43673E+03 -2.16481E+02 -8.53687E+03 -1.27807E+02 -6.18428E+03  5.13862E+03  1.36966E+03
  4.64759E+03  4.25467E+03  2.63161E+03  7.57100E+03 -1.47356E+03  6.20895E+03 -7.00880E+03  8.31585E+03
 -8.80200E+03 -2.86470E+02 -1.93620E+03 -1.65128E+02  1.96075E+03 -4.19056E+03 -1.37496E+03 -5.80155E+03
  2.38622E+03 -1.25520E+01  2.65287E+03 -2.47701E+03 -7.38357E+02  3.97494E+03  4.51677E+03  3.92555E+03
 -1.64294E+03 -4.36928E+03  1.42015E+03  1.13803E+03  4.27949E+03  5.26517E+03  3.51992E+03  2.22757E+03
 -3.11192E+03  4.87247E+03 -4.36328E+03  5.16040E+03 -8.08618E+03 -3.68140E+03 -1.14036E+04  1.76656E+02
 -1.96814E+03 -5.03823E+03  3.21778E+03 -8.23896E+03  5.98449E+03 -7.55946E+02  3.30118E+03  1.78736E+03
  3.69201E+03  4.59619E+02  4.22404E+03  5.21882E+03 -2.46981E+03  2.26541E+03 -3.97912E+03 -1.19504E+03
  9.99288E+02 -2.03261E+03  2.25143E+03  5.80327E+02  1.51791E+03 -4.32172E+02  4.68015E+03  4.40830E+02
  4.46570E+02  1.06975E+03 -4.04164E+03  1.34612E+03  4.80763E+02 -5.21542E+03  5.36870E+03 -1.24806E+03
  8.50186E+02 -8.59876E+02  2.94958E+02 -1.99940E+03 -5.48603E+00  6.41643E+02 -1.52302E+03  4.12173E+03
 -5.26559E+03 -1.34691E+02 -7.95007E+03 -4.84536E+03 -5.46978E+03  1.73883E+03 -1.89351E+03  2.44566E+03
  7.03582E+02 -2.87319E+03  5.15127E+03 -1.68588E+02  2.37587E+02  2.48387E+02 -1.04235E+03  4.41515E+03
 -4.57429E+03  4.43862E+02 -3.15777E+03 -1.61886E+03 -1.97916E+03 -2.87998E+03 -2.13553E+03 -5.99441E+03
  4.63761E+03  1.72039E+03  5.29243E+02 -4.65285E+02  3.17589E+02 -2.34681E+03  1.80776E+03  4.27001E+02
  2.62262E+03 -2.42297E+03  5.14654E+02  1.82540E+03  1.40034E+03 -6.86586E+03  4.37480E+02 -6.12285E+02
  6.01929E+03  1.51503E+03  4.47938E+03  8.18876E+02  2.35192E+03 -1.62576E+03  1.56814E+03  7.12320E+02
 -2.52576E+03  2.89705E+03 -4.31398E+03  2.30756E+03 -1.51205E+03 -2.98079E+03  3.42603E+03 -4.26845E+02
 -3.01549E+03  4.37517E+03 -9.43024E+00  4.87847E+02  5.37254E+02  2.25635E+03  2.62411E+03  3.19948E+03
  5.99110E+02 -1.84178E+03 -2.49789E+03 -8.29266E+01  1.57776E+03  1.76277E+03  2.16775E+03  9.97304E+02
 -3.14120E+03  5.74110E+03 -3.93263E+03  3.29763E+03  7.06514E+02 -5.74669E+02 -5.06920E+03 -6.36618E+02
  1.22103E+03 -3.52112E+03  2.47160E+03 -7.61124E+02  1.73537E+03 -7.97110E+02  5.05969E+03 -8.23822E+02
  3.64444E+02  2.53686E+03 -2.49578E+03  1.07958E+03  1.09172E+03  3.91944E+03 -2.03091E+03  3.47013E+03
 -7.13949E+03  5.58816E+03  2.47534E+02 -6.83533E+01  2.11747E+03  1.85880E+03 -2.61172E+03 -1.04179E+03
 -2.01855E+03 -5.93885E+02  1.30711E+03 -4.03963E+03 -3.45002E+03 -2.51209E+03 -3.46260E+03 -1.70468E+03
  1.99460E+03 -1.33683E+03  3.12100E+03  1.52421E+03 -1.25616E+03  1.17568E+03 -2.84782E+03  1.71908E+03
 -2.89030E+03  8.42526E+03  1.61999E+03  4.35910E+03 -6.86735E+03  2.89359E+03 -1.60597E+03 -5.59148E+03
 -3.15490E+03  1.55149E+03 -4.50194E+02 -4.60345E+03 -1.50268E+02  2.42286E+03 -4.03994E+03 -3.83279E+03
 -1.89766E+03  1.54685E+03 -4.01520E+03 -1.50196E+03  1.13310E+03  2.14143E+02  1.51198E+03  8.86643E+02
 -4.90331E+02  1.28727E+03 -3.48451E+03  2.40467E+03  3.32665E+03 -1.80360E+03  1.37020E+03 -5.68332E+02
  3.41213E+03 -4.02727E+02 -3.96771E+03  2.10473E+03 -3.89238E+03 -3.17195E+03  2.80850E+03 -7.17798E+02
  4.88569E+03  1.51293E+03 -2.93380E+03 -6.65845E+03 -2.02276E+03 -3.35956E+03  2.59195E+03  3.24166E+03
  3.27545E+03 -2.86913E+03 -5.91112E+03  1.08355E+03 -6.97678E+03  3.00460E+03  9.53893E+02 -2.83682E+01
  3.01328E+03 -9.45082E+02 -7.70935E+02  2.90083E+03 -1.13626E+03  5.01786E+02 -3.04553E+03 -3.69179E+02
 -2.37054E+03  1.39109E+03  2.58928E+03 -1.06737E+03  2.90484E+03 -3.87565E+03  4.87857E+03  2.79044E+03
  9.21194E+03  5.11103E+02  6.86554E+02  2.32982E+03 -2.73492E+03 -2.82736E+03 -1.31574E+03  1.21810E+03
