 $NMID ID='MM_0lb_SNR50_12hz_g60_90.RAW', FMTDAT='(8E13.5)'
 TRAMP=1., VOLUME=1. $END
  3.03227E+05  3.44667E+03  3.41797E+05  2.52921E+05  8.49703E+04  3.34184E+05 -1.32184E+05  2.55629E+05
 -1.86205E+05  8.72915E+04 -1.15189E+05 -2.80960E+04  1.36689E+03 -5.31603E+04  5.65189E+04 -4.46576E+03
  3.78916E+04  4.94286E+04 -1.92491E+04  7.74434E+04 -6.15428E+04  6.58247E+04 -8.08890E+04  3.48170E+04
 -7.75643E+04 -1.30806E+04 -5.86488E+04 -5.05968E+04 -9.18048E+03 -7.48141E+04  3.23716E+04 -4.00410E+04
  4.29316E+04  2.60996E+03  1.96539E+04  4.83659E+04 -3.69959E+04  4.85988E+04 -6.36991E+04 -1.25307E+03
 -5.55995E+04 -5.59963E+04 -1.06021E+04 -7.56306E+04  3.71039E+04 -5.55243E+04  5.17235E+04 -1.97831E+04
  4.28587E+04  1.67263E+04  2.85954E+04  2.52602E+04  2.01142E+04  3.26349E+04 -4.79077E+03  2.94554E+04
 -2.17436E+04  4.42776E+03 -2.23157E+04 -4.58780E+03  6.65762E+03 -7.23373E+03  2.27572E+04  1.29814E+04
  1.02864E+04  3.25015E+04 -3.44480E+04  3.77652E+04 -6.27609E+04  3.97913E+03 -5.26826E+04 -4.11503E+04
 -1.27720E+04 -6.41313E+04  4.38828E+04 -4.56200E+04  5.80269E+04 -1.90735E+03  3.63040E+04  3.97638E+04
 -5.57146E+03  4.10315E+04 -3.01167E+04  1.81968E+04 -3.28215E+04 -2.56992E+03 -2.58597E+04 -1.10715E+04
 -1.28108E+04 -1.36937E+04 -6.50458E+03 -1.97119E+04  8.87679E+03 -2.73052E+04  1.75208E+04 -1.36523E+04
  6.90609E+03  8.61687E+03 -1.14462E+04  1.38177E+04 -1.77953E+04 -2.47605E+03 -8.63361E+03 -3.48215E+04
  2.29818E+04 -3.87630E+04  4.88948E+04 -2.15430E+04  4.92299E+04  1.92898E+04  1.73751E+04  4.81308E+04
 -1.81900E+04  3.07402E+04 -2.74629E+04 -2.18110E+02 -1.51482E+04 -3.20584E+04  2.59748E+04 -3.35979E+04
  4.80896E+04 -4.32610E+03  3.98004E+04  2.61540E+04  1.84460E+04  5.65015E+04 -1.26243E+04  5.77184E+04
 -3.33694E+04  3.41136E+04 -5.00038E+04  1.03930E+04 -4.87112E+04 -1.64465E+04 -2.70588E+04 -3.84828E+04
  4.40692E+03 -4.09167E+04  3.18526E+04 -1.95183E+04  2.84857E+04  8.99644E+03  6.44744E+03  1.57874E+04
 -1.36706E+04  9.75777E+03 -1.12721E+04 -1.05267E+04  8.72537E+03 -5.84847E+03  2.35557E+04  3.85032E+03
  1.64085E+04  2.08649E+04 -1.27714E+04  2.65644E+04 -2.50929E+04  8.38980E+03 -2.87886E+04 -3.70248E+02
 -2.01188E+04 -1.80402E+04 -1.25643E+04 -2.48009E+04  3.55101E+03 -2.13358E+04  1.88915E+04 -2.41295E+04
  3.04252E+04 -8.41740E+03  3.21511E+04  1.13481E+03  2.25744E+04  2.16980E+04  6.52665E+03  3.23455E+04
 -2.21233E+04  3.14815E+04 -2.93186E+04  1.09858E+04 -2.15349E+04 -7.55619E+03 -1.42371E+03 -1.24532E+04
 -8.13395E+02 -4.77996E+03 -9.07431E+03  7.87711E+03 -1.78893E+04 -1.90814E+02 -1.66040E+04 -1.00864E+04
 -1.40089E+04 -2.35007E+04  1.55578E+03 -2.68483E+04  1.60342E+04 -1.80699E+04  2.52505E+04 -5.84834E+03
  1.27408E+04  1.34776E+04 -6.11280E+02  2.18328E+04 -1.78068E+04  1.51940E+04 -2.79664E+04 -3.18054E+03
 -1.30430E+04 -2.29394E+04  6.74765E+02 -1.79660E+04  1.40621E+04 -1.54132E+04  2.09045E+04 -1.58306E+04
  1.74746E+04  7.79872E+02  1.44432E+04  4.44370E+03  1.43989E+04  4.03855E+03  1.22602E+04 -7.16429E+03
  1.79050E+04  3.18559E+03  2.90022E+04  1.42009E+04  1.13350E+04  3.59863E+04  1.11503E+02  4.27354E+04
 -2.32170E+04  3.62497E+04 -3.85336E+04  1.71284E+04 -4.49466E+04 -1.70855E+03 -2.67001E+04 -2.01930E+04
 -1.52040E+04 -3.82858E+04  1.27905E+04 -2.32181E+04  2.60798E+04 -1.38140E+04  1.76560E+04  9.54190E+03
  7.42764E+03  1.77129E+04 -1.81286E+04  1.39706E+04 -1.42925E+04  4.66950E+03 -1.11472E+04 -1.64827E+04
 -3.44595E+03 -1.42726E+04  5.01030E+03 -1.25321E+04  9.84482E+03 -5.06783E+03  5.38423E+02  9.71936E+03
 -3.01279E+03  1.75029E+03 -1.32976E+04 -4.13858E+03  6.13156E+03 -1.88722E+04  1.15762E+04 -1.40116E+04
  1.75891E+04 -1.03375E+04  2.75080E+04  3.99904E+03  2.19400E+04  1.73772E+04  1.12784E+04  3.12503E+04
 -3.15961E+03  2.67411E+04 -1.76276E+04  1.52249E+04 -2.47008E+04  3.85977E+03 -1.50332E+04 -5.52388E+03
 -5.68452E+03 -6.32468E+03 -1.44987E+03  3.33948E+03 -6.15279E+03  6.02706E+03 -1.13816E+04  1.23477E+04
 -9.99491E+03 -5.43562E+03 -1.89202E+04 -1.06472E+04 -1.12391E+04 -1.36095E+04  7.36867E+03 -1.65548E+04
  1.50120E+04 -3.47941E+03  9.14562E+03  1.08811E+03 -1.75213E+03  7.61390E+03 -3.53466E+03  6.08454E+03
 -5.98811E+03 -1.39703E+04 -1.29762E+03 -1.53878E+04  8.62104E+03 -1.76276E+04  1.92723E+04 -9.32816E+03
  1.45801E+04  4.38081E+03  1.70334E+04  1.30218E+04  3.44417E+03  1.69259E+04 -1.30166E+04  8.33989E+03
 -7.22314E+03  4.08135E+03 -8.36489E+03 -4.45380E+03 -6.52191E+02 -5.21817E+03  7.66245E+03  2.75030E+03
  6.87706E+03  6.01165E+03 -1.33869E+02  1.14519E+04 -7.28243E+03  9.01139E+03 -1.01571E+04  3.94761E+03
 -9.87203E+03 -4.18971E+03  1.85741E+03 -1.04632E+04  9.44397E+03 -1.22834E+04  4.61628E+03  6.92747E+03
  3.39723E+03  2.52947E+03 -9.98794E+03  9.93269E+03 -1.22203E+04  3.37120E+03 -1.30593E+04 -7.75540E+03
 -5.49754E+03 -1.24214E+04  3.57151E+03 -2.09773E+04  1.14241E+04 -4.91736E+03  1.61287E+04  6.47555E+03
  5.08661E+03  1.34508E+04 -2.05327E+02  1.26219E+04 -6.78767E+03  1.01666E+04 -9.82770E+03 -1.48751E+03
 -1.40974E+04 -5.89052E+03  1.87876E+03 -1.58636E+04 -5.66210E+02 -9.92765E+03  4.56329E+03 -4.68048E+03
  3.29155E+02  3.98798E+03  2.51685E+03  5.56152E+02 -3.38938E+02 -2.87494E+03 -4.14953E+03 -2.67896E+03
  9.68669E+03 -4.96152E+03  1.01454E+04 -3.59373E+02  8.26274E+03  3.41937E+03  7.77879E+03  1.75380E+04
  3.23865E+03  2.32765E+04 -8.96440E+03  1.72035E+04 -1.90951E+04  6.23166E+03 -2.07053E+04 -6.95306E+03
 -5.67353E+03 -1.67670E+04 -2.12801E+03 -1.50038E+04  7.76264E+03 -6.90973E+03  7.52550E+03 -9.83619E+03
  1.79929E+03 -3.81957E+03  6.74205E+03 -1.75921E+02 -2.98395E+03 -1.92225E+03  8.30792E+03 -1.97135E+03
  7.99759E+03 -1.21636E+03  3.96360E+03  8.94934E+03  1.58966E+03  1.27035E+04 -5.42475E+03  8.54087E+03
 -9.59555E+03 -6.40875E+03 -4.57660E+03 -9.61011E+03 -4.78998E+02 -1.29640E+04  2.11015E+03 -1.63133E+04
  1.46506E+04 -6.14473E+03  1.70154E+04  7.69706E+03  1.02856E+04  1.03217E+04  4.67773E+03  1.20475E+04
 -3.52481E+03  8.63358E+03 -6.54671E+03  2.70742E+03 -5.42953E+03 -5.01849E+03 -9.43085E+03 -1.78583E+03
 -3.17168E+03 -8.29818E+02  2.39745E+03  5.56054E+03 -7.80742E+03  3.15640E+03 -4.75516E+03 -3.25663E+03
 -6.00222E+03 -6.54964E+03  2.17879E+03 -1.40240E+04  1.15675E+04 -1.12496E+04  6.27952E+03 -5.50323E+03
  1.03126E+04  6.30042E+03  2.89354E+03  8.11483E+03 -5.73832E+02  1.33148E+04 -8.02762E+03  8.32384E+03
 -1.54742E+04 -4.89452E+03 -5.98134E+03 -6.94183E+03 -2.10241E+03 -1.11670E+04  7.92799E+03 -4.10676E+03
  4.67728E+03 -1.08893E+03  4.25105E+03  8.77398E+02  1.88288E+03  5.65863E+03 -4.75721E+03 -3.30841E+02
  4.24386E+02  4.83333E+02  8.45736E+02  2.04174E+03  4.03521E+03  2.25932E+03  6.26986E+03  5.96811E+03
 -3.69663E+03  1.69820E+03 -5.40959E+03  1.17718E+04 -1.25019E+04  3.12788E+03 -8.96984E+03 -1.33945E+03
 -6.30745E+03 -1.26160E+04 -1.00942E+03 -1.20548E+04  9.05488E+03 -4.13847E+03  6.08332E+03  6.91773E+02
  8.23710E+03  6.73163E+03  4.56525E+03  7.87215E+02 -1.53211E+03  5.21738E+03 -5.94877E+03 -2.13355E+03
 -6.94801E+03 -5.69722E+03  4.82534E+03 -6.69161E+03  3.63711E+03 -1.62572E+03  4.25478E+02  3.35859E+03
  6.84294E+03  1.03923E+02  2.23917E+02  4.85958E+03 -4.66174E+03  3.11728E+02  3.40010E+03  3.94173E+02
 -1.98474E+03  1.87065E+03  2.55879E+02 -1.77587E+03  1.79500E+03  1.20298E+04 -3.00974E+03  5.27712E+03
 -7.85367E+03  5.09972E+03 -7.41358E+03  7.03866E+02 -1.02831E+03 -1.13344E+03 -2.65983E+03 -4.85137E+03
 -1.05673E+02 -8.57255E+03  3.82267E+03 -7.21143E+02 -5.71246E+02  6.89767E+03  1.42264E+02  5.33763E+03
 -3.75825E+03  4.14965E+03  4.98595E+02 -6.18365E+03 -2.82336E+03 -6.00872E+03 -2.47309E+03 -1.10505E+04
  3.97324E+03 -2.48782E+03  2.57462E+03  7.95280E+03  6.17669E+03  6.08583E+03  3.73274E+03  3.96808E+02
 -6.04730E+01 -1.19418E+03 -3.15893E+03 -8.42124E+02  2.73508E+03 -6.36891E+03  6.52692E+02 -3.72883E+03
  8.94665E+03 -2.76250E+03  6.07038E+03  5.79795E+03  4.46763E+03  1.33615E+03 -3.79227E+03  2.42619E+03
 -7.75478E+03  7.12218E+02 -6.30087E+03  2.21171E+03  1.54997E+03 -7.01286E+03  4.35828E+03 -9.17784E+03
  5.38829E+03 -4.61277E+03  5.21759E+03  5.48864E+02  4.61958E+03  6.43911E+03 -4.07896E+03  4.55798E+03
 -3.32642E+03  3.29740E+03  2.74866E+03 -8.87604E+02 -1.99206E+03  3.12784E+03 -2.57020E+03  1.89838E+03
 -3.54331E+03  8.68805E+03 -6.84758E+03  1.64880E+03 -8.12757E+03  6.11441E+02 -3.12945E+03 -5.63304E+03
 -4.67735E+03 -1.07265E+04  7.61453E+02 -1.13742E+04  9.68244E+03 -1.93283E+03  7.12069E+03 -5.96050E+03
  7.36358E+03  1.38448E+03  6.54543E+03 -1.09560E+03 -2.72396E+03  9.31110E+03 -1.38964E+03  1.00982E+04
 -1.02859E+04 -3.91901E+03 -3.58175E+03 -2.79792E+03 -4.41211E+02 -3.88503E+03  1.08370E+03 -1.23856E+02
  2.29927E+03 -5.01161E+03 -1.82319E+03  2.46066E+03  2.89087E+03  1.10148E+03  1.86390E+03  2.16038E+03
  2.46018E+03 -3.28644E+03  3.80311E+03  3.66426E+02  6.82217E+03  6.03553E+03  7.78859E+02  5.42623E+03
 -6.70741E+03  6.44345E+03 -7.43015E+03 -9.70677E+02 -7.27537E+03 -3.84750E+03 -8.02306E+03 -7.52990E+03
  8.87501E+02 -5.89837E+03 -7.78261E+02 -1.08636E+04  6.18645E+03 -7.06837E+03  4.02008E+03  2.90540E+03
  1.31390E+03 -2.21936E+03 -3.04599E+03 -1.38155E+02  6.28548E+02 -3.93580E+03 -6.21104E+02 -1.72061E+03
 -1.80018E+03  4.09197E+03  5.67521E+01  8.44802E+02  4.10295E+03  2.42399E+03 -3.05976E+03  1.29488E+03
 -1.63185E+03 -1.53245E+03 -5.88037E+03 -2.80355E+03 -3.89502E+03 -9.31325E+03  9.22028E+02 -4.49133E+03
  3.16015E+03 -3.98055E+03  3.84898E+03 -5.83375E+03  1.04275E+04 -1.29697E+01  5.15814E+03  9.72569E+02
 -6.24829E+03  4.02310E+03 -5.16480E+03 -2.12761E+03 -3.76324E+02  3.35860E+03 -6.28247E+03 -2.02838E+03
  5.20884E+03 -3.61444E+03 -1.86544E+03 -8.02652E+03 -2.62156E+03  2.20756E+03 -2.10463E+03  7.68765E+03
 -2.53664E+03 -5.50920E+02  3.50695E+03 -9.33873E+02 -5.06144E+02 -5.37302E+03  4.29665E+03 -4.91801E+03
  5.32195E+03 -3.43007E+02  6.00142E+03 -6.57067E+03 -2.80408E+03  6.50862E+03 -3.52836E+03  2.43277E+03
