 $NMID ID='MM_0lb_SNR50_12hz_g55_43.RAW', FMTDAT='(8E13.5)'
 TRAMP=1., VOLUME=1. $END
  3.12204E+05 -1.24915E+03  3.35979E+05  2.45666E+05  8.46742E+04  3.36638E+05 -1.36621E+05  2.50482E+05
 -1.90760E+05  8.18779E+04 -1.09729E+05 -3.92333E+04  2.31583E+03 -5.67603E+04  5.50408E+04 -6.50675E+03
  3.46619E+04  5.05121E+04 -2.21893E+04  7.66081E+04 -5.76434E+04  7.00291E+04 -8.40992E+04  3.49828E+04
 -8.47602E+04 -1.40024E+04 -5.69572E+04 -5.36844E+04 -1.24378E+04 -6.73856E+04  3.20986E+04 -4.80673E+04
  4.15050E+04  6.34876E+03  1.90476E+04  4.95943E+04 -3.45553E+04  4.80283E+04 -6.77023E+04 -8.69547E+02
 -5.49724E+04 -5.29226E+04 -9.95911E+03 -8.19583E+04  3.38653E+04 -5.41709E+04  4.73767E+04 -1.41695E+04
  4.20510E+04  7.98943E+03  3.61737E+04  2.60224E+04  1.70821E+04  2.79707E+04 -7.89969E+03  2.13547E+04
 -2.30346E+04  1.15232E+04 -1.82699E+04 -2.17543E+03  9.50386E+03 -9.13264E+03  2.67850E+04  1.00529E+04
  9.15539E+03  3.32701E+04 -2.89381E+04  3.70312E+04 -5.79786E+04  2.59269E+02 -5.95491E+04 -4.15460E+04
 -1.09272E+04 -6.22993E+04  4.34448E+04 -4.56667E+04  6.03705E+04 -1.50432E+03  3.69241E+04  3.12076E+04
 -4.78026E+03  4.23488E+04 -3.68245E+04  1.63124E+04 -2.75438E+04 -2.82731E+03 -1.84907E+04 -1.45505E+04
 -8.79954E+03 -1.65429E+04 -8.18498E+02 -1.73493E+04  9.73147E+03 -2.37883E+04  1.91391E+04 -1.20027E+04
  1.45197E+04  4.33854E+03 -8.65705E+03  1.63554E+04 -2.52464E+04 -8.57065E+03 -3.56230E+03 -3.00981E+04
  2.32180E+04 -4.57028E+04  4.66550E+04 -2.05439E+04  4.69241E+04  2.22904E+04  1.53082E+04  4.20799E+04
 -1.87937E+04  3.64652E+04 -2.35038E+04 -8.03543E+01 -1.52231E+04 -2.90482E+04  2.62164E+04 -3.88469E+04
  4.50263E+04 -1.04258E+04  3.99351E+04  2.28200E+04  1.90766E+04  4.96030E+04 -3.90226E+03  5.45626E+04
 -2.65891E+04  3.81503E+04 -4.94506E+04  8.97111E+03 -4.23972E+04 -2.16022E+04 -2.69968E+04 -3.75311E+04
  6.97354E+03 -4.24466E+04  3.26564E+04 -1.72525E+04  2.93792E+04  1.25191E+04  2.64846E+03  2.51663E+04
 -1.15507E+04  1.09452E+04 -9.84147E+03 -1.18274E+04  4.96961E+03 -2.72560E+03  1.81319E+04  6.42313E+03
  1.15375E+04  2.21012E+04 -1.05662E+03  2.56676E+04 -2.04031E+04  1.51841E+04 -2.91763E+04  1.13013E+03
 -1.52470E+04 -2.16088E+04 -1.74306E+04 -1.52502E+04  7.23811E+02 -1.93805E+04  1.55484E+04 -2.49944E+04
  2.96717E+04 -1.08866E+04  3.55909E+04  6.33919E+03  2.28208E+04  2.68539E+04  5.68616E+03  4.55158E+04
 -1.47537E+04  2.73444E+04 -2.83443E+04  1.12551E+04 -1.78397E+04 -1.27253E+04 -9.64869E+03 -1.70602E+04
 -3.80029E+02 -1.63593E+03 -9.45800E+03  9.47860E+03 -2.27785E+04  4.85511E+03 -1.68581E+04 -1.25891E+04
 -9.80836E+03 -2.21183E+04  5.37796E+03 -3.01109E+04  1.24745E+04 -1.98982E+04  2.27487E+04 -1.60751E+03
  1.28346E+04  1.49928E+04 -2.07315E+03  1.64814E+04 -1.50602E+04  1.16584E+04 -2.36822E+04 -3.81924E+03
 -1.35191E+04 -2.19277E+04 -3.57088E+03 -2.59327E+04  9.97549E+03 -2.53038E+04  2.27780E+04 -2.22643E+04
  1.87103E+04 -1.50478E+03  1.67915E+04  7.52582E+03  9.37667E+03 -1.06014E+03  9.66420E+03 -2.02440E+03
  2.12976E+04  2.90011E+03  2.89394E+04  1.38342E+04  1.25713E+04  3.05138E+04 -4.68904E+03  3.48492E+04
 -2.37398E+04  3.19689E+04 -3.38286E+04  1.45783E+04 -4.01397E+04 -4.61143E+03 -3.49875E+04 -1.83314E+04
 -1.53034E+04 -3.36156E+04  1.56304E+04 -2.60038E+04  2.43453E+04 -1.06399E+04  2.47360E+04  1.15428E+04
  1.93483E+03  1.77486E+04 -7.17705E+03  1.53455E+04 -1.64818E+04  7.64425E+03 -8.32407E+03 -1.05827E+04
  3.42919E+03 -1.78137E+04  8.27412E+03 -2.02945E+04  9.18976E+03  5.64288E+02  2.18347E+03  4.33061E+03
 -6.38059E+03  3.72116E+03 -6.73900E+03 -3.60960E+03 -3.53935E+03 -1.79314E+04  9.64915E+03 -1.66129E+04
  2.08651E+04 -7.42943E+03  2.05627E+04  3.44616E+03  1.81858E+04  1.77878E+04  1.09750E+04  2.15600E+04
  1.19690E+02  2.47252E+04 -1.92441E+04  1.37946E+04 -1.71653E+04  1.96078E+03 -1.39467E+04 -1.91830E+03
 -9.40700E+03 -6.24959E+03 -2.31715E+03 -3.26333E+03 -2.94567E+03  4.21282E+03 -6.67970E+03  4.15258E+03
 -1.26853E+04  3.59499E+03 -8.98151E+03 -1.16730E+04 -4.57115E+03 -1.78133E+04  9.09020E+03 -1.23622E+04
  1.12076E+04 -6.83934E+03  4.89706E+03  6.40163E+03 -4.06890E+03  4.49131E+03 -9.88692E+03 -1.94860E+03
 -4.53269E+03 -1.08218E+04 -2.90638E+03 -7.40444E+03  1.31201E+04 -1.39906E+04  1.82319E+04 -7.69157E+03
  2.25989E+04  2.13099E+03  1.88650E+04  1.78054E+04  5.60685E+03  1.45202E+04 -6.16386E+03  1.09176E+04
 -1.24291E+04  3.80095E+03 -4.98558E+03 -3.48373E+02  4.55286E+01 -6.81572E+03  3.98008E+03  1.89891E+03
  8.80425E+03  5.18626E+03  3.75167E+03  1.10441E+04 -8.08804E+03  1.17135E+04 -1.09607E+04 -9.54373E+02
 -1.13956E+04 -9.74709E+03 -1.19559E+03 -1.75517E+04  1.05729E+04 -2.14545E+03  6.61539E+03  4.70144E+03
  1.98506E+02  6.57797E+03 -6.86371E+03  8.36678E+03 -1.29033E+04  3.58101E+03 -1.21751E+04 -1.30472E+03
 -5.48218E+03 -1.13945E+04  1.01773E+03 -1.73998E+04  9.29488E+03 -8.84174E+03  1.35062E+04  3.26020E+03
  6.49784E+03  1.05384E+04 -1.45761E+03  1.51031E+04 -1.23166E+04  7.40262E+03 -1.00425E+04 -3.43880E+03
 -5.64801E+03 -6.77615E+03  2.05953E+02 -1.27501E+04  9.57718E+03 -8.72620E+03  8.75458E+03 -5.12772E+02
  2.13723E+03 -9.88476E+02 -3.98107E+03  9.71582E+02 -4.63101E+03 -1.85966E+03  3.40277E+03 -7.24125E+03
  1.17613E+04 -2.87190E+03  1.96957E+04 -1.27335E+03  1.26903E+04  1.36941E+04  7.47910E+03  1.46743E+04
 -4.36484E+03  1.92478E+04 -1.07799E+04  1.55277E+04 -1.89604E+04 -1.87616E+03 -1.56829E+04 -1.75386E+03
 -1.09348E+04 -1.55498E+04  1.92022E+03 -1.08258E+04  4.36599E+03 -8.56037E+03  2.30355E+03 -4.41196E+03
  3.17947E+03 -3.54964E+03  5.29820E+03 -8.61000E+03  5.67023E+03  1.38252E+03  8.70223E+03 -5.25992E+03
  9.52014E+03  6.04241E+03  6.70036E+03  7.54226E+03 -5.19715E+03  1.16812E+04 -7.77852E+03  3.54020E+03
 -7.16927E+03  2.05769E+03 -4.93339E+03 -8.48531E+03  3.81260E+02 -1.44584E+04  5.65465E+03 -9.96726E+03
  1.63847E+04 -7.79014E+03  1.52822E+04  5.00350E+03  9.08248E+03  6.94556E+03  2.04826E+03  1.26875E+04
 -5.23376E+03  8.77323E+03 -6.15334E+03  6.44145E+03 -4.63396E+03 -7.83297E+03 -2.56581E+02  5.63175E+02
 -8.99278E+02  3.54010E+03 -8.39897E+03  6.35948E+03 -1.10237E+04 -5.67684E+02 -5.24149E+03 -2.09513E+03
 -3.92908E+03 -9.22163E+03 -1.12669E+03 -8.18700E+03  1.07126E+04 -6.88207E+03  9.41324E+03 -4.49069E+03
  1.17726E+04  1.57560E+03  2.87676E+03  2.44391E+03  5.42887E+03  1.14134E+04 -2.64791E+03  9.43747E+03
 -9.36992E+03 -5.59681E+03 -7.14943E+03 -3.43183E+03 -1.56664E+03 -8.51401E+03  2.18647E+03 -2.58189E+03
  3.22680E+03 -3.62153E+03  6.09607E+03  3.67184E+03  2.34695E+02  7.26254E+03 -9.76949E+02  3.58105E+03
 -1.75344E+03 -1.57229E+03  2.12967E+03  5.81492E+03  9.69051E+02  1.02270E+04  2.13877E+03  4.25798E+03
 -6.71455E+03  1.23147E+04 -5.65256E+03  1.03576E+04 -6.20341E+03  2.23546E+03 -1.28411E+04 -6.95146E+03
 -5.77540E+03 -1.15893E+04  5.28761E+03 -1.26824E+04  3.85390E+03 -8.01129E+03  5.11107E+03  7.08981E+03
  9.83216E+03  7.97372E+03 -3.05272E+03  6.17293E+03 -4.31385E+03  4.51199E+03 -4.50116E+03  1.39843E+03
 -2.78385E+03 -2.51005E+03 -1.29843E+03 -9.05735E+02 -1.36131E+03 -2.85909E+03  1.39034E+03  9.73473E+02
  5.20531E+03  6.50572E+02  4.72830E+03 -4.13825E+03 -2.51241E+03 -2.02890E+03  3.26817E+03 -2.74509E+03
  9.41892E+02  1.16884E+03  6.23612E+03  7.52333E+03  3.11243E+02  1.80839E+03  1.29756E+03  9.17606E+03
 -8.65633E+03  1.11311E+03 -6.97977E+03  1.24220E+03 -4.03426E+03 -1.71906E+03 -9.99164E+02 -3.04320E+03
 -2.50238E+03 -1.59176E+03  3.03409E+03 -1.50040E+03 -9.56847E+02  1.89881E+03 -3.36599E+03  5.78673E+01
  2.79814E+03 -2.28810E+03 -5.40234E+03 -1.92035E+03 -1.45808E+03 -6.32217E+03  5.22460E+03 -3.44768E+03
  1.44908E+02 -4.79652E+03  5.93759E+03 -7.16751E+03  3.63960E+03  2.86268E+03  2.41169E+03  5.69501E+03
  9.87097E+02  4.06178E+03  6.89475E+01 -5.92316E+02  2.10565E+02 -7.02366E+03  6.24043E+03 -6.78287E+03
  6.76137E+03 -1.31726E+02  5.66299E+03  7.54665E+03  3.20761E+03  1.08049E+04 -2.17265E+03  4.66137E+03
 -4.83076E+03 -3.83245E+03 -7.11795E+03 -8.19954E+02 -5.66510E+03 -2.50809E+03  1.01149E+03 -2.72536E+03
 -9.27583E+02 -3.85909E+03  5.92124E+03  4.49688E+03  7.03992E+02  4.58609E+03  6.13044E+01  6.01044E+03
 -2.63432E+03  2.99092E+03 -6.08632E+02  1.19013E+03 -1.57308E+03  9.80673E+02 -2.29596E+03  5.74445E+03
 -1.39824E+03  4.05508E+03 -7.89605E+03  8.81181E+02 -2.59580E+03  4.03080E+02 -6.60647E+03 -1.38288E+03
 -1.75019E+03 -8.39975E+03 -3.21681E+03 -1.17916E+04 -1.96866E+03 -7.21513E+03  7.69344E+03 -7.56509E+03
  7.89489E+03  1.08712E+03  4.43779E+03  3.39214E+03 -4.59031E+03  2.22767E+03  3.37450E+03  5.84779E+03
 -1.35148E+03  2.16222E+03 -3.88800E+03  5.79291E+02 -3.25504E+03 -1.24321E+03 -3.58844E+02  2.98599E+03
 -3.00505E+02  5.64780E+03 -4.54621E+03 -3.07906E+00 -3.73113E+03 -3.14752E+03 -1.03418E+03 -5.28673E+03
  2.43098E+03 -1.82686E+03  2.99156E+02  8.21499E+02  9.81169E+02  4.42016E+03  2.98217E+03  4.28004E+03
 -2.43684E+03  6.62947E+03 -9.05769E+03  7.35951E+03 -5.98652E+03 -3.23791E+03 -5.47650E+03 -6.15668E+03
 -7.19746E+03 -7.27752E+03  2.33190E+03 -5.54118E+03  7.72673E+03 -7.36739E+02  2.05743E+03  2.78871E+03
  1.88274E+03  6.77319E+03 -1.27733E+03  5.82467E+03 -7.50574E+03 -3.21074E+03  9.07707E+02 -1.79577E+02
  4.23955E+03  2.46346E+03  1.07544E+03  2.50397E+03 -2.85008E+02 -8.19829E+02 -2.96122E+03  1.48704E+03
 -5.19471E+03  1.32007E+03 -2.51730E+03  3.55690E+03 -2.50083E+02 -2.21974E+03  3.41069E+03 -3.23377E+03
  3.54987E+03 -2.34837E+03  6.26288E+03 -3.32659E+03  7.78498E+03  2.19357E+03  2.58202E+03  9.82545E+03
 -6.45175E+03  1.07615E+04 -4.32007E+03  7.00701E+03 -6.72617E+02  3.70979E+03 -1.02678E+04 -4.08113E+03
 -3.01981E+03  9.03565E+02  2.38209E+03  2.83282E+03  8.10437E+03 -7.22009E+02 -1.53789E+03 -2.38814E+03
  1.74199E+03  2.41263E+03  2.96038E+03 -4.50960E+03  1.39248E+03 -2.09671E+03  6.52630E+03 -2.70450E+03
  6.16761E+03 -1.05253E+02 -2.68185E+02  1.29567E+03 -3.81024E+03  2.40549E+03 -2.39880E+03  5.51708E+03
