 $NMID ID='MM_0lb_SNR50_20hz_g60_31.RAW', FMTDAT='(8E13.5)'
 TRAMP=1., VOLUME=1. $END
  3.10408E+05 -1.18089E+03  3.38094E+05  2.50109E+05  8.22377E+04  3.34858E+05 -1.28922E+05  2.52232E+05
 -1.90972E+05  8.71462E+04 -1.14730E+05 -3.60740E+04  3.44276E+03 -5.06905E+04  5.75578E+04  4.09093E+03
  3.40826E+04  5.54993E+04 -1.57229E+04  7.56188E+04 -6.42363E+04  6.37331E+04 -8.06075E+04  3.30533E+04
 -8.47528E+04 -1.34342E+04 -5.42497E+04 -5.04943E+04 -1.33011E+04 -6.58047E+04  2.33074E+04 -4.37009E+04
  3.57586E+04  3.65151E+03  1.37475E+04  4.97055E+04 -3.19429E+04  5.00072E+04 -6.59912E+04 -4.05012E+03
 -5.20121E+04 -5.77301E+04 -3.30887E+03 -7.51599E+04  2.98791E+04 -5.24328E+04  4.72081E+04 -1.45012E+04
  4.29639E+04  1.04142E+04  3.18796E+04  2.71422E+04  1.89075E+04  2.95241E+04 -4.66631E+03  2.22893E+04
 -2.18048E+04  1.11574E+04 -1.83028E+04 -7.66148E+03  6.32887E+03 -6.45658E+03  2.01402E+04  1.26648E+04
  6.74648E+03  3.48889E+04 -2.97306E+04  3.36498E+04 -6.01499E+04  1.47007E+03 -5.81104E+04 -3.99495E+04
 -1.24303E+04 -5.84057E+04  3.79466E+04 -4.49970E+04  5.87104E+04  2.95771E+02  3.18029E+04  3.14137E+04
 -1.23611E+02  3.76152E+04 -2.99346E+04  1.34770E+04 -2.68807E+04 -3.78839E+03 -1.16202E+04 -9.95837E+03
 -5.58319E+03 -1.03980E+04 -2.43024E+03 -1.63121E+04  8.77101E+03 -2.54893E+04  1.53052E+04 -1.53660E+04
  1.04868E+04  9.34181E+03 -6.64903E+03  7.92877E+03 -1.95179E+04 -4.39657E+03 -6.51410E+03 -3.11767E+04
  2.27567E+04 -4.43950E+04  4.38081E+04 -1.88261E+04  4.13399E+04  1.80762E+04  1.17226E+04  4.30337E+04
 -1.62344E+04  3.31548E+04 -2.30698E+04  3.41901E+03 -1.21528E+04 -2.38406E+04  2.27196E+04 -3.00158E+04
  3.94065E+04 -6.01158E+03  3.36220E+04  1.64865E+04  1.86421E+04  4.42928E+04 -7.07217E+03  4.73326E+04
 -2.65046E+04  2.91749E+04 -3.57432E+04  7.84041E+03 -4.14834E+04 -1.65183E+04 -2.27647E+04 -3.47074E+04
  5.41450E+03 -3.69977E+04  3.09366E+04 -1.44938E+04  2.68770E+04  1.14062E+04  1.99240E+03  1.73672E+04
 -1.42867E+04  9.46586E+03 -7.78360E+03 -3.88004E+03  7.10384E+03 -1.14683E+04  1.91308E+04  9.09881E+03
  1.39563E+04  2.21805E+04 -6.72311E+03  2.16324E+04 -2.26326E+04  6.76114E+03 -2.38810E+04 -6.23703E+03
 -1.61087E+04 -1.56742E+04 -6.76830E+03 -1.46156E+04  6.05465E+03 -1.29060E+04  1.04875E+04 -1.63640E+04
  1.89983E+04 -9.39466E+03  3.04479E+04  2.43703E+03  2.10772E+04  1.34956E+04  6.81670E+03  3.07775E+04
 -1.81786E+04  3.24638E+04 -2.64788E+04  9.87187E+03 -1.71269E+04 -8.43830E+03 -4.95883E+03 -1.47747E+04
  4.73601E+03 -9.80054E+02 -9.77414E+02  4.35176E+03 -1.56327E+04  5.66520E+03 -1.00067E+04 -5.65264E+03
 -7.59318E+03 -1.68467E+04  6.18220E+03 -1.89878E+04  1.35081E+04 -1.04548E+04  1.59920E+04 -4.61595E+03
  1.04728E+04  9.58854E+03 -3.10036E+03  1.45821E+04 -1.34541E+04  4.42282E+03 -1.48462E+04 -3.92660E+03
 -1.19839E+04 -1.46859E+04 -2.51187E+03 -1.55594E+04  7.86003E+03 -1.30715E+04  1.60334E+04 -7.70786E+03
  1.26772E+04 -3.53534E+02  1.40069E+04  2.13361E+03  5.47773E+03  3.69439E+03  8.54056E+03  3.15941E+03
  1.18806E+04  3.74751E+03  1.76110E+04  1.30585E+04  9.78401E+03  2.52918E+04 -5.40576E+03  2.51236E+04
 -1.14704E+04  2.15984E+04 -2.72299E+04  1.21209E+04 -2.51932E+04 -1.42389E+03 -1.51560E+04 -1.07996E+04
 -1.53658E+04 -2.02376E+04  4.49954E+03 -1.99831E+04  1.54688E+04 -1.35637E+04  1.49019E+04  4.77121E+00
  5.79485E+03  1.49939E+04 -9.09349E+03  9.04064E+03 -1.74405E+04  2.85533E+03 -6.88278E+03 -7.89918E+03
 -2.67133E+02 -1.45805E+04  5.09601E+03 -1.05233E+04  1.45230E+04  3.98613E+02  1.03080E+03  2.20541E+02
 -2.43583E+03  3.75351E+03 -3.74680E+03 -4.56489E+03 -2.36604E+03 -7.45447E+03  5.94948E+03 -1.33316E+04
  1.22303E+04 -4.63182E+03  1.00111E+04  3.86761E+03  1.51320E+04  6.65104E+03  8.19297E+03  1.66696E+04
 -1.74620E+03  1.48988E+04 -8.66313E+03  8.77238E+03 -1.15069E+04 -1.67407E+02 -9.65454E+03 -5.47193E+02
 -6.34120E+03 -1.89800E+03 -1.69631E+03  1.41392E+03 -1.61573E+03 -2.58102E+03 -2.93943E+03  9.93265E+03
 -5.90636E+03  1.60889E+03 -9.31421E+03 -3.94325E+03 -3.09001E+03 -1.29985E+04  4.63528E+03 -1.24613E+04
  4.93046E+03 -2.95924E+03  9.04191E+03  2.31760E+03  4.70064E+02  3.33469E+03 -4.67544E+03 -5.54095E+03
  1.73708E+03 -4.94719E+03 -1.89987E+02 -1.10511E+04  3.10964E+03 -9.22374E+03  6.37564E+03 -4.57832E+02
  1.31886E+04 -9.76058E+02  1.22215E+04  7.10896E+03  6.25746E+03  6.84056E+03 -5.52517E+03  5.19182E+03
 -8.68511E+03  3.36895E+03 -5.23158E+03 -4.34045E+03  3.22041E+03 -2.41013E+03  4.01392E+03 -1.85629E+03
  7.19713E+03  4.85285E+03  7.66081E+02  8.61563E+03 -6.39464E+03  5.40497E+03 -1.18953E+04  3.06764E+03
 -2.46921E+03 -5.19223E+03  6.07216E+02 -7.43458E+03 -2.74158E+03 -7.52393E+03  3.48663E+03  3.45212E+03
  3.47122E+02  6.35915E+02 -3.71012E+03  5.76899E+03 -6.74397E+03  1.86948E+03 -6.43661E+03 -3.98245E+02
 -1.46923E+03 -6.40917E+03 -3.26380E+03 -5.84388E+03  4.08353E+03 -1.57041E+02  4.42164E+03  1.10423E+03
  6.62399E+03  5.03395E+03 -1.49655E+03  5.73029E+03 -7.53551E+03  3.95446E+03 -7.03117E+03  5.28118E+02
 -9.88520E+03 -5.83251E+03  1.26611E+03 -6.01399E+03  2.40564E+03 -9.48975E+03  1.78419E+03 -3.38408E+03
  7.52167E+03  4.86373E+03 -8.01062E+02  2.34008E+02  4.46800E+03  3.48108E+03  1.51877E+02 -4.08237E+03
  5.85795E+03  1.67722E+02  8.35609E+03 -5.15554E+02  5.57080E+03  3.71674E+03  4.65576E+03  6.81571E+03
 -1.65630E+02  7.85872E+03 -9.65363E+03  7.81905E+03 -6.60359E+03 -1.03354E+02 -5.40707E+03 -2.58396E+03
 -3.54271E+03 -7.32966E+03 -3.32936E+03 -3.23605E+03  3.47375E+03  1.22250E+02  5.28085E+02  1.29098E+03
 -5.64639E+03 -5.09512E+03  4.20805E+03 -4.10625E+03  3.69622E+03  1.90542E+02 -2.58863E+02  2.74843E+03
  3.02206E+03  3.33591E+03  1.41965E+03  7.43905E+02  2.46690E+02  1.48432E+03 -1.52934E+03  2.94029E+03
 -6.63866E+03  3.32764E+02 -1.26828E+03 -2.87981E+03  5.42500E+02 -4.75055E+03  4.70609E+03 -6.34240E+03
  2.99106E+03 -4.67931E+03  4.90806E+03  4.30328E+03  1.35109E+03  4.96119E+03 -1.52801E+03  3.04496E+03
 -3.26561E+03  4.89338E+03 -5.67738E+03  4.30252E+03 -5.56589E+03  5.13442E+02 -4.45277E+03 -3.76854E+03
 -2.49134E+01 -2.04022E+03  1.50252E+03 -1.75230E+03 -4.76966E+03  3.72890E+03 -1.57019E+03 -1.70028E+03
 -5.61180E+02  8.78698E+02 -7.21217E+01 -3.64421E+03  1.48988E+03 -2.81880E+03  1.05925E+03 -2.30657E+03
  2.62099E+03  2.60469E+03  4.55449E+03  2.59312E+03 -8.88020E+02  3.22951E+03 -1.78240E+03  3.52246E+03
 -1.93445E+03  1.87325E+03  7.42235E+02 -4.13698E+03  2.45210E+03  1.31230E+02 -2.17604E+03 -4.01361E+03
  2.83350E+03 -4.66744E+03 -1.68119E+03 -3.31561E+03  1.13898E+03  4.51059E+03 -1.36214E+03 -2.99303E+02
  2.49205E+03 -1.29692E+03 -1.24105E+03 -4.01236E+03  4.55413E+02  2.37868E+02  3.33569E+03 -3.12228E+03
 -2.37021E+03  6.81253E+02 -2.17307E+03  5.43879E+03 -4.39205E+03  1.06229E+03 -5.76125E+03  5.85674E+02
 -1.10522E+03 -3.14494E+03 -5.04096E+02 -3.45638E+03  4.95587E+03 -1.27183E+03  4.04487E+03 -3.86120E+03
  2.08045E+03  1.50057E+03 -2.57364E+03  5.19021E+03  2.83128E+02  6.80020E+01 -4.55540E+03  7.54743E+02
  9.19134E+01  1.04446E+02  2.79367E+03 -2.26474E+02 -3.90599E+03 -2.64409E+03  7.03811E+02  1.26089E+02
 -2.38827E+03 -7.67418E+02  6.86548E+02  2.95414E+03  4.28076E+03  1.38719E+03 -1.87662E+03 -2.60496E+02
 -1.68173E+03  5.34447E+03 -1.23534E+03  1.71652E+01  6.54736E+03 -9.45141E+02 -3.44471E+03  4.58943E+03
  1.51690E+03 -5.85986E+02 -2.85678E+03  6.01636E+03 -7.34411E+01 -8.27992E+02  9.73037E+02 -1.26691E+03
 -1.72764E+03  2.01303E+03  3.09964E+03  6.81699E+02  9.42747E+02 -1.19669E+03 -4.99789E+03  1.73422E+03
 -5.26606E+03  1.27976E+03  2.97248E+03 -2.52013E+03  1.24757E+03 -1.37500E+03  4.71272E+03 -4.68958E+03
 -1.41025E+03  8.90801E+01 -4.07959E+01  7.45195E+02  3.05474E+03 -8.50426E+02  2.38868E+03  3.82043E+03
  3.45626E+03 -1.98607E+03  9.77576E+01 -3.81829E+03  7.74780E+02  2.52542E+03  2.24937E+03 -4.81327E+03
  1.79769E+03 -2.66528E+03  3.44713E+02 -1.95671E+03 -9.21852E+02  3.86019E+02  7.58118E+02 -2.78000E+03
 -1.42633E+03 -1.04004E+03 -6.63287E+01  2.09550E+03 -1.86907E+03 -2.05036E+03  5.58683E+02 -1.41949E+03
  4.42384E+02  7.67369E+02 -4.44582E+03  1.78096E+03 -8.08354E+02 -2.81099E+03  1.38639E+03  2.97286E+03
  1.57241E+03 -1.84770E+03  2.16065E+03 -4.95991E+02 -1.30542E+03  2.95237E+03  2.62711E+03  5.91489E+03
 -4.17733E+03 -1.61918E+03 -4.82043E+03  7.80847E+02 -2.43653E+03 -1.78279E+03 -1.45793E+03 -3.64843E+03
  6.46739E+02 -3.51383E+03 -2.85136E+03 -4.33002E+03 -8.16660E+02 -1.42467E+03  3.90652E+03  5.32732E+02
  6.79119E+02  5.65603E+02 -3.27085E+03  1.03601E+03  2.97061E+03 -3.94952E+02  2.22054E+03  3.48566E+03
 -3.86347E+03  6.02487E+03 -1.02075E+03  2.25491E+02 -2.62977E+03  2.79115E+03 -1.64843E+03  2.65365E+02
 -7.36732E+03  8.07304E-01 -2.20608E+03  1.73992E+03 -8.87548E+02 -1.85764E+03 -8.70688E+02 -3.34273E+03
 -1.47227E+03  1.45935E+03  1.16309E+03 -2.34000E+03  1.80593E+02 -4.12310E+03  4.11239E+03  2.43952E+03
 -2.64135E+03  2.07805E+03 -5.41287E+02  2.38783E+03  2.05412E+03 -7.54956E+02  5.00240E+02 -1.95675E+03
  3.92313E+03 -4.07327E+03 -1.33111E+03 -2.31203E+03  3.12867E+03 -4.18678E+02 -3.02902E+02  1.51598E+03
 -4.03542E+02  2.28856E+03 -1.37602E+03  1.72047E+03  1.30729E+03  2.90982E+02 -2.37712E+03  3.99181E+03
 -1.07201E+03 -2.85159E+03 -2.27700E+03 -6.53916E+02 -5.75540E+02 -3.23142E+01  3.39603E+03  1.10568E+03
  2.06223E+03 -8.01451E+02  2.47692E+03 -2.96711E+03  3.77889E+03 -2.17425E+03  1.60105E+03  2.96363E+03
  2.48413E+03 -5.31211E+02  7.56066E+02 -1.58630E+03  2.22772E+03 -3.12562E+03 -2.42419E+03  4.59946E+02
 -1.59422E+03 -1.29352E+03  6.24005E+02  2.48708E+03  6.28248E+02  1.36296E+02  1.19704E+03  7.43633E+02
 -1.15612E+03  5.29930E+03 -8.19411E+02  1.55349E+03 -2.01272E+03 -9.75222E+02 -1.07539E+03 -6.60296E+03
  1.79082E+03  2.51823E+03 -1.93613E+03 -1.27893E+03 -3.12356E+03 -1.45954E+03 -1.86870E+03  3.55742E+02
 -1.75159E+03  6.23488E+02 -2.76131E+03 -1.86841E+02 -1.82039E+03  7.92262E+02  2.18616E+02  7.78774E+02
