 $NMID ID='MM_0lb_SNR50_9hz_g45_74.RAW', FMTDAT='(8E13.5)'
 TRAMP=1., VOLUME=1. $END
  3.11429E+05 -5.60940E+03  3.41507E+05  2.56640E+05  8.28736E+04  3.40627E+05 -1.33086E+05  2.45991E+05
 -1.86618E+05  8.47204E+04 -1.10852E+05 -3.35479E+04  4.32959E+03 -5.30531E+04  5.48188E+04 -5.38722E+03
  3.62886E+04  4.78253E+04 -1.32363E+04  7.10798E+04 -5.77046E+04  6.91590E+04 -8.91762E+04  2.97688E+04
 -8.58470E+04 -1.41976E+04 -5.83991E+04 -5.11066E+04 -1.19640E+04 -7.54265E+04  2.76770E+04 -5.07521E+04
  4.19632E+04  1.12778E+04  1.61019E+04  4.70421E+04 -3.51463E+04  4.68506E+04 -6.76265E+04  3.92326E+03
 -5.53276E+04 -5.53565E+04 -7.80457E+03 -8.12291E+04  3.08868E+04 -6.02922E+04  5.10518E+04 -1.96617E+04
  5.10334E+04  1.28895E+04  4.08569E+04  2.23430E+04  1.54589E+04  2.71620E+04 -3.87097E+03  2.81192E+04
 -1.56271E+04  1.48613E+04 -1.78956E+04 -7.39576E+03  1.27034E+04 -2.07995E+03  2.43172E+04  1.25013E+04
  6.56910E+03  3.98408E+04 -3.19138E+04  3.83388E+04 -6.50297E+04 -1.80312E+03 -5.94769E+04 -4.67783E+04
 -1.60922E+04 -6.15707E+04  4.04659E+04 -4.64571E+04  6.59115E+04 -3.81494E+03  3.21033E+04  2.97578E+04
 -7.41389E+03  4.26327E+04 -3.56558E+04  1.80077E+04 -3.99537E+04 -3.25826E+03 -2.17357E+04 -9.51195E+03
 -1.08975E+04 -7.78205E+03  3.38644E+03 -2.33993E+04  8.64947E+03 -2.46452E+04  1.33305E+04 -1.50667E+04
  1.15384E+04  8.91316E+03 -1.70031E+04  1.21125E+04 -2.23430E+04 -1.15886E+04 -8.93679E+03 -3.94082E+04
  2.30379E+04 -4.75092E+04  5.04534E+04 -2.40946E+04  4.93777E+04  1.97129E+04  1.30431E+04  4.14264E+04
 -1.79166E+04  2.99111E+04 -2.87309E+04 -1.27944E+03 -1.03220E+04 -2.99227E+04  2.15995E+04 -3.29757E+04
  4.60880E+04 -1.31714E+04  3.87696E+04  2.70825E+04  2.43174E+04  4.41661E+04 -1.11289E+04  6.28851E+04
 -3.73932E+04  3.67706E+04 -4.75796E+04  5.67343E+03 -5.41930E+04 -1.62362E+04 -2.03746E+04 -4.01269E+04
  3.82804E+03 -4.12382E+04  3.63677E+04 -1.56994E+04  3.48149E+04  7.27231E+03  8.41358E+03  2.37167E+04
 -1.68942E+04  8.19099E+03 -1.44258E+04 -4.81701E+03  5.85360E+03 -1.23155E+04  1.56573E+04  2.86256E+02
  1.58546E+04  2.30363E+04 -6.32210E+03  3.04187E+04 -2.13570E+04  1.30675E+04 -2.93166E+04 -1.10037E+03
 -3.03019E+04 -1.67038E+04 -1.64790E+04 -1.72368E+04  3.29874E+03 -2.42343E+04  1.55630E+04 -2.42209E+04
  2.77363E+04 -1.25044E+04  3.88831E+04  9.01061E+03  1.83837E+04  2.33038E+04  1.53813E+01  4.08184E+04
 -1.80253E+04  3.28211E+04 -3.29001E+04  1.13092E+04 -2.51377E+04 -1.00812E+04 -1.97160E+03 -9.55776E+03
 -2.49077E+03 -8.21346E+02 -9.11786E+03  9.50611E+03 -2.37866E+04  8.73341E+03 -1.53157E+04 -1.05141E+04
 -1.27429E+04 -2.38697E+04  1.16597E+04 -2.83488E+04  1.83313E+04 -2.77996E+04  1.41606E+04 -6.62835E+03
  1.47795E+04  1.53694E+04 -2.59031E+03  1.58458E+04 -1.47103E+04  1.42458E+04 -2.18541E+04 -4.65453E+03
 -1.91285E+04 -1.98096E+04 -2.42331E+02 -2.64190E+04  1.32155E+04 -2.41209E+04  1.95371E+04 -1.66897E+04
  2.67825E+04 -9.82124E+02  1.91450E+04  9.20195E+03  6.43378E+03 -1.09448E+03  4.59804E+03 -9.38765E+03
  2.23449E+04  8.39004E+03  2.31911E+04  1.33618E+04  1.45671E+04  4.02987E+04  5.14620E+03  3.66076E+04
 -2.53837E+04  3.46907E+04 -4.06375E+04  1.30504E+04 -4.31920E+04 -2.63446E+03 -3.25188E+04 -2.68414E+04
 -1.30515E+04 -3.27651E+04  1.94150E+04 -3.16807E+04  3.11656E+04 -1.75712E+04  2.96847E+04  5.12828E+03
  9.70178E+03  1.77296E+04 -1.42249E+04  1.45439E+04 -1.66316E+04  6.14605E+03 -1.99157E+04 -1.01857E+04
  2.14641E+03 -2.15664E+04  9.19118E+03 -1.36936E+04  2.00806E+04 -2.31584E+03  1.28978E+03  6.01405E+03
 -6.20503E+03  9.52760E+03 -4.96312E+03  2.45571E+02 -1.56114E+03 -1.43775E+04  5.73745E+03 -1.71426E+04
  2.17354E+04 -1.49460E+04  2.66438E+04  2.81695E+03  1.84433E+04  2.07452E+04  1.05634E+04  3.27640E+04
 -4.33106E+03  2.87876E+04 -1.78158E+04  1.83948E+04 -1.94184E+04  1.02382E+03 -1.81486E+04 -2.75792E+03
 -9.73760E+03 -3.58391E+03 -1.84002E+02  1.71927E+03 -2.55807E+03 -2.46412E+03 -1.17881E+04  3.04453E+03
 -1.52529E+04 -3.14636E+02 -1.74514E+04 -9.24640E+03 -7.61806E+03 -1.83009E+04  6.19873E+03 -2.10217E+04
  1.25103E+04 -4.59526E+03  9.59756E+03  1.87658E+03  8.71626E+03  4.69286E+03 -1.61507E+04  1.94814E+03
 -7.32213E+03 -1.25643E+04 -3.62894E+03 -1.35511E+04  5.94405E+03 -2.06797E+04  2.21343E+04 -1.19548E+04
  1.85624E+04  2.85065E+03  1.77114E+04  1.81430E+04  5.67537E+03  2.19653E+04 -3.62228E+03  1.37973E+04
 -1.50860E+04  5.63832E+03 -9.43584E+03 -4.52775E+03 -1.58408E+02 -6.03312E+03  1.42214E+04 -4.75887E+03
  3.16563E+03  4.34512E+03  3.21468E+03  2.02636E+04 -9.67427E+03  1.09518E+04 -1.50089E+04 -4.63295E+02
 -1.35520E+04 -9.18757E+03  5.49100E+03 -1.89954E+04  7.25705E+03 -7.12980E+03  8.83543E+03  3.34237E+03
 -4.83769E+03  9.97831E+03 -3.48678E+03  7.68462E+03 -8.29504E+03  4.46722E+03 -1.22390E+04 -5.61912E+02
 -3.47097E+03 -1.60066E+04  9.89361E+03 -1.68795E+04  1.49070E+04 -9.38414E+03  1.68892E+04 -1.83669E+03
  9.80321E+03  1.50261E+04 -3.39875E+03  1.84275E+04 -1.36450E+04  5.23358E+03 -2.22264E+04 -2.36241E+02
 -2.04259E+04 -7.32218E+03 -1.09553E+03 -1.12162E+04  5.96470E+03 -1.01949E+04  1.15175E+04 -7.09578E+02
  6.01766E+03 -3.51833E+03  2.28199E+03 -7.52035E+02  1.39741E+03 -4.06927E+03  4.98769E+03 -1.56581E+04
  1.29299E+04 -1.13286E+04  1.32914E+04 -1.07019E+02  1.15178E+04  3.62461E+03  3.34532E+03  2.14065E+04
 -8.80771E+03  2.58708E+04 -2.43915E+04  1.76425E+04 -2.45769E+04  4.13506E+03 -1.50633E+04 -1.37344E+04
 -5.84771E+03 -1.02442E+04 -1.26220E+03 -1.56218E+04  4.32996E+03 -1.56061E+04  7.41240E+03 -1.00644E+04
  8.30296E+03 -8.17993E+02  5.03472E+03  1.42715E+03  8.57807E+03 -5.78830E+03  1.25494E+04 -8.98113E+02
  5.53023E+03 -4.30280E+00  5.99409E+03  9.62923E+03 -6.21668E+03  8.59271E+03 -1.04659E+04  6.33424E+03
 -2.20533E+04  2.31736E+02 -9.90570E+03 -6.92690E+03 -5.50288E+02 -1.78452E+04  3.22682E+03 -1.45219E+04
  1.21755E+04 -1.02399E+04  1.99971E+04  1.33862E+03  8.07207E+03  1.53840E+04  3.90375E+03  2.10310E+04
 -5.39373E+03  1.51254E+04 -7.14442E+03  2.91976E+03 -1.93184E+03  1.89050E+03  2.52060E+03 -1.96128E+03
  9.32373E+02 -6.87142E+03 -2.10222E+03 -1.88460E+03 -4.15853E+03  6.48379E+03 -1.46022E+04  4.10203E+02
 -8.06054E+03 -8.21429E+03 -2.22101E+03 -1.65947E+04  1.31867E+03 -1.67027E+04  1.09384E+04 -1.37984E+04
  1.20500E+04  5.98764E+03  8.29343E+03  1.26085E+04 -6.19016E+03  1.58409E+04 -5.28001E+03  9.93752E+03
 -1.22632E+04 -1.60324E+03 -6.74051E+03 -6.19599E+03 -4.98779E+03 -1.31743E+04  1.12761E+04 -1.31651E+04
  8.10093E+03 -1.38856E+03  3.17967E+03  1.07043E+03  7.18751E+03  4.39197E+02  1.14513E+03  6.92031E+03
  4.23276E+03  1.41811E+02  4.03412E+03  7.90823E+03 -2.08094E+03  8.80854E+03  4.92909E+03  6.42806E+03
 -4.86193E+03  1.87562E+04 -6.09565E+03  1.02402E+04 -1.41593E+04  7.44254E+03 -1.56030E+04 -5.79879E+03
 -4.11685E+03 -1.23304E+04  1.23339E+03 -1.37797E+04  1.05969E+04 -7.71564E+03  1.12311E+04  2.20306E+03
  1.25634E+04  4.17636E+03  1.64910E+03  7.26162E+03 -5.90165E+03  2.66846E+03 -9.38601E+03  2.39066E+03
 -1.53577E+03 -9.65983E+03  5.72457E+03 -5.39332E+03  4.28244E+03 -7.67160E+03  4.12869E+03  5.14439E+03
  2.89238E+03  3.22556E+03 -1.83922E+03 -3.24381E+03 -6.33972E+02  7.13310E+03  1.05806E+03  1.29877E+03
  1.31830E+03  3.83424E+03  1.18697E+04  6.88707E+03  4.63268E+03  1.12455E+04 -2.13302E+03  1.32055E+04
 -1.01494E+04  8.68877E+03 -7.00657E+03  1.56501E+03 -4.08438E+03 -1.20130E+03  1.50374E+03 -3.66351E+03
  9.91706E+02 -3.87481E+03  7.27613E+03 -5.59264E+03  2.40927E+03  2.20402E+03 -8.97006E+03  1.41380E+03
 -4.24839E+03  5.03190E+03 -4.32571E+03 -5.02945E+03 -4.83028E+03 -1.63669E+03  7.06426E+02 -6.19125E+01
  6.50761E+03 -1.62966E+03  8.66230E+03 -1.03282E+03  3.70881E+03  7.42075E+03  5.16205E+03  6.23504E+03
 -6.35254E+03 -2.12209E+03  9.16411E+02  5.53767E+03  3.74440E+03 -1.98538E+03  4.69624E+03 -3.99658E+03
  1.40519E+04  2.15173E+03  4.72535E+03  1.32731E+03 -1.59943E+02  1.24533E+04 -5.23042E+03  1.14776E+04
 -1.36982E+04  3.04569E+02 -9.33446E+03  9.33468E+02 -6.59711E+03 -8.68607E+03  7.31101E+03 -3.70874E+03
  1.04394E+04 -6.29734E+03  8.24633E+03  6.27217E+03  3.95576E+03  8.07548E+03 -4.71313E+03  2.94777E+03
 -4.06675E+02  6.96605E+02 -9.74353E+02  6.30816E+03  1.83921E+02  3.67640E+03 -5.76600E+03  1.12541E+02
 -2.50501E+03  2.70803E+02 -4.73252E+03 -1.34726E+03 -8.30684E+03  2.97375E+02 -1.06049E+04 -1.11357E+04
 -8.25825E+03 -1.22303E+04  2.89232E+03 -1.60068E+04  1.19897E+04 -1.57501E+04  1.49064E+04 -3.96632E+03
  8.01175E+03  2.75215E+02  8.57159E+02  1.17895E+04  4.81531E+03  1.07193E+04 -1.76086E+03  6.34059E+03
 -3.47754E+03  1.44364E+03 -4.74566E+03  5.78308E+02  2.06232E+03  5.74058E+02 -2.62197E+03 -1.03871E+03
 -2.22865E+03 -5.34872E+03 -7.03263E+03 -3.18716E+03 -1.86562E+03  4.66748E+02 -4.16839E+03 -4.88818E+03
  1.01808E+04 -3.99291E+03  8.29592E+03  2.52240E+03  6.31603E+03  8.13623E+03  7.09812E+03  1.16873E+04
 -6.13526E+03  7.74862E+03 -1.00001E+04  1.01198E+04 -1.52302E+04 -7.42157E+03 -9.38053E+03 -1.16331E+04
 -8.25496E+03 -1.37047E+04 -3.03355E+02 -7.62831E+03  1.07374E+04 -7.44098E+03  1.01182E+04 -1.04136E+03
  7.08388E+03  9.20695E+03  3.68364E+03  1.52563E+03 -4.30375E+03  2.72600E+03 -6.50470E+03  5.00828E+03
  2.50305E+02 -2.78731E+03  8.08066E+03 -9.02825E+02  5.05234E+03  4.34362E+03 -9.18309E+02 -4.96020E+02
 -4.08055E+03  1.39824E+04 -7.76724E+03 -1.35151E+03 -7.03755E+03 -4.16350E+03 -3.62209E+03 -1.18946E+04
  6.28606E+02 -3.94722E+03  8.71510E+03 -2.06639E+02  1.04826E+04  1.02109E+03  7.41841E+03  1.21392E+04
 -1.73389E+03  1.10820E+04  4.76913E+03  1.07257E+04 -7.84011E+03  5.50946E+03 -4.67701E+03 -2.51230E+03
  4.37122E+02  1.83872E+03 -4.91895E+03 -6.45481E+02 -6.31049E+03  7.57039E+03 -1.24117E+04  6.02929E+02
 -1.42863E+02 -3.83621E+03 -4.99612E+03 -1.07706E+04  4.95827E+03 -1.06212E+04  7.15610E+03 -6.26819E+03
  5.16622E+03 -4.02672E+03  8.54215E+03  4.97635E+03 -1.09615E+04  1.11834E+04 -1.29072E+04 -8.78427E+02
