 $NMID ID='MM_0lb_SNR50_16hz_g55_86.RAW', FMTDAT='(8E13.5)'
 TRAMP=1., VOLUME=1. $END
  3.06798E+05  3.74983E+03  3.38020E+05  2.48699E+05  8.13126E+04  3.38844E+05 -1.36530E+05  2.48704E+05
 -1.88750E+05  8.50848E+04 -1.07482E+05 -3.62301E+04 -2.83421E+03 -4.75757E+04  5.29125E+04  1.15910E+02
  3.81934E+04  5.43650E+04 -1.49197E+04  7.67411E+04 -6.27054E+04  6.02879E+04 -8.82467E+04  2.88482E+04
 -8.02289E+04 -1.09796E+04 -5.76109E+04 -5.12920E+04 -1.60942E+04 -7.11464E+04  2.79779E+04 -4.65869E+04
  4.07598E+04  3.78190E+03  1.70610E+04  4.77959E+04 -3.48813E+04  4.83365E+04 -6.93748E+04  1.87811E+03
 -5.25008E+04 -5.55484E+04 -2.67278E+03 -7.43413E+04  3.10254E+04 -5.30391E+04  4.20740E+04 -2.01786E+04
  4.26276E+04  1.64106E+04  3.21123E+04  2.32441E+04  1.40664E+04  3.28817E+04 -1.06605E+04  2.50856E+04
 -2.15643E+04  1.68169E+04 -1.98246E+04 -4.05574E+03  2.27414E+03 -1.26459E+04  2.23761E+04  1.38170E+04
  1.33037E+04  3.47453E+04 -3.22938E+04  3.86053E+04 -6.00089E+04  2.26603E+03 -5.57199E+04 -4.29247E+04
 -1.22193E+04 -6.76688E+04  4.17690E+04 -4.41238E+04  5.81906E+04  3.94686E+02  3.53759E+04  3.33448E+04
 -7.63138E+03  3.70686E+04 -2.77863E+04  1.76528E+04 -2.74540E+04 -6.59335E+03 -1.04537E+04 -1.17577E+04
 -8.71006E+03 -1.12642E+04  1.99488E+03 -2.08427E+04  7.72571E+03 -2.40190E+04  1.20354E+04 -1.08238E+04
  1.48343E+04  3.99017E+03 -4.16235E+03  1.35759E+04 -2.30834E+04 -6.05713E+02 -8.64841E+03 -3.51031E+04
  2.38363E+04 -4.47940E+04  4.86829E+04 -2.19415E+04  4.54903E+04  1.92434E+04  1.33525E+04  4.41513E+04
 -1.30757E+04  3.63181E+04 -2.77464E+04 -8.41842E+02 -8.38536E+03 -2.43920E+04  2.08290E+04 -3.36690E+04
  3.88569E+04 -6.93230E+03  3.76369E+04  2.36162E+04  1.91330E+04  5.01428E+04 -7.18909E+03  4.73370E+04
 -2.78642E+04  2.97298E+04 -4.13640E+04  1.40892E+04 -4.11980E+04 -1.11962E+04 -2.34322E+04 -3.92557E+04
  9.98555E+03 -3.60354E+04  2.95138E+04 -1.50496E+04  3.30123E+04  1.28824E+04  3.12555E+03  2.05781E+04
 -1.27516E+04  5.75252E+03 -1.13577E+04 -6.13100E+03  7.32262E+03 -1.03716E+04  1.97317E+04  2.16896E+03
  1.47937E+04  2.68038E+04 -6.00439E+03  2.31265E+04 -2.54139E+04  1.20871E+04 -2.66402E+04 -3.71492E+03
 -1.86665E+04 -2.06049E+04 -9.08110E+03 -1.67482E+04  3.29827E+03 -2.22202E+04  1.79532E+04 -1.77672E+04
  2.51882E+04 -1.01453E+04  2.77848E+04  3.85755E+03  2.53105E+04  1.87833E+04  3.27937E+03  3.69654E+04
 -1.26914E+04  2.96601E+04 -2.49518E+04  7.84184E+03 -1.75020E+04 -8.69056E+03 -4.68631E+03 -1.11121E+04
  3.55349E+03 -3.42809E+03 -4.57056E+03  6.40525E+03 -1.87185E+04  6.85100E+03 -1.68179E+04 -7.36559E+03
 -1.11682E+04 -2.21127E+04  1.57187E+03 -2.16567E+04  1.48317E+04 -1.61593E+04  1.71216E+04 -8.32457E+02
  8.81681E+03  1.71685E+04 -1.69641E+03  2.13333E+04 -1.16746E+04  5.78677E+03 -1.64927E+04 -4.64386E+03
 -1.68417E+04 -1.84246E+04 -1.19573E+03 -1.92918E+04  8.91559E+03 -1.78076E+04  2.19309E+04 -7.47499E+03
  1.78234E+04 -1.55906E+03  1.39258E+04  7.49681E+03  3.78441E+03 -3.81647E+03  9.34186E+03 -5.69581E+03
  1.59933E+04  2.99177E+03  1.67471E+04  1.35921E+04  1.11926E+04  3.03624E+04 -1.10206E+02  3.22081E+04
 -1.90506E+04  2.64336E+04 -2.97543E+04  1.72787E+04 -2.65028E+04 -1.08564E+03 -2.73872E+04 -2.07761E+04
 -8.89812E+03 -1.85268E+04  1.09389E+04 -2.30279E+04  1.93314E+04 -1.34746E+04  1.96278E+04  1.37007E+04
  6.88851E+03  1.28363E+04 -5.14439E+03  1.17080E+04 -1.23047E+04  3.69475E+03 -1.04142E+04 -9.34276E+03
  1.91591E+03 -1.73358E+04  7.78899E+03 -9.42219E+03  1.24774E+04 -1.17802E+02  2.84071E+03  7.92558E+03
 -7.36919E+03  1.22357E+03 -7.20919E+03 -3.95717E+03  4.15034E+02 -1.61011E+04  8.70395E+03 -1.67767E+04
  1.53811E+04 -8.98576E+03  1.66664E+04  3.01931E+03  1.72223E+04  1.05614E+04  6.59671E+03  1.80421E+04
 -2.90246E+03  2.28890E+04 -1.20941E+04  1.67462E+04 -1.45227E+04  1.77988E+02 -1.41418E+04 -3.20092E+03
 -7.71329E+03 -7.08201E+03 -3.33624E+03  1.64302E+03 -4.13111E+03  1.04984E+03 -7.02843E+03  3.65049E+03
 -8.86337E+03 -3.57143E+03 -9.98332E+03 -1.14905E+04 -8.16256E+03 -9.75084E+03  2.36269E+03 -9.93638E+03
  5.00494E+03 -2.39854E+03  8.82220E+03 -4.45814E+03 -1.01635E+03  4.85806E+03 -2.57984E+03 -4.05981E+03
 -3.20828E+03 -9.26722E+03 -2.51820E+03 -5.30116E+03  4.69558E+03 -1.02597E+04  1.00935E+04 -9.02193E+03
  1.41361E+04 -6.73476E+02  1.08378E+04  4.87854E+03  4.97342E+02  1.40718E+04 -7.04473E+03  1.39106E+04
 -8.26226E+03  3.66864E+03 -7.04475E+02 -4.05178E+03 -8.03105E+02 -1.30157E+03  4.80491E+03  8.19190E+02
  9.40753E+03  4.48213E+03 -3.52132E+02  1.07420E+04 -6.78702E+03  8.36058E+03 -8.58788E+03 -2.20385E+03
 -6.80967E+03 -3.99005E+03  3.66528E+02 -1.11744E+04  5.76407E+03 -5.72175E+03  7.00833E+03  7.61240E+02
  2.12989E+03  2.30422E+03 -7.23668E+03  9.21037E+03 -8.40238E+03  4.14358E+03 -4.09907E+03 -9.31749E+02
 -6.22685E+03 -4.34231E+03 -5.53285E+02 -9.35007E+03  2.23635E+03 -3.68705E+03  7.14386E+03  6.54798E+03
  8.87698E+03  7.76732E+03  2.23676E+03  1.10896E+04 -8.37950E+03  4.40570E+03 -2.23409E+03 -2.94173E+03
 -8.43345E+03 -9.41741E+03  8.61534E+02 -1.17522E+03  6.17913E+03 -6.48140E+03  7.76562E+03 -4.02957E+03
  1.26667E+03  1.69486E+03 -1.73588E+03  6.15670E+03  1.30714E+03 -6.61945E+03  1.87648E+03 -2.49452E+03
  6.48700E+03  2.48835E+03  1.50479E+04  4.98538E+03  7.16838E+03  6.07140E+03  6.53848E+03  7.39156E+03
 -3.04163E+03  1.34759E+04 -8.77502E+03  9.56865E+03 -1.60748E+04  3.39630E+03 -1.15446E+04 -5.26557E+02
 -7.18335E+03 -1.11542E+04  1.19889E+03 -7.57665E+03  7.88548E+03 -2.74141E+03  4.34505E+02 -9.45514E+02
 -3.06361E+03  1.24532E+03  4.60748E+03 -1.00156E+03  2.68988E+03  7.18373E+02  7.18337E+03  2.06894E+03
  1.09010E+04  2.03895E+02 -4.92500E+02  4.47108E+02 -4.40819E+03  1.76082E+03 -6.58683E+03  6.30116E+03
 -9.65948E+03 -8.73065E+02 -2.18659E+03 -5.00529E+03 -2.88252E+03 -5.99425E+03  5.44397E+03 -9.04350E+03
  5.31540E+03 -4.26748E+03  1.32259E+04  3.41211E+01  9.41807E+03  4.82433E+03 -1.56915E+03  7.87282E+03
  9.83317E+01  5.87403E+03 -7.42445E+03  2.71785E+03 -1.81357E+03 -1.18845E+03 -1.37524E+03 -4.26345E+03
  1.22146E+03 -1.35049E+02 -1.54180E+03 -2.64841E+03 -1.83432E+03  5.00461E+03 -1.00209E+04  2.57891E+03
 -4.97188E+03 -2.43687E+03 -1.91306E+03 -6.69362E+03  1.19933E+03 -5.86391E+03  7.97657E+03 -1.22938E+02
  4.09260E+03  5.65300E+03  2.63435E+03  9.15356E+03  2.61842E+02  5.07470E+03 -4.95396E+03  2.69224E+03
 -6.20288E+03  1.62151E+03 -5.99728E+03 -3.13825E+02 -2.41901E+03 -5.21564E+03  3.44002E+03 -2.28855E+03
  4.41713E+03  1.08400E+03  5.94854E+03  1.53949E+03 -1.52854E+03  2.65433E+03  8.59169E+02  8.97720E+02
  3.88188E+03 -1.35008E+03  3.25236E+03 -7.85261E+02  4.87079E+03  4.81604E+03 -2.20756E+03  4.96639E+03
 -2.77238E+03  8.10431E+02 -4.39500E+03 -1.14671E+02 -7.88812E+03  3.77434E+03 -5.88931E+03 -5.33393E+03
 -3.94339E+03 -6.54470E+03 -8.14928E+01 -1.05364E+04  2.52188E+03 -5.36489E+03  3.93652E+03 -2.27154E+03
  7.63608E+03  2.90377E+03  4.00765E+03  5.64729E+03  6.67871E+02 -8.22545E+02  9.49761E+02  2.12569E+03
  2.95139E+02 -2.80558E+03  4.98245E+03 -4.06523E+03  2.78453E+03  9.13532E+02 -2.34315E+03  1.24304E+03
  6.61308E+01  1.68177E+03  1.37319E+02 -4.34486E+02  2.63303E+03  8.12301E+02  1.63029E+03  5.82879E+02
 -6.65545E+02  5.88869E+03  6.74152E+03 -1.77497E+03  3.64263E+01  3.12193E+03  4.46251E+03  6.84638E+03
 -5.23284E+03  6.36010E+03 -3.00779E+03 -4.96500E+03 -2.56158E+03  1.02376E+03  3.80042E+03 -1.84559E+02
  3.35537E+02 -1.90816E+03 -1.92893E+02 -1.47593E+02  1.23727E+03  1.57562E+03 -5.31436E+03 -1.70424E+03
 -1.57768E+03  1.76503E+03 -2.38155E+03 -3.99864E+03  2.37491E+03 -3.98326E+03  3.58057E+03 -9.14559E+03
  3.15851E+03 -1.99143E+02  1.13017E+03  3.34487E+03  4.63918E+03  3.72572E+03  2.92337E+03  4.94497E+02
  1.29639E+03  1.53109E+03  1.40851E+03  1.64274E+02  1.28069E+03  8.03510E+02  2.92206E+03  3.10749E+03
  4.76866E+03 -2.54215E+03  5.49916E+03  4.48531E+03  8.56391E+02  2.27064E+03  3.73779E+02  1.88431E+03
 -6.13996E+03  9.08715E+02 -2.93427E+03 -2.52006E+03  6.95830E+02 -2.56726E+03 -8.42900E+02 -2.74312E+03
  2.64517E+03  1.35323E+03  1.83959E+03  4.39242E+03 -2.00497E+03 -1.54337E+03 -7.80416E+01  6.46901E+03
 -2.44287E+03  1.70115E+03  1.06532E+03 -2.45515E+03  4.96461E+03 -2.50930E+03 -1.49264E+03  3.80739E+02
 -2.11207E+03 -1.38283E+03 -4.17585E+03  2.38154E+03 -6.03209E+03  6.55046E+03  2.16674E+03 -3.70209E+03
  2.15808E+03 -4.07633E+03  4.45323E+03 -8.11398E+03  5.01914E+03 -6.15916E+03  2.16224E+03 -2.54620E+03
  3.70008E+03  4.57481E+03  1.69284E+03  9.54386E+02 -1.82726E+03  4.10047E+03 -1.92045E+03  2.65730E+03
 -3.91706E+03  1.81480E+03 -4.04024E+03 -6.44176E+02 -3.72111E+03 -3.38173E+03 -3.78612E+02 -1.30756E+03
  2.34447E+03 -5.42993E+01 -2.03961E+03 -6.23402E+03  2.43406E+02 -3.70775E+03  1.67107E+03  1.18297E+03
  4.24832E+03 -1.69705E+03  8.03737E+02 -4.42915E+03  1.15660E+03 -1.93628E+03  3.47415E+00  1.69080E+02
  2.17364E+03  4.80457E+03 -3.03316E+03  4.76860E+03 -4.59673E+03  2.22609E+03 -2.73048E+03 -3.57757E+03
 -5.77803E+03 -2.94111E+03  2.11226E+03 -5.18255E+03  3.98672E+03 -3.62323E+03 -4.01694E+03 -2.16153E+03
  4.38387E+03  8.58189E+01  3.28219E+03  3.70472E+02  3.11972E+03 -7.32506E+02 -2.41957E+02 -4.02857E+02
  5.53173E+03  2.16157E+01  2.41784E+03  2.52396E+03 -1.92448E+03  2.33324E+03  2.27203E+03 -9.84118E+02
 -2.95672E+02 -3.87577E+02 -1.73136E+02  8.74304E+03 -4.59299E+03  6.65863E+02 -1.13740E+03  1.76621E+01
  5.15512E+03 -2.03257E+02  7.14112E+03 -2.52415E+03 -1.29673E+03  4.09238E+03  2.52988E+02  4.13488E+03
  4.68392E+03  3.78149E+03 -2.40566E+02 -8.37833E+02  1.09080E+03 -5.33075E+02  5.18258E+02  1.69928E+03
 -2.02220E+03  4.52963E+03  1.33346E+03  4.42484E+02 -3.78950E+03 -2.80299E+03 -1.12773E+02 -4.98729E+03
 -1.97636E+01 -4.04265E+03 -1.87903E+03 -2.88508E+03 -2.27867E+03 -2.70861E+03  8.39266E+02 -1.17244E+02
 -1.28354E+03  5.43894E+03 -5.13870E+02  1.67612E+03 -4.90219E+03  4.56992E+03  2.61084E+02 -1.27730E+03
