 $NMID ID='MM_0lb_SNR50_10hz_g55_2.RAW', FMTDAT='(8E13.5)'
 TRAMP=1., VOLUME=1. $END
  3.08118E+05  1.02430E+04  3.41830E+05  2.49943E+05  8.46383E+04  3.38334E+05 -1.26445E+05  2.49305E+05
 -1.84490E+05  8.32460E+04 -1.13455E+05 -3.40574E+04 -6.14680E+03 -5.37797E+04  5.26465E+04  8.38380E+01
  3.45038E+04  5.66917E+04 -1.48992E+04  7.98353E+04 -6.10054E+04  6.53118E+04 -8.11252E+04  2.68006E+04
 -8.09922E+04 -7.62634E+03 -5.73960E+04 -5.31431E+04 -1.14779E+04 -7.66471E+04  2.94734E+04 -4.62790E+04
  4.21541E+04  1.10407E+04  1.23603E+04  4.51374E+04 -3.85327E+04  4.75541E+04 -6.39006E+04 -2.79978E+03
 -5.64294E+04 -5.26166E+04 -8.17561E+03 -7.37735E+04  3.18981E+04 -5.52198E+04  4.99862E+04 -1.63455E+04
  4.98719E+04  1.29511E+04  3.89892E+04  2.64714E+04  1.57202E+04  2.30045E+04 -1.19768E+04  2.38910E+04
 -2.02117E+04  7.89611E+03 -1.83754E+04 -6.16928E+03  5.09978E+03 -4.60171E+03  2.76707E+04  7.65145E+03
  1.22129E+04  3.79187E+04 -3.75930E+04  3.71296E+04 -6.05299E+04  4.41525E+03 -6.08499E+04 -3.80914E+04
 -1.56055E+04 -6.30444E+04  3.60690E+04 -4.66227E+04  5.76980E+04 -2.98565E+03  3.74830E+04  3.77997E+04
 -3.72377E+03  4.04990E+04 -3.68224E+04  1.81879E+04 -3.25564E+04 -5.52307E+03 -1.84624E+04 -1.67810E+04
 -7.65857E+03 -1.38927E+04 -5.13857E+02 -2.00409E+04  7.73284E+03 -2.24194E+04  1.97747E+04 -9.88021E+03
  9.84848E+03  5.97907E+03 -1.13590E+04  1.05452E+04 -2.76621E+04 -9.13841E+03 -1.15193E+04 -3.75493E+04
  2.87965E+04 -4.38214E+04  5.02496E+04 -2.02931E+04  4.93530E+04  2.01597E+04  1.86585E+04  5.22268E+04
 -2.45767E+04  3.91196E+04 -2.43012E+04  3.46451E+03 -1.73045E+04 -2.75999E+04  2.26873E+04 -3.57263E+04
  4.19105E+04 -8.09318E+03  4.13972E+04  2.67777E+04  2.16910E+04  5.26347E+04 -8.02373E+03  5.19826E+04
 -3.20129E+04  3.85014E+04 -4.57889E+04  1.57313E+04 -4.77022E+04 -1.69548E+04 -2.17139E+04 -4.59083E+04
  7.68164E+03 -3.80393E+04  3.30776E+04 -1.91538E+04  3.67143E+04  1.66066E+04  6.35322E+03  2.41588E+04
 -8.04087E+03  9.97657E+03 -1.06967E+04 -8.95438E+03  2.78867E+03 -9.96845E+03  1.31754E+04  5.85042E+03
  7.68855E+03  2.50106E+04  1.40610E+03  2.90141E+04 -2.91745E+04  1.14998E+04 -2.35000E+04 -6.78954E+03
 -2.32076E+04 -1.79912E+04 -7.44533E+03 -2.55141E+04  3.25121E+03 -2.37172E+04  2.27556E+04 -2.47256E+04
  3.19965E+04 -1.60768E+04  4.12056E+04  7.62307E+03  2.77022E+04  3.35556E+04  9.08347E+01  4.09522E+04
 -1.37419E+04  3.20945E+04 -2.66247E+04  1.18907E+04 -2.51535E+04 -1.00684E+04  3.65118E+03 -7.80387E+03
  3.51787E+03 -4.13909E+03 -2.68781E+03  4.67000E+03 -2.03637E+04  2.44972E+03 -1.94455E+04 -7.76265E+03
 -1.83955E+04 -2.44846E+04 -1.81244E+01 -2.91884E+04  1.60542E+04 -2.63421E+04  2.33905E+04 -1.36409E+03
  1.90557E+04  1.86932E+04  1.93177E+03  1.84851E+04 -1.83144E+04  1.13646E+04 -2.24807E+04 -4.79290E+03
 -8.33082E+03 -1.34983E+04  8.85577E+02 -2.32714E+04  9.79887E+03 -2.12181E+04  1.84788E+04 -1.34572E+04
  2.35433E+04 -4.51701E+03  9.99657E+03  2.82385E+03  9.16001E+03  3.65821E+03  1.08475E+04 -4.54908E+03
  1.32234E+04  4.68914E+03  2.56714E+04  1.72277E+04  1.88292E+04  3.37607E+04 -4.73555E+03  3.91867E+04
 -2.57017E+04  3.46330E+04 -4.32611E+04  1.54750E+04 -4.32525E+04 -7.93803E+03 -3.43825E+04 -2.41994E+04
 -1.30608E+04 -3.32581E+04  1.71359E+04 -2.94269E+04  2.45906E+04 -1.64140E+04  2.10320E+04  4.72499E+03
  7.51688E+03  1.36632E+04 -8.29370E+03  1.44613E+04 -1.53838E+04  2.28151E+03 -1.46661E+04 -1.35625E+04
 -1.15461E+03 -1.72453E+04  1.03936E+04 -8.74020E+03  1.54644E+04  2.81502E+03  2.59997E+03  6.07382E+03
 -7.53598E+03  5.23378E+03 -3.56003E+03 -7.02175E+03 -2.83347E+03 -1.56451E+04  9.33395E+03 -1.65921E+04
  1.92437E+04 -1.06942E+04  1.91505E+04  2.02333E+03  2.42899E+04  2.17356E+04  1.07529E+04  1.92146E+04
 -4.53899E+03  2.91996E+04 -2.15194E+04  2.23215E+04 -2.70213E+04  7.24683E+03 -1.45324E+04 -7.76076E+03
 -7.35099E+03 -9.29589E+03  1.15673E+03 -2.20216E+03 -1.34230E+04  1.01783E+04 -1.15136E+04  5.40472E+03
 -1.25038E+04 -8.09475E+03 -9.59964E+03 -2.35609E+03 -8.53415E+03 -1.63413E+04  1.03424E+04 -1.19014E+04
  1.11652E+04 -5.57922E+03  4.97259E+03  3.70296E+03 -1.36814E+03  6.60643E+03 -9.02830E+03 -4.24966E+02
 -3.13189E+03 -1.55109E+04 -1.26295E+03 -1.48792E+04  1.41424E+04 -1.39278E+04  1.68731E+04 -1.18241E+04
  2.48285E+04  3.77788E+03  1.61373E+04  1.59948E+04 -1.80715E+03  1.46745E+04 -1.21684E+04  1.35578E+04
 -9.91714E+03  8.26788E+03 -4.67193E+03 -1.51560E+03  6.25709E+03 -1.05241E+04  6.98554E+03 -3.10991E+03
  6.36397E+03  4.22869E+03  4.11958E+03  4.42932E+03 -7.44892E+03  1.60536E+04 -1.20570E+04  5.71902E+03
 -1.44300E+04 -1.19738E+04 -3.65596E+03 -8.07532E+03  8.77724E+03 -3.38209E+03  4.80243E+03 -3.55985E+03
 -9.93297E+02  1.19342E+04 -1.11796E+04  8.00020E+03 -7.19444E+03  9.06406E+03 -9.99929E+03 -4.83149E+03
 -5.59195E+03 -1.44424E+04  1.70881E+03 -1.57757E+04  1.27609E+04 -1.14911E+04  1.13384E+04  3.29655E+03
  9.76904E+03  5.91988E+03 -1.27683E+03  2.06605E+04 -9.80474E+03  2.70790E+03 -1.28519E+04 -3.36374E+03
 -8.15582E+03 -1.34967E+04 -2.34653E+03 -1.07229E+04  6.34368E+03 -6.98377E+03  1.25953E+04 -7.33726E+03
  7.24167E+03 -3.05392E+03 -1.04392E+03  4.50855E+03  3.60913E+03 -3.72970E+03  4.80200E+03 -5.63941E+03
  8.87343E+03 -5.64132E+03  8.50416E+03  3.96841E+03  1.09696E+04  1.39889E+04  7.26988E+03  2.06395E+04
 -9.63540E+03  1.95981E+04 -1.96584E+04  2.12626E+04 -2.08802E+04  2.92281E+03 -2.29318E+04 -1.10685E+04
 -1.18434E+04 -1.49375E+04  2.81743E+03 -1.19266E+04  4.66875E+03 -1.11180E+04  1.64051E+03 -8.45553E+03
  5.98374E+03  1.76611E+02  2.65939E+03 -2.90849E+03  2.75858E+03 -1.67438E+03  1.07835E+04  6.77909E+02
  7.31028E+03 -5.87870E+03  1.30548E+03  8.30210E+03  9.99866E+00  1.08860E+04 -1.15834E+04  7.90242E+03
 -1.27607E+04 -4.39009E+03 -6.98010E+03 -1.99306E+03  2.38212E+03 -1.39180E+04  1.37483E+04 -1.23248E+04
  1.20225E+04 -7.19675E+03  2.02135E+04 -1.32308E+03  1.02275E+04  1.63643E+04  4.80443E+03  9.86364E+03
 -6.98513E+03  1.40244E+04 -3.50847E+03  1.82885E+03 -7.41066E+03  6.70093E+02 -9.29483E+03 -5.87031E+03
 -1.60898E+03  8.47466E+01  9.67360E+02  4.56562E+03 -6.53099E+03 -5.92865E+01 -7.95353E+03 -5.65952E+03
 -9.35023E+03 -5.02269E+03 -2.41673E+03 -1.05167E+04  1.18548E+04 -1.81503E+04  1.54976E+04 -2.70244E+03
  1.17158E+04  4.48001E+03  1.05312E+04  1.16464E+04 -3.14446E+03  1.24713E+04 -8.26896E+03  2.51171E+03
 -1.33140E+04 -1.50955E+03 -6.62246E+03 -9.63760E+03 -3.21448E+03 -4.50636E+03  1.38200E+03 -8.09308E+03
  4.22396E+03 -3.72300E+03  9.53160E+03  3.59876E+03  3.58289E+03 -1.46692E+01  5.72438E+03  3.97123E+03
  5.07183E+03 -7.94614E+03 -1.56091E+02 -3.20908E+01  5.79133E+03  3.85166E+03  5.98221E+03  1.34098E+04
 -3.16433E+03  1.15937E+04 -1.37963E+04  8.79614E+03 -1.86581E+04  1.61296E+03 -1.74127E+04 -5.33360E+03
 -4.57763E+03 -1.48639E+04  2.88615E+03 -1.61419E+04  9.04237E+03 -5.47672E+03  1.29381E+04  2.25318E+02
  1.04883E+04  6.47012E+03  2.95235E+03  1.46730E+04 -7.89083E+03  8.62678E+03 -3.79148E+03 -1.77490E+03
 -1.35373E+03  3.06866E+03  3.72770E+03 -6.26359E+03  6.15933E+03 -4.96051E+03  4.23382E+03  1.02569E+03
  2.08298E+03  9.09893E+03  2.05105E+03  8.85522E+03  1.70517E+02  3.93052E+03  2.42215E+03  3.38440E+03
 -1.47200E+03 -4.71061E+03  1.44348E+03 -6.69950E+01  1.23307E+03  4.48960E+03 -4.31213E+03  1.05077E+04
 -4.53798E+03  6.13970E+03 -1.55454E+04  3.89302E+03 -1.33691E+04 -2.51040E+03  5.01201E+03 -4.05752E+03
 -6.81638E+02 -4.41176E+03  4.51640E+03 -1.96041E+03  1.06025E+03  9.46911E+03 -5.12552E+03 -2.74969E+03
 -3.74371E+03  4.06309E+03 -4.98077E+03  3.24898E+02 -5.30927E+03 -1.06911E+04  1.60791E+03 -7.60148E+03
  3.46469E+03 -2.27651E+03  5.60191E+03 -7.76936E+02  9.58193E+03  4.88738E+03  7.45377E+03  8.68358E+03
 -1.07012E+02  3.25748E+03 -1.98527E+03 -2.90069E+03  4.75003E+03 -3.06219E+03  8.64270E+03 -8.62500E+03
  1.03804E+04  1.14869E+03  1.30270E+04  5.85173E+03  2.38340E+03  1.32382E+04 -6.09886E+03  9.20648E+03
 -4.92445E+03 -7.27247E+02 -3.76730E+03 -3.69991E+03 -1.00806E+04 -9.15339E+03  1.91729E+03 -1.22811E+04
  8.39788E+03 -2.61999E+03  1.05413E+04  4.99793E+02 -2.11896E+03  3.57156E+03  5.38101E+03  8.61253E+03
  3.42178E+03  9.99399E+02 -6.62124E+03  6.99957E+02  4.49947E+03  7.38260E+02 -3.57420E+03  5.17817E+03
  3.64575E+01 -3.29065E+02  1.78707E+03  2.31815E+03 -8.61441E+03  2.54025E+03 -8.75301E+03 -1.63307E+03
  2.57760E+03 -5.13595E+03 -2.99558E+03 -1.83782E+04  1.18880E+04 -5.79622E+03  1.64332E+04 -1.06479E+04
  1.23377E+04  7.58180E+02  7.52193E+03  9.14791E+03 -6.37464E+01  8.22232E+03 -5.22536E+03  5.85169E+03
 -3.82746E+03  5.81732E+03 -1.33870E+03 -5.82535E+03 -2.90804E+03  1.24861E+03  2.11787E+03  1.26722E+03
 -8.94146E+02 -1.69012E+03 -6.82826E+02  4.49688E+03 -9.56797E+02 -3.08935E+03 -7.37786E+02 -5.00644E+03
  9.24028E+03 -1.00275E+03  9.38096E+03  5.51519E+03  3.15727E+03  9.11108E+03  4.95875E+03  9.21566E+03
 -2.23327E+03  1.10227E+04 -7.00309E+03  1.03020E+04 -1.20766E+04 -7.02876E+03 -3.95690E+03 -1.28902E+03
 -3.27271E+03 -1.21123E+04  7.68949E+03 -1.96761E+03  1.07393E+04 -6.04022E+03  1.05061E+04  1.02999E+03
  5.35511E+03  9.51906E+02 -7.34144E+03 -2.01570E+03  3.35079E+03 -7.97893E+03  3.42054E+02 -2.98317E+03
  4.80489E+03 -2.18745E+03  2.70862E+03 -1.00753E+03  5.19206E+03  5.07598E+03 -1.20293E+03  4.56475E+03
 -6.81174E+03  2.78857E+03 -6.72508E+03  1.73933E+03 -4.09541E+03 -4.98404E+03  1.52953E+02 -9.90333E+03
  1.94749E+03 -8.47659E+03  9.57064E+03 -3.47472E+03  7.17530E+03  3.70034E+03  4.79774E+03  6.26008E+03
 -1.39161E+03  7.57611E+03 -5.14025E+03  4.52336E+03  1.42728E+03  6.19687E+03 -1.48130E+03 -3.40242E+03
  4.46402E+03 -1.58459E+03 -3.76507E+02  3.74230E+03  2.92425E+03  6.91092E+02 -3.09063E+03  1.50300E+03
 -5.26557E+03 -6.51781E+03 -4.83484E+03 -9.06654E+03  4.70137E+03 -4.59248E+03  3.97092E+03 -2.86638E+03
  6.23022E+03  8.54647E+02  3.45522E+03  7.67828E+03 -4.67570E+02  7.67992E+03 -3.06662E+03  4.30369E+03
