 $NMID ID='MM_0lb_SNR50_17hz_g45_14.RAW', FMTDAT='(8E13.5)'
 TRAMP=1., VOLUME=1. $END
  3.11966E+05  4.49817E+03  3.34029E+05  2.52537E+05  8.88855E+04  3.34684E+05 -1.34474E+05  2.49172E+05
 -1.88469E+05  8.71738E+04 -1.11037E+05 -3.51070E+04 -2.16924E+03 -5.23833E+04  5.34984E+04 -1.82257E+03
  3.59867E+04  5.35586E+04 -1.95966E+04  7.83270E+04 -6.21489E+04  6.28359E+04 -8.48636E+04  3.27885E+04
 -8.13463E+04 -1.13877E+04 -5.09384E+04 -5.37776E+04 -1.32409E+04 -6.42720E+04  2.65707E+04 -4.53177E+04
  3.75985E+04 -1.37720E+03  1.88400E+04  5.09913E+04 -3.24726E+04  4.48158E+04 -6.73310E+04  8.11345E+02
 -5.07798E+04 -5.36770E+04 -6.78784E+03 -7.31272E+04  3.70019E+04 -4.78818E+04  4.62614E+04 -1.24738E+04
  3.96173E+04  1.03456E+04  3.11050E+04  2.39409E+04  1.57040E+04  2.80582E+04 -2.23167E+03  2.88134E+04
 -2.22998E+04  1.29041E+04 -2.14414E+04 -7.06007E+03  9.39110E+03 -1.00442E+04  2.06123E+04  7.73269E+03
  5.66799E+03  3.24645E+04 -3.10910E+04  3.11002E+04 -6.31171E+04 -8.28689E+01 -5.58484E+04 -4.14616E+04
 -1.15775E+04 -5.95047E+04  4.42170E+04 -4.83569E+04  5.60315E+04 -3.23734E+03  3.70728E+04  3.16939E+04
 -6.45626E+03  3.42405E+04 -2.73400E+04  1.71753E+04 -2.58324E+04 -2.20776E+03 -1.28067E+04 -8.38218E+03
 -7.66500E+03 -1.04440E+04  2.57088E+03 -1.82417E+04  4.42930E+03 -2.68515E+04  1.70773E+04 -1.39920E+04
  1.22383E+04  6.00016E+03 -6.22535E+03  1.22236E+04 -1.82915E+04 -1.36207E+03 -8.37425E+03 -3.18468E+04
  2.17291E+04 -3.70337E+04  4.60443E+04 -1.73212E+04  4.36351E+04  2.26269E+04  1.05908E+04  4.00840E+04
 -1.64661E+04  3.27380E+04 -2.57692E+04  3.53814E+03 -8.59600E+03 -3.12355E+04  2.37218E+04 -3.32956E+04
  3.61048E+04 -5.89466E+03  3.28210E+04  2.02296E+04  2.05629E+04  4.27064E+04 -7.47285E+03  5.09659E+04
 -2.78140E+04  2.93002E+04 -4.13185E+04  6.88387E+03 -4.19794E+04 -1.20806E+04 -2.28631E+04 -3.63414E+04
  8.76478E+03 -3.67810E+04  3.09657E+04 -1.34684E+04  2.65234E+04  1.12665E+04  3.60708E+03  2.04168E+04
 -1.86256E+04  6.86262E+03 -1.24296E+04 -1.03853E+04  8.85105E+03 -7.70007E+03  2.21205E+04  2.94366E+03
  1.25209E+04  2.07640E+04 -1.21499E+04  2.58175E+04 -2.42101E+04  7.98613E+03 -2.50697E+04 -7.99141E+03
 -1.56468E+04 -1.46571E+04 -8.61650E+03 -1.61137E+04 -6.32804E+02 -2.09547E+04  1.01731E+04 -1.68499E+04
  1.85392E+04 -1.49219E+04  2.99605E+04 -1.38406E+03  2.12929E+04  1.34636E+04  2.94853E+03  3.35153E+04
 -1.77049E+04  2.66315E+04 -3.02012E+04  1.09265E+04 -2.29356E+04 -1.29414E+04 -5.21727E+03 -1.40744E+04
  5.83262E+03 -6.04274E+03 -3.74187E+03  4.39564E+03 -1.65010E+04  7.13012E+03 -1.75285E+04 -7.70274E+03
 -1.18442E+04 -1.65056E+04  1.85370E+03 -2.18014E+04  1.84962E+04 -1.54642E+04  2.22867E+04 -2.23476E+03
  1.16175E+04  1.19127E+04  2.42503E+02  1.35239E+04 -1.09984E+04  1.11179E+04 -1.51567E+04 -4.15217E+03
 -1.18374E+04 -1.15894E+04 -2.42935E+02 -2.13870E+04  7.37204E+03 -2.09028E+04  1.92352E+04 -1.06837E+04
  1.73345E+04  6.51505E+03  1.20946E+04  7.97360E+03  5.18805E+03  5.51739E+03  8.86636E+03 -3.90172E+03
  1.43558E+04  2.70171E+03  1.79382E+04  1.07656E+04  8.74181E+03  2.58945E+04 -1.09265E+02  2.84291E+04
 -1.87994E+04  2.28298E+04 -2.32788E+04  7.86082E+03 -3.31405E+04 -3.07442E+03 -2.04434E+04 -1.32189E+04
 -7.31850E+03 -2.07304E+04  2.91755E+03 -2.15122E+04  1.82187E+04 -6.88062E+03  1.67377E+04  5.84136E+03
  8.17547E+03  1.28715E+04 -7.87137E+03  1.06614E+04 -1.35174E+04  1.52231E+03 -9.45255E+03 -8.12537E+03
  3.56893E+03 -1.39244E+04  6.44877E+03 -1.10335E+04  9.47505E+03 -1.08649E+03  1.51468E+03  1.72203E+03
 -9.10874E+03  3.09033E+03 -3.47456E+03 -4.58629E+03  9.07869E+02 -9.28055E+03  1.10424E+04 -1.27146E+04
  1.22460E+04 -5.03764E+03  1.70884E+04  7.00681E+03  1.01174E+04  8.17642E+03  3.36184E+03  1.10638E+04
  2.25065E+03  1.58937E+04 -9.43933E+03  7.10106E+03 -1.43208E+04  6.02389E+03 -1.04133E+04 -2.99054E+03
 -6.40621E+03 -9.57597E+02 -3.70352E+03  2.39895E+03 -2.79307E+03  4.63148E+03 -5.94510E+03  4.68737E+03
 -7.41042E+03  2.60249E+03 -8.19042E+03 -3.78635E+02 -6.26715E+03 -1.17174E+04  4.99358E+03 -1.12154E+04
  5.51503E+03 -1.42975E+03  5.93795E+03  3.16933E+03 -1.09853E+03  1.32112E+03 -5.32507E+03  1.25477E+03
 -3.98480E+03 -7.95711E+03 -1.54014E+03 -9.41387E+03  3.88698E+03 -1.22067E+04  1.07664E+04 -4.79001E+03
  1.22979E+04  4.13951E+03  1.07464E+04  8.75278E+03  2.16655E+03  8.24280E+03 -1.08026E+04  6.92136E+03
 -1.01062E+04 -6.18261E+01 -1.02299E+03  5.48646E+02  5.76400E+03 -1.00926E+03  6.86588E+03 -1.59090E+03
  5.38443E+03  2.62974E+03  2.07217E+03  8.01925E+03 -3.68334E+03  7.10020E+03 -7.13391E+03  4.06070E+03
  6.11333E+02 -2.82196E+03  3.53716E+02 -7.25867E+03  4.79468E+03 -3.06145E+03  3.53498E+03 -1.34955E+03
  8.40218E+02  1.76173E+03 -7.21076E+03  4.91651E+03 -1.00296E+04  3.38136E+03 -3.25194E+03 -3.20786E+03
 -5.12484E+03 -9.31427E+03  2.86456E+03 -8.80753E+03  5.52582E+03 -4.41951E+03  4.25379E+03 -1.86439E+02
  6.16515E+03  1.60777E+03 -7.60808E+01  1.04057E+04 -7.43915E+03  4.61935E+02 -7.01506E+03 -3.02327E+03
 -7.14468E+03 -5.09706E+02  4.33772E+03 -2.37962E+03 -5.05156E+02 -4.41552E+03  8.80021E+02 -1.04958E+03
  6.23843E+03  1.88845E+03 -2.93652E+03  6.70167E+03  6.77212E+01 -2.15339E+03 -2.90385E+03 -7.24621E+03
  4.29843E+03 -3.04087E+03  5.63143E+03  8.71136E+02  3.27795E+03  1.93334E+03  5.56984E+03  1.03807E+04
 -2.14944E+03  1.11599E+04 -1.07677E+04  5.93237E+03 -1.27557E+04  4.28356E+03 -4.01444E+03  8.30472E+02
 -1.23724E+03 -7.77257E+03 -9.81975E+02 -3.46237E+03  3.37845E+03 -2.91709E+03 -3.15963E+03 -3.92153E+03
  3.06374E+03 -5.43840E+03  3.98001E+03  2.05830E+03  4.69867E+03  1.03084E+02  2.45937E+03  2.96207E+02
  3.16590E+03  3.64058E+02  7.57208E+03  4.49928E+03  4.83375E+02  5.68009E+03 -1.45360E+03  4.54987E+03
 -4.17798E+03 -1.32267E+03  3.41913E+03 -1.20937E+03  2.05544E+02 -1.00733E+04  1.15834E+03 -6.00096E+03
  7.01601E+03 -4.97182E+03  9.86122E+03 -8.15687E+01  3.42937E+03  4.74873E+03  1.13247E+03  1.37776E+04
 -1.28046E+03  2.43101E+03 -4.96226E+03  4.83330E+03  3.02992E+03 -2.35171E+03  4.70004E+01 -5.17004E+02
 -3.35902E+03 -1.32225E+03  4.97668E+03  2.49268E+03 -5.66474E+03  2.77240E+03 -9.31205E+03  1.12441E+03
 -1.45878E+03 -1.12594E+04  1.53513E+03 -5.15462E+03  4.07575E+03 -3.71531E+03  2.79777E+03  6.57502E+02
  2.24265E+03  1.49852E+03  3.82417E+03  1.88588E+03 -1.18896E+03  6.30766E+03  7.47032E+02  2.35416E+03
 -7.12424E+03  2.45364E+03 -8.11557E+03 -3.05546E+03  1.19973E+03 -5.74106E+03  9.67450E+02 -2.23214E+03
  7.51924E+03 -1.33562E+02  2.31899E+03 -2.55924E+03  1.45616E+03 -2.02965E+03 -7.92243E+02  2.25087E+02
  1.97539E+03  4.45128E+03  7.42077E+03  4.65936E+03  2.59444E+02  6.86195E+03  5.65584E+03  1.60664E+03
 -5.81020E+03  5.89425E+03 -2.31376E+03  1.30931E+03 -2.34952E+03 -2.54164E+03 -7.40747E+03 -2.10046E+03
  3.96831E+03 -4.65224E+03 -2.25486E+03 -7.63429E+03  2.81172E+03 -2.06661E+03  7.22717E+03 -2.30619E+03
  2.20749E+03  2.32540E+03 -4.04451E+02  5.34387E+02 -2.54116E+02 -3.53511E+03 -3.21351E+03  4.15159E+02
 -1.24035E+03 -3.12364E+03 -9.14923E+02 -1.74807E+03 -1.52853E+03 -1.80926E+03  5.25981E+02  2.90734E+02
  6.38115E+02 -1.58203E+03  1.27909E+03  3.32782E+03 -3.24426E+03  5.95591E+03  4.86469E+03 -3.71714E+03
 -1.08821E+03  1.66227E+03  1.37597E+03  4.81127E+03 -2.83446E+01  1.89812E+03 -8.46418E+02  4.45170E+03
 -2.12920E+03 -8.88946E+02 -7.53483E+01  9.78180E+02 -4.99305E+03 -4.21376E+03  1.84953E+03  2.78315E+03
 -1.48033E+03  2.42668E+02  8.69137E+02  1.93194E+03 -4.25123E+03  3.64880E+02  4.20414E+03  1.82482E+03
 -3.14885E+03 -1.23642E+02  2.26910E+03 -2.35186E+03  4.83688E+03 -3.18380E+03 -3.48036E+03 -2.46879E+03
  1.03729E+02 -7.09982E+02  8.40660E+03  3.37748E+03 -3.77099E+02 -3.76711E+01  1.39580E+03  3.16692E+03
 -1.47125E+03  2.23842E+03 -2.22850E+03 -4.16120E+03  4.19524E+02  7.50759E+02  1.84922E+03 -8.31163E+02
  2.05839E+03 -2.69524E+03  2.03629E+03  3.67325E+03  2.18018E+03  4.57145E+03 -2.44835E+03  3.18354E+03
  1.55209E+03  3.34870E+02  1.44790E+03  1.52244E+02 -2.54600E+03 -1.85708E+03 -4.30839E+03 -2.72900E+03
 -9.10475E+02 -2.62307E+03 -3.99367E+03 -4.56992E+02  2.38229E+03 -1.57136E+03  8.10895E+02 -2.39318E+03
  7.61495E+02  2.29908E+03  1.28247E+03 -1.55539E+03  2.05055E+02 -1.54961E+03 -3.98251E+03  1.66218E+02
  3.32773E+03  2.15836E+03 -4.29020E+03  9.50623E+02 -1.75114E+03  3.73837E+02 -1.79799E+03 -3.77613E+03
 -1.62511E+03 -5.04468E+03  1.00747E+03 -7.73970E+03  2.53967E+03 -6.80383E+02  4.48809E+03 -2.27592E+03
  1.89909E+03  4.08307E+03  6.34942E+02  1.91591E+03  1.32354E+03  1.22753E+03 -7.31838E+02  2.05715E+03
 -1.06152E+03  2.76813E+03 -1.52411E+03  2.24915E+03  3.65691E+02  4.57942E+01  4.45590E+03 -1.47138E+03
  2.56973E+03 -1.07840E+03 -1.98987E+02  2.30252E+03 -2.20557E+03 -2.06793E+03 -2.01749E+03  4.34552E+02
  1.70263E+03 -9.79217E+02  3.28085E+03  2.75876E+03  2.38835E+03  3.08161E+03  2.98530E+03 -1.22427E+03
 -2.41829E+03  1.49623E+02 -4.84272E+03  2.38763E+03  1.24981E+03 -2.94532E+01 -4.33294E+03 -1.03369E+03
 -4.79966E+03 -1.78966E+03  2.38405E+03 -5.74998E+02  1.20098E+03 -6.67842E+02  8.32445E+02  1.82695E+03
  3.81072E+03  3.01377E+03 -4.30019E+03 -3.89413E+02 -2.62417E+03 -1.19142E+03 -3.93199E+03 -2.84711E+02
  1.81900E+03 -1.78308E+03  2.03573E+03  1.73233E+03 -7.30902E+03 -4.95290E+03 -3.51908E+03 -2.18274E+03
 -9.16214E+02  1.04439E+03  1.00121E+03 -2.22302E+03  1.73997E+03 -2.57925E+03 -9.27413E+02  8.80681E+02
  8.80406E+02  3.12098E+03 -2.57508E+03 -3.08623E+02  1.89715E+03 -3.62479E+03  5.12402E+03  2.20118E+02
  4.59961E+03  2.76539E+03 -4.80901E+03  3.34713E+03 -3.65983E+03 -1.38861E+03 -1.89259E+02 -3.04902E+03
  1.07321E+03  1.43805E+03 -1.59627E+03  9.91144E+02 -3.58355E+03 -9.95905E+02 -1.95542E+03 -1.76107E+03
 -2.95540E+03 -2.41916E+03  6.10071E+02  1.91453E+03 -9.81480E+02 -1.40249E+03  7.86034E+01 -2.35722E+02
  5.71966E+03 -1.19214E+03 -4.40487E+02  1.26199E+03  2.67620E+03 -4.11603E+02 -2.33963E+03 -3.14544E+02
