 $NMID ID='MM_0lb_SNR50_8hz_g60_7.RAW', FMTDAT='(8E13.5)'
 TRAMP=1., VOLUME=1. $END
  3.04477E+05 -1.58456E+03  3.43756E+05  2.47335E+05  8.91675E+04  3.38353E+05 -1.31420E+05  2.52945E+05
 -1.88893E+05  8.49676E+04 -1.10673E+05 -2.58893E+04  1.11481E+03 -4.59147E+04  5.61450E+04  3.03682E+03
  3.36597E+04  4.80752E+04 -1.31598E+04  7.14792E+04 -6.14045E+04  6.67425E+04 -8.97266E+04  3.19769E+04
 -8.55518E+04 -9.87918E+03 -5.91282E+04 -5.35208E+04 -1.74246E+04 -7.19175E+04  2.96100E+04 -5.25345E+04
  4.38833E+04  8.82270E+02  1.68227E+04  4.51644E+04 -3.39410E+04  4.39292E+04 -6.97130E+04 -5.25228E+02
 -5.75445E+04 -5.40463E+04 -5.66920E+03 -8.38516E+04  4.10793E+04 -5.80245E+04  5.15017E+04 -2.07141E+04
  4.10741E+04  1.43742E+04  3.57973E+04  3.28686E+04  1.17324E+04  2.76051E+04 -2.70083E+03  2.54278E+04
 -1.99281E+04  1.05591E+04 -1.64508E+04 -8.17365E+03  1.11460E+03 -6.94896E+03  2.85624E+04  1.45970E+04
  2.23243E+03  3.80406E+04 -3.63993E+04  3.84037E+04 -6.69789E+04 -6.81921E+02 -6.24268E+04 -4.37699E+04
 -1.67213E+04 -7.58104E+04  3.64153E+04 -4.91016E+04  5.77458E+04 -3.29501E+03  3.40518E+04  3.73875E+04
 -9.79981E+03  4.02774E+04 -3.39020E+04  1.73575E+04 -3.17580E+04 -6.25773E+03 -1.72447E+04 -8.35851E+03
 -4.74773E+03 -1.65325E+04  8.01550E+03 -2.44568E+04  1.39436E+04 -2.38391E+04  9.21170E+03 -8.18541E+03
  5.98734E+03  1.42991E+04 -7.41898E+03  1.59331E+04 -2.72782E+04 -8.43943E+03 -5.68638E+03 -3.47883E+04
  2.00623E+04 -4.93527E+04  5.22136E+04 -2.30793E+04  5.43399E+04  2.74342E+04  2.02805E+04  4.45893E+04
 -1.88407E+04  4.59864E+04 -2.95505E+04  3.49482E+03 -1.68413E+04 -3.22979E+04  2.13150E+04 -3.61026E+04
  4.21860E+04 -1.34482E+04  4.20777E+04  1.95141E+04  3.28809E+04  6.28137E+04 -9.21827E+03  6.26278E+04
 -3.55431E+04  3.93160E+04 -5.45065E+04  1.06457E+04 -5.32198E+04 -2.54237E+04 -2.64743E+04 -4.40223E+04
  7.45994E+03 -4.56251E+04  3.84550E+04 -1.68394E+04  3.17291E+04  7.82534E+03  1.17005E+04  2.29600E+04
 -1.41254E+04  5.30960E+03 -1.22928E+04 -1.14780E+04  4.91695E+03 -6.82925E+03  1.89448E+04 -1.51554E+03
  1.62666E+04  2.24940E+04  2.06784E+02  2.85184E+04 -1.97570E+04  8.49728E+03 -3.06386E+04 -6.51829E+03
 -2.17330E+04 -1.93991E+04 -1.77390E+04 -2.36323E+04  7.54710E+03 -2.52899E+04  2.47426E+04 -2.34710E+04
  2.84875E+04 -1.85166E+04  4.09687E+04  4.87289E+03  2.65643E+04  2.76681E+04  9.05794E+03  4.70969E+04
 -1.43879E+04  3.45098E+04 -3.53163E+04  1.81533E+04 -2.69610E+04 -3.22689E+03 -4.63766E+03 -1.42093E+04
 -7.83234E+03  3.08876E+03 -5.22133E+03  1.19439E+04 -2.14272E+04  3.81449E+02 -2.45592E+04 -1.51465E+04
 -1.40984E+04 -2.54390E+04  4.79472E+03 -3.47803E+04  2.55389E+04 -1.89890E+04  2.30805E+04  3.24993E+03
  1.71189E+04  1.57843E+04  1.03846E+04  2.30847E+04 -1.97045E+04  1.57471E+04 -2.31861E+04 -6.92895E+03
 -1.92646E+04 -2.07438E+04 -3.19524E+03 -3.42590E+04  1.14023E+04 -2.95916E+04  2.62357E+04 -1.46131E+04
  2.41857E+04  8.95443E+02  2.50772E+04  7.89039E+03  1.87991E+04 -3.80168E+03  1.70382E+04 -5.18532E+03
  2.88530E+04  3.31476E+03  2.62633E+04  1.89633E+04  1.79992E+04  4.19435E+04  1.37722E+03  5.30036E+04
 -2.55393E+04  4.11723E+04 -4.52796E+04  2.18968E+04 -5.23831E+04 -7.37999E+02 -3.95283E+04 -3.62897E+04
 -1.43128E+04 -4.31302E+04  1.61736E+04 -4.02310E+04  3.11255E+04 -1.48937E+04  2.97775E+04  5.13417E+03
  5.20004E+03  1.95005E+04 -1.10121E+04  2.18228E+04 -2.60531E+04  1.68917E+03 -1.35629E+04 -1.30035E+04
  2.74734E+03 -1.49047E+04  4.83002E+03 -1.68949E+04  8.24929E+03  5.02177E+03  6.57543E+03  9.03525E+03
 -1.58811E+04  4.34636E+03 -1.75964E+04 -9.56177E+03 -2.35028E+03 -1.44028E+04  1.27145E+04 -2.37897E+04
  2.63317E+04 -5.14708E+03  2.99742E+04  2.41689E+03  3.04286E+04  1.98666E+04  8.01809E+03  3.04908E+04
 -1.62147E+03  3.36644E+04 -3.08389E+04  2.68810E+04 -2.23329E+04  8.71732E+03 -2.06085E+04 -5.76137E+03
 -1.35559E+04 -7.43730E+03 -2.29800E+03 -1.29782E+03 -3.45627E+03  3.73390E+02 -8.34325E+03  1.08253E+04
 -2.36454E+04 -1.10703E+03 -1.67466E+04 -1.11753E+04 -1.26110E+04 -2.22550E+04  8.36929E+03 -2.11411E+04
  1.14091E+04 -4.41349E+03  1.07849E+04  1.12501E+04 -3.15139E+03  1.20226E+04 -1.26095E+04  1.61238E+03
 -5.45423E+03 -7.53856E+03 -7.51730E+03 -1.43130E+04  8.52323E+03 -2.17283E+04  2.49547E+04 -5.35929E+03
  1.89204E+04  3.58430E+03  2.13465E+04  2.07778E+04  6.02202E+03  2.25722E+04 -4.24230E+03  1.50804E+04
 -1.27548E+04  1.03585E+04 -6.11742E+03 -1.82908E+03  5.35445E+02 -9.58283E+03  1.47045E+04 -7.09059E+03
  7.95345E+03  7.33157E+03 -4.25547E+03  1.19076E+04 -1.26488E+04  6.31711E+03 -1.97318E+04  1.69034E+03
 -1.52909E+04 -9.88244E+03 -1.53270E+03 -2.11251E+04  1.11995E+04 -1.64679E+03  1.66080E+04  1.25499E+04
  6.44868E+03  1.74349E+04 -1.20199E+04  1.68870E+04 -9.62519E+03  4.66229E+03 -9.16534E+03 -1.03751E+03
 -1.19087E+04 -2.26030E+04  5.51601E+03 -1.85785E+04  1.91391E+04 -1.18593E+04  2.48036E+04  4.03384E+03
  1.21947E+04  9.00573E+03 -5.03917E+03  1.01279E+04 -1.18426E+04  9.70824E+03 -1.43310E+04 -2.57223E+03
 -9.74999E+03 -9.71339E+03 -2.51467E+03 -1.86336E+04  6.94017E+03 -7.44276E+03  4.64090E+03 -6.40737E+03
  1.17900E+04  7.06450E+03  2.35485E+03  3.63236E+03 -7.77548E+03 -8.25183E+03  2.25347E+03 -1.01852E+04
  2.01994E+04 -5.92673E+03  1.94753E+04  6.87169E+03  2.51558E+04  1.41169E+04  1.73166E+04  1.53436E+04
 -5.20006E+03  2.43709E+04 -2.43331E+04  1.89189E+04 -2.64855E+04  1.26898E+04 -2.64045E+04 -9.22395E+03
 -1.45153E+04 -2.40506E+04  3.84240E+03 -1.97431E+04  2.42704E+03 -8.49400E+03  6.20491E+03 -1.29356E+04
  4.09227E+03 -1.67038E+03 -1.23926E+03 -6.46502E+03 -1.15784E+03 -7.72168E+02  1.23042E+04 -6.75376E+03
  1.64489E+04  6.16819E+03  8.73587E+03  8.86717E+03  5.01560E+02  1.83754E+04 -1.20132E+04  1.10220E+04
 -1.72889E+04  8.40172E+02 -1.19067E+04 -1.17811E+04  6.33472E+02 -1.62684E+04  7.18043E+03 -1.73145E+04
  1.74555E+04 -1.24693E+04  2.61766E+04  1.11347E+04  1.66998E+04  1.34966E+04  8.26916E+03  1.81305E+04
 -1.14268E+04  1.93438E+04 -9.84418E+03  5.95812E+03 -7.18910E+03 -9.91117E+03 -4.50601E+03 -5.19011E+03
 -2.00336E+02  4.22833E+03 -6.80460E+03 -4.03370E+03 -8.46053E+03  4.13642E+03 -2.19024E+04  4.66949E+02
 -1.05489E+04 -1.04180E+04  7.19809E+02 -1.80868E+04  7.08403E+03 -1.43855E+04  1.91903E+04 -2.41486E+03
  1.87072E+04  8.95786E+03  2.32725E+03  1.42793E+04 -6.20656E+03  1.94765E+04 -2.29498E+04  4.99135E+03
 -1.53224E+04 -6.12480E+02 -1.66152E+04 -9.41436E+03 -2.68254E+03 -1.43426E+04  1.41620E+04 -1.55425E+04
  1.01478E+04 -7.67273E+02  5.46732E+03  5.75340E+03  6.68183E+03  7.28415E+03  2.29180E+03 -3.23487E+03
  4.20759E+03 -6.96000E+02  5.07978E+03 -2.64885E+03  4.04598E+03 -9.20985E+02 -9.70246E+02  8.76842E+03
 -6.28722E+03  1.03499E+04 -2.33178E+04  1.45550E+04 -7.86621E+03  7.65981E+03 -2.36400E+04 -4.32520E+03
 -5.48792E+03 -1.66056E+04  2.09979E+03 -1.77049E+04  1.77607E+04 -1.88378E+04  5.62365E+03 -3.02216E+03
  9.62756E+03  7.90976E+03 -6.96959E+02  9.95601E+03 -2.27361E+03  4.10502E+03 -8.11223E+03 -6.70731E+03
 -4.34602E+03 -8.27502E+03  6.13078E+03 -9.54482E+03  6.04004E+03 -8.38425E+03  6.37558E+03 -1.87206E+03
  5.64522E+03  2.65671E+03 -1.57448E+03  5.32427E+03 -2.88145E+03  9.92072E+03  4.75098E+03  6.32635E+02
  1.45023E+04  1.96923E+03  7.55726E+03  8.72548E+03  8.57260E+03  1.11015E+04 -4.03019E+03  1.20867E+04
 -1.33627E+04  1.14419E+04 -1.33171E+04  5.28576E+02 -9.29127E+03 -2.66239E+03 -8.62463E+02 -4.39010E+03
  4.76368E+03 -9.81858E+03  5.14750E+03 -5.93112E+02  8.46176E+03  4.73745E+03 -4.92686E+03  4.67580E+03
 -9.57389E+03  8.57675E+03 -9.45670E+03 -1.11829E+03 -1.38191E+03 -7.42270E+03  3.20027E+03 -1.00046E+04
  6.77826E+03 -1.14881E+04  9.11503E+03  4.01031E+03  3.43877E+03  6.34893E+03  1.82038E+03  5.45643E+03
 -6.44785E+03  1.54307E+03 -6.05303E+03 -5.72744E+02 -3.86686E+02 -8.52159E+03  9.90522E+03 -9.95583E+03
  7.55036E+03  1.20901E+03  9.57036E+03  9.27973E+03  5.46877E+03  1.67927E+04 -1.66965E+03  1.61021E+04
 -4.05961E+03  1.25603E+04 -6.27894E+03 -5.19985E+03 -5.74457E+01 -1.21202E+04  4.29827E+03 -9.02784E+03
  8.99888E+03 -2.30658E+03 -1.40142E+03  6.56200E+03  5.50100E+03  8.75454E+03  5.43839E+03  2.78417E+03
 -8.76333E+02 -9.11016E+02 -6.01823E+03  4.36036E+03 -3.53328E+03  6.24180E+03 -6.62073E+03  2.98322E+03
 -3.62040E+03  9.45358E+03 -4.90528E+03  3.97962E+03 -6.77458E+03 -2.32945E+03 -1.35506E+04 -8.47108E+03
 -8.22680E+03 -1.63206E+04  5.06132E+03 -2.01508E+04  1.25228E+04 -2.15616E+04  2.19678E+04 -1.28796E+03
  1.88483E+04  8.97497E+03  1.47509E+04  1.83342E+04  3.14005E+03  3.19783E+03 -2.92454E+03  1.45129E+04
 -8.82196E+03 -6.22181E+02 -2.38526E+03 -3.92591E+03  4.76963E+02 -5.91645E+03 -3.76708E+03  1.94082E+03
 -3.17745E+03  3.91384E+03  7.13552E+02 -5.58592E+02 -7.46273E+02 -2.36460E+03  4.23735E+03 -2.25866E+03
  3.75110E+01 -4.41059E+03  9.77198E+03 -2.81309E+02  2.13509E+03  9.36866E+03 -4.31390E+02  2.12645E+04
 -1.63901E+04  2.36832E+04 -1.82123E+04  1.17887E+04 -1.73495E+04  6.37071E+03 -1.13101E+04 -5.27605E+03
 -7.49310E+03 -1.16019E+04  6.69330E+03 -1.38374E+04  1.24708E+04 -1.02408E+04  5.05925E+03 -3.59097E+03
  7.44532E+03  8.51685E+03  5.19037E+02  1.97212E+03 -1.71240E+03 -2.27383E+03  2.28026E+03  4.35787E+03
  7.67789E+03 -4.86632E+03  1.94638E+02  3.56209E+03  4.38405E+03  7.95480E+03  1.29596E+03 -4.53046E+03
 -9.74833E+03  9.01515E+03 -3.54796E+03 -2.23167E+03 -2.75352E+03 -9.27510E+03 -1.74849E+03 -1.80627E+04
  6.09027E+03 -7.84791E+03  1.12491E+04 -3.50723E+03  1.30375E+04  2.08780E+03  1.13928E+04  9.69839E+03
  3.19836E+03  7.83514E+03  2.39974E+03  6.12192E+03 -7.44810E+03  9.18293E+03 -7.38534E+03  5.85344E+02
  1.48174E+03  1.91402E+03 -1.26196E+02  1.89574E+03 -1.48805E+03  2.72077E+02 -7.09932E+03 -6.85624E+02
 -6.24364E+03 -6.63789E+03 -1.71202E+03 -1.14603E+04  5.90532E+03 -1.39582E+04  7.03384E+03 -4.01615E+03
  7.61478E+03  3.25301E+03  7.99782E+03  3.47876E+03 -4.43977E+03  9.00979E+03 -9.04439E+03  7.44248E+03
