 $NMID ID='MM_0lb_SNR50_20hz_g45_38.RAW', FMTDAT='(8E13.5)'
 TRAMP=1., VOLUME=1. $END
  3.08430E+05 -2.56806E+02  3.35094E+05  2.50177E+05  8.36816E+04  3.40894E+05 -1.32708E+05  2.45978E+05
 -1.90492E+05  8.36781E+04 -1.12131E+05 -3.68240E+04  8.66102E+02 -4.79880E+04  5.57921E+04  9.94531E+02
  3.33902E+04  5.33695E+04 -1.58160E+04  7.28193E+04 -6.27013E+04  6.18173E+04 -8.12133E+04  3.47351E+04
 -8.34989E+04 -1.28430E+04 -5.40794E+04 -5.40451E+04 -1.79500E+04 -6.63479E+04  2.86820E+04 -4.07172E+04
  4.05747E+04  4.89864E+03  1.65009E+04  4.54838E+04 -3.02383E+04  4.69549E+04 -6.51646E+04  4.38068E+03
 -4.93560E+04 -5.83544E+04 -4.08976E+03 -7.62928E+04  3.63701E+04 -5.46278E+04  5.03490E+04 -1.73832E+04
  4.18563E+04  1.18876E+04  3.16885E+04  2.14710E+04  1.65433E+04  2.74035E+04 -3.27763E+03  2.65081E+04
 -2.09877E+04  9.40199E+03 -2.01325E+04 -2.97631E+03  9.67653E+02 -1.12109E+04  1.84787E+04  1.02933E+04
  5.08509E+03  3.48716E+04 -2.83150E+04  3.70500E+04 -6.05626E+04  3.97059E+03 -5.25690E+04 -4.07037E+04
 -1.31460E+04 -6.03082E+04  3.42809E+04 -4.07096E+04  5.66051E+04 -4.12297E+03  3.42542E+04  2.47702E+04
 -5.51491E+03  2.80732E+04 -3.14581E+04  1.12142E+04 -2.98482E+04 -7.77063E+03 -1.17262E+04 -9.89482E+03
 -9.47829E+03 -1.23675E+04 -1.03221E+03 -1.61883E+04  1.01894E+04 -2.56539E+04  1.22655E+04 -1.57929E+04
  1.22214E+04  1.78265E+03 -3.20737E+03  9.39263E+03 -2.31517E+04 -2.37492E+03 -8.29062E+03 -2.98800E+04
  1.88817E+04 -4.19856E+04  4.47808E+04 -1.75090E+04  4.06542E+04  1.76920E+04  1.75868E+04  4.03057E+04
 -1.43414E+04  3.28357E+04 -2.25498E+04  3.94762E+03 -3.42167E+03 -2.59584E+04  2.11459E+04 -3.00232E+04
  3.76754E+04 -6.44910E+03  3.11023E+04  2.53846E+04  2.33650E+04  4.14393E+04 -6.08443E+03  4.32084E+04
 -2.61173E+04  2.86116E+04 -3.57256E+04  1.05986E+04 -3.85183E+04 -1.56717E+04 -2.14357E+04 -3.21947E+04
  7.34564E+03 -3.06483E+04  2.74377E+04 -1.20755E+04  2.32874E+04  1.40362E+04  3.55790E+03  1.69840E+04
 -1.10334E+04  6.97153E+03 -1.00422E+04 -6.32887E+03  9.65747E+03 -1.35738E+04  1.70787E+04  7.44368E+03
  1.03542E+04  2.06509E+04 -4.51017E+03  2.28955E+04 -1.92624E+04  9.90601E+03 -2.34250E+04 -8.10046E+03
 -1.99786E+04 -1.72889E+04 -7.87084E+03 -1.39337E+04  5.28557E+03 -1.27936E+04  1.17406E+04 -1.44734E+04
  2.08518E+04 -1.13219E+04  2.43510E+04  4.23913E+03  1.86392E+04  1.52986E+04  3.07953E+03  2.92522E+04
 -9.56507E+03  2.51296E+04 -2.33560E+04  5.17799E+03 -2.23200E+04 -8.32228E+03 -1.56695E+03 -1.16936E+04
  2.26684E+03 -6.00338E+03 -2.40564E+03  3.82891E+03 -9.97598E+03  8.24132E+03 -1.21830E+04 -3.96213E+03
 -8.23021E+03 -1.50950E+04  5.87576E+03 -1.93147E+04  1.25983E+04 -1.54143E+04  1.35034E+04 -1.56875E+03
  4.02521E+03  7.76452E+03 -3.40965E+03  1.38953E+04 -7.48873E+03  1.13452E+04 -1.11645E+04 -3.81440E+03
 -9.46952E+03 -1.75263E+04 -3.59935E+03 -2.25711E+04  1.07724E+04 -1.55528E+04  1.42308E+04 -5.59502E+03
  1.04434E+04  1.19202E+03  1.13262E+04  2.02391E+03  4.28590E+03 -3.17985E+03  6.79072E+03 -3.17169E+03
  1.37076E+04  3.30123E+03  1.40530E+04  1.25617E+04  6.30313E+03  2.38795E+04 -4.16815E+03  2.49775E+04
 -1.54705E+04  2.19542E+04 -2.22282E+04  7.91979E+03 -2.33829E+04  4.03455E+02 -2.06411E+04 -1.08385E+04
 -9.01720E+03 -1.59851E+04  4.88743E+03 -1.50957E+04  1.58832E+04 -7.66210E+03  1.51477E+04  4.72389E+03
  1.04657E+04  1.02621E+04 -6.99311E+03  7.67370E+03 -1.32323E+04  2.10718E+02 -1.02141E+04 -6.60174E+03
 -6.12364E+02 -1.16916E+04  8.62880E+03 -1.19797E+04  7.95291E+03 -4.50624E+02 -1.22492E+03  4.18790E+03
 -6.97663E+03  2.97049E+03 -2.95999E+03 -2.69524E+03  1.64240E+03 -5.94669E+03  8.37262E+03 -6.61567E+03
  1.43801E+04 -7.62697E+03  8.48395E+03  2.06591E+03  7.04038E+03  9.21067E+03  1.37757E+03  1.43452E+04
 -2.60338E+03  1.72785E+04 -1.00986E+04  8.03132E+03 -1.16902E+04  2.00221E+03 -7.79920E+03 -5.93896E+03
 -5.13835E+03 -4.10104E+02 -4.06258E+03 -7.34532E+02 -4.20808E+03  1.96994E+03 -5.34325E+03  4.19997E+03
 -8.14425E+03  1.01462E+03 -5.59382E+03 -8.40944E+03 -3.68697E+02 -9.33144E+03  3.54771E+03 -1.24082E+04
  6.77608E+03  3.40717E+02  4.91701E+03  5.74267E+03 -1.15580E+03  2.15332E+03 -9.99774E+02 -2.48356E+03
 -5.33950E+02 -8.53771E+03  2.60820E+03 -8.45882E+03  4.78799E+03 -6.21381E+03  9.06441E+03 -4.68711E+03
  1.04511E+04  2.53377E+03  7.98659E+03  5.57671E+03 -2.78730E+03  7.24566E+03 -7.57840E+03  4.63013E+03
 -8.63115E+03 -3.48903E+03 -3.45242E+03  8.02673E+02  1.37642E+03 -2.25878E+03  1.15524E+03 -3.06145E+03
  4.80200E+03  5.04240E+03  7.13202E+02  5.96376E+03 -5.06517E+02  4.14707E+03 -7.29484E+03  5.92816E+03
 -5.90806E+03 -7.60335E+02  3.38266E+02 -9.42057E+03 -3.94080E+02 -2.56179E+03  4.68779E+03  3.14480E+03
  1.09130E+02  2.80201E+03 -3.40356E+03 -6.19931E+02 -3.17898E+03  1.25727E+03 -1.65829E+03  1.52237E+03
 -4.35082E+03 -4.98186E+03  2.29083E+03 -8.42983E+03  1.61914E+03 -1.93185E+03  5.62927E+03  7.94137E+01
  4.99139E+03  2.60830E+03 -1.84182E+03  4.50940E+03 -3.34046E+03  3.01143E+03 -3.07523E+03 -3.53179E+02
 -6.34144E+03 -5.47370E+03 -1.34707E+03 -3.43982E+02  5.90243E+03 -5.28506E+03 -1.86483E+03 -3.14329E+03
  4.59966E+03 -1.53558E+03  8.86486E+01  2.52676E+03  3.54039E+03  1.77243E+03 -7.22666E+02 -1.86543E+03
  5.06070E+03  2.52114E+03  5.07425E+03  9.66743E+02  6.33190E+03  6.41730E+03  5.95463E+03  3.89671E+03
 -2.58509E+03  6.37964E+03 -5.66083E+03  7.58760E+03 -5.80358E+03 -2.49207E+03 -4.20817E+03 -3.40324E+03
 -1.52747E+03 -8.77128E+03 -1.20984E+03 -6.12066E+03  4.02284E+02 -3.75433E+03 -4.08725E+02 -1.02672E+03
  2.98138E+03  3.83687E+02  1.44281E+03 -3.52126E+03  7.42461E+03  8.64798E+02  1.60560E+03  2.65528E+03
  4.85293E+03 -1.91309E+03 -2.27246E+02  1.74097E+03 -2.89819E+03  3.63600E+03 -2.33063E+03 -6.23717E+02
 -1.98647E+03 -2.38406E+03 -2.47581E+03 -4.66508E+03  2.55207E+03 -1.20784E+03  3.97946E+03 -6.58965E+03
 -1.08040E+02 -1.94806E+03  6.32589E+03 -2.62373E+03  3.04176E+03  1.88058E+03  1.22072E+03  4.98332E+03
 -2.74605E+03  5.62129E+03  2.30369E+02 -1.75167E+02 -4.41353E+03 -2.31863E+03  7.98569E+02  1.85376E+03
 -5.14653E+02 -2.31359E+03  2.02064E+03  5.06007E+02 -1.01405E+03  1.52838E+03 -1.99154E+01  8.61656E+02
 -5.44223E+03 -3.32005E+03 -2.26067E+03 -3.83119E+03  5.46471E+03 -2.22874E+03  2.46122E+03 -1.78976E+03
  1.49521E+03  4.15026E+03  1.90661E+03  3.49389E+02  1.07810E+03  5.96475E+03 -2.25690E+03  1.41045E+03
 -3.71428E+03 -2.78356E+02  9.63989E+02 -3.47603E+03  1.16459E+03 -2.06236E+02 -8.23649E+02  4.35377E+02
  1.70875E+03 -5.47966E+03  3.52997E+03  3.83776E+03 -1.99193E+03  4.17120E+03  6.27430E+02  7.52314E+03
 -2.90588E+03 -2.62313E+02 -3.01444E+02  8.35343E+02  4.13305E+03  1.28008E+03  6.38864E+03  2.95619E+03
  2.37279E+03  2.61667E+03 -2.10439E+03  6.04650E+03 -3.93989E+03  1.71310E+03 -4.93529E+03  5.00060E+03
  6.05612E+02 -6.17997E+03 -5.19308E+02 -3.03164E+03  1.81739E+02 -3.24363E+03  6.95087E+02  2.74155E+03
  3.20284E+03  5.63222E+02 -8.50907E+02  5.71606E+02  3.30796E+01  1.92533E+03  5.73133E+02  1.22123E+03
 -2.42703E+03 -3.11359E+03  1.31697E+03 -3.83552E+03  3.83025E+02 -1.69700E+03 -1.04261E+03  1.77015E+03
  7.45441E+02 -1.29227E+03  2.83141E+03 -3.43819E+03 -5.38126E+03 -2.19907E+03  7.09005E+03 -1.39422E+03
 -2.00296E+03 -9.70028E+02  1.84552E+02  1.11387E+03  1.02754E+03 -1.68788E+03  8.91541E+02  4.48402E+03
 -2.90303E+03 -1.35694E+03 -9.48131E+02  2.93526E+03 -4.09383E+03  2.12924E+03  3.23052E+03 -1.38410E+03
  1.72235E+03 -2.77409E+02  6.60187E+02 -1.68359E+03 -8.32144E+02 -9.53426E+02  2.24650E+01  2.59708E+03
 -3.77219E+03  1.01682E+03  1.72719E+03  1.02437E+03  3.38857E+03 -1.86376E+03  1.96118E+03 -2.40355E+03
  1.76564E+03 -1.26737E+03 -2.77202E+02 -1.55958E+03 -2.37359E+03 -5.49687E+02  2.31836E+03 -2.11933E+03
 -5.36569E+02  6.19401E+02 -3.33299E+03 -1.49477E+03  1.68057E+03  2.84420E+03  1.40594E+03 -4.45045E+03
  6.93958E+02 -1.90525E+03  4.49827E+03  5.08120E+03  3.59463E+03  1.38174E+03 -8.61731E+02 -1.86255E+03
  7.19673E+02 -5.16475E+03 -2.13364E+03  2.62213E+03  5.53276E+01 -1.11475E+03 -1.67093E+03 -9.83927E+02
  1.97421E+03  2.85423E+02 -2.36959E+03 -2.71605E+03 -1.14863E+03 -1.47756E+03 -1.12908E+03 -1.98370E+02
 -1.61672E+03  4.63971E+03  2.86147E+02 -9.71217E+02  8.06212E+02  6.37435E+02 -4.36773E+03 -2.63857E+03
 -2.64136E+03  7.26568E+02 -3.25126E+03  1.52715E+03 -8.90592E+02 -1.54009E+03 -5.66828E+03 -2.12554E+03
 -6.17038E+02 -2.74786E+03  1.47178E+03 -2.33469E+03 -5.80359E+02 -2.05232E+03  3.44160E+03 -2.18144E+01
  3.12862E+03 -1.75028E+03 -9.56898E+02  7.09222E+02  2.36767E+03  2.10476E+03 -1.08321E+03 -3.61840E+02
  5.59086E+03  5.08044E+02 -3.64666E+03 -1.96411E+03  2.02724E+03  1.80057E+03 -3.27305E+03  4.05267E+03
 -2.63970E+03  1.74352E+03 -3.20588E+02 -1.21477E+03  4.78081E+01 -2.12672E+03 -1.71148E+03 -3.71569E+03
  4.74740E+02  9.84228E+02  3.79116E+03 -2.34091E+03 -3.33654E+02  2.94149E+03 -5.32991E+02  4.12722E+02
  3.99437E+03  2.46832E+03 -3.54895E+02  9.73815E+02  5.10839E+02 -2.63588E+03 -1.42583E+03 -5.20708E+01
 -7.23778E+02 -3.04599E+03 -2.39438E+03 -1.14069E+03 -2.56480E+03 -3.78010E+03 -3.68380E+03 -4.52607E+02
 -4.09227E+03 -3.98486E+03 -1.40642E+03  4.15227E+02 -4.44237E+02  2.74248E+03  3.12184E+02 -1.80718E+03
  3.44774E+03  5.17343E+02  1.31129E+03 -1.25504E+03 -6.01647E+02  1.76864E+03  1.13424E+03  2.19196E+03
  2.15304E+03 -4.12106E+03 -1.86149E+03 -1.33026E+03 -5.66749E+02  1.49579E+03  6.51033E+02  2.17772E+02
  1.17759E+03 -4.09101E+03 -1.72481E+03 -2.86153E+03  1.57261E+03  5.49932E+02  6.63167E+02  5.56445E+03
 -3.38290E+02  1.40441E+01  5.97717E+02 -2.26940E+02 -9.83892E+02 -1.27912E+03 -7.40017E+02  2.32102E+03
  3.83685E+02  1.49443E+03 -1.28807E+03  1.82873E+03  1.19671E+03 -5.00433E+02 -2.63925E+03 -3.04837E+02
 -3.02138E+03  7.91564E+01 -1.32559E+03  1.31148E+03 -1.32562E+03 -2.54136E+03 -1.94984E+02 -6.12008E+02
 -1.70951E+02  2.97385E+03 -1.27377E+03  1.60659E+03 -3.07569E+03 -2.95364E+03 -1.43725E+03  7.06658E+00
