 $NMID ID='MM_0lb_SNR50_11hz_g40_9.RAW', FMTDAT='(8E13.5)'
 TRAMP=1., VOLUME=1. $END
  3.09559E+05 -4.82195E+03  3.38501E+05  2.51681E+05  8.25311E+04  3.37553E+05 -1.32107E+05  2.53294E+05
 -1.92070E+05  8.92410E+04 -1.13976E+05 -3.03376E+04 -4.31126E+03 -5.12683E+04  5.54252E+04  1.01774E+03
  3.42009E+04  5.49652E+04 -1.41469E+04  7.61395E+04 -6.03123E+04  6.35704E+04 -8.67446E+04  3.10972E+04
 -7.74535E+04 -8.07774E+03 -6.30926E+04 -5.24122E+04 -2.08852E+04 -6.74406E+04  2.66003E+04 -5.25991E+04
  3.83736E+04  5.07561E+03  9.20381E+03  4.53861E+04 -2.60019E+04  5.19339E+04 -7.23934E+04 -4.64766E+02
 -4.98767E+04 -5.74278E+04 -3.08069E+03 -8.02785E+04  3.12275E+04 -5.69926E+04  5.12812E+04 -1.16645E+04
  4.16079E+04  1.31733E+04  3.53822E+04  2.65666E+04  2.04080E+04  3.45797E+04 -8.53567E+03  2.90257E+04
 -2.27889E+04  1.47496E+04 -1.80912E+04 -6.05370E+03  5.21715E+03 -1.21497E+04  2.71940E+04  8.10320E+03
  4.18823E+02  4.20739E+04 -3.49819E+04  4.30873E+04 -6.80675E+04 -1.85810E+03 -5.91536E+04 -4.59401E+04
 -1.76665E+04 -6.07564E+04  3.81353E+04 -4.10229E+04  6.32529E+04 -1.06514E+03  3.20416E+04  3.06691E+04
 -3.56074E+03  3.39117E+04 -2.99415E+04  2.09598E+04 -3.20136E+04 -3.17086E+03 -2.28858E+04 -1.11065E+04
 -1.04698E+04 -1.24868E+04  6.18712E+02 -1.42991E+04  8.91256E+03 -2.55965E+04  1.17748E+04 -1.48342E+04
  7.72933E+03  4.87372E+03 -8.61816E+03  1.69475E+04 -2.55068E+04 -4.32635E+03 -1.22470E+04 -3.84420E+04
  2.11940E+04 -4.83534E+04  4.98744E+04 -2.51402E+04  4.70490E+04  2.17399E+04  1.78476E+04  3.81685E+04
 -1.43569E+04  2.96371E+04 -3.01707E+04  9.50618E+02 -1.45837E+04 -2.71389E+04  2.51261E+04 -3.40955E+04
  4.32009E+04 -7.34828E+03  3.42624E+04  2.08164E+04  2.32322E+04  4.28072E+04 -1.03254E+04  5.34803E+04
 -3.35712E+04  3.15664E+04 -4.53388E+04  7.98564E+03 -4.45513E+04 -1.39412E+04 -2.49576E+04 -3.72989E+04
  7.30109E+03 -3.49599E+04  3.41520E+04 -1.46980E+04  3.13337E+04  1.06939E+04  7.12218E+03  1.72028E+04
 -1.69291E+04  7.06025E+03 -1.23707E+04 -7.79545E+03  3.37526E+03 -8.35912E+03  1.75358E+04  2.09368E+03
  2.06306E+04  1.77967E+04 -4.24888E+03  2.88176E+04 -2.13964E+04  8.89254E+03 -2.64598E+04 -6.24326E+03
 -2.37021E+04 -1.49284E+04 -1.49527E+03 -2.09186E+04  2.70487E+03 -2.24473E+04  2.04460E+04 -2.29466E+04
  2.73018E+04 -8.58559E+03  3.73787E+04  5.69234E+03  2.44519E+04  1.88977E+04  7.34356E+02  3.81122E+04
 -1.78340E+04  3.46683E+04 -3.40968E+04  1.17381E+04 -2.03130E+04 -1.56274E+04 -5.92859E+03 -1.25497E+04
  4.14954E+03 -9.33426E+03 -1.13204E+04  4.62403E+03 -1.68426E+04 -2.04583E+03 -1.30068E+04 -7.40793E+03
 -7.80154E+03 -1.86529E+04  4.48719E+03 -2.29710E+04  1.93739E+04 -1.77204E+04  2.07080E+04  7.60328E+02
  1.42323E+04  1.55594E+04 -1.68243E+03  1.96993E+04 -1.56687E+04  1.09091E+04 -1.81942E+04 -6.73159E+03
 -1.40554E+04 -1.80729E+04  2.52864E+03 -2.28118E+04  6.70087E+03 -2.47658E+04  2.24683E+04 -1.24657E+04
  1.81212E+04  5.44629E+02  1.88749E+04  2.49597E+03  1.94692E+03 -7.76511E+02  1.29499E+04 -1.85672E+03
  1.92756E+04  3.04856E+03  2.11849E+04  1.66785E+04  1.53940E+04  3.92871E+04 -3.65923E+03  4.01935E+04
 -2.75487E+04  3.14407E+04 -3.42585E+04  1.04262E+04 -3.93367E+04 -4.79124E+03 -3.02061E+04 -2.69907E+04
 -1.43584E+04 -3.27969E+04  8.76413E+03 -3.03631E+04  2.63665E+04 -1.52241E+04  2.72045E+04  4.85794E+03
  4.28231E+03  1.91806E+04 -1.04671E+04  1.90564E+04 -1.54568E+04  8.40892E+03 -1.55532E+04 -1.09285E+04
 -7.60115E+02 -1.70263E+04  6.45641E+03 -1.09150E+04  9.10160E+03 -1.21554E+03  6.81632E+03  9.89670E+03
 -8.37459E+03  4.72662E+03 -5.87147E+03 -3.62931E+03 -3.24986E+03 -2.00737E+04  1.45733E+04 -1.48571E+04
  2.28738E+04 -1.20796E+04  1.88514E+04  5.21143E+03  1.86225E+04  1.15543E+04  6.04799E+03  2.60860E+04
 -4.91362E+03  2.41160E+04 -9.50892E+03  1.56139E+04 -1.96377E+04  6.03283E+03 -1.15998E+04 -6.61364E+03
 -6.17909E+03 -1.06479E+04  1.35957E+02  5.50805E+02 -1.19969E+04  6.67360E+03 -9.59522E+03  8.45972E+03
 -8.72396E+03  3.44160E+02 -1.94820E+04 -1.18827E+04 -4.81929E+03 -1.48236E+04  4.51387E+03 -1.60380E+04
  1.56504E+04 -1.94549E+03  1.28885E+04  5.28007E+03  7.96549E+02  5.62562E+03 -1.18898E+04 -9.90384E+02
 -4.54502E+03 -5.95015E+03 -3.60820E+03 -8.68668E+03  4.35613E+03 -1.59581E+04  2.06502E+04 -4.29000E+03
  2.00069E+04  6.86396E+02  1.66521E+04  2.37193E+04  1.06933E+03  1.59807E+04 -7.43865E+03  1.47228E+04
 -1.19734E+04  6.68888E+03 -6.62153E+03 -5.40013E+02  3.04964E+03 -6.56722E+02  9.74319E+03 -6.85565E+03
  4.34755E+03  9.76948E+03  5.23060E+03  9.93790E+03 -7.17651E+03  5.07971E+03 -8.95041E+03  4.01701E+03
 -1.04964E+04 -7.10295E+03  2.74444E+03 -1.04481E+04  7.24855E+03 -3.43492E+03  1.20391E+04  3.03550E+03
  5.73722E+02  5.91905E+03 -8.15538E+03  5.47961E+03 -1.15826E+04  2.68003E+02 -1.56167E+04 -2.54786E+03
 -4.02096E+03 -1.22940E+04  2.85602E+03 -1.58784E+04  8.23132E+03 -8.75924E+03  1.19532E+04  6.24693E+03
  1.16205E+04  7.69869E+03 -3.75510E+03  1.46024E+04 -1.31060E+04  9.86699E+03 -1.58814E+04 -2.14246E+02
 -9.46531E+03 -1.37143E+04 -2.18788E+03 -1.37861E+04  9.42247E+03 -6.37481E+03  5.72673E+03 -4.65260E+03
  2.88490E+03  2.57020E+03 -4.40411E+03  2.37925E+03 -1.22131E+02 -1.93128E+03  2.58407E+03 -2.11460E+03
  9.72386E+03 -4.88942E+03  1.26152E+04  3.26013E+03  1.31899E+04  1.13140E+04  8.03879E+03  1.82447E+04
 -7.95073E+02  1.99752E+04 -1.68329E+04  1.85280E+04 -1.97304E+04  1.56072E+03 -2.10086E+04 -5.69481E+03
 -1.20251E+04 -1.29583E+04  2.83408E+03 -1.16785E+04  1.86808E+03 -7.10162E+03  6.52474E+03 -6.43873E+02
  1.33905E+03 -3.98696E+03  2.75960E+03 -2.56625E+03  6.69024E+03 -1.50445E+03  4.02599E+03  2.80592E+03
  7.61152E+03  2.16644E+03  2.37116E+03  3.42596E+03 -6.16591E+02  2.49232E+03 -6.26245E+03  4.91318E+03
 -4.00771E+03 -6.94932E+03 -2.12278E+03 -4.83231E+03 -2.66808E+03 -1.29000E+04  9.26985E+03 -1.24866E+04
  1.09885E+04 -9.61454E+03  1.44596E+04  7.33378E+03  1.35661E+04  4.04346E+03  4.86732E+03  8.65688E+03
 -8.00240E+03  1.37257E+04 -8.47395E+03  8.98520E+03 -6.49930E+02  2.00314E+03 -1.70655E+02 -3.40544E+03
  7.16147E+01  1.31414E+03 -3.44405E+02  2.41072E+03 -9.46546E+03 -3.43155E+03 -9.42464E+03 -6.19969E+03
 -1.05257E+04 -3.66113E+03 -8.12183E+02 -1.58131E+04  8.46712E+03 -7.54225E+03  1.54345E+04 -7.09418E+03
  6.11184E+03  3.30760E+03  5.86556E+03  1.11244E+04 -7.03348E+02  1.34789E+04 -7.30130E+03  6.85532E+03
 -1.21788E+04  3.30382E+03 -7.76451E+03 -1.36742E+04 -8.19768E+03 -9.42974E+03  1.04430E+04 -4.71786E+03
  1.80744E+03 -6.43436E+03  7.61022E+03  5.53211E+03 -1.36374E+03  4.08839E+03 -5.22866E+02  8.17894E+01
  8.85323E+03 -2.11837E+03  2.76584E+03  4.92465E+03 -1.10666E+03  4.89233E+03 -3.74134E+02  1.18281E+04
 -4.26978E+02  4.81870E+03 -7.92041E+03  6.81241E+03 -1.12901E+04  4.99850E+03 -6.34739E+03 -4.78675E+03
 -2.67772E+03 -1.45810E+04 -3.03752E+03 -9.01455E+03  1.08856E+04 -8.45650E+03  7.01573E+03 -3.63981E+03
  3.54402E+03  3.65829E+03 -5.81038E+03  2.97895E+03 -1.96672E+03  3.76681E+03 -2.95654E+03  6.82920E+03
  2.93194E+03  6.38571E+02  8.61542E+03 -7.78087E+03  1.08068E+04 -3.78933E+02  9.64477E+03 -2.19945E+03
  3.85523E+03  2.72102E+03  9.87209E+02  2.13051E+03 -5.24006E+03 -1.99833E+03  8.52609E+03  3.12409E+03
 -1.00847E+03 -2.53420E+03  6.97434E+03  7.00501E+02  2.78715E+03  5.07737E+03  1.83551E+03  2.99740E+03
 -9.98286E+03  4.93229E+03 -5.45662E+03  4.05384E+01 -9.42919E+03 -2.59058E+03 -4.25220E+03 -5.58326E+03
 -9.44683E+02 -8.45956E+03 -2.77257E+03 -6.73227E+03 -2.26625E+03  7.52722E+02 -2.77678E+03  1.08502E+04
 -2.79898E+03  3.30580E+03  2.81924E+03 -3.05010E+03 -3.73024E+03 -1.56166E+03 -3.97887E+03 -5.41364E+03
  2.46819E+03 -2.31645E+03  5.80521E+03 -4.29295E+03  7.28884E+02  5.96329E+03  2.30288E+03  7.13975E+03
  1.95948E+03  4.90022E+03 -4.88057E+03  1.96885E+03 -6.84445E+03 -4.89334E+03  3.17580E+03 -5.54262E+03
  2.94394E+03 -3.55723E+03  3.60221E+03 -4.84372E+03 -2.35137E+01  6.66630E+03 -2.03104E+03  8.71576E+03
 -4.08115E+03  2.74156E+03 -1.17500E+03 -3.34715E+03  8.33655E+02 -2.74376E+03 -2.12116E+03 -2.15789E+03
  8.57626E+03 -1.24586E+03 -2.65152E+03  5.51878E+03  2.92562E+03  3.91826E+02  1.18327E+02  1.70478E+03
 -1.23416E+03  4.23993E+03 -5.03172E+03 -1.11182E+03 -4.94773E+03  3.16212E+03 -4.79181E+03  3.16403E+03
  4.26215E+03 -2.45183E+03 -6.01782E+03  1.16521E+03 -1.99441E+03  1.91239E+03 -1.14454E+04 -7.89221E+03
 -2.19996E+03 -5.00903E+03 -2.08039E+03 -1.18748E+04  2.46889E+03 -8.37275E+03  7.14129E+03 -5.50559E+03
  8.48225E+03  4.17593E+03  5.28903E+03  5.03743E+03  8.62302E+02  7.87575E+03  2.95439E+03  3.24414E+03
 -5.84430E+03  2.43298E+03 -4.21820E+03 -2.24344E+03  2.77913E+03  2.29561E+03 -2.43808E+03 -2.96472E+03
  6.33670E+03  2.61628E+03 -5.36899E+02  6.60389E+03 -5.29028E+02 -3.96851E+03  2.21209E+03  2.06094E+03
  1.03692E+04 -8.61162E+03  9.27487E+02  1.91473E+03  3.46287E+03  5.62538E+03  4.27787E+03  3.53131E+03
 -4.51712E+03  7.47248E+03 -1.65624E+03 -3.82833E+02 -9.17994E+03 -9.66952E+02 -8.26081E+03 -5.77617E+03
 -1.40723E+03 -9.61325E+03  7.02129E+03 -5.61844E+03 -2.63617E+03 -5.40180E+03  3.67378E+03 -1.86993E+02
 -1.38879E+03  3.86228E+03 -5.16881E+03  7.61909E+01 -1.65811E+03 -3.15393E+02 -1.12322E+03 -2.39084E+03
  1.72238E+03  9.66123E+02  5.91987E+03  1.98671E+03 -5.44336E+03  2.48575E+03  5.35375E+02  3.70895E+03
 -1.25234E+03 -3.09182E+03 -4.34710E+03  2.33185E+03 -3.71744E+03 -2.29044E+03 -3.31824E+03 -1.31278E+03
  3.18155E+03 -1.54773E+03  7.32712E+03 -2.34932E+03  9.99715E+03 -7.78374E+02  2.94693E+03  7.52460E+03
 -3.90797E+03  6.52272E+03  3.33205E+03  3.87826E+03 -3.66771E+03  3.94199E+03 -5.90720E+03  6.72489E+02
  2.24279E+03  4.03194E+03  4.13055E+03  2.01023E+03 -7.70036E+02 -1.49763E+03 -1.51718E+03  1.08255E+03
 -2.43177E+03 -4.26403E+02 -1.55682E+03  5.30162E+02  6.19502E+03 -1.30022E+03 -1.94129E+01 -3.27337E+03
  2.32789E+03  1.20367E+03  4.87967E+03  6.40173E+03  3.30545E+03  7.75758E+03 -1.37776E+03  1.31025E+03
