 $NMID ID='MM_0lb_SNR50_11hz_g50_1.RAW', FMTDAT='(8E13.5)'
 TRAMP=1., VOLUME=1. $END
  3.11748E+05  5.13396E+02  3.34314E+05  2.52665E+05  8.43631E+04  3.41678E+05 -1.34227E+05  2.53804E+05
 -1.92550E+05  9.07452E+04 -1.15157E+05 -2.86537E+04 -3.78321E+03 -5.36416E+04  5.23876E+04 -7.89633E+01
  3.52781E+04  4.73196E+04 -1.78964E+04  6.82836E+04 -6.62044E+04  6.18614E+04 -8.59152E+04  3.25464E+04
 -8.31981E+04 -1.56593E+04 -5.58240E+04 -5.53950E+04 -1.26279E+04 -7.25966E+04  3.18390E+04 -4.34412E+04
  4.27539E+04  4.49431E+03  1.22010E+04  4.62395E+04 -3.42057E+04  5.03991E+04 -6.68651E+04  5.00368E+03
 -4.45708E+04 -5.62169E+04 -1.04118E+04 -7.94894E+04  3.70243E+04 -5.54011E+04  4.64809E+04 -1.34829E+04
  4.03880E+04  9.14411E+03  3.33109E+04  2.80406E+04  1.61443E+04  2.84152E+04 -6.14656E+03  2.46127E+04
 -2.67871E+04  1.28621E+04 -2.40435E+04 -5.70843E+03  8.34818E+03 -1.47586E+04  1.82271E+04  9.60661E+03
  6.77826E+03  3.79730E+04 -3.37528E+04  3.65642E+04 -6.62416E+04  8.27025E+02 -5.48052E+04 -4.30836E+04
 -9.59968E+03 -5.60364E+04  4.46897E+04 -4.02744E+04  5.57196E+04 -2.50973E+03  3.82281E+04  3.25522E+04
 -2.07633E+03  4.26066E+04 -3.34419E+04  1.79796E+04 -2.96348E+04 -3.67924E+03 -1.61086E+04 -1.31037E+04
 -5.05532E+03 -1.38567E+04 -1.79832E+03 -2.84466E+04  1.47575E+04 -2.12395E+04  1.45324E+04 -1.45722E+04
  1.25488E+04  4.66521E+03 -1.05726E+04  7.66485E+03 -1.79689E+04 -9.86860E+02 -7.60505E+03 -3.48574E+04
  1.96248E+04 -4.70617E+04  5.01429E+04 -1.62377E+04  4.78472E+04  2.05699E+04  2.00833E+04  4.14731E+04
 -1.68693E+04  3.45295E+04 -2.87288E+04  1.30968E+03 -1.34874E+04 -3.22648E+04  1.82128E+04 -3.59029E+04
  4.04571E+04 -1.20382E+04  4.36802E+04  2.03670E+04  2.15984E+04  4.90116E+04 -6.57797E+03  5.65352E+04
 -3.54837E+04  3.07195E+04 -4.24511E+04  8.75103E+03 -4.69924E+04 -2.04831E+04 -2.65869E+04 -4.22974E+04
  6.87798E+03 -3.98202E+04  3.43765E+04 -1.63970E+04  2.87258E+04  7.48020E+03  9.82943E+03  1.48537E+04
 -1.37526E+04  1.39423E+04 -6.18455E+03 -5.86516E+03  4.90824E+03 -8.82305E+03  1.49356E+04  8.83401E+03
  1.34001E+04  1.83999E+04 -4.51573E+03  2.68523E+04 -2.09728E+04  1.56370E+04 -3.03361E+04 -1.88125E+03
 -2.31998E+04 -1.76625E+04 -1.51031E+04 -2.21610E+04  3.59769E+03 -2.55335E+04  1.90012E+04 -2.02993E+04
  3.04136E+04 -1.46349E+04  3.27079E+04  3.13511E+03  2.86924E+04  1.87573E+04  5.66529E+03  4.09205E+04
 -2.15232E+04  3.07426E+04 -2.85542E+04  1.14110E+04 -2.30885E+04 -1.12468E+04 -4.11378E+03 -1.13001E+04
 -9.84031E+02 -1.46585E+03 -6.72117E+03  7.07570E+03 -2.18371E+04  2.54580E+03 -2.50527E+04 -4.05363E+03
 -1.12017E+04 -2.12311E+04  6.35910E+03 -2.44447E+04  2.09918E+04 -1.64400E+04  2.02418E+04 -6.07835E+03
  1.02214E+04  1.13123E+04 -2.98278E+03  2.23244E+04 -9.98291E+03  1.24542E+04 -1.96012E+04 -5.40132E+03
 -2.02006E+04 -1.92776E+04 -1.88722E+03 -3.29145E+04  7.88326E+03 -1.94437E+04  2.38183E+04 -1.04397E+04
  1.71952E+04  1.54345E+02  1.34111E+04  6.28692E+03  1.03985E+04  3.47525E+03  1.16011E+04 -7.18029E+03
  1.83296E+04 -2.57776E+02  2.21355E+04  1.27299E+04  1.55773E+04  3.23454E+04 -2.89332E+03  4.12716E+04
 -2.59810E+04  2.67645E+04 -3.87544E+04  1.57003E+04 -3.73540E+04 -2.06721E+03 -2.86974E+04 -2.35770E+04
 -1.24121E+04 -3.72287E+04  9.09252E+03 -2.55386E+04  2.45569E+04 -1.36041E+04  2.56278E+04  4.70190E+03
  8.57948E+03  1.79849E+04 -8.32526E+03  1.61394E+04 -1.47507E+04 -2.34254E+02 -1.70900E+04 -1.41672E+04
  9.27625E+02 -1.53642E+04  8.84039E+03 -1.70988E+04  9.69276E+03 -1.99006E+02  6.44436E+03  4.82625E+03
 -5.04534E+03 -1.31777E+03 -8.68809E+03 -8.23218E+03  1.49984E+03 -1.33923E+04  1.52791E+04 -1.81898E+04
  2.17508E+04 -1.46768E+04  2.44143E+04  2.72002E+03  1.91560E+04  2.09873E+04  9.38784E+03  2.46630E+04
 -3.21428E+03  2.38962E+04 -1.48765E+04  1.83547E+04 -2.03218E+04  5.15854E+03 -1.23826E+04 -6.52965E+03
 -6.64574E+03 -7.43239E+03  4.92277E+03  3.55956E+03  4.95031E+01 -3.02864E+02 -7.89792E+03  2.13092E+02
 -8.92133E+03 -3.67267E+03 -1.49405E+04 -6.38980E+03 -1.17053E+04 -1.78598E+04  9.35756E+03 -1.27128E+04
  1.34046E+04 -1.07728E+04  8.48801E+03  8.39142E+03  6.03622E+02  6.17465E+03 -1.29327E+04  1.35020E+02
 -4.89375E+03 -1.07658E+04 -3.35577E+03 -1.47047E+04  8.97656E+03 -1.00032E+04  1.83703E+04 -1.52655E+04
  1.81815E+04  1.95304E+02  1.64591E+04  1.17111E+04 -1.37932E+03  1.96300E+04 -7.92710E+03  1.17120E+04
 -1.37299E+04 -9.45171E+02 -1.07263E+04 -1.67605E+03  8.32954E+02  2.38651E+03  6.68265E+03 -4.95902E+03
  2.56458E+03  5.40874E+03 -1.00551E+03  5.72356E+03 -3.93583E+03  3.05653E+03 -7.39062E+03 -6.75905E+02
 -1.28284E+04 -5.54793E+03  4.26186E+03 -1.13535E+04 -1.44075E+02 -5.92344E+03  1.18169E+04 -1.23450E+03
 -8.86721E+02  1.35495E+02 -5.94612E+03  8.98007E+03 -1.09972E+04  5.56947E+03 -7.88363E+03  3.60813E+03
 -1.13512E+04 -8.49569E+03  4.77141E+03 -1.35759E+04  1.08015E+04 -5.36907E+03  1.65878E+04  7.71097E+03
  9.68940E+03  1.33209E+04  1.43258E+03  2.12003E+04 -8.75393E+03  7.24168E+03 -1.21327E+04  4.06640E+03
 -8.45188E+03 -9.42875E+03 -2.44790E+03 -6.31831E+03  1.37960E+03 -5.93256E+03  1.23224E+04 -9.17170E+03
  9.17860E+03 -3.24853E+03 -1.37827E+03  6.76515E+03 -2.24123E+03 -1.00291E+04 -1.41483E+03 -9.23589E+03
  1.31713E+04  6.49024E+02  1.30778E+04  4.17867E+03  1.34865E+04  1.37801E+04  8.49125E+03  1.67239E+04
 -3.33687E+03  1.78892E+04 -1.41876E+04  1.69997E+04 -1.79840E+04  7.35525E+03 -1.68509E+04 -7.78581E+03
 -1.15353E+04 -1.02285E+04 -3.49291E+03 -1.42521E+04 -3.88094E+02 -5.94008E+03 -1.40692E+03 -1.92613E+03
 -2.55976E+01  1.51486E+03  7.24225E+03 -4.19986E+03  4.29605E+03 -2.95830E+03  7.14627E+03 -8.84141E+02
  9.03705E+03  2.40258E+03  7.50540E+03  1.14238E+04  2.42152E+03  8.11950E+03 -9.33303E+03 -1.21565E+03
 -1.14546E+04 -3.67783E+03 -8.36973E+03 -7.48212E+03 -1.60872E+03 -6.49096E+03  1.93431E+03 -1.27502E+04
  1.18254E+04 -4.46033E+03  1.33416E+04 -3.91234E+03  7.40190E+03  1.22990E+04 -3.33387E+03  1.40039E+04
  1.61007E+02  7.77068E+03 -5.02354E+03  5.68221E+03 -9.06037E+03  2.97005E+03 -6.47568E+01  1.05906E+03
 -2.91180E+03  1.10975E+03 -4.28255E+03  5.31741E+03 -5.96605E+03  4.92315E+03 -9.26677E+03  9.41320E+02
 -2.84519E+03 -6.35990E+03 -4.75591E+03 -1.41767E+04  8.54507E+03 -9.89826E+03  1.10531E+04 -1.54815E+03
  9.73980E+03  2.46620E+03  7.41200E+03  1.04849E+04 -1.22826E+03  8.39908E+03 -9.98736E+03  2.73243E+03
 -9.49631E+03  8.48399E+01 -8.56376E+03 -1.14077E+04 -6.51931E+02 -1.09392E+04  4.20638E+03 -5.79237E+03
  6.50549E+03 -2.97814E+02  2.76746E+03 -3.75518E+03 -8.34613E+02  8.93098E+03  5.31262E+03 -2.32237E+03
  1.96719E+03 -3.57468E+03 -2.47127E+03  7.95942E+03  5.35985E+03 -4.49488E+01  4.13013E+03  7.93013E+03
 -5.90410E+03  7.77900E+03 -8.40786E+03  8.80932E+03 -1.66233E+04 -5.88558E+03 -1.08817E+04  1.28761E+03
 -3.47807E+03 -9.06783E+03  2.05164E+03 -6.41089E+03  1.02387E+04 -9.60321E+03  1.08483E+04 -4.89989E+03
  1.23856E+04  8.07258E+03  3.68300E+03  5.76119E+03 -2.25695E+03  3.67344E+03  1.83446E+01  8.30020E+02
 -1.58275E+03  9.54128E+02  4.72375E+03 -7.70253E+03  5.24438E+03 -8.72870E+03  3.51421E+03  1.03599E+03
  6.70512E+03  3.18975E+03  1.00916E+04 -1.56146E+03  6.85153E+01 -1.53388E+03  4.13281E+03 -1.05939E+03
 -6.84722E+03  9.65324E+02  3.86026E+03  1.73903E+03  9.22025E+02  8.56239E+03 -4.92309E+03  9.57648E+03
 -9.42503E+03  2.19960E+03 -6.89350E+03  2.86176E+03 -6.88904E+03 -1.77579E+03 -6.66041E+01 -4.13359E+03
 -1.51780E+03 -3.69373E+03  8.61902E+03 -2.36728E+03  1.63956E+03  4.57612E+03 -5.00744E+03  2.29996E+03
 -8.39238E+02  1.92834E+03 -6.83859E+03 -1.30834E+03  5.41052E+03 -1.20346E+03 -3.18009E+02 -5.34134E+03
  5.62949E+03 -4.51089E+03  9.37386E+03  2.82793E+03  1.03771E+03 -1.71581E+03 -1.22894E+03  5.05058E+03
  2.21831E+02  6.05064E+03 -6.07404E+03  4.01279E+03 -2.09987E+03 -2.67449E+03  3.03566E+03 -5.51502E+02
 -1.46367E+03  2.20953E+03  7.48128E+03  8.62665E+03  5.56122E+03  4.30281E+03 -5.10497E+03  7.76474E+03
 -1.04458E+04  3.18058E+03 -1.04537E+04 -3.13326E+03 -2.39723E+03 -1.40681E+03  2.33111E+03 -2.44268E+03
  2.77224E+02 -6.90755E+03 -2.63613E+02  5.15866E+03  7.91841E+02  3.28595E+03 -1.23904E+03  1.74861E+03
  2.48056E+03  2.72026E+03 -2.11870E+03  3.30589E+03 -8.62083E+02  2.87797E+03 -3.58323E+03 -1.92492E+03
 -5.74804E+03  1.74612E+03 -8.90349E+03  2.22035E+03 -5.53889E+03  8.20424E+03 -8.22421E+03 -8.82142E+03
 -4.85365E+03 -9.18664E+03  2.32466E+03 -1.15996E+04  7.06620E+03 -6.65017E+03  1.39357E+04 -2.65899E+03
  1.20463E+04  1.11665E+03  1.00827E+04  8.77212E+03 -1.95402E+03  4.16714E+03 -3.44090E+02  9.54007E+03
 -5.63762E+03  9.94618E+02 -1.23056E+02 -4.78246E+02  3.36295E+03  3.79976E+03 -2.52487E+03  4.47434E+03
 -6.12349E+02  1.30921E+03 -3.40298E+03  2.89237E+03  1.20936E+03 -8.72730E+03 -2.29814E+03 -7.82554E+02
  6.28790E+02 -2.30228E+03  2.39289E+03 -2.28202E+03  6.97589E+03 -9.45324E+02 -5.05577E+01  1.94010E+03
 -2.05536E+03  8.80267E+03 -3.94059E+03  2.84729E+03 -8.18281E+03 -6.74444E+02 -6.56754E+03 -1.08627E+04
  1.34057E+03 -9.04921E+03  2.46639E+03 -6.42946E+03  4.52136E+02  8.82881E+02  1.11456E+04 -2.51186E+03
  1.26099E+03  3.28977E+03 -8.30372E+02 -8.43929E+02  2.05446E+03  1.59651E+03 -7.56223E+03 -1.46257E+03
  7.88619E+02  1.88485E+03  7.53405E+03 -3.73491E+03  2.08745E+03 -1.91053E+03 -2.76847E+03  5.23949E+03
 -2.40389E+03  3.33357E+03 -7.97443E+03  1.12824E+02 -6.19186E+03 -2.48243E+03  7.79151E+02 -8.76380E+03
  2.29271E+03  3.56154E+01  1.94570E+03 -2.34809E+03  7.00440E+03 -2.05175E+03  1.25729E+03  3.46172E+03
 -2.20896E+03  1.00989E+04  2.63122E+03  4.54491E+03 -2.02007E+03  1.28715E+03 -1.52497E+03 -3.62182E+03
 -7.06561E+03 -1.40869E+03 -7.81892E+03  3.14341E+03 -8.85568E+02 -3.21659E+03 -1.91659E+03 -4.64381E+02
  8.08710E+02 -3.28437E+03 -1.15567E+03 -4.70924E+03  2.10209E+03 -2.98781E+03  1.96335E+03 -7.53441E+03
  3.99385E+03  8.42911E+02  8.34752E+02  5.48017E+02  3.03753E+03  2.04535E+03 -1.24278E+02  7.77922E+03
