 $NMID ID='MM_0lb_SNR50_13hz_g50_43.RAW', FMTDAT='(8E13.5)'
 TRAMP=1., VOLUME=1. $END
  3.11056E+05  6.14823E+03  3.37021E+05  2.50092E+05  8.16862E+04  3.42863E+05 -1.35817E+05  2.47056E+05
 -1.92619E+05  8.06338E+04 -1.13857E+05 -3.56575E+04  3.68772E+03 -5.50799E+04  5.25472E+04 -1.33912E+03
  3.30977E+04  4.77451E+04 -1.58076E+04  7.42211E+04 -5.90254E+04  6.41507E+04 -8.72797E+04  3.30645E+04
 -7.99912E+04 -1.25979E+04 -6.15375E+04 -5.53076E+04 -1.19576E+04 -6.31679E+04  2.57570E+04 -5.21751E+04
  4.06427E+04  9.82571E+02  1.65463E+04  4.55716E+04 -3.83136E+04  5.03477E+04 -6.71904E+04 -1.18270E+03
 -4.83329E+04 -5.99604E+04 -8.58408E+03 -7.51643E+04  3.66056E+04 -5.08360E+04  5.07669E+04 -1.76675E+04
  4.30968E+04  9.23413E+03  2.71311E+04  3.00689E+04  1.77723E+04  2.72550E+04 -6.82492E+03  2.82030E+04
 -2.18289E+04  1.26560E+04 -1.76795E+04 -7.79912E+03  5.28810E+03 -7.76824E+03  2.55470E+04  1.46859E+04
  5.78890E+03  3.26597E+04 -2.99918E+04  3.66215E+04 -6.51827E+04  1.05032E+03 -5.86133E+04 -4.02508E+04
 -1.02071E+04 -5.84338E+04  3.68383E+04 -4.50248E+04  6.16292E+04 -7.79968E+03  3.46818E+04  3.31203E+04
 -1.09946E+04  3.68592E+04 -2.48683E+04  1.60830E+04 -2.99807E+04 -2.52881E+03 -1.81253E+04 -8.90707E+03
 -1.34434E+04 -1.07714E+04  5.43260E+03 -1.79573E+04  1.16582E+04 -2.37284E+04  1.42327E+04 -1.60072E+04
  1.17554E+04  3.47414E+03 -1.11513E+02  1.21891E+04 -2.57981E+04 -9.28861E+03 -7.67028E+03 -3.19398E+04
  2.54038E+04 -4.16254E+04  5.39836E+04 -1.93667E+04  4.59491E+04  1.62411E+04  1.96449E+04  4.32113E+04
 -1.86908E+04  3.37085E+04 -2.91990E+04  3.07879E+03 -1.32390E+04 -2.62514E+04  2.55703E+04 -3.62158E+04
  4.69443E+04 -9.33491E+03  3.42406E+04  2.08839E+04  2.10008E+04  4.49835E+04 -1.07845E+04  5.20467E+04
 -2.63321E+04  3.74029E+04 -4.24970E+04  1.28919E+04 -4.18070E+04 -1.73980E+04 -2.54922E+04 -4.42303E+04
  5.04812E+03 -4.00728E+04  3.72607E+04 -1.17081E+04  3.24329E+04  1.00478E+04  6.87857E+03  1.83670E+04
 -1.31871E+04  5.02893E+03 -1.57133E+04 -8.23067E+03  1.06536E+04 -1.36920E+04  1.61061E+04  4.44668E+03
  1.39732E+04  2.39139E+04 -3.05874E+03  2.82711E+04 -3.11524E+04  1.14520E+04 -2.86890E+04 -4.42335E+03
 -2.30356E+04 -1.52820E+04 -1.22047E+04 -2.19610E+04  7.00311E+03 -1.98751E+04  1.92705E+04 -1.54515E+04
  2.68975E+04 -1.84080E+04  2.70670E+04  6.42627E+02  2.09724E+04  2.15068E+04  4.10419E+03  3.95572E+04
 -2.12224E+04  2.64855E+04 -3.38420E+04  8.05012E+03 -2.18772E+04 -1.32617E+04 -4.10160E+03 -1.41368E+04
 -6.51052E+02 -6.50562E+03 -3.81702E+03  9.08745E+03 -2.05692E+04  2.88307E+03 -2.10354E+04 -2.66022E+03
 -1.21759E+04 -1.91120E+04  6.45843E+03 -2.59117E+04  1.42928E+04 -1.65338E+04  2.08661E+04 -7.22704E+03
  6.61087E+03  1.24166E+04  3.59169E+03  1.98180E+04 -1.53819E+04  1.33698E+04 -2.22856E+04 -3.90144E+03
 -1.43482E+04 -1.74037E+04 -4.16013E+03 -2.72953E+04  1.06234E+04 -1.94785E+04  1.70780E+04 -5.79613E+03
  2.03126E+04 -1.79776E+03  1.24549E+04  4.64110E+03  9.66241E+03  4.79928E+03  3.53853E+03 -3.20868E+03
  2.08928E+04  3.93358E+03  1.63437E+04  1.28483E+04  1.42792E+04  3.50399E+04 -5.16776E+03  3.72085E+04
 -1.81500E+04  3.00111E+04 -3.44273E+04  1.30187E+04 -3.11865E+04 -1.63789E+03 -2.59228E+04 -2.18205E+04
 -1.05678E+04 -3.27146E+04  1.32478E+04 -2.93341E+04  2.54348E+04 -1.32545E+04  1.87363E+04  8.89514E+03
  1.23636E+04  1.44736E+04 -1.15017E+04  1.30929E+04 -1.48060E+04 -2.11751E+02 -1.33786E+04 -1.50093E+04
 -1.88137E+03 -1.80991E+04  9.88655E+03 -1.10824E+04  9.85938E+03  6.72455E+03  3.96524E+03  2.54047E+03
 -1.52077E+04  4.95284E+03 -4.23365E+03 -1.00558E+04 -4.91714E+03 -1.69541E+04  9.35855E+03 -1.28430E+04
  1.64003E+04 -6.05532E+03  1.63732E+04  8.43955E+03  2.01925E+04  1.17164E+04  8.48686E+03  2.11150E+04
 -2.07983E+03  2.66893E+04 -2.06125E+04  1.49844E+04 -1.76370E+04  6.88728E+03 -1.08168E+04 -4.01234E+03
 -4.46118E+03 -6.37863E+03 -2.68860E+02 -8.38655E+02 -4.09533E+03  4.62445E+03 -5.61211E+03  6.95955E+03
 -8.47452E+03  8.28143E+03 -1.11299E+04 -1.05197E+04 -4.70591E+03 -1.19422E+04  5.75651E+03 -1.38642E+04
  1.27049E+04 -4.22510E+03  6.27278E+03  2.76192E+03 -2.96365E+03  3.08699E+03 -1.42522E+03  3.54325E+03
  2.05815E+03 -7.72216E+03 -6.37719E+02 -1.12521E+04  7.09448E+03 -1.36711E+04  1.11726E+04 -6.13469E+03
  2.44765E+04  3.15871E+03  1.40187E+04  1.14321E+04  4.51399E+03  1.19562E+04 -9.98275E+03  1.44909E+04
 -8.28163E+03  2.23885E+03 -5.87761E+03 -4.84566E+03  2.18164E+03 -8.88437E+01  8.03417E+03 -4.46965E+03
  5.69035E+03  2.12408E+03  2.36549E+03  1.10766E+04 -1.18769E+03  5.74690E+03 -8.14813E+03  4.67331E+03
 -8.95046E+03 -4.95537E+03  8.56797E+02 -1.06567E+04  8.31989E+03 -2.06332E+02  1.01912E+04 -2.88282E+03
  2.32854E+03  6.05157E+03 -2.16658E+03  1.14216E+04 -1.27505E+04  4.44926E+03 -1.02089E+04 -7.51750E+03
 -6.04656E+03 -7.49978E+03 -1.31055E+03 -1.31634E+04  1.21647E+04 -6.14414E+03  1.52639E+04  1.10408E+03
  9.55871E+03  1.01490E+04  6.69348E+03  1.33656E+04 -6.44425E+03  7.39254E+03 -9.05160E+03 -2.70123E+03
 -7.72078E+03 -1.12420E+04 -2.76035E+03 -7.06405E+03  9.18541E+03 -1.29996E+04  3.78734E+03  1.17949E+03
  2.96170E+03 -9.59997E+01  1.10228E+03  1.50936E+03  2.24845E+03 -4.29791E+03  1.81424E+03 -7.46051E+03
  8.02829E+03 -2.29923E+03  1.41853E+04  1.34660E+03  9.63388E+03  8.09334E+03  2.56361E+03  1.04633E+04
 -4.61520E+02  1.70439E+04 -1.28826E+04  1.41233E+04 -1.90986E+04  6.19232E+03 -1.31518E+04 -2.62538E+03
 -9.32212E+03 -1.26994E+04  2.25127E+03 -1.24730E+04  3.82966E+03 -9.61127E+03  1.93984E+02 -4.73595E+03
  4.25041E+03  4.14039E+02  5.65999E+03 -5.85351E+03  1.23884E+03 -3.33304E+03  5.25002E+03  1.63051E+03
  4.34094E+03  3.60606E+03  2.63579E+03  7.70022E+03 -4.29967E+03  9.32767E+03 -8.92200E+03  4.70191E+03
 -7.28083E+03 -3.91010E+03 -9.73694E+02 -6.58830E+03 -2.90621E+02 -1.45597E+04  4.51250E+03 -1.21694E+04
  7.23182E+03 -5.78863E+03  1.39814E+04  1.50199E+03  8.40157E+03  5.85507E+03  2.70534E+03  1.24441E+04
 -4.71090E+03  1.22093E+04 -1.24335E+04  6.27343E+03 -4.20144E+03 -1.90878E+03  3.89824E+02 -3.46259E+02
 -1.13744E+03  2.14182E+03 -4.12913E+03  4.17915E+03 -8.46246E+03  5.85068E+03 -7.63337E+03 -3.89913E+03
 -5.18424E+03 -5.73681E+03 -2.09953E+03 -6.40571E+03  6.02722E+03 -1.27098E+04  2.49253E+03 -4.78325E+03
  6.24844E+03  5.02161E+03 -1.80815E+02  5.63449E+03 -3.07259E+03  9.53457E+03 -3.14451E+03  6.77638E+03
 -1.12229E+04 -2.47395E+02 -9.23478E+03 -3.17450E+03  1.99919E+03 -1.11892E+04  3.87556E+03 -1.08854E+03
  4.45798E+03 -3.96125E+02 -3.95718E+02 -4.58995E+03  1.50632E+03  4.21753E+03  6.05618E+03  2.55687E+03
 -2.53990E+03 -2.91311E+03 -1.90396E+03 -1.71204E+03 -1.23469E+03  5.30596E+03 -1.31412E+03  3.83266E+03
 -1.78155E+03  9.80985E+03 -4.72453E+03  1.05342E+04 -7.03278E+03  2.78733E+03 -8.69318E+03 -2.15857E+03
 -3.92014E+03 -2.19427E+03 -4.04199E+02 -6.38216E+03  6.25720E+03 -2.29445E+03  8.83009E+03 -2.42092E+03
  9.51657E+03  4.57590E+03 -3.27474E+02  8.73778E+03 -4.39026E+03  1.02972E+04  1.67916E+02  2.06911E+03
 -5.58947E+03 -3.63405E+03  1.58144E+02 -3.85096E+03  2.04941E+03  1.95162E+03  6.45674E+03 -1.99718E+02
  2.59904E+03  3.68652E+03  8.78089E+03  5.50649E+02  2.20527E+02 -2.10618E+03  1.87076E+03  1.50603E+03
 -6.18413E+02 -2.60879E+02  5.44321E+02 -3.12675E+02  3.57810E+03  3.18570E+03 -5.27988E+03  6.08198E+03
 -2.75166E+03  6.69964E+03 -9.24282E+02  2.42401E+03 -3.04732E+03 -2.16734E+03 -1.12097E+01 -5.26022E+03
 -2.29307E+03 -3.50676E+03  3.62347E+03  8.86098E+02  1.43429E+02  3.79781E+02 -2.42242E+03  2.23299E+03
 -2.39104E+03  6.96121E+03 -1.23329E+04 -2.31227E+03 -4.85115E+03 -5.16032E+03  3.17666E+03 -5.14799E+03
  4.98329E+03 -3.78723E+03  3.86931E+03  1.86367E+03  7.13502E+03  2.38888E+03 -2.26101E+03  8.73446E+02
 -3.28901E+03  9.06389E+02 -4.58820E+03 -5.26350E+02 -3.79229E+03 -2.81094E+03  1.77967E+03 -5.58210E+03
  1.22137E+03  2.47889E+03  1.19096E+03  9.33018E+02  2.49362E+03  5.86790E+03 -4.19546E+03  1.01229E+03
 -5.32799E+03  1.96384E+03 -6.64652E+02  4.57178E+03 -2.37633E+02 -6.72287E+03  2.25621E+03 -3.28919E+03
  8.75210E+03  2.01555E+03  2.97924E+03  2.03194E+03  2.76838E+03  2.72388E+03  4.65438E+03  2.06899E+03
 -6.33754E+03 -5.75592E+01 -1.34991E+03  4.64964E+03 -5.64652E+02 -2.02055E+03 -5.23891E+02 -1.65229E+03
 -1.18434E+02  1.51178E+03 -4.44408E+02 -2.40547E+03 -8.24676E+03 -3.17561E+03 -7.08571E+03 -2.03024E+03
 -2.49863E+03 -4.19541E+03 -1.66473E+03 -8.53194E+03  1.96936E+03 -6.74981E+03  1.25983E+04 -9.28225E+02
  8.55200E+03  5.73276E+02  3.47805E+03  7.69471E+02  1.91930E+03  2.63671E+03  1.24532E+03  6.22590E+03
 -1.01997E+04 -4.10860E+02  4.91162E+03  3.74778E+03  1.76938E+03  1.18006E+03 -1.54134E+03 -1.23275E+03
  1.83198E+02 -1.40317E+03 -2.50753E+03  1.53913E+03  1.43025E+03 -3.49297E+03 -1.05909E+03 -5.11365E+02
 -1.14824E+03  6.72854E+02  3.18639E+03 -1.39776E+03  7.57838E+03  3.34535E+03  4.58044E+03  4.14292E+03
 -5.41638E+03  9.18932E+03 -4.71804E+03  6.41309E+03 -7.11895E+03 -3.41767E+03 -5.28849E+03 -4.76684E+03
  3.41791E+03 -7.18310E+03  8.51576E+03 -1.01847E+04 -1.76848E+03 -9.58057E+02  3.86777E+03 -3.35289E+03
  6.13877E+02  7.41550E+03  2.00217E+03  1.81424E+02 -5.85264E+02  1.83280E+03  8.07551E+01 -2.85880E+03
  3.37297E+03  5.44589E+02 -5.90306E+03  2.22103E+02  1.57846E+03  4.53353E+03  1.09584E+03  3.00001E+02
  3.69317E+02  2.25632E+03  2.35667E+03  1.96763E+03  2.00045E+02 -1.80396E+03  6.87592E+02 -2.99163E+03
 -1.76692E+02 -1.34773E+03  2.33644E+03 -5.27761E+03  4.58438E+03 -8.43755E+02  2.29377E+03  1.38843E+03
 -4.31839E+03  3.69295E+03 -1.44795E+03  2.62295E+03 -2.22402E+03  5.09950E+03 -5.46250E+03 -1.28966E+03
  2.71826E+02  6.48835E+00 -3.88660E+03 -1.51823E+03 -8.47134E+03  1.29602E+03  2.51639E+02  3.22911E+03
 -3.50245E+03 -2.96965E+03  2.52143E+03 -3.18465E+03 -2.61354E+03 -6.42235E+03  4.03125E+03 -2.60982E+03
  4.03274E+03 -4.85074E+03 -5.23362E+01  2.51549E+03 -1.07210E+03  6.59665E+03 -9.35601E+03  5.98001E+02
