 $NMID ID='MM_0lb_SNR50_16hz_g40_78.RAW', FMTDAT='(8E13.5)'
 TRAMP=1., VOLUME=1. $END
  3.08522E+05  2.15121E+03  3.38640E+05  2.54585E+05  8.64483E+04  3.38527E+05 -1.32260E+05  2.52669E+05
 -1.91343E+05  8.09208E+04 -1.05360E+05 -3.24250E+04  7.71277E+02 -5.00681E+04  5.55347E+04 -2.51400E+03
  3.44292E+04  5.00640E+04 -1.63045E+04  7.58469E+04 -6.36134E+04  6.52900E+04 -8.23990E+04  3.18453E+04
 -7.87018E+04 -1.24576E+04 -5.27347E+04 -5.05028E+04 -1.48989E+04 -7.43399E+04  2.29504E+04 -4.42030E+04
  4.21920E+04  5.43581E+03  1.84284E+04  4.77246E+04 -3.65573E+04  4.64018E+04 -6.44544E+04 -9.65413E+02
 -5.28455E+04 -5.85594E+04 -7.18027E+03 -7.52352E+04  3.30467E+04 -5.56774E+04  4.79144E+04 -1.29276E+04
  3.94910E+04  1.21808E+04  2.90583E+04  3.09891E+04  1.31464E+04  2.69436E+04 -4.13816E+03  2.60624E+04
 -2.35917E+04  1.58348E+04 -1.71074E+04 -6.37902E+03  5.59922E+03 -9.94114E+03  2.07042E+04  9.69897E+03
  1.59610E+03  3.40594E+04 -3.10842E+04  3.46153E+04 -6.04448E+04  4.89849E+03 -6.19718E+04 -4.13656E+04
 -1.14509E+04 -6.04850E+04  3.75244E+04 -4.12607E+04  5.51582E+04 -3.70526E+03  3.15206E+04  3.48893E+04
 -4.10648E+03  3.45026E+04 -2.96821E+04  1.42265E+04 -3.14920E+04 -4.59599E+03 -1.49737E+04 -1.07185E+04
 -5.03046E+03 -1.20353E+04 -4.55028E+03 -1.76988E+04  9.66161E+03 -2.07439E+04  1.32105E+04 -1.18756E+04
  1.07447E+04  6.79710E+03 -8.91413E+03  1.48360E+04 -2.03599E+04 -4.22613E+03 -7.71749E+03 -3.42578E+04
  1.95823E+04 -4.48489E+04  4.87521E+04 -2.04465E+04  4.68857E+04  2.29156E+04  1.49957E+04  4.53378E+04
 -1.78804E+04  3.25190E+04 -2.42512E+04  9.84171E+02 -9.74752E+03 -2.67586E+04  2.21479E+04 -3.37657E+04
  4.17414E+04 -2.61762E+03  3.19022E+04  2.38340E+04  1.98158E+04  4.39475E+04 -6.87970E+03  4.54185E+04
 -2.72820E+04  3.17936E+04 -4.23279E+04  7.29981E+03 -4.01790E+04 -1.55315E+04 -2.56497E+04 -3.56471E+04
  9.56540E+03 -3.35809E+04  3.32846E+04 -8.94758E+03  3.30855E+04  1.21708E+04  5.24908E+03  2.14263E+04
 -1.92852E+04  3.53549E+03 -1.18228E+04 -5.73578E+03  3.32082E+02 -1.11988E+04  1.49644E+04 -6.08648E+01
  1.26208E+04  2.68124E+04 -9.54328E+03  2.03201E+04 -2.08566E+04  8.01950E+03 -2.89389E+04 -3.88792E+03
 -1.44108E+04 -1.20384E+04 -6.78195E+03 -1.83058E+04  8.15428E+02 -1.45276E+04  1.36081E+04 -1.64482E+04
  2.41956E+04 -1.08037E+04  2.59638E+04  1.81715E+03  2.42406E+04  1.71037E+04  3.25997E+03  3.33870E+04
 -2.21878E+04  2.61612E+04 -2.42422E+04  1.10901E+04 -1.79469E+04 -1.14928E+04  1.25537E+03 -1.17556E+04
  1.43077E+03 -6.56668E+03 -3.72123E+03  8.95654E+03 -1.26706E+04  6.99696E+03 -1.66300E+04 -4.09184E+03
 -6.79803E+03 -1.56945E+04  3.11147E+03 -1.99648E+04  1.13386E+04 -1.12123E+04  1.24602E+04 -1.21242E+03
  8.36735E+03  8.38929E+03 -1.36681E+02  2.03138E+04 -1.21623E+04  9.07958E+03 -1.42276E+04 -3.42735E+03
 -1.03260E+04 -1.59067E+04  9.60088E+02 -2.02563E+04  1.00642E+04 -1.74637E+04  1.38608E+04 -1.29226E+04
  1.50531E+04 -1.89496E+03  1.20159E+04  1.02675E+03  4.98380E+03 -6.66495E+02  1.03661E+04 -4.09418E+02
  1.74331E+04 -2.54763E+02  1.73297E+04  1.38920E+04  1.21137E+04  2.64518E+04  7.00912E+02  2.77936E+04
 -2.25320E+04  2.18447E+04 -2.75913E+04  1.62004E+04 -3.12449E+04 -4.40344E+03 -2.85793E+04 -1.36548E+04
 -1.63726E+04 -1.72289E+04  1.09524E+04 -1.95918E+04  1.67273E+04 -1.20208E+04  1.47197E+04  6.21522E+03
  3.98727E+03  1.07588E+04 -6.53376E+03  1.46370E+04 -1.50189E+04  3.04950E+03 -1.50793E+04 -7.08510E+03
  9.77848E+02 -1.28528E+04  6.31596E+03 -8.64315E+03  8.52298E+03 -2.22782E+03  1.56897E+03  4.97197E+03
 -5.29813E+03  2.46256E+03 -4.95363E+03 -5.16572E+03 -5.01163E+01 -1.45470E+04  5.54011E+03 -1.28182E+04
  1.29185E+04 -3.56081E+03  1.24310E+04  2.52821E+03  1.00771E+04  1.01975E+04  8.38482E+03  1.69110E+04
  3.67610E+03  1.46524E+04 -1.05208E+04  1.29179E+04 -1.55588E+04  1.47910E+03 -1.37226E+04 -1.99694E+03
 -7.74297E+03 -6.42327E+03  4.10993E+02  2.97816E+03 -8.35163E+02  2.51039E+03 -6.84405E+03  6.48928E+03
 -7.37949E+03 -3.38627E+03 -1.01462E+04 -8.54300E+03 -5.69541E+03 -9.37268E+03  5.48155E+02 -1.14088E+04
  3.85225E+03 -2.31662E+03  6.24973E+03  1.78918E+03  4.11811E+03  2.46297E+03 -1.06649E+03 -6.91354E+02
 -7.47121E+03 -7.71310E+03 -5.45348E+03 -1.40848E+04  4.17232E+02 -5.79171E+03  1.25107E+04 -6.71715E+03
  9.58920E+03  2.59751E+01  1.14876E+04  1.08821E+04  8.44650E+02  1.21973E+04 -7.31403E+03  1.36467E+04
 -4.82883E+03  4.07204E+03 -1.18126E+03 -3.22753E+03  1.87925E+03 -3.39043E+02  6.72414E+03 -2.11010E+03
  3.04335E+03  2.43697E+03  4.25754E+03 -4.27500E+02 -1.32961E+03  7.72594E+03 -5.70784E+03 -7.11404E+02
 -4.40042E+03 -4.94490E+03 -8.04916E+02 -8.46959E+03  2.01025E+03 -7.71906E+03  2.30661E+03  1.64137E+03
 -6.62716E+02  1.25727E+03 -1.24008E+03  5.47949E+03 -7.66570E+03  3.56335E+03 -1.15411E+04 -8.45965E+02
 -4.26671E+03 -7.66453E+03  6.59608E+02 -3.89611E+03  6.58749E+03 -7.68784E+03  6.50067E+03  4.40892E+02
  9.80299E+03  2.33586E+03  2.12487E+02  9.98569E+03 -3.52208E+03  6.53082E+03 -4.89132E+03  7.66238E+02
 -4.23748E+03 -4.90972E+03  6.20869E+03 -5.82431E+03  4.68387E+03 -4.55539E+03  3.33825E+03 -3.22404E+03
  2.31330E+03  2.52676E+03 -2.83876E+03 -8.92627E+02 -2.72028E+03 -2.16828E+03  5.15559E+03  1.13357E+03
  1.00070E+03  2.27375E+03  1.00334E+04  2.72413E+02  7.10133E+03  3.52365E+03  4.90448E+03  9.17048E+03
 -5.04233E+03  1.38535E+04 -7.86926E+03  8.09674E+03 -1.05445E+04 -1.42065E+03 -7.67409E+03 -3.98709E+03
 -5.04509E+03 -5.92734E+03 -2.34930E+03 -3.29855E+03  1.04995E+03 -1.17820E+01 -1.88522E+02 -3.25493E+03
  1.21864E+02  6.82816E+02  2.12498E+03  3.77592E+03  4.57154E+03 -9.67581E+02  4.70032E+03 -3.19852E+03
  5.23760E+03 -2.23840E+03  1.51931E+03  4.49131E+03 -1.89423E+03  6.59477E+03 -4.21404E+03  3.83732E+03
 -8.92380E+03 -4.71518E+03  1.95913E+03 -6.19586E+03 -5.73051E+02 -4.96749E+03  3.74762E+03 -2.16754E+03
  7.33489E+03 -7.70399E+03  6.93383E+03 -9.77522E+02  9.03522E+02  6.26624E+03  6.15658E+03  5.79221E+03
 -4.37976E+03  7.48075E+03 -3.73923E+02  3.25389E+03 -1.22870E+03 -2.16572E+03 -3.83231E+03  4.33020E+03
  1.75184E+03 -1.61512E+03 -3.56535E+03  4.33989E+03 -4.31932E+03  1.98360E+03 -4.74386E+03  1.61272E+03
 -5.05996E+03 -3.01453E+03 -1.78855E+03 -5.09471E+03  1.59019E+03 -5.81360E+03  7.89663E+03 -4.90349E+03
  1.04635E+04  7.82325E+03 -2.88556E+02  6.29851E+03 -4.19814E+03  7.51778E+03 -4.17753E+03  1.31126E+03
 -2.55030E+03 -9.18239E+02 -5.38260E+03  2.38552E+03  1.86565E+02 -2.18806E+03  3.80749E+03 -3.12239E+03
  8.50137E+03 -2.07788E+03  2.32239E+03 -8.69583E+02 -2.71218E+03  2.00843E+03 -1.84091E+02  9.62712E+02
  5.46451E+03 -3.31428E+03  1.72382E+03  2.66651E+03 -6.76421E+02  2.78279E+03  4.08559E+03  6.66157E+03
 -1.31104E+03  7.81675E+03 -6.32816E+03  4.18922E+03 -1.14986E+03  2.19338E+03 -5.03432E+03 -4.43687E+03
 -9.89391E+02 -5.68869E+03 -1.36150E+03 -6.54551E+03  5.87905E+02 -4.13406E+03  5.28368E+03 -4.07770E+03
 -1.03779E+03  1.52591E+03  5.38083E+02  1.34753E+03  1.65471E+03  5.24176E+03  2.02219E+03 -1.38045E+03
 -1.94107E+03 -1.14622E+03  3.13041E+03  1.35699E+03  4.14995E+03 -4.40080E+03  2.58677E+03  1.18373E+03
  3.32617E+01 -5.83757E+01  1.39746E+02  2.20542E+02 -3.58632E+03 -2.88065E+03  3.45756E+03  2.88027E+03
  3.67397E+01  3.35927E+03  4.25351E+03  3.40790E+03 -4.14913E+02  1.93658E+03  5.30402E+02  3.76204E+03
 -4.43372E+03 -2.08960E+02 -2.49344E+03  1.71641E+03 -1.91500E+03 -1.57633E+03  9.63722E+02  1.80052E+02
  6.88926E+02  3.36100E+03  1.75932E+03  8.98806E+02 -7.54002E+02 -2.43197E+02 -1.78635E+03  1.44125E+02
 -3.67607E+03  3.40059E+03  7.70327E+02 -2.56127E+03 -1.67120E+03 -1.61463E+03 -1.12296E+03 -3.54594E+03
  9.54868E+02 -4.86384E+03  3.22880E+03  4.52942E+03  3.96705E+03 -6.63706E+02  2.30078E+03 -2.54887E+03
 -4.06505E+03 -1.62875E+03  1.82128E+03 -4.44643E+02  2.65640E+03 -8.44216E+03 -7.34549E+03  2.24923E+03
  5.90945E+02  1.23822E+03  5.65350E+03  1.79001E+03  3.35566E+03  2.02804E+03  7.18446E+02  7.90799E+03
  1.29322E+03  4.35155E+03 -6.87207E+03 -1.63517E+03  3.05166E+03  1.31447E+03  4.57859E+01  7.24663E+01
  4.16841E+02 -3.32581E+03 -1.95060E+02  5.67290E+03 -1.52225E+03 -1.06465E+03 -2.12964E+03  1.41212E+03
 -3.60258E+03  1.21798E+03  8.08421E+02  6.09790E+03 -1.63081E+02 -4.71867E+03 -2.82822E+03  3.07765E+01
 -4.67352E+03  1.13427E+02  7.03781E+02  1.22078E+03  3.32758E+03 -1.19915E+03 -4.64543E+03 -4.42269E+03
 -2.26966E+03 -8.21501E+02  5.49104E+03 -3.74167E+03  2.06973E+03 -7.07797E+03  2.76925E+03 -5.58901E+02
  9.58813E+02 -3.00820E+03  3.81187E+03  2.77760E+03 -2.53941E+03  1.93245E+03  1.68464E+03  2.94169E+03
 -1.60730E+03 -4.25087E+02 -3.78026E+03  1.65389E+03 -1.34477E+03 -3.52795E+03 -2.76555E+03 -1.98056E+03
 -2.04992E+03  4.26710E+03  3.15184E+03 -2.55604E+03  2.59023E+03  1.45146E+03  4.72761E+02 -2.77772E+03
 -3.04576E+03  9.17473E+02  5.36993E+03  5.65579E+03  3.79148E+03  3.20718E+02  3.62662E+03  1.62386E+03
  5.20275E+02 -4.35596E+02 -5.64935E+03  4.26664E+03 -5.22708E+03 -2.36045E+03  4.33898E+03 -1.76999E+02
 -5.28249E+02 -4.01213E+03 -4.80949E+02 -2.39679E+03  2.58389E+03 -9.77659E+02  1.01085E+03  1.25967E+03
  1.88231E+03  4.05034E+02  1.30729E+03  1.74268E+03 -1.39786E+03 -1.40119E+03 -1.97343E+03 -2.82449E+02
 -7.58391E+02 -2.61020E+03 -1.77531E+03  3.23430E+03  1.92067E+03  5.02175E+02  3.13245E+03  6.52658E+02
 -3.57141E+03  1.08461E+03  3.93193E+02 -1.38892E+03 -1.57201E+03  7.03639E+02 -2.43155E+03 -3.24441E+03
  1.34716E+02 -3.93634E+03 -1.85649E+03 -2.29183E+03  2.48313E+01 -2.74500E+03 -6.59420E+02  1.33519E+03
  4.84765E+03 -3.22585E+03 -2.20394E+03  3.98233E+03 -4.03560E+03  1.60483E+03 -1.26817E+03 -5.09981E+02
 -3.21192E+03  1.15710E+03 -1.71217E+03  2.82418E+03 -5.84195E+02 -2.99212E+03 -9.15444E+02  1.30422E+03
  1.94627E+03 -1.46365E+03 -3.76652E+03 -5.45957E+03 -6.94903E+02 -6.09957E+03 -1.67871E+03 -1.98655E+03
 -1.87211E+03  1.17348E+03 -1.16927E+03 -1.91161E+03  3.01827E+03  2.58812E+03 -3.18402E+03  5.47180E+03
