 $NMID ID='MM_0lb_SNR50_13hz_g60_87.RAW', FMTDAT='(8E13.5)'
 TRAMP=1., VOLUME=1. $END
  3.08918E+05 -1.05963E+02  3.42133E+05  2.50507E+05  8.40589E+04  3.34975E+05 -1.38549E+05  2.48003E+05
 -1.95612E+05  8.44666E+04 -1.09512E+05 -3.59253E+04  5.79125E+02 -5.04085E+04  5.32626E+04 -4.13042E+03
  3.98054E+04  5.31229E+04 -1.54888E+04  7.14483E+04 -6.12189E+04  6.68031E+04 -8.76184E+04  3.67050E+04
 -8.19066E+04 -1.51277E+04 -5.77509E+04 -5.11277E+04 -1.65243E+04 -7.50420E+04  3.07923E+04 -4.31227E+04
  3.57039E+04 -1.20587E+03  1.46567E+04  4.65075E+04 -3.31225E+04  5.19369E+04 -6.65771E+04 -3.65677E+03
 -5.83656E+04 -5.70784E+04 -1.09435E+04 -7.88910E+04  3.46502E+04 -5.99575E+04  5.47343E+04 -1.51900E+04
  4.63596E+04  1.42860E+04  3.07896E+04  2.45189E+04  1.41706E+04  2.97360E+04  1.07799E+02  3.15455E+04
 -2.32897E+04  1.21530E+04 -1.64365E+04 -3.59587E+03  6.87247E+03 -6.48228E+03  2.42351E+04  1.78206E+04
  9.17306E+03  3.68276E+04 -3.17520E+04  3.34787E+04 -6.67840E+04  9.73328E+02 -6.17804E+04 -4.32420E+04
 -1.22133E+04 -6.55540E+04  3.77744E+04 -4.44852E+04  6.41954E+04 -2.27344E+03  3.95733E+04  3.37512E+04
 -3.05373E+03  4.03153E+04 -3.08889E+04  1.25570E+04 -2.93713E+04 -4.72882E+03 -1.68348E+04 -1.26987E+04
 -7.96917E+03 -1.14332E+04 -8.34927E+02 -2.18853E+04  7.54828E+03 -2.39634E+04  1.83344E+04 -1.25437E+04
  1.07896E+04  4.89832E+03 -1.36980E+04  1.12703E+04 -2.22555E+04 -6.11663E+02 -1.63489E+04 -3.41798E+04
  3.07540E+04 -4.32843E+04  5.16093E+04 -2.66365E+04  4.91707E+04  2.08777E+04  1.57183E+04  5.13974E+04
 -2.05852E+04  3.70398E+04 -2.71835E+04  4.18129E+02 -1.57082E+04 -2.52795E+04  2.17202E+04 -3.34458E+04
  4.04253E+04 -8.56773E+03  3.83819E+04  2.85509E+04  1.99959E+04  5.04001E+04 -6.27981E+03  4.73153E+04
 -3.26247E+04  3.50998E+04 -4.31078E+04  1.04428E+04 -5.12706E+04 -1.53776E+04 -2.24271E+04 -3.81333E+04
  5.01921E+03 -4.19081E+04  3.25526E+04 -1.72698E+04  3.11911E+04  8.73787E+03  2.35376E+03  2.06063E+04
 -1.31576E+04  7.77681E+03 -1.91469E+04 -8.12221E+03  4.86084E+03 -1.13697E+04  2.23693E+04  4.23664E+03
  1.74433E+04  1.90365E+04 -8.09692E+03  2.48663E+04 -1.97299E+04  1.58395E+04 -3.41773E+04 -7.92545E+03
 -2.47310E+04 -1.93854E+04 -8.90205E+03 -2.32386E+04  6.72194E+03 -2.08114E+04  1.74369E+04 -1.65498E+04
  3.20756E+04 -1.57821E+04  3.33138E+04  1.28674E+03  2.62661E+04  2.07500E+04  2.51484E+03  4.08404E+04
 -2.25885E+04  2.90077E+04 -2.53795E+04  1.38389E+04 -2.45147E+04 -7.58098E+03 -4.13748E+03 -6.39798E+03
  3.44911E+03  9.82253E+02 -8.47797E+03  4.98116E+03 -2.00143E+04  5.21600E+03 -2.35761E+04 -6.99199E+03
 -8.97105E+03 -1.90306E+04  5.68972E+03 -2.51380E+04  1.95308E+04 -1.58870E+04  1.92012E+04 -9.77743E+03
  1.26301E+04  1.94365E+04 -1.66893E+03  2.43217E+04 -1.00987E+04  6.24238E+03 -1.69359E+04 -5.44392E+03
 -1.83265E+04 -2.09067E+04  1.76312E+03 -2.24360E+04  1.14165E+04 -1.94525E+04  2.28363E+04 -1.17442E+04
  1.80053E+04 -3.08205E+03  2.01066E+04  5.96917E+03  7.93678E+03 -2.22360E+02  1.52159E+04 -2.41567E+03
  2.26566E+04  6.53820E+03  2.49420E+04  1.48777E+04  1.51123E+04  2.92676E+04 -1.75186E+03  3.71087E+04
 -1.62237E+04  2.56255E+04 -3.20945E+04  1.81877E+04 -4.27793E+04 -3.16632E+03 -2.59773E+04 -2.22211E+04
 -1.60951E+04 -3.07285E+04  1.45890E+04 -3.17720E+04  3.05215E+04 -1.52033E+04  2.28317E+04  1.37228E+03
  7.65336E+03  1.80888E+04 -1.27432E+04  1.79511E+04 -1.28590E+04  4.77358E+03 -1.34942E+04 -1.13902E+04
 -7.57303E+02 -1.92247E+04  1.15007E+04 -1.36457E+04  1.32894E+04 -3.34675E+03  5.85076E+03  2.35862E+03
 -2.79271E+03  1.49696E+03 -5.39274E+03 -4.90934E+03 -2.12022E+03 -1.43432E+04  1.24706E+04 -1.49330E+04
  1.77130E+04 -9.33790E+03  2.28343E+04  3.73429E+02  2.21728E+04  1.47704E+04  7.53241E+03  2.16624E+04
 -4.76967E+03  2.33953E+04 -1.72630E+04  1.86703E+04 -2.16351E+04  1.02409E+04 -1.07499E+04 -6.71605E+03
 -7.30917E+03 -4.68752E+03  3.52650E+03  6.76270E+02  1.87726E+03  2.86968E+03 -6.49961E+03  4.43552E+03
 -8.60692E+03 -2.04286E+03 -8.96933E+03 -1.15891E+04 -7.70904E+03 -1.31336E+04  2.61902E+03 -1.28621E+04
  1.10551E+04 -1.71302E+03  3.56860E+03  6.15109E+03 -3.29557E+03  1.59551E+03 -6.89983E+03  5.83939E+03
 -7.08831E+03 -8.52729E+03 -1.27757E+03 -1.11444E+04  8.76284E+03 -8.42313E+03  1.58313E+04 -7.45967E+03
  2.05056E+04  1.64464E+03  7.89292E+03  1.26040E+04  6.47077E+03  1.76156E+04 -1.06104E+04  1.25307E+04
 -1.57147E+04 -1.30181E+03 -4.05129E+03 -9.68541E+02  3.94525E+03 -1.12658E+03  4.88972E+03  4.36687E+02
  6.43612E+03  1.34061E+03  4.20529E+03  5.61995E+03 -1.07979E+04  1.19741E+04 -7.43894E+03 -7.48774E+02
 -9.95240E+03 -4.33289E+02  1.19113E+03 -1.30177E+04  7.93144E+03 -2.09939E+03  6.74017E+03  6.90493E+03
  1.80653E+03  9.37134E+03 -6.24291E+03  4.44257E+03 -7.06033E+03  4.89488E+03 -4.99558E+03 -2.43996E+03
 -6.24501E+03 -1.42088E+04  2.49227E+03 -1.33948E+04  2.05185E+04 -4.03154E+03  1.61413E+04 -7.43967E+01
  9.17298E+03  1.38949E+04  3.96483E+02  1.05128E+04 -1.14153E+04  9.13135E+03 -8.05875E+03 -4.18929E+03
 -7.42676E+03 -9.89996E+03  1.83355E+01 -1.24537E+04  4.52006E+03 -1.00706E+04  7.45079E+03 -6.87817E+03
  5.31359E+03  4.13073E+03 -3.15507E+03  1.68976E+03 -9.35789E+02 -5.60084E+03  3.11331E+03 -8.00457E+03
  1.07333E+04  8.18606E+02  5.66487E+03 -3.47432E+03  1.33118E+04  7.10876E+03  8.41421E+03  1.43733E+04
 -7.26309E+03  1.97530E+04 -1.39795E+04  1.53174E+04 -1.97325E+04  6.37899E+03 -1.35084E+04 -6.81491E+03
 -1.03470E+04 -1.50980E+04  6.36286E+02 -8.76551E+03  2.75048E+03 -1.35647E+03  3.61705E+03 -1.58768E+03
  1.42587E+03 -4.69977E+03 -1.52620E+03 -6.39947E+03  2.62309E+03 -5.37040E+03  7.52427E+03  6.27598E+03
  7.42997E+03  7.53901E+02  5.74108E+03  5.18368E+03  4.76189E+03  3.25609E+03 -9.44555E+03  3.35640E+03
 -1.05141E+04 -5.71120E+02 -6.24973E+03 -1.09795E+04 -7.18929E+03 -6.95997E+03  7.66956E+03 -1.04422E+04
  1.47060E+04 -8.72318E+03  1.37109E+04  2.19569E+03  1.27684E+04  5.38833E+03  1.43433E+01  1.52041E+04
 -1.00210E+04  1.40486E+04 -7.12732E+03  2.51060E+03 -3.55387E+03 -1.28833E+03 -1.14550E+03 -3.89054E+03
 -2.38859E+03  3.63933E+03 -2.69108E+03  9.30079E+03 -2.79480E+03  3.73973E+03 -1.35809E+04  1.44674E+03
 -9.72322E+03 -3.33055E+03  2.30852E+03 -7.41728E+03  8.12601E+03 -6.95694E+03  8.08640E+03 -2.52681E+03
  1.02569E+04  7.68605E+03  4.02664E+03  8.25310E+03 -2.98820E+03  9.19699E+03 -4.32737E+03  9.76407E+03
 -1.19062E+04  4.91368E+03 -7.36576E+03 -9.05019E+03 -6.41245E+02 -9.16090E+03  4.86485E+03 -9.20630E+03
  5.05687E+03 -3.37268E+03  4.83215E+03 -3.96034E+02  4.74049E+03  3.89540E+03  6.65264E+02  5.32373E+03
 -7.39330E+02  2.41988E+03  1.32305E+03  5.13461E+03  4.66052E+02  2.11152E+03  3.97930E+02  6.35780E+03
 -4.17849E+02  6.71090E+03 -6.14091E+03  8.44387E+03 -9.70007E+03  7.19818E+03 -9.58101E+03 -5.29360E+03
 -1.10880E+04 -7.11363E+03  1.10291E+03 -1.14882E+04  3.89767E+03 -4.59791E+03  5.48305E+03 -3.85508E+03
  6.94683E+03 -1.38530E+03  4.68604E+03  1.95521E+03 -8.04491E+02  5.17454E+03 -1.91053E+03  2.10027E+03
 -3.61758E+03 -5.63024E+03  5.36164E+03 -1.63462E+03  3.52647E+03  1.37825E+03  2.93543E+03 -2.16219E+03
  1.86411E+03  1.20753E+03  1.50101E+03  4.31724E+03 -4.39658E+03  5.59949E+03  1.56821E+03  3.29232E+03
  2.35948E+03 -3.59480E+03  5.40093E+03 -1.57826E+03  1.02072E+04  7.17480E+03  1.09435E+03  7.57330E+03
 -3.81714E+03  6.82803E+03 -7.02683E+03  3.91315E+03 -3.54620E+03 -5.88117E+03 -3.92051E+03 -2.70177E+03
  3.19117E+03 -2.41985E+03  6.60246E+03 -3.20345E+03  4.60502E+02  4.82495E+03  4.56480E+03  1.64105E+03
 -5.24034E+03 -7.76835E+02 -1.09912E+04 -4.95272E+03 -3.61461E+03 -6.10405E+03  3.44595E+03 -9.90116E+03
  5.45618E+03 -1.10728E+03  1.94787E+03 -6.30931E+03  4.90746E+03  1.64550E+03  7.50689E+02  3.32738E+03
  4.90971E+02 -2.40357E+03 -3.11124E+03 -4.07078E+03  5.99632E+03 -1.06627E+03  3.62409E+03 -1.66241E+03
  3.51776E+03 -7.78256E+03  5.58088E+03  2.41059E+03  1.09748E+03  7.13362E+03 -1.95870E+03  3.75370E+03
  1.04425E+02  1.31682E+03 -3.03274E+02  4.27684E+03 -4.20691E+03 -2.96678E+03  2.94467E+03  1.44055E+03
 -1.27335E+02 -3.63642E+03  3.39922E+03  2.79220E+03  5.36920E+02 -1.13171E+03 -1.90786E+03  4.41942E+03
  4.78273E+02 -2.26192E+03 -5.03749E+03 -8.03472E+03  1.53046E+03  2.49195E+02 -3.40641E+03  4.90517E+03
  1.86304E+03 -1.66124E+03 -6.98491E+03 -2.72711E+02 -6.63953E+03 -1.79070E+03 -1.70386E+03 -5.04265E+03
 -8.76537E+03 -6.80841E+03 -1.41485E+03 -1.54778E+04  3.67265E+03 -9.46831E+03  1.52452E+04 -4.36613E+03
  4.21888E+03 -2.36047E+02  4.35082E+03  4.97510E+03 -1.87319E+00  7.93042E+03 -5.54095E+03  2.37836E+03
 -3.82245E+03  2.21461E+03  4.68127E+03 -2.47604E+03 -1.57379E+03  3.66962E+02 -8.36736E+02 -1.91941E+03
  5.53602E+03  1.36935E+03 -5.68024E+02 -7.61274E+02 -2.02648E+03 -4.39447E+03 -4.65707E+03 -4.33414E+03
  2.19052E+03  3.68957E+03  6.08427E+03  2.29196E+03  6.00777E+03 -2.25103E+03  1.29277E+03  2.55141E+03
 -2.08230E+03  7.92341E+03 -9.79536E+03  1.35251E+03 -3.59294E+03 -2.56172E+02 -5.85817E+03 -4.71885E+03
  2.57324E+03 -3.05413E+03 -4.22877E+02 -4.56836E+03  2.33022E+03 -1.11410E+03  1.77789E+03  1.52298E+03
  2.57613E+03 -1.89399E+03  1.48755E+03 -5.28637E+03 -3.46073E+03 -1.27461E+03 -6.89116E+02 -7.86637E+01
  3.41104E+03 -2.61594E+01  9.78091E+02 -3.87118E+03 -1.04669E+01 -2.47941E+03  5.07864E+03  2.23855E+03
  1.62666E+03  5.61249E+03 -2.42012E+03 -2.66877E+03 -3.77296E+03 -4.82520E+03  1.59890E+03 -3.90163E+03
  5.33713E+03 -3.16785E+03  5.30807E+03  1.52220E+02  8.50778E+03  1.19564E+02  2.66719E+03 -5.12012E+02
  2.14002E+03 -3.56581E+02 -4.49313E+03  2.48271E+03 -6.18745E+02  5.04296E+03 -1.96992E+03  3.38311E+03
  3.20914E+03  1.04023E+03  1.34598E+03  1.78943E+03 -2.33084E+03 -6.82690E+03 -5.67072E+03 -4.80179E+03
  1.31756E+02  9.87950E+02 -3.55644E+03 -1.94944E+03 -2.35541E+03 -3.61740E+03  4.27202E+03 -2.01572E+03
  3.30810E+03  2.24879E+03 -7.17759E+02 -3.88746E+02 -2.26150E+03 -1.54538E+03 -7.61479E+02 -1.99183E+03
