 $NMID ID='MM_0lb_SNR50_10hz_g45_85.RAW', FMTDAT='(8E13.5)'
 TRAMP=1., VOLUME=1. $END
  3.07790E+05  1.15494E+03  3.38605E+05  2.53656E+05  8.54016E+04  3.42087E+05 -1.38428E+05  2.52353E+05
 -1.86776E+05  8.51024E+04 -1.14469E+05 -3.48520E+04 -2.29226E+03 -4.62272E+04  5.00880E+04  8.62423E+02
  3.96494E+04  5.08774E+04 -1.27460E+04  7.49938E+04 -5.86766E+04  6.18234E+04 -8.34708E+04  3.25180E+04
 -8.28073E+04 -9.05790E+03 -6.15240E+04 -5.34652E+04 -1.07751E+04 -7.26734E+04  3.09715E+04 -4.70450E+04
  3.73692E+04 -1.01571E+03  1.26701E+04  4.84209E+04 -3.66942E+04  5.21164E+04 -6.37168E+04  4.43158E+03
 -5.30179E+04 -6.24381E+04 -4.17264E+03 -7.05222E+04  3.20342E+04 -6.18926E+04  4.98971E+04 -2.28569E+04
  4.38849E+04  1.73598E+04  3.42974E+04  2.48135E+04  1.54156E+04  2.46915E+04 -2.54463E+03  2.56487E+04
 -1.99364E+04  1.16901E+04 -2.15872E+04 -4.72868E+03  3.87195E+03 -5.72977E+03  2.50012E+04  2.23152E+04
  6.26037E+03  4.01506E+04 -3.33721E+04  4.09842E+04 -6.80025E+04  4.02097E+03 -6.29803E+04 -4.52878E+04
 -1.16527E+04 -6.25226E+04  4.30009E+04 -4.82229E+04  5.84061E+04  1.95855E+03  3.34010E+04  4.07462E+04
 -9.38587E+03  4.14628E+04 -2.65091E+04  1.60003E+04 -3.69402E+04 -6.29722E+03 -1.69648E+04 -1.44150E+04
 -1.32844E+04 -1.56091E+04  1.49593E+03 -1.64068E+04  2.68520E+03 -2.35804E+04  1.97616E+04 -1.29103E+04
  1.18218E+04  6.70421E+03 -1.22562E+04  1.61254E+04 -2.27509E+04 -6.05210E+03 -4.42527E+03 -2.92607E+04
  2.41799E+04 -4.40549E+04  5.46828E+04 -2.54166E+04  5.04544E+04  1.87247E+04  2.69913E+04  4.41919E+04
 -1.29668E+04  3.43375E+04 -2.59426E+04 -1.04430E+02 -1.35921E+04 -2.95400E+04  2.53661E+04 -3.37584E+04
  4.18576E+04 -3.80558E+03  3.23959E+04  2.22352E+04  1.86390E+04  4.84029E+04 -9.05302E+03  5.51632E+04
 -3.34302E+04  3.55329E+04 -4.30381E+04  1.38632E+04 -4.33436E+04 -2.25196E+04 -2.05879E+04 -3.95633E+04
  6.05454E+03 -3.70402E+04  3.58109E+04 -1.48002E+04  3.20827E+04  1.32298E+04  5.45349E+03  1.88475E+04
 -1.92758E+04  1.00196E+04 -5.58281E+03 -7.57825E+03  9.92829E+03 -1.30227E+04  1.94451E+04  3.24649E+03
  1.93483E+04  1.74479E+04 -7.33227E+03  3.02741E+04 -2.14460E+04  1.74257E+04 -3.13762E+04  2.28603E+03
 -2.68929E+04 -1.88394E+04 -1.28971E+04 -2.43156E+04  6.22946E+03 -2.16769E+04  1.64686E+04 -2.04560E+04
  3.28804E+04 -1.17540E+04  3.56697E+04 -4.26887E+03  2.55919E+04  1.96390E+04  1.06080E+04  3.42367E+04
 -2.26256E+04  3.16472E+04 -2.72868E+04  8.05373E+03 -1.80357E+04 -1.18456E+04 -3.53045E+03 -1.43470E+04
  5.76647E+03  1.59004E+03 -4.37220E+03  7.57530E+03 -1.49934E+04  1.94037E+03 -2.09964E+04 -1.32900E+04
 -7.89363E+03 -1.66683E+04  1.53648E+03 -2.55895E+04  2.03233E+04 -1.83170E+04  2.46416E+04 -6.81397E+03
  8.33722E+03  1.82527E+04  2.50047E+03  2.12095E+04 -1.66370E+04  1.52860E+04 -1.85243E+04 -1.03769E+04
 -2.19417E+04 -2.00042E+04 -4.87685E+02 -3.15353E+04  9.70652E+03 -1.82619E+04  2.24655E+04 -3.02662E+03
  1.82372E+04 -5.81035E+03  1.52370E+04  8.68435E+02  1.02150E+04  4.59330E+03  1.33849E+04  3.26998E+03
  1.84428E+04  6.91606E+03  2.28903E+04  1.55321E+04  1.52846E+04  3.73538E+04  4.41902E+03  4.01453E+04
 -2.24123E+04  3.75557E+04 -3.95552E+04  1.82632E+04 -4.26126E+04 -2.03650E+03 -3.53517E+04 -1.88489E+04
 -1.38082E+04 -2.91210E+04  9.54101E+03 -3.16120E+04  2.03917E+04 -1.73872E+04  2.44234E+04  5.16142E+03
  1.09475E+04  1.73350E+04 -1.39352E+04  1.30446E+04 -1.91343E+04  6.17218E+03 -2.04071E+04 -1.19991E+04
  1.97647E+02 -1.65437E+04  5.22610E+03 -1.29629E+04  8.08268E+03 -2.25080E+03  3.79208E+02  1.26597E+04
 -1.00589E+04  5.51406E+03 -8.76508E+03 -9.53017E+03 -1.41563E+03 -1.52965E+04  1.47339E+04 -1.99996E+04
  2.34686E+04 -9.71993E+03  2.51835E+04 -3.93869E+03  2.08146E+04  2.05787E+04  3.25163E+03  3.01646E+04
 -2.36316E+03  2.70453E+04 -2.46770E+04  1.51438E+04 -2.15707E+04 -3.98857E+03 -2.08136E+04 -4.06295E+03
 -6.87954E+03 -1.28911E+04 -2.36605E+03 -1.92701E+03 -8.82255E+03 -1.26692E+03 -7.92342E+03  3.44606E+03
 -1.13196E+04 -1.46340E+03 -1.66923E+04 -1.23082E+04 -4.88520E+03 -1.49436E+04  6.02999E+03 -1.28973E+04
  1.48465E+04 -7.58881E+03  1.12855E+04  7.35549E+03 -5.98382E+03  1.21492E+03 -6.10010E+03  4.92631E+03
 -9.78627E+03 -1.22608E+04 -2.43497E+03 -1.65593E+04  7.08698E+03 -1.03885E+04  2.46173E+04 -1.10437E+04
  2.17761E+04  1.00460E+04  1.01687E+04  1.16039E+04  3.57542E+03  1.62906E+04 -5.98772E+03  1.26220E+04
 -1.07819E+04  2.35620E+03 -1.04392E+03 -1.52619E+03  1.82000E+02  1.61735E+03  7.29114E+03 -4.03552E+03
  4.56407E+03  6.61628E+03  1.33033E+03  1.13634E+04 -1.40777E+04  1.04009E+04 -1.36398E+04  2.57964E+01
 -5.45163E+03 -5.49143E+03 -3.57983E+03 -1.02958E+04  2.73174E+03 -7.43045E+03  1.15607E+04  3.64191E+03
  1.66853E+03  6.21680E+03 -5.16912E+03  9.06609E+03 -8.61245E+03  4.23254E+03 -1.02127E+04 -7.19655E+03
 -4.45463E+03 -4.65492E+03 -1.31924E+03 -1.66981E+04  7.55060E+03 -1.04614E+04  1.58647E+04 -9.46537E+02
  6.22494E+03  1.20520E+04 -3.02613E+03  1.34856E+04 -1.29197E+04  6.60643E+03 -1.41001E+04 -6.76522E+02
 -4.99418E+03 -7.38742E+03  1.02684E+03 -8.64343E+03  4.78827E+03 -1.91532E+04  6.60580E+03 -5.76462E+03
 -2.72639E+02 -1.94877E+03  2.65524E+03  5.89851E+03  7.36448E+02 -2.63384E+03  3.96130E+03 -5.15442E+03
  1.27348E+04 -5.62194E+03  1.63770E+04  2.96565E+03  1.01639E+04  9.01478E+03  1.14366E+04  1.98084E+04
 -1.89232E+03  2.45340E+04 -2.57653E+04  1.53784E+04 -2.03206E+04  3.02123E+02 -1.49553E+04 -7.14348E+03
 -9.80430E+03 -1.54295E+04 -4.99556E+03 -1.88161E+04 -2.41981E+03 -4.52360E+03  3.02736E+03 -8.07962E+03
  6.55306E+03 -1.16186E+03  8.89059E+03 -4.92243E+03  1.11237E+03 -2.77203E+03  1.13686E+04 -1.03222E+03
  6.07226E+03 -1.24704E+03  7.87330E+02  1.16113E+04  5.61919E+03  1.62854E+04 -1.31061E+04  3.31023E+03
 -1.27738E+04  4.54102E+02 -4.82179E+03 -7.95714E+03  5.96896E+03 -7.46218E+03  1.15353E+04 -9.43926E+03
  1.36353E+04 -4.27309E+03  1.35975E+04  2.85961E+03  1.45834E+04  1.24954E+04  5.23945E+03  1.68823E+04
 -8.96567E+03  1.06632E+04 -8.55585E+03  8.52064E+03 -2.77835E+03  4.57196E+03 -1.30664E+03 -4.39415E+03
 -3.01763E+03 -5.93565E+03 -3.06156E+03  6.26220E+03 -9.69329E+03 -2.64707E+03 -5.31018E+03 -6.78502E+03
 -6.44622E+03 -1.27048E+04  4.36672E+03 -1.10179E+04  4.62448E+03 -1.15399E+04  1.24188E+04 -9.27040E+03
  1.00338E+04  1.00480E+04  3.59012E+03  1.75738E+04 -1.43305E+03  1.23999E+04 -8.17926E+03  9.42759E+03
 -1.10874E+04 -2.63164E+03 -9.73777E+03 -9.14038E+03 -2.50733E+03 -9.06950E+03  5.67504E+03 -7.16527E+03
  4.44049E+03  6.07424E+01  9.56052E+03  2.19677E+03 -2.55957E+03  2.12469E+03  3.38253E+03  2.73859E+03
  8.70379E+02  2.21969E+03  6.59330E+02  4.91423E+03  2.49737E+03  7.03859E+03  2.79114E+03  5.41950E+03
 -5.49806E+03  1.40405E+04 -7.20556E+03  1.15112E+04 -9.51605E+03  2.87347E+03 -1.27534E+04 -6.75752E+03
 -8.58437E+03 -1.06619E+04  1.48217E+03 -1.45477E+04  6.40433E+03 -8.19537E+03  1.22566E+04 -1.18509E+03
  9.35953E+03  2.67699E+03 -1.21843E+03  7.07929E+03  1.97432E+03  5.39913E+03 -1.10480E+04 -2.83526E+03
 -7.24031E+03 -8.20421E+03  4.29999E+03 -1.04748E+04 -8.39142E+02 -6.45127E+02  5.65810E+03 -2.61372E+03
 -1.80235E+03  1.92509E+03  4.35798E+03  3.41080E+03  6.61919E+03 -1.54075E+03  2.42440E+03  4.55564E+02
  4.80785E+03  4.02072E+03  5.90094E+03 -1.24401E+03  8.61266E+03  5.32794E+03 -7.91521E+03  1.02225E+04
 -6.10486E+03  7.76985E+03 -1.15170E+04  6.83123E+03 -1.08181E+04 -3.32857E+03 -8.11946E+03 -2.76602E+03
 -4.08804E+03 -4.41694E+03  4.28015E+03  2.88163E+03  2.08889E+03  5.46828E+03 -1.58433E+03  9.97130E+03
 -5.33063E+03  6.99156E+03 -5.53870E+03 -6.34792E+03 -6.05776E+03 -5.25832E+03  1.01281E+03  8.33793E+01
 -1.98455E+02 -1.85119E+03  3.82151E+03 -3.29788E+03  1.58552E+03  4.32618E+03 -9.69441E+02 -1.04665E+03
 -2.75007E+03  2.07259E+03 -5.34384E+03  6.20987E+02  2.30948E+03 -1.19905E+04  4.23721E+03  5.93450E+02
  6.91700E+03  7.02685E+03  9.40379E+03 -2.49614E+02 -5.24340E+03  1.23513E+04 -6.88885E+03  9.23864E+03
 -7.35340E+03  8.36214E+02 -8.21488E+03  5.88712E+03  1.24091E+03  3.06061E+02  3.23481E+03 -1.28015E+02
  3.13808E+02 -8.72071E+03  5.87965E+03 -2.17109E+03  8.16157E+01  2.64382E+03  3.23248E+03  3.08241E+03
  1.46011E+03  2.54910E+03 -7.87477E+02  4.09907E+03  6.80485E+03  6.12299E+03  6.44019E+02 -3.48282E+02
 -5.21152E+02  1.04102E+03 -4.53622E+03 -1.41941E+02 -1.10745E+04 -1.23569E+02 -9.43776E+03 -6.39221E+03
 -2.19706E+03 -1.13110E+04 -2.68685E+02 -4.25402E+03  1.18968E+04 -1.09078E+04  1.39483E+04 -9.44362E+03
  1.29499E+04  3.52069E+03  7.63465E+03  9.41032E+03  1.89694E+03  1.39428E+03 -9.83317E+02  1.33702E+04
  8.78864E+02  6.16193E+03 -3.12395E+03 -5.03780E+03 -2.73008E+03 -5.46870E+03 -2.88761E+02 -9.82497E+02
 -2.49672E+03 -1.57154E+03 -5.22120E+03 -2.57674E+03 -3.66866E+03 -1.86699E+03 -2.34481E+03  2.93649E+03
  6.28958E+03 -1.70604E+03  4.23402E+03 -5.95415E+03  9.27924E+03  4.34569E+03  8.30332E+03  9.58688E+03
 -5.41074E+03  1.37196E+04 -7.62889E+03  8.52947E+03 -1.22455E+04  1.56494E+03 -2.95251E+03 -5.44688E+03
 -4.55713E+03 -1.16774E+04  2.15939E+03 -6.12857E+03 -1.49123E+02 -3.31209E+03  9.14714E+03 -3.40486E+03
  2.18529E+03  5.93580E+03  1.22425E+03  7.91593E+03  1.63363E+03  4.00001E+03  3.13682E+03 -5.41681E+03
  7.15871E+02 -2.85125E+03  5.29837E+03  4.01132E+03 -9.65512E+02 -5.78907E+03  2.89347E+03  4.79678E+03
 -4.17304E+03  3.73038E+03 -8.43035E+03  3.35616E+03 -1.31171E+03 -8.64656E+03 -3.22228E+03 -1.03688E+04
  2.94005E+03 -5.75452E+03  8.20430E+02  2.19387E+03  1.14964E+04  2.98217E+03  3.15173E+03  3.64257E+02
  1.15813E+03  5.57617E+03 -1.31268E+03  4.56191E+03  3.77501E+03  1.73499E+03  9.04873E+02 -2.99329E+02
  3.65432E+02 -3.17445E+03  1.38960E+03 -1.40033E+03 -3.58628E+03  4.31063E+03 -3.46898E+03  2.37068E+03
 -6.85300E+03  2.85907E+02  2.80525E+03 -1.30217E+03  9.59210E+02 -9.21498E+03  3.69345E+03  2.71883E+02
  4.80131E+03 -1.65272E+03 -7.06985E+02  2.45086E+03 -4.29433E+03  7.27477E+03 -3.27313E+03  5.03566E+03
