 $NMID ID='MM_0lb_SNR50_20hz_g45_54.RAW', FMTDAT='(8E13.5)'
 TRAMP=1., VOLUME=1. $END
  3.07536E+05 -5.21141E+02  3.36045E+05  2.49077E+05  8.61838E+04  3.39456E+05 -1.31083E+05  2.46292E+05
 -1.89766E+05  7.69064E+04 -1.09494E+05 -3.45523E+04  5.11393E+02 -5.46438E+04  5.32590E+04 -7.02962E+02
  3.57600E+04  5.60000E+04 -1.78568E+04  7.45426E+04 -6.01974E+04  6.91193E+04 -8.46038E+04  2.83290E+04
 -7.47391E+04 -6.74477E+03 -5.62940E+04 -5.02509E+04 -1.97477E+04 -6.69237E+04  2.98514E+04 -4.88284E+04
  4.10254E+04  5.33459E+03  1.39729E+04  4.79397E+04 -3.20085E+04  4.85170E+04 -6.50744E+04  1.06580E+03
 -5.06370E+04 -5.48911E+04 -7.39072E+03 -7.36956E+04  3.47820E+04 -5.50222E+04  4.41227E+04 -1.81235E+04
  3.97276E+04  9.13096E+03  3.10183E+04  2.14704E+04  2.00719E+04  2.78806E+04 -4.49063E+03  2.93047E+04
 -2.69033E+04  1.40692E+04 -2.06713E+04 -2.51841E+03  6.11579E+03 -1.00431E+04  2.05318E+04  9.16463E+03
  3.73815E+03  3.46302E+04 -2.67190E+04  3.40577E+04 -6.09312E+04  4.22592E+01 -5.68968E+04 -4.26862E+04
 -1.24696E+04 -5.78261E+04  4.04605E+04 -4.17850E+04  5.50166E+04 -6.36492E+03  2.95844E+04  3.02039E+04
 -4.96490E+03  3.37476E+04 -2.91664E+04  1.04617E+04 -2.64219E+04 -7.96301E+03 -1.35623E+04 -8.62945E+03
 -5.94753E+03 -9.31464E+03 -4.87578E+03 -1.42269E+04  6.65832E+03 -1.95818E+04  1.44367E+04 -1.38194E+04
  1.19905E+04  6.38145E+03 -1.00880E+04  1.28921E+04 -1.86243E+04 -5.93930E+03 -9.04408E+03 -2.64768E+04
  1.75292E+04 -3.83081E+04  4.06239E+04 -2.09831E+04  4.20002E+04  2.06096E+04  1.30281E+04  3.96691E+04
 -1.42487E+04  3.11838E+04 -2.27164E+04 -1.80114E+02 -7.50264E+03 -2.69726E+04  1.83758E+04 -3.15395E+04
  3.80776E+04 -6.36794E+03  3.09795E+04  2.04831E+04  9.88718E+03  3.72856E+04 -8.40053E+03  4.31603E+04
 -2.41440E+04  2.68237E+04 -3.31593E+04  5.88466E+03 -3.61276E+04 -1.44902E+04 -2.26886E+04 -3.11404E+04
  9.96876E+03 -3.28727E+04  3.15591E+04 -1.18711E+04  2.59845E+04  1.28016E+04  3.54209E+03  1.72310E+04
 -1.62516E+04  7.53663E+03 -8.22401E+03 -6.61612E+03  2.26681E+03 -1.04094E+04  2.10097E+04  4.30680E+03
  9.67194E+03  2.29268E+04 -4.10586E+03  2.44002E+04 -2.16564E+04  4.40895E+03 -2.27438E+04 -3.15699E+03
 -1.54500E+04 -1.50972E+04 -3.91974E+03 -1.44973E+04  4.27532E+03 -1.15741E+04  1.20057E+04 -1.32080E+04
  2.03030E+04 -8.45906E+03  2.85345E+04  2.55474E+02  2.07626E+04  1.65877E+04  6.43258E+03  2.87619E+04
 -1.65662E+04  2.71490E+04 -2.63565E+04  7.19358E+03 -2.14411E+04 -1.08482E+04 -7.41035E+03 -1.69349E+04
  4.06908E+03 -7.95073E+03 -1.81921E+03  3.23422E+03 -1.28104E+04  4.35707E+03 -1.12939E+04 -2.16578E+03
 -7.46680E+03 -1.41398E+04  2.98523E+03 -1.95814E+04  1.17571E+04 -1.44658E+04  1.44077E+04 -1.21669E+03
  7.37444E+03  1.38058E+04  1.92820E+01  1.66426E+04 -1.07439E+04  7.60353E+03 -1.76919E+04 -3.28937E+03
 -9.99609E+03 -1.20511E+04 -4.84445E+03 -1.49293E+04  8.02980E+03 -1.67601E+04  1.12289E+04 -5.82124E+03
  1.27853E+04  3.87550E+03  7.94604E+03  3.77670E+03  2.27205E+03  8.91714E+02  5.12247E+03 -7.23867E+02
  1.01016E+04  3.65797E+03  9.81201E+03  1.21808E+04  7.49654E+03  2.18315E+04 -5.34183E+03  2.35892E+04
 -1.23279E+04  2.29323E+04 -2.10253E+04  5.84411E+03 -2.49346E+04 -4.98229E+03 -1.78104E+04 -9.31997E+03
 -5.10689E+03 -1.73691E+04  9.42528E+03 -1.96523E+04  2.01913E+04 -1.09572E+04  1.67549E+04  3.48379E+03
  1.31614E+04  9.59189E+03 -7.13678E+03  6.97445E+03 -1.15605E+04  2.00650E+03 -8.05899E+03 -4.10827E+03
  1.08312E+03 -1.15537E+04  1.01659E+04 -7.27448E+03  1.04141E+04 -3.74289E+03 -1.61320E+03  5.59654E+03
  7.65313E+02  1.40731E+03 -2.20061E+03 -3.17080E+03  2.64859E+03 -9.88652E+03  8.21914E+03 -8.91018E+03
  9.50391E+03 -6.16489E+03  8.68562E+03  2.46999E+03  1.23653E+04  6.46435E+03  2.72098E+03  1.12200E+04
 -2.99445E+03  1.20038E+04 -6.85388E+03  8.64675E+03 -8.26151E+03 -1.24653E+02 -7.85429E+03 -2.68493E+02
 -4.87059E+03 -3.36580E+03  2.80631E+03  5.97077E+02 -2.31919E+03  2.20657E+03 -1.44942E+03  2.52387E+03
 -9.19458E+03 -1.57122E+03 -8.25155E+03 -5.07474E+03 -2.78139E+03 -1.14698E+04  5.79387E+03 -6.91211E+03
  6.27267E+03 -2.86987E+03  4.09180E+03 -9.97597E+02  7.96272E+02  2.06518E+03 -2.59958E+03 -4.73238E+02
 -6.95998E+03 -6.46853E+03  2.00354E+03 -5.12648E+03  7.52662E+03 -6.65729E+03  1.10221E+04 -5.93254E+03
  9.83339E+03 -4.47052E+02  8.46901E+03  6.66184E+03  2.99253E+03  6.87993E+03 -2.92577E+03  6.57229E+03
 -9.36746E+03  3.64097E+03 -3.62589E+03 -4.97908E+03  5.54124E+03 -2.68721E+02  2.89403E+03 -3.17663E+03
  4.21207E+03  2.56809E+03 -1.52063E+03  6.10708E+03 -2.95853E+03  6.53143E+03 -9.71687E+03  2.85065E+03
 -1.48821E+03 -1.27936E+03  1.84495E+03 -7.51992E+03 -1.10592E+03 -5.90899E+03  4.58127E+03 -5.55484E+01
  3.86449E+03 -2.24518E+02 -4.18571E+03  3.60189E+03 -2.63158E+03  4.52758E+03 -3.31966E+03 -7.35104E+03
 -4.39421E+03 -9.07836E+02 -5.35839E+02 -5.17857E+03  5.23574E+03 -4.30781E+03  3.08353E+03 -8.70824E+02
  2.24979E+03  3.71422E+03  9.31889E+01  4.82170E+03 -4.57559E+03  1.27389E+02  5.28493E+01  1.11024E+03
 -4.53352E+03 -1.97937E+03 -1.33748E+03 -2.37981E+02  5.95578E+02 -5.83570E+02  3.89545E+03 -5.34682E+03
  3.47953E+03  3.25067E+03 -1.34018E+03 -1.00413E+03  2.73673E+03  6.49332E+02 -1.49966E+03 -2.11091E+03
  1.04740E+03  6.64758E+02  4.56889E+03 -3.51391E+02  6.49322E+03  5.25161E+03  5.67317E+03  1.37947E+03
 -1.52372E+02  5.36957E+03 -4.31329E+03  6.90299E+03 -8.01857E+03  8.71972E+02 -7.11661E+03 -9.52253E+01
  1.74973E+03 -5.91485E+03  4.20885E+03 -7.04686E+03 -7.13105E+02 -3.95800E+03  1.41586E+03 -4.29567E+03
 -3.25606E+02 -6.78343E+02  9.08157E+02 -3.59351E+03  8.85311E+03 -6.80275E+02  3.60918E+03 -7.10104E+02
  5.05982E+03  2.58317E+03  4.23267E+03  2.96648E+03 -1.64480E+03  1.65258E+03 -6.70618E+03  6.02678E+03
 -1.91450E+03 -3.23887E+03 -2.13831E+03 -5.61106E+03  7.55692E+02 -1.46160E+03 -1.66411E+02 -2.52564E+03
  5.38026E+03 -2.14814E+03  2.99252E+03 -3.66527E+03  6.74823E+03  5.57455E+03 -2.15768E+03  5.75109E+03
 -7.22152E+02  7.85999E+03 -5.67724E+03  3.16391E+03  1.67291E+03 -4.01440E+03  1.37377E+03 -3.92671E+03
 -1.86059E+03  1.56095E+03  5.95811E+02  2.30440E+03 -5.99967E+03  3.06421E+02 -4.32132E+03  1.46313E+03
  4.68842E+01 -5.69375E+03  1.56156E+03 -2.36688E+03  1.56600E+03 -2.82770E+03 -3.60749E+03  2.75918E+03
  1.92095E+03  1.34621E+03 -6.49393E+02  4.21201E+03 -1.02107E+03  8.90100E+03  1.39229E+03 -1.38991E+03
 -2.54418E+02 -6.04308E+02 -5.69753E+03 -1.78283E+03 -1.08611E+03 -1.42563E+03  5.65384E+02  1.35989E+03
  3.87628E+03 -8.61408E+02  1.49902E+03 -7.51516E+02  1.23150E+03 -3.77314E+01  1.68154E+03 -2.15217E+03
  2.00031E+03  2.38815E+02 -1.88669E+03  6.76433E+03  2.67170E+02  8.34713E+02  2.87180E+03  3.78684E+03
 -7.00656E+03  5.34853E+03 -1.34395E+03 -1.97659E+03 -2.50056E+03  3.92128E+03 -6.02192E+03  3.26672E+03
 -1.37892E+03 -5.84567E+03 -1.26616E+03 -1.91329E+03 -6.13606E+02 -2.12774E+03  3.01248E+01 -5.72796E+03
  2.58056E+03  1.87957E+02  1.08832E+03 -4.13140E+02 -1.17930E+03 -1.19172E+03  7.22232E+02 -4.45294E+02
 -6.92761E+02 -2.81042E+03  2.83189E+03 -1.68554E+02  3.29657E+03 -2.50508E+03 -1.12554E+03 -2.83816E+01
  1.28265E+03 -5.63034E+03 -1.56179E+03 -3.02936E+02  2.01258E+02 -6.71348E+02  1.90756E+03 -1.36049E+03
 -2.65664E+02  4.69367E+02  3.21213E+03  2.44016E+03 -5.48125E+02  3.54886E+03  5.88975E+02  2.12035E+03
 -4.20421E+03  2.70403E+03 -2.64433E+03  9.59162E+02 -4.93485E+03 -2.53688E+03 -3.13617E+03 -5.93578E+02
 -2.22600E+02 -1.40498E+03  9.25358E+02 -1.18890E+03  1.86092E+03  3.85289E+03  9.70816E+02 -1.02970E+03
 -3.99701E+02 -1.17723E+03 -2.03406E+03 -2.75725E+03  6.03463E+02 -2.00644E+03 -1.22815E+03 -1.65826E+03
  3.52960E+03 -1.75458E+03  5.20670E+03 -3.34419E+02  4.72997E+03 -1.22968E+03 -1.41117E+03  2.17930E+03
  1.40578E+02  1.00414E+03 -6.30769E+02  2.65637E+03 -2.27824E+03 -4.12079E+03  2.21475E+03  2.33071E+01
 -2.22663E+03  1.32207E+03  3.30624E+03 -3.24455E+03 -4.94652E+02  2.28453E+03  3.50684E+02  3.75156E+03
  7.67272E+01  2.28933E+03  2.54761E+03 -1.46392E+03 -2.33204E+03 -5.13818E+02 -9.79330E+02 -4.13469E+03
  3.33434E+03 -2.26351E+03  3.78919E+02 -3.32655E+02  4.69667E+03  1.40665E+03  1.58970E+03 -1.38531E+03
  2.91519E+03  1.01045E+03 -2.87723E+02  4.09821E+03 -1.00624E+02  3.51466E+03  2.52221E+03  1.36421E+03
 -1.00149E+03  2.52363E+02  1.85013E+03 -2.00986E+03 -8.22503E+02  2.26522E+03 -5.28751E+02 -1.71640E+03
 -1.40942E+03  4.53264E+02  5.25436E+03 -1.49758E+03  2.79859E+03  1.09934E+03 -9.52437E+02 -6.90200E+01
  1.36722E+03  2.63043E+02  8.81377E+02  1.77218E+03  4.01191E+02  2.47854E+03  2.68909E+03  8.44623E+02
  2.32042E+03  5.47292E+01 -1.25886E+03  2.20324E+03 -6.46888E+03 -7.03178E+02  3.30813E+02 -1.36949E+03
 -8.92859E+02  1.47058E+03 -5.19456E+00  3.63770E+02 -5.49914E+03 -3.00608E+03  8.07246E+02  4.48893E+03
 -3.06090E+03  6.54666E+02 -3.18243E+03  2.21115E+03 -1.00566E+03 -3.50412E+02 -9.79227E+02  3.98184E+03
 -1.52290E+03  3.22499E+03 -4.13616E+03  1.85733E+03  1.76434E+03  8.82157E+02 -3.74948E+03  1.14198E+03
 -6.81191E+02  1.00429E+03  8.15880E+01 -2.74699E+03  3.53144E+03  1.96113E+03  1.73407E+03  2.72263E+03
 -1.74172E+03 -3.04149E+03  6.96518E+00  2.00665E+03  1.12523E+03 -5.04965E+02 -2.91888E+03  1.77481E+03
  1.85085E+03  5.03265E+01  6.04972E+02 -2.59814E+03  9.02655E+02  9.32773E+01 -4.62924E+02  6.19266E+01
  6.08289E+02  2.16201E+03  6.00095E+02  1.20065E+02 -1.65546E+03  2.45582E+03 -7.22281E+02  1.69059E+03
 -1.51065E+03 -4.46141E+02  1.79808E+03 -7.20218E+02 -7.05486E+02 -2.03726E+03  2.61197E+03 -5.18457E+02
 -2.20468E+03  1.03166E+03 -2.65662E+02  2.26947E+03  6.61821E+02 -1.29185E+03 -3.86549E+02  7.34813E+02
  2.12830E+03 -6.83156E+02  4.00494E+02  5.37417E+02  2.78028E+03  3.18454E+03 -1.03977E+03  1.37837E+03
  6.33863E+03  1.28296E+03 -2.81688E+02  7.02758E+02 -1.54015E+03 -4.17156E+03  2.92800E+03 -2.79908E+03
  6.39784E+03  2.62785E+03  3.59454E+03  1.48397E+02  4.14831E+02 -4.39058E+03 -1.24237E+03  1.79395E+03
