 $NMID ID='MM_0lb_SNR50_16hz_g55_72.RAW', FMTDAT='(8E13.5)'
 TRAMP=1., VOLUME=1. $END
  3.11040E+05 -1.66174E+03  3.34846E+05  2.50207E+05  8.54215E+04  3.40048E+05 -1.34086E+05  2.51856E+05
 -1.90550E+05  8.13519E+04 -1.13975E+05 -2.79395E+04 -6.20315E+01 -4.84957E+04  4.96271E+04  9.63845E+02
  3.92491E+04  5.35933E+04 -1.90533E+04  7.33827E+04 -6.08512E+04  6.23202E+04 -8.35403E+04  3.19902E+04
 -7.84684E+04 -8.78260E+03 -5.66227E+04 -5.21706E+04 -1.19517E+04 -7.16414E+04  2.76465E+04 -4.76267E+04
  3.69426E+04  5.39022E+03  1.76675E+04  4.79842E+04 -3.33695E+04  4.69449E+04 -6.44651E+04 -2.90062E+03
 -5.93017E+04 -5.98108E+04 -6.45924E+03 -7.80913E+04  3.29041E+04 -5.30241E+04  4.80180E+04 -1.61721E+04
  4.04687E+04  1.41843E+04  3.58928E+04  2.68372E+04  1.26615E+04  2.52938E+04 -4.66062E+03  1.97256E+04
 -2.62334E+04  1.60535E+04 -1.76087E+04 -4.87806E+03  1.10244E+04 -9.66817E+03  2.24592E+04  1.35434E+04
  6.33507E+03  3.46974E+04 -3.10025E+04  3.29276E+04 -5.99817E+04  2.28615E+02 -5.58794E+04 -4.61568E+04
 -1.23411E+04 -6.28636E+04  4.32909E+04 -4.78161E+04  5.58097E+04 -3.84646E+03  3.29384E+04  3.31113E+04
 -4.92916E+03  3.88804E+04 -2.66148E+04  1.32493E+04 -2.79569E+04 -2.47553E+03 -1.93631E+04 -1.11295E+04
 -8.85210E+03 -1.22482E+04 -3.92798E+03 -1.80941E+04  5.38094E+03 -2.34234E+04  1.88198E+04 -1.62789E+04
  9.16790E+03  6.57702E+03 -8.97645E+03  1.60684E+04 -2.09489E+04 -4.15217E+03 -3.65871E+03 -3.49257E+04
  1.71243E+04 -4.27611E+04  4.72013E+04 -2.09518E+04  4.58814E+04  1.75531E+04  1.68617E+04  4.28275E+04
 -1.89411E+04  3.08657E+04 -2.32444E+04 -7.81646E+02 -1.22753E+04 -3.00316E+04  2.14308E+04 -2.99743E+04
  3.90730E+04 -9.38223E+03  3.48527E+04  2.81861E+04  1.90880E+04  4.00385E+04 -1.04545E+04  5.06323E+04
 -3.19789E+04  2.90990E+04 -4.36846E+04  1.33986E+04 -3.96213E+04 -1.52197E+04 -2.25597E+04 -3.75326E+04
  1.03004E+04 -3.90734E+04  3.38096E+04 -1.64718E+04  3.09289E+04  1.27895E+04  3.29043E+03  1.74105E+04
 -1.37522E+04  1.00264E+04 -9.80836E+03 -7.79301E+03  6.89456E+03 -8.54378E+03  1.16070E+04  8.55532E+02
  1.50836E+04  2.00049E+04 -6.16546E+03  2.69009E+04 -2.05809E+04  1.20062E+04 -2.66002E+04 -5.75303E+03
 -2.02036E+04 -1.81259E+04 -9.62425E+03 -2.38815E+04  8.44639E+02 -2.07779E+04  1.07145E+04 -1.74098E+04
  2.38397E+04 -1.39235E+04  2.90088E+04  4.38385E+03  2.45803E+04  1.92761E+04  4.43761E+03  3.62050E+04
 -2.29222E+04  2.59574E+04 -2.49918E+04  9.77302E+03 -1.73693E+04 -1.19866E+04 -6.73353E+02 -1.37147E+04
  5.31389E+03 -4.89559E+03 -5.64663E+03  8.98767E+03 -1.44592E+04  5.39993E+03 -1.38142E+04 -7.60542E+03
 -6.45674E+03 -1.61722E+04  1.67048E+03 -2.17650E+04  1.33871E+04 -2.08462E+04  1.24612E+04  2.74008E+02
  8.16517E+03  1.31218E+04 -4.55066E+03  1.68452E+04 -1.21706E+04  7.95830E+03 -2.13144E+04 -2.88059E+03
 -1.28545E+04 -1.75791E+04 -2.53796E+03 -2.22109E+04  6.16754E+03 -1.30627E+04  1.40063E+04 -7.86600E+03
  1.93522E+04 -1.73614E+03  1.06010E+04  4.13031E+03  7.76572E+03  4.81577E+03  9.69851E+03 -6.60615E+03
  1.91781E+04  4.17031E+03  2.16653E+04  1.25214E+04  1.04315E+04  2.89402E+04 -5.85705E+02  3.16377E+04
 -1.66736E+04  2.46436E+04 -3.09850E+04  1.42087E+04 -3.34875E+04  8.94246E+02 -2.29553E+04 -1.63093E+04
 -1.37156E+04 -2.07263E+04  9.34915E+03 -2.41791E+04  2.16864E+04 -1.15242E+04  1.98911E+04  5.52402E+03
  1.00976E+04  1.54058E+04 -9.13856E+03  1.22891E+04 -1.54593E+04  4.25187E+03 -1.28305E+04 -9.80270E+03
 -4.15953E+03 -1.75822E+04  1.28835E+04 -1.26206E+04  7.62258E+03 -1.91645E+03  1.06554E+03  5.51487E+03
 -5.29625E+03 -2.63601E+03 -8.75749E+03 -8.44744E+03  2.90222E+03 -1.24378E+04  1.18472E+04 -1.34751E+04
  1.75994E+04 -9.02337E+03  1.33870E+04  6.34266E+03  1.48766E+04  8.56509E+03  1.74540E+03  1.70409E+04
 -3.45216E+03  2.08422E+04 -9.89459E+03  9.33491E+03 -1.69745E+04  4.37586E+03 -1.20029E+04  2.15667E+03
 -6.56914E+03 -3.56310E+03 -2.30771E+03  1.50418E+03 -2.84353E+03 -3.54665E+03 -5.18574E+03  6.87806E+02
 -9.49440E+03  2.37513E+03 -8.84053E+03 -9.50359E+03 -6.41869E+03 -1.17375E+04  6.95594E+03 -1.13628E+04
  1.09312E+04 -1.02594E+04  5.75725E+03  8.72006E+01 -1.69788E+03  4.59229E+03 -7.15124E+03 -2.14825E+02
 -6.45351E+03 -6.70987E+03 -3.93465E+02 -1.40447E+04  4.89676E+03 -1.24087E+04  9.24558E+03 -2.91101E+03
  1.26571E+04  3.43075E+03  9.50437E+03  9.08354E+03  1.73508E+03  9.37100E+03 -1.75350E+03  9.76971E+03
 -5.02624E+03  3.27194E+03 -1.62118E+03  1.40778E+02 -2.00106E+03 -6.51150E+03  9.54762E+03  9.46906E+02
  1.50452E+03  2.10466E+03  2.11897E+03  7.65670E+03 -6.61463E+03  9.03296E+03 -6.08770E+03  1.76250E+03
 -6.34840E+03 -7.18677E+03 -2.79093E+03 -1.10028E+04  7.02263E+03 -3.36843E+03  4.21611E+03  3.71170E+03
 -6.57688E+03  1.42495E+03 -4.27394E+03  5.71059E+03 -9.55639E+03  1.99175E+03 -8.11250E+03 -6.85344E+03
 -7.12536E+03 -9.16292E+03  9.24772E+02 -8.13661E+03  9.22528E+03 -7.92365E+03  1.16707E+04 -4.86664E+02
  5.47989E+03  5.11369E+03 -8.81938E+02  9.64948E+03 -3.05201E+03  4.00060E+03 -7.19202E+03 -1.30894E+03
 -4.82881E+03  2.66091E+01  2.22253E+02 -8.17365E+03  2.42590E+03 -5.61285E+03  6.41299E+03 -5.42004E+03
  2.24431E+03 -1.10779E+03 -3.06247E+03  4.12435E+02 -5.54457E+02  2.20590E+02 -3.05513E+03 -2.45956E+03
  6.43026E+03  3.60143E+02  6.27532E+03  4.22892E+02  1.16631E+04  4.65825E+03  3.31439E+03  6.42176E+03
  2.07481E+03  1.09946E+04 -8.89340E+03  9.26844E+03 -1.05196E+04  2.30099E+03 -8.70406E+03 -7.42586E+03
 -3.84780E+03 -1.01104E+04 -5.22609E+03 -6.43249E+03  1.58938E+03 -6.43284E+02  1.43930E+03 -3.13658E+03
  5.68507E+02 -6.38301E+02  3.31604E+03  2.97602E+02  2.45324E+03 -4.71988E+03  8.44696E+03  1.18010E+03
  5.68621E+03  1.41618E+03  4.43813E+03  3.95949E+03 -5.00339E+03  6.28793E+03 -4.32628E+03  3.69548E+03
 -6.51234E+03 -2.20393E+03 -7.37998E+03 -1.29638E+03  1.67199E+02 -9.58481E+03  3.49616E+03 -6.02737E+03
  8.62320E+03 -6.59301E+03  7.75685E+03 -1.53700E+03  5.97745E+03  7.95524E+03  4.24508E+03  1.32370E+04
 -3.35700E+03  3.57506E+03 -3.02527E+03  1.36157E+03 -4.60292E+02 -4.15722E+03 -3.53119E+02 -6.38880E+02
  1.28356E+03  5.27918E+03  4.09048E+03  5.08779E+03 -1.05409E+03  4.17059E+03 -3.78618E+03 -4.60208E+03
 -5.87792E+03 -6.70643E+03 -1.76729E+03 -7.48896E+03  2.57938E+03 -6.37165E+03  5.57145E+03  1.03638E+03
  4.77076E+03  1.26094E+02  3.01665E+03  5.78390E+03  1.62380E+03  1.15948E+04 -6.19422E+03  2.58241E+03
 -3.54999E+03  1.41527E+03 -6.38070E+03 -4.21256E+03  2.05847E+03 -5.72958E+03 -1.58886E+03 -3.88941E+03
  6.60570E+02 -4.03698E+03  3.32763E+03  1.34735E+03 -8.52668E+02  9.75557E+03  3.38730E+03  5.49704E+02
  4.23164E+03 -1.85496E+03 -4.45552E+03 -1.48283E+03  1.26919E+03 -2.28829E+03  2.66275E+02  2.54496E+03
  3.44767E+03  5.41151E+03 -9.95646E+03  4.44250E+03 -5.46770E+03 -2.69532E+03 -1.18693E+04 -1.13940E+03
 -3.45570E+03 -7.72582E+03  4.01525E+03 -3.88167E+03  3.35959E+03  1.31595E+03  4.07554E+03  2.73502E+03
 -6.05590E+02  1.25718E+03  3.64941E+03  3.30166E+02 -4.16299E+03  5.77432E+03 -4.74802E+01 -1.01234E+03
  3.21643E+03 -2.55102E+03  1.16977E+03 -2.38058E+03  4.64089E+03  1.50472E+03  2.86915E+03 -3.18775E+02
  3.30665E+03 -2.09137E+01  7.94445E+02  3.29720E+03 -3.90475E+03  1.42715E+03  2.04876E+03 -2.57364E+03
  1.28167E+03 -7.80413E+02  2.91068E+03  2.53355E+03  2.86306E+03  3.69300E+03  8.16118E+02  3.00430E+03
 -6.72990E+03  3.88568E+03 -2.12373E+03  2.45654E+03  9.55948E+01 -2.22970E+03 -6.31143E+03 -1.62415E+03
  3.04874E+03 -5.30481E+03  4.28234E+02  3.17328E+03  5.94255E+03 -4.88818E+02  1.20329E+03  2.47249E+03
 -3.06853E+03  1.25604E+03 -3.30396E+03  1.43166E+03 -5.99690E+02 -5.04042E+03 -5.20789E+03 -5.84618E+03
  3.62943E+01  2.59426E+03  1.65000E+03  2.06793E+03 -4.12870E+03 -5.00207E+03  5.19218E+02  8.37405E+02
  4.76427E+02  8.14496E+02 -1.73378E+03  1.36513E+03  6.30098E+03 -2.44301E+03  6.45836E+03 -2.64875E+03
  1.38252E+03 -8.90600E+02  6.04790E+03  2.03331E+03  6.63232E+02  1.26125E+03 -6.53466E+02  4.65879E+03
  1.04113E+03  1.15494E+03 -7.01300E+02 -1.61060E+03 -3.27416E+03 -6.23225E+03 -2.35310E+03  1.45180E+03
  3.82194E+03 -8.80790E+02  7.21754E+03 -2.15704E+03  4.09182E+03  3.31007E+03 -5.48157E+02  3.46839E+01
 -3.61459E+02 -4.91650E+03 -1.23452E+03  3.00472E+03  1.37057E+03 -1.46273E+03 -8.99934E+02  3.63096E+03
  4.57905E+02  2.96522E+03 -3.04439E+03  4.85260E+03 -7.16494E+03 -1.83029E+03 -2.37444E+03  7.41140E+01
 -6.76359E+03 -1.18223E+03  2.36432E+03  1.14294E+03  4.93301E+03 -1.83505E+03  5.96125E+03 -2.94521E+02
  2.97224E+03 -4.09300E+02  3.21602E+03  3.59036E+03 -2.05749E+03  1.50148E+03 -4.30928E+03  6.25108E+02
  1.82906E+03  1.91642E+03 -1.59742E+02  3.02206E+03 -2.07173E+03  1.14884E+03 -4.06878E+03  3.94073E+03
  2.44254E+03 -2.76696E+03  1.49142E+03 -1.16782E+03 -2.86804E+02 -4.56814E+03  5.72962E+02 -7.69593E+03
  6.94846E+02 -1.66033E+03  2.21181E+03 -1.56473E+03  5.69610E+03 -3.13151E+02  2.19535E+02  3.45027E+03
  3.53419E+02  5.86842E+03 -4.29281E+03 -9.02384E+02 -5.41922E+03  2.87921E+03 -3.04964E+03  5.62490E+02
 -5.21478E+02 -1.70954E+03  4.75868E+03 -5.78737E+03  8.38824E+02 -4.64927E+02  5.56786E+03 -1.42660E+03
  1.40490E+03 -1.02911E+03 -1.21647E+03 -1.95333E+03 -7.50214E+02 -1.21169E+03 -1.70732E+03 -1.95628E+03
  3.15534E+03  1.66213E+03 -3.06665E+03 -5.01968E+03 -3.60494E+03  1.15952E+03  1.86424E+02  1.27185E+03
  2.73335E+03  1.51901E+02 -2.34484E+03 -1.05103E+02 -1.93042E+03 -4.38792E+01 -2.52117E+03 -5.25628E+03
 -7.65439E+02  3.14621E+03  2.35965E+03  7.35208E+02  2.49383E+03  3.35114E+03 -1.44747E+03  3.46449E+03
  5.41250E+02  3.52063E+03 -6.88702E+02  6.92705E+02  4.84270E+03  1.31593E+03 -2.54548E+03 -2.05959E+03
  1.77349E+03  3.00096E+03  1.34193E+03  1.46013E+03  8.40754E+02  1.87946E+03  2.95448E+03  5.36786E+02
  2.25626E+03  1.80553E+03  7.35532E+02  4.74980E+03 -1.33579E+01 -4.90895E+03  2.81583E+03  7.42696E+01
  1.42151E+03 -2.79706E+03 -2.15578E+03  2.23090E+03 -5.72080E+02  1.63748E+03 -5.28000E+03  5.70028E+03
