 $NMID ID='MM_0lb_SNR50_17hz_g60_79.RAW', FMTDAT='(8E13.5)'
 TRAMP=1., VOLUME=1. $END
  3.08269E+05 -1.58805E+03  3.36847E+05  2.52851E+05  8.62038E+04  3.36563E+05 -1.28792E+05  2.49916E+05
 -1.95416E+05  8.58754E+04 -1.11385E+05 -2.85647E+04  1.17094E+03 -4.88019E+04  5.31856E+04 -1.39584E+03
  3.38093E+04  5.75021E+04 -1.16703E+04  7.66293E+04 -5.80485E+04  6.43156E+04 -8.48710E+04  3.27613E+04
 -7.86553E+04 -1.50773E+04 -6.15731E+04 -4.92955E+04 -1.54896E+04 -7.12634E+04  2.91067E+04 -5.21153E+04
  4.14788E+04  4.12269E+03  1.67215E+04  4.99462E+04 -3.35276E+04  5.23499E+04 -6.52860E+04  2.07156E+03
 -5.00661E+04 -5.83231E+04 -1.81734E+03 -7.49620E+04  3.35949E+04 -5.75105E+04  5.02189E+04 -1.81335E+04
  4.15397E+04  1.50164E+04  3.06602E+04  2.73605E+04  1.38098E+04  2.74113E+04 -2.08135E+03  2.79765E+04
 -2.41804E+04  8.66637E+03 -1.95325E+04 -3.25368E+03  5.05774E+03 -6.36095E+03  2.35586E+04  1.49934E+04
  6.50631E+03  3.42106E+04 -3.12443E+04  3.82506E+04 -6.41423E+04  1.54236E+03 -5.63681E+04 -3.93552E+04
 -1.38373E+04 -6.27179E+04  4.68273E+04 -4.70360E+04  5.83596E+04 -1.43834E+03  3.32903E+04  3.06360E+04
 -8.15433E+03  3.37526E+04 -3.12036E+04  1.56728E+04 -3.27485E+04 -1.97842E+03 -1.34807E+04 -9.95915E+03
 -1.10788E+04 -1.80371E+04  5.08172E+03 -1.53604E+04  1.09497E+04 -1.88563E+04  1.42269E+04 -1.81373E+04
  1.13890E+04  4.11176E+03 -1.31686E+04  1.87780E+04 -2.08548E+04 -5.38046E+03 -7.99692E+03 -3.18892E+04
  2.38938E+04 -4.36903E+04  4.44502E+04 -2.02667E+04  4.81452E+04  1.60488E+04  1.28200E+04  3.64468E+04
 -1.65834E+04  2.81231E+04 -2.56964E+04 -7.79996E+02 -3.81165E+03 -2.48213E+04  2.04783E+04 -3.55047E+04
  3.80196E+04 -8.56908E+03  3.68898E+04  2.54507E+04  1.66951E+04  4.72761E+04 -7.48523E+03  4.75117E+04
 -3.03059E+04  3.21386E+04 -4.14320E+04  9.39487E+03 -4.29203E+04 -1.40530E+04 -2.46402E+04 -3.20979E+04
  6.82801E+03 -3.87798E+04  3.09583E+04 -1.30511E+04  2.43197E+04  1.19305E+04  3.31456E+03  1.90430E+04
 -1.52874E+04  5.39877E+03 -9.87376E+03 -9.67546E+03  6.02611E+03 -5.55422E+03  1.81427E+04  7.24466E+03
  1.26034E+04  2.48962E+04 -5.05524E+03  2.40126E+04 -2.02280E+04  1.63031E+04 -2.50064E+04 -2.35697E+03
 -2.05461E+04 -1.98326E+04 -1.09367E+04 -1.97472E+04  8.59947E+03 -1.58228E+04  1.34262E+04 -1.95572E+04
  2.46784E+04 -1.29661E+04  3.15981E+04  3.06451E+03  2.65267E+04  1.43912E+04  5.98642E+03  3.77049E+04
 -2.11314E+04  2.25864E+04 -2.74173E+04  1.21853E+04 -1.84751E+04 -1.21457E+04 -4.97681E+03 -1.31377E+04
  2.79773E+03 -6.26795E+03 -1.63723E+03  5.44109E+03 -1.57272E+04  6.41013E+03 -1.20847E+04 -4.86401E+03
 -8.87742E+03 -1.83717E+04  7.74918E+03 -2.40983E+04  1.83191E+04 -1.90610E+04  2.41889E+04  1.41323E+02
  1.11634E+04  1.10492E+04 -1.64705E+03  1.67210E+04 -1.20520E+04  6.35179E+03 -1.50055E+04 -2.17525E+03
 -6.83763E+03 -1.73481E+04  9.89198E+02 -1.79957E+04  9.75360E+03 -1.44077E+04  1.93613E+04 -1.03879E+04
  1.53655E+04 -3.98777E+03  1.12832E+04  5.19217E+03  4.77553E+03 -5.06051E+02  1.08221E+04  1.69576E+03
  1.72790E+04  1.75850E+03  1.81991E+04  1.60289E+04  9.42739E+03  2.72585E+04 -3.73720E+03  3.29189E+04
 -1.65754E+04  2.75724E+04 -3.01891E+04  1.06817E+04 -2.79249E+04  7.44636E+02 -2.94973E+04 -1.52780E+04
 -1.03825E+04 -2.63529E+04  6.62433E+03 -2.17554E+04  2.16187E+04 -1.15022E+04  2.23505E+04  3.06574E+03
  6.15611E+03  1.35688E+04 -8.84914E+03  1.67796E+04 -1.70953E+04  3.79732E+03 -1.39809E+04 -1.03020E+04
 -1.67636E+03 -1.34529E+04  4.13101E+03 -9.23189E+03  1.02805E+04 -1.72941E+03  4.87926E+03  7.26962E+03
 -5.94756E+03  3.44795E+03 -3.87536E+03 -7.24252E+03  4.35011E+03 -1.51248E+04  1.14764E+04 -1.36350E+04
  1.22905E+04 -7.91347E+03  1.88153E+04 -2.12887E+02  1.42629E+04  7.42673E+03  7.02891E+03  2.15611E+04
 -1.18190E+03  1.50886E+04 -1.50727E+04  7.47891E+03 -1.44781E+04 -3.23349E+03 -9.55999E+03 -3.85382E+03
 -3.82816E+03 -3.83737E+03  2.74002E+03  2.92355E+03 -1.93130E+03  4.30205E+03 -7.35906E+03 -1.49028E+03
 -8.80147E+03 -1.14531E+03 -1.11605E+04 -1.19329E+04 -3.99065E+03 -1.51293E+04  2.32333E+03 -1.32305E+04
  8.47515E+03 -3.81616E+03  1.89180E+03  2.25875E+03  1.07764E+03 -4.64014E+02 -5.89829E+03  1.78930E+03
 -5.29469E+03 -5.92842E+03 -5.45494E+03 -7.15397E+03  5.93279E+03 -1.03209E+04  1.07064E+04 -6.08698E+03
  1.66702E+04 -2.79089E+03  1.14704E+04  7.91218E+03 -1.95871E+03  1.15414E+04 -6.79672E+03  1.52430E+04
 -4.90732E+03  2.34803E+03 -2.76422E+03  2.26292E+03  3.43581E+03 -3.86247E+03  4.78496E+03  3.40833E+03
  4.74505E+03  6.57585E+03  8.49636E+03  1.21197E+04 -7.28721E+03  6.80904E+03 -8.81023E+03 -4.30247E+02
 -4.68766E+03 -1.18405E+03  2.62469E+03 -8.48081E+03  2.46315E+03 -2.81181E+03  6.03239E+03 -3.35150E+02
  4.82144E+03  3.82331E+03 -6.27129E+03  8.10132E+03 -8.64094E+03  4.40017E+03 -7.72475E+03 -1.86160E+03
 -8.72967E+03 -6.84330E+03  2.46661E+03 -7.83722E+03  8.66212E+03 -4.20707E+03  7.56065E+03  1.89314E+03
  3.95034E+03  4.93785E+03 -3.65205E+02  1.19150E+04 -4.46021E+03  1.33258E+04 -5.61305E+03  2.47814E+02
 -7.77415E+03 -1.04276E+04 -3.18775E+03 -4.66473E+03  1.04129E+03  7.04694E+02 -3.72392E+02 -7.22887E+03
  5.73194E+03 -8.51331E+02  2.12495E+03  3.18471E+03  3.13626E+03  3.59050E+02  1.19369E+03 -3.52007E+03
  4.37905E+03 -3.45179E+02  7.14203E+03  1.98114E+03  4.50796E+03  6.96263E+03  8.56810E+03  8.17345E+03
 -1.12934E+03  1.06461E+04 -9.62950E+03  8.43409E+03 -1.37033E+04  1.73450E+03 -1.40124E+04 -2.43393E+03
 -6.79511E+03 -6.53696E+03  1.09870E+03 -7.63441E+03  4.10466E+03 -1.18211E+03  5.56718E+03  4.46385E+02
  1.56542E+03  3.02309E+03 -4.11325E+02  1.71859E+03  3.67293E+03 -3.03094E+03  4.98691E+03  5.23963E+02
  4.47041E+03  3.26168E+03 -1.40300E+03  2.50998E+03 -5.30260E+02  6.89110E+03 -2.75125E+03  1.38138E+03
 -5.65379E+03 -1.37365E+03 -7.03882E+03 -7.55640E+03 -1.15690E+03 -4.69534E+03  2.73751E+03 -1.05079E+04
  5.90898E+03 -9.49044E+01  1.29574E+04  3.83452E+03  3.13043E+03  3.66803E+03 -1.66460E+03  8.38675E+03
 -2.90548E+03  6.65620E+03 -7.81992E+03  4.80651E+02 -8.81803E+02 -2.58265E+03 -1.56385E+03 -6.11924E+03
 -4.38345E+03 -5.38621E+02 -2.17140E+03  3.81850E+03 -4.44906E+03  4.44481E+03 -5.42873E+03 -1.81927E+03
 -3.23932E+02 -9.18234E+03  2.72509E+03 -1.12906E+04  2.28704E+03 -6.23243E+03  4.59804E+03 -3.85895E+03
  2.84204E+03  4.10949E+03  1.63350E+03  8.57460E+03 -1.67237E+03  5.37749E+03 -5.06322E+03  7.42738E+02
 -1.52569E+03 -4.23020E+02 -1.21141E+03 -5.52842E+03 -7.37947E+02 -1.59680E+03  1.30499E+03 -2.92882E+03
  1.04217E+04  3.94024E+02  1.12434E+03  1.87883E+03  1.39719E+03  1.49445E+03  7.52650E+02 -3.13002E+03
  1.87783E+03 -2.15499E+02  3.12831E+03  2.12047E+03  5.61705E+00  3.42277E+03  2.30202E+03  2.49729E+03
  1.11452E+03  4.87129E+03 -1.84139E+03  2.23512E+03 -1.96392E+03  5.46879E+02 -3.79794E+03  1.18381E+03
 -2.95339E+03 -7.80290E+03  4.20252E+03 -6.23712E+03  1.69073E+03 -2.02948E+03  1.98374E+03 -4.14174E+03
  6.10092E+03 -1.12744E+00  2.44199E+03  3.37783E+03 -5.48702E+02  2.98912E+03  3.92795E+02 -1.66089E+03
 -2.13978E+03 -2.56306E+03  1.95498E+03 -5.04596E+03 -8.78483E+02  2.64045E+03  3.53394E+03  4.58254E+03
  3.01393E+03  4.53164E+03 -4.62843E+02 -1.58850E+03  3.57897E+02 -2.14255E+03  8.75242E+02  3.04954E+03
 -5.76463E+03 -3.37723E+03  5.88593E+03 -3.39521E+02 -5.50184E+02  6.10127E+03 -1.28128E+03  3.30068E+03
 -1.84930E+03  4.20229E+03 -3.30251E+03 -2.21693E+03 -1.40797E+03  3.35928E+02 -1.30231E+02  1.34276E+03
 -4.57175E+03 -2.81482E+03 -1.88638E+02 -3.85674E+03 -2.24014E+03  1.62281E+03  1.29002E+03 -6.42641E+02
  7.10122E+02  6.11722E+03  1.61970E+03 -1.06833E+03 -9.77263E+02 -6.79759E+02  2.27132E+03 -2.16298E+03
  1.32015E+03 -4.40669E+02  3.41530E+03  1.28554E+01  2.10067E+03  3.25905E+02  1.41446E+03 -8.68723E+02
 -9.54259E+01  2.43310E+03  4.10419E+03  1.24438E+02  3.85978E+02  2.29521E+01 -1.26096E+03 -6.33915E+03
  8.29793E+02 -4.55713E+02  2.75868E+03  2.76689E+03  1.39617E+02 -6.89971E+02 -7.78247E+02  8.29834E+01
 -3.63052E+03  3.48203E+01 -2.77465E+03  2.29512E+01 -4.41037E+03 -2.88938E+03  2.43111E+03 -1.38162E+03
 -2.47503E+03 -1.10696E+03  2.67679E+03 -3.37504E+03 -1.63903E+03 -3.34956E+03 -7.84739E+02  1.11230E+03
  5.40140E+02  4.25075E+01  2.82764E+03  2.81716E+03  3.49729E+03  2.18312E+03 -4.80602E+02 -2.07524E+03
 -8.36495E+02  2.86775E+03 -4.40092E+03  1.21063E+03 -4.04358E+03  1.33900E+03 -1.74326E+03 -3.48493E+03
 -3.43445E+03  2.10347E+03 -5.81016E+02 -4.33660E+03  2.98413E+03 -2.19127E+03  5.25584E+03  2.08801E+03
  2.96574E+03 -2.44098E+03  6.57045E+02  2.80546E+03  2.15604E+03 -1.42899E+03 -8.24346E+02  2.73333E+03
  2.57676E+03 -5.36136E+03 -1.25440E+03  1.39261E+03 -8.50561E+03 -1.39366E+03 -1.37791E+03  1.66716E+03
 -1.92440E+03  1.02990E+03 -3.18379E+03  4.40113E+03 -1.54480E+03  2.08885E+03  1.70243E+02  2.23513E+03
  1.48023E+03 -1.79338E+03  2.80872E+03 -9.97711E+01  7.69347E+02  1.92364E+03 -5.22135E+03  2.33255E+03
 -7.07629E+02  3.81949E+03 -3.31079E+03  6.92232E+02 -1.17039E+03 -1.44438E+03 -3.83272E+03 -2.95557E+03
 -3.99090E+03 -2.40156E+03 -9.76250E+02 -6.42294E+03  1.56065E+03 -1.04295E+03  4.03937E+03  7.98176E+02
 -2.78033E+03  3.68930E+03 -3.46558E+03  3.04014E+03  2.23611E+03  3.53466E+03  2.99560E+03  2.74314E+02
  8.22530E+02  6.49482E+02  1.27386E+03  1.19169E+03 -4.68670E+02 -1.93304E+03 -1.26145E+03  1.18607E+03
  2.51181E+03 -1.43607E+03 -1.77759E+03  2.23887E+03 -6.70524E+03 -5.95250E+03  7.86580E+02  5.47093E+02
  2.76686E+03 -3.02217E+03  1.47233E+03  1.45723E+03  7.64928E+02 -5.02859E+02  1.19867E+03  7.91499E+02
  3.83230E+03  9.03685E+03 -5.93705E+02  2.75174E+03  8.93778E+02  2.58184E+03 -4.18208E+02 -2.39451E+02
 -6.20128E+02 -5.83013E+02  1.72004E+03  4.04099E+03  1.01364E+03 -6.20649E+02  2.08897E+03  3.58001E+02
  2.54050E+02  8.30243E+02 -1.76491E+03  6.09703E+02 -2.60047E+03 -1.08100E+03  3.63330E+03 -1.77269E+03
 -1.76591E+03 -2.23623E+03 -1.03621E+03 -3.14294E+03  1.32069E+02  1.53030E+03 -9.37925E+01 -4.77283E+02
