 $NMID ID='MM_0lb_SNR50_8hz_g55_88.RAW', FMTDAT='(8E13.5)'
 TRAMP=1., VOLUME=1. $END
  3.11974E+05  2.76115E+03  3.42041E+05  2.52043E+05  8.19293E+04  3.37035E+05 -1.39109E+05  2.48370E+05
 -1.94388E+05  7.48325E+04 -1.10756E+05 -3.50730E+04  6.58356E+02 -4.79376E+04  5.49279E+04 -4.99743E+03
  3.13818E+04  5.41048E+04 -1.71037E+04  7.49798E+04 -6.41220E+04  6.67981E+04 -8.42538E+04  3.44272E+04
 -8.33119E+04 -1.60205E+04 -5.76298E+04 -5.29697E+04 -9.56841E+03 -7.30796E+04  2.48645E+04 -5.11936E+04
  3.96397E+04  3.73402E+03  2.28141E+04  4.77888E+04 -3.70505E+04  5.01832E+04 -6.65058E+04 -1.77744E+03
 -5.69456E+04 -5.29911E+04 -8.97729E+03 -7.98590E+04  4.35973E+04 -5.94907E+04  4.73308E+04 -1.36777E+04
  4.81055E+04  2.20276E+04  3.01523E+04  2.68411E+04  1.32242E+04  2.56053E+04 -6.00224E+03  2.63603E+04
 -2.39068E+04  1.41813E+04 -1.68663E+04  2.11128E+03  1.26189E+04 -1.03086E+03  2.72634E+04  1.69123E+04
  1.59043E+04  3.63951E+04 -3.11522E+04  3.84253E+04 -6.70749E+04  1.20228E+03 -6.20329E+04 -4.29097E+04
 -1.82584E+04 -5.93617E+04  4.82549E+04 -4.55907E+04  6.78462E+04 -8.55148E+02  3.78216E+04  3.37742E+04
 -2.53455E+03  3.98793E+04 -2.93855E+04  1.83505E+04 -3.25102E+04 -4.94219E+03 -1.66361E+04 -1.63598E+04
 -8.67042E+03 -1.79323E+04  1.40643E+03 -2.10751E+04  6.16461E+03 -3.22320E+04  1.37863E+04 -1.04432E+04
  8.94758E+03 -6.25306E+01 -1.18791E+04  3.77363E+03 -2.59810E+04 -1.19604E+04 -1.32591E+04 -4.16491E+04
  2.82227E+04 -5.10768E+04  4.80882E+04 -1.75303E+04  4.82807E+04  3.04482E+04  2.18397E+04  4.19299E+04
 -1.87495E+04  4.26709E+04 -3.73673E+04  4.18013E+03 -7.90736E+03 -3.38209E+04  2.53866E+04 -3.59560E+04
  5.29002E+04 -1.08304E+04  3.96913E+04  2.22059E+04  1.65776E+04  5.49282E+04 -1.27001E+04  5.49929E+04
 -4.02142E+04  4.02549E+04 -4.61924E+04  7.71217E+03 -4.89336E+04 -1.87768E+04 -2.98723E+04 -4.63122E+04
  1.37907E+04 -4.17538E+04  4.00581E+04 -2.19550E+04  3.38903E+04  5.19526E+03  2.11713E+03  2.39947E+04
 -9.94468E+03  1.64951E+04 -1.21946E+04 -3.44265E+03  4.48004E+03 -1.16749E+04  2.01365E+04  4.81320E+03
  1.97458E+04  2.30682E+04 -8.38355E+03  2.84338E+04 -2.41696E+04  1.28859E+04 -3.19569E+04 -3.53198E+03
 -2.07326E+04 -2.33141E+04 -1.66605E+04 -2.48346E+04  6.46792E+02 -3.15270E+04  1.93139E+04 -1.28204E+04
  3.10521E+04 -1.00012E+04  3.86358E+04  1.27051E+04  2.80740E+04  2.77719E+04  2.19868E+03  4.13569E+04
 -2.27403E+04  3.45278E+04 -2.94143E+04  1.28897E+04 -2.52179E+04 -1.06918E+04 -2.44266E+03 -1.72987E+04
 -6.74558E+03 -3.55720E+03 -1.15607E+04  8.49696E+03 -2.72522E+04  2.41019E+03 -1.53707E+04 -9.28121E+03
 -1.29283E+04 -2.98513E+04  7.14934E+02 -2.87130E+04  2.13569E+04 -2.51426E+04  3.25346E+04  4.21774E+02
  1.34714E+04  1.87603E+04 -6.79158E+03  2.63796E+04 -2.60780E+04  1.10727E+04 -2.76140E+04 -1.18801E+03
 -1.90774E+04 -3.01232E+04  4.07047E+02 -2.83913E+04  1.14161E+04 -2.37888E+04  2.04220E+04 -1.34227E+04
  2.87983E+04  5.04429E+03  6.59237E+03  1.68758E+03  6.00072E+03  5.39681E+03  1.30843E+04 -2.82658E+02
  2.20963E+04 -3.67826E+02  3.06912E+04  2.08578E+04  1.56769E+04  4.64833E+04 -7.10242E+03  4.49044E+04
 -2.34963E+04  4.62919E+04 -4.34687E+04  1.78355E+04 -5.12499E+04 -7.05420E+03 -3.87535E+04 -3.09264E+04
 -1.86857E+04 -4.23920E+04  1.71391E+04 -3.12114E+04  2.92998E+04 -2.14537E+04  2.22713E+04  8.44002E+03
  1.17228E+04  2.15178E+04 -9.59623E+02  1.63841E+04 -1.64782E+04  6.51315E+03 -1.25753E+04 -1.77708E+04
 -1.61491E+03 -1.54331E+04  5.60591E+03 -1.52900E+04  1.35343E+04 -2.15231E+03  3.62875E+03  4.45662E+03
 -7.42157E+03  7.28313E+03 -4.38980E+03 -5.52890E+03 -7.24545E+03 -2.13364E+04  2.15652E+04 -2.32756E+04
  3.74199E+04 -8.41082E+03  2.70728E+04 -5.84600E+01  2.29393E+04  1.90628E+04  1.87923E+04  3.32931E+04
 -5.99603E+03  2.77372E+04 -2.14243E+04  1.94440E+04 -2.34912E+04  2.79033E+03 -2.06341E+04 -8.17796E+03
 -5.07140E+03 -8.20700E+03 -2.39791E+03  8.64272E+03 -6.86590E+03  7.99245E+03 -1.52134E+04  8.89792E+03
 -2.45956E+04  3.19739E+03 -1.57079E+04 -1.40484E+04 -3.00109E+03 -2.61579E+04  6.35746E+03 -1.68772E+04
  1.64563E+04 -1.35031E+04  5.27856E+03  4.65450E+03 -2.15156E+03  1.18107E+04 -1.45451E+04 -3.33243E+03
 -1.07613E+04 -1.05092E+04 -7.35491E+03 -1.93400E+04  7.71636E+03 -1.91486E+04  2.40190E+04 -1.60356E+04
  2.94822E+04  9.79624E+03  2.07291E+04  1.21213E+04  8.16925E+01  2.45816E+04 -1.17325E+04  1.53117E+04
 -1.55728E+04  5.83003E+03 -1.09729E+04 -9.18444E+03 -6.82180E+02 -7.12948E+03  6.09277E+03  5.74586E+03
  1.03191E+04  6.57417E+03 -1.05058E+03  1.06720E+04 -1.42625E+04  9.72685E+03 -2.09958E+04  1.96735E+03
 -1.55516E+04 -1.74411E+04 -2.79016E+03 -1.44581E+04  1.35536E+04 -7.48022E+03  1.09099E+04  5.78411E+03
 -3.59405E+03  1.64324E+04 -1.30839E+04  1.39849E+04 -1.62502E+04  4.47062E+03 -2.05836E+04 -3.46170E+03
 -9.34336E+03 -1.85384E+04  4.96885E+03 -2.58489E+04  1.72802E+04 -1.52662E+04  8.10914E+03  4.59702E+03
  9.40722E+03  9.58446E+03  4.52973E+03  1.43568E+04 -1.42952E+04  1.02269E+04 -1.62114E+04 -5.79964E+03
 -1.35778E+04 -1.34803E+04 -6.17029E+03 -9.62735E+03  9.46230E+03 -7.75969E+03  8.61377E+03 -3.10937E+03
  8.83860E+03  5.04583E+02  2.53343E+03  7.75387E+03  1.76807E+03 -4.01346E+03 -9.69656E+02 -6.72801E+03
  1.04902E+04 -4.71786E+03  2.12320E+04  1.00179E+04  1.07518E+04  1.55098E+04  5.91985E+03  1.23554E+04
 -7.25030E+03  2.15200E+04 -1.70571E+04  2.25904E+04 -4.03365E+04  3.68985E+03 -1.80710E+04 -4.52201E+03
 -1.05848E+04 -1.03073E+04 -2.68383E+02 -1.22028E+04  3.07823E+03 -1.14643E+04  3.54940E+03 -7.54279E+03
  8.04684E+03 -5.07764E+03  1.19645E+03 -2.05910E+03  4.15356E+03 -4.59472E+02  1.36834E+04 -5.79734E+03
  1.00043E+04 -1.54330E+02  1.02929E+04  7.80305E+03 -9.05240E+03  1.55185E+04 -1.30488E+04  1.14400E+04
 -1.75857E+04 -1.25296E+02 -1.86618E+04 -8.56412E+03  5.08030E+02 -2.19981E+04  1.55844E+04 -1.47022E+04
  1.81538E+04 -2.27305E+03  1.79898E+04 -6.63393E+02  1.35022E+04  2.15851E+04  6.83192E+03  2.23677E+04
 -9.39521E+03  2.01062E+04 -1.01098E+04  1.04661E+04 -7.50798E+03  3.44009E+03 -3.52338E+03  1.24807E+03
  7.81527E+03  7.44132E+02 -2.13232E+03  1.61962E+03 -9.59538E+03  1.78562E+03 -8.62601E+03  7.84977E+01
 -1.36419E+04 -1.13216E+04 -7.51544E+02 -1.81510E+04  1.10015E+04 -1.73461E+04  1.74012E+04 -2.40032E+03
  1.08445E+04  1.41407E+04  8.30308E+03  4.40191E+03 -5.26091E+01  1.84759E+04 -9.16150E+03  8.44523E+03
 -1.75175E+04 -1.33814E+03 -1.94020E+04 -9.89114E+03 -8.90694E+03 -1.60139E+04 -5.16295E+02 -1.04803E+04
  1.41876E+04 -4.29429E+03  1.30286E+04 -1.12204E+03 -2.01679E+03  4.41237E+03  3.93941E+03 -3.80402E+02
 -2.12836E+03 -2.90728E+03  8.94643E+03 -7.12932E+02  6.31867E+03  6.87811E+03  1.84928E+03  1.40769E+04
 -1.15359E+03  1.81367E+04 -8.66692E+03  1.15614E+04 -1.61928E+04  6.21623E+03 -1.87520E+04 -1.07749E+04
 -7.74463E+03 -8.70007E+03  5.71559E+03 -2.23683E+04  8.92691E+03 -1.36520E+04  1.48988E+04 -3.77809E+03
  9.85610E+03  7.73850E+03  3.64747E+03  2.29487E+03 -8.14850E+03 -1.31520E+03 -6.11012E+03 -8.28837E+02
 -2.07689E+03 -1.91367E+03  1.54188E+03 -9.57463E+03  1.20236E+04 -2.69834E+03  8.21756E+03  5.15092E+03
  9.70015E+02  2.87289E+03  1.97411E+02  4.00085E+03 -2.74590E+03 -9.10761E+02  5.03082E+02 -2.29733E+03
  5.74006E+03  7.31228E+02  3.93898E+03  5.86230E+03  3.34694E+03  7.14826E+03  1.67786E+03  1.41763E+04
 -7.33303E+03  5.32878E+03 -1.14814E+04 -4.74580E+03 -9.42346E+03 -5.27795E+03 -9.21053E+03 -9.26862E+03
 -4.01008E+03 -9.14830E+03 -7.10706E+02 -1.34001E+03 -1.20763E+03  7.52373E+03 -1.01883E+04  9.47238E+03
 -9.55460E+03  1.73998E+03 -1.82704E+04 -2.88729E+03 -7.34644E+02 -1.39236E+04  3.02914E+03 -1.68865E+04
  9.27841E+03 -1.67648E+02  6.75157E+03  6.11956E+03  1.05483E+04  6.72801E+02 -3.40008E+02  7.12771E+03
 -4.35718E+03  3.76486E+03 -2.98856E+03  5.04555E+03 -6.76735E+03 -1.55678E+04  9.09683E+03 -6.55121E+03
  1.03683E+04 -7.96164E+02  2.02902E+04  5.47665E+03  8.12538E+02  7.71815E+03 -9.74889E+03  1.59595E+04
 -1.24873E+04  3.07936E+03 -1.15961E+04  1.85411E+03 -7.51381E+03 -9.02160E+03  3.32509E+03 -5.59787E+03
  6.18799E+03 -4.67888E+03  8.69615E+03  9.68987E+03 -1.41898E+03  7.14932E+03  2.45675E+03  4.60004E+03
 -4.38561E+03  4.42748E+03 -5.20242E+03  3.77992E+03  2.72768E+03 -2.60474E+03  1.34276E+03  1.83984E+03
 -3.03396E+03  3.76876E+03 -4.60745E+03  6.54917E+03 -8.25169E+03  3.66868E+03 -1.84693E+04 -1.08208E+04
 -2.42408E+03 -1.17095E+04  6.05816E+02 -1.99957E+04  3.49408E+03 -1.63622E+04  1.63773E+04 -1.20186E+04
  1.38929E+04 -9.30256E+02  9.76852E+03  1.46734E+04  2.15229E+03  1.14298E+04 -7.93724E+03  1.39385E+04
 -1.28893E+04  3.34372E+03 -1.23163E+04  3.56606E+03 -1.38998E+03 -2.43299E+03 -1.91202E+03 -5.13306E+03
 -1.61934E+03  5.04569E+03 -7.03735E+03 -7.07603E+03  1.61775E+03 -6.10517E+03  2.80821E+03 -6.15940E+03
 -2.55115E+03 -4.01432E+02  8.20674E+03  6.35818E+03  7.48513E+03  2.65163E+03  1.03736E+03  1.25512E+04
 -6.70099E+03  1.65406E+04 -1.99794E+04  5.95042E+03 -1.62404E+04 -8.78438E+02 -6.74379E+03 -1.06336E+04
 -4.90158E+03 -6.75198E+03  4.63730E+03 -8.47115E+03  1.39455E+04 -5.71951E+03  6.87586E+03  2.56838E+03
  2.12759E+03  1.81157E+03  4.82455E+02  1.04116E+04 -1.85293E+03  3.21966E+03  5.33828E+03 -4.21431E+03
  3.49665E+03  8.98283E+03  7.13496E+03  2.93936E+03 -1.94467E+03 -7.36327E+02 -5.32894E+03  1.69461E+03
 -5.24504E+03  7.54115E+03 -7.51161E+03  5.82136E+02 -4.42171E+03 -7.58850E+03  2.48861E+03 -1.28666E+04
  9.27252E+03 -1.02589E+04  1.61760E+04 -3.28821E+03  7.59416E+03  3.24976E+03  3.10180E+03  6.77132E+03
  1.61104E+03  1.24039E+04 -3.78569E+03  6.97229E+03 -4.14041E+03  6.00664E+03 -3.38064E+03  6.20757E+03
  1.56328E+02 -3.94379E+03 -4.50188E+03  1.60701E+03 -9.40507E+03 -4.07429E+03 -5.47313E+03  2.23462E+03
 -9.77083E+03 -6.95838E+03 -3.86504E+03 -5.70783E+03  2.66812E+03 -9.27520E+03  7.93778E+03 -2.15395E+03
  3.68530E+03  5.55535E+03  6.19714E+03  3.88244E+03 -2.76413E+03  1.32058E+04 -9.16627E+03  5.68503E+03
