 $NMID ID='MM_0lb_SNR50_17hz_g50_12.RAW', FMTDAT='(8E13.5)'
 TRAMP=1., VOLUME=1. $END
  3.07619E+05  7.31212E+03  3.37556E+05  2.51544E+05  8.60374E+04  3.37270E+05 -1.34205E+05  2.51625E+05
 -1.87704E+05  8.52548E+04 -1.14641E+05 -3.20697E+04 -2.87737E+03 -4.93327E+04  5.56200E+04 -3.14152E+03
  3.29842E+04  5.38193E+04 -1.65232E+04  7.85343E+04 -6.36679E+04  6.87672E+04 -8.47417E+04  3.62284E+04
 -8.13385E+04 -1.12958E+04 -5.61223E+04 -4.76298E+04 -1.31118E+04 -6.48775E+04  3.17021E+04 -4.46500E+04
  3.94941E+04  5.05693E+03  1.51060E+04  4.60463E+04 -3.11766E+04  4.47531E+04 -6.55414E+04  8.69119E+02
 -4.81156E+04 -5.43638E+04 -1.01956E+04 -7.57861E+04  3.76503E+04 -5.35349E+04  4.44918E+04 -1.57486E+04
  4.26535E+04  8.86172E+03  3.48723E+04  2.35644E+04  1.29153E+04  2.91079E+04 -5.87545E+03  2.47544E+04
 -2.33754E+04  1.25107E+04 -2.00089E+04 -7.06801E+03  3.13212E+03 -6.76124E+03  2.26288E+04  9.26656E+03
  6.54521E+03  3.43522E+04 -2.74178E+04  3.56708E+04 -6.55304E+04  3.01435E+03 -5.64560E+04 -4.34662E+04
 -1.05836E+04 -6.17196E+04  4.18137E+04 -3.84010E+04  5.52014E+04 -4.57075E+03  3.04800E+04  3.08844E+04
 -2.96011E+03  3.36675E+04 -3.23499E+04  1.46427E+04 -2.71793E+04 -4.04326E+03 -1.98570E+04 -8.68562E+03
 -1.01230E+04 -1.21694E+04 -8.36486E+01 -1.40729E+04  6.79204E+03 -2.29403E+04  9.78367E+03 -1.11638E+04
  1.33003E+04  4.14261E+03 -2.12609E+03  1.16365E+04 -2.18371E+04 -7.90292E+02 -7.43228E+03 -3.23083E+04
  2.35342E+04 -4.12391E+04  4.71613E+04 -1.93121E+04  4.04458E+04  1.84874E+04  1.30680E+04  4.30460E+04
 -1.30717E+04  2.97919E+04 -2.19643E+04  6.13050E+02 -7.38982E+03 -2.68053E+04  1.94378E+04 -3.04624E+04
  3.81057E+04 -1.17035E+04  2.97258E+04  2.09827E+04  1.71807E+04  4.38209E+04 -7.15529E+03  4.64097E+04
 -2.74820E+04  3.03875E+04 -3.58907E+04  1.02664E+04 -4.14704E+04 -1.64663E+04 -2.37775E+04 -3.84601E+04
  5.94152E+03 -3.69787E+04  3.01008E+04 -1.22246E+04  2.52310E+04  1.20476E+04  2.15886E+02  1.76632E+04
 -1.14404E+04  4.98981E+03 -1.32709E+04 -4.77934E+03  6.46570E+03 -1.13373E+04  2.03327E+04  3.93397E+03
  1.33068E+04  2.09656E+04 -7.63629E+03  2.27197E+04 -2.11383E+04  1.06105E+04 -2.58251E+04 -3.01489E+03
 -1.99185E+04 -1.39640E+04 -8.14593E+03 -1.62595E+04  1.84208E+03 -1.62377E+04  1.07909E+04 -2.03442E+04
  2.47069E+04 -1.20040E+04  3.29816E+04  2.82245E+02  1.79559E+04  1.58905E+04  2.35999E+03  3.60252E+04
 -1.67658E+04  3.00774E+04 -3.13767E+04  9.50154E+03 -1.98214E+04 -6.27217E+03 -2.53452E+03 -1.35034E+04
  1.96152E+03 -4.95255E+03 -1.33970E+03  5.21006E+03 -1.73251E+04  4.93544E+03 -1.38314E+04 -2.06371E+03
 -8.38672E+03 -1.44547E+04  5.43068E+03 -2.31488E+04  1.06036E+04 -1.11116E+04  1.66438E+04 -1.54141E+03
  1.06414E+04  1.30326E+04 -2.47853E+03  1.85725E+04 -1.48824E+04  7.62793E+03 -1.72641E+04 -3.38620E+03
 -1.06843E+04 -1.39773E+04 -1.50220E+02 -2.27635E+04  1.11769E+04 -1.83353E+04  1.86907E+04 -7.58041E+03
  1.20322E+04 -1.49992E+03  9.22038E+03  7.23814E+03  3.46691E+03  1.82038E+03  7.20453E+03  7.84647E+02
  1.85470E+04  2.42812E+03  1.53115E+04  1.40698E+04  1.30754E+04  2.39527E+04 -6.87173E+03  2.81721E+04
 -1.58233E+04  2.37956E+04 -2.52255E+04  7.65938E+03 -2.37721E+04 -7.18499E+02 -2.14410E+04 -1.51459E+04
 -9.45015E+03 -1.89150E+04  1.28963E+04 -2.27618E+04  1.85211E+04 -6.97739E+03  1.86327E+04  2.47460E+03
  5.36176E+03  1.33559E+04 -8.99450E+03  9.31172E+03 -1.53854E+04  2.13405E+03 -1.33143E+04 -7.38978E+03
 -1.80031E+03 -1.41973E+04  1.07126E+04 -6.91844E+03  1.04139E+04 -5.45126E+02 -2.78720E+02  5.29181E+03
 -4.39888E+03 -1.24562E+03 -4.72266E+03 -7.95625E+03 -3.46393E+03 -8.20358E+03  6.51603E+03 -1.48145E+04
  1.55439E+04 -3.99601E+03  1.33178E+04  1.97117E+03  1.34429E+04  7.65868E+03  5.71528E+03  1.44863E+04
 -1.68461E+03  1.95072E+04 -7.00586E+03  1.20269E+04 -1.33810E+04  9.01894E+02 -7.33761E+03 -1.11547E+03
 -5.26929E+03 -7.39292E+03  1.84522E+03  3.15205E+03 -1.45335E+03 -1.18334E+03 -3.55300E+03  3.86792E+02
 -7.09721E+03 -1.24333E+03 -8.84799E+03 -1.02115E+04 -7.50941E+02 -1.54387E+04  8.02930E+03 -9.33711E+03
  5.45275E+03 -4.16113E+03  6.60533E+03 -2.44751E+03  4.92395E+02  2.65196E+03 -1.50396E+03  8.28875E+02
 -3.97852E+03 -7.35838E+03 -1.90547E+02 -4.41619E+03  6.79629E+03 -6.31203E+03  6.96093E+03 -3.78238E+03
  1.61120E+04  1.76787E+03  8.76142E+03  1.13213E+04  1.61763E+03  7.27263E+03 -6.04993E+03  9.76725E+03
 -7.63018E+03  3.58485E+03 -1.24979E+03 -4.82795E+02 -2.19763E+02 -1.48635E+03  7.40617E+03 -5.00608E+03
  4.85137E+03  2.07027E+03 -1.91964E+03  5.36762E+03 -7.91496E+03  5.84266E+03 -6.05832E+03  3.50375E+03
 -5.73290E+03 -4.57596E+03  1.29667E+03 -4.43710E+03  2.70692E+03 -4.00290E+03  3.43104E+03  1.63906E+03
  3.60700E+03  3.86177E+03 -4.04381E+03  2.74321E+03 -1.07569E+04  2.74113E+03 -4.70747E+03 -8.97329E+02
 -4.76371E+03 -6.40227E+03 -2.59005E+02 -6.76289E+03  5.81746E+03  1.49383E+03  7.77782E+03  3.08320E+03
  3.77930E+03  4.92109E+03  4.46145E+02  9.44938E+03 -5.56449E+03  3.72005E+03 -7.01727E+03  6.76733E+03
 -3.63990E+03 -5.73612E+03 -4.96354E+02 -5.82414E+03  2.52425E+03 -8.48173E+03  6.89569E+03 -2.35959E+03
  8.30658E+03  5.86181E+02 -2.13873E+03  3.09987E+03  1.72802E+03 -5.62244E+03 -3.08438E+03  1.95207E+03
  6.54445E+03  2.43004E+03  9.96256E+03  2.67399E+03  7.31096E+03  4.31886E+03  9.29462E+03  1.33080E+04
 -5.22387E+03  7.45424E+03 -9.13231E+03  8.68694E+03 -1.17307E+04 -1.45783E+02 -1.07044E+04 -1.70837E+03
 -5.99004E+03 -9.62022E+03 -3.84870E+03 -6.86883E+03  5.70654E+03 -4.64666E+02 -3.82444E+03 -6.69676E+03
  3.86011E+03 -3.47884E+03  3.01096E+03 -3.52945E+03  2.39452E+03 -1.42656E+03  3.49348E+03  1.28161E+03
  5.86200E+03  1.39248E+03  1.68037E+03  2.14994E+03 -4.39404E+02  2.40891E+03 -6.28863E+03  3.02715E+03
 -9.86205E+03  2.61758E+03 -1.14305E+03 -4.91151E+03  5.06050E+03 -8.69632E+03  1.24761E+03 -1.19554E+04
  1.01115E+04 -7.19565E+03  1.11454E+04 -3.75849E+03  7.87835E+03  3.01433E+03 -1.87980E+03  9.00249E+03
 -4.92904E+03  6.82930E+03 -3.10005E+03 -3.53359E+03 -2.27512E+03 -1.70864E+03 -1.29330E+03 -1.68532E+03
 -9.68292E+02  2.16939E+03 -6.47069E+02  3.33769E+03 -4.75014E+03  7.97420E+02 -3.52223E+03  2.52703E+03
 -5.96435E+03 -9.64917E+03  3.87334E+03 -8.52427E+03  3.60305E+03 -8.43634E+03  7.46615E+03 -2.74188E+03
  9.33044E+03  2.47142E+03 -3.97275E+02  6.77860E+03 -2.41613E+03 -4.60563E+02 -1.67854E+03 -1.98812E+02
 -8.53606E+03  1.33600E+03 -5.80842E+03 -5.75982E+03  1.93487E+03 -2.04269E+03  1.78242E+03 -2.45119E+03
  7.88524E+03 -1.51293E+03 -2.50685E+03  4.36746E+02  7.27627E+03  5.75307E+03  4.34222E+03 -8.09416E+02
  2.80779E+03  3.22923E+03  1.22244E+03  3.24942E+03  8.69514E+02  1.93513E+03  7.06787E+03  2.42421E+03
  9.90622E+01  4.27024E+03 -1.89698E+03  5.42654E+03 -2.42715E+03  3.53511E+03 -3.46287E+03 -1.91748E+02
 -1.00646E+03 -5.31624E+03  4.01029E+03 -1.78271E+03  4.93676E+03 -5.81390E+03  3.72948E+03 -2.14983E+03
  2.14315E+03  7.10984E+03  4.38830E+03  5.60389E+02 -2.20933E+03  2.77697E+03 -2.01101E+03 -4.45736E+03
 -3.73161E+03 -5.13205E+03 -2.32038E+03 -2.68188E+03  2.83024E+03 -2.63297E+03  3.87264E+03 -3.79996E+03
 -3.07021E+03 -2.00346E+03  3.07627E+03  1.74423E+03 -6.51486E+02 -4.75911E+02  1.10003E+03 -1.49319E+03
  3.26834E+03  1.71861E+03  3.67419E+03  9.22995E+02  4.50055E+01 -2.10120E+02 -4.78812E+03  6.64589E+03
  3.16321E+03  3.29966E+03 -5.26102E+02  1.39133E+03  2.32021E+02 -2.55480E+02  1.98034E+03  5.17019E+02
 -1.05115E+03 -4.38909E+03  1.48854E+02  8.26175E+01  9.07434E+02 -1.29602E+03  3.45353E+03  1.85868E+03
 -3.08777E+03 -3.21420E+02  1.23166E+03 -3.85551E+03 -4.82007E+02 -1.26734E+03 -1.70323E+03  4.55041E+02
  1.16561E+03 -1.69620E+02 -1.82621E+03  1.72233E+03  2.87909E+03 -4.41901E+03 -1.55079E+03 -1.85939E+02
  2.06349E+03 -1.65304E+02 -3.64646E+03 -1.02336E+03 -4.59145E+03 -2.98224E+03 -5.93339E+02 -1.61781E+02
 -1.47094E+03  1.01250E+03 -2.35836E+03  1.50040E+02 -1.32925E+02  1.86142E+03 -7.79683E+02  2.34124E+03
 -1.40015E+03 -8.89491E+02 -3.67113E+03 -1.76676E+03 -7.13900E+03 -5.99118E+03 -6.67376E+02  3.44210E+02
  3.24476E+03 -4.10885E+03  4.33667E+03 -2.86334E+02 -6.17059E+03  4.52327E+02 -1.99900E+03  1.16460E+02
  1.63331E+03  1.42886E+03 -1.91917E+03  1.28370E+03  5.45263E+03  4.82994E+02 -2.76855E+03  1.89996E+03
 -4.91326E+02  8.80057E+02 -1.90576E+03  2.28706E+03 -8.25295E+02 -1.68646E+03 -2.05210E+03  2.05024E+03
 -1.06214E+03 -4.57273E+03  4.61102E+03 -4.33101E+03  3.68063E+03 -1.48915E+03  2.41516E+03  3.53581E+03
  9.11619E+01  6.30882E+02  3.30733E+03  3.85814E+02 -7.62515E+02  4.72420E+03 -1.47598E+03 -1.39765E+03
 -1.89268E+03 -2.40370E+03 -4.89438E+03 -1.14131E+03 -1.86002E+03 -1.00551E+03 -4.33809E+02 -5.08148E+02
  3.41974E+03  5.52452E+03 -8.61296E+02  3.66418E+02  2.63746E+03  2.05329E+03 -2.37795E+03 -1.51231E+03
  5.44426E+03 -3.83623E+03 -6.51126E+02 -8.75133E+01 -3.99283E+03  7.08506E+02  5.23433E+02 -2.16876E+02
  6.98021E+02  3.23223E+03 -3.15218E+03 -2.79094E+02 -3.82360E+03 -5.06524E+03 -1.62199E+03 -3.90435E+03
 -1.24707E+03 -1.83129E+02 -6.57982E+02 -2.34500E+03 -1.30489E+02 -6.01972E+03  1.70903E+03  1.48485E+03
  3.21081E+03 -1.14850E+03 -1.00342E+03  2.63330E+03 -1.96829E+03  3.58567E+03  2.49873E+03  1.55537E+03
 -1.85260E+03 -1.77322E+03  4.95173E+03  5.15779E+01  2.31300E+03 -1.91628E+03  1.86344E+03  3.09565E+02
 -1.78761E+03  4.20502E+03 -4.88364E+03  4.54150E+03 -4.03601E+03 -2.92775E+03  1.09614E+03  4.17844E+02
  3.57457E+03 -3.09023E+03  1.19835E+03 -1.51593E+03 -2.48570E+03 -1.03935E+03  6.80804E+02  5.49986E+02
  4.38117E+03  1.03543E+03  1.86785E+03 -1.83287E+03 -3.27714E+01  1.25284E+03 -2.99666E+02  3.14289E+02
 -6.75350E+03 -2.50154E+03  2.60320E+03  1.08378E+03 -3.28721E+03 -5.60135E+03 -2.41876E+03 -1.04858E+03
  9.10826E+02  4.69937E+03 -2.86804E+03  5.56771E+03 -6.44087E+02 -6.70437E+03 -1.90773E+03  1.17094E+03
 -1.87793E+03  1.04981E+03 -1.68091E+03  3.64635E+02 -3.74742E+03 -4.85354E+02 -2.26592E+03  1.87027E+03
