 $NMID ID='MM_0lb_SNR50_9hz_g50_68.RAW', FMTDAT='(8E13.5)'
 TRAMP=1., VOLUME=1. $END
  3.08365E+05  2.89886E+03  3.42358E+05  2.57730E+05  8.13830E+04  3.40532E+05 -1.34559E+05  2.54505E+05
 -1.92946E+05  8.52420E+04 -1.11926E+05 -3.16937E+04  2.15351E+02 -4.93719E+04  4.97427E+04 -7.30857E+02
  3.38461E+04  5.10240E+04 -1.54919E+04  7.53517E+04 -6.17720E+04  6.25726E+04 -8.63679E+04  2.49074E+04
 -8.72386E+04 -9.14416E+03 -5.74651E+04 -5.84523E+04 -1.92401E+04 -7.16482E+04  2.63539E+04 -5.01638E+04
  4.34510E+04 -8.11664E+02  2.15621E+04  4.14916E+04 -3.57336E+04  4.94920E+04 -7.60117E+04 -5.36946E+02
 -5.35690E+04 -5.76095E+04 -8.67045E+03 -8.15223E+04  3.38546E+04 -6.33425E+04  4.62560E+04 -2.16343E+04
  5.51942E+04  1.65470E+04  3.33663E+04  2.26939E+04  1.63147E+04  3.19926E+04 -1.37194E+03  2.09656E+04
 -2.08473E+04  1.07253E+04 -1.61378E+04 -2.68678E+03  1.03602E+04 -7.82103E+02  2.80650E+04  9.81633E+03
  1.30081E+04  4.13454E+04 -3.15970E+04  4.11785E+04 -7.46594E+04 -4.14146E+03 -6.18458E+04 -4.27354E+04
 -7.32130E+03 -6.44857E+04  3.59206E+04 -4.59357E+04  7.09745E+04  2.32664E+03  4.09521E+04  3.50531E+04
 -6.43937E+03  3.50780E+04 -3.41299E+04  2.32028E+04 -3.22450E+04 -2.15239E+03 -2.07558E+04 -1.23169E+04
 -8.04792E+03 -1.35774E+04  5.67810E+03 -1.82901E+04  4.17092E+03 -2.04633E+04  1.77704E+04 -1.89074E+04
  1.25635E+04  3.17269E+03 -6.07851E+03  1.42797E+04 -2.67543E+04 -7.22573E+03 -1.23908E+04 -3.23455E+04
  2.77907E+04 -4.70721E+04  5.22125E+04 -1.84308E+04  5.24863E+04  2.11654E+04  2.38654E+04  4.66348E+04
 -1.58543E+04  3.42817E+04 -2.48321E+04 -1.54123E+03 -9.41264E+03 -2.46761E+04  2.39240E+04 -3.62061E+04
  5.01052E+04 -1.29372E+04  3.64524E+04  2.45309E+04  2.06412E+04  4.87867E+04 -3.45434E+03  6.35530E+04
 -3.60219E+04  3.74868E+04 -4.69696E+04  1.72465E+04 -4.70459E+04 -1.69006E+04 -2.77969E+04 -4.98081E+04
  7.08798E+03 -4.02363E+04  3.49555E+04 -2.04262E+04  3.18326E+04  1.20409E+04  9.90196E+03  1.38157E+04
 -9.66996E+03  9.80624E+03 -1.63960E+04 -9.05884E+03  4.20018E+03 -1.52382E+04  1.21186E+04  4.52730E+03
  1.88218E+04  2.49201E+04 -1.36759E+04  3.10456E+04 -2.28534E+04  7.79396E+03 -2.93161E+04 -3.30132E+03
 -2.25647E+04 -1.64660E+04 -1.67576E+04 -2.42069E+04  6.74373E+02 -2.24812E+04  1.92168E+04 -2.22646E+04
  3.37431E+04 -9.51720E+03  4.34407E+04  3.90276E+03  2.87402E+04  2.41476E+04  5.71955E+03  3.87604E+04
 -1.55655E+04  3.48789E+04 -3.90617E+04  7.93887E+03 -2.10878E+04 -8.50422E+03 -4.61556E+03 -7.28074E+03
  1.16425E+03  2.69620E+03 -2.28221E+03  6.08485E+03 -2.74437E+04  3.90919E+03 -2.35826E+04 -8.86166E+03
 -1.42753E+04 -3.08564E+04  7.92245E+03 -2.56940E+04  1.98943E+04 -2.30795E+04  2.20339E+04  1.28641E+02
  1.64634E+04  1.30018E+04 -2.30328E+03  2.38215E+04 -1.08547E+04  1.06082E+04 -2.66257E+04 -3.60930E+03
 -1.33236E+04 -2.17506E+04  2.31093E+03 -3.15313E+04  8.33217E+02 -2.15373E+04  1.99661E+04 -8.99672E+03
  2.47952E+04 -7.41230E+01  2.53196E+04  8.88891E+03  1.02786E+04  4.94205E+03  1.95787E+04 -4.77759E+03
  2.10932E+04  1.29367E+04  2.69905E+04  1.39705E+04  1.90299E+04  3.77954E+04 -2.62204E+03  4.54201E+04
 -2.17758E+04  3.45617E+04 -3.60703E+04  1.60831E+04 -3.91454E+04 -4.54832E+03 -3.50895E+04 -2.99483E+04
 -1.42665E+04 -3.77083E+04  1.28806E+04 -3.24067E+04  2.83324E+04 -1.90724E+04  2.73048E+04  9.10601E+03
  9.25240E+03  2.29896E+04 -1.30655E+04  1.64562E+04 -1.72975E+04  3.61363E+03 -1.29525E+04 -1.04333E+04
 -4.44156E+03 -1.45802E+04  5.93927E+03 -1.52295E+04  1.41581E+04 -1.06379E+02  3.68592E+03  1.19415E+04
 -8.04687E+03  3.89158E+03 -3.01237E+03 -3.64819E+03  4.05793E+03 -2.07886E+04  1.26334E+04 -2.11723E+04
  1.83445E+04 -7.51059E+03  2.57553E+04  6.06545E+03  2.54765E+04  2.21814E+04  1.26927E+04  3.16454E+04
 -1.41943E+03  2.52881E+04 -1.91023E+04  1.92652E+04 -1.74619E+04 -2.04895E+03 -1.66175E+04 -1.25813E+04
 -5.63035E+03 -8.97827E+03 -7.56398E+02 -1.20459E+03 -1.94971E+03  4.83248E+03 -8.13957E+03  1.12339E+03
 -1.62764E+04  1.34914E+03 -1.54026E+04 -1.51766E+04 -4.65189E+03 -1.59873E+04  4.37713E+03 -1.89371E+04
  1.35889E+04 -3.50206E+03  1.77690E+04  6.27214E+03 -1.60031E+03  1.05811E+04 -8.71519E+03 -3.10925E+03
 -1.98855E+04 -1.41716E+04  7.04987E+01 -1.52570E+04  1.43461E+04 -1.47717E+04  1.94933E+04 -1.21280E+04
  2.53725E+04 -2.93092E+03  2.05868E+04  1.38542E+04  1.58789E+03  1.42148E+04 -9.90337E+03  1.47499E+04
 -1.22125E+04  6.47921E+03 -2.85433E+03 -1.26923E+03  2.50023E+03 -9.16989E+03  4.36120E+03  5.79330E+02
  5.85961E+03  5.41960E+03  5.22707E+02  1.17959E+04 -1.43388E+04  1.53758E+04 -1.52673E+04  4.15019E+03
 -4.70401E+03 -5.08735E+03  1.56002E+03 -9.38705E+03  6.20219E+03 -2.87142E+03  1.28124E+04  2.38016E+03
 -2.05058E+03  8.58805E+03 -9.67727E+03  1.94624E+04 -2.14448E+04  6.84016E+03 -1.78898E+04 -8.54384E+03
 -3.47375E+03 -1.65204E+04  4.88109E+03 -1.89131E+04  1.75044E+04 -9.27142E+03  1.48113E+04  6.92441E+03
  9.40673E+03  1.52536E+04  1.49343E+03  1.17732E+04 -1.15986E+04  6.76790E+03 -1.47352E+04  3.43807E+03
 -1.67905E+04 -4.79738E+03 -1.30984E+03 -8.37728E+03  4.59359E+03 -1.25777E+04  7.27249E+03 -7.74654E+03
  2.45769E+03 -5.34316E+03 -4.09237E+03 -4.57098E+03  2.14894E+03 -4.68938E+03  1.05007E+03 -2.76758E+03
  1.16313E+04 -4.32614E+03  1.68999E+04  5.21370E+03  1.17547E+04  1.31200E+04  1.13737E+04  1.99595E+04
 -1.60181E+03  2.32073E+04 -1.30075E+04  2.18783E+04 -2.92237E+04  8.16429E+03 -2.77791E+04 -3.88368E+03
 -1.11635E+04 -1.93886E+04 -1.07678E+03 -1.33320E+04  5.40281E+03 -6.32473E+03 -1.24804E+02 -7.83904E+03
  6.51823E+03 -2.11095E+03  5.00691E+03 -3.57704E+03 -5.60196E+03 -5.74339E+03  7.01890E+03 -1.84738E+03
  1.86078E+04  4.92404E+03  6.63178E+02  1.29226E+04 -4.35250E+03  1.04816E+04 -1.28151E+04  4.22326E+03
 -1.79967E+04 -2.35097E+03 -7.64712E+03 -9.97515E+03 -1.07875E+02 -1.34645E+04  1.78217E+04 -1.62913E+04
  1.49676E+04 -8.91631E+03  2.29328E+04  9.64672E+02  6.54415E+03  8.17927E+03  4.83287E+03  1.92469E+04
 -8.69156E+03  1.85662E+04 -7.34955E+03  5.81247E+03 -9.65117E+03 -5.27046E+03 -5.40867E+03 -4.64901E+03
  5.57661E+02  4.82285E+03  2.16282E+03  5.13348E+03 -9.28562E+03  2.32942E+03 -6.53724E+03  2.48023E+01
 -4.48762E+03 -1.10868E+04  4.90040E+03 -1.65300E+04  1.18682E+04 -1.92987E+04  1.45369E+04  8.83833E+02
  1.52563E+04 -5.40313E+02  1.02997E+04  9.96719E+03 -7.24172E+02  2.29827E+04 -1.44854E+04  1.12174E+04
 -1.39168E+04  3.01198E+03 -1.26797E+04 -7.65950E+03 -2.68114E+03 -1.57160E+04  8.56205E+03 -1.09709E+04
  1.23446E+04  4.65892E+02  2.37280E+03  3.09465E+03  7.39572E+03  4.90373E+03 -1.86070E+03  3.97329E+03
  3.64721E+02 -2.97873E+03 -1.64847E+03  5.42908E+03  6.05515E+03  4.45682E+03  1.08321E+04  5.31373E+03
 -2.35888E+02  1.01947E+04 -9.88203E+03  1.34972E+04 -1.60809E+04 -7.88618E+02 -1.32399E+04 -6.19849E+02
 -9.46644E+03 -1.95411E+04  6.65831E+03 -2.01544E+04  6.58313E+03 -8.83844E+03  1.42528E+04 -5.71032E+03
  1.79313E+04  2.37722E+03 -1.84596E+03  1.15136E+04 -6.77543E+02  9.93361E+03 -1.16804E+04 -3.93030E+03
 -5.78677E+03 -9.71660E+03 -4.76737E+02 -1.56661E+03  7.12226E+03 -5.14189E+03  8.11997E+03 -1.84565E+03
  3.80603E+03  7.40750E+03  3.15426E+03  4.25483E+02 -3.96493E+03  2.74820E+03  2.45501E+03 -2.54948E+03
  4.08490E+03  1.65100E+03  1.17944E+04 -3.68527E+03 -1.15965E+03  5.91653E+03 -2.41792E+03  8.35359E+03
 -7.37153E+03  1.08543E+04 -5.48216E+03 -9.01738E+02 -6.56720E+03 -7.46194E+03 -5.46088E+03 -2.05762E+03
  7.55900E+03 -6.87033E+03  2.78941E+03 -6.85141E+03 -6.97983E+02  6.70300E+03  1.29165E+03  2.73033E+03
 -4.61278E+03  5.05899E+03 -1.14435E+04 -8.41233E+03 -6.51558E+03 -4.00716E+03  1.42343E+03 -6.44527E+03
  8.00986E+03 -7.00254E+03  8.54646E+03  1.15925E+04  5.36859E+03 -1.53314E+03  2.87437E+03  1.77709E+03
 -5.11746E+03 -3.93607E+03 -3.06913E+03  1.31145E+03 -2.66566E+03 -1.27491E+04  1.41573E+04 -8.46126E+03
  7.74810E+03 -5.09330E+03  1.28368E+04  3.99119E+03 -5.63420E+02  1.75814E+04 -2.73501E+03  1.38550E+04
 -6.72205E+03  4.07153E+03 -1.55905E+04 -4.66839E+03  2.33217E+03 -8.76489E+03 -3.19461E+03 -8.07147E+03
  4.05107E+03 -7.89677E+02  4.76293E+03  5.77781E+03 -2.08758E+03  3.58599E+03 -3.55006E+03  6.31978E+03
 -4.73109E+03 -1.95752E+03 -4.13052E+02  5.29771E+02 -5.50701E+03  2.53008E+03  5.72077E+01  2.82827E+03
 -1.06196E+04 -1.31426E+02 -5.29285E+03  3.33536E+03 -4.55770E+03 -2.33591E+03 -1.00668E+04 -1.05821E+04
 -8.69626E+03 -1.48285E+04  2.39207E+03 -1.30927E+04  8.82291E+03 -9.92194E+03  1.06615E+04 -6.61223E+03
  9.73496E+03  3.57796E+03  1.24484E+04  6.97353E+03 -4.29160E+03  1.03266E+04 -7.97229E+03  1.00564E+04
 -5.54243E+03  3.72902E+03 -6.12525E+03 -3.05491E+03 -7.31651E+03 -4.98987E+03  7.02991E+02 -1.55041E+02
 -1.29188E+03 -5.34773E+03 -6.48941E+01 -1.23726E+03 -6.92663E+02  1.02231E+03 -1.11860E+03 -7.78738E+03
  9.45910E+03  1.57161E+03  6.88557E+03  1.15397E+02  8.41506E+03  2.42002E+03  2.22545E+03  1.00029E+04
 -6.84562E+03  1.68361E+04 -9.46180E+03  8.32818E+03 -1.79760E+04 -9.28846E+03 -1.25585E+04 -9.57438E+03
 -7.50607E+03 -7.51226E+03 -4.57963E+02 -7.60304E+03  1.05607E+04 -4.06598E+03  1.23218E+04  3.68315E+03
 -2.00436E+03  1.19822E+03  1.12832E+03 -8.97520E+01 -8.05071E+03 -4.10415E+02 -7.64909E+03 -3.54908E+02
  2.98882E+03 -6.13243E+03  8.20862E+02 -1.78245E+02 -2.57168E+03 -2.75008E+03  8.62593E+02  6.84106E+03
 -6.88411E+03  4.88903E+03 -5.58654E+03  3.96148E+03 -4.61132E+03 -6.59464E+03 -2.87667E+03 -9.85668E+03
  5.62126E+03 -1.28890E+04  3.61417E+03 -1.38918E+03  3.03601E+03  3.44366E+03  3.82542E+03  5.98121E+03
 -3.04972E+03  3.80865E+03  8.80392E+02  1.47802E+04  3.79543E+03 -4.02554E+03 -4.76351E+03 -1.09839E+03
 -5.41898E+03 -9.42068E+02  9.37946E+02 -1.95934E+03 -4.28521E+03 -3.44930E+03 -4.91797E+03 -1.04497E+03
 -2.45036E+03 -7.00834E+03 -4.44363E+03 -5.92487E+03 -9.23429E+02 -9.85810E+03  2.22441E+03 -5.39684E+02
  8.43478E+03  5.75760E+03  5.64533E+03  7.78954E+03  1.06972E+03  1.07838E+04  1.03450E+03  1.56673E+03
