 $NMID ID='MM_0lb_SNR50_7hz_g55_15.RAW', FMTDAT='(8E13.5)'
 TRAMP=1., VOLUME=1. $END
  3.06818E+05 -1.68539E+03  3.37555E+05  2.49928E+05  8.84323E+04  3.39573E+05 -1.33859E+05  2.56493E+05
 -1.95141E+05  8.27530E+04 -1.22124E+05 -3.50696E+04 -3.81786E+03 -5.37426E+04  5.48012E+04 -4.48447E+02
  2.90849E+04  4.63449E+04 -1.70265E+04  8.01646E+04 -5.75655E+04  6.65759E+04 -7.78503E+04  2.98487E+04
 -8.85295E+04 -1.12134E+04 -5.74784E+04 -5.39715E+04 -1.96381E+04 -7.16687E+04  3.64935E+04 -4.80292E+04
  4.06238E+04  3.72678E+03  1.39509E+04  4.15854E+04 -3.19727E+04  4.40315E+04 -6.10923E+04  2.86831E+03
 -5.90987E+04 -5.20109E+04  2.22906E+03 -7.93559E+04  2.95398E+04 -6.62635E+04  5.00476E+04 -2.51503E+04
  4.22603E+04  1.53430E+04  3.51234E+04  2.92299E+04  1.59718E+04  2.43629E+04 -4.00647E+03  2.83414E+04
 -2.20240E+04  1.55902E+04 -2.21716E+04 -3.77617E+03  1.08674E+03 -9.31016E+03  2.82419E+04  1.48691E+04
  1.91789E+03  4.09543E+04 -3.07343E+04  4.40106E+04 -6.61548E+04 -3.58594E+02 -6.15771E+04 -3.93219E+04
 -8.99433E+03 -6.63323E+04  4.54089E+04 -5.49051E+04  5.95769E+04  2.72747E+03  3.18243E+04  3.60264E+04
 -5.94035E+03  4.29046E+04 -3.48258E+04  1.45244E+04 -2.77871E+04 -1.12035E+04 -1.15051E+04 -1.04129E+04
 -4.44997E+03 -1.55107E+04 -4.92553E+03 -2.74001E+04  7.65913E+03 -2.51397E+04  1.58346E+04 -1.33431E+04
  1.26556E+04  5.01630E+03 -1.02164E+04  1.08267E+04 -1.91719E+04 -2.23536E+03 -1.17566E+04 -3.69999E+04
  3.00098E+04 -4.43481E+04  5.50869E+04 -1.85172E+04  4.99327E+04  2.38754E+04  1.85925E+04  4.75015E+04
 -1.65046E+04  3.48591E+04 -2.53421E+04 -5.49955E+03 -1.38227E+04 -3.52664E+04  2.65223E+04 -4.12305E+04
  4.35632E+04 -1.76850E+04  3.92350E+04  2.61808E+04  2.44901E+04  5.51503E+04 -1.31543E+04  6.00350E+04
 -4.33389E+04  4.19716E+04 -4.97699E+04  1.29996E+04 -5.36958E+04 -2.25870E+04 -2.59109E+04 -4.71096E+04
  2.89809E+03 -4.70260E+04  3.88015E+04 -1.79311E+04  2.84238E+04  1.63245E+04  2.95251E+03  2.00884E+04
 -5.26173E+03  1.24072E+04 -1.14957E+04 -7.30335E+03  3.21184E+03 -1.74173E+04  2.48689E+04  2.57159E+03
  1.40866E+04  2.10629E+04 -9.67787E+03  3.56905E+04 -2.15624E+04  1.67266E+04 -3.48344E+04 -1.71980E+03
 -2.39010E+04 -2.09770E+04 -1.53137E+04 -2.72334E+04  5.55998E+03 -2.98550E+04  2.32579E+04 -2.42095E+04
  3.28026E+04 -7.75005E+03  4.42513E+04 -2.29653E+03  3.07831E+04  3.10830E+04  6.88557E+03  4.23192E+04
 -1.60830E+04  3.61738E+04 -3.37459E+04  1.48873E+04 -2.83458E+04 -2.68441E+03 -8.58364E+03 -1.49610E+04
 -4.94609E+02  3.80181E+03 -8.38936E+03  7.07656E+03 -2.43513E+04 -1.48428E+03 -2.26819E+04 -3.00822E+03
 -1.82704E+04 -1.11663E+04 -3.35351E+03 -3.72437E+04  2.11076E+04 -2.45015E+04  2.29940E+04  8.26439E+02
  2.51697E+04  1.54549E+04  7.22410E+02  2.30673E+04 -1.95371E+04  1.29164E+04 -2.73622E+04 -5.64853E+03
 -2.39730E+04 -2.79446E+04  5.92356E+03 -3.20005E+04  1.71027E+04 -3.03387E+04  2.82675E+04 -1.39886E+04
  2.43669E+04 -8.80607E+02  1.69237E+04  8.59523E+03  1.46189E+04 -5.64903E+03  1.55008E+04 -3.25197E+03
  1.65426E+04  9.98141E+03  3.19393E+04  2.47893E+04  2.28396E+04  4.43487E+04 -7.13293E+03  5.23306E+04
 -2.63514E+04  4.50836E+04 -4.58965E+04  2.31275E+04 -4.43546E+04 -4.61353E+03 -3.76534E+04 -2.95453E+04
 -1.07285E+04 -3.59103E+04  1.23899E+04 -3.82574E+04  2.99400E+04 -2.10444E+04  2.36474E+04  9.62415E+03
  1.06660E+04  2.54726E+04 -1.57278E+04  1.79984E+04 -2.20541E+04  6.46847E+03 -7.31908E+03 -1.94334E+04
 -8.02668E+03 -1.72133E+04  1.39314E+04 -1.75735E+04  1.69302E+04 -4.80226E+03  6.93338E+03  8.53826E+03
 -8.70733E+03  9.88124E+03 -4.38805E+03 -5.00637E+03 -1.40615E+03 -1.97484E+04  2.09024E+04 -1.33882E+04
  2.49763E+04 -9.78289E+03  3.44357E+04  5.61348E+03  2.46222E+04  2.76666E+04  1.45539E+04  3.78327E+04
 -1.12538E+04  3.15187E+04 -2.64377E+04  2.22970E+04 -2.56193E+04  2.50947E+03 -2.03682E+04 -1.96999E+03
 -1.30632E+04 -7.11234E+03  1.39812E+03  5.35004E+03  4.71422E+03  2.95456E+03 -4.93336E+03  1.15999E+04
 -2.21333E+04  1.07055E+03 -1.61836E+04 -1.47138E+04 -8.42703E+03 -1.92187E+04  1.25344E+04 -1.73466E+04
  1.50442E+04 -8.53546E+03  2.85464E+03  2.96642E+03 -8.55431E+03  6.08967E+03 -1.78830E+04  9.25740E+03
 -7.64053E+03 -9.29367E+03  3.03323E+02 -2.19330E+04  5.76344E+03 -2.15546E+04  1.71998E+04 -1.19993E+04
  2.92097E+04  1.37951E+03  1.25205E+04  1.41113E+04 -1.74887E+03  2.84980E+04 -6.87385E+03  1.03494E+04
 -1.55388E+04  4.59663E+03 -1.10440E+04 -4.17663E+03  9.11060E+02 -1.26291E+04  1.54648E+04  6.73286E+02
  1.02643E+04  5.29873E+03  3.66986E+03  1.32394E+04 -1.45543E+04  1.31974E+04 -1.35328E+04 -1.59289E+03
 -5.11385E+03 -6.99904E+03  4.30430E+03 -1.82400E+04  5.83752E+03 -5.79083E+03  8.08157E+03  5.15790E+02
 -7.42380E+01  7.09421E+03 -8.98758E+03  1.56164E+04 -1.77861E+04  9.80886E+03 -1.72057E+04 -4.23447E+03
 -7.06117E+03 -2.35440E+04  5.34779E+03 -1.93812E+04  1.48938E+04 -1.91113E+04  1.82909E+04  4.04130E+03
  1.47514E+04  1.97723E+04  3.36069E+03  2.05287E+04 -1.60830E+04  6.14987E+02 -8.59727E+03  5.31962E+02
 -8.48839E+03 -1.83520E+04  8.88776E+02 -1.58952E+04  2.45776E+03 -4.85788E+03  5.99104E+03 -1.23489E+04
  1.22737E+04 -3.76073E+02  1.06198E+03  5.41530E+03  3.83489E+03 -3.84895E+02  1.24775E+04 -7.33884E+03
  1.91826E+04 -7.03554E+03  2.17736E+04 -5.70999E+02  2.16036E+04  1.71204E+04  1.22481E+04  1.86838E+04
 -4.72867E+03  3.56624E+04 -2.39810E+04  2.26036E+04 -2.42139E+04  1.56642E+03 -2.68177E+04 -8.87149E+03
 -9.99157E+03 -2.54617E+04 -1.48917E+03 -1.91443E+04  5.92564E+03 -1.63974E+04 -1.75792E+03 -4.48009E+03
  6.91215E+03 -2.87725E+03  9.32324E+03 -2.86502E+03  2.38203E+03 -4.15443E+03  1.39283E+04 -4.64190E+03
  3.75926E+03  7.84684E+03  1.34719E+04  8.95556E+03 -4.99740E+03  1.67292E+04 -1.99055E+04  6.49661E+03
 -2.56021E+04  6.05196E+02 -8.36918E+03 -1.31502E+04 -9.83836E+03 -1.87215E+04  1.00338E+04 -2.25610E+04
  1.97795E+04 -1.21623E+04  2.52685E+04  2.23029E+03  1.57611E+04  1.12381E+04  2.49409E+03  2.78712E+04
 -8.38083E+03  2.25657E+04 -1.60537E+04  2.52243E+03 -1.33432E+04 -4.50952E+03 -4.74987E+03 -6.02110E+03
  3.14715E+03  2.04499E+03  2.96959E+03  1.10692E+04 -9.20527E+03  6.63641E+02 -9.02699E+03  3.15979E+02
 -1.22133E+04 -9.29683E+03 -5.02121E+02 -2.14558E+04  1.40616E+04 -1.94909E+04  2.29358E+04 -8.42262E+03
  2.66280E+04  1.26326E+04  8.53579E+03  1.84465E+04 -1.47353E+03  1.45145E+04 -5.10663E+03  5.30378E+03
 -1.46152E+04 -4.34465E+03 -1.23639E+04 -1.47895E+04 -8.41638E+03 -2.05308E+04  1.10352E+04 -6.95784E+03
  1.55624E+04  7.17968E+02  6.49857E+03  2.70473E+03  5.09718E+03  6.82248E+03  3.25229E+03  6.04293E+02
 -1.48596E+03  4.34489E+03  5.87738E+01  5.64638E+03  4.02045E+03  7.08423E+03 -1.48374E+03  1.41593E+04
  4.65283E+03  1.30928E+04 -1.38889E+04  1.81831E+04 -7.93015E+03 -8.20855E+02 -2.34921E+04 -9.44859E+03
 -1.49579E+04 -1.99440E+04 -5.75569E+02 -1.34337E+04  8.52390E+03 -1.85929E+04  1.49807E+04  1.00157E+03
  1.07243E+04  1.31402E+04 -3.31143E+03 -1.39341E+03  3.36658E+03  1.42857E+04 -4.97868E+03 -3.86901E+03
 -8.97495E+03 -7.31761E+03  4.33623E+03 -1.16905E+04  1.13221E+04  6.71153E+03  1.16911E+04  4.18383E+03
  4.44610E+03  6.09968E+03  5.63773E+02 -1.48684E+03  5.63938E+03  1.52888E+03 -1.33401E+03 -2.19698E+03
  1.28162E+03 -5.81422E+02  2.05638E+04  1.92750E+03  7.86274E+03  9.96186E+03  1.06481E+02  2.21886E+04
 -1.01807E+04  4.59827E+03 -7.07854E+03  1.41341E+03 -1.45882E+04 -4.64794E+03  1.79048E+03 -3.72417E+03
  6.83036E+03 -8.14930E+03 -1.68520E+03 -3.45026E+03 -4.91150E+03  9.76902E+02 -3.70940E+03  1.58624E+04
 -8.52906E+03  6.88881E+02 -8.27462E+03 -1.01191E+04  2.16033E+03 -8.85231E+03  3.00584E+03 -9.89313E+03
  7.83335E+03  1.07217E+03  6.25026E+03 -1.12642E+03  5.47210E+03  4.90359E+03  1.64669E+03  3.24040E+03
 -2.73861E+03 -1.00663E+03 -4.30509E+03 -4.94973E+03  1.61302E+03 -1.10083E+04  1.40423E+04 -6.98023E+03
  6.21077E+03 -2.77630E+03  1.01849E+04  9.86193E+03  8.08186E+03  1.00924E+04 -6.11037E+03  1.73459E+04
 -1.94396E+04  2.53943E+03 -1.84028E+04  3.03986E+03 -8.18610E+03  1.86719E+03  8.88046E+03 -1.35253E+04
  8.75825E+03 -5.00236E+03  6.98007E+03  8.50883E+03  3.53006E+03  1.09396E+04  5.17000E+03  7.39947E+03
 -5.99049E+03  8.50388E+01 -7.22610E+03  1.25627E+03 -4.95045E+03 -5.69473E+03  2.39608E+03  1.00381E+03
 -1.04635E+02  4.88811E+02 -4.98400E+03  6.97532E+03 -1.37137E+04 -2.94348E+03 -1.57872E+04 -9.55873E+03
 -8.33321E+02 -1.86267E+04  4.35033E+03 -1.85537E+04  1.20311E+04 -2.80984E+03  2.68177E+04 -9.28091E+03
  2.24661E+04  6.26163E+03  1.12582E+04  1.70433E+04  7.14142E+03  1.79542E+04 -2.23445E+03  4.70094E+03
 -8.33235E+03 -1.42659E+03 -3.70449E+03 -7.55723E+02 -1.28246E+03  1.56936E+03  1.68095E+03 -6.32024E+03
  1.01593E+03 -2.62438E+03 -6.19633E+03  8.24412E+03 -3.62493E+03 -4.93771E+03  1.78862E+03  8.55077E+03
  6.88985E+03 -6.71138E+03  3.76047E+03 -3.10607E+03  7.86360E+03  8.30333E+03 -7.31856E+01  1.15396E+04
 -2.46167E+03  1.69411E+04 -1.44070E+04  1.94823E+04 -2.03362E+04 -2.11793E+03 -1.75710E+04 -1.21310E+04
 -1.58543E+04 -1.10208E+04 -1.88199E+03 -1.15774E+04  1.18980E+04 -5.23358E+03  9.74074E+03  4.91414E+03
  7.34841E+03  2.26312E+03  8.22589E+02 -2.07658E+03 -5.29717E+03 -3.15126E+03 -1.50758E+02 -5.84686E+02
  1.14509E+04 -5.08235E+03  9.48825E+03  8.98946E+03 -3.52218E+02  1.04618E+04  2.12676E+03  9.47536E+03
 -1.04881E+04  9.38598E+03 -9.63015E+03  4.09074E+03 -1.23724E+04 -1.43825E+04  3.69460E+03 -1.19031E+04
  1.06693E+04 -8.71466E+03  1.37603E+04 -6.30061E+03  1.02120E+04  2.89894E+03  6.01104E+03  8.24489E+03
 -8.53875E+03  1.00192E+04 -5.02400E+03  7.38107E+03 -1.38128E+04  8.83218E+03 -1.69290E+03  7.50400E+02
 -7.53480E+03  1.29125E+03 -8.69232E+02  5.98377E+02 -1.07355E+04 -6.29555E+03 -4.15701E+03  4.08323E+03
 -1.45446E+03  6.17716E+02  1.91783E+03 -3.82841E+03  4.20440E+03 -4.28317E+03  1.96143E+04 -1.94623E+04
  1.29553E+04  6.78185E+03  1.49839E+04  1.00134E+04  5.03126E+03  1.33685E+04 -9.26477E+03  1.24620E+04
