 $NMID ID='MM_0lb_SNR50_19hz_g40_20.RAW', FMTDAT='(8E13.5)'
 TRAMP=1., VOLUME=1. $END
  3.06562E+05 -1.13350E+03  3.37317E+05  2.48891E+05  8.26558E+04  3.39080E+05 -1.30016E+05  2.52264E+05
 -1.84715E+05  7.93291E+04 -1.13145E+05 -3.35154E+04  3.26314E+03 -4.93826E+04  5.95817E+04 -8.29206E+02
  2.97055E+04  5.27452E+04 -1.56255E+04  7.29146E+04 -6.28478E+04  6.46798E+04 -8.04409E+04  3.09216E+04
 -8.25804E+04 -1.17568E+04 -5.76215E+04 -4.74260E+04 -1.76763E+04 -6.91467E+04  2.38605E+04 -4.18404E+04
  3.70677E+04  5.55410E+03  1.81872E+04  5.00507E+04 -3.27448E+04  4.41985E+04 -6.61796E+04 -4.63515E+03
 -5.33661E+04 -5.41883E+04 -5.11310E+03 -7.48081E+04  3.16389E+04 -5.31642E+04  4.47986E+04 -1.87182E+04
  4.27265E+04  1.35637E+04  2.78553E+04  1.78396E+04  1.41920E+04  2.89261E+04 -2.07765E+03  2.85145E+04
 -2.16729E+04  1.76571E+04 -1.65117E+04 -1.01945E+03  2.96949E+03 -7.76071E+03  2.21401E+04  1.20452E+04
  3.98905E+03  3.18792E+04 -2.65146E+04  2.98828E+04 -6.03507E+04 -2.52011E+03 -5.57475E+04 -3.96444E+04
 -1.42729E+04 -6.49937E+04  3.80780E+04 -4.39972E+04  5.31396E+04 -1.00598E+03  3.24427E+04  2.96331E+04
 -1.43806E+03  3.29408E+04 -2.86316E+04  8.47567E+03 -2.67199E+04 -3.76799E+03 -9.97001E+03 -1.07056E+04
 -1.09510E+04 -4.60457E+03 -1.80870E+03 -1.54597E+04  7.22370E+03 -1.76819E+04  1.37890E+04 -1.07517E+04
  1.02003E+04  7.57426E+03 -6.50645E+03  1.41816E+04 -1.80785E+04 -4.78781E+03 -8.02034E+03 -2.80436E+04
  1.97115E+04 -3.74547E+04  4.18272E+04 -1.96731E+04  3.72496E+04  1.72196E+04  1.12629E+04  3.91908E+04
 -1.40155E+04  3.09895E+04 -2.20893E+04 -1.68041E+03 -8.71666E+03 -2.62634E+04  2.19308E+04 -3.28630E+04
  3.87995E+04 -5.44816E+03  3.03745E+04  2.36055E+04  1.20057E+04  4.13216E+04 -1.10040E+04  4.71805E+04
 -2.79887E+04  2.78868E+04 -3.79941E+04  4.84259E+03 -3.45528E+04 -1.59723E+04 -2.26409E+04 -3.17270E+04
  5.99492E+03 -3.30773E+04  2.72533E+04 -1.16019E+04  2.83608E+04  1.43328E+04  7.47891E+02  1.44784E+04
 -1.21975E+04  5.78673E+03 -9.42834E+03 -6.54862E+03  6.79256E+03 -1.02671E+04  1.69246E+04  3.43820E+03
  7.95558E+03  1.88897E+04 -5.61035E+03  2.47603E+04 -2.21428E+04  6.89631E+03 -2.53728E+04 -9.86376E+02
 -1.35405E+04 -1.53215E+04 -1.54252E+03 -1.99231E+04  5.35367E+03 -1.93651E+04  7.95567E+03 -1.23555E+04
  1.97917E+04 -1.17601E+04  3.06376E+04  1.12881E+03  2.34063E+04  1.37823E+04  5.76910E+03  3.11681E+04
 -1.60488E+04  2.39752E+04 -2.44423E+04  9.83586E+03 -1.62452E+04 -1.31049E+04 -3.29683E+03 -1.30630E+04
  3.58458E+03 -4.06839E+03 -6.72277E+03  7.73771E+03 -9.77496E+03  7.13925E+03 -1.26063E+04 -1.00660E+04
 -8.13910E+03 -1.71248E+04  4.41862E+03 -1.86762E+04  1.28832E+04 -1.13005E+04  1.68587E+04 -1.35715E+03
  7.37574E+03  1.02395E+04  1.40799E+03  1.64560E+04 -1.20410E+04  3.58376E+03 -1.67691E+04 -4.55683E+02
 -9.04046E+03 -1.24783E+04  2.23988E+03 -1.37212E+04  8.58147E+03 -1.25821E+04  1.94245E+04 -6.00657E+03
  1.69936E+04  7.49974E+02  1.36146E+04  5.71424E+03  8.54404E+03  1.71002E+03  4.98374E+03  1.80276E+02
  1.44185E+04 -3.34407E+03  1.33114E+04  9.67796E+03  7.99719E+03  2.24818E+04 -5.01716E+03  2.00457E+04
 -1.61404E+04  1.95900E+04 -2.29171E+04  4.98139E+03 -2.28850E+04  4.26103E+01 -1.79057E+04 -1.28555E+04
 -1.03346E+04 -1.61582E+04  5.03970E+03 -2.13438E+04  1.54370E+04 -8.87532E+03  1.67410E+04  4.71593E+03
  6.18777E+03  1.66577E+04 -5.28975E+03  9.80773E+03 -1.06367E+04  5.53328E+03 -9.37118E+03 -1.17585E+04
  1.05149E+03 -9.72565E+03  7.74268E+02 -8.75126E+03  5.34122E+03 -2.82115E+03  2.32511E+03  2.85792E+03
 -5.00628E+03  2.16386E+03 -2.48196E+03 -1.51815E+03  1.81812E+03 -8.55866E+03  4.76085E+03 -7.41690E+03
  1.42746E+04 -5.06101E+03  8.23256E+03 -6.31308E+02  7.12044E+03  5.48447E+03  6.24941E+03  1.30395E+04
 -6.85751E+02  1.16856E+04 -1.14458E+04  8.93632E+03 -1.03001E+04 -2.12842E+02 -6.76996E+03  2.25104E+03
 -5.75438E+03 -1.21273E+03  4.99976E+02  5.41841E+03 -5.85102E+02  4.44440E+03 -2.49317E+02  1.23830E+03
 -7.91359E+03 -1.01150E+03 -4.80030E+03 -4.90783E+03 -4.54264E+03 -1.05584E+04  6.96713E+03 -7.97859E+03
  8.22073E+03 -2.31739E+03  7.92478E+03  1.81234E+03  3.78182E+03  2.73315E+03 -6.30584E+03  8.25511E+02
 -3.77852E+03 -8.11789E+03  2.12478E+03 -8.12124E+03  8.48760E+02 -4.57159E+03  8.31960E+03  1.13128E+03
  1.19645E+04  1.04287E+03  9.36649E+03  2.89879E+03  3.92155E+03  9.98554E+03 -2.44989E+03  7.09187E+03
 -9.49666E+03  1.49434E+03 -4.89808E+03 -4.06470E+03  2.05731E+03 -2.60433E+03  9.54592E+03  2.71312E+03
  4.31235E+03  1.11530E+03  3.51830E+03  7.61327E+03 -9.79396E+02  2.96484E+03 -9.74442E+03  1.37413E+03
 -2.60996E+03 -1.30423E+03 -2.87649E+02 -2.09248E+03  4.82008E+03 -8.33037E+03  4.48194E+03 -6.24696E+02
 -1.10489E+03  3.28591E+03 -4.14526E+03  2.43765E+03 -6.06787E+03  2.66106E+03 -5.71687E+02 -1.20676E+03
 -2.43538E+02 -5.14049E+03  3.24842E+03 -5.11141E+03  1.69827E+03 -2.91781E+03  3.54553E+03  3.15036E+03
  3.99788E+03  2.86221E+03 -4.68907E+02  1.01284E+04  1.30309E+03  5.05697E+03 -4.05896E+03  3.29383E+02
 -6.44434E+03 -5.62882E+03 -5.31105E+03 -1.64544E+03  2.76732E+03 -3.76089E+03  4.59634E+03 -2.87671E+03
 -6.13195E+02  3.49980E+02  1.39695E+03  3.08661E+02  1.28178E+03  2.24780E+03 -2.89705E+02 -5.25044E+03
  2.88779E+03  3.24084E+02  6.46545E+03  4.55115E+03  3.71417E+03  2.67604E+03  4.88996E+03  1.16484E+04
  1.85842E+02  4.91913E+03 -5.84933E+03  1.00624E+04 -1.22102E+04  4.26411E+03 -6.34549E+03 -4.62198E+03
 -1.09300E+03 -4.13334E+03  1.51427E+03 -3.36855E+03  4.52895E+03 -5.46668E+02  3.94864E+03 -3.41176E+03
  2.18112E+03 -1.14766E+03  3.15121E+03 -7.15262E+02 -6.50636E+02 -1.10776E+03  2.24968E+03 -1.14674E+03
  2.91494E+03  2.84198E+03 -1.32314E+03  3.52702E+03 -3.03954E+03  1.51977E+03 -6.89431E+03  4.62054E+03
 -7.56561E+03 -1.22295E+03 -4.74154E+03 -3.84552E+03 -1.90279E+03 -5.72058E+03 -6.73758E+02 -4.12903E+03
  3.63970E+03 -5.71781E+03  7.18929E+03  5.97465E+03  3.44969E+03  2.20116E+03  4.79798E+02  4.76748E+03
  7.23557E+02  2.04998E+03 -2.38216E+03  3.95555E+03  9.95044E+02 -9.62205E+02  2.21022E+03  5.17311E+03
 -4.76822E+03  7.76004E+02 -4.49511E+03  2.42036E+03 -3.53235E+03 -2.30405E+03 -6.06630E+03  3.48432E+03
 -5.31335E+02 -3.49274E+03 -2.01890E+03 -1.98927E+03  1.10452E+03 -6.60332E+03  2.31622E+03 -1.44090E+01
  4.62345E+03  1.75810E+03  1.17626E+03  2.15491E+03  2.94693E+03  7.46105E+03 -4.79845E+03  3.29824E+03
 -1.00483E+03  1.35967E+03 -3.19555E+03 -8.42626E+02  4.55665E+00  3.68238E+03  1.88862E+03 -1.24434E+03
  1.89091E+03 -2.84519E+03 -1.52295E+03  8.98614E+02  4.09186E+03 -4.47095E+03 -2.91643E+02 -2.35581E+03
 -4.91836E+02 -2.20337E+03  3.27246E+03  4.30725E+03  5.67124E+03  5.72312E+03  3.98835E+02 -7.69120E+02
  9.66490E+02  2.41488E+03 -2.79508E+03  1.28172E+03  1.03719E+03 -1.32752E+02 -5.76341E+03 -4.57938E+03
 -3.20328E+03 -4.57675E+03 -5.92140E+02 -5.18614E+03 -8.83075E+01  1.14906E+03  2.06402E+03 -4.52371E+03
  2.29679E+03  3.59136E+03 -8.40993E+02  4.34461E+03 -3.17261E+03  8.02489E+02  2.05743E+03 -4.57139E+03
 -5.08598E+02 -1.04289E+02  5.20528E+02  1.86508E+03 -2.57500E+03  1.57349E+02  9.38804E+02  5.83097E+02
 -4.84633E+03 -1.67445E+02  2.25414E+03  4.51689E+02 -3.14513E+03  2.35534E+03  1.45880E+03  3.12259E+03
 -1.95839E+02 -1.77905E+03 -1.71412E+03  4.14338E+02  1.29541E+03  3.08804E+03 -2.19487E+03  3.56666E+03
 -4.37147E+01 -1.25969E+03  5.94781E+01 -3.71531E+03  3.75801E+02 -3.72640E+03  1.02817E+03  2.97845E+02
  2.15922E+03 -2.45774E+03 -1.96809E+02  3.99148E+02  4.17822E+03  7.00989E+03  8.58353E+02 -3.14667E+02
 -5.02687E+03  2.84347E+03 -4.44089E+02 -1.35715E+03 -1.56541E+03  7.34691E+02 -2.40446E+03 -1.17525E+03
 -3.79343E+03 -1.66864E+03 -2.15891E+03  5.60339E+02  4.06984E+03 -2.98191E+02 -1.62775E+03 -2.28783E+03
 -9.21269E+02 -2.25663E+02  8.12716E+02 -3.00406E+03 -1.21505E+03 -9.69936E+02  5.01525E+03 -1.71505E+03
 -9.77813E+02 -2.15718E+03  5.01243E+03  2.21039E+03  7.05025E+03  1.33416E+03  1.64614E+02  1.62588E+03
  1.23466E+03  1.45862E+03  2.15336E+01 -4.89700E+03 -4.43886E+03 -1.39985E+03  3.14360E+03 -5.75482E+02
  1.40078E+03 -3.94357E+03 -1.84398E+02 -2.44319E+03 -1.39174E+03  3.32098E+02  2.07292E+03  6.34719E+03
  3.51871E+02  1.30749E+03 -3.86378E+01  6.31173E+02 -3.92837E+03 -2.79150E+02 -5.29369E+03  3.06820E+03
 -3.05655E+03  2.83179E+03 -1.04984E+03 -2.55021E+03 -3.61710E+03  4.77421E+02 -1.68062E+03  7.38934E+02
 -3.10190E+03 -3.46691E+03  1.40870E+03 -1.73965E+03  3.95926E+03 -2.94932E+03  5.37038E+03 -2.74715E+02
  1.80905E+03 -1.95028E+03  5.80055E+03  1.26300E+03  3.28508E+03  1.61444E+03 -5.83985E+02  2.60502E+03
 -2.29042E+03  1.60707E+03  9.04604E+02  8.84154E+02 -2.48118E+03  1.10489E+03  1.22977E+03 -1.37472E+03
 -6.94953E+03 -3.15266E+03  1.38806E+03  2.31792E+03  1.99696E+03 -7.80650E+02 -2.78642E+03  3.75075E+02
 -1.43721E+03 -2.20408E+02 -3.09747E+02  2.05382E+02 -3.09819E+01 -8.26739E+01  6.44659E+02 -1.20461E+03
  1.23238E+03  2.51148E+03 -5.14271E+03  9.14136E+02  2.54446E+03 -5.09505E+03 -1.53698E+03 -1.52096E+03
 -1.47434E+03 -1.99165E+02  4.40998E+03  4.79063E+02  2.32771E+03 -5.11653E+03  3.08556E+03 -1.93940E+02
 -2.71213E+03  1.37938E+03 -2.15770E+03  2.31192E+03 -1.46620E+03  8.58200E+02 -2.05462E+03 -2.17139E+03
  1.43798E+03 -2.59902E+03 -2.27662E+02  6.70710E+03  2.62533E+02 -1.84892E+03  3.46888E+03 -3.53600E+02
  2.34764E+03  2.24737E+03 -1.36155E+02  3.16176E+03 -1.10231E+03 -3.97714E+03  2.74550E+03 -1.83538E+03
  9.65660E+02 -1.84784E+03 -2.02049E+03  9.52643E+02  2.29287E+03 -1.46093E+03 -1.24936E+03 -2.03467E+03
 -1.24277E+03  1.41506E+03  4.48312E+01 -3.20314E+03 -2.05287E+03 -5.65580E+02 -9.94653E+02  1.51623E+02
  1.60676E+03 -1.90060E+03 -1.74592E+02  2.69987E+03  1.28174E+03 -3.04737E+03  1.34230E+03  1.09121E+03
 -3.60172E+03  1.44162E+03 -2.64895E+02  4.59299E+02 -3.14135E+03 -7.40142E+02 -1.18675E+03  1.09809E+03
 -9.23012E+02 -1.09112E+03  3.43563E+03  2.68926E+03 -2.83415E+03 -2.20780E+03 -5.81821E+02 -7.28093E+02
