 $NMID ID='MM_0lb_SNR50_14hz_g40_88.RAW', FMTDAT='(8E13.5)'
 TRAMP=1., VOLUME=1. $END
  3.11603E+05 -4.65162E+03  3.35793E+05  2.52949E+05  8.36900E+04  3.33524E+05 -1.30613E+05  2.50479E+05
 -1.88686E+05  8.61110E+04 -1.11069E+05 -3.07872E+04 -3.22381E+03 -5.15446E+04  5.18588E+04  4.97500E+03
  3.54594E+04  5.28097E+04 -1.23964E+04  7.54075E+04 -5.56449E+04  6.57251E+04 -8.20237E+04  3.82638E+04
 -7.60135E+04 -9.66053E+03 -5.74652E+04 -4.15476E+04 -1.80993E+04 -7.12625E+04  3.02897E+04 -5.19022E+04
  3.82796E+04  4.16736E+03  1.71997E+04  4.50401E+04 -3.35300E+04  4.91863E+04 -6.56643E+04  1.11916E+03
 -5.51263E+04 -5.93180E+04 -6.39994E+03 -6.90890E+04  2.88391E+04 -4.93493E+04  4.89627E+04 -1.58721E+04
  3.90445E+04  5.68641E+03  3.26269E+04  2.51926E+04  1.80675E+04  3.32261E+04 -4.49207E+02  2.73921E+04
 -2.09005E+04  1.43260E+04 -2.27382E+04 -6.93383E+03  8.60377E+03 -5.23957E+03  2.32515E+04  1.56418E+04
  8.14540E+03  3.18439E+04 -3.31884E+04  3.02662E+04 -6.06901E+04  6.65640E+03 -5.71293E+04 -3.92173E+04
 -1.26567E+04 -6.42459E+04  4.02173E+04 -4.92047E+04  5.76242E+04 -1.23885E+03  3.56253E+04  3.46441E+04
 -8.93288E+03  3.31557E+04 -3.03854E+04  1.45453E+04 -3.41731E+04 -1.15895E+04 -1.51497E+04 -1.42773E+04
 -4.31222E+03 -7.93946E+03 -3.82804E+03 -1.97903E+04  8.10462E+03 -1.98028E+04  1.04017E+04 -1.61520E+04
  9.65128E+03  7.14259E+03 -7.54332E+03  1.17101E+04 -2.35750E+04 -2.95787E+03 -6.64798E+03 -3.57540E+04
  2.15554E+04 -4.19443E+04  4.50049E+04 -2.04395E+04  4.80138E+04  2.08242E+04  1.27151E+04  4.47624E+04
 -1.81056E+04  2.87155E+04 -2.25010E+04  2.81614E+01 -8.79051E+03 -2.80171E+04  1.82214E+04 -3.34029E+04
  4.69947E+04 -1.19418E+04  3.45344E+04  2.04399E+04  2.11451E+04  4.21313E+04 -5.88070E+03  5.09285E+04
 -3.21859E+04  3.51337E+04 -4.11527E+04  1.36564E+04 -4.09416E+04 -1.65918E+04 -2.53801E+04 -3.70130E+04
  1.03520E+04 -3.63740E+04  3.42953E+04 -1.33769E+04  2.81543E+04  1.24303E+04  6.16875E+03  2.18185E+04
 -1.17270E+04  9.13578E+03 -9.69138E+03 -6.15610E+03  9.01318E+03 -1.27303E+04  1.54135E+04  7.89036E+03
  9.29134E+03  2.35511E+04 -5.48413E+03  2.66555E+04 -2.11566E+04  1.06987E+04 -2.37854E+04 -7.98971E+03
 -1.75897E+04 -1.63298E+04 -8.56974E+03 -2.47655E+04  3.06775E+03 -1.72678E+04  1.45706E+04 -1.36339E+04
  2.82709E+04 -1.28996E+04  2.82069E+04 -1.10551E+03  2.38002E+04  1.73512E+04 -1.44929E+03  4.08946E+04
 -1.88824E+04  2.69076E+04 -3.14711E+04  1.18529E+04 -2.17074E+04 -6.98458E+03 -2.49819E+03 -1.10442E+04
  1.87117E+03 -2.45858E+03 -8.15948E+03 -1.28650E+03 -1.63726E+04  4.13945E+03 -1.58106E+04 -5.99067E+03
 -7.90885E+03 -1.61611E+04  4.87057E+03 -2.31182E+04  1.76502E+04 -1.86969E+04  2.14513E+04 -1.93760E+03
  3.51316E+03  1.43353E+04 -3.30102E+03  1.70158E+04 -1.55318E+04  9.36636E+03 -2.16865E+04 -2.69412E+03
 -1.26388E+04 -1.87178E+04 -5.54672E+02 -1.89536E+04  9.57121E+03 -2.08147E+04  2.11908E+04 -5.73371E+03
  1.54459E+04 -6.55898E+02  1.56045E+04  9.35824E+03  8.35137E+03  7.03101E+02  8.97061E+03  1.08310E+03
  1.54528E+04  1.00164E+03  1.78349E+04  1.44144E+04  1.28706E+04  3.20760E+04 -5.60425E+03  3.26580E+04
 -1.52406E+04  2.47806E+04 -2.64312E+04  1.67704E+04 -3.27385E+04  1.27837E+02 -2.72701E+04 -1.81650E+04
 -1.16255E+04 -2.54167E+04  9.78884E+03 -2.59024E+04  1.97727E+04 -1.42711E+04  1.55347E+04  7.32848E+03
  1.03438E+04  1.49891E+04 -9.36403E+03  9.13873E+03 -1.72785E+04  1.53597E+03 -1.77520E+04 -8.93839E+03
  3.07830E+03 -1.11422E+04  5.40987E+03 -8.51039E+03  8.47630E+03 -1.54680E+03  1.54099E+03  5.51400E+03
 -5.56257E+03  2.63106E+03 -8.89640E+03 -2.82903E+03  2.44353E+03 -1.61716E+04  3.63080E+03 -1.20316E+04
  1.63552E+04 -7.48641E+03  1.66337E+04  5.86834E+03  7.86966E+03  1.21983E+04  4.55462E+03  1.61179E+04
 -5.53266E+03  1.87230E+04 -1.07087E+04  1.38772E+04 -1.97728E+04  4.86758E+03 -1.44976E+04 -4.07312E+03
 -5.78152E+03 -3.49723E+03  1.66205E+03  5.33223E+02  5.86373E+02  5.61074E+03 -9.21105E+03  6.28866E+03
 -1.25701E+04  4.39014E+02 -1.17004E+04 -8.55407E+03 -5.72575E+03 -1.27864E+04 -4.65372E+02 -1.61148E+04
  1.19048E+04 -4.05976E+03  6.01382E+03 -5.91716E+02  3.52988E+03  5.12980E+03 -1.77297E+03  4.54813E+02
 -3.58945E+03 -7.71061E+03  2.22970E+03 -1.13347E+04  9.53081E+03 -1.38792E+04  1.37454E+04 -3.90115E+03
  1.92037E+04  4.88719E+03  5.78890E+03  1.06803E+04 -1.31879E+03  1.05005E+04 -6.07282E+03  8.85678E+03
 -8.96765E+03 -2.24148E+03 -5.43393E+03 -6.55539E+03  4.08425E+03 -1.85996E+03  4.55731E+03 -1.52159E+02
  1.55983E+03  6.32006E+03  2.63034E+01  6.42069E+03 -4.39642E+03  6.01661E+03 -1.09326E+04  5.70949E+03
 -6.03597E+03 -4.92986E+02 -2.00561E+03 -6.43223E+03  5.94227E+03 -3.88521E+03  4.96364E+03 -2.68541E+03
 -2.01342E+03  5.38973E+03  1.03072E+03  8.62516E+03 -1.38831E+04  3.57178E+02 -2.13684E+03 -2.51349E+03
 -4.95074E+03 -6.15788E+03  1.65067E+03 -1.57556E+04  8.55267E+03 -9.42811E+03  9.21224E+03 -1.50318E+03
  1.04309E+04  9.99014E+03  1.78802E+03  1.50366E+04 -3.71163E+03  6.12161E+03 -5.50754E+03 -3.33025E+03
 -5.95637E+03 -8.59651E+03 -3.53535E+02 -4.64700E+03  6.57578E+03 -9.59748E+03  1.32206E+03 -3.50339E+03
  4.74964E+03  1.07927E+03 -3.48768E+03  1.83767E+03  9.33411E+02 -1.19064E+03 -1.01069E+03 -1.80012E+03
  7.32320E+03  2.21278E+02  1.36387E+04 -1.15827E+03  4.70000E+03  1.04873E+04  7.67506E+03  1.70247E+04
  4.42411E+02  1.49720E+04 -1.26750E+04  1.54226E+04 -1.60894E+04  1.12005E+03 -8.04806E+03 -8.03524E+03
 -7.44318E+03 -7.36250E+03 -4.79635E+03 -3.84371E+03  4.94988E+03 -2.67790E+03  4.75813E+03 -3.87222E+03
  5.05843E+03 -6.16324E+03 -3.69735E+02 -7.13569E+03  7.85579E+03  6.96310E+02  9.52826E+02 -3.38901E+03
  6.78549E+03  6.64369E+03  7.01946E+03  7.30224E+03  1.92529E+02  1.64168E+03 -6.65184E+03  4.03405E+03
 -5.41427E+03 -3.45722E+03 -6.77343E+03 -7.31241E+03  5.76838E+02 -1.03208E+04  5.51368E+03 -6.56943E+03
  1.36921E+04 -4.90365E+03  9.11723E+03  2.86214E+03  1.33207E+04  7.88855E+03  2.73518E+03  7.91542E+03
 -2.94853E+03  6.92658E+03  3.25284E+03  5.31639E+03 -4.20242E+03 -2.00826E+03 -4.18286E+03 -1.55889E+03
 -3.01223E+03  5.15423E+03 -2.03607E+03 -9.51805E+02 -5.63200E+03  3.40662E+03 -5.80443E+03  2.97119E+03
 -4.38446E+03 -1.68426E+03  2.81555E+03 -7.03642E+03  5.74728E+03 -1.05910E+04  2.50035E+03 -2.40349E+03
  6.57039E+03  4.94850E+03  7.17985E+03  3.41203E+03  2.49276E+03  5.52007E+03 -6.72771E+03  4.99871E+03
 -8.27091E+03  8.12711E+02 -6.57739E+03 -6.39170E+03  6.74965E+02 -4.36188E+03  3.24991E+03 -2.34111E+03
  5.85054E+03 -1.48396E+03  8.68303E+02  2.68378E+03  1.45154E+03  2.56555E+03  4.42155E+03  1.24866E+03
  1.67656E+03  2.45993E+03 -5.43626E+02  9.59734E+03  2.45924E+03  8.13736E+01  1.80289E+03  4.05904E+03
 -5.47668E+03  6.85573E+03 -3.73463E+03  4.56053E+03 -4.54929E+03  4.36783E+03 -7.84794E+03 -4.41621E+03
 -8.80470E+03 -6.94143E+03  1.32802E+03 -8.35119E+03  7.33634E+03  1.04162E+02  8.63897E+03 -1.07757E+03
  3.45698E+03  4.42223E+03  3.59737E+03  2.33349E+03 -4.35079E+03  5.55215E+03 -2.13807E+03 -2.47691E+03
 -1.64461E+03  6.86087E+02  2.33376E+03 -5.93549E+03  7.40030E+03 -2.35343E+02 -8.45768E+02 -4.44278E+02
  8.96872E+02  3.34793E+03  3.18058E+03  5.02691E+03 -6.11189E+03  1.02699E+03  5.34606E+03 -2.20077E+02
  1.07833E+03  1.19289E+03  6.19747E+03  3.50899E+02  1.48942E+03  3.30792E+03 -1.03429E+03  7.47660E+03
 -4.07372E+03  5.71668E+03 -5.31099E+03  2.60642E+03 -2.16076E+03  8.17420E+02  1.94535E+01 -6.04146E+03
  1.47077E+02 -8.57788E+03  4.02265E+03 -1.81841E+03  2.60838E+03  1.94133E+03  1.02594E+03  2.02796E+03
 -3.19057E+03  2.03105E+03 -5.59716E+03  1.15301E+03  3.70532E+03 -5.60782E+02  1.36471E+03 -4.28953E+03
  3.54442E+03 -3.31729E+03  5.06633E+03  3.81185E+03  1.27352E+03 -1.24027E+03 -4.96704E+02 -3.98450E+03
 -2.23470E+03  3.75971E+03  3.01213E+03  1.35828E+02  1.11529E+03 -5.35436E+03 -7.46819E+02  1.01061E+03
  3.15341E+03  2.91904E+03  7.70353E+03  2.14476E+03 -3.87657E+02  1.14416E+02 -1.27096E+03  6.98535E+03
 -3.59723E+03 -1.89879E+03 -4.74059E+03 -4.29252E+02 -3.54585E+03  6.80232E+01 -2.03597E+03  1.46818E+03
  3.83965E+03  3.57629E+03  4.66440E+03 -7.63811E+03  2.29400E+03  7.61537E+03  3.51813E+03 -7.87773E+02
 -1.78831E+03  3.81690E+03  2.49040E+03 -3.72175E+02  4.35646E+03 -8.03525E+03 -1.33384E+03 -2.60823E+03
 -5.26764E+03  2.50372E+03 -7.59082E+03 -7.36132E+02  8.27435E+02 -2.02985E+02 -5.44287E+03 -1.77965E+03
 -5.74497E+01 -3.74440E+03 -1.26365E+03 -5.23814E+03  6.04464E+02 -9.63465E+02  3.04113E+03  2.82452E+02
  4.46734E+03  1.84925E+03  2.14072E+03  4.81813E+03  4.72955E+03  2.60374E+03  5.52370E+02 -9.71825E+02
 -1.65215E+03  3.57346E+03 -4.21809E+03  2.72926E+03  1.63790E+03  1.91070E+02  1.04109E+02  1.38444E+03
 -4.60983E+03  3.77702E+03 -3.25227E+03 -9.42204E+02 -1.82488E+03  2.85787E+03  1.41658E+03 -2.50786E+03
  4.63109E+03 -2.43035E+02  2.51212E+03  2.07398E+03 -3.48655E+03 -2.00628E+03  4.00705E+03  3.14076E+03
 -2.32186E+03  8.99331E+03 -5.86363E+03 -2.90558E+03 -4.08744E+03  2.16248E+02 -7.48422E+02 -4.12263E+03
 -1.47047E+03 -9.26963E+02  5.25311E+02 -2.59172E+02  5.79129E+03  6.03046E+03  2.19429E+03  2.69671E+03
 -1.07854E+03  3.54275E+03 -1.40166E+03  6.37138E+03  4.92944E+03  2.07642E+03  6.43508E+03 -4.36903E+03
  3.53668E+03 -2.75516E+03  4.02449E+03 -2.78035E+03 -1.79072E+02 -2.61225E+03  3.33767E+03  1.12518E+03
 -4.65056E+03  2.23562E+03 -3.77162E+03 -3.56212E+03 -4.48961E+03 -1.96926E+03  1.35641E+03 -9.37827E+02
  1.01395E+04 -4.30960E+03  4.75312E+03 -4.48880E+02 -9.17218E+02  5.72858E+02  4.59674E+03  4.00537E+01
 -2.79469E+03  6.16387E+03 -2.73583E+03 -5.71965E+02 -1.68169E+03  6.51709E+02  1.69139E+03 -6.15202E+03
 -3.25170E+03 -2.87850E+02  1.16535E+03  1.82118E+03  2.33680E+02 -1.83634E+03  1.94133E+02  4.27661E+01
  4.31709E+03 -9.48251E+02  8.96060E+02  9.23985E+02  4.06265E+03 -4.46902E+03  1.85151E+03 -3.45865E+03
 -2.33624E+03  2.90550E+03  4.61373E+03  2.14866E+03  6.13708E+02  2.10517E+03 -6.26077E+03 -2.78849E+03
