 $NMID ID='MM_0lb_SNR50_9hz_g40_21.RAW', FMTDAT='(8E13.5)'
 TRAMP=1., VOLUME=1. $END
  3.11679E+05  1.34063E+03  3.41292E+05  2.51602E+05  8.97030E+04  3.37911E+05 -1.36006E+05  2.48147E+05
 -1.88435E+05  8.48961E+04 -1.17467E+05 -2.82479E+04  5.22977E+03 -5.04109E+04  5.11522E+04  5.67922E+03
  3.03134E+04  5.29472E+04 -1.60157E+04  7.92188E+04 -5.74203E+04  6.57374E+04 -8.70279E+04  3.44741E+04
 -7.98682E+04 -8.88535E+03 -6.18034E+04 -5.54763E+04 -1.81168E+04 -6.96813E+04  2.70310E+04 -5.08138E+04
  3.19730E+04  1.98770E+03  1.27090E+04  4.59436E+04 -3.14706E+04  4.82589E+04 -7.16486E+04  5.94921E+03
 -5.36195E+04 -5.60415E+04 -1.20149E+04 -8.40712E+04  3.42653E+04 -5.87338E+04  5.11901E+04 -1.18288E+04
  4.65696E+04  1.12948E+04  3.12377E+04  2.39409E+04  1.92758E+04  3.32915E+04 -2.76928E+03  3.37172E+04
 -2.29130E+04  9.32734E+03 -2.22167E+04 -2.99228E+03  1.07367E+04 -9.47231E+03  2.21094E+04  9.26983E+03
  5.61087E+03  3.66487E+04 -3.69224E+04  3.70750E+04 -6.47123E+04  3.71569E+03 -5.81050E+04 -4.13659E+04
 -1.90670E+04 -6.89561E+04  4.56588E+04 -4.54872E+04  6.13414E+04  5.08632E+02  4.03094E+04  3.44413E+04
 -5.22851E+03  3.76666E+04 -3.65242E+04  1.70281E+04 -3.57398E+04  1.82442E+03 -1.83023E+04 -1.55451E+04
 -1.09885E+04 -1.64736E+04  2.31581E+03 -1.23399E+04  6.97387E+03 -1.96950E+04  1.69612E+04 -1.32148E+04
  1.61156E+04  6.51063E+03 -1.34864E+04  2.10634E+04 -2.20306E+04 -7.67737E+03 -1.18806E+04 -3.27241E+04
  2.64856E+04 -4.62526E+04  4.96326E+04 -2.01586E+04  5.06032E+04  2.04601E+04  1.98545E+04  5.01752E+04
 -1.78914E+04  3.64852E+04 -3.21022E+04  5.55727E+02 -1.35931E+04 -2.94981E+04  1.87695E+04 -3.46184E+04
  5.06800E+04 -1.27480E+04  3.03170E+04  2.62374E+04  2.28061E+04  5.36993E+04 -7.61070E+03  5.43344E+04
 -3.97758E+04  4.46470E+04 -4.17440E+04  1.46776E+04 -4.57238E+04 -2.02153E+04 -2.30706E+04 -4.54425E+04
  6.23648E+03 -4.76724E+04  3.25562E+04 -1.66225E+04  2.85044E+04  1.08794E+04  5.56628E+03  2.66347E+04
 -1.54833E+04  1.50212E+04 -1.65670E+04 -1.89367E+03  3.84437E+03 -7.64123E+03  1.99778E+04  1.36447E+04
  1.58662E+04  1.53029E+04 -4.53317E+03  2.94150E+04 -2.32109E+04  1.51425E+04 -3.09326E+04 -5.90940E+02
 -2.64530E+04 -1.71635E+04 -8.32147E+03 -2.25869E+04  3.48671E+03 -2.75915E+04  2.32930E+04 -2.47845E+04
  3.08213E+04 -1.07253E+04  3.80845E+04  2.33902E+03  2.72735E+04  2.70123E+04  1.36990E+03  3.85295E+04
 -2.03563E+04  2.84336E+04 -3.21226E+04  7.33899E+03 -1.93435E+04 -1.08711E+04 -4.02656E+03 -1.16402E+04
  2.37511E+03  3.42674E+02 -5.11425E+03  1.24702E+03 -2.12224E+04  9.78258E+03 -2.09460E+04 -5.51079E+03
 -1.94701E+04 -1.96829E+04  6.90926E+03 -2.90041E+04  1.62968E+04 -1.91025E+04  2.72763E+04  1.10368E+03
  1.37825E+04  1.92390E+04  1.33841E+03  2.08783E+04 -1.67792E+04  9.10324E+03 -2.89697E+04 -1.01135E+04
 -1.08380E+04 -2.41549E+04 -3.69209E+02 -2.43875E+04  1.30600E+04 -2.52869E+04  1.81240E+04 -1.52232E+04
  1.82476E+04 -3.78388E+03  2.11421E+04  7.01110E+03  1.19130E+04  1.55234E+03  1.08512E+04 -1.84440E+01
  2.02714E+04  3.74950E+03  2.55315E+04  1.46003E+04  8.10426E+03  3.70144E+04  1.49057E+03  3.89695E+04
 -2.47944E+04  3.69194E+04 -3.91128E+04  1.54483E+04 -4.99596E+04 -7.65274E+03 -3.44570E+04 -2.38882E+04
 -1.06527E+04 -3.88454E+04  1.50501E+04 -2.85126E+04  2.16815E+04 -1.21401E+04  1.55483E+04  7.97169E+03
  7.56016E+03  1.39812E+04 -8.71322E+03  1.47147E+04 -1.85675E+04  4.50613E+03 -1.50418E+04 -1.13706E+04
 -1.00070E+04 -2.03319E+04  9.99057E+03 -1.38443E+04  8.88165E+03 -4.09135E+02  4.86598E+03  1.21002E+04
 -1.32329E+04  7.47657E+03 -1.55062E+04 -7.53281E+03 -2.27016E+03 -1.50703E+04  9.12556E+03 -2.32297E+04
  2.22932E+04 -1.37767E+04  2.83574E+04  5.61198E+03  2.23241E+04  1.73043E+04  7.91815E+03  2.96333E+04
 -7.23855E+03  3.03360E+04 -2.27697E+04  1.80510E+04 -2.24376E+04  8.45750E+03 -1.11244E+04 -4.79841E+03
 -1.11060E+04 -3.95794E+03 -3.19087E+03 -5.09293E+03 -7.63960E+03  2.95399E+03 -6.05294E+03  5.22524E+03
 -2.13136E+04 -4.73192E+03 -1.47503E+04 -6.87116E+03 -9.56760E+03 -2.31044E+04  5.66407E+03 -2.10099E+04
  8.59375E+03 -8.74012E+03  8.11884E+03  6.26718E+03 -5.03365E+03  8.30596E+03 -1.31850E+04  9.37360E+02
 -8.05594E+03 -1.18052E+04 -4.14931E+03 -1.41046E+04  6.63563E+03 -1.58659E+04  1.92797E+04 -6.31717E+03
  3.17245E+04  7.45512E+03  2.08548E+04  1.57700E+04  2.99911E+03  1.65287E+04 -1.52945E+04  1.48440E+04
 -1.18422E+04  7.35669E+03 -4.80038E+03 -6.68923E+03  1.93765E+03 -9.16516E+03  4.50433E+03 -5.46247E+03
  1.23261E+04  1.01024E+03  3.89294E+02  1.12277E+04 -1.05279E+04  1.41811E+04 -9.42115E+03  1.33459E+03
 -1.03060E+04 -9.62685E+03  4.73833E+03 -1.18761E+04  1.11863E+04 -5.13837E+03  7.88983E+03  5.45037E+03
  1.35228E+03  1.54635E+04 -4.37470E+03  1.13198E+04 -1.21110E+04  2.66800E+03 -1.69765E+04 -3.62741E+03
 -1.10021E+04 -1.58536E+04  8.52520E+03 -2.53441E+04  1.82280E+04 -1.19287E+04  1.54649E+04  3.07863E+03
  6.75100E+03  1.26863E+04  5.76448E+03  1.60888E+04 -1.37289E+04  5.50200E+03 -1.11024E+04 -1.82352E+03
 -1.07169E+04 -1.18716E+04  3.99136E+03 -1.18521E+04  1.24882E+04 -4.88768E+03  6.84281E+03 -2.85106E+03
  5.82908E+03  2.51003E+03  8.36043E+02  4.58359E+03  5.75997E+03 -3.67727E+03  3.34761E+03 -7.97151E+03
  1.35230E+04 -6.10581E+03  9.94516E+03  5.81602E+03  1.84319E+04  9.15435E+03  3.36864E+03  1.96712E+04
 -2.22167E+03  2.12349E+04 -1.71272E+04  1.67463E+04 -1.96134E+04  3.60580E+03 -1.87745E+04 -7.28469E+03
 -7.67107E+03 -1.84803E+04 -4.93865E+03 -5.45633E+03  9.64822E+03 -8.47281E+03  3.55297E+03 -7.02102E+03
  5.84481E+03  8.16079E+02  4.39247E+03 -8.68839E+03  2.18224E+03 -1.01583E+04  5.39778E+03 -2.07432E+03
  1.16625E+04  2.51020E+03  1.93576E+03  8.45504E+03  3.00831E+03  1.40556E+04 -9.37061E+03  8.33112E+03
 -1.67282E+04 -5.44096E+03 -1.09777E+04 -1.41285E+04 -3.73550E+03 -1.16576E+04  7.62964E+03 -1.42756E+04
  1.61534E+04 -9.77845E+03  1.74925E+04  2.55860E+03  9.66477E+03  1.08403E+04 -3.46791E+03  1.68894E+04
 -1.34315E+04  1.04081E+04 -9.48468E+03  2.35941E+03 -1.01723E+04 -6.99346E+03 -7.73035E+03 -2.38335E+03
 -9.84832E+02  9.11683E+02  1.91895E+02  1.37140E+03 -4.08054E+03  3.37825E+03 -7.67278E+03 -2.10010E+03
 -5.93023E+03 -7.64724E+03  2.33351E+03 -9.51519E+03  1.17646E+04 -1.34515E+04  1.42004E+04 -1.33110E+03
  1.73968E+04  6.69392E+03  8.47197E+03  1.18371E+04 -1.02490E+04  1.45910E+04 -7.64403E+03  1.04633E+04
 -8.89081E+03 -3.36641E+03 -7.80684E+03 -6.86045E+03 -5.74299E+02 -8.57993E+03  4.83909E+03 -1.17112E+04
  1.40273E+04 -5.94126E+03  1.06955E+04  5.32064E+03 -2.66893E+03  4.81190E+03 -1.94380E+03  4.22750E+03
  5.62731E+03  3.17084E+03  2.25082E+02 -1.32837E+03  1.22551E+03  1.22453E+04  7.41391E+03  4.88222E+03
 -4.80777E+03  9.85280E+03 -1.45117E+04  1.39431E+04 -1.22653E+04  4.84608E+03 -1.71455E+04 -4.47610E+03
 -1.03451E+04 -1.11979E+04 -1.16706E+03 -1.59953E+04  4.60066E+03 -1.21981E+04  1.46731E+04 -2.57942E+03
  8.40975E+03  1.05912E+03  3.35046E+03  1.17464E+04 -7.18602E+03  3.19497E+03 -5.45334E+03  6.59670E+02
 -1.29594E+03 -3.96508E+03  3.48491E+03  7.17398E+02  2.18273E+03 -3.33565E+03 -6.38520E+02  1.26782E+03
  5.22455E+03  5.31275E+03  1.61007E+03 -2.71863E+03 -3.57555E+02  1.50992E+03  3.17569E+03  1.31043E+03
  5.73561E+03  1.15915E+04  6.61860E+03  2.05898E+03  4.87325E+02  9.21606E+03 -2.97832E+03  7.75905E+03
 -5.84519E+03  5.01185E+02 -9.02260E+03 -1.76381E+03 -1.00213E+04  1.65007E+02 -7.16949E+03 -5.33708E+03
  4.84202E+02 -4.07498E+02  7.62640E+03  5.97177E+02  5.45448E+03  3.24798E+03 -3.54039E+03  6.65195E+03
 -6.80803E+03  5.59717E+03 -9.47714E+03 -2.12506E+03 -4.86845E+03 -1.73233E+03  9.44026E+02 -6.66569E+03
  4.23556E+03 -3.90912E+03  5.96851E+03 -3.51408E+03  6.80423E+03  6.39140E+03  1.46564E+03  2.02149E+03
 -5.51584E+03  2.56491E+03 -1.39319E+03 -7.12849E+02  1.98990E+03 -1.04674E+04  1.23277E+03 -5.51358E+03
  1.05371E+04  4.42656E+03  7.66764E+03  2.16525E+03  2.44766E+03  1.19564E+04  2.17983E+02  1.15844E+04
 -3.25199E+02  1.92161E+03 -1.08482E+04 -1.40583E+03 -1.38392E+03 -6.41825E+03 -5.12856E+03 -4.50465E+03
  9.01051E+03 -1.56681E+03  6.51538E+03  8.66150E+02 -7.14203E+02  3.87481E+03 -3.01372E+03  3.66712E+03
 -1.15026E+03  5.23802E+03 -5.25077E+03  2.35301E+03  1.43113E+03  3.75090E+03 -1.27593E+03  3.80863E+03
  2.48686E+03  3.37969E+03 -8.25882E+03  6.61260E+03 -7.36475E+03 -2.65519E+03 -6.13469E+03 -8.08924E+03
 -9.04683E+03 -1.22854E+04  2.47437E+03 -1.00868E+04  4.85123E+03 -9.33060E+03  1.17258E+04 -3.47031E+03
  1.83006E+04  3.03849E+03  1.33378E+04  1.46941E+04  1.04536E+03  6.23235E+03 -5.02652E+03  3.99958E+03
 -4.20785E+03  2.98111E+03 -2.46367E+03  3.67132E+03  1.25104E+03 -1.29323E+03 -1.10828E+03 -3.92720E+02
 -2.54557E+03  1.10267E+03 -5.11818E+03 -2.24528E+03 -4.74139E+03 -4.75420E+03  4.54232E+02 -8.31117E+03
  5.62941E+03 -4.37364E+03 -1.51399E+02 -4.98205E+02  6.07941E+03 -5.82396E+02 -1.57271E+03  1.09826E+04
 -6.11763E+03  1.01376E+04 -1.14954E+04  9.53671E+03 -1.45403E+04  5.28728E+02 -2.79016E+03 -8.99810E+03
 -3.23553E+03 -9.64191E+03  4.27827E+03 -8.74304E+03  6.46133E+03 -1.04231E+04  9.13100E+03 -1.78814E+01
  2.14991E+03  2.40086E+03  1.54721E+03 -3.51391E+03 -1.67785E+03 -2.32700E+03 -5.09638E+02  3.64280E+03
  4.44654E+03 -8.87023E+02  3.35820E+03 -9.74763E+02 -6.22654E+02 -4.28190E+03 -3.64261E+03  7.64150E+03
  4.79196E+02  3.17651E+03 -9.42519E+03  5.31689E+03 -8.14572E+03 -3.48357E+03  1.95731E+03 -1.02421E+04
  8.18274E+03 -5.94854E+03  1.63547E+04  2.69489E+03  6.88013E+03  1.19110E+03  1.10660E+04  1.70053E+03
 -4.92654E+02  1.36094E+04  4.48032E+02  6.20699E+03 -4.92890E+02  3.88087E+03 -1.14482E+02  2.24835E+03
 -6.87673E+03  6.67471E+02  1.21411E+03 -6.65794E+03  6.87494E+02  4.55557E+03 -8.01606E+03  1.19832E+03
 -1.10048E+04 -5.73143E+03  2.36384E+03 -1.48765E+04  1.80150E+03 -1.02313E+03  6.05388E+03 -9.84584E+03
  7.30964E+03 -4.65645E+03 -1.33137E+03 -9.20439E+02  3.26655E+03  1.13881E+04 -7.01648E+03  7.14927E+03
