 $NMID ID='MM_0lb_SNR50_14hz_g55_38.RAW', FMTDAT='(8E13.5)'
 TRAMP=1., VOLUME=1. $END
  3.09736E+05  1.08800E+03  3.33562E+05  2.52713E+05  8.54800E+04  3.41799E+05 -1.32835E+05  2.45834E+05
 -1.91815E+05  8.27680E+04 -1.10274E+05 -3.37064E+04 -4.61771E+03 -5.04362E+04  5.88010E+04  4.44284E+03
  3.61058E+04  4.77107E+04 -1.43110E+04  7.35951E+04 -6.05491E+04  6.43222E+04 -8.02807E+04  3.14402E+04
 -8.22996E+04 -1.11242E+04 -5.61722E+04 -5.11860E+04 -1.72065E+04 -7.13737E+04  2.36461E+04 -5.05445E+04
  4.20986E+04  4.94238E+03  1.42108E+04  4.48416E+04 -3.36500E+04  5.43745E+04 -7.00415E+04 -3.76550E+03
 -5.21152E+04 -5.51466E+04 -6.24707E+03 -7.55971E+04  3.40585E+04 -5.17836E+04  4.66698E+04 -1.83864E+04
  4.63842E+04  1.44374E+04  2.86079E+04  2.43953E+04  1.68886E+04  3.04127E+04 -4.64683E+03  2.91283E+04
 -1.81818E+04  1.00160E+04 -1.74491E+04 -6.88213E+03  1.40851E+03 -1.33804E+04  2.16454E+04  1.11839E+04
  4.15214E+03  2.75023E+04 -3.01014E+04  3.38473E+04 -6.29397E+04  3.51864E+03 -6.29782E+04 -4.75158E+04
 -1.27804E+04 -6.54871E+04  3.89279E+04 -4.90444E+04  5.79600E+04 -2.53326E+03  3.54763E+04  2.87063E+04
 -8.37362E+03  3.70555E+04 -3.32305E+04  1.35485E+04 -3.35578E+04 -5.29130E+03 -1.52125E+04 -1.36428E+04
 -8.59454E+03 -1.53143E+04  4.61687E+02 -1.61855E+04  5.46501E+03 -2.46482E+04  7.94827E+03 -8.68498E+03
  9.11064E+03  4.64204E+03 -8.82355E+03  1.75324E+04 -2.24341E+04 -6.30677E+03 -5.27850E+03 -3.10522E+04
  1.91250E+04 -4.28061E+04  5.43328E+04 -2.72341E+04  4.38688E+04  2.09201E+04  1.34548E+04  4.47617E+04
 -1.73839E+04  3.71979E+04 -3.34147E+04  5.18160E+03 -1.12295E+04 -2.13340E+04  2.21079E+04 -3.04156E+04
  4.06114E+04 -1.18465E+04  3.57736E+04  2.00328E+04  1.19690E+04  4.45078E+04 -8.01955E+03  4.67473E+04
 -3.45199E+04  3.76065E+04 -3.45605E+04  6.36045E+03 -4.25899E+04 -1.36743E+04 -2.25270E+04 -3.83978E+04
  6.53387E+03 -3.70526E+04  3.32094E+04 -2.05635E+04  2.80834E+04  1.39492E+04  5.72427E+02  1.51891E+04
 -1.20408E+04  6.77493E+03 -1.21605E+04 -7.40687E+03  8.90494E+03 -1.50718E+04  1.99568E+04  3.70081E+03
  1.21595E+04  2.61125E+04 -1.27910E+03  2.60263E+04 -1.89385E+04  7.95003E+03 -2.68477E+04 -2.55418E+03
 -1.88876E+04 -1.19587E+04 -1.33177E+04 -2.20408E+04  3.02766E+03 -1.88833E+04  1.75320E+04 -1.93412E+04
  2.28763E+04 -1.29992E+04  3.33116E+04 -7.46086E+02  1.96089E+04  2.13126E+04  3.29370E+03  3.96704E+04
 -2.25949E+04  3.56164E+04 -2.87726E+04  7.58935E+03 -2.56922E+04 -5.91416E+03 -4.80277E+03 -1.59428E+04
 -2.10106E+03 -4.68549E+03 -6.94302E+03  7.47952E+03 -2.26729E+04  5.60211E+03 -1.90337E+04 -6.18517E+03
 -1.18827E+04 -2.05905E+04  4.18178E+02 -2.45620E+04  1.23051E+04 -1.70485E+04  1.71653E+04  2.33228E+02
  1.61112E+04  1.27300E+04  3.01764E+03  1.92506E+04 -1.42086E+04  1.52074E+04 -2.12443E+04 -1.79495E+03
 -1.90571E+04 -1.63279E+04 -3.78670E+02 -2.59943E+04  9.72737E+03 -2.43336E+04  2.24224E+04 -1.12523E+04
  1.73416E+04 -3.40311E+03  8.28487E+03  1.37455E+03  7.02105E+03 -3.33635E+02  1.22789E+04 -2.37933E+03
  1.39784E+04  3.69581E+03  2.09328E+04  1.65898E+04  1.41965E+04  3.15081E+04 -3.31513E+03  3.26216E+04
 -1.99443E+04  2.52324E+04 -3.16122E+04  1.19867E+04 -3.18256E+04 -3.85110E+03 -2.87463E+04 -2.67990E+04
 -9.19361E+03 -2.35779E+04  1.26394E+04 -2.79202E+04  2.06142E+04 -1.27793E+04  1.95908E+04  9.17374E+03
  1.11419E+04  1.77600E+04 -1.09758E+04  6.97791E+03 -1.63214E+04  2.85241E+03 -1.39839E+04 -7.31766E+03
 -1.23376E+03 -1.29185E+04  3.97825E+03 -8.74692E+03  5.66035E+03  1.31405E+03  6.28634E+03  4.08580E+03
 -6.40547E+03  6.27836E+03 -1.06260E+04 -5.66214E+03  6.53370E+03 -9.49143E+03  1.32075E+04 -1.25235E+04
  1.80269E+04 -1.01967E+04  1.65588E+04 -1.40966E+03  1.49689E+04  1.70862E+04  3.68217E+03  2.13086E+04
 -6.47239E+03  2.00035E+04 -1.52448E+04  1.13864E+04 -1.92060E+04  7.47067E+03 -1.17063E+04 -5.22235E+03
 -1.23951E+04 -7.78636E+03  1.32374E+03  1.11348E+03 -1.85983E+03  5.12789E+03 -8.41127E+03  4.27753E+03
 -6.86703E+03  1.66130E+03 -1.09605E+04 -8.77320E+03 -6.09803E+03 -1.98302E+04  7.25193E+03 -1.03745E+04
  1.04917E+04 -5.48264E+03  1.83636E+03  4.99316E+03 -8.04065E+01  3.40622E+03 -2.88795E+03 -3.98527E+03
 -4.98997E+03 -6.40958E+03  6.32782E+03 -1.18475E+04  4.88022E+03 -8.73913E+03  1.50485E+04 -4.76475E+03
  1.84647E+04 -1.71112E+03  1.06220E+04  1.19287E+04  2.97990E+03  1.19503E+04 -6.80511E+03  1.33682E+04
 -1.06179E+04  2.53616E+03 -9.94252E+02 -2.79919E+03  1.79723E+03 -3.32225E+03  5.04662E+02  3.14785E+03
  6.77661E+03  8.77217E+02  5.33067E+01  1.55025E+04 -5.65769E+03  3.80828E+03 -1.30211E+04  4.97960E+03
 -6.91630E+03 -3.33852E+03 -7.47321E+02 -9.49709E+03  6.98513E+03 -4.78846E+03  4.39980E+03  7.08037E+02
 -2.05692E+03  7.23426E+03 -6.09087E+02  4.16006E+03 -5.83838E+03  1.32821E+03 -7.39920E+03 -2.66294E+03
 -4.55265E+02 -1.01930E+04  7.91592E+03 -1.35229E+04  8.69827E+03 -6.40812E+03  1.30515E+04  4.42619E+03
  7.55924E+03  5.24713E+03 -3.01194E+03  1.16178E+04 -8.98599E+03  8.06778E+03 -1.19752E+04 -4.25127E+03
 -6.01539E+03 -1.01687E+04  7.66420E+02 -7.12313E+03  4.33608E+03 -9.07422E+03  6.73478E+03 -7.30406E+03
  3.55481E+03  4.40778E+03  3.99051E+03  5.20306E+02 -1.76160E+03 -4.64608E+03  5.28849E+03 -2.95646E+03
  1.00725E+04 -5.84536E+03  1.00296E+04  1.16961E+03  7.68475E+03  1.46350E+03  6.62476E+03  1.07649E+04
 -4.40846E+03  1.14314E+04 -2.04630E+04  1.18833E+04 -1.49435E+04 -6.28779E+02 -1.51037E+04 -8.67349E+03
 -4.16230E+03 -1.00542E+04 -4.48560E+03 -8.04915E+03  4.89671E+03 -1.86420E+03 -4.01878E+02 -5.16664E+03
  5.92358E+03 -7.54625E+03 -2.42375E+03 -5.60214E+03  4.72365E+03 -2.79244E+03  1.72719E+03 -1.76761E+03
  6.04901E+03  6.42786E+03  3.29384E+03  7.63360E+03 -2.36725E+03  5.12976E+03 -7.12004E+03  4.07292E+03
 -1.23410E+04 -2.51138E+03 -7.73750E+03 -8.34391E+03 -3.91350E+03 -7.08178E+03  4.17404E+03 -1.06546E+04
  6.68179E+03 -5.69695E+03  8.56446E+03  7.45200E+02  2.78579E+03  5.85728E+03  1.35469E+03  1.67413E+04
 -4.71688E+03  1.01776E+04 -1.04259E+04  3.73272E+03 -4.16556E+03 -1.78289E+03 -8.03012E+03  2.13005E+01
 -5.02304E+03 -9.25986E+02 -4.14444E+03  4.18590E+02 -3.20227E+03 -3.24826E+03 -1.15193E+04  6.09602E+02
 -4.26402E+03 -7.22683E+03  8.01683E+02 -5.86903E+03  1.49458E+03 -1.20950E+04  4.07920E+03 -3.47394E+03
  1.14204E+04  6.02261E+03  4.19350E+03  1.01717E+04 -3.09641E+03  7.92717E+03 -6.56849E+03  2.08661E+03
 -9.08118E+03  4.33802E+03 -7.83949E+03 -5.80337E+03  3.46015E+02 -7.87449E+03 -6.09990E+03 -5.94805E+03
  5.44777E+03  2.40515E+03  2.58857E+03 -4.17824E+02  3.09065E+03  1.66436E+03  4.15729E+03 -4.82854E+02
  6.98018E+03  1.61319E+03  5.84323E+03  3.85510E+02 -2.44348E+03  4.16572E+03 -8.12192E+02  5.45873E+03
 -1.80599E+02  2.02637E+02 -9.62533E+03  1.29060E+04 -7.95085E+03 -1.75236E+03 -7.67298E+03 -4.81561E+03
 -6.19581E+03 -1.28963E+04  8.93368E+02 -6.02440E+03  1.30221E+04 -2.38314E+03  6.18093E+03 -4.82567E+03
  2.78499E+03  4.50116E+03  4.58119E+02  1.12203E+03 -5.73002E+03  2.92699E+03 -3.02967E+03  4.87067E+02
 -6.64788E+03  5.87077E+02  2.36500E+03 -1.02848E+04  5.04500E+03 -8.97134E+03  1.79208E+03  4.35101E+03
 -2.64389E+03  3.79300E+03  1.34491E+03  1.24548E+03 -1.56564E+03 -1.95335E+03  1.37363E+03 -2.42926E+03
  2.23271E+03 -5.10850E+02  4.49131E+03  1.25621E+03  8.42208E+02  6.26821E+03 -7.78747E+03  1.76659E+03
 -6.30295E+02  4.73747E+03 -8.93906E+03  4.45101E+03 -5.65905E+03 -1.70191E+03 -2.24407E+02 -1.43436E+03
 -3.46050E+03 -2.32677E+03  3.94465E+03 -4.84267E+03 -9.59024E+02  1.00955E+03 -1.93820E+03  3.08272E+03
  8.80986E+02  1.16078E+03 -3.93210E+03 -4.18677E+03  4.35463E+03 -2.55501E+03  1.59009E+03 -1.04219E+04
 -2.47025E+03  1.49348E+02  5.96180E+03 -4.04613E+03 -2.24626E+03  9.55725E+01 -2.52114E+03 -2.04585E+03
  1.47308E+03  4.84106E+03 -3.53976E+02  3.15125E+03  2.75280E+03 -7.70984E+03 -9.99132E+02  7.34955E+02
  5.51803E+03  2.02373E+03  4.46812E+03 -3.02992E+03  1.60868E+03  5.45509E+03  4.13711E+02  7.41151E+02
 -2.04546E+03  2.04808E+03 -5.18036E+03  1.34037E+03 -3.43884E+03  7.45496E+03  2.45304E+03 -1.01960E+03
  1.10592E+04 -3.72438E+03  3.86060E+03  3.37208E+03 -1.42416E+03  6.33472E+03 -3.72758E+03  7.47370E+03
  7.64101E+02  5.65691E+03 -1.05315E+03 -2.58422E+02 -4.61782E+03  3.82996E+03 -1.08228E+03  4.83595E+03
  7.55360E+02 -9.74541E+02 -1.17688E+03  4.52020E+03 -7.13982E+03 -2.28175E+03 -2.82321E+03 -1.82401E+03
  1.13772E+03 -1.38187E+03 -6.03909E+03 -4.71986E+03  8.31259E+02 -9.63384E+03  9.19092E+03 -1.55541E+03
  3.86394E+03 -4.62896E+03  3.61194E+03  1.37087E+03 -1.66775E+03 -5.14682E+03 -7.94666E+03  8.50681E+03
  2.34636E+02  1.22338E+03 -4.73871E+03  5.51671E+03 -1.41438E+03 -6.06763E+02  4.16406E+03  3.48958E+02
  1.38607E+02 -8.30914E+02  1.81876E+02 -1.67311E+03 -5.54705E+02  3.60988E+03 -2.65704E+03 -1.12230E+03
  3.42798E+03 -2.45177E+02  1.10325E+04  3.64261E+03 -3.04537E+03  3.10196E+03 -1.88365E+03  5.51294E+03
  1.64551E+03  5.44267E+03 -7.01984E+03  5.76636E+02 -6.72219E+03 -1.25667E+02 -6.27782E+03 -8.33025E+03
 -2.97634E+03 -4.85458E+03  3.34638E+03 -7.15247E+02  5.31568E+03 -6.13077E+02  6.58013E+03 -7.94965E+02
  3.00225E+03  2.01669E+03  2.86328E+01  2.61189E+03  4.25070E+03 -3.98912E+03 -3.09793E+03  1.68758E+03
  5.71393E+02 -9.15208E+02  5.55867E+03 -1.89225E+03  2.03129E+03  7.62134E+02  2.36438E+02 -4.24611E+02
 -4.77827E+03  3.04511E+03  9.93540E+02 -2.88626E+02 -4.10908E+03  1.83607E+03 -1.41398E+03 -4.77661E+03
 -7.50420E+02 -2.46880E+03  1.51181E+03 -1.22903E+03  8.97584E+02  8.65770E+02  2.33341E+02  2.85793E+03
 -9.89742E+02  2.50744E+03  9.76913E+02  9.92647E+02 -3.64606E+03 -9.24180E+02 -1.55465E+03  1.27512E+02
  1.52128E+03  3.14115E+03 -1.08554E+03  5.03209E+03  2.24763E+03 -1.09127E+03 -1.69650E+03 -2.47390E+03
 -1.22692E+03  1.63299E+03 -2.62849E+03 -1.34534E+02  5.94505E+02 -2.57160E+03  5.26873E+03 -1.19867E+03
  2.49681E+03  3.32963E+03  9.28616E+02  1.71629E+03  1.73581E+03 -1.90210E+02 -1.95679E+02 -2.43976E+02
