 $NMID ID='MM_0lb_SNR50_15hz_g45_48.RAW', FMTDAT='(8E13.5)'
 TRAMP=1., VOLUME=1. $END
  3.07068E+05  2.19400E+03  3.42982E+05  2.51858E+05  8.04046E+04  3.38904E+05 -1.28611E+05  2.50348E+05
 -1.87897E+05  8.15004E+04 -1.13686E+05 -2.91860E+04  6.93475E+02 -5.04060E+04  5.86179E+04 -5.92466E+03
  4.15308E+04  5.48493E+04 -1.05881E+04  7.29060E+04 -5.93369E+04  6.36446E+04 -8.42079E+04  2.95150E+04
 -7.93394E+04 -9.65612E+03 -5.85489E+04 -5.35495E+04 -8.00892E+03 -6.84246E+04  2.66910E+04 -4.38584E+04
  3.87146E+04  5.64603E+03  2.13917E+04  4.58738E+04 -3.25563E+04  4.91979E+04 -6.83809E+04 -1.33245E+03
 -5.27373E+04 -6.08333E+04 -7.11262E+03 -8.08775E+04  3.45405E+04 -4.91385E+04  4.62208E+04 -1.78374E+04
  4.42029E+04  8.64980E+03  3.54491E+04  2.53543E+04  2.02140E+04  2.47432E+04 -7.89834E+03  2.36854E+04
 -2.26719E+04  1.52034E+04 -2.07473E+04 -3.67534E+03  5.96916E+03 -5.77259E+03  1.98250E+04  7.56163E+03
  8.28644E+03  3.28998E+04 -3.17482E+04  3.91999E+04 -5.65611E+04  5.21915E+02 -5.80010E+04 -4.39407E+04
 -1.39891E+04 -6.32639E+04  3.71206E+04 -4.07013E+04  6.10309E+04 -3.36759E+03  2.75042E+04  3.09770E+04
 -5.10179E+03  3.56247E+04 -3.15185E+04  1.57320E+04 -2.67531E+04 -3.29905E+03 -1.33584E+04 -8.03714E+03
 -7.31741E+03 -1.13650E+04 -6.40062E+02 -1.32665E+04  9.48869E+03 -2.80079E+04  1.39322E+04 -1.06473E+04
  1.08561E+04  7.01647E+03 -8.06974E+03  6.16062E+03 -2.48662E+04 -2.70804E+03 -1.43984E+04 -3.27424E+04
  2.32140E+04 -4.22808E+04  4.65125E+04 -2.11085E+04  4.60246E+04  1.89674E+04  1.95438E+04  4.72900E+04
 -1.57570E+04  3.38946E+04 -1.92797E+04  3.74524E+00 -6.28535E+03 -2.76090E+04  1.99827E+04 -3.00969E+04
  4.14090E+04 -9.28293E+03  3.31906E+04  2.45694E+04  2.17193E+04  4.53390E+04 -9.64162E+03  4.83620E+04
 -3.09500E+04  3.27760E+04 -3.64485E+04  1.19724E+04 -3.69318E+04 -1.58152E+04 -2.49413E+04 -3.87295E+04
  1.80930E+03 -3.71634E+04  2.85054E+04 -1.53537E+04  2.81044E+04  1.02281E+04  3.82581E+03  1.56946E+04
 -1.04666E+04  9.45076E+03 -9.40985E+03 -7.90670E+03  4.26752E+03 -9.94070E+03  1.44402E+04  6.20588E+03
  1.48342E+04  2.40329E+04 -5.33322E+03  2.39607E+04 -1.85943E+04  1.44400E+04 -2.73611E+04 -5.07791E+03
 -1.98847E+04 -1.67711E+04 -6.92908E+03 -1.80999E+04  5.25902E+03 -1.83168E+04  1.76573E+04 -2.06740E+04
  2.62227E+04 -1.30429E+04  3.49417E+04  6.11512E+03  2.02110E+04  1.74580E+04  1.97297E+03  3.57290E+04
 -1.57676E+04  3.40227E+04 -2.65454E+04  1.02418E+04 -1.82859E+04 -7.59579E+03 -3.72104E+02 -1.05798E+04
  2.65111E+03 -5.97839E+02 -4.19491E+03  5.42718E+03 -1.35300E+04  3.57202E+03 -1.96665E+04 -4.50378E+03
 -1.49529E+04 -1.32494E+04  5.31059E+03 -1.61665E+04  1.23571E+04 -1.70785E+04  2.17362E+04  2.64693E+03
  1.18557E+04  8.20032E+03 -1.31252E+03  1.86893E+04 -1.07988E+04  7.98910E+03 -1.60186E+04 -9.13339E+03
 -1.10794E+04 -2.13440E+04 -1.53204E+03 -2.13900E+04  1.19020E+04 -1.72263E+04  1.77930E+04 -9.37239E+03
  1.54657E+04  1.22457E+02  1.21933E+04  5.31603E+03  9.44024E+03  7.51473E+02  7.08770E+03 -4.23606E+03
  1.49356E+04 -2.56082E+03  2.05858E+04  1.20973E+04  1.11174E+04  2.92752E+04 -5.98704E+03  3.28623E+04
 -2.01094E+04  2.61275E+04 -3.28617E+04  1.23012E+04 -3.73553E+04 -4.61385E+03 -2.98342E+04 -1.44698E+04
 -1.19365E+04 -2.71596E+04  2.46676E+03 -2.49024E+04  1.83108E+04 -1.11198E+04  1.97683E+04  3.69100E+03
  1.08171E+04  1.00476E+04 -9.28230E+03  1.61231E+04 -1.51430E+04  2.18620E+03 -1.28782E+04 -1.05251E+04
  1.73738E+03 -1.78415E+04  7.38177E+03 -1.02109E+04  1.19226E+04 -3.46486E+03  3.97503E+03  5.69894E+03
 -8.10972E+03  3.78625E+03 -7.96992E+03 -5.87379E+03  3.07118E+03 -1.12095E+04  9.84630E+03 -1.22465E+04
  1.65921E+04 -1.08062E+04  1.58482E+04  2.31412E+03  1.28155E+04  1.63676E+04  1.06848E+04  1.88432E+04
 -6.47215E+03  1.76046E+04 -1.13036E+04  1.12618E+04 -1.38693E+04  6.61199E+03 -1.30830E+04 -3.07906E+03
 -9.10436E+02 -5.07504E+03 -1.32647E+03  1.90850E+03 -3.11215E+03  2.28358E+03 -5.26293E+03  4.37861E+03
 -4.71726E+03  1.38883E+03 -1.35852E+04 -7.45503E+03 -4.73504E+03 -1.51413E+04  5.67128E+03 -9.51224E+03
  1.47834E+04 -6.42885E+03  2.08754E+03  2.59556E+03 -3.38863E+03  3.05519E+03 -4.40622E+03 -4.27052E+03
 -5.22007E+03 -9.54786E+03  1.64027E+03 -1.21633E+04  2.41055E+03 -1.17769E+04  1.37322E+04  8.19865E+02
  1.41495E+04  4.04523E+02  1.19886E+04  5.41287E+03 -2.22335E+03  4.16234E+03 -5.67732E+03  9.80316E+03
 -9.20814E+03  3.43028E+03 -8.75660E+03 -3.44773E+02 -1.79751E+03  2.62014E+03  4.40293E+03  3.02226E+03
  5.37826E+03  6.67710E+03  8.39137E+02  9.51104E+03 -4.84582E+03  9.97071E+03 -8.88338E+03  5.05862E+03
 -6.08144E+03 -4.24870E+03  3.49150E+02 -7.59268E+03  6.14248E+03  1.04820E+03  9.26480E+03  2.99056E+02
  3.40688E+03  5.18543E+03 -1.29900E+03  5.26379E+03 -2.37690E+03  3.90853E+03 -4.51372E+03 -1.94171E+03
 -3.30427E+03 -1.28816E+04 -5.43078E+02 -1.47276E+04  9.60283E+03 -2.46135E+03  7.69612E+03 -8.60485E+02
  8.22553E+03  7.12422E+03 -9.81812E+02  8.84928E+03 -1.26627E+04  1.59639E+03 -7.44919E+03 -3.21303E+03
 -1.18196E+03 -4.30971E+03 -1.47407E+02 -7.63041E+03  5.37744E+03 -1.01457E+04  4.08231E+03 -7.41277E+03
  3.59896E+03  3.10804E+03  1.20435E+03 -1.25175E+03 -1.42082E+03 -2.38924E+03  2.01974E+03  7.01219E+02
  6.63594E+03 -3.33128E+03  1.02753E+04  2.41874E+03  7.50376E+03  9.50124E+03  8.47511E+03  1.48435E+04
  2.06688E+03  1.30675E+04 -7.18156E+03  9.37205E+03 -1.19573E+04 -6.05673E+02 -1.15520E+04 -8.81478E+03
 -2.55771E+03 -1.08749E+04  9.68298E+02 -1.72953E+03  1.46801E+02 -1.66180E+03  3.22683E+03 -5.58860E+03
 -2.23770E+03  7.99212E+02  2.22610E+03  1.45170E+02  4.66264E+03 -2.58296E+03  2.10524E+03 -3.02441E+03
  3.63862E+03  2.65923E+03  1.03911E+03  4.24561E+03 -2.79559E+03  6.98053E+03  1.25558E+03  7.97995E+03
 -6.22784E+03 -1.83571E+03 -2.97126E+03 -5.79364E+03  1.16837E+03 -5.42705E+03  3.23792E+03 -8.65842E+03
  9.33758E+03 -7.62986E+03  1.01603E+04  5.17180E+03  7.04844E+03  6.40911E+03 -1.02716E+03  8.65501E+03
 -1.62481E+03  6.27385E+03 -4.28999E+03  3.82118E+02 -6.26167E+03  1.40862E+02 -5.67143E+03 -1.78640E+03
 -9.74180E+02 -1.37917E+03 -3.74250E+03  5.62526E+03 -2.12817E+03  1.55714E+03 -7.50869E+03  2.20812E+03
 -2.96758E+03 -7.48140E+03 -9.44709E+02 -8.55178E+03  6.89457E+02 -3.35182E+03  4.51441E+03  1.17191E+03
  6.22030E+03  6.41674E+03  5.26310E+03  5.45473E+03 -8.00388E+03  6.53978E+03 -7.89319E+03  5.38166E+03
 -4.76066E+03  1.18494E+03 -1.06051E+04 -1.58157E+03  2.14583E+03 -9.01496E+02  4.83529E+03 -2.85675E+03
  1.49917E+03 -1.81906E+03  1.64322E+03  1.84918E+03  4.78713E+03  3.36316E+03 -2.15936E+03  1.00450E+02
  4.64247E+03  5.79542E+02  4.02917E+03 -1.10333E+03 -1.46883E+03  6.20608E+03  1.75895E+03  1.77238E+03
 -8.00555E+03  1.49538E+03  3.08099E+02  4.31552E+03 -6.48898E+03  4.59762E+03 -7.08843E+03 -3.54901E+02
 -3.10331E+03 -2.76439E+03 -4.24473E+03 -4.74013E+03  4.77508E+03 -1.62464E+03  2.13395E+03 -1.44400E+03
  7.17977E+03  4.32333E+03 -3.47601E+02  2.86073E+03 -3.85848E+03  2.61705E+03 -2.16882E+03 -1.09865E+03
 -2.37135E+03  3.96846E+02  4.28714E+03 -3.16342E+03  1.20625E+03 -2.23189E+03  4.17258E+02 -1.72810E+03
  3.50156E+03  3.67875E+03  3.04039E+02  9.86257E+02  2.52669E+03  3.70294E+02  4.52898E+03 -4.77069E+03
 -1.45113E+03 -2.99223E+03  3.10561E+03 -1.69104E+03 -2.41828E+03  3.73911E+03  2.47263E+03  3.85445E+03
 -1.49918E+02  3.59565E+03 -5.02286E+03  3.36691E+03 -1.61215E+03 -7.25299E+03 -2.52598E+03 -2.03593E+03
  3.49791E+03  7.47452E+02 -2.52710E+03  4.08527E+02 -7.16646E+02  2.69758E+03  2.40576E+02  4.75885E+03
 -1.75856E+03  3.40961E+03 -4.11749E+03 -5.65993E+03 -2.13602E+03 -4.66398E+03  3.67810E+03  5.39648E+02
  1.86181E+03 -4.22474E+03 -1.22531E+03 -3.57757E+03  1.80870E+03 -3.75989E+03 -1.68086E+03  5.47355E+03
 -2.00681E+03  5.58033E+02 -1.66952E+03 -3.77661E+03  2.17997E+03  1.60272E+03  1.31078E+03  3.31021E+03
  8.01701E+02 -4.68266E+02  2.51574E+03  7.99243E+03  5.45029E+03  5.54470E+03  5.58862E+02 -2.84180E+03
 -4.05210E+03  8.23079E+02 -3.76114E+03  3.33424E+03 -3.10236E+03 -1.63311E+03  2.50233E+03 -1.63274E+03
 -7.91102E+02  8.00346E+02  8.24989E+03  3.44599E+03  4.74607E+02  1.67896E+03 -5.35008E+02  2.51307E+02
  3.75376E+02  1.29946E+03  1.22868E+03 -1.31061E+03  1.74703E+03 -1.82086E+03  4.90035E+02 -3.74116E+02
 -5.95785E+02 -7.26082E+02 -1.00508E+04  1.46327E+03 -1.09361E+03 -2.46793E+03 -2.69586E+03 -6.16870E+03
 -1.85854E+03 -5.97989E+03 -1.43307E+03 -4.68952E+03  3.26612E+03 -1.00714E+04  6.18963E+03  7.12766E+02
 -1.30300E+02 -2.28764E+03 -1.08081E+03  3.02331E+03  5.50209E+02  2.84147E+03 -6.23461E+03  1.50375E+03
  2.49519E+00 -1.80037E+03 -2.89246E+03 -5.33792E+03 -3.91703E+03  3.53251E+02 -7.18696E+02 -1.91095E+03
 -6.33980E+02  1.22136E+03 -1.84673E+03  8.14074E+01  6.00530E+02 -4.74844E+03  7.87561E+02 -3.69316E+03
  2.74277E+03 -6.35914E+03  4.76864E+03  2.31528E+03  3.65765E+03  1.92613E+03  6.19536E+02  5.44799E+02
 -2.03978E+02  6.46629E+03 -9.35039E+02  2.44328E+03 -3.80069E+03  4.71636E+03 -3.89086E+02 -3.49792E+03
  9.56711E+02 -1.29771E+03 -4.93301E+02 -2.06156E+03  6.26749E+02  1.54489E+03  1.70798E+02  4.78750E+03
  3.12944E+03 -1.11675E+02  4.82297E+02 -2.68520E+03 -3.73220E+03  1.02994E+03  2.44841E+02  3.63083E+03
 -5.28821E+02 -2.31373E+03  4.21205E+02  2.69928E+03  5.61703E+03  1.62186E+03 -1.48054E+03 -1.44018E+03
 -9.01916E+02 -2.93598E+03 -1.33383E+03  4.63866E+03 -4.60100E+03  1.69137E+03 -3.00447E+03 -1.37621E+03
 -1.42350E+03 -1.47838E+03  1.40308E+03 -5.30824E+02  6.67300E+03 -2.00630E+03  8.43441E+02  4.14741E+03
 -1.03949E+03  2.92976E+03  2.20396E+03 -9.87464E+02 -4.16181E+03 -1.96508E+02 -2.82547E+02 -3.81448E+03
  1.76039E+02 -1.30029E+03 -2.42944E+03 -2.32066E+03  2.12573E+02 -6.12824E+03 -1.21898E+03 -8.22077E+03
 -2.09176E+02  4.02457E+03  1.18986E+03 -5.10240E+03 -9.42338E+02 -4.56712E+03  3.13871E+03 -1.76209E+03
  3.83585E+03  4.86374E+02  7.91658E+02  1.28033E+03 -2.81887E+03  2.43674E+03 -2.67509E+03  1.82506E+03
