 $NMID ID='MM_0lb_SNR50_9hz_g40_34.RAW', FMTDAT='(8E13.5)'
 TRAMP=1., VOLUME=1. $END
  3.09320E+05  1.85353E+03  3.36637E+05  2.53761E+05  8.60511E+04  3.46879E+05 -1.31252E+05  2.51733E+05
 -1.88906E+05  8.55671E+04 -1.09483E+05 -3.78571E+04  2.20367E+03 -5.21970E+04  5.24296E+04 -3.01705E+03
  3.90261E+04  5.17890E+04 -1.19078E+04  7.53029E+04 -5.87771E+04  6.73606E+04 -8.07573E+04  3.03033E+04
 -8.63683E+04 -1.31247E+04 -5.47758E+04 -4.46213E+04 -1.88912E+04 -6.32618E+04  2.70320E+04 -4.61955E+04
  3.72814E+04  2.50426E+02  1.39208E+04  4.55730E+04 -3.02333E+04  4.42840E+04 -6.50994E+04 -4.86896E+03
 -5.57357E+04 -5.50565E+04 -5.59070E+03 -7.72630E+04  3.75980E+04 -5.48743E+04  5.30004E+04 -2.15808E+04
  4.52961E+04  7.13773E+03  3.41989E+04  2.84796E+04  1.93199E+04  2.42191E+04 -9.68958E+03  3.25285E+04
 -2.89335E+04  1.20112E+04 -1.60983E+04 -1.73818E+02  9.42935E+03 -8.34707E+03  2.91118E+04  1.52371E+04
  1.48570E+04  3.05136E+04 -3.23187E+04  3.82248E+04 -6.84548E+04  4.62672E+03 -5.32020E+04 -4.58935E+04
 -1.17830E+04 -6.76173E+04  3.74402E+04 -4.79042E+04  5.60797E+04 -1.85233E+03  3.59274E+04  3.39630E+04
 -3.58042E+03  3.71880E+04 -3.33693E+04  1.59400E+04 -3.30869E+04 -6.05850E+03 -1.95770E+04 -1.51486E+04
  1.12311E+03 -1.25491E+04 -4.82483E+03 -2.39528E+04  1.23341E+04 -2.04231E+04  1.30110E+04 -1.36561E+04
  1.24143E+04  5.46481E+03 -1.55196E+04  1.44505E+04 -2.24375E+04 -4.26926E+03 -6.27430E+03 -3.67028E+04
  2.25932E+04 -4.56073E+04  4.60067E+04 -2.00819E+04  4.62535E+04  1.48027E+04  2.02892E+04  5.24543E+04
 -1.30902E+04  3.90893E+04 -2.08313E+04  3.84345E+03 -1.55204E+04 -2.61128E+04  1.58109E+04 -3.99757E+04
  4.30978E+04 -6.88182E+03  4.59392E+04  2.37768E+04  2.50154E+04  4.73021E+04 -8.44051E+03  4.77643E+04
 -3.31837E+04  3.52071E+04 -4.78344E+04  1.01222E+04 -5.36647E+04 -1.67182E+04 -2.45487E+04 -4.62389E+04
  7.49721E+03 -4.15642E+04  3.21557E+04 -1.37955E+04  3.36009E+04  1.27383E+04  7.81301E+03  2.25658E+04
 -9.67649E+03  5.02401E+03 -1.21909E+04 -1.42118E+04  1.29594E+03 -4.72995E+03  1.55352E+04  3.49840E+03
  1.24021E+04  1.91838E+04 -6.14696E+03  1.72675E+04 -1.83054E+04  1.67565E+04 -2.88997E+04 -3.68682E+03
 -3.28448E+04 -2.10343E+04 -8.40489E+03 -2.24328E+04  4.30711E+02 -2.69690E+04  1.18512E+04 -2.58454E+04
  2.90225E+04 -1.73580E+04  3.95291E+04  6.69695E+03  2.76332E+04  2.47098E+04  6.67957E+03  3.72577E+04
 -1.60840E+04  3.34134E+04 -3.19837E+04  5.72338E+03 -2.08707E+04 -1.63599E+04 -9.73771E+02 -9.58751E+03
 -2.81685E+03  4.02801E+03 -1.61497E+03  9.19201E+03 -1.78117E+04  3.58377E+03 -1.57368E+04 -7.34680E+03
 -7.20423E+03 -3.03256E+04  1.96817E+03 -3.15641E+04  1.05572E+04 -1.57678E+04  1.24125E+04 -2.25765E+03
  8.44749E+03  1.08610E+04  5.91050E+03  2.13631E+04 -1.32343E+04  1.32631E+04 -3.24240E+04 -4.95595E+02
 -2.50076E+04 -2.13823E+04 -3.35120E+03 -2.86728E+04  1.58424E+04 -1.37545E+04  2.52419E+04 -9.18936E+03
  1.94605E+04 -4.55703E+03  1.48376E+04  1.08080E+03  1.12361E+04  3.42997E+02  1.14424E+04  4.11548E+03
  2.13556E+04  4.68933E+03  2.17967E+04  2.20721E+04  8.96143E+03  3.54799E+04 -8.02230E+03  4.46672E+04
 -2.35260E+04  3.15383E+04 -3.72037E+04  2.32373E+04 -3.87288E+04 -3.86006E+03 -3.55621E+04 -2.47609E+04
 -1.08089E+04 -3.43160E+04  1.21116E+04 -3.38733E+04  2.71976E+04 -1.26511E+04  2.08301E+04  9.90420E+03
  9.59727E+03  1.32694E+04 -5.57502E+03  1.49729E+04 -2.01092E+04  5.93595E+03 -1.42075E+04 -1.39378E+04
  2.00476E+03 -1.97054E+04  1.18905E+04 -2.01020E+04  1.31561E+04 -3.65400E+03 -2.00678E+03  7.99171E+03
 -3.29568E+03  6.30655E+01 -1.08434E+04 -6.52875E+03 -1.88011E+03 -1.87202E+04  1.38626E+04 -1.47427E+04
  2.39354E+04 -9.57205E+03  2.78567E+04  4.83528E+03  2.05984E+04  1.68365E+04  1.29622E+04  3.24682E+04
 -4.25283E+02  2.74248E+04 -1.73818E+04  1.35428E+04 -3.02438E+04  1.56658E+03 -1.36910E+04 -5.70252E+03
 -7.60845E+03 -7.38638E+03  3.46710E+03  3.72795E+03  1.68093E+02 -2.82355E+02 -3.78992E+03  6.19458E+03
 -1.37642E+04 -3.94808E+03 -1.59464E+04 -7.75511E+03  2.76373E+03 -2.33671E+04  6.79174E+03 -2.01027E+04
  1.55806E+04 -9.65785E+03  6.53710E+03  4.28165E+03  5.16932E+02  9.56651E+03 -1.11142E+04 -1.56739E+02
 -9.00730E+03 -8.32618E+03 -7.14897E+03 -1.38641E+04  2.38350E+03 -1.79337E+04  1.40288E+04 -7.08233E+03
  2.15656E+04  4.74454E+03  1.11379E+04  9.80559E+03 -3.79195E+03  2.17129E+04 -1.50659E+04  1.05972E+04
 -1.29759E+04  5.05741E+03 -1.22449E+04 -8.62809E+03  6.50935E+03 -2.77966E+03  7.07084E+03  1.16332E+03
  9.23385E+03  1.27998E+04 -9.64559E+02  1.54044E+04 -5.98689E+03  1.94242E+04 -1.60959E+04 -1.23104E+03
 -1.13184E+04 -7.70204E+03  1.37593E+03 -1.48609E+04  8.51084E+03 -7.08988E+03  1.06848E+04  6.08659E+03
  4.13470E+03  1.22718E+04 -9.71850E+03  5.61180E+03 -1.89655E+04  8.44196E+03 -1.18963E+04 -9.13261E+03
 -4.08768E+03 -1.70520E+04  4.59648E+03 -1.90487E+04  1.22881E+04 -9.71647E+03  1.65634E+04 -1.18647E+03
  5.78594E+03  1.34775E+04  1.73783E+02  2.09778E+04 -5.23482E+03  1.09149E+04 -1.29155E+04  7.64216E+02
 -6.04987E+03 -1.35831E+04 -4.75617E+00 -1.64165E+04  6.95148E+03 -7.09247E+03  4.16520E+03 -6.16623E+03
  5.81983E+03  5.64315E+02 -3.04303E+02  1.38966E+03  5.64321E+03 -1.05212E+03  3.89939E+03 -1.52803E+04
  8.39664E+03 -5.54904E+03  1.59488E+04 -3.09195E+03  1.18808E+04  9.07587E+03  1.01107E+04  2.25903E+04
 -5.59809E+03  2.79872E+04 -1.52759E+04  1.88007E+04 -1.83351E+04 -2.10797E+03 -2.16060E+04 -1.13801E+04
 -7.96300E+03 -1.28792E+04  4.71509E+03 -1.59628E+04  9.59691E+03 -1.42534E+04  4.31412E+03 -3.83936E+03
  4.60478E+03 -4.78325E+03 -2.73971E+03 -1.40845E+03  5.35203E+03 -2.61667E+03  1.30384E+04  4.50808E+03
  9.61828E+03  5.98865E+02  5.01139E+03  1.36481E+04  2.05687E+03  1.25798E+04 -1.56878E+04  1.12019E+04
 -1.89431E+04 -1.67100E+03 -1.54104E+04 -7.76064E+03  2.40213E+03 -1.90293E+04  8.15600E+03 -1.55216E+04
  1.96115E+04 -1.01815E+04  2.36739E+04 -2.47306E+03  1.66867E+04  1.16374E+04  6.15289E+03  1.58802E+04
 -9.00756E+03  1.15492E+04 -1.03700E+04  4.15672E+02 -1.48154E+04 -5.19555E+03 -2.26917E+03 -5.58546E+03
  2.51922E+03 -4.45295E+03 -4.21750E+03 -1.72782E+03 -6.85191E+03 -6.99962E+03 -1.01964E+04  7.46707E+02
 -6.35029E+03 -1.06578E+04  8.17495E+02 -1.25133E+04  5.60232E+03 -1.23577E+04  1.46526E+04 -7.80043E+03
  9.43141E+03  6.04952E+03  1.13998E+04  1.22249E+04  5.94048E+02  1.41891E+04 -8.19904E+03  1.07475E+04
 -1.25580E+04 -2.61042E+03 -7.69617E+03 -1.33573E+03  1.74327E+03 -1.15040E+04  1.39236E+03 -1.08208E+04
  5.20321E+03 -3.36843E+03  4.17740E+03  4.74049E+03  2.25015E+03  8.55306E+02  4.65611E+03 -1.60163E+03
  1.28008E+03 -4.48305E+03  6.64744E+02  2.22495E+03  5.01511E+03  8.27369E+03  5.04008E+03  1.11771E+04
  3.40194E+02  1.30798E+04 -1.08111E+04  1.56301E+04 -1.51684E+04 -6.96219E+02 -1.43713E+04 -2.19560E+03
 -5.32428E+03 -1.76179E+04  7.33812E+03 -1.57211E+04  5.59186E+03 -1.02647E+04  1.10477E+04 -7.25059E+03
  7.77653E+03  1.58743E+03  4.67152E+03  7.68217E+03 -1.14350E+04  8.29184E+03 -7.63928E+03 -2.62921E+03
 -4.88745E+03 -1.11171E+04  3.86711E+03 -5.75719E+03 -7.11646E+02 -4.82197E+03 -1.32126E+03  6.58603E+03
  5.55014E+03  4.01769E+03 -2.03978E+03 -2.19730E+03 -2.26407E+03 -4.31346E+03  1.64618E+03  5.75401E+03
  6.39568E+02 -1.69729E+03  4.36882E+03  4.12627E+03 -5.61678E+02  7.93842E+03 -4.66868E+03  1.49363E+04
 -1.16571E+04  6.39509E+03 -7.58974E+03 -3.70237E+02 -1.01756E+04 -5.09098E+03 -5.37707E+03 -2.06000E+03
 -5.40084E+02 -9.27101E+03  8.37786E+02 -3.56636E+03  2.00968E+03  7.44213E+03  2.19138E+03  4.09082E+03
 -7.40500E+03  2.34818E+03 -1.07858E+04 -2.48479E+03 -8.78003E+03 -8.80370E+03  5.84553E+02 -9.87908E+03
  2.55019E+03 -3.53707E+03  4.08956E+03  1.56377E+03  6.84782E+03 -2.19099E+03  3.72522E+03  3.82206E+03
 -4.76925E+03  6.07294E+03 -5.30460E+03 -3.86016E+02  8.83559E+03 -1.40715E+04  8.10423E+03  2.30223E+03
  1.32198E+04 -4.41688E+03  7.49663E+03 -1.28850E+03  5.14439E+03  1.19026E+04 -5.00624E+03  9.43315E+03
 -3.56684E+03  7.85624E+03 -1.20654E+04 -8.18123E+02 -3.76835E+03 -8.26263E+03  6.24815E+03 -5.04603E+03
  4.93905E+03 -8.31372E+02  7.14169E+03  5.56403E+03  5.74779E+03  1.42957E+03  5.10108E+03  2.48949E+03
 -7.82080E+02  6.99172E+03 -6.53176E+03 -8.92143E+02 -4.00696E+03 -1.32340E+02 -5.19324E+03  4.70655E+03
 -2.55744E+03  9.89750E+02 -3.89647E+03  1.32037E+03 -4.57094E+03  1.34060E+02 -4.59941E+03 -6.53461E+03
 -8.74558E+03 -1.73335E+04 -5.25152E+03 -1.37178E+04  7.52156E+03 -1.30263E+04  1.73350E+04 -6.84450E+03
  1.19042E+04  3.59697E+03  1.23084E+04  8.49270E+03  1.72345E+02  1.14646E+04 -1.06048E+04  6.69622E+03
 -7.87082E+03  1.38013E+03 -1.28536E+03 -1.37081E+03  5.82559E+03  3.12573E+03  4.62434E+03  3.13844E+03
 -1.10022E+03 -1.88167E+03  8.19804E+02 -1.69030E+03  8.72053E+02 -5.83005E+03 -4.47033E+02 -9.20582E+02
  4.37083E+03 -5.40674E+03  5.07110E+03 -1.66760E+03  2.70075E+03  2.48330E+03  5.82697E+03  1.14924E+04
 -4.70220E+03  1.09932E+04 -1.00863E+04  1.03556E+04 -1.06494E+04 -8.53838E+03 -1.31563E+04 -5.11277E+03
 -1.18523E+03 -7.88094E+03 -3.97780E+03 -1.28150E+04  6.44755E+03 -5.76092E+03  7.79564E+03  4.52924E+02
  8.53438E+02 -3.07523E+03  8.63890E+03  3.08790E+03 -7.04993E+03  4.22537E+02  1.86316E+03 -4.96311E+03
  5.52088E+03 -5.86498E+03  1.17280E+04  5.45107E+03  7.06328E+02 -7.86340E+02 -5.28099E+02  4.46559E+03
 -7.60334E+03  1.13026E+03 -6.26324E+03  5.55946E+03 -1.40398E+04 -3.93238E+03  1.93065E+03 -6.66762E+03
  2.22512E+03 -7.75430E+03  9.70826E+03  3.47147E+03  6.80149E+03  8.56390E+02  9.00868E+03  7.03374E+03
  4.64604E+03  9.37112E+03  1.41696E+03  7.32353E+03 -1.71705E+03  9.30994E+03 -4.25587E+03  2.12344E+03
  3.59382E+02 -3.45621E+01 -6.26637E+03  3.34205E+03 -2.95514E+03 -8.56629E+01 -2.28891E+03  1.51363E+03
 -9.88832E+03 -3.53953E+03 -8.61801E+02 -5.62154E+03  5.17987E+03 -4.48034E+03  4.43802E+03 -1.43136E+04
  5.27198E+03 -2.03630E+03  6.04294E+03  3.63452E+02 -7.13601E+02  5.39077E+03 -3.86424E+03  5.41939E+03
