 $NMID ID='MM_0lb_SNR50_7hz_g50_31.RAW', FMTDAT='(8E13.5)'
 TRAMP=1., VOLUME=1. $END
  3.03522E+05 -2.91199E+03  3.41502E+05  2.48888E+05  8.73867E+04  3.37410E+05 -1.27805E+05  2.52823E+05
 -1.86003E+05  8.65248E+04 -1.10678E+05 -3.24849E+04  1.27615E+03 -5.13382E+04  5.87118E+04 -3.19793E+03
  3.36668E+04  6.20953E+04 -1.54384E+04  7.25383E+04 -6.16032E+04  5.84672E+04 -8.02538E+04  3.23294E+04
 -8.13553E+04 -1.25521E+04 -6.09330E+04 -5.05823E+04 -1.81008E+04 -7.04935E+04  2.80480E+04 -4.88460E+04
  3.84668E+04 -3.77200E+03  2.03677E+04  4.38273E+04 -3.57598E+04  5.22492E+04 -6.62018E+04  3.70962E+03
 -5.18307E+04 -5.90352E+04 -1.10975E+04 -7.70296E+04  3.91415E+04 -5.37770E+04  4.43750E+04 -1.76379E+04
  3.83461E+04  8.04761E+03  2.84513E+04  3.10219E+04  1.69216E+04  2.75677E+04 -4.90018E+03  2.92616E+04
 -2.33394E+04  1.17286E+04 -2.05432E+04 -3.49409E+03  6.54400E+03 -4.69273E+03  2.86898E+04  1.38173E+04
  3.20353E+03  3.23303E+04 -3.76709E+04  3.16050E+04 -6.91549E+04  9.83878E+03 -5.66706E+04 -4.22859E+04
 -8.06307E+03 -6.64802E+04  4.33997E+04 -4.89777E+04  6.32068E+04 -4.67905E+03  3.93671E+04  3.46976E+04
 -1.07123E+04  4.22041E+04 -3.26965E+04  2.01181E+04 -2.84798E+04  3.97021E+03 -2.37059E+04 -8.56925E+03
 -2.28253E+04 -1.99345E+04 -2.04272E+02 -2.61179E+04  1.33210E+04 -2.37967E+04  1.26341E+04 -9.92307E+03
  9.29381E+03  1.86436E+04 -3.82412E+03  9.06982E+03 -3.28814E+04 -3.96696E+03 -6.42977E+03 -4.36437E+04
  2.04930E+04 -4.92021E+04  5.36590E+04 -2.35707E+04  5.24226E+04  2.61325E+04  1.96714E+04  4.49358E+04
 -1.41992E+04  3.59307E+04 -3.16095E+04  2.27041E+03 -1.21640E+04 -2.61425E+04  2.06971E+04 -3.90646E+04
  4.39142E+04 -1.25298E+04  3.26934E+04  2.43998E+04  1.77006E+04  4.35213E+04 -1.24766E+04  5.66009E+04
 -3.61290E+04  3.89064E+04 -5.24177E+04  8.72744E+03 -5.45622E+04 -2.06981E+04 -2.89863E+04 -4.44926E+04
  1.08181E+04 -4.33995E+04  3.59872E+04 -2.64577E+04  3.32404E+04  1.75357E+04  2.23666E+03  1.81315E+04
 -1.34704E+04  1.69341E+04 -1.10366E+04 -2.70156E+03  4.61544E+03 -1.21544E+04  1.61896E+04 -2.44922E+03
  1.03174E+04  2.26703E+04 -2.89484E+03  2.68942E+04 -2.24002E+04  2.28084E+04 -3.44549E+04  1.65386E+03
 -2.44009E+04 -1.81752E+04 -1.55019E+04 -2.28319E+04  6.59497E+03 -3.06411E+04  2.10980E+04 -1.81185E+04
  3.56382E+04 -1.67250E+04  4.34430E+04  2.48304E+03  3.65999E+04  2.77277E+04  1.69966E+02  3.99053E+04
 -1.30004E+04  4.36618E+04 -2.22384E+04  1.04604E+04 -2.06176E+04 -1.10794E+04 -3.61791E+03 -1.72850E+04
 -2.30242E+03 -2.25071E+03 -1.08828E+04  5.23856E+03 -2.35347E+04  6.89353E+03 -2.01302E+04 -9.11660E+03
 -1.61988E+04 -2.68603E+04  4.58712E+03 -3.13184E+04  2.36858E+04 -2.20653E+04  2.76714E+04  5.00723E+03
  1.84455E+04  1.39527E+04 -3.22315E+02  2.45658E+04 -1.41988E+04  1.56739E+04 -2.86887E+04 -1.01956E+04
 -2.19595E+04 -2.33528E+04 -2.63336E+03 -2.39920E+04  1.81429E+04 -2.71596E+04  2.56825E+04 -1.84245E+04
  3.20178E+04  9.00549E+02  2.73365E+04  1.00816E+04  7.82654E+03  2.26300E+03  9.85910E+03  5.64374E+03
  2.53987E+04  4.54990E+03  2.91177E+04  9.36900E+03  1.93144E+04  4.02816E+04 -2.47044E+03  4.75443E+04
 -2.45057E+04  3.62672E+04 -5.03661E+04  2.21927E+04 -5.08419E+04 -4.28012E+03 -4.07849E+04 -2.82388E+04
 -2.54356E+04 -3.63107E+04  1.74872E+04 -3.30911E+04  2.86496E+04 -1.16840E+04  3.02612E+04  5.48898E+03
  5.79422E+03  1.39950E+04 -1.76506E+04  1.86992E+04 -1.86005E+04 -5.06358E+02 -1.14920E+04 -1.27629E+04
 -8.13096E+03 -1.97449E+04  1.12863E+04 -1.99673E+04  1.53953E+04  4.21281E+03  5.06161E+03  4.28271E+03
 -9.52015E+03  4.78457E+03 -5.63628E+03 -3.56599E+03  1.13125E+03 -1.72092E+04  1.05899E+04 -2.26365E+04
  2.74039E+04 -9.33916E+03  3.10476E+04  5.85439E+03  3.00307E+04  2.23523E+04  2.00368E+04  4.02508E+04
 -4.01672E+03  4.07338E+04 -2.56544E+04  1.48954E+04 -3.27074E+04  1.70386E+02 -1.74377E+04 -3.94080E+03
 -5.68927E+03 -5.20917E+03  1.42950E+03 -6.62895E+03 -5.12949E+03  5.39284E+03 -5.21958E+03  4.23558E+03
 -2.30819E+04 -1.28287E+04 -1.53492E+04 -4.77770E+03 -6.90235E+03 -2.84294E+04  7.72842E+03 -1.25001E+04
  1.07608E+04 -8.92642E+03  1.11169E+04  4.65906E+03 -3.78190E+02  9.72784E+03 -7.40027E+03  4.58702E+03
 -9.33667E+03 -5.20021E+03  2.85785E+02 -2.12910E+04  8.90687E+03 -2.08282E+04  2.35688E+04 -1.24474E+04
  2.55643E+04  3.13979E+03  1.36184E+04  1.97204E+04 -1.24766E+03  2.64604E+04 -1.33175E+04  2.03363E+04
 -1.68911E+04  4.84845E+03 -8.11511E+03 -7.01224E+03  8.53086E+03 -2.81696E+03  9.03426E+03 -2.23481E+03
  1.22457E+04  1.32492E+04  9.19000E+02  2.30299E+04 -1.15862E+03  1.18675E+04 -1.33048E+04 -8.66724E+02
 -2.18438E+04 -1.28729E+04 -8.19262E+03 -1.43450E+04  1.02049E+04 -6.20131E+03  9.02931E+03  6.68415E+03
 -2.32076E+03  1.20170E+04 -5.23631E+03  1.35121E+04 -2.24997E+04  8.81992E+03 -1.67024E+04 -8.85173E+03
 -9.41276E+03 -1.74730E+04  5.61638E+03 -2.18941E+04  1.62469E+04 -1.71014E+04  2.26289E+04  5.47661E+03
  1.66243E+04  1.38539E+04  3.36811E+03  2.57689E+04 -1.72922E+04  1.34250E+04 -1.74084E+04 -2.42551E+03
 -1.05162E+04 -1.43047E+04  1.78906E+03 -6.29972E+03  1.18136E+04 -1.28783E+04  1.19753E+04 -5.33525E+03
  9.06357E+03  8.66474E+03  3.66530E+03 -2.46909E+03 -2.73674E+03 -6.52793E+03  7.14590E+03 -9.99693E+03
  1.47351E+04 -1.42453E+03  2.03932E+04  3.78362E+03  2.53767E+04  1.85016E+04  9.79285E+03  2.71968E+04
 -8.54215E+03  2.51231E+04 -2.72361E+04  2.30083E+04 -3.16404E+04 -5.19334E+02 -2.24745E+04 -1.04651E+04
 -1.54042E+04 -2.44375E+04  2.39309E+02 -1.62217E+04  1.56743E+03 -1.04718E+04  1.20578E+04 -1.12049E+03
  2.91348E+03 -8.90913E+03  9.05783E+03 -3.20698E+03  1.08526E+01 -9.02491E+02  4.47422E+03 -4.82769E+03
  1.15921E+04  5.80282E+03  1.39770E+04  1.36937E+04 -6.09993E+03  9.86208E+03 -1.98830E+04  1.82307E+04
 -2.20690E+04  7.59191E+02 -1.57052E+04 -1.85365E+04  2.76692E+03 -2.20627E+04  7.78354E+03 -1.08849E+04
  2.48774E+04 -1.04967E+04  1.89972E+04  4.98393E+03  1.25044E+04  1.70570E+04  8.82831E+03  2.51021E+04
 -1.60003E+04  2.33100E+04 -1.06660E+04  7.76962E+03 -6.44014E+03 -1.16919E+02 -7.06326E+03 -7.36880E+03
 -9.15725E+03  4.88598E+03 -2.97223E+03  3.41082E+03 -5.81051E+03 -8.81921E+02 -1.36855E+04 -7.16143E+03
 -8.28653E+03 -7.00698E+03  2.60127E+03 -1.61139E+04  1.27351E+04 -1.43953E+04  1.72041E+04 -3.42329E+03
  1.22314E+04  1.69818E+04  9.68965E+03  2.07291E+04 -5.78714E+03  1.50258E+04 -2.03603E+04  1.29605E+04
 -1.84266E+04  5.24247E+03 -1.69252E+04 -1.63509E+04 -2.47870E+03 -1.17108E+04  5.79058E+03 -1.69483E+04
  1.25657E+04  1.45187E+03  1.03234E+04  5.69343E+03 -5.84069E+03  1.08742E+04  2.53222E+03  5.04946E+03
 -1.48612E+03  9.34791E+03  1.31613E+03  3.85853E+03  7.84514E+03  4.68381E+03  4.46604E+03  1.26909E+04
  2.64657E+01  2.42010E+04 -1.44247E+04  1.61501E+04 -2.25528E+04  1.06431E+03 -1.49447E+04 -5.55062E+03
 -2.26067E+04 -2.16146E+04  2.34299E+03 -2.06447E+04  1.60877E+04 -1.14041E+04  1.53169E+04 -8.57521E+03
  1.31218E+04  6.73063E+03  3.45715E+03  9.29363E+03  3.27085E+03  8.78568E+03 -8.21167E+03  9.04152E+02
 -1.56914E+03 -3.29521E+03  7.89655E+03 -9.18080E+03  6.17040E+03  9.29713E+01  8.45856E+03 -9.49913E+01
  3.67041E+03  2.14793E+03 -1.64099E+03  5.43645E+03 -8.26162E+03  4.16485E+03  3.17634E+03 -9.01570E+03
  6.61146E+03 -2.34380E+03  6.54468E+03 -2.45812E+03  1.86363E+03  1.37072E+04  3.70210E+03  1.04378E+04
 -1.71172E+04  1.06022E+04 -8.40498E+02  1.09362E+03 -9.81269E+03 -9.82544E+02 -1.86447E+03 -1.34314E+04
 -2.20423E+03 -6.29075E+03  7.66531E+03 -1.35791E+03  3.43729E+03  6.38217E+03 -9.69368E+03  6.37231E+03
 -1.44282E+04  2.77646E+03 -3.52784E+03 -7.90531E+03 -8.89117E+03 -5.81217E+03  1.16475E+04 -1.03057E+04
  4.98495E+03 -2.73336E+03  1.56978E+04 -1.40356E+03  9.62227E+03  5.26435E+03  1.05139E+03  1.03804E+04
 -2.09305E+03  8.51651E+02 -2.32303E+03 -4.86400E+03 -5.66446E+03 -9.04287E+03  1.23274E+04 -6.45677E+03
  1.49069E+04  2.95095E+03  6.55140E+03  7.55935E+03  1.84091E+03  1.11416E+04 -1.28872E+04  1.55350E+04
 -2.16472E+03  1.06789E+04 -2.13711E+04 -1.92863E+03  2.15720E+03 -1.18772E+04  4.54162E+03 -4.83353E+03
  7.45613E+03 -6.44865E+03  9.54188E+03  1.15911E+03  5.66007E+03  1.01198E+04 -6.61238E+02  4.71495E+03
 -4.87712E+03  7.13665E+03 -3.50771E+03 -2.23627E+03  5.35445E+02  4.43773E+03 -1.74267E+03  1.14801E+03
 -1.33594E+04  8.36834E+03 -9.67982E+03 -3.59826E+03 -1.68572E+04  3.62583E+03 -1.84503E+04 -1.15260E+04
 -4.39290E+03 -1.32480E+04  4.77518E+01 -1.98226E+04  1.44520E+04 -1.74859E+04  1.57782E+04  2.40147E+03
  1.95121E+04 -5.88877E+03  1.24565E+04  1.85885E+04 -2.32117E+03  1.27780E+04 -7.06084E+03  1.32718E+04
 -1.43902E+04  1.49286E+03 -8.91790E+02  9.22747E+02 -3.12230E+03 -1.08954E+02 -1.11651E+03 -8.23999E+02
  3.28011E+03 -5.85493E+02 -3.96615E+03 -1.02994E+04  3.05261E+03 -7.85445E+03  1.51613E+03  1.16852E+03
  1.16239E+04  1.26758E+03  1.00083E+04 -2.54692E+03  1.44535E+04  6.08732E+03  3.95750E+03  1.04598E+04
 -7.67699E+03  1.78163E+04 -1.23913E+04  9.31846E+03 -2.32019E+04  1.13647E+03 -1.43915E+04 -1.87439E+04
 -4.36998E+03 -2.39428E+04 -3.03226E+03 -1.42066E+04  4.87544E+01 -9.46380E+03  1.51189E+04 -1.24654E+02
  4.89201E+03 -1.27973E+03 -5.30932E+02 -4.55372E+03  2.02992E+03 -5.40525E+03 -2.47169E+03  1.47891E+03
  6.26358E+03 -7.48604E+03  4.84935E+03 -3.97697E+03  8.51204E+03  9.55139E+03 -1.56011E+03  9.70199E+03
 -3.43316E+03  2.42936E+03 -1.50714E+04  5.85052E+03 -1.48555E+04  4.46989E+03 -7.38137E+03 -1.50677E+04
  5.79851E+03 -1.00984E+04  1.05712E+04  3.01664E+03  5.60552E+03 -2.60470E+02  7.69562E+03  1.00015E+04
  1.27947E+04 -2.96259E+03 -1.04111E+04  4.02690E+03 -3.16019E+03  8.81219E+03  2.05176E+03 -3.58351E+02
 -5.66242E+03 -1.47641E+03  5.84976E+02 -1.17675E+02  5.36977E+03  4.29337E+02 -3.45975E+03 -4.47722E+03
 -1.16242E+04 -1.27556E+04 -4.17414E+03 -1.98987E+04  1.80474E+02 -9.84717E+03  8.78643E+03 -1.02945E+04
  1.04512E+04  8.43728E+03  4.49564E+03  1.14564E+04  1.13567E+03  1.28543E+04 -6.66540E+03  8.74538E+03
