 $NMID ID='MM_0lb_SNR50_16hz_g45_54.RAW', FMTDAT='(8E13.5)'
 TRAMP=1., VOLUME=1. $END
  3.08964E+05 -2.57276E+03  3.33027E+05  2.52943E+05  8.75837E+04  3.35325E+05 -1.33517E+05  2.53410E+05
 -1.96504E+05  8.47092E+04 -1.12981E+05 -3.72414E+04  4.42667E+03 -4.77546E+04  5.01119E+04 -7.89119E+02
  3.11582E+04  4.99550E+04 -2.19588E+04  7.32591E+04 -5.85522E+04  5.99979E+04 -8.20292E+04  3.47513E+04
 -7.29546E+04 -1.36087E+04 -5.61343E+04 -4.95512E+04 -1.48472E+04 -6.95936E+04  3.01813E+04 -4.93709E+04
  4.05090E+04  2.46283E+03  1.09270E+04  4.48156E+04 -3.78394E+04  4.90993E+04 -6.43529E+04 -4.52615E+02
 -4.94188E+04 -5.63193E+04 -1.86787E+03 -7.13233E+04  3.30118E+04 -5.61755E+04  4.55174E+04 -1.83044E+04
  4.18520E+04  1.15063E+04  3.15282E+04  1.94383E+04  1.61014E+04  3.13009E+04 -5.65464E+03  2.50295E+04
 -1.96307E+04  1.37750E+04 -1.80838E+04 -3.44369E+03  1.52664E+03 -7.25336E+03  2.48203E+04  1.18581E+04
  3.21906E+03  2.97576E+04 -2.69649E+04  3.23203E+04 -5.81368E+04  2.17646E+03 -5.53893E+04 -3.89167E+04
 -1.12073E+04 -5.78744E+04  3.65499E+04 -4.75727E+04  5.96389E+04 -3.41929E+03  3.26291E+04  2.78001E+04
 -1.00004E+04  3.31282E+04 -2.91583E+04  1.67115E+04 -2.92309E+04 -7.04698E+03 -1.79764E+04 -1.03709E+04
 -3.98767E+03 -1.40466E+04 -1.39403E+03 -1.55160E+04  7.12639E+03 -2.31188E+04  1.74112E+04 -1.28705E+04
  1.22249E+04 -4.63660E+02 -4.06304E+03  1.32091E+04 -2.15537E+04 -1.48188E+03 -8.09929E+03 -3.27595E+04
  2.34146E+04 -3.96541E+04  4.65761E+04 -2.01510E+04  4.74820E+04  2.00703E+04  1.76592E+04  4.24128E+04
 -1.51849E+04  3.33737E+04 -2.62612E+04  3.06048E+03 -1.11243E+04 -2.83106E+04  2.19004E+04 -3.13927E+04
  3.79147E+04 -6.24082E+03  3.04121E+04  2.14942E+04  1.82838E+04  4.57108E+04 -8.05177E+03  4.81956E+04
 -3.44169E+04  2.98659E+04 -3.78376E+04  7.67205E+03 -3.77703E+04 -1.28082E+04 -2.27417E+04 -3.50549E+04
  7.43903E+03 -3.17313E+04  2.58670E+04 -1.75288E+04  2.65672E+04  1.11878E+04 -6.47659E+02  1.72317E+04
 -1.25599E+04  6.34926E+03 -1.18527E+04 -5.22365E+03  5.46232E+03 -1.08392E+04  2.13564E+04  4.94403E+03
  1.54980E+04  1.59215E+04 -7.15221E+03  2.88908E+04 -1.98059E+04  7.31444E+03 -2.63970E+04 -4.61517E+03
 -1.90765E+04 -1.78524E+04 -6.42588E+03 -2.17133E+04 -4.20389E+02 -1.54293E+04  1.43076E+04 -1.31962E+04
  2.10330E+04 -1.43317E+04  2.83498E+04  1.15741E+02  2.27917E+04  1.99319E+04  3.93535E+03  3.61904E+04
 -1.43031E+04  2.79326E+04 -3.04500E+04  1.72742E+04 -1.95767E+04 -1.21350E+04 -2.79013E+03 -1.27575E+04
  2.23383E+03 -3.43388E+03 -5.00186E+03  2.02204E+03 -1.30686E+04  3.57592E+03 -1.36213E+04 -6.74136E+03
 -9.72255E+03 -2.27181E+04  4.90025E+03 -1.98303E+04  1.35799E+04 -1.77245E+04  1.93798E+04 -5.37279E+03
  6.54072E+03  7.54066E+03  2.12791E+03  1.93929E+04 -9.84267E+03  1.14177E+04 -1.96673E+04 -9.26496E+03
 -1.17234E+04 -1.77629E+04  1.45607E+03 -2.37757E+04  1.33197E+04 -1.31999E+04  2.04321E+04 -1.16804E+04
  1.58292E+04  1.30291E+02  8.82519E+03  7.31662E+03  5.79252E+03 -2.23947E+03  8.30265E+03 -4.53365E+03
  1.78930E+04  5.37208E+03  1.60019E+04  1.82030E+04  1.24715E+04  3.39521E+04 -5.13504E+01  2.98875E+04
 -1.41972E+04  2.71869E+04 -2.72919E+04  1.13970E+04 -3.23377E+04 -4.84223E+03 -2.15895E+04 -1.78956E+04
 -7.43846E+03 -2.45846E+04  6.95951E+03 -1.84445E+04  1.63738E+04 -1.24289E+04  1.56954E+04  3.40731E+03
  3.59528E+03  1.38853E+04 -3.59251E+03  8.49245E+03 -1.51443E+04  6.76611E+03 -1.35090E+04 -8.11833E+03
  1.46597E+03 -1.72427E+04  9.82232E+03 -1.05345E+04  6.81671E+03  1.00824E+03  9.39594E+02  7.26571E+03
 -5.20036E+03  4.66492E+03 -5.33547E+03 -5.36126E+03  2.35767E+03 -9.64017E+03  9.49266E+03 -1.58986E+04
  1.37299E+04 -5.96000E+03  1.48748E+04  3.49092E+03  9.56886E+03  1.29482E+04  4.05212E+03  1.62589E+04
 -9.18182E+02  2.27622E+04 -1.00577E+04  1.44380E+04 -1.59342E+04 -5.05351E+02 -5.00784E+03 -3.88228E+03
 -5.46802E+03 -1.78301E+03  7.32168E+02  2.10928E+02 -4.94898E+02  2.43211E+03 -2.89296E+03  6.81846E+03
 -1.25636E+04  1.85013E+03 -1.23504E+04 -5.91128E+03 -3.16281E+03 -1.04572E+04  5.79608E+03 -1.19857E+04
  1.19221E+04 -8.52203E+03  5.09867E+03  1.95920E+03 -3.44494E+03  3.95647E+03 -3.47432E+03  1.39940E+03
 -5.75120E+03 -5.57528E+03 -3.34218E+03 -9.05788E+03  2.88019E+03 -8.83555E+03  5.68308E+03 -9.37548E+03
  1.40899E+04  2.96056E+03  7.01636E+03  6.32392E+03  7.80171E+02  1.26036E+04 -5.54031E+03  7.30346E+03
 -8.31618E+03  4.57465E+03  9.03202E+01  3.43899E+02  1.56776E+02 -2.52557E+03  4.62941E+03  1.66241E+03
  3.43612E+03  4.17928E+03 -9.37411E+02  1.23759E+04 -7.43233E+03  7.20572E+03 -1.24780E+04  4.35233E+03
 -8.85809E+03 -3.05846E+03  3.41680E+03 -1.02433E+04  6.97004E+03 -3.01168E+03  4.22892E+03  4.15357E+03
 -5.37644E+02  2.44166E+03 -4.63492E+03  9.91161E+03 -9.17902E+03  5.23273E+03 -1.05834E+04  1.17786E+01
 -1.81427E+03 -6.35559E+03  3.60322E+03 -8.96123E+03  5.86918E+03 -8.80215E+03  1.13193E+04  1.74858E+03
  5.95849E+03  8.22871E+03  9.95692E+02  8.34706E+03 -7.43227E+03  6.47886E+03 -6.75125E+03  1.85043E+03
 -8.83388E+03 -4.15556E+03 -4.16577E+03 -8.92855E+03  5.61076E+03 -9.93156E+03  3.26439E+03 -5.45599E+03
  3.15895E+03 -7.50461E+02 -7.41321E+02 -6.46408E+02  3.30303E+03  8.95414E+02  2.80971E+03  3.89622E+02
  4.27855E+03  1.03742E+03  8.15837E+03 -2.87998E+02  3.68290E+03  3.03942E+03  3.94832E+03  1.12530E+04
 -2.25055E+03  1.28011E+04 -8.86453E+03  9.87136E+03 -1.41228E+04 -2.57961E+03 -9.24368E+03 -5.18235E+03
 -6.07567E+03 -1.31416E+04 -2.02703E+03 -9.19922E+03 -1.57081E+03 -2.70090E+03  2.77665E+03 -1.95141E+03
 -1.94113E+03  2.12902E+03  1.12571E+03 -3.38412E+03  1.75496E+03 -3.86993E+03  3.66338E+02 -1.08360E+03
  4.03885E+03  4.66960E+02  2.65389E+03  4.59268E+03 -6.62521E+03  2.32103E+03  5.83521E+02  1.26894E+03
 -2.59610E+03 -2.57434E+03 -7.75199E+02 -3.15436E+03 -1.47395E+02 -8.68985E+03  7.09588E+03 -9.97222E+03
  3.59154E+03 -3.91183E+03  8.12948E+03  2.42345E+03  6.72316E+03  5.04802E+03  6.36839E+02  8.44078E+03
 -3.72643E+03  1.13142E+04 -5.06296E+03  3.71338E+03 -3.09255E+03 -5.54486E+02  1.45541E+03  1.68039E+01
 -1.96101E+02  1.98759E+02 -5.63727E+03  3.77014E+03 -4.86081E+03  4.19566E+03 -1.22209E+03 -3.12629E+03
 -8.46966E+01 -6.77545E+03 -2.98117E+03 -4.95993E+03  5.85473E+03 -5.57557E+03  7.23070E+03 -1.06327E+03
  3.46454E+03  1.97262E+03 -1.58115E+02  2.04983E+03  9.44053E+02  7.44248E+03 -4.59569E+03  9.30126E+03
 -3.86664E+03 -3.07563E+03 -5.24592E+03 -4.07030E+03 -2.11848E+03 -5.65247E+03  2.20998E+03 -3.82264E+03
  5.93535E+03 -1.43663E+03 -3.33800E+02 -6.96404E+02  2.88237E+03  1.98141E+03  7.67398E+02 -1.55390E+03
  5.25082E+03 -2.29890E+03 -3.21276E+02 -1.43459E+03  4.41690E+03  1.96932E+03  1.29087E+03  3.92846E+03
  1.10358E+03  3.00901E+03  1.35637E+03 -1.59841E+03 -4.89112E+03 -3.23654E+03 -3.40319E+03 -9.91521E+02
 -1.62853E+02 -1.11373E+03  6.76253E+02 -2.06879E+03  1.20249E+03 -3.73603E+03  3.90631E+03  1.57118E+02
  7.36471E+03  5.15309E+03 -2.36139E+03 -7.02913E+02 -3.37926E+03  2.96670E+03 -6.35658E+03  2.09175E+03
  3.41780E+03 -5.17376E+02  1.22358E+03 -2.99286E+03 -3.79569E+02 -3.81645E+03 -8.74542E+02  4.37153E+02
  3.58373E+03  6.11389E+02  7.71020E+03 -3.39973E+02 -4.83977E+02  2.64649E+03  1.65620E+03 -4.31405E+03
 -2.41410E+02 -2.48441E+03  4.07896E+02  4.12688E+02  2.42157E+03  5.69493E+03 -3.35703E+03  3.84007E+03
 -2.08556E+03 -3.06445E+03 -6.95154E+03  4.27751E+02 -4.31391E+03 -5.46160E+03 -3.42955E+03 -2.25959E+03
 -2.40645E+03 -5.10878E+03  1.68870E+03  2.70378E+02  6.80869E+02  6.99765E+03 -3.66004E+02  2.46563E+03
 -4.25642E+03 -2.55451E+03 -3.25188E+03  3.90015E+02 -8.84053E+02  5.39447E+03  5.78316E+02  7.46750E+02
  3.00805E+03 -4.55834E+03  3.67404E+03 -4.04261E+03 -5.48894E+02  2.34062E+03 -1.67553E+03  4.38909E+03
 -2.95725E+03  2.16894E+02 -3.79151E+03 -3.06017E+03 -3.58439E+03 -4.03046E+02  3.67197E+02 -1.98029E+03
  5.73691E+03 -3.46768E+03  7.11156E+03  2.88126E+03  5.62868E+03  2.23086E+03  2.11095E+03  3.36258E+03
 -1.29807E+03  2.37844E+03 -1.39465E+02 -5.28523E+02 -2.72048E+03 -2.31712E+03  8.95075E+01  1.11662E+03
  4.46973E+03  1.36138E+03  1.83788E+03 -7.55152E+01 -9.99795E+02  9.73415E+02  2.32805E+03  8.44929E+02
  7.62823E+02  1.13745E+03 -3.94761E+03 -2.05178E+03  1.35708E+03  1.64320E+03 -1.28026E+03  4.00726E+03
 -2.80859E+03  1.82905E+03 -1.47265E+03  1.81285E+03  2.62778E+03 -2.13891E+03 -6.94557E+03  3.90604E+03
 -3.19401E+03 -3.66574E+03 -7.94406E+02 -4.19288E+03  1.82752E+03 -2.52992E+03  1.87860E+03 -2.51698E+03
  1.63869E+03  3.63190E+02  5.08605E+03  2.65809E+03 -2.48210E+03  4.37825E+03 -1.12679E+03  4.08370E+03
 -1.32862E+02  7.38192E+02 -5.10925E+02 -6.94097E+02 -1.19898E+03 -1.31371E+03  4.43034E+02  6.88540E+02
 -1.41955E+02 -2.26673E+03 -1.21846E+03 -1.10803E+03 -1.86713E+02  1.97009E+03 -4.19732E+03  1.58701E+03
  2.15797E+03  3.51939E+03  2.51732E+03  1.57754E+03  2.57750E+03  2.13831E+02  6.19778E+03  3.95183E+03
 -1.21647E+03  5.05682E+03 -3.75600E+03  2.90749E+03 -2.11592E+03  1.35934E+02 -1.92103E+03 -9.10535E+02
 -1.22476E+03 -7.50602E+03  3.28188E+02 -2.17220E+03 -2.21189E+01  3.03507E+03  3.17352E+03 -7.19013E+01
  1.14754E+03  4.32121E+03  1.32189E+03  2.59262E+02  7.90433E+02  9.70602E+02 -2.34854E+02  1.00708E+03
  1.70888E+03  3.48953E+02 -2.32319E+03  1.03632E+03 -1.31312E+03  9.31453E+02  8.72409E+03  8.70974E+02
 -3.61752E+03  1.08909E+03 -2.53930E+03  4.03017E+02  7.83787E+01 -7.51485E+02  1.25650E+03 -1.24689E+03
  3.83094E+03 -3.59519E+03 -1.07947E+03 -6.07048E+02  6.39219E+02 -4.31530E+03  5.50357E+03  1.20975E+03
 -1.53648E+02 -9.41521E+02  4.69208E+00  1.45992E+03 -1.85582E+03 -1.31300E+03  5.65836E+02 -6.20580E+02
 -9.46204E+02 -3.54544E+03 -8.79927E+02  7.20239E+02 -1.46911E+03  1.89557E+02 -2.03390E+03 -7.84003E+02
 -3.07449E+03  1.30983E+03 -5.94986E+00 -2.97765E+03  2.28288E+03  6.93113E+02 -2.31667E+03 -3.64066E+03
 -3.06482E+03  2.22419E+03  4.42411E+03  2.08943E+02 -5.76158E+02  1.00512E+03 -3.55930E+03  6.13523E+03
