 $NMID ID='MM_0lb_SNR50_19hz_g45_92.RAW', FMTDAT='(8E13.5)'
 TRAMP=1., VOLUME=1. $END
  3.06745E+05  1.35221E+03  3.36151E+05  2.51043E+05  8.45029E+04  3.38708E+05 -1.32607E+05  2.53637E+05
 -1.91394E+05  8.47715E+04 -1.13334E+05 -3.37612E+04  2.93470E+02 -5.11140E+04  5.14546E+04 -8.82527E+02
  3.14575E+04  5.30759E+04 -1.67176E+04  7.60820E+04 -6.54154E+04  6.24578E+04 -8.63128E+04  3.28504E+04
 -7.40649E+04 -6.97821E+03 -5.26444E+04 -4.54250E+04 -1.70174E+04 -7.03057E+04  2.51129E+04 -4.80839E+04
  3.73230E+04  5.62416E+03  1.42678E+04  4.74861E+04 -3.23959E+04  4.83300E+04 -6.92804E+04 -5.63053E+02
 -5.00089E+04 -5.68042E+04 -1.08631E+04 -7.66183E+04  3.32661E+04 -5.46583E+04  4.63047E+04 -1.16981E+04
  4.01400E+04  7.78076E+03  2.63444E+04  2.08700E+04  1.74538E+04  2.89882E+04 -4.18098E+03  2.64531E+04
 -1.52992E+04  1.51774E+04 -2.16681E+04 -4.57956E+03  2.16534E+03 -7.19897E+03  2.10147E+04  1.02493E+04
  6.81137E+03  3.35755E+04 -3.03778E+04  3.20780E+04 -6.00489E+04  6.46572E+03 -5.61947E+04 -4.20780E+04
 -1.58133E+04 -6.38163E+04  3.67172E+04 -4.05999E+04  5.55481E+04 -2.41554E+03  2.90682E+04  3.03622E+04
 -4.98542E+03  2.99520E+04 -2.94329E+04  1.16010E+04 -2.71760E+04 -2.82971E+03 -1.42287E+04 -1.13164E+04
 -8.20265E+03 -9.97864E+03 -1.74873E+03 -1.72935E+04  8.92456E+03 -2.28581E+04  1.55469E+04 -1.41597E+04
  9.71817E+03  5.23429E+03 -1.16210E+04  1.38159E+04 -1.55867E+04 -1.57764E+03 -1.00754E+04 -2.99684E+04
  2.16774E+04 -4.03705E+04  4.76713E+04 -1.57614E+04  4.30548E+04  2.06988E+04  1.55085E+04  3.90731E+04
 -1.44876E+04  2.88772E+04 -2.12076E+04  3.24053E+03 -4.53338E+03 -2.68246E+04  2.13834E+04 -2.75190E+04
  3.98408E+04 -5.70965E+03  2.99184E+04  1.80524E+04  1.65204E+04  3.77876E+04 -4.49767E+03  4.52533E+04
 -2.40936E+04  3.36968E+04 -3.52084E+04  7.42586E+03 -3.70008E+04 -1.66145E+04 -2.11083E+04 -3.33014E+04
  1.02075E+04 -3.40830E+04  2.95542E+04 -1.25627E+04  2.71431E+04  1.25171E+04  2.94553E+03  1.83562E+04
 -1.21591E+04  9.21790E+03 -1.16051E+04 -4.84359E+03  8.38268E+03 -5.62389E+03  1.76390E+04  6.80578E+03
  1.06087E+04  2.01454E+04 -2.64934E+03  2.50099E+04 -1.95596E+04  1.05891E+04 -2.60316E+04 -2.38149E+03
 -1.69400E+04 -1.68919E+04 -4.03891E+03 -1.14986E+04  3.80900E+03 -1.11101E+04  9.47628E+03 -1.48856E+04
  2.20144E+04 -1.20975E+04  2.82021E+04  1.02811E+03  1.94081E+04  1.64961E+04  3.70228E+03  2.46312E+04
 -1.70620E+04  2.33992E+04 -2.53464E+04  1.21262E+04 -2.12991E+04 -1.14146E+04 -7.07508E+03 -1.10105E+04
  1.34074E+03 -1.74899E+03 -3.73526E+02  3.63561E+03 -9.48845E+03  7.20930E+03 -1.49234E+04 -5.98665E+03
 -8.96475E+03 -1.31667E+04  7.66973E+02 -1.98212E+04  1.22309E+04 -1.44459E+04  9.46865E+03 -1.40922E+03
  1.11485E+04  8.27744E+03 -2.01859E+03  1.33001E+04 -4.51179E+03  1.19256E+04 -1.82639E+04 -3.28807E+03
 -9.69647E+03 -1.29756E+04 -2.14466E+03 -1.77783E+04  4.37707E+03 -1.61876E+04  1.30213E+04 -9.17875E+03
  1.26218E+04 -3.69778E+03  5.56071E+03  2.43586E+03  6.07138E+03 -1.04545E+02  1.03613E+04 -2.54924E+02
  2.29209E+04  1.34924E+03  1.36938E+04  1.28563E+04  5.93045E+03  2.18238E+04 -2.43183E+03  2.69286E+04
 -1.79284E+04  1.73092E+04 -2.29107E+04  6.60028E+03 -2.17625E+04 -1.03775E+03 -2.20067E+04 -1.37854E+04
 -1.24540E+04 -1.71630E+04  5.40130E+03 -1.73460E+04  1.79420E+04 -1.00993E+04  1.58704E+04  5.32140E+03
  7.35433E+03  1.01783E+04 -8.67899E+03  1.32496E+04 -1.13582E+04  6.85123E+03 -7.29622E+03 -9.20153E+03
  3.04938E+02 -1.08356E+04  7.49490E+03 -1.00609E+04  1.46234E+04 -2.16397E+03  7.09301E+02  9.05254E+03
 -4.12552E+03  7.30471E+03 -4.03563E+03 -2.16613E+03 -9.49808E+01 -1.40819E+04  9.92529E+03 -9.94430E+03
  8.93423E+03 -1.63233E+03  1.35144E+04  6.07069E+03  6.85281E+03  8.36068E+03  5.96097E+03  1.65197E+04
  7.31644E+01  1.36108E+04 -8.61750E+03  1.21908E+04 -8.32137E+03  4.65002E+03 -5.85653E+03  8.26205E+02
 -4.87371E+03 -5.43136E+03 -7.66071E+02  2.39541E+03 -5.03498E+02  4.91977E+03 -5.28733E+03  4.16426E+03
 -6.05985E+03  2.78954E+03 -8.40570E+03 -5.38439E+03 -4.82155E+03 -1.21891E+04  3.85831E+03 -7.45603E+03
  4.07234E+03 -2.99686E+03  2.59669E+03  2.57898E+02 -9.10918E+02  4.04479E+03 -2.62785E+03 -4.89603E+02
 -1.06078E+03 -4.84859E+03  6.51682E+00 -9.53588E+03  7.38791E+02 -4.35064E+03  7.28645E+03 -9.52168E+03
  8.88181E+03  2.01296E+03  5.09084E+03  7.22201E+03  5.40400E+03  5.42832E+03 -5.15776E+03  7.36653E+03
 -4.65079E+03  2.67749E+03 -3.67438E+03 -2.08580E+03 -2.04564E+02 -4.47631E+03  3.15515E+03  2.24236E+03
  4.71005E+03  1.22859E+03  9.65553E+01  6.49729E+03 -5.73496E+03  4.34753E+03 -7.99820E+03 -1.01772E+02
 -1.35991E+03 -2.47204E+03  1.56606E+03 -2.73608E+03  8.18328E+03 -8.14744E+03  6.76580E+03  4.71020E+03
 -1.47958E+03  2.84688E+03 -3.17218E+03  5.81457E+03 -6.16403E+03  6.58860E+03 -1.46923E+03 -1.80447E+03
 -1.33437E+02 -5.84049E+03 -5.31109E+01 -5.41845E+03  5.32299E+03 -7.18130E+03  4.32598E+03  2.88101E+03
  9.82129E+03  5.69403E+02  1.52935E+03  7.05892E+03 -6.54057E+03  3.60784E+03 -4.23051E+03 -7.38612E+02
 -7.35869E+03 -6.24244E+03 -2.31992E+03 -1.86740E+03  4.00186E+03 -7.89488E+03  2.31623E+03 -2.62624E+03
  1.15237E+03  1.57257E+03 -3.89789E+03  3.04970E+03  8.14440E+02 -4.72001E+02  8.50259E+02 -4.32770E+03
  2.66782E+03 -2.71138E+03  7.96805E+03  6.27678E+02  4.34991E+03  8.18683E+03  5.58091E+03  7.04411E+03
 -3.79628E+03  8.26760E+03 -3.82409E+03  6.09952E+03 -1.09916E+04  1.24023E+03 -6.76298E+03  3.25463E+02
 -3.51878E+03 -6.58257E+03 -7.77313E+01 -4.11988E+03  1.11040E+03 -1.12902E+03  3.50450E+03  2.13261E+03
 -2.18532E+03 -2.64571E+03 -2.17130E+03 -1.33463E+03  5.31606E+03 -1.45259E+03  3.49418E+03  4.81746E+01
  6.62340E+03 -2.16273E+02  2.96689E+03  7.38109E+03  2.14175E+03 -3.15212E+02 -1.93616E+03  2.80031E+03
 -3.01829E+03 -3.39358E+03  2.12342E+03 -4.04248E+03 -2.84834E+02 -4.50076E+03  7.91787E+03 -3.59881E+03
  3.54456E+03 -5.10334E+03  8.63041E+03  4.39107E+03  6.17381E+03  5.84600E+03  3.42508E+03  5.79923E+03
 -2.08155E+03  7.26420E+03  1.29957E+03  2.67285E+03 -3.18376E+03 -1.36119E+03  1.36195E+03 -3.82745E+03
 -2.22322E+03  2.76877E+03 -2.15306E+03  4.08379E+03  2.52779E+02  9.71577E+02 -6.19659E+03  1.09519E+03
 -2.13212E+03 -3.23786E+03  1.62006E+03 -1.10144E+03  1.16018E+03 -5.15091E+03  2.45184E+03  7.75119E+02
  4.15474E+03  3.06676E+03  3.33171E+03  6.99989E+03  2.21087E+03  3.35874E+03 -2.79882E+03  2.15279E+03
 -7.89111E+02  3.55821E+03 -2.96630E+03  4.16435E+03 -2.45825E+02  2.44714E+01 -2.60781E+03 -2.95996E+03
  2.55727E+03  1.72250E+03 -3.01540E+03  1.01658E+03  7.88787E+01 -7.50593E+02  2.45064E+03 -8.12612E+02
  6.77552E+03  9.12388E+02  1.62260E+03  1.91225E+03 -2.69686E+03  7.70422E+02  9.49915E+02  5.59780E+03
 -4.32774E+03  9.13722E+02 -5.60045E+03  7.29230E+03 -4.59663E+03 -3.71131E+03 -6.61718E+03 -4.17267E+02
  1.84224E+03 -4.79225E+03  2.36580E+03 -4.74656E+03  4.26526E+03  3.36483E+02  4.50785E+03  6.25727E+01
  1.53233E+03 -3.70460E+02  3.79198E+01  3.18240E+03  2.84043E+03 -9.85270E+02 -2.54992E+03  1.80042E+03
  9.99120E+02 -2.99330E+03  2.91303E+03 -1.95057E+03  1.65065E+03 -5.17040E+03  1.87802E+03 -9.78600E+02
  3.13529E+03  1.26787E+03  7.46382E+02 -3.78683E+03  1.45353E+03  1.13839E+03  6.43717E+02  2.26239E+03
  3.47645E+03  2.67777E+02  4.60891E+03  1.86597E+03 -2.72651E+02 -3.75861E+03  1.37154E+03  1.66329E+03
 -3.20526E+03 -2.16446E+03 -2.77718E+03 -1.02872E+03 -3.68246E+03 -1.74887E+03  3.10647E+02 -2.10180E+03
  2.20846E+03 -1.73232E+03  3.41577E+03  1.99521E+02 -6.75439E+02  2.21981E+03  9.36901E+02  2.47153E+03
  1.75473E+03 -7.89163E+02 -1.26809E+03  3.46251E+02  9.76957E+02 -8.07204E+02 -2.36540E+03 -1.34933E+03
 -8.51474E+02 -6.52540E+02 -2.72051E+02 -1.86140E+03 -2.17794E+03  3.52079E+03 -2.98600E+02  7.15769E+02
 -1.48010E+03  1.89746E+03 -2.42983E+03  2.24764E+03 -2.73357E+03  2.41065E+03  4.22482E+03 -2.91209E+03
  6.74413E+03 -3.75203E+03  8.84215E+02  5.27103E+03 -1.53620E+03  9.99255E+02 -2.11549E+03 -3.01625E+03
 -1.38418E+03  5.63976E+02  1.81322E+03 -3.74779E+03 -1.56689E+03 -4.49809E+02 -1.56308E+03 -2.07013E+02
  2.20612E+03  4.09803E+03  2.06958E+03  1.34917E+03  7.41597E+02  2.61667E+03  3.24450E+02 -2.19522E+02
 -2.95242E+03  7.59265E+02  2.83445E+03  4.34539E+03  2.77239E+03  5.25096E+02 -3.41555E+02 -2.57815E+02
 -2.50779E+03  1.25578E+03 -3.89264E+03  1.53713E+03 -3.06344E+03 -1.46626E+03 -1.75832E+03 -1.99511E+03
  1.97584E+03 -5.92013E+03  5.28451E+00 -3.60735E+03  4.04116E+03 -1.60231E+03  4.05722E+03  4.48158E+03
 -9.13160E+02  1.03022E+03  1.18159E+03 -8.03777E+02  1.68255E+03  7.82239E+02 -1.82537E+03 -3.51563E+03
  3.24735E+03  5.20285E+01 -3.02291E+02 -1.00261E+03 -3.74215E+02 -1.34902E+03  1.17374E+03  2.96129E+03
 -1.82378E+02 -6.39256E+02 -1.43576E+03  3.33541E+03 -3.92334E+03 -8.56366E+02  3.05869E+03 -3.63813E+01
 -1.57984E+03 -3.98655E+03 -2.09484E+03  3.18850E+03  2.74592E+03  1.55854E+03  1.91131E+03  9.31637E+02
  2.53292E+02  2.47658E+03 -6.76232E+02  3.97745E+03 -4.41991E+03  4.57303E+03 -1.76698E+03 -1.01405E+03
 -2.20472E+03 -4.75479E+03 -1.11034E+03 -1.67634E+03  1.31102E+03  3.32891E+03  2.10324E+02  7.85454E+01
  3.30622E+02  1.93832E+03  9.26090E+02  3.26205E+03  4.63185E+03  3.92411E+03 -1.47919E+03  4.14741E+03
  3.20993E+03  2.96720E+03  1.76812E+03  6.88643E+02 -2.50013E+03 -4.49023E+03  1.14278E+03  1.76711E+03
 -1.77099E+03  9.21011E+02 -3.89491E+02  1.06421E+03 -2.83906E+03  1.81140E+01  6.63570E+02  9.36006E+02
  1.24618E+03 -2.44210E+02  1.86942E+03 -2.25083E+03 -2.07364E+03 -2.06686E+03 -2.38855E+03  1.12475E+03
 -3.39878E+03 -3.79856E+02  3.09068E+02  1.84489E+03 -1.26928E+02  7.90687E+02  5.53057E+02  3.25026E+03
 -1.44047E+03  1.66518E+03 -8.54777E+02 -4.32727E+00  2.15555E+03  2.10187E+03 -1.09989E+03 -8.91563E+02
 -1.20540E+03  3.69241E+03 -4.19616E+03  1.31566E+03 -1.00748E+03  1.42416E+03  1.67642E+03 -6.96972E+02
 -1.55102E+03  1.15887E+03 -4.81334E+03  2.04047E+03 -6.72228E+02  1.13414E+03 -1.27393E+03  4.10604E+02
