 $NMID ID='MM_0lb_SNR50_20hz_g45_82.RAW', FMTDAT='(8E13.5)'
 TRAMP=1., VOLUME=1. $END
  3.12992E+05  1.12142E+03  3.36337E+05  2.53737E+05  8.28933E+04  3.41130E+05 -1.27769E+05  2.48493E+05
 -1.93109E+05  8.42796E+04 -1.10716E+05 -3.09873E+04 -4.42902E+01 -4.88158E+04  5.56094E+04  4.64076E+03
  3.46624E+04  5.17121E+04 -1.11814E+04  7.53159E+04 -5.95843E+04  6.10989E+04 -7.93361E+04  3.53460E+04
 -7.91389E+04 -1.34239E+04 -5.71529E+04 -5.13738E+04 -1.61468E+04 -6.68515E+04  3.20934E+04 -4.39871E+04
  3.98514E+04  4.00355E+03  1.33338E+04  4.73462E+04 -3.58417E+04  4.58798E+04 -6.34009E+04 -2.73790E+03
 -4.92425E+04 -5.72460E+04 -4.00518E+03 -7.28806E+04  2.88450E+04 -5.49180E+04  4.42865E+04 -1.13675E+04
  4.10854E+04  1.12548E+04  2.97090E+04  2.51221E+04  1.35401E+04  2.78936E+04 -8.62583E+03  2.73205E+04
 -2.12395E+04  1.18433E+04 -1.69761E+04 -2.60487E+03  3.64316E+03 -7.40749E+03  2.25382E+04  1.25401E+04
  1.08374E+04  3.31021E+04 -2.86547E+04  3.53976E+04 -5.97656E+04 -1.58940E+02 -5.63174E+04 -4.20351E+04
 -9.47645E+03 -5.72449E+04  3.81379E+04 -3.77261E+04  5.62890E+04  4.22815E+02  3.13130E+04  3.11315E+04
 -8.39327E+03  3.50613E+04 -2.93990E+04  1.43018E+04 -3.07537E+04 -4.82672E+03 -1.47236E+04 -9.57153E+03
 -5.88406E+03 -9.79459E+03 -3.87678E+03 -1.49597E+04  6.45654E+03 -1.88027E+04  1.39607E+04 -1.57160E+04
  1.13449E+04  1.72392E+03 -4.32432E+03  1.28051E+04 -2.01283E+04 -1.19869E+02 -4.60168E+03 -3.16737E+04
  2.18708E+04 -3.65356E+04  4.45393E+04 -2.28402E+04  4.14084E+04  1.85625E+04  1.57925E+04  4.13059E+04
 -1.83521E+04  2.81081E+04 -2.45263E+04 -1.85311E+03 -5.95298E+03 -2.84881E+04  1.61675E+04 -3.01342E+04
  4.02537E+04 -8.11873E+03  2.94972E+04  2.22064E+04  1.42800E+04  4.00012E+04 -1.15497E+04  4.44857E+04
 -2.39104E+04  2.83773E+04 -3.39002E+04  8.81639E+03 -3.59402E+04 -1.55562E+04 -2.23671E+04 -3.38502E+04
  2.99412E+03 -2.80356E+04  2.84841E+04 -8.37423E+03  2.90025E+04  1.40065E+04  5.23598E+03  1.95339E+04
 -1.65248E+04  7.72241E+03 -9.47456E+03 -8.64346E+03  4.17506E+03 -1.31818E+04  1.73980E+04  8.79346E+03
  7.58381E+03  2.46645E+04 -8.08966E+03  2.57092E+04 -2.15261E+04  5.15892E+03 -2.17552E+04 -5.98819E+03
 -9.45248E+03 -1.65795E+04 -6.02671E+03 -1.84717E+04  3.68536E+03 -1.82837E+04  8.36776E+03 -1.49719E+04
  1.81294E+04 -1.02811E+04  2.08029E+04 -7.41189E+02  2.17413E+04  1.60605E+04  7.69788E+02  3.10818E+04
 -1.78538E+04  2.77726E+04 -2.58646E+04  7.73995E+03 -1.74919E+04 -1.52835E+04 -7.01095E+03 -1.39400E+04
  1.67693E+03 -2.81124E+03 -1.74987E+03  3.51938E+03 -1.09905E+04  6.65812E+03 -1.15146E+04 -5.14864E+03
 -1.19325E+04 -1.12847E+04  5.17495E+01 -1.94582E+04  1.50660E+04 -1.35810E+04  1.10803E+04 -2.00844E+03
  1.01158E+04  6.19754E+03 -1.98263E+03  1.58605E+04 -1.03778E+04  4.71323E+03 -1.62934E+04 -5.96983E+03
 -1.26474E+04 -1.26372E+04 -3.40622E+03 -1.66257E+04  1.11992E+04 -1.02384E+04  1.58394E+04 -6.67777E+03
  1.38147E+04  2.33842E+03  9.73608E+03  5.41553E+03  8.51675E+03  8.07007E+02  6.67227E+03 -3.78940E+03
  1.04014E+04  2.53087E+03  1.41490E+04  1.35501E+04  7.75983E+03  2.43085E+04 -2.45676E+03  2.17407E+04
 -1.84396E+04  1.71941E+04 -1.82938E+04  8.33383E+03 -1.90168E+04 -1.76996E+03 -1.93277E+04 -1.58903E+04
 -1.13231E+04 -1.88585E+04  9.43924E+03 -1.70456E+04  1.68137E+04 -1.27498E+04  1.40460E+04 -4.87943E+02
  5.40870E+03  8.37611E+03 -5.26577E+02  8.62832E+03 -1.48920E+04  4.59417E+03 -1.23549E+04 -6.67860E+03
 -2.40385E+03 -1.15521E+04  2.00373E+03 -6.81146E+03  6.40524E+03 -1.16561E+03  2.21047E+03  3.42213E+03
 -8.92565E+03  5.03469E+02  2.67837E+02 -3.41118E+03  1.98564E+03 -9.37463E+03  7.38245E+03 -7.50116E+03
  1.60333E+04 -6.88829E+03  7.41876E+03  4.49641E+03  7.12298E+03  9.54996E+03  1.01066E+04  9.09821E+03
 -1.90706E+03  1.25873E+04 -6.68632E+03  7.96545E+03 -9.44973E+03  2.79849E+03 -7.84890E+03  5.17384E+02
 -1.79059E+03 -5.08387E+03  6.50738E+02 -2.54997E+03 -3.21249E+03  7.37736E+02 -2.48830E+02  3.75005E+02
 -5.74496E+03 -2.90704E+03 -6.65525E+03 -8.19417E+03 -4.92761E+03 -1.04234E+04  1.71830E+03 -8.80107E+03
  7.61454E+03 -4.19206E+03  2.83817E+03 -2.85783E+03  3.47574E+02  1.58980E+03 -6.57655E+03  1.89568E+03
 -4.90960E+03 -4.61824E+03 -9.70704E+02 -6.36641E+03  2.42823E+03 -8.68734E+03  5.49532E+03 -3.38092E+03
  1.11559E+04 -1.97339E+03  1.01672E+04  6.33936E+03 -3.76327E+03  1.07545E+04 -5.51759E+03  7.80353E+03
 -8.09293E+03  1.95873E+03 -4.94205E+03  1.87007E+03 -5.11200E+03 -1.25422E+03  2.06985E+03 -7.28684E+03
  6.04404E+03  3.88062E+03 -5.06855E+02  8.13386E+03 -6.93921E+03  6.11272E+03 -9.41481E+03 -1.56116E+02
 -2.94465E+03 -1.62933E+03 -2.76080E+03 -5.50862E+03  3.84456E+03 -3.97927E+03  4.27580E+03 -3.10054E+03
  1.55362E+02 -2.05854E+03 -4.32360E+03  3.84907E+03 -3.66453E+03  2.56744E+02 -6.15649E+03  2.48531E+03
 -3.59029E+03 -7.39945E+03  4.46528E+03 -8.73702E+03  6.17195E+03 -6.30892E+03  7.04665E+03  1.12773E+03
  5.26742E+03  2.39062E+03  6.77489E+02  9.00113E+03 -2.62416E+03  3.92245E+03 -1.56201E+03 -4.20207E+03
 -4.87682E+03 -1.53922E+03 -4.67935E+03 -5.82019E+03 -1.58570E+03 -2.99413E+03  2.24667E+03 -5.37501E+03
 -2.22783E+03  2.51771E+03  1.76566E+03  2.10054E+03  7.59941E+02  7.20546E+02 -1.13726E+03 -3.57349E+03
  4.44176E+03  1.34092E+02  6.10289E+03  3.84207E+03  6.44943E+03  3.76007E+03  2.67395E+03  4.87311E+03
 -3.87761E+03  6.95278E+03 -4.09758E+03  6.67359E+03 -6.66533E+03 -1.56342E+02 -4.32302E+03  9.19728E+02
 -5.96357E+03 -2.95145E+03 -5.49389E+03 -1.00593E+03 -1.83069E+03 -1.10238E+03 -5.25187E+02 -2.22401E+03
  1.94193E+03 -1.53437E+03  2.48672E+02  2.18252E+02  6.45833E+03 -2.52405E+03 -1.12590E+02 -4.73290E+02
  5.28570E+03 -8.89710E+02 -1.91058E+03  4.49036E+03 -1.82833E+03  3.93740E+03 -3.37997E+03  1.68606E+03
 -3.36895E+03  7.91147E+02 -1.44041E+02 -5.02306E+03  2.02020E+02 -5.78699E+03  6.84343E+02 -1.42904E+03
  4.71232E+03 -1.04947E+03  8.61887E+03 -2.88549E+03  1.26369E+03  6.08099E+03  4.27389E+03  4.80665E+03
 -7.30233E+02  2.39464E+03 -3.28434E+03 -5.60523E+02 -2.17696E+03 -1.94989E+03  1.80843E+03  2.00848E+03
 -3.88353E+03  1.98806E+03  3.24428E+03  7.28339E+02 -1.21000E+03  1.40583E+03 -1.08800E+04 -7.23443E+02
  9.96406E+01  8.01874E+02  2.69560E+03 -3.21391E+03  4.51247E+03  2.48499E+03  7.80324E+02 -1.82935E+03
  4.35032E+02  3.49720E+03  6.48047E+03  2.49572E+03 -4.46641E+03  7.82470E+03 -9.39871E+02 -2.30083E+02
 -6.50302E+03 -2.04817E+03 -1.19906E+03 -5.58281E+03  1.64442E+03 -9.99388E+02  7.03104E+03 -1.18351E+03
  2.05681E+03 -4.74890E+03  2.42839E+03  3.83716E+03  2.76241E+03  2.76255E+03  1.39370E+03 -8.31597E+02
 -7.13886E+02  4.19128E+03  1.60698E+03 -8.49113E+02  2.99188E+03  7.62971E+02  4.94776E+03  9.48987E+02
 -6.10227E+03  1.70309E+03 -1.33148E+03  4.89020E+03 -2.60315E+03  4.61489E+03 -3.34701E+03 -1.98017E+03
  1.24460E+03 -3.10258E+03 -7.47044E+01 -1.30838E+03  2.52589E+03 -1.71195E+03 -9.65847E+02  1.11100E+03
  2.52177E+03  2.87057E+03  3.23935E+03  1.16667E+03 -7.90050E+02  1.83714E+03 -6.71399E+02  1.80774E+02
 -1.84277E+03  2.89929E+03  2.60943E+02  2.26224E+03  3.20501E+02  2.27132E+02  3.71700E+03 -7.54039E+02
  7.76621E+02 -1.19568E+03  3.42654E+03 -5.67932E+01 -1.27887E+03  1.93180E+03  1.36135E+03 -1.17458E+03
 -4.94937E+02  9.16659E+02 -5.42441E+02  2.40677E+03  1.59174E+03  1.44661E+03  2.78885E+03 -2.28783E+03
 -3.18590E+03 -5.74531E+02  5.13976E+02 -4.55326E+03  1.53445E+03 -3.44365E+03 -2.14602E+03  4.24562E+03
  2.89015E+03 -1.56599E+03  5.04576E+02 -7.07243E+02 -8.87253E+00  1.48699E+03 -8.31364E+02  8.99382E+02
 -2.38997E+03  2.27943E+03  3.19935E+03 -2.70069E+03 -1.20473E+03 -5.00357E+02  6.67770E+02 -1.18683E+03
 -3.31535E+03 -2.70319E+03 -7.82743E+02 -4.53718E+02  1.45870E+03  2.75045E+03 -1.14802E+03 -1.39243E+03
 -1.00315E+03  2.58355E+02  3.41870E+02  3.69695E+03  1.36837E+03 -4.76821E+03 -3.23534E+02 -6.33273E+02
 -8.58586E+01  6.56714E+02  5.09595E+03 -1.46187E+03  4.72258E+03  5.21336E+03 -9.11737E+02  1.01045E+02
 -1.42571E+03 -7.83400E+02 -4.48274E+03 -2.98459E+02  1.17378E+03 -1.58097E+03 -3.12649E+03 -8.28426E+02
 -8.30497E+02  5.31272E+02  4.67089E+03  4.15029E+03 -2.44273E+02  6.78780E+02  2.24092E+03  2.00122E+03
  1.63541E+03  2.45119E+02 -4.05997E+03  2.76605E+02 -2.68148E+03 -5.22162E+03 -2.94733E+03 -4.49937E+01
 -2.37413E+03  1.89633E+03 -3.52446E+03  2.74874E+03 -1.34283E+03  3.03199E+02 -1.67955E+03 -2.67082E+03
 -5.28634E+02 -3.56294E+03 -1.37883E+03 -4.82071E+03 -1.02569E+03 -1.13302E+03  3.46179E+03  1.80577E+03
  3.27374E+02 -2.77539E+03  1.81121E+03  1.25681E+03 -3.17990E+03  5.11624E+03  2.53255E+03  3.14818E+03
  1.05295E+03  1.50883E+03  3.30551E+03  3.63609E+03 -1.88523E+03 -1.08187E+03 -3.19250E+03 -4.29332E+02
 -1.75918E+03  9.58882E+02 -4.46625E+03  4.51541E+03  6.43009E+02 -1.66169E+03 -1.40742E+03 -1.52872E+03
  3.10119E+02 -1.03881E+02 -6.17287E+03  4.68571E+02  1.22947E+02  1.02491E+03 -2.07183E+03  1.37256E+03
 -4.42969E+03  5.63777E+03 -5.57022E+02  2.36572E+03  1.09735E+03 -1.36917E+02  1.57976E+02  5.07496E+01
  3.19872E+03  3.05445E+02 -8.21475E+02  1.50247E+03  4.10112E+03 -3.46482E+02  1.26780E+02  3.93970E+02
 -5.61366E+03  2.28687E+03 -7.95709E+01  1.92030E+03  1.26694E+03 -2.53967E+03 -4.73148E+02  1.74068E+03
  2.03992E+03 -1.89352E+03  3.18461E+03 -1.11510E+03 -1.55635E+03 -1.71170E+03 -4.69420E+03  5.60499E+03
  6.85656E+02 -7.68134E+02  2.27481E+02 -4.61097E+02 -2.46156E+03  1.94484E+03  2.66515E+03 -3.34807E+03
  2.28986E+03  1.38354E+03  1.06904E+03 -1.27255E+03  2.01790E+03 -1.73561E+03  3.68086E+03  1.12778E+03
 -7.32552E+02 -1.47684E+03  1.36432E+03 -3.74141E+03  1.26664E+03 -1.35351E+01 -1.13013E+03  7.66471E+02
  1.59496E+03  2.73225E+03 -7.94280E+02  2.06598E+03  4.05475E+03  1.08580E+02 -1.48176E+03 -2.88404E+03
 -3.75372E+03 -1.16086E+03  1.04164E+02  1.97942E+03 -1.39270E+02 -2.11432E+03 -2.45715E+03 -8.67869E+02
 -1.17131E+03  2.36459E+03  1.12258E+03  4.23288E+03  1.41346E+03  7.80744E+02 -1.16274E+03  2.82105E+03
