 $NMID ID='MM_0lb_SNR50_14hz_g50_78.RAW', FMTDAT='(8E13.5)'
 TRAMP=1., VOLUME=1. $END
  3.11665E+05 -7.72425E+02  3.40214E+05  2.53803E+05  8.89365E+04  3.36611E+05 -1.32343E+05  2.49953E+05
 -1.91478E+05  8.49490E+04 -1.16004E+05 -3.34362E+04  4.82894E+03 -4.99915E+04  5.20471E+04  5.24257E+03
  3.58140E+04  5.29801E+04 -1.44452E+04  7.87517E+04 -5.57475E+04  6.15949E+04 -8.66634E+04  3.58402E+04
 -8.24014E+04 -1.13781E+04 -6.01741E+04 -5.52567E+04 -1.71530E+04 -6.73380E+04  2.58061E+04 -4.67172E+04
  3.74621E+04  9.39352E+03  1.75070E+04  4.61293E+04 -3.74101E+04  4.98853E+04 -6.61523E+04  1.07575E+03
 -5.88714E+04 -5.22249E+04 -8.08964E+03 -7.11918E+04  3.91356E+04 -5.52787E+04  4.91810E+04 -1.60943E+04
  4.36733E+04  1.27629E+04  3.36691E+04  2.67194E+04  1.82317E+04  3.03836E+04 -5.97821E+03  2.63122E+04
 -1.97990E+04  1.25224E+04 -1.76906E+04 -4.31810E+03  4.06319E+03 -9.36014E+03  2.16552E+04  1.43586E+04
  1.22794E+04  3.69488E+04 -3.14810E+04  3.15914E+04 -6.38452E+04  2.70215E+03 -5.75930E+04 -4.00209E+04
 -1.34310E+04 -6.06374E+04  3.65403E+04 -4.42238E+04  5.96943E+04 -3.51733E+03  3.33250E+04  3.18864E+04
 -9.44370E+03  3.72878E+04 -3.03822E+04  1.60200E+04 -3.21456E+04 -7.74552E+03 -1.57305E+04 -1.09151E+04
 -8.83476E+03 -1.46563E+04  2.48871E+03 -1.60767E+04  9.15742E+03 -2.74368E+04  1.31914E+04 -1.16930E+04
  1.29780E+04  9.13069E+03 -1.19954E+04  1.76709E+04 -2.26636E+04 -3.71321E+03 -1.07702E+04 -3.41757E+04
  1.78064E+04 -4.52493E+04  4.42701E+04 -2.39282E+04  4.40808E+04  1.80250E+04  1.15081E+04  4.63733E+04
 -1.75194E+04  3.77052E+04 -2.20216E+04 -2.35228E+03 -6.95893E+03 -2.86891E+04  1.54719E+04 -3.59761E+04
  4.33271E+04 -7.86322E+03  3.23453E+04  2.06097E+04  2.11341E+04  5.11630E+04 -7.79924E+03  4.87373E+04
 -3.45438E+04  3.32756E+04 -3.99814E+04  8.40383E+03 -4.46272E+04 -1.67712E+04 -2.10236E+04 -4.31860E+04
  3.31919E+03 -3.73627E+04  3.15618E+04 -1.33320E+04  2.86279E+04  1.69480E+04 -2.03987E+03  2.00242E+04
 -1.37771E+04  1.11309E+04 -9.01857E+03 -8.96438E+03  8.52225E+03 -1.53678E+04  2.53456E+04  5.17438E+03
  1.29943E+04  2.17787E+04 -4.87368E+03  2.30667E+04 -2.23939E+04  1.19276E+04 -2.37097E+04 -4.20761E+03
 -1.79979E+04 -1.52040E+04 -1.04403E+04 -1.75359E+04  4.63990E+03 -1.87356E+04  1.95277E+04 -1.78843E+04
  2.63834E+04 -1.67674E+04  3.13850E+04  3.18826E+03  2.47844E+04  2.04478E+04  6.42732E+03  3.64755E+04
 -2.06644E+04  2.76166E+04 -2.85605E+04  1.05268E+04 -2.17871E+04 -9.90805E+03 -2.63578E+03 -1.67857E+04
  4.13220E+03 -2.21607E+01 -3.56119E+03  1.60495E+04 -1.42514E+04  8.33420E+03 -2.16650E+04 -3.62681E+03
 -8.22023E+03 -1.58723E+04  7.30047E+03 -1.91942E+04  1.49362E+04 -1.52282E+04  1.88482E+04 -7.13830E+03
  8.81458E+03  1.75850E+04  1.06967E+02  1.83125E+04 -1.03814E+04  1.15473E+04 -1.71440E+04 -4.36552E+03
 -1.38302E+04 -2.42095E+04  2.55195E+03 -2.30319E+04  1.26871E+04 -2.19643E+04  2.15906E+04 -1.20065E+04
  1.43909E+04  7.66359E+02  1.38559E+04  3.42200E+03  6.30961E+03  2.09401E+03  9.79063E+03  1.95967E+03
  1.80596E+04  1.23776E+03  1.79285E+04  1.54155E+04  1.22372E+04  3.11652E+04 -3.51978E+03  3.65466E+04
 -1.34923E+04  2.26446E+04 -2.48701E+04  1.25533E+04 -3.28746E+04 -2.45071E+03 -2.56221E+04 -2.40115E+04
 -7.18798E+03 -2.61996E+04  1.07771E+04 -2.58464E+04  2.51444E+04 -8.73823E+03  2.06952E+04  9.80055E+03
  8.01733E+03  1.53801E+04 -4.74668E+03  1.54910E+04 -1.56250E+04  6.02498E+03 -1.20481E+04 -9.74287E+03
 -1.77610E+03 -1.72244E+04  4.02278E+03 -9.97927E+03  5.04043E+03 -1.80852E+03  7.18022E+03  3.29169E+03
 -6.75292E+03  4.01337E+03 -6.31468E+03 -3.62320E+03  2.33529E+03 -9.89181E+03  1.50809E+04 -1.21569E+04
  1.63750E+04 -1.10799E+04  2.04542E+04  4.83921E+03  1.61865E+04  1.53591E+04  9.71127E+03  1.94195E+04
 -1.01420E+03  1.94509E+04 -1.13809E+04  1.57276E+04 -1.31649E+04  5.54667E+03 -1.35123E+04 -5.90849E+02
 -5.32226E+03 -6.06478E+03 -2.55484E+03  4.00427E+03 -2.61279E+03  2.20717E+03 -8.86843E+03  2.82921E+03
 -1.35476E+04  3.01577E+03 -7.24604E+03 -5.14364E+03 -3.14052E+03 -1.72961E+04  5.33217E+03 -1.54450E+04
  7.26416E+03 -7.82180E+03  7.33640E+03  1.85472E+02  8.02319E+03  5.04243E+03 -5.76856E+03  3.67057E+03
 -5.84110E+03 -7.01243E+03 -2.03966E+03 -1.16539E+04  5.83474E+03 -8.92218E+03  1.34318E+04 -6.76715E+03
  1.68255E+04 -5.13780E+02  1.06599E+04  4.79788E+03  2.16760E+03  1.31948E+04 -2.91918E+03  8.37459E+03
 -1.21618E+04  2.96668E+03 -6.77764E+03 -3.35935E+03  1.03840E+03 -3.19467E+03  6.92655E+03 -4.20223E+02
  6.48395E+03 -9.75062E+02 -2.45087E+03  8.70492E+03 -6.33500E+03  7.18205E+03 -1.14585E+04  2.70315E+03
 -9.37123E+03  9.32957E+02  1.43419E+03 -7.80554E+03  4.61020E+03 -5.81817E+03  6.09010E+03  1.64744E+03
  3.24371E+03  1.02996E+04 -4.30693E+03  6.85952E+03 -1.32435E+04  3.63339E+03 -3.35775E+03 -9.35587E+02
 -5.72733E+03 -5.60724E+03  5.60531E+03 -1.15795E+04  9.15177E+03 -1.31980E+04  8.97510E+03 -1.98496E+03
  4.27362E+03  8.91944E+03  2.66260E+03  1.11891E+04 -6.90911E+03  6.10832E+03 -1.09471E+04 -1.51573E+03
 -8.38521E+03 -6.11894E+03 -2.87883E+03 -8.07572E+03  4.23256E+03 -9.20682E+03  2.30914E+03 -5.03783E+03
  5.38487E+03  3.72583E+03 -3.33039E+03  1.42892E+03 -3.51390E+03 -5.27761E+03 -8.76455E+02 -1.36054E+03
  7.67429E+03 -5.45274E+03  5.01349E+03  1.88405E+03  9.68421E+03  4.25446E+03  1.12993E+04  8.07779E+03
  1.16156E+03  1.76249E+04 -1.52966E+04  9.09995E+03 -1.32125E+04  2.11067E+03 -1.29266E+04 -6.75781E+02
 -6.05630E+03 -6.33430E+03  1.69231E+03 -7.59609E+03  3.00052E+03 -5.96156E+03  3.33585E+03 -3.25415E+03
  1.30044E+03 -4.48821E+03  7.36497E+02 -2.80693E+03  4.22110E+03 -1.81303E+03  4.50410E+03 -1.96728E+03
  5.72467E+03  1.95172E+03  5.80125E+03  2.35643E+03 -4.43407E+03  3.00021E+03 -6.00287E+03  5.09619E+03
 -8.73513E+03 -1.60032E+03 -3.01797E+03 -9.90964E+03 -4.73900E+03 -1.55866E+04  5.99836E+03 -9.28395E+03
  7.31445E+03 -7.63554E+03  9.10809E+03  2.89555E+03  1.24149E+04  6.26519E+03  4.47104E+03  1.52437E+04
 -1.39884E+03  1.01657E+04 -1.26483E+03  6.56755E+02 -7.44463E+03 -3.83224E+03 -4.98398E+03 -6.99219E+03
 -1.72491E+03  3.46879E+02  3.06689E+02  2.11142E+02 -5.12605E+03  4.33236E+03 -1.02313E+04 -1.43074E+03
 -3.47542E+03 -5.12442E+03 -7.13207E+03 -6.49393E+03  6.95151E+03 -8.16270E+03  1.51833E+04 -1.46123E+03
  9.91413E+03  6.84370E+03  5.80454E+03  1.07078E+04 -6.32454E+03  1.26523E+04 -3.98133E+03  5.46966E+03
 -3.00891E+03  3.38597E+03 -3.68264E+03 -7.27085E+03 -3.38510E+03 -1.10874E+04  7.62283E+02 -6.55742E+03
  5.59464E+03  1.23929E+03  4.23429E+03  2.35169E+03  4.15779E+03  4.10199E+03  1.32236E+03  2.61925E+03
  3.47951E+03  2.61319E+03 -1.60268E+02 -4.07968E+03  1.28457E+03  1.49788E+03  1.62549E+03  4.04182E+03
 -3.98818E+03  6.49991E+03 -5.00507E+03 -3.01407E+03 -3.54469E+03  3.24052E+03 -4.02820E+03 -7.69815E+02
 -2.44461E+03 -5.63252E+03  5.90914E+02 -9.90361E+03  2.36517E+03 -5.73813E+03  9.94701E+03 -2.07332E+03
  2.48844E+03  5.85810E+03 -4.55011E+01  1.57898E+03  4.39268E+02  3.62277E+03 -2.74199E+03  1.56762E+03
  4.82927E+02 -5.95133E+03  4.52245E+03 -4.59529E+03  1.05275E+04 -1.93139E+03  1.63800E+03 -2.65616E+03
  1.54481E+03 -4.31466E+03  4.14223E+02  1.37443E+03 -3.44777E+02  2.15084E+03  4.48282E+03 -3.78090E+02
  3.28502E+03  1.34606E+03  2.47171E+03 -7.05969E+02 -5.07884E+03  4.79391E+02 -1.81207E+03  1.44946E+03
 -9.00813E+02 -2.40093E+03 -1.25980E+03 -3.36659E+03 -5.97368E+03 -5.42084E+03 -2.08641E+03 -2.95122E+03
  1.65488E+03 -7.50537E+02 -2.43377E+02  4.27739E+02  2.41307E+03  3.18083E+02  4.84530E+02 -2.34277E+03
 -7.02018E+02  6.27190E+03 -4.32884E+03 -6.52773E+03 -3.35460E+03 -2.22087E+03  1.02976E+03  6.60865E+02
  3.20779E+03 -6.38989E+02  2.16289E+03 -1.40898E+03  3.14598E+03  2.53875E+03  8.76726E+02 -1.40930E+03
 -3.92150E+03  3.07903E+03 -2.09651E+03  1.29126E+03  3.84182E+03 -3.86271E+03  5.43227E+03  4.24801E+02
  1.15963E+03  2.69880E+03  4.22618E+03  2.27104E+03  1.93340E+03  9.69463E+03 -3.44406E+03  1.10628E+03
 -5.89086E+03 -6.74356E+03 -6.04091E+03 -8.93813E+02 -3.93965E+03 -4.99543E+03  2.85692E+03  5.68673E+03
  6.76401E+03 -4.09615E+03  5.32376E+03  3.72965E+03  1.07068E+02  5.46597E+03  2.70411E+03  3.45449E+03
  1.73141E+03  2.40947E+03 -1.91287E+03  2.81857E+03 -1.40384E+03 -9.46261E+02  3.25989E+02  2.38328E+03
  2.74068E+03  4.69286E+03 -3.71302E+03  4.05606E+03 -3.52407E+03  2.51212E+02 -5.57457E+03 -5.47445E+03
 -1.53653E+03 -4.24898E+03  1.57257E+03 -7.18019E+03  3.85821E+03 -6.28223E+03  5.78902E+03 -2.25370E+03
  8.55314E+03 -2.75527E+02  1.39370E+03  7.70916E+03  1.30854E+02  5.68376E+03  7.08757E+02 -4.51044E+03
 -1.81622E+03 -9.67041E+02 -3.17481E+03  1.06369E+03  3.75323E+03 -4.03884E+03 -6.15964E+03 -2.48591E+03
 -2.32488E+02  1.62153E+03 -3.33258E+03 -1.18098E+02  4.21363E+03 -1.23100E+03  2.24951E+03 -1.91512E+03
  2.76205E+03 -6.04112E+03  3.89417E+03 -1.46047E+01  3.98910E+03 -5.19158E+02 -1.62381E+02  5.89568E+03
 -2.04340E+03  2.22620E+03 -6.04600E+03  3.02784E+03 -8.64237E+03  1.22237E+03 -1.16208E+03 -6.09415E+03
 -5.76969E+03 -4.90396E+03  2.54096E+03 -6.16494E+03  2.74858E+03 -1.75210E+03  3.57391E+03  5.92293E+03
  4.61262E+03  2.41736E+03  4.65856E+03 -5.55282E+01 -3.50128E+03 -1.97611E+03  5.12991E+02 -8.61684E+02
 -1.59271E+03 -1.94799E+03 -1.68605E+03  1.05407E+03  2.48513E+03  3.16292E+03  7.70709E+02  5.74302E+03
 -1.07673E+03  1.56570E+03 -2.93337E+02  5.49471E+03 -2.13061E+03  6.00472E+02 -6.92621E+02 -5.67281E+03
 -8.18316E+03 -3.00403E+03  4.02387E+03  4.69204E+02  9.85313E+02 -3.64572E+03  1.11072E+02  2.74414E+03
 -2.31131E+03  8.14143E+03 -6.06463E+03  1.78554E+03 -4.52346E+02  1.04756E+03 -1.66109E+03  6.34625E+03
 -1.37279E+03  2.97603E+03 -4.77329E+02  2.59152E+03 -4.66297E+03 -1.70932E+03  2.63762E+02 -2.85044E+03
 -1.97777E+03 -5.08564E+03 -5.31854E+02 -1.70400E+03  1.99816E+03 -8.23897E+03  4.34436E+03 -1.12148E+03
  3.11185E+03  8.40657E+02  3.56927E+03  2.86095E+03  1.38230E+03  2.60431E+03 -7.27418E+03  5.39778E+03
