 $NMID ID='MM_0lb_SNR50_20hz_g60_70.RAW', FMTDAT='(8E13.5)'
 TRAMP=1., VOLUME=1. $END
  3.06234E+05  2.63258E+03  3.36221E+05  2.47445E+05  8.19954E+04  3.37242E+05 -1.29753E+05  2.47181E+05
 -1.93479E+05  8.21771E+04 -1.12016E+05 -3.42280E+04  2.87453E+03 -5.10715E+04  5.60887E+04 -4.41739E+03
  3.21745E+04  5.15673E+04 -1.91828E+04  7.20496E+04 -5.89886E+04  6.28026E+04 -8.33294E+04  2.87032E+04
 -7.91066E+04 -8.73495E+03 -5.93390E+04 -5.04390E+04 -1.59496E+04 -7.17176E+04  2.34148E+04 -4.28626E+04
  4.25566E+04  7.15551E+03  2.01507E+04  4.41437E+04 -3.28183E+04  4.23746E+04 -6.61743E+04 -1.50346E+02
 -5.65306E+04 -5.75874E+04 -6.35681E+03 -7.52123E+04  3.81625E+04 -5.41473E+04  4.74535E+04 -1.79549E+04
  4.88926E+04  9.87453E+03  3.13912E+04  2.32737E+04  2.01615E+04  2.70892E+04 -3.14126E+03  2.56148E+04
 -2.17364E+04  1.57477E+04 -2.02381E+04 -5.71318E+03  6.48522E+03 -2.34342E+03  2.17560E+04  6.37814E+03
  7.11277E+03  2.88893E+04 -2.87714E+04  3.53609E+04 -6.32071E+04  1.47866E+03 -5.39514E+04 -4.48351E+04
 -1.12304E+04 -6.03221E+04  3.91191E+04 -4.18240E+04  5.30939E+04 -1.51442E+03  3.53389E+04  3.09136E+04
 -4.31772E+03  3.59690E+04 -2.89323E+04  1.32129E+04 -2.74478E+04 -7.01217E+03 -1.60947E+04 -8.46289E+03
 -6.51135E+03 -7.89485E+03 -3.93414E+03 -2.01846E+04  1.07828E+04 -2.02974E+04  1.98679E+04 -1.24118E+04
  1.33239E+04  7.79116E+03 -4.16006E+03  1.63605E+04 -2.07691E+04 -1.54061E+03 -1.07433E+04 -3.26820E+04
  2.12331E+04 -4.44637E+04  4.70973E+04 -1.99394E+04  4.63016E+04  1.58032E+04  1.28362E+04  4.53256E+04
 -1.49602E+04  2.94947E+04 -2.06307E+04  1.45337E+03 -9.61173E+03 -2.37765E+04  2.06639E+04 -3.33378E+04
  3.66110E+04 -3.19524E+03  3.31534E+04  2.55815E+04  1.77677E+04  4.10384E+04 -1.05734E+04  4.30393E+04
 -3.05692E+04  3.04458E+04 -4.11745E+04  8.53609E+03 -3.33472E+04 -1.56653E+04 -2.19961E+04 -3.55535E+04
  7.03784E+03 -3.41200E+04  2.99206E+04 -1.25035E+04  3.13435E+04  8.01359E+03  1.72275E+03  1.58629E+04
 -8.92451E+03  7.72987E+03 -6.71505E+03 -9.83050E+03  1.00694E+04 -1.18507E+04  1.54325E+04  5.93072E+03
  1.27294E+04  2.16793E+04 -8.04180E+03  2.25453E+04 -2.65444E+04  6.57875E+03 -2.71289E+04 -4.44234E+03
 -1.59691E+04 -1.50881E+04 -6.64870E+02 -1.92428E+04  3.34141E+03 -1.78230E+04  1.29958E+04 -1.54107E+04
  2.35778E+04 -1.10145E+04  3.16236E+04 -2.06560E+02  2.48876E+04  1.53255E+04  6.48458E+03  3.31978E+04
 -1.71507E+04  2.77819E+04 -2.74637E+04  1.20450E+04 -2.05801E+04 -1.06044E+04 -5.25688E+03 -1.48945E+04
  2.70641E+03 -5.45084E+03 -1.39066E+03  6.13962E+03 -1.64024E+04  1.07332E+04 -1.34692E+04 -1.05602E+04
 -1.03247E+04 -1.85653E+04  2.92874E+03 -1.59346E+04  1.24836E+04 -1.41471E+04  1.29822E+04  1.53294E+03
  1.01683E+04  1.06751E+04 -1.26196E+03  1.56320E+04 -8.79853E+03  1.04376E+04 -1.70952E+04 -1.25405E+03
 -1.45873E+04 -1.71148E+04  2.46972E+03 -1.78439E+04  6.99850E+03 -1.68810E+04  1.49998E+04 -3.64723E+03
  1.27576E+04  2.15745E+03  1.47717E+04  8.63547E+03  6.06975E+03  4.33741E+03  8.50490E+03 -5.29000E+03
  1.70364E+04  2.06190E+03  1.42708E+04  1.35374E+04  1.15361E+04  2.57180E+04 -6.38681E+03  2.90623E+04
 -1.18393E+04  2.09002E+04 -2.40339E+04  7.41804E+03 -2.85859E+04 -1.21442E+03 -2.34199E+04 -1.28718E+04
 -1.32918E+04 -2.10444E+04  1.09786E+04 -1.93320E+04  1.43289E+04 -7.59714E+03  1.74874E+04  5.05104E+03
  5.94982E+03  1.17721E+04 -3.88161E+03  1.08158E+04 -1.63366E+04  4.22835E+03 -1.18930E+04 -7.81306E+03
  4.22403E+03 -1.38271E+04  8.34400E+03 -9.07356E+03  7.65606E+03 -1.35469E+03  1.40530E+03  2.03065E+03
 -6.17394E+03  4.03822E+03 -3.87486E+03 -6.59531E+03 -1.87452E+03 -1.16848E+04  6.16755E+03 -1.26255E+04
  1.22633E+04 -5.47624E+03  1.09080E+04  3.98577E+03  1.13435E+04  4.81840E+03  6.03837E+03  1.60015E+04
 -2.70390E+03  1.56267E+04 -8.06471E+03  1.16051E+04 -1.25786E+04  8.16370E+01 -6.09567E+03 -2.76358E+03
 -5.94499E+02 -7.68611E+02 -8.48794E+02  6.37318E+03 -3.46397E+03 -1.46027E+02 -4.04817E+03  3.20081E+03
 -8.20015E+03 -9.39340E+02 -8.09620E+03 -5.69082E+03 -3.34262E+03 -8.92740E+03 -1.18129E+02 -7.75054E+03
  6.13630E+03 -5.18860E+03  3.18418E+03  2.67763E+03 -1.74103E+02  1.39607E+03 -6.67055E+02  2.55354E+02
 -6.16585E+03 -3.38602E+03 -1.50103E+02 -5.22692E+03  2.86511E+03 -9.51436E+03  9.63078E+03 -5.16447E+03
  1.14678E+04 -1.69085E+03  8.65472E+03  2.13289E+03  4.00352E+03  7.15887E+03 -5.90309E+03  8.11778E+03
 -6.95627E+03  5.27052E+03 -1.53573E+03 -2.45393E+03  2.45257E+03  3.72288E+03  3.64222E+03  1.83550E+03
  7.63894E+03  8.56344E+02  3.52272E+03  3.26508E+03 -4.90073E+03  5.91535E+03 -8.47355E+03  2.06406E+03
 -7.66052E+03 -3.58823E+03 -3.98596E+03 -4.34571E+03  3.86462E+03 -3.91140E+03  4.01108E+03  7.87464E+02
  1.13185E+03  4.54537E+03 -5.24869E+03  3.30663E+03 -4.56422E+03  4.14942E+03 -7.59537E+03 -2.56252E+03
 -4.35257E+03 -7.39261E+03 -1.55422E+03 -5.12719E+03  8.95384E+03 -7.82247E+03  4.85647E+03 -2.01778E+03
  6.75005E+03  1.02939E+04  1.44357E+03  1.71835E+03 -1.24057E+03  3.66652E+03 -2.73985E+03 -6.53792E+02
 -6.20401E+03 -5.56070E+03 -1.21083E+03 -1.66541E+03  3.02864E+03 -5.24182E+03  1.06790E+03 -2.86925E+03
  9.71196E+02 -3.11275E+03  5.15917E+02  1.77081E+03 -2.83042E+03 -8.32509E+02 -1.37755E+03 -3.60439E+03
  3.14361E+03 -1.68708E+03  3.83231E+03  1.51265E+03  1.10579E+04  3.79890E+03  6.29562E+03  5.27052E+03
  1.32497E+03  5.46576E+03 -5.49913E+03  5.44506E+03 -8.19143E+03  5.06519E+03 -9.54197E+03 -4.00255E+01
 -5.63366E+03 -8.77888E+03 -7.88308E+02 -7.05330E+02  6.40602E+03 -3.64882E+03  2.50797E+03 -4.67453E+03
  1.43817E+03  5.87018E+02  2.94402E+03 -2.49655E+03  5.19845E+03 -2.06873E+03  3.27409E+03  1.91294E+03
  3.05894E+03  3.18710E+03  1.00682E+03  7.40702E+02 -2.17788E+03  6.54828E+03 -7.05215E+03  3.16723E+03
 -6.20455E+03 -7.58089E+02 -2.61854E+03 -3.87496E+03 -4.71743E+02 -3.63758E+03  6.22065E+03 -7.69817E+03
  7.00428E+03 -2.10686E+02  6.99939E+03 -8.29598E+02  3.74143E+03  1.74182E+03  1.05928E+03  4.18631E+03
 -4.25552E+03  5.15846E+03 -5.78591E+03 -1.66294E+03 -4.15961E+03  2.01563E+03 -4.20022E+03 -3.00899E+03
  4.07985E+02  1.97479E+02 -3.27623E+02  5.00038E+03  7.44994E+02 -5.09996E+02 -1.54578E+03  1.96725E+03
 -1.74411E+03 -5.94073E+03  7.32473E+02 -4.73362E+03  1.89835E+03 -2.65313E+03  4.13854E+03 -4.30139E+03
  8.86351E+02  5.39199E+02  3.55733E+03 -2.83839E+01  2.93741E+03  6.02151E+03 -3.83309E+03  5.43961E+03
 -4.22730E+03  2.31792E+03 -5.73283E+03 -1.30193E+03 -5.89459E+03  3.11113E+03 -2.67994E+03 -4.41105E+03
 -5.09140E+02 -2.02281E+03  1.25928E+03  4.20845E+03 -3.39487E+03  3.63366E+03 -1.98553E+03  2.17402E+03
  1.49953E+03 -1.60650E+03  1.37809E+03 -3.47963E+03 -2.28206E+03  2.54070E+03 -3.44221E+02 -1.94218E+03
 -1.55640E+03  1.17070E+03 -1.78242E+03  3.23492E+03 -5.22855E+03 -1.63604E+03 -2.56435E+03  3.94661E+03
 -1.98580E+03 -3.71629E+03  2.27243E+02 -3.13959E+02 -4.06578E+02 -2.64048E+03  9.54122E+02 -1.36839E+03
  8.24793E+02 -6.30536E+02  6.62186E+02  6.72660E+03 -2.31508E+02  2.97736E+03 -3.50140E+03 -1.80909E+03
 -1.51843E+03 -1.16855E+03  6.85686E+01  2.38601E+03 -5.17402E+03 -3.75478E+02 -3.39206E+03 -1.41116E+03
  4.48338E+03 -2.32373E+03  1.60510E+03  2.35965E+03 -8.64445E+01  2.93630E+02 -3.73827E+02  4.20056E+03
 -2.74162E+03 -7.20235E+02 -2.86673E+03  3.64739E+03 -6.18246E+02  2.19978E+03  3.14361E+02  2.15684E+03
 -2.14312E+03  1.57594E+03 -1.13164E+02 -2.71171E+03 -2.40559E+03  1.39668E+03 -2.27985E+02 -3.20250E+03
  1.68700E+03  6.71881E+02 -8.47384E+02 -2.99966E+03  2.39730E+03 -2.49440E+03 -2.49484E+03 -2.06105E+03
  2.71862E+03  3.51244E+03 -1.85766E+03 -3.49861E+03 -5.42859E+02 -3.58263E+03 -6.59528E+02 -3.08166E+03
  3.12620E+03  3.64841E+02  1.71265E+03  1.74492E+03  1.31740E+03 -1.02416E+03  2.00296E+03  2.77380E+03
 -1.98558E+03  5.12686E+03 -8.89886E+02  1.73323E+03  3.79013E+03  1.65844E+02  3.82329E+03  1.10059E+03
 -1.86323E+03 -1.04416E+03  1.18963E+03 -1.81438E+03  7.24704E+02  1.17712E+03 -4.12936E+03 -2.94859E+02
 -7.70857E+01 -3.56249E+02  1.01947E+03 -2.27455E+02  2.85213E+03 -5.44235E+02 -6.51484E+02 -2.77368E+03
  4.31049E+03 -3.35337E+02 -3.31473E+03  8.06108E+02  1.62188E+03 -3.11280E+02 -3.05746E+03  2.61481E+03
  1.52382E+03  2.96422E+03  1.18414E+03 -2.60257E+01  3.81856E+03 -1.13204E+03  4.97484E+02  6.57756E+02
 -2.46912E+03  1.03566E+03 -2.34968E+03 -3.04999E+02 -4.93138E+03 -1.86668E+02  4.38680E+01 -7.39722E+01
 -2.75829E+03 -1.91877E+02 -7.54917E+02 -1.83907E+03  2.83015E+03 -9.25032E+02 -2.08582E+03  1.51285E+03
 -6.12675E+03 -8.33245E+02  2.51275E+03 -7.58683E+02 -3.44372E+03  2.87250E+03 -1.53631E+03 -5.25816E+02
 -1.38966E+03 -4.30579E+02 -7.55525E+02 -1.86997E+03 -3.35639E+03  2.83379E+03 -1.42305E+02 -2.02049E+03
  1.49525E+03  2.67705E+03 -1.49968E+03  1.35782E+03 -2.65747E+03 -1.53212E+03  2.12053E+03 -3.88721E+01
 -1.88429E+03  2.92634E+03  1.76502E+02  2.63784E+03  6.76585E+03  1.57139E+03 -6.96877E+02  3.53191E+03
 -3.41576E+03  1.97910E+03  1.26988E+03  3.69542E+03  2.10682E+03  2.29659E+03 -1.64067E+03 -3.05294E+03
  7.61330E+02 -2.04295E+03  2.94103E+02 -2.82733E+03 -1.24506E+03 -1.32544E+03 -1.65311E+03 -1.71571E+03
  1.61433E+02  1.06872E+03 -3.70612E+03  1.07496E+03 -8.60051E+02 -1.44876E+03  1.96394E+01 -3.41991E+03
  7.11847E+03  2.05449E+03 -5.12728E+02  2.61601E+02  3.01115E+03  1.89553E+03 -1.51167E+03  5.04954E+02
 -1.25798E+02  2.55314E+03  1.58573E+03  4.10661E+03 -1.37529E+03 -8.67547E+02 -3.53160E+03 -2.66896E+00
  2.53037E+03  8.09882E+02 -3.22747E+03 -5.00694E+03 -3.83760E+02 -2.91650E+03 -6.28023E+02 -5.51412E+02
 -1.01152E+03  2.49978E+03 -7.71942E+02  2.06194E+03  1.90895E+02 -3.93150E+02 -7.04119E+02  8.80900E+02
  3.71584E+02 -4.34398E+03 -6.76237E+02 -2.19208E+03 -3.65373E+03  1.58444E+03  1.22107E+03 -1.21442E+03
 -1.75655E+03 -2.12627E+03 -3.97678E+03 -4.11686E+03  7.40491E+02 -1.94444E+03 -3.88829E+03  6.50418E+00
 -1.57091E+03  1.33088E+03 -5.83867E+01 -4.24746E+01 -2.82198E+03  1.51644E+03 -1.72301E+03  3.86859E+02
