 $NMID ID='MM_0lb_SNR50_10hz_g40_10.RAW', FMTDAT='(8E13.5)'
 TRAMP=1., VOLUME=1. $END
  3.08824E+05 -4.98408E+03  3.35061E+05  2.50165E+05  8.37684E+04  3.37361E+05 -1.27255E+05  2.50334E+05
 -1.93010E+05  8.11939E+04 -1.08843E+05 -3.05711E+04  4.56056E+02 -4.82110E+04  5.51255E+04 -3.19422E+03
  3.64353E+04  5.09780E+04 -1.50984E+04  7.53772E+04 -5.98859E+04  6.26931E+04 -8.70300E+04  3.17411E+04
 -8.23521E+04 -1.25636E+04 -5.24200E+04 -4.69130E+04 -1.33362E+04 -7.17633E+04  2.47766E+04 -4.54010E+04
  4.20496E+04  7.21969E+01  1.78415E+04  5.11146E+04 -3.65831E+04  4.87217E+04 -6.86374E+04 -1.89705E+03
 -5.37188E+04 -4.90090E+04 -6.64094E+03 -7.66105E+04  3.77769E+04 -5.83218E+04  4.34643E+04 -1.79458E+04
  4.80895E+04  8.38667E+03  3.59603E+04  2.69332E+04  1.50715E+04  2.95564E+04 -5.36760E+03  2.70286E+04
 -2.62544E+04  1.42356E+04 -1.63218E+04 -8.03208E+03  6.76615E+03 -1.66021E+03  2.61202E+04  8.88070E+03
  8.11520E+03  2.68671E+04 -3.40549E+04  3.24236E+04 -6.19116E+04  9.67002E+03 -5.35534E+04 -4.15113E+04
 -1.33560E+04 -6.69888E+04  4.24160E+04 -4.55346E+04  5.89160E+04  6.03679E+02  3.38710E+04  4.13912E+04
 -6.24297E+03  4.13537E+04 -3.08120E+04  2.65472E+04 -2.69345E+04 -1.06129E+03 -2.48565E+04 -1.55670E+04
 -3.52587E+03 -1.40843E+04 -3.87407E+03 -1.92586E+04  1.01108E+04 -2.49335E+04  1.10118E+04 -1.13013E+04
  1.22163E+04  4.45088E+03 -1.79219E+04  1.14082E+04 -2.54973E+04 -3.69173E+03 -1.31730E+04 -3.40779E+04
  2.81480E+04 -4.28593E+04  5.49089E+04 -2.10111E+04  5.54696E+04  1.73244E+04  1.64454E+04  4.59891E+04
 -1.08125E+04  3.58802E+04 -2.46179E+04 -3.05011E+03 -1.17698E+04 -2.53013E+04  2.01024E+04 -3.29076E+04
  4.73655E+04 -8.74071E+03  4.14081E+04  2.23109E+04  1.58225E+04  4.61343E+04 -1.24726E+04  5.36301E+04
 -3.78358E+04  3.82450E+04 -4.62526E+04  1.64836E+04 -4.78434E+04 -1.49147E+04 -2.52264E+04 -3.96581E+04
  9.27441E+03 -3.92097E+04  3.41041E+04 -2.18071E+04  3.34338E+04  1.22761E+04 -2.17309E+03  2.45456E+04
 -1.50766E+04  9.52501E+03 -5.59727E+03 -7.61777E+03  3.90068E+03 -1.40596E+04  2.13603E+04  1.05936E+04
  1.08190E+04  2.71892E+04 -1.53722E+03  2.48444E+04 -2.21365E+04  1.14008E+04 -2.69714E+04 -1.74053E+03
 -2.67855E+04 -2.03995E+04 -8.33641E+03 -2.30703E+04  6.22932E+03 -2.37396E+04  1.95829E+04 -2.02848E+04
  3.11449E+04 -1.23348E+04  3.44945E+04  1.79428E+03  2.02975E+04  2.35203E+04  3.83014E+03  3.30762E+04
 -2.38739E+04  2.62046E+04 -3.25167E+04  9.65847E+03 -1.45163E+04 -1.28781E+04 -1.25599E+03 -1.46808E+04
  1.91163E+03 -1.06492E+03 -9.48841E+03  1.18453E+04 -2.11938E+04  5.59671E+03 -1.56112E+04 -5.07272E+03
 -9.68554E+03 -2.10220E+04  3.84494E+03 -2.40261E+04  2.05680E+04 -1.93625E+04  2.45616E+04 -3.62541E+03
  1.10037E+04  1.20070E+04  2.76977E+03  2.03705E+04 -1.66929E+04  1.73573E+04 -1.90672E+04 -3.62815E+03
 -1.77676E+04 -1.73820E+04 -6.25846E+03 -2.61535E+04  1.17667E+04 -1.75570E+04  2.31690E+04 -1.10205E+04
  1.61347E+04  6.82218E+02  1.51732E+04  5.58994E+03  1.65594E+04 -3.96350E+02  1.29268E+04 -6.11697E+03
  2.16617E+04  2.81810E+03  1.90998E+04  1.90894E+04  1.94280E+04  3.14707E+04 -1.39184E+03  4.04810E+04
 -2.43106E+04  3.83451E+04 -3.60763E+04  1.33005E+04 -4.10928E+04 -8.41969E+03 -3.79171E+04 -2.19701E+04
 -1.36216E+04 -3.54168E+04  8.11042E+03 -2.73374E+04  2.15065E+04 -1.77337E+04  2.16049E+04  6.16109E+03
  1.17160E+04  1.49110E+04 -1.09018E+04  2.07349E+04 -1.71380E+04  1.77429E+02 -1.21857E+04 -4.38540E+03
 -7.07352E+03 -1.90403E+04  1.00012E+04 -1.32615E+04  6.01494E+03  1.75222E+03  9.82341E+03  6.53420E+03
 -9.31482E+03  1.02694E+04 -7.90239E+03 -1.13469E+04 -2.41139E+03 -9.20989E+03  8.79375E+03 -1.79153E+04
  2.29972E+04 -7.29762E+03  2.06079E+04  1.59622E+03  1.58073E+04  1.64332E+04  1.00008E+04  2.51138E+04
 -5.06563E+03  3.29455E+04 -1.83738E+04  1.16861E+04 -2.07353E+04  2.26292E+03 -1.44358E+04 -3.34572E+03
 -8.33436E+03 -1.00372E+04  1.77370E+03  1.45970E+03 -1.85482E+02  7.99986E+03 -8.53895E+03 -1.83703E+03
 -1.40929E+04  7.29011E+02 -1.26585E+04 -1.67752E+04 -6.92354E+03 -2.16256E+04  2.27187E+03 -1.53171E+04
  1.22302E+04 -1.12077E+04  8.76772E+03  6.58052E+03 -1.23765E+03  5.61945E+03 -3.69194E+03 -2.33796E+03
 -3.12414E+03 -1.11033E+04 -3.39811E+03 -1.73834E+04  1.28944E+04 -1.51389E+04  1.96514E+04 -8.18443E+03
  1.85181E+04 -8.00512E+02  1.50445E+04  1.27901E+04  4.50369E+03  1.54221E+04 -1.01917E+04  8.06973E+03
 -3.32319E+03 -2.54878E+03 -4.86991E+03  2.37026E+02  9.15063E+02 -4.77404E+03  6.47117E+03 -2.63731E+03
  5.55268E+03  1.19350E+03  3.47174E+03  1.74873E+04 -8.66900E+03  1.23449E+04 -1.35706E+04  5.02996E+03
 -1.20688E+04  5.53347E+02  2.24003E+03 -1.10327E+04  9.70929E+03 -1.01307E+04  9.20013E+03  4.30929E+03
  1.84394E+03  6.98703E+03 -1.03951E+04  9.93974E+03 -9.62902E+03  3.31692E+03 -1.78009E+04  9.68776E+00
 -2.27262E+03 -1.70816E+04  5.39316E+03 -1.24747E+04  1.53348E+04 -7.14779E+03  1.46975E+04  5.65537E+03
  1.30431E+04  1.31132E+04 -2.60206E+03  1.17495E+04 -9.30401E+03  9.61532E+03 -1.22834E+04 -2.72813E+03
 -5.42289E+03 -9.32824E+03 -5.87596E+03 -1.39625E+04  3.77914E+03 -5.44056E+03  9.39108E+03 -4.58932E+03
  4.79752E+03  5.50515E+03 -3.36370E+03  5.61251E+03  1.75214E+03 -6.41871E+03  1.18911E+03 -8.81215E+03
  6.59956E+03 -6.41646E+03  1.17227E+04 -1.95829E+03  1.35124E+04  5.92301E+03  1.17824E+04  1.84559E+04
 -8.97206E+03  2.59120E+04 -2.15027E+04  1.41071E+04 -2.99026E+04 -4.99917E+02 -2.69320E+04 -6.14032E+03
 -1.09859E+04 -1.64145E+04 -3.09069E+03 -1.17095E+04  4.87904E+03 -8.48441E+03  8.06427E+03 -6.56274E+03
  1.79338E+03 -2.24843E+03  8.95371E+01 -6.27310E+03 -2.72877E+03 -6.08020E+03  1.04138E+04 -4.28779E+03
  8.71150E+03 -1.23956E+03  1.22930E+04  5.12773E+03 -2.40381E+03  8.33382E+03 -1.38984E+04  4.17886E+03
 -1.23253E+04 -1.66596E+02 -5.46861E+03 -5.11378E+03  7.83416E+02 -9.98909E+03  4.55648E+03 -1.43377E+04
  1.29919E+04 -5.77150E+03  1.77923E+04  7.32108E+02  1.39118E+04  1.26613E+04  4.55071E+03  1.28926E+04
 -1.20575E+04  1.60593E+04 -1.54460E+04  3.19917E+03 -5.62277E+03 -4.27356E+02  1.83640E+03 -6.02505E+03
  2.19025E+03 -1.73458E+02 -1.83050E+03  5.80213E+03 -3.57821E+03  1.55591E+03 -8.30065E+03  3.22541E+03
 -1.64443E+03 -6.98756E+03 -6.25110E+03 -1.14649E+04  1.22967E+03 -7.00029E+03  9.06563E+03 -1.09254E+04
  1.07354E+04  4.98334E+03  7.17070E+03  6.91802E+03 -6.16105E+03  1.53447E+04 -1.30800E+04  9.36529E+03
 -1.27338E+04  5.93145E+03 -1.24634E+04 -5.06293E+03 -4.14457E+02 -1.08760E+04  1.18971E+04 -8.86302E+03
  9.60620E+03 -1.10121E+04  1.04472E+04  4.34934E+03  2.89005E+03 -1.89685E+03 -1.81350E+03  3.36005E+03
  7.03714E+03 -3.83967E+03  3.15499E+03 -3.05676E+03  8.07844E+02  1.09452E+04  6.85593E+03  2.15603E+03
 -4.50116E+03  8.56444E+03 -1.16562E+04  6.55782E+03 -1.16760E+04  8.55868E+03 -8.69947E+03 -2.31268E+03
  4.03732E+02 -8.93979E+03 -7.82558E+02 -6.29398E+03  4.65053E+03 -1.02830E+04  1.08826E+04  1.06743E+03
  6.81094E+03  2.06754E+03  4.06248E+03  7.96606E+03 -6.45831E+03  4.66402E+03 -2.83862E+03 -1.72638E+03
 -3.87540E+03 -6.31109E+03  1.18507E+03 -3.46921E+03  3.66061E+03  1.23024E+03  2.45263E+03  4.79566E+03
  6.82165E+03  7.97746E+02  2.26661E+03  4.74688E+03  1.77586E+03  4.01419E+03  2.09089E+02  1.85064E+03
  4.18608E+03 -2.21504E+03  7.41403E+03 -7.58890E+02 -3.10548E+02  9.76803E+03 -3.21301E+02  6.65266E+03
 -8.45274E+03  1.04354E+04 -8.48196E+03 -1.01942E+03 -1.45064E+03 -2.93491E+03 -1.61425E+03 -7.06140E+02
  4.67007E+03 -4.55349E+03  2.32464E+03 -3.72446E+03  3.89590E+03 -3.38027E+03 -3.50501E+03  3.73506E+03
 -5.20883E+03  5.95483E+02 -6.07193E+03 -1.16855E+04 -6.40047E+02 -1.86153E+03  6.97062E+03 -8.36904E+03
  7.30240E+03 -6.73368E+03  6.70573E+03 -5.80520E+03  2.61351E+03  2.29618E+03  3.09593E+03  7.14344E+03
 -2.47883E+03 -1.09383E+03 -6.57144E+03 -6.49835E+02  4.53740E+03 -1.29672E+04 -1.28614E+03 -2.09035E+03
  4.94693E+03  2.81569E+03  5.65882E+03  7.22292E+03  2.01433E+03  9.57474E+03 -1.60399E+04  7.68126E+03
 -1.53209E+03  9.05728E+03 -1.56825E+04  3.41070E+02 -1.96286E+03 -9.57347E+03  4.49430E+03 -1.78138E+03
  2.20367E+02 -2.67769E+03  1.13936E+03  1.25523E+04  3.41853E+03  5.88766E+03  1.83359E+03  6.84818E+03
  1.44442E+03 -4.13170E+02  1.56812E+03  9.74739E+03  5.95051E+03 -5.14397E+03  1.67042E+03  8.36697E+03
  1.90141E+03  2.88542E+03 -1.09796E+04  6.88420E+03 -3.37280E+03  1.70481E+03 -8.42261E+03 -2.14844E+03
 -7.15802E+03 -1.30863E+04  9.06898E+02 -1.86027E+04  1.04204E+04 -1.83912E+04  9.50881E+03 -3.82909E+03
  1.53393E+04  6.46090E+03  7.53793E+03  6.39005E+03  1.81877E+03  1.26775E+04 -7.21960E+03  6.82406E+03
 -9.57062E+03  7.17971E+03 -5.25760E+03  1.33051E+03 -3.75086E+03 -2.52910E+03  7.95062E+02 -3.12753E+03
  6.43387E+02 -3.76922E+03  1.34243E+03  3.97987E+03 -2.15276E+03 -4.75551E+03  2.75972E+03 -3.88537E+03
  5.40922E+03 -1.40073E+03  4.72491E+03  4.90740E+03  5.89635E+03  3.28880E+03 -1.09739E+03  7.42254E+03
 -2.84621E+03  1.45002E+04 -1.25838E+04  5.19700E+03 -1.32272E+04 -3.10893E+03 -2.73709E+03 -3.24559E+03
 -2.60225E+03 -3.57090E+03  2.71438E+03 -7.54947E+03  3.99111E+03 -1.23487E+03  6.84359E+03  6.83571E+03
 -3.57943E+03  3.33202E+03  1.49906E+03  4.62889E+03  5.09256E+03  6.94219E+02  1.11402E+03 -6.53072E+03
  5.37001E+03 -2.31395E+03  6.76928E+03  9.45996E+02  2.48556E+03  5.57538E+03 -1.56043E+03  6.28433E+03
  1.40538E+02  3.32869E+03 -5.63995E+03  3.31759E+03 -5.33736E+03 -3.88385E+03 -3.00419E+03 -5.82309E+03
  8.82606E+03 -7.45120E+03  2.00758E+03 -3.83469E+03  1.52883E+03  3.21680E+03  3.30192E+03  3.01422E+03
 -2.04596E+03  8.88246E+03 -5.73700E+03  7.05228E+03 -4.51396E+03 -4.23415E+03 -4.57844E+03 -9.74953E+02
  2.46649E+03 -1.62377E+03  1.68776E+03  4.58940E+03 -4.14867E+02 -1.43349E+03 -4.61092E+03 -2.91938E+03
 -6.82249E+03 -6.05127E+03  5.89966E+03 -4.88770E+03  5.35009E+03 -5.36015E+03  8.02159E+03 -1.31032E+03
  1.06368E+04  1.32226E+03  3.62020E+03  9.11311E+03  3.58010E+03  3.88337E+03 -6.75543E+03  4.28468E+03
