 $NMID ID='MM_0lb_SNR50_15hz_g50_29.RAW', FMTDAT='(8E13.5)'
 TRAMP=1., VOLUME=1. $END
  3.08382E+05 -1.18469E+02  3.38216E+05  2.50180E+05  8.81251E+04  3.36122E+05 -1.32192E+05  2.48466E+05
 -1.93343E+05  8.33881E+04 -1.10509E+05 -3.50665E+04  3.52483E+03 -5.23510E+04  5.71523E+04 -1.92864E+03
  3.50324E+04  4.70171E+04 -1.42053E+04  7.54536E+04 -6.35362E+04  6.26451E+04 -8.08446E+04  3.21214E+04
 -7.99856E+04 -1.13905E+04 -5.53006E+04 -5.18815E+04 -1.38537E+04 -6.97921E+04  2.93684E+04 -4.47718E+04
  4.07957E+04  4.02128E+03  1.61828E+04  4.64367E+04 -3.52549E+04  4.51469E+04 -6.58193E+04  1.66797E+03
 -5.46024E+04 -5.99359E+04 -1.12591E+04 -7.67270E+04  3.61514E+04 -5.67742E+04  5.03062E+04 -1.94888E+04
  4.03728E+04  1.00614E+04  3.09116E+04  2.53504E+04  1.35489E+04  3.36725E+04  3.52886E+02  2.29012E+04
 -2.32532E+04  1.44923E+04 -1.70131E+04 -6.87408E+03  6.21025E+03 -1.12288E+04  2.18623E+04  1.05759E+04
  5.53884E+03  3.41219E+04 -3.47522E+04  3.46042E+04 -6.74937E+04  7.59717E+02 -5.62100E+04 -3.63945E+04
 -1.31231E+04 -5.97515E+04  4.10709E+04 -4.35503E+04  5.65262E+04 -1.86839E+03  3.58181E+04  3.32876E+04
 -4.18600E+03  3.39692E+04 -2.75184E+04  2.02264E+04 -2.87046E+04 -6.08777E+03 -1.40385E+04 -1.16334E+04
 -1.05289E+04 -1.19663E+04  2.29407E+03 -2.10925E+04  5.67974E+03 -2.37253E+04  1.75897E+04 -1.69769E+04
  1.32223E+04  4.97843E+03 -4.62175E+03  1.34694E+04 -1.94435E+04 -6.62790E+03 -2.80585E+03 -3.14978E+04
  2.24830E+04 -4.08449E+04  4.32601E+04 -2.14702E+04  4.72915E+04  1.85540E+04  1.38190E+04  4.34248E+04
 -2.04899E+04  3.51457E+04 -2.89055E+04  3.17852E+03 -9.75676E+03 -2.89808E+04  2.51636E+04 -3.58261E+04
  4.04210E+04 -6.34153E+03  3.69636E+04  2.41525E+04  1.96047E+04  4.97964E+04 -1.28717E+04  5.02993E+04
 -2.76513E+04  3.26120E+04 -4.34722E+04  7.16213E+03 -4.47701E+04 -1.85180E+04 -2.26106E+04 -3.48724E+04
  7.48189E+03 -3.59572E+04  3.16011E+04 -1.74448E+04  3.48256E+04  8.56375E+03  1.21182E+03  1.98902E+04
 -9.93643E+03  4.90664E+03 -8.48586E+03 -8.68473E+03  3.41915E+03 -1.31910E+04  1.60999E+04  6.81549E+03
  1.78626E+04  2.21070E+04 -9.23848E+03  2.32312E+04 -2.17805E+04  9.24919E+03 -2.57185E+04 -9.14636E+03
 -2.25100E+04 -2.23094E+04 -1.13968E+04 -1.76583E+04  6.03242E+03 -1.47902E+04  2.08830E+04 -2.12701E+04
  2.43455E+04 -1.98609E+04  3.48514E+04 -3.55550E+03  2.41667E+04  2.00656E+04  6.59768E+03  3.38727E+04
 -1.58735E+04  3.10162E+04 -2.98553E+04  1.32185E+04 -1.90027E+04 -1.11785E+04 -4.74556E+03 -1.27293E+04
  1.11319E+03 -2.23155E+03 -1.34939E+03  8.24746E+03 -1.89030E+04  5.47557E+03 -1.29202E+04 -8.54063E+03
 -7.60014E+03 -1.86743E+04  4.65921E+03 -1.98551E+04  1.77224E+04 -1.85488E+04  1.76666E+04 -2.35849E+03
  1.11598E+04  1.18458E+04 -2.59238E+03  1.49096E+04 -7.83285E+03  7.63463E+03 -1.61204E+04 -7.37105E+03
 -1.00768E+04 -1.90041E+04 -5.70265E+03 -2.18514E+04  6.62881E+03 -2.17866E+04  1.58994E+04 -6.31932E+03
  1.51379E+04 -1.02359E+01  1.41490E+04  4.09307E+03  2.83378E+03  2.76666E+03  6.25664E+03 -2.57366E+03
  1.99005E+04  3.38266E+03  2.55557E+04  1.31953E+04  1.41157E+04  3.17768E+04 -1.79361E+03  2.84539E+04
 -1.98370E+04  2.55205E+04 -2.87090E+04  1.29446E+04 -3.34888E+04 -1.07557E+02 -2.71692E+04 -2.02741E+04
 -7.24927E+03 -2.62775E+04  4.37206E+03 -2.70372E+04  2.14055E+04 -1.41521E+04  1.48746E+04  3.66096E+03
  8.75283E+03  7.84497E+03 -1.00511E+04  1.28835E+04 -1.39731E+04  9.62439E+02 -8.75817E+03 -1.03029E+04
  3.01096E+03 -1.86579E+04  1.14707E+04 -9.71771E+03  8.09502E+03 -2.82282E+03  3.44913E+03  3.81536E+03
 -1.08647E+04  4.91595E+03 -5.24748E+03 -4.70165E+03  6.12702E+02 -1.68223E+04  8.14616E+03 -1.04140E+04
  1.80955E+04 -4.59864E+03  1.57320E+04  4.92051E+03  1.51175E+04  1.44778E+04  5.16064E+03  2.17970E+04
 -2.23338E+03  2.33760E+04 -1.25808E+04  1.00744E+04 -1.27593E+04  1.41748E+02 -8.78811E+03 -2.79421E+03
 -5.08021E+03 -2.60717E+03  9.66650E+02  4.00013E+03 -8.05265E+02  5.86975E+03 -3.98575E+03  4.88791E+03
 -1.00898E+04 -1.38744E+03 -1.51388E+04 -2.35650E+03 -5.28631E+03 -1.52064E+04  4.76608E+03 -1.27251E+04
  1.00339E+04 -7.57385E+03  6.40554E+03  3.79033E+03  2.40736E+03  3.06932E+03 -8.69148E+03 -1.37761E+03
 -5.93780E+03 -7.59591E+03 -3.68213E+03 -1.15117E+04  6.48192E+03 -8.38017E+03  1.11840E+04 -1.20545E+03
  1.22084E+04  4.81359E+03  1.01293E+04  9.77133E+03  1.11833E+02  1.52725E+04 -9.91074E+03  1.00448E+04
 -6.90943E+03  1.04472E+03 -6.93034E+03  9.75848E+02  1.31292E+03 -6.16365E+03  7.63443E+03  1.03729E+03
  1.09711E+03  1.88017E+03 -1.14903E+01  1.04977E+04 -7.28109E+03  8.14168E+03 -1.20182E+04  4.94063E+03
 -3.85381E+03 -5.55216E+03  6.14975E+02 -1.18843E+04  5.78418E+03 -1.28434E+01  3.54877E+03  4.51827E+03
  5.56144E+03  4.76483E+03 -6.03760E+03  1.06566E+04 -4.07578E+03  3.05028E+02 -6.96085E+02 -4.95788E+03
 -2.56014E+03 -3.09879E+03  4.33339E+03 -1.24517E+04  5.22744E+03 -6.04903E+03  6.86429E+03  4.29590E+03
  5.00596E+03  3.70788E+03  1.96794E+03  1.32422E+04 -7.18714E+03  1.15996E+04 -9.94194E+03 -3.29071E+02
 -6.33003E+03 -6.36968E+03 -6.84359E+03 -7.72604E+03 -4.44217E+02 -4.43445E+03  2.22408E+03 -2.89283E+03
  1.36745E+03 -1.94481E+03 -9.72357E+02  5.56368E+02 -1.01664E+03 -2.92836E+03 -1.51319E+03 -6.69443E+03
  2.47552E+03  3.85861E+03  9.53771E+03  4.23327E+02  1.08497E+04  4.19870E+03  6.84718E+03  1.18164E+04
  1.73450E+01  1.20545E+04 -1.21924E+04  7.13066E+03 -9.65712E+03 -1.46043E+03 -1.21168E+04 -3.63956E+03
 -4.28363E+03 -1.05002E+04 -3.77114E+03 -7.35372E+03  3.15865E+03 -1.21849E+03  6.31984E+03 -2.91945E+03
  6.54979E+03  4.20162E+03  3.51182E+03  2.97636E+03  4.46782E+03 -8.14141E+03  6.13087E+03  1.38326E+03
  3.73192E+03  1.18174E+03  1.79144E+03  2.69044E+03 -2.36010E+03  8.78762E+03 -7.29262E+03  9.00674E+03
 -1.06974E+04  1.60784E+03 -1.74926E+03 -6.61387E+03  2.70036E+03 -4.87292E+03  1.63099E+03 -8.18864E+03
  1.06738E+04 -2.64070E+03  1.16352E+04  4.44208E+03  6.41488E+03  1.13073E+04 -1.63852E+03  6.90663E+03
 -7.38878E+03  1.07095E+04 -9.73501E+03  3.76277E+03 -4.48797E+03  2.20194E+03 -2.96982E+03 -1.30611E+03
  1.73881E+03 -6.28517E+02 -5.75214E+03 -1.15241E+03 -4.41048E+02  5.59127E+03 -5.22028E+03 -9.37152E+02
 -4.00025E+03 -2.64841E+03  2.22203E+03 -4.48439E+03  6.94040E+03 -3.57871E+03  9.76443E+03 -5.11056E+03
  7.23783E+03  3.22731E+03  2.66087E+03  6.45594E+03  2.10568E+03  9.00677E+03 -1.02103E+04  2.11851E+03
 -1.57641E+04 -1.83436E+03 -5.35036E+03 -7.63526E+03  4.63036E+02 -4.40901E+03  1.19840E+03 -1.81735E+03
  6.03692E+03 -4.69746E+03  1.89754E+03 -4.90065E+03 -6.45010E+02 -6.15874E+02  5.04830E+03  1.30233E+03
  8.59347E+02  5.36086E+03  4.26019E+03  1.52847E+03  2.75362E+03  4.07806E+03  2.46297E+03  1.15811E+02
 -3.72502E+03  5.96716E+03 -6.98247E+03  8.83842E+03 -6.07486E+03  4.28125E+03 -4.77724E+03 -6.84264E+02
  3.08711E+03 -2.82102E+03 -2.20886E+03 -6.35967E+03  6.60874E+03 -2.51076E+03  3.76508E+03 -4.93077E+03
  3.91569E+03  2.46411E+03  4.57148E+03  4.68770E+03 -3.10917E+03  3.56563E+03 -2.50913E+03  3.41445E+03
 -4.42381E+03 -3.36502E+02  9.91707E+03 -2.06210E+03  3.03062E+03 -1.35683E+03  2.67013E+03 -3.13741E+03
 -3.52876E+03  1.21160E+03  2.46159E+03 -1.35578E+03  5.24968E+02  3.87711E+03 -1.17926E+03  2.22222E+03
 -6.69826E+02  2.55214E+03  2.63498E+03  2.70078E+03  9.79183E+02  3.37505E+03  2.34609E+02  7.66563E+03
 -5.10958E+03  3.34377E+03 -3.95002E+03  8.40666E+02 -3.00517E+03 -8.97674E+01 -1.09286E+03 -4.02713E+03
 -1.64423E+03  2.34575E+02  7.71386E+03  8.44800E+01  2.71446E+03  4.36751E+02  5.70928E+02  4.87984E+03
 -1.43786E+03 -1.07452E+03  3.15548E+02 -3.72690E+03 -2.34865E+03 -6.82212E+03  4.16608E+03 -2.75829E+03
  1.89717E+03 -2.58842E+03  6.07229E+03  1.78852E+03 -1.65324E+03 -2.49131E+02  9.64681E+00  5.77931E+03
 -3.76912E+03  3.98878E+03 -2.22088E+03 -2.97699E+03 -4.27395E+03 -6.39373E+03  1.00844E+03 -1.10897E+03
  2.27644E+03  3.42326E+03  2.16926E+03  3.27056E+03  5.71722E+03  3.22837E+03  7.53559E+02  7.71718E+03
 -5.67942E+03  5.61120E+02 -7.12910E+03 -2.24850E+03 -4.74980E+03 -6.39571E+03  5.03790E+03 -3.94769E+02
  3.62685E+03 -2.22898E+03 -2.73908E+02  8.77722E+03  1.70937E+03  3.90037E+03  2.07187E+03  3.13437E+03
  1.41642E+03  4.73973E+03 -2.15626E+02 -1.32605E+03  5.34923E+02  2.51912E+03 -4.36226E+03  1.80582E+03
  2.16099E+03  2.38856E+03 -5.09354E+03 -3.40652E+03 -5.18181E+03 -3.23555E+03 -2.63841E+03 -3.63398E+02
 -3.07296E+03 -8.77769E+03 -1.77443E+03 -7.61276E+03  8.69031E+02 -7.63045E+03  4.72583E+03  2.51844E+03
  7.50429E+03  1.27352E+03  1.48727E+03 -1.79440E+03  3.76277E+03  6.20214E+03 -2.27269E+03 -1.03293E+03
 -8.98585E+02  6.06237E+02 -1.75056E+03 -7.86162E+02 -1.09101E+03  7.89854E+02 -4.35486E+03 -1.75281E+03
 -4.14820E+03  9.65581E+02  6.65759E+02  1.69582E+03  4.68559E+02  1.88875E+03 -1.51832E+03 -1.36456E+03
  1.57842E+03  1.10523E+03  3.73646E+02 -2.78013E+03  2.18506E+03  2.58421E+03 -2.21771E+03 -1.68944E+03
 -1.39048E+03  5.85357E+03 -3.31630E+03  3.74211E+03 -4.60686E+03 -5.49794E+03 -6.17449E+03  1.74865E+03
  4.08594E+02 -3.40250E+02  3.34466E+03 -7.27164E+03  7.73430E+03 -9.97651E+02  9.71482E+01  6.24958E+02
  5.33942E+02 -2.03453E+03  3.26587E+03  1.91656E+03 -2.64519E+02 -1.81017E+03 -4.27907E+03  5.03105E+03
 -1.64250E+03  2.32125E+02 -1.13876E+03  5.09144E+01  2.43989E+03 -7.52125E+02  1.86296E+03  2.80549E+03
  1.86636E+03 -1.62584E+03  1.03993E+03  1.41712E+03 -4.97392E+03 -7.94463E+02  1.07489E+02 -2.97069E+03
 -1.38909E+03  2.30705E+03  3.36981E+03  4.38429E+02  5.17988E+03 -2.43299E+03  2.08882E+03 -7.09426E+01
  4.10270E+03 -2.94159E+03 -5.44745E+02  3.24626E+03  1.05733E+03 -4.03750E+03 -3.06348E+03  2.37603E+03
 -1.18716E+03 -2.29172E+03 -4.42965E+02  9.60255E+02 -5.60806E+03 -2.70275E+03  1.18152E+03 -3.89644E+03
 -4.59071E+03  1.12661E+03 -3.44553E+03 -2.61379E+03 -2.13054E+02 -7.14423E+03  7.63266E+02  1.10355E+03
  8.12467E+02 -3.07744E+03 -2.23670E+03 -3.52956E+03  2.68768E+03  1.41434E+03  2.89749E+03 -3.51376E+01
