 $NMID ID='MM_0lb_SNR50_20hz_g40_65.RAW', FMTDAT='(8E13.5)'
 TRAMP=1., VOLUME=1. $END
  3.07414E+05  4.65950E+03  3.32464E+05  2.49925E+05  8.14396E+04  3.37187E+05 -1.34435E+05  2.47921E+05
 -1.89871E+05  7.94392E+04 -1.10291E+05 -3.01710E+04  4.31173E+03 -4.76765E+04  5.85191E+04 -3.13095E+03
  3.51331E+04  5.27147E+04 -1.99584E+04  7.57110E+04 -5.92176E+04  5.98965E+04 -8.20689E+04  3.30094E+04
 -7.89288E+04 -7.77935E+03 -5.49826E+04 -4.74841E+04 -1.41766E+04 -6.72065E+04  2.63853E+04 -4.23746E+04
  4.05813E+04  1.88664E+02  1.66175E+04  4.54076E+04 -3.26485E+04  4.47749E+04 -6.64770E+04  3.01275E+03
 -4.99124E+04 -5.14822E+04 -4.75916E+03 -6.95224E+04  3.23182E+04 -5.50943E+04  4.46837E+04 -1.29447E+04
  3.73169E+04  9.53530E+03  2.99594E+04  2.29395E+04  1.60477E+04  2.97810E+04 -6.14702E+03  2.57676E+04
 -2.17684E+04  1.22443E+04 -2.30710E+04 -1.39430E+03  6.67583E+03 -1.13777E+04  2.13621E+04  6.66463E+03
  1.02752E+04  3.07375E+04 -2.75409E+04  3.30069E+04 -6.19553E+04  4.47043E+03 -4.86260E+04 -4.07274E+04
 -1.01337E+04 -5.96168E+04  3.57038E+04 -3.98643E+04  5.27449E+04  1.99765E+01  3.12787E+04  2.46289E+04
 -8.35502E+03  3.19068E+04 -2.90842E+04  1.42412E+04 -2.67170E+04 -2.36794E+03 -1.63087E+04 -1.27525E+04
 -9.07948E+03 -9.44647E+03  9.34077E+01 -1.33833E+04  9.71488E+03 -2.15684E+04  1.64120E+04 -1.18976E+04
  1.03921E+04  5.12881E+03 -6.79676E+02  1.47270E+04 -1.95151E+04 -2.13174E+03 -2.88364E+03 -2.62853E+04
  1.88670E+04 -3.98030E+04  4.99110E+04 -1.95891E+04  4.06214E+04  1.48333E+04  1.29686E+04  4.00654E+04
 -1.36832E+04  3.11424E+04 -2.07596E+04  2.27980E+03 -1.26732E+04 -2.48898E+04  2.29882E+04 -2.76120E+04
  3.58635E+04 -7.88778E+03  2.97577E+04  2.38929E+04  1.52460E+04  3.58643E+04 -1.29719E+03  3.87856E+04
 -2.91951E+04  2.56010E+04 -3.61447E+04  9.69356E+03 -3.69339E+04 -1.77703E+04 -2.64927E+04 -3.33296E+04
  7.38951E+03 -2.94284E+04  3.04482E+04 -1.21691E+04  2.31544E+04  1.34045E+04  4.55307E+03  1.54086E+04
 -1.38399E+04  5.59835E+03 -8.63249E+03 -3.82592E+03  7.31446E+03 -8.92496E+03  1.60430E+04  3.78469E+03
  1.25159E+04  2.39450E+04 -7.06607E+03  2.25619E+04 -2.10159E+04  5.00847E+03 -2.58527E+04 -7.78738E+03
 -1.60573E+04 -1.67911E+04 -5.19797E+03 -1.57646E+04  4.18815E+03 -1.33281E+04  1.11292E+04 -1.23858E+04
  1.88384E+04 -4.95357E+03  2.62514E+04  2.18435E+02  1.73680E+04  1.44363E+04  3.09823E+03  3.53804E+04
 -1.20384E+04  2.56189E+04 -2.52581E+04  9.09533E+03 -1.77533E+04 -8.12782E+03 -4.56139E+03 -1.32999E+04
  2.21408E+03 -1.61167E+03 -1.36750E+03  3.90249E+03 -1.03660E+04  4.06336E+03 -1.44816E+04 -2.14450E+03
 -9.26343E+03 -1.13549E+04  6.61244E+03 -2.16699E+04  8.14042E+03 -9.02345E+03  1.22008E+04 -1.22297E+03
  9.33701E+03  1.21041E+04 -2.28026E+03  1.57185E+04 -1.09921E+04  7.13004E+03 -1.49930E+04 -2.80102E+03
 -9.83329E+03 -1.61524E+04 -2.18829E+03 -1.51678E+04  4.16563E+03 -1.04457E+04  1.43145E+04 -6.35752E+03
  1.10378E+04  4.02024E+03  8.93312E+03  1.92853E+03  6.88031E+03 -3.31173E+03  5.66330E+03  6.66133E+02
  1.31467E+04  3.31011E+03  1.64608E+04  1.23437E+04  8.56379E+03  2.23240E+04 -4.99994E+03  2.03567E+04
 -1.63198E+04  1.93687E+04 -1.90796E+04  8.70145E+03 -2.31724E+04 -5.13660E+03 -1.82783E+04 -1.11529E+04
 -8.59717E+03 -2.22446E+04  5.17036E+03 -1.84209E+04  9.89312E+03 -5.74321E+03  1.98791E+04  4.21556E+03
  6.10804E+03  9.15475E+03 -4.89013E+03  9.00269E+03 -1.13699E+04  4.69020E+03 -9.40563E+03 -5.02556E+03
 -2.38035E+02 -1.36248E+04  4.11351E+03 -8.74582E+03  5.04293E+03  1.35696E+03  8.21638E+02  2.28494E+03
 -1.30282E+03  8.13243E+02 -2.50710E+03 -5.08015E+03 -8.78766E+02 -8.59983E+03  9.25006E+03 -7.85201E+03
  1.15235E+04 -4.24591E+03  9.87405E+03  1.58572E+03  6.26993E+03  8.34549E+03 -1.58810E+01  1.65028E+04
 -2.00426E+03  1.28451E+04 -7.50625E+03  7.60373E+03 -1.33718E+04  5.81258E+03 -5.35769E+03  1.65216E+03
 -4.98462E+03 -7.45100E+03 -5.25830E+01 -2.60458E+03 -1.00193E+03 -1.10259E+03 -2.08535E+03  4.14541E+03
 -9.19761E+03 -3.53132E+03 -5.09604E+03 -8.66546E+03 -2.20076E+02 -1.33508E+04  5.40547E+03 -6.28098E+03
  8.32228E+03 -2.46171E+03  4.47766E+03  1.44013E+03  2.15876E+02  5.01072E+03  1.64361E+03 -3.95934E+03
 -6.25826E+02 -5.15238E+03 -2.16236E+03 -8.05171E+03  9.38497E+02 -5.42831E+03  9.12298E+03 -1.70412E+03
  8.12780E+03  6.77237E+02  9.79939E+03  5.07855E+03 -5.70206E+02  6.27060E+03 -8.24010E+02  5.01239E+03
 -7.31042E+03  5.50905E+03  1.88100E+03  2.44083E+03  1.11770E+02 -5.42196E+03  5.75948E+03 -1.50721E+03
  4.98824E+03  8.48448E+02  9.11584E+02  6.11559E+03 -3.20559E+03  3.90530E+03 -7.34932E+03  4.13273E+03
 -3.45205E+03 -4.83446E+03  2.55160E+03 -5.99657E+03  5.51158E+03 -1.68194E+03  4.04620E+03 -9.80875E+01
 -1.21540E+03  2.13637E+03 -1.55744E+03  2.53520E+03 -6.05774E+03  4.63437E+03 -2.05722E+03 -2.80377E+03
  3.03496E+03 -6.93617E+03  5.19337E+03 -6.72368E+03  6.82816E+03 -5.36214E+03  4.85735E+03 -4.17527E+02
  4.21329E+03  3.45621E+03 -1.23509E+03  6.63812E+03 -9.13660E+03  1.72567E+02 -2.51434E+03 -9.26555E+01
 -3.94202E+03 -4.44012E+03 -1.22287E+03 -6.79962E+03  2.36743E+03 -5.10777E+03  1.01608E+03 -4.09227E+03
  2.79079E+03  1.86529E+02  4.48283E+03  1.31615E+03  6.50561E+02  2.43819E+03 -5.02084E+02 -8.29362E+02
  1.32708E+02 -3.45173E+03  1.40646E+03 -1.85568E+03  5.46636E+03  2.89165E+03  5.63086E+03  4.17930E+03
  1.60893E+03  7.26556E+03 -4.97994E+03  5.45380E+03 -7.44012E+03 -6.80314E+02 -4.98097E+03  4.15892E+03
 -3.94375E+03 -3.99889E+03 -4.55074E+03 -3.14920E+03  5.59281E+02 -1.53613E+03  2.21947E+03 -2.10528E+03
  5.29124E+02  1.49469E+03  4.08514E+03 -7.29805E+01 -3.47114E+03  1.19343E+03  1.89964E+03  3.78781E+02
  7.62659E+03  3.29218E+03  7.61426E+02  5.06652E+03 -3.43645E+03  3.14443E+03 -4.16438E+03  4.64353E+03
 -7.36778E+02  1.47929E+03 -4.14047E+03 -1.29312E+03 -8.85286E+02 -2.00751E+03  3.96782E+03 -3.89520E+03
  3.69338E+03 -2.22117E+03  7.90176E+03 -9.61019E+02  4.36225E+03  1.87402E+03  3.17322E+03  5.76068E+03
  1.90057E+03  3.24224E+03 -8.39593E+02  9.17858E+02  2.99128E+03  5.21238E+03 -3.37233E+03 -1.71233E+03
 -4.16473E+03 -7.48737E+01  2.25837E+02  1.61431E+02 -8.33622E+02  2.14788E+03 -6.11512E+02  6.26767E+03
 -4.42754E+03  2.09230E+01 -1.07177E+02  1.01204E+03  6.47337E+02 -3.69264E+03  4.99434E+03  1.04636E+03
  2.92104E+03  7.03174E+02  2.83793E+02  2.29006E+03  1.56533E+03  1.65468E+02 -1.47189E+03  4.16298E+01
 -4.46108E+03  4.67677E+02 -3.56577E+03 -2.50898E+03  1.76889E+03 -4.83312E+03  9.46123E+02 -2.76158E+03
  1.49527E+03 -1.28334E+03  3.79052E+03 -1.36337E+03  1.24957E+03 -2.76409E+03 -1.67874E+03  1.39138E+03
  5.15390E+02  8.31852E+02  1.04498E+03  2.91165E+03 -6.20585E+01  1.23397E+03 -1.58505E+03 -3.43383E+02
 -2.20997E+03  6.23228E+03  6.33953E+02  3.82793E+03 -4.15473E+03  1.36882E+03 -1.22857E+03 -3.24807E+03
 -7.39961E+00 -5.66831E+03  1.10950E+03 -4.58514E+03  1.70123E+03 -6.50981E+02  6.14884E+03 -1.98889E+03
  2.67993E+03 -4.73018E+02  6.86783E+02  3.42351E+03 -1.96536E+02  3.88912E+03 -7.28438E+02  5.71061E+02
  5.03295E+02  6.56324E+01  1.09695E+03  3.62960E+03  4.24789E+03 -3.91651E+02  2.76887E+03  1.76839E+03
  2.45338E+03  4.97696E+02 -7.43272E+02 -2.38290E+03 -3.20401E+03  1.41261E+02  2.64878E+02  3.06525E+02
 -1.89786E+02  2.10475E+03 -3.14474E+01 -3.24240E+03 -8.49353E+02  2.80615E+03  8.28984E+02 -4.48094E+02
 -2.68464E+03 -2.17773E+03 -2.85704E+03  3.92662E+03 -9.07833E+02  2.38736E+03  6.93957E+02 -8.84086E+02
  2.40996E+03 -1.66866E+03  1.17213E+03  2.15460E+02 -3.19407E+03  1.15326E+03  9.96251E+02  2.51957E+02
 -3.17417E+02  4.30439E+03 -1.83825E+03  3.15540E+02 -2.05294E+02 -4.20426E+03 -3.60383E+03 -2.84001E+03
 -4.67572E+02  1.94776E+03  2.57048E+02 -9.67867E+02  5.03729E+03 -1.70659E+03  3.92545E+02 -1.22494E+03
  4.76154E+01 -1.21089E+03 -4.14968E+03  2.37866E+03 -3.88977E-01  4.45677E+03  2.78002E+03  1.90810E+03
 -1.59698E+03 -5.24470E+03  2.23487E+03 -8.29224E+02  8.92265E+02  2.45393E+03 -7.70179E+01  1.35351E+03
  2.26748E+02 -2.01574E+03 -4.01878E+03  1.10499E+03 -1.56850E+03 -3.72801E+02  2.02058E+03  2.78789E+03
 -3.31553E+02 -4.40942E+03  5.16588E+01  9.45980E+02 -4.01067E+03  6.49853E+03  3.22930E+03 -1.08293E+03
 -1.82069E+03 -1.94959E+03 -2.88752E+03 -4.28627E+02  2.88345E+02  2.51615E+03  1.43961E+02  3.30253E+02
  2.82548E+03  2.55953E+03 -2.56291E+03  1.25756E+03 -2.04466E+03 -2.93407E+03 -1.47300E+03 -2.15341E+03
  2.77947E+03 -4.58218E+02  1.53680E+03  2.68245E+03 -1.30518E+02  2.91667E+02  1.12429E+03 -2.73255E+02
  1.75133E+03  3.08126E+03  4.48714E+02  1.28364E+03 -8.49286E+02 -6.84468E+02 -4.57235E+02 -1.43387E+03
 -7.27664E+02 -1.35885E+02 -1.86675E+03  1.79462E+03 -1.82620E+03  1.24659E+03 -4.43703E+03  3.00881E+02
  3.61350E+03 -1.77260E+03  9.55761E+02  3.52534E+02  1.93878E+02 -8.93083E+02 -3.44285E+03 -1.62999E+03
  2.16558E+03 -9.94920E+02  3.78367E+02  1.52945E+03  1.61440E+03  1.07875E+03 -1.58973E+03  3.92684E+03
 -2.44277E+03 -7.98077E+02 -1.88422E+02  3.48397E+03  2.25492E+03 -5.60085E+02 -1.36207E+03 -1.80691E+03
  7.38339E+02  7.69603E+02 -1.85611E+03 -6.77583E+02 -2.71104E+03  5.98112E+03 -1.41048E+03 -2.43145E+03
 -1.43205E+03 -2.34356E+03  1.60461E+03  5.19864E+02  1.34047E+03  6.16415E+02  1.45939E+03 -3.64946E+03
  1.25774E+03  1.20195E+03 -1.38280E+03  3.03524E+03  5.74341E+01 -2.65518E+03 -4.28866E+03 -1.63322E+03
 -3.93447E+02 -1.03706E+03 -8.48828E+02 -3.18947E+03 -1.34798E+03  2.45411E+03  1.71968E+03 -1.04005E+02
  1.71210E+03  8.60417E+02 -9.20908E+02 -2.19576E+03  2.69727E+03  1.82833E+03  1.67447E+02 -1.07970E+03
 -8.69460E+02  2.79607E+03 -1.81249E+03  6.60876E+03  2.09707E+03 -3.38034E+03  1.80943E+03  1.88545E+02
  5.25540E+02 -7.95541E+02  3.55852E+02  2.58072E+03  1.13958E+03  1.30453E+03 -4.04056E+02 -2.30759E+03
 -3.21662E+03 -1.01803E+03  2.40127E+03 -3.40787E+03 -3.35817E+03  3.39403E+02 -5.06122E+02 -5.74319E+02
  8.69680E+02  5.18937E+03 -2.45398E+03 -6.46098E+03 -6.06208E+02  1.48583E+03  1.35253E+03 -1.81410E+02
