 $NMID ID='MM_0lb_SNR50_7hz_g60_48.RAW', FMTDAT='(8E13.5)'
 TRAMP=1., VOLUME=1. $END
  3.07980E+05  1.51527E+03  3.41113E+05  2.53056E+05  8.00317E+04  3.43795E+05 -1.24533E+05  2.49990E+05
 -1.91045E+05  8.02887E+04 -1.18008E+05 -2.15655E+04 -4.37862E+03 -4.85458E+04  5.30757E+04  3.87171E+02
  4.15731E+04  6.47216E+04 -1.39367E+04  7.30129E+04 -6.62504E+04  6.21998E+04 -9.09818E+04  3.37885E+04
 -8.48660E+04 -1.18667E+04 -6.32069E+04 -5.11710E+04 -9.16434E+03 -7.89682E+04  3.60274E+04 -4.40085E+04
  4.39261E+04  7.56549E+03  2.05230E+04  5.49982E+04 -3.41733E+04  5.58812E+04 -7.11980E+04 -4.88232E+01
 -6.56281E+04 -5.48616E+04 -5.83664E+03 -8.00932E+04  3.34022E+04 -6.25491E+04  5.49188E+04 -1.72744E+04
  4.71037E+04  1.43285E+03  2.66904E+04  2.18640E+04  1.34981E+04  2.88085E+04 -7.24196E+03  3.23103E+04
 -2.99524E+04  2.81198E+03 -2.10757E+04 -1.28020E+04  9.72098E+02 -7.60122E+03  1.73890E+04  1.72851E+04
  5.88761E+03  3.72426E+04 -2.77719E+04  3.90050E+04 -6.46618E+04  9.36903E+03 -5.25378E+04 -4.55552E+04
 -9.34004E+03 -6.90389E+04  3.54428E+04 -4.40727E+04  4.84125E+04 -3.05409E+03  3.79913E+04  3.85949E+04
 -1.28565E+03  4.05430E+04 -3.21498E+04  1.73864E+04 -3.64722E+04 -2.48502E+03 -1.54514E+04 -1.17754E+04
 -6.69776E+03 -1.82594E+04 -4.78350E+02 -2.32682E+04  1.23479E+04 -2.03695E+04  1.12580E+04 -1.67799E+04
  1.24456E+04  1.21016E+03 -1.18791E+04  1.54972E+04 -2.03764E+04 -4.98034E+03 -3.99372E+03 -4.20199E+04
  3.05718E+04 -4.66062E+04  6.46656E+04 -2.26767E+04  5.46893E+04  1.47891E+04  2.06324E+04  4.52297E+04
 -1.19208E+04  3.31532E+04 -3.10452E+04 -4.29529E+03 -1.12832E+04 -3.09367E+04  2.46639E+04 -4.21138E+04
  4.58229E+04 -7.65824E+03  3.88378E+04  2.89754E+04  2.74900E+04  4.74134E+04 -6.94527E+03  6.27411E+04
 -3.41436E+04  3.96993E+04 -5.39873E+04  2.81054E+04 -4.60165E+04 -2.73014E+04 -3.78918E+04 -4.81810E+04
 -1.91563E+02 -4.07901E+04  3.79288E+04 -1.32318E+04  3.49599E+04  1.52671E+04  5.71841E+03  2.57837E+04
 -1.40521E+04  1.39610E+04 -1.84452E+04 -1.51875E+04  9.68900E+03 -1.26410E+04  1.96984E+04  1.69031E+04
  1.64119E+04  2.53931E+04 -2.54788E+03  2.98250E+04 -2.52863E+04  1.76941E+04 -3.66937E+04 -2.69009E+02
 -3.22196E+04 -1.37568E+04 -2.20753E+04 -2.97458E+04 -3.88964E+03 -3.45345E+04  2.22136E+04 -2.04622E+04
  3.47090E+04 -1.58484E+04  4.13412E+04  7.77536E+03  2.98320E+04  3.10698E+04 -9.67907E+02  4.03156E+04
 -1.83870E+04  3.82156E+04 -3.38628E+04  1.45229E+04 -2.19288E+04 -1.14551E+04 -1.77217E+04 -1.51433E+04
 -7.20692E+03 -4.13698E+02 -2.18364E+03  3.46889E+03 -1.97932E+04  6.47367E+03 -2.00201E+04 -8.77700E+03
 -1.28967E+04 -2.78576E+04  7.19160E+03 -3.37644E+04  2.45534E+04 -2.71956E+04  1.88337E+04  3.51528E+03
  1.56074E+04  1.82542E+04  2.77109E+03  2.12675E+04 -2.04642E+04  1.53694E+04 -2.84990E+04 -4.60817E+03
 -1.69148E+04 -1.33883E+04 -2.83083E+02 -3.46675E+04  6.55333E+03 -2.55772E+04  2.96565E+04 -1.61128E+04
  2.81885E+04 -3.29954E+03  1.54816E+04  1.03375E+04  8.55276E+03 -2.16992E+03  6.23000E+03 -2.25784E+03
  2.55652E+04  6.62438E+03  2.88377E+04  2.46189E+04  1.40752E+04  4.58959E+04 -5.02586E+03  4.77627E+04
 -2.36604E+04  4.30027E+04 -4.36344E+04  2.75545E+04 -5.13438E+04  4.44720E+03 -4.12804E+04 -2.65808E+04
 -1.65316E+04 -4.90574E+04  1.89184E+04 -3.29803E+04  3.71135E+04 -2.52335E+04  2.81827E+04  1.17667E+04
  7.21233E+03  1.45906E+04 -1.14363E+04  2.80214E+04 -2.21696E+04  1.08148E+03 -1.05330E+04 -1.92201E+04
  2.42309E+03 -1.53856E+04  1.02298E+04 -1.45207E+04  2.08285E+04 -9.67587E+03  5.66666E+03  1.13448E+04
 -1.08034E+04  7.38935E+03 -1.17244E+04 -8.13216E+03 -1.39908E+03 -2.34483E+04  1.34363E+04 -2.28239E+04
  2.80573E+04 -1.49549E+04  3.28316E+04 -2.06429E+03  3.26980E+04  2.15455E+04  9.16636E+03  2.82831E+04
 -1.06650E+04  3.41433E+04 -2.58572E+04  1.77320E+04 -2.82374E+04  5.89858E+02 -1.63778E+04 -1.35078E+04
 -1.05185E+04 -7.13378E+03  3.74920E+02  7.54605E+02  2.45698E+03  5.38517E+03 -7.79270E+03  1.18500E+04
 -1.85910E+04 -1.07643E+03 -2.22985E+04 -1.42743E+04 -8.51191E+03 -1.70744E+04  5.14995E+03 -1.43267E+04
  1.84467E+04 -2.92168E+03  1.45449E+04  4.49396E+03  3.74445E+02  7.71965E+03 -1.04350E+04 -5.96583E+03
 -7.99754E+03 -7.23756E+03 -3.40287E+03 -2.12621E+04  1.56590E+04 -1.37117E+04  2.46456E+04 -1.32286E+04
  3.41133E+04  2.21414E+03  1.33124E+04  2.04383E+04  1.09692E+04  1.70654E+04 -8.51447E+03  2.08303E+04
 -1.65486E+04 -3.75990E+02 -9.24433E+03 -2.12719E+03  2.06574E+03 -1.90715E+03  1.10141E+04 -2.76808E+03
  3.82935E+03  1.20297E+04 -3.34710E+03  1.10206E+04 -1.22931E+04  1.56207E+04 -2.00570E+04  8.04166E+03
 -1.52017E+04 -1.19340E+04 -4.69188E+03 -1.85758E+04  8.95036E+03 -7.77513E+03  6.97617E+03  1.22306E+03
  1.01693E+03  1.49231E+04 -1.48395E+04  1.18859E+04 -1.89239E+04  6.70935E+03 -1.39440E+04 -1.27620E+04
 -1.05377E+04 -2.00995E+04  6.63788E+03 -1.78433E+04  1.25330E+04 -1.44828E+04  2.66299E+04  6.48869E+03
  4.38685E+03  9.34711E+03 -1.99177E+03  2.18009E+04 -9.81496E+03  9.58546E+03 -1.03373E+04 -4.97655E+02
 -8.28305E+03 -1.37852E+04  2.43628E+02 -4.47862E+03  1.64476E+02 -1.18247E+04  9.83720E+03 -4.09839E+03
  6.17066E+03  2.96389E+03 -7.69726E+03  5.52870E+03  3.96874E+03 -5.37797E+03  1.77915E+03 -1.56435E+04
  9.22599E+03 -5.65162E+03  1.95604E+04  3.14926E+03  2.02436E+04  2.41125E+04  4.61722E+03  2.50015E+04
 -3.34905E+03  3.46647E+04 -2.88426E+04  2.09873E+04 -2.81144E+04  2.10845E+03 -2.47125E+04 -1.89825E+04
 -1.65124E+04 -2.49974E+04  1.59684E+03 -2.01111E+04  2.17466E+04 -1.56571E+04  5.40344E+03 -5.01471E+03
  1.49840E+03 -9.14560E+03 -7.19215E+02 -5.69909E+03  7.64637E+03 -1.10188E+04  1.53939E+03 -1.31328E+03
  1.21068E+04  2.29873E+03  1.89225E+03  2.05786E+04 -2.21147E+03  1.32614E+04 -1.69123E+04  1.50355E+04
 -1.93368E+04 -2.05013E+03 -9.98985E+03 -7.81294E+03 -8.04134E+03 -2.43289E+04  1.12539E+04 -1.65615E+04
  1.72934E+04 -9.65546E+03  3.55980E+04  7.23411E+03  2.22620E+04  2.37647E+04  5.36488E+03  1.90093E+04
 -1.25430E+04  2.76292E+04 -1.33662E+04  1.27564E+04 -5.01159E+03 -2.01704E+02 -1.06384E+04 -3.51248E+03
 -5.08348E+03 -2.05243E+03 -8.66016E+03  6.62963E+03 -1.04539E+04 -4.44299E+03 -1.32986E+04  2.58278E+03
 -1.00548E+04 -1.53367E+04  1.82609E+03 -2.02449E+04  2.09319E+04 -2.03032E+04  1.95123E+04 -2.08359E+03
  1.09120E+04  1.55433E+04  1.28303E+04  1.19078E+04 -9.58286E+03  2.53175E+04 -1.90697E+04  5.75660E+03
 -1.83379E+04  4.50251E+03 -9.81168E+03 -2.08263E+04 -4.62848E+03 -1.11949E+04  1.53695E+04 -1.58230E+04
  7.60364E+03 -8.52183E+03  7.96763E+03 -2.16977E+03  3.69943E+03  4.70234E+03  4.14489E+03 -5.65478E+02
  1.34980E+04  3.29459E+02  1.19558E+04  2.49252E+03  1.01068E+04  1.06524E+04  5.92718E+03  1.47103E+04
 -2.61988E+03  1.66587E+04 -1.56668E+04  1.43931E+04 -2.51771E+04  7.72179E+03 -2.14159E+04 -5.83015E+03
 -1.37768E+04 -1.70636E+04  6.06485E+03 -1.72065E+04  1.51173E+04 -2.06144E+04  1.70691E+04 -6.83769E+03
  1.21767E+04  7.80009E+03 -8.04744E+02  8.61484E+03 -1.15239E+04  5.96682E+03 -1.20614E+04  5.04991E+03
 -1.07211E+04 -5.70392E+03  2.82157E+03 -1.30252E+04  1.18216E+04  3.94661E+03  1.49540E+04  7.88622E+03
  3.34462E+03  3.41563E+02 -2.12974E+03  3.16327E+03 -5.46802E+03  1.18945E+04 -3.23493E+02  3.22986E+03
  6.98013E+03 -3.57635E+03  6.02997E+03  9.54604E+03  6.10269E+03  1.41554E+04 -8.53059E+03  1.71105E+04
 -1.24024E+04  7.86655E+03 -1.21927E+04  5.22996E+03 -1.35847E+04 -3.93754E+03 -8.90344E+03 -1.25001E+04
  1.97328E+03 -1.12678E+04  1.01944E+04 -5.73973E+02  1.36916E+04  3.23529E+03 -1.64879E+03  5.52603E+03
 -1.18924E+04  1.77007E+03 -5.87024E+03 -7.66841E+03 -3.09469E+02 -1.20723E+04 -4.70421E+02 -1.16238E+04
  6.52632E+03 -1.38583E+04  1.30101E+04 -4.08649E+03  1.41319E+03  1.36594E+03  5.88329E+03  1.17848E+04
 -2.49704E+03  3.59767E+03 -9.70439E+03 -5.55250E+03  2.88061E+03 -3.49734E+03  1.09096E+04 -1.09761E+02
  1.58976E+04 -1.20332E+03  1.21995E+04  1.66963E+04 -1.32579E+03  1.13522E+04 -1.44835E+04  1.22232E+04
 -1.48155E+04  1.30057E+04 -1.77574E+04 -4.09978E+03 -2.07782E+02 -3.44928E+03  1.04996E+03 -6.20266E+03
  7.20672E+03 -2.36130E+03  1.21962E+04 -3.60570E+03  1.53358E+03  8.26416E+03 -2.12691E+03  1.53177E+03
 -5.85100E+03  5.10056E+03 -2.39184E+03  6.25508E+02 -1.69963E+03 -2.43054E+02  3.67625E+03 -2.66941E+03
 -9.30082E+03 -2.07378E+02 -1.46512E+04  2.28596E+03 -1.10878E+04 -7.34780E+02 -2.42104E+04 -1.54043E+04
 -8.50212E+03 -2.62414E+04  7.95919E+03 -1.77235E+04  1.39386E+04 -1.71604E+04  2.15599E+04 -2.83603E+03
  1.73657E+04  1.44852E+04  1.39067E+04  1.48406E+04 -4.10933E+03  2.30293E+04  1.23833E+03  1.11939E+04
 -1.36329E+04  6.44451E+03  2.20306E+03 -1.87034E+03 -3.92087E+03 -3.12846E+03  3.12572E+03  1.41835E+03
 -7.32865E+03  7.25106E+01 -9.96825E+03 -3.00315E+03 -9.79433E+03 -9.71672E+03 -1.42377E+03 -8.02442E+03
  2.76645E+03 -4.63603E+03  8.12840E+03 -1.04503E+03  1.82613E+04  5.67513E+03  3.49048E+02  1.17260E+04
  5.40169E+02  2.35178E+04 -1.20010E+04  1.21574E+04 -1.90932E+04  7.74806E+02 -6.37369E+03 -5.28494E+03
 -1.23587E+03 -1.90857E+04  6.62981E+03 -1.38259E+04  1.22610E+04 -9.73892E+03  1.09382E+04  2.66053E+02
  6.55132E+03  7.24871E+03  3.14007E+03  8.56568E+03  7.61867E+03 -4.78776E+03  1.82726E+03 -2.54311E+03
  7.22568E+03  5.69471E+03  8.69842E+03 -7.26319E+02  2.54458E+03  6.63363E+03 -4.44676E+03  1.13512E+04
 -7.36391E+03  1.10914E+04 -6.15560E+03  1.63385E+03 -1.56527E+04 -5.28556E+03 -9.23734E+03 -1.36059E+04
  8.49732E+03 -1.10493E+04  1.77094E+04  1.62612E+03  9.44373E+03  1.04637E+04  1.35201E+04  1.28674E+04
  5.16262E+03  1.02751E+04 -5.74203E+03  1.11204E+04 -9.34893E+03  1.05269E+04 -1.03333E+04  7.25459E+03
 -9.37031E+03 -2.83316E+03 -1.48440E+03  2.13642E+03 -2.27858E+02  3.06766E+03 -1.07739E+04 -4.70574E+03
 -4.39015E+03 -1.03851E+04 -6.59333E+03 -1.75813E+04  6.80239E+03 -1.13547E+04  1.75635E+04 -1.22210E+04
  7.03790E+03  2.28909E+03  9.65577E+03  6.39820E+03  3.55370E+03  9.61884E+03 -1.09174E+04  1.18814E+03
