 $NMID ID='MM_0lb_SNR50_14hz_g45_8.RAW', FMTDAT='(8E13.5)'
 TRAMP=1., VOLUME=1. $END
  3.09349E+05 -2.16216E+03  3.30773E+05  2.45361E+05  8.12375E+04  3.39999E+05 -1.35850E+05  2.48837E+05
 -1.90788E+05  8.05147E+04 -1.08338E+05 -3.29790E+04  2.87248E+03 -4.88785E+04  5.41420E+04 -3.74765E+03
  3.28762E+04  5.06852E+04 -1.57377E+04  7.33205E+04 -6.48537E+04  6.13320E+04 -8.74640E+04  2.62648E+04
 -7.81415E+04 -1.08395E+04 -5.39699E+04 -5.38478E+04 -1.13415E+04 -7.27526E+04  2.84826E+04 -4.89462E+04
  3.76716E+04  3.97858E+03  1.49811E+04  4.34345E+04 -3.48831E+04  4.33185E+04 -6.22408E+04  3.57763E+03
 -5.38013E+04 -5.40552E+04 -1.10064E+04 -7.56002E+04  3.03923E+04 -5.15182E+04  4.64535E+04 -1.80565E+04
  4.25225E+04  9.83075E+03  3.41354E+04  2.35910E+04  1.39546E+04  2.84327E+04 -6.22429E+03  2.62485E+04
 -2.13427E+04  1.04121E+04 -2.23655E+04 -3.74312E+03  3.88611E+03 -1.30237E+04  2.35625E+04  1.10398E+04
  4.38161E+03  3.50309E+04 -3.12348E+04  4.11937E+04 -6.36968E+04 -2.71720E+03 -5.93737E+04 -4.34444E+04
 -1.24019E+04 -6.53345E+04  4.19916E+04 -4.52893E+04  5.58463E+04 -4.90436E+03  3.39000E+04  3.19064E+04
 -6.24048E+03  3.60502E+04 -3.76320E+04  1.20320E+04 -2.58044E+04 -2.94326E+03 -1.29370E+04 -9.70916E+03
 -1.06140E+04 -1.16842E+04 -5.96772E+03 -1.85325E+04  1.08925E+04 -2.24054E+04  1.25661E+04 -1.25352E+04
  9.56298E+03  3.15343E+03 -1.50285E+03  1.56050E+04 -2.29534E+04 -2.43316E+03 -4.41824E+03 -3.63906E+04
  2.28225E+04 -4.33231E+04  4.37596E+04 -1.41284E+04  4.38768E+04  1.36625E+04  1.68746E+04  3.88379E+04
 -1.78458E+04  3.03513E+04 -2.36855E+04  2.12337E+03 -6.28958E+03 -3.22889E+04  1.87095E+04 -3.37147E+04
  3.67589E+04 -1.15752E+04  2.92551E+04  2.47461E+04  1.81188E+04  4.45523E+04 -1.35042E+04  4.75504E+04
 -2.62074E+04  3.29963E+04 -4.39445E+04  9.27708E+03 -3.62554E+04 -2.02245E+04 -2.50379E+04 -3.99190E+04
  5.40877E+03 -3.63107E+04  3.29006E+04 -1.44493E+04  2.60560E+04  1.10928E+04  3.87133E+03  1.61557E+04
 -1.36407E+04  7.69387E+03 -5.87357E+03 -9.28953E+03  4.75997E+03 -6.33488E+03  1.74164E+04  6.38181E+01
  9.97007E+03  2.27831E+04 -1.22935E+04  2.74793E+04 -2.34802E+04  1.24220E+04 -3.01925E+04 -5.59868E+03
 -1.94897E+04 -1.61306E+04 -5.64742E+03 -2.23184E+04 -4.33068E+00 -2.03384E+04  1.15085E+04 -1.57798E+04
  2.77139E+04 -1.28130E+04  3.56456E+04  7.38678E+03  2.56909E+04  1.75342E+04 -2.13828E+03  3.59010E+04
 -1.89083E+04  3.26359E+04 -2.35985E+04  1.32939E+04 -2.13887E+04 -8.71339E+03 -5.69438E+03 -1.47649E+04
  4.32401E+02 -4.39895E+03 -5.58851E+03  5.07303E+03 -1.43277E+04  5.59696E+03 -1.79818E+04 -6.15449E+03
 -8.47075E+03 -1.57677E+04  3.65540E+03 -2.32101E+04  1.79368E+04 -1.78665E+04  1.68296E+04 -4.75716E+03
  1.26579E+04  9.72612E+03  2.19346E+02  1.92822E+04 -1.38533E+04  1.04692E+04 -1.49506E+04 -5.86129E+03
 -1.81802E+04 -2.02168E+04 -5.26497E+03 -2.52301E+04  7.92683E+03 -1.94102E+04  1.78013E+04 -6.55448E+03
  1.76805E+04  3.38022E+02  1.23001E+04  9.84981E+03  2.54330E+03  3.23436E+03  4.11650E+03 -1.11035E+03
  1.67192E+04  4.36671E+03  1.88669E+04  1.67782E+04  1.14047E+04  3.11446E+04 -3.20716E+03  3.27504E+04
 -1.86791E+04  2.39039E+04 -3.23767E+04  1.19897E+04 -3.25749E+04 -5.97256E+03 -2.81757E+04 -1.52733E+04
 -1.26156E+04 -2.36105E+04  8.74168E+03 -2.86556E+04  2.44989E+04 -1.29017E+04  1.95632E+04  5.05252E+03
  1.06069E+04  1.22180E+04 -1.22907E+04  1.12674E+04 -2.07280E+04  4.85465E+03 -1.17054E+04 -8.37774E+03
 -4.18397E+02 -1.81842E+04  9.81950E+03 -9.35149E+03  1.20694E+04  9.16167E+01  2.18941E+03  1.07598E+04
 -7.08096E+03  2.08074E+03 -6.59703E+03 -6.73427E+03 -1.15343E+03 -1.53263E+04  1.41241E+04 -1.01733E+04
  9.89028E+03 -1.18943E+04  1.90567E+04  5.86398E+02  9.82462E+03  1.54709E+04  5.84853E+03  2.28642E+04
 -4.03906E+03  2.13337E+04 -1.21614E+04  1.93284E+04 -1.75161E+04 -3.47572E+02 -1.45025E+04 -7.43294E+03
 -3.81004E+03 -2.09573E+03 -1.51868E+03 -2.99428E+03 -1.53070E+02  4.33232E+02 -6.23274E+02  5.43740E+03
 -3.19267E+03 -3.62634E+03 -1.06172E+04 -9.71312E+03 -3.82602E+03 -1.41210E+04  7.45330E+03 -9.28029E+03
  5.04734E+03 -1.93297E+03  8.78278E+03  2.01022E+03  1.48903E+02  6.86305E+03 -6.39548E+03 -1.59885E+03
 -7.71819E+03 -1.21196E+04 -2.33625E+02 -8.74056E+03  6.67835E+03 -1.15768E+04  1.66373E+04 -1.16430E+04
  1.38308E+04 -3.07944E+03  1.36276E+04  6.61443E+03  4.70227E+03  1.44448E+04 -8.90089E+03  1.33644E+04
 -9.28497E+03  2.99584E+03 -6.92609E+02  1.48397E+03 -1.46577E+03 -3.66817E+03  8.58448E+03 -4.00477E+03
  4.78036E+03  3.63400E+03  1.85326E+03  1.23696E+04 -3.83674E+03  1.00875E+04 -8.63689E+03  4.30110E+03
 -4.38892E+03 -1.25850E+03  6.38948E+02 -1.45379E+04  1.86961E+03  6.03171E+02  9.15876E+03  2.34991E+03
  7.39328E+03  7.77879E+03 -9.64738E+03  4.69786E+03 -5.74171E+03  3.86257E+03 -1.43317E+04 -3.09311E+03
 -7.50621E+03 -7.44029E+03  3.10218E+02 -1.82700E+04  1.16269E+04 -6.07898E+03  7.69427E+03  1.83450E+03
  5.26548E+03  1.32078E+04 -1.22180E+02  1.09999E+04 -1.05033E+04  7.66339E+03 -5.74289E+03 -8.30909E+03
 -9.42943E+03 -6.77115E+03 -4.54134E+03 -1.05919E+04  4.76062E+03 -6.31366E+03  7.33175E+03 -6.99567E+02
  7.21623E+03  1.69054E+03 -5.01393E+03  1.03128E+03 -1.66118E+03  3.55711E+03  1.02332E+02 -6.41831E+03
  7.82464E+03 -1.62768E+03  9.11178E+03 -3.02627E+02  1.33520E+04  2.26630E+03  1.58791E+03  8.10664E+03
 -1.18093E+02  1.07389E+04 -1.17919E+04  1.68701E+04 -9.86217E+03  7.48378E+03 -1.32725E+04 -4.97271E+03
 -8.43872E+03 -1.58725E+04 -5.82644E+03 -6.53797E+03  1.40078E+03 -1.42788E+03 -6.01071E+02 -3.38837E+03
  5.82522E+03 -8.51387E+01  4.18321E+03 -5.34262E+03  6.09249E+03  9.70721E+02  2.71551E+03 -1.87790E+03
  8.17673E+03  3.97076E+03  3.90612E+03  2.16337E+03  2.61353E+02  3.60353E+03 -2.95058E+03  4.17275E+03
 -9.01319E+03 -1.70779E+03 -8.42576E+03 -2.82627E+02  6.31723E+02 -7.25983E+03  6.34615E+03 -1.01094E+04
  1.09366E+04 -8.82462E+03  1.04709E+04 -2.34201E+02  6.58275E+03  1.05499E+04  7.24817E+02  4.25279E+03
 -3.24332E+03  1.17527E+04 -3.29533E+03  4.62720E+03  1.46590E+03 -1.02457E+03 -1.08805E+03 -2.88778E+03
 -2.39244E+03 -1.89296E+03 -5.54018E+02  9.53751E+02 -3.68333E+03  4.96760E+03 -3.53462E+03 -4.64027E+03
 -5.18359E+03 -5.19708E+03 -8.81845E+02 -5.57606E+03  2.69348E+03 -9.28915E+03  8.46407E+03 -5.79041E+03
  2.69715E+03  6.40547E+03  3.33108E+03  7.34166E+03 -3.07533E+03  7.85296E+03 -9.44806E+03  7.59059E+03
 -5.84863E+03 -7.36830E+02 -3.38894E+03 -6.51491E+03  1.74745E+03 -1.00418E+04  3.26761E+03 -1.28885E+03
  7.29960E+03 -1.04431E+03  2.44271E+03  5.79733E+03  4.85128E+03  3.71798E+03  1.26593E+03  4.34423E+03
 -2.23469E+03 -9.29051E+02  7.72493E+03  1.44974E+03  2.58701E+03  2.56566E+03  1.07525E+03  3.52164E+03
  4.41698E+03  6.48457E+03 -6.86068E+03  9.70562E+02 -8.70093E+03 -2.31905E+03 -5.32808E+03 -9.25236E+02
 -4.66161E+03 -1.04749E+04 -2.63114E+02 -4.20254E+03  8.56883E+03 -7.94150E+03  6.48895E+03  2.34488E+02
  4.49822E+03  5.32841E+03 -6.50314E+03  7.31132E+03 -8.83527E+02  1.96264E+03  1.15495E+03  1.61488E+03
 -3.92430E+03 -1.77601E+03 -1.79558E+03 -3.91509E+03  4.77877E+03 -4.76259E+03  8.38368E+03 -3.07790E+03
  1.73469E+03  2.97993E+02 -1.67606E+03 -2.29977E+02 -1.68230E+03  1.17022E+03  7.10783E+02 -1.32411E+02
  3.38252E+03  7.27015E+02  1.82000E+03  2.66071E+03  2.05992E+03  7.14829E+03 -1.76185E+03  8.30002E+03
 -5.10905E+03  5.24101E+03 -2.70266E+03  4.69339E+03 -4.56202E+03  3.86964E+02 -2.78437E+03 -3.52670E+03
 -1.11128E+03 -3.55027E+03  2.58259E+03 -2.30760E+03 -6.12328E+02  1.55451E+02 -2.08812E+03  8.82127E+03
 -5.31460E+03 -6.16235E+02 -2.92422E+03 -3.46808E+03 -3.00328E+03 -1.86420E+03  4.25111E+02 -3.27468E+03
  3.12760E+03 -4.37074E+03  6.81753E+02 -1.66681E+03 -7.42646E+01 -1.51419E+03 -2.92091E+03 -2.35262E+03
  2.71124E+03 -3.79533E+03 -2.58044E+03 -3.02704E+03 -1.38847E+03 -3.52474E+03  7.38101E+02 -9.10977E+02
  2.35265E+03 -2.48195E+03  1.56580E+03  7.05915E+03  4.79121E+03  7.00058E+03 -3.29837E+03  6.06851E+03
 -6.29357E+03 -1.00165E+03 -8.05252E+03 -6.79960E+03 -4.52199E+03 -6.31090E+03 -1.21633E+03 -2.10182E+03
  2.22116E+03 -2.90469E+03  4.75843E+03  3.36939E+03  1.02778E+03  5.38040E+03 -5.00748E+03  4.36992E+03
 -4.84413E+03  2.39501E+03 -1.70437E+02  5.52492E+02 -1.83655E+03 -1.13708E+03 -1.42318E+03 -3.18648E+03
  4.23146E+03  3.11815E+03 -9.36477E+03 -2.55246E+03 -2.99288E+03  4.24668E+03 -3.62205E+03 -7.88543E+03
  1.09774E+03 -2.16383E+02 -1.72379E+03 -8.92755E+03  1.69606E+03 -6.85978E+03  5.89525E+03 -7.66366E+03
 -1.03303E+03 -2.36407E+03  6.81239E+03  1.11027E+03 -3.47911E+03  1.38932E+03  1.08834E+01  5.71065E+03
 -3.16084E+03 -2.78894E+03 -6.27755E+03  4.06107E+03  2.90543E+03 -3.61034E+03 -3.07101E+03  1.05388E+03
  4.05239E+02 -4.39420E+03  7.86686E+03  2.63036E+03  2.30587E+03 -2.34531E+03 -2.88904E+03 -4.63631E+03
  4.86387E+03  8.00247E+02  2.34437E+03  2.62187E+02 -1.01894E+03  8.03306E+03  8.16728E+02  6.16708E+03
 -7.34111E+03  5.79397E+03 -3.36007E+03  3.85662E+03 -5.89781E+03 -4.39613E+02 -7.11372E+03 -6.39243E+03
 -7.01512E+03 -1.44882E+03  1.83268E+03  1.50679E+02  3.90680E+03 -3.35553E+03 -2.11326E+03  4.35910E+03
 -5.81518E+03 -2.70204E+03 -3.67984E+03  5.95341E+03 -1.19894E+03  2.10798E+03 -4.36846E+03  9.73365E+02
  3.74850E+03 -1.82836E+03  8.21634E+02  1.56447E+03  1.98611E+03  2.22417E+03  3.63129E+03  1.21516E+03
 -3.00466E+03  2.16512E+03 -1.08642E+02  1.28018E+03 -3.80995E+03 -2.58851E+03 -3.77006E+02 -6.75969E+03
 -1.53226E+02  9.43469E+01  4.63762E+03  2.76927E+03 -3.36762E+02  2.76904E+03  3.11549E+03  4.06321E+03
  1.03831E+03  3.06906E+03  3.22869E+03  9.18851E+02  3.38357E+03  4.16505E+03 -1.74702E+03  1.33686E+03
  3.02679E+03  2.53773E+03 -4.42066E+02 -4.58508E+01 -1.79938E+03  7.70689E+02 -7.16990E+02  3.81780E+02
 -2.80341E+03 -6.30659E+03 -7.21160E+02 -1.86283E+03  3.11927E+03 -1.79318E+03 -2.73967E+02 -3.07553E+03
  1.80528E+03  1.39268E+02 -2.36653E+03 -2.00975E+03  4.27983E+03  4.68100E+03  1.25122E+03 -1.00409E+03
