 $NMID ID='MM_0lb_SNR400_7hz_g45_26.RAW', FMTDAT='(8E13.5)'
 TRAMP=1., VOLUME=1. $END
  3.10141E+05  7.25967E+02  3.37719E+05  2.50715E+05  8.51324E+04  3.39227E+05 -1.33016E+05  2.51057E+05
 -1.91254E+05  8.43621E+04 -1.12871E+05 -3.16783E+04  3.00904E+02 -5.14734E+04  5.48021E+04 -3.96570E+02
  3.56739E+04  5.32013E+04 -1.61025E+04  7.61003E+04 -6.14922E+04  6.43466E+04 -8.57219E+04  3.23342E+04
 -8.25351E+04 -1.08781E+04 -5.83788E+04 -5.24525E+04 -1.45938E+04 -7.20846E+04  2.79954E+04 -4.82135E+04
  4.17522E+04  3.29041E+03  1.63436E+04  4.85941E+04 -3.39675E+04  4.76505E+04 -6.83350E+04 -2.02222E+02
 -5.48364E+04 -5.77664E+04 -8.18182E+03 -7.91953E+04  3.49112E+04 -5.76574E+04  5.05990E+04 -1.88405E+04
  4.62726E+04  1.15301E+04  3.29296E+04  2.72976E+04  1.58009E+04  3.09404E+04 -6.71271E+03  2.79279E+04
 -2.30854E+04  1.18303E+04 -1.75706E+04 -5.56434E+03  7.08310E+03 -7.08333E+03  2.43145E+04  1.37912E+04
  6.44772E+03  3.82091E+04 -3.46864E+04  3.78340E+04 -6.61070E+04  2.52341E+03 -5.89699E+04 -4.39724E+04
 -1.26288E+04 -6.60703E+04  4.22574E+04 -4.81443E+04  6.19775E+04 -2.76166E+03  3.75607E+04  3.46612E+04
 -5.45505E+03  4.05147E+04 -3.25782E+04  1.96081E+04 -3.41868E+04 -3.20190E+03 -1.95673E+04 -1.27656E+04
 -9.84104E+03 -1.61786E+04 -5.71981E+02 -1.98559E+04  8.90241E+03 -2.36556E+04  1.55756E+04 -1.18663E+04
  1.10532E+04  6.88896E+03 -1.06675E+04  1.33809E+04 -2.48621E+04 -7.86667E+03 -8.69909E+03 -3.90296E+04
  2.51549E+04 -4.82816E+04  5.30727E+04 -2.14922E+04  4.93230E+04  2.05798E+04  1.81136E+04  4.79791E+04
 -1.69467E+04  3.66236E+04 -2.81807E+04  2.21007E+03 -1.23799E+04 -2.95086E+04  2.18622E+04 -3.75680E+04
  4.58483E+04 -1.16204E+04  4.25440E+04  2.50396E+04  2.28232E+04  5.30452E+04 -9.02260E+03  5.83931E+04
 -3.61636E+04  3.98683E+04 -4.89476E+04  1.12562E+04 -4.91957E+04 -1.94860E+04 -2.74349E+04 -4.37481E+04
  7.47287E+03 -4.30575E+04  3.43574E+04 -1.80497E+04  3.30925E+04  1.06449E+04  5.70575E+03  2.13284E+04
 -1.43823E+04  9.90480E+03 -1.12901E+04 -7.76443E+03  5.81831E+03 -1.20414E+04  1.84721E+04  4.89388E+03
  1.54719E+04  2.27409E+04 -4.50603E+03  2.69388E+04 -2.35740E+04  1.51745E+04 -3.18779E+04 -2.97823E+03
 -2.70387E+04 -1.85019E+04 -1.19946E+04 -2.63353E+04  4.66293E+03 -2.75727E+04  2.14496E+04 -2.43985E+04
  3.47487E+04 -1.45805E+04  4.02227E+04  6.29338E+03  2.80521E+04  2.59830E+04  4.13563E+03  4.28260E+04
 -2.06722E+04  3.49068E+04 -3.10770E+04  1.18873E+04 -2.31968E+04 -1.05927E+04 -4.65602E+03 -1.28568E+04
  5.32349E+02 -7.36316E+02 -9.05342E+03  8.59670E+03 -2.18098E+04  5.44470E+03 -2.09121E+04 -1.05722E+04
 -1.32784E+04 -2.48634E+04  7.14868E+03 -2.91344E+04  1.93957E+04 -2.02966E+04  2.43327E+04 -2.04886E+03
  1.49763E+04  1.70522E+04 -1.84184E+03  2.52270E+04 -1.76877E+04  1.46765E+04 -2.53692E+04 -4.66611E+03
 -1.84685E+04 -2.26723E+04 -2.66850E+03 -2.98660E+04  1.34309E+04 -2.53436E+04  2.42794E+04 -1.32927E+04
  2.29921E+04 -5.44328E+02  1.76344E+04  5.60683E+03  1.01599E+04  1.62456E+03  1.31949E+04 -2.92113E+03
  2.30861E+04  2.85122E+03  2.74920E+04  2.00338E+04  1.89542E+04  4.05737E+04 -1.68080E+03  4.81005E+04
 -2.76681E+04  3.97783E+04 -4.50431E+04  2.19161E+04 -4.87470E+04 -3.49274E+03 -3.93430E+04 -2.87162E+04
 -1.49446E+04 -4.12442E+04  1.40571E+04 -3.53761E+04  3.07483E+04 -1.66330E+04  2.57126E+04  9.29912E+03
  9.33792E+03  1.99245E+04 -1.29048E+04  1.66337E+04 -2.18369E+04  3.63130E+03 -1.63256E+04 -1.41661E+04
 -5.70583E+02 -2.03440E+04  1.09572E+04 -1.51163E+04  1.43622E+04 -1.06825E+03  3.54555E+03  9.65534E+03
 -9.30668E+03  4.44110E+03 -1.08313E+04 -7.99397E+03 -2.14954E+03 -1.97255E+04  1.32073E+04 -2.17291E+04
  2.60527E+04 -1.29177E+04  3.00274E+04  4.19854E+03  2.54544E+04  1.97206E+04  1.18226E+04  3.25044E+04
 -5.91270E+03  3.44869E+04 -2.22205E+04  2.12993E+04 -2.52319E+04  4.30614E+03 -1.76114E+04 -6.80102E+03
 -6.92049E+03 -9.00322E+03 -2.91168E+02  1.73681E+02 -3.84573E+03  3.53410E+03 -8.23860E+03  5.88125E+03
 -1.48099E+04 -1.15047E+03 -1.63520E+04 -1.31802E+04 -5.85360E+03 -2.17949E+04  7.23842E+03 -1.65408E+04
  1.44878E+04 -6.62996E+03  9.86828E+03  4.95889E+03 -1.14830E+03  7.10052E+03 -9.29426E+03  2.76259E+02
 -7.74645E+03 -1.02358E+04 -1.38985E+03 -1.73807E+04  1.02985E+04 -1.79005E+04  2.24919E+04 -1.05462E+04
  2.57533E+04  2.15667E+03  1.90543E+04  1.64977E+04  4.40519E+03  2.17506E+04 -1.11996E+04  1.73955E+04
 -1.45765E+04  4.53585E+03 -6.84456E+03 -3.96445E+03  1.99561E+03 -5.20400E+03  9.19552E+03 -1.30768E+03
  7.74040E+03  7.53739E+03  1.38595E+03  1.41869E+04 -1.06155E+04  1.34191E+04 -1.72816E+04  2.54432E+03
 -1.21997E+04 -9.81518E+03 -9.17412E+00 -1.53886E+04  9.08711E+03 -8.14418E+03  1.10993E+04  3.15731E+03
  2.30605E+03  1.08590E+04 -8.96376E+03  1.31766E+04 -1.65084E+04  5.50090E+03 -1.65552E+04 -6.05218E+03
 -8.96210E+03 -1.79138E+04  4.32581E+03 -2.10974E+04  1.67236E+04 -1.25376E+04  1.96564E+04  3.35249E+03
  1.19995E+04  1.51280E+04 -1.22241E+03  1.75071E+04 -1.34562E+04  9.99416E+03 -1.51751E+04 -8.92802E+02
 -1.24927E+04 -1.23016E+04 -2.08779E+03 -1.39215E+04  8.42467E+03 -1.09658E+04  9.25423E+03 -3.30133E+03
  5.13385E+03  2.44135E+03 -1.47115E+03  2.38612E+03 -1.30606E+03 -4.51557E+03  3.37715E+03 -8.40223E+03
  1.31456E+04 -5.88149E+03  1.89789E+04  1.52719E+03  1.83833E+04  1.34016E+04  1.14944E+04  2.52429E+04
 -6.35722E+03  2.93756E+04 -2.29909E+04  2.09059E+04 -3.00876E+04  4.35235E+03 -2.45396E+04 -1.17192E+04
 -1.19880E+04 -2.00657E+04 -1.65950E+02 -1.72378E+04  5.71718E+03 -1.10297E+04  5.24545E+03 -6.32531E+03
  5.03303E+03 -3.77930E+03  3.99493E+03 -4.40176E+03  7.24998E+03 -4.13306E+03  9.18142E+03 -1.50677E+03
  1.22559E+04  3.49270E+03  7.75004E+03  1.08562E+04 -2.29293E+03  1.39608E+04 -1.30819E+04  1.09374E+04
 -1.78929E+04 -2.23518E+03 -1.18059E+04 -1.21789E+04 -1.35683E+03 -1.89781E+04  1.11051E+04 -1.89444E+04
  1.99262E+04 -9.88198E+03  2.26100E+04  4.00887E+03  1.65279E+04  1.70579E+04  1.89700E+03  2.12384E+04
 -8.53317E+03  1.75326E+04 -1.29651E+04  6.42892E+03 -8.44337E+03 -1.42400E+03 -4.30304E+03 -2.96976E+03
 -1.49388E+03 -2.63900E+02 -2.47266E+03  3.38743E+03 -7.23638E+03  2.80590E+03 -1.11427E+04 -2.09283E+03
 -8.98514E+03 -1.17477E+04 -2.35560E+02 -1.71807E+04  1.18103E+04 -1.67528E+04  1.83514E+04 -5.87597E+03
  1.73013E+04  8.57217E+03  8.98309E+03  1.61951E+04 -4.57917E+03  1.88946E+04 -1.27184E+04  1.14273E+04
 -1.71692E+04  4.05593E+02 -1.30253E+04 -1.17278E+04 -1.89179E+03 -1.57467E+04  8.92398E+03 -1.16708E+04
  1.01173E+04 -3.00623E+03  7.27145E+03  3.63185E+03  2.86675E+03  5.30010E+03  1.74040E+03  2.16161E+03
  3.54773E+03  1.47942E+03  4.54486E+03  2.37055E+03  4.86159E+03  6.02976E+03  5.28177E+03  9.97926E+03
 -4.78437E+03  1.54463E+04 -1.35766E+04  1.43511E+04 -1.97748E+04  3.32042E+03 -1.91967E+04 -7.07415E+03
 -9.15905E+03 -1.94242E+04  3.12361E+03 -2.03418E+04  1.19434E+04 -1.25779E+04  1.59868E+04 -2.97469E+03
  1.27302E+04  7.31848E+03  3.80117E+03  1.09120E+04 -5.09723E+03  7.11733E+03 -7.47672E+03 -6.98741E+02
 -3.82778E+03 -8.09577E+03  4.27940E+03 -7.57336E+03  7.64083E+03 -3.29199E+03  7.75695E+03  1.60721E+03
  3.84841E+03  4.43385E+03  9.75789E+02  3.42551E+03 -1.00490E+03  2.63922E+03  1.26037E+03 -6.62300E+02
  3.21952E+03 -1.27348E+03  8.43218E+03  2.69332E+03  5.62350E+03  9.59159E+03 -1.87230E+03  1.38024E+04
 -8.26699E+03  8.20894E+03 -1.26422E+04  3.25963E+03 -1.08985E+04 -4.51001E+03 -4.58184E+03 -8.08050E+03
  1.18121E+03 -8.34104E+03  5.40720E+03 -3.39571E+03  4.15787E+03  4.09286E+03 -1.85037E+03  7.49565E+03
 -8.60997E+03  3.97467E+03 -8.97031E+03 -4.22576E+03 -5.51232E+03 -1.07692E+04  1.04015E+03 -1.13933E+04
  5.84259E+03 -6.90742E+03  8.07214E+03 -1.02911E+03  6.51849E+03  3.57253E+03  1.32568E+03  5.53190E+03
 -3.38950E+03  1.49217E+03 -4.36361E+03 -3.54308E+03  1.23953E+03 -8.92428E+03  9.75472E+03 -6.13536E+03
  1.34182E+04  1.47573E+03  1.21249E+04  9.05962E+03  4.07244E+03  1.29041E+04 -5.14216E+03  1.26028E+04
 -1.11519E+04  6.32665E+03 -1.12819E+04 -1.10283E+03 -6.34166E+03 -9.03100E+03  1.92640E+03 -8.07172E+03
  7.53031E+03 -3.10262E+03  7.90027E+03  3.68339E+03  2.67392E+03  7.25709E+03 -1.59046E+03  6.50557E+03
 -3.45668E+03  3.67328E+03 -2.95244E+03  1.44439E+03 -1.43780E+03  8.55730E+02 -1.85096E+03  1.76369E+03
 -3.26752E+03  5.06224E+03 -8.82670E+03  4.71299E+03 -1.36801E+04  6.80545E+01 -1.55975E+04 -9.12229E+03
 -8.83025E+03 -1.77330E+04  2.96462E+03 -2.03244E+04  1.34732E+04 -1.55980E+04  1.96162E+04 -5.29555E+03
  1.75941E+04  3.95779E+03  1.10166E+04  1.25459E+04  1.63636E+03  1.38688E+04 -5.71044E+03  1.00155E+04
 -7.33294E+03  3.17953E+03 -4.57570E+03 -1.24793E+03 -9.61013E+02 -1.88362E+03 -7.37854E+02 -6.88777E+02
 -2.13926E+03  1.45564E+03 -2.77472E+03 -7.68937E+02 -9.84591E+02 -3.53739E+03  7.68654E+02 -5.58821E+03
  6.50735E+03 -4.36461E+03  9.21460E+03  5.28269E+02  9.84001E+03  8.07757E+03  2.77416E+03  1.43745E+04
 -6.51155E+03  1.57084E+04 -1.46550E+04  9.16444E+03 -1.73054E+04 -1.09148E+03 -1.39587E+04 -1.06692E+04
 -5.25342E+03 -1.46802E+04  3.21106E+03 -1.34713E+04  9.35495E+03 -7.51030E+03  1.02333E+04  2.27377E+02
  4.72691E+03  4.56247E+03 -4.51261E+02  3.62345E+03 -3.10940E+03 -4.56934E+02  3.02828E+02 -2.92951E+03
  5.03723E+03 -2.09127E+03  5.18147E+03  1.44511E+03  4.40307E+03  5.79797E+03  2.30035E+02  8.19143E+03
 -6.95597E+03  6.78893E+03 -1.01541E+04  2.60599E+02 -9.37736E+03 -6.23823E+03 -1.37343E+03 -1.18348E+04
  6.40081E+03 -1.04898E+04  1.20804E+04 -3.57188E+03  1.17250E+04  2.69371E+03  7.08468E+03  8.25394E+03
  1.08689E+03  1.07681E+04 -3.72568E+03  8.58544E+03 -5.92680E+03  4.06126E+03 -4.64705E+03  9.02390E+02
 -2.41354E+03 -3.73966E+02 -2.38189E+03  1.51350E+03 -4.92871E+03  9.25421E+02 -6.87082E+03 -1.81728E+03
 -6.53706E+03 -6.46003E+03 -2.14081E+03 -9.55520E+03  4.36248E+03 -9.98286E+03  9.55470E+03 -4.93516E+03
  1.05251E+04  1.96321E+03  5.51280E+03  6.53882E+03 -3.83508E+02  9.93150E+03 -8.72692E+03  6.47969E+03
