 $NMID ID='MM_0lb_SNR400_9hz_g55_68.RAW', FMTDAT='(8E13.5)'
 TRAMP=1., VOLUME=1. $END
  3.10172E+05 -4.71451E+02  3.37722E+05  2.50545E+05  8.53876E+04  3.39134E+05 -1.33081E+05  2.52263E+05
 -1.91192E+05  8.43742E+04 -1.12512E+05 -3.24454E+04  1.02569E+03 -5.07413E+04  5.35119E+04 -7.79415E+02
  3.62470E+04  5.27409E+04 -1.61225E+04  7.64017E+04 -6.09872E+04  6.42437E+04 -8.54622E+04  3.19885E+04
 -8.32088E+04 -1.21934E+04 -5.80145E+04 -5.25405E+04 -1.42710E+04 -7.06656E+04  2.67978E+04 -4.75533E+04
  4.13738E+04  3.83723E+03  1.70048E+04  4.86913E+04 -3.50400E+04  4.84107E+04 -6.89004E+04  9.04599E+02
 -5.51742E+04 -5.89201E+04 -7.89125E+03 -7.93670E+04  3.42980E+04 -5.74266E+04  4.99821E+04 -1.86153E+04
  4.53968E+04  1.11903E+04  3.33941E+04  2.66465E+04  1.65820E+04  3.07858E+04 -5.50012E+03  2.78497E+04
 -2.29926E+04  1.22707E+04 -1.86812E+04 -5.65512E+03  6.89390E+03 -7.34723E+03  2.39370E+04  1.35051E+04
  6.36228E+03  3.72277E+04 -3.44836E+04  3.67853E+04 -6.59107E+04  2.40255E+03 -5.96122E+04 -4.48198E+04
 -1.28292E+04 -6.55756E+04  4.14890E+04 -4.77838E+04  6.20454E+04 -2.83613E+03  3.71886E+04  3.44032E+04
 -4.95483E+03  3.98651E+04 -3.21305E+04  1.96891E+04 -3.34451E+04 -3.42382E+03 -1.99123E+04 -1.18570E+04
 -1.00005E+04 -1.51286E+04  1.95259E+02 -1.95428E+04  8.97016E+03 -2.32826E+04  1.55042E+04 -1.29194E+04
  1.16755E+04  6.02193E+03 -1.05957E+04  1.22421E+04 -2.32792E+04 -7.45396E+03 -8.64526E+03 -3.84197E+04
  2.42865E+04 -4.69926E+04  5.25713E+04 -2.03287E+04  4.90790E+04  2.08240E+04  1.75079E+04  4.76508E+04
 -1.62775E+04  3.59124E+04 -2.84660E+04  2.44930E+03 -1.14599E+04 -2.92029E+04  2.14702E+04 -3.66979E+04
  4.54933E+04 -1.15732E+04  4.14954E+04  2.48796E+04  2.22683E+04  5.16591E+04 -7.65772E+03  5.69001E+04
 -3.57812E+04  3.85067E+04 -4.77830E+04  1.10394E+04 -4.86555E+04 -1.90078E+04 -2.59008E+04 -4.23151E+04
  8.38719E+03 -4.26182E+04  3.39695E+04 -1.72502E+04  3.15430E+04  1.16423E+04  5.64023E+03  2.10268E+04
 -1.37524E+04  9.80743E+03 -1.16063E+04 -7.58523E+03  4.72473E+03 -1.16047E+04  1.88937E+04  5.60091E+03
  1.46548E+04  2.27595E+04 -5.16278E+03  2.68710E+04 -2.33965E+04  1.52731E+04 -3.26418E+04 -2.81578E+03
 -2.60523E+04 -1.80633E+04 -1.25999E+04 -2.57677E+04  3.88392E+03 -2.63825E+04  2.09640E+04 -2.32293E+04
  3.37977E+04 -1.43892E+04  3.84367E+04  4.82121E+03  2.71020E+04  2.43966E+04  4.25288E+03  4.24979E+04
 -1.92327E+04  3.43669E+04 -3.13824E+04  1.19588E+04 -2.25904E+04 -9.42725E+03 -5.03513E+03 -1.33434E+04
  6.39756E+02 -7.91635E+02 -8.11458E+03  7.96277E+03 -2.07123E+04  4.97385E+03 -2.10349E+04 -9.04544E+03
 -1.22807E+04 -2.38619E+04  6.21870E+03 -2.85103E+04  1.90625E+04 -2.04963E+04  2.24926E+04 -2.19534E+03
  1.46507E+04  1.59961E+04 -1.72546E+03  2.42776E+04 -1.71699E+04  1.26864E+04 -2.43612E+04 -4.98913E+03
 -1.76687E+04 -2.17839E+04 -1.84842E+03 -2.81743E+04  1.38088E+04 -2.40667E+04  2.33878E+04 -1.28311E+04
  2.22082E+04  4.95489E+02  1.62495E+04  4.89749E+03  9.09528E+03  1.45738E+03  1.31174E+04 -1.95756E+03
  2.27531E+04  3.02566E+03  2.60777E+04  1.81120E+04  1.75306E+04  3.85477E+04 -2.14947E+03  4.48859E+04
 -2.58258E+04  3.77916E+04 -4.22343E+04  1.98419E+04 -4.57211E+04 -2.84460E+03 -3.75530E+04 -2.67562E+04
 -1.44036E+04 -3.86976E+04  1.36368E+04 -3.36268E+04  2.82663E+04 -1.62128E+04  2.59862E+04  7.75900E+03
  8.72938E+03  1.85754E+04 -1.22868E+04  1.61111E+04 -2.06848E+04  2.39676E+03 -1.54110E+04 -1.40581E+04
 -5.31792E+02 -1.98260E+04  1.06789E+04 -1.36775E+04  1.44408E+04 -7.40905E+02  3.33335E+03  9.03953E+03
 -8.59435E+03  4.51671E+03 -1.02355E+04 -6.52750E+03 -1.84863E+03 -1.89979E+04  1.15193E+04 -2.04973E+04
  2.39319E+04 -1.17079E+04  2.75193E+04  2.68679E+03  2.29135E+04  1.89576E+04  1.13943E+04  2.98758E+04
 -5.35762E+03  3.09343E+04 -2.10194E+04  1.98205E+04 -2.28957E+04  3.71529E+03 -1.60754E+04 -6.16456E+03
 -6.09946E+03 -7.75172E+03 -1.23481E+03 -1.02984E+03 -2.74732E+03  3.82676E+03 -7.62957E+03  6.09381E+03
 -1.41379E+04 -1.22450E+03 -1.44021E+04 -1.19081E+04 -6.11951E+03 -1.95980E+04  6.16887E+03 -1.58411E+04
  1.21177E+04 -5.93008E+03  9.00539E+03  4.83729E+03 -7.63773E+02  6.31255E+03 -8.10452E+03 -2.99254E+02
 -8.11606E+03 -1.08042E+04 -1.67787E+03 -1.60695E+04  8.90362E+03 -1.74078E+04  2.13559E+04 -9.30919E+03
  2.47296E+04  3.26700E+03  1.77514E+04  1.44614E+04  3.29891E+03  2.02067E+04 -9.78807E+03  1.51743E+04
 -1.30953E+04  5.01255E+03 -6.58964E+03 -3.43683E+03  2.70542E+03 -4.84607E+03  8.87948E+03 -7.89413E+02
  7.92856E+03  6.95210E+03  1.36584E+03  1.33149E+04 -9.24422E+03  1.22301E+04 -1.52395E+04  2.94666E+03
 -1.04266E+04 -8.37905E+03  5.13293E+02 -1.39943E+04  8.74942E+03 -7.60372E+03  9.35260E+03  2.97528E+03
  2.31295E+03  1.00735E+04 -7.67256E+03  1.24911E+04 -1.32211E+04  5.09310E+03 -1.47627E+04 -5.14903E+03
 -7.66178E+03 -1.65794E+04  4.17885E+03 -1.92077E+04  1.58639E+04 -1.08090E+04  1.76467E+04  2.98872E+03
  1.01623E+04  1.39329E+04 -2.64075E+03  1.54411E+04 -1.14834E+04  8.84906E+03 -1.34674E+04 -8.54470E+02
 -1.15690E+04 -1.16324E+04 -2.21021E+03 -1.18686E+04  6.95255E+03 -9.21684E+03  8.14343E+03 -3.17190E+03
  5.35657E+03  1.86511E+03 -2.04143E+03  1.95924E+03 -7.24732E+02 -3.35310E+03  2.76496E+03 -8.27205E+03
  1.18625E+04 -5.37621E+03  1.63689E+04  1.62511E+03  1.63874E+04  1.14008E+04  1.08438E+04  2.15172E+04
 -5.45462E+03  2.54472E+04 -2.10996E+04  1.90125E+04 -2.69660E+04  4.03258E+03 -2.16666E+04 -9.31786E+03
 -1.03744E+04 -1.74868E+04 -4.98780E+02 -1.45127E+04  6.27213E+03 -8.41360E+03  5.86687E+03 -5.12762E+03
  4.13307E+03 -2.97612E+03  3.68503E+03 -4.24179E+03  5.21732E+03 -3.34066E+03  8.16817E+03 -1.78865E+03
  1.12864E+04  3.33063E+03  6.33337E+03  1.03798E+04 -1.95479E+03  1.18755E+04 -1.22170E+04  8.90164E+03
 -1.46413E+04 -1.71189E+03 -9.63945E+03 -1.03499E+04 -1.98549E+03 -1.55256E+04  8.69194E+03 -1.67512E+04
  1.76791E+04 -9.20546E+03  2.05093E+04  2.55497E+03  1.40896E+04  1.48182E+04  2.32644E+03  1.87686E+04
 -7.26454E+03  1.46058E+04 -1.13653E+04  5.58733E+03 -6.79357E+03 -1.69120E+03 -2.64490E+03 -3.07148E+03
 -1.57631E+03 -4.91538E+02 -2.69892E+03  3.32589E+03 -6.72029E+03  2.49977E+03 -1.02956E+04 -1.19517E+03
 -7.08827E+03 -1.04353E+04 -5.11112E+02 -1.51968E+04  9.25031E+03 -1.42619E+04  1.52236E+04 -4.07763E+03
  1.64089E+04  7.55056E+03  7.80952E+03  1.33911E+04 -2.63997E+03  1.55182E+04 -1.13069E+04  9.30640E+03
 -1.37234E+04  5.84950E+02 -1.09942E+04 -9.00636E+03 -1.49283E+03 -1.31415E+04  7.55476E+03 -1.00732E+04
  9.18182E+03 -2.69894E+03  5.62020E+03  2.49616E+03  2.50743E+03  4.77353E+03  2.43324E+03  2.61096E+03
  2.50951E+03  1.74699E+03  3.25564E+03  2.15964E+03  3.72339E+03  4.92971E+03  4.02622E+03  8.29993E+03
 -3.16091E+03  1.17474E+04 -1.12018E+04  1.18888E+04 -1.65771E+04  4.12210E+03 -1.69685E+04 -6.46098E+03
 -8.15215E+03 -1.54002E+04  1.23148E+03 -1.77683E+04  9.04393E+03 -1.08446E+04  1.23462E+04 -3.21089E+03
  1.04962E+04  5.51727E+03  1.30479E+03  8.91753E+03 -3.70157E+03  5.54180E+03 -6.54112E+03 -1.44357E+03
 -2.81942E+03 -6.40106E+03  4.55528E+03 -6.76659E+03  7.29705E+03 -3.30633E+03  6.59568E+03  1.85315E+03
  3.58697E+03  3.21521E+03  2.15644E+03  3.38746E+03 -6.10273E+02  1.26117E+03  1.34026E+03 -5.15011E+02
  3.04237E+03 -1.97392E+03  5.54177E+03  1.88074E+03  4.38018E+03  9.24227E+03 -1.49407E+03  1.16564E+04
 -6.89556E+03  7.59927E+03 -9.99361E+03  1.56998E+03 -9.20859E+03 -3.43361E+03 -3.73536E+03 -6.36803E+03
  1.06826E+03 -5.94381E+03  4.26861E+03 -2.47213E+03  4.36755E+03  2.99842E+03 -4.25463E+02  5.62638E+03
 -6.33856E+03  2.79023E+03 -7.58475E+03 -3.88127E+03 -4.46095E+03 -8.06987E+03  9.08199E+02 -8.31576E+03
  5.33993E+03 -6.18624E+03  6.32471E+03 -1.25366E+03  5.65009E+03  2.34777E+03  6.79814E+02  4.37081E+03
 -3.10553E+03  1.38244E+03 -3.51297E+03 -3.05129E+03  1.39790E+03 -6.34539E+03  7.46110E+03 -5.46275E+03
  9.85631E+03  4.24531E+02  9.29999E+03  6.08653E+03  3.31972E+03  1.05060E+04 -2.73310E+03  1.05967E+04
 -8.13018E+03  4.21383E+03 -8.91486E+03 -7.30092E+02 -4.70806E+03 -6.39294E+03  1.25565E+03 -6.72954E+03
  5.84582E+03 -2.44828E+03  6.39850E+03  2.56114E+03  2.92667E+03  5.35144E+03 -1.27319E+03  5.23561E+03
 -2.94084E+03  3.18551E+03 -2.55991E+03  1.42917E+03 -1.01994E+03  2.61143E+02 -1.74462E+03  2.62386E+03
 -2.00984E+03  3.82332E+03 -7.22031E+03  3.51550E+03 -1.10213E+04 -1.27411E+02 -1.16222E+04 -6.88904E+03
 -6.13829E+03 -1.35125E+04  2.62805E+03 -1.60945E+04  9.89381E+03 -1.22478E+04  1.54657E+04 -5.00448E+03
  1.38274E+04  2.24774E+03  8.77041E+03  9.42022E+03  1.33448E+03  1.12351E+04 -4.35614E+03  7.99197E+03
 -6.47274E+03  3.00543E+03 -2.73492E+03 -1.07736E+03 -1.18261E+03 -7.19721E+02 -3.17777E+02 -4.07315E+02
 -1.28447E+03  2.24910E+02 -2.41636E+03  6.40447E+01 -9.60026E+02 -2.48028E+03  1.66438E+02 -4.18472E+03
  4.60863E+03 -3.78694E+03  6.47449E+03 -2.25728E+02  8.10486E+03  5.60616E+03  1.26967E+03  1.14215E+04
 -5.19466E+03  1.20613E+04 -1.22423E+04  6.73067E+03 -1.28097E+04 -6.47152E+01 -9.84470E+03 -8.59212E+03
 -3.96877E+03 -1.12848E+04  1.79382E+03 -1.02249E+04  7.49417E+03 -5.85953E+03  7.62187E+03  6.79395E+01
  3.69974E+03  3.38441E+03 -8.34907E+02  3.48545E+03 -1.95466E+03  7.52509E+02 -1.26362E+02 -2.46900E+03
  4.26567E+03 -1.52626E+03  3.80365E+03  1.50975E+03  2.83649E+03  5.09610E+03 -3.95804E+01  5.12524E+03
 -4.22019E+03  5.97389E+03 -7.27068E+03  6.82707E+02 -7.29112E+03 -5.97462E+03 -9.80015E+02 -8.75548E+03
  5.89642E+03 -7.38195E+03  8.91630E+03 -2.42003E+03  8.73596E+03  2.27793E+03  4.63352E+03  6.96278E+03
  1.00560E+03  7.75078E+03 -3.24920E+03  5.86009E+03 -4.64127E+03  3.96160E+03 -3.67964E+03  7.04451E+02
 -2.45471E+03 -9.02672E+02 -1.90884E+03  1.72313E+03 -3.44190E+03  9.70435E+02 -6.33093E+03 -1.28863E+03
 -5.66657E+03 -4.38281E+03 -2.09763E+03 -7.59459E+03  3.71440E+03 -7.82214E+03  7.02338E+03 -4.06948E+03
  7.28223E+03  1.30103E+03  3.67718E+03  5.12690E+03 -1.11293E+03  7.33723E+03 -4.88763E+03  4.68107E+03
