 $NMID ID='MM_0lb_SNR400_13hz_g45_18.RAW', FMTDAT='(8E13.5)'
 TRAMP=1., VOLUME=1. $END
  3.09944E+05  4.50884E+02  3.37439E+05  2.50702E+05  8.44834E+04  3.38142E+05 -1.32680E+05  2.51223E+05
 -1.89946E+05  8.32371E+04 -1.12140E+05 -3.12522E+04  7.68989E+02 -5.01519E+04  5.36049E+04 -7.91134E+02
  3.50908E+04  5.24929E+04 -1.65082E+04  7.55042E+04 -6.08506E+04  6.32108E+04 -8.38967E+04  3.19406E+04
 -8.12015E+04 -1.08986E+04 -5.69389E+04 -5.09630E+04 -1.52803E+04 -6.94679E+04  2.76998E+04 -4.56854E+04
  4.06236E+04  3.73353E+03  1.69642E+04  4.81285E+04 -3.47476E+04  4.73964E+04 -6.66522E+04 -5.30657E+01
 -5.35846E+04 -5.68721E+04 -7.36780E+03 -7.77501E+04  3.39175E+04 -5.54979E+04  4.73909E+04 -1.73367E+04
  4.33979E+04  1.08402E+04  3.20069E+04  2.54030E+04  1.61347E+04  2.96010E+04 -4.85907E+03  2.76795E+04
 -2.20276E+04  1.23443E+04 -1.84510E+04 -5.39767E+03  5.75550E+03 -7.57887E+03  2.23851E+04  1.18234E+04
  7.11707E+03  3.48017E+04 -3.21869E+04  3.55560E+04 -6.41686E+04  2.12351E+03 -5.69653E+04 -4.30831E+04
 -1.26014E+04 -6.41592E+04  3.99856E+04 -4.59929E+04  5.85887E+04 -2.67794E+03  3.44424E+04  3.26751E+04
 -6.17315E+03  3.62949E+04 -2.99511E+04  1.62222E+04 -3.11110E+04 -4.34497E+03 -1.73403E+04 -1.13123E+04
 -8.04804E+03 -1.32208E+04 -6.52248E+02 -1.86688E+04  7.08494E+03 -2.28811E+04  1.55056E+04 -1.31070E+04
  1.09388E+04  5.05145E+03 -8.39630E+03  1.24099E+04 -2.19493E+04 -4.63360E+03 -8.13492E+03 -3.39919E+04
  2.24833E+04 -4.39083E+04  4.87639E+04 -1.97507E+04  4.57559E+04  1.92912E+04  1.57478E+04  4.41359E+04
 -1.61849E+04  3.39523E+04 -2.56452E+04  2.14065E+03 -1.04013E+04 -2.78875E+04  2.11110E+04 -3.38908E+04
  4.14561E+04 -9.62524E+03  3.63243E+04  2.32769E+04  1.83132E+04  4.74500E+04 -7.77602E+03  5.09478E+04
 -3.14663E+04  3.41307E+04 -4.27384E+04  9.90498E+03 -4.27464E+04 -1.70533E+04 -2.39635E+04 -3.86831E+04
  7.06660E+03 -3.80895E+04  3.15077E+04 -1.50251E+04  2.97551E+04  1.02229E+04  4.76969E+03  1.96145E+04
 -1.32432E+04  8.40582E+03 -9.77305E+03 -7.17997E+03  5.88308E+03 -1.03619E+04  1.76146E+04  6.58144E+03
  1.32316E+04  2.19141E+04 -5.89655E+03  2.53752E+04 -2.25343E+04  1.18432E+04 -2.89807E+04 -4.45526E+03
 -2.13504E+04 -1.75106E+04 -8.43133E+03 -2.03277E+04  4.01346E+03 -2.01013E+04  1.66074E+04 -1.85131E+04
  2.66330E+04 -1.32705E+04  3.32373E+04  3.05187E+03  2.44207E+04  2.06286E+04  3.54264E+03  3.68249E+04
 -1.79423E+04  3.05163E+04 -2.83076E+04  1.04961E+04 -2.16753E+04 -9.81724E+03 -4.94690E+03 -1.31216E+04
  1.67704E+03 -2.34205E+03 -4.82099E+03  6.87362E+03 -1.65819E+04  5.15675E+03 -1.71378E+04 -7.19948E+03
 -1.04915E+04 -1.91359E+04  5.72439E+03 -2.38079E+04  1.61174E+04 -1.71175E+04  1.94159E+04 -2.27838E+03
  1.20396E+04  1.34884E+04 -2.03674E+03  1.93760E+04 -1.35087E+04  1.10094E+04 -1.98374E+04 -3.96000E+03
 -1.46386E+04 -1.72051E+04 -1.72744E+03 -2.36893E+04  1.03688E+04 -1.95289E+04  1.90572E+04 -9.92103E+03
  1.77415E+04  1.24245E+02  1.32621E+04  3.76310E+03  7.02198E+03  1.19668E+03  9.13450E+03 -1.65132E+03
  1.80958E+04  3.08347E+03  2.01164E+04  1.49835E+04  1.32360E+04  3.08270E+04 -2.97970E+03  3.54076E+04
 -2.02165E+04  2.82023E+04 -3.28767E+04  1.43948E+04 -3.39572E+04 -2.14433E+03 -2.86119E+04 -2.00967E+04
 -1.23174E+04 -2.81837E+04  9.13653E+03 -2.63355E+04  2.24904E+04 -1.35055E+04  1.96165E+04  5.00889E+03
  7.39107E+03  1.48578E+04 -9.97571E+03  1.26585E+04 -1.65264E+04  2.32556E+03 -1.23009E+04 -1.05146E+04
 -2.12539E+02 -1.52267E+04  8.47466E+03 -1.17842E+04  1.05486E+04 -1.51033E+03  2.99764E+03  7.11653E+03
 -7.20411E+03  2.64094E+03 -6.05670E+03 -5.86103E+03 -9.33677E+02 -1.38360E+04  1.02010E+04 -1.49726E+04
  1.72746E+04 -7.85647E+03  1.84363E+04  3.09626E+03  1.57419E+04  1.44245E+04  7.79338E+03  2.11113E+04
 -3.54402E+03  2.34224E+04 -1.50328E+04  1.43137E+04 -1.59819E+04  3.80157E+03 -1.17868E+04 -3.74491E+03
 -5.52915E+03 -4.77411E+03 -1.52703E+03  1.00625E+03 -2.55801E+03  3.07231E+03 -5.76475E+03  3.77905E+03
 -1.08294E+04 -9.74357E+02 -1.19424E+04 -9.68724E+03 -4.73260E+03 -1.53501E+04  4.32750E+03 -1.22487E+04
  1.02574E+04 -4.76136E+03  6.99388E+03  3.73811E+03  1.24090E+02  4.65547E+03 -5.66738E+03  4.81692E+01
 -5.11437E+03 -7.01449E+03 -8.03548E+02 -1.06627E+04  5.87039E+03 -1.20338E+04  1.51778E+04 -6.32117E+03
  1.73112E+04  1.90852E+03  1.24893E+04  1.02655E+04  2.25426E+03  1.33138E+04 -7.60394E+03  1.16730E+04
 -9.74680E+03  3.58971E+03 -3.87170E+03 -2.27321E+03  1.58153E+03 -3.25088E+03  6.41192E+03 -1.53629E+03
  5.60037E+03  5.88179E+03  6.12241E+02  9.37254E+03 -6.82702E+03  8.33691E+03 -1.15848E+04  2.42927E+03
 -7.68289E+03 -5.91373E+03  1.74700E+02 -9.59877E+03  5.78041E+03 -5.06169E+03  6.60206E+03  1.67507E+03
  1.04699E+03  6.81456E+03 -5.91775E+03  7.82558E+03 -8.75715E+03  3.84510E+03 -8.47839E+03 -2.49271E+03
 -5.05718E+03 -1.08017E+04  2.06607E+03 -1.21636E+04  9.90638E+03 -6.52463E+03  1.10950E+04  1.93243E+03
  7.69089E+03  8.48894E+03 -1.09030E+03  1.08295E+04 -7.36612E+03  6.76977E+03 -8.56313E+03 -3.87985E+02
 -7.52917E+03 -7.04167E+03 -1.15565E+03 -8.61205E+03  3.73832E+03 -7.32032E+03  5.87959E+03 -3.06397E+03
  3.86772E+03  1.15537E+03 -6.45659E+02  1.68749E+03  5.13912E+02 -1.64366E+03  1.29407E+03 -4.58681E+03
  6.98235E+03 -2.82657E+03  1.03258E+04  1.07104E+03  9.94448E+03  6.37510E+03  7.31374E+03  1.35424E+04
 -2.38429E+03  1.52040E+04 -1.30196E+04  1.11801E+04 -1.65842E+04  1.89068E+03 -1.36337E+04 -5.25070E+03
 -6.96764E+03 -1.09387E+04 -4.41722E+02 -9.61363E+03  3.35376E+03 -4.75724E+03  2.84984E+03 -3.86575E+03
  3.02983E+03 -2.05439E+03  2.36045E+03 -3.20078E+03  4.38684E+03 -2.62391E+03  6.18802E+03 -4.62105E+02
  7.29336E+03  2.24857E+03  3.27782E+03  6.62144E+03 -1.97088E+03  6.41745E+03 -6.83991E+03  6.00028E+03
 -9.01472E+03 -1.21629E+03 -5.84499E+03 -6.16343E+03 -6.12345E+02 -1.00561E+04  5.80865E+03 -9.88373E+03
  1.00995E+04 -5.78651E+03  1.26408E+04  1.08340E+03  8.45988E+03  8.76120E+03  9.59196E+02  1.07408E+04
 -4.72213E+03  9.77225E+03 -6.45601E+03  3.16028E+03 -3.55996E+03 -1.69722E+03 -1.65948E+03 -1.10627E+03
 -8.27302E+02  6.60003E+01 -1.47406E+03  2.90292E+03 -3.62178E+03  1.10001E+03 -5.75670E+03 -3.73883E+01
 -3.86924E+03 -6.68397E+03  1.02982E+02 -9.09199E+03  5.37695E+03 -8.92664E+03  8.17973E+03 -2.00993E+03
  8.60726E+03  4.38441E+03  4.36645E+03  7.55961E+03 -2.10753E+03  8.81989E+03 -6.21593E+03  5.15142E+03
 -8.46094E+03  2.64505E+02 -6.21753E+03 -5.14326E+03 -1.51422E+02 -7.04500E+03  3.95039E+03 -5.10111E+03
  5.35555E+03 -1.47188E+03  4.47573E+03  1.42362E+03  1.11123E+03  2.27314E+03  1.54493E+03  1.19208E+03
  2.33244E+03  9.54200E+02  2.14411E+03  1.62626E+03  2.58637E+03  3.44743E+03  2.15600E+03  3.79952E+03
 -1.88257E+03  6.48184E+03 -6.71539E+03  6.81340E+03 -7.34369E+03  1.97406E+03 -8.91768E+03 -3.00833E+03
 -3.64996E+03 -8.54567E+03  1.41475E+03 -9.44296E+03  5.08516E+03 -6.13150E+03  6.17917E+03 -1.63167E+03
  5.71913E+03  3.01052E+03  1.65418E+03  5.28331E+03 -2.81165E+03  3.67208E+03 -3.49474E+03 -1.51342E+02
 -1.75217E+03 -3.89738E+03  2.60879E+03 -3.52518E+03  3.92349E+03 -1.97270E+03  2.60800E+03  1.09305E+03
  2.20736E+03  1.47686E+03  1.09808E+03  4.86083E+02 -2.33470E+02  1.11287E+03  1.42669E+03 -4.89735E+02
  1.17513E+03  2.12146E+01  4.25129E+03  1.41799E+03  8.68217E+02  5.07429E+03 -3.77568E+02  6.47043E+03
 -3.39399E+03  3.39290E+03 -5.03944E+03  1.22724E+03 -4.53975E+03 -2.13743E+03 -1.68812E+03 -3.40639E+03
  4.04854E+02 -2.96085E+03  2.14643E+03 -1.87508E+03  2.37471E+03  1.81785E+03 -1.35768E+03  2.45199E+03
 -3.19700E+03  1.22708E+03 -2.84692E+03 -2.87184E+03 -1.32200E+03 -4.28196E+03  4.82584E+02 -4.05549E+03
  2.11735E+03 -1.72954E+03  2.65957E+03 -5.90900E+02  2.73293E+03  9.12141E+02  5.55123E+02  2.87889E+03
 -2.11344E+03  6.06752E+02 -1.66171E+03 -1.47514E+03  1.06341E+03 -3.28071E+03  3.72634E+03 -2.02437E+03
  5.17501E+03  1.06715E+03  5.34111E+03  3.48248E+03  2.48505E+03  4.98103E+03 -1.81295E+03  3.95836E+03
 -3.96107E+03  2.06974E+03 -3.96298E+03 -8.14496E+02 -1.74560E+03 -3.28400E+03  9.62694E+02 -3.23236E+03
  3.12700E+03 -6.07749E+02  2.79800E+03  1.85660E+03  5.45743E+02  2.92596E+03 -5.78575E+02  2.28295E+03
 -1.27064E+03  1.75670E+03 -1.41430E+03  4.11721E+02 -5.56959E+02  7.27831E+02 -6.42984E+02  1.20174E+03
 -1.47165E+03  2.29363E+03 -3.98169E+03  1.57689E+03 -5.78638E+03  7.54153E+01 -4.76728E+03 -2.90245E+03
 -2.69741E+03 -6.59818E+03  1.24760E+03 -7.22355E+03  3.73976E+03 -6.42146E+03  7.16449E+03 -1.64099E+03
  7.01250E+03  1.30878E+03  3.87844E+03  4.33518E+03 -1.32979E+02  5.06295E+03 -9.39180E+02  3.97431E+03
 -3.12880E+03  2.43163E+03 -1.40267E+03 -2.67653E+02  1.79426E+02  1.33598E+02 -8.72766E+02  9.50255E+01
 -9.28008E+02 -1.32962E+02 -8.49068E+02 -1.71811E+02 -2.11476E+02 -1.30853E+03 -5.39910E+01 -1.95410E+03
  3.35084E+03 -1.73254E+03  2.28153E+03  2.12070E+02  3.86179E+03  2.87586E+03  6.47546E+02  5.28711E+03
 -2.61431E+03  5.57979E+03 -4.37614E+03  3.56563E+03 -5.99174E+03 -4.34895E+02 -4.26559E+03 -3.10342E+03
 -2.09082E+03 -4.50157E+03  1.33930E+03 -4.62350E+03  2.87209E+03 -2.62395E+03  3.46942E+03  1.03902E+02
  2.20360E+03  1.14737E+03 -5.22603E+02  1.69379E+03 -3.92734E+02 -5.69928E+02  8.50487E+01 -6.58884E+02
  2.16982E+03 -3.51606E+02  1.27634E+03  8.66468E+02  1.25613E+03  1.39680E+03  1.83441E+02  2.42856E+03
 -1.91119E+03  2.16373E+03 -2.79642E+03  4.29146E+01 -2.12030E+03 -2.45330E+03 -6.31416E+00 -3.88365E+03
  2.09618E+03 -2.51093E+03  3.25087E+03 -6.58919E+02  4.11282E+03 -3.19443E+02  1.84398E+03  2.90231E+03
  5.34817E+02  2.35965E+03 -8.79953E+02  2.82732E+03 -2.18940E+03  1.36605E+03 -9.50247E+02  2.17777E+02
 -6.48104E+02  2.51971E+02 -1.17992E+03  3.32588E+02 -1.70779E+03  1.10208E+03 -2.76156E+03 -6.02447E+02
 -2.49491E+03 -1.09940E+03 -1.40903E+03 -2.48521E+03  1.24621E+03 -3.57119E+03  3.21796E+03 -1.59682E+03
  2.22323E+03 -2.31023E+01  1.69930E+03  2.31558E+03 -7.15733E+02  3.57766E+03 -3.03572E+03  1.58932E+03
