 $NMID ID='MM_0lb_SNR400_15hz_g60_15.RAW', FMTDAT='(8E13.5)'
 TRAMP=1., VOLUME=1. $END
  3.09666E+05  2.61931E+02  3.38176E+05  2.50576E+05  8.49620E+04  3.38430E+05 -1.32045E+05  2.51304E+05
 -1.90496E+05  8.32110E+04 -1.12788E+05 -3.29124E+04  6.38136E+02 -5.05259E+04  5.33554E+04 -6.44672E+02
  3.57174E+04  5.30370E+04 -1.66354E+04  7.48159E+04 -6.10031E+04  6.33559E+04 -8.48485E+04  3.20940E+04
 -8.12851E+04 -1.13487E+04 -5.76667E+04 -5.15608E+04 -1.51767E+04 -6.94390E+04  2.77388E+04 -4.55017E+04
  4.03778E+04  3.98500E+03  1.60821E+04  4.84276E+04 -3.46608E+04  4.73983E+04 -6.65701E+04  5.12974E+02
 -5.32139E+04 -5.76155E+04 -7.10085E+03 -7.77636E+04  3.43619E+04 -5.54583E+04  4.76072E+04 -1.78505E+04
  4.37610E+04  1.13114E+04  3.19226E+04  2.57114E+04  1.56338E+04  2.99524E+04 -5.43515E+03  2.74879E+04
 -2.19045E+04  1.24599E+04 -1.86014E+04 -4.70016E+03  5.76905E+03 -7.59355E+03  2.30745E+04  1.27760E+04
  7.19969E+03  3.61473E+04 -3.17856E+04  3.56372E+04 -6.38224E+04  1.87936E+03 -5.73337E+04 -4.34545E+04
 -1.23297E+04 -6.32722E+04  4.01372E+04 -4.54949E+04  5.94625E+04 -1.83006E+03  3.41566E+04  3.22406E+04
 -5.91375E+03  3.74791E+04 -3.03297E+04  1.61892E+04 -3.06539E+04 -4.01427E+03 -1.73839E+04 -1.10527E+04
 -8.42920E+03 -1.34594E+04 -3.20964E+02 -1.88867E+04  7.95017E+03 -2.31482E+04  1.51879E+04 -1.37966E+04
  1.12862E+04  5.36672E+03 -7.92944E+03  1.27854E+04 -2.17327E+04 -4.79849E+03 -8.48159E+03 -3.44411E+04
  2.30352E+04 -4.46981E+04  4.85779E+04 -1.99467E+04  4.52509E+04  2.03688E+04  1.58844E+04  4.45215E+04
 -1.60624E+04  3.46765E+04 -2.61453E+04  1.83857E+03 -1.02799E+04 -2.82143E+04  2.13914E+04 -3.39859E+04
  4.18493E+04 -9.02264E+03  3.59662E+04  2.43095E+04  1.86865E+04  4.73677E+04 -8.19927E+03  5.10304E+04
 -3.27888E+04  3.41050E+04 -4.36862E+04  1.00926E+04 -4.34042E+04 -1.70340E+04 -2.41039E+04 -3.89410E+04
  7.03518E+03 -3.82432E+04  3.24348E+04 -1.51646E+04  2.97917E+04  1.09808E+04  4.58653E+03  1.95620E+04
 -1.33134E+04  8.44649E+03 -1.02927E+04 -7.58868E+03  5.82872E+03 -1.05837E+04  1.79396E+04  6.39343E+03
  1.31498E+04  2.18876E+04 -5.68883E+03  2.54850E+04 -2.22982E+04  1.25764E+04 -2.83421E+04 -4.16625E+03
 -2.05554E+04 -1.69146E+04 -9.43419E+03 -2.05864E+04  3.84602E+03 -2.10455E+04  1.67041E+04 -1.91755E+04
  2.68558E+04 -1.34515E+04  3.32967E+04  2.79893E+03  2.40770E+04  2.08934E+04  4.71908E+03  3.69335E+04
 -1.78955E+04  3.06212E+04 -2.79774E+04  1.02664E+04 -2.16814E+04 -1.00786E+04 -4.53433E+03 -1.28245E+04
  1.27744E+03 -2.51759E+03 -5.77982E+03  6.89198E+03 -1.67424E+04  4.79955E+03 -1.65733E+04 -7.51965E+03
 -9.99972E+03 -1.89530E+04  5.17921E+03 -2.33901E+04  1.63031E+04 -1.65465E+04  1.87121E+04 -2.24070E+03
  1.16073E+04  1.33136E+04 -9.84907E+02  1.99794E+04 -1.33628E+04  1.08675E+04 -1.94595E+04 -4.24700E+03
 -1.41725E+04 -1.75490E+04 -1.96715E+03 -2.32295E+04  1.03517E+04 -1.89316E+04  1.93287E+04 -9.85930E+03
  1.84020E+04 -2.00989E+02  1.28738E+04  5.15634E+03  7.02233E+03  8.80495E+02  9.47080E+03 -1.21878E+03
  1.77713E+04  3.04767E+03  2.01450E+04  1.59104E+04  1.23280E+04  3.05977E+04 -2.31220E+03  3.48507E+04
 -2.03526E+04  2.81417E+04 -3.29253E+04  1.44466E+04 -3.43804E+04 -2.74707E+03 -2.79206E+04 -2.03016E+04
 -1.16708E+04 -2.81102E+04  1.00818E+04 -2.56866E+04  2.22113E+04 -1.30170E+04  1.93768E+04  5.88080E+03
  7.33012E+03  1.41407E+04 -9.40138E+03  1.36076E+04 -1.69586E+04  2.42272E+03 -1.26262E+04 -1.03534E+04
 -5.18985E+01 -1.57578E+04  8.19358E+03 -1.22084E+04  1.03147E+04 -1.93481E+03  2.54982E+03  6.84865E+03
 -6.98189E+03  1.97896E+03 -6.35179E+03 -5.27794E+03 -8.57020E+02 -1.35641E+04  9.34217E+03 -1.51502E+04
  1.72151E+04 -7.45375E+03  1.87259E+04  2.99780E+03  1.60088E+04  1.27193E+04  7.44982E+03  2.15192E+04
 -3.14636E+03  2.19849E+04 -1.44003E+04  1.35241E+04 -1.60120E+04  3.45438E+03 -1.13081E+04 -3.51092E+03
 -5.72822E+03 -5.07880E+03 -6.29969E+02  6.87847E+02 -2.24706E+03  2.52402E+03 -5.33942E+03  3.98261E+03
 -1.08714E+04 -4.16549E+02 -1.14072E+04 -8.60526E+03 -4.64811E+03 -1.49160E+04  4.86972E+03 -1.16384E+04
  9.24630E+03 -5.38463E+03  7.08597E+03  2.60122E+03  5.39429E+02  3.95507E+03 -5.70927E+03 -5.60850E+01
 -5.18544E+03 -7.27474E+03 -9.83590E+02 -1.13665E+04  6.02243E+03 -1.15495E+04  1.42863E+04 -5.85179E+03
  1.69020E+04  1.00625E+03  1.21501E+04  9.93516E+03  2.19400E+03  1.25816E+04 -6.83291E+03  1.11110E+04
 -9.03087E+03  3.35865E+03 -5.36803E+03 -1.89415E+03  1.63263E+03 -2.96049E+03  5.94161E+03 -1.60457E+03
  5.73708E+03  5.04127E+03  1.62244E+03  8.83138E+03 -6.74634E+03  8.56155E+03 -1.02467E+04  2.19364E+03
 -7.05894E+03 -5.83574E+03  9.89567E+02 -9.73215E+03  6.43735E+03 -4.71662E+03  5.81889E+03  1.26250E+03
  1.34832E+03  5.38988E+03 -5.49968E+03  7.74033E+03 -8.27758E+03  3.19487E+03 -8.42537E+03 -2.61613E+03
 -4.24814E+03 -9.74091E+03  2.62563E+03 -1.12986E+04  9.31382E+03 -6.76990E+03  1.02559E+04  1.86688E+03
  6.23957E+03  8.35974E+03 -3.18108E+02  1.10266E+04 -7.29393E+03  5.92805E+03 -7.95223E+03 -1.00218E+03
 -6.89518E+03 -6.80111E+03 -1.23570E+03 -7.90960E+03  4.31680E+03 -6.95662E+03  5.07168E+03 -2.60065E+03
  3.40311E+03  1.02117E+03 -5.38323E+02  1.71122E+03  2.38865E+02 -1.50394E+03  1.24367E+03 -3.89278E+03
  6.13484E+03 -2.25970E+03  9.84653E+03  1.01031E+03  9.05455E+03  5.69805E+03  6.33718E+03  1.20261E+04
 -2.71484E+03  1.39105E+04 -1.16485E+04  1.01921E+04 -1.55403E+04  2.05224E+03 -1.20934E+04 -4.95503E+03
 -6.42270E+03 -1.04612E+04 -8.68881E+02 -8.96277E+03  3.38841E+03 -4.39724E+03  2.75753E+03 -2.97208E+03
  3.06729E+03 -1.92674E+03  2.97521E+03 -3.43292E+03  4.47364E+03 -2.27102E+03  5.06524E+03 -5.48510E+02
  6.82536E+03  1.98441E+03  2.31269E+03  5.50512E+03 -2.45850E+03  5.85660E+03 -7.56773E+03  4.59458E+03
 -8.19487E+03 -1.05080E+03 -4.60975E+03 -6.23610E+03  2.62511E+02 -8.65687E+03  5.26062E+03 -7.53759E+03
  9.13609E+03 -4.85697E+03  1.07960E+04  9.19583E+02  7.75142E+03  7.32621E+03  1.60748E+03  9.64209E+03
 -3.20662E+03  8.52395E+03 -6.21778E+03  2.69607E+03 -3.74355E+03 -1.33822E+03 -1.53808E+03 -1.42387E+03
 -1.14118E+03  4.56275E+02 -1.77508E+03  2.25613E+03 -3.98118E+03  2.48306E+03 -6.22581E+03 -4.81501E+02
 -3.56264E+03 -5.83297E+03  7.28358E+02 -7.38744E+03  4.33926E+03 -8.07584E+03  7.06411E+03 -2.54107E+03
  7.76233E+03  3.73721E+03  3.56343E+03  6.05972E+03 -1.65575E+03  8.21720E+03 -4.32652E+03  4.00774E+03
 -7.11446E+03  6.95001E+02 -6.02728E+03 -4.16125E+03 -2.30299E+02 -6.24486E+03  3.71405E+03 -4.56358E+03
  5.02000E+03 -1.78081E+03  3.17954E+03  1.32273E+03  6.52157E+02  2.15323E+03  1.07945E+03  9.98595E+02
  1.94714E+03  1.22140E+03  1.65367E+03  1.49303E+03  1.73748E+03  3.38197E+03  2.22808E+03  3.30627E+03
 -9.38091E+02  5.04478E+03 -5.14590E+03  6.74388E+03 -6.57729E+03  2.25782E+03 -7.36438E+03 -1.67187E+03
 -3.08681E+03 -7.48805E+03  1.19334E+03 -8.12511E+03  4.03666E+03 -4.41317E+03  5.44433E+03 -1.61972E+03
  4.01356E+03  2.88164E+03  3.85478E+02  3.90818E+03 -1.66977E+03  2.65653E+03 -2.45623E+03 -2.63318E+02
 -1.94921E+03 -3.20131E+03  2.05587E+03 -2.55242E+03  2.55291E+03 -1.27771E+03  2.76156E+03  7.96226E+02
  1.81107E+03  1.23764E+03  1.03332E+03  7.55854E+02 -5.95949E+02  5.12028E+02  1.11132E+03 -3.70484E+02
  4.25367E+02 -4.05157E+02  2.81242E+03  8.02312E+02  7.66820E+02  4.57886E+03 -5.10034E+02  3.59884E+03
 -2.96418E+03  2.30873E+03 -4.04483E+03  1.24014E+03 -4.22731E+03 -1.37535E+03 -1.14834E+03 -2.16953E+03
  3.80826E+02 -2.25971E+03  2.15764E+03 -7.59793E+02  1.73002E+03  1.08039E+03 -1.13122E+03  2.74532E+03
 -2.69207E+03  9.05887E+02 -2.90502E+03 -1.73038E+03 -8.15503E+02 -3.43960E+03  3.64152E+02 -3.39059E+03
  2.29379E+03 -1.92146E+03  1.98581E+03 -2.47418E+02  3.42738E+03  3.79022E+02  4.38467E+02  1.87591E+03
 -8.46609E+02  1.19474E+02 -1.72396E+03 -1.10628E+03  1.36155E+03 -2.40724E+03  2.69723E+03 -1.70441E+03
  2.91254E+03  4.54907E+02  4.67620E+03  1.79435E+03  1.13661E+03  3.86131E+03 -1.02843E+03  3.34814E+03
 -2.48006E+03  1.16694E+03 -3.09454E+03 -4.06645E+02 -1.87344E+03 -2.94259E+03  4.03184E+02 -1.87334E+03
  2.55177E+03 -1.65113E+03  2.17364E+03  9.18524E+02  2.50610E+02  2.00580E+03 -5.36649E+01  2.03296E+03
 -9.32418E+02  2.16047E+03 -1.10332E+03  2.86696E+02 -6.59507E+01 -5.39852E+01 -8.83213E+02  1.48303E+03
 -1.00757E+03  1.45298E+03 -3.00378E+03  8.13751E+02 -3.65916E+03  1.12926E+02 -3.90297E+03 -2.23173E+03
 -1.86917E+03 -4.89515E+03  1.19782E+03 -5.57587E+03  2.27536E+03 -4.36658E+03  5.75539E+03 -2.22627E+03
  5.18197E+03  3.90686E+02  2.69613E+03  3.19467E+03 -1.38143E+02  3.42686E+03 -1.43523E+03  2.66306E+03
 -1.29295E+03  1.52847E+03 -1.20236E+03 -8.99148E+01 -6.91330E+02  7.38105E+00 -6.58564E+02 -3.18345E+02
 -1.31829E+03 -2.40049E+02 -1.22804E+03 -4.36178E+01  2.65381E+02 -6.37550E+02 -3.97953E+02 -1.12187E+03
  1.94177E+03 -7.53032E+02  1.54286E+03 -3.57564E+02  1.97624E+03  1.96426E+03  6.96287E+01  2.99698E+03
 -1.82421E+03  4.54658E+03 -3.42959E+03  2.30443E+03 -4.20491E+03 -5.83787E+02 -2.54537E+03 -2.62149E+03
 -1.64852E+03 -3.17583E+03  8.02745E+02 -2.72665E+03  2.16922E+03 -1.29580E+03  1.57016E+03 -1.53900E+02
  1.82385E+03  9.47162E+02 -7.11414E+01  1.11342E+03 -1.04049E+03  3.07813E+02  1.83296E+02 -3.04242E+02
  1.61652E+03 -5.20157E+02  2.61865E+02  9.18174E+02  8.22413E+02  1.29290E+03  2.08013E+02  1.80997E+03
 -1.68823E+03  1.55909E+03 -1.85705E+03  5.54165E+02 -1.59803E+03 -1.21924E+03 -2.65601E+02 -2.41960E+03
  1.77255E+03 -1.95521E+03  1.48742E+03 -3.79938E+02  2.07340E+03 -5.77478E+02  1.44775E+03  1.32665E+03
  4.16515E+02  1.09305E+03 -3.96768E+02  1.58112E+03 -6.90229E+02  8.26255E+02 -4.65803E+02  7.26247E+01
 -3.08227E+02 -3.23413E+02 -4.58508E+02  5.54850E+02 -1.05759E+03  3.35003E+02 -1.62657E+03 -4.59607E+02
 -1.28309E+03 -3.40631E+02 -2.52538E+02 -1.75860E+03  1.66641E+03 -2.51904E+03  1.87001E+03 -7.78813E+02
  2.36740E+03  3.49081E+02  5.63437E+02  1.82773E+03 -1.73807E+02  1.62372E+03 -9.38861E+02  1.52295E+03
