 $NMID ID='MM_0lb_SNR400_17hz_g60_90.RAW', FMTDAT='(8E13.5)'
 TRAMP=1., VOLUME=1. $END
  3.09812E+05  5.55912E+02  3.37015E+05  2.50425E+05  8.47549E+04  3.37451E+05 -1.32706E+05  2.50142E+05
 -1.90605E+05  8.33221E+04 -1.11688E+05 -3.28819E+04  8.74982E+02 -5.09601E+04  5.43112E+04 -2.98673E+02
  3.53650E+04  5.25375E+04 -1.63076E+04  7.57439E+04 -6.08370E+04  6.35423E+04 -8.42791E+04  3.25193E+04
 -8.12621E+04 -1.20859E+04 -5.74147E+04 -5.17091E+04 -1.52826E+04 -6.96209E+04  2.73711E+04 -4.54356E+04
  4.02360E+04  4.28031E+03  1.59857E+04  4.73083E+04 -3.45316E+04  4.78142E+04 -6.67431E+04 -6.55570E+02
 -5.32682E+04 -5.68332E+04 -6.78379E+03 -7.70719E+04  3.38712E+04 -5.54282E+04  4.77474E+04 -1.70513E+04
  4.33963E+04  1.15219E+04  3.19450E+04  2.57376E+04  1.61018E+04  2.90592E+04 -5.09015E+03  2.73881E+04
 -2.15789E+04  1.22287E+04 -1.89063E+04 -4.14235E+03  5.70371E+03 -7.56136E+03  2.20257E+04  1.16269E+04
  7.26262E+03  3.48931E+04 -3.21940E+04  3.53650E+04 -6.26651E+04  2.37069E+03 -5.67120E+04 -4.26141E+04
 -1.30510E+04 -6.26597E+04  3.95575E+04 -4.47289E+04  5.76931E+04 -2.57995E+03  3.38092E+04  3.21667E+04
 -5.63566E+03  3.58018E+04 -2.98636E+04  1.52476E+04 -2.97364E+04 -5.07109E+03 -1.67946E+04 -1.05566E+04
 -8.00377E+03 -1.32739E+04  9.88503E+01 -1.86539E+04  7.53364E+03 -2.30347E+04  1.51063E+04 -1.39706E+04
  1.13321E+04  4.38506E+03 -7.65747E+03  1.27360E+04 -2.16042E+04 -4.17114E+03 -8.21137E+03 -3.33017E+04
  2.29137E+04 -4.31361E+04  4.76702E+04 -1.94465E+04  4.45090E+04  1.88107E+04  1.53205E+04  4.35913E+04
 -1.55471E+04  3.25417E+04 -2.47194E+04  1.73454E+03 -9.01748E+03 -2.78333E+04  2.06996E+04 -3.32994E+04
  4.05125E+04 -8.44775E+03  3.47821E+04  2.38228E+04  1.73491E+04  4.58685E+04 -8.22875E+03  4.94444E+04
 -3.05634E+04  3.29731E+04 -4.08743E+04  9.59201E+03 -4.16724E+04 -1.60923E+04 -2.34910E+04 -3.77142E+04
  7.31767E+03 -3.66715E+04  3.11429E+04 -1.44244E+04  2.82604E+04  1.09363E+04  3.72224E+03  1.90998E+04
 -1.35107E+04  8.33023E+03 -1.05147E+04 -7.66587E+03  6.15689E+03 -1.02085E+04  1.73806E+04  6.04722E+03
  1.27464E+04  2.17040E+04 -5.93114E+03  2.49843E+04 -2.21406E+04  1.07501E+04 -2.70282E+04 -5.19942E+03
 -1.88940E+04 -1.74079E+04 -7.59384E+03 -1.95085E+04  4.00313E+03 -1.87117E+04  1.50505E+04 -1.71697E+04
  2.45240E+04 -1.20620E+04  3.16934E+04  2.68471E+03  2.32487E+04  1.88975E+04  4.52867E+03  3.48710E+04
 -1.75193E+04  2.93199E+04 -2.73792E+04  9.79035E+03 -2.06622E+04 -1.06767E+04 -4.42428E+03 -1.35109E+04
  1.64418E+03 -2.97038E+03 -4.09049E+03  6.56638E+03 -1.57194E+04  5.42997E+03 -1.54211E+04 -6.54258E+03
 -9.59838E+03 -1.80306E+04  5.36699E+03 -2.24489E+04  1.45957E+04 -1.57617E+04  1.67531E+04 -1.48526E+03
  1.00966E+04  1.21645E+04 -9.64218E+02  1.81584E+04 -1.28008E+04  1.07497E+04 -1.77182E+04 -3.52700E+03
 -1.33710E+04 -1.65554E+04 -1.76555E+03 -2.18533E+04  9.64190E+03 -1.77998E+04  1.87155E+04 -9.01466E+03
  1.69370E+04  1.66586E+02  1.17477E+04  4.13979E+03  5.71821E+03  8.99607E+02  8.83961E+03 -1.65993E+03
  1.59584E+04  2.98991E+03  1.73718E+04  1.44580E+04  1.16172E+04  2.83076E+04 -2.83507E+03  3.15118E+04
 -1.87301E+04  2.47715E+04 -2.91084E+04  1.20974E+04 -3.06954E+04 -2.56355E+03 -2.57261E+04 -1.75217E+04
 -1.11427E+04 -2.47509E+04  8.53722E+03 -2.28126E+04  1.93966E+04 -1.16982E+04  1.75249E+04  4.56819E+03
  7.01184E+03  1.33749E+04 -8.16595E+03  1.18163E+04 -1.49027E+04  2.51575E+03 -1.14839E+04 -9.38800E+03
 -4.60878E+02 -1.39313E+04  6.90916E+03 -1.09256E+04  8.90432E+03 -1.77759E+03  1.81801E+03  5.52000E+03
 -6.28736E+03  2.28001E+03 -6.11824E+03 -5.44981E+03  5.17646E+02 -1.25397E+04  8.83309E+03 -1.25346E+04
  1.48859E+04 -7.18432E+03  1.64203E+04  2.80322E+03  1.33099E+04  1.17738E+04  6.42742E+03  1.83918E+04
 -2.69246E+03  1.94261E+04 -1.26017E+04  1.20598E+04 -1.34924E+04  3.82902E+03 -1.03012E+04 -3.35933E+03
 -5.18047E+03 -4.28234E+03 -9.80642E+02  1.05380E+03 -2.01071E+03  2.19577E+03 -4.46061E+03  4.70749E+03
 -9.07793E+03 -3.98217E+02 -9.98750E+03 -7.91674E+03 -4.07803E+03 -1.37291E+04  4.23522E+03 -1.05280E+04
  8.94042E+03 -4.44853E+03  6.78018E+03  2.70797E+03  7.45563E+02  3.68510E+03 -4.02381E+03 -1.90778E+02
 -4.78547E+03 -6.87914E+03 -9.97308E+02 -9.25579E+03  5.32734E+03 -9.80417E+03  1.17906E+04 -4.75371E+03
  1.44490E+04  9.92422E+02  1.06944E+04  7.92894E+03  1.69680E+03  1.06428E+04 -6.08785E+03  9.94477E+03
 -8.36857E+03  3.10532E+03 -3.94317E+03 -1.26871E+03  2.05668E+03 -2.65585E+03  5.53317E+03 -9.00110E+02
  4.63820E+03  3.98569E+03  1.58335E+03  7.49662E+03 -5.30252E+03  7.50331E+03 -9.84641E+03  2.07643E+03
 -5.65159E+03 -4.40025E+03  3.72111E+02 -8.02045E+03  4.62974E+03 -3.80427E+03  4.49259E+03  1.50781E+03
  1.14063E+03  5.04825E+03 -4.99147E+03  5.98680E+03 -6.08521E+03  3.14366E+03 -6.81683E+03 -1.75694E+03
 -4.21587E+03 -7.96933E+03  1.87347E+03 -9.45372E+03  7.49137E+03 -6.27469E+03  8.66840E+03  1.83557E+03
  6.08472E+03  7.38222E+03 -3.65456E+02  8.80398E+03 -6.19796E+03  5.25225E+03 -5.85117E+03 -1.17043E+03
 -6.44318E+03 -6.40315E+03 -1.16558E+03 -6.42169E+03  3.11518E+03 -6.01592E+03  3.62642E+03 -2.83231E+03
  3.44389E+03  6.41527E+02 -6.09062E+01  1.09305E+03  4.25045E+02 -6.34400E+02  7.91233E+02 -2.52875E+03
  5.48092E+03 -1.17885E+03  7.08346E+03  6.11050E+02  7.04041E+03  4.19686E+03  6.03704E+03  9.06018E+03
 -2.00078E+03  1.12528E+04 -9.51553E+03  8.47865E+03 -1.28252E+04  1.51547E+03 -9.91968E+03 -3.52114E+03
 -5.44077E+03 -8.41950E+03 -1.49995E+02 -6.45853E+03  2.41098E+03 -2.95241E+03  2.49803E+03 -2.55463E+03
  1.72729E+03 -2.43352E+03  2.22006E+03 -2.85377E+03  3.67803E+03 -1.72475E+03  4.31180E+03  5.55167E+02
  5.66388E+03  1.19509E+03  6.87525E+02  4.20062E+03 -1.56349E+03  4.35787E+03 -5.54357E+03  3.61243E+03
 -6.45859E+03 -1.20818E+03 -2.70199E+03 -4.48181E+03  4.06270E+01 -6.75664E+03  4.19514E+03 -6.94479E+03
  6.91596E+03 -4.03976E+03  8.63954E+03  3.13841E+02  5.74484E+03  5.25426E+03  9.94694E+02  8.16862E+03
 -2.59207E+03  7.40045E+03 -4.13162E+03  2.52884E+03 -3.16675E+03 -1.19481E+03 -1.27520E+03 -1.09093E+03
 -8.80410E+02  4.88301E+02 -5.85699E+02  1.92821E+03 -2.49471E+03  9.52134E+02 -4.71827E+03 -3.14749E+02
 -1.99699E+03 -5.17829E+03  5.04414E+02 -5.89368E+03  4.02308E+03 -5.49941E+03  4.84951E+03 -1.49233E+03
  5.36245E+03  3.03522E+03  2.19770E+03  4.99770E+03 -1.16729E+03  5.57234E+03 -4.11619E+03  3.11645E+03
 -5.23725E+03  9.23111E+02 -4.63560E+03 -3.17740E+03 -2.36961E+02 -4.86358E+03  1.76576E+03 -3.06883E+03
  3.14832E+03 -1.50794E+03  2.97523E+03 -1.89420E+02  6.93132E+02  2.23470E+03  6.93530E+02  9.93654E+02
  1.74005E+03  5.05613E+02  1.85088E+03  1.23634E+03  1.45211E+03  2.32719E+03  1.69837E+03  2.34346E+03
 -1.66067E+03  3.92351E+03 -3.50569E+03  4.42327E+03 -4.42255E+03  1.30601E+03 -5.60602E+03 -8.08128E+02
 -2.45272E+03 -5.12797E+03  5.86133E+02 -6.15731E+03  2.39526E+03 -3.63469E+03  3.62224E+03 -7.74862E+02
  3.33103E+03  2.28732E+03  5.39229E+02  3.42067E+03 -1.12153E+03  1.80394E+03 -1.70418E+03 -1.27902E+02
 -1.21926E+03 -2.17984E+03  1.48934E+03 -1.95404E+03  2.11744E+03 -8.17417E+02  1.65514E+03  2.99660E+02
  4.55246E+02  5.27702E+02  7.21509E+02 -2.35251E+01 -4.81771E+02  8.10996E+02  1.93900E+03 -1.93839E+02
  7.06849E+02 -4.85163E+02  2.79512E+03  8.54160E+02  8.93429E+02  2.55158E+03 -6.87641E+02  3.44696E+03
 -2.09014E+03  8.69307E+02 -2.48211E+03  3.51470E+02 -2.52894E+03 -1.01878E+03 -6.49653E+01 -1.40590E+03
  2.18020E+02 -1.71803E+03  1.55352E+03 -7.98609E+02  7.84679E+02  1.15506E+03 -9.36576E+02  1.38338E+03
 -2.26918E+03  9.91110E+02 -1.81529E+03 -1.32350E+03 -9.33479E+02 -2.70569E+03  2.47890E+02 -2.04908E+03
  1.48124E+03 -7.53129E+02  1.21385E+03  2.36666E+02  1.30264E+03 -1.13530E+02  6.64421E+01  1.09773E+03
 -6.45717E+02  4.60078E+02 -1.60400E+03 -5.58230E+02  7.49906E+02 -1.47577E+03  2.05095E+03 -1.61261E+03
  1.59421E+03  1.72801E+02  2.83578E+03  1.01214E+03  9.99099E+02  2.29778E+03 -5.14254E+02  2.63552E+03
 -2.46032E+03  6.90970E+02 -2.26208E+03 -4.90398E+01 -1.19539E+03 -1.70383E+03  3.81932E+02 -3.18582E+02
  1.69888E+03 -1.04703E+03  9.16923E+02  1.48090E+02  3.79580E+02  1.33377E+03  4.72831E+02  1.40331E+03
 -2.12067E+02  1.22079E+03 -1.10782E+03 -5.01868E+01  5.53083E+02  3.02056E+02 -9.50583E+02  9.12967E+02
 -1.28613E+02  1.50659E+03 -2.40446E+03  4.62936E+02 -2.59084E+03  2.26786E+02 -3.38080E+03 -1.24327E+03
 -1.41535E+03 -2.73205E+03  8.67984E+02 -3.76457E+03  1.78113E+03 -2.67828E+03  3.47124E+03 -1.23373E+03
  2.86094E+03  8.05436E+01  1.53797E+03  2.03245E+03 -9.21130E+01  1.33564E+03 -8.22606E+02  1.16748E+03
 -1.71176E+03  1.14711E+03 -8.43086E+02 -7.01121E+02 -4.94499E+01  1.47561E+02 -6.25852E+02 -1.91002E+02
 -8.63388E+02 -2.55235E+02 -8.09196E+02  1.31813E+02  2.22241E+01 -7.64248E+02 -3.11965E+02 -9.46063E+02
  1.57094E+03 -1.19390E+03  4.31411E+02 -1.45039E+02  1.11380E+03  1.39646E+03 -3.61270E+02  1.68515E+03
 -1.01443E+03  3.19555E+03 -2.18200E+03  1.34984E+03 -2.21718E+03 -7.48443E+02 -1.51039E+03 -1.90503E+03
 -1.12136E+03 -1.99282E+03  2.99119E+02 -1.65562E+03  1.48594E+03 -6.40897E+02  1.25764E+03  2.94648E+02
  5.14912E+02  3.59680E+02 -2.23543E+02  1.93219E+02 -5.33653E+02 -2.75207E+01 -1.36485E+02 -4.97663E+02
  9.18724E+02  4.36938E+02  5.57476E+02  5.83020E+02 -1.30695E+02  3.31831E+02 -2.18059E+02  4.19167E+02
 -6.86547E+02  6.28817E+02 -1.01359E+03  1.73080E+02 -1.10957E+03 -8.17956E+02  5.00822E+01 -1.24224E+03
  7.67546E+02 -8.42895E+02  8.82125E+02  1.48275E+01  7.17311E+02 -5.17669E+02  8.08413E+01  1.25977E+03
  7.11599E+01  4.35227E+02 -1.01571E+02  6.65603E+02 -4.72583E+02  7.95412E+02  4.63068E+02  7.30560E+01
 -2.88181E+02  2.04534E+02 -4.42345E+02  2.06832E+02 -8.91024E+02  4.18997E+02 -7.86585E+02 -4.20955E+02
 -1.46061E+03 -2.21887E+02 -7.66589E+02 -1.12131E+03  6.71417E+02 -1.59686E+03  9.14993E+02 -8.28820E+02
  1.01265E+03 -4.65342E+01  3.64086E+02  5.78568E+02  5.37034E+02  9.18221E+02 -9.06894E+02  1.60844E+03
