 $NMID ID='MM_0lb_SNR400_18hz_g55_49.RAW', FMTDAT='(8E13.5)'
 TRAMP=1., VOLUME=1. $END
  3.10018E+05  3.32537E+02  3.37176E+05  2.51004E+05  8.43927E+04  3.37931E+05 -1.32578E+05  2.50613E+05
 -1.89505E+05  8.29624E+04 -1.11814E+05 -3.28754E+04  1.03727E+03 -5.05153E+04  5.38855E+04 -1.49716E+02
  3.45595E+04  5.26131E+04 -1.68263E+04  7.45504E+04 -6.06432E+04  6.26702E+04 -8.36630E+04  3.14198E+04
 -8.05112E+04 -1.10977E+04 -5.64384E+04 -5.03524E+04 -1.49482E+04 -6.93441E+04  2.72601E+04 -4.51086E+04
  3.99638E+04  3.90794E+03  1.52888E+04  4.73943E+04 -3.40730E+04  4.62728E+04 -6.59067E+04 -3.01217E+02
 -5.29997E+04 -5.64813E+04 -6.64991E+03 -7.63496E+04  3.38487E+04 -5.46055E+04  4.71696E+04 -1.73782E+04
  4.22732E+04  1.13455E+04  3.07513E+04  2.47015E+04  1.57783E+04  2.89554E+04 -4.69075E+03  2.71185E+04
 -2.16071E+04  1.20838E+04 -1.90532E+04 -4.22757E+03  4.83053E+03 -7.52570E+03  2.16092E+04  1.14987E+04
  7.24534E+03  3.39641E+04 -3.13176E+04  3.53518E+04 -6.20009E+04  1.82836E+03 -5.61503E+04 -4.22503E+04
 -1.28125E+04 -6.11333E+04  3.85987E+04 -4.43160E+04  5.66725E+04 -2.26105E+03  3.35991E+04  3.17264E+04
 -5.90150E+03  3.43641E+04 -2.90063E+04  1.45618E+04 -2.86787E+04 -4.84449E+03 -1.47525E+04 -1.08686E+04
 -7.93170E+03 -1.24553E+04 -1.22447E+03 -1.72152E+04  6.99651E+03 -2.21858E+04  1.49443E+04 -1.35736E+04
  1.19445E+04  4.59913E+03 -6.89431E+03  1.29869E+04 -1.98380E+04 -3.63308E+03 -8.26723E+03 -3.19441E+04
  2.15406E+04 -4.16083E+04  4.64628E+04 -1.96934E+04  4.34292E+04  1.88345E+04  1.45691E+04  4.23992E+04
 -1.58816E+04  3.20935E+04 -2.38324E+04  9.83031E+02 -8.99105E+03 -2.74861E+04  2.02883E+04 -3.19646E+04
  3.89304E+04 -7.77658E+03  3.35830E+04  2.32285E+04  1.60126E+04  4.47141E+04 -7.96563E+03  4.70694E+04
 -2.96516E+04  3.15719E+04 -3.89247E+04  8.98499E+03 -4.00928E+04 -1.51653E+04 -2.16921E+04 -3.54766E+04
  6.77396E+03 -3.48950E+04  2.99543E+04 -1.33903E+04  2.77670E+04  1.00041E+04  3.64555E+03  1.83496E+04
 -1.28292E+04  7.49985E+03 -9.98815E+03 -7.82515E+03  5.66007E+03 -1.00874E+04  1.77975E+04  6.39643E+03
  1.24932E+04  2.18227E+04 -6.69198E+03  2.40744E+04 -2.16745E+04  1.00094E+04 -2.59215E+04 -6.31209E+03
 -1.80355E+04 -1.67319E+04 -6.21205E+03 -1.81356E+04  3.78414E+03 -1.69472E+04  1.39382E+04 -1.57163E+04
  2.31905E+04 -1.15171E+04  3.00774E+04  1.72606E+03  2.22217E+04  1.76285E+04  3.44968E+03  3.40434E+04
 -1.66115E+04  2.86677E+04 -2.66366E+04  1.03349E+04 -2.04101E+04 -1.01714E+04 -4.27453E+03 -1.39473E+04
  1.98340E+03 -4.07201E+03 -3.54799E+03  5.98433E+03 -1.41651E+04  5.33651E+03 -1.37097E+04 -5.53203E+03
 -9.30642E+03 -1.67877E+04  4.64298E+03 -1.99919E+04  1.37296E+04 -1.50086E+04  1.60414E+04 -1.06034E+03
  9.59361E+03  1.17393E+04 -7.61497E+02  1.65716E+04 -1.12053E+04  9.46791E+03 -1.64116E+04 -3.74510E+03
 -1.25199E+04 -1.48262E+04 -1.71320E+03 -2.00212E+04  9.76611E+03 -1.62947E+04  1.73179E+04 -7.71129E+03
  1.55400E+04  1.49436E+02  1.18269E+04  4.56567E+03  5.74542E+03  8.50410E+02  8.47996E+03 -1.54996E+03
  1.43835E+04  2.48220E+03  1.63902E+04  1.38938E+04  9.96286E+03  2.59331E+04 -2.58131E+03  2.82898E+04
 -1.76089E+04  2.27160E+04 -2.65106E+04  1.06805E+04 -2.76209E+04 -2.23180E+03 -2.37117E+04 -1.60685E+04
 -1.03131E+04 -2.28661E+04  7.84415E+03 -2.02138E+04  1.81187E+04 -1.17224E+04  1.66190E+04  4.07200E+03
  7.11862E+03  1.17735E+04 -8.02210E+03  1.12227E+04 -1.41664E+04  2.58150E+03 -1.09529E+04 -8.68370E+03
 -5.11764E+02 -1.27989E+04  6.73763E+03 -1.02158E+04  8.48516E+03 -1.29104E+03  1.56561E+03  5.35817E+03
 -5.71729E+03  1.39420E+03 -4.45404E+03 -4.67005E+03  1.97760E+02 -1.08418E+04  8.30543E+03 -1.10849E+04
  1.32412E+04 -5.28353E+03  1.35568E+04  2.71945E+03  1.18646E+04  1.09423E+04  5.60982E+03  1.54183E+04
 -1.73858E+03  1.76975E+04 -1.08606E+04  1.12022E+04 -1.23884E+04  2.55522E+03 -9.12344E+03 -2.23024E+03
 -4.61128E+03 -3.75036E+03 -1.20566E+03  1.30871E+03 -1.91487E+03  2.50722E+03 -4.01909E+03  3.71010E+03
 -8.18474E+03 -9.71702E+02 -9.02863E+03 -7.51312E+03 -3.72318E+03 -1.28016E+04  4.21802E+03 -9.40732E+03
  7.93311E+03 -3.77167E+03  5.61360E+03  2.52615E+03  3.51923E+02  3.17975E+03 -4.00381E+03  3.40709E+02
 -3.41108E+03 -5.81407E+03 -4.17640E+02 -7.73186E+03  4.32181E+03 -8.68740E+03  1.10681E+04 -4.24208E+03
  1.28208E+04  9.02497E+02  8.65486E+03  6.52506E+03  2.09848E+03  9.66581E+03 -6.13121E+03  8.63403E+03
 -7.99095E+03  3.30141E+03 -3.69640E+03 -1.48621E+03  1.42149E+03 -1.97611E+03  5.07465E+03 -9.25439E+02
  4.23839E+03  3.53976E+03  1.01724E+03  6.03360E+03 -4.94830E+03  6.21831E+03 -8.12398E+03  1.83672E+03
 -5.18810E+03 -4.30201E+03  1.61374E+02 -6.92834E+03  4.29959E+03 -3.59832E+03  3.36771E+03  1.52346E+03
  5.17684E+02  4.01207E+03 -4.30861E+03  4.51756E+03 -5.50724E+03  2.60359E+03 -5.45207E+03 -2.14371E+03
 -3.07998E+03 -6.49437E+03  1.26629E+03 -7.67910E+03  6.61563E+03 -5.41718E+03  7.30342E+03  1.26860E+03
  4.91960E+03  5.59254E+03  2.06882E+02  7.99792E+03 -5.23845E+03  4.07479E+03 -5.67349E+03 -3.83064E+02
 -6.00498E+03 -5.71795E+03 -1.16106E+03 -5.91294E+03  2.36980E+03 -5.01319E+03  3.13542E+03 -3.07355E+03
  3.06342E+03  8.93730E+02  9.01467E+00  1.37524E+03  5.12351E+02 -4.00310E+02  6.49449E+02 -2.36581E+03
  4.61329E+03 -1.00453E+03  6.29192E+03  1.13302E+03  6.25705E+03  4.43497E+03  5.48519E+03  8.00665E+03
 -1.35425E+03  9.42478E+03 -8.20648E+03  6.76946E+03 -1.08605E+04  1.41223E+03 -8.23876E+03 -3.23785E+03
 -4.74921E+03 -7.32229E+03 -1.45305E+02 -5.70530E+03  2.66561E+03 -2.13880E+03  1.22816E+03 -2.70109E+03
  1.32118E+03 -2.38357E+03  2.48201E+03 -2.65044E+03  3.93230E+03 -1.36832E+03  3.50866E+03  2.27715E+02
  4.74318E+03  9.79434E+02  1.38406E+03  3.54889E+03 -1.33206E+03  3.74692E+03 -4.92767E+03  2.72892E+03
 -5.64519E+03 -1.24460E+03 -1.76911E+03 -4.18610E+03  6.31602E+02 -6.08591E+03  3.61028E+03 -5.47940E+03
  5.86056E+03 -3.57347E+03  7.20967E+03  7.45766E+02  5.41159E+03  4.71595E+03  1.03764E+03  6.50159E+03
 -2.39962E+03  5.61741E+03 -3.62418E+03  1.77073E+03 -1.93869E+03 -1.48226E+03 -3.25829E+02 -1.06943E+03
 -4.81564E+02  4.37600E+02 -9.20136E+02  2.09150E+03 -2.24392E+03  1.21475E+03 -4.55392E+03 -6.53913E+02
 -1.22136E+03 -3.60308E+03  7.59590E+02 -5.19029E+03  2.69835E+03 -4.66246E+03  3.94549E+03 -1.35798E+03
  5.16091E+03  2.75422E+03  2.18017E+03  4.17939E+03 -6.45993E+02  5.26806E+03 -2.41464E+03  2.91532E+03
 -4.34705E+03  1.04752E+03 -3.42381E+03 -2.67855E+03 -2.44143E+02 -3.03150E+03  1.48194E+03 -2.79960E+03
  2.27024E+03 -1.62997E+03  1.81318E+03  1.37849E+02  6.27106E+02  1.45298E+03  1.33500E+03  6.30099E+02
  1.64823E+03 -7.77745E+01  6.52556E+02  1.21835E+03  1.79539E+03  2.46618E+03  1.47275E+03  2.39101E+03
 -1.38124E+03  3.07016E+03 -2.98259E+03  4.36112E+03 -3.48543E+03  1.36560E+03 -4.68056E+03 -6.91544E+02
 -1.81805E+03 -4.29726E+03  9.66488E+02 -5.12513E+03  2.23550E+03 -2.73733E+03  2.99133E+03 -7.89405E+02
  2.45450E+03  1.92989E+03  6.99385E+02  2.56881E+03 -7.90509E+02  1.13501E+03 -1.41457E+03 -3.30990E+02
 -9.88326E+01 -1.84666E+03  8.17246E+02 -1.46214E+03  1.32612E+03 -1.10526E+03  1.46983E+03  6.48265E+02
  9.72236E+02 -2.73019E+01  8.72598E+02 -5.20872E+02 -6.21707E+02  4.70775E+02  1.57448E+03 -8.53509E+02
  5.98096E+02 -3.29810E+02  1.85357E+03  6.83669E+02  7.05243E+02  2.51813E+03 -1.59995E+02  3.33769E+03
 -1.54407E+03  1.15149E+03 -2.01516E+03  8.40368E+02 -1.43498E+03 -6.29232E+02 -5.94504E+02 -5.36412E+02
  8.70685E+02 -1.57200E+03  1.08981E+03 -8.01038E+02  9.09256E+02  1.32989E+03 -3.48072E+02  6.06541E+02
 -1.57937E+03  1.20949E+03 -1.13523E+03 -9.55443E+02 -1.05082E+03 -2.47403E+03  7.80089E+01 -1.52943E+03
  2.53936E+02 -8.27985E+02  9.21704E+02  4.95615E+02  5.95768E+02  2.75399E+02  8.78569E+02  9.47122E+02
 -7.11083E+02  1.83059E+02 -9.41487E+02 -2.68703E+02  4.18626E+02 -1.23063E+03  1.61789E+03 -1.07347E+03
  1.68157E+03  7.80112E+02  2.83096E+03  1.12463E+03  1.01488E+03  2.19301E+03 -1.47773E+02  1.77790E+03
 -1.78897E+03  4.87711E+02 -1.54463E+03 -4.03827E+02 -7.12421E+02 -1.53526E+03  7.18479E+02 -3.41703E+02
  1.28453E+03 -4.61481E+02  1.31773E+03  7.54431E+02 -2.74032E+02  1.77523E+03  1.07905E+02  1.05542E+03
 -5.74958E+02  1.27599E+03 -4.75867E+02  3.24675E+02 -8.79812E+02  1.25335E+02 -5.82685E+02  4.19277E+02
 -5.22431E+02  1.06821E+03 -2.17220E+03  1.57877E+02 -1.91188E+03  2.14533E+02 -2.35797E+03 -1.35127E+03
 -1.55148E+03 -2.52782E+03  3.26769E+02 -2.98589E+03  1.72263E+03 -2.85920E+03  2.76929E+03 -1.57662E+03
  2.63037E+03  3.63719E+02  1.77103E+03  1.34773E+03  6.25289E+02  1.89219E+03 -1.90785E+02  1.28253E+03
 -1.30681E+03  8.72817E+02 -7.84460E+02  1.01977E+02 -1.33670E+02  9.34220E+01 -6.48988E+02 -1.15880E+02
 -1.80006E+03 -4.95894E+02 -1.10978E+03 -3.46466E+02  6.29538E+02 -5.57558E+02 -4.89525E+02 -1.22579E+03
  1.77659E+03 -2.96532E+02  4.82388E+02 -3.49427E+02  1.09402E+03  8.81854E+02 -6.85367E+02  1.96526E+03
 -8.00109E+02  2.39995E+03 -1.42486E+03  1.71960E+03 -1.70084E+03 -4.51774E+02 -1.36887E+03 -1.22723E+03
 -8.90434E+02 -1.59661E+03 -2.59362E+02 -1.30047E+03  5.08324E+02 -5.34221E+02  1.15676E+03 -6.12168E+01
  7.01984E+02 -1.32545E+02  4.23165E+02  4.08474E+02 -6.00078E+02 -1.45832E+02 -4.16088E+02 -5.77063E+02
  5.34905E+02  7.05303E+01  7.77525E+02  7.35035E+00  7.72966E+01  4.26709E+02  1.51150E+02  5.55134E+02
 -5.81931E+02  6.01983E+02 -8.19182E+02 -2.43433E+02 -4.14639E+02 -3.38883E+01  2.38368E+01 -1.38044E+03
  1.48552E+02 -1.31428E+03  4.83544E+02 -7.70107E+02  1.16165E+03 -6.08530E+02  5.45807E+02  1.28168E+03
  3.47846E+02  4.72963E+02  2.38725E+02  7.70106E+02  4.58673E+01  5.83563E+02 -8.36911E+02  3.41520E+01
 -6.41023E+02 -5.13634E+02 -2.42732E+02  3.35806E+02 -7.05883E+02  6.31753E+01 -7.13779E+02 -2.80315E+02
 -9.39442E+02  1.78691E+02  1.50655E+02 -5.91325E+02  6.58117E+02 -1.51629E+03  9.85877E+02 -7.16895E+02
  8.62784E+02 -6.98919E+01 -2.37771E+02  4.04646E+02 -4.92659E+02  9.00995E+02 -5.50651E+02  5.90825E+02
