 $NMID ID='MM_0lb_SNR400_9hz_g60_22.RAW', FMTDAT='(8E13.5)'
 TRAMP=1., VOLUME=1. $END
  3.10197E+05  9.28311E+02  3.37221E+05  2.51364E+05  8.50248E+04  3.38082E+05 -1.32537E+05  2.52022E+05
 -1.91400E+05  8.44839E+04 -1.13187E+05 -3.26956E+04  1.33226E+01 -5.05477E+04  5.28697E+04 -1.40031E+03
  3.56825E+04  5.40895E+04 -1.64994E+04  7.55268E+04 -6.05989E+04  6.47426E+04 -8.55714E+04  3.21100E+04
 -8.29545E+04 -1.19334E+04 -5.83472E+04 -5.22318E+04 -1.52967E+04 -7.18542E+04  2.82224E+04 -4.82455E+04
  4.14014E+04  3.92724E+03  1.62585E+04  4.85389E+04 -3.52904E+04  4.86501E+04 -6.81947E+04  2.87382E+02
 -5.60968E+04 -5.83283E+04 -7.82685E+03 -7.93283E+04  3.49548E+04 -5.75866E+04  5.08732E+04 -1.78567E+04
  4.68897E+04  1.17335E+04  3.32338E+04  2.66914E+04  1.61858E+04  3.11290E+04 -5.85881E+03  2.78445E+04
 -2.25195E+04  1.14681E+04 -1.86619E+04 -5.66183E+03  7.04893E+03 -7.10549E+03  2.43382E+04  1.42526E+04
  7.05874E+03  3.84751E+04 -3.37002E+04  3.75026E+04 -6.63659E+04  1.85872E+03 -5.95668E+04 -4.52408E+04
 -1.27954E+04 -6.64790E+04  4.18106E+04 -4.75873E+04  6.19920E+04 -2.97501E+03  3.74479E+04  3.41921E+04
 -5.28450E+03  4.09749E+04 -3.28338E+04  1.86791E+04 -3.31545E+04 -3.01277E+03 -1.95812E+04 -1.23045E+04
 -1.00010E+04 -1.54795E+04 -4.17894E+02 -2.07065E+04  8.97426E+03 -2.41303E+04  1.55251E+04 -1.31643E+04
  1.03239E+04  6.91277E+03 -1.10154E+04  1.26957E+04 -2.41372E+04 -7.11601E+03 -9.33663E+03 -3.78896E+04
  2.53132E+04 -4.73593E+04  5.27296E+04 -2.10922E+04  4.93002E+04  2.13367E+04  1.73287E+04  4.79890E+04
 -1.59186E+04  3.67843E+04 -2.81343E+04  3.33156E+03 -1.17850E+04 -3.02319E+04  2.25343E+04 -3.70382E+04
  4.49172E+04 -1.17115E+04  4.07208E+04  2.48669E+04  2.12394E+04  5.22476E+04 -8.68695E+03  5.75649E+04
 -3.68952E+04  3.96664E+04 -4.90341E+04  1.11681E+04 -4.89140E+04 -1.93249E+04 -2.65139E+04 -4.42028E+04
  7.29255E+03 -4.22708E+04  3.47776E+04 -1.79693E+04  3.28345E+04  1.13883E+04  5.71826E+03  2.17322E+04
 -1.39377E+04  1.02565E+04 -1.09556E+04 -7.38013E+03  6.16038E+03 -1.07427E+04  1.96207E+04  5.16311E+03
  1.59749E+04  2.24941E+04 -4.80492E+03  2.69102E+04 -2.34340E+04  1.55208E+04 -3.28579E+04 -1.31281E+03
 -2.61644E+04 -1.79899E+04 -1.31967E+04 -2.57700E+04  4.12793E+03 -2.67695E+04  2.06477E+04 -2.42684E+04
  3.32631E+04 -1.46932E+04  3.91338E+04  5.42089E+03  2.76931E+04  2.52489E+04  4.70005E+03  4.24731E+04
 -1.99527E+04  3.45795E+04 -3.13823E+04  1.23847E+04 -2.32556E+04 -1.03867E+04 -4.85862E+03 -1.25333E+04
  2.70890E+02 -5.27528E+02 -7.72998E+03  8.49966E+03 -2.16049E+04  5.62030E+03 -2.17495E+04 -9.92868E+03
 -1.19804E+04 -2.42817E+04  5.99386E+03 -2.87950E+04  1.99074E+04 -2.02255E+04  2.38606E+04 -2.37720E+03
  1.55940E+04  1.68649E+04 -1.84243E+03  2.48399E+04 -1.70851E+04  1.40293E+04 -2.45257E+04 -5.15128E+03
 -1.78956E+04 -2.12814E+04 -2.81790E+03 -2.95077E+04  1.29951E+04 -2.44855E+04  2.33700E+04 -1.26880E+04
  2.22612E+04 -6.74128E+02  1.73848E+04  5.21543E+03  9.33331E+03  1.87392E+03  1.23702E+04 -1.56783E+03
  2.30673E+04  3.98397E+03  2.67579E+04  1.99588E+04  1.87463E+04  3.96121E+04 -2.20801E+03  4.59127E+04
 -2.64653E+04  3.96835E+04 -4.38381E+04  2.02174E+04 -4.78817E+04 -3.55148E+03 -3.90537E+04 -2.69990E+04
 -1.45871E+04 -3.87372E+04  1.42779E+04 -3.45618E+04  2.95789E+04 -1.56100E+04  2.56180E+04  8.71784E+03
  8.03910E+03  1.98434E+04 -1.11061E+04  1.71306E+04 -2.12118E+04  1.64796E+03 -1.55264E+04 -1.28714E+04
 -1.30950E+03 -1.99059E+04  1.08139E+04 -1.55494E+04  1.40583E+04 -8.76761E+02  4.42069E+03  1.00318E+04
 -9.00656E+03  4.13432E+03 -1.04806E+04 -6.92129E+03 -1.63419E+03 -1.95005E+04  1.23826E+04 -2.08950E+04
  2.41660E+04 -1.19015E+04  2.77940E+04  2.78300E+03  2.39930E+04  1.93196E+04  1.22888E+04  3.21033E+04
 -5.89601E+03  3.34830E+04 -2.23644E+04  1.95642E+04 -2.33592E+04  3.86062E+03 -1.58677E+04 -7.00485E+03
 -7.26560E+03 -7.47692E+03 -6.71404E+02  1.99908E+02 -2.87676E+03  3.65980E+03 -7.77471E+03  5.58182E+03
 -1.49455E+04 -7.28176E+02 -1.53578E+04 -1.25867E+04 -6.18354E+03 -2.07856E+04  6.96500E+03 -1.65545E+04
  1.36159E+04 -7.20292E+03  8.68326E+03  4.66804E+03 -5.98355E+02  6.66846E+03 -8.61842E+03 -6.46560E+02
 -7.40153E+03 -1.15466E+04 -8.65207E+02 -1.70510E+04  9.44466E+03 -1.76249E+04  2.07228E+04 -9.26857E+03
  2.56997E+04  2.90414E+03  1.80674E+04  1.52707E+04  3.28281E+03  1.97637E+04 -1.07363E+04  1.67180E+04
 -1.30909E+04  4.65122E+03 -7.27763E+03 -2.66410E+03  2.72819E+03 -4.86388E+03  9.09919E+03 -1.08897E+03
  7.30888E+03  7.79234E+03  1.17055E+03  1.30816E+04 -9.12033E+03  1.29829E+04 -1.62261E+04  2.68700E+03
 -1.11834E+04 -9.28208E+03 -3.21446E+02 -1.46907E+04  8.66792E+03 -6.82413E+03  9.89173E+03  3.22289E+03
  2.12220E+03  1.21614E+04 -8.88390E+03  1.20208E+04 -1.43261E+04  5.52170E+03 -1.49639E+04 -5.41346E+03
 -8.10067E+03 -1.77075E+04  4.66890E+03 -1.92311E+04  1.69421E+04 -1.15418E+04  1.83129E+04  3.79243E+03
  1.06264E+04  1.50990E+04 -1.91531E+03  1.71100E+04 -1.24372E+04  8.82505E+03 -1.37417E+04 -8.12485E+02
 -1.15866E+04 -1.07467E+04 -1.62246E+03 -1.26057E+04  7.23125E+03 -1.04787E+04  6.72756E+03 -3.75862E+03
  4.68507E+03  2.63387E+03 -1.51272E+03  2.43884E+03 -1.21092E+03 -3.62490E+03  3.58229E+03 -7.83250E+03
  1.22103E+04 -5.04437E+03  1.79739E+04  2.19109E+03  1.64976E+04  1.20374E+04  1.05134E+04  2.22334E+04
 -5.20076E+03  2.57290E+04 -2.12509E+04  1.96280E+04 -2.78414E+04  3.87347E+03 -2.14794E+04 -9.50031E+03
 -1.03844E+04 -1.85499E+04  1.81183E+02 -1.57643E+04  5.27306E+03 -8.30985E+03  5.84949E+03 -5.01788E+03
  4.27983E+03 -3.37497E+03  4.69274E+03 -5.25512E+03  5.16805E+03 -4.06660E+03  8.49287E+03 -1.53289E+03
  1.15336E+04  2.86554E+03  6.54586E+03  1.04636E+04 -2.68278E+03  1.24928E+04 -1.26865E+04  9.84434E+03
 -1.47962E+04 -1.36787E+03 -1.02358E+04 -1.11101E+04 -5.96790E+02 -1.73044E+04  9.49657E+03 -1.72675E+04
  1.80875E+04 -8.99028E+03  2.08793E+04  2.84937E+03  1.42501E+04  1.55525E+04  2.47276E+03  2.01098E+04
 -7.94569E+03  1.49024E+04 -1.18526E+04  6.29893E+03 -7.43649E+03 -2.14552E+03 -3.43286E+03 -2.02278E+03
 -2.01536E+03 -1.26838E+03 -3.02321E+03  3.34305E+03 -6.42106E+03  3.22279E+03 -1.09306E+04 -1.31425E+03
 -8.15749E+03 -1.02905E+04 -2.23643E+02 -1.56317E+04  9.84846E+03 -1.45909E+04  1.67612E+04 -4.52126E+03
  1.47453E+04  7.32592E+03  7.15429E+03  1.44316E+04 -2.91464E+03  1.64623E+04 -1.15986E+04  9.93260E+03
 -1.55529E+04  4.56138E+02 -1.08499E+04 -9.63816E+03 -1.26194E+03 -1.35592E+04  7.43190E+03 -1.03945E+04
  1.04361E+04 -2.82274E+03  7.36285E+03  3.29968E+03  2.87547E+03  4.53932E+03  1.26536E+03  1.95570E+03
  2.59296E+03  9.54280E+02  4.26289E+03  2.71864E+03  5.75428E+03  5.05299E+03  4.20739E+03  8.54153E+03
 -2.93740E+03  1.32986E+04 -1.12090E+04  1.22089E+04 -1.65067E+04  3.21701E+03 -1.76388E+04 -7.17003E+03
 -8.33861E+03 -1.52566E+04  1.41295E+03 -1.76858E+04  1.08737E+04 -1.13298E+04  1.34121E+04 -3.17176E+03
  1.04920E+04  5.49714E+03  2.22359E+03  9.95972E+03 -4.60137E+03  6.24445E+03 -5.93666E+03 -1.65353E+03
 -3.52112E+03 -7.09279E+03  3.19347E+03 -7.46599E+03  6.96930E+03 -3.61047E+03  7.00316E+03  1.18547E+03
  3.80370E+03  3.25393E+03  1.65062E+03  3.30945E+03 -8.93824E+02  2.63457E+03  1.25434E+03 -6.08752E+02
  2.51878E+03 -9.44758E+02  6.44740E+03  3.28886E+03  3.42313E+03  9.10728E+03 -7.60434E+02  1.15084E+04
 -7.39284E+03  7.99138E+03 -1.01688E+04  3.07439E+03 -8.50988E+03 -3.13473E+03 -4.44496E+03 -6.94638E+03
  1.09918E+03 -6.63068E+03  4.19590E+03 -2.55234E+03  3.98463E+03  3.22611E+03 -1.32116E+03  5.31922E+03
 -6.83844E+03  2.56419E+03 -7.80406E+03 -3.33074E+03 -3.87488E+03 -9.16128E+03  1.58484E+03 -1.01658E+04
  5.54602E+03 -5.70587E+03  6.45293E+03 -4.15200E+02  6.01266E+03  2.18175E+03  1.13345E+03  5.05133E+03
 -3.42158E+03  1.61429E+03 -4.05294E+03 -3.79206E+03  8.19783E+02 -7.21533E+03  8.66442E+03 -6.05058E+03
  1.00015E+04  7.19467E+02  9.43886E+03  7.23681E+03  2.82908E+03  1.14013E+04 -3.90031E+03  9.75305E+03
 -9.56899E+03  4.32558E+03 -9.29219E+03 -2.14086E+03 -4.79767E+03 -7.01618E+03  1.63824E+03 -7.22301E+03
  5.87976E+03 -3.18546E+03  5.69226E+03  3.11089E+03  2.05831E+03  7.09356E+03 -1.74092E+03  5.38744E+03
 -2.67980E+03  2.94544E+03 -2.31502E+03 -2.33562E+02 -9.17792E+02  1.52493E+03 -1.78158E+03  2.47999E+03
 -2.52956E+03  4.40812E+03 -7.67373E+03  3.88818E+03 -9.94778E+03  3.57926E+02 -1.25659E+04 -6.93279E+03
 -6.23889E+03 -1.50248E+04  2.41787E+03 -1.65723E+04  9.98087E+03 -1.34609E+04  1.52369E+04 -5.72997E+03
  1.43370E+04  3.70009E+03  9.33283E+03  9.53925E+03 -2.10036E+02  1.17688E+04 -4.57101E+03  8.86378E+03
 -6.91053E+03  3.61273E+03 -3.65366E+03 -1.58112E+03 -2.15878E+03 -6.51215E+02  8.75327E+01 -1.58629E+02
 -1.37699E+03  8.50599E+02 -2.74578E+03 -9.89589E+02 -6.35990E+02 -2.04422E+03 -2.70006E+02 -3.77316E+03
  5.45255E+03 -3.43092E+03  6.53144E+03  1.44385E+02  8.43397E+03  6.02383E+03  1.81456E+03  1.18232E+04
 -4.77158E+03  1.31739E+04 -1.18630E+04  7.31345E+03 -1.36154E+04 -8.03908E+02 -1.01810E+04 -8.06763E+03
 -4.99124E+03 -1.19372E+04  3.76323E+03 -1.12147E+04  8.27107E+03 -6.00305E+03  7.53805E+03  4.18689E+02
  5.12244E+03  3.52513E+03 -5.23049E+02  2.23960E+03 -1.70760E+03 -4.79116E+02 -4.34959E+02 -2.55429E+03
  3.97991E+03 -2.13129E+03  4.42452E+03  1.34906E+03  3.22843E+03  4.16209E+03 -6.76901E+01  5.95297E+03
 -5.50252E+03  5.10041E+03 -7.56703E+03  1.01490E+03 -6.87327E+03 -5.71046E+03 -4.09510E+02 -1.04708E+04
  6.29490E+03 -7.92173E+03  9.33613E+03 -2.58087E+03  8.19952E+03  2.50075E+03  4.69687E+03  7.10258E+03
  4.28590E+02  7.60163E+03 -3.10389E+03  6.37896E+03 -4.63991E+03  3.56476E+03 -3.72747E+03  1.08502E+03
 -2.19541E+03 -2.37129E+02 -2.30573E+03  9.11228E+02 -3.39213E+03  1.31590E+03 -6.67388E+03 -1.14416E+03
 -6.12062E+03 -3.70331E+03 -1.87909E+03 -7.53677E+03  3.94752E+03 -7.92366E+03  6.80931E+03 -3.69358E+03
  7.42022E+03  8.27911E+02  4.56911E+03  4.52183E+03 -4.28953E+02  7.71590E+03 -6.02444E+03  5.07541E+03
