 $NMID ID='MM_0lb_SNR400_19hz_g45_7.RAW', FMTDAT='(8E13.5)'
 TRAMP=1., VOLUME=1. $END
  3.09864E+05  5.07273E+02  3.37704E+05  2.50636E+05  8.41682E+04  3.37608E+05 -1.32868E+05  2.49661E+05
 -1.88865E+05  8.24371E+04 -1.10906E+05 -3.29626E+04  1.41064E+03 -4.98009E+04  5.41135E+04 -5.34816E+02
  3.49049E+04  5.28683E+04 -1.64459E+04  7.46196E+04 -6.04055E+04  6.29011E+04 -8.26421E+04  3.17847E+04
 -7.92211E+04 -1.11498E+04 -5.54394E+04 -4.98794E+04 -1.48019E+04 -6.83204E+04  2.67650E+04 -4.49727E+04
  3.94485E+04  4.31898E+03  1.55227E+04  4.62583E+04 -3.42510E+04  4.60996E+04 -6.51397E+04 -7.34738E+02
 -5.19183E+04 -5.56738E+04 -6.27477E+03 -7.51568E+04  3.39081E+04 -5.33611E+04  4.61228E+04 -1.63104E+04
  4.14822E+04  1.12434E+04  3.07932E+04  2.40966E+04  1.57475E+04  2.80269E+04 -4.09960E+03  2.70733E+04
 -2.18883E+04  1.30002E+04 -1.96431E+04 -4.49460E+03  4.24273E+03 -7.95728E+03  2.11339E+04  1.04472E+04
  7.30330E+03  3.29818E+04 -3.05499E+04  3.37055E+04 -6.05405E+04  2.26268E+03 -5.51643E+04 -4.05711E+04
 -1.22390E+04 -6.03923E+04  3.77786E+04 -4.33536E+04  5.51933E+04 -1.82418E+03  3.18571E+04  3.03160E+04
 -6.38846E+03  3.22563E+04 -2.84203E+04  1.29513E+04 -2.71423E+04 -5.71750E+03 -1.42419E+04 -1.01059E+04
 -7.25146E+03 -1.10629E+04 -7.49429E+02 -1.61491E+04  6.64243E+03 -2.24951E+04  1.49623E+04 -1.39565E+04
  1.23663E+04  4.62111E+03 -6.25811E+03  1.32835E+04 -1.89297E+04 -2.43824E+03 -8.25155E+03 -3.02502E+04
  2.02802E+04 -4.01863E+04  4.39688E+04 -1.84091E+04  4.14682E+04  1.81461E+04  1.39052E+04  4.17343E+04
 -1.48592E+04  3.11660E+04 -2.35158E+04  1.28412E+03 -8.21892E+03 -2.60927E+04  2.03705E+04 -3.11605E+04
  3.74864E+04 -6.95679E+03  3.05452E+04  2.25528E+04  1.49562E+04  4.14233E+04 -8.12650E+03  4.50103E+04
 -2.81697E+04  2.94683E+04 -3.68914E+04  8.60879E+03 -3.75626E+04 -1.54104E+04 -2.11353E+04 -3.39507E+04
  6.68642E+03 -3.32238E+04  2.85777E+04 -1.20595E+04  2.69602E+04  1.07887E+04  2.74813E+03  1.78318E+04
 -1.30579E+04  6.94878E+03 -9.26764E+03 -7.23774E+03  6.18162E+03 -1.00271E+04  1.72890E+04  6.26625E+03
  1.18553E+04  2.16960E+04 -7.05589E+03  2.29396E+04 -2.12209E+04  9.25885E+03 -2.42111E+04 -6.65483E+03
 -1.62077E+04 -1.63769E+04 -5.15611E+03 -1.64141E+04  3.57990E+03 -1.40865E+04  1.20870E+04 -1.37874E+04
  2.06744E+04 -1.16813E+04  2.74082E+04  7.45890E+02  2.03094E+04  1.58218E+04  4.43027E+03  3.16308E+04
 -1.57658E+04  2.67978E+04 -2.55798E+04  9.53731E+03 -1.92278E+04 -9.54736E+03 -3.74063E+03 -1.43542E+04
  2.55412E+03 -3.98407E+03 -2.35356E+03  4.64341E+03 -1.27343E+04  5.60403E+03 -1.28017E+04 -4.83012E+03
 -8.93231E+03 -1.45927E+04  4.44083E+03 -1.88055E+04  1.26390E+04 -1.35726E+04  1.47553E+04 -1.48644E+03
  8.32851E+03  1.08021E+04 -1.07590E+03  1.52274E+04 -1.03208E+04  8.34617E+03 -1.49714E+04 -3.75278E+03
 -1.17598E+04 -1.36456E+04 -1.32616E+03 -1.88357E+04  8.09072E+03 -1.45932E+04  1.56710E+04 -6.22972E+03
  1.37618E+04  9.15649E+02  1.00022E+04  3.62078E+03  4.97642E+03  3.49979E+01  7.14048E+03 -1.11371E+03
  1.41071E+04  2.86598E+03  1.40856E+04  1.21968E+04  8.67620E+03  2.42697E+04 -3.05110E+03  2.54723E+04
 -1.50707E+04  1.95262E+04 -2.34847E+04  9.26609E+03 -2.35073E+04 -2.03961E+03 -2.07965E+04 -1.34342E+04
 -9.81296E+03 -1.95283E+04  5.44790E+03 -1.86420E+04  1.57446E+04 -1.06152E+04  1.47133E+04  3.32527E+03
  6.59969E+03  1.03775E+04 -6.47218E+03  1.02083E+04 -1.27234E+04  2.43231E+03 -1.02772E+04 -7.87735E+03
  2.74348E+02 -1.22180E+04  5.79624E+03 -8.99167E+03  7.69036E+03 -1.22150E+03  9.16318E+02  5.35262E+03
 -4.65563E+03  8.54417E+02 -3.84485E+03 -4.89651E+03  5.24813E+02 -1.00137E+04  7.78511E+03 -9.73539E+03
  1.16374E+04 -4.06117E+03  1.09100E+04  2.71568E+03  9.50481E+03  9.09425E+03  4.75239E+03  1.35576E+04
 -1.11891E+03  1.52142E+04 -9.21402E+03  1.02734E+04 -1.08094E+04  2.86019E+03 -8.18846E+03 -1.58791E+03
 -4.26674E+03 -3.18513E+03 -8.46385E+02  1.77565E+03 -1.48144E+03  2.06947E+03 -3.87851E+03  3.47914E+03
 -7.17440E+03 -8.39317E+02 -8.58808E+03 -6.94104E+03 -3.56209E+03 -1.10882E+04  3.36262E+03 -8.33741E+03
  6.94335E+03 -3.71256E+03  4.90330E+03  2.29027E+03  5.18067E+02  3.11457E+03 -3.30889E+03 -1.27293E+02
 -3.73575E+03 -5.40491E+03 -1.03389E+03 -6.95089E+03  3.43702E+03 -7.49496E+03  9.40048E+03 -3.98071E+03
  1.13352E+04 -2.37082E+02  8.12716E+03  5.55220E+03  1.92357E+03  8.12716E+03 -4.60774E+03  7.76110E+03
 -6.88708E+03  2.58122E+03 -3.41748E+03 -6.06989E+02  1.01387E+03 -1.73243E+03  4.58691E+03 -1.03532E+03
  4.35239E+03  3.18898E+03  1.51584E+03  5.74748E+03 -4.01958E+03  6.41189E+03 -7.32109E+03  1.84897E+03
 -4.98517E+03 -3.15195E+03  9.25450E+02 -5.95207E+03  3.24832E+03 -2.98657E+03  3.35294E+03  1.24512E+03
  3.25846E+02  3.31830E+03 -4.01586E+03  4.12373E+03 -4.36225E+03  1.91679E+03 -4.08110E+03 -1.01038E+03
 -2.05788E+03 -5.78404E+03  1.21357E+03 -6.83191E+03  4.99604E+03 -4.68822E+03  5.94642E+03  1.37429E+03
  4.22086E+03  4.27280E+03 -2.18780E+02  7.26990E+03 -4.92060E+03  3.91344E+03 -4.99863E+03  2.45292E+02
 -5.68243E+03 -5.03242E+03 -1.24798E+03 -4.64091E+03  2.25468E+03 -4.59546E+03  2.45906E+03 -3.28269E+03
  2.53540E+03  7.22269E+02  4.72361E+02  9.65794E+02  2.89226E+02  2.40692E+02  2.56855E+02 -1.91103E+03
  4.13883E+03 -8.93078E+02  4.45814E+03  1.13985E+03  5.09258E+03  2.03998E+03  5.09650E+03  6.24997E+03
 -1.07458E+03  8.11747E+03 -6.96598E+03  6.25130E+03 -9.16882E+03  1.64918E+03 -7.04455E+03 -2.37407E+03
 -4.57060E+03 -6.18343E+03 -4.86605E+02 -4.62652E+03  2.13098E+03 -1.74592E+03  1.71273E+03 -1.80510E+03
  1.13596E+03 -1.30776E+03  2.25341E+03 -1.95666E+03  3.49710E+03 -1.26634E+03  3.14842E+03  3.79109E+02
  4.63753E+03  1.50237E+03  8.02208E+02  3.25591E+03 -2.22699E+03  3.10089E+03 -4.14321E+03  2.45008E+03
 -4.74315E+03 -1.26505E+03 -1.15369E+03 -3.31761E+03  5.05575E+02 -4.06728E+03  2.72907E+03 -4.97646E+03
  4.35995E+03 -2.62412E+03  6.28795E+03  2.19794E+02  4.09518E+03  4.38562E+03  8.29395E+02  6.14068E+03
 -2.27473E+03  5.94189E+03 -2.41275E+03  1.27935E+03 -2.06507E+03 -8.33606E+02 -8.90549E+01 -6.99658E+02
 -2.93536E+02  7.00488E+02 -6.37317E+02  1.74216E+03 -2.12782E+03  5.04516E+02 -4.02927E+03 -3.26940E+02
 -9.03104E+02 -3.67800E+03  7.27984E+02 -4.73047E+03  2.54505E+03 -4.07994E+03  3.18141E+03 -1.01608E+03
  3.40141E+03  1.68596E+03  1.47448E+03  3.02608E+03 -8.14547E+02  4.18158E+03 -2.39924E+03  2.82611E+03
 -3.75046E+03  7.45427E+02 -2.85918E+03 -2.16593E+03  3.28413E+02 -2.64121E+03  1.35805E+03 -3.17261E+03
  2.40429E+03 -1.53190E+03  1.31698E+03  3.85551E+02  1.10341E+03  1.72570E+03  7.07779E+02  6.41545E+01
  1.77839E+03  6.47080E+02  8.12379E+02  7.55792E+02  8.43133E+02  2.07277E+03  9.41140E+02  1.67968E+03
 -1.10307E+03  2.80124E+03 -2.54105E+03  3.46208E+03 -2.76535E+03  1.14008E+03 -4.08683E+03  1.03815E+02
 -1.79116E+03 -3.76009E+03  2.54670E+02 -4.00703E+03  1.71645E+03 -1.93056E+03  2.59606E+03 -1.49869E+03
  2.04865E+03  2.00097E+03  2.22205E+02  2.19575E+03 -8.75407E+02  1.21913E+03 -9.39411E+02  2.15341E+02
 -3.17207E+02 -1.53504E+03  8.86596E+02 -1.13556E+03  1.10941E+03 -6.00140E+02  1.16532E+03  4.84617E+02
  5.63412E+02 -3.05791E+02  6.70716E+02 -9.92706E+01 -3.54426E+02  4.02143E+02  1.91764E+03  1.64055E+02
 -4.33897E+01 -6.23598E+02  2.00009E+03  6.44576E+02  5.34178E+02  2.31274E+03 -7.06972E+02  2.86687E+03
 -1.38278E+03  1.11660E+03 -1.86687E+03 -1.94957E+01 -2.14841E+03 -8.91433E+02  2.29887E+02 -1.02576E+03
  4.29873E+02 -1.38797E+03  9.70319E+02 -4.69063E+02  9.69966E+02  1.02213E+03 -7.42082E+02  1.10937E+03
 -9.99991E+02  6.48953E+02 -6.54514E+02 -1.30417E+03 -9.86266E+02 -1.82713E+03  2.82458E+02 -1.41327E+03
  3.37832E+01 -3.01347E+02  6.03794E+02  3.40099E+01  1.42856E+03  4.00551E+01  4.09713E+02  6.38765E+02
 -5.72469E+02 -1.19278E+02 -1.34636E+03  2.28300E+02  4.18000E+02 -1.07945E+03  1.43252E+03 -1.02760E+03
  6.15392E+02  1.75245E+02  2.62481E+03  7.33819E+02  1.27069E+03  1.46147E+03 -4.99479E+02  1.82506E+03
 -1.55224E+03 -1.19679E+02 -1.91340E+03 -6.02495E+02 -7.50915E+02 -1.36570E+03  5.21731E+02 -2.04443E+02
  1.53890E+03 -1.16326E+03  7.15293E+02  2.70154E+02  3.25688E+02  1.11717E+03  5.58202E+02  1.23984E+03
 -7.25976E+02  1.29714E+03 -4.65081E+02 -2.28340E+02  1.56917E+02  4.25314E+02 -7.74729E+02  4.02142E+02
 -5.33150E+02  9.71224E+02 -1.62485E+03  3.77134E+02 -1.23453E+03  2.82913E+02 -2.13886E+03 -7.15229E+02
 -9.45901E+02 -2.16490E+03 -1.67192E+02 -2.57320E+03  9.32691E+02 -2.21563E+03  2.80559E+03 -8.02121E+02
  2.26641E+03 -1.58937E+02  7.97847E+02  1.29913E+03 -7.68383E+02  1.31375E+03 -4.83213E+02  7.86559E+02
 -8.28302E+02  7.31808E+02 -6.11167E+02 -2.13615E+02 -8.16921E+02  7.53215E+02 -5.61606E+02  1.58899E+02
 -1.72623E+03  2.57428E+01 -6.52836E+02  5.72531E+02  3.89407E+02 -3.19849E+02 -6.10307E+02 -1.00093E+03
  9.54106E+02 -4.70917E+02 -3.26234E+02  4.60971E+02  1.45597E+03  9.31481E+02 -1.15533E+02  1.33934E+03
 -1.59199E+03  1.73778E+03 -1.30075E+03  1.19106E+03 -1.19954E+03 -2.02909E+02 -1.01361E+03 -9.60381E+02
 -8.64600E+02 -1.09660E+03  2.43021E+02 -7.00937E+02 -6.83463E+00 -5.12234E+02  6.37063E+02  3.39893E+02
  4.74538E+02  1.27569E+01 -2.13945E+02  7.48629E+02 -3.97130E+02 -4.69357E+02  8.04040E+01  5.46707E+01
  1.02472E+03 -1.51707E+02  1.76999E+02  5.28204E+02  2.74125E+02 -6.14428E+00  2.43634E+02  2.37788E+02
 -3.95445E+02  5.84718E+02 -6.09535E+02 -2.16034E+02 -5.32197E+02 -5.98415E+02  2.90561E+02 -4.64450E+02
  5.69812E+02 -4.10130E+02  6.29954E+01  6.02748E+01  2.91037E+02 -6.88388E+02  4.01343E+02  6.88649E+02
  2.33611E+02  8.10031E+02 -7.45382E+00  5.56611E+02  4.18331E+02  7.39414E+02 -6.64880E+02  2.01784E+02
  2.45151E+02  9.55534E+01 -9.26984E+02  3.91847E+02 -3.46356E+02  4.38799E+00 -7.36753E+02 -2.19610E+02
 -1.22923E+03  2.27444E+02 -2.48942E+01 -6.68866E+02  6.11484E+02 -1.30946E+03  1.49612E+02 -4.77788E+02
  1.15963E+03  1.22059E+02 -3.15156E+02  1.60412E+02  4.41136E+02  8.37130E+02 -5.63152E+02  3.25316E+02
