 $NMID ID='MM_0lb_SNR400_9hz_g60_65.RAW', FMTDAT='(8E13.5)'
 TRAMP=1., VOLUME=1. $END
  3.09534E+05  8.02098E+02  3.38176E+05  2.51269E+05  8.53563E+04  3.40436E+05 -1.32805E+05  2.51253E+05
 -1.90899E+05  8.43115E+04 -1.11859E+05 -3.21734E+04  3.89082E+02 -5.01018E+04  5.39080E+04 -7.57798E+02
  3.59287E+04  5.27144E+04 -1.61274E+04  7.56721E+04 -6.14636E+04  6.44629E+04 -8.50806E+04  3.23250E+04
 -8.32829E+04 -1.17269E+04 -5.92897E+04 -5.19863E+04 -1.53128E+04 -7.17413E+04  2.86398E+04 -4.79688E+04
  4.06138E+04  2.95031E+03  1.73479E+04  4.83440E+04 -3.40136E+04  4.88621E+04 -6.88195E+04 -6.30773E+01
 -5.54994E+04 -5.77187E+04 -7.44890E+03 -7.97765E+04  3.51710E+04 -5.80191E+04  5.04182E+04 -1.84145E+04
  4.62947E+04  1.19262E+04  3.32339E+04  2.65634E+04  1.67980E+04  3.06268E+04 -6.26683E+03  2.79972E+04
 -2.21234E+04  1.22696E+04 -1.77464E+04 -5.60423E+03  7.71194E+03 -7.02353E+03  2.36107E+04  1.46044E+04
  7.04463E+03  3.85508E+04 -3.33291E+04  3.73217E+04 -6.67849E+04  2.51002E+03 -5.89535E+04 -4.49286E+04
 -1.23292E+04 -6.67146E+04  4.24577E+04 -4.77885E+04  6.28758E+04 -2.71033E+03  3.76076E+04  3.49410E+04
 -5.63257E+03  4.04353E+04 -3.17111E+04  1.97963E+04 -3.34738E+04 -3.50016E+03 -2.03257E+04 -1.24992E+04
 -9.27413E+03 -1.58322E+04 -1.88224E+02 -1.93660E+04  8.37286E+03 -2.37136E+04  1.59822E+04 -1.17507E+04
  1.01435E+04  5.86215E+03 -1.08915E+04  1.20492E+04 -2.40802E+04 -7.19218E+03 -8.79579E+03 -3.85100E+04
  2.57424E+04 -4.86524E+04  5.30394E+04 -2.13315E+04  5.00434E+04  2.08538E+04  1.74700E+04  4.76295E+04
 -1.75390E+04  3.67246E+04 -2.83286E+04  2.29670E+03 -1.23149E+04 -2.90349E+04  2.15534E+04 -3.81478E+04
  4.50036E+04 -1.16873E+04  4.15474E+04  2.44477E+04  2.27946E+04  5.23226E+04 -8.41668E+03  5.64113E+04
 -3.75070E+04  3.92583E+04 -4.81172E+04  1.14128E+04 -4.78176E+04 -1.92627E+04 -2.66916E+04 -4.29112E+04
  8.50596E+03 -4.29358E+04  3.53835E+04 -1.84530E+04  3.28912E+04  1.12139E+04  4.95379E+03  2.10017E+04
 -1.46074E+04  1.02831E+04 -1.15919E+04 -7.51940E+03  6.19856E+03 -1.18761E+04  1.89509E+04  5.89517E+03
  1.51428E+04  2.29384E+04 -4.89244E+03  2.74343E+04 -2.38817E+04  1.55623E+04 -3.17085E+04 -2.48162E+03
 -2.64381E+04 -1.85559E+04 -1.26308E+04 -2.58073E+04  4.32158E+03 -2.68489E+04  2.04183E+04 -2.47570E+04
  3.36381E+04 -1.50577E+04  3.89323E+04  5.28873E+03  2.77667E+04  2.46971E+04  4.13646E+03  4.21673E+04
 -2.11831E+04  3.45187E+04 -3.14644E+04  1.27434E+04 -2.22503E+04 -1.03781E+04 -4.95965E+03 -1.23927E+04
  8.57267E+02 -9.83583E+02 -8.72371E+03  8.56378E+03 -2.04448E+04  5.53919E+03 -2.23363E+04 -9.79941E+03
 -1.25570E+04 -2.50416E+04  6.19436E+03 -2.96040E+04  1.95184E+04 -2.02203E+04  2.37353E+04 -1.27448E+03
  1.54618E+04  1.70089E+04 -9.48535E+02  2.52074E+04 -1.73965E+04  1.37106E+04 -2.52427E+04 -4.97782E+03
 -1.80061E+04 -2.14532E+04 -1.97879E+03 -2.97814E+04  1.22090E+04 -2.30765E+04  2.34408E+04 -1.17952E+04
  2.27061E+04  2.20232E+02  1.65650E+04  4.91861E+03  9.14314E+03  1.93520E+03  1.30585E+04 -2.08393E+03
  2.29755E+04  1.95602E+03  2.71720E+04  1.82948E+04  1.82047E+04  4.04753E+04 -2.98281E+03  4.57405E+04
 -2.64010E+04  3.84861E+04 -4.36646E+04  2.06742E+04 -4.66929E+04 -3.13866E+03 -3.79373E+04 -2.79799E+04
 -1.51586E+04 -4.02280E+04  1.37136E+04 -3.47067E+04  2.88867E+04 -1.57251E+04  2.37911E+04  8.50459E+03
  8.58882E+03  1.88179E+04 -1.15930E+04  1.76054E+04 -2.12458E+04  2.35183E+03 -1.53532E+04 -1.39913E+04
 -1.88167E+02 -2.06786E+04  1.08869E+04 -1.54735E+04  1.35141E+04 -1.61601E+03  3.75865E+03  9.80976E+03
 -9.83765E+03  4.99984E+03 -1.02507E+04 -6.70065E+03 -2.09027E+03 -1.91778E+04  1.19494E+04 -2.05376E+04
  2.43339E+04 -1.13949E+04  2.65934E+04  3.61282E+03  2.46726E+04  1.94274E+04  1.12137E+04  3.07287E+04
 -5.70739E+03  3.33481E+04 -2.17103E+04  2.02057E+04 -2.37585E+04  4.12283E+03 -1.51279E+04 -6.51965E+03
 -6.25451E+03 -7.57515E+03 -9.99066E+02  6.04446E+02 -3.23333E+03  3.40194E+03 -8.16295E+03  5.02543E+03
 -1.55204E+04 -1.75027E+03 -1.61248E+04 -1.32920E+04 -5.52102E+03 -2.06501E+04  6.98870E+03 -1.60026E+04
  1.36620E+04 -7.29296E+03  9.72036E+03  3.87163E+03 -6.98198E+02  5.74864E+03 -8.68842E+03 -9.50447E+02
 -8.46397E+03 -1.04464E+04 -1.38975E+03 -1.70102E+04  9.62968E+03 -1.76494E+04  2.16059E+04 -9.63842E+03
  2.46840E+04  2.89896E+03  1.75102E+04  1.54032E+04  3.81873E+03  2.03664E+04 -1.07839E+04  1.63713E+04
 -1.29660E+04  4.16227E+03 -6.60215E+03 -3.61163E+03  2.83489E+03 -3.93938E+03  8.39909E+03 -9.48523E+02
  7.54481E+03  7.47965E+03  6.25651E+02  1.29938E+04 -9.88701E+03  1.40357E+04 -1.66038E+04  2.04618E+03
 -1.07950E+04 -9.38329E+03 -6.08244E+01 -1.41615E+04  9.24501E+03 -7.59385E+03  1.05374E+04  4.59312E+03
  2.50267E+03  1.04209E+04 -8.72071E+03  1.21850E+04 -1.42215E+04  5.44274E+03 -1.54755E+04 -4.74481E+03
 -8.60576E+03 -1.75002E+04  4.10992E+03 -1.94622E+04  1.68538E+04 -1.19430E+04  1.87031E+04  3.52861E+03
  1.07618E+04  1.30817E+04 -1.32306E+03  1.70732E+04 -1.24538E+04  9.37551E+03 -1.27349E+04 -2.02893E+03
 -1.10611E+04 -1.16043E+04 -2.25670E+03 -1.25677E+04  5.65214E+03 -9.50013E+03  7.80857E+03 -3.47479E+03
  5.71728E+03  2.41472E+03 -1.63361E+03  1.83796E+03 -8.34011E+02 -4.41782E+03  2.71837E+03 -7.95245E+03
  1.21689E+04 -4.98222E+03  1.85339E+04  2.65381E+03  1.58239E+04  1.27447E+04  1.07049E+04  2.25931E+04
 -5.71906E+03  2.56844E+04 -2.11903E+04  1.88844E+04 -2.73239E+04  3.08549E+03 -2.19719E+04 -9.80581E+03
 -1.13250E+04 -1.79130E+04 -1.84178E+02 -1.59932E+04  5.83901E+03 -9.22078E+03  5.58487E+03 -5.84345E+03
  4.47087E+03 -2.76881E+03  4.44550E+03 -4.25340E+03  5.97890E+03 -3.77672E+03  8.18977E+03 -1.87749E+03
  1.10384E+04  3.02516E+03  6.45408E+03  1.00560E+04 -2.68093E+03  1.26921E+04 -1.24069E+04  1.00227E+04
 -1.60994E+04 -9.84833E+02 -1.00389E+04 -1.18476E+04 -1.30677E+03 -1.62766E+04  9.67977E+03 -1.80728E+04
  1.77400E+04 -9.47453E+03  2.19705E+04  2.17185E+03  1.51737E+04  1.51775E+04  2.07388E+03  1.87236E+04
 -8.44945E+03  1.55835E+04 -1.20243E+04  4.84063E+03 -7.64016E+03 -1.68498E+03 -3.30377E+03 -1.92320E+03
 -1.95525E+03 -4.92443E+02 -2.14299E+03  3.02625E+03 -6.88918E+03  2.80048E+03 -1.05535E+04 -1.65666E+03
 -7.97315E+03 -1.11827E+04 -7.67774E+02 -1.50715E+04  1.06127E+04 -1.42717E+04  1.54800E+04 -5.16809E+03
  1.58414E+04  7.80029E+03  7.44546E+03  1.40850E+04 -3.62177E+03  1.56295E+04 -1.21087E+04  9.70648E+03
 -1.48147E+04  4.95634E+02 -1.10171E+04 -9.90200E+03 -1.75998E+03 -1.32277E+04  7.29062E+03 -9.74492E+03
  1.02947E+04 -2.39445E+03  6.78194E+03  2.95253E+03  1.97220E+03  4.50926E+03  1.16751E+03  2.35377E+03
  2.73419E+03  1.55122E+03  3.52662E+03  1.86766E+03  5.44185E+03  5.41643E+03  4.07676E+03  8.77944E+03
 -3.22964E+03  1.23792E+04 -1.10469E+04  1.27894E+04 -1.66377E+04  3.42054E+03 -1.74666E+04 -7.15603E+03
 -8.67931E+03 -1.66549E+04  2.78648E+03 -1.86905E+04  9.84350E+03 -1.12018E+04  1.28182E+04 -2.39112E+03
  1.01665E+04  6.32574E+03  2.49158E+03  9.27927E+03 -4.97604E+03  6.36160E+03 -6.87507E+03 -9.33910E+02
 -2.97206E+03 -7.17968E+03  4.60422E+03 -6.81623E+03  7.26221E+03 -3.03509E+03  7.40636E+03  8.65973E+02
  4.05806E+03  3.33608E+03  2.09902E+03  1.64958E+03 -1.25926E+03  1.93311E+03  1.57080E+03  4.70472E+02
  2.96805E+03 -8.88195E+02  6.35086E+03  1.67969E+03  3.95942E+03  9.12632E+03 -1.56381E+03  1.21593E+04
 -7.76789E+03  7.44686E+03 -1.04424E+04  3.30721E+03 -9.49619E+03 -3.92153E+03 -3.61831E+03 -6.50126E+03
  5.21217E+02 -6.81176E+03  4.25106E+03 -3.39872E+03  4.19898E+03  2.98791E+03 -1.46398E+03  5.61948E+03
 -7.23351E+03  3.59582E+03 -7.83657E+03 -3.43200E+03 -4.64196E+03 -8.63276E+03  1.02193E+03 -8.84861E+03
  4.86855E+03 -5.90961E+03  6.31759E+03 -1.64700E+03  5.20776E+03  2.29355E+03 -3.73119E+02  5.16716E+03
 -2.90376E+03  2.02529E+03 -3.38472E+03 -3.34923E+03  1.44254E+03 -6.93984E+03  8.89763E+03 -6.16329E+03
  1.08492E+04  4.11350E+02  9.80778E+03  7.36926E+03  3.09442E+03  1.13833E+04 -3.43304E+03  1.04831E+04
 -9.71542E+03  4.32692E+03 -8.83320E+03 -6.69603E+02 -5.60285E+03 -7.75001E+03  2.23211E+03 -6.49315E+03
  6.57059E+03 -2.20922E+03  5.69419E+03  2.89897E+03  1.75987E+03  6.02112E+03 -1.62063E+03  4.71669E+03
 -2.69675E+03  3.58968E+03 -2.39549E+03  7.70308E+02 -1.80992E+03  9.12464E+02 -1.45279E+03  1.77029E+03
 -3.09543E+03  4.53851E+03 -7.23669E+03  4.03027E+03 -1.11813E+04  4.60712E+02 -1.13216E+04 -7.10036E+03
 -5.81605E+03 -1.35208E+04  3.22350E+03 -1.66955E+04  1.04198E+04 -1.30660E+04  1.58549E+04 -5.19596E+03
  1.42841E+04  3.04927E+03  9.04083E+03  1.06851E+04  7.03100E+02  1.14635E+04 -3.77989E+03  8.56772E+03
 -6.88587E+03  2.68920E+03 -3.68564E+03 -1.47735E+03 -1.13658E+03 -1.75584E+03  6.44276E+02  7.79418E+02
 -1.98040E+03  3.86056E+01 -2.42477E+03  3.62908E+02 -5.82871E+02 -2.05672E+03  3.07584E+02 -3.42273E+03
  5.04255E+03 -4.38236E+03  7.08141E+03  5.05345E+02  8.11243E+03  5.69839E+03  2.33950E+03  1.18822E+04
 -4.79129E+03  1.24314E+04 -1.27271E+04  7.34861E+03 -1.41666E+04 -9.00183E+02 -1.03312E+04 -7.95007E+03
 -4.96093E+03 -1.16440E+04  3.17867E+03 -1.02192E+04  7.26187E+03 -6.14732E+03  8.16517E+03  1.96860E+02
  4.40750E+03  3.91159E+03 -3.72355E+02  4.02003E+03 -1.72467E+03 -2.70438E+02 -2.39585E+02 -3.27618E+03
  4.06271E+03 -1.87619E+03  4.90002E+03  1.32910E+03  2.71187E+03  4.92305E+03  4.74287E+02  5.81738E+03
 -4.62950E+03  6.04008E+03 -7.65603E+03  1.15383E+03 -6.39072E+03 -5.04395E+03 -1.27996E+03 -9.60353E+03
  5.49508E+03 -8.19590E+03  9.19973E+03 -2.14039E+03  7.74721E+03  2.46739E+03  4.96332E+03  6.67643E+03
  1.06054E+03  7.78128E+03 -3.37724E+03  6.43337E+03 -5.23222E+03  3.67192E+03 -3.46845E+03 -2.97762E+02
 -2.41057E+03 -2.32289E+02 -2.33977E+03  9.45971E+02 -3.80479E+03  1.75859E+03 -6.05949E+03 -1.51482E+03
 -5.29048E+03 -3.80656E+03 -2.03838E+03 -7.99978E+03  3.92339E+03 -7.07351E+03  7.01924E+03 -4.11329E+03
  7.76879E+03  9.16804E+02  4.54670E+03  5.76624E+03 -6.89946E+02  8.12690E+03 -6.84406E+03  5.15865E+03
