 $NMID ID='MM_0lb_SNR400_15hz_g55_75.RAW', FMTDAT='(8E13.5)'
 TRAMP=1., VOLUME=1. $END
  3.10447E+05  3.07266E+02  3.37478E+05  2.50141E+05  8.46546E+04  3.38024E+05 -1.32797E+05  2.50901E+05
 -1.90231E+05  8.27262E+04 -1.11514E+05 -3.24905E+04  9.38525E+01 -5.05448E+04  5.37555E+04 -2.34212E+02
  3.50640E+04  5.26974E+04 -1.67642E+04  7.60308E+04 -6.06448E+04  6.28984E+04 -8.42117E+04  3.20379E+04
 -8.14780E+04 -1.07606E+04 -5.72736E+04 -5.15409E+04 -1.44296E+04 -6.95023E+04  2.70323E+04 -4.57143E+04
  4.00549E+04  3.93602E+03  1.61380E+04  4.80460E+04 -3.43764E+04  4.71279E+04 -6.65450E+04  9.10915E+01
 -5.33235E+04 -5.71777E+04 -7.17006E+03 -7.69612E+04  3.40237E+04 -5.56562E+04  4.80412E+04 -1.75824E+04
  4.37479E+04  1.16354E+04  3.21949E+04  2.59718E+04  1.52812E+04  2.89651E+04 -4.87177E+03  2.67769E+04
 -2.22576E+04  1.22584E+04 -1.86295E+04 -5.17051E+03  5.53455E+03 -7.06272E+03  2.26963E+04  1.24873E+04
  7.54359E+03  3.54494E+04 -3.20693E+04  3.57664E+04 -6.30747E+04  1.94738E+03 -5.74814E+04 -4.23796E+04
 -1.28234E+04 -6.30666E+04  3.96987E+04 -4.54731E+04  5.75519E+04 -2.48396E+03  3.40594E+04  3.26298E+04
 -5.96586E+03  3.58735E+04 -2.99198E+04  1.62511E+04 -3.04391E+04 -4.20361E+03 -1.65285E+04 -1.09370E+04
 -8.76495E+03 -1.34823E+04 -9.24212E+02 -1.84419E+04  7.28478E+03 -2.31566E+04  1.50997E+04 -1.32194E+04
  1.10558E+04  5.33786E+03 -8.38104E+03  1.30217E+04 -2.15815E+04 -4.89251E+03 -7.99239E+03 -3.33853E+04
  2.27662E+04 -4.33163E+04  4.81552E+04 -1.98141E+04  4.55966E+04  1.93666E+04  1.59804E+04  4.37201E+04
 -1.54277E+04  3.33465E+04 -2.52760E+04  1.42317E+03 -9.68917E+03 -2.78579E+04  2.03826E+04 -3.36865E+04
  4.13229E+04 -8.98612E+03  3.55773E+04  2.45392E+04  1.81367E+04  4.64841E+04 -8.17504E+03  5.05502E+04
 -3.18615E+04  3.38821E+04 -4.21221E+04  1.01719E+04 -4.27035E+04 -1.63285E+04 -2.35890E+04 -3.78642E+04
  7.18388E+03 -3.76846E+04  3.08416E+04 -1.45947E+04  2.95304E+04  1.06892E+04  4.01334E+03  1.98446E+04
 -1.31711E+04  8.93123E+03 -9.75720E+03 -8.03473E+03  6.10615E+03 -1.16823E+04  1.81862E+04  5.91361E+03
  1.32129E+04  2.26652E+04 -5.62373E+03  2.47507E+04 -2.29588E+04  1.15127E+04 -2.88169E+04 -4.39344E+03
 -2.03744E+04 -1.72059E+04 -8.30139E+03 -2.03772E+04  4.17841E+03 -1.92163E+04  1.56999E+04 -1.86131E+04
  2.51883E+04 -1.25057E+04  3.27069E+04  2.39873E+03  2.38340E+04  2.00082E+04  4.26596E+03  3.62576E+04
 -1.75027E+04  3.03847E+04 -2.80924E+04  1.01869E+04 -2.05852E+04 -1.01582E+04 -4.00728E+03 -1.35558E+04
  1.77391E+03 -3.39003E+03 -4.53323E+03  6.84020E+03 -1.65804E+04  5.56422E+03 -1.62851E+04 -7.18355E+03
 -1.07063E+04 -1.90100E+04  5.36477E+03 -2.27864E+04  1.52438E+04 -1.62436E+04  1.73044E+04 -1.40583E+03
  1.11596E+04  1.32323E+04 -9.23567E+02  1.96197E+04 -1.25095E+04  1.04870E+04 -1.89646E+04 -4.81120E+03
 -1.35442E+04 -1.68734E+04 -1.64740E+03 -2.22122E+04  1.02538E+04 -1.88375E+04  1.91575E+04 -9.17823E+03
  1.80243E+04  1.49580E+01  1.24823E+04  4.99467E+03  6.91266E+03  6.55940E+02  9.62800E+03 -1.60998E+03
  1.73067E+04  3.00200E+03  1.93470E+04  1.52525E+04  1.18025E+04  3.00163E+04 -2.56704E+03  3.38782E+04
 -1.98613E+04  2.68378E+04 -3.13207E+04  1.31964E+04 -3.25590E+04 -2.54244E+03 -2.74695E+04 -1.88592E+04
 -1.16984E+04 -2.72690E+04  9.36961E+03 -2.37063E+04  2.12088E+04 -1.26379E+04  1.96940E+04  5.06712E+03
  7.35024E+03  1.41803E+04 -8.69382E+03  1.28890E+04 -1.62800E+04  2.87071E+03 -1.21459E+04 -9.71320E+03
 -1.56393E+02 -1.51876E+04  8.13256E+03 -1.15241E+04  9.86498E+03 -6.49491E+02  2.75566E+03  5.90665E+03
 -7.31787E+03  2.65170E+03 -5.25367E+03 -5.89170E+03 -2.48827E+02 -1.33130E+04  9.19018E+03 -1.42477E+04
  1.64029E+04 -7.15084E+03  1.71216E+04  2.57705E+03  1.50329E+04  1.28053E+04  6.77586E+03  2.00790E+04
 -3.18406E+03  2.16349E+04 -1.40030E+04  1.32633E+04 -1.57822E+04  3.48948E+03 -1.10984E+04 -3.61955E+03
 -5.67656E+03 -4.98692E+03 -1.19255E+03  5.32586E+02 -1.56066E+03  2.59039E+03 -5.09897E+03  4.39503E+03
 -1.05292E+04 -9.75257E+02 -1.06618E+04 -9.13676E+03 -4.44531E+03 -1.42085E+04  4.34154E+03 -1.10639E+04
  8.96934E+03 -4.90449E+03  6.45095E+03  2.89298E+03 -4.76639E+02  3.99647E+03 -5.08120E+03  3.02721E+02
 -4.36014E+03 -7.10807E+03 -8.43819E+02 -1.04749E+04  5.75541E+03 -1.10603E+04  1.38888E+04 -6.01700E+03
  1.56400E+04  1.09209E+03  1.18088E+04  9.17892E+03  1.81982E+03  1.21557E+04 -6.45886E+03  1.06118E+04
 -9.18903E+03  3.43211E+03 -4.69171E+03 -1.54800E+03  1.48131E+03 -2.87176E+03  6.06896E+03 -1.01569E+03
  5.73997E+03  4.32482E+03  1.29526E+03  8.04295E+03 -6.08971E+03  8.22706E+03 -1.06465E+04  2.04164E+03
 -6.09534E+03 -4.85173E+03  2.43978E+02 -8.85006E+03  5.43915E+03 -4.11133E+03  5.14310E+03  1.93426E+03
  7.14355E+02  4.81642E+03 -5.00194E+03  7.54574E+03 -7.85743E+03  3.23855E+03 -7.56690E+03 -2.57423E+03
 -4.56355E+03 -9.27225E+03  2.62738E+03 -1.08724E+04  9.11696E+03 -7.10190E+03  9.32622E+03  1.90359E+03
  6.76461E+03  8.35668E+03 -7.19886E+02  9.78900E+03 -7.26127E+03  5.42515E+03 -7.67228E+03 -7.59477E+02
 -7.13571E+03 -6.55078E+03 -1.58473E+03 -8.00591E+03  3.00268E+03 -6.95449E+03  4.60793E+03 -3.53914E+03
  3.00513E+03  1.18730E+03 -5.35936E+02  1.88441E+03  5.86406E+01 -1.95018E+03  1.10774E+03 -3.74846E+03
  5.88004E+03 -1.79912E+03  8.77392E+03  1.12365E+03  8.94522E+03  5.71709E+03  6.59322E+03  1.11780E+04
 -2.59392E+03  1.37201E+04 -1.11260E+04  1.02914E+04 -1.47380E+04  1.54853E+03 -1.16582E+04 -4.64909E+03
 -5.58448E+03 -9.76872E+03 -7.10759E+02 -8.47913E+03  2.51067E+03 -4.41912E+03  2.26094E+03 -3.13499E+03
  2.03918E+03 -2.12379E+03  2.70810E+03 -2.87180E+03  4.40629E+03 -2.08011E+03  4.59044E+03  1.67005E+02
  6.85493E+03  1.61845E+03  2.89254E+03  4.90828E+03 -1.44108E+03  5.51460E+03 -6.87151E+03  4.05429E+03
 -7.80344E+03 -1.54622E+03 -4.44892E+03 -5.49473E+03  3.23331E+02 -8.13685E+03  4.71662E+03 -8.81149E+03
  8.05728E+03 -5.26898E+03  1.05693E+04  1.21334E+03  7.46320E+03  6.88030E+03  1.03963E+03  9.74208E+03
 -4.30183E+03  8.56333E+03 -5.21734E+03  2.34039E+03 -3.28500E+03 -1.79537E+03 -1.55457E+03 -1.23408E+03
 -6.01683E+02 -1.76107E+02 -1.43507E+03  2.33601E+03 -3.59175E+03  1.67252E+03 -6.23869E+03 -4.74630E+02
 -3.48658E+03 -6.07056E+03  6.01420E+02 -7.43276E+03  4.70991E+03 -7.17624E+03  6.68091E+03 -1.92834E+03
  7.14381E+03  3.41215E+03  3.12183E+03  5.91636E+03 -9.23285E+02  7.78394E+03 -4.34478E+03  4.50954E+03
 -6.27794E+03 -4.78974E+02 -5.61058E+03 -4.33728E+03 -5.98697E+02 -5.03636E+03  2.84957E+03 -3.68748E+03
  4.57842E+03 -1.82797E+03  3.17529E+03  8.03984E+02  9.53091E+02  2.06909E+03  9.09072E+02  1.09710E+03
  1.68917E+03 -3.44239E+02  1.46010E+03  1.27907E+03  1.82485E+03  2.34682E+03  1.80384E+03  3.19560E+03
 -9.17452E+02  5.72715E+03 -5.01195E+03  6.39872E+03 -6.50613E+03  1.60478E+03 -7.77068E+03 -2.40818E+03
 -3.03895E+03 -6.64648E+03  1.05470E+03 -8.34309E+03  3.83340E+03 -4.13856E+03  5.27038E+03 -1.63487E+03
  4.33562E+03  3.13570E+03  1.13951E+03  3.31724E+03 -1.17771E+03  2.52728E+03 -2.43542E+03  2.41324E+02
 -1.43949E+03 -2.76862E+03  1.79935E+03 -2.32834E+03  2.23946E+03 -1.54010E+03  2.99170E+03  6.76578E+02
  2.01613E+03  1.31221E+03  1.51213E+03  3.47877E+02 -5.53149E+02  8.74126E+02  1.55298E+03 -2.77199E+02
  2.84739E+02 -4.85590E+02  3.53278E+03  1.31569E+03  9.86670E+02  3.73579E+03 -3.69838E+02  4.57977E+03
 -2.86862E+03  2.45229E+03 -3.46549E+03  8.68284E+02 -3.86953E+03 -1.19503E+03 -8.90071E+02 -1.97006E+03
  4.79196E+02 -1.98803E+03  1.75130E+03 -1.66363E+03  1.20358E+03  1.39696E+03 -4.36761E+02  2.10753E+03
 -2.55609E+03  1.46946E+03 -3.40555E+03 -2.00882E+03 -1.64099E+03 -4.02980E+03  1.40190E+02 -3.19660E+03
  1.60512E+03 -1.12603E+03  1.74687E+03 -6.35128E+02  2.47175E+03  5.91132E+02  1.47783E+02  2.19165E+03
  1.69735E+02  7.40897E+02 -1.66031E+03 -8.69337E+02  7.00577E+02 -2.04921E+03  3.01357E+03 -1.85080E+03
  3.73679E+03 -3.25040E+02  4.10555E+03  2.24567E+03  1.75564E+03  3.36664E+03 -1.07757E+03  3.90748E+03
 -3.16160E+03  9.55151E+02 -2.86738E+03 -2.01028E+02 -1.04186E+03 -2.21766E+03  6.95721E+02 -1.85268E+03
  3.02457E+03 -1.20061E+03  2.27614E+03  1.66351E+03  5.71567E+02  2.51882E+03  4.21373E+02  2.22642E+03
 -7.11584E+02  2.24475E+03 -9.44043E+02 -4.97188E+02 -5.40722E+02  3.58962E+02 -1.06986E+03  9.23605E+02
 -1.48235E+03  1.01863E+03 -2.83489E+03  8.08302E+02 -3.91181E+03 -3.87283E+02 -4.52710E+03 -2.39953E+03
 -2.24600E+03 -4.72083E+03  1.45669E+03 -5.66360E+03  3.16403E+03 -4.35917E+03  4.83509E+03 -1.97353E+03
  5.33361E+03  2.06482E+02  3.52746E+03  3.07062E+03 -2.38556E+02  2.92461E+03 -1.74133E+03  3.15580E+03
 -1.97510E+03  1.55985E+03 -8.47800E+02 -8.04633E+02 -1.05800E+03  3.50454E+02 -4.08037E+02 -3.11564E+02
 -1.55353E+03 -7.81128E+02 -1.09057E+03 -4.62850E+02 -3.20167E+02 -1.35873E+03 -8.29993E+02 -1.58444E+03
  2.49863E+03 -1.37605E+03  1.60611E+03  7.60675E+01  2.19501E+03  2.30926E+03  3.06614E+01  3.07155E+03
 -2.03962E+03  3.99613E+03 -3.02460E+03  2.15875E+03 -4.06194E+03  1.89467E+01 -2.99921E+03 -3.12165E+03
 -9.91854E+02 -2.62376E+03  8.75775E+02 -3.00504E+03  1.98111E+03 -1.81122E+03  1.38844E+03  1.88708E+01
  1.03375E+03  1.80480E+03 -4.39344E+02  6.88139E+02 -5.53954E+02  5.41479E+02  1.05918E+02 -8.89147E+02
  1.21399E+03 -7.22838E+01  1.47172E+03  3.38808E+02  5.01539E+02  1.39999E+03  1.89601E+02  1.38024E+03
 -1.07760E+03  1.79067E+03 -1.88562E+03  2.82439E+02 -1.43667E+03 -7.99709E+02 -4.96695E+02 -2.56797E+03
  1.51280E+03 -1.92027E+03  1.41977E+03 -7.24426E+02  2.04938E+03  9.95688E+01  2.02396E+03  1.91365E+03
  6.80042E+02  1.51286E+03 -5.19266E+02  1.28292E+03 -1.47619E+03  1.44318E+03 -4.74355E+02  2.88595E+02
 -2.41085E+02  1.37597E+02 -4.73174E+01  2.35318E+02 -6.94178E+02  8.15970E+01 -1.62716E+03 -5.83419E+02
 -2.42869E+03 -1.72606E+02 -1.45659E+02 -2.07807E+03  9.01986E+02 -2.36018E+03  1.93981E+03 -1.40422E+03
  1.96512E+03  4.66758E+01  6.49698E+02  7.53378E+02 -1.46077E+02  1.28733E+03 -7.75192E+02  1.86046E+03
