 $NMID ID='MM_0lb_SNR400_16hz_g55_92.RAW', FMTDAT='(8E13.5)'
 TRAMP=1., VOLUME=1. $END
  3.09443E+05  7.09171E+02  3.37555E+05  2.50475E+05  8.45520E+04  3.37501E+05 -1.32091E+05  2.50917E+05
 -1.89798E+05  8.25439E+04 -1.11888E+05 -3.25240E+04  1.22899E+03 -5.09088E+04  5.39518E+04  5.23570E+01
  3.55418E+04  5.29041E+04 -1.70774E+04  7.52604E+04 -6.03948E+04  6.34550E+04 -8.31392E+04  3.17759E+04
 -8.04700E+04 -1.07810E+04 -5.73913E+04 -5.08121E+04 -1.57352E+04 -6.89270E+04  2.76816E+04 -4.56685E+04
  4.00120E+04  4.22962E+03  1.64085E+04  4.77217E+04 -3.45164E+04  4.70547E+04 -6.63260E+04  5.33625E+01
 -5.35614E+04 -5.67413E+04 -6.96633E+03 -7.62674E+04  3.40059E+04 -5.50389E+04  4.77355E+04 -1.65259E+04
  4.31869E+04  1.07453E+04  3.13828E+04  2.47955E+04  1.60364E+04  2.92014E+04 -5.57059E+03  2.74357E+04
 -2.19341E+04  1.22540E+04 -1.90761E+04 -4.56586E+03  5.50296E+03 -7.44998E+03  2.21997E+04  1.20005E+04
  7.52504E+03  3.50174E+04 -3.21295E+04  3.55556E+04 -6.30724E+04  2.42617E+03 -5.68117E+04 -4.25148E+04
 -1.21385E+04 -6.30094E+04  3.95598E+04 -4.47146E+04  5.80470E+04 -2.15873E+03  3.38425E+04  3.18323E+04
 -6.23862E+03  3.55588E+04 -2.99310E+04  1.49653E+04 -3.02874E+04 -4.63338E+03 -1.59901E+04 -1.14258E+04
 -7.83609E+03 -1.35603E+04 -1.31571E+03 -1.80227E+04  6.70361E+03 -2.37783E+04  1.50263E+04 -1.38021E+04
  1.12049E+04  4.70936E+03 -8.46316E+03  1.31424E+04 -2.09314E+04 -4.60514E+03 -8.40611E+03 -3.31367E+04
  2.23740E+04 -4.29267E+04  4.69568E+04 -1.92051E+04  4.45099E+04  1.93307E+04  1.51944E+04  4.45027E+04
 -1.51125E+04  3.35302E+04 -2.47958E+04  1.69648E+03 -9.85074E+03 -2.71023E+04  2.10022E+04 -3.35352E+04
  4.04119E+04 -8.64290E+03  3.46691E+04  2.32609E+04  1.74343E+04  4.55941E+04 -7.70097E+03  4.92380E+04
 -3.12846E+04  3.29460E+04 -4.08637E+04  9.05825E+03 -4.19931E+04 -1.60865E+04 -2.32228E+04 -3.69803E+04
  7.63656E+03 -3.71383E+04  3.05770E+04 -1.40057E+04  2.89385E+04  1.04719E+04  4.00152E+03  1.89768E+04
 -1.36692E+04  8.39388E+03 -9.67755E+03 -7.32698E+03  5.43946E+03 -1.10383E+04  1.86973E+04  5.70762E+03
  1.29631E+04  2.16527E+04 -6.37993E+03  2.44926E+04 -2.22396E+04  1.09697E+04 -2.76564E+04 -4.64486E+03
 -1.92703E+04 -1.69805E+04 -8.33673E+03 -1.92592E+04  4.34559E+03 -1.85835E+04  1.49568E+04 -1.73118E+04
  2.53205E+04 -1.25910E+04  3.13404E+04  2.95625E+03  2.28305E+04  1.94194E+04  4.24511E+03  3.57791E+04
 -1.80729E+04  2.94692E+04 -2.77628E+04  9.91011E+03 -2.03716E+04 -9.65444E+03 -4.05586E+03 -1.35201E+04
  2.38253E+03 -3.50808E+03 -4.79958E+03  6.19220E+03 -1.53814E+04  5.52868E+03 -1.60076E+04 -6.40952E+03
 -9.16185E+03 -1.73170E+04  4.77409E+03 -2.25260E+04  1.47729E+04 -1.59690E+04  1.76466E+04 -1.41374E+03
  1.04666E+04  1.27050E+04 -6.39467E+02  1.89915E+04 -1.23210E+04  1.02603E+04 -1.84162E+04 -3.84400E+03
 -1.37484E+04 -1.64182E+04 -2.11208E+03 -2.20852E+04  1.01821E+04 -1.80811E+04  1.83633E+04 -8.74674E+03
  1.70361E+04  1.38821E+02  1.22356E+04  4.08914E+03  6.35471E+03  6.02218E+02  8.37923E+03 -1.56651E+03
  1.61835E+04  2.45653E+03  1.82413E+04  1.42804E+04  1.19787E+04  2.91833E+04 -3.30095E+03  3.22118E+04
 -1.86591E+04  2.53501E+04 -2.97409E+04  1.30315E+04 -3.11950E+04 -2.40822E+03 -2.59233E+04 -1.76681E+04
 -1.13138E+04 -2.53072E+04  8.73237E+03 -2.34238E+04  2.02249E+04 -1.21756E+04  1.81757E+04  5.00918E+03
  6.96355E+03  1.26768E+04 -8.48304E+03  1.18148E+04 -1.56916E+04  2.49897E+03 -1.13746E+04 -9.81288E+03
 -5.81753E+02 -1.45983E+04  7.56172E+03 -1.06152E+04  9.29326E+03 -1.56295E+03  2.60320E+03  6.09288E+03
 -6.85099E+03  1.88753E+03 -4.60051E+03 -5.58449E+03 -3.83673E+02 -1.25640E+04  8.47232E+03 -1.32410E+04
  1.57110E+04 -6.77966E+03  1.60744E+04  3.01622E+03  1.39416E+04  1.20867E+04  6.46257E+03  1.85569E+04
 -2.55058E+03  1.99605E+04 -1.26725E+04  1.29935E+04 -1.49644E+04  3.32383E+03 -9.98527E+03 -2.97843E+03
 -5.13085E+03 -4.17184E+03 -1.06088E+03  1.92821E+03 -2.16998E+03  2.17638E+03 -5.11575E+03  4.27698E+03
 -9.76063E+03 -7.12110E+02 -1.11193E+04 -8.59419E+03 -4.42699E+03 -1.38873E+04  4.36901E+03 -1.03051E+04
  8.94405E+03 -4.90477E+03  6.47792E+03  2.96980E+03  6.33793E+02  3.94444E+03 -4.58480E+03  3.58498E+02
 -5.16834E+03 -6.79944E+03 -6.57694E+02 -9.72555E+03  5.18479E+03 -9.69449E+03  1.25656E+04 -5.70242E+03
  1.45723E+04  1.17121E+03  1.12211E+04  8.78068E+03  2.37651E+03  1.12725E+04 -6.24822E+03  9.94600E+03
 -8.37168E+03  3.42765E+03 -4.15759E+03 -1.48730E+03  1.51110E+03 -2.87896E+03  5.80075E+03 -7.17488E+02
  4.49475E+03  4.30736E+03  9.74853E+02  8.25244E+03 -5.31889E+03  7.74109E+03 -9.83986E+03  2.23540E+03
 -6.48667E+03 -4.49440E+03  3.25250E+02 -8.62771E+03  5.44182E+03 -3.97254E+03  5.77054E+03  2.30222E+03
  4.54016E+02  5.57597E+03 -4.73696E+03  6.51892E+03 -6.80185E+03  3.29578E+03 -6.74304E+03 -2.54232E+03
 -4.29288E+03 -8.44478E+03  2.04987E+03 -9.35880E+03  7.63990E+03 -6.56910E+03  8.60367E+03  1.15494E+03
  6.03970E+03  7.88943E+03 -5.49737E+02  9.22719E+03 -5.97238E+03  5.24393E+03 -6.74188E+03 -6.56019E+02
 -6.80480E+03 -6.13965E+03 -1.75164E+03 -6.96319E+03  3.14140E+03 -5.77677E+03  4.44860E+03 -2.92980E+03
  3.30233E+03  7.42408E+02 -1.45816E+02  6.37777E+02  7.35750E+02 -1.14158E+03  4.42009E+02 -3.54940E+03
  5.49378E+03 -1.40572E+03  7.45026E+03  1.11443E+03  7.97964E+03  5.28456E+03  6.18283E+03  1.04506E+04
 -1.91411E+03  1.24617E+04 -1.04211E+04  9.46888E+03 -1.43935E+04  1.63233E+03 -1.10067E+04 -3.89785E+03
 -5.61664E+03 -9.01665E+03 -3.98819E+02 -6.96383E+03  3.17177E+03 -3.04688E+03  2.33737E+03 -2.51777E+03
  1.80513E+03 -1.79336E+03  2.68817E+03 -2.89035E+03  3.86107E+03 -2.28575E+03  3.88884E+03 -2.18978E+01
  5.95097E+03  1.52937E+03  2.25780E+03  4.32962E+03 -2.11281E+03  4.51787E+03 -5.77964E+03  3.89898E+03
 -7.18686E+03 -1.27753E+03 -3.05671E+03 -4.24159E+03 -1.10313E+02 -7.04714E+03  4.13286E+03 -7.53803E+03
  7.27349E+03 -4.38740E+03  8.98441E+03  9.10842E+02  6.72129E+03  6.03546E+03  6.04720E+02  8.36651E+03
 -3.25532E+03  7.47304E+03 -4.99508E+03  2.36745E+03 -2.83880E+03 -1.11789E+03 -1.29872E+03 -1.14311E+03
 -1.01336E+03  1.81646E+02 -1.19998E+03  2.36845E+03 -2.97628E+03  1.22381E+03 -5.23187E+03 -7.51117E+02
 -3.00447E+03 -5.48669E+03  5.16614E+02 -6.16883E+03  4.28026E+03 -5.87831E+03  5.06513E+03 -1.91628E+03
  6.52652E+03  3.61720E+03  2.61023E+03  5.06475E+03 -7.54172E+02  6.94880E+03 -4.26011E+03  3.26904E+03
 -6.33019E+03  1.06864E+03 -4.71282E+03 -3.51734E+03 -5.17375E+01 -4.71454E+03  2.80568E+03 -3.02532E+03
  3.90301E+03 -1.03210E+03  2.50328E+03  6.66585E+02  1.04219E+03  2.25191E+03  9.92361E+02  9.14332E+02
  1.80839E+03  6.45254E+02  1.07416E+03  1.29833E+03  2.04626E+03  2.56367E+03  1.72411E+03  3.04749E+03
 -2.44528E+03  4.28161E+03 -4.08603E+03  5.25134E+03 -4.88643E+03  1.36071E+03 -6.40683E+03 -1.59512E+03
 -2.69254E+03 -5.87132E+03  6.03301E+02 -6.84711E+03  3.44836E+03 -3.70045E+03  4.90238E+03 -1.32656E+03
  3.56961E+03  2.22821E+03  9.79119E+02  3.26379E+03 -1.07308E+03  1.86355E+03 -1.86874E+03 -2.75595E+02
 -4.28529E+02 -2.60086E+03  1.54633E+03 -1.92024E+03  1.97338E+03 -1.57366E+03  2.09777E+03  5.02752E+02
  2.22010E+03  7.94817E+02  1.12605E+03  5.53751E+02 -2.87850E+01  5.58425E+02  2.04657E+03 -6.06578E+02
  2.78852E+02 -3.86573E+02  2.46225E+03  1.13334E+03  3.22501E+02  2.90372E+03 -4.27393E+01  4.01474E+03
 -2.64858E+03  2.23343E+03 -3.10998E+03  7.52846E+02 -3.11727E+03 -9.49191E+02 -6.69765E+02 -1.64434E+03
  8.26332E+02 -1.63061E+03  1.82099E+03 -1.13587E+03  9.57471E+02  1.44626E+03 -7.30542E+02  2.03757E+03
 -2.66873E+03  1.73578E+03 -1.97668E+03 -1.74636E+03 -8.02931E+02 -3.18629E+03  3.19451E+02 -2.94821E+03
  1.31778E+03 -1.06933E+03  1.79624E+03 -1.24282E+01  1.73859E+03  3.94569E+02  4.35301E+02  1.68114E+03
 -5.26900E+02  2.97209E+02 -1.06973E+03 -9.01540E+02  8.78896E+02 -1.31431E+03  2.78692E+03 -1.16861E+03
  2.52368E+03  5.79488E+02  3.48501E+03  1.30494E+03  1.05318E+03  2.76161E+03 -1.03494E+03  3.25680E+03
 -2.44718E+03  9.27057E+02 -2.10816E+03 -4.82859E+02 -1.69003E+03 -2.10902E+03  9.13886E+02 -1.34667E+03
  2.27641E+03 -1.09334E+03  1.16881E+03  1.26710E+03  5.21656E+02  1.93743E+03  2.95160E+02  1.37473E+03
 -6.05662E+02  6.77086E+02 -2.53773E+02  8.44688E+01 -4.58890E+02  7.60951E+02 -1.17971E+03  7.85941E+02
 -9.60578E+02  1.51637E+03 -2.27380E+03  1.17472E+03 -2.60626E+03  2.23883E+02 -3.97838E+03 -2.04614E+03
 -1.63446E+03 -3.51390E+03  4.86933E+02 -4.25400E+03  2.26713E+03 -3.77858E+03  4.07348E+03 -1.89283E+03
  3.69995E+03  7.82108E+02  1.44864E+03  2.42415E+03  1.17824E+02  2.55802E+03 -1.75802E+03  2.04435E+03
 -2.07095E+03  1.22745E+03 -1.13672E+03 -3.16416E+02 -3.17879E+02  3.71606E+01 -1.18299E+03 -4.15290E+02
 -1.52424E+03 -2.12730E+02 -8.57248E+02  1.89460E+02  4.00403E+02 -9.62349E+02 -2.90215E+02 -1.89630E+03
  2.00373E+03 -6.92832E+02  1.32822E+03  7.54217E+02  2.07596E+03  2.22543E+03 -4.19617E+02  2.11411E+03
 -9.76322E+02  3.68855E+03 -1.82240E+03  1.94332E+03 -2.83023E+03 -5.20619E+02 -1.70288E+03 -1.70044E+03
 -1.54034E+03 -3.17631E+03  1.01553E+03 -2.03162E+03  1.43031E+03 -1.16664E+03  1.38536E+03  6.37702E+02
  6.28266E+02  5.06991E+02 -8.08433E+01  1.18068E+02 -6.19302E+02  2.73186E+02 -2.02002E+02 -4.74362E+02
  6.47829E+02 -6.29835E+01  1.66951E+02  9.75205E+02  4.80832E+02  1.18645E+03  4.33249E+02  7.59189E+02
 -1.06597E+03  1.21023E+03 -1.77990E+03 -2.02665E+02 -1.66332E+03 -1.57234E+03 -1.80033E+02 -2.01633E+03
  9.36329E+02 -1.21046E+03  8.16939E+02 -4.17409E+02  1.85285E+03  3.33363E+02  4.74533E+02  9.59118E+02
  6.75959E+02  1.47386E+03 -6.11983E+02  1.03916E+03 -7.31625E+02  6.98445E+02 -9.21632E+02  2.04069E+02
 -4.32378E+02 -1.15742E+02 -3.78574E+02  7.19759E+02 -7.44198E+02  5.50981E+02 -9.73398E+02 -4.02965E+02
 -1.36924E+03 -1.10676E+03 -9.83256E+02 -2.05075E+03  6.30612E+02 -2.11022E+03  1.77186E+03 -6.33249E+02
  1.57029E+03  2.04793E+02 -1.26259E+02  5.15515E+02 -3.34332E+02  1.38834E+03 -8.16796E+02  1.06043E+03
