 $NMID ID='MM_0lb_SNR400_20hz_g45_84.RAW', FMTDAT='(8E13.5)'
 TRAMP=1., VOLUME=1. $END
  3.09300E+05  5.23631E+02  3.37427E+05  2.50011E+05  8.40925E+04  3.36942E+05 -1.32598E+05  2.50238E+05
 -1.89663E+05  8.27454E+04 -1.10902E+05 -3.33161E+04  1.71349E+03 -5.03076E+04  5.36528E+04  7.46482E+02
  3.50181E+04  5.31218E+04 -1.68492E+04  7.44965E+04 -6.00668E+04  6.23574E+04 -8.29689E+04  3.10630E+04
 -7.91777E+04 -1.08001E+04 -5.59334E+04 -5.03308E+04 -1.48566E+04 -6.78390E+04  2.64550E+04 -4.46758E+04
  3.88492E+04  4.04365E+03  1.51579E+04  4.65320E+04 -3.43582E+04  4.56588E+04 -6.47399E+04 -7.28258E+02
 -5.18411E+04 -5.54067E+04 -5.66070E+03 -7.48110E+04  3.29269E+04 -5.22361E+04  4.60882E+04 -1.61348E+04
  4.09898E+04  1.11266E+04  2.98194E+04  2.36346E+04  1.52218E+04  2.80859E+04 -4.13518E+03  2.69885E+04
 -2.11860E+04  1.27581E+04 -1.91662E+04 -3.83961E+03  4.13494E+03 -7.25999E+03  2.10676E+04  1.05325E+04
  7.36989E+03  3.22451E+04 -2.98928E+04  3.34519E+04 -5.99751E+04  2.61605E+03 -5.48228E+04 -4.05290E+04
 -1.21514E+04 -6.02590E+04  3.68665E+04 -4.25007E+04  5.45351E+04 -2.34881E+03  3.06636E+04  3.00322E+04
 -6.85490E+03  3.21368E+04 -2.75336E+04  1.26130E+04 -2.63882E+04 -5.54198E+03 -1.33157E+04 -9.79617E+03
 -6.81544E+03 -1.11093E+04 -1.30389E+03 -1.60152E+04  6.36707E+03 -2.21703E+04  1.49430E+04 -1.46153E+04
  1.22840E+04  3.65875E+03 -5.57466E+03  1.29769E+04 -1.80719E+04 -1.60628E+03 -8.19604E+03 -2.92391E+04
  2.01754E+04 -3.94836E+04  4.31573E+04 -1.77978E+04  4.10059E+04  1.76196E+04  1.34747E+04  4.07120E+04
 -1.52469E+04  3.02382E+04 -2.26144E+04  9.85338E+02 -7.71340E+03 -2.56733E+04  2.06833E+04 -3.05064E+04
  3.66936E+04 -7.12272E+03  2.95976E+04  2.19409E+04  1.47627E+04  4.16311E+04 -7.67400E+03  4.32455E+04
 -2.74838E+04  2.86038E+04 -3.58479E+04  7.88203E+03 -3.66464E+04 -1.44620E+04 -2.06304E+04 -3.29887E+04
  6.92088E+03 -3.30515E+04  2.84321E+04 -1.18222E+04  2.63530E+04  1.08619E+04  2.50810E+03  1.73847E+04
 -1.30953E+04  6.80062E+03 -9.58565E+03 -7.39519E+03  6.13793E+03 -9.43898E+03  1.72360E+04  6.65552E+03
  1.22895E+04  2.13208E+04 -6.80888E+03  2.30631E+04 -2.07764E+04  8.15394E+03 -2.42841E+04 -7.37108E+03
 -1.54890E+04 -1.62196E+04 -4.46886E+03 -1.55309E+04  3.58235E+03 -1.25908E+04  1.20766E+04 -1.29810E+04
  1.96643E+04 -1.15534E+04  2.67837E+04  2.61957E+02  1.99868E+04  1.50896E+04  4.31971E+03  3.11397E+04
 -1.52007E+04  2.69652E+04 -2.52843E+04  9.20737E+03 -1.91948E+04 -1.02904E+04 -3.45540E+03 -1.41854E+04
  3.61016E+03 -4.57482E+03 -1.97495E+03  4.56513E+03 -1.19007E+04  5.22267E+03 -1.27023E+04 -3.80712E+03
 -8.24587E+03 -1.44291E+04  4.56484E+03 -1.83754E+04  1.14239E+04 -1.32912E+04  1.31365E+04 -1.87135E+03
  8.38006E+03  1.01255E+04 -7.82377E+02  1.42820E+04 -9.61082E+03  7.92030E+03 -1.43467E+04 -3.23460E+03
 -1.08261E+04 -1.35155E+04 -1.43804E+03 -1.77687E+04  8.28114E+03 -1.38913E+04  1.54030E+04 -6.40943E+03
  1.32730E+04  3.80308E+02  9.05268E+03  3.73584E+03  4.24464E+03  7.71020E+01  7.46327E+03 -1.59072E+03
  1.28036E+04  2.36693E+03  1.32723E+04  1.17732E+04  8.25096E+03  2.25515E+04 -3.24177E+03  2.39945E+04
 -1.41355E+04  1.75938E+04 -2.19690E+04  8.03075E+03 -2.20224E+04 -1.58163E+03 -1.92254E+04 -1.31051E+04
 -9.54762E+03 -1.78551E+04  6.20150E+03 -1.68526E+04  1.49302E+04 -1.00433E+04  1.49494E+04  3.08525E+03
  5.58754E+03  1.05526E+04 -6.25189E+03  9.51349E+03 -1.26315E+04  2.37441E+03 -9.59033E+03 -7.16091E+03
  8.45492E+02 -1.19639E+04  5.87758E+03 -8.60221E+03  7.56764E+03 -1.57178E+03  7.85292E+02  4.68010E+03
 -5.15887E+03  4.99347E+02 -3.75503E+03 -3.88652E+03  1.23834E+03 -8.91015E+03  6.80957E+03 -8.62094E+03
  1.06138E+04 -3.63937E+03  1.01504E+04  2.36102E+03  8.91906E+03  8.24936E+03  4.37190E+03  1.22240E+04
 -1.08481E+03  1.38834E+04 -8.59187E+03  9.43140E+03 -9.92670E+03  2.57345E+03 -7.65942E+03 -1.34147E+03
 -4.23434E+03 -2.75009E+03 -4.27918E+02  1.55215E+03 -1.55589E+03  1.68651E+03 -2.69265E+03  3.86176E+03
 -7.53854E+03 -4.15076E+02 -8.16424E+03 -6.29097E+03 -3.35885E+03 -1.02859E+04  3.23248E+03 -7.79135E+03
  6.99468E+03 -3.30683E+03  5.00282E+03  2.24924E+03  8.70239E+02  2.77313E+03 -3.78139E+03 -3.64057E+02
 -2.57492E+03 -4.12909E+03 -7.30197E+02 -6.49602E+03  3.59844E+03 -6.47139E+03  8.30924E+03 -3.36218E+03
  1.03211E+04  8.86950E+02  8.03385E+03  5.29920E+03  1.50254E+03  7.41030E+03 -4.60856E+03  7.43856E+03
 -5.90493E+03  2.47205E+03 -3.43981E+03 -8.60005E+02  1.75185E+03 -1.44314E+03  4.26711E+03 -8.99380E+02
  3.89542E+03  2.86269E+03  9.69995E+02  5.57083E+03 -3.93948E+03  6.23286E+03 -6.45330E+03  1.98252E+03
 -4.10152E+03 -2.99573E+03 -1.38842E+02 -5.57497E+03  2.80929E+03 -3.06818E+03  2.96222E+03  7.16278E+02
  6.87998E+02  3.09888E+03 -3.75274E+03  3.87271E+03 -3.89903E+03  2.54842E+03 -3.61817E+03 -1.13927E+03
 -2.40998E+03 -4.41947E+03  8.94859E+02 -6.27412E+03  4.74969E+03 -4.04445E+03  5.31626E+03  5.66438E+02
  4.20550E+03  3.98758E+03 -9.73699E+01  6.32128E+03 -4.22499E+03  3.22758E+03 -4.23979E+03  1.53377E+02
 -5.50622E+03 -4.47148E+03 -1.41956E+03 -4.25269E+03  2.52208E+03 -4.46967E+03  2.06671E+03 -2.64304E+03
  3.12972E+03 -3.39776E+02  1.96840E+02  1.04373E+03  7.65173E+02  2.13025E+02 -1.48679E+02 -1.32444E+03
  3.53999E+03  2.89297E+02  4.01359E+03  3.56118E+02  4.62423E+03  1.53950E+03  4.95533E+03  6.37248E+03
 -1.16996E+03  7.05111E+03 -6.61612E+03  5.29520E+03 -8.33412E+03  1.12392E+03 -6.46711E+03 -2.29069E+03
 -3.87763E+03 -5.68571E+03 -3.74323E+02 -4.00762E+03  2.04643E+03 -1.63173E+03  1.07574E+03 -1.86026E+03
  8.65826E+02 -7.51321E+02  2.24225E+03 -1.89052E+03  2.98307E+03 -1.01059E+03  3.24391E+03  2.63152E+02
  4.06735E+03  9.24805E+02  1.08984E+03  2.91869E+03 -1.50428E+03  2.17507E+03 -3.81158E+03  2.05826E+03
 -4.12174E+03 -1.14992E+03 -9.47738E+02 -3.13718E+03  9.69362E+02 -3.77901E+03  2.75464E+03 -4.49560E+03
  4.15980E+03 -2.61096E+03  5.40311E+03  2.28301E+02  4.19571E+03  3.26331E+03  1.04345E+03  4.89314E+03
 -1.20917E+03  4.76625E+03 -2.96883E+03  1.26018E+03 -1.41189E+03 -5.92542E+02 -4.25396E+02 -2.96956E+02
 -4.57384E+02  5.59113E+02 -1.49111E+03  1.85845E+03 -2.88242E+03  6.09938E+02 -3.50719E+03 -3.60032E+02
 -1.35451E+03 -3.22349E+03  6.26783E+02 -3.64227E+03  1.75386E+03 -3.55677E+03  2.45703E+03 -8.26375E+02
  3.28272E+03  1.62567E+03  9.85775E+02  2.43156E+03 -3.59539E+02  3.44642E+03 -2.04085E+03  1.97736E+03
 -3.07299E+03  4.50704E+02 -2.74990E+03 -1.58820E+03 -3.05477E+02 -2.17653E+03  1.67797E+03 -1.66852E+03
  1.72610E+03 -1.16354E+03  2.24130E+03  1.70736E+02  6.93848E+02  1.28823E+03  6.04176E+02  4.71295E+02
  1.18551E+03  6.49046E+02  1.35986E+03  5.95503E+02  8.94843E+02  2.31960E+03  1.43739E+03  1.55735E+03
 -1.73280E+03  2.15958E+03 -1.92805E+03  3.32270E+03 -1.69012E+03  1.50004E+03 -3.13223E+03  3.13348E+02
 -9.28359E+02 -2.57955E+03  1.18328E+03 -3.68027E+03  1.51711E+03 -1.58604E+03  2.55095E+03 -8.94162E+02
  1.92783E+03  1.45698E+03  1.12083E+02  1.93924E+03 -7.16422E+02  1.64205E+03 -8.34705E+02  7.42033E+01
  1.27341E+02 -1.42943E+03  8.12875E+02 -1.25158E+03  1.31785E+03 -6.63479E+02  7.43318E+02  3.16747E+02
  6.01946E+02 -4.23517E+02  1.11905E+03 -1.15298E+03 -5.87109E+02  2.87227E+02  1.89828E+03 -8.94810E+02
 -3.99774E+02 -9.41592E+00  1.47307E+03  2.26287E+01  5.34118E+02  1.68289E+03 -9.70664E+01  2.14474E+03
 -1.30038E+03  8.05099E+02 -1.93830E+03  2.40837E+02 -1.38992E+03 -5.72923E+02  3.32286E+02 -6.00503E+02
  5.74424E+02 -1.13043E+03  8.32846E+02 -4.48694E+02  3.99774E+02  1.26183E+03 -7.91866E+02  1.06936E+03
 -8.64068E+02  3.80265E+02 -4.26183E+02 -1.31326E+03 -8.51356E+02 -1.51848E+03  2.54091E+02 -1.10957E+03
 -7.00159E+01  1.35950E+02 -1.51031E+02  1.47802E+02  1.23154E+03 -5.41499E+02  5.22151E+02  9.02665E+02
 -3.59920E+02 -3.86527E+01 -8.65069E+02 -1.71042E+02  1.22888E+03 -9.39543E+02  1.31986E+03 -9.45172E+02
  7.57732E+02  4.12098E+02  2.41601E+03  1.56028E+02  9.82812E+02  1.16882E+03 -1.92463E+02  1.65485E+03
 -7.68792E+02  1.16783E+02 -9.99928E+02 -2.88745E+02 -5.52780E+02 -1.16838E+03  4.11578E+02 -1.62453E+02
  8.85092E+02 -1.02415E+03  1.25661E+02  2.79899E+02  1.30095E+02  9.72960E+02  8.25279E+02  1.28020E+03
 -5.74956E+02  9.78137E+02 -2.48095E+02 -3.13807E+02 -1.32568E+02  2.28459E+02 -3.96216E+02  6.05008E+02
 -4.68663E+02  8.30935E+02 -1.32365E+03  1.72414E+02 -1.04347E+03 -3.45879E+02 -1.58154E+03 -1.30380E+03
 -1.09876E+03 -1.77145E+03  3.34231E+02 -2.09172E+03  6.13680E+02 -1.84584E+03  2.56427E+03 -7.80198E+02
  1.55357E+03 -1.79997E+02  1.04421E+03  9.96318E+02 -1.27515E+03  1.10741E+03 -6.67296E+02  4.01397E+02
 -3.49319E+02  7.58863E+02 -3.95451E+02 -9.20979E+01 -6.04197E+02  3.51547E+02 -1.13941E+03 -4.37901E+01
 -1.18474E+03 -2.76158E+02 -8.55073E+02  6.03485E+02  2.83454E+02 -4.69866E+02 -6.84935E+02 -7.18654E+02
  8.13313E+02 -2.77996E+02  7.46139E+02 -3.74851E+02  1.47684E+03  2.75813E+02 -5.48563E+02  9.39095E+02
 -9.41635E+02  1.59980E+03 -1.57864E+03  9.75987E+02 -1.12273E+03 -1.79964E+02 -9.76654E+02 -7.96811E+02
 -8.00867E+02 -1.06622E+03  7.15289E+01 -3.46782E+02  8.62564E+02 -4.28908E+02  2.76390E+02 -1.48910E+02
  5.67556E+02  1.11469E+02  1.09549E+02  5.95176E+02 -2.36588E+02 -1.17358E+02  1.59865E+01 -3.68676E+02
  1.00214E+03  6.11866E+02  2.75698E+02  3.39418E+02  4.67605E+01  2.18697E+02  2.91719E+02  1.40455E+02
 -2.75513E+02  6.54122E+02 -2.68097E+02  2.27787E+02 -4.60785E+02 -2.41221E+01  5.89218E+02 -1.09971E+03
  3.13302E+02 -3.44098E+02 -7.02851E+01  3.36118E+02  6.13011E+02 -8.26357E+02  1.32435E+02  1.98296E+02
  6.69382E+02  3.79860E+02 -5.56481E+02  7.39868E+02 -9.19158E+01  6.00903E+02 -3.43194E+02  3.85751E+02
 -1.71551E+02  2.42652E+00  2.16657E+02  4.52556E+02 -8.84716E+02 -7.67159E+01  2.94390E+01 -3.30792E+02
 -1.02805E+03  2.53588E+02 -3.40192E+02 -2.99356E+02  7.38753E+01 -1.33291E+03  6.92559E+02 -2.99281E+02
  6.10121E+02 -1.47219E+02 -6.96573E+02  2.64610E+02 -7.76015E+02  2.57885E+01 -6.71532E+01  7.73149E+02
