 $NMID ID='MM_0lb_SNR400_12hz_g50_82.RAW', FMTDAT='(8E13.5)'
 TRAMP=1., VOLUME=1. $END
  3.10741E+05  3.54749E+02  3.37702E+05  2.50891E+05  8.50638E+04  3.38047E+05 -1.32922E+05  2.52124E+05
 -1.90265E+05  8.35224E+04 -1.12028E+05 -3.28685E+04  6.83143E+02 -5.08254E+04  5.37289E+04 -2.29366E+01
  3.53838E+04  5.31744E+04 -1.70536E+04  7.61185E+04 -6.15488E+04  6.42102E+04 -8.42768E+04  3.16946E+04
 -8.14385E+04 -1.17942E+04 -5.81943E+04 -5.15011E+04 -1.48916E+04 -7.04306E+04  2.83565E+04 -4.66799E+04
  4.08126E+04  4.03285E+03  1.72809E+04  4.82689E+04 -3.43207E+04  4.77824E+04 -6.69330E+04  5.40259E+02
 -5.40570E+04 -5.68542E+04 -7.07611E+03 -7.79266E+04  3.42348E+04 -5.65263E+04  4.78635E+04 -1.71054E+04
  4.35310E+04  1.17242E+04  3.23085E+04  2.51355E+04  1.59223E+04  2.97288E+04 -5.22862E+03  2.73394E+04
 -2.23067E+04  1.24791E+04 -1.76855E+04 -4.95483E+03  6.09499E+03 -7.75514E+03  2.28633E+04  1.25310E+04
  7.01988E+03  3.61547E+04 -3.32738E+04  3.62169E+04 -6.34557E+04  2.35678E+03 -5.82996E+04 -4.34945E+04
 -1.25072E+04 -6.35768E+04  4.09166E+04 -4.58830E+04  5.92986E+04 -2.47958E+03  3.55907E+04  3.31540E+04
 -6.11177E+03  3.72532E+04 -3.06846E+04  1.73036E+04 -3.10076E+04 -3.99511E+03 -1.80932E+04 -1.09252E+04
 -8.69625E+03 -1.39234E+04 -6.87543E+01 -1.83504E+04  7.66869E+03 -2.35680E+04  1.52133E+04 -1.26001E+04
  1.10999E+04  5.30174E+03 -9.06717E+03  1.34663E+04 -2.17272E+04 -5.24021E+03 -8.20594E+03 -3.49617E+04
  2.43606E+04 -4.53150E+04  5.00542E+04 -1.99200E+04  4.62539E+04  2.10010E+04  1.63403E+04  4.56464E+04
 -1.63902E+04  3.43884E+04 -2.60223E+04  2.31510E+03 -1.09996E+04 -2.88385E+04  2.12107E+04 -3.46324E+04
  4.26396E+04 -1.02062E+04  3.79890E+04  2.46542E+04  1.97741E+04  4.89273E+04 -8.11757E+03  5.24993E+04
 -3.35955E+04  3.55197E+04 -4.42523E+04  1.08923E+04 -4.44122E+04 -1.75408E+04 -2.51420E+04 -4.02874E+04
  7.49975E+03 -3.92678E+04  3.24840E+04 -1.56712E+04  3.01018E+04  1.09677E+04  3.60157E+03  1.95866E+04
 -1.39981E+04  9.01080E+03 -1.08609E+04 -7.34969E+03  5.90514E+03 -1.11065E+04  1.85887E+04  6.42271E+03
  1.34850E+04  2.29883E+04 -5.40130E+03  2.55469E+04 -2.19788E+04  1.19442E+04 -2.91383E+04 -4.23989E+03
 -2.23298E+04 -1.74393E+04 -9.60693E+03 -2.25867E+04  4.10858E+03 -2.18615E+04  1.73982E+04 -1.99829E+04
  2.86105E+04 -1.32045E+04  3.48527E+04  4.32014E+03  2.46117E+04  2.22173E+04  4.79650E+03  3.76528E+04
 -1.87855E+04  3.19264E+04 -2.93392E+04  1.12020E+04 -2.12858E+04 -1.04700E+04 -4.62533E+03 -1.29437E+04
  1.35240E+03 -2.09368E+03 -5.85660E+03  7.18148E+03 -1.78068E+04  4.88011E+03 -1.81958E+04 -7.84592E+03
 -1.10237E+04 -2.04567E+04  5.31152E+03 -2.47765E+04  1.63023E+04 -1.78303E+04  2.02782E+04 -1.35403E+03
  1.22956E+04  1.43399E+04 -1.21095E+03  2.08773E+04 -1.40055E+04  1.14193E+04 -2.11879E+04 -4.71962E+03
 -1.49088E+04 -1.84703E+04 -2.17491E+03 -2.52603E+04  1.15708E+04 -2.02259E+04  2.07571E+04 -1.02996E+04
  1.93274E+04 -4.85739E+01  1.41205E+04  4.14090E+03  7.48809E+03  1.90793E+03  1.01437E+04 -2.26180E+03
  1.85776E+04  3.33175E+03  2.15882E+04  1.58672E+04  1.43923E+04  3.28790E+04 -3.15510E+03  3.84958E+04
 -2.20097E+04  3.15190E+04 -3.54819E+04  1.61057E+04 -3.83705E+04 -2.51122E+03 -3.09311E+04 -2.18747E+04
 -1.28873E+04 -3.16192E+04  1.03750E+04 -2.81182E+04  2.35993E+04 -1.36650E+04  2.12682E+04  6.26375E+03
  7.26790E+03  1.57753E+04 -1.00099E+04  1.38407E+04 -1.79297E+04  2.25564E+03 -1.39011E+04 -1.13005E+04
 -6.62779E+02 -1.67461E+04  8.52957E+03 -1.26002E+04  1.17375E+04 -9.31462E+02  2.37901E+03  7.68366E+03
 -7.23316E+03  3.11637E+03 -6.97041E+03 -6.22860E+03 -2.15294E+03 -1.54649E+04  1.04473E+04 -1.58697E+04
  1.91981E+04 -9.31133E+03  2.05575E+04  2.92101E+03  1.84907E+04  1.53668E+04  7.99462E+03  2.39189E+04
 -4.24206E+03  2.58811E+04 -1.60116E+04  1.59910E+04 -1.82504E+04  3.45340E+03 -1.32845E+04 -4.61575E+03
 -5.16277E+03 -5.86725E+03 -9.56062E+02  1.45705E+03 -2.58590E+03  3.17926E+03 -5.88020E+03  5.14385E+03
 -1.20152E+04 -2.55398E+02 -1.26928E+04 -9.65109E+03 -5.38681E+03 -1.65793E+04  5.37587E+03 -1.33658E+04
  1.10216E+04 -6.02086E+03  7.61721E+03  2.98914E+03  6.19388E+02  5.07010E+03 -6.17064E+03  1.12708E+02
 -6.10097E+03 -8.30272E+03 -2.99521E+02 -1.25146E+04  7.29598E+03 -1.35260E+04  1.69928E+04 -6.62485E+03
  1.86584E+04  1.53968E+03  1.34710E+04  1.10798E+04  3.06719E+03  1.51935E+04 -8.31302E+03  1.26866E+04
 -1.05314E+04  3.99528E+03 -4.93198E+03 -3.02362E+03  1.37561E+03 -2.72298E+03  6.68703E+03 -1.06886E+03
  5.48173E+03  5.02145E+03  1.12357E+03  1.00953E+04 -7.20058E+03  9.31984E+03 -1.19918E+04  2.22557E+03
 -8.77263E+03 -6.70421E+03  1.87719E+02 -1.05099E+04  7.31522E+03 -4.79850E+03  7.38560E+03  3.11199E+03
  1.62362E+03  7.65318E+03 -6.62641E+03  9.01296E+03 -1.03763E+04  4.25011E+03 -1.01746E+04 -3.77275E+03
 -6.38858E+03 -1.17247E+04  2.88778E+03 -1.44130E+04  1.25016E+04 -8.24126E+03  1.25990E+04  1.94903E+03
  7.74609E+03  9.94510E+03 -1.13851E+03  1.27763E+04 -8.46136E+03  6.93169E+03 -9.77157E+03 -8.17936E+02
 -8.63254E+03 -8.04025E+03 -1.07933E+03 -9.00437E+03  5.00564E+03 -8.14998E+03  6.23812E+03 -2.62680E+03
  4.40040E+03  1.32505E+03 -2.99271E+02  2.12059E+03  4.70006E+02 -1.76385E+03  2.08194E+03 -4.76022E+03
  8.60401E+03 -2.84742E+03  1.21464E+04  1.39722E+03  1.11142E+04  8.18199E+03  8.42910E+03  1.51323E+04
 -3.49363E+03  1.74481E+04 -1.47484E+04  1.32506E+04 -1.95228E+04  2.08505E+03 -1.62122E+04 -6.07908E+03
 -7.20794E+03 -1.26249E+04 -4.72595E+02 -1.08102E+04  3.85471E+03 -6.19360E+03  3.45844E+03 -5.08690E+03
  2.89759E+03 -2.23073E+03  2.93698E+03 -3.21180E+03  4.97506E+03 -2.73650E+03  6.64544E+03  1.57494E+02
  8.00347E+03  1.52087E+03  3.65795E+03  7.02639E+03 -1.51860E+03  8.54743E+03 -8.41398E+03  6.62347E+03
 -1.09553E+04 -1.05297E+03 -5.69708E+03 -7.84639E+03 -5.53618E+02 -1.10764E+04  6.89654E+03 -1.11064E+04
  1.20200E+04 -7.26601E+03  1.45106E+04  1.26384E+03  9.76403E+03  9.67637E+03  1.35742E+03  1.25154E+04
 -5.04270E+03  1.12624E+04 -8.19475E+03  3.99479E+03 -4.91760E+03 -2.00480E+03 -1.89619E+03 -1.93057E+03
 -6.89091E+02  1.48223E+02 -1.46672E+03  2.47255E+03 -3.90215E+03  1.76300E+03 -8.30121E+03 -9.07524E+02
 -5.01071E+03 -8.28248E+03  5.35807E+02 -1.03502E+04  6.42612E+03 -9.91790E+03  1.02775E+04 -2.69633E+03
  9.51095E+03  4.72789E+03  3.62413E+03  9.12857E+03 -2.45922E+03  1.04074E+04 -7.43316E+03  6.96966E+03
 -9.37377E+03  8.06086E+02 -7.24891E+03 -6.45267E+03 -5.98997E+02 -9.10190E+03  4.74570E+03 -6.17971E+03
  6.78019E+03 -2.09005E+03  5.30199E+03  2.51976E+03  1.22938E+03  3.78556E+03  1.21806E+03  1.67014E+03
  2.78104E+03  1.22307E+03  2.17500E+03  1.71916E+03  2.85764E+03  4.01650E+03  2.57072E+03  5.08180E+03
 -2.73538E+03  7.55824E+03 -6.55551E+03  7.75789E+03 -1.00644E+04  2.68236E+03 -1.08605E+04 -3.66315E+03
 -4.71228E+03 -9.02222E+03  1.44721E+03 -1.13657E+04  6.31832E+03 -7.03318E+03  8.61646E+03 -2.45450E+03
  6.25005E+03  4.31471E+03  1.54394E+03  5.54794E+03 -2.92085E+03  4.29161E+03 -3.45721E+03 -6.34056E+02
 -1.39359E+03 -4.11774E+03  2.64506E+03 -4.30449E+03  3.68804E+03 -2.11521E+03  3.75097E+03  6.76995E+02
  2.81971E+03  1.55171E+03  1.96977E+03  9.75267E+02 -3.35126E+02  1.63263E+03  1.51107E+03 -9.38993E+02
  1.63125E+03 -6.54549E+02  4.10143E+03  1.61366E+03  2.13714E+03  5.89633E+03 -1.16219E+03  6.71488E+03
 -4.77983E+03  4.19816E+03 -5.68781E+03  1.35993E+03 -6.00952E+03 -2.20686E+03 -1.56484E+03 -3.47764E+03
  5.46707E+01 -3.91197E+03  2.42186E+03 -1.75760E+03  2.18746E+03  2.64830E+03 -8.39292E+02  3.42445E+03
 -3.92158E+03  1.92249E+03 -3.99222E+03 -3.03070E+03 -2.42707E+03 -5.28035E+03  1.24506E+03 -5.37413E+03
  2.85121E+03 -3.12996E+03  3.76717E+03 -1.12769E+03  3.51563E+03  1.16219E+03 -3.52880E+02  3.13356E+03
 -1.45994E+03  4.03563E+02 -2.40205E+03 -2.30491E+03  1.52983E+03 -3.98478E+03  4.89259E+03 -2.46707E+03
  5.09962E+03  1.06051E+03  6.25753E+03  3.44422E+03  1.66117E+03  5.91075E+03 -2.58095E+03  6.17361E+03
 -4.92987E+03  2.29425E+03 -5.10632E+03 -3.92909E+02 -3.06408E+03 -3.02167E+03  6.41663E+02 -3.14673E+03
  4.42560E+03 -2.16962E+03  2.71489E+03  2.22474E+03  6.24886E+02  3.60880E+03 -5.90801E+01  2.95090E+03
 -2.12362E+03  2.38627E+03 -1.29797E+03  5.13726E+02 -8.72383E+02  1.18379E+03 -1.14154E+03  1.10222E+03
 -1.34793E+03  2.89528E+03 -4.95654E+03  1.25913E+03 -6.14448E+03  4.70882E+02 -7.08875E+03 -3.85792E+03
 -3.49548E+03 -8.19795E+03  1.36893E+03 -9.58339E+03  5.15007E+03 -7.72053E+03  9.38924E+03 -2.51994E+03
  7.67917E+03  2.05992E+03  4.81581E+03  4.77326E+03 -3.86834E+02  6.27787E+03 -2.00352E+03  4.48333E+03
 -3.07196E+03  2.36346E+03 -2.01918E+03 -7.30551E+02 -8.28155E+02 -6.44362E+02 -2.28498E+02 -2.26984E+02
 -1.83721E+03 -1.08212E+02 -1.89833E+03  6.53815E+01 -4.73359E+02 -1.26912E+03 -2.43279E+02 -3.09462E+03
  3.25215E+03 -2.38665E+03  3.00825E+03  4.75988E+02  4.13933E+03  3.34856E+03  4.54948E+02  6.08354E+03
 -3.11155E+03  6.80095E+03 -7.04654E+03  4.37306E+03 -6.60390E+03 -9.28711E+02 -5.64684E+03 -4.79653E+03
 -3.21144E+03 -5.67186E+03  1.78131E+03 -4.88016E+03  4.14540E+03 -3.26211E+03  3.62916E+03  1.15774E+02
  2.19465E+03  1.50307E+03  5.13070E+02  1.70610E+03 -1.22422E+03 -2.66602E+02  7.52922E+01 -1.26690E+03
  1.95572E+03  6.21183E+00  2.99161E+03  5.24874E+02  1.45221E+03  2.74906E+03  3.36838E+02  2.77166E+03
 -3.08789E+03  2.20891E+03 -3.39794E+03 -3.50295E+02 -4.26268E+03 -2.80841E+03 -5.35241E+02 -4.55686E+03
  1.76673E+03 -4.17775E+03  3.57140E+03 -9.48866E+02  4.67173E+03  2.02411E+02  2.37071E+03  3.56263E+03
  4.86849E+02  3.63734E+03 -8.54314E+02  3.02840E+03 -2.13358E+03  2.03472E+03 -2.38825E+03  1.30399E+02
 -3.40408E+02  3.99813E+01 -5.74235E+02  5.21102E+02 -2.63950E+03  2.45076E+02 -2.89628E+03 -8.25177E+02
 -3.43864E+03 -1.45659E+03 -1.05050E+03 -3.78384E+03  2.62232E+03 -4.55635E+03  3.20162E+03 -1.60311E+03
  3.51051E+03  4.08376E+02  1.93857E+03  2.07053E+03 -2.43562E+02  3.90299E+03 -3.44330E+03  2.67832E+03
