 $NMID ID='MM_0lb_SNR400_13hz_g40_27.RAW', FMTDAT='(8E13.5)'
 TRAMP=1., VOLUME=1. $END
  3.09743E+05  8.23758E+02  3.37513E+05  2.50900E+05  8.46481E+04  3.37677E+05 -1.32426E+05  2.50713E+05
 -1.90194E+05  8.27444E+04 -1.11849E+05 -3.20748E+04  1.27689E+03 -5.02544E+04  5.41499E+04 -2.17467E+02
  3.52121E+04  5.34737E+04 -1.67605E+04  7.44248E+04 -6.11114E+04  6.33522E+04 -8.38904E+04  3.22174E+04
 -8.05988E+04 -1.15999E+04 -5.67745E+04 -5.10609E+04 -1.48734E+04 -6.95469E+04  2.79606E+04 -4.54592E+04
  3.99879E+04  3.16068E+03  1.61026E+04  4.74117E+04 -3.43703E+04  4.71865E+04 -6.66248E+04 -4.13257E+02
 -5.38073E+04 -5.68220E+04 -6.81647E+03 -7.62793E+04  3.37043E+04 -5.42138E+04  4.78603E+04 -1.73402E+04
  4.30162E+04  1.14954E+04  3.15088E+04  2.54961E+04  1.56738E+04  2.88821E+04 -5.05404E+03  2.70264E+04
 -2.22558E+04  1.20746E+04 -1.83746E+04 -5.31068E+03  5.45357E+03 -8.41488E+03  2.18638E+04  1.20800E+04
  7.15589E+03  3.55017E+04 -3.23447E+04  3.48827E+04 -6.38276E+04  2.34789E+03 -5.67718E+04 -4.25661E+04
 -1.18854E+04 -6.28327E+04  3.95023E+04 -4.52658E+04  5.79331E+04 -1.79267E+03  3.40566E+04  3.22804E+04
 -5.98973E+03  3.54805E+04 -3.00825E+04  1.60313E+04 -3.01574E+04 -4.82858E+03 -1.69004E+04 -1.08767E+04
 -8.48882E+03 -1.29064E+04 -1.18399E+03 -1.81933E+04  7.68505E+03 -2.28923E+04  1.57443E+04 -1.32947E+04
  1.17310E+04  4.92336E+03 -8.26683E+03  1.31635E+04 -2.12532E+04 -4.73056E+03 -7.51669E+03 -3.41470E+04
  2.22807E+04 -4.31341E+04  4.82594E+04 -1.97471E+04  4.45512E+04  1.94833E+04  1.57234E+04  4.41263E+04
 -1.60434E+04  3.26359E+04 -2.58046E+04  1.98380E+03 -9.60150E+03 -2.79535E+04  2.14183E+04 -3.42495E+04
  4.10531E+04 -9.06339E+03  3.53600E+04  2.37562E+04  1.84481E+04  4.61757E+04 -7.64080E+03  5.02696E+04
 -3.18999E+04  3.37333E+04 -4.19361E+04  8.74627E+03 -4.16576E+04 -1.66259E+04 -2.36691E+04 -3.84041E+04
  6.55899E+03 -3.75889E+04  3.19941E+04 -1.46582E+04  2.97743E+04  1.02070E+04  4.15825E+03  1.84589E+04
 -1.37656E+04  8.72732E+03 -1.01274E+04 -7.91725E+03  5.76802E+03 -1.01803E+04  1.78383E+04  5.80265E+03
  1.41220E+04  2.20481E+04 -5.98923E+03  2.48868E+04 -2.22170E+04  1.20052E+04 -2.80582E+04 -5.01205E+03
 -1.99381E+04 -1.75419E+04 -8.56060E+03 -2.05353E+04  3.50191E+03 -2.03470E+04  1.60493E+04 -1.87479E+04
  2.58992E+04 -1.26452E+04  3.33458E+04  2.27331E+03  2.37539E+04  2.04378E+04  4.60623E+03  3.63583E+04
 -1.78017E+04  3.00092E+04 -2.78427E+04  1.02513E+04 -2.02211E+04 -1.03399E+04 -5.28886E+03 -1.34239E+04
  1.86633E+03 -2.08066E+03 -4.86367E+03  7.15192E+03 -1.59248E+04  5.57881E+03 -1.63197E+04 -7.05980E+03
 -9.69817E+03 -1.92254E+04  5.49858E+03 -2.28457E+04  1.57453E+04 -1.66403E+04  1.86669E+04 -1.52634E+03
  1.15783E+04  1.34720E+04 -1.10177E+03  1.91896E+04 -1.24995E+04  1.10614E+04 -1.87021E+04 -4.29521E+03
 -1.40137E+04 -1.70082E+04 -2.07294E+03 -2.34626E+04  1.04130E+04 -1.84123E+04  1.92617E+04 -9.32050E+03
  1.71370E+04  2.92437E+02  1.27255E+04  4.33090E+03  6.88471E+03  5.98259E+02  9.46830E+03 -1.55782E+03
  1.71717E+04  2.65259E+03  1.93888E+04  1.50244E+04  1.25930E+04  2.97150E+04 -2.48257E+03  3.48413E+04
 -1.96832E+04  2.78004E+04 -3.22960E+04  1.36332E+04 -3.34821E+04 -2.81720E+03 -2.80261E+04 -1.96356E+04
 -1.14864E+04 -2.82953E+04  9.82623E+03 -2.51653E+04  2.15917E+04 -1.29239E+04  1.95002E+04  4.88103E+03
  6.60225E+03  1.45975E+04 -9.01799E+03  1.24802E+04 -1.60176E+04  2.66797E+03 -1.23517E+04 -1.05242E+04
  3.26196E+02 -1.59989E+04  8.00120E+03 -1.16335E+04  1.08685E+04 -1.06191E+03  1.77018E+03  5.60068E+03
 -7.03572E+03  2.69291E+03 -6.80026E+03 -5.52937E+03 -3.83436E+02 -1.34353E+04  1.00403E+04 -1.46746E+04
  1.65858E+04 -8.04450E+03  1.81805E+04  3.51888E+03  1.56333E+04  1.36019E+04  7.06137E+03  2.07054E+04
 -2.97863E+03  2.26343E+04 -1.38890E+04  1.34119E+04 -1.58499E+04  3.80410E+03 -1.14717E+04 -3.85147E+03
 -5.47304E+03 -4.95791E+03 -8.37631E+02  1.13214E+03 -2.07237E+03  2.89560E+03 -4.94414E+03  5.10092E+03
 -1.11707E+04 -8.93847E+02 -1.11680E+04 -8.54017E+03 -4.20604E+03 -1.48567E+04  4.68478E+03 -1.19173E+04
  9.67715E+03 -4.64319E+03  7.06224E+03  2.63954E+03  8.18129E+02  4.77918E+03 -5.67211E+03 -6.18630E+02
 -5.02147E+03 -7.45994E+03 -1.06852E+03 -1.06829E+04  6.51633E+03 -1.14623E+04  1.44833E+04 -6.02083E+03
  1.64792E+04  1.67878E+03  1.26491E+04  9.72190E+03  1.99994E+03  1.24762E+04 -7.02909E+03  1.13371E+04
 -8.99070E+03  3.20131E+03 -5.34010E+03 -2.06815E+03  1.55405E+03 -3.31224E+03  6.01290E+03 -1.32389E+03
  5.72913E+03  4.35165E+03  8.83343E+02  9.00386E+03 -5.81577E+03  8.85824E+03 -1.12559E+04  2.78282E+03
 -6.94124E+03 -5.23799E+03  5.02284E+02 -9.30208E+03  6.27236E+03 -4.98324E+03  6.17831E+03  2.34096E+03
  6.60058E+02  6.13392E+03 -6.29406E+03  7.62310E+03 -8.28087E+03  3.34571E+03 -8.74386E+03 -2.69986E+03
 -5.26035E+03 -9.76428E+03  2.61222E+03 -1.12996E+04  1.05198E+04 -6.67483E+03  1.10242E+04  1.11992E+03
  7.24959E+03  8.88644E+03 -2.37011E+02  1.11126E+04 -6.62959E+03  6.22587E+03 -8.90533E+03 -6.61009E+02
 -7.86756E+03 -7.66267E+03 -1.57157E+03 -8.36357E+03  4.01012E+03 -6.30953E+03  4.72908E+03 -3.16083E+03
  3.90726E+03  7.65567E+02 -4.96334E+02  2.08291E+03  5.00487E+02 -2.07051E+03  1.32825E+03 -4.02044E+03
  6.46476E+03 -2.24090E+03  1.02805E+04  6.82924E+02  9.87784E+03  6.09727E+03  7.09236E+03  1.29782E+04
 -2.84949E+03  1.56275E+04 -1.26717E+04  1.12244E+04 -1.65961E+04  2.11898E+03 -1.33872E+04 -4.84901E+03
 -6.62450E+03 -1.09490E+04 -4.63768E+02 -8.89338E+03  3.58350E+03 -4.23427E+03  2.87189E+03 -3.10524E+03
  2.02684E+03 -2.57604E+03  2.14212E+03 -2.94942E+03  4.27508E+03 -3.06273E+03  5.97313E+03 -7.69364E+02
  7.18046E+03  1.92119E+03  2.51404E+03  6.54759E+03 -1.27801E+03  6.67870E+03 -7.43987E+03  5.05332E+03
 -9.41290E+03 -6.75244E+02 -5.11969E+03 -6.14493E+03 -3.27886E+02 -9.23288E+03  5.22974E+03 -9.58163E+03
  9.45741E+03 -5.57413E+03  1.18788E+04  8.69242E+02  8.57399E+03  8.71145E+03  2.21977E+03  1.02941E+04
 -4.58649E+03  9.06887E+03 -5.97835E+03  2.94011E+03 -3.87402E+03 -1.29701E+03 -1.72763E+03 -1.22498E+03
 -7.86680E+02  8.22999E+02 -2.00952E+03  2.80108E+03 -4.13887E+03  1.71457E+03 -6.83338E+03 -9.43229E+02
 -4.11738E+03 -6.46154E+03  5.15016E+02 -8.98951E+03  5.77659E+03 -8.41118E+03  7.83914E+03 -2.94328E+03
  8.28332E+03  4.76530E+03  4.05892E+03  7.33826E+03 -1.30859E+03  8.50497E+03 -6.12140E+03  5.45541E+03
 -7.18943E+03  1.34455E+03 -6.26636E+03 -4.89953E+03 -1.86500E+02 -7.24447E+03  3.11772E+03 -5.33317E+03
  5.74839E+03 -2.00598E+03  3.37642E+03  1.17328E+03  6.48809E+02  2.68461E+03  7.47197E+02  1.36131E+03
  2.53373E+03  4.29961E+02  2.55949E+03  1.43328E+03  1.94928E+03  2.79222E+03  2.51138E+03  3.93560E+03
 -2.24010E+03  6.15649E+03 -5.93530E+03  7.29128E+03 -7.76863E+03  2.22395E+03 -8.89761E+03 -3.07095E+03
 -4.02267E+03 -8.06673E+03  1.50074E+03 -9.62770E+03  4.80675E+03 -5.95856E+03  7.07416E+03 -2.01613E+03
  5.34430E+03  2.63188E+03  7.51041E+02  4.54042E+03 -2.12211E+03  2.34810E+03 -2.91052E+03 -4.13756E+02
 -1.57802E+03 -3.53348E+03  2.14250E+03 -3.75360E+03  3.75088E+03 -1.90181E+03  2.89270E+03  1.10075E+03
  1.37373E+03  1.59061E+03  9.08261E+02  1.03883E+03 -5.23546E+02  8.66503E+02  2.42490E+03 -3.96470E+02
  9.98346E+02 -5.59570E+02  3.41421E+03  1.52408E+03  9.70690E+02  3.82789E+03 -8.38618E+02  6.00099E+03
 -3.32043E+03  3.65519E+03 -5.12414E+03  9.74121E+02 -5.08407E+03 -1.68701E+03 -1.13921E+03 -2.73243E+03
  4.11296E+02 -2.82831E+03  1.64699E+03 -1.71717E+03  1.62550E+03  2.05673E+03 -1.46968E+03  2.98241E+03
 -2.95680E+03  1.35928E+03 -3.16184E+03 -2.07865E+03 -1.93507E+03 -5.08557E+03  9.48611E+02 -3.99528E+03
  2.21174E+03 -2.56743E+03  2.28279E+03  8.91325E+02  3.03347E+03  7.67554E+02  4.31148E+02  2.00060E+03
 -1.23980E+03  9.49603E+02 -1.44239E+03 -1.11969E+03  7.95489E+02 -3.02027E+03  4.18426E+03 -1.60231E+03
  4.48478E+03 -2.30675E+01  5.53155E+03  3.45817E+03  1.59430E+03  5.00257E+03 -1.23623E+03  4.66714E+03
 -4.16145E+03  1.76461E+03 -4.30382E+03 -5.57757E+02 -1.81395E+03 -3.05763E+03  7.51490E+02 -3.34132E+03
  3.04247E+03 -1.71137E+03  2.89056E+03  1.40192E+03  1.19820E+03  2.56685E+03  1.88105E+02  2.97492E+03
 -8.30286E+02  2.13965E+03 -1.49159E+03  5.96232E+02 -1.14470E+03  5.29854E+02 -1.18083E+03  1.16530E+03
 -1.17504E+03  1.88054E+03 -3.48044E+03  1.10894E+03 -4.77221E+03  5.65314E+02 -5.54949E+03 -3.05731E+03
 -2.69161E+03 -5.75273E+03  1.33495E+03 -7.51096E+03  4.73456E+03 -5.61837E+03  6.66185E+03 -2.19984E+03
  6.66783E+03  1.38123E+03  4.33668E+03  4.53090E+03 -7.54246E+01  5.02773E+03 -1.65147E+03  3.78256E+03
 -2.82450E+03  1.91286E+03 -2.05269E+03 -7.75666E+01 -5.65144E+02 -4.16085E+02 -5.57777E+02 -7.83372E+01
 -9.85116E+02  5.88400E+02 -8.98491E+02  3.87462E+01  1.92214E+02 -1.14957E+03 -7.52275E+02 -2.32763E+03
  2.45948E+03 -1.61609E+03  3.09853E+03  3.52114E+02  3.45210E+03  3.10876E+03  7.11524E+02  4.60285E+03
 -2.35373E+03  6.18683E+03 -4.53300E+03  3.36607E+03 -5.62420E+03 -7.87103E+02 -3.50390E+03 -3.57204E+03
 -1.54198E+03 -4.91505E+03  1.01261E+03 -4.91755E+03  2.73675E+03 -2.54239E+03  2.87614E+03 -1.22061E+02
  1.89522E+03  1.74569E+03 -8.56237E+02  1.91572E+03 -1.16731E+03  1.35987E+02  4.44054E+02 -9.21361E+02
  1.82703E+03 -4.10968E+02  1.14516E+03  8.61801E+02  1.37391E+03  1.77478E+03  4.61444E+02  2.07121E+03
 -1.56147E+03  2.52975E+03 -3.58977E+03  3.13433E+02 -2.84549E+03 -2.02239E+03 -5.06611E+02 -4.12158E+03
  1.57453E+03 -3.30984E+03  2.33198E+03 -7.19579E+02  3.12291E+03  1.62390E+02  2.30040E+03  2.80359E+03
  1.61746E+02  2.75805E+03 -1.26143E+03  3.09186E+03 -9.36958E+02  1.30838E+03 -1.29397E+03  1.09935E+02
 -4.96570E+02 -1.92693E+01 -8.35016E+02  4.08425E+02 -1.71607E+03 -1.44241E+01 -2.69393E+03 -5.39117E+02
 -2.47003E+03 -1.37741E+03 -5.35604E+02 -3.22481E+03  1.19672E+03 -3.55621E+03  2.76561E+03 -1.72265E+03
  2.91369E+03  6.79654E+01  6.27771E+02  1.28929E+03 -1.35634E+02  2.46647E+03 -1.77828E+03  2.34137E+03
