 $NMID ID='MM_0lb_SNR400_8hz_g45_78.RAW', FMTDAT='(8E13.5)'
 TRAMP=1., VOLUME=1. $END
  3.09541E+05  1.27552E+03  3.37158E+05  2.50676E+05  8.54314E+04  3.37669E+05 -1.32446E+05  2.52977E+05
 -1.90435E+05  8.44555E+04 -1.12658E+05 -3.26804E+04  5.56762E+02 -5.06535E+04  5.30582E+04 -5.54877E+02
  3.50778E+04  5.31378E+04 -1.60108E+04  7.58402E+04 -6.07296E+04  6.40666E+04 -8.60401E+04  3.26407E+04
 -8.27259E+04 -1.18712E+04 -5.87080E+04 -5.23507E+04 -1.46521E+04 -7.13337E+04  2.73812E+04 -4.71162E+04
  4.18878E+04  5.01304E+03  1.70614E+04  4.85123E+04 -3.35265E+04  4.82607E+04 -6.78582E+04 -2.97265E+02
 -5.48261E+04 -5.79477E+04 -7.54597E+03 -7.97273E+04  3.53443E+04 -5.71607E+04  4.97847E+04 -1.77190E+04
  4.45030E+04  1.10460E+04  3.25806E+04  2.63375E+04  1.55888E+04  3.03329E+04 -6.02232E+03  2.79921E+04
 -2.24907E+04  1.16256E+04 -1.86925E+04 -6.99854E+03  7.12917E+03 -6.53142E+03  2.29186E+04  1.36418E+04
  6.79789E+03  3.70274E+04 -3.43637E+04  3.67570E+04 -6.60117E+04  1.32844E+03 -5.90825E+04 -4.44742E+04
 -1.37910E+04 -6.53098E+04  4.25072E+04 -4.82619E+04  6.10094E+04 -1.95188E+03  3.75947E+04  3.47370E+04
 -4.76405E+03  4.03061E+04 -3.25092E+04  1.91231E+04 -3.34602E+04 -2.94012E+03 -1.95686E+04 -1.25683E+04
 -9.71680E+03 -1.44217E+04 -2.21299E+02 -1.87624E+04  9.65577E+03 -2.43706E+04  1.57405E+04 -1.31265E+04
  9.63329E+03  5.50416E+03 -1.10906E+04  1.32836E+04 -2.35794E+04 -7.15010E+03 -8.87036E+03 -3.78966E+04
  2.54552E+04 -4.79852E+04  5.15838E+04 -2.09638E+04  4.83083E+04  2.08970E+04  1.76610E+04  4.73106E+04
 -1.67879E+04  3.58933E+04 -2.85127E+04  2.80222E+03 -1.18987E+04 -2.95278E+04  2.19725E+04 -3.83482E+04
  4.51055E+04 -1.15364E+04  4.06016E+04  2.53359E+04  2.15465E+04  5.24384E+04 -8.46646E+03  5.64019E+04
 -3.57523E+04  3.89605E+04 -4.84912E+04  1.14784E+04 -4.79628E+04 -1.95803E+04 -2.69372E+04 -4.24000E+04
  8.97016E+03 -4.29997E+04  3.51158E+04 -1.66397E+04  3.25054E+04  1.06260E+04  5.30919E+03  2.10961E+04
 -1.49846E+04  9.48417E+03 -1.12817E+04 -7.26898E+03  5.37970E+03 -1.12721E+04  1.87090E+04  4.97781E+03
  1.46045E+04  2.34095E+04 -4.66977E+03  2.71942E+04 -2.25401E+04  1.40870E+04 -3.22230E+04 -1.89621E+03
 -2.63285E+04 -1.79575E+04 -1.24688E+04 -2.50840E+04  4.56142E+03 -2.67370E+04  2.07657E+04 -2.32417E+04
  3.32214E+04 -1.37764E+04  3.88260E+04  4.51595E+03  2.75301E+04  2.41176E+04  4.36396E+03  4.29396E+04
 -2.02426E+04  3.45191E+04 -2.99260E+04  1.17798E+04 -2.27085E+04 -1.03913E+04 -5.02019E+03 -1.29654E+04
  7.27144E+02 -1.27626E+03 -8.51601E+03  7.77083E+03 -2.10174E+04  4.29593E+03 -2.07435E+04 -1.05750E+04
 -1.24389E+04 -2.33699E+04  6.19941E+03 -2.82572E+04  1.90095E+04 -2.08128E+04  2.38938E+04 -1.68831E+03
  1.48720E+04  1.64547E+04 -1.11997E+03  2.35534E+04 -1.70725E+04  1.48019E+04 -2.47037E+04 -4.22973E+03
 -1.75345E+04 -2.15680E+04 -1.73758E+03 -2.82625E+04  1.32134E+04 -2.39901E+04  2.34428E+04 -1.26928E+04
  2.24988E+04 -1.51560E+03  1.71804E+04  5.40575E+03  9.24966E+03  1.70878E+03  1.30200E+04 -2.32982E+03
  2.38964E+04  2.95927E+03  2.66817E+04  1.82577E+04  1.80022E+04  3.88061E+04 -3.16912E+03  4.53991E+04
 -2.67409E+04  3.89591E+04 -4.30666E+04  2.01641E+04 -4.64469E+04 -2.54369E+03 -3.74607E+04 -2.68302E+04
 -1.51102E+04 -3.76162E+04  1.35456E+04 -3.34359E+04  2.90851E+04 -1.56888E+04  2.54102E+04  8.77949E+03
  8.03359E+03  1.97979E+04 -1.23092E+04  1.64290E+04 -2.09761E+04  3.10144E+03 -1.61381E+04 -1.28205E+04
 -5.95721E+02 -1.97723E+04  1.04561E+04 -1.52599E+04  1.30899E+04 -4.32405E+02  3.73456E+03  9.36790E+03
 -1.01204E+04  4.40437E+03 -9.64245E+03 -6.94627E+03 -1.42887E+03 -1.93398E+04  1.23746E+04 -1.99802E+04
  2.39508E+04 -1.20051E+04  2.68004E+04  3.34464E+03  2.42624E+04  1.84369E+04  1.02009E+04  3.11096E+04
 -5.68186E+03  3.23288E+04 -2.17681E+04  1.99735E+04 -2.32682E+04  4.40744E+03 -1.54431E+04 -5.96754E+03
 -6.95094E+03 -8.31457E+03  1.67126E+02  1.24420E+03 -2.52075E+03  3.34235E+03 -7.38654E+03  6.82661E+03
 -1.55590E+04 -1.29554E+03 -1.56507E+04 -1.18892E+04 -6.19951E+03 -1.98176E+04  6.77700E+03 -1.61612E+04
  1.42339E+04 -6.67543E+03  9.35029E+03  4.88157E+03 -6.43526E+02  6.69824E+03 -8.31791E+03 -3.92928E+02
 -7.85493E+03 -1.03305E+04 -2.11478E+03 -1.65557E+04  9.16650E+03 -1.68588E+04  2.07832E+04 -8.57974E+03
  2.53407E+04  2.71582E+03  1.75090E+04  1.47959E+04  3.50749E+03  1.95232E+04 -8.91484E+03  1.62458E+04
 -1.31633E+04  5.45685E+03 -7.19085E+03 -3.87036E+03  2.67358E+03 -4.57545E+03  9.09151E+03 -1.51174E+03
  7.60236E+03  6.83807E+03  6.40446E+02  1.32221E+04 -9.63126E+03  1.31439E+04 -1.59743E+04  2.68327E+03
 -1.07259E+04 -9.03855E+03  1.95878E+02 -1.41975E+04  8.82142E+03 -7.22611E+03  1.03776E+04  3.74665E+03
  2.42795E+03  1.20151E+04 -8.15121E+03  1.18316E+04 -1.50048E+04  4.72565E+03 -1.51606E+04 -5.34109E+03
 -8.07215E+03 -1.66687E+04  4.41215E+03 -1.95104E+04  1.68754E+04 -1.12741E+04  1.77685E+04  3.03206E+03
  1.09053E+04  1.37303E+04 -1.64979E+03  1.60391E+04 -1.25987E+04  9.05994E+03 -1.34595E+04 -1.49522E+03
 -1.11971E+04 -1.07881E+04 -1.91083E+03 -1.23918E+04  5.64897E+03 -9.95322E+03  7.42057E+03 -4.54657E+03
  4.93565E+03  2.46521E+03 -1.09423E+03  1.24732E+03 -7.47039E+02 -3.90824E+03  2.17073E+03 -8.26330E+03
  1.13790E+04 -5.61375E+03  1.80244E+04  1.73136E+03  1.70089E+04  1.18306E+04  1.07554E+04  2.20453E+04
 -5.06325E+03  2.53709E+04 -2.12331E+04  1.89713E+04 -2.67615E+04  4.36119E+03 -2.23753E+04 -9.55964E+03
 -1.19022E+04 -1.84068E+04 -3.33211E+02 -1.56874E+04  5.24436E+03 -8.73611E+03  5.42037E+03 -5.75130E+03
  4.17038E+03 -3.62025E+03  3.92579E+03 -4.34026E+03  6.03805E+03 -3.28382E+03  8.75124E+03 -6.35959E+02
  1.18711E+04  2.31101E+03  6.73287E+03  1.00435E+04 -1.92584E+03  1.16719E+04 -1.15996E+04  9.81304E+03
 -1.61126E+04 -1.69495E+03 -1.00152E+04 -1.16645E+04 -1.83123E+03 -1.68899E+04  9.84123E+03 -1.68682E+04
  1.73488E+04 -1.03831E+04  2.15677E+04  2.22417E+03  1.39227E+04  1.53221E+04  2.43554E+03  1.92438E+04
 -8.77688E+03  1.50678E+04 -1.16792E+04  5.49928E+03 -7.54256E+03 -1.91573E+03 -3.59067E+03 -2.03019E+03
 -1.24112E+03  1.81971E+02 -2.97690E+03  3.85976E+03 -6.71715E+03  3.31534E+03 -1.02162E+04 -1.48075E+03
 -8.12392E+03 -9.79864E+03  2.96404E+02 -1.67656E+04  9.90690E+03 -1.41027E+04  1.57200E+04 -5.11091E+03
  1.54530E+04  7.59555E+03  7.28458E+03  1.51135E+04 -3.35502E+03  1.68602E+04 -1.14386E+04  1.00763E+04
 -1.54061E+04 -2.15358E+02 -1.10613E+04 -1.03154E+04 -1.38391E+03 -1.41496E+04  7.36153E+03 -1.01659E+04
  1.02340E+04 -3.61556E+03  7.01000E+03  3.96552E+03  2.64783E+03  5.08017E+03  1.38524E+03  2.41859E+03
  2.11875E+03  1.18112E+03  3.73634E+03  1.94351E+03  5.46186E+03  5.32844E+03  3.70494E+03  8.32231E+03
 -2.86285E+03  1.32637E+04 -1.05017E+04  1.37205E+04 -1.70541E+04  3.88808E+03 -1.71602E+04 -7.55175E+03
 -8.53355E+03 -1.61517E+04  2.43645E+03 -1.82182E+04  9.93294E+03 -1.16532E+04  1.32557E+04 -3.06087E+03
  1.01126E+04  6.17543E+03  2.42801E+03  9.62163E+03 -4.91212E+03  6.18991E+03 -7.07110E+03 -3.80252E+02
 -3.15585E+03 -7.03986E+03  3.85393E+03 -7.56369E+03  7.11840E+03 -3.96571E+03  5.67474E+03  1.34392E+03
  4.21148E+03  3.32017E+03  1.22850E+03  3.12015E+03 -1.16724E+03  2.37713E+03  1.69151E+03 -5.88169E+02
  2.78464E+03 -1.58662E+03  6.92961E+03  3.49968E+03  4.23064E+03  9.02371E+03 -1.41724E+03  1.13321E+04
 -8.21124E+03  8.01771E+03 -1.11990E+04  2.37401E+03 -9.26642E+03 -3.78244E+03 -4.51814E+03 -6.70415E+03
  1.63145E+03 -6.07281E+03  4.09771E+03 -3.56343E+03  3.13011E+03  3.61805E+03 -1.09165E+03  5.14573E+03
 -8.17033E+03  3.60100E+03 -7.75335E+03 -3.99079E+03 -4.68134E+03 -8.71135E+03  1.71553E+03 -1.02965E+04
  5.54445E+03 -6.13784E+03  7.30301E+03 -9.12859E+02  5.69700E+03  2.89090E+03  9.34725E+02  4.88755E+03
 -3.49105E+03  1.76345E+03 -4.04733E+03 -3.15687E+03  1.29541E+03 -7.11597E+03  8.97086E+03 -6.38451E+03
  1.08101E+04  1.41818E+03  1.05397E+04  7.28914E+03  3.54680E+03  1.18464E+04 -4.25988E+03  1.07794E+04
 -9.73452E+03  4.77050E+03 -9.70061E+03 -1.78419E+03 -5.59168E+03 -7.59351E+03  2.45133E+03 -6.16276E+03
  7.68289E+03 -3.08567E+03  6.43913E+03  2.52396E+03  2.05488E+03  5.76004E+03 -3.52667E+02  4.95629E+03
 -2.69118E+03  2.95952E+03 -2.63548E+03  1.13701E+03 -6.04262E+02  1.44273E+03 -1.23744E+03  2.22673E+03
 -3.93478E+03  4.33804E+03 -7.63360E+03  4.01959E+03 -1.22251E+04 -6.55358E+01 -1.17848E+04 -7.82092E+03
 -6.63418E+03 -1.50069E+04  2.77839E+03 -1.72713E+04  1.10462E+04 -1.41229E+04  1.68541E+04 -6.29232E+03
  1.48581E+04  3.66612E+03  9.59153E+03  1.03090E+04  6.46830E+02  1.23456E+04 -4.97109E+03  8.97582E+03
 -6.45547E+03  2.65721E+03 -3.79030E+03 -2.09009E+03 -1.17690E+03 -1.05777E+03 -5.33359E+02 -4.30146E+02
 -2.44881E+03  4.64470E+02 -2.21188E+03 -5.60032E+02 -5.31694E+02 -2.36641E+03  3.93495E+02 -5.17920E+03
  4.93192E+03 -3.74337E+03  7.94541E+03 -3.67806E+02  7.35837E+03  5.97658E+03  2.96191E+03  1.21811E+04
 -5.18127E+03  1.31872E+04 -1.28493E+04  8.35235E+03 -1.47912E+04 -1.94827E+03 -1.12971E+04 -8.61218E+03
 -4.58220E+03 -1.28956E+04  2.81942E+03 -1.13954E+04  9.01594E+03 -5.84367E+03  7.24463E+03  2.22341E+02
  3.51464E+03  3.87266E+03 -1.20618E+03  3.24928E+03 -2.74037E+03 -6.04204E+02 -5.97795E+02 -2.66409E+03
  3.91985E+03 -2.84597E+03  4.03201E+03  2.38790E+03  3.39550E+03  5.91279E+03  1.54591E+02  6.96400E+03
 -5.44107E+03  5.25676E+03 -8.47137E+03  8.68215E+02 -7.58448E+03 -6.78152E+03 -1.13724E+03 -1.05171E+04
  6.52539E+03 -9.59120E+03  9.92959E+03 -2.99616E+03  9.38439E+03  2.26382E+03  4.97352E+03  7.55997E+03
  7.02630E+02  8.72475E+03 -2.79212E+03  6.22815E+03 -5.11264E+03  3.51576E+03 -4.80455E+03  1.86405E+02
 -2.36619E+03 -7.36141E+02 -2.00943E+03  1.44302E+03 -4.19626E+03  1.57780E+03 -6.62855E+03 -5.93519E+02
 -6.82786E+03 -4.70615E+03 -1.32130E+03 -8.87834E+03  2.75276E+03 -9.09604E+03  8.23092E+03 -4.99102E+03
  8.85163E+03  1.37574E+03  4.75693E+03  6.40951E+03  1.38489E+02  8.65097E+03 -6.70927E+03  5.83578E+03
