 $NMID ID='MM_0lb_SNR400_8hz_g50_36.RAW', FMTDAT='(8E13.5)'
 TRAMP=1., VOLUME=1. $END
  3.09723E+05  3.87196E+02  3.39273E+05  2.51629E+05  8.45549E+04  3.37925E+05 -1.32594E+05  2.51671E+05
 -1.90636E+05  8.33367E+04 -1.12504E+05 -3.26396E+04  1.26756E+02 -5.08411E+04  5.39940E+04 -2.04566E+02
  3.51862E+04  5.32186E+04 -1.64500E+04  7.68774E+04 -6.10671E+04  6.39609E+04 -8.59692E+04  3.12147E+04
 -8.32283E+04 -1.30176E+04 -5.84197E+04 -5.25367E+04 -1.53389E+04 -7.12039E+04  2.88882E+04 -4.69888E+04
  4.11253E+04  3.24648E+03  1.67950E+04  4.82778E+04 -3.54752E+04  4.80514E+04 -6.73395E+04 -4.23486E+02
 -5.50692E+04 -5.74272E+04 -7.79910E+03 -7.96475E+04  3.45705E+04 -5.71054E+04  5.02673E+04 -1.76374E+04
  4.56506E+04  1.14740E+04  3.35358E+04  2.68200E+04  1.58898E+04  3.01548E+04 -5.76306E+03  2.81347E+04
 -2.23675E+04  1.20522E+04 -1.86139E+04 -6.03581E+03  7.07797E+03 -7.31637E+03  2.41445E+04  1.38847E+04
  6.90993E+03  3.82739E+04 -3.38524E+04  3.74212E+04 -6.68585E+04  2.82353E+03 -5.98460E+04 -4.47426E+04
 -1.27087E+04 -6.67786E+04  4.26107E+04 -4.80012E+04  6.14098E+04 -2.84465E+03  3.71379E+04  3.51523E+04
 -6.00071E+03  3.94976E+04 -3.24044E+04  1.89660E+04 -3.51141E+04 -3.88657E+03 -1.95544E+04 -1.19518E+04
 -1.03749E+04 -1.57617E+04 -8.42698E+02 -2.01684E+04  9.05437E+03 -2.34364E+04  1.52022E+04 -1.20402E+04
  1.03461E+04  6.91117E+03 -1.10991E+04  1.23735E+04 -2.38422E+04 -7.52935E+03 -9.58354E+03 -3.80590E+04
  2.58267E+04 -4.76941E+04  5.27534E+04 -2.07133E+04  4.86326E+04  2.13195E+04  1.83388E+04  4.85881E+04
 -1.71222E+04  3.61377E+04 -2.80809E+04  2.47123E+03 -1.26541E+04 -2.99581E+04  2.22459E+04 -3.81942E+04
  4.57170E+04 -1.12828E+04  4.20126E+04  2.42832E+04  2.25815E+04  5.16068E+04 -7.63117E+03  5.73375E+04
 -3.65065E+04  3.87261E+04 -4.86083E+04  1.08633E+04 -4.87230E+04 -1.90196E+04 -2.66791E+04 -4.30501E+04
  8.02702E+03 -4.38409E+04  3.59636E+04 -1.79661E+04  3.19642E+04  1.14118E+04  5.64096E+03  2.16136E+04
 -1.44930E+04  1.00284E+04 -1.12291E+04 -7.71423E+03  6.01479E+03 -1.22530E+04  1.92268E+04  5.10572E+03
  1.53101E+04  2.35915E+04 -4.89542E+03  2.78079E+04 -2.35177E+04  1.48469E+04 -3.26765E+04 -2.09729E+03
 -2.68046E+04 -1.90373E+04 -1.27897E+04 -2.55744E+04  4.47823E+03 -2.71689E+04  2.07478E+04 -2.32486E+04
  3.31283E+04 -1.44948E+04  3.86553E+04  4.83802E+03  2.77666E+04  2.39497E+04  3.96534E+03  4.26767E+04
 -2.02066E+04  3.46117E+04 -3.08091E+04  1.23899E+04 -2.23094E+04 -9.90634E+03 -5.08530E+03 -1.31376E+04
  1.06013E+03 -5.92681E+02 -7.86531E+03  8.15316E+03 -2.06629E+04  4.76805E+03 -2.06399E+04 -9.58801E+03
 -1.23487E+04 -2.42644E+04  5.96054E+03 -2.91013E+04  1.98689E+04 -2.01127E+04  2.33825E+04 -1.89502E+03
  1.43486E+04  1.64379E+04 -3.98106E+02  2.41812E+04 -1.77301E+04  1.39111E+04 -2.56126E+04 -4.56538E+03
 -1.84916E+04 -2.16007E+04 -2.37661E+03 -2.91676E+04  1.32401E+04 -2.46430E+04  2.31566E+04 -1.32361E+04
  2.25947E+04 -1.92466E+02  1.67332E+04  6.27878E+03  9.11056E+03  1.95519E+03  1.28117E+04 -3.05636E+03
  2.31697E+04  2.18970E+03  2.66246E+04  1.81149E+04  1.82112E+04  3.96919E+04 -1.88446E+03  4.67772E+04
 -2.63746E+04  3.88513E+04 -4.34470E+04  2.00489E+04 -4.68266E+04 -3.95210E+03 -3.80531E+04 -2.84272E+04
 -1.47509E+04 -3.98888E+04  1.31858E+04 -3.38182E+04  2.93938E+04 -1.56457E+04  2.56177E+04  9.51550E+03
  8.07619E+03  1.88567E+04 -1.14772E+04  1.56904E+04 -2.16953E+04  2.53063E+03 -1.64833E+04 -1.33754E+04
 -4.66565E+02 -2.10972E+04  1.07196E+04 -1.55964E+04  1.43459E+04 -1.58654E+03  3.96858E+03  9.34264E+03
 -9.04475E+03  4.05653E+03 -9.74811E+03 -6.26665E+03 -1.01736E+03 -1.85051E+04  1.29597E+04 -2.12890E+04
  2.41187E+04 -1.19341E+04  2.81160E+04  3.96312E+03  2.50107E+04  1.98152E+04  1.12745E+04  3.12817E+04
 -5.49061E+03  3.27794E+04 -2.25732E+04  2.00872E+04 -2.42152E+04  4.00627E+03 -1.63318E+04 -7.32297E+03
 -6.77133E+03 -8.28654E+03 -2.35361E+02  3.97348E+02 -2.61131E+03  2.86551E+03 -7.51253E+03  6.20589E+03
 -1.55570E+04 -1.50970E+03 -1.61066E+04 -1.28968E+04 -6.70088E+03 -2.02697E+04  6.81535E+03 -1.67010E+04
  1.35600E+04 -6.37994E+03  9.48795E+03  5.38397E+03 -2.15595E+02  6.21153E+03 -8.01908E+03 -3.60011E+02
 -8.40588E+03 -1.16338E+04 -1.48236E+03 -1.59041E+04  9.70989E+03 -1.76271E+04  2.15483E+04 -1.01315E+04
  2.55445E+04  2.72523E+03  1.79793E+04  1.58901E+04  3.70848E+03  2.06166E+04 -1.02518E+04  1.62897E+04
 -1.29461E+04  4.84068E+03 -7.37727E+03 -3.48163E+03  1.88633E+03 -5.93848E+03  8.90914E+03 -7.63744E+02
  7.60717E+03  7.16010E+03  1.21177E+03  1.36081E+04 -1.01077E+04  1.29462E+04 -1.56792E+04  2.77212E+03
 -1.12527E+04 -9.33130E+03  2.71729E+02 -1.40127E+04  9.76592E+03 -7.52635E+03  9.85193E+03  3.09032E+03
  2.35162E+03  1.04497E+04 -8.80369E+03  1.27783E+04 -1.51066E+04  6.41341E+03 -1.54344E+04 -6.51594E+03
 -9.11297E+03 -1.69705E+04  4.95532E+03 -1.92730E+04  1.70882E+04 -1.14705E+04  1.77320E+04  2.54071E+03
  1.13737E+04  1.39046E+04 -1.92920E+03  1.70818E+04 -1.17641E+04  8.83841E+03 -1.34901E+04 -1.42527E+03
 -1.19712E+04 -1.13263E+04 -1.55269E+03 -1.30700E+04  7.09663E+03 -1.02694E+04  9.20926E+03 -4.30898E+03
  5.93558E+03  2.02318E+03 -2.58954E+03  2.45053E+03 -8.58060E+02 -3.81727E+03  2.44004E+03 -7.71470E+03
  1.27333E+04 -6.14013E+03  1.80273E+04  1.78287E+03  1.68660E+04  1.25237E+04  1.13112E+04  2.34994E+04
 -5.63760E+03  2.65873E+04 -2.19594E+04  1.87651E+04 -2.87253E+04  3.53907E+03 -2.26215E+04 -1.03234E+04
 -1.17601E+04 -1.81821E+04 -8.61197E+02 -1.64807E+04  5.20232E+03 -8.95934E+03  6.56499E+03 -5.77188E+03
  4.41227E+03 -3.11495E+03  4.71269E+03 -3.61540E+03  6.67132E+03 -3.64679E+03  8.84570E+03 -1.56218E+03
  1.26755E+04  3.07702E+03  6.62884E+03  1.01682E+04 -1.98630E+03  1.26808E+04 -1.15618E+04  1.02467E+04
 -1.72517E+04 -1.41108E+03 -1.08501E+04 -1.21419E+04 -1.40279E+03 -1.71949E+04  8.99840E+03 -1.78997E+04
  1.88847E+04 -1.00515E+04  2.14924E+04  2.35084E+03  1.52586E+04  1.58645E+04  2.41561E+03  1.98164E+04
 -7.94680E+03  1.58816E+04 -1.14651E+04  4.93045E+03 -8.20779E+03 -1.67860E+03 -3.14459E+03 -2.16292E+03
 -1.79449E+03 -1.84108E+02 -3.37697E+03  3.06632E+03 -6.62196E+03  2.25350E+03 -1.09290E+04 -1.86790E+03
 -8.32384E+03 -1.13544E+04 -4.17363E+02 -1.67435E+04  9.91465E+03 -1.49831E+04  1.65660E+04 -5.12513E+03
  1.68522E+04  7.43825E+03  7.48604E+03  1.56244E+04 -3.30651E+03  1.67546E+04 -1.17512E+04  1.05474E+04
 -1.62630E+04  2.52434E+02 -1.11343E+04 -9.42156E+03 -6.36599E+02 -1.38110E+04  7.93589E+03 -1.05293E+04
  9.88674E+03 -3.07788E+03  6.97831E+03  2.73185E+03  2.19103E+03  4.62059E+03  1.11818E+03  3.10028E+03
  3.14272E+03  1.12484E+03  4.27801E+03  2.01867E+03  5.26303E+03  5.44837E+03  4.40106E+03  8.81942E+03
 -3.27772E+03  1.32442E+04 -1.24672E+04  1.36776E+04 -1.80532E+04  3.92491E+03 -1.83632E+04 -8.26689E+03
 -8.83990E+03 -1.67763E+04  3.57149E+03 -1.91482E+04  1.05458E+04 -1.25577E+04  1.33839E+04 -3.59228E+03
  1.08706E+04  6.05173E+03  2.54640E+03  9.52768E+03 -5.22141E+03  5.66650E+03 -6.43119E+03 -1.17589E+03
 -3.61067E+03 -6.88389E+03  3.71545E+03 -8.07992E+03  6.38525E+03 -3.40485E+03  5.69034E+03  1.06482E+03
  3.97042E+03  3.29831E+03  1.33179E+03  3.40045E+03 -2.79968E+02  2.54824E+03  1.92415E+03 -9.21194E+02
  2.86334E+03 -6.05609E+02  6.79203E+03  2.33984E+03  4.32476E+03  8.50453E+03 -8.70194E+02  1.24830E+04
 -8.58349E+03  8.57784E+03 -1.09289E+04  2.11024E+03 -9.35596E+03 -3.95489E+03 -4.72234E+03 -6.87165E+03
  7.62783E+02 -7.34046E+03  4.47038E+03 -3.56948E+03  4.38779E+03  3.25550E+03 -2.16236E+03  5.17558E+03
 -7.59893E+03  3.61253E+03 -8.35091E+03 -4.15056E+03 -5.06006E+03 -9.90929E+03  1.59021E+03 -9.63286E+03
  5.89325E+03 -5.90763E+03  6.22544E+03 -1.60119E+02  5.79435E+03  3.10408E+03  2.44119E+02  6.07356E+03
 -4.25921E+03  2.14853E+03 -4.22720E+03 -3.76661E+03  1.45075E+03 -7.91922E+03  9.02727E+03 -5.53032E+03
  1.15292E+04  6.50675E+02  1.07906E+04  8.49864E+03  4.09216E+03  1.18586E+04 -4.45682E+03  1.08408E+04
 -9.66046E+03  4.47412E+03 -9.97152E+03 -1.81778E+03 -6.29796E+03 -7.78570E+03  1.98942E+03 -7.78613E+03
  7.64062E+03 -3.59562E+03  6.58947E+03  3.50223E+03  2.22562E+03  6.41258E+03 -1.12498E+03  5.69159E+03
 -2.88713E+03  3.84457E+03 -2.13720E+03  7.57585E+02 -1.40076E+03  1.20378E+03 -1.73457E+03  2.84231E+03
 -2.60668E+03  5.04734E+03 -7.23923E+03  4.01335E+03 -1.20613E+04 -4.27807E+02 -1.37461E+04 -8.53102E+03
 -6.72782E+03 -1.54804E+04  2.10830E+03 -1.77646E+04  1.10503E+04 -1.49693E+04  1.76767E+04 -5.54291E+03
  1.61611E+04  2.76211E+03  1.01326E+04  1.05716E+04  1.15852E+03  1.36455E+04 -5.08118E+03  9.03291E+03
 -6.42665E+03  3.67116E+03 -4.46563E+03 -1.95777E+03 -1.26269E+03 -1.42248E+03 -4.27147E+02  1.08969E+03
 -2.47869E+03  1.03615E+02 -2.20524E+03  9.38542E+01 -9.46994E+02 -2.75878E+03 -5.34513E+01 -4.94164E+03
  5.34824E+03 -4.39525E+03  7.32757E+03  3.07023E+02  8.82096E+03  7.14043E+03  1.55572E+03  1.35525E+04
 -6.60849E+03  1.48122E+04 -1.33474E+04  8.00085E+03 -1.43653E+04 -2.12451E+03 -1.15988E+04 -9.88735E+03
 -4.61209E+03 -1.33619E+04  2.65720E+03 -1.19400E+04  8.12602E+03 -5.87881E+03  8.57753E+03  3.46468E+02
  4.99264E+03  3.87975E+03 -5.32586E+02  3.82368E+03 -2.03970E+03 -3.76004E+02  7.83156E+02 -2.70530E+03
  3.90704E+03 -2.40158E+03  5.13136E+03  6.51268E+02  3.46563E+03  4.71200E+03  8.82004E+02  6.26128E+03
 -5.22161E+03  5.91011E+03 -9.24258E+03  4.98205E+02 -7.79088E+03 -6.32415E+03 -1.17491E+03 -1.08206E+04
  5.65059E+03 -8.94296E+03  9.94571E+03 -3.33200E+03  1.00149E+04  2.97800E+03  5.26049E+03  7.56164E+03
  7.31919E+02  7.58877E+03 -3.93262E+03  6.62237E+03 -5.40158E+03  2.95559E+03 -4.55717E+03  1.19550E+03
 -2.59676E+03 -2.36327E+02 -2.83661E+03  1.18685E+03 -3.81905E+03  1.68408E+03 -6.53262E+03 -1.44652E+03
 -6.43285E+03 -4.21815E+03 -2.08187E+03 -7.72083E+03  4.07626E+03 -9.45783E+03  7.69231E+03 -4.50130E+03
  8.55918E+03  1.45832E+03  4.77542E+03  6.69082E+03 -6.02864E+02  8.41933E+03 -7.12876E+03  5.45543E+03
