 $NMID ID='MM_0lb_SNR400_14hz_g50_12.RAW', FMTDAT='(8E13.5)'
 TRAMP=1., VOLUME=1. $END
  3.09999E+05  5.03195E+02  3.37339E+05  2.51136E+05  8.40877E+04  3.38172E+05 -1.32745E+05  2.50617E+05
 -1.89732E+05  8.31401E+04 -1.11847E+05 -3.27079E+04  1.25812E+03 -5.03094E+04  5.39305E+04  2.93644E+02
  3.57566E+04  5.33590E+04 -1.71508E+04  7.57808E+04 -6.05368E+04  6.39049E+04 -8.35315E+04  3.15176E+04
 -8.05454E+04 -1.16113E+04 -5.76152E+04 -5.15095E+04 -1.50307E+04 -6.92090E+04  2.74005E+04 -4.57019E+04
  4.00250E+04  3.63774E+03  1.62974E+04  4.74148E+04 -3.42365E+04  4.73305E+04 -6.71396E+04  3.12574E+01
 -5.28785E+04 -5.71133E+04 -6.70743E+03 -7.73223E+04  3.36266E+04 -5.48456E+04  4.77770E+04 -1.73597E+04
  4.35391E+04  1.14077E+04  3.15599E+04  2.51552E+04  1.59831E+04  2.87936E+04 -5.26858E+03  2.76151E+04
 -2.24608E+04  1.21854E+04 -1.83777E+04 -4.95363E+03  5.51242E+03 -7.74196E+03  2.27421E+04  1.25250E+04
  7.59030E+03  3.56340E+04 -3.20431E+04  3.57070E+04 -6.26595E+04  1.90308E+03 -5.76590E+04 -4.22891E+04
 -1.23750E+04 -6.34144E+04  4.04609E+04 -4.52249E+04  5.85975E+04 -2.41489E+03  3.43170E+04  3.30175E+04
 -5.25804E+03  3.57530E+04 -3.02413E+04  1.60050E+04 -3.07124E+04 -4.96532E+03 -1.71999E+04 -1.10623E+04
 -8.68027E+03 -1.33414E+04 -7.50769E+02 -1.80364E+04  7.56627E+03 -2.27228E+04  1.56245E+04 -1.31018E+04
  1.09382E+04  5.34820E+03 -8.18432E+03  1.30850E+04 -2.17692E+04 -4.77150E+03 -7.98927E+03 -3.32666E+04
  2.24037E+04 -4.35470E+04  4.82355E+04 -1.96958E+04  4.54258E+04  1.94376E+04  1.53465E+04  4.47389E+04
 -1.60800E+04  3.33246E+04 -2.49926E+04  1.33303E+03 -9.24447E+03 -2.80401E+04  2.13285E+04 -3.41485E+04
  4.04493E+04 -8.89067E+03  3.55120E+04  2.41357E+04  1.87289E+04  4.63514E+04 -8.04608E+03  5.03428E+04
 -3.17615E+04  3.40517E+04 -4.14425E+04  9.78023E+03 -4.18843E+04 -1.67781E+04 -2.35519E+04 -3.74992E+04
  7.26485E+03 -3.75740E+04  3.18122E+04 -1.45422E+04  3.01510E+04  1.06796E+04  4.16078E+03  1.95994E+04
 -1.35739E+04  8.34845E+03 -9.78088E+03 -8.41651E+03  5.83661E+03 -1.11147E+04  1.78608E+04  5.69743E+03
  1.26296E+04  2.13805E+04 -5.55487E+03  2.48618E+04 -2.21452E+04  1.13671E+04 -2.80202E+04 -4.53237E+03
 -2.07887E+04 -1.75975E+04 -8.22908E+03 -2.11837E+04  4.02027E+03 -1.97938E+04  1.60225E+04 -1.77945E+04
  2.60804E+04 -1.31467E+04  3.28443E+04  2.81748E+03  2.42307E+04  1.98215E+04  4.30165E+03  3.64087E+04
 -1.73660E+04  3.00813E+04 -2.84912E+04  1.01894E+04 -2.06762E+04 -9.97404E+03 -4.36901E+03 -1.32956E+04
  1.68260E+03 -3.19076E+03 -5.04440E+03  6.52438E+03 -1.63651E+04  4.87397E+03 -1.67132E+04 -7.37025E+03
 -9.95470E+03 -1.91692E+04  4.82182E+03 -2.33744E+04  1.57710E+04 -1.64850E+04  1.83704E+04 -1.31930E+03
  1.14803E+04  1.29944E+04 -1.47135E+03  1.89795E+04 -1.37610E+04  1.04532E+04 -1.88055E+04 -3.76248E+03
 -1.47856E+04 -1.71518E+04 -1.23241E+03 -2.31323E+04  1.05424E+04 -1.87484E+04  1.93953E+04 -9.11810E+03
  1.80774E+04  4.68852E+02  1.27942E+04  4.90115E+03  7.35827E+03  6.03321E+02  9.45288E+03 -2.15715E+03
  1.73688E+04  3.61901E+03  1.91863E+04  1.53620E+04  1.27412E+04  3.00046E+04 -2.90240E+03  3.44325E+04
 -2.01988E+04  2.70609E+04 -3.17731E+04  1.38964E+04 -3.33958E+04 -3.19005E+03 -2.83288E+04 -1.93220E+04
 -1.21024E+04 -2.74060E+04  9.81851E+03 -2.52495E+04  2.20475E+04 -1.26878E+04  1.88230E+04  4.97315E+03
  7.51932E+03  1.49426E+04 -8.94102E+03  1.27390E+04 -1.58914E+04  2.56563E+03 -1.27010E+04 -9.93653E+03
  2.09618E+02 -1.51837E+04  7.76366E+03 -1.21617E+04  9.72181E+03 -9.20874E+02  2.65719E+03  6.45169E+03
 -7.23769E+03  2.18635E+03 -5.97068E+03 -6.12182E+03 -6.78844E+02 -1.41096E+04  9.66893E+03 -1.44722E+04
  1.62759E+04 -6.49839E+03  1.82658E+04  3.50415E+03  1.53181E+04  1.36950E+04  7.30028E+03  1.99815E+04
 -3.78574E+03  2.20626E+04 -1.41634E+04  1.40391E+04 -1.58257E+04  3.72048E+03 -1.12773E+04 -3.55652E+03
 -5.25940E+03 -5.46638E+03 -2.06656E+02  9.84618E+02 -2.26498E+03  2.80348E+03 -5.09155E+03  4.91743E+03
 -1.06338E+04 -1.14591E+03 -1.15219E+04 -8.73138E+03 -4.41226E+03 -1.48219E+04  4.82647E+03 -1.14575E+04
  9.95452E+03 -4.33223E+03  7.10421E+03  3.18011E+03  6.55850E+02  4.20411E+03 -5.76981E+03  7.12320E+02
 -5.05298E+03 -7.48209E+03 -7.72261E+02 -1.04065E+04  6.25465E+03 -1.15529E+04  1.45495E+04 -6.18519E+03
  1.63319E+04  1.13917E+03  1.28473E+04  9.16763E+03  2.10737E+03  1.30717E+04 -6.94195E+03  1.11020E+04
 -9.52753E+03  2.89106E+03 -5.33278E+03 -1.54277E+03  2.33113E+03 -3.53564E+03  6.16465E+03 -9.14317E+02
  5.70708E+03  5.21117E+03  1.44160E+03  7.87059E+03 -6.26128E+03  8.55860E+03 -1.07692E+04  2.15435E+03
 -7.33110E+03 -5.73012E+03  9.08846E+02 -9.39000E+03  6.04197E+03 -5.10463E+03  5.83007E+03  2.22022E+03
  1.44850E+03  6.55433E+03 -6.05564E+03  7.45340E+03 -7.84668E+03  3.43105E+03 -8.21868E+03 -2.35046E+03
 -4.92416E+03 -9.59860E+03  2.85337E+03 -1.17190E+04  9.74069E+03 -7.08641E+03  1.03391E+04  2.03613E+03
  6.09807E+03  7.83358E+03 -4.30664E+02  1.09295E+04 -7.16460E+03  6.06683E+03 -8.14469E+03 -2.88113E+02
 -8.23360E+03 -7.62342E+03 -1.18993E+03 -7.52842E+03  4.11771E+03 -6.34672E+03  4.11335E+03 -2.61963E+03
  3.92801E+03  1.08390E+03  2.04962E+02  1.63549E+03  7.94371E+02 -1.24359E+03  1.64807E+03 -3.83928E+03
  6.86352E+03 -2.13879E+03  9.27237E+03  1.42778E+03  9.53199E+03  6.32743E+03  7.22794E+03  1.18930E+04
 -2.25819E+03  1.46300E+04 -1.27134E+04  1.05925E+04 -1.57719E+04  1.79915E+03 -1.30790E+04 -4.85717E+03
 -6.31314E+03 -1.03058E+04 -2.73319E+02 -9.17625E+03  3.29948E+03 -4.01762E+03  2.87107E+03 -2.91168E+03
  1.71654E+03 -1.90230E+03  3.01189E+03 -3.32586E+03  5.22892E+03 -2.83553E+03  5.39307E+03 -8.19891E+02
  6.50520E+03  2.00142E+03  2.57238E+03  5.32598E+03 -1.66806E+03  5.83087E+03 -7.31207E+03  4.47602E+03
 -8.56017E+03 -1.07860E+03 -4.63937E+03 -5.30021E+03 -2.94151E+02 -9.06522E+03  5.03034E+03 -9.63808E+03
  9.04321E+03 -5.12514E+03  1.06983E+04  7.52773E+02  7.64763E+03  7.13113E+03  1.84852E+03  1.02048E+04
 -4.30803E+03  9.53182E+03 -6.07401E+03  3.34789E+03 -3.87292E+03 -1.04115E+03 -4.55230E+02 -7.16910E+02
 -4.77899E+02 -1.99934E+01 -8.60621E+02  2.11721E+03 -4.31637E+03  1.44450E+03 -6.66944E+03 -1.33770E+03
 -3.24702E+03 -5.20881E+03  1.59552E+02 -8.26895E+03  4.87999E+03 -7.45254E+03  6.93476E+03 -2.15868E+03
  7.84817E+03  3.98486E+03  3.82315E+03  6.86329E+03 -1.03667E+03  8.09156E+03 -5.31953E+03  5.11607E+03
 -7.39206E+03  8.75774E+02 -5.54859E+03 -5.12707E+03 -9.33260E+01 -6.38942E+03  3.91139E+03 -4.70487E+03
  4.75975E+03 -1.89471E+03  3.31231E+03  7.61186E+02  2.01293E+03  2.55672E+03  5.35391E+02  1.00474E+03
  1.97123E+03  1.29192E+03  1.57899E+03  1.82960E+03  2.00288E+03  2.71561E+03  2.21955E+03  4.00238E+03
 -2.25235E+03  5.39462E+03 -4.73973E+03  6.61531E+03 -7.46470E+03  1.42167E+03 -8.22515E+03 -2.27226E+03
 -3.70087E+03 -8.35269E+03  6.77862E+02 -8.75327E+03  4.25530E+03 -5.55569E+03  5.77585E+03 -1.61513E+03
  4.63684E+03  2.83428E+03  8.72695E+02  3.56783E+03 -2.00647E+03  2.47468E+03 -3.22809E+03 -6.35032E+02
 -1.58061E+03 -3.34237E+03  2.21286E+03 -3.15057E+03  3.33371E+03 -1.78895E+03  2.62283E+03  6.07983E+02
  1.27877E+03  1.65652E+03  8.58781E+02  8.56421E+02 -6.89258E+02  7.31493E+02  1.47742E+03 -5.57849E+02
  7.47683E+02 -5.04447E+02  3.45803E+03  1.29933E+03  1.57711E+03  4.66936E+03 -5.03019E+02  5.34915E+03
 -3.60922E+03  3.25441E+03 -4.70307E+03  9.29375E+02 -4.55549E+03 -1.77462E+03 -7.60662E+02 -2.96299E+03
  5.25386E+02 -4.03367E+03  1.88318E+03 -1.35627E+03  1.20201E+03  2.04350E+03 -1.02481E+03  2.16364E+03
 -2.80204E+03  1.61682E+03 -2.31353E+03 -2.93457E+03 -1.41092E+03 -3.85788E+03  8.20279E+02 -3.76824E+03
  1.65676E+03 -1.61355E+03  2.48894E+03  4.74093E+02  2.82612E+03  6.35420E+02  5.40160E+02  2.47519E+03
 -1.15327E+03  4.98890E+02 -1.58186E+03 -1.25566E+03  1.02138E+03 -2.34220E+03  3.03772E+03 -2.38386E+03
  3.57352E+03  1.34815E+02  4.51001E+03  2.57268E+03  1.84228E+03  3.45273E+03 -1.87696E+03  4.26798E+03
 -2.66618E+03  1.55186E+03 -3.58059E+03 -6.09373E+02 -1.76862E+03 -3.11066E+03  9.64677E+02 -2.41892E+03
  2.91350E+03 -1.29750E+03  1.65801E+03  1.47103E+03  1.03626E+03  2.80892E+03 -1.49879E+02  2.40513E+03
 -1.11135E+03  1.50945E+03 -1.44157E+03  2.53217E+02 -1.54403E+02  1.03400E+03 -1.46157E+03  8.77397E+02
 -7.67571E+02  1.83384E+03 -3.32543E+03  1.68464E+03 -4.28423E+03 -2.91815E+00 -4.42760E+03 -2.60666E+03
 -3.07297E+03 -5.51934E+03  7.51608E+02 -6.57248E+03  3.62916E+03 -4.89835E+03  6.29813E+03 -2.49323E+03
  5.44463E+03  8.11739E+02  3.39349E+03  4.01285E+03 -2.50082E+02  3.71417E+03 -1.00643E+03  2.97156E+03
 -2.09680E+03  1.40747E+03 -1.08518E+03 -3.07725E+02 -5.49296E+02  8.34983E+01 -5.93783E+02 -4.42929E+02
 -1.15655E+03 -5.36178E+01 -8.13994E+02  2.74587E+02 -2.34168E+02 -1.03141E+03 -6.31273E+01 -1.36551E+03
  2.88858E+03 -1.00325E+03  1.81349E+03  6.05633E+02  3.16620E+03  2.39404E+03  9.34862E+02  3.77461E+03
 -1.73392E+03  5.10395E+03 -4.13448E+03  2.91266E+03 -4.71603E+03 -4.67022E+02 -3.68817E+03 -3.21954E+03
 -1.58629E+03 -3.89837E+03  5.49371E+02 -3.56751E+03  1.65738E+03 -1.43286E+03  2.57071E+03  1.76282E+02
  1.53333E+03  1.03279E+03 -7.81965E+01  1.26510E+03 -5.35917E+02 -3.25776E+02  8.43646E+02 -9.80685E+02
  1.17923E+03 -4.74297E+02  1.13440E+03  9.50107E+02  7.82486E+02  1.30463E+03  5.19795E+02  1.93313E+03
 -1.78699E+03  1.95051E+03 -2.09126E+03  7.53288E+02 -2.23445E+03 -1.81187E+03  1.65561E+02 -3.64129E+03
  1.53681E+03 -2.04057E+03  2.44587E+03 -2.11367E+02  2.73426E+03  6.62669E+02  1.50388E+03  1.96842E+03
  4.79045E+02  2.71009E+03 -1.42077E+03  1.70509E+03 -1.64506E+03  1.06742E+03 -6.06327E+02 -7.24143E+02
 -6.40009E+02 -6.32950E+02 -1.32406E+03  3.76523E+02 -1.72485E+03  7.11621E+02 -1.74532E+03 -3.73054E+02
 -1.72597E+03 -1.07205E+03 -2.45691E+02 -2.73709E+03  1.34203E+03 -2.71289E+03  2.05652E+03 -1.29935E+03
  2.11933E+03  1.49854E+02  4.58256E+02  1.48544E+03 -2.48550E+02  1.93676E+03 -1.64149E+03  1.63053E+03
