 $NMID ID='MM_0lb_SNR400_20hz_g40_35.RAW', FMTDAT='(8E13.5)'
 TRAMP=1., VOLUME=1. $END
  3.09851E+05  3.18737E+02  3.37102E+05  2.50452E+05  8.34828E+04  3.37453E+05 -1.32532E+05  2.49651E+05
 -1.89109E+05  8.17308E+04 -1.10563E+05 -3.27774E+04  1.73220E+03 -4.99845E+04  5.43401E+04  4.01987E+02
  3.50478E+04  5.28861E+04 -1.71278E+04  7.45620E+04 -5.97505E+04  6.24489E+04 -8.21445E+04  3.14740E+04
 -7.91413E+04 -1.08647E+04 -5.53749E+04 -4.95038E+04 -1.48270E+04 -6.76922E+04  2.61950E+04 -4.41982E+04
  3.89545E+04  3.57982E+03  1.54453E+04  4.63058E+04 -3.36993E+04  4.54755E+04 -6.46094E+04 -6.31602E+02
 -5.10798E+04 -5.55187E+04 -5.78783E+03 -7.41257E+04  3.25169E+04 -5.21264E+04  4.55471E+04 -1.57849E+04
  4.04205E+04  1.13005E+04  3.03254E+04  2.34850E+04  1.51653E+04  2.78333E+04 -5.15851E+03  2.59481E+04
 -2.16864E+04  1.30468E+04 -1.93509E+04 -3.66953E+03  3.58846E+03 -7.40595E+03  2.03350E+04  1.03387E+04
  7.46292E+03  3.24037E+04 -2.99976E+04  3.35876E+04 -5.99041E+04  1.63659E+03 -5.47652E+04 -4.04271E+04
 -1.22386E+04 -5.91756E+04  3.72290E+04 -4.22072E+04  5.40036E+04 -1.41854E+03  3.04772E+04  2.96992E+04
 -7.10809E+03  3.16175E+04 -2.77087E+04  1.23119E+04 -2.62199E+04 -6.04920E+03 -1.32106E+04 -9.89317E+03
 -6.94603E+03 -1.09293E+04 -1.14085E+03 -1.59434E+04  6.44373E+03 -2.27557E+04  1.44682E+04 -1.43966E+04
  1.26567E+04  3.60513E+03 -5.15156E+03  1.25834E+04 -1.84065E+04 -1.32282E+03 -7.57838E+03 -2.85607E+04
  1.96103E+04 -3.87748E+04  4.26905E+04 -1.77763E+04  4.02289E+04  1.80275E+04  1.31849E+04  4.09504E+04
 -1.46782E+04  3.03080E+04 -2.25956E+04  6.14642E+02 -7.69166E+03 -2.57922E+04  2.04834E+04 -3.03425E+04
  3.65895E+04 -6.51638E+03  2.95501E+04  2.25070E+04  1.42844E+04  4.01228E+04 -7.97439E+03  4.26625E+04
 -2.76309E+04  2.77250E+04 -3.45300E+04  7.62484E+03 -3.66602E+04 -1.41411E+04 -2.02962E+04 -3.23201E+04
  6.62749E+03 -3.27497E+04  2.81790E+04 -1.18888E+04  2.52948E+04  1.06063E+04  2.63791E+03  1.64069E+04
 -1.30103E+04  6.38716E+03 -8.95663E+03 -7.58805E+03  6.08670E+03 -9.60277E+03  1.66492E+04  7.14027E+03
  1.27672E+04  2.12512E+04 -7.16054E+03  2.17701E+04 -2.09577E+04  8.40139E+03 -2.39973E+04 -6.60284E+03
 -1.48822E+04 -1.63756E+04 -4.99682E+03 -1.53623E+04  3.66020E+03 -1.25859E+04  1.09157E+04 -1.21376E+04
  1.89851E+04 -1.09026E+04  2.59842E+04  1.91111E+02  2.00627E+04  1.47822E+04  3.89124E+03  3.08802E+04
 -1.52537E+04  2.62034E+04 -2.53050E+04  8.80080E+03 -1.89927E+04 -1.05605E+04 -3.67229E+03 -1.39196E+04
  2.87153E+03 -4.80986E+03 -2.10482E+03  5.09104E+03 -1.13700E+04  5.01865E+03 -1.18136E+04 -3.55424E+03
 -8.25774E+03 -1.41226E+04  4.26531E+03 -1.77819E+04  1.16498E+04 -1.29626E+04  1.28387E+04 -1.02986E+03
  8.11252E+03  9.34354E+03 -6.99350E+02  1.42927E+04 -9.20848E+03  7.73308E+03 -1.39472E+04 -3.65566E+03
 -1.01486E+04 -1.28258E+04 -1.24480E+03 -1.73294E+04  7.87377E+03 -1.39034E+04  1.41140E+04 -6.37097E+03
  1.32990E+04  1.30757E+03  9.84037E+03  3.34268E+03  4.54056E+03  1.38951E+02  6.99463E+03 -1.23501E+03
  1.19865E+04  2.35970E+03  1.34167E+04  1.17038E+04  7.93066E+03  2.22700E+04 -3.01251E+03  2.40345E+04
 -1.46994E+04  1.74753E+04 -2.11794E+04  7.94284E+03 -2.18413E+04 -1.54696E+03 -1.93187E+04 -1.19490E+04
 -9.36214E+03 -1.74908E+04  5.53894E+03 -1.64777E+04  1.47097E+04 -9.71206E+03  1.38841E+04  3.11892E+03
  6.28146E+03  9.62567E+03 -6.46761E+03  9.81365E+03 -1.22716E+04  2.64946E+03 -9.50093E+03 -6.88269E+03
  2.22258E+02 -1.10686E+04  6.03666E+03 -9.10699E+03  7.12322E+03 -1.22569E+03  8.38452E+02  4.10123E+03
 -5.12490E+03  5.59146E+02 -3.09997E+03 -4.25228E+03  9.17849E+02 -8.23467E+03  7.21676E+03 -8.82252E+03
  1.08435E+04 -3.56324E+03  1.00309E+04  2.47692E+03  8.39113E+03  7.79082E+03  4.72905E+03  1.17582E+04
 -9.20472E+02  1.34165E+04 -8.16757E+03  9.21543E+03 -9.37016E+03  2.24094E+03 -6.79260E+03 -1.39148E+03
 -4.10736E+03 -2.65955E+03 -8.42290E+02  1.52608E+03 -2.15287E+03  1.90774E+03 -3.48481E+03  3.87417E+03
 -6.53157E+03 -7.09705E+02 -8.09937E+03 -6.28949E+03 -3.21315E+03 -1.01755E+04  3.30262E+03 -7.76315E+03
  6.59846E+03 -3.51310E+03  4.51761E+03  1.36152E+03  7.76824E+02  2.51320E+03 -2.45046E+03  5.61431E+01
 -2.91362E+03 -4.88637E+03 -4.44493E+02 -5.58711E+03  3.01034E+03 -6.74671E+03  8.44640E+03 -3.61718E+03
  1.00440E+04  4.22739E+02  7.69412E+03  4.59102E+03  1.89333E+03  7.62796E+03 -4.60099E+03  7.31129E+03
 -6.42277E+03  2.57502E+03 -3.37892E+03 -1.01985E+03  1.03864E+03 -1.45360E+03  4.12622E+03 -1.33359E+03
  3.54896E+03  2.81323E+03  1.27698E+03  5.05677E+03 -4.07713E+03  6.01091E+03 -6.68025E+03  1.80116E+03
 -4.08253E+03 -2.77224E+03  1.72355E+01 -6.27341E+03  3.14597E+03 -2.34769E+03  2.73545E+03  8.10612E+02
 -3.69614E+02  2.65239E+03 -3.48847E+03  4.08627E+03 -4.11646E+03  1.69076E+03 -3.22947E+03 -7.32192E+02
 -1.75772E+03 -4.80784E+03  1.00014E+03 -5.64258E+03  4.98579E+03 -3.95889E+03  5.56759E+03  3.52914E+02
  4.49470E+03  4.72220E+03  4.11200E+02  5.62125E+03 -3.88704E+03  3.56330E+03 -4.46129E+03 -2.39161E+02
 -5.22591E+03 -4.65459E+03 -1.58432E+03 -4.05798E+03  2.53448E+03 -3.72420E+03  2.15638E+03 -2.63276E+03
  2.36069E+03  6.55203E+00 -2.79808E+02  1.29338E+03  9.71723E+02  3.93472E+02 -1.38401E+02 -1.23496E+03
  3.25054E+03 -4.63594E+02  3.74921E+03  6.21640E+02  4.77765E+03  2.55082E+03  4.45509E+03  5.44885E+03
 -8.34301E+02  6.72678E+03 -6.48829E+03  5.59677E+03 -8.33693E+03  7.91095E+02 -6.41158E+03 -2.05752E+03
 -3.42971E+03 -5.15754E+03  2.38512E+02 -4.12495E+03  2.56515E+03 -1.12754E+03  1.35480E+03 -1.90290E+03
  9.61810E+02 -1.19623E+03  1.84546E+03 -2.17227E+03  3.32590E+03 -8.85893E+02  3.30913E+03  3.56625E+02
  3.76438E+03  1.57925E+03  7.27977E+02  2.73046E+03 -1.46852E+03  1.86167E+03 -3.40896E+03  2.08202E+03
 -4.22232E+03 -3.78180E+02 -1.05665E+03 -2.58666E+03  1.75900E+02 -3.99481E+03  2.50913E+03 -4.41998E+03
  3.75915E+03 -2.24181E+03  5.73748E+03 -4.06829E+01  3.87549E+03  3.17614E+03  8.42668E+02  4.73552E+03
 -1.74590E+03  5.15593E+03 -3.21103E+03  1.64646E+03 -1.40193E+03 -3.22732E+02 -2.26176E+02 -7.67415E+02
 -4.53647E+02  6.57643E+02 -7.39305E+02  1.49148E+03 -2.50792E+03  1.21010E+03 -3.57019E+03  1.62629E+02
 -1.11147E+03 -3.52474E+03  9.78644E+02 -4.23981E+03  2.33172E+03 -4.07093E+03  2.47800E+03 -8.82503E+02
  3.29105E+03  2.04462E+03  1.46094E+03  2.70022E+03 -1.17205E+03  3.13566E+03 -2.03815E+03  2.04567E+03
 -2.56539E+03  8.57978E+02 -2.71397E+03 -2.10227E+03 -4.20571E+02 -2.53533E+03  1.31597E+03 -1.94556E+03
  2.29026E+03 -1.25762E+03  1.36270E+03  3.83809E+01  1.96055E+02  1.78411E+03  1.15171E+03  3.36154E+02
  1.44256E+03  2.60457E+02  1.39925E+03  9.31793E+02  8.62307E+02  2.05505E+03  1.03267E+03  1.10974E+03
 -1.32512E+03  1.85332E+03 -2.03470E+03  3.17356E+03 -2.06111E+03  1.60740E+03 -3.13224E+03  2.11636E+02
 -9.01084E+02 -3.03398E+03  6.72734E+02 -3.52558E+03  1.42146E+03 -2.00979E+03  2.44412E+03 -4.13380E+02
  1.93488E+03  1.30487E+03  2.40048E+02  2.04343E+03 -1.81920E+02  9.34914E+02 -9.15057E+01  3.72486E+02
 -5.72017E+02 -9.78503E+02  1.39245E+03 -1.22542E+03  8.99399E+02 -7.25218E+02  8.72141E+02 -1.66506E+02
  5.67449E+02  2.00968E+02  7.67500E+02 -5.22502E+02 -3.15394E+02  6.02410E+02  1.63451E+03 -3.81985E+02
 -1.58501E+02 -9.99927E+01  1.30612E+03  1.54619E+02  3.59448E+02  1.89378E+03  3.41143E+02  2.22447E+03
 -1.48050E+03  7.96711E+02 -1.59735E+03 -9.71694E+01 -1.65895E+03 -7.14377E+02 -1.76386E+02 -5.42540E+02
  2.33534E+02 -9.81213E+02  3.59141E+02 -1.14200E+02  5.11139E+02  1.09141E+03 -7.26891E+02  9.13528E+02
 -1.61211E+03  1.30635E+03 -7.04238E+02 -5.97088E+02 -7.30734E+02 -2.00752E+03  7.08085E+01 -1.30772E+03
  7.91679E+01 -4.38611E+01  3.14523E+02  6.51965E+01  1.31375E+03 -4.20526E+02  3.78349E+02  3.93425E+02
 -1.05057E+01 -3.22846E+02 -1.71815E+02 -1.59309E+02  3.59152E+02 -8.25425E+02  1.30681E+03 -2.75072E+02
  7.23873E+02 -3.04006E+02  2.53674E+03  2.10108E+02  1.12882E+03  1.27664E+03  2.27277E+01  1.53262E+03
 -1.18449E+03  9.07971E+01 -6.73575E+02  2.54285E+02 -8.93398E+02 -1.56076E+03  3.70577E+02 -3.48975E+02
  1.14628E+03 -6.93071E+02  9.11841E+02  2.99690E+02  7.35485E+01  6.66789E+02 -2.99535E+02  7.51178E+02
 -1.58933E+02  1.08615E+03 -1.14644E+02  1.19746E+02 -1.62174E+02  2.56065E+02 -4.95163E+02  2.76868E+02
 -6.13183E+00  8.87283E+02 -1.91431E+03  5.77010E+02 -1.03824E+03 -1.70441E+02 -1.73828E+03 -5.04564E+02
 -9.58365E+02 -2.37320E+03  2.09775E+02 -1.70959E+03  5.42958E+02 -1.60295E+03  1.94097E+03 -9.66978E+02
  1.61387E+03 -3.20433E+02  1.28019E+03  1.29425E+03 -3.00194E+02  1.25881E+03 -5.22806E+02  7.40707E+02
 -2.59070E+02  4.84750E+02 -5.30214E+02 -5.79040E+02 -3.78320E+00  4.58924E+02 -4.60856E+02  2.30832E+02
 -1.11539E+03 -3.97673E+02 -5.93792E+02  2.19539E+01  2.39674E+02 -5.22974E+02 -3.55652E+02 -1.13232E+03
  9.57889E+02 -1.87754E+02  5.48863E+02  1.78056E+02  6.79163E+02  7.74307E+02 -9.37874E+02  1.42301E+03
 -4.35753E+02  1.65114E+03 -9.86488E+02  1.53051E+03 -1.20218E+03 -3.69655E+02 -3.97541E+02 -4.11905E+02
 -6.80387E+02 -1.03929E+03  2.17358E+02 -6.91750E+02  3.95973E+02 -1.04298E+02  4.71373E+01  2.09602E+02
  1.22040E+02  1.06614E+02  1.56896E+02  4.11518E+02 -5.43057E+02  2.79247E+02 -2.67174E+02 -2.44773E+02
  2.12306E+02  4.11415E+02  9.04155E+00  5.34140E+02 -7.76432E+02  2.19475E+02 -2.42456E+01  1.13918E+02
 -5.27379E+02 -1.25989E+02 -7.00628E+01 -2.43309E+01 -3.24776E+02 -5.06844E+02  3.38215E+02 -4.04625E+02
  3.01208E+02 -8.21598E+02 -1.49314E+01  6.24492E+02  2.59869E+02 -2.69890E+02  4.91943E+01  4.30875E+02
  8.47898E+02  6.32523E+02  3.96959E+02  3.91428E+02 -2.63877E+02  7.79439E+02 -6.57308E+02 -8.05561E+02
 -3.36050E+02  4.78453E+01 -4.73021E+02 -3.64703E+02 -8.73796E+02  3.73360E+02 -1.07173E+03 -4.85443E+01
 -5.95131E+02  1.38779E+02 -2.98445E+02 -6.65626E+02  4.99325E+02 -1.04878E+03  2.26894E+02  1.82420E+01
 -2.04329E+02 -2.03377E+02 -4.68528E+02 -1.19931E+02  6.03358E+02  7.72038E+02 -8.11495E+01  6.28234E+02
