 $NMID ID='MM_0lb_SNR400_7hz_g55_71.RAW', FMTDAT='(8E13.5)'
 TRAMP=1., VOLUME=1. $END
  3.10528E+05  5.70993E+02  3.37797E+05  2.51461E+05  8.52711E+04  3.39508E+05 -1.33617E+05  2.52455E+05
 -1.91294E+05  8.46034E+04 -1.13563E+05 -3.23079E+04 -9.15997E+02 -5.05217E+04  5.40669E+04 -4.77528E+02
  3.55951E+04  5.30710E+04 -1.69614E+04  7.64433E+04 -6.12251E+04  6.49789E+04 -8.56924E+04  3.26208E+04
 -8.39075E+04 -1.15477E+04 -5.87219E+04 -5.25279E+04 -1.64332E+04 -7.13919E+04  2.82884E+04 -4.69607E+04
  4.16771E+04  2.89126E+03  1.66745E+04  4.87642E+04 -3.52764E+04  4.90262E+04 -6.84785E+04  3.65664E+02
 -5.57892E+04 -5.83803E+04 -6.98438E+03 -8.09139E+04  3.58709E+04 -5.83965E+04  5.09135E+04 -1.89263E+04
  4.63004E+04  1.24524E+04  3.30680E+04  2.81681E+04  1.54729E+04  3.16013E+04 -6.37281E+03  2.85533E+04
 -2.26593E+04  1.16052E+04 -1.76091E+04 -5.61283E+03  7.22411E+03 -8.92157E+03  2.43429E+04  1.55679E+04
  7.46077E+03  3.87927E+04 -3.40081E+04  3.73605E+04 -6.66617E+04  2.78037E+03 -5.95691E+04 -4.57308E+04
 -1.14984E+04 -6.75333E+04  4.25033E+04 -4.89179E+04  6.26530E+04 -2.39873E+03  3.73324E+04  3.54743E+04
 -5.24961E+03  4.18801E+04 -3.24762E+04  1.99671E+04 -3.50680E+04 -1.54648E+03 -2.00219E+04 -1.09642E+04
 -1.05871E+04 -1.59974E+04 -7.34963E+02 -2.01620E+04  9.53079E+03 -2.32957E+04  1.61706E+04 -1.27181E+04
  1.08052E+04  5.87610E+03 -1.19302E+04  1.24666E+04 -2.45157E+04 -8.03828E+03 -7.44881E+03 -3.92836E+04
  2.64153E+04 -4.81669E+04  5.42320E+04 -2.07974E+04  4.99074E+04  2.11615E+04  1.72579E+04  4.89311E+04
 -1.66780E+04  3.78037E+04 -2.84455E+04  2.77140E+03 -1.27261E+04 -3.04741E+04  2.14189E+04 -3.80672E+04
  4.68424E+04 -1.17738E+04  4.25839E+04  2.52107E+04  2.31153E+04  5.30843E+04 -8.07864E+03  5.83063E+04
 -3.72307E+04  4.03980E+04 -5.04333E+04  1.13178E+04 -4.92132E+04 -1.94396E+04 -2.76970E+04 -4.47539E+04
  7.52615E+03 -4.41477E+04  3.56616E+04 -1.84036E+04  3.28494E+04  1.08408E+04  6.43234E+03  2.17159E+04
 -1.43727E+04  9.73764E+03 -1.12180E+04 -7.95037E+03  5.13896E+03 -1.20616E+04  1.91716E+04  5.82974E+03
  1.55476E+04  2.25204E+04 -4.17810E+03  2.82555E+04 -2.30706E+04  1.59461E+04 -3.25194E+04 -2.57924E+03
 -2.84660E+04 -1.90722E+04 -1.37193E+04 -2.72485E+04  5.04127E+03 -2.86599E+04  2.21040E+04 -2.54509E+04
  3.50426E+04 -1.51355E+04  4.06165E+04  6.49608E+03  2.80486E+04  2.66201E+04  4.46571E+03  4.33021E+04
 -2.00410E+04  3.56809E+04 -3.20302E+04  1.23024E+04 -2.36251E+04 -1.03354E+04 -4.95121E+03 -1.30398E+04
  1.59403E+03 -4.79669E+01 -9.47231E+03  8.64187E+03 -2.13611E+04  5.19582E+03 -2.19486E+04 -1.04144E+04
 -1.32251E+04 -2.64379E+04  5.56210E+03 -2.97903E+04  2.13366E+04 -2.10931E+04  2.53172E+04 -1.10284E+03
  1.59128E+04  1.70375E+04 -1.86736E+03  2.58343E+04 -1.90182E+04  1.51205E+04 -2.61073E+04 -5.31736E+03
 -1.87767E+04 -2.38385E+04 -2.26022E+03 -3.03441E+04  1.37043E+04 -2.57430E+04  2.52862E+04 -1.33609E+04
  2.41679E+04 -5.14246E+02  1.75316E+04  5.75453E+03  1.05521E+04  1.88990E+03  1.41301E+04 -2.43152E+03
  2.46902E+04  2.81065E+03  2.88996E+04  1.95107E+04  2.06754E+04  4.08637E+04 -3.07899E+03  4.98374E+04
 -2.92047E+04  4.22991E+04 -4.71428E+04  2.34122E+04 -5.10481E+04 -3.84412E+03 -4.14700E+04 -2.89610E+04
 -1.57096E+04 -4.15536E+04  1.54185E+04 -3.72322E+04  3.13054E+04 -1.67520E+04  2.63393E+04  8.82254E+03
  9.07547E+03  2.21856E+04 -1.36203E+04  1.62562E+04 -2.23434E+04  2.42801E+03 -1.67518E+04 -1.52316E+04
 -1.11466E+03 -2.06011E+04  1.21244E+04 -1.52050E+04  1.50486E+04 -1.60145E+03  3.83785E+03  1.09965E+04
 -9.30453E+03  4.92397E+03 -9.51467E+03 -8.01189E+03 -2.68342E+03 -2.09009E+04  1.38517E+04 -2.17774E+04
  2.63453E+04 -1.38041E+04  3.05596E+04  3.89368E+03  2.68577E+04  2.16281E+04  1.19862E+04  3.49932E+04
 -7.80035E+03  3.62973E+04 -2.42603E+04  2.17218E+04 -2.67367E+04  4.46561E+03 -1.85138E+04 -7.25929E+03
 -7.69655E+03 -8.37208E+03 -1.78810E+03 -2.56141E+02 -3.23058E+03  4.10104E+03 -8.28821E+03  5.88427E+03
 -1.61204E+04 -1.22772E+03 -1.68737E+04 -1.47808E+04 -7.43089E+03 -2.20856E+04  6.46223E+03 -1.87121E+04
  1.44082E+04 -8.25678E+03  1.04957E+04  3.75677E+03 -6.46132E+01  7.11965E+03 -9.88413E+03  7.40178E+02
 -8.76926E+03 -1.17125E+04 -1.17980E+03 -1.86339E+04  1.14983E+04 -1.96208E+04  2.36348E+04 -1.03352E+04
  2.66285E+04  2.21346E+03  2.02162E+04  1.64228E+04  5.21596E+03  2.17664E+04 -1.11974E+04  1.74800E+04
 -1.46818E+04  5.40300E+03 -7.70081E+03 -4.56953E+03  2.82974E+03 -4.64106E+03  9.44451E+03 -1.33423E+03
  8.56336E+03  8.02331E+03  2.58348E+03  1.53721E+04 -1.10889E+04  1.36400E+04 -1.72111E+04  2.94637E+03
 -1.29479E+04 -9.58271E+03 -2.56563E+01 -1.56450E+04  1.09341E+04 -6.86002E+03  1.21030E+04  4.77183E+03
  3.74542E+03  1.31630E+04 -1.03828E+04  1.36270E+04 -1.65120E+04  6.02009E+03 -1.69690E+04 -6.22068E+03
 -1.02004E+04 -1.90450E+04  4.90554E+03 -2.17892E+04  1.90154E+04 -1.26093E+04  2.05974E+04  4.15709E+03
  1.25273E+04  1.68603E+04 -2.89119E+03  1.97127E+04 -1.47900E+04  1.03790E+04 -1.59595E+04 -1.22466E+03
 -1.31946E+04 -1.20845E+04 -1.58165E+03 -1.53714E+04  7.17859E+03 -1.14161E+04  1.03532E+04 -4.30853E+03
  5.44797E+03  3.08338E+03 -9.66655E+02  1.77986E+03 -5.14147E+02 -4.47436E+03  3.01592E+03 -1.03571E+04
  1.48778E+04 -6.35991E+03  1.97210E+04  2.78144E+03  2.03960E+04  1.33743E+04  1.23811E+04  2.63739E+04
 -5.96662E+03  3.03599E+04 -2.39667E+04  2.29244E+04 -3.22097E+04  3.88553E+03 -2.63509E+04 -1.15924E+04
 -1.31652E+04 -2.09434E+04 -8.61852E+02 -1.85384E+04  6.48547E+03 -1.10317E+04  6.89962E+03 -6.97461E+03
  4.95958E+03 -3.72257E+03  5.13637E+03 -4.49825E+03  7.67607E+03 -4.55164E+03  1.06393E+04 -2.51421E+03
  1.38689E+04  3.28763E+03  7.71143E+03  1.10309E+04 -3.29842E+03  1.44988E+04 -1.36263E+04  1.15001E+04
 -1.79450E+04 -1.68210E+03 -1.19647E+04 -1.37483E+04 -1.99336E+03 -2.09229E+04  1.13936E+04 -2.03014E+04
  2.06351E+04 -1.13975E+04  2.50801E+04  4.31553E+03  1.63098E+04  1.77384E+04  2.19885E+03  2.27668E+04
 -9.43378E+03  1.80307E+04 -1.28056E+04  5.70109E+03 -8.51307E+03 -2.12961E+03 -4.30233E+03 -2.90901E+03
 -2.50378E+03 -7.57504E+02 -2.92524E+03  3.32170E+03 -7.22102E+03  2.20193E+03 -1.35294E+04 -2.03693E+03
 -1.01204E+04 -1.26947E+04 -4.62701E+02 -1.95945E+04  1.22507E+04 -1.78271E+04  1.90702E+04 -5.23336E+03
  1.95158E+04  8.88886E+03  9.47888E+03  1.69001E+04 -4.84698E+03  1.90112E+04 -1.40601E+04  1.25507E+04
 -1.91773E+04  6.28634E+02 -1.39883E+04 -1.18685E+04 -2.67926E+03 -1.69525E+04  8.89467E+03 -1.10837E+04
  1.16054E+04 -3.92771E+03  9.07352E+03  3.55461E+03  3.59249E+03  5.39513E+03  2.12680E+03  2.82179E+03
  3.03995E+03  1.05632E+03  5.50900E+03  2.46015E+03  6.27657E+03  6.30028E+03  5.16717E+03  1.11126E+04
 -3.41060E+03  1.54935E+04 -1.39616E+04  1.50142E+04 -2.09876E+04  3.74521E+03 -2.05066E+04 -8.86830E+03
 -1.07103E+04 -2.06817E+04  2.49541E+03 -2.21251E+04  1.29077E+04 -1.43290E+04  1.71761E+04 -2.76175E+03
  1.28652E+04  6.90455E+03  2.49303E+03  1.23618E+04 -6.49324E+03  7.51614E+03 -8.88806E+03 -1.95942E+03
 -3.87356E+03 -8.19662E+03  4.15998E+03 -8.91049E+03  9.02252E+03 -4.00656E+03  7.79878E+03  2.01916E+03
  4.58918E+03  4.45877E+03  1.16716E+03  3.81970E+03 -5.32738E+02  2.28486E+03  2.11892E+03 -7.52340E+02
  2.94283E+03 -1.16336E+03  7.44671E+03  3.58121E+03  4.69900E+03  1.06489E+04 -1.38885E+03  1.41994E+04
 -8.79763E+03  9.50019E+03 -1.22544E+04  3.11127E+03 -1.19083E+04 -4.89098E+03 -5.55925E+03 -8.11976E+03
  8.78189E+02 -8.32199E+03  5.69701E+03 -4.43645E+03  4.95880E+03  2.69824E+03 -1.79371E+03  6.67401E+03
 -8.71145E+03  4.27031E+03 -1.07487E+04 -3.48180E+03 -5.25075E+03 -1.06826E+04  1.75984E+03 -1.32345E+04
  7.52800E+03 -7.66490E+03  8.95823E+03 -3.75270E+02  7.24704E+03  3.24233E+03  1.36482E+03  5.73164E+03
 -4.28185E+03  1.70828E+03 -5.64866E+03 -4.88665E+03  1.66974E+03 -9.14066E+03  1.10666E+04 -7.29084E+03
  1.25237E+04  5.30455E+02  1.25090E+04  9.85131E+03  4.31647E+03  1.50648E+04 -5.94946E+03  1.32075E+04
 -1.19783E+04  6.20697E+03 -1.17351E+04 -2.87490E+03 -6.38568E+03 -9.77076E+03  1.85444E+03 -8.88477E+03
  9.10942E+03 -4.52713E+03  8.16762E+03  3.72428E+03  2.35340E+03  7.86940E+03 -7.09520E+02  7.30221E+03
 -4.38080E+03  3.93313E+03 -3.04143E+03  1.45737E+03 -2.23192E+03  7.34244E+02 -1.81166E+03  2.99079E+03
 -3.07830E+03  5.45397E+03 -9.28995E+03  4.52693E+03 -1.45131E+04  9.61104E+00 -1.63359E+04 -9.74953E+03
 -8.72822E+03 -1.94654E+04  3.38766E+03 -2.16633E+04  1.44278E+04 -1.76758E+04  2.08833E+04 -6.40700E+03
  1.91046E+04  4.38661E+03  1.17380E+04  1.34458E+04  1.56911E+03  1.56359E+04 -6.08716E+03  1.22631E+04
 -9.10771E+03  3.51374E+03 -5.71669E+03 -2.31468E+03 -1.19570E+03 -2.55808E+03 -5.92948E+02 -3.13545E+02
 -2.72484E+03  7.53504E+02 -2.72842E+03 -2.29083E+02 -9.71569E+02 -3.90195E+03  9.07955E+02 -5.45230E+03
  6.11816E+03 -4.58229E+03  9.50601E+03 -5.94275E+01  1.05583E+04  7.27051E+03  2.79621E+03  1.56605E+04
 -7.33802E+03  1.74878E+04 -1.60815E+04  9.55581E+03 -1.88673E+04 -2.42841E+03 -1.32654E+04 -1.23101E+04
 -6.00246E+03 -1.60360E+04  3.84233E+03 -1.47328E+04  1.05778E+04 -8.84740E+03  1.06224E+04  7.98446E+02
  5.88598E+03  4.80705E+03 -7.04196E+02  4.53398E+03 -3.14865E+03 -3.69449E+02 -5.09242E+02 -3.37660E+03
  5.65432E+03 -2.48310E+03  7.05941E+03  1.33564E+03  4.73519E+03  5.99845E+03  1.40676E+02  8.54505E+03
 -7.26861E+03  8.05212E+03 -1.11857E+04  3.75201E+02 -8.78872E+03 -7.74216E+03 -1.82460E+03 -1.34860E+04
  6.79193E+03 -1.17373E+04  1.28869E+04 -4.00535E+03  1.19165E+04  3.72001E+03  7.32832E+03  9.50872E+03
  1.58637E+03  9.92659E+03 -4.37019E+03  8.86864E+03 -7.15879E+03  4.43709E+03 -6.43050E+03  1.81143E+02
 -2.65865E+03 -3.02948E+02 -3.10508E+03  1.39466E+03 -5.65206E+03  1.98853E+03 -8.41240E+03 -1.79447E+03
 -7.21314E+03 -5.90712E+03 -3.35797E+03 -1.13753E+04  5.34524E+03 -1.13388E+04  9.35022E+03 -5.55601E+03
  1.15813E+04  1.01879E+03  5.68506E+03  7.41079E+03 -1.70036E+02  1.14048E+04 -9.18375E+03  6.16338E+03
