 $NMID ID='MM_0lb_SNR400_20hz_g45_56.RAW', FMTDAT='(8E13.5)'
 TRAMP=1., VOLUME=1. $END
  3.09840E+05  6.34807E+02  3.37200E+05  2.50468E+05  8.43110E+04  3.37536E+05 -1.32673E+05  2.49972E+05
 -1.89621E+05  8.22074E+04 -1.10645E+05 -3.29693E+04  2.20200E+03 -5.05530E+04  5.41417E+04  3.46449E+02
  3.50909E+04  5.29270E+04 -1.68057E+04  7.44481E+04 -6.00938E+04  6.24078E+04 -8.24767E+04  3.13902E+04
 -7.92994E+04 -1.09213E+04 -5.55948E+04 -4.96479E+04 -1.51099E+04 -6.78314E+04  2.61735E+04 -4.46216E+04
  3.87162E+04  4.03322E+03  1.56288E+04  4.68589E+04 -3.38645E+04  4.58533E+04 -6.46309E+04 -1.06801E+03
 -5.13820E+04 -5.54880E+04 -6.05528E+03 -7.47785E+04  3.32936E+04 -5.28026E+04  4.54703E+04 -1.59321E+04
  4.04871E+04  1.04240E+04  3.03779E+04  2.40518E+04  1.55906E+04  2.75136E+04 -4.19541E+03  2.67624E+04
 -2.14902E+04  1.28645E+04 -1.93242E+04 -3.58828E+03  3.65670E+03 -7.26912E+03  2.10328E+04  1.04442E+04
  7.77128E+03  3.28832E+04 -2.93262E+04  3.35155E+04 -6.04867E+04  2.70981E+03 -5.44474E+04 -4.08361E+04
 -1.26591E+04 -5.96037E+04  3.75265E+04 -4.27739E+04  5.48259E+04 -2.16387E+03  3.08731E+04  2.97356E+04
 -6.94722E+03  3.16457E+04 -2.75385E+04  1.21493E+04 -2.74881E+04 -5.93445E+03 -1.32141E+04 -9.84095E+03
 -7.01506E+03 -1.05533E+04 -1.23845E+03 -1.63923E+04  6.42358E+03 -2.23441E+04  1.53581E+04 -1.39394E+04
  1.28463E+04  4.25303E+03 -5.15812E+03  1.31249E+04 -1.83564E+04 -1.39358E+03 -7.97886E+03 -2.94433E+04
  1.98454E+04 -3.89121E+04  4.35471E+04 -1.85168E+04  4.07288E+04  1.78209E+04  1.40710E+04  4.02955E+04
 -1.45485E+04  3.02623E+04 -2.23136E+04  6.38760E+02 -7.60439E+03 -2.60368E+04  1.99199E+04 -3.02358E+04
  3.67718E+04 -6.20412E+03  2.96812E+04  2.23644E+04  1.44394E+04  4.15811E+04 -7.58544E+03  4.35280E+04
 -2.74865E+04  2.86053E+04 -3.54862E+04  8.15449E+03 -3.72833E+04 -1.43001E+04 -2.05285E+04 -3.29846E+04
  6.54106E+03 -3.29979E+04  2.84202E+04 -1.21366E+04  2.62342E+04  1.08142E+04  2.57353E+03  1.71083E+04
 -1.34511E+04  6.54485E+03 -8.92389E+03 -7.86021E+03  5.81812E+03 -9.89016E+03  1.65554E+04  6.61487E+03
  1.21387E+04  2.13468E+04 -6.74562E+03  2.24890E+04 -2.12444E+04  8.75282E+03 -2.42891E+04 -6.06697E+03
 -1.54967E+04 -1.60201E+04 -4.29093E+03 -1.52795E+04  3.22838E+03 -1.27743E+04  1.11046E+04 -1.33147E+04
  1.96350E+04 -1.12764E+04  2.65503E+04  1.01287E+03  2.10536E+04  1.55674E+04  3.48053E+03  3.09628E+04
 -1.55883E+04  2.66640E+04 -2.50073E+04  9.26130E+03 -1.89742E+04 -1.04088E+04 -3.57373E+03 -1.44644E+04
  3.24576E+03 -4.54140E+03 -1.57590E+03  4.52303E+03 -1.16295E+04  5.19150E+03 -1.28729E+04 -4.58367E+03
 -8.07110E+03 -1.39462E+04  3.99269E+03 -1.79416E+04  1.19035E+04 -1.33087E+04  1.32482E+04 -1.10573E+03
  8.00394E+03  9.52526E+03 -9.51005E+02  1.47613E+04 -9.77654E+03  8.49973E+03 -1.42361E+04 -3.12677E+03
 -1.08978E+04 -1.33751E+04 -8.01774E+02 -1.78343E+04  8.41068E+03 -1.44020E+04  1.52226E+04 -6.42579E+03
  1.35592E+04  6.68258E+02  9.64761E+03  3.89451E+03  4.42723E+03  5.93473E+02  6.91001E+03 -1.25488E+03
  1.26199E+04  2.47741E+03  1.30039E+04  1.21698E+04  8.10063E+03  2.32366E+04 -2.96644E+03  2.44181E+04
 -1.46578E+04  1.78784E+04 -2.24027E+04  8.17153E+03 -2.26135E+04 -1.42604E+03 -1.94106E+04 -1.27849E+04
 -9.20105E+03 -1.78065E+04  6.09435E+03 -1.76090E+04  1.53106E+04 -1.02025E+04  1.40476E+04  3.09418E+03
  6.26383E+03  1.02409E+04 -6.59565E+03  1.02551E+04 -1.22291E+04  2.48370E+03 -9.39309E+03 -7.17008E+03
 -2.31523E+02 -1.17678E+04  5.22082E+03 -8.44413E+03  7.29014E+03 -1.24019E+03  9.11412E+02  4.66079E+03
 -4.91897E+03  1.15591E+03 -2.57921E+03 -3.92063E+03  6.26260E+02 -8.96631E+03  7.25118E+03 -9.14349E+03
  1.14143E+04 -3.94009E+03  1.04220E+04  2.91232E+03  8.89664E+03  8.62285E+03  4.62870E+03  1.23076E+04
 -1.64924E+03  1.41596E+04 -8.69909E+03  9.00349E+03 -9.60899E+03  2.72592E+03 -7.50680E+03 -1.91713E+03
 -4.05603E+03 -3.27715E+03 -1.15623E+03  1.40880E+03 -2.20609E+03  2.01108E+03 -3.26224E+03  3.12493E+03
 -7.26338E+03 -8.33214E+02 -8.39462E+03 -6.35226E+03 -3.23601E+03 -1.08849E+04  3.41455E+03 -7.96274E+03
  6.28988E+03 -3.61302E+03  5.20306E+03  1.64677E+03  1.03601E+03  2.89944E+03 -2.82353E+03 -2.22227E+02
 -3.44373E+03 -4.76549E+03 -6.70886E+02 -6.21948E+03  3.35912E+03 -7.41837E+03  9.10320E+03 -3.27477E+03
  1.04366E+04 -6.10376E+01  7.74356E+03  4.99336E+03  1.52173E+03  7.14539E+03 -4.81429E+03  7.50444E+03
 -6.06815E+03  2.87393E+03 -3.37541E+03 -1.25842E+03  1.09100E+03 -1.44346E+03  4.17966E+03 -1.15426E+03
  3.16140E+03  2.75098E+03  1.08436E+03  5.23096E+03 -3.36281E+03  5.60420E+03 -6.91222E+03  1.65054E+03
 -4.24602E+03 -2.85212E+03  2.33369E+02 -5.46317E+03  2.84206E+03 -2.28160E+03  2.74146E+03  6.19484E+02
 -6.93406E+01  2.79789E+03 -3.78351E+03  3.82351E+03 -3.83394E+03  1.98532E+03 -3.91492E+03 -3.13860E+02
 -2.72343E+03 -4.66050E+03  1.28350E+03 -5.65968E+03  4.69407E+03 -4.57446E+03  5.05524E+03  7.89373E+02
  3.87024E+03  4.24039E+03  1.02578E+02  6.11477E+03 -4.93345E+03  3.64589E+03 -4.20319E+03 -2.89854E+02
 -4.96772E+03 -4.60763E+03 -9.47600E+02 -4.19805E+03  2.63631E+03 -4.23748E+03  2.23526E+03 -2.92915E+03
  2.27573E+03  3.04921E+02 -6.08893E+01  7.71733E+02  5.97722E+02 -2.21555E+02 -2.50893E+02 -1.22534E+03
  2.82605E+03 -2.37895E+02  4.22813E+03  8.70563E+02  4.56331E+03  2.12898E+03  5.20024E+03  5.90496E+03
 -4.42834E+02  6.63661E+03 -7.02114E+03  5.07926E+03 -8.37304E+03  8.80265E+02 -6.68704E+03 -2.03626E+03
 -3.61544E+03 -5.61196E+03 -6.79450E+02 -4.31433E+03  1.54231E+03 -1.72754E+03  1.39096E+03 -1.51115E+03
  9.20248E+02 -1.82620E+03  1.93024E+03 -1.65360E+03  2.91452E+03 -5.58664E+02  3.16507E+03  8.37222E+02
  4.37700E+03  1.08099E+03  4.15572E+02  2.25488E+03 -1.89067E+03  2.35329E+03 -3.61280E+03  1.69857E+03
 -4.27346E+03 -9.91168E+02 -6.55707E+02 -3.08100E+03  3.68747E+02 -3.74154E+03  2.86572E+03 -4.54524E+03
  3.72079E+03 -2.80581E+03  5.51432E+03  4.54246E+02  3.83843E+03  3.49107E+03  7.10825E+02  4.87404E+03
 -1.51492E+03  5.19719E+03 -2.36673E+03  1.96909E+03 -1.69288E+03 -1.29302E+03 -4.03818E+02 -5.69138E+02
 -3.42372E+02  7.14512E+02 -8.28794E+02  1.88575E+03 -2.55225E+03  9.27519E+02 -3.31850E+03 -2.99358E+02
 -9.60276E+02 -3.32592E+03  1.03142E+03 -4.07592E+03  2.15606E+03 -3.60152E+03  3.20945E+03 -8.58410E+02
  3.26788E+03  2.02456E+03  1.54093E+03  2.42541E+03 -6.17429E+02  3.41320E+03 -1.85438E+03  2.70645E+03
 -2.94019E+03  6.44855E+02 -3.02260E+03 -1.25553E+03 -4.77038E+02 -1.97577E+03  8.98867E+02 -2.34436E+03
  1.93973E+03 -8.12233E+02  1.16425E+03  3.88540E+02  1.85570E+02  1.57122E+03  6.99421E+02  1.17676E+02
  1.58099E+03  3.24096E+02  6.72985E+02  1.59904E+03  7.05805E+02  2.50127E+03  1.32425E+03  1.19307E+03
 -1.52643E+03  2.19033E+03 -1.66777E+03  3.46495E+03 -2.16213E+03  9.32042E+02 -3.28093E+03 -2.79364E+02
 -7.59568E+02 -2.78911E+03  4.57731E+02 -3.79021E+03  1.15692E+03 -1.78207E+03  2.10973E+03 -5.50872E+02
  1.95900E+03  1.15027E+03  2.74464E+02  1.87896E+03 -5.26219E+02  9.11300E+02 -8.68461E+02 -4.26974E+02
 -3.63365E+02 -9.99601E+02  1.08319E+03 -1.35905E+03  6.80828E+02 -8.06922E+02  1.16283E+03  5.18124E+02
  3.04612E+02  1.26753E+02 -2.08369E+02 -2.60083E+02 -8.62461E+01  1.01521E+03  1.54514E+03 -4.95364E+02
 -5.32968E+02 -6.71137E+01  1.51412E+03  9.70396E+02  9.93937E+01  2.44822E+03 -1.32691E+01  2.22935E+03
 -1.45990E+03  6.50340E+02 -1.08783E+03  5.97106E+01 -1.73125E+03 -1.30805E+02  1.70212E+02 -6.70104E+02
  5.87993E+02 -1.01438E+03  8.20735E+02 -4.06181E+02  7.40997E+02  6.73921E+02 -7.68743E+02  1.38075E+03
 -1.33285E+03  4.01434E+02 -6.24800E+02 -1.13920E+03 -3.63815E+02 -1.71583E+03  1.57739E+01 -1.28762E+03
 -3.80246E+02 -3.66988E+02  3.04344E+02  1.25149E+02  1.32218E+03 -6.53700E+02 -3.98586E+02  1.05020E+03
  3.04727E+02 -4.51817E+02 -7.64758E+02 -2.37413E+01  6.75352E+02 -4.74201E+02  1.55236E+03 -5.75277E+02
  1.16566E+03 -1.99737E+02  2.12525E+03 -5.92425E+01  6.70657E+02  1.05266E+03  1.16414E+01  1.06471E+03
 -9.63899E+02  1.42096E+02 -6.25111E+02  2.82385E+02 -4.73132E+02 -5.77975E+02  6.03410E+02 -1.66886E+02
  1.14897E+03 -6.43255E+02  7.36848E+02  4.12439E+02  4.69785E+02  1.26738E+03  5.37331E+02  3.17467E+01
  4.48874E+02  8.16278E+02 -6.03522E+02  5.88714E+02 -3.08727E+02  2.31789E+02 -6.87316E+02  5.79324E+02
 -3.67511E+02  9.58347E+02 -1.65202E+03  5.20619E+02 -1.00337E+03  3.21325E+02 -1.82213E+03 -7.33271E+02
 -8.52642E+02 -1.93950E+03  4.09111E+02 -2.31009E+03  4.31862E+02 -2.26499E+03  1.84216E+03 -6.92923E+02
  1.31616E+03 -3.52234E+02  1.04452E+03  1.17981E+03 -5.31576E+02  9.46313E+02 -5.42178E+02  8.37910E+02
 -5.69739E+02  6.20177E+02 -3.24387E+02 -3.57763E+02 -3.18729E+02  3.43221E+02 -7.87351E+02  2.92546E+02
 -1.04546E+03  2.21855E+02 -1.02122E+03 -4.28282E+02  4.80551E+02 -2.73347E+02 -3.64838E+02 -9.56575E+02
  1.33978E+03 -1.52380E+02  1.24677E+02  1.69618E+02  1.03440E+03  7.08573E+02 -7.48238E+02  7.31395E+02
 -7.78977E+02  1.44074E+03 -1.23058E+03  1.33107E+03 -6.22226E+02  1.64520E+02 -6.13970E+02 -8.84710E+02
 -9.80475E+02 -4.24894E+02  1.82995E+02 -3.54990E+02  2.35774E+02 -2.53632E+02  2.51579E+02  2.83201E+02
  6.46107E+02 -1.74794E+02  1.75895E+02 -5.94362E+01 -3.79791E+02  4.17731E+02  2.36442E+02 -4.32346E+02
  2.37782E+02  1.55310E+02 -3.73744E+02 -2.12538E+02  3.05770E+02  2.98551E+02  2.04214E+02  3.44377E+02
 -2.39866E+02  4.34645E+02 -5.95503E+02  4.19993E+02 -3.99030E+02 -1.72478E+02 -9.30350E+01 -9.17808E+02
  2.95650E+02 -7.61807E+02  5.26418E+02 -2.35945E+02  4.53297E+02 -5.88757E+02  4.34020E+02  6.87582E+02
  2.23493E+02 -5.18261E+01  1.00557E+01  1.11571E+02  1.61136E+02  2.99345E+02  2.44312E+02  3.91010E+01
 -2.28700E+02 -7.53993E+01 -7.36785E+02  1.61170E+02 -6.84485E+02  9.91180E+01 -3.97914E+02 -3.68260E+02
 -6.31040E+02  3.27105E+01 -6.74501E+02 -4.71745E+02  1.99044E+02 -6.92030E+02  9.91042E+02 -3.89484E+02
  7.13742E+02 -2.45348E+02 -1.46353E+02 -2.76736E+02 -2.21345E+02  8.13598E+02 -4.57386E+02  9.61639E+02
