 $NMID ID='MM_0lb_SNR400_11hz_g60_95.RAW', FMTDAT='(8E13.5)'
 TRAMP=1., VOLUME=1. $END
  3.10296E+05 -4.81489E+02  3.38017E+05  2.51391E+05  8.52321E+04  3.38372E+05 -1.33006E+05  2.51743E+05
 -1.90815E+05  8.39725E+04 -1.12657E+05 -3.26677E+04  3.47184E+02 -5.10350E+04  5.37436E+04  3.61306E+02
  3.61931E+04  5.33231E+04 -1.65267E+04  7.63337E+04 -6.06035E+04  6.37966E+04 -8.50666E+04  3.23171E+04
 -8.25060E+04 -1.17745E+04 -5.87493E+04 -5.22323E+04 -1.53563E+04 -7.10121E+04  2.81544E+04 -4.69724E+04
  4.08143E+04  3.44601E+03  1.67652E+04  4.88643E+04 -3.48341E+04  4.77536E+04 -6.82243E+04 -3.90799E+02
 -5.47444E+04 -5.85079E+04 -6.88055E+03 -7.82272E+04  3.42417E+04 -5.76029E+04  4.92564E+04 -1.81795E+04
  4.47969E+04  1.13157E+04  3.29373E+04  2.65469E+04  1.58987E+04  2.97988E+04 -5.78072E+03  2.73334E+04
 -2.27322E+04  1.14261E+04 -1.81328E+04 -5.62162E+03  6.65816E+03 -7.35068E+03  2.40009E+04  1.32244E+04
  7.89574E+03  3.74493E+04 -3.33679E+04  3.75466E+04 -6.60096E+04  1.98743E+03 -5.87980E+04 -4.40120E+04
 -1.25184E+04 -6.57634E+04  4.10985E+04 -4.71620E+04  6.07172E+04 -2.32512E+03  3.65846E+04  3.42269E+04
 -5.73062E+03  3.86509E+04 -3.13470E+04  1.84958E+04 -3.23189E+04 -3.53899E+03 -1.92742E+04 -1.11836E+04
 -8.66588E+03 -1.39456E+04 -9.67059E+02 -1.90058E+04  8.53373E+03 -2.38601E+04  1.63643E+04 -1.20109E+04
  1.00212E+04  6.32297E+03 -1.05955E+04  1.29850E+04 -2.32870E+04 -6.45330E+03 -8.87706E+03 -3.70245E+04
  2.47894E+04 -4.63748E+04  5.13631E+04 -2.06987E+04  4.81797E+04  2.06416E+04  1.74933E+04  4.74784E+04
 -1.65634E+04  3.63636E+04 -2.71458E+04  2.47093E+03 -1.10031E+04 -2.84509E+04  2.10106E+04 -3.66884E+04
  4.51979E+04 -1.06257E+04  4.01070E+04  2.51594E+04  2.13624E+04  5.01531E+04 -8.58278E+03  5.50078E+04
 -3.47139E+04  3.76801E+04 -4.69520E+04  1.08527E+04 -4.70898E+04 -1.82623E+04 -2.55903E+04 -4.14544E+04
  8.20758E+03 -4.14251E+04  3.37923E+04 -1.73666E+04  3.14814E+04  1.11570E+04  4.95747E+03  2.01632E+04
 -1.41286E+04  9.92713E+03 -1.08740E+04 -7.44364E+03  5.33354E+03 -1.17581E+04  1.81979E+04  5.09276E+03
  1.46151E+04  2.26295E+04 -5.94326E+03  2.67320E+04 -2.30260E+04  1.39218E+04 -3.01109E+04 -3.73194E+03
 -2.46615E+04 -1.83907E+04 -1.09180E+04 -2.37218E+04  5.16753E+03 -2.49763E+04  1.86994E+04 -2.16147E+04
  3.09825E+04 -1.42557E+04  3.73961E+04  5.11605E+03  2.62018E+04  2.38205E+04  4.18909E+03  4.09375E+04
 -1.97186E+04  3.35718E+04 -3.03005E+04  1.19063E+04 -2.20609E+04 -9.88253E+03 -4.70743E+03 -1.33731E+04
  5.59101E+02 -1.47241E+03 -7.24830E+03  8.30304E+03 -2.00527E+04  4.41941E+03 -1.97813E+04 -9.34634E+03
 -1.10402E+04 -2.33051E+04  5.80016E+03 -2.68680E+04  1.89776E+04 -1.93864E+04  2.11507E+04 -2.19865E+03
  1.35671E+04  1.51801E+04 -1.64546E+03  2.26512E+04 -1.67795E+04  1.25129E+04 -2.28365E+04 -4.26250E+03
 -1.58407E+04 -2.08595E+04 -1.41807E+03 -2.71966E+04  1.20081E+04 -2.23308E+04  2.22920E+04 -1.15054E+04
  2.10298E+04 -3.71873E+02  1.50852E+04  4.18458E+03  8.54777E+03  1.24466E+03  1.18724E+04 -1.26443E+03
  2.11166E+04  2.83155E+03  2.39191E+04  1.85253E+04  1.65390E+04  3.55600E+04 -2.61773E+03  4.20183E+04
 -2.41362E+04  3.48659E+04 -3.98500E+04  1.80571E+04 -4.22588E+04 -2.46773E+03 -3.50045E+04 -2.42828E+04
 -1.40041E+04 -3.58400E+04  1.23994E+04 -3.12801E+04  2.69267E+04 -1.50346E+04  2.32828E+04  7.28407E+03
  8.32662E+03  1.76216E+04 -1.05344E+04  1.55563E+04 -1.95838E+04  2.36352E+03 -1.51015E+04 -1.29394E+04
 -1.84547E+02 -1.84403E+04  9.43812E+03 -1.29863E+04  1.24270E+04 -8.66578E+02  2.99590E+03  7.54353E+03
 -8.38926E+03  3.60410E+03 -8.95089E+03 -6.64231E+03 -1.11915E+03 -1.73574E+04  1.07573E+04 -1.79895E+04
  2.16957E+04 -1.07954E+04  2.45314E+04  3.95603E+03  2.15436E+04  1.75017E+04  9.32184E+03  2.73322E+04
 -6.00216E+03  2.91226E+04 -1.88679E+04  1.84408E+04 -2.15228E+04  4.27411E+03 -1.41941E+04 -5.62701E+03
 -5.66792E+03 -6.55438E+03 -5.95886E+02  4.26380E+02 -2.74075E+03  3.61059E+03 -6.63377E+03  5.18678E+03
 -1.31948E+04 -1.36909E+03 -1.42178E+04 -1.15591E+04 -5.67545E+03 -1.79275E+04  5.61302E+03 -1.49843E+04
  1.23518E+04 -6.36714E+03  8.20381E+03  3.87201E+03  6.35412E+01  6.56420E+03 -7.26026E+03  3.09437E+02
 -6.54852E+03 -9.52333E+03 -1.53668E+03 -1.48603E+04  8.13865E+03 -1.48608E+04  1.85915E+04 -8.99811E+03
  2.26875E+04  2.54083E+03  1.56025E+04  1.31491E+04  3.20346E+03  1.76302E+04 -9.05940E+03  1.44874E+04
 -1.13644E+04  3.57540E+03 -6.43045E+03 -3.67480E+03  2.06698E+03 -3.67287E+03  8.66482E+03 -7.96237E+02
  7.21792E+03  6.56097E+03  5.10887E+02  1.27375E+04 -8.06396E+03  1.19598E+04 -1.42941E+04  2.55022E+03
 -1.02982E+04 -7.98813E+03  3.71800E+01 -1.23698E+04  7.74291E+03 -6.98866E+03  8.23996E+03  3.34808E+03
  1.18966E+03  9.25788E+03 -6.66665E+03  1.01428E+04 -1.20982E+04  4.11075E+03 -1.23370E+04 -4.37010E+03
 -7.25593E+03 -1.40757E+04  3.47300E+03 -1.70217E+04  1.38971E+04 -1.06727E+04  1.47553E+04  2.92064E+03
  8.52603E+03  1.24068E+04 -1.30329E+03  1.43970E+04 -9.97569E+03  8.40949E+03 -1.18406E+04 -1.06853E+03
 -1.02166E+04 -1.02999E+04 -2.04280E+03 -1.04068E+04  6.46102E+03 -9.09971E+03  6.89886E+03 -3.49659E+03
  4.59980E+03  1.94674E+03 -6.24981E+02  1.76143E+03 -2.09872E+02 -2.75695E+03  2.87608E+03 -7.03340E+03
  1.04869E+04 -3.19088E+03  1.36128E+04  1.60992E+03  1.42885E+04  1.02070E+04  9.43195E+03  1.91178E+04
 -5.02290E+03  2.07285E+04 -1.70691E+04  1.58400E+04 -2.31758E+04  3.28861E+03 -1.84521E+04 -8.08981E+03
 -9.52547E+03 -1.55692E+04 -1.46847E+02 -1.26992E+04  4.34363E+03 -7.66607E+03  5.00900E+03 -4.32415E+03
  2.82257E+03 -2.67565E+03  3.19101E+03 -3.15531E+03  5.41837E+03 -3.45699E+03  7.36178E+03 -8.77428E+02
  9.98631E+03  1.99336E+03  4.94221E+03  9.01332E+03 -2.19386E+03  9.76830E+03 -1.01313E+04  7.78810E+03
 -1.26328E+04 -1.62281E+03 -7.34813E+03 -9.07508E+03 -1.14131E+03 -1.40129E+04  7.45087E+03 -1.35679E+04
  1.43054E+04 -8.73144E+03  1.67236E+04  1.34899E+03  1.17983E+04  1.26680E+04  2.80134E+03  1.59875E+04
 -7.02191E+03  1.31098E+04 -9.31288E+03  4.66991E+03 -6.12046E+03 -9.63167E+02 -3.12645E+03 -1.96087E+03
 -1.65578E+03  2.14625E+02 -2.31953E+03  2.02680E+03 -5.47340E+03  2.13513E+03 -9.48908E+03 -1.31510E+03
 -6.53665E+03 -8.88411E+03 -6.78700E+02 -1.24674E+04  7.10852E+03 -1.18440E+04  1.26063E+04 -4.16041E+03
  1.24610E+04  5.28137E+03  5.65112E+03  1.16328E+04 -2.00197E+03  1.33304E+04 -8.34481E+03  7.71785E+03
 -1.22598E+04  5.00637E+02 -9.09359E+03 -7.64989E+03 -1.15931E+03 -1.06471E+04  5.48852E+03 -7.33933E+03
  7.87325E+03 -2.37968E+03  4.74751E+03  2.29638E+03  1.71622E+03  4.10367E+03  1.76019E+03  1.70935E+03
  2.90299E+03  1.26257E+03  3.31038E+03  2.09473E+03  3.57539E+03  4.58867E+03  3.54879E+03  6.09008E+03
 -2.44378E+03  9.60473E+03 -9.13737E+03  1.01965E+04 -1.28395E+04  1.79195E+03 -1.37947E+04 -5.18921E+03
 -5.88805E+03 -1.16684E+04  2.32711E+03 -1.37789E+04  7.51344E+03 -9.37150E+03  9.84553E+03 -2.87167E+03
  7.33350E+03  4.95498E+03  1.24098E+03  7.66203E+03 -3.53390E+03  5.38770E+03 -4.69412E+03 -5.86745E+02
 -2.14680E+03 -5.22243E+03  2.91289E+03 -5.13368E+03  4.55246E+03 -2.55666E+03  4.20271E+03  4.44850E+02
  2.55158E+03  2.35355E+03  8.55197E+02  2.07786E+03 -1.49486E+03  1.62349E+03  6.67313E+02 -3.85045E+02
  1.35161E+03 -9.97709E+02  5.18942E+03  1.88789E+03  2.94156E+03  7.31065E+03 -8.25708E+02  9.22553E+03
 -6.31157E+03  5.70211E+03 -7.73290E+03  1.90155E+03 -7.87659E+03 -1.41520E+03 -2.75440E+03 -5.20244E+03
  7.05422E+02 -5.11057E+03  3.16049E+03 -2.11791E+03  2.60838E+03  2.05471E+03 -1.14447E+03  4.32040E+03
 -5.08890E+03  2.69063E+03 -5.90275E+03 -2.67259E+03 -3.61584E+03 -7.10240E+03  1.26516E+03 -6.73326E+03
  3.95755E+03 -3.91733E+03  5.35558E+03 -6.03160E+02  4.91104E+03  1.41715E+03  5.01627E+02  4.01615E+03
 -1.82239E+03  8.22096E+02 -2.44941E+03 -1.80749E+03  1.37852E+03 -4.67757E+03  6.21632E+03 -4.03764E+03
  7.64715E+03  2.48876E+02  7.25931E+03  5.40014E+03  2.36702E+03  7.82024E+03 -3.00455E+03  6.57277E+03
 -6.63193E+03  3.91116E+03 -6.76762E+03 -1.99787E+03 -3.64894E+03 -5.57301E+03  1.35877E+03 -5.29567E+03
  5.21405E+03 -2.24989E+03  3.91625E+03  1.51225E+03  7.45970E+02  4.73567E+03 -9.82840E+02  3.41577E+03
 -2.26231E+03  3.01871E+03 -1.88301E+03  1.34371E+03 -1.81376E+03  3.08828E+02 -1.45458E+03  2.25708E+03
 -2.21149E+03  3.10800E+03 -5.70723E+03  2.39308E+03 -7.69347E+03 -1.99551E+02 -8.44038E+03 -5.41707E+03
 -4.51744E+03 -1.01505E+04  2.36540E+03 -1.25091E+04  7.98859E+03 -9.60715E+03  1.13479E+04 -2.99797E+03
  1.08048E+04  2.54237E+03  6.38881E+03  7.91153E+03  3.96416E+01  7.86431E+03 -3.64737E+03  5.91335E+03
 -4.59989E+03  2.13803E+03 -3.15880E+03 -1.31177E+02 -1.31148E+03 -6.20571E+02 -9.76372E+02 -7.10470E+01
 -4.72349E+02  5.19692E+02 -1.97815E+03  3.78733E+01 -1.16974E+03 -2.08656E+03  1.23520E+00 -2.92860E+03
  4.30195E+03 -2.39722E+03  4.79681E+03 -5.87688E+02  5.10916E+03  3.70140E+03  1.15187E+03  7.52472E+03
 -4.01466E+03  8.46866E+03 -8.05846E+03  5.23564E+03 -8.64273E+03 -2.54312E+02 -6.80160E+03 -5.75030E+03
 -3.02984E+03 -8.26102E+03  1.88722E+03 -6.82783E+03  4.43625E+03 -3.97087E+03  4.68235E+03  2.39552E+02
  3.56272E+03  2.21672E+03 -9.20199E+02  2.27573E+03 -1.11271E+03 -3.43231E+02  8.22145E+02 -1.42891E+03
  2.52608E+03 -1.25028E+03  3.30022E+03  1.13809E+03  1.92563E+03  2.93449E+03  2.58335E+02  3.58778E+03
 -3.11897E+03  3.25775E+03 -5.35798E+03  5.87427E+02 -5.00285E+03 -3.53534E+03 -4.45754E+02 -6.76336E+03
  3.78814E+03 -5.56305E+03  6.21947E+03 -2.14109E+03  6.15026E+03  5.27123E+02  3.52497E+03  5.24495E+03
  1.53935E+03  5.22840E+03 -2.41699E+03  3.72654E+03 -4.21707E+03  1.97367E+03 -2.68075E+03  1.44273E+02
 -1.86884E+03 -2.48178E+02 -1.50435E+03  1.64705E+02 -2.82241E+03  6.35377E+02 -3.42589E+03 -1.13515E+03
 -4.05190E+03 -2.68887E+03 -6.42258E+02 -5.10733E+03  2.33809E+03 -5.15441E+03  4.60132E+03 -3.14131E+03
  4.59146E+03  1.06095E+03  2.39809E+03  2.74887E+03 -1.86868E+02  5.08756E+03 -3.59385E+03  2.91244E+03
