 $NMID ID='MM_0lb_SNR400_12hz_g60_94.RAW', FMTDAT='(8E13.5)'
 TRAMP=1., VOLUME=1. $END
  3.09666E+05  5.94415E+02  3.37838E+05  2.51309E+05  8.48587E+04  3.38562E+05 -1.32440E+05  2.51667E+05
 -1.90708E+05  8.42333E+04 -1.11889E+05 -3.28325E+04  8.44780E+02 -5.00059E+04  5.36033E+04 -5.97635E+02
  3.49934E+04  5.20678E+04 -1.63025E+04  7.66416E+04 -6.09775E+04  6.45112E+04 -8.46890E+04  3.25860E+04
 -8.27333E+04 -1.15821E+04 -5.75079E+04 -5.18815E+04 -1.47918E+04 -7.04599E+04  2.82283E+04 -4.66681E+04
  4.10409E+04  3.70129E+03  1.67291E+04  4.80895E+04 -3.41935E+04  4.76474E+04 -6.83225E+04 -4.35373E+02
 -5.39474E+04 -5.77453E+04 -7.06055E+03 -7.91678E+04  3.47025E+04 -5.68177E+04  4.87974E+04 -1.75648E+04
  4.50062E+04  1.16434E+04  3.17925E+04  2.62527E+04  1.61135E+04  3.08150E+04 -5.11230E+03  2.72537E+04
 -2.22966E+04  1.18072E+04 -1.89071E+04 -5.33261E+03  6.74199E+03 -7.11580E+03  2.35705E+04  1.32341E+04
  7.50591E+03  3.65550E+04 -3.25968E+04  3.69775E+04 -6.52144E+04  2.19750E+03 -5.88236E+04 -4.41959E+04
 -1.18468E+04 -6.57838E+04  4.10758E+04 -4.67657E+04  6.04749E+04 -1.89771E+03  3.61047E+04  3.43750E+04
 -5.91336E+03  3.86455E+04 -3.12714E+04  1.78504E+04 -3.27100E+04 -4.49744E+03 -1.83310E+04 -1.11971E+04
 -9.04307E+03 -1.38559E+04 -6.54935E+02 -1.94103E+04  8.30309E+03 -2.37522E+04  1.56890E+04 -1.22475E+04
  1.13421E+04  6.19681E+03 -9.06512E+03  1.23377E+04 -2.25885E+04 -7.08108E+03 -8.28171E+03 -3.64032E+04
  2.49814E+04 -4.56301E+04  5.06602E+04 -2.05837E+04  4.71457E+04  2.03929E+04  1.74134E+04  4.68307E+04
 -1.65736E+04  3.61282E+04 -2.70958E+04  2.17122E+03 -1.03486E+04 -2.96811E+04  2.10824E+04 -3.56125E+04
  4.30039E+04 -1.07181E+04  3.89215E+04  2.41047E+04  1.99447E+04  4.93044E+04 -8.65618E+03  5.41942E+04
 -3.40247E+04  3.69200E+04 -4.60111E+04  1.10260E+04 -4.64871E+04 -1.82631E+04 -2.42881E+04 -4.04275E+04
  7.07735E+03 -4.07858E+04  3.38161E+04 -1.62967E+04  3.14853E+04  1.08629E+04  4.38824E+03  2.03928E+04
 -1.42572E+04  8.89633E+03 -1.07020E+04 -7.01665E+03  5.64609E+03 -1.14015E+04  1.86740E+04  5.42641E+03
  1.36510E+04  2.30088E+04 -4.93570E+03  2.63925E+04 -2.26918E+04  1.39848E+04 -3.10193E+04 -3.39544E+03
 -2.38327E+04 -1.81486E+04 -1.01967E+04 -2.33780E+04  4.72606E+03 -2.36298E+04  1.83325E+04 -2.19021E+04
  3.00821E+04 -1.39635E+04  3.62646E+04  4.06479E+03  2.56323E+04  2.37462E+04  4.43781E+03  3.93635E+04
 -1.86476E+04  3.27836E+04 -2.97748E+04  1.09971E+04 -2.16001E+04 -1.03826E+04 -5.21268E+03 -1.32995E+04
  1.58816E+03 -1.91397E+03 -6.44633E+03  8.11784E+03 -1.93165E+04  5.37547E+03 -1.85947E+04 -8.64500E+03
 -1.15296E+04 -2.11262E+04  5.56879E+03 -2.59629E+04  1.83948E+04 -1.86695E+04  2.08060E+04 -1.78936E+03
  1.33898E+04  1.46868E+04 -8.27327E+02  2.15920E+04 -1.54938E+04  1.27293E+04 -2.14133E+04 -4.91203E+03
 -1.59473E+04 -1.99796E+04 -1.63724E+03 -2.58750E+04  1.13370E+04 -2.11259E+04  2.24536E+04 -1.07634E+04
  1.98207E+04 -3.94111E+01  1.49521E+04  4.85476E+03  7.87831E+03  1.52952E+03  1.05134E+04 -1.93908E+03
  2.02381E+04  2.50099E+03  2.30742E+04  1.71927E+04  1.63292E+04  3.51028E+04 -2.69963E+03  4.05355E+04
 -2.26019E+04  3.18899E+04 -3.74663E+04  1.69991E+04 -4.03178E+04 -2.86799E+03 -3.29243E+04 -2.42397E+04
 -1.31251E+04 -3.28203E+04  1.09447E+04 -3.00127E+04  2.55459E+04 -1.45482E+04  2.21222E+04  6.82942E+03
  7.64869E+03  1.70773E+04 -1.08749E+04  1.47828E+04 -1.77565E+04  2.62342E+03 -1.39687E+04 -1.20871E+04
  2.82515E+02 -1.77128E+04  9.34332E+03 -1.29202E+04  1.21172E+04 -1.59242E+03  3.15010E+03  8.35661E+03
 -8.05811E+03  3.66832E+03 -8.18823E+03 -7.18044E+03 -1.94118E+03 -1.60606E+04  1.11240E+04 -1.77744E+04
  2.08057E+04 -1.01765E+04  2.34047E+04  3.18155E+03  1.95704E+04  1.61491E+04  9.03820E+03  2.56745E+04
 -4.59626E+03  2.71769E+04 -1.88719E+04  1.72394E+04 -2.03124E+04  3.35547E+03 -1.37121E+04 -4.75466E+03
 -5.81081E+03 -6.45604E+03 -5.16939E+02  3.53932E+02 -2.26033E+03  2.15303E+03 -6.76140E+03  4.97092E+03
 -1.29524E+04 -9.66628E+02 -1.32504E+04 -1.11988E+04 -4.49983E+03 -1.76016E+04  5.31809E+03 -1.34643E+04
  1.16588E+04 -5.92420E+03  7.25042E+03  3.70418E+03 -2.16643E+02  5.65319E+03 -7.20127E+03  2.99439E+01
 -6.66640E+03 -8.94382E+03 -1.57311E+03 -1.27633E+04  7.25342E+03 -1.40202E+04  1.78051E+04 -7.60055E+03
  2.02483E+04  2.19727E+03  1.56515E+04  1.20871E+04  3.52228E+03  1.68248E+04 -8.32007E+03  1.33581E+04
 -1.12939E+04  4.12861E+03 -5.82871E+03 -2.49237E+03  2.34831E+03 -2.66133E+03  7.21813E+03 -1.84745E+03
  6.80004E+03  6.01893E+03  1.70194E+03  1.06060E+04 -8.15437E+03  1.04050E+04 -1.35536E+04  1.92679E+03
 -8.52929E+03 -6.83342E+03  9.75278E+01 -1.12384E+04  7.43476E+03 -5.63201E+03  7.77023E+03  2.78009E+03
  1.54250E+03  7.89480E+03 -7.58330E+03  9.78600E+03 -1.14174E+04  4.05030E+03 -1.10663E+04 -3.88243E+03
 -5.66539E+03 -1.23030E+04  3.12468E+03 -1.55926E+04  1.21628E+04 -9.14367E+03  1.38353E+04  2.28992E+03
  8.03039E+03  1.11673E+04 -1.01352E+03  1.31117E+04 -1.01237E+04  7.58559E+03 -1.08242E+04 -1.38355E+03
 -9.50428E+03 -8.09884E+03 -1.84799E+03 -9.52138E+03  4.68490E+03 -8.37207E+03  6.27461E+03 -3.12491E+03
  4.58726E+03  1.27733E+03 -3.37044E+02  1.28944E+03 -2.00748E+02 -2.11582E+03  1.88809E+03 -6.06261E+03
  8.98400E+03 -3.67032E+03  1.31315E+04  1.94945E+03  1.26714E+04  8.38746E+03  8.74202E+03  1.67193E+04
 -3.58466E+03  1.87230E+04 -1.61470E+04  1.42926E+04 -2.04514E+04  2.98437E+03 -1.68954E+04 -7.29043E+03
 -8.13038E+03 -1.32776E+04 -6.72742E+02 -1.15221E+04  4.15400E+03 -6.24114E+03  3.56673E+03 -5.17684E+03
  3.20533E+03 -3.33301E+03  3.27133E+03 -3.65465E+03  4.66836E+03 -2.69311E+03  6.65903E+03 -6.67733E+02
  8.69519E+03  2.49246E+03  4.71147E+03  7.77810E+03 -1.10406E+03  8.01215E+03 -9.04973E+03  6.40002E+03
 -1.12963E+04 -1.78797E+03 -6.91863E+03 -8.33974E+03 -3.21272E+02 -1.21716E+04  7.58545E+03 -1.20111E+04
  1.22944E+04 -6.59983E+03  1.54686E+04  1.73792E+03  1.11765E+04  1.04566E+04  1.74916E+03  1.40852E+04
 -5.71468E+03  1.20394E+04 -7.53146E+03  3.93928E+03 -5.62044E+03 -1.11072E+03 -2.20936E+03 -1.97799E+03
 -9.44771E+02 -7.55942E+01 -2.14848E+03  2.78688E+03 -4.71289E+03  2.07836E+03 -9.49426E+03 -3.95483E+02
 -5.80240E+03 -8.45672E+03  6.22387E+02 -1.10576E+04  6.92926E+03 -1.14117E+04  1.14075E+04 -3.20082E+03
  1.07762E+04  4.87493E+03  5.19179E+03  9.08373E+03 -2.67450E+03  1.09342E+04 -7.56047E+03  7.19016E+03
 -1.00618E+04  5.37934E+02 -8.63332E+03 -7.12092E+03 -6.38185E+02 -9.26288E+03  4.50055E+03 -6.99027E+03
  6.82447E+03 -2.33042E+03  4.18652E+03  2.13445E+03  1.95400E+03  3.65600E+03  1.37978E+03  7.70925E+02
  2.31616E+03  8.06905E+02  2.85923E+03  1.67534E+03  2.80692E+03  3.73019E+03  3.01751E+03  5.44329E+03
 -2.51938E+03  8.53986E+03 -8.37101E+03  9.86384E+03 -1.10064E+04  2.22847E+03 -1.16949E+04 -4.52386E+03
 -5.71670E+03 -1.09622E+04  1.63649E+03 -1.23292E+04  7.08689E+03 -7.61428E+03  9.31819E+03 -2.03424E+03
  6.61113E+03  4.00655E+03  8.13312E+02  6.94409E+03 -2.69082E+03  3.58032E+03 -4.93507E+03 -2.16311E+02
 -1.48642E+03 -4.77617E+03  2.62024E+03 -4.40810E+03  3.66208E+03 -2.69722E+03  4.68659E+03  3.78738E+02
  2.63272E+03  2.18410E+03  1.41666E+03  1.76313E+03 -8.43102E+02  2.13913E+03  1.68539E+03 -6.89903E+02
  1.79849E+03 -8.26425E+02  4.61116E+03  1.50956E+03  1.86925E+03  5.63868E+03 -9.25647E+02  8.18655E+03
 -5.11940E+03  4.48891E+03 -6.93988E+03  9.16304E+02 -5.63177E+03 -2.23373E+03 -2.25308E+03 -4.09241E+03
  6.06764E+02 -3.98272E+03  2.57916E+03 -2.16575E+03  2.52376E+03  2.57479E+03 -1.17987E+03  3.60048E+03
 -4.64030E+03  1.92994E+03 -4.56553E+03 -2.39554E+03 -3.22064E+03 -5.76440E+03  1.33758E+03 -5.53363E+03
  3.04291E+03 -2.53852E+03  3.75658E+03  1.61486E+01  3.48540E+03  8.36425E+02  1.60210E+03  3.30124E+03
 -1.23182E+03  6.90306E+02 -2.52798E+03 -2.03299E+03  6.51182E+02 -3.15455E+03  5.34157E+03 -3.79020E+03
  6.44124E+03  8.00030E+02  6.63377E+03  4.78885E+03  1.52248E+03  6.50108E+03 -1.57780E+03  6.27644E+03
 -6.20856E+03  2.88167E+03 -5.34182E+03 -1.31899E+03 -2.57547E+03 -4.73513E+03  7.31169E+02 -4.31807E+03
  4.55628E+03 -1.90281E+03  3.00248E+03  1.25153E+03  1.26075E+03  3.67844E+03  2.07737E+02  3.60693E+03
 -1.73171E+03  1.83375E+03 -1.68905E+03  3.85063E+02 -2.57570E+02  5.91852E+02 -1.21753E+03  1.49386E+03
 -1.74045E+03  2.88432E+03 -4.42356E+03  1.93571E+03 -5.96079E+03 -1.66480E+01 -7.19265E+03 -4.29942E+03
 -3.37041E+03 -8.20516E+03  1.67852E+03 -9.32906E+03  5.97118E+03 -8.07474E+03  9.52376E+03 -3.00353E+03
  8.79294E+03  1.54894E+03  4.81890E+03  6.36913E+03 -1.96100E+00  6.87743E+03 -2.72827E+03  5.07942E+03
 -3.59997E+03  1.00038E+03 -2.10192E+03 -5.06161E+02 -1.12317E+03 -4.67996E+02 -7.53315E+02 -8.04694E+01
 -1.40361E+03 -1.20310E+02 -1.36672E+03 -5.57095E+02 -1.67326E+02 -9.91177E+02  2.55574E+01 -2.55360E+03
  3.04659E+03 -1.58938E+03  2.93554E+03  1.29872E+02  4.04437E+03  3.98556E+03  7.18097E+02  6.68792E+03
 -2.39223E+03  7.66841E+03 -6.39960E+03  3.74816E+03 -7.24305E+03  4.96596E+02 -6.10658E+03 -4.83136E+03
 -2.10886E+03 -6.89450E+03  1.58129E+03 -6.12702E+03  4.61544E+03 -3.25142E+03  3.26237E+03 -3.62194E+02
  2.37397E+03  1.65215E+03 -3.31199E+01  1.81702E+03 -1.18077E+03 -1.21885E+01  4.05973E+01 -1.47192E+03
  2.12687E+03 -4.01001E+02  2.51965E+03  1.02218E+03  1.80844E+03  1.95641E+03  4.98447E+02  3.64924E+03
 -2.62767E+03  2.82161E+03 -4.18041E+03  1.83236E+02 -3.68518E+03 -2.99636E+03 -1.08158E+02 -4.89724E+03
  3.66038E+03 -4.29059E+03  4.52842E+03 -1.64755E+03  4.59540E+03 -2.48952E+02  2.75579E+03  3.23979E+03
  5.41123E+02  3.15436E+03 -2.08195E+03  2.33832E+03 -2.83474E+03  2.57485E+03 -2.13115E+03  8.97322E+02
 -8.43915E+02 -2.51842E+02 -1.78864E+03  6.81551E+02 -2.08430E+03  6.41695E+02 -2.48440E+03 -1.03608E+03
 -3.11149E+03 -1.62445E+03 -8.25033E+02 -4.47997E+03  1.53311E+03 -4.49018E+03  3.92957E+03 -1.81887E+03
  3.74935E+03  8.49709E+00  1.65900E+03  2.82060E+03 -4.51117E+02  4.34189E+03 -3.00256E+03  3.50350E+03
