 $NMID ID='MM_0lb_SNR400_14hz_g50_86.RAW', FMTDAT='(8E13.5)'
 TRAMP=1., VOLUME=1. $END
  3.10304E+05  3.04461E+02  3.38084E+05  2.50213E+05  8.52820E+04  3.37951E+05 -1.32275E+05  2.50824E+05
 -1.90289E+05  8.39701E+04 -1.11470E+05 -3.27561E+04  1.11447E+03 -5.04337E+04  5.37681E+04 -2.21490E+02
  3.51782E+04  5.25961E+04 -1.68251E+04  7.51374E+04 -6.09063E+04  6.37320E+04 -8.40689E+04  3.20961E+04
 -8.11122E+04 -1.12171E+04 -5.73176E+04 -5.13061E+04 -1.52362E+04 -6.95492E+04  2.78112E+04 -4.57357E+04
  4.00360E+04  4.07445E+03  1.62516E+04  4.77333E+04 -3.48013E+04  4.73562E+04 -6.69321E+04 -4.87989E+02
 -5.35983E+04 -5.68624E+04 -6.58937E+03 -7.67785E+04  3.36860E+04 -5.46646E+04  4.77918E+04 -1.72758E+04
  4.35678E+04  1.14458E+04  3.20517E+04  2.51048E+04  1.60513E+04  2.94281E+04 -5.39623E+03  2.72822E+04
 -2.24513E+04  1.25027E+04 -1.86673E+04 -5.58004E+03  5.93763E+03 -7.45320E+03  2.26022E+04  1.25513E+04
  6.66295E+03  3.53995E+04 -3.16951E+04  3.58400E+04 -6.31605E+04  2.38591E+03 -5.63247E+04 -4.24604E+04
 -1.25002E+04 -6.34132E+04  3.95551E+04 -4.53014E+04  5.86740E+04 -2.49692E+03  3.38814E+04  3.24017E+04
 -5.94400E+03  3.55332E+04 -2.98543E+04  1.58119E+04 -3.02171E+04 -4.20907E+03 -1.72084E+04 -1.08296E+04
 -8.57853E+03 -1.31086E+04 -6.10330E+02 -1.83628E+04  8.11477E+03 -2.30825E+04  1.55065E+04 -1.27987E+04
  1.13900E+04  5.72328E+03 -8.24702E+03  1.31277E+04 -2.08141E+04 -4.77641E+03 -9.05236E+03 -3.36053E+04
  2.21858E+04 -4.35499E+04  4.82701E+04 -1.93130E+04  4.57595E+04  1.93971E+04  1.55810E+04  4.46137E+04
 -1.60728E+04  3.28721E+04 -2.54416E+04  1.43451E+03 -1.02324E+04 -2.75058E+04  2.06173E+04 -3.43575E+04
  4.14544E+04 -8.65869E+03  3.56718E+04  2.38085E+04  1.87660E+04  4.59015E+04 -7.98961E+03  5.02536E+04
 -3.12626E+04  3.39485E+04 -4.20814E+04  9.78790E+03 -4.32170E+04 -1.70098E+04 -2.37107E+04 -3.81593E+04
  6.93675E+03 -3.81113E+04  3.18239E+04 -1.52464E+04  2.92624E+04  1.03387E+04  3.80204E+03  1.95219E+04
 -1.29381E+04  7.67658E+03 -9.90449E+03 -7.60383E+03  6.39361E+03 -1.05617E+04  1.77922E+04  5.47019E+03
  1.36711E+04  2.21297E+04 -6.32241E+03  2.51658E+04 -2.24891E+04  1.12876E+04 -2.77133E+04 -4.68978E+03
 -2.07377E+04 -1.75451E+04 -8.32842E+03 -2.07612E+04  4.29996E+03 -1.97027E+04  1.60883E+04 -1.91616E+04
  2.62831E+04 -1.28997E+04  3.24481E+04  3.02791E+03  2.44772E+04  2.05337E+04  4.44377E+03  3.73862E+04
 -1.80420E+04  3.03571E+04 -2.76337E+04  1.00783E+04 -2.05466E+04 -1.00048E+04 -4.43262E+03 -1.33691E+04
  1.51105E+03 -3.02784E+03 -4.45515E+03  6.10167E+03 -1.63418E+04  5.71255E+03 -1.65275E+04 -6.87707E+03
 -1.03910E+04 -1.96688E+04  4.93314E+03 -2.32197E+04  1.56669E+04 -1.66210E+04  1.82473E+04 -1.51075E+03
  1.15521E+04  1.32717E+04 -8.80890E+02  1.87505E+04 -1.29863E+04  1.10549E+04 -1.88010E+04 -3.87232E+03
 -1.44612E+04 -1.67573E+04 -2.22505E+03 -2.37511E+04  1.10035E+04 -1.88886E+04  1.92647E+04 -8.79588E+03
  1.84913E+04  1.44344E+02  1.30821E+04  4.89689E+03  6.76098E+03  4.90092E+02  9.51212E+03 -1.28834E+03
  1.75914E+04  2.53640E+03  1.93638E+04  1.51767E+04  1.31533E+04  3.01609E+04 -3.28500E+03  3.44696E+04
 -2.01682E+04  2.75677E+04 -3.26279E+04  1.42223E+04 -3.39923E+04 -2.21216E+03 -2.71701E+04 -1.90048E+04
 -1.15970E+04 -2.76729E+04  9.34398E+03 -2.49499E+04  2.16230E+04 -1.34384E+04  1.93454E+04  5.42152E+03
  6.47532E+03  1.43518E+04 -9.51186E+03  1.30296E+04 -1.59852E+04  2.45662E+03 -1.26648E+04 -1.01703E+04
 -5.70292E+02 -1.55214E+04  8.00784E+03 -1.18296E+04  1.04194E+04 -1.04458E+03  2.77703E+03  6.38599E+03
 -6.95419E+03  2.47117E+03 -5.78102E+03 -5.42740E+03 -4.30095E+02 -1.42246E+04  9.52896E+03 -1.48384E+04
  1.71406E+04 -7.39945E+03  1.77986E+04  3.14195E+03  1.59105E+04  1.37129E+04  7.63071E+03  2.03300E+04
 -3.82488E+03  2.22579E+04 -1.48449E+04  1.42042E+04 -1.59759E+04  3.91266E+03 -1.13061E+04 -3.58740E+03
 -5.49191E+03 -5.10085E+03 -9.76940E+02  2.02616E+03 -2.60567E+03  2.27435E+03 -4.92652E+03  4.64906E+03
 -1.07762E+04 -4.63162E+02 -1.07473E+04 -8.84929E+03 -4.61173E+03 -1.51120E+04  5.40594E+03 -1.10364E+04
  9.54991E+03 -4.85827E+03  7.31622E+03  2.89861E+03  3.30640E+02  4.35849E+03 -4.77660E+03 -4.49518E+02
 -4.95127E+03 -7.06813E+03 -1.05036E+03 -1.11823E+04  6.21447E+03 -1.10415E+04  1.44292E+04 -5.68454E+03
  1.68844E+04  1.48876E+03  1.23093E+04  9.61758E+03  1.80901E+03  1.23848E+04 -7.09229E+03  1.10489E+04
 -9.50541E+03  3.33308E+03 -4.89473E+03 -2.60840E+03  1.17837E+03 -2.77652E+03  5.77384E+03 -9.00561E+02
  4.99045E+03  5.06564E+03  1.59151E+03  8.79369E+03 -6.16782E+03  8.57824E+03 -1.11346E+04  2.27050E+03
 -6.81852E+03 -5.38198E+03  6.33816E+02 -9.20173E+03  6.23783E+03 -4.96958E+03  5.89533E+03  2.79595E+03
  1.11664E+03  5.67884E+03 -5.53241E+03  7.54628E+03 -7.99942E+03  3.39286E+03 -8.47038E+03 -2.27043E+03
 -4.33360E+03 -9.87422E+03  2.34060E+03 -1.15145E+04  9.60873E+03 -7.46102E+03  1.08248E+04  1.56463E+03
  6.25900E+03  8.29681E+03 -9.10855E+02  1.07612E+04 -7.31596E+03  6.30089E+03 -7.80028E+03 -6.51691E+02
 -7.43328E+03 -7.25089E+03 -1.86775E+03 -7.88989E+03  4.45923E+03 -6.74387E+03  4.91808E+03 -3.14175E+03
  3.86024E+03  6.51599E+02 -7.04907E+02  1.32207E+03 -5.75003E+02 -1.27821E+03  1.27551E+03 -4.04265E+03
  6.54085E+03 -1.79160E+03  1.00363E+04  1.56664E+03  9.72202E+03  5.38131E+03  6.90023E+03  1.21576E+04
 -2.84356E+03  1.42973E+04 -1.27137E+04  1.04060E+04 -1.56480E+04  2.47258E+03 -1.28751E+04 -5.31277E+03
 -6.85215E+03 -1.00295E+04 -4.38758E+02 -9.03513E+03  3.68711E+03 -4.32097E+03  3.16973E+03 -3.49517E+03
  2.35898E+03 -1.97046E+03  2.79246E+03 -2.39219E+03  4.80039E+03 -2.23935E+03  5.47529E+03 -4.10010E+01
  6.48124E+03  1.30321E+03  3.26671E+03  5.34703E+03 -1.72175E+03  6.46013E+03 -7.23940E+03  5.13193E+03
 -8.07909E+03 -6.84361E+02 -4.25770E+03 -5.37988E+03 -3.47954E+02 -8.39801E+03  5.11653E+03 -9.26413E+03
  9.25085E+03 -5.13414E+03  1.15951E+04  1.35450E+03  7.96451E+03  7.79881E+03  1.75080E+03  1.01896E+04
 -3.89768E+03  9.13384E+03 -5.86594E+03  2.70189E+03 -4.62556E+03 -1.31396E+03 -1.31945E+03 -6.22786E+02
 -1.06095E+03  6.55412E+02 -1.50491E+03  2.15969E+03 -3.66135E+03  1.53483E+03 -6.25020E+03 -6.18372E+02
 -3.90122E+03 -5.87371E+03  7.98739E+02 -8.49790E+03  4.68002E+03 -7.49258E+03  7.40319E+03 -2.30270E+03
  6.98954E+03  3.94087E+03  3.68889E+03  7.41718E+03 -1.76177E+03  8.09547E+03 -4.91121E+03  5.55139E+03
 -7.25113E+03  8.31042E+02 -5.68541E+03 -4.99532E+03 -7.37703E+02 -7.04548E+03  2.57910E+03 -4.70969E+03
  5.06003E+03 -2.08371E+03  2.84494E+03  8.10798E+02  9.83870E+02  2.27652E+03  5.62466E+02  1.07161E+03
  1.78297E+03  1.01137E+03  1.55668E+03  1.36706E+03  1.69851E+03  2.51001E+03  1.40315E+03  3.65053E+03
 -1.24064E+03  5.58316E+03 -5.04009E+03  7.05915E+03 -7.60150E+03  2.09132E+03 -8.07160E+03 -2.59457E+03
 -3.59302E+03 -7.47154E+03  1.00016E+03 -8.68983E+03  3.46915E+03 -5.42582E+03  6.58952E+03 -1.76982E+03
  4.99546E+03  3.32862E+03  9.94363E+02  4.28633E+03 -1.82828E+03  3.34289E+03 -2.70910E+03  6.60193E+01
 -8.84751E+02 -2.88039E+03  2.07428E+03 -3.15637E+03  2.85981E+03 -1.71784E+03  2.57914E+03  1.11366E+03
  1.73734E+03  1.26412E+03  9.93675E+02  3.32647E+02 -7.02222E+02  1.25831E+03  1.20934E+03  4.47015E+02
  9.18272E+02 -5.64400E+02  3.16004E+03  1.38075E+03  1.16116E+03  3.88167E+03 -6.29139E+02  5.83641E+03
 -3.69001E+03  2.53372E+03 -4.77998E+03  6.53191E+02 -4.32793E+03 -1.69493E+03 -2.02545E+03 -2.56521E+03
  6.90357E+02 -3.16231E+03  2.57272E+03 -1.04138E+03  1.54839E+03  1.76181E+03 -1.09307E+03  2.30150E+03
 -3.20258E+03  1.50595E+03 -2.77453E+03 -1.91984E+03 -1.75562E+03 -4.48311E+03  3.71117E+02 -4.10754E+03
  1.58435E+03 -1.97793E+03  2.46966E+03 -5.83950E+01  1.69040E+03  1.22297E+03  2.54280E+02  2.11118E+03
 -1.62481E+03 -3.51462E+02 -1.74945E+03 -5.99228E+02  6.19930E+02 -2.73378E+03  3.60919E+03 -2.47446E+03
  4.52688E+03 -7.45274E+01  4.49006E+03  2.22762E+03  2.08912E+03  4.45396E+03 -1.43383E+03  4.66307E+03
 -3.33253E+03  1.39597E+03 -3.37883E+03 -3.91114E+02 -2.13358E+03 -2.95770E+03  5.37467E+02 -1.97785E+03
  3.25085E+03 -9.83545E+02  2.24499E+03  8.26904E+02  5.53821E+02  2.08197E+03 -4.40557E+02  2.09766E+03
 -8.17698E+02  1.77697E+03 -1.08584E+03  7.62273E+02 -4.85834E+02  8.08969E+02 -8.27500E+02  8.10368E+02
 -5.87012E+02  2.24128E+03 -3.38906E+03  1.14721E+03 -3.72793E+03 -3.58969E+02 -4.80162E+03 -2.10672E+03
 -2.85689E+03 -5.85383E+03  1.23235E+03 -6.05616E+03  2.92140E+03 -5.58822E+03  6.25990E+03 -2.05407E+03
  5.72401E+03  1.22530E+03  3.46798E+03  3.64354E+03  3.77564E+02  4.33075E+03 -1.42439E+03  2.97658E+03
 -2.40623E+03  1.67302E+03 -1.36628E+03 -9.25781E+02 -1.29704E+03 -6.21984E+00 -1.87204E+02  1.82449E+02
 -8.37049E+02 -2.40895E+02 -1.08818E+03 -1.36888E+02 -4.00284E+00 -1.05640E+03  2.11162E-02 -1.48340E+03
  2.61088E+03 -8.69636E+02  2.54416E+03  1.49905E+01  2.60216E+03  2.41078E+03  7.50124E+02  4.14113E+03
 -2.46036E+03  4.96031E+03 -4.22573E+03  3.43116E+03 -4.12561E+03 -4.77680E+02 -3.33478E+03 -2.77984E+03
 -1.66591E+03 -3.62945E+03  1.07420E+03 -3.92924E+03  2.09957E+03 -2.59399E+03  2.49485E+03  4.78818E+02
  1.92129E+03  1.39708E+03  4.76559E+02  1.29271E+03 -4.51785E+02  5.12575E+01  3.46127E+01 -1.01476E+03
  1.14999E+03 -9.73330E+02  8.35724E+02  9.85868E+02  8.72090E+02  1.11183E+03 -4.42610E+02  1.33618E+03
 -1.71364E+03  2.03072E+03 -2.26757E+03  1.23171E+02 -2.24677E+03 -2.11969E+03 -8.19668E+02 -3.00755E+03
  1.77861E+03 -2.88039E+03  2.54242E+03 -6.27559E+02  2.96905E+03  4.00370E+02  1.43620E+03  2.54997E+03
  6.80100E+02  2.48269E+03 -1.21706E+03  2.07465E+03 -8.63937E+02  1.49794E+03 -1.18649E+03  7.31310E+02
 -1.52418E+01  3.21916E+02 -9.91789E+02  2.09012E+02 -6.49063E+02  6.67951E+02 -1.34568E+03 -1.87811E+02
 -1.85870E+03 -4.73244E+02 -9.23193E+02 -2.44632E+03  1.14265E+03 -2.94078E+03  1.98943E+03 -7.50549E+02
  2.21120E+03  4.90519E+02  3.39625E+02  2.13090E+03  1.26176E+02  2.43075E+03 -2.04420E+03  1.63254E+03
