 $NMID ID='MM_0lb_SNR400_13hz_g50_91.RAW', FMTDAT='(8E13.5)'
 TRAMP=1., VOLUME=1. $END
  3.09577E+05  6.11391E+02  3.37557E+05  2.50792E+05  8.43489E+04  3.38408E+05 -1.32944E+05  2.51258E+05
 -1.90315E+05  8.39067E+04 -1.12201E+05 -3.33474E+04  5.14067E+02 -5.05895E+04  5.38328E+04 -3.01552E+02
  3.46946E+04  5.22539E+04 -1.70389E+04  7.53948E+04 -6.06519E+04  6.36150E+04 -8.42748E+04  3.22153E+04
 -8.20747E+04 -1.13120E+04 -5.70209E+04 -5.08875E+04 -1.53731E+04 -7.00011E+04  2.76522E+04 -4.60079E+04
  4.03019E+04  3.90407E+03  1.64066E+04  4.85250E+04 -3.41583E+04  4.75184E+04 -6.69681E+04 -2.93730E+02
 -5.37890E+04 -5.74058E+04 -6.89647E+03 -7.70849E+04  3.41716E+04 -5.60530E+04  4.88564E+04 -1.74285E+04
  4.36943E+04  1.16977E+04  3.14563E+04  2.51463E+04  1.57607E+04  2.94214E+04 -5.40043E+03  2.76490E+04
 -2.20305E+04  1.29213E+04 -1.90581E+04 -4.69713E+03  6.70469E+03 -7.28097E+03  2.25659E+04  1.22029E+04
  6.71259E+03  3.56995E+04 -3.24652E+04  3.56136E+04 -6.43101E+04  1.50556E+03 -5.69152E+04 -4.25900E+04
 -1.22262E+04 -6.37648E+04  3.98992E+04 -4.58476E+04  5.90056E+04 -2.54594E+03  3.45710E+04  3.30620E+04
 -5.55154E+03  3.68251E+04 -3.04402E+04  1.70893E+04 -3.12361E+04 -3.61058E+03 -1.70182E+04 -1.11494E+04
 -8.46709E+03 -1.33924E+04 -8.19157E+02 -1.84746E+04  7.72342E+03 -2.30275E+04  1.52439E+04 -1.33402E+04
  1.14063E+04  6.41022E+03 -8.98034E+03  1.29628E+04 -2.19958E+04 -5.32400E+03 -7.52690E+03 -3.48288E+04
  2.35082E+04 -4.46344E+04  4.92719E+04 -2.04596E+04  4.65105E+04  1.96490E+04  1.61927E+04  4.46085E+04
 -1.60357E+04  3.35473E+04 -2.53794E+04  2.06623E+03 -1.01952E+04 -2.81914E+04  2.06843E+04 -3.42816E+04
  4.13863E+04 -9.79221E+03  3.61832E+04  2.44603E+04  1.87832E+04  4.77253E+04 -7.74244E+03  5.18905E+04
 -3.27413E+04  3.51652E+04 -4.34687E+04  1.00567E+04 -4.30952E+04 -1.69748E+04 -2.40274E+04 -3.87974E+04
  6.99483E+03 -3.82605E+04  3.21185E+04 -1.46862E+04  2.97051E+04  1.14545E+04  4.10367E+03  1.87107E+04
 -1.39812E+04  9.69714E+03 -1.06482E+04 -7.34375E+03  6.00991E+03 -1.07574E+04  1.78572E+04  6.95538E+03
  1.41138E+04  2.22982E+04 -5.86568E+03  2.54339E+04 -2.23132E+04  1.19831E+04 -2.84369E+04 -4.77705E+03
 -2.13960E+04 -1.75800E+04 -8.71823E+03 -2.11592E+04  3.76819E+03 -2.03847E+04  1.67869E+04 -1.85758E+04
  2.70688E+04 -1.34226E+04  3.33928E+04  3.36023E+03  2.45231E+04  2.09851E+04  5.16459E+03  3.73515E+04
 -1.80850E+04  3.09477E+04 -2.83861E+04  1.11472E+04 -2.16295E+04 -1.03410E+04 -4.25121E+03 -1.29060E+04
  1.59329E+03 -2.32021E+03 -5.73525E+03  7.39932E+03 -1.73167E+04  5.16703E+03 -1.71017E+04 -7.47260E+03
 -1.09350E+04 -2.04377E+04  5.26452E+03 -2.38916E+04  1.64423E+04 -1.71277E+04  1.94338E+04 -1.99970E+03
  1.19931E+04  1.38171E+04 -1.01408E+03  2.00165E+04 -1.36626E+04  1.11954E+04 -1.95859E+04 -4.07913E+03
 -1.42756E+04 -1.79880E+04 -1.75309E+03 -2.36165E+04  1.00492E+04 -2.01437E+04  1.99017E+04 -9.91976E+03
  1.76623E+04  3.68969E+02  1.34296E+04  5.19728E+03  7.43344E+03  1.84282E+03  1.01494E+04 -1.46053E+03
  1.87548E+04  2.96931E+03  2.05693E+04  1.56139E+04  1.33615E+04  3.18113E+04 -2.57576E+03  3.65238E+04
 -2.10451E+04  2.88830E+04 -3.33956E+04  1.40899E+04 -3.59120E+04 -2.76384E+03 -2.93738E+04 -2.06172E+04
 -1.23736E+04 -2.97205E+04  1.04375E+04 -2.63217E+04  2.27235E+04 -1.32180E+04  2.05394E+04  5.68486E+03
  7.85355E+03  1.54903E+04 -9.47678E+03  1.38566E+04 -1.75225E+04  3.09806E+03 -1.29998E+04 -1.01630E+04
 -5.01091E+02 -1.58573E+04  9.07037E+03 -1.23098E+04  1.09426E+04 -1.18568E+03  2.67826E+03  7.38468E+03
 -6.58004E+03  2.72289E+03 -5.41687E+03 -5.51881E+03 -1.17680E+03 -1.44597E+04  1.00697E+04 -1.51922E+04
  1.76864E+04 -8.52470E+03  1.96381E+04  2.78617E+03  1.71805E+04  1.47462E+04  7.17043E+03  2.18221E+04
 -3.24335E+03  2.43530E+04 -1.54200E+04  1.50627E+04 -1.75181E+04  3.48497E+03 -1.19176E+04 -4.36095E+03
 -5.15658E+03 -5.36239E+03 -9.38296E+02  1.20351E+03 -2.87064E+03  2.57908E+03 -5.92375E+03  4.88736E+03
 -1.18760E+04 -5.73563E+02 -1.20698E+04 -1.00645E+04 -4.92642E+03 -1.57522E+04  5.18147E+03 -1.20134E+04
  9.77537E+03 -5.11563E+03  7.03440E+03  3.61329E+03  1.64250E+02  4.96346E+03 -5.55568E+03 -7.05181E+01
 -5.18030E+03 -7.48706E+03 -7.30157E+02 -1.18416E+04  6.87328E+03 -1.23030E+04  1.49583E+04 -6.40107E+03
  1.80240E+04  1.41963E+03  1.33321E+04  1.04923E+04  1.83421E+03  1.36899E+04 -7.14710E+03  1.23905E+04
 -9.63060E+03  4.15041E+03 -5.07648E+03 -2.73424E+03  1.79246E+03 -3.87758E+03  6.28089E+03 -1.03820E+03
  5.77501E+03  4.76791E+03  1.48473E+03  9.68971E+03 -7.19870E+03  9.55213E+03 -1.18835E+04  2.43871E+03
 -8.03032E+03 -5.99627E+03  2.62819E+02 -1.06039E+04  6.70791E+03 -5.55780E+03  6.28053E+03  1.47362E+03
  1.25483E+03  6.61170E+03 -6.22715E+03  8.64838E+03 -9.14824E+03  3.73977E+03 -9.77068E+03 -2.94601E+03
 -4.90466E+03 -1.04629E+04  2.90867E+03 -1.30313E+04  1.00636E+04 -8.38210E+03  1.15876E+04  1.98131E+03
  6.78929E+03  9.39247E+03 -1.01295E+03  1.18349E+04 -8.77369E+03  6.74109E+03 -9.38287E+03 -6.05231E+02
 -8.43957E+03 -7.52851E+03 -1.03802E+03 -8.54813E+03  4.58878E+03 -6.67748E+03  5.08115E+03 -2.86260E+03
  3.82759E+03  1.80157E+03 -6.29649E+02  1.45432E+03 -1.37353E+02 -1.72059E+03  2.07002E+03 -4.43989E+03
  7.88251E+03 -2.26273E+03  1.01494E+04  1.26141E+03  1.05178E+04  6.34922E+03  7.36653E+03  1.39506E+04
 -3.09970E+03  1.54227E+04 -1.39545E+04  1.13649E+04 -1.75464E+04  2.20334E+03 -1.40406E+04 -5.92695E+03
 -7.70656E+03 -1.15487E+04 -5.25262E+02 -9.12198E+03  3.61230E+03 -5.20537E+03  3.11898E+03 -3.86120E+03
  2.87151E+03 -2.47583E+03  3.12263E+03 -3.31674E+03  4.52018E+03 -2.04841E+03  5.58771E+03 -1.47078E+02
  7.84042E+03  1.44248E+03  3.42976E+03  6.56839E+03 -3.08389E+03  6.76038E+03 -7.17469E+03  5.55727E+03
 -9.19334E+03 -9.60879E+02 -5.57944E+03 -6.57972E+03 -2.03458E+02 -1.02711E+04  5.47318E+03 -1.05641E+04
  1.08709E+04 -5.89353E+03  1.32748E+04  1.00172E+03  8.52392E+03  8.23398E+03  1.29791E+03  1.07498E+04
 -4.37548E+03  9.83125E+03 -6.89301E+03  3.53007E+03 -4.55135E+03 -1.04802E+03 -1.76327E+03 -1.64735E+03
 -9.78993E+02 -1.52211E+02 -1.33845E+03  2.10445E+03 -3.69655E+03  1.48885E+03 -7.27027E+03 -1.64299E+03
 -3.71141E+03 -7.61233E+03  2.38849E+02 -9.82194E+03  5.58012E+03 -8.57141E+03  8.13355E+03 -2.13373E+03
  8.88648E+03  4.71030E+03  3.40517E+03  7.85733E+03 -1.90198E+03  8.83907E+03 -6.07720E+03  5.10671E+03
 -8.79374E+03  7.93490E+02 -6.69221E+03 -5.17784E+03 -1.08011E+03 -7.50796E+03  3.23210E+03 -5.81108E+03
  5.55615E+03 -1.71508E+03  3.73569E+03  2.15297E+03  9.40624E+02  3.83668E+03  9.94776E+02  1.26632E+03
  2.28597E+03  3.08623E+02  2.02006E+03  1.14312E+03  2.50306E+03  4.14724E+03  2.47239E+03  4.83721E+03
 -2.21807E+03  7.02601E+03 -5.61240E+03  7.37941E+03 -8.10835E+03  1.58838E+03 -9.02808E+03 -4.00571E+03
 -4.24239E+03 -8.94088E+03  1.61997E+03 -1.01406E+04  5.47282E+03 -6.39183E+03  6.91177E+03 -1.33456E+03
  5.50576E+03  4.01697E+03  1.59557E+03  5.50088E+03 -1.84171E+03  2.72952E+03 -3.85339E+03 -1.08894E+03
 -1.79759E+03 -3.55085E+03  2.59903E+03 -4.21311E+03  3.62993E+03 -2.17843E+03  3.47394E+03  3.56505E+02
  2.27588E+03  1.56910E+03  9.34696E+02  8.72564E+02 -3.64644E+02  1.49250E+03  2.28131E+03 -1.38374E+02
  1.85611E+03 -5.63595E+02  3.87347E+03  1.70305E+03  2.06810E+03  4.85712E+03 -1.07512E+03  6.15884E+03
 -4.05635E+03  3.78184E+03 -5.90514E+03  1.54145E+03 -4.94305E+03 -2.08088E+03 -1.01446E+03 -2.78264E+03
  9.88228E+02 -2.96089E+03  2.34580E+03 -1.94537E+03  1.70887E+03  2.24604E+03 -1.28365E+03  3.21292E+03
 -3.52368E+03  1.95117E+03 -2.98387E+03 -1.92017E+03 -2.18741E+03 -4.73615E+03  3.64468E+02 -4.64935E+03
  2.55889E+03 -2.34079E+03  2.86285E+03  2.90395E+02  3.44016E+03  6.68959E+02  1.32955E+03  2.20298E+03
 -1.12393E+03  1.65351E+03 -2.27623E+03 -1.40829E+03  1.49755E+03 -2.32220E+03  3.85311E+03 -2.71536E+03
  5.03530E+03  2.83940E+02  5.21580E+03  3.68651E+03  1.61160E+03  4.90967E+03 -1.63113E+03  5.23937E+03
 -4.53612E+03  2.10491E+03 -4.69161E+03 -1.00203E+02 -2.09724E+03 -3.51544E+03  1.42054E+03 -3.23163E+03
  3.33666E+03 -1.41850E+03  2.38550E+03  1.88817E+03  6.91026E+02  3.72697E+03 -3.86309E+02  2.35167E+03
 -1.54403E+03  2.05981E+03 -1.14339E+03  8.10851E+02 -9.94946E+02  1.25490E+03 -1.18680E+03  7.20071E+02
 -1.89039E+03  2.02518E+03 -3.72116E+03  1.85511E+03 -4.04073E+03  1.22902E+02 -5.99048E+03 -3.19535E+03
 -2.99761E+03 -7.14018E+03  2.02957E+03 -7.36401E+03  4.07678E+03 -6.11644E+03  6.83246E+03 -2.47232E+03
  6.25978E+03  1.35783E+03  3.58040E+03  4.88665E+03 -5.39992E+02  4.35935E+03 -2.24424E+03  3.48079E+03
 -3.11376E+03  1.75282E+03 -1.62362E+03 -4.20915E+02 -9.44196E+02 -6.22568E+02 -3.81549E+02  2.25771E+02
 -1.71059E+03 -8.62120E+02 -1.79521E+03  1.75984E+02  2.92455E+02 -1.05451E+03  2.01795E+02 -2.56892E+03
  2.42530E+03 -1.64246E+03  2.27740E+03  6.13448E+02  3.84676E+03  2.63622E+03  2.47109E+02  5.58022E+03
 -2.47104E+03  6.64421E+03 -5.54779E+03  3.40669E+03 -6.09826E+03 -6.19747E+02 -4.28033E+03 -4.03836E+03
 -2.29427E+03 -5.08808E+03  9.69785E+02 -4.01525E+03  2.66396E+03 -2.12266E+03  2.79472E+03 -1.16425E+02
  1.69073E+03  1.97728E+03 -6.28927E+00  1.59598E+03 -8.09567E+02 -3.94709E+02  2.91315E+02 -1.27014E+03
  1.91506E+03  1.59280E+02  2.21085E+03  9.36673E+02  9.24856E+02  1.97252E+03  2.82918E+02  1.84759E+03
 -1.50434E+03  1.92851E+03 -2.89351E+03  2.61256E+02 -2.35463E+03 -1.29907E+03 -5.56229E+02 -4.05588E+03
  1.92141E+03 -2.84201E+03  2.85670E+03 -8.25118E+02  3.60666E+03 -1.91406E+02  2.78615E+03  3.00142E+03
 -2.66122E+02  2.78121E+03 -1.02423E+03  2.98615E+03 -1.33626E+03  1.21348E+03 -1.51544E+03 -9.81424E+01
 -7.71981E+02 -9.58534E+01 -8.79478E+02  2.75403E+02 -1.37413E+03  9.28095E+02 -2.01862E+03 -8.39339E+02
 -2.25434E+03 -1.28370E+03 -3.26213E+02 -3.66854E+03  1.64146E+03 -3.05193E+03  2.76562E+03 -1.11357E+03
  2.89939E+03  1.49194E+02  9.09934E+02  1.43482E+03  1.68309E+02  3.56086E+03 -2.14722E+03  2.00072E+03
