 $NMID ID='MM_0lb_SNR400_8hz_g40_88.RAW', FMTDAT='(8E13.5)'
 TRAMP=1., VOLUME=1. $END
  3.09557E+05 -1.66795E+02  3.37897E+05  2.50492E+05  8.52180E+04  3.38394E+05 -1.32294E+05  2.52079E+05
 -1.90906E+05  8.33330E+04 -1.12861E+05 -3.15092E+04  4.47569E+02 -4.95893E+04  5.32743E+04  9.08053E+01
  3.63367E+04  5.32654E+04 -1.62773E+04  7.60065E+04 -6.21706E+04  6.51772E+04 -8.54944E+04  3.20285E+04
 -8.18972E+04 -1.18647E+04 -5.85988E+04 -5.25783E+04 -1.50909E+04 -7.00767E+04  2.74406E+04 -4.71233E+04
  4.17253E+04  3.90586E+03  1.64956E+04  4.90135E+04 -3.50340E+04  4.75537E+04 -6.88406E+04 -1.45065E+02
 -5.50410E+04 -5.79297E+04 -7.12345E+03 -7.95938E+04  3.47571E+04 -5.74920E+04  5.06766E+04 -1.78928E+04
  4.49620E+04  1.13188E+04  3.30613E+04  2.73757E+04  1.62142E+04  3.05369E+04 -5.88082E+03  2.81274E+04
 -2.26488E+04  1.19233E+04 -1.73818E+04 -5.68669E+03  7.08266E+03 -7.58998E+03  2.40720E+04  1.40672E+04
  7.29664E+03  3.76678E+04 -3.37583E+04  3.75606E+04 -6.61353E+04  2.00277E+03 -5.91451E+04 -4.39296E+04
 -1.29850E+04 -6.56200E+04  4.09910E+04 -4.80766E+04  6.16134E+04 -2.83699E+03  3.71257E+04  3.47255E+04
 -5.04747E+03  3.93982E+04 -3.12010E+04  1.83048E+04 -3.33995E+04 -3.42363E+03 -1.93047E+04 -1.11415E+04
 -9.75888E+03 -1.54880E+04 -7.58983E+02 -1.91969E+04  7.93768E+03 -2.39604E+04  1.56160E+04 -1.29988E+04
  1.07019E+04  5.50746E+03 -1.01243E+04  1.30646E+04 -2.35361E+04 -5.85391E+03 -8.38749E+03 -3.76718E+04
  2.48030E+04 -4.71856E+04  5.21196E+04 -2.15917E+04  4.89729E+04  2.09458E+04  1.80410E+04  4.70789E+04
 -1.70653E+04  3.61893E+04 -2.82664E+04  2.22828E+03 -1.11353E+04 -2.98617E+04  2.11810E+04 -3.71764E+04
  4.53896E+04 -1.11116E+04  4.05362E+04  2.56014E+04  2.09197E+04  5.06139E+04 -8.61772E+03  5.58757E+04
 -3.61476E+04  3.75071E+04 -4.75017E+04  1.23386E+04 -4.77328E+04 -1.84446E+04 -2.64616E+04 -4.25199E+04
  7.54631E+03 -4.33234E+04  3.40388E+04 -1.74123E+04  3.16494E+04  1.21401E+04  5.28544E+03  2.07422E+04
 -1.41956E+04  9.98832E+03 -1.15433E+04 -7.64052E+03  5.88226E+03 -1.17424E+04  1.90703E+04  6.24435E+03
  1.63817E+04  2.28981E+04 -4.45305E+03  2.70959E+04 -2.34242E+04  1.39038E+04 -3.12555E+04 -3.02094E+03
 -2.60532E+04 -1.85854E+04 -1.22269E+04 -2.58410E+04  4.86578E+03 -2.52993E+04  1.97364E+04 -2.29676E+04
  3.19002E+04 -1.51709E+04  3.89329E+04  5.88963E+03  2.70570E+04  2.42722E+04  5.18015E+03  4.14383E+04
 -2.04395E+04  3.41685E+04 -2.98731E+04  1.22290E+04 -2.28106E+04 -1.04853E+04 -5.13094E+03 -1.28757E+04
  9.63273E+02 -1.57147E+03 -7.94506E+03  8.72754E+03 -2.03885E+04  4.60799E+03 -1.96687E+04 -1.00042E+04
 -1.23104E+04 -2.27605E+04  6.23431E+03 -2.83378E+04  1.89319E+04 -2.03804E+04  2.24582E+04 -2.43442E+03
  1.45509E+04  1.54234E+04 -1.55381E+03  2.35509E+04 -1.66134E+04  1.29116E+04 -2.33491E+04 -5.44552E+03
 -1.69127E+04 -2.07983E+04 -2.71719E+03 -2.82291E+04  1.28585E+04 -2.34046E+04  2.33328E+04 -1.23322E+04
  2.14002E+04 -9.15545E+02  1.51697E+04  5.97673E+03  9.27443E+03  1.63916E+03  1.22143E+04 -2.04198E+03
  2.28376E+04  3.28448E+03  2.52686E+04  1.93085E+04  1.73500E+04  3.75904E+04 -2.02247E+03  4.51844E+04
 -2.61099E+04  3.92565E+04 -4.26013E+04  1.94538E+04 -4.52078E+04 -3.05442E+03 -3.68480E+04 -2.59237E+04
 -1.46544E+04 -3.79314E+04  1.33766E+04 -3.30805E+04  2.79418E+04 -1.55040E+04  2.44083E+04  8.94255E+03
  8.62880E+03  1.86270E+04 -1.19775E+04  1.58808E+04 -2.06898E+04  2.67501E+03 -1.52029E+04 -1.33940E+04
 -3.26632E+02 -1.99219E+04  1.16730E+04 -1.36470E+04  1.35523E+04 -1.24454E+03  3.46807E+03  8.58979E+03
 -9.21135E+03  4.96614E+03 -9.82342E+03 -7.93281E+03 -1.97304E+03 -1.91004E+04  1.14701E+04 -2.04042E+04
  2.40097E+04 -1.19312E+04  2.63734E+04  3.00902E+03  2.35495E+04  1.79997E+04  1.03224E+04  2.94331E+04
 -5.35130E+03  3.17494E+04 -2.02759E+04  1.96918E+04 -2.32424E+04  4.10021E+03 -1.56766E+04 -5.92466E+03
 -6.54808E+03 -9.17009E+03 -3.42207E+02 -3.31379E+02 -2.78134E+03  3.42632E+03 -7.52394E+03  5.60426E+03
 -1.43885E+04 -1.99277E+03 -1.51695E+04 -1.21440E+04 -5.94534E+03 -1.98793E+04  6.68491E+03 -1.63110E+04
  1.33304E+04 -6.34729E+03  9.32903E+03  5.18061E+03 -3.76004E+02  6.47093E+03 -8.30780E+03  8.03303E+02
 -8.84646E+03 -1.01984E+04 -1.21760E+03 -1.61852E+04  9.49126E+03 -1.64083E+04  2.08092E+04 -9.11233E+03
  2.35070E+04  2.23266E+03  1.78390E+04  1.54870E+04  3.09879E+03  1.92497E+04 -9.83160E+03  1.68523E+04
 -1.35481E+04  3.91056E+03 -6.44496E+03 -3.89988E+03  2.25717E+03 -5.69002E+03  9.02621E+03 -9.62260E+02
  7.77044E+03  7.26163E+03  1.09645E+03  1.23836E+04 -9.81677E+03  1.28419E+04 -1.50347E+04  3.55582E+03
 -1.05753E+04 -7.82461E+03 -4.55291E+02 -1.38046E+04  9.02063E+03 -7.08299E+03  8.61371E+03  3.68045E+03
  2.04939E+03  1.07693E+04 -8.95157E+03  1.19525E+04 -1.44913E+04  4.72147E+03 -1.40240E+04 -5.29037E+03
 -7.86091E+03 -1.61959E+04  3.95900E+03 -1.91804E+04  1.56689E+04 -1.07489E+04  1.76421E+04  3.16884E+03
  9.38510E+03  1.27564E+04 -1.27406E+03  1.53161E+04 -1.22797E+04  9.32971E+03 -1.25677E+04 -1.68842E+03
 -1.16113E+04 -1.09022E+04 -1.87427E+03 -1.35489E+04  7.13861E+03 -9.87374E+03  8.30574E+03 -4.38340E+03
  4.67972E+03  2.17432E+03 -6.15052E+02  7.06072E+02 -1.55271E+03 -4.31908E+03  3.11199E+03 -8.07054E+03
  1.14710E+04 -5.45169E+03  1.68170E+04  2.01803E+03  1.66127E+04  1.14971E+04  1.12085E+04  2.17996E+04
 -5.16938E+03  2.52433E+04 -2.07450E+04  1.79870E+04 -2.71694E+04  2.86922E+03 -2.12970E+04 -9.55055E+03
 -9.82984E+03 -1.85924E+04 -8.90367E+02 -1.58401E+04  5.74706E+03 -9.10517E+03  5.47520E+03 -4.62116E+03
  4.47445E+03 -3.32589E+03  5.01030E+03 -3.40711E+03  5.92520E+03 -3.00545E+03  8.14088E+03 -1.92985E+03
  1.10850E+04  2.81368E+03  5.75980E+03  1.02800E+04 -2.67011E+03  1.19886E+04 -1.22094E+04  9.94376E+03
 -1.53396E+04 -6.43303E+02 -1.03472E+04 -1.13955E+04 -2.22267E+03 -1.61862E+04  8.79005E+03 -1.64035E+04
  1.81946E+04 -8.82916E+03  2.03628E+04  2.33931E+03  1.39481E+04  1.46937E+04  2.18183E+03  1.82261E+04
 -7.79045E+03  1.51214E+04 -9.81474E+03  5.07846E+03 -7.31000E+03 -2.49650E+03 -3.85930E+03 -3.41656E+03
 -1.83074E+03  6.70871E+02 -1.31646E+03  3.62786E+03 -6.28037E+03  2.11890E+03 -1.01583E+04 -1.28862E+03
 -7.31496E+03 -1.07552E+04  1.57719E+02 -1.61774E+04  1.00315E+04 -1.45605E+04  1.56739E+04 -3.70155E+03
  1.48170E+04  9.13238E+03  7.50713E+03  1.40821E+04 -3.96443E+03  1.55839E+04 -1.05753E+04  1.03856E+04
 -1.47796E+04  5.57928E+02 -1.13322E+04 -1.03711E+04 -1.12927E+03 -1.33732E+04  6.58979E+03 -9.99295E+03
  9.90282E+03 -3.57594E+03  7.60969E+03  3.11120E+03  2.50913E+03  5.42965E+03  1.71241E+03  2.65773E+03
  2.26799E+03  5.88289E+02  3.71101E+03  1.80900E+03  4.38067E+03  5.01289E+03  3.32001E+03  9.19003E+03
 -3.50651E+03  1.24047E+04 -1.17665E+04  1.26517E+04 -1.61705E+04  2.90282E+03 -1.65579E+04 -7.28194E+03
 -7.97413E+03 -1.59199E+04  2.77673E+03 -1.81234E+04  9.83467E+03 -1.00772E+04  1.29008E+04 -2.57592E+03
  1.00294E+04  5.80030E+03  2.78498E+03  9.34872E+03 -5.20673E+03  6.70505E+03 -7.12521E+03 -1.27078E+03
 -3.62026E+03 -6.29823E+03  3.15150E+03 -6.84428E+03  6.87795E+03 -3.28844E+03  6.70017E+03  1.26148E+03
  4.44959E+03  2.99776E+03  1.92477E+03  3.20583E+03 -5.29610E+02  1.76684E+03  2.08306E+03 -5.42899E+02
  2.54409E+03 -9.19593E+01  6.02808E+03  3.11769E+03  4.34515E+03  9.41681E+03 -2.20819E+03  1.10292E+04
 -7.92600E+03  7.71719E+03 -1.06354E+04  2.51241E+03 -8.88574E+03 -3.81531E+03 -3.40407E+03 -6.41702E+03
  8.68806E+02 -7.20529E+03  3.77741E+03 -2.89823E+03  3.98609E+03  2.29539E+03 -1.52822E+03  5.96085E+03
 -6.37678E+03  3.07014E+03 -8.01665E+03 -4.13440E+03 -4.86191E+03 -8.94308E+03  1.16761E+03 -8.81324E+03
  5.71813E+03 -6.76967E+03  7.13794E+03 -6.65917E+02  5.52031E+03  2.24532E+03 -6.78455E+00  4.12891E+03
 -4.52721E+03  9.12719E+02 -4.41521E+03 -3.09619E+03  1.15354E+03 -7.07224E+03  8.21205E+03 -4.73127E+03
  1.02220E+04  6.44769E+02  1.01902E+04  6.82392E+03  3.85210E+03  1.06876E+04 -4.28800E+03  1.02334E+04
 -9.33305E+03  4.90904E+03 -9.18696E+03 -1.26624E+03 -5.56325E+03 -6.04006E+03  1.98012E+03 -5.82617E+03
  7.23402E+03 -3.13416E+03  5.64386E+03  3.44802E+03  1.67730E+03  6.63079E+03 -1.80934E+03  5.82645E+03
 -2.69906E+03  4.14640E+03 -2.95820E+03  4.81210E+02 -1.91783E+03  1.34876E+03 -1.15865E+03  2.11966E+03
 -2.73902E+03  3.26569E+03 -7.52660E+03  4.03486E+03 -1.10568E+04 -3.55908E+01 -1.11758E+04 -7.11583E+03
 -6.81967E+03 -1.47809E+04  2.76804E+03 -1.68683E+04  1.06800E+04 -1.27913E+04  1.66776E+04 -5.74976E+03
  1.50024E+04  2.34808E+03  8.78989E+03  9.65519E+03 -2.86409E+02  1.20535E+04 -4.52720E+03  9.56102E+03
 -5.96252E+03  2.67852E+03 -4.60201E+03 -9.53083E+02 -1.47625E+03 -1.31773E+03  2.84867E+02  8.04241E+01
 -2.27321E+03  5.08790E+02 -2.54835E+03 -5.88698E+01 -1.33254E+03 -2.58719E+03  3.00576E+02 -3.18329E+03
  4.66629E+03 -3.75927E+03  7.16542E+03  2.64138E+02  8.16441E+03  7.34092E+03  1.98342E+03  1.20267E+04
 -5.68105E+03  1.30871E+04 -1.19858E+04  7.87993E+03 -1.43943E+04 -4.76838E+02 -1.08145E+04 -8.31343E+03
 -3.63638E+03 -1.22444E+04  3.73736E+03 -1.03278E+04  7.37933E+03 -6.69194E+03  8.23795E+03  2.44386E+02
  4.62797E+03  4.05691E+03 -1.31469E+02  2.58569E+03 -2.11015E+03 -1.00691E+03  5.58822E+02 -2.32564E+03
  3.37593E+03 -1.97388E+03  5.19229E+03  2.22210E+03  3.30011E+03  4.76393E+03  1.67752E+02  6.46677E+03
 -5.58089E+03  5.99142E+03 -8.28127E+03  1.49759E+03 -6.99085E+03 -5.60416E+03 -1.01793E+03 -1.03148E+04
  5.44428E+03 -8.96719E+03  8.39892E+03 -1.52290E+03  9.05535E+03  2.16765E+03  4.24992E+03  7.42183E+03
  9.70130E+02  7.91079E+03 -3.29830E+03  5.77169E+03 -5.08502E+03  3.18702E+03 -5.16514E+03  9.21873E+02
 -1.60559E+03 -4.39807E+01 -1.60949E+03  8.28362E+02 -3.91123E+03  1.40969E+03 -6.87191E+03 -8.99604E+02
 -5.68714E+03 -4.61549E+03 -1.81646E+03 -8.02385E+03  4.19168E+03 -7.92260E+03  7.89946E+03 -3.62338E+03
  7.95694E+03  1.52371E+03  4.39238E+03  6.45713E+03 -1.34756E+03  8.32520E+03 -5.60059E+03  5.58646E+03
