 $NMID ID='MM_0lb_SNR400_8hz_g45_52.RAW', FMTDAT='(8E13.5)'
 TRAMP=1., VOLUME=1. $END
  3.09947E+05  8.67613E+02  3.38926E+05  2.50633E+05  8.51512E+04  3.38930E+05 -1.33116E+05  2.51418E+05
 -1.90999E+05  8.41860E+04 -1.12647E+05 -3.29808E+04 -1.89658E+02 -5.11919E+04  5.40318E+04 -1.27054E+03
  3.60677E+04  5.31196E+04 -1.65864E+04  7.65319E+04 -6.17689E+04  6.41776E+04 -8.51740E+04  3.20988E+04
 -8.27492E+04 -1.16993E+04 -5.81391E+04 -5.24146E+04 -1.50886E+04 -7.15180E+04  2.73086E+04 -4.69857E+04
  4.17671E+04  4.20172E+03  1.62780E+04  4.79963E+04 -3.43915E+04  4.92929E+04 -6.79672E+04  1.00355E+03
 -5.43107E+04 -5.81663E+04 -6.60423E+03 -7.94748E+04  3.46281E+04 -5.77468E+04  5.09312E+04 -1.85209E+04
  4.52956E+04  1.10062E+04  3.37792E+04  2.74022E+04  1.56311E+04  3.04008E+04 -5.89559E+03  2.79896E+04
 -2.23754E+04  1.18742E+04 -1.77971E+04 -5.63270E+03  7.64892E+03 -7.05940E+03  2.34734E+04  1.36214E+04
  7.12916E+03  3.81062E+04 -3.50144E+04  3.72119E+04 -6.64677E+04  2.33459E+03 -5.86401E+04 -4.55351E+04
 -1.26682E+04 -6.65012E+04  4.15911E+04 -4.79075E+04  6.11252E+04 -2.08760E+03  3.66032E+04  3.50823E+04
 -5.39219E+03  3.99862E+04 -3.18172E+04  1.84446E+04 -3.37783E+04 -3.53358E+03 -1.90664E+04 -1.22581E+04
 -9.30538E+03 -1.60231E+04 -5.51119E+02 -2.03725E+04  8.75900E+03 -2.32815E+04  1.62304E+04 -1.31284E+04
  9.75415E+03  6.08118E+03 -1.14914E+04  1.33501E+04 -2.37444E+04 -6.41688E+03 -8.89378E+03 -3.75459E+04
  2.52530E+04 -4.72037E+04  5.20595E+04 -2.10194E+04  4.87782E+04  2.11123E+04  1.82217E+04  4.77829E+04
 -1.70137E+04  3.59481E+04 -2.78779E+04  3.48325E+03 -1.18654E+04 -2.92786E+04  2.13728E+04 -3.80732E+04
  4.53734E+04 -1.15294E+04  4.09752E+04  2.54403E+04  2.18788E+04  5.21593E+04 -7.86407E+03  5.68253E+04
 -3.58729E+04  3.78622E+04 -4.74469E+04  1.12508E+04 -4.85958E+04 -1.81614E+04 -2.69167E+04 -4.22983E+04
  7.89136E+03 -4.27011E+04  3.51133E+04 -1.66601E+04  3.26433E+04  1.14958E+04  5.38854E+03  2.12747E+04
 -1.42693E+04  1.04180E+04 -1.06356E+04 -8.07074E+03  6.27206E+03 -1.08901E+04  1.95026E+04  5.41668E+03
  1.56033E+04  2.26398E+04 -5.61315E+03  2.78999E+04 -2.29452E+04  1.37810E+04 -3.08609E+04 -3.15769E+03
 -2.66312E+04 -1.87382E+04 -1.21639E+04 -2.64303E+04  4.46963E+03 -2.63655E+04  2.05514E+04 -2.33340E+04
  3.18035E+04 -1.38772E+04  3.89551E+04  5.78863E+03  2.78323E+04  2.43895E+04  4.91552E+03  4.18030E+04
 -2.01311E+04  3.47620E+04 -3.07229E+04  1.27721E+04 -2.23258E+04 -9.93830E+03 -5.66743E+03 -1.28404E+04
  1.38781E+03 -1.12359E+03 -8.33743E+03  9.36313E+03 -2.12761E+04  4.86302E+03 -2.01256E+04 -9.52405E+03
 -1.21961E+04 -2.38068E+04  5.97827E+03 -2.86574E+04  1.92052E+04 -2.00586E+04  2.32341E+04 -1.36448E+03
  1.42639E+04  1.64341E+04 -1.89785E+03  2.35134E+04 -1.76831E+04  1.45946E+04 -2.40350E+04 -5.77099E+03
 -1.80382E+04 -2.07733E+04 -2.45304E+03 -2.80632E+04  1.34097E+04 -2.44102E+04  2.40307E+04 -1.23596E+04
  2.34039E+04  6.52086E+02  1.58188E+04  5.38653E+03  8.98140E+03  1.51590E+03  1.24018E+04 -1.84208E+03
  2.35028E+04  2.77810E+03  2.60788E+04  1.86195E+04  1.85024E+04  3.84426E+04 -3.21751E+03  4.53345E+04
 -2.55512E+04  3.77088E+04 -4.28101E+04  2.00589E+04 -4.54971E+04 -3.72307E+03 -3.72599E+04 -2.75909E+04
 -1.46714E+04 -3.79132E+04  1.33234E+04 -3.38642E+04  2.83212E+04 -1.55732E+04  2.50162E+04  7.79083E+03
  8.18741E+03  1.90912E+04 -1.16027E+04  1.60595E+04 -2.09389E+04  3.01845E+03 -1.54617E+04 -1.20309E+04
 -2.07143E+02 -1.92090E+04  1.04448E+04 -1.47420E+04  1.35470E+04 -1.25424E+03  4.03880E+03  9.59636E+03
 -9.30915E+03  3.95664E+03 -9.82040E+03 -7.70048E+03 -2.21031E+03 -1.81630E+04  1.23203E+04 -2.05772E+04
  2.41376E+04 -1.18786E+04  2.80307E+04  4.53875E+03  2.41778E+04  1.96139E+04  1.08830E+04  3.05327E+04
 -5.37990E+03  3.20620E+04 -2.11265E+04  1.97332E+04 -2.42441E+04  3.60579E+03 -1.64363E+04 -7.10321E+03
 -6.00995E+03 -7.93475E+03 -7.42134E+02 -3.23546E+00 -2.60600E+03  3.53453E+03 -7.11656E+03  5.25992E+03
 -1.41660E+04 -1.09363E+03 -1.57630E+04 -1.28395E+04 -6.39466E+03 -1.99394E+04  6.77885E+03 -1.64790E+04
  1.35082E+04 -6.97095E+03  9.55008E+03  4.00343E+03 -3.01386E+02  6.31409E+03 -8.70144E+03 -3.18604E+01
 -7.56040E+03 -1.08336E+04 -2.31321E+03 -1.59230E+04  9.18962E+03 -1.70572E+04  2.11884E+04 -9.76254E+03
  2.51609E+04  3.20786E+03  1.87035E+04  1.57077E+04  3.23335E+03  1.97830E+04 -1.04958E+04  1.64806E+04
 -1.37983E+04  4.34611E+03 -6.98277E+03 -4.29856E+03  2.23368E+03 -5.66492E+03  8.77404E+03 -1.09564E+03
  7.76020E+03  7.43326E+03  1.22601E+03  1.32036E+04 -8.70480E+03  1.21048E+04 -1.67989E+04  2.49037E+03
 -1.11026E+04 -8.22621E+03 -2.61095E+02 -1.43794E+04  8.92638E+03 -6.88097E+03  9.69624E+03  4.33472E+03
  2.38936E+03  1.06183E+04 -8.97599E+03  1.13889E+04 -1.45041E+04  5.90061E+03 -1.49013E+04 -5.94442E+03
 -8.46959E+03 -1.69910E+04  4.10389E+03 -1.96587E+04  1.68521E+04 -1.10582E+04  1.66273E+04  2.00731E+03
  1.10533E+04  1.51202E+04 -1.36551E+03  1.67676E+04 -1.28336E+04  9.07531E+03 -1.40370E+04 -8.84908E+02
 -1.06992E+04 -1.15830E+04 -1.64584E+03 -1.32577E+04  5.82896E+03 -1.00919E+04  8.20848E+03 -3.43831E+03
  4.61031E+03  1.97824E+03 -1.14765E+03  8.64883E+02 -5.34362E+02 -2.84404E+03  2.97149E+03 -8.15827E+03
  1.15095E+04 -5.38621E+03  1.71183E+04  2.15526E+03  1.66622E+04  1.19116E+04  1.00306E+04  2.32535E+04
 -6.11495E+03  2.54829E+04 -2.17409E+04  1.82294E+04 -2.79835E+04  2.89262E+03 -2.20461E+04 -9.59030E+03
 -1.09165E+04 -1.81226E+04 -3.81479E+02 -1.61646E+04  5.78512E+03 -8.74494E+03  5.93188E+03 -5.25283E+03
  4.21658E+03 -3.44503E+03  4.32704E+03 -3.82467E+03  6.29979E+03 -3.71250E+03  8.47835E+03 -9.44636E+02
  1.11330E+04  2.51024E+03  6.69481E+03  9.41187E+03 -2.79420E+03  1.19383E+04 -1.22080E+04  9.13305E+03
 -1.64524E+04 -9.08123E+02 -1.01860E+04 -1.08714E+04 -6.63249E+02 -1.73701E+04  9.13844E+03 -1.65142E+04
  1.82063E+04 -9.40946E+03  2.16993E+04  3.09774E+03  1.42534E+04  1.51244E+04  2.06429E+03  1.95390E+04
 -8.48953E+03  1.59786E+04 -1.14415E+04  5.47205E+03 -7.93888E+03 -1.50770E+03 -3.36006E+03 -2.74931E+03
 -6.37416E+02  5.31213E+02 -1.85888E+03  2.78439E+03 -6.91561E+03  2.40108E+03 -9.87569E+03 -1.51569E+03
 -8.18649E+03 -9.83172E+03  6.83444E+02 -1.55239E+04  9.27291E+03 -1.41250E+04  1.66116E+04 -4.16458E+03
  1.57922E+04  7.43133E+03  7.14886E+03  1.44292E+04 -4.16394E+03  1.63001E+04 -1.16335E+04  1.02727E+04
 -1.55584E+04  5.10142E+02 -1.23853E+04 -9.52906E+03 -1.40563E+03 -1.39194E+04  7.22393E+03 -9.52584E+03
  1.09988E+04 -3.28689E+03  7.42316E+03  3.04706E+03  2.25487E+03  4.67967E+03  1.80125E+03  2.21120E+03
  2.41767E+03  9.16534E+02  4.40728E+03  2.05686E+03  5.48604E+03  6.00359E+03  3.96593E+03  8.92959E+03
 -3.12564E+03  1.34176E+04 -1.18989E+04  1.36246E+04 -1.65881E+04  3.82472E+03 -1.73943E+04 -7.89071E+03
 -7.75187E+03 -1.74268E+04  1.67929E+03 -1.83925E+04  1.06185E+04 -1.18862E+04  1.27820E+04 -3.30886E+03
  1.04797E+04  6.23490E+03  1.59837E+03  1.01092E+04 -4.84076E+03  7.02759E+03 -6.61027E+03 -1.29681E+03
 -3.02088E+03 -8.05316E+03  3.87963E+03 -7.35786E+03  7.00860E+03 -2.88203E+03  6.45849E+03  1.83963E+03
  3.55121E+03  3.45491E+03  1.45771E+03  2.73199E+03 -5.96382E+02  2.19843E+03  1.82384E+03 -4.78445E+02
  3.41514E+03 -3.16733E+01  6.22388E+03  2.27784E+03  3.88216E+03  9.96663E+03 -1.64425E+03  1.11082E+04
 -8.24720E+03  8.08640E+03 -1.09151E+04  2.46088E+03 -9.19328E+03 -3.96661E+03 -3.88929E+03 -6.79608E+03
  1.38448E+03 -6.74084E+03  3.54266E+03 -2.82946E+03  4.03801E+03  3.03758E+03 -2.18383E+03  5.34857E+03
 -6.64056E+03  3.12228E+03 -7.20972E+03 -3.30353E+03 -4.43115E+03 -8.95811E+03  1.56029E+03 -9.23534E+03
  5.61145E+03 -5.70424E+03  6.71708E+03 -6.89850E+02  4.84569E+03  2.04123E+03  6.27493E+02  4.95232E+03
 -3.87082E+03  1.90166E+03 -5.03907E+03 -3.16275E+03  1.89987E+03 -7.61777E+03  9.26607E+03 -5.51901E+03
  1.10120E+04  8.37125E+02  1.07046E+04  7.40936E+03  3.78254E+03  1.18859E+04 -4.27042E+03  9.21445E+03
 -9.12320E+03  4.75521E+03 -9.29300E+03 -1.07730E+03 -4.41758E+03 -6.79247E+03  1.79992E+03 -7.81494E+03
  6.45912E+03 -2.95730E+03  4.86734E+03  3.45047E+03  1.95582E+03  6.06390E+03 -1.57252E+03  4.85750E+03
 -3.85643E+03  2.56378E+03 -2.85703E+03  7.12054E+02 -1.23336E+03  1.45079E+02 -1.68886E+03  2.76149E+03
 -3.01712E+03  4.02107E+03 -7.78036E+03  3.82019E+03 -1.17151E+04  1.09679E+03 -1.25850E+04 -7.20991E+03
 -7.02886E+03 -1.59588E+04  3.01675E+03 -1.72469E+04  1.11708E+04 -1.38197E+04  1.73530E+04 -5.44524E+03
  1.57511E+04  2.80313E+03  9.30339E+03  9.89296E+03  1.85829E+03  1.20264E+04 -4.30880E+03  8.37221E+03
 -5.92600E+03  3.79871E+03 -4.78003E+03 -2.44944E+03 -1.30632E+02 -6.02795E+02 -2.35048E+02  6.71404E+02
 -2.07191E+03 -4.93847E+02 -3.26161E+03 -1.23554E+03 -1.01086E+03 -2.82362E+03  7.33176E+02 -4.30057E+03
  5.11419E+03 -4.76451E+03  8.04625E+03 -7.68705E+02  8.49984E+03  6.73600E+03  3.07439E+03  1.18461E+04
 -5.64150E+03  1.38478E+04 -1.28183E+04  7.20769E+03 -1.41958E+04 -1.66378E+03 -1.12404E+04 -8.89578E+03
 -4.15636E+03 -1.29257E+04  2.84297E+03 -1.14837E+04  7.84543E+03 -6.21596E+03  7.28782E+03  5.83404E+02
  5.10329E+03  3.78689E+03  4.63076E+02  4.07400E+03 -2.22076E+03  4.10860E+02 -2.90267E+02 -1.95964E+03
  4.74282E+03 -1.48627E+03  4.59580E+03  2.20695E+03  3.49670E+03  4.61602E+03  8.13682E+01  6.17283E+03
 -5.98554E+03  5.47972E+03 -8.37209E+03  1.75465E+03 -7.90445E+03 -5.42474E+03 -1.62260E+03 -1.18130E+04
  5.67833E+03 -8.66455E+03  1.02677E+04 -2.38683E+03  9.44754E+03  1.98712E+03  5.78896E+03  7.12969E+03
  1.42573E+03  8.34571E+03 -3.94002E+03  6.12498E+03 -5.19496E+03  3.92122E+03 -3.95918E+03  6.49259E+02
 -2.35386E+03  6.12948E+01 -1.96382E+03  1.00930E+03 -4.04760E+03  1.47860E+03 -6.29003E+03 -5.59434E+02
 -5.37602E+03 -5.18624E+03 -6.73241E+02 -7.90603E+03  3.70062E+03 -8.83877E+03  7.81263E+03 -4.13795E+03
  8.00452E+03  1.14530E+03  4.47613E+03  6.70529E+03 -7.28774E+02  8.39069E+03 -5.83350E+03  5.90544E+03
