 $NMID ID='MM_0lb_SNR400_8hz_g40_79.RAW', FMTDAT='(8E13.5)'
 TRAMP=1., VOLUME=1. $END
  3.09676E+05  5.67797E+02  3.37801E+05  2.51203E+05  8.48202E+04  3.39094E+05 -1.32281E+05  2.50471E+05
 -1.91209E+05  8.32648E+04 -1.12622E+05 -3.26760E+04 -2.30971E+02 -5.00005E+04  5.40188E+04 -3.81229E+02
  3.54711E+04  5.27179E+04 -1.58527E+04  7.63208E+04 -6.17188E+04  6.49782E+04 -8.54747E+04  3.27162E+04
 -8.14835E+04 -1.18482E+04 -5.81202E+04 -5.20631E+04 -1.52832E+04 -7.09100E+04  2.73334E+04 -4.66065E+04
  4.14096E+04  3.24636E+03  1.74260E+04  4.86778E+04 -3.50321E+04  4.84131E+04 -6.82890E+04 -6.77633E+00
 -5.51131E+04 -5.84221E+04 -7.52435E+03 -7.92332E+04  3.52414E+04 -5.63340E+04  4.93745E+04 -1.90961E+04
  4.52973E+04  1.07689E+04  3.30419E+04  2.63435E+04  1.59272E+04  3.07959E+04 -6.65320E+03  2.75914E+04
 -2.20443E+04  1.18125E+04 -1.92882E+04 -5.18112E+03  7.03805E+03 -7.72008E+03  2.32416E+04  1.29656E+04
  6.89264E+03  3.77940E+04 -3.35225E+04  3.62838E+04 -6.62827E+04  2.01799E+03 -5.90895E+04 -4.54186E+04
 -1.26450E+04 -6.50117E+04  4.13667E+04 -4.73582E+04  6.19125E+04 -3.15404E+03  3.66027E+04  3.49309E+04
 -4.58580E+03  3.91542E+04 -3.18247E+04  1.87468E+04 -3.28719E+04 -3.91533E+03 -1.91947E+04 -1.17356E+04
 -9.60746E+03 -1.56228E+04  3.02513E+01 -1.90638E+04  8.81704E+03 -2.30908E+04  1.55362E+04 -1.23539E+04
  1.03974E+04  5.74475E+03 -1.04414E+04  1.35623E+04 -2.34845E+04 -6.62006E+03 -8.84264E+03 -3.73732E+04
  2.48908E+04 -4.62966E+04  5.25254E+04 -2.13132E+04  4.93177E+04  2.11510E+04  1.79921E+04  4.76536E+04
 -1.63015E+04  3.58992E+04 -2.79236E+04  2.90187E+03 -1.19534E+04 -2.84922E+04  2.11292E+04 -3.68137E+04
  4.48478E+04 -1.11031E+04  4.05298E+04  2.59107E+04  2.10829E+04  5.08042E+04 -8.98175E+03  5.55169E+04
 -3.51012E+04  3.87419E+04 -4.73474E+04  1.11814E+04 -4.77807E+04 -1.84887E+04 -2.60125E+04 -4.25061E+04
  7.65106E+03 -4.17836E+04  3.48059E+04 -1.63613E+04  3.19720E+04  1.19411E+04  5.58282E+03  2.08661E+04
 -1.39192E+04  1.05609E+04 -1.15117E+04 -7.77452E+03  6.11215E+03 -1.19292E+04  1.84188E+04  6.07350E+03
  1.50626E+04  2.27450E+04 -4.88286E+03  2.75280E+04 -2.36666E+04  1.41238E+04 -3.26354E+04 -2.70183E+03
 -2.55504E+04 -1.78606E+04 -1.24521E+04 -2.52340E+04  3.85910E+03 -2.59226E+04  1.94881E+04 -2.30878E+04
  3.22639E+04 -1.51894E+04  3.75303E+04  5.10775E+03  2.67004E+04  2.44226E+04  3.90441E+03  4.16872E+04
 -1.97248E+04  3.41718E+04 -3.08821E+04  1.23982E+04 -2.26348E+04 -8.88468E+03 -5.35073E+03 -1.30046E+04
  5.06688E+00 -1.25290E+03 -7.97512E+03  8.38671E+03 -2.01877E+04  5.59322E+03 -2.12039E+04 -9.95781E+03
 -1.25424E+04 -2.38265E+04  5.97281E+03 -2.74233E+04  1.81966E+04 -1.94768E+04  2.35508E+04 -2.52597E+03
  1.48544E+04  1.62080E+04 -9.03799E+02  2.24392E+04 -1.66262E+04  1.27519E+04 -2.41832E+04 -4.85469E+03
 -1.77194E+04 -2.04966E+04 -2.09889E+03 -2.83858E+04  1.33804E+04 -2.35385E+04  2.33000E+04 -1.19146E+04
  2.24431E+04 -6.95531E+02  1.61244E+04  5.73742E+03  9.21532E+03  1.67671E+03  1.28066E+04 -2.42503E+03
  2.15194E+04  3.23686E+03  2.52422E+04  1.85998E+04  1.84957E+04  3.68307E+04 -1.97479E+03  4.53780E+04
 -2.55828E+04  3.72467E+04 -4.18069E+04  1.83516E+04 -4.57165E+04 -3.33685E+03 -3.67421E+04 -2.63676E+04
 -1.50952E+04 -3.74972E+04  1.32173E+04 -3.21953E+04  2.81282E+04 -1.54199E+04  2.45941E+04  7.63157E+03
  8.02027E+03  1.96969E+04 -1.12115E+04  1.57518E+04 -2.13199E+04  2.98382E+03 -1.53276E+04 -1.26316E+04
 -2.87557E+02 -1.95930E+04  1.13232E+04 -1.48940E+04  1.43905E+04 -1.86291E+03  4.51953E+03  8.41837E+03
 -9.92404E+03  4.19665E+03 -1.03986E+04 -8.27612E+03 -2.20710E+03 -1.86481E+04  1.24154E+04 -2.00424E+04
  2.31080E+04 -1.09341E+04  2.70439E+04  3.53249E+03  2.39830E+04  2.00641E+04  1.08002E+04  2.98339E+04
 -5.68204E+03  3.07929E+04 -2.09362E+04  2.01415E+04 -2.29708E+04  4.21653E+03 -1.51910E+04 -6.32038E+03
 -6.85849E+03 -8.08899E+03 -3.64869E+02 -9.12352E+01 -3.00008E+03  4.06566E+03 -7.99030E+03  6.10540E+03
 -1.45733E+04 -5.34356E+02 -1.54509E+04 -1.23435E+04 -5.94112E+03 -1.99921E+04  7.49932E+03 -1.56599E+04
  1.31129E+04 -6.82241E+03  9.02032E+03  4.09748E+03 -4.06543E+02  6.26266E+03 -8.32151E+03 -1.33849E+03
 -7.26577E+03 -1.03266E+04 -4.90260E+02 -1.49282E+04  9.39427E+03 -1.62706E+04  2.06871E+04 -9.08319E+03
  2.44296E+04  2.78869E+03  1.80751E+04  1.46923E+04  3.57895E+03  1.86869E+04 -9.74033E+03  1.59195E+04
 -1.26686E+04  4.73381E+03 -7.09811E+03 -4.06658E+03  1.68141E+03 -4.36087E+03  8.25205E+03 -1.48615E+03
  8.09479E+03  7.26001E+03  1.09426E+03  1.23876E+04 -8.86892E+03  1.19773E+04 -1.53820E+04  3.76875E+03
 -1.18303E+04 -8.15285E+03 -1.05354E+02 -1.40331E+04  8.30417E+03 -7.11324E+03  9.43521E+03  3.86041E+03
  2.48479E+03  1.07047E+04 -8.35975E+03  1.22426E+04 -1.35553E+04  5.66019E+03 -1.49897E+04 -5.32277E+03
 -8.09131E+03 -1.65506E+04  4.33524E+03 -1.86368E+04  1.72372E+04 -1.07494E+04  1.78418E+04  2.34582E+03
  1.03496E+04  1.38287E+04 -1.48279E+03  1.65342E+04 -1.29180E+04  8.85002E+03 -1.29133E+04 -1.32651E+03
 -1.02975E+04 -1.06675E+04 -2.16731E+03 -1.25839E+04  6.46678E+03 -9.41672E+03  7.93187E+03 -3.83751E+03
  4.42394E+03  2.81622E+03 -9.25484E+02  2.13836E+03 -1.03332E+03 -3.20925E+03  2.67183E+03 -8.04308E+03
  1.20777E+04 -5.19530E+03  1.66888E+04  2.03353E+03  1.60350E+04  1.10432E+04  9.98941E+03  2.16517E+04
 -5.37848E+03  2.46346E+04 -2.05863E+04  1.85749E+04 -2.72407E+04  3.65078E+03 -2.22764E+04 -1.00791E+04
 -1.05357E+04 -1.80500E+04 -5.69793E+02 -1.50165E+04  5.24141E+03 -8.85774E+03  5.11516E+03 -4.99126E+03
  4.58325E+03 -3.04697E+03  4.04835E+03 -3.35074E+03  6.25472E+03 -3.70235E+03  8.50353E+03 -2.09482E+03
  1.07631E+04  1.94920E+03  6.50707E+03  1.00419E+04 -2.03508E+03  1.23535E+04 -1.12083E+04  9.44832E+03
 -1.50407E+04 -1.71060E+03 -9.37795E+03 -1.04616E+04 -8.50424E+02 -1.61034E+04  8.53485E+03 -1.61533E+04
  1.68996E+04 -9.40905E+03  2.02763E+04  2.71886E+03  1.39945E+04  1.48277E+04  2.88168E+03  1.87745E+04
 -7.60254E+03  1.57060E+04 -1.05672E+04  5.49900E+03 -7.88621E+03 -1.86989E+03 -2.80067E+03 -2.85905E+03
 -7.76625E+02 -4.88604E+02 -2.23600E+03  2.98824E+03 -6.72119E+03  2.55408E+03 -1.09255E+04 -1.33023E+03
 -7.08811E+03 -1.00255E+04  1.26303E+02 -1.61915E+04  9.23788E+03 -1.45386E+04  1.52912E+04 -4.70609E+03
  1.55901E+04  7.89397E+03  7.67387E+03  1.44035E+04 -2.82496E+03  1.55707E+04 -1.15965E+04  1.02371E+04
 -1.47112E+04  3.92243E+02 -1.14764E+04 -8.63465E+03 -2.24505E+03 -1.28863E+04  6.08962E+03 -9.03459E+03
  1.02081E+04 -2.43034E+03  6.17468E+03  2.56745E+03  2.74796E+03  5.07685E+03  1.37013E+03  2.12317E+03
  2.66763E+03  1.32688E+03  3.29628E+03  2.16347E+03  5.15115E+03  5.60185E+03  3.71611E+03  7.73527E+03
 -2.64893E+03  1.29596E+04 -1.17320E+04  1.20698E+04 -1.68730E+04  3.11345E+03 -1.68099E+04 -6.27164E+03
 -8.71971E+03 -1.56640E+04  2.75763E+03 -1.66774E+04  9.61455E+03 -1.14671E+04  1.40018E+04 -2.91486E+03
  9.69827E+03  5.80674E+03  1.82014E+03  9.57280E+03 -3.70867E+03  5.79016E+03 -7.19935E+03 -5.49503E+02
 -2.38768E+03 -6.43185E+03  3.50029E+03 -7.26709E+03  6.32507E+03 -3.54186E+03  6.15240E+03  1.12253E+03
  3.31593E+03  2.72698E+03  1.51977E+03  3.07452E+03 -5.71856E+02  3.02990E+03  1.92350E+03 -1.72319E+02
  2.33809E+03 -1.63350E+03  7.07702E+03  2.66341E+03  4.11024E+03  8.27862E+03 -1.00486E+03  1.09621E+04
 -8.25180E+03  7.79406E+03 -1.02581E+04  2.38806E+03 -1.03564E+04 -4.47570E+03 -4.18949E+03 -6.46876E+03
  7.67671E+02 -6.82426E+03  4.06140E+03 -2.21080E+03  3.85764E+03  3.12614E+03 -2.19963E+03  5.80236E+03
 -6.86660E+03  3.47482E+03 -8.54745E+03 -3.49231E+03 -4.64525E+03 -8.75518E+03  1.38046E+03 -9.22002E+03
  5.07785E+03 -6.49812E+03  6.23359E+03 -4.78179E+02  5.57518E+03  2.62397E+03  5.41922E+02  4.71697E+03
 -3.39807E+03  1.68495E+03 -3.65603E+03 -3.31654E+03  1.19141E+03 -8.10220E+03  8.93416E+03 -6.32739E+03
  1.08615E+04  7.15739E+02  1.00125E+04  7.57930E+03  3.08521E+03  1.13423E+04 -4.46976E+03  1.11116E+04
 -8.80092E+03  4.80411E+03 -9.23661E+03 -1.19508E+03 -4.50342E+03 -7.37192E+03  2.43317E+03 -6.93945E+03
  7.04755E+03 -2.62981E+03  5.75310E+03  2.48921E+03  1.08484E+03  6.48697E+03 -1.40796E+03  5.83256E+03
 -3.35685E+03  3.41571E+03 -1.59577E+03  1.18869E+03 -1.55504E+03  9.62264E+02 -1.38556E+03  2.23902E+03
 -2.60578E+03  3.22143E+03 -7.56170E+03  3.83215E+03 -1.10936E+04  5.27236E+02 -1.24287E+04 -6.97828E+03
 -6.42736E+03 -1.52415E+04  3.08014E+03 -1.62990E+04  1.03809E+04 -1.32035E+04  1.67937E+04 -4.67142E+03
  1.41348E+04  2.72312E+03  9.20885E+03  1.07450E+04  5.70917E+02  1.24332E+04 -3.96300E+03  8.44702E+03
 -6.02736E+03  2.89727E+03 -4.52535E+03 -9.91697E+02 -1.21692E+03 -1.22363E+03 -8.78023E+01  2.67580E+02
 -1.56640E+03  4.59222E+02 -2.69079E+03 -1.54486E+02 -1.55725E+03 -3.41303E+03  4.59125E+02 -4.69996E+03
  5.25139E+03 -4.05974E+03  6.53544E+03  1.97140E+02  8.58500E+03  6.24666E+03  2.79796E+03  1.15664E+04
 -5.24474E+03  1.35683E+04 -1.20293E+04  7.68535E+03 -1.44071E+04 -1.05081E+03 -1.06633E+04 -7.53815E+03
 -4.44514E+03 -1.19693E+04  2.90051E+03 -9.95119E+03  8.03886E+03 -6.24973E+03  8.31330E+03  1.21124E+03
  4.41673E+03  3.91929E+03 -4.16983E+02  3.00742E+03 -2.75994E+03  2.60838E+02 -3.27783E+02 -3.47830E+03
  3.39867E+03 -2.13417E+03  5.93437E+03  2.30976E+03  4.11917E+03  4.14262E+03  2.14102E+02  6.12399E+03
 -4.70114E+03  4.98712E+03 -8.11572E+03  9.79888E+02 -7.05872E+03 -5.84202E+03 -1.37291E+03 -1.01084E+04
  5.73607E+03 -8.27086E+03  9.06671E+03 -2.83460E+03  9.20292E+03  2.32240E+03  5.93535E+03  6.72235E+03
  1.19874E+03  8.35340E+03 -2.59145E+03  6.00414E+03 -4.73863E+03  2.54842E+03 -4.39457E+03  4.86095E+02
 -1.62474E+03 -3.66684E+02 -2.37494E+03  9.01097E+02 -3.52631E+03  1.76121E+03 -6.10851E+03 -1.94684E+03
 -5.54087E+03 -3.82953E+03 -9.25443E+02 -7.83222E+03  3.36106E+03 -7.93033E+03  7.52363E+03 -3.20396E+03
  7.80217E+03  1.09310E+03  4.68139E+03  6.18016E+03 -1.26043E+03  7.91273E+03 -6.20621E+03  4.93158E+03
