 $NMID ID='MM_0lb_SNR400_13hz_g50_100.RAW', FMTDAT='(8E13.5)'
 TRAMP=1., VOLUME=1. $END
  3.09239E+05  7.88699E+02  3.37895E+05  2.50489E+05  8.46809E+04  3.37933E+05 -1.32759E+05  2.50855E+05
 -1.90191E+05  8.32159E+04 -1.11837E+05 -3.28678E+04  6.55882E+02 -5.08634E+04  5.41199E+04 -7.21755E+02
  3.54662E+04  5.27149E+04 -1.68330E+04  7.56969E+04 -6.06517E+04  6.39998E+04 -8.49155E+04  3.18351E+04
 -8.13557E+04 -1.15153E+04 -5.72720E+04 -5.15528E+04 -1.52390E+04 -6.98553E+04  2.79871E+04 -4.58674E+04
  4.06161E+04  3.99742E+03  1.63863E+04  4.81284E+04 -3.42274E+04  4.78580E+04 -6.60050E+04 -5.33461E+02
 -5.43286E+04 -5.66001E+04 -6.50062E+03 -7.73469E+04  3.43731E+04 -5.52927E+04  4.82671E+04 -1.72353E+04
  4.42929E+04  1.10811E+04  3.21466E+04  2.53705E+04  1.62878E+04  2.93782E+04 -5.64718E+03  2.75503E+04
 -2.21947E+04  1.18648E+04 -1.91115E+04 -5.19613E+03  5.58080E+03 -7.25224E+03  2.22467E+04  1.24158E+04
  7.55773E+03  3.58264E+04 -3.31165E+04  3.59008E+04 -6.29461E+04  1.82051E+03 -5.71363E+04 -4.40097E+04
 -1.31022E+04 -6.35590E+04  4.00625E+04 -4.57051E+04  5.92311E+04 -2.78240E+03  3.41702E+04  3.23173E+04
 -5.90376E+03  3.72175E+04 -3.09294E+04  1.60414E+04 -3.11016E+04 -4.40313E+03 -1.72608E+04 -1.14789E+04
 -8.45268E+03 -1.38038E+04 -8.94385E+02 -1.86513E+04  7.52439E+03 -2.34316E+04  1.58272E+04 -1.34686E+04
  1.10854E+04  4.60092E+03 -9.07670E+03  1.31512E+04 -2.16725E+04 -4.32557E+03 -7.61454E+03 -3.48690E+04
  2.36335E+04 -4.44653E+04  4.83861E+04 -2.00979E+04  4.57936E+04  1.93757E+04  1.56790E+04  4.55595E+04
 -1.57928E+04  3.41549E+04 -2.62649E+04  1.70635E+03 -9.49429E+03 -2.79298E+04  2.09284E+04 -3.49277E+04
  4.19415E+04 -1.00226E+04  3.69948E+04  2.43936E+04  1.89186E+04  4.71337E+04 -8.43435E+03  5.16070E+04
 -3.19820E+04  3.45684E+04 -4.32968E+04  1.02268E+04 -4.39533E+04 -1.76350E+04 -2.34666E+04 -3.89799E+04
  7.53500E+03 -3.88580E+04  3.19982E+04 -1.53517E+04  2.94635E+04  1.12246E+04  4.75469E+03  2.00250E+04
 -1.33141E+04  8.68696E+03 -9.87401E+03 -7.38514E+03  5.96601E+03 -1.12372E+04  1.85401E+04  5.99157E+03
  1.33274E+04  2.23244E+04 -5.73909E+03  2.47945E+04 -2.22982E+04  1.20900E+04 -2.87204E+04 -4.33887E+03
 -2.16411E+04 -1.68983E+04 -9.42351E+03 -2.03661E+04  4.07836E+03 -2.02969E+04  1.63940E+04 -1.88268E+04
  2.79767E+04 -1.30333E+04  3.36453E+04  3.07244E+03  2.43824E+04  2.07358E+04  4.50203E+03  3.69035E+04
 -1.83958E+04  3.12746E+04 -2.77703E+04  1.07599E+04 -2.16174E+04 -9.78140E+03 -4.15653E+03 -1.29470E+04
  1.62394E+03 -2.65667E+03 -5.70162E+03  7.14022E+03 -1.75706E+04  5.29330E+03 -1.72964E+04 -7.54699E+03
 -1.00142E+04 -2.06475E+04  5.68051E+03 -2.39026E+04  1.62382E+04 -1.65959E+04  1.86972E+04 -1.46808E+03
  1.20682E+04  1.38880E+04 -7.95149E+02  1.95836E+04 -1.40169E+04  1.11404E+04 -1.94296E+04 -4.07050E+03
 -1.52563E+04 -1.77315E+04 -1.70723E+03 -2.35001E+04  1.01826E+04 -2.01351E+04  1.96103E+04 -9.28717E+03
  1.91697E+04  1.24191E+02  1.38562E+04  4.32656E+03  7.02592E+03  1.37930E+03  1.05275E+04 -1.60553E+03
  1.86971E+04  2.82661E+03  1.96760E+04  1.61571E+04  1.32885E+04  3.16065E+04 -3.25611E+03  3.63393E+04
 -2.14094E+04  2.90627E+04 -3.41335E+04  1.52451E+04 -3.54835E+04 -2.54842E+03 -2.90039E+04 -1.97376E+04
 -1.25069E+04 -2.91757E+04  1.03023E+04 -2.57274E+04  2.29579E+04 -1.35572E+04  2.05038E+04  5.46031E+03
  7.28358E+03  1.46100E+04 -9.84503E+03  1.32304E+04 -1.63895E+04  2.59200E+03 -1.29154E+04 -1.06550E+04
 -9.23190E+01 -1.63297E+04  8.15669E+03 -1.23973E+04  1.04826E+04 -1.27903E+03  2.34454E+03  7.44008E+03
 -6.84362E+03  3.09187E+03 -6.12142E+03 -5.71327E+03 -1.07638E+03 -1.40054E+04  9.93533E+03 -1.49720E+04
  1.77577E+04 -7.97401E+03  1.95705E+04  3.08255E+03  1.70925E+04  1.40928E+04  7.80297E+03  2.21635E+04
 -3.29167E+03  2.40809E+04 -1.52237E+04  1.51560E+04 -1.68706E+04  3.79351E+03 -1.28063E+04 -4.12090E+03
 -5.39165E+03 -5.82545E+03 -5.77103E+02  1.39736E+03 -2.60515E+03  3.10606E+03 -6.03641E+03  4.59220E+03
 -1.05896E+04 -8.32129E+02 -1.19777E+04 -9.67608E+03 -4.73162E+03 -1.53628E+04  5.38767E+03 -1.24077E+04
  1.04482E+04 -5.36401E+03  7.21730E+03  2.66125E+03  1.15846E+02  4.57460E+03 -5.24590E+03  1.50483E+02
 -5.44922E+03 -8.02673E+03 -1.06095E+03 -1.16775E+04  6.58854E+03 -1.23255E+04  1.52300E+04 -6.15915E+03
  1.86394E+04  1.56428E+03  1.32114E+04  1.03591E+04  2.23754E+03  1.40525E+04 -7.79371E+03  1.24016E+04
 -9.84533E+03  3.63288E+03 -5.61538E+03 -2.44723E+03  1.87180E+03 -3.16363E+03  7.04681E+03 -1.08343E+03
  5.57956E+03  5.65134E+03  1.32050E+03  9.81555E+03 -6.71675E+03  9.07002E+03 -1.16822E+04  1.93236E+03
 -8.22444E+03 -5.48643E+03  5.20789E+02 -1.05224E+04  6.45575E+03 -5.09382E+03  6.80053E+03  1.43281E+03
  1.82278E+03  7.17216E+03 -6.13869E+03  8.17143E+03 -9.61646E+03  3.68054E+03 -8.87697E+03 -3.49788E+03
 -5.43254E+03 -1.18691E+04  2.28938E+03 -1.31123E+04  1.06318E+04 -7.45142E+03  1.16439E+04  1.67411E+03
  7.27038E+03  9.08134E+03 -9.14834E+02  1.20497E+04 -8.40097E+03  6.11517E+03 -8.46245E+03 -3.30139E+02
 -8.39674E+03 -7.63133E+03 -2.12661E+03 -7.80447E+03  5.25398E+03 -7.22287E+03  5.24621E+03 -3.14737E+03
  4.19071E+03  1.12616E+03 -6.12588E+01  1.51571E+03 -4.96167E+00 -1.96534E+03  1.56595E+03 -3.96245E+03
  7.53095E+03 -2.55491E+03  1.03053E+04  9.23260E+02  1.04838E+04  7.31717E+03  7.96652E+03  1.42401E+04
 -4.03984E+03  1.66374E+04 -1.34912E+04  1.14503E+04 -1.73232E+04  2.62561E+03 -1.40839E+04 -5.81545E+03
 -7.81817E+03 -1.13555E+04  2.11765E+02 -1.02175E+04  4.00848E+03 -5.33282E+03  3.04597E+03 -3.33341E+03
  2.98234E+03 -2.16921E+03  2.98523E+03 -2.60228E+03  4.61754E+03 -1.92087E+03  5.44281E+03 -1.71834E+02
  7.27182E+03  1.48360E+03  3.59549E+03  6.31500E+03 -1.97774E+03  6.72674E+03 -7.63220E+03  5.79410E+03
 -1.01844E+04 -1.42522E+03 -5.41112E+03 -7.24201E+03 -1.18985E+02 -1.06873E+04  5.78785E+03 -1.03682E+04
  1.00712E+04 -5.69456E+03  1.31361E+04  1.08085E+03  8.68330E+03  9.32342E+03  1.12605E+03  1.15019E+04
 -4.67690E+03  9.85029E+03 -6.79683E+03  3.13433E+03 -3.87283E+03 -2.14560E+03 -1.78050E+03 -8.32915E+02
 -5.01074E+02  3.53306E+02 -1.57492E+03  2.28433E+03 -4.78628E+03  1.31205E+03 -7.13950E+03 -1.15330E+03
 -4.33771E+03 -6.56481E+03  3.02794E+02 -9.30602E+03  6.10604E+03 -8.47845E+03  8.29322E+03 -2.45543E+03
  8.63150E+03  4.97824E+03  4.24767E+03  8.32509E+03 -1.74233E+03  8.54460E+03 -5.88458E+03  5.26623E+03
 -8.24301E+03  9.54788E+02 -6.64195E+03 -5.49254E+03 -6.50627E+02 -7.54193E+03  3.57609E+03 -5.41708E+03
  5.32575E+03 -2.24362E+03  3.54379E+03  9.58456E+02  1.52479E+03  2.56109E+03  9.61611E+02  1.07547E+03
  1.90214E+03  8.86291E+02  1.86162E+03  1.16706E+03  2.78246E+03  3.49846E+03  2.82686E+03  5.01981E+03
 -2.14603E+03  7.21771E+03 -5.77863E+03  6.61849E+03 -8.44058E+03  1.99714E+03 -9.66927E+03 -2.95310E+03
 -4.20448E+03 -8.98290E+03  1.37379E+03 -9.81060E+03  5.27865E+03 -5.70568E+03  7.44403E+03 -2.30123E+03
  5.85144E+03  2.87917E+03  4.60989E+02  4.52289E+03 -1.99882E+03  2.61760E+03 -3.80392E+03 -3.24039E+02
 -1.34001E+03 -3.49631E+03  2.89103E+03 -3.91529E+03  2.72428E+03 -2.27522E+03  3.52283E+03  1.13424E+03
  2.32195E+03  1.65458E+03  9.05324E+02  5.01388E+02 -9.95014E+02  1.54522E+03  1.40505E+03 -2.65084E+02
  1.39803E+03 -6.78050E+02  3.94208E+03  1.50500E+03  1.61936E+03  4.59106E+03 -5.37122E+02  6.02007E+03
 -4.64751E+03  4.21515E+03 -5.44200E+03  1.01021E+03 -4.69273E+03 -1.81792E+03 -2.06615E+03 -2.48957E+03
  3.60955E+02 -3.12659E+03  2.70932E+03 -1.31675E+03  1.50268E+03  2.65310E+03 -1.31767E+03  2.98540E+03
 -3.69456E+03  1.88195E+03 -3.73123E+03 -2.55807E+03 -1.73697E+03 -4.82899E+03  7.66064E+02 -4.50988E+03
  2.18970E+03 -2.51020E+03  3.07651E+03 -3.53802E+02  3.24358E+03  1.08335E+03 -2.54413E+01  2.76470E+03
 -1.33340E+03  7.19530E+02 -1.80749E+03 -6.99518E+02  8.63286E+02 -2.84221E+03  3.92414E+03 -2.41429E+03
  3.90601E+03  3.33602E+02  5.79137E+03  3.50785E+03  1.92122E+03  5.31113E+03 -1.39848E+03  5.03734E+03
 -3.83548E+03  1.42868E+03 -4.17723E+03 -8.44360E+02 -2.53186E+03 -3.33573E+03  7.73095E+02 -2.90275E+03
  3.25171E+03 -1.82005E+03  2.27964E+03  1.88144E+03  1.22829E+02  3.40558E+03 -4.30275E+02  2.59570E+03
 -1.78923E+03  2.39372E+03 -1.73548E+03 -3.67596E-01 -7.76259E+02  1.05146E+03 -1.04025E+03  1.25186E+03
 -1.41396E+03  1.73743E+03 -3.85469E+03  1.73481E+03 -5.21763E+03 -6.96811E+01 -5.52640E+03 -3.27779E+03
 -3.10220E+03 -6.82081E+03  1.71101E+03 -7.52730E+03  4.89675E+03 -6.72517E+03  7.64150E+03 -2.82708E+03
  6.86123E+03  1.57036E+03  3.80193E+03  4.71418E+03  4.86305E+02  5.31436E+03 -2.93732E+03  3.25392E+03
 -3.03505E+03  2.09989E+03 -2.03881E+03 -8.14649E+01 -8.00128E+02 -1.63115E+02 -1.35476E+03 -2.02114E+02
 -1.02877E+03  3.13526E+01 -6.84641E+02  2.15715E+02  3.28902E+02 -1.31737E+03 -2.40367E+01 -1.73606E+03
  2.82264E+03 -1.92298E+03  3.03356E+03 -3.79549E+02  3.15146E+03  2.31399E+03 -1.29834E+02  4.41014E+03
 -2.09101E+03  6.22789E+03 -5.49350E+03  3.11330E+03 -5.92318E+03 -3.25202E+02 -4.75744E+03 -4.17017E+03
 -1.64822E+03 -4.26330E+03  1.34588E+03 -4.97710E+03  3.43246E+03 -1.99596E+03  3.30704E+03 -1.97387E+02
  1.89166E+03  1.45345E+03 -2.82050E+02  9.97694E+02 -1.11022E+03 -3.85587E+02  1.02927E+01 -1.00958E+03
  1.23317E+03 -5.86653E+02  1.60399E+03  5.26002E+02  9.26643E+02  2.10839E+03  2.78102E+02  2.05735E+03
 -2.50590E+03  2.12190E+03 -2.30995E+03  2.39586E+02 -2.34545E+03 -2.36036E+03 -4.27427E+02 -3.33672E+03
  2.78107E+03 -3.30101E+03  3.50290E+03 -3.92465E+02  2.82681E+03  7.32302E+02  1.97980E+03  2.46150E+03
  6.11047E+02  2.63920E+03 -4.63776E+02  2.06650E+03 -1.97100E+03  1.20660E+03 -9.72625E+02 -2.06551E+02
 -1.07117E+03 -4.93333E+01 -1.37738E+03  3.23024E+02 -1.00109E+03  1.07493E+03 -2.46112E+03 -5.59266E+02
 -2.99899E+03 -1.48118E+03 -7.91188E+02 -3.36246E+03  1.99734E+03 -3.50523E+03  3.47913E+03 -1.31497E+03
  3.22782E+03 -1.35283E+02  7.42677E+02  2.19020E+03 -3.86405E+02  2.37464E+03 -1.84891E+03  2.67932E+03
