 $NMID ID='MM_0lb_SNR400_17hz_g50_64.RAW', FMTDAT='(8E13.5)'
 TRAMP=1., VOLUME=1. $END
  3.09556E+05  6.63878E+02  3.37572E+05  2.50650E+05  8.48814E+04  3.37798E+05 -1.32686E+05  2.49991E+05
 -1.89786E+05  8.28172E+04 -1.10910E+05 -3.31294E+04  9.74698E+02 -5.04420E+04  5.39487E+04  4.11003E+01
  3.50113E+04  5.34696E+04 -1.65575E+04  7.54084E+04 -6.04372E+04  6.26945E+04 -8.36271E+04  3.23973E+04
 -7.97735E+04 -1.14819E+04 -5.71463E+04 -5.03321E+04 -1.50838E+04 -6.85991E+04  2.75190E+04 -4.53931E+04
  3.96213E+04  4.00267E+03  1.63445E+04  4.67459E+04 -3.39685E+04  4.66214E+04 -6.58524E+04 -7.87278E+02
 -5.25110E+04 -5.67199E+04 -6.82100E+03 -7.63682E+04  3.36501E+04 -5.39469E+04  4.67005E+04 -1.67225E+04
  4.21273E+04  1.13823E+04  3.11188E+04  2.53261E+04  1.60449E+04  2.94170E+04 -5.21055E+03  2.68084E+04
 -2.12830E+04  1.24752E+04 -1.87612E+04 -5.06971E+03  4.79707E+03 -7.71827E+03  2.15835E+04  1.16229E+04
  7.16257E+03  3.44154E+04 -3.14521E+04  3.45584E+04 -6.19696E+04  1.96508E+03 -5.63395E+04 -4.20916E+04
 -1.26797E+04 -6.26962E+04  3.80955E+04 -4.41854E+04  5.65470E+04 -2.25144E+03  3.32204E+04  3.10323E+04
 -5.68271E+03  3.47285E+04 -2.93632E+04  1.42970E+04 -2.90523E+04 -4.94699E+03 -1.54047E+04 -1.04528E+04
 -7.42936E+03 -1.22543E+04 -8.93076E+02 -1.72934E+04  7.29249E+03 -2.28946E+04  1.48525E+04 -1.40360E+04
  1.23951E+04  4.29250E+03 -7.40208E+03  1.34030E+04 -1.99684E+04 -3.39065E+03 -7.86077E+03 -3.14302E+04
  2.17412E+04 -4.19931E+04  4.64487E+04 -1.93080E+04  4.34055E+04  1.87568E+04  1.55946E+04  4.25914E+04
 -1.57502E+04  3.22130E+04 -2.47518E+04  1.44979E+03 -9.06174E+03 -2.74205E+04  2.08285E+04 -3.26488E+04
  3.95212E+04 -8.09294E+03  3.34355E+04  2.31883E+04  1.58821E+04  4.45686E+04 -8.31647E+03  4.74653E+04
 -2.99246E+04  3.11874E+04 -3.92349E+04  8.97729E+03 -4.03018E+04 -1.57745E+04 -2.19802E+04 -3.57356E+04
  7.20838E+03 -3.59403E+04  2.99093E+04 -1.36595E+04  2.80432E+04  1.04998E+04  2.90706E+03  1.87616E+04
 -1.27907E+04  7.80976E+03 -1.01878E+04 -7.81096E+03  5.84958E+03 -1.05861E+04  1.73337E+04  6.65463E+03
  1.29940E+04  2.16867E+04 -6.69465E+03  2.35951E+04 -2.13631E+04  9.93845E+03 -2.63296E+04 -6.16555E+03
 -1.82319E+04 -1.68331E+04 -6.99263E+03 -1.77443E+04  4.45660E+03 -1.65085E+04  1.39149E+04 -1.57987E+04
  2.33438E+04 -1.23605E+04  2.91400E+04  2.34752E+03  2.18204E+04  1.74759E+04  4.56310E+03  3.38447E+04
 -1.73301E+04  2.84623E+04 -2.72553E+04  9.81957E+03 -1.97841E+04 -1.04478E+04 -3.87388E+03 -1.37734E+04
  2.38708E+03 -3.83767E+03 -3.37738E+03  5.52167E+03 -1.38436E+04  5.24865E+03 -1.40225E+04 -6.27215E+03
 -9.08815E+03 -1.68701E+04  4.53647E+03 -2.06275E+04  1.35277E+04 -1.46153E+04  1.56293E+04 -1.82144E+03
  9.54011E+03  1.15411E+04 -8.37642E+02  1.67322E+04 -1.13837E+04  9.12359E+03 -1.70178E+04 -3.72591E+03
 -1.29968E+04 -1.53364E+04 -2.13737E+03 -2.07069E+04  8.93899E+03 -1.70678E+04  1.68575E+04 -8.55891E+03
  1.59466E+04  7.60241E+02  1.14002E+04  3.96517E+03  5.68830E+03  2.79670E+02  8.41566E+03 -1.20986E+03
  1.60250E+04  2.71283E+03  1.63488E+04  1.33612E+04  1.09332E+04  2.66667E+04 -2.75502E+03  2.91613E+04
 -1.71956E+04  2.27783E+04 -2.70097E+04  1.08456E+04 -2.72772E+04 -1.69427E+03 -2.33982E+04 -1.54049E+04
 -1.10433E+04 -2.33308E+04  7.46087E+03 -2.07596E+04  1.86260E+04 -1.14750E+04  1.65133E+04  4.31847E+03
  6.95409E+03  1.22184E+04 -8.16847E+03  1.14219E+04 -1.40652E+04  2.51657E+03 -1.09635E+04 -8.30956E+03
  4.37408E+01 -1.33589E+04  6.82812E+03 -1.04357E+04  8.74070E+03 -1.23540E+03  1.98479E+03  5.83887E+03
 -5.80779E+03  1.18735E+03 -3.70270E+03 -5.59737E+03 -1.15815E+01 -1.13792E+04  7.94187E+03 -1.16590E+04
  1.39989E+04 -5.86164E+03  1.43302E+04  3.03436E+03  1.20410E+04  1.09415E+04  5.62011E+03  1.59570E+04
 -1.98566E+03  1.81456E+04 -1.11280E+04  1.18280E+04 -1.33292E+04  2.95031E+03 -9.87938E+03 -2.90394E+03
 -4.90553E+03 -3.66973E+03 -8.39574E+02  6.50455E+02 -1.88730E+03  1.38902E+03 -4.12095E+03  3.57371E+03
 -8.62354E+03  1.41730E+02 -9.99999E+03 -7.57753E+03 -3.86532E+03 -1.19964E+04  4.02025E+03 -8.95283E+03
  7.60038E+03 -3.63811E+03  5.72621E+03  2.36108E+03 -3.79041E+01  3.12856E+03 -3.97417E+03 -5.26213E+02
 -3.72337E+03 -5.92120E+03 -3.13022E+02 -8.55275E+03  5.15018E+03 -9.45635E+03  1.14109E+04 -4.78358E+03
  1.32028E+04  8.85292E+02  9.64388E+03  6.90847E+03  2.08031E+03  9.70219E+03 -5.83526E+03  9.41157E+03
 -7.56111E+03  3.08301E+03 -3.91994E+03 -1.57545E+03  1.28391E+03 -1.97043E+03  5.86084E+03 -8.93823E+02
  4.58372E+03  4.13784E+03  9.48320E+02  6.92150E+03 -5.02523E+03  6.87476E+03 -8.60125E+03  1.97149E+03
 -5.54790E+03 -4.44675E+03  1.96636E+02 -7.19067E+03  4.18757E+03 -3.53824E+03  4.26995E+03  1.02008E+03
  1.23932E+02  4.02339E+03 -4.97008E+03  5.51124E+03 -5.92408E+03  2.59042E+03 -5.94047E+03 -1.54157E+03
 -3.76497E+03 -6.99361E+03  1.53865E+03 -8.15382E+03  6.97934E+03 -5.15585E+03  7.32251E+03  1.40022E+03
  5.26026E+03  6.30363E+03 -3.12372E+02  8.36797E+03 -5.75332E+03  4.98677E+03 -5.85050E+03 -9.99553E+02
 -6.73947E+03 -6.18678E+03 -1.30582E+03 -6.10937E+03  2.69514E+03 -4.87256E+03  3.57108E+03 -3.32317E+03
  3.19253E+03  5.92604E+02  4.43336E+01  1.19654E+03  4.60861E+02 -2.88907E+02  4.06730E+02 -2.55744E+03
  4.58762E+03 -9.76513E+02  6.53133E+03  4.02955E+01  6.94172E+03  4.18504E+03  5.95599E+03  9.01725E+03
 -1.44049E+03  1.00775E+04 -9.24251E+03  7.55350E+03 -1.17653E+04  2.22994E+03 -9.22581E+03 -3.13999E+03
 -5.40003E+03 -7.64114E+03 -4.29791E+02 -6.17610E+03  2.74690E+03 -2.58464E+03  1.99098E+03 -2.41418E+03
  1.79655E+03 -1.21532E+03  2.30650E+03 -2.35931E+03  3.89164E+03 -1.72590E+03  3.35103E+03  1.07413E+02
  5.28452E+03  1.08956E+03  1.57442E+03  4.71553E+03 -1.88698E+03  3.44929E+03 -5.73126E+03  3.16647E+03
 -6.35842E+03 -5.84473E+02 -2.51622E+03 -3.91630E+03  3.87885E+02 -6.19082E+03  4.12079E+03 -6.55231E+03
  6.43864E+03 -3.87826E+03  7.73117E+03  7.31131E+02  5.20563E+03  5.25938E+03  8.60467E+02  7.18266E+03
 -2.34683E+03  6.73192E+03 -4.60648E+03  1.92718E+03 -2.34816E+03 -1.24801E+03 -1.10058E+03 -8.24951E+02
 -3.93006E+02  4.34605E+02 -1.77716E+03  2.02930E+03 -2.59006E+03  1.25711E+03 -4.63692E+03 -5.26543E+02
 -1.80014E+03 -5.01135E+03  6.72382E+02 -5.93264E+03  3.58719E+03 -5.67734E+03  5.01191E+03 -9.56089E+02
  4.94975E+03  3.19557E+03  1.86040E+03  5.03601E+03 -7.82447E+02  5.55991E+03 -3.74467E+03  3.56124E+03
 -4.86957E+03  4.20869E+01 -3.73764E+03 -3.12376E+03 -1.99263E+02 -3.65862E+03  2.49380E+03 -2.89039E+03
  3.08006E+03 -1.94421E+03  2.52115E+03  6.40181E+02  5.58478E+02  2.02164E+03  8.76057E+02  1.69521E+02
  1.86975E+03  1.96047E+02  1.99851E+03  1.22942E+03  1.42389E+03  2.22052E+03  1.60209E+03  2.40447E+03
 -1.20935E+03  4.03820E+03 -2.58909E+03  4.86687E+03 -4.37490E+03  7.58850E+02 -5.70520E+03 -9.98225E+02
 -2.54808E+03 -4.51029E+03  1.14217E+03 -5.33241E+03  2.48721E+03 -3.34307E+03  4.29406E+03 -8.87870E+02
  3.44812E+03  1.82994E+03  4.15356E+02  3.55422E+03 -1.00507E+03  1.35287E+03 -1.77435E+03 -5.19782E+01
 -9.85948E+02 -2.13619E+03  8.73207E+02 -1.58093E+03  1.68980E+03 -3.18580E+02  1.92038E+03  7.67412E+02
  1.17066E+03  2.51274E+02  2.17558E+02 -4.31147E+02 -3.40874E+01  6.65052E+02  1.93813E+03 -4.45013E+02
  4.48694E+02 -4.22513E+02  2.59862E+03  1.27673E+03  5.57108E+02  2.98205E+03 -2.09502E+02  3.59778E+03
 -1.90775E+03  1.77626E+03 -2.71647E+03  1.30978E+03 -2.96898E+03 -1.15866E+03  1.19208E+02 -1.71225E+03
  3.79447E+02 -2.10480E+03  1.13296E+03 -2.73941E+02  6.57521E+02  1.56469E+03 -1.31805E+03  1.21219E+03
 -1.60404E+03  1.01166E+03 -1.90970E+03 -1.69804E+03 -9.43093E+02 -2.27816E+03  7.79967E+02 -2.60967E+03
  1.11753E+03 -6.31835E+02  1.03469E+03  2.77647E+02  1.55527E+03  3.31352E+02  4.50635E+02  1.81740E+03
 -8.39276E+01  1.58066E+02 -1.51056E+03  4.69663E+01  1.17343E+03 -1.08443E+03  2.30282E+03 -9.40796E+02
  1.88657E+03  4.90320E+02  3.29635E+03  1.77861E+03  1.41157E+03  1.92698E+03 -5.70257E+02  2.25049E+03
 -2.40917E+03 -8.16742E+01 -1.90676E+03 -4.22740E+01 -8.79702E+02 -1.51978E+03  7.53901E+02 -7.68390E+02
  1.74692E+03 -9.50616E+02  1.18825E+03  8.71068E+02  6.46395E+01  1.62398E+03  5.94730E+01  1.10845E+03
 -7.16298E+02  1.59124E+03 -6.02485E+02  3.45643E+02  3.60066E+01  2.08782E+02 -5.71734E+02  7.68876E+02
 -8.55896E+02  1.90586E+03 -2.32149E+03  2.08969E+02 -2.66848E+03 -2.84569E+02 -3.15359E+03 -1.12966E+03
 -1.44692E+03 -3.43797E+03  6.55435E+02 -3.49967E+03  1.97776E+03 -3.22578E+03  3.88251E+03 -1.52074E+03
  3.16793E+03 -1.57680E+02  2.06429E+03  1.93648E+03 -8.52641E+01  2.41836E+03 -1.19732E+03  1.82959E+03
 -1.25297E+03  8.98106E+02 -1.20019E+03 -5.61053E+01 -9.66355E+01  9.04083E+02 -8.41468E+02  1.83039E+01
 -1.21721E+03 -2.66782E+01 -5.03228E+02  1.65556E+02 -1.09817E+02 -1.13053E+03  1.77506E+02 -1.13804E+03
  1.66788E+03 -5.54198E+02  6.84820E+02  1.53145E+02  1.35295E+03  1.97398E+03  2.45097E+02  2.14647E+03
 -7.27949E+02  3.17505E+03 -2.08449E+03  1.76225E+03 -2.31879E+03  8.86657E+01 -1.38155E+03 -2.03789E+03
 -1.56138E+03 -1.57955E+03  1.54395E+02 -1.81063E+03  8.59000E+02 -6.58378E+02  6.60242E+02  1.76632E+02
  7.30756E+02  6.97202E+02 -1.25189E+02  2.37661E+02 -6.71744E+02  4.19254E+02 -2.48473E+01 -5.79437E+02
  8.51802E+02 -4.02269E+02  2.22544E+02 -1.12639E+02 -4.58258E+01  7.50035E+02  4.28430E+02  7.31530E+02
 -5.55088E+02  1.40618E+03 -1.10767E+03  3.08893E+02 -1.35223E+03 -7.71196E+02  4.37532E+02 -1.35408E+03
  9.37287E+02 -9.76640E+02  8.17506E+02 -5.35707E+02  1.22266E+03 -5.23282E+02  3.49120E+02  1.03063E+03
  2.45314E+01  7.73066E+02 -4.73519E+01  9.71464E+02 -5.42031E+02  5.65719E+02 -4.64246E+02  1.00532E+01
 -4.75596E+02 -4.46584E+02 -4.31600E+02  2.61689E+01 -2.55167E+02  3.82986E+02 -4.03059E+02 -5.36764E+02
 -1.16898E+03  1.26082E+02  2.14991E+00 -1.21960E+03  1.42963E+03 -2.45949E+03  1.40259E+03 -3.08736E+01
  4.88799E+02  5.27960E+02  2.67066E+02  9.20389E+02 -6.24396E+02  7.28541E+02 -8.33051E+02  9.05469E+02
