 $NMID ID='MM_0lb_SNR400_7hz_g40_22.RAW', FMTDAT='(8E13.5)'
 TRAMP=1., VOLUME=1. $END
  3.09859E+05 -6.64476E+02  3.37377E+05  2.51638E+05  8.40813E+04  3.38215E+05 -1.32416E+05  2.51657E+05
 -1.90722E+05  8.46328E+04 -1.12198E+05 -3.26350E+04  2.20008E+02 -5.05146E+04  5.44000E+04 -6.08240E+02
  3.64801E+04  5.31437E+04 -1.72226E+04  7.64985E+04 -6.13769E+04  6.42148E+04 -8.57801E+04  3.30227E+04
 -8.28067E+04 -1.04014E+04 -5.84841E+04 -5.29269E+04 -1.46636E+04 -7.13632E+04  2.79349E+04 -4.72043E+04
  4.15618E+04  3.59629E+03  1.60623E+04  4.91884E+04 -3.42074E+04  4.86982E+04 -6.85463E+04  1.40987E+02
 -5.53895E+04 -5.81883E+04 -7.24808E+03 -8.04397E+04  3.46016E+04 -5.75405E+04  5.08767E+04 -1.84961E+04
  4.53039E+04  1.13191E+04  3.33877E+04  2.71220E+04  1.64161E+04  3.07988E+04 -6.14440E+03  2.71340E+04
 -2.25926E+04  1.19133E+04 -1.78585E+04 -5.70192E+03  7.18072E+03 -8.05656E+03  2.35906E+04  1.44162E+04
  6.85548E+03  3.83566E+04 -3.50774E+04  3.74216E+04 -6.59600E+04  2.76604E+03 -5.88039E+04 -4.55529E+04
 -1.29521E+04 -6.63347E+04  4.23863E+04 -4.82575E+04  6.27101E+04 -2.82737E+03  3.70746E+04  3.54014E+04
 -5.50700E+03  3.98102E+04 -3.19090E+04  1.88796E+04 -3.38761E+04 -3.81537E+03 -2.01595E+04 -1.20582E+04
 -9.35880E+03 -1.61350E+04 -9.09350E+02 -2.01660E+04  9.22137E+03 -2.29760E+04  1.66917E+04 -1.29787E+04
  1.09209E+04  6.95894E+03 -1.10121E+04  1.35945E+04 -2.42630E+04 -8.11792E+03 -8.62016E+03 -3.79000E+04
  2.52957E+04 -4.77981E+04  5.22745E+04 -2.09954E+04  4.99156E+04  2.11375E+04  1.77326E+04  4.78306E+04
 -1.62252E+04  3.65867E+04 -2.87855E+04  3.02816E+03 -1.25318E+04 -2.99145E+04  2.20727E+04 -3.73387E+04
  4.52362E+04 -1.19606E+04  4.16097E+04  2.53534E+04  2.18792E+04  5.17731E+04 -8.56011E+03  5.82266E+04
 -3.61508E+04  3.84676E+04 -4.89628E+04  1.17867E+04 -4.82723E+04 -1.84836E+04 -2.69439E+04 -4.40555E+04
  7.08006E+03 -4.20545E+04  3.54360E+04 -1.72516E+04  3.27551E+04  1.11885E+04  4.95651E+03  2.04828E+04
 -1.44539E+04  1.02466E+04 -1.04286E+04 -7.51821E+03  5.45909E+03 -1.23744E+04  1.89908E+04  5.07278E+03
  1.48132E+04  2.34428E+04 -5.00141E+03  2.78906E+04 -2.36673E+04  1.53806E+04 -3.25124E+04 -2.49925E+03
 -2.63356E+04 -1.91331E+04 -1.30688E+04 -2.60180E+04  3.93977E+03 -2.76064E+04  2.05461E+04 -2.37783E+04
  3.30731E+04 -1.47938E+04  3.89832E+04  5.28626E+03  2.81223E+04  2.52126E+04  4.54837E+03  4.23921E+04
 -2.05716E+04  3.47307E+04 -3.17609E+04  1.17332E+04 -2.32541E+04 -1.13125E+04 -4.99060E+03 -1.23978E+04
  6.78338E+02 -1.63392E+02 -8.24899E+03  8.18354E+03 -2.13572E+04  4.79544E+03 -2.05525E+04 -1.07151E+04
 -1.25751E+04 -2.57245E+04  6.29522E+03 -2.91024E+04  1.97461E+04 -2.06194E+04  2.40887E+04 -1.91543E+03
  1.44248E+04  1.72193E+04 -2.11124E+03  2.38030E+04 -1.64565E+04  1.42365E+04 -2.45181E+04 -5.31768E+03
 -1.79153E+04 -2.21021E+04 -3.09390E+03 -2.89846E+04  1.34422E+04 -2.47152E+04  2.39399E+04 -1.21371E+04
  2.25890E+04 -4.87189E+02  1.60441E+04  5.66326E+03  8.75399E+03  1.16471E+03  1.26294E+04 -2.75666E+03
  2.33534E+04  3.09673E+03  2.71521E+04  1.89762E+04  1.89614E+04  3.99654E+04 -2.94916E+03  4.71215E+04
 -2.62716E+04  3.98035E+04 -4.55843E+04  1.99531E+04 -4.77106E+04 -4.22535E+03 -3.87293E+04 -2.75555E+04
 -1.54379E+04 -3.97338E+04  1.43144E+04 -3.49669E+04  2.93553E+04 -1.58481E+04  2.57190E+04  8.25696E+03
  8.40159E+03  1.98570E+04 -1.21571E+04  1.70204E+04 -2.26232E+04  3.24643E+03 -1.65716E+04 -1.32106E+04
 -7.85252E+02 -2.13556E+04  1.09732E+04 -1.55310E+04  1.38009E+04 -8.91618E+02  3.99028E+03  1.05948E+04
 -8.95017E+03  5.30890E+03 -1.00611E+04 -7.63952E+03 -2.84435E+03 -1.97303E+04  1.29814E+04 -2.12027E+04
  2.42879E+04 -1.25471E+04  2.95427E+04  3.48765E+03  2.46141E+04  1.96461E+04  1.17140E+04  3.14939E+04
 -7.19544E+03  3.33087E+04 -2.21057E+04  2.02311E+04 -2.47105E+04  3.81855E+03 -1.58609E+04 -7.24244E+03
 -7.76567E+03 -7.21561E+03  4.89753E+02 -7.08795E+02 -2.41495E+03  2.87106E+03 -7.94231E+03  6.34762E+03
 -1.57824E+04 -1.22420E+03 -1.56083E+04 -1.25185E+04 -7.23882E+03 -2.11449E+04  6.40421E+03 -1.65596E+04
  1.48423E+04 -6.48369E+03  9.66456E+03  5.08331E+03 -7.45132E+02  6.86093E+03 -9.16271E+03  3.60479E+02
 -7.94503E+03 -1.06675E+04 -7.77440E+02 -1.58065E+04  1.07749E+04 -1.88178E+04  2.22662E+04 -1.04955E+04
  2.65735E+04  2.55873E+03  1.85065E+04  1.65320E+04  3.52134E+03  2.14418E+04 -9.39939E+03  1.64247E+04
 -1.34063E+04  5.11686E+03 -7.74357E+03 -4.80059E+03  2.86125E+03 -6.26782E+03  9.05676E+03 -9.60678E+02
  8.02602E+03  7.91504E+03  2.32888E+03  1.39060E+04 -1.02994E+04  1.32033E+04 -1.76660E+04  2.58934E+03
 -1.19487E+04 -8.97978E+03  2.67556E+02 -1.45270E+04  9.98142E+03 -7.21074E+03  1.03820E+04  4.24714E+03
  2.90199E+03  1.19853E+04 -9.96635E+03  1.33314E+04 -1.51811E+04  5.36256E+03 -1.57258E+04 -5.73270E+03
 -8.76216E+03 -1.71788E+04  4.56388E+03 -2.00870E+04  1.71993E+04 -1.20003E+04  1.90321E+04  3.45494E+03
  1.13216E+04  1.55540E+04 -1.34694E+03  1.87373E+04 -1.24538E+04  9.99923E+03 -1.38618E+04 -1.41083E+03
 -1.17883E+04 -1.10440E+04 -1.44024E+03 -1.41782E+04  7.63855E+03 -1.01837E+04  7.94826E+03 -4.05750E+03
  5.50803E+03  2.33550E+03 -1.73541E+03  1.46251E+03 -1.30293E+03 -4.43530E+03  4.28664E+03 -8.81234E+03
  1.27371E+04 -5.87946E+03  1.83511E+04  1.90194E+03  1.77082E+04  1.30425E+04  1.15536E+04  2.44470E+04
 -6.35745E+03  2.82927E+04 -2.19148E+04  1.96668E+04 -2.86476E+04  2.77806E+03 -2.46831E+04 -1.01944E+04
 -1.18527E+04 -2.00080E+04 -3.56257E+02 -1.65878E+04  5.60302E+03 -8.59189E+03  5.33333E+03 -6.23819E+03
  5.41860E+03 -4.27350E+03  3.99461E+03 -4.61755E+03  6.44579E+03 -3.56335E+03  8.87834E+03 -1.36587E+03
  1.30217E+04  3.12624E+03  7.15654E+03  1.12779E+04 -2.11199E+03  1.31839E+04 -1.32765E+04  9.95975E+03
 -1.75809E+04 -1.46373E+03 -1.09875E+04 -1.18366E+04 -1.18640E+03 -1.90787E+04  1.01848E+04 -1.82245E+04
  2.00453E+04 -1.01858E+04  2.37988E+04  1.94575E+03  1.59210E+04  1.60122E+04  2.88333E+03  2.05313E+04
 -8.83974E+03  1.67955E+04 -1.16836E+04  6.38065E+03 -9.22957E+03 -2.01512E+03 -3.49090E+03 -3.33216E+03
 -1.88999E+03 -5.38251E+02 -2.96954E+03  3.82111E+03 -7.63577E+03  1.88197E+03 -1.22438E+04 -1.55395E+03
 -7.92750E+03 -1.11757E+04 -2.57033E+02 -1.75989E+04  9.76960E+03 -1.54394E+04  1.78598E+04 -4.97447E+03
  1.66081E+04  7.83403E+03  7.72769E+03  1.61409E+04 -3.20528E+03  1.69691E+04 -1.30480E+04  1.03215E+04
 -1.73506E+04  5.12761E+02 -1.22338E+04 -1.11431E+04 -1.26521E+03 -1.45776E+04  8.10962E+03 -1.05616E+04
  1.19898E+04 -4.16852E+03  7.97790E+03  2.42573E+03  2.85613E+03  4.72290E+03  1.31037E+03  2.89974E+03
  3.25638E+03  1.27162E+03  4.67081E+03  1.95659E+03  5.57440E+03  5.95693E+03  4.77247E+03  1.00061E+04
 -3.78730E+03  1.52292E+04 -1.26176E+04  1.48385E+04 -1.95808E+04  2.97315E+03 -1.93545E+04 -7.97260E+03
 -9.47006E+03 -1.83485E+04  2.75964E+03 -2.03176E+04  1.07859E+04 -1.32214E+04  1.46395E+04 -3.00692E+03
  1.16848E+04  6.87017E+03  2.22029E+03  1.06341E+04 -4.91986E+03  6.03316E+03 -7.54831E+03 -9.40620E+02
 -3.38769E+03 -8.66671E+03  5.25026E+03 -8.32944E+03  7.88277E+03 -4.30738E+03  7.69349E+03  2.89613E+03
  3.88017E+03  4.49970E+03  2.06582E+03  2.90142E+03 -6.08288E+01  2.48396E+03  1.80905E+03 -9.66563E+02
  3.11730E+03 -1.29087E+02  6.84127E+03  3.32870E+03  5.16151E+03  9.77030E+03 -2.48674E+03  1.32140E+04
 -8.90194E+03  9.33770E+03 -1.20222E+04  1.75771E+03 -1.11921E+04 -3.64674E+03 -4.14048E+03 -7.11768E+03
  1.41631E+03 -8.17585E+03  4.56118E+03 -3.53477E+03  4.02386E+03  3.62936E+03 -1.87612E+03  6.23522E+03
 -8.70907E+03  3.30922E+03 -9.00899E+03 -3.84611E+03 -5.44501E+03 -1.08657E+04  1.17045E+03 -1.12387E+04
  6.04982E+03 -5.90102E+03  7.85020E+03 -1.42796E+03  6.45860E+03  3.40859E+03  8.20747E+02  5.23169E+03
 -3.99343E+03  2.28124E+03 -3.71270E+03 -4.59919E+03  1.96830E+03 -8.30021E+03  9.99628E+03 -6.47695E+03
  1.23843E+04  1.21576E+03  1.10196E+04  8.92514E+03  3.65211E+03  1.21403E+04 -4.92649E+03  1.27090E+04
 -1.02382E+04  5.32970E+03 -1.05301E+04 -1.31878E+03 -5.84585E+03 -8.49755E+03  2.55894E+03 -7.95489E+03
  8.00461E+03 -4.46644E+03  6.52010E+03  3.11890E+03  2.85810E+03  6.88073E+03 -1.28531E+03  5.66650E+03
 -3.09244E+03  4.39361E+03 -4.12948E+03  7.14166E+02 -1.15554E+03  9.46219E+02 -1.65444E+03  2.44529E+03
 -3.06232E+03  4.67958E+03 -8.38988E+03  4.16941E+03 -1.37800E+04  1.99597E+02 -1.36670E+04 -8.77729E+03
 -7.18947E+03 -1.62591E+04  3.32632E+03 -2.02180E+04  1.26976E+04 -1.43610E+04  1.88897E+04 -6.36360E+03
  1.81706E+04  3.74736E+03  1.26898E+04  1.15995E+04  1.64922E+03  1.37472E+04 -6.31137E+03  1.02267E+04
 -7.65275E+03  3.52268E+03 -5.01030E+03 -2.26194E+03 -8.70308E+02 -1.96648E+03  3.84852E+01 -1.75029E+02
 -2.27135E+03  6.06826E+02 -3.68967E+03  1.99664E+02 -2.34157E+03 -3.79066E+03 -1.21585E+02 -4.40442E+03
  5.46127E+03 -3.69682E+03  9.12804E+03  3.43859E+02  9.56067E+03  7.07293E+03  2.63543E+03  1.38982E+04
 -6.62253E+03  1.58365E+04 -1.50498E+04  9.45804E+03 -1.73609E+04 -2.27719E+03 -1.34074E+04 -1.04536E+04
 -5.00020E+03 -1.38745E+04  4.61189E+03 -1.32239E+04  8.29582E+03 -7.70422E+03  9.87099E+03  3.49372E+02
  4.98111E+03  4.46618E+03 -4.07142E+02  4.06290E+03 -2.24529E+03 -3.11613E+02  5.04530E+02 -3.11311E+03
  5.28648E+03 -1.85515E+03  5.82872E+03  6.60777E+02  4.27218E+03  5.26504E+03 -1.43662E+02  8.01564E+03
 -6.91050E+03  6.79760E+03 -9.52883E+03  8.03936E+02 -9.09191E+03 -7.17698E+03 -1.49891E+03 -1.17892E+04
  6.45087E+03 -1.05357E+04  1.16648E+04 -2.02316E+03  1.08248E+04  2.29442E+03  5.40877E+03  8.48924E+03
  1.15546E+03  9.86077E+03 -3.02625E+03  7.77487E+03 -5.98150E+03  4.58663E+03 -4.63020E+03  4.33963E+02
 -3.76729E+03 -1.11764E+03 -3.25193E+03  2.36711E+03 -6.04679E+03  1.58275E+03 -7.82714E+03 -1.31532E+03
 -6.89877E+03 -5.01992E+03 -3.67296E+03 -8.94880E+03  4.96253E+03 -9.21069E+03  8.30027E+03 -6.42802E+03
  9.40602E+03  1.89352E+03  6.36842E+03  7.31072E+03 -7.04548E+02  9.99724E+03 -7.35617E+03  6.54977E+03
