 $NMID ID='MM_0lb_SNR400_16hz_g60_9.RAW', FMTDAT='(8E13.5)'
 TRAMP=1., VOLUME=1. $END
  3.09703E+05  4.51887E+02  3.37845E+05  2.50984E+05  8.47269E+04  3.37817E+05 -1.32526E+05  2.51655E+05
 -1.90627E+05  8.34410E+04 -1.12035E+05 -3.30212E+04  1.14039E+03 -5.10718E+04  5.36461E+04 -3.10681E+02
  3.56712E+04  5.30627E+04 -1.66641E+04  7.58389E+04 -6.06966E+04  6.39891E+04 -8.43922E+04  3.19032E+04
 -8.12846E+04 -1.16260E+04 -5.68685E+04 -5.13293E+04 -1.48520E+04 -6.96522E+04  2.68044E+04 -4.59501E+04
  4.01929E+04  3.99121E+03  1.66863E+04  4.82921E+04 -3.39065E+04  4.70222E+04 -6.63042E+04  3.61576E+02
 -5.37106E+04 -5.74298E+04 -7.08160E+03 -7.72553E+04  3.42631E+04 -5.52556E+04  4.83314E+04 -1.72337E+04
  4.34696E+04  1.14700E+04  3.16670E+04  2.52925E+04  1.60175E+04  2.97045E+04 -5.68410E+03  2.71120E+04
 -2.24796E+04  1.30018E+04 -1.88901E+04 -5.15411E+03  5.56576E+03 -7.21561E+03  2.27511E+04  1.21129E+04
  6.79216E+03  3.49174E+04 -3.26480E+04  3.52542E+04 -6.35177E+04  1.87945E+03 -5.65162E+04 -4.30587E+04
 -1.26990E+04 -6.31206E+04  3.91624E+04 -4.51236E+04  5.83574E+04 -1.93703E+03  3.40961E+04  3.30273E+04
 -5.67944E+03  3.57729E+04 -3.03436E+04  1.64200E+04 -3.09869E+04 -4.22194E+03 -1.69023E+04 -1.10010E+04
 -8.02846E+03 -1.31181E+04 -4.90220E+02 -1.78368E+04  7.72918E+03 -2.31627E+04  1.53981E+04 -1.37223E+04
  1.12303E+04  4.78398E+03 -8.35682E+03  1.28665E+04 -2.14128E+04 -4.11024E+03 -8.18960E+03 -3.38431E+04
  2.31654E+04 -4.36874E+04  4.81501E+04 -1.99888E+04  4.54239E+04  1.95608E+04  1.57148E+04  4.48030E+04
 -1.63205E+04  3.34927E+04 -2.54567E+04  1.69126E+03 -9.99268E+03 -2.80680E+04  2.07641E+04 -3.34784E+04
  4.04046E+04 -8.96824E+03  3.58459E+04  2.32674E+04  1.75664E+04  4.65896E+04 -7.62444E+03  4.98163E+04
 -3.15197E+04  3.39980E+04 -4.17860E+04  9.19622E+03 -4.23123E+04 -1.62069E+04 -2.38816E+04 -3.72798E+04
  7.00249E+03 -3.77087E+04  3.15860E+04 -1.42013E+04  2.91318E+04  1.12611E+04  3.83316E+03  1.91041E+04
 -1.32963E+04  8.64297E+03 -9.99036E+03 -8.08595E+03  5.78856E+03 -1.06919E+04  1.87378E+04  5.98858E+03
  1.41460E+04  2.19375E+04 -5.90639E+03  2.53324E+04 -2.29907E+04  1.15755E+04 -2.80281E+04 -4.37005E+03
 -1.99917E+04 -1.73468E+04 -8.38012E+03 -1.99811E+04  3.91240E+03 -1.95796E+04  1.51212E+04 -1.81810E+04
  2.58639E+04 -1.25079E+04  3.25519E+04  2.88201E+03  2.31288E+04  1.99309E+04  4.03302E+03  3.56739E+04
 -1.72114E+04  3.05457E+04 -2.75373E+04  1.04350E+04 -2.12120E+04 -1.00196E+04 -4.62993E+03 -1.33777E+04
  1.95593E+03 -2.40657E+03 -4.62415E+03  6.87828E+03 -1.66474E+04  5.43381E+03 -1.60561E+04 -7.03057E+03
 -1.06658E+04 -1.83221E+04  5.38714E+03 -2.28016E+04  1.49971E+04 -1.60191E+04  1.81278E+04 -1.34052E+03
  1.06277E+04  1.28965E+04 -1.52372E+03  1.87503E+04 -1.27683E+04  1.08662E+04 -1.82893E+04 -3.93468E+03
 -1.35145E+04 -1.79349E+04 -1.86356E+03 -2.24325E+04  9.87645E+03 -1.82203E+04  1.92005E+04 -9.13145E+03
  1.72036E+04  7.94401E+02  1.19060E+04  4.74889E+03  6.44649E+03  7.81822E+02  1.00973E+04 -1.25224E+03
  1.67256E+04  2.40095E+03  1.83537E+04  1.53740E+04  1.22362E+04  2.98128E+04 -2.82978E+03  3.39647E+04
 -1.92445E+04  2.70552E+04 -3.08726E+04  1.34362E+04 -3.23666E+04 -1.50547E+03 -2.66982E+04 -1.86436E+04
 -1.16801E+04 -2.63334E+04  8.75990E+03 -2.41634E+04  2.09213E+04 -1.28506E+04  1.90194E+04  5.12682E+03
  6.58269E+03  1.43261E+04 -8.42554E+03  1.25728E+04 -1.61214E+04  2.12250E+03 -1.23807E+04 -9.31279E+03
 -1.11786E+02 -1.45140E+04  7.20793E+03 -1.08917E+04  9.65975E+03 -1.77802E+03  2.19771E+03  6.52185E+03
 -6.72379E+03  2.03739E+03 -6.19217E+03 -5.44220E+03  3.69148E+02 -1.29500E+04  9.37863E+03 -1.36535E+04
  1.63236E+04 -7.37046E+03  1.72255E+04  3.92731E+03  1.42256E+04  1.28248E+04  6.97583E+03  1.93935E+04
 -3.04928E+03  2.11838E+04 -1.29964E+04  1.36083E+04 -1.56316E+04  3.41426E+03 -1.07863E+04 -3.22894E+03
 -5.23163E+03 -4.48522E+03 -9.21031E+02  9.04435E+02 -1.85550E+03  3.20225E+03 -4.47033E+03  4.28864E+03
 -9.81350E+03 -3.91877E+02 -1.10449E+04 -9.07128E+03 -4.13612E+03 -1.37112E+04  3.61425E+03 -1.11238E+04
  9.05681E+03 -4.53871E+03  7.23800E+03  2.83609E+03  5.38596E+02  4.04499E+03 -4.66114E+03  2.27471E+02
 -4.25849E+03 -6.90978E+03 -1.37905E+03 -9.69889E+03  5.96553E+03 -1.01227E+04  1.30024E+04 -5.24428E+03
  1.47991E+04  1.03968E+03  1.10712E+04  8.95767E+03  2.51929E+03  1.19239E+04 -6.68236E+03  1.05037E+04
 -8.28707E+03  3.31163E+03 -4.66138E+03 -1.22180E+03  1.83538E+03 -2.87887E+03  6.26555E+03 -1.09053E+03
  5.10686E+03  4.90220E+03  8.15393E+02  8.24143E+03 -6.21694E+03  8.04947E+03 -9.91404E+03  1.35849E+03
 -6.52666E+03 -4.88652E+03  5.70547E+02 -8.85378E+03  5.43841E+03 -4.05711E+03  4.79855E+03  1.86470E+03
  1.00535E+03  5.51695E+03 -5.74226E+03  6.69545E+03 -7.35438E+03  2.62278E+03 -7.49682E+03 -2.06434E+03
 -4.12406E+03 -8.80224E+03  2.22823E+03 -1.01311E+04  9.13693E+03 -6.28634E+03  9.00451E+03  1.48894E+03
  6.13139E+03  7.02710E+03 -2.62114E+02  9.75311E+03 -7.39428E+03  5.36919E+03 -7.53582E+03 -2.87363E+02
 -6.75673E+03 -6.66540E+03 -2.04591E+03 -6.64570E+03  3.20597E+03 -6.06698E+03  4.46270E+03 -3.51490E+03
  3.28058E+03  9.06048E+02 -4.68669E+01  1.29785E+03  6.05632E+02 -1.22764E+03  7.38049E+02 -3.50709E+03
  5.32359E+03 -1.67446E+03  7.74831E+03  1.25981E+03  7.98270E+03  5.48299E+03  7.28061E+03  1.07235E+04
 -1.71137E+03  1.29152E+04 -1.12256E+04  9.13573E+03 -1.34524E+04  2.21024E+03 -1.10086E+04 -4.02261E+03
 -5.73257E+03 -9.41924E+03 -8.94696E+02 -7.18826E+03  2.86869E+03 -3.45308E+03  2.43340E+03 -2.33639E+03
  2.00892E+03 -2.07802E+03  2.34637E+03 -3.13051E+03  3.76336E+03 -2.30804E+03  4.86506E+03  2.20087E+02
  6.01723E+03  1.58718E+03  2.02396E+03  5.33615E+03 -1.19720E+03  4.75941E+03 -6.21647E+03  4.39649E+03
 -7.22599E+03 -1.00121E+03 -3.54285E+03 -4.84384E+03 -3.62253E+02 -7.15926E+03  4.83443E+03 -7.97856E+03
  8.18630E+03 -4.54256E+03  9.49541E+03  6.82511E+02  6.62520E+03  6.24703E+03  1.58920E+03  8.60574E+03
 -3.30566E+03  7.83881E+03 -5.24540E+03  2.45235E+03 -3.55870E+03 -1.50561E+03 -1.50280E+03 -1.35628E+03
 -8.66993E+02 -1.48650E+01 -1.44046E+03  2.34719E+03 -3.71834E+03  8.29471E+02 -5.58629E+03 -9.35234E+01
 -2.61062E+03 -5.16240E+03  9.32249E+02 -7.33505E+03  4.00566E+03 -6.89565E+03  4.94153E+03 -1.66352E+03
  6.79370E+03  3.30618E+03  2.73451E+03  4.87053E+03 -1.17233E+03  6.55866E+03 -4.36210E+03  4.19179E+03
 -6.02559E+03  6.76700E+02 -4.31410E+03 -4.12452E+03 -7.89653E+02 -4.50518E+03  3.19508E+03 -4.30110E+03
  3.58467E+03 -2.04176E+03  2.39865E+03  1.02130E+03  6.98059E+02  2.10019E+03  8.92425E+02  7.81917E+02
  1.69575E+03  7.71141E+02  1.39075E+03  1.68607E+03  2.14551E+03  3.02311E+03  1.97515E+03  2.73111E+03
 -1.20196E+03  4.84671E+03 -4.08470E+03  5.84466E+03 -5.03465E+03  1.24366E+03 -6.89948E+03 -1.49473E+03
 -3.12965E+03 -6.53074E+03  1.29198E+03 -6.98257E+03  3.23992E+03 -3.91951E+03  4.86136E+03 -5.09155E+02
  3.92720E+03  2.12610E+03  1.15817E+03  3.72562E+03 -1.59159E+03  2.32427E+03 -1.89000E+03 -5.99352E+02
 -6.15261E+02 -2.91253E+03  1.97824E+03 -2.45676E+03  2.46924E+03 -1.37012E+03  1.89935E+03  6.24554E+02
  9.21025E+02  7.52500E+02  1.39847E+03  1.69815E+02 -3.79950E+02  1.60480E+03  1.58150E+03  2.42746E+02
  3.82660E+02 -5.48566E+02  2.57029E+03  1.15266E+03  8.69763E+02  3.18955E+03 -5.14715E+02  4.28735E+03
 -2.50276E+03  2.13526E+03 -3.27604E+03  6.59480E+02 -3.32954E+03 -1.07880E+03 -4.15069E+02 -2.36126E+03
  5.86450E+02 -1.75711E+03  1.92731E+03 -6.51871E+02  1.34857E+03  1.73066E+03 -7.25835E+02  1.70057E+03
 -1.93003E+03  1.30785E+03 -2.21179E+03 -1.76075E+03 -1.20379E+03 -3.20892E+03  7.45324E+02 -2.53993E+03
  1.29053E+03 -1.16080E+03  1.60047E+03 -5.38969E+02  2.24398E+03  1.13799E+03  1.78097E+02  1.08792E+03
 -9.83372E+02  8.14697E+02 -1.49313E+03 -1.00785E+03  7.75638E+02 -1.15940E+03  2.08853E+03 -1.48636E+03
  2.29069E+03  3.33416E+02  3.61258E+03  1.58357E+03  1.46507E+03  2.29701E+03 -6.89564E+02  3.36006E+03
 -2.38383E+03  8.79536E+02 -2.88970E+03 -7.88237E+02 -1.53607E+03 -2.13120E+03  4.43581E+01 -1.40209E+03
  2.24705E+03 -5.62137E+02  1.08365E+03  6.70385E+01 -2.74459E+01  1.73715E+03 -4.59184E+02  1.52716E+03
 -9.08745E+02  1.22147E+03 -9.16455E+02  8.38680E+02  9.18036E+01  2.14011E+02 -9.56901E+02  5.29043E+02
 -1.49603E+03  1.70447E+03 -2.61935E+03  1.24703E+03 -2.78597E+03 -2.82510E+01 -3.74678E+03 -1.40123E+03
 -1.79990E+03 -3.93191E+03  1.22402E+03 -4.59203E+03  2.22607E+03 -3.10899E+03  3.96035E+03 -1.34451E+03
  3.76311E+03  3.77626E+02  2.54744E+03  2.59729E+03 -7.38360E+02  2.73213E+03 -1.21673E+03  1.79570E+03
 -1.37839E+03  8.12068E+02 -1.78474E+02 -5.73007E+02 -7.01857E+02  3.58480E+02 -3.31276E+02 -5.32919E+02
 -8.42836E+02 -4.24246E+01 -9.06499E+02 -1.38466E+02  2.04779E+02 -9.18083E+02 -6.27381E+02 -1.23568E+03
  2.01165E+03 -9.20741E+02  8.03035E+02  1.91510E+02  2.32420E+03  1.88134E+03 -7.94797E+01  2.47303E+03
 -1.39400E+03  3.66066E+03 -2.54164E+03  2.40056E+03 -3.38312E+03 -2.53421E+01 -2.77480E+03 -1.60773E+03
 -1.49027E+03 -2.60879E+03  5.97733E+02 -2.42441E+03  1.65368E+03 -1.62370E+03  1.72832E+03  1.00875E+02
  1.36150E+03  3.30461E+02  2.78782E+02  9.23788E+02 -3.42980E+02 -1.27952E+02 -9.45956E+01 -1.40514E+03
  8.27748E+02 -1.83830E+02  6.46988E+02  1.28201E+03  1.45959E+02  7.02368E+02  8.42738E+00  1.09917E+03
 -1.99197E+02  9.39998E+02 -1.59714E+03  2.73976E+02 -1.00306E+03 -1.05617E+03  9.77248E+01 -2.11753E+03
  8.63307E+02 -1.52350E+03  2.05499E+03 -1.22015E+02  1.61445E+03 -1.24673E+01  6.06391E+02  9.77927E+02
  7.57847E+02  1.46033E+03 -2.90548E+02  7.07026E+02 -1.00234E+03  6.15008E+02 -9.96497E+02  1.41872E+02
 -4.46277E+02 -3.12857E+02 -4.83726E+02  2.35257E+02 -1.57189E+03  9.30026E+01 -1.69906E+03 -4.15136E+02
 -1.34093E+03 -3.98374E+02 -6.61860E+02 -1.30164E+03  8.80249E+02 -1.77173E+03  1.95045E+03 -5.96472E+02
  1.46564E+03  8.59466E+02  4.19601E+02  4.52130E+02 -8.19542E+02  1.37104E+03 -5.63698E+02  1.21360E+03
