 $NMID ID='MM_0lb_SNR400_13hz_g40_47.RAW', FMTDAT='(8E13.5)'
 TRAMP=1., VOLUME=1. $END
  3.10294E+05  6.36905E+02  3.38268E+05  2.50656E+05  8.44260E+04  3.37354E+05 -1.32560E+05  2.51190E+05
 -1.89782E+05  8.28807E+04 -1.11619E+05 -3.24510E+04  7.54994E+02 -5.04046E+04  5.39848E+04 -1.69342E+02
  3.47759E+04  5.28515E+04 -1.70620E+04  7.52974E+04 -6.08290E+04  6.39702E+04 -8.45787E+04  3.23855E+04
 -8.12455E+04 -1.13663E+04 -5.74926E+04 -5.15331E+04 -1.55484E+04 -6.94833E+04  2.72247E+04 -4.52771E+04
  4.00004E+04  4.14074E+03  1.61023E+04  4.74738E+04 -3.36253E+04  4.78050E+04 -6.65807E+04 -4.15739E+02
 -5.38161E+04 -5.67004E+04 -6.31234E+03 -7.66250E+04  3.32199E+04 -5.47290E+04  4.83453E+04 -1.68860E+04
  4.33273E+04  1.17812E+04  3.13919E+04  2.53525E+04  1.52234E+04  2.91630E+04 -5.41150E+03  2.78299E+04
 -2.25843E+04  1.25716E+04 -1.90980E+04 -4.52346E+03  4.90475E+03 -6.64578E+03  2.23554E+04  1.21258E+04
  6.86511E+03  3.49830E+04 -3.26382E+04  3.50920E+04 -6.31429E+04  2.29242E+03 -5.61866E+04 -4.29527E+04
 -1.25571E+04 -6.27022E+04  3.94298E+04 -4.43736E+04  5.86189E+04 -1.99290E+03  3.43339E+04  3.18556E+04
 -6.14272E+03  3.53138E+04 -2.95510E+04  1.64554E+04 -3.01113E+04 -3.89078E+03 -1.72772E+04 -1.09842E+04
 -8.55904E+03 -1.24342E+04 -2.16741E+02 -1.82167E+04  7.22939E+03 -2.29574E+04  1.50526E+04 -1.35749E+04
  1.12425E+04  5.10339E+03 -7.84483E+03  1.27990E+04 -2.15540E+04 -3.90306E+03 -8.54761E+03 -3.40879E+04
  2.29181E+04 -4.32617E+04  4.89041E+04 -1.94956E+04  4.49156E+04  1.93916E+04  1.51011E+04  4.45541E+04
 -1.58629E+04  3.30746E+04 -2.53591E+04  1.95280E+03 -1.02001E+04 -2.82602E+04  2.11398E+04 -3.33390E+04
  4.02160E+04 -8.22448E+03  3.54383E+04  2.36678E+04  1.80077E+04  4.60879E+04 -8.16405E+03  5.05722E+04
 -3.13873E+04  3.39370E+04 -4.18713E+04  9.56080E+03 -4.23971E+04 -1.60620E+04 -2.40773E+04 -3.73018E+04
  7.54749E+03 -3.74450E+04  3.17047E+04 -1.42991E+04  2.88561E+04  1.09672E+04  4.13738E+03  1.84692E+04
 -1.29264E+04  8.38430E+03 -9.92588E+03 -7.77752E+03  5.75419E+03 -1.07694E+04  1.80057E+04  5.68134E+03
  1.30796E+04  2.24357E+04 -5.75406E+03  2.50996E+04 -2.18424E+04  1.22027E+04 -2.80946E+04 -4.51461E+03
 -2.05257E+04 -1.80905E+04 -7.99112E+03 -2.05136E+04  3.93750E+03 -1.94015E+04  1.58946E+04 -1.77152E+04
  2.62628E+04 -1.26977E+04  3.27373E+04  3.02253E+03  2.40100E+04  2.01369E+04  4.14273E+03  3.63352E+04
 -1.80960E+04  3.02461E+04 -2.81479E+04  1.03859E+04 -2.11947E+04 -1.00332E+04 -4.89541E+03 -1.33925E+04
  1.75898E+03 -2.74764E+03 -4.74075E+03  6.49214E+03 -1.62907E+04  5.01372E+03 -1.69762E+04 -6.77383E+03
 -9.94157E+03 -1.87863E+04  4.83431E+03 -2.36829E+04  1.53956E+04 -1.70017E+04  1.78268E+04 -1.38166E+03
  1.09758E+04  1.34171E+04 -5.09748E+02  1.83891E+04 -1.37019E+04  1.12107E+04 -1.86394E+04 -3.82764E+03
 -1.39531E+04 -1.72971E+04 -2.14514E+03 -2.35037E+04  9.89259E+03 -1.88525E+04  1.87086E+04 -9.43220E+03
  1.77334E+04  9.76077E+01  1.36794E+04  4.57681E+03  6.59675E+03  1.13170E+03  9.59133E+03 -2.15641E+03
  1.74890E+04  2.61212E+03  1.92138E+04  1.55103E+04  1.21604E+04  3.06196E+04 -3.53615E+03  3.51690E+04
 -1.98557E+04  2.73607E+04 -3.25477E+04  1.44146E+04 -3.42747E+04 -1.86974E+03 -2.73563E+04 -1.94611E+04
 -1.20542E+04 -2.79710E+04  1.00114E+04 -2.56465E+04  2.14936E+04 -1.26349E+04  1.98887E+04  5.01831E+03
  6.76201E+03  1.46118E+04 -9.24633E+03  1.27217E+04 -1.57860E+04  2.30518E+03 -1.23480E+04 -1.06636E+04
 -4.19200E+02 -1.53933E+04  8.07902E+03 -1.17325E+04  1.01921E+04 -1.28727E+03  2.18378E+03  6.47302E+03
 -7.21249E+03  2.77124E+03 -6.02086E+03 -5.35801E+03 -1.61573E+02 -1.41955E+04  9.47805E+03 -1.43705E+04
  1.62690E+04 -7.46204E+03  1.81098E+04  3.42823E+03  1.60595E+04  1.30910E+04  6.80997E+03  2.03285E+04
 -3.43008E+03  2.30508E+04 -1.41927E+04  1.36610E+04 -1.65624E+04  3.48395E+03 -1.15381E+04 -3.55923E+03
 -5.50747E+03 -4.72614E+03 -5.86947E+01  9.81313E+02 -2.18796E+03  2.60430E+03 -4.78564E+03  4.58146E+03
 -1.09363E+04 -8.90171E+02 -1.19928E+04 -9.38460E+03 -4.61415E+03 -1.46174E+04  4.86158E+03 -1.12749E+04
  9.71167E+03 -4.34870E+03  6.56378E+03  2.62193E+03  5.84819E+02  4.37749E+03 -5.38441E+03 -3.11009E+02
 -5.02157E+03 -7.53017E+03 -1.82477E+03 -1.08015E+04  6.36710E+03 -1.19194E+04  1.47645E+04 -6.21318E+03
  1.69008E+04  8.84937E+02  1.18039E+04  9.95241E+03  2.59312E+03  1.29750E+04 -6.44606E+03  1.12096E+04
 -9.28772E+03  3.52707E+03 -4.78017E+03 -2.32824E+03  2.47095E+03 -2.75939E+03  5.91686E+03 -6.76147E+02
  5.59605E+03  5.11888E+03  1.02694E+03  8.43313E+03 -6.75848E+03  8.77110E+03 -1.06543E+04  1.61586E+03
 -7.80233E+03 -5.46522E+03 -2.94085E+02 -9.55432E+03  6.49725E+03 -5.17861E+03  5.78801E+03  2.36325E+03
  9.60669E+02  6.60615E+03 -5.42153E+03  7.84025E+03 -8.24805E+03  3.07775E+03 -9.00305E+03 -2.25178E+03
 -5.17255E+03 -9.94489E+03  2.57515E+03 -1.20017E+04  1.01154E+04 -7.47824E+03  1.07460E+04  1.34539E+03
  7.08346E+03  8.45417E+03 -4.98555E+02  1.02209E+04 -7.40725E+03  6.30040E+03 -7.80692E+03 -1.05146E+03
 -7.86017E+03 -7.34289E+03 -9.01423E+02 -7.53818E+03  4.40172E+03 -6.60114E+03  4.68035E+03 -3.50087E+03
  3.13107E+03  1.19612E+03 -3.74189E+02  1.88925E+03  6.01562E+02 -1.39137E+03  1.13946E+03 -4.72654E+03
  6.37537E+03 -2.53664E+03  9.44361E+03  1.33037E+03  9.64648E+03  5.92103E+03  6.95394E+03  1.23109E+04
 -2.15267E+03  1.50006E+04 -1.21910E+04  1.17938E+04 -1.59052E+04  2.58085E+03 -1.30272E+04 -4.94702E+03
 -6.06109E+03 -1.10266E+04 -1.19609E+03 -9.09059E+03  3.31100E+03 -4.22263E+03  2.85444E+03 -3.81788E+03
  2.16643E+03 -2.71556E+03  2.98131E+03 -2.88279E+03  4.39463E+03 -2.31879E+03  5.19030E+03 -5.67464E+01
  6.93265E+03  2.15428E+03  3.38491E+03  5.96388E+03 -1.73705E+03  5.92437E+03 -8.14776E+03  5.17159E+03
 -8.87245E+03 -9.42611E+02 -4.75417E+03 -6.43465E+03 -1.05366E+02 -8.96006E+03  5.68758E+03 -9.55774E+03
  9.57633E+03 -5.41106E+03  1.20817E+04  1.44100E+03  7.92714E+03  7.87039E+03  1.27418E+03  1.03993E+04
 -4.61080E+03  9.06914E+03 -6.04377E+03  2.27698E+03 -4.26525E+03 -6.35239E+02 -1.68113E+03 -1.54078E+03
 -1.03390E+03  1.59859E+02 -1.14992E+03  1.68174E+03 -3.57214E+03  9.81334E+02 -6.24678E+03 -1.04100E+03
 -3.72975E+03 -6.37770E+03  3.70171E+02 -8.79256E+03  5.84696E+03 -8.20003E+03  8.08072E+03 -2.47141E+03
  8.38523E+03  4.85060E+03  4.27422E+03  7.71672E+03 -1.69985E+03  8.64612E+03 -6.02474E+03  6.16926E+03
 -7.53679E+03  9.77898E+02 -6.15851E+03 -5.10066E+03 -5.98872E+02 -6.83684E+03  3.77181E+03 -4.75032E+03
  5.27648E+03 -1.41022E+03  4.03122E+03  1.57283E+03  7.65756E+02  3.70495E+03  3.48821E+02  1.15703E+03
  1.49822E+03  1.07198E+03  1.69447E+03  1.35919E+03  2.27384E+03  3.27082E+03  2.35443E+03  4.10877E+03
 -1.79797E+03  6.48780E+03 -5.87501E+03  7.44655E+03 -7.63400E+03  1.79221E+03 -8.27642E+03 -3.48159E+03
 -4.10591E+03 -7.89326E+03  1.23943E+03 -1.02856E+04  5.47169E+03 -5.42677E+03  6.90825E+03 -1.97108E+03
  5.36525E+03  3.29229E+03  1.38961E+03  5.10773E+03 -2.30292E+03  2.65598E+03 -2.91628E+03 -6.66023E+02
 -1.46522E+03 -3.46813E+03  2.39580E+03 -3.55407E+03  3.15286E+03 -2.09004E+03  2.68082E+03  5.38056E+02
  2.36497E+03  1.56333E+03  1.02593E+03  6.83464E+02 -6.45493E+02  1.74310E+03  1.29679E+03 -5.68560E+01
  1.30440E+03 -2.18398E+02  4.06814E+03  1.25833E+03  1.31737E+03  4.99280E+03 -5.38472E+02  5.87151E+03
 -3.72788E+03  3.23371E+03 -5.22092E+03  1.05751E+03 -4.57322E+03 -2.06229E+03 -1.27114E+03 -2.26994E+03
  7.62646E+02 -2.21447E+03  2.25297E+03 -2.01805E+03  1.90163E+03  1.42334E+03 -1.10515E+03  3.15790E+03
 -3.33709E+03  1.58274E+03 -3.35261E+03 -1.91305E+03 -1.90649E+03 -4.38794E+03  1.83478E+02 -4.06396E+03
  2.13792E+03 -2.29342E+03  2.59630E+03 -2.05949E+02  2.19450E+03  1.10781E+03  2.37015E+02  2.72369E+03
 -1.46536E+03  4.76782E+02 -2.46540E+03 -1.37288E+03  1.01437E+03 -3.18070E+03  3.66576E+03 -2.25661E+03
  4.39020E+03  6.07142E+01  5.07132E+03  2.82463E+03  2.33624E+03  4.55399E+03 -1.60006E+03  4.52874E+03
 -3.24527E+03  1.92972E+03 -4.40117E+03  3.22740E+02 -2.03407E+03 -3.43049E+03  2.25221E+02 -2.43934E+03
  3.28290E+03 -1.27726E+03  2.50958E+03  1.66767E+03  1.04327E+03  3.28702E+03 -4.89598E+02  1.96819E+03
 -6.98611E+02  1.53618E+03 -1.49040E+03  6.27537E+02 -7.96786E+02  1.06296E+02 -1.08653E+03  1.10159E+03
 -1.52621E+03  2.51542E+03 -3.99975E+03  1.38798E+03 -4.59175E+03  3.31269E+02 -5.27745E+03 -2.29507E+03
 -2.88623E+03 -6.62580E+03  9.97298E+02 -7.94451E+03  4.24553E+03 -6.29914E+03  7.07180E+03 -1.90797E+03
  6.43851E+03  9.19272E+02  2.97509E+03  4.28635E+03  4.30660E+01  4.08763E+03 -2.13432E+03  3.79631E+03
 -2.37372E+03  1.51229E+03 -1.87690E+03 -6.43095E+02 -6.28771E+02 -6.07335E+00 -7.12135E+02 -3.52999E+02
 -1.15720E+03  2.84226E+02 -1.80928E+03 -4.60201E+02  8.76058E+01 -1.40968E+03  3.27073E+02 -2.49727E+03
  2.60509E+03 -2.29723E+03  2.75851E+03 -1.21742E+01  3.22645E+03  2.46089E+03  3.78653E+02  4.77219E+03
 -2.94233E+03  5.57480E+03 -4.90328E+03  2.88392E+03 -5.64655E+03 -9.26294E+02 -3.67029E+03 -3.75788E+03
 -1.64075E+03 -4.61608E+03  1.25697E+03 -4.13186E+03  2.36640E+03 -2.61470E+03  2.91277E+03  3.39512E+02
  1.29244E+03  1.07470E+03 -3.28626E+01  1.46213E+03 -7.38120E+02  2.01983E+02  1.89232E+02 -8.61213E+02
  1.49287E+03  8.93941E+00  8.42299E+02  1.08602E+03  1.17218E+03  1.38998E+03 -3.04029E+01  2.13380E+03
 -1.61580E+03  2.15917E+03 -2.39633E+03 -6.95247E+01 -2.56397E+03 -2.03864E+03 -1.37849E+02 -3.69312E+03
  1.62732E+03 -3.37231E+03  2.72655E+03 -2.96594E+02  3.51012E+03  3.85021E+02  1.60920E+03  2.28331E+03
  6.03799E+02  2.62265E+03 -1.14140E+03  3.10560E+03 -1.82518E+03  2.27872E+03 -1.73218E+03  2.06278E+02
 -1.14820E+03  2.92970E+02 -1.71898E+03  1.04844E+02 -2.10588E+03  5.62481E+02 -2.56789E+03 -4.30784E+02
 -2.07940E+03 -1.07291E+03 -9.33423E+02 -2.58901E+03  1.22804E+03 -3.59575E+03  3.10992E+03 -9.63136E+02
  2.68773E+03  5.87770E+01  7.72742E+02  2.46177E+03 -3.13400E+02  2.67658E+03 -2.04158E+03  1.58071E+03
