 $NMID ID='MM_0lb_SNR400_9hz_g60_35.RAW', FMTDAT='(8E13.5)'
 TRAMP=1., VOLUME=1. $END
  3.10779E+05  2.44416E+02  3.38172E+05  2.50810E+05  8.50539E+04  3.39004E+05 -1.32897E+05  2.52156E+05
 -1.91044E+05  8.42351E+04 -1.12794E+05 -3.26786E+04 -2.10798E+02 -5.09223E+04  5.36993E+04 -6.37907E+02
  3.60143E+04  5.26148E+04 -1.64600E+04  7.60435E+04 -6.08587E+04  6.51986E+04 -8.59434E+04  3.39254E+04
 -8.29604E+04 -1.10755E+04 -5.74121E+04 -5.34509E+04 -1.52773E+04 -7.07344E+04  2.86436E+04 -4.72902E+04
  4.13386E+04  4.14249E+03  1.63013E+04  4.90135E+04 -3.48347E+04  4.84590E+04 -6.91074E+04  1.15126E+03
 -5.47597E+04 -5.86185E+04 -7.78611E+03 -7.97816E+04  3.53033E+04 -5.78662E+04  5.03793E+04 -1.84837E+04
  4.55404E+04  1.18165E+04  3.37140E+04  2.68942E+04  1.62611E+04  3.08878E+04 -5.89546E+03  2.71658E+04
 -2.32410E+04  1.16797E+04 -1.86006E+04 -5.74416E+03  7.23535E+03 -7.06455E+03  2.40082E+04  1.44420E+04
  6.91006E+03  3.84207E+04 -3.44534E+04  3.80836E+04 -6.68494E+04  1.97155E+03 -5.90447E+04 -4.47958E+04
 -1.25421E+04 -6.68082E+04  4.20021E+04 -4.80600E+04  6.21150E+04 -2.71256E+03  3.78993E+04  3.49834E+04
 -4.84447E+03  4.03731E+04 -3.20878E+04  1.89109E+04 -3.39835E+04 -3.04808E+03 -2.05084E+04 -1.21139E+04
 -9.51791E+03 -1.52100E+04 -4.57348E+02 -2.08406E+04  9.10821E+03 -2.32813E+04  1.62210E+04 -1.26924E+04
  1.06149E+04  6.34733E+03 -1.05737E+04  1.28494E+04 -2.40259E+04 -6.81859E+03 -8.83025E+03 -3.74247E+04
  2.64585E+04 -4.74080E+04  5.30519E+04 -2.17543E+04  5.00309E+04  2.03638E+04  1.79473E+04  4.85727E+04
 -1.70715E+04  3.67105E+04 -2.81457E+04  4.23654E+03 -1.32242E+04 -3.00606E+04  2.09783E+04 -3.80646E+04
  4.51754E+04 -1.09775E+04  4.14616E+04  2.49714E+04  2.23245E+04  5.14867E+04 -7.70214E+03  5.70779E+04
 -3.62362E+04  3.90111E+04 -4.87168E+04  1.14064E+04 -4.90907E+04 -1.96234E+04 -2.58097E+04 -4.27440E+04
  8.51746E+03 -4.27545E+04  3.46182E+04 -1.76200E+04  3.25813E+04  1.10311E+04  5.38607E+03  2.17953E+04
 -1.35858E+04  9.46481E+03 -1.10503E+04 -7.81671E+03  6.20737E+03 -1.16509E+04  1.91422E+04  5.24097E+03
  1.48718E+04  2.30147E+04 -5.32510E+03  2.82893E+04 -2.37101E+04  1.46132E+04 -3.17036E+04 -2.52304E+03
 -2.53332E+04 -1.92047E+04 -1.26563E+04 -2.58517E+04  4.63868E+03 -2.73399E+04  2.05785E+04 -2.40322E+04
  3.33992E+04 -1.42822E+04  3.87168E+04  4.89675E+03  2.75241E+04  2.52955E+04  5.19637E+03  4.29242E+04
 -2.07477E+04  3.34714E+04 -3.14397E+04  1.19157E+04 -2.18406E+04 -1.00507E+04 -4.80610E+03 -1.23694E+04
  4.14770E+02 -4.59208E+02 -8.39041E+03  9.11233E+03 -2.15668E+04  5.32192E+03 -2.09511E+04 -9.86503E+03
 -1.21184E+04 -2.44292E+04  5.71722E+03 -2.95883E+04  1.92584E+04 -1.96186E+04  2.35267E+04 -1.50723E+03
  1.54351E+04  1.76118E+04 -1.37943E+03  2.44892E+04 -1.80137E+04  1.47460E+04 -2.43518E+04 -5.93545E+03
 -1.72844E+04 -2.16395E+04 -1.85390E+03 -2.96531E+04  1.34712E+04 -2.34910E+04  2.38685E+04 -1.22246E+04
  2.22010E+04 -6.96261E+02  1.52983E+04  5.60866E+03  9.02955E+03  1.78805E+03  1.32907E+04 -1.72537E+03
  2.31792E+04  2.69671E+03  2.62051E+04  1.83877E+04  1.77746E+04  3.91291E+04 -2.80790E+03  4.63318E+04
 -2.59412E+04  3.90296E+04 -4.45563E+04  2.04259E+04 -4.68016E+04 -3.17233E+03 -3.75531E+04 -2.75258E+04
 -1.51074E+04 -3.88462E+04  1.33384E+04 -3.38197E+04  2.83061E+04 -1.56969E+04  2.54854E+04  7.78142E+03
  8.42481E+03  2.04337E+04 -1.18168E+04  1.60751E+04 -2.17488E+04  1.97648E+03 -1.63783E+04 -1.37432E+04
 -2.05390E+02 -2.10618E+04  1.09738E+04 -1.48656E+04  1.42724E+04 -8.17110E+02  3.83941E+03  9.50586E+03
 -8.80460E+03  4.37276E+03 -9.02639E+03 -7.38409E+03 -2.07239E+03 -1.91220E+04  1.19603E+04 -2.13437E+04
  2.40512E+04 -1.21512E+04  2.78293E+04  3.66045E+03  2.46742E+04  1.97345E+04  1.14605E+04  3.03704E+04
 -5.65218E+03  3.27389E+04 -2.19745E+04  2.00799E+04 -2.41532E+04  4.53347E+03 -1.58757E+04 -5.90122E+03
 -6.57315E+03 -8.44655E+03 -1.40385E+03 -3.30925E+02 -2.84493E+03  2.85770E+03 -7.62386E+03  5.75080E+03
 -1.44820E+04 -9.74257E+02 -1.58284E+04 -1.17979E+04 -6.35782E+03 -2.04009E+04  6.84501E+03 -1.63250E+04
  1.42020E+04 -6.53284E+03  9.12737E+03  4.63986E+03 -1.00393E+03  6.53389E+03 -8.18746E+03 -2.02727E+02
 -7.67689E+03 -1.09591E+04 -6.74416E+02 -1.63070E+04  9.59068E+03 -1.79575E+04  2.12225E+04 -8.85240E+03
  2.52338E+04  2.38901E+03  1.80728E+04  1.49121E+04  3.28478E+03  2.06288E+04 -1.01932E+04  1.69382E+04
 -1.23063E+04  4.71431E+03 -7.91521E+03 -4.54085E+03  2.52688E+03 -5.71865E+03  8.90902E+03 -1.28648E+03
  8.04883E+03  7.95710E+03  1.53352E+03  1.37096E+04 -9.73356E+03  1.28979E+04 -1.70893E+04  1.72664E+03
 -1.12016E+04 -8.13512E+03  1.67808E+03 -1.37927E+04  9.15818E+03 -7.05304E+03  9.84809E+03  3.71157E+03
  2.02356E+03  1.08283E+04 -8.75851E+03  1.21303E+04 -1.40675E+04  6.16827E+03 -1.51706E+04 -5.77432E+03
 -8.12501E+03 -1.72700E+04  4.37253E+03 -1.92226E+04  1.69055E+04 -1.09771E+04  1.81740E+04  3.33466E+03
  1.10388E+04  1.43727E+04 -8.40569E+02  1.75918E+04 -1.19232E+04  9.15004E+03 -1.35646E+04 -9.56801E+02
 -1.14270E+04 -1.08222E+04 -2.02298E+03 -1.29665E+04  6.96135E+03 -9.78327E+03  8.02779E+03 -4.46521E+03
  5.23628E+03  2.17198E+03 -1.13271E+03  2.38771E+03 -1.17978E+03 -3.39560E+03  3.45556E+03 -7.56405E+03
  1.26590E+04 -5.20136E+03  1.70166E+04  1.77111E+03  1.65581E+04  1.21131E+04  1.08862E+04  2.25559E+04
 -5.27595E+03  2.49847E+04 -2.16100E+04  1.87817E+04 -2.74386E+04  3.38039E+03 -2.18788E+04 -9.50387E+03
 -1.02824E+04 -1.92188E+04 -1.47004E+02 -1.45761E+04  5.16232E+03 -9.15664E+03  5.51528E+03 -6.02903E+03
  3.69500E+03 -3.49595E+03  4.36364E+03 -3.82734E+03  6.34543E+03 -3.63184E+03  8.42079E+03 -1.55767E+03
  1.12512E+04  2.66760E+03  6.39093E+03  1.01775E+04 -1.89013E+03  1.25353E+04 -1.18573E+04  8.96429E+03
 -1.61633E+04 -1.65123E+03 -9.75502E+03 -1.15959E+04 -1.31028E+03 -1.59437E+04  9.85453E+03 -1.63877E+04
  1.75016E+04 -9.50814E+03  2.01615E+04  3.82411E+03  1.49433E+04  1.50260E+04  2.28757E+03  1.91121E+04
 -8.01125E+03  1.51932E+04 -1.14439E+04  6.16201E+03 -7.24854E+03 -2.07334E+03 -3.73785E+03 -2.28862E+03
 -1.80798E+03 -5.96035E+01 -2.99455E+03  2.54392E+03 -6.70994E+03  2.71650E+03 -1.02959E+04 -1.71792E+03
 -7.60306E+03 -1.11522E+04  1.57408E+02 -1.60316E+04  9.17202E+03 -1.41244E+04  1.57788E+04 -4.22468E+03
  1.60855E+04  7.42706E+03  7.61541E+03  1.51224E+04 -3.22878E+03  1.65808E+04 -1.18821E+04  9.90878E+03
 -1.53007E+04 -3.74997E+02 -1.21535E+04 -9.71553E+03 -6.01952E+02 -1.36618E+04  6.72248E+03 -1.08476E+04
  9.45995E+03 -3.65155E+03  7.19575E+03  2.82887E+03  2.92017E+03  4.27764E+03  1.51508E+03  2.02999E+03
  3.55754E+03  1.37253E+03  3.77554E+03  1.81794E+03  4.29959E+03  5.62304E+03  3.47313E+03  8.89151E+03
 -3.17901E+03  1.30402E+04 -1.15989E+04  1.24891E+04 -1.72729E+04  3.01728E+03 -1.69985E+04 -7.13560E+03
 -8.21077E+03 -1.70610E+04  2.03779E+03 -1.74976E+04  9.68540E+03 -1.15499E+04  1.34185E+04 -2.97030E+03
  1.02235E+04  5.68722E+03  2.96544E+03  9.09779E+03 -4.89162E+03  6.39040E+03 -6.63077E+03 -7.75840E+02
 -3.17358E+03 -6.91835E+03  4.19691E+03 -6.59590E+03  7.22243E+03 -3.61315E+03  6.25940E+03  2.90262E+03
  4.46010E+03  3.81646E+03  1.78575E+03  2.51384E+03 -4.78127E+02  1.60722E+03  2.33927E+03 -7.84577E+02
  2.41064E+03 -8.28718E+02  6.28588E+03  2.49227E+03  3.68672E+03  8.11430E+03 -2.32499E+03  1.12335E+04
 -7.13084E+03  7.38091E+03 -1.08130E+04  2.50695E+03 -8.99260E+03 -2.93380E+03 -3.59095E+03 -6.16343E+03
  5.84104E+02 -6.79174E+03  5.25879E+03 -2.88171E+03  4.06228E+03  3.24373E+03 -2.43515E+03  5.12064E+03
 -6.49270E+03  2.96920E+03 -7.82907E+03 -3.43475E+03 -4.15136E+03 -1.04811E+04  1.06193E+03 -9.53180E+03
  5.45005E+03 -5.79792E+03  6.65472E+03 -1.28029E+03  5.46148E+03  2.17760E+03  4.49179E+02  4.67337E+03
 -3.46088E+03  1.31753E+03 -3.53409E+03 -3.24423E+03  1.38624E+03 -6.90364E+03  7.89132E+03 -6.27278E+03
  1.02404E+04  1.02125E+03  1.16845E+04  7.04102E+03  2.69815E+03  1.13858E+04 -4.40548E+03  9.39162E+03
 -9.14404E+03  5.47372E+03 -9.85479E+03 -7.98769E+02 -4.70020E+03 -6.62730E+03  1.55801E+03 -6.50914E+03
  6.53627E+03 -3.66279E+03  4.98256E+03  2.82460E+03  1.66046E+03  6.42769E+03 -5.80264E+02  4.22468E+03
 -2.88484E+03  3.96661E+03 -2.19679E+03  9.16427E+02 -1.97645E+03  6.59209E+02 -1.93043E+03  2.11401E+03
 -2.50249E+03  4.25643E+03 -7.45101E+03  3.51773E+03 -1.10217E+04  7.33938E+02 -1.16028E+04 -7.86045E+03
 -6.44928E+03 -1.42063E+04  3.32276E+03 -1.71969E+04  1.09360E+04 -1.34211E+04  1.53848E+04 -5.20658E+03
  1.44256E+04  3.04340E+03  9.53561E+03  1.02945E+04  9.57019E+02  1.18087E+04 -4.63799E+03  8.59489E+03
 -6.22481E+03  3.04197E+03 -4.16829E+03 -7.06646E+02 -8.73545E+02 -1.42778E+03 -1.97729E+02  2.52601E+02
 -1.35561E+03  1.05840E+02 -1.86679E+03 -3.95834E+02 -7.70374E+02 -2.39969E+03  3.83508E+02 -3.51071E+03
  4.76497E+03 -3.61290E+03  7.78452E+03  4.78102E+02  8.05219E+03  5.82854E+03  2.06823E+03  1.18094E+04
 -6.11894E+03  1.24993E+04 -1.24025E+04  7.99047E+03 -1.31323E+04 -1.09231E+03 -1.06844E+04 -8.61221E+03
 -4.12019E+03 -1.17157E+04  2.55806E+03 -1.10394E+04  7.22714E+03 -5.26446E+03  8.58958E+03  4.59014E+02
  4.40304E+03  3.89147E+03  1.88582E+02  2.96349E+03 -2.90309E+03 -4.06825E+02  6.83325E+02 -2.33756E+03
  3.95270E+03 -1.74785E+03  5.04985E+03  1.91757E+03  3.52405E+03  3.77546E+03  1.68089E+02  5.95730E+03
 -5.93783E+03  5.43268E+03 -7.47490E+03  7.41316E+01 -6.86975E+03 -5.70539E+03 -6.98990E+02 -9.82123E+03
  4.79906E+03 -8.01751E+03  9.49914E+03 -2.70686E+03  8.85059E+03  3.22518E+03  4.16753E+03  7.40530E+03
  1.44794E+03  8.35768E+03 -2.29812E+03  6.31737E+03 -5.39506E+03  2.94495E+03 -3.59608E+03  1.16578E+03
 -2.39504E+03  1.81869E+02 -2.63400E+03  9.76936E+02 -3.78776E+03  1.27129E+03 -6.36817E+03 -7.53402E+02
 -6.26065E+03 -4.38634E+03 -7.58864E+02 -7.48530E+03  3.18263E+03 -8.22254E+03  6.97908E+03 -4.02756E+03
  7.15241E+03  1.16769E+03  4.32874E+03  5.28534E+03 -9.92936E+02  8.08976E+03 -5.89002E+03  4.51183E+03
