 $NMID ID='MM_0lb_SNR400_11hz_g45_43.RAW', FMTDAT='(8E13.5)'
 TRAMP=1., VOLUME=1. $END
  3.09007E+05  3.48670E+02  3.38379E+05  2.50146E+05  8.44519E+04  3.37720E+05 -1.31872E+05  2.51824E+05
 -1.90649E+05  8.37959E+04 -1.12944E+05 -3.25161E+04  6.67784E+02 -5.09719E+04  5.33732E+04 -7.30824E+02
  3.55977E+04  5.23613E+04 -1.64659E+04  7.57975E+04 -6.07356E+04  6.37755E+04 -8.45486E+04  3.20589E+04
 -8.21648E+04 -1.13753E+04 -5.79206E+04 -5.16996E+04 -1.51968E+04 -7.02774E+04  2.78015E+04 -4.66903E+04
  4.04717E+04  3.53653E+03  1.64300E+04  4.82842E+04 -3.44660E+04  4.80863E+04 -6.75595E+04 -9.13349E+01
 -5.45803E+04 -5.64093E+04 -7.25632E+03 -7.81850E+04  3.42382E+04 -5.63649E+04  4.84544E+04 -1.80471E+04
  4.37303E+04  1.12581E+04  3.19854E+04  2.59925E+04  1.53159E+04  2.99724E+04 -5.51848E+03  2.77038E+04
 -2.27722E+04  1.24316E+04 -1.84478E+04 -5.32293E+03  6.63427E+03 -7.61748E+03  2.34936E+04  1.25717E+04
  7.35523E+03  3.59849E+04 -3.30284E+04  3.62016E+04 -6.42965E+04  2.54520E+03 -5.76418E+04 -4.34648E+04
 -1.24134E+04 -6.41521E+04  4.06864E+04 -4.58751E+04  6.00851E+04 -2.83380E+03  3.58303E+04  3.34298E+04
 -6.32435E+03  3.73575E+04 -3.06756E+04  1.68641E+04 -3.12824E+04 -2.98573E+03 -1.77563E+04 -1.18943E+04
 -8.71577E+03 -1.41910E+04 -7.17400E+02 -1.77397E+04  7.97273E+03 -2.31037E+04  1.60971E+04 -1.23151E+04
  1.07097E+04  5.42940E+03 -9.43505E+03  1.30795E+04 -2.22803E+04 -6.47468E+03 -7.81304E+03 -3.58057E+04
  2.38523E+04 -4.54103E+04  4.97121E+04 -2.01249E+04  4.71171E+04  1.98710E+04  1.65432E+04  4.59748E+04
 -1.67217E+04  3.58551E+04 -2.63453E+04  2.27614E+03 -1.07948E+04 -2.88574E+04  2.08206E+04 -3.51717E+04
  4.28177E+04 -1.04063E+04  3.81343E+04  2.44245E+04  1.99776E+04  4.83072E+04 -8.09333E+03  5.32933E+04
 -3.27214E+04  3.59615E+04 -4.47102E+04  1.04843E+04 -4.49991E+04 -1.76908E+04 -2.49409E+04 -3.98373E+04
  7.31194E+03 -4.07992E+04  3.26365E+04 -1.61068E+04  3.06489E+04  1.13851E+04  4.55019E+03  1.97621E+04
 -1.39517E+04  8.93838E+03 -1.05476E+04 -7.41623E+03  5.17593E+03 -1.12516E+04  1.83532E+04  5.71061E+03
  1.38554E+04  2.24812E+04 -5.84740E+03  2.65730E+04 -2.29936E+04  1.32639E+04 -2.98716E+04 -3.99365E+03
 -2.29444E+04 -1.75365E+04 -1.01434E+04 -2.26156E+04  4.33898E+03 -2.26358E+04  1.81694E+04 -2.07239E+04
  2.97512E+04 -1.35500E+04  3.50765E+04  3.91903E+03  2.50863E+04  2.12130E+04  4.90885E+03  3.87785E+04
 -1.90966E+04  3.18436E+04 -2.96698E+04  1.08301E+04 -2.14481E+04 -9.81794E+03 -4.87973E+03 -1.35792E+04
  9.80770E+02 -2.27376E+03 -6.05460E+03  7.53486E+03 -1.81289E+04  5.24623E+03 -1.82633E+04 -8.43038E+03
 -1.11962E+04 -2.05633E+04  5.20616E+03 -2.52926E+04  1.68204E+04 -1.84223E+04  2.03153E+04 -2.16407E+03
  1.29499E+04  1.44415E+04 -1.26484E+03  2.07478E+04 -1.52227E+04  1.21484E+04 -2.17461E+04 -4.52694E+03
 -1.53902E+04 -1.91097E+04 -2.07903E+03 -2.52463E+04  1.17621E+04 -2.13669E+04  2.10458E+04 -1.08384E+04
  2.02121E+04  3.32844E+02  1.48548E+04  4.71994E+03  7.75346E+03  1.20552E+03  1.13418E+04 -2.01444E+03
  2.01372E+04  2.97161E+03  2.30200E+04  1.71638E+04  1.53382E+04  3.47755E+04 -3.36058E+03  3.91676E+04
 -2.27319E+04  3.21908E+04 -3.66072E+04  1.68256E+04 -3.92254E+04 -3.38100E+03 -3.15467E+04 -2.24077E+04
 -1.31700E+04 -3.21576E+04  1.13509E+04 -2.87358E+04  2.46560E+04 -1.40240E+04  2.13364E+04  6.48602E+03
  7.80794E+03  1.61311E+04 -9.29584E+03  1.36622E+04 -1.80853E+04  2.17244E+03 -1.46307E+04 -1.24157E+04
 -8.73420E+02 -1.75749E+04  9.65275E+03 -1.29822E+04  1.19124E+04 -2.17291E+03  3.17673E+03  7.79723E+03
 -7.58235E+03  2.83323E+03 -7.71090E+03 -6.41733E+03 -1.15726E+03 -1.64753E+04  1.08662E+04 -1.74118E+04
  2.00907E+04 -8.75419E+03  2.17063E+04  2.93844E+03  1.89120E+04  1.57517E+04  9.40150E+03  2.44531E+04
 -4.62043E+03  2.66099E+04 -1.69091E+04  1.68336E+04 -1.90244E+04  3.90011E+03 -1.26676E+04 -4.79908E+03
 -6.08226E+03 -6.24547E+03 -6.06666E+02  9.16678E+02 -2.97097E+03  2.89046E+03 -6.35170E+03  4.07278E+03
 -1.30165E+04 -5.00370E+02 -1.29906E+04 -1.00593E+04 -5.34202E+03 -1.68797E+04  5.58100E+03 -1.40244E+04
  1.13415E+04 -5.97310E+03  7.57352E+03  3.37324E+03 -4.11617E+02  4.70603E+03 -6.67097E+03  4.25204E+02
 -6.54290E+03 -7.98517E+03 -9.30557E+02 -1.25029E+04  7.13523E+03 -1.36926E+04  1.64681E+04 -6.94262E+03
  2.00907E+04  1.46117E+03  1.41490E+04  1.15639E+04  2.51789E+03  1.64410E+04 -8.48601E+03  1.36721E+04
 -1.08275E+04  4.19953E+03 -6.07162E+03 -2.63340E+03  1.86222E+03 -3.67997E+03  7.60069E+03 -1.25212E+03
  5.84144E+03  6.15497E+03  1.43713E+03  1.05784E+04 -7.67125E+03  1.00344E+04 -1.28222E+04  2.22499E+03
 -9.03774E+03 -7.30850E+03 -4.97028E+02 -1.14409E+04  6.98794E+03 -5.77446E+03  7.75172E+03  3.00177E+03
  1.19127E+03  8.06739E+03 -7.28458E+03  1.00256E+04 -1.12533E+04  3.97254E+03 -1.15425E+04 -3.71519E+03
 -6.42121E+03 -1.33325E+04  2.83658E+03 -1.45303E+04  1.29952E+04 -8.96185E+03  1.34854E+04  2.95179E+03
  7.72010E+03  1.05232E+04 -4.75520E+02  1.30399E+04 -9.35640E+03  7.29222E+03 -1.04616E+04 -8.73934E+02
 -9.66129E+03 -9.18632E+03 -1.75610E+03 -9.96721E+03  5.59202E+03 -8.74568E+03  6.83305E+03 -3.47074E+03
  3.48967E+03  1.71085E+03 -1.08667E+03  1.88454E+03 -5.07449E+02 -2.37472E+03  2.23202E+03 -6.42445E+03
  9.56629E+03 -3.50029E+03  1.23916E+04  2.39206E+03  1.21621E+04  8.44384E+03  8.97558E+03  1.65418E+04
 -4.98584E+03  1.92878E+04 -1.58522E+04  1.42646E+04 -2.02267E+04  2.65207E+03 -1.62104E+04 -7.32980E+03
 -8.42702E+03 -1.36005E+04 -3.17012E+02 -1.19063E+04  3.82187E+03 -6.93438E+03  3.74501E+03 -3.83650E+03
  2.93374E+03 -2.90832E+03  2.97677E+03 -3.23182E+03  4.87360E+03 -3.39727E+03  6.83697E+03 -8.69224E+02
  8.77495E+03  2.07254E+03  3.97344E+03  7.08879E+03 -1.98349E+03  8.49175E+03 -9.13919E+03  6.78605E+03
 -1.13252E+04 -8.86715E+02 -7.18690E+03 -8.37600E+03 -5.42762E+00 -1.19844E+04  7.09496E+03 -1.24349E+04
  1.23070E+04 -7.00696E+03  1.54785E+04  2.28164E+03  9.92000E+03  1.10063E+04  1.54891E+03  1.39658E+04
 -5.83160E+03  1.18886E+04 -7.61251E+03  4.50249E+03 -5.67143E+03 -1.30721E+03 -2.30163E+03 -1.23315E+03
 -4.52976E+02 -3.98446E+02 -1.56555E+03  2.94285E+03 -4.73640E+03  2.13016E+03 -8.80545E+03 -9.00472E+02
 -5.65410E+03 -7.73890E+03 -6.26647E+02 -1.10564E+04  6.03076E+03 -1.02678E+04  1.09656E+04 -2.92417E+03
  1.12713E+04  5.47134E+03  4.28710E+03  9.41265E+03 -2.42247E+03  1.08276E+04 -8.77030E+03  7.06045E+03
 -1.06687E+04  3.13439E+02 -7.73394E+03 -6.35173E+03 -9.08183E+02 -8.97460E+03  5.32624E+03 -7.08954E+03
  7.01380E+03 -3.21825E+03  5.04458E+03  2.04805E+03  2.08405E+03  3.06505E+03  1.30961E+03  1.83761E+03
  2.86157E+03  7.61466E+02  2.95909E+03  1.52279E+03  3.49716E+03  3.91113E+03  2.18716E+03  5.76040E+03
 -2.88015E+03  9.25454E+03 -7.82290E+03  9.01336E+03 -1.10617E+04  2.39532E+03 -1.14555E+04 -4.32747E+03
 -5.58527E+03 -1.05154E+04  1.99938E+03 -1.24196E+04  6.90869E+03 -7.48311E+03  8.59790E+03 -2.07649E+03
  7.13789E+03  4.59866E+03  1.59435E+03  6.37321E+03 -2.83675E+03  4.39608E+03 -3.78091E+03 -6.15256E+02
 -2.49605E+03 -4.75006E+03  2.52529E+03 -4.85775E+03  4.60220E+03 -2.18626E+03  3.81869E+03  9.31171E+02
  2.86965E+03  1.97292E+03  2.00661E+03  9.58092E+02 -5.80358E+02  2.66022E+03  1.45424E+03 -1.09033E+03
  1.47610E+03 -8.83266E+02  4.08501E+03  1.63847E+03  2.89512E+03  6.04221E+03 -1.43026E+03  8.07140E+03
 -5.86028E+03  4.70828E+03 -7.10845E+03  1.37297E+03 -6.42930E+03 -2.38105E+03 -2.66501E+03 -4.16364E+03
  5.24856E+02 -4.96368E+03  2.81639E+03 -2.80433E+03  3.04660E+03  2.72328E+03 -8.31526E+02  3.39133E+03
 -4.52293E+03  1.76593E+03 -4.96464E+03 -3.42423E+03 -2.67666E+03 -6.04237E+03  9.63990E+02 -6.29352E+03
  3.68167E+03 -3.52303E+03  3.74194E+03 -2.49295E+02  3.24601E+03  1.37384E+03  5.70190E+02  2.88511E+03
 -3.03723E+03  6.62278E+02 -2.33564E+03 -2.47926E+03  1.56826E+03 -3.75608E+03  5.37272E+03 -3.52346E+03
  6.68854E+03  8.22640E+02  5.82342E+03  4.02656E+03  1.85318E+03  7.01552E+03 -2.12354E+03  7.06280E+03
 -5.51698E+03  2.87169E+03 -5.83926E+03 -5.38520E+02 -3.36941E+03 -4.29719E+03  1.10362E+03 -3.99043E+03
  3.91710E+03 -1.98610E+03  3.65002E+03  1.51333E+03  1.67229E+03  3.31279E+03 -5.43354E+02  3.78985E+03
 -1.09732E+03  2.67252E+03 -9.32725E+02  9.43632E+02 -5.12383E+02  1.34177E+03 -1.26780E+03  1.49621E+03
 -1.63552E+03  2.73710E+03 -5.00936E+03  2.18416E+03 -6.69407E+03  3.57909E+02 -7.97044E+03 -4.72246E+03
 -4.05621E+03 -9.24827E+03  1.91077E+03 -1.18116E+04  6.08439E+03 -8.59442E+03  1.01691E+04 -3.00741E+03
  9.29679E+03  1.66791E+03  5.88964E+03  5.81844E+03  3.72298E+02  7.87399E+03 -2.35025E+03  5.89068E+03
 -4.48166E+03  2.14256E+03 -2.85213E+03 -5.40516E+02 -9.25903E+02 -6.95917E+02 -5.78911E+02  4.17877E+02
 -6.92555E+02  4.56689E+02 -2.44823E+03 -4.15734E+02  4.21263E+01 -2.10086E+03  5.40692E+02 -3.05807E+03
  3.42298E+03 -2.88473E+03  3.60280E+03  2.97448E+02  4.10972E+03  4.23560E+03  1.52228E+03  6.28763E+03
 -3.74223E+03  7.67093E+03 -7.74514E+03  4.66508E+03 -8.78458E+03 -2.15756E+02 -6.38447E+03 -5.08219E+03
 -2.78632E+03 -7.40186E+03  1.14530E+03 -6.47130E+03  4.62145E+03 -3.53651E+03  4.34575E+03 -2.64742E+02
  2.55575E+03  1.69847E+03 -6.69208E+02  2.10563E+03 -1.52283E+03 -1.74954E+02 -5.01565E+01 -1.98287E+03
  2.09306E+03 -6.29265E+02  2.74101E+03  9.00088E+02  2.40649E+03  2.08678E+03 -1.34125E+02  3.70611E+03
 -3.41547E+03  2.76460E+03 -4.50673E+03  8.11410E+02 -4.09388E+03 -3.17693E+03 -7.28448E+02 -6.21793E+03
  3.41909E+03 -4.53584E+03  5.42033E+03 -1.61696E+03  4.93610E+03  9.11950E+02  2.88873E+03  3.94499E+03
  6.48635E+02  4.29569E+03 -1.22441E+03  3.37309E+03 -3.03288E+03  2.12047E+03 -1.66614E+03 -2.33115E+00
 -1.17446E+03  1.09181E+02 -1.82292E+03  2.16285E+02 -2.19314E+03  4.61265E+02 -3.30172E+03 -2.80607E+02
 -3.32007E+03 -1.52321E+03 -1.43453E+03 -4.38544E+03  2.00568E+03 -4.89029E+03  4.59217E+03 -2.76642E+03
  4.78451E+03  8.99870E+02  2.84291E+03  3.14456E+03 -1.20073E+02  3.96981E+03 -3.22802E+03  2.86610E+03
