 $NMID ID='MM_0lb_SNR400_19hz_g60_74.RAW', FMTDAT='(8E13.5)'
 TRAMP=1., VOLUME=1. $END
  3.09725E+05  1.09869E+03  3.37744E+05  2.50224E+05  8.46476E+04  3.37475E+05 -1.32352E+05  2.50954E+05
 -1.90352E+05  8.30216E+04 -1.11730E+05 -3.18507E+04  1.13292E+03 -5.07278E+04  5.39609E+04 -7.77693E+01
  3.53510E+04  5.27978E+04 -1.66582E+04  7.51961E+04 -6.07852E+04  6.37415E+04 -8.29441E+04  3.16220E+04
 -8.02617E+04 -1.15749E+04 -5.68054E+04 -5.11512E+04 -1.51417E+04 -6.91543E+04  2.70735E+04 -4.47900E+04
  3.94359E+04  3.41711E+03  1.55815E+04  4.72482E+04 -3.43660E+04  4.67412E+04 -6.60564E+04 -1.58201E+02
 -5.34343E+04 -5.63701E+04 -6.60068E+03 -7.64521E+04  3.32340E+04 -5.44633E+04  4.69021E+04 -1.66158E+04
  4.28503E+04  1.08610E+04  3.20333E+04  2.45055E+04  1.58546E+04  2.85709E+04 -5.01861E+03  2.66568E+04
 -2.15883E+04  1.29850E+04 -1.86528E+04 -4.93811E+03  4.23428E+03 -7.76533E+03  2.18616E+04  1.14346E+04
  7.48781E+03  3.42068E+04 -3.14440E+04  3.50902E+04 -6.25575E+04  2.13724E+03 -5.64023E+04 -4.17462E+04
 -1.24130E+04 -6.18242E+04  3.90035E+04 -4.39164E+04  5.70472E+04 -1.68863E+03  3.30757E+04  3.14992E+04
 -6.09399E+03  3.47987E+04 -2.89597E+04  1.45460E+04 -2.89166E+04 -4.92877E+03 -1.56368E+04 -1.04373E+04
 -7.78487E+03 -1.20747E+04 -6.92869E+02 -1.75065E+04  7.30084E+03 -2.27948E+04  1.50109E+04 -1.36952E+04
  1.24159E+04  4.88943E+03 -7.02087E+03  1.28457E+04 -2.02381E+04 -3.66769E+03 -8.15568E+03 -3.16947E+04
  2.20590E+04 -4.18434E+04  4.62008E+04 -1.90309E+04  4.34697E+04  1.90898E+04  1.46379E+04  4.27470E+04
 -1.55575E+04  3.19466E+04 -2.39021E+04  1.39151E+03 -8.85352E+03 -2.70220E+04  2.07217E+04 -3.18527E+04
  3.94585E+04 -8.08452E+03  3.31263E+04  2.27640E+04  1.58038E+04  4.38938E+04 -8.09786E+03  4.68488E+04
 -2.98349E+04  3.20139E+04 -3.95723E+04  8.59348E+03 -3.96128E+04 -1.61721E+04 -2.22292E+04 -3.60745E+04
  6.96912E+03 -3.58644E+04  3.02036E+04 -1.33490E+04  2.76215E+04  1.04983E+04  3.68329E+03  1.82866E+04
 -1.40563E+04  8.13994E+03 -9.91336E+03 -7.73921E+03  5.91835E+03 -1.07285E+04  1.74106E+04  6.42381E+03
  1.21100E+04  2.17325E+04 -5.70595E+03  2.47526E+04 -2.16532E+04  9.47364E+03 -2.65155E+04 -5.56396E+03
 -1.79936E+04 -1.70067E+04 -6.91300E+03 -1.81089E+04  4.06220E+03 -1.57381E+04  1.40603E+04 -1.56723E+04
  2.30029E+04 -1.18041E+04  2.95189E+04  1.48168E+03  2.22828E+04  1.78354E+04  4.68835E+03  3.41215E+04
 -1.68604E+04  2.83212E+04 -2.61176E+04  9.65801E+03 -1.99256E+04 -1.01787E+04 -4.08812E+03 -1.40008E+04
  2.20338E+03 -4.06719E+03 -3.53915E+03  5.93999E+03 -1.41508E+04  5.41207E+03 -1.45565E+04 -5.46468E+03
 -9.03336E+03 -1.59605E+04  4.45230E+03 -2.02244E+04  1.35158E+04 -1.45874E+04  1.57044E+04 -1.94516E+03
  9.89828E+03  1.16177E+04 -1.21065E+03  1.65970E+04 -1.10357E+04  9.16733E+03 -1.62731E+04 -3.73517E+03
 -1.20379E+04 -1.55544E+04 -1.92963E+03 -2.03842E+04  9.54692E+03 -1.67198E+04  1.73672E+04 -8.23552E+03
  1.51401E+04 -2.36746E+01  1.09965E+04  4.19696E+03  5.10757E+03  5.72602E+02  7.97401E+03 -1.12855E+03
  1.49809E+04  3.08921E+03  1.57067E+04  1.31219E+04  9.62368E+03  2.60990E+04 -2.77661E+03  2.90302E+04
 -1.65274E+04  2.22488E+04 -2.58595E+04  1.10801E+04 -2.69373E+04 -1.72644E+03 -2.27640E+04 -1.55388E+04
 -1.06600E+04 -2.15256E+04  7.29826E+03 -1.96459E+04  1.77988E+04 -1.11795E+04  1.64172E+04  3.59664E+03
  6.47639E+03  1.21825E+04 -7.37418E+03  1.10824E+04 -1.39605E+04  2.71378E+03 -1.07608E+04 -8.02675E+03
 -2.06961E+02 -1.30250E+04  7.42495E+03 -9.88165E+03  8.30161E+03 -1.08439E+03  1.41547E+03  5.35849E+03
 -5.77613E+03  1.51899E+03 -4.27253E+03 -4.65801E+03  5.38008E+02 -1.04485E+04  8.23342E+03 -1.08705E+04
  1.30159E+04 -5.43735E+03  1.29266E+04  2.79624E+03  1.12651E+04  1.02017E+04  5.23676E+03  1.44063E+04
 -1.90046E+03  1.72157E+04 -1.03852E+04  1.09418E+04 -1.25217E+04  2.75053E+03 -8.51669E+03 -2.08817E+03
 -4.63775E+03 -3.59071E+03 -8.06400E+02  1.71190E+03 -2.45916E+03  1.87134E+03 -3.95420E+03  3.59509E+03
 -8.08997E+03 -8.98766E+02 -8.89541E+03 -7.53207E+03 -3.47192E+03 -1.18944E+04  3.60434E+03 -8.93108E+03
  6.90972E+03 -3.52615E+03  5.38506E+03  2.24849E+03  8.70672E+02  3.22866E+03 -3.00472E+03  2.17110E+02
 -3.82607E+03 -5.22351E+03 -7.92869E+02 -7.97047E+03  4.27554E+03 -8.16319E+03  1.02304E+04 -4.28903E+03
  1.21354E+04  4.35255E+02  8.75842E+03  6.77311E+03  1.63960E+03  9.18450E+03 -5.07783E+03  8.53755E+03
 -7.34310E+03  3.62603E+03 -3.26297E+03 -1.44746E+03  1.63344E+03 -2.22176E+03  5.05006E+03 -8.25772E+02
  3.49520E+03  3.84780E+03  9.68064E+02  6.97904E+03 -4.94961E+03  6.64043E+03 -8.35181E+03  1.68535E+03
 -4.91012E+03 -3.50717E+03  1.44773E+02 -6.85605E+03  4.01587E+03 -3.70080E+03  3.73358E+03  1.44155E+03
  7.03800E+02  3.84075E+03 -4.21896E+03  4.84027E+03 -5.37851E+03  2.32975E+03 -4.79963E+03 -1.11651E+03
 -3.22984E+03 -6.56690E+03  8.92398E+02 -7.63499E+03  6.33949E+03 -4.60523E+03  6.55161E+03  1.03752E+03
  4.56968E+03  5.76829E+03 -2.19153E+02  7.15139E+03 -5.46246E+03  4.65776E+03 -5.27838E+03 -2.97433E+01
 -6.27741E+03 -5.21895E+03 -1.65471E+03 -4.47563E+03  3.09708E+03 -4.54097E+03  3.37860E+03 -3.27706E+03
  3.15448E+03  1.57697E+02  5.40804E+02  1.18504E+03  6.25848E+02 -2.54808E+02 -1.22442E+02 -1.69707E+03
  3.73163E+03 -9.07660E+02  4.82000E+03  4.58499E+02  5.90392E+03  3.02599E+03  5.56347E+03  7.18675E+03
 -9.38479E+02  8.80035E+03 -7.60556E+03  7.02507E+03 -1.02885E+04  1.26864E+03 -7.81892E+03 -2.77493E+03
 -4.41904E+03 -6.75274E+03  1.56045E+02 -5.02153E+03  2.43303E+03 -2.20257E+03  2.32680E+03 -2.06622E+03
  1.59183E+03 -1.21493E+03  2.06576E+03 -2.28132E+03  3.59674E+03 -1.64572E+03  4.03023E+03  3.89317E+02
  4.34884E+03  1.38518E+03  1.20111E+03  3.29076E+03 -1.47747E+03  3.16281E+03 -4.48087E+03  2.47883E+03
 -5.21516E+03 -1.16710E+03 -2.30682E+03 -3.48484E+03  1.98209E+01 -4.76780E+03  2.82295E+03 -4.90863E+03
  5.40815E+03 -3.48265E+03  6.32233E+03  1.68934E+02  5.08733E+03  4.33364E+03  1.06402E+03  6.25512E+03
 -2.33353E+03  6.17266E+03 -3.37623E+03  2.02503E+03 -1.51119E+03 -1.02717E+03 -3.19117E+02 -6.08132E+02
 -3.34580E+02  2.25867E+02 -8.69834E+02  2.22464E+03 -2.23503E+03  1.05035E+03 -4.06023E+03 -7.12220E+02
 -1.49286E+03 -4.46819E+03  8.40190E+02 -4.73539E+03  2.94456E+03 -3.82115E+03  3.52356E+03 -1.17068E+03
  3.97591E+03  2.38159E+03  1.72772E+03  3.68621E+03 -5.71778E+02  4.70688E+03 -2.36926E+03  2.57426E+03
 -3.61191E+03  9.72718E+02 -3.37702E+03 -2.18249E+03 -2.88015E+02 -3.62894E+03  1.23831E+03 -2.03131E+03
  2.27918E+03 -9.55221E+02  1.41726E+03  5.89048E+02 -1.69388E+02  1.46966E+03  6.29689E+02  3.18981E+02
  1.92971E+03 -8.95360E+01  1.50279E+03  9.78604E+02  1.51740E+03  2.19517E+03  1.71967E+03  1.65112E+03
 -1.24496E+03  2.54427E+03 -2.21701E+03  3.80795E+03 -2.76627E+03  1.20389E+03 -3.91183E+03 -4.95031E+02
 -1.67918E+03 -3.18276E+03  1.11780E+03 -4.47028E+03  1.52949E+03 -2.76631E+03  2.86040E+03 -1.10291E+03
  1.89826E+03  1.78104E+03  5.31054E+02  1.86955E+03 -5.99098E+02  1.20350E+03 -7.61170E+02 -1.89377E+02
 -1.13818E+03 -1.25978E+03  9.29076E+02 -1.86628E+03  1.16075E+03 -1.02923E+03  1.33191E+03  2.81135E+02
  4.48865E+02  6.45873E+02  8.75838E+02 -3.31089E+02 -4.74478E+02  4.53113E+02  1.81085E+03 -1.92419E+02
 -2.18938E+02 -2.82126E+02  1.70698E+03  9.69383E+02  4.06304E+02  2.35681E+03 -3.16682E+02  2.72330E+03
 -1.35632E+03  6.86340E+02 -1.75227E+03  3.99214E+02 -1.57745E+03 -1.94765E+02 -2.47835E+02 -2.72610E+02
 -1.32598E+01 -1.82770E+03  4.55248E+02 -4.44593E+02  9.96443E+02  1.39655E+03 -9.12444E+02  7.48487E+02
 -6.96489E+02  1.03482E+03 -3.75238E+02 -1.43608E+03 -7.62742E+02 -2.21577E+03 -4.36807E+02 -1.69483E+03
  4.65248E+02 -6.74695E+02  1.04127E+03  4.88556E+02  1.42224E+03 -5.30410E+02 -1.73859E+02  1.40233E+03
  1.86162E+02  1.96173E+02 -2.48095E+02 -2.42366E+02  1.01921E+03 -2.25440E+02  1.44673E+03 -7.82838E+02
  1.13920E+03 -4.13736E+02  2.68771E+03  6.89582E+02  6.03087E+02  1.25325E+03 -1.48313E+01  1.59751E+03
 -3.75253E+02  1.22446E+02 -1.71003E+03 -8.16697E+02 -1.22735E+03 -6.91017E+02  3.90216E+02 -5.69486E+02
  1.24181E+03 -6.92930E+02  1.07947E+03  4.93963E+02  7.55387E+02  1.01708E+03  5.44701E+02  1.72159E+03
 -3.32367E+01  1.36266E+03 -5.15032E+02  1.18201E+02 -9.45456E+01  6.29073E+02 -7.75327E+02  1.23423E+02
 -8.01571E+02  1.04832E+03 -1.86801E+03  7.46331E+02 -1.28087E+03  2.95323E+02 -1.83338E+03 -8.93232E+02
 -1.27214E+03 -2.28927E+03  2.08075E+02 -2.80119E+03  6.56603E+02 -2.06386E+03  2.45968E+03 -1.07658E+03
  2.27292E+03  4.49252E+02  6.97816E+02  8.53222E+02 -1.32466E+03  1.02503E+03 -1.07502E+02  9.83205E+02
 -1.08874E+03  7.80383E+02 -1.66795E+02 -1.58720E+01 -4.44688E+01  2.94363E+02 -1.10957E+03  5.91869E+00
 -1.63315E+03 -4.14243E+01 -9.47026E+02 -3.11486E+02  5.31619E+02 -8.30792E+02 -1.30421E+02 -1.12275E+03
  9.68837E+02 -6.83435E+02 -5.18367E+02 -9.91890E+01  9.95347E+02  1.38774E+03 -7.63791E+02  1.53418E+03
 -6.89924E+02  2.23758E+03 -1.03834E+03  6.42774E+02 -1.82455E+03 -3.34095E+02 -9.78494E+02 -8.22708E+02
 -1.01404E+03 -9.07066E+02  2.13929E+02 -7.57947E+02  2.62484E+02 -3.00733E+02  3.79856E+01 -6.60785E+01
  6.87898E+02  2.95079E+02 -3.38236E+02  1.10282E+03 -8.97087E-01  1.86945E+02 -1.77003E+02 -3.25679E+02
  3.17908E+02  1.96314E+01  3.59762E+02  4.79269E+02 -6.02581E+02 -5.11904E+02  1.62995E+02  2.50441E+02
  9.80249E+01  1.68246E+02 -4.39382E+02  3.62140E+02 -2.23738E+02 -3.34302E+02 -1.88148E+01 -1.03105E+03
  8.97601E+02 -5.08881E+02  7.34748E+02  3.58493E+01  4.75255E+02  6.06458E+01  4.05220E+02  5.05099E+02
  2.60711E+02  3.24073E+02 -8.76766E+01  3.34599E+02 -5.71305E+02  4.24474E+02 -9.83113E+01  6.77588E+01
  2.22148E+01 -3.18920E+02 -1.49315E+02  4.65206E+02 -2.47645E+02 -1.07427E+02 -6.62981E+02 -4.99977E+01
 -7.77247E+02  2.89875E+02  3.78028E+01 -6.98325E+02  8.40495E+02 -1.05405E+03  3.82857E+02 -4.10823E+02
  2.06721E+02 -3.98886E+01 -4.25151E+02  8.70036E+01  2.39274E+02  1.67108E+02 -4.95226E+02  1.13343E+03
