 $NMID ID='MM_0lb_SNR400_8hz_g60_61.RAW', FMTDAT='(8E13.5)'
 TRAMP=1., VOLUME=1. $END
  3.09537E+05 -7.79774E+01  3.37826E+05  2.50474E+05  8.45864E+04  3.39258E+05 -1.32692E+05  2.51651E+05
 -1.91660E+05  8.39873E+04 -1.12930E+05 -3.18121E+04  9.84424E+01 -5.07536E+04  5.41323E+04 -6.56733E+02
  3.50695E+04  5.25853E+04 -1.61423E+04  7.61833E+04 -6.18357E+04  6.49024E+04 -8.59749E+04  3.28013E+04
 -8.20666E+04 -1.13878E+04 -5.92910E+04 -5.27182E+04 -1.47780E+04 -7.24364E+04  2.87162E+04 -4.71884E+04
  4.11240E+04  2.88344E+03  1.64842E+04  4.88429E+04 -3.42671E+04  4.78984E+04 -6.85989E+04  3.06122E+02
 -5.54689E+04 -5.77714E+04 -7.62380E+03 -7.88206E+04  3.47160E+04 -5.77162E+04  5.13960E+04 -1.92914E+04
  4.62972E+04  1.14224E+04  3.40447E+04  2.74771E+04  1.60758E+04  3.06702E+04 -5.72501E+03  2.90726E+04
 -2.24062E+04  1.23698E+04 -1.77004E+04 -6.32803E+03  7.63119E+03 -7.71766E+03  2.42885E+04  1.42086E+04
  7.29788E+03  3.87716E+04 -3.52849E+04  3.78054E+04 -6.62454E+04  2.35100E+03 -5.89701E+04 -4.44730E+04
 -1.27110E+04 -6.65756E+04  4.23597E+04 -4.74166E+04  6.26673E+04 -2.58407E+03  3.79049E+04  3.59187E+04
 -4.62912E+03  4.06015E+04 -3.27142E+04  1.96312E+04 -3.51690E+04 -3.30427E+03 -1.91388E+04 -1.33619E+04
 -1.00497E+04 -1.59879E+04 -8.08837E+02 -1.99075E+04  9.38629E+03 -2.47178E+04  1.55694E+04 -1.27680E+04
  9.33059E+03  6.85072E+03 -1.15450E+04  1.30407E+04 -2.40191E+04 -6.97559E+03 -8.47073E+03 -3.90282E+04
  2.67183E+04 -4.87184E+04  5.33366E+04 -2.16422E+04  5.05522E+04  2.13814E+04  1.89023E+04  4.74339E+04
 -1.71956E+04  3.70341E+04 -2.85581E+04  2.30823E+03 -1.24991E+04 -3.07333E+04  2.09096E+04 -3.69169E+04
  4.63072E+04 -1.17259E+04  4.28251E+04  2.53029E+04  2.28701E+04  5.25026E+04 -8.26097E+03  5.79736E+04
 -3.63550E+04  3.98917E+04 -5.09359E+04  1.14398E+04 -4.95784E+04 -1.93631E+04 -2.72953E+04 -4.33141E+04
  7.17716E+03 -4.29091E+04  3.49325E+04 -1.88097E+04  3.30358E+04  1.06005E+04  5.84494E+03  2.17602E+04
 -1.44966E+04  1.04889E+04 -1.15384E+04 -8.05449E+03  5.78880E+03 -1.14178E+04  1.92793E+04  5.14666E+03
  1.53313E+04  2.27530E+04 -4.42438E+03  2.74659E+04 -2.38110E+04  1.61214E+04 -3.34052E+04 -1.76930E+03
 -2.84775E+04 -1.84616E+04 -1.30966E+04 -2.65755E+04  4.17055E+03 -2.77441E+04  2.21648E+04 -2.46133E+04
  3.40049E+04 -1.48960E+04  4.09112E+04  5.10776E+03  2.89764E+04  2.60990E+04  4.15622E+03  4.36782E+04
 -2.13616E+04  3.53924E+04 -3.17439E+04  1.19200E+04 -2.30098E+04 -9.70249E+03 -4.97130E+03 -1.27642E+04
  3.21533E+02 -3.52563E+02 -8.87508E+03  8.35258E+03 -2.24219E+04  4.60976E+03 -2.15888E+04 -1.11662E+04
 -1.32415E+04 -2.51840E+04  6.23852E+03 -2.94743E+04  1.96722E+04 -2.07804E+04  2.45074E+04 -2.44104E+03
  1.56410E+04  1.76890E+04 -1.46071E+03  2.54747E+04 -1.83956E+04  1.44316E+04 -2.57211E+04 -5.23697E+03
 -1.87555E+04 -2.25182E+04 -2.36320E+03 -3.06173E+04  1.35400E+04 -2.49105E+04  2.36829E+04 -1.30250E+04
  2.39457E+04 -9.44007E+02  1.71750E+04  5.70681E+03  8.57328E+03  2.10435E+03  1.33784E+04 -2.70392E+03
  2.35336E+04  2.85666E+03  2.88958E+04  1.97989E+04  2.03225E+04  4.04811E+04 -2.66153E+03  4.84488E+04
 -2.70312E+04  4.05844E+04 -4.59362E+04  2.02663E+04 -4.90212E+04 -2.92342E+03 -3.90319E+04 -2.88389E+04
 -1.47865E+04 -4.16894E+04  1.44522E+04 -3.58601E+04  3.03506E+04 -1.54769E+04  2.69226E+04  8.24836E+03
  8.86848E+03  2.07745E+04 -1.30854E+04  1.59335E+04 -2.18782E+04  2.66436E+03 -1.70555E+04 -1.46380E+04
 -7.90639E+02 -2.13064E+04  1.25520E+04 -1.55792E+04  1.46845E+04 -9.86462E+02  3.84596E+03  9.49512E+03
 -9.18791E+03  4.90033E+03 -1.05814E+04 -7.29568E+03 -2.43068E+03 -1.95954E+04  1.38265E+04 -2.22390E+04
  2.55150E+04 -1.36979E+04  2.93249E+04  3.51578E+03  2.70143E+04  2.13194E+04  1.20862E+04  3.27776E+04
 -6.74764E+03  3.48542E+04 -2.29870E+04  2.11189E+04 -2.57470E+04  4.44246E+03 -1.74391E+04 -6.79061E+03
 -7.87888E+03 -7.98476E+03 -6.28229E+02 -2.61351E+02 -3.00152E+03  4.45735E+03 -7.15454E+03  5.70786E+03
 -1.54649E+04 -1.24403E+03 -1.63499E+04 -1.34191E+04 -6.45629E+03 -2.20169E+04  7.19459E+03 -1.77504E+04
  1.42075E+04 -6.73146E+03  9.99979E+03  4.67106E+03 -5.14943E+01  6.97910E+03 -8.79352E+03 -4.11015E+02
 -9.27222E+03 -1.14748E+04 -5.34786E+02 -1.82871E+04  1.11297E+04 -1.89956E+04  2.23627E+04 -1.01457E+04
  2.73323E+04  3.34408E+03  1.94093E+04  1.67957E+04  3.29155E+03  2.24211E+04 -1.15130E+04  1.67296E+04
 -1.42399E+04  4.60168E+03 -7.55639E+03 -4.30313E+03  3.20507E+03 -4.46171E+03  9.28397E+03 -1.77810E+03
  7.41918E+03  7.97062E+03  7.36811E+02  1.43951E+04 -1.07784E+04  1.28565E+04 -1.63073E+04  3.30263E+03
 -1.27340E+04 -1.04362E+04  1.36670E+03 -1.58165E+04  1.01762E+04 -8.49126E+03  1.10223E+04  4.17039E+03
  2.04920E+03  1.17319E+04 -8.85288E+03  1.29822E+04 -1.62712E+04  6.18866E+03 -1.62351E+04 -5.96120E+03
 -9.96934E+03 -1.84538E+04  4.21652E+03 -2.15441E+04  1.84714E+04 -1.23490E+04  1.99369E+04  3.07214E+03
  1.11659E+04  1.54433E+04 -2.47313E+03  1.82495E+04 -1.47914E+04  9.45076E+03 -1.46431E+04 -4.35203E+02
 -1.13491E+04 -1.28901E+04 -1.14574E+03 -1.34605E+04  7.65457E+03 -1.14404E+04  8.35856E+03 -4.33696E+03
  6.09897E+03  3.44102E+03 -1.88227E+03  1.53161E+03 -9.34296E+02 -3.68806E+03  3.71195E+03 -9.29619E+03
  1.41337E+04 -4.96761E+03  1.94174E+04  1.70921E+03  1.84334E+04  1.34679E+04  1.13395E+04  2.44721E+04
 -6.51473E+03  2.88759E+04 -2.27061E+04  2.06053E+04 -2.98698E+04  4.44965E+03 -2.40342E+04 -1.05696E+04
 -1.16944E+04 -2.04265E+04 -3.11885E+02 -1.61668E+04  5.82390E+03 -9.71699E+03  6.00028E+03 -5.90507E+03
  4.36437E+03 -4.65113E+03  4.37951E+03 -3.97367E+03  6.15032E+03 -3.66960E+03  9.77585E+03 -3.40329E+03
  1.23032E+04  1.92853E+03  7.14868E+03  1.08805E+04 -2.03603E+03  1.35727E+04 -1.32921E+04  1.01575E+04
 -1.73841E+04 -2.17860E+03 -1.21969E+04 -1.16740E+04 -9.84026E+02 -1.81464E+04  9.56497E+03 -1.87943E+04
  1.97134E+04 -1.05420E+04  2.34782E+04  3.52758E+03  1.55471E+04  1.65433E+04  2.61261E+03  2.07667E+04
 -8.57060E+03  1.60311E+04 -1.15999E+04  5.83937E+03 -8.97038E+03 -1.87089E+03 -3.15667E+03 -2.49295E+03
 -2.08001E+03 -1.34418E+03 -3.40345E+03  2.38895E+03 -7.42938E+03  3.52860E+03 -1.17788E+04 -2.02763E+03
 -8.85984E+03 -1.20985E+04 -5.40755E+02 -1.86104E+04  1.08904E+04 -1.58818E+04  1.76861E+04 -4.60938E+03
  1.70313E+04  7.92304E+03  8.55602E+03  1.63434E+04 -4.12006E+03  1.82199E+04 -1.38846E+04  1.14763E+04
 -1.72820E+04 -6.66762E+01 -1.31099E+04 -1.16775E+04 -2.02833E+03 -1.50727E+04  8.31005E+03 -1.15125E+04
  1.08265E+04 -3.20372E+03  7.82906E+03  3.72479E+03  2.93698E+03  5.45080E+03  2.03689E+03  2.27395E+03
  3.12385E+03  2.13769E+03  4.78526E+03  2.19666E+03  5.13048E+03  6.33186E+03  4.78831E+03  9.94086E+03
 -3.33936E+03  1.36082E+04 -1.28459E+04  1.38687E+04 -1.87344E+04  3.99025E+03 -1.96519E+04 -8.54501E+03
 -9.63995E+03 -1.80714E+04  2.68937E+03 -1.97713E+04  1.12663E+04 -1.33600E+04  1.41975E+04 -4.16014E+03
  1.13531E+04  6.10845E+03  3.45631E+03  1.13138E+04 -5.53163E+03  6.96872E+03 -8.21481E+03 -7.02595E+02
 -4.67238E+03 -8.52736E+03  4.31862E+03 -8.23907E+03  7.92799E+03 -4.19065E+03  7.27142E+03  1.58250E+03
  4.67204E+03  4.50323E+03  1.73453E+03  4.09741E+03 -1.51703E+03  2.79603E+03  2.23966E+03 -3.84786E+02
  2.70883E+03 -9.68709E+02  7.72004E+03  2.71101E+03  4.00179E+03  9.60162E+03 -1.92355E+03  1.36602E+04
 -8.23907E+03  8.53695E+03 -1.21103E+04  1.89577E+03 -1.08129E+04 -3.75429E+03 -3.80188E+03 -7.49120E+03
  1.51995E+02 -8.48307E+03  4.40364E+03 -3.88290E+03  4.76570E+03  3.22162E+03 -2.58493E+03  6.93283E+03
 -7.19497E+03  3.05528E+03 -8.99166E+03 -3.79349E+03 -5.84851E+03 -1.03937E+04  2.46344E+03 -1.10957E+04
  7.24233E+03 -5.68036E+03  8.09488E+03 -8.30927E+02  6.52164E+03  2.96992E+03  1.38888E+03  5.41384E+03
 -2.95483E+03  2.37544E+03 -4.79696E+03 -4.20297E+03  1.25734E+03 -7.75529E+03  8.71208E+03 -6.11237E+03
  1.17219E+04  1.15448E+03  1.09486E+04  8.45908E+03  4.95134E+03  1.30543E+04 -5.33645E+03  1.23368E+04
 -1.02296E+04  5.61763E+03 -1.17324E+04 -1.78255E+03 -5.41699E+03 -8.91997E+03  2.05892E+03 -7.45613E+03
  7.41451E+03 -3.63518E+03  8.10432E+03  2.83218E+03  1.63067E+03  7.02144E+03 -1.87014E+03  5.40976E+03
 -3.14972E+03  3.05394E+03 -3.03096E+03  1.03993E+03 -1.84578E+03  1.62790E+03 -2.12511E+03  2.23316E+03
 -2.91301E+03  3.90031E+03 -9.04408E+03  4.48239E+03 -1.26983E+04 -7.32370E+02 -1.39605E+04 -9.03071E+03
 -7.24098E+03 -1.72576E+04  3.51714E+03 -1.93680E+04  1.25491E+04 -1.60838E+04  1.81165E+04 -5.64686E+03
  1.72888E+04  3.70462E+03  1.10932E+04  1.14712E+04  8.58026E+02  1.37975E+04 -5.85041E+03  9.72167E+03
 -7.86526E+03  3.07278E+03 -4.37763E+03 -9.63993E+02 -1.54740E+03 -1.47076E+03 -7.31609E+02 -1.27532E+02
 -2.14456E+03  1.17629E+02 -2.39121E+03 -1.22313E+03 -1.63350E+03 -4.43106E+03  1.15009E+03 -4.33382E+03
  5.82527E+03 -4.19782E+03  8.12227E+03  9.86608E+01  9.78963E+03  7.16428E+03  2.13430E+03  1.30460E+04
 -6.55096E+03  1.60103E+04 -1.38401E+04  9.59276E+03 -1.66363E+04 -5.12942E+02 -1.30282E+04 -9.91722E+03
 -5.72055E+03 -1.35966E+04  3.56328E+03 -1.34793E+04  9.40647E+03 -8.04365E+03  1.00300E+04  9.60565E+02
  5.08018E+03  4.37103E+03 -1.12680E+03  3.16511E+03 -2.35433E+03  5.06656E+02 -1.92325E+02 -3.11116E+03
  4.28588E+03 -2.32154E+03  5.79383E+03  1.78564E+03  4.53400E+03  5.30535E+03  4.27867E+02  7.18631E+03
 -6.00071E+03  5.95095E+03 -9.23669E+03  6.43979E+02 -8.37967E+03 -6.53074E+03 -1.03253E+03 -1.16503E+04
  6.39294E+03 -9.71923E+03  1.08528E+04 -2.33736E+03  1.08183E+04  2.51056E+03  6.28306E+03  8.40707E+03
  1.66316E+02  8.22973E+03 -3.77267E+03  7.81718E+03 -4.91786E+03  3.13972E+03 -5.11170E+03  1.35096E+02
 -2.17262E+03  7.07228E+01 -2.01769E+03  5.08387E+02 -4.61190E+03  1.98543E+03 -7.55885E+03 -7.34625E+02
 -5.98090E+03 -5.28112E+03 -2.70988E+03 -1.02558E+04  4.32987E+03 -1.04474E+04  9.24120E+03 -4.26286E+03
  9.25588E+03  1.56289E+03  5.76010E+03  6.32285E+03 -9.33713E+02  9.75069E+03 -6.29713E+03  6.38367E+03
