 $NMID ID='MM_0lb_SNR400_10hz_g40_85.RAW', FMTDAT='(8E13.5)'
 TRAMP=1., VOLUME=1. $END
  3.09651E+05  7.45767E+02  3.37776E+05  2.50625E+05  8.46580E+04  3.37390E+05 -1.32617E+05  2.51327E+05
 -1.90601E+05  8.39788E+04 -1.11921E+05 -3.21337E+04  1.47807E+03 -5.06714E+04  5.47248E+04 -8.97969E+02
  3.56337E+04  5.28691E+04 -1.72310E+04  7.51773E+04 -6.09135E+04  6.36069E+04 -8.46355E+04  3.22317E+04
 -8.14085E+04 -1.12177E+04 -5.75247E+04 -5.26418E+04 -1.52141E+04 -7.15288E+04  2.77704E+04 -4.55518E+04
  4.07851E+04  4.97214E+03  1.62559E+04  4.84610E+04 -3.46257E+04  4.83040E+04 -6.78155E+04 -2.06501E+01
 -5.43173E+04 -5.74334E+04 -7.22887E+03 -7.75371E+04  3.40304E+04 -5.59679E+04  4.89820E+04 -1.72676E+04
  4.40567E+04  1.17073E+04  3.25621E+04  2.59569E+04  1.67292E+04  3.00091E+04 -6.12520E+03  2.72118E+04
 -2.31521E+04  1.16758E+04 -1.85997E+04 -5.40413E+03  7.27801E+03 -7.73746E+03  2.30051E+04  1.36901E+04
  7.59410E+03  3.72408E+04 -3.30883E+04  3.64799E+04 -6.44035E+04  2.31100E+03 -5.87056E+04 -4.38073E+04
 -1.22978E+04 -6.46322E+04  4.13044E+04 -4.61638E+04  6.01988E+04 -2.34624E+03  3.60382E+04  3.32478E+04
 -5.93776E+03  3.83501E+04 -3.10943E+04  1.79697E+04 -3.24772E+04 -3.14229E+03 -1.85869E+04 -1.12633E+04
 -9.14538E+03 -1.43882E+04 -1.16020E+03 -1.92434E+04  8.06129E+03 -2.40361E+04  1.53556E+04 -1.28393E+04
  1.08863E+04  5.69923E+03 -9.16644E+03  1.28510E+04 -2.25815E+04 -5.21247E+03 -8.06000E+03 -3.53972E+04
  2.42774E+04 -4.52628E+04  5.06358E+04 -1.98512E+04  4.71711E+04  2.02580E+04  1.68532E+04  4.55516E+04
 -1.66394E+04  3.49807E+04 -2.61608E+04  1.75406E+03 -1.10029E+04 -2.94691E+04  2.10247E+04 -3.48601E+04
  4.24819E+04 -9.40084E+03  3.83521E+04  2.45469E+04  1.98568E+04  4.95207E+04 -7.45482E+03  5.39416E+04
 -3.44457E+04  3.64005E+04 -4.52205E+04  1.01216E+04 -4.58524E+04 -1.74858E+04 -2.49774E+04 -4.03837E+04
  7.51103E+03 -4.03658E+04  3.28497E+04 -1.56895E+04  3.05116E+04  1.15647E+04  5.96332E+03  2.02772E+04
 -1.35266E+04  9.15253E+03 -1.15606E+04 -7.69947E+03  5.09844E+03 -1.13799E+04  1.78233E+04  4.59210E+03
  1.45723E+04  2.26584E+04 -5.51669E+03  2.60738E+04 -2.29392E+04  1.37003E+04 -2.95656E+04 -3.22049E+03
 -2.28246E+04 -1.77706E+04 -1.09764E+04 -2.35285E+04  4.43758E+03 -2.31251E+04  1.82596E+04 -2.05536E+04
  2.97446E+04 -1.37864E+04  3.65034E+04  4.47346E+03  2.59127E+04  2.30692E+04  4.48579E+03  3.88895E+04
 -1.85946E+04  3.27776E+04 -2.91300E+04  1.11773E+04 -2.18798E+04 -1.05776E+04 -4.60093E+03 -1.33353E+04
  1.48648E+03 -1.18310E+03 -6.82647E+03  7.74482E+03 -1.84219E+04  4.89486E+03 -1.82211E+04 -8.39658E+03
 -1.08838E+04 -2.15906E+04  6.44542E+03 -2.59111E+04  1.78991E+04 -1.88599E+04  2.06613E+04 -1.54335E+03
  1.27970E+04  1.51528E+04 -1.89108E+03  2.19602E+04 -1.64221E+04  1.20545E+04 -2.14819E+04 -4.90114E+03
 -1.56189E+04 -1.89158E+04 -2.08643E+03 -2.60586E+04  1.13232E+04 -2.11793E+04  2.24447E+04 -1.09359E+04
  1.97487E+04 -3.57369E+01  1.42595E+04  5.48642E+03  8.05903E+03  1.28745E+03  1.13393E+04 -1.05645E+03
  2.05672E+04  2.59491E+03  2.33574E+04  1.68057E+04  1.58761E+04  3.42936E+04 -2.89757E+03  4.03318E+04
 -2.28280E+04  3.28712E+04 -3.85799E+04  1.75837E+04 -4.03361E+04 -2.81841E+03 -3.24516E+04 -2.36057E+04
 -1.38419E+04 -3.33686E+04  1.24905E+04 -2.95222E+04  2.53736E+04 -1.44868E+04  2.23591E+04  7.39420E+03
  7.28831E+03  1.68786E+04 -1.11572E+04  1.47502E+04 -1.81321E+04  2.69858E+03 -1.35946E+04 -1.18992E+04
 -4.24496E+01 -1.75425E+04  1.02891E+04 -1.30563E+04  1.13881E+04 -1.92471E+03  3.07026E+03  7.86811E+03
 -7.64498E+03  3.82264E+03 -8.04774E+03 -7.01406E+03 -2.06716E+03 -1.68856E+04  1.09283E+04 -1.77479E+04
  2.05422E+04 -9.40023E+03  2.30723E+04  2.66272E+03  2.03999E+04  1.59826E+04  9.22333E+03  2.61300E+04
 -4.70146E+03  2.73946E+04 -1.81760E+04  1.68168E+04 -1.96624E+04  3.92980E+03 -1.33160E+04 -5.03811E+03
 -6.16298E+03 -6.61767E+03 -5.58717E+02  1.03968E+03 -2.36484E+03  3.27474E+03 -6.00960E+03  4.66627E+03
 -1.31708E+04 -1.26505E+03 -1.33359E+04 -1.09514E+04 -5.82287E+03 -1.74734E+04  6.11790E+03 -1.35791E+04
  1.18454E+04 -5.02401E+03  8.16154E+03  4.27145E+03 -8.16724E+02  5.05945E+03 -6.90366E+03 -1.87055E+02
 -6.83224E+03 -8.55661E+03 -1.39094E+03 -1.38916E+04  8.61765E+03 -1.42876E+04  1.78441E+04 -7.29755E+03
  2.05018E+04  2.74078E+03  1.53472E+04  1.15479E+04  3.14282E+03  1.58197E+04 -8.51992E+03  1.39533E+04
 -1.16695E+04  4.60088E+03 -5.55702E+03 -2.71696E+03  2.04969E+03 -4.25466E+03  7.37709E+03 -1.09687E+03
  6.25499E+03  5.93111E+03  1.50900E+03  1.14098E+04 -7.78754E+03  1.03220E+04 -1.37664E+04  2.68314E+03
 -9.65117E+03 -7.32108E+03  5.28428E+02 -1.19871E+04  6.81614E+03 -6.08571E+03  7.84111E+03  2.09334E+03
  1.82260E+03  8.61190E+03 -7.24122E+03  9.55559E+03 -1.18823E+04  5.24055E+03 -1.19771E+04 -4.81992E+03
 -6.80315E+03 -1.36353E+04  2.60894E+03 -1.53698E+04  1.34572E+04 -9.28046E+03  1.48614E+04  2.73652E+03
  9.33603E+03  1.19448E+04 -1.02226E+03  1.39770E+04 -9.72900E+03  8.19271E+03 -1.08757E+04 -1.10955E+03
 -9.76456E+03 -1.02188E+04 -7.88888E+02 -9.90550E+03  5.76658E+03 -9.08499E+03  6.50449E+03 -3.38671E+03
  4.49823E+03  1.99227E+03 -1.44778E+03  1.91297E+03 -4.15270E+02 -3.03455E+03  1.52422E+03 -6.44827E+03
  9.56618E+03 -4.33614E+03  1.42361E+04  1.56461E+03  1.30343E+04  8.76572E+03  9.08060E+03  1.70565E+04
 -4.19983E+03  2.03341E+04 -1.71404E+04  1.48504E+04 -2.15445E+04  3.39964E+03 -1.74497E+04 -8.48720E+03
 -9.39506E+03 -1.47828E+04  1.95740E+01 -1.20841E+04  5.33725E+03 -6.84212E+03  3.53454E+03 -4.41861E+03
  3.29390E+03 -3.29087E+03  3.66248E+03 -3.78283E+03  5.47731E+03 -2.65139E+03  6.87894E+03 -1.95116E+03
  9.82262E+03  2.19516E+03  4.47796E+03  8.77543E+03 -2.79533E+03  9.82215E+03 -1.00692E+04  6.72661E+03
 -1.19281E+04 -1.91994E+03 -7.85052E+03 -8.47475E+03 -1.99254E+03 -1.29064E+04  7.68930E+03 -1.30825E+04
  1.34348E+04 -6.94833E+03  1.61744E+04  1.76930E+03  1.13232E+04  1.14744E+04  2.37971E+03  1.52729E+04
 -6.15641E+03  1.18164E+04 -8.61376E+03  4.45505E+03 -5.92677E+03 -1.72712E+03 -2.91937E+03 -2.05714E+03
 -1.60899E+03  3.59458E+02 -2.41385E+03  2.33956E+03 -5.36488E+03  2.24652E+03 -8.81588E+03 -1.13827E+03
 -5.74953E+03 -8.92235E+03 -1.15400E+02 -1.24499E+04  7.81837E+03 -1.19496E+04  1.15102E+04 -2.94676E+03
  1.18738E+04  5.90735E+03  6.36907E+03  1.06191E+04 -1.98581E+03  1.25912E+04 -9.07753E+03  7.66193E+03
 -1.15058E+04  9.53816E+01 -8.25645E+03 -7.82643E+03 -1.33122E+03 -1.04491E+04  5.55495E+03 -6.92284E+03
  7.97458E+03 -2.71785E+03  5.12191E+03  1.03782E+03  1.74981E+03  4.06392E+03  1.26406E+03  1.06746E+03
  3.53466E+03  2.79156E+02  2.89141E+03  1.61422E+03  3.09593E+03  4.12962E+03  3.64923E+03  6.63864E+03
 -2.08733E+03  9.68002E+03 -9.27374E+03  1.06056E+04 -1.18296E+04  2.65931E+03 -1.38108E+04 -5.32574E+03
 -6.59864E+03 -1.23535E+04  2.42610E+03 -1.36184E+04  6.92046E+03 -8.22022E+03  1.01658E+04 -2.44474E+03
  7.99727E+03  5.27274E+03  1.93265E+03  6.73253E+03 -3.05716E+03  4.63333E+03 -4.62059E+03 -2.03841E+02
 -2.73690E+03 -5.60364E+03  2.77540E+03 -5.86958E+03  4.75545E+03 -3.00908E+03  5.04121E+03  9.36831E+02
  3.24690E+03  2.28011E+03  1.14848E+03  2.06647E+03 -2.01020E+02  2.21504E+03  1.84126E+03 -1.26143E+03
  2.51162E+03 -3.47776E+02  4.88903E+03  2.47245E+03  3.34824E+03  6.79838E+03 -1.17786E+03  9.48196E+03
 -6.00259E+03  5.57119E+03 -7.76683E+03  1.47006E+03 -6.90765E+03 -2.73806E+03 -2.44539E+03 -4.53286E+03
  1.02114E+03 -4.68744E+03  3.39559E+03 -2.06619E+03  2.86345E+03  1.74643E+03 -9.22451E+02  3.81899E+03
 -4.92159E+03  2.75263E+03 -5.44993E+03 -2.92972E+03 -3.48030E+03 -6.14695E+03  6.83585E+02 -6.38204E+03
  3.65492E+03 -3.93525E+03  4.98905E+03 -1.40105E+02  3.92715E+03  1.49245E+03  7.45695E+02  4.30254E+03
 -2.50097E+03  6.86779E+02 -2.94197E+03 -2.26197E+03  1.54742E+03 -5.07040E+03  5.90779E+03 -3.76614E+03
  7.90919E+03  5.63417E+02  7.84716E+03  5.34243E+03  2.31696E+03  8.18361E+03 -3.02975E+03  7.80615E+03
 -6.22177E+03  3.47409E+03 -6.48274E+03 -7.39339E+02 -3.91413E+03 -4.98296E+03  1.48916E+03 -5.38100E+03
  5.51286E+03 -1.93054E+03  4.17921E+03  1.71066E+03  1.18087E+03  4.61438E+03 -2.52059E+02  3.67684E+03
 -1.37473E+03  3.40023E+03 -1.78488E+03  3.39263E+02 -1.74492E+03  1.04137E+03 -1.92001E+03  1.76214E+03
 -2.12582E+03  3.39288E+03 -5.24188E+03  2.31654E+03 -8.35214E+03 -3.07129E+02 -8.99209E+03 -5.40268E+03
 -4.84432E+03 -1.09885E+04  2.05409E+03 -1.15988E+04  7.33292E+03 -9.26240E+03  1.15298E+04 -3.91242E+03
  1.04233E+04  2.37088E+03  5.94166E+03  7.59150E+03  4.29008E+02  8.48763E+03 -2.54003E+03  5.45849E+03
 -4.90872E+03  1.26671E+03 -3.20997E+03 -7.92907E+02 -2.20249E+02 -4.52286E+02 -7.89880E+02  1.21729E+02
 -1.27241E+03 -5.61602E+02 -2.48479E+03 -7.01306E+02 -7.37774E+02 -2.05060E+03  2.24799E+02 -4.35464E+03
  3.59295E+03 -2.63353E+03  4.91380E+03 -4.09823E+02  5.83722E+03  4.84947E+03  1.82095E+03  8.21741E+03
 -4.04913E+03  1.03152E+04 -8.42156E+03  6.19230E+03 -9.53663E+03 -4.03181E+02 -7.03921E+03 -6.33557E+03
 -3.72815E+03 -8.64874E+03  1.93896E+03 -7.79022E+03  5.73271E+03 -4.11296E+03  5.43925E+03  1.64956E+02
  3.11684E+03  2.85504E+03 -7.62816E+01  2.44215E+03 -2.42413E+03 -1.27596E+03 -1.92469E+01 -1.39949E+03
  3.05734E+03 -1.07447E+03  3.74462E+03  1.69304E+03  1.49250E+03  3.88901E+03 -3.00418E+02  4.37040E+03
 -4.20110E+03  3.48855E+03 -5.56842E+03  3.61600E+02 -4.97534E+03 -3.33512E+03 -7.09824E+02 -6.18917E+03
  4.24822E+03 -5.35322E+03  5.85901E+03 -1.06145E+03  6.82715E+03  1.40806E+03  3.56858E+03  4.88216E+03
  6.00019E+02  5.68103E+03 -1.61035E+03  4.16172E+03 -3.48579E+03  2.78459E+03 -2.26797E+03  3.85148E+02
 -1.43282E+03 -2.24517E+02 -7.53836E+02  7.31824E+02 -2.38988E+03  1.23664E+03 -4.24725E+03 -1.19487E+03
 -3.69569E+03 -3.16960E+03 -1.29176E+03 -5.52750E+03  1.99899E+03 -6.65422E+03  4.45214E+03 -2.23924E+03
  5.48568E+03  9.83484E+02  1.98567E+03  4.14012E+03 -6.17809E+02  5.60957E+03 -3.85707E+03  4.50946E+03
