 $NMID ID='MM_0lb_SNR400_10hz_g40_30.RAW', FMTDAT='(8E13.5)'
 TRAMP=1., VOLUME=1. $END
  3.09319E+05  7.23795E+01  3.37913E+05  2.50970E+05  8.47839E+04  3.37811E+05 -1.32594E+05  2.51350E+05
 -1.90924E+05  8.40510E+04 -1.12784E+05 -3.15408E+04 -3.50798E+02 -5.14127E+04  5.40406E+04 -1.16361E+03
  3.58541E+04  5.31461E+04 -1.67260E+04  7.55931E+04 -6.18209E+04  6.45875E+04 -8.45437E+04  3.26875E+04
 -8.09341E+04 -1.12915E+04 -5.74141E+04 -5.19899E+04 -1.51779E+04 -7.09935E+04  2.81015E+04 -4.61608E+04
  4.06809E+04  3.78412E+03  1.58375E+04  4.88499E+04 -3.49707E+04  4.82308E+04 -6.74181E+04  6.63752E+01
 -5.43921E+04 -5.69632E+04 -6.59912E+03 -7.82863E+04  3.36244E+04 -5.63256E+04  4.93945E+04 -1.77372E+04
  4.38418E+04  1.16258E+04  3.18524E+04  2.60456E+04  1.60326E+04  3.00126E+04 -6.02644E+03  2.71916E+04
 -2.28010E+04  1.28194E+04 -1.92727E+04 -5.57099E+03  6.50049E+03 -7.46817E+03  2.30722E+04  1.28827E+04
  7.44175E+03  3.62084E+04 -3.29730E+04  3.64983E+04 -6.37812E+04  2.28556E+03 -5.83862E+04 -4.41243E+04
 -1.29947E+04 -6.50694E+04  4.07570E+04 -4.63814E+04  6.02302E+04 -2.79029E+03  3.54200E+04  3.35668E+04
 -5.37048E+03  3.80177E+04 -3.17652E+04  1.75279E+04 -3.22527E+04 -4.04199E+03 -1.81025E+04 -1.14292E+04
 -9.33195E+03 -1.36890E+04 -4.13306E+02 -1.91430E+04  8.31845E+03 -2.30797E+04  1.58774E+04 -1.32758E+04
  1.15020E+04  5.83400E+03 -9.74353E+03  1.35052E+04 -2.22832E+04 -5.70477E+03 -7.93663E+03 -3.57477E+04
  2.41331E+04 -4.45607E+04  5.07851E+04 -2.08996E+04  4.67292E+04  2.06661E+04  1.67592E+04  4.57165E+04
 -1.61127E+04  3.55686E+04 -2.66327E+04  2.72635E+03 -1.10349E+04 -2.90735E+04  2.11622E+04 -3.65262E+04
  4.32403E+04 -1.00058E+04  3.81441E+04  2.42200E+04  2.05515E+04  4.90792E+04 -8.04670E+03  5.31810E+04
 -3.40538E+04  3.71973E+04 -4.50330E+04  1.13973E+04 -4.52997E+04 -1.74402E+04 -2.53619E+04 -4.08864E+04
  7.36461E+03 -4.06095E+04  3.32441E+04 -1.60041E+04  3.06710E+04  1.10989E+04  4.88004E+03  2.04731E+04
 -1.37341E+04  9.18369E+03 -1.07476E+04 -7.30092E+03  5.51831E+03 -1.14811E+04  1.93173E+04  5.88369E+03
  1.42656E+04  2.24395E+04 -5.57416E+03  2.59191E+04 -2.21715E+04  1.30968E+04 -3.01617E+04 -3.53382E+03
 -2.36379E+04 -1.79642E+04 -9.93301E+03 -2.32605E+04  4.05907E+03 -2.35098E+04  1.76722E+04 -2.14437E+04
  2.94880E+04 -1.33029E+04  3.51802E+04  4.36269E+03  2.50007E+04  2.28533E+04  4.46681E+03  3.94425E+04
 -1.85171E+04  3.28464E+04 -3.02753E+04  1.10243E+04 -2.23103E+04 -1.01969E+04 -4.35025E+03 -1.30657E+04
  1.11292E+03 -1.93517E+03 -6.47883E+03  7.17190E+03 -1.79598E+04  6.03378E+03 -1.84788E+04 -9.02021E+03
 -1.09603E+04 -2.19631E+04  5.03977E+03 -2.58706E+04  1.66504E+04 -1.80936E+04  2.05828E+04 -1.58460E+03
  1.35169E+04  1.55770E+04 -1.20182E+03  2.12293E+04 -1.51312E+04  1.24933E+04 -2.16169E+04 -5.26734E+03
 -1.59947E+04 -1.93991E+04 -1.99030E+03 -2.58188E+04  1.16686E+04 -2.16448E+04  2.18825E+04 -1.08139E+04
  2.04599E+04 -7.01477E+02  1.48146E+04  4.50608E+03  8.18591E+03  1.18928E+03  1.14783E+04 -2.16419E+03
  1.98103E+04  2.91504E+03  2.32454E+04  1.71946E+04  1.50985E+04  3.48199E+04 -2.66462E+03  3.99373E+04
 -2.29199E+04  3.32026E+04 -3.67267E+04  1.69935E+04 -4.05350E+04 -3.38608E+03 -3.30743E+04 -2.33170E+04
 -1.34722E+04 -3.31411E+04  1.15717E+04 -2.97487E+04  2.55068E+04 -1.40920E+04  2.21873E+04  6.87693E+03
  7.64255E+03  1.63495E+04 -1.05415E+04  1.48416E+04 -1.84602E+04  2.65585E+03 -1.29202E+04 -1.22857E+04
 -2.40639E+01 -1.75420E+04  9.46639E+03 -1.26102E+04  1.19778E+04 -1.81566E+03  3.56456E+03  8.23387E+03
 -7.70753E+03  3.58684E+03 -7.54833E+03 -6.81728E+03 -1.49584E+03 -1.64347E+04  1.11757E+04 -1.87652E+04
  2.10173E+04 -9.62406E+03  2.32733E+04  3.14204E+03  2.01695E+04  1.68131E+04  9.19217E+03  2.57891E+04
 -4.60946E+03  2.74611E+04 -1.74870E+04  1.65656E+04 -2.02808E+04  3.70021E+03 -1.36839E+04 -4.58666E+03
 -5.40369E+03 -6.38209E+03 -5.95115E+02  9.45421E+01 -2.53279E+03  3.24759E+03 -6.83912E+03  5.38293E+03
 -1.32961E+04 -1.36038E+03 -1.44009E+04 -1.07954E+04 -5.22966E+03 -1.80746E+04  5.41037E+03 -1.33836E+04
  1.12409E+04 -5.85437E+03  7.90943E+03  4.02843E+03 -8.27630E+02  5.69632E+03 -6.26719E+03 -7.26266E+01
 -6.72028E+03 -1.01483E+04 -3.03928E+02 -1.32458E+04  7.60817E+03 -1.43422E+04  1.81108E+04 -7.43131E+03
  2.06920E+04  2.01519E+03  1.59366E+04  1.21122E+04  3.40656E+03  1.68553E+04 -9.14975E+03  1.39487E+04
 -1.16784E+04  3.79832E+03 -6.02152E+03 -2.71153E+03  1.69676E+03 -4.44864E+03  7.09786E+03 -9.30264E+02
  6.74954E+03  6.11347E+03  1.87637E+03  1.18848E+04 -8.25263E+03  1.05172E+04 -1.35750E+04  2.94269E+03
 -8.82547E+03 -7.26418E+03  1.13970E+02 -1.20816E+04  8.14213E+03 -5.62551E+03  7.42968E+03  2.83894E+03
  1.83600E+03  8.85797E+03 -7.17757E+03  1.01519E+04 -1.10541E+04  4.73497E+03 -1.17995E+04 -4.78199E+03
 -6.73003E+03 -1.37693E+04  3.68404E+03 -1.58131E+04  1.35479E+04 -9.04677E+03  1.43392E+04  1.78805E+03
  8.69456E+03  1.07648E+04 -1.19060E+03  1.33459E+04 -9.43445E+03  8.06284E+03 -1.10944E+04 -9.25287E+02
 -9.38737E+03 -9.93070E+03 -1.71745E+03 -1.02339E+04  5.55004E+03 -8.73536E+03  7.17699E+03 -3.69845E+03
  4.62205E+03  2.21779E+03 -6.01054E+02  2.43054E+03 -4.26997E+02 -3.18043E+03  2.47361E+03 -6.59521E+03
  9.63350E+03 -4.01727E+03  1.39396E+04  1.49294E+03  1.32775E+04  9.08027E+03  9.46307E+03  1.75837E+04
 -3.44840E+03  1.98330E+04 -1.58680E+04  1.52906E+04 -2.20329E+04  2.95018E+03 -1.79759E+04 -7.08273E+03
 -9.55740E+03 -1.40129E+04 -2.63407E+02 -1.23239E+04  4.62011E+03 -7.74894E+03  4.22932E+03 -4.30137E+03
  2.85236E+03 -2.66459E+03  3.70333E+03 -3.89012E+03  5.00752E+03 -3.89493E+03  7.37317E+03 -9.79086E+02
  9.50570E+03  1.97172E+03  5.38591E+03  9.38671E+03 -2.12020E+03  9.29530E+03 -9.40627E+03  7.46923E+03
 -1.23708E+04 -1.58178E+03 -7.09240E+03 -8.73522E+03 -1.09962E+03 -1.26037E+04  7.77470E+03 -1.29278E+04
  1.36950E+04 -7.79066E+03  1.68759E+04  1.91010E+03  1.16338E+04  1.14537E+04  1.42382E+03  1.55449E+04
 -6.23469E+03  1.26905E+04 -8.24496E+03  4.33308E+03 -4.63380E+03 -2.14121E+03 -2.46147E+03 -1.23978E+03
 -3.22301E+02 -3.53533E+01 -2.07643E+03  2.65817E+03 -5.18222E+03  2.03228E+03 -8.28751E+03 -3.25665E+02
 -5.78564E+03 -8.78260E+03 -4.87422E+02 -1.26343E+04  7.59214E+03 -1.15880E+04  1.23501E+04 -3.56806E+03
  1.19041E+04  6.14445E+03  5.66965E+03  1.04246E+04 -3.28320E+03  1.24548E+04 -8.20778E+03  7.57055E+03
 -1.14938E+04  5.70226E+02 -8.82211E+03 -7.55826E+03 -1.00463E+03 -9.96824E+03  4.70097E+03 -7.95088E+03
  8.00533E+03 -2.33105E+03  6.32000E+03  1.82643E+03  1.57219E+03  3.06613E+03  7.12230E+02  2.07609E+03
  2.67641E+03  1.36425E+03  1.77324E+03  1.60827E+03  4.00088E+03  5.48611E+03  3.39386E+03  6.56053E+03
 -1.85625E+03  9.39982E+03 -8.31238E+03  9.80140E+03 -1.25667E+04  3.03677E+03 -1.19565E+04 -5.08239E+03
 -6.49989E+03 -1.26600E+04  1.22241E+03 -1.32096E+04  7.67872E+03 -8.55636E+03  1.00744E+04 -2.15975E+03
  8.42270E+03  4.37728E+03  1.82690E+03  7.58192E+03 -3.04391E+03  5.11930E+03 -4.49833E+03 -1.09007E+03
 -2.49714E+03 -5.35356E+03  2.48851E+03 -5.61490E+03  4.52268E+03 -2.23039E+03  5.57686E+03  7.80558E+02
  3.45976E+03  3.04241E+03  1.14530E+03  2.41279E+03  6.34531E+01  1.34668E+03  1.83826E+03 -4.82856E+02
  2.35534E+03 -1.16847E+03  4.65325E+03  1.96321E+03  2.60183E+03  6.96121E+03  9.49225E+00  8.25245E+03
 -4.85293E+03  5.17666E+03 -8.65491E+03  1.54098E+03 -7.63761E+03 -2.66007E+03 -1.76618E+03 -4.72865E+03
  4.24915E+02 -4.57533E+03  3.28837E+03 -1.90944E+03  3.14741E+03  2.79267E+03 -1.55262E+03  3.75834E+03
 -5.13818E+03  2.39074E+03 -5.18943E+03 -2.60624E+03 -3.58454E+03 -6.21065E+03  1.03790E+03 -7.41254E+03
  3.90971E+03 -4.24000E+03  4.29342E+03 -6.38422E+02  4.21254E+03  1.14989E+03  8.24375E+02  3.62970E+03
 -2.29478E+03  7.99453E+02 -3.26688E+03 -1.73411E+03  1.28566E+03 -5.41020E+03  6.90061E+03 -3.65081E+03
  7.90372E+03  3.98909E+02  7.18372E+03  5.30791E+03  2.12844E+03  7.78204E+03 -3.04163E+03  8.64871E+03
 -7.04588E+03  2.83358E+03 -5.83676E+03 -1.04871E+03 -4.09663E+03 -5.01233E+03  1.99392E+03 -5.54826E+03
  4.92808E+03 -1.83081E+03  4.49449E+03  1.91526E+03  1.01285E+03  4.38624E+03 -4.46811E+02  3.60252E+03
 -1.87761E+03  2.80826E+03 -2.51642E+03  4.89814E+02 -1.07913E+03  8.63053E+02 -1.61885E+03  1.82900E+03
 -1.59885E+03  3.73199E+03 -5.30206E+03  2.29270E+03 -8.10790E+03  4.34538E+02 -9.26472E+03 -5.00829E+03
 -4.69585E+03 -1.00144E+04  2.67445E+03 -1.24841E+04  7.51903E+03 -9.40973E+03  1.12040E+04 -3.50602E+03
  1.04719E+04  1.91576E+03  6.17091E+03  7.10630E+03  6.46075E+01  8.34368E+03 -3.04139E+03  6.62477E+03
 -3.91684E+03  2.60793E+03 -2.67827E+03 -5.68890E+02 -1.09082E+03 -1.04472E+03 -4.71743E+02  2.17978E+02
 -1.19448E+03  6.31201E+01 -2.30770E+03  3.42581E+00 -6.15569E+02 -2.13303E+03  7.61197E+02 -2.86536E+03
  3.67855E+03 -1.85908E+03  4.64839E+03  5.01083E+02  6.01222E+03  4.40808E+03  1.39791E+03  7.39954E+03
 -4.23561E+03  9.40083E+03 -8.61449E+03  5.75944E+03 -9.58699E+03 -6.41046E+02 -7.06789E+03 -6.19359E+03
 -3.57827E+03 -8.61409E+03  1.92072E+03 -7.54922E+03  4.86870E+03 -4.37471E+03  5.61155E+03  9.88227E+02
  3.25132E+03  2.51627E+03 -6.45782E+02  2.24988E+03 -1.37082E+03 -3.88627E+02  4.75063E+02 -1.78465E+03
  2.96307E+03 -1.23859E+03  3.41293E+03  1.70185E+03  2.34470E+03  3.31517E+03 -7.89859E+01  4.65681E+03
 -3.47939E+03  4.39401E+03 -5.72173E+03  4.81931E+02 -4.97761E+03 -4.70254E+03 -1.12417E+03 -7.04321E+03
  3.28765E+03 -6.49413E+03  6.64187E+03 -1.65975E+03  6.47851E+03  8.56427E+02  4.90962E+03  5.11459E+03
 -6.91805E+01  5.04241E+03 -1.61473E+03  4.03498E+03 -3.21660E+03  2.08271E+03 -2.95423E+03  3.66291E+02
 -1.58219E+03  9.01194E+01 -1.58529E+03  5.74758E+02 -2.94861E+03  4.25416E+02 -3.93951E+03 -7.57215E+02
 -4.73813E+03 -2.55926E+03 -1.65267E+03 -4.74150E+03  2.85402E+03 -6.39024E+03  4.85400E+03 -2.31361E+03
  4.99240E+03  1.63133E+02  2.60323E+03  4.15440E+03  4.68599E+01  5.62868E+03 -3.77584E+03  3.93173E+03
