 $NMID ID='MM_0lb_SNR400_11hz_g40_15.RAW', FMTDAT='(8E13.5)'
 TRAMP=1., VOLUME=1. $END
  3.09611E+05  6.26182E+02  3.38323E+05  2.51469E+05  8.47709E+04  3.38636E+05 -1.32615E+05  2.51337E+05
 -1.90305E+05  8.31435E+04 -1.11881E+05 -3.28710E+04  1.14314E+03 -5.07278E+04  5.36531E+04  1.20846E+02
  3.56872E+04  5.29634E+04 -1.63490E+04  7.58449E+04 -6.03999E+04  6.43749E+04 -8.49013E+04  3.19391E+04
 -8.13080E+04 -1.14217E+04 -5.75260E+04 -5.19800E+04 -1.53930E+04 -7.00921E+04  2.78932E+04 -4.61284E+04
  4.02534E+04  4.32837E+03  1.67445E+04  4.77263E+04 -3.49280E+04  4.75988E+04 -6.73324E+04  2.50907E+02
 -5.36429E+04 -5.68528E+04 -7.10533E+03 -7.79216E+04  3.40951E+04 -5.55768E+04  4.86630E+04 -1.82294E+04
  4.36460E+04  1.16730E+04  3.21309E+04  2.64013E+04  1.60616E+04  3.01467E+04 -5.37099E+03  2.65103E+04
 -2.21615E+04  1.21415E+04 -1.81908E+04 -5.69555E+03  6.61836E+03 -7.94214E+03  2.29184E+04  1.26886E+04
  7.23160E+03  3.62730E+04 -3.23668E+04  3.57612E+04 -6.42073E+04  1.97690E+03 -5.73331E+04 -4.36625E+04
 -1.22983E+04 -6.40821E+04  4.03519E+04 -4.57967E+04  5.92444E+04 -2.50460E+03  3.45201E+04  3.30947E+04
 -6.01124E+03  3.75315E+04 -3.07253E+04  1.73518E+04 -3.13536E+04 -4.11876E+03 -1.75362E+04 -1.12118E+04
 -8.71109E+03 -1.36793E+04 -7.27743E+02 -1.90800E+04  7.57852E+03 -2.36407E+04  1.57912E+04 -1.27909E+04
  1.06643E+04  5.04479E+03 -8.58891E+03  1.30403E+04 -2.26608E+04 -6.22242E+03 -8.62481E+03 -3.57344E+04
  2.43266E+04 -4.51024E+04  4.92307E+04 -1.97318E+04  4.71062E+04  2.06661E+04  1.62188E+04  4.52657E+04
 -1.72714E+04  3.51091E+04 -2.69398E+04  1.81002E+03 -1.02149E+04 -2.79849E+04  2.07237E+04 -3.49211E+04
  4.27110E+04 -9.60907E+03  3.73651E+04  2.40961E+04  1.92071E+04  4.73153E+04 -7.93769E+03  5.27982E+04
 -3.30949E+04  3.49519E+04 -4.46012E+04  9.89921E+03 -4.52491E+04 -1.79087E+04 -2.46802E+04 -3.95920E+04
  6.85470E+03 -3.89801E+04  3.25175E+04 -1.57710E+04  3.00703E+04  1.02947E+04  5.02897E+03  2.04158E+04
 -1.40686E+04  8.69665E+03 -1.06018E+04 -7.81114E+03  5.98991E+03 -1.11389E+04  1.84666E+04  5.43331E+03
  1.42299E+04  2.22543E+04 -5.48977E+03  2.59868E+04 -2.29713E+04  1.21565E+04 -2.98639E+04 -3.86938E+03
 -2.18527E+04 -1.75101E+04 -9.35465E+03 -2.21682E+04  3.96013E+03 -2.25454E+04  1.74849E+04 -2.01201E+04
  2.84023E+04 -1.35577E+04  3.44724E+04  3.51337E+03  2.45136E+04  2.18313E+04  4.50757E+03  3.85690E+04
 -1.88068E+04  3.11866E+04 -2.86679E+04  1.12719E+04 -2.18150E+04 -1.04289E+04 -5.15134E+03 -1.42566E+04
  9.95310E+02 -1.66769E+03 -6.17616E+03  6.63175E+03 -1.84290E+04  5.22229E+03 -1.69916E+04 -7.27422E+03
 -1.04897E+04 -2.09128E+04  4.81609E+03 -2.49876E+04  1.63640E+04 -1.78082E+04  1.99893E+04 -1.63575E+03
  1.28650E+04  1.49084E+04 -1.37152E+03  2.08597E+04 -1.41493E+04  1.20928E+04 -2.16255E+04 -4.01843E+03
 -1.49974E+04 -1.90183E+04 -1.88344E+03 -2.50603E+04  1.05928E+04 -2.08216E+04  2.04738E+04 -1.03671E+04
  1.97568E+04  1.15204E+02  1.40837E+04  4.54877E+03  7.54620E+03  1.13011E+03  1.12447E+04 -1.17030E+03
  1.97471E+04  2.16411E+03  2.18658E+04  1.62297E+04  1.47868E+04  3.27687E+04 -3.23866E+03  3.83453E+04
 -2.25332E+04  3.13798E+04 -3.54317E+04  1.54788E+04 -3.79985E+04 -2.42010E+03 -3.15936E+04 -2.15053E+04
 -1.27702E+04 -3.19288E+04  1.12003E+04 -2.78883E+04  2.38734E+04 -1.31609E+04  2.13200E+04  6.52044E+03
  7.86391E+03  1.63448E+04 -1.00650E+04  1.37008E+04 -1.61978E+04  2.13523E+03 -1.34865E+04 -1.12052E+04
 -2.40982E+02 -1.69799E+04  8.71317E+03 -1.23289E+04  1.13246E+04 -1.42667E+03  3.14624E+03  7.42651E+03
 -7.90932E+03  3.16528E+03 -7.91920E+03 -6.69874E+03 -5.18704E+02 -1.50960E+04  1.05658E+04 -1.65053E+04
  1.93637E+04 -9.01597E+03  2.16078E+04  2.63917E+03  1.85228E+04  1.50737E+04  8.29638E+03  2.41868E+04
 -4.91923E+03  2.60948E+04 -1.65127E+04  1.62245E+04 -1.89628E+04  3.31862E+03 -1.27839E+04 -4.62062E+03
 -4.86518E+03 -5.93031E+03 -3.26836E+02  7.92163E+02 -2.60191E+03  3.08844E+03 -5.71692E+03  4.65970E+03
 -1.25737E+04 -1.04117E+03 -1.26266E+04 -1.01588E+04 -5.30877E+03 -1.65874E+04  5.12306E+03 -1.31661E+04
  1.13829E+04 -5.28096E+03  7.65455E+03  3.44263E+03 -1.92244E+02  5.11917E+03 -6.15951E+03 -3.20670E+01
 -5.73599E+03 -8.13699E+03 -7.19275E+02 -1.37600E+04  8.05382E+03 -1.34734E+04  1.60472E+04 -6.85402E+03
  1.87753E+04  1.78030E+03  1.44043E+04  1.16844E+04  2.55369E+03  1.53080E+04 -8.32575E+03  1.27407E+04
 -1.09507E+04  3.58064E+03 -4.81070E+03 -2.72188E+03  1.18078E+03 -3.51042E+03  6.58337E+03 -1.15274E+03
  5.78132E+03  5.40381E+03  5.02222E+02  1.04614E+04 -7.55725E+03  1.05891E+04 -1.23028E+04  2.50197E+03
 -8.81387E+03 -6.48476E+03  5.06013E+02 -1.10387E+04  6.76402E+03 -5.78002E+03  7.08219E+03  2.30408E+03
  1.72834E+03  7.79237E+03 -7.14461E+03  9.95333E+03 -1.14720E+04  4.56331E+03 -1.08020E+04 -3.44960E+03
 -6.03990E+03 -1.20543E+04  2.52984E+03 -1.38485E+04  1.22121E+04 -8.93722E+03  1.32296E+04  2.16539E+03
  8.28939E+03  1.03553E+04 -6.45168E+02  1.30839E+04 -9.26892E+03  7.26954E+03 -9.94357E+03 -1.43683E+03
 -9.09513E+03 -8.84579E+03 -1.39490E+03 -9.41173E+03  5.29184E+03 -7.18631E+03  6.81659E+03 -3.43144E+03
  4.79412E+03  1.60841E+03 -6.05187E+02  1.54598E+03  4.02927E+02 -1.89086E+03  1.67387E+03 -5.55205E+03
  9.22151E+03 -2.92216E+03  1.18860E+04  1.67565E+03  1.22681E+04  8.41083E+03  8.49349E+03  1.61776E+04
 -4.09172E+03  1.89721E+04 -1.58229E+04  1.36080E+04 -1.98641E+04  2.08004E+03 -1.55390E+04 -6.87044E+03
 -7.58550E+03 -1.36606E+04  5.35266E+01 -1.14916E+04  4.25975E+03 -6.18150E+03  4.03786E+03 -3.90772E+03
  3.00950E+03 -2.39582E+03  3.40097E+03 -3.29493E+03  5.42138E+03 -2.69972E+03  6.69470E+03 -3.77927E+02
  8.94050E+03  2.21248E+03  4.29059E+03  7.52683E+03 -2.24666E+03  8.38626E+03 -8.89738E+03  7.39367E+03
 -1.14587E+04 -8.39852E+02 -7.21941E+03 -8.00395E+03 -6.48657E+02 -1.25492E+04  6.59589E+03 -1.14406E+04
  1.26699E+04 -7.11586E+03  1.52341E+04  1.35321E+03  9.76186E+03  9.91018E+03  2.07656E+03  1.39455E+04
 -5.35146E+03  1.16624E+04 -7.96848E+03  3.83765E+03 -4.65341E+03 -1.37211E+03 -2.03438E+03 -1.06720E+03
 -1.42471E+03 -4.74618E+01 -1.34949E+03  2.58563E+03 -4.39347E+03  2.68910E+03 -7.53036E+03 -9.14701E+02
 -5.42467E+03 -7.65738E+03  2.37718E+02 -1.04790E+04  6.80868E+03 -1.05590E+04  1.03974E+04 -3.58802E+03
  1.08092E+04  5.22961E+03  5.57732E+03  9.84093E+03 -1.51459E+03  1.10435E+04 -7.85064E+03  6.82936E+03
 -1.03181E+04  3.64852E+02 -7.57925E+03 -6.27506E+03 -1.09465E+03 -8.42072E+03  4.40433E+03 -7.17794E+03
  6.44655E+03 -2.49641E+03  5.09132E+03  2.02515E+03  1.77983E+03  2.88732E+03  1.02903E+03  1.58776E+03
  2.55008E+03  1.07044E+03  4.11359E+03  1.88415E+03  3.35363E+03  4.45081E+03  3.35687E+03  5.58394E+03
 -2.31923E+03  8.35114E+03 -7.54403E+03  9.13006E+03 -1.10491E+04  2.50930E+03 -1.14113E+04 -4.31482E+03
 -5.69343E+03 -1.08785E+04  1.24869E+03 -1.22541E+04  6.45094E+03 -8.11941E+03  9.04926E+03 -2.73995E+03
  7.50033E+03  4.30476E+03  5.87868E+02  6.83470E+03 -2.67328E+03  3.68038E+03 -4.01497E+03  1.39971E+02
 -1.80359E+03 -4.67997E+03  2.70425E+03 -5.03667E+03  3.82592E+03 -2.44825E+03  4.16707E+03  5.56247E+02
  2.97604E+03  1.91366E+03  1.50134E+03  1.59334E+03 -4.62791E+02  2.33700E+03  1.91918E+03  2.03626E+02
  3.76615E+02 -5.50402E+02  4.49590E+03  1.73021E+03  2.95881E+03  5.74050E+03 -9.86680E+02  8.32426E+03
 -4.86580E+03  4.46152E+03 -6.08301E+03  1.02443E+03 -5.99215E+03 -2.36420E+03 -1.89190E+03 -4.56967E+03
  9.67506E+02 -5.06439E+03  3.22625E+03 -2.31733E+03  1.83196E+03  1.77257E+03 -1.25343E+03  3.69571E+03
 -4.66312E+03  2.30216E+03 -4.34264E+03 -2.56121E+03 -2.71582E+03 -5.84023E+03  9.10335E+02 -7.25684E+03
  3.99686E+03 -3.34318E+03  4.63344E+03 -4.93245E+02  3.95805E+03  1.08733E+03 -4.29095E+01  3.13237E+03
 -7.78865E+02  9.23058E+02 -3.41473E+03 -2.61188E+03  1.55678E+03 -3.88799E+03  4.84786E+03 -2.77664E+03
  6.56173E+03  3.84345E+02  6.35379E+03  3.98170E+03  1.89780E+03  6.77964E+03 -2.42108E+03  6.46492E+03
 -6.40479E+03  3.05242E+03 -6.02544E+03 -1.35480E+03 -3.05630E+03 -3.93333E+03  5.74405E+02 -3.90369E+03
  4.12732E+03 -2.29609E+03  3.44633E+03  1.83154E+03  1.51947E+03  3.79900E+03 -1.16580E+03  3.95530E+03
 -2.03321E+03  2.22361E+03 -1.65083E+03  9.30351E+02 -1.35464E+03  9.31191E+02 -1.56021E+03  1.31853E+03
 -2.30560E+03  2.54476E+03 -4.75075E+03  2.39854E+03 -5.89392E+03 -1.32387E+01 -7.66390E+03 -4.68224E+03
 -3.45442E+03 -9.20213E+03  1.75534E+03 -1.08372E+04  5.47622E+03 -8.38879E+03  9.83919E+03 -2.90169E+03
  9.35918E+03  1.71316E+03  5.75134E+03  6.51765E+03  5.07661E+02  6.73685E+03 -3.52783E+03  4.71123E+03
 -3.88843E+03  1.96289E+03 -2.16770E+03 -4.53287E+02 -1.00140E+03 -5.95267E+02 -1.01629E+03 -1.32533E+02
 -1.36068E+03 -9.68298E+02 -2.58655E+03 -5.78355E+01 -5.29572E+02 -1.80172E+03  5.98538E+02 -2.63804E+03
  3.46908E+03 -2.30855E+03  4.01263E+03  1.12930E+02  4.92999E+03  4.07682E+03  6.76075E+02  6.51356E+03
 -3.07230E+03  8.02952E+03 -7.42259E+03  4.35169E+03 -8.03020E+03 -8.23114E+02 -6.13409E+03 -4.89866E+03
 -2.81113E+03 -7.38050E+03  1.09158E+03 -6.82450E+03  4.09134E+03 -3.90188E+03  4.72135E+03  5.81244E+00
  2.73379E+03  2.22044E+03 -1.58223E+02  1.99585E+03 -1.16028E+03 -4.17710E+02  5.11562E+02 -1.76414E+03
  2.39685E+03 -7.65836E+02  2.62162E+03  1.40687E+03  1.40413E+03  3.12262E+03  4.30818E+02  3.45809E+03
 -2.75650E+03  3.01608E+03 -4.59656E+03  6.19858E+02 -4.23863E+03 -3.54049E+03 -9.69445E+02 -5.35618E+03
  2.64031E+03 -4.52843E+03  4.91694E+03 -1.64323E+03  5.28742E+03  9.81030E+02  2.87443E+03  4.29674E+03
  7.35083E+02  4.31570E+03 -1.57032E+03  3.67107E+03 -2.64668E+03  2.04783E+03 -2.85999E+03  6.29984E+02
 -9.95995E+02  2.09050E+02 -9.42021E+02  8.12935E+02 -3.01816E+03  1.00217E+03 -3.30239E+03 -1.03532E+03
 -3.02555E+03 -2.51885E+03 -1.31152E+03 -4.82656E+03  2.47035E+03 -4.96980E+03  3.86547E+03 -2.63856E+03
  4.05953E+03  3.98937E+02  1.76548E+03  3.04893E+03 -6.74714E+02  4.21776E+03 -2.67912E+03  3.31883E+03
