 $NMID ID='MM_0lb_SNR400_16hz_g45_32.RAW', FMTDAT='(8E13.5)'
 TRAMP=1., VOLUME=1. $END
  3.09971E+05  1.07600E+03  3.37079E+05  2.50748E+05  8.48231E+04  3.37736E+05 -1.32619E+05  2.50540E+05
 -1.89925E+05  8.20010E+04 -1.10934E+05 -3.24059E+04  1.68307E+03 -5.09430E+04  5.39944E+04  1.80130E+02
  3.50010E+04  5.24350E+04 -1.67017E+04  7.50332E+04 -6.08036E+04  6.25027E+04 -8.39615E+04  3.18708E+04
 -7.95591E+04 -1.15641E+04 -5.69322E+04 -5.11097E+04 -1.48127E+04 -6.88981E+04  2.68025E+04 -4.53033E+04
  3.96927E+04  3.33394E+03  1.56497E+04  4.71952E+04 -3.39376E+04  4.66136E+04 -6.57303E+04 -6.53703E+02
 -5.28400E+04 -5.64199E+04 -6.23150E+03 -7.56928E+04  3.35429E+04 -5.39861E+04  4.67696E+04 -1.66808E+04
  4.22545E+04  1.11140E+04  3.16399E+04  2.50530E+04  1.59030E+04  2.85658E+04 -4.63788E+03  2.73054E+04
 -2.22253E+04  1.28681E+04 -1.88481E+04 -4.09951E+03  5.19883E+03 -7.99105E+03  2.13957E+04  1.13272E+04
  7.61336E+03  3.38412E+04 -3.11063E+04  3.50902E+04 -6.24353E+04  2.12770E+03 -5.55016E+04 -4.21352E+04
 -1.24594E+04 -6.16504E+04  3.93485E+04 -4.44953E+04  5.64508E+04 -1.39185E+03  3.29132E+04  3.14931E+04
 -6.05433E+03  3.39003E+04 -2.94039E+04  1.50998E+04 -2.94204E+04 -5.13493E+03 -1.54954E+04 -1.06078E+04
 -7.96173E+03 -1.14299E+04 -1.26381E+03 -1.73160E+04  6.93531E+03 -2.25608E+04  1.57228E+04 -1.39837E+04
  1.22203E+04  4.81415E+03 -7.35350E+03  1.30607E+04 -1.99641E+04 -2.93961E+03 -7.99572E+03 -3.24573E+04
  2.13487E+04 -4.15777E+04  4.65284E+04 -1.88516E+04  4.31661E+04  1.90426E+04  1.50660E+04  4.30187E+04
 -1.55111E+04  3.24553E+04 -2.43956E+04  1.12876E+03 -9.04816E+03 -2.74402E+04  2.07106E+04 -3.22825E+04
  3.95197E+04 -7.62122E+03  3.32432E+04  2.33126E+04  1.61673E+04  4.44432E+04 -7.78243E+03  4.77729E+04
 -3.00698E+04  3.18760E+04 -3.95314E+04  8.82951E+03 -4.06415E+04 -1.55587E+04 -2.20295E+04 -3.59428E+04
  7.13700E+03 -3.56046E+04  3.00574E+04 -1.37687E+04  2.78492E+04  1.10090E+04  3.55228E+03  1.82127E+04
 -1.29421E+04  7.76402E+03 -1.02685E+04 -7.65354E+03  6.02449E+03 -1.02550E+04  1.78489E+04  6.24530E+03
  1.28321E+04  2.27033E+04 -5.98873E+03  2.42338E+04 -2.15113E+04  1.03368E+04 -2.59851E+04 -5.76641E+03
 -1.85146E+04 -1.67012E+04 -7.16268E+03 -1.87099E+04  4.14321E+03 -1.72200E+04  1.41536E+04 -1.67202E+04
  2.27727E+04 -1.23445E+04  3.01811E+04  2.34900E+03  2.19213E+04  1.73751E+04  3.96096E+03  3.42685E+04
 -1.71189E+04  2.85412E+04 -2.63909E+04  9.57649E+03 -2.09700E+04 -1.04338E+04 -4.36669E+03 -1.35923E+04
  2.80526E+03 -3.49386E+03 -4.01215E+03  5.56243E+03 -1.42280E+04  5.13431E+03 -1.43410E+04 -6.50404E+03
 -9.01776E+03 -1.68663E+04  4.67117E+03 -2.09789E+04  1.37987E+04 -1.46714E+04  1.56146E+04 -1.24911E+03
  9.96466E+03  1.18788E+04 -8.09097E+02  1.70988E+04 -1.16272E+04  9.21435E+03 -1.73218E+04 -3.49883E+03
 -1.23766E+04 -1.55749E+04 -1.83256E+03 -2.08257E+04  9.29706E+03 -1.68631E+04  1.78526E+04 -8.14548E+03
  1.63512E+04  6.41246E+02  1.14985E+04  4.28031E+03  5.68154E+03  1.29696E+03  8.62222E+03 -1.18814E+03
  1.57241E+04  2.39150E+03  1.66001E+04  1.39838E+04  1.10985E+04  2.75991E+04 -3.36735E+03  2.98089E+04
 -1.83659E+04  2.36725E+04 -2.78951E+04  1.18189E+04 -2.92006E+04 -1.54010E+03 -2.46777E+04 -1.68998E+04
 -1.11030E+04 -2.36483E+04  8.27554E+03 -2.18865E+04  1.85624E+04 -1.15893E+04  1.72638E+04  4.29560E+03
  6.74464E+03  1.33518E+04 -7.40542E+03  1.13562E+04 -1.51909E+04  2.65593E+03 -1.04924E+04 -8.80433E+03
  2.33791E+02 -1.41371E+04  6.97509E+03 -1.01439E+04  8.17696E+03 -1.64669E+03  1.61470E+03  5.62168E+03
 -5.69019E+03  1.92716E+03 -4.76821E+03 -5.63492E+03  1.32061E+02 -1.12768E+04  8.32294E+03 -1.22034E+04
  1.43291E+04 -6.03617E+03  1.48711E+04  3.19317E+03  1.23412E+04  1.18659E+04  5.59191E+03  1.69437E+04
 -2.25428E+03  1.92111E+04 -1.17077E+04  1.17150E+04 -1.39193E+04  3.54689E+03 -9.52346E+03 -2.40184E+03
 -4.84167E+03 -4.14025E+03 -1.02794E+03  1.18222E+03 -2.17624E+03  3.22426E+03 -4.33927E+03  3.87743E+03
 -8.97634E+03 -3.25075E+02 -9.93228E+03 -7.07212E+03 -3.69054E+03 -1.32772E+04  4.01113E+03 -9.61677E+03
  7.60970E+03 -4.66953E+03  6.34590E+03  2.74077E+03  5.90503E+02  3.68064E+03 -4.14292E+03  2.37939E+02
 -3.84002E+03 -6.30954E+03 -8.50726E+02 -8.56566E+03  4.95663E+03 -9.30393E+03  1.11000E+04 -4.76790E+03
  1.40402E+04  5.81545E+02  1.01947E+04  7.61930E+03  1.79759E+03  1.06019E+04 -6.11713E+03  1.00646E+04
 -8.09948E+03  3.18744E+03 -3.76348E+03 -1.97562E+03  1.07965E+03 -2.91784E+03  5.18961E+03 -7.10486E+02
  4.85856E+03  4.11803E+03  1.33987E+03  7.90679E+03 -5.21955E+03  7.53296E+03 -9.21970E+03  2.00019E+03
 -5.22767E+03 -4.42504E+03  3.65386E+02 -8.12521E+03  4.44873E+03 -3.88677E+03  4.38579E+03  1.73220E+03
  6.50306E+02  4.25054E+03 -4.64220E+03  6.24790E+03 -6.24152E+03  3.03537E+03 -5.78317E+03 -2.19229E+03
 -3.71608E+03 -7.90977E+03  1.60442E+03 -8.59327E+03  7.68103E+03 -5.68950E+03  7.92269E+03  1.09830E+03
  5.20040E+03  6.39736E+03 -4.61437E+01  9.04232E+03 -6.43889E+03  4.71855E+03 -6.54483E+03 -7.63906E+02
 -6.38327E+03 -5.98697E+03 -9.96149E+02 -6.25400E+03  2.99823E+03 -5.44970E+03  4.11786E+03 -3.00408E+03
  3.29494E+03  6.86502E+02 -3.77453E+02  1.84671E+03  1.08696E+03 -8.15624E+02  1.02876E+03 -2.90234E+03
  5.06736E+03 -1.76880E+03  7.22613E+03  8.71913E+02  7.74219E+03  4.35440E+03  6.52139E+03  9.99031E+03
 -2.18759E+03  1.15302E+04 -9.54087E+03  8.58853E+03 -1.27494E+04  1.50408E+03 -9.96557E+03 -3.42750E+03
 -5.31531E+03 -8.69881E+03 -5.84206E+02 -6.70977E+03  2.99788E+03 -3.23437E+03  1.93902E+03 -2.51735E+03
  1.12811E+03 -1.84318E+03  2.12156E+03 -2.89782E+03  4.12651E+03 -2.38978E+03  4.57622E+03  3.19388E+02
  5.20858E+03  1.51013E+03  1.94060E+03  4.08471E+03 -2.04200E+03  4.02991E+03 -5.92996E+03  3.30741E+03
 -6.12087E+03 -1.34851E+03 -2.34103E+03 -4.39373E+03 -3.47097E+02 -6.98332E+03  3.70595E+03 -7.10256E+03
  7.20505E+03 -4.09011E+03  9.11428E+03  5.05406E+02  6.36176E+03  5.79373E+03  1.74439E+03  8.06903E+03
 -3.27073E+03  7.05229E+03 -4.91355E+03  2.96655E+03 -2.61119E+03 -1.69233E+03 -6.12595E+02 -6.83550E+02
 -5.55263E+02 -1.55986E+02 -1.19350E+03  1.33749E+03 -3.60134E+03  1.41719E+03 -5.37616E+03 -5.08443E+02
 -2.40824E+03 -4.91889E+03  1.27950E+03 -6.15089E+03  4.15307E+03 -6.11395E+03  4.92314E+03 -1.45966E+03
  5.94490E+03  3.28074E+03  2.74147E+03  5.26549E+03 -1.30119E+03  6.30051E+03 -4.03722E+03  2.73989E+03
 -5.23431E+03  1.28816E+02 -4.14682E+03 -3.59238E+03 -4.28267E+02 -4.86443E+03  2.65046E+03 -3.31449E+03
  3.80563E+03 -1.72698E+03  2.17614E+03  9.39536E+02  1.20091E+03  1.62586E+03  1.29067E+03  3.12568E+02
  1.89187E+03  1.08042E+03  1.46006E+03  1.29814E+03  1.81403E+03  2.66648E+03  1.95144E+03  2.88806E+03
 -1.80797E+03  4.75129E+03 -3.70829E+03  5.20546E+03 -4.51749E+03  1.71971E+03 -5.95030E+03 -1.77831E+03
 -2.29865E+03 -5.18161E+03  1.08942E+03 -6.04601E+03  3.17567E+03 -3.21223E+03  4.69511E+03 -9.21214E+02
  3.70113E+03  2.91012E+03  9.59422E+02  3.44719E+03 -1.19616E+03  2.02325E+03 -1.92255E+03 -4.21034E+02
 -4.92516E+02 -2.18621E+03  1.44622E+03 -2.53505E+03  2.31750E+03 -1.93685E+03  2.31691E+03  1.38184E+02
  1.51436E+03  4.11472E+02  1.41597E+02 -5.26507E+02 -8.83625E+02  7.85433E+02  1.33609E+03 -2.78521E+02
  4.51641E+02 -4.04709E+02  2.51433E+03  8.99618E+02 -9.55811E+01  3.43066E+03 -7.34993E+02  3.97998E+03
 -2.07410E+03  1.73899E+03 -3.14991E+03  7.04427E+02 -2.54233E+03 -6.16293E+02 -1.00155E+03 -1.58256E+03
  6.59169E+02 -1.67606E+03  6.49004E+02 -9.30284E+02  1.39181E+03  1.77983E+03 -6.73470E+02  1.39673E+03
 -2.54489E+03  9.00414E+02 -1.56206E+03 -1.66753E+03 -1.13487E+03 -3.13365E+03 -6.08837E+01 -2.30957E+03
  8.01286E+02 -7.87128E+02  8.65207E+02  6.52281E+02  1.89564E+03  3.31548E+02  1.54007E+02  1.57380E+03
 -1.06745E+03  2.57942E+02 -7.03029E+02  3.86836E+02  5.28968E+02 -1.78066E+03  2.64633E+03 -1.33324E+03
  2.58497E+03 -1.11938E+02  3.57274E+03  2.12523E+03  1.51412E+03  2.39937E+03 -5.85373E+02  2.99764E+03
 -2.55270E+03  6.50307E+02 -2.10835E+03 -5.07893E+02 -1.03186E+03 -2.23893E+03  2.14891E+02 -1.66100E+03
  1.98113E+03 -6.98065E+02  1.82434E+03  3.52702E+02  1.70359E+02  1.86497E+03  7.62359E+01  1.52715E+03
 -8.16816E+02  1.43982E+03 -8.64122E+02  1.37734E+02 -1.62406E+02  5.95480E+01 -9.42413E+02  1.27047E+02
 -1.09293E+03  1.46404E+03 -2.57047E+03  1.24024E+03 -3.01015E+03 -3.39468E+02 -3.64642E+03 -1.72458E+03
 -2.03325E+03 -3.70590E+03  1.14301E+03 -4.32429E+03  2.14446E+03 -3.83572E+03  4.18348E+03 -1.17725E+03
  4.53965E+03  7.97764E+02  2.07232E+03  2.60819E+03 -1.40307E+02  2.33593E+03 -1.44976E+03  2.41294E+03
 -1.61025E+03  5.59731E+02 -7.75524E+02 -2.94185E+02  2.69194E+01  1.93614E+02 -1.00198E+03  2.12680E+02
 -1.17296E+03  2.43675E+02 -7.69675E+02  1.88231E+02 -4.40143E+02 -1.17017E+03 -8.75706E+02 -1.03743E+03
  1.95091E+03 -3.59812E+02  1.78674E+03 -1.22446E+02  2.06067E+03  1.79800E+03 -1.60005E+02  3.19244E+03
 -1.67639E+03  3.91369E+03 -2.00677E+03  2.00431E+03 -3.22053E+03 -3.01914E+02 -2.30850E+03 -2.16604E+03
 -9.40993E+02 -3.04995E+03  6.87254E+02 -2.27934E+03  1.89339E+03 -1.46865E+03  1.64387E+03 -4.53969E+02
  1.52158E+03  8.90436E+02  2.97474E+02  5.19882E+02 -7.94737E+02  9.71303E+01  2.93326E+01 -4.45587E+02
  4.18580E+02 -4.25138E+01  8.34359E+02  1.16738E+03  5.15342E+02  1.20132E+03  7.07167E+02  3.52155E+02
 -1.50361E+03  9.09555E+02 -1.22904E+03  2.99738E+02 -1.21085E+03 -9.34580E+02  3.42302E+02 -1.79691E+03
  1.41351E+03 -1.10733E+03  1.02349E+03 -7.79318E+01  1.41275E+03 -9.48685E+01  8.40161E+02  1.15502E+03
  9.56229E+02  2.01716E+03 -6.52168E+02  6.68154E+02 -1.23375E+03  1.05354E+03 -9.01129E+02  3.04192E+02
 -1.86957E+02 -6.81894E+02 -8.36446E+02  3.80918E+02 -7.22905E+02  1.26698E+02 -8.49285E+02 -2.67266E+01
 -1.69867E+03  3.11820E+01 -6.34524E+02 -1.38415E+03  1.14787E+03 -2.26116E+03  6.67307E+02 -6.90575E+02
  1.86253E+03 -1.29531E+02  2.34467E+02  1.16864E+03 -9.91472E+02  1.37610E+03 -6.83610E+02  4.79883E+02
