 $NMID ID='MM_0lb_SNR400_16hz_g60_64.RAW', FMTDAT='(8E13.5)'
 TRAMP=1., VOLUME=1. $END
  3.10073E+05  2.60163E+02  3.37890E+05  2.50953E+05  8.44787E+04  3.37973E+05 -1.32054E+05  2.51125E+05
 -1.90354E+05  8.37672E+04 -1.11902E+05 -3.24468E+04  4.17726E+02 -5.05035E+04  5.37509E+04 -3.67195E+02
  3.53407E+04  5.27354E+04 -1.71836E+04  7.52289E+04 -6.08848E+04  6.35241E+04 -8.44711E+04  3.21941E+04
 -8.11500E+04 -1.20248E+04 -5.77632E+04 -5.10718E+04 -1.47751E+04 -7.05548E+04  2.71154E+04 -4.62904E+04
  4.03453E+04  3.63384E+03  1.58425E+04  4.75241E+04 -3.44272E+04  4.69645E+04 -6.68171E+04 -3.57680E+02
 -5.36341E+04 -5.68273E+04 -7.14752E+03 -7.73447E+04  3.41250E+04 -5.53762E+04  4.79198E+04 -1.77243E+04
  4.36469E+04  1.11323E+04  3.24148E+04  2.52329E+04  1.56719E+04  2.96444E+04 -5.18254E+03  2.68462E+04
 -2.19584E+04  1.21044E+04 -1.82375E+04 -5.53995E+03  6.10877E+03 -7.56934E+03  2.22195E+04  1.21499E+04
  6.77029E+03  3.50347E+04 -3.23628E+04  3.58230E+04 -6.37123E+04  1.99062E+03 -5.67834E+04 -4.25571E+04
 -1.26928E+04 -6.26057E+04  4.01369E+04 -4.52825E+04  5.80603E+04 -1.71163E+03  3.49885E+04  3.23306E+04
 -6.14390E+03  3.62300E+04 -2.90792E+04  1.56480E+04 -3.01080E+04 -4.58573E+03 -1.69598E+04 -1.09271E+04
 -8.58447E+03 -1.32430E+04 -1.06509E+03 -1.81914E+04  7.56425E+03 -2.29518E+04  1.53793E+04 -1.29968E+04
  1.09404E+04  5.40538E+03 -8.36649E+03  1.26256E+04 -2.10488E+04 -4.66511E+03 -8.47143E+03 -3.39335E+04
  2.30430E+04 -4.34341E+04  4.79793E+04 -1.96005E+04  4.50987E+04  1.97304E+04  1.52816E+04  4.43239E+04
 -1.60003E+04  3.28971E+04 -2.49520E+04  1.80134E+03 -9.65551E+03 -2.77285E+04  2.10504E+04 -3.41655E+04
  4.12381E+04 -9.37632E+03  3.55774E+04  2.39944E+04  1.82841E+04  4.65780E+04 -7.75448E+03  5.04345E+04
 -3.16235E+04  3.39213E+04 -4.22139E+04  9.80608E+03 -4.23874E+04 -1.65524E+04 -2.33387E+04 -3.74845E+04
  7.48119E+03 -3.76222E+04  3.16262E+04 -1.51448E+04  2.88565E+04  1.10552E+04  4.30363E+03  1.85282E+04
 -1.37301E+04  7.94430E+03 -1.03501E+04 -7.95992E+03  5.94722E+03 -1.05862E+04  1.81094E+04  5.74519E+03
  1.27952E+04  2.25078E+04 -5.72804E+03  2.48829E+04 -2.21212E+04  1.14386E+04 -2.83391E+04 -4.87828E+03
 -2.02558E+04 -1.73834E+04 -8.38325E+03 -2.01713E+04  3.85408E+03 -1.93585E+04  1.58726E+04 -1.85440E+04
  2.60075E+04 -1.22880E+04  3.20845E+04  2.39213E+03  2.37592E+04  1.98556E+04  3.78605E+03  3.61342E+04
 -1.80040E+04  2.99490E+04 -2.77666E+04  9.86516E+03 -2.10876E+04 -1.01786E+04 -4.63032E+03 -1.33762E+04
  2.03056E+03 -2.66711E+03 -4.81273E+03  6.48044E+03 -1.65067E+04  5.46090E+03 -1.67074E+04 -7.11528E+03
 -9.88587E+03 -1.81457E+04  4.75119E+03 -2.31444E+04  1.50860E+04 -1.61744E+04  1.77889E+04 -2.05033E+03
  1.09607E+04  1.27587E+04 -1.18152E+03  1.83573E+04 -1.28140E+04  1.01842E+04 -1.83824E+04 -3.53070E+03
 -1.38134E+04 -1.65324E+04 -1.41142E+03 -2.25007E+04  1.00176E+04 -1.88935E+04  1.84889E+04 -8.88883E+03
  1.71035E+04 -1.50705E+02  1.20964E+04  4.41204E+03  6.10206E+03  1.27412E+03  9.32063E+03 -1.59251E+03
  1.72357E+04  2.31952E+03  1.92968E+04  1.49139E+04  1.22665E+04  2.94730E+04 -2.88649E+03  3.32094E+04
 -1.91494E+04  2.64887E+04 -3.03855E+04  1.33177E+04 -3.25215E+04 -2.28221E+03 -2.65138E+04 -1.87732E+04
 -1.18980E+04 -2.67074E+04  9.34027E+03 -2.37551E+04  2.06319E+04 -1.26614E+04  1.80621E+04  5.05187E+03
  7.01520E+03  1.38356E+04 -8.67014E+03  1.23601E+04 -1.56527E+04  2.34818E+03 -1.14361E+04 -1.02438E+04
  2.21708E+02 -1.46765E+04  7.89189E+03 -1.12785E+04  1.03476E+04 -1.14849E+03  2.12803E+03  6.94519E+03
 -6.27541E+03  1.87529E+03 -5.59141E+03 -5.88656E+03 -3.69823E+02 -1.31789E+04  9.29350E+03 -1.34717E+04
  1.61571E+04 -6.80164E+03  1.69659E+04  2.96863E+03  1.46702E+04  1.27418E+04  5.93758E+03  1.98778E+04
 -2.57743E+03  2.09217E+04 -1.35481E+04  1.31746E+04 -1.51949E+04  3.41722E+03 -1.05243E+04 -3.05168E+03
 -5.13153E+03 -4.69648E+03 -1.05130E+03  1.17597E+03 -2.21284E+03  2.79443E+03 -4.78771E+03  3.56759E+03
 -9.73258E+03 -4.16442E+02 -9.87567E+03 -8.92025E+03 -4.18868E+03 -1.42048E+04  4.65736E+03 -1.08771E+04
  8.76305E+03 -5.33032E+03  6.46325E+03  2.81293E+03  2.23152E+02  4.19206E+03 -5.10653E+03 -4.21122E+02
 -4.30635E+03 -6.74267E+03 -8.03568E+02 -1.04422E+04  5.63612E+03 -1.07775E+04  1.25886E+04 -5.76313E+03
  1.52889E+04  1.21360E+03  1.12078E+04  8.72452E+03  2.40769E+03  1.19183E+04 -6.45631E+03  1.04657E+04
 -8.48250E+03  3.24794E+03 -5.19443E+03 -2.21298E+03  1.56509E+03 -2.48848E+03  6.09646E+03 -1.23657E+03
  5.13590E+03  4.33679E+03  7.28967E+02  8.52501E+03 -5.82318E+03  7.74831E+03 -1.08573E+04  2.40048E+03
 -7.01390E+03 -4.70714E+03  4.79565E+02 -8.59636E+03  5.47268E+03 -4.41714E+03  5.31986E+03  1.35958E+03
  1.20345E+03  5.79588E+03 -5.04403E+03  7.14444E+03 -7.16573E+03  3.19703E+03 -7.66003E+03 -2.81481E+03
 -4.46380E+03 -8.69201E+03  2.38657E+03 -1.06134E+04  9.19390E+03 -6.47241E+03  8.78528E+03  1.13299E+03
  6.52471E+03  7.72032E+03  1.20411E+02  9.47020E+03 -7.01777E+03  4.98213E+03 -6.99000E+03 -9.17104E+02
 -7.07173E+03 -7.13285E+03 -1.37481E+03 -7.29600E+03  3.55536E+03 -5.97249E+03  3.71415E+03 -2.74472E+03
  3.55275E+03  4.13825E+02 -6.89337E+02  7.13619E+02  4.66488E+02 -1.06700E+03  1.03713E+03 -3.49041E+03
  5.40477E+03 -2.06833E+03  7.93861E+03  1.10330E+03  8.00816E+03  4.98549E+03  6.24264E+03  1.07374E+04
 -2.06375E+03  1.23748E+04 -1.08169E+04  9.39219E+03 -1.44732E+04  2.05321E+03 -1.16698E+04 -4.41293E+03
 -5.76429E+03 -9.30909E+03 -2.65248E+02 -7.98630E+03  3.61780E+03 -4.17064E+03  2.30770E+03 -3.37763E+03
  2.16370E+03 -1.50186E+03  2.89799E+03 -2.71959E+03  4.32811E+03 -1.53725E+03  4.25887E+03  5.54224E+02
  5.58712E+03  1.75990E+03  2.78311E+03  4.69214E+03 -2.48472E+03  4.62084E+03 -6.12596E+03  4.27184E+03
 -6.86335E+03 -9.27091E+02 -3.48844E+03 -5.33289E+03 -2.52152E+02 -7.88829E+03  5.02705E+03 -7.98935E+03
  8.23065E+03 -4.29602E+03  9.70444E+03  1.20679E+03  6.45686E+03  6.57731E+03  1.41800E+03  8.91511E+03
 -3.56544E+03  7.72414E+03 -4.70301E+03  2.42336E+03 -3.04727E+03 -9.32080E+02 -6.17216E+02 -7.95348E+02
 -2.24177E+02  5.27855E+02 -1.23901E+03  1.93424E+03 -3.55750E+03  1.14294E+03 -5.50522E+03  3.57954E+02
 -2.60923E+03 -5.38634E+03  8.96488E+02 -6.73008E+03  3.91000E+03 -6.53284E+03  6.44779E+03 -1.45559E+03
  6.58940E+03  3.36100E+03  3.13808E+03  5.73467E+03 -1.09333E+03  7.06201E+03 -4.42550E+03  4.54072E+03
 -5.80205E+03  8.67203E+01 -4.41242E+03 -3.76350E+03 -5.50832E+02 -5.07829E+03  3.12193E+03 -4.19617E+03
  3.88828E+03 -1.82526E+03  2.47780E+03  6.52846E+02  8.26679E+02  2.07547E+03  9.37835E+02  8.01253E+02
  1.93355E+03 -1.69441E+01  1.63572E+03  1.13984E+03  1.87528E+03  2.80686E+03  1.95255E+03  3.05310E+03
 -1.07817E+03  5.16483E+03 -4.04576E+03  5.90785E+03 -4.70101E+03  1.65293E+03 -6.61629E+03 -1.51810E+03
 -3.41347E+03 -5.68963E+03  1.28537E+03 -7.56209E+03  3.34208E+03 -4.31011E+03  4.71391E+03 -8.79124E+02
  3.91762E+03  2.20514E+03  4.46351E+02  3.34883E+03 -1.16140E+03  2.26653E+03 -2.67297E+03  1.51869E+02
 -8.19545E+02 -2.64584E+03  1.91601E+03 -2.32107E+03  2.60223E+03 -1.36231E+03  2.16239E+03  3.57389E+02
  1.32210E+03  6.66282E+02  8.37344E+02  8.66700E+02 -8.96902E+02  1.03754E+03  2.16464E+03 -1.08250E+01
  6.72438E+02  1.24199E+02  2.36368E+03  7.13931E+02  9.49138E+02  3.47735E+03 -3.91529E+02  4.13639E+03
 -2.33944E+03  1.62097E+03 -3.48900E+03  6.00717E+02 -2.92091E+03 -7.85074E+02 -2.50009E+02 -1.49671E+03
  8.46058E+02 -1.79179E+03  9.43328E+02 -1.39032E+03  1.75538E+03  1.37838E+03 -7.74912E+02  2.11506E+03
 -2.38190E+03  1.26040E+03 -1.99892E+03 -1.34147E+03 -1.17452E+03 -3.55949E+03  1.18725E+03 -2.84751E+03
  8.87018E+02 -1.91786E+03  1.71326E+03  1.47468E+02  2.28677E+03  4.96028E+02  2.48113E+02  1.62676E+03
 -6.06867E+02  7.21992E+02 -1.07639E+03 -5.70131E+02  1.02302E+03 -1.84128E+03  2.93121E+03 -1.39894E+03
  2.44495E+03  4.12137E+02  3.43147E+03  1.77022E+03  1.00045E+03  2.73684E+03 -2.51269E+02  2.39918E+03
 -2.18874E+03  6.33900E+02 -2.11270E+03 -5.04584E+02 -1.17337E+03 -1.68626E+03  7.74851E+02 -7.81509E+02
  1.75983E+03 -1.21867E+03  1.69833E+03  1.13715E+03  3.44216E+02  2.16505E+03 -1.44466E+02  1.03264E+03
 -4.82083E+02  1.69331E+03 -3.94696E+02  8.26126E+02  3.70329E+02  9.58837E+00 -3.22118E+02  8.02482E+02
 -1.29434E+03  1.47442E+03 -2.46042E+03  3.03951E+02 -2.78633E+03 -3.91379E+02 -3.82887E+03 -1.82260E+03
 -2.02359E+03 -3.81741E+03  1.04092E+03 -4.50602E+03  2.06524E+03 -3.50915E+03  4.42723E+03 -1.40884E+03
  3.86004E+03  3.24592E+02  2.64487E+03  2.29983E+03 -1.02582E+01  2.74272E+03 -8.96055E+02  1.58187E+03
 -9.93316E+02  5.91557E+02 -8.09090E+02 -8.20191E+02 -8.07154E+02 -5.16446E+02 -1.22216E+03 -2.27659E+02
 -1.03028E+03 -2.44080E+02 -1.04117E+03 -1.55935E+02  4.23239E+02 -9.81371E+02 -4.62652E+02 -1.52421E+03
  8.81631E+02 -6.27387E+02  1.32135E+03  4.41584E+01  1.85829E+03  1.39092E+03  7.43322E+01  2.88688E+03
 -1.18956E+03  3.62165E+03 -2.81516E+03  2.01758E+03 -3.13663E+03 -1.31877E+02 -1.90081E+03 -2.70587E+03
 -1.09239E+03 -2.89018E+03  6.43052E+02 -2.07390E+03  1.05748E+03 -1.17235E+03  7.64564E+02  2.73279E+02
  1.84284E+03 -1.08569E+02 -1.34840E+02  6.16726E+01 -8.82367E+02  4.58250E+02 -3.21774E+02 -7.76954E+01
  8.78628E+02 -8.93644E+00  2.33845E+02 -7.22594E+01  3.85192E+02  7.20953E+02  3.97029E+02  1.78952E+02
 -1.54148E+03  1.05660E+03 -1.42484E+03  4.72994E+02 -9.71302E+02 -1.14134E+03 -1.62291E+02 -1.46462E+03
  6.42248E+02 -2.08856E+03  1.22882E+03 -5.88104E+02  1.53000E+03 -4.57316E+02  5.75007E+02  1.93609E+03
  2.25404E+02  1.46946E+03 -4.53686E+02  1.00426E+03 -7.65651E+02  1.09954E+03 -6.17820E+02  1.91703E+02
 -2.90485E+02 -4.32795E+02 -7.19389E+02  5.63881E+00 -1.01334E+03  7.77858E+02 -1.41584E+03 -8.14031E+02
 -1.27948E+03 -1.14929E+02 -4.07981E+02 -1.85796E+03  1.23127E+03 -2.13062E+03  1.07750E+03 -1.44902E+03
  1.51535E+03  5.11400E+02 -3.69680E+01  8.85070E+02 -2.24249E+02  1.19249E+03 -5.45423E+02  9.30166E+02
