 $NMID ID='MM_0lb_SNR400_19hz_g55_94.RAW', FMTDAT='(8E13.5)'
 TRAMP=1., VOLUME=1. $END
  3.09713E+05  1.53873E+02  3.37355E+05  2.50631E+05  8.41105E+04  3.38107E+05 -1.32788E+05  2.50125E+05
 -1.90168E+05  8.29339E+04 -1.11252E+05 -3.23707E+04  1.23710E+03 -5.00387E+04  5.35925E+04 -2.23953E+02
  3.57658E+04  5.29025E+04 -1.68330E+04  7.50768E+04 -6.04629E+04  6.24163E+04 -8.31533E+04  3.15139E+04
 -8.02488E+04 -1.06492E+04 -5.70814E+04 -5.06838E+04 -1.51524E+04 -6.81941E+04  2.67428E+04 -4.55258E+04
  3.98321E+04  3.96536E+03  1.58296E+04  4.75737E+04 -3.44841E+04  4.70174E+04 -6.60061E+04 -3.83985E+02
 -5.26299E+04 -5.62102E+04 -7.31774E+03 -7.56477E+04  3.33230E+04 -5.42900E+04  4.70270E+04 -1.63651E+04
  4.21032E+04  1.13087E+04  3.12385E+04  2.50309E+04  1.54987E+04  2.84670E+04 -4.74214E+03  2.70129E+04
 -2.19828E+04  1.23613E+04 -1.81985E+04 -4.56657E+03  4.50668E+03 -7.44236E+03  2.15115E+04  1.13202E+04
  7.50488E+03  3.36338E+04 -3.13075E+04  3.43301E+04 -6.09745E+04  2.35125E+03 -5.59279E+04 -4.16029E+04
 -1.27257E+04 -6.12792E+04  3.86048E+04 -4.38331E+04  5.64856E+04 -2.21899E+03  3.22545E+04  3.02456E+04
 -6.44778E+03  3.37456E+04 -2.83165E+04  1.40511E+04 -2.84104E+04 -5.38899E+03 -1.56834E+04 -1.00456E+04
 -7.43861E+03 -1.20024E+04 -7.33901E+02 -1.68224E+04  6.84689E+03 -2.28382E+04  1.53759E+04 -1.37514E+04
  1.20932E+04  4.61271E+03 -6.49431E+03  1.28947E+04 -1.97955E+04 -3.34031E+03 -7.95921E+03 -3.16851E+04
  2.13144E+04 -4.11030E+04  4.50576E+04 -1.92150E+04  4.32044E+04  1.86141E+04  1.42563E+04  4.19524E+04
 -1.51216E+04  3.13159E+04 -2.40083E+04  8.74070E+02 -8.68372E+03 -2.66199E+04  2.06520E+04 -3.23433E+04
  3.84862E+04 -8.20025E+03  3.16882E+04  2.28523E+04  1.59297E+04  4.34721E+04 -7.37023E+03  4.61427E+04
 -2.88803E+04  3.08848E+04 -3.82303E+04  8.56369E+03 -3.95941E+04 -1.52211E+04 -2.17401E+04 -3.50577E+04
  7.23044E+03 -3.54296E+04  2.98067E+04 -1.34050E+04  2.73949E+04  1.05400E+04  3.31134E+03  1.80773E+04
 -1.29676E+04  7.22314E+03 -9.90258E+03 -7.99792E+03  6.81322E+03 -1.04599E+04  1.71825E+04  5.98265E+03
  1.27391E+04  2.17781E+04 -6.65881E+03  2.37450E+04 -2.10166E+04  9.33830E+03 -2.53526E+04 -6.22838E+03
 -1.80929E+04 -1.67316E+04 -5.62000E+03 -1.68364E+04  3.85027E+03 -1.56093E+04  1.31107E+04 -1.47684E+04
  2.20856E+04 -1.22325E+04  2.91096E+04  1.01404E+03  2.15222E+04  1.65259E+04  4.15333E+03  3.35184E+04
 -1.65239E+04  2.80139E+04 -2.63769E+04  9.84886E+03 -1.99435E+04 -1.04163E+04 -3.69204E+03 -1.34930E+04
  2.33883E+03 -4.29556E+03 -3.06615E+03  5.94150E+03 -1.33734E+04  4.95085E+03 -1.37182E+04 -5.20192E+03
 -8.81314E+03 -1.60102E+04  4.30935E+03 -1.99128E+04  1.30826E+04 -1.38262E+04  1.49512E+04 -1.46255E+03
  9.08408E+03  1.14353E+04 -7.07911E+02  1.60367E+04 -1.05890E+04  9.00309E+03 -1.55644E+04 -3.41258E+03
 -1.18094E+04 -1.42073E+04 -1.24862E+03 -1.92413E+04  8.67950E+03 -1.52460E+04  1.67286E+04 -7.00464E+03
  1.49054E+04  2.95550E+02  1.10113E+04  4.14956E+03  5.25396E+03  6.47872E+02  7.47936E+03 -1.36545E+03
  1.38680E+04  2.14807E+03  1.53469E+04  1.31079E+04  9.07841E+03  2.52678E+04 -3.43618E+03  2.73397E+04
 -1.58663E+04  2.10090E+04 -2.53317E+04  1.08611E+04 -2.54169E+04 -2.22368E+03 -2.13236E+04 -1.49207E+04
 -1.01102E+04 -2.11308E+04  6.65315E+03 -1.92709E+04  1.71257E+04 -1.15800E+04  1.61407E+04  4.04993E+03
  6.75086E+03  1.18265E+04 -7.27718E+03  1.00295E+04 -1.35082E+04  2.09945E+03 -1.09904E+04 -8.21723E+03
 -1.24911E+02 -1.25608E+04  6.76257E+03 -9.44883E+03  7.73066E+03 -8.12511E+02  1.39618E+03  5.53821E+03
 -5.68828E+03  1.37484E+03 -3.92830E+03 -4.43466E+03  7.87470E+02 -1.07567E+04  8.26533E+03 -1.05061E+04
  1.25475E+04 -4.67223E+03  1.22550E+04  2.96964E+03  1.03338E+04  9.83473E+03  5.27721E+03  1.39561E+04
 -1.31084E+03  1.62552E+04 -9.08084E+03  1.06629E+04 -1.16775E+04  2.28181E+03 -8.29906E+03 -2.01731E+03
 -4.85549E+03 -3.51483E+03 -1.60994E+03  1.20722E+03 -2.06380E+03  2.43499E+03 -3.98803E+03  3.06365E+03
 -8.11197E+03 -9.25002E+02 -9.15770E+03 -7.32248E+03 -3.20704E+03 -1.16194E+04  4.00048E+03 -8.50606E+03
  7.48805E+03 -3.87479E+03  4.63332E+03  2.23901E+03  4.61428E+02  3.12358E+03 -3.28196E+03 -3.28670E+02
 -3.16433E+03 -5.67701E+03 -8.14717E+02 -7.46641E+03  4.09425E+03 -7.77980E+03  1.02412E+04 -4.10939E+03
  1.15539E+04  4.75194E+02  8.91982E+03  6.05403E+03  2.30569E+03  8.81492E+03 -4.83277E+03  8.49906E+03
 -7.43539E+03  3.13944E+03 -3.30717E+03 -1.45683E+03  9.49356E+02 -1.79801E+03  4.53781E+03 -1.14161E+03
  4.24767E+03  3.57444E+03  8.46977E+02  6.32619E+03 -4.11981E+03  6.76879E+03 -8.56188E+03  2.20937E+03
 -5.05925E+03 -3.93235E+03  7.90543E+02 -6.09289E+03  3.68570E+03 -3.25989E+03  3.73179E+03  1.22168E+03
  1.93934E+02  3.24508E+03 -3.66980E+03  4.93838E+03 -5.02394E+03  2.92548E+03 -4.73303E+03 -1.68066E+03
 -2.46586E+03 -5.90091E+03  1.80061E+03 -6.57408E+03  6.15072E+03 -4.84230E+03  6.25327E+03  3.85437E+02
  4.90905E+03  5.30882E+03  5.39301E+02  7.48290E+03 -4.43286E+03  4.42508E+03 -5.12311E+03 -4.63468E+02
 -6.04348E+03 -4.77393E+03 -1.82378E+03 -5.20621E+03  2.48739E+03 -4.69153E+03  3.23938E+03 -3.49639E+03
  3.08872E+03  3.11339E+02  2.11282E+02  1.51098E+03  6.47357E+02  5.06654E+01  2.20749E+02 -1.85116E+03
  3.66364E+03  1.44357E+02  5.26057E+03  4.92360E+02  5.62079E+03  2.69160E+03  5.04240E+03  7.07256E+03
 -5.93749E+02  8.32988E+03 -7.27409E+03  6.29111E+03 -9.71786E+03  1.67614E+03 -7.75163E+03 -2.67462E+03
 -3.98472E+03 -6.59065E+03  3.27732E+02 -5.12808E+03  1.93345E+03 -1.86789E+03  1.70167E+03 -2.35500E+03
  1.03476E+03 -1.34596E+03  2.27266E+03 -2.12550E+03  3.29481E+03 -1.72083E+03  3.26127E+03  7.50395E+02
  4.87565E+03  1.55401E+03  1.17340E+03  3.47598E+03 -8.27058E+02  2.87759E+03 -3.99566E+03  2.85147E+03
 -4.84072E+03 -9.06684E+02 -1.21115E+03 -3.28751E+03  6.21667E+02 -4.75277E+03  2.51965E+03 -4.68688E+03
  5.35227E+03 -3.12132E+03  6.85396E+03  6.62326E+02  4.97214E+03  4.70574E+03  8.89689E+02  5.69963E+03
 -1.46918E+03  6.25024E+03 -3.18513E+03  2.16496E+03 -2.53440E+03 -1.15003E+03 -1.16210E+03 -2.42604E+02
 -5.35361E+02  1.45671E+02 -9.29524E+02  2.04139E+03 -2.34729E+03  1.21558E+03 -4.40330E+03 -9.89060E+02
 -1.93260E+03 -3.90069E+03  8.06174E+02 -4.72697E+03  2.58207E+03 -4.31226E+03  4.09050E+03 -8.33634E+02
  3.60583E+03  2.07072E+03  1.78864E+03  3.54331E+03 -7.74315E+02  4.05172E+03 -2.72573E+03  2.54996E+03
 -3.68048E+03  9.00708E+02 -3.26414E+03 -2.21739E+03  9.92960E+01 -2.82155E+03  1.63836E+03 -2.81986E+03
  2.57132E+03 -2.10235E+03  1.38879E+03  6.46323E+02  4.82869E+02  1.15174E+03  6.08619E+02  3.98039E+02
  1.65827E+03  7.18870E+02  1.29982E+03  1.08166E+03  1.58502E+03  2.14954E+03  1.66825E+03  1.70653E+03
 -1.31767E+03  2.31872E+03 -2.34940E+03  3.40966E+03 -2.52077E+03  1.18239E+03 -4.32356E+03 -4.03382E+02
 -1.11721E+03 -3.26550E+03  7.11850E+02 -4.84655E+03  1.82136E+03 -2.25108E+03  2.67891E+03 -1.19154E+03
  1.92873E+03  1.20413E+03  2.07341E+02  1.78780E+03 -5.59501E+02  1.12451E+03 -1.15575E+03  1.34343E+02
 -5.75861E+02 -1.51316E+03  1.11189E+03 -1.11827E+03  1.75216E+03 -1.04875E+03  1.57227E+03  9.47993E+02
  3.88422E+02  1.01154E+02  9.52276E+02  2.87612E+02 -3.95937E+02  1.34226E+02  1.74516E+03 -7.89856E+01
  3.13860E+02 -1.20150E+02  2.04963E+03  6.61459E+02 -9.10059E+01  2.60613E+03 -7.86877E+02  2.89753E+03
 -8.13107E+02  4.22688E+02 -1.72863E+03  5.96776E+02 -2.03732E+03 -1.16914E+03  2.30799E+02  1.00834E+02
  8.81195E+02 -8.08119E+02  9.87358E+02 -6.33336E+02  2.56468E+02  1.50108E+03 -6.42913E+02  5.15117E+02
 -1.48634E+03  3.97053E+02 -1.32482E+03 -1.02585E+03 -5.38972E+02 -1.89993E+03 -3.18480E+02 -1.31718E+03
  2.99638E+02 -4.81266E+01  1.94166E+02  5.44063E+02  1.78671E+03 -3.51277E+01 -1.21678E+02  1.20313E+03
 -5.47070E+02 -6.73862E+01 -6.03923E+02  2.51700E+01  8.38520E+02 -8.36727E+02  1.26168E+03 -6.15190E+02
  1.23489E+03  4.82373E+02  2.14816E+03  1.17842E+02  9.81758E+02  1.06921E+03  8.46464E+01  2.07911E+03
 -7.88895E+02  1.08950E+02 -1.06271E+03 -2.41900E+02 -4.26135E+02 -7.20043E+02  5.96320E+02 -4.88848E+02
  1.03919E+03 -1.60465E+02  6.91438E+02  6.12759E+02  1.38239E+02  7.39509E+02  3.65511E+02  9.49155E+02
 -4.15638E+02  9.30592E+02 -4.88024E+02  4.13460E+02 -1.59756E+02  1.15561E+02 -3.50457E+02 -6.84576E+01
 -5.07697E+02  6.69633E+02 -9.57659E+02  1.13646E+02 -1.55639E+03  4.51567E+02 -2.45194E+03 -5.17269E+02
 -1.20072E+03 -2.53743E+03  5.51091E+02 -2.57455E+03  1.06202E+03 -2.38085E+03  2.57476E+03 -9.37880E+02
  2.35681E+03 -2.49319E+02  9.26394E+02  1.35299E+03 -5.89557E+02  1.43806E+03 -9.77475E+02  1.10787E+03
 -7.69060E+02  5.06341E+02  4.56201E+01  1.12430E+02 -4.83750E+02  3.50323E+02 -3.39971E+02 -3.47776E+02
 -1.33210E+03 -4.39881E+02 -3.91508E+02  3.53883E+00  2.64761E+02 -3.11097E+02 -1.22443E+02 -7.32644E+02
  1.16780E+03 -4.30847E+02  3.79960E+02  5.93504E+02  1.37116E+03  1.47582E+03 -9.01145E+02  6.26308E+02
 -8.12574E+02  2.28971E+03 -1.12786E+03  1.41282E+03 -1.83479E+03  2.29005E+02 -1.92676E+02 -1.12030E+03
 -5.31535E+02 -1.11096E+03  6.44906E+02 -1.11498E+03  1.08824E+03 -3.33110E+02  7.06233E+02  5.69497E+02
  6.75771E+02  4.24012E+02  4.85238E+02  1.61107E+02 -3.80234E+02  8.22187E+01  1.21711E+02 -1.28144E+02
 -3.30669E+02 -3.01599E+02  3.11943E+02  5.57692E+02  5.42482E+01  1.20107E+02  2.25003E+02 -1.19299E+02
 -4.77037E+02  2.71284E+02 -6.83718E+02  5.10670E+02 -8.82255E+02 -6.30867E+02  1.76130E+02 -1.18840E+03
  5.14803E+02 -5.78998E+02  6.19291E+02 -9.65639E+01  8.86141E+02 -1.05985E+03  3.92455E+02  3.49362E+02
  2.75098E+02  9.74466E+02 -2.56563E+02  1.89498E+01 -1.13855E+03  3.75958E+02 -5.98436E+02  4.84540E+02
 -4.04068E+02 -2.24331E+02 -5.72071E+02  1.14415E+02 -6.49357E+02  3.55250E+02 -3.73286E+02 -3.79397E+02
 -7.66889E+02  3.84932E+02 -4.18177E+02 -1.02901E+03  1.05203E+03 -1.82121E+03  8.45706E+02 -5.83906E+02
  5.49876E+02 -1.19783E+02  6.43092E+01  3.60153E+02 -4.21517E+02  1.06050E+03  5.72857E+01  3.91316E+02
