 $NMID ID='MM_0lb_SNR400_15hz_g55_72.RAW', FMTDAT='(8E13.5)'
 TRAMP=1., VOLUME=1. $END
  3.09448E+05  4.44994E+02  3.37865E+05  2.50226E+05  8.46603E+04  3.38174E+05 -1.32981E+05  2.51375E+05
 -1.90933E+05  8.31300E+04 -1.11305E+05 -3.28613E+04  4.32468E+02 -5.09342E+04  5.31363E+04 -5.87904E+02
  3.55644E+04  5.27468E+04 -1.70639E+04  7.54457E+04 -6.07202E+04  6.35038E+04 -8.40871E+04  3.25439E+04
 -8.10320E+04 -1.10829E+04 -5.76755E+04 -5.16946E+04 -1.53864E+04 -6.88233E+04  2.71881E+04 -4.58625E+04
  4.02096E+04  3.50926E+03  1.60827E+04  4.74766E+04 -3.49820E+04  4.73250E+04 -6.65955E+04  1.39339E+02
 -5.29034E+04 -5.68808E+04 -6.99942E+03 -7.75855E+04  3.37149E+04 -5.55053E+04  4.78068E+04 -1.73587E+04
  4.34586E+04  1.13589E+04  3.12867E+04  2.53356E+04  1.56490E+04  2.98695E+04 -4.67603E+03  2.70013E+04
 -2.16105E+04  1.21113E+04 -1.83347E+04 -4.92228E+03  5.78023E+03 -7.58500E+03  2.19630E+04  1.27522E+04
  7.35797E+03  3.59634E+04 -3.20813E+04  3.53253E+04 -6.31258E+04  2.02762E+03 -5.74577E+04 -4.27487E+04
 -1.22057E+04 -6.36712E+04  3.91268E+04 -4.54431E+04  5.78378E+04 -2.73926E+03  3.49003E+04  3.26231E+04
 -6.08532E+03  3.58089E+04 -3.03335E+04  1.59395E+04 -2.98530E+04 -4.29024E+03 -1.68797E+04 -1.11807E+04
 -8.69587E+03 -1.29797E+04 -8.79685E+02 -1.89764E+04  6.90735E+03 -2.27193E+04  1.55195E+04 -1.29588E+04
  1.13048E+04  4.97857E+03 -8.25802E+03  1.31380E+04 -2.10456E+04 -3.43231E+03 -7.90047E+03 -3.39834E+04
  2.32198E+04 -4.36542E+04  4.83140E+04 -1.95032E+04  4.47864E+04  1.92346E+04  1.58897E+04  4.43600E+04
 -1.61382E+04  3.42745E+04 -2.53131E+04  1.91176E+03 -1.04841E+04 -2.78307E+04  2.08250E+04 -3.41067E+04
  4.13976E+04 -9.19270E+03  3.51904E+04  2.40838E+04  1.80189E+04  4.65855E+04 -7.79123E+03  5.04606E+04
 -3.11133E+04  3.35780E+04 -4.17553E+04  9.67585E+03 -4.27851E+04 -1.69049E+04 -2.35990E+04 -3.78442E+04
  7.22581E+03 -3.76713E+04  3.16983E+04 -1.49855E+04  2.93148E+04  1.10867E+04  4.04433E+03  1.87847E+04
 -1.36865E+04  8.38286E+03 -1.02546E+04 -7.52629E+03  6.08629E+03 -1.04773E+04  1.85195E+04  5.69482E+03
  1.36543E+04  2.24018E+04 -6.33196E+03  2.49327E+04 -2.15461E+04  1.12732E+04 -2.79115E+04 -4.26059E+03
 -2.05262E+04 -1.77060E+04 -8.75272E+03 -2.05222E+04  3.61315E+03 -1.99274E+04  1.58071E+04 -1.80463E+04
  2.60607E+04 -1.21739E+04  3.21337E+04  2.39790E+03  2.41884E+04  1.99133E+04  4.51123E+03  3.64806E+04
 -1.75246E+04  3.07601E+04 -2.76644E+04  1.06929E+04 -2.16985E+04 -1.09351E+04 -4.59609E+03 -1.35800E+04
  2.04897E+03 -3.23280E+03 -4.65254E+03  6.16095E+03 -1.58518E+04  5.56099E+03 -1.58770E+04 -6.62379E+03
 -1.00842E+04 -1.93524E+04  5.13613E+03 -2.24461E+04  1.48332E+04 -1.72018E+04  1.79295E+04 -1.59877E+03
  1.12369E+04  1.36312E+04 -5.15908E+02  1.85224E+04 -1.33010E+04  1.06673E+04 -1.87380E+04 -4.03895E+03
 -1.34994E+04 -1.70834E+04 -2.20228E+03 -2.18106E+04  9.82558E+03 -1.94820E+04  1.86663E+04 -9.29832E+03
  1.78797E+04 -4.12338E+02  1.23854E+04  4.71355E+03  6.99337E+03  1.44178E+03  9.93978E+03 -1.69388E+03
  1.69650E+04  2.24921E+03  1.90203E+04  1.47726E+04  1.18516E+04  3.01102E+04 -2.49916E+03  3.38881E+04
 -2.00824E+04  2.70508E+04 -3.14322E+04  1.43212E+04 -3.20992E+04 -2.02217E+03 -2.78481E+04 -1.89769E+04
 -1.13921E+04 -2.66689E+04  8.99014E+03 -2.39501E+04  2.14161E+04 -1.23169E+04  1.90123E+04  4.96679E+03
  7.34518E+03  1.43032E+04 -8.94061E+03  1.25897E+04 -1.62305E+04  2.64240E+03 -1.20631E+04 -1.06416E+04
 -4.07643E+02 -1.55280E+04  7.66953E+03 -1.13571E+04  9.67049E+03 -1.87511E+03  2.08410E+03  6.34892E+03
 -6.49222E+03  2.26637E+03 -5.64789E+03 -5.51577E+03 -3.07629E+02 -1.31305E+04  9.71891E+03 -1.41800E+04
  1.66209E+04 -7.02557E+03  1.74399E+04  2.61193E+03  1.53890E+04  1.25568E+04  7.30082E+03  1.99429E+04
 -3.09455E+03  2.18459E+04 -1.42496E+04  1.43717E+04 -1.57244E+04  3.29941E+03 -1.16253E+04 -2.79212E+03
 -5.48738E+03 -4.60357E+03 -5.70958E+02  9.28015E+02 -1.94273E+03  2.68087E+03 -5.24285E+03  4.72058E+03
 -1.06865E+04 -4.96306E+02 -1.03824E+04 -8.59512E+03 -3.98278E+03 -1.42178E+04  4.08420E+03 -1.14565E+04
  9.67120E+03 -4.49780E+03  6.46762E+03  2.24282E+03 -2.20827E+01  4.34357E+03 -4.79514E+03  1.11917E+02
 -5.30552E+03 -6.90752E+03 -6.70180E+02 -1.01385E+04  6.04466E+03 -1.03992E+04  1.34592E+04 -5.46225E+03
  1.54932E+04  8.71878E+02  1.16726E+04  9.28570E+03  2.24500E+03  1.25186E+04 -6.50019E+03  1.06544E+04
 -9.28760E+03  3.62520E+03 -4.37653E+03 -1.32731E+03  1.60650E+03 -3.14966E+03  6.40446E+03 -4.65735E+02
  5.46044E+03  4.64817E+03  7.08605E+02  8.43093E+03 -6.42417E+03  8.25280E+03 -1.06653E+04  2.58480E+03
 -7.09595E+03 -5.53929E+03  2.60732E+02 -8.84073E+03  5.82711E+03 -4.70215E+03  5.05987E+03  1.33101E+03
  1.75311E+03  5.70597E+03 -5.62673E+03  6.80162E+03 -7.66650E+03  3.63876E+03 -7.72400E+03 -2.37822E+03
 -4.58299E+03 -9.36079E+03  2.17327E+03 -1.03636E+04  9.26405E+03 -6.75708E+03  1.02740E+04  2.11701E+03
  6.43040E+03  8.02620E+03 -8.00185E+02  1.03249E+04 -7.06378E+03  5.30322E+03 -7.66434E+03 -1.13395E+03
 -7.79241E+03 -7.06220E+03 -1.81893E+03 -7.44582E+03  3.77212E+03 -6.06274E+03  5.08588E+03 -3.20425E+03
  3.98385E+03  1.13907E+03 -7.70810E+02  1.62133E+03  5.87401E+01 -1.61451E+03  7.09591E+02 -3.56394E+03
  6.56973E+03 -1.83767E+03  9.30361E+03  1.53652E+03  8.17518E+03  5.28151E+03  6.62489E+03  1.13626E+04
 -2.91054E+03  1.42513E+04 -1.11855E+04  1.03074E+04 -1.49530E+04  2.29877E+03 -1.20926E+04 -4.58349E+03
 -6.14980E+03 -9.72843E+03 -5.18332E+02 -8.34848E+03  3.07348E+03 -4.58952E+03  2.50170E+03 -2.70353E+03
  1.76536E+03 -2.32008E+03  3.09438E+03 -2.41655E+03  4.18912E+03 -1.88703E+03  5.31864E+03 -2.98328E+02
  5.78531E+03  1.15830E+03  2.82601E+03  5.69222E+03 -2.28660E+03  5.36100E+03 -6.67048E+03  4.78540E+03
 -8.14493E+03 -1.00593E+03 -3.89496E+03 -5.16141E+03  6.92700E+02 -8.39112E+03  5.19965E+03 -8.32582E+03
  7.99377E+03 -4.55538E+03  1.05486E+04  9.13223E+02  7.36937E+03  6.83485E+03  1.62373E+03  9.31975E+03
 -3.78067E+03  8.46816E+03 -5.94815E+03  2.75019E+03 -3.94027E+03 -7.92585E+02 -1.73597E+03 -9.00204E+02
 -3.30891E+02  6.46226E+02 -1.24270E+03  1.75074E+03 -3.66832E+03  1.26091E+03 -5.81923E+03 -8.22574E+02
 -3.22041E+03 -5.18409E+03  8.04424E+02 -7.88590E+03  4.85901E+03 -6.74644E+03  6.77466E+03 -2.37490E+03
  6.86283E+03  3.56259E+03  3.53432E+03  6.20852E+03 -8.73805E+02  7.18430E+03 -4.82468E+03  4.88924E+03
 -6.73320E+03  7.06106E+02 -5.94385E+03 -4.52930E+03 -3.61905E+02 -5.86737E+03  2.60475E+03 -4.60777E+03
  4.78814E+03 -1.55348E+03  2.64001E+03  1.22777E+03  8.16292E+02  2.52616E+03  1.09037E+03  1.14776E+03
  2.22908E+03  1.14158E+03  1.44315E+03  1.14300E+03  1.72598E+03  2.68283E+03  1.96102E+03  3.59914E+03
 -1.70378E+03  4.79428E+03 -4.20341E+03  6.07529E+03 -6.42504E+03  2.07504E+03 -7.58613E+03 -2.02168E+03
 -3.02889E+03 -6.32333E+03  9.88863E+02 -7.64276E+03  4.02870E+03 -4.19497E+03  5.35780E+03 -1.15922E+03
  4.23832E+03  3.09584E+03  4.77162E+02  3.62691E+03 -1.78124E+03  2.76267E+03 -3.30028E+03 -8.38318E+00
 -7.26044E+02 -2.70628E+03  1.45968E+03 -3.05630E+03  2.49643E+03 -1.34211E+03  2.40109E+03  1.36462E+03
  2.04282E+03  4.38876E+02  5.82338E+02  9.14565E+02  4.52125E+02  4.96312E+02  1.78115E+03 -5.46921E+02
  3.79542E+02 -4.69679E+02  2.71984E+03  1.40681E+03  1.46428E+03  3.64999E+03 -8.62860E+02  5.12602E+03
 -2.89957E+03  2.35948E+03 -3.46755E+03  5.51727E+02 -3.51567E+03 -1.75395E+03 -7.34377E+02 -1.87953E+03
  2.91490E+02 -2.92591E+03  1.59573E+03 -1.09944E+03  1.25798E+03  1.57170E+03 -1.11738E+03  2.06322E+03
 -2.74104E+03  1.24266E+03 -2.16481E+03 -1.89576E+03 -1.60141E+03 -3.09337E+03  8.36851E+02 -2.79544E+03
  1.44161E+03 -1.64120E+03  1.84667E+03 -1.54727E+02  1.97658E+03  2.83088E+02  4.43745E+02  1.63812E+03
 -6.01151E+02  7.82492E+02 -2.05193E+03 -1.14064E+03  7.78327E+02 -2.38048E+03  2.96649E+03 -1.94642E+03
  3.37789E+03  4.05193E+02  3.74582E+03  2.26944E+03  1.94345E+03  3.43680E+03 -8.06941E+02  2.90660E+03
 -2.74182E+03  1.35249E+03 -2.98410E+03 -1.03476E+03 -2.04913E+03 -2.49401E+03  6.78552E+02 -1.52541E+03
  2.40382E+03 -1.72346E+03  1.95311E+03  8.70498E+02  2.61246E+02  2.87639E+03  1.24599E+01  2.24723E+03
 -3.79261E+02  1.81068E+03 -1.22459E+03  9.66745E+02 -3.34752E+02  1.27883E+03 -1.13715E+03  4.39426E+02
 -9.19756E+02  2.51548E+03 -3.60517E+03  1.03365E+03 -3.27268E+03  4.47940E+02 -4.61208E+03 -2.53564E+03
 -2.14006E+03 -4.77302E+03  1.24712E+03 -5.87668E+03  3.11477E+03 -4.46055E+03  5.03238E+03 -1.73380E+03
  4.64689E+03  6.26584E+01  2.58486E+03  3.00760E+03 -1.10947E+01  3.66781E+03 -1.22806E+03  2.86632E+03
 -2.20845E+03  7.20140E+02 -1.22562E+03 -1.69314E+02 -9.82551E+02  4.73024E+01 -1.55552E+03  1.06481E+02
 -1.00306E+03  5.35802E+02 -1.19793E+03 -2.21892E+02 -2.63254E+01 -5.01829E+02  1.48576E+01 -1.09532E+03
  1.57272E+03 -1.32802E+03  1.65483E+03  4.12347E+02  1.91011E+03  1.85570E+03  6.04358E+02  3.08572E+03
 -1.17165E+03  4.25513E+03 -3.72915E+03  2.32538E+03 -3.48922E+03 -3.75874E+02 -3.28225E+03 -2.36847E+03
 -1.35539E+03 -3.57026E+03  7.79457E+02 -2.62215E+03  1.54934E+03 -1.91604E+03  1.39370E+03  4.50543E+02
  9.71742E+02  9.74456E+02  3.13268E+02  9.63671E+02 -1.11355E+03 -5.88815E+02  2.40606E+02 -5.97773E+02
  8.47273E+02 -1.07990E+02  1.35361E+03  3.40207E+02  1.79812E+02  1.74792E+03 -6.56408E+01  1.71206E+03
 -1.00572E+03  1.35144E+03 -1.46388E+03 -3.19815E+02 -1.39064E+03 -1.37209E+03  1.27459E+02 -2.60034E+03
  1.27580E+03 -2.19014E+03  1.71929E+03 -1.03479E+03  2.06046E+03 -5.34399E+02  1.05254E+03  2.02324E+03
  6.76030E+02  1.64892E+03 -4.20251E+02  1.66004E+03 -1.06395E+03  8.37415E+02 -7.58937E+02  2.82160E+02
 -4.98750E+02  1.95061E+02 -8.69854E+02 -2.07275E+02 -1.64413E+03  6.52730E+01 -1.40377E+03 -5.91135E+02
 -1.85573E+03 -5.93513E+02 -1.07219E+03 -1.79625E+03  1.66958E+03 -2.59562E+03  1.59276E+03 -1.16786E+03
  1.81673E+03 -2.90686E+02  7.76652E+02  9.09237E+02 -6.71259E+01  1.94036E+03 -1.09502E+03  1.57631E+03
