 $NMID ID='MM_0lb_SNR400_8hz_g60_86.RAW', FMTDAT='(8E13.5)'
 TRAMP=1., VOLUME=1. $END
  3.10295E+05 -9.60997E+00  3.37665E+05  2.50309E+05  8.58439E+04  3.38086E+05 -1.31636E+05  2.51960E+05
 -1.91097E+05  8.40342E+04 -1.12633E+05 -3.21171E+04  8.25926E+01 -5.14326E+04  5.32681E+04 -9.73050E+02
  3.59157E+04  5.38635E+04 -1.64853E+04  7.58065E+04 -6.16826E+04  6.48951E+04 -8.68363E+04  3.33414E+04
 -8.31738E+04 -1.23148E+04 -5.86738E+04 -5.24225E+04 -1.48648E+04 -7.13244E+04  2.81542E+04 -4.73163E+04
  4.11098E+04  4.25777E+03  1.71937E+04  4.86548E+04 -3.51959E+04  4.90455E+04 -6.85423E+04  8.10864E+01
 -5.66824E+04 -5.80865E+04 -7.65917E+03 -7.94757E+04  3.59482E+04 -5.81205E+04  5.12283E+04 -1.87919E+04
  4.68670E+04  1.18255E+04  3.37821E+04  2.78283E+04  1.62296E+04  3.11039E+04 -5.71730E+03  2.69608E+04
 -2.24757E+04  1.14450E+04 -1.79380E+04 -6.21266E+03  8.03889E+03 -7.70970E+03  2.41271E+04  1.49451E+04
  7.47845E+03  3.89250E+04 -3.53816E+04  3.75718E+04 -6.68394E+04  2.32613E+03 -5.97325E+04 -4.52321E+04
 -1.20634E+04 -6.65917E+04  4.24218E+04 -4.87146E+04  6.26831E+04 -2.14308E+03  3.75893E+04  3.59129E+04
 -5.79604E+03  4.07090E+04 -3.22874E+04  1.99065E+04 -3.53022E+04 -2.35515E+03 -2.02626E+04 -1.25769E+04
 -1.03282E+04 -1.62313E+04 -2.69282E+02 -2.05861E+04  8.89638E+03 -2.35552E+04  1.67268E+04 -1.22376E+04
  9.83050E+03  6.59446E+03 -1.19806E+04  1.29802E+04 -2.39437E+04 -7.00816E+03 -9.35273E+03 -3.89311E+04
  2.58564E+04 -4.76038E+04  5.38776E+04 -2.05589E+04  5.03096E+04  2.18216E+04  1.83588E+04  4.88136E+04
 -1.73686E+04  3.70459E+04 -2.84655E+04  2.73318E+03 -1.24159E+04 -3.07815E+04  2.19868E+04 -3.86079E+04
  4.67203E+04 -1.09574E+04  4.21135E+04  2.61491E+04  2.23791E+04  5.27376E+04 -8.00969E+03  5.79058E+04
 -3.77142E+04  3.97790E+04 -5.01387E+04  1.14456E+04 -4.94605E+04 -1.99985E+04 -2.80933E+04 -4.29351E+04
  7.75654E+03 -4.39978E+04  3.55644E+04 -1.78467E+04  3.30882E+04  1.18098E+04  5.76322E+03  2.06577E+04
 -1.38628E+04  1.09205E+04 -1.14744E+04 -7.23002E+03  6.29175E+03 -1.17469E+04  1.93306E+04  5.44754E+03
  1.52704E+04  2.19525E+04 -5.17989E+03  2.80459E+04 -2.39267E+04  1.46893E+04 -3.23238E+04 -3.20734E+03
 -2.71404E+04 -1.86002E+04 -1.30853E+04 -2.60569E+04  5.44747E+03 -2.79346E+04  2.13923E+04 -2.55705E+04
  3.52033E+04 -1.43332E+04  4.09782E+04  6.28450E+03  2.87295E+04  2.59019E+04  5.69865E+03  4.32990E+04
 -2.08134E+04  3.56272E+04 -3.07263E+04  1.16469E+04 -2.32263E+04 -1.01137E+04 -5.16191E+03 -1.32378E+04
  1.77345E+03 -1.58322E+02 -8.59748E+03  8.22808E+03 -2.24725E+04  5.12329E+03 -2.19271E+04 -1.10761E+04
 -1.19907E+04 -2.46089E+04  5.85652E+03 -3.01287E+04  2.02352E+04 -2.16657E+04  2.41885E+04 -2.28975E+03
  1.62759E+04  1.76087E+04 -2.18415E+03  2.43542E+04 -1.72992E+04  1.46036E+04 -2.56144E+04 -4.36713E+03
 -1.84222E+04 -2.18537E+04 -2.57093E+03 -2.98295E+04  1.28021E+04 -2.49848E+04  2.38053E+04 -1.29966E+04
  2.38337E+04 -5.34111E+02  1.74116E+04  5.85587E+03  8.96803E+03  1.72486E+03  1.25802E+04 -1.54552E+03
  2.46001E+04  2.71234E+03  2.80897E+04  1.89691E+04  2.06158E+04  4.07373E+04 -2.33295E+03  4.81834E+04
 -2.78938E+04  4.07939E+04 -4.58449E+04  2.20957E+04 -5.03178E+04 -3.93138E+03 -3.89077E+04 -2.91689E+04
 -1.56372E+04 -4.10756E+04  1.43961E+04 -3.64753E+04  3.06893E+04 -1.64268E+04  2.66165E+04  8.29664E+03
  8.47009E+03  2.05943E+04 -1.28209E+04  1.78898E+04 -2.21788E+04  1.72438E+03 -1.62441E+04 -1.34833E+04
 -1.49364E+03 -2.11466E+04  1.15471E+04 -1.61492E+04  1.39633E+04 -2.05760E+03  4.06866E+03  9.12746E+03
 -8.94376E+03  5.09444E+03 -9.86741E+03 -8.07117E+03 -2.12548E+03 -2.01361E+04  1.34423E+04 -2.19637E+04
  2.56032E+04 -1.25227E+04  2.94838E+04  3.18844E+03  2.67018E+04  2.01699E+04  1.16265E+04  3.27293E+04
 -6.35480E+03  3.45604E+04 -2.31324E+04  2.19003E+04 -2.58144E+04  3.72497E+03 -1.70986E+04 -6.48773E+03
 -6.13660E+03 -7.39198E+03  6.69402E+01  2.08955E+02 -2.96232E+03  3.97050E+03 -8.04613E+03  6.04106E+03
 -1.60736E+04 -1.40956E+03 -1.59737E+04 -1.26887E+04 -6.06057E+03 -2.12010E+04  7.34382E+03 -1.79709E+04
  1.40649E+04 -7.61282E+03  9.86000E+03  5.43501E+03 -9.41384E+02  6.48431E+03 -8.63459E+03 -7.52163E+02
 -8.19240E+03 -1.12279E+04 -1.84914E+03 -1.80013E+04  1.07996E+04 -1.75828E+04  2.17669E+04 -9.78890E+03
  2.56547E+04  3.40945E+03  1.97860E+04  1.65333E+04  3.57788E+03  2.21178E+04 -1.12875E+04  1.77429E+04
 -1.41349E+04  5.45068E+03 -6.99633E+03 -3.17488E+03  1.80522E+03 -5.00376E+03  9.09198E+03 -1.78836E+03
  7.66424E+03  6.90609E+03  1.21352E+03  1.45551E+04 -1.02761E+04  1.36909E+04 -1.80479E+04  1.98536E+03
 -1.23446E+04 -8.99347E+03  8.75633E+02 -1.54006E+04  1.03386E+04 -7.25362E+03  1.11786E+04  4.34233E+03
  2.11800E+03  1.16867E+04 -8.63695E+03  1.27162E+04 -1.57349E+04  6.14460E+03 -1.70277E+04 -5.76198E+03
 -8.88382E+03 -1.87496E+04  4.92775E+03 -2.17275E+04  1.72497E+04 -1.30454E+04  1.89028E+04  3.29339E+03
  1.17591E+04  1.52493E+04 -2.73710E+03  1.74412E+04 -1.33959E+04  1.10105E+04 -1.59981E+04 -1.37916E+03
 -1.16350E+04 -1.27224E+04 -1.52523E+03 -1.34928E+04  7.52135E+03 -1.12803E+04  8.83076E+03 -4.03826E+03
  6.78923E+03  2.53279E+03 -7.26892E+02  2.01811E+03 -1.77055E+03 -4.62556E+03  3.76876E+03 -9.34037E+03
  1.31305E+04 -5.82351E+03  1.84131E+04  2.25946E+03  1.77927E+04  1.24859E+04  1.07889E+04  2.46495E+04
 -5.86612E+03  2.77483E+04 -2.29248E+04  2.09284E+04 -3.07813E+04  3.91164E+03 -2.37082E+04 -1.14839E+04
 -1.26586E+04 -1.99006E+04 -8.28723E+02 -1.76685E+04  5.38035E+03 -9.53245E+03  6.54230E+03 -5.48848E+03
  4.55593E+03 -3.85404E+03  4.37977E+03 -4.23268E+03  6.17686E+03 -4.11463E+03  9.68183E+03 -1.30356E+03
  1.33784E+04  2.41584E+03  7.63155E+03  1.07642E+04 -2.25534E+03  1.35897E+04 -1.37048E+04  1.02673E+04
 -1.78276E+04 -1.32185E+03 -1.11193E+04 -1.30733E+04 -2.26158E+03 -1.86037E+04  9.79710E+03 -1.86893E+04
  1.96822E+04 -1.09930E+04  2.27253E+04  3.96910E+03  1.64382E+04  1.64896E+04  1.83007E+03  2.08990E+04
 -9.59695E+03  1.53909E+04 -1.25271E+04  4.69791E+03 -8.66408E+03 -1.83228E+03 -2.88767E+03 -3.33761E+03
 -1.80371E+03 -8.45466E+02 -3.28566E+03  2.45312E+03 -7.02255E+03  2.98040E+03 -1.11025E+04 -8.64383E+02
 -9.64100E+03 -1.27895E+04 -1.15525E+03 -1.71877E+04  1.07423E+04 -1.62927E+04  1.85175E+04 -5.74047E+03
  1.66703E+04  8.24251E+03  7.90240E+03  1.58433E+04 -4.45804E+03  1.68299E+04 -1.37564E+04  1.15543E+04
 -1.78352E+04  5.55427E+02 -1.17508E+04 -1.05156E+04 -8.98461E+02 -1.51436E+04  8.30641E+03 -1.11590E+04
  1.13188E+04 -3.62836E+03  8.39727E+03  2.51959E+03  3.06752E+03  4.92260E+03  1.44594E+03  2.40332E+03
  2.68300E+03  1.07897E+03  3.97819E+03  3.25419E+03  5.88053E+03  6.65098E+03  4.79279E+03  9.57416E+03
 -4.04641E+03  1.42343E+04 -1.32167E+04  1.42811E+04 -1.84920E+04  3.67752E+03 -1.95910E+04 -9.28788E+03
 -8.85309E+03 -1.82189E+04  3.22305E+03 -2.02302E+04  1.12783E+04 -1.28621E+04  1.47917E+04 -2.54281E+03
  1.17094E+04  6.91262E+03  3.09593E+03  1.07226E+04 -5.91171E+03  6.67945E+03 -8.21790E+03 -1.48092E+03
 -3.48699E+03 -8.15251E+03  4.12253E+03 -7.89178E+03  7.46475E+03 -3.36633E+03  7.66585E+03  1.33315E+03
  4.74832E+03  2.81152E+03  1.34231E+03  2.69556E+03  6.69139E+01  2.41543E+03  8.19546E+02 -1.30279E+03
  3.39569E+03 -7.58687E+02  7.23886E+03  3.45193E+03  4.56192E+03  1.07188E+04 -1.52070E+03  1.38547E+04
 -1.00100E+04  9.00100E+03 -1.14519E+04  2.97334E+03 -1.08716E+04 -5.17938E+03 -4.04501E+03 -7.51832E+03
  9.12792E+02 -7.44916E+03  4.56585E+03 -3.96076E+03  4.70295E+03  2.27050E+03 -1.90228E+03  6.47570E+03
 -7.70091E+03  4.29287E+03 -8.80732E+03 -4.92669E+03 -6.15290E+03 -1.09953E+04  1.88111E+03 -1.05661E+04
  6.70092E+03 -6.87498E+03  8.15555E+03 -1.16759E+03  6.19313E+03  3.14002E+03  1.70048E+02  5.61087E+03
 -3.85023E+03  1.72910E+03 -4.88564E+03 -3.60217E+03  1.35968E+03 -8.42321E+03  8.81801E+03 -6.37495E+03
  1.22667E+04  9.43346E+01  1.17121E+04  8.06116E+03  3.58062E+03  1.22739E+04 -5.24687E+03  1.10766E+04
 -1.02484E+04  5.50837E+03 -1.02278E+04 -2.20385E+03 -6.99794E+03 -8.66915E+03  2.21982E+03 -7.88686E+03
  8.65114E+03 -4.17145E+03  6.94140E+03  3.31674E+03  2.53493E+03  7.13823E+03 -6.17403E+02  5.71752E+03
 -3.75946E+03  4.10255E+03 -3.51279E+03  1.68341E+03 -2.38228E+03  1.06732E+03 -2.66357E+03  2.98614E+03
 -3.64091E+03  4.61606E+03 -8.57376E+03  4.67045E+03 -1.25718E+04  5.85920E+02 -1.51063E+04 -7.37559E+03
 -7.95809E+03 -1.62549E+04  3.53976E+03 -1.91087E+04  1.27723E+04 -1.52749E+04  1.82305E+04 -5.67444E+03
  1.62660E+04  3.86868E+03  1.01871E+04  1.19888E+04  1.13322E+03  1.37432E+04 -5.53339E+03  1.02965E+04
 -7.35968E+03  2.67991E+03 -4.92710E+03 -1.20889E+03 -1.75262E+03 -3.76411E+02 -4.32472E+02 -7.92639E+02
 -1.85237E+03 -1.84393E+02 -2.98197E+03 -5.69043E+02 -8.41787E+02 -4.18553E+03  4.80062E+01 -4.91844E+03
  5.92048E+03 -3.85803E+03  7.72511E+03  6.35986E+01  9.47738E+03  6.70504E+03  3.19336E+03  1.41126E+04
 -6.27024E+03  1.56436E+04 -1.44230E+04  9.77577E+03 -1.66945E+04 -2.21694E+03 -1.26065E+04 -1.00376E+04
 -5.95184E+03 -1.47376E+04  4.41682E+03 -1.33431E+04  9.04220E+03 -6.64895E+03  9.24736E+03  8.20761E+02
  3.94696E+03  4.21212E+03 -4.37170E+02  4.75411E+03 -2.67006E+03 -5.16662E+02  9.14041E+02 -3.66552E+03
  4.50939E+03 -2.20547E+03  4.63828E+03  1.64244E+03  4.08873E+03  4.99133E+03 -8.07473E+02  7.11508E+03
 -6.17840E+03  6.83499E+03 -9.43040E+03  1.10538E+03 -8.43281E+03 -6.13501E+03 -8.10075E+02 -1.12969E+04
  6.42341E+03 -9.49181E+03  1.16290E+04 -3.45715E+03  1.13198E+04  3.11070E+03  5.61005E+03  9.04161E+03
  5.80997E+02  1.00250E+04 -3.61385E+03  7.35028E+03 -4.98759E+03  3.52711E+03 -4.90299E+03  9.97312E+02
 -1.97920E+03 -1.59946E+02 -2.56674E+03  9.39320E+02 -5.27294E+03  1.77989E+03 -7.84068E+03 -4.72284E+02
 -6.55334E+03 -5.79738E+03 -1.72945E+03 -8.68445E+03  4.11745E+03 -9.79709E+03  8.30689E+03 -4.29938E+03
  9.57864E+03  1.17195E+03  5.64565E+03  6.84860E+03 -5.56207E+02  9.98185E+03 -7.10084E+03  7.62665E+03
