 $NMID ID='MM_0lb_SNR400_17hz_g40_12.RAW', FMTDAT='(8E13.5)'
 TRAMP=1., VOLUME=1. $END
  3.09679E+05  5.16794E+02  3.37299E+05  2.50030E+05  8.47219E+04  3.37344E+05 -1.32328E+05  2.50335E+05
 -1.89514E+05  8.23277E+04 -1.11018E+05 -3.28038E+04  1.52135E+03 -5.09776E+04  5.41831E+04  6.85444E+02
  3.47122E+04  5.31495E+04 -1.67129E+04  7.52529E+04 -6.03782E+04  6.26216E+04 -8.31110E+04  3.21689E+04
 -7.97260E+04 -1.13930E+04 -5.59050E+04 -5.02579E+04 -1.49538E+04 -6.85382E+04  2.64061E+04 -4.50403E+04
  3.92902E+04  3.91274E+03  1.56695E+04  4.71955E+04 -3.42730E+04  4.65853E+04 -6.59710E+04 -5.25711E+02
 -5.23769E+04 -5.64329E+04 -5.28338E+03 -7.54659E+04  3.34415E+04 -5.30614E+04  4.59778E+04 -1.59786E+04
  4.19601E+04  1.10600E+04  3.09954E+04  2.41461E+04  1.53845E+04  2.84239E+04 -4.87949E+03  2.67708E+04
 -2.18355E+04  1.20727E+04 -1.90861E+04 -4.47649E+03  3.83380E+03 -7.30826E+03  2.13248E+04  1.09519E+04
  7.34932E+03  3.38299E+04 -3.05165E+04  3.39264E+04 -6.12792E+04  2.28716E+03 -5.53304E+04 -4.11279E+04
 -1.24119E+04 -6.11375E+04  3.87793E+04 -4.41510E+04  5.59460E+04 -2.24973E+03  3.20073E+04  3.06640E+04
 -7.05531E+03  3.33618E+04 -2.85496E+04  1.37671E+04 -2.78202E+04 -4.84927E+03 -1.48235E+04 -9.88258E+03
 -7.25424E+03 -1.14943E+04 -8.01513E+02 -1.63207E+04  6.57647E+03 -2.29637E+04  1.45978E+04 -1.40481E+04
  1.22811E+04  4.58245E+03 -6.18476E+03  1.32094E+04 -1.92804E+04 -2.53944E+03 -7.80384E+03 -3.04252E+04
  2.07486E+04 -4.08233E+04  4.55917E+04 -1.89260E+04  4.16876E+04  1.85224E+04  1.44504E+04  4.19021E+04
 -1.54711E+04  3.13008E+04 -2.41803E+04  6.07157E+02 -8.19304E+03 -2.61821E+04  2.07830E+04 -3.13042E+04
  3.80473E+04 -7.45394E+03  3.20739E+04  2.34418E+04  1.59998E+04  4.26496E+04 -7.82681E+03  4.55031E+04
 -2.88119E+04  3.01376E+04 -3.77787E+04  8.64471E+03 -3.87267E+04 -1.52620E+04 -2.18885E+04 -3.48920E+04
  6.82114E+03 -3.51319E+04  2.93409E+04 -1.33293E+04  2.71152E+04  1.02923E+04  3.00742E+03  1.78538E+04
 -1.28999E+04  7.88082E+03 -9.25449E+03 -7.63354E+03  6.06757E+03 -1.02596E+04  1.73954E+04  6.44138E+03
  1.25804E+04  2.11478E+04 -6.76131E+03  2.38398E+04 -2.14373E+04  9.29580E+03 -2.60430E+04 -6.30568E+03
 -1.73756E+04 -1.65597E+04 -6.13853E+03 -1.72558E+04  3.99084E+03 -1.54935E+04  1.26220E+04 -1.48911E+04
  2.18826E+04 -1.19802E+04  2.89465E+04  1.41657E+03  2.21385E+04  1.66378E+04  4.53216E+03  3.27825E+04
 -1.64609E+04  2.77907E+04 -2.61705E+04  9.78870E+03 -1.99974E+04 -1.01402E+04 -3.29378E+03 -1.36428E+04
  2.49637E+03 -3.59493E+03 -3.02994E+03  6.09664E+03 -1.34617E+04  4.98963E+03 -1.38631E+04 -5.17312E+03
 -8.83467E+03 -1.57522E+04  4.65550E+03 -2.00537E+04  1.33743E+04 -1.41648E+04  1.51198E+04 -1.19436E+03
  9.85837E+03  1.11100E+04 -9.35911E+02  1.58848E+04 -1.06123E+04  8.99629E+03 -1.58029E+04 -3.36015E+03
 -1.22230E+04 -1.42614E+04 -1.33462E+03 -1.94260E+04  9.53095E+03 -1.53737E+04  1.67709E+04 -7.34882E+03
  1.55649E+04  2.03656E+02  1.05537E+04  3.97099E+03  4.94924E+03  2.88714E+02  7.93646E+03 -1.44307E+03
  1.39413E+04  2.45600E+03  1.54561E+04  1.32753E+04  9.85190E+03  2.55380E+04 -3.76326E+03  2.72638E+04
 -1.61687E+04  2.13168E+04 -2.55375E+04  1.05254E+04 -2.62740E+04 -1.72803E+03 -2.25487E+04 -1.49888E+04
 -1.06543E+04 -2.20424E+04  6.98923E+03 -1.94337E+04  1.67124E+04 -1.05918E+04  1.59098E+04  3.47795E+03
  6.93789E+03  1.20516E+04 -7.81335E+03  1.07720E+04 -1.37310E+04  2.23845E+03 -1.04602E+04 -8.25505E+03
 -3.92672E+02 -1.30267E+04  6.51046E+03 -9.53177E+03  8.08557E+03 -1.19891E+03  1.31093E+03  4.79444E+03
 -6.04288E+03  1.55018E+03 -4.29571E+03 -5.06229E+03 -8.11200E+01 -1.11230E+04  8.12804E+03 -1.07162E+04
  1.31964E+04 -5.51178E+03  1.27515E+04  2.86544E+03  1.08923E+04  1.02808E+04  5.52663E+03  1.52581E+04
 -1.64804E+03  1.69989E+04 -1.02936E+04  1.07240E+04 -1.23494E+04  2.59725E+03 -8.93451E+03 -2.28515E+03
 -4.97138E+03 -3.38320E+03 -9.02318E+02  1.23090E+03 -1.73437E+03  2.38229E+03 -4.14290E+03  3.63260E+03
 -8.48536E+03 -7.45556E+02 -9.90964E+03 -7.41574E+03 -3.66243E+03 -1.26865E+04  3.38272E+03 -9.38174E+03
  7.36061E+03 -4.13313E+03  5.73037E+03  2.41481E+03  2.32910E+02  3.16924E+03 -3.45769E+03  1.66490E+02
 -3.53813E+03 -4.88691E+03 -1.50141E+03 -8.34080E+03  4.12456E+03 -8.56617E+03  1.10315E+04 -4.13668E+03
  1.24425E+04  1.12781E+03  9.73228E+03  6.37272E+03  1.92438E+03  9.44529E+03 -5.83304E+03  8.58926E+03
 -7.22537E+03  2.97053E+03 -3.46528E+03 -1.27029E+03  7.35440E+02 -2.22169E+03  5.15798E+03 -1.08059E+03
  4.61603E+03  3.51600E+03  7.72563E+02  7.37932E+03 -4.75649E+03  7.12265E+03 -8.14188E+03  1.85839E+03
 -5.29643E+03 -3.84887E+03  7.63693E+01 -6.73717E+03  4.16852E+03 -3.17512E+03  4.12845E+03  6.49836E+02
  8.13919E+01  3.62484E+03 -4.76067E+03  4.50072E+03 -5.21161E+03  2.92597E+03 -5.46806E+03 -1.65384E+03
 -3.41155E+03 -6.19345E+03  1.45735E+03 -7.53439E+03  6.83341E+03 -5.31333E+03  7.33094E+03  1.40953E+03
  4.91441E+03  5.34816E+03 -1.32178E+02  8.73617E+03 -5.17347E+03  4.60516E+03 -6.03649E+03 -3.56099E+02
 -6.74113E+03 -5.34168E+03 -1.43355E+03 -5.39992E+03  2.61451E+03 -4.78512E+03  3.13012E+03 -2.90338E+03
  3.34179E+03 -3.58460E+01  1.01135E+02  1.46815E+03  1.90356E+02 -9.18390E+02 -9.04374E+01 -2.22343E+03
  4.48548E+03 -1.01398E+03  6.12199E+03  9.69610E+02  6.45126E+03  3.03781E+03  5.66696E+03  8.22149E+03
 -1.81474E+03  9.35282E+03 -8.85564E+03  7.27639E+03 -1.08911E+04  1.38781E+03 -9.01779E+03 -2.84789E+03
 -4.69054E+03 -7.03352E+03 -4.60652E+02 -6.13796E+03  2.60246E+03 -2.21463E+03  1.48742E+03 -2.22278E+03
  1.44699E+03 -1.47200E+03  2.45854E+03 -2.62214E+03  3.75651E+03 -1.23995E+03  4.15183E+03 -2.69023E+02
  4.99540E+03  1.50638E+03  1.29800E+03  3.97486E+03 -1.57649E+03  3.34193E+03 -5.35289E+03  2.84777E+03
 -6.14775E+03 -1.34528E+03 -1.86356E+03 -3.95651E+03  5.66927E+02 -5.82879E+03  3.79445E+03 -6.34559E+03
  5.49675E+03 -3.82617E+03  7.63312E+03 -2.04443E+01  5.34354E+03  5.14240E+03  1.10552E+03  7.06650E+03
 -2.85246E+03  6.15922E+03 -3.51679E+03  2.02872E+03 -1.61585E+03 -1.19701E+03 -7.77972E+02 -3.58535E+02
 -3.44534E+02  5.21089E+02 -6.60099E+02  2.16206E+03 -2.99826E+03  1.15126E+03 -4.76410E+03 -3.13140E+02
 -1.74079E+03 -4.48525E+03  1.06614E+03 -5.28818E+03  3.09998E+03 -5.46553E+03  4.58575E+03 -1.90176E+03
  5.05321E+03  2.44772E+03  2.21997E+03  3.86751E+03 -8.97436E+02  4.80774E+03 -2.76298E+03  2.89370E+03
 -4.31417E+03  4.82826E+02 -4.48708E+03 -2.78217E+03 -2.60259E+02 -3.83708E+03  2.06552E+03 -2.91174E+03
  3.52726E+03 -1.39374E+03  2.26460E+03  5.46788E+02  7.84718E+02  1.51617E+03  1.17402E+03 -9.30547E+00
  1.73023E+03  9.41512E+02  9.52016E+02  1.27775E+03  1.29425E+03  2.51613E+03  1.38936E+03  2.76232E+03
 -1.21582E+03  3.49909E+03 -3.19731E+03  4.93325E+03 -4.13150E+03  1.40626E+03 -5.07182E+03 -1.11626E+03
 -2.65329E+03 -4.41634E+03  1.39414E+03 -4.93932E+03  2.51535E+03 -3.28882E+03  3.69681E+03 -1.12444E+03
  2.98830E+03  1.82649E+03  6.16023E+02  2.83723E+03 -1.31162E+03  1.41783E+03 -2.02541E+03 -4.32496E+02
 -9.32770E+02 -2.22379E+03  1.18149E+03 -1.93882E+03  1.84010E+03 -1.48173E+03  2.13206E+03  2.21693E+02
  1.22994E+03  8.23248E+02  1.12707E+03 -1.85850E+01  2.53599E+02  3.81155E+02  1.29358E+03 -3.75503E+02
  4.29317E+02 -2.55409E+02  2.09338E+03  8.58306E+02  4.00216E+02  2.75282E+03 -5.37835E+02  3.62598E+03
 -1.72941E+03  1.39868E+03 -2.56018E+03  4.09658E+02 -3.12041E+03 -1.01668E+03 -6.92209E+02 -1.46945E+03
 -4.09307E+01 -1.60382E+03  1.15292E+03 -1.10428E+03  1.11765E+03  1.53524E+03 -6.89963E+02  1.67350E+03
 -2.26019E+03  5.84918E+02 -1.85701E+03 -1.35434E+03 -9.66543E+02 -2.69900E+03  2.46091E+02 -2.40835E+03
  6.56779E+02 -5.55181E+02  1.24145E+03  4.80404E+02  1.86196E+03  1.54052E+02  2.59609E+02  9.73312E+02
 -2.52096E+01  6.62917E+02 -9.26143E+02 -5.28171E+02  9.09655E+02 -1.63991E+03  2.77181E+03 -1.12701E+03
  1.21495E+03 -9.67374E+01  3.90476E+03  9.58369E+02  4.97870E+02  2.50769E+03 -3.07642E+02  2.05664E+03
 -2.03448E+03  2.93765E+02 -2.14379E+03 -6.30958E+02 -1.04374E+03 -1.96569E+03  7.16948E+02 -8.73223E+02
  2.06513E+03 -8.48273E+02  1.65166E+03  5.65514E+02 -4.71566E+02  1.62890E+03  1.13577E+02  1.31474E+03
 -4.12290E+02  1.18807E+03 -6.55251E+02  5.62950E+02  4.85217E+02  6.61147E+02 -1.05048E+03  3.82217E+01
 -2.88232E+02  9.63678E+02 -2.59156E+03  4.73662E+02 -2.01478E+03  5.35275E+01 -2.79455E+03 -1.92262E+03
 -1.31940E+03 -2.96859E+03  4.80177E+02 -4.06973E+03  2.10577E+03 -3.04206E+03  3.80770E+03 -1.55182E+03
  3.59403E+03 -3.67214E+02  1.83891E+03  1.75502E+03 -4.10082E+02  2.74453E+03 -1.00907E+03  1.62836E+03
 -1.56326E+03  5.85044E+02 -1.13959E+03 -7.54719E+02  1.70476E+02 -5.81701E+02 -8.03873E+02 -1.22263E+02
 -1.20049E+03  4.27654E+01 -1.35714E+03  2.49786E+02 -3.90030E+01 -1.11642E+03 -2.54557E+02 -1.03562E+03
  1.28805E+03 -5.89590E+02  1.46233E+03  4.06413E+02  1.55507E+03  1.22090E+03 -7.51422E+02  1.93036E+03
 -1.35688E+03  2.63858E+03 -2.17357E+03  1.51058E+03 -2.05712E+03  3.53749E+02 -1.72875E+03 -1.14270E+03
 -1.53525E+03 -2.34167E+03  1.03785E+03 -1.62762E+03  1.20573E+03 -1.28176E+03  1.18037E+03 -2.89152E+01
  3.76413E+02  8.32692E+02  1.76423E+02  2.55360E+02 -5.26037E+02 -3.82597E+01  6.61247E+02 -7.26682E+02
  5.22607E+02  3.10340E+02  1.03742E+03 -4.17813E+02  3.81784E+02  5.83451E+02 -1.67465E+02  7.92920E+02
 -5.25785E+02  1.13787E+03 -6.61218E+02  1.07736E+02 -1.26156E+03 -1.40998E+03  3.18765E+02 -1.19867E+03
  4.05938E+02 -1.29282E+03  1.11611E+03  5.04749E+01  1.84052E+03 -5.30832E+02  1.30680E+03  1.32684E+03
  5.99172E+02  5.34093E+02 -2.09667E+02  1.09406E+03 -1.15137E+03  6.67046E+02 -5.57617E+02 -4.16312E+02
  7.35390E+01 -4.33244E+01 -6.09187E+02  9.62094E+02 -9.67342E+02  2.87756E+02 -1.25892E+03 -5.01481E+02
 -7.02894E+02  5.77130E+02 -5.23964E+02 -7.02762E+02  6.79289E+02 -1.88186E+03  1.01117E+03 -4.61875E+02
  1.53478E+03 -5.55735E+02 -2.04405E+02  3.73260E+02 -2.96718E+02  6.87082E+02 -5.28522E+02  7.84390E+02
