 $NMID ID='MM_0lb_SNR400_20hz_g45_59.RAW', FMTDAT='(8E13.5)'
 TRAMP=1., VOLUME=1. $END
  3.09469E+05  7.21874E+02  3.36826E+05  2.50292E+05  8.43132E+04  3.37085E+05 -1.32152E+05  2.50103E+05
 -1.89440E+05  8.24646E+04 -1.10872E+05 -3.30009E+04  1.62938E+03 -5.01154E+04  5.43497E+04  5.06549E+02
  3.50792E+04  5.24772E+04 -1.69129E+04  7.45482E+04 -6.05909E+04  6.21397E+04 -8.27456E+04  3.19264E+04
 -7.87792E+04 -1.07032E+04 -5.57336E+04 -4.96772E+04 -1.51363E+04 -6.77260E+04  2.64920E+04 -4.48061E+04
  3.84122E+04  3.72884E+03  1.57107E+04  4.69827E+04 -3.40594E+04  4.62241E+04 -6.44892E+04 -1.15315E+03
 -5.15581E+04 -5.56498E+04 -6.21788E+03 -7.45926E+04  3.26527E+04 -5.24126E+04  4.55137E+04 -1.62616E+04
  4.06208E+04  1.12101E+04  3.06688E+04  2.37198E+04  1.57827E+04  2.79294E+04 -4.17414E+03  2.69673E+04
 -2.15280E+04  1.29093E+04 -1.94712E+04 -3.76831E+03  3.90772E+03 -8.03573E+03  2.05951E+04  1.05787E+04
  7.39661E+03  3.20702E+04 -2.96118E+04  3.34958E+04 -6.01203E+04  2.30277E+03 -5.51274E+04 -4.03113E+04
 -1.26182E+04 -5.96671E+04  3.75636E+04 -4.27760E+04  5.44112E+04 -2.40672E+03  3.10190E+04  2.97122E+04
 -6.57836E+03  3.21283E+04 -2.77117E+04  1.26681E+04 -2.65280E+04 -6.17408E+03 -1.34633E+04 -1.00692E+04
 -6.95422E+03 -1.07818E+04 -1.32317E+03 -1.60744E+04  6.48937E+03 -2.23930E+04  1.45188E+04 -1.42846E+04
  1.30738E+04  3.55612E+03 -5.53731E+03  1.32475E+04 -1.87820E+04 -1.94430E+03 -7.81573E+03 -2.91833E+04
  2.04912E+04 -3.94089E+04  4.40637E+04 -1.83667E+04  4.07781E+04  1.77926E+04  1.36559E+04  4.06482E+04
 -1.51769E+04  3.00315E+04 -2.27189E+04  1.03424E+03 -7.67032E+03 -2.56443E+04  2.03641E+04 -3.00789E+04
  3.72480E+04 -7.08588E+03  3.01079E+04  2.22041E+04  1.42447E+04  4.08903E+04 -8.50864E+03  4.33473E+04
 -2.73872E+04  2.91537E+04 -3.54685E+04  8.07518E+03 -3.65440E+04 -1.45193E+04 -2.05299E+04 -3.34524E+04
  6.68490E+03 -3.28195E+04  2.87429E+04 -1.17790E+04  2.58430E+04  1.05735E+04  2.48301E+03  1.77979E+04
 -1.27617E+04  7.15729E+03 -9.85274E+03 -7.51804E+03  5.73823E+03 -9.50793E+03  1.70399E+04  6.82148E+03
  1.18611E+04  2.15476E+04 -7.01773E+03  2.26090E+04 -2.15711E+04  8.59085E+03 -2.43904E+04 -6.65531E+03
 -1.51313E+04 -1.58247E+04 -4.58277E+03 -1.53964E+04  3.65192E+03 -1.31230E+04  1.14651E+04 -1.32496E+04
  1.97981E+04 -1.06386E+04  2.63793E+04  5.19454E+02  1.99856E+04  1.50480E+04  3.98689E+03  3.08299E+04
 -1.55576E+04  2.66064E+04 -2.52600E+04  8.76535E+03 -1.94182E+04 -1.08793E+04 -3.97102E+03 -1.43429E+04
  3.08099E+03 -4.47124E+03 -1.51967E+03  4.91811E+03 -1.17562E+04  5.00693E+03 -1.20720E+04 -4.32957E+03
 -8.40403E+03 -1.43892E+04  3.91731E+03 -1.86010E+04  1.18589E+04 -1.29475E+04  1.31129E+04 -1.13261E+03
  8.55343E+03  9.87299E+03 -5.76244E+02  1.43227E+04 -9.45518E+03  8.40710E+03 -1.43230E+04 -3.27805E+03
 -1.13712E+04 -1.35284E+04 -1.37160E+03 -1.79750E+04  8.11638E+03 -1.42175E+04  1.48512E+04 -6.51315E+03
  1.36265E+04  1.43075E+03  9.54237E+03  3.81450E+03  4.50420E+03  4.92814E+02  6.85105E+03 -1.59731E+03
  1.28225E+04  2.93489E+03  1.26645E+04  1.19613E+04  8.15739E+03  2.25933E+04 -2.95085E+03  2.40024E+04
 -1.47602E+04  1.80524E+04 -2.22221E+04  8.47530E+03 -2.26403E+04 -1.58358E+03 -1.93908E+04 -1.30589E+04
 -9.49071E+03 -1.79451E+04  5.48208E+03 -1.73446E+04  1.53209E+04 -1.05185E+04  1.42020E+04  3.15475E+03
  6.25883E+03  1.02190E+04 -6.38371E+03  1.04817E+04 -1.23296E+04  2.95396E+03 -9.61437E+03 -6.59746E+03
 -1.68147E+02 -1.21241E+04  6.04151E+03 -9.07532E+03  7.02347E+03 -1.70323E+03  8.14253E+02  3.92424E+03
 -5.36903E+03  1.31174E+03 -2.92861E+03 -4.30057E+03  8.47668E+02 -9.44861E+03  7.44027E+03 -8.75776E+03
  1.06740E+04 -4.43525E+03  1.02726E+04  2.71457E+03  8.32344E+03  7.74675E+03  4.54316E+03  1.20133E+04
 -9.73214E+02  1.36971E+04 -8.06927E+03  9.04038E+03 -9.15425E+03  3.13095E+03 -7.90384E+03 -1.32777E+03
 -4.09650E+03 -2.74794E+03 -8.23197E+02  1.67088E+03 -1.91441E+03  1.17642E+03 -3.60387E+03  3.39895E+03
 -7.03330E+03 -8.48906E+02 -8.20051E+03 -6.53927E+03 -2.87754E+03 -1.05988E+04  3.19425E+03 -7.71410E+03
  6.42206E+03 -3.38773E+03  4.76685E+03  1.73114E+03  1.21903E+03  2.58397E+03 -3.46022E+03  4.60426E+02
 -2.70003E+03 -4.52054E+03 -5.22997E+02 -5.89815E+03  3.57288E+03 -7.19366E+03  8.73870E+03 -3.14798E+03
  1.07372E+04  3.41926E+02  7.97099E+03  5.13085E+03  1.78673E+03  7.20973E+03 -4.63083E+03  7.63589E+03
 -6.40115E+03  2.50709E+03 -3.21118E+03 -1.23078E+03  1.20120E+03 -1.91535E+03  4.34118E+03 -5.00864E+02
  3.45504E+03  2.93532E+03  1.37353E+03  5.86147E+03 -3.95830E+03  5.56883E+03 -6.92445E+03  1.46776E+03
 -4.58112E+03 -2.83061E+03  6.05753E+02 -5.22264E+03  3.60434E+03 -2.68220E+03  2.81790E+03  7.20381E+02
  2.08724E+02  2.63837E+03 -3.23552E+03  4.00390E+03 -3.78136E+03  2.20579E+03 -3.47500E+03 -9.95376E+02
 -2.80267E+03 -4.88648E+03  7.85587E+02 -5.66286E+03  4.89210E+03 -4.10768E+03  5.70064E+03  7.74112E+02
  4.42950E+03  4.84091E+03  4.17046E+01  6.50579E+03 -4.09778E+03  3.61693E+03 -4.54609E+03 -2.88973E+02
 -5.43032E+03 -4.34285E+03 -1.12023E+03 -4.34493E+03  2.15383E+03 -3.93528E+03  1.81714E+03 -2.38256E+03
  2.53862E+03 -1.03816E+02  3.16752E+01  1.36042E+03  1.10761E+03  3.62405E+01 -4.18028E+02 -1.18620E+03
  2.82696E+03 -4.47702E+02  3.92597E+03  3.99922E+02  4.19962E+03  2.43615E+03  4.27078E+03  6.08802E+03
 -3.02156E+02  7.07810E+03 -6.62011E+03  5.67742E+03 -8.69539E+03  1.15792E+03 -6.69964E+03 -2.17590E+03
 -3.11916E+03 -5.37164E+03 -6.23029E+02 -4.67608E+03  2.02480E+03 -1.55239E+03  1.40869E+03 -1.69330E+03
  8.18930E+02 -1.62297E+03  2.56428E+03 -2.26229E+03  3.41848E+03 -1.34092E+03  3.36579E+03  8.13559E+02
  4.25303E+03  1.30774E+03  7.00353E+02  3.24166E+03 -1.47108E+03  2.37716E+03 -3.33289E+03  2.51431E+03
 -4.04458E+03 -8.81951E+02 -1.06858E+03 -2.82339E+03  8.88817E+02 -3.56691E+03  2.80284E+03 -4.52431E+03
  3.57879E+03 -2.87260E+03  5.51880E+03  2.24739E+02  4.42018E+03  3.17343E+03  1.09449E+03  4.56195E+03
 -1.42696E+03  5.33128E+03 -3.10392E+03  1.72862E+03 -1.69661E+03 -1.26708E+03 -3.58824E+02 -6.13194E+02
 -1.88378E+02  4.17002E+02 -4.09254E+02  2.46284E+03 -1.64060E+03  1.04474E+03 -3.46909E+03 -3.75273E+02
 -1.54103E+03 -3.47396E+03  7.13263E+02 -3.69533E+03  2.69844E+03 -3.76342E+03  2.78624E+03 -7.47099E+02
  3.39438E+03  2.10319E+03  1.49916E+03  2.41264E+03 -6.35534E+02  3.94936E+03 -1.99957E+03  1.65503E+03
 -3.22275E+03  4.36634E+02 -2.62169E+03 -1.67443E+03 -3.03485E+02 -2.23261E+03  1.18782E+03 -1.99234E+03
  2.37162E+03 -9.40628E+02  1.41428E+03  1.03590E+02  4.20210E+02  1.32885E+03  2.72289E+02  8.02052E+01
  1.26713E+03  2.98979E+02  8.36295E+02  1.44206E+03  8.59488E+02  1.42036E+03  1.12009E+03  1.60066E+03
 -1.16941E+03  2.71702E+03 -2.14806E+03  3.93061E+03 -2.11698E+03  1.16173E+03 -3.57678E+03  7.42971E+02
 -1.41785E+03 -2.88992E+03  8.08192E+02 -3.66728E+03  9.42015E+02 -1.72459E+03  2.33093E+03 -1.17338E+03
  1.59007E+03  1.65069E+03  1.41245E+02  1.61812E+03 -4.96498E+02  7.93937E+02 -4.98285E+02  2.05055E+02
 -5.81644E+02 -8.42866E+02  1.03289E+03 -1.35393E+03  1.26369E+03 -2.81946E+02  9.64372E+02  1.71513E+02
  5.51206E+02  7.05630E+01  7.00517E+02 -7.96834E+02 -6.49200E+02  6.53802E+02  1.17454E+03 -3.32729E+02
  2.52164E+01 -4.47255E+02  1.25664E+03  5.71304E+02  2.99736E+02  2.37530E+03 -1.99202E+02  2.33233E+03
 -1.09350E+03  4.93353E+02 -1.40604E+03  2.45439E+02 -1.57309E+03 -4.06106E+02  7.56505E+02 -9.64169E+02
 -1.76900E+01 -1.11020E+03  8.79784E+02 -6.91790E+02  9.26702E+02  7.53933E+02 -3.05558E+02  9.48439E+02
 -1.10169E+03  3.11848E+02 -1.09272E+03 -1.73996E+03 -9.62185E+02 -1.46524E+03  4.85183E+02 -1.17373E+03
  8.32390E+02 -7.03400E+01 -5.20012E+01  6.31892E+02  1.54413E+03 -1.16007E+02  3.96558E+02  1.18551E+03
  6.37027E+02 -2.55202E+02 -7.45162E+02  2.29894E+02  5.76147E+02 -3.82015E+02  1.72473E+03 -7.80499E+02
  8.75308E+02 -1.13902E+02  1.95653E+03  6.47349E+02  1.10738E+03  1.01640E+03 -8.35575E+01  1.05570E+03
 -1.53166E+03 -2.72941E+02 -1.12724E+03 -2.22507E+02 -2.95264E+02 -9.69181E+02  4.57101E+01 -7.27325E+02
  1.66071E+03 -3.66373E+02  5.61615E+02  7.96652E+02  9.40077E+01  5.42610E+02  4.26740E+02  1.15317E+03
 -3.02988E+02  1.17109E+03 -1.38326E+02  8.58064E+01 -1.98169E+02  7.13534E+02 -5.79679E+02  9.78336E+01
 -4.24465E+02  6.68046E+02 -1.48410E+03  2.67373E+01 -1.45967E+03 -2.63885E+02 -1.75155E+03 -9.18136E+02
 -1.21884E+03 -1.40519E+03  3.43799E+02 -1.45722E+03  3.18210E+02 -1.61016E+03  2.93920E+03 -6.13274E+02
  2.14756E+03 -9.78034E+02  4.14764E+02  1.41879E+03 -4.42251E+02  9.88587E+02 -1.21025E+03  1.22777E+03
 -4.08404E+02  6.71910E+02 -5.44684E+02 -3.12371E+02 -3.37856E+02  5.47207E+01 -3.36508E+02 -9.26833E+01
 -8.64773E+02 -3.82868E+02 -1.06720E+03 -2.26297E+02  2.85740E+02  2.10481E+02 -4.47467E+02 -6.90558E+02
  1.21888E+03  9.19630E+01 -8.06981E+01  7.34302E+02  5.49729E+02  2.35518E+02 -2.76838E+02  1.33686E+03
 -1.28709E+03  1.99167E+03 -4.52657E+02  1.34901E+03 -1.10911E+03  9.62347E+01 -6.84572E+02 -1.12127E+03
 -9.21905E+02 -7.63462E+02 -4.72455E+01 -1.25336E+03  6.19608E+02 -7.61847E+02  2.70078E+02  3.51181E+02
  1.00112E+03  3.66541E+02 -2.31116E+01 -2.29701E+02 -9.50096E+01  1.80258E+02  1.10066E+02 -2.24019E+02
 -5.68618E+01  1.93565E+02  1.94498E+02  1.65094E+02  1.97045E+02  2.31110E+02  3.57213E+02  2.13465E+02
 -5.72018E+02  6.34225E+02 -3.08262E+02 -3.90261E+01 -5.31125E+02 -2.09359E+02 -1.78948E+01 -7.31060E+02
  1.64524E+02  5.39855E+01  8.07001E+02  7.33933E+02  5.37763E+01 -4.14298E+02  5.58837E+02  7.40254E+02
  9.67058E+02  2.49796E+02  2.69784E+01  4.89406E+02 -2.87362E+02  7.60579E+02  1.42884E+01 -1.14685E+02
  4.77863E+02  2.20992E+02 -4.86804E+02  1.37388E+02 -7.01820E+02 -4.64244E+02 -5.10524E+02 -3.18687E+02
 -1.36422E+03  4.89656E+02 -5.71327E+02 -3.89643E+02  6.18997E+02 -9.85454E+02  1.03265E+03 -5.62554E+02
  7.91473E+02 -1.56224E+02 -1.31648E+02 -8.88952E+01  1.28183E+02  7.63108E+02  2.61945E+00  6.39966E+02
