 $NMID ID='MM_0lb_SNR400_17hz_g40_34.RAW', FMTDAT='(8E13.5)'
 TRAMP=1., VOLUME=1. $END
  3.09665E+05  2.93886E+02  3.37264E+05  2.50851E+05  8.40633E+04  3.36988E+05 -1.32127E+05  2.50295E+05
 -1.89373E+05  8.23507E+04 -1.10960E+05 -3.29382E+04  1.29823E+03 -4.99036E+04  5.36664E+04  2.95506E+02
  3.50144E+04  5.28594E+04 -1.68985E+04  7.51381E+04 -6.02324E+04  6.22527E+04 -8.33775E+04  3.15312E+04
 -7.95740E+04 -1.11601E+04 -5.71457E+04 -4.99152E+04 -1.48089E+04 -6.82022E+04  2.69472E+04 -4.49800E+04
  3.99365E+04  3.54220E+03  1.50625E+04  4.75718E+04 -3.39329E+04  4.63099E+04 -6.52721E+04 -8.64154E+02
 -5.20710E+04 -5.61416E+04 -6.54249E+03 -7.53089E+04  3.31498E+04 -5.29370E+04  4.59472E+04 -1.64107E+04
  4.07836E+04  1.10869E+04  3.11358E+04  2.41040E+04  1.58499E+04  2.85342E+04 -4.92324E+03  2.63143E+04
 -2.18476E+04  1.22680E+04 -1.96636E+04 -4.88408E+03  4.20492E+03 -7.69288E+03  2.16318E+04  1.10619E+04
  7.44892E+03  3.30707E+04 -3.06224E+04  3.40146E+04 -6.13751E+04  2.28235E+03 -5.59276E+04 -4.16288E+04
 -1.26562E+04 -6.11159E+04  3.83210E+04 -4.35015E+04  5.53978E+04 -2.35084E+03  3.19989E+04  3.11979E+04
 -6.50049E+03  3.32072E+04 -2.86728E+04  1.36052E+04 -2.81292E+04 -4.79351E+03 -1.45074E+04 -1.05301E+04
 -6.89408E+03 -1.19420E+04 -1.18681E+03 -1.68633E+04  6.65767E+03 -2.28263E+04  1.56749E+04 -1.36890E+04
  1.21254E+04  4.51394E+03 -5.86613E+03  1.32492E+04 -1.99084E+04 -3.15933E+03 -8.30129E+03 -3.05755E+04
  2.09796E+04 -4.11580E+04  4.47486E+04 -1.83542E+04  4.23197E+04  1.89585E+04  1.48442E+04  4.21444E+04
 -1.49600E+04  3.12376E+04 -2.38326E+04  6.69453E+02 -8.17719E+03 -2.64647E+04  2.04749E+04 -3.15995E+04
  3.81895E+04 -7.18876E+03  3.15548E+04  2.28815E+04  1.56860E+04  4.31385E+04 -7.95402E+03  4.56880E+04
 -2.91338E+04  3.01278E+04 -3.78404E+04  8.09464E+03 -3.83849E+04 -1.49854E+04 -2.17901E+04 -3.44453E+04
  6.82388E+03 -3.50659E+04  2.90891E+04 -1.34130E+04  2.69527E+04  1.02736E+04  3.09636E+03  1.77156E+04
 -1.30383E+04  7.39920E+03 -9.75285E+03 -7.27818E+03  6.19454E+03 -1.03972E+04  1.77152E+04  6.59956E+03
  1.23799E+04  2.20934E+04 -7.23532E+03  2.35845E+04 -2.16882E+04  1.00632E+04 -2.51052E+04 -5.80152E+03
 -1.74583E+04 -1.65855E+04 -6.06008E+03 -1.66744E+04  3.67342E+03 -1.53697E+04  1.29626E+04 -1.51290E+04
  2.18363E+04 -1.20677E+04  2.84695E+04  1.24260E+03  2.16964E+04  1.68515E+04  3.60185E+03  3.22251E+04
 -1.64329E+04  2.78100E+04 -2.63840E+04  9.51940E+03 -1.97367E+04 -9.88528E+03 -3.87042E+03 -1.37453E+04
  2.42430E+03 -3.73572E+03 -2.94764E+03  5.78960E+03 -1.34956E+04  5.65939E+03 -1.31544E+04 -4.68275E+03
 -9.01992E+03 -1.64929E+04  4.67287E+03 -1.98683E+04  1.30442E+04 -1.44206E+04  1.46876E+04 -1.58366E+03
  8.74630E+03  1.05864E+04 -6.49220E+02  1.56892E+04 -1.08325E+04  8.98543E+03 -1.51742E+04 -3.61901E+03
 -1.23048E+04 -1.40546E+04 -2.13435E+03 -1.95358E+04  9.22817E+03 -1.66578E+04  1.66797E+04 -7.26743E+03
  1.48777E+04  1.02341E+03  1.08284E+04  3.97819E+03  5.34039E+03  6.08956E+02  7.87456E+03 -1.15353E+03
  1.40983E+04  2.64650E+03  1.53530E+04  1.31494E+04  1.02809E+04  2.52453E+04 -3.28756E+03  2.82740E+04
 -1.64160E+04  2.11493E+04 -2.55368E+04  1.03617E+04 -2.58669E+04 -2.02096E+03 -2.21871E+04 -1.47036E+04
 -1.00070E+04 -2.16885E+04  7.54286E+03 -2.06528E+04  1.75743E+04 -1.09983E+04  1.60688E+04  3.39076E+03
  6.51991E+03  1.11237E+04 -7.94707E+03  1.06377E+04 -1.40800E+04  2.36420E+03 -1.04471E+04 -8.51643E+03
  4.13862E+02 -1.31677E+04  6.20321E+03 -1.01125E+04  8.63248E+03 -1.07999E+03  1.46366E+03  5.17651E+03
 -5.14436E+03  2.12460E+03 -3.93666E+03 -4.34120E+03  5.63574E+02 -1.03399E+04  8.48041E+03 -1.06765E+04
  1.29510E+04 -5.37167E+03  1.31414E+04  2.51044E+03  1.21307E+04  1.04493E+04  5.54713E+03  1.50376E+04
 -1.55735E+03  1.68031E+04 -1.06887E+04  1.13403E+04 -1.19282E+04  2.93633E+03 -9.56072E+03 -2.19639E+03
 -4.70562E+03 -3.65147E+03 -8.01392E+02  1.80261E+03 -2.24054E+03  1.87803E+03 -3.69393E+03  3.70321E+03
 -8.78417E+03 -8.37025E+02 -9.43085E+03 -7.64552E+03 -3.60647E+03 -1.17755E+04  3.74316E+03 -8.71123E+03
  7.58198E+03 -4.52461E+03  4.97199E+03  2.12313E+03  3.37495E+02  3.20864E+03 -3.84956E+03 -2.38948E+02
 -3.91251E+03 -5.47980E+03 -1.30458E+03 -7.81449E+03  4.65804E+03 -8.11318E+03  9.89136E+03 -4.62714E+03
  1.26463E+04  6.51525E+02  8.96141E+03  6.42476E+03  1.68036E+03  9.41137E+03 -5.32254E+03  8.78963E+03
 -7.23847E+03  3.21170E+03 -4.00934E+03 -1.74959E+03  1.69506E+03 -1.90435E+03  5.73008E+03 -9.94646E+02
  4.65223E+03  3.48436E+03  1.39343E+03  6.83190E+03 -4.56205E+03  6.67252E+03 -8.31402E+03  1.51523E+03
 -5.55194E+03 -4.30743E+03  4.95627E+02 -7.26192E+03  3.94191E+03 -3.51333E+03  3.78800E+03  1.46437E+03
  4.81520E+02  4.02430E+03 -4.66151E+03  5.21911E+03 -6.15117E+03  2.16865E+03 -5.57507E+03 -1.12773E+03
 -3.46049E+03 -6.98844E+03  1.32973E+03 -8.26264E+03  7.06727E+03 -4.71670E+03  7.02487E+03  8.56866E+02
  5.04437E+03  5.83285E+03  3.05554E+02  8.39481E+03 -5.16493E+03  4.68729E+03 -5.89575E+03  7.73549E+01
 -6.15979E+03 -5.54294E+03 -1.66562E+03 -5.29326E+03  2.85283E+03 -4.71609E+03  3.34461E+03 -3.46292E+03
  2.91228E+03  7.23075E+02 -1.30959E+02  5.73535E+02  2.02694E+02 -1.09536E+03  2.37412E+02 -2.37934E+03
  4.03634E+03 -1.02339E+03  6.09135E+03  7.92392E+02  6.20635E+03  4.20400E+03  5.32607E+03  8.31383E+03
 -1.29987E+03  9.81027E+03 -9.02205E+03  7.27549E+03 -1.11113E+04  1.40752E+03 -9.59859E+03 -2.63006E+03
 -4.59128E+03 -7.12112E+03 -9.17475E+01 -5.57253E+03  2.57798E+03 -2.43165E+03  1.95862E+03 -1.61148E+03
  1.31208E+03 -1.85443E+03  2.29866E+03 -2.90639E+03  3.12987E+03 -2.09721E+03  4.00005E+03  2.60847E+02
  4.49794E+03  1.18543E+03  1.07184E+03  3.81288E+03 -2.45838E+03  3.14195E+03 -5.22514E+03  3.17260E+03
 -6.01995E+03 -1.13776E+03 -2.72674E+03 -3.92706E+03  5.35767E+01 -5.93404E+03  3.36450E+03 -6.14495E+03
  5.85493E+03 -2.77053E+03  7.57357E+03 -6.66621E+01  5.47536E+03  5.32384E+03  1.53010E+03  7.35068E+03
 -2.75280E+03  6.55166E+03 -3.82149E+03  2.09615E+03 -2.72334E+03 -9.19474E+02 -9.63847E+02 -1.07268E+03
 -7.48480E+02  7.24453E+02 -1.09559E+03  1.38917E+03 -2.19179E+03  1.78821E+03 -4.18905E+03 -2.83556E+02
 -1.58068E+03 -4.24018E+03  6.94140E+02 -5.34109E+03  3.05645E+03 -5.03211E+03  4.57373E+03 -1.37276E+03
  5.20068E+03  2.59579E+03  2.04122E+03  4.06680E+03 -1.21146E+03  4.99317E+03 -3.48496E+03  3.47402E+03
 -4.69379E+03  4.89358E+02 -3.89922E+03 -3.42837E+03 -3.24023E+02 -3.45336E+03  2.00515E+03 -2.81205E+03
  3.04917E+03 -1.31917E+03  2.02424E+03  2.08384E+02  1.03011E+03  2.04735E+03  6.84028E+02  6.88542E+02
  1.60198E+03  8.96450E+02  1.21361E+03  1.51639E+03  1.18190E+03  2.35126E+03  1.10453E+03  2.23057E+03
 -1.11203E+03  3.45042E+03 -2.79523E+03  4.36240E+03 -3.95817E+03  1.16912E+03 -5.02920E+03 -1.43366E+03
 -1.99296E+03 -4.19887E+03  8.88177E+02 -6.12237E+03  2.55477E+03 -3.01600E+03  4.02700E+03 -1.38129E+03
  2.66230E+03  2.88672E+03  4.83373E+02  2.84836E+03 -8.63342E+02  1.31014E+03 -1.50653E+03 -3.11523E+02
 -6.55998E+02 -2.44194E+03  1.32203E+03 -1.68391E+03  1.99741E+03 -1.08080E+03  1.43845E+03  2.84198E+02
  9.47774E+02  6.07289E+02  6.02662E+02  3.31701E+02 -6.35879E+02  8.31882E+02  1.04214E+03 -4.85038E+02
  7.42904E+01  1.24612E+02  2.13238E+03  5.28574E+02  5.56210E+02  3.06871E+03 -1.27556E+02  3.75561E+03
 -1.88883E+03  1.73188E+03 -2.73477E+03  5.44137E+02 -2.40991E+03 -1.07956E+03 -7.22783E+01 -1.78963E+03
  3.46888E+02 -1.54032E+03  1.32979E+03 -8.51454E+02  1.14657E+03  1.06715E+03 -7.52939E+02  2.07661E+03
 -1.76485E+03  8.88620E+02 -9.21717E+02 -1.45966E+03 -1.14369E+03 -1.82815E+03  6.62713E+02 -2.05272E+03
  9.74844E+02 -1.00072E+03  1.74637E+03 -3.48350E+01  1.23598E+03 -1.89887E+01  4.56325E+02  1.10057E+03
 -3.17868E+02  8.78602E+01 -1.09003E+03 -1.55074E+02  1.24785E+03 -1.61785E+03  3.18640E+03 -1.50172E+03
  1.83090E+03  1.86674E+02  2.86067E+03  8.69902E+02  9.66630E+02  2.25200E+03 -1.02295E+03  2.28847E+03
 -1.81797E+03  5.82628E+02 -2.02366E+03 -9.78715E+02 -9.39804E+02 -1.75814E+03  5.48030E+02 -1.03022E+03
  1.81761E+03 -1.10608E+03  1.09430E+03  7.02399E+02  1.24450E+02  1.78311E+03  1.81119E+02  1.82726E+03
 -1.06973E+02  1.79227E+03 -5.20805E+02  7.50266E+01 -5.58291E+02  1.45045E+02 -6.60255E+02  7.29672E+02
 -1.00007E+03  4.46180E+02 -2.31608E+03  6.15624E+02 -2.12947E+03 -3.40263E+02 -2.73582E+03 -1.20743E+03
 -1.09937E+03 -2.61677E+03  1.18283E+03 -3.66653E+03  2.06084E+03 -2.81779E+03  2.91629E+03 -1.26278E+03
  3.28190E+03  1.78205E+02  1.97821E+03  1.62573E+03 -1.92093E+02  2.19799E+03 -8.25918E+02  1.34568E+03
 -1.10042E+03  6.96248E+02 -3.38619E+02 -2.23483E+02 -3.17578E+02  1.85410E+02  3.04071E+01  9.70506E+01
 -6.21631E+02  9.44701E+01 -8.14424E+02  2.60137E+02  4.39510E+02 -1.10576E+03  1.12789E+02 -1.16335E+03
  1.53590E+03 -9.48257E+02  1.19767E+03  4.17518E+02  1.69734E+03  1.03711E+03 -3.58957E+02  1.75640E+03
 -8.77136E+02  2.76349E+03 -2.23299E+03  1.08788E+03 -2.36618E+03 -2.72446E+02 -1.39009E+03 -1.62610E+03
 -1.24465E+03 -2.22284E+03  9.75738E+02 -1.15856E+03  1.11613E+03 -7.70381E+02  1.58596E+03  1.46980E+02
  1.22384E+03  4.45423E+02 -2.36551E+01  6.18218E+02 -6.02982E+02  2.52223E+02 -7.67046E+02 -9.23600E+02
  1.31720E+02  3.02745E+02  8.54613E+02  7.56235E+02  4.52654E+02  5.53821E+02  1.00177E+03  1.10498E+03
 -5.32249E+02  1.00681E+03 -9.24442E+02  3.38183E+02 -1.37856E+03 -6.30631E+02 -7.70731E+01 -2.32528E+03
  5.92067E+02 -7.82905E+02  1.01328E+03  3.19232E+02  1.18048E+03 -8.37867E+02  1.12033E+03  1.02304E+03
  9.13069E+02  6.19663E+02  5.86945E+01  4.57581E+02 -8.09248E+02  6.24948E+02 -5.67248E+02 -1.00260E+02
 -1.08674E+03  1.33689E+02 -1.36153E+02  3.33785E+02 -1.37831E+03  3.72573E+02 -7.79617E+02 -3.96863E+02
 -1.59437E+03  3.83025E+02 -5.33514E+02 -1.18557E+03  6.38277E+02 -1.71502E+03  1.39134E+03 -3.16421E+02
  1.75995E+03  1.65699E+02  4.83624E+01  8.21269E+02 -1.07663E+02  1.27925E+03 -1.03922E+03  1.81637E+03
