 $NMID ID='MM_0lb_SNR400_12hz_g50_98.RAW', FMTDAT='(8E13.5)'
 TRAMP=1., VOLUME=1. $END
  3.08814E+05  2.26935E+02  3.38293E+05  2.51082E+05  8.51693E+04  3.37807E+05 -1.31782E+05  2.50952E+05
 -1.90317E+05  8.33345E+04 -1.11787E+05 -3.28397E+04  3.48879E+02 -5.02236E+04  5.36324E+04  1.52454E+02
  3.55714E+04  5.20193E+04 -1.70907E+04  7.59957E+04 -6.06144E+04  6.37279E+04 -8.46640E+04  3.25257E+04
 -8.22548E+04 -1.16449E+04 -5.78674E+04 -5.19180E+04 -1.50053E+04 -7.00042E+04  2.76683E+04 -4.59926E+04
  4.08886E+04  3.95840E+03  1.66573E+04  4.79641E+04 -3.43055E+04  4.70629E+04 -6.73216E+04  2.57272E+02
 -5.42899E+04 -5.74962E+04 -7.13992E+03 -7.73643E+04  3.47649E+04 -5.65456E+04  4.86719E+04 -1.79633E+04
  4.40375E+04  1.06149E+04  3.17610E+04  2.58477E+04  1.58549E+04  2.99896E+04 -6.07947E+03  2.81055E+04
 -2.22201E+04  1.23533E+04 -1.79921E+04 -5.72117E+03  5.93094E+03 -7.43637E+03  2.23667E+04  1.33672E+04
  6.88766E+03  3.59139E+04 -3.26781E+04  3.60412E+04 -6.44075E+04  1.83712E+03 -5.76645E+04 -4.27379E+04
 -1.25382E+04 -6.33731E+04  4.03938E+04 -4.62171E+04  5.87523E+04 -2.47791E+03  3.54073E+04  3.37446E+04
 -5.89478E+03  3.65465E+04 -3.06799E+04  1.70291E+04 -3.25685E+04 -3.52948E+03 -1.75232E+04 -1.16793E+04
 -8.69090E+03 -1.39949E+04 -3.35389E+02 -1.88635E+04  8.24545E+03 -2.31000E+04  1.55777E+04 -1.31469E+04
  1.12272E+04  4.79101E+03 -9.28685E+03  1.31804E+04 -2.17456E+04 -5.77216E+03 -8.76368E+03 -3.49107E+04
  2.39353E+04 -4.48824E+04  4.99335E+04 -1.99359E+04  4.63642E+04  1.96829E+04  1.62730E+04  4.53779E+04
 -1.65931E+04  3.42692E+04 -2.59781E+04  2.58927E+03 -1.02709E+04 -2.86279E+04  2.09605E+04 -3.49940E+04
  4.15776E+04 -9.94298E+03  3.77585E+04  2.45073E+04  1.99649E+04  4.81386E+04 -8.00426E+03  5.34147E+04
 -3.29737E+04  3.50660E+04 -4.40486E+04  1.01141E+04 -4.46682E+04 -1.73863E+04 -2.45495E+04 -3.94053E+04
  7.70736E+03 -3.89668E+04  3.29032E+04 -1.57067E+04  3.03942E+04  9.75425E+03  4.42510E+03  2.02171E+04
 -1.44390E+04  9.47146E+03 -1.11797E+04 -7.42499E+03  5.54001E+03 -1.17467E+04  1.88447E+04  6.21710E+03
  1.41800E+04  2.27154E+04 -5.60572E+03  2.51009E+04 -2.26354E+04  1.31564E+04 -2.91054E+04 -3.82912E+03
 -2.31417E+04 -1.82497E+04 -1.00198E+04 -2.24346E+04  4.79448E+03 -2.13979E+04  1.75011E+04 -1.94156E+04
  2.89616E+04 -1.38886E+04  3.49675E+04  3.59326E+03  2.39790E+04  2.18981E+04  4.00275E+03  3.87217E+04
 -1.88976E+04  3.15355E+04 -2.92595E+04  1.10642E+04 -2.17481E+04 -1.02355E+04 -4.34656E+03 -1.32642E+04
  1.13421E+03 -1.88731E+03 -5.81202E+03  7.57935E+03 -1.74523E+04  5.10195E+03 -1.71661E+04 -7.73929E+03
 -1.10148E+04 -2.09712E+04  5.38256E+03 -2.53254E+04  1.65306E+04 -1.80298E+04  1.97331E+04 -1.80361E+03
  1.29601E+04  1.46030E+04 -7.45299E+02  2.08264E+04 -1.45246E+04  1.19347E+04 -2.02385E+04 -4.23549E+03
 -1.51693E+04 -1.80624E+04 -2.33302E+03 -2.58021E+04  1.09863E+04 -2.01931E+04  2.11738E+04 -1.10483E+04
  1.95445E+04 -1.07042E+01  1.38966E+04  3.90975E+03  7.18728E+03  1.49887E+03  1.08273E+04 -2.15281E+03
  1.93417E+04  2.45296E+03  2.22070E+04  1.60844E+04  1.48876E+04  3.33053E+04 -2.14405E+03  3.76316E+04
 -2.12858E+04  3.11610E+04 -3.56965E+04  1.58048E+04 -3.84470E+04 -2.74970E+03 -3.08815E+04 -2.23475E+04
 -1.23855E+04 -3.18297E+04  1.14047E+04 -2.86826E+04  2.37967E+04 -1.40019E+04  2.14067E+04  6.63330E+03
  8.04150E+03  1.62566E+04 -1.02858E+04  1.40433E+04 -1.70833E+04  2.20131E+03 -1.30994E+04 -1.16793E+04
  1.38107E+02 -1.69248E+04  8.79420E+03 -1.25849E+04  1.10994E+04 -1.56202E+03  2.44386E+03  7.03799E+03
 -7.08916E+03  4.00202E+03 -6.76953E+03 -6.16841E+03 -1.47927E+03 -1.54360E+04  1.00966E+04 -1.62186E+04
  1.87763E+04 -9.40783E+03  2.14165E+04  3.62913E+03  1.87637E+04  1.55864E+04  8.23583E+03  2.33750E+04
 -4.37509E+03  2.58986E+04 -1.63170E+04  1.56755E+04 -1.87294E+04  3.48929E+03 -1.24652E+04 -3.85023E+03
 -5.48506E+03 -5.74438E+03 -5.43194E+02  2.16976E+02 -2.38043E+03  3.17668E+03 -6.34388E+03  5.07662E+03
 -1.24620E+04 -8.27111E+02 -1.27959E+04 -1.01439E+04 -5.27415E+03 -1.64072E+04  5.90083E+03 -1.26525E+04
  1.09019E+04 -5.78405E+03  7.77192E+03  3.80594E+03 -8.76833E+01  4.50281E+03 -5.95815E+03  5.44162E+02
 -5.99698E+03 -8.56457E+03 -1.23224E+03 -1.24904E+04  7.75856E+03 -1.28124E+04  1.62313E+04 -6.62449E+03
  1.91500E+04  1.63618E+03  1.40992E+04  1.07005E+04  2.31095E+03  1.58470E+04 -8.32622E+03  1.23480E+04
 -1.08047E+04  3.72594E+03 -5.06310E+03 -2.97305E+03  1.90305E+03 -3.27507E+03  7.10787E+03 -9.57940E+02
  5.83557E+03  5.27759E+03  1.54975E+03  9.74995E+03 -6.49668E+03  9.65950E+03 -1.27887E+04  2.85464E+03
 -8.32752E+03 -6.60033E+03  2.78719E+02 -1.08999E+04  7.57803E+03 -5.23432E+03  7.17888E+03  2.66761E+03
  1.13482E+03  6.99922E+03 -6.30766E+03  9.34597E+03 -1.10955E+04  4.49173E+03 -1.03547E+04 -3.60544E+03
 -6.20665E+03 -1.19499E+04  2.68773E+03 -1.42008E+04  1.16933E+04 -8.38373E+03  1.25406E+04  2.10602E+03
  7.34940E+03  1.04023E+04 -6.42015E+02  1.19754E+04 -9.14665E+03  7.11080E+03 -1.00768E+04 -3.47019E+02
 -8.82281E+03 -8.66053E+03 -1.14968E+03 -8.94821E+03  5.58318E+03 -7.49087E+03  6.06440E+03 -3.29407E+03
  4.36285E+03  1.37754E+03 -1.10695E+03  4.29736E+02 -2.19823E+02 -2.37351E+03  1.04497E+03 -4.74990E+03
  9.15094E+03 -3.34650E+03  1.15093E+04  1.65184E+03  1.22528E+04  8.30686E+03  7.85353E+03  1.52221E+04
 -2.93350E+03  1.72081E+04 -1.48125E+04  1.32556E+04 -1.96730E+04  2.39845E+03 -1.51192E+04 -6.46089E+03
 -7.74502E+03 -1.29120E+04 -5.65858E+02 -1.10746E+04  3.72839E+03 -6.12882E+03  3.03552E+03 -3.87408E+03
  2.06253E+03 -2.00032E+03  3.24892E+03 -2.97965E+03  4.88553E+03 -2.59320E+03  6.07328E+03 -1.22612E+03
  8.71569E+03  2.15468E+03  3.73151E+03  6.44661E+03 -1.97503E+03  7.89385E+03 -8.64222E+03  5.86504E+03
 -1.08635E+04 -1.51676E+03 -6.66149E+03 -7.33065E+03 -8.49065E+02 -1.12094E+04  6.51231E+03 -1.13209E+04
  1.19286E+04 -6.97499E+03  1.43723E+04  1.55140E+03  1.01247E+04  1.00339E+04  1.74069E+03  1.27979E+04
 -5.53737E+03  1.02976E+04 -7.55771E+03  3.46583E+03 -5.08930E+03 -1.15448E+03 -1.55841E+03 -1.83422E+03
 -4.84846E+02  4.00585E+02 -2.56958E+03  2.78723E+03 -4.85493E+03  1.76535E+03 -7.61760E+03 -6.90527E+02
 -5.72925E+03 -8.00318E+03  3.07625E+02 -1.07990E+04  6.06092E+03 -9.98687E+03  9.50983E+03 -2.22720E+03
  1.01357E+04  4.94935E+03  4.64855E+03  8.76688E+03 -2.19995E+03  1.04000E+04 -7.51303E+03  6.52119E+03
 -1.03493E+04  6.51026E+02 -8.28462E+03 -5.95532E+03 -6.44599E+02 -8.65360E+03  3.89153E+03 -6.08818E+03
  6.19481E+03 -2.54177E+03  4.02855E+03  1.26749E+03  2.05727E+03  3.30389E+03  9.50769E+02  1.04251E+03
  2.15991E+03  4.14010E+02  2.90246E+03  2.13082E+03  3.04227E+03  3.92638E+03  3.97256E+03  5.37216E+03
 -2.04676E+03  7.63439E+03 -6.56554E+03  8.60174E+03 -9.32998E+03  2.77633E+03 -1.05556E+04 -4.08451E+03
 -5.19464E+03 -1.04775E+04  1.91732E+03 -1.11538E+04  6.04981E+03 -7.31666E+03  8.07123E+03 -1.72976E+03
  6.34151E+03  4.20538E+03  1.06268E+03  5.31948E+03 -2.09221E+03  4.52238E+03 -4.34941E+03 -8.46230E+02
 -2.67129E+03 -3.97014E+03  2.73918E+03 -4.64083E+03  4.23528E+03 -1.63804E+03  3.55319E+03  3.71696E+02
  2.31795E+03  1.75912E+03  6.25494E+02  9.26786E+02 -9.38927E+01  1.00243E+03  2.13197E+03 -8.90500E+02
  1.71695E+03 -8.40214E+02  4.57891E+03  1.13310E+03  1.83418E+03  4.83125E+03 -6.07345E+02  6.95078E+03
 -4.14479E+03  3.96511E+03 -6.47700E+03  1.36198E+03 -6.53050E+03 -2.32224E+03 -2.09540E+03 -3.38179E+03
  3.19089E+02 -4.21048E+03  3.19087E+03 -8.78047E+02  1.70413E+03  2.04894E+03 -9.07539E+02  3.22966E+03
 -4.22209E+03  1.55307E+03 -4.62284E+03 -2.10764E+03 -2.77058E+03 -6.37636E+03  5.35223E+02 -5.89007E+03
  3.62034E+03 -2.96318E+03  3.33152E+03 -1.61086E+02  3.03193E+03  1.39050E+03  6.11455E+02  2.76834E+03
 -1.63668E+03  9.37367E+02 -2.44544E+03 -1.26052E+03  1.53153E+03 -3.86604E+03  4.58041E+03 -3.46816E+03
  5.96411E+03  2.75340E+02  6.43999E+03  3.48318E+03  1.72682E+03  6.46630E+03 -2.63085E+03  5.13656E+03
 -4.77978E+03  2.32738E+03 -4.40846E+03 -9.49633E+02 -2.80632E+03 -4.31514E+03  1.12051E+03 -3.69656E+03
  4.04100E+03 -2.30377E+03  2.72703E+03  2.10241E+03  1.26091E+03  4.33114E+03 -4.34697E+02  3.22397E+03
 -1.95699E+03  1.80485E+03 -2.16799E+03  6.29635E+01 -3.97360E+02  3.67769E+02 -1.41639E+03  8.53496E+02
 -2.39808E+03  3.09993E+03 -4.62982E+03  2.13452E+03 -5.12278E+03  2.66941E+02 -6.96854E+03 -4.50045E+03
 -3.75889E+03 -7.63314E+03  1.60826E+03 -9.13145E+03  5.75145E+03 -7.04268E+03  8.35344E+03 -3.35894E+03
  8.02826E+03  1.32784E+03  5.07871E+03  5.00435E+03  9.71088E+01  5.96709E+03 -1.92780E+03  4.66465E+03
 -3.43932E+03  1.64924E+03 -1.54260E+03 -1.32746E+03 -5.91805E+02 -1.03209E+03 -6.26751E+01 -6.84397E+02
 -1.35776E+03  9.49854E+01 -1.26002E+03 -4.59323E+02  1.10568E+02 -1.46135E+03  3.41977E+01 -2.03263E+03
  2.97891E+03 -2.18195E+03  2.75849E+03 -1.75284E+02  4.41389E+03  2.96439E+03  1.05920E+03  5.93817E+03
 -2.57345E+03  7.39952E+03 -6.10393E+03  2.84535E+03 -7.12058E+03 -4.61970E+02 -5.80943E+03 -5.17362E+03
 -2.53182E+03 -6.33462E+03  2.20634E+03 -5.31157E+03  3.56841E+03 -2.71999E+03  3.66167E+03  1.14379E+03
  2.46930E+03  2.00327E+03  4.18639E+02  1.26877E+03 -1.41248E+03 -1.95609E+02  6.11260E+01 -1.03499E+03
  1.86312E+03 -9.50420E+02  2.14575E+03  8.03233E+02  1.08423E+03  2.79691E+03  6.46835E+02  2.97086E+03
 -2.67588E+03  2.85857E+03 -4.29620E+03  1.00472E+02 -3.81030E+03 -2.93308E+03 -4.06386E+02 -4.75376E+03
  2.37634E+03 -4.10588E+03  3.83850E+03 -1.49985E+03  4.71961E+03  2.00962E+02  2.54962E+03  3.92268E+03
  8.17311E+02  3.98946E+03 -1.52535E+03  2.12421E+03 -2.46424E+03  1.69465E+03 -2.13134E+03  2.08122E+02
 -1.41966E+03  1.64646E+02 -8.42706E+02  7.68508E+02 -2.12770E+03  4.38029E+02 -3.08158E+03 -1.15515E+03
 -2.59049E+03 -1.50118E+03 -5.06725E+02 -3.59339E+03  1.78795E+03 -4.78450E+03  3.76329E+03 -1.80717E+03
  3.19444E+03  7.21852E+02  1.77821E+03  2.07583E+03 -4.53278E+01  3.94468E+03 -2.86626E+03  2.30571E+03
