 $NMID ID='MM_0lb_SNR400_8hz_g60_28.RAW', FMTDAT='(8E13.5)'
 TRAMP=1., VOLUME=1. $END
  3.09067E+05  2.17387E+02  3.38895E+05  2.51301E+05  8.51926E+04  3.39062E+05 -1.32642E+05  2.53162E+05
 -1.91537E+05  8.36946E+04 -1.13030E+05 -3.23923E+04 -9.46756E+01 -5.09956E+04  5.37833E+04 -9.20397E+02
  3.60027E+04  5.28037E+04 -1.65525E+04  7.69194E+04 -6.13608E+04  6.47100E+04 -8.60726E+04  3.31534E+04
 -8.31218E+04 -1.14562E+04 -5.88596E+04 -5.30192E+04 -1.55590E+04 -7.12477E+04  2.86347E+04 -4.70920E+04
  4.14216E+04  3.60454E+03  1.69645E+04  4.87134E+04 -3.45951E+04  4.88925E+04 -6.88251E+04  1.40216E+02
 -5.60254E+04 -5.80903E+04 -7.06244E+03 -7.87756E+04  3.55036E+04 -5.78539E+04  5.07222E+04 -1.83227E+04
  4.64119E+04  1.21165E+04  3.39506E+04  2.65042E+04  1.60454E+04  3.11909E+04 -6.90097E+03  2.75671E+04
 -2.26805E+04  1.10578E+04 -1.82897E+04 -5.43294E+03  7.09987E+03 -7.43671E+03  2.43531E+04  1.38239E+04
  6.82430E+03  3.84392E+04 -3.52717E+04  3.83459E+04 -6.66087E+04  2.15370E+03 -6.01273E+04 -4.51072E+04
 -1.31596E+04 -6.70048E+04  4.27736E+04 -4.80485E+04  6.33162E+04 -2.17500E+03  3.70897E+04  3.51824E+04
 -5.54192E+03  4.01016E+04 -3.25759E+04  1.99480E+04 -3.51109E+04 -3.09743E+03 -2.03496E+04 -1.24815E+04
 -1.07820E+04 -1.60297E+04 -6.65526E+02 -2.03648E+04  8.71854E+03 -2.38103E+04  1.56419E+04 -1.22811E+04
  1.00830E+04  6.93108E+03 -1.21975E+04  1.35044E+04 -2.53904E+04 -7.17162E+03 -8.82747E+03 -3.87054E+04
  2.60624E+04 -4.69228E+04  5.34377E+04 -2.13250E+04  4.98041E+04  2.20377E+04  1.75578E+04  4.89236E+04
 -1.75213E+04  3.74605E+04 -2.88744E+04  3.07475E+03 -1.25819E+04 -3.06483E+04  2.14830E+04 -3.87383E+04
  4.65564E+04 -1.11102E+04  4.20099E+04  2.43522E+04  2.25902E+04  5.27613E+04 -7.52967E+03  5.83303E+04
 -3.78973E+04  3.95495E+04 -5.00430E+04  1.15238E+04 -5.03898E+04 -1.96904E+04 -2.65049E+04 -4.43432E+04
  7.68494E+03 -4.36545E+04  3.56118E+04 -1.82292E+04  3.32364E+04  1.11358E+04  5.87424E+03  2.10231E+04
 -1.44463E+04  9.99496E+03 -1.12559E+04 -7.69766E+03  4.88038E+03 -1.08307E+04  1.95156E+04  5.25893E+03
  1.58358E+04  2.22105E+04 -4.48132E+03  2.78332E+04 -2.48741E+04  1.56921E+04 -3.30187E+04 -2.23285E+03
 -2.79214E+04 -1.88477E+04 -1.35809E+04 -2.64414E+04  4.97544E+03 -2.82220E+04  2.15759E+04 -2.51850E+04
  3.46208E+04 -1.48378E+04  3.95639E+04  5.77052E+03  2.88634E+04  2.66697E+04  5.33399E+03  4.36747E+04
 -2.05340E+04  3.62539E+04 -3.10775E+04  1.22080E+04 -2.28756E+04 -9.48479E+03 -5.07014E+03 -1.18719E+04
 -5.92421E+02 -2.73051E+02 -8.28966E+03  9.86796E+03 -2.25336E+04  4.55794E+03 -2.21949E+04 -1.03935E+04
 -1.25306E+04 -2.52645E+04  5.72705E+03 -2.87474E+04  2.04978E+04 -2.06132E+04  2.37860E+04 -1.26108E+03
  1.56724E+04  1.79441E+04 -1.65547E+03  2.59072E+04 -1.77217E+04  1.42116E+04 -2.56197E+04 -5.53290E+03
 -1.81112E+04 -2.23828E+04 -2.64929E+03 -2.98270E+04  1.33713E+04 -2.45460E+04  2.45295E+04 -1.30618E+04
  2.33696E+04 -2.05119E+02  1.74077E+04  5.30967E+03  1.04477E+04  2.28462E+03  1.32238E+04 -1.77949E+03
  2.40321E+04  3.17059E+03  2.85386E+04  2.05331E+04  1.95770E+04  4.10692E+04 -2.81923E+03  4.91051E+04
 -2.74528E+04  4.07674E+04 -4.61930E+04  2.20282E+04 -5.00108E+04 -3.56551E+03 -4.00122E+04 -2.91390E+04
 -1.61956E+04 -4.12986E+04  1.36923E+04 -3.50164E+04  3.04198E+04 -1.61589E+04  2.61571E+04  9.15782E+03
  8.30643E+03  2.07199E+04 -1.35638E+04  1.68023E+04 -2.22315E+04  2.64405E+03 -1.59931E+04 -1.36729E+04
  6.03875E+02 -2.10332E+04  1.12532E+04 -1.66422E+04  1.50547E+04 -1.30851E+03  4.51865E+03  9.51329E+03
 -1.03385E+04  5.27924E+03 -1.05750E+04 -7.01454E+03 -3.18448E+03 -2.02928E+04  1.32754E+04 -2.29592E+04
  2.59604E+04 -1.31376E+04  3.00525E+04  3.13969E+03  2.62296E+04  2.14072E+04  1.14865E+04  3.29676E+04
 -6.23592E+03  3.51650E+04 -2.34857E+04  2.08336E+04 -2.46559E+04  4.16716E+03 -1.72478E+04 -6.66175E+03
 -6.99233E+03 -8.98172E+03 -9.31881E+01  5.89908E+02 -3.72555E+03  2.89499E+03 -8.64778E+03  5.55675E+03
 -1.61446E+04 -1.94154E+03 -1.69680E+04 -1.23173E+04 -6.23203E+03 -2.16881E+04  7.03099E+03 -1.76030E+04
  1.41688E+04 -7.16972E+03  1.03559E+04  5.96961E+03 -1.17810E+03  6.82700E+03 -9.42035E+03  2.14251E+02
 -8.61992E+03 -1.12431E+04 -1.11351E+03 -1.76055E+04  1.07068E+04 -1.93025E+04  2.24668E+04 -9.56268E+03
  2.60925E+04  3.06283E+03  1.95159E+04  1.52847E+04  3.55053E+03  2.18394E+04 -1.03666E+04  1.72369E+04
 -1.38796E+04  4.50596E+03 -6.65410E+03 -4.55719E+03  2.26253E+03 -5.60170E+03  9.61617E+03 -1.56573E+03
  7.56935E+03  7.85235E+03  1.02887E+03  1.47169E+04 -1.07275E+04  1.31924E+04 -1.75004E+04  3.64104E+03
 -1.22974E+04 -9.53114E+03 -1.11409E+01 -1.44695E+04  1.08080E+04 -7.76808E+03  1.15947E+04  3.27930E+03
  2.27174E+03  1.19955E+04 -9.21103E+03  1.36626E+04 -1.56886E+04  7.16210E+03 -1.60056E+04 -5.83202E+03
 -8.93189E+03 -1.91604E+04  3.99948E+03 -2.04361E+04  1.91610E+04 -1.32712E+04  1.99249E+04  3.49658E+03
  1.16541E+04  1.63062E+04 -2.66152E+03  1.90423E+04 -1.27583E+04  1.04100E+04 -1.43970E+04 -2.36194E+03
 -1.12756E+04 -1.28715E+04 -2.29478E+03 -1.40906E+04  7.69105E+03 -1.12859E+04  9.67318E+03 -4.19652E+03
  6.31737E+03  3.62962E+03 -9.78004E+02  2.77161E+03 -9.10945E+02 -5.22895E+03  3.57253E+03 -8.88032E+03
  1.39297E+04 -6.08919E+03  1.84723E+04  1.83838E+03  1.84351E+04  1.28200E+04  1.17267E+04  2.48678E+04
 -6.28587E+03  2.79957E+04 -2.43775E+04  2.05314E+04 -2.95171E+04  4.43279E+03 -2.44526E+04 -1.11421E+04
 -1.27494E+04 -2.01899E+04  4.05132E+02 -1.72694E+04  5.81807E+03 -9.65885E+03  6.32767E+03 -5.72990E+03
  5.20387E+03 -3.38213E+03  4.57686E+03 -4.78865E+03  6.94187E+03 -3.44765E+03  9.56674E+03 -2.27593E+03
  1.22966E+04  2.98366E+03  7.01014E+03  1.04246E+04 -2.08677E+03  1.36514E+04 -1.44257E+04  1.01646E+04
 -1.71054E+04 -1.84200E+03 -1.08542E+04 -1.25354E+04 -2.01815E+03 -1.84273E+04  9.81230E+03 -1.92513E+04
  1.99177E+04 -1.07516E+04  2.25297E+04  3.53473E+03  1.61485E+04  1.66248E+04  2.68294E+03  2.08625E+04
 -8.52693E+03  1.66535E+04 -1.16867E+04  6.25164E+03 -8.81618E+03 -2.67317E+03 -3.83861E+03 -2.95735E+03
 -1.64972E+03  7.67479E+01 -2.12381E+03  2.89050E+03 -6.21187E+03  3.62091E+03 -1.18826E+04 -1.79150E+03
 -9.00316E+03 -1.14603E+04 -8.06440E+02 -1.75168E+04  1.10562E+04 -1.67727E+04  1.84435E+04 -5.66598E+03
  1.78268E+04  7.83841E+03  8.20565E+03  1.59786E+04 -3.95888E+03  1.81072E+04 -1.31829E+04  1.11223E+04
 -1.70009E+04  9.86721E+02 -1.22264E+04 -1.08111E+04 -1.34682E+03 -1.58114E+04  7.61042E+03 -1.14405E+04
  1.14118E+04 -3.49868E+03  8.37786E+03  3.28885E+03  3.74385E+03  5.59026E+03  1.12452E+03  3.19424E+03
  2.89739E+03  1.14180E+03  4.83414E+03  2.00583E+03  6.58650E+03  5.91420E+03  4.37408E+03  9.52310E+03
 -4.05271E+03  1.35209E+04 -1.21102E+04  1.48591E+04 -1.94139E+04  3.49975E+03 -1.91765E+04 -7.59011E+03
 -1.01651E+04 -1.84512E+04  2.67779E+03 -2.02706E+04  1.18243E+04 -1.26958E+04  1.57833E+04 -3.33010E+03
  1.17123E+04  6.82029E+03  2.05409E+03  1.08903E+04 -5.50245E+03  5.78568E+03 -8.35784E+03 -2.96926E+02
 -3.91010E+03 -7.10897E+03  3.94501E+03 -7.64461E+03  7.43884E+03 -4.43196E+03  8.31503E+03  2.22839E+03
  5.72883E+03  4.02278E+03  2.06146E+03  2.54824E+03 -5.31220E+02  2.03666E+03  1.64787E+03 -3.53054E+02
  2.77152E+03 -7.59794E+02  6.40040E+03  4.17163E+03  4.44281E+03  9.72721E+03 -2.16699E+03  1.28507E+04
 -9.37185E+03  9.11177E+03 -1.16245E+04  1.89538E+03 -1.11083E+04 -3.41596E+03 -4.54439E+03 -8.39332E+03
  1.66183E+03 -7.71353E+03  6.10093E+03 -3.04078E+03  4.12800E+03  4.18204E+03 -1.28792E+03  7.17638E+03
 -7.26079E+03  4.30495E+03 -8.81511E+03 -4.10595E+03 -4.94008E+03 -1.10516E+04  1.59446E+03 -1.06757E+04
  6.29366E+03 -6.66690E+03  7.49700E+03 -4.84199E+02  5.99385E+03  2.94552E+03  1.49047E+03  5.65731E+03
 -3.14611E+03  1.56785E+03 -5.36661E+03 -3.33423E+03  1.79023E+03 -8.55191E+03  9.35031E+03 -7.04124E+03
  1.21286E+04  8.98362E+02  1.14871E+04  8.60923E+03  3.73322E+03  1.35629E+04 -4.21172E+03  1.24277E+04
 -1.06557E+04  6.32257E+03 -1.16745E+04 -1.68386E+03 -5.71290E+03 -8.61956E+03  9.96872E+02 -8.17577E+03
  7.30431E+03 -3.69898E+03  6.12041E+03  3.63713E+03  8.64050E+02  6.60402E+03 -2.16160E+03  6.21511E+03
 -1.71540E+03  3.38352E+03 -2.95776E+03  7.25634E+02 -1.43050E+03  8.91425E+02 -1.36177E+03  2.08089E+03
 -3.38142E+03  4.77274E+03 -8.34964E+03  4.54008E+03 -1.27419E+04  7.86742E+02 -1.33332E+04 -9.11449E+03
 -7.62583E+03 -1.61666E+04  3.96887E+03 -2.01590E+04  1.27153E+04 -1.50067E+04  1.86412E+04 -5.83525E+03
  1.86190E+04  4.13488E+03  1.08040E+04  1.16850E+04  7.74583E+02  1.31136E+04 -5.97111E+03  1.09308E+04
 -7.65296E+03  3.55443E+03 -4.59320E+03 -1.41354E+03 -1.50106E+03 -1.90498E+03 -1.18052E+03 -6.22252E+02
 -1.56664E+03  1.49592E+02 -3.65475E+03 -7.19662E+01 -1.87236E+03 -2.93661E+03  8.19416E+02 -4.74641E+03
  6.01262E+03 -4.63943E+03  8.47318E+03 -1.05642E+03  1.07823E+04  7.62795E+03  2.91829E+03  1.32417E+04
 -6.66617E+03  1.58627E+04 -1.48828E+04  9.40702E+03 -1.73102E+04 -1.30475E+03 -1.23995E+04 -1.07743E+04
 -5.11813E+03 -1.35558E+04  3.57904E+03 -1.25684E+04  9.62629E+03 -6.58239E+03  9.34138E+03  4.23279E+02
  4.80876E+03  4.05867E+03 -1.30043E+03  4.09008E+03 -2.31325E+03 -1.29316E+03  3.73949E+02 -2.97502E+03
  4.24300E+03 -1.95878E+03  6.03467E+03  9.71007E+02  3.86453E+03  5.19425E+03 -4.43630E+02  7.66138E+03
 -6.50471E+03  6.29298E+03 -9.61490E+03  7.76417E+02 -8.84573E+03 -6.35654E+03 -1.60962E+03 -1.21870E+04
  6.82000E+03 -1.05457E+04  1.04023E+04 -2.96095E+03  1.10482E+04  2.22566E+03  6.04100E+03  8.31390E+03
  1.42127E+03  8.97129E+03 -3.87417E+03  7.59743E+03 -6.52938E+03  3.61592E+03 -4.48237E+03  8.28962E+02
 -3.32899E+03  4.08273E+01 -2.80638E+03  4.41122E+02 -4.65217E+03  1.12455E+03 -6.67769E+03 -1.43299E+03
 -6.49283E+03 -5.45071E+03 -2.29687E+03 -9.73860E+03  3.72282E+03 -9.76738E+03  9.41072E+03 -5.92112E+03
  9.31885E+03  1.78402E+02  4.41520E+03  7.28548E+03 -8.61436E+02  9.81862E+03 -7.29885E+03  6.54890E+03
