 $NMID ID='MM_0lb_SNR400_14hz_g55_17.RAW', FMTDAT='(8E13.5)'
 TRAMP=1., VOLUME=1. $END
  3.10211E+05  5.90678E+00  3.37197E+05  2.50138E+05  8.48172E+04  3.37748E+05 -1.32301E+05  2.51016E+05
 -1.90486E+05  8.37844E+04 -1.11548E+05 -3.19145E+04  1.03810E+03 -5.08849E+04  5.32777E+04 -1.44177E+02
  3.53278E+04  5.29926E+04 -1.64552E+04  7.53922E+04 -5.98651E+04  6.38000E+04 -8.46054E+04  3.16997E+04
 -8.09148E+04 -1.14494E+04 -5.76253E+04 -5.14266E+04 -1.47914E+04 -6.99445E+04  2.83453E+04 -4.63673E+04
  4.05291E+04  3.87345E+03  1.65432E+04  4.78271E+04 -3.45294E+04  4.72286E+04 -6.66837E+04  1.92325E+02
 -5.34120E+04 -5.65751E+04 -6.56903E+03 -7.74406E+04  3.50114E+04 -5.62099E+04  4.80455E+04 -1.76605E+04
  4.36051E+04  1.15556E+04  3.18216E+04  2.55136E+04  1.53907E+04  2.95601E+04 -5.65309E+03  2.78128E+04
 -2.20039E+04  1.23129E+04 -1.86804E+04 -5.30508E+03  6.55892E+03 -7.47301E+03  2.23726E+04  1.17463E+04
  7.18156E+03  3.59765E+04 -3.27472E+04  3.55701E+04 -6.35919E+04  1.92742E+03 -5.69019E+04 -4.35564E+04
 -1.28213E+04 -6.34287E+04  4.02667E+04 -4.57607E+04  5.88990E+04 -2.60265E+03  3.46540E+04  3.29741E+04
 -6.46061E+03  3.68439E+04 -3.07258E+04  1.67341E+04 -3.03796E+04 -3.95012E+03 -1.74209E+04 -1.07100E+04
 -8.36217E+03 -1.34289E+04 -4.47921E+02 -1.88353E+04  7.43185E+03 -2.30951E+04  1.51214E+04 -1.36487E+04
  1.08396E+04  5.33299E+03 -8.11634E+03  1.30494E+04 -2.11292E+04 -4.48327E+03 -8.34571E+03 -3.44348E+04
  2.34457E+04 -4.35933E+04  4.93740E+04 -2.01273E+04  4.49334E+04  1.95123E+04  1.59870E+04  4.46653E+04
 -1.60292E+04  3.38404E+04 -2.58156E+04  1.63183E+03 -1.11174E+04 -2.85171E+04  2.11220E+04 -3.44408E+04
  4.15940E+04 -8.98226E+03  3.67505E+04  2.40843E+04  1.87227E+04  4.71081E+04 -8.16133E+03  5.13555E+04
 -3.21719E+04  3.52771E+04 -4.33751E+04  9.46876E+03 -4.35329E+04 -1.66592E+04 -2.33952E+04 -3.85540E+04
  6.75710E+03 -3.86512E+04  3.21122E+04 -1.51212E+04  3.02655E+04  1.12395E+04  3.81487E+03  1.84841E+04
 -1.38974E+04  8.67801E+03 -1.04040E+04 -7.61954E+03  5.47007E+03 -1.07211E+04  1.83695E+04  5.89091E+03
  1.39932E+04  2.23935E+04 -6.06523E+03  2.49295E+04 -2.21860E+04  1.16320E+04 -2.82788E+04 -3.82625E+03
 -2.12135E+04 -1.70807E+04 -8.65603E+03 -2.07675E+04  3.59389E+03 -2.02347E+04  1.67065E+04 -1.89315E+04
  2.68454E+04 -1.32053E+04  3.33545E+04  3.93254E+03  2.42023E+04  2.05402E+04  3.65331E+03  3.64933E+04
 -1.79569E+04  3.11325E+04 -2.84597E+04  1.08655E+04 -2.16478E+04 -1.05350E+04 -4.63158E+03 -1.33094E+04
  1.53657E+03 -3.12992E+03 -5.46264E+03  6.99273E+03 -1.71005E+04  4.25573E+03 -1.69610E+04 -7.70553E+03
 -1.03223E+04 -1.92834E+04  5.63458E+03 -2.34974E+04  1.55978E+04 -1.72907E+04  1.86420E+04 -1.25907E+03
  1.17463E+04  1.31123E+04 -1.58318E+03  1.95371E+04 -1.32406E+04  1.08457E+04 -1.92654E+04 -3.87916E+03
 -1.40485E+04 -1.79962E+04 -1.41754E+03 -2.40764E+04  1.09081E+04 -1.95874E+04  1.95299E+04 -9.54899E+03
  1.83340E+04 -1.51709E+02  1.39356E+04  4.59860E+03  6.68294E+03  1.51245E+02  9.79090E+03 -1.70934E+03
  1.82385E+04  2.03387E+03  1.99890E+04  1.53139E+04  1.32015E+04  3.13455E+04 -3.26473E+03  3.56537E+04
 -2.03991E+04  2.84442E+04 -3.34113E+04  1.44873E+04 -3.55277E+04 -3.07898E+03 -2.94265E+04 -2.00670E+04
 -1.23527E+04 -2.95397E+04  9.90014E+03 -2.55816E+04  2.19512E+04 -1.29331E+04  1.90502E+04  5.37390E+03
  8.04316E+03  1.49733E+04 -9.66741E+03  1.28572E+04 -1.63658E+04  2.95422E+03 -1.28871E+04 -1.11064E+04
  1.14356E+02 -1.53556E+04  8.50424E+03 -1.17586E+04  1.07210E+04 -1.62899E+03  1.69837E+03  6.90977E+03
 -7.08854E+03  2.71174E+03 -6.76921E+03 -5.40894E+03 -1.39360E+03 -1.42924E+04  1.05774E+04 -1.44733E+04
  1.77312E+04 -7.89886E+03  1.91703E+04  2.78827E+03  1.59137E+04  1.41019E+04  7.53621E+03  2.12424E+04
 -3.41036E+03  2.33668E+04 -1.45914E+04  1.43664E+04 -1.67761E+04  3.52903E+03 -1.16417E+04 -4.08714E+03
 -5.52217E+03 -4.91083E+03 -6.66813E+02  1.64610E+03 -2.50531E+03  1.98695E+03 -4.88594E+03  5.23700E+03
 -1.10773E+04 -9.66800E+02 -1.14039E+04 -9.29529E+03 -4.25076E+03 -1.49737E+04  5.11936E+03 -1.16797E+04
  9.90680E+03 -4.40450E+03  6.82089E+03  2.78784E+03  8.19159E+00  5.04288E+03 -5.33818E+03  9.42793E+01
 -5.26080E+03 -7.12121E+03 -1.23356E+03 -1.08219E+04  5.99746E+03 -1.20150E+04  1.43297E+04 -6.04112E+03
  1.70192E+04  1.52398E+03  1.22786E+04  9.61953E+03  2.30345E+03  1.25962E+04 -7.15033E+03  1.11866E+04
 -9.44503E+03  3.43125E+03 -4.76888E+03 -2.10044E+03  1.88383E+03 -3.33617E+03  5.88666E+03 -1.22185E+03
  6.17851E+03  4.62198E+03  1.17875E+03  9.04833E+03 -6.40937E+03  8.69852E+03 -1.16881E+04  2.42217E+03
 -7.36812E+03 -5.82717E+03  4.45653E+02 -9.91666E+03  5.30367E+03 -4.97712E+03  5.65446E+03  1.43646E+03
  7.54921E+02  6.51443E+03 -6.04460E+03  8.14518E+03 -8.51580E+03  3.25104E+03 -8.58311E+03 -2.67784E+03
 -5.11674E+03 -1.01756E+04  2.49572E+03 -1.13645E+04  1.04230E+04 -7.08647E+03  1.10984E+04  2.28747E+03
  7.36575E+03  8.39881E+03 -4.13564E+02  1.07028E+04 -7.50556E+03  5.96373E+03 -8.34294E+03 -7.93437E+02
 -7.68444E+03 -8.13444E+03 -1.42922E+03 -8.17822E+03  3.88158E+03 -7.07096E+03  5.26011E+03 -2.80291E+03
  3.43377E+03  5.35372E+02 -3.67505E+02  1.27927E+03 -8.76281E+01 -1.67579E+03  8.00827E+02 -3.93842E+03
  7.27875E+03 -1.98347E+03  9.68877E+03  1.00640E+03  9.62409E+03  6.40685E+03  7.67370E+03  1.29656E+04
 -2.82391E+03  1.49985E+04 -1.23566E+04  1.09945E+04 -1.61987E+04  2.00822E+03 -1.34613E+04 -5.49572E+03
 -6.55051E+03 -1.09356E+04 -1.04040E+03 -9.20870E+03  3.41160E+03 -4.67035E+03  3.22420E+03 -3.85567E+03
  2.49774E+03 -2.22949E+03  3.14072E+03 -3.02772E+03  4.59236E+03 -2.36319E+03  5.24463E+03 -3.48409E+02
  7.29055E+03  1.34074E+03  3.08464E+03  5.58549E+03 -1.50244E+03  7.01171E+03 -7.02772E+03  5.22695E+03
 -9.54493E+03 -1.34743E+03 -5.35417E+03 -6.49697E+03  3.19874E+02 -9.45066E+03  5.34988E+03 -9.89382E+03
  9.69069E+03 -5.02510E+03  1.18308E+04  1.22434E+03  8.13499E+03  8.15807E+03  2.20858E+03  1.01122E+04
 -3.78687E+03  9.15516E+03 -6.37184E+03  3.29727E+03 -3.36865E+03 -1.48079E+03 -1.98849E+03 -3.09684E+02
 -4.37217E+02 -6.45186E+02 -1.61115E+03  2.21742E+03 -3.61016E+03  1.89083E+03 -6.49291E+03 -6.38749E+02
 -3.68278E+03 -6.45034E+03  5.21898E+02 -8.32573E+03  5.35611E+03 -7.99968E+03  8.19087E+03 -2.21515E+03
  8.02565E+03  3.25000E+03  3.59802E+03  7.04110E+03 -1.33425E+03  8.82406E+03 -5.70349E+03  5.33502E+03
 -7.49621E+03  5.74701E+02 -6.47313E+03 -5.03581E+03 -4.96670E+02 -6.32184E+03  3.89453E+03 -5.80470E+03
  5.36559E+03 -2.41812E+03  3.62784E+03  1.39008E+03  9.56887E+02  3.05119E+03  7.40965E+02  9.58836E+02
  1.48988E+03  3.42767E+02  2.46337E+03  1.13490E+03  2.81624E+03  3.09818E+03  2.32368E+03  4.00671E+03
 -1.68651E+03  6.78528E+03 -5.40177E+03  6.76242E+03 -7.36339E+03  2.42931E+03 -8.00566E+03 -2.71873E+03
 -3.50475E+03 -7.84715E+03  1.23663E+03 -8.81185E+03  4.44800E+03 -5.05012E+03  6.48217E+03 -1.80326E+03
  4.45349E+03  3.01964E+03  4.33613E+02  4.83485E+03 -1.88979E+03  3.55951E+03 -3.02197E+03 -1.43136E+02
 -1.78256E+03 -3.19195E+03  1.47065E+03 -3.25416E+03  2.89054E+03 -1.49574E+03  3.22488E+03  9.69997E+02
  2.01388E+03  1.03309E+03  9.87329E+02  6.84850E+02 -7.21848E+02  1.31282E+03  2.23794E+03 -4.90657E+01
  1.17260E+03 -3.47942E+01  3.57931E+03  1.89576E+03  1.56493E+03  4.13697E+03 -7.39514E+02  5.20703E+03
 -3.07316E+03  3.59513E+03 -5.36604E+03  6.66526E+02 -4.42440E+03 -1.74209E+03 -1.02777E+03 -2.17986E+03
  2.43336E+02 -2.66393E+03  2.41607E+03 -1.49842E+03  1.54026E+03  1.76784E+03 -2.08901E+02  2.15887E+03
 -2.96677E+03  1.93724E+03 -3.69048E+03 -2.26374E+03 -1.53505E+03 -4.66571E+03  4.52400E+02 -3.83778E+03
  2.58865E+03 -1.67692E+03  2.29758E+03 -2.74908E+02  2.34582E+03  9.95171E+02  4.83000E+02  2.14411E+03
 -1.16235E+03  8.81221E+02 -1.69499E+03 -8.24737E+02  9.76881E+02 -2.89275E+03  3.45530E+03 -2.60276E+03
  4.24877E+03  8.97591E+02  4.83080E+03  3.41238E+03  1.51751E+03  5.01287E+03 -1.62031E+03  4.40957E+03
 -3.52874E+03  5.86627E+02 -2.92013E+03 -3.83474E+02 -2.04770E+03 -2.73854E+03  9.89925E+01 -2.32900E+03
  2.87434E+03 -1.89551E+03  1.94779E+03  1.55917E+03  6.40097E+02  2.49343E+03 -5.11621E+02  2.51778E+03
 -1.57762E+03  2.55545E+03 -2.15281E+02  6.55949E+02 -5.49762E+02  8.58303E+02 -4.49461E+02  9.51964E+02
 -1.12169E+03  1.80336E+03 -3.44630E+03  1.42999E+03 -4.68087E+03 -3.74331E+02 -5.20442E+03 -3.28436E+03
 -2.44753E+03 -5.97644E+03  1.22718E+03 -6.66100E+03  3.81879E+03 -5.40425E+03  6.97240E+03 -1.99202E+03
  5.89380E+03  5.71643E+02  3.08309E+03  3.37008E+03 -8.69007E+02  4.09463E+03 -2.09941E+03  3.07346E+03
 -2.82553E+03  1.34089E+03 -1.83634E+03 -7.42587E+02 -4.81290E+02  1.48547E+02 -4.11746E+02 -4.40203E+02
 -1.66838E+03 -1.03059E+02 -1.63400E+03  2.45295E+02 -1.86163E+02 -1.15452E+03 -1.88053E+02 -2.07261E+03
  2.68433E+03 -1.64675E+03  2.12797E+03  5.98004E+02  3.21996E+03  2.53507E+03  5.61866E+02  3.66455E+03
 -2.16289E+03  5.03854E+03 -4.54177E+03  3.24028E+03 -4.63796E+03 -4.94761E+02 -3.69408E+03 -3.29083E+03
 -1.35343E+03 -3.71924E+03  1.36170E+03 -3.89346E+03  2.56522E+03 -2.02390E+03  2.75742E+03  3.88469E+02
  1.55473E+03  1.22242E+03 -1.99215E+02  8.66433E+02 -7.39486E+02 -2.35621E+02 -4.37031E+01 -8.78338E+02
  1.07029E+03 -7.37172E+02  1.17204E+03  6.54858E+02  5.61064E+02  8.99618E+02  8.69361E+02  1.68219E+03
 -1.80180E+03  1.72245E+03 -2.08731E+03  1.12860E+02 -2.40790E+03 -1.21614E+03 -2.40595E+02 -3.62759E+03
  1.76266E+03 -2.54403E+03  2.74654E+03 -6.20091E+02  2.61037E+03 -4.54509E+02  1.78547E+03  1.70353E+03
  1.16452E+03  1.97551E+03 -1.01448E+03  1.72409E+03 -1.82902E+03  1.36500E+03 -8.64743E+02  2.53563E+02
 -7.82889E+02 -1.50812E+02 -1.23716E+03  4.66396E+02 -1.85226E+03  6.10687E+02 -1.74846E+03  9.00072E+01
 -1.72607E+03 -1.29412E+03 -8.88691E+02 -1.97552E+03  1.56156E+03 -2.40063E+03  2.17967E+03 -1.10401E+03
  2.33911E+03  1.60220E+02  2.69569E+02  1.09504E+03 -8.00549E+01  2.35966E+03 -2.04732E+03  1.61733E+03
