 $NMID ID='MM_0lb_SNR400_17hz_g60_87.RAW', FMTDAT='(8E13.5)'
 TRAMP=1., VOLUME=1. $END
  3.09916E+05  7.04671E+02  3.37483E+05  2.49996E+05  8.44529E+04  3.38070E+05 -1.32178E+05  2.50548E+05
 -1.90381E+05  8.37809E+04 -1.12184E+05 -3.22658E+04  1.19340E+03 -5.07777E+04  5.35663E+04  1.18916E+01
  3.47186E+04  5.30778E+04 -1.68826E+04  7.61045E+04 -6.10935E+04  6.37012E+04 -8.39912E+04  3.25015E+04
 -8.06538E+04 -1.18401E+04 -5.69319E+04 -5.12375E+04 -1.43333E+04 -6.92696E+04  2.73030E+04 -4.56340E+04
  3.99728E+04  3.79073E+03  1.61994E+04  4.73880E+04 -3.46942E+04  4.73874E+04 -6.62313E+04 -4.48301E+00
 -5.34091E+04 -5.70070E+04 -7.11445E+03 -7.69660E+04  3.33573E+04 -5.46866E+04  4.81463E+04 -1.71932E+04
  4.30371E+04  1.06807E+04  3.20931E+04  2.47364E+04  1.57500E+04  2.91493E+04 -6.03088E+03  2.73292E+04
 -2.22908E+04  1.25286E+04 -1.81506E+04 -5.22458E+03  5.75371E+03 -7.26450E+03  2.18457E+04  1.20889E+04
  7.39258E+03  3.48769E+04 -3.20686E+04  3.50521E+04 -6.32160E+04  2.37616E+03 -5.70557E+04 -4.30653E+04
 -1.24903E+04 -6.34247E+04  3.89780E+04 -4.49916E+04  5.76402E+04 -2.41877E+03  3.36115E+04  3.19431E+04
 -5.86805E+03  3.57569E+04 -3.00592E+04  1.55609E+04 -2.97396E+04 -4.73000E+03 -1.61522E+04 -1.14783E+04
 -7.91847E+03 -1.32450E+04 -8.70015E+02 -1.81847E+04  7.72807E+03 -2.27750E+04  1.54892E+04 -1.29143E+04
  1.16798E+04  5.30414E+03 -7.68237E+03  1.29953E+04 -2.13122E+04 -3.87447E+03 -8.70347E+03 -3.29873E+04
  2.22235E+04 -4.29110E+04  4.77507E+04 -1.99314E+04  4.46484E+04  1.89727E+04  1.54654E+04  4.37878E+04
 -1.67400E+04  3.29459E+04 -2.50628E+04  2.09246E+03 -9.75863E+03 -2.71524E+04  2.03372E+04 -3.30270E+04
  4.01503E+04 -8.52575E+03  3.53824E+04  2.36349E+04  1.75575E+04  4.62019E+04 -8.47717E+03  4.91322E+04
 -3.16254E+04  3.31237E+04 -4.08270E+04  8.83037E+03 -4.18973E+04 -1.65791E+04 -2.31262E+04 -3.73814E+04
  6.51625E+03 -3.65832E+04  3.09213E+04 -1.38055E+04  2.94054E+04  1.09419E+04  3.45306E+03  1.91127E+04
 -1.37187E+04  7.80665E+03 -9.97354E+03 -7.13519E+03  6.12458E+03 -1.10363E+04  1.79468E+04  5.53319E+03
  1.32876E+04  2.20885E+04 -6.01031E+03  2.47655E+04 -2.19864E+04  1.05762E+04 -2.73747E+04 -5.28864E+03
 -1.96028E+04 -1.72261E+04 -7.26443E+03 -1.98287E+04  4.24473E+03 -1.81873E+04  1.51488E+04 -1.68754E+04
  2.52213E+04 -1.24227E+04  3.19361E+04  2.26080E+03  2.31900E+04  1.88516E+04  4.18108E+03  3.51372E+04
 -1.73544E+04  3.00767E+04 -2.74059E+04  1.06095E+04 -2.08167E+04 -1.00314E+04 -4.90479E+03 -1.38228E+04
  1.70061E+03 -2.87413E+03 -4.23981E+03  6.28390E+03 -1.57282E+04  5.67686E+03 -1.59674E+04 -6.41345E+03
 -9.66492E+03 -1.80038E+04  5.44638E+03 -2.20097E+04  1.41476E+04 -1.56966E+04  1.72369E+04 -5.19752E+02
  1.04436E+04  1.19844E+04 -1.52464E+03  1.84961E+04 -1.20639E+04  1.00496E+04 -1.81068E+04 -3.69394E+03
 -1.35039E+04 -1.63174E+04 -1.84387E+03 -2.18482E+04  9.93473E+03 -1.79744E+04  1.79323E+04 -8.86452E+03
  1.69838E+04  8.64543E+01  1.19856E+04  4.59456E+03  6.26023E+03  1.63457E+03  9.55720E+03 -1.50838E+03
  1.60097E+04  2.72377E+03  1.83040E+04  1.41887E+04  1.18460E+04  2.80195E+04 -2.13827E+03  3.17338E+04
 -1.85866E+04  2.51579E+04 -2.89564E+04  1.19084E+04 -2.99659E+04 -1.92248E+03 -2.54786E+04 -1.72510E+04
 -1.16858E+04 -2.49201E+04  8.21865E+03 -2.26028E+04  1.95960E+04 -1.22701E+04  1.80441E+04  4.55911E+03
  6.43319E+03  1.28736E+04 -8.05429E+03  1.21633E+04 -1.48163E+04  3.15469E+03 -1.24327E+04 -9.60928E+03
 -3.06214E+02 -1.42517E+04  7.10944E+03 -1.09449E+04  9.27214E+03 -1.21612E+03  1.75676E+03  5.98656E+03
 -6.64784E+03  1.90604E+03 -5.07748E+03 -5.62739E+03 -4.24618E+02 -1.21430E+04  8.88717E+03 -1.20878E+04
  1.50044E+04 -6.10684E+03  1.56266E+04  2.76700E+03  1.34767E+04  1.19865E+04  6.25292E+03  1.72712E+04
 -2.83061E+03  1.93804E+04 -1.28724E+04  1.20891E+04 -1.37183E+04  3.43727E+03 -9.92822E+03 -3.02799E+03
 -4.71228E+03 -4.52848E+03 -7.24877E+02  9.35171E+02 -2.69328E+03  2.25752E+03 -4.41060E+03  3.91177E+03
 -9.72740E+03 -5.97298E+02 -1.05346E+04 -7.87234E+03 -4.68444E+03 -1.25964E+04  3.84379E+03 -1.05538E+04
  8.35322E+03 -4.41293E+03  5.84854E+03  2.78227E+03  4.96997E+02  3.97489E+03 -5.06756E+03 -1.33794E+02
 -4.15350E+03 -5.89204E+03 -1.29401E+03 -9.25887E+03  5.17773E+03 -9.44689E+03  1.25448E+04 -5.54117E+03
  1.39096E+04  1.15198E+03  1.06612E+04  8.34571E+03  1.96654E+03  1.07687E+04 -6.74376E+03  1.00589E+04
 -8.20610E+03  3.66560E+03 -4.62200E+03 -1.76608E+03  1.59706E+03 -3.32797E+03  5.53622E+03 -6.09022E+02
  4.66839E+03  4.11357E+03  1.04362E+03  7.57234E+03 -5.65933E+03  7.23413E+03 -9.24781E+03  1.73339E+03
 -6.13666E+03 -4.70280E+03  2.98089E+02 -7.79143E+03  3.99334E+03 -4.24550E+03  5.12067E+03  1.39312E+03
  7.42957E+02  4.51127E+03 -4.51626E+03  5.37915E+03 -6.11127E+03  3.26327E+03 -6.20891E+03 -2.10558E+03
 -4.40031E+03 -7.53579E+03  1.70471E+03 -9.42150E+03  7.60657E+03 -5.11311E+03  8.17388E+03  1.16623E+03
  5.86343E+03  6.56014E+03  1.31012E+02  8.42393E+03 -6.55747E+03  4.84024E+03 -6.41250E+03 -7.34142E+02
 -6.83508E+03 -6.34730E+03 -1.39052E+03 -6.13288E+03  3.23515E+03 -5.19803E+03  3.94342E+03 -2.42327E+03
  3.20644E+03  4.78920E+02 -4.01718E+02  1.61510E+03 -3.57991E+02 -9.70058E+02  6.04574E+02 -2.63720E+03
  5.47420E+03 -1.55439E+03  7.24876E+03  3.96902E+02  7.32246E+03  4.73100E+03  6.16550E+03  9.23133E+03
 -1.76826E+03  1.10001E+04 -1.02487E+04  8.07246E+03 -1.26879E+04  2.29528E+03 -8.86834E+03 -3.51833E+03
 -5.45581E+03 -8.48826E+03 -3.93790E+02 -7.13171E+03  2.65816E+03 -2.89094E+03  2.12241E+03 -2.54771E+03
  1.54386E+03 -1.43204E+03  2.32936E+03 -1.90306E+03  4.15851E+03 -1.38310E+03  4.49976E+03  3.49858E+02
  5.45799E+03  1.26935E+03  2.05739E+03  4.76930E+03 -1.60846E+03  3.95891E+03 -5.03363E+03  3.30543E+03
 -6.44620E+03 -1.22489E+03 -3.32139E+03 -4.72700E+03  2.49089E+02 -6.87788E+03  4.15967E+03 -6.82171E+03
  6.69500E+03 -3.68271E+03  8.78125E+03  5.05622E+02  6.13354E+03  5.25295E+03  1.37300E+03  8.02079E+03
 -2.98007E+03  7.12215E+03 -4.58041E+03  2.40551E+03 -2.73707E+03 -1.67840E+03 -5.98749E+02 -5.47663E+02
 -3.69024E+02  1.38269E+02 -9.11226E+02  1.91478E+03 -3.18770E+03  1.60621E+03 -4.71713E+03 -3.41968E+02
 -1.77993E+03 -4.82412E+03  5.20315E+02 -6.87106E+03  3.41187E+03 -5.96862E+03  4.54274E+03 -1.75044E+03
  5.37629E+03  2.61435E+03  2.66912E+03  4.65117E+03 -9.45577E+02  5.40687E+03 -3.41023E+03  2.90633E+03
 -5.86474E+03  8.85981E+02 -4.06299E+03 -3.15917E+03 -1.33353E+01 -4.19995E+03  1.71657E+03 -3.23294E+03
  2.73673E+03 -1.60155E+03  2.36474E+03  5.51836E+02  5.00532E+02  1.14036E+03  3.47542E+02  1.02969E+03
  1.98357E+03  3.07867E+00  1.40625E+03  1.32369E+03  1.49230E+03  2.76314E+03  1.36848E+03  2.72547E+03
 -1.26903E+03  3.86724E+03 -2.90047E+03  4.71200E+03 -4.58515E+03  1.40349E+03 -5.73947E+03 -8.16083E+02
 -2.57293E+03 -5.08196E+03  1.34811E+03 -5.72372E+03  2.89013E+03 -4.27479E+03  3.62477E+03 -1.25325E+03
  3.67252E+03  1.86942E+03  1.17518E+03  2.74837E+03 -7.85158E+02  1.95713E+03 -2.09706E+03  2.13746E+01
 -8.73408E+02 -1.79331E+03  1.25005E+03 -1.79270E+03  1.34810E+03 -1.33605E+03  1.37364E+03  1.00054E+03
  2.00660E+03  8.97092E+02  9.95477E+02  5.19324E+02 -6.79429E+02  1.51635E+03  1.95352E+03  6.24880E+02
  2.36593E+02 -3.26310E+02  2.22410E+03  4.35088E+02  8.92057E+02  2.66547E+03 -3.88906E+02  3.86513E+03
 -2.00111E+03  1.80786E+03 -2.84201E+03  1.35129E+03 -2.84595E+03 -7.02184E+02 -1.00963E+03 -1.39023E+03
  3.20521E+02 -1.32401E+03  1.04109E+03 -4.24085E+02  1.13303E+03  1.10128E+03 -1.33786E+03  1.31553E+03
 -1.82268E+03  1.63282E+03 -2.02920E+03 -1.57526E+03 -1.30942E+03 -2.35067E+03  3.36336E+02 -1.97883E+03
  5.50365E+02 -1.03704E+03  1.42087E+03 -3.71248E+01  1.76671E+03 -1.35782E+02  1.93961E+02  1.28845E+03
 -6.01188E+02  1.23903E+02 -1.17035E+03 -8.52155E+02  3.13912E+02 -1.06463E+03  2.51965E+03 -1.19059E+03
  2.21971E+03  2.71096E+02  3.94586E+03  1.98677E+03  1.32451E+03  2.81384E+03 -5.42113E+02  2.12803E+03
 -2.24020E+03  5.50589E+02 -2.23574E+03 -2.42559E+02 -1.45504E+03 -2.14593E+03  8.06927E+02 -9.80749E+02
  1.54603E+03 -9.05950E+02  1.91058E+03  9.72278E+02  5.09032E+02  2.06004E+03 -1.87787E+02  1.66360E+03
 -6.55049E+02  1.26838E+03 -8.44428E+02  3.80827E+02 -6.21894E+02 -1.26000E+02 -1.12420E+03  9.72653E+02
 -9.86700E+02  1.13437E+03 -2.80485E+03  4.16256E+02 -2.19188E+03 -2.21961E+00 -3.28810E+03 -1.91602E+03
 -1.03695E+03 -2.85744E+03  8.61492E+02 -3.67525E+03  1.68603E+03 -3.20029E+03  3.72081E+03 -8.78775E+02
  3.31600E+03  6.73563E+00  1.28959E+03  2.01534E+03 -4.24071E+02  2.07109E+03 -1.01139E+03  1.67125E+03
 -1.24679E+03  1.66607E+03 -6.14205E+02 -8.09303E+02  1.96144E+02  3.35261E+02 -3.62973E+02 -2.50859E+02
 -1.08592E+03  4.36055E+01 -1.06569E+03  6.33165E+01  5.35035E+02 -5.24199E+02 -3.07605E+02 -7.78816E+02
  1.70969E+03 -5.49898E+02  6.41150E+02  6.24833E+02  2.07540E+03  1.89576E+03 -4.39568E+02  1.86282E+03
 -8.79270E+02  2.55048E+03 -1.68648E+03  1.47317E+03 -2.16566E+03  3.70952E+02 -1.80435E+03 -1.81637E+03
 -1.38032E+03 -2.37572E+03  2.01061E+02 -1.82808E+03  1.17040E+03 -9.43677E+02  9.67191E+02 -7.42265E+02
  5.62082E+02  2.56286E+02  1.64900E+01  9.00777E+02 -1.40538E+02 -1.51165E+02 -3.25406E+02 -3.15277E+02
  5.29414E+02  4.47016E+01 -4.51965E+02  1.62538E+02 -4.29947E+01  1.07330E+03  5.10442E+02  4.77730E+02
 -9.72832E+02  3.17458E+02 -4.58448E+02  5.65435E+02 -1.20183E+03 -9.68287E+02 -1.76376E+01 -1.29870E+03
  7.93504E+02 -1.16175E+03  3.93324E+02 -5.15140E+02  1.74063E+03 -2.96348E+02  6.02395E+02  1.14391E+03
  1.48288E+02  8.86500E+02 -2.84401E+02  1.53197E+03 -1.10472E+03  8.59744E+02 -3.99417E+02 -1.61954E+02
 -6.02141E+02  1.27324E+02 -1.09831E+03  8.19371E+02 -8.22944E+02 -2.38176E+02 -1.49391E+03  1.70609E+02
 -1.50750E+03  3.77784E+02 -2.98454E+02 -5.87657E+02  7.29165E+02 -2.13336E+03  8.82897E+02 -2.08292E+02
  1.02970E+03 -7.97721E+01 -6.25079E+02  4.24811E+02 -2.63220E+02  4.70363E+02 -4.43854E+02  7.68988E+02
