 $NMID ID='MM_0lb_SNR400_8hz_g55_77.RAW', FMTDAT='(8E13.5)'
 TRAMP=1., VOLUME=1. $END
  3.09962E+05 -9.30287E+01  3.38113E+05  2.50408E+05  8.43475E+04  3.39165E+05 -1.32917E+05  2.52608E+05
 -1.90206E+05  8.36591E+04 -1.12954E+05 -3.18388E+04 -9.99635E+01 -5.00895E+04  5.46996E+04  7.22476E+01
  3.48023E+04  5.34483E+04 -1.76181E+04  7.63825E+04 -6.13006E+04  6.48901E+04 -8.59416E+04  3.26877E+04
 -8.28445E+04 -1.24790E+04 -5.78136E+04 -5.30977E+04 -1.44764E+04 -7.09470E+04  2.82749E+04 -4.62063E+04
  4.18084E+04  3.85521E+03  1.69665E+04  4.88511E+04 -3.42371E+04  4.84534E+04 -6.90858E+04 -1.77349E+02
 -5.59261E+04 -5.76392E+04 -7.01983E+03 -7.92040E+04  3.52572E+04 -5.79455E+04  5.08299E+04 -1.81504E+04
  4.58777E+04  1.24683E+04  3.32105E+04  2.65085E+04  1.56578E+04  3.09077E+04 -6.12800E+03  2.73960E+04
 -2.27773E+04  1.26916E+04 -1.77474E+04 -5.85901E+03  7.54568E+03 -7.33915E+03  2.40120E+04  1.38461E+04
  7.39640E+03  3.83151E+04 -3.43357E+04  3.80569E+04 -6.69201E+04  1.77478E+03 -5.95338E+04 -4.53016E+04
 -1.31229E+04 -6.66733E+04  4.27593E+04 -4.82226E+04  6.20368E+04 -2.09588E+03  3.74794E+04  3.49544E+04
 -5.98825E+03  3.98337E+04 -3.29233E+04  1.95479E+04 -3.36061E+04 -3.22627E+03 -2.02062E+04 -1.24520E+04
 -9.79633E+03 -1.52685E+04  9.50961E+01 -2.01298E+04  8.86373E+03 -2.35380E+04  1.56074E+04 -1.15445E+04
  9.90418E+03  6.23486E+03 -1.13799E+04  1.24465E+04 -2.37360E+04 -7.02714E+03 -9.34600E+03 -3.91749E+04
  2.56526E+04 -4.79283E+04  5.36096E+04 -2.18534E+04  4.96575E+04  2.10302E+04  1.81933E+04  4.80992E+04
 -1.65746E+04  3.66345E+04 -2.93407E+04  2.72505E+03 -1.21616E+04 -2.95868E+04  2.20200E+04 -3.74423E+04
  4.57154E+04 -1.18192E+04  4.18497E+04  2.53996E+04  2.29174E+04  5.32894E+04 -8.61857E+03  5.74139E+04
 -3.71551E+04  3.96786E+04 -4.94463E+04  1.23798E+04 -4.91321E+04 -1.87453E+04 -2.76155E+04 -4.34397E+04
  7.99409E+03 -4.32422E+04  3.50184E+04 -1.82584E+04  3.29212E+04  1.11806E+04  6.02158E+03  2.09082E+04
 -1.40738E+04  9.83625E+03 -1.14330E+04 -8.45622E+03  6.13822E+03 -1.16724E+04  1.86676E+04  6.05928E+03
  1.48902E+04  2.27259E+04 -5.28605E+03  2.72532E+04 -2.33025E+04  1.50705E+04 -3.17012E+04 -2.81541E+03
 -2.64606E+04 -1.90645E+04 -1.37390E+04 -2.65046E+04  4.74196E+03 -2.75395E+04  2.09883E+04 -2.47786E+04
  3.39318E+04 -1.51869E+04  4.06298E+04  4.95019E+03  2.70255E+04  2.57379E+04  5.09986E+03  4.27713E+04
 -2.05888E+04  3.57914E+04 -3.19427E+04  1.22448E+04 -2.25065E+04 -9.46339E+03 -4.78571E+03 -1.33679E+04
  1.02138E+02 -1.07728E+03 -8.54810E+03  9.26626E+03 -2.14316E+04  5.08233E+03 -2.10779E+04 -1.06767E+04
 -1.27821E+04 -2.51740E+04  6.82009E+03 -2.97347E+04  1.97740E+04 -2.12533E+04  2.41104E+04 -1.51092E+03
  1.43226E+04  1.67806E+04 -9.01425E+02  2.43130E+04 -1.71583E+04  1.39307E+04 -2.64340E+04 -6.27083E+03
 -1.91663E+04 -2.20395E+04 -2.25034E+03 -2.95202E+04  1.33990E+04 -2.43871E+04  2.46191E+04 -1.26864E+04
  2.31907E+04 -8.76665E+02  1.65259E+04  6.00778E+03  9.87395E+03  1.52658E+03  1.41529E+04 -2.03124E+03
  2.33942E+04  3.24693E+03  2.73683E+04  1.89747E+04  1.98389E+04  4.03631E+04 -3.19010E+03  4.74500E+04
 -2.68205E+04  3.98991E+04 -4.55535E+04  2.18196E+04 -4.80458E+04 -3.27681E+03 -3.87350E+04 -2.83935E+04
 -1.51693E+04 -3.99493E+04  1.48198E+04 -3.46808E+04  3.02192E+04 -1.64736E+04  2.53277E+04  8.39911E+03
  8.15931E+03  2.05615E+04 -1.22229E+04  1.68831E+04 -2.09248E+04  2.55472E+03 -1.65541E+04 -1.30420E+04
 -9.43161E+02 -1.94127E+04  1.15590E+04 -1.50715E+04  1.41343E+04 -8.57144E+02  3.29807E+03  9.33940E+03
 -9.07681E+03  5.04805E+03 -1.00452E+04 -7.39698E+03 -1.87748E+03 -1.96789E+04  1.24493E+04 -2.20789E+04
  2.49701E+04 -1.26781E+04  2.86516E+04  3.58851E+03  2.57522E+04  1.96919E+04  1.10552E+04  3.17673E+04
 -6.22740E+03  3.46866E+04 -2.24216E+04  2.12738E+04 -2.43450E+04  4.50064E+03 -1.64140E+04 -6.75249E+03
 -7.07573E+03 -7.65603E+03 -8.10136E+02  7.19379E+01 -3.28146E+03  4.22240E+03 -8.32732E+03  5.29820E+03
 -1.54373E+04 -1.28615E+03 -1.64051E+04 -1.24728E+04 -5.70007E+03 -2.06150E+04  6.15583E+03 -1.72540E+04
  1.42582E+04 -7.14614E+03  9.00871E+03  4.96726E+03 -9.86721E+02  6.92712E+03 -8.67623E+03 -7.23648E+02
 -8.59184E+03 -1.10186E+04 -8.58272E+02 -1.72530E+04  8.90699E+03 -1.80230E+04  2.27883E+04 -1.00659E+04
  2.53991E+04  2.66357E+03  1.78180E+04  1.55594E+04  3.39791E+03  2.11491E+04 -1.03103E+04  1.75252E+04
 -1.36291E+04  5.24710E+03 -6.62864E+03 -2.87899E+03  3.12260E+03 -4.33016E+03  9.84749E+03 -1.35738E+03
  7.99249E+03  7.64649E+03  1.86729E+03  1.41613E+04 -1.03644E+04  1.34830E+04 -1.68404E+04  3.70913E+03
 -1.20844E+04 -9.51350E+03  6.14674E+01 -1.53576E+04  9.68839E+03 -7.34288E+03  1.01490E+04  4.51890E+03
  2.43548E+03  1.09878E+04 -8.93147E+03  1.27015E+04 -1.44744E+04  6.29410E+03 -1.65159E+04 -5.41636E+03
 -9.37015E+03 -1.81157E+04  5.14955E+03 -2.06655E+04  1.64568E+04 -1.16029E+04  1.87350E+04  4.01926E+03
  1.17799E+04  1.45077E+04 -2.11898E+03  1.83451E+04 -1.27591E+04  9.40170E+03 -1.39227E+04 -1.41772E+03
 -1.19102E+04 -1.25979E+04 -1.26348E+03 -1.40457E+04  7.49271E+03 -1.09216E+04  8.69848E+03 -3.78591E+03
  5.59053E+03  2.23796E+03 -1.77148E+03  1.02111E+03 -1.65427E+03 -4.60830E+03  1.63616E+03 -9.13584E+03
  1.18774E+04 -6.06469E+03  1.90499E+04  1.22135E+03  1.80157E+04  1.27214E+04  1.15491E+04  2.47329E+04
 -5.94262E+03  2.75085E+04 -2.19587E+04  2.04004E+04 -2.90567E+04  4.61274E+03 -2.37839E+04 -1.01533E+04
 -1.28599E+04 -2.01525E+04 -3.17882E+02 -1.62259E+04  5.07128E+03 -9.77546E+03  6.31868E+03 -5.64575E+03
  3.93665E+03 -3.90163E+03  3.62423E+03 -4.24857E+03  5.10040E+03 -4.68861E+03  9.39897E+03 -1.25250E+03
  1.30528E+04  2.39405E+03  6.92335E+03  1.15404E+04 -2.49341E+03  1.29133E+04 -1.28875E+04  9.49854E+03
 -1.69988E+04 -4.26857E+02 -1.13016E+04 -1.23000E+04 -1.56161E+03 -1.87298E+04  1.03125E+04 -1.84305E+04
  1.91989E+04 -9.37125E+03  2.25939E+04  2.54092E+03  1.50009E+04  1.63166E+04  1.78316E+03  1.99390E+04
 -7.95076E+03  1.60700E+04 -1.18525E+04  5.30178E+03 -9.09935E+03 -2.41676E+03 -4.31670E+03 -3.34300E+03
 -1.87206E+03 -1.38981E+03 -2.51081E+03  2.95050E+03 -6.44917E+03  2.69038E+03 -1.08828E+04 -1.66925E+03
 -9.15462E+03 -1.17648E+04 -1.38181E+03 -1.69222E+04  1.09234E+04 -1.53357E+04  1.80719E+04 -4.85138E+03
  1.67647E+04  8.30473E+03  7.21042E+03  1.59527E+04 -3.23824E+03  1.71052E+04 -1.20573E+04  1.10545E+04
 -1.61993E+04  6.26756E+02 -1.29565E+04 -1.02176E+04 -1.33032E+03 -1.48113E+04  7.99593E+03 -1.04996E+04
  1.14260E+04 -3.39127E+03  7.76505E+03  2.90735E+03  3.85782E+03  5.25123E+03  1.97004E+03  2.31944E+03
  3.71059E+03  1.47152E+03  3.76197E+03  2.77671E+03  4.98176E+03  6.96816E+03  4.36505E+03  9.57160E+03
 -3.57898E+03  1.49176E+04 -1.26994E+04  1.39775E+04 -1.80840E+04  3.16418E+03 -1.82661E+04 -7.75225E+03
 -8.81403E+03 -1.77155E+04  1.41584E+03 -1.95203E+04  1.12753E+04 -1.29523E+04  1.46698E+04 -3.17506E+03
  1.08130E+04  6.64790E+03  2.47277E+03  1.00914E+04 -4.85861E+03  7.03489E+03 -8.33209E+03 -1.95113E+03
 -2.83123E+03 -7.69724E+03  3.74828E+03 -8.43317E+03  7.47751E+03 -3.62752E+03  7.50317E+03  1.04895E+03
  3.23705E+03  3.39446E+03  1.59551E+03  3.15166E+03 -1.67946E+03  2.63299E+03  1.50327E+03 -4.11993E+02
  2.35111E+03 -9.37547E+02  6.51575E+03  2.48919E+03  4.71276E+03  8.86554E+03 -1.39522E+03  1.24484E+04
 -7.73095E+03  7.91201E+03 -1.20883E+04  2.56902E+03 -1.07064E+04 -3.49200E+03 -4.31348E+03 -7.32955E+03
  9.35271E+02 -6.92280E+03  5.52648E+03 -2.57747E+03  3.54737E+03  3.47728E+03 -1.80916E+03  5.48018E+03
 -7.68695E+03  3.50167E+03 -8.96507E+03 -3.98375E+03 -4.62399E+03 -1.01100E+04  2.12214E+03 -9.96986E+03
  6.51401E+03 -6.96233E+03  7.73890E+03 -4.22380E+02  5.21519E+03  2.78198E+03  1.03544E+03  5.29522E+03
 -3.45459E+03  1.91925E+03 -4.47942E+03 -4.05573E+03  2.43491E+03 -7.93933E+03  9.01301E+03 -6.26520E+03
  1.24465E+04  5.74924E+02  1.17096E+04  8.14313E+03  4.07985E+03  1.27773E+04 -4.32842E+03  1.16556E+04
 -1.03029E+04  5.21129E+03 -1.09630E+04 -1.19542E+03 -6.07382E+03 -7.40501E+03  1.99791E+03 -7.11747E+03
  8.07730E+03 -4.44771E+03  6.29802E+03  2.94783E+03  1.97671E+03  7.07484E+03 -1.97496E+03  6.08859E+03
 -2.49710E+03  3.34807E+03 -3.17259E+03  8.41789E+02 -1.51816E+03  3.50964E+02 -1.84379E+03  2.22678E+03
 -2.99787E+03  4.21647E+03 -9.01581E+03  3.88223E+03 -1.15173E+04  6.26458E+02 -1.27985E+04 -8.07558E+03
 -7.94992E+03 -1.67881E+04  3.06814E+03 -1.87633E+04  1.17835E+04 -1.50211E+04  1.82474E+04 -5.05740E+03
  1.70861E+04  3.93453E+03  1.02686E+04  1.10904E+04  7.15179E+02  1.22086E+04 -4.83531E+03  9.65598E+03
 -6.77435E+03  2.88462E+03 -4.35175E+03 -1.77898E+02 -1.84273E+03 -7.95342E+02 -1.10055E+02 -1.85973E+02
 -2.68011E+03  1.39779E+03 -3.31852E+03 -4.41074E+02 -9.71887E+02 -4.01012E+03  8.56247E+02 -3.95324E+03
  4.77248E+03 -5.02548E+03  7.99968E+03 -4.31812E+02  9.23822E+03  6.29472E+03  2.12352E+03  1.28635E+04
 -5.48796E+03  1.43463E+04 -1.31649E+04  8.32256E+03 -1.54542E+04 -1.91301E+03 -1.25107E+04 -8.85722E+03
 -4.67355E+03 -1.37935E+04  4.32431E+03 -1.30895E+04  8.56674E+03 -6.77439E+03  8.90873E+03 -3.17383E+02
  5.74280E+03  4.87188E+03 -1.41626E+03  2.92485E+03 -2.66306E+03 -2.18411E+02  1.44540E+02 -2.85553E+03
  4.22624E+03 -1.45411E+03  5.12764E+03  1.83433E+03  3.99766E+03  5.21560E+03 -2.04274E+02  7.22128E+03
 -5.81379E+03  6.43406E+03 -9.08482E+03  1.25009E+03 -8.68890E+03 -6.72115E+03 -1.10715E+03 -1.08648E+04
  6.36517E+03 -1.00489E+04  1.07871E+04 -2.40087E+03  9.87551E+03  1.98951E+03  5.63776E+03  8.48939E+03
  5.45663E+02  8.28147E+03 -3.72105E+03  6.90560E+03 -5.16123E+03  3.45237E+03 -4.49496E+03  9.59309E+02
 -2.66459E+03 -3.63528E+02 -2.86654E+03  1.23315E+03 -4.31678E+03  1.87702E+03 -7.20423E+03 -1.63771E+03
 -6.46996E+03 -4.73074E+03 -1.28076E+03 -9.51839E+03  3.60845E+03 -9.00585E+03  8.80554E+03 -4.82320E+03
  8.82956E+03  7.14528E+02  5.09690E+03  6.58894E+03 -1.62145E+02  9.29022E+03 -6.86658E+03  5.92779E+03
