 $NMID ID='MM_0lb_SNR400_9hz_g45_89.RAW', FMTDAT='(8E13.5)'
 TRAMP=1., VOLUME=1. $END
  3.10287E+05  6.86187E+02  3.37315E+05  2.50769E+05  8.53858E+04  3.38233E+05 -1.32560E+05  2.52066E+05
 -1.90701E+05  8.30966E+04 -1.12474E+05 -3.21644E+04  3.52220E+02 -4.95530E+04  5.28041E+04 -1.27789E+03
  3.57562E+04  5.32216E+04 -1.67264E+04  7.56301E+04 -6.09341E+04  6.52610E+04 -8.59207E+04  3.19375E+04
 -8.25227E+04 -1.15417E+04 -5.81633E+04 -5.29898E+04 -1.41861E+04 -7.05991E+04  2.82539E+04 -4.63030E+04
  4.12076E+04  3.85415E+03  1.60568E+04  4.81746E+04 -3.54049E+04  4.76267E+04 -6.80285E+04 -5.40738E+01
 -5.47905E+04 -5.87281E+04 -7.62520E+03 -7.91982E+04  3.45615E+04 -5.66985E+04  4.89194E+04 -1.80017E+04
  4.43694E+04  1.14481E+04  3.33911E+04  2.67550E+04  1.61352E+04  3.07024E+04 -5.78875E+03  2.78615E+04
 -2.17851E+04  1.23608E+04 -1.87192E+04 -5.47313E+03  6.68804E+03 -7.49727E+03  2.33300E+04  1.31070E+04
  6.59630E+03  3.74419E+04 -3.35166E+04  3.66083E+04 -6.51524E+04  2.19196E+03 -5.84959E+04 -4.42266E+04
 -1.29938E+04 -6.59037E+04  4.18721E+04 -4.68903E+04  6.04813E+04 -1.60789E+03  3.69822E+04  3.33685E+04
 -5.43764E+03  3.93107E+04 -3.19361E+04  1.90743E+04 -3.36302E+04 -3.71842E+03 -1.86462E+04 -1.19775E+04
 -9.34590E+03 -1.49929E+04 -6.11014E+02 -1.96474E+04  8.69737E+03 -2.33299E+04  1.49294E+04 -1.31548E+04
  1.06831E+04  5.53518E+03 -1.00214E+04  1.27680E+04 -2.38184E+04 -5.80135E+03 -8.54435E+03 -3.73807E+04
  2.54441E+04 -4.66451E+04  5.16890E+04 -2.05678E+04  4.87663E+04  2.07398E+04  1.65250E+04  4.68537E+04
 -1.56800E+04  3.57798E+04 -2.70161E+04  2.65001E+03 -1.15074E+04 -2.95994E+04  2.17376E+04 -3.62605E+04
  4.39330E+04 -1.11078E+04  3.93763E+04  2.52076E+04  2.09343E+04  5.05480E+04 -7.71516E+03  5.62523E+04
 -3.55364E+04  3.81426E+04 -4.67774E+04  1.12460E+04 -4.74208E+04 -1.87740E+04 -2.64753E+04 -4.19755E+04
  7.85995E+03 -4.16293E+04  3.41273E+04 -1.65843E+04  3.20517E+04  1.07146E+04  4.94618E+03  2.03683E+04
 -1.43757E+04  9.63624E+03 -1.11249E+04 -7.56345E+03  5.21128E+03 -1.13161E+04  1.84560E+04  6.00659E+03
  1.40174E+04  2.12553E+04 -5.26775E+03  2.65636E+04 -2.35156E+04  1.36043E+04 -3.22801E+04 -2.42043E+03
 -2.39324E+04 -1.81517E+04 -1.10310E+04 -2.54993E+04  4.23196E+03 -2.44469E+04  1.96479E+04 -2.25659E+04
  3.20957E+04 -1.42111E+04  3.72655E+04  4.84118E+03  2.67168E+04  2.34233E+04  4.36932E+03  4.07648E+04
 -1.97125E+04  3.37218E+04 -3.03351E+04  1.10381E+04 -2.26681E+04 -1.00797E+04 -4.39919E+03 -1.29414E+04
  1.28236E+03 -1.23382E+03 -6.55959E+03  7.94975E+03 -1.97133E+04  4.61739E+03 -1.95334E+04 -9.23071E+03
 -1.20658E+04 -2.22550E+04  6.35657E+03 -2.75195E+04  1.83927E+04 -1.95513E+04  2.19770E+04 -2.06146E+03
  1.45679E+04  1.64409E+04 -2.06731E+03  2.30510E+04 -1.68473E+04  1.35644E+04 -2.29507E+04 -4.72602E+03
 -1.64686E+04 -2.13210E+04 -2.88577E+03 -2.74616E+04  1.27683E+04 -2.31801E+04  2.26211E+04 -1.20744E+04
  2.15610E+04  2.29369E+02  1.65566E+04  4.99774E+03  8.57100E+03  8.69379E+02  1.16917E+04 -2.42434E+03
  2.10273E+04  3.29711E+03  2.54672E+04  1.72504E+04  1.73208E+04  3.71046E+04 -3.16977E+03  4.37534E+04
 -2.42348E+04  3.63527E+04 -4.11764E+04  1.86057E+04 -4.39289E+04 -2.95525E+03 -3.63441E+04 -2.58188E+04
 -1.45075E+04 -3.70321E+04  1.25268E+04 -3.23114E+04  2.75335E+04 -1.54467E+04  2.32589E+04  7.92083E+03
  7.65782E+03  1.76745E+04 -1.13885E+04  1.52314E+04 -1.98302E+04  2.70635E+03 -1.49927E+04 -1.24450E+04
 -3.45124E+02 -1.95856E+04  1.03102E+04 -1.40855E+04  1.36071E+04 -1.56722E+03  3.48168E+03  8.95790E+03
 -7.84751E+03  4.56460E+03 -8.30649E+03 -6.53882E+03 -1.89016E+03 -1.80612E+04  1.19007E+04 -1.88741E+04
  2.19532E+04 -9.94228E+03  2.58880E+04  3.55175E+03  2.24946E+04  1.79214E+04  1.05637E+04  2.85038E+04
 -5.77790E+03  3.13351E+04 -1.93638E+04  1.91062E+04 -2.19951E+04  3.32442E+03 -1.44127E+04 -5.37203E+03
 -6.24529E+03 -7.17022E+03 -1.17173E+03  5.96443E+02 -2.32839E+03  4.03114E+03 -7.66714E+03  4.93525E+03
 -1.37784E+04 -1.65416E+03 -1.45554E+04 -1.12045E+04 -6.11124E+03 -1.78607E+04  5.50158E+03 -1.52347E+04
  1.23848E+04 -6.74401E+03  8.93615E+03  4.44132E+03 -1.71429E+03  6.62083E+03 -8.21095E+03  2.88195E+02
 -7.42070E+03 -8.99415E+03 -9.04110E+02 -1.51800E+04  8.89113E+03 -1.55123E+04  1.91013E+04 -7.58645E+03
  2.33163E+04  2.83484E+03  1.64576E+04  1.44796E+04  2.45957E+03  1.92664E+04 -9.58552E+03  1.48686E+04
 -1.22503E+04  4.19751E+03 -5.54205E+03 -3.18113E+03  1.57358E+03 -3.46072E+03  7.72887E+03 -7.49715E+02
  7.14724E+03  6.51395E+03  2.10028E+03  1.22948E+04 -9.36278E+03  1.13056E+04 -1.49575E+04  2.67529E+03
 -1.14596E+04 -8.58688E+03 -5.29842E+02 -1.30877E+04  8.95537E+03 -7.76150E+03  8.40977E+03  2.47776E+03
  2.68750E+03  9.97818E+03 -7.73312E+03  1.11902E+04 -1.35236E+04  5.21632E+03 -1.33909E+04 -4.06947E+03
 -7.27064E+03 -1.48170E+04  4.33036E+03 -1.73555E+04  1.56130E+04 -1.07988E+04  1.65660E+04  2.82820E+03
  9.82386E+03  1.25765E+04 -1.88832E+03  1.54750E+04 -1.14790E+04  8.19435E+03 -1.19354E+04 -1.99153E+03
 -1.06945E+04 -1.02352E+04 -1.49102E+03 -1.23783E+04  6.44752E+03 -9.32122E+03  6.75843E+03 -3.31605E+03
  5.27456E+03  1.45390E+03 -8.65218E+02  2.15046E+03 -3.45289E+02 -3.62696E+03  2.41680E+03 -6.88495E+03
  1.13333E+04 -4.48404E+03  1.52860E+04  7.67231E+02  1.53048E+04  1.13562E+04  1.02069E+04  2.02874E+04
 -5.23446E+03  2.25541E+04 -1.95059E+04  1.65483E+04 -2.49120E+04  3.60584E+03 -2.07497E+04 -8.30827E+03
 -1.08719E+04 -1.68241E+04  3.82743E+01 -1.46135E+04  5.23315E+03 -7.87002E+03  5.65927E+03 -4.40195E+03
  3.39238E+03 -3.61742E+03  3.89563E+03 -4.13581E+03  5.90188E+03 -3.67766E+03  7.54397E+03 -2.38202E+03
  1.08683E+04  2.38823E+03  5.65486E+03  9.00801E+03 -2.50840E+03  1.18709E+04 -1.14127E+04  8.08249E+03
 -1.44727E+04 -1.50011E+03 -8.59878E+03 -9.32248E+03 -9.72293E+02 -1.53525E+04  8.26381E+03 -1.51811E+04
  1.58727E+04 -9.02653E+03  1.87050E+04  2.24338E+03  1.29375E+04  1.33518E+04  1.27007E+03  1.75312E+04
 -7.36661E+03  1.36554E+04 -1.02222E+04  4.73576E+03 -7.05862E+03 -1.57023E+03 -3.58842E+03 -2.22935E+03
 -1.24788E+03 -8.24447E+02 -2.52026E+03  2.79296E+03 -6.14383E+03  2.45422E+03 -9.72436E+03 -1.31983E+03
 -7.67958E+03 -9.76216E+03 -6.48552E+02 -1.45609E+04  9.12182E+03 -1.27259E+04  1.43367E+04 -4.00941E+03
  1.39034E+04  6.61732E+03  6.69498E+03  1.23644E+04 -2.34534E+03  1.43194E+04 -9.93170E+03  8.78718E+03
 -1.34181E+04  5.93797E+02 -1.04054E+04 -8.06045E+03 -1.07411E+03 -1.13283E+04  6.38276E+03 -8.97967E+03
  9.65599E+03 -3.44559E+03  5.84088E+03  2.38792E+03  2.34244E+03  4.13253E+03  1.40979E+03  1.21829E+03
  2.60723E+03  1.13113E+03  3.58326E+03  1.98813E+03  4.21666E+03  5.05655E+03  3.95957E+03  7.21480E+03
 -2.72812E+03  1.16244E+04 -9.48209E+03  1.11205E+04 -1.42226E+04  3.23490E+03 -1.51443E+04 -6.24005E+03
 -8.16528E+03 -1.53868E+04  2.42184E+03 -1.52794E+04  8.96697E+03 -1.04657E+04  1.16066E+04 -2.94879E+03
  8.41657E+03  5.83196E+03  1.77673E+03  7.31625E+03 -4.06826E+03  5.23358E+03 -5.63812E+03 -1.20202E+03
 -3.29674E+03 -5.68944E+03  3.43854E+03 -5.68461E+03  6.07410E+03 -2.95774E+03  5.53571E+03  6.37282E+02
  3.57998E+03  3.52085E+03  1.96952E+03  2.36841E+03 -1.13368E+03  2.15131E+03  1.17365E+03 -1.27616E+03
  2.40161E+03 -1.07189E+03  6.16048E+03  2.73409E+03  2.68212E+03  8.06234E+03 -2.02263E+03  1.06344E+04
 -7.04319E+03  6.63598E+03 -9.32619E+03  1.61473E+03 -8.60009E+03 -2.72005E+03 -3.22243E+03 -5.73587E+03
  1.22683E+03 -5.90271E+03  4.22286E+03 -2.86286E+03  3.01381E+03  2.30220E+03 -1.32570E+03  4.70011E+03
 -6.27750E+03  3.33831E+03 -6.63690E+03 -2.84425E+03 -4.41764E+03 -7.93469E+03  1.19053E+03 -8.25030E+03
  4.39245E+03 -4.56500E+03  6.19841E+03  3.16179E+01  4.38043E+03  2.73916E+03  8.80655E+01  4.83342E+03
 -3.49455E+03  1.52967E+03 -3.27666E+03 -2.63992E+03  1.43831E+03 -6.50122E+03  6.80688E+03 -6.21304E+03
  9.24202E+03  3.18128E+02  9.45767E+03  6.52890E+03  3.42538E+03  1.01556E+04 -3.38038E+03  9.14449E+03
 -7.94617E+03  4.48766E+03 -8.45122E+03 -9.51549E+02 -4.58005E+03 -6.73442E+03  1.17910E+03 -5.89793E+03
  5.83547E+03 -3.43309E+03  5.15054E+03  3.27147E+03  2.46490E+03  5.01836E+03 -5.12278E+02  3.87098E+03
 -2.67001E+03  2.57910E+03 -1.63161E+03  2.62770E+02 -1.62438E+03  1.21585E+03 -1.26131E+03  2.05733E+03
 -1.70542E+03  3.47418E+03 -6.61407E+03  3.26456E+03 -1.05184E+04  5.87377E+02 -1.03289E+04 -6.65724E+03
 -5.58876E+03 -1.34769E+04  2.61629E+03 -1.44294E+04  8.95345E+03 -1.12718E+04  1.34879E+04 -4.91275E+03
  1.36831E+04  3.54217E+03  8.32440E+03  9.89166E+03  1.44757E+03  1.04721E+04 -3.96386E+03  8.42051E+03
 -5.45003E+03  2.20456E+03 -3.64061E+03 -9.14233E+02 -7.68293E+02 -6.15542E+02 -9.00580E+02 -9.69652E+02
 -1.74252E+03  4.32176E+02 -1.86349E+03 -1.64779E+02  3.09159E+02 -2.73952E+03  3.19475E+02 -3.71727E+03
  4.63551E+03 -3.29301E+03  6.70546E+03 -6.58394E+01  6.74109E+03  4.88776E+03  2.01033E+03  1.01937E+04
 -5.27317E+03  1.08328E+04 -1.14266E+04  6.11146E+03 -1.21577E+04 -8.25268E+02 -8.73812E+03 -7.29998E+03
 -3.65487E+03 -1.04439E+04  2.10524E+03 -9.26421E+03  5.55586E+03 -5.19428E+03  6.57845E+03 -5.83147E+02
  4.01717E+03  3.32276E+03 -7.06568E+02  2.80899E+03 -1.82838E+03  2.52468E+02  3.88715E+02 -1.63642E+03
  2.56007E+03 -1.42551E+03  4.29449E+03  1.56709E+03  2.20247E+03  3.79814E+03  3.99051E+02  4.89127E+03
 -4.78438E+03  5.00702E+03 -6.66206E+03  5.84959E+02 -5.57780E+03 -4.23189E+03 -3.83989E+02 -8.26209E+03
  4.58811E+03 -7.64237E+03  7.57696E+03 -1.57731E+03  7.79777E+03  1.78250E+03  3.78198E+03  5.87049E+03
  1.47698E+02  7.21425E+03 -3.03023E+03  5.24342E+03 -4.17910E+03  3.50843E+03 -3.89589E+03  3.60234E+02
 -2.06146E+03 -2.91891E+02 -1.69609E+03  1.13907E+03 -3.64137E+03  6.53958E+02 -5.59035E+03 -1.90791E+03
 -5.17037E+03 -3.59159E+03 -1.44606E+03 -6.41450E+03  3.24964E+03 -7.10353E+03  6.35558E+03 -3.47943E+03
  7.37321E+03  7.82552E+02  3.11545E+03  4.58742E+03 -6.38129E+02  6.76475E+03 -4.43084E+03  4.85786E+03
