 $NMID ID='MM_0lb_SNR400_15hz_g45_27.RAW', FMTDAT='(8E13.5)'
 TRAMP=1., VOLUME=1. $END
  3.09745E+05  8.89670E+02  3.37866E+05  2.50833E+05  8.47484E+04  3.37783E+05 -1.32640E+05  2.50945E+05
 -1.90725E+05  8.24967E+04 -1.11381E+05 -3.24449E+04  1.52405E+03 -5.07150E+04  5.36663E+04 -1.42728E+02
  3.49092E+04  5.24160E+04 -1.66517E+04  7.53061E+04 -6.06831E+04  6.32413E+04 -8.40532E+04  3.16524E+04
 -8.01001E+04 -1.11331E+04 -5.73790E+04 -5.08872E+04 -1.46891E+04 -6.88005E+04  2.81273E+04 -4.55054E+04
  3.99583E+04  3.83245E+03  1.64569E+04  4.76784E+04 -3.43382E+04  4.66739E+04 -6.63296E+04  1.74761E+02
 -5.31625E+04 -5.60172E+04 -6.66541E+03 -7.68680E+04  3.34142E+04 -5.44548E+04  4.68811E+04 -1.69776E+04
  4.27166E+04  1.14357E+04  3.13479E+04  2.43007E+04  1.56574E+04  2.92250E+04 -5.12364E+03  2.69278E+04
 -2.18184E+04  1.22104E+04 -1.80761E+04 -5.48877E+03  5.44197E+03 -7.10559E+03  2.18730E+04  1.16295E+04
  7.02500E+03  3.48320E+04 -3.13520E+04  3.49687E+04 -6.27199E+04  2.74542E+03 -5.66708E+04 -4.18344E+04
 -1.28186E+04 -6.30122E+04  3.84813E+04 -4.46596E+04  5.75223E+04 -2.51850E+03  3.33366E+04  3.18683E+04
 -6.59747E+03  3.49391E+04 -2.98470E+04  1.57755E+04 -2.92335E+04 -4.70735E+03 -1.64552E+04 -1.01326E+04
 -7.29447E+03 -1.27175E+04 -1.22511E+03 -1.76670E+04  7.37863E+03 -2.28689E+04  1.47362E+04 -1.31708E+04
  1.20040E+04  5.07177E+03 -7.46840E+03  1.35991E+04 -2.06898E+04 -4.11453E+03 -7.84466E+03 -3.28397E+04
  2.21455E+04 -4.27940E+04  4.62666E+04 -1.92497E+04  4.30871E+04  1.93896E+04  1.52730E+04  4.26285E+04
 -1.55549E+04  3.30729E+04 -2.41818E+04  8.56192E+02 -9.88642E+03 -2.72088E+04  2.10538E+04 -3.31376E+04
  4.03715E+04 -8.62648E+03  3.45200E+04  2.29936E+04  1.75596E+04  4.49204E+04 -7.04383E+03  4.84445E+04
 -3.04163E+04  3.26151E+04 -3.99878E+04  9.59357E+03 -4.08499E+04 -1.58040E+04 -2.27553E+04 -3.67219E+04
  6.48330E+03 -3.68364E+04  3.04509E+04 -1.41695E+04  2.86181E+04  1.10480E+04  3.49313E+03  1.85653E+04
 -1.34002E+04  8.66288E+03 -1.01184E+04 -7.58051E+03  5.81259E+03 -1.07960E+04  1.78207E+04  5.78417E+03
  1.29216E+04  2.20640E+04 -6.11959E+03  2.46637E+04 -2.17033E+04  1.10416E+04 -2.72124E+04 -4.58757E+03
 -1.98334E+04 -1.66307E+04 -7.49894E+03 -1.92665E+04  3.99487E+03 -1.84143E+04  1.46866E+04 -1.68953E+04
  2.43369E+04 -1.23162E+04  3.13770E+04  2.53264E+03  2.29882E+04  1.89279E+04  4.30894E+03  3.46218E+04
 -1.76418E+04  2.95359E+04 -2.71981E+04  1.03495E+04 -2.05027E+04 -1.01347E+04 -4.62476E+03 -1.38142E+04
  2.11239E+03 -3.37292E+03 -4.34834E+03  6.20739E+03 -1.50855E+04  5.18111E+03 -1.51498E+04 -6.41452E+03
 -9.59295E+03 -1.71328E+04  4.84230E+03 -2.21556E+04  1.47835E+04 -1.62342E+04  1.69327E+04 -1.35613E+03
  1.08236E+04  1.23420E+04 -1.26078E+03  1.77397E+04 -1.26814E+04  1.07748E+04 -1.77175E+04 -3.97119E+03
 -1.33512E+04 -1.61813E+04 -1.75896E+03 -2.18590E+04  9.88305E+03 -1.81407E+04  1.83729E+04 -8.28375E+03
  1.71900E+04  3.96855E+02  1.19823E+04  4.31385E+03  5.76586E+03  7.18643E+02  9.18241E+03 -1.17896E+03
  1.61785E+04  2.83677E+03  1.86664E+04  1.43012E+04  1.13776E+04  2.84904E+04 -3.19488E+03  3.11417E+04
 -1.81262E+04  2.49226E+04 -2.93050E+04  1.26075E+04 -3.07922E+04 -2.43015E+03 -2.64286E+04 -1.69268E+04
 -1.10720E+04 -2.52995E+04  8.24889E+03 -2.31160E+04  2.04561E+04 -1.18168E+04  1.82291E+04  4.50212E+03
  6.88135E+03  1.34890E+04 -8.08676E+03  1.18181E+04 -1.50251E+04  2.96996E+03 -1.19293E+04 -9.13150E+03
  2.82158E+02 -1.41132E+04  7.47375E+03 -1.04299E+04  9.17648E+03 -1.61330E+03  1.72463E+03  5.85798E+03
 -6.77962E+03  2.10633E+03 -5.30702E+03 -5.99587E+03 -2.90260E+01 -1.21763E+04  9.01605E+03 -1.32546E+04
  1.52490E+04 -6.54407E+03  1.61873E+04  2.47383E+03  1.40420E+04  1.18028E+04  6.92608E+03  1.82176E+04
 -2.76503E+03  1.99842E+04 -1.30710E+04  1.27602E+04 -1.41514E+04  2.55310E+03 -1.06286E+04 -2.27774E+03
 -5.18881E+03 -4.12763E+03 -6.91466E+02  1.20684E+03 -1.46174E+03  2.80871E+03 -4.71666E+03  3.61241E+03
 -9.21286E+03 -7.39491E+02 -1.01707E+04 -7.69643E+03 -3.90256E+03 -1.34419E+04  4.55760E+03 -1.02308E+04
  8.63472E+03 -4.40045E+03  6.20361E+03  2.02751E+03  8.46352E+00  4.31626E+03 -4.37477E+03 -7.68019E+02
 -4.54200E+03 -6.86350E+03 -7.66368E+02 -9.01956E+03  5.07220E+03 -1.00951E+04  1.24827E+04 -5.17334E+03
  1.50132E+04  8.41991E+02  1.06612E+04  8.79977E+03  2.93375E+03  1.12341E+04 -6.19553E+03  1.04615E+04
 -7.96196E+03  3.49690E+03 -4.20031E+03 -1.40496E+03  1.21606E+03 -2.80882E+03  6.00346E+03 -6.62486E+02
  5.40106E+03  4.41796E+03  1.67608E+03  8.57971E+03 -5.67285E+03  8.06672E+03 -9.52055E+03  2.02883E+03
 -6.80910E+03 -5.46791E+03  6.89173E+00 -8.16048E+03  4.93458E+03 -4.56380E+03  5.16841E+03  1.68580E+03
  9.13393E+02  5.62582E+03 -5.20298E+03  6.18627E+03 -7.15187E+03  3.76230E+03 -6.74017E+03 -1.73417E+03
 -4.98702E+03 -8.38059E+03  1.88412E+03 -9.88149E+03  8.01193E+03 -6.67332E+03  9.38370E+03  1.85955E+03
  6.47319E+03  6.95442E+03 -7.42595E+02  9.52159E+03 -7.06842E+03  5.47579E+03 -7.32878E+03 -1.00098E+03
 -7.41314E+03 -6.15408E+03 -1.19191E+03 -7.25594E+03  3.62332E+03 -6.13576E+03  3.74684E+03 -3.33437E+03
  3.13007E+03  1.14492E+03 -1.66303E+00  1.15920E+03  1.92355E+01 -7.81746E+02  6.26841E+02 -3.47341E+03
  5.52533E+03 -2.21542E+03  8.33383E+03  6.92666E+02  8.81701E+03  5.45179E+03  7.10926E+03  1.06601E+04
 -2.41309E+03  1.27902E+04 -1.10609E+04  9.46833E+03 -1.41480E+04  2.21147E+03 -1.08014E+04 -4.54784E+03
 -6.14655E+03 -9.04340E+03 -4.49962E+02 -7.91104E+03  2.81203E+03 -3.35228E+03  2.26147E+03 -2.98230E+03
  1.67474E+03 -2.06466E+03  2.68425E+03 -2.32098E+03  4.21165E+03 -1.84734E+03  4.85468E+03 -2.92160E+02
  6.58808E+03  1.22262E+03  2.42481E+03  4.62692E+03 -1.52016E+03  4.91590E+03 -6.34250E+03  3.53057E+03
 -7.41035E+03 -1.04983E+03 -3.58606E+03 -4.92215E+03 -4.03742E+02 -7.89409E+03  5.20877E+03 -8.41803E+03
  7.88090E+03 -4.44542E+03  9.61468E+03  8.03927E+02  7.05720E+03  6.62316E+03  1.00528E+03  8.91004E+03
 -4.00093E+03  8.12425E+03 -5.02333E+03  2.63295E+03 -2.89337E+03 -1.21533E+03 -1.26623E+03 -1.11437E+03
 -3.37256E+02  3.93145E+02 -8.89237E+02  2.47022E+03 -3.76430E+03  1.35050E+03 -5.60123E+03 -1.29967E+02
 -2.69119E+03 -5.29356E+03  1.27830E+03 -7.02462E+03  3.64472E+03 -6.61954E+03  6.55363E+03 -1.67306E+03
  6.24458E+03  3.49431E+03  2.77549E+03  5.28730E+03 -1.08634E+03  7.21874E+03 -4.15786E+03  4.16754E+03
 -6.28439E+03  7.34063E+02 -5.16637E+03 -3.66151E+03 -9.72563E+02 -4.92757E+03  2.46594E+03 -4.35045E+03
  3.97966E+03 -1.13153E+03  2.27263E+03  7.03102E+02  9.47295E+02  1.91815E+03  7.65049E+02  8.48757E+02
  1.94691E+03  1.13094E+03  1.12622E+03  1.00514E+03  1.65438E+03  2.52141E+03  2.15806E+03  2.53878E+03
 -1.16002E+03  4.96627E+03 -4.17392E+03  5.67032E+03 -6.30928E+03  1.24559E+03 -6.26786E+03 -1.39939E+03
 -3.07331E+03 -6.28829E+03  1.00938E+03 -7.39845E+03  3.76633E+03 -4.02997E+03  5.23791E+03 -1.71078E+03
  3.88475E+03  2.65113E+03  7.85310E+02  3.61238E+03 -1.39839E+03  2.07076E+03 -2.13781E+03 -1.73745E+02
 -9.22197E+02 -3.10280E+03  2.35086E+03 -2.43179E+03  2.20498E+03 -1.18403E+03  2.51083E+03  4.30609E+02
  2.10844E+03  1.42490E+03  7.81737E+02  5.12940E+02 -4.15682E+02  8.90381E+02  1.95235E+03 -2.36963E+01
  2.42381E+02 -7.13222E+02  2.86873E+03  1.02141E+03  1.08188E+03  3.29875E+03 -1.45061E+03  4.90148E+03
 -3.10329E+03  2.99263E+03 -3.44745E+03  1.05378E+03 -3.38869E+03 -1.74473E+03 -7.56198E+02 -1.97443E+03
  4.78098E+02 -2.47869E+03  1.21316E+03 -1.30188E+03  1.45228E+03  1.23834E+03 -1.09867E+03  1.81875E+03
 -2.30320E+03  1.50678E+03 -2.69451E+03 -2.37599E+03 -1.72197E+03 -3.93032E+03  5.30508E+02 -3.10289E+03
  1.40338E+03 -1.53164E+03  2.00496E+03  4.48086E+02  2.05281E+03  3.90348E+02  6.68619E+02  1.53458E+03
 -5.76157E+02  4.63388E+02 -2.14017E+03 -1.04974E+03  7.51804E+02 -1.70666E+03  3.23063E+03 -2.30183E+03
  2.59221E+03  8.60746E+02  4.35804E+03  2.23848E+03  1.71087E+03  3.14110E+03 -8.43371E+02  3.08662E+03
 -2.42763E+03  8.19414E+02 -3.07461E+03 -9.14748E+02 -1.88837E+03 -2.11239E+03  9.72360E+02 -1.81598E+03
  2.12975E+03 -1.28390E+03  2.24244E+03  8.69700E+02  5.34832E+02  2.34077E+03 -3.65685E+02  1.51598E+03
 -7.59421E+02  1.26563E+03 -5.72131E+02  4.38444E+02  2.09577E+02  1.16495E+03 -7.42922E+02  1.66290E+03
 -1.39016E+03  1.87087E+03 -3.07222E+03  5.44578E+02 -3.61438E+03  2.38066E+02 -3.98846E+03 -2.28188E+03
 -2.06986E+03 -4.06207E+03  1.80428E+03 -5.24984E+03  2.35300E+03 -4.02239E+03  4.35689E+03 -1.65918E+03
  5.10281E+03  4.27693E+02  2.82543E+03  3.42433E+03 -8.78004E+02  3.34285E+03 -1.16620E+03  2.00810E+03
 -2.04461E+03  1.34261E+03 -1.36905E+03 -2.14912E+02 -2.82334E+02 -5.74675E+02 -3.25032E+02 -2.99708E+02
 -1.70656E+03 -1.87950E+02 -1.27600E+03 -1.94024E+02  1.94952E+02 -7.69027E+02 -2.88539E+02 -1.61559E+03
  2.13410E+03 -1.39679E+03  1.83818E+03  4.04342E+02  2.04605E+03  1.93749E+03  6.66468E+02  3.25246E+03
 -2.30912E+03  4.26311E+03 -3.32820E+03  1.97053E+03 -4.33740E+03  2.94729E+02 -2.99961E+03 -2.50767E+03
 -1.35934E+03 -2.91157E+03  8.06175E+02 -2.63755E+03  1.65262E+03 -1.77911E+03  1.26553E+03  4.52378E+02
  1.27963E+03  6.50018E+02 -4.07105E+02  1.63166E+02 -1.09979E+03 -8.14533E+01 -1.59438E+02 -7.66562E+02
  5.86685E+02 -4.96291E+02  1.00296E+03  5.10544E+02  2.95527E+02  1.46439E+03  2.22163E+02  1.49885E+03
 -1.14204E+03  1.68252E+03 -2.47146E+03 -3.34987E+02 -1.11613E+03 -1.44023E+03 -4.98724E+02 -2.45283E+03
  6.91671E+02 -1.59776E+03  2.00785E+03 -5.79785E+02  2.45116E+03  5.63866E+02  1.04217E+03  1.75913E+03
  6.39597E+02  1.24968E+03 -5.39963E+02  1.14787E+03 -1.62525E+03  1.60452E+03 -6.04252E+02  1.74417E+02
 -8.53954E+02 -1.92111E+02 -1.55632E+02 -1.65092E+02 -7.94748E+02  5.79428E+02 -1.76320E+03 -6.94402E+01
 -1.98739E+03  1.64851E+01 -3.97181E+02 -1.56847E+03  9.19582E+02 -2.49066E+03  1.14725E+03 -1.13991E+03
  1.90681E+03  6.22113E+01  5.15069E+02  1.48198E+03  1.28109E+02  2.11836E+03 -1.26299E+03  2.11098E+03
