 $NMID ID='MM_0lb_SNR400_18hz_g45_98.RAW', FMTDAT='(8E13.5)'
 TRAMP=1., VOLUME=1. $END
  3.10171E+05  1.59556E+02  3.36987E+05  2.50157E+05  8.40122E+04  3.37851E+05 -1.32021E+05  2.50280E+05
 -1.89929E+05  8.28520E+04 -1.10941E+05 -3.37323E+04  1.39057E+03 -5.01546E+04  5.47025E+04  2.52653E+02
  3.47647E+04  5.33030E+04 -1.70427E+04  7.53119E+04 -6.01096E+04  6.34673E+04 -8.28559E+04  3.12733E+04
 -7.93109E+04 -1.11583E+04 -5.64420E+04 -4.99341E+04 -1.54931E+04 -6.87056E+04  2.69052E+04 -4.47968E+04
  3.88343E+04  4.04359E+03  1.45995E+04  4.73395E+04 -3.38158E+04  4.63615E+04 -6.54915E+04 -6.76792E+02
 -5.16753E+04 -5.62821E+04 -6.12297E+03 -7.50429E+04  3.30311E+04 -5.35125E+04  4.67477E+04 -1.68261E+04
  4.12999E+04  1.12123E+04  3.06751E+04  2.44974E+04  1.54931E+04  2.87336E+04 -4.47359E+03  2.68860E+04
 -2.22193E+04  1.24274E+04 -1.95370E+04 -4.53381E+03  4.50172E+03 -7.45762E+03  2.14052E+04  1.08181E+04
  7.72779E+03  3.36710E+04 -3.05825E+04  3.39606E+04 -6.12431E+04  2.06430E+03 -5.52550E+04 -4.12763E+04
 -1.27751E+04 -6.07942E+04  3.81510E+04 -4.33633E+04  5.58126E+04 -2.16388E+03  3.19252E+04  3.07054E+04
 -6.39887E+03  3.31085E+04 -2.84235E+04  1.36922E+04 -2.79973E+04 -5.45179E+03 -1.48189E+04 -9.67194E+03
 -7.75410E+03 -1.17626E+04 -1.45085E+03 -1.63528E+04  6.44440E+03 -2.29004E+04  1.47885E+04 -1.36141E+04
  1.19291E+04  4.62541E+03 -5.69986E+03  1.31046E+04 -1.92917E+04 -2.93245E+03 -8.57502E+03 -3.04179E+04
  2.10848E+04 -4.07750E+04  4.47606E+04 -1.88914E+04  4.19930E+04  1.81059E+04  1.48291E+04  4.16841E+04
 -1.54489E+04  3.10513E+04 -2.38794E+04  1.10329E+03 -8.19228E+03 -2.64702E+04  2.03541E+04 -3.05634E+04
  3.81234E+04 -7.45112E+03  3.14591E+04  2.29116E+04  1.57410E+04  4.27766E+04 -7.55678E+03  4.56691E+04
 -2.84419E+04  3.01468E+04 -3.78371E+04  8.37127E+03 -3.88186E+04 -1.53973E+04 -2.16222E+04 -3.46780E+04
  7.01612E+03 -3.42562E+04  2.96352E+04 -1.28786E+04  2.69892E+04  1.08877E+04  3.36923E+03  1.80120E+04
 -1.32746E+04  7.05414E+03 -9.48696E+03 -7.98472E+03  5.91764E+03 -9.79557E+03  1.73011E+04  6.47015E+03
  1.22482E+04  2.10435E+04 -6.41469E+03  2.31821E+04 -2.13119E+04  9.41051E+03 -2.50776E+04 -6.34248E+03
 -1.72869E+04 -1.69235E+04 -5.72264E+03 -1.66852E+04  3.85752E+03 -1.47934E+04  1.27733E+04 -1.47797E+04
  2.15444E+04 -1.16843E+04  2.90259E+04  1.32294E+03  2.21248E+04  1.65011E+04  4.02468E+03  3.26131E+04
 -1.63551E+04  2.81468E+04 -2.60156E+04  1.00883E+04 -1.98045E+04 -1.00393E+04 -3.55405E+03 -1.44723E+04
  2.58412E+03 -3.71846E+03 -2.72988E+03  5.62936E+03 -1.34212E+04  5.36889E+03 -1.35554E+04 -5.09055E+03
 -8.08379E+03 -1.59851E+04  4.14479E+03 -1.96652E+04  1.26983E+04 -1.42037E+04  1.46222E+04 -2.02575E+03
  9.16663E+03  1.11269E+04 -6.95485E+02  1.60856E+04 -1.04282E+04  8.58911E+03 -1.54827E+04 -3.55043E+03
 -1.20133E+04 -1.40898E+04 -9.28398E+02 -1.94214E+04  8.61778E+03 -1.58110E+04  1.60279E+04 -7.76310E+03
  1.46955E+04  7.11531E+02  1.07751E+04  4.21552E+03  5.46056E+03  5.73932E+02  7.70829E+03 -1.27823E+03
  1.41587E+04  2.98955E+03  1.43542E+04  1.37031E+04  9.30572E+03  2.42391E+04 -2.93739E+03  2.68349E+04
 -1.61644E+04  2.07514E+04 -2.51142E+04  9.77356E+03 -2.48643E+04 -1.51964E+03 -2.13877E+04 -1.40842E+04
 -1.04031E+04 -2.07038E+04  6.97785E+03 -1.94831E+04  1.67960E+04 -1.08765E+04  1.58401E+04  3.62408E+03
  6.15991E+03  1.16582E+04 -7.34104E+03  1.07480E+04 -1.32757E+04  2.22658E+03 -1.06910E+04 -8.31305E+03
  3.35892E+02 -1.27542E+04  6.23166E+03 -9.03495E+03  7.98706E+03 -1.81083E+03  1.45215E+03  4.44806E+03
 -5.64866E+03  1.47623E+03 -3.33627E+03 -4.79380E+03  2.49653E+02 -1.05169E+04  7.83459E+03 -1.02205E+04
  1.26916E+04 -5.17714E+03  1.16625E+04  2.21198E+03  1.04185E+04  9.71688E+03  4.80153E+03  1.42756E+04
 -1.70873E+03  1.67911E+04 -9.42527E+03  9.91278E+03 -1.19691E+04  2.49103E+03 -8.50482E+03 -2.05718E+03
 -4.88364E+03 -3.35586E+03 -3.61693E+02  1.97243E+03 -2.08159E+03  2.19601E+03 -3.54495E+03  4.07391E+03
 -8.54605E+03 -2.65315E+02 -8.85234E+03 -6.87864E+03 -3.29475E+03 -1.24493E+04  3.87688E+03 -9.07904E+03
  7.24903E+03 -3.92967E+03  5.24101E+03  1.97684E+03  4.26014E+02  3.55727E+03 -4.15038E+03 -1.68759E+01
 -3.71345E+03 -5.14290E+03 -1.16736E+03 -7.06626E+03  3.78475E+03 -8.33019E+03  1.00939E+04 -4.29037E+03
  1.22190E+04  2.65833E+02  9.39539E+03  6.67812E+03  1.43222E+03  8.31042E+03 -5.74213E+03  8.27007E+03
 -6.95968E+03  2.61182E+03 -3.64737E+03 -1.50453E+03  1.17311E+03 -2.20269E+03  4.90724E+03 -1.03877E+03
  3.74446E+03  3.77547E+03  1.32519E+03  6.87903E+03 -4.91415E+03  5.88234E+03 -8.04041E+03  2.12209E+03
 -5.44729E+03 -3.85785E+03  2.08685E+02 -7.82275E+03  3.86571E+03 -3.24957E+03  3.47678E+03  1.33459E+03
  6.57645E+02  3.98208E+03 -4.06066E+03  4.67483E+03 -4.99467E+03  2.74396E+03 -4.44491E+03 -1.37100E+03
 -2.61918E+03 -6.58971E+03  9.49757E+02 -7.02815E+03  5.99179E+03 -5.21307E+03  6.72109E+03  1.22291E+03
  4.62576E+03  5.57060E+03  5.08400E+02  7.18446E+03 -4.90610E+03  4.19484E+03 -5.89020E+03 -9.06987E+02
 -5.93006E+03 -5.45461E+03 -1.77125E+03 -5.38922E+03  3.45002E+03 -5.03782E+03  2.93382E+03 -2.75150E+03
  3.11938E+03 -7.45021E+01  3.36260E+02  1.16700E+03  1.07548E+03 -7.10601E+02  4.81236E+02 -1.55476E+03
  4.16830E+03 -8.69040E+02  5.85502E+03  3.39224E+02  5.44398E+03  3.31990E+03  5.94604E+03  7.46290E+03
 -1.41051E+03  8.53558E+03 -7.87044E+03  6.71663E+03 -1.01112E+04  6.76604E+02 -8.43892E+03 -2.98175E+03
 -4.74461E+03 -6.65817E+03 -5.96769E+02 -4.80766E+03  2.58263E+03 -1.88819E+03  2.25957E+03 -2.14319E+03
  1.46267E+03 -1.77593E+03  2.90578E+03 -2.13337E+03  3.76125E+03 -1.81780E+03  3.62792E+03  4.53772E+02
  4.20149E+03  9.42213E+02  1.30254E+03  3.87530E+03 -1.61005E+03  3.04718E+03 -4.63476E+03  3.32672E+03
 -5.68678E+03 -1.06269E+03 -1.81080E+03 -3.05648E+03  3.11752E+02 -4.68396E+03  3.31793E+03 -5.30394E+03
  6.08510E+03 -3.37424E+03  7.05945E+03  6.90532E+02  5.06335E+03  3.90444E+03  1.06833E+03  6.08712E+03
 -2.47204E+03  5.73109E+03 -3.27705E+03  1.28092E+03 -2.62807E+03 -1.33661E+03 -6.82337E+02 -8.97026E+02
 -2.26462E+02  4.25917E+02 -7.17649E+02  1.72285E+03 -2.48795E+03  1.09894E+03 -3.96567E+03 -5.10804E+02
 -1.55281E+03 -4.01417E+03  1.03593E+03 -4.69501E+03  2.18654E+03 -5.04508E+03  4.35001E+03 -1.33078E+03
  4.10281E+03  2.20406E+03  1.53494E+03  3.39943E+03 -1.07112E+03  4.70025E+03 -2.77687E+03  2.79733E+03
 -3.81775E+03  8.00809E+02 -3.35413E+03 -2.68034E+03 -1.61410E+02 -3.51384E+03  2.32134E+03 -2.66508E+03
  2.75635E+03 -1.56801E+03  2.18362E+03  2.65170E+01  6.99930E+02  1.58842E+03  1.11731E+03  1.11426E+03
  1.94868E+03  2.51364E+02  1.14958E+03  3.95111E+02  9.60770E+02  2.49599E+03  7.39101E+02  2.28777E+03
 -8.85890E+02  3.48363E+03 -3.28841E+03  4.00161E+03 -3.01420E+03  1.73838E+03 -4.67640E+03 -3.19267E+02
 -2.83028E+03 -4.28076E+03  7.44026E+02 -4.57630E+03  1.35909E+03 -2.51265E+03  2.97148E+03 -7.67759E+02
  2.76879E+03  2.28301E+03  1.03202E+03  2.49268E+03 -8.86557E+02  1.14229E+03 -1.42615E+03  1.38334E+02
 -1.26998E+03 -1.90980E+03  1.25362E+03 -2.10154E+03  1.76709E+03 -6.05463E+02  1.59148E+03  6.10074E+02
  5.59740E+02 -4.12381E+02  1.03248E+03 -3.58770E+02 -2.44277E+02  5.33616E+02  1.61706E+03 -4.11072E+02
  5.93938E+01 -2.03545E+02  1.65652E+03  3.95828E+02  2.25465E+02  2.14460E+03 -3.40051E+02  2.45408E+03
 -1.69952E+03  1.35102E+03 -1.88442E+03  2.48423E+01 -2.62569E+03 -6.83260E+02 -2.74038E+02 -1.27746E+03
  6.24559E+02 -9.96098E+02  1.42965E+03 -5.11812E+02  2.70219E+02  1.28761E+03 -6.52207E+02  1.12644E+03
 -1.18712E+03  6.92958E+02 -1.13195E+03 -1.19699E+03 -5.89516E+02 -2.27503E+03  7.49516E+02 -1.96830E+03
 -6.14797E+00 -1.23128E+02  8.43056E+02 -5.13013E+01  5.45629E+02  2.42207E+02 -2.81325E+02  1.23982E+03
 -2.38062E+02  1.71095E+02 -1.52680E+03 -3.78281E+01  5.60824E+02 -5.95148E+02  1.66492E+03 -1.34152E+03
  1.71935E+03  3.98663E+02  2.49371E+03  1.14822E+03  7.69957E+02  2.05932E+03 -2.46558E+02  1.76487E+03
 -1.30751E+03  3.06132E+01 -1.81032E+03 -6.37641E+02 -6.05688E+02 -1.15868E+03  2.23637E+02 -5.93049E+02
  1.65321E+03 -6.44258E+02  6.59999E+02  7.32472E+02  5.26910E+02  1.74407E+03  4.46468E+02  1.00407E+03
 -5.03566E+02  1.26676E+03 -9.60996E+02  2.64350E+02  2.66940E+02  6.16670E+02 -6.12972E+02  4.08723E+02
 -3.74360E+02  1.45419E+03 -1.95794E+03  2.59959E+02 -1.90739E+03  2.95874E+02 -2.46183E+03 -1.79230E+03
 -1.11742E+03 -3.17059E+03  2.93765E+02 -2.61949E+03  1.69765E+03 -2.51205E+03  2.84902E+03 -1.25699E+03
  2.90126E+03  2.28948E+02  1.19982E+03  1.64928E+03 -8.54229E+02  1.38650E+03 -3.84300E+02  1.55524E+03
 -1.01161E+03  6.80684E+02 -7.90392E+02 -6.89940E-01 -3.05336E+02  5.55381E+02 -4.91501E+02  2.14468E+02
 -1.41300E+03 -1.86000E+01 -6.74165E+02 -2.03132E+02  5.78936E+02 -6.20528E+02 -3.09205E+02 -5.62942E+02
  1.80545E+03 -3.76871E+02  2.67452E+02  1.13012E+02  1.10465E+03  1.45197E+03 -4.33521E+02  1.62407E+03
 -8.37853E+02  2.02538E+03 -1.97017E+03  1.39704E+03 -1.73215E+03  1.62377E+02 -1.12330E+03 -1.18000E+03
 -6.79802E+02 -1.78273E+03  4.99919E+02 -1.30208E+03  8.77261E+02 -7.93271E+02  5.54870E+02 -2.76661E+02
  5.79548E+02 -4.37541E+01 -4.17375E+02  2.47012E+02 -5.06318E+02  1.57715E+02  3.64511E+02 -1.31309E+03
  8.94763E+01  2.86938E+02  6.27605E+02  1.06388E+03  1.94864E+02  7.15417E+02  1.51609E+02  3.94629E+02
 -1.04242E+03  3.11318E+02 -5.49450E+02  1.11684E+02 -3.16319E+02 -5.76456E+02 -3.04863E+02 -1.58219E+03
  2.91704E+02 -7.56325E+02  3.55277E+02  2.41150E+02  1.19393E+03 -2.68264E+02  1.02413E+03  8.01034E+02
  2.84365E+02  8.71982E+02 -2.62256E+02  9.61188E+02 -6.91245E+02  1.12907E+03 -1.24052E+03  1.99085E+02
 -7.92926E+02 -9.02942E+01 -6.26428E+02  5.36050E+02 -8.01531E+01  6.11735E+02 -4.37462E+02 -7.01725E+02
 -1.05470E+03 -8.51145E+01  4.13247E+02 -1.05462E+03  6.70679E+02 -9.89327E+02  9.02336E+02 -4.26398E+02
  1.20613E+03  2.14305E+02 -6.55326E+02  4.17782E+02 -1.08628E+02  1.02130E+03 -6.63602E+02  4.95249E+02
