 $NMID ID='MM_0lb_SNR400_13hz_g55_19.RAW', FMTDAT='(8E13.5)'
 TRAMP=1., VOLUME=1. $END
  3.10092E+05  4.79230E+02  3.37329E+05  2.51161E+05  8.47975E+04  3.38508E+05 -1.32492E+05  2.51711E+05
 -1.90149E+05  8.38391E+04 -1.12836E+05 -3.27440E+04  5.91016E+02 -5.07012E+04  5.40464E+04 -1.26652E+02
  3.58622E+04  5.25353E+04 -1.66379E+04  7.60717E+04 -6.13781E+04  6.41116E+04 -8.51983E+04  3.20622E+04
 -8.15722E+04 -1.14028E+04 -5.70154E+04 -5.20001E+04 -1.53704E+04 -6.98099E+04  2.79930E+04 -4.64197E+04
  4.11096E+04  3.10502E+03  1.62644E+04  4.81156E+04 -3.42575E+04  4.76325E+04 -6.71975E+04  1.26001E+02
 -5.38890E+04 -5.70041E+04 -6.82969E+03 -7.78804E+04  3.42798E+04 -5.57430E+04  4.87515E+04 -1.72360E+04
  4.41527E+04  1.15016E+04  3.13917E+04  2.61208E+04  1.56363E+04  3.04026E+04 -5.39997E+03  2.74168E+04
 -2.24612E+04  1.17995E+04 -1.83333E+04 -5.17583E+03  6.17769E+03 -7.23536E+03  2.32349E+04  1.33182E+04
  6.48586E+03  3.60891E+04 -3.29978E+04  3.56922E+04 -6.41512E+04  2.00474E+03 -5.81295E+04 -4.35440E+04
 -1.24136E+04 -6.41291E+04  4.07388E+04 -4.55114E+04  5.92094E+04 -2.34721E+03  3.53947E+04  3.31770E+04
 -5.87433E+03  3.75788E+04 -3.06793E+04  1.68455E+04 -3.18912E+04 -4.64181E+03 -1.78900E+04 -1.15164E+04
 -8.95966E+03 -1.36370E+04 -6.18818E+02 -1.87938E+04  8.03649E+03 -2.32221E+04  1.62881E+04 -1.28959E+04
  1.09931E+04  5.06911E+03 -9.15571E+03  1.35091E+04 -2.20265E+04 -5.33110E+03 -8.61001E+03 -3.47010E+04
  2.34903E+04 -4.46711E+04  4.92488E+04 -1.99818E+04  4.61514E+04  1.98247E+04  1.63282E+04  4.45172E+04
 -1.65519E+04  3.47828E+04 -2.61364E+04  1.77892E+03 -1.01267E+04 -2.87559E+04  2.13512E+04 -3.51506E+04
  4.18689E+04 -9.28134E+03  3.73993E+04  2.44083E+04  1.96384E+04  4.89015E+04 -7.60462E+03  5.32378E+04
 -3.30699E+04  3.52610E+04 -4.42064E+04  9.90466E+03 -4.39537E+04 -1.68580E+04 -2.51033E+04 -3.93384E+04
  7.21691E+03 -3.87662E+04  3.28647E+04 -1.52419E+04  3.03039E+04  1.06450E+04  3.99086E+03  1.92603E+04
 -1.41768E+04  9.07845E+03 -1.12063E+04 -8.35123E+03  5.33504E+03 -1.07205E+04  1.88006E+04  5.68016E+03
  1.43746E+04  2.21272E+04 -5.90288E+03  2.61105E+04 -2.23896E+04  1.15008E+04 -2.90886E+04 -3.63796E+03
 -2.26003E+04 -1.74677E+04 -9.08604E+03 -2.21806E+04  4.06724E+03 -2.13265E+04  1.66103E+04 -1.93874E+04
  2.83240E+04 -1.30564E+04  3.47312E+04  3.55320E+03  2.43924E+04  2.14673E+04  4.21034E+03  3.82950E+04
 -1.80933E+04  3.11035E+04 -2.86276E+04  1.09290E+04 -2.17524E+04 -1.02750E+04 -4.73357E+03 -1.30220E+04
  6.04668E+02 -2.66215E+03 -5.38342E+03  7.40537E+03 -1.77920E+04  5.68749E+03 -1.78235E+04 -7.71045E+03
 -1.09000E+04 -1.97097E+04  5.31440E+03 -2.43457E+04  1.64378E+04 -1.76569E+04  1.92464E+04 -9.52024E+02
  1.23021E+04  1.35658E+04 -8.85395E+02  2.02184E+04 -1.41498E+04  1.20944E+04 -2.03070E+04 -4.29473E+03
 -1.50184E+04 -1.76586E+04 -1.86461E+03 -2.47536E+04  1.02115E+04 -2.03091E+04  2.08073E+04 -1.01043E+04
  1.88724E+04 -2.22237E+02  1.43161E+04  4.59486E+03  7.91693E+03  1.57678E+03  1.02961E+04 -2.01049E+03
  1.85515E+04  2.95451E+03  2.09985E+04  1.61985E+04  1.47347E+04  3.22544E+04 -2.97117E+03  3.75859E+04
 -2.09367E+04  3.02785E+04 -3.48954E+04  1.54142E+04 -3.70024E+04 -2.41935E+03 -3.09066E+04 -2.11375E+04
 -1.29184E+04 -3.02785E+04  1.03879E+04 -2.70685E+04  2.32795E+04 -1.36838E+04  2.00274E+04  6.79495E+03
  7.06680E+03  1.56563E+04 -9.15572E+03  1.43536E+04 -1.72662E+04  2.51804E+03 -1.31219E+04 -1.07154E+04
  4.49761E+01 -1.65076E+04  8.71221E+03 -1.18653E+04  1.06596E+04 -1.35110E+03  2.69906E+03  7.38482E+03
 -7.37212E+03  2.29591E+03 -7.52156E+03 -5.76689E+03 -1.08292E+03 -1.48062E+04  1.05716E+04 -1.54247E+04
  1.85998E+04 -8.59519E+03  2.02579E+04  3.27349E+03  1.79178E+04  1.52277E+04  8.52687E+03  2.32631E+04
 -3.78500E+03  2.47231E+04 -1.57045E+04  1.52389E+04 -1.73841E+04  3.62043E+03 -1.29750E+04 -4.26116E+03
 -5.37863E+03 -5.42363E+03 -8.79985E+02  1.52099E+03 -3.06419E+03  3.12842E+03 -5.47553E+03  4.09792E+03
 -1.20656E+04 -5.47118E+02 -1.19260E+04 -9.65508E+03 -5.05260E+03 -1.58961E+04  5.12905E+03 -1.26265E+04
  1.03978E+04 -5.10489E+03  7.71459E+03  3.52349E+03 -2.04748E+02  5.14315E+03 -6.25372E+03  6.91385E+01
 -5.77066E+03 -8.44873E+03 -1.16518E+03 -1.19612E+04  6.41254E+03 -1.24380E+04  1.56176E+04 -7.01617E+03
  1.78688E+04  1.14828E+03  1.31186E+04  1.10046E+04  3.36824E+03  1.48034E+04 -7.71175E+03  1.19010E+04
 -1.07184E+04  4.24984E+03 -5.24373E+03 -2.26612E+03  1.71499E+03 -3.50466E+03  6.55055E+03 -6.21045E+02
  6.09358E+03  5.08477E+03  1.39549E+03  1.03612E+04 -6.74002E+03  9.54194E+03 -1.20208E+04  2.57207E+03
 -7.65351E+03 -6.74508E+03  1.20643E+02 -1.02872E+04  6.54836E+03 -5.23197E+03  7.01942E+03  2.97792E+03
  1.33649E+03  6.88359E+03 -6.83592E+03  8.56456E+03 -9.65200E+03  3.51015E+03 -9.87897E+03 -3.26730E+03
 -5.65294E+03 -1.08537E+04  2.23798E+03 -1.30068E+04  1.12085E+04 -8.57705E+03  1.21141E+04  1.80424E+03
  8.38763E+03  9.71238E+03 -1.21585E+03  1.15667E+04 -8.85684E+03  6.38645E+03 -8.97055E+03 -1.20306E+03
 -8.40444E+03 -8.27494E+03 -1.62629E+03 -8.78346E+03  4.64269E+03 -7.20183E+03  5.17750E+03 -3.10433E+03
  3.97675E+03  1.19590E+03 -5.22867E+02  2.02856E+03  6.62889E+01 -1.66472E+03  1.17751E+03 -5.15198E+03
  7.45418E+03 -2.71957E+03  1.02870E+04  1.46712E+03  1.07244E+04  7.55710E+03  8.12645E+03  1.47146E+04
 -3.33130E+03  1.70454E+04 -1.40269E+04  1.24152E+04 -1.78108E+04  2.21173E+03 -1.46897E+04 -5.93004E+03
 -7.26912E+03 -1.18999E+04 -3.52017E+02 -9.85211E+03  3.90501E+03 -5.72115E+03  3.27339E+03 -4.22876E+03
  2.96714E+03 -2.33931E+03  3.28481E+03 -3.24237E+03  4.85863E+03 -2.35907E+03  5.73055E+03 -4.68262E+02
  7.18956E+03  2.57865E+03  3.23710E+03  7.43666E+03 -2.22445E+03  7.25746E+03 -7.71067E+03  5.17569E+03
 -9.59784E+03 -1.31502E+03 -6.12811E+03 -6.68847E+03 -5.73065E+02 -1.05822E+04  5.34874E+03 -1.04061E+04
  1.06184E+04 -5.80475E+03  1.32973E+04  1.41780E+03  9.65942E+03  9.18398E+03  1.60106E+03  1.19787E+04
 -5.25614E+03  1.10659E+04 -6.90083E+03  3.68056E+03 -4.20037E+03 -1.11152E+03 -1.57215E+03 -1.89154E+03
 -1.19334E+03 -3.20214E+02 -1.25323E+03  2.52122E+03 -4.23521E+03  1.53324E+03 -6.54464E+03 -8.80472E+02
 -4.21622E+03 -6.64649E+03  2.98920E+01 -9.12149E+03  5.68614E+03 -9.05034E+03  9.18938E+03 -3.00357E+03
  9.17490E+03  3.99406E+03  4.29090E+03  7.86372E+03 -2.22999E+03  9.73753E+03 -6.54972E+03  5.84534E+03
 -9.52104E+03  9.94662E+02 -6.73724E+03 -6.23038E+03 -6.86558E+02 -7.38845E+03  4.24864E+03 -4.98186E+03
  6.24773E+03 -2.09199E+03  4.40703E+03  1.93883E+03  1.21742E+03  2.41260E+03  6.22866E+02  6.03058E+02
  2.82697E+03  8.91829E+02  2.69239E+03  1.35932E+03  2.61422E+03  3.98841E+03  2.35203E+03  5.49174E+03
 -1.89694E+03  7.60684E+03 -5.73591E+03  7.71821E+03 -9.25702E+03  2.15767E+03 -1.00750E+04 -3.50755E+03
 -4.10037E+03 -9.11578E+03  1.40161E+03 -9.80877E+03  5.65354E+03 -5.70109E+03  7.69827E+03 -1.59460E+03
  6.08270E+03  4.47116E+03  2.02010E+03  5.38013E+03 -2.81909E+03  3.55040E+03 -3.90075E+03  5.85475E+02
 -1.51135E+03 -3.81118E+03  1.92431E+03 -4.58796E+03  3.86190E+03 -2.29909E+03  3.47485E+03  1.12772E+03
  2.07410E+03  1.94808E+03  9.79939E+02  7.72616E+02 -5.18498E+02  6.12868E+02  1.37073E+03 -3.75601E+02
  1.32946E+03 -3.22090E+02  4.15398E+03  1.49830E+03  2.05782E+03  4.72470E+03 -8.47306E+02  6.56695E+03
 -4.26120E+03  3.87139E+03 -5.12125E+03  1.36181E+03 -4.92113E+03 -1.80595E+03 -1.18963E+03 -3.64896E+03
  1.25763E+03 -3.81975E+03  3.35162E+03 -1.63589E+03  2.40936E+03  1.90196E+03 -1.59494E+03  3.42073E+03
 -4.46864E+03  1.73385E+03 -3.79015E+03 -2.26480E+03 -2.17471E+03 -4.62713E+03  1.11515E+03 -4.91322E+03
  2.25537E+03 -2.62056E+03  3.13854E+03 -5.97515E+02  2.85240E+03  7.60058E+02  6.77192E+02  2.71288E+03
 -1.54007E+03  1.08947E+03 -2.09164E+03 -6.67368E+02  1.33288E+03 -3.23948E+03  4.06814E+03 -2.49331E+03
  5.10521E+03  7.80483E+02  5.72987E+03  2.71019E+03  1.87211E+03  5.05856E+03 -1.26315E+03  5.19150E+03
 -4.20662E+03  1.97256E+03 -5.43404E+03 -1.10539E+03 -2.60724E+03 -3.93598E+03  7.39736E+02 -3.38680E+03
  3.47917E+03 -1.82236E+03  2.54395E+03  1.35995E+03  7.31713E+02  2.82363E+03  3.34022E+02  3.10238E+03
 -5.64609E+02  2.34878E+03 -9.60053E+02  5.13190E+02 -1.11681E+02  6.79885E+02 -1.52139E+03  1.25211E+03
 -1.84845E+03  2.27071E+03 -4.12714E+03  1.71507E+03 -5.76294E+03  3.07431E+01 -6.46502E+03 -3.17137E+03
 -3.19219E+03 -6.73001E+03  1.71465E+03 -8.35057E+03  4.31236E+03 -6.28088E+03  7.78478E+03 -2.33712E+03
  6.82706E+03  4.74971E+02  4.08487E+03  4.91578E+03 -2.96690E+02  5.51736E+03 -2.01651E+03  3.53287E+03
 -3.28285E+03  1.76283E+03 -1.24763E+03 -4.12492E+02 -8.05026E+02 -7.79366E+02 -1.23991E+03 -1.26460E+02
 -1.11606E+03  1.69576E+02 -1.97627E+03 -2.94861E+02 -6.60524E+02 -2.22587E+03 -1.49558E+02 -3.42614E+03
  3.04686E+03 -1.05250E+03  2.72457E+03  1.18610E+02  3.99552E+03  2.60909E+03  4.96084E+02  4.82602E+03
 -2.51327E+03  6.03138E+03 -5.57518E+03  3.62738E+03 -5.72838E+03 -1.08724E+03 -4.29396E+03 -3.90484E+03
 -2.21695E+03 -4.99646E+03  1.15443E+03 -4.25906E+03  2.90558E+03 -2.54396E+03  2.62269E+03  5.69243E+02
  2.18365E+03  1.53534E+03  2.34533E+02  9.73613E+02 -1.09342E+03  1.55407E+02 -4.40720E+02 -1.33517E+03
  1.48717E+03 -7.96346E+02  1.79389E+03  1.15377E+03  1.43115E+03  1.61881E+03  3.41234E+02  2.28128E+03
 -1.68781E+03  2.62385E+03 -3.46925E+03 -7.95326E+01 -2.83454E+03 -1.35978E+03  1.58286E+01 -3.74681E+03
  2.61131E+03 -3.46387E+03  3.61711E+03 -9.45590E+02  4.32034E+03  3.10086E+02  1.64550E+03  2.93796E+03
  3.29338E+02  3.19485E+03 -1.24814E+03  2.43446E+03 -2.81783E+03  1.03778E+03 -1.36729E+03  2.83362E+02
 -2.73802E+02 -4.79672E+02 -1.03795E+03  2.65411E+02 -2.08240E+03  2.51198E+01 -2.60934E+03 -2.93667E+02
 -3.57006E+03 -1.56401E+03 -9.23810E+02 -3.08680E+03  1.73441E+03 -3.31088E+03  2.68192E+03 -1.59034E+03
  3.33432E+03 -1.24758E+02  1.39234E+03  1.72974E+03 -4.70710E+02  2.82821E+03 -2.12285E+03  2.22674E+03
