 $NMID ID='MM_0lb_SNR400_10hz_g55_1.RAW', FMTDAT='(8E13.5)'
 TRAMP=1., VOLUME=1. $END
  3.08974E+05  4.98971E+02  3.37331E+05  2.50577E+05  8.53582E+04  3.38631E+05 -1.31501E+05  2.52194E+05
 -1.90957E+05  8.35655E+04 -1.12487E+05 -3.24582E+04 -8.78159E+01 -5.07001E+04  5.35020E+04 -7.77093E+02
  3.64562E+04  5.28991E+04 -1.72104E+04  7.60535E+04 -6.12795E+04  6.50269E+04 -8.51353E+04  3.20670E+04
 -8.20795E+04 -1.20001E+04 -5.92894E+04 -5.24712E+04 -1.58032E+04 -7.06487E+04  2.80329E+04 -4.71244E+04
  4.08561E+04  3.95036E+03  1.66240E+04  4.87900E+04 -3.51585E+04  4.84244E+04 -6.75284E+04  6.50763E+01
 -5.55487E+04 -5.72080E+04 -6.96964E+03 -7.89062E+04  3.47143E+04 -5.65531E+04  4.96746E+04 -1.78732E+04
  4.52085E+04  1.14143E+04  3.31930E+04  2.65651E+04  1.56191E+04  3.05688E+04 -5.83347E+03  2.71243E+04
 -2.25443E+04  1.13166E+04 -1.78418E+04 -5.61626E+03  7.08753E+03 -6.65090E+03  2.39272E+04  1.41585E+04
  7.50630E+03  3.80857E+04 -3.37624E+04  3.74516E+04 -6.59747E+04  2.27664E+03 -5.80690E+04 -4.50058E+04
 -1.34010E+04 -6.54419E+04  4.13178E+04 -4.71142E+04  6.09955E+04 -2.08224E+03  3.62811E+04  3.36861E+04
 -6.29574E+03  3.97119E+04 -3.20427E+04  1.88296E+04 -3.27892E+04 -3.87565E+03 -1.86720E+04 -1.20029E+04
 -8.95282E+03 -1.52579E+04 -6.78550E+02 -1.98693E+04  7.78726E+03 -2.41781E+04  1.57512E+04 -1.23229E+04
  1.11006E+04  5.64228E+03 -1.01385E+04  1.27410E+04 -2.29305E+04 -6.68525E+03 -7.94257E+03 -3.71993E+04
  2.54666E+04 -4.64692E+04  5.17173E+04 -2.08863E+04  4.87798E+04  2.02212E+04  1.68386E+04  4.63930E+04
 -1.68777E+04  3.66435E+04 -2.72776E+04  2.63756E+03 -1.14381E+04 -2.90733E+04  2.10521E+04 -3.64211E+04
  4.49135E+04 -1.12002E+04  4.03739E+04  2.53047E+04  2.12539E+04  5.01741E+04 -8.31958E+03  5.55069E+04
 -3.46204E+04  3.76141E+04 -4.68825E+04  1.08961E+04 -4.75321E+04 -1.76308E+04 -2.52580E+04 -4.18563E+04
  7.53793E+03 -4.14435E+04  3.31302E+04 -1.76666E+04  3.20608E+04  1.11737E+04  5.07111E+03  1.97365E+04
 -1.37863E+04  9.99445E+03 -1.11051E+04 -7.64239E+03  5.21679E+03 -1.13212E+04  1.81677E+04  5.74614E+03
  1.48453E+04  2.20367E+04 -5.35957E+03  2.68148E+04 -2.33654E+04  1.40032E+04 -3.18282E+04 -2.99133E+03
 -2.45934E+04 -1.91329E+04 -1.12105E+04 -2.40839E+04  3.89265E+03 -2.55049E+04  1.93457E+04 -2.23873E+04
  3.18044E+04 -1.42764E+04  3.78135E+04  5.03280E+03  2.67282E+04  2.33719E+04  3.92961E+03  4.05519E+04
 -1.98588E+04  3.41999E+04 -2.93877E+04  1.20218E+04 -2.22278E+04 -1.00897E+04 -4.85767E+03 -1.32968E+04
  1.67559E+03 -1.43086E+03 -7.36627E+03  7.98461E+03 -2.00919E+04  5.10783E+03 -1.98360E+04 -9.35386E+03
 -1.15265E+04 -2.32853E+04  5.73346E+03 -2.77762E+04  1.76906E+04 -1.95142E+04  2.25393E+04 -2.07906E+03
  1.39598E+04  1.56953E+04 -8.63210E+02  2.28707E+04 -1.64536E+04  1.34396E+04 -2.31243E+04 -4.86345E+03
 -1.76642E+04 -2.05266E+04 -2.15708E+03 -2.78477E+04  1.23627E+04 -2.28372E+04  2.22281E+04 -1.23708E+04
  2.09655E+04  1.08963E+03  1.53765E+04  5.22831E+03  8.81476E+03  9.17317E+02  1.20052E+04 -2.07614E+03
  2.23054E+04  2.75904E+03  2.35855E+04  1.79688E+04  1.76017E+04  3.71839E+04 -2.30800E+03  4.32034E+04
 -2.48205E+04  3.55982E+04 -4.08680E+04  1.90885E+04 -4.30839E+04 -2.64392E+03 -3.51929E+04 -2.53680E+04
 -1.39187E+04 -3.63104E+04  1.26558E+04 -3.08152E+04  2.75468E+04 -1.40818E+04  2.29385E+04  7.61203E+03
  8.17395E+03  1.92223E+04 -1.13633E+04  1.51635E+04 -1.97014E+04  2.40250E+03 -1.48701E+04 -1.18566E+04
 -1.04805E+03 -1.90981E+04  1.09826E+04 -1.39633E+04  1.23453E+04 -1.46743E+03  2.95303E+03  8.55522E+03
 -8.52375E+03  3.88254E+03 -8.11219E+03 -5.92133E+03 -1.55206E+03 -1.73864E+04  1.17143E+04 -1.93570E+04
  2.22507E+04 -1.09619E+04  2.49788E+04  4.01734E+03  2.17531E+04  1.80901E+04  1.01116E+04  2.79627E+04
 -6.24243E+03  2.97519E+04 -1.91503E+04  1.87677E+04 -2.19708E+04  3.62817E+03 -1.49809E+04 -5.88894E+03
 -6.08037E+03 -6.74737E+03 -8.11080E+02  6.42894E+02 -3.38009E+03  4.01207E+03 -7.36243E+03  5.33864E+03
 -1.30904E+04 -1.28156E+03 -1.41946E+04 -1.09417E+04 -5.80186E+03 -1.83293E+04  5.89990E+03 -1.55354E+04
  1.24134E+04 -6.65489E+03  8.65254E+03  3.85347E+03  4.09363E+02  5.27816E+03 -7.43243E+03 -5.02898E+02
 -6.98842E+03 -9.79693E+03 -8.43248E+02 -1.50037E+04  8.90385E+03 -1.51888E+04  1.96936E+04 -8.09718E+03
  2.32373E+04  2.60039E+03  1.63009E+04  1.26912E+04  3.28751E+03  1.88582E+04 -9.83449E+03  1.51318E+04
 -1.20916E+04  4.99878E+03 -6.55629E+03 -3.58198E+03  2.77181E+03 -3.20644E+03  8.08158E+03 -1.55207E+03
  7.12743E+03  6.84536E+03  1.15353E+03  1.18123E+04 -8.82302E+03  1.10817E+04 -1.44278E+04  3.20725E+03
 -1.02816E+04 -8.60129E+03 -3.55563E+02 -1.21542E+04  8.72252E+03 -5.98728E+03  8.71038E+03  3.10605E+03
  2.63205E+03  8.87735E+03 -7.34007E+03  1.17290E+04 -1.21908E+04  5.05031E+03 -1.30835E+04 -4.48399E+03
 -8.23633E+03 -1.52797E+04  3.48026E+03 -1.73385E+04  1.45791E+04 -9.74689E+03  1.60186E+04  2.59181E+03
  9.79889E+03  1.22381E+04 -1.69382E+03  1.50620E+04 -1.11851E+04  8.40617E+03 -1.19109E+04 -1.19647E+03
 -9.85384E+03 -9.57699E+03 -1.80309E+03 -1.18543E+04  5.73172E+03 -9.14363E+03  6.63365E+03 -3.78663E+03
  4.51770E+03  1.75569E+03 -1.24204E+03  1.95191E+03 -6.49313E+02 -3.32305E+03  2.31241E+03 -7.21731E+03
  1.06610E+04 -3.58741E+03  1.49918E+04  1.23047E+03  1.44630E+04  1.12515E+04  9.75920E+03  1.91706E+04
 -4.21449E+03  2.24633E+04 -1.89244E+04  1.64549E+04 -2.40920E+04  3.09860E+03 -1.91816E+04 -9.39401E+03
 -1.00637E+04 -1.66538E+04 -5.34684E+02 -1.37932E+04  5.54099E+03 -8.37110E+03  4.90059E+03 -4.95029E+03
  3.31150E+03 -2.81226E+03  3.97247E+03 -4.80176E+03  5.62411E+03 -2.97459E+03  7.59331E+03 -9.31837E+02
  1.05537E+04  2.40220E+03  5.76968E+03  8.41759E+03 -2.41503E+03  1.09811E+04 -1.10719E+04  7.63981E+03
 -1.34809E+04 -1.14566E+03 -9.47594E+03 -1.00953E+04 -9.93858E+02 -1.50032E+04  8.81017E+03 -1.59640E+04
  1.56501E+04 -7.37962E+03  1.86629E+04  2.71548E+03  1.21734E+04  1.35339E+04  1.48341E+03  1.68002E+04
 -6.85009E+03  1.31661E+04 -1.07300E+04  4.77589E+03 -7.24817E+03 -1.91470E+03 -2.90432E+03 -2.39712E+03
 -7.65636E+02 -6.36954E+02 -2.10912E+03  2.74240E+03 -6.04622E+03  1.89349E+03 -9.84565E+03 -7.81415E+02
 -6.39609E+03 -9.55611E+03  1.85407E+02 -1.36315E+04  8.41131E+03 -1.30545E+04  1.44892E+04 -4.03334E+03
  1.43842E+04  6.67970E+03  6.57791E+03  1.18116E+04 -3.07544E+03  1.37933E+04 -9.88598E+03  8.70784E+03
 -1.30523E+04  8.71413E+02 -9.36948E+03 -8.47039E+03 -1.09255E+03 -1.19964E+04  5.32950E+03 -8.75509E+03
  9.06940E+03 -2.77111E+03  5.94061E+03  1.65475E+03  3.07754E+03  3.58325E+03  1.78614E+03  1.82343E+03
  2.34926E+03  1.55130E+03  3.83050E+03  1.46783E+03  4.68958E+03  5.23162E+03  4.39121E+03  8.03075E+03
 -3.02351E+03  1.16261E+04 -8.88118E+03  1.06093E+04 -1.42774E+04  2.12644E+03 -1.40316E+04 -5.39274E+03
 -6.45427E+03 -1.42592E+04  2.10412E+03 -1.50330E+04  8.51937E+03 -9.67241E+03  1.15499E+04 -2.66864E+03
  8.00041E+03  5.10098E+03  1.88758E+03  7.58390E+03 -3.62099E+03  5.57516E+03 -6.27572E+03 -7.08689E+02
 -1.67234E+03 -5.92588E+03  2.98868E+03 -7.03440E+03  5.33130E+03 -2.78591E+03  4.82135E+03  1.15712E+03
  3.95039E+03  2.32665E+03  9.58968E+02  2.02937E+03 -1.12270E+03  2.69151E+03  1.06449E+03 -1.26355E+03
  2.42018E+03 -6.47822E+02  6.22261E+03  1.88051E+03  3.54482E+03  6.67576E+03 -9.21144E+02  9.42854E+03
 -6.97732E+03  7.15031E+03 -8.43554E+03  1.64788E+03 -7.34575E+03 -3.20305E+03 -3.76535E+03 -4.54970E+03
  1.28188E+03 -5.02125E+03  3.99454E+03 -3.39255E+03  3.25450E+03  2.66731E+03 -1.15733E+03  3.73956E+03
 -5.47430E+03  2.31888E+03 -6.19337E+03 -2.08643E+03 -3.62517E+03 -7.10432E+03  1.05526E+03 -6.88924E+03
  3.64168E+03 -4.66886E+03  5.62188E+03 -3.29975E+02  4.03388E+03  2.35047E+03  9.63508E+02  4.78205E+03
 -3.49478E+03  1.20959E+03 -4.30077E+03 -1.77560E+03  4.54782E+02 -5.41932E+03  6.86480E+03 -4.53823E+03
  8.32434E+03  4.95466E+02  8.37609E+03  5.91938E+03  3.14691E+03  8.68422E+03 -3.63362E+03  8.65001E+03
 -7.14977E+03  3.16122E+03 -7.47077E+03 -6.56781E+02 -3.44869E+03 -5.32642E+03  1.21037E+03 -5.56126E+03
  5.40036E+03 -3.39207E+03  4.62628E+03  2.19487E+03  1.48292E+03  4.75368E+03 -2.07857E+02  4.56128E+03
 -2.61223E+03  2.65317E+03 -2.20836E+03  5.42381E+02 -1.49654E+03  8.98339E+02 -1.90807E+03  2.61737E+03
 -2.14938E+03  3.08323E+03 -6.00845E+03  3.34240E+03 -8.70367E+03 -4.42706E+02 -9.87635E+03 -5.42815E+03
 -5.14641E+03 -1.23454E+04  2.85826E+03 -1.40262E+04  8.79799E+03 -9.85654E+03  1.30731E+04 -3.22840E+03
  1.19547E+04  2.65352E+03  7.01871E+03  8.47109E+03  4.82944E+02  9.20314E+03 -3.93390E+03  6.30636E+03
 -5.35761E+03  2.23553E+03 -2.54129E+03 -1.05329E+03 -7.22519E+02 -7.14214E+02 -2.33403E+02  3.53034E+02
 -1.63252E+03  9.50313E+02 -2.09795E+03 -1.79760E+02  5.78237E+01 -1.66171E+03  3.62721E+02 -3.42795E+03
  3.08046E+03 -2.99681E+03  5.81709E+03  4.16504E+01  6.57701E+03  4.40476E+03  1.09707E+03  9.91794E+03
 -5.08740E+03  1.12916E+04 -9.50185E+03  5.99953E+03 -1.09323E+04 -8.63208E+02 -8.23333E+03 -6.82751E+03
 -3.42232E+03 -8.84468E+03  2.67536E+03 -8.87118E+03  5.90756E+03 -5.15313E+03  6.93449E+03 -1.48844E+02
  3.26947E+03  3.49407E+03 -1.40795E+02  2.40437E+03 -1.59685E+03  3.14568E+02 -4.85647E+02 -1.79912E+03
  2.90718E+03 -1.32511E+03  2.86780E+03  1.25828E+03  2.84215E+03  4.02791E+03  7.61389E+02  4.73921E+03
 -3.69060E+03  3.64395E+03 -5.90848E+03  4.37850E+02 -5.92366E+03 -3.95936E+03 -1.20114E+03 -7.67181E+03
  3.51552E+03 -6.25925E+03  6.66130E+03 -2.33484E+03  7.07637E+03  1.40857E+03  3.44079E+03  5.35093E+03
  9.33761E+02  5.60634E+03 -1.15244E+03  4.88497E+03 -3.50867E+03  2.80823E+03 -3.33137E+03  2.17446E+02
 -2.20699E+03 -7.66159E+02 -1.91644E+03  1.41881E+03 -3.04153E+03  1.46682E+03 -5.06489E+03 -8.90875E+02
 -4.05777E+03 -3.03693E+03 -1.27246E+03 -6.38511E+03  2.75664E+03 -6.18045E+03  5.24254E+03 -2.76450E+03
  5.30287E+03  1.14595E+03  2.53878E+03  4.35262E+03  1.80739E+01  7.01695E+03 -5.14530E+03  4.37424E+03
