 $NMID ID='MM_0lb_SNR400_9hz_g60_36.RAW', FMTDAT='(8E13.5)'
 TRAMP=1., VOLUME=1. $END
  3.09897E+05  1.82420E+02  3.37313E+05  2.50320E+05  8.53344E+04  3.38423E+05 -1.32914E+05  2.52692E+05
 -1.91856E+05  8.41402E+04 -1.12508E+05 -3.19665E+04  2.56065E+02 -5.05849E+04  5.34238E+04 -3.88779E+02
  3.57544E+04  5.24723E+04 -1.55218E+04  7.54010E+04 -6.15097E+04  6.47391E+04 -8.59140E+04  3.29659E+04
 -8.26059E+04 -1.20050E+04 -5.75916E+04 -5.39058E+04 -1.50960E+04 -7.19600E+04  2.82717E+04 -4.68816E+04
  4.15508E+04  3.28192E+03  1.61629E+04  4.87679E+04 -3.44384E+04  4.79165E+04 -6.80628E+04 -2.93035E+02
 -5.51497E+04 -5.77341E+04 -7.33687E+03 -7.96307E+04  3.51467E+04 -5.78851E+04  4.94652E+04 -1.81354E+04
  4.59886E+04  1.14270E+04  3.31379E+04  2.64047E+04  1.58944E+04  3.07059E+04 -6.70504E+03  2.76547E+04
 -2.24390E+04  1.18474E+04 -1.74078E+04 -5.41538E+03  7.77185E+03 -8.54378E+03  2.35997E+04  1.47913E+04
  6.85810E+03  3.86429E+04 -3.45318E+04  3.76596E+04 -6.60928E+04  2.04992E+03 -5.86485E+04 -4.41316E+04
 -1.30068E+04 -6.57887E+04  4.17532E+04 -4.73762E+04  6.17392E+04 -2.23530E+03  3.73809E+04  3.48862E+04
 -6.09109E+03  4.06164E+04 -3.31045E+04  1.95882E+04 -3.35862E+04 -2.60938E+03 -1.97763E+04 -1.22032E+04
 -1.02538E+04 -1.57322E+04 -4.16213E+02 -1.95605E+04  7.90598E+03 -2.40068E+04  1.60406E+04 -1.20995E+04
  1.04183E+04  6.34874E+03 -1.11466E+04  1.24092E+04 -2.41537E+04 -8.00440E+03 -8.72698E+03 -3.86562E+04
  2.56757E+04 -4.74913E+04  5.28116E+04 -2.07474E+04  4.94810E+04  2.15104E+04  1.74770E+04  4.78831E+04
 -1.65645E+04  3.69138E+04 -2.84567E+04  3.28983E+03 -1.24984E+04 -2.98640E+04  2.11135E+04 -3.77633E+04
  4.53956E+04 -1.17582E+04  4.12300E+04  2.45098E+04  2.22057E+04  5.15010E+04 -8.96658E+03  5.86705E+04
 -3.60534E+04  4.00964E+04 -4.92082E+04  1.17914E+04 -4.81577E+04 -1.92109E+04 -2.69114E+04 -4.36408E+04
  7.64370E+03 -4.35708E+04  3.48509E+04 -1.75550E+04  3.24811E+04  1.24520E+04  5.54021E+03  2.21390E+04
 -1.35032E+04  1.04028E+04 -1.13003E+04 -7.07210E+03  6.07209E+03 -1.20800E+04  1.93905E+04  5.45937E+03
  1.49967E+04  2.18728E+04 -5.78430E+03  2.78801E+04 -2.46188E+04  1.52117E+04 -3.19455E+04 -2.73559E+03
 -2.66974E+04 -1.87998E+04 -1.26301E+04 -2.55214E+04  4.92133E+03 -2.73382E+04  1.93240E+04 -2.46872E+04
  3.36862E+04 -1.44277E+04  3.97268E+04  4.96369E+03  2.77869E+04  2.57788E+04  5.12011E+03  4.26347E+04
 -2.01196E+04  3.44502E+04 -3.16003E+04  1.26108E+04 -2.26349E+04 -1.01488E+04 -5.22997E+03 -1.37372E+04
  8.30433E+02 -6.93036E+02 -8.56910E+03  7.22459E+03 -2.12520E+04  5.14370E+03 -2.09519E+04 -1.04867E+04
 -1.23481E+04 -2.42204E+04  6.20553E+03 -2.75711E+04  2.02391E+04 -2.09051E+04  2.41700E+04 -1.52678E+03
  1.47014E+04  1.68979E+04 -1.64968E+03  2.42710E+04 -1.68828E+04  1.43916E+04 -2.39843E+04 -5.15796E+03
 -1.84099E+04 -2.08705E+04 -2.48481E+03 -2.88806E+04  1.32129E+04 -2.37735E+04  2.41379E+04 -1.23870E+04
  2.29796E+04  5.65383E+01  1.67767E+04  5.53740E+03  8.77845E+03  1.48403E+03  1.32050E+04 -1.90930E+03
  2.26000E+04  2.46712E+03  2.65560E+04  1.94661E+04  1.83188E+04  3.94633E+04 -3.82242E+03  4.62832E+04
 -2.60132E+04  3.98624E+04 -4.26924E+04  2.00031E+04 -4.73701E+04 -4.01825E+03 -3.75787E+04 -2.72132E+04
 -1.50059E+04 -3.95373E+04  1.34341E+04 -3.47246E+04  2.92066E+04 -1.56883E+04  2.60695E+04  8.43672E+03
  8.24203E+03  1.98303E+04 -1.21185E+04  1.58097E+04 -2.11915E+04  1.92460E+03 -1.56047E+04 -1.29096E+04
 -2.73721E+02 -1.99150E+04  1.11446E+04 -1.51572E+04  1.42108E+04 -1.96915E+03  4.08176E+03  9.14149E+03
 -9.52933E+03  4.53316E+03 -1.00526E+04 -7.13261E+03 -2.69839E+03 -1.95093E+04  1.22973E+04 -2.11911E+04
  2.52240E+04 -1.31927E+04  2.78870E+04  3.63645E+03  2.48283E+04  2.01200E+04  1.13452E+04  3.11868E+04
 -5.98210E+03  3.32067E+04 -2.25603E+04  2.05349E+04 -2.36238E+04  5.01801E+03 -1.54768E+04 -6.16612E+03
 -6.45854E+03 -8.06167E+03 -3.83915E+02 -1.07564E+02 -3.06160E+03  3.95377E+03 -8.54269E+03  6.43606E+03
 -1.46084E+04 -5.17541E+02 -1.54943E+04 -1.20378E+04 -7.11394E+03 -2.04522E+04  6.65751E+03 -1.69735E+04
  1.41303E+04 -6.64885E+03  9.13155E+03  4.93114E+03  2.71841E+02  6.54083E+03 -8.44887E+03  6.01878E+01
 -8.27431E+03 -1.02510E+04 -1.12746E+03 -1.69428E+04  1.00286E+04 -1.76061E+04  2.12714E+04 -9.94399E+03
  2.49708E+04  2.54536E+03  1.82426E+04  1.52633E+04  3.10772E+03  2.07171E+04 -9.99070E+03  1.61291E+04
 -1.43358E+04  5.20827E+03 -7.27464E+03 -3.94770E+03  2.77737E+03 -4.76859E+03  8.40472E+03 -1.08596E+03
  8.11822E+03  8.69811E+03  1.58724E+03  1.31630E+04 -9.44975E+03  1.26926E+04 -1.63456E+04  3.76105E+03
 -1.23139E+04 -7.84451E+03  7.99915E+02 -1.36177E+04  9.49176E+03 -7.54532E+03  9.75320E+03  3.80255E+03
  2.15053E+03  1.06590E+04 -8.44415E+03  1.27442E+04 -1.47067E+04  5.87096E+03 -1.53840E+04 -5.70263E+03
 -9.44839E+03 -1.74693E+04  4.05260E+03 -2.00318E+04  1.64044E+04 -1.15752E+04  1.86145E+04  3.93826E+03
  1.00197E+04  1.40205E+04 -1.23910E+03  1.72261E+04 -1.21302E+04  8.85186E+03 -1.35173E+04 -1.16668E+03
 -1.12802E+04 -1.13289E+04 -2.23965E+03 -1.24206E+04  6.86397E+03 -9.92446E+03  8.99831E+03 -4.17855E+03
  5.69068E+03  2.46165E+03 -8.19749E+02  1.70590E+03 -6.62016E+02 -3.05237E+03  3.32368E+03 -7.78839E+03
  1.34429E+04 -5.96143E+03  1.75726E+04  2.32909E+03  1.67129E+04  1.21760E+04  1.06424E+04  2.23303E+04
 -5.95216E+03  2.68057E+04 -2.05247E+04  1.90101E+04 -2.79412E+04  3.37771E+03 -2.19071E+04 -9.17574E+03
 -1.06800E+04 -1.76594E+04  2.41023E+02 -1.66259E+04  4.75843E+03 -8.38485E+03  5.83806E+03 -5.52500E+03
  4.25579E+03 -3.77759E+03  4.27105E+03 -4.60563E+03  5.13900E+03 -4.29982E+03  8.11530E+03 -1.85669E+03
  1.11469E+04  3.54014E+03  6.54499E+03  9.70618E+03 -2.19529E+03  1.19904E+04 -1.24383E+04  9.49030E+03
 -1.57595E+04 -6.86276E+02 -1.06096E+04 -1.10884E+04 -1.60194E+03 -1.81394E+04  8.59250E+03 -1.71148E+04
  1.80290E+04 -9.53082E+03  2.10952E+04  2.24987E+03  1.46748E+04  1.48428E+04  2.14971E+03  1.92663E+04
 -7.91282E+03  1.62806E+04 -1.20322E+04  5.51722E+03 -7.77908E+03 -2.03905E+03 -3.11755E+03 -2.68934E+03
 -1.71379E+03 -1.08583E+01 -2.20496E+03  2.42042E+03 -5.97464E+03  2.49044E+03 -1.02355E+04 -1.30656E+03
 -8.03125E+03 -1.08020E+04 -3.89442E+02 -1.56977E+04  9.40027E+03 -1.44581E+04  1.60193E+04 -4.65103E+03
  1.54106E+04  7.77745E+03  7.75604E+03  1.40065E+04 -4.08234E+03  1.63232E+04 -1.13985E+04  9.72104E+03
 -1.49045E+04  8.77411E+02 -1.20809E+04 -9.50458E+03 -7.46385E+02 -1.36669E+04  7.10827E+03 -9.60122E+03
  1.01854E+04 -3.14901E+03  6.93735E+03  2.96137E+03  2.19491E+03  5.21805E+03  7.03091E+02  2.12563E+03
  2.66757E+03  1.26835E+03  3.93286E+03  1.94630E+03  4.50239E+03  5.26008E+03  4.00725E+03  9.72838E+03
 -3.32679E+03  1.18237E+04 -1.13345E+04  1.31066E+04 -1.72908E+04  2.76669E+03 -1.73029E+04 -7.46206E+03
 -8.29255E+03 -1.66840E+04  2.99385E+03 -1.74276E+04  1.01393E+04 -1.09621E+04  1.41501E+04 -3.73076E+03
  9.91371E+03  6.70880E+03  2.32408E+03  8.85578E+03 -4.39062E+03  5.39023E+03 -7.14439E+03 -9.81160E+02
 -2.61104E+03 -7.40081E+03  3.84872E+03 -6.62964E+03  6.47878E+03 -3.47419E+03  6.72073E+03  2.20350E+03
  5.08252E+03  4.24467E+03  2.11901E+03  2.79759E+03 -1.17071E+03  2.59107E+03  6.33469E+02 -1.02044E+03
  2.90386E+03 -1.37304E+03  6.34892E+03  2.54671E+03  4.12995E+03  8.70562E+03 -1.43826E+03  1.10619E+04
 -7.83546E+03  8.15011E+03 -1.02061E+04  1.50769E+03 -9.14422E+03 -3.08431E+03 -3.26137E+03 -7.34785E+03
  1.02206E+03 -5.69178E+03  3.55797E+03 -3.15017E+03  3.38511E+03  2.81727E+03 -9.00781E+02  5.63079E+03
 -7.12888E+03  2.75144E+03 -8.25140E+03 -3.94694E+03 -3.98531E+03 -9.53013E+03  1.82536E+03 -9.92198E+03
  5.04607E+03 -5.03004E+03  6.16928E+03 -2.55087E+02  5.04428E+03  2.54243E+03  8.85171E+02  4.93174E+03
 -2.98418E+03  9.65048E+02 -3.80100E+03 -2.94077E+03  3.03348E+03 -6.99124E+03  8.34741E+03 -6.01658E+03
  9.74271E+03  3.49800E+02  1.01163E+04  6.83952E+03  3.11603E+03  1.13522E+04 -4.32795E+03  1.01965E+04
 -8.13008E+03  4.83786E+03 -9.22773E+03 -1.16084E+03 -4.52350E+03 -7.61665E+03  1.72466E+03 -6.82112E+03
  6.36835E+03 -3.28672E+03  5.59093E+03  2.87149E+03  2.42592E+03  5.61890E+03 -1.48889E+03  4.91434E+03
 -3.77524E+03  3.21188E+03 -2.87892E+03  1.15425E+03 -1.52689E+03  1.72870E+03 -1.48995E+03  2.07195E+03
 -2.00449E+03  4.53722E+03 -8.39953E+03  4.12447E+03 -1.10304E+04  1.61535E+02 -1.24305E+04 -7.81688E+03
 -6.63492E+03 -1.39912E+04  2.68326E+03 -1.75249E+04  1.06942E+04 -1.30964E+04  1.48141E+04 -5.15127E+03
  1.44803E+04  2.92143E+03  8.78176E+03  9.76869E+03  1.17858E+03  1.17562E+04 -4.72805E+03  8.57781E+03
 -6.87263E+03  3.13297E+03 -4.17102E+03 -1.28067E+03 -1.00554E+03 -1.05226E+03 -6.61866E+02  2.19110E+02
 -1.71104E+03  5.99217E+02 -1.89396E+03 -7.24222E+02 -6.84289E+02 -2.95251E+03  9.26427E+01 -4.31805E+03
  5.64521E+03 -4.25115E+03  7.48070E+03  2.98299E+02  8.20807E+03  6.27313E+03  1.87853E+03  1.15409E+04
 -5.89215E+03  1.30462E+04 -1.23248E+04  7.59871E+03 -1.33475E+04 -1.21419E+03 -9.94923E+03 -8.39386E+03
 -4.75807E+03 -1.17297E+04  2.91029E+03 -1.01669E+04  7.65238E+03 -6.45816E+03  6.92561E+03  9.28077E+02
  3.57182E+03  3.78879E+03 -6.20692E+02  3.38512E+03 -2.37312E+03  2.71478E+02 -7.63391E+01 -2.70881E+03
  3.17176E+03 -1.98421E+03  4.17305E+03  1.11339E+03  3.13111E+03  4.68214E+03 -3.78166E+02  6.09934E+03
 -4.67296E+03  5.80613E+03 -7.70232E+03  3.92543E+02 -5.99503E+03 -5.93607E+03 -5.66334E+02 -9.61935E+03
  5.17827E+03 -7.89992E+03  9.20983E+03 -2.42494E+03  8.75284E+03  1.56660E+03  4.81826E+03  6.83411E+03
  8.45891E+01  7.07505E+03 -3.06447E+03  6.27366E+03 -4.26822E+03  3.60296E+03 -3.74146E+03  6.17610E+01
 -2.03213E+03 -9.52350E+01 -2.02509E+03  1.32602E+03 -4.38552E+03  1.75602E+03 -5.32533E+03 -9.19340E+02
 -5.50254E+03 -3.72879E+03 -1.56184E+03 -7.50474E+03  4.18479E+03 -7.56944E+03  6.72807E+03 -3.95561E+03
  7.19770E+03  1.80122E+03  3.90261E+03  5.98981E+03 -6.88690E+02  7.50776E+03 -6.57240E+03  5.15195E+03
