 $NMID ID='MM_0lb_SNR400_17hz_g55_92.RAW', FMTDAT='(8E13.5)'
 TRAMP=1., VOLUME=1. $END
  3.09549E+05  6.56761E+02  3.38047E+05  2.50236E+05  8.43226E+04  3.37625E+05 -1.31810E+05  2.50784E+05
 -1.90295E+05  8.24927E+04 -1.11498E+05 -3.25466E+04  1.12965E+03 -5.03829E+04  5.37512E+04  4.11282E+02
  3.48481E+04  5.29413E+04 -1.65112E+04  7.55091E+04 -6.05412E+04  6.31720E+04 -8.32524E+04  3.16942E+04
 -8.03808E+04 -1.15730E+04 -5.66936E+04 -5.10093E+04 -1.51902E+04 -6.88916E+04  2.72609E+04 -4.59278E+04
  3.95719E+04  3.73749E+03  1.58891E+04  4.74149E+04 -3.39822E+04  4.65248E+04 -6.65058E+04 -4.19188E+02
 -5.32208E+04 -5.67544E+04 -6.76282E+03 -7.61084E+04  3.39154E+04 -5.46511E+04  4.76946E+04 -1.71800E+04
  4.27102E+04  1.17037E+04  3.10400E+04  2.51463E+04  1.55548E+04  2.91199E+04 -5.17937E+03  2.70850E+04
 -2.15087E+04  1.29918E+04 -1.89186E+04 -4.82724E+03  5.38948E+03 -7.63601E+03  2.18958E+04  1.16776E+04
  6.96872E+03  3.51037E+04 -3.10442E+04  3.53045E+04 -6.23414E+04  2.19080E+03 -5.66158E+04 -4.30807E+04
 -1.24561E+04 -6.29824E+04  3.90060E+04 -4.47659E+04  5.69612E+04 -1.53890E+03  3.34178E+04  3.18129E+04
 -6.00120E+03  3.50978E+04 -2.92966E+04  1.49492E+04 -2.92330E+04 -5.48295E+03 -1.55552E+04 -1.06025E+04
 -7.95180E+03 -1.26485E+04 -8.33611E+02 -1.75966E+04  7.64597E+03 -2.26400E+04  1.49771E+04 -1.27865E+04
  1.15975E+04  5.24588E+03 -6.88910E+03  1.32206E+04 -1.99592E+04 -3.50580E+03 -8.54228E+03 -3.25582E+04
  2.19408E+04 -4.24339E+04  4.67168E+04 -1.88305E+04  4.38342E+04  1.88622E+04  1.53901E+04  4.39229E+04
 -1.57505E+04  3.29608E+04 -2.39864E+04  1.41604E+03 -9.62204E+03 -2.73249E+04  2.09361E+04 -3.25225E+04
  4.00751E+04 -8.44588E+03  3.41126E+04  2.36076E+04  1.65575E+04  4.50702E+04 -7.88870E+03  4.81483E+04
 -3.02266E+04  3.25280E+04 -4.03172E+04  8.98447E+03 -4.03903E+04 -1.63770E+04 -2.23627E+04 -3.66162E+04
  7.12262E+03 -3.60629E+04  3.07770E+04 -1.40808E+04  2.85035E+04  1.07445E+04  2.56165E+03  1.87461E+04
 -1.30762E+04  7.77804E+03 -9.53575E+03 -7.54512E+03  5.38015E+03 -1.05807E+04  1.80985E+04  6.35544E+03
  1.37697E+04  2.16314E+04 -6.17416E+03  2.44776E+04 -2.17654E+04  1.02692E+04 -2.64811E+04 -5.64038E+03
 -1.89739E+04 -1.66502E+04 -7.46521E+03 -1.86144E+04  3.82693E+03 -1.79862E+04  1.44250E+04 -1.64794E+04
  2.41414E+04 -1.22065E+04  3.09872E+04  1.43765E+03  2.26942E+04  1.78136E+04  4.36127E+03  3.44134E+04
 -1.67676E+04  2.93170E+04 -2.65207E+04  1.02443E+04 -1.96347E+04 -1.04971E+04 -4.08886E+03 -1.31026E+04
  2.12124E+03 -3.70828E+03 -3.68551E+03  6.24535E+03 -1.49504E+04  5.18377E+03 -1.50796E+04 -5.68831E+03
 -9.37029E+03 -1.77301E+04  5.16611E+03 -2.09893E+04  1.36030E+04 -1.47690E+04  1.64188E+04 -1.34866E+03
  1.06287E+04  1.25693E+04 -6.31713E+02  1.71120E+04 -1.17848E+04  1.05842E+04 -1.76832E+04 -4.03946E+03
 -1.28269E+04 -1.52311E+04 -1.71037E+03 -2.15389E+04  9.22171E+03 -1.73377E+04  1.75885E+04 -8.18078E+03
  1.67396E+04  4.99235E+02  1.12592E+04  4.11667E+03  6.10671E+03  9.17210E+02  8.18052E+03 -1.61343E+03
  1.58069E+04  2.74084E+03  1.78350E+04  1.42420E+04  1.13391E+04  2.72679E+04 -3.04919E+03  3.02536E+04
 -1.81399E+04  2.42660E+04 -2.80772E+04  1.12823E+04 -2.85188E+04 -2.41910E+03 -2.45368E+04 -1.65076E+04
 -1.11953E+04 -2.37805E+04  8.10613E+03 -2.16030E+04  1.92203E+04 -1.15280E+04  1.77657E+04  4.42267E+03
  6.52863E+03  1.23419E+04 -8.10948E+03  1.11469E+04 -1.51099E+04  2.48330E+03 -1.14857E+04 -9.07521E+03
 -6.61889E+02 -1.34423E+04  7.20307E+03 -1.03643E+04  9.29984E+03 -9.91633E+02  1.89146E+03  5.59939E+03
 -5.93405E+03  1.64256E+03 -5.23625E+03 -4.80594E+03  2.66398E+02 -1.15152E+04  8.77963E+03 -1.20289E+04
  1.43624E+04 -5.99405E+03  1.50750E+04  2.93674E+03  1.29445E+04  1.09794E+04  5.60092E+03  1.69208E+04
 -2.19530E+03  1.89250E+04 -1.17005E+04  1.20936E+04 -1.33390E+04  3.52277E+03 -9.82382E+03 -2.45840E+03
 -5.13378E+03 -3.95389E+03 -3.91798E+02  1.14029E+03 -2.15442E+03  1.98223E+03 -4.46783E+03  4.01009E+03
 -8.66732E+03 -6.50521E+02 -9.22000E+03 -8.33847E+03 -3.94195E+03 -1.26640E+04  4.28345E+03 -9.78898E+03
  8.38470E+03 -4.55310E+03  5.85287E+03  2.54836E+03 -7.17051E+01  3.81556E+03 -4.68909E+03  4.66994E+01
 -4.25756E+03 -6.31990E+03 -8.49497E+02 -8.93385E+03  4.59816E+03 -9.47685E+03  1.18278E+04 -5.04144E+03
  1.38989E+04  1.05515E+03  8.89212E+03  7.30829E+03  2.67861E+03  1.02719E+04 -5.81314E+03  9.19175E+03
 -8.61245E+03  3.08835E+03 -4.42957E+03 -1.18395E+03  2.03569E+03 -2.89200E+03  5.22351E+03 -8.60824E+02
  5.13763E+03  3.42892E+03  8.98404E+02  7.08663E+03 -5.41784E+03  7.83786E+03 -8.94515E+03  2.49273E+03
 -5.96403E+03 -4.89016E+03  1.62061E+02 -8.15376E+03  4.09749E+03 -3.81060E+03  4.84242E+03  1.19486E+03
  3.93967E+02  4.24488E+03 -4.95175E+03  6.14183E+03 -6.36734E+03  3.20211E+03 -5.61622E+03 -1.26929E+03
 -3.63142E+03 -7.34466E+03  1.14814E+03 -9.02933E+03  7.86326E+03 -5.27846E+03  7.80967E+03  1.14046E+03
  5.91178E+03  6.93013E+03  5.71411E+02  9.01586E+03 -5.81769E+03  5.38420E+03 -6.02847E+03 -8.23124E+02
 -6.73669E+03 -6.58902E+03 -1.02871E+03 -5.91146E+03  2.74509E+03 -5.60984E+03  3.46333E+03 -3.21228E+03
  3.29983E+03  6.41172E+02 -4.03151E+02  1.16764E+03  3.83502E+02 -1.01172E+03  6.68591E+02 -2.47040E+03
  5.23635E+03 -1.16104E+03  6.94649E+03  1.15142E+03  6.81422E+03  4.24049E+03  6.49382E+03  9.30429E+03
 -2.14691E+03  1.04365E+04 -9.34836E+03  8.14743E+03 -1.24784E+04  1.51733E+03 -9.74841E+03 -3.44759E+03
 -5.67936E+03 -7.71505E+03  8.75964E+01 -6.25571E+03  2.90506E+03 -2.85371E+03  2.47365E+03 -2.52784E+03
  1.74846E+03 -1.88017E+03  2.82916E+03 -2.56261E+03  4.24551E+03 -1.64807E+03  4.30601E+03 -8.21173E-01
  5.33456E+03  1.24742E+03  1.69102E+03  4.38456E+03 -1.41409E+03  4.13517E+03 -5.07072E+03  2.96081E+03
 -6.26226E+03 -1.38405E+03 -2.88902E+03 -4.58648E+03  1.65765E+02 -6.84107E+03  3.84791E+03 -7.10292E+03
  6.89488E+03 -3.90446E+03  8.73387E+03  8.67715E+02  5.24530E+03  5.73572E+03  1.65210E+03  7.18308E+03
 -2.71879E+03  6.87657E+03 -3.97738E+03  1.68025E+03 -2.60173E+03 -9.10863E+02 -1.10710E+03 -6.50915E+02
 -8.10230E+02  4.29846E+02 -6.14018E+02  2.21246E+03 -2.93578E+03  1.36914E+03 -4.83219E+03 -8.40494E+02
 -2.38062E+03 -4.53940E+03  6.60184E+02 -5.96503E+03  3.28773E+03 -5.01924E+03  5.05377E+03 -1.44347E+03
  5.54194E+03  2.65199E+03  2.61615E+03  4.18430E+03 -9.19838E+02  5.34318E+03 -3.53918E+03  3.93254E+03
 -4.39918E+03  9.26922E+02 -4.02407E+03 -2.59600E+03 -5.55330E+02 -3.98814E+03  1.61251E+03 -3.36019E+03
  3.46036E+03 -1.86467E+03  2.09058E+03  4.63508E+02  5.93626E+02  2.28368E+03  1.17057E+03  6.93090E+02
  2.22896E+03  4.74616E+02  1.59706E+03  8.46006E+02  7.29956E+02  2.54614E+03  1.15680E+03  2.62228E+03
 -1.38528E+03  3.77977E+03 -3.37348E+03  4.87629E+03 -3.61284E+03  8.22792E+02 -5.46281E+03 -1.25506E+03
 -2.35128E+03 -5.12360E+03  3.89766E+02 -6.08219E+03  2.52926E+03 -3.31013E+03  3.60925E+03 -7.57744E+02
  3.28661E+03  1.98577E+03  6.71518E+02  2.86212E+03 -1.01380E+03  1.74808E+03 -2.30012E+03 -4.29435E+02
 -8.42684E+02 -1.47247E+03  1.41282E+03 -2.24545E+03  1.46958E+03 -7.93883E+02  2.52415E+03  2.45782E+02
  1.31662E+03  4.75336E+02  1.06785E+03  4.97521E+02 -5.14791E+02  8.51035E+02  8.85027E+02 -1.62627E+02
 -4.18440E+02 -2.69875E+02  2.54659E+03  1.42683E+03  7.29019E+02  2.75866E+03  3.14104E+02  3.72148E+03
 -2.77764E+03  1.68449E+03 -3.21517E+03  4.82397E+02 -2.93717E+03 -1.27077E+03 -2.99939E+02 -1.33628E+03
  3.72310E+02 -1.45073E+03  1.34684E+03 -7.62755E+02  4.87730E+02  1.05400E+03 -5.87236E+02  1.54296E+03
 -1.69565E+03  7.18943E+02 -1.56759E+03 -9.96281E+02 -9.06379E+02 -2.63222E+03  2.61680E+02 -2.31634E+03
  1.07615E+03 -7.53244E+02  1.02869E+03 -7.92640E+01  1.53446E+03  3.69718E+02  2.52625E+02  2.01227E+03
 -7.27426E+02  1.00913E+02 -9.68115E+02 -5.81162E+02  5.92843E+02 -1.98434E+03  2.61280E+03 -1.26714E+03
  1.36836E+03 -1.30318E+02  3.20468E+03  7.50178E+02  1.24745E+03  2.05619E+03 -5.75697E+02  2.37787E+03
 -1.50294E+03  9.29304E+02 -1.70701E+03 -2.55692E+02 -1.59780E+03 -1.89132E+03  2.86267E+02 -1.29579E+03
  2.01216E+03 -4.10101E+02  1.00308E+03  7.17132E+02  5.55163E+02  2.07019E+03  5.53265E+02  1.43369E+03
 -3.66438E+02  1.99349E+03 -3.88015E+02 -1.12490E+02 -2.75973E+02  6.31943E+02 -9.30944E+02  6.75652E+02
 -8.56530E+02  1.15194E+03 -2.09928E+03  1.03603E+02 -2.37649E+03  3.45391E+01 -2.65946E+03 -1.88376E+03
 -1.56981E+03 -3.12911E+03  4.32589E+02 -3.73124E+03  1.75779E+03 -3.23404E+03  3.80143E+03 -1.36859E+03
  2.98216E+03 -4.70054E+02  1.77877E+03  1.93243E+03 -3.23915E+02  2.06416E+03 -6.86998E+02  1.67711E+03
 -1.31624E+03  1.35256E+03 -4.15228E+02 -1.90701E+02 -3.81729E+00 -1.47995E+02 -1.13608E+03 -6.73215E+02
 -1.10895E+03 -1.07060E+01 -1.15261E+03  4.84428E+02  3.11763E+02 -5.45236E+02  1.40586E+02 -3.65011E+02
  1.34741E+03 -5.78566E+01  9.28272E+02  4.73023E+02  1.16134E+03  7.72107E+02 -3.67390E+02  2.59098E+03
 -7.06904E+02  2.68505E+03 -2.34748E+03  1.69297E+03 -2.53809E+03 -5.08996E+02 -1.80544E+03 -2.06455E+03
 -1.46629E+03 -2.17044E+03  1.00857E+03 -2.01010E+03  8.72150E+02 -4.91373E+02  1.72519E+03  1.01514E+02
  7.14870E+02  5.85660E+02  3.03360E+02  7.00035E+02 -8.65600E+02 -3.21000E+02 -7.79153E+02 -6.07307E+02
  5.29158E+02  8.59994E+02  1.90470E+02  4.42290E+02  3.59222E+02  1.13888E+03 -2.93659E+02  2.41005E+02
 -1.23844E+03  1.04378E+03 -7.83368E+02  2.07590E+02 -6.96772E+02 -4.51797E+02  1.95994E+02 -1.23932E+03
  7.36372E+02 -1.26153E+03  1.36037E+03  5.58370E+01  1.72786E+03 -4.07632E+02  8.24665E+02  1.33719E+03
  7.54376E+02  5.83079E+02 -1.27778E+02  7.37307E+02 -4.72776E+02  6.12500E+02 -5.79425E+02  2.28998E+02
 -1.99332E+02 -8.78258E+01 -9.58857E+02  4.67836E+02 -4.07988E+02 -2.51599E+02 -1.26044E+03 -5.38712E+02
 -1.58331E+03  7.09147E+02 -3.57953E+02 -4.97934E+02  1.23246E+03 -2.09446E+03  8.43019E+02 -4.10081E+02
  1.19184E+03 -2.84606E+02 -3.66140E+02  6.71767E+02 -6.35453E+02  1.51350E+03 -3.78815E+02  6.66730E+02
