 $NMID ID='MM_0lb_SNR400_8hz_g60_36.RAW', FMTDAT='(8E13.5)'
 TRAMP=1., VOLUME=1. $END
  3.09940E+05  4.99466E+02  3.38196E+05  2.50871E+05  8.50042E+04  3.37827E+05 -1.32053E+05  2.52665E+05
 -1.91328E+05  8.34696E+04 -1.12736E+05 -3.28559E+04 -1.13787E+02 -5.03985E+04  5.45113E+04 -1.07205E+03
  3.59555E+04  5.24286E+04 -1.65958E+04  7.52227E+04 -6.14699E+04  6.36406E+04 -8.54591E+04  3.25009E+04
 -8.27019E+04 -1.13779E+04 -5.85501E+04 -5.19503E+04 -1.54130E+04 -7.17126E+04  2.78849E+04 -4.76755E+04
  4.14964E+04  3.65466E+03  1.57558E+04  4.81436E+04 -3.43937E+04  4.92042E+04 -6.88170E+04 -8.32789E+02
 -5.51257E+04 -5.78199E+04 -7.33813E+03 -7.96460E+04  3.50171E+04 -5.75107E+04  4.98615E+04 -2.00477E+04
  4.61646E+04  1.15251E+04  3.30668E+04  2.72541E+04  1.55293E+04  3.04431E+04 -5.81811E+03  2.79535E+04
 -2.22199E+04  1.12919E+04 -1.75487E+04 -5.35019E+03  7.84350E+03 -7.07929E+03  2.44437E+04  1.46903E+04
  7.06615E+03  3.77100E+04 -3.43964E+04  3.69751E+04 -6.61741E+04  5.63603E+02 -5.94835E+04 -4.50914E+04
 -1.29897E+04 -6.75661E+04  4.31094E+04 -4.81202E+04  6.23236E+04 -2.70874E+03  3.75529E+04  3.53503E+04
 -4.93716E+03  4.14208E+04 -3.30945E+04  1.97829E+04 -3.46001E+04 -3.35619E+03 -1.98152E+04 -1.24617E+04
 -1.01097E+04 -1.59161E+04 -6.19637E+02 -2.09610E+04  8.97158E+03 -2.34005E+04  1.55432E+04 -1.18242E+04
  1.01753E+04  7.72203E+03 -1.25568E+04  1.21852E+04 -2.49454E+04 -7.47279E+03 -9.49342E+03 -3.90306E+04
  2.70457E+04 -4.76850E+04  5.39024E+04 -2.15240E+04  5.02367E+04  2.12568E+04  1.74083E+04  4.73868E+04
 -1.67006E+04  3.68786E+04 -2.91171E+04  3.02865E+03 -1.30093E+04 -3.04694E+04  2.22220E+04 -3.88428E+04
  4.59569E+04 -1.24294E+04  4.21674E+04  2.57535E+04  2.31508E+04  5.31336E+04 -8.36866E+03  5.84589E+04
 -3.65871E+04  4.00324E+04 -4.94068E+04  1.19380E+04 -5.01159E+04 -1.88934E+04 -2.72316E+04 -4.46609E+04
  8.08802E+03 -4.39694E+04  3.51129E+04 -1.89845E+04  3.26677E+04  1.13415E+04  6.36190E+03  2.20845E+04
 -1.45183E+04  9.82687E+03 -1.17221E+04 -7.85736E+03  5.65763E+03 -1.19384E+04  1.90780E+04  4.88702E+03
  1.45178E+04  2.26933E+04 -4.55515E+03  2.84488E+04 -2.42214E+04  1.55271E+04 -3.33138E+04 -2.22570E+03
 -2.66381E+04 -1.95644E+04 -1.22986E+04 -2.71197E+04  3.58353E+03 -2.77931E+04  2.07607E+04 -2.47792E+04
  3.48968E+04 -1.54811E+04  4.13286E+04  6.52317E+03  2.92681E+04  2.57500E+04  5.06052E+03  4.31435E+04
 -1.98338E+04  3.53803E+04 -3.17515E+04  1.24389E+04 -2.27343E+04 -9.85382E+03 -4.74420E+03 -1.23796E+04
 -1.81437E+02 -1.34327E+03 -8.60886E+03  9.17448E+03 -2.15587E+04  5.20139E+03 -2.22104E+04 -1.12767E+04
 -1.19109E+04 -2.51589E+04  6.39450E+03 -2.92368E+04  2.05638E+04 -2.12287E+04  2.41146E+04 -1.29996E+03
  1.62281E+04  1.74872E+04 -2.05509E+03  2.48765E+04 -1.73784E+04  1.51539E+04 -2.55333E+04 -5.60177E+03
 -1.82288E+04 -2.23672E+04 -2.42576E+03 -3.00142E+04  1.37686E+04 -2.41945E+04  2.48112E+04 -1.36623E+04
  2.45801E+04  5.50232E+02  1.72973E+04  6.08642E+03  1.04750E+04  1.69186E+03  1.28405E+04 -1.67947E+03
  2.34720E+04  2.94534E+03  2.80621E+04  2.02118E+04  1.87700E+04  4.04583E+04 -3.08053E+03  4.94025E+04
 -2.71082E+04  4.15283E+04 -4.60243E+04  2.15474E+04 -4.87603E+04 -2.92607E+03 -3.96429E+04 -2.85672E+04
 -1.57568E+04 -4.06868E+04  1.47229E+04 -3.58906E+04  3.02682E+04 -1.58457E+04  2.67135E+04  8.64730E+03
  8.98322E+03  2.04451E+04 -1.30861E+04  1.69386E+04 -2.25009E+04  3.19963E+03 -1.67877E+04 -1.35477E+04
 -3.12825E+02 -2.13564E+04  1.17659E+04 -1.58444E+04  1.51729E+04 -1.29377E+03  4.43467E+03  1.00736E+04
 -9.34768E+03  4.80992E+03 -1.06518E+04 -7.52367E+03 -1.93294E+03 -2.07734E+04  1.25231E+04 -2.20143E+04
  2.59816E+04 -1.35349E+04  2.95530E+04  3.42023E+03  2.59357E+04  2.09584E+04  1.16218E+04  3.26022E+04
 -6.28490E+03  3.52350E+04 -2.32910E+04  2.22006E+04 -2.55325E+04  3.58439E+03 -1.68410E+04 -6.80470E+03
 -6.72306E+03 -8.02451E+03 -1.65243E+02 -1.05862E+02 -2.54385E+03  4.08245E+03 -8.87536E+03  5.73303E+03
 -1.57464E+04 -4.44355E+02 -1.60033E+04 -1.28585E+04 -5.86013E+03 -2.16680E+04  6.52938E+03 -1.65761E+04
  1.49453E+04 -6.56703E+03  1.01833E+04  4.95221E+03 -1.79625E+02  7.19781E+03 -9.34613E+03 -7.46598E+02
 -8.29378E+03 -1.14421E+04 -1.28132E+03 -1.84524E+04  1.04481E+04 -1.84982E+04  2.23317E+04 -9.90325E+03
  2.62197E+04  2.70084E+03  1.91524E+04  1.65431E+04  3.45835E+03  2.15385E+04 -1.02421E+04  1.72504E+04
 -1.44323E+04  5.25565E+03 -6.81865E+03 -4.46153E+03  3.30384E+03 -5.13778E+03  9.40710E+03 -8.53302E+02
  8.98190E+03  8.28369E+03  1.15510E+03  1.47233E+04 -1.14128E+04  1.32911E+04 -1.64080E+04  3.12502E+03
 -1.32583E+04 -1.00304E+04  5.42339E+01 -1.50494E+04  1.02863E+04 -8.18808E+03  1.11688E+04  4.31662E+03
  2.24665E+03  1.18873E+04 -8.96791E+03  1.31727E+04 -1.49220E+04  6.27495E+03 -1.66110E+04 -5.99688E+03
 -8.95610E+03 -1.80348E+04  4.03687E+03 -2.13681E+04  1.75255E+04 -1.15838E+04  2.02831E+04  3.20043E+03
  1.19352E+04  1.58632E+04 -1.85325E+03  1.89809E+04 -1.32163E+04  9.74939E+03 -1.41471E+04 -1.70833E+03
 -1.23821E+04 -1.21916E+04 -2.06146E+03 -1.39252E+04  7.39522E+03 -1.05387E+04  8.74064E+03 -3.36695E+03
  5.76937E+03  2.93498E+03 -1.88999E+03  1.78463E+03 -1.37902E+03 -4.25428E+03  3.64186E+03 -8.81567E+03
  1.32447E+04 -6.03695E+03  1.97147E+04  2.38045E+03  1.82946E+04  1.46519E+04  1.07214E+04  2.49666E+04
 -6.04188E+03  2.82774E+04 -2.37746E+04  2.11409E+04 -3.06975E+04  4.09886E+03 -2.47029E+04 -1.07879E+04
 -1.17244E+04 -2.07589E+04 -2.99487E+02 -1.70970E+04  6.65313E+03 -1.03146E+04  6.01821E+03 -6.38708E+03
  4.03877E+03 -2.89806E+03  5.44833E+03 -4.40933E+03  6.51085E+03 -4.67840E+03  9.34810E+03 -2.53953E+03
  1.15990E+04  3.46012E+03  7.17953E+03  1.04027E+04 -2.56249E+03  1.33112E+04 -1.30520E+04  1.12864E+04
 -1.79345E+04 -2.20532E+03 -1.10172E+04 -1.24448E+04 -1.90991E+03 -1.86335E+04  1.01565E+04 -1.87566E+04
  2.04782E+04 -1.09621E+04  2.34958E+04  2.71038E+03  1.50052E+04  1.59308E+04  2.25071E+03  2.11240E+04
 -9.10833E+03  1.64539E+04 -1.27435E+04  6.77417E+03 -9.13535E+03 -1.74082E+03 -3.75602E+03 -2.02537E+03
 -1.79302E+03 -3.64686E+02 -2.75772E+03  3.42802E+03 -7.65219E+03  2.55987E+03 -1.20350E+04 -2.14000E+03
 -9.36198E+03 -1.27748E+04 -1.19160E+03 -1.74652E+04  1.07273E+04 -1.66110E+04  1.71715E+04 -4.36347E+03
  1.80567E+04  8.02511E+03  8.26582E+03  1.63328E+04 -3.94366E+03  1.74477E+04 -1.28000E+04  1.12366E+04
 -1.67433E+04  7.32787E+02 -1.40786E+04 -1.07280E+04 -1.56136E+03 -1.45645E+04  7.58436E+03 -1.09423E+04
  1.08067E+04 -3.53379E+03  8.22664E+03  2.81171E+03  1.98846E+03  4.58723E+03  1.71394E+03  2.61155E+03
  3.45928E+03  1.75658E+02  4.97829E+03  2.57121E+03  5.89297E+03  5.77953E+03  4.32177E+03  9.63512E+03
 -3.01672E+03  1.50718E+04 -1.24363E+04  1.31525E+04 -1.93793E+04  3.27653E+03 -1.85168E+04 -7.55752E+03
 -8.79725E+03 -1.84624E+04  2.16033E+03 -1.97201E+04  1.10167E+04 -1.21053E+04  1.55445E+04 -2.98676E+03
  1.17198E+04  7.24821E+03  3.18828E+03  1.09314E+04 -5.58737E+03  7.04702E+03 -7.03933E+03 -4.85664E+02
 -3.34748E+03 -8.19975E+03  2.98828E+03 -8.01573E+03  8.34821E+03 -4.05534E+03  7.53020E+03  5.02052E+02
  5.24969E+03  4.34525E+03  8.90411E+02  3.16831E+03  3.01687E+02  2.92148E+03  2.32849E+03 -9.32111E+02
  3.20916E+03 -6.70943E+02  7.84760E+03  3.02777E+03  4.78125E+03  9.59695E+03 -1.57584E+03  1.18019E+04
 -9.37575E+03  8.94971E+03 -1.15794E+04  2.32587E+03 -1.03887E+04 -4.33957E+03 -4.71800E+03 -7.26885E+03
  8.08734E+02 -8.12058E+03  4.97316E+03 -3.17906E+03  4.85047E+03  4.80149E+03 -2.52582E+03  6.95784E+03
 -7.49761E+03  3.95713E+03 -1.01855E+04 -4.37282E+03 -4.65737E+03 -1.06694E+04  1.52570E+03 -1.01378E+04
  7.12511E+03 -7.04339E+03  7.86611E+03 -5.26250E+02  6.32333E+03  2.89340E+03  1.78906E+03  4.96916E+03
 -4.40415E+03  1.18220E+03 -4.38849E+03 -3.81082E+03  2.65944E+03 -8.36457E+03  9.26345E+03 -6.99649E+03
  1.24758E+04  2.09988E+02  1.15871E+04  8.52717E+03  4.16850E+03  1.30131E+04 -4.68862E+03  1.19264E+04
 -1.10931E+04  5.21787E+03 -1.06872E+04 -2.18343E+03 -6.20009E+03 -8.08649E+03  1.94969E+03 -8.25948E+03
  8.24788E+03 -3.19919E+03  6.60350E+03  3.95674E+03  2.40272E+03  6.89327E+03 -1.08108E+03  4.94549E+03
 -3.79333E+03  4.30398E+03 -2.62459E+03  1.19742E+03 -2.00060E+03  2.54332E+02 -1.73163E+03  2.93577E+03
 -2.94925E+03  5.11324E+03 -8.30830E+03  4.60022E+03 -1.19885E+04  8.49810E+02 -1.41771E+04 -8.33843E+03
 -7.55923E+03 -1.66390E+04  3.81576E+03 -1.90925E+04  1.17516E+04 -1.49027E+04  1.84010E+04 -5.47793E+03
  1.79220E+04  4.56919E+03  1.11632E+04  1.11267E+04 -2.61870E+02  1.34268E+04 -5.33635E+03  9.87578E+03
 -8.02892E+03  3.81808E+03 -4.18326E+03 -1.68264E+03 -2.02290E+03 -2.05658E+03 -1.41843E+03 -6.40042E+02
 -2.62607E+03  7.99103E+01 -3.15139E+03 -9.48781E+02 -1.05657E+03 -4.06761E+03  5.79368E+02 -4.81605E+03
  6.58904E+03 -4.80219E+03  8.35202E+03  1.68238E+02  9.68845E+03  7.09858E+03  3.04476E+03  1.29659E+04
 -6.37787E+03  1.54073E+04 -1.40251E+04  8.66283E+03 -1.71971E+04 -3.80373E+02 -1.20520E+04 -1.03335E+04
 -4.67666E+03 -1.40160E+04  3.03094E+03 -1.29187E+04  9.00154E+03 -6.61621E+03  8.78151E+03  9.44664E+02
  4.64886E+03  5.46265E+03 -3.74399E+02  4.19787E+03 -2.43329E+03 -7.55312E+01  1.62403E+02 -2.91250E+03
  4.49883E+03 -2.05524E+03  5.19417E+03  1.58633E+03  3.88643E+03  5.65675E+03 -3.50702E+02  7.33519E+03
 -7.17575E+03  5.35080E+03 -9.25231E+03  5.00687E+02 -8.01627E+03 -5.76063E+03 -1.06416E+03 -1.18672E+04
  7.12271E+03 -1.00096E+04  1.08600E+04 -2.78027E+03  1.06302E+04  2.94120E+03  5.77600E+03  7.95784E+03
  5.45194E+02  8.58267E+03 -3.24957E+03  8.16870E+03 -5.96018E+03  4.11567E+03 -5.19107E+03  4.62718E+02
 -3.42448E+03 -1.35940E+02 -2.13186E+03  6.20153E+02 -4.72636E+03  2.03094E+03 -6.95870E+03 -1.36540E+03
 -6.10474E+03 -4.78522E+03 -1.52617E+03 -9.03717E+03  4.46287E+03 -9.66271E+03  8.37784E+03 -5.31242E+03
  9.94773E+03  1.92280E+03  5.73241E+03  6.61047E+03 -7.70463E+02  8.64195E+03 -7.99672E+03  5.54840E+03
