 $NMID ID='MM_0lb_SNR400_13hz_g40_92.RAW', FMTDAT='(8E13.5)'
 TRAMP=1., VOLUME=1. $END
  3.09631E+05  1.00066E+03  3.37503E+05  2.50723E+05  8.49515E+04  3.38194E+05 -1.32406E+05  2.50826E+05
 -1.89871E+05  8.35861E+04 -1.11540E+05 -3.27146E+04  2.27346E+02 -5.04058E+04  5.35153E+04 -5.69624E+02
  3.50713E+04  5.24756E+04 -1.69547E+04  7.59206E+04 -6.05222E+04  6.39385E+04 -8.39083E+04  3.18635E+04
 -8.10710E+04 -1.13261E+04 -5.70067E+04 -5.11693E+04 -1.51096E+04 -6.92131E+04  2.74453E+04 -4.59448E+04
  3.93554E+04  3.99173E+03  1.61854E+04  4.81165E+04 -3.44293E+04  4.71666E+04 -6.60377E+04 -6.33356E+02
 -5.33966E+04 -5.71242E+04 -7.08440E+03 -7.68651E+04  3.42489E+04 -5.54569E+04  4.72219E+04 -1.72127E+04
  4.32267E+04  1.17226E+04  3.18533E+04  2.54184E+04  1.53448E+04  2.90823E+04 -5.46472E+03  2.63404E+04
 -2.26891E+04  1.26146E+04 -1.86937E+04 -5.08961E+03  5.41477E+03 -7.39933E+03  2.23039E+04  1.19962E+04
  7.11875E+03  3.61955E+04 -3.22604E+04  3.56205E+04 -6.25614E+04  1.99728E+03 -5.76340E+04 -4.29738E+04
 -1.29062E+04 -6.27617E+04  3.99925E+04 -4.54625E+04  5.77712E+04 -2.41914E+03  3.39019E+04  3.23329E+04
 -6.20444E+03  3.60755E+04 -3.00208E+04  1.63455E+04 -3.01937E+04 -4.67987E+03 -1.71357E+04 -1.08820E+04
 -8.46497E+03 -1.29720E+04 -1.00216E+03 -1.82663E+04  7.11823E+03 -2.29599E+04  1.50151E+04 -1.37575E+04
  1.14928E+04  5.59536E+03 -8.22567E+03  1.24781E+04 -2.10404E+04 -4.89273E+03 -7.98999E+03 -3.41386E+04
  2.34981E+04 -4.28172E+04  4.80250E+04 -1.98828E+04  4.50255E+04  1.93698E+04  1.58646E+04  4.39948E+04
 -1.61304E+04  3.31180E+04 -2.56987E+04  1.86927E+03 -9.49600E+03 -2.69743E+04  2.09272E+04 -3.36913E+04
  4.08695E+04 -8.91272E+03  3.51444E+04  2.38325E+04  1.84960E+04  4.69859E+04 -7.63200E+03  5.00456E+04
 -3.15384E+04  3.40330E+04 -4.13504E+04  1.00061E+04 -4.21749E+04 -1.69822E+04 -2.38374E+04 -3.83463E+04
  7.35229E+03 -3.76767E+04  3.10126E+04 -1.45722E+04  2.93260E+04  1.13921E+04  4.16662E+03  1.96421E+04
 -1.40460E+04  8.80152E+03 -1.02288E+04 -8.46887E+03  6.05400E+03 -1.04285E+04  1.77384E+04  5.80498E+03
  1.42241E+04  2.26359E+04 -5.97222E+03  2.51958E+04 -2.22213E+04  1.21322E+04 -2.73741E+04 -4.11291E+03
 -2.04446E+04 -1.78734E+04 -8.77732E+03 -2.01736E+04  4.40364E+03 -1.91821E+04  1.62330E+04 -1.79163E+04
  2.60697E+04 -1.25196E+04  3.23803E+04  2.85661E+03  2.38776E+04  1.99491E+04  4.54547E+03  3.61306E+04
 -1.78237E+04  2.99651E+04 -2.82589E+04  1.04569E+04 -2.07242E+04 -1.00554E+04 -4.51562E+03 -1.31676E+04
  1.72129E+03 -3.05716E+03 -4.81669E+03  6.80365E+03 -1.62410E+04  4.80470E+03 -1.57209E+04 -7.20992E+03
 -9.89540E+03 -1.92235E+04  5.06029E+03 -2.24567E+04  1.55434E+04 -1.66500E+04  1.83981E+04 -1.71346E+03
  1.13298E+04  1.25826E+04 -7.55347E+02  1.94140E+04 -1.30650E+04  1.07483E+04 -1.91433E+04 -4.18302E+03
 -1.41500E+04 -1.70497E+04 -2.02206E+03 -2.28561E+04  1.05158E+04 -1.90076E+04  1.86657E+04 -9.39688E+03
  1.77769E+04  5.05483E+02  1.26572E+04  4.30360E+03  6.72082E+03  3.61885E+02  9.24882E+03 -1.33560E+03
  1.77933E+04  3.01419E+03  1.94135E+04  1.52352E+04  1.30590E+04  3.05311E+04 -3.07666E+03  3.48196E+04
 -2.03916E+04  2.76249E+04 -3.14984E+04  1.40060E+04 -3.38731E+04 -2.88539E+03 -2.83381E+04 -1.89904E+04
 -1.17397E+04 -2.74406E+04  8.78245E+03 -2.57334E+04  2.22905E+04 -1.28006E+04  1.94285E+04  5.58286E+03
  7.37160E+03  1.49921E+04 -9.22371E+03  1.22643E+04 -1.61452E+04  2.81542E+03 -1.21486E+04 -1.03191E+04
 -2.85964E+01 -1.53082E+04  8.07586E+03 -1.18246E+04  1.09389E+04 -1.57279E+03  2.79251E+03  6.86486E+03
 -6.71451E+03  2.76468E+03 -5.80332E+03 -6.08550E+03 -5.51965E+02 -1.33590E+04  9.43485E+03 -1.43589E+04
  1.72310E+04 -7.46585E+03  1.84954E+04  3.06157E+03  1.57282E+04  1.38215E+04  7.45342E+03  2.10301E+04
 -3.25862E+03  2.19744E+04 -1.40695E+04  1.49656E+04 -1.66820E+04  3.46041E+03 -1.12509E+04 -3.72782E+03
 -4.54258E+03 -4.90302E+03 -8.08758E+02  1.53466E+03 -2.30347E+03  2.21619E+03 -5.22686E+03  4.43751E+03
 -1.04326E+04 -1.01992E+03 -1.10236E+04 -9.77330E+03 -4.44912E+03 -1.47081E+04  4.84588E+03 -1.10130E+04
  9.18207E+03 -5.43291E+03  7.08932E+03  2.74196E+03  6.47154E+02  4.61821E+03 -5.16057E+03 -1.02333E+02
 -5.51484E+03 -7.45082E+03 -4.83263E+02 -1.07152E+04  6.44435E+03 -1.18309E+04  1.54484E+04 -5.60427E+03
  1.71973E+04  1.32989E+03  1.22678E+04  9.66863E+03  2.05840E+03  1.33026E+04 -6.91751E+03  1.15105E+04
 -9.30841E+03  4.01200E+03 -4.90423E+03 -2.36903E+03  1.19310E+03 -2.97210E+03  6.32897E+03 -1.36749E+03
  5.32355E+03  5.35076E+03  5.53993E+02  9.28672E+03 -6.06496E+03  8.71687E+03 -1.11673E+04  2.04643E+03
 -7.17643E+03 -5.72443E+03 -3.23651E+02 -9.15622E+03  5.25301E+03 -4.10230E+03  6.11083E+03  1.79786E+03
  1.16739E+03  6.07987E+03 -6.00429E+03  6.94260E+03 -8.60256E+03  3.59744E+03 -8.44141E+03 -3.10487E+03
 -4.74134E+03 -9.62174E+03  1.82319E+03 -1.13538E+04  9.77055E+03 -7.71249E+03  1.03532E+04  1.49791E+03
  7.30912E+03  8.66279E+03 -9.54064E+01  1.08984E+04 -7.92357E+03  6.06138E+03 -8.51287E+03 -3.42854E+02
 -8.10491E+03 -7.28281E+03 -1.24110E+03 -8.17811E+03  3.68179E+03 -6.49176E+03  4.27930E+03 -2.84489E+03
  3.52870E+03  8.49923E+02 -8.76347E+02  1.72931E+03  3.59118E+02 -9.20661E+02  9.31433E+02 -4.05045E+03
  6.60614E+03 -2.45138E+03  9.86721E+03  8.81226E+02  1.00578E+04  6.67296E+03  7.26798E+03  1.32323E+04
 -2.92707E+03  1.56607E+04 -1.32607E+04  1.12556E+04 -1.60543E+04  2.48349E+03 -1.34794E+04 -5.26876E+03
 -6.86969E+03 -1.14659E+04 -3.28789E+02 -8.75835E+03  3.25556E+03 -4.72906E+03  3.40607E+03 -3.80778E+03
  2.58505E+03 -1.56246E+03  3.00755E+03 -2.94708E+03  4.41788E+03 -2.57892E+03  5.24556E+03 -2.23773E+02
  7.84126E+03  1.17496E+03  3.65904E+03  6.55625E+03 -1.34186E+03  6.14012E+03 -7.51341E+03  5.05130E+03
 -8.24092E+03 -1.17470E+03 -4.57651E+03 -6.28101E+03 -1.55127E+02 -9.01159E+03  5.84381E+03 -9.87566E+03
  9.81977E+03 -5.46521E+03  1.18089E+04  6.80137E+02  8.16003E+03  8.72426E+03  1.46346E+03  1.09721E+04
 -3.87186E+03  8.95292E+03 -6.72110E+03  3.22883E+03 -3.97243E+03 -1.21558E+03 -2.02822E+03 -1.67652E+03
 -8.31352E+02  7.22633E+01 -1.50053E+03  2.68310E+03 -4.13219E+03  1.12310E+03 -6.50067E+03 -6.59187E+02
 -4.20322E+03 -6.34215E+03  4.73658E+02 -8.63691E+03  5.72577E+03 -8.05625E+03  8.16588E+03 -2.30774E+03
  7.80721E+03  3.78308E+03  3.76446E+03  6.71136E+03 -1.48932E+03  8.64806E+03 -5.59908E+03  4.89142E+03
 -7.99637E+03  2.53948E+02 -6.72011E+03 -5.73883E+03 -5.22238E+02 -6.67806E+03  3.06530E+03 -5.49645E+03
  5.07522E+03 -2.20596E+03  3.95128E+03  1.01469E+03  1.04404E+03  2.67930E+03  1.08472E+03  9.70063E+02
  2.05075E+03  1.36588E+03  1.21816E+03  1.13470E+03  2.67995E+03  3.82252E+03  2.89494E+03  4.20995E+03
 -2.41890E+03  6.35212E+03 -6.02077E+03  7.16509E+03 -8.22344E+03  2.09355E+03 -9.27680E+03 -3.11439E+03
 -3.64165E+03 -7.65849E+03  1.41205E+03 -8.94550E+03  4.64747E+03 -5.34438E+03  6.35885E+03 -1.38129E+03
  5.54211E+03  3.06030E+03  1.15376E+03  4.83398E+03 -2.06646E+03  2.63774E+03 -3.04667E+03 -9.01815E+02
 -1.25319E+03 -3.46343E+03  2.02356E+03 -3.59002E+03  2.46244E+03 -1.42488E+03  3.28003E+03  6.53689E+02
  1.69358E+03  1.96875E+03  1.43565E+03  6.59576E+02 -4.25289E+02  1.05293E+03  1.24213E+03 -2.84668E+02
  1.09845E+03 -1.10669E+03  3.63120E+03  1.20857E+03  1.66249E+03  4.33276E+03 -8.46782E+02  5.75298E+03
 -3.46670E+03  3.17110E+03 -5.74732E+03  8.99029E+02 -4.60948E+03 -1.62423E+03 -1.20648E+03 -3.09579E+03
  1.51678E+03 -3.28443E+03  2.27275E+03 -1.74917E+03  2.03352E+03  2.04106E+03 -1.19419E+03  2.80959E+03
 -3.61358E+03  9.79411E+02 -3.79813E+03 -2.39953E+03 -2.33711E+03 -4.43716E+03  6.12847E+02 -3.62083E+03
  2.36508E+03 -2.10696E+03  2.42274E+03 -2.68963E+02  2.42010E+03  1.01293E+03 -8.10617E+00  2.36486E+03
 -1.33420E+03  1.01519E+03 -2.14860E+03 -8.90737E+02  8.78469E+02 -3.15192E+03  4.27542E+03 -2.14675E+03
  4.25515E+03  7.05115E+02  5.29201E+03  3.48000E+03  1.54670E+03  5.03412E+03 -8.04793E+02  4.58234E+03
 -4.22229E+03  1.99431E+03 -4.00472E+03 -6.50007E+02 -2.30647E+03 -2.93898E+03  9.24855E+02 -2.56716E+03
  3.34563E+03 -1.94657E+03  1.43390E+03  1.19316E+03  7.96026E+02  2.93186E+03 -7.02495E+02  2.34254E+03
 -1.29186E+03  1.33410E+03 -9.84545E+02  4.20956E+01 -3.64455E+02  1.36470E+02 -1.22109E+03  1.43710E+03
 -1.06859E+03  1.91987E+03 -4.10699E+03  1.52719E+03 -4.91882E+03  4.30657E+02 -6.02888E+03 -3.30862E+03
 -2.73112E+03 -6.39844E+03  1.45481E+03 -7.23392E+03  4.85799E+03 -5.85803E+03  6.84051E+03 -2.56867E+03
  6.81763E+03  7.59957E+02  3.43485E+03  3.91247E+03 -7.51701E+02  4.52442E+03 -2.12858E+03  4.07868E+03
 -2.67447E+03  1.69829E+03 -2.13353E+03 -6.17559E+02 -5.83590E+02 -6.13852E+02 -8.58232E+02  1.89453E+01
 -1.50611E+03  2.75883E+02 -1.37544E+03  9.56719E+01  5.84759E+00 -1.14271E+03 -4.63425E+02 -1.64746E+03
  2.45715E+03 -1.54830E+03  2.91644E+03  6.66705E+02  3.58198E+03  2.88619E+03  5.27299E+02  4.36684E+03
 -2.58592E+03  6.01451E+03 -5.03730E+03  3.83698E+03 -5.95026E+03 -7.97060E+02 -5.01496E+03 -3.59559E+03
 -2.33537E+03 -4.59298E+03  1.41687E+03 -4.17012E+03  2.47757E+03 -2.04770E+03  2.83164E+03  3.63705E+02
  2.37489E+03  1.66938E+03  2.23906E+02  1.26466E+03 -7.79631E+02 -6.12675E+02  3.22697E+02 -7.85761E+02
  1.39524E+03 -1.29219E+03  1.45324E+03  5.56030E+02  1.52050E+03  1.69549E+03 -1.95321E+02  1.81395E+03
 -2.33467E+03  1.88424E+03 -2.86641E+03 -3.99967E+01 -2.37229E+03 -1.84888E+03 -5.98340E+02 -3.72529E+03
  1.97935E+03 -3.32089E+03  3.25258E+03 -1.63736E+02  3.71552E+03 -3.76236E+02  1.94167E+03  3.06911E+03
  9.95458E+02  2.34012E+03 -7.06250E+02  2.16257E+03 -1.41154E+03  1.58344E+03 -1.34354E+03  4.82162E+02
 -1.25817E+03  3.55610E+02 -1.53410E+03  3.58172E+02 -1.65604E+03  2.76379E+02 -2.52101E+03 -1.08596E+03
 -2.33490E+03 -8.82169E+02 -1.03392E+03 -3.42514E+03  1.48015E+03 -3.48797E+03  2.82897E+03 -1.09143E+03
  2.87587E+03  1.25482E+03  9.74279E+02  2.06630E+03 -6.81452E+02  2.66168E+03 -1.43165E+03  1.42093E+03
