 $NMID ID='MM_0lb_SNR400_20hz_g60_38.RAW', FMTDAT='(8E13.5)'
 TRAMP=1., VOLUME=1. $END
  3.09691E+05  1.86951E+02  3.37453E+05  2.50317E+05  8.40306E+04  3.37204E+05 -1.32361E+05  2.50716E+05
 -1.89976E+05  8.26206E+04 -1.11701E+05 -3.26901E+04  9.90268E+02 -5.04273E+04  5.38612E+04 -3.72310E+02
  3.58661E+04  5.30312E+04 -1.71496E+04  7.49912E+04 -6.05430E+04  6.32335E+04 -8.38489E+04  3.09431E+04
 -7.98770E+04 -1.09872E+04 -5.73037E+04 -5.05131E+04 -1.47542E+04 -6.91254E+04  2.73504E+04 -4.53092E+04
  3.93600E+04  3.78945E+03  1.54153E+04  4.75498E+04 -3.45151E+04  4.70824E+04 -6.60817E+04 -9.10940E+01
 -5.28144E+04 -5.67174E+04 -7.12695E+03 -7.60396E+04  3.37589E+04 -5.37009E+04  4.65190E+04 -1.59569E+04
  4.22456E+04  1.09464E+04  3.13022E+04  2.48390E+04  1.59230E+04  2.88209E+04 -5.24750E+03  2.69270E+04
 -2.16629E+04  1.27713E+04 -1.94298E+04 -4.60106E+03  4.76182E+03 -7.91510E+03  2.18080E+04  1.13381E+04
  6.91432E+03  3.35744E+04 -3.13789E+04  3.44079E+04 -6.18393E+04  2.15882E+03 -5.55860E+04 -4.11419E+04
 -1.25712E+04 -6.12892E+04  3.83082E+04 -4.39978E+04  5.66203E+04 -2.26328E+03  3.27073E+04  3.10200E+04
 -6.52571E+03  3.38147E+04 -2.88269E+04  1.44176E+04 -2.90607E+04 -5.29442E+03 -1.52450E+04 -1.03004E+04
 -7.43801E+03 -1.18159E+04 -8.92534E+02 -1.73736E+04  6.67624E+03 -2.26215E+04  1.51526E+04 -1.35663E+04
  1.20989E+04  4.46660E+03 -6.44099E+03  1.28545E+04 -2.04541E+04 -2.78135E+03 -7.97299E+03 -3.11941E+04
  2.21387E+04 -4.16581E+04  4.52176E+04 -1.88070E+04  4.27005E+04  1.84527E+04  1.46953E+04  4.20845E+04
 -1.57405E+04  3.16539E+04 -2.43815E+04  1.57268E+03 -8.83884E+03 -2.62021E+04  2.06715E+04 -3.19102E+04
  3.88955E+04 -7.68936E+03  3.24627E+04  2.31518E+04  1.61382E+04  4.32776E+04 -7.87485E+03  4.61828E+04
 -2.91622E+04  3.06077E+04 -3.83771E+04  8.73272E+03 -3.89185E+04 -1.54786E+04 -2.11403E+04 -3.46812E+04
  6.98270E+03 -3.47969E+04  2.96218E+04 -1.34355E+04  2.74715E+04  1.03735E+04  3.36788E+03  1.79266E+04
 -1.33650E+04  7.40945E+03 -9.71090E+03 -7.70163E+03  5.78171E+03 -1.03585E+04  1.79560E+04  6.21813E+03
  1.27635E+04  2.15911E+04 -6.62070E+03  2.42036E+04 -2.18359E+04  1.01633E+04 -2.56194E+04 -6.09272E+03
 -1.74297E+04 -1.67005E+04 -5.34737E+03 -1.71724E+04  3.49917E+03 -1.55253E+04  1.27987E+04 -1.46633E+04
  2.22900E+04 -1.20208E+04  2.83028E+04  1.12880E+03  2.16939E+04  1.68473E+04  4.01614E+03  3.32691E+04
 -1.54278E+04  2.80545E+04 -2.55628E+04  9.45077E+03 -1.97151E+04 -1.04383E+04 -4.01686E+03 -1.37025E+04
  2.81625E+03 -3.71705E+03 -2.63645E+03  5.08775E+03 -1.30821E+04  5.15526E+03 -1.32318E+04 -4.85360E+03
 -8.76403E+03 -1.55529E+04  3.98727E+03 -2.03116E+04  1.31135E+04 -1.42253E+04  1.48854E+04 -1.75681E+03
  9.09727E+03  1.08655E+04 -5.97455E+02  1.58340E+04 -1.04660E+04  8.88948E+03 -1.59772E+04 -3.55642E+03
 -1.19020E+04 -1.45214E+04 -1.42404E+03 -1.95747E+04  9.39421E+03 -1.58477E+04  1.61147E+04 -7.49184E+03
  1.45413E+04  8.50178E+02  1.05600E+04  3.45655E+03  4.99396E+03  3.53854E+02  7.75359E+03 -1.42066E+03
  1.41819E+04  2.92935E+03  1.45053E+04  1.30731E+04  9.65646E+03  2.47765E+04 -2.99865E+03  2.73149E+04
 -1.56222E+04  2.08656E+04 -2.46855E+04  9.84706E+03 -2.48816E+04 -2.16860E+03 -2.16115E+04 -1.49664E+04
 -1.00458E+04 -2.05821E+04  6.96482E+03 -1.96203E+04  1.67352E+04 -1.11979E+04  1.56408E+04  3.56907E+03
  6.62513E+03  1.12272E+04 -7.11938E+03  1.06451E+04 -1.29518E+04  2.89898E+03 -1.00684E+04 -7.23236E+03
 -1.86617E+02 -1.24519E+04  5.99666E+03 -9.46280E+03  7.51591E+03 -1.48656E+03  1.27133E+03  5.13004E+03
 -5.11494E+03  9.44576E+02 -3.52798E+03 -4.39775E+03  6.05648E+02 -1.05118E+04  7.90350E+03 -1.01645E+04
  1.21605E+04 -4.60776E+03  1.20105E+04  3.07841E+03  9.90372E+03  9.50719E+03  5.08428E+03  1.39354E+04
 -1.32697E+03  1.59063E+04 -9.68824E+03  1.04665E+04 -1.09892E+04  3.21331E+03 -8.35458E+03 -1.90056E+03
 -4.60993E+03 -3.32232E+03 -8.40207E+02  1.01681E+03 -1.47028E+03  1.97000E+03 -3.12324E+03  4.25795E+03
 -8.30483E+03 -5.12936E+02 -8.59150E+03 -7.18833E+03 -3.45826E+03 -1.17288E+04  3.76584E+03 -8.20451E+03
  6.70124E+03 -4.29779E+03  5.35849E+03  2.26356E+03  7.33629E+02  2.80213E+03 -3.46720E+03  1.13084E+02
 -3.76710E+03 -5.19608E+03 -7.02962E+02 -6.75919E+03  3.13541E+03 -7.84775E+03  9.34478E+03 -4.28506E+03
  1.12414E+04  7.21830E+01  8.46939E+03  5.79129E+03  2.29647E+03  8.28052E+03 -5.24161E+03  8.48063E+03
 -6.40822E+03  3.00138E+03 -3.61227E+03 -1.33475E+03  1.82529E+03 -1.92789E+03  4.65551E+03 -6.74663E+02
  4.19199E+03  3.16361E+03  3.60260E+02  5.65051E+03 -4.01377E+03  6.23978E+03 -7.46399E+03  1.17836E+03
 -4.90552E+03 -3.66210E+03  5.80368E+02 -6.50716E+03  3.24134E+03 -3.27923E+03  3.32335E+03  4.13080E+02
  5.48855E+02  2.59242E+03 -3.83689E+03  3.75007E+03 -3.99829E+03  2.10862E+03 -4.48349E+03 -8.53544E+02
 -2.41432E+03 -5.93804E+03  6.52595E+02 -6.59737E+03  5.53804E+03 -4.48553E+03  6.25726E+03  1.40999E+03
  4.66545E+03  4.84187E+03  8.05151E+01  6.43728E+03 -4.81113E+03  4.10439E+03 -4.99804E+03  9.77868E+01
 -5.51767E+03 -5.00691E+03 -9.54693E+02 -4.34439E+03  1.85243E+03 -4.82769E+03  2.61106E+03 -2.93884E+03
  2.37906E+03  1.83091E+02 -7.97448E+01  1.43278E+03  1.00505E+03 -3.43121E+02 -2.78361E+02 -2.00819E+03
  3.36523E+03 -6.38312E+02  4.73684E+03  1.04497E+03  4.74147E+03  2.39925E+03  5.10985E+03  6.61083E+03
 -9.88627E+02  7.77062E+03 -7.33866E+03  6.01009E+03 -8.86871E+03  1.39810E+03 -6.44787E+03 -2.24038E+03
 -3.36091E+03 -6.33562E+03 -7.22478E+02 -4.78034E+03  1.76916E+03 -2.04849E+03  2.06321E+03 -1.81065E+03
  1.67133E+03 -1.06079E+03  2.00424E+03 -2.11514E+03  3.73798E+03 -1.27126E+03  3.32753E+03  9.25394E+02
  4.12028E+03  1.28142E+03  7.40981E+02  2.73142E+03 -1.38487E+03  2.62403E+03 -3.73525E+03  1.61694E+03
 -3.89944E+03 -1.10243E+03 -1.05070E+03 -2.69604E+03  2.00342E+01 -3.95178E+03  2.74900E+03 -5.15155E+03
  4.51057E+03 -2.72588E+03  6.24988E+03  4.63505E+01  4.87841E+03  3.37978E+03  7.33019E+02  5.26539E+03
 -2.43261E+03  5.55370E+03 -2.26636E+03  1.62469E+03 -1.56333E+03 -6.26110E+02 -6.67414E+02 -3.03155E+02
 -4.71685E+02  6.22776E+02 -9.80874E+02  1.32156E+03 -2.45425E+03  6.23376E+02 -3.83078E+03 -9.39729E+01
 -1.72641E+03 -3.63090E+03  9.40238E+02 -3.75660E+03  2.58507E+03 -4.09641E+03  2.88642E+03 -1.20463E+03
  3.46016E+03  2.26778E+03  1.79626E+03  2.09118E+03 -8.03386E+02  3.94095E+03 -2.37767E+03  2.08041E+03
 -2.98898E+03  9.05354E+02 -2.77552E+03 -1.61916E+03  2.45975E+01 -2.63659E+03  1.39651E+03 -2.23447E+03
  2.33255E+03 -1.15343E+03  1.97984E+03  9.82137E+01  4.14960E+02  1.50069E+03  3.46711E+02  3.89631E+02
  1.93578E+03  1.19932E+03  1.47192E+03  1.04769E+03  8.65994E+02  2.01445E+03  1.47433E+03  1.22211E+03
 -1.48513E+03  2.64525E+03 -1.75757E+03  3.72105E+03 -2.56341E+03  1.49357E+03 -3.88057E+03 -1.57641E+02
 -8.07100E+02 -2.72101E+03  9.35696E+02 -4.01373E+03  1.69339E+03 -2.15170E+03  2.30512E+03 -4.93172E+02
  2.14156E+03  1.33146E+03  2.54331E+02  1.61235E+03 -7.85735E+02  1.27732E+03 -6.80046E+02  2.75531E+02
 -1.56129E+02 -4.92441E+02  1.08304E+03 -1.51847E+03  8.59333E+02 -5.27693E+02  8.90956E+02  6.11295E+02
  3.64128E+02  5.96634E+02  9.46130E+02 -4.63425E+02 -4.54768E+02  6.94659E+02  1.95139E+03 -1.30373E+01
 -4.41547E+02 -1.26677E+02  1.43606E+03  6.06902E+02 -3.28480E+01  2.00524E+03  2.73702E+02  3.04861E+03
 -1.39168E+03  6.35875E+02 -1.52394E+03  6.44656E+02 -1.90556E+03 -5.69213E+02  3.19008E+02 -4.69617E+02
  4.47651E+02 -4.60945E+02  6.26221E+02 -8.64987E+02  5.87141E+02  7.77844E+02 -9.12947E+02  6.86120E+02
 -1.02419E+03  7.03200E+02 -8.65488E+02 -9.50084E+02 -5.67744E+02 -1.43657E+03 -3.38644E+02 -1.15889E+03
  1.39523E+02 -1.28534E+01  7.49318E+02  5.17317E+01  1.00775E+03 -2.99571E+02  2.55514E+02  1.15729E+03
 -5.83959E+02  1.79112E+02 -9.59111E+02  5.57616E+02  1.01550E+03 -4.13811E+02  1.48742E+03 -8.13549E+02
  9.82813E+02  2.23054E+02  2.50794E+03  6.10866E+02  9.83989E+02  9.42652E+02 -5.51212E+02  1.15979E+03
 -1.34931E+03  1.23603E+02 -9.00397E+02  1.82734E+02 -1.02693E+01 -1.38661E+03  3.50987E+02 -5.51092E+02
  1.37076E+03 -7.92186E+02  3.84271E+02  1.43824E+02 -1.67087E+02  1.06563E+03  3.38292E+02  1.31035E+03
 -2.18128E+02  1.00629E+03 -3.47425E+02  2.56654E+02  2.45948E+02  2.26275E+02 -8.27748E+02  8.05920E+02
 -2.71788E+02  1.31488E+03 -1.75716E+03  7.51224E+02 -1.50589E+03  2.74017E+02 -2.19202E+03 -4.09465E+02
 -1.04814E+03 -1.40578E+03  1.60843E+02 -1.65863E+03  3.70710E+02 -1.16654E+03  1.82652E+03 -8.16657E+02
  9.58191E+02 -1.00540E+03  6.23257E+02  1.33648E+03 -5.96822E+02  7.63512E+02 -4.34449E+02  1.09835E+03
 -7.93737E+02  8.44015E+02 -8.14002E+02  3.75946E+02 -7.38211E+02  2.91221E+02 -7.96472E+02  2.28335E+02
 -9.70093E+02 -3.82092E+02 -5.07883E+02  6.43753E+01  6.08968E+02 -9.59203E+02 -6.59580E+02 -5.54755E+02
  1.09728E+03 -5.59240E+02  5.20327E+01  2.88384E+02  4.21190E+02  9.73372E+02 -6.42668E+02  3.00033E+02
 -1.10176E+03  1.47239E+03 -6.72008E+02  5.43639E+02 -1.05326E+03 -7.60477E+02 -1.05575E+03 -9.35664E+02
 -5.22890E+02 -4.76624E+02 -6.73237E+01 -1.01090E+03 -2.01431E+02 -3.47843E+02  1.44080E+02  1.24089E+02
  6.12521E+02  2.96373E+02 -2.30415E+02  7.52172E-01 -4.73034E+02 -5.42431E+01  7.32931E+01 -6.18993E+02
  4.97785E+02 -3.16159E+02 -1.38755E+02  4.61584E+02  5.47457E+01  2.71001E+02  2.92053E+02  3.88390E+01
  1.85936E+02  6.64684E+02  1.10093E+02  1.52939E+02 -8.09830E+01 -3.14503E+02  1.62115E+02 -4.98995E+02
  8.01003E+02  4.12324E+01  2.66568E+02  2.73185E+02  6.70938E+02 -1.01874E+02  5.46471E+02  1.53229E+02
  3.42926E+02  5.00243E+00 -9.53121E-01  3.72256E+02 -1.07775E+02  5.83392E+02 -5.09268E+02 -1.79113E+02
  1.30515E+02 -4.18506E+02 -2.29223E+02  5.95852E+02 -9.38738E+02 -7.06633E+02 -7.47812E+02 -5.95227E+02
 -9.36155E+02  1.47057E+02 -8.30857E+02 -6.34576E+01  2.95702E+02 -1.57875E+03  7.30041E+02 -2.50583E+00
  3.84327E+02  5.44788E+02  2.30464E+01 -6.52790E+01 -1.63507E+02  6.86051E+02 -2.08773E+02  1.10417E+03
