 $NMID ID='MM_0lb_SNR400_13hz_g50_50.RAW', FMTDAT='(8E13.5)'
 TRAMP=1., VOLUME=1. $END
  3.09973E+05  8.97020E+02  3.38016E+05  2.50417E+05  8.48698E+04  3.38380E+05 -1.31937E+05  2.51132E+05
 -1.90323E+05  8.34922E+04 -1.11990E+05 -3.27017E+04  8.08053E+02 -5.19678E+04  5.36755E+04 -9.22928E+01
  3.54191E+04  5.26982E+04 -1.61508E+04  7.54939E+04 -6.11576E+04  6.38722E+04 -8.41376E+04  3.20554E+04
 -8.11850E+04 -1.13041E+04 -5.76885E+04 -5.17075E+04 -1.51112E+04 -6.98114E+04  2.76092E+04 -4.60621E+04
  4.02987E+04  3.66215E+03  1.65350E+04  4.72788E+04 -3.39688E+04  4.72730E+04 -6.70333E+04 -2.75702E+02
 -5.32965E+04 -5.72521E+04 -6.84688E+03 -7.74379E+04  3.40778E+04 -5.49524E+04  4.85437E+04 -1.77479E+04
  4.39672E+04  1.18135E+04  3.22984E+04  2.58800E+04  1.59096E+04  3.00165E+04 -5.13310E+03  2.72143E+04
 -2.24606E+04  1.29021E+04 -1.82745E+04 -4.56235E+03  6.57498E+03 -7.08370E+03  2.22545E+04  1.31498E+04
  7.02313E+03  3.63333E+04 -3.23300E+04  3.53978E+04 -6.38720E+04  2.35044E+03 -5.75889E+04 -4.34002E+04
 -1.21124E+04 -6.38245E+04  4.05202E+04 -4.58606E+04  5.89755E+04 -2.75421E+03  3.39546E+04  3.24902E+04
 -6.20788E+03  3.70336E+04 -3.08484E+04  1.68514E+04 -3.13103E+04 -4.01910E+03 -1.71568E+04 -1.13266E+04
 -8.47086E+03 -1.28100E+04 -6.56612E+02 -1.84914E+04  8.39124E+03 -2.26574E+04  1.56310E+04 -1.30051E+04
  1.05999E+04  5.85175E+03 -8.44971E+03  1.27089E+04 -2.16872E+04 -4.97088E+03 -8.04724E+03 -3.53222E+04
  2.27764E+04 -4.38297E+04  4.91428E+04 -1.99161E+04  4.59661E+04  1.97399E+04  1.59878E+04  4.49036E+04
 -1.59592E+04  3.36153E+04 -2.56962E+04  1.88794E+03 -1.01011E+04 -2.84611E+04  2.13752E+04 -3.42013E+04
  4.18954E+04 -9.04578E+03  3.64582E+04  2.37823E+04  1.87352E+04  4.78613E+04 -8.31413E+03  5.19433E+04
 -3.22161E+04  3.39770E+04 -4.24142E+04  1.05398E+04 -4.39016E+04 -1.68360E+04 -2.40808E+04 -3.85003E+04
  7.58527E+03 -3.88797E+04  3.16959E+04 -1.55745E+04  3.00988E+04  1.10094E+04  4.22939E+03  1.89853E+04
 -1.37361E+04  8.76011E+03 -1.01802E+04 -7.51382E+03  6.10492E+03 -1.10839E+04  1.80245E+04  6.14138E+03
  1.34030E+04  2.20801E+04 -5.73645E+03  2.51301E+04 -2.28652E+04  1.23048E+04 -2.89865E+04 -4.54417E+03
 -2.18508E+04 -1.73213E+04 -9.56456E+03 -2.11844E+04  4.50336E+03 -2.12865E+04  1.59079E+04 -1.92246E+04
  2.74587E+04 -1.27196E+04  3.37792E+04  3.68564E+03  2.46964E+04  2.08188E+04  4.42092E+03  3.74951E+04
 -1.81855E+04  3.04865E+04 -2.79829E+04  1.14468E+04 -2.13084E+04 -1.01585E+04 -4.28160E+03 -1.29688E+04
  1.65536E+03 -2.53148E+03 -5.29044E+03  6.19403E+03 -1.72290E+04  5.27989E+03 -1.65038E+04 -7.86318E+03
 -1.04712E+04 -2.02794E+04  5.34550E+03 -2.45928E+04  1.58513E+04 -1.69171E+04  1.93353E+04 -1.72877E+03
  1.24524E+04  1.40537E+04 -1.09645E+03  1.98044E+04 -1.39139E+04  1.08273E+04 -1.97999E+04 -3.95202E+03
 -1.52109E+04 -1.78496E+04 -1.43952E+03 -2.35855E+04  1.06000E+04 -1.99784E+04  2.00003E+04 -1.01230E+04
  1.86456E+04  3.34948E+02  1.30292E+04  4.32505E+03  7.79813E+03  7.06795E+02  1.06286E+04 -1.58168E+03
  1.85201E+04  2.93088E+03  2.05364E+04  1.54453E+04  1.39792E+04  3.13846E+04 -2.93997E+03  3.60529E+04
 -2.13738E+04  2.89356E+04 -3.42450E+04  1.56839E+04 -3.54742E+04 -2.81737E+03 -2.94007E+04 -2.10078E+04
 -1.31051E+04 -2.90260E+04  9.77720E+03 -2.60819E+04  2.27976E+04 -1.34001E+04  1.94042E+04  7.02870E+03
  6.42231E+03  1.52615E+04 -8.87224E+03  1.34036E+04 -1.71098E+04  2.39653E+03 -1.27873E+04 -1.08834E+04
 -5.04228E+02 -1.55695E+04  8.19220E+03 -1.19347E+04  1.13887E+04 -1.57697E+03  2.40575E+03  6.20377E+03
 -7.05534E+03  2.43470E+03 -6.71355E+03 -6.03454E+03 -2.83144E+02 -1.43894E+04  9.25124E+03 -1.49832E+04
  1.76444E+04 -8.12275E+03  1.95124E+04  2.98359E+03  1.73078E+04  1.47648E+04  8.26500E+03  2.14804E+04
 -3.73563E+03  2.39510E+04 -1.50020E+04  1.46211E+04 -1.69312E+04  3.14394E+03 -1.25482E+04 -3.56753E+03
 -5.70004E+03 -5.61867E+03 -5.69591E+02  9.17104E+02 -2.46975E+03  2.91407E+03 -5.30694E+03  5.17027E+03
 -1.08132E+04 -8.42733E+02 -1.13639E+04 -9.37199E+03 -4.97518E+03 -1.59003E+04  5.30831E+03 -1.23111E+04
  9.54966E+03 -5.41503E+03  7.78385E+03  2.80225E+03 -3.25314E+02  4.87811E+03 -5.78536E+03 -6.78999E+02
 -5.69721E+03 -8.17349E+03 -6.71268E+02 -1.19900E+04  6.16612E+03 -1.20927E+04  1.50358E+04 -6.32927E+03
  1.75561E+04  1.66628E+03  1.31258E+04  1.03999E+04  2.68847E+03  1.35218E+04 -7.05865E+03  1.16683E+04
 -1.00302E+04  2.91176E+03 -5.18621E+03 -2.66074E+03  1.43211E+03 -2.39678E+03  6.40848E+03 -1.20019E+03
  5.77158E+03  5.30643E+03  1.01819E+03  9.80981E+03 -7.38157E+03  9.37370E+03 -1.17644E+04  1.98136E+03
 -8.35060E+03 -6.05849E+03  4.97354E+02 -1.06142E+04  6.88640E+03 -4.36921E+03  6.46762E+03  2.39876E+03
  1.39362E+03  6.55654E+03 -6.25410E+03  8.32950E+03 -9.29529E+03  3.70000E+03 -9.32531E+03 -3.17734E+03
 -5.99243E+03 -1.07748E+04  2.80911E+03 -1.22467E+04  1.09953E+04 -8.18074E+03  1.10118E+04  2.23577E+03
  7.13382E+03  9.08997E+03 -9.98470E+02  1.11655E+04 -8.58096E+03  6.04217E+03 -9.43890E+03 -1.22259E+02
 -8.48497E+03 -7.77042E+03 -2.27523E+03 -8.15528E+03  4.68131E+03 -6.91414E+03  5.01845E+03 -3.46435E+03
  3.49342E+03  1.33936E+03 -5.87484E+02  2.55377E+03  5.68317E+02 -1.34420E+03  1.20893E+03 -4.28550E+03
  7.44816E+03 -2.94243E+03  1.04490E+04  1.50939E+03  9.94386E+03  6.54673E+03  7.61203E+03  1.39878E+04
 -2.59464E+03  1.55520E+04 -1.36764E+04  1.20379E+04 -1.77291E+04  1.66925E+03 -1.42541E+04 -5.68929E+03
 -7.17218E+03 -1.19747E+04  1.16874E+02 -9.89019E+03  3.79249E+03 -5.19610E+03  3.79756E+03 -4.24692E+03
  2.28320E+03 -2.33878E+03  2.13574E+03 -2.90962E+03  4.20122E+03 -2.57474E+03  5.01459E+03 -3.76202E+02
  7.80691E+03  1.82783E+03  3.35054E+03  6.11467E+03 -2.12532E+03  7.02030E+03 -8.05126E+03  5.73325E+03
 -9.49427E+03 -1.33611E+03 -5.16555E+03 -6.76094E+03 -1.95329E+02 -9.74317E+03  5.85047E+03 -1.02011E+04
  1.01230E+04 -5.93521E+03  1.27909E+04  1.77903E+03  9.12463E+03  8.59547E+03  1.74489E+03  1.16141E+04
 -4.93921E+03  9.49590E+03 -5.98734E+03  2.89857E+03 -3.65844E+03 -1.81600E+03 -1.77339E+03 -1.21838E+03
 -1.28194E+03  5.10656E+02 -1.15880E+03  2.80097E+03 -4.06774E+03  1.77170E+03 -6.57162E+03 -5.56310E+02
 -4.19402E+03 -7.02124E+03  9.56570E+02 -9.31351E+03  5.43218E+03 -8.75261E+03  8.49910E+03 -2.39340E+03
  8.79670E+03  4.34085E+03  3.58845E+03  7.51490E+03 -1.83297E+03  9.10398E+03 -6.21409E+03  5.45065E+03
 -7.92334E+03  4.82367E+02 -6.84364E+03 -6.30042E+03 -4.78341E+02 -7.38147E+03  3.69098E+03 -5.06188E+03
  5.81210E+03 -1.97571E+03  4.14464E+03  1.88506E+03  1.38789E+03  3.17048E+03  3.96448E+02  9.56706E+02
  2.31967E+03  5.10660E+02  1.68708E+03  1.34000E+03  2.58458E+03  3.51940E+03  2.19680E+03  4.72410E+03
 -2.13985E+03  6.21910E+03 -6.30647E+03  7.68296E+03 -8.05518E+03  2.08872E+03 -9.23180E+03 -3.32717E+03
 -4.81709E+03 -8.30736E+03  1.77653E+03 -1.01555E+04  4.93354E+03 -6.17060E+03  6.88780E+03 -1.21679E+03
  5.21518E+03  3.04252E+03  1.31421E+03  4.94545E+03 -2.52446E+03  2.78763E+03 -3.17241E+03 -3.44576E+02
 -1.91992E+03 -3.89787E+03  2.22579E+03 -3.62524E+03  2.94951E+03 -1.33921E+03  3.24950E+03  4.23016E+02
  1.88349E+03  1.43739E+03  7.62240E+02  1.61847E+03 -2.03162E+02  1.93382E+03  1.42841E+03 -4.08780E+02
  1.02072E+03 -5.68107E+02  3.56575E+03  1.64532E+03  1.41957E+03  4.90662E+03 -6.17932E+02  6.34830E+03
 -4.03485E+03  3.51185E+03 -6.22967E+03  1.14450E+03 -4.94416E+03 -1.71599E+03 -1.72792E+03 -3.38615E+03
  7.30359E+02 -3.71963E+03  2.36579E+03 -1.37327E+03  2.79033E+03  1.33646E+03 -1.22045E+03  3.41008E+03
 -3.62137E+03  1.91690E+03 -3.93423E+03 -2.61501E+03 -2.75013E+03 -4.43954E+03  1.59253E+02 -4.40314E+03
  2.38473E+03 -1.90258E+03  3.42480E+03  2.26685E+02  2.97207E+03  1.10019E+03  3.70716E+02  3.02407E+03
 -8.40294E+02  2.47470E+02 -2.41574E+03 -2.09693E+03  1.32323E+03 -3.35011E+03  3.62977E+03 -2.46872E+03
  4.09170E+03 -2.21794E+02  5.09969E+03  2.96879E+03  2.36948E+03  5.38362E+03 -1.71352E+03  4.82763E+03
 -4.38617E+03  1.72849E+03 -4.32972E+03 -1.09233E+03 -2.50059E+03 -3.24100E+03  7.52785E+02 -2.52704E+03
  3.18764E+03 -1.19285E+03  2.57088E+03  1.16231E+03  7.89204E+02  3.44690E+03 -6.65908E+02  2.55712E+03
 -1.46585E+03  1.75310E+03 -1.46304E+03  5.74490E+02 -1.29660E+02  9.44967E+02 -1.13780E+03  7.93909E+02
 -6.94997E+02  2.10765E+03 -4.39502E+03  1.63136E+03 -5.08272E+03  3.79643E+02 -5.87650E+03 -4.31958E+03
 -2.99934E+03 -6.61037E+03  1.31876E+03 -7.97172E+03  3.57696E+03 -6.35374E+03  7.69136E+03 -2.35606E+03
  6.65751E+03  1.24692E+03  4.33158E+03  4.38279E+03 -3.14689E+01  4.46202E+03 -2.32940E+03  4.02950E+03
 -2.92745E+03  1.82041E+03 -1.74322E+03 -5.90610E+02 -6.70913E+02  1.47703E+02 -1.11188E+03  1.88993E+02
 -1.61326E+03  4.46965E+02 -1.16922E+03 -3.70055E+02  1.85327E+01 -1.05026E+03  1.16064E+02 -1.36221E+03
  2.79787E+03 -2.04734E+03  3.06669E+03 -4.01730E+02  4.48930E+03  2.99114E+03  1.26346E+02  4.83607E+03
 -2.41138E+03  6.34186E+03 -5.33214E+03  3.87632E+03 -5.93308E+03  3.96310E+01 -3.77385E+03 -3.86934E+03
 -1.92919E+03 -5.02764E+03  7.69377E+02 -4.53520E+03  2.99266E+03 -2.05003E+03  2.47071E+03  4.76576E+02
  1.72260E+03  1.71292E+03 -8.13982E+01  9.57022E+02 -1.09398E+03 -7.40172E+02 -5.29513E+02 -9.12507E+02
  1.03650E+03 -3.51850E+02  1.65532E+03  3.73533E+02  6.24579E+02  1.79466E+03 -3.51329E+02  1.92424E+03
 -2.52210E+03  2.27074E+03 -3.58246E+03  3.01522E+02 -2.76118E+03 -2.25830E+03  1.94991E+01 -4.14264E+03
  2.49783E+03 -2.78518E+03  2.90466E+03 -2.41591E+02  3.37114E+03  4.82058E+02  2.24760E+03  2.84695E+03
  4.57155E+02  3.20439E+03 -9.41411E+02  2.21496E+03 -2.05713E+03  1.30634E+03 -1.58022E+03  6.47738E+02
 -5.09962E+02  8.38932E+01 -1.03827E+03  4.82753E+02 -1.59510E+03  4.75859E+02 -2.41377E+03 -4.83242E+02
 -2.27236E+03 -1.20100E+03 -8.00204E+01 -2.97780E+03  1.42230E+03 -3.88366E+03  2.41071E+03 -1.24455E+03
  3.50507E+03  7.59908E+01  1.25924E+03  2.16016E+03  1.91786E+02  3.30440E+03 -1.62997E+03  1.63253E+03
