 $NMID ID='MM_0lb_SNR400_16hz_g45_60.RAW', FMTDAT='(8E13.5)'
 TRAMP=1., VOLUME=1. $END
  3.09403E+05  6.75386E+02  3.37982E+05  2.50738E+05  8.46143E+04  3.36952E+05 -1.32564E+05  2.50608E+05
 -1.89843E+05  8.26401E+04 -1.11202E+05 -3.22103E+04  1.42853E+03 -5.07884E+04  5.34984E+04  6.80543E+02
  3.55664E+04  5.26268E+04 -1.72703E+04  7.59116E+04 -6.06716E+04  6.32715E+04 -8.39637E+04  3.16356E+04
 -8.01962E+04 -1.13920E+04 -5.66003E+04 -5.09247E+04 -1.49171E+04 -6.92764E+04  2.70135E+04 -4.47730E+04
  3.98157E+04  3.74674E+03  1.64407E+04  4.77809E+04 -3.43727E+04  4.66769E+04 -6.64155E+04 -2.18243E+02
 -5.27383E+04 -5.69142E+04 -6.71457E+03 -7.63829E+04  3.37336E+04 -5.33965E+04  4.70382E+04 -1.70851E+04
  4.29849E+04  1.03690E+04  3.12515E+04  2.47181E+04  1.61480E+04  2.89775E+04 -4.50080E+03  2.70319E+04
 -2.17646E+04  1.23125E+04 -1.90280E+04 -4.99223E+03  4.30274E+03 -7.58074E+03  2.13627E+04  1.14780E+04
  7.06447E+03  3.42538E+04 -3.16867E+04  3.42888E+04 -6.22970E+04  2.05719E+03 -5.59840E+04 -4.18491E+04
 -1.19244E+04 -6.17512E+04  3.87490E+04 -4.40591E+04  5.65031E+04 -2.52025E+03  3.30386E+04  3.14374E+04
 -6.52256E+03  3.42460E+04 -2.91485E+04  1.48849E+04 -2.87006E+04 -4.66078E+03 -1.52959E+04 -1.02844E+04
 -8.53699E+03 -1.29899E+04 -1.25870E+03 -1.78916E+04  6.98603E+03 -2.26383E+04  1.53194E+04 -1.39316E+04
  1.18612E+04  5.17869E+03 -8.12892E+03  1.27349E+04 -2.02213E+04 -3.00229E+03 -7.82274E+03 -3.19574E+04
  2.16828E+04 -4.19536E+04  4.61071E+04 -1.97137E+04  4.36593E+04  1.93141E+04  1.51065E+04  4.25126E+04
 -1.56998E+04  3.21934E+04 -2.44003E+04  1.63718E+03 -9.16992E+03 -2.72195E+04  2.05921E+04 -3.25778E+04
  3.89157E+04 -8.51698E+03  3.33066E+04  2.30379E+04  1.63667E+04  4.46633E+04 -7.51977E+03  4.73586E+04
 -3.01887E+04  3.15673E+04 -3.97626E+04  9.10919E+03 -4.00152E+04 -1.64181E+04 -2.19224E+04 -3.52215E+04
  6.88100E+03 -3.59559E+04  2.99181E+04 -1.44572E+04  2.85911E+04  1.10496E+04  3.37709E+03  1.86253E+04
 -1.33277E+04  8.08410E+03 -9.81889E+03 -8.06797E+03  6.00370E+03 -1.08637E+04  1.80231E+04  6.54579E+03
  1.27508E+04  2.14617E+04 -6.25962E+03  2.37059E+04 -2.21084E+04  1.11879E+04 -2.62972E+04 -5.58549E+03
 -1.85639E+04 -1.73315E+04 -6.91673E+03 -1.81095E+04  4.03559E+03 -1.63787E+04  1.43580E+04 -1.62636E+04
  2.38027E+04 -1.20056E+04  3.07983E+04  1.96046E+03  2.24882E+04  1.84180E+04  4.02507E+03  3.41289E+04
 -1.67459E+04  2.87116E+04 -2.66179E+04  9.44255E+03 -2.02683E+04 -1.00831E+04 -4.78750E+03 -1.41589E+04
  2.38238E+03 -3.02779E+03 -4.23826E+03  6.14691E+03 -1.47743E+04  5.28774E+03 -1.48334E+04 -6.00736E+03
 -8.81911E+03 -1.70101E+04  5.20864E+03 -2.06025E+04  1.33872E+04 -1.49672E+04  1.64966E+04 -1.61264E+03
  9.99269E+03  1.22828E+04 -8.54011E+02  1.72098E+04 -1.09352E+04  9.95926E+03 -1.70443E+04 -3.67432E+03
 -1.28133E+04 -1.52126E+04 -1.38488E+03 -2.07437E+04  9.17628E+03 -1.68109E+04  1.79613E+04 -8.40080E+03
  1.60131E+04  2.96806E+02  1.15921E+04  3.72724E+03  6.02880E+03  2.13857E+02  8.53684E+03 -1.37490E+03
  1.57508E+04  2.94771E+03  1.67822E+04  1.40252E+04  1.06263E+04  2.71663E+04 -2.75282E+03  2.97495E+04
 -1.79719E+04  2.38388E+04 -2.77480E+04  1.11258E+04 -2.91661E+04 -1.94326E+03 -2.42851E+04 -1.66308E+04
 -1.10079E+04 -2.30812E+04  8.58250E+03 -2.11548E+04  1.89986E+04 -1.16745E+04  1.78240E+04  4.89040E+03
  6.37051E+03  1.21334E+04 -7.83062E+03  1.10991E+04 -1.48437E+04  2.44761E+03 -1.19893E+04 -8.56078E+03
 -4.73531E+02 -1.43757E+04  6.58109E+03 -1.04286E+04  8.99571E+03 -7.41035E+02  2.26993E+03  5.33268E+03
 -6.05551E+03  2.35667E+03 -4.67826E+03 -5.10485E+03 -3.09815E+02 -1.18994E+04  8.85471E+03 -1.21142E+04
  1.39818E+04 -5.63012E+03  1.45754E+04  2.70839E+03  1.23996E+04  1.15547E+04  5.79624E+03  1.67914E+04
 -2.88288E+03  1.87682E+04 -1.20880E+04  1.16998E+04 -1.29943E+04  2.54040E+03 -9.73859E+03 -2.87968E+03
 -4.67850E+03 -4.04642E+03 -1.93896E+02  1.14424E+03 -2.40418E+03  2.34826E+03 -3.97081E+03  3.75176E+03
 -8.90895E+03 -1.65010E+02 -1.00965E+04 -7.69944E+03 -3.93420E+03 -1.31654E+04  4.23456E+03 -1.02400E+04
  8.15825E+03 -4.51937E+03  5.54694E+03  2.36291E+03  8.04699E+02  3.54650E+03 -4.16545E+03  2.17794E+02
 -4.57972E+03 -5.31042E+03 -1.06015E+03 -8.94961E+03  5.22470E+03 -9.96450E+03  1.12962E+04 -5.10885E+03
  1.36383E+04  7.85900E+02  1.03832E+04  7.81774E+03  2.08825E+03  1.07250E+04 -6.24633E+03  9.51258E+03
 -8.22638E+03  3.41472E+03 -4.13509E+03 -1.96870E+03  1.66383E+03 -1.82207E+03  5.20720E+03 -1.48892E+03
  4.76481E+03  4.12845E+03  9.14115E+02  7.80482E+03 -5.53203E+03  7.10768E+03 -9.01877E+03  2.04450E+03
 -6.51022E+03 -4.85854E+03  3.97620E+02 -7.95257E+03  4.45860E+03 -3.93942E+03  4.55305E+03  1.54870E+03
  1.04596E+03  4.30578E+03 -4.93901E+03  5.75843E+03 -6.40772E+03  3.11443E+03 -5.79128E+03 -1.96298E+03
 -3.14999E+03 -8.01557E+03  1.99566E+03 -8.52908E+03  7.65012E+03 -6.05986E+03  8.69849E+03  1.19046E+03
  6.12117E+03  7.33829E+03 -5.34951E+02  8.48397E+03 -5.89978E+03  4.69456E+03 -6.37275E+03 -4.33155E+02
 -6.02337E+03 -6.05799E+03 -1.76353E+03 -5.84662E+03  3.08559E+03 -5.69714E+03  3.53045E+03 -2.98073E+03
  3.43944E+03  6.17981E+02 -1.37430E+02  1.61147E+03  1.46231E+02 -6.17345E+02  7.88530E+02 -2.83746E+03
  5.17079E+03 -1.75591E+03  7.49259E+03  1.13854E+03  7.73177E+03  4.84342E+03  6.08209E+03  9.94658E+03
 -2.32573E+03  1.05784E+04 -9.70278E+03  8.36227E+03 -1.34364E+04  1.72108E+03 -1.01922E+04 -3.59704E+03
 -5.02796E+03 -8.07366E+03 -5.75486E+02 -6.86295E+03  1.71407E+03 -2.99578E+03  2.37531E+03 -2.42325E+03
  1.96296E+03 -1.83836E+03  3.07829E+03 -2.93651E+03  3.77935E+03 -1.58328E+03  4.29796E+03  1.85553E+01
  5.72976E+03  1.40935E+03  2.01471E+03  4.51170E+03 -1.94159E+03  4.38543E+03 -5.46728E+03  3.53466E+03
 -5.94781E+03 -6.48533E+02 -2.84658E+03 -4.90143E+03  3.01057E+02 -6.85686E+03  3.71416E+03 -7.31584E+03
  7.07084E+03 -3.90992E+03  8.77384E+03  7.05502E+02  6.70632E+03  5.58800E+03  1.03106E+03  8.00015E+03
 -3.42139E+03  7.12036E+03 -4.93978E+03  2.20475E+03 -2.31833E+03 -9.20577E+02 -9.98426E+02 -1.04343E+03
 -8.18371E+02  4.97119E+02 -1.59231E+03  2.79391E+03 -2.97259E+03  1.25961E+03 -4.97517E+03 -2.43707E+02
 -2.33649E+03 -5.22824E+03  6.07496E+02 -5.66602E+03  3.54477E+03 -5.27604E+03  5.07650E+03 -1.27099E+03
  5.84780E+03  2.52536E+03  2.93126E+03  5.06255E+03 -1.07444E+03  6.30777E+03 -3.14484E+03  3.36604E+03
 -5.62182E+03  1.19844E+03 -5.04498E+03 -3.53495E+03  3.66034E+02 -4.66160E+03  1.84212E+03 -3.50205E+03
  3.56690E+03 -1.49890E+03  2.10436E+03  6.34932E+02  1.10048E+03  1.85998E+03  1.13172E+03  5.18984E+02
  1.31999E+03  6.26623E+02  1.60681E+03  9.24338E+02  1.99117E+03  2.85283E+03  1.51922E+03  2.61277E+03
 -2.12284E+03  3.86796E+03 -3.48580E+03  5.04823E+03 -4.53134E+03  1.64734E+03 -5.83905E+03 -1.67159E+03
 -2.91137E+03 -5.25558E+03  4.52442E+02 -6.13924E+03  2.73511E+03 -3.91335E+03  4.64407E+03 -8.09971E+02
  3.68024E+03  2.28652E+03  7.08873E+02  3.13549E+03 -6.77604E+02  2.19229E+03 -2.06026E+03 -4.47379E+02
 -1.15257E+03 -1.85662E+03  1.71250E+03 -2.14306E+03  1.66125E+03 -1.32060E+03  2.14851E+03  4.07896E+02
  1.07786E+03  9.54877E+02  8.19168E+02  4.60402E+02 -9.92012E+01  6.61119E+02  1.52926E+03 -6.31159E+02
  4.61506E+02 -3.72567E+02  3.37617E+03  9.55929E+02  1.10592E+03  3.36478E+03 -3.72855E+02  4.10469E+03
 -2.23749E+03  1.89713E+03 -3.65173E+03  5.83698E+02 -2.79342E+03 -8.46313E+02 -3.92561E+02 -1.92228E+03
  2.63600E+02 -1.82288E+03  1.47467E+03 -6.17259E+02  1.37351E+03  1.76104E+03 -1.26748E+03  2.10108E+03
 -1.67172E+03  1.52902E+03 -2.01256E+03 -1.47387E+03 -1.05362E+03 -2.84518E+03 -9.43654E+00 -2.55505E+03
  1.50302E+03 -1.23249E+03  1.35983E+03 -2.86634E+02  1.82405E+03  2.89050E+02  5.02842E+02  1.84117E+03
 -7.55069E+02  3.84849E+02 -1.70299E+03 -5.54471E+02  9.63888E+02 -1.37340E+03  2.04977E+03 -1.37646E+03
  3.22710E+03  4.48279E+02  3.68820E+03  1.56661E+03  1.54745E+03  3.09422E+03 -9.15835E+02  2.57537E+03
 -3.09116E+03  4.93453E+02 -3.00241E+03  1.51774E+02 -1.54255E+03 -2.33080E+03 -5.08762E+01 -1.67063E+03
  1.94894E+03 -7.47983E+02  1.67831E+03  1.28327E+03  1.30026E+02  1.51470E+03  1.76231E+02  1.72301E+03
 -5.25664E+02  1.43951E+03 -2.88249E+02  4.76992E+02 -8.89531E+01  2.60820E+02 -8.82675E+02  6.12279E+02
 -8.43132E+02  1.05439E+03 -2.43696E+03  1.73142E+03 -2.94839E+03  4.42003E+02 -4.23607E+03 -1.56746E+03
 -1.38968E+03 -3.53141E+03  5.92427E+02 -4.19649E+03  1.54687E+03 -4.12356E+03  3.68809E+03 -1.49255E+03
  4.22977E+03  3.24159E+02  2.43569E+03  2.40412E+03 -3.38251E+02  2.75397E+03 -1.12027E+03  2.27398E+03
 -1.31495E+03  2.88660E+02 -9.42313E+02 -1.50481E+02 -6.31354E+02  1.37842E+02 -4.95100E+02 -2.75174E+02
 -8.95126E+02  3.51785E+02 -9.61748E+02  2.72773E+01 -3.57858E+01 -8.90631E+02 -6.97574E+02 -9.79534E+02
  1.20518E+03 -1.35610E+03  1.13932E+03  5.05713E+02  2.46322E+03  1.25127E+03 -1.08999E+02  2.48939E+03
 -1.46577E+03  3.06131E+03 -2.42095E+03  1.67826E+03 -3.30856E+03 -3.38009E+02 -2.31573E+03 -1.33844E+03
 -1.00762E+03 -1.96206E+03  2.51480E+02 -2.22374E+03  1.66483E+03 -3.62266E+02  1.65261E+03  2.12527E+02
  1.42708E+03  9.55164E+02  2.72707E+02  6.48055E+02 -3.75755E+02 -5.04204E+02 -2.39666E+02 -8.00780E+02
  1.83000E+02 -5.22077E+02  6.60113E+02  6.53335E+02  3.19357E+02  9.55982E+02  1.65096E+02  8.53291E+02
 -1.09858E+03  1.35940E+03 -7.71018E+02  4.08930E+02 -1.49848E+03 -9.43501E+02 -2.26878E+01 -1.77978E+03
  8.91194E+02 -1.55925E+03  9.64584E+02 -6.00386E+02  1.76130E+03 -7.20635E+02  1.09323E+03  1.49364E+03
  3.16014E+02  9.49182E+02 -3.26600E+02  1.67586E+03 -7.63186E+02  9.36278E+02 -2.50058E+02  7.72184E+01
 -3.10369E+02 -8.59433E+01 -3.66290E+02  6.69900E+02 -8.45472E+02  3.18169E+01 -1.90107E+03 -5.21151E+02
 -1.31886E+03 -9.99825E+02 -8.93047E+01 -1.81247E+03  1.00094E+03 -1.99218E+03  1.25741E+03 -2.32591E+02
  2.03854E+03  3.70027E+02 -2.31067E+01  3.45920E+02 -5.64878E+01  1.88212E+03 -7.37672E+02  1.51491E+03
