 $NMID ID='MM_0lb_SNR400_11hz_g50_86.RAW', FMTDAT='(8E13.5)'
 TRAMP=1., VOLUME=1. $END
  3.09266E+05  6.99223E+02  3.37431E+05  2.50720E+05  8.54163E+04  3.38590E+05 -1.32846E+05  2.51466E+05
 -1.90804E+05  8.40225E+04 -1.11840E+05 -3.29869E+04  7.22574E+02 -5.06296E+04  5.43735E+04 -5.05391E+02
  3.52213E+04  5.22883E+04 -1.72493E+04  7.58162E+04 -6.14190E+04  6.39737E+04 -8.55152E+04  3.22879E+04
 -8.12938E+04 -1.22273E+04 -5.71014E+04 -5.18647E+04 -1.50946E+04 -7.08154E+04  2.74107E+04 -4.64278E+04
  4.12443E+04  3.60784E+03  1.70659E+04  4.82700E+04 -3.48003E+04  4.77344E+04 -6.80424E+04  4.26512E+02
 -5.42988E+04 -5.73257E+04 -6.92222E+03 -7.84122E+04  3.45110E+04 -5.68177E+04  4.89001E+04 -1.71059E+04
  4.42349E+04  1.18469E+04  3.23377E+04  2.65008E+04  1.61744E+04  3.03578E+04 -5.56355E+03  2.77038E+04
 -2.13884E+04  1.21229E+04 -1.79098E+04 -4.67068E+03  6.75900E+03 -7.28980E+03  2.32312E+04  1.29827E+04
  7.13214E+03  3.64040E+04 -3.29590E+04  3.62657E+04 -6.43980E+04  2.20219E+03 -5.82036E+04 -4.34738E+04
 -1.25868E+04 -6.50769E+04  4.08126E+04 -4.63794E+04  6.01794E+04 -2.38045E+03  3.51265E+04  3.35320E+04
 -6.06168E+03  3.91583E+04 -3.06656E+04  1.68477E+04 -3.25706E+04 -3.10607E+03 -1.82438E+04 -1.20692E+04
 -8.81524E+03 -1.45121E+04 -1.08817E+03 -1.89876E+04  7.88378E+03 -2.29235E+04  1.56551E+04 -1.28309E+04
  1.03427E+04  5.61183E+03 -9.62130E+03  1.31958E+04 -2.30781E+04 -6.30127E+03 -8.35383E+03 -3.60790E+04
  2.37069E+04 -4.54492E+04  5.03471E+04 -2.04351E+04  4.71185E+04  2.03506E+04  1.68506E+04  4.57824E+04
 -1.67561E+04  3.55850E+04 -2.64488E+04  2.41023E+03 -1.08154E+04 -2.83952E+04  2.14515E+04 -3.58689E+04
  4.26393E+04 -1.04134E+04  3.86136E+04  2.46051E+04  2.02532E+04  4.93437E+04 -8.10706E+03  5.32966E+04
 -3.46738E+04  3.68412E+04 -4.48494E+04  1.00301E+04 -4.54548E+04 -1.72239E+04 -2.49231E+04 -4.02252E+04
  7.70136E+03 -4.03011E+04  3.32161E+04 -1.56164E+04  3.11838E+04  1.13006E+04  4.69614E+03  2.05448E+04
 -1.38743E+04  9.10151E+03 -1.05212E+04 -8.43212E+03  6.08362E+03 -1.12408E+04  1.80689E+04  5.53694E+03
  1.42884E+04  2.21786E+04 -5.06212E+03  2.68355E+04 -2.34713E+04  1.26910E+04 -2.98733E+04 -3.32200E+03
 -2.35424E+04 -1.78568E+04 -1.05361E+04 -2.36483E+04  5.44032E+03 -2.31669E+04  1.79013E+04 -2.06534E+04
  2.95336E+04 -1.37345E+04  3.50423E+04  3.90208E+03  2.66011E+04  2.22962E+04  4.13360E+03  3.96145E+04
 -1.95925E+04  3.25277E+04 -3.05739E+04  1.14010E+04 -2.19067E+04 -1.07275E+04 -4.41217E+03 -1.33203E+04
  1.14983E+02 -1.77345E+03 -6.58184E+03  7.94356E+03 -1.92818E+04  4.56765E+03 -1.90572E+04 -8.98783E+03
 -1.12131E+04 -2.21022E+04  5.42418E+03 -2.61983E+04  1.70812E+04 -1.90879E+04  2.08994E+04 -1.79500E+03
  1.35734E+04  1.49432E+04 -1.13817E+03  2.15543E+04 -1.42650E+04  1.24294E+04 -2.14170E+04 -4.81841E+03
 -1.63534E+04 -1.96900E+04 -1.53570E+03 -2.59304E+04  1.15638E+04 -2.11958E+04  2.12092E+04 -1.14795E+04
  2.00251E+04  3.55168E+02  1.47539E+04  5.10336E+03  7.97011E+03  1.29847E+03  1.12815E+04 -2.60407E+03
  2.00910E+04  2.49340E+03  2.22987E+04  1.71143E+04  1.58169E+04  3.46860E+04 -3.86285E+03  3.94604E+04
 -2.29989E+04  3.31125E+04 -3.86373E+04  1.65030E+04 -3.95434E+04 -3.02008E+03 -3.30257E+04 -2.33579E+04
 -1.27003E+04 -3.32720E+04  1.11482E+04 -2.95827E+04  2.49422E+04 -1.43534E+04  2.12823E+04  6.56378E+03
  7.19266E+03  1.67984E+04 -1.01883E+04  1.49762E+04 -1.83121E+04  2.24071E+03 -1.41110E+04 -1.12997E+04
 -9.38031E+02 -1.79475E+04  9.92043E+03 -1.25211E+04  1.14882E+04 -1.50499E+03  3.12044E+03  8.04479E+03
 -8.27628E+03  3.20210E+03 -6.96522E+03 -6.65418E+03 -1.79925E+03 -1.62557E+04  1.12375E+04 -1.74712E+04
  2.01361E+04 -1.00492E+04  2.26896E+04  2.97215E+03  2.02631E+04  1.63499E+04  9.08351E+03  2.58132E+04
 -4.76508E+03  2.71144E+04 -1.76845E+04  1.74912E+04 -1.98554E+04  3.92112E+03 -1.45118E+04 -5.32458E+03
 -6.17787E+03 -6.43669E+03 -7.83433E+02  3.13436E+02 -1.55788E+03  3.18740E+03 -6.18361E+03  5.22954E+03
 -1.33867E+04 -1.01147E+03 -1.36079E+04 -1.07162E+04 -5.48292E+03 -1.69367E+04  6.19082E+03 -1.44893E+04
  1.13688E+04 -5.41202E+03  7.86434E+03  4.08305E+03  1.98998E+02  4.90117E+03 -5.93558E+03  1.45248E+01
 -6.56246E+03 -9.98100E+03 -7.99947E+02 -1.33520E+04  7.18368E+03 -1.42762E+04  1.75729E+04 -7.83762E+03
  2.12107E+04  2.52412E+03  1.43973E+04  1.18258E+04  2.93510E+03  1.65148E+04 -8.61357E+03  1.36992E+04
 -1.07530E+04  4.06163E+03 -5.79983E+03 -2.75332E+03  2.08558E+03 -3.32417E+03  6.68876E+03 -1.03205E+03
  6.83912E+03  5.74554E+03  6.99358E+02  1.08269E+04 -7.76071E+03  1.09994E+04 -1.34005E+04  2.61608E+03
 -9.33900E+03 -7.41722E+03  7.58125E+01 -1.19526E+04  6.86641E+03 -5.60178E+03  7.65545E+03  2.96792E+03
  2.26276E+03  8.25467E+03 -6.78363E+03  1.01365E+04 -1.14820E+04  4.09842E+03 -1.16587E+04 -4.25770E+03
 -6.84454E+03 -1.37081E+04  2.60078E+03 -1.54452E+04  1.35261E+04 -8.59946E+03  1.43583E+04  2.20711E+03
  9.04397E+03  1.10819E+04 -1.05831E+03  1.35298E+04 -1.01429E+04  7.20964E+03 -1.05042E+04 -1.43833E+03
 -9.59618E+03 -8.06468E+03 -1.23416E+03 -9.90165E+03  5.76977E+03 -8.41494E+03  6.80531E+03 -3.27377E+03
  3.97101E+03  1.68900E+03 -1.25457E+03  2.39492E+03 -4.46955E+02 -2.49818E+03  1.78939E+03 -6.56102E+03
  8.67125E+03 -3.66715E+03  1.23076E+04  2.17394E+03  1.28167E+04  9.02971E+03  7.72971E+03  1.73482E+04
 -4.46588E+03  1.96173E+04 -1.70311E+04  1.42426E+04 -2.19465E+04  2.72856E+03 -1.70775E+04 -6.84096E+03
 -8.29986E+03 -1.47605E+04 -7.47633E+02 -1.18101E+04  4.22707E+03 -5.84825E+03  3.60092E+03 -4.95649E+03
  3.80517E+03 -3.02284E+03  3.60971E+03 -3.61209E+03  5.18461E+03 -3.32671E+03  6.84896E+03 -8.91303E+02
  8.29520E+03  1.98426E+03  4.62119E+03  7.97778E+03 -3.03569E+03  9.05985E+03 -9.31758E+03  7.48010E+03
 -1.24373E+04 -1.46871E+03 -7.09995E+03 -8.39437E+03 -4.99834E+02 -1.17888E+04  7.18463E+03 -1.34423E+04
  1.34835E+04 -7.52263E+03  1.59690E+04  2.03725E+03  1.10086E+04  1.09311E+04  1.91539E+03  1.43719E+04
 -5.05642E+03  1.18450E+04 -7.75808E+03  4.54487E+03 -5.56141E+03 -1.59691E+03 -2.16598E+03 -1.40585E+03
 -8.04821E+02  4.83209E+02 -1.26728E+03  2.94490E+03 -5.11068E+03  8.15873E+02 -8.65903E+03 -7.18897E+02
 -5.91654E+03 -8.20325E+03  7.69188E+02 -1.20206E+04  6.94823E+03 -1.07373E+04  1.13026E+04 -2.93846E+03
  1.16431E+04  5.84237E+03  5.18204E+03  1.00176E+04 -2.47014E+03  1.18711E+04 -8.16794E+03  6.44543E+03
 -1.05512E+04  9.86213E+02 -8.54011E+03 -6.67180E+03 -1.08737E+03 -9.71997E+03  5.36274E+03 -6.97384E+03
  7.82986E+03 -2.38269E+03  5.34534E+03  2.22856E+03  1.44323E+03  3.08534E+03  9.19089E+02  1.69087E+03
  2.81392E+03  1.42220E+03  2.13713E+03  1.53958E+03  3.61115E+03  4.33369E+03  2.67318E+03  6.33383E+03
 -2.65794E+03  8.78849E+03 -7.75628E+03  9.42844E+03 -1.18140E+04  2.75999E+03 -1.26773E+04 -4.45138E+03
 -5.46654E+03 -1.16616E+04  1.78618E+03 -1.26264E+04  6.91927E+03 -8.34080E+03  9.91666E+03 -3.03633E+03
  6.38462E+03  4.03124E+03  1.17362E+03  6.61438E+03 -3.27696E+03  4.72157E+03 -4.39876E+03 -5.98853E+02
 -2.87782E+03 -4.47358E+03  3.24303E+03 -5.16163E+03  4.45422E+03 -2.26241E+03  4.02460E+03  1.68493E+03
  2.06099E+03  3.01272E+03  4.20960E+02  1.85390E+03 -1.01758E+03  1.73691E+03  1.41379E+03 -4.00263E+02
  1.65499E+03 -1.26176E+03  4.63195E+03  1.70342E+03  2.85680E+03  6.33462E+03 -1.10338E+03  8.09010E+03
 -5.04849E+03  6.06069E+03 -7.12764E+03  1.42465E+03 -6.81198E+03 -2.73620E+03 -2.62947E+03 -4.23435E+03
  8.33972E+02 -3.86241E+03  2.61391E+03 -1.66312E+03  2.49087E+03  2.31956E+03 -1.39729E+03  3.36274E+03
 -4.77402E+03  1.06981E+03 -5.08157E+03 -3.38387E+03 -3.23285E+03 -5.91345E+03  1.29791E+03 -6.87172E+03
  3.90829E+03 -3.83967E+03  4.75718E+03 -6.67042E+02  4.50607E+03  2.08179E+03  5.22335E+02  3.04139E+03
 -1.48018E+03  8.16999E+02 -2.29700E+03 -2.13176E+03  1.33620E+03 -4.97589E+03  5.90363E+03 -4.15787E+03
  6.84930E+03  8.84683E+02  7.97088E+03  4.33950E+03  2.06654E+03  7.90041E+03 -2.60406E+03  6.83168E+03
 -6.02192E+03  2.73023E+03 -6.06208E+03 -1.39835E+03 -2.67786E+03 -5.12584E+03  9.82310E+02 -4.34028E+03
  4.01176E+03 -2.57285E+03  3.12411E+03  1.06592E+03  1.41232E+03  4.79811E+03 -9.51817E+02  4.55134E+03
 -1.63307E+03  2.76033E+03 -1.43305E+03  1.10540E+03 -1.02862E+03  5.22007E+02 -6.01244E+02  2.15435E+03
 -1.90788E+03  2.36870E+03 -5.14702E+03  1.92326E+03 -7.95941E+03  1.68694E+02 -7.93348E+03 -3.96807E+03
 -4.56768E+03 -9.11497E+03  2.33991E+03 -1.08777E+04  6.44244E+03 -7.76606E+03  9.79129E+03 -3.32397E+03
  9.37881E+03  1.52433E+03  6.14560E+03  7.35876E+03  7.77719E+02  7.25422E+03 -2.37276E+03  6.31749E+03
 -3.97845E+03  1.83970E+03 -2.53559E+03 -9.00957E+02 -3.11706E+02 -9.09160E+02 -8.22617E+02 -8.60069E+00
 -1.49450E+03  1.67932E+02 -1.80028E+03 -4.24161E+02  3.50246E+01 -2.25049E+03 -1.08060E+03 -2.73582E+03
  3.34202E+03 -1.57091E+03  3.87228E+03  5.75513E+02  5.13290E+03  4.52329E+03  1.22656E+03  7.27056E+03
 -4.21115E+03  8.01177E+03 -7.07776E+03  4.74180E+03 -8.68677E+03 -4.70690E+02 -6.73418E+03 -5.69101E+03
 -3.03022E+03 -7.32339E+03  1.93373E+03 -6.67943E+03  4.07552E+03 -3.18099E+03  5.09923E+03  3.16101E+02
  2.31041E+03  2.46861E+03  9.15434E+01  2.03021E+03 -1.32711E+03 -3.09582E+01 -6.34856E+01 -1.53394E+03
  3.00606E+03 -5.00980E+02  2.60623E+03  7.12962E+02  2.56989E+03  2.78754E+03  8.85755E+02  3.43296E+03
 -3.27339E+03  3.81840E+03 -5.22902E+03  5.42551E+02 -4.56016E+03 -2.98437E+03 -6.53470E+02 -5.71475E+03
  3.85971E+03 -4.82247E+03  4.92434E+03 -1.20035E+03  5.26257E+03  1.78628E+03  2.55973E+03  4.05294E+03
  1.00188E+03  5.25281E+03 -1.47499E+03  4.41920E+03 -3.80767E+03  2.05106E+03 -2.81014E+03  1.01476E+03
 -5.59317E+02  1.38257E+02 -1.48912E+03  6.75175E+02 -3.11032E+03  1.56420E+03 -3.08018E+03 -5.48809E+02
 -3.02953E+03 -2.06327E+03 -1.30657E+03 -4.89394E+03  2.95305E+03 -4.88421E+03  4.36763E+03 -2.34688E+03
  4.01075E+03  1.07338E+03  2.19325E+03  2.88206E+03 -5.58268E+02  4.15728E+03 -3.62077E+03  3.44753E+03
