 $NMID ID='MM_0lb_SNR400_13hz_g55_65.RAW', FMTDAT='(8E13.5)'
 TRAMP=1., VOLUME=1. $END
  3.09484E+05  1.61789E+02  3.37927E+05  2.50421E+05  8.40257E+04  3.37543E+05 -1.32540E+05  2.50931E+05
 -1.91244E+05  8.37891E+04 -1.12070E+05 -3.31926E+04  4.79199E+02 -5.08715E+04  5.39928E+04 -1.82588E+02
  3.52705E+04  5.28483E+04 -1.70483E+04  7.56028E+04 -6.13836E+04  6.35143E+04 -8.34826E+04  3.17964E+04
 -8.09469E+04 -1.11427E+04 -5.76722E+04 -5.28991E+04 -1.54222E+04 -7.00049E+04  2.76419E+04 -4.65551E+04
  4.10706E+04  4.01709E+03  1.59723E+04  4.78146E+04 -3.45976E+04  4.73191E+04 -6.64791E+04 -3.76187E+02
 -5.39273E+04 -5.72054E+04 -7.16564E+03 -7.78810E+04  3.45118E+04 -5.52506E+04  4.88607E+04 -1.80065E+04
  4.36181E+04  1.18229E+04  3.24780E+04  2.58459E+04  1.57378E+04  2.99877E+04 -5.56954E+03  2.78280E+04
 -2.14874E+04  1.21710E+04 -1.84636E+04 -5.47575E+03  6.30998E+03 -7.49776E+03  2.29071E+04  1.26127E+04
  7.36862E+03  3.61791E+04 -3.31993E+04  3.58393E+04 -6.44037E+04  2.40071E+03 -5.81229E+04 -4.33248E+04
 -1.21805E+04 -6.40380E+04  4.03360E+04 -4.61497E+04  5.96426E+04 -2.25486E+03  3.52886E+04  3.30880E+04
 -5.67034E+03  3.71791E+04 -3.07770E+04  1.76686E+04 -3.10861E+04 -4.40688E+03 -1.78478E+04 -1.13637E+04
 -8.65741E+03 -1.41909E+04 -1.26383E+02 -1.86521E+04  7.59906E+03 -2.30551E+04  1.57378E+04 -1.33397E+04
  1.06977E+04  5.35623E+03 -9.42638E+03  1.23511E+04 -2.25002E+04 -5.18422E+03 -8.26908E+03 -3.48641E+04
  2.35330E+04 -4.51135E+04  4.96632E+04 -1.96241E+04  4.63290E+04  1.96626E+04  1.61785E+04  4.53469E+04
 -1.60957E+04  3.44786E+04 -2.64547E+04  2.22215E+03 -9.79684E+03 -2.85047E+04  2.19075E+04 -3.50698E+04
  4.20876E+04 -1.00112E+04  3.70077E+04  2.45125E+04  1.98718E+04  4.83632E+04 -7.98123E+03  5.23736E+04
 -3.28825E+04  3.55004E+04 -4.38828E+04  1.04828E+04 -4.39087E+04 -1.74046E+04 -2.38960E+04 -3.92703E+04
  7.17461E+03 -3.93902E+04  3.23086E+04 -1.58127E+04  3.02574E+04  1.10857E+04  4.32330E+03  1.98854E+04
 -1.37646E+04  8.77797E+03 -1.11506E+04 -7.88736E+03  5.80310E+03 -1.10527E+04  1.82368E+04  5.93633E+03
  1.44238E+04  2.23419E+04 -5.70438E+03  2.56547E+04 -2.28388E+04  1.29991E+04 -2.88792E+04 -3.92266E+03
 -2.28581E+04 -1.79228E+04 -1.00277E+04 -2.21180E+04  3.80618E+03 -2.21511E+04  1.71950E+04 -1.97344E+04
  2.82761E+04 -1.32100E+04  3.37943E+04  3.42845E+03  2.51682E+04  2.07847E+04  4.06425E+03  3.83073E+04
 -1.77394E+04  3.23270E+04 -2.87324E+04  1.02956E+04 -2.07751E+04 -9.99810E+03 -4.61505E+03 -1.28673E+04
  1.59147E+03 -2.58839E+03 -5.64945E+03  7.24677E+03 -1.78070E+04  5.48271E+03 -1.79036E+04 -7.77513E+03
 -1.07876E+04 -2.05944E+04  5.43192E+03 -2.48347E+04  1.62492E+04 -1.75361E+04  1.97730E+04 -1.49234E+03
  1.19185E+04  1.36815E+04 -1.27783E+03  2.10253E+04 -1.42934E+04  1.12469E+04 -2.03508E+04 -3.98171E+03
 -1.55021E+04 -1.82711E+04 -2.44433E+03 -2.49927E+04  1.14539E+04 -2.01244E+04  2.04169E+04 -1.06356E+04
  1.97871E+04  5.25156E+01  1.36808E+04  4.53978E+03  7.34900E+03  1.12842E+03  1.03244E+04 -1.82463E+03
  1.91642E+04  2.43354E+03  2.12523E+04  1.57931E+04  1.39435E+04  3.31854E+04 -3.37696E+03  3.71624E+04
 -2.13806E+04  3.03726E+04 -3.56250E+04  1.51369E+04 -3.72143E+04 -2.68644E+03 -3.07782E+04 -2.14253E+04
 -1.27923E+04 -3.04797E+04  1.00290E+04 -2.61863E+04  2.35321E+04 -1.33216E+04  2.07429E+04  6.25833E+03
  7.14876E+03  1.48859E+04 -9.13729E+03  1.30874E+04 -1.72467E+04  2.91682E+03 -1.29211E+04 -1.04146E+04
  3.26230E+02 -1.62310E+04  8.85860E+03 -1.23545E+04  1.09434E+04 -1.16779E+03  2.65514E+03  7.89391E+03
 -8.08681E+03  3.66924E+03 -7.35419E+03 -5.67665E+03 -8.39919E+02 -1.50198E+04  9.79476E+03 -1.66243E+04
  1.88038E+04 -9.17790E+03  2.04171E+04  3.61920E+03  1.76107E+04  1.49417E+04  8.15059E+03  2.29006E+04
 -3.43903E+03  2.48462E+04 -1.54990E+04  1.56862E+04 -1.74064E+04  4.03254E+03 -1.20150E+04 -3.88202E+03
 -5.57765E+03 -4.82773E+03 -4.24633E+02  3.68239E+02 -2.45230E+03  2.79993E+03 -5.78606E+03  4.36297E+03
 -1.12461E+04 -1.42029E+03 -1.22794E+04 -1.02587E+04 -4.93148E+03 -1.54238E+04  5.52906E+03 -1.26629E+04
  1.04270E+04 -4.65087E+03  7.58044E+03  3.69496E+03  8.93171E+01  5.12500E+03 -5.63168E+03  4.84831E+01
 -5.74523E+03 -7.74485E+03 -4.07923E+02 -1.17284E+04  7.43382E+03 -1.30762E+04  1.57658E+04 -6.63690E+03
  1.81333E+04  2.21016E+03  1.30258E+04  1.05618E+04  3.10303E+03  1.44243E+04 -7.87588E+03  1.24788E+04
 -9.82598E+03  3.59225E+03 -4.89010E+03 -2.06880E+03  1.21407E+03 -3.19469E+03  6.82693E+03 -8.06054E+02
  5.76954E+03  5.75700E+03  1.49851E+03  1.04672E+04 -6.13534E+03  8.69081E+03 -1.21602E+04  2.12316E+03
 -8.68074E+03 -6.01557E+03  5.57186E+02 -1.05550E+04  6.34416E+03 -5.35938E+03  6.60096E+03  2.50386E+03
  2.12922E+03  6.58947E+03 -6.49950E+03  8.37201E+03 -1.01025E+04  4.31875E+03 -9.92925E+03 -3.07723E+03
 -6.00506E+03 -1.12567E+04  2.74110E+03 -1.30381E+04  1.09359E+04 -7.52398E+03  1.22919E+04  1.80322E+03
  7.61821E+03  9.52593E+03 -8.92374E+02  1.11843E+04 -8.08743E+03  6.77431E+03 -9.06631E+03 -9.43890E+02
 -8.12644E+03 -7.77375E+03 -1.63924E+03 -8.47198E+03  4.83968E+03 -7.18120E+03  6.02247E+03 -3.39447E+03
  3.95138E+03  7.76720E+02 -4.85431E+02  1.10653E+03 -1.27142E+02 -2.24068E+03  1.63417E+03 -4.56258E+03
  7.87869E+03 -2.97135E+03  1.10733E+04  1.65180E+03  1.08006E+04  7.48605E+03  7.72890E+03  1.43599E+04
 -2.70879E+03  1.66763E+04 -1.42054E+04  1.17085E+04 -1.79653E+04  1.52847E+03 -1.49657E+04 -5.88144E+03
 -7.22091E+03 -1.23161E+04 -7.61350E+02 -1.05836E+04  3.21854E+03 -5.64642E+03  3.37367E+03 -4.07848E+03
  3.29967E+03 -2.60416E+03  3.51570E+03 -3.41733E+03  4.82463E+03 -2.22942E+03  6.37376E+03 -8.98748E+02
  7.62322E+03  3.04171E+03  2.80008E+03  6.83923E+03 -2.03737E+03  7.26346E+03 -7.38145E+03  5.55940E+03
 -9.59970E+03 -1.02571E+03 -5.77750E+03 -6.81088E+03 -9.05539E+02 -1.06046E+04  5.41612E+03 -1.05219E+04
  1.03572E+04 -6.09993E+03  1.35725E+04  1.35545E+03  9.46869E+03  8.74367E+03  1.12001E+03  1.15794E+04
 -5.09123E+03  1.04864E+04 -7.34809E+03  3.81821E+03 -4.45830E+03 -1.03813E+03 -1.98588E+03 -1.26941E+03
 -9.13706E+02 -1.95354E+02 -1.76693E+03  2.12729E+03 -4.06656E+03  1.94605E+03 -7.29425E+03 -8.77472E+02
 -4.63075E+03 -6.77160E+03  6.08034E+02 -1.00550E+04  5.44401E+03 -8.98890E+03  8.70242E+03 -3.26501E+03
  9.50043E+03  4.52002E+03  4.62021E+03  8.48027E+03 -1.85848E+03  1.01803E+04 -7.03796E+03  6.05975E+03
 -8.70152E+03  1.17539E+03 -7.12746E+03 -5.32844E+03 -7.48349E+02 -7.93310E+03  4.06187E+03 -5.35190E+03
  5.85563E+03 -2.18381E+03  3.89695E+03  1.47584E+03  1.23204E+03  2.44643E+03  6.42134E+02  1.40255E+03
  2.56370E+03  8.64954E+02  2.84963E+03  1.98420E+03  2.54500E+03  3.96119E+03  2.31227E+03  5.09806E+03
 -2.13517E+03  7.48388E+03 -5.69411E+03  8.35731E+03 -8.89202E+03  2.01663E+03 -9.28295E+03 -2.80613E+03
 -4.62065E+03 -9.22355E+03  1.15358E+03 -1.07849E+04  5.70484E+03 -6.37824E+03  7.05324E+03 -1.77351E+03
  6.69238E+03  3.79638E+03  1.43471E+03  4.89254E+03 -1.88231E+03  3.07818E+03 -3.46175E+03 -3.47002E+01
 -2.23010E+03 -3.59818E+03  2.50819E+03 -4.04154E+03  3.94923E+03 -1.46182E+03  3.56121E+03  7.45218E+02
  2.80969E+03  1.40540E+03  8.81020E+02  1.05330E+03 -3.43773E+02  1.96049E+03  1.85023E+03 -5.35188E+02
  1.43368E+03 -1.91639E+02  3.32449E+03  1.97674E+03  1.75253E+03  4.21928E+03 -1.50927E+03  6.31837E+03
 -4.07420E+03  4.16189E+03 -5.92794E+03  9.62076E+02 -4.82705E+03 -1.59775E+03 -1.48252E+03 -3.34709E+03
  7.33720E+02 -3.11787E+03  2.33227E+03 -1.57170E+03  1.82860E+03  1.34211E+03 -6.91954E+02  3.05989E+03
 -3.67683E+03  2.01011E+03 -3.63458E+03 -2.70055E+03 -1.63096E+03 -5.33498E+03  1.44192E+03 -5.16995E+03
  2.28498E+03 -2.48020E+03  3.18999E+03 -6.50117E+01  3.03716E+03  4.77881E+02  1.36640E+03  2.13112E+03
 -1.82670E+03  5.15490E+02 -2.63152E+03 -1.89928E+03  8.43418E+02 -3.68793E+03  4.27641E+03 -2.93951E+03
  4.72038E+03  5.45636E+02  5.12316E+03  4.02966E+03  2.59828E+03  5.37716E+03 -1.73386E+03  5.19215E+03
 -3.72856E+03  2.30874E+03 -4.24339E+03 -1.35658E+03 -2.94910E+03 -3.30067E+03  6.22146E+02 -2.57095E+03
  3.40657E+03 -1.84884E+03  2.46533E+03  1.91142E+03  9.21074E+02  2.88324E+03  2.27930E+02  3.09363E+03
 -1.12970E+03  1.76133E+03 -1.44987E+03  8.58223E+02  8.49283E+01  5.32689E+02 -1.11245E+03  1.31834E+03
 -9.93606E+02  1.90193E+03 -3.89579E+03  1.95670E+03 -4.98250E+03 -1.01209E+02 -5.86045E+03 -2.78086E+03
 -2.97168E+03 -6.96402E+03  1.52551E+03 -7.27081E+03  4.31027E+03 -6.13015E+03  7.32450E+03 -2.16288E+03
  7.03596E+03  4.98325E+02  4.08687E+03  4.66855E+03  2.03749E+02  5.20998E+03 -1.85339E+03  4.46893E+03
 -2.18499E+03  1.92440E+03 -2.16918E+03 -9.22806E+02 -5.71597E+02 -1.88101E+02 -7.34422E+02  6.61081E+02
 -1.88100E+03  7.74003E+02 -7.24277E+02 -3.88006E+01  5.17627E+02 -1.35764E+03 -3.90003E+02 -1.77941E+03
  2.15788E+03 -1.75184E+03  2.79484E+03  1.73557E+02  3.88015E+03  2.48780E+03  3.06710E+02  4.83054E+03
 -1.96746E+03  5.82997E+03 -5.23837E+03  3.23473E+03 -6.43354E+03 -7.02075E+02 -4.85661E+03 -3.69414E+03
 -2.30682E+03 -4.55286E+03  1.13780E+03 -4.82371E+03  3.13150E+03 -2.50669E+03  3.32513E+03 -2.19635E+02
  2.25334E+03  1.45027E+03 -8.29351E+01  1.25977E+03 -1.15304E+03 -3.61667E+02  6.57215E+02 -4.80583E+02
  1.84450E+03 -7.19669E+02  1.46524E+03  3.67999E+02  8.78279E+02  2.15234E+03 -5.66812E+01  2.21564E+03
 -1.87966E+03  1.86070E+03 -3.15769E+03  9.03808E+02 -2.36851E+03 -2.53081E+03 -4.89972E+02 -3.94297E+03
  3.02819E+03 -2.72929E+03  2.75654E+03 -7.40345E+02  2.96516E+03  4.18327E+02  1.53317E+03  3.08745E+03
  5.53986E+02  2.69046E+03 -1.34607E+03  1.96347E+03 -2.14805E+03  1.95141E+03 -1.22466E+03  6.24361E+02
 -1.56631E+02  1.54659E+02 -1.34867E+03  4.46967E+02 -1.46724E+03  5.47128E+02 -2.02184E+03 -1.86372E+02
 -2.09948E+03 -1.24447E+03 -7.10549E+02 -2.88579E+03  9.61403E+02 -3.44965E+03  2.60992E+03 -1.30939E+03
  2.89004E+03  8.26321E+02  1.15241E+03  1.98906E+03  7.69454E+02  3.21217E+03 -1.48677E+03  1.98558E+03
