 $NMID ID='MM_0lb_SNR400_14hz_g45_49.RAW', FMTDAT='(8E13.5)'
 TRAMP=1., VOLUME=1. $END
  3.09490E+05  1.02800E+03  3.37183E+05  2.50878E+05  8.40827E+04  3.38312E+05 -1.32054E+05  2.50989E+05
 -1.90866E+05  8.30439E+04 -1.11319E+05 -3.29315E+04  1.67368E+03 -5.03852E+04  5.37479E+04  4.73563E+02
  3.53396E+04  5.21877E+04 -1.68185E+04  7.59988E+04 -6.07972E+04  6.38962E+04 -8.37252E+04  3.20762E+04
 -8.07481E+04 -1.18569E+04 -5.68004E+04 -5.16231E+04 -1.52179E+04 -6.95109E+04  2.76377E+04 -4.59243E+04
  4.03368E+04  3.78115E+03  1.64793E+04  4.78791E+04 -3.43209E+04  4.65537E+04 -6.68231E+04 -5.85894E+01
 -5.39213E+04 -5.66109E+04 -6.70764E+03 -7.65772E+04  3.36855E+04 -5.50103E+04  4.78519E+04 -1.71551E+04
  4.23907E+04  1.13389E+04  3.18358E+04  2.56986E+04  1.55719E+04  2.94667E+04 -5.82989E+03  2.74162E+04
 -2.18148E+04  1.21664E+04 -1.89748E+04 -4.61813E+03  4.98383E+03 -7.52701E+03  2.24104E+04  1.18970E+04
  6.84989E+03  3.52308E+04 -3.20059E+04  3.52048E+04 -6.32229E+04  2.83547E+03 -5.70537E+04 -4.29314E+04
 -1.25297E+04 -6.30135E+04  3.95122E+04 -4.46357E+04  5.77871E+04 -2.13002E+03  3.37511E+04  3.26333E+04
 -6.03638E+03  3.58478E+04 -2.96180E+04  1.53697E+04 -3.04370E+04 -4.53221E+03 -1.62993E+04 -1.04220E+04
 -8.71795E+03 -1.26932E+04 -7.64684E+02 -1.71407E+04  7.85659E+03 -2.26440E+04  1.53525E+04 -1.35628E+04
  1.18940E+04  4.88854E+03 -8.00512E+03  1.27729E+04 -2.11757E+04 -4.49992E+03 -8.28617E+03 -3.32464E+04
  2.28548E+04 -4.33020E+04  4.80238E+04 -1.96502E+04  4.47180E+04  1.95590E+04  1.54200E+04  4.37161E+04
 -1.55534E+04  3.25054E+04 -2.53825E+04  1.41968E+03 -9.78736E+03 -2.80490E+04  2.16464E+04 -3.32026E+04
  4.06678E+04 -8.66846E+03  3.53069E+04  2.29622E+04  1.81093E+04  4.60913E+04 -8.00869E+03  4.99024E+04
 -3.17698E+04  3.35846E+04 -4.17648E+04  9.53464E+03 -4.24498E+04 -1.65494E+04 -2.37381E+04 -3.73752E+04
  7.10734E+03 -3.77886E+04  3.10320E+04 -1.47157E+04  2.88332E+04  1.14405E+04  3.97677E+03  1.95614E+04
 -1.30600E+04  8.74958E+03 -1.03959E+04 -7.70667E+03  5.60479E+03 -1.07764E+04  1.79581E+04  5.93229E+03
  1.34667E+04  2.20787E+04 -5.82895E+03  2.45035E+04 -2.22178E+04  1.09490E+04 -2.76561E+04 -4.87922E+03
 -2.02253E+04 -1.79091E+04 -8.46326E+03 -2.02008E+04  3.65682E+03 -1.90738E+04  1.61855E+04 -1.76778E+04
  2.50574E+04 -1.28128E+04  3.16990E+04  2.57533E+03  2.42365E+04  1.97018E+04  3.77334E+03  3.57214E+04
 -1.79242E+04  2.97205E+04 -2.75295E+04  1.02267E+04 -2.02556E+04 -1.06980E+04 -4.35322E+03 -1.35750E+04
  1.24978E+03 -3.41203E+03 -4.46589E+03  6.37037E+03 -1.59545E+04  5.65621E+03 -1.57984E+04 -6.61999E+03
 -1.03142E+04 -1.83419E+04  4.78383E+03 -2.19700E+04  1.52044E+04 -1.65466E+04  1.76855E+04 -2.02021E+03
  1.10695E+04  1.30871E+04 -1.38081E+03  1.84529E+04 -1.28954E+04  1.08602E+04 -1.86567E+04 -3.29667E+03
 -1.33255E+04 -1.64827E+04 -1.24881E+03 -2.30270E+04  1.02746E+04 -1.82322E+04  1.91483E+04 -9.45034E+03
  1.73705E+04 -7.37198E+01  1.24276E+04  4.02168E+03  6.28471E+03  7.06989E+02  9.33059E+03 -1.64364E+03
  1.75444E+04  3.39111E+03  1.85856E+04  1.48059E+04  1.24931E+04  2.99357E+04 -2.33953E+03  3.38970E+04
 -1.95924E+04  2.64542E+04 -3.03464E+04  1.33608E+04 -3.27836E+04 -2.40834E+03 -2.68671E+04 -1.88539E+04
 -1.16015E+04 -2.67235E+04  9.53338E+03 -2.38368E+04  2.13692E+04 -1.31747E+04  1.88926E+04  5.14859E+03
  7.41311E+03  1.41175E+04 -9.14512E+03  1.25800E+04 -1.53039E+04  2.44329E+03 -1.22562E+04 -1.04888E+04
 -3.79876E+02 -1.48821E+04  7.94212E+03 -1.14543E+04  9.72241E+03 -1.49806E+03  2.03760E+03  7.16239E+03
 -7.33845E+03  2.52896E+03 -5.48983E+03 -6.08219E+03 -9.02222E+02 -1.30865E+04  9.23057E+03 -1.37676E+04
  1.62998E+04 -7.18867E+03  1.75414E+04  3.41235E+03  1.46181E+04  1.32215E+04  6.92573E+03  1.94786E+04
 -3.03336E+03  2.13477E+04 -1.36832E+04  1.37785E+04 -1.53824E+04  3.27960E+03 -1.10892E+04 -3.41021E+03
 -4.96430E+03 -5.17634E+03 -1.12987E+03  1.31339E+03 -2.22075E+03  2.51167E+03 -4.55308E+03  4.23976E+03
 -9.98848E+03 -5.59505E+02 -1.11515E+04 -9.12985E+03 -4.67548E+03 -1.41278E+04  4.98610E+03 -1.09868E+04
  8.85886E+03 -4.29611E+03  6.68986E+03  3.29930E+03  2.95034E+02  4.42804E+03 -4.74623E+03 -1.45957E+02
 -5.42408E+03 -7.02780E+03 -9.69850E+02 -1.04686E+04  5.44977E+03 -1.11462E+04  1.36047E+04 -6.22243E+03
  1.56357E+04  1.38634E+03  1.17840E+04  8.67463E+03  2.24401E+03  1.29278E+04 -6.79406E+03  1.10266E+04
 -8.62639E+03  3.43064E+03 -4.43146E+03 -1.82206E+03  1.20835E+03 -3.18601E+03  6.34791E+03 -6.95589E+02
  5.33174E+03  4.18124E+03  1.62454E+03  9.06069E+03 -6.26907E+03  8.06619E+03 -1.03932E+04  3.14319E+03
 -6.79042E+03 -5.29123E+03  3.38493E+02 -9.14286E+03  5.15002E+03 -3.86669E+03  6.45989E+03  2.06749E+03
  1.06781E+03  5.62499E+03 -5.75349E+03  7.16256E+03 -8.46036E+03  3.36487E+03 -7.95766E+03 -2.28650E+03
 -4.91304E+03 -9.50643E+03  1.81552E+03 -1.06896E+04  9.49161E+03 -7.01198E+03  1.05929E+04  1.35341E+03
  6.49641E+03  7.68125E+03 -7.06843E+02  1.06975E+04 -7.51672E+03  6.16460E+03 -8.17011E+03 -8.55297E+02
 -7.17890E+03 -7.17971E+03 -1.94108E+03 -7.67301E+03  4.21315E+03 -6.55846E+03  4.71131E+03 -2.43615E+03
  4.20473E+03  8.72788E+02 -4.50947E+02  1.57792E+03 -2.01173E+02 -1.21479E+03  6.77936E+02 -3.54125E+03
  6.54165E+03 -2.22087E+03  8.84731E+03  1.32642E+03  9.23534E+03  5.54132E+03  6.57945E+03  1.25724E+04
 -2.62777E+03  1.37552E+04 -1.17373E+04  1.04014E+04 -1.50952E+04  2.06131E+03 -1.27883E+04 -5.47787E+03
 -6.21953E+03 -9.82597E+03 -4.72398E+02 -8.69546E+03  3.30157E+03 -4.47192E+03  3.04143E+03 -3.41581E+03
  1.89279E+03 -1.87176E+03  2.66154E+03 -2.76931E+03  4.19603E+03 -1.62382E+03  5.13369E+03  7.27759E+01
  6.92939E+03  6.23957E+02  2.41029E+03  5.23815E+03 -1.97417E+03  5.75659E+03 -7.24376E+03  4.54624E+03
 -8.21631E+03 -8.25622E+02 -4.44946E+03 -5.34841E+03 -3.97475E+02 -8.59901E+03  5.01033E+03 -8.77094E+03
  9.53760E+03 -4.70909E+03  1.05880E+04  1.40138E+03  7.95080E+03  7.65989E+03  8.98354E+02  9.23293E+03
 -3.76272E+03  7.88076E+03 -5.60946E+03  2.42754E+03 -3.98362E+03 -1.06722E+03 -8.45014E+02 -1.23117E+03
 -1.14595E+03 -2.23399E+02 -1.23941E+03  2.28765E+03 -3.33695E+03  1.64813E+03 -5.89522E+03 -1.00397E+03
 -3.67052E+03 -5.71172E+03  6.43700E+02 -7.56736E+03  4.84019E+03 -7.41901E+03  6.56051E+03 -2.01087E+03
  7.44268E+03  3.89268E+03  3.85989E+03  7.40082E+03 -1.16553E+03  7.87299E+03 -5.50280E+03  4.20404E+03
 -7.07530E+03  1.20461E+03 -6.01824E+03 -4.34722E+03 -4.97520E+02 -6.32988E+03  3.24439E+03 -4.59336E+03
  4.31441E+03 -2.74896E+03  3.36135E+03  9.53980E+02  7.43064E+02  2.25160E+03  1.02819E+03  7.60958E+02
  2.22184E+03  8.52046E+02  1.82958E+03  9.28979E+02  2.48373E+03  3.21162E+03  2.39210E+03  3.80666E+03
 -1.42911E+03  6.06355E+03 -5.16701E+03  6.27043E+03 -7.15923E+03  1.30494E+03 -7.93201E+03 -1.96357E+03
 -3.32233E+03 -7.46120E+03  6.48162E+02 -8.93839E+03  4.16898E+03 -5.16824E+03  5.76084E+03 -1.26155E+03
  4.85186E+03  3.46483E+03  1.07791E+03  4.37248E+03 -1.45464E+03  2.65269E+03 -2.61361E+03 -1.31744E+02
 -1.49026E+03 -3.32184E+03  1.70124E+03 -3.51554E+03  3.15088E+03 -1.69279E+03  2.61381E+03  6.67127E+02
  1.40032E+03  1.48862E+03  1.26460E+03  9.81278E+02 -8.73418E+02  1.44526E+03  1.25914E+03 -8.42375E+02
  2.41215E+02 -1.54824E+01  3.14317E+03  1.51808E+03  1.38069E+03  3.60728E+03 -6.68971E+02  5.67637E+03
 -3.04992E+03  2.66798E+03 -5.02965E+03  1.29610E+03 -3.65454E+03 -1.27481E+03 -7.75370E+02 -2.60396E+03
  4.50119E+02 -2.41444E+03  2.15202E+03 -1.69278E+03  1.60702E+03  1.65371E+03 -9.68812E+02  2.36313E+03
 -3.21337E+03  1.27220E+03 -3.09931E+03 -2.38585E+03 -1.41742E+03 -3.90745E+03  3.48710E+02 -3.63593E+03
  1.23061E+03 -2.07565E+03  2.42979E+03 -5.96539E+02  2.87901E+03  4.19403E+02  8.00607E+02  2.46615E+03
 -1.03843E+03  1.08848E+03 -1.28622E+03 -7.73301E+02  1.28364E+03 -3.00167E+03  3.31662E+03 -2.10951E+03
  3.24150E+03  1.62066E+02  5.13519E+03  2.56390E+03  1.85241E+03  4.85545E+03 -1.30048E+03  4.21071E+03
 -3.37359E+03  1.74134E+03 -3.60061E+03  7.07395E+01 -1.50784E+03 -2.89520E+03  6.57513E+02 -2.35475E+03
  2.83821E+03 -1.04169E+03  2.73283E+03  1.64083E+03  5.50034E+02  2.51960E+03 -1.05299E+02  2.15404E+03
 -1.26487E+03  1.29272E+03 -1.31495E+03  1.95436E+02  4.28164E+02  1.66806E+02 -9.76784E+02  1.60082E+03
 -1.20004E+03  1.64169E+03 -3.70379E+03  1.07523E+03 -3.67839E+03  1.65606E+02 -5.06492E+03 -2.63939E+03
 -1.57341E+03 -5.58565E+03  9.30310E+02 -6.30287E+03  3.02085E+03 -4.49190E+03  6.37272E+03 -2.39581E+03
  6.02231E+03  1.20569E+03  3.17675E+03  4.17519E+03  1.50745E+02  3.61968E+03 -8.13873E+02  2.79397E+03
 -2.59540E+03  1.29943E+03 -8.68766E+02 -1.72312E+02 -3.47224E+02  8.55685E+00 -6.40922E+02 -4.41945E+02
 -7.24655E+02  6.76728E+02 -1.49147E+03 -2.07738E+02  1.31305E+02 -1.19171E+03  3.49114E+02 -1.33185E+03
  2.52283E+03 -1.24728E+03  2.26541E+03  3.59332E+01  3.15877E+03  2.37659E+03 -1.68257E+02  3.87328E+03
 -2.18846E+03  5.16273E+03 -4.14622E+03  2.25321E+03 -5.07035E+03 -1.01941E+03 -3.63279E+03 -3.16450E+03
 -2.10046E+03 -4.12975E+03  1.21283E+03 -3.81658E+03  1.37238E+03 -2.04544E+03  2.32962E+03  2.89085E+02
  2.13938E+03  1.47231E+03 -4.94588E+02  8.33569E+02 -8.46498E+02  2.19097E+02 -3.83512E+02 -7.73753E+02
  1.42836E+03 -3.85590E+02  1.57618E+03  8.03640E+02  1.08031E+03  1.13515E+03  9.63919E+00  1.19030E+03
 -2.08873E+03  1.98171E+03 -1.80931E+03 -1.29783E+01 -2.35876E+03 -1.27584E+03  2.33771E+02 -2.95983E+03
  1.89011E+03 -2.43790E+03  2.86613E+03 -8.09312E+02  2.72033E+03  6.43593E+01  1.88248E+03  2.84599E+03
  6.16192E+02  2.33736E+03 -8.77517E+02  1.95444E+03 -1.09407E+03  1.57400E+03 -1.05065E+03 -3.75246E+02
 -6.51917E+02 -1.30845E+02 -1.13747E+03 -2.97390E+02 -1.04955E+03 -2.72500E+02 -2.27983E+03 -8.97177E+01
 -1.87445E+03 -8.86021E+02  5.01558E+00 -2.70352E+03  9.59506E+02 -2.49765E+03  2.12796E+03 -5.21135E+02
  1.91191E+03 -3.18218E+02  1.18363E+03  1.51654E+03 -6.16000E+02  2.91165E+03 -1.80024E+03  1.72036E+03
