 $NMID ID='MM_0lb_SNR400_11hz_g60_38.RAW', FMTDAT='(8E13.5)'
 TRAMP=1., VOLUME=1. $END
  3.09658E+05  2.31991E+02  3.37690E+05  2.50920E+05  8.52328E+04  3.38818E+05 -1.32758E+05  2.51784E+05
 -1.90624E+05  8.33143E+04 -1.12086E+05 -3.24545E+04 -3.00405E+02 -5.04799E+04  5.29965E+04 -1.68648E+02
  3.54438E+04  5.27081E+04 -1.65431E+04  7.57247E+04 -6.12553E+04  6.42837E+04 -8.52630E+04  3.26273E+04
 -8.24718E+04 -1.21438E+04 -5.80205E+04 -5.23503E+04 -1.48358E+04 -6.97353E+04  2.88072E+04 -4.67353E+04
  4.06326E+04  4.27920E+03  1.69633E+04  4.85153E+04 -3.44647E+04  4.69804E+04 -6.72127E+04  1.07940E+03
 -5.47660E+04 -5.72939E+04 -7.79528E+03 -7.94440E+04  3.48043E+04 -5.68013E+04  4.94477E+04 -1.82651E+04
  4.47813E+04  1.14713E+04  3.27367E+04  2.65396E+04  1.59857E+04  3.00617E+04 -5.33039E+03  2.72985E+04
 -2.26757E+04  1.19318E+04 -1.86894E+04 -5.47263E+03  7.32290E+03 -7.45199E+03  2.36943E+04  1.24657E+04
  7.42441E+03  3.66473E+04 -3.41349E+04  3.67394E+04 -6.52186E+04  2.12649E+03 -5.90463E+04 -4.41923E+04
 -1.24953E+04 -6.59952E+04  4.13316E+04 -4.75961E+04  6.09740E+04 -2.51681E+03  3.60821E+04  3.43475E+04
 -5.68902E+03  3.93121E+04 -3.20395E+04  1.81984E+04 -3.28797E+04 -2.99691E+03 -1.86797E+04 -1.20770E+04
 -9.19275E+03 -1.46684E+04 -4.36568E+02 -1.91473E+04  8.25757E+03 -2.33732E+04  1.62032E+04 -1.33749E+04
  1.06634E+04  5.53037E+03 -9.65570E+03  1.29387E+04 -2.32760E+04 -6.03011E+03 -9.02445E+03 -3.70351E+04
  2.51176E+04 -4.57376E+04  5.10982E+04 -2.05479E+04  4.75909E+04  2.03186E+04  1.66256E+04  4.66634E+04
 -1.67012E+04  3.64285E+04 -2.68486E+04  2.25825E+03 -1.13900E+04 -2.96268E+04  2.19298E+04 -3.61543E+04
  4.41017E+04 -1.03825E+04  3.93981E+04  2.44560E+04  2.04899E+04  5.06445E+04 -7.84082E+03  5.61591E+04
 -3.44139E+04  3.70565E+04 -4.75499E+04  1.08050E+04 -4.65440E+04 -1.83205E+04 -2.52186E+04 -4.16066E+04
  7.10745E+03 -4.14335E+04  3.40289E+04 -1.66777E+04  3.11151E+04  1.09746E+04  5.37087E+03  2.02824E+04
 -1.42028E+04  9.94110E+03 -1.08937E+04 -7.47727E+03  5.62951E+03 -1.11939E+04  1.77389E+04  6.27981E+03
  1.45014E+04  2.24516E+04 -5.90169E+03  2.74727E+04 -2.31946E+04  1.42825E+04 -3.10721E+04 -2.81140E+03
 -2.49256E+04 -1.85224E+04 -1.13277E+04 -2.47913E+04  4.98713E+03 -2.47881E+04  1.92810E+04 -2.19241E+04
  3.08308E+04 -1.39178E+04  3.71054E+04  5.18402E+03  2.75064E+04  2.41890E+04  4.11466E+03  4.05306E+04
 -1.99470E+04  3.31536E+04 -3.02776E+04  1.16403E+04 -2.22726E+04 -1.08024E+04 -4.89846E+03 -1.35969E+04
  1.06884E+03 -1.57879E+03 -7.53699E+03  7.17740E+03 -1.99285E+04  5.24923E+03 -1.93547E+04 -9.28693E+03
 -1.17799E+04 -2.32456E+04  6.14593E+03 -2.68250E+04  1.75634E+04 -1.89992E+04  2.20438E+04 -1.95362E+03
  1.33901E+04  1.46694E+04 -1.05109E+03  2.23507E+04 -1.50918E+04  1.31738E+04 -2.32000E+04 -4.76095E+03
 -1.67752E+04 -2.02819E+04 -1.84927E+03 -2.76759E+04  1.23587E+04 -2.25075E+04  2.19584E+04 -1.10253E+04
  2.10635E+04 -2.00583E+02  1.55178E+04  4.02541E+03  8.22674E+03  5.71623E+02  1.13458E+04 -1.69668E+03
  2.10150E+04  3.16572E+03  2.39283E+04  1.76964E+04  1.69004E+04  3.60785E+04 -3.11432E+03  4.21589E+04
 -2.41908E+04  3.51079E+04 -4.01279E+04  1.80029E+04 -4.28764E+04 -2.27851E+03 -3.46414E+04 -2.48031E+04
 -1.36361E+04 -3.53639E+04  1.27652E+04 -3.13104E+04  2.63499E+04 -1.51523E+04  2.35392E+04  7.78737E+03
  7.86220E+03  1.80825E+04 -1.13592E+04  1.47030E+04 -1.94571E+04  2.22507E+03 -1.43370E+04 -1.13081E+04
 -6.24891E+02 -1.90953E+04  1.03212E+04 -1.38376E+04  1.26715E+04 -1.68124E+03  3.00893E+03  8.11143E+03
 -7.92504E+03  3.98727E+03 -8.58616E+03 -6.96894E+03 -1.43374E+03 -1.66309E+04  1.11689E+04 -1.91293E+04
  2.15544E+04 -1.10979E+04  2.43927E+04  3.81693E+03  2.14314E+04  1.67941E+04  1.07158E+04  2.73060E+04
 -4.62523E+03  2.95771E+04 -1.83250E+04  1.79962E+04 -2.06820E+04  4.30467E+03 -1.46405E+04 -5.44229E+03
 -5.97070E+03 -8.10828E+03 -7.97596E+02  5.60098E+02 -2.84707E+03  2.92402E+03 -6.46186E+03  5.15609E+03
 -1.36251E+04 -6.75930E+02 -1.37916E+04 -1.12775E+04 -5.77208E+03 -1.81701E+04  5.71662E+03 -1.43327E+04
  1.20054E+04 -5.98244E+03  9.24909E+03  4.38924E+03 -4.31846E+02  5.86390E+03 -7.09358E+03 -5.31127E+02
 -7.13844E+03 -9.40040E+03 -6.99895E+02 -1.45790E+04  7.42677E+03 -1.58230E+04  1.84225E+04 -8.30731E+03
  2.19794E+04  2.23047E+03  1.56024E+04  1.26403E+04  3.25312E+03  1.73453E+04 -9.30003E+03  1.45974E+04
 -1.13220E+04  4.36475E+03 -5.92166E+03 -3.06901E+03  1.89042E+03 -4.16090E+03  7.23200E+03 -1.26869E+03
  6.56876E+03  5.96927E+03  1.17929E+03  1.21005E+04 -8.92821E+03  1.14005E+04 -1.39450E+04  2.61996E+03
 -9.88006E+03 -8.07793E+03 -3.75826E+02 -1.23057E+04  8.27179E+03 -7.03751E+03  8.48308E+03  3.26873E+03
  2.64197E+03  8.88713E+03 -7.75494E+03  1.11357E+04 -1.28490E+04  4.28583E+03 -1.29820E+04 -4.01142E+03
 -6.76855E+03 -1.47372E+04  3.31823E+03 -1.62789E+04  1.40538E+04 -1.07322E+04  1.52190E+04  2.85513E+03
  9.93602E+03  1.14133E+04 -1.36494E+03  1.38565E+04 -1.05221E+04  8.75291E+03 -1.20973E+04 -1.55479E+03
 -1.02395E+04 -9.53578E+03 -1.97852E+03 -1.13466E+04  5.85016E+03 -8.84215E+03  6.84099E+03 -3.46124E+03
  3.55247E+03  1.49262E+03 -5.71652E+02  1.96583E+03 -8.07680E+02 -3.27832E+03  2.19445E+03 -6.43293E+03
  1.06004E+04 -4.49798E+03  1.43445E+04  1.15095E+03  1.38162E+04  9.59882E+03  9.20518E+03  1.80744E+04
 -4.62633E+03  2.19056E+04 -1.82392E+04  1.51046E+04 -2.27332E+04  3.33248E+03 -1.87120E+04 -8.69796E+03
 -1.00864E+04 -1.54140E+04 -9.82612E+02 -1.27100E+04  5.12389E+03 -7.06979E+03  4.64111E+03 -4.84882E+03
  3.20867E+03 -3.65078E+03  3.39597E+03 -3.03457E+03  5.44850E+03 -3.57756E+03  7.32715E+03 -1.12982E+03
  9.59913E+03  2.95742E+03  4.90097E+03  8.58486E+03 -2.62911E+03  1.05675E+04 -9.72723E+03  7.58434E+03
 -1.26576E+04 -1.43915E+03 -7.79572E+03 -8.91708E+03 -9.95784E+02 -1.39759E+04  7.49404E+03 -1.37905E+04
  1.44057E+04 -8.32819E+03  1.77605E+04  2.42852E+03  1.23416E+04  1.17562E+04  1.18681E+03  1.53703E+04
 -6.13830E+03  1.24806E+04 -8.66900E+03  4.25525E+03 -5.69981E+03 -1.54891E+03 -2.78766E+03 -6.38764E+02
 -1.69269E+03  2.17959E+02 -1.71099E+03  1.96569E+03 -5.14791E+03  1.82113E+03 -8.86765E+03 -1.26577E+03
 -5.82273E+03 -8.50054E+03  3.40767E+02 -1.28545E+04  8.26355E+03 -1.17825E+04  1.28561E+04 -3.26732E+03
  1.20410E+04  6.48009E+03  5.58336E+03  1.13035E+04 -2.84249E+03  1.24325E+04 -8.61829E+03  7.78704E+03
 -1.15250E+04  5.08536E+02 -9.07328E+03 -7.25924E+03 -3.23270E+02 -1.02401E+04  4.61585E+03 -7.74758E+03
  7.67696E+03 -3.22279E+03  6.27916E+03  3.06161E+03  2.09895E+03  3.62584E+03  8.11558E+02  2.18102E+03
  2.86679E+03  1.36362E+03  3.31746E+03  1.80598E+03  3.29783E+03  4.04086E+03  3.03895E+03  7.23577E+03
 -2.86748E+03  9.67623E+03 -9.17860E+03  1.06248E+04 -1.22617E+04  3.76303E+03 -1.27577E+04 -5.87100E+03
 -6.29569E+03 -1.36908E+04  1.77424E+03 -1.43259E+04  7.77856E+03 -8.87665E+03  1.06937E+04 -2.16310E+03
  8.24872E+03  4.64009E+03  2.13187E+03  6.41913E+03 -2.98178E+03  4.07464E+03 -4.69582E+03 -8.98612E+02
 -2.22597E+03 -5.60282E+03  2.58739E+03 -4.73362E+03  5.33561E+03 -2.74080E+03  5.31256E+03  1.05515E+03
  3.29348E+03  2.65322E+03  1.44007E+03  1.60318E+03 -9.00459E+02  1.83667E+03  1.00636E+03 -5.94950E+02
  1.95538E+03 -1.89829E+02  5.35190E+03  1.90501E+03  3.20522E+03  6.36504E+03 -7.96674E+02  9.37719E+03
 -6.20982E+03  5.41882E+03 -8.59069E+03  2.09179E+03 -7.38106E+03 -2.60094E+03 -2.65801E+03 -5.24329E+03
  3.44172E+02 -5.45582E+03  3.33573E+03 -1.92046E+03  2.54625E+03  2.36919E+03 -1.00234E+03  3.17429E+03
 -4.63365E+03  2.64062E+03 -5.22093E+03 -2.91128E+03 -3.75390E+03 -6.82101E+03  4.11178E+02 -7.16415E+03
  4.34878E+03 -4.25215E+03  5.44222E+03 -4.71274E+02  3.98588E+03  1.76920E+03  1.26425E+03  3.82072E+03
 -2.70810E+03  4.79918E+02 -2.49136E+03 -2.20790E+03  1.15708E+03 -5.19697E+03  6.65465E+03 -3.71125E+03
  7.03934E+03 -3.20739E+02  7.11515E+03  4.89515E+03  2.59151E+03  8.20567E+03 -2.99686E+03  7.52848E+03
 -6.83016E+03  3.21023E+03 -7.22364E+03 -9.25818E+02 -3.83665E+03 -4.92400E+03  1.19519E+03 -4.12445E+03
  5.18258E+03 -2.69245E+03  4.18565E+03  2.46919E+03  1.48061E+03  4.03467E+03 -1.08218E+03  3.55796E+03
 -1.71549E+03  2.94466E+03 -2.35370E+03  1.12551E+03 -7.54999E+02  8.23084E+02 -1.02797E+03  2.27808E+03
 -2.03399E+03  3.23059E+03 -5.70771E+03  2.83895E+03 -7.75306E+03  1.31067E+02 -8.08498E+03 -5.79531E+03
 -5.02714E+03 -1.00822E+04  1.94349E+03 -1.08902E+04  7.40309E+03 -9.89773E+03  1.08672E+04 -4.31939E+03
  1.00829E+04  1.80555E+03  5.86267E+03  7.06927E+03  3.14258E+02  7.50593E+03 -3.55711E+03  5.13245E+03
 -5.23916E+03  1.81331E+03 -2.45502E+03 -1.08552E+03 -9.49325E+02 -9.84643E+02 -8.46771E+02  6.63839E+02
 -2.08064E+03 -1.78787E+02 -2.02619E+03 -9.51618E+01  2.23495E+02 -2.07387E+03  7.62130E+02 -2.95576E+03
  3.22843E+03 -2.79121E+03  3.75922E+03  4.48511E+01  5.75586E+03  3.99292E+03  1.09974E+03  7.62349E+03
 -3.54761E+03  9.11865E+03 -8.39445E+03  5.45232E+03 -9.55780E+03 -8.03275E+02 -6.71204E+03 -5.98072E+03
 -3.06361E+03 -7.31324E+03  1.72459E+03 -7.29280E+03  5.01127E+03 -3.74022E+03  4.85151E+03  3.07743E+02
  3.30086E+03  1.68627E+03 -5.35868E+02  1.41220E+03 -1.18275E+03  4.99270E+01  5.08423E+02 -1.98892E+03
  3.06229E+03 -1.71263E+03  2.38635E+03  5.69059E+02  1.30005E+03  2.78801E+03  2.31455E+02  3.07688E+03
 -3.47635E+03  3.55393E+03 -5.49641E+03  6.21413E+02 -4.25228E+03 -4.27177E+03 -1.79269E+02 -6.08106E+03
  3.90113E+03 -4.85174E+03  5.18532E+03 -1.90693E+03  5.45022E+03  1.32161E+03  3.21407E+03  4.29848E+03
  6.42894E+02  4.97310E+03 -1.96110E+03  3.94873E+03 -3.88741E+03  2.46279E+03 -3.95834E+03  7.78264E+02
 -1.46457E+03  1.12957E+02 -1.43860E+03  5.08302E+02 -2.96036E+03  8.04058E+02 -4.56492E+03 -1.13946E+02
 -4.28929E+03 -3.05111E+03 -1.62612E+03 -5.43491E+03  2.03611E+03 -5.89768E+03  4.39863E+03 -2.83753E+03
  4.79605E+03  2.34733E+02  2.09299E+03  4.32900E+03 -6.02913E+02  5.27489E+03 -4.45892E+03  3.29208E+03
