 $NMID ID='MM_0lb_SNR400_8hz_g45_10.RAW', FMTDAT='(8E13.5)'
 TRAMP=1., VOLUME=1. $END
  3.09238E+05  1.43618E+02  3.37705E+05  2.50553E+05  8.48427E+04  3.38859E+05 -1.32020E+05  2.52199E+05
 -1.90431E+05  8.36000E+04 -1.13098E+05 -3.24000E+04  4.88257E+02 -5.07121E+04  5.40114E+04 -6.44091E+02
  3.48734E+04  5.36411E+04 -1.68248E+04  7.59239E+04 -6.12129E+04  6.37966E+04 -8.44530E+04  3.23726E+04
 -8.32539E+04 -1.14884E+04 -5.78929E+04 -5.23670E+04 -1.49433E+04 -7.12328E+04  2.78648E+04 -4.72170E+04
  4.10555E+04  3.53427E+03  1.71676E+04  4.86626E+04 -3.50264E+04  4.92386E+04 -6.78346E+04 -5.12894E+01
 -5.46160E+04 -5.80301E+04 -7.87877E+03 -7.95134E+04  3.51050E+04 -5.70899E+04  4.99138E+04 -1.80242E+04
  4.55809E+04  1.08117E+04  3.24919E+04  2.66529E+04  1.57251E+04  3.07796E+04 -6.99187E+03  2.83230E+04
 -2.27460E+04  1.15706E+04 -1.80148E+04 -5.60936E+03  7.12103E+03 -7.13853E+03  2.33832E+04  1.48815E+04
  6.86124E+03  3.80134E+04 -3.33781E+04  3.66362E+04 -6.67154E+04  3.16208E+03 -5.91618E+04 -4.52312E+04
 -1.26875E+04 -6.64103E+04  4.14529E+04 -4.87800E+04  6.11827E+04 -1.75574E+03  3.69813E+04  3.47034E+04
 -5.14512E+03  4.01013E+04 -3.17420E+04  1.93680E+04 -3.34604E+04 -2.86528E+03 -1.95531E+04 -1.20667E+04
 -9.80937E+03 -1.57947E+04  3.17058E+02 -2.02193E+04  7.82481E+03 -2.23944E+04  1.60319E+04 -1.30243E+04
  1.04300E+04  6.55015E+03 -1.10217E+04  1.24054E+04 -2.33934E+04 -7.33551E+03 -8.22897E+03 -3.77749E+04
  2.48347E+04 -4.73555E+04  5.23515E+04 -2.15538E+04  4.96086E+04  1.97994E+04  1.80205E+04  4.68444E+04
 -1.75636E+04  3.55594E+04 -2.69638E+04  2.11492E+03 -1.22111E+04 -2.95765E+04  2.18310E+04 -3.75431E+04
  4.56108E+04 -1.14631E+04  4.08687E+04  2.57979E+04  2.22980E+04  5.14762E+04 -8.90308E+03  5.60624E+04
 -3.61544E+04  3.82925E+04 -4.85096E+04  1.09541E+04 -4.87542E+04 -1.87720E+04 -2.63008E+04 -4.20167E+04
  7.86295E+03 -4.29112E+04  3.41199E+04 -1.76516E+04  3.28134E+04  1.12142E+04  5.22631E+03  2.04372E+04
 -1.40992E+04  9.58366E+03 -1.10376E+04 -6.81649E+03  5.52180E+03 -1.12534E+04  1.87810E+04  5.22536E+03
  1.42614E+04  2.20163E+04 -5.87233E+03  2.67819E+04 -2.35667E+04  1.39673E+04 -3.21327E+04 -2.64048E+03
 -2.60743E+04 -1.86088E+04 -1.18495E+04 -2.59847E+04  4.71751E+03 -2.54424E+04  1.99552E+04 -2.34028E+04
  3.32588E+04 -1.38414E+04  3.84987E+04  5.54619E+03  2.79741E+04  2.39501E+04  4.49762E+03  4.22746E+04
 -2.02083E+04  3.48212E+04 -3.13204E+04  1.21149E+04 -2.27738E+04 -9.32764E+03 -4.27324E+03 -1.30761E+04
  1.15149E+03 -5.89162E+02 -7.91541E+03  9.27387E+03 -2.09292E+04  4.24927E+03 -2.01158E+04 -1.01313E+04
 -1.23517E+04 -2.33754E+04  6.83255E+03 -2.87693E+04  1.96096E+04 -2.00504E+04  2.25461E+04 -1.14849E+03
  1.33236E+04  1.61461E+04 -1.28977E+03  2.29863E+04 -1.75976E+04  1.37200E+04 -2.44062E+04 -4.40953E+03
 -1.74029E+04 -2.13416E+04 -2.30150E+03 -2.84247E+04  1.26337E+04 -2.40508E+04  2.39658E+04 -1.21988E+04
  2.24692E+04  1.75379E+02  1.62604E+04  4.80162E+03  9.03733E+03  2.02364E+03  1.27915E+04 -1.86610E+03
  2.24796E+04  3.07943E+03  2.63475E+04  1.88282E+04  1.80995E+04  3.84592E+04 -2.00420E+03  4.52920E+04
 -2.55304E+04  3.78169E+04 -4.27074E+04  1.94253E+04 -4.57487E+04 -3.11556E+03 -3.78713E+04 -2.65973E+04
 -1.54783E+04 -3.86461E+04  1.41124E+04 -3.27634E+04  2.88208E+04 -1.60998E+04  2.41877E+04  7.99212E+03
  7.93366E+03  1.93873E+04 -1.26199E+04  1.64432E+04 -2.08494E+04  1.85378E+03 -1.55087E+04 -1.36659E+04
 -1.52594E+03 -1.99443E+04  1.17099E+04 -1.42493E+04  1.39015E+04 -1.05423E+03  3.87183E+03  1.01122E+04
 -9.40038E+03  4.13093E+03 -1.00330E+04 -7.12316E+03 -1.93671E+03 -1.91656E+04  1.19457E+04 -2.09065E+04
  2.33698E+04 -1.19793E+04  2.75059E+04  3.56476E+03  2.36077E+04  1.92429E+04  1.08768E+04  3.06726E+04
 -6.45344E+03  3.29329E+04 -2.12403E+04  2.04519E+04 -2.36861E+04  3.32899E+03 -1.59672E+04 -6.07824E+03
 -6.55517E+03 -7.38310E+03 -9.30807E+02  6.41714E+02 -2.71480E+03  3.35888E+03 -7.87275E+03  4.92938E+03
 -1.44540E+04 -7.19703E+02 -1.52342E+04 -1.27151E+04 -5.90227E+03 -1.98756E+04  7.40902E+03 -1.61322E+04
  1.39882E+04 -6.18716E+03  9.45707E+03  4.03111E+03 -5.38707E+02  6.08311E+03 -8.17957E+03 -6.78563E+01
 -8.53655E+03 -1.12496E+04 -8.07701E+02 -1.55862E+04  8.79120E+03 -1.77710E+04  2.15891E+04 -9.61113E+03
  2.41044E+04  2.39677E+03  1.80253E+04  1.46826E+04  3.63016E+03  1.98221E+04 -9.74742E+03  1.56862E+04
 -1.28602E+04  4.49023E+03 -7.35693E+03 -2.75085E+03  2.20183E+03 -4.14802E+03  8.60868E+03 -9.02084E+02
  7.21443E+03  7.26123E+03  2.04708E+03  1.30008E+04 -9.49789E+03  1.28726E+04 -1.61970E+04  2.88241E+03
 -1.11317E+04 -8.48124E+03 -6.21025E+02 -1.38648E+04  8.18983E+03 -7.34430E+03  9.57551E+03  4.87617E+03
  3.17426E+03  1.06557E+04 -8.18815E+03  1.23443E+04 -1.48060E+04  5.07860E+03 -1.49530E+04 -5.43463E+03
 -8.66696E+03 -1.63786E+04  3.34153E+03 -1.93410E+04  1.64279E+04 -1.07954E+04  1.72447E+04  3.29372E+03
  1.14915E+04  1.36859E+04 -8.81276E+02  1.64290E+04 -1.20297E+04  8.85367E+03 -1.34563E+04 -1.03075E+03
 -1.05577E+04 -1.07661E+04 -1.35776E+03 -1.23935E+04  6.67670E+03 -1.03711E+04  8.90733E+03 -3.90507E+03
  5.12150E+03  2.17617E+03 -1.22760E+03  1.44732E+03 -1.39014E+03 -4.22975E+03  2.54628E+03 -8.31076E+03
  1.17724E+04 -4.82096E+03  1.69765E+04  1.50813E+03  1.64826E+04  1.14630E+04  1.06026E+04  2.19749E+04
 -5.99130E+03  2.61888E+04 -2.11958E+04  1.97456E+04 -2.74324E+04  2.36070E+03 -2.24734E+04 -9.23786E+03
 -1.09408E+04 -1.83966E+04 -1.97069E+02 -1.60429E+04  6.00559E+03 -1.00430E+04  5.81309E+03 -4.41631E+03
  4.43012E+03 -2.92670E+03  4.65528E+03 -4.11710E+03  6.66769E+03 -4.12701E+03  8.79536E+03 -2.29920E+03
  1.16025E+04  2.29714E+03  6.32889E+03  1.02838E+04 -2.24583E+03  1.17007E+04 -1.20515E+04  9.64458E+03
 -1.66340E+04 -1.06164E+03 -1.06808E+04 -1.06685E+04 -1.82471E+03 -1.71575E+04  9.60292E+03 -1.69022E+04
  1.73324E+04 -9.28823E+03  2.14317E+04  2.51215E+03  1.41642E+04  1.53641E+04  2.53138E+03  1.88771E+04
 -7.44110E+03  1.57469E+04 -1.18487E+04  4.50083E+03 -7.57909E+03 -1.92029E+03 -2.83266E+03 -2.84739E+03
 -1.85119E+03 -6.79160E+02 -2.75068E+03  2.31492E+03 -6.28618E+03  2.25566E+03 -1.09171E+04 -1.83658E+03
 -8.86395E+03 -1.02601E+04 -3.34394E+02 -1.55113E+04  9.81161E+03 -1.48827E+04  1.59356E+04 -5.12466E+03
  1.60045E+04  7.67531E+03  7.47601E+03  1.40459E+04 -3.59075E+03  1.71060E+04 -1.08554E+04  9.75904E+03
 -1.52856E+04  2.55016E+02 -1.13132E+04 -1.03050E+04 -3.85895E+02 -1.40089E+04  7.53844E+03 -9.63664E+03
  9.71475E+03 -2.67968E+03  6.68938E+03  2.27988E+03  2.00021E+03  4.85678E+03  1.64928E+03  2.46094E+03
  3.31244E+03  6.93642E+02  4.09728E+03  1.98976E+03  4.31296E+03  5.56713E+03  3.54660E+03  9.43966E+03
 -3.17165E+03  1.28259E+04 -1.07108E+04  1.21217E+04 -1.71504E+04  2.64121E+03 -1.80338E+04 -7.75455E+03
 -8.56786E+03 -1.60157E+04  2.16663E+03 -1.79275E+04  9.69945E+03 -1.16997E+04  1.39177E+04 -3.41392E+03
  1.07967E+04  5.27009E+03  2.54097E+03  1.05604E+04 -4.87540E+03  5.98719E+03 -6.54941E+03 -8.69880E+02
 -3.11393E+03 -7.04604E+03  4.21057E+03 -7.02134E+03  7.25737E+03 -3.12173E+03  7.48983E+03  2.44413E+03
  4.50234E+03  3.05015E+03  1.36740E+03  3.15862E+03 -5.25467E+02  2.67274E+03  1.70805E+03 -7.65567E+02
  3.11261E+03 -1.44928E+03  7.20652E+03  2.58148E+03  4.41469E+03  8.53901E+03 -1.46731E+03  1.18774E+04
 -8.44476E+03  8.43556E+03 -1.14062E+04  2.37889E+03 -9.45069E+03 -3.80932E+03 -3.67656E+03 -7.20426E+03
  7.49410E+02 -6.32833E+03  4.18220E+03 -3.07477E+03  4.39715E+03  2.28047E+03 -2.06511E+03  4.86771E+03
 -7.03534E+03  3.00866E+03 -8.30723E+03 -4.05899E+03 -4.33165E+03 -1.05020E+04  7.75952E+02 -9.25562E+03
  5.66897E+03 -6.16418E+03  7.26813E+03 -5.06714E+02  5.82274E+03  2.14378E+03  6.02312E+02  4.97276E+03
 -3.58076E+03  1.57240E+03 -4.09780E+03 -2.95254E+03  1.63953E+03 -7.05422E+03  8.57596E+03 -5.95725E+03
  1.08705E+04  5.50602E+02  1.02022E+04  7.46585E+03  3.74144E+03  1.15105E+04 -4.15229E+03  1.11662E+04
 -9.66951E+03  4.70523E+03 -1.00871E+04 -1.17851E+03 -5.28689E+03 -6.57818E+03  2.07797E+03 -7.73215E+03
  7.43936E+03 -3.69159E+03  5.24497E+03  2.46259E+03  1.79302E+03  6.31159E+03 -5.65672E+02  5.87224E+03
 -3.24745E+03  3.34959E+03 -2.33268E+03  6.84940E+02 -1.29149E+03  8.38148E+02 -2.19318E+03  2.33264E+03
 -2.57791E+03  5.15306E+03 -7.21147E+03  2.94036E+03 -1.09594E+04  2.26793E+02 -1.34440E+04 -7.19698E+03
 -6.69074E+03 -1.50666E+04  2.86384E+03 -1.79165E+04  1.14355E+04 -1.38632E+04  1.66057E+04 -5.08247E+03
  1.53538E+04  3.24525E+03  9.55507E+03  1.01976E+04  7.34725E+02  1.27473E+04 -4.48726E+03  8.66298E+03
 -6.90174E+03  3.25849E+03 -4.22117E+03 -1.52467E+03 -1.41214E+03 -1.22791E+03  2.74614E+02 -5.97905E+02
 -1.72194E+03  1.37449E+03 -2.00559E+03 -2.04822E+03 -3.89553E+02 -3.35784E+03  4.73595E+02 -4.67684E+03
  5.87952E+03 -3.54771E+03  7.42435E+03 -3.43592E+02  8.75328E+03  6.73438E+03  2.37998E+03  1.15375E+04
 -5.35910E+03  1.30596E+04 -1.32462E+04  7.47596E+03 -1.52231E+04 -9.24295E+02 -1.12575E+04 -8.59743E+03
 -4.67760E+03 -1.24747E+04  3.06204E+03 -1.11970E+04  7.72605E+03 -5.68677E+03  8.35301E+03  7.95790E+01
  4.89938E+03  4.44656E+03 -5.71382E+02  3.59150E+03 -1.11128E+03 -3.78899E+02 -5.99841E+01 -3.03751E+03
  3.18006E+03 -1.82505E+03  5.47049E+03  9.74398E+02  3.81777E+03  4.61643E+03  4.63748E+02  6.74095E+03
 -5.92223E+03  4.92226E+03 -8.06160E+03  1.30242E+01 -7.16833E+03 -4.92613E+03 -1.37012E+03 -1.02456E+04
  5.58211E+03 -9.25044E+03  1.01579E+04 -2.30964E+03  9.11579E+03  2.58308E+03  6.55428E+03  7.21775E+03
  1.28718E+03  8.04421E+03 -3.44880E+03  6.00314E+03 -4.55093E+03  4.20237E+03 -4.23315E+03  1.44103E+03
 -1.63156E+03 -8.59949E+02 -2.30460E+03  1.35215E+03 -4.68992E+03  1.46406E+03 -5.98273E+03 -1.41125E+03
 -6.09855E+03 -4.15519E+03 -1.84283E+03 -8.79670E+03  3.47172E+03 -8.74581E+03  7.56399E+03 -4.07965E+03
  8.46465E+03  1.21440E+03  5.56626E+03  6.00910E+03 -8.77213E+02  8.55822E+03 -6.17896E+03  5.14967E+03
