 $NMID ID='MM_0lb_SNR400_13hz_g45_11.RAW', FMTDAT='(8E13.5)'
 TRAMP=1., VOLUME=1. $END
  3.10002E+05  2.08243E+02  3.38433E+05  2.50715E+05  8.50420E+04  3.38202E+05 -1.32613E+05  2.51240E+05
 -1.90718E+05  8.29631E+04 -1.11440E+05 -3.29055E+04  4.88402E+02 -5.11587E+04  5.35803E+04 -1.32468E+02
  3.49079E+04  5.25779E+04 -1.69271E+04  7.60188E+04 -6.05232E+04  6.37454E+04 -8.48742E+04  3.23160E+04
 -8.10697E+04 -1.14584E+04 -5.73842E+04 -5.06068E+04 -1.53669E+04 -6.96336E+04  2.80898E+04 -4.58596E+04
  4.02003E+04  3.12272E+03  1.62010E+04  4.79940E+04 -3.49156E+04  4.76758E+04 -6.68546E+04 -2.53384E+02
 -5.33512E+04 -5.72910E+04 -6.95618E+03 -7.66233E+04  3.35669E+04 -5.50809E+04  4.88186E+04 -1.70224E+04
  4.35127E+04  1.10198E+04  3.16319E+04  2.55737E+04  1.63622E+04  2.95770E+04 -5.94615E+03  2.69895E+04
 -2.19438E+04  1.20926E+04 -1.81415E+04 -5.19101E+03  6.13700E+03 -7.39028E+03  2.17811E+04  1.18094E+04
  6.99689E+03  3.51361E+04 -3.25521E+04  3.55683E+04 -6.30866E+04  2.18417E+03 -5.77057E+04 -4.32404E+04
 -1.20879E+04 -6.35144E+04  3.95137E+04 -4.57357E+04  5.86492E+04 -1.50209E+03  3.49299E+04  3.26788E+04
 -6.50800E+03  3.68075E+04 -3.04121E+04  1.63370E+04 -2.98982E+04 -4.61672E+03 -1.69074E+04 -1.12405E+04
 -8.46890E+03 -1.34410E+04 -2.13195E+02 -1.82012E+04  7.45115E+03 -2.33718E+04  1.50432E+04 -1.34992E+04
  1.15504E+04  5.34880E+03 -8.32248E+03  1.27853E+04 -2.10597E+04 -4.73434E+03 -9.06816E+03 -3.40248E+04
  2.30801E+04 -4.40613E+04  4.86328E+04 -1.94515E+04  4.61329E+04  1.97521E+04  1.55740E+04  4.51067E+04
 -1.60330E+04  3.37771E+04 -2.60645E+04  2.09082E+03 -1.07453E+04 -2.77193E+04  2.05558E+04 -3.45576E+04
  4.17148E+04 -9.50074E+03  3.63880E+04  2.40137E+04  1.79021E+04  4.72234E+04 -7.93233E+03  5.07052E+04
 -3.12950E+04  3.47889E+04 -4.23719E+04  1.00119E+04 -4.29115E+04 -1.68516E+04 -2.43557E+04 -3.83897E+04
  7.36790E+03 -3.76289E+04  3.16902E+04 -1.46393E+04  2.95468E+04  1.09973E+04  4.76966E+03  1.92277E+04
 -1.34264E+04  8.95150E+03 -1.03221E+04 -7.48686E+03  6.22129E+03 -1.15780E+04  1.75002E+04  6.33153E+03
  1.38208E+04  2.17026E+04 -5.81650E+03  2.48806E+04 -2.20520E+04  1.18315E+04 -2.80228E+04 -4.47928E+03
 -2.11942E+04 -1.75072E+04 -8.63192E+03 -2.05452E+04  4.48222E+03 -1.95941E+04  1.63994E+04 -1.85349E+04
  2.66844E+04 -1.29971E+04  3.32511E+04  2.41664E+03  2.46647E+04  2.10230E+04  4.78005E+03  3.65440E+04
 -1.78999E+04  3.06410E+04 -2.86739E+04  1.04909E+04 -2.10588E+04 -1.00895E+04 -4.47592E+03 -1.38435E+04
  2.07300E+03 -2.73553E+03 -5.14348E+03  7.00875E+03 -1.62962E+04  4.80964E+03 -1.66554E+04 -6.43630E+03
 -1.04955E+04 -1.96600E+04  5.30934E+03 -2.41973E+04  1.54483E+04 -1.66746E+04  1.85899E+04 -1.77202E+03
  1.22207E+04  1.34883E+04 -1.49865E+03  1.91768E+04 -1.32987E+04  1.12490E+04 -1.96314E+04 -4.12493E+03
 -1.44228E+04 -1.76409E+04 -2.03341E+03 -2.35472E+04  1.08582E+04 -1.91283E+04  1.97314E+04 -9.07925E+03
  1.81768E+04  1.15374E+01  1.25728E+04  4.22303E+03  6.80533E+03  1.10179E+03  9.96624E+03 -1.62225E+03
  1.80996E+04  2.72111E+03  2.06440E+04  1.50219E+04  1.26375E+04  3.12534E+04 -2.52229E+03  3.51006E+04
 -2.02049E+04  2.87910E+04 -3.32804E+04  1.43589E+04 -3.49657E+04 -2.56125E+03 -2.82837E+04 -1.99922E+04
 -1.22192E+04 -2.86972E+04  9.88178E+03 -2.57774E+04  2.20051E+04 -1.32013E+04  1.97508E+04  5.54578E+03
  7.25920E+03  1.45748E+04 -9.44256E+03  1.26941E+04 -1.62403E+04  2.17331E+03 -1.28103E+04 -1.06333E+04
  1.14767E+01 -1.54995E+04  8.56686E+03 -1.15161E+04  1.08870E+04 -8.46783E+02  1.80983E+03  6.77203E+03
 -7.02689E+03  2.57089E+03 -6.07826E+03 -5.56337E+03 -1.05731E+03 -1.38876E+04  9.56323E+03 -1.47224E+04
  1.69767E+04 -6.80260E+03  1.82386E+04  3.01090E+03  1.61348E+04  1.35204E+04  7.37520E+03  2.17733E+04
 -3.47879E+03  2.29467E+04 -1.46483E+04  1.37693E+04 -1.65279E+04  3.78118E+03 -1.14174E+04 -3.58746E+03
 -5.31707E+03 -5.99488E+03 -1.33191E+03  1.15852E+03 -2.49593E+03  2.66734E+03 -5.27127E+03  4.76865E+03
 -1.15739E+04 -7.36210E+02 -1.18638E+04 -9.79293E+03 -4.25935E+03 -1.51458E+04  5.21587E+03 -1.21755E+04
  9.68968E+03 -4.77233E+03  7.59196E+03  3.52512E+03  2.53857E+02  3.89631E+03 -5.64170E+03  3.65468E+02
 -5.26890E+03 -7.44406E+03 -7.13635E+02 -1.06625E+04  6.64491E+03 -1.14936E+04  1.48243E+04 -6.06242E+03
  1.76938E+04  1.43864E+03  1.32538E+04  9.74047E+03  2.19572E+03  1.39811E+04 -6.80523E+03  1.12735E+04
 -9.17355E+03  3.20141E+03 -5.07208E+03 -2.54496E+03  2.22883E+03 -3.15927E+03  6.70517E+03 -9.81375E+02
  5.51966E+03  4.77891E+03  3.49935E+02  9.54656E+03 -7.22038E+03  8.57840E+03 -1.17406E+04  2.68388E+03
 -7.62412E+03 -5.77749E+03  6.39084E+02 -9.56939E+03  6.38113E+03 -4.94463E+03  6.85779E+03  1.83131E+03
  1.70419E+03  7.16359E+03 -6.24639E+03  8.10793E+03 -9.11631E+03  3.55231E+03 -8.88641E+03 -3.54206E+03
 -4.84113E+03 -1.06979E+04  1.98128E+03 -1.20517E+04  1.06745E+04 -8.11198E+03  1.10797E+04  2.44449E+03
  7.70769E+03  8.57465E+03  1.20605E+02  1.12314E+04 -7.87596E+03  7.11596E+03 -8.94253E+03 -1.11071E+03
 -7.77661E+03 -7.57125E+03 -2.02417E+03 -7.88533E+03  3.96445E+03 -7.85524E+03  4.94940E+03 -3.27565E+03
  4.15306E+03  8.60547E+02 -6.71869E+02  1.68961E+03 -6.06488E+01 -1.87894E+03  1.23399E+03 -3.85958E+03
  7.63105E+03 -2.52037E+03  1.00699E+04  2.06885E+03  9.83108E+03  6.76328E+03  7.53855E+03  1.35720E+04
 -3.20611E+03  1.57471E+04 -1.31803E+04  1.18660E+04 -1.71439E+04  2.02553E+03 -1.39480E+04 -5.88811E+03
 -7.16115E+03 -1.15680E+04 -2.24115E+02 -9.11247E+03  3.47491E+03 -4.92479E+03  3.36479E+03 -3.41422E+03
  2.52297E+03 -2.91902E+03  2.65164E+03 -2.79415E+03  4.30710E+03 -2.20946E+03  6.45716E+03 -5.58114E+02
  7.09182E+03  1.50117E+03  2.99190E+03  5.39505E+03 -2.69029E+03  6.13348E+03 -7.21917E+03  5.03526E+03
 -8.86820E+03 -9.20260E+02 -5.35552E+03 -6.68127E+03  1.33727E+02 -1.03241E+04  5.36111E+03 -9.87389E+03
  9.66624E+03 -5.55933E+03  1.26718E+04  1.11440E+03  8.34014E+03  8.59064E+03  1.50061E+03  1.10213E+04
 -4.41754E+03  9.51389E+03 -6.64358E+03  2.85926E+03 -4.25214E+03 -9.92523E+02 -1.47948E+03 -8.97425E+02
 -8.86199E+02 -6.16839E+01 -1.72693E+03  2.19049E+03 -3.78670E+03  1.46230E+03 -7.35851E+03 -5.72627E+02
 -4.41020E+03 -6.77558E+03  1.32240E+02 -9.19640E+03  5.43956E+03 -7.76869E+03  8.50023E+03 -2.23273E+03
  7.99855E+03  4.21266E+03  3.80284E+03  7.76199E+03 -1.65450E+03  9.18128E+03 -6.41384E+03  5.04973E+03
 -7.98968E+03  5.69646E+02 -6.41154E+03 -5.03960E+03 -1.29260E+03 -7.01645E+03  2.68202E+03 -5.40187E+03
  5.46507E+03 -2.05408E+03  3.84392E+03  9.67134E+02  1.61319E+03  2.86133E+03  1.28824E+03  1.07103E+03
  2.30650E+03  1.05679E+03  2.84551E+03  1.54833E+03  2.20440E+03  3.24585E+03  2.45956E+03  4.07131E+03
 -3.01442E+03  6.49444E+03 -5.41352E+03  7.67741E+03 -8.02819E+03  2.40476E+03 -9.56290E+03 -2.84660E+03
 -4.36904E+03 -8.37785E+03  9.31999E+02 -9.77641E+03  4.58413E+03 -5.17855E+03  6.69052E+03 -1.72071E+03
  5.12048E+03  3.63692E+03  1.63814E+03  4.75336E+03 -2.08067E+03  2.57723E+03 -2.93207E+03  8.46904E+01
 -1.54442E+03 -3.91391E+03  2.59606E+03 -3.17075E+03  3.55343E+03 -1.68963E+03  3.18204E+03  6.59413E+02
  2.03450E+03  1.74291E+03  1.17156E+03  1.06778E+03 -5.43542E+02  1.10143E+03  1.40132E+03 -3.88701E+02
  1.19421E+03 -4.91271E+02  3.74222E+03  1.06572E+03  1.82242E+03  4.35390E+03 -8.62871E+02  5.56842E+03
 -4.14614E+03  4.06078E+03 -5.20648E+03  9.60155E+02 -4.76715E+03 -1.72474E+03 -1.22180E+03 -3.48000E+03
  4.26898E+02 -2.96132E+03  2.46202E+03 -1.56075E+03  1.73154E+03  2.00815E+03 -6.45216E+02  3.08648E+03
 -3.91984E+03  1.84616E+03 -3.33279E+03 -1.80635E+03 -2.63475E+03 -5.24341E+03  5.68036E+02 -4.50375E+03
  2.29680E+03 -1.97911E+03  3.03079E+03  7.07256E+02  2.52514E+03  3.31761E+02  3.35103E+02  2.10906E+03
 -1.86399E+03  1.01812E+03 -1.74963E+03 -1.34567E+03  1.08860E+03 -2.49112E+03  4.75129E+03 -2.34034E+03
  4.40017E+03  3.94573E+02  5.35975E+03  2.65801E+03  1.46228E+03  5.16182E+03 -1.16291E+03  5.07591E+03
 -3.75401E+03  1.61689E+03 -4.56244E+03 -5.85737E+02 -2.13180E+03 -3.64190E+03  4.81323E+02 -2.32008E+03
  3.33544E+03 -1.82407E+03  2.27725E+03  1.40073E+03  1.61520E+03  3.50748E+03  2.76859E+02  2.19975E+03
 -1.30702E+03  1.85135E+03 -5.85183E+02  1.01003E+03  5.13655E+01  7.62576E+02 -1.11293E+03  1.22215E+03
 -1.47979E+03  2.22651E+03 -3.56738E+03  1.14292E+03 -5.07855E+03  5.26025E+01 -5.76354E+03 -3.12856E+03
 -2.85848E+03 -6.45224E+03  1.16833E+03 -7.59558E+03  4.06759E+03 -6.18514E+03  7.39710E+03 -2.27321E+03
  6.44284E+03  1.34143E+03  3.78068E+03  4.47088E+03 -4.38541E+02  4.53244E+03 -2.03086E+03  3.16552E+03
 -2.94672E+03  1.13372E+03 -1.58933E+03 -8.76981E+02 -1.12702E+03  1.86092E+02 -7.84555E+02 -2.71800E+02
 -1.28907E+03 -4.90255E+02 -1.39088E+03 -4.87303E+02 -1.78429E+02 -1.21897E+03  3.72101E+02 -2.22438E+03
  2.24990E+03 -1.63875E+03  3.00720E+03  3.90598E+02  3.32564E+03  3.15360E+03  1.55317E+02  4.67905E+03
 -2.61299E+03  6.14137E+03 -5.27194E+03  3.12157E+03 -5.45941E+03 -3.79977E+02 -4.34112E+03 -3.00535E+03
 -2.29713E+03 -4.71484E+03  1.35152E+03 -3.86291E+03  2.96091E+03 -2.77981E+03  2.71360E+03  1.90982E+02
  1.89306E+03  1.64087E+03 -2.19286E+02  7.79947E+02 -1.29381E+03 -1.87027E+02 -1.16343E+02 -7.97190E+02
  1.25906E+03 -7.71727E+02  1.68365E+03  5.92937E+02  9.46040E+02  2.56572E+03  7.58418E+02  2.22540E+03
 -1.77443E+03  2.19621E+03 -3.07875E+03 -9.52456E+01 -2.93889E+03 -2.17163E+03 -1.88223E+02 -4.12014E+03
  1.94409E+03 -2.58518E+03  3.51621E+03 -3.32986E+02  3.39551E+03  4.95298E+02  1.87590E+03  2.71535E+03
  3.72527E+02  3.27142E+03 -1.69536E+03  2.16092E+03 -1.76725E+03  1.53295E+03 -1.63532E+03  3.52553E+02
 -8.91615E+02  9.55696E+00 -1.11142E+03  3.22029E+02 -1.92125E+03  7.83581E+02 -1.98246E+03 -3.52601E+02
 -2.48364E+03 -8.40188E+02 -6.15785E+02 -3.38783E+03  1.79349E+03 -4.13730E+03  2.72660E+03 -1.26573E+03
  3.25383E+03 -3.09757E+02  9.70671E+02  2.25211E+03  1.90985E+02  2.50939E+03 -2.46494E+03  1.58713E+03
