 $NMID ID='MM_0lb_SNR400_16hz_g60_47.RAW', FMTDAT='(8E13.5)'
 TRAMP=1., VOLUME=1. $END
  3.09815E+05  3.46720E+02  3.37475E+05  2.50815E+05  8.45649E+04  3.38617E+05 -1.32800E+05  2.51394E+05
 -1.90528E+05  8.35469E+04 -1.11776E+05 -3.26382E+04 -1.51913E+02 -5.07544E+04  5.41106E+04  5.26053E+01
  3.50627E+04  5.26617E+04 -1.69720E+04  7.59134E+04 -6.10971E+04  6.35673E+04 -8.40639E+04  3.26424E+04
 -8.11716E+04 -1.10470E+04 -5.69724E+04 -5.10728E+04 -1.50522E+04 -6.92626E+04  2.75199E+04 -4.56364E+04
  4.06261E+04  3.47888E+03  1.57652E+04  4.81940E+04 -3.48648E+04  4.74739E+04 -6.70258E+04  3.38732E+02
 -5.35695E+04 -5.73100E+04 -7.00513E+03 -7.76805E+04  3.41426E+04 -5.48818E+04  4.80335E+04 -1.82187E+04
  4.35445E+04  1.07721E+04  3.16144E+04  2.56604E+04  1.57183E+04  2.99854E+04 -5.31626E+03  2.76772E+04
 -2.25055E+04  1.21962E+04 -1.91536E+04 -5.29528E+03  5.73372E+03 -7.01588E+03  2.17955E+04  1.20842E+04
  7.02165E+03  3.56592E+04 -3.21252E+04  3.49477E+04 -6.33396E+04  2.28709E+03 -5.68288E+04 -4.24727E+04
 -1.25572E+04 -6.38125E+04  3.94850E+04 -4.51623E+04  5.86396E+04 -2.20759E+03  3.43343E+04  3.21940E+04
 -5.88282E+03  3.57552E+04 -2.99508E+04  1.59211E+04 -3.07242E+04 -4.37632E+03 -1.63658E+04 -1.15929E+04
 -8.47582E+03 -1.36488E+04 -1.01682E+03 -1.82133E+04  7.77257E+03 -2.29072E+04  1.56823E+04 -1.39634E+04
  1.15851E+04  4.85491E+03 -7.69916E+03  1.32553E+04 -2.16466E+04 -4.54974E+03 -8.50533E+03 -3.39295E+04
  2.27866E+04 -4.38897E+04  4.81914E+04 -1.96967E+04  4.51627E+04  1.93672E+04  1.60556E+04  4.36479E+04
 -1.56469E+04  3.36403E+04 -2.52603E+04  1.24405E+03 -9.80592E+03 -2.79767E+04  2.08284E+04 -3.36640E+04
  4.07673E+04 -8.79638E+03  3.56674E+04  2.38323E+04  1.77855E+04  4.62819E+04 -8.08901E+03  5.02051E+04
 -3.18547E+04  3.39316E+04 -4.22688E+04  1.01805E+04 -4.27147E+04 -1.64643E+04 -2.38641E+04 -3.78528E+04
  7.92838E+03 -3.78939E+04  3.12641E+04 -1.44754E+04  2.90352E+04  1.09346E+04  4.23579E+03  1.89408E+04
 -1.34121E+04  8.52374E+03 -1.01827E+04 -7.32492E+03  5.72464E+03 -1.03540E+04  1.79651E+04  5.98345E+03
  1.36647E+04  2.16307E+04 -6.34990E+03  2.48265E+04 -2.15909E+04  1.15329E+04 -2.82108E+04 -4.87746E+03
 -2.04075E+04 -1.70114E+04 -8.16827E+03 -1.97312E+04  3.72995E+03 -1.95371E+04  1.48265E+04 -1.83541E+04
  2.65459E+04 -1.31330E+04  3.21095E+04  2.60338E+03  2.37805E+04  1.98897E+04  4.29872E+03  3.60582E+04
 -1.75530E+04  3.03725E+04 -2.75995E+04  1.02062E+04 -2.12389E+04 -1.08177E+04 -4.48545E+03 -1.30514E+04
  1.72908E+03 -2.50670E+03 -4.84051E+03  6.38488E+03 -1.57856E+04  5.16322E+03 -1.67863E+04 -7.05187E+03
 -9.99799E+03 -1.90233E+04  5.10654E+03 -2.32711E+04  1.48502E+04 -1.60240E+04  1.79566E+04 -1.39872E+03
  1.06892E+04  1.28728E+04 -1.70086E+03  1.90457E+04 -1.36033E+04  1.03291E+04 -1.85978E+04 -3.66228E+03
 -1.34025E+04 -1.75938E+04 -2.27649E+03 -2.22322E+04  9.76596E+03 -1.87555E+04  1.96309E+04 -9.57693E+03
  1.71616E+04 -7.58009E+01  1.26051E+04  4.22070E+03  6.93057E+03  7.12945E+02  8.75893E+03 -1.34557E+03
  1.69280E+04  2.92033E+03  1.88321E+04  1.44763E+04  1.24863E+04  2.94390E+04 -2.82411E+03  3.33121E+04
 -1.92178E+04  2.61655E+04 -3.06237E+04  1.33431E+04 -3.29253E+04 -2.19856E+03 -2.69768E+04 -1.84808E+04
 -1.14495E+04 -2.68973E+04  9.14449E+03 -2.39300E+04  2.02105E+04 -1.25290E+04  1.91260E+04  5.24627E+03
  6.57131E+03  1.44010E+04 -8.75217E+03  1.25864E+04 -1.60274E+04  1.91746E+03 -1.25292E+04 -9.45059E+03
 -6.11718E+02 -1.47491E+04  7.87418E+03 -1.11323E+04  9.86398E+03 -5.63960E+02  2.52949E+03  6.78279E+03
 -6.74859E+03  2.38424E+03 -5.72852E+03 -4.72373E+03 -3.10431E+02 -1.30297E+04  9.36542E+03 -1.26845E+04
  1.57010E+04 -7.12981E+03  1.69761E+04  2.51006E+03  1.47747E+04  1.26463E+04  6.78331E+03  1.88780E+04
 -3.19449E+03  2.13362E+04 -1.33991E+04  1.30532E+04 -1.49586E+04  3.20345E+03 -1.07926E+04 -3.43482E+03
 -5.35511E+03 -4.86929E+03 -9.87970E+02  9.50754E+02 -2.26009E+03  2.52445E+03 -5.16459E+03  4.61970E+03
 -1.03152E+04 -2.34167E+02 -1.04489E+04 -9.13090E+03 -4.55597E+03 -1.38970E+04  4.72258E+03 -9.96304E+03
  8.78519E+03 -4.69466E+03  6.32941E+03  2.72450E+03 -6.13754E+02  4.04907E+03 -5.26574E+03 -3.96530E+01
 -4.82933E+03 -6.63849E+03 -3.03609E+02 -9.87813E+03  5.28886E+03 -1.08870E+04  1.33550E+04 -5.53107E+03
  1.56997E+04  1.38538E+03  1.15843E+04  8.78169E+03  2.35874E+03  1.15670E+04 -6.71768E+03  1.03492E+04
 -8.00653E+03  3.51667E+03 -3.92141E+03 -1.84330E+03  9.75456E+02 -2.64106E+03  5.59003E+03 -4.52352E+02
  4.72668E+03  4.83703E+03  9.61958E+02  8.18797E+03 -6.22721E+03  8.83744E+03 -1.00617E+04  2.34576E+03
 -6.47227E+03 -5.31111E+03 -4.59109E+01 -8.40235E+03  5.49871E+03 -5.11256E+03  5.34419E+03  1.88270E+03
  9.92407E+02  5.21730E+03 -4.92129E+03  7.31242E+03 -6.91843E+03  3.09353E+03 -7.30511E+03 -2.32049E+03
 -4.09097E+03 -8.15914E+03  2.03480E+03 -1.02326E+04  8.42901E+03 -6.29898E+03  9.50758E+03  7.39369E+02
  6.33023E+03  7.52905E+03 -4.60103E+02  9.32782E+03 -6.54930E+03  5.77485E+03 -7.43689E+03 -4.02674E+02
 -6.95574E+03 -6.05013E+03 -1.90603E+03 -7.01809E+03  3.31926E+03 -6.60564E+03  5.02692E+03 -2.98107E+03
  3.58436E+03  8.60865E+02 -5.35543E+02  1.38638E+03  3.33903E+02 -1.20090E+03  9.27402E+02 -3.39865E+03
  5.43708E+03 -2.27647E+03  8.31054E+03  1.23772E+03  8.20149E+03  4.70607E+03  6.45253E+03  1.04801E+04
 -2.38147E+03  1.22518E+04 -1.11767E+04  9.16291E+03 -1.39739E+04  1.92275E+03 -1.10840E+04 -4.52747E+03
 -5.88353E+03 -9.75034E+03 -2.29718E+02 -7.02194E+03  3.29761E+03 -3.70465E+03  2.10980E+03 -3.36550E+03
  2.26883E+03 -2.35555E+03  2.71457E+03 -2.44905E+03  4.27656E+03 -2.55686E+03  4.97794E+03 -2.80978E+02
  6.01049E+03  1.60372E+03  2.33140E+03  4.71988E+03 -1.64541E+03  4.87018E+03 -5.74093E+03  4.28650E+03
 -7.50755E+03 -7.20001E+02 -3.60431E+03 -4.50990E+03 -2.39470E+02 -7.28326E+03  4.13486E+03 -7.56199E+03
  7.83920E+03 -4.62707E+03  8.76656E+03  8.27254E+02  6.93235E+03  5.56558E+03  9.05985E+02  8.63174E+03
 -2.68050E+03  7.77928E+03 -4.98995E+03  2.29290E+03 -3.68391E+03 -1.91108E+03 -8.88342E+02 -1.00225E+03
 -8.89215E+02 -2.09709E+02 -6.68778E+02  2.04389E+03 -2.90691E+03  1.04490E+03 -6.02221E+03 -8.61541E+02
 -3.23000E+03 -4.84017E+03  5.27173E+02 -7.11608E+03  4.03150E+03 -5.66241E+03  5.81997E+03 -1.82777E+03
  6.48475E+03  3.21231E+03  2.97258E+03  4.78816E+03 -1.10838E+03  6.70375E+03 -4.29711E+03  3.69747E+03
 -5.35049E+03  3.60912E+02 -4.52251E+03 -4.04947E+03  2.49325E+01 -5.51488E+03  3.17451E+03 -3.78860E+03
  4.21757E+03 -1.83160E+03  2.49682E+03  7.00236E+02  7.57129E+02  1.76896E+03  9.15414E+02  2.83162E+02
  1.90637E+03  6.38801E+02  1.79339E+03  1.48695E+03  1.69721E+03  2.81246E+03  1.83431E+03  2.66636E+03
 -2.03333E+03  4.35879E+03 -3.51603E+03  5.18527E+03 -5.77508E+03  1.46467E+03 -6.25543E+03 -1.81515E+03
 -2.94698E+03 -5.86134E+03  1.20867E+03 -6.53353E+03  3.22667E+03 -4.20055E+03  4.61799E+03 -1.03335E+03
  3.93874E+03  2.68944E+03  1.08692E+03  3.56667E+03 -1.95567E+03  1.71525E+03 -2.08666E+03  1.96140E+02
 -9.86179E+02 -2.55591E+03  1.71437E+03 -2.64733E+03  2.39628E+03 -1.60028E+03  1.69862E+03  1.19257E+03
  1.21015E+03  9.65776E+02  1.39984E+03 -2.93708E+02 -3.21990E+02  1.22443E+03  1.30035E+03 -2.15337E+02
  1.22847E+01 -4.65051E+02  2.42510E+03  5.72406E+02  1.44785E+03  2.65375E+03 -2.75071E+02  3.80788E+03
 -2.88209E+03  1.46791E+03 -3.56346E+03  3.37049E+02 -3.14374E+03 -1.32026E+03 -4.04268E+02 -2.58558E+03
  7.04568E+01 -1.67410E+03  1.75300E+03 -1.32102E+03  7.64799E+02  1.37133E+03 -8.63193E+02  1.46280E+03
 -2.42745E+03  9.36868E+02 -2.49603E+03 -2.14858E+03 -1.21742E+03 -3.24155E+03 -3.02624E+00 -2.52390E+03
  1.47639E+03 -1.64506E+03  1.73629E+03  4.35750E+01  2.50656E+03 -3.87239E+02  5.28200E+02  1.64531E+03
 -8.05877E+02 -8.61916E+01 -1.37820E+03 -6.64320E+02  5.25254E+02 -1.99036E+03  2.36071E+03 -1.56880E+03
  2.34202E+03  5.08325E+02  3.59810E+03  1.52264E+03  1.47634E+03  2.66082E+03 -7.72083E+02  2.88388E+03
 -1.79012E+03  8.06487E+02 -2.62125E+03 -3.56648E+02 -9.12900E+02 -2.21292E+03 -5.28978E+01 -1.66753E+03
  2.38099E+03 -1.41081E+03  1.06224E+03  1.18269E+03  1.74799E+02  2.39522E+03 -3.52172E+02  1.64852E+03
 -5.94862E+02  8.31503E+02 -6.93577E+02 -4.90817E+01 -5.93818E+02  8.53017E+02 -5.97874E+02  2.88310E+02
 -7.83585E+02  2.17843E+03 -2.81200E+03  1.10864E+03 -2.57954E+03  4.95525E+01 -3.48390E+03 -1.64370E+03
 -2.16153E+03 -3.60481E+03  4.65815E+02 -4.17228E+03  1.61092E+03 -3.86333E+03  4.36094E+03 -1.44487E+03
  3.92734E+03  1.30568E+02  2.14156E+03  2.85184E+03 -1.15363E+02  2.65302E+03 -1.11842E+03  1.76056E+03
 -1.92722E+03  8.21317E+02 -9.57611E+02 -2.42611E+02 -4.90931E+02 -2.73674E+02 -5.32819E+02 -7.34124E+01
 -6.72296E+02 -1.77208E+02 -9.50177E+02 -1.83477E+02 -8.51004E+01 -9.63047E+02 -2.87589E+02 -1.48544E+03
  1.63626E+03 -9.41877E+02  1.41738E+03  5.29012E+02  1.93070E+03  1.58121E+03  2.40529E+02  2.81666E+03
 -1.52826E+03  3.65266E+03 -2.56760E+03  2.11351E+03 -3.45482E+03 -3.96852E+02 -1.95486E+03 -1.96097E+03
 -1.38063E+03 -2.09560E+03  2.07607E+02 -2.08302E+03  1.48868E+03 -6.94771E+02  1.65630E+03  3.78532E+01
  1.28184E+03  9.85782E+02  2.52988E+02  8.28579E+02 -3.17032E+02 -9.18091E+01  9.66657E+00 -2.20704E+02
  8.11456E+02 -5.54466E+01  9.68405E+02  2.97023E+02  4.34399E+02  5.79658E+02  1.91196E+02  3.80571E+02
 -9.69136E+02  9.69895E+02 -1.47952E+03 -3.52638E+02 -1.41652E+03 -1.05448E+03 -1.06473E+02 -1.78512E+03
  1.43076E+03 -1.30013E+03  1.33679E+03  4.89972E+02  1.53976E+03 -2.10376E+02  1.20207E+03  9.69366E+02
  4.97136E+02  5.83313E+02 -9.03730E+02  1.54019E+03 -1.40210E+03  3.06568E+02 -5.64464E+02  1.79859E+02
 -7.52409E+02 -1.57066E+01 -9.73145E+02  3.39751E+02 -1.12464E+03  5.84532E+02 -1.03136E+03  1.61730E+02
 -1.41479E+03 -1.29265E+02 -6.72016E+02 -2.23631E+03  6.42942E+02 -2.87859E+03  1.08868E+03 -7.36781E+02
  1.32219E+03  2.88219E+02  1.15630E+02  3.75833E+02 -4.50432E+02  1.49390E+03  3.23845E+02  1.24704E+03
