 $NMID ID='MM_0lb_SNR400_17hz_g60_24.RAW', FMTDAT='(8E13.5)'
 TRAMP=1., VOLUME=1. $END
  3.09966E+05  9.31547E+02  3.37890E+05  2.51208E+05  8.50610E+04  3.37740E+05 -1.33249E+05  2.50882E+05
 -1.90012E+05  8.28535E+04 -1.11350E+05 -3.26058E+04  1.19038E+03 -5.05640E+04  5.39935E+04 -2.14625E+02
  3.51361E+04  5.27375E+04 -1.75598E+04  7.56194E+04 -6.06229E+04  6.34304E+04 -8.44055E+04  3.15750E+04
 -8.09771E+04 -1.20510E+04 -5.70812E+04 -5.12137E+04 -1.46795E+04 -6.94209E+04  2.76518E+04 -4.63200E+04
  3.97174E+04  3.82717E+03  1.62508E+04  4.81644E+04 -3.40178E+04  4.68707E+04 -6.69026E+04 -5.05223E+02
 -5.32914E+04 -5.66851E+04 -6.27452E+03 -7.70500E+04  3.44599E+04 -5.50264E+04  4.75426E+04 -1.69047E+04
  4.30090E+04  1.19015E+04  3.09917E+04  2.61193E+04  1.58935E+04  2.92809E+04 -5.13712E+03  2.76356E+04
 -2.18409E+04  1.24736E+04 -1.85742E+04 -4.40691E+03  5.27308E+03 -7.75674E+03  2.18726E+04  1.19176E+04
  7.11136E+03  3.50847E+04 -3.18247E+04  3.47467E+04 -6.26737E+04  2.09655E+03 -5.66646E+04 -4.27880E+04
 -1.25965E+04 -6.23484E+04  3.95044E+04 -4.46419E+04  5.74717E+04 -2.10615E+03  3.39973E+04  3.20205E+04
 -6.18908E+03  3.62120E+04 -3.06429E+04  1.54227E+04 -3.02382E+04 -4.05877E+03 -1.59818E+04 -1.07748E+04
 -8.12080E+03 -1.26997E+04 -8.34270E+02 -1.81514E+04  7.17909E+03 -2.29352E+04  1.52868E+04 -1.37687E+04
  1.13017E+04  4.53096E+03 -8.02353E+03  1.32269E+04 -2.07038E+04 -3.93395E+03 -8.45048E+03 -3.28889E+04
  2.24062E+04 -4.33135E+04  4.75186E+04 -1.93939E+04  4.43820E+04  1.94768E+04  1.56503E+04  4.40895E+04
 -1.59660E+04  3.27327E+04 -2.56639E+04  1.92550E+03 -9.93500E+03 -2.79300E+04  2.12598E+04 -3.34327E+04
  4.04871E+04 -8.47141E+03  3.49083E+04  2.32415E+04  1.80310E+04  4.56161E+04 -8.28792E+03  4.88989E+04
 -3.11328E+04  3.31712E+04 -4.09358E+04  8.97124E+03 -4.18349E+04 -1.62933E+04 -2.32032E+04 -3.73413E+04
  7.74792E+03 -3.71049E+04  3.11173E+04 -1.47358E+04  2.92131E+04  1.06834E+04  3.90044E+03  1.86532E+04
 -1.28969E+04  7.92874E+03 -1.02106E+04 -7.62852E+03  5.67885E+03 -1.00813E+04  1.77846E+04  6.69972E+03
  1.29103E+04  2.21315E+04 -5.69912E+03  2.42491E+04 -2.18948E+04  1.06306E+04 -2.70968E+04 -5.30897E+03
 -1.93014E+04 -1.71036E+04 -8.17241E+03 -2.00981E+04  3.58025E+03 -1.81414E+04  1.46618E+04 -1.67181E+04
  2.49158E+04 -1.22724E+04  3.10803E+04  2.57993E+03  2.34559E+04  1.89233E+04  4.60333E+03  3.54166E+04
 -1.68979E+04  3.02008E+04 -2.75395E+04  1.02267E+04 -2.02722E+04 -1.00338E+04 -3.99577E+03 -1.37518E+04
  2.21945E+03 -3.28198E+03 -4.53481E+03  6.05978E+03 -1.55085E+04  5.20202E+03 -1.53212E+04 -6.19155E+03
 -9.68509E+03 -1.84181E+04  4.78189E+03 -2.16962E+04  1.47583E+04 -1.57583E+04  1.75939E+04 -1.26055E+03
  1.05686E+04  1.29210E+04 -5.09239E+02  1.84555E+04 -1.16652E+04  1.04947E+04 -1.77621E+04 -3.52883E+03
 -1.29834E+04 -1.64284E+04 -1.14443E+03 -2.14654E+04  1.03695E+04 -1.80780E+04  1.75168E+04 -8.66678E+03
  1.65510E+04  5.22822E+02  1.18303E+04  4.39946E+03  6.54680E+03  2.97764E+02  8.52512E+03 -1.69503E+03
  1.60604E+04  2.87155E+03  1.79099E+04  1.46563E+04  1.14358E+04  2.79173E+04 -3.32671E+03  3.15883E+04
 -1.78682E+04  2.43194E+04 -2.93425E+04  1.23265E+04 -3.02757E+04 -2.13968E+03 -2.57323E+04 -1.73770E+04
 -1.11737E+04 -2.42934E+04  9.13427E+03 -2.23358E+04  1.95596E+04 -1.22282E+04  1.78606E+04  4.62579E+03
  7.02555E+03  1.28513E+04 -8.28496E+03  1.24039E+04 -1.53378E+04  2.32479E+03 -1.11831E+04 -9.46321E+03
 -1.50997E+02 -1.43998E+04  7.24553E+03 -1.04269E+04  9.38821E+03 -1.16259E+03  1.53674E+03  5.85857E+03
 -6.80416E+03  2.17365E+03 -5.26680E+03 -4.82954E+03  2.34658E+01 -1.23209E+04  9.16766E+03 -1.24637E+04
  1.51901E+04 -6.41401E+03  1.56818E+04  2.59629E+03  1.35246E+04  1.12206E+04  6.11798E+03  1.79972E+04
 -2.78795E+03  1.96287E+04 -1.19287E+04  1.22766E+04 -1.42104E+04  2.78526E+03 -1.03276E+04 -2.92878E+03
 -4.97312E+03 -4.10571E+03 -4.72926E+02  9.92237E+02 -2.42849E+03  2.51358E+03 -4.93491E+03  4.07473E+03
 -9.21170E+03 -1.04370E+03 -1.00522E+04 -8.13252E+03 -3.78489E+03 -1.27712E+04  4.26870E+03 -1.04633E+04
  8.83805E+03 -4.45903E+03  6.75266E+03  3.07773E+03  5.25983E+02  3.64369E+03 -4.46225E+03  3.95979E+02
 -4.49101E+03 -6.86458E+03 -9.61757E+02 -8.72421E+03  5.35703E+03 -9.64614E+03  1.24705E+04 -5.02604E+03
  1.46436E+04  6.73961E+02  1.07173E+04  7.48026E+03  1.86892E+03  1.07790E+04 -5.91205E+03  9.80151E+03
 -7.76424E+03  3.44291E+03 -4.35752E+03 -1.94351E+03  1.61152E+03 -2.28454E+03  4.97520E+03 -9.96224E+02
  5.17073E+03  4.24478E+03  1.36296E+03  7.55023E+03 -5.31712E+03  7.52303E+03 -9.34073E+03  2.25839E+03
 -5.85158E+03 -4.94045E+03  1.47416E+02 -8.09902E+03  4.70731E+03 -4.46458E+03  4.64629E+03  1.19259E+03
  6.52640E+02  4.17986E+03 -4.84203E+03  6.19005E+03 -6.75996E+03  3.27095E+03 -6.45440E+03 -1.91914E+03
 -3.80384E+03 -7.46092E+03  1.66751E+03 -8.72302E+03  7.67306E+03 -5.76584E+03  8.75380E+03  1.14565E+03
  5.56689E+03  6.46918E+03 -1.48999E+02  8.83063E+03 -5.88549E+03  4.55558E+03 -6.18619E+03 -4.82114E+02
 -6.50591E+03 -6.03646E+03 -1.60347E+03 -5.97635E+03  3.19064E+03 -5.46105E+03  4.29083E+03 -3.01067E+03
  3.33992E+03  2.54365E+02 -6.38991E+02  1.72168E+03  1.07096E+02 -9.50280E+02  2.77961E+02 -2.85249E+03
  4.61762E+03 -1.71496E+03  7.14872E+03  7.17366E+02  7.30954E+03  4.27150E+03  5.98281E+03  9.28860E+03
 -1.72629E+03  1.08332E+04 -9.20381E+03  8.65676E+03 -1.26796E+04  1.90495E+03 -9.89283E+03 -3.30490E+03
 -4.93319E+03 -8.85058E+03 -3.32273E+02 -6.67102E+03  2.35855E+03 -3.12931E+03  2.08083E+03 -2.13139E+03
  1.86092E+03 -1.10174E+03  2.21510E+03 -2.56318E+03  3.45835E+03 -1.91369E+03  4.10972E+03  4.44541E+02
  5.54027E+03  1.59056E+03  1.42754E+03  4.18272E+03 -1.89269E+03  4.35435E+03 -5.56406E+03  3.62429E+03
 -6.40008E+03 -1.06585E+03 -2.81315E+03 -4.37787E+03 -5.65213E+01 -6.91571E+03  3.51976E+03 -6.50114E+03
  7.21413E+03 -4.20469E+03  8.65459E+03  6.02893E+02  6.36716E+03  5.74229E+03  1.38472E+03  7.89601E+03
 -2.58824E+03  6.74511E+03 -4.31388E+03  2.24040E+03 -2.65108E+03 -1.60957E+03 -8.61667E+02 -7.86929E+02
 -3.11844E+02 -3.93057E+02 -1.26105E+03  2.43471E+03 -3.17150E+03  1.06002E+03 -4.79844E+03 -4.64299E+02
 -2.53185E+03 -4.68983E+03  2.37588E+02 -5.71968E+03  2.87616E+03 -5.06552E+03  4.93388E+03 -1.56467E+03
  5.43143E+03  2.79264E+03  2.23639E+03  4.41529E+03 -1.19739E+03  5.86828E+03 -3.65256E+03  4.10430E+03
 -5.08448E+03  7.32825E+02 -4.54662E+03 -3.58714E+03  3.19962E+02 -3.73332E+03  2.28157E+03 -3.08594E+03
  3.28009E+03 -1.98002E+03  1.94581E+03  8.68348E+02  9.67054E+02  2.11384E+03  9.75428E+02  7.17798E+02
  1.84998E+03  1.07158E+03  1.23646E+03  1.39662E+03  1.31823E+03  3.06990E+03  1.83747E+03  2.64144E+03
 -1.25851E+03  4.08666E+03 -3.37296E+03  4.39529E+03 -4.50197E+03  1.51197E+03 -5.42216E+03 -1.05753E+03
 -2.35819E+03 -4.66530E+03  3.58321E+02 -5.89871E+03  2.44727E+03 -3.44829E+03  3.86225E+03 -1.10450E+03
  3.27173E+03  1.91655E+03  5.84486E+02  2.75189E+03 -7.15509E+02  1.86630E+03 -2.55632E+03 -1.17993E+02
 -6.52028E+02 -2.50779E+03  1.65493E+03 -1.83304E+03  1.95953E+03 -1.29577E+03  1.91677E+03  9.24741E+02
  7.75068E+02  1.03778E+03  2.48048E+02  7.67814E+02 -4.33275E+02  8.34382E+02  1.90915E+03 -3.21178E+02
 -3.76177E+01 -7.24920E+02  2.39638E+03  1.10569E+03  1.74291E+02  3.12849E+03 -1.85936E+02  4.15640E+03
 -2.45682E+03  1.54760E+03 -2.60014E+03  3.78697E+02 -2.08466E+03 -9.03488E+02 -6.12307E+02 -1.68296E+03
  7.59778E+02 -2.34309E+03  1.18290E+03 -9.60160E+02  6.42430E+02  1.47135E+03 -6.80437E+02  1.26514E+03
 -2.27935E+03  6.90753E+02 -1.97832E+03 -2.10777E+03 -1.20237E+03 -2.95278E+03  3.71892E+02 -1.68559E+03
  9.72172E+02 -1.08261E+03  9.05311E+02  4.07242E+02  1.60118E+03 -7.68048E+01  2.88685E+02  1.40460E+03
 -5.63204E+02 -1.96471E+02 -1.75466E+03 -3.75785E+02  3.42980E+02 -1.66237E+03  2.27721E+03 -1.50127E+03
  1.82938E+03  4.63962E+02  3.87892E+03  9.23903E+02  1.65680E+03  2.01474E+03 -4.35296E+02  2.35431E+03
 -1.70422E+03  9.00255E+02 -1.77210E+03 -4.73837E+02 -2.20144E+02 -2.16838E+03 -1.75372E+02 -7.73579E+02
  1.81188E+03 -1.14834E+03  1.19714E+03  1.07814E+03  4.43963E+02  1.77180E+03 -3.93660E+02  1.29403E+03
 -9.76154E+01  1.55870E+03 -8.75750E+02  7.14835E+02 -9.64246E+01  5.00316E+02 -9.90163E+02  7.81092E+02
 -1.08688E+03  9.13316E+02 -2.39618E+03  4.22169E+02 -1.81777E+03  2.53279E+02 -3.22584E+03 -1.23840E+03
 -1.54482E+03 -3.21549E+03  6.80551E+02 -3.50013E+03  1.83696E+03 -2.79386E+03  3.66276E+03 -1.16319E+03
  3.35614E+03 -2.38792E+02  1.77720E+03  1.91401E+03  6.79473E+01  1.88382E+03 -1.28814E+03  1.56655E+03
 -7.58174E+02  9.30184E+02 -1.07034E+03 -8.67087E+01 -6.64106E+02  4.84561E+02 -1.05577E+03  2.35379E+01
 -1.21153E+03  3.52608E+01 -9.82508E+02 -3.38115E+02 -2.42454E+02 -8.12549E+02  2.48566E+02 -1.11879E+03
  1.30182E+03 -6.72369E+02  4.04519E+02 -3.17190E+02  1.19529E+03  1.34799E+03 -4.44834E+02  1.76130E+03
 -1.02851E+03  3.13506E+03 -2.34087E+03  1.07604E+03 -2.32554E+03  1.23144E+02 -2.13063E+03 -1.16819E+03
 -1.46110E+03 -2.72852E+03  8.90371E+02 -2.07396E+03  1.15451E+03 -9.01954E+02  1.12991E+03 -5.18102E+01
  1.24451E+03  5.86128E+02 -7.82467E-01  6.73106E+02 -4.61678E+02  9.17333E+01 -2.00839E+02 -4.08522E+02
  1.02790E+03  8.08410E+02  6.29726E+02  3.31478E+02  3.18137E+02  5.02726E+02  3.28106E+02  7.71653E+02
 -9.14776E+02  9.88089E+02 -1.30168E+03 -3.07697E+02 -9.35739E+02 -4.80633E+02  2.20913E+01 -2.08181E+03
  3.68980E+02 -1.24771E+03  8.84533E+02 -2.29653E+02  1.33516E+03 -6.08695E+02  8.16321E+02  1.33261E+03
  8.07685E+02  8.46649E+02 -2.77573E+02  4.91920E+02 -7.89055E+02  6.61881E+02 -5.66778E+02  1.31908E+02
 -8.77223E+02 -6.07283E+01 -4.63119E+02  4.08829E+02 -1.15204E+03  9.30815E+01 -1.07090E+03 -6.99490E+02
 -1.31922E+03 -1.26076E+02 -7.42943E+01 -1.19517E+03  3.15679E+02 -1.65613E+03  1.31590E+03 -3.71022E+02
  9.44737E+02  8.93733E+01 -2.74095E+02  1.12731E+03  9.58325E+01  1.20528E+03 -3.39543E+02  1.68572E+03
