 $NMID ID='MM_0lb_SNR400_13hz_g50_27.RAW', FMTDAT='(8E13.5)'
 TRAMP=1., VOLUME=1. $END
  3.09700E+05  8.47813E+02  3.37237E+05  2.50153E+05  8.52885E+04  3.37889E+05 -1.32756E+05  2.51563E+05
 -1.90856E+05  8.29662E+04 -1.12399E+05 -3.24037E+04  1.07862E+03 -5.01088E+04  5.38315E+04 -1.68402E+02
  3.55963E+04  5.26584E+04 -1.69540E+04  7.53296E+04 -6.08824E+04  6.35383E+04 -8.44444E+04  3.19854E+04
 -8.11296E+04 -1.15612E+04 -5.74530E+04 -5.11259E+04 -1.53361E+04 -7.01939E+04  2.73092E+04 -4.64589E+04
  4.01086E+04  3.98771E+03  1.60089E+04  4.74313E+04 -3.42994E+04  4.72408E+04 -6.70019E+04  4.62339E+02
 -5.37872E+04 -5.72139E+04 -7.21746E+03 -7.71531E+04  3.37707E+04 -5.51423E+04  4.82188E+04 -1.76804E+04
  4.41248E+04  1.17433E+04  3.18385E+04  2.53331E+04  1.56066E+04  2.99627E+04 -5.51808E+03  2.69315E+04
 -2.22358E+04  1.22178E+04 -1.82787E+04 -5.24235E+03  6.07403E+03 -7.80326E+03  2.31472E+04  1.26738E+04
  7.22906E+03  3.56215E+04 -3.19665E+04  3.58975E+04 -6.36929E+04  2.11910E+03 -5.73581E+04 -4.32498E+04
 -1.25882E+04 -6.38249E+04  4.04971E+04 -4.55391E+04  5.88789E+04 -2.52481E+03  3.47384E+04  3.26534E+04
 -5.95312E+03  3.61020E+04 -3.04783E+04  1.69726E+04 -3.11422E+04 -3.92842E+03 -1.73111E+04 -1.12524E+04
 -9.28783E+03 -1.42764E+04 -1.23889E+03 -1.81981E+04  7.62602E+03 -2.26276E+04  1.50634E+04 -1.33803E+04
  1.11849E+04  5.01095E+03 -8.84856E+03  1.31812E+04 -2.21309E+04 -5.44546E+03 -9.09047E+03 -3.47925E+04
  2.33078E+04 -4.37857E+04  4.88938E+04 -1.99060E+04  4.55343E+04  1.98479E+04  1.64409E+04  4.48429E+04
 -1.63218E+04  3.38827E+04 -2.52299E+04  1.51563E+03 -1.08405E+04 -2.84613E+04  2.22139E+04 -3.42057E+04
  4.16194E+04 -9.96856E+03  3.64130E+04  2.38392E+04  1.82222E+04  4.78470E+04 -7.58986E+03  5.16974E+04
 -3.26317E+04  3.47555E+04 -4.27168E+04  9.67240E+03 -4.35525E+04 -1.61684E+04 -2.45261E+04 -3.89400E+04
  7.37014E+03 -3.85460E+04  3.18489E+04 -1.54323E+04  2.95016E+04  1.15376E+04  4.39568E+03  2.04529E+04
 -1.38266E+04  8.84494E+03 -1.02586E+04 -7.60514E+03  6.03988E+03 -1.07619E+04  1.84337E+04  5.50279E+03
  1.38586E+04  2.20846E+04 -5.81765E+03  2.54073E+04 -2.22530E+04  1.16033E+04 -2.84467E+04 -4.39030E+03
 -2.19728E+04 -1.81683E+04 -8.95480E+03 -2.12713E+04  3.74018E+03 -2.05698E+04  1.68484E+04 -1.91879E+04
  2.70351E+04 -1.32327E+04  3.38935E+04  2.98006E+03  2.39114E+04  2.09805E+04  4.31739E+03  3.80485E+04
 -1.77463E+04  3.18347E+04 -2.84743E+04  1.13130E+04 -2.08173E+04 -1.04478E+04 -4.01357E+03 -1.30774E+04
  1.30882E+03 -2.77401E+03 -5.03830E+03  7.77839E+03 -1.68007E+04  5.33164E+03 -1.70778E+04 -7.29744E+03
 -1.04517E+04 -1.99531E+04  5.44655E+03 -2.36387E+04  1.61377E+04 -1.69109E+04  1.98658E+04 -2.22362E+03
  1.22905E+04  1.36245E+04 -9.95241E+02  2.06331E+04 -1.34642E+04  1.12139E+04 -2.04280E+04 -4.33916E+03
 -1.40972E+04 -1.80752E+04 -2.02842E+03 -2.44050E+04  1.10504E+04 -2.01423E+04  1.97946E+04 -1.00624E+04
  1.91862E+04  7.47522E+02  1.37101E+04  5.18018E+03  6.76319E+03  1.01227E+03  1.00487E+04 -2.05604E+03
  1.84842E+04  2.23913E+03  2.14027E+04  1.57081E+04  1.33436E+04  3.19820E+04 -2.60621E+03  3.67876E+04
 -2.04444E+04  2.90532E+04 -3.36524E+04  1.46194E+04 -3.55353E+04 -2.29044E+03 -2.86238E+04 -2.07099E+04
 -1.22286E+04 -2.90090E+04  1.00587E+04 -2.62293E+04  2.25698E+04 -1.30886E+04  2.03750E+04  6.09191E+03
  7.56030E+03  1.51427E+04 -9.58752E+03  1.32000E+04 -1.75716E+04  2.20267E+03 -1.25656E+04 -1.04888E+04
  5.00074E+01 -1.59236E+04  8.27076E+03 -1.17527E+04  1.07265E+04 -1.63020E+03  3.16401E+03  6.82787E+03
 -7.60344E+03  2.67409E+03 -6.82235E+03 -5.58368E+03 -4.19983E+02 -1.43205E+04  1.01141E+04 -1.54708E+04
  1.74812E+04 -8.03141E+03  1.95517E+04  3.03621E+03  1.69998E+04  1.44611E+04  7.96953E+03  2.16745E+04
 -4.09485E+03  2.37259E+04 -1.48366E+04  1.50161E+04 -1.69738E+04  3.28516E+03 -1.09031E+04 -3.72861E+03
 -5.41913E+03 -5.49981E+03 -8.69099E+02  1.14305E+03 -2.71966E+03  2.97296E+03 -5.29293E+03  4.68416E+03
 -1.10250E+04 -9.32397E+02 -1.18829E+04 -9.20450E+03 -4.98970E+03 -1.56986E+04  5.27314E+03 -1.18883E+04
  1.08249E+04 -5.43258E+03  7.17086E+03  3.47689E+03  1.18993E+02  4.30971E+03 -6.13675E+03 -4.38479E+02
 -5.14034E+03 -7.36967E+03 -7.91208E+02 -1.14665E+04  6.22053E+03 -1.26740E+04  1.57609E+04 -6.69785E+03
  1.77773E+04  1.88813E+03  1.30683E+04  1.01061E+04  2.66096E+03  1.38063E+04 -7.67671E+03  1.14873E+04
 -1.05642E+04  3.90147E+03 -4.77528E+03 -2.38024E+03  1.65834E+03 -3.81777E+03  6.77305E+03 -7.23866E+02
  5.18928E+03  4.91237E+03  9.82522E+02  8.76682E+03 -6.88847E+03  9.35340E+03 -1.13064E+04  2.24406E+03
 -8.01128E+03 -5.91887E+03  7.28228E+02 -1.04287E+04  6.18195E+03 -4.61616E+03  7.23396E+03  1.75250E+03
  1.23351E+03  6.75863E+03 -6.64275E+03  8.01950E+03 -9.73409E+03  3.85086E+03 -9.12368E+03 -2.51866E+03
 -5.35908E+03 -1.06727E+04  2.62462E+03 -1.25823E+04  1.08642E+04 -7.51048E+03  1.08915E+04  1.94575E+03
  7.47099E+03  1.00697E+04 -1.38339E+03  1.05331E+04 -8.15452E+03  6.79319E+03 -9.32568E+03 -1.04598E+03
 -8.50182E+03 -8.13664E+03 -1.51168E+03 -8.69384E+03  5.55378E+03 -6.95617E+03  5.40380E+03 -3.09238E+03
  3.84064E+03  5.63865E+02 -6.33505E+02  1.91325E+03 -4.50085E+01 -2.08394E+03  9.15946E+02 -4.64413E+03
  7.10622E+03 -3.12390E+03  1.12453E+04  1.83608E+03  9.61118E+03  7.58141E+03  7.61049E+03  1.31069E+04
 -3.25570E+03  1.55666E+04 -1.32016E+04  1.14637E+04 -1.75717E+04  2.41537E+03 -1.36838E+04 -5.42117E+03
 -7.66485E+03 -1.13927E+04  1.07757E+02 -9.72123E+03  3.51057E+03 -4.79369E+03  3.10438E+03 -3.65798E+03
  2.47876E+03 -2.03307E+03  2.69454E+03 -2.79854E+03  4.24133E+03 -2.21991E+03  6.10304E+03  2.87489E+02
  7.06338E+03  2.43347E+03  3.60448E+03  5.91273E+03 -1.87270E+03  6.93609E+03 -8.47050E+03  6.21560E+03
 -9.57793E+03 -1.37775E+03 -5.23693E+03 -6.37619E+03 -7.80769E+02 -1.03650E+04  6.74664E+03 -1.07185E+04
  9.86994E+03 -5.49050E+03  1.29611E+04  9.11687E+02  8.31922E+03  8.59361E+03  1.88832E+03  1.15799E+04
 -4.43588E+03  9.96720E+03 -6.19076E+03  3.50088E+03 -3.89160E+03 -1.57588E+03 -2.06558E+03 -1.28277E+03
 -1.04909E+03 -1.64049E+02 -2.14061E+03  2.68942E+03 -4.38470E+03  2.28349E+03 -6.83034E+03 -1.64505E+03
 -3.93821E+03 -7.16479E+03  7.88132E+02 -9.18906E+03  5.88338E+03 -8.46713E+03  8.56801E+03 -3.07417E+03
  8.68755E+03  4.81449E+03  4.27904E+03  7.95619E+03 -2.13472E+03  9.61825E+03 -6.65711E+03  5.03976E+03
 -8.35042E+03  6.05289E+02 -6.52471E+03 -5.37937E+03 -1.02882E+03 -7.21706E+03  3.18395E+03 -5.47297E+03
  6.34364E+03 -2.81299E+03  3.58038E+03  1.12999E+03  1.43209E+03  3.09350E+03  1.39474E+03  1.23405E+03
  1.88379E+03  4.29312E+02  2.34872E+03  1.61241E+03  2.91354E+03  3.24236E+03  2.31913E+03  4.69369E+03
 -2.03407E+03  7.52544E+03 -5.96506E+03  7.32962E+03 -8.29831E+03  2.51143E+03 -9.20124E+03 -2.57037E+03
 -4.31674E+03 -8.69400E+03  1.57953E+03 -9.86170E+03  5.34991E+03 -6.08149E+03  7.53530E+03 -1.83974E+03
  6.20024E+03  3.27198E+03  1.70177E+03  5.58951E+03 -1.86815E+03  2.75380E+03 -2.76788E+03 -6.35013E+02
 -1.36145E+03 -3.58750E+03  1.55317E+03 -3.69410E+03  3.18087E+03 -2.04940E+03  3.48440E+03  1.26826E+03
  1.74201E+03  1.40444E+03  9.62024E+02  6.85931E+02 -6.10466E+02  1.95482E+03  1.82228E+03 -6.82994E+02
  5.08648E+02 -2.74146E+02  3.50465E+03  1.82568E+03  1.96310E+03  5.12536E+03 -6.51763E+02  6.82970E+03
 -4.08147E+03  3.47103E+03 -5.79487E+03  5.79835E+02 -5.08062E+03 -2.02930E+03 -1.65433E+03 -2.60849E+03
  1.15797E+03 -3.85442E+03  1.50261E+03 -1.74612E+03  1.94490E+03  1.77088E+03 -8.95087E+02  3.31480E+03
 -3.64806E+03  1.62814E+03 -3.52624E+03 -2.93787E+03 -2.21597E+03 -4.42096E+03  4.10430E+02 -4.98804E+03
  2.23108E+03 -2.48677E+03  2.57153E+03 -3.35683E+02  2.79837E+03  1.05008E+03  1.06182E+03  2.19711E+03
 -8.86782E+02  9.52705E+02 -2.37488E+03 -1.28268E+03  1.08061E+03 -3.51996E+03  4.15108E+03 -2.77757E+03
  4.52841E+03  3.70394E+02  5.62817E+03  2.69231E+03  1.96926E+03  5.48502E+03 -2.01375E+03  5.30264E+03
 -4.00053E+03  1.62925E+03 -4.12622E+03 -6.59161E+02 -2.04008E+03 -3.46643E+03  6.61683E+02 -2.81446E+03
  3.53214E+03 -6.55447E+02  2.68140E+03  1.37913E+03  2.99183E+02  3.25112E+03 -1.18275E+02  2.96108E+03
 -1.02674E+03  1.65269E+03 -1.06400E+03  8.36347E+02 -1.38405E+02  7.29400E+02 -1.49062E+03  1.21364E+03
 -1.32046E+03  1.13189E+03 -3.82173E+03  1.61537E+03 -4.99141E+03  2.97631E+02 -5.68091E+03 -3.13945E+03
 -3.22063E+03 -6.73049E+03  1.20451E+03 -7.46533E+03  4.53869E+03 -6.55607E+03  6.91318E+03 -2.27797E+03
  6.76652E+03  1.10010E+03  4.00740E+03  4.64552E+03  1.96126E+02  4.99415E+03 -1.84201E+03  3.71181E+03
 -3.35922E+03  1.87691E+03 -1.71164E+03 -1.93069E+02 -1.30089E+03 -2.89078E+02 -1.16008E+03 -4.13357E+02
 -9.87317E+02 -2.79148E+02 -1.42998E+03  2.89705E+01  4.34580E+01 -1.79787E+03 -2.98069E+01 -2.10600E+03
  2.03979E+03 -2.03914E+03  3.18185E+03 -8.80615E+01  4.24428E+03  2.94965E+03  5.90264E+02  5.10403E+03
 -2.51364E+03  6.12939E+03 -5.23659E+03  3.54175E+03 -5.75361E+03 -1.01722E+03 -4.56680E+03 -3.14517E+03
 -2.45258E+03 -4.52253E+03  1.72795E+03 -4.19043E+03  2.44543E+03 -2.39580E+03  3.19989E+03  2.05900E+02
  2.10964E+03  1.86652E+03  6.36738E+01  1.03576E+03 -7.74812E+02  3.41312E+01  1.95455E+02 -4.23879E+02
  1.42884E+03 -6.63906E+02  1.72669E+03  9.47771E+02  1.39323E+03  1.67774E+03  1.57772E+02  2.01483E+03
 -1.34748E+03  2.35181E+03 -2.84349E+03  3.90319E+02 -3.32357E+03 -2.09100E+03 -7.45072E+02 -4.27444E+03
  2.49465E+03 -2.71886E+03  3.44900E+03 -7.67948E+02  3.22492E+03  7.22268E+02  2.00422E+03  2.41237E+03
  5.87383E+02  3.62655E+03 -9.92658E+02  2.33261E+03 -1.86212E+03  1.84093E+03 -9.21707E+02  3.77542E+02
 -7.10236E+02  6.04364E+01 -1.15259E+03 -1.75848E+02 -1.56096E+03  7.28129E+02 -2.05874E+03 -6.59873E+02
 -2.51879E+03 -1.00394E+03  3.16716E+02 -2.75917E+03  1.33057E+03 -3.93719E+03  2.83987E+03 -1.14287E+03
  2.90702E+03  3.63057E+02  1.47570E+03  1.54446E+03  1.18559E+02  2.98358E+03 -2.70315E+03  1.68456E+03
