 $NMID ID='MM_0lb_SNR400_18hz_g45_2.RAW', FMTDAT='(8E13.5)'
 TRAMP=1., VOLUME=1. $END
  3.10154E+05  5.79425E+02  3.37301E+05  2.49731E+05  8.46001E+04  3.37513E+05 -1.32356E+05  2.49901E+05
 -1.89969E+05  8.27032E+04 -1.11500E+05 -3.31917E+04  1.43305E+03 -5.05666E+04  5.37333E+04  1.46807E+02
  3.51916E+04  5.30068E+04 -1.69823E+04  7.49428E+04 -6.07746E+04  6.29784E+04 -8.34302E+04  3.13728E+04
 -7.97560E+04 -1.15407E+04 -5.65855E+04 -5.04030E+04 -1.47152E+04 -6.81033E+04  2.68994E+04 -4.51974E+04
  3.95231E+04  4.29152E+03  1.57534E+04  4.75355E+04 -3.40377E+04  4.62790E+04 -6.54109E+04 -6.80085E+02
 -5.17401E+04 -5.56045E+04 -6.61704E+03 -7.51565E+04  3.28170E+04 -5.33274E+04  4.67228E+04 -1.61195E+04
  4.13461E+04  1.11331E+04  3.08587E+04  2.44960E+04  1.60545E+04  2.84748E+04 -4.80175E+03  2.66020E+04
 -2.20017E+04  1.24735E+04 -1.94524E+04 -4.60817E+03  4.28934E+03 -7.70527E+03  2.12992E+04  1.09548E+04
  7.84757E+03  3.33819E+04 -3.07253E+04  3.40716E+04 -6.14180E+04  1.53844E+03 -5.56721E+04 -4.11495E+04
 -1.26832E+04 -6.08817E+04  3.80327E+04 -4.33059E+04  5.53286E+04 -1.72762E+03  3.20540E+04  3.04859E+04
 -6.25470E+03  3.33718E+04 -2.84786E+04  1.30327E+04 -2.80978E+04 -5.17137E+03 -1.45658E+04 -1.04896E+04
 -7.48100E+03 -1.18102E+04 -8.88810E+02 -1.64253E+04  6.68165E+03 -2.25595E+04  1.48963E+04 -1.37461E+04
  1.24498E+04  4.33948E+03 -6.42048E+03  1.30418E+04 -1.91499E+04 -2.18057E+03 -8.20090E+03 -3.02942E+04
  2.14357E+04 -4.07188E+04  4.47965E+04 -1.85835E+04  4.26021E+04  1.87897E+04  1.43183E+04  4.11834E+04
 -1.52966E+04  3.06717E+04 -2.33620E+04  9.58172E+02 -8.74047E+03 -2.64781E+04  2.03763E+04 -3.11149E+04
  3.80233E+04 -7.59541E+03  3.18555E+04  2.23919E+04  1.54075E+04  4.26764E+04 -8.11950E+03  4.54028E+04
 -2.89091E+04  2.99000E+04 -3.77978E+04  8.62837E+03 -3.86340E+04 -1.53286E+04 -2.18343E+04 -3.45795E+04
  7.16369E+03 -3.50031E+04  2.92723E+04 -1.33500E+04  2.69206E+04  1.08607E+04  2.61781E+03  1.82410E+04
 -1.36230E+04  7.56557E+03 -9.40631E+03 -7.12054E+03  5.47383E+03 -1.01103E+04  1.73406E+04  5.80852E+03
  1.22016E+04  2.16719E+04 -6.67808E+03  2.29409E+04 -2.19017E+04  9.17113E+03 -2.54835E+04 -6.19836E+03
 -1.68018E+04 -1.64602E+04 -6.12900E+03 -1.68817E+04  3.66345E+03 -1.45893E+04  1.26587E+04 -1.44830E+04
  2.15621E+04 -1.15352E+04  2.79715E+04  1.65151E+03  2.09518E+04  1.65540E+04  4.07328E+03  3.26461E+04
 -1.57724E+04  2.86256E+04 -2.59248E+04  9.67715E+03 -1.91731E+04 -1.03456E+04 -3.26190E+03 -1.40546E+04
  3.03621E+03 -3.98637E+03 -3.04209E+03  6.01386E+03 -1.27494E+04  5.24200E+03 -1.33983E+04 -5.18755E+03
 -8.99154E+03 -1.52397E+04  4.72029E+03 -1.95231E+04  1.26540E+04 -1.45475E+04  1.50529E+04 -1.44450E+03
  9.49798E+03  1.08338E+04 -8.36872E+02  1.57219E+04 -1.02372E+04  8.92808E+03 -1.62165E+04 -3.57194E+03
 -1.23188E+04 -1.43200E+04 -1.07020E+03 -1.89693E+04  8.30764E+03 -1.51415E+04  1.62040E+04 -7.61459E+03
  1.45233E+04  7.41871E+02  1.02579E+04  3.50670E+03  5.35330E+03  3.43424E+02  7.72883E+03 -1.52280E+03
  1.44010E+04  2.89382E+03  1.51175E+04  1.27585E+04  9.57367E+03  2.60160E+04 -3.59628E+03  2.68299E+04
 -1.59052E+04  2.10410E+04 -2.48326E+04  1.08400E+04 -2.43812E+04 -1.91106E+03 -2.22292E+04 -1.47664E+04
 -9.97497E+03 -2.14298E+04  6.87466E+03 -1.86149E+04  1.66449E+04 -1.09198E+04  1.57275E+04  3.60870E+03
  6.63108E+03  1.15476E+04 -7.00042E+03  1.02500E+04 -1.39072E+04  2.56327E+03 -1.03856E+04 -7.97725E+03
 -2.45930E+02 -1.26911E+04  6.25280E+03 -9.18589E+03  7.79074E+03 -1.47798E+03  1.85106E+03  4.37092E+03
 -5.50403E+03  1.40412E+03 -3.87901E+03 -4.90401E+03  6.60683E+02 -1.02174E+04  8.10154E+03 -9.94529E+03
  1.24947E+04 -4.45971E+03  1.25087E+04  2.77626E+03  1.10011E+04  9.36414E+03  5.06928E+03  1.46202E+04
 -2.57869E+03  1.62766E+04 -9.27834E+03  1.03352E+04 -1.15579E+04  3.18537E+03 -8.86781E+03 -1.62872E+03
 -4.36935E+03 -3.19452E+03 -8.55824E+02  1.59588E+03 -1.70588E+03  1.86282E+03 -3.52066E+03  3.85068E+03
 -8.34771E+03 -1.61474E+02 -9.08991E+03 -6.82526E+03 -3.38471E+03 -1.15628E+04  2.63510E+03 -8.43676E+03
  7.69897E+03 -4.18863E+03  5.08016E+03  1.96708E+03  4.16441E+02  2.82511E+03 -3.70979E+03 -1.23386E+02
 -3.33118E+03 -4.95807E+03 -7.08023E+02 -7.50164E+03  4.39877E+03 -7.66591E+03  9.95005E+03 -4.25046E+03
  1.20376E+04  9.41878E+02  8.95886E+03  6.36114E+03  2.24444E+03  9.01463E+03 -5.55712E+03  8.49613E+03
 -6.81265E+03  2.69855E+03 -3.53675E+03 -9.76950E+02  1.76665E+03 -2.22472E+03  4.83291E+03 -8.25437E+02
  3.96250E+03  3.36195E+03  7.56689E+02  7.54659E+03 -4.13551E+03  6.57313E+03 -8.21901E+03  1.92484E+03
 -5.54786E+03 -4.08923E+03  9.85510E+01 -6.75925E+03  3.69098E+03 -3.79041E+03  3.55129E+03  9.72017E+02
  5.76364E+02  3.52546E+03 -4.34114E+03  4.83269E+03 -5.37899E+03  2.65476E+03 -4.72274E+03 -8.86717E+02
 -2.71338E+03 -6.61344E+03  1.26713E+03 -7.28705E+03  7.24233E+03 -4.64472E+03  6.52064E+03  8.47730E+02
  5.28789E+03  5.84191E+03  3.33253E+02  7.54357E+03 -4.76908E+03  4.54885E+03 -5.39481E+03 -6.74408E+02
 -5.57258E+03 -5.64467E+03 -1.63370E+03 -5.37957E+03  2.25748E+03 -5.36357E+03  3.40837E+03 -2.96622E+03
  2.29029E+03 -9.69718E+01 -9.63961E+01  1.20091E+03  7.52489E+02  3.40481E+02 -1.46344E+02 -2.41333E+03
  3.64722E+03 -1.19970E+03  5.69538E+03  8.79409E+02  5.44177E+03  3.13469E+03  5.14231E+03  7.47413E+03
 -1.01811E+03  8.35551E+03 -7.78923E+03  6.91573E+03 -1.09234E+04  7.63646E+02 -8.17246E+03 -2.48015E+03
 -4.56549E+03 -6.85942E+03 -1.56687E+02 -5.60338E+03  1.69655E+03 -2.71401E+03  1.93546E+03 -2.12243E+03
  1.11001E+03 -1.70439E+03  2.41343E+03 -2.42413E+03  3.37088E+03 -1.82402E+03  3.96405E+03  9.30532E+02
  4.55430E+03  9.43078E+02  9.95141E+02  3.97206E+03 -1.28277E+03  3.21554E+03 -4.83324E+03  2.34672E+03
 -5.30541E+03 -1.15943E+03 -1.50169E+03 -3.94445E+03  7.68855E+02 -5.58492E+03  3.33440E+03 -5.31411E+03
  5.57560E+03 -3.45872E+03  7.02739E+03  4.79503E+02  5.44277E+03  4.24724E+03  7.56293E+02  5.57812E+03
 -2.43252E+03  6.15202E+03 -4.10855E+03  1.78177E+03 -2.35158E+03 -1.14472E+03 -5.00287E+02 -8.82313E+02
 -4.73136E+02  2.52362E+02 -5.94536E+02  1.83049E+03 -2.26738E+03  1.53129E+03 -4.50188E+03 -2.61332E+01
 -1.65950E+03 -4.12876E+03  5.60892E+02 -4.84058E+03  2.87210E+03 -4.65263E+03  3.98868E+03 -9.81201E+02
  4.37099E+03  2.90562E+03  1.98959E+03  3.80093E+03 -1.01131E+03  4.34514E+03 -2.92673E+03  3.22017E+03
 -4.16722E+03  8.40920E+02 -3.24490E+03 -2.81252E+03 -8.37903E+01 -3.43761E+03  1.67657E+03 -2.80995E+03
  2.74676E+03 -1.23026E+03  1.58563E+03  8.78568E+02  3.91502E+02  1.64497E+03  1.26227E+03  3.93184E+02
  1.86089E+03  7.57586E+02  1.48113E+03  1.40951E+03  1.17105E+03  1.99104E+03  5.06202E+02  1.54573E+03
 -1.60979E+03  3.04720E+03 -2.79639E+03  4.40567E+03 -3.19787E+03  1.57904E+03 -4.58114E+03 -3.99759E+02
 -2.15714E+03 -4.27396E+03  6.73472E+02 -4.85747E+03  2.06558E+03 -3.13619E+03  3.91791E+03 -7.88474E+02
  2.41237E+03  1.53866E+03  9.21542E+02  2.47245E+03 -8.77931E+02  1.33263E+03 -1.12896E+03 -4.78411E+01
 -4.73153E+02 -1.59839E+03  1.42831E+03 -2.08232E+03  1.33228E+03 -8.74167E+02  1.28780E+03  2.08308E+02
  1.14925E+03  8.89759E+02  1.49531E+03 -7.90413E+02 -2.54142E+02  1.07314E+03  1.44333E+03 -2.36197E+02
 -2.96300E+02 -5.05709E+02  1.60263E+03  1.00327E+03  1.84245E+02  2.58422E+03 -5.80465E+02  3.07754E+03
 -1.54856E+03  1.96677E+03 -1.85181E+03  5.18249E+02 -2.63354E+03 -1.32525E+03  1.92610E+02 -1.14151E+03
 -2.19767E+02 -1.42344E+03  7.29063E+02 -1.05541E+03  1.10069E+03  1.38367E+03 -8.70613E+02  1.27594E+03
 -1.52030E+03  5.28767E+02 -1.53350E+03 -1.78802E+03 -8.09577E+02 -2.11201E+03  3.39779E+02 -1.63478E+03
  1.49089E+01 -1.84610E+02  1.11661E+03  4.40782E+02  1.39942E+03 -2.46084E+02  1.90247E+02  1.38410E+03
 -5.83826E+02  2.22356E+02 -5.68638E+02 -5.90423E+02  8.35170E+02 -9.72136E+02  1.86944E+03 -1.60260E+03
  1.37601E+03 -1.06930E+02  3.33550E+03  5.06803E+02  1.19886E+03  1.98845E+03 -2.91658E+02  2.53389E+03
 -9.69932E+02  1.85910E+02 -1.46949E+03  1.09520E+02 -8.72671E+02 -1.43003E+03 -1.07720E+01 -5.32383E+02
  2.19214E+03 -1.09793E+03  2.99736E+02  8.45482E+02 -1.82104E+01  9.05735E+02  6.50419E+02  1.51246E+03
 -5.57992E+02  6.09202E+02 -7.20914E+02  8.73137E+02 -2.03009E+02  3.69508E+02 -8.47667E+02  7.76246E+02
 -8.55120E+02  1.37730E+03 -1.87382E+03  4.41159E+02 -1.82674E+03  6.28615E+02 -1.84299E+03 -1.40042E+03
 -1.04996E+03 -2.59501E+03  6.91733E+02 -2.75656E+03  1.13283E+03 -2.30705E+03  2.30091E+03 -1.95143E+03
  2.84115E+03  1.39988E+02  1.33543E+03  2.15264E+03 -6.28018E+02  1.21864E+03 -8.95893E+02  1.35882E+03
 -1.44487E+03  6.05053E+02 -7.62487E+02  3.15218E+02 -9.00549E+02 -2.56692E+02 -4.58777E+02 -1.60748E+02
 -7.46628E+02  6.97178E+01 -6.14033E+02  6.18962E+01 -1.16121E+02 -5.64277E+02  5.67354E+01 -9.42651E+02
  1.67982E+03 -8.52250E+02  6.46849E+02  3.55248E+02  1.41132E+03  8.36228E+02 -6.74019E+02  1.62931E+03
 -9.93451E+02  2.34088E+03 -1.84002E+03  8.21006E+02 -2.41564E+03 -9.31659E+01 -1.83880E+03 -1.24693E+03
 -8.78519E+02 -1.64265E+03  3.08130E+02 -1.46844E+03  9.83260E+01 -5.84772E+02  1.27879E+03  1.82341E+02
  5.64481E+02  3.19885E+02  5.59387E+01  6.43330E+02 -2.97874E+02  1.02406E+02  3.73433E+01 -2.60432E+02
  5.88832E+02 -3.73314E+01  2.00529E+02  8.79853E+02 -2.99664E+02  6.01418E+02  3.39646E+02  7.65615E+02
 -5.90582E+02  5.32284E+02 -5.83879E+02 -2.88265E+02 -4.90437E+02 -6.07639E+02 -2.32038E+02 -9.33793E+02
  6.66229E+02 -4.21840E+02  4.36746E+02  1.60725E+02  1.13175E+03 -9.67215E+02  4.87512E+02  8.59353E+02
  3.67682E+02  8.81136E+02 -5.18486E+02  8.37947E+02 -6.99230E+02  6.13325E+02 -5.83121E+02  1.81223E+02
 -5.16289E+02 -8.09988E+02 -5.01582E+02  4.06098E+02 -2.81569E+02  1.60400E+02 -1.24412E+03 -5.18176E+02
 -1.19197E+03  2.26795E+02  3.85804E+01 -9.59586E+02  8.18511E+02 -1.10750E+03  8.61956E+02  1.02449E+01
  3.70068E+02  8.01784E+01 -2.46557E+02  5.17740E+02 -3.45350E+01  8.69628E+02 -6.61031E+02  8.15695E+02
