 $NMID ID='MM_0lb_SNR400_10hz_g45_94.RAW', FMTDAT='(8E13.5)'
 TRAMP=1., VOLUME=1. $END
  3.09666E+05  8.28920E+02  3.38113E+05  2.50448E+05  8.55990E+04  3.37671E+05 -1.32917E+05  2.51187E+05
 -1.91400E+05  8.35875E+04 -1.11911E+05 -3.23764E+04  3.32829E+02 -5.07275E+04  5.38460E+04 -2.46441E+02
  3.57587E+04  5.23883E+04 -1.69304E+04  7.53018E+04 -6.10346E+04  6.40950E+04 -8.48829E+04  3.17461E+04
 -8.11476E+04 -1.14816E+04 -5.73885E+04 -5.17677E+04 -1.45902E+04 -7.11424E+04  2.82053E+04 -4.61927E+04
  4.04879E+04  3.20746E+03  1.71261E+04  4.88004E+04 -3.44235E+04  4.75601E+04 -6.74343E+04 -5.36155E+01
 -5.41294E+04 -5.83831E+04 -8.06643E+03 -7.85700E+04  3.49362E+04 -5.72892E+04  4.96964E+04 -1.89780E+04
  4.45417E+04  1.17820E+04  3.22785E+04  2.63245E+04  1.53981E+04  3.09021E+04 -5.40050E+03  2.75728E+04
 -2.20382E+04  1.26369E+04 -1.81275E+04 -5.45528E+03  5.78176E+03 -7.46505E+03  2.35713E+04  1.32250E+04
  7.02805E+03  3.71162E+04 -3.27415E+04  3.73409E+04 -6.52554E+04  1.68535E+03 -5.84493E+04 -4.44587E+04
 -1.20992E+04 -6.49283E+04  4.20749E+04 -4.66737E+04  6.07079E+04 -2.57584E+03  3.62607E+04  3.38181E+04
 -5.31119E+03  3.78802E+04 -3.13965E+04  1.70645E+04 -3.27458E+04 -3.97973E+03 -1.96113E+04 -1.20554E+04
 -8.77743E+03 -1.39563E+04  8.93935E+01 -1.92897E+04  7.63894E+03 -2.34873E+04  1.53137E+04 -1.32579E+04
  1.09008E+04  5.35672E+03 -1.00532E+04  1.30283E+04 -2.22744E+04 -6.13562E+03 -8.17093E+03 -3.65892E+04
  2.46955E+04 -4.61428E+04  5.02926E+04 -2.12350E+04  4.70420E+04  2.03515E+04  1.68471E+04  4.55614E+04
 -1.69078E+04  3.60213E+04 -2.72789E+04  2.19194E+03 -1.13712E+04 -2.92752E+04  2.15349E+04 -3.57198E+04
  4.39598E+04 -1.09624E+04  3.85942E+04  2.41726E+04  1.97430E+04  4.99830E+04 -8.08192E+03  5.43966E+04
 -3.44794E+04  3.69067E+04 -4.59210E+04  1.08534E+04 -4.66957E+04 -1.87058E+04 -2.51007E+04 -4.11111E+04
  7.75689E+03 -4.07522E+04  3.31217E+04 -1.56957E+04  3.15611E+04  1.11330E+04  4.44143E+03  2.02172E+04
 -1.42833E+04  8.89581E+03 -1.07905E+04 -7.43784E+03  6.15851E+03 -1.09784E+04  1.80940E+04  5.48017E+03
  1.40544E+04  2.29570E+04 -4.68438E+03  2.59652E+04 -2.34219E+04  1.43721E+04 -3.00346E+04 -4.53859E+03
 -2.37688E+04 -1.79138E+04 -1.08354E+04 -2.37430E+04  4.60264E+03 -2.35496E+04  1.78686E+04 -2.15478E+04
  2.99539E+04 -1.41093E+04  3.64458E+04  4.58091E+03  2.54408E+04  2.27241E+04  4.60118E+03  3.98376E+04
 -1.90562E+04  3.25932E+04 -2.99131E+04  1.15559E+04 -2.22951E+04 -1.02497E+04 -4.93722E+03 -1.36807E+04
  1.65087E+03 -1.16707E+03 -7.36783E+03  7.94117E+03 -1.90786E+04  4.87973E+03 -1.90286E+04 -8.28541E+03
 -1.07467E+04 -2.16231E+04  5.60458E+03 -2.57488E+04  1.72537E+04 -1.89922E+04  2.15471E+04 -1.07238E+03
  1.32301E+04  1.51044E+04 -7.35428E+02  2.14481E+04 -1.52732E+04  1.26777E+04 -2.19668E+04 -4.54146E+03
 -1.65825E+04 -1.98775E+04 -1.44148E+03 -2.64616E+04  1.24678E+04 -2.15555E+04  2.20115E+04 -1.09823E+04
  2.08608E+04 -3.95937E+02  1.46875E+04  5.44383E+03  8.55737E+03  1.01321E+03  1.09846E+04 -2.04715E+03
  1.98941E+04  3.22207E+03  2.34339E+04  1.71747E+04  1.53955E+04  3.51580E+04 -3.42877E+03  4.13054E+04
 -2.38898E+04  3.44248E+04 -3.89114E+04  1.66769E+04 -4.14415E+04 -2.85010E+03 -3.37635E+04 -2.47071E+04
 -1.32020E+04 -3.44105E+04  1.15406E+04 -3.01999E+04  2.62149E+04 -1.41788E+04  2.19196E+04  6.75521E+03
  7.48454E+03  1.77152E+04 -1.07121E+04  1.44258E+04 -1.87363E+04  2.62201E+03 -1.48636E+04 -1.18304E+04
 -5.31635E+02 -1.80510E+04  9.77183E+03 -1.39857E+04  1.25817E+04 -1.60064E+03  3.21055E+03  7.80161E+03
 -7.84038E+03  3.40655E+03 -9.05682E+03 -7.07972E+03 -1.63733E+03 -1.65220E+04  1.15964E+04 -1.78479E+04
  2.08238E+04 -1.02270E+04  2.31849E+04  3.04077E+03  2.05952E+04  1.75362E+04  9.29504E+03  2.62239E+04
 -4.38597E+03  2.90723E+04 -1.81737E+04  1.77733E+04 -2.05313E+04  3.48269E+03 -1.40470E+04 -5.46675E+03
 -6.16991E+03 -7.20661E+03 -9.03499E+02  5.47850E+02 -3.18048E+03  3.56315E+03 -6.69951E+03  5.07952E+03
 -1.31181E+04 -1.29424E+03 -1.42355E+04 -1.06909E+04 -4.72190E+03 -1.80179E+04  5.79861E+03 -1.45954E+04
  1.20565E+04 -6.60255E+03  7.88676E+03  3.82394E+03 -4.53655E+02  6.35265E+03 -6.88293E+03 -7.12766E+02
 -6.88519E+03 -9.54087E+03 -8.56510E+02 -1.32975E+04  8.26829E+03 -1.57102E+04  1.85563E+04 -7.83275E+03
  2.11369E+04  2.59159E+03  1.53112E+04  1.19220E+04  3.88140E+03  1.68987E+04 -8.36587E+03  1.48783E+04
 -1.16183E+04  3.87745E+03 -6.72695E+03 -3.28939E+03  1.92663E+03 -4.26060E+03  7.24281E+03 -1.09969E+03
  7.17722E+03  6.21663E+03  1.31358E+03  1.13795E+04 -7.92246E+03  1.07339E+04 -1.37226E+04  3.02353E+03
 -9.36017E+03 -7.40762E+03  9.98438E+01 -1.26549E+04  8.03098E+03 -6.15395E+03  8.55047E+03  2.74093E+03
  2.31592E+03  7.84102E+03 -6.87523E+03  1.01868E+04 -1.23875E+04  4.24845E+03 -1.18675E+04 -3.75455E+03
 -7.35513E+03 -1.31742E+04  3.82272E+03 -1.57214E+04  1.29166E+04 -8.88139E+03  1.52886E+04  2.91272E+03
  9.08566E+03  1.22634E+04 -1.14746E+03  1.40814E+04 -1.02868E+04  7.23294E+03 -1.03975E+04 -8.67186E+02
 -1.01982E+04 -8.95751E+03 -2.28840E+03 -1.02318E+04  5.78006E+03 -8.26508E+03  7.13716E+03 -3.76976E+03
  4.45554E+03  1.25555E+03 -1.52428E+03  1.71302E+03 -3.63372E+02 -3.03935E+03  2.33663E+03 -6.59289E+03
  9.55837E+03 -4.26217E+03  1.43157E+04  1.92382E+03  1.33323E+04  9.41935E+03  8.46057E+03  1.79663E+04
 -4.32586E+03  2.10921E+04 -1.82833E+04  1.48886E+04 -2.23975E+04  2.85022E+03 -1.80973E+04 -7.38646E+03
 -9.45236E+03 -1.46970E+04 -2.89301E+02 -1.22612E+04  4.44939E+03 -6.91088E+03  4.37027E+03 -4.26242E+03
  3.71240E+03 -3.27358E+03  3.63265E+03 -3.84202E+03  6.03397E+03 -2.91787E+03  7.53901E+03 -1.53133E+03
  9.82669E+03  2.48695E+03  5.25109E+03  9.10038E+03 -2.84673E+03  1.05690E+04 -9.62528E+03  7.29537E+03
 -1.31107E+04 -9.28164E+02 -8.27004E+03 -9.09973E+03 -5.79868E+02 -1.40816E+04  8.31917E+03 -1.37447E+04
  1.41088E+04 -8.19190E+03  1.76519E+04  2.48589E+03  1.16848E+04  1.13631E+04  1.47468E+03  1.47468E+04
 -6.22524E+03  1.31980E+04 -8.66205E+03  4.29692E+03 -4.77857E+03 -1.33765E+03 -1.93464E+03 -1.70999E+03
 -9.78034E+02 -1.02445E+02 -1.83390E+03  2.34113E+03 -5.37424E+03  2.31751E+03 -9.18329E+03 -1.24487E+03
 -6.00915E+03 -9.20476E+03  3.09792E+02 -1.26146E+04  7.79862E+03 -1.19034E+04  1.32595E+04 -3.56900E+03
  1.34156E+04  6.88436E+03  6.31187E+03  1.03873E+04 -1.97804E+03  1.29331E+04 -8.46939E+03  7.58694E+03
 -1.16447E+04  2.45350E+02 -8.85187E+03 -7.76495E+03 -1.37853E+03 -1.06475E+04  5.19715E+03 -8.19779E+03
  8.88983E+03 -2.33898E+03  5.86366E+03  2.70500E+03  1.64662E+03  3.56384E+03  1.10020E+03  2.37321E+03
  2.61766E+03  5.84780E+02  2.72190E+03  1.55413E+03  4.60796E+03  4.83360E+03  3.16048E+03  6.60090E+03
 -2.37445E+03  1.01080E+04 -8.79349E+03  9.89109E+03 -1.31050E+04  2.49865E+03 -1.31773E+04 -5.10252E+03
 -6.87368E+03 -1.18034E+04  1.14456E+03 -1.36325E+04  7.79412E+03 -9.18732E+03  1.02619E+04 -1.99878E+03
  8.90995E+03  5.62049E+03  1.42807E+03  7.36399E+03 -3.48177E+03  4.44201E+03 -5.19290E+03 -1.08009E+03
 -2.27630E+03 -5.31353E+03  2.94635E+03 -6.06617E+03  5.53369E+03 -1.78982E+03  4.95340E+03  1.55596E+03
  2.92994E+03  2.85452E+03  1.48993E+03  2.71009E+03 -1.19273E+03  1.62489E+03  8.14087E+02 -6.21097E+02
  1.90349E+03 -9.00098E+02  5.49181E+03  1.95044E+03  3.18489E+03  6.85409E+03 -1.27064E+03  9.56396E+03
 -6.78337E+03  5.57859E+03 -8.01825E+03  1.74483E+03 -7.84337E+03 -3.33951E+03 -2.82271E+03 -5.03184E+03
  7.30630E+02 -5.64047E+03  3.28540E+03 -3.23036E+03  3.04355E+03  2.42883E+03 -1.04066E+03  5.03193E+03
 -5.22897E+03  2.28483E+03 -5.37981E+03 -3.22798E+03 -3.60734E+03 -7.16859E+03  8.60443E+02 -6.90242E+03
  3.65090E+03 -4.46462E+03  5.37608E+03 -3.22324E+02  4.39018E+03  1.98900E+03  1.10696E+03  3.31843E+03
 -2.20692E+03  1.69325E+03 -3.05588E+03 -2.71037E+03  1.12095E+03 -5.76548E+03  6.61256E+03 -4.18828E+03
  8.18036E+03 -8.37304E+01  7.51207E+03  6.74477E+03  2.17510E+03  8.05019E+03 -3.11887E+03  7.78358E+03
 -7.24431E+03  3.65030E+03 -7.11096E+03 -1.04990E+03 -3.54899E+03 -5.40438E+03  1.59484E+03 -4.98244E+03
  5.28448E+03 -2.06124E+03  4.88605E+03  2.35947E+03  8.24896E+02  4.68769E+03 -5.76846E+02  4.27864E+03
 -2.22968E+03  3.01253E+03 -2.48929E+03  1.01650E+03 -1.29100E+03  6.86726E+02 -1.37014E+03  1.61529E+03
 -2.44081E+03  2.80804E+03 -5.52985E+03  1.66609E+03 -8.70462E+03 -7.01445E+02 -8.87145E+03 -5.53081E+03
 -5.03179E+03 -1.10527E+04  2.95811E+03 -1.28143E+04  7.35908E+03 -9.80255E+03  1.23574E+04 -3.50742E+03
  1.02792E+04  2.38384E+03  6.89411E+03  7.49853E+03  4.35675E+02  8.83042E+03 -3.48106E+03  6.61764E+03
 -4.58944E+03  3.02418E+03 -2.76032E+03 -1.93645E+02 -1.29092E+03 -6.83545E+02 -5.36913E+02 -5.73278E+02
 -8.55024E+02 -5.36648E+02 -1.49937E+03 -5.00735E+02 -4.76521E+02 -2.25298E+03  4.27500E+02 -2.46187E+03
  3.76776E+03 -2.61212E+03  4.85241E+03  1.81970E+02  5.13993E+03  4.79214E+03  1.39253E+03  8.34668E+03
 -4.23045E+03  9.72041E+03 -8.63921E+03  5.58380E+03 -1.06322E+04 -7.48749E+02 -7.37062E+03 -6.24833E+03
 -3.44704E+03 -9.52093E+03  3.09619E+03 -7.38635E+03  5.97561E+03 -4.05332E+03  5.31692E+03  3.09920E+02
  2.98537E+03  1.98888E+03  2.28646E+01  2.45634E+03 -2.24348E+03  7.60845E+02  9.22330E+02 -1.22540E+03
  2.92051E+03 -7.13697E+02  2.93959E+03  1.34409E+03  2.33493E+03  3.98517E+03 -1.00070E+02  4.32282E+03
 -3.74054E+03  3.51734E+03 -6.10088E+03  2.18112E+02 -5.42002E+03 -4.45888E+03 -8.57463E+02 -7.14752E+03
  3.88553E+03 -6.48768E+03  5.89872E+03 -2.03201E+03  5.99308E+03  1.68072E+03  3.61108E+03  4.82837E+03
  8.36284E+02  5.89174E+03 -2.07118E+03  4.22866E+03 -2.82020E+03  2.86581E+03 -3.35794E+03  1.44786E+02
 -1.38894E+03 -5.35620E+02 -1.81428E+03  1.00054E+03 -3.51373E+03  1.60901E+03 -4.39286E+03 -7.47769E+02
 -4.67337E+03 -3.07173E+03 -1.67771E+03 -6.08383E+03  3.07882E+03 -5.95482E+03  4.87563E+03 -2.72407E+03
  5.30977E+03  1.29044E+03  3.68742E+03  4.52023E+03  3.20891E+02  5.97284E+03 -4.11303E+03  4.07153E+03
