 $NMID ID='MM_0lb_SNR400_17hz_g50_39.RAW', FMTDAT='(8E13.5)'
 TRAMP=1., VOLUME=1. $END
  3.09742E+05 -1.32513E+02  3.36806E+05  2.50474E+05  8.44132E+04  3.37206E+05 -1.32074E+05  2.51076E+05
 -1.89782E+05  8.28871E+04 -1.11264E+05 -3.27710E+04  1.18921E+03 -5.04452E+04  5.37841E+04 -1.45947E+02
  3.51788E+04  5.26135E+04 -1.67272E+04  7.53109E+04 -6.08619E+04  6.27911E+04 -8.32823E+04  3.16958E+04
 -8.02982E+04 -1.18516E+04 -5.68442E+04 -5.08183E+04 -1.56410E+04 -6.90826E+04  2.70928E+04 -4.53692E+04
  3.99482E+04  3.41944E+03  1.58383E+04  4.71741E+04 -3.44385E+04  4.61185E+04 -6.64801E+04 -5.53952E+02
 -5.27793E+04 -5.63611E+04 -6.66279E+03 -7.60453E+04  3.33858E+04 -5.37328E+04  4.62332E+04 -1.64608E+04
  4.27930E+04  1.16323E+04  3.14463E+04  2.47634E+04  1.58948E+04  2.85158E+04 -4.59143E+03  2.68678E+04
 -2.18357E+04  1.26895E+04 -1.89793E+04 -4.85325E+03  4.48094E+03 -8.27504E+03  2.19633E+04  1.12647E+04
  7.31131E+03  3.37314E+04 -3.14196E+04  3.48678E+04 -6.18858E+04  2.29978E+03 -5.62274E+04 -4.16218E+04
 -1.13976E+04 -6.20584E+04  3.92075E+04 -4.42203E+04  5.69644E+04 -2.25940E+03  3.24843E+04  3.09587E+04
 -6.34780E+03  3.46385E+04 -2.89586E+04  1.42282E+04 -2.86228E+04 -4.97181E+03 -1.54266E+04 -1.03382E+04
 -7.77192E+03 -1.19372E+04 -6.40277E+02 -1.72396E+04  5.93982E+03 -2.21207E+04  1.51887E+04 -1.41590E+04
  1.22061E+04  4.58886E+03 -7.52311E+03  1.25834E+04 -1.99019E+04 -3.33714E+03 -8.11007E+03 -3.15767E+04
  2.16558E+04 -4.10317E+04  4.63626E+04 -1.82388E+04  4.31640E+04  1.88811E+04  1.44605E+04  4.32927E+04
 -1.56160E+04  3.27235E+04 -2.47700E+04  1.12079E+03 -8.72581E+03 -2.78829E+04  2.06714E+04 -3.21239E+04
  3.91211E+04 -7.84721E+03  3.30155E+04  2.35515E+04  1.63581E+04  4.36884E+04 -7.90879E+03  4.69694E+04
 -2.96904E+04  3.16488E+04 -3.94741E+04  8.68328E+03 -4.06407E+04 -1.56779E+04 -2.24177E+04 -3.59206E+04
  6.60118E+03 -3.59672E+04  3.01534E+04 -1.38018E+04  2.78759E+04  1.12478E+04  3.69248E+03  1.79195E+04
 -1.32813E+04  7.55597E+03 -9.76359E+03 -7.77081E+03  6.18368E+03 -1.04875E+04  1.72363E+04  5.81463E+03
  1.29573E+04  2.13768E+04 -6.22743E+03  2.34285E+04 -2.16543E+04  1.02326E+04 -2.61293E+04 -5.63446E+03
 -1.85181E+04 -1.70516E+04 -7.02805E+03 -1.76045E+04  3.40865E+03 -1.68878E+04  1.36183E+04 -1.65162E+04
  2.24489E+04 -1.22835E+04  3.02114E+04  1.77716E+03  2.29242E+04  1.77719E+04  4.27973E+03  3.41240E+04
 -1.66418E+04  2.83464E+04 -2.67093E+04  1.01123E+04 -1.99937E+04 -1.05147E+04 -3.86802E+03 -1.38261E+04
  2.76876E+03 -3.33630E+03 -3.42066E+03  6.17646E+03 -1.41541E+04  5.33429E+03 -1.46937E+04 -5.39455E+03
 -8.64215E+03 -1.63914E+04  4.95456E+03 -2.01827E+04  1.32606E+04 -1.50621E+04  1.69310E+04 -1.54751E+03
  9.71112E+03  1.20043E+04 -8.67020E+02  1.69361E+04 -1.10001E+04  9.29083E+03 -1.69149E+04 -3.43628E+03
 -1.23579E+04 -1.54262E+04 -1.60109E+03 -2.04862E+04  9.25205E+03 -1.65640E+04  1.71195E+04 -7.34019E+03
  1.58693E+04  8.73760E+02  1.15707E+04  4.04284E+03  5.95509E+03  5.60690E+02  8.09785E+03 -1.46069E+03
  1.52614E+04  2.18516E+03  1.60720E+04  1.33200E+04  1.00832E+04  2.68295E+04 -2.84362E+03  2.92244E+04
 -1.71738E+04  2.29583E+04 -2.71692E+04  1.11524E+04 -2.81279E+04 -2.07835E+03 -2.35587E+04 -1.64753E+04
 -1.09249E+04 -2.29040E+04  7.83211E+03 -2.13144E+04  1.85005E+04 -1.15754E+04  1.70970E+04  3.72366E+03
  6.75268E+03  1.20676E+04 -7.75165E+03  1.08095E+04 -1.45172E+04  3.10611E+03 -1.13504E+04 -8.71167E+03
 -1.10083E+02 -1.36623E+04  6.77947E+03 -9.95986E+03  8.65335E+03 -1.41357E+03  2.01093E+03  5.87101E+03
 -6.11003E+03  2.13788E+03 -4.62478E+03 -4.71154E+03  2.89926E+02 -1.08573E+04  8.36372E+03 -1.17358E+04
  1.39852E+04 -5.17104E+03  1.38726E+04  2.74242E+03  1.22383E+04  1.04886E+04  5.56689E+03  1.60622E+04
 -2.30834E+03  1.72254E+04 -1.14845E+04  1.12820E+04 -1.28948E+04  3.17468E+03 -9.63868E+03 -2.65576E+03
 -4.77796E+03 -4.14613E+03 -3.67253E+02  1.51366E+03 -2.82142E+03  2.43256E+03 -4.15598E+03  3.86215E+03
 -8.80768E+03 -7.97736E+02 -9.92742E+03 -8.22172E+03 -3.52990E+03 -1.26148E+04  3.86810E+03 -9.56892E+03
  7.95302E+03 -4.51475E+03  5.59075E+03  2.28269E+03  5.00989E+02  3.75898E+03 -4.09282E+03  3.89088E+02
 -3.68320E+03 -5.85715E+03 -1.24919E+03 -7.76141E+03  4.58724E+03 -8.53361E+03  1.11877E+04 -4.73260E+03
  1.27047E+04  9.85443E+02  1.00825E+04  7.28265E+03  1.78231E+03  1.00297E+04 -6.13837E+03  9.90138E+03
 -7.83664E+03  2.99384E+03 -4.27842E+03 -2.26389E+03  1.46710E+03 -2.24761E+03  4.66185E+03 -1.09864E+03
  4.70569E+03  3.30234E+03  1.08085E+03  7.67749E+03 -4.80606E+03  7.13970E+03 -8.89834E+03  1.63892E+03
 -5.70736E+03 -4.27029E+03 -2.20364E+02 -7.37475E+03  4.55484E+03 -3.96100E+03  4.37441E+03  9.26291E+02
  9.24823E+02  3.97610E+03 -4.33560E+03  5.75781E+03 -6.14651E+03  3.43100E+03 -5.65272E+03 -1.36279E+03
 -3.74176E+03 -6.74537E+03  1.46958E+03 -7.62414E+03  6.71379E+03 -5.17200E+03  7.83738E+03  1.21443E+03
  5.49329E+03  6.45771E+03 -3.20863E+02  8.20685E+03 -5.91334E+03  5.15442E+03 -6.29532E+03 -4.63357E+02
 -6.65076E+03 -5.64741E+03 -1.75745E+03 -6.06361E+03  2.92348E+03 -5.30243E+03  3.91709E+03 -3.38367E+03
  2.84681E+03  4.78763E+02  1.78125E+02  1.17617E+03 -2.03869E+02 -4.38520E+02  4.36954E+02 -2.34462E+03
  4.89494E+03 -7.45337E+02  6.59505E+03  1.10066E+03  6.34540E+03  3.63797E+03  6.17880E+03  8.53909E+03
 -1.50347E+03  9.92867E+03 -9.90386E+03  7.91942E+03 -1.12690E+04  1.51042E+03 -8.84970E+03 -3.38023E+03
 -4.81230E+03 -7.71373E+03 -5.63024E+02 -5.92635E+03  2.50349E+03 -2.23176E+03  2.71228E+03 -2.87209E+03
  1.59318E+03 -1.66212E+03  2.28264E+03 -2.56706E+03  3.94769E+03 -1.41394E+03  3.89470E+03  7.54983E+02
  5.51291E+03  1.57948E+03  1.26223E+03  4.33825E+03 -1.66997E+03  3.75029E+03 -5.13827E+03  2.83710E+03
 -6.09721E+03 -6.93227E+02 -2.15883E+03 -3.61650E+03 -1.24515E+02 -6.20231E+03  3.87215E+03 -6.43112E+03
  6.54317E+03 -3.89182E+03  7.77361E+03  3.74305E+02  5.84612E+03  5.42120E+03  1.54512E+03  6.65102E+03
 -2.22033E+03  6.70747E+03 -4.57613E+03  1.84847E+03 -2.45117E+03 -1.77587E+03 -5.71689E+02 -8.86408E+02
 -8.94007E+01  2.19805E+02 -1.27825E+03  2.40977E+03 -3.16871E+03  1.32593E+03 -4.92385E+03 -6.08964E+02
 -1.85180E+03 -4.31812E+03  6.74620E+02 -5.85990E+03  3.44232E+03 -5.03385E+03  4.46652E+03 -1.64946E+03
  5.11648E+03  2.64559E+03  2.07297E+03  4.60401E+03 -1.31897E+03  5.02541E+03 -3.22332E+03  3.31985E+03
 -5.20240E+03  9.57837E+02 -3.81353E+03 -3.01716E+03 -6.06852E+02 -4.24703E+03  2.19260E+03 -3.69182E+03
  3.22484E+03 -1.33025E+03  2.24375E+03  5.65618E+02  4.33772E+02  2.03607E+03  3.75165E+02  4.69688E+02
  2.01129E+03  4.99689E+02  1.43465E+03  9.68632E+02  1.41960E+03  2.20782E+03  1.81874E+03  2.50400E+03
 -1.55530E+03  3.61613E+03 -3.49089E+03  4.53440E+03 -4.29055E+03  1.81244E+03 -5.61263E+03 -1.49536E+03
 -1.82514E+03 -4.69820E+03  3.18206E+02 -6.30921E+03  2.71813E+03 -3.77063E+03  3.97558E+03 -9.33360E+02
  3.22003E+03  1.64910E+03  6.58562E+02  2.72637E+03 -1.18205E+03  1.58233E+03 -1.17084E+03  3.70658E+02
 -7.83017E+02 -1.75370E+03  1.41024E+03 -2.61260E+03  1.77857E+03 -1.47770E+03  1.61431E+03  5.43244E+02
  8.94462E+02  6.48335E+02  7.23294E+02 -2.06490E+01 -4.53084E+02  8.00673E+02  1.67698E+03 -2.29480E+02
 -3.75854E+02 -1.95897E+02  2.02047E+03  4.13417E+02  5.62356E+02  2.31962E+03 -4.65414E+02  4.10929E+03
 -2.12656E+03  1.26850E+03 -3.15853E+03  1.63202E+02 -2.32425E+03 -9.95922E+02 -6.98084E+02 -1.41524E+03
  8.87500E+02 -1.23104E+03  1.50837E+03 -1.12037E+03  1.00439E+03  1.64826E+03 -8.67416E+02  1.35020E+03
 -1.38709E+03  7.17827E+02 -1.72970E+03 -1.10954E+03 -8.33374E+02 -2.51465E+03  3.44677E+02 -2.02126E+03
  6.75999E+02 -6.19571E+02  1.43329E+03 -4.16286E+02  1.90474E+03  1.65537E+02  1.14299E+02  9.62306E+02
 -5.22913E+02 -6.15422E+01 -1.42001E+03  2.88754E+01  8.77933E+02 -1.50640E+03  2.15696E+03 -9.21565E+02
  2.12688E+03  3.40598E+02  3.45622E+03  7.73670E+02  9.11678E+02  2.39304E+03 -6.18741E+02  2.02505E+03
 -1.70514E+03  7.41312E+02 -2.07422E+03 -1.09560E+02 -1.00254E+03 -1.54330E+03  1.07667E+03 -1.02695E+03
  1.63451E+03 -9.44696E+02  1.31208E+03  7.66919E+02  2.69795E+02  1.72254E+03  2.64047E+02  1.42957E+03
 -4.80733E+02  8.42435E+02 -2.76741E+02  7.48014E+02 -1.02899E+02  7.34179E+02 -1.03701E+03  8.48880E+02
 -6.85207E+02  1.59508E+03 -1.94208E+03  7.54756E+02 -2.19046E+03  3.33045E+02 -2.74264E+03 -1.04135E+03
 -1.07648E+03 -3.30475E+03  4.14050E+02 -3.51728E+03  1.66414E+03 -2.87141E+03  3.54664E+03 -1.09566E+03
  3.00927E+03 -7.91725E+02  1.84644E+03  1.73388E+03 -8.62831E+02  1.86802E+03 -9.12854E+02  2.02144E+03
 -1.41932E+03  7.21388E+02 -6.27489E+02 -3.49651E+02 -1.02197E+03  2.50894E+02 -2.62704E+02  6.96677E+01
 -1.42334E+03  4.97396E+02 -1.07965E+03  2.06486E+02  4.75896E+02 -1.71748E+02 -2.85198E+02 -1.02379E+03
  9.60022E+02 -9.28895E+02  9.57076E+02  3.75982E+02  8.17336E+02  1.21383E+03 -1.62926E+02  1.69781E+03
 -1.13310E+03  3.59133E+03 -2.03469E+03  1.70324E+03 -2.64495E+03  4.35308E+01 -1.55691E+03 -1.52544E+03
 -1.46013E+03 -2.08618E+03  2.88745E+02 -1.59470E+03  8.84458E+02 -1.26035E+03  1.08416E+03  3.63213E+02
  8.29576E+02  5.53415E+02  1.91608E+02  3.64495E+02 -1.99469E+02  2.05971E+02  6.95537E+01 -1.12396E+02
  8.66438E+02 -2.84672E+02  5.72412E+02  8.51851E+02  1.69682E+02  1.93926E+02 -2.73252E+01  9.98145E+02
 -3.31797E+02  8.28057E+02 -1.05315E+03  1.25508E+02 -5.97343E+02 -1.19449E+03  8.43292E+01 -1.41738E+03
  5.90089E+02 -1.20612E+03  6.15587E+02  2.25742E+02  1.02811E+03 -6.60117E+02  7.45721E+02  1.35842E+03
  1.53120E+02  9.82122E+02 -7.92754E+01  8.41860E+02 -1.52101E+03  7.78685E+02 -8.14631E+02  2.16616E+02
 -4.43579E+02 -3.08316E+02 -1.00832E+03  1.98034E+02 -9.20497E+02  3.05814E+02 -7.27723E+02  1.91700E+02
 -1.34878E+03 -1.47283E+02 -5.80629E+02 -1.44600E+03  1.02049E+03 -1.49748E+03  1.17225E+03 -7.25445E+02
  1.16892E+03  4.00094E+02 -2.84236E+02  6.00100E+02 -1.05678E+02  1.82710E+03 -7.61844E+02  9.36768E+02
