 $NMID ID='MM_0lb_SNR400_12hz_g40_60.RAW', FMTDAT='(8E13.5)'
 TRAMP=1., VOLUME=1. $END
  3.10009E+05  5.74904E+02  3.37571E+05  2.50875E+05  8.41713E+04  3.38540E+05 -1.32265E+05  2.50887E+05
 -1.90449E+05  8.35154E+04 -1.12296E+05 -3.27292E+04  1.25409E+03 -5.13293E+04  5.40805E+04 -1.06121E+01
  3.52139E+04  5.28044E+04 -1.65054E+04  7.56914E+04 -6.03808E+04  6.33194E+04 -8.39370E+04  3.17599E+04
 -8.09733E+04 -1.12711E+04 -5.66625E+04 -5.17735E+04 -1.42962E+04 -7.00590E+04  2.73173E+04 -4.63714E+04
  4.05216E+04  3.31541E+03  1.61459E+04  4.76640E+04 -3.36122E+04  4.65240E+04 -6.75770E+04 -6.76686E+02
 -5.40413E+04 -5.68678E+04 -7.00865E+03 -7.71193E+04  3.40594E+04 -5.52121E+04  4.82753E+04 -1.72389E+04
  4.30017E+04  1.07198E+04  3.19247E+04  2.58968E+04  1.59031E+04  2.89806E+04 -5.05958E+03  2.69209E+04
 -2.20765E+04  1.24254E+04 -1.87898E+04 -4.44674E+03  6.03189E+03 -7.91664E+03  2.24183E+04  1.27261E+04
  6.92272E+03  3.52076E+04 -3.28974E+04  3.66557E+04 -6.37089E+04  2.39457E+03 -5.72674E+04 -4.28728E+04
 -1.23648E+04 -6.36901E+04  4.08196E+04 -4.54343E+04  5.89954E+04 -2.16064E+03  3.50747E+04  3.27993E+04
 -6.11842E+03  3.64587E+04 -3.04121E+04  1.70553E+04 -3.05884E+04 -4.75438E+03 -1.71044E+04 -1.15026E+04
 -8.63539E+03 -1.36109E+04 -1.61001E+02 -1.84961E+04  7.48288E+03 -2.30298E+04  1.54372E+04 -1.28145E+04
  1.19456E+04  5.42472E+03 -8.77328E+03  1.35024E+04 -2.12949E+04 -5.32746E+03 -8.36068E+03 -3.48581E+04
  2.28800E+04 -4.37168E+04  4.82420E+04 -2.02499E+04  4.55525E+04  1.98415E+04  1.57466E+04  4.50849E+04
 -1.56805E+04  3.40562E+04 -2.57620E+04  2.24692E+03 -1.01666E+04 -2.79927E+04  2.17640E+04 -3.44111E+04
  4.14298E+04 -9.79310E+03  3.57761E+04  2.34389E+04  1.91769E+04  4.75705E+04 -8.63537E+03  5.17843E+04
 -3.26609E+04  3.41192E+04 -4.29357E+04  1.02792E+04 -4.33779E+04 -1.75054E+04 -2.33440E+04 -3.83593E+04
  7.33652E+03 -3.89640E+04  3.16735E+04 -1.53332E+04  2.94306E+04  1.18428E+04  3.96299E+03  1.98141E+04
 -1.34688E+04  8.71751E+03 -1.03086E+04 -7.54912E+03  6.65634E+03 -1.13180E+04  1.81355E+04  6.20742E+03
  1.34357E+04  2.17559E+04 -6.16470E+03  2.49825E+04 -2.23220E+04  1.20739E+04 -2.90842E+04 -4.70193E+03
 -2.14126E+04 -1.71980E+04 -9.09161E+03 -2.13946E+04  4.10483E+03 -2.06488E+04  1.64553E+04 -1.88493E+04
  2.65469E+04 -1.28270E+04  3.37889E+04  3.17385E+03  2.46458E+04  2.06714E+04  4.57677E+03  3.72643E+04
 -1.87187E+04  3.08709E+04 -2.82725E+04  1.08282E+04 -2.09831E+04 -1.02832E+04 -4.18217E+03 -1.34498E+04
  1.45437E+03 -2.36017E+03 -5.56159E+03  6.62058E+03 -1.64397E+04  4.86337E+03 -1.69018E+04 -7.55945E+03
 -1.14637E+04 -1.98983E+04  5.17193E+03 -2.37923E+04  1.63997E+04 -1.72538E+04  1.89063E+04 -7.91378E+02
  1.18652E+04  1.37103E+04 -1.41260E+03  2.03876E+04 -1.39599E+04  1.09360E+04 -1.96234E+04 -4.34713E+03
 -1.43755E+04 -1.81229E+04 -1.89474E+03 -2.37957E+04  1.15658E+04 -1.97718E+04  1.99840E+04 -9.90631E+03
  1.85576E+04 -5.31757E+02  1.34248E+04  4.37943E+03  7.82595E+03  9.92876E+02  1.03142E+04 -1.23613E+03
  1.83393E+04  2.69560E+03  2.08251E+04  1.59522E+04  1.36665E+04  3.19758E+04 -2.88460E+03  3.56839E+04
 -2.06815E+04  3.02609E+04 -3.40285E+04  1.45428E+04 -3.59151E+04 -2.23950E+03 -2.97054E+04 -2.10718E+04
 -1.33193E+04 -2.97347E+04  1.00308E+04 -2.65168E+04  2.33751E+04 -1.41289E+04  2.06523E+04  6.32577E+03
  7.21701E+03  1.53307E+04 -9.96187E+03  1.31550E+04 -1.72924E+04  2.75982E+03 -1.32239E+04 -1.05523E+04
 -4.66973E+02 -1.59334E+04  8.08934E+03 -1.19982E+04  1.08673E+04 -8.51461E+02  1.84110E+03  6.81609E+03
 -7.37811E+03  2.49779E+03 -7.22151E+03 -6.24692E+03 -8.55143E+02 -1.41666E+04  1.00253E+04 -1.51904E+04
  1.83854E+04 -8.80135E+03  1.97486E+04  3.34596E+03  1.76313E+04  1.49883E+04  7.75330E+03  2.22244E+04
 -3.43287E+03  2.45274E+04 -1.55206E+04  1.49953E+04 -1.73136E+04  3.03432E+03 -1.23166E+04 -4.69266E+03
 -5.35902E+03 -5.32906E+03 -2.55216E+02  1.66454E+03 -1.90830E+03  2.63673E+03 -5.35633E+03  3.89527E+03
 -1.09573E+04 -1.34586E+03 -1.19329E+04 -9.88783E+03 -4.70822E+03 -1.59971E+04  5.39596E+03 -1.25020E+04
  1.02509E+04 -5.89414E+03  7.89058E+03  3.64052E+03 -3.57250E+00  4.65836E+03 -5.15919E+03 -4.44172E+02
 -5.59102E+03 -7.30146E+03 -1.46669E+03 -1.17663E+04  6.70479E+03 -1.23337E+04  1.51471E+04 -6.20654E+03
  1.74538E+04  1.76941E+03  1.27034E+04  9.87019E+03  2.22672E+03  1.47201E+04 -7.60949E+03  1.24405E+04
 -1.02147E+04  3.80630E+03 -4.99781E+03 -2.66647E+03  2.13805E+03 -2.72882E+03  6.96125E+03 -1.65602E+03
  5.17038E+03  5.18527E+03  9.74052E+02  1.01161E+04 -6.90018E+03  9.30008E+03 -1.27804E+04  2.06542E+03
 -7.93804E+03 -6.73964E+03  2.20231E+02 -1.05462E+04  6.92654E+03 -5.96691E+03  7.30624E+03  2.79654E+03
  1.87687E+03  7.11212E+03 -6.82436E+03  8.47327E+03 -9.59635E+03  4.19598E+03 -9.95827E+03 -3.29114E+03
 -5.41100E+03 -1.14603E+04  2.48549E+03 -1.38380E+04  1.11988E+04 -8.24095E+03  1.21661E+04  1.65997E+03
  7.44309E+03  9.56333E+03 -8.78355E+02  1.21999E+04 -8.38604E+03  6.75526E+03 -9.12585E+03 -6.03498E+02
 -8.45429E+03 -8.07170E+03 -1.97922E+03 -8.37950E+03  5.15072E+03 -6.95533E+03  5.46099E+03 -3.83314E+03
  4.37157E+03  1.31967E+03 -2.24833E+00  1.96115E+03 -2.45467E+02 -1.83915E+03  1.81938E+03 -4.17834E+03
  8.17380E+03 -3.09916E+03  1.07210E+04  9.96330E+02  1.09016E+04  7.06688E+03  7.97173E+03  1.43894E+04
 -2.87290E+03  1.67777E+04 -1.37881E+04  1.26878E+04 -1.82922E+04  2.92179E+03 -1.47235E+04 -5.85037E+03
 -7.53201E+03 -1.20297E+04 -2.22194E+02 -1.04620E+04  3.88082E+03 -5.63409E+03  2.99896E+03 -4.29343E+03
  2.47169E+03 -2.19008E+03  3.16248E+03 -3.24104E+03  5.23383E+03 -3.00853E+03  5.73429E+03 -2.85992E+02
  7.35788E+03  1.43434E+03  3.25305E+03  6.28650E+03 -1.82653E+03  7.12247E+03 -8.31414E+03  5.55782E+03
 -9.77013E+03 -9.71685E+02 -6.00278E+03 -7.30257E+03 -4.57629E+02 -1.02973E+04  5.96817E+03 -1.07948E+04
  1.14327E+04 -6.44543E+03  1.42462E+04  1.13135E+03  9.34865E+03  9.32837E+03  1.82766E+03  1.16625E+04
 -4.81222E+03  1.01432E+04 -7.03407E+03  2.88474E+03 -4.73605E+03 -9.17110E+02 -2.06261E+03 -1.62540E+03
 -1.18442E+03  9.54960E+01 -2.17605E+03  3.21316E+03 -5.48567E+03  1.87535E+03 -6.79359E+03 -8.67556E+02
 -4.15831E+03 -7.14955E+03  1.52675E+02 -9.79789E+03  6.53622E+03 -8.85091E+03  9.60849E+03 -3.03494E+03
  9.37886E+03  4.40512E+03  3.94409E+03  8.52927E+03 -1.45065E+03  9.85049E+03 -6.55774E+03  6.24099E+03
 -9.60355E+03  7.36128E+02 -6.80897E+03 -5.73376E+03 -9.12853E+02 -7.92520E+03  3.68192E+03 -6.29539E+03
  6.19111E+03 -2.08661E+03  4.30586E+03  1.60292E+03  1.62308E+03  2.91029E+03  1.11614E+03  1.19769E+03
  1.62273E+03 -9.69521E+01  2.94524E+03  1.78705E+03  2.65565E+03  3.99305E+03  3.10554E+03  4.90974E+03
 -2.31244E+03  6.55009E+03 -6.84759E+03  7.68150E+03 -9.06526E+03  1.83489E+03 -1.02868E+04 -4.40146E+03
 -4.35371E+03 -8.97096E+03  1.17976E+03 -1.06771E+04  5.99040E+03 -6.56876E+03  7.44462E+03 -1.43182E+03
  6.28411E+03  3.67592E+03  1.30505E+03  5.26670E+03 -2.23136E+03  3.88619E+03 -3.74285E+03 -8.56663E+02
 -1.37291E+03 -4.47975E+03  2.60078E+03 -3.47691E+03  4.08120E+03 -1.58624E+03  3.89036E+03  5.80036E+02
  2.09890E+03  1.11092E+03  7.63349E+02  1.71557E+03 -6.49410E+02  1.78485E+03  1.14571E+03 -5.91883E+02
  9.52631E+02 -9.25518E+02  4.31822E+03  1.68581E+03  1.94421E+03  5.29751E+03 -7.94848E+02  6.95669E+03
 -4.88576E+03  3.44299E+03 -6.75673E+03  1.44401E+03 -5.57429E+03 -2.09322E+03 -2.17384E+03 -3.61140E+03
  4.15930E+02 -4.15933E+03  2.64264E+03 -1.90283E+03  1.99893E+03  1.97638E+03 -5.29951E+02  3.40681E+03
 -3.11056E+03  2.26674E+03 -4.52533E+03 -1.83511E+03 -1.91943E+03 -5.15448E+03  8.94784E+02 -4.85319E+03
  3.00651E+03 -3.13557E+03  3.77200E+03 -5.73510E+02  2.94736E+03  1.11695E+03 -5.55614E+01  2.32408E+03
 -1.64999E+03  7.57344E+02 -2.69281E+03 -1.26434E+03  7.00120E+02 -3.54279E+03  4.37381E+03 -2.76872E+03
  5.02938E+03 -3.77935E+01  5.80698E+03  3.49144E+03  1.94563E+03  4.93759E+03 -2.19710E+03  5.45619E+03
 -5.04458E+03  1.62944E+03 -5.03609E+03 -1.21695E+03 -3.19478E+03 -3.33786E+03  9.03388E+02 -3.25234E+03
  4.00475E+03 -2.62683E+03  2.94203E+03  2.22824E+03  8.25549E+02  3.47130E+03 -3.01987E+01  2.22003E+03
 -8.77784E+02  1.79832E+03 -1.79784E+03  9.36690E+02 -3.76104E+01  5.94441E+02 -7.43535E+02  1.35270E+03
 -1.48334E+03  2.18416E+03 -4.59090E+03  2.14430E+03 -4.97569E+03 -4.51125E+01 -6.26403E+03 -4.27942E+03
 -3.28167E+03 -7.78745E+03  1.75684E+03 -8.66382E+03  5.01274E+03 -6.24484E+03  8.89481E+03 -1.98556E+03
  7.65820E+03  1.03471E+03  5.12206E+03  4.67995E+03 -7.96195E+01  5.17277E+03 -2.26156E+03  3.89906E+03
 -2.86163E+03  1.98125E+03 -1.70034E+03 -7.19184E+02 -1.13357E+03  9.67221E+01 -9.84744E+02 -1.03737E+02
 -1.86929E+03  1.62505E+02 -1.63170E+03  1.98223E+02 -5.16851E+02 -1.37391E+03  1.14933E+02 -2.19286E+03
  2.70418E+03 -1.83758E+03  2.80572E+03  1.95156E+02  4.08481E+03  2.98005E+03  4.66757E+02  5.04941E+03
 -3.16438E+03  7.14135E+03 -5.52018E+03  3.73680E+03 -6.25419E+03 -5.68251E+02 -4.86777E+03 -4.05543E+03
 -2.20138E+03 -5.15763E+03  8.18837E+02 -4.97207E+03  3.03064E+03 -2.82477E+03  3.56704E+03  4.51255E+02
  2.17912E+03  1.46761E+03  6.42188E+02  1.42993E+03 -1.06244E+03  2.42526E+02 -3.60254E+01 -9.39287E+02
  2.07045E+03 -7.69484E+02  2.16777E+03  7.12892E+02  9.31758E+02  2.02901E+03  1.00074E+02  2.54799E+03
 -2.55987E+03  2.82131E+03 -3.99531E+03  1.14084E+02 -2.91901E+03 -1.86126E+03 -1.62587E+02 -4.71950E+03
  2.66614E+03 -3.79316E+03  3.74781E+03 -1.43987E+03  4.35545E+03  4.70314E+02  3.02694E+03  2.84200E+03
  8.81287E+02  3.23012E+03 -1.86094E+03  2.70727E+03 -2.10290E+03  1.92779E+03 -1.58237E+03 -3.51185E+02
 -1.01866E+03 -2.06504E+02 -1.31896E+03  7.74407E+02 -1.83345E+03  6.33655E+02 -3.31650E+03 -5.79517E+02
 -3.09813E+03 -1.31430E+03 -1.41991E+03 -3.40574E+03  2.26842E+03 -4.09006E+03  2.95234E+03 -2.18131E+03
  3.07291E+03 -4.62100E+00  2.41777E+03  1.67219E+03 -9.01194E+02  3.50939E+03 -2.39264E+03  2.09059E+03
