 $NMID ID='MM_0lb_SNR400_19hz_g50_36.RAW', FMTDAT='(8E13.5)'
 TRAMP=1., VOLUME=1. $END
  3.09452E+05  2.87416E+02  3.37711E+05  2.50551E+05  8.44341E+04  3.37726E+05 -1.31993E+05  2.50646E+05
 -1.90211E+05  8.27516E+04 -1.11065E+05 -3.30378E+04  1.48784E+03 -4.99382E+04  5.40597E+04  1.59504E+02
  3.53496E+04  5.29755E+04 -1.77046E+04  7.45716E+04 -6.01512E+04  6.29261E+04 -8.28498E+04  3.08737E+04
 -7.98220E+04 -1.13139E+04 -5.64571E+04 -5.05069E+04 -1.46496E+04 -6.82287E+04  2.71537E+04 -4.52289E+04
  3.93495E+04  3.60595E+03  1.58634E+04  4.73539E+04 -3.42592E+04  4.66942E+04 -6.55632E+04 -2.09993E+02
 -5.15287E+04 -5.57447E+04 -5.75746E+03 -7.49141E+04  3.32501E+04 -5.31562E+04  4.63469E+04 -1.64902E+04
  4.18060E+04  1.08936E+04  3.09289E+04  2.49997E+04  1.54961E+04  2.81904E+04 -4.67280E+03  2.69169E+04
 -2.17714E+04  1.20340E+04 -1.86905E+04 -4.69875E+03  4.93967E+03 -7.58628E+03  2.09514E+04  1.10407E+04
  7.53208E+03  3.33335E+04 -3.07298E+04  3.40141E+04 -6.12427E+04  1.63024E+03 -5.51819E+04 -4.12780E+04
 -1.21745E+04 -6.05914E+04  3.87415E+04 -4.31013E+04  5.57623E+04 -1.75372E+03  3.20705E+04  3.07786E+04
 -6.58252E+03  3.32313E+04 -2.82707E+04  1.27959E+04 -2.79369E+04 -5.36021E+03 -1.45930E+04 -1.03452E+04
 -7.80664E+03 -1.12745E+04 -1.73344E+03 -1.67953E+04  6.23777E+03 -2.25124E+04  1.49154E+04 -1.42108E+04
  1.25215E+04  3.91613E+03 -5.91033E+03  1.36697E+04 -1.96921E+04 -2.76974E+03 -8.01115E+03 -3.03166E+04
  2.08207E+04 -4.06331E+04  4.49595E+04 -1.83782E+04  4.23128E+04  1.87309E+04  1.40471E+04  4.12364E+04
 -1.51714E+04  3.12911E+04 -2.30776E+04  1.23645E+03 -8.45213E+03 -2.69904E+04  2.06525E+04 -3.15599E+04
  3.80931E+04 -7.79229E+03  3.14588E+04  2.27435E+04  1.53793E+04  4.33047E+04 -7.81202E+03  4.51890E+04
 -2.84949E+04  3.01844E+04 -3.73830E+04  7.82226E+03 -3.83432E+04 -1.53904E+04 -2.10534E+04 -3.45528E+04
  7.08696E+03 -3.42807E+04  2.89699E+04 -1.28150E+04  2.66436E+04  1.09534E+04  3.02402E+03  1.74856E+04
 -1.27823E+04  7.66825E+03 -9.08163E+03 -7.53799E+03  6.02838E+03 -1.03431E+04  1.74697E+04  6.72654E+03
  1.20801E+04  2.17678E+04 -6.63162E+03  2.34368E+04 -2.08059E+04  9.33253E+03 -2.50670E+04 -6.62468E+03
 -1.70551E+04 -1.66798E+04 -5.22822E+03 -1.66513E+04  3.50931E+03 -1.45092E+04  1.18772E+04 -1.43664E+04
  2.12074E+04 -1.20901E+04  2.79603E+04  8.76509E+02  2.13811E+04  1.65539E+04  4.38208E+03  3.21768E+04
 -1.58683E+04  2.74014E+04 -2.57505E+04  9.39201E+03 -1.92388E+04 -1.07644E+04 -4.15372E+03 -1.41639E+04
  2.48578E+03 -4.03176E+03 -2.87733E+03  5.02936E+03 -1.30744E+04  5.74635E+03 -1.34575E+04 -5.09555E+03
 -9.00589E+03 -1.57019E+04  4.33653E+03 -1.96891E+04  1.25199E+04 -1.39827E+04  1.43106E+04 -1.62709E+03
  8.77495E+03  1.10863E+04 -6.25202E+02  1.52135E+04 -1.03081E+04  8.91168E+03 -1.53688E+04 -3.43311E+03
 -1.16053E+04 -1.40745E+04 -1.23427E+03 -1.89347E+04  8.50437E+03 -1.51420E+04  1.56965E+04 -7.83456E+03
  1.45168E+04  3.85396E+02  1.04090E+04  3.15909E+03  4.76178E+03  1.62452E+02  8.05778E+03 -8.29721E+02
  1.40737E+04  2.47179E+03  1.48319E+04  1.28817E+04  9.08973E+03  2.42542E+04 -2.97837E+03  2.62193E+04
 -1.57481E+04  1.99052E+04 -2.43495E+04  9.54217E+03 -2.44664E+04 -1.63084E+03 -2.16204E+04 -1.42385E+04
 -1.01437E+04 -2.01268E+04  6.72020E+03 -1.88767E+04  1.65724E+04 -1.07442E+04  1.55860E+04  3.54055E+03
  6.95566E+03  1.08743E+04 -6.78392E+03  1.03411E+04 -1.30535E+04  1.94792E+03 -1.04854E+04 -7.86791E+03
 -2.73916E+02 -1.21427E+04  5.73742E+03 -9.51843E+03  7.07889E+03 -1.28080E+03  1.09257E+03  5.95633E+03
 -5.00823E+03  6.46895E+02 -4.07106E+03 -4.64768E+03  1.29880E+03 -1.02853E+04  7.49739E+03 -9.68949E+03
  1.17919E+04 -4.87454E+03  1.19664E+04  3.11137E+03  9.72157E+03  9.17568E+03  5.06221E+03  1.38866E+04
 -1.12389E+03  1.55652E+04 -9.34936E+03  1.02894E+04 -1.14595E+04  2.94816E+03 -8.16524E+03 -1.80810E+03
 -4.54439E+03 -3.25455E+03 -3.31049E+01  1.09120E+03 -2.26588E+03  2.49240E+03 -3.24082E+03  3.44579E+03
 -7.58374E+03 -1.91661E+02 -9.09661E+03 -7.41941E+03 -3.74386E+03 -1.17697E+04  3.57543E+03 -7.86418E+03
  7.46103E+03 -3.93418E+03  5.37002E+03  1.41594E+03  6.99798E+02  3.90221E+03 -3.26287E+03 -4.09588E+02
 -3.32204E+03 -4.93562E+03 -1.01462E+03 -7.07525E+03  3.91815E+03 -7.74849E+03  9.95768E+03 -4.14942E+03
  1.15255E+04  1.08917E+03  8.50827E+03  5.97446E+03  2.28281E+03  8.26723E+03 -4.96073E+03  8.28921E+03
 -6.27636E+03  2.91741E+03 -3.71250E+03 -7.17854E+02  1.46508E+03 -1.75501E+03  4.57258E+03 -1.20559E+03
  4.15304E+03  3.14883E+03  8.36537E+02  6.19523E+03 -4.84022E+03  7.09857E+03 -8.21988E+03  1.29775E+03
 -4.81219E+03 -3.46682E+03  1.02877E+02 -6.39876E+03  4.01146E+03 -3.33118E+03  3.25946E+03  4.18762E+02
  9.84208E+01  3.05723E+03 -4.04064E+03  5.19859E+03 -4.33799E+03  2.19532E+03 -4.18825E+03 -8.22647E+02
 -3.46300E+03 -6.18726E+03  1.34178E+03 -7.06076E+03  5.86240E+03 -4.85614E+03  6.59180E+03  1.31297E+03
  4.14293E+03  5.35245E+03  3.92016E+01  7.15049E+03 -5.33762E+03  4.12362E+03 -5.04684E+03 -1.75995E+02
 -5.45120E+03 -5.10605E+03 -1.02399E+03 -4.35876E+03  2.14214E+03 -4.67075E+03  3.05269E+03 -3.29924E+03
  2.81299E+03 -2.25559E+01  2.18374E+02  1.10723E+03  1.56051E+02 -5.82960E+02  3.78530E+02 -1.41620E+03
  3.25815E+03 -1.69634E+03  4.76110E+03  8.46977E+02  5.72332E+03  2.70913E+03  4.87657E+03  6.98092E+03
 -1.35035E+03  7.99458E+03 -7.46320E+03  6.11106E+03 -9.63821E+03  8.50195E+02 -7.78738E+03 -2.58270E+03
 -4.03907E+03 -6.08147E+03 -3.51590E+02 -4.69462E+03  2.04143E+03 -2.23931E+03  1.58668E+03 -1.95784E+03
  6.81132E+02 -1.70671E+03  1.92137E+03 -2.68831E+03  3.23558E+03 -1.42420E+03  3.63775E+03  1.00539E+03
  4.58102E+03  1.87112E+03  1.25841E+03  2.80118E+03 -1.65403E+03  2.08124E+03 -4.25452E+03  2.43641E+03
 -5.01630E+03 -8.54927E+02 -1.78953E+03 -3.26965E+03  6.01652E+02 -4.71196E+03  3.16370E+03 -5.02556E+03
  4.54095E+03 -3.01942E+03  6.60056E+03  3.88274E+02  4.78763E+03  4.35661E+03  1.18694E+03  5.35110E+03
 -2.08404E+03  5.84081E+03 -3.22771E+03  1.70446E+03 -2.11982E+03 -7.74732E+02 -7.76290E+02 -1.57490E+02
 -5.41849E+02  9.53184E+01 -1.30392E+03  2.06058E+03 -2.43331E+03  1.15075E+03 -4.06681E+03 -2.66946E+02
 -1.54625E+03 -3.33246E+03  2.67519E+02 -4.59200E+03  2.87777E+03 -4.23722E+03  2.81235E+03 -9.64292E+02
  3.81356E+03  2.26933E+03  1.29779E+03  3.51468E+03 -4.31123E+02  4.04191E+03 -2.63315E+03  2.30378E+03
 -3.76979E+03  3.48263E+02 -3.10868E+03 -1.77624E+03 -5.36840E+01 -2.73303E+03  1.45470E+03 -2.66824E+03
  2.77596E+03 -1.38318E+03  1.74269E+03  5.63784E+02  5.96383E+01  1.34618E+03  4.43889E+02  3.40860E+02
  2.08959E+03  4.80961E+02  1.52846E+03  1.10386E+03  8.88990E+02  2.14326E+03  1.33558E+03  1.58311E+03
 -1.07041E+03  3.11269E+03 -2.52652E+03  3.86221E+03 -2.72127E+03  1.44480E+03 -3.89933E+03 -4.19947E+02
 -1.80690E+03 -3.62287E+03  1.00633E+03 -4.49450E+03  1.52223E+03 -2.07911E+03  2.66441E+03 -9.68375E+02
  2.18021E+03  9.75070E+02  2.08093E+02  1.83479E+03 -4.31947E+02  4.91554E+02 -8.95104E+02  2.17729E+02
 -5.86591E+02 -9.97486E+02  1.17101E+03 -1.28763E+03  1.08059E+03 -1.27830E+03  1.65423E+03  4.29182E+02
  3.98573E+02  1.66771E+02  1.30464E+03 -1.66597E+02 -5.07384E+02  6.28621E+02  1.72334E+03  2.58135E+01
  1.03963E+02 -2.90097E+02  1.30834E+03  1.69179E+02  3.52850E+01  2.23333E+03 -2.11961E+02  2.48846E+03
 -1.35159E+03  1.13453E+03 -1.50169E+03 -7.87391E+00 -2.23886E+03 -1.00444E+03  3.46280E+02 -6.45478E+02
  4.24190E+02 -9.37683E+02  8.36093E+02 -8.92747E+02  3.69511E+02  1.45276E+03 -7.17789E+02  1.49947E+03
 -1.60294E+03  4.37625E+02 -8.72097E+02 -1.33584E+03 -1.13587E+03 -1.85712E+03 -1.01284E+02 -1.17386E+03
  3.22267E+02 -1.01144E+03  8.06609E+02 -2.86702E+02  1.18204E+03  2.92222E+02  4.56027E+01  1.37759E+03
 -3.19042E+02  1.63016E+02 -1.18558E+03 -1.57241E+02  6.72147E+02 -3.75512E+02  1.77068E+03 -7.73268E+02
  1.10120E+03  4.78162E+02  2.15601E+03  5.38062E+02  1.27505E+03  1.76595E+03  7.51858E+01  1.46467E+03
 -1.17064E+03 -4.71333E+01 -1.32170E+03  1.41975E+02 -8.13914E+02 -2.02744E+03  3.05871E+02 -6.86883E+02
  1.13884E+03 -5.64934E+02  5.90030E+02  7.88649E+02  3.79941E+02  1.42499E+03  1.57751E+02  9.95420E+02
 -8.10061E+02  1.24454E+03 -3.78757E+02  1.35941E+02  3.46311E+02  4.12998E+02 -2.14019E+02  5.37808E+02
 -6.28665E+02  1.56809E+03 -1.66795E+03  7.24724E+02 -2.13451E+03  4.08093E+02 -1.78229E+03 -1.09091E+03
 -8.74421E+02 -1.57901E+03  3.06678E+02 -2.54590E+03  5.29276E+02 -1.98201E+03  2.55397E+03 -1.00635E+03
  2.21056E+03  1.94789E+02  8.43153E+02  1.24394E+03 -2.00327E+02  1.01995E+03 -2.64317E+02  8.25403E+02
 -7.87056E+02  9.76978E+02 -6.57656E+02 -2.89482E+02 -1.66706E+02  5.16978E+02 -2.06659E+02 -5.97438E+02
 -1.54149E+03 -2.27873E+02 -9.00981E+02  1.53587E+02 -1.74533E+02 -1.01988E+03 -4.65065E+02 -5.64057E+02
  1.23974E+03 -3.79640E+02  1.20928E+01  1.68636E+02  1.05180E+03  8.88133E+02 -1.63302E+02  1.06916E+03
 -7.55564E+02  1.68095E+03 -1.31061E+03  1.12539E+03 -2.02633E+03 -5.63433E+01 -1.22110E+03 -1.43633E+03
 -1.08655E+03 -1.16288E+03  2.41293E+01 -6.10381E+02  3.61309E+02 -6.92460E+02  6.99790E+02  9.64520E+02
  4.35253E+02 -5.51474E+01  1.01424E+02  1.61607E+02 -9.68174E+02 -3.10421E+02  2.00574E+02 -3.50161E+01
  6.07931E+02  4.18568E+02  1.50093E+02  2.72529E+02  1.95335E+02  7.37912E+02  5.41325E+02  3.13939E+02
 -9.64930E+02  6.50182E+02 -5.03572E+02  7.60731E+01 -5.43094E+02 -2.40350E+02  1.64154E+02 -1.14592E+03
  5.06640E+02 -7.24681E+02  1.41620E+02  1.30748E+02  1.14188E+03 -1.27736E+03  6.70271E+02  9.66046E+02
  4.18648E+02  7.96767E+02 -3.09742E+02  1.21066E+02 -2.03477E+01  9.16048E+02 -5.87209E+02  1.38034E+02
 -3.45422E+02 -3.13092E+02 -8.82159E+02  1.51113E+02 -8.89020E+02  1.89305E+02 -9.23821E+02 -2.35809E+02
 -6.07704E+02  5.14202E+02 -2.52385E+02 -4.94423E+02  3.05435E+02 -1.65604E+03  1.07055E+03 -2.96088E+02
  6.93100E+02  2.37948E+02 -3.16154E+02  4.06060E+02 -5.00437E+00  3.85802E+02 -4.16325E+02  5.20901E+02
