 $NMID ID='MM_0lb_SNR400_12hz_g55_100.RAW', FMTDAT='(8E13.5)'
 TRAMP=1., VOLUME=1. $END
  3.09696E+05  9.45467E+01  3.38379E+05  2.50681E+05  8.48243E+04  3.37992E+05 -1.33396E+05  2.51754E+05
 -1.90702E+05  8.31942E+04 -1.12351E+05 -3.23147E+04  4.25879E+02 -5.03866E+04  5.39572E+04 -1.86192E+02
  3.54075E+04  5.24372E+04 -1.65165E+04  7.58977E+04 -6.05736E+04  6.45720E+04 -8.43559E+04  3.23394E+04
 -8.13573E+04 -1.14551E+04 -5.79935E+04 -5.17454E+04 -1.49552E+04 -7.03371E+04  2.79735E+04 -4.63490E+04
  4.11640E+04  3.83850E+03  1.56414E+04  4.81152E+04 -3.45039E+04  4.78566E+04 -6.77002E+04 -3.08524E+02
 -5.40945E+04 -5.79310E+04 -7.79791E+03 -7.81958E+04  3.46423E+04 -5.63136E+04  4.85391E+04 -1.74369E+04
  4.46022E+04  1.14581E+04  3.25096E+04  2.59001E+04  1.59481E+04  3.01353E+04 -5.42298E+03  2.78956E+04
 -2.20449E+04  1.20396E+04 -1.84625E+04 -4.81343E+03  6.01836E+03 -7.38541E+03  2.29510E+04  1.29899E+04
  7.50110E+03  3.70375E+04 -3.33115E+04  3.62145E+04 -6.48804E+04  2.32835E+03 -5.80352E+04 -4.35128E+04
 -1.22396E+04 -6.44129E+04  4.07023E+04 -4.64487E+04  5.94988E+04 -1.78909E+03  3.58901E+04  3.34143E+04
 -5.76587E+03  3.78348E+04 -3.14990E+04  1.78630E+04 -3.17788E+04 -4.14670E+03 -1.81985E+04 -1.10780E+04
 -8.85682E+03 -1.42081E+04 -7.99713E+02 -1.90481E+04  8.36383E+03 -2.34806E+04  1.61503E+04 -1.22917E+04
  1.04307E+04  5.52319E+03 -9.59364E+03  1.31017E+04 -2.22074E+04 -5.17866E+03 -8.61475E+03 -3.61939E+04
  2.36801E+04 -4.49946E+04  5.08367E+04 -2.06196E+04  4.73248E+04  1.97672E+04  1.66231E+04  4.58176E+04
 -1.65657E+04  3.48826E+04 -2.57237E+04  1.45645E+03 -1.17171E+04 -2.83213E+04  2.18040E+04 -3.60599E+04
  4.31339E+04 -1.00208E+04  3.82967E+04  2.49798E+04  1.96224E+04  4.94810E+04 -7.94114E+03  5.35456E+04
 -3.37084E+04  3.60794E+04 -4.53649E+04  1.06839E+04 -4.56396E+04 -1.73423E+04 -2.41081E+04 -3.99583E+04
  7.93157E+03 -4.02720E+04  3.26482E+04 -1.56762E+04  3.13114E+04  1.07112E+04  4.75136E+03  2.04170E+04
 -1.40866E+04  9.59128E+03 -1.12449E+04 -7.83152E+03  5.64916E+03 -1.11571E+04  1.88481E+04  5.78158E+03
  1.39339E+04  2.18588E+04 -5.65030E+03  2.55359E+04 -2.28078E+04  1.29602E+04 -3.06370E+04 -4.29631E+03
 -2.28980E+04 -1.80750E+04 -1.03081E+04 -2.30140E+04  4.10934E+03 -2.32606E+04  1.75951E+04 -2.10793E+04
  2.98758E+04 -1.38064E+04  3.57498E+04  4.20683E+03  2.49431E+04  2.17156E+04  4.08673E+03  3.93107E+04
 -1.94118E+04  3.18176E+04 -2.95610E+04  1.18787E+04 -2.19243E+04 -9.89521E+03 -3.97642E+03 -1.29298E+04
  1.39989E+03 -1.51519E+03 -6.21431E+03  7.63809E+03 -1.84926E+04  5.20220E+03 -1.81340E+04 -8.53378E+03
 -1.08611E+04 -2.06630E+04  6.04644E+03 -2.60705E+04  1.78336E+04 -1.86707E+04  2.03868E+04 -1.46004E+03
  1.30530E+04  1.43960E+04 -1.24446E+03  2.13747E+04 -1.53131E+04  1.21601E+04 -2.12370E+04 -4.16822E+03
 -1.57663E+04 -1.88818E+04 -1.96342E+03 -2.54963E+04  1.08396E+04 -2.10177E+04  2.07205E+04 -1.12031E+04
  1.95279E+04  2.82377E+02  1.43740E+04  4.90707E+03  7.99644E+03  1.05843E+03  1.13361E+04 -2.16938E+03
  1.92784E+04  2.52908E+03  2.33522E+04  1.66417E+04  1.55341E+04  3.42293E+04 -2.72755E+03  3.93818E+04
 -2.24556E+04  3.23101E+04 -3.70322E+04  1.68770E+04 -3.91059E+04 -2.91902E+03 -3.16837E+04 -2.25507E+04
 -1.27393E+04 -3.17783E+04  1.10535E+04 -2.87645E+04  2.52584E+04 -1.42132E+04  2.19115E+04  6.71526E+03
  7.30370E+03  1.63946E+04 -1.04008E+04  1.37076E+04 -1.86171E+04  2.65690E+03 -1.35186E+04 -1.19305E+04
 -3.48982E+02 -1.70637E+04  9.03643E+03 -1.34911E+04  1.21215E+04 -1.63711E+03  3.03839E+03  8.08345E+03
 -7.74893E+03  3.33096E+03 -7.57931E+03 -6.46862E+03 -2.62772E+02 -1.56744E+04  1.12396E+04 -1.69381E+04
  1.95659E+04 -8.44404E+03  2.13110E+04  3.41342E+03  1.86783E+04  1.53630E+04  8.69930E+03  2.44790E+04
 -4.43019E+03  2.63540E+04 -1.71995E+04  1.72740E+04 -1.90932E+04  3.43341E+03 -1.33979E+04 -4.81430E+03
 -6.11774E+03 -6.16536E+03 -4.49584E+02  7.13056E+02 -2.60015E+03  2.96802E+03 -6.69401E+03  4.32746E+03
 -1.27421E+04 -7.20600E+02 -1.25319E+04 -1.04350E+04 -5.77217E+03 -1.66029E+04  5.39915E+03 -1.30529E+04
  1.15187E+04 -5.68517E+03  8.48855E+03  3.95460E+03 -1.89540E+02  5.01123E+03 -5.53988E+03 -5.60302E+02
 -5.43049E+03 -8.25607E+03 -1.36033E+03 -1.42317E+04  7.82091E+03 -1.43150E+04  1.68604E+04 -7.11076E+03
  1.98298E+04  2.10544E+03  1.41430E+04  1.21746E+04  2.61061E+03  1.53414E+04 -7.21600E+03  1.37911E+04
 -1.09356E+04  4.14764E+03 -5.85348E+03 -2.79711E+03  2.07774E+03 -3.60599E+03  6.98062E+03 -1.24334E+03
  6.05068E+03  6.13181E+03  9.82330E+02  1.04883E+04 -7.51119E+03  1.04812E+04 -1.26999E+04  2.57419E+03
 -8.83874E+03 -6.39362E+03  4.38426E+02 -1.08718E+04  6.58438E+03 -5.70207E+03  7.51452E+03  2.74637E+03
  2.04640E+03  7.67009E+03 -7.01001E+03  8.55021E+03 -1.18177E+04  4.80759E+03 -1.07099E+04 -3.20184E+03
 -6.34832E+03 -1.24302E+04  3.14586E+03 -1.49023E+04  1.18214E+04 -8.48731E+03  1.28650E+04  2.32179E+03
  8.01425E+03  1.06792E+04 -7.95893E+02  1.27250E+04 -9.29214E+03  6.98887E+03 -9.78824E+03 -1.19581E+03
 -8.38203E+03 -8.75025E+03 -2.34036E+03 -9.26913E+03  5.54531E+03 -8.14520E+03  6.00732E+03 -3.91072E+03
  4.25516E+03  1.41484E+03 -1.61792E+03  1.87676E+03 -1.78806E+02 -1.45374E+03  1.23810E+03 -4.75274E+03
  8.19143E+03 -3.53975E+03  1.29738E+04  1.51248E+03  1.14452E+04  8.52575E+03  9.13340E+03  1.59367E+04
 -3.85862E+03  1.89416E+04 -1.61435E+04  1.34351E+04 -1.96536E+04  2.63400E+03 -1.62880E+04 -7.05596E+03
 -8.11145E+03 -1.34865E+04 -4.42624E+02 -9.95143E+03  3.71983E+03 -5.35130E+03  3.25573E+03 -3.72349E+03
  2.49531E+03 -2.65287E+03  3.45025E+03 -3.46581E+03  4.33425E+03 -3.69435E+03  6.51102E+03 -6.64495E+02
  7.82083E+03  1.82382E+03  4.27761E+03  6.82510E+03 -2.03097E+03  8.66286E+03 -8.73207E+03  6.68159E+03
 -1.13663E+04 -1.53953E+03 -6.40460E+03 -8.11404E+03 -4.31110E+01 -1.21968E+04  6.70779E+03 -1.21158E+04
  1.25331E+04 -6.52911E+03  1.49020E+04  1.78984E+03  1.03903E+04  9.62025E+03  1.83468E+03  1.34409E+04
 -5.12635E+03  1.05057E+04 -7.86230E+03  4.20083E+03 -5.16662E+03 -1.45704E+03 -2.24242E+03 -1.38815E+03
 -7.63016E+02  2.13996E+02 -2.22779E+03  2.65507E+03 -5.46673E+03  1.83464E+03 -7.74481E+03 -1.18990E+03
 -5.15790E+03 -7.90776E+03  9.04656E+02 -1.08178E+04  6.58381E+03 -9.57143E+03  1.05554E+04 -1.98081E+03
  1.02119E+04  5.17451E+03  4.92272E+03  8.89207E+03 -1.64306E+03  1.07605E+04 -7.30199E+03  6.57276E+03
 -9.89365E+03  5.66062E+02 -7.41823E+03 -6.30283E+03 -1.03360E+03 -8.78898E+03  4.26945E+03 -7.16995E+03
  6.90268E+03 -2.36668E+03  5.01560E+03  2.70946E+03  1.58039E+03  3.16391E+03  1.04814E+03  1.55076E+03
  3.02065E+03  1.17979E+03  2.86126E+03  1.35025E+03  3.19299E+03  4.12608E+03  2.62228E+03  5.58095E+03
 -2.44774E+03  7.37555E+03 -6.86945E+03  8.79486E+03 -1.08203E+04  2.66293E+03 -1.13011E+04 -3.96803E+03
 -4.80411E+03 -1.00986E+04  2.69520E+03 -1.19695E+04  6.70017E+03 -6.88643E+03  7.81477E+03 -1.91558E+03
  6.10044E+03  3.59109E+03  1.18175E+03  6.15288E+03 -2.84100E+03  4.10363E+03 -3.78995E+03 -9.20208E+02
 -1.44306E+03 -4.27826E+03  2.67810E+03 -4.63593E+03  4.36607E+03 -1.98302E+03  4.66539E+03  3.74110E+02
  2.86913E+03  1.60607E+03  1.99915E+03  1.46747E+03 -1.03435E+03  1.24794E+03  1.50388E+03 -8.07690E+02
  1.33430E+03 -9.03462E+02  4.39910E+03  2.05091E+03  1.93475E+03  5.96165E+03 -6.66624E+02  7.47455E+03
 -5.34963E+03  4.52425E+03 -6.27726E+03  9.47787E+02 -6.22483E+03 -2.32945E+03 -2.39190E+03 -4.14888E+03
 -9.63609E+01 -3.43338E+03  2.38286E+03 -1.66208E+03  2.46876E+03  2.00215E+03 -1.34720E+03  3.11313E+03
 -4.23472E+03  1.99337E+03 -4.91695E+03 -3.19655E+03 -2.97331E+03 -6.05178E+03 -6.13693E+01 -5.50819E+03
  3.04702E+03 -3.32585E+03  3.86747E+03 -1.09905E+02  3.62658E+03  7.43505E+02  7.40180E+02  3.18568E+03
 -1.81247E+03  1.48185E+03 -2.27793E+03 -1.36577E+03  1.44146E+03 -3.35479E+03  4.80117E+03 -3.31253E+03
  6.39231E+03  6.28748E+02  5.79144E+03  3.77878E+03  1.80526E+03  6.74353E+03 -1.88314E+03  5.58374E+03
 -5.15011E+03  2.40149E+03 -5.76859E+03 -1.31929E+03 -3.76545E+03 -4.15220E+03  1.20412E+03 -3.08796E+03
  4.35359E+03 -2.04589E+03  3.10214E+03  1.81320E+03  1.72433E+03  4.10810E+03 -4.52022E+02  3.17290E+03
 -2.30275E+03  1.73552E+03 -2.58669E+03  1.08322E+03 -8.04934E+02  9.82598E+02 -1.48504E+03  1.48775E+03
 -1.92956E+03  1.61583E+03 -5.01822E+03  2.57216E+03 -6.37046E+03 -1.35842E+02 -7.49355E+03 -3.78235E+03
 -3.54395E+03 -7.83324E+03  1.09122E+03 -9.64862E+03  5.63370E+03 -7.23850E+03  9.32898E+03 -2.66502E+03
  9.37883E+03  1.38925E+03  5.40913E+03  5.65415E+03  4.00104E+02  5.62744E+03 -1.95859E+03  4.48933E+03
 -3.53353E+03  1.67555E+03 -1.69554E+03 -6.25018E+02 -9.96607E+02 -2.16783E+02  9.21115E+01 -2.38588E+02
 -2.18702E+03  6.23338E+01 -1.77198E+03 -1.18168E+02 -2.95809E+02 -1.12189E+03 -2.20530E+02 -2.73989E+03
  2.87460E+03 -1.98957E+03  3.80171E+03 -1.82748E+02  4.83285E+03  3.15621E+03  3.98799E+02  6.20343E+03
 -3.71340E+03  7.39133E+03 -5.99446E+03  3.97390E+03 -6.98736E+03 -2.02404E+02 -5.91921E+03 -4.93787E+03
 -2.10424E+03 -5.89641E+03  1.51063E+03 -6.01445E+03  3.23957E+03 -2.53432E+03  3.86795E+03  8.96127E+01
  2.25481E+03  1.67359E+03 -4.49288E+02  1.73548E+03 -1.10245E+03  1.98215E+02 -1.75334E+02 -1.34114E+03
  1.68937E+03 -6.45178E+02  1.99381E+03  9.74334E+02  1.86520E+03  2.34308E+03 -4.44171E+02  2.53784E+03
 -2.18752E+03  1.90293E+03 -3.82221E+03  2.25089E+02 -3.26679E+03 -2.01795E+03  7.79527E+01 -4.47339E+03
  2.54215E+03 -3.67985E+03  4.29160E+03 -1.44787E+03  3.99221E+03  6.52366E+02  2.09878E+03  3.60313E+03
  7.45755E+02  4.42879E+03 -1.18972E+03  2.84665E+03 -3.10866E+03  2.03596E+03 -1.73947E+03 -5.85278E+02
 -9.40338E+02 -2.44764E+02 -3.82187E+02  1.05588E+03 -2.11025E+03  7.72455E+02 -3.06967E+03 -5.06237E+02
 -2.77656E+03 -1.86692E+03 -1.02386E+03 -3.65446E+03  1.62371E+03 -4.15216E+03  2.78539E+03 -1.98927E+03
  3.50965E+03  3.42442E+02  1.62955E+03  2.22012E+03 -6.10719E+02  4.13414E+03 -2.72021E+03  2.99451E+03
