 $NMID ID='MM_0lb_SNR400_20hz_g55_80.RAW', FMTDAT='(8E13.5)'
 TRAMP=1., VOLUME=1. $END
  3.09897E+05 -1.75245E+02  3.37391E+05  2.50249E+05  8.47088E+04  3.37198E+05 -1.32340E+05  2.49900E+05
 -1.89882E+05  8.20930E+04 -1.10916E+05 -3.37188E+04  7.82669E+02 -5.00445E+04  5.42798E+04 -2.84476E+02
  3.54131E+04  5.28714E+04 -1.72747E+04  7.46871E+04 -6.03739E+04  6.28021E+04 -8.34569E+04  3.15112E+04
 -8.00205E+04 -1.15356E+04 -5.63048E+04 -4.97840E+04 -1.52069E+04 -6.85781E+04  2.68876E+04 -4.49305E+04
  3.87752E+04  3.79591E+03  1.54108E+04  4.72096E+04 -3.41446E+04  4.60617E+04 -6.54701E+04 -9.24099E+02
 -5.27710E+04 -5.56170E+04 -6.63602E+03 -7.56177E+04  3.31600E+04 -5.34642E+04  4.60054E+04 -1.68717E+04
  4.17263E+04  1.10349E+04  3.11160E+04  2.43243E+04  1.57303E+04  2.80037E+04 -4.39114E+03  2.70896E+04
 -2.16989E+04  1.29262E+04 -1.91093E+04 -4.45681E+03  4.48177E+03 -6.95120E+03  2.18050E+04  1.08066E+04
  7.38146E+03  3.29498E+04 -3.03702E+04  3.46141E+04 -6.15868E+04  2.29330E+03 -5.52673E+04 -4.08923E+04
 -1.18342E+04 -6.11119E+04  3.84734E+04 -4.31729E+04  5.58935E+04 -2.13679E+03  3.16030E+04  3.12405E+04
 -6.53011E+03  3.32837E+04 -2.86185E+04  1.33056E+04 -2.79348E+04 -5.59476E+03 -1.43533E+04 -1.03516E+04
 -8.01384E+03 -1.19846E+04 -4.95395E+02 -1.62495E+04  6.42598E+03 -2.27445E+04  1.55581E+04 -1.36314E+04
  1.18927E+04  4.25523E+03 -6.73584E+03  1.36307E+04 -1.91288E+04 -2.49918E+03 -8.15032E+03 -3.04927E+04
  2.03587E+04 -4.02562E+04  4.49312E+04 -1.84504E+04  4.22414E+04  1.88351E+04  1.40336E+04  4.15321E+04
 -1.58679E+04  3.11754E+04 -2.32353E+04  1.02461E+03 -8.21882E+03 -2.61097E+04  2.07606E+04 -3.14992E+04
  3.82028E+04 -6.86331E+03  3.17138E+04  2.26497E+04  1.52446E+04  4.28140E+04 -7.49204E+03  4.50704E+04
 -2.91013E+04  3.00360E+04 -3.68123E+04  8.30195E+03 -3.87556E+04 -1.48419E+04 -2.15202E+04 -3.47370E+04
  6.50086E+03 -3.43245E+04  2.94114E+04 -1.26415E+04  2.72776E+04  1.08998E+04  3.60742E+03  1.81646E+04
 -1.32793E+04  7.58627E+03 -9.36682E+03 -7.65968E+03  5.74805E+03 -1.04456E+04  1.67523E+04  6.81581E+03
  1.25104E+04  2.12777E+04 -6.37497E+03  2.30015E+04 -2.14060E+04  9.15263E+03 -2.50124E+04 -6.33959E+03
 -1.69265E+04 -1.66146E+04 -5.39743E+03 -1.67729E+04  4.06652E+03 -1.43867E+04  1.21228E+04 -1.38792E+04
  2.12426E+04 -1.13247E+04  2.80242E+04  8.43321E+02  2.12238E+04  1.60938E+04  3.92698E+03  3.22153E+04
 -1.60958E+04  2.71452E+04 -2.60452E+04  9.51827E+03 -1.96913E+04 -1.01002E+04 -3.54161E+03 -1.42909E+04
  2.77450E+03 -4.01557E+03 -2.41857E+03  5.13340E+03 -1.29038E+04  5.20040E+03 -1.32087E+04 -4.85162E+03
 -8.85410E+03 -1.54360E+04  4.66820E+03 -1.86446E+04  1.25317E+04 -1.39152E+04  1.44755E+04 -1.36056E+03
  8.75368E+03  1.06852E+04 -6.90032E+02  1.51003E+04 -1.05508E+04  9.11346E+03 -1.50654E+04 -3.57856E+03
 -1.15421E+04 -1.38688E+04 -1.47018E+03 -1.86157E+04  8.35624E+03 -1.47216E+04  1.62763E+04 -6.86982E+03
  1.43240E+04  1.21208E+03  1.01656E+04  3.86687E+03  4.40726E+03  4.73054E+02  7.02622E+03 -1.17597E+03
  1.38830E+04  2.57393E+03  1.41627E+04  1.25696E+04  8.67575E+03  2.44358E+04 -2.53476E+03  2.59830E+04
 -1.54877E+04  1.99560E+04 -2.36103E+04  9.02452E+03 -2.40105E+04 -1.42198E+03 -2.09945E+04 -1.32905E+04
 -9.59475E+03 -1.96207E+04  6.45727E+03 -1.90863E+04  1.59053E+04 -1.05669E+04  1.51598E+04  3.37462E+03
  6.64801E+03  1.09586E+04 -7.11711E+03  1.05948E+04 -1.32826E+04  2.30783E+03 -9.86564E+03 -8.00167E+03
  3.24227E+01 -1.21251E+04  5.89329E+03 -8.98080E+03  7.71586E+03 -1.48672E+03  1.61972E+03  5.01873E+03
 -5.26270E+03  1.34936E+03 -3.46800E+03 -5.09437E+03  5.00564E+02 -9.77060E+03  7.63951E+03 -9.74945E+03
  1.15328E+04 -4.40811E+03  1.09481E+04  3.13669E+03  9.72574E+03  8.68564E+03  4.46203E+03  1.34323E+04
 -1.51679E+03  1.51602E+04 -9.32758E+03  9.11296E+03 -1.10120E+04  2.51383E+03 -8.37103E+03 -1.72992E+03
 -4.31316E+03 -2.96845E+03 -9.42923E+02  1.82811E+03 -2.13429E+03  1.91585E+03 -3.93480E+03  3.50699E+03
 -7.27082E+03 -7.69431E+02 -8.14922E+03 -6.79404E+03 -3.36655E+03 -1.08536E+04  3.40386E+03 -7.98697E+03
  6.68133E+03 -3.44607E+03  5.05311E+03  2.17683E+03  1.04825E+03  2.67973E+03 -3.07094E+03 -2.13532E+02
 -2.66334E+03 -5.39798E+03 -9.54293E+02 -6.69700E+03  3.86189E+03 -7.25897E+03  9.20482E+03 -3.29403E+03
  1.05236E+04  3.31830E+02  8.46167E+03  5.55136E+03  1.50761E+03  7.65001E+03 -4.83264E+03  7.81978E+03
 -6.90361E+03  2.37305E+03 -3.70450E+03 -1.05575E+03  1.78382E+03 -1.67346E+03  5.14183E+03 -9.87693E+02
  4.16502E+03  3.02177E+03  8.65341E+02  5.99909E+03 -4.29831E+03  5.66551E+03 -6.80037E+03  1.66126E+03
 -4.14420E+03 -3.18966E+03  4.82960E+02 -5.72600E+03  3.53298E+03 -2.76414E+03  3.31156E+03  7.27065E+02
  4.93879E+02  2.75812E+03 -3.49845E+03  4.08529E+03 -4.28216E+03  2.22464E+03 -3.40773E+03 -5.60088E+02
 -2.62877E+03 -4.94335E+03  1.14499E+03 -6.04138E+03  5.60206E+03 -4.62313E+03  5.53314E+03  7.14011E+02
  4.22794E+03  5.06684E+03  3.12730E+02  6.72395E+03 -4.22934E+03  4.02000E+03 -4.57054E+03 -4.17829E+02
 -5.11286E+03 -4.67486E+03 -1.53870E+03 -4.06049E+03  2.11275E+03 -4.03103E+03  2.63755E+03 -2.86180E+03
  2.98711E+03  5.06635E+02  1.92554E+02  1.39656E+03  6.81636E+02 -5.55974E+01 -2.94519E+02 -1.25079E+03
  2.43463E+03 -1.26020E+02  4.32015E+03  1.17811E+02  4.77334E+03  2.92551E+03  5.12636E+03  5.98134E+03
 -1.41662E+03  7.15444E+03 -7.21271E+03  4.77315E+03 -8.85609E+03  1.14019E+03 -6.58092E+03 -1.80432E+03
 -4.07968E+03 -5.64806E+03 -4.51286E+02 -4.76080E+03  2.07476E+03 -1.91760E+03  1.38348E+03 -2.48481E+03
  1.30570E+03 -1.32890E+03  2.00912E+03 -1.64544E+03  3.45938E+03 -9.50134E+02  3.73794E+03  4.57577E+02
  3.92639E+03  1.01373E+03  9.66010E+02  3.03674E+03 -1.54837E+03  2.07549E+03 -3.61005E+03  2.57991E+03
 -4.45555E+03 -1.21033E+03 -9.71115E+02 -2.45953E+03  5.35658E+02 -4.67217E+03  3.03395E+03 -4.34623E+03
  4.48091E+03 -2.48904E+03  5.86319E+03 -1.20366E+02  4.22358E+03  3.63869E+03  9.47536E+02  4.92983E+03
 -1.57598E+03  5.09984E+03 -3.20423E+03  1.75681E+03 -1.00548E+03 -9.24765E+02 -8.09430E+02 -2.92598E+02
 -5.60207E+02  1.11393E+02 -1.36208E+03  1.79870E+03 -2.07559E+03  9.91164E+02 -3.77868E+03 -8.04202E+02
 -1.34742E+03 -3.75554E+03  7.85093E+02 -3.76358E+03  2.35228E+03 -4.07103E+03  2.88183E+03 -1.41492E+03
  3.26365E+03  1.83800E+03  1.19932E+03  2.08816E+03 -2.19918E+02  3.64057E+03 -2.24306E+03  1.69686E+03
 -3.47504E+03  3.08019E+02 -3.33258E+03 -2.24021E+03 -3.21669E+02 -2.62915E+03  5.45672E+02 -2.47785E+03
  2.42856E+03 -1.40595E+03  1.77296E+03  6.65994E+01  1.24726E+02  1.37174E+03  6.28059E+02  7.56827E+02
  1.44252E+03  6.55925E+02  9.04999E+02  8.76574E+02  5.17290E+02  2.15881E+03  9.33905E+02  8.42804E+02
 -1.06869E+03  2.18675E+03 -2.36749E+03  3.17993E+03 -2.36033E+03  1.08669E+03 -3.43156E+03  2.68024E+02
 -1.85404E+03 -2.84432E+03  9.44446E+02 -3.85724E+03  1.31097E+03 -1.45809E+03  2.95599E+03 -7.20274E+02
  1.95617E+03  1.58236E+03 -1.56807E+02  2.26493E+03 -3.99383E+02  1.11425E+03 -7.09302E+02  1.95271E+02
 -7.15689E+02 -1.26898E+03  1.01195E+03 -9.57511E+02  1.18010E+03 -9.30370E+02  1.12955E+03  3.85515E+02
  5.05974E+02  2.83056E+02  5.97638E+02 -3.66954E+02 -1.67373E+01  5.92044E+01  1.25085E+03 -3.57544E+02
 -1.25167E+02 -1.73643E+02  1.20980E+03  4.35668E+02  1.95013E+02  1.45603E+03 -4.85505E+02  2.77065E+03
 -6.70694E+02  3.01589E+02 -1.38981E+03  2.27062E+02 -1.81057E+03 -4.54462E+02 -4.22707E-01 -6.53994E+02
  7.85029E+02 -7.57748E+02  5.20922E+02 -3.68665E+02  5.45939E+02  1.15434E+03 -5.31293E+02  7.45968E+02
 -5.35919E+02  1.07221E+02 -6.52137E+02 -6.58512E+02 -5.78512E+02 -1.18611E+03  3.58076E+02 -1.29245E+03
 -1.73041E+02  1.89314E+02  1.07208E+03  2.48007E+02  1.26376E+03 -4.93845E+02  1.44330E+02  7.29683E+02
 -1.73936E+02  7.52520E+01 -8.23189E+02 -2.49355E+02  6.57462E+02 -4.10824E+02  1.35388E+03 -9.94438E+02
  5.43222E+02  7.98640E+02  2.54266E+03  3.38558E+02  8.19625E+02  1.18580E+03 -4.52163E+02  1.24429E+03
 -1.02424E+03  5.43424E+01 -5.41172E+02 -3.42984E+02 -9.30096E+02 -1.09093E+03  5.65333E+02  2.94700E+01
  1.14042E+03 -4.98878E+02  2.54020E+02  7.62531E+02 -2.35449E+02  1.29336E+03  4.80928E+02  9.42940E+02
 -3.59292E+01  7.84737E+02 -4.59474E+02 -2.20042E+02  4.67901E+02  3.18121E+02 -8.39613E+02  1.04218E+02
 -4.58125E+02  1.08757E+03 -1.44794E+03  3.76274E+02 -1.30692E+03  2.92455E+02 -1.98807E+03 -8.87484E+02
 -1.09247E+03 -1.71678E+03 -7.63642E+01 -1.71530E+03 -2.39625E+01 -1.60274E+03  1.73025E+03 -4.49688E+02
  1.67528E+03  2.30239E+01  5.59450E+02  1.05255E+03 -8.06447E+02  1.09573E+03 -7.31205E+02  9.69816E+02
 -9.59260E+02  6.53531E+02 -7.26110E+02 -1.22225E+02 -4.97523E+02  4.19108E+02 -6.17007E+02  2.05617E+02
 -1.28862E+03  5.18895E+02 -7.42039E+02  3.16533E+02  1.94511E+02 -1.12934E+03  2.82112E+01 -3.66385E+02
  1.25477E+03 -4.16720E+02 -4.88488E+02 -3.36334E+02  5.43027E+02  9.17400E+02 -5.67554E+02  6.91527E+02
 -6.22768E+02  1.56476E+03 -8.47663E+02  5.87664E+02 -7.31671E+02 -3.94132E+02 -7.91502E+02 -8.85477E+02
 -6.91750E+02 -8.28789E+02  2.11728E+02 -1.02631E+03  5.86038E+02 -6.81850E+02  6.14753E+02  2.06180E+02
  7.86132E+02  1.07708E+03  3.62382E+02  2.68642E+02 -1.05654E+02 -2.01937E+02 -1.80805E+02 -1.38954E+02
  5.54080E+02  4.17562E+02  4.31391E+02  6.23578E+02  3.04833E+02  1.54612E+02  1.16502E+02 -4.10026E+02
 -4.57204E+02  1.04111E+02 -4.74154E+02 -9.28992E+01 -5.89101E+02 -1.83737E+02  4.12315E+02 -8.57694E+02
  3.30150E+02 -1.34347E+02 -4.89708E+01  2.80723E+02  1.10294E+03 -8.48442E+02  6.52457E+02  5.20612E+02
  3.99728E+02  2.00740E+02 -3.95228E+02  4.75298E+02  9.86568E+01  5.70057E+02 -5.69383E+02  3.32781E+02
 -1.66841E+02  2.41744E+02 -5.30636E+02 -8.75818E+01 -4.02465E+02 -1.87848E+02 -7.35790E+02 -2.97256E+01
 -6.74550E+02  5.80411E+02  3.60690E+02 -1.38691E+03  2.35963E+02 -9.28459E+02  9.38751E+02 -2.95295E+02
  3.45320E+02 -5.34547E+01 -4.39436E+02  4.97064E+02  2.48066E+02  7.65551E+02  1.40645E+02  5.07251E+02
