 $NMID ID='MM_0lb_SNR400_10hz_g60_4.RAW', FMTDAT='(8E13.5)'
 TRAMP=1., VOLUME=1. $END
  3.10028E+05  3.74421E+02  3.38425E+05  2.51377E+05  8.42097E+04  3.38672E+05 -1.32980E+05  2.52069E+05
 -1.91119E+05  8.47248E+04 -1.13278E+05 -3.23086E+04  2.25378E+02 -5.08246E+04  5.32452E+04  1.36625E+02
  3.65158E+04  5.31243E+04 -1.64217E+04  7.58993E+04 -6.22403E+04  6.42377E+04 -8.44969E+04  3.33987E+04
 -8.24082E+04 -1.17884E+04 -5.75717E+04 -5.29935E+04 -1.56480E+04 -7.08605E+04  2.77646E+04 -4.67816E+04
  4.23968E+04  3.42253E+03  1.60956E+04  4.84639E+04 -3.41553E+04  4.91659E+04 -6.88325E+04 -6.94061E+02
 -5.39994E+04 -5.78937E+04 -6.97736E+03 -7.96596E+04  3.48251E+04 -5.65168E+04  5.06280E+04 -1.79121E+04
  4.51275E+04  1.11452E+04  3.31340E+04  2.64108E+04  1.63724E+04  3.11026E+04 -5.58814E+03  2.68577E+04
 -2.27638E+04  1.15870E+04 -1.82661E+04 -5.97102E+03  6.66368E+03 -8.20168E+03  2.35302E+04  1.39589E+04
  6.75472E+03  3.68644E+04 -3.40178E+04  3.69400E+04 -6.60522E+04  2.30355E+03 -5.85338E+04 -4.47891E+04
 -1.30342E+04 -6.62706E+04  4.13759E+04 -4.73602E+04  6.09440E+04 -3.05826E+03  3.68068E+04  3.37732E+04
 -5.80336E+03  3.96553E+04 -3.17015E+04  1.87938E+04 -3.31586E+04 -3.29509E+03 -2.01519E+04 -1.24185E+04
 -9.78498E+03 -1.47609E+04 -3.53217E+02 -2.02745E+04  8.47052E+03 -2.33814E+04  1.54629E+04 -1.28236E+04
  1.10232E+04  5.47805E+03 -1.10117E+04  1.14951E+04 -2.32108E+04 -7.15255E+03 -8.79776E+03 -3.86312E+04
  2.63574E+04 -4.64709E+04  5.28278E+04 -2.14928E+04  4.80691E+04  2.02337E+04  1.72559E+04  4.73888E+04
 -1.63460E+04  3.62421E+04 -2.80432E+04  3.87200E+03 -1.15444E+04 -2.93854E+04  2.19843E+04 -3.75045E+04
  4.48603E+04 -1.17050E+04  3.98518E+04  2.49281E+04  2.16298E+04  5.15491E+04 -8.08451E+03  5.59059E+04
 -3.53544E+04  3.85079E+04 -4.74334E+04  1.05998E+04 -4.88081E+04 -1.90481E+04 -2.67351E+04 -4.21003E+04
  7.86769E+03 -4.26759E+04  3.38524E+04 -1.72270E+04  3.22217E+04  1.16295E+04  5.30539E+03  2.08844E+04
 -1.36719E+04  1.04353E+04 -1.14650E+04 -7.66538E+03  5.73174E+03 -1.09684E+04  1.88662E+04  5.97922E+03
  1.49473E+04  2.25608E+04 -4.82347E+03  2.67159E+04 -2.31040E+04  1.47487E+04 -3.22901E+04 -3.18391E+03
 -2.52796E+04 -1.87464E+04 -1.17147E+04 -2.57640E+04  4.42078E+03 -2.60547E+04  1.91721E+04 -2.30016E+04
  3.24874E+04 -1.46196E+04  3.83299E+04  4.51863E+03  2.74706E+04  2.54270E+04  4.44871E+03  4.13029E+04
 -1.95929E+04  3.42776E+04 -3.10890E+04  1.21098E+04 -2.21655E+04 -1.08380E+04 -4.43914E+03 -1.32430E+04
  6.84517E+02 -1.49327E+03 -7.73102E+03  8.42843E+03 -1.98179E+04  4.45405E+03 -2.01835E+04 -9.84466E+03
 -1.20176E+04 -2.38744E+04  5.68765E+03 -2.81762E+04  1.90232E+04 -1.95246E+04  2.24666E+04 -1.83715E+03
  1.47193E+04  1.68749E+04 -9.43172E+02  2.39482E+04 -1.71366E+04  1.40946E+04 -2.43573E+04 -4.89543E+03
 -1.75713E+04 -2.01089E+04 -1.91460E+03 -2.77313E+04  1.29317E+04 -2.35100E+04  2.34261E+04 -1.22527E+04
  2.22643E+04 -4.48735E+02  1.64147E+04  4.98239E+03  9.23253E+03  1.37451E+03  1.21465E+04 -2.52355E+03
  2.24357E+04  2.85886E+03  2.55258E+04  1.83836E+04  1.67212E+04  3.71490E+04 -2.18051E+03  4.45776E+04
 -2.50862E+04  3.69599E+04 -4.10964E+04  1.86063E+04 -4.44577E+04 -3.20968E+03 -3.53576E+04 -2.65463E+04
 -1.46483E+04 -3.70929E+04  1.25280E+04 -3.20587E+04  2.76977E+04 -1.61835E+04  2.40243E+04  7.50971E+03
  8.28752E+03  1.90172E+04 -1.06200E+04  1.58854E+04 -1.98996E+04  2.28068E+03 -1.50455E+04 -1.30187E+04
 -9.29391E+02 -1.90201E+04  1.04445E+04 -1.38295E+04  1.34053E+04 -1.09000E+03  3.73398E+03  8.60722E+03
 -9.16682E+03  4.28402E+03 -9.37048E+03 -7.69716E+03 -2.11489E+03 -1.75194E+04  1.18037E+04 -1.93812E+04
  2.32342E+04 -1.08664E+04  2.59273E+04  3.34652E+03  2.32127E+04  1.82922E+04  1.15361E+04  2.91571E+04
 -4.85419E+03  3.07404E+04 -1.97293E+04  1.89250E+04 -2.21786E+04  3.12969E+03 -1.53932E+04 -5.71799E+03
 -6.73779E+03 -6.53805E+03 -1.00154E+03  5.03780E+02 -3.03301E+03  2.89001E+03 -6.99664E+03  5.49074E+03
 -1.38764E+04 -1.63606E+03 -1.45648E+04 -1.19593E+04 -5.55789E+03 -1.96372E+04  6.53450E+03 -1.56846E+04
  1.21637E+04 -5.84895E+03  9.16236E+03  4.51007E+03 -7.05114E+02  5.75066E+03 -7.83601E+03  6.90407E+02
 -7.11789E+03 -8.99005E+03 -1.19002E+03 -1.56909E+04  8.94177E+03 -1.64712E+04  1.99601E+04 -8.87576E+03
  2.36305E+04  2.73712E+03  1.69040E+04  1.42143E+04  2.33209E+03  1.89696E+04 -9.83561E+03  1.55795E+04
 -1.22966E+04  5.25854E+03 -6.22471E+03 -3.17078E+03  2.98171E+03 -4.30536E+03  8.82726E+03 -1.12049E+03
  7.37596E+03  6.75492E+03  1.41548E+03  1.29951E+04 -9.59638E+03  1.22344E+04 -1.49294E+04  2.83534E+03
 -1.06617E+04 -7.26231E+03  2.24835E+02 -1.34059E+04  8.75810E+03 -7.49408E+03  9.47414E+03  2.97248E+03
  2.11775E+03  1.09619E+04 -8.95499E+03  1.18820E+04 -1.35328E+04  5.55294E+03 -1.36098E+04 -5.61988E+03
 -7.83631E+03 -1.59577E+04  3.29258E+03 -1.77244E+04  1.51978E+04 -1.07460E+04  1.69337E+04  2.49620E+03
  1.01530E+04  1.32690E+04 -1.42991E+03  1.51483E+04 -1.06911E+04  9.20925E+03 -1.29118E+04 -1.77777E+03
 -1.06937E+04 -1.07234E+04 -2.16243E+03 -1.24620E+04  6.23139E+03 -9.46858E+03  7.53973E+03 -3.19858E+03
  4.47276E+03  2.33838E+03 -1.40393E+03  2.21595E+03 -7.15556E+02 -3.45612E+03  2.78078E+03 -7.91023E+03
  1.06316E+04 -4.11954E+03  1.63123E+04  2.05039E+03  1.51223E+04  1.09243E+04  9.48689E+03  2.10818E+04
 -4.46126E+03  2.40344E+04 -2.01706E+04  1.73927E+04 -2.48465E+04  3.55801E+03 -2.06154E+04 -9.15145E+03
 -9.95589E+03 -1.63428E+04 -7.00844E+02 -1.46905E+04  4.85205E+03 -7.78448E+03  4.90532E+03 -5.61792E+03
  4.45747E+03 -2.83621E+03  3.85027E+03 -4.24759E+03  6.25042E+03 -2.77668E+03  7.08692E+03 -1.01201E+03
  1.07050E+04  1.68881E+03  5.65100E+03  9.20671E+03 -2.56432E+03  1.03815E+04 -1.09715E+04  8.26180E+03
 -1.43970E+04 -8.05123E+02 -8.80113E+03 -9.89935E+03 -1.04684E+03 -1.52612E+04  8.78067E+03 -1.53289E+04
  1.55370E+04 -9.05366E+03  1.86353E+04  3.31654E+03  1.28148E+04  1.30396E+04  2.22444E+03  1.74131E+04
 -7.22613E+03  1.44708E+04 -1.03538E+04  5.45860E+03 -7.83610E+03 -1.95431E+03 -3.75184E+03 -2.48267E+03
 -1.43549E+03 -1.53236E+01 -2.04918E+03  2.49922E+03 -5.67319E+03  2.75810E+03 -9.39022E+03 -1.88372E+03
 -6.50007E+03 -1.04613E+04  5.36480E+02 -1.35988E+04  8.99011E+03 -1.36135E+04  1.47573E+04 -4.29865E+03
  1.45329E+04  6.77409E+03  6.56554E+03  1.26569E+04 -2.42883E+03  1.46465E+04 -9.90942E+03  8.06571E+03
 -1.29383E+04  3.35810E+02 -1.06347E+04 -7.74905E+03 -7.14923E+02 -1.11979E+04  6.67264E+03 -8.48732E+03
  9.17568E+03 -3.48826E+03  5.79226E+03  2.41274E+03  1.14642E+03  3.82369E+03  1.06122E+03  2.43275E+03
  2.65807E+03  1.21221E+03  4.12400E+03  2.23140E+03  3.94584E+03  4.40717E+03  4.33453E+03  8.30750E+03
 -3.32912E+03  1.10040E+04 -8.95111E+03  1.14373E+04 -1.45195E+04  2.93322E+03 -1.49163E+04 -5.72919E+03
 -8.17412E+03 -1.48122E+04  2.49514E+03 -1.59207E+04  8.62892E+03 -9.24485E+03  1.15880E+04 -3.17942E+03
  8.87061E+03  4.69446E+03  1.55102E+03  7.53587E+03 -4.09521E+03  5.57879E+03 -5.52149E+03 -1.45719E+03
 -2.54655E+03 -5.35181E+03  2.85939E+03 -6.86281E+03  6.40892E+03 -3.73139E+03  6.54851E+03  7.60443E+02
  3.08933E+03  2.98032E+03  1.27582E+03  1.51637E+03 -6.75696E+02  1.87755E+03  1.38979E+03 -8.99160E+02
  2.32860E+03 -5.02147E+02  5.72458E+03  2.43300E+03  3.01548E+03  8.02891E+03 -1.78797E+03  9.95982E+03
 -6.44485E+03  6.24124E+03 -9.97721E+03  1.40278E+03 -7.93585E+03 -2.72471E+03 -2.81267E+03 -5.49655E+03
  1.10759E+03 -5.65245E+03  3.59281E+03 -2.97451E+03  3.46575E+03  3.00981E+03 -1.68145E+03  4.16760E+03
 -5.50656E+03  2.39273E+03 -7.40972E+03 -3.94792E+03 -3.57794E+03 -7.78308E+03  1.30669E+03 -7.83513E+03
  4.31554E+03 -5.04572E+03  5.21841E+03 -1.00429E+03  5.05151E+03  2.02941E+03  1.39662E+02  3.60280E+03
 -3.53769E+03  1.15698E+03 -4.32117E+03 -3.16363E+03  1.37627E+03 -6.48795E+03  6.79385E+03 -4.76115E+03
  8.80720E+03  8.19869E+02  8.77050E+03  6.11058E+03  2.95575E+03  9.96071E+03 -3.26841E+03  8.37377E+03
 -7.25991E+03  4.30735E+03 -8.30473E+03 -1.58200E+03 -4.53422E+03 -6.02507E+03  1.81515E+03 -5.18966E+03
  6.36590E+03 -2.84350E+03  5.01857E+03  2.51465E+03  1.68720E+03  4.37501E+03 -7.84314E+02  4.48968E+03
 -2.38524E+03  3.28935E+03 -2.45992E+03  1.55815E+03 -7.49722E+02  9.49902E+02 -1.34308E+03  1.28093E+03
 -2.72465E+03  3.34227E+03 -5.77467E+03  4.17626E+03 -8.83211E+03  1.59621E+01 -1.04682E+04 -5.74907E+03
 -5.94122E+03 -1.15298E+04  2.22307E+03 -1.42656E+04  9.11904E+03 -1.02453E+04  1.25794E+04 -4.06622E+03
  1.30607E+04  2.42431E+03  7.85930E+03  9.06629E+03  3.58785E+02  9.65927E+03 -4.05162E+03  7.59232E+03
 -4.86610E+03  2.55504E+03 -2.98989E+03 -8.51709E+02 -7.97578E+02 -4.12990E+02 -6.76769E+02  2.48767E+02
 -2.16296E+03  4.70558E+02 -1.06966E+03 -2.51060E+02 -7.13589E+02 -3.00460E+03  3.94058E+01 -3.78954E+03
  4.26645E+03 -2.61727E+03  5.86625E+03 -5.80517E+02  6.40608E+03  6.12739E+03  2.24085E+03  9.45595E+03
 -3.71924E+03  1.10093E+04 -1.12381E+04  6.29087E+03 -1.11346E+04 -8.82998E+02 -8.65820E+03 -7.50263E+03
 -3.91614E+03 -9.94400E+03  2.67965E+03 -8.83186E+03  5.42107E+03 -4.95273E+03  6.00884E+03 -2.78677E+02
  3.17043E+03  3.32699E+03  2.34303E+02  2.17681E+03 -1.08678E+03  7.95246E+01  4.01757E+02 -1.65471E+03
  2.70887E+03 -1.65084E+03  3.73916E+03  6.77339E+02  2.53478E+03  3.96915E+03  1.33614E+02  4.31067E+03
 -4.26491E+03  4.22695E+03 -6.39949E+03  2.31811E+02 -5.71301E+03 -4.58764E+03 -1.19823E+03 -7.36265E+03
  4.09890E+03 -7.24515E+03  6.87502E+03 -1.73150E+03  6.41586E+03  2.09423E+03  4.01877E+03  5.55233E+03
  9.05102E+02  6.09319E+03 -2.61317E+03  4.87448E+03 -4.36527E+03  2.27159E+03 -2.78565E+03  1.06357E+03
 -1.72149E+03 -4.83508E+02 -1.21543E+03  2.72819E+01 -2.76730E+03  1.23370E+03 -5.04923E+03 -6.34280E+02
 -4.65355E+03 -2.91261E+03 -9.34557E+02 -6.33311E+03  2.68825E+03 -6.74373E+03  6.01094E+03 -3.16887E+03
  5.68583E+03  1.27756E+03  2.70100E+03  4.06560E+03 -1.57259E+03  6.16496E+03 -4.84492E+03  4.12451E+03
