 $NMID ID='MM_0lb_SNR400_18hz_g45_58.RAW', FMTDAT='(8E13.5)'
 TRAMP=1., VOLUME=1. $END
  3.10007E+05  2.91331E+01  3.37121E+05  2.50089E+05  8.40729E+04  3.37575E+05 -1.32475E+05  2.49906E+05
 -1.89770E+05  8.22717E+04 -1.10981E+05 -3.26099E+04  1.20195E+03 -5.00818E+04  5.41940E+04  1.80189E+02
  3.52431E+04  5.26174E+04 -1.70812E+04  7.45333E+04 -6.03934E+04  6.33874E+04 -8.29185E+04  3.14798E+04
 -7.95293E+04 -1.13822E+04 -5.64643E+04 -4.99832E+04 -1.49752E+04 -6.84780E+04  2.70874E+04 -4.43496E+04
  3.93383E+04  4.41152E+03  1.58090E+04  4.70454E+04 -3.48015E+04  4.62094E+04 -6.52073E+04 -2.77034E+02
 -5.23848E+04 -5.58727E+04 -5.99082E+03 -7.56615E+04  3.29482E+04 -5.33661E+04  4.64434E+04 -1.64840E+04
  4.18336E+04  1.06433E+04  3.11520E+04  2.43665E+04  1.56403E+04  2.88230E+04 -4.55964E+03  2.69649E+04
 -2.15827E+04  1.27121E+04 -1.91203E+04 -4.57642E+03  4.80359E+03 -7.76963E+03  2.11565E+04  1.12748E+04
  7.12872E+03  3.38180E+04 -3.08505E+04  3.38841E+04 -6.15350E+04  2.55524E+03 -5.50141E+04 -4.21004E+04
 -1.18069E+04 -6.13337E+04  3.83599E+04 -4.36461E+04  5.58716E+04 -1.71159E+03  3.22078E+04  3.08435E+04
 -6.06685E+03  3.34753E+04 -2.79997E+04  1.32747E+04 -2.79643E+04 -5.32893E+03 -1.53239E+04 -9.78199E+03
 -7.56473E+03 -1.12930E+04 -1.00156E+03 -1.68093E+04  6.63500E+03 -2.24932E+04  1.56952E+04 -1.36911E+04
  1.18137E+04  4.23623E+03 -6.43713E+03  1.29829E+04 -1.94639E+04 -2.63242E+03 -8.18605E+03 -3.02814E+04
  2.09982E+04 -4.06880E+04  4.47673E+04 -1.82270E+04  4.23677E+04  1.84577E+04  1.46374E+04  4.16016E+04
 -1.63365E+04  3.10821E+04 -2.39379E+04  1.39829E+03 -8.60005E+03 -2.64664E+04  2.03542E+04 -3.09098E+04
  3.84863E+04 -7.17239E+03  3.15979E+04  2.27515E+04  1.54564E+04  4.26151E+04 -7.83610E+03  4.58107E+04
 -2.88454E+04  2.92442E+04 -3.71962E+04  8.71287E+03 -3.89964E+04 -1.49682E+04 -2.18767E+04 -3.51573E+04
  6.98620E+03 -3.43817E+04  2.92511E+04 -1.27828E+04  2.74262E+04  1.09710E+04  2.71520E+03  1.75911E+04
 -1.29790E+04  7.33308E+03 -9.63824E+03 -7.87068E+03  5.76964E+03 -1.07101E+04  1.76898E+04  6.53766E+03
  1.26325E+04  2.17602E+04 -6.56181E+03  2.34972E+04 -2.11418E+04  8.78086E+03 -2.54252E+04 -6.71814E+03
 -1.66041E+04 -1.66430E+04 -5.95570E+03 -1.71467E+04  4.34306E+03 -1.46525E+04  1.27785E+04 -1.42463E+04
  2.14149E+04 -1.15770E+04  2.84844E+04  1.17630E+03  2.14089E+04  1.66374E+04  4.25540E+03  3.25343E+04
 -1.60566E+04  2.73072E+04 -2.60396E+04  9.37632E+03 -2.02933E+04 -1.00765E+04 -3.72246E+03 -1.34867E+04
  2.68620E+03 -3.88673E+03 -2.85048E+03  5.30419E+03 -1.34572E+04  5.27300E+03 -1.37076E+04 -4.91222E+03
 -8.90056E+03 -1.62280E+04  4.89725E+03 -1.95347E+04  1.21308E+04 -1.38405E+04  1.48954E+04 -1.28919E+03
  9.39104E+03  1.09988E+04 -8.70768E+02  1.55984E+04 -1.04875E+04  8.28467E+03 -1.62419E+04 -3.20487E+03
 -1.17570E+04 -1.36275E+04 -1.33907E+03 -1.90664E+04  8.71788E+03 -1.59517E+04  1.55047E+04 -7.22345E+03
  1.47634E+04  1.98120E+02  1.02434E+04  4.11947E+03  5.18116E+03  5.79660E+02  7.74582E+03 -1.20212E+03
  1.38226E+04  3.17088E+03  1.49581E+04  1.28219E+04  9.46803E+03  2.43856E+04 -3.16752E+03  2.67026E+04
 -1.59902E+04  2.07166E+04 -2.50924E+04  9.70596E+03 -2.51086E+04 -1.77153E+03 -2.13694E+04 -1.41828E+04
 -1.01556E+04 -2.07111E+04  6.77805E+03 -1.87915E+04  1.72645E+04 -1.10070E+04  1.56277E+04  4.18118E+03
  6.94843E+03  1.13754E+04 -6.83357E+03  1.03204E+04 -1.41303E+04  2.20342E+03 -1.02196E+04 -7.27392E+03
  1.57120E+02 -1.29800E+04  6.20709E+03 -1.00869E+04  8.10300E+03 -1.73914E+03  1.55780E+03  4.89106E+03
 -5.43342E+03  1.44127E+03 -3.33443E+03 -4.65617E+03  7.48289E+02 -9.73175E+03  7.95694E+03 -1.09135E+04
  1.24275E+04 -5.12224E+03  1.22551E+04  3.37305E+03  1.04209E+04  9.53734E+03  4.81340E+03  1.41905E+04
 -1.27630E+03  1.66054E+04 -9.86336E+03  1.06009E+04 -1.12861E+04  3.20008E+03 -8.64838E+03 -1.53485E+03
 -4.26626E+03 -3.82522E+03 -9.82158E+02  1.19424E+03 -1.79574E+03  1.85717E+03 -3.98770E+03  3.95762E+03
 -8.01084E+03 -4.51143E+02 -9.29199E+03 -7.70742E+03 -4.21744E+03 -1.19734E+04  3.52102E+03 -8.18034E+03
  7.22432E+03 -3.85750E+03  4.66882E+03  2.46888E+03  2.99855E+02  3.07701E+03 -3.20558E+03 -5.14394E+02
 -3.65032E+03 -4.52096E+03 -6.85133E+02 -6.98307E+03  4.73416E+03 -8.16342E+03  9.77740E+03 -3.97517E+03
  1.15678E+04  9.65750E+02  8.61622E+03  6.30125E+03  2.40269E+03  8.52386E+03 -5.52718E+03  8.07592E+03
 -6.70706E+03  2.96321E+03 -3.84566E+03 -1.29150E+03  1.07852E+03 -1.73563E+03  5.34371E+03 -8.44023E+02
  4.15672E+03  3.43853E+03  1.13801E+03  6.73176E+03 -4.71858E+03  6.20556E+03 -8.38212E+03  1.57561E+03
 -4.81095E+03 -3.89770E+03  2.85239E+02 -6.97111E+03  4.10328E+03 -3.67598E+03  4.11575E+03  1.12343E+03
  1.05147E+03  3.38319E+03 -3.98005E+03  5.01565E+03 -4.93252E+03  2.11596E+03 -4.97962E+03 -1.24612E+03
 -3.03051E+03 -5.98646E+03  1.52309E+03 -7.36146E+03  6.03159E+03 -5.23629E+03  7.09682E+03  1.31314E+03
  4.92619E+03  5.44321E+03 -1.78563E+02  6.77772E+03 -4.99547E+03  3.86479E+03 -5.06569E+03 -4.58050E+02
 -5.60860E+03 -5.13282E+03 -1.51936E+03 -5.67450E+03  2.77762E+03 -5.08005E+03  3.11377E+03 -2.57928E+03
  2.96612E+03  1.07611E+02 -3.82301E+02  1.34167E+03  5.69636E+02 -3.85144E+02  5.11393E+01 -1.27949E+03
  4.08612E+03 -9.57199E+02  5.22514E+03  8.16772E+02  5.96553E+03  3.20241E+03  5.42553E+03  7.10602E+03
 -1.66137E+03  8.57467E+03 -7.87163E+03  6.69090E+03 -9.61696E+03  1.54959E+03 -8.78483E+03 -2.68751E+03
 -4.62597E+03 -7.25270E+03 -4.18103E+02 -5.52408E+03  2.33789E+03 -1.91452E+03  1.30105E+03 -2.20574E+03
  9.63704E+02 -2.07305E+03  2.78494E+03 -2.56902E+03  3.34809E+03 -1.07382E+03  3.66376E+03  5.03544E+02
  4.91018E+03  1.29075E+03  8.97521E+02  3.68763E+03 -1.54805E+03  3.12829E+03 -4.80244E+03  3.17613E+03
 -5.67440E+03 -1.30624E+03 -2.38266E+03 -3.79001E+03  4.15561E+02 -5.21278E+03  3.65837E+03 -5.32365E+03
  5.07933E+03 -2.89540E+03  7.12026E+03 -9.17123E+01  5.03753E+03  3.79965E+03  1.91134E+03  6.06709E+03
 -2.48482E+03  6.35815E+03 -3.54241E+03  1.39460E+03 -2.21615E+03 -8.39736E+02  1.30101E+01 -1.20662E+03
 -4.14513E+02 -6.98983E+01 -1.12438E+03  2.07755E+03 -2.10955E+03  1.56862E+03 -4.23427E+03 -5.89486E+02
 -1.41746E+03 -4.05123E+03  9.22140E+02 -4.61156E+03  2.57865E+03 -5.03161E+03  3.82260E+03 -1.17257E+03
  4.51853E+03  2.32809E+03  1.61240E+03  3.82242E+03 -9.82284E+02  4.60083E+03 -2.44558E+03  3.15491E+03
 -3.93307E+03  8.10742E+02 -3.97446E+03 -2.22490E+03 -3.73147E+02 -3.10561E+03  2.03493E+03 -2.64333E+03
  2.95356E+03 -8.41940E+02  1.73870E+03  4.60673E+02  1.10677E+02  1.29570E+03  6.65330E+02  6.82111E+02
  1.66116E+03  3.00874E+02  1.35933E+03  7.85961E+02  5.55273E+02  2.02620E+03  1.37896E+03  1.94157E+03
 -1.49573E+03  3.05665E+03 -2.25852E+03  4.21917E+03 -3.02234E+03  1.16308E+03 -4.91838E+03 -4.55512E+02
 -2.18757E+03 -3.67549E+03  7.96781E+02 -5.42719E+03  1.79643E+03 -2.42058E+03  3.33082E+03 -1.16201E+03
  2.52254E+03  1.41846E+03  4.83939E+02  2.92151E+03 -4.16876E+02  1.66774E+03 -9.64292E+02  6.14714E+02
 -5.13450E+02 -1.77574E+03  1.46799E+03 -1.09818E+03  1.58826E+03 -9.63624E+02  1.94677E+03  4.94077E+01
  1.00632E+03  3.71904E+02  2.97604E+02 -4.92053E+02 -6.11152E+02  2.57853E+02  1.60492E+03 -8.92561E+01
 -9.48058E+01 -3.95077E+02  1.83346E+03  7.92489E+02  1.14485E+03  3.04299E+03 -2.67866E+02  2.97528E+03
 -1.65962E+03  1.37144E+03 -2.42130E+03  7.50034E+01 -2.92476E+03 -4.85193E+02 -4.53485E+02 -1.15681E+03
  3.38257E+02 -1.24789E+03  8.23608E+02 -9.69358E+02  5.23113E+02  1.15784E+03 -1.13470E+03  1.52700E+03
 -1.52119E+03  2.52312E+02 -1.34378E+03 -1.36529E+03 -9.98494E+02 -2.16377E+03  5.91359E+00 -2.13388E+03
  5.36727E+02 -4.38440E+02  1.04200E+03  3.24176E+02  8.52955E+02 -2.02075E+02 -1.17453E+02  1.16666E+03
 -3.41175E+02  9.28809E+01 -1.05130E+03 -3.08693E+02  3.68879E+02 -9.16311E+02  2.12120E+03 -1.13037E+03
  1.09126E+03 -1.45580E+02  2.34462E+03  3.47622E+02  1.16920E+03  2.35499E+03 -5.62509E+02  1.80576E+03
 -1.56206E+03 -8.16338E+01 -1.51105E+03  4.89891E+02 -9.12464E+02 -1.72950E+03  3.86072E+02 -7.49292E+02
  1.74872E+03 -9.35833E+02  5.12418E+02  6.81345E+02 -7.02964E+01  1.12770E+03 -2.09341E-01  1.01466E+03
 -1.98538E+02  1.30096E+03  4.52511E+01  8.93175E+01 -1.35640E+02  6.29578E+02 -8.71268E+02  3.27213E+02
 -6.49275E+02  1.00872E+03 -1.81518E+03  5.11204E+02 -2.18652E+03  6.85672E+02 -2.62519E+03 -7.95391E+02
 -6.74869E+02 -2.75624E+03  1.12074E+03 -3.05410E+03  1.27340E+03 -2.48555E+03  3.36408E+03 -1.34451E+03
  2.41129E+03 -4.64727E+02  9.79129E+02  1.81341E+03 -2.50850E+01  1.52486E+03 -5.90081E+02  1.08030E+03
 -1.15259E+03  6.84457E+02 -4.58829E+02 -4.79352E+02 -2.54625E+02  7.53798E+02 -7.70119E+02  8.45802E+01
 -8.59513E+02 -2.47326E+02 -6.80334E+02  4.48310E+02  1.32612E+02 -8.47477E+02 -1.41595E+02 -4.74317E+02
  1.26027E+03 -6.58889E+02  9.63051E+02 -5.35432E+01  1.71381E+03  9.87999E+02 -4.93597E+02  1.88157E+03
 -8.85287E+02  2.03479E+03 -1.40901E+03  1.08866E+03 -2.19735E+03 -2.10515E+02 -1.20843E+03 -1.27791E+03
 -1.13603E+03 -1.30360E+03 -1.93180E+02 -1.32117E+03  8.38473E+02 -1.15726E+03  3.10588E+02 -6.37672E+01
  8.02626E+02  4.22842E+02 -2.15015E+02  5.44498E+02 -3.53341E+02 -5.10231E+02  2.93158E+02 -1.82609E+02
  4.16362E+02 -2.10099E+01  2.71638E+02  1.05313E+03 -2.20622E+02  3.52178E+02  5.76679E+02  1.71743E-01
 -2.87917E+02  7.76530E+02 -4.46766E+02 -2.39627E+02 -6.96709E+02 -2.31479E+02  6.99549E-01 -9.54864E+02
  5.03353E+02 -6.53770E+02  3.52389E+02 -6.52604E+02  1.13766E+03 -3.29330E+02  1.78555E+02  9.19802E+02
  5.64118E+02  2.30688E+02  2.91654E+01  1.95963E+02 -7.45529E+02  5.39398E+02  4.56296E+01  8.01467E+01
 -2.84884E+01  2.04684E+01  1.45395E+02  7.59473E+02  1.21752E+02  4.53805E+02 -4.20383E+02 -2.13178E+02
 -1.31268E+03 -1.10225E+02  1.94977E+02 -7.27316E+02  3.96026E+02 -1.62532E+03  3.29533E+02 -2.54938E+02
  1.48887E+03  1.62517E+02 -2.20204E+02  2.59698E+02 -3.25598E+02  5.68613E+02  3.72158E+02  5.30806E+02
