 $NMID ID='MM_0lb_SNR400_7hz_g60_25.RAW', FMTDAT='(8E13.5)'
 TRAMP=1., VOLUME=1. $END
  3.09809E+05  3.12218E+02  3.37036E+05  2.51250E+05  8.45255E+04  3.39557E+05 -1.33250E+05  2.52326E+05
 -1.90274E+05  8.38159E+04 -1.14259E+05 -3.20954E+04  6.51699E+02 -5.14040E+04  5.36223E+04 -1.36160E+02
  3.58543E+04  5.26852E+04 -1.61766E+04  7.59958E+04 -6.13852E+04  6.48997E+04 -8.54315E+04  3.37184E+04
 -8.25618E+04 -1.21401E+04 -5.80078E+04 -5.30624E+04 -1.57751E+04 -7.12989E+04  2.85473E+04 -4.72008E+04
  4.20713E+04  3.68879E+03  1.70495E+04  4.93025E+04 -3.41307E+04  4.81563E+04 -6.97917E+04  8.65994E+02
 -5.47570E+04 -5.81156E+04 -8.54392E+03 -8.10025E+04  3.51782E+04 -5.78165E+04  5.09844E+04 -1.89377E+04
  4.75908E+04  1.27494E+04  3.35747E+04  2.75627E+04  1.62912E+04  3.11283E+04 -6.39803E+03  2.85612E+04
 -2.34903E+04  1.06890E+04 -1.84186E+04 -5.53329E+03  8.64057E+03 -7.40602E+03  2.39030E+04  1.48382E+04
  6.85713E+03  3.87467E+04 -3.48430E+04  3.74869E+04 -6.73480E+04  2.43619E+03 -6.00510E+04 -4.65245E+04
 -1.27997E+04 -6.85663E+04  4.27142E+04 -4.90652E+04  6.27169E+04 -2.59410E+03  3.84181E+04  3.56401E+04
 -5.44540E+03  4.12668E+04 -3.21717E+04  1.92175E+04 -3.50872E+04 -3.34090E+03 -2.09976E+04 -1.22447E+04
 -1.03512E+04 -1.68743E+04  5.34728E+02 -2.00882E+04  8.53266E+03 -2.41819E+04  1.58207E+04 -1.30006E+04
  1.01542E+04  6.49052E+03 -1.20507E+04  1.24931E+04 -2.39510E+04 -7.37648E+03 -8.93557E+03 -3.96979E+04
  2.61180E+04 -4.86590E+04  5.46127E+04 -2.16315E+04  5.08800E+04  2.23226E+04  1.88740E+04  4.91241E+04
 -1.73045E+04  3.77700E+04 -2.92584E+04  2.31518E+03 -1.17282E+04 -3.07618E+04  2.16316E+04 -3.83813E+04
  4.68882E+04 -1.22612E+04  4.28251E+04  2.61699E+04  2.26108E+04  5.43602E+04 -7.39099E+03  5.96860E+04
 -3.76334E+04  4.13718E+04 -5.08933E+04  1.21196E+04 -5.19709E+04 -2.05187E+04 -2.85002E+04 -4.48396E+04
  8.17197E+03 -4.34810E+04  3.53197E+04 -1.90759E+04  3.36397E+04  1.27982E+04  6.52883E+03  2.14172E+04
 -1.49037E+04  9.67406E+03 -1.21633E+04 -7.53473E+03  4.99043E+03 -1.15787E+04  1.96715E+04  4.84222E+03
  1.61420E+04  2.32265E+04 -4.45005E+03  2.86540E+04 -2.42758E+04  1.64871E+04 -3.31700E+04 -2.65420E+03
 -2.82312E+04 -1.94945E+04 -1.38745E+04 -2.84546E+04  4.50054E+03 -2.94616E+04  2.23252E+04 -2.58686E+04
  3.59316E+04 -1.41031E+04  4.13900E+04  5.73722E+03  2.89832E+04  2.77146E+04  4.24454E+03  4.47798E+04
 -2.13881E+04  3.66397E+04 -3.20875E+04  1.35123E+04 -2.31552E+04 -1.12050E+04 -5.50342E+03 -1.30525E+04
  5.94583E+02  2.48665E+02 -8.09654E+03  9.37630E+03 -2.23608E+04  5.11872E+03 -2.28132E+04 -1.09061E+04
 -1.27243E+04 -2.53901E+04  7.01825E+03 -3.02860E+04  2.09230E+04 -2.19752E+04  2.54872E+04 -1.48861E+03
  1.60056E+04  1.73543E+04 -1.64356E+03  2.54820E+04 -1.81388E+04  1.44743E+04 -2.68258E+04 -5.05892E+03
 -1.91029E+04 -2.31078E+04 -1.39719E+03 -3.09036E+04  1.50213E+04 -2.59097E+04  2.42595E+04 -1.40381E+04
  2.41073E+04 -2.22580E+02  1.81302E+04  5.82864E+03  9.75529E+03  2.01642E+03  1.36169E+04 -2.60500E+03
  2.62530E+04  2.90916E+03  2.92897E+04  1.96856E+04  2.04162E+04  4.26192E+04 -2.96433E+03  5.13054E+04
 -2.82821E+04  4.25755E+04 -4.87746E+04  2.30408E+04 -5.20483E+04 -3.80687E+03 -4.19422E+04 -3.13462E+04
 -1.50453E+04 -4.33461E+04  1.62868E+04 -3.67419E+04  3.30221E+04 -1.73512E+04  2.72427E+04  1.01008E+04
  8.58832E+03  2.09338E+04 -1.27356E+04  1.69334E+04 -2.30971E+04  3.07008E+03 -1.75957E+04 -1.47588E+04
 -1.98606E+02 -2.18271E+04  1.16461E+04 -1.62695E+04  1.54379E+04 -1.16687E+03  4.60372E+03  1.05215E+04
 -9.62075E+03  4.51140E+03 -1.07722E+04 -8.24251E+03 -2.25058E+03 -2.09279E+04  1.32228E+04 -2.33322E+04
  2.67689E+04 -1.41923E+04  3.21304E+04  3.04205E+03  2.79374E+04  2.19881E+04  1.28359E+04  3.48318E+04
 -7.42049E+03  3.68943E+04 -2.50873E+04  2.20956E+04 -2.56433E+04  4.16825E+03 -1.81260E+04 -8.07776E+03
 -7.17671E+03 -8.93098E+03 -8.94150E+02 -5.93003E+02 -3.31544E+03  3.58752E+03 -8.50177E+03  5.90029E+03
 -1.63687E+04 -1.29422E+03 -1.70638E+04 -1.34988E+04 -7.04449E+03 -2.22395E+04  7.80932E+03 -1.90936E+04
  1.54507E+04 -8.16991E+03  1.05074E+04  4.60549E+03 -4.84686E+02  7.69648E+03 -1.00322E+04 -1.95495E+02
 -8.37688E+03 -1.18453E+04 -1.85588E+03 -1.98466E+04  1.05368E+04 -1.90464E+04  2.42202E+04 -1.15099E+04
  2.79342E+04  2.65935E+03  2.06174E+04  1.79174E+04  3.44644E+03  2.27447E+04 -1.17927E+04  1.96326E+04
 -1.53083E+04  5.06580E+03 -7.02851E+03 -3.95108E+03  1.47112E+03 -4.78387E+03  9.45454E+03 -4.54273E+02
  8.87969E+03  9.02638E+03  1.41237E+03  1.57935E+04 -1.20617E+04  1.32658E+04 -1.81968E+04  3.43140E+03
 -1.29053E+04 -1.01188E+04  1.33763E+03 -1.48940E+04  1.07288E+04 -8.61771E+03  1.26024E+04  5.05525E+03
  3.09209E+03  1.19614E+04 -9.90146E+03  1.48637E+04 -1.72859E+04  5.64265E+03 -1.79218E+04 -6.65278E+03
 -9.21139E+03 -2.03508E+04  5.82451E+03 -2.39223E+04  1.95046E+04 -1.31697E+04  2.13579E+04  3.22931E+03
  1.14769E+04  1.68841E+04 -2.27924E+03  1.95342E+04 -1.46972E+04  1.02306E+04 -1.62540E+04 -2.53484E+03
 -1.30611E+04 -1.28041E+04 -1.71369E+03 -1.57657E+04  7.75503E+03 -1.19587E+04  9.21900E+03 -2.94135E+03
  6.03396E+03  3.93521E+03 -1.78470E+03  2.07473E+03 -7.40186E+01 -5.55177E+03  3.56006E+03 -9.82493E+03
  1.51074E+04 -6.35751E+03  2.06491E+04  1.64643E+03  1.99584E+04  1.54428E+04  1.23526E+04  2.76454E+04
 -7.88490E+03  3.01636E+04 -2.47130E+04  2.17024E+04 -3.26540E+04  4.26003E+03 -2.77488E+04 -1.23000E+04
 -1.33427E+04 -2.10597E+04 -1.13635E+03 -1.88733E+04  6.70964E+03 -1.14183E+04  6.91566E+03 -7.13464E+03
  5.62952E+03 -3.30287E+03  5.27396E+03 -5.26365E+03  7.51307E+03 -5.34865E+03  9.68491E+03 -2.53508E+03
  1.32428E+04  2.43920E+03  7.70722E+03  1.14970E+04 -3.29823E+03  1.50060E+04 -1.44455E+04  1.10641E+04
 -1.88114E+04 -7.03073E+02 -1.34447E+04 -1.27891E+04 -1.95804E+03 -2.23416E+04  1.03961E+04 -2.05461E+04
  2.04770E+04 -1.26235E+04  2.63567E+04  4.24531E+03  1.82346E+04  1.73613E+04  2.69019E+03  2.33946E+04
 -1.04300E+04  1.80582E+04 -1.41150E+04  6.04601E+03 -9.27461E+03 -1.09674E+03 -4.35903E+03 -3.81114E+03
 -1.44736E+03 -8.13438E+01 -3.43165E+03  3.93231E+03 -7.74573E+03  2.53742E+03 -1.27574E+04 -1.62906E+03
 -9.65257E+03 -1.41211E+04  2.44542E+02 -1.96770E+04  1.23317E+04 -1.76145E+04  1.93645E+04 -4.81708E+03
  1.97202E+04  1.01731E+04  8.49306E+03  1.87254E+04 -3.90736E+03  2.04531E+04 -1.47173E+04  1.20390E+04
 -1.89117E+04 -3.06767E+02 -1.42879E+04 -1.22887E+04 -1.14259E+03 -1.78478E+04  8.86406E+03 -1.33348E+04
  1.25728E+04 -3.85919E+03  9.20085E+03  3.83385E+03  2.68197E+03  6.06565E+03  2.77801E+03  3.01189E+03
  3.28945E+03  9.93611E+02  4.91808E+03  2.50351E+03  5.53499E+03  7.23839E+03  4.63952E+03  1.11716E+04
 -3.43908E+03  1.57861E+04 -1.40125E+04  1.52723E+04 -2.15028E+04  3.85237E+03 -2.19830E+04 -9.61298E+03
 -1.02645E+04 -2.18539E+04  3.58229E+03 -2.22825E+04  1.32657E+04 -1.45255E+04  1.71939E+04 -2.87549E+03
  1.36431E+04  7.11739E+03  3.45505E+03  1.23505E+04 -5.80419E+03  8.18024E+03 -8.60511E+03 -2.17953E+03
 -4.55789E+03 -8.78505E+03  4.23893E+03 -8.96123E+03  9.16862E+03 -5.14425E+03  7.98728E+03  1.66643E+03
  4.85391E+03  3.55281E+03  1.44093E+03  5.06602E+03 -1.01367E+03  2.25534E+03  2.99289E+03 -1.28516E+03
  3.61313E+03 -1.55708E+03  8.92654E+03  2.81232E+03  4.72437E+03  1.18819E+04 -1.11090E+03  1.62498E+04
 -9.81190E+03  1.05304E+04 -1.40357E+04  2.77625E+03 -1.26083E+04 -4.54619E+03 -5.71625E+03 -8.89550E+03
  4.20993E+02 -8.34341E+03  6.55293E+03 -3.90547E+03  4.67714E+03  4.08856E+03 -1.67396E+03  6.60206E+03
 -8.69509E+03  3.63682E+03 -1.07475E+04 -5.20638E+03 -5.89863E+03 -1.17976E+04  1.08579E+03 -1.22817E+04
  7.16695E+03 -8.23737E+03  1.05683E+04 -1.35381E+03  7.13179E+03  3.59514E+03  1.41958E+03  6.55255E+03
 -3.89698E+03  1.31561E+03 -4.58989E+03 -4.00723E+03  2.00350E+03 -1.05551E+04  1.05902E+04 -7.57168E+03
  1.43573E+04  2.72266E+02  1.31725E+04  9.72731E+03  4.55406E+03  1.52090E+04 -5.66465E+03  1.42120E+04
 -1.23210E+04  6.88568E+03 -1.21583E+04 -1.61505E+03 -7.48417E+03 -9.87818E+03  2.28847E+03 -9.70113E+03
  9.51336E+03 -4.57123E+03  7.59668E+03  3.75448E+03  1.79289E+03  7.48690E+03 -1.67595E+03  5.96143E+03
 -3.94824E+03  4.81051E+03 -3.36588E+03  2.17625E+03 -1.65913E+03  1.02602E+03 -2.08137E+03  2.28138E+03
 -3.25770E+03  5.90041E+03 -9.32429E+03  5.45019E+03 -1.55088E+04  2.43655E+02 -1.71477E+04 -9.05824E+03
 -8.44045E+03 -1.97367E+04  4.68665E+03 -2.38079E+04  1.54410E+04 -1.70823E+04  2.20302E+04 -7.36272E+03
  2.03623E+04  4.79708E+03  1.29397E+04  1.48360E+04  1.84734E+03  1.66142E+04 -6.20095E+03  1.16824E+04
 -9.07647E+03  4.09863E+03 -6.38299E+03 -1.17603E+03 -2.29679E+03 -2.53727E+03 -1.16416E+03 -5.25652E+02
 -2.41529E+03  2.49910E+02 -4.67282E+03 -9.95904E+02 -1.17329E+03 -3.75335E+03  7.85917E+02 -5.62457E+03
  6.82764E+03 -5.10851E+03  9.40263E+03 -5.51370E+02  1.10094E+04  9.23701E+03  2.80533E+03  1.62231E+04
 -6.50881E+03  1.84997E+04 -1.70239E+04  1.10421E+04 -1.93389E+04 -9.49206E+02 -1.39398E+04 -1.24268E+04
 -6.10711E+03 -1.66314E+04  4.54853E+03 -1.54305E+04  1.07731E+04 -8.55247E+03  9.61067E+03 -2.51678E+02
  5.33951E+03  5.38348E+03 -3.29121E+02  5.01945E+03 -3.47527E+03 -1.29595E+03  5.77094E+02 -3.48158E+03
  5.58040E+03 -2.62798E+03  6.26712E+03  1.18528E+03  4.13682E+03  7.15269E+03 -5.78361E+02  8.86671E+03
 -7.46733E+03  7.89609E+03 -1.02678E+04  1.00492E+03 -1.00947E+04 -8.17058E+03 -1.41970E+03 -1.45556E+04
  7.94232E+03 -1.16511E+04  1.32644E+04 -2.87631E+03  1.28822E+04  3.19254E+03  7.20673E+03  1.04390E+04
  1.33595E+03  1.05873E+04 -4.77432E+03  9.40956E+03 -6.93051E+03  4.91693E+03 -4.96053E+03  9.68560E+02
 -2.65241E+03  2.41796E+02 -3.29313E+03  2.38914E+03 -6.04436E+03  2.94115E+03 -6.98253E+03 -2.81370E+03
 -8.92774E+03 -6.18995E+03 -1.54876E+03 -1.05796E+04  5.27469E+03 -1.13444E+04  9.88364E+03 -4.90220E+03
  1.18588E+04  2.09126E+03  7.03386E+03  7.88053E+03 -7.83929E+02  1.17124E+04 -9.14469E+03  7.15489E+03
