 $NMID ID='MM_0lb_SNR400_18hz_g45_100.RAW', FMTDAT='(8E13.5)'
 TRAMP=1., VOLUME=1. $END
  3.09687E+05  7.92192E+01  3.37498E+05  2.50129E+05  8.45004E+04  3.37712E+05 -1.32412E+05  2.50634E+05
 -1.89681E+05  8.31684E+04 -1.10777E+05 -3.27350E+04  1.38147E+03 -5.01651E+04  5.42310E+04  5.21742E+02
  3.54395E+04  5.28099E+04 -1.74140E+04  7.52333E+04 -6.06302E+04  6.26523E+04 -8.28325E+04  3.18770E+04
 -8.00608E+04 -1.11513E+04 -5.64248E+04 -5.02729E+04 -1.49467E+04 -6.86591E+04  2.67464E+04 -4.45348E+04
  3.87309E+04  3.63918E+03  1.55824E+04  4.73806E+04 -3.37299E+04  4.59901E+04 -6.49685E+04 -3.79616E+02
 -5.21234E+04 -5.59721E+04 -6.46972E+03 -7.51244E+04  3.30624E+04 -5.28258E+04  4.58221E+04 -1.62258E+04
  4.12960E+04  1.08486E+04  3.03178E+04  2.46165E+04  1.60155E+04  2.85884E+04 -4.42643E+03  2.68883E+04
 -2.13784E+04  1.29590E+04 -1.89390E+04 -4.21188E+03  3.88678E+03 -7.76131E+03  2.16296E+04  1.10989E+04
  7.52081E+03  3.37515E+04 -3.04403E+04  3.45818E+04 -6.09959E+04  1.95419E+03 -5.54450E+04 -4.14445E+04
 -1.19042E+04 -6.08223E+04  3.84275E+04 -4.35558E+04  5.55786E+04 -1.87662E+03  3.19720E+04  3.06876E+04
 -6.42006E+03  3.35234E+04 -2.85512E+04  1.35228E+04 -2.75562E+04 -5.15858E+03 -1.47605E+04 -1.01903E+04
 -7.30707E+03 -1.18354E+04 -1.12944E+03 -1.64643E+04  7.36062E+03 -2.24123E+04  1.44538E+04 -1.34337E+04
  1.24031E+04  4.48847E+03 -6.16415E+03  1.27931E+04 -1.95166E+04 -2.40018E+03 -7.99287E+03 -3.04909E+04
  2.10485E+04 -4.10316E+04  4.49335E+04 -1.86795E+04  4.19531E+04  1.84532E+04  1.44100E+04  4.19730E+04
 -1.52788E+04  3.17890E+04 -2.37166E+04  4.72489E+02 -8.13156E+03 -2.63598E+04  2.04081E+04 -3.13742E+04
  3.79866E+04 -7.29518E+03  3.15240E+04  2.26006E+04  1.48909E+04  4.27296E+04 -7.87994E+03  4.53711E+04
 -2.90305E+04  2.96446E+04 -3.73999E+04  8.10266E+03 -3.87934E+04 -1.56947E+04 -2.11186E+04 -3.44410E+04
  7.09135E+03 -3.44465E+04  2.95815E+04 -1.29005E+04  2.72182E+04  1.07755E+04  2.82962E+03  1.78813E+04
 -1.30234E+04  7.58362E+03 -9.44512E+03 -7.76498E+03  5.82315E+03 -1.02658E+04  1.71016E+04  6.00329E+03
  1.27374E+04  2.17388E+04 -6.38812E+03  2.35570E+04 -2.14211E+04  9.43048E+03 -2.55780E+04 -6.15069E+03
 -1.68619E+04 -1.63389E+04 -6.27827E+03 -1.70040E+04  3.88901E+03 -1.47791E+04  1.24640E+04 -1.48160E+04
  2.10682E+04 -1.16546E+04  2.87498E+04  1.09898E+03  2.17103E+04  1.65362E+04  3.70732E+03  3.26832E+04
 -1.62967E+04  2.78343E+04 -2.58005E+04  1.00341E+04 -2.00999E+04 -1.06642E+04 -3.69933E+03 -1.41643E+04
  2.59616E+03 -3.96359E+03 -3.04901E+03  5.70477E+03 -1.30789E+04  5.53446E+03 -1.33355E+04 -5.33316E+03
 -8.76915E+03 -1.57221E+04  5.36938E+03 -1.96909E+04  1.26887E+04 -1.38336E+04  1.50631E+04 -1.60891E+03
  9.30669E+03  1.08891E+04 -9.84272E+02  1.54526E+04 -1.02857E+04  8.93029E+03 -1.55521E+04 -3.57979E+03
 -1.19411E+04 -1.42501E+04 -1.32111E+03 -1.86593E+04  8.32119E+03 -1.58232E+04  1.57499E+04 -7.46847E+03
  1.46884E+04  2.70717E+02  1.04288E+04  4.21969E+03  5.27612E+03  7.10771E+02  8.10583E+03 -1.11968E+03
  1.44511E+04  2.64526E+03  1.49609E+04  1.30713E+04  9.21861E+03  2.56215E+04 -3.06926E+03  2.67969E+04
 -1.60786E+04  2.01547E+04 -2.48016E+04  9.83826E+03 -2.58233E+04 -2.19942E+03 -2.16328E+04 -1.47346E+04
 -1.00563E+04 -2.14281E+04  7.29853E+03 -1.93373E+04  1.69423E+04 -1.08445E+04  1.59681E+04  3.75065E+03
  7.01218E+03  1.11383E+04 -7.24159E+03  1.06179E+04 -1.33795E+04  2.81201E+03 -1.06086E+04 -8.18816E+03
  8.70241E+01 -1.22997E+04  6.62345E+03 -9.39083E+03  8.02207E+03 -1.38975E+03  1.71007E+03  5.24387E+03
 -5.46177E+03  1.36118E+03 -4.08429E+03 -4.51394E+03  8.96165E+02 -1.06917E+04  7.89805E+03 -1.00147E+04
  1.26105E+04 -5.00194E+03  1.21637E+04  2.42072E+03  1.06332E+04  9.31344E+03  4.99191E+03  1.40195E+04
 -2.03214E+03  1.65482E+04 -9.84892E+03  1.05154E+04 -1.16988E+04  3.26149E+03 -8.35499E+03 -1.70042E+03
 -4.59198E+03 -3.52621E+03 -8.46914E+02  1.50766E+03 -2.28225E+03  1.93436E+03 -3.75724E+03  4.44858E+03
 -7.90077E+03 -7.58004E+02 -8.97107E+03 -7.04713E+03 -2.90408E+03 -1.18248E+04  3.40664E+03 -8.18818E+03
  7.18072E+03 -3.83598E+03  5.38296E+03  2.26761E+03  2.90424E+02  2.98048E+03 -3.41865E+03 -1.66823E+02
 -3.31869E+03 -5.44656E+03 -8.44302E+02 -7.30014E+03  3.43035E+03 -8.29566E+03  1.03628E+04 -3.90843E+03
  1.16881E+04  9.01480E+02  8.89427E+03  6.28488E+03  2.13969E+03  9.07604E+03 -5.50455E+03  8.74722E+03
 -7.30414E+03  3.34383E+03 -3.66447E+03 -1.38806E+03  2.20542E+03 -1.75779E+03  4.48748E+03 -8.97088E+02
  4.17822E+03  3.91168E+03  8.37190E+02  6.28357E+03 -4.27280E+03  6.65761E+03 -7.92131E+03  1.93362E+03
 -5.67805E+03 -4.08127E+03  4.67269E+02 -6.36175E+03  3.70118E+03 -2.79434E+03  3.96374E+03  9.67405E+02
 -1.35597E+02  3.49668E+03 -4.49712E+03  4.77912E+03 -5.78996E+03  2.16978E+03 -5.13420E+03 -1.17551E+03
 -2.97162E+03 -6.36643E+03  1.34517E+03 -7.10201E+03  5.81691E+03 -4.69115E+03  6.74902E+03  1.44588E+03
  4.70013E+03  5.50341E+03  6.45835E+01  7.49375E+03 -5.17780E+03  4.54633E+03 -5.18455E+03 -4.04425E+02
 -5.65662E+03 -5.77060E+03 -1.37234E+03 -5.31859E+03  2.77664E+03 -4.38426E+03  2.57446E+03 -2.86133E+03
  2.81586E+03  8.30317E+01 -3.89285E+02  6.64682E+02  2.20464E+01 -5.41543E+02  6.08629E+01 -2.17910E+03
  4.21542E+03 -9.14677E+02  5.56739E+03  6.29503E+02  5.50112E+03  3.92701E+03  5.44005E+03  7.16643E+03
 -1.37920E+03  8.56629E+03 -7.78724E+03  7.20293E+03 -1.02000E+04  1.25461E+03 -8.27605E+03 -2.80148E+03
 -4.33462E+03 -6.29391E+03 -2.05072E+02 -5.90269E+03  2.17844E+03 -2.33396E+03  1.94649E+03 -2.04640E+03
  9.43406E+02 -1.31299E+03  2.18660E+03 -2.43213E+03  3.89999E+03 -1.52906E+03  3.33005E+03  3.51508E+02
  4.76827E+03  1.26335E+03  1.33569E+03  3.94544E+03 -1.60742E+03  3.23763E+03 -4.46660E+03  2.81109E+03
 -5.33339E+03 -7.67415E+02 -2.08231E+03 -2.95181E+03 -7.20552E+01 -4.97616E+03  3.82237E+03 -5.86470E+03
  6.09985E+03 -3.07349E+03  7.34201E+03  9.81389E+01  5.55402E+03  4.42352E+03  7.37830E+02  5.82741E+03
 -1.85558E+03  5.93248E+03 -3.59543E+03  1.90198E+03 -1.84163E+03 -1.33555E+03 -6.53318E+02 -2.14615E+02
 -8.11063E+02  2.15806E+02 -9.11383E+02  1.58335E+03 -3.40839E+03  1.42453E+03 -4.38238E+03 -6.96746E+02
 -2.02140E+03 -4.23711E+03  1.16741E+03 -4.62549E+03  2.84397E+03 -4.52665E+03  3.76083E+03 -1.34521E+03
  4.06991E+03  2.22353E+03  1.71388E+03  3.84484E+03 -4.78955E+02  4.58607E+03 -2.80982E+03  2.96488E+03
 -3.78868E+03  6.82599E+02 -3.73919E+03 -1.90849E+03  2.73963E+01 -3.92168E+03  1.86814E+03 -2.80078E+03
  3.27084E+03 -1.16358E+03  1.35178E+03  4.28269E+02  1.48021E+03  1.79953E+03  1.40863E+03  5.73846E+02
  1.50996E+03  1.14024E+03  1.25673E+03  1.00796E+03  1.19924E+03  2.57269E+03  8.99393E+02  2.01634E+03
 -1.01573E+03  3.94054E+03 -2.70574E+03  4.09695E+03 -3.18327E+03  1.58384E+03 -4.38431E+03 -5.65142E+02
 -1.73973E+03 -4.20996E+03  1.02678E+03 -5.38350E+03  1.58560E+03 -2.94683E+03  2.77394E+03 -6.62972E+02
  2.92454E+03  1.61370E+03  2.01511E+02  2.41097E+03 -1.12249E+03  1.12556E+03 -1.67020E+03 -9.78760E+00
 -1.04359E+03 -1.68622E+03  1.58763E+03 -1.13897E+03  1.14251E+03 -1.32166E+03  1.14640E+03  2.48487E+02
  7.74409E+02  1.77623E+02  5.94845E+02 -5.98300E+02 -2.07197E+02  3.26853E+02  1.16928E+03 -4.61954E+02
  5.62781E+01 -2.68270E+02  1.42588E+03  7.99512E+02  5.26696E+02  2.24530E+03 -3.25463E+02  2.88824E+03
 -2.07183E+03  9.43619E+02 -2.11783E+03  3.12010E+02 -2.15367E+03 -4.73221E+02 -3.45873E+02 -9.34286E+02
  5.12526E+02 -8.87250E+02  3.41301E+02 -1.20707E+03  5.92025E+02  8.97342E+02 -5.19933E+02  1.81494E+03
 -1.21174E+03  5.76354E+02 -1.24624E+03 -1.23517E+03 -1.10404E+03 -2.62236E+03  9.57000E+01 -1.26730E+03
  4.74784E+02 -9.58050E+02  9.10026E+02  1.53078E+02  1.30743E+03  5.07433E+02  1.56113E+02  1.27295E+03
 -6.46046E+02 -4.06204E+02 -9.05924E+02 -6.35685E+02  1.52686E+02 -1.16956E+03  1.80364E+03 -1.37755E+03
  1.71301E+03  4.36543E+01  2.67365E+03  9.89523E+02  1.20511E+03  2.33568E+03 -7.79983E+02  2.19318E+03
 -1.29327E+03  6.15358E+02 -1.84097E+03 -8.12489E+01 -1.00456E+03 -2.10923E+03  5.04645E+02 -2.66266E+02
  1.92411E+03 -1.15951E+03  6.26473E+02  5.80400E+02  4.77886E+02  1.65939E+03  6.56316E+01  6.46828E+02
 -6.57123E+02  1.74810E+03 -5.18750E+02  4.98192E+02 -2.74748E+02  2.20512E+02 -8.80375E+02  4.08907E+02
 -8.85393E+02  8.45819E+02 -1.63668E+03  5.84306E+02 -2.15897E+03  5.46333E+02 -2.55740E+03 -1.11133E+03
 -1.27481E+03 -3.07557E+03  5.93079E+02 -2.98448E+03  1.53313E+03 -2.75269E+03  2.89260E+03 -1.35669E+03
  2.23073E+03 -2.86622E+02  1.75417E+03  1.47311E+03 -6.67243E+02  1.14610E+03 -4.06063E+02  9.78363E+02
 -9.27996E+02  5.84513E+02 -8.45555E+02 -3.14945E+01 -3.23383E+02  6.29737E+02 -6.76027E+02  8.25561E+02
 -1.64222E+03  5.80742E+02 -7.84638E+02 -3.69814E+02  4.13451E+02 -1.84331E+02 -7.56906E+02 -9.44485E+02
  1.10145E+03 -6.09992E+02  6.37047E+02  1.66369E+02  1.16296E+03  6.14243E+02  1.59508E+02  1.72675E+03
 -5.16218E+02  3.10548E+03 -1.74945E+03  1.39773E+03 -2.33410E+03  4.57593E+01 -1.50202E+03 -1.89551E+03
 -1.30592E+03 -1.70405E+03  2.77251E+02 -1.63355E+03  4.76718E+02 -9.29718E+02  8.03026E+02  6.77704E+01
  7.15569E+02  6.31492E+02  8.15599E+02  3.41535E+02 -9.14676E+02  9.25247E+01 -4.69473E+02 -4.20424E+02
  6.03767E+02  3.15443E+02  1.60958E+01  1.12395E+03  6.55530E+01  4.28326E+02  2.88326E+02  8.68233E+02
 -2.30616E+02  1.01817E+03 -7.15303E+02 -2.74755E+02 -1.24718E+03 -1.17512E+03  3.30377E+01 -1.25364E+03
  3.16256E+02 -8.04818E+02  6.91797E+02 -1.30410E+02  6.63283E+02 -4.14872E+02  9.30749E+02  7.31275E+02
  6.70901E+02  5.96707E+02 -3.53819E+02  1.16567E+03 -8.87807E+02  8.56406E+02 -5.23478E+02 -5.30208E+01
 -2.30001E+01 -2.73599E+02 -4.37334E+02  4.14671E+02 -5.70420E+02  5.18640E+02 -6.23435E+02 -6.52249E+00
 -4.74995E+02 -4.06033E+02 -1.11249E+03 -1.27438E+03  3.52919E+01 -1.86675E+03  1.05568E+03 -9.70257E+01
  5.31785E+02  6.82115E+02 -3.55953E+01  5.18072E+02  1.82225E+02  8.06614E+02 -1.02214E+03  1.29106E+03
