 $NMID ID='MM_0lb_SNR400_8hz_g50_30.RAW', FMTDAT='(8E13.5)'
 TRAMP=1., VOLUME=1. $END
  3.09621E+05  2.02483E+02  3.37421E+05  2.50389E+05  8.50453E+04  3.38765E+05 -1.33119E+05  2.52381E+05
 -1.90795E+05  8.36194E+04 -1.12837E+05 -3.21197E+04  2.62756E+02 -5.15250E+04  5.37734E+04 -8.33555E+02
  3.56091E+04  5.25332E+04 -1.65454E+04  7.58211E+04 -6.11156E+04  6.39017E+04 -8.55940E+04  3.30594E+04
 -8.38361E+04 -1.21012E+04 -5.83565E+04 -5.29115E+04 -1.55216E+04 -7.10320E+04  2.84501E+04 -4.69226E+04
  4.11966E+04  4.06101E+03  1.69912E+04  4.85743E+04 -3.58426E+04  4.78205E+04 -6.86386E+04  2.38494E+02
 -5.50930E+04 -5.78074E+04 -7.66285E+03 -7.89900E+04  3.47125E+04 -5.73351E+04  5.00252E+04 -1.88115E+04
  4.53006E+04  1.15259E+04  3.34950E+04  2.63183E+04  1.54068E+04  3.00888E+04 -6.02486E+03  2.69008E+04
 -2.23115E+04  1.14994E+04 -1.82794E+04 -5.34654E+03  7.49907E+03 -6.92541E+03  2.41094E+04  1.44932E+04
  7.91124E+03  3.73298E+04 -3.48264E+04  3.71692E+04 -6.70931E+04  2.55764E+03 -5.89774E+04 -4.47333E+04
 -1.23067E+04 -6.60761E+04  4.13960E+04 -4.73042E+04  6.17386E+04 -3.10019E+03  3.75474E+04  3.46962E+04
 -6.22049E+03  3.99327E+04 -3.23410E+04  1.92093E+04 -3.41938E+04 -3.99976E+03 -2.08005E+04 -1.15047E+04
 -9.64323E+03 -1.55430E+04 -8.84033E+02 -2.06518E+04  8.47287E+03 -2.34458E+04  1.62420E+04 -1.26074E+04
  1.04113E+04  6.45951E+03 -1.11734E+04  1.21509E+04 -2.33868E+04 -7.13784E+03 -8.15170E+03 -3.82817E+04
  2.55709E+04 -4.75521E+04  5.31375E+04 -2.07255E+04  5.00261E+04  2.01831E+04  1.80958E+04  4.70048E+04
 -1.71197E+04  3.67150E+04 -2.77651E+04  3.82355E+03 -1.17483E+04 -2.97518E+04  2.19826E+04 -3.73062E+04
  4.60850E+04 -1.20611E+04  4.16019E+04  2.65497E+04  2.21899E+04  5.19749E+04 -8.36752E+03  5.78266E+04
 -3.52213E+04  3.95576E+04 -4.86871E+04  1.14503E+04 -4.78764E+04 -1.86112E+04 -2.72604E+04 -4.28638E+04
  8.05246E+03 -4.27262E+04  3.50088E+04 -1.81270E+04  3.27939E+04  1.06402E+04  4.88483E+03  2.13234E+04
 -1.39539E+04  1.01399E+04 -1.16760E+04 -7.32127E+03  4.93913E+03 -1.12166E+04  1.87722E+04  5.27318E+03
  1.51956E+04  2.35977E+04 -4.70275E+03  2.76009E+04 -2.39373E+04  1.54923E+04 -3.19256E+04 -2.64144E+03
 -2.67701E+04 -1.86123E+04 -1.27198E+04 -2.60311E+04  4.59639E+03 -2.74303E+04  2.02976E+04 -2.39917E+04
  3.29674E+04 -1.43392E+04  3.93042E+04  5.13148E+03  2.86233E+04  2.47670E+04  5.20316E+03  4.14091E+04
 -1.99247E+04  3.49139E+04 -3.15868E+04  1.15658E+04 -2.34308E+04 -1.10508E+04 -4.99526E+03 -1.37783E+04
  1.55343E+03 -1.01694E+03 -7.42844E+03  7.93903E+03 -2.15675E+04  4.99967E+03 -2.08474E+04 -9.91455E+03
 -1.20319E+04 -2.33811E+04  5.78442E+03 -2.86525E+04  1.91459E+04 -2.05673E+04  2.37042E+04 -2.80405E+03
  1.43857E+04  1.72815E+04 -1.74340E+03  2.36506E+04 -1.80884E+04  1.46899E+04 -2.48381E+04 -4.08171E+03
 -1.81454E+04 -2.18282E+04 -2.20270E+03 -2.86004E+04  1.32507E+04 -2.47421E+04  2.41097E+04 -1.26190E+04
  2.31887E+04 -2.39857E+02  1.67952E+04  5.80098E+03  9.45389E+03  1.28111E+03  1.29835E+04 -2.47453E+03
  2.30102E+04  3.30503E+03  2.65384E+04  1.92079E+04  1.85059E+04  3.93775E+04 -2.71788E+03  4.61805E+04
 -2.66258E+04  3.79609E+04 -4.48889E+04  2.01128E+04 -4.72809E+04 -3.80543E+03 -3.80446E+04 -2.78136E+04
 -1.47164E+04 -3.93901E+04  1.24398E+04 -3.48782E+04  3.00950E+04 -1.61215E+04  2.56927E+04  8.76993E+03
  8.78166E+03  1.89814E+04 -1.20475E+04  1.64440E+04 -2.08858E+04  1.99703E+03 -1.58457E+04 -1.39565E+04
 -6.24787E+02 -1.92266E+04  1.04544E+04 -1.40481E+04  1.37258E+04 -2.11771E+01  2.80187E+03  9.60072E+03
 -9.67298E+03  5.09489E+03 -9.97285E+03 -7.22775E+03 -2.46118E+03 -1.93566E+04  1.25254E+04 -2.12743E+04
  2.42293E+04 -1.27740E+04  2.78457E+04  4.11101E+03  2.40507E+04  2.01279E+04  1.16302E+04  3.12373E+04
 -5.70923E+03  3.31488E+04 -2.17845E+04  1.96741E+04 -2.41086E+04  5.16736E+03 -1.61991E+04 -6.64540E+03
 -5.99878E+03 -7.02368E+03 -7.53064E+02 -1.13195E+03 -3.24325E+03  4.15861E+03 -7.90985E+03  6.15144E+03
 -1.43407E+04 -1.39550E+03 -1.54673E+04 -1.29735E+04 -6.02640E+03 -2.11258E+04  6.47001E+03 -1.67645E+04
  1.39999E+04 -7.10759E+03  9.01404E+03  5.12847E+03 -5.34908E+02  6.80260E+03 -7.93675E+03  2.05408E+02
 -8.65049E+03 -1.05077E+04 -7.56706E+02 -1.67627E+04  1.02985E+04 -1.77707E+04  2.20303E+04 -9.65239E+03
  2.49648E+04  2.81422E+03  1.85466E+04  1.58658E+04  3.44013E+03  2.05386E+04 -1.03057E+04  1.70620E+04
 -1.29266E+04  4.85531E+03 -6.56887E+03 -4.64327E+03  1.83541E+03 -4.70874E+03  8.39765E+03 -1.21333E+03
  8.96338E+03  7.57934E+03  1.28163E+03  1.36714E+04 -1.08494E+04  1.26066E+04 -1.75471E+04  3.43241E+03
 -1.07377E+04 -9.05103E+03  3.14136E+02 -1.44848E+04  9.93677E+03 -7.95607E+03  1.08056E+04  3.78025E+03
  3.43795E+03  1.08332E+04 -9.12844E+03  1.24026E+04 -1.55406E+04  5.75950E+03 -1.46560E+04 -5.42702E+03
 -8.65592E+03 -1.79071E+04  4.35101E+03 -1.98062E+04  1.64770E+04 -1.25414E+04  1.85228E+04  2.37218E+03
  1.02946E+04  1.49608E+04 -2.37203E+03  1.76580E+04 -1.27701E+04  9.54679E+03 -1.34578E+04 -2.68940E+03
 -1.22013E+04 -1.07555E+04 -1.51212E+03 -1.34488E+04  6.23290E+03 -9.77679E+03  8.69190E+03 -3.39139E+03
  5.99493E+03  2.85407E+03 -1.02076E+03  2.24952E+03 -9.61041E+02 -4.69427E+03  2.65533E+03 -8.74566E+03
  1.31194E+04 -5.32073E+03  1.71711E+04  2.36263E+03  1.74436E+04  1.23305E+04  1.14180E+04  2.34806E+04
 -6.56683E+03  2.72911E+04 -2.18725E+04  1.93051E+04 -2.77806E+04  4.61200E+03 -2.33097E+04 -1.02897E+04
 -1.14495E+04 -1.84092E+04 -3.62225E+02 -1.62343E+04  5.95218E+03 -8.72432E+03  5.42376E+03 -6.07160E+03
  4.49641E+03 -2.83021E+03  4.30248E+03 -4.02436E+03  6.20179E+03 -4.15183E+03  9.23146E+03 -1.70766E+03
  1.23215E+04  2.89963E+03  6.07345E+03  1.00494E+04 -2.48156E+03  1.28160E+04 -1.24771E+04  9.71039E+03
 -1.67887E+04 -1.49241E+03 -1.08850E+04 -1.16591E+04 -2.19487E+03 -1.71995E+04  9.46594E+03 -1.84791E+04
  1.83329E+04 -1.00513E+04  2.12938E+04  2.58778E+03  1.42917E+04  1.56414E+04  1.85780E+03  1.90619E+04
 -7.71951E+03  1.63174E+04 -1.23495E+04  5.85180E+03 -7.85291E+03 -1.90697E+03 -3.42865E+03 -2.60419E+03
 -1.82213E+03 -4.77857E+02 -2.54146E+03  3.33459E+03 -6.24402E+03  2.15320E+03 -1.12504E+04 -2.17310E+03
 -8.75331E+03 -1.10238E+04 -8.75608E+02 -1.61159E+04  1.01788E+04 -1.57743E+04  1.69524E+04 -3.89269E+03
  1.63024E+04  7.90144E+03  7.19646E+03  1.50160E+04 -2.49755E+03  1.56970E+04 -1.21986E+04  1.03304E+04
 -1.61017E+04  6.39154E+02 -1.20968E+04 -9.98498E+03 -3.60296E+02 -1.30301E+04  7.86992E+03 -1.05554E+04
  1.12189E+04 -2.91547E+03  7.22337E+03  3.86673E+03  2.54587E+03  4.43368E+03  1.98406E+03  2.59290E+03
  2.40174E+03  1.95377E+03  4.56574E+03  1.65753E+03  4.63123E+03  6.62650E+03  4.64675E+03  8.86764E+03
 -3.07040E+03  1.37056E+04 -1.19171E+04  1.31205E+04 -1.74652E+04  3.27234E+03 -1.77745E+04 -7.51981E+03
 -8.66088E+03 -1.70751E+04  2.22922E+03 -1.82763E+04  1.02466E+04 -1.28250E+04  1.52337E+04 -3.16666E+03
  1.04739E+04  6.91423E+03  2.48564E+03  9.50193E+03 -4.29557E+03  6.33273E+03 -6.55502E+03 -6.62098E+02
 -4.48511E+03 -7.74538E+03  4.40538E+03 -7.74780E+03  7.34938E+03 -3.86236E+03  6.22686E+03  1.80713E+03
  3.49899E+03  3.98562E+03  1.83669E+03  3.08176E+03 -9.02120E+02  2.83926E+03  1.66761E+03 -1.17938E+02
  3.89890E+03 -6.96720E+02  7.51250E+03  3.21614E+03  4.56997E+03  9.60610E+03 -1.39544E+03  1.20839E+04
 -8.45611E+03  8.90256E+03 -1.15272E+04  1.60904E+03 -8.81155E+03 -3.13280E+03 -4.08622E+03 -7.35112E+03
  6.94085E+02 -6.90060E+03  4.77332E+03 -2.40611E+03  3.22295E+03  3.57924E+03 -1.29497E+03  5.17188E+03
 -6.87426E+03  3.93692E+03 -8.65317E+03 -4.07512E+03 -5.61208E+03 -9.15398E+03  7.86347E+02 -9.37292E+03
  6.14796E+03 -6.19868E+03  7.38611E+03 -1.51363E+03  5.21450E+03  2.61142E+03  9.95889E+02  5.12985E+03
 -3.41960E+03  2.04270E+03 -4.25741E+03 -3.07558E+03  1.05732E+03 -7.74907E+03  8.27843E+03 -6.41636E+03
  1.11905E+04  1.67957E+03  1.03860E+04  7.89132E+03  3.68645E+03  1.27555E+04 -4.33684E+03  1.03246E+04
 -9.67858E+03  5.25329E+03 -9.46612E+03 -2.11373E+03 -5.04443E+03 -7.24906E+03  1.85262E+03 -7.17374E+03
  7.05762E+03 -3.11131E+03  5.31417E+03  3.55102E+03  1.21515E+03  5.86593E+03 -1.13260E+03  4.96916E+03
 -3.13096E+03  2.96318E+03 -3.07094E+03  8.36147E+02 -1.98822E+03  1.15787E+03 -2.02041E+03  2.78140E+03
 -2.74107E+03  3.93448E+03 -7.42630E+03  4.62176E+03 -1.17575E+04  8.64930E+02 -1.31091E+04 -8.11052E+03
 -6.57091E+03 -1.65493E+04  4.21451E+03 -1.80717E+04  1.09051E+04 -1.40659E+04  1.74626E+04 -5.91921E+03
  1.61788E+04  2.68997E+03  1.01432E+04  1.08187E+04  1.49521E+03  1.20809E+04 -5.87830E+03  9.40450E+03
 -6.46888E+03  3.64676E+03 -4.55311E+03 -1.96442E+03 -2.22690E+03 -1.11825E+03 -9.64285E+02 -9.60192E+01
 -2.69862E+03  8.45568E+02 -2.61274E+03 -5.67975E+02 -1.75891E+03 -2.91454E+03  2.89846E+02 -4.18076E+03
  4.72942E+03 -3.63954E+03  8.04565E+03 -6.14451E+02  8.59516E+03  6.82919E+03  3.23013E+03  1.25870E+04
 -4.56408E+03  1.48951E+04 -1.32903E+04  7.96907E+03 -1.55724E+04 -1.22665E+03 -1.17491E+04 -9.21280E+03
 -4.69077E+03 -1.32029E+04  3.20744E+03 -1.20867E+04  8.48111E+03 -5.97473E+03  8.44532E+03  5.68831E+02
  5.13801E+03  3.82899E+03 -5.54000E+02  3.87862E+03 -2.52595E+03 -2.54818E+02 -4.75625E+02 -2.83270E+03
  4.01197E+03 -1.63157E+03  4.39520E+03  1.97398E+03  3.20939E+03  4.25756E+03 -5.32678E+02  6.49676E+03
 -5.66135E+03  5.21587E+03 -8.84651E+03  2.30185E+02 -7.66210E+03 -6.25774E+03 -1.49747E+03 -1.07766E+04
  5.46027E+03 -8.17286E+03  1.08603E+04 -2.60274E+03  1.06968E+04  2.64498E+03  6.02461E+03  7.50478E+03
  7.53420E+02  8.86261E+03 -3.03975E+03  6.70733E+03 -5.11507E+03  3.66210E+03 -4.10549E+03  5.91654E+02
 -2.64886E+03 -4.44726E-01 -2.34895E+03  9.98730E+02 -5.02823E+03  1.31458E+03 -6.95643E+03 -1.89030E+03
 -6.52692E+03 -5.18320E+03 -2.86433E+03 -8.67205E+03  4.24632E+03 -8.29351E+03  7.56050E+03 -4.99501E+03
  8.68932E+03  2.61649E+02  4.18052E+03  5.01330E+03 -1.57756E+03  8.28450E+03 -6.26803E+03  5.46267E+03
