 $NMID ID='MM_0lb_SNR400_10hz_g55_47.RAW', FMTDAT='(8E13.5)'
 TRAMP=1., VOLUME=1. $END
  3.09550E+05  5.15154E+02  3.38018E+05  2.51093E+05  8.53261E+04  3.38350E+05 -1.32617E+05  2.52046E+05
 -1.91293E+05  8.39197E+04 -1.12818E+05 -3.25096E+04  4.01674E+02 -5.08248E+04  5.40815E+04  6.53362E+02
  3.51968E+04  5.26060E+04 -1.64853E+04  7.62087E+04 -6.08477E+04  6.47237E+04 -8.49720E+04  3.31275E+04
 -8.17334E+04 -1.18859E+04 -5.78362E+04 -5.25212E+04 -1.54893E+04 -7.02904E+04  2.86545E+04 -4.64510E+04
  4.09409E+04  3.50629E+03  1.63900E+04  4.84492E+04 -3.41219E+04  4.87510E+04 -6.75232E+04 -3.81837E+01
 -5.47521E+04 -5.75478E+04 -6.82809E+03 -7.97004E+04  3.44783E+04 -5.62754E+04  5.00128E+04 -1.82304E+04
  4.50389E+04  1.17368E+04  3.30361E+04  2.62483E+04  1.63792E+04  3.08373E+04 -6.35519E+03  2.79603E+04
 -2.21488E+04  1.08602E+04 -1.85352E+04 -5.93826E+03  6.17166E+03 -7.45706E+03  2.34316E+04  1.33053E+04
  6.43923E+03  3.68947E+04 -3.37324E+04  3.67320E+04 -6.49155E+04  2.54286E+03 -5.89809E+04 -4.47735E+04
 -1.24732E+04 -6.51582E+04  4.19004E+04 -4.78437E+04  6.11245E+04 -2.31834E+03  3.59108E+04  3.41365E+04
 -5.52204E+03  3.91596E+04 -3.13484E+04  1.79349E+04 -3.32383E+04 -3.55021E+03 -1.99776E+04 -1.26149E+04
 -9.22990E+03 -1.44039E+04 -3.40766E+02 -1.91068E+04  8.50016E+03 -2.34987E+04  1.59014E+04 -1.30076E+04
  1.08586E+04  6.39758E+03 -1.01188E+04  1.18555E+04 -2.37598E+04 -5.73786E+03 -8.45231E+03 -3.67655E+04
  2.49075E+04 -4.71362E+04  5.17088E+04 -2.06489E+04  4.81623E+04  2.05310E+04  1.68254E+04  4.70073E+04
 -1.72276E+04  3.62849E+04 -2.77272E+04  2.13537E+03 -1.12981E+04 -2.96212E+04  2.16509E+04 -3.66957E+04
  4.45259E+04 -1.05386E+04  4.01147E+04  2.45968E+04  2.06688E+04  5.01808E+04 -7.89914E+03  5.49266E+04
 -3.52795E+04  3.77919E+04 -4.76116E+04  1.07473E+04 -4.71446E+04 -1.82841E+04 -2.47804E+04 -4.21628E+04
  7.88810E+03 -4.23027E+04  3.41015E+04 -1.71964E+04  3.13169E+04  1.07298E+04  5.17789E+03  2.04962E+04
 -1.36436E+04  8.98515E+03 -1.14962E+04 -7.91059E+03  5.44439E+03 -1.25095E+04  1.83201E+04  4.97941E+03
  1.45106E+04  2.28359E+04 -5.40796E+03  2.70772E+04 -2.31224E+04  1.41158E+04 -3.14622E+04 -3.65329E+03
 -2.46475E+04 -1.87280E+04 -1.03306E+04 -2.51495E+04  4.23811E+03 -2.44372E+04  1.92405E+04 -2.24393E+04
  3.18543E+04 -1.39128E+04  3.76813E+04  4.91474E+03  2.73957E+04  2.46788E+04  4.70053E+03  4.02131E+04
 -1.99382E+04  3.35998E+04 -3.06754E+04  1.12500E+04 -2.24660E+04 -9.99153E+03 -4.56880E+03 -1.25013E+04
  9.11935E+02 -1.64151E+03 -7.02218E+03  8.49376E+03 -1.99163E+04  5.10524E+03 -1.98544E+04 -9.57739E+03
 -1.16826E+04 -2.29612E+04  6.06506E+03 -2.70032E+04  1.87872E+04 -1.98459E+04  2.24188E+04 -1.37499E+03
  1.45157E+04  1.56182E+04 -1.15138E+03  2.27680E+04 -1.57115E+04  1.26968E+04 -2.26519E+04 -5.25548E+03
 -1.64492E+04 -2.02542E+04 -1.66379E+03 -2.73862E+04  1.20622E+04 -2.24293E+04  2.29320E+04 -1.21794E+04
  2.14711E+04  3.51980E+02  1.52866E+04  4.96634E+03  8.56199E+03  1.68386E+03  1.24137E+04 -1.82573E+03
  2.17352E+04  2.49802E+03  2.42710E+04  1.75635E+04  1.73838E+04  3.66236E+04 -2.96986E+03  4.33739E+04
 -2.50900E+04  3.61170E+04 -4.09816E+04  1.84865E+04 -4.42224E+04 -2.84711E+03 -3.52213E+04 -2.54795E+04
 -1.54007E+04 -3.67748E+04  1.30500E+04 -3.12648E+04  2.67946E+04 -1.47397E+04  2.34400E+04  8.16110E+03
  8.06240E+03  1.85820E+04 -1.12017E+04  1.41997E+04 -1.93149E+04  2.29344E+03 -1.51846E+04 -1.21429E+04
 -1.51348E+02 -1.82420E+04  9.70016E+03 -1.43022E+04  1.31488E+04 -1.49233E+03  3.03915E+03  8.19357E+03
 -8.58772E+03  3.75249E+03 -8.42122E+03 -6.69869E+03 -2.74866E+03 -1.70750E+04  1.16188E+04 -1.94270E+04
  2.17441E+04 -1.10633E+04  2.56861E+04  3.06191E+03  2.16883E+04  1.78623E+04  1.01622E+04  2.84091E+04
 -4.73311E+03  3.02403E+04 -2.03244E+04  1.82100E+04 -2.24216E+04  4.22999E+03 -1.50025E+04 -5.61056E+03
 -6.80632E+03 -7.91711E+03 -8.68957E+02  5.80892E+02 -2.65533E+03  2.99126E+03 -7.14698E+03  5.68938E+03
 -1.38107E+04 -3.24409E+02 -1.39186E+04 -1.16366E+04 -5.93477E+03 -1.91455E+04  6.45983E+03 -1.52285E+04
  1.23477E+04 -6.15558E+03  8.61801E+03  4.09170E+03  3.62342E+02  6.14866E+03 -7.62342E+03 -2.94381E+02
 -7.01011E+03 -9.97594E+03 -1.86966E+03 -1.51826E+04  8.61954E+03 -1.57595E+04  1.98933E+04 -7.97865E+03
  2.28941E+04  1.76500E+03  1.62647E+04  1.33722E+04  2.39480E+03  1.84220E+04 -9.01577E+03  1.48674E+04
 -1.24949E+04  3.72936E+03 -5.96309E+03 -3.03698E+03  3.14312E+03 -4.49323E+03  7.54910E+03 -1.38807E+03
  7.46704E+03  6.31692E+03  1.12624E+03  1.28761E+04 -8.77076E+03  1.08367E+04 -1.45166E+04  2.61031E+03
 -1.03837E+04 -7.85600E+03  3.78109E+02 -1.24179E+04  8.82668E+03 -6.79911E+03  8.57828E+03  3.42011E+03
  2.21038E+03  9.47832E+03 -8.22001E+03  1.16148E+04 -1.23017E+04  4.20887E+03 -1.30193E+04 -4.69402E+03
 -7.39057E+03 -1.53948E+04  3.65025E+03 -1.68102E+04  1.52184E+04 -1.07618E+04  1.60398E+04  3.12714E+03
  1.06513E+04  1.28523E+04 -1.26457E+03  1.45375E+04 -1.11093E+04  8.76134E+03 -1.12294E+04 -1.10618E+03
 -1.06828E+04 -1.01506E+04 -1.81140E+03 -1.13960E+04  6.57978E+03 -9.62159E+03  7.15065E+03 -3.61529E+03
  4.63052E+03  1.95560E+03 -1.59361E+03  2.35703E+03 -1.48178E+03 -2.89462E+03  2.51040E+03 -6.38337E+03
  1.10479E+04 -4.61673E+03  1.53181E+04  1.72984E+03  1.43921E+04  1.03271E+04  9.34392E+03  1.97857E+04
 -4.88639E+03  2.22698E+04 -1.91731E+04  1.64102E+04 -2.43517E+04  3.93908E+03 -1.90464E+04 -8.67326E+03
 -9.55698E+03 -1.61029E+04 -1.16975E+02 -1.32212E+04  4.36910E+03 -8.06557E+03  4.97031E+03 -4.64657E+03
  3.56230E+03 -3.39941E+03  3.18604E+03 -3.17914E+03  6.14886E+03 -4.14966E+03  8.12415E+03 -1.26848E+03
  1.04836E+04  1.69413E+03  5.28424E+03  8.74717E+03 -1.98650E+03  1.02353E+04 -1.09684E+04  7.50316E+03
 -1.31686E+04 -9.96835E+02 -8.55467E+03 -9.95140E+03 -5.36730E+02 -1.48924E+04  8.00993E+03 -1.56379E+04
  1.45599E+04 -7.79196E+03  1.81192E+04  2.83374E+03  1.28353E+04  1.29089E+04  2.17591E+03  1.73909E+04
 -6.96408E+03  1.43915E+04 -9.74568E+03  4.65138E+03 -6.18382E+03 -1.47682E+03 -2.61254E+03 -1.94210E+03
 -1.42631E+03 -6.70762E+02 -1.63953E+03  3.36549E+03 -6.34496E+03  3.07343E+03 -9.18546E+03 -1.06574E+03
 -6.06900E+03 -1.00890E+04 -3.86771E+02 -1.36027E+04  9.54402E+03 -1.31630E+04  1.44925E+04 -3.89887E+03
  1.35348E+04  6.61951E+03  6.43021E+03  1.33851E+04 -2.67891E+03  1.39372E+04 -9.63314E+03  8.62336E+03
 -1.31971E+04  1.56625E+03 -9.88611E+03 -8.43209E+03 -8.64403E+02 -1.08643E+04  6.46885E+03 -8.52534E+03
  8.78921E+03 -2.67300E+03  5.87483E+03  2.00897E+03  2.31333E+03  4.19627E+03  1.03257E+03  2.20051E+03
  2.65396E+03  1.66537E+03  3.46706E+03  1.22038E+03  3.74460E+03  4.44025E+03  3.97045E+03  7.46912E+03
 -3.23111E+03  1.04631E+04 -9.71501E+03  1.12259E+04 -1.39300E+04  2.81241E+03 -1.40219E+04 -5.82041E+03
 -7.54270E+03 -1.31393E+04  2.49744E+03 -1.41502E+04  8.59183E+03 -9.50924E+03  1.10837E+04 -2.71458E+03
  9.65108E+03  4.78414E+03  1.53518E+03  7.82240E+03 -3.76391E+03  4.99835E+03 -5.03869E+03 -1.11707E+03
 -2.67659E+03 -5.72993E+03  3.43118E+03 -6.17729E+03  5.30518E+03 -2.96279E+03  4.95479E+03  1.48929E+03
  3.39851E+03  2.60498E+03  1.27305E+03  2.59993E+03 -5.14516E+02  1.76931E+03  1.63324E+03 -3.89100E+02
  2.51012E+03 -1.02497E+03  5.80100E+03  2.05242E+03  3.54847E+03  6.90549E+03 -1.45768E+03  9.55067E+03
 -6.18410E+03  6.33918E+03 -9.82528E+03  1.77842E+03 -7.64161E+03 -3.07481E+03 -2.66705E+03 -5.12066E+03
  9.31299E+02 -5.06062E+03  3.12776E+03 -2.41717E+03  2.33432E+03  1.83055E+03 -1.03432E+03  4.88782E+03
 -6.48601E+03  2.58961E+03 -7.75022E+03 -3.65457E+03 -3.23613E+03 -7.67737E+03  1.09040E+03 -7.72806E+03
  5.06382E+03 -4.49411E+03  5.32000E+03  2.93941E+02  4.46893E+03  1.60105E+03  5.93122E+02  4.85506E+03
 -2.57296E+03  1.45783E+03 -3.97919E+03 -2.81963E+03  1.40066E+03 -5.41354E+03  7.03371E+03 -4.13411E+03
  8.95508E+03  1.46509E+03  8.70342E+03  5.22822E+03  2.50182E+03  9.40031E+03 -3.88973E+03  8.90838E+03
 -7.52439E+03  4.03544E+03 -7.45315E+03 -1.31868E+03 -3.96991E+03 -6.59418E+03  1.20771E+03 -5.19068E+03
  5.45684E+03 -2.57587E+03  5.06575E+03  1.62350E+03  9.64043E+02  4.78847E+03 -1.04157E+03  3.57159E+03
 -2.25604E+03  3.08007E+03 -2.17688E+03  5.77882E+02 -3.08396E+02  3.26341E+02 -1.61803E+03  2.21604E+03
 -3.35392E+03  3.54471E+03 -5.24275E+03  4.50100E+03 -9.04328E+03  4.17923E+02 -1.08028E+04 -5.36047E+03
 -5.14917E+03 -1.15969E+04  2.51711E+03 -1.34856E+04  9.05969E+03 -1.18222E+04  1.29599E+04 -4.21929E+03
  1.26308E+04  2.05412E+03  7.30356E+03  7.50144E+03  8.14911E+02  9.41920E+03 -4.10855E+03  6.71134E+03
 -5.01955E+03  2.19402E+03 -2.96196E+03 -1.48654E+03 -1.11066E+03 -5.30337E+02 -8.60583E+02  6.63352E+02
 -1.91225E+03  6.71032E+02 -1.73842E+03 -4.37956E+02 -3.77896E+02 -2.41037E+03  1.17115E+03 -3.33646E+03
  3.96096E+03 -2.76844E+03  6.28478E+03  1.13271E+03  6.82988E+03  5.15951E+03  1.75654E+03  9.41039E+03
 -4.73999E+03  1.05529E+04 -8.97828E+03  6.38753E+03 -1.10718E+04 -9.33913E+02 -8.68900E+03 -6.77230E+03
 -3.52132E+03 -8.67085E+03  2.25897E+03 -8.15683E+03  5.72992E+03 -4.09886E+03  6.14957E+03  4.56216E+02
  3.43573E+03  2.71261E+03  1.63195E+02  3.04800E+03 -1.60441E+03  1.00657E+02  1.24681E+02 -1.98378E+03
  3.44255E+03 -1.16661E+03  2.78658E+03  9.62781E+02  1.67757E+03  3.33375E+03  2.66483E+02  4.01646E+03
 -4.40678E+03  4.05234E+03 -6.24199E+03 -8.80485E+01 -5.45096E+03 -4.05985E+03 -1.10589E+03 -7.55469E+03
  4.47046E+03 -6.70763E+03  7.16390E+03 -1.64359E+03  7.23478E+03  2.28435E+03  5.07712E+03  5.62762E+03
  8.40186E+01  5.11482E+03 -2.01511E+03  5.63348E+03 -2.94338E+03  2.80162E+03 -2.94108E+03  1.06126E+03
 -1.88929E+03 -2.86542E+01 -1.82753E+03  1.36839E+03 -3.63248E+03  8.40972E+02 -4.43656E+03 -1.12143E+03
 -4.03199E+03 -3.21100E+03 -1.51123E+03 -6.47999E+03  2.18546E+03 -6.55263E+03  5.21022E+03 -3.51126E+03
  6.69526E+03  4.58500E+02  2.91162E+03  4.44357E+03 -5.26702E+02  5.61265E+03 -4.46538E+03  4.11631E+03
