 $NMID ID='MM_0lb_SNR400_14hz_g55_34.RAW', FMTDAT='(8E13.5)'
 TRAMP=1., VOLUME=1. $END
  3.09940E+05  8.24575E+02  3.37930E+05  2.50942E+05  8.48599E+04  3.38414E+05 -1.33073E+05  2.51336E+05
 -1.90572E+05  8.36417E+04 -1.12166E+05 -3.22221E+04  3.63389E+02 -5.03386E+04  5.30197E+04 -3.43395E+02
  3.54016E+04  5.28847E+04 -1.74855E+04  7.54861E+04 -6.10280E+04  6.40874E+04 -8.44865E+04  3.17433E+04
 -8.16492E+04 -1.13305E+04 -5.70727E+04 -5.14828E+04 -1.49400E+04 -7.01578E+04  2.78134E+04 -4.61451E+04
  4.00160E+04  3.75771E+03  1.67242E+04  4.79479E+04 -3.44242E+04  4.73870E+04 -6.69077E+04  4.74286E+02
 -5.33363E+04 -5.69956E+04 -6.77011E+03 -7.78441E+04  3.39162E+04 -5.54395E+04  4.79678E+04 -1.72635E+04
  4.41891E+04  1.15489E+04  3.17642E+04  2.58240E+04  1.60380E+04  2.88432E+04 -5.40547E+03  2.73624E+04
 -2.24693E+04  1.22183E+04 -1.85404E+04 -4.52620E+03  5.66730E+03 -7.60528E+03  2.21748E+04  1.30511E+04
  7.01556E+03  3.54453E+04 -3.23879E+04  3.57101E+04 -6.41600E+04  2.46768E+03 -5.70929E+04 -4.22941E+04
 -1.27248E+04 -6.39496E+04  4.03714E+04 -4.59383E+04  5.84643E+04 -1.80512E+03  3.43747E+04  3.26950E+04
 -6.51382E+03  3.70942E+04 -3.09346E+04  1.66493E+04 -3.06672E+04 -4.12249E+03 -1.69095E+04 -1.10567E+04
 -9.05449E+03 -1.35215E+04 -7.64489E+02 -1.82710E+04  7.48503E+03 -2.34218E+04  1.57718E+04 -1.33781E+04
  1.16415E+04  5.34273E+03 -8.63830E+03  1.28147E+04 -2.11920E+04 -5.48034E+03 -8.76364E+03 -3.41766E+04
  2.33214E+04 -4.41402E+04  4.88925E+04 -1.96845E+04  4.57159E+04  1.95614E+04  1.60567E+04  4.38058E+04
 -1.69257E+04  3.39474E+04 -2.59206E+04  2.42169E+03 -9.73937E+03 -2.84172E+04  2.11389E+04 -3.50653E+04
  4.21941E+04 -9.73184E+03  3.69969E+04  2.34109E+04  1.88526E+04  4.71851E+04 -8.13394E+03  5.08292E+04
 -3.27467E+04  3.48343E+04 -4.28013E+04  9.31536E+03 -4.32760E+04 -1.69603E+04 -2.38027E+04 -3.82526E+04
  7.79481E+03 -3.89324E+04  3.18554E+04 -1.48700E+04  2.93703E+04  1.05874E+04  4.32503E+03  1.92120E+04
 -1.39757E+04  8.60002E+03 -9.93743E+03 -7.17852E+03  6.18319E+03 -1.09893E+04  1.77328E+04  5.65087E+03
  1.39857E+04  2.15494E+04 -5.73624E+03  2.46499E+04 -2.18609E+04  1.23582E+04 -2.87293E+04 -4.27977E+03
 -2.18679E+04 -1.76477E+04 -8.53944E+03 -2.12238E+04  4.40629E+03 -2.03332E+04  1.57415E+04 -1.87364E+04
  2.71842E+04 -1.31953E+04  3.31683E+04  2.97639E+03  2.42203E+04  2.02959E+04  4.54713E+03  3.73264E+04
 -1.75805E+04  3.07196E+04 -2.91065E+04  1.11870E+04 -2.10313E+04 -1.06715E+04 -4.24158E+03 -1.33289E+04
  1.91038E+03 -2.05644E+03 -5.07178E+03  6.66643E+03 -1.65966E+04  4.91516E+03 -1.70635E+04 -7.75708E+03
 -1.00100E+04 -1.96569E+04  5.10559E+03 -2.41038E+04  1.52969E+04 -1.70021E+04  1.85070E+04 -1.57777E+03
  1.21289E+04  1.36868E+04 -1.37810E+03  1.95790E+04 -1.32229E+04  1.14507E+04 -1.94340E+04 -4.25077E+03
 -1.44223E+04 -1.80879E+04 -2.12213E+03 -2.39007E+04  1.11056E+04 -1.93152E+04  2.01608E+04 -1.04009E+04
  1.80818E+04  4.02521E+02  1.36176E+04  5.17535E+03  6.83355E+03  8.19389E+02  1.00573E+04 -1.66149E+03
  1.83319E+04  2.50858E+03  2.03641E+04  1.50105E+04  1.35516E+04  3.13052E+04 -2.37519E+03  3.52652E+04
 -2.06424E+04  2.88671E+04 -3.30340E+04  1.45351E+04 -3.44181E+04 -1.84467E+03 -2.84696E+04 -2.07419E+04
 -1.22328E+04 -2.96784E+04  1.01648E+04 -2.60340E+04  2.25119E+04 -1.29951E+04  1.97853E+04  5.72524E+03
  7.64205E+03  1.47081E+04 -9.49917E+03  1.29650E+04 -1.67482E+04  2.41455E+03 -1.33440E+04 -1.03512E+04
 -8.05773E+02 -1.62412E+04  7.86249E+03 -1.21050E+04  1.09516E+04 -1.83087E+03  1.35318E+03  7.07714E+03
 -7.25356E+03  2.39902E+03 -6.46073E+03 -5.36111E+03 -4.63401E+02 -1.36942E+04  9.58095E+03 -1.50625E+04
  1.75309E+04 -7.90395E+03  1.88459E+04  2.93174E+03  1.63919E+04  1.39881E+04  7.62710E+03  2.17849E+04
 -3.67045E+03  2.27466E+04 -1.46061E+04  1.44518E+04 -1.65012E+04  2.88771E+03 -1.18135E+04 -3.64318E+03
 -5.57103E+03 -5.41945E+03 -1.97280E+02  1.20851E+03 -2.36984E+03  2.54861E+03 -5.49636E+03  4.32882E+03
 -1.08227E+04 -9.70420E+02 -1.15838E+04 -9.72697E+03 -4.11042E+03 -1.55973E+04  5.54768E+03 -1.15030E+04
  9.88359E+03 -4.67318E+03  7.53748E+03  3.27129E+03 -4.83879E+02  4.43393E+03 -4.78138E+03 -2.91432E+02
 -5.00913E+03 -6.99134E+03 -8.96165E+02 -1.14755E+04  6.28484E+03 -1.16382E+04  1.48134E+04 -5.77912E+03
  1.67802E+04  1.64807E+03  1.14158E+04  9.50621E+03  3.02543E+03  1.33483E+04 -7.37859E+03  1.15087E+04
 -9.84987E+03  3.63657E+03 -4.15023E+03 -2.27460E+03  1.54206E+03 -3.21449E+03  6.62143E+03 -8.13586E+02
  5.62882E+03  4.75022E+03  1.42349E+03  9.43779E+03 -6.61511E+03  9.48278E+03 -1.21634E+04  2.61609E+03
 -7.58263E+03 -5.83347E+03  3.40501E+02 -9.97154E+03  5.52764E+03 -5.10330E+03  5.97975E+03  1.53709E+03
  1.32763E+03  6.53825E+03 -6.16449E+03  7.41875E+03 -8.33680E+03  4.32105E+03 -7.72002E+03 -3.05437E+03
 -5.47230E+03 -9.72065E+03  2.41892E+03 -1.17244E+04  1.05505E+04 -7.22619E+03  1.07614E+04  1.92171E+03
  6.21633E+03  8.43205E+03 -6.23721E+02  1.15249E+04 -8.65644E+03  6.00643E+03 -8.71306E+03 -1.06446E+03
 -7.97070E+03 -7.88415E+03 -1.26854E+03 -8.61246E+03  4.37817E+03 -6.84567E+03  4.32369E+03 -3.57524E+03
  3.45376E+03  1.07587E+03  4.27015E+02  1.89081E+03  3.09010E+02 -1.77216E+03  1.04129E+03 -4.10751E+03
  6.55163E+03 -2.20810E+03  9.93115E+03  1.12273E+03  1.00643E+04  6.68764E+03  6.82250E+03  1.32242E+04
 -2.39260E+03  1.51799E+04 -1.21958E+04  1.13296E+04 -1.64489E+04  2.19123E+03 -1.30765E+04 -5.75287E+03
 -6.14270E+03 -1.12821E+04 -3.46773E+02 -9.30909E+03  3.91245E+03 -5.76939E+03  2.71231E+03 -3.82682E+03
  1.75987E+03 -2.46283E+03  3.00071E+03 -2.71422E+03  4.93529E+03 -2.41402E+03  5.86371E+03 -4.32080E+02
  7.38052E+03  1.80299E+03  3.16230E+03  5.60229E+03 -2.28064E+03  5.97375E+03 -6.70250E+03  5.37371E+03
 -9.49721E+03 -1.12525E+03 -4.49395E+03 -6.47002E+03 -2.93548E+02 -9.69775E+03  4.99831E+03 -9.78855E+03
  9.26954E+03 -5.83815E+03  1.11456E+04  1.89165E+03  8.46517E+03  8.26603E+03  1.75890E+03  1.06632E+04
 -4.13250E+03  8.92053E+03 -5.79582E+03  2.95359E+03 -3.23946E+03 -1.66392E+03 -1.11279E+03 -1.57107E+03
 -1.28141E+03 -3.80182E+02 -8.19445E+02  2.71264E+03 -3.80565E+03  1.46989E+03 -5.84187E+03 -4.60211E+02
 -3.84664E+03 -6.39688E+03  4.04301E+02 -8.62368E+03  5.23835E+03 -7.76181E+03  8.52477E+03 -2.75104E+03
  8.20363E+03  4.08074E+03  3.86947E+03  6.69454E+03 -1.73736E+03  8.53701E+03 -5.78463E+03  4.76941E+03
 -8.08451E+03  8.02010E+02 -6.21280E+03 -4.97465E+03 -1.43012E+03 -6.60229E+03  3.45404E+03 -4.57962E+03
  5.25808E+03 -2.24716E+03  3.52350E+03  1.28055E+03  1.40066E+03  2.92559E+03  1.16187E+03  8.72566E+02
  1.98000E+03  9.50488E+02  2.31307E+03  9.16213E+02  2.06890E+03  3.02276E+03  2.28040E+03  3.59253E+03
 -2.60550E+03  6.66119E+03 -6.37147E+03  6.55975E+03 -7.71677E+03  1.86989E+03 -8.79221E+03 -2.35087E+03
 -3.47878E+03 -8.13257E+03  1.56244E+03 -8.80181E+03  4.41744E+03 -5.36612E+03  5.87498E+03 -1.57388E+03
  5.47034E+03  3.08026E+03  1.42379E+03  4.59357E+03 -2.03169E+03  3.13277E+03 -2.69781E+03  2.85363E+02
 -1.27171E+03 -2.70101E+03  2.16555E+03 -2.90278E+03  3.05167E+03 -2.40004E+03  2.92943E+03  6.58985E+02
  1.48500E+03  8.37912E+02  1.49276E+03  6.10304E+02 -2.56802E+02  1.20946E+03  1.60568E+03 -7.67914E+02
  7.73722E+02 -7.16945E+02  3.03920E+03  9.90438E+02  1.55494E+03  4.08166E+03 -9.53667E+02  5.81827E+03
 -3.77633E+03  3.16054E+03 -4.64840E+03  1.15102E+03 -4.35912E+03 -1.79501E+03 -1.54369E+03 -3.15398E+03
  2.76350E+02 -2.66445E+03  1.52944E+03 -1.14468E+03  1.34047E+03  1.86319E+03 -6.37172E+02  2.32252E+03
 -2.72766E+03  1.51941E+03 -3.23937E+03 -1.95469E+03 -1.76498E+03 -4.09542E+03  6.22452E+02 -3.50720E+03
  1.72354E+03 -2.10322E+03  2.92082E+03 -2.62728E+02  2.21974E+03  6.48826E+02  2.88247E+02  2.33630E+03
 -9.13285E+02  6.02481E+02 -2.67532E+03 -1.06913E+03  5.94382E+02 -2.41216E+03  3.18285E+03 -3.01302E+03
  3.45405E+03 -2.63543E+02  4.91140E+03  1.93729E+03  1.79952E+03  4.23287E+03 -1.51544E+03  4.43755E+03
 -3.06495E+03  1.06584E+03 -3.64732E+03 -2.73771E+02 -2.23331E+03 -3.07017E+03  9.69822E+02 -2.48287E+03
  3.10880E+03 -1.59857E+03  2.10350E+03  1.92000E+03  4.66664E+02  2.50298E+03  4.99174E+02  2.78453E+03
 -1.42355E+03  1.76902E+03 -7.01417E+02  4.92904E+02 -2.93138E+02  3.45643E+02 -9.41601E+02  9.82331E+02
 -1.24939E+03  1.54477E+03 -2.85078E+03  1.24980E+03 -4.47311E+03  2.28372E+02 -4.85559E+03 -2.98351E+03
 -2.14529E+03 -5.67752E+03  1.12366E+03 -5.94559E+03  3.75798E+03 -5.40169E+03  5.90615E+03 -2.50823E+03
  5.48706E+03  1.21543E+03  4.00239E+03  3.42566E+03 -1.03409E+01  4.16850E+03 -1.42575E+03  2.82605E+03
 -2.08871E+03  1.35007E+03 -1.40618E+03  2.65796E+01 -5.55417E+02 -1.81522E+02 -2.91376E+02 -8.17836E+01
 -1.47438E+03  6.55461E+02 -1.76277E+03  3.32338E+02 -3.91545E+02 -1.03235E+03 -3.88920E+02 -2.14299E+03
  2.19459E+03 -1.83148E+03  1.99230E+03  2.40551E+02  2.95023E+03  2.52859E+03  1.00365E+02  3.96726E+03
 -2.30037E+03  5.31902E+03 -4.11546E+03  2.83003E+03 -5.06292E+03 -4.82967E+02 -3.93852E+03 -2.65899E+03
 -2.62229E+03 -3.87142E+03  1.41062E+03 -3.70362E+03  2.30477E+03 -2.06895E+03  2.15355E+03  3.21656E+02
  1.61556E+03  1.33054E+03 -2.18763E+02  1.07170E+03 -8.54543E+02 -4.97972E+02 -4.11482E+01 -7.94376E+02
  1.36973E+03 -8.72868E+02  1.82793E+03  4.66100E+02  8.51397E+02  1.09018E+03  4.22119E+02  1.71919E+03
 -1.43968E+03  2.46174E+03 -1.98308E+03  1.10933E+02 -2.88967E+03 -1.69193E+03  7.98619E+01 -3.11405E+03
  1.62725E+03 -2.62771E+03  2.48968E+03 -5.56684E+02  2.16444E+03 -3.97319E+02  1.48192E+03  2.49912E+03
  4.43377E+02  2.24719E+03 -6.09074E+02  2.10741E+03 -2.15101E+03  5.03367E+02 -1.31524E+03  1.04232E+02
 -1.19341E+03 -1.50392E+02 -1.27594E+03  4.07514E+02 -9.20101E+02  2.63075E+02 -2.12401E+03  9.95449E+01
 -2.12650E+03 -9.16030E+02 -1.65969E+02 -2.56417E+03  1.44881E+03 -2.50943E+03  2.60589E+03 -1.38446E+03
  2.39195E+03  1.36169E+02  1.10484E+03  1.16829E+03 -5.27040E+02  2.32049E+03 -1.19795E+03  1.18103E+03
