 $NMID ID='MM_0lb_SNR400_9hz_g45_59.RAW', FMTDAT='(8E13.5)'
 TRAMP=1., VOLUME=1. $END
  3.09914E+05  8.20400E+02  3.38148E+05  2.50501E+05  8.56141E+04  3.37733E+05 -1.32304E+05  2.51585E+05
 -1.90202E+05  8.29908E+04 -1.12876E+05 -3.24713E+04  3.84433E+01 -5.04834E+04  5.41654E+04 -4.08049E+02
  3.51836E+04  5.24269E+04 -1.75512E+04  7.50357E+04 -6.14511E+04  6.38125E+04 -8.52089E+04  3.21789E+04
 -8.28853E+04 -1.25454E+04 -5.75431E+04 -5.21200E+04 -1.48853E+04 -7.15118E+04  2.83170E+04 -4.68048E+04
  4.04597E+04  3.45978E+03  1.67926E+04  4.85164E+04 -3.45824E+04  4.91178E+04 -6.78187E+04  2.49377E+02
 -5.52434E+04 -5.78992E+04 -6.55185E+03 -7.88668E+04  3.43786E+04 -5.67654E+04  4.99956E+04 -1.75632E+04
  4.46276E+04  1.15078E+04  3.23017E+04  2.68289E+04  1.61002E+04  3.02375E+04 -5.88811E+03  2.83572E+04
 -2.23165E+04  1.17373E+04 -1.85398E+04 -6.02311E+03  6.20076E+03 -6.87641E+03  2.37679E+04  1.38184E+04
  7.20407E+03  3.72030E+04 -3.36216E+04  3.71790E+04 -6.51783E+04  3.01227E+03 -5.88647E+04 -4.35609E+04
 -1.22274E+04 -6.52176E+04  4.14290E+04 -4.62717E+04  6.12083E+04 -2.46019E+03  3.61785E+04  3.42224E+04
 -5.87427E+03  3.94411E+04 -3.22260E+04  1.79718E+04 -3.26985E+04 -3.62404E+03 -1.92000E+04 -1.23042E+04
 -9.33622E+03 -1.46474E+04 -2.89459E+02 -1.96409E+04  8.71967E+03 -2.41571E+04  1.62228E+04 -1.30749E+04
  1.02086E+04  6.17579E+03 -1.01605E+04  1.31856E+04 -2.35304E+04 -6.50129E+03 -8.49728E+03 -3.68789E+04
  2.48545E+04 -4.60877E+04  5.18576E+04 -2.07226E+04  4.86988E+04  2.11176E+04  1.65933E+04  4.62172E+04
 -1.66834E+04  3.55060E+04 -2.76356E+04  1.97372E+03 -1.12858E+04 -3.04415E+04  2.21287E+04 -3.58261E+04
  4.37837E+04 -1.09100E+04  3.98343E+04  2.45228E+04  2.12077E+04  5.08837E+04 -8.87054E+03  5.58555E+04
 -3.48225E+04  3.84178E+04 -4.77985E+04  1.14224E+04 -4.67004E+04 -1.85952E+04 -2.59234E+04 -4.16932E+04
  8.04599E+03 -4.07537E+04  3.39087E+04 -1.69060E+04  3.22835E+04  1.12622E+04  4.91142E+03  2.11586E+04
 -1.41200E+04  9.58589E+03 -1.18934E+04 -7.63297E+03  5.59025E+03 -1.19299E+04  1.92125E+04  5.41193E+03
  1.41945E+04  2.26973E+04 -5.70678E+03  2.74442E+04 -2.40249E+04  1.48398E+04 -3.09253E+04 -2.79548E+03
 -2.44537E+04 -1.83483E+04 -1.07442E+04 -2.47928E+04  4.24240E+03 -2.57983E+04  1.96202E+04 -2.26442E+04
  3.17665E+04 -1.42099E+04  3.70516E+04  4.69864E+03  2.65678E+04  2.30141E+04  5.01062E+03  4.11841E+04
 -2.01236E+04  3.43660E+04 -3.00036E+04  1.13212E+04 -2.17540E+04 -1.05236E+04 -4.85825E+03 -1.35475E+04
  1.05148E+03 -1.76766E+03 -7.62797E+03  8.31414E+03 -2.05210E+04  5.19113E+03 -1.95414E+04 -9.54777E+03
 -1.14796E+04 -2.25617E+04  5.72780E+03 -2.74812E+04  1.82993E+04 -1.90853E+04  2.15816E+04 -1.52815E+03
  1.43784E+04  1.57004E+04 -1.43050E+03  2.26799E+04 -1.64675E+04  1.28903E+04 -2.34269E+04 -5.01553E+03
 -1.68114E+04 -2.13336E+04 -1.88420E+03 -2.75284E+04  1.17124E+04 -2.35630E+04  2.24017E+04 -1.16244E+04
  2.21627E+04 -4.87930E+02  1.54981E+04  4.36871E+03  8.08229E+03  1.28485E+03  1.18551E+04 -1.50589E+03
  2.19993E+04  2.96894E+03  2.44849E+04  1.84615E+04  1.61506E+04  3.69121E+04 -3.08958E+03  4.34107E+04
 -2.48025E+04  3.64220E+04 -4.05819E+04  1.84249E+04 -4.44302E+04 -2.34136E+03 -3.52656E+04 -2.53503E+04
 -1.45527E+04 -3.67132E+04  1.35247E+04 -3.26549E+04  2.69865E+04 -1.52636E+04  2.40293E+04  7.03185E+03
  8.24661E+03  1.83142E+04 -1.13264E+04  1.59394E+04 -1.95667E+04  2.88067E+03 -1.53741E+04 -1.23033E+04
 -1.81150E+02 -1.91732E+04  1.03651E+04 -1.36457E+04  1.32190E+04 -1.01108E+03  3.29243E+03  8.37992E+03
 -7.94310E+03  4.01200E+03 -8.71793E+03 -5.88930E+03 -2.43696E+03 -1.79791E+04  1.20822E+04 -2.01515E+04
  2.21723E+04 -1.12315E+04  2.52502E+04  2.87490E+03  2.16470E+04  1.80120E+04  1.03201E+04  2.73154E+04
 -5.56607E+03  2.99498E+04 -1.98649E+04  1.88514E+04 -2.24000E+04  3.57709E+03 -1.46320E+04 -5.93075E+03
 -7.30036E+03 -7.20435E+03 -6.09398E+02  6.35489E+02 -2.91710E+03  4.38026E+03 -7.67338E+03  4.72373E+03
 -1.41286E+04 -1.07009E+03 -1.45141E+04 -1.27112E+04 -5.45619E+03 -1.95720E+04  6.35629E+03 -1.48676E+04
  1.23853E+04 -5.76715E+03  9.22557E+03  3.73033E+03 -4.08329E+02  5.89205E+03 -7.34460E+03 -3.26132E+02
 -7.56001E+03 -9.66321E+03 -1.02627E+03 -1.52716E+04  8.41331E+03 -1.55492E+04  1.97567E+04 -8.57534E+03
  2.30999E+04  2.43107E+03  1.55583E+04  1.39897E+04  3.75871E+03  1.86829E+04 -9.50195E+03  1.46628E+04
 -1.26639E+04  5.02156E+03 -6.19919E+03 -2.38181E+03  2.38823E+03 -4.34776E+03  8.46133E+03 -1.26876E+03
  7.22112E+03  6.01612E+03  4.77202E+02  1.14078E+04 -8.62555E+03  1.16606E+04 -1.51868E+04  2.53169E+03
 -1.08761E+04 -8.46769E+03  2.85050E+02 -1.40458E+04  8.38033E+03 -6.69142E+03  8.96249E+03  2.79513E+03
  1.72748E+03  9.12425E+03 -8.01880E+03  1.19665E+04 -1.29285E+04  4.56693E+03 -1.26513E+04 -5.14180E+03
 -7.44606E+03 -1.57416E+04  4.07346E+03 -1.77969E+04  1.49989E+04 -1.06376E+04  1.63930E+04  2.70712E+03
  9.62344E+03  1.21816E+04 -2.31535E+03  1.53014E+04 -1.07512E+04  9.04393E+03 -1.24309E+04 -1.02756E+03
 -9.85062E+03 -1.08843E+04 -1.90851E+03 -1.14681E+04  5.41678E+03 -9.39022E+03  7.55014E+03 -4.00052E+03
  5.39728E+03  2.00321E+03 -1.09812E+03  1.53704E+03 -6.97205E+02 -3.46379E+03  2.53149E+03 -7.51629E+03
  1.18881E+04 -4.76253E+03  1.53337E+04  1.73459E+03  1.56423E+04  1.03136E+04  9.03594E+03  2.04563E+04
 -3.96441E+03  2.26698E+04 -1.90621E+04  1.73765E+04 -2.40315E+04  3.70891E+03 -2.00199E+04 -8.46406E+03
 -1.05739E+04 -1.62662E+04 -5.13618E+02 -1.41292E+04  5.51335E+03 -8.03931E+03  4.88488E+03 -5.16172E+03
  3.03405E+03 -3.48179E+03  4.34443E+03 -3.88012E+03  5.57493E+03 -2.91296E+03  7.68226E+03 -1.02382E+03
  1.13067E+04  2.47310E+03  5.97784E+03  9.38211E+03 -2.14525E+03  1.11075E+04 -1.08295E+04  9.00632E+03
 -1.46372E+04 -1.34166E+03 -9.10373E+03 -1.00094E+04 -1.05427E+03 -1.44831E+04  8.56571E+03 -1.52231E+04
  1.58868E+04 -8.42841E+03  1.82626E+04  2.51345E+03  1.31549E+04  1.39321E+04  2.37007E+03  1.69608E+04
 -7.13456E+03  1.35229E+04 -1.07342E+04  4.32959E+03 -6.99780E+03 -1.58451E+03 -2.91708E+03 -1.89030E+03
 -9.75015E+02 -2.92262E+01 -2.13564E+03  3.38302E+03 -5.64586E+03  1.98358E+03 -9.94517E+03 -1.67700E+03
 -7.39292E+03 -1.00568E+04  3.08963E+02 -1.44693E+04  8.62016E+03 -1.30252E+04  1.37187E+04 -3.34379E+03
  1.42188E+04  7.87155E+03  6.77314E+03  1.30500E+04 -2.96487E+03  1.41498E+04 -1.08613E+04  8.57879E+03
 -1.35589E+04  2.70081E+02 -1.10445E+04 -8.58823E+03 -1.11021E+03 -1.18633E+04  5.80212E+03 -8.89279E+03
  8.52893E+03 -3.13329E+03  6.28949E+03  2.81053E+03  1.96219E+03  4.30716E+03  1.30262E+03  1.48776E+03
  2.62902E+03  1.08943E+03  3.74474E+03  1.63298E+03  3.99308E+03  4.94941E+03  4.03675E+03  7.61096E+03
 -2.75291E+03  1.12375E+04 -1.02361E+04  1.18070E+04 -1.50925E+04  3.24110E+03 -1.52915E+04 -6.19075E+03
 -6.95359E+03 -1.43740E+04  2.44570E+03 -1.63610E+04  7.94240E+03 -1.09737E+04  1.19925E+04 -2.23748E+03
  9.45789E+03  5.29983E+03  2.10050E+03  9.03540E+03 -3.79906E+03  5.54622E+03 -5.48038E+03 -4.71881E+02
 -2.48390E+03 -5.93035E+03  2.95709E+03 -6.68721E+03  6.00764E+03 -4.02768E+03  5.24281E+03  1.86121E+03
  3.54035E+03  3.80054E+03  1.20463E+03  2.21567E+03 -3.20519E+02  1.44864E+03  1.73110E+03 -9.19302E+02
  2.33353E+03 -1.07120E+03  5.32876E+03  1.99285E+03  3.49849E+03  7.27952E+03 -1.26171E+03  1.05351E+04
 -7.04412E+03  6.60622E+03 -9.46905E+03  1.99051E+03 -8.11364E+03 -2.22705E+03 -3.57040E+03 -5.91475E+03
  1.48640E+03 -5.01647E+03  3.80319E+03 -2.81036E+03  2.99952E+03  2.92625E+03 -9.34061E+02  5.05219E+03
 -5.75506E+03  2.40665E+03 -6.72194E+03 -3.60927E+03 -4.46097E+03 -8.26088E+03  1.46211E+03 -8.40444E+03
  4.49948E+03 -4.23231E+03  5.11533E+03 -1.30027E+02  4.98029E+03  1.20866E+03 -6.19063E+01  5.24320E+03
 -2.33592E+03  1.96087E+02 -3.34320E+03 -3.33812E+03  9.98356E+02 -6.26143E+03  7.05476E+03 -4.72610E+03
  8.84081E+03  3.06893E+02  8.92365E+03  5.98694E+03  2.64813E+03  1.00328E+04 -3.23845E+03  9.26103E+03
 -7.76633E+03  4.31030E+03 -8.40525E+03 -4.06814E+02 -4.85814E+03 -6.36209E+03  1.19083E+03 -5.79231E+03
  5.65657E+03 -3.15808E+03  5.29488E+03  2.84074E+03  1.15745E+03  5.41974E+03 -9.28506E+02  4.72409E+03
 -1.78654E+03  2.82967E+03 -3.09349E+03 -3.67592E+02 -1.32380E+03  6.60718E+02 -1.48113E+03  2.27684E+03
 -2.52927E+03  3.83569E+03 -7.45696E+03  3.36621E+03 -9.39855E+03  3.81967E+00 -1.11608E+04 -7.11749E+03
 -4.82423E+03 -1.33302E+04  3.08630E+03 -1.52739E+04  8.89682E+03 -1.21184E+04  1.34657E+04 -4.23218E+03
  1.36298E+04  2.32684E+03  8.14713E+03  9.11854E+03  4.56760E+02  1.05112E+04 -4.30017E+03  7.83155E+03
 -5.44769E+03  2.07855E+03 -3.75968E+03 -1.38589E+03 -1.55075E+03 -1.54294E+03 -9.31195E+02  3.23281E+02
 -1.54334E+03  7.78068E+01 -2.10023E+03 -1.69002E+02 -8.09943E+02 -2.52467E+03  3.65404E+01 -4.20276E+03
  4.88186E+03 -3.02859E+03  6.30389E+03  7.47564E+01  6.39259E+03  5.49905E+03  1.44520E+03  1.07707E+04
 -4.58108E+03  1.15838E+04 -1.02954E+04  6.60019E+03 -1.20278E+04 -1.31723E+03 -9.62708E+03 -6.91070E+03
 -4.15001E+03 -1.09366E+04  3.26466E+03 -9.32705E+03  6.27228E+03 -4.95984E+03  6.44616E+03  7.52778E+02
  4.08730E+03  2.89834E+03 -8.55017E+02  2.86995E+03 -1.85896E+03 -3.24977E+02 -2.88077E+02 -1.86687E+03
  3.02324E+03 -1.49053E+03  3.88549E+03  1.65898E+03  2.66366E+03  3.33693E+03  1.39185E+02  4.95374E+03
 -4.31750E+03  4.30240E+03 -5.93252E+03  7.18728E+01 -5.67379E+03 -5.05700E+03 -1.19809E+03 -8.00474E+03
  4.74652E+03 -6.33312E+03  6.87391E+03 -2.44229E+03  7.66278E+03  2.27609E+03  4.28706E+03  6.79092E+03
  3.51025E+02  6.36826E+03 -3.02386E+03  5.33931E+03 -4.03236E+03  3.43988E+03 -3.05362E+03  1.21567E+03
 -1.88023E+03 -4.83622E+02 -2.62115E+03  6.53967E+02 -3.40536E+03  6.19028E+02 -5.36298E+03 -9.64084E+02
 -4.96935E+03 -3.84787E+03 -1.72294E+03 -6.94042E+03  3.32673E+03 -7.74594E+03  6.08576E+03 -2.83685E+03
  7.02394E+03  1.01937E+03  3.60090E+03  5.11579E+03 -1.66641E+02  6.49074E+03 -5.56875E+03  4.40794E+03
