 $NMID ID='MM_0lb_SNR400_14hz_g50_5.RAW', FMTDAT='(8E13.5)'
 TRAMP=1., VOLUME=1. $END
  3.09265E+05  5.91947E+02  3.37515E+05  2.50814E+05  8.49642E+04  3.38004E+05 -1.33068E+05  2.51047E+05
 -1.90372E+05  8.27820E+04 -1.12034E+05 -3.27849E+04  8.38178E+02 -5.05044E+04  5.37421E+04 -2.38762E+01
  3.53314E+04  5.28092E+04 -1.67666E+04  7.57363E+04 -6.06795E+04  6.39896E+04 -8.42750E+04  3.15255E+04
 -8.07964E+04 -1.12290E+04 -5.77616E+04 -5.10211E+04 -1.57456E+04 -6.94933E+04  2.74777E+04 -4.63309E+04
  3.95235E+04  3.80032E+03  1.61647E+04  4.71892E+04 -3.46501E+04  4.70468E+04 -6.72027E+04 -1.42818E+03
 -5.39941E+04 -5.70946E+04 -6.54238E+03 -7.67262E+04  3.36178E+04 -5.46539E+04  4.78677E+04 -1.78030E+04
  4.31974E+04  1.09144E+04  3.21888E+04  2.52763E+04  1.56216E+04  2.93673E+04 -5.01191E+03  2.71134E+04
 -2.21277E+04  1.28676E+04 -1.85641E+04 -5.36814E+03  5.60877E+03 -7.39478E+03  2.25225E+04  1.26909E+04
  6.97947E+03  3.49998E+04 -3.26830E+04  3.52354E+04 -6.35999E+04  2.08878E+03 -5.68613E+04 -4.27998E+04
 -1.21659E+04 -6.31284E+04  4.00727E+04 -4.56360E+04  5.86673E+04 -2.25963E+03  3.47701E+04  3.24985E+04
 -6.58065E+03  3.59385E+04 -2.96973E+04  1.63128E+04 -3.00564E+04 -4.67041E+03 -1.65317E+04 -1.12551E+04
 -7.77148E+03 -1.35140E+04 -3.42825E+02 -1.81476E+04  7.55505E+03 -2.32116E+04  1.50697E+04 -1.31219E+04
  1.15429E+04  5.03797E+03 -7.85890E+03  1.27935E+04 -2.18791E+04 -4.80421E+03 -7.85051E+03 -3.41516E+04
  2.28865E+04 -4.34365E+04  4.83352E+04 -1.93313E+04  4.52855E+04  1.99517E+04  1.54270E+04  4.40251E+04
 -1.61052E+04  3.41854E+04 -2.55410E+04  1.82089E+03 -1.03481E+04 -2.88495E+04  2.09400E+04 -3.42174E+04
  4.12201E+04 -9.09459E+03  3.58712E+04  2.34015E+04  1.79591E+04  4.67051E+04 -7.96990E+03  5.05762E+04
 -3.17572E+04  3.39579E+04 -4.15305E+04  9.46233E+03 -4.27305E+04 -1.67967E+04 -2.36756E+04 -3.78761E+04
  7.04131E+03 -3.78276E+04  3.16486E+04 -1.45969E+04  2.95857E+04  1.07536E+04  3.67439E+03  1.96299E+04
 -1.29200E+04  8.72723E+03 -1.08756E+04 -7.59561E+03  6.08601E+03 -1.06923E+04  1.80531E+04  6.67562E+03
  1.33309E+04  2.25122E+04 -5.54870E+03  2.52750E+04 -2.23050E+04  1.16616E+04 -2.77665E+04 -4.47884E+03
 -2.11891E+04 -1.67280E+04 -7.93582E+03 -2.11161E+04  4.26441E+03 -1.97235E+04  1.63762E+04 -1.82546E+04
  2.57337E+04 -1.28022E+04  3.26149E+04  3.41901E+03  2.37878E+04  2.02433E+04  4.77950E+03  3.69313E+04
 -1.74903E+04  3.06553E+04 -2.81782E+04  1.04988E+04 -2.03715E+04 -1.03008E+04 -3.96797E+03 -1.32768E+04
  1.75379E+03 -2.56723E+03 -5.30371E+03  6.59709E+03 -1.61618E+04  5.21640E+03 -1.65244E+04 -7.15000E+03
 -9.83618E+03 -1.85703E+04  5.22576E+03 -2.24181E+04  1.50763E+04 -1.67772E+04  1.80235E+04 -2.05902E+03
  1.14501E+04  1.40113E+04 -9.69183E+02  1.89529E+04 -1.31453E+04  1.13457E+04 -1.90429E+04 -4.08218E+03
 -1.44125E+04 -1.72610E+04 -1.22620E+03 -2.28320E+04  1.02121E+04 -1.89045E+04  1.91833E+04 -9.71420E+03
  1.76269E+04  4.12456E+02  1.26917E+04  4.46819E+03  6.54114E+03  1.42580E+03  9.81383E+03 -1.41837E+03
  1.77063E+04  2.48242E+03  1.96941E+04  1.60204E+04  1.29938E+04  3.06575E+04 -3.31521E+03  3.39882E+04
 -1.94173E+04  2.78114E+04 -3.21927E+04  1.34740E+04 -3.34112E+04 -2.93931E+03 -2.76627E+04 -1.91209E+04
 -1.16236E+04 -2.77520E+04  9.98963E+03 -2.49983E+04  2.20837E+04 -1.26032E+04  1.90750E+04  5.38923E+03
  7.25017E+03  1.41009E+04 -9.20194E+03  1.28471E+04 -1.62859E+04  2.83739E+03 -1.24744E+04 -1.03540E+04
  2.49260E+02 -1.54908E+04  7.58148E+03 -1.17615E+04  1.00641E+04 -1.79263E+03  2.06185E+03  6.13259E+03
 -6.62161E+03  2.67536E+03 -5.95633E+03 -5.36900E+03 -1.03652E+03 -1.37444E+04  9.73490E+03 -1.41527E+04
  1.66370E+04 -7.02391E+03  1.78537E+04  3.13242E+03  1.60127E+04  1.33993E+04  7.31048E+03  2.02435E+04
 -3.01364E+03  2.26257E+04 -1.42598E+04  1.36583E+04 -1.57181E+04  4.24271E+03 -1.10692E+04 -3.70155E+03
 -5.61023E+03 -5.20283E+03 -8.13657E+02  7.68018E+02 -2.35938E+03  1.57246E+03 -5.19481E+03  4.73489E+03
 -1.01178E+04 -4.32113E+02 -1.09196E+04 -9.76879E+03 -4.67310E+03 -1.47403E+04  5.07108E+03 -1.15612E+04
  9.69674E+03 -5.33347E+03  7.02529E+03  2.87949E+03  2.43070E+02  4.32650E+03 -5.66047E+03  3.57747E+02
 -4.64072E+03 -7.44493E+03 -6.69575E+02 -1.09646E+04  5.91521E+03 -1.18332E+04  1.46054E+04 -5.76147E+03
  1.69660E+04  1.67591E+03  1.23826E+04  9.30534E+03  2.56302E+03  1.29379E+04 -7.15512E+03  1.17063E+04
 -9.44175E+03  3.51883E+03 -4.36519E+03 -2.03416E+03  1.70131E+03 -2.92276E+03  6.11851E+03 -7.96290E+02
  5.45429E+03  4.96582E+03  1.11865E+03  8.82234E+03 -6.12128E+03  8.46155E+03 -1.04314E+04  2.05283E+03
 -7.23608E+03 -5.52285E+03  7.69906E+02 -9.96159E+03  5.43910E+03 -4.84298E+03  6.08503E+03  2.30674E+03
  1.61375E+03  5.58470E+03 -5.43181E+03  7.64492E+03 -8.09196E+03  2.99594E+03 -8.50648E+03 -2.87415E+03
 -4.70963E+03 -1.00398E+04  2.31410E+03 -1.15943E+04  9.80891E+03 -7.42651E+03  1.06974E+04  1.56416E+03
  7.50453E+03  8.88691E+03 -2.61023E+02  1.06929E+04 -7.42098E+03  6.32124E+03 -7.96245E+03 -8.68218E+02
 -7.85040E+03 -7.14521E+03 -1.18662E+03 -7.99078E+03  3.96387E+03 -6.98493E+03  4.98876E+03 -2.98350E+03
  3.62488E+03  6.77022E+02 -7.51032E+01  1.18853E+03 -1.26160E+02 -1.76784E+03  1.74512E+03 -4.07469E+03
  6.58465E+03 -2.13700E+03  9.46184E+03  1.33893E+03  9.92472E+03  6.69890E+03  6.74800E+03  1.26491E+04
 -2.35030E+03  1.50783E+04 -1.26895E+04  1.14144E+04 -1.52773E+04  2.40816E+03 -1.23640E+04 -5.12389E+03
 -6.76460E+03 -1.04963E+04  2.06544E+02 -9.53205E+03  3.52946E+03 -3.45470E+03  2.76922E+03 -3.25118E+03
  2.06009E+03 -2.53526E+03  2.77763E+03 -3.05452E+03  4.62063E+03 -2.26176E+03  5.26840E+03 -2.54815E+02
  6.66639E+03  1.90287E+03  2.96537E+03  5.35947E+03 -1.92625E+03  6.23933E+03 -7.63037E+03  4.99817E+03
 -8.46892E+03 -1.89390E+03 -4.51855E+03 -5.22860E+03 -8.58934E+02 -8.86342E+03  5.00578E+03 -9.25262E+03
  9.23687E+03 -4.95916E+03  1.16545E+04  9.87559E+02  8.54530E+03  7.82418E+03  1.04012E+03  1.03708E+04
 -3.70389E+03  8.89601E+03 -5.77167E+03  2.98331E+03 -3.04861E+03 -1.02257E+03 -1.05881E+03 -1.25002E+03
 -9.65052E+02  2.13971E+01 -1.47090E+03  2.03014E+03 -3.49774E+03  1.55957E+03 -6.10570E+03 -8.43861E+02
 -3.07443E+03 -6.43784E+03  2.67514E+02 -8.42028E+03  5.49550E+03 -7.40007E+03  7.73151E+03 -2.59780E+03
  7.57912E+03  3.55277E+03  3.92309E+03  6.40982E+03 -2.09366E+03  8.64419E+03 -5.73691E+03  4.45649E+03
 -7.13479E+03  6.76716E+02 -5.94213E+03 -4.47115E+03 -7.12771E+02 -6.78692E+03  3.14364E+03 -5.00710E+03
  5.00231E+03 -1.55689E+03  3.52502E+03  7.02618E+02  1.51894E+03  2.26386E+03  1.02214E+03  1.11578E+03
  2.03456E+03  1.48904E+02  2.09394E+03  1.82775E+03  2.28251E+03  3.32323E+03  2.39177E+03  4.15305E+03
 -2.23627E+03  5.35740E+03 -5.26149E+03  6.59090E+03 -6.79726E+03  1.87801E+03 -8.16097E+03 -2.30838E+03
 -3.43187E+03 -7.34597E+03  1.44589E+03 -8.66020E+03  4.08814E+03 -5.46915E+03  6.10326E+03 -1.51637E+03
  4.98810E+03  2.98008E+03  7.90863E+02  3.57688E+03 -1.49992E+03  2.97062E+03 -3.13277E+03 -9.93363E+02
 -1.45222E+03 -3.48648E+03  1.74982E+03 -3.01516E+03  3.20208E+03 -1.78789E+03  3.08516E+03  2.41569E+02
  1.57852E+03  1.33546E+03  8.48324E+02  4.21954E+02 -4.79264E+02  1.08635E+03  1.35954E+03  9.50553E+01
  1.77224E+02  2.33351E+01  3.73390E+03  1.27970E+03  8.15524E+02  4.57937E+03 -9.78861E+02  5.97743E+03
 -3.78552E+03  2.44420E+03 -4.10834E+03  1.10983E+03 -4.21073E+03 -1.76080E+03 -8.08571E+02 -2.47056E+03
  5.41588E+02 -2.70009E+03  2.31426E+03 -2.08626E+03  1.55352E+03  1.46004E+03 -7.58679E+02  1.78147E+03
 -3.09528E+03  1.15105E+03 -3.08332E+03 -1.97632E+03 -2.54303E+03 -4.26000E+03  6.20804E+02 -4.19398E+03
  1.60086E+03 -2.06065E+03  3.21745E+03  4.69152E+02  2.47154E+03  9.00291E+02  1.22204E+01  1.91985E+03
 -9.94179E+02  4.02786E+02 -2.27852E+03 -1.46267E+03  6.80825E+02 -2.36891E+03  3.37292E+03 -2.47832E+03
  4.17466E+03  7.30005E+01  4.96068E+03  2.37368E+03  1.52690E+03  4.27450E+03 -1.61409E+03  4.43572E+03
 -3.53466E+03  1.14518E+03 -3.95412E+03  3.99999E+02 -1.91756E+03 -2.55169E+03  1.03691E+03 -2.17300E+03
  2.45059E+03 -1.48505E+03  1.28472E+03  9.76232E+02  8.94400E+02  2.89800E+03 -1.95065E+01  2.43094E+03
 -7.92560E+02  1.82471E+03 -5.13895E+02  7.87476E+02  1.36358E+02  9.81167E+02 -1.01538E+03  6.04742E+02
 -1.09486E+03  1.90815E+03 -3.18257E+03  1.17184E+03 -3.91866E+03  2.63237E+02 -4.65768E+03 -3.03099E+03
 -2.87773E+03 -5.89183E+03  8.25885E+02 -6.66250E+03  3.28564E+03 -5.63505E+03  5.94380E+03 -1.78332E+03
  5.13897E+03  3.81854E+02  3.29081E+03  3.89109E+03 -2.60480E+02  4.41180E+03 -1.47216E+03  2.71586E+03
 -2.79529E+03  1.05018E+03 -1.18845E+03 -1.97123E+02 -2.95955E+02 -2.83955E+02 -1.42469E+03 -1.64838E+01
 -8.89227E+02  6.25915E+01 -1.11108E+03  5.02829E+02 -4.64114E+02 -1.38338E+03 -1.92980E+02 -1.21877E+03
  2.76845E+03 -1.92826E+03  2.04928E+03  2.24332E+01  2.76825E+03  2.12438E+03  1.34317E+02  4.22550E+03
 -2.01090E+03  5.28215E+03 -4.14222E+03  2.47972E+03 -5.33450E+03 -4.80493E+02 -3.70094E+03 -2.86961E+03
 -1.43110E+03 -4.61316E+03  9.04163E+02 -3.93634E+03  2.29311E+03 -1.67450E+03  1.84732E+03  5.25926E+02
  1.43972E+03  1.55625E+03  1.96097E+02  1.20501E+03 -5.23701E+02 -3.76726E+02  4.36335E+02 -9.12938E+02
  1.46437E+03 -4.04895E+02  1.43017E+03  1.08598E+03  1.08754E+03  1.65985E+03  3.72397E+02  1.50884E+03
 -1.96392E+03  1.87286E+03 -2.60229E+03  2.28644E+02 -2.07611E+03 -1.36449E+03 -4.59482E+01 -3.00231E+03
  1.73956E+03 -2.41789E+03  2.84607E+03 -7.73053E+02  2.91456E+03 -3.87926E+01  1.25579E+03  1.85813E+03
  3.21662E+02  1.82196E+03 -9.26002E+02  1.89453E+03 -1.85566E+03  1.11652E+03 -1.49584E+03  4.07496E+02
 -4.32103E+02 -1.28021E+02 -6.10774E+02 -1.01792E+02 -8.01523E+02  3.47090E+02 -1.55635E+03 -8.45685E+02
 -1.48096E+03 -9.36857E+02 -6.50628E+02 -2.13685E+03  1.33823E+03 -3.00222E+03  2.33421E+03 -8.36689E+02
  2.38868E+03  3.42734E+01  1.24467E+02  1.52246E+03 -3.35055E+02  2.66994E+03 -9.86373E+02  1.23049E+03
