 $NMID ID='MM_0lb_SNR400_16hz_g60_6.RAW', FMTDAT='(8E13.5)'
 TRAMP=1., VOLUME=1. $END
  3.10258E+05  1.34130E+03  3.38067E+05  2.50259E+05  8.51153E+04  3.38479E+05 -1.32990E+05  2.51196E+05
 -1.90140E+05  8.26586E+04 -1.12235E+05 -3.27952E+04  8.46095E+02 -5.07882E+04  5.37461E+04 -5.68928E+01
  3.52914E+04  5.31442E+04 -1.69144E+04  7.55705E+04 -6.04590E+04  6.39882E+04 -8.45435E+04  3.22137E+04
 -8.12316E+04 -1.13633E+04 -5.73389E+04 -5.09863E+04 -1.52898E+04 -6.96938E+04  2.73051E+04 -4.58765E+04
  4.05664E+04  4.00896E+03  1.59583E+04  4.80171E+04 -3.41583E+04  4.73591E+04 -6.62961E+04 -3.31514E+02
 -5.32542E+04 -5.66377E+04 -6.96974E+03 -7.69519E+04  3.47372E+04 -5.48292E+04  4.77261E+04 -1.69148E+04
  4.35479E+04  1.11451E+04  3.24406E+04  2.54502E+04  1.63653E+04  2.91453E+04 -5.39098E+03  2.64469E+04
 -2.22416E+04  1.24755E+04 -1.84119E+04 -5.03340E+03  5.79140E+03 -7.61485E+03  2.21936E+04  1.28378E+04
  7.59243E+03  3.51882E+04 -3.27433E+04  3.60428E+04 -6.33275E+04  1.81898E+03 -5.74808E+04 -4.25181E+04
 -1.25093E+04 -6.37158E+04  4.00799E+04 -4.50270E+04  5.84160E+04 -2.08337E+03  3.34974E+04  3.20188E+04
 -5.89420E+03  3.69749E+04 -2.99390E+04  1.60028E+04 -3.04912E+04 -4.84256E+03 -1.68389E+04 -1.02107E+04
 -8.52319E+03 -1.32962E+04 -7.28081E+02 -1.81660E+04  7.63759E+03 -2.35648E+04  1.54916E+04 -1.30623E+04
  1.18018E+04  5.68781E+03 -8.28194E+03  1.30847E+04 -2.12691E+04 -4.17375E+03 -8.68773E+03 -3.32773E+04
  2.30543E+04 -4.33249E+04  4.77795E+04 -1.94739E+04  4.47132E+04  1.99040E+04  1.56464E+04  4.47634E+04
 -1.62606E+04  3.34273E+04 -2.53615E+04  2.16982E+03 -9.78690E+03 -2.80444E+04  2.10024E+04 -3.39402E+04
  4.08073E+04 -8.79926E+03  3.53707E+04  2.33405E+04  1.84741E+04  4.68464E+04 -8.48269E+03  5.01242E+04
 -3.10660E+04  3.36425E+04 -4.14429E+04  9.55212E+03 -4.21377E+04 -1.68556E+04 -2.36270E+04 -3.83518E+04
  7.68297E+03 -3.71005E+04  3.11608E+04 -1.53589E+04  2.89917E+04  1.05572E+04  4.50505E+03  1.94440E+04
 -1.35659E+04  8.48183E+03 -1.03328E+04 -8.00893E+03  6.03158E+03 -1.12196E+04  1.69531E+04  5.99702E+03
  1.29883E+04  2.20033E+04 -5.54452E+03  2.51317E+04 -2.28937E+04  1.18380E+04 -2.78593E+04 -4.72656E+03
 -2.03744E+04 -1.70696E+04 -8.27131E+03 -2.00110E+04  4.47249E+03 -1.92068E+04  1.57860E+04 -1.79145E+04
  2.55709E+04 -1.23296E+04  3.14613E+04  2.80802E+03  2.41797E+04  1.99762E+04  3.73372E+03  3.57692E+04
 -1.77893E+04  3.04056E+04 -2.74868E+04  1.08470E+04 -2.03087E+04 -1.05611E+04 -4.57424E+03 -1.33534E+04
  1.51792E+03 -3.26160E+03 -4.01226E+03  6.49144E+03 -1.58903E+04  5.44850E+03 -1.59168E+04 -6.97730E+03
 -9.90619E+03 -1.89836E+04  4.78745E+03 -2.29171E+04  1.52383E+04 -1.66058E+04  1.75382E+04 -1.81189E+03
  1.14858E+04  1.27895E+04 -1.06967E+03  1.84200E+04 -1.23871E+04  1.09725E+04 -1.89454E+04 -3.84766E+03
 -1.39434E+04 -1.64817E+04 -1.94039E+03 -2.33432E+04  9.88129E+03 -1.86568E+04  1.90388E+04 -9.27676E+03
  1.69213E+04  2.19430E+02  1.22269E+04  4.22711E+03  6.97308E+03  4.07432E+02  9.41050E+03 -1.22594E+03
  1.70529E+04  2.79542E+03  1.88566E+04  1.56442E+04  1.18172E+04  2.92478E+04 -2.44829E+03  3.33208E+04
 -1.96447E+04  2.66018E+04 -3.14080E+04  1.35238E+04 -3.22373E+04 -2.12240E+03 -2.68595E+04 -1.86866E+04
 -1.10497E+04 -2.63404E+04  8.86953E+03 -2.42137E+04  2.06800E+04 -1.24903E+04  1.90926E+04  5.39393E+03
  6.98433E+03  1.43111E+04 -9.12873E+03  1.26548E+04 -1.58871E+04  2.94311E+03 -1.24231E+04 -1.02416E+04
 -1.50394E+02 -1.47775E+04  7.82497E+03 -1.18454E+04  9.92575E+03 -7.24600E+02  1.88695E+03  6.51908E+03
 -6.71385E+03  2.24975E+03 -5.17740E+03 -4.94955E+03  6.07809E+01 -1.37998E+04  9.15346E+03 -1.30080E+04
  1.58473E+04 -6.91373E+03  1.70398E+04  2.66503E+03  1.48450E+04  1.28994E+04  8.12964E+03  1.95143E+04
 -2.28732E+03  2.13453E+04 -1.31025E+04  1.31624E+04 -1.41003E+04  2.68336E+03 -1.06554E+04 -2.56360E+03
 -5.34947E+03 -5.08399E+03 -1.43514E+03  1.09706E+03 -2.87310E+03  2.33745E+03 -4.69455E+03  4.57980E+03
 -1.00618E+04 -6.58639E+02 -1.08125E+04 -8.52391E+03 -3.96228E+03 -1.35485E+04  4.71284E+03 -1.04385E+04
  8.90577E+03 -4.86206E+03  6.46161E+03  3.44160E+03  1.86393E+02  4.23366E+03 -4.92114E+03 -3.44419E+02
 -5.06433E+03 -7.29445E+03 -4.64830E+02 -9.93698E+03  5.73380E+03 -1.08565E+04  1.26790E+04 -5.31547E+03
  1.52809E+04  1.51465E+03  1.12961E+04  8.18698E+03  2.19133E+03  1.14897E+04 -6.75530E+03  1.00788E+04
 -8.57374E+03  3.37490E+03 -4.90526E+03 -2.01335E+03  2.09850E+03 -2.86716E+03  6.03595E+03 -1.10270E+03
  5.07851E+03  4.07317E+03  1.03751E+03  8.38901E+03 -6.31594E+03  7.91723E+03 -1.02322E+04  1.39524E+03
 -6.49536E+03 -5.38586E+03  3.79718E+02 -8.55625E+03  4.76390E+03 -4.41042E+03  5.74178E+03  1.48860E+03
  4.18176E+02  6.10691E+03 -5.59528E+03  7.14297E+03 -7.38213E+03  3.21611E+03 -7.51431E+03 -2.43635E+03
 -3.81472E+03 -8.20064E+03  2.17290E+03 -9.62221E+03  9.06549E+03 -6.04849E+03  8.71693E+03  1.15654E+03
  5.64756E+03  7.27985E+03 -2.02884E+02  9.91409E+03 -6.67577E+03  5.35218E+03 -6.92694E+03 -5.63331E+02
 -7.51527E+03 -7.57866E+03 -7.70917E+02 -7.02320E+03  3.63029E+03 -5.67595E+03  4.65585E+03 -3.11554E+03
  3.68251E+03  7.14997E+02 -3.69826E+02  1.29523E+03  1.06713E+02 -1.31734E+03  5.47964E+02 -3.11110E+03
  5.67136E+03 -1.85396E+03  8.61393E+03  9.12087E+02  8.09222E+03  5.42324E+03  6.19550E+03  1.07078E+04
 -1.72206E+03  1.29557E+04 -1.07235E+04  9.10234E+03 -1.42798E+04  2.30218E+03 -1.17057E+04 -3.85768E+03
 -5.49731E+03 -9.62444E+03 -3.75191E+02 -7.60969E+03  3.28504E+03 -3.91786E+03  2.59495E+03 -3.03119E+03
  2.38926E+03 -2.11726E+03  2.90792E+03 -3.34428E+03  3.79666E+03 -1.86842E+03  4.59667E+03  2.91476E+02
  6.24358E+03  1.90143E+03  2.35784E+03  4.57784E+03 -1.48658E+03  4.41484E+03 -6.37731E+03  3.57827E+03
 -6.95077E+03 -3.69230E+02 -3.92140E+03 -4.31560E+03  5.50725E+02 -6.67699E+03  4.48806E+03 -8.13060E+03
  7.70342E+03 -4.41158E+03  9.52908E+03  5.74305E+02  6.87005E+03  6.83800E+03  1.28254E+03  8.96826E+03
 -3.17154E+03  8.50003E+03 -4.69388E+03  2.40155E+03 -2.71045E+03 -1.46963E+03 -1.23042E+03 -9.88143E+02
 -2.91934E+02  1.58556E+02 -1.19400E+03  1.84713E+03 -3.70147E+03  1.14461E+03 -5.69795E+03 -6.89704E+02
 -3.14721E+03 -4.72480E+03  8.31036E+02 -6.57494E+03  4.20221E+03 -6.96156E+03  6.45456E+03 -1.75461E+03
  7.16578E+03  3.24167E+03  2.83215E+03  5.84098E+03 -1.08279E+03  6.34277E+03 -4.10120E+03  4.23475E+03
 -5.37002E+03  7.31142E+02 -5.15934E+03 -3.59609E+03  1.20236E+02 -5.39260E+03  2.90117E+03 -4.36647E+03
  3.78367E+03 -2.17642E+03  2.29464E+03  8.52727E+02  7.63798E+02  2.02354E+03  9.71870E+02  1.29136E+03
  1.61423E+03  9.56324E+02  1.48391E+03  1.59726E+03  1.78747E+03  2.98979E+03  2.10423E+03  2.89128E+03
 -2.37311E+03  4.43193E+03 -3.76187E+03  4.86546E+03 -5.75419E+03  1.95000E+03 -6.52915E+03 -1.78368E+03
 -2.53131E+03 -5.66549E+03  1.33652E+03 -6.63908E+03  3.62782E+03 -4.09851E+03  4.84872E+03 -6.16695E+02
  3.81256E+03  2.41049E+03  6.36413E+02  2.90445E+03 -1.42519E+03  2.16229E+03 -1.14574E+03  1.65661E+02
 -1.52672E+03 -2.35150E+03  1.39096E+03 -2.59717E+03  1.54920E+03 -1.49819E+03  2.50700E+03  1.07101E+03
  1.44042E+03  6.22397E+02  5.51861E+02  8.38948E+02 -2.16447E+02  1.46039E+03  1.45608E+03 -4.95594E+02
  4.00915E+02 -4.31211E+02  2.46990E+03  1.13597E+03  7.48364E+02  2.66010E+03 -3.47976E+01  4.34305E+03
 -2.61454E+03  2.09685E+03 -3.67259E+03  3.95566E+02 -2.76291E+03 -1.09427E+03 -6.02224E+02 -2.19175E+03
  4.96464E+02 -1.69727E+03  1.41998E+03 -7.94111E+02  1.43135E+03  1.26018E+03 -8.92210E+02  1.81481E+03
 -2.11577E+03  1.59009E+03 -2.06398E+03 -1.71715E+03 -1.05075E+03 -2.90310E+03  5.84986E+01 -2.34184E+03
  1.09419E+03 -7.40845E+02  1.12197E+03  2.23431E+02  2.00180E+03 -2.46225E+02  6.65435E+02  1.70970E+03
 -2.27692E+02  4.91449E+02 -8.94464E+02 -1.20465E+03  6.34109E+02 -2.16825E+03  3.12861E+03 -1.47376E+03
  2.57723E+03  3.49128E+02  4.07741E+03  1.53469E+03  9.82112E+02  2.38754E+03 -8.64547E+02  3.17464E+03
 -2.52750E+03  6.28352E+02 -2.39195E+03 -6.54364E+02 -9.08723E+02 -2.06474E+03  1.26312E+03 -9.83336E+02
  1.84990E+03 -7.48767E+02  1.87290E+03  1.37366E+03  6.76382E+02  2.55622E+03  5.32622E+00  1.52349E+03
 -1.18486E+03  1.39211E+03 -4.64358E+02  2.25331E+02 -2.12758E+02  6.10842E+02 -1.36369E+03  6.83537E+02
 -7.13407E+02  1.15656E+03 -1.66625E+03  1.12511E+02 -2.77564E+03  5.45144E+02 -3.81764E+03 -1.71582E+03
 -2.13487E+03 -4.12895E+03  8.52554E+02 -4.00562E+03  2.45653E+03 -3.69416E+03  4.84161E+03 -1.68999E+03
  3.83914E+03  5.35608E+02  1.89469E+03  2.57828E+03 -5.55688E+02  2.19224E+03 -1.03441E+03  2.21851E+03
 -1.10256E+03  1.36819E+03 -1.31172E+03 -9.25323E+02 -1.28092E+02  2.31369E+02 -4.69552E+02 -3.86899E+02
 -3.64574E+02 -1.27623E+02 -8.97268E+02  1.16035E+02 -1.08047E+02 -1.05917E+03 -6.64970E+02 -7.72393E+02
  1.64494E+03 -7.75609E+02  1.51437E+03 -2.01814E+02  1.79903E+03  1.73044E+03  1.44858E+02  2.67854E+03
 -1.23784E+03  2.80163E+03 -2.63119E+03  1.66123E+03 -3.61139E+03 -4.62857E+02 -2.64846E+03 -2.35592E+03
 -1.65399E+03 -2.17831E+03  7.49134E+02 -1.89363E+03  1.77183E+03 -1.48174E+03  1.00498E+03  4.37878E+02
  6.41742E+02  9.86695E+02  1.79273E+02  3.45712E+02 -8.96487E+02 -2.19127E+02 -2.25094E+02 -6.84156E+02
  1.08644E+03  1.41115E+02  3.45906E+02  9.73884E+02  4.98066E+02  6.25923E+02  1.24733E+02  6.91857E+02
 -1.18405E+03  1.28896E+03 -1.42219E+03  2.86648E+02 -1.39410E+03 -1.67250E+03  1.59004E+02 -2.21602E+03
  1.04802E+03 -1.05468E+03  1.07532E+03 -4.13160E+02  1.32611E+03 -8.43112E+02  8.81922E+02  1.09474E+03
  3.81999E+02  1.03288E+03 -2.65723E+02  7.91147E+02 -1.06301E+03  1.24081E+03 -6.40488E+02 -5.44945E+01
  8.84360E+01 -3.75198E+02 -3.07846E+02  6.15412E+02 -1.25939E+03  8.06814E+02 -9.32749E+02 -3.85310E+02
 -1.11383E+03  5.15373E+01 -2.56267E+02 -1.56742E+03  9.37748E+02 -2.60358E+03  1.53927E+03 -4.08690E+02
  1.20079E+03  6.95212E+02 -4.37441E+02  1.14609E+03 -3.14538E+02  8.64456E+02 -1.40345E+03  1.16164E+03
