 $NMID ID='MM_0lb_SNR400_18hz_g60_44.RAW', FMTDAT='(8E13.5)'
 TRAMP=1., VOLUME=1. $END
  3.09681E+05  9.29744E+01  3.37054E+05  2.50354E+05  8.42997E+04  3.38077E+05 -1.32197E+05  2.50482E+05
 -1.89997E+05  8.34742E+04 -1.12022E+05 -3.22322E+04  8.82573E+02 -5.02274E+04  5.40515E+04  3.66309E+01
  3.56006E+04  5.32224E+04 -1.72080E+04  7.51418E+04 -6.14823E+04  6.34260E+04 -8.38270E+04  3.21705E+04
 -8.02872E+04 -1.12969E+04 -5.71620E+04 -5.08471E+04 -1.50752E+04 -6.92906E+04  2.74154E+04 -4.56027E+04
  3.97560E+04  4.15859E+03  1.59955E+04  4.80912E+04 -3.42650E+04  4.69999E+04 -6.67907E+04 -2.66229E+02
 -5.31210E+04 -5.64521E+04 -6.30054E+03 -7.70200E+04  3.40762E+04 -5.49237E+04  4.72732E+04 -1.67563E+04
  4.28605E+04  1.13341E+04  3.15544E+04  2.58733E+04  1.59288E+04  2.92167E+04 -4.79934E+03  2.66000E+04
 -2.18833E+04  1.24988E+04 -1.89399E+04 -5.03247E+03  5.81613E+03 -7.72606E+03  2.23529E+04  1.11936E+04
  7.58474E+03  3.42194E+04 -3.13408E+04  3.54912E+04 -6.22945E+04  2.19658E+03 -5.68064E+04 -4.19736E+04
 -1.23919E+04 -6.24212E+04  3.97136E+04 -4.44515E+04  5.75452E+04 -2.02129E+03  3.30019E+04  3.17632E+04
 -5.75791E+03  3.54013E+04 -2.96434E+04  1.51138E+04 -2.93137E+04 -4.81444E+03 -1.59686E+04 -1.07871E+04
 -8.17594E+03 -1.27209E+04 -1.21578E+03 -1.73666E+04  7.17635E+03 -2.29804E+04  1.48190E+04 -1.34755E+04
  1.12535E+04  4.81787E+03 -7.57183E+03  1.26006E+04 -2.13977E+04 -3.73550E+03 -8.01749E+03 -3.22635E+04
  2.23032E+04 -4.26792E+04  4.64281E+04 -1.93327E+04  4.34685E+04  1.97197E+04  1.49257E+04  4.31015E+04
 -1.55648E+04  3.27350E+04 -2.48810E+04  1.58639E+03 -9.08124E+03 -2.72459E+04  2.06735E+04 -3.30867E+04
  3.99031E+04 -7.78543E+03  3.33470E+04  2.33509E+04  1.74222E+04  4.50946E+04 -7.97098E+03  4.76819E+04
 -3.01876E+04  3.19773E+04 -3.98337E+04  9.18646E+03 -4.08047E+04 -1.55945E+04 -2.27442E+04 -3.68870E+04
  7.08816E+03 -3.66260E+04  3.07351E+04 -1.45727E+04  2.82678E+04  1.07627E+04  3.76209E+03  1.84390E+04
 -1.34225E+04  7.91996E+03 -9.51489E+03 -7.10976E+03  6.07029E+03 -1.06717E+04  1.81139E+04  6.41957E+03
  1.32589E+04  2.11475E+04 -6.43004E+03  2.44378E+04 -2.20851E+04  1.06230E+04 -2.66661E+04 -5.10022E+03
 -1.94952E+04 -1.69253E+04 -7.39969E+03 -1.88745E+04  3.68077E+03 -1.77291E+04  1.45692E+04 -1.63757E+04
  2.37854E+04 -1.19840E+04  2.99112E+04  2.18239E+03  2.27770E+04  1.86795E+04  4.34018E+03  3.39942E+04
 -1.69607E+04  2.85764E+04 -2.69442E+04  1.01096E+04 -2.04346E+04 -1.09582E+04 -3.98839E+03 -1.37985E+04
  2.05518E+03 -3.86532E+03 -3.66934E+03  6.15507E+03 -1.46051E+04  5.17847E+03 -1.53114E+04 -5.92763E+03
 -9.12391E+03 -1.72983E+04  4.51554E+03 -2.14347E+04  1.41212E+04 -1.51488E+04  1.59045E+04 -1.48674E+03
  1.01913E+04  1.22016E+04 -9.20940E+02  1.69556E+04 -1.17796E+04  9.74259E+03 -1.72692E+04 -4.09319E+03
 -1.23133E+04 -1.56142E+04 -1.73463E+03 -2.18095E+04  9.62340E+03 -1.64833E+04  1.73143E+04 -8.73353E+03
  1.59881E+04  6.56754E+02  1.13745E+04  4.29134E+03  6.30150E+03  7.71217E+02  8.33973E+03 -1.67815E+03
  1.53920E+04  2.63847E+03  1.69227E+04  1.34965E+04  1.10410E+04  2.75971E+04 -2.94757E+03  2.96516E+04
 -1.77227E+04  2.32651E+04 -2.79538E+04  1.16726E+04 -2.85987E+04 -1.40370E+03 -2.46618E+04 -1.64211E+04
 -1.09009E+04 -2.37993E+04  8.14632E+03 -2.17865E+04  1.81979E+04 -1.17498E+04  1.74782E+04  4.05766E+03
  7.05790E+03  1.27802E+04 -8.01381E+03  1.12887E+04 -1.42969E+04  2.30964E+03 -1.14610E+04 -8.69933E+03
 -3.48625E+02 -1.37854E+04  6.45303E+03 -1.07298E+04  9.17566E+03 -1.13689E+03  2.12753E+03  5.60181E+03
 -5.62879E+03  2.05882E+03 -4.84614E+03 -5.74192E+03  4.24933E+02 -1.08514E+04  8.81571E+03 -1.16268E+04
  1.44002E+04 -5.71345E+03  1.37170E+04  2.68155E+03  1.20785E+04  1.08228E+04  5.56889E+03  1.64629E+04
 -2.29591E+03  1.81355E+04 -1.12676E+04  1.16423E+04 -1.29287E+04  2.80972E+03 -9.48109E+03 -2.17591E+03
 -5.08070E+03 -3.94104E+03 -1.05170E+03  1.20591E+03 -2.51051E+03  2.33961E+03 -3.70504E+03  3.87764E+03
 -9.01703E+03 -1.25513E+03 -8.83095E+03 -7.89780E+03 -4.49435E+03 -1.26934E+04  4.07878E+03 -9.48434E+03
  7.68918E+03 -4.29877E+03  5.40543E+03  2.21332E+03  2.69361E+02  3.40595E+03 -4.10856E+03 -2.53818E+02
 -3.84959E+03 -5.83622E+03 -1.40872E+02 -8.09337E+03  4.67975E+03 -8.39843E+03  1.11697E+04 -4.40132E+03
  1.32154E+04  1.10808E+03  9.44845E+03  7.13757E+03  1.75197E+03  9.76128E+03 -5.90613E+03  8.66241E+03
 -7.55157E+03  2.97572E+03 -3.62854E+03 -1.57583E+03  1.36149E+03 -2.23104E+03  5.06403E+03 -6.23137E+02
  4.73081E+03  4.23686E+03  1.37801E+03  7.38185E+03 -4.89293E+03  6.89681E+03 -9.21130E+03  1.75748E+03
 -5.59661E+03 -4.18981E+03  2.58409E+02 -7.08735E+03  4.34441E+03 -4.07377E+03  3.68388E+03  1.06148E+03
  6.79320E+02  4.61096E+03 -4.21022E+03  5.45321E+03 -6.25833E+03  2.94633E+03 -5.78646E+03 -1.81612E+03
 -3.97414E+03 -7.38833E+03  2.02558E+03 -8.22088E+03  7.06120E+03 -5.42089E+03  7.60654E+03  1.27503E+03
  4.91010E+03  6.62992E+03 -1.94308E+02  7.95284E+03 -5.71717E+03  4.51695E+03 -5.77187E+03 -9.76733E+02
 -6.71877E+03 -5.78490E+03 -1.11989E+03 -6.33546E+03  2.96960E+03 -5.45684E+03  3.07618E+03 -2.71511E+03
  3.00335E+03  6.85905E+01 -9.65675E+01  1.30535E+03  5.81793E+02 -6.23562E+02  5.84138E+02 -2.40278E+03
  3.83086E+03 -1.25792E+03  6.45774E+03  9.27845E+02  6.36482E+03  4.07160E+03  5.51739E+03  8.51919E+03
 -1.88124E+03  9.78743E+03 -8.89446E+03  7.44190E+03 -1.08643E+04  1.21627E+03 -8.95772E+03 -3.09641E+03
 -4.71973E+03 -7.33204E+03 -3.76912E+02 -6.15618E+03  2.36568E+03 -2.89777E+03  2.37857E+03 -2.32336E+03
  1.23996E+03 -1.44556E+03  2.18312E+03 -1.99591E+03  3.68361E+03 -2.02539E+03  4.04623E+03 -1.07981E+02
  5.07368E+03  1.75611E+03  1.63438E+03  3.93207E+03 -1.68404E+03  3.03899E+03 -5.55671E+03  2.69804E+03
 -5.94502E+03 -1.20779E+03 -2.52530E+03 -3.85379E+03  1.03262E+03 -5.45271E+03  4.39493E+03 -6.06485E+03
  6.01171E+03 -3.82715E+03  7.61388E+03  6.93421E+01  5.66481E+03  5.10639E+03  1.00157E+03  5.86573E+03
 -2.35071E+03  6.50992E+03 -3.82637E+03  1.77150E+03 -2.06835E+03 -7.36641E+02 -5.13417E+02 -4.40767E+02
 -5.76486E+02  4.78984E+02 -1.39455E+03  2.10498E+03 -2.73856E+03  1.12935E+03 -4.95244E+03 -9.16356E+02
 -1.36309E+03 -4.89658E+03  5.73106E+02 -5.60169E+03  2.96961E+03 -4.70704E+03  4.55035E+03 -1.72834E+03
  4.64056E+03  1.80351E+03  1.71282E+03  4.29401E+03 -9.60623E+02  4.79912E+03 -3.08869E+03  2.59185E+03
 -4.21309E+03  9.22415E+02 -3.77460E+03 -2.87756E+03  2.98922E+02 -4.37225E+03  1.56524E+03 -2.77726E+03
  3.55618E+03 -1.35242E+03  2.21123E+03  1.71382E+02  2.28838E+02  1.58971E+03  6.03836E+02  5.58556E+02
  1.64212E+03  9.35353E+02  1.01307E+03  5.80106E+02  1.46875E+03  2.40662E+03  1.54905E+03  2.12242E+03
 -1.73043E+03  3.53173E+03 -2.73532E+03  4.08857E+03 -3.59511E+03  1.17761E+03 -5.02652E+03 -5.15967E+02
 -2.11040E+03 -4.12815E+03  8.25219E+02 -5.22013E+03  1.54824E+03 -2.69414E+03  3.41804E+03 -1.33625E+03
  2.77005E+03  2.08953E+03  7.01992E+02  2.93779E+03 -1.18835E+03  1.40906E+03 -1.53995E+03 -4.09797E+02
 -9.73049E+02 -1.69444E+03  1.74798E+03 -1.17482E+03  1.71053E+03 -1.01755E+03  1.74697E+03  1.71964E+02
  5.37019E+02  3.63432E+02  4.95899E+02  2.91899E+02 -1.54726E+01  9.44982E+02  1.60340E+03 -3.75563E+02
  3.70132E+02 -3.39491E+02  2.16498E+03  5.70491E+02  4.32997E+02  2.76581E+03 -1.24615E+03  3.11753E+03
 -1.68215E+03  7.21343E+02 -1.94081E+03  8.48352E+02 -1.93229E+03 -1.41081E+03 -2.52208E+02 -1.10762E+03
  7.43846E+02 -1.59914E+03  1.33321E+03 -6.68025E+02  3.94918E+02  1.16887E+03 -8.67141E+02  1.05322E+03
 -1.64901E+03  1.24898E+03 -1.54639E+03 -1.44953E+03 -5.81711E+02 -2.24655E+03  5.53785E+02 -1.30894E+03
  1.24552E+03 -4.09553E+02  3.30549E+02 -1.70327E+02  1.56597E+03 -3.67654E+02  2.85921E+02  9.37717E+02
 -5.90316E+02 -1.24644E+02 -1.10228E+03 -8.74242E+02  7.04424E+02 -1.17208E+03  2.27115E+03 -3.24398E+02
  1.66930E+03  1.69329E+02  2.78270E+03  1.29227E+03  8.46586E+02  1.99049E+03 -6.94168E+02  2.05783E+03
 -1.77213E+03  1.44113E+02 -1.79877E+03 -6.63552E+02 -1.13134E+03 -1.74048E+03  5.68786E+02 -1.01240E+03
  1.42151E+03 -3.98181E+02  7.50627E+02  8.18658E+02 -8.58304E+01  1.29942E+03 -2.88671E+01  9.40243E+02
 -3.99129E+02  1.12689E+03 -9.82591E+02  3.30947E+02  1.37404E+02  1.96247E+02 -7.83090E+02  1.75770E+02
 -5.52569E+02  1.48334E+03 -1.91135E+03 -8.78040E+01 -1.96233E+03  2.19130E+02 -3.09424E+03 -1.25769E+03
 -7.96244E+02 -2.76115E+03  3.61650E+02 -3.01550E+03  1.69908E+03 -2.96811E+03  2.67502E+03 -1.16898E+03
  2.48797E+03 -3.26040E+02  6.64453E+02  1.98486E+03 -2.84594E+02  1.42867E+03 -4.06968E+02  1.41601E+03
 -1.12951E+03  6.75110E+02 -1.74146E+02 -3.99700E+02 -3.49139E+02  3.31263E+02 -5.45840E+02 -2.89930E+02
 -9.31940E+02  9.19547E+01 -7.98155E+02 -1.54749E+02 -7.87587E+01 -6.77517E+02 -3.55142E+02 -9.05763E+02
  1.47336E+03 -6.37225E+02  2.28422E+02 -4.32438E+02  1.72725E+03  8.77929E+02 -5.03531E+02  1.34648E+03
 -1.14065E+03  2.00265E+03 -1.75732E+03  6.99333E+02 -1.91587E+03  4.15571E+02 -1.43411E+03 -1.35688E+03
 -4.37441E+02 -1.61409E+03  4.63161E+02 -1.04206E+03  1.21599E+03 -3.41303E+02  8.13720E+02  5.67113E+02
  9.86607E+02  4.95528E+02  3.98343E+01  3.58579E+02 -4.19752E+02 -8.43601E+02  2.52155E+02  1.83396E+02
  5.46241E+02  8.59606E+02  2.03407E+02  6.82819E+02 -6.35991E+01  8.32730E+02  9.72143E+02  6.10773E+02
 -8.87494E+02  4.26913E+02 -4.00822E+02  1.93917E+02 -9.82742E+02 -4.13976E+02 -5.12548E+01 -1.70013E+03
  3.77629E+02 -4.35239E+02  4.55560E+02 -2.57840E+02  6.41852E+02 -4.58553E+02  7.00082E+02  6.62314E+02
  3.75077E+02  1.97709E+02 -4.77328E+02 -1.22934E+01 -3.69579E+02  1.05121E+03 -4.14070E+02 -1.97467E+02
  5.84997E+01 -2.87328E+02 -8.71925E+02  4.07613E+02 -7.16322E+02 -1.56654E+02 -1.99838E+02  3.88042E+01
 -1.19715E+03 -2.19296E+02 -2.93011E+01 -1.40632E+03  1.13324E+03 -1.99427E+03  7.59539E+02  6.97443E+01
  7.79878E+02 -1.47824E+02 -6.86048E+02  3.19889E+01 -1.06458E+02  1.34684E+03 -4.41092E+02  6.04682E+02
