 $NMID ID='MM_0lb_SNR400_9hz_g55_90.RAW', FMTDAT='(8E13.5)'
 TRAMP=1., VOLUME=1. $END
  3.09488E+05  7.24336E+02  3.37609E+05  2.50695E+05  8.53327E+04  3.39313E+05 -1.32392E+05  2.51462E+05
 -1.91808E+05  8.36397E+04 -1.12803E+05 -3.27288E+04 -5.39544E+02 -5.16102E+04  5.40160E+04 -2.97361E+02
  3.57221E+04  5.25336E+04 -1.62622E+04  7.62905E+04 -6.14711E+04  6.50280E+04 -8.51814E+04  3.25778E+04
 -8.26813E+04 -1.26317E+04 -5.80338E+04 -5.24030E+04 -1.51954E+04 -7.12854E+04  2.89226E+04 -4.72584E+04
  4.13738E+04  3.74537E+03  1.66263E+04  4.88327E+04 -3.50545E+04  4.89192E+04 -6.76959E+04 -1.77273E+02
 -5.53805E+04 -5.84963E+04 -8.13456E+03 -7.94723E+04  3.44432E+04 -5.71902E+04  5.04940E+04 -1.78407E+04
  4.54438E+04  1.18122E+04  3.27151E+04  2.74757E+04  1.59914E+04  3.02923E+04 -6.83363E+03  2.84504E+04
 -2.25240E+04  1.17564E+04 -1.80789E+04 -5.78358E+03  6.94769E+03 -7.31437E+03  2.38785E+04  1.33267E+04
  7.94339E+03  3.75313E+04 -3.42383E+04  3.73014E+04 -6.67162E+04  1.61494E+03 -5.99018E+04 -4.43171E+04
 -1.21694E+04 -6.60241E+04  4.20850E+04 -4.79797E+04  6.11429E+04 -3.06684E+03  3.72690E+04  3.51789E+04
 -5.19579E+03  3.97612E+04 -3.16186E+04  1.88887E+04 -3.44586E+04 -3.82539E+03 -1.99973E+04 -1.19522E+04
 -9.72374E+03 -1.48078E+04 -1.72383E+02 -2.06654E+04  8.43604E+03 -2.22840E+04  1.61838E+04 -1.26873E+04
  1.01049E+04  6.66236E+03 -1.12579E+04  1.34090E+04 -2.36576E+04 -6.62823E+03 -8.52749E+03 -3.76634E+04
  2.54608E+04 -4.72278E+04  5.22214E+04 -2.06646E+04  4.95466E+04  2.07341E+04  1.73036E+04  4.69908E+04
 -1.68557E+04  3.69124E+04 -2.78765E+04  2.69913E+03 -1.15891E+04 -2.95110E+04  2.12130E+04 -3.67590E+04
  4.53927E+04 -1.16363E+04  4.09124E+04  2.51651E+04  2.18585E+04  5.16757E+04 -9.26854E+03  5.64487E+04
 -3.54095E+04  3.85782E+04 -4.86292E+04  1.12062E+04 -4.83631E+04 -1.83241E+04 -2.64238E+04 -4.23859E+04
  7.66167E+03 -4.33719E+04  3.41187E+04 -1.72930E+04  3.34297E+04  1.14455E+04  6.10989E+03  2.16355E+04
 -1.45022E+04  9.73993E+03 -1.16562E+04 -8.42429E+03  5.81522E+03 -1.21575E+04  1.93942E+04  5.41952E+03
  1.49120E+04  2.27696E+04 -5.29567E+03  2.80638E+04 -2.29677E+04  1.37702E+04 -3.23655E+04 -2.88294E+03
 -2.55699E+04 -1.86870E+04 -1.23460E+04 -2.52742E+04  4.60055E+03 -2.66752E+04  2.02237E+04 -2.39941E+04
  3.29897E+04 -1.44400E+04  3.82380E+04  5.25063E+03  2.73733E+04  2.47708E+04  3.98038E+03  4.16623E+04
 -1.98049E+04  3.43067E+04 -3.07809E+04  1.11736E+04 -2.25939E+04 -1.06172E+04 -5.71131E+03 -1.24317E+04
  2.13505E+02 -1.55237E+03 -7.42830E+03  8.46360E+03 -2.07047E+04  4.87157E+03 -2.04952E+04 -1.00266E+04
 -1.16989E+04 -2.41718E+04  5.73704E+03 -2.79493E+04  1.86413E+04 -2.06265E+04  2.26100E+04 -1.93263E+03
  1.48960E+04  1.73220E+04 -2.29648E+03  2.34819E+04 -1.65716E+04  1.31835E+04 -2.37418E+04 -5.11270E+03
 -1.80333E+04 -2.11699E+04 -1.55070E+03 -2.84387E+04  1.27864E+04 -2.42337E+04  2.39784E+04 -1.17819E+04
  2.28501E+04  3.95150E+02  1.65298E+04  5.47212E+03  9.32637E+03  2.14308E+03  1.23947E+04 -1.49882E+03
  2.23322E+04  2.93305E+03  2.59249E+04  1.89283E+04  1.65493E+04  3.78331E+04 -2.23572E+03  4.58778E+04
 -2.57713E+04  3.89359E+04 -4.27059E+04  2.00568E+04 -4.58538E+04 -3.39066E+03 -3.72609E+04 -2.70246E+04
 -1.45243E+04 -3.86603E+04  1.35007E+04 -3.36949E+04  2.82625E+04 -1.63996E+04  2.44295E+04  8.50688E+03
  8.92049E+03  1.89815E+04 -1.22234E+04  1.60149E+04 -2.07228E+04  2.20661E+03 -1.56194E+04 -1.30480E+04
 -3.35901E+02 -1.96536E+04  1.12270E+04 -1.44204E+04  1.42475E+04 -2.13138E+03  3.38199E+03  8.69879E+03
 -9.33958E+03  4.13327E+03 -9.46948E+03 -6.82487E+03 -2.37448E+03 -1.83719E+04  1.30023E+04 -2.03628E+04
  2.41721E+04 -1.20644E+04  2.66272E+04  4.11332E+03  2.33610E+04  1.86071E+04  1.09846E+04  2.94523E+04
 -5.92764E+03  3.17942E+04 -2.09514E+04  1.99311E+04 -2.33566E+04  4.31883E+03 -1.62762E+04 -6.14593E+03
 -7.06350E+03 -7.82633E+03 -1.60249E+03 -1.24909E+02 -2.37135E+03  3.01162E+03 -7.14983E+03  5.05952E+03
 -1.48493E+04 -1.35889E+03 -1.52083E+04 -1.23246E+04 -6.47390E+03 -2.03121E+04  6.13191E+03 -1.61197E+04
  1.31532E+04 -6.32344E+03  1.03501E+04  4.71933E+03 -1.41311E+02  6.33383E+03 -7.79972E+03 -1.06670E+02
 -7.97585E+03 -1.08097E+04 -1.52093E+03 -1.60638E+04  9.81087E+03 -1.72663E+04  2.08829E+04 -9.14681E+03
  2.37256E+04  1.44260E+03  1.72055E+04  1.45689E+04  3.55370E+03  1.95854E+04 -9.57187E+03  1.50841E+04
 -1.29231E+04  4.83922E+03 -7.00843E+03 -4.09268E+03  2.79920E+03 -4.32649E+03  8.70715E+03 -6.30400E+02
  6.98253E+03  8.06302E+03  2.23337E+02  1.37542E+04 -8.84065E+03  1.28767E+04 -1.66168E+04  3.00871E+03
 -1.07848E+04 -8.19777E+03  1.91666E+02 -1.39606E+04  9.23222E+03 -7.54455E+03  9.87784E+03  3.74125E+03
  2.38759E+03  1.01599E+04 -8.59100E+03  1.20866E+04 -1.34056E+04  5.53779E+03 -1.51974E+04 -5.71817E+03
 -8.02755E+03 -1.62406E+04  3.79329E+03 -1.94345E+04  1.56380E+04 -1.07752E+04  1.76341E+04  3.18316E+03
  9.69101E+03  1.38250E+04 -1.77780E+03  1.58563E+04 -1.16278E+04  8.83199E+03 -1.33795E+04 -1.53936E+03
 -1.12284E+04 -1.10793E+04 -2.17455E+03 -1.32634E+04  6.96309E+03 -1.06445E+04  8.78491E+03 -3.48061E+03
  5.89617E+03  1.98220E+03 -1.70112E+03  2.65122E+03 -8.68844E+02 -3.01992E+03  2.61965E+03 -7.03402E+03
  1.22142E+04 -4.60635E+03  1.57573E+04  1.38290E+03  1.66483E+04  1.15704E+04  1.05929E+04  2.16761E+04
 -5.37536E+03  2.45480E+04 -2.13434E+04  1.78749E+04 -2.69286E+04  4.24757E+03 -2.07057E+04 -9.84204E+03
 -1.05567E+04 -1.76645E+04  5.99651E+02 -1.52444E+04  5.39934E+03 -8.72086E+03  5.56276E+03 -5.40306E+03
  4.54968E+03 -3.20522E+03  4.37282E+03 -4.00586E+03  6.02383E+03 -3.53443E+03  8.09910E+03 -1.28662E+03
  1.10499E+04  2.86763E+03  6.02400E+03  1.01279E+04 -2.00547E+03  1.17988E+04 -1.17918E+04  8.84548E+03
 -1.42807E+04 -5.37183E+02 -9.69331E+03 -1.07097E+04 -1.68661E+03 -1.64504E+04  9.93084E+03 -1.57985E+04
  1.61801E+04 -8.95086E+03  2.07417E+04  2.43074E+03  1.41581E+04  1.41539E+04  1.96802E+03  1.85978E+04
 -7.55474E+03  1.46322E+04 -1.07673E+04  5.47669E+03 -7.66850E+03 -2.28655E+03 -3.62274E+03 -2.12421E+03
 -1.19593E+03  1.34721E+02 -2.67041E+03  4.20950E+03 -6.42528E+03  2.30180E+03 -9.85632E+03 -1.69725E+03
 -7.03020E+03 -9.95308E+03  3.07028E+02 -1.58849E+04  8.60583E+03 -1.39629E+04  1.61099E+04 -4.25951E+03
  1.49846E+04  6.90236E+03  7.66261E+03  1.41653E+04 -3.15174E+03  1.60769E+04 -1.12781E+04  9.05630E+03
 -1.44738E+04  1.17228E+03 -1.08559E+04 -8.96600E+03 -1.46267E+03 -1.32332E+04  6.95485E+03 -9.32839E+03
  9.43218E+03 -3.14291E+03  7.46833E+03  2.85768E+03  3.44685E+03  4.68797E+03  1.67304E+03  2.17013E+03
  3.37192E+03  8.03318E+02  3.86519E+03  1.70459E+03  4.58653E+03  4.24982E+03  2.96631E+03  7.92142E+03
 -2.92628E+03  1.27730E+04 -1.10170E+04  1.19635E+04 -1.53204E+04  3.97422E+03 -1.67522E+04 -6.36930E+03
 -6.97685E+03 -1.60712E+04  1.78098E+03 -1.70817E+04  9.85935E+03 -1.12805E+04  1.22501E+04 -2.89099E+03
  9.84863E+03  5.44026E+03  2.37587E+03  9.09797E+03 -4.54387E+03  6.19486E+03 -6.60816E+03 -1.65813E+03
 -2.53341E+03 -6.45765E+03  3.65145E+03 -7.32943E+03  6.37547E+03 -3.65248E+03  7.08582E+03  1.32148E+03
  3.83619E+03  3.04908E+03  1.59094E+03  2.15239E+03 -1.22823E+03  2.35780E+03  1.16495E+03 -8.93278E+02
  2.64715E+03 -9.14949E+02  6.66255E+03  2.80147E+03  3.88215E+03  8.31291E+03 -1.62011E+03  1.16897E+04
 -7.17587E+03  7.79519E+03 -1.00297E+04  2.38521E+03 -9.59774E+03 -3.45188E+03 -3.29927E+03 -6.12814E+03
  1.55183E+03 -6.01040E+03  3.64808E+03 -2.72222E+03  3.89187E+03  3.04262E+03 -1.33455E+03  4.93313E+03
 -6.40227E+03  3.16678E+03 -7.06281E+03 -3.75537E+03 -4.13852E+03 -8.78475E+03  9.70151E+02 -8.34222E+03
  4.82865E+03 -4.55427E+03  6.05234E+03  7.11221E+02  6.18062E+03  2.54674E+03  8.42818E+02  4.97621E+03
 -1.63920E+03  1.22628E+03 -4.02269E+03 -3.82212E+03  1.38590E+03 -7.12072E+03  8.14724E+03 -4.79122E+03
  1.03864E+04  9.09854E+02  9.27471E+03  7.30440E+03  1.96188E+03  1.05602E+04 -2.85712E+03  1.03985E+04
 -8.74154E+03  4.18124E+03 -9.29187E+03 -1.89029E+03 -4.80643E+03 -6.84890E+03  1.92467E+03 -7.07690E+03
  6.87623E+03 -4.20788E+03  5.19033E+03  1.86440E+03  1.63674E+03  6.47194E+03 -4.61207E+02  5.27889E+03
 -3.39941E+03  3.02880E+03 -2.15997E+03  6.82249E+02 -9.84875E+02  1.14229E+02 -1.68785E+03  2.72213E+03
 -2.53223E+03  3.69169E+03 -6.95458E+03  3.94336E+03 -1.08411E+04 -2.90471E+02 -1.13517E+04 -7.16789E+03
 -6.89274E+03 -1.31994E+04  2.81756E+03 -1.60221E+04  9.68310E+03 -1.16765E+04  1.51985E+04 -5.13018E+03
  1.40289E+04  2.51131E+03  8.92501E+03  1.04078E+04 -6.96762E+02  1.14379E+04 -4.00709E+03  8.47516E+03
 -6.81469E+03  3.40393E+03 -3.66855E+03 -1.28783E+03 -1.11818E+02 -1.10975E+03 -2.82447E+02 -7.95127E+02
 -1.72848E+03  6.12163E+02 -2.68554E+03 -6.84062E+02 -6.47673E+02 -2.92970E+03  2.55116E+02 -4.34579E+03
  4.84053E+03 -3.08082E+03  7.43320E+03 -2.05697E+02  6.95449E+03  5.27455E+03  1.36786E+03  1.02330E+04
 -5.95232E+03  1.24612E+04 -1.14133E+04  7.13109E+03 -1.39910E+04 -1.17354E+03 -9.18295E+03 -7.44410E+03
 -4.16205E+03 -1.06984E+04  2.99005E+03 -1.04978E+04  7.27584E+03 -6.12936E+03  7.59368E+03  2.57744E+02
  3.73083E+03  2.98996E+03 -5.03259E+02  2.92720E+03 -2.02353E+03 -5.80912E+02 -1.88235E+02 -2.33031E+03
  3.92091E+03 -1.26052E+03  4.68376E+03  1.37068E+03  2.95175E+03  3.92738E+03  7.22697E+02  5.45718E+03
 -3.68330E+03  4.95350E+03 -6.52152E+03 -4.16817E+02 -6.74580E+03 -5.12874E+03 -1.53971E+03 -9.32629E+03
  5.07551E+03 -6.93103E+03  8.24432E+03 -1.72048E+03  8.55887E+03  2.63300E+03  4.36343E+03  6.72570E+03
  9.15199E+02  7.81065E+03 -3.07623E+03  5.35847E+03 -5.32163E+03  3.17105E+03 -3.68824E+03  5.54477E+01
 -2.23383E+03 -2.62648E+02 -3.06705E+03  4.54134E+02 -3.69496E+03  1.83901E+03 -5.03561E+03 -8.56302E+02
 -6.06248E+03 -4.34291E+03 -1.71483E+03 -7.41641E+03  3.38391E+03 -7.43854E+03  6.77828E+03 -3.20231E+03
  6.14444E+03  9.38698E+02  4.37232E+03  5.52637E+03 -9.60227E+02  7.41910E+03 -6.26425E+03  4.43801E+03
