 $NMID ID='MM_0lb_SNR400_16hz_g45_96.RAW', FMTDAT='(8E13.5)'
 TRAMP=1., VOLUME=1. $END
  3.10145E+05  6.14161E+01  3.37172E+05  2.50150E+05  8.37434E+04  3.37585E+05 -1.32421E+05  2.50473E+05
 -1.89977E+05  8.27711E+04 -1.11160E+05 -3.27386E+04  5.23674E+02 -5.02350E+04  5.37324E+04  9.87085E+01
  3.53898E+04  5.24600E+04 -1.60257E+04  7.52194E+04 -6.02510E+04  6.30648E+04 -8.42832E+04  3.15994E+04
 -8.06612E+04 -1.06152E+04 -5.68371E+04 -5.07325E+04 -1.50805E+04 -6.81268E+04  2.66814E+04 -4.52206E+04
  3.87544E+04  4.18232E+03  1.59726E+04  4.74127E+04 -3.40499E+04  4.64590E+04 -6.58294E+04 -3.03075E+02
 -5.31438E+04 -5.63325E+04 -6.16214E+03 -7.58923E+04  3.39601E+04 -5.43198E+04  4.69723E+04 -1.65543E+04
  4.26320E+04  1.07744E+04  3.15830E+04  2.51506E+04  1.56681E+04  2.87105E+04 -5.00354E+03  2.74019E+04
 -2.18555E+04  1.24273E+04 -1.89227E+04 -4.69799E+03  4.59566E+03 -7.63012E+03  2.15714E+04  1.14225E+04
  7.12264E+03  3.39734E+04 -3.10464E+04  3.44009E+04 -6.15637E+04  2.21196E+03 -5.66961E+04 -4.16654E+04
 -1.23154E+04 -6.20869E+04  3.91539E+04 -4.39180E+04  5.74764E+04 -2.03019E+03  3.32932E+04  3.12081E+04
 -5.59058E+03  3.42397E+04 -2.91404E+04  1.48913E+04 -2.84158E+04 -5.26179E+03 -1.52464E+04 -1.07283E+04
 -8.21321E+03 -1.20952E+04 -8.15845E+02 -1.69413E+04  6.51583E+03 -2.25387E+04  1.53043E+04 -1.41005E+04
  1.21450E+04  5.24259E+03 -6.98897E+03  1.32440E+04 -2.03957E+04 -3.44224E+03 -7.92162E+03 -3.20188E+04
  2.17228E+04 -4.19566E+04  4.63824E+04 -1.91631E+04  4.28700E+04  1.89106E+04  1.44714E+04  4.34641E+04
 -1.57295E+04  3.19404E+04 -2.41910E+04  1.45847E+03 -8.98282E+03 -2.73451E+04  2.02013E+04 -3.28266E+04
  3.95037E+04 -8.32037E+03  3.36971E+04  2.31977E+04  1.70210E+04  4.44058E+04 -7.88670E+03  4.73932E+04
 -3.00131E+04  3.18821E+04 -3.94371E+04  9.10972E+03 -4.06126E+04 -1.59157E+04 -2.24007E+04 -3.64828E+04
  7.19908E+03 -3.65382E+04  3.05349E+04 -1.34866E+04  2.79786E+04  1.08332E+04  3.22769E+03  1.81214E+04
 -1.38816E+04  7.69248E+03 -1.01624E+04 -7.49135E+03  5.95795E+03 -1.07323E+04  1.71703E+04  6.14955E+03
  1.34687E+04  2.16583E+04 -6.25078E+03  2.44061E+04 -2.20016E+04  1.05919E+04 -2.65032E+04 -5.86193E+03
 -1.82427E+04 -1.65915E+04 -7.14291E+03 -1.83997E+04  3.78865E+03 -1.78490E+04  1.35386E+04 -1.62756E+04
  2.30379E+04 -1.24947E+04  3.02439E+04  2.06143E+03  2.25583E+04  1.74929E+04  4.04564E+03  3.43912E+04
 -1.66354E+04  2.80952E+04 -2.69293E+04  9.36281E+03 -2.01679E+04 -1.03074E+04 -4.25335E+03 -1.37381E+04
  2.51697E+03 -3.24515E+03 -3.82040E+03  5.93516E+03 -1.44536E+04  5.01763E+03 -1.51078E+04 -6.02224E+03
 -8.70482E+03 -1.70445E+04  4.84620E+03 -2.12473E+04  1.31927E+04 -1.51833E+04  1.63026E+04 -1.15958E+03
  1.02290E+04  1.19622E+04 -6.66135E+02  1.66747E+04 -1.16323E+04  1.02054E+04 -1.68592E+04 -4.07337E+03
 -1.24051E+04 -1.50469E+04 -1.77659E+03 -2.11126E+04  9.55678E+03 -1.73143E+04  1.72305E+04 -8.70813E+03
  1.61488E+04  3.05293E+02  1.13517E+04  4.37326E+03  5.56029E+03  5.14075E+02  8.09234E+03 -1.79679E+03
  1.54575E+04  2.92581E+03  1.70947E+04  1.38648E+04  1.05708E+04  2.69790E+04 -3.14724E+03  2.96703E+04
 -1.73826E+04  2.37078E+04 -2.77868E+04  1.17539E+04 -2.86204E+04 -1.82544E+03 -2.42422E+04 -1.62044E+04
 -1.09345E+04 -2.38763E+04  7.47973E+03 -2.16226E+04  1.91387E+04 -1.12574E+04  1.72804E+04  4.52463E+03
  6.26643E+03  1.24494E+04 -8.12540E+03  1.19737E+04 -1.45100E+04  2.69077E+03 -1.09784E+04 -8.64992E+03
 -5.69688E+02 -1.37094E+04  7.31783E+03 -1.03946E+04  8.45866E+03 -9.49775E+02  2.12402E+03  5.63431E+03
 -6.17510E+03  1.89102E+03 -4.69509E+03 -4.45996E+03  2.00517E+02 -1.19106E+04  8.55487E+03 -1.17002E+04
  1.43266E+04 -5.73269E+03  1.44991E+04  2.73709E+03  1.30250E+04  1.15413E+04  6.12522E+03  1.67266E+04
 -2.76369E+03  1.85091E+04 -1.17321E+04  1.18686E+04 -1.33447E+04  2.73748E+03 -9.88556E+03 -2.63244E+03
 -5.06711E+03 -3.96411E+03 -1.12156E+03  1.67152E+03 -1.95195E+03  2.10395E+03 -4.17385E+03  3.81084E+03
 -8.64209E+03 -2.06058E+02 -1.00838E+04 -7.96978E+03 -3.99352E+03 -1.27612E+04  3.87939E+03 -9.96022E+03
  8.42080E+03 -4.02941E+03  5.73006E+03  2.71764E+03  1.86239E+02  3.87791E+03 -4.30385E+03  2.08189E+02
 -3.63304E+03 -6.37195E+03 -6.60379E+02 -8.48212E+03  4.26842E+03 -9.50234E+03  1.18049E+04 -5.04122E+03
  1.35310E+04  6.40099E+02  9.98379E+03  8.26794E+03  2.45941E+03  9.81720E+03 -5.92187E+03  9.35053E+03
 -7.77896E+03  2.81303E+03 -4.09630E+03 -1.61147E+03  8.07766E+02 -2.23900E+03  4.63678E+03 -1.06327E+03
  4.49799E+03  3.41755E+03  1.31593E+03  7.26411E+03 -5.76864E+03  6.50321E+03 -8.72288E+03  1.72651E+03
 -6.27783E+03 -4.74167E+03 -3.13174E+00 -8.27502E+03  4.55332E+03 -3.79418E+03  4.11390E+03  1.38574E+03
  3.17106E+02  4.61566E+03 -5.03544E+03  6.43745E+03 -6.21661E+03  2.53197E+03 -6.17090E+03 -1.80415E+03
 -3.60149E+03 -7.66125E+03  1.77208E+03 -8.85165E+03  7.62878E+03 -5.41574E+03  8.43682E+03  1.31392E+03
  5.79234E+03  6.97267E+03 -5.63134E+02  9.41041E+03 -6.72870E+03  5.37650E+03 -6.21591E+03 -6.49936E+02
 -6.42916E+03 -5.36705E+03 -1.81497E+03 -6.45800E+03  3.13339E+03 -5.60006E+03  3.78306E+03 -3.09035E+03
  3.06234E+03  5.41330E+02 -5.24547E+01  1.50178E+03  1.15204E+02 -4.09707E+02  6.67912E+02 -2.64978E+03
  3.97551E+03 -1.35214E+03  7.13567E+03  7.30625E+02  7.50561E+03  5.20117E+03  6.21647E+03  9.50811E+03
 -1.77518E+03  1.10082E+04 -9.54120E+03  8.42661E+03 -1.25065E+04  1.40372E+03 -9.63096E+03 -3.55005E+03
 -5.73377E+03 -9.20670E+03 -5.24622E+02 -6.37543E+03  2.58373E+03 -3.28732E+03  2.43505E+03 -2.23302E+03
  1.70754E+03 -1.54759E+03  2.93731E+03 -2.28204E+03  3.59614E+03 -1.83347E+03  4.39125E+03  3.33363E+01
  5.79799E+03  1.40819E+03  1.47970E+03  4.33360E+03 -1.62396E+03  3.99008E+03 -5.06698E+03  3.52004E+03
 -6.42997E+03 -1.46598E+03 -2.88830E+03 -4.38926E+03  2.73900E+02 -6.45585E+03  4.16990E+03 -6.62319E+03
  6.61551E+03 -4.05649E+03  8.82824E+03  8.14711E+02  6.28854E+03  5.89026E+03  8.88583E+02  7.55954E+03
 -2.98794E+03  7.66062E+03 -4.95190E+03  2.29678E+03 -2.27083E+03 -5.01510E+02 -1.34593E+03 -1.35302E+03
 -7.21414E+02  8.00307E+02 -1.15909E+03  1.90756E+03 -3.77813E+03  9.25713E+02 -4.92470E+03 -9.78536E+02
 -2.65551E+03 -4.61324E+03  4.67765E+02 -5.75359E+03  3.42261E+03 -5.76922E+03  5.56729E+03 -1.59777E+03
  5.23943E+03  3.57049E+03  2.65223E+03  4.64705E+03 -1.24560E+03  6.30414E+03 -3.59812E+03  4.05581E+03
 -5.02991E+03  7.07181E+02 -5.09047E+03 -3.64202E+03 -8.15447E+02 -4.56841E+03  2.96496E+03 -3.38980E+03
  4.11523E+03 -1.02107E+03  1.72629E+03  7.44867E+02  3.81224E+02  2.35922E+03  5.83572E+02  7.62601E+02
  1.76488E+03  2.29991E+02  1.82789E+03  7.88290E+02  1.64266E+03  2.92116E+03  2.19066E+03  2.47498E+03
 -9.43183E+02  4.70326E+03 -3.06340E+03  5.51150E+03 -4.55046E+03  1.45353E+03 -6.26020E+03 -1.12269E+03
 -2.94646E+03 -5.63213E+03  1.34067E+03 -6.44390E+03  2.84143E+03 -3.50681E+03  4.97170E+03 -1.44642E+03
  3.75830E+03  2.10449E+03  6.22499E+02  3.81779E+03 -1.55543E+03  1.68330E+03 -1.81834E+03 -5.37762E+01
 -9.91827E+02 -1.95618E+03  1.44311E+03 -2.27842E+03  1.65565E+03 -8.86152E+02  1.64995E+03  3.53371E+02
  1.22749E+03  6.57370E+02  6.74147E+02 -4.47236E+01 -4.25244E+02  1.08064E+03  1.64362E+03  4.62092E+01
 -2.98726E+01 -3.86951E+02  1.93033E+03  5.54375E+02  1.16448E+03  3.16258E+03 -6.55617E+02  3.94901E+03
 -2.74257E+03  2.28724E+03 -3.47740E+03  9.05044E+02 -3.13057E+03 -1.37116E+03 -6.84103E+02 -1.19483E+03
 -1.06085E+02 -2.29976E+03  1.36500E+03 -1.41903E+03  1.17736E+03  1.28447E+03 -5.31413E+02  2.32447E+03
 -2.20213E+03  1.04961E+03 -2.11268E+03 -1.62834E+03 -7.62291E+02 -3.03661E+03  2.84919E+02 -2.59896E+03
  9.42484E+02 -1.48183E+03  1.57717E+03  2.75429E+02  1.37619E+03  2.58108E+02  6.66709E+02  1.27816E+03
 -4.92394E+02  1.26234E+02 -1.75096E+03 -6.76112E+02  1.32591E+03 -1.12656E+03  2.70646E+03 -1.48663E+03
  2.29370E+03  4.87925E+02  3.21698E+03  1.27897E+03  1.48139E+03  3.32646E+03 -3.49184E+02  2.59373E+03
 -2.29547E+03  5.64782E+02 -1.74727E+03  4.55484E+02 -1.71607E+03 -1.92593E+03  8.83854E+02 -1.35253E+03
  2.37165E+03 -1.41314E+03  1.08215E+03  1.12547E+03  2.80193E+02  2.15577E+03  2.91243E+01  1.63734E+03
 -2.42566E+02  1.63619E+03 -4.50686E+02  6.74917E+02  1.49278E+02  9.01114E+02 -2.46335E+02  9.76456E+01
 -4.93193E+02  1.42121E+03 -2.56541E+03  1.23577E+03 -2.16945E+03  1.36153E+02 -3.08137E+03 -1.78078E+03
 -1.52230E+03 -3.91067E+03  3.44750E+02 -4.20139E+03  2.25050E+03 -3.59532E+03  4.78710E+03 -1.60225E+03
  3.89330E+03 -1.46668E+02  2.20914E+03  2.18399E+03 -1.93232E+02  2.34127E+03 -1.50622E+03  1.48290E+03
 -1.41624E+03  9.68886E+02 -1.29179E+03  3.80347E+01 -4.11716E+02 -2.65974E+02 -4.73803E+02  6.75108E+01
 -1.21770E+03 -4.16342E+02 -7.88651E+02  6.52760E+01 -3.38227E+02 -8.69141E+02 -6.64134E+01 -9.36565E+02
  1.96145E+03 -4.88485E+02  1.42969E+03 -6.73680E+01  2.11892E+03  1.35716E+03  5.22886E+02  2.60822E+03
 -1.63051E+03  3.36056E+03 -2.89984E+03  1.83810E+03 -3.23176E+03  2.07049E+02 -2.25781E+03 -2.39623E+03
 -1.07299E+03 -2.44993E+03  5.70375E+02 -1.98536E+03  1.24854E+03 -1.57400E+03  1.69446E+03 -4.39102E+02
  8.71556E+02  6.60963E+02 -3.56067E+01  7.41934E+02 -8.66860E+02 -1.37131E+02 -4.05414E+02 -4.70136E+02
  2.73806E+02  2.52814E+02  3.40566E+02  6.15359E+02  3.84842E+02  9.46893E+02  2.31941E+02  1.15732E+03
 -7.37921E+02  1.15552E+03 -1.66969E+03 -3.87722E+02 -1.50320E+03 -2.23318E+02 -3.20768E+02 -1.87863E+03
  1.52393E+03 -1.22535E+03  1.06310E+03 -8.22157E+02  2.08488E+03 -8.77836E+02  1.63639E+03  1.46746E+03
  8.39808E+02  1.31820E+03  8.95227E+01  7.86124E+02 -8.50241E+02  8.94651E+02 -6.93012E+02 -1.59049E+01
 -6.52684E+02  5.23002E+00 -2.44457E+02 -1.15545E+02 -7.49816E+02 -2.09046E+02 -1.42757E+03 -3.77496E+02
 -1.87945E+03 -3.91353E+02 -5.22909E+02 -1.62573E+03  5.49675E+02 -2.42442E+03  1.49232E+03 -5.26655E+02
  1.53669E+03 -6.50190E+01  2.21185E+01  3.97413E+02  7.73611E+00  1.44791E+03 -1.17899E+03  1.15298E+03
