 $NMID ID='MM_0lb_SNR400_11hz_g50_81.RAW', FMTDAT='(8E13.5)'
 TRAMP=1., VOLUME=1. $END
  3.10214E+05  5.29342E+02  3.37371E+05  2.51302E+05  8.51635E+04  3.38225E+05 -1.32726E+05  2.51753E+05
 -1.90056E+05  8.35225E+04 -1.12759E+05 -3.24680E+04 -1.84800E+02 -4.99820E+04  5.37942E+04  2.07494E+02
  3.52638E+04  5.23666E+04 -1.75291E+04  7.45900E+04 -6.16999E+04  6.38389E+04 -8.56935E+04  3.21918E+04
 -8.23997E+04 -1.14874E+04 -5.87138E+04 -5.12585E+04 -1.45796E+04 -7.06864E+04  2.81473E+04 -4.65209E+04
  4.04322E+04  3.85951E+03  1.59063E+04  4.80250E+04 -3.43452E+04  4.71243E+04 -6.77041E+04 -1.14224E+02
 -5.43139E+04 -5.80144E+04 -7.29067E+03 -7.89733E+04  3.41191E+04 -5.64464E+04  4.96892E+04 -1.82149E+04
  4.40951E+04  1.11967E+04  3.19119E+04  2.62447E+04  1.62301E+04  3.00482E+04 -5.35497E+03  2.75305E+04
 -2.21454E+04  1.18985E+04 -1.83796E+04 -5.94036E+03  6.83430E+03 -7.09493E+03  2.24220E+04  1.27882E+04
  7.63468E+03  3.58818E+04 -3.40296E+04  3.61856E+04 -6.52227E+04  1.77335E+03 -5.82569E+04 -4.31219E+04
 -1.19088E+04 -6.47304E+04  3.99783E+04 -4.62780E+04  6.00927E+04 -2.60444E+03  3.59608E+04  3.37831E+04
 -5.40403E+03  3.82956E+04 -3.09671E+04  1.73260E+04 -3.27970E+04 -3.64094E+03 -1.86677E+04 -1.18247E+04
 -9.64607E+03 -1.39409E+04 -4.56779E+02 -1.81635E+04  7.63584E+03 -2.34404E+04  1.65446E+04 -1.33085E+04
  1.01822E+04  5.95644E+03 -9.17708E+03  1.28444E+04 -2.27472E+04 -5.85670E+03 -8.03942E+03 -3.58762E+04
  2.38320E+04 -4.57762E+04  5.05740E+04 -2.05152E+04  4.70866E+04  2.10786E+04  1.69083E+04  4.59089E+04
 -1.58636E+04  3.47976E+04 -2.69214E+04  2.66582E+03 -1.17591E+04 -2.93034E+04  2.07362E+04 -3.54700E+04
  4.28214E+04 -1.12443E+04  3.88484E+04  2.39616E+04  1.99672E+04  4.94676E+04 -8.61394E+03  5.37277E+04
 -3.44205E+04  3.67392E+04 -4.54353E+04  1.03018E+04 -4.60591E+04 -1.74916E+04 -2.47601E+04 -4.08872E+04
  8.34577E+03 -4.03289E+04  3.25001E+04 -1.59034E+04  3.11042E+04  1.09518E+04  4.56406E+03  2.03765E+04
 -1.39906E+04  9.75496E+03 -1.14446E+04 -7.53622E+03  5.66781E+03 -1.11440E+04  1.85737E+04  5.56364E+03
  1.42160E+04  2.20531E+04 -5.51716E+03  2.62528E+04 -2.32427E+04  1.29955E+04 -3.00321E+04 -4.61691E+03
 -2.34272E+04 -1.85579E+04 -1.00701E+04 -2.33465E+04  4.88980E+03 -2.27849E+04  1.86631E+04 -2.12749E+04
  2.94116E+04 -1.31781E+04  3.64784E+04  4.55045E+03  2.55802E+04  2.25805E+04  3.95929E+03  3.92707E+04
 -1.87996E+04  3.27148E+04 -2.99474E+04  1.08268E+04 -2.16012E+04 -1.04283E+04 -5.04491E+03 -1.36214E+04
  1.63203E+03 -1.96794E+03 -6.58530E+03  7.49461E+03 -1.84116E+04  5.89675E+03 -1.89452E+04 -8.44683E+03
 -1.07559E+04 -2.10629E+04  5.26227E+03 -2.58390E+04  1.75401E+04 -1.87178E+04  2.06195E+04 -1.76469E+03
  1.33815E+04  1.49202E+04 -1.47218E+03  2.14441E+04 -1.47096E+04  1.25085E+04 -2.23623E+04 -4.44799E+03
 -1.62961E+04 -2.01502E+04 -1.65566E+03 -2.52321E+04  1.15206E+04 -2.11918E+04  2.23975E+04 -1.08641E+04
  2.01802E+04 -7.01787E+02  1.51045E+04  5.09209E+03  8.19845E+03  5.95144E+02  1.13570E+04 -2.27347E+03
  2.02631E+04  3.20866E+03  2.34406E+04  1.72687E+04  1.52140E+04  3.41800E+04 -2.93166E+03  3.97414E+04
 -2.28634E+04  3.29142E+04 -3.75074E+04  1.59756E+04 -3.96404E+04 -3.12271E+03 -3.27481E+04 -2.33679E+04
 -1.32970E+04 -3.35479E+04  1.15085E+04 -2.89109E+04  2.54098E+04 -1.48377E+04  2.25895E+04  6.47821E+03
  7.65264E+03  1.65680E+04 -1.08079E+04  1.43201E+04 -1.90240E+04  2.35606E+03 -1.43644E+04 -1.20713E+04
  7.04646E+01 -1.71985E+04  9.96333E+03 -1.35129E+04  1.15029E+04 -4.03341E+01  3.51987E+03  8.29890E+03
 -7.67658E+03  3.40005E+03 -8.55065E+03 -7.23896E+03 -1.98153E+03 -1.55440E+04  1.08818E+04 -1.72613E+04
  2.03437E+04 -9.06643E+03  2.28483E+04  2.68171E+03  2.03973E+04  1.66424E+04  9.44653E+03  2.55648E+04
 -4.36962E+03  2.77922E+04 -1.81160E+04  1.73339E+04 -2.02759E+04  3.31155E+03 -1.31997E+04 -5.62466E+03
 -6.51357E+03 -6.14990E+03 -3.58219E+02  9.02764E+02 -3.06541E+03  2.96151E+03 -7.03098E+03  5.10507E+03
 -1.31297E+04 -1.13405E+03 -1.33465E+04 -1.05260E+04 -5.11966E+03 -1.73933E+04  5.92797E+03 -1.40297E+04
  1.19232E+04 -5.27233E+03  8.67424E+03  3.99868E+03 -3.93974E+02  6.06230E+03 -6.86756E+03  5.14290E+02
 -6.56682E+03 -8.81684E+03 -1.64259E+03 -1.31706E+04  6.77879E+03 -1.35973E+04  1.73294E+04 -7.17402E+03
  2.02319E+04  2.02846E+03  1.41351E+04  1.20919E+04  2.69460E+03  1.64921E+04 -8.57855E+03  1.29665E+04
 -1.18338E+04  3.94908E+03 -5.81483E+03 -2.21116E+03  2.15162E+03 -3.82314E+03  7.49864E+03 -1.47368E+03
  6.40650E+03  5.93077E+03  1.34251E+03  1.11643E+04 -7.35490E+03  1.09287E+04 -1.37626E+04  2.55735E+03
 -8.74573E+03 -7.44981E+03 -3.11985E+01 -1.16128E+04  8.44109E+03 -5.77277E+03  7.56458E+03  2.55082E+03
  1.50113E+03  8.24216E+03 -7.38916E+03  1.00375E+04 -1.15399E+04  4.83917E+03 -1.18557E+04 -4.35169E+03
 -6.91688E+03 -1.33368E+04  2.96094E+03 -1.51436E+04  1.24609E+04 -9.47897E+03  1.45049E+04  2.60381E+03
  8.31462E+03  1.13938E+04 -1.36043E+03  1.36975E+04 -9.81784E+03  7.08387E+03 -1.06169E+04 -1.16530E+03
 -8.96099E+03 -8.74421E+03 -1.33517E+03 -1.01542E+04  5.84887E+03 -7.74195E+03  6.50567E+03 -2.81516E+03
  4.66157E+03  1.13528E+03 -8.99561E+02  2.45740E+03 -6.19507E+02 -3.16883E+03  2.49369E+03 -6.18973E+03
  8.70421E+03 -3.89677E+03  1.33000E+04  1.67463E+03  1.27817E+04  8.88380E+03  8.85070E+03  1.68908E+04
 -3.73518E+03  1.94018E+04 -1.70345E+04  1.44038E+04 -2.18064E+04  2.60412E+03 -1.75595E+04 -7.11945E+03
 -8.18806E+03 -1.44913E+04 -1.00219E+03 -1.13907E+04  4.02563E+03 -6.68788E+03  4.95669E+03 -4.37999E+03
  3.22976E+03 -3.04768E+03  3.75622E+03 -3.03703E+03  5.53977E+03 -3.12059E+03  6.34404E+03 -7.68429E+02
  8.73081E+03  2.20852E+03  4.86857E+03  6.84802E+03 -1.87103E+03  9.27814E+03 -8.64044E+03  6.66535E+03
 -1.24770E+04 -2.01981E+03 -6.70441E+03 -8.28317E+03 -6.97706E+02 -1.28424E+04  5.72938E+03 -1.22680E+04
  1.34711E+04 -7.08861E+03  1.64925E+04  1.66551E+03  1.10288E+04  1.10971E+04  1.96190E+03  1.42287E+04
 -5.82938E+03  1.20716E+04 -8.45773E+03  3.75256E+03 -5.25991E+03 -9.78242E+02 -1.84244E+03 -1.70348E+03
 -1.31972E+03 -4.48539E+02 -2.32516E+03  2.50955E+03 -4.95066E+03  2.16992E+03 -9.04682E+03 -1.22493E+03
 -5.45087E+03 -8.39682E+03 -4.72175E+02 -1.18510E+04  7.23032E+03 -1.13829E+04  1.13701E+04 -3.66791E+03
  1.16457E+04  5.15884E+03  4.95877E+03  1.05929E+04 -1.98264E+03  1.24826E+04 -8.35852E+03  7.55749E+03
 -1.10979E+04  5.69247E+02 -8.61124E+03 -7.53726E+03 -1.31346E+03 -9.92982E+03  4.28276E+03 -7.26403E+03
  7.82275E+03 -2.36962E+03  4.74627E+03  2.33640E+03  1.88304E+03  4.09285E+03  1.61735E+03  1.79396E+03
  2.15516E+03  6.54393E+02  2.18190E+03  1.51998E+03  4.05064E+03  3.21464E+03  3.32200E+03  5.85495E+03
 -1.97509E+03  9.56951E+03 -7.59016E+03  9.09005E+03 -1.12837E+04  2.19141E+03 -1.25062E+04 -3.93851E+03
 -5.98256E+03 -1.17448E+04  1.66545E+03 -1.28685E+04  6.95683E+03 -7.67613E+03  8.83330E+03 -2.30552E+03
  7.82939E+03  3.98938E+03  1.78070E+03  6.64857E+03 -3.25719E+03  4.46467E+03 -3.64906E+03  5.45941E+00
 -2.45749E+03 -4.28810E+03  2.88110E+03 -5.47857E+03  4.65837E+03 -2.98739E+03  4.00447E+03  1.47234E+03
  1.88861E+03  2.90996E+03  1.60917E+03  1.47502E+03 -7.97584E+02  1.73170E+03  1.79178E+03 -2.76454E+02
  2.21153E+03  2.85947E+02  5.14044E+03  1.75687E+03  2.49701E+03  6.35341E+03 -6.64371E+02  8.24860E+03
 -6.32866E+03  5.56183E+03 -7.47606E+03  1.21776E+03 -6.15799E+03 -3.73127E+03 -2.33439E+03 -3.99072E+03
  7.40744E+02 -4.30593E+03  2.58876E+03 -2.24610E+03  1.86739E+03  2.42584E+03 -3.22877E+02  3.56552E+03
 -4.57952E+03  1.68917E+03 -4.97892E+03 -3.16390E+03 -3.40597E+03 -6.50173E+03  1.09720E+03 -6.51520E+03
  3.47186E+03 -3.29237E+03  4.09816E+03 -2.85355E+00  3.23768E+03  9.88233E+02  1.56801E+02  3.23020E+03
 -2.54491E+03  6.31930E+02 -2.96317E+03 -1.77988E+03  9.95593E+02 -4.63045E+03  6.03104E+03 -4.33393E+03
  6.77608E+03  6.28580E+02  6.58858E+03  4.16880E+03  2.43810E+03  7.19034E+03 -2.76634E+03  7.22389E+03
 -6.05380E+03  3.26420E+03 -6.04826E+03 -3.22947E+02 -3.16966E+03 -5.64821E+03  1.20372E+03 -3.73704E+03
  3.95151E+03 -3.04444E+03  4.06041E+03  2.35985E+03  3.41679E+02  4.01149E+03 -1.49380E+03  3.39244E+03
 -1.85313E+03  3.17146E+03 -1.36296E+03  5.25889E+02 -3.28483E+02  1.13007E+03 -1.62644E+03  1.27121E+03
 -1.62826E+03  2.98461E+03 -4.64901E+03  2.10050E+03 -7.27216E+03  4.84426E+02 -8.60731E+03 -4.85536E+03
 -4.19429E+03 -9.77061E+03  1.74953E+03 -1.12318E+04  6.52206E+03 -8.43389E+03  9.86022E+03 -3.96290E+03
  9.74540E+03  1.83519E+03  5.76371E+03  7.03315E+03  6.06829E+02  6.25384E+03 -2.98465E+03  5.79807E+03
 -4.50682E+03  1.98266E+03 -2.64767E+03 -7.81291E+02 -7.91640E+02 -7.66573E+02 -9.44856E+02  9.61986E+01
 -1.87732E+03  6.51332E+01 -1.42294E+03 -5.37062E+02 -6.70760E+02 -2.34475E+03  9.59919E+02 -2.72833E+03
  3.38594E+03 -2.28025E+03  4.14272E+03 -6.46050E+02  5.06933E+03  3.82759E+03  1.21665E+03  6.89113E+03
 -3.62374E+03  9.06521E+03 -7.63085E+03  5.69295E+03 -8.95737E+03 -1.04908E+03 -6.18931E+03 -5.15026E+03
 -2.84539E+03 -7.34466E+03  1.98342E+03 -6.67613E+03  4.60433E+03 -3.90651E+03  4.14465E+03  3.19769E+02
  2.34633E+03  2.11322E+03 -7.55114E+01  1.36312E+03 -6.62499E+02 -3.41999E+01  3.72029E+02 -1.27129E+03
  1.83011E+03 -4.45262E+02  2.84220E+03  1.35013E+03  1.64440E+03  2.12186E+03  1.07034E+02  2.98835E+03
 -3.26722E+03  3.42149E+03 -4.03570E+03  9.35108E+02 -3.91288E+03 -3.39068E+03  3.09231E+02 -6.28590E+03
  3.78280E+03 -5.02221E+03  5.21816E+03 -1.46345E+03  5.23276E+03  1.00483E+03  3.54041E+03  4.31066E+03
  8.51924E+02  3.97272E+03 -1.69358E+03  2.97036E+03 -2.83675E+03  2.93576E+03 -2.57612E+03 -3.96655E+02
 -8.70161E+02  5.57829E+02 -2.13603E+03  4.58009E+01 -2.78188E+03  8.07530E+02 -3.79136E+03 -1.07489E+03
 -4.14870E+03 -1.76730E+03 -6.45909E+02 -4.55983E+03  2.68439E+03 -4.94286E+03  3.94450E+03 -1.35939E+03
  4.42066E+03  7.82374E+02  2.03243E+03  3.05446E+03 -4.54361E+02  3.83427E+03 -3.41793E+03  2.76406E+03
