 $NMID ID='MM_0lb_SNR400_7hz_g55_25.RAW', FMTDAT='(8E13.5)'
 TRAMP=1., VOLUME=1. $END
  3.08990E+05  6.69998E+02  3.37766E+05  2.50454E+05  8.47431E+04  3.39539E+05 -1.32879E+05  2.52717E+05
 -1.91053E+05  8.39628E+04 -1.12781E+05 -3.20324E+04  7.92595E+02 -5.13935E+04  5.35179E+04 -1.55092E+03
  3.65811E+04  5.24861E+04 -1.75239E+04  7.63567E+04 -6.15121E+04  6.55113E+04 -8.57414E+04  3.34555E+04
 -8.35999E+04 -1.14627E+04 -5.80488E+04 -5.22870E+04 -1.43769E+04 -7.15142E+04  2.90167E+04 -4.65736E+04
  4.15234E+04  3.37099E+03  1.77274E+04  4.87758E+04 -3.44722E+04  4.86972E+04 -6.95492E+04  4.62582E+02
 -5.62683E+04 -5.84316E+04 -7.94049E+03 -7.95985E+04  3.48003E+04 -5.80480E+04  5.03918E+04 -1.90621E+04
  4.58874E+04  1.15900E+04  3.33721E+04  2.69906E+04  1.60309E+04  3.11931E+04 -5.77990E+03  2.73576E+04
 -2.23099E+04  1.25053E+04 -1.81944E+04 -7.07960E+03  7.76926E+03 -6.59766E+03  2.41503E+04  1.51426E+04
  7.51496E+03  3.81834E+04 -3.47719E+04  3.89866E+04 -6.64473E+04  2.14162E+03 -5.95618E+04 -4.56376E+04
 -1.28668E+04 -6.67007E+04  4.29858E+04 -4.81365E+04  6.26970E+04 -2.17375E+03  3.84211E+04  3.44408E+04
 -5.84561E+03  4.09023E+04 -3.24838E+04  1.98611E+04 -3.51847E+04 -3.28843E+03 -2.00750E+04 -1.22993E+04
 -1.00099E+04 -1.58216E+04  5.93233E+02 -2.03969E+04  8.53973E+03 -2.34412E+04  1.64686E+04 -1.25934E+04
  1.09988E+04  6.15665E+03 -1.15938E+04  1.29979E+04 -2.48577E+04 -8.07718E+03 -8.80162E+03 -3.93291E+04
  2.52111E+04 -4.89074E+04  5.43132E+04 -2.06548E+04  5.03889E+04  2.15174E+04  1.73807E+04  4.88475E+04
 -1.75538E+04  3.75054E+04 -2.87492E+04  3.15091E+03 -1.27449E+04 -3.01365E+04  2.23246E+04 -3.84496E+04
  4.64596E+04 -1.21032E+04  4.29537E+04  2.51228E+04  2.34640E+04  5.28122E+04 -8.98574E+03  5.97968E+04
 -3.70556E+04  4.12665E+04 -5.05290E+04  1.21045E+04 -5.03515E+04 -1.92632E+04 -2.74149E+04 -4.41330E+04
  7.17705E+03 -4.44444E+04  3.55493E+04 -1.83480E+04  3.37033E+04  1.05666E+04  5.64955E+03  2.18537E+04
 -1.47299E+04  1.13341E+04 -1.07707E+04 -7.01572E+03  5.73667E+03 -1.15698E+04  1.89848E+04  5.50622E+03
  1.58470E+04  2.36416E+04 -4.98720E+03  2.80771E+04 -2.39388E+04  1.62176E+04 -3.31191E+04 -1.68390E+03
 -2.87909E+04 -1.95219E+04 -1.26523E+04 -2.72157E+04  4.54515E+03 -2.87771E+04  2.16343E+04 -2.56610E+04
  3.54206E+04 -1.54069E+04  4.11121E+04  5.99059E+03  2.93843E+04  2.68410E+04  4.46258E+03  4.41626E+04
 -2.02412E+04  3.67283E+04 -3.17173E+04  1.28020E+04 -2.30070E+04 -1.03523E+04 -5.74330E+03 -1.21033E+04
 -7.89587E+01 -1.22975E+03 -7.84620E+03  8.29414E+03 -2.36020E+04  5.87676E+03 -2.26196E+04 -1.09946E+04
 -1.31441E+04 -2.53270E+04  6.63790E+03 -2.95054E+04  2.10602E+04 -2.14548E+04  2.50628E+04 -1.59087E+03
  1.58935E+04  1.77770E+04 -2.07955E+03  2.50079E+04 -1.85063E+04  1.47667E+04 -2.60963E+04 -5.35229E+03
 -1.90586E+04 -2.36283E+04 -2.11142E+03 -3.07043E+04  1.37539E+04 -2.54179E+04  2.58131E+04 -1.27755E+04
  2.40870E+04 -4.80762E+02  1.76228E+04  5.90374E+03  1.01319E+04  2.65300E+03  1.37293E+04 -2.12287E+03
  2.52910E+04  3.85499E+03  2.83556E+04  2.01009E+04  2.00511E+04  4.19309E+04 -2.22654E+03  4.99232E+04
 -2.75839E+04  4.17845E+04 -4.81976E+04  2.18490E+04 -5.00674E+04 -3.24557E+03 -4.10144E+04 -2.89497E+04
 -1.58211E+04 -4.30080E+04  1.52915E+04 -3.67042E+04  3.09940E+04 -1.64224E+04  2.68932E+04  8.68364E+03
  8.62005E+03  2.03886E+04 -1.24515E+04  1.64024E+04 -2.39057E+04  2.49321E+03 -1.72320E+04 -1.43765E+04
  3.40188E+02 -2.18444E+04  1.19909E+04 -1.55281E+04  1.49940E+04 -1.24141E+03  3.94541E+03  9.54951E+03
 -1.01621E+04  5.19946E+03 -1.03865E+04 -7.47009E+03 -2.25369E+03 -2.10448E+04  1.30098E+04 -2.27175E+04
  2.72003E+04 -1.39051E+04  3.02060E+04  3.82765E+03  2.77938E+04  2.10842E+04  1.20762E+04  3.41820E+04
 -6.88905E+03  3.56582E+04 -2.34464E+04  2.17261E+04 -2.61786E+04  3.74032E+03 -1.67778E+04 -7.23559E+03
 -7.55841E+03 -7.56025E+03 -7.15246E+02  1.36251E+03 -3.83109E+03  4.50485E+03 -8.83768E+03  5.75942E+03
 -1.67313E+04 -1.16637E+03 -1.75710E+04 -1.37620E+04 -7.05558E+03 -2.19824E+04  7.29874E+03 -1.82081E+04
  1.44070E+04 -8.15414E+03  1.07479E+04  4.63999E+03  1.50200E+02  7.09699E+03 -8.83035E+03  5.39544E+02
 -7.97806E+03 -1.18501E+04 -1.24385E+03 -1.82225E+04  1.08392E+04 -1.88569E+04  2.41074E+04 -1.11348E+04
  2.73857E+04  4.02856E+03  2.04575E+04  1.66955E+04  3.76587E+03  2.26990E+04 -1.08798E+04  1.75959E+04
 -1.37594E+04  4.82405E+03 -7.18361E+03 -4.08746E+03  2.61511E+03 -5.93208E+03  9.99036E+03 -1.43245E+03
  7.91119E+03  8.10641E+03  1.34712E+03  1.46835E+04 -1.12707E+04  1.47616E+04 -1.91608E+04  3.15461E+03
 -1.29530E+04 -1.00308E+04 -6.20404E+01 -1.73945E+04  1.11003E+04 -8.24844E+03  1.02679E+04  4.22440E+03
  2.90685E+03  1.14583E+04 -9.17100E+03  1.46938E+04 -1.67754E+04  6.09130E+03 -1.81724E+04 -4.84189E+03
 -9.79328E+03 -2.04641E+04  4.19001E+03 -2.19942E+04  1.86132E+04 -1.29686E+04  2.08656E+04  4.37587E+03
  1.10763E+04  1.61283E+04 -2.57905E+03  1.91170E+04 -1.42115E+04  1.07682E+04 -1.50511E+04 -1.71406E+03
 -1.21747E+04 -1.24413E+04 -1.61396E+03 -1.44621E+04  7.87820E+03 -1.17707E+04  9.86964E+03 -4.06360E+03
  6.08075E+03  3.00769E+03 -1.67766E+03  8.31531E+02 -1.75610E+03 -4.98856E+03  4.43811E+03 -1.06716E+04
  1.44640E+04 -6.61542E+03  2.01445E+04  3.28656E+03  1.97573E+04  1.40057E+04  1.22724E+04  2.64632E+04
 -7.19106E+03  2.98164E+04 -2.45217E+04  2.11889E+04 -3.25014E+04  5.36451E+03 -2.63111E+04 -1.19070E+04
 -1.25354E+04 -2.18793E+04  4.64120E+02 -1.92640E+04  6.07663E+03 -1.06856E+04  6.72151E+03 -6.19236E+03
  4.29310E+03 -3.44515E+03  4.68904E+03 -4.93012E+03  6.83410E+03 -4.28594E+03  1.03231E+04 -1.66693E+03
  1.30074E+04  2.35969E+03  7.62088E+03  1.12229E+04 -2.40540E+03  1.49638E+04 -1.39508E+04  1.02395E+04
 -1.85502E+04 -1.36519E+03 -1.19968E+04 -1.26327E+04 -2.48820E+03 -2.03314E+04  1.02273E+04 -1.97805E+04
  2.24522E+04 -1.14993E+04  2.44589E+04  3.19728E+03  1.70570E+04  1.79707E+04  3.44726E+03  2.30061E+04
 -9.07027E+03  1.81177E+04 -1.35067E+04  6.76523E+03 -9.00420E+03 -2.48678E+03 -4.08117E+03 -2.71434E+03
 -2.22247E+03 -5.97568E+02 -2.82860E+03  4.28137E+03 -7.97433E+03  2.95286E+03 -1.21797E+04 -1.46075E+03
 -1.03027E+04 -1.26846E+04 -2.24489E+02 -1.85379E+04  1.18888E+04 -1.70214E+04  1.95319E+04 -5.20771E+03
  1.92279E+04  9.15874E+03  8.67399E+03  1.73944E+04 -3.74735E+03  1.89661E+04 -1.44434E+04  1.21032E+04
 -1.80224E+04  1.51170E+03 -1.34822E+04 -1.13979E+04 -1.34059E+03 -1.67735E+04  8.14905E+03 -1.08182E+04
  1.34691E+04 -3.45870E+03  9.05798E+03  3.60803E+03  3.32914E+03  6.27186E+03  2.46557E+03  3.78129E+03
  3.43708E+03  1.40123E+03  4.30686E+03  1.94236E+03  6.29308E+03  7.14265E+03  4.83952E+03  1.11306E+04
 -4.09975E+03  1.60091E+04 -1.31958E+04  1.48759E+04 -2.06117E+04  4.31560E+03 -2.08980E+04 -9.17759E+03
 -1.08131E+04 -2.04380E+04  3.34785E+03 -2.17219E+04  1.26396E+04 -1.38375E+04  1.72281E+04 -2.95276E+03
  1.26459E+04  5.97146E+03  3.83129E+03  1.16842E+04 -6.49614E+03  7.19648E+03 -8.15437E+03 -1.31889E+03
 -4.10308E+03 -8.06818E+03  4.75948E+03 -8.93285E+03  8.61274E+03 -3.88444E+03  8.04940E+03  1.84133E+03
  4.29328E+03  4.14449E+03  1.56771E+03  4.27653E+03 -7.99025E+02  2.19995E+03  2.53155E+03 -1.11888E+03
  3.29425E+03 -8.66102E+02  8.77805E+03  4.00702E+03  5.56174E+03  1.07507E+04 -2.17404E+03  1.39904E+04
 -1.02887E+04  9.32735E+03 -1.35147E+04  2.12550E+03 -1.12189E+04 -4.49347E+03 -4.50967E+03 -8.38383E+03
  1.59283E+03 -8.22735E+03  5.45050E+03 -3.58141E+03  5.10280E+03  4.29550E+03 -2.17821E+03  7.07414E+03
 -8.20701E+03  4.18723E+03 -1.02749E+04 -5.01504E+03 -5.51391E+03 -1.11744E+04  2.07979E+03 -1.07987E+04
  7.77049E+03 -8.00521E+03  8.98523E+03 -1.01074E+03  6.89418E+03  3.93983E+03  6.10982E+02  6.29349E+03
 -3.76830E+03  2.38395E+03 -5.86442E+03 -4.27817E+03  1.92740E+03 -9.53624E+03  1.04124E+04 -8.55863E+03
  1.45924E+04  9.67342E+02  1.31301E+04  8.69465E+03  4.21874E+03  1.45189E+04 -5.45874E+03  1.31545E+04
 -1.12965E+04  6.45958E+03 -1.20108E+04 -2.00556E+03 -6.52350E+03 -9.38342E+03  2.95745E+03 -9.88799E+03
  8.44265E+03 -4.26823E+03  7.20684E+03  3.19206E+03  3.17600E+03  7.47572E+03 -1.62080E+03  7.11901E+03
 -3.93824E+03  4.59028E+03 -2.85202E+03  6.57594E+02 -2.14801E+03  1.50828E+03 -1.49816E+03  2.43895E+03
 -3.98118E+03  5.59777E+03 -8.73515E+03  4.57835E+03 -1.39836E+04  7.66101E+02 -1.58881E+04 -9.70712E+03
 -8.37107E+03 -1.90164E+04  3.67381E+03 -2.11811E+04  1.42466E+04 -1.65280E+04  1.99188E+04 -5.62339E+03
  1.94851E+04  4.16673E+03  1.22466E+04  1.31261E+04  1.48409E+03  1.60936E+04 -6.35912E+03  1.12594E+04
 -8.87594E+03  4.49514E+03 -5.76433E+03 -1.22038E+03 -1.46869E+03 -1.20473E+03  1.07055E+02 -1.28799E+03
 -2.46825E+03  3.40613E+02 -2.95536E+03 -5.61542E+02 -1.19953E+03 -3.31379E+03  9.00771E+02 -4.82373E+03
  6.61261E+03 -5.10836E+03  9.37321E+03  9.37212E+01  1.13893E+04  8.12848E+03  2.32220E+03  1.49861E+04
 -6.82971E+03  1.69190E+04 -1.56975E+04  1.02178E+04 -1.94055E+04 -1.66374E+03 -1.49409E+04 -1.13642E+04
 -6.53419E+03 -1.62020E+04  4.62816E+03 -1.43109E+04  9.67473E+03 -8.17998E+03  1.01139E+04  1.00040E+03
  6.31343E+03  5.19635E+03 -1.29128E+03  4.67084E+03 -3.37845E+03 -1.23214E+03  4.21008E+02 -3.52468E+03
  4.69889E+03 -2.71616E+03  6.93505E+03  1.79589E+03  4.90415E+03  7.10082E+03  9.12488E+02  8.37272E+03
 -6.76149E+03  8.01782E+03 -1.09917E+04  6.13230E+02 -9.73699E+03 -7.75000E+03 -1.57443E+03 -1.39337E+04
  8.49424E+03 -1.11086E+04  1.25819E+04 -2.95481E+03  1.21912E+04  3.69604E+03  6.85728E+03  9.83245E+03
  1.30116E+03  1.07114E+04 -4.43677E+03  8.55126E+03 -6.88176E+03  5.03237E+03 -6.10030E+03  3.27885E+02
 -3.10288E+03  6.22246E+02 -3.39851E+03  2.13830E+03 -5.61097E+03  1.47356E+03 -8.09228E+03 -7.66413E+02
 -8.19765E+03 -6.38346E+03 -1.84578E+03 -1.02872E+04  4.91026E+03 -1.10867E+04  9.35410E+03 -5.72977E+03
  1.06366E+04  1.82346E+03  5.90244E+03  7.86329E+03 -1.07095E+03  1.05991E+04 -7.55861E+03  7.51315E+03
