 $NMID ID='MM_0lb_SNR400_9hz_g60_41.RAW', FMTDAT='(8E13.5)'
 TRAMP=1., VOLUME=1. $END
  3.09894E+05  1.09615E+03  3.37388E+05  2.50993E+05  8.46183E+04  3.38275E+05 -1.32407E+05  2.52508E+05
 -1.90902E+05  8.42790E+04 -1.12256E+05 -3.24136E+04 -9.16342E+02 -5.11108E+04  5.46391E+04 -2.23736E+02
  3.57665E+04  5.28383E+04 -1.60984E+04  7.49092E+04 -6.13648E+04  6.44590E+04 -8.54427E+04  3.36205E+04
 -8.32773E+04 -1.13368E+04 -5.89243E+04 -5.28698E+04 -1.46363E+04 -7.07992E+04  2.84942E+04 -4.67277E+04
  4.19401E+04  3.94318E+03  1.70261E+04  4.83010E+04 -3.46050E+04  4.85847E+04 -6.86941E+04  8.84115E+02
 -5.55358E+04 -5.74460E+04 -6.64832E+03 -8.03674E+04  3.55255E+04 -5.71966E+04  4.94770E+04 -1.85922E+04
  4.55531E+04  1.17090E+04  3.33115E+04  2.72731E+04  1.61042E+04  3.18248E+04 -6.15985E+03  2.84704E+04
 -2.27005E+04  1.13456E+04 -1.76486E+04 -6.36001E+03  6.86255E+03 -7.44421E+03  2.45203E+04  1.40391E+04
  6.68527E+03  3.78919E+04 -3.50439E+04  3.71969E+04 -6.63503E+04  1.84643E+03 -5.94926E+04 -4.46285E+04
 -1.25526E+04 -6.78368E+04  4.18331E+04 -4.77932E+04  6.24345E+04 -2.65322E+03  3.79275E+04  3.44723E+04
 -5.65843E+03  4.00543E+04 -3.24739E+04  1.92948E+04 -3.36947E+04 -3.62038E+03 -2.04895E+04 -1.17804E+04
 -9.89033E+03 -1.52957E+04 -1.59617E+03 -2.03604E+04  9.37931E+03 -2.39390E+04  1.60841E+04 -1.26254E+04
  1.04640E+04  6.41155E+03 -1.10996E+04  1.30912E+04 -2.30048E+04 -6.66140E+03 -7.86612E+03 -3.81388E+04
  2.52256E+04 -4.74002E+04  5.28288E+04 -2.14523E+04  4.95302E+04  2.03511E+04  1.69922E+04  4.80565E+04
 -1.69472E+04  3.64936E+04 -2.76355E+04  2.28878E+03 -1.22598E+04 -2.95803E+04  2.17152E+04 -3.77212E+04
  4.59919E+04 -1.15419E+04  4.08089E+04  2.53865E+04  2.17656E+04  5.26129E+04 -8.00586E+03  5.72126E+04
 -3.71439E+04  4.00537E+04 -4.86266E+04  1.08978E+04 -4.90619E+04 -1.92059E+04 -2.73312E+04 -4.35916E+04
  8.46595E+03 -4.30974E+04  3.53366E+04 -1.72001E+04  3.25933E+04  1.14456E+04  5.43081E+03  2.13038E+04
 -1.49670E+04  1.06336E+04 -1.11700E+04 -6.51660E+03  5.07076E+03 -1.16196E+04  1.96062E+04  6.05177E+03
  1.38510E+04  2.34154E+04 -5.73451E+03  2.72507E+04 -2.31936E+04  1.54217E+04 -3.17607E+04 -2.73667E+03
 -2.66355E+04 -1.89240E+04 -1.28910E+04 -2.60902E+04  4.20874E+03 -2.69492E+04  2.09059E+04 -2.45233E+04
  3.35331E+04 -1.41076E+04  3.94790E+04  5.25706E+03  2.74253E+04  2.54760E+04  3.97923E+03  4.19197E+04
 -2.07424E+04  3.46167E+04 -3.15243E+04  1.25092E+04 -2.27012E+04 -1.02288E+04 -4.97249E+03 -1.25061E+04
 -3.89162E+02 -4.77162E+02 -9.09164E+03  8.56079E+03 -2.09939E+04  4.81980E+03 -2.06512E+04 -1.05018E+04
 -1.23623E+04 -2.42944E+04  6.10233E+03 -2.96091E+04  1.88590E+04 -2.11793E+04  2.27924E+04 -1.18552E+03
  1.54413E+04  1.66389E+04 -1.46758E+03  2.36538E+04 -1.76836E+04  1.45212E+04 -2.37931E+04 -4.96996E+03
 -1.78100E+04 -2.22288E+04 -2.09895E+03 -2.82974E+04  1.32711E+04 -2.37250E+04  2.39715E+04 -1.36724E+04
  2.29130E+04 -3.53550E+02  1.69709E+04  5.18044E+03  9.19687E+03  1.10790E+03  1.29864E+04 -3.17505E+03
  2.29695E+04  2.54186E+03  2.73876E+04  1.89767E+04  1.86614E+04  3.92693E+04 -2.86899E+03  4.71785E+04
 -2.70447E+04  3.94724E+04 -4.38889E+04  2.03421E+04 -4.64155E+04 -3.55322E+03 -3.81782E+04 -2.77661E+04
 -1.57771E+04 -3.97927E+04  1.50052E+04 -3.44953E+04  2.96660E+04 -1.54780E+04  2.46380E+04  9.03095E+03
  8.30823E+03  1.87406E+04 -1.13141E+04  1.60102E+04 -2.15077E+04  2.07034E+03 -1.57966E+04 -1.28720E+04
 -1.31394E+02 -1.92134E+04  1.12150E+04 -1.43705E+04  1.47443E+04 -2.10758E+03  3.34047E+03  9.18695E+03
 -9.48733E+03  4.25624E+03 -9.22843E+03 -7.37036E+03 -1.94808E+03 -1.93300E+04  1.35188E+04 -2.13421E+04
  2.45582E+04 -1.17218E+04  2.77981E+04  3.07699E+03  2.45372E+04  1.97704E+04  1.14791E+04  3.01107E+04
 -6.47914E+03  3.40630E+04 -2.16340E+04  2.03412E+04 -2.30360E+04  3.62869E+03 -1.63285E+04 -5.38947E+03
 -6.74841E+03 -7.83993E+03 -1.90806E+02 -2.69136E+02 -2.95133E+03  3.95149E+03 -8.12967E+03  4.98069E+03
 -1.57359E+04 -9.05606E+02 -1.57434E+04 -1.32078E+04 -7.27789E+03 -2.11230E+04  6.34976E+03 -1.68753E+04
  1.36157E+04 -7.06385E+03  9.69632E+03  4.19761E+03  2.88567E+02  7.54607E+03 -8.77801E+03  7.28323E+02
 -8.42299E+03 -1.02043E+04 -1.14770E+03 -1.61252E+04  9.99439E+03 -1.71029E+04  2.16874E+04 -8.94289E+03
  2.47807E+04  1.98297E+03  1.79940E+04  1.56462E+04  2.89428E+03  1.99940E+04 -9.22183E+03  1.60324E+04
 -1.30769E+04  4.75912E+03 -7.72710E+03 -4.02398E+03  2.17805E+03 -5.09321E+03  9.22977E+03 -5.59327E+02
  8.43010E+03  7.78698E+03  8.98559E+02  1.39405E+04 -8.90408E+03  1.30765E+04 -1.69694E+04  2.72167E+03
 -1.19184E+04 -9.18458E+03 -6.63193E+02 -1.41768E+04  8.58370E+03 -7.80510E+03  1.07110E+04  3.72330E+03
  1.80075E+03  1.17121E+04 -8.64235E+03  1.20816E+04 -1.42339E+04  5.68449E+03 -1.44635E+04 -6.45468E+03
 -9.05863E+03 -1.58540E+04  4.34204E+03 -2.02064E+04  1.63319E+04 -1.14785E+04  1.80548E+04  4.24055E+03
  1.04605E+04  1.39951E+04 -1.84351E+03  1.65617E+04 -1.26337E+04  9.39114E+03 -1.34518E+04 -1.23978E+03
 -1.14367E+04 -1.12462E+04 -2.17248E+03 -1.24405E+04  6.77540E+03 -9.57446E+03  8.02634E+03 -4.17085E+03
  5.11656E+03  2.23547E+03 -2.12353E+03  1.73757E+03 -6.75148E+02 -3.91180E+03  3.03425E+03 -8.49157E+03
  1.29750E+04 -4.56618E+03  1.78061E+04  1.68498E+03  1.68676E+04  1.22775E+04  1.10544E+04  2.17248E+04
 -5.93936E+03  2.61618E+04 -2.13212E+04  1.89314E+04 -2.79018E+04  4.11051E+03 -2.29539E+04 -9.92328E+03
 -1.05577E+04 -1.89527E+04 -2.47512E+02 -1.63096E+04  5.74073E+03 -9.29495E+03  5.79593E+03 -5.64542E+03
  4.21778E+03 -3.75463E+03  3.70254E+03 -3.88877E+03  7.07722E+03 -3.67764E+03  7.97388E+03 -1.55338E+03
  1.17438E+04  2.66951E+03  5.89607E+03  1.04697E+04 -3.18954E+03  1.25113E+04 -1.13575E+04  1.00466E+04
 -1.62235E+04 -2.01883E+03 -1.02228E+04 -1.10224E+04 -1.61407E+03 -1.70607E+04  9.19109E+03 -1.74959E+04
  1.79846E+04 -8.95264E+03  2.19759E+04  4.23485E+03  1.45285E+04  1.44759E+04  2.49698E+03  1.89927E+04
 -7.84757E+03  1.46450E+04 -1.19309E+04  4.98667E+03 -7.63461E+03 -2.66734E+03 -2.62680E+03 -2.04552E+03
 -1.35503E+03 -5.68092E+01 -2.35750E+03  2.68003E+03 -6.51559E+03  2.49600E+03 -1.11922E+04 -1.53492E+03
 -8.55783E+03 -1.09256E+04 -5.54479E+02 -1.52460E+04  9.83097E+03 -1.43712E+04  1.68659E+04 -5.05437E+03
  1.51350E+04  7.66513E+03  7.13343E+03  1.40932E+04 -3.05798E+03  1.64073E+04 -1.23295E+04  1.00673E+04
 -1.54154E+04  4.41672E+02 -1.13937E+04 -9.58972E+03 -1.85585E+03 -1.37108E+04  7.14451E+03 -1.00916E+04
  9.05139E+03 -2.45016E+03  7.55615E+03  3.40082E+03  2.85993E+03  4.71823E+03  1.73882E+03  1.91813E+03
  2.83954E+03  1.44151E+03  3.27903E+03  3.14253E+03  4.58097E+03  4.89795E+03  2.89382E+03  8.93580E+03
 -3.53869E+03  1.31472E+04 -1.10306E+04  1.24462E+04 -1.67810E+04  3.70974E+03 -1.78260E+04 -6.77726E+03
 -8.30991E+03 -1.60042E+04  2.09688E+03 -1.79583E+04  1.02431E+04 -1.19771E+04  1.39280E+04 -2.94363E+03
  1.02776E+04  6.14384E+03  1.90103E+03  9.08373E+03 -4.33023E+03  5.78542E+03 -6.25492E+03 -9.47665E+02
 -2.80468E+03 -7.02032E+03  3.77237E+03 -7.09459E+03  6.15669E+03 -3.40236E+03  7.29507E+03  1.29439E+03
  3.47911E+03  3.77171E+03  2.21210E+03  2.96714E+03 -6.01350E+02  3.20045E+03  1.52764E+03 -9.34974E+02
  3.69911E+03 -1.25085E+03  5.84420E+03  2.51964E+03  4.58997E+03  8.44435E+03 -1.52354E+03  1.18902E+04
 -8.59001E+03  6.58245E+03 -1.03685E+04  2.03294E+03 -9.11797E+03 -3.24927E+03 -3.65198E+03 -6.38889E+03
  1.51571E+03 -6.47593E+03  4.80641E+03 -2.34626E+03  3.64215E+03  3.77895E+03 -1.60572E+03  5.16223E+03
 -6.68180E+03  2.66143E+03 -7.89399E+03 -4.26888E+03 -4.42232E+03 -9.11321E+03  1.48551E+03 -9.75672E+03
  5.77893E+03 -5.24234E+03  6.31351E+03 -5.55842E+02  5.32967E+03  2.98291E+03  1.20655E+03  4.36695E+03
 -3.02984E+03  1.70538E+03 -3.88717E+03 -2.40920E+03  1.56379E+03 -6.55104E+03  8.36940E+03 -6.24876E+03
  1.02086E+04  2.06127E+02  1.05190E+04  7.55960E+03  3.30009E+03  1.10963E+04 -3.65800E+03  1.00889E+04
 -8.92656E+03  4.42509E+03 -9.06231E+03 -1.35041E+03 -4.07673E+03 -6.96931E+03  1.52370E+03 -6.27906E+03
  6.34444E+03 -3.42838E+03  5.92697E+03  2.64387E+03  2.05982E+03  6.69252E+03 -1.20358E+03  4.93501E+03
 -2.10034E+03  3.57848E+03 -2.78389E+03  1.18517E+03 -9.36655E+02  9.70536E+02 -2.46239E+03  2.48836E+03
 -2.91787E+03  4.17386E+03 -7.60722E+03  3.41017E+03 -1.03945E+04  2.39679E+02 -1.20890E+04 -6.87312E+03
 -6.55645E+03 -1.43719E+04  2.42217E+03 -1.68856E+04  1.05353E+04 -1.31962E+04  1.59010E+04 -4.66136E+03
  1.42986E+04  2.86553E+03  9.12422E+03  1.03893E+04  1.87527E+03  1.09802E+04 -4.12026E+03  8.09926E+03
 -6.22092E+03  3.18722E+03 -3.19801E+03 -1.61029E+03 -1.66368E+03 -5.18124E+02 -7.65878E+02  6.60414E+02
 -2.15209E+03  4.94788E+01 -2.54383E+03 -1.12154E+03 -6.47708E+02 -3.64642E+03  3.00470E+02 -4.05187E+03
  5.27464E+03 -3.17954E+03  7.21639E+03  3.02757E+02  7.32973E+03  7.20630E+03  2.13952E+03  1.08047E+04
 -5.36491E+03  1.28893E+04 -1.17158E+04  8.56316E+03 -1.42240E+04 -1.56928E+03 -1.02127E+04 -9.16588E+03
 -4.21285E+03 -1.20850E+04  3.19402E+03 -1.05989E+04  7.43565E+03 -6.80961E+03  7.23500E+03  1.54183E+02
  4.45894E+03  3.48878E+03 -4.35355E+02  2.37855E+03 -2.35139E+03 -1.41067E+03  2.83753E+01 -2.70775E+03
  2.37817E+03 -1.39151E+03  4.69684E+03  1.84728E+03  2.83182E+03  4.73229E+03 -4.49225E+02  5.00034E+03
 -5.64190E+03  5.49302E+03 -7.18926E+03  1.33482E+03 -7.15856E+03 -5.52450E+03 -9.62605E+02 -9.10641E+03
  5.44506E+03 -8.35057E+03  8.46717E+03 -2.86012E+03  8.86594E+03  2.12022E+03  5.80929E+03  6.56152E+03
  3.04027E+02  8.39136E+03 -2.91274E+03  5.82430E+03 -4.86730E+03  3.32888E+03 -4.20746E+03  7.17986E+01
 -2.58192E+03 -9.64506E+01 -3.35220E+03  1.72661E+03 -3.87304E+03  4.08701E+02 -5.67367E+03 -1.05526E+03
 -5.52620E+03 -4.56134E+03 -2.21337E+03 -7.75463E+03  3.69374E+03 -7.47615E+03  6.19150E+03 -3.87869E+03
  7.87905E+03  1.42220E+03  4.29609E+03  5.82477E+03 -4.91464E+02  8.19944E+03 -6.54631E+03  5.76716E+03
