 $NMID ID='MM_0lb_SNR400_20hz_g40_72.RAW', FMTDAT='(8E13.5)'
 TRAMP=1., VOLUME=1. $END
  3.09918E+05  5.23291E+02  3.37061E+05  2.49975E+05  8.44595E+04  3.37322E+05 -1.32376E+05  2.49611E+05
 -1.89070E+05  8.20199E+04 -1.10396E+05 -3.30110E+04  2.10665E+03 -4.98004E+04  5.40843E+04  4.85850E+02
  3.51111E+04  5.32146E+04 -1.70487E+04  7.45952E+04 -6.03461E+04  6.22695E+04 -8.26786E+04  3.15337E+04
 -7.85693E+04 -1.13971E+04 -5.57085E+04 -4.99552E+04 -1.50534E+04 -6.70877E+04  2.58277E+04 -4.39962E+04
  3.81347E+04  3.90806E+03  1.52499E+04  4.69422E+04 -3.38624E+04  4.54822E+04 -6.46733E+04 -7.72071E+02
 -5.13079E+04 -5.54887E+04 -6.21095E+03 -7.40216E+04  3.22750E+04 -5.22763E+04  4.51479E+04 -1.53904E+04
  4.05995E+04  1.04422E+04  2.99781E+04  2.40186E+04  1.59026E+04  2.75274E+04 -4.26545E+03  2.65165E+04
 -2.13952E+04  1.27909E+04 -2.01852E+04 -3.43840E+03  3.19377E+03 -7.35373E+03  2.10280E+04  9.96757E+03
  7.47529E+03  3.21076E+04 -2.98604E+04  3.31229E+04 -5.95966E+04  2.23618E+03 -5.48007E+04 -4.02386E+04
 -1.19922E+04 -5.96747E+04  3.75578E+04 -4.23337E+04  5.42041E+04 -1.74527E+03  3.02748E+04  3.00661E+04
 -7.36742E+03  3.21358E+04 -2.69553E+04  1.16655E+04 -2.59639E+04 -6.04910E+03 -1.27724E+04 -9.22426E+03
 -7.06043E+03 -1.03092E+04 -9.94429E+02 -1.61564E+04  6.19743E+03 -2.19533E+04  1.47036E+04 -1.44190E+04
  1.25208E+04  3.91978E+03 -4.77694E+03  1.30197E+04 -1.80120E+04 -1.50678E+03 -8.07134E+03 -2.83441E+04
  1.95534E+04 -3.95218E+04  4.30508E+04 -1.80854E+04  4.00067E+04  1.72484E+04  1.36398E+04  4.09669E+04
 -1.48298E+04  2.97861E+04 -2.21264E+04  1.13251E+03 -7.89921E+03 -2.54752E+04  2.02420E+04 -2.95572E+04
  3.60562E+04 -6.66691E+03  2.97098E+04  2.21725E+04  1.41479E+04  4.07086E+04 -7.07091E+03  4.25879E+04
 -2.67649E+04  2.79015E+04 -3.52242E+04  7.83801E+03 -3.59102E+04 -1.42332E+04 -2.03933E+04 -3.27065E+04
  7.28581E+03 -3.19613E+04  2.84239E+04 -1.14421E+04  2.54781E+04  1.12390E+04  2.49596E+03  1.73075E+04
 -1.28876E+04  6.40752E+03 -9.24334E+03 -7.94090E+03  5.64307E+03 -9.82640E+03  1.68034E+04  6.30334E+03
  1.11714E+04  2.14415E+04 -7.24912E+03  2.22217E+04 -2.13779E+04  7.76716E+03 -2.37907E+04 -6.80589E+03
 -1.51586E+04 -1.64564E+04 -4.82124E+03 -1.50403E+04  3.81757E+03 -1.21577E+04  1.10125E+04 -1.23478E+04
  1.89833E+04 -1.12200E+04  2.63316E+04  1.57269E+02  2.02840E+04  1.51810E+04  3.92811E+03  3.04754E+04
 -1.51359E+04  2.59219E+04 -2.50959E+04  9.28783E+03 -1.88616E+04 -1.07873E+04 -4.09967E+03 -1.37220E+04
  2.75438E+03 -4.94764E+03 -1.69852E+03  4.70149E+03 -1.13932E+04  5.41924E+03 -1.21763E+04 -4.51702E+03
 -7.95950E+03 -1.46236E+04  4.47645E+03 -1.70550E+04  1.13916E+04 -1.31035E+04  1.33716E+04 -1.22691E+03
  8.23653E+03  9.55015E+03 -9.57837E+02  1.44946E+04 -9.45505E+03  7.79181E+03 -1.41559E+04 -2.94606E+03
 -1.06441E+04 -1.28535E+04 -8.21890E+02 -1.74148E+04  7.90259E+03 -1.42551E+04  1.50520E+04 -6.40669E+03
  1.34158E+04  1.29092E+03  9.28593E+03  3.69031E+03  4.54421E+03 -6.81217E+01  6.68048E+03 -5.73169E+02
  1.27375E+04  2.36031E+03  1.31698E+04  1.15347E+04  7.51075E+03  2.25617E+04 -3.41153E+03  2.40178E+04
 -1.42841E+04  1.71946E+04 -2.11973E+04  8.05144E+03 -2.15989E+04 -8.13656E+02 -1.87703E+04 -1.19711E+04
 -9.57860E+03 -1.70366E+04  5.30449E+03 -1.67430E+04  1.46222E+04 -9.89778E+03  1.40348E+04  3.02633E+03
  6.47840E+03  9.95097E+03 -6.01471E+03  9.50856E+03 -1.17144E+04  2.94699E+03 -9.56937E+03 -7.18609E+03
 -4.88610E+01 -1.14155E+04  5.16787E+03 -8.79591E+03  7.35506E+03 -1.35876E+03  1.04446E+03  4.15362E+03
 -5.13535E+03  9.49285E+02 -2.71636E+03 -4.06512E+03  1.11315E+03 -8.26699E+03  7.04826E+03 -8.40219E+03
  1.13182E+04 -4.06572E+03  9.45982E+03  2.78264E+03  8.53788E+03  8.11262E+03  3.67722E+03  1.15400E+04
 -1.07985E+03  1.36899E+04 -8.01147E+03  8.96341E+03 -1.02798E+04  2.29419E+03 -7.15962E+03 -8.17438E+02
 -4.48987E+03 -2.22122E+03 -8.87502E+02  1.54762E+03 -1.99831E+03  1.91888E+03 -3.30991E+03  3.12816E+03
 -7.41796E+03 -4.33519E+02 -7.55007E+03 -6.08029E+03 -2.94942E+03 -1.07381E+04  3.11904E+03 -7.51680E+03
  6.27739E+03 -3.29411E+03  4.92301E+03  2.03932E+03  3.76985E+02  2.32712E+03 -2.68545E+03 -1.54408E+02
 -2.83883E+03 -4.32900E+03 -4.34431E+02 -6.29662E+03  3.30464E+03 -6.48046E+03  8.64017E+03 -3.32037E+03
  1.00709E+04  2.73508E+02  7.36413E+03  5.38802E+03  1.69555E+03  6.96482E+03 -4.46687E+03  7.41129E+03
 -6.48178E+03  2.97464E+03 -3.02604E+03 -7.02645E+02  1.10101E+03 -1.26750E+03  4.85911E+03 -9.50712E+02
  3.45195E+03  2.61083E+03  1.22015E+03  5.01209E+03 -3.97897E+03  5.07360E+03 -6.80980E+03  1.49789E+03
 -3.99086E+03 -2.82789E+03  9.05319E+01 -5.67215E+03  2.56748E+03 -2.26701E+03  3.09567E+03  8.73156E+02
  6.18711E+02  2.46731E+03 -3.50212E+03  4.16999E+03 -3.70889E+03  2.03189E+03 -3.64100E+03 -9.76178E+02
 -1.94576E+03 -5.02082E+03  8.99490E+02 -5.83614E+03  4.43702E+03 -3.92668E+03  4.97084E+03  9.58303E+02
  3.93912E+03  4.35507E+03  3.88095E+02  6.24520E+03 -3.86581E+03  3.22466E+03 -4.15621E+03  1.99623E+02
 -5.00480E+03 -4.33326E+03 -9.56626E+02 -4.08675E+03  2.25276E+03 -3.89067E+03  2.42471E+03 -3.15700E+03
  2.42808E+03  5.67071E+01  7.95539E+02  1.26548E+03  7.58193E+02  1.73866E+02 -3.49848E+01 -1.60436E+03
  2.93412E+03 -6.50125E+01  4.32252E+03  4.58106E+02  4.18993E+03  2.50797E+03  4.70080E+03  5.36570E+03
 -9.00932E+02  6.72177E+03 -6.12844E+03  5.35811E+03 -8.33449E+03  1.08288E+03 -6.38477E+03 -2.09294E+03
 -3.86092E+03 -5.80095E+03 -3.29850E+02 -3.87312E+03  1.85893E+03 -2.05050E+03  1.91956E+03 -1.92324E+03
  7.81961E+02 -1.00764E+03  1.38946E+03 -2.56196E+03  3.03653E+03 -1.22950E+03  2.78958E+03  7.59811E+02
  3.57211E+03  1.67775E+03  6.80038E+02  2.75166E+03 -1.22261E+03  1.90713E+03 -3.90879E+03  1.74681E+03
 -3.54122E+03 -1.19267E+03 -7.46983E+02 -2.28808E+03  2.57251E+02 -3.86503E+03  2.85983E+03 -4.15698E+03
  3.72571E+03 -2.84347E+03  5.47582E+03 -8.67715E+01  3.87634E+03  3.22889E+03  9.01731E+02  5.18991E+03
 -1.89213E+03  4.45274E+03 -2.68488E+03  2.06752E+03 -9.55301E+02 -1.09590E+03 -5.29205E+02 -4.00602E+02
 -7.62471E+02  4.77966E+02 -9.05743E+02  1.80884E+03 -1.63953E+03  9.46923E+02 -3.26447E+03 -2.44705E+02
 -1.17168E+03 -3.90081E+03  8.86031E+02 -3.76958E+03  2.13952E+03 -3.68703E+03  2.86546E+03 -7.80662E+02
  3.21597E+03  2.01442E+03  1.78448E+03  2.85153E+03 -4.11036E+02  4.00213E+03 -1.94920E+03  1.78608E+03
 -3.18509E+03  3.41019E+02 -2.15260E+03 -1.70451E+03 -5.83974E+02 -2.77757E+03  8.16221E+02 -1.61033E+03
  1.96352E+03 -1.01592E+03  1.52078E+03  1.59631E+02  1.06096E+02  1.40755E+03  1.03338E+03  6.95738E+02
  1.65568E+03  7.27792E+02  9.72109E+02  7.76261E+02  7.71626E+02  2.21375E+03  1.06383E+03  8.99195E+02
 -1.22929E+03  2.36542E+03 -1.79411E+03  3.11983E+03 -2.08776E+03  1.28729E+03 -4.01928E+03 -1.71480E+02
 -9.45213E+02 -3.00004E+03  7.64521E+02 -3.93872E+03  9.05941E+02 -1.75744E+03  1.93100E+03 -7.33513E+02
  2.23170E+03  1.39039E+03  2.00551E+02  1.57749E+03 -3.61344E+02  9.96752E+02 -1.11333E+03 -1.89871E+02
 -3.80147E+02 -1.70128E+03  1.12100E+03 -9.44342E+02  3.52502E+02 -5.74469E+02  7.66077E+02  3.92757E+02
  4.02304E+02  1.31867E+02  4.75558E+02 -6.49549E+02 -2.30778E+02  2.32669E+02  1.30630E+03 -4.25358E+02
  5.69482E+02 -1.12928E+02  1.36045E+03  7.13279E+02  2.26755E+02  1.98422E+03 -7.52130E+02  2.74927E+03
 -1.72026E+03  1.18487E+03 -1.48070E+03  3.75311E+02 -1.64863E+03 -7.56748E+02  1.79954E+02 -4.39739E+02
  6.67281E+01 -6.57835E+02  9.61654E+02 -2.12364E+02  4.36043E+02  1.45285E+03 -1.18701E+03  1.25417E+03
 -1.51417E+03  5.51116E+02 -7.31968E+02 -1.37028E+03 -3.85915E+02 -2.21306E+03  2.49918E+02 -1.15817E+03
  5.46093E+02 -7.52408E+02  5.20471E+02  1.48864E+02  1.04000E+03 -4.36743E+02  6.04907E+02  1.13144E+03
 -1.69968E+02  6.38865E+01 -9.54259E+02  4.22382E+02  1.00047E+03 -8.24986E+02  1.23412E+03 -7.43891E+02
  5.93827E+02  1.53503E+02  2.61135E+03  7.69072E+02  9.55061E+02  9.91282E+02  3.26681E+02  9.15186E+02
 -8.02782E+02  2.91188E+02 -1.12026E+03  8.09262E+01 -1.03709E+03 -1.06456E+03 -8.09199E-02  3.98979E+01
  1.92799E+03  2.93950E+02  8.20179E+02  4.85760E+02 -2.45961E+02  7.77845E+02  5.99932E+02  1.11803E+03
 -9.75056E+01  1.27652E+03 -2.57517E+02  3.72844E+02 -3.42369E+02  2.20994E+02 -1.28783E+03  7.07385E+02
 -4.71465E+02  8.51005E+02 -1.41855E+03  4.53334E+02 -1.88077E+03 -3.42555E+01 -1.87315E+03 -4.38749E+02
 -9.50756E+02 -1.80622E+03  6.99090E+01 -2.44628E+03  6.96402E+02 -1.72981E+03  2.31718E+03 -6.89927E+02
  2.13200E+03 -3.29592E+02  4.06219E+02  1.17462E+03 -4.92909E+02  1.02437E+03 -1.16430E+02  8.31283E+02
 -1.11181E+03  3.79497E+01 -3.11295E+02  1.80554E+02 -3.30976E+02  1.61683E+02 -5.99960E+02 -5.41854E+02
 -1.00925E+03 -5.76497E+02 -5.11132E+02  2.11574E+01  6.65291E+02 -8.44204E+02 -6.87195E+02 -4.70719E+02
  1.38210E+03 -7.27364E+02  7.55025E+01  7.67711E+02  7.24140E+02  8.81749E+02 -2.26614E+02  1.06590E+03
 -6.58389E+02  1.43727E+03 -1.12103E+03  1.05939E+03 -1.09614E+03  3.00223E+02 -1.50543E+03 -1.19315E+03
 -9.81008E+02 -4.63285E+02  4.19562E+02 -1.03349E+03 -2.88758E+01  2.09218E+02  7.32498E+02  4.36413E+02
  3.09661E+02  4.30086E+02  1.36817E+02  5.34170E+02  1.77692E+02  1.92549E+02 -1.17019E+01 -3.15801E+02
  2.64583E+02  4.70062E+02 -1.79225E+02  2.76441E+02  2.98237E+01 -9.36634E+01  8.80941E+02  3.40028E+02
 -7.26679E+02  6.01693E+02 -8.18581E+01 -1.37530E+02 -5.40279E+02 -1.02946E+02 -2.05078E+02 -1.29731E+03
  4.52272E+02 -4.26619E+02 -1.82379E+02 -1.63540E+02  6.47158E+02 -9.32986E+02  1.53270E+02  5.11299E+02
  2.69776E+02 -1.93737E+02 -4.64751E+02  1.61336E+02 -1.55475E+02  4.04073E+02 -4.63895E+02 -3.33983E+02
 -1.24917E+02  3.34615E+02 -7.54219E+02  1.55677E+02 -6.23552E+02  5.09302E+02 -1.11055E+03 -2.99521E+02
 -6.94452E+02  2.73811E+02  1.79814E+01 -4.95046E+02  5.20703E+02 -9.76280E+02  9.19501E+02  2.28877E+02
  6.65826E+02  6.73450E+02  5.30352E+01 -8.85623E+00 -3.02570E+02  8.85320E+02  1.71482E+02  1.51555E+03
