 $NMID ID='MM_0lb_SNR400_12hz_g55_48.RAW', FMTDAT='(8E13.5)'
 TRAMP=1., VOLUME=1. $END
  3.10027E+05  7.85247E+02  3.36942E+05  2.51321E+05  8.46238E+04  3.38747E+05 -1.32872E+05  2.51368E+05
 -1.90663E+05  8.34107E+04 -1.12306E+05 -3.24567E+04  9.65135E+02 -5.05230E+04  5.38916E+04 -4.91111E+02
  3.57234E+04  5.28558E+04 -1.60900E+04  7.61418E+04 -6.11262E+04  6.43008E+04 -8.47304E+04  3.26805E+04
 -8.13141E+04 -1.27408E+04 -5.72327E+04 -5.25019E+04 -1.49221E+04 -6.99727E+04  2.82028E+04 -4.64847E+04
  4.08431E+04  3.48864E+03  1.65037E+04  4.81902E+04 -3.47421E+04  4.72302E+04 -6.76077E+04 -5.99534E+02
 -5.47957E+04 -5.75456E+04 -7.13102E+03 -7.80414E+04  3.47520E+04 -5.67048E+04  4.86230E+04 -1.78580E+04
  4.47412E+04  1.13909E+04  3.21847E+04  2.64037E+04  1.60764E+04  3.00606E+04 -5.25723E+03  2.78318E+04
 -2.18560E+04  1.21374E+04 -1.88659E+04 -5.72803E+03  6.41621E+03 -7.31660E+03  2.26767E+04  1.29258E+04
  7.27457E+03  3.66484E+04 -3.31837E+04  3.61788E+04 -6.55994E+04  2.71496E+03 -5.78741E+04 -4.40958E+04
 -1.25426E+04 -6.41021E+04  4.13608E+04 -4.74294E+04  6.00129E+04 -2.54998E+03  3.56515E+04  3.37820E+04
 -5.60315E+03  3.83585E+04 -3.09566E+04  1.74217E+04 -3.22172E+04 -4.65453E+03 -1.85689E+04 -1.17328E+04
 -9.04742E+03 -1.32536E+04 -7.15714E+02 -1.90416E+04  8.12897E+03 -2.30952E+04  1.58546E+04 -1.18657E+04
  1.06570E+04  5.34791E+03 -9.39917E+03  1.28233E+04 -2.21957E+04 -5.53899E+03 -8.79090E+03 -3.54152E+04
  2.44582E+04 -4.43608E+04  4.98222E+04 -2.01857E+04  4.65112E+04  1.98444E+04  1.57019E+04  4.59018E+04
 -1.65621E+04  3.49433E+04 -2.66886E+04  2.41028E+03 -1.07136E+04 -2.82423E+04  2.07611E+04 -3.60406E+04
  4.24348E+04 -1.01937E+04  3.78797E+04  2.53496E+04  1.93670E+04  4.85775E+04 -8.32209E+03  5.29763E+04
 -3.30782E+04  3.62952E+04 -4.54581E+04  1.08063E+04 -4.55056E+04 -1.72828E+04 -2.51090E+04 -4.06642E+04
  7.73514E+03 -4.01714E+04  3.27951E+04 -1.63694E+04  2.98929E+04  1.11576E+04  4.00650E+03  1.91731E+04
 -1.38883E+04  9.47327E+03 -1.01030E+04 -7.80785E+03  6.13224E+03 -1.12013E+04  1.90230E+04  5.69294E+03
  1.41026E+04  2.22527E+04 -4.79563E+03  2.65671E+04 -2.33697E+04  1.32305E+04 -2.99725E+04 -4.09362E+03
 -2.34697E+04 -1.80528E+04 -1.10653E+04 -2.21053E+04  4.09603E+03 -2.33937E+04  1.82804E+04 -2.03589E+04
  2.92160E+04 -1.39133E+04  3.57403E+04  4.59655E+03  2.53581E+04  2.21521E+04  4.68999E+03  3.94639E+04
 -1.87454E+04  3.23863E+04 -2.95991E+04  1.11563E+04 -2.24061E+04 -1.02330E+04 -4.37216E+03 -1.36331E+04
  1.04578E+03 -2.09868E+03 -6.68709E+03  7.46751E+03 -1.80096E+04  5.23051E+03 -1.83934E+04 -8.69354E+03
 -1.11476E+04 -2.11131E+04  6.12948E+03 -2.58959E+04  1.71156E+04 -1.85289E+04  2.00573E+04 -1.79478E+03
  1.32989E+04  1.48075E+04 -1.28504E+03  2.09354E+04 -1.43620E+04  1.15868E+04 -2.10860E+04 -3.85589E+03
 -1.60632E+04 -1.87036E+04 -1.50967E+03 -2.60257E+04  1.13964E+04 -2.10345E+04  2.11466E+04 -1.06014E+04
  1.98038E+04 -8.49976E+02  1.42155E+04  4.68338E+03  7.39477E+03  8.75863E+02  1.05339E+04 -1.90696E+03
  2.02093E+04  2.55730E+03  2.31671E+04  1.65255E+04  1.40720E+04  3.41595E+04 -2.71272E+03  3.90676E+04
 -2.24467E+04  3.25050E+04 -3.67743E+04  1.56191E+04 -3.87159E+04 -2.19569E+03 -3.19084E+04 -2.23964E+04
 -1.27302E+04 -3.20764E+04  1.19080E+04 -2.79992E+04  2.52076E+04 -1.41037E+04  2.15131E+04  6.35429E+03
  8.15024E+03  1.67471E+04 -1.00062E+04  1.41611E+04 -1.88408E+04  1.21625E+03 -1.36612E+04 -1.09573E+04
 -1.67453E+01 -1.74303E+04  8.63276E+03 -1.32871E+04  1.08705E+04 -7.65814E+02  2.60545E+03  7.81397E+03
 -7.99511E+03  2.65590E+03 -7.07984E+03 -6.93682E+03 -5.94710E+02 -1.55455E+04  1.05423E+04 -1.75178E+04
  1.95551E+04 -8.82402E+03  2.20919E+04  3.17545E+03  1.83050E+04  1.62067E+04  8.89771E+03  2.51261E+04
 -3.61303E+03  2.58641E+04 -1.77216E+04  1.67555E+04 -1.85839E+04  3.32538E+03 -1.31609E+04 -5.31381E+03
 -5.82737E+03 -6.09832E+03 -1.40493E+03  5.20572E+02 -2.30360E+03  4.00008E+03 -5.97708E+03  5.00248E+03
 -1.28887E+04 -5.97087E+02 -1.32338E+04 -1.08855E+04 -5.55753E+03 -1.73716E+04  4.88073E+03 -1.30010E+04
  1.16392E+04 -6.14418E+03  7.67661E+03  3.71252E+03 -1.61501E+02  5.43668E+03 -5.83947E+03 -3.67575E+02
 -6.79529E+03 -9.21974E+03 -9.84615E+02 -1.28591E+04  7.30883E+03 -1.36596E+04  1.65540E+04 -6.31805E+03
  1.98670E+04  1.75736E+03  1.44256E+04  1.14946E+04  2.95160E+03  1.55658E+04 -9.09502E+03  1.28812E+04
 -1.14917E+04  3.64386E+03 -5.55910E+03 -2.98819E+03  2.37578E+03 -4.02151E+03  6.58139E+03 -1.15149E+03
  6.88944E+03  6.44446E+03  4.48985E+02  1.09050E+04 -7.62610E+03  1.03347E+04 -1.32537E+04  2.49657E+03
 -9.05596E+03 -7.33388E+03 -2.47249E+02 -1.11752E+04  6.95700E+03 -4.74564E+03  7.53757E+03  2.85178E+03
  1.35472E+03  7.23106E+03 -7.10931E+03  9.93913E+03 -1.08821E+04  4.48914E+03 -1.12078E+04 -3.18051E+03
 -6.26813E+03 -1.26949E+04  2.72876E+03 -1.41524E+04  1.26305E+04 -8.96470E+03  1.34230E+04  2.32117E+03
  7.58594E+03  9.88745E+03 -8.40537E+02  1.30087E+04 -9.89359E+03  6.78376E+03 -9.92846E+03 -7.87663E+02
 -9.44844E+03 -8.62024E+03 -1.38171E+03 -9.27959E+03  4.73602E+03 -7.83333E+03  6.18312E+03 -3.10246E+03
  4.47948E+03  1.17822E+03 -9.06456E+02  1.86823E+03  1.08768E+02 -2.25452E+03  1.39431E+03 -6.11158E+03
  8.76205E+03 -3.84561E+03  1.26396E+04  1.41704E+03  1.23802E+04  8.99791E+03  8.32882E+03  1.60898E+04
 -3.62868E+03  1.83254E+04 -1.56814E+04  1.28755E+04 -2.03453E+04  2.26226E+03 -1.62530E+04 -6.84328E+03
 -8.76994E+03 -1.33858E+04 -2.03389E+02 -1.12283E+04  4.22309E+03 -5.77873E+03  3.36603E+03 -3.82541E+03
  3.37974E+03 -2.65851E+03  2.76686E+03 -2.78500E+03  4.99556E+03 -2.96412E+03  6.11454E+03 -1.17936E+03
  8.67108E+03  1.76682E+03  4.00021E+03  7.44257E+03 -1.88326E+03  8.04758E+03 -9.25488E+03  6.25753E+03
 -1.05693E+04 -2.21768E+03 -6.21688E+03 -8.29031E+03 -3.21049E+02 -1.18500E+04  6.46449E+03 -1.20440E+04
  1.22574E+04 -6.68890E+03  1.45376E+04  1.72081E+03  1.01094E+04  1.06266E+04  1.39537E+03  1.33739E+04
 -4.91629E+03  1.12732E+04 -8.20767E+03  3.35842E+03 -5.38701E+03 -1.66835E+03 -2.42913E+03 -8.39650E+02
 -8.25620E+02  9.68116E+01 -1.93740E+03  2.82913E+03 -5.01919E+03  2.17509E+03 -8.56939E+03 -9.33991E+02
 -4.72307E+03 -7.57252E+03 -8.14178E+01 -1.01152E+04  6.25601E+03 -1.05290E+04  1.03437E+04 -3.01309E+03
  1.00567E+04  5.50697E+03  4.49200E+03  9.15118E+03 -2.06843E+03  1.06681E+04 -7.94287E+03  6.90389E+03
 -9.59983E+03  1.43539E+03 -8.24137E+03 -6.45686E+03 -1.38397E+03 -8.10583E+03  4.10247E+03 -6.41110E+03
  6.89714E+03 -1.62964E+03  4.87856E+03  1.57574E+03  1.31476E+03  3.39197E+03  9.44108E+02  1.35982E+03
  2.84425E+03  5.28832E+02  2.89909E+03  2.19287E+03  3.33030E+03  3.97355E+03  2.48177E+03  5.49472E+03
 -2.55713E+03  8.34108E+03 -7.38998E+03  8.97931E+03 -1.07975E+04  2.97539E+03 -1.11644E+04 -3.62978E+03
 -4.98904E+03 -1.04835E+04  1.64664E+03 -1.06057E+04  6.85296E+03 -7.83476E+03  8.79499E+03 -2.36579E+03
  5.66060E+03  4.10293E+03  1.36060E+03  6.24076E+03 -3.04503E+03  3.84390E+03 -3.67738E+03 -6.41917E+02
 -1.79856E+03 -4.49085E+03  2.92412E+03 -4.91403E+03  5.15940E+03 -1.98442E+03  4.25502E+03  1.10815E+03
  2.58755E+03  3.01974E+03  1.03515E+03  1.30139E+03 -5.11828E+02  1.13438E+03  1.76712E+03 -1.77364E+02
  2.67496E+03 -6.60454E+02  4.19706E+03  1.61518E+03  1.54335E+03  5.68732E+03 -3.69253E+02  7.42212E+03
 -4.19319E+03  4.56562E+03 -6.87467E+03  5.01435E+02 -6.99505E+03 -2.28927E+03 -2.49289E+03 -4.21087E+03
  6.32607E+02 -4.08717E+03  2.81073E+03 -2.19413E+03  2.41581E+03  2.52369E+03 -1.73115E+03  3.09630E+03
 -3.80961E+03  2.37705E+03 -4.19790E+03 -2.05005E+03 -2.69036E+03 -5.22378E+03  7.30150E+02 -5.70123E+03
  3.40401E+03 -3.38138E+03  3.74148E+03  2.43721E+02  3.43830E+03  1.07709E+03  9.61361E+02  3.27346E+03
 -2.59013E+03  1.56276E+03 -2.45223E+03 -1.35678E+03  9.25251E+02 -3.80285E+03  4.19464E+03 -3.53516E+03
  6.11814E+03  3.41036E+02  6.53399E+03  4.33111E+03  2.40088E+03  5.70619E+03 -1.67747E+03  5.67310E+03
 -4.87530E+03  2.13978E+03 -5.49809E+03 -3.83470E+02 -3.03672E+03 -4.28486E+03  6.70571E+02 -3.29706E+03
  4.37484E+03 -2.37896E+03  3.43358E+03  1.60132E+03  1.35719E+03  3.37534E+03 -2.25740E+02  2.87159E+03
 -2.07731E+03  2.44092E+03 -1.65971E+03  2.31443E+02 -6.90075E+02  7.29841E+02 -1.90766E+03  1.37619E+03
 -1.21612E+03  2.94156E+03 -4.67102E+03  2.07483E+03 -6.07794E+03  1.66391E+02 -6.94859E+03 -3.39963E+03
 -3.70705E+03 -9.28680E+03  1.89211E+03 -9.84610E+03  5.10558E+03 -7.37505E+03  8.78701E+03 -2.21599E+03
  8.03928E+03  1.55285E+03  5.04165E+03  6.18804E+03 -5.24059E+01  6.36225E+03 -2.67357E+03  4.77029E+03
 -2.82670E+03  1.43749E+03 -2.37491E+03 -8.46348E+02 -1.04402E+03 -6.55005E+02 -5.90912E+02  2.97240E+02
 -1.14655E+03  1.78281E+02 -1.49544E+03 -3.38619E+02 -8.68302E+02 -1.42110E+03 -2.67297E+02 -2.84238E+03
  2.81907E+03 -2.04134E+03  2.87581E+03 -3.97504E+02  4.69199E+03  3.65426E+03  1.33115E+03  5.46461E+03
 -3.48266E+03  7.41137E+03 -6.84926E+03  5.25500E+03 -6.62719E+03 -1.06652E+03 -5.14202E+03 -5.03304E+03
 -2.72315E+03 -5.23285E+03  2.03353E+03 -5.32104E+03  3.98031E+03 -2.77752E+03  3.00307E+03  4.21086E+02
  1.84441E+03  1.74189E+03 -4.54475E+02  2.40440E+03 -8.86231E+02 -2.83774E+02  4.72315E+02 -1.43774E+03
  2.02463E+03 -8.30515E+02  2.24865E+03  8.48763E+02  1.66477E+03  1.60221E+03 -2.83752E+01  2.96113E+03
 -2.15962E+03  2.74488E+03 -4.07084E+03  6.37984E+02 -4.30093E+03 -2.15050E+03 -9.10784E+02 -4.91771E+03
  2.81248E+03 -3.60450E+03  4.63065E+03 -1.47328E+03  4.37386E+03  6.69419E+02  1.88973E+03  3.85818E+03
  7.87067E+02  4.24436E+03 -1.69021E+03  3.30698E+03 -2.63996E+03  2.09069E+03 -2.11768E+03 -2.13947E+02
 -1.57711E+03 -1.55032E+02 -1.73372E+03  1.03634E+03 -1.64615E+03  1.11626E+03 -2.80960E+03 -6.67723E+02
 -3.15974E+03 -2.04609E+03 -1.21579E+03 -4.44750E+03  2.70293E+03 -4.45380E+03  3.55539E+03 -1.72886E+03
  3.45377E+03  8.26276E+02  1.34582E+03  2.38978E+03 -1.30480E+02  4.26487E+03 -2.58154E+03  3.01009E+03
