 $NMID ID='MM_0lb_SNR400_11hz_g55_6.RAW', FMTDAT='(8E13.5)'
 TRAMP=1., VOLUME=1. $END
  3.09805E+05  5.99677E+02  3.37343E+05  2.50401E+05  8.55808E+04  3.38609E+05 -1.32444E+05  2.51220E+05
 -1.91306E+05  8.26993E+04 -1.11837E+05 -3.27791E+04  1.18065E+03 -5.07835E+04  5.36583E+04 -3.87624E+02
  3.47283E+04  5.21000E+04 -1.68058E+04  7.58687E+04 -6.09134E+04  6.37999E+04 -8.50886E+04  3.35311E+04
 -8.22547E+04 -1.07792E+04 -5.79938E+04 -5.21704E+04 -1.44680E+04 -7.12514E+04  2.70316E+04 -4.62727E+04
  4.09212E+04  4.85733E+03  1.62191E+04  4.79257E+04 -3.50813E+04  4.82700E+04 -6.81837E+04  1.58784E+02
 -5.47796E+04 -5.73512E+04 -7.07328E+03 -7.80734E+04  3.44985E+04 -5.66247E+04  4.99446E+04 -1.81735E+04
  4.50912E+04  1.11784E+04  3.33353E+04  2.60497E+04  1.63780E+04  3.05142E+04 -5.60413E+03  2.78437E+04
 -2.30608E+04  1.20707E+04 -1.82547E+04 -4.91953E+03  6.27901E+03 -6.97112E+03  2.32900E+04  1.24225E+04
  7.31721E+03  3.66258E+04 -3.29443E+04  3.66101E+04 -6.57679E+04  1.81022E+03 -5.89534E+04 -4.46073E+04
 -1.30347E+04 -6.53756E+04  3.99131E+04 -4.66913E+04  6.07391E+04 -2.81474E+03  3.57787E+04  3.34591E+04
 -5.68028E+03  3.91603E+04 -3.11828E+04  1.80919E+04 -3.25825E+04 -3.72318E+03 -1.90846E+04 -1.12964E+04
 -9.24791E+03 -1.48348E+04 -4.96958E+02 -1.95769E+04  8.24317E+03 -2.36852E+04  1.53094E+04 -1.25592E+04
  1.05374E+04  5.92427E+03 -9.61079E+03  1.31384E+04 -2.25947E+04 -6.52640E+03 -8.29932E+03 -3.58596E+04
  2.45915E+04 -4.62112E+04  5.07727E+04 -2.07886E+04  4.78799E+04  2.10027E+04  1.66208E+04  4.63321E+04
 -1.68147E+04  3.54534E+04 -2.66987E+04  1.94897E+03 -1.12050E+04 -2.83646E+04  2.15932E+04 -3.61377E+04
  4.39287E+04 -1.09788E+04  3.93081E+04  2.43788E+04  2.08493E+04  4.95405E+04 -8.89696E+03  5.44827E+04
 -3.43914E+04  3.65870E+04 -4.62876E+04  1.06457E+04 -4.57256E+04 -1.81787E+04 -2.47402E+04 -4.13588E+04
  6.97068E+03 -4.07974E+04  3.42946E+04 -1.61089E+04  3.10724E+04  1.16457E+04  4.71473E+03  2.03178E+04
 -1.35913E+04  1.01873E+04 -1.13096E+04 -7.96555E+03  5.54974E+03 -1.04267E+04  1.90832E+04  5.35094E+03
  1.39073E+04  2.25369E+04 -5.52982E+03  2.64647E+04 -2.34516E+04  1.36356E+04 -3.05450E+04 -3.13061E+03
 -2.37226E+04 -1.78732E+04 -1.11139E+04 -2.37773E+04  4.25698E+03 -2.35501E+04  1.82523E+04 -2.19645E+04
  3.06049E+04 -1.36898E+04  3.66795E+04  3.44093E+03  2.61412E+04  2.29469E+04  4.77385E+03  3.98312E+04
 -1.92653E+04  3.25033E+04 -2.92684E+04  1.18661E+04 -2.16735E+04 -1.00411E+04 -5.27045E+03 -1.34756E+04
  1.33829E+03 -2.29318E+03 -7.43999E+03  7.97244E+03 -1.87849E+04  5.46003E+03 -1.82522E+04 -8.69731E+03
 -1.13112E+04 -2.24412E+04  5.89861E+03 -2.62662E+04  1.70532E+04 -1.93590E+04  2.18029E+04 -1.36598E+03
  1.30972E+04  1.58126E+04 -1.49594E+03  2.12612E+04 -1.56859E+04  1.27527E+04 -2.26405E+04 -4.67373E+03
 -1.69914E+04 -1.94232E+04 -1.88096E+03 -2.67328E+04  1.18380E+04 -2.21714E+04  2.17468E+04 -1.13706E+04
  2.15389E+04  1.53775E+02  1.54660E+04  5.14461E+03  8.48371E+03  1.24363E+03  1.12785E+04 -1.40853E+03
  2.07216E+04  2.95234E+03  2.41504E+04  1.68730E+04  1.57793E+04  3.45905E+04 -3.03001E+03  4.10966E+04
 -2.40295E+04  3.40372E+04 -3.92729E+04  1.65039E+04 -4.11339E+04 -3.02484E+03 -3.39238E+04 -2.35769E+04
 -1.39701E+04 -3.36927E+04  1.20965E+04 -3.05070E+04  2.56105E+04 -1.43915E+04  2.19967E+04  7.15645E+03
  7.80156E+03  1.77249E+04 -1.08701E+04  1.53773E+04 -1.91702E+04  3.31647E+03 -1.38829E+04 -1.18805E+04
  3.52354E+02 -1.79399E+04  9.96521E+03 -1.29075E+04  1.21146E+04 -1.36286E+03  2.96314E+03  7.86838E+03
 -8.03337E+03  3.52257E+03 -8.34970E+03 -6.67812E+03 -1.56542E+03 -1.68153E+04  1.12634E+04 -1.84945E+04
  2.18520E+04 -9.86573E+03  2.35124E+04  3.12175E+03  2.01458E+04  1.70216E+04  9.43225E+03  2.67435E+04
 -4.95576E+03  2.82281E+04 -1.83443E+04  1.74211E+04 -2.01473E+04  4.61717E+03 -1.41350E+04 -5.31937E+03
 -6.11620E+03 -5.91988E+03 -6.52917E+02  3.96393E+02 -3.01512E+03  3.88756E+03 -7.39871E+03  4.88698E+03
 -1.27991E+04 -6.47782E+02 -1.31344E+04 -1.09072E+04 -5.43802E+03 -1.75865E+04  5.53872E+03 -1.32361E+04
  1.12523E+04 -6.22624E+03  8.36914E+03  3.69803E+03 -5.08113E+02  5.46280E+03 -7.27347E+03  2.73231E+02
 -6.10599E+03 -9.04449E+03 -1.10141E+03 -1.37644E+04  8.10930E+03 -1.48626E+04  1.77084E+04 -7.90321E+03
  2.19259E+04  2.38005E+03  1.47724E+04  1.33507E+04  2.71964E+03  1.64933E+04 -8.82496E+03  1.38659E+04
 -1.19966E+04  4.36544E+03 -6.12675E+03 -2.80889E+03  1.89600E+03 -3.72136E+03  7.71548E+03 -1.29878E+03
  6.70592E+03  6.20696E+03  7.44735E+02  1.13187E+04 -8.41315E+03  1.09199E+04 -1.41045E+04  3.43490E+03
 -9.63236E+03 -7.64089E+03 -4.59743E+02 -1.23359E+04  7.73562E+03 -6.19044E+03  8.28549E+03  3.02409E+03
  1.93784E+03  8.33667E+03 -7.33705E+03  1.01330E+04 -1.23234E+04  4.89991E+03 -1.22019E+04 -3.72588E+03
 -6.69976E+03 -1.41831E+04  2.85402E+03 -1.59624E+04  1.33257E+04 -9.32014E+03  1.44800E+04  3.02273E+03
  8.53181E+03  1.13666E+04 -9.60022E+02  1.39514E+04 -9.87154E+03  7.95869E+03 -1.16429E+04 -2.08897E+03
 -9.54456E+03 -9.10644E+03 -1.85460E+03 -1.07000E+04  6.02484E+03 -7.99655E+03  6.26531E+03 -3.73898E+03
  4.09792E+03  2.42337E+03 -1.62191E+03  1.97829E+03 -2.69127E+02 -3.05866E+03  1.77562E+03 -6.75728E+03
  1.00142E+04 -4.00461E+03  1.36779E+04  1.53879E+03  1.33243E+04  9.24624E+03  8.56096E+03  1.85605E+04
 -3.74640E+03  2.03044E+04 -1.76331E+04  1.48454E+04 -2.22227E+04  3.09603E+03 -1.78804E+04 -7.72470E+03
 -8.35435E+03 -1.44926E+04 -1.01278E+03 -1.25389E+04  3.99211E+03 -6.75805E+03  4.29441E+03 -5.57432E+03
  3.19898E+03 -3.18157E+03  3.00016E+03 -4.05133E+03  5.17691E+03 -3.38791E+03  7.08041E+03 -8.35512E+02
  9.32524E+03  2.22953E+03  4.54323E+03  7.81947E+03 -2.87684E+03  8.85780E+03 -9.84740E+03  7.54237E+03
 -1.22867E+04 -1.42690E+03 -8.15520E+03 -8.31710E+03 -1.32820E+03 -1.26395E+04  7.23376E+03 -1.35438E+04
  1.39051E+04 -7.35428E+03  1.63291E+04  1.93361E+03  1.04317E+04  1.23085E+04  2.39686E+03  1.45511E+04
 -5.95596E+03  1.28373E+04 -8.67816E+03  4.39208E+03 -5.59503E+03 -1.77649E+03 -3.08853E+03 -2.06711E+03
 -1.00576E+03 -1.83350E+02 -1.84437E+03  2.78889E+03 -5.16723E+03  2.11115E+03 -8.50596E+03 -9.54653E+02
 -5.78815E+03 -8.57592E+03  1.88172E+01 -1.15746E+04  6.86922E+03 -1.11635E+04  1.21795E+04 -4.00398E+03
  1.21954E+04  6.11517E+03  5.73230E+03  1.05285E+04 -2.15572E+03  1.22019E+04 -8.92905E+03  6.87571E+03
 -1.16886E+04  6.32139E+02 -9.73671E+03 -6.74758E+03 -1.52357E+03 -1.04322E+04  4.31793E+03 -7.82687E+03
  7.43939E+03 -2.17941E+03  4.93382E+03  2.14233E+03  1.60993E+03  3.88635E+03  1.68128E+03  1.87702E+03
  2.41995E+03  9.57240E+02  2.68466E+03  2.42889E+03  3.51033E+03  4.17310E+03  3.52810E+03  6.56375E+03
 -3.05071E+03  9.63128E+03 -8.99201E+03  1.04252E+04 -1.24037E+04  3.13130E+03 -1.20978E+04 -4.28926E+03
 -6.59856E+03 -1.20790E+04  2.04795E+03 -1.24770E+04  7.01234E+03 -8.25934E+03  9.70742E+03 -1.88126E+03
  7.89148E+03  4.58037E+03  1.34447E+03  7.18091E+03 -3.05383E+03  3.87696E+03 -4.32985E+03 -1.33193E+03
 -2.50871E+03 -5.49748E+03  2.63754E+03 -5.27145E+03  5.42401E+03 -2.89174E+03  3.81224E+03  7.60185E+02
  2.73838E+03  2.47579E+03  8.99692E+02  1.54187E+03 -8.34757E+02  2.08065E+03  2.45130E+03 -4.48751E+02
  1.94979E+03 -1.64449E+03  4.84487E+03  1.65071E+03  2.02099E+03  7.13147E+03 -6.15009E+02  8.05494E+03
 -5.73380E+03  5.42257E+03 -7.37061E+03  1.44290E+03 -7.31130E+03 -2.78435E+03 -2.75390E+03 -4.68662E+03
  8.17974E+02 -4.65161E+03  3.12498E+03 -2.22170E+03  2.24091E+03  2.27364E+03 -1.44640E+03  3.64132E+03
 -4.39908E+03  2.69934E+03 -4.77704E+03 -2.45803E+03 -2.66124E+03 -6.82874E+03  8.03555E+02 -6.38748E+03
  3.80025E+03 -4.01051E+03  4.52223E+03 -6.60110E+02  4.35944E+03  1.90397E+03  5.45835E+02  3.77868E+03
 -1.91646E+03  1.05307E+03 -2.63483E+03 -2.72278E+03  1.36914E+03 -4.50213E+03  5.53943E+03 -3.75212E+03
  8.09033E+03 -1.90241E+02  7.67351E+03  5.02873E+03  2.77964E+03  6.80895E+03 -2.16427E+03  7.41768E+03
 -6.53368E+03  2.77130E+03 -5.88268E+03 -1.23737E+03 -3.51248E+03 -4.59143E+03  1.21018E+03 -4.55666E+03
  5.18549E+03 -2.55275E+03  3.71196E+03  2.38734E+03  1.55582E+03  4.11222E+03 -9.33946E+02  3.94938E+03
 -1.86175E+03  2.31650E+03 -1.70328E+03  1.72574E+03 -4.11546E+02  1.23017E+03 -7.11601E+02  1.78832E+03
 -1.89689E+03  2.35834E+03 -5.10637E+03  2.57735E+03 -7.43416E+03  6.39678E+02 -8.63589E+03 -4.97268E+03
 -4.17693E+03 -1.00071E+04  1.87173E+03 -1.11411E+04  6.67150E+03 -8.92778E+03  1.10336E+04 -3.93115E+03
  9.82319E+03  1.09408E+03  5.01299E+03  7.05202E+03  1.42638E+02  8.51887E+03 -2.28124E+03  5.83228E+03
 -4.65547E+03  2.61066E+03 -2.29840E+03 -9.72945E+02 -1.51926E+03 -1.32880E+03 -1.13715E+03 -4.95796E+02
 -1.60416E+03  1.08474E+03 -1.96050E+03  2.61495E+01 -7.14351E+02 -2.27986E+03 -5.89131E+01 -2.89446E+03
  3.74172E+03 -2.32495E+03  4.19055E+03 -3.41831E+02  5.13601E+03  4.85096E+03  9.58972E+02  7.32373E+03
 -4.13083E+03  9.02185E+03 -8.00861E+03  5.29888E+03 -8.49116E+03 -1.04693E+03 -6.69960E+03 -4.92978E+03
 -3.86080E+03 -7.85641E+03  2.16804E+03 -7.43001E+03  4.20267E+03 -3.00899E+03  5.05671E+03 -2.09331E+02
  3.02401E+03  1.56509E+03  1.36692E+02  2.10959E+03 -1.33953E+03  1.97233E+02  1.10019E+02 -1.55698E+03
  2.80245E+03 -9.10160E+02  3.09400E+03 -3.11851E+02  2.49887E+03  3.25740E+03 -1.76728E+02  3.49029E+03
 -3.93348E+03  2.41502E+03 -4.80754E+03  8.36590E+02 -4.31468E+03 -3.46782E+03 -5.60024E+02 -6.12541E+03
  3.32895E+03 -4.54561E+03  4.86186E+03 -1.69502E+03  5.40401E+03  9.13919E+02  2.64691E+03  4.84908E+03
  6.57765E+02  4.02062E+03 -1.57199E+03  3.89409E+03 -2.94146E+03  2.66412E+03 -2.63026E+03  2.69865E+02
 -3.83729E+02 -3.14111E+01 -1.29584E+03  4.28339E+02 -3.29046E+03  3.12699E+02 -3.88643E+03 -1.29979E+03
 -3.39038E+03 -2.67130E+03 -9.50851E+02 -4.40072E+03  2.88417E+03 -5.21167E+03  4.46323E+03 -2.74845E+03
  4.49358E+03  5.84626E+02  2.07598E+03  2.72382E+03 -5.01636E+02  4.71291E+03 -3.76449E+03  2.93447E+03
