 $NMID ID='MM_0lb_SNR400_10hz_g40_43.RAW', FMTDAT='(8E13.5)'
 TRAMP=1., VOLUME=1. $END
  3.09660E+05  1.07480E+00  3.37634E+05  2.50303E+05  8.46602E+04  3.38282E+05 -1.32488E+05  2.51108E+05
 -1.90603E+05  8.26318E+04 -1.11480E+05 -3.28429E+04  6.16010E+02 -5.04008E+04  5.41216E+04 -4.27199E+02
  3.54160E+04  5.27003E+04 -1.66927E+04  7.62984E+04 -6.05442E+04  6.38706E+04 -8.43080E+04  3.17547E+04
 -8.14726E+04 -1.17462E+04 -5.74142E+04 -5.16055E+04 -1.54763E+04 -7.06838E+04  2.77559E+04 -4.63525E+04
  4.05569E+04  2.94986E+03  1.70437E+04  4.82645E+04 -3.46134E+04  4.75714E+04 -6.71197E+04 -5.30933E+02
 -5.35140E+04 -5.74166E+04 -7.18992E+03 -7.81238E+04  3.49053E+04 -5.59593E+04  4.91710E+04 -1.78553E+04
  4.48538E+04  1.16193E+04  3.21645E+04  2.57372E+04  1.52911E+04  3.04111E+04 -6.00020E+03  2.74526E+04
 -2.25766E+04  1.15403E+04 -1.82691E+04 -5.66137E+03  6.52626E+03 -7.27931E+03  2.28751E+04  1.29334E+04
  7.32396E+03  3.65325E+04 -3.35150E+04  3.63605E+04 -6.44655E+04  1.98205E+03 -5.74909E+04 -4.40227E+04
 -1.26845E+04 -6.49044E+04  4.06466E+04 -4.65464E+04  5.97721E+04 -2.50999E+03  3.63748E+04  3.33075E+04
 -5.81089E+03  3.81940E+04 -3.13775E+04  1.76019E+04 -3.18947E+04 -3.97753E+03 -1.88782E+04 -1.19415E+04
 -8.72645E+03 -1.45403E+04  2.27706E+02 -1.89590E+04  7.96917E+03 -2.34408E+04  1.61102E+04 -1.25826E+04
  1.10899E+04  5.88355E+03 -9.78762E+03  1.26316E+04 -2.30606E+04 -4.85337E+03 -8.30913E+03 -3.58722E+04
  2.42406E+04 -4.58244E+04  5.02988E+04 -2.06089E+04  4.67750E+04  2.03791E+04  1.60306E+04  4.60562E+04
 -1.55721E+04  3.39721E+04 -2.61548E+04  1.86117E+03 -1.05023E+04 -2.86763E+04  2.03803E+04 -3.63763E+04
  4.28152E+04 -9.45205E+03  3.89644E+04  2.47993E+04  2.05638E+04  4.96011E+04 -7.48189E+03  5.39581E+04
 -3.45196E+04  3.74191E+04 -4.58079E+04  1.05757E+04 -4.55028E+04 -1.79398E+04 -2.50080E+04 -4.10049E+04
  7.08172E+03 -4.00117E+04  3.27742E+04 -1.69717E+04  3.03537E+04  1.12643E+04  4.78157E+03  2.06731E+04
 -1.38531E+04  8.75359E+03 -1.11896E+04 -7.15020E+03  5.27291E+03 -1.13329E+04  1.79466E+04  5.76573E+03
  1.48785E+04  2.21196E+04 -6.39412E+03  2.61262E+04 -2.28270E+04  1.25281E+04 -3.04466E+04 -3.12465E+03
 -2.34346E+04 -1.79489E+04 -1.02734E+04 -2.29614E+04  4.59493E+03 -2.28859E+04  1.82070E+04 -2.12310E+04
  3.06442E+04 -1.37218E+04  3.57712E+04  4.68293E+03  2.53546E+04  2.30351E+04  4.42458E+03  3.93080E+04
 -1.87612E+04  3.30501E+04 -2.91181E+04  1.17011E+04 -2.17079E+04 -9.91398E+03 -5.26180E+03 -1.33604E+04
  6.52016E+02 -2.33288E+03 -6.20596E+03  8.46845E+03 -1.78330E+04  5.51816E+03 -1.89848E+04 -8.24201E+03
 -1.11685E+04 -2.26159E+04  6.22081E+03 -2.54804E+04  1.74941E+04 -1.89247E+04  2.08416E+04 -1.98656E+03
  1.25912E+04  1.48650E+04 -1.21447E+03  2.16636E+04 -1.54543E+04  1.17507E+04 -2.25050E+04 -4.03662E+03
 -1.54895E+04 -1.81746E+04 -1.93401E+03 -2.58985E+04  1.23473E+04 -2.20570E+04  2.13593E+04 -1.11819E+04
  1.97103E+04 -8.99492E+02  1.37752E+04  4.62977E+03  7.99405E+03  1.47263E+03  1.06992E+04 -1.92546E+03
  1.96332E+04  2.95872E+03  2.35289E+04  1.72901E+04  1.57879E+04  3.46209E+04 -2.67645E+03  3.98923E+04
 -2.30192E+04  3.30030E+04 -3.78841E+04  1.72930E+04 -4.02282E+04 -2.79264E+03 -3.29092E+04 -2.35059E+04
 -1.37589E+04 -3.29646E+04  1.16513E+04 -2.92795E+04  2.48712E+04 -1.45376E+04  2.24438E+04  7.13795E+03
  7.47363E+03  1.65330E+04 -1.03915E+04  1.42521E+04 -1.85586E+04  2.33833E+03 -1.41746E+04 -1.15591E+04
 -2.70307E+02 -1.83328E+04  9.77401E+03 -1.29863E+04  1.14873E+04 -7.26695E+02  2.62462E+03  7.23725E+03
 -7.52990E+03  3.17724E+03 -7.85739E+03 -6.92408E+03 -1.36633E+03 -1.69396E+04  1.07084E+04 -1.79421E+04
  2.06040E+04 -9.65907E+03  2.30111E+04  3.29792E+03  2.02591E+04  1.70448E+04  8.50620E+03  2.57325E+04
 -4.77679E+03  2.79887E+04 -1.75799E+04  1.71303E+04 -1.94160E+04  4.14645E+03 -1.37125E+04 -5.42686E+03
 -6.06373E+03 -6.21318E+03 -1.02095E+03  6.79548E+02 -3.17138E+03  3.21832E+03 -6.97480E+03  4.43158E+03
 -1.31150E+04 -1.23947E+03 -1.33109E+04 -1.05130E+04 -5.24770E+03 -1.80770E+04  5.93123E+03 -1.36669E+04
  1.21519E+04 -5.42778E+03  8.78528E+03  3.80542E+03 -1.12151E+02  5.22813E+03 -7.32894E+03 -4.02918E+01
 -7.76209E+03 -8.83172E+03 -9.14201E+02 -1.37971E+04  8.09712E+03 -1.44943E+04  1.76794E+04 -7.61183E+03
  2.07010E+04  2.03929E+03  1.49987E+04  1.26037E+04  2.98333E+03  1.73169E+04 -8.53893E+03  1.39866E+04
 -1.12693E+04  4.62979E+03 -6.06095E+03 -3.31510E+03  1.33137E+03 -3.81347E+03  7.69823E+03 -7.07480E+02
  7.35477E+03  5.16376E+03  1.45981E+03  1.11456E+04 -8.35296E+03  1.07010E+04 -1.41416E+04  2.67060E+03
 -9.61189E+03 -7.95066E+03  4.76264E+02 -1.18479E+04  7.61361E+03 -6.38264E+03  8.31052E+03  2.01464E+03
  2.10061E+03  8.80036E+03 -6.83930E+03  1.01946E+04 -1.17998E+04  4.33414E+03 -1.17361E+04 -3.46085E+03
 -6.68973E+03 -1.33131E+04  3.29217E+03 -1.65685E+04  1.30637E+04 -9.72309E+03  1.48893E+04  2.83997E+03
  8.89431E+03  1.10820E+04 -1.50617E+03  1.36171E+04 -1.00666E+04  7.47507E+03 -1.11036E+04 -6.16844E+02
 -9.59248E+03 -9.39087E+03 -1.45453E+03 -1.12679E+04  4.94749E+03 -8.52355E+03  6.17666E+03 -3.48635E+03
  5.14249E+03  1.34883E+03 -6.74461E+02  2.10258E+03 -4.82597E+02 -2.97063E+03  1.52364E+03 -5.50107E+03
  1.00865E+04 -4.44355E+03  1.38699E+04  1.29536E+03  1.28635E+04  9.32069E+03  8.68749E+03  1.71558E+04
 -4.23099E+03  2.08383E+04 -1.68783E+04  1.50736E+04 -2.25004E+04  2.82489E+03 -1.76598E+04 -7.30333E+03
 -8.75342E+03 -1.41637E+04  4.21397E+00 -1.25451E+04  3.83779E+03 -6.60516E+03  4.58570E+03 -4.97610E+03
  3.74055E+03 -2.87594E+03  3.01085E+03 -3.00939E+03  5.32411E+03 -3.39011E+03  7.01275E+03 -1.58684E+03
  9.19960E+03  1.88880E+03  4.53321E+03  8.23696E+03 -1.77420E+03  9.99198E+03 -9.91467E+03  7.39297E+03
 -1.27893E+04 -1.13270E+03 -7.57502E+03 -8.14504E+03 -5.49424E+02 -1.33326E+04  7.98089E+03 -1.30425E+04
  1.46298E+04 -7.46561E+03  1.66459E+04  1.80265E+03  1.14434E+04  1.23024E+04  9.64889E+02  1.52152E+04
 -6.01039E+03  1.24640E+04 -8.47553E+03  3.92447E+03 -5.74388E+03 -2.08365E+03 -2.21677E+03 -2.79679E+03
 -9.48438E+02  2.86194E+02 -1.82175E+03  2.65929E+03 -5.04420E+03  2.46280E+03 -8.81983E+03 -1.73868E+03
 -6.38701E+03 -8.98923E+03  3.47407E+02 -1.21041E+04  7.72853E+03 -1.16619E+04  1.22236E+04 -3.33330E+03
  1.29147E+04  6.13212E+03  5.28115E+03  1.08728E+04 -1.85974E+03  1.25731E+04 -9.19619E+03  8.09333E+03
 -1.13696E+04  1.45850E+03 -1.00370E+04 -8.39131E+03 -7.50885E+02 -1.03845E+04  5.52876E+03 -7.94297E+03
  7.48213E+03 -2.98155E+03  5.35430E+03  2.37871E+03  1.65555E+03  3.18924E+03  1.24911E+03  2.16059E+03
  3.26144E+03  1.14455E+03  3.26457E+03  1.71107E+03  3.59931E+03  4.36072E+03  2.79210E+03  6.16594E+03
 -2.61536E+03  9.50577E+03 -8.95174E+03  1.01556E+04 -1.18696E+04  1.92249E+03 -1.25598E+04 -5.03218E+03
 -7.32529E+03 -1.20828E+04  2.34208E+03 -1.37058E+04  7.86164E+03 -7.53571E+03  9.79050E+03 -2.31921E+03
  7.58531E+03  4.28727E+03  1.37412E+03  7.41591E+03 -3.07177E+03  4.75171E+03 -4.90044E+03 -9.84558E+02
 -2.94007E+03 -5.37829E+03  3.34388E+03 -5.21110E+03  5.06521E+03 -3.02345E+03  3.94423E+03  1.06460E+03
  3.03260E+03  2.68054E+03  1.22414E+03  2.10444E+03 -3.20013E+02  1.48531E+03  1.41580E+03 -1.83883E+02
  1.90762E+03 -6.44592E+02  4.98954E+03  1.83786E+03  3.27549E+03  5.75431E+03 -1.09356E+03  8.75832E+03
 -5.29642E+03  6.04208E+03 -7.79242E+03  7.57905E+02 -7.09009E+03 -3.06647E+03 -2.87077E+03 -4.78579E+03
  1.06425E+03 -4.81919E+03  3.83312E+03 -1.66498E+03  3.33677E+03  3.02684E+03 -1.22716E+03  4.09470E+03
 -5.61500E+03  1.63012E+03 -6.63387E+03 -3.29098E+03 -3.15365E+03 -6.15633E+03  1.12093E+03 -7.31217E+03
  4.03393E+03 -3.74275E+03  4.52376E+03 -2.56080E+02  2.87152E+03  1.48704E+03  8.29881E+02  3.98831E+03
 -2.57552E+03  7.52228E+02 -2.76631E+03 -1.58337E+03  1.37342E+03 -4.96243E+03  6.47317E+03 -4.72853E+03
  7.42658E+03  8.05192E+02  7.37056E+03  4.99076E+03  1.98173E+03  8.08366E+03 -3.21858E+03  8.29988E+03
 -5.57445E+03  3.15488E+03 -7.24471E+03 -1.17882E+03 -4.06271E+03 -5.22645E+03  1.26260E+03 -4.79479E+03
  5.35925E+03 -2.44869E+03  4.15247E+03  2.09697E+03  1.03281E+03  4.70227E+03 -6.24242E+02  4.65765E+03
 -1.67634E+03  2.31248E+03 -2.01011E+03  8.09592E+02 -7.40494E+02  1.51751E+03 -1.71971E+03  1.88018E+03
 -1.79591E+03  2.74577E+03 -5.42969E+03  2.48037E+03 -7.39219E+03  6.29054E+01 -8.98209E+03 -5.48663E+03
 -4.28439E+03 -1.03819E+04  2.02239E+03 -1.24393E+04  7.48573E+03 -9.77464E+03  1.24780E+04 -3.75052E+03
  1.11329E+04  1.32028E+03  6.46650E+03  6.68686E+03  4.89595E+02  7.98873E+03 -3.08814E+03  5.62736E+03
 -4.21100E+03  2.61047E+03 -2.93092E+03 -9.51833E+02 -5.27931E+02 -9.07552E+02 -9.93375E+00  1.80776E+02
 -1.39206E+03  3.72359E+02 -2.09586E+03 -4.16043E+02 -8.73037E+02 -1.90000E+03 -1.00941E+01 -2.45692E+03
  4.34495E+03 -2.64662E+03  5.49962E+03  6.77076E+02  5.51803E+03  4.73562E+03  3.61761E+02  7.83650E+03
 -3.31070E+03  9.54321E+03 -8.91322E+03  5.70327E+03 -9.54145E+03 -9.23108E+02 -7.55885E+03 -6.41161E+03
 -2.56037E+03 -8.68402E+03  2.38996E+03 -7.43619E+03  5.60984E+03 -4.37003E+03  5.23049E+03  1.46611E+02
  2.30983E+03  2.27134E+03  1.29570E+01  2.75333E+03 -1.35970E+03  2.37070E+02  1.16348E+02 -1.53343E+03
  2.79521E+03 -6.46165E+02  3.32868E+03  1.05374E+03  1.85983E+03  2.54760E+03  1.43003E+02  3.99846E+03
 -3.56802E+03  3.52541E+03 -5.77930E+03  1.69147E+02 -4.37606E+03 -3.96417E+03 -1.62871E+02 -7.31764E+03
  3.65588E+03 -5.81600E+03  5.62972E+03 -1.58083E+03  6.10328E+03  1.50576E+03  3.53439E+03  4.51517E+03
  8.86653E+02  5.61192E+03 -2.15970E+03  3.75892E+03 -3.52662E+03  2.22636E+03 -3.08000E+03  6.16160E+02
 -1.94969E+03  4.97914E+01 -2.38076E+03  1.02952E+03 -2.73540E+03  8.54833E+02 -5.11187E+03 -8.98727E+02
 -4.84089E+03 -3.03011E+03 -1.93974E+03 -5.56846E+03  2.02028E+03 -6.54234E+03  4.52313E+03 -3.21957E+03
  4.72768E+03  9.33765E+02  3.44817E+03  3.98999E+03 -1.40682E+02  5.30988E+03 -3.94739E+03  3.28029E+03
