 $NMID ID='MM_0lb_SNR400_14hz_g40_53.RAW', FMTDAT='(8E13.5)'
 TRAMP=1., VOLUME=1. $END
  3.09369E+05  4.28236E+02  3.37881E+05  2.50599E+05  8.48429E+04  3.37506E+05 -1.32470E+05  2.51146E+05
 -1.89883E+05  8.25403E+04 -1.11710E+05 -3.29093E+04  6.45902E+02 -5.06114E+04  5.41489E+04 -4.37217E+02
  3.56288E+04  5.28272E+04 -1.71365E+04  7.56661E+04 -6.05073E+04  6.26000E+04 -8.35979E+04  3.19688E+04
 -8.10986E+04 -1.11244E+04 -5.67822E+04 -5.09971E+04 -1.46962E+04 -6.95657E+04  2.72437E+04 -4.59361E+04
  3.91917E+04  4.25283E+03  1.58873E+04  4.75034E+04 -3.47671E+04  4.64054E+04 -6.62650E+04 -2.62007E+02
 -5.25360E+04 -5.63590E+04 -6.71617E+03 -7.60071E+04  3.34183E+04 -5.44254E+04  4.76321E+04 -1.67564E+04
  4.32272E+04  1.11241E+04  3.11644E+04  2.52496E+04  1.61072E+04  2.91288E+04 -5.35458E+03  2.68697E+04
 -2.11763E+04  1.22636E+04 -1.88429E+04 -4.54999E+03  5.32541E+03 -7.47252E+03  2.14599E+04  1.22579E+04
  7.29958E+03  3.43105E+04 -3.19265E+04  3.49317E+04 -6.25452E+04  2.20261E+03 -5.61310E+04 -4.21061E+04
 -1.33588E+04 -6.30570E+04  3.91561E+04 -4.48269E+04  5.80178E+04 -1.91697E+03  3.38832E+04  3.16200E+04
 -6.11937E+03  3.54457E+04 -2.94132E+04  1.55794E+04 -2.92726E+04 -5.08313E+03 -1.58499E+04 -1.05212E+04
 -7.92051E+03 -1.19761E+04 -1.05007E+03 -1.77208E+04  7.15410E+03 -2.21764E+04  1.49829E+04 -1.34219E+04
  1.17557E+04  5.03157E+03 -7.58858E+03  1.26647E+04 -2.04952E+04 -4.29922E+03 -8.24799E+03 -3.32802E+04
  2.21707E+04 -4.25082E+04  4.74648E+04 -1.94621E+04  4.37639E+04  1.92937E+04  1.52356E+04  4.32830E+04
 -1.59044E+04  3.30009E+04 -2.47081E+04  1.39369E+03 -9.37716E+03 -2.77785E+04  2.10149E+04 -3.34753E+04
  4.03901E+04 -8.63792E+03  3.48282E+04  2.35800E+04  1.71215E+04  4.49522E+04 -7.99706E+03  4.88259E+04
 -3.09662E+04  3.24165E+04 -4.06675E+04  9.19812E+03 -4.18298E+04 -1.59085E+04 -2.26333E+04 -3.69646E+04
  7.45656E+03 -3.71326E+04  3.04364E+04 -1.48044E+04  2.88324E+04  1.12819E+04  3.93003E+03  1.88426E+04
 -1.29021E+04  8.62490E+03 -1.01013E+04 -7.66378E+03  6.05924E+03 -1.03370E+04  1.78133E+04  5.51997E+03
  1.33891E+04  2.14404E+04 -5.56229E+03  2.47989E+04 -2.22620E+04  1.12722E+04 -2.74630E+04 -4.91644E+03
 -1.98953E+04 -1.68828E+04 -7.38994E+03 -1.92756E+04  4.32531E+03 -1.86652E+04  1.47673E+04 -1.72882E+04
  2.57631E+04 -1.25410E+04  3.13154E+04  2.54263E+03  2.35195E+04  1.86574E+04  3.92357E+03  3.59187E+04
 -1.75033E+04  2.98102E+04 -2.78781E+04  1.06580E+04 -2.03519E+04 -9.75774E+03 -3.93208E+03 -1.40265E+04
  2.07883E+03 -3.15216E+03 -4.28202E+03  5.84583E+03 -1.52361E+04  4.92557E+03 -1.56829E+04 -6.38277E+03
 -9.95847E+03 -1.76229E+04  5.25647E+03 -2.19258E+04  1.45436E+04 -1.62694E+04  1.77668E+04 -1.83170E+03
  1.04982E+04  1.26239E+04 -8.07676E+02  1.84282E+04 -1.26406E+04  1.01014E+04 -1.85437E+04 -3.56982E+03
 -1.35276E+04 -1.63700E+04 -1.40873E+03 -2.24534E+04  1.01201E+04 -1.80257E+04  1.85073E+04 -8.81930E+03
  1.69735E+04  1.00566E+03  1.21333E+04  4.29134E+03  6.67324E+03  1.60344E+03  8.64089E+03 -1.20602E+03
  1.64115E+04  2.37613E+03  1.79900E+04  1.49673E+04  1.19485E+04  2.95655E+04 -2.69352E+03  3.27987E+04
 -1.90779E+04  2.58369E+04 -2.98387E+04  1.32995E+04 -3.25173E+04 -1.62430E+03 -2.64277E+04 -1.83023E+04
 -1.13879E+04 -2.56269E+04  9.13091E+03 -2.34305E+04  2.01730E+04 -1.21156E+04  1.82784E+04  4.99902E+03
  7.25405E+03  1.38598E+04 -8.41732E+03  1.20816E+04 -1.59568E+04  2.88086E+03 -1.19886E+04 -1.00071E+04
 -1.60882E+02 -1.48613E+04  7.52281E+03 -1.06209E+04  9.50951E+03 -1.32299E+03  1.86207E+03  6.54094E+03
 -6.33441E+03  2.27971E+03 -5.31703E+03 -4.88364E+03 -1.61152E+02 -1.31333E+04  9.63296E+03 -1.38379E+04
  1.65414E+04 -7.11734E+03  1.65474E+04  2.81209E+03  1.49568E+04  1.23685E+04  6.58865E+03  1.88973E+04
 -2.65073E+03  2.09121E+04 -1.27391E+04  1.25147E+04 -1.46143E+04  3.70228E+03 -1.00503E+04 -2.86338E+03
 -5.35406E+03 -4.58061E+03 -3.63067E+02  1.05425E+03 -2.23855E+03  2.58566E+03 -5.63028E+03  4.79181E+03
 -1.05660E+04 -7.14808E+02 -1.07142E+04 -8.93062E+03 -4.05224E+03 -1.40806E+04  4.51981E+03 -1.07511E+04
  8.68674E+03 -4.97972E+03  7.12186E+03  2.86622E+03  4.37928E+02  4.54751E+03 -5.15800E+03  7.03905E+02
 -4.83837E+03 -6.86262E+03 -1.45727E+02 -9.77979E+03  5.47691E+03 -1.08593E+04  1.36386E+04 -5.90248E+03
  1.55227E+04  1.28746E+03  1.08213E+04  8.95734E+03  1.76982E+03  1.23647E+04 -6.53221E+03  1.01391E+04
 -9.08199E+03  3.05200E+03 -4.06219E+03 -2.28786E+03  1.52282E+03 -3.38104E+03  5.66378E+03 -1.87384E+02
  4.68429E+03  5.06593E+03  9.76403E+02  8.46236E+03 -6.21291E+03  8.91540E+03 -1.07138E+04  2.05174E+03
 -6.81746E+03 -4.92567E+03  2.94744E+02 -8.48117E+03  4.93451E+03 -4.79800E+03  5.41695E+03  2.22954E+03
  1.17942E+03  5.56211E+03 -5.42173E+03  6.49712E+03 -7.00897E+03  2.85148E+03 -7.62106E+03 -2.42245E+03
 -4.77346E+03 -9.40458E+03  2.44544E+03 -1.06236E+04  9.59406E+03 -6.37885E+03  9.62074E+03  1.98881E+03
  6.66480E+03  8.05339E+03 -4.62558E+02  1.04697E+04 -7.01408E+03  5.89235E+03 -7.71670E+03 -6.40194E+02
 -7.10721E+03 -6.37445E+03 -2.05477E+03 -7.35375E+03  3.78527E+03 -6.42237E+03  4.36214E+03 -3.75924E+03
  3.04099E+03  1.12319E+03 -4.20873E+01  1.88328E+03  5.00582E+01 -1.51412E+03  1.01507E+03 -3.45658E+03
  6.27448E+03 -1.69023E+03  8.37452E+03  8.94538E+02  8.64749E+03  5.53548E+03  6.95941E+03  1.14214E+04
 -2.15222E+03  1.32911E+04 -1.12750E+04  9.98198E+03 -1.52256E+04  1.65946E+03 -1.19203E+04 -4.66658E+03
 -5.81806E+03 -1.00923E+04 -8.26990E+02 -8.18092E+03  2.81066E+03 -4.34976E+03  2.49833E+03 -3.23085E+03
  1.55341E+03 -2.13836E+03  2.58376E+03 -2.65832E+03  4.10781E+03 -1.00743E+03  5.41538E+03  1.66232E+01
  6.00335E+03  1.35195E+03  3.42905E+03  5.53465E+03 -1.72778E+03  5.21148E+03 -6.50255E+03  4.35214E+03
 -7.90470E+03 -1.60063E+03 -4.44303E+03 -4.92201E+03 -3.39688E+02 -7.89252E+03  5.57191E+03 -8.46242E+03
  8.98914E+03 -4.52436E+03  1.06207E+04  1.13683E+03  7.60589E+03  7.60620E+03  1.34664E+03  1.02783E+04
 -3.40835E+03  8.32012E+03 -5.56366E+03  3.05660E+03 -3.05077E+03 -7.01730E+02 -9.53949E+02 -1.37933E+03
 -1.12108E+03  4.09011E+01 -1.70118E+03  2.55737E+03 -3.58377E+03  8.09613E+02 -6.38953E+03 -2.07167E+02
 -3.16544E+03 -5.82212E+03  8.24554E+02 -7.67799E+03  5.01005E+03 -7.46260E+03  7.28171E+03 -2.71259E+03
  7.48222E+03  3.65496E+03  2.99052E+03  6.63657E+03 -1.33979E+03  7.13043E+03 -4.78105E+03  4.47557E+03
 -6.82873E+03  3.96828E+02 -4.90020E+03 -4.40630E+03 -5.03593E+02 -6.05046E+03  2.63648E+03 -4.04441E+03
  4.75801E+03 -1.85878E+03  2.76373E+03  5.36468E+02  1.16123E+03  2.55395E+03  9.57324E+02  5.96611E+02
  1.75990E+03  4.71854E+02  2.27797E+03  1.38234E+03  2.45345E+03  2.54087E+03  1.93999E+03  3.58008E+03
 -1.95431E+03  5.66326E+03 -4.89721E+03  6.66101E+03 -6.52639E+03  1.44587E+03 -7.99356E+03 -2.75416E+03
 -3.27453E+03 -6.75519E+03  1.56604E+03 -8.03686E+03  4.43369E+03 -5.05229E+03  5.28264E+03 -1.57696E+03
  4.74821E+03  3.13435E+03  1.27721E+03  3.72197E+03 -2.30854E+03  2.97003E+03 -2.35032E+03 -1.02537E+02
 -1.36258E+03 -2.17477E+03  2.01606E+03 -2.62635E+03  2.93705E+03 -1.69102E+03  3.00382E+03  7.66087E+02
  1.42041E+03  1.30523E+03  1.37807E+03  7.68986E+02 -1.41304E+02  1.45265E+03  1.37061E+03 -4.59388E+02
  1.16659E+03 -6.05205E+02  3.06326E+03  1.13351E+03  7.52208E+02  3.44846E+03 -4.22286E+02  5.32067E+03
 -3.00370E+03  3.49226E+03 -3.77387E+03  1.07167E+03 -4.25908E+03 -2.11663E+03 -7.74309E+02 -2.53752E+03
  4.24640E+02 -2.06076E+03  1.95307E+03 -8.54323E+02  1.56590E+03  2.11461E+03 -9.28266E+02  2.77194E+03
 -3.04210E+03  1.06475E+03 -2.52431E+03 -2.25939E+03 -8.76036E+02 -4.80669E+03  3.23002E+02 -3.18312E+03
  1.48673E+03 -2.05236E+03  2.75764E+03  8.65698E+02  1.86288E+03  6.70560E+02  2.42693E+02  2.74106E+03
 -1.05242E+03  2.58966E+02 -2.21073E+03 -5.98813E+02  4.42797E+02 -2.55354E+03  3.42915E+03 -2.10715E+03
  2.82021E+03  1.42095E+02  4.78665E+03  2.56381E+03  1.40717E+03  4.17354E+03 -1.49805E+03  3.75789E+03
 -2.99619E+03  1.98526E+03 -3.74120E+03 -1.07610E+03 -1.66800E+03 -2.15781E+03  1.15203E+03 -2.19895E+03
  3.06760E+03 -1.64863E+03  1.66197E+03  9.30753E+02  1.31386E+03  2.37119E+03 -3.70436E+02  2.21828E+03
 -9.32707E+02  1.68645E+03 -1.71449E+03  3.80329E+02 -1.22088E+02  1.09328E+02 -1.22398E+03  2.96163E+02
 -9.07128E+02  1.17960E+03 -2.77950E+03  1.16944E+03 -3.84989E+03 -1.37057E+01 -4.95149E+03 -2.31149E+03
 -2.74790E+03 -4.54012E+03  1.66213E+03 -6.65131E+03  3.78059E+03 -5.12193E+03  5.53954E+03 -1.66002E+03
  4.84506E+03  2.42429E+02  2.63501E+03  3.95003E+03  5.54539E+02  3.44505E+03 -1.90925E+03  2.02948E+03
 -2.37316E+03  1.45768E+03 -6.03521E+02 -5.41083E+02 -3.83249E+02 -3.71879E+02 -5.71074E+02  7.03895E+02
 -1.05874E+03 -1.85985E+01 -1.19089E+03  9.75266E+01 -5.92383E+02 -6.37453E+02 -4.43242E+02 -1.47727E+03
  2.15780E+03 -1.58474E+03  2.21724E+03  2.07644E+02  2.96301E+03  2.17061E+03 -4.50017E+02  4.01481E+03
 -2.05377E+03  5.11818E+03 -4.55029E+03  2.89562E+03 -4.56557E+03 -6.22130E+02 -3.14890E+03 -2.48529E+03
 -1.72754E+03 -3.75486E+03  6.01259E+02 -3.13561E+03  2.40398E+03 -2.17881E+03  2.17830E+03  4.89903E+02
  2.15703E+03  9.38596E+02  3.11165E+01  1.06112E+03 -6.61483E+02 -1.60716E+01  2.25789E+02 -1.02733E+03
  1.63540E+03 -5.46385E+01  1.61726E+03  2.14664E+02  9.32530E+02  1.61026E+03  2.80660E+02  1.35215E+03
 -1.37485E+03  1.74604E+03 -2.13565E+03 -1.23952E+02 -2.54329E+03 -1.52296E+03 -3.95193E+02 -3.00376E+03
  1.62907E+03 -2.38932E+03  2.58514E+03 -6.67753E+02  2.49401E+03  2.92425E+02  1.35471E+03  2.54945E+03
  5.28548E+02  2.16658E+03 -5.09469E+02  1.89595E+03 -1.82418E+03  1.45657E+03 -1.14703E+03 -7.10017E+00
 -2.64365E+02  1.83915E+02 -1.45692E+03  3.60004E+02 -1.19308E+03  4.16392E+02 -1.72227E+03 -2.47701E+02
 -2.02812E+03 -7.01966E+02 -3.02556E+02 -2.89484E+03  1.09287E+03 -2.49439E+03  1.70026E+03 -1.65918E+03
  2.82688E+03  1.22419E+02  9.89675E+02  1.84305E+03  4.37018E+02  2.21368E+03 -1.29629E+03  1.90527E+03
