 $NMID ID='MM_0lb_SNR400_11hz_g45_33.RAW', FMTDAT='(8E13.5)'
 TRAMP=1., VOLUME=1. $END
  3.10361E+05  3.41702E+02  3.37478E+05  2.50789E+05  8.53325E+04  3.38556E+05 -1.32786E+05  2.50671E+05
 -1.90059E+05  8.38857E+04 -1.11484E+05 -3.24823E+04  6.64048E+02 -5.11676E+04  5.35856E+04 -8.43734E+01
  3.62972E+04  5.28426E+04 -1.69751E+04  7.55136E+04 -6.12656E+04  6.37186E+04 -8.46142E+04  3.32887E+04
 -8.17256E+04 -1.20103E+04 -5.79088E+04 -5.16588E+04 -1.55928E+04 -7.04205E+04  2.73719E+04 -4.63269E+04
  4.07272E+04  4.46678E+03  1.68238E+04  4.83626E+04 -3.50085E+04  4.76444E+04 -6.69316E+04 -3.78769E+02
 -5.38713E+04 -5.70993E+04 -7.38177E+03 -7.82235E+04  3.45070E+04 -5.62305E+04  4.85868E+04 -1.73404E+04
  4.45820E+04  1.15063E+04  3.28151E+04  2.63342E+04  1.57107E+04  3.02063E+04 -5.70335E+03  2.76022E+04
 -2.12737E+04  1.24910E+04 -1.78966E+04 -5.53534E+03  6.38371E+03 -7.37477E+03  2.34826E+04  1.25072E+04
  7.35854E+03  3.67825E+04 -3.29371E+04  3.62578E+04 -6.45796E+04  1.62077E+03 -5.82853E+04 -4.41158E+04
 -1.27229E+04 -6.44971E+04  4.01012E+04 -4.65662E+04  5.89606E+04 -2.29640E+03  3.56199E+04  3.38692E+04
 -6.61854E+03  3.77637E+04 -3.05892E+04  1.73246E+04 -3.20410E+04 -3.92735E+03 -1.82091E+04 -1.15694E+04
 -9.46609E+03 -1.35963E+04 -9.49467E+02 -1.85692E+04  8.11109E+03 -2.31639E+04  1.57275E+04 -1.32649E+04
  1.14593E+04  5.75910E+03 -9.25798E+03  1.29289E+04 -2.17532E+04 -5.75752E+03 -8.71768E+03 -3.53628E+04
  2.31076E+04 -4.50559E+04  5.03274E+04 -2.03402E+04  4.66948E+04  2.04612E+04  1.67263E+04  4.61724E+04
 -1.71064E+04  3.42907E+04 -2.73262E+04  1.97125E+03 -1.00383E+04 -2.85428E+04  2.09344E+04 -3.50567E+04
  4.27079E+04 -1.04293E+04  3.77949E+04  2.48123E+04  2.02903E+04  4.94064E+04 -7.85571E+03  5.30322E+04
 -3.37021E+04  3.59088E+04 -4.49061E+04  1.07207E+04 -4.48100E+04 -1.76942E+04 -2.44653E+04 -4.04093E+04
  8.21589E+03 -3.98509E+04  3.27953E+04 -1.70586E+04  3.11589E+04  1.09768E+04  5.00727E+03  1.96162E+04
 -1.36753E+04  8.91912E+03 -1.11985E+04 -7.39622E+03  5.60382E+03 -1.04477E+04  1.78635E+04  5.88670E+03
  1.37611E+04  2.27748E+04 -5.80668E+03  2.56126E+04 -2.31510E+04  1.30850E+04 -2.91864E+04 -4.18577E+03
 -2.37947E+04 -1.79084E+04 -9.33653E+03 -2.30484E+04  4.38960E+03 -2.23483E+04  1.73079E+04 -2.09133E+04
  2.90923E+04 -1.37937E+04  3.60572E+04  3.74600E+03  2.52561E+04  2.19472E+04  3.94641E+03  3.87776E+04
 -1.89306E+04  3.19724E+04 -2.89734E+04  1.13268E+04 -2.17667E+04 -1.03892E+04 -4.46609E+03 -1.36609E+04
  6.82209E+02 -2.21664E+03 -6.33832E+03  7.82080E+03 -1.82746E+04  5.03381E+03 -1.86536E+04 -8.45774E+03
 -1.15756E+04 -2.12596E+04  5.12487E+03 -2.51979E+04  1.74100E+04 -1.84326E+04  2.01168E+04 -1.74620E+03
  1.27979E+04  1.35344E+04 -1.20345E+03  2.12838E+04 -1.47630E+04  1.18471E+04 -2.14952E+04 -4.41002E+03
 -1.55893E+04 -1.90391E+04 -2.44344E+03 -2.54929E+04  1.10557E+04 -2.11014E+04  2.05674E+04 -1.08532E+04
  2.02847E+04 -2.27189E+01  1.49208E+04  4.24924E+03  8.29685E+03  1.95055E+03  1.13514E+04 -1.86462E+03
  1.96120E+04  2.52445E+03  2.25420E+04  1.63310E+04  1.42553E+04  3.32056E+04 -2.94522E+03  3.88023E+04
 -2.24955E+04  3.18536E+04 -3.65608E+04  1.62148E+04 -3.90727E+04 -3.03202E+03 -3.18120E+04 -2.23278E+04
 -1.33196E+04 -3.20233E+04  1.15469E+04 -2.86772E+04  2.43044E+04 -1.45020E+04  2.11297E+04  6.97244E+03
  7.17457E+03  1.64127E+04 -1.04911E+04  1.42009E+04 -1.78838E+04  2.94268E+03 -1.37392E+04 -1.12088E+04
 -1.02335E+03 -1.73828E+04  8.79408E+03 -1.25242E+04  1.12177E+04 -1.23951E+03  3.30145E+03  7.18106E+03
 -7.66766E+03  3.63812E+03 -6.87863E+03 -5.97422E+03 -9.83849E+02 -1.59066E+04  1.01958E+04 -1.67665E+04
  2.00883E+04 -9.16340E+03  2.16675E+04  3.46578E+03  1.88111E+04  1.57290E+04  8.15641E+03  2.44727E+04
 -4.48789E+03  2.69764E+04 -1.69430E+04  1.58095E+04 -1.87916E+04  3.51284E+03 -1.32046E+04 -5.26083E+03
 -6.60009E+03 -7.13832E+03 -1.18488E+03  8.08332E+02 -3.38280E+03  3.27857E+03 -6.55895E+03  4.46613E+03
 -1.22801E+04 -1.61708E+03 -1.26360E+04 -9.78544E+03 -4.91247E+03 -1.66148E+04  5.36090E+03 -1.36227E+04
  1.03128E+04 -5.53505E+03  7.74643E+03  3.70880E+03 -2.58647E+02  4.36579E+03 -6.34350E+03  4.30263E+02
 -6.58881E+03 -9.14389E+03 -1.65965E+03 -1.28029E+04  7.01266E+03 -1.33556E+04  1.65517E+04 -7.75136E+03
  2.03857E+04  1.27379E+03  1.47171E+04  1.16480E+04  2.38551E+03  1.60511E+04 -8.69560E+03  1.27614E+04
 -1.18125E+04  3.98858E+03 -5.43043E+03 -2.71483E+03  1.76865E+03 -4.36214E+03  6.65927E+03 -1.32187E+03
  6.82593E+03  6.08448E+03 -3.08754E+01  1.02590E+04 -6.99456E+03  1.05618E+04 -1.31038E+04  2.54470E+03
 -8.92571E+03 -7.35982E+03  2.50907E+02 -1.11191E+04  7.43544E+03 -5.55747E+03  8.00839E+03  2.93246E+03
  1.49377E+03  7.40263E+03 -6.96346E+03  9.03626E+03 -1.05059E+04  4.32154E+03 -1.09038E+04 -3.79007E+03
 -7.26547E+03 -1.32297E+04  3.39637E+03 -1.40630E+04  1.29506E+04 -8.81247E+03  1.33336E+04  2.39491E+03
  8.48460E+03  1.03872E+04 -1.50608E+03  1.34053E+04 -9.30263E+03  7.50653E+03 -1.04342E+04 -1.12917E+02
 -9.02186E+03 -8.45884E+03 -1.43840E+03 -9.75776E+03  5.22737E+03 -8.31402E+03  5.72571E+03 -3.64957E+03
  3.88569E+03  1.63898E+03 -9.24074E+02  1.43357E+03 -3.07251E+02 -1.92841E+03  1.15302E+03 -5.99979E+03
  8.97494E+03 -3.66372E+03  1.19917E+04  7.70061E+02  1.26576E+04  8.78324E+03  8.12289E+03  1.64834E+04
 -4.15215E+03  1.94323E+04 -1.65735E+04  1.35057E+04 -2.14952E+04  2.59768E+03 -1.65721E+04 -8.13906E+03
 -8.72850E+03 -1.40363E+04 -6.69546E+02 -1.12968E+04  4.69516E+03 -6.32476E+03  4.30751E+03 -4.61769E+03
  3.27910E+03 -2.05968E+03  3.63462E+03 -3.40334E+03  5.19293E+03 -3.00446E+03  6.87381E+03 -7.84405E+02
  8.41205E+03  2.18921E+03  3.63218E+03  7.53708E+03 -2.00249E+03  9.10074E+03 -8.08146E+03  6.63509E+03
 -1.15039E+04 -1.56882E+03 -6.49612E+03 -8.14380E+03 -4.66876E+02 -1.17003E+04  7.32268E+03 -1.27981E+04
  1.30797E+04 -7.08593E+03  1.49763E+04  1.87447E+03  1.03077E+04  1.11367E+04  2.23576E+03  1.34592E+04
 -5.28730E+03  1.11899E+04 -8.25414E+03  3.81160E+03 -5.34319E+03 -1.47448E+03 -1.84607E+03 -1.76443E+03
 -7.97764E+02 -9.45014E+01 -1.97299E+03  2.50740E+03 -4.91105E+03  1.56309E+03 -8.88491E+03 -1.15732E+03
 -5.25072E+03 -7.96369E+03 -8.15327E+02 -1.11533E+04  7.18062E+03 -1.01695E+04  1.11848E+04 -3.56628E+03
  1.08788E+04  5.58166E+03  5.33592E+03  9.92770E+03 -2.35475E+03  1.16813E+04 -8.32616E+03  7.04349E+03
 -1.08682E+04  7.77783E+02 -8.50557E+03 -6.96380E+03 -9.82486E+02 -9.54133E+03  4.88858E+03 -6.96393E+03
  6.69511E+03 -2.00285E+03  5.17734E+03  1.55788E+03  1.74800E+03  3.55650E+03  1.52450E+03  9.68770E+02
  1.32603E+03  9.50670E+02  2.78353E+03  1.52583E+03  3.53784E+03  4.17631E+03  2.52414E+03  5.45748E+03
 -3.26185E+03  9.06345E+03 -7.33025E+03  9.47985E+03 -1.13004E+04  2.27576E+03 -1.18330E+04 -4.76624E+03
 -5.35285E+03 -1.10838E+04  2.16161E+03 -1.23591E+04  7.37375E+03 -6.90249E+03  8.92586E+03 -2.68763E+03
  7.56870E+03  4.67355E+03  1.54122E+03  6.46497E+03 -2.73523E+03  4.43529E+03 -4.65152E+03 -9.87840E+02
 -2.60909E+03 -5.08529E+03  2.38331E+03 -5.51094E+03  4.10997E+03 -2.04443E+03  4.61139E+03  8.40520E+02
  2.69068E+03  1.82014E+03  2.15566E+03  1.51893E+03 -8.82132E+02  1.53442E+03  1.76405E+03  5.90897E+01
  1.00696E+03 -1.01854E+03  4.95670E+03  2.48343E+03  2.47981E+03  6.31568E+03 -5.97009E+02  8.16596E+03
 -5.23952E+03  4.87708E+03 -7.26472E+03  9.94382E+02 -5.95137E+03 -2.99895E+03 -2.07814E+03 -3.78001E+03
  8.89885E+02 -4.11371E+03  2.33662E+03 -2.12114E+03  2.38071E+03  2.41335E+03 -1.39365E+03  4.08534E+03
 -4.23019E+03  2.56526E+03 -5.04845E+03 -2.69468E+03 -2.53727E+03 -5.78184E+03  1.10791E+03 -5.26545E+03
  2.61407E+03 -3.69663E+03  4.01253E+03 -7.81155E+01  3.80140E+03  1.24588E+03  4.10873E+02  3.75754E+03
 -1.68974E+03  1.05946E+03 -2.55306E+03 -2.65174E+03  1.19114E+03 -4.34931E+03  5.36597E+03 -4.23509E+03
  6.86094E+03 -1.40235E+02  7.54436E+03  4.58910E+03  3.01058E+03  6.75403E+03 -1.89591E+03  6.27458E+03
 -6.01325E+03  3.17105E+03 -6.23841E+03 -2.52288E+02 -3.88168E+03 -4.02601E+03  9.83778E+02 -4.98145E+03
  3.92195E+03 -2.04328E+03  3.85596E+03  1.31137E+03  3.94366E+02  4.14590E+03 -7.23555E+02  4.08403E+03
 -1.72559E+03  2.23972E+03 -1.88254E+03  9.49838E+02 -7.63974E+02  2.24561E+02 -1.35344E+03  1.24648E+03
 -2.16471E+03  2.76902E+03 -4.77314E+03  2.56743E+03 -6.92758E+03  3.55177E+02 -7.92287E+03 -4.70223E+03
 -4.39291E+03 -7.97948E+03  1.02644E+03 -1.06932E+04  5.92018E+03 -8.47342E+03  1.03229E+04 -3.39576E+03
  9.57844E+03  2.19062E+03  5.53114E+03  6.56842E+03  2.04620E+02  7.07145E+03 -2.84046E+03  4.66404E+03
 -4.62800E+03  1.42698E+03 -2.37243E+03 -1.30596E+03 -2.45405E+02  4.17669E+02 -5.06980E+02 -4.32006E+02
 -1.63934E+03  5.57070E+02 -1.98492E+03 -4.53485E+02 -6.14137E+01 -1.48942E+03 -2.35464E+02 -3.08172E+03
  3.12199E+03 -2.70345E+03  3.78567E+03 -1.89056E+02  4.65148E+03  3.90225E+03  1.15283E+03  7.11699E+03
 -3.35125E+03  8.37501E+03 -6.50767E+03  4.91647E+03 -8.69284E+03 -7.27161E+02 -6.13869E+03 -5.20183E+03
 -3.70849E+03 -7.81548E+03  1.55316E+03 -6.74130E+03  4.94063E+03 -3.59306E+03  4.67718E+03 -1.54068E+02
  2.64458E+03  2.50721E+03 -1.69733E+01  2.26756E+03 -1.73842E+03 -4.24908E+02 -8.49004E+01 -1.59286E+03
  2.38539E+03 -9.91123E+02  2.19962E+03  1.44789E+03  2.00054E+03  2.19530E+03  1.71291E+02  3.11878E+03
 -3.60424E+03  2.67537E+03 -4.80197E+03  2.68624E+02 -4.42344E+03 -3.03019E+03 -4.20604E+02 -6.06136E+03
  3.50562E+03 -4.74394E+03  5.18588E+03 -9.47711E+02  5.09233E+03  9.65354E+02  3.65175E+03  4.16092E+03
  8.22630E+01  4.64480E+03 -1.42979E+03  3.43262E+03 -3.12543E+03  2.11258E+03 -2.37979E+03  9.12326E+02
 -1.30767E+03 -6.05309E+02 -1.38214E+03  7.30982E+02 -2.88277E+03  2.12070E+02 -3.37822E+03 -2.13530E+02
 -3.51371E+03 -1.91744E+03 -1.39770E+03 -4.52835E+03  2.21349E+03 -5.42579E+03  4.18079E+03 -1.65395E+03
  4.85961E+03  5.80317E+02  2.49392E+03  2.83354E+03 -5.21396E+02  4.40508E+03 -3.11919E+03  3.42545E+03
