 $NMID ID='MM_0lb_SNR400_18hz_g40_49.RAW', FMTDAT='(8E13.5)'
 TRAMP=1., VOLUME=1. $END
  3.09394E+05  1.10849E+03  3.37735E+05  2.50196E+05  8.41099E+04  3.37684E+05 -1.32197E+05  2.49975E+05
 -1.89399E+05  8.26777E+04 -1.10766E+05 -3.27323E+04  1.61501E+03 -5.03559E+04  5.36808E+04  6.52216E+02
  3.48745E+04  5.31267E+04 -1.68650E+04  7.49620E+04 -6.01657E+04  6.24208E+04 -8.30777E+04  3.16183E+04
 -7.99474E+04 -1.12367E+04 -5.66636E+04 -4.94919E+04 -1.44997E+04 -6.82366E+04  2.68549E+04 -4.50587E+04
  3.85689E+04  4.12681E+03  1.60399E+04  4.72378E+04 -3.45548E+04  4.58020E+04 -6.54149E+04 -1.52252E+02
 -5.23472E+04 -5.52593E+04 -6.33114E+03 -7.50397E+04  3.32424E+04 -5.34127E+04  4.58330E+04 -1.63298E+04
  4.17615E+04  1.08503E+04  3.08971E+04  2.44003E+04  1.61310E+04  2.80093E+04 -4.92068E+03  2.71895E+04
 -2.15449E+04  1.29659E+04 -1.90730E+04 -4.10476E+03  3.68613E+03 -7.38245E+03  2.10007E+04  1.10927E+04
  7.63131E+03  3.29866E+04 -3.02632E+04  3.39569E+04 -6.05418E+04  2.05011E+03 -5.51160E+04 -4.12794E+04
 -1.26126E+04 -5.99777E+04  3.77438E+04 -4.32784E+04  5.55768E+04 -1.73103E+03  3.12548E+04  3.04179E+04
 -6.91441E+03  3.31749E+04 -2.81517E+04  1.30904E+04 -2.70239E+04 -5.92262E+03 -1.40350E+04 -9.50524E+03
 -7.20395E+03 -1.12821E+04 -8.14214E+02 -1.65243E+04  6.39023E+03 -2.24979E+04  1.47055E+04 -1.41465E+04
  1.24227E+04  4.92350E+03 -6.18068E+03  1.31839E+04 -1.91049E+04 -2.41517E+03 -7.98287E+03 -3.00039E+04
  2.06340E+04 -3.98999E+04  4.45376E+04 -1.85926E+04  4.15766E+04  1.77910E+04  1.36930E+04  4.15724E+04
 -1.51050E+04  3.08188E+04 -2.32894E+04  1.58957E+03 -7.76734E+03 -2.59527E+04  2.06813E+04 -3.09317E+04
  3.74652E+04 -6.70967E+03  3.05234E+04  2.29749E+04  1.55896E+04  4.20013E+04 -7.84167E+03  4.49629E+04
 -2.75819E+04  2.94018E+04 -3.75434E+04  8.67086E+03 -3.76737E+04 -1.43983E+04 -2.06875E+04 -3.44615E+04
  6.79628E+03 -3.42608E+04  2.93649E+04 -1.23359E+04  2.68343E+04  1.06934E+04  2.65099E+03  1.74244E+04
 -1.27720E+04  7.37781E+03 -1.00538E+04 -7.52854E+03  5.58500E+03 -1.02914E+04  1.77046E+04  6.69152E+03
  1.23592E+04  2.15883E+04 -6.29948E+03  2.37674E+04 -2.17198E+04  9.25830E+03 -2.48658E+04 -6.64774E+03
 -1.65428E+04 -1.61368E+04 -5.05968E+03 -1.67861E+04  4.29107E+03 -1.44384E+04  1.20037E+04 -1.44807E+04
  2.05699E+04 -1.20086E+04  2.80772E+04  1.28283E+03  2.16454E+04  1.60217E+04  4.48033E+03  3.23253E+04
 -1.53974E+04  2.70223E+04 -2.56318E+04  9.20707E+03 -1.97609E+04 -1.01903E+04 -3.71741E+03 -1.42453E+04
  3.04789E+03 -4.42829E+03 -1.95015E+03  5.20090E+03 -1.29531E+04  5.26071E+03 -1.31408E+04 -4.95842E+03
 -8.41737E+03 -1.54342E+04  4.68893E+03 -1.91937E+04  1.23712E+04 -1.38187E+04  1.45655E+04 -9.68816E+02
  8.91981E+03  1.10195E+04 -8.44201E+02  1.56785E+04 -9.92459E+03  8.88255E+03 -1.52331E+04 -3.21802E+03
 -1.15718E+04 -1.45354E+04 -1.38349E+03 -1.87747E+04  8.45324E+03 -1.50356E+04  1.61082E+04 -7.02247E+03
  1.43322E+04  9.83759E+02  9.82044E+03  3.95005E+03  5.77072E+03  2.54366E+02  6.98879E+03 -1.46031E+03
  1.36555E+04  2.75709E+03  1.46022E+04  1.25894E+04  8.92421E+03  2.49595E+04 -2.53949E+03  2.60782E+04
 -1.57174E+04  1.98667E+04 -2.41768E+04  9.92924E+03 -2.48096E+04 -1.64819E+03 -2.15575E+04 -1.39185E+04
 -1.00356E+04 -2.00443E+04  6.66948E+03 -1.86848E+04  1.66426E+04 -1.09760E+04  1.53438E+04  3.13912E+03
  6.48747E+03  1.10192E+04 -6.74264E+03  1.02930E+04 -1.30408E+04  2.67384E+03 -1.02653E+04 -7.90524E+03
 -1.48036E+01 -1.20414E+04  5.88316E+03 -9.53750E+03  7.71825E+03 -1.66189E+03  6.76387E+02  4.91124E+03
 -5.32060E+03  1.23053E+03 -3.83994E+03 -4.31404E+03  4.29425E+02 -9.74052E+03  7.82011E+03 -1.01505E+04
  1.25463E+04 -4.50063E+03  1.12793E+04  3.06321E+03  1.03522E+04  9.24284E+03  4.62392E+03  1.36816E+04
 -1.70997E+03  1.53420E+04 -9.64212E+03  9.90822E+03 -1.13396E+04  2.93915E+03 -8.24399E+03 -1.47496E+03
 -3.96437E+03 -2.98953E+03 -4.03043E+02  1.83372E+03 -1.71276E+03  2.09538E+03 -3.55182E+03  3.36322E+03
 -8.06493E+03 -9.27738E+02 -8.86648E+03 -7.24852E+03 -3.39623E+03 -1.11669E+04  3.46649E+03 -8.50596E+03
  7.11547E+03 -4.11571E+03  5.37280E+03  1.91072E+03  5.23546E+02  2.81869E+03 -3.12506E+03 -3.03123E+02
 -3.14889E+03 -4.70874E+03 -7.51272E+02 -7.03088E+03  4.06067E+03 -8.12691E+03  9.29636E+03 -4.07513E+03
  1.18344E+04  4.04268E+02  8.30299E+03  6.38274E+03  1.34364E+03  8.69010E+03 -4.71651E+03  8.05333E+03
 -7.03315E+03  3.03086E+03 -2.98330E+03 -1.68920E+03  1.44559E+03 -1.85086E+03  4.96623E+03 -5.74552E+02
  4.03406E+03  3.20091E+03  1.32222E+03  6.69069E+03 -4.04449E+03  6.38068E+03 -8.16466E+03  1.51081E+03
 -4.76074E+03 -3.76764E+03  8.26187E+01 -6.68609E+03  3.83417E+03 -3.74248E+03  3.23446E+03  7.16314E+02
  2.19897E+02  3.06544E+03 -3.54259E+03  5.12303E+03 -5.01722E+03  2.35666E+03 -4.65886E+03 -1.61946E+03
 -2.77849E+03 -5.87606E+03  1.62226E+03 -7.41718E+03  6.35224E+03 -4.66434E+03  6.61826E+03  7.72012E+02
  4.94598E+03  5.09348E+03  2.88689E+02  7.69519E+03 -4.92360E+03  3.89382E+03 -5.29601E+03 -4.06439E+02
 -5.21735E+03 -4.91777E+03 -1.53945E+03 -5.09337E+03  2.87669E+03 -4.61421E+03  2.61633E+03 -2.99728E+03
  2.64176E+03 -3.50958E+02  5.39586E+00  9.34543E+02  9.88145E+02 -6.93323E+02  3.98795E+01 -2.06885E+03
  4.27012E+03 -1.60926E+03  5.45878E+03  7.32295E+02  5.20258E+03  2.91583E+03  5.49111E+03  7.10597E+03
 -1.23327E+03  9.08943E+03 -7.90991E+03  6.55305E+03 -9.84424E+03  8.75338E+02 -7.84514E+03 -2.91512E+03
 -4.04558E+03 -7.21691E+03 -7.16768E+02 -5.00454E+03  2.17883E+03 -1.79204E+03  1.48216E+03 -2.56921E+03
  1.09178E+03 -1.08810E+03  2.00401E+03 -2.12667E+03  3.54391E+03 -1.42989E+03  3.48089E+03  3.04140E+02
  4.45560E+03  1.41019E+03  9.32756E+02  3.74753E+03 -1.75440E+03  3.12678E+03 -4.16046E+03  2.40272E+03
 -5.27886E+03 -1.49983E+03 -2.29521E+03 -3.24264E+03  2.62016E+02 -4.68158E+03  3.34622E+03 -5.42055E+03
  5.32933E+03 -3.09168E+03  6.87642E+03  5.71519E+02  4.71714E+03  4.14093E+03  1.23056E+03  6.15399E+03
 -2.05276E+03  5.95124E+03 -3.31294E+03  1.87115E+03 -1.82538E+03 -1.14824E+03 -2.80414E+02 -2.58636E+02
 -3.79411E+02  9.18799E+02 -1.33399E+03  2.46881E+03 -2.11141E+03  6.63323E+02 -4.54002E+03 -1.07787E+02
 -2.06335E+03 -4.06319E+03  5.38814E+02 -4.69217E+03  3.08273E+03 -4.29420E+03  3.53039E+03 -9.46504E+02
  4.11498E+03  2.25724E+03  1.56571E+03  3.22936E+03 -1.07700E+03  4.90961E+03 -2.43617E+03  2.97762E+03
 -3.61678E+03  5.80333E+02 -3.70207E+03 -2.19853E+03 -3.86772E+02 -3.31693E+03  1.86804E+03 -2.39933E+03
  2.85555E+03 -1.52651E+03  1.64089E+03  2.15851E+02  3.28213E+02  1.77362E+03  8.71299E+02  3.92623E+02
  1.73193E+03  3.02494E+02  6.64655E+02  7.48163E+02  1.12281E+03  2.28419E+03  1.39043E+03  1.68435E+03
 -1.89894E+03  3.21427E+03 -2.77290E+03  3.91820E+03 -3.21232E+03  1.29025E+03 -4.61878E+03 -4.75534E+02
 -1.72844E+03 -3.96112E+03  1.01418E+03 -4.51398E+03  2.41228E+03 -2.64120E+03  3.14514E+03 -1.04512E+03
  2.20523E+03  2.30932E+03  1.05665E+03  1.88155E+03 -6.54159E+02  1.53632E+03 -1.29606E+03 -1.64585E+02
 -2.68793E+02 -1.43702E+03  9.27194E+02 -1.81576E+03  1.63817E+03 -1.45996E+03  1.49583E+03  2.54011E+02
  7.63976E+02  3.52197E+02  8.02338E+02 -1.90419E+02 -6.64874E+02  8.71806E+02  1.20511E+03 -2.65565E+02
  1.95411E+02 -6.21502E+02  1.58648E+03  5.94629E+02  4.16801E+02  2.66480E+03 -2.16436E+02  3.42390E+03
 -1.92128E+03  1.25871E+03 -1.89836E+03  3.40129E+02 -2.36228E+03 -1.26569E+03  1.99765E+02 -1.37795E+03
  9.25464E+01 -1.54493E+03  1.58494E+03 -4.92617E+02  6.55747E+02  8.79052E+02 -5.75177E+02  1.39849E+03
 -1.45110E+03  7.63947E+02 -1.69931E+03 -8.50187E+02 -7.92325E+02 -2.40394E+03 -2.67817E+02 -8.52801E+02
  1.02551E+03 -6.32934E+02  1.35973E+03 -2.26135E+02  1.83858E+03 -3.77174E+01  3.36689E+01  5.93288E+02
 -4.24994E+02 -2.05072E+02 -4.55699E+02 -4.28299E+02  1.00154E+03 -6.98839E+02  1.73346E+03 -1.21521E+03
  9.19805E+02  1.82587E+02  3.17400E+03  1.07273E+03  9.64506E+02  2.20781E+03 -8.22563E+01  2.68281E+03
 -1.44565E+03  1.62382E+02 -1.99246E+03 -3.69547E+02 -1.00435E+03 -1.65666E+03  6.38397E+00 -1.26227E+03
  1.44294E+03 -9.07170E+02  1.15138E+03  6.42041E+02 -1.34462E+02  1.81744E+03  5.84743E+02  1.31715E+03
 -6.23750E+02  1.26694E+03 -5.92322E+02  6.45324E+02 -6.89301E+01  8.71865E+02 -6.15384E+02  2.34259E+02
 -1.99840E+02  8.34651E+02 -2.21708E+03  7.19957E+02 -1.56299E+03 -2.85274E+02 -2.59774E+03 -1.45606E+03
 -8.90788E+02 -1.88494E+03  5.88010E+02 -3.20764E+03  7.61599E+02 -2.90618E+03  2.95870E+03 -8.05511E+02
  2.56534E+03 -2.81007E+01  1.47241E+03  2.10505E+03 -8.02233E+02  1.88471E+03 -9.28071E+02  1.00680E+03
 -1.02286E+03  1.22046E+03 -3.79701E+02 -4.21732E+02 -3.57493E+02  4.40206E+02 -4.27605E+02  3.63619E+02
 -9.70429E+02 -4.51276E+02 -1.01274E+03  2.66087E+00  7.18600E+02 -4.06578E+02 -3.69688E+02 -5.34154E+02
  1.33091E+03 -1.79779E+02  6.84721E+02  4.93131E+02  5.52316E+02  8.99334E+02 -4.98797E+02  1.36724E+03
 -1.36565E+03  2.65579E+03 -1.78060E+03  1.54002E+03 -1.38187E+03 -7.52218E+01 -1.21892E+03 -1.41930E+03
 -4.41845E+02 -1.66668E+03  3.69913E+02 -1.77618E+03  8.35621E+02 -6.13017E+02  6.92924E+02  9.06768E+02
  7.95989E+02  5.40062E+02 -4.27134E+02  7.58645E+02 -3.64020E+01  2.22987E+02 -7.69994E+01 -9.50001E+02
  6.23729E+02 -9.21858E+01  1.11365E+03  4.56305E+02  6.25094E+02  3.85651E+02  5.32417E+02  2.27432E+02
 -7.23186E+02  7.26430E+02 -1.05900E+03  1.49669E+02 -8.77798E+02 -8.92122E+02  2.66893E+02 -1.48095E+03
  7.95120E+02 -1.15908E+03  5.68616E+02 -5.99027E+01  8.89710E+02 -8.12982E+02  6.67924E+02  8.32967E+02
  7.29402E+02  1.09755E+03 -3.96962E+02  5.23029E+02 -6.76861E+02  8.58478E+02  1.13997E+02  2.51595E+01
  1.37293E+02  7.14345E+00 -6.67374E+02  1.39648E+02 -4.27175E+02  3.79911E+02 -5.33258E+02 -2.11723E+02
 -1.46528E+03  1.00747E+02 -1.98473E+02 -1.38867E+03  6.13372E+02 -1.47621E+03  6.24253E+02 -8.18521E+02
  1.05275E+03 -4.08368E+01 -1.85552E+02  4.01168E+02  5.92576E+02  1.14971E+03 -7.78137E+02  6.75190E+02
