 $NMID ID='MM_0lb_SNR400_12hz_g55_9.RAW', FMTDAT='(8E13.5)'
 TRAMP=1., VOLUME=1. $END
  3.09795E+05  4.50861E+02  3.37726E+05  2.50223E+05  8.45471E+04  3.38000E+05 -1.32813E+05  2.52314E+05
 -1.89855E+05  8.38066E+04 -1.12137E+05 -3.19266E+04  2.27061E+02 -5.01533E+04  5.40150E+04 -4.66532E+02
  3.56554E+04  5.29247E+04 -1.69431E+04  7.56436E+04 -6.13574E+04  6.45531E+04 -8.40119E+04  3.27658E+04
 -8.18946E+04 -1.21397E+04 -5.76153E+04 -5.22030E+04 -1.50331E+04 -7.00983E+04  2.76193E+04 -4.55625E+04
  4.06692E+04  3.88649E+03  1.60831E+04  4.79638E+04 -3.49508E+04  4.75642E+04 -6.70755E+04 -3.64632E+02
 -5.41683E+04 -5.75333E+04 -6.55271E+03 -7.81591E+04  3.39666E+04 -5.60762E+04  4.88136E+04 -1.73313E+04
  4.35178E+04  1.12363E+04  3.28310E+04  2.58878E+04  1.55872E+04  2.96165E+04 -5.82624E+03  2.77244E+04
 -2.22763E+04  1.19781E+04 -1.85014E+04 -6.05855E+03  6.66682E+03 -6.95151E+03  2.30440E+04  1.35493E+04
  7.02047E+03  3.62318E+04 -3.31298E+04  3.66382E+04 -6.54367E+04  1.48928E+03 -5.77044E+04 -4.36728E+04
 -1.24344E+04 -6.62688E+04  4.12422E+04 -4.63191E+04  5.90841E+04 -2.35533E+03  3.52337E+04  3.36931E+04
 -6.02881E+03  3.87436E+04 -3.15652E+04  1.69486E+04 -3.20883E+04 -4.35333E+03 -1.79680E+04 -1.09279E+04
 -8.89666E+03 -1.43138E+04 -1.10225E+03 -1.92663E+04  7.93962E+03 -2.37823E+04  1.55172E+04 -1.31021E+04
  1.08314E+04  5.75740E+03 -9.25309E+03  1.24191E+04 -2.24886E+04 -5.84635E+03 -8.50807E+03 -3.55971E+04
  2.42599E+04 -4.54645E+04  4.97384E+04 -2.01195E+04  4.74120E+04  2.02873E+04  1.63299E+04  4.59989E+04
 -1.64845E+04  3.49962E+04 -2.63333E+04  2.11013E+03 -1.01122E+04 -2.89419E+04  2.15594E+04 -3.51562E+04
  4.26880E+04 -9.62295E+03  3.84043E+04  2.41616E+04  1.99175E+04  4.92427E+04 -8.84411E+03  5.32576E+04
 -3.37087E+04  3.62154E+04 -4.43462E+04  1.06305E+04 -4.62528E+04 -1.76665E+04 -2.53604E+04 -3.98659E+04
  8.15050E+03 -4.05182E+04  3.30069E+04 -1.65358E+04  3.11398E+04  1.12806E+04  4.82949E+03  2.03187E+04
 -1.37233E+04  9.15201E+03 -1.04366E+04 -7.88393E+03  5.54184E+03 -1.13139E+04  1.88577E+04  5.59525E+03
  1.44564E+04  2.22907E+04 -5.78315E+03  2.63391E+04 -2.34754E+04  1.26747E+04 -2.92435E+04 -4.06200E+03
 -2.27504E+04 -1.76352E+04 -9.59382E+03 -2.24981E+04  4.30928E+03 -2.28886E+04  1.77932E+04 -2.09917E+04
  2.91858E+04 -1.32916E+04  3.58742E+04  3.57799E+03  2.58861E+04  2.23480E+04  4.65814E+03  3.87576E+04
 -1.88604E+04  3.16117E+04 -2.99636E+04  1.10138E+04 -2.23908E+04 -1.06846E+04 -4.34016E+03 -1.36089E+04
  7.44615E+02 -2.30363E+03 -5.59192E+03  8.36771E+03 -1.82910E+04  5.23182E+03 -1.85742E+04 -8.59592E+03
 -1.14039E+04 -2.08178E+04  5.81946E+03 -2.56893E+04  1.71977E+04 -1.79890E+04  2.05440E+04 -1.66640E+03
  1.29528E+04  1.51914E+04 -1.04630E+03  2.05840E+04 -1.47860E+04  1.20438E+04 -2.15661E+04 -4.42105E+03
 -1.53201E+04 -1.92994E+04 -2.45139E+03 -2.52983E+04  1.19135E+04 -2.15721E+04  2.14287E+04 -1.08455E+04
  1.94388E+04 -1.51095E+01  1.38042E+04  5.79653E+03  7.34518E+03  8.58249E+02  1.11594E+04 -2.43092E+03
  1.98102E+04  2.62576E+03  2.23883E+04  1.63173E+04  1.49063E+04  3.43713E+04 -2.74638E+03  3.89029E+04
 -2.26443E+04  3.23403E+04 -3.69896E+04  1.70823E+04 -3.89293E+04 -2.56572E+03 -3.17401E+04 -2.28954E+04
 -1.35170E+04 -3.21250E+04  1.09473E+04 -2.86526E+04  2.47730E+04 -1.41869E+04  2.15466E+04  6.47492E+03
  7.55321E+03  1.66594E+04 -1.03016E+04  1.39741E+04 -1.86462E+04  2.27062E+03 -1.40627E+04 -1.12791E+04
  3.27913E+02 -1.72594E+04  9.70966E+03 -1.25749E+04  1.19311E+04 -1.05316E+03  3.35921E+03  7.47989E+03
 -8.07777E+03  3.78452E+03 -7.52554E+03 -6.48726E+03 -1.33405E+03 -1.65238E+04  1.09221E+04 -1.69979E+04
  1.87890E+04 -9.05088E+03  2.18899E+04  3.07632E+03  1.91292E+04  1.63048E+04  8.31438E+03  2.41378E+04
 -4.67932E+03  2.62398E+04 -1.75946E+04  1.69701E+04 -1.93022E+04  3.33833E+03 -1.37282E+04 -4.66092E+03
 -5.37615E+03 -6.54911E+03 -7.06331E+02  7.84012E+02 -2.47023E+03  3.76586E+03 -6.47398E+03  4.83517E+03
 -1.21465E+04 -1.49251E+03 -1.22644E+04 -1.05227E+04 -4.38582E+03 -1.61344E+04  5.46956E+03 -1.41098E+04
  1.09330E+04 -5.90732E+03  7.94120E+03  4.33251E+03  1.04327E+02  5.30596E+03 -6.78519E+03 -2.74618E+02
 -6.25472E+03 -9.23871E+03 -1.08893E+03 -1.25559E+04  8.04590E+03 -1.38959E+04  1.63430E+04 -7.49405E+03
  1.96786E+04  1.60220E+03  1.38160E+04  1.19637E+04  2.31781E+03  1.51957E+04 -7.87064E+03  1.42368E+04
 -1.07926E+04  3.71839E+03 -5.69686E+03 -2.59918E+03  1.74045E+03 -4.41182E+03  7.44977E+03 -5.16040E+02
  6.70042E+03  5.79707E+03  1.68250E+03  1.10475E+04 -8.25536E+03  1.03017E+04 -1.28924E+04  2.61203E+03
 -8.04168E+03 -5.96907E+03 -3.14641E+02 -1.12601E+04  7.11433E+03 -5.80333E+03  7.39810E+03  2.41294E+03
  1.97802E+03  7.83267E+03 -6.78719E+03  9.13404E+03 -1.10175E+04  4.38461E+03 -1.04831E+04 -3.82536E+03
 -6.05704E+03 -1.25169E+04  2.92027E+03 -1.47134E+04  1.18256E+04 -8.51412E+03  1.32333E+04  2.25515E+03
  7.66683E+03  1.10346E+04  3.20760E+02  1.26846E+04 -9.32347E+03  6.42115E+03 -1.05957E+04 -3.73190E+02
 -9.02012E+03 -9.36086E+03 -2.07698E+03 -9.24519E+03  5.20104E+03 -7.79752E+03  6.28709E+03 -3.45763E+03
  3.95893E+03  1.34992E+03 -6.42787E+02  1.97830E+03 -5.27877E+02 -1.30084E+03  1.27078E+03 -5.54476E+03
  9.34777E+03 -3.75419E+03  1.27112E+04  1.56655E+03  1.21038E+04  7.24560E+03  8.33868E+03  1.62412E+04
 -3.99442E+03  1.77198E+04 -1.55842E+04  1.37821E+04 -1.94485E+04  2.63043E+03 -1.63414E+04 -6.61015E+03
 -8.89044E+03 -1.32649E+04 -8.46944E+02 -1.15332E+04  4.04589E+03 -6.53413E+03  4.10000E+03 -4.29996E+03
  3.24114E+03 -2.56022E+03  3.38426E+03 -3.06138E+03  5.45210E+03 -2.83831E+03  6.60221E+03 -2.65518E+02
  8.72102E+03  2.04406E+03  4.16995E+03  7.39727E+03 -1.56417E+03  7.65339E+03 -9.41377E+03  6.24467E+03
 -1.10678E+04 -1.20754E+03 -6.08818E+03 -7.65978E+03 -1.05584E+03 -1.15515E+04  6.74562E+03 -1.23656E+04
  1.22596E+04 -6.91575E+03  1.43898E+04  1.51717E+03  1.10468E+04  9.98028E+03  1.58960E+03  1.30541E+04
 -5.42644E+03  1.15974E+04 -7.35632E+03  3.99781E+03 -5.13353E+03 -1.29992E+03 -2.55880E+03 -1.69169E+03
 -7.84596E+02 -1.50682E+02 -1.34997E+03  2.55693E+03 -4.79433E+03  1.76767E+03 -8.01699E+03 -9.65540E+02
 -4.38540E+03 -8.02145E+03  2.13066E+02 -1.07978E+04  6.54065E+03 -9.92468E+03  1.00873E+04 -3.06758E+03
  9.78504E+03  5.32285E+03  5.10171E+03  9.94161E+03 -2.48116E+03  1.08454E+04 -7.34729E+03  7.31078E+03
 -1.01329E+04  4.98379E+02 -7.93247E+03 -6.01994E+03 -7.10065E+02 -9.38042E+03  4.57281E+03 -6.29222E+03
  6.60644E+03 -2.60896E+03  4.23822E+03  1.02208E+03  1.73938E+03  3.25571E+03  9.82148E+02  1.10744E+03
  1.92238E+03  9.41922E+02  2.36320E+03  1.90224E+03  3.28290E+03  4.20375E+03  2.96940E+03  5.54589E+03
 -1.96357E+03  7.94849E+03 -7.17363E+03  8.97109E+03 -9.90420E+03  2.59897E+03 -1.05924E+04 -4.07977E+03
 -5.17330E+03 -1.12060E+04  1.42810E+03 -1.23712E+04  5.89433E+03 -7.37158E+03  9.17486E+03 -1.70744E+03
  6.73263E+03  4.73491E+03  2.40500E+03  6.24516E+03 -3.26777E+03  3.82891E+03 -3.92963E+03 -9.60464E+02
 -2.35632E+03 -4.46582E+03  2.55620E+03 -4.96192E+03  4.14548E+03 -2.27956E+03  4.55672E+03  9.14962E+02
  2.46138E+03  2.13918E+03  1.11174E+03  1.04020E+03 -7.40692E+02  1.43871E+03  1.83627E+03 -7.19132E+02
  1.81634E+03 -4.09842E+02  4.17824E+03  1.80499E+03  2.76098E+03  5.78259E+03 -4.72040E+02  7.11271E+03
 -5.18767E+03  4.23618E+03 -7.41823E+03  1.33872E+03 -5.90390E+03 -2.65183E+03 -2.14421E+03 -3.42789E+03
  1.30035E+03 -3.88403E+03  2.61034E+03 -1.51376E+03  1.92248E+03  2.52900E+03 -1.01749E+03  2.36801E+03
 -3.96662E+03  2.17232E+03 -4.29179E+03 -2.49267E+03 -3.12155E+03 -5.77333E+03  6.76922E+02 -4.87707E+03
  3.52901E+03 -3.32700E+03  3.99017E+03 -2.47619E+02  2.63496E+03  1.30821E+03  4.18852E+02  3.02163E+03
 -1.80818E+03  5.54461E+02 -2.64149E+03 -1.25070E+03  8.20528E+02 -4.54185E+03  5.48402E+03 -3.38608E+03
  5.82468E+03  5.82157E+02  6.72769E+03  5.00360E+03  2.11992E+03  6.63466E+03 -2.11610E+03  6.00436E+03
 -5.97585E+03  1.58528E+03 -5.50331E+03 -6.64608E+02 -3.10884E+03 -4.25969E+03  5.49364E+02 -3.78832E+03
  4.02560E+03 -2.01260E+03  3.70621E+03  1.90323E+03  1.79238E+03  4.11014E+03  1.81002E+02  3.07617E+03
 -2.10268E+03  2.71972E+03 -1.33844E+03  3.38956E+02 -8.02469E+02  9.51441E+02 -1.08915E+03  1.47774E+03
 -1.42106E+03  2.43435E+03 -5.01660E+03  1.97424E+03 -6.49926E+03 -8.67821E+01 -7.52114E+03 -3.73221E+03
 -3.66674E+03 -7.84078E+03  1.89832E+03 -9.62046E+03  5.71670E+03 -7.50898E+03  9.50254E+03 -3.56772E+03
  8.28911E+03  1.70435E+03  5.27203E+03  6.19803E+03 -1.40724E+01  5.88761E+03 -2.45816E+03  4.45845E+03
 -3.65602E+03  2.07935E+03 -1.61215E+03 -7.90187E+02 -9.52372E+02 -6.06939E+02 -5.33878E+02 -3.13474E+02
 -9.91634E+02  2.50236E+02 -1.83733E+03 -6.86597E+02  5.69712E+01 -1.38844E+03  3.71991E+02 -2.83461E+03
  3.12218E+03 -2.41416E+03  3.65035E+03 -1.46086E+02  3.80528E+03  2.53723E+03  8.18686E+02  6.13040E+03
 -2.67764E+03  6.97840E+03 -7.34754E+03  3.72209E+03 -8.30229E+03 -3.04842E+02 -5.16789E+03 -4.20705E+03
 -2.10697E+03 -6.12678E+03  1.75858E+03 -5.18545E+03  4.12885E+03 -3.41599E+03  4.28963E+03  7.80287E+01
  2.52990E+03  2.10647E+03 -5.78102E+02  1.52680E+03 -1.94583E+03  3.24474E+02  3.00262E+02 -1.06357E+03
  1.16585E+03 -6.93316E+02  1.60147E+03  3.29391E+02  1.21444E+03  2.31251E+03 -2.89074E+01  2.05553E+03
 -2.84765E+03  3.07888E+03 -3.73285E+03  8.67655E+02 -3.56301E+03 -1.77490E+03 -5.01163E+02 -4.98287E+03
  3.33325E+03 -3.28777E+03  4.24246E+03 -1.05719E+03  4.03627E+03  7.43322E+02  2.41282E+03  3.23054E+03
  7.09093E+02  3.50712E+03 -1.48693E+03  2.73691E+03 -2.42609E+03  2.02505E+03 -1.85994E+03  4.12126E+01
 -7.11177E+02  6.01510E+02 -9.60615E+02  1.60452E+02 -1.91708E+03  8.22269E+02 -2.89855E+03 -6.36740E+02
 -2.74078E+03 -1.81736E+03 -1.50146E+03 -3.90443E+03  1.84295E+03 -3.86741E+03  3.50292E+03 -1.40250E+03
  3.29809E+03  3.13215E+02  1.75929E+03  1.86587E+03 -7.73327E+02  3.42197E+03 -3.08956E+03  1.77123E+03
