 $NMID ID='MM_0lb_SNR400_15hz_g40_38.RAW', FMTDAT='(8E13.5)'
 TRAMP=1., VOLUME=1. $END
  3.10096E+05  3.72812E+01  3.37591E+05  2.50379E+05  8.46699E+04  3.37411E+05 -1.32876E+05  2.50305E+05
 -1.89620E+05  8.26804E+04 -1.11394E+05 -3.27002E+04  8.21105E+02 -5.11278E+04  5.41338E+04 -3.18163E+02
  3.54482E+04  5.28548E+04 -1.71134E+04  7.50618E+04 -6.09099E+04  6.30311E+04 -8.40304E+04  3.13577E+04
 -8.05003E+04 -1.12936E+04 -5.63799E+04 -5.04107E+04 -1.44906E+04 -6.91431E+04  2.62737E+04 -4.51742E+04
  3.97972E+04  3.50662E+03  1.56296E+04  4.74502E+04 -3.43204E+04  4.66675E+04 -6.61449E+04 -4.17733E+02
 -5.28171E+04 -5.64692E+04 -6.67169E+03 -7.61217E+04  3.32307E+04 -5.41048E+04  4.70670E+04 -1.68211E+04
  4.25407E+04  1.11246E+04  3.14519E+04  2.46365E+04  1.58103E+04  2.90278E+04 -4.34601E+03  2.65814E+04
 -2.23029E+04  1.27294E+04 -1.85043E+04 -4.52620E+03  5.31184E+03 -7.78314E+03  2.18641E+04  1.17992E+04
  7.41742E+03  3.44698E+04 -3.12253E+04  3.54127E+04 -6.24375E+04  2.41092E+03 -5.55972E+04 -4.19347E+04
 -1.27192E+04 -6.20108E+04  3.88337E+04 -4.42491E+04  5.68326E+04 -1.97896E+03  3.35292E+04  3.18288E+04
 -6.22724E+03  3.46012E+04 -2.94005E+04  1.49994E+04 -2.89409E+04 -5.69453E+03 -1.58065E+04 -1.13000E+04
 -7.12929E+03 -1.21449E+04 -1.00193E+03 -1.77376E+04  7.11209E+03 -2.24634E+04  1.54800E+04 -1.32240E+04
  1.14947E+04  4.20901E+03 -7.07239E+03  1.31687E+04 -2.02874E+04 -3.34974E+03 -8.69215E+03 -3.20262E+04
  2.25063E+04 -4.24729E+04  4.63450E+04 -1.83572E+04  4.39070E+04  1.87283E+04  1.55836E+04  4.29852E+04
 -1.52057E+04  3.18584E+04 -2.42197E+04  1.71652E+03 -9.24660E+03 -2.71899E+04  2.06282E+04 -3.22681E+04
  3.99697E+04 -8.71264E+03  3.37027E+04  2.28753E+04  1.68645E+04  4.49272E+04 -8.26383E+03  4.77750E+04
 -3.10652E+04  3.21761E+04 -3.99299E+04  8.70738E+03 -4.03661E+04 -1.52612E+04 -2.29567E+04 -3.61557E+04
  6.42579E+03 -3.63533E+04  3.00913E+04 -1.42291E+04  2.83022E+04  1.07607E+04  4.09771E+03  1.84654E+04
 -1.35152E+04  7.85011E+03 -9.94394E+03 -7.99273E+03  5.71940E+03 -1.08659E+04  1.73294E+04  6.35624E+03
  1.28458E+04  2.14848E+04 -6.04881E+03  2.40068E+04 -2.13176E+04  1.09058E+04 -2.65321E+04 -5.82059E+03
 -1.81078E+04 -1.71979E+04 -7.03136E+03 -1.90318E+04  4.19687E+03 -1.77171E+04  1.45509E+04 -1.65880E+04
  2.40741E+04 -1.21337E+04  3.10965E+04  1.93167E+03  2.26477E+04  1.80136E+04  4.06796E+03  3.38795E+04
 -1.71096E+04  2.93977E+04 -2.72611E+04  9.61399E+03 -2.05366E+04 -1.01223E+04 -4.21907E+03 -1.34281E+04
  2.09122E+03 -3.27382E+03 -3.94449E+03  6.17699E+03 -1.42210E+04  4.93973E+03 -1.51340E+04 -6.05734E+03
 -1.00892E+04 -1.78609E+04  5.12894E+03 -2.17450E+04  1.43591E+04 -1.45363E+04  1.63306E+04 -1.62434E+03
  1.08335E+04  1.22149E+04 -9.17792E+02  1.71643E+04 -1.12373E+04  9.98966E+03 -1.73680E+04 -3.43757E+03
 -1.31953E+04 -1.64809E+04 -1.85502E+03 -2.18219E+04  9.22760E+03 -1.72230E+04  1.76867E+04 -8.03003E+03
  1.64022E+04  4.96175E+02  1.18049E+04  4.77342E+03  5.47293E+03  4.76773E+02  8.70226E+03 -1.90089E+03
  1.57165E+04  3.23361E+03  1.72311E+04  1.39957E+04  1.12035E+04  2.76892E+04 -2.99753E+03  3.08445E+04
 -1.78364E+04  2.41311E+04 -2.88494E+04  1.20387E+04 -2.93935E+04 -1.94316E+03 -2.45615E+04 -1.69516E+04
 -1.08591E+04 -2.44111E+04  7.95877E+03 -2.19903E+04  1.96295E+04 -1.19842E+04  1.74158E+04  4.82395E+03
  6.65468E+03  1.30200E+04 -8.03432E+03  1.13995E+04 -1.47458E+04  2.69438E+03 -1.17362E+04 -9.15555E+03
 -7.76479E+02 -1.41299E+04  6.80062E+03 -9.94370E+03  9.24333E+03 -1.15303E+03  1.91553E+03  5.32586E+03
 -6.24204E+03  2.01125E+03 -5.37733E+03 -5.41327E+03  4.99068E+01 -1.17531E+04  8.52704E+03 -1.23839E+04
  1.46707E+04 -6.64898E+03  1.56400E+04  2.19376E+03  1.28444E+04  1.14562E+04  6.70761E+03  1.74200E+04
 -3.14284E+03  1.92175E+04 -1.19512E+04  1.25049E+04 -1.41476E+04  3.12910E+03 -1.09163E+04 -2.52903E+03
 -5.64554E+03 -4.58007E+03 -3.20079E+02  1.28361E+03 -2.37148E+03  2.78168E+03 -4.41758E+03  3.90268E+03
 -9.48400E+03  3.61003E+02 -1.00304E+04 -8.50124E+03 -3.22055E+03 -1.31863E+04  4.34577E+03 -1.06302E+04
  8.72973E+03 -4.01984E+03  6.15204E+03  3.14482E+03  8.39226E+02  3.74848E+03 -4.07218E+03  7.08928E+01
 -4.63972E+03 -6.67152E+03 -1.28160E+03 -9.06192E+03  5.53487E+03 -9.86589E+03  1.27581E+04 -4.77090E+03
  1.50110E+04  1.09061E+03  1.08634E+04  8.31162E+03  2.37723E+03  1.11477E+04 -6.48338E+03  1.02298E+04
 -8.77562E+03  2.94324E+03 -3.89842E+03 -2.06082E+03  1.62064E+03 -2.80704E+03  6.25049E+03 -9.80019E+02
  5.16083E+03  4.27150E+03  1.56879E+03  7.41820E+03 -4.71593E+03  7.83567E+03 -9.50332E+03  2.02209E+03
 -5.61847E+03 -4.50495E+03  8.68870E+02 -8.62131E+03  4.72564E+03 -4.61237E+03  4.27654E+03  1.82030E+03
  1.01024E+03  4.76308E+03 -4.93511E+03  6.41136E+03 -7.24546E+03  3.56151E+03 -6.40279E+03 -2.52487E+03
 -3.82176E+03 -8.21338E+03  1.91984E+03 -9.85989E+03  8.86605E+03 -5.95175E+03  8.88445E+03  8.08839E+02
  5.99092E+03  6.67066E+03 -3.61100E+02  9.68168E+03 -6.38353E+03  5.25429E+03 -7.24388E+03 -3.95397E+02
 -6.31186E+03 -6.21017E+03 -1.24869E+03 -6.39931E+03  3.11087E+03 -5.63237E+03  4.00997E+03 -3.69957E+03
  3.49853E+03  6.37748E+02  1.77379E+02  1.16116E+03  4.54521E+01 -7.57959E+02  9.61177E+02 -3.31056E+03
  5.70479E+03 -2.13037E+03  7.20695E+03  1.27152E+03  8.28790E+03  5.11658E+03  6.41038E+03  1.01773E+04
 -1.96806E+03  1.17017E+04 -1.08363E+04  9.04296E+03 -1.31453E+04  1.64078E+03 -1.08123E+04 -4.27414E+03
 -6.01845E+03 -8.85807E+03 -5.34193E+02 -7.59639E+03  2.96699E+03 -3.41126E+03  1.92955E+03 -2.62781E+03
  1.65488E+03 -2.46981E+03  2.60584E+03 -2.46938E+03  3.89305E+03 -1.91846E+03  4.70642E+03 -1.32243E+02
  5.66172E+03  1.20396E+03  1.46595E+03  4.77119E+03 -2.12612E+03  4.67488E+03 -6.05991E+03  3.49649E+03
 -6.89841E+03 -7.71929E+02 -4.64957E+03 -4.58397E+03 -3.99752E+02 -7.59429E+03  4.07647E+03 -8.24980E+03
  7.81774E+03 -4.68995E+03  9.47866E+03  1.15224E+03  7.01447E+03  6.24361E+03  9.42778E+02  8.72468E+03
 -2.67291E+03  7.66013E+03 -4.66901E+03  2.18218E+03 -3.28147E+03 -1.54515E+03 -1.08037E+03 -1.09453E+03
 -5.19019E+02  2.68071E+02 -1.15794E+03  1.90683E+03 -3.03643E+03  9.62347E+02 -5.31899E+03 -7.75026E+02
 -2.90795E+03 -6.27088E+03  8.24118E+02 -6.90142E+03  4.01469E+03 -6.82557E+03  6.53004E+03 -1.52096E+03
  6.61254E+03  3.99565E+03  2.85047E+03  5.48092E+03 -2.04815E+03  6.99605E+03 -4.45172E+03  4.38426E+03
 -5.98779E+03  8.49595E+02 -5.15216E+03 -3.68566E+03 -3.70813E+02 -5.40498E+03  2.48645E+03 -3.37768E+03
  4.09944E+03 -1.68322E+03  2.91602E+03  6.66303E+02  9.61669E+02  2.89852E+03  8.84349E+02  1.05280E+03
  1.79667E+03  4.16286E+02  1.67585E+03  1.61083E+03  2.30744E+03  2.71412E+03  2.00180E+03  2.49873E+03
 -1.69075E+03  4.51512E+03 -3.37509E+03  5.55736E+03 -5.66490E+03  1.53795E+03 -7.25820E+03 -1.44445E+03
 -2.34982E+03 -5.93922E+03  1.04702E+03 -7.66967E+03  3.36312E+03 -4.28096E+03  6.02446E+03 -1.13612E+03
  3.77819E+03  2.13133E+03  4.74721E+02  3.66005E+03 -1.72404E+03  2.49982E+03 -2.58229E+03 -4.16039E+02
 -1.28843E+03 -1.52493E+03  1.68069E+03 -2.43398E+03  2.61196E+03 -1.50998E+03  2.76115E+03  7.18149E+02
  1.39117E+03  1.20398E+03  1.50787E+03  3.90625E+02 -2.67096E+02  6.70140E+02  1.37811E+03  4.26714E+02
  5.46468E+02 -1.04357E+02  2.45343E+03  9.92725E+02  7.20455E+02  3.85159E+03 -7.71745E+02  4.40787E+03
 -2.67657E+03  2.61774E+03 -4.26591E+03  1.15249E+03 -3.88894E+03 -9.79797E+02 -7.56462E+02 -1.73618E+03
  3.18406E+02 -2.64127E+03  1.67819E+03 -9.97897E+02  1.45194E+03  1.98962E+03 -1.06190E+03  1.66914E+03
 -2.54127E+03  1.21979E+03 -2.77989E+03 -1.47457E+03 -1.62756E+03 -3.22671E+03  3.26308E+02 -2.70925E+03
  1.25520E+03 -1.90406E+03  2.08484E+03  1.22422E+02  2.10323E+03  1.08186E+02  2.07752E+02  2.12256E+03
 -1.95674E+03  2.86936E+02 -1.37378E+03 -6.28499E+02  1.30642E+03 -2.32756E+03  2.91313E+03 -1.83681E+03
  3.04662E+03  2.87027E+02  4.03587E+03  1.97316E+03  2.18617E+03  3.57121E+03 -9.27748E+02  3.19970E+03
 -2.86880E+03  5.22762E+02 -3.26911E+03 -4.11090E+02 -1.58779E+03 -2.39282E+03  8.33486E+02 -1.59635E+03
  2.91524E+03 -1.10837E+03  1.80979E+03  1.20668E+03  4.81491E+02  2.16609E+03  1.20390E+02  1.80062E+03
 -5.88783E+02  1.07815E+03 -6.40671E+02  4.08389E+02 -1.80409E+01  1.07957E+03 -1.30662E+03  1.14313E+03
 -1.44887E+03  1.78639E+03 -2.37846E+03  1.14901E+03 -3.58409E+03 -1.16316E+02 -4.27149E+03 -1.91097E+03
 -2.07475E+03 -5.18635E+03  8.48133E+02 -4.89781E+03  2.49409E+03 -4.34437E+03  4.45934E+03 -1.40578E+03
  4.82248E+03  5.38213E+02  2.67607E+03  3.24704E+03  1.48771E+02  2.91275E+03 -1.81855E+03  1.78056E+03
 -1.30034E+03  1.53752E+03 -1.14060E+03 -8.17667E+02 -2.29195E+02 -4.03995E+02 -4.26232E+02  7.07261E+01
 -1.62521E+03 -5.35016E+02 -1.02634E+03  3.32288E+02  3.02795E+02 -1.02497E+03 -1.97525E+02 -1.28203E+03
  1.56172E+03 -1.52625E+03  1.62443E+03  5.31636E+02  2.25331E+03  2.18343E+03  1.52909E+02  2.47387E+03
 -1.66111E+03  3.71523E+03 -3.07511E+03  2.44065E+03 -3.91538E+03 -8.12968E+02 -3.00786E+03 -2.15733E+03
 -1.30587E+03 -3.18581E+03  7.49803E+02 -2.84967E+03  1.57438E+03 -1.57044E+03  1.74546E+03  1.47670E+02
  1.25061E+03  6.96395E+02 -3.25402E+02  1.20012E+03 -1.17813E+03  3.32655E+02  2.62129E+02 -8.69310E+02
  1.22714E+03 -3.60013E+02  8.94667E+02  3.86143E+02  1.71496E+02  1.33914E+03  2.05126E+02  1.96627E+03
 -1.09390E+03  1.55579E+03 -1.56050E+03  1.01125E+02 -1.48768E+03 -1.48809E+03 -9.44374E+00 -2.27009E+03
  1.37566E+03 -6.85625E+02  1.90786E+03 -3.88213E+02  2.08042E+03  1.14378E+02  1.42384E+03  1.67455E+03
  8.20431E+02  1.57098E+03 -2.32736E+02  1.63945E+03 -5.79603E+02  8.29044E+02 -1.36748E+03  4.46766E+02
 -9.70736E+02 -2.21476E+02 -5.14253E+02  9.48021E+01 -8.48256E+02  1.55513E+02 -1.21000E+03 -5.90929E+02
 -1.56590E+03 -9.34468E+01 -1.62916E+03 -1.83535E+03  8.89735E+02 -2.90153E+03  1.41776E+03 -7.80361E+02
  2.28450E+03  4.71731E+02  8.34463E+02  1.10748E+03 -1.80961E+02  1.69869E+03 -1.43585E+03  1.66532E+03
