 $NMID ID='MM_0lb_SNR400_16hz_g40_24.RAW', FMTDAT='(8E13.5)'
 TRAMP=1., VOLUME=1. $END
  3.10318E+05  3.52524E+02  3.37364E+05  2.50133E+05  8.46415E+04  3.38003E+05 -1.32072E+05  2.49891E+05
 -1.89868E+05  8.28057E+04 -1.11329E+05 -3.28906E+04  1.36675E+03 -5.04032E+04  5.40857E+04  3.42491E+02
  3.51254E+04  5.24312E+04 -1.69920E+04  7.52661E+04 -6.01614E+04  6.26387E+04 -8.27253E+04  3.13992E+04
 -8.04129E+04 -1.10725E+04 -5.67870E+04 -5.06608E+04 -1.44936E+04 -6.88813E+04  2.71903E+04 -4.48436E+04
  3.90965E+04  3.96835E+03  1.56653E+04  4.73419E+04 -3.40426E+04  4.64535E+04 -6.58349E+04 -3.76671E+02
 -5.25897E+04 -5.58254E+04 -6.32505E+03 -7.65090E+04  3.32672E+04 -5.37231E+04  4.61718E+04 -1.68649E+04
  4.25277E+04  1.13189E+04  3.11957E+04  2.40476E+04  1.62243E+04  2.84923E+04 -4.66231E+03  2.71079E+04
 -2.18619E+04  1.27656E+04 -1.92129E+04 -4.36450E+03  4.60099E+03 -8.07397E+03  2.18698E+04  1.14246E+04
  7.65083E+03  3.39200E+04 -3.09786E+04  3.48123E+04 -6.15676E+04  1.90031E+03 -5.53654E+04 -4.09780E+04
 -1.22721E+04 -6.11720E+04  3.84541E+04 -4.42224E+04  5.61371E+04 -1.90543E+03  3.24349E+04  3.15635E+04
 -6.22538E+03  3.41039E+04 -2.86765E+04  1.33763E+04 -2.86406E+04 -4.88192E+03 -1.46503E+04 -1.02010E+04
 -7.91935E+03 -1.16358E+04 -8.25594E+02 -1.74049E+04  7.35875E+03 -2.28871E+04  1.50028E+04 -1.37448E+04
  1.24132E+04  5.04599E+03 -6.75275E+03  1.24965E+04 -1.97877E+04 -2.78722E+03 -8.07241E+03 -3.12145E+04
  2.08821E+04 -4.17695E+04  4.58022E+04 -1.89871E+04  4.28870E+04  1.85420E+04  1.49442E+04  4.22419E+04
 -1.59884E+04  3.18978E+04 -2.35749E+04  9.36193E+02 -9.15255E+03 -2.68080E+04  2.03316E+04 -3.12669E+04
  3.89616E+04 -7.87212E+03  3.32912E+04  2.33534E+04  1.62370E+04  4.44268E+04 -8.03251E+03  4.68149E+04
 -2.93252E+04  3.07159E+04 -3.93006E+04  8.88690E+03 -3.98338E+04 -1.53752E+04 -2.22972E+04 -3.55277E+04
  6.69697E+03 -3.54747E+04  2.94232E+04 -1.31659E+04  2.79804E+04  1.07339E+04  2.94200E+03  1.84470E+04
 -1.36846E+04  7.62882E+03 -9.78981E+03 -7.90235E+03  6.01013E+03 -1.03615E+04  1.76291E+04  6.45870E+03
  1.28866E+04  2.17256E+04 -6.03093E+03  2.34108E+04 -2.20331E+04  1.00833E+04 -2.61304E+04 -5.85915E+03
 -1.88611E+04 -1.59807E+04 -6.04408E+03 -1.82257E+04  3.48523E+03 -1.60756E+04  1.33898E+04 -1.52250E+04
  2.28301E+04 -1.21680E+04  2.98643E+04  1.22082E+03  2.20586E+04  1.80349E+04  3.91823E+03  3.34827E+04
 -1.65163E+04  2.82431E+04 -2.68291E+04  1.02521E+04 -2.02693E+04 -1.00744E+04 -4.01788E+03 -1.35356E+04
  2.47688E+03 -3.27960E+03 -3.30503E+03  5.53013E+03 -1.43100E+04  4.75729E+03 -1.42416E+04 -5.90553E+03
 -8.90939E+03 -1.69879E+04  3.76730E+03 -2.03685E+04  1.30878E+04 -1.52381E+04  1.57057E+04 -1.73243E+03
  9.63623E+03  1.17604E+04 -6.67684E+02  1.68494E+04 -1.16302E+04  8.98963E+03 -1.63765E+04 -3.33428E+03
 -1.21357E+04 -1.52744E+04 -1.58280E+03 -2.03858E+04  8.92947E+03 -1.62598E+04  1.73086E+04 -7.67545E+03
  1.55129E+04  5.39809E+02  1.13382E+04  4.55886E+03  5.69084E+03  3.87964E+02  8.48846E+03 -9.14302E+02
  1.52953E+04  1.72828E+03  1.58101E+04  1.38001E+04  1.02532E+04  2.62242E+04 -3.00718E+03  2.91076E+04
 -1.70958E+04  2.29285E+04 -2.72759E+04  1.10155E+04 -2.79190E+04 -1.91368E+03 -2.38083E+04 -1.61370E+04
 -1.07805E+04 -2.23783E+04  7.77586E+03 -2.17689E+04  1.77535E+04 -1.14070E+04  1.62583E+04  3.79216E+03
  7.02808E+03  1.23270E+04 -7.07061E+03  1.04641E+04 -1.44694E+04  2.69955E+03 -1.18735E+04 -8.48732E+03
 -6.59484E+01 -1.35774E+04  6.91961E+03 -9.88754E+03  8.58786E+03 -1.20032E+03  1.54279E+03  5.28383E+03
 -5.55854E+03  1.50122E+03 -4.20171E+03 -5.00925E+03 -7.68016E+01 -1.08178E+04  8.96952E+03 -1.13011E+04
  1.38958E+04 -6.04673E+03  1.39937E+04  3.23475E+03  1.15024E+04  1.12946E+04  5.85815E+03  1.57742E+04
 -2.01739E+03  1.85730E+04 -1.13451E+04  1.19625E+04 -1.28837E+04  2.86293E+03 -9.17472E+03 -2.54238E+03
 -4.84106E+03 -3.59698E+03 -9.90945E+02  1.03034E+03 -2.47998E+03  2.31080E+03 -4.40846E+03  4.25709E+03
 -8.51119E+03 -3.47948E+02 -9.42192E+03 -7.97308E+03 -3.65331E+03 -1.23935E+04  3.91335E+03 -9.72465E+03
  8.60451E+03 -3.92283E+03  5.41675E+03  2.81881E+03  1.96306E+02  3.62967E+03 -3.87936E+03 -3.20286E+02
 -3.71090E+03 -6.01633E+03 -8.29375E+02 -7.60671E+03  4.83963E+03 -9.39310E+03  1.16612E+04 -4.37033E+03
  1.35646E+04  6.95137E+02  1.01716E+04  7.71854E+03  2.14502E+03  9.57304E+03 -5.89738E+03  9.10513E+03
 -7.71493E+03  3.13252E+03 -4.55925E+03 -1.16590E+03  1.05901E+03 -2.59906E+03  5.46534E+03 -1.19473E+03
  4.54214E+03  3.68646E+03  1.38980E+03  6.78935E+03 -4.94358E+03  7.19227E+03 -8.99274E+03  1.90390E+03
 -5.94611E+03 -4.60613E+03  3.01434E+02 -7.10294E+03  4.80892E+03 -3.49857E+03  4.49858E+03  1.51561E+03
  1.40967E+03  4.07281E+03 -4.38078E+03  5.81394E+03 -6.07426E+03  2.62143E+03 -5.83843E+03 -1.77267E+03
 -3.02146E+03 -6.68868E+03  1.66209E+03 -8.84738E+03  7.61350E+03 -5.91788E+03  7.97509E+03  1.56899E+03
  5.57503E+03  6.57349E+03 -1.84008E+02  9.13947E+03 -5.70873E+03  5.22564E+03 -6.23400E+03  1.51467E+02
 -6.29940E+03 -6.40372E+03 -1.02321E+03 -5.91521E+03  2.79726E+03 -5.15228E+03  3.34372E+03 -3.22369E+03
  2.92915E+03  3.48293E+02 -3.27503E+01  1.76187E+03 -2.04687E+02 -8.65024E+02  3.41353E+02 -2.02611E+03
  4.96460E+03 -9.04902E+02  6.37328E+03  9.40934E+02  7.38955E+03  4.08065E+03  5.58171E+03  9.12485E+03
 -1.80484E+03  1.09546E+04 -9.84063E+03  8.28736E+03 -1.24228E+04  2.26220E+03 -9.85728E+03 -3.20166E+03
 -5.31524E+03 -8.21773E+03 -9.00611E+01 -6.55696E+03  3.31346E+03 -2.84572E+03  1.74795E+03 -2.77788E+03
  1.38140E+03 -1.48030E+03  2.17123E+03 -2.47015E+03  3.21184E+03 -1.50316E+03  3.72139E+03  7.38259E+01
  4.77003E+03  1.47183E+03  1.11603E+03  4.41739E+03 -1.87301E+03  3.83609E+03 -5.05597E+03  4.40019E+03
 -6.31578E+03 -1.27898E+03 -3.07653E+03 -4.25871E+03 -1.73769E+02 -6.55732E+03  4.19607E+03 -7.07223E+03
  6.93090E+03 -4.62486E+03  8.78786E+03  8.93384E+02  6.18119E+03  5.17097E+03  6.52978E+02  7.82203E+03
 -2.88616E+03  7.31750E+03 -4.42922E+03  2.47954E+03 -2.48716E+03 -9.74161E+02 -8.38767E+02 -4.66910E+02
 -4.83973E+02  7.80369E+01 -1.37250E+03  2.61070E+03 -2.98954E+03  1.18292E+03 -4.70164E+03 -1.32584E+02
 -2.74810E+03 -4.79151E+03  7.70398E+02 -6.23810E+03  3.67034E+03 -6.37617E+03  5.12914E+03 -1.50512E+03
  5.49257E+03  3.19547E+03  2.63128E+03  5.16294E+03 -1.77067E+03  5.62422E+03 -3.95112E+03  2.95145E+03
 -5.68460E+03  6.06602E+02 -4.30339E+03 -3.47252E+03 -6.11317E+02 -5.07647E+03  2.17504E+03 -3.64665E+03
  3.42375E+03 -1.09195E+03  2.19600E+03  6.04077E+02  4.85619E+02  2.65272E+03  8.97888E+02  9.95483E+01
  9.95317E+02  2.73440E+02  1.73448E+03  1.78418E+03  1.00707E+03  2.88300E+03  1.99417E+03  2.24841E+03
 -1.09787E+03  3.57305E+03 -4.25081E+03  5.62367E+03 -4.72715E+03  1.64229E+03 -5.64677E+03 -8.82513E+02
 -1.88749E+03 -5.24488E+03  6.01943E+02 -6.25063E+03  3.06057E+03 -3.43232E+03  4.18516E+03 -6.65126E+02
  3.23492E+03  2.56674E+03  9.59947E+02  2.46367E+03 -9.67998E+02  1.94486E+03 -1.45320E+03 -8.07944E+02
 -1.20690E+03 -2.24247E+03  1.58655E+03 -1.62920E+03  1.93613E+03 -1.01785E+03  1.92500E+03 -1.31021E+02
  6.89969E+02  3.90547E+02  6.99526E+02  3.23622E+02  3.97276E+01  9.87993E+02  1.24337E+03 -5.24018E+01
  4.15302E+02 -1.86084E+02  2.51335E+03  5.71068E+02  4.51825E+02  3.42451E+03 -3.97806E+02  3.93002E+03
 -2.21056E+03  1.33832E+03 -2.52643E+03  5.16713E+02 -2.99340E+03 -9.76411E+02 -4.30858E+02 -1.50711E+03
  7.04090E+02 -1.76664E+03  1.43145E+03 -1.20236E+03  1.55917E+03  1.31753E+03 -6.68830E+02  1.73771E+03
 -1.96660E+03  3.25369E+02 -1.99640E+03 -1.70327E+03 -1.24835E+03 -2.75040E+03  1.38932E+02 -2.39806E+03
  8.04618E+02 -8.32376E+02  1.25121E+03  1.09135E+02  1.23750E+03 -1.44822E+02  2.11402E+01  1.88619E+03
 -1.69142E+02  1.87158E+02 -1.00648E+03 -2.82080E+02  5.01117E+02 -1.44083E+03  2.31522E+03 -1.57226E+03
  2.55099E+03  2.57901E+02  3.91811E+03  1.18544E+03  1.57339E+03  2.21475E+03 -7.32992E+02  2.40395E+03
 -2.61783E+03  3.97983E+02 -2.30450E+03 -3.83551E+02 -1.56608E+03 -2.02429E+03  1.00018E+03 -1.25827E+03
  2.10960E+03 -1.43442E+03  1.40870E+03  1.19216E+03  6.54809E+02  1.84616E+03  1.68359E+02  1.59491E+03
 -5.43565E+02  1.48578E+03 -8.67373E+02  6.76117E+02 -2.62472E+02  3.90032E+02 -7.23298E+02  5.25338E+02
 -4.16872E+02  1.58222E+03 -2.32198E+03  9.76278E+02 -2.67054E+03 -1.17616E+02 -3.68985E+03 -1.49545E+03
 -1.33241E+03 -4.05107E+03  5.92590E+02 -4.46572E+03  2.29249E+03 -3.24082E+03  4.40373E+03 -1.42519E+03
  3.75344E+03  2.35663E+02  2.07504E+03  2.60248E+03 -5.56709E+02  2.03978E+03 -1.18863E+03  1.85000E+03
 -1.34001E+03  4.33158E+02 -1.06800E+03 -7.32547E+02 -8.20614E+02 -3.40129E+02 -4.14151E+02 -3.58465E+02
 -1.16217E+03 -8.46314E+02 -1.45983E+03  7.69394E+01  5.58670E+02 -1.01971E+03 -8.83918E+01 -1.19726E+03
  1.84495E+03 -7.88022E+02  1.48176E+03  2.18597E+01  1.40142E+03  1.26161E+03 -4.26552E+02  2.54900E+03
 -1.72089E+03  3.26780E+03 -2.73736E+03  2.08807E+03 -2.79400E+03 -3.56600E+02 -2.36155E+03 -2.17192E+03
 -1.25329E+03 -2.72537E+03  5.15698E+02 -2.17220E+03  1.15104E+03 -1.33331E+03  1.45241E+03 -2.07466E+02
  1.02600E+03  6.93531E+02  5.43478E+02  4.61809E+02 -5.03673E+02 -2.29421E+02 -3.75984E+02 -4.26803E+02
  8.67498E+02 -5.14515E+02  5.53797E+02  9.79303E+02  3.33788E+02  9.31433E+02  6.22329E+02  9.67005E+02
 -7.20240E+02  1.49429E+03 -1.46755E+03  3.00138E+02 -1.26329E+03 -1.38852E+03 -2.43821E+02 -2.31413E+03
  1.54398E+03 -1.46970E+03  1.00834E+03 -1.63443E+02  1.84078E+03 -7.00824E+01  1.27147E+03  1.28090E+03
  4.32506E+02  1.21465E+03 -5.69465E+02  8.85748E+02 -1.11782E+03  2.18766E+02 -5.11792E+02 -3.18425E+02
 -3.64221E+02 -1.53569E+02 -9.87409E+02  3.57742E+02 -8.04890E+02  5.21851E+02 -1.28287E+03 -3.02548E+02
 -1.24948E+03 -1.08549E+02 -4.04936E+02 -1.46953E+03  1.27812E+03 -2.18546E+03  1.38845E+03  9.86004E+01
  1.79299E+03  3.70491E+02  8.19193E+01  7.53963E+02 -3.75922E+02  1.61157E+03 -5.78956E+02  1.32609E+03
