 $NMID ID='MM_0lb_SNR400_16hz_g50_34.RAW', FMTDAT='(8E13.5)'
 TRAMP=1., VOLUME=1. $END
  3.09958E+05  4.37874E+02  3.37217E+05  2.50103E+05  8.39015E+04  3.38099E+05 -1.32746E+05  2.50793E+05
 -1.90701E+05  8.29828E+04 -1.10812E+05 -3.24115E+04  1.22112E+03 -5.03971E+04  5.39063E+04 -2.80128E+01
  3.51121E+04  5.30074E+04 -1.70320E+04  7.52793E+04 -6.07418E+04  6.33743E+04 -8.34212E+04  3.14965E+04
 -8.05022E+04 -1.10457E+04 -5.69583E+04 -5.13215E+04 -1.51317E+04 -6.88607E+04  2.73234E+04 -4.53053E+04
  3.97686E+04  3.52569E+03  1.59263E+04  4.81400E+04 -3.39691E+04  4.67123E+04 -6.60498E+04 -2.37612E+02
 -5.30259E+04 -5.65454E+04 -7.05784E+03 -7.63555E+04  3.33677E+04 -5.47963E+04  4.72132E+04 -1.67895E+04
  4.25072E+04  1.13710E+04  3.07555E+04  2.51530E+04  1.60993E+04  2.97710E+04 -4.66475E+03  2.68726E+04
 -2.19525E+04  1.29418E+04 -1.83557E+04 -5.36366E+03  5.75519E+03 -7.66344E+03  2.22872E+04  1.15992E+04
  7.01549E+03  3.48890E+04 -3.17821E+04  3.47453E+04 -6.34563E+04  2.84371E+03 -5.63768E+04 -4.26323E+04
 -1.27368E+04 -6.21800E+04  3.96610E+04 -4.40114E+04  5.74005E+04 -1.84195E+03  3.28227E+04  3.18035E+04
 -6.37498E+03  3.54236E+04 -2.88961E+04  1.49680E+04 -2.92913E+04 -5.17452E+03 -1.57612E+04 -1.07469E+04
 -7.86888E+03 -1.25347E+04 -5.36582E+02 -1.81272E+04  7.97168E+03 -2.29579E+04  1.53464E+04 -1.37119E+04
  1.18916E+04  5.13990E+03 -7.41353E+03  1.27626E+04 -2.04248E+04 -4.12359E+03 -8.71513E+03 -3.26655E+04
  2.23804E+04 -4.28020E+04  4.70798E+04 -1.91430E+04  4.41159E+04  1.87858E+04  1.50804E+04  4.30887E+04
 -1.52075E+04  3.20139E+04 -2.40414E+04  1.56105E+03 -9.16030E+03 -2.72932E+04  2.08279E+04 -3.26062E+04
  3.96257E+04 -9.16457E+03  3.41837E+04  2.30975E+04  1.76103E+04  4.48109E+04 -8.19754E+03  4.85545E+04
 -3.09043E+04  3.21901E+04 -4.00518E+04  9.72158E+03 -4.06449E+04 -1.56032E+04 -2.22052E+04 -3.72000E+04
  7.43767E+03 -3.64808E+04  3.01711E+04 -1.35272E+04  2.82029E+04  1.10339E+04  3.36905E+03  1.87325E+04
 -1.30917E+04  8.47217E+03 -1.06111E+04 -7.48034E+03  5.83022E+03 -1.04516E+04  1.80021E+04  5.86726E+03
  1.28357E+04  2.17572E+04 -6.34566E+03  2.40364E+04 -2.14264E+04  9.71998E+03 -2.65127E+04 -5.33144E+03
 -1.89815E+04 -1.63735E+04 -6.97402E+03 -1.87029E+04  4.27060E+03 -1.73975E+04  1.41043E+04 -1.64534E+04
  2.44147E+04 -1.22955E+04  3.03485E+04  2.28950E+03  2.22178E+04  1.85389E+04  4.56798E+03  3.45389E+04
 -1.73063E+04  2.90023E+04 -2.66205E+04  1.02718E+04 -2.03783E+04 -1.03599E+04 -4.28962E+03 -1.37407E+04
  2.42557E+03 -3.47449E+03 -4.11897E+03  6.40258E+03 -1.50477E+04  5.12780E+03 -1.54893E+04 -5.73510E+03
 -9.66087E+03 -1.75121E+04  4.99150E+03 -2.18808E+04  1.47176E+04 -1.56239E+04  1.67410E+04 -1.36133E+03
  1.07350E+04  1.18288E+04 -4.38868E+02  1.78188E+04 -1.19819E+04  9.77019E+03 -1.75318E+04 -3.51226E+03
 -1.37881E+04 -1.58713E+04 -8.43784E+02 -2.07685E+04  9.68557E+03 -1.76545E+04  1.83648E+04 -8.12495E+03
  1.68691E+04  5.50212E+01  1.18026E+04  3.73231E+03  5.57541E+03  1.20106E+03  8.67930E+03 -1.03573E+03
  1.58693E+04  2.22812E+03  1.77588E+04  1.41563E+04  1.14870E+04  2.79346E+04 -2.85870E+03  3.09686E+04
 -1.83189E+04  2.49833E+04 -2.91448E+04  1.16625E+04 -2.92856E+04 -1.90629E+03 -2.55436E+04 -1.71176E+04
 -1.13928E+04 -2.47482E+04  8.30064E+03 -2.24273E+04  1.91240E+04 -1.22939E+04  1.74986E+04  4.65724E+03
  6.99356E+03  1.33679E+04 -8.18827E+03  1.16778E+04 -1.49569E+04  2.98997E+03 -1.19705E+04 -9.22547E+03
  4.55004E+01 -1.44178E+04  6.95649E+03 -1.04801E+04  9.41373E+03 -1.58818E+03  2.05983E+03  5.52229E+03
 -6.82514E+03  1.61743E+03 -5.30368E+03 -4.80567E+03  9.38953E+02 -1.15997E+04  8.87871E+03 -1.17491E+04
  1.47728E+04 -6.81775E+03  1.47414E+04  2.65899E+03  1.31251E+04  1.13279E+04  5.95470E+03  1.73165E+04
 -2.61542E+03  1.97124E+04 -1.18736E+04  1.19954E+04 -1.36041E+04  2.89342E+03 -9.79200E+03 -2.98096E+03
 -4.96635E+03 -4.15411E+03 -4.18238E+02  1.19186E+03 -2.32320E+03  2.36049E+03 -3.66080E+03  3.84581E+03
 -9.24490E+03 -1.99971E+02 -9.81826E+03 -8.53643E+03 -4.50863E+03 -1.34273E+04  4.45484E+03 -1.03306E+04
  8.24379E+03 -4.84460E+03  5.90900E+03  2.21591E+03  2.30164E+02  3.92549E+03 -4.45520E+03  1.39597E+02
 -4.34995E+03 -6.29332E+03 -8.53056E+02 -9.27804E+03  5.20155E+03 -9.85719E+03  1.23083E+04 -5.11702E+03
  1.40688E+04  1.81781E+03  1.11223E+04  8.05870E+03  2.15933E+03  1.05025E+04 -6.36686E+03  1.02434E+04
 -8.26128E+03  3.11104E+03 -4.42206E+03 -1.44037E+03  1.71465E+03 -2.46102E+03  5.99957E+03 -1.58524E+03
  5.00160E+03  4.27782E+03  8.97028E+02  7.31004E+03 -5.18668E+03  7.57337E+03 -9.99268E+03  1.85115E+03
 -6.13614E+03 -4.03035E+03  6.48353E+01 -8.69576E+03  4.16154E+03 -3.93035E+03  5.03465E+03  1.56212E+03
  9.40954E+02  4.33130E+03 -5.60350E+03  6.67016E+03 -6.16895E+03  2.91593E+03 -6.39246E+03 -2.07348E+03
 -4.20922E+03 -8.38744E+03  2.27745E+03 -9.50635E+03  7.96477E+03 -6.31490E+03  8.51055E+03  1.83501E+03
  5.19694E+03  7.11399E+03 -4.62617E+02  9.11139E+03 -6.32141E+03  5.37209E+03 -6.81338E+03 -8.26470E+02
 -7.02504E+03 -6.08039E+03 -1.43106E+03 -6.61452E+03  3.33328E+03 -6.13549E+03  4.05871E+03 -3.36465E+03
  3.31938E+03  1.19386E+03 -1.38686E+02  1.04323E+03  6.75979E+02 -1.08213E+03  8.80750E+02 -3.11069E+03
  5.49954E+03 -1.23204E+03  7.40693E+03  7.22898E+02  8.06309E+03  5.48432E+03  5.97677E+03  9.58044E+03
 -2.76682E+03  1.14826E+04 -9.64338E+03  8.75134E+03 -1.28661E+04  1.58040E+03 -9.90776E+03 -4.32880E+03
 -5.63694E+03 -8.62353E+03 -1.20253E+02 -6.75142E+03  2.92872E+03 -3.66813E+03  2.47932E+03 -3.11558E+03
  1.67948E+03 -1.60679E+03  2.73302E+03 -2.33984E+03  4.01319E+03 -2.01091E+03  4.95675E+03  6.59163E+02
  6.04292E+03  1.49685E+03  1.66267E+03  4.74822E+03 -1.67737E+03  4.46424E+03 -5.43502E+03  3.17617E+03
 -6.78759E+03 -1.35179E+03 -3.51579E+03 -4.71356E+03  9.80322E+01 -6.63111E+03  4.40196E+03 -7.43426E+03
  7.55778E+03 -4.42457E+03  8.99457E+03  5.69417E+02  6.22524E+03  6.32778E+03  1.24991E+03  7.62764E+03
 -3.22776E+03  7.90354E+03 -4.64876E+03  2.56258E+03 -2.62424E+03 -1.14304E+03 -7.36671E+02 -8.81126E+02
 -2.10461E+02  3.03606E+02 -1.59277E+03  1.81821E+03 -3.40174E+03  1.48446E+03 -4.79045E+03 -1.06139E+02
 -2.48806E+03 -5.60779E+03  9.34030E+02 -6.55579E+03  4.08703E+03 -5.95466E+03  5.00875E+03 -1.30162E+03
  6.11482E+03  2.88178E+03  2.99335E+03  5.28313E+03 -1.14708E+03  6.20306E+03 -4.55398E+03  3.76935E+03
 -5.67671E+03  4.92898E+02 -4.04008E+03 -3.03840E+03 -2.75445E+02 -4.75805E+03  2.51727E+03 -3.69786E+03
  3.85021E+03 -1.83134E+03  2.46657E+03  1.41011E+03  9.79559E+02  2.70831E+03  7.20949E+02  1.28437E+02
  1.77991E+03  1.18299E+02  1.45110E+03  9.59731E+02  1.65176E+03  2.24634E+03  2.21446E+03  2.90769E+03
 -1.61766E+03  4.44158E+03 -3.92547E+03  4.65022E+03 -5.25365E+03  1.39065E+03 -5.87895E+03 -1.75482E+03
 -3.28333E+03 -5.86864E+03  4.79297E+02 -6.55476E+03  2.76959E+03 -3.57616E+03  4.81169E+03 -1.17082E+03
  3.71273E+03  2.20551E+03  7.93044E+02  3.56437E+03 -8.46561E+02  1.86809E+03 -1.79704E+03  2.75684E+02
 -1.00334E+03 -2.54640E+03  1.11974E+03 -2.34166E+03  2.19712E+03 -1.02387E+03  1.44684E+03  7.57755E+02
  9.79577E+02  4.62832E+02  7.16819E+02  2.48423E+02 -5.39273E+02  5.65152E+02  1.95074E+03  1.73329E+02
  7.86313E+02 -1.02097E+03  1.60696E+03  1.25190E+03  1.02387E+03  3.44127E+03 -4.36648E+02  4.58807E+03
 -2.21699E+03  2.61254E+03 -3.08274E+03  4.18588E+02 -2.98504E+03 -1.21413E+03 -8.91849E+01 -1.75833E+03
  4.65391E+02 -1.58073E+03  1.05115E+03 -1.10323E+03  9.84220E+02  1.49942E+03 -1.17406E+03  1.34652E+03
 -2.00608E+03  1.03588E+03 -2.14033E+03 -1.65240E+03 -1.05219E+03 -2.62735E+03  4.54955E+02 -2.39533E+03
  7.90190E+02 -1.72070E+03  1.08284E+03 -5.01792E+02  1.55030E+03  1.34882E+02  2.27229E+02  1.26046E+03
 -1.94485E+02  3.34981E+02 -8.76472E+02 -1.02334E+03  1.54606E+02 -1.44540E+03  2.46609E+03 -1.73578E+03
  2.48653E+03  1.63032E+02  3.60138E+03  1.41730E+03  9.71713E+02  2.58790E+03 -4.08227E+02  3.15031E+03
 -2.37494E+03  9.77972E+02 -2.37892E+03 -7.52534E+01 -9.91501E+02 -2.25579E+03  1.21896E+02 -5.46248E+02
  1.97883E+03 -1.12129E+03  1.55888E+03  7.10731E+02  3.42324E+02  2.30683E+03 -5.83281E+02  1.55459E+03
 -5.94263E+02  1.39401E+03 -5.18273E+02  2.42748E+02 -1.95735E+02  1.26050E+02 -7.35975E+02  9.06051E+01
 -9.18553E+02  1.46628E+03 -2.43481E+03  5.86097E+02 -3.07647E+03  4.51611E+02 -3.64200E+03 -1.18262E+03
 -1.87291E+03 -3.79101E+03  3.76324E+02 -4.54284E+03  2.40523E+03 -3.70176E+03  3.95306E+03 -1.30777E+03
  4.08765E+03 -6.16599E+01  1.65428E+03  2.32643E+03 -5.53979E+02  2.47662E+03 -9.86799E+02  1.81999E+03
 -2.02316E+03  1.02033E+03 -1.09571E+03  3.40388E+02 -2.22247E+02  5.59064E+02 -9.89592E+02  3.84428E+01
 -7.72109E+02  1.88739E+02 -9.99419E+02  7.49361E+01  2.78523E+02 -1.28400E+03 -6.71672E+02 -1.38036E+03
  1.20603E+03 -4.01845E+02  1.03811E+03  6.99244E+01  1.72695E+03  2.13818E+03 -2.67661E+02  2.83555E+03
 -9.74902E+02  3.22553E+03 -2.14742E+03  2.02171E+03 -3.10150E+03 -8.68860E+02 -1.31584E+03 -2.25589E+03
 -1.12709E+03 -2.53250E+03 -2.81558E+02 -2.32191E+03  1.13534E+03 -7.53154E+02  1.79699E+03  2.59237E+02
  9.53917E+02  3.20707E+02  1.35784E+02  8.27589E+02 -2.04728E+02 -3.45304E+02 -9.50701E+01 -6.41349E+02
  1.14640E+03  1.47353E+02  6.82243E+02  8.21060E+02 -1.45661E+02  7.47878E+02  5.56524E+02  1.05335E+03
 -1.43098E+03  8.41072E+02 -9.23815E+02  1.87765E+02 -1.23890E+03 -1.05222E+03 -1.85726E+02 -2.09443E+03
  9.04375E+02 -8.86641E+02  1.66203E+03 -6.94280E+02  1.40397E+03 -4.72847E+02  1.05388E+03  1.46673E+03
  1.04457E+02  6.86875E+02  6.91304E+01  1.07766E+03 -1.41427E+03  1.56498E+03 -6.68507E+02 -7.55148E+01
 -3.42167E+02 -2.52347E+01 -9.23754E+02  1.61774E+02 -1.36287E+03 -9.49576E+01 -8.96751E+02 -5.41320E+02
 -1.27006E+03 -3.29377E+02 -2.32193E+02 -1.68554E+03  7.56196E+02 -1.77900E+03  1.14598E+03  1.85564E+01
  1.56477E+03  5.48109E+02 -9.81484E+01  1.18315E+03 -4.61306E+02  1.38967E+03 -9.57491E+02  1.07069E+03
