 $NMID ID='MM_0lb_SNR400_16hz_g50_8.RAW', FMTDAT='(8E13.5)'
 TRAMP=1., VOLUME=1. $END
  3.09684E+05  8.91318E+01  3.37683E+05  2.50615E+05  8.43017E+04  3.37538E+05 -1.32693E+05  2.50364E+05
 -1.89622E+05  8.29992E+04 -1.11780E+05 -3.25009E+04  1.25188E+03 -5.01177E+04  5.43481E+04 -1.95572E+02
  3.57383E+04  5.27915E+04 -1.68637E+04  7.56095E+04 -6.02751E+04  6.33567E+04 -8.35630E+04  3.15708E+04
 -8.02261E+04 -1.08497E+04 -5.67546E+04 -5.10211E+04 -1.43161E+04 -6.87377E+04  2.75395E+04 -4.51598E+04
  3.92190E+04  4.23051E+03  1.53569E+04  4.77062E+04 -3.47944E+04  4.71029E+04 -6.59875E+04 -6.21692E+02
 -5.30696E+04 -5.63753E+04 -6.46967E+03 -7.64195E+04  3.38610E+04 -5.43986E+04  4.77798E+04 -1.73451E+04
  4.29274E+04  1.09254E+04  3.13635E+04  2.52962E+04  1.60204E+04  2.91693E+04 -5.42396E+03  2.73692E+04
 -2.20076E+04  1.21093E+04 -1.86883E+04 -4.91920E+03  5.50062E+03 -7.60251E+03  2.15905E+04  1.17812E+04
  7.41074E+03  3.47094E+04 -3.16816E+04  3.46892E+04 -6.20848E+04  2.10076E+03 -5.63364E+04 -4.18791E+04
 -1.25684E+04 -6.19761E+04  3.88158E+04 -4.50092E+04  5.78991E+04 -1.83138E+03  3.33257E+04  3.16672E+04
 -6.26890E+03  3.48788E+04 -2.94645E+04  1.51943E+04 -2.91059E+04 -5.12017E+03 -1.61157E+04 -1.01061E+04
 -8.02293E+03 -1.24581E+04 -3.57970E+02 -1.71117E+04  7.03780E+03 -2.27753E+04  1.54384E+04 -1.40282E+04
  1.19913E+04  4.71617E+03 -7.79196E+03  1.31396E+04 -1.99694E+04 -3.96327E+03 -7.85886E+03 -3.22874E+04
  2.18250E+04 -4.26188E+04  4.69370E+04 -1.87929E+04  4.36409E+04  1.88207E+04  1.55731E+04  4.30257E+04
 -1.58894E+04  3.23337E+04 -2.46091E+04  1.94543E+03 -9.74531E+03 -2.73906E+04  2.08258E+04 -3.27846E+04
  3.98611E+04 -8.27983E+03  3.41689E+04  2.33786E+04  1.72073E+04  4.45331E+04 -8.23881E+03  4.82202E+04
 -3.10383E+04  3.18577E+04 -3.96724E+04  8.83403E+03 -4.05707E+04 -1.64882E+04 -2.27209E+04 -3.66512E+04
  6.96584E+03 -3.71186E+04  3.02834E+04 -1.40074E+04  2.78779E+04  1.16668E+04  2.50208E+03  1.82810E+04
 -1.29135E+04  7.82565E+03 -1.01679E+04 -8.22607E+03  6.18438E+03 -9.98876E+03  1.79011E+04  6.23212E+03
  1.29019E+04  2.16383E+04 -6.27452E+03  2.39721E+04 -2.19494E+04  1.05981E+04 -2.65416E+04 -5.72531E+03
 -1.96209E+04 -1.72490E+04 -7.17273E+03 -1.90292E+04  3.76349E+03 -1.73152E+04  1.50124E+04 -1.67841E+04
  2.41960E+04 -1.25606E+04  3.13533E+04  2.02344E+03  2.27013E+04  1.77791E+04  4.60764E+03  3.47970E+04
 -1.69887E+04  2.89668E+04 -2.75483E+04  9.58987E+03 -2.03964E+04 -1.02019E+04 -3.79832E+03 -1.33686E+04
  2.20199E+03 -3.72445E+03 -4.36083E+03  5.39182E+03 -1.45430E+04  5.04416E+03 -1.54046E+04 -6.14793E+03
 -8.90298E+03 -1.78755E+04  5.34798E+03 -2.20297E+04  1.47144E+04 -1.57852E+04  1.67910E+04 -1.50797E+03
  1.02496E+04  1.12977E+04 -1.13238E+03  1.75388E+04 -1.10230E+04  1.00282E+04 -1.75868E+04 -3.86272E+03
 -1.25708E+04 -1.57203E+04 -1.78470E+03 -2.11507E+04  9.68180E+03 -1.71519E+04  1.76519E+04 -8.74227E+03
  1.65004E+04  3.06248E+02  1.20554E+04  4.36530E+03  6.61619E+03  6.17024E+02  8.30941E+03 -9.43256E+02
  1.59565E+04  2.46519E+03  1.75406E+04  1.40395E+04  1.09113E+04  2.84081E+04 -2.60968E+03  3.06925E+04
 -1.80862E+04  2.44529E+04 -2.80503E+04  1.18303E+04 -2.98858E+04 -2.40207E+03 -2.49705E+04 -1.74784E+04
 -1.10836E+04 -2.48048E+04  7.92097E+03 -2.26552E+04  1.98472E+04 -1.21336E+04  1.82613E+04  5.04233E+03
  7.18859E+03  1.31425E+04 -7.91938E+03  1.14362E+04 -1.51917E+04  3.39457E+03 -1.14172E+04 -9.23555E+03
 -1.12971E+02 -1.33653E+04  7.55964E+03 -1.09230E+04  8.95508E+03 -1.48013E+03  1.92215E+03  5.96537E+03
 -6.64630E+03  2.31471E+03 -5.23861E+03 -5.00871E+03  2.69990E+01 -1.19707E+04  9.08398E+03 -1.22775E+04
  1.44978E+04 -6.53209E+03  1.55106E+04  3.65372E+03  1.30479E+04  1.15986E+04  5.92524E+03  1.71714E+04
 -2.57288E+03  1.93525E+04 -1.21510E+04  1.21598E+04 -1.34299E+04  3.68850E+03 -1.02188E+04 -2.13036E+03
 -4.57274E+03 -4.24988E+03 -9.73010E+02  1.25853E+03 -2.28084E+03  1.57845E+03 -4.46860E+03  3.44591E+03
 -9.37294E+03 -8.43203E+02 -1.09541E+04 -8.24742E+03 -4.34345E+03 -1.33067E+04  4.00223E+03 -9.63197E+03
  8.13167E+03 -3.89826E+03  6.44279E+03  2.68550E+03  3.98934E+02  3.40411E+03 -4.10518E+03 -1.71496E+02
 -4.30748E+03 -6.25614E+03 -6.64275E+02 -9.12917E+03  5.26861E+03 -1.00094E+04  1.20466E+04 -5.53760E+03
  1.44075E+04  8.25414E+02  1.07424E+04  8.45296E+03  1.73305E+03  1.13713E+04 -6.43666E+03  9.90146E+03
 -8.61003E+03  2.88602E+03 -3.50445E+03 -1.42834E+03  1.17001E+03 -2.30246E+03  5.60200E+03 -9.72540E+02
  5.06585E+03  3.83385E+03  1.49480E+03  7.37885E+03 -5.86372E+03  7.21771E+03 -9.68356E+03  2.17470E+03
 -6.89610E+03 -4.71357E+03  2.96538E+02 -8.36709E+03  4.89876E+03 -4.33874E+03  4.07995E+03  1.10065E+03
  8.07534E+02  4.48601E+03 -4.88233E+03  6.59938E+03 -6.52205E+03  3.19082E+03 -6.36521E+03 -1.80554E+03
 -4.25738E+03 -8.62678E+03  2.15521E+03 -9.57657E+03  8.11826E+03 -6.10013E+03  8.32717E+03  1.27048E+03
  5.65823E+03  7.67591E+03 -5.88855E+02  9.06465E+03 -6.55598E+03  5.42806E+03 -7.17418E+03 -6.26363E+02
 -6.44775E+03 -6.26755E+03 -1.54803E+03 -6.90624E+03  3.89757E+03 -5.12023E+03  3.60572E+03 -3.64445E+03
  3.05731E+03  6.75061E+02 -1.33365E+02  1.48826E+03 -1.10184E+02 -1.11829E+03  7.25152E+02 -3.19753E+03
  4.89708E+03 -1.67181E+03  7.16550E+03  3.71486E+02  7.14004E+03  4.90226E+03  6.88293E+03  9.85869E+03
 -1.28971E+03  1.13440E+04 -1.04554E+04  8.55469E+03 -1.35373E+04  1.37146E+03 -1.07956E+04 -4.04004E+03
 -5.53774E+03 -8.54015E+03 -4.92435E+02 -7.20670E+03  2.33594E+03 -3.32657E+03  3.18930E+03 -2.46934E+03
  2.18346E+03 -1.88279E+03  2.32430E+03 -2.60616E+03  3.63060E+03 -1.99114E+03  4.44136E+03  4.34399E+02
  5.51579E+03  9.47268E+02  2.69395E+03  4.97525E+03 -1.52531E+03  4.42460E+03 -5.57143E+03  4.03923E+03
 -6.66305E+03 -1.07021E+03 -3.03303E+03 -4.30730E+03 -2.11650E+02 -6.85100E+03  4.15702E+03 -6.94836E+03
  7.22533E+03 -4.50763E+03  8.75115E+03  7.80489E+02  7.18230E+03  6.08881E+03  1.13073E+03  7.80442E+03
 -3.21590E+03  6.46700E+03 -4.91425E+03  2.48844E+03 -2.73937E+03 -1.04854E+03 -5.54023E+02 -6.43908E+02
 -5.96217E+02  1.64707E+02 -1.93453E+03  2.30552E+03 -3.88522E+03  1.60215E+03 -5.06932E+03 -9.27801E+02
 -2.58708E+03 -5.17171E+03  5.14853E+02 -6.37017E+03  3.80478E+03 -6.02725E+03  5.80203E+03 -1.74189E+03
  6.09282E+03  2.79177E+03  2.32522E+03  5.00428E+03 -1.29604E+03  6.99987E+03 -4.39789E+03  4.19337E+03
 -5.48171E+03  5.14331E+02 -4.91682E+03 -3.82162E+03  2.94247E+02 -5.17937E+03  2.30784E+03 -3.73552E+03
  3.66088E+03 -1.44968E+03  2.32411E+03  7.66389E+02  7.12186E+02  1.83937E+03  5.70801E+02  9.67752E+02
  1.59266E+03  1.03155E+03  1.71375E+03  5.34262E+02  1.59472E+03  3.05823E+03  1.35833E+03  2.86016E+03
 -1.10667E+03  4.45411E+03 -3.89707E+03  5.06128E+03 -5.82421E+03  1.09045E+03 -5.74900E+03 -9.59818E+02
 -2.68192E+03 -5.58370E+03  8.78258E+02 -6.63957E+03  2.41737E+03 -3.28044E+03  5.53084E+03 -1.39781E+03
  3.41842E+03  2.07991E+03  5.07904E+01  3.67194E+03 -1.56633E+03  1.22052E+03 -2.20289E+03 -6.12791E+02
 -1.24420E+03 -2.36411E+03  1.99236E+03 -2.36426E+03  2.16893E+03 -9.47224E+02  1.83483E+03 -3.51470E+01
  1.39594E+03  7.45948E+02  5.51800E+02  3.64084E+02 -9.04325E+02  8.72308E+02  1.61671E+03 -3.29435E+02
  6.47504E+02 -2.27845E+02  2.40103E+03  3.81619E+02  9.12640E+02  3.13856E+03 -2.81459E+02  4.37748E+03
 -2.58050E+03  1.81857E+03 -3.00339E+03  9.27586E+02 -3.05818E+03 -1.51500E+03 -1.68761E+03 -1.78470E+03
  4.75192E+02 -1.88427E+03  1.55672E+03 -4.01830E+02  6.64243E+02  1.60657E+03 -5.16403E+02  1.79268E+03
 -2.28632E+03  1.36591E+03 -2.15861E+03 -1.24602E+03 -6.58799E+02 -2.85364E+03  7.57246E+02 -2.75735E+03
  1.24136E+03 -9.82268E+02  1.77175E+03 -1.36824E+02  2.22990E+03 -4.90783E+02  5.25592E+02  1.96261E+03
 -4.71871E+02  6.93060E+01 -1.92766E+03 -8.92838E+02  7.49291E+02 -1.61741E+03  2.23203E+03 -1.75698E+03
  1.65707E+03 -3.06639E+02  3.58606E+03  1.71785E+03  1.59635E+03  3.11111E+03 -8.23062E+02  3.08142E+03
 -2.18997E+03  6.96020E+02 -2.91529E+03  7.31625E+01 -1.48950E+03 -2.17451E+03  8.15098E+02 -1.01202E+03
  2.16643E+03 -1.31845E+03  1.64986E+03  7.75151E+02  3.13378E+02  2.13038E+03  5.84189E+02  2.02318E+03
 -4.43836E+02  1.18305E+03 -4.36476E+02 -1.78337E+02  2.83187E+02  2.62199E+02 -1.13783E+03  1.28361E+03
 -5.82507E+02  1.36131E+03 -2.79691E+03  1.23511E+03 -3.02870E+03  6.07552E+02 -3.68854E+03 -1.50327E+03
 -1.93934E+03 -3.71700E+03  1.10539E+03 -4.59285E+03  1.97184E+03 -3.52057E+03  4.44233E+03 -1.97323E+03
  3.86165E+03  8.47804E+01  2.37271E+03  3.08687E+03 -2.36823E+02  2.23754E+03 -1.60796E+03  2.91789E+03
 -1.56420E+03  1.17013E+03 -1.18237E+03 -4.74203E+02 -3.96907E+02 -2.72932E+02 -7.12479E+02  2.15020E+02
 -1.57410E+03  2.34849E+02 -1.52197E+03 -4.60718E+02 -4.80034E+02 -8.39501E+02 -7.53033E+02 -7.86438E+02
  1.51477E+03 -1.16052E+03  1.56671E+03  3.35106E+02  2.30283E+03  1.38518E+03  6.07825E+01  2.66992E+03
 -1.59121E+03  3.52750E+03 -2.48997E+03  1.93230E+03 -3.39285E+03  2.45759E+02 -2.12244E+03 -2.09348E+03
 -1.95156E+03 -2.41093E+03  6.84354E+02 -2.51427E+03  1.54745E+03 -1.07435E+03  8.25117E+02 -6.73898E+01
  1.35070E+03 -3.29946E+01  8.10116E+02  1.55787E+03 -6.95224E+02 -1.04315E+02  2.57917E+02 -7.60015E+02
  1.12566E+03  5.90772E+02  7.54348E+02  4.74079E+02  4.10237E+02  1.07175E+03 -1.55271E+02  8.20872E+02
 -1.29679E+03  1.47210E+03 -1.81815E+03 -6.86985E+01 -1.14796E+03 -1.02576E+03 -2.71296E+01 -1.65433E+03
  1.11054E+03 -2.18228E+03  1.18307E+03 -1.99975E+02  1.78980E+03 -9.02423E+02  5.49103E+02  1.50486E+03
  3.39397E+02  1.01843E+03 -4.72754E+02  1.79614E+03 -5.88429E+02  1.07270E+03 -7.01855E+02  4.44238E+02
 -7.37716E+02 -3.51970E+02 -2.36725E+02  2.87732E+02 -7.96091E+02  3.89028E+02 -1.23634E+03 -8.54280E+02
 -1.47852E+03  3.52941E+02 -6.86576E+02 -1.26192E+03  6.95392E+02 -2.68740E+03  1.29935E+03 -7.34592E+02
  1.89810E+03  4.13980E+02  4.36723E+02  2.24265E+02 -2.90947E+02  1.19935E+03 -7.43659E+02  9.17304E+02
