 $NMID ID='MM_0lb_SNR400_20hz_g55_7.RAW', FMTDAT='(8E13.5)'
 TRAMP=1., VOLUME=1. $END
  3.09561E+05  2.91560E+02  3.37496E+05  2.50022E+05  8.40546E+04  3.37122E+05 -1.32385E+05  2.50676E+05
 -1.89834E+05  8.25981E+04 -1.10909E+05 -3.29586E+04  1.22038E+03 -5.04795E+04  5.38903E+04  2.19838E+02
  3.50049E+04  5.28363E+04 -1.67938E+04  7.49983E+04 -6.08645E+04  6.30623E+04 -8.32568E+04  3.16160E+04
 -7.93570E+04 -1.16705E+04 -5.66636E+04 -5.05232E+04 -1.42520E+04 -6.83979E+04  2.68321E+04 -4.52505E+04
  3.92305E+04  4.10695E+03  1.56707E+04  4.71057E+04 -3.35966E+04  4.58527E+04 -6.55844E+04 -4.22077E+00
 -5.25179E+04 -5.61669E+04 -6.06115E+03 -7.52504E+04  3.33360E+04 -5.31952E+04  4.69257E+04 -1.65040E+04
  4.16048E+04  1.10870E+04  3.08024E+04  2.42797E+04  1.56445E+04  2.87238E+04 -4.83422E+03  2.69427E+04
 -2.22397E+04  1.28325E+04 -1.90076E+04 -4.58161E+03  4.12402E+03 -7.56551E+03  2.13210E+04  1.10912E+04
  7.58175E+03  3.34466E+04 -3.07560E+04  3.39589E+04 -6.10209E+04  2.35405E+03 -5.59403E+04 -4.15167E+04
 -1.21339E+04 -6.10142E+04  3.79681E+04 -4.33665E+04  5.54947E+04 -1.87667E+03  3.15819E+04  3.06118E+04
 -6.08861E+03  3.34207E+04 -2.83789E+04  1.39066E+04 -2.80955E+04 -5.71534E+03 -1.44372E+04 -9.85995E+03
 -7.49427E+03 -1.17311E+04 -1.14429E+03 -1.68485E+04  6.66873E+03 -2.29071E+04  1.52607E+04 -1.39741E+04
  1.27504E+04  4.33760E+03 -6.22520E+03  1.30709E+04 -1.92659E+04 -2.79129E+03 -8.30594E+03 -3.06649E+04
  2.04369E+04 -4.06414E+04  4.45484E+04 -1.84606E+04  4.21632E+04  1.82253E+04  1.40899E+04  4.18697E+04
 -1.54987E+04  3.09482E+04 -2.33340E+04  1.22134E+03 -8.13172E+03 -2.66294E+04  2.05253E+04 -3.13560E+04
  3.77210E+04 -7.67955E+03  3.15211E+04  2.32093E+04  1.51386E+04  4.25353E+04 -8.09045E+03  4.54444E+04
 -2.85799E+04  3.03355E+04 -3.73022E+04  8.17496E+03 -3.85833E+04 -1.52919E+04 -2.15824E+04 -3.41330E+04
  7.19589E+03 -3.47845E+04  2.90222E+04 -1.30026E+04  2.62071E+04  1.03473E+04  2.91384E+03  1.79441E+04
 -1.34909E+04  7.31307E+03 -9.53246E+03 -7.16533E+03  5.24518E+03 -9.85974E+03  1.71856E+04  6.11025E+03
  1.22103E+04  2.16150E+04 -6.81838E+03  2.31448E+04 -2.16769E+04  8.86424E+03 -2.48383E+04 -6.38135E+03
 -1.65798E+04 -1.57331E+04 -5.41066E+03 -1.67221E+04  3.41719E+03 -1.47128E+04  1.26318E+04 -1.52489E+04
  2.08996E+04 -1.20026E+04  2.80724E+04  1.15178E+03  2.09992E+04  1.66572E+04  4.45972E+03  3.26186E+04
 -1.61362E+04  2.74745E+04 -2.54600E+04  9.45776E+03 -1.92791E+04 -1.07171E+04 -3.79905E+03 -1.37466E+04
  2.27042E+03 -4.50751E+03 -2.70497E+03  5.38831E+03 -1.24702E+04  5.17465E+03 -1.33894E+04 -4.71796E+03
 -8.03188E+03 -1.46833E+04  4.61037E+03 -1.96337E+04  1.24805E+04 -1.39724E+04  1.45086E+04 -1.27199E+03
  8.79091E+03  1.07214E+04 -1.16269E+03  1.60652E+04 -1.00535E+04  8.53920E+03 -1.53313E+04 -3.48934E+03
 -1.14929E+04 -1.42897E+04 -1.14101E+03 -1.90105E+04  8.81642E+03 -1.51167E+04  1.54091E+04 -6.83389E+03
  1.41961E+04  1.19639E+03  9.86451E+03  3.82901E+03  4.78390E+03  6.77575E+02  7.34329E+03 -1.31536E+03
  1.37279E+04  2.53811E+03  1.45689E+04  1.28603E+04  9.22400E+03  2.42185E+04 -2.91547E+03  2.58994E+04
 -1.52804E+04  1.92669E+04 -2.39970E+04  9.46016E+03 -2.44296E+04 -2.03802E+03 -2.06518E+04 -1.36404E+04
 -1.01244E+04 -1.98707E+04  6.41399E+03 -1.83994E+04  1.58567E+04 -1.09026E+04  1.58806E+04  3.06045E+03
  6.26290E+03  1.12602E+04 -6.81386E+03  9.93594E+03 -1.34673E+04  2.48531E+03 -9.86348E+03 -7.35357E+03
 -1.78155E+02 -1.27625E+04  6.12844E+03 -9.42842E+03  7.66783E+03 -1.39839E+03  1.08267E+03  4.91775E+03
 -6.03946E+03  1.50471E+03 -3.70019E+03 -4.71687E+03  1.21754E+03 -9.78638E+03  7.85546E+03 -9.70652E+03
  1.16487E+04 -4.38154E+03  1.16274E+04  2.70461E+03  9.48661E+03  8.98254E+03  4.67869E+03  1.35973E+04
 -1.25507E+03  1.48461E+04 -9.06086E+03  9.93038E+03 -1.07853E+04  2.59599E+03 -7.96868E+03 -1.44417E+03
 -4.52054E+03 -3.40770E+03 -1.17942E+03  1.43219E+03 -1.74165E+03  1.59725E+03 -3.63124E+03  3.13410E+03
 -7.48381E+03 -3.25949E+02 -8.28702E+03 -6.77319E+03 -3.73709E+03 -1.10684E+04  3.49567E+03 -8.03732E+03
  7.25144E+03 -4.04077E+03  5.29318E+03  2.13540E+03  5.67633E+02  2.65255E+03 -3.68729E+03  2.52395E+02
 -3.06660E+03 -5.16691E+03 -4.31976E+02 -6.28209E+03  3.76865E+03 -7.33106E+03  9.36872E+03 -3.78118E+03
  1.10719E+04  9.76841E+02  7.99209E+03  5.42767E+03  2.26477E+03  8.17845E+03 -4.81651E+03  7.43217E+03
 -6.49116E+03  2.55623E+03 -3.37624E+03 -1.09148E+03  1.28635E+03 -1.76391E+03  4.52013E+03 -1.02783E+03
  3.17903E+03  3.30755E+03  7.53134E+02  6.49218E+03 -4.31304E+03  5.57199E+03 -6.83116E+03  1.91727E+03
 -4.30385E+03 -3.29488E+03  9.53335E+02 -6.12645E+03  3.00263E+03 -3.12628E+03  3.34415E+03  8.70635E+02
  5.22750E+02  3.39358E+03 -3.95166E+03  4.47221E+03 -4.41976E+03  2.40131E+03 -3.52522E+03 -1.07890E+03
 -2.53267E+03 -4.79917E+03  1.10036E+03 -6.63047E+03  5.24511E+03 -3.97718E+03  6.10254E+03  4.39680E+02
  4.09595E+03  4.98203E+03  4.51524E+02  7.11038E+03 -4.42322E+03  3.64695E+03 -4.33449E+03 -9.32804E+02
 -5.36214E+03 -4.89702E+03 -1.27044E+03 -4.20236E+03  2.29553E+03 -4.48747E+03  2.62865E+03 -2.73340E+03
  2.25127E+03  5.83370E+02  4.36476E+02  1.10375E+03  7.41391E+02 -9.15684E+01  2.91873E+02 -1.43069E+03
  3.46348E+03 -6.66754E+02  4.53374E+03  5.67696E+02  4.70261E+03  2.67667E+03  5.32228E+03  6.14168E+03
 -1.01736E+03  7.35425E+03 -6.95760E+03  5.45186E+03 -8.93644E+03  1.70307E+03 -6.53120E+03 -2.20357E+03
 -3.64989E+03 -5.91773E+03 -1.09905E+02 -4.36261E+03  1.82706E+03 -1.72615E+03  1.63702E+03 -2.07438E+03
  8.17246E+02 -1.47376E+03  2.13493E+03 -2.16832E+03  3.65000E+03 -1.10290E+03  3.36548E+03  8.08943E+02
  3.94349E+03  1.53423E+03  1.32708E+02  2.78356E+03 -8.29642E+02  2.22539E+03 -4.12884E+03  1.67317E+03
 -4.43795E+03 -1.44356E+03 -1.19395E+03 -2.92637E+03  3.71168E+02 -3.95365E+03  2.83637E+03 -4.84040E+03
  4.00935E+03 -2.63806E+03  6.32928E+03  1.30107E+02  4.26460E+03  3.73625E+03  6.24325E+02  5.48073E+03
 -1.92611E+03  4.49504E+03 -3.11384E+03  1.96258E+03 -1.11604E+03 -2.92287E+02 -3.25318E+02 -3.19373E+02
 -6.28739E+02  6.71200E+02 -6.39917E+02  1.96332E+03 -2.68431E+03  1.08079E+03 -3.08160E+03  1.49271E+00
 -1.51742E+03 -3.93670E+03  1.22259E+03 -3.67047E+03  2.44772E+03 -4.13013E+03  2.71477E+03 -7.08194E+02
  3.41906E+03  2.22728E+03  1.62521E+03  2.56271E+03 -3.52025E+02  3.26065E+03 -2.38266E+03  2.37285E+03
 -2.78396E+03  4.65478E+02 -2.65230E+03 -1.95497E+03 -4.08884E+02 -2.62336E+03  1.09591E+03 -1.75192E+03
  2.58739E+03 -1.39568E+03  1.23288E+03  1.10357E+02  5.82116E+02  1.53638E+03  8.94146E+02  2.24707E+02
  1.83544E+03  3.98415E+02  9.82387E+02  1.20408E+03  1.27598E+03  1.93022E+03  1.27138E+03  1.22550E+03
 -1.59448E+03  2.28071E+03 -1.74999E+03  3.42457E+03 -2.44652E+03  1.45178E+03 -3.57943E+03 -2.11853E+01
 -1.83672E+03 -2.48616E+03  7.21980E+02 -3.86567E+03  1.77807E+03 -2.01170E+03  2.76072E+03 -8.69309E+02
  1.84398E+03  1.52409E+03  1.45037E+02  2.26911E+03 -2.14037E+02  8.78944E+02 -8.77191E+02  2.24533E+02
 -8.19074E+02 -1.58695E+03  9.49413E+02 -1.07223E+03  8.26353E+02 -4.95482E+02  1.10279E+03 -5.00252E+01
  6.42827E+02  4.17849E+02  6.81997E+02 -5.18249E+02 -6.15823E+01  4.22552E+02  2.03225E+03 -3.06397E+02
 -3.00725E+02 -2.56639E+02  1.91556E+03  5.60608E+02 -2.32505E+02  1.50853E+03 -4.21260E+02  2.67272E+03
 -1.56844E+03  8.72882E+02 -1.23352E+03  1.84783E+02 -1.83785E+03 -1.85176E+02 -5.39120E+02 -6.50088E+02
  6.91336E+02 -8.65481E+02  5.64095E+02 -9.85676E+02  4.06999E+02  1.08745E+03 -8.47856E+02  7.58678E+02
 -1.17533E+03  6.71415E+02 -4.54530E+02 -1.17269E+03 -6.27222E+02 -1.80137E+03  2.92348E+02 -9.92899E+02
  5.61118E+02 -3.87855E+02  4.28398E+02 -1.97582E+02  1.19999E+03 -6.34939E+02 -2.88275E+02  9.60495E+02
 -2.91615E+01 -1.45642E+02 -6.51590E+02 -8.94222E+02  3.07701E+02 -5.21324E+02  1.27236E+03 -1.60085E+02
  1.14121E+03  2.82329E+02  2.36661E+03  3.03220E+02  8.52223E+02  9.87702E+02 -5.19416E+02  1.04953E+03
 -1.08455E+03  4.52167E+02 -1.20389E+03 -8.59418E+01 -4.71514E+02 -1.12154E+03  1.75384E+02 -5.33836E+02
  1.40501E+03 -1.10224E+03  5.55087E+02  3.55501E+02 -3.38607E+01  8.80515E+02  6.22289E+02  1.08442E+03
 -2.26744E+02  1.32719E+03 -6.52967E+02 -3.12741E+01  3.43765E+02  3.58960E+02 -9.19052E+02  6.61818E+02
 -4.29826E+02  9.85785E+02 -1.62647E+03  3.68117E+02 -1.21153E+03  6.29818E+02 -1.65631E+03 -6.90655E+02
 -4.95842E+02 -2.17384E+03  2.32527E+02 -2.15580E+03  5.55423E+02 -1.57794E+03  1.92637E+03 -9.18217E+02
  1.72826E+03 -1.14187E+02  5.81597E+02  8.80722E+02 -4.17992E+02  1.06571E+03 -6.92925E+02  5.69729E+02
 -2.66072E+02  4.47549E+02 -2.29626E+02 -1.98934E+02 -1.01094E+03  5.97810E+00 -3.81351E+02 -3.55719E+02
 -5.79786E+02  6.37962E+01 -3.83468E+02  2.54009E+02  2.80434E+02 -8.33233E+02 -5.13528E+02 -1.26857E+02
  1.20910E+03 -6.48221E+02 -1.83717E+02  1.52512E+02  9.96957E+02  5.82479E+02 -6.76862E+02  1.02496E+03
 -6.24914E+02  1.11394E+03 -7.68806E+02  9.11822E+02 -9.07953E+02 -3.24344E+02 -1.09954E+03 -8.00301E+02
 -6.44738E+02 -1.01154E+03 -2.04951E+02 -8.93880E+02  6.46603E+02  3.07478E+02  9.89526E+02  3.72872E+02
  6.87421E+02 -2.09211E+02  2.44760E+02  2.54159E+02 -7.38212E+02 -6.14571E+02 -1.42847E+02 -2.04316E+02
  2.71574E+02 -7.59387E+00 -2.14595E+02  7.75433E+02 -1.16579E+02  3.12226E+02  3.28280E+02  1.38004E+02
 -4.45116E+02  5.33659E+02 -4.70991E+02 -8.25552E+01 -7.84965E+02 -2.48417E+02  8.72573E+01 -8.58814E+02
  5.08271E+02 -3.56743E+02  6.65147E+01  2.88522E+02  4.52406E+02 -8.42307E+02 -5.52569E+00  3.89347E+02
  4.02541E+00  1.78398E+02  1.94837E+02  3.36511E+02 -6.27160E+02  6.37361E+02  5.12575E+01 -1.15013E+01
  8.58685E+01  6.55386E+01 -4.89517E+02 -2.52789E+02 -1.21853E+03 -1.14498E+01 -4.72471E+02 -4.23413E+02
 -2.72058E+02  3.13349E+02  2.86551E+02 -7.41882E+02  4.73741E+02 -1.16194E+03  6.63849E+02  4.19804E+02
  1.48411E+02 -6.10621E+02 -2.90909E+02 -1.84707E+02  7.27014E+02  6.85378E+02 -2.16811E+02  4.68367E+02
