 $NMID ID='MM_0lb_SNR400_8hz_g45_50.RAW', FMTDAT='(8E13.5)'
 TRAMP=1., VOLUME=1. $END
  3.09732E+05  2.40813E+02  3.37896E+05  2.50468E+05  8.45622E+04  3.38156E+05 -1.32057E+05  2.52059E+05
 -1.91338E+05  8.46624E+04 -1.13113E+05 -3.23657E+04  8.15054E+02 -5.07699E+04  5.33158E+04 -5.83672E+02
  3.54102E+04  5.28874E+04 -1.65024E+04  7.64982E+04 -6.15843E+04  6.47714E+04 -8.59635E+04  3.37912E+04
 -8.22472E+04 -1.11221E+04 -5.85170E+04 -5.21311E+04 -1.38988E+04 -7.08661E+04  2.80071E+04 -4.69804E+04
  4.10174E+04  3.66467E+03  1.69844E+04  4.83577E+04 -3.46501E+04  4.78397E+04 -6.84382E+04  5.64517E+02
 -5.50634E+04 -5.71608E+04 -6.96750E+03 -7.93374E+04  3.52190E+04 -5.72061E+04  5.00488E+04 -1.85957E+04
  4.50013E+04  1.21644E+04  3.26190E+04  2.67298E+04  1.58191E+04  3.07654E+04 -6.41257E+03  2.72713E+04
 -2.29747E+04  1.12626E+04 -1.80173E+04 -6.64381E+03  6.82168E+03 -7.19963E+03  2.36782E+04  1.39340E+04
  7.00200E+03  3.74967E+04 -3.42339E+04  3.72957E+04 -6.60213E+04  1.94190E+03 -5.87838E+04 -4.49931E+04
 -1.22103E+04 -6.59997E+04  4.14741E+04 -4.75970E+04  6.11492E+04 -2.20228E+03  3.73915E+04  3.42421E+04
 -6.64006E+03  4.02097E+04 -3.20646E+04  1.85600E+04 -3.38962E+04 -3.77085E+03 -1.98155E+04 -1.25591E+04
 -8.98734E+03 -1.53226E+04 -7.59823E+01 -2.07895E+04  8.99463E+03 -2.40755E+04  1.58717E+04 -1.27465E+04
  1.08363E+04  7.03585E+03 -1.05293E+04  1.25957E+04 -2.39986E+04 -6.78088E+03 -8.13909E+03 -3.76402E+04
  2.44001E+04 -4.77955E+04  5.28559E+04 -2.09983E+04  4.91898E+04  2.13019E+04  1.75553E+04  4.73478E+04
 -1.67725E+04  3.64646E+04 -2.81240E+04  2.72456E+03 -1.20272E+04 -2.99161E+04  2.14639E+04 -3.70716E+04
  4.50913E+04 -1.06551E+04  4.07522E+04  2.44016E+04  2.11879E+04  5.12598E+04 -9.05653E+03  5.67762E+04
 -3.57091E+04  3.90991E+04 -4.82416E+04  1.07437E+04 -4.79921E+04 -1.91166E+04 -2.60240E+04 -4.27205E+04
  7.74870E+03 -4.25840E+04  3.41760E+04 -1.70500E+04  3.20382E+04  1.02928E+04  5.82924E+03  2.08814E+04
 -1.37177E+04  9.86294E+03 -1.13623E+04 -7.38135E+03  5.49662E+03 -1.23400E+04  1.90499E+04  5.62602E+03
  1.61274E+04  2.34386E+04 -4.47970E+03  2.67275E+04 -2.31875E+04  1.49492E+04 -3.11620E+04 -2.38775E+03
 -2.58390E+04 -1.82805E+04 -1.17453E+04 -2.62658E+04  4.28117E+03 -2.64824E+04  2.10825E+04 -2.30993E+04
  3.29076E+04 -1.43596E+04  3.82914E+04  5.42465E+03  2.70141E+04  2.46621E+04  5.20829E+03  4.25323E+04
 -1.97392E+04  3.44013E+04 -3.13689E+04  1.21390E+04 -2.25639E+04 -1.03684E+04 -4.91296E+03 -1.33959E+04
  7.43985E+02 -1.49765E+03 -8.18185E+03  8.12465E+03 -2.06550E+04  5.61911E+03 -2.11792E+04 -1.01752E+04
 -1.20130E+04 -2.40193E+04  5.58473E+03 -2.80118E+04  1.80347E+04 -1.98911E+04  2.38054E+04 -1.17373E+03
  1.57696E+04  1.66330E+04 -1.50844E+03  2.38983E+04 -1.71655E+04  1.34521E+04 -2.49581E+04 -4.95294E+03
 -1.81949E+04 -2.19869E+04 -2.27610E+03 -2.92170E+04  1.39545E+04 -2.46176E+04  2.46744E+04 -1.13517E+04
  2.28952E+04 -3.84851E+02  1.57747E+04  5.92237E+03  8.51722E+03  1.89777E+03  1.26215E+04 -1.68435E+03
  2.28550E+04  2.62738E+03  2.64050E+04  1.79298E+04  1.81460E+04  3.88980E+04 -2.61745E+03  4.57961E+04
 -2.52643E+04  3.80264E+04 -4.28405E+04  1.97907E+04 -4.59378E+04 -3.72637E+03 -3.64697E+04 -2.61480E+04
 -1.53685E+04 -3.84493E+04  1.27775E+04 -3.29512E+04  2.80854E+04 -1.57528E+04  2.41589E+04  6.64346E+03
  8.68937E+03  2.04519E+04 -1.09923E+04  1.61240E+04 -2.03907E+04  2.18260E+03 -1.58752E+04 -1.33843E+04
 -6.66688E+02 -2.00848E+04  1.08236E+04 -1.42956E+04  1.37335E+04 -1.04956E+03  3.80509E+03  9.07635E+03
 -8.89957E+03  4.18919E+03 -1.05811E+04 -6.85156E+03 -1.91002E+03 -1.92410E+04  1.29487E+04 -2.08582E+04
  2.34588E+04 -1.15248E+04  2.76334E+04  3.45756E+03  2.32231E+04  1.93467E+04  1.15424E+04  3.07426E+04
 -5.75893E+03  3.24451E+04 -2.15540E+04  1.96950E+04 -2.38926E+04  3.49429E+03 -1.55212E+04 -5.92178E+03
 -6.61981E+03 -8.69272E+03 -7.03467E+02 -4.80429E+01 -2.56736E+03  4.98800E+03 -7.90071E+03  5.41055E+03
 -1.48228E+04 -1.58359E+03 -1.54175E+04 -1.19900E+04 -5.56321E+03 -1.98522E+04  6.73986E+03 -1.62508E+04
  1.30821E+04 -6.91985E+03  9.33009E+03  3.91211E+03 -9.99027E+02  7.03058E+03 -8.24234E+03 -1.50696E+02
 -8.26498E+03 -1.02105E+04 -1.45744E+03 -1.59768E+04  9.63401E+03 -1.71840E+04  2.17840E+04 -8.86966E+03
  2.38874E+04  2.71856E+03  1.80824E+04  1.51861E+04  3.43461E+03  2.01703E+04 -1.08743E+04  1.58454E+04
 -1.35607E+04  3.48748E+03 -7.77127E+03 -4.13016E+03  2.01824E+03 -4.71838E+03  9.05012E+03 -9.94385E+02
  7.15736E+03  6.87342E+03  1.21018E+03  1.29896E+04 -9.13093E+03  1.32973E+04 -1.61396E+04  2.83169E+03
 -1.12651E+04 -8.95781E+03  5.84125E+02 -1.43765E+04  9.99504E+03 -6.49009E+03  8.68271E+03  3.22965E+03
  2.83406E+03  1.05615E+04 -8.31535E+03  1.18476E+04 -1.44056E+04  5.47276E+03 -1.44179E+04 -5.12384E+03
 -8.57210E+03 -1.70230E+04  4.44996E+03 -2.04006E+04  1.62905E+04 -1.09087E+04  1.81810E+04  2.01628E+03
  1.06566E+04  1.41977E+04 -2.88372E+03  1.57888E+04 -1.25121E+04  9.54536E+03 -1.34706E+04 -1.56365E+03
 -1.16060E+04 -1.14241E+04 -1.98774E+03 -1.25242E+04  6.76447E+03 -1.01233E+04  8.06015E+03 -3.63878E+03
  5.25267E+03  2.37844E+03 -1.00716E+03  2.02706E+03 -6.84236E+02 -4.10940E+03  2.92602E+03 -8.65391E+03
  1.25242E+04 -4.68609E+03  1.74201E+04  1.56607E+03  1.73246E+04  1.12949E+04  1.10884E+04  2.27301E+04
 -5.47212E+03  2.61459E+04 -2.11927E+04  1.88044E+04 -2.75624E+04  3.79407E+03 -2.18959E+04 -1.00051E+04
 -1.09378E+04 -1.88523E+04 -5.08010E+02 -1.55313E+04  5.77413E+03 -8.98678E+03  5.76570E+03 -5.89304E+03
  4.74890E+03 -2.79481E+03  3.87605E+03 -3.87568E+03  6.14752E+03 -3.62348E+03  8.91402E+03 -2.21659E+03
  1.14398E+04  2.82054E+03  5.39781E+03  9.55458E+03 -2.57485E+03  1.22107E+04 -1.25516E+04  9.58429E+03
 -1.46933E+04 -1.46143E+03 -1.06588E+04 -1.02864E+04 -5.61687E+02 -1.73000E+04  9.16266E+03 -1.61893E+04
  1.72585E+04 -8.77724E+03  2.12247E+04  2.62514E+03  1.39226E+04  1.51466E+04  2.20054E+03  2.00729E+04
 -8.30939E+03  1.57163E+04 -1.14517E+04  5.58089E+03 -7.61766E+03 -2.24762E+03 -3.70459E+03 -2.38568E+03
 -1.78724E+03 -6.67530E+02 -2.67264E+03  3.32347E+03 -6.05544E+03  2.48373E+03 -1.11978E+04 -2.07867E+03
 -8.72052E+03 -1.08812E+04 -8.00409E+02 -1.58629E+04  9.49250E+03 -1.53101E+04  1.58747E+04 -5.10107E+03
  1.59588E+04  7.85481E+03  7.26175E+03  1.47607E+04 -2.70632E+03  1.64300E+04 -1.15940E+04  9.68335E+03
 -1.50081E+04  1.03484E+03 -1.14113E+04 -9.34576E+03 -1.02847E+03 -1.30624E+04  7.00519E+03 -9.44144E+03
  9.81189E+03 -2.84907E+03  7.77015E+03  2.42007E+03  3.20516E+03  4.25464E+03  2.46080E+03  2.68114E+03
  3.42035E+03  1.17505E+03  4.18022E+03  2.03112E+03  5.23327E+03  6.45395E+03  3.97501E+03  9.21980E+03
 -3.07926E+03  1.37662E+04 -1.12377E+04  1.31408E+04 -1.67364E+04  3.57824E+03 -1.70386E+04 -7.11649E+03
 -8.10711E+03 -1.68508E+04  1.83364E+03 -1.81614E+04  1.00050E+04 -1.13001E+04  1.35649E+04 -3.98294E+03
  1.10991E+04  7.11194E+03  2.07424E+03  9.57138E+03 -5.10060E+03  6.28327E+03 -6.40890E+03 -1.17649E+03
 -3.23418E+03 -6.53520E+03  3.44875E+03 -7.69428E+03  6.98206E+03 -4.31540E+03  6.70042E+03  2.25477E+03
  3.14256E+03  3.12112E+03  1.39696E+03  3.41687E+03 -8.43216E+02  2.64996E+03  2.09324E+03 -5.63211E+02
  3.44697E+03 -1.76190E+03  7.27988E+03  2.66352E+03  4.94864E+03  8.44531E+03 -6.99811E+02  1.19578E+04
 -8.61765E+03  7.62961E+03 -1.09608E+04  2.69311E+03 -8.92714E+03 -3.82619E+03 -3.69073E+03 -5.95036E+03
  9.09072E+02 -7.26683E+03  4.62552E+03 -2.89724E+03  4.37199E+03  3.22124E+03 -1.43844E+03  5.76069E+03
 -6.28964E+03  4.08796E+03 -7.80149E+03 -4.23634E+03 -5.01789E+03 -9.57469E+03  1.21886E+03 -9.45519E+03
  5.93941E+03 -5.03729E+03  6.48062E+03  1.26593E+02  5.48768E+03  3.01905E+03  5.63519E+02  5.47193E+03
 -4.74498E+03  1.92849E+03 -4.13238E+03 -4.00265E+03  1.76553E+03 -7.56124E+03  8.26220E+03 -6.41108E+03
  1.03404E+04 -3.69190E+01  9.84943E+03  6.42440E+03  3.30241E+03  1.16942E+04 -3.86111E+03  1.09594E+04
 -1.02595E+04  4.26707E+03 -1.01266E+04 -1.30968E+03 -5.83539E+03 -7.49024E+03  2.27092E+03 -6.74184E+03
  6.60072E+03 -2.82915E+03  5.46092E+03  3.15653E+03  1.90572E+03  6.46985E+03 -1.19062E+03  4.68862E+03
 -2.05972E+03  3.16988E+03 -3.15625E+03  7.18872E+02 -1.87550E+03  1.47804E+03 -1.44315E+03  2.33886E+03
 -3.61645E+03  4.33051E+03 -7.27930E+03  3.74470E+03 -1.14215E+04 -3.96583E+02 -1.20973E+04 -7.26510E+03
 -6.85396E+03 -1.44039E+04  2.37700E+03 -1.78735E+04  1.13757E+04 -1.39422E+04  1.70403E+04 -4.72675E+03
  1.56225E+04  3.76340E+03  8.89145E+03  1.00408E+04  1.58787E+03  1.13416E+04 -5.48889E+03  8.99003E+03
 -6.65895E+03  3.03899E+03 -3.53381E+03 -1.46777E+03 -1.36459E+03 -1.47154E+03 -1.53631E+02  5.26390E+02
 -2.30140E+03  7.18630E+02 -2.65282E+03 -3.49859E+02 -1.06662E+03 -2.91275E+03  6.12076E+02 -4.36598E+03
  5.91290E+03 -4.68008E+03  7.50601E+03 -8.73645E-01  8.45025E+03  7.13157E+03  2.72367E+03  1.24184E+04
 -5.47940E+03  1.33154E+04 -1.27530E+04  7.93465E+03 -1.41195E+04 -2.80589E+02 -1.18534E+04 -9.21218E+03
 -4.56867E+03 -1.23106E+04  3.42263E+03 -1.13845E+04  7.20363E+03 -7.43453E+03  7.73477E+03  5.78701E+02
  4.29568E+03  4.80632E+03 -1.57293E+03  3.06595E+03 -1.69348E+03  2.38800E+02  3.08383E+02 -3.29492E+03
  4.04277E+03 -2.04934E+03  5.00960E+03  1.50611E+03  3.85938E+03  4.67616E+03  5.19595E+02  6.46505E+03
 -5.62923E+03  5.20866E+03 -7.87086E+03  6.67224E+02 -7.23540E+03 -5.46741E+03 -1.60107E+03 -9.83899E+03
  5.51919E+03 -9.16384E+03  9.38922E+03 -3.22498E+03  9.17768E+03  2.50289E+03  5.53039E+03  7.57926E+03
  1.23177E+03  7.62538E+03 -2.67164E+03  7.03273E+03 -5.26470E+03  3.69694E+03 -4.34547E+03  1.37320E+03
 -2.53549E+03 -4.08158E+01 -3.01253E+03 -4.57716E+01 -4.40274E+03  2.16460E+03 -6.15093E+03 -1.28975E+03
 -6.06398E+03 -4.51663E+03 -1.45457E+03 -8.35230E+03  3.79902E+03 -8.40529E+03  7.35211E+03 -3.29284E+03
  7.93750E+03  1.62641E+03  4.90370E+03  5.97699E+03 -7.72217E+02  8.22336E+03 -5.45358E+03  5.46778E+03
