 $NMID ID='MM_0lb_SNR400_15hz_g45_76.RAW', FMTDAT='(8E13.5)'
 TRAMP=1., VOLUME=1. $END
  3.09438E+05  4.10098E+02  3.37730E+05  2.49958E+05  8.50645E+04  3.37488E+05 -1.32672E+05  2.51075E+05
 -1.89684E+05  8.27400E+04 -1.11123E+05 -3.30703E+04  1.14044E+03 -5.00632E+04  5.34284E+04  5.10290E+02
  3.54671E+04  5.29624E+04 -1.62500E+04  7.56269E+04 -6.08512E+04  6.32275E+04 -8.38779E+04  3.18989E+04
 -7.98675E+04 -1.12874E+04 -5.72643E+04 -5.12114E+04 -1.48873E+04 -6.89301E+04  2.67893E+04 -4.59374E+04
  3.94757E+04  4.16600E+03  1.60132E+04  4.76339E+04 -3.39756E+04  4.69343E+04 -6.65659E+04 -9.47666E+01
 -5.35847E+04 -5.65913E+04 -6.80036E+03 -7.65184E+04  3.33750E+04 -5.49868E+04  4.76763E+04 -1.67367E+04
  4.30817E+04  1.12725E+04  3.13183E+04  2.47161E+04  1.58237E+04  2.98613E+04 -5.31397E+03  2.76936E+04
 -2.18247E+04  1.26589E+04 -1.85493E+04 -4.85310E+03  5.10993E+03 -6.88711E+03  2.25804E+04  1.19804E+04
  6.71124E+03  3.48492E+04 -3.17969E+04  3.42949E+04 -6.24953E+04  2.60685E+03 -5.62784E+04 -4.22346E+04
 -1.21166E+04 -6.22682E+04  3.93032E+04 -4.47410E+04  5.74079E+04 -2.39573E+03  3.33309E+04  3.18164E+04
 -6.17461E+03  3.51419E+04 -2.95070E+04  1.56485E+04 -2.94188E+04 -4.80411E+03 -1.58544E+04 -1.07570E+04
 -8.59167E+03 -1.25895E+04 -8.35574E+02 -1.76284E+04  7.49482E+03 -2.30911E+04  1.50660E+04 -1.35575E+04
  1.16645E+04  5.04214E+03 -7.24456E+03  1.32571E+04 -2.04731E+04 -3.53683E+03 -8.72201E+03 -3.31825E+04
  2.24935E+04 -4.25585E+04  4.70038E+04 -1.93954E+04  4.39291E+04  1.90037E+04  1.56966E+04  4.34954E+04
 -1.60471E+04  3.28705E+04 -2.51603E+04  1.55132E+03 -9.22367E+03 -2.70835E+04  2.15245E+04 -3.30259E+04
  4.03283E+04 -8.78356E+03  3.47917E+04  2.37209E+04  1.78195E+04  4.52733E+04 -7.66698E+03  4.85016E+04
 -3.02400E+04  3.27709E+04 -4.06563E+04  9.60713E+03 -4.17816E+04 -1.63571E+04 -2.27721E+04 -3.71836E+04
  7.37225E+03 -3.70996E+04  3.11166E+04 -1.40726E+04  2.87023E+04  1.05257E+04  3.45788E+03  1.86643E+04
 -1.34358E+04  7.67290E+03 -1.00252E+04 -7.73791E+03  5.81070E+03 -1.01985E+04  1.82309E+04  5.70124E+03
  1.31477E+04  2.16588E+04 -5.88966E+03  2.41272E+04 -2.25163E+04  1.05906E+04 -2.73328E+04 -4.86885E+03
 -1.84080E+04 -1.65740E+04 -7.50580E+03 -1.91992E+04  3.83063E+03 -1.82397E+04  1.46934E+04 -1.77824E+04
  2.40126E+04 -1.24455E+04  3.09996E+04  2.47721E+03  2.33716E+04  1.88179E+04  4.00923E+03  3.46469E+04
 -1.76877E+04  2.92869E+04 -2.68592E+04  1.04600E+04 -2.07015E+04 -1.05128E+04 -4.27768E+03 -1.37171E+04
  2.01273E+03 -3.50296E+03 -4.24662E+03  6.06098E+03 -1.47299E+04  5.24449E+03 -1.52692E+04 -6.21695E+03
 -9.26318E+03 -1.81441E+04  4.48208E+03 -2.22173E+04  1.46168E+04 -1.55873E+04  1.72900E+04 -1.39505E+03
  1.10967E+04  1.23836E+04 -8.31385E+02  1.78957E+04 -1.22792E+04  1.02792E+04 -1.75995E+04 -4.01993E+03
 -1.31901E+04 -1.61038E+04 -1.55130E+03 -2.12058E+04  9.63088E+03 -1.75926E+04  1.76141E+04 -8.95929E+03
  1.70335E+04  7.75522E+02  1.21639E+04  4.35585E+03  5.98360E+03  5.46183E+02  8.58764E+03 -1.67120E+03
  1.64646E+04  3.17806E+03  1.77088E+04  1.44134E+04  1.17091E+04  2.87919E+04 -3.78229E+03  3.18205E+04
 -1.82415E+04  2.49273E+04 -2.96491E+04  1.23730E+04 -3.06244E+04 -2.34176E+03 -2.62882E+04 -1.73749E+04
 -1.12828E+04 -2.48176E+04  8.47742E+03 -2.31729E+04  2.00943E+04 -1.22481E+04  1.88480E+04  4.93534E+03
  7.12457E+03  1.32188E+04 -8.62642E+03  1.18880E+04 -1.48987E+04  2.75024E+03 -1.19832E+04 -9.66224E+03
  3.37686E+01 -1.42069E+04  7.71083E+03 -1.09238E+04  9.35456E+03 -1.86709E+03  1.47096E+03  5.86891E+03
 -6.97796E+03  2.37253E+03 -4.93545E+03 -5.13785E+03 -3.50199E+02 -1.24742E+04  8.93236E+03 -1.30787E+04
  1.52897E+04 -6.04318E+03  1.56800E+04  2.82229E+03  1.43149E+04  1.20395E+04  6.87467E+03  1.84832E+04
 -3.09037E+03  2.06245E+04 -1.27472E+04  1.25029E+04 -1.44805E+04  3.42062E+03 -1.01540E+04 -3.22089E+03
 -4.66821E+03 -3.96214E+03 -5.18651E+02  1.78970E+03 -2.44500E+03  1.79712E+03 -4.60654E+03  4.15076E+03
 -9.44912E+03 -4.46370E+02 -1.08416E+04 -8.54640E+03 -4.18180E+03 -1.36424E+04  4.59569E+03 -1.08669E+04
  8.43648E+03 -4.56403E+03  7.13751E+03  2.79039E+03  3.06304E+02  4.33201E+03 -4.57562E+03  4.83158E+01
 -4.91716E+03 -6.32770E+03 -7.64373E+02 -9.17248E+03  5.08153E+03 -1.03097E+04  1.31746E+04 -5.32343E+03
  1.51422E+04  8.29726E+02  1.13883E+04  8.59540E+03  1.95555E+03  1.12907E+04 -6.60039E+03  9.96136E+03
 -8.65694E+03  3.32581E+03 -4.30880E+03 -2.45845E+03  1.51545E+03 -2.58412E+03  5.74965E+03 -1.03630E+03
  4.76222E+03  4.05594E+03  1.17937E+03  7.85818E+03 -5.27162E+03  7.60899E+03 -9.94173E+03  1.77208E+03
 -6.30131E+03 -4.23465E+03  2.46721E+02 -8.14506E+03  5.36845E+03 -3.96314E+03  5.32918E+03  1.38478E+03
  1.02231E+03  4.82616E+03 -5.14235E+03  6.51227E+03 -7.22628E+03  2.61085E+03 -6.83630E+03 -2.18170E+03
 -3.74993E+03 -8.04383E+03  2.24404E+03 -9.62912E+03  8.03568E+03 -6.59736E+03  9.67206E+03  1.53013E+03
  6.00295E+03  7.71288E+03 -6.60414E+02  9.34264E+03 -6.65423E+03  4.86096E+03 -7.10087E+03 -8.76464E+02
 -6.51465E+03 -6.23037E+03 -1.47774E+03 -6.85979E+03  4.04523E+03 -6.33229E+03  3.56204E+03 -3.00341E+03
  3.57649E+03  9.06109E+02 -3.86920E+01  1.23964E+03 -1.05871E+02 -1.31446E+03  3.64647E+02 -3.50257E+03
  6.06639E+03 -1.59325E+03  7.78171E+03  9.68478E+02  8.11923E+03  5.18536E+03  6.90616E+03  1.02752E+04
 -2.11074E+03  1.29638E+04 -1.08162E+04  9.49498E+03 -1.40703E+04  2.10569E+03 -1.12184E+04 -3.83069E+03
 -5.80076E+03 -9.12830E+03 -8.25556E+02 -8.04462E+03  2.63706E+03 -3.58918E+03  2.95225E+03 -2.82888E+03
  2.40513E+03 -1.44129E+03  2.26674E+03 -2.90488E+03  4.92412E+03 -2.22797E+03  5.10495E+03 -7.97506E+02
  5.78495E+03  1.23446E+03  2.72188E+03  4.97250E+03 -1.46479E+03  4.97415E+03 -5.34770E+03  4.20800E+03
 -7.45171E+03 -1.21686E+03 -3.53253E+03 -4.90672E+03  2.54623E+02 -7.47471E+03  4.17188E+03 -8.28823E+03
  7.68014E+03 -4.85343E+03  9.24216E+03  7.06517E+02  7.00161E+03  6.48968E+03  1.11803E+03  8.32918E+03
 -3.24415E+03  7.89779E+03 -5.03338E+03  2.63339E+03 -3.56253E+03 -1.75279E+03 -1.25310E+03 -9.29370E+02
 -6.27593E+02 -1.03885E+02 -1.37279E+03  2.02868E+03 -3.66363E+03  5.19069E+02 -6.17755E+03 -6.50700E+02
 -2.22760E+03 -5.46102E+03  8.78505E+02 -7.01608E+03  4.44845E+03 -6.61063E+03  6.33011E+03 -1.98931E+03
  6.89921E+03  3.39750E+03  3.15582E+03  5.99097E+03 -1.57715E+03  6.84354E+03 -4.08893E+03  4.20031E+03
 -5.55552E+03  5.61482E+02 -4.71552E+03 -3.54579E+03 -5.38900E+01 -5.42156E+03  2.75933E+03 -3.69457E+03
  4.05930E+03 -1.70901E+03  2.62467E+03  7.75209E+02  8.11093E+02  2.46434E+03  1.11085E+03  7.85048E+02
  2.33346E+03  1.14385E+03  1.62158E+03  1.48198E+03  1.73827E+03  2.69861E+03  2.07523E+03  3.42157E+03
 -1.36318E+03  5.04979E+03 -4.29586E+03  6.29394E+03 -5.96965E+03  1.48318E+03 -7.46278E+03 -1.42154E+03
 -2.96850E+03 -6.56760E+03  1.33264E+03 -7.85015E+03  3.86721E+03 -4.56032E+03  5.63717E+03 -1.62562E+03
  5.02850E+03  2.87495E+03  7.55753E+02  3.98963E+03 -1.50704E+03  2.27833E+03 -2.35995E+03  1.23066E+02
 -1.22962E+03 -3.03433E+03  1.83766E+03 -2.99800E+03  2.30159E+03 -1.26718E+03  2.03079E+03  8.05384E+02
  2.04921E+03  9.51357E+02  9.54218E+02  4.91549E+02 -2.62685E+02  9.82555E+02  1.62597E+03 -1.86851E+02
  1.29488E+02 -3.50470E+02  2.64241E+03  1.13360E+03  8.85400E+02  3.61730E+03 -4.99214E+02  4.10304E+03
 -2.59663E+03  1.85950E+03 -3.69169E+03  8.52094E+02 -3.28954E+03 -1.51621E+03 -4.50483E+02 -2.51011E+03
  3.52253E+02 -1.97712E+03  1.48855E+03 -1.57961E+03  6.80723E+02  1.43985E+03 -1.26096E+03  1.87639E+03
 -2.20875E+03  3.85031E+02 -2.89404E+03 -1.02974E+03 -1.44039E+03 -4.23059E+03  2.68189E+02 -2.82003E+03
  2.00687E+03 -1.39674E+03  1.84923E+03  7.27009E+01  2.28013E+03  2.26064E+02  5.07485E+02  1.38051E+03
 -1.15090E+03  2.08761E+02 -1.77720E+03 -6.52350E+02  1.35446E+03 -1.92988E+03  2.87999E+03 -1.05763E+03
  2.86317E+03  8.39211E+01  4.39289E+03  1.82350E+03  1.16801E+03  3.42174E+03 -8.01098E+02  3.34058E+03
 -2.69067E+03  1.05583E+03 -2.61544E+03  7.22590E+02 -1.53395E+03 -2.29075E+03  8.77672E+02 -2.09341E+03
  2.72959E+03 -1.16164E+03  1.33262E+03  1.76850E+03  3.67517E+02  1.78236E+03  1.78747E+02  2.47947E+03
 -9.42197E+02  1.97872E+03 -1.52703E+03  5.69975E+02 -1.07075E+03  8.24383E+02 -1.40300E+03  1.80433E+02
 -9.80288E+02  9.00084E+02 -2.24995E+03  9.41717E+02 -3.23748E+03 -9.90983E+01 -3.68773E+03 -2.12458E+03
 -1.95708E+03 -4.58238E+03  1.10376E+03 -5.51546E+03  3.00734E+03 -4.56315E+03  5.18594E+03 -2.00914E+03
  4.41332E+03  2.56646E+01  2.58146E+03  2.99714E+03 -3.64617E+01  3.71926E+03 -1.78032E+03  2.72335E+03
 -1.88742E+03  9.06741E+02 -1.55791E+03 -6.60286E+01 -9.67049E+02 -2.01144E+02 -5.79086E+02  1.81110E+02
 -1.89671E+03 -4.77653E+02 -1.06182E+03 -2.12698E+01 -1.58977E+02 -1.48548E+03 -6.29657E+02 -1.55818E+03
  1.87784E+03 -1.48761E+03  1.61228E+03  3.93743E+02  2.18365E+03  1.88503E+03  1.74290E+02  3.31302E+03
 -1.42042E+03  4.15891E+03 -3.41829E+03  2.54919E+03 -4.31427E+03 -4.39607E+02 -3.39404E+03 -2.50020E+03
 -1.21253E+03 -3.11015E+03  1.66174E+02 -2.17474E+03  1.57510E+03 -1.77036E+03  2.19422E+03  6.71338E+02
  1.06056E+03  3.07263E+02  3.45725E+02  1.09027E+03 -3.35639E+02  5.98316E+02  1.99801E+02 -3.53119E+02
  1.58210E+03  2.85801E+02  1.39165E+03  1.31799E+03  7.71921E+02  1.37171E+03  6.35993E+02  1.56656E+03
 -1.54285E+03  1.09821E+03 -1.78896E+03  1.38792E+01 -1.18338E+03 -1.49412E+03  1.89948E+02 -2.16752E+03
  9.20261E+02 -2.32700E+03  2.13234E+03 -5.30826E+02  1.93872E+03 -9.40489E+02  1.47177E+03  1.91761E+03
  4.35232E+02  1.73551E+03 -7.15702E+02  1.43300E+03 -1.41824E+03  9.68713E+02 -1.00860E+03 -7.93504E+01
 -7.45109E+02 -3.85586E+01 -6.04626E+02  2.44695E+02 -1.12328E+03  2.70651E+02 -1.33191E+03 -6.05712E+02
 -1.54709E+03 -6.36892E+02 -1.18397E+02 -1.75430E+03  6.40720E+02 -2.06619E+03  1.72448E+03 -5.68995E+02
  1.54572E+03  1.98163E+02  3.02348E+02  1.29842E+03 -1.30184E+02  1.40186E+03 -1.06045E+03  1.32897E+03
