 $NMID ID='MM_0lb_SNR400_9hz_g40_44.RAW', FMTDAT='(8E13.5)'
 TRAMP=1., VOLUME=1. $END
  3.09547E+05  3.89218E+02  3.38462E+05  2.50690E+05  8.47777E+04  3.39280E+05 -1.32675E+05  2.52289E+05
 -1.90803E+05  8.31891E+04 -1.11609E+05 -3.30050E+04  3.49887E+02 -4.97160E+04  5.32462E+04 -5.54254E+02
  3.60057E+04  5.23905E+04 -1.65642E+04  7.60925E+04 -6.19854E+04  6.39099E+04 -8.47455E+04  3.23153E+04
 -8.24353E+04 -1.14454E+04 -5.73607E+04 -5.20876E+04 -1.47896E+04 -7.00393E+04  2.76170E+04 -4.60423E+04
  4.09303E+04  4.05480E+03  1.77608E+04  4.87756E+04 -3.42835E+04  4.83094E+04 -6.77406E+04 -2.47734E+01
 -5.43977E+04 -5.73628E+04 -6.71746E+03 -7.76696E+04  3.43955E+04 -5.57854E+04  4.91754E+04 -1.75620E+04
  4.45515E+04  1.12988E+04  3.34345E+04  2.61079E+04  1.62288E+04  2.96833E+04 -4.99058E+03  2.82348E+04
 -2.28423E+04  1.19226E+04 -1.75153E+04 -5.30907E+03  6.98103E+03 -7.21622E+03  2.34453E+04  1.28701E+04
  6.84178E+03  3.82708E+04 -3.37747E+04  3.69480E+04 -6.54344E+04  1.03009E+03 -5.79046E+04 -4.42709E+04
 -1.31377E+04 -6.55538E+04  4.12119E+04 -4.68984E+04  6.00029E+04 -2.44054E+03  3.65853E+04  3.43161E+04
 -5.09824E+03  3.87553E+04 -3.09184E+04  1.74219E+04 -3.24796E+04 -2.93061E+03 -1.84457E+04 -1.16891E+04
 -9.40589E+03 -1.45436E+04 -3.75649E+02 -1.92156E+04  7.57153E+03 -2.24607E+04  1.53439E+04 -1.29930E+04
  1.07355E+04  5.84174E+03 -9.43203E+03  1.37036E+04 -2.28757E+04 -6.74410E+03 -8.40626E+03 -3.66480E+04
  2.48705E+04 -4.61418E+04  5.07825E+04 -2.08136E+04  4.75672E+04  2.15180E+04  1.70215E+04  4.73159E+04
 -1.58549E+04  3.54913E+04 -2.72229E+04  2.57046E+03 -1.16786E+04 -2.94383E+04  2.15588E+04 -3.55773E+04
  4.36865E+04 -9.99814E+03  3.94638E+04  2.40501E+04  2.12417E+04  5.04477E+04 -8.19274E+03  5.46511E+04
 -3.48110E+04  3.66573E+04 -4.57807E+04  1.06150E+04 -4.67883E+04 -1.82724E+04 -2.49617E+04 -4.13893E+04
  7.88289E+03 -4.15021E+04  3.36710E+04 -1.65270E+04  3.09798E+04  1.15121E+04  5.34386E+03  2.03527E+04
 -1.30493E+04  9.31236E+03 -1.10736E+04 -8.15067E+03  5.31966E+03 -1.15207E+04  1.84979E+04  5.74983E+03
  1.45780E+04  2.27889E+04 -5.14425E+03  2.64031E+04 -2.33773E+04  1.33236E+04 -3.12680E+04 -2.70502E+03
 -2.53949E+04 -1.80163E+04 -1.09840E+04 -2.32324E+04  4.15261E+03 -2.42711E+04  1.88069E+04 -2.22358E+04
  3.11347E+04 -1.45786E+04  3.66523E+04  4.63553E+03  2.65053E+04  2.25734E+04  3.96253E+03  4.05722E+04
 -1.97220E+04  3.30798E+04 -3.04456E+04  1.16685E+04 -2.16576E+04 -1.00534E+04 -4.23995E+03 -1.17693E+04
  8.27942E+01 -1.26551E+03 -7.68257E+03  7.83858E+03 -1.91088E+04  4.73326E+03 -1.94930E+04 -8.75448E+03
 -1.22161E+04 -2.26493E+04  4.92924E+03 -2.77596E+04  1.74865E+04 -1.92079E+04  2.22928E+04 -2.00842E+03
  1.36303E+04  1.51326E+04 -1.65539E+03  2.30143E+04 -1.60762E+04  1.28676E+04 -2.24628E+04 -4.96199E+03
 -1.67764E+04 -2.07783E+04 -3.08827E+03 -2.73471E+04  1.21278E+04 -2.24983E+04  2.25471E+04 -1.12521E+04
  2.11587E+04  1.02073E+02  1.57930E+04  5.09089E+03  7.86539E+03  1.65094E+03  1.11524E+04 -2.59486E+03
  2.14486E+04  2.74293E+03  2.46902E+04  1.70009E+04  1.65837E+04  3.64967E+04 -2.75934E+03  4.23456E+04
 -2.45167E+04  3.54798E+04 -3.98534E+04  1.76056E+04 -4.28601E+04 -2.97327E+03 -3.54947E+04 -2.52938E+04
 -1.40680E+04 -3.61474E+04  1.20938E+04 -3.09978E+04  2.61141E+04 -1.46830E+04  2.37675E+04  6.70099E+03
  7.96447E+03  1.76555E+04 -1.07912E+04  1.49079E+04 -1.92648E+04  2.48871E+03 -1.49275E+04 -1.19146E+04
 -3.56822E+02 -1.79224E+04  1.02475E+04 -1.35092E+04  1.27367E+04 -2.51148E+03  3.63698E+03  7.78788E+03
 -8.96686E+03  4.01525E+03 -8.85127E+03 -6.54211E+03 -2.06138E+03 -1.64402E+04  1.13810E+04 -1.87003E+04
  2.16110E+04 -9.80121E+03  2.53555E+04  3.03579E+03  2.23467E+04  1.82551E+04  1.02817E+04  2.75563E+04
 -5.64048E+03  2.98774E+04 -1.97381E+04  1.77178E+04 -2.14824E+04  3.41815E+03 -1.54810E+04 -5.49425E+03
 -6.07550E+03 -7.02196E+03 -1.04429E+03  1.07401E+03 -2.93965E+03  3.10268E+03 -7.63979E+03  5.18849E+03
 -1.32325E+04 -1.00843E+03 -1.47097E+04 -1.15618E+04 -5.45941E+03 -1.81182E+04  6.54619E+03 -1.50587E+04
  1.22161E+04 -6.24348E+03  9.55133E+03  3.27693E+03  4.13858E+02  5.72888E+03 -6.97273E+03 -5.16506E+02
 -6.95248E+03 -9.42658E+03 -8.18651E+02 -1.46053E+04  7.72474E+03 -1.59665E+04  1.95659E+04 -8.30797E+03
  2.27480E+04  2.55375E+03  1.65215E+04  1.27642E+04  3.95291E+03  1.80436E+04 -9.68817E+03  1.46746E+04
 -1.20798E+04  4.20814E+03 -6.86363E+03 -2.72048E+03  1.77477E+03 -5.44660E+03  8.52361E+03 -9.84219E+02
  7.80713E+03  5.98125E+03  2.36937E+03  1.29390E+04 -9.29193E+03  1.11597E+04 -1.44996E+04  3.56459E+03
 -9.96201E+03 -8.22617E+03 -1.75359E+02 -1.33147E+04  8.12495E+03 -5.75419E+03  9.38839E+03  3.05237E+03
  1.08282E+03  9.84187E+03 -8.68643E+03  1.07418E+04 -1.25639E+04  4.94586E+03 -1.35631E+04 -5.79071E+03
 -8.05927E+03 -1.50300E+04  3.19398E+03 -1.78255E+04  1.40349E+04 -9.95991E+03  1.59516E+04  3.21719E+03
  9.86860E+03  1.14784E+04 -2.04752E+03  1.50297E+04 -1.12435E+04  7.86439E+03 -1.20703E+04 -1.26235E+03
 -1.07274E+04 -1.01617E+04 -1.46633E+03 -1.16242E+04  6.03230E+03 -9.71552E+03  7.57015E+03 -3.48181E+03
  5.22661E+03  1.44321E+03 -1.42906E+03  1.62457E+03 -7.98572E+02 -3.48506E+03  2.52857E+03 -6.89893E+03
  1.15545E+04 -4.14954E+03  1.49663E+04  1.54052E+03  1.51668E+04  9.88894E+03  1.01932E+04  1.96064E+04
 -4.47864E+03  2.28988E+04 -1.88788E+04  1.62300E+04 -2.44977E+04  3.24749E+03 -1.95005E+04 -8.19928E+03
 -9.95141E+03 -1.62091E+04 -8.97544E+02 -1.35261E+04  5.14520E+03 -7.47323E+03  5.33479E+03 -4.60965E+03
  3.95683E+03 -2.50086E+03  4.05881E+03 -2.77044E+03  6.73006E+03 -3.80276E+03  7.77560E+03 -1.34316E+03
  9.76272E+03  2.69839E+03  6.04818E+03  9.34640E+03 -2.25747E+03  1.12691E+04 -1.05755E+04  7.93937E+03
 -1.33587E+04 -1.62246E+03 -9.36112E+03 -1.03841E+04 -1.00389E+03 -1.44718E+04  8.42704E+03 -1.48637E+04
  1.51821E+04 -7.69513E+03  1.80475E+04  2.91394E+03  1.27146E+04  1.33192E+04  1.71968E+03  1.74114E+04
 -6.85668E+03  1.34904E+04 -1.03519E+04  5.33159E+03 -6.37273E+03 -1.40367E+03 -3.07884E+03 -2.43577E+03
 -1.11939E+03  2.52147E+02 -2.04295E+03  2.42176E+03 -6.33228E+03  1.67377E+03 -9.72599E+03 -1.24133E+03
 -6.62563E+03 -1.06011E+04  8.45664E+02 -1.37091E+04  8.60660E+03 -1.23208E+04  1.41407E+04 -4.04336E+03
  1.39965E+04  7.45765E+03  5.62033E+03  1.19016E+04 -2.60237E+03  1.43594E+04 -9.96415E+03  8.69441E+03
 -1.45099E+04  1.96146E+02 -1.07133E+04 -8.18716E+03  2.40984E+02 -1.16184E+04  6.14612E+03 -9.42294E+03
  9.00685E+03 -2.03416E+03  6.17542E+03  2.36432E+03  2.06722E+03  3.60652E+03  1.76884E+03  1.81088E+03
  2.03622E+03  1.87456E+03  3.40878E+03  1.49092E+03  4.08454E+03  5.47579E+03  3.42783E+03  7.51278E+03
 -2.60838E+03  1.04759E+04 -9.79737E+03  1.08040E+04 -1.37903E+04  2.82303E+03 -1.48223E+04 -5.36052E+03
 -7.07131E+03 -1.40690E+04  1.32590E+03 -1.54472E+04  9.01624E+03 -1.01578E+04  1.14122E+04 -3.03931E+03
  9.41955E+03  5.20837E+03  1.44391E+03  8.19735E+03 -4.00678E+03  4.18011E+03 -5.64863E+03 -1.46074E+03
 -2.81909E+03 -6.46221E+03  3.53100E+03 -6.61251E+03  5.60217E+03 -3.11309E+03  5.41643E+03  1.77665E+03
  2.92665E+03  2.54591E+03  1.21442E+03  2.56307E+03 -8.72853E+02  2.08079E+03  2.88343E+03  1.03051E+02
  2.76095E+03 -5.51863E+01  5.95379E+03  2.37763E+03  3.18898E+03  7.84967E+03 -1.57779E+03  1.01326E+04
 -5.81497E+03  6.51104E+03 -8.68659E+03  1.53147E+03 -7.75026E+03 -3.69784E+03 -2.70554E+03 -5.21245E+03
  2.27741E+02 -5.49830E+03  3.18607E+03 -2.27787E+03  3.13210E+03  2.72415E+03 -1.62936E+03  4.39230E+03
 -5.89695E+03  2.76233E+03 -6.51069E+03 -3.25218E+03 -3.54096E+03 -7.97532E+03  9.44985E+02 -8.06276E+03
  4.90245E+03 -4.60914E+03  5.74213E+03 -3.01025E+01  4.41894E+03  1.40144E+03  1.05718E+03  4.91233E+03
 -2.41813E+03  1.37005E+03 -3.37802E+03 -2.68829E+03  1.85580E+03 -6.22053E+03  7.03916E+03 -4.87700E+03
  8.74409E+03  6.57778E+01  8.43312E+03  5.48097E+03  3.40784E+03  9.39858E+03 -3.75145E+03  8.90490E+03
 -7.98822E+03  3.49435E+03 -7.52598E+03 -1.45333E+03 -4.47940E+03 -6.65452E+03  1.78599E+03 -5.45752E+03
  5.10063E+03 -2.90848E+03  4.34805E+03  3.37550E+03  1.97463E+03  6.08851E+03 -4.83949E+02  4.24595E+03
 -2.51519E+03  3.13625E+03 -2.92396E+03  8.05531E+02 -1.23365E+03  1.11429E+03 -1.93893E+03  2.01350E+03
 -1.59668E+03  3.01801E+03 -6.60371E+03  4.42542E+03 -9.68834E+03 -1.42694E+02 -1.07105E+04 -6.56908E+03
 -6.06901E+03 -1.27484E+04  2.52662E+03 -1.42628E+04  9.06289E+03 -1.12520E+04  1.32288E+04 -4.11171E+03
  1.23328E+04  2.85095E+03  7.35600E+03  8.32802E+03 -1.70824E+02  9.96416E+03 -4.72738E+03  7.45736E+03
 -4.55463E+03  2.31753E+03 -3.80286E+03 -1.72968E+03 -1.50266E+03 -9.78070E+02 -8.84211E+02 -1.09626E+03
 -2.03288E+03  1.96538E+02 -2.39335E+03  3.36393E+02 -3.57774E+02 -1.91866E+03  1.56709E+02 -3.12574E+03
  4.32429E+03 -3.19320E+03  6.65968E+03  7.33068E+02  7.26394E+03  5.43119E+03  7.68382E+02  1.00369E+04
 -4.47262E+03  1.16671E+04 -1.11013E+04  6.36321E+03 -1.21591E+04 -1.38443E+03 -8.90357E+03 -7.37072E+03
 -4.22566E+03 -1.07425E+04  2.66534E+03 -9.18423E+03  5.65775E+03 -5.16753E+03  5.48678E+03  7.23634E+02
  4.31892E+03  2.94759E+03 -3.74693E+02  2.54123E+03 -1.98063E+03  4.54451E+02 -1.01738E+02 -2.08840E+03
  3.13174E+03 -1.62150E+03  4.25930E+03  1.35291E+03  3.04030E+03  3.92816E+03 -3.21062E+02  4.82930E+03
 -4.81202E+03  4.36978E+03 -6.56509E+03 -1.75846E+02 -6.93106E+03 -4.68455E+03 -9.93649E+02 -7.69874E+03
  5.09519E+03 -6.49748E+03  7.84108E+03 -2.47515E+03  7.87562E+03  1.25790E+03  4.58842E+03  5.58627E+03
  9.07783E+02  7.45462E+03 -2.81905E+03  4.97254E+03 -3.44911E+03  2.68718E+03 -3.45599E+03  4.40801E+02
 -1.36630E+03 -9.14508E+00 -2.18550E+03  1.05999E+03 -2.86315E+03  5.03201E+02 -4.70022E+03 -1.98207E+03
 -4.95105E+03 -2.86644E+03 -8.61939E+02 -6.20030E+03  2.21374E+03 -7.88365E+03  5.99569E+03 -3.26793E+03
  6.67098E+03  1.33882E+03  3.91032E+03  4.28854E+03 -4.09810E+02  7.81396E+03 -4.13432E+03  4.93729E+03
