 $NMID ID='MM_0lb_SNR400_7hz_g50_42.RAW', FMTDAT='(8E13.5)'
 TRAMP=1., VOLUME=1. $END
  3.09498E+05  5.97753E+02  3.38309E+05  2.51092E+05  8.45705E+04  3.38668E+05 -1.32849E+05  2.51996E+05
 -1.90559E+05  8.41862E+04 -1.12091E+05 -3.28756E+04 -3.33544E+02 -5.10932E+04  5.37911E+04 -1.24550E+02
  3.56561E+04  5.33136E+04 -1.61218E+04  7.63141E+04 -6.14844E+04  6.43520E+04 -8.62216E+04  3.23285E+04
 -8.29792E+04 -1.18665E+04 -5.87032E+04 -5.23704E+04 -1.51832E+04 -7.18258E+04  2.89063E+04 -4.76112E+04
  4.12377E+04  2.94961E+03  1.60500E+04  4.84772E+04 -3.52085E+04  4.89148E+04 -6.80814E+04  9.35324E+01
 -5.60682E+04 -5.88766E+04 -7.55397E+03 -7.92126E+04  3.42356E+04 -5.80560E+04  4.92589E+04 -1.86890E+04
  4.56092E+04  1.10949E+04  3.30536E+04  2.72864E+04  1.60053E+04  3.04589E+04 -6.22525E+03  2.66168E+04
 -2.29816E+04  1.14743E+04 -1.80081E+04 -5.94109E+03  6.62389E+03 -6.85505E+03  2.38826E+04  1.40178E+04
  6.98162E+03  3.80058E+04 -3.44531E+04  3.78867E+04 -6.61732E+04  1.75574E+03 -5.90848E+04 -4.49540E+04
 -1.19267E+04 -6.63784E+04  4.25902E+04 -4.85991E+04  6.18335E+04 -2.76645E+03  3.73937E+04  3.49344E+04
 -4.91297E+03  4.14777E+04 -3.25663E+04  2.01086E+04 -3.50669E+04 -2.93701E+03 -1.92191E+04 -1.12793E+04
 -9.58401E+03 -1.63884E+04 -2.32391E+02 -2.07593E+04  8.44916E+03 -2.39842E+04  1.69544E+04 -1.19901E+04
  9.90160E+03  7.11421E+03 -1.20151E+04  1.26752E+04 -2.41853E+04 -7.55579E+03 -8.73913E+03 -3.85000E+04
  2.63431E+04 -4.74006E+04  5.40444E+04 -2.18919E+04  5.05875E+04  2.09633E+04  1.77241E+04  4.80263E+04
 -1.73704E+04  3.69916E+04 -2.82372E+04  3.19854E+03 -1.25511E+04 -3.12344E+04  2.09648E+04 -3.90853E+04
  4.65793E+04 -1.27251E+04  4.19793E+04  2.55135E+04  2.25237E+04  5.29202E+04 -7.27397E+03  5.87182E+04
 -3.63515E+04  4.06012E+04 -4.84235E+04  1.10053E+04 -4.96449E+04 -1.86832E+04 -2.79605E+04 -4.38196E+04
  8.01211E+03 -4.34937E+04  3.57234E+04 -1.81962E+04  3.24684E+04  1.07747E+04  5.64031E+03  2.09834E+04
 -1.45234E+04  1.07459E+04 -1.25663E+04 -7.28329E+03  5.44328E+03 -1.11478E+04  1.91353E+04  4.19245E+03
  1.54030E+04  2.34910E+04 -4.83278E+03  2.80261E+04 -2.46143E+04  1.49685E+04 -3.32481E+04 -2.78149E+03
 -2.68239E+04 -1.88095E+04 -1.26108E+04 -2.68292E+04  4.83011E+03 -2.86692E+04  2.11243E+04 -2.64730E+04
  3.45015E+04 -1.37492E+04  4.04793E+04  5.88525E+03  2.82592E+04  2.66720E+04  4.98269E+03  4.34979E+04
 -2.03902E+04  3.61850E+04 -3.18894E+04  1.23815E+04 -2.25249E+04 -9.98214E+03 -4.22685E+03 -1.28620E+04
  2.94658E+02 -3.55321E+02 -9.11659E+03  8.87222E+03 -2.24796E+04  4.54482E+03 -2.14563E+04 -1.00197E+04
 -1.27255E+04 -2.59400E+04  6.96361E+03 -2.98914E+04  2.04917E+04 -2.11405E+04  2.40159E+04 -2.13713E+03
  1.48860E+04  1.71556E+04 -1.42370E+03  2.45670E+04 -1.85792E+04  1.47437E+04 -2.61639E+04 -4.86395E+03
 -1.76246E+04 -2.29845E+04 -1.90622E+03 -3.00523E+04  1.32621E+04 -2.54881E+04  2.47774E+04 -1.41053E+04
  2.41224E+04  1.53083E+02  1.69160E+04  5.66902E+03  1.00414E+04  1.16967E+03  1.32096E+04 -1.74061E+03
  2.52192E+04  1.98599E+03  2.75102E+04  1.98164E+04  1.93733E+04  4.08576E+04 -3.03123E+03  4.83868E+04
 -2.73732E+04  4.05306E+04 -4.58799E+04  2.21513E+04 -4.97413E+04 -3.99474E+03 -4.03235E+04 -2.88913E+04
 -1.45807E+04 -4.19723E+04  1.49455E+04 -3.57546E+04  3.06683E+04 -1.57857E+04  2.65500E+04  9.37700E+03
  9.36835E+03  2.01967E+04 -1.28694E+04  1.73027E+04 -2.17408E+04  3.14121E+03 -1.68267E+04 -1.34901E+04
  7.46846E+01 -2.20298E+04  1.15142E+04 -1.59623E+04  1.45182E+04 -1.64272E+03  3.40654E+03  1.05497E+04
 -9.53581E+03  5.16456E+03 -1.13228E+04 -7.76319E+03 -2.48870E+03 -2.00977E+04  1.26621E+04 -2.25877E+04
  2.63064E+04 -1.27538E+04  2.99622E+04  2.84126E+03  2.61616E+04  2.07537E+04  1.07658E+04  3.29652E+04
 -5.61298E+03  3.57615E+04 -2.36728E+04  2.17049E+04 -2.49608E+04  4.74997E+03 -1.75762E+04 -5.65513E+03
 -6.43796E+03 -8.58402E+03 -1.32029E+03 -3.29583E+02 -3.11248E+03  3.19624E+03 -8.85083E+03  6.80358E+03
 -1.53486E+04 -1.15918E+03 -1.71134E+04 -1.41167E+04 -6.34034E+03 -2.13291E+04  7.34081E+03 -1.81139E+04
  1.35928E+04 -6.29926E+03  1.00834E+04  4.55757E+03 -5.90294E+02  6.69408E+03 -9.26612E+03 -1.06377E+03
 -9.35011E+03 -1.14334E+04 -3.62235E+02 -1.79717E+04  1.09463E+04 -1.82678E+04  2.25732E+04 -1.02837E+04
  2.75755E+04  3.04251E+03  1.97641E+04  1.61836E+04  3.18198E+03  2.18239E+04 -1.09368E+04  1.69616E+04
 -1.41617E+04  5.00535E+03 -8.12330E+03 -3.86943E+03  2.42319E+03 -5.61178E+03  8.84400E+03 -6.62241E+02
  8.70715E+03  8.66148E+03  5.83861E+02  1.50466E+04 -1.13073E+04  1.29578E+04 -1.78109E+04  3.58078E+03
 -1.27397E+04 -9.87837E+03  9.18002E+02 -1.58595E+04  1.14175E+04 -8.53889E+03  1.09218E+04  4.49346E+03
  2.97590E+03  1.15478E+04 -8.98848E+03  1.35460E+04 -1.62131E+04  5.94591E+03 -1.72771E+04 -5.02549E+03
 -9.07642E+03 -1.90073E+04  4.76811E+03 -2.09129E+04  1.89980E+04 -1.33763E+04  2.04571E+04  3.68441E+03
  1.12911E+04  1.57736E+04 -2.15595E+03  1.84245E+04 -1.38461E+04  1.00938E+04 -1.49764E+04 -1.37198E+03
 -1.29917E+04 -1.25632E+04 -2.01147E+03 -1.51542E+04  8.14162E+03 -1.10779E+04  9.65303E+03 -5.06458E+03
  6.32174E+03  3.09633E+03 -1.21213E+03  1.74231E+03 -1.44663E+03 -4.38216E+03  3.61317E+03 -9.55825E+03
  1.44298E+04 -6.58775E+03  2.01307E+04  2.84569E+03  1.89490E+04  1.38100E+04  1.04791E+04  2.53878E+04
 -6.09897E+03  2.87543E+04 -2.39805E+04  2.10293E+04 -3.09420E+04  4.11188E+03 -2.45426E+04 -1.18285E+04
 -1.27287E+04 -2.04949E+04 -5.28697E+02 -1.69206E+04  6.55168E+03 -1.00262E+04  5.83237E+03 -6.87761E+03
  4.34976E+03 -4.35371E+03  3.97780E+03 -3.50877E+03  6.85723E+03 -3.86149E+03  8.84065E+03 -2.70311E+03
  1.27639E+04  2.32126E+03  6.88876E+03  1.12204E+04 -2.31393E+03  1.37346E+04 -1.42928E+04  1.08396E+04
 -1.81122E+04 -1.50101E+03 -1.19994E+04 -1.23579E+04 -1.84524E+03 -1.96719E+04  1.05326E+04 -1.98927E+04
  1.96443E+04 -1.13546E+04  2.37715E+04  4.07316E+03  1.64932E+04  1.74286E+04  2.95361E+03  2.11525E+04
 -1.01923E+04  1.73082E+04 -1.21803E+04  7.03255E+03 -8.85785E+03 -2.03477E+03 -5.53919E+03 -2.75485E+03
 -2.69045E+03 -1.02039E+03 -3.54408E+03  3.13142E+03 -7.57711E+03  2.64358E+03 -1.17520E+04 -2.05369E+03
 -9.87795E+03 -1.27715E+04 -7.00989E+02 -1.82736E+04  1.08687E+04 -1.78206E+04  1.84131E+04 -4.96194E+03
  1.83425E+04  8.43874E+03  8.27359E+03  1.71150E+04 -4.55539E+03  1.75950E+04 -1.23527E+04  1.21257E+04
 -1.78127E+04  1.44229E+03 -1.38871E+04 -1.20648E+04 -1.30066E+03 -1.62302E+04  8.08356E+03 -1.13689E+04
  1.19941E+04 -2.70830E+03  8.52188E+03  3.12850E+03  3.47689E+03  5.25139E+03  1.40563E+03  2.75712E+03
  3.89051E+03  1.21400E+03  4.19193E+03  2.04250E+03  5.39117E+03  6.16666E+03  5.04894E+03  1.02362E+04
 -3.78232E+03  1.48095E+04 -1.35265E+04  1.43463E+04 -2.00142E+04  4.25611E+03 -1.99345E+04 -8.26538E+03
 -1.04906E+04 -1.94109E+04  3.52334E+03 -2.11925E+04  1.19465E+04 -1.26777E+04  1.59885E+04 -3.50274E+03
  1.25805E+04  6.63341E+03  2.52747E+03  1.17342E+04 -5.30573E+03  6.89130E+03 -8.21745E+03 -1.67038E+03
 -2.92929E+03 -9.71124E+03  4.05238E+03 -9.07362E+03  9.25809E+03 -4.33791E+03  8.28883E+03  2.05405E+03
  5.05226E+03  3.81563E+03  1.15555E+03  4.37112E+03 -1.60188E+03  1.36516E+03  2.13648E+03 -5.71463E+02
  4.40469E+03 -1.11501E+03  7.68666E+03  4.07280E+03  4.67240E+03  1.10681E+04 -1.79788E+03  1.27246E+04
 -9.69730E+03  1.10175E+04 -1.25936E+04  2.74583E+03 -1.08436E+04 -5.04800E+03 -5.01207E+03 -7.92288E+03
  4.74556E+02 -8.34193E+03  5.43749E+03 -3.88072E+03  5.37013E+03  3.36849E+03 -1.76762E+03  6.71285E+03
 -8.64091E+03  4.54809E+03 -9.80315E+03 -4.02353E+03 -4.87433E+03 -1.01775E+04  1.78489E+03 -1.11156E+04
  7.14051E+03 -7.67604E+03  8.77193E+03 -1.54949E+03  7.06176E+03  2.77977E+03  1.68439E+03  5.79966E+03
 -4.31782E+03  1.67581E+03 -5.38078E+03 -4.62537E+03  2.03205E+03 -9.08118E+03  1.00039E+04 -7.29319E+03
  1.28554E+04 -2.42850E+02  1.24507E+04  9.26675E+03  3.88029E+03  1.29231E+04 -5.07672E+03  1.27290E+04
 -1.14608E+04  6.33311E+03 -1.06509E+04 -1.61478E+03 -6.26780E+03 -9.28170E+03  1.98030E+03 -8.12434E+03
  8.97563E+03 -4.70644E+03  6.44150E+03  2.97367E+03  2.30720E+03  7.60436E+03 -2.15837E+03  7.54001E+03
 -2.91641E+03  4.19782E+03 -4.04065E+03  1.58960E+03 -2.28835E+03  1.74923E+03 -2.11822E+03  2.16805E+03
 -2.80978E+03  4.63139E+03 -9.51775E+03  4.72101E+03 -1.34389E+04  2.88102E+02 -1.57027E+04 -8.78550E+03
 -8.52455E+03 -1.78909E+04  4.11654E+03 -2.13844E+04  1.42645E+04 -1.69035E+04  1.85443E+04 -6.01598E+03
  1.87484E+04  4.75296E+03  1.18209E+04  1.27363E+04  2.66716E+03  1.43926E+04 -5.90196E+03  1.21332E+04
 -7.86611E+03  3.24888E+03 -5.26259E+03 -1.41860E+03 -1.32045E+03 -1.94062E+03 -7.97743E+02 -6.53262E+02
 -2.46512E+03  5.42698E+02 -3.09965E+03 -1.23538E+03 -1.09092E+03 -3.11254E+03  4.81416E+02 -5.82462E+03
  6.95190E+03 -4.24784E+03  8.57225E+03  7.58206E+01  1.04356E+04  8.94113E+03  2.89245E+03  1.51588E+04
 -7.89820E+03  1.77449E+04 -1.58468E+04  1.07091E+04 -1.83527E+04 -8.23085E+02 -1.34287E+04 -1.07289E+04
 -6.36926E+03 -1.58863E+04  3.29535E+03 -1.40087E+04  9.83529E+03 -8.54517E+03  9.68051E+03  7.20270E+02
  5.73389E+03  4.25825E+03 -1.91360E+02  3.62254E+03 -3.29156E+03  2.66768E+02  5.08261E+02 -5.05310E+03
  5.56135E+03 -2.49200E+03  5.96483E+03  1.38230E+03  5.48230E+03  6.82160E+03  3.09821E+02  8.16775E+03
 -6.27323E+03  6.78545E+03 -1.03122E+04  2.96841E+02 -8.80408E+03 -7.75214E+03 -1.31825E+03 -1.27545E+04
  7.54191E+03 -1.13825E+04  1.21852E+04 -3.06355E+03  1.21926E+04  2.53335E+03  7.66928E+03  9.37276E+03
  1.62358E+03  1.10680E+04 -3.60142E+03  8.64665E+03 -6.94532E+03  5.03503E+03 -5.64069E+03  6.66857E+01
 -2.09835E+03 -1.16679E+03 -3.53832E+03  2.07524E+03 -4.52956E+03  2.36217E+03 -8.02606E+03 -2.85744E+03
 -7.22144E+03 -5.39047E+03 -2.23038E+03 -1.11382E+04  3.82236E+03 -1.05449E+04  8.69409E+03 -6.23312E+03
  1.07045E+04  1.12801E+03  6.83800E+03  8.64919E+03 -1.17028E+03  9.81470E+03 -8.40000E+03  7.08492E+03
