 $NMID ID='MM_0lb_SNR400_8hz_g50_88.RAW', FMTDAT='(8E13.5)'
 TRAMP=1., VOLUME=1. $END
  3.08835E+05 -3.92204E+02  3.37767E+05  2.50598E+05  8.58580E+04  3.38583E+05 -1.32697E+05  2.52089E+05
 -1.90611E+05  8.43530E+04 -1.12850E+05 -3.25503E+04 -1.95929E+02 -5.04971E+04  5.34390E+04 -2.56504E+02
  3.53964E+04  5.26835E+04 -1.64778E+04  7.67306E+04 -6.14856E+04  6.46644E+04 -8.55733E+04  3.25699E+04
 -8.20978E+04 -1.16072E+04 -5.82389E+04 -5.29903E+04 -1.54782E+04 -7.16825E+04  2.88133E+04 -4.78153E+04
  4.21101E+04  3.18711E+03  1.72230E+04  4.88392E+04 -3.41161E+04  4.84874E+04 -6.79640E+04 -5.54703E+02
 -5.52750E+04 -5.74238E+04 -7.48774E+03 -7.99509E+04  3.43362E+04 -5.74885E+04  5.01466E+04 -1.90321E+04
  4.61122E+04  1.12811E+04  3.34831E+04  2.69292E+04  1.55732E+04  3.17386E+04 -6.44743E+03  2.75959E+04
 -2.18945E+04  1.18718E+04 -1.77430E+04 -6.01878E+03  6.65730E+03 -7.33038E+03  2.38149E+04  1.42704E+04
  5.89525E+03  3.76737E+04 -3.45827E+04  3.76627E+04 -6.66673E+04  2.62835E+03 -5.95958E+04 -4.52423E+04
 -1.25074E+04 -6.62368E+04  4.16200E+04 -4.69543E+04  6.17685E+04 -2.35435E+03  3.80719E+04  3.40326E+04
 -5.42507E+03  4.03946E+04 -3.16723E+04  1.92307E+04 -3.33660E+04 -3.45665E+03 -2.01975E+04 -1.20383E+04
 -1.06423E+04 -1.55244E+04 -1.47665E+02 -2.03059E+04  8.44256E+03 -2.36473E+04  1.60508E+04 -1.21050E+04
  9.68480E+03  6.49979E+03 -1.19623E+04  1.26790E+04 -2.31016E+04 -6.64945E+03 -8.40420E+03 -3.71251E+04
  2.56609E+04 -4.71934E+04  5.30751E+04 -2.10950E+04  4.98752E+04  2.16539E+04  1.82843E+04  4.87349E+04
 -1.54277E+04  3.70112E+04 -2.91313E+04  3.43907E+03 -1.15027E+04 -3.00574E+04  2.23728E+04 -3.79385E+04
  4.61836E+04 -1.12752E+04  4.12871E+04  2.53251E+04  2.18851E+04  5.18765E+04 -8.54786E+03  5.80805E+04
 -3.63936E+04  3.93549E+04 -4.82547E+04  1.12514E+04 -4.93331E+04 -1.87442E+04 -2.59904E+04 -4.30705E+04
  7.47721E+03 -4.22857E+04  3.46340E+04 -1.79647E+04  3.27120E+04  1.10936E+04  6.02601E+03  2.14059E+04
 -1.38659E+04  1.00451E+04 -1.18658E+04 -7.99132E+03  5.44051E+03 -1.12843E+04  1.87481E+04  5.20045E+03
  1.54577E+04  2.20975E+04 -5.47991E+03  2.77231E+04 -2.35335E+04  1.58549E+04 -3.19815E+04 -2.98935E+03
 -2.77717E+04 -1.93152E+04 -1.25391E+04 -2.67532E+04  4.61235E+03 -2.65569E+04  2.06020E+04 -2.49263E+04
  3.40715E+04 -1.49645E+04  3.99130E+04  4.83441E+03  2.70668E+04  2.59450E+04  4.16808E+03  4.22023E+04
 -2.02852E+04  3.42883E+04 -3.15957E+04  1.20874E+04 -2.20168E+04 -1.07401E+04 -5.42573E+03 -1.29651E+04
 -2.70131E+02 -1.47897E+03 -8.39820E+03  9.08875E+03 -2.11047E+04  4.36032E+03 -2.14734E+04 -1.04638E+04
 -1.17950E+04 -2.39328E+04  6.78271E+03 -2.89955E+04  1.93681E+04 -1.95380E+04  2.32221E+04 -1.43148E+03
  1.52005E+04  1.68085E+04 -2.19959E+03  2.50865E+04 -1.74134E+04  1.40435E+04 -2.49907E+04 -5.13878E+03
 -1.87085E+04 -2.17144E+04 -2.31086E+03 -2.87820E+04  1.27790E+04 -2.40193E+04  2.43123E+04 -1.27966E+04
  2.22184E+04 -3.97092E+02  1.70510E+04  5.39497E+03  9.09345E+03  6.92564E+02  1.35672E+04 -2.46966E+03
  2.29856E+04  3.03294E+03  2.61037E+04  1.84037E+04  1.83793E+04  3.99082E+04 -2.10870E+03  4.72109E+04
 -2.53868E+04  3.90149E+04 -4.41387E+04  2.00916E+04 -4.65086E+04 -3.33363E+03 -3.83382E+04 -2.77914E+04
 -1.42721E+04 -3.86668E+04  1.32044E+04 -3.35985E+04  2.86316E+04 -1.60978E+04  2.54033E+04  9.44529E+03
  7.94435E+03  1.95936E+04 -1.17730E+04  1.57192E+04 -2.05203E+04  2.76419E+03 -1.65459E+04 -1.28889E+04
 -7.50619E+02 -2.03234E+04  1.11728E+04 -1.52479E+04  1.45201E+04 -9.10163E+02  4.02134E+03  9.41376E+03
 -8.79928E+03  5.23811E+03 -1.01178E+04 -6.88875E+03 -2.60182E+03 -1.86615E+04  1.19185E+04 -2.09259E+04
  2.43650E+04 -1.13259E+04  2.80636E+04  3.06953E+03  2.45527E+04  1.97428E+04  1.10114E+04  3.08486E+04
 -5.37677E+03  3.27561E+04 -2.15339E+04  2.02018E+04 -2.30435E+04  4.14527E+03 -1.59184E+04 -5.88544E+03
 -6.56852E+03 -8.35859E+03 -5.20660E+02 -6.51147E+02 -3.04593E+03  3.89169E+03 -7.83909E+03  5.58851E+03
 -1.54452E+04 -1.46402E+03 -1.57494E+04 -1.34147E+04 -6.22083E+03 -1.96313E+04  5.92805E+03 -1.67476E+04
  1.40949E+04 -8.21217E+03  9.16094E+03  4.77018E+03 -5.51370E+02  6.79635E+03 -9.31278E+03  1.40298E+02
 -7.93746E+03 -1.08356E+04 -1.60901E+03 -1.67383E+04  1.01508E+04 -1.79276E+04  2.18982E+04 -9.47018E+03
  2.50860E+04  3.36444E+03  1.85847E+04  1.48193E+04  3.69355E+03  2.00523E+04 -1.01364E+04  1.69181E+04
 -1.32218E+04  4.76908E+03 -7.93944E+03 -2.72444E+03  2.37067E+03 -4.77559E+03  9.04677E+03 -1.00445E+03
  8.86244E+03  7.13376E+03  1.11871E+03  1.40160E+04 -1.04536E+04  1.25768E+04 -1.60407E+04  3.28768E+03
 -1.20726E+04 -8.94111E+03  4.65702E+02 -1.34273E+04  9.14613E+03 -6.88274E+03  1.06128E+04  4.43622E+03
  3.12612E+03  1.06336E+04 -8.91284E+03  1.21766E+04 -1.57635E+04  5.38097E+03 -1.49122E+04 -5.72527E+03
 -9.13153E+03 -1.72236E+04  4.39529E+03 -2.00944E+04  1.73081E+04 -1.10150E+04  1.90196E+04  2.25358E+03
  1.06736E+04  1.35459E+04 -1.93344E+03  1.65844E+04 -1.32618E+04  9.91674E+03 -1.44736E+04 -1.55313E+03
 -1.13245E+04 -1.10602E+04 -1.11160E+03 -1.32229E+04  6.72221E+03 -1.06101E+04  8.15041E+03 -3.67712E+03
  5.17427E+03  2.10012E+03 -1.42603E+03  2.24106E+03 -9.38632E+02 -4.46616E+03  3.06303E+03 -8.31634E+03
  1.28410E+04 -5.27168E+03  1.70354E+04  2.01165E+03  1.74733E+04  1.18200E+04  1.01777E+04  2.31934E+04
 -4.31811E+03  2.67631E+04 -2.21734E+04  1.99164E+04 -2.80940E+04  3.49462E+03 -2.33445E+04 -1.01256E+04
 -1.10871E+04 -1.89961E+04 -8.50604E+02 -1.59515E+04  5.72073E+03 -9.19491E+03  5.87461E+03 -6.01110E+03
  4.40212E+03 -2.95116E+03  4.13015E+03 -4.17289E+03  5.65985E+03 -3.09295E+03  7.65290E+03 -2.02160E+03
  1.17258E+04  2.93550E+03  5.95802E+03  1.09583E+04 -2.75499E+03  1.25282E+04 -1.30905E+04  9.61470E+03
 -1.63028E+04 -1.71699E+03 -1.09604E+04 -1.15759E+04 -1.77277E+03 -1.68417E+04  9.92851E+03 -1.78485E+04
  1.85642E+04 -9.56398E+03  2.06186E+04  2.39370E+03  1.50156E+04  1.48935E+04  2.10265E+03  2.04668E+04
 -8.34594E+03  1.55977E+04 -1.14491E+04  5.15418E+03 -7.88414E+03 -2.23330E+03 -3.83341E+03 -2.27394E+03
 -2.23614E+03 -6.29676E+02 -2.71749E+03  3.65307E+03 -6.31233E+03  1.96233E+03 -1.12909E+04 -8.40932E+02
 -8.84166E+03 -1.04959E+04  2.21474E+02 -1.64694E+04  1.06786E+04 -1.42001E+04  1.71251E+04 -5.74676E+03
  1.67927E+04  7.10954E+03  7.73782E+03  1.54909E+04 -3.46379E+03  1.67318E+04 -1.22941E+04  9.60864E+03
 -1.57115E+04  6.58743E+02 -1.27619E+04 -9.64790E+03 -1.56688E+03 -1.40781E+04  6.52196E+03 -9.94381E+03
  9.50907E+03 -2.84825E+03  7.39142E+03  2.81943E+03  1.94529E+03  4.92727E+03  9.48276E+02  1.98818E+03
  2.82467E+03  1.23723E+03  4.43932E+03  2.44933E+03  6.37514E+03  5.75482E+03  4.30684E+03  9.52815E+03
 -3.90223E+03  1.32933E+04 -1.19388E+04  1.29220E+04 -1.74688E+04  3.85495E+03 -1.95906E+04 -7.76128E+03
 -9.57493E+03 -1.84319E+04  2.59859E+03 -1.84631E+04  1.02695E+04 -1.21252E+04  1.37931E+04 -2.44832E+03
  1.06986E+04  6.97272E+03  2.35459E+03  9.19978E+03 -5.44236E+03  6.17569E+03 -7.40490E+03 -1.08432E+03
 -3.66486E+03 -7.22507E+03  4.16803E+03 -7.28232E+03  7.98348E+03 -3.44358E+03  7.70765E+03  1.96682E+03
  3.44041E+03  2.90176E+03  2.29051E+03  3.14070E+03 -9.79532E+02  2.82493E+03  1.70561E+03 -7.20034E+02
  3.79251E+03 -7.78453E+02  7.49453E+03  2.75241E+03  4.46514E+03  1.00931E+04 -1.09037E+03  1.18645E+04
 -7.63130E+03  8.30461E+03 -1.07150E+04  2.67761E+03 -1.01424E+04 -3.93870E+03 -4.44564E+03 -6.07822E+03
  1.06124E+03 -6.56290E+03  4.91254E+03 -3.19948E+03  2.96396E+03  3.83990E+03 -1.74459E+03  5.88400E+03
 -8.05025E+03  3.59818E+03 -8.31222E+03 -3.87002E+03 -5.11169E+03 -9.60884E+03  1.69014E+03 -9.80917E+03
  6.11906E+03 -6.52079E+03  6.58913E+03 -4.64915E+02  6.60675E+03  2.97499E+03  1.27973E+03  5.68043E+03
 -3.14385E+03  2.51536E+03 -4.09999E+03 -3.45206E+03  1.90485E+03 -7.97943E+03  9.21812E+03 -6.25722E+03
  1.17982E+04 -1.47129E+02  1.12281E+04  8.54221E+03  3.18731E+03  1.23303E+04 -3.88758E+03  1.09561E+04
 -9.55601E+03  4.62592E+03 -9.66362E+03 -1.34128E+03 -5.69862E+03 -8.16892E+03  1.98922E+03 -7.59822E+03
  6.81831E+03 -3.58824E+03  6.74695E+03  2.50053E+03  2.74580E+03  6.85759E+03 -1.09776E+03  5.13218E+03
 -3.05273E+03  4.07387E+03 -2.15872E+03  1.54870E+03 -9.93985E+02  1.13675E+03 -1.88133E+03  2.44331E+03
 -3.18526E+03  5.43935E+03 -7.86112E+03  4.63726E+03 -1.13579E+04 -2.45960E+02 -1.42313E+04 -8.45198E+03
 -7.41005E+03 -1.52874E+04  2.81915E+03 -1.87125E+04  1.19267E+04 -1.42151E+04  1.81012E+04 -4.91954E+03
  1.61606E+04  3.59740E+03  9.91363E+03  1.09597E+04  7.99360E+02  1.30015E+04 -4.57362E+03  9.44792E+03
 -6.49155E+03  3.17299E+03 -3.81571E+03 -1.57527E+03 -1.21335E+03 -1.74094E+03 -5.55996E+02  6.07851E+02
 -1.23242E+03  7.17818E+02 -2.55423E+03 -1.03811E+03 -1.01281E+03 -2.91634E+03  1.09502E+03 -4.77194E+03
  5.46739E+03 -4.58676E+03  7.63337E+03 -6.37668E+02  8.79288E+03  7.39093E+03  2.79274E+03  1.27919E+04
 -6.22056E+03  1.40475E+04 -1.32101E+04  8.00734E+03 -1.53858E+04 -1.45967E+03 -1.19349E+04 -8.84928E+03
 -5.11400E+03 -1.32783E+04  3.91061E+03 -1.19388E+04  7.99308E+03 -6.82644E+03  8.41653E+03  8.52552E+02
  4.52576E+03  3.02668E+03 -5.07724E+01  2.68987E+03 -1.54671E+03  7.27444E+02  1.02551E+03 -3.01357E+03
  4.23072E+03 -1.58421E+03  5.31771E+03  2.01410E+03  3.46752E+03  5.64084E+03  3.95807E+02  7.85420E+03
 -5.49677E+03  6.23059E+03 -8.86928E+03  9.95911E+02 -7.48240E+03 -5.31196E+03 -1.38152E+03 -1.10130E+04
  6.15800E+03 -8.97302E+03  9.74112E+03 -3.47745E+03  9.88004E+03  1.63386E+03  6.07230E+03  7.46411E+03
  1.73164E+03  7.85172E+03 -3.17740E+03  6.66054E+03 -4.94452E+03  4.11343E+03 -4.94676E+03  4.04431E+02
 -2.33551E+03 -9.11843E+02 -1.72250E+03  1.46940E+03 -4.47391E+03  1.39698E+03 -6.21886E+03 -5.33950E+02
 -5.78259E+03 -4.54871E+03 -1.85751E+03 -7.68858E+03  4.22735E+03 -8.77608E+03  7.76916E+03 -4.26493E+03
  8.46995E+03  1.03023E+03  5.64583E+03  6.30305E+03 -1.64039E+03  7.58922E+03 -7.26748E+03  5.22784E+03
