 $NMID ID='MM_0lb_SNR400_12hz_g60_51.RAW', FMTDAT='(8E13.5)'
 TRAMP=1., VOLUME=1. $END
  3.09778E+05  5.23849E+02  3.37960E+05  2.50812E+05  8.51867E+04  3.37711E+05 -1.32836E+05  2.52143E+05
 -1.90432E+05  8.34791E+04 -1.12311E+05 -3.25016E+04  3.28144E+02 -5.07018E+04  5.37300E+04 -2.32456E+02
  3.56853E+04  5.29442E+04 -1.71089E+04  7.66088E+04 -6.11958E+04  6.37147E+04 -8.46241E+04  3.24860E+04
 -8.16646E+04 -1.20623E+04 -5.78838E+04 -5.24576E+04 -1.45264E+04 -7.00393E+04  2.80757E+04 -4.69021E+04
  4.08359E+04  3.93206E+03  1.70133E+04  4.92332E+04 -3.55092E+04  4.83421E+04 -6.69814E+04 -1.31951E+02
 -5.37802E+04 -5.79626E+04 -6.58686E+03 -7.90723E+04  3.47891E+04 -5.68256E+04  4.93272E+04 -1.82271E+04
  4.46893E+04  1.12505E+04  3.27803E+04  2.62381E+04  1.65807E+04  3.05287E+04 -5.37521E+03  2.79665E+04
 -2.20850E+04  1.21440E+04 -1.78860E+04 -5.62634E+03  6.80021E+03 -7.33763E+03  2.33824E+04  1.34947E+04
  7.65674E+03  3.71160E+04 -3.33151E+04  3.59847E+04 -6.53219E+04  1.90738E+03 -5.87561E+04 -4.41879E+04
 -1.27805E+04 -6.48400E+04  4.06253E+04 -4.71741E+04  5.97116E+04 -2.61001E+03  3.57156E+04  3.34681E+04
 -5.60127E+03  3.93434E+04 -3.09040E+04  1.80645E+04 -3.29271E+04 -3.82367E+03 -1.83741E+04 -1.22738E+04
 -8.95795E+03 -1.46452E+04 -4.05522E+02 -1.92924E+04  8.53952E+03 -2.36772E+04  1.58066E+04 -1.22488E+04
  1.01144E+04  5.68489E+03 -9.96802E+03  1.30811E+04 -2.19826E+04 -5.38932E+03 -8.45209E+03 -3.61945E+04
  2.41409E+04 -4.64532E+04  5.01475E+04 -2.01539E+04  4.74820E+04  2.06212E+04  1.66324E+04  4.64966E+04
 -1.62491E+04  3.62804E+04 -2.75591E+04  1.72186E+03 -1.07431E+04 -2.90471E+04  2.19872E+04 -3.62773E+04
  4.37308E+04 -9.84382E+03  3.86111E+04  2.44358E+04  2.03447E+04  4.91371E+04 -8.04656E+03  5.43670E+04
 -3.52126E+04  3.65444E+04 -4.60847E+04  1.10460E+04 -4.65757E+04 -1.78993E+04 -2.59110E+04 -4.07880E+04
  7.83806E+03 -4.06619E+04  3.34411E+04 -1.57941E+04  3.07380E+04  1.17107E+04  4.51942E+03  2.05152E+04
 -1.33739E+04  9.16070E+03 -1.06057E+04 -7.26987E+03  5.79645E+03 -1.11952E+04  1.85397E+04  5.08733E+03
  1.41767E+04  2.27096E+04 -6.16369E+03  2.65685E+04 -2.25833E+04  1.31369E+04 -3.04061E+04 -3.62558E+03
 -2.36050E+04 -1.75595E+04 -1.04811E+04 -2.38047E+04  3.64246E+03 -2.34364E+04  1.88812E+04 -2.08146E+04
  3.02291E+04 -1.38151E+04  3.64096E+04  4.50226E+03  2.62631E+04  2.35591E+04  5.72303E+03  3.88005E+04
 -1.90404E+04  3.29364E+04 -2.89495E+04  1.11557E+04 -2.21418E+04 -1.03376E+04 -5.58851E+03 -1.32305E+04
  1.39785E+03 -1.97284E+03 -6.13391E+03  7.41795E+03 -1.90003E+04  5.44030E+03 -1.89263E+04 -9.29997E+03
 -1.19661E+04 -2.10376E+04  6.09209E+03 -2.55639E+04  1.77130E+04 -1.82206E+04  2.08476E+04 -1.75219E+03
  1.32168E+04  1.49660E+04 -1.63950E+03  2.11952E+04 -1.45652E+04  1.25616E+04 -2.17859E+04 -4.43715E+03
 -1.53936E+04 -1.93236E+04 -2.05003E+03 -2.61175E+04  1.18945E+04 -2.14741E+04  2.12431E+04 -1.13996E+04
  2.07553E+04  1.65635E+01  1.45297E+04  4.64839E+03  8.20378E+03  7.39779E+02  1.10073E+04 -2.09263E+03
  2.04700E+04  2.23514E+03  2.30518E+04  1.73142E+04  1.57299E+04  3.55539E+04 -1.52261E+03  4.00002E+04
 -2.31679E+04  3.33815E+04 -3.76548E+04  1.73165E+04 -4.01606E+04 -2.83606E+03 -3.29074E+04 -2.40607E+04
 -1.32910E+04 -3.34688E+04  1.13259E+04 -3.02670E+04  2.57838E+04 -1.52826E+04  2.23301E+04  7.25418E+03
  7.75964E+03  1.64558E+04 -1.07226E+04  1.43963E+04 -1.87188E+04  2.68262E+03 -1.43443E+04 -1.15271E+04
 -8.26416E+02 -1.86385E+04  9.66480E+03 -1.29979E+04  1.20229E+04 -1.07237E+03  2.88552E+03  7.93480E+03
 -7.80320E+03  4.03579E+03 -8.04739E+03 -6.21577E+03 -1.46570E+03 -1.65563E+04  1.10116E+04 -1.75894E+04
  2.01876E+04 -1.00095E+04  2.27056E+04  3.44467E+03  1.95245E+04  1.62561E+04  9.30267E+03  2.59464E+04
 -4.14063E+03  2.71387E+04 -1.82586E+04  1.70538E+04 -1.97976E+04  3.64595E+03 -1.33369E+04 -4.29100E+03
 -5.91414E+03 -5.82802E+03 -4.23504E+02  4.23781E+02 -2.83062E+03  3.33197E+03 -6.24666E+03  4.84624E+03
 -1.26990E+04 -7.12794E+02 -1.40564E+04 -1.06929E+04 -5.21719E+03 -1.70346E+04  5.32027E+03 -1.36154E+04
  1.18676E+04 -5.94385E+03  7.85917E+03  3.43402E+03 -2.53884E+02  5.69876E+03 -6.80260E+03  9.37600E+01
 -5.53684E+03 -8.78101E+03 -6.87307E+02 -1.32563E+04  7.52784E+03 -1.41309E+04  1.73341E+04 -8.29908E+03
  2.03063E+04  1.43083E+03  1.44869E+04  1.20544E+04  2.74186E+03  1.56549E+04 -8.13461E+03  1.37753E+04
 -1.14164E+04  4.42361E+03 -6.09562E+03 -2.73435E+03  1.73252E+03 -3.37227E+03  7.65419E+03 -7.11311E+02
  6.51455E+03  6.81045E+03  9.99011E+02  1.07523E+04 -7.52820E+03  1.04900E+04 -1.30903E+04  2.06668E+03
 -9.28239E+03 -7.52164E+03 -4.17590E+01 -1.11947E+04  7.49388E+03 -6.37303E+03  7.11456E+03  2.74669E+03
  1.54574E+03  8.39502E+03 -7.26967E+03  9.24678E+03 -1.15551E+04  4.50691E+03 -1.05775E+04 -4.25356E+03
 -6.23314E+03 -1.29254E+04  3.44080E+03 -1.52547E+04  1.27671E+04 -8.18479E+03  1.36357E+04  2.30719E+03
  8.74034E+03  1.05683E+04 -1.58098E+03  1.31414E+04 -9.70553E+03  7.97512E+03 -1.05331E+04 -1.57574E+03
 -8.89525E+03 -9.29863E+03 -1.53964E+03 -9.86573E+03  5.37112E+03 -7.78709E+03  6.24346E+03 -3.49482E+03
  4.62724E+03  1.61674E+03 -2.79338E+02  1.31002E+03 -5.81347E+01 -2.68677E+03  1.97801E+03 -5.98265E+03
  9.21416E+03 -3.95255E+03  1.30324E+04  1.65014E+03  1.28490E+04  8.27786E+03  8.69787E+03  1.70156E+04
 -4.14167E+03  1.86050E+04 -1.58287E+04  1.39114E+04 -2.12775E+04  3.06866E+03 -1.72703E+04 -7.58243E+03
 -8.38615E+03 -1.37480E+04 -7.49332E+02 -1.14615E+04  3.85579E+03 -6.08308E+03  4.57221E+03 -4.50763E+03
  2.83972E+03 -2.91757E+03  2.73461E+03 -4.03167E+03  5.08300E+03 -2.87810E+03  6.68050E+03 -6.91154E+02
  9.41189E+03  1.66253E+03  3.69873E+03  6.69891E+03 -2.17090E+03  8.25990E+03 -9.62749E+03  5.76450E+03
 -1.14753E+04 -7.69418E+02 -6.92893E+03 -7.76885E+03 -1.32011E+03 -1.23383E+04  7.00387E+03 -1.20624E+04
  1.30148E+04 -6.73591E+03  1.56288E+04  1.56792E+03  1.04443E+04  1.12270E+04  2.21289E+03  1.42468E+04
 -5.33780E+03  1.13621E+04 -7.93800E+03  4.52353E+03 -5.23505E+03 -1.64101E+03 -2.16030E+03 -1.94739E+03
 -8.78395E+02 -8.38062E+02 -1.89665E+03  2.11707E+03 -4.88562E+03  2.15351E+03 -8.38614E+03 -1.45386E+03
 -5.48446E+03 -7.80063E+03  1.17730E+02 -1.11803E+04  6.85625E+03 -9.29151E+03  1.15017E+04 -2.93359E+03
  1.12455E+04  5.95654E+03  5.31434E+03  9.73886E+03 -2.93685E+03  1.12151E+04 -7.99531E+03  6.67553E+03
 -1.01396E+04  4.50673E+02 -7.36787E+03 -6.72336E+03 -7.40267E+02 -9.05096E+03  4.27890E+03 -6.17202E+03
  6.98222E+03 -3.23015E+03  4.83674E+03  1.00884E+03  1.49562E+03  2.84146E+03  1.21022E+03  1.11945E+03
  2.28463E+03  7.38848E+02  2.65557E+03  1.70197E+03  2.91043E+03  4.03016E+03  2.67115E+03  5.70506E+03
 -2.99768E+03  8.54524E+03 -7.93260E+03  9.79890E+03 -1.08676E+04  2.18726E+03 -1.11993E+04 -4.81906E+03
 -4.93535E+03 -1.04981E+04  9.11716E+02 -1.22869E+04  6.41342E+03 -7.44133E+03  8.39400E+03 -1.75352E+03
  6.93227E+03  4.06214E+03  1.27976E+03  6.57622E+03 -2.65529E+03  3.89068E+03 -3.94549E+03 -8.00357E+02
 -2.53377E+03 -4.52203E+03  2.66012E+03 -4.90043E+03  4.81303E+03 -2.68459E+03  3.93613E+03  1.13202E+03
  2.46110E+03  1.87249E+03  9.24976E+02  1.20212E+03 -2.16238E+02  1.80667E+03  1.67443E+03 -2.28694E+00
  1.54668E+03 -6.86852E+02  4.05483E+03  2.00649E+03  2.47881E+03  5.75779E+03 -6.72945E+02  7.96931E+03
 -4.73227E+03  4.93684E+03 -7.18358E+03  1.22650E+03 -6.17546E+03 -2.62665E+03 -1.77137E+03 -3.81840E+03
  1.46721E+01 -4.01485E+03  2.50274E+03 -1.48462E+03  1.59408E+03  2.36473E+03 -9.31171E+02  3.11192E+03
 -3.20586E+03  2.09932E+03 -4.77308E+03 -3.32080E+03 -3.06939E+03 -6.31806E+03 -6.92255E+01 -5.90328E+03
  3.72896E+03 -3.31522E+03  4.49737E+03 -2.64386E+02  3.82578E+03  1.39429E+03  1.70644E+03  3.28510E+03
 -2.04557E+03  2.29473E+01 -3.30252E+03 -2.05209E+03  9.39140E+02 -4.28922E+03  4.76567E+03 -3.61612E+03
  6.05480E+03  6.45920E+02  6.58913E+03  4.55646E+03  2.65447E+03  7.23443E+03 -2.64486E+03  6.31597E+03
 -5.49697E+03  2.66360E+03 -5.58438E+03 -4.75784E+02 -3.45766E+03 -4.55015E+03  1.03473E+03 -4.29502E+03
  5.21110E+03 -1.77406E+03  3.29652E+03  1.50120E+03  1.11405E+03  3.61487E+03 -5.43958E+02  3.34154E+03
 -1.66473E+03  2.12993E+03 -1.84314E+03  6.96114E+02 -2.96540E+02  1.63039E+02 -1.13224E+01  5.44598E+02
 -2.22442E+03  3.01811E+03 -4.18284E+03  1.55867E+03 -7.06342E+03  3.43715E+02 -7.68691E+03 -3.99334E+03
 -3.90540E+03 -9.18258E+03  2.03085E+03 -1.01536E+04  5.71573E+03 -7.45281E+03  8.64413E+03 -3.46240E+03
  8.40922E+03  1.30539E+03  5.23830E+03  6.12710E+03 -3.15716E+02  6.53347E+03 -2.18308E+03  4.76539E+03
 -3.81570E+03  1.65471E+03 -2.37213E+03 -1.27122E+03 -1.33584E+03 -2.42546E+02 -4.87498E+02 -3.40350E+02
 -1.61167E+03  5.88915E+02 -2.16992E+03 -5.50090E+02  1.69166E+02 -1.33133E+03  2.79518E+01 -2.91982E+03
  3.12778E+03 -2.15017E+03  3.48308E+03 -1.94338E+02  4.73437E+03  3.49859E+03  1.27543E+03  6.48315E+03
 -3.18534E+03  7.15596E+03 -6.63473E+03  4.18413E+03 -7.24629E+03 -6.32674E+02 -5.26183E+03 -4.86109E+03
 -2.57205E+03 -6.26735E+03  2.05069E+03 -5.33362E+03  4.14909E+03 -3.33975E+03  4.17288E+03  9.80734E+01
  2.40715E+03  2.05900E+03 -2.43504E+02  1.67100E+03 -1.02445E+03 -4.58396E+02 -3.22561E+01 -1.76422E+03
  1.46826E+03 -2.70078E+02  2.04281E+03  5.26568E+02  1.10095E+03  2.36066E+03  2.20360E+02  3.24164E+03
 -2.46899E+03  2.69976E+03 -3.86104E+03  2.14267E+02 -3.70185E+03 -3.54122E+03 -1.26069E+03 -5.15450E+03
  2.98710E+03 -3.70349E+03  4.54090E+03 -5.85963E+02  4.47330E+03  7.04422E+02  2.46535E+03  4.02655E+03
  4.44314E+02  3.88938E+03 -1.87323E+03  3.00721E+03 -2.14358E+03  1.72764E+03 -1.75726E+03  9.03644E+01
 -7.53087E+02 -6.97960E+02 -1.03831E+03  6.87384E+02 -1.76559E+03  6.66622E+02 -3.21163E+03 -8.21089E+02
 -2.53271E+03 -1.46531E+03 -7.39391E+02 -3.73115E+03  2.14076E+03 -4.35846E+03  4.07022E+03 -1.78116E+03
  4.25668E+03  8.33509E+02  1.78326E+03  1.82557E+03 -9.63285E+02  3.63207E+03 -2.66691E+03  2.14678E+03
