 $NMID ID='MM_0lb_SNR400_10hz_g60_51.RAW', FMTDAT='(8E13.5)'
 TRAMP=1., VOLUME=1. $END
  3.09060E+05  1.16572E+03  3.37440E+05  2.51038E+05  8.46577E+04  3.38347E+05 -1.32742E+05  2.52075E+05
 -1.91087E+05  8.46378E+04 -1.13188E+05 -3.29187E+04 -6.84942E+01 -5.14840E+04  5.37929E+04 -1.03269E+03
  3.56008E+04  5.31378E+04 -1.62049E+04  7.53538E+04 -6.08222E+04  6.46521E+04 -8.55118E+04  3.19238E+04
 -8.17987E+04 -1.21704E+04 -5.85282E+04 -5.25298E+04 -1.46536E+04 -7.06674E+04  2.84997E+04 -4.67789E+04
  4.06878E+04  3.50071E+03  1.66853E+04  4.92751E+04 -3.47899E+04  4.85004E+04 -6.81749E+04  3.17703E+02
 -5.51814E+04 -5.76450E+04 -7.07122E+03 -7.93990E+04  3.48964E+04 -5.69099E+04  4.95815E+04 -1.82616E+04
  4.51972E+04  1.14966E+04  3.38058E+04  2.69827E+04  1.58782E+04  3.06732E+04 -6.15689E+03  2.76650E+04
 -2.22031E+04  1.18218E+04 -1.70049E+04 -5.47113E+03  6.27255E+03 -6.78259E+03  2.28317E+04  1.37106E+04
  7.21940E+03  3.86841E+04 -3.37596E+04  3.69960E+04 -6.61708E+04  2.37939E+03 -5.86055E+04 -4.37080E+04
 -1.26755E+04 -6.62483E+04  4.17121E+04 -4.74990E+04  6.12086E+04 -2.34629E+03  3.75477E+04  3.50045E+04
 -6.53850E+03  3.89855E+04 -3.21291E+04  1.94137E+04 -3.38199E+04 -3.80225E+03 -1.91733E+04 -1.21914E+04
 -9.35396E+03 -1.51896E+04 -5.28907E+02 -1.94887E+04  9.10209E+03 -2.41860E+04  1.62655E+04 -1.18021E+04
  1.06827E+04  6.26662E+03 -1.12240E+04  1.31193E+04 -2.35731E+04 -6.79817E+03 -8.68816E+03 -3.74233E+04
  2.48684E+04 -4.70542E+04  5.20464E+04 -2.11089E+04  4.90854E+04  2.11446E+04  1.79495E+04  4.72862E+04
 -1.68707E+04  3.61199E+04 -2.78661E+04  2.54191E+03 -1.15814E+04 -2.95554E+04  2.23283E+04 -3.73673E+04
  4.50946E+04 -1.09214E+04  4.11498E+04  2.53833E+04  2.11351E+04  5.08947E+04 -7.96594E+03  5.59966E+04
 -3.56417E+04  3.87777E+04 -4.78087E+04  1.04127E+04 -4.72711E+04 -1.94527E+04 -2.64338E+04 -4.28576E+04
  6.93837E+03 -4.19443E+04  3.46074E+04 -1.73025E+04  3.23038E+04  1.14593E+04  5.26015E+03  2.10922E+04
 -1.41059E+04  9.64615E+03 -1.12208E+04 -8.31673E+03  4.92736E+03 -1.03710E+04  1.91088E+04  5.44600E+03
  1.44737E+04  2.25063E+04 -5.61343E+03  2.73253E+04 -2.39132E+04  1.40352E+04 -3.15020E+04 -2.96000E+03
 -2.59835E+04 -1.88652E+04 -1.15647E+04 -2.51340E+04  4.50247E+03 -2.59841E+04  2.03464E+04 -2.36752E+04
  3.27544E+04 -1.48386E+04  3.80963E+04  4.73616E+03  2.72468E+04  2.51135E+04  4.89014E+03  4.11173E+04
 -1.98782E+04  3.34022E+04 -3.08456E+04  1.17857E+04 -2.23299E+04 -9.66608E+03 -4.73248E+03 -1.24308E+04
  5.67177E+02 -1.19806E+03 -8.05706E+03  8.10241E+03 -2.04167E+04  5.33658E+03 -1.92335E+04 -9.87199E+03
 -1.14407E+04 -2.35859E+04  6.58456E+03 -2.77444E+04  1.92379E+04 -1.99940E+04  2.29817E+04 -2.02018E+03
  1.34412E+04  1.57050E+04 -1.13284E+03  2.32525E+04 -1.71425E+04  1.34359E+04 -2.35059E+04 -5.52826E+03
 -1.76003E+04 -2.04154E+04 -2.15385E+03 -2.83113E+04  1.31248E+04 -2.34437E+04  2.42919E+04 -1.19546E+04
  2.18869E+04  3.99265E+02  1.57004E+04  5.62580E+03  8.48510E+03  2.16662E+03  1.19596E+04 -2.51999E+03
  2.27379E+04  3.17571E+03  2.63289E+04  1.79677E+04  1.69687E+04  3.86336E+04 -3.08211E+03  4.46220E+04
 -2.56338E+04  3.71801E+04 -4.12060E+04  2.03781E+04 -4.45064E+04 -3.22609E+03 -3.63740E+04 -2.61147E+04
 -1.46163E+04 -3.71184E+04  1.34210E+04 -3.27148E+04  2.78950E+04 -1.55047E+04  2.48899E+04  7.85428E+03
  8.35567E+03  1.87617E+04 -1.12569E+04  1.52690E+04 -2.01068E+04  2.27622E+03 -1.55581E+04 -1.31555E+04
 -3.43528E+02 -1.86717E+04  1.05340E+04 -1.44079E+04  1.37227E+04 -1.11850E+03  3.22573E+03  8.34251E+03
 -8.77153E+03  4.47584E+03 -9.72857E+03 -7.39897E+03 -1.88889E+03 -1.88235E+04  1.13713E+04 -2.01333E+04
  2.31559E+04 -1.19647E+04  2.55701E+04  2.39123E+03  2.27133E+04  1.90325E+04  1.10902E+04  2.94363E+04
 -5.49205E+03  3.12961E+04 -2.06952E+04  1.92857E+04 -2.21214E+04  3.07896E+03 -1.52073E+04 -6.95964E+03
 -6.73283E+03 -7.42317E+03 -1.22903E+03  1.19425E+03 -2.65917E+03  3.43682E+03 -7.79459E+03  5.59194E+03
 -1.42983E+04 -6.84136E+02 -1.48046E+04 -1.25553E+04 -5.24107E+03 -1.91398E+04  5.68031E+03 -1.58780E+04
  1.26805E+04 -6.41885E+03  9.14417E+03  4.08876E+03 -5.53054E+02  6.22617E+03 -7.87754E+03 -1.28095E+02
 -8.31017E+03 -1.06553E+04 -5.36969E+02 -1.55814E+04  8.66881E+03 -1.62810E+04  1.97892E+04 -9.63347E+03
  2.38026E+04  2.15901E+03  1.62423E+04  1.39080E+04  4.04112E+03  1.84643E+04 -9.38395E+03  1.43925E+04
 -1.22667E+04  4.39609E+03 -7.35619E+03 -3.58368E+03  1.51018E+03 -4.95603E+03  8.71524E+03 -1.13569E+03
  7.10398E+03  6.85941E+03  1.49675E+03  1.26394E+04 -9.12740E+03  1.20614E+04 -1.53601E+04  2.68235E+03
 -1.12559E+04 -7.47933E+03  5.79258E+02 -1.35567E+04  9.19993E+03 -6.11439E+03  9.74013E+03  3.22911E+03
  3.21597E+03  1.00305E+04 -8.31934E+03  1.12434E+04 -1.41699E+04  5.08394E+03 -1.36077E+04 -5.39667E+03
 -8.35226E+03 -1.59984E+04  4.27184E+03 -1.76101E+04  1.54546E+04 -1.09702E+04  1.69284E+04  3.08471E+03
  1.04878E+04  1.29563E+04 -1.13791E+03  1.58601E+04 -1.22765E+04  8.35576E+03 -1.23291E+04 -1.15928E+03
 -1.06739E+04 -9.35481E+03 -2.30209E+03 -1.21613E+04  6.09790E+03 -8.73006E+03  7.99145E+03 -3.48909E+03
  5.05723E+03  2.50190E+03 -1.56679E+03  1.58820E+03 -7.37871E+02 -3.63282E+03  3.50868E+03 -7.05775E+03
  1.15444E+04 -4.25523E+03  1.63871E+04  1.96606E+03  1.55838E+04  1.08074E+04  1.04143E+04  2.02890E+04
 -4.67843E+03  2.30281E+04 -1.96322E+04  1.80502E+04 -2.54235E+04  3.69448E+03 -2.02823E+04 -8.53289E+03
 -1.08971E+04 -1.71551E+04 -1.39221E+02 -1.42467E+04  5.20531E+03 -7.86690E+03  5.29015E+03 -4.76742E+03
  3.91177E+03 -2.45406E+03  4.25582E+03 -4.33970E+03  6.24431E+03 -3.69108E+03  7.85175E+03 -1.28182E+03
  1.06551E+04  2.14607E+03  5.59492E+03  8.99364E+03 -2.41056E+03  1.07271E+04 -1.05034E+04  9.12735E+03
 -1.38874E+04 -1.63675E+03 -9.26989E+03 -1.01860E+04 -1.00315E+03 -1.59364E+04  8.14035E+03 -1.48697E+04
  1.63143E+04 -9.07690E+03  1.90670E+04  2.06008E+03  1.31848E+04  1.39840E+04  2.24875E+03  1.68765E+04
 -7.46119E+03  1.35688E+04 -9.68948E+03  4.83951E+03 -7.61969E+03 -1.18809E+03 -2.78872E+03 -2.02679E+03
 -1.94680E+03  5.82389E+02 -3.22336E+03  3.41468E+03 -6.43973E+03  2.17438E+03 -9.76544E+03 -1.47774E+03
 -7.07248E+03 -1.05325E+04  2.81419E+02 -1.42004E+04  8.56117E+03 -1.37351E+04  1.45976E+04 -3.57579E+03
  1.37894E+04  6.60412E+03  6.62507E+03  1.17971E+04 -3.68302E+03  1.40307E+04 -9.83227E+03  8.95506E+03
 -1.32898E+04  5.54391E+02 -9.87442E+03 -9.00579E+03 -1.32392E+03 -1.20838E+04  5.73163E+03 -9.10707E+03
  9.19502E+03 -2.17445E+03  5.97547E+03  2.68396E+03  2.30753E+03  4.57861E+03  1.68222E+03  2.00545E+03
  3.07237E+03  1.04042E+03  3.99867E+03  2.40399E+03  3.88656E+03  4.48319E+03  3.62119E+03  7.10485E+03
 -2.39218E+03  1.18730E+04 -1.13896E+04  1.13793E+04 -1.52335E+04  3.48787E+03 -1.52450E+04 -5.80366E+03
 -6.27409E+03 -1.47579E+04  2.41616E+03 -1.60141E+04  8.99385E+03 -9.59239E+03  1.15135E+04 -3.33990E+03
  9.73415E+03  5.63664E+03  1.72673E+03  8.24160E+03 -4.09887E+03  5.52464E+03 -5.71504E+03 -1.47358E+02
 -2.53621E+03 -6.09836E+03  3.58794E+03 -6.11518E+03  5.74279E+03 -3.09225E+03  5.13039E+03  1.79586E+03
  2.63403E+03  3.41388E+03  1.43325E+03  2.78870E+03 -6.55947E+02  1.78383E+03  1.86036E+03 -5.81943E+02
  2.54357E+03 -1.02093E+03  5.81519E+03  1.79166E+03  2.98586E+03  7.48333E+03 -1.42448E+03  9.75825E+03
 -7.34125E+03  6.21941E+03 -9.58724E+03  2.16628E+03 -7.91220E+03 -3.47966E+03 -2.73019E+03 -5.41264E+03
  2.00855E+03 -5.31861E+03  4.66630E+03 -2.84096E+03  3.04677E+03  3.00774E+03 -7.98271E+02  4.96099E+03
 -5.61847E+03  2.59519E+03 -6.25085E+03 -3.51414E+03 -4.19870E+03 -8.48113E+03  9.22101E+02 -8.14944E+03
  5.45644E+03 -4.57470E+03  5.52651E+03 -1.62114E+03  3.72845E+03  1.17063E+03  1.00193E+03  4.08426E+03
 -3.06326E+03  1.84210E+03 -3.01000E+03 -1.89591E+03  2.32794E+03 -5.95725E+03  7.63243E+03 -5.18658E+03
  9.36868E+03  1.04673E+03  8.47221E+03  6.08557E+03  3.06648E+03  9.41187E+03 -2.34796E+03  8.86885E+03
 -8.56160E+03  3.40234E+03 -7.11741E+03 -1.29606E+03 -4.41049E+03 -5.56684E+03  1.65912E+03 -5.51755E+03
  6.22904E+03 -3.27797E+03  4.91064E+03  2.56205E+03  1.18013E+03  5.02794E+03 -1.01045E+03  4.82388E+03
 -2.59964E+03  2.49654E+03 -1.50449E+03  6.96877E+02 -5.75554E+02  1.47702E+03 -2.00427E+03  2.03435E+03
 -2.06785E+03  3.56116E+03 -6.33576E+03  3.25627E+03 -9.32315E+03  2.76620E+02 -9.86003E+03 -6.19588E+03
 -5.41758E+03 -1.19635E+04  3.16308E+03 -1.34627E+04  8.96368E+03 -1.12710E+04  1.30848E+04 -4.51673E+03
  1.24092E+04  2.35328E+03  7.87709E+03  8.75854E+03 -3.72368E+00  1.01910E+04 -3.60980E+03  7.60475E+03
 -5.25231E+03  2.51829E+03 -3.01418E+03 -9.50360E+02 -6.48873E+02 -5.19964E+02 -1.48073E+03 -2.36715E+02
 -1.44978E+03 -2.87068E+02 -2.38071E+03  6.01881E+00 -1.70314E+03 -1.62159E+03  7.48365E+02 -3.84604E+03
  3.36095E+03 -2.69198E+03  5.56782E+03  4.58040E+02  6.79918E+03  4.66949E+03  1.57127E+03  9.16823E+03
 -4.72225E+03  1.05339E+04 -9.88839E+03  5.62010E+03 -1.05610E+04 -4.98659E+02 -8.69805E+03 -7.29729E+03
 -3.48899E+03 -9.67079E+03  2.65297E+03 -8.80307E+03  6.02944E+03 -5.53008E+03  6.23248E+03  6.02086E+02
  3.20918E+03  3.11643E+03 -7.18081E+02  3.06233E+03 -2.41119E+03  2.79104E+02 -5.86937E+01 -2.89741E+03
  3.08281E+03 -1.44577E+03  4.16033E+03  9.85723E+02  2.49761E+03  4.31054E+03 -8.64054E+01  4.57998E+03
 -4.24516E+03  4.40750E+03 -7.09771E+03  3.64537E+02 -6.17363E+03 -4.78458E+03 -8.24031E+02 -7.95923E+03
  4.73167E+03 -6.52884E+03  7.25092E+03 -1.48857E+03  6.57647E+03  1.93419E+03  4.00604E+03  5.86389E+03
  5.82695E+02  6.12958E+03 -2.86035E+03  4.85636E+03 -4.45150E+03  3.42898E+03 -3.56471E+03  1.94721E+02
 -1.64637E+03 -3.88623E+02 -1.61098E+03  1.10215E+03 -3.87459E+03  1.65623E+03 -4.67600E+03 -3.72218E+02
 -4.89109E+03 -3.42505E+03 -1.55861E+03 -6.46246E+03  2.40641E+03 -6.62903E+03  5.03929E+03 -3.15934E+03
  6.08020E+03  8.57731E+02  3.27674E+03  4.18559E+03 -3.39819E+02  6.25970E+03 -5.77277E+03  4.50739E+03
