 $NMID ID='MM_0lb_SNR400_17hz_g50_29.RAW', FMTDAT='(8E13.5)'
 TRAMP=1., VOLUME=1. $END
  3.09610E+05  1.77635E+02  3.37353E+05  2.50458E+05  8.44652E+04  3.37754E+05 -1.32563E+05  2.50530E+05
 -1.90338E+05  8.27708E+04 -1.11464E+05 -3.30147E+04  1.06747E+03 -5.03338E+04  5.38122E+04 -5.98374E+02
  3.48013E+04  5.26041E+04 -1.62648E+04  7.49553E+04 -6.00360E+04  6.31307E+04 -8.36442E+04  3.11887E+04
 -7.98620E+04 -1.15237E+04 -5.70006E+04 -5.12784E+04 -1.50888E+04 -6.87967E+04  2.74092E+04 -4.57675E+04
  3.98232E+04  4.07042E+03  1.61795E+04  4.68653E+04 -3.41176E+04  4.63734E+04 -6.59637E+04 -1.49656E+02
 -5.25746E+04 -5.67029E+04 -6.65421E+03 -7.55837E+04  3.31162E+04 -5.42762E+04  4.67461E+04 -1.68520E+04
  4.30532E+04  1.11380E+04  3.09740E+04  2.51921E+04  1.58096E+04  2.87156E+04 -5.10375E+03  2.71276E+04
 -2.21595E+04  1.26931E+04 -1.87805E+04 -4.86017E+03  4.56184E+03 -7.18232E+03  2.17471E+04  1.12096E+04
  7.38201E+03  3.41833E+04 -3.09823E+04  3.46727E+04 -6.23777E+04  1.47241E+03 -5.59069E+04 -4.19126E+04
 -1.23001E+04 -6.23645E+04  3.89908E+04 -4.42883E+04  5.66190E+04 -1.79312E+03  3.24103E+04  3.14436E+04
 -6.52027E+03  3.44118E+04 -2.86830E+04  1.44460E+04 -2.88055E+04 -4.72369E+03 -1.56502E+04 -1.05816E+04
 -7.53441E+03 -1.21034E+04 -6.90165E+02 -1.73864E+04  7.18419E+03 -2.29794E+04  1.52312E+04 -1.39231E+04
  1.22541E+04  4.42437E+03 -6.76616E+03  1.24034E+04 -2.00700E+04 -3.48886E+03 -7.76155E+03 -3.16641E+04
  2.15830E+04 -4.16231E+04  4.58834E+04 -1.93990E+04  4.29500E+04  1.81094E+04  1.48677E+04  4.35371E+04
 -1.55621E+04  3.20695E+04 -2.47062E+04  1.43774E+03 -9.11810E+03 -2.64158E+04  2.05994E+04 -3.20039E+04
  3.91102E+04 -8.08617E+03  3.32030E+04  2.26921E+04  1.64391E+04  4.40077E+04 -8.12197E+03  4.70143E+04
 -2.93927E+04  3.12732E+04 -3.89550E+04  8.86979E+03 -3.98405E+04 -1.60338E+04 -2.25961E+04 -3.58463E+04
  7.28784E+03 -3.59475E+04  3.00513E+04 -1.43385E+04  2.74526E+04  1.05834E+04  3.29941E+03  1.87500E+04
 -1.35577E+04  7.62139E+03 -9.60238E+03 -7.54598E+03  5.86062E+03 -1.02702E+04  1.69846E+04  6.58259E+03
  1.30916E+04  2.14041E+04 -6.68376E+03  2.39338E+04 -2.17059E+04  1.00592E+04 -2.62753E+04 -5.40487E+03
 -1.79812E+04 -1.68616E+04 -6.59662E+03 -1.76457E+04  4.11452E+03 -1.70124E+04  1.38015E+04 -1.65313E+04
  2.35185E+04 -1.25215E+04  3.00617E+04  2.15966E+03  2.19475E+04  1.79737E+04  3.81564E+03  3.45223E+04
 -1.66956E+04  2.85366E+04 -2.65679E+04  9.75905E+03 -2.02725E+04 -1.03989E+04 -4.17112E+03 -1.37552E+04
  2.60416E+03 -3.30776E+03 -3.56875E+03  5.90166E+03 -1.40437E+04  5.19883E+03 -1.46328E+04 -5.74826E+03
 -9.20790E+03 -1.65138E+04  4.75930E+03 -2.00393E+04  1.39394E+04 -1.48241E+04  1.62380E+04 -1.42025E+03
  1.02861E+04  1.16416E+04 -1.00110E+03  1.70090E+04 -1.12980E+04  9.99497E+03 -1.66845E+04 -3.69166E+03
 -1.20091E+04 -1.56326E+04 -2.17180E+03 -2.05007E+04  9.26560E+03 -1.65837E+04  1.73658E+04 -8.42900E+03
  1.59702E+04  4.13335E+02  1.12353E+04  4.45010E+03  5.88651E+03  5.98307E+02  8.74488E+03 -1.16907E+03
  1.47542E+04  2.80704E+03  1.59043E+04  1.37079E+04  1.06953E+04  2.66562E+04 -3.15041E+03  3.00834E+04
 -1.72060E+04  2.24712E+04 -2.74235E+04  1.10624E+04 -2.82598E+04 -1.92167E+03 -2.35859E+04 -1.61871E+04
 -1.04434E+04 -2.31488E+04  7.47511E+03 -2.11276E+04  1.82291E+04 -1.14651E+04  1.64434E+04  4.34890E+03
  6.63043E+03  1.21190E+04 -7.28546E+03  1.07094E+04 -1.45549E+04  2.69819E+03 -1.10958E+04 -8.68227E+03
 -4.67899E+02 -1.33115E+04  6.76992E+03 -9.85615E+03  8.21878E+03 -8.26382E+02  1.38460E+03  6.34020E+03
 -5.60804E+03  1.59910E+03 -4.93691E+03 -5.15424E+03  1.18508E+02 -1.07377E+04  8.32828E+03 -1.12051E+04
  1.35954E+04 -5.67634E+03  1.40119E+04  2.62323E+03  1.20805E+04  1.07191E+04  5.94576E+03  1.58888E+04
 -1.59298E+03  1.79741E+04 -1.09273E+04  1.17782E+04 -1.33348E+04  2.54782E+03 -9.10505E+03 -2.78709E+03
 -4.57265E+03 -3.05632E+03 -7.03103E+02  1.12238E+03 -1.68393E+03  2.29742E+03 -3.60021E+03  3.87600E+03
 -9.27071E+03 -3.91782E+02 -1.03259E+04 -7.57065E+03 -3.83683E+03 -1.29027E+04  3.94531E+03 -9.82145E+03
  7.91803E+03 -3.74349E+03  5.52502E+03  2.19782E+03  3.72311E+02  4.09667E+03 -3.55517E+03 -1.07626E+02
 -4.51028E+03 -5.56259E+03 -1.08986E+03 -8.07165E+03  4.68933E+03 -9.13655E+03  1.05635E+04 -4.43674E+03
  1.31720E+04  1.09137E+03  1.00172E+04  7.45231E+03  2.15027E+03  9.94306E+03 -5.81607E+03  8.68703E+03
 -7.30990E+03  3.16719E+03 -4.06186E+03 -1.37433E+03  1.34604E+03 -2.33586E+03  5.76523E+03 -1.08742E+03
  4.40861E+03  4.01885E+03  1.10226E+03  7.43786E+03 -5.34359E+03  6.72606E+03 -8.67599E+03  1.87088E+03
 -5.52883E+03 -4.55914E+03 -3.30025E+01 -7.60004E+03  4.15195E+03 -3.57656E+03  4.12249E+03  1.75250E+03
  7.27538E+02  4.27749E+03 -5.01866E+03  5.95378E+03 -5.71875E+03  2.94108E+03 -5.70552E+03 -1.42984E+03
 -3.38257E+03 -7.48216E+03  1.50604E+03 -8.10063E+03  7.11171E+03 -5.37077E+03  7.60298E+03  1.34343E+03
  5.53423E+03  5.94865E+03  1.53151E+02  7.87367E+03 -5.80353E+03  4.54265E+03 -6.21683E+03 -5.61809E+02
 -6.86705E+03 -6.05356E+03 -1.39969E+03 -5.65139E+03  3.28782E+03 -5.03192E+03  3.74190E+03 -3.02084E+03
  3.36725E+03  2.01195E+02  2.11766E+02  9.20786E+02  7.23830E+02 -7.83905E+02  2.51264E+02 -2.26221E+03
  4.43704E+03 -9.09702E+02  6.86912E+03  9.71630E+02  6.35651E+03  4.16693E+03  5.76356E+03  8.50347E+03
 -1.95404E+03  1.01252E+04 -8.86308E+03  7.44891E+03 -1.19424E+04  1.16281E+03 -9.34384E+03 -3.50238E+03
 -4.78995E+03 -8.19615E+03 -5.31359E+02 -6.18859E+03  2.85772E+03 -2.74751E+03  2.79614E+03 -2.61627E+03
  1.30907E+03 -1.46556E+03  2.34454E+03 -2.40934E+03  3.83753E+03 -1.37102E+03  4.26089E+03  2.90441E+02
  5.27619E+03  2.03036E+03  1.47477E+03  4.39066E+03 -1.07315E+03  3.84879E+03 -5.47702E+03  2.99190E+03
 -6.04237E+03 -6.51861E+02 -2.57296E+03 -4.46953E+03  1.41839E+02 -6.12566E+03  3.53148E+03 -6.68358E+03
  6.87649E+03 -4.05442E+03  7.84815E+03  6.30372E+02  5.46933E+03  5.51479E+03  1.11905E+03  6.76139E+03
 -2.87592E+03  6.68912E+03 -4.00754E+03  2.17385E+03 -2.66516E+03 -9.51300E+02 -3.32295E+02 -4.86984E+02
 -5.05890E+02 -2.52367E+02 -8.98425E+02  1.74793E+03 -3.24954E+03  1.18765E+03 -4.82278E+03 -4.16081E+02
 -1.92452E+03 -4.64030E+03  4.53521E+02 -5.71790E+03  3.51629E+03 -5.75373E+03  4.28710E+03 -1.52887E+03
  4.75975E+03  3.02591E+03  3.10436E+03  4.23336E+03 -5.88699E+02  5.87007E+03 -3.22749E+03  2.93445E+03
 -5.06359E+03  3.42276E+02 -4.22971E+03 -2.95778E+03 -1.09112E+03 -4.32361E+03  1.91735E+03 -2.98742E+03
  2.90390E+03 -1.35169E+03  2.17955E+03  4.30724E+01  3.35311E+02  2.25803E+03  1.00768E+03  5.10928E+02
  1.61603E+03 -3.40957E+02  1.28715E+03  1.41650E+03  1.17087E+03  1.90365E+03  1.33465E+03  1.88085E+03
 -1.30638E+03  3.51377E+03 -3.61151E+03  4.56525E+03 -4.21308E+03  1.26087E+03 -5.13915E+03 -1.45908E+03
 -2.23687E+03 -4.56334E+03  6.73435E+02 -5.51416E+03  2.96302E+03 -2.92719E+03  4.53247E+03 -1.24133E+03
  3.15130E+03  2.25761E+03  4.12444E+02  2.45523E+03 -1.07477E+03  1.59374E+03 -1.40962E+03 -9.14970E+01
 -8.18785E+02 -2.14094E+03  1.54603E+03 -1.50376E+03  1.35747E+03 -1.59450E+03  1.84721E+03  7.23899E+02
  1.01098E+03  7.94064E+02  2.99651E+02  5.83638E+02  1.17469E+02  9.38484E+02  1.68395E+03 -3.89108E+02
  1.79256E+02  1.63295E+02  2.05014E+03  5.28348E+02  4.20575E+02  2.98587E+03 -1.51374E+02  3.25197E+03
 -2.11687E+03  1.58456E+03 -3.16639E+03  8.22248E+02 -2.32731E+03 -1.28391E+03 -5.28593E+02 -1.84954E+03
  8.13302E+02 -1.26607E+03  8.12205E+02 -1.23423E+03  6.55666E+02  1.41865E+03 -1.44315E+02  1.67022E+03
 -2.56137E+03  1.12184E+03 -1.81623E+03 -1.81430E+03 -7.01290E+02 -2.32820E+03 -1.06944E+02 -2.46420E+03
  7.68225E+02 -1.17667E+03  9.60781E+02  4.82508E+01  1.67579E+03 -2.61885E+02  5.41555E+02  1.07741E+03
 -8.10589E+02  2.54829E+02 -1.47966E+03 -3.59709E+02  6.10240E+02 -9.34582E+02  2.03610E+03 -1.52726E+03
  1.85491E+03 -9.72403E+01  3.26609E+03  1.80332E+03  1.44348E+03  2.04195E+03 -7.29544E+02  2.25872E+03
 -2.01382E+03  9.47509E+02 -2.66289E+03 -2.22058E+02 -1.34286E+03 -1.60684E+03  4.88831E+02 -1.01445E+03
  1.39070E+03 -5.72867E+02  1.05279E+03  1.08033E+03  3.73691E+02  1.82189E+03 -3.00505E+02  1.55302E+03
 -7.12775E+01  1.29110E+03 -2.96947E+02  7.52301E+02 -1.48331E+01  6.29234E+02 -1.09634E+03  6.57000E+02
 -1.05857E+03  1.12846E+03 -2.22307E+03  5.18966E+02 -2.78916E+03  2.54981E+02 -2.85938E+03 -1.40205E+03
 -1.28753E+03 -3.05959E+03  8.10934E+02 -4.10559E+03  1.62048E+03 -3.52941E+03  3.59505E+03 -1.25008E+03
  3.22318E+03 -2.58783E+02  1.51586E+03  2.25507E+03 -6.50342E+02  2.25395E+03 -6.03014E+02  2.02688E+03
 -1.01162E+03  1.09652E+03 -4.78746E+02 -5.31002E+02 -2.59204E+02  7.44025E+01 -7.97644E+02 -2.22581E+02
 -1.33256E+03  1.29069E+02 -1.12101E+03  4.62261E+01  2.62177E+02 -4.11713E+02 -1.13383E+02 -3.81621E+02
  1.45064E+03 -3.39609E+02  9.75522E+02 -6.72679E+01  1.19069E+03  9.87345E+02  1.83727E+02  1.87082E+03
 -7.90114E+02  3.00416E+03 -2.34981E+03  1.55932E+03 -2.00149E+03  7.79155E+01 -2.17554E+03 -1.23960E+03
 -6.53023E+02 -1.92753E+03  1.63113E+02 -2.03142E+03  1.28408E+03 -9.07845E+02  1.49285E+03  4.46237E+02
  7.85543E+02  5.48438E+02  2.40554E+02  6.19456E+02 -9.52569E+02 -4.76883E+02 -2.30545E+01 -1.26872E+02
  6.85466E+02 -2.43378E+02 -8.45641E+01  7.83232E+02  1.15114E+02  6.20738E+02  6.82825E+02  1.18408E+03
 -1.43844E+03  9.76396E+02 -1.16236E+03 -2.62088E+02 -1.19206E+03 -8.35919E+02 -2.26107E+02 -1.86418E+03
  1.10697E+03 -8.01272E+02  7.78216E+02 -1.40763E+02  1.50261E+03 -4.35772E+02 -3.45066E+01  1.16633E+03
  5.39000E+02  1.03523E+03 -7.40942E+02  7.22133E+02 -4.43734E+02  7.92979E+02 -4.43917E+02 -8.54302E+01
 -3.04849E+02  4.48958E+02 -6.18935E+02  3.72416E+01 -8.89204E+02  2.25811E+02 -6.55521E+02 -8.83279E+02
 -1.06600E+03 -3.14386E+02 -6.14486E+02 -1.26138E+03  1.09120E+03 -1.83327E+03  1.01974E+03 -9.47078E+02
  1.42763E+03 -3.68242E+02  3.23373E+02  1.56620E+02 -1.06487E+02  1.27423E+03 -8.17946E+02  6.82825E+02
