 $NMID ID='MM_0lb_SNR400_14hz_g60_26.RAW', FMTDAT='(8E13.5)'
 TRAMP=1., VOLUME=1. $END
  3.09732E+05 -3.78328E+01  3.37666E+05  2.49960E+05  8.43058E+04  3.37947E+05 -1.32557E+05  2.51571E+05
 -1.90040E+05  8.34703E+04 -1.11820E+05 -3.22465E+04 -4.77792E+01 -5.00212E+04  5.40931E+04 -6.10118E+02
  3.58780E+04  5.27616E+04 -1.70438E+04  7.48798E+04 -6.07619E+04  6.38576E+04 -8.41774E+04  3.21194E+04
 -8.15712E+04 -1.15957E+04 -5.77894E+04 -5.13354E+04 -1.50964E+04 -6.98074E+04  2.77784E+04 -4.61916E+04
  4.05465E+04  3.58972E+03  1.68701E+04  4.83804E+04 -3.46332E+04  4.75612E+04 -6.65627E+04 -5.87493E+02
 -5.42261E+04 -5.74388E+04 -6.96064E+03 -7.79054E+04  3.39099E+04 -5.63498E+04  4.87395E+04 -1.76508E+04
  4.40270E+04  1.19434E+04  3.23865E+04  2.58700E+04  1.59616E+04  2.97127E+04 -5.01870E+03  2.70308E+04
 -2.24018E+04  1.27160E+04 -1.81893E+04 -5.15236E+03  5.84470E+03 -8.31876E+03  2.25854E+04  1.29715E+04
  7.72890E+03  3.67437E+04 -3.21878E+04  3.60716E+04 -6.43723E+04  1.86746E+03 -5.80018E+04 -4.33860E+04
 -1.24152E+04 -6.45641E+04  4.06033E+04 -4.63636E+04  5.95997E+04 -2.30257E+03  3.51182E+04  3.30052E+04
 -5.59539E+03  3.80953E+04 -3.10591E+04  1.67017E+04 -3.19082E+04 -3.77299E+03 -1.80134E+04 -1.18625E+04
 -8.19878E+03 -1.36394E+04 -4.50739E+02 -1.85936E+04  8.08680E+03 -2.32983E+04  1.55883E+04 -1.31307E+04
  1.07651E+04  5.00343E+03 -8.65023E+03  1.28658E+04 -2.23368E+04 -5.03841E+03 -8.30910E+03 -3.52700E+04
  2.33814E+04 -4.48271E+04  4.90817E+04 -2.03216E+04  4.65767E+04  2.02333E+04  1.62174E+04  4.55754E+04
 -1.64706E+04  3.49978E+04 -2.54788E+04  2.02097E+03 -1.00518E+04 -2.80842E+04  2.13124E+04 -3.54668E+04
  4.25527E+04 -9.62467E+03  3.76122E+04  2.44596E+04  1.86327E+04  4.79801E+04 -8.06014E+03  5.25027E+04
 -3.29995E+04  3.48851E+04 -4.40576E+04  9.68360E+03 -4.40531E+04 -1.76684E+04 -2.45532E+04 -3.96861E+04
  8.01232E+03 -3.88057E+04  3.22052E+04 -1.52480E+04  3.01875E+04  1.08338E+04  4.11718E+03  1.99961E+04
 -1.37166E+04  8.72848E+03 -1.02599E+04 -7.96523E+03  5.26521E+03 -1.00331E+04  1.73782E+04  5.92220E+03
  1.35318E+04  2.18360E+04 -5.67974E+03  2.57716E+04 -2.23995E+04  1.23033E+04 -2.92273E+04 -3.70630E+03
 -2.23512E+04 -1.76597E+04 -9.83564E+03 -2.19631E+04  4.31051E+03 -2.15873E+04  1.70950E+04 -1.93790E+04
  2.77600E+04 -1.26866E+04  3.40695E+04  3.16381E+03  2.53094E+04  2.10453E+04  4.28601E+03  3.81926E+04
 -1.84266E+04  3.16916E+04 -2.80014E+04  1.08703E+04 -2.15930E+04 -1.02801E+04 -4.56520E+03 -1.39475E+04
  1.65406E+03 -2.31155E+03 -5.87624E+03  7.33416E+03 -1.71746E+04  4.97733E+03 -1.77742E+04 -7.69154E+03
 -1.04590E+04 -2.00573E+04  5.79417E+03 -2.39867E+04  1.59750E+04 -1.73396E+04  2.01588E+04 -1.77832E+03
  1.24723E+04  1.40139E+04 -9.30896E+02  1.96315E+04 -1.48213E+04  1.17963E+04 -2.07726E+04 -3.96323E+03
 -1.48347E+04 -1.84235E+04 -1.85257E+03 -2.40431E+04  1.11005E+04 -2.02800E+04  2.04301E+04 -9.43016E+03
  1.81360E+04 -1.12370E+03  1.29138E+04  5.02459E+03  7.06274E+03  1.14640E+03  1.03316E+04 -1.50378E+03
  1.91321E+04  3.45510E+03  2.12975E+04  1.56611E+04  1.41253E+04  3.21494E+04 -2.94799E+03  3.66199E+04
 -2.15278E+04  2.97617E+04 -3.38243E+04  1.62839E+04 -3.62713E+04 -2.22335E+03 -2.99365E+04 -2.09014E+04
 -1.26840E+04 -3.00239E+04  1.10310E+04 -2.73302E+04  2.31314E+04 -1.32113E+04  2.01097E+04  5.57860E+03
  6.84116E+03  1.50173E+04 -1.01286E+04  1.29961E+04 -1.75877E+04  2.55213E+03 -1.27970E+04 -1.13514E+04
 -1.69537E+02 -1.64282E+04  9.07817E+03 -1.17195E+04  1.07337E+04 -1.19945E+03  2.72178E+03  6.95589E+03
 -7.23697E+03  3.50202E+03 -6.89062E+03 -5.79072E+03 -8.47139E+02 -1.44749E+04  1.01582E+04 -1.58753E+04
  1.83797E+04 -8.14995E+03  2.00275E+04  3.31723E+03  1.72839E+04  1.46759E+04  8.29836E+03  2.18524E+04
 -3.54505E+03  2.38941E+04 -1.61772E+04  1.53159E+04 -1.77083E+04  3.49027E+03 -1.27188E+04 -4.24260E+03
 -5.66566E+03 -5.53736E+03 -9.15922E+02  5.22780E+02 -2.50620E+03  2.74045E+03 -5.35919E+03  5.51194E+03
 -1.15118E+04 -7.84749E+02 -1.16608E+04 -1.02471E+04 -4.58313E+03 -1.56656E+04  4.58913E+03 -1.22371E+04
  1.07120E+04 -5.40358E+03  7.62149E+03  2.89396E+03  1.92469E+01  5.06761E+03 -5.99088E+03  2.00255E+02
 -5.27821E+03 -8.04661E+03 -1.18149E+03 -1.15912E+04  6.10612E+03 -1.25396E+04  1.49566E+04 -6.29007E+03
  1.76758E+04  1.79715E+03  1.27138E+04  1.05456E+04  2.03372E+03  1.36340E+04 -8.12344E+03  1.16546E+04
 -9.57089E+03  3.01882E+03 -5.51599E+03 -2.80726E+03  1.52519E+03 -3.73070E+03  6.93033E+03 -5.53826E+01
  5.55839E+03  4.94255E+03  2.00386E+03  1.04022E+04 -6.84415E+03  8.88678E+03 -1.18207E+04  2.01637E+03
 -7.64845E+03 -5.81973E+03 -4.90412E+02 -9.72003E+03  6.40888E+03 -4.72164E+03  7.15668E+03  2.66142E+03
  1.38023E+03  6.33558E+03 -6.36652E+03  8.11551E+03 -9.64145E+03  3.74706E+03 -8.65776E+03 -2.76742E+03
 -5.03402E+03 -1.01386E+04  2.80061E+03 -1.22347E+04  1.03762E+04 -7.80600E+03  1.14097E+04  2.09314E+03
  6.85689E+03  9.50851E+03 -9.45104E+02  1.16302E+04 -7.40666E+03  6.72218E+03 -9.08989E+03 -1.11145E+03
 -8.46062E+03 -7.29517E+03 -1.50283E+03 -7.84553E+03  4.21988E+03 -6.83067E+03  4.67748E+03 -3.25941E+03
  3.47175E+03  1.60677E+03 -4.85635E+02  1.06793E+03 -5.50939E+02 -2.25910E+03  2.12357E+03 -4.52859E+03
  7.94436E+03 -2.58128E+03  9.85578E+03  1.34271E+03  1.02827E+04  6.36570E+03  7.53026E+03  1.38533E+04
 -2.14154E+03  1.56274E+04 -1.34012E+04  1.20075E+04 -1.72487E+04  2.57120E+03 -1.35051E+04 -5.75804E+03
 -6.55094E+03 -1.09296E+04 -2.65828E+02 -9.01232E+03  3.72417E+03 -4.86381E+03  3.75793E+03 -4.15918E+03
  2.62789E+03 -1.99404E+03  2.93607E+03 -2.95705E+03  4.84943E+03 -2.10191E+03  5.65433E+03 -1.35096E+03
  7.58831E+03  1.27932E+03  2.97837E+03  5.94348E+03 -2.20444E+03  5.87586E+03 -7.22846E+03  5.78169E+03
 -9.39184E+03 -1.16401E+03 -5.01059E+03 -6.68820E+03 -4.03333E+01 -9.93803E+03  5.90868E+03 -9.33901E+03
  9.73790E+03 -5.81599E+03  1.27542E+04  1.31936E+03  8.93178E+03  8.89084E+03  1.49707E+03  1.08568E+04
 -4.07305E+03  9.39436E+03 -6.19015E+03  3.65397E+03 -4.39801E+03 -9.86465E+02 -1.31013E+03 -1.01152E+03
 -1.24306E+03  4.65411E+02 -1.56766E+03  2.06211E+03 -3.45263E+03  1.87246E+03 -6.39431E+03 -1.01179E+03
 -3.96286E+03 -6.31600E+03  4.63236E+02 -9.08481E+03  5.17305E+03 -7.71948E+03  8.01293E+03 -2.30972E+03
  7.48218E+03  4.14058E+03  3.71254E+03  6.95728E+03 -2.29716E+03  9.17266E+03 -6.01637E+03  5.56899E+03
 -8.02857E+03  6.55420E+02 -6.62943E+03 -4.98636E+03 -4.98646E+02 -6.72873E+03  3.90792E+03 -5.61500E+03
  5.58135E+03 -2.32369E+03  3.96639E+03  1.28246E+03  1.46160E+03  2.70789E+03  1.22497E+03  1.12774E+03
  2.50281E+03  6.20411E+02  2.03061E+03  6.92437E+02  2.83401E+03  3.07815E+03  2.31029E+03  4.19011E+03
 -2.24160E+03  6.31036E+03 -5.62397E+03  7.32976E+03 -7.58532E+03  1.38175E+03 -8.90135E+03 -3.22442E+03
 -4.08751E+03 -8.51955E+03  1.41843E+03 -9.35903E+03  4.95744E+03 -6.06465E+03  6.77236E+03 -1.25173E+03
  5.00998E+03  3.20311E+03  1.23494E+03  4.87056E+03 -2.58809E+03  3.05595E+03 -3.94248E+03  1.04752E+02
 -1.23187E+03 -3.34824E+03  1.93668E+03 -3.45288E+03  3.11628E+03 -1.70728E+03  2.58985E+03  8.90441E+02
  1.92312E+03  1.33371E+03  2.91950E+02  4.48457E+02 -5.99636E+02  1.74959E+03  2.08733E+03 -1.82254E+02
  1.21233E+03  5.84455E+01  3.52647E+03  7.77215E+02  1.07139E+03  4.99640E+03 -1.09697E+03  5.67342E+03
 -4.20744E+03  3.34995E+03 -5.43822E+03  1.07426E+03 -4.42016E+03 -1.10257E+03 -1.02548E+03 -3.02935E+03
  2.16282E+02 -2.49417E+03  2.06992E+03 -1.21905E+03  1.28145E+03  1.68981E+03 -6.88664E+02  2.44957E+03
 -3.59888E+03  1.30654E+03 -2.59447E+03 -1.86590E+03 -1.60616E+03 -4.26495E+03  2.23061E+02 -3.92798E+03
  2.28141E+03 -1.55908E+03  2.47519E+03 -4.72644E+02  2.61613E+03  3.32186E+02  6.09013E+02  2.28993E+03
 -6.36589E+02  4.68736E+02 -1.74838E+03 -1.01258E+03  1.85892E+03 -2.68824E+03  3.94068E+03 -2.62607E+03
  4.10210E+03  1.19462E+02  5.10943E+03  2.71662E+03  2.21192E+03  4.97827E+03 -1.88549E+03  4.24742E+03
 -4.12438E+03  1.17207E+03 -4.11114E+03 -7.08164E+02 -1.79091E+03 -3.13336E+03  4.76814E+01 -2.16171E+03
  3.70229E+03 -1.15185E+03  2.15018E+03  1.42478E+03  1.01903E+03  2.69114E+03  3.13231E+02  2.38230E+03
 -6.81817E+02  2.00281E+03 -5.93736E+02  6.66367E+02 -1.70537E+02  1.57236E+02 -9.33497E+02  3.91881E+02
 -1.23301E+03  1.93074E+03 -3.64571E+03  1.29519E+03 -3.74901E+03 -3.52312E+02 -5.22374E+03 -2.21233E+03
 -3.10424E+03 -5.63786E+03  7.52857E+02 -6.95131E+03  3.75519E+03 -5.73572E+03  6.65145E+03 -1.96406E+03
  5.57525E+03  4.02430E+02  3.14295E+03  3.57990E+03 -7.04553E+02  3.91360E+03 -1.67888E+03  3.32713E+03
 -2.56006E+03  9.28034E+02 -1.74339E+03 -8.86955E+02 -1.25448E+03 -2.73067E+02 -1.79554E+02 -7.52007E+01
 -9.35574E+02 -4.78815E+01 -1.12856E+03  1.91537E+02 -4.95124E+02 -1.19726E+03 -2.96620E+02 -1.84107E+03
  2.37553E+03 -2.45606E+03  2.20185E+03 -3.75306E+02  2.94372E+03  2.08354E+03  4.72149E+02  4.29114E+03
 -2.18576E+03  4.59412E+03 -4.31894E+03  3.01687E+03 -5.41537E+03 -7.23690E+02 -3.86830E+03 -3.12057E+03
 -2.21778E+03 -3.67313E+03  6.70991E+02 -3.28537E+03  2.13190E+03 -2.26723E+03  2.45927E+03  4.58346E+02
  1.32703E+03  1.23359E+03  3.61537E+02  9.26402E+02 -9.04121E+02  7.48896E+01 -2.36096E+02 -7.69081E+02
  1.40924E+03 -9.65617E+01  7.81698E+02  1.36559E+03  6.19374E+02  1.41152E+03 -3.83029E+02  2.23773E+03
 -1.64547E+03  1.66621E+03 -2.09399E+03  7.56280E+02 -2.53418E+03 -1.65191E+03 -5.96536E+02 -3.68779E+03
  1.56571E+03 -2.55655E+03  2.27911E+03 -2.54220E+02  2.52621E+03  8.03907E+02  1.65795E+03  2.14760E+03
  8.47440E+02  2.14862E+03 -5.88816E+02  1.68262E+03 -2.14428E+03  1.52919E+03 -1.20590E+03  2.60755E+02
 -5.99629E+02 -2.10730E+02 -9.48119E+01  2.47215E+02 -1.44489E+03  3.63517E+02 -2.01161E+03 -4.47109E+02
 -1.56115E+03 -5.08261E+02  4.57956E+02 -2.38740E+03  1.55938E+03 -3.11515E+03  2.16680E+03 -9.38818E+02
  1.96803E+03  2.93872E+02  4.24647E+02  1.71048E+03 -7.26577E+01  2.63376E+03 -1.25179E+03  1.61532E+03
