 $NMID ID='MM_0lb_SNR400_16hz_g45_28.RAW', FMTDAT='(8E13.5)'
 TRAMP=1., VOLUME=1. $END
  3.09852E+05  3.31246E+02  3.37756E+05  2.49998E+05  8.45342E+04  3.37733E+05 -1.32471E+05  2.51016E+05
 -1.90434E+05  8.33115E+04 -1.11117E+05 -3.26734E+04  9.21319E+02 -5.01055E+04  5.40200E+04  9.51794E+02
  3.49747E+04  5.30701E+04 -1.67245E+04  7.53478E+04 -6.00523E+04  6.30752E+04 -8.34045E+04  3.19515E+04
 -8.07723E+04 -1.14617E+04 -5.63050E+04 -5.08094E+04 -1.54041E+04 -6.92948E+04  2.64952E+04 -4.58592E+04
  3.94435E+04  3.84115E+03  1.57478E+04  4.71615E+04 -3.44110E+04  4.65120E+04 -6.60009E+04 -2.88554E+02
 -5.26711E+04 -5.63334E+04 -6.75966E+03 -7.58106E+04  3.32271E+04 -5.40875E+04  4.60420E+04 -1.76312E+04
  4.28676E+04  1.06672E+04  3.08490E+04  2.43878E+04  1.61028E+04  2.94093E+04 -4.87322E+03  2.70661E+04
 -2.16946E+04  1.24165E+04 -1.81722E+04 -4.80664E+03  5.27935E+03 -7.69262E+03  2.15897E+04  1.21798E+04
  7.42712E+03  3.37683E+04 -3.09243E+04  3.47696E+04 -6.26229E+04  2.13382E+03 -5.54830E+04 -4.18743E+04
 -1.21595E+04 -6.14691E+04  3.88592E+04 -4.45260E+04  5.66779E+04 -2.02754E+03  3.35143E+04  3.12757E+04
 -6.88191E+03  3.38975E+04 -2.95747E+04  1.45045E+04 -2.88255E+04 -4.87382E+03 -1.53641E+04 -1.05124E+04
 -7.36255E+03 -1.18510E+04 -7.52051E+02 -1.67735E+04  7.36792E+03 -2.30822E+04  1.51813E+04 -1.36221E+04
  1.17645E+04  4.29918E+03 -6.70042E+03  1.31876E+04 -2.03746E+04 -3.38965E+03 -8.07402E+03 -3.15644E+04
  2.17103E+04 -4.08280E+04  4.62499E+04 -1.90530E+04  4.37154E+04  1.89832E+04  1.48686E+04  4.24512E+04
 -1.51606E+04  3.17335E+04 -2.47060E+04  1.24193E+03 -8.88511E+03 -2.75254E+04  2.07586E+04 -3.27185E+04
  3.89933E+04 -8.20459E+03  3.40575E+04  2.27754E+04  1.66920E+04  4.41010E+04 -7.99713E+03  4.75578E+04
 -2.98751E+04  3.20289E+04 -3.94206E+04  9.41702E+03 -4.03663E+04 -1.58907E+04 -2.27146E+04 -3.59973E+04
  6.93672E+03 -3.56680E+04  3.07253E+04 -1.37125E+04  2.78312E+04  1.14363E+04  3.59184E+03  1.80693E+04
 -1.35714E+04  8.02734E+03 -9.98984E+03 -7.54312E+03  5.33476E+03 -9.97572E+03  1.77833E+04  6.50970E+03
  1.27386E+04  2.14414E+04 -6.19864E+03  2.36625E+04 -2.19725E+04  1.04630E+04 -2.66917E+04 -5.66145E+03
 -1.86519E+04 -1.66296E+04 -6.56237E+03 -1.88350E+04  3.97654E+03 -1.75111E+04  1.39814E+04 -1.65703E+04
  2.35048E+04 -1.19751E+04  3.03958E+04  1.63618E+03  2.24996E+04  1.81635E+04  4.01738E+03  3.39950E+04
 -1.72001E+04  2.88750E+04 -2.72259E+04  1.00238E+04 -2.02790E+04 -1.08059E+04 -4.03713E+03 -1.36478E+04
  2.70568E+03 -3.50876E+03 -3.95707E+03  5.83778E+03 -1.46692E+04  5.42778E+03 -1.54606E+04 -5.52918E+03
 -9.13815E+03 -1.70880E+04  5.06950E+03 -2.10818E+04  1.41370E+04 -1.55236E+04  1.59391E+04 -1.02215E+03
  9.82988E+03  1.17584E+04 -8.53410E+02  1.72413E+04 -1.13812E+04  1.00705E+04 -1.70762E+04 -3.52889E+03
 -1.23665E+04 -1.57444E+04 -1.72847E+03 -2.06504E+04  9.35017E+03 -1.67504E+04  1.72589E+04 -7.97499E+03
  1.60034E+04  8.69783E+02  1.17450E+04  3.56242E+03  6.16324E+03  8.30807E+02  7.40840E+03 -1.08227E+03
  1.52582E+04  2.74436E+03  1.68008E+04  1.37404E+04  1.09486E+04  2.71545E+04 -3.10512E+03  3.01860E+04
 -1.70440E+04  2.39348E+04 -2.72013E+04  1.11434E+04 -2.84234E+04 -2.12730E+03 -2.37022E+04 -1.66326E+04
 -1.11440E+04 -2.33628E+04  8.10829E+03 -2.20158E+04  1.84271E+04 -1.23736E+04  1.73043E+04  4.79598E+03
  6.99355E+03  1.32864E+04 -7.53839E+03  1.11778E+04 -1.45947E+04  1.78146E+03 -1.10873E+04 -8.69183E+03
  1.54131E+02 -1.39926E+04  6.40046E+03 -1.03909E+04  9.65857E+03 -1.30456E+03  1.88906E+03  5.67660E+03
 -6.52389E+03  2.07292E+03 -4.48728E+03 -5.40880E+03  1.26205E+02 -1.22018E+04  8.67735E+03 -1.16816E+04
  1.39718E+04 -5.90822E+03  1.49674E+04  2.55207E+03  1.22900E+04  1.13916E+04  5.82197E+03  1.61243E+04
 -2.69061E+03  1.90672E+04 -1.14136E+04  1.12293E+04 -1.30658E+04  2.91597E+03 -9.47296E+03 -2.42850E+03
 -4.70854E+03 -4.18742E+03 -8.84546E+02  1.16378E+03 -2.18223E+03  2.18562E+03 -4.79004E+03  3.64238E+03
 -9.24237E+03 -8.07625E+02 -9.83595E+03 -8.28870E+03 -4.62697E+03 -1.32575E+04  4.21153E+03 -9.97563E+03
  7.47926E+03 -4.33821E+03  6.23180E+03  2.68478E+03  9.98991E+02  3.33680E+03 -4.19088E+03 -2.64882E+02
 -3.99229E+03 -6.15811E+03 -1.23677E+03 -8.31675E+03  4.72168E+03 -9.70233E+03  1.16425E+04 -5.23248E+03
  1.37369E+04  9.35265E+02  1.03301E+04  7.74917E+03  2.32894E+03  1.01547E+04 -5.75123E+03  9.52327E+03
 -8.30379E+03  2.85532E+03 -4.33034E+03 -1.23290E+03  1.54506E+03 -1.91845E+03  5.22333E+03 -1.31820E+03
  4.53940E+03  4.66922E+03  9.25398E+02  7.29222E+03 -4.93305E+03  7.50065E+03 -9.99924E+03  2.13915E+03
 -6.03339E+03 -4.88866E+03 -2.43445E+02 -8.01598E+03  4.82675E+03 -4.26122E+03  5.13207E+03  1.43826E+03
  9.72054E+02  4.67532E+03 -5.09821E+03  6.53761E+03 -6.60609E+03  2.63172E+03 -6.13041E+03 -1.79524E+03
 -4.06613E+03 -7.39873E+03  1.57671E+03 -9.18738E+03  7.35423E+03 -5.62563E+03  8.04633E+03  1.39374E+03
  5.75305E+03  6.84686E+03 -2.45641E+02  9.15899E+03 -6.43108E+03  5.06772E+03 -6.34811E+03 -3.72643E+02
 -6.95421E+03 -5.71005E+03 -1.38039E+03 -6.00932E+03  2.83485E+03 -6.06196E+03  3.63268E+03 -3.43191E+03
  3.02103E+03  1.10120E+03 -1.00347E+02  1.55340E+03  2.83995E+02 -1.08626E+03  4.10205E+02 -2.84593E+03
  5.10145E+03 -1.62258E+03  7.53205E+03  1.03354E+03  7.27234E+03  4.03844E+03  5.93236E+03  9.45248E+03
 -1.73168E+03  1.13748E+04 -9.39433E+03  8.62958E+03 -1.28903E+04  1.37018E+03 -9.48598E+03 -3.65318E+03
 -5.02799E+03 -7.97498E+03  1.47084E+02 -6.81676E+03  2.82532E+03 -2.59427E+03  2.43136E+03 -2.52113E+03
  1.45878E+03 -1.44042E+03  2.60368E+03 -2.57732E+03  3.69444E+03 -1.52938E+03  4.32021E+03  4.17651E+02
  5.63087E+03  1.27330E+03  2.11307E+03  4.54541E+03 -1.79513E+03  4.23240E+03 -5.91483E+03  3.75823E+03
 -6.16707E+03 -8.06196E+02 -3.51613E+03 -4.22431E+03  3.00127E+02 -6.64528E+03  4.00368E+03 -7.00694E+03
  7.29491E+03 -4.35958E+03  8.38623E+03  8.68161E+02  6.21607E+03  6.28365E+03  8.65569E+02  7.86673E+03
 -2.91454E+03  7.41746E+03 -4.77041E+03  2.52901E+03 -2.53492E+03 -2.02171E+03 -6.49511E+02 -6.36527E+02
 -5.58667E+02  6.75218E+02 -7.57397E+02  2.59517E+03 -2.69806E+03  1.17714E+03 -4.71852E+03 -7.37152E+02
 -2.17486E+03 -5.21929E+03  3.99195E+02 -6.71005E+03  3.90153E+03 -5.70678E+03  5.20960E+03 -1.82380E+03
  5.76984E+03  2.98127E+03  2.68900E+03  5.26620E+03 -1.43434E+03  6.24035E+03 -3.37017E+03  3.25628E+03
 -5.51845E+03 -1.70694E+02 -4.09691E+03 -3.78055E+03 -1.46090E+02 -5.37076E+03  2.32988E+03 -3.88382E+03
  3.83306E+03 -1.69188E+03  2.17762E+03  1.36389E+03  7.54056E+02  2.02167E+03  6.80683E+02  9.39348E+02
  1.98395E+03  4.98913E+02  1.82724E+03  1.30045E+03  2.13448E+03  2.75547E+03  1.90865E+03  2.92430E+03
 -1.87493E+03  4.03819E+03 -3.75058E+03  5.01338E+03 -5.20490E+03  1.41241E+03 -5.97464E+03 -2.01021E+03
 -2.43213E+03 -5.85911E+03  7.48831E+02 -6.61546E+03  2.72059E+03 -3.50340E+03  4.33983E+03 -1.08677E+03
  3.07436E+03  1.93446E+03  1.06231E+03  2.60785E+03 -1.21943E+03  2.32298E+03 -1.74533E+03 -2.37339E+02
 -2.43164E+02 -2.47258E+03  1.55129E+03 -2.32378E+03  2.03704E+03 -1.43716E+03  1.84835E+03  8.33632E+02
  1.31391E+03  1.16308E+03  3.70139E+02  4.19766E+02  2.06211E+02  1.04297E+03  1.80405E+03 -2.33439E+02
 -2.82371E+02 -2.25419E+02  1.94771E+03  3.35573E+02  7.83897E+01  2.82815E+03 -3.36263E+02  3.75129E+03
 -3.27319E+03  1.75917E+03 -3.04225E+03  8.82572E+02 -3.02670E+03 -1.14166E+03 -1.07114E+03 -2.08755E+03
  3.80383E+02 -1.46882E+03  1.33726E+03 -1.62087E+03  7.16407E+02  1.74730E+03 -8.00818E+02  1.92858E+03
 -2.00661E+03  9.69317E+02 -2.50437E+03 -1.47111E+03 -1.36317E+03 -2.83179E+03  7.48434E+02 -2.80113E+03
  1.20075E+03 -8.45055E+02  1.64897E+03  2.90986E+02  1.97061E+03  6.22423E+00  7.98401E+02  1.37413E+03
 -8.67769E+02  1.15988E+01 -1.12041E+03 -3.52416E+02  7.74620E+02 -1.89980E+03  1.92847E+03 -1.35100E+03
  2.14869E+03  1.94168E+02  3.68055E+03  1.24340E+03  1.77200E+03  2.43633E+03 -6.65170E+02  1.95366E+03
 -2.11479E+03  3.44679E+02 -2.05504E+03 -6.02681E+01 -1.23165E+03 -2.05669E+03  1.76779E+02 -1.64209E+03
  2.21923E+03 -1.55176E+03  1.67789E+03  6.65286E+02  1.79879E+02  2.27435E+03  1.12674E+02  1.53389E+03
 -4.44532E+02  7.47616E+02 -6.17159E+02  3.47981E+02  2.61628E+02  9.26365E+02 -9.42947E+02  9.51291E+02
 -1.10553E+03  1.86626E+03 -2.70246E+03  7.66219E+02 -2.56142E+03  3.10288E+02 -3.74528E+03 -1.53043E+03
 -1.18996E+03 -3.59506E+03  1.16630E+03 -4.25461E+03  2.35759E+03 -2.90448E+03  3.83619E+03 -8.63954E+02
  3.43838E+03  2.45851E+02  2.40029E+03  2.40623E+03 -4.18009E+02  2.56984E+03 -9.11306E+02  1.49789E+03
 -1.36419E+03  5.68193E+02 -8.21353E+02 -5.72120E+02 -5.35336E+02 -1.05861E+01 -2.63492E+02  1.74793E+02
 -1.31429E+03  4.41662E+02 -8.02004E+02  4.48758E+02 -9.61276E+01 -1.10315E+03 -3.76553E+02 -1.19355E+03
  1.74151E+03 -2.01808E+02  1.00397E+03  7.28553E+01  1.74969E+03  2.00964E+03  2.16981E+02  2.87980E+03
 -1.75982E+03  2.98519E+03 -2.56999E+03  1.75281E+03 -3.53158E+03  1.76237E+02 -2.03315E+03 -2.07985E+03
 -1.24092E+03 -2.48968E+03  1.27720E+02 -2.78460E+03  1.09945E+03 -1.52283E+03  1.22102E+03 -2.11135E+02
  1.08269E+03  6.97199E+02  5.81551E+02  6.65447E+02 -1.03449E+03 -4.31011E+02 -5.47906E+01 -5.42520E+02
  5.48750E+02  7.72981E+01  7.67171E+02  2.59029E+02  3.53252E+02  5.18679E+02 -2.03794E+02  4.46100E+02
 -1.17964E+03  1.22636E+03 -1.22551E+03  4.50844E+02 -1.32075E+03 -7.88826E+02  4.83614E+02 -1.89745E+03
  1.47826E+03 -1.01680E+03  1.44730E+03  1.85565E+02  1.58838E+03 -3.73579E+02  8.82493E+02  1.10858E+03
  6.23422E+01  1.37568E+03  1.14525E+02  1.16203E+03 -9.19169E+02  9.43379E+02 -6.56862E+02  6.65687E+02
 -1.37182E+02  1.08105E+02 -1.62563E+02 -2.17158E+02 -1.33418E+03  4.30733E+02 -9.84111E+02 -3.28799E+02
 -1.33416E+03 -4.83444E+02 -4.48649E+02 -1.47668E+03  8.12056E+02 -2.22599E+03  1.80266E+03 -7.94906E+02
  1.34085E+03 -5.84744E+01  1.58409E+02  4.82108E+02 -4.49651E+02  2.11000E+03 -1.56025E+03  1.68138E+03
