 $NMID ID='MM_0lb_SNR400_9hz_g55_74.RAW', FMTDAT='(8E13.5)'
 TRAMP=1., VOLUME=1. $END
  3.09727E+05 -1.29499E+02  3.37996E+05  2.50371E+05  8.53692E+04  3.38754E+05 -1.33419E+05  2.51293E+05
 -1.91486E+05  8.35805E+04 -1.13496E+05 -3.28093E+04  2.17751E+02 -5.05862E+04  5.26714E+04 -1.20777E+03
  3.60873E+04  5.26046E+04 -1.72560E+04  7.62693E+04 -6.14974E+04  6.44268E+04 -8.54517E+04  3.26110E+04
 -8.31070E+04 -1.16242E+04 -5.83417E+04 -5.29637E+04 -1.54763E+04 -7.19926E+04  2.79633E+04 -4.71122E+04
  4.14887E+04  3.34535E+03  1.65837E+04  4.92039E+04 -3.47423E+04  4.82840E+04 -6.81240E+04 -3.35437E+02
 -5.58830E+04 -5.71962E+04 -6.92683E+03 -7.91771E+04  3.52525E+04 -5.72249E+04  5.06885E+04 -1.91650E+04
  4.51812E+04  1.18261E+04  3.30780E+04  2.66238E+04  1.56010E+04  3.13358E+04 -6.07441E+03  2.72931E+04
 -2.24147E+04  1.18222E+04 -1.76164E+04 -5.79148E+03  7.24965E+03 -7.14243E+03  2.39013E+04  1.40224E+04
  6.96072E+03  3.67836E+04 -3.44361E+04  3.76027E+04 -6.54783E+04  1.96666E+03 -5.86850E+04 -4.42303E+04
 -1.27120E+04 -6.63559E+04  4.21811E+04 -4.73945E+04  6.30019E+04 -3.01275E+03  3.71918E+04  3.46390E+04
 -5.05309E+03  3.98926E+04 -3.13477E+04  1.92031E+04 -3.30211E+04 -3.56869E+03 -1.96348E+04 -1.20963E+04
 -9.53429E+03 -1.63724E+04 -3.23077E+02 -2.03139E+04  8.98421E+03 -2.34310E+04  1.56976E+04 -1.26984E+04
  1.03129E+04  5.82584E+03 -1.10439E+04  1.37627E+04 -2.40056E+04 -7.08805E+03 -9.12146E+03 -3.75240E+04
  2.55429E+04 -4.73266E+04  5.35764E+04 -2.01767E+04  4.91171E+04  2.03362E+04  1.79290E+04  4.73931E+04
 -1.65240E+04  3.60139E+04 -2.82340E+04  2.16502E+03 -1.11786E+04 -2.99769E+04  2.18186E+04 -3.71554E+04
  4.61980E+04 -1.09659E+04  4.06249E+04  2.48743E+04  2.19594E+04  5.13628E+04 -8.41403E+03  5.77506E+04
 -3.56735E+04  3.86275E+04 -4.72957E+04  1.15731E+04 -4.82395E+04 -1.89845E+04 -2.71143E+04 -4.26580E+04
  7.46807E+03 -4.29770E+04  3.43465E+04 -1.75162E+04  3.25928E+04  1.02628E+04  6.22846E+03  2.10278E+04
 -1.39252E+04  9.37390E+03 -1.21568E+04 -6.38574E+03  5.13908E+03 -1.15379E+04  1.96781E+04  6.04623E+03
  1.48276E+04  2.30670E+04 -4.69591E+03  2.82318E+04 -2.39016E+04  1.50051E+04 -3.17005E+04 -2.61000E+03
 -2.64724E+04 -1.88131E+04 -1.15777E+04 -2.57233E+04  4.38729E+03 -2.65272E+04  1.99596E+04 -2.31891E+04
  3.27639E+04 -1.42463E+04  3.83218E+04  5.53301E+03  2.71646E+04  2.56155E+04  4.36214E+03  4.15237E+04
 -1.94139E+04  3.42503E+04 -3.03389E+04  1.25784E+04 -2.32114E+04 -9.93160E+03 -5.64489E+03 -1.22532E+04
  4.39720E+01 -1.69265E+03 -8.00090E+03  8.94186E+03 -2.08270E+04  4.02512E+03 -2.03947E+04 -1.06129E+04
 -1.15969E+04 -2.33395E+04  5.92523E+03 -2.87323E+04  1.85579E+04 -2.02362E+04  2.36869E+04 -1.42175E+03
  1.55865E+04  1.66562E+04 -1.55719E+03  2.44024E+04 -1.69860E+04  1.35091E+04 -2.36197E+04 -4.63623E+03
 -1.79299E+04 -2.14826E+04 -2.35055E+03 -2.85423E+04  1.22478E+04 -2.33866E+04  2.27800E+04 -1.18248E+04
  2.22442E+04  1.31468E+02  1.57957E+04  5.71138E+03  9.41323E+03  1.40949E+03  1.26255E+04 -2.13742E+03
  2.30398E+04  3.08952E+03  2.63713E+04  1.83775E+04  1.82860E+04  3.84513E+04 -2.95975E+03  4.54303E+04
 -2.60497E+04  3.73264E+04 -4.30089E+04  1.98726E+04 -4.57441E+04 -2.61355E+03 -3.71999E+04 -2.65834E+04
 -1.53224E+04 -3.78343E+04  1.41757E+04 -3.30501E+04  2.78979E+04 -1.57790E+04  2.44834E+04  7.93158E+03
  8.55366E+03  1.94011E+04 -1.27760E+04  1.54453E+04 -2.03492E+04  2.65902E+03 -1.52865E+04 -1.28678E+04
 -1.76328E+02 -2.03549E+04  1.06323E+04 -1.51487E+04  1.30941E+04 -1.89018E+03  3.03534E+03  8.73515E+03
 -9.22694E+03  4.53721E+03 -8.97995E+03 -7.88706E+03 -2.15173E+03 -1.81819E+04  1.17414E+04 -2.05050E+04
  2.31937E+04 -1.16319E+04  2.61946E+04  3.61459E+03  2.35280E+04  1.96927E+04  1.06438E+04  3.00265E+04
 -6.20266E+03  3.19793E+04 -2.05354E+04  1.98513E+04 -2.27042E+04  3.27027E+03 -1.62582E+04 -6.16682E+03
 -5.54857E+03 -8.24901E+03 -6.20947E+02 -8.36341E+02 -3.32159E+03  3.56465E+03 -8.00275E+03  6.22009E+03
 -1.59573E+04 -7.89583E+02 -1.52387E+04 -1.16428E+04 -5.75183E+03 -1.97598E+04  6.55401E+03 -1.60860E+04
  1.36772E+04 -6.66143E+03  8.78862E+03  4.64375E+03 -7.63722E+02  6.80111E+03 -8.15405E+03  6.61099E+02
 -8.55219E+03 -1.02257E+04 -9.84538E+02 -1.63623E+04  9.78163E+03 -1.69094E+04  2.09640E+04 -8.93596E+03
  2.42761E+04  3.50928E+03  1.80668E+04  1.44397E+04  3.37622E+03  1.93723E+04 -9.94797E+03  1.54889E+04
 -1.30946E+04  4.75815E+03 -6.71456E+03 -3.25528E+03  2.27048E+03 -4.87147E+03  8.28080E+03 -1.00224E+03
  7.93971E+03  7.79173E+03  9.03556E+02  1.27012E+04 -9.11330E+03  1.27647E+04 -1.55822E+04  2.67359E+03
 -1.19606E+04 -8.22281E+03 -1.32862E+02 -1.34327E+04  9.05467E+03 -6.65573E+03  9.56003E+03  3.93408E+03
  3.00876E+03  1.03815E+04 -8.34530E+03  1.11962E+04 -1.39670E+04  4.72090E+03 -1.46960E+04 -6.59710E+03
 -7.94999E+03 -1.52499E+04  5.00927E+03 -1.89871E+04  1.56871E+04 -1.12144E+04  1.74746E+04  2.85687E+03
  1.04491E+04  1.38593E+04 -1.47302E+03  1.69650E+04 -1.16961E+04  8.98070E+03 -1.29248E+04 -1.57431E+03
 -1.13791E+04 -1.13057E+04 -1.55343E+03 -1.33679E+04  6.69683E+03 -1.04732E+04  8.02034E+03 -3.55891E+03
  5.47107E+03  2.23323E+03 -1.27986E+03  1.51880E+03 -8.71487E+02 -3.43726E+03  3.13090E+03 -7.22017E+03
  1.19216E+04 -5.38149E+03  1.67132E+04  2.23696E+03  1.63667E+04  1.13255E+04  1.06344E+04  2.16198E+04
 -4.81342E+03  2.54824E+04 -2.08403E+04  1.87039E+04 -2.68544E+04  3.32039E+03 -2.18959E+04 -9.16627E+03
 -1.06010E+04 -1.85674E+04 -6.78899E+02 -1.55984E+04  4.87983E+03 -8.20254E+03  5.71669E+03 -4.43969E+03
  3.72484E+03 -2.88237E+03  4.64586E+03 -4.10290E+03  6.82246E+03 -3.83807E+03  7.50160E+03 -1.68389E+03
  1.10886E+04  2.80608E+03  6.18196E+03  9.21307E+03 -2.30302E+03  1.20434E+04 -1.22604E+04  9.26998E+03
 -1.55660E+04 -1.05732E+03 -9.53667E+03 -1.10741E+04 -1.13105E+03 -1.73510E+04  9.69484E+03 -1.60320E+04
  1.73186E+04 -8.88416E+03  2.05708E+04  2.24329E+03  1.42264E+04  1.45304E+04  2.42902E+03  1.90224E+04
 -7.82109E+03  1.49434E+04 -1.08110E+04  4.76047E+03 -7.06937E+03 -2.01236E+03 -3.94504E+03 -1.47737E+03
 -1.21464E+03 -5.64373E+02 -2.47243E+03  3.26534E+03 -6.29542E+03  1.63082E+03 -1.00405E+04 -1.87658E+03
 -8.18351E+03 -1.04815E+04 -6.19812E+02 -1.54019E+04  9.11701E+03 -1.41140E+04  1.52601E+04 -4.37758E+03
  1.51128E+04  7.86188E+03  6.88335E+03  1.37203E+04 -2.99536E+03  1.53293E+04 -1.04705E+04  1.00442E+04
 -1.46463E+04  1.02968E+03 -1.07725E+04 -9.61011E+03 -6.31714E+02 -1.36140E+04  6.70403E+03 -9.94765E+03
  9.39529E+03 -3.35345E+03  6.99735E+03  3.22847E+03  1.84693E+03  4.43918E+03  1.35021E+03  1.46717E+03
  3.60026E+03  1.26286E+03  3.01171E+03  2.01786E+03  5.25677E+03  5.38284E+03  3.81088E+03  9.32848E+03
 -2.52530E+03  1.24202E+04 -1.11252E+04  1.31718E+04 -1.60672E+04  3.46826E+03 -1.70019E+04 -6.52899E+03
 -7.95506E+03 -1.57866E+04  2.60307E+03 -1.80485E+04  9.87207E+03 -1.10110E+04  1.32613E+04 -3.33931E+03
  9.27611E+03  6.12408E+03  2.10558E+03  9.14264E+03 -4.58159E+03  6.05923E+03 -5.34652E+03 -1.45165E+03
 -3.40802E+03 -6.00864E+03  3.66410E+03 -6.92192E+03  6.62083E+03 -3.89829E+03  5.94591E+03  1.62999E+03
  4.02251E+03  3.28039E+03  8.10877E+02  2.46610E+03 -6.35819E+02  2.15342E+03  1.59523E+03 -7.96971E+02
  2.41794E+03 -7.85052E+01  5.86847E+03  2.00878E+03  4.06991E+03  7.99061E+03 -1.20675E+03  1.13373E+04
 -7.70826E+03  7.62741E+03 -1.03675E+04  2.75239E+03 -9.26327E+03 -3.58997E+03 -3.46775E+03 -5.95131E+03
  1.17878E+02 -5.96788E+03  4.84158E+03 -3.18656E+03  2.93195E+03  2.95908E+03 -9.76498E+02  4.81358E+03
 -6.75060E+03  2.69551E+03 -7.42455E+03 -4.23684E+03 -4.28915E+03 -8.34870E+03  9.05200E+02 -8.59788E+03
  5.19613E+03 -5.08095E+03  7.08250E+03 -1.22806E+03  5.34984E+03  2.53942E+03  5.26964E+02  4.35344E+03
 -3.60605E+03  1.36870E+03 -3.21236E+03 -3.33365E+03  1.77496E+03 -7.73929E+03  7.85168E+03 -5.43591E+03
  1.03839E+04 -4.27343E+02  1.04029E+04  6.78306E+03  3.07479E+03  9.62940E+03 -3.90080E+03  9.27557E+03
 -8.84138E+03  4.70550E+03 -8.60318E+03 -1.29786E+03 -4.74506E+03 -6.36228E+03  1.42310E+03 -6.36821E+03
  6.48737E+03 -3.49969E+03  4.83129E+03  2.69911E+03  1.62470E+03  5.69900E+03 -4.92947E+02  4.57505E+03
 -2.74343E+03  3.99886E+03 -2.76288E+03  1.61471E+03 -1.34052E+03  1.15076E+03 -1.97581E+03  1.41645E+03
 -2.46085E+03  3.87868E+03 -6.52805E+03  3.61998E+03 -1.04084E+04 -1.00971E+02 -1.20508E+04 -6.70811E+03
 -6.97790E+03 -1.39893E+04  3.38233E+03 -1.67972E+04  1.02028E+04 -1.27704E+04  1.49886E+04 -4.68166E+03
  1.40625E+04  3.09056E+03  9.56751E+03  1.01498E+04  8.39935E+02  1.07828E+04 -4.17323E+03  8.15444E+03
 -5.96980E+03  2.48883E+03 -3.70909E+03 -1.31740E+03 -1.04640E+03  1.02895E+02 -3.51213E+02 -1.28023E+02
 -2.57895E+03 -4.70960E+02 -2.42657E+03 -3.51702E+02 -1.68636E+03 -1.71771E+03  7.43094E+02 -3.60098E+03
  5.04976E+03 -3.59585E+03  6.50524E+03 -2.82887E+02  8.04018E+03  5.55355E+03  2.55824E+03  1.15593E+04
 -6.21461E+03  1.20492E+04 -1.13235E+04  7.35362E+03 -1.29403E+04 -8.90393E+02 -1.04612E+04 -7.82343E+03
 -4.52253E+03 -1.13106E+04  3.14692E+03 -9.74224E+03  7.64752E+03 -6.11256E+03  7.13806E+03 -5.29538E+01
  3.85443E+03  3.68079E+03 -9.00206E+02  3.57466E+03 -2.31913E+03 -6.40747E+02  9.90163E+02 -3.60834E+03
  3.04023E+03 -1.43911E+03  5.11216E+03  1.46856E+03  2.67804E+03  4.30261E+03 -3.12796E+02  5.17445E+03
 -5.59851E+03  5.50338E+03 -7.03230E+03  2.72569E+02 -6.45688E+03 -5.03078E+03 -1.23357E+03 -9.75684E+03
  5.55466E+03 -8.33733E+03  9.02099E+03 -2.21933E+03  7.98266E+03  2.13422E+03  4.25365E+03  7.09176E+03
  8.89811E+02  6.72451E+03 -2.65896E+03  6.05939E+03 -3.90254E+03  3.87376E+03 -4.17866E+03  1.07241E+02
 -1.38525E+03  5.59970E+02 -1.55993E+03  8.22985E+01 -3.78108E+03  2.00282E+03 -5.20727E+03 -7.34781E+02
 -5.70628E+03 -3.75745E+03 -2.34028E+03 -7.52409E+03  3.60229E+03 -8.65052E+03  7.08188E+03 -3.28523E+03
  7.45704E+03  5.20974E+02  3.71123E+03  5.26893E+03 -6.16565E+02  6.70786E+03 -5.71730E+03  5.04356E+03
