 $NMID ID='MM_0lb_SNR400_16hz_g55_47.RAW', FMTDAT='(8E13.5)'
 TRAMP=1., VOLUME=1. $END
  3.10001E+05  4.68162E+02  3.37866E+05  2.50622E+05  8.44974E+04  3.38106E+05 -1.32841E+05  2.51456E+05
 -1.89905E+05  8.37614E+04 -1.11367E+05 -3.21991E+04  1.01328E+03 -5.08303E+04  5.40446E+04 -1.16193E+02
  3.54286E+04  5.30059E+04 -1.67077E+04  7.46692E+04 -6.06417E+04  6.33423E+04 -8.34884E+04  3.23235E+04
 -8.03026E+04 -1.16425E+04 -5.67926E+04 -5.13637E+04 -1.52655E+04 -6.96582E+04  2.75204E+04 -4.56174E+04
  4.00025E+04  4.17060E+03  1.63283E+04  4.74022E+04 -3.42351E+04  4.66162E+04 -6.65792E+04  5.62217E+02
 -5.30607E+04 -5.69025E+04 -6.69050E+03 -7.69673E+04  3.43770E+04 -5.51953E+04  4.72520E+04 -1.73770E+04
  4.28700E+04  1.09966E+04  3.19971E+04  2.54698E+04  1.58114E+04  2.92532E+04 -5.14356E+03  2.73019E+04
 -2.20630E+04  1.23988E+04 -1.88172E+04 -4.70948E+03  4.91629E+03 -7.36192E+03  2.20480E+04  1.25768E+04
  7.36286E+03  3.50520E+04 -3.17578E+04  3.50166E+04 -6.27808E+04  1.92927E+03 -5.65130E+04 -4.26393E+04
 -1.29215E+04 -6.30430E+04  3.89939E+04 -4.55803E+04  5.75338E+04 -2.21001E+03  3.34716E+04  3.21385E+04
 -6.20390E+03  3.51782E+04 -2.98860E+04  1.55295E+04 -2.98757E+04 -3.90380E+03 -1.57766E+04 -1.06519E+04
 -7.87835E+03 -1.30556E+04 -8.69595E+02 -1.78156E+04  7.00894E+03 -2.26113E+04  1.51809E+04 -1.31377E+04
  1.14974E+04  5.30833E+03 -7.96120E+03  1.29269E+04 -2.11529E+04 -4.09714E+03 -7.86542E+03 -3.27248E+04
  2.26150E+04 -4.23831E+04  4.74118E+04 -1.90354E+04  4.44487E+04  1.85825E+04  1.53467E+04  4.37238E+04
 -1.64000E+04  3.30514E+04 -2.48338E+04  1.66057E+03 -1.01350E+04 -2.78234E+04  2.05700E+04 -3.32871E+04
  4.07453E+04 -8.53494E+03  3.43253E+04  2.37820E+04  1.74312E+04  4.59252E+04 -8.12852E+03  4.95511E+04
 -3.07560E+04  3.30427E+04 -4.05873E+04  9.38024E+03 -4.17602E+04 -1.62315E+04 -2.34980E+04 -3.73788E+04
  7.36604E+03 -3.66613E+04  3.07554E+04 -1.41106E+04  2.88587E+04  1.01960E+04  3.74601E+03  1.88997E+04
 -1.38566E+04  8.47323E+03 -1.02473E+04 -7.70251E+03  6.25208E+03 -1.08889E+04  1.81232E+04  6.84094E+03
  1.31450E+04  2.20812E+04 -6.36502E+03  2.46941E+04 -2.26501E+04  1.14784E+04 -2.69165E+04 -5.44208E+03
 -1.93035E+04 -1.69263E+04 -7.62936E+03 -1.99004E+04  4.35232E+03 -1.84808E+04  1.49754E+04 -1.74738E+04
  2.50882E+04 -1.23013E+04  3.11254E+04  1.61873E+03  2.28883E+04  1.95504E+04  4.42179E+03  3.49884E+04
 -1.75628E+04  2.98245E+04 -2.74486E+04  1.05881E+04 -2.05285E+04 -1.06819E+04 -4.30576E+03 -1.35164E+04
  1.86174E+03 -3.19822E+03 -3.97487E+03  6.55077E+03 -1.56559E+04  4.82467E+03 -1.56711E+04 -6.25243E+03
 -9.99117E+03 -1.81959E+04  5.26965E+03 -2.22513E+04  1.42008E+04 -1.59425E+04  1.73668E+04 -2.08768E+03
  1.07534E+04  1.28633E+04 -5.17787E+02  1.83777E+04 -1.24666E+04  9.86834E+03 -1.78463E+04 -4.64930E+03
 -1.32560E+04 -1.57842E+04 -2.04806E+03 -2.18424E+04  1.01019E+04 -1.84534E+04  1.89622E+04 -8.40765E+03
  1.71132E+04  1.27774E+03  1.23326E+04  4.08911E+03  5.90045E+03  7.42036E+02  9.39850E+03 -1.76767E+03
  1.57196E+04  2.52197E+03  1.75138E+04  1.41467E+04  1.17896E+04  2.87163E+04 -3.54481E+03  3.18160E+04
 -1.91720E+04  2.56705E+04 -2.93694E+04  1.23837E+04 -3.09318E+04 -2.19218E+03 -2.60717E+04 -1.77243E+04
 -1.07862E+04 -2.56462E+04  8.65060E+03 -2.29405E+04  2.00110E+04 -1.21414E+04  1.85394E+04  5.56712E+03
  6.96710E+03  1.38437E+04 -8.67180E+03  1.19367E+04 -1.50976E+04  3.30631E+03 -1.16012E+04 -9.02036E+03
 -5.44328E+02 -1.46381E+04  7.34568E+03 -1.08352E+04  9.71737E+03 -1.09460E+03  2.24296E+03  5.41849E+03
 -6.03123E+03  1.71299E+03 -4.92021E+03 -4.69602E+03 -3.52454E+02 -1.27392E+04  8.87986E+03 -1.31047E+04
  1.56529E+04 -6.69412E+03  1.56628E+04  3.39600E+03  1.38228E+04  1.17454E+04  6.10430E+03  1.82744E+04
 -2.49137E+03  2.01104E+04 -1.26088E+04  1.26089E+04 -1.45784E+04  2.99155E+03 -1.04530E+04 -2.57568E+03
 -5.22094E+03 -4.30218E+03 -6.19629E+02  1.65497E+03 -2.47883E+03  2.77611E+03 -4.98486E+03  4.09085E+03
 -9.88336E+03 -7.44005E+02 -1.07653E+04 -8.36300E+03 -3.91040E+03 -1.38681E+04  4.40217E+03 -9.94049E+03
  8.36417E+03 -4.48426E+03  6.39869E+03  2.42910E+03  3.05726E+02  4.13303E+03 -4.80582E+03  5.11399E+00
 -4.70695E+03 -6.60047E+03 -4.67139E+02 -9.51680E+03  5.61933E+03 -1.04544E+04  1.27547E+04 -5.06323E+03
  1.45491E+04  7.20815E+02  1.16063E+04  8.12567E+03  1.56328E+03  1.12033E+04 -6.67313E+03  1.02993E+04
 -8.50773E+03  3.07675E+03 -3.91107E+03 -2.17916E+03  2.08738E+03 -2.81936E+03  5.76583E+03 -1.27758E+03
  4.81970E+03  4.63974E+03  1.04793E+03  7.71087E+03 -5.73360E+03  8.13345E+03 -9.83403E+03  2.16438E+03
 -5.88278E+03 -5.10455E+03  3.72680E+02 -8.43045E+03  5.15016E+03 -3.48397E+03  5.29137E+03  1.34117E+03
  1.47641E+03  4.84306E+03 -4.96694E+03  6.52031E+03 -7.18735E+03  3.11074E+03 -6.69453E+03 -1.79325E+03
 -4.35325E+03 -8.53048E+03  1.51084E+03 -9.62753E+03  8.24241E+03 -6.40934E+03  9.26751E+03  1.12003E+03
  5.81855E+03  8.02061E+03  1.10534E+02  9.36471E+03 -6.59405E+03  5.02151E+03 -7.08958E+03 -8.36602E+02
 -6.80652E+03 -6.94870E+03 -1.40065E+03 -6.93372E+03  3.35278E+03 -5.73215E+03  3.74666E+03 -3.43379E+03
  2.72084E+03  4.58858E+02 -7.67859E+02  2.04910E+03  2.73545E+02 -3.11730E+02  2.37640E+02 -2.72263E+03
  6.04165E+03 -2.00348E+03  8.04504E+03  8.51762E+02  8.09888E+03  4.91233E+03  6.33648E+03  1.05580E+04
 -1.50554E+03  1.24359E+04 -1.09466E+04  9.26196E+03 -1.30733E+04  1.32828E+03 -1.02346E+04 -3.69914E+03
 -5.88478E+03 -8.72953E+03 -5.65896E+02 -6.71561E+03  2.49573E+03 -3.01502E+03  1.71520E+03 -2.75086E+03
  1.63378E+03 -1.57195E+03  2.86591E+03 -2.95915E+03  3.94694E+03 -1.84428E+03  4.46464E+03  1.23965E+02
  5.85444E+03  1.34070E+03  2.17952E+03  4.69615E+03 -1.10658E+03  4.04870E+03 -5.77646E+03  3.83215E+03
 -7.25386E+03 -7.06641E+02 -4.16079E+03 -4.70064E+03  1.19639E+02 -7.02101E+03  3.99775E+03 -7.53406E+03
  6.88195E+03 -4.14733E+03  9.58449E+03  1.01789E+03  6.14259E+03  6.03272E+03  1.22945E+03  8.30598E+03
 -2.32301E+03  7.88753E+03 -5.12682E+03  3.01870E+03 -2.88138E+03 -1.30418E+03 -4.63702E+02 -9.22185E+02
 -5.45172E+02  8.99478E+02 -9.00154E+02  1.62430E+03 -3.67988E+03  1.53294E+03 -4.96829E+03 -1.10120E+03
 -2.80497E+03 -5.26003E+03  4.56738E+02 -6.60932E+03  4.10243E+03 -6.09114E+03  5.93972E+03 -1.88089E+03
  6.07256E+03  3.64512E+03  3.24627E+03  5.41982E+03 -1.06445E+03  6.42203E+03 -4.29142E+03  4.35623E+03
 -5.68642E+03  1.10434E+03 -4.73818E+03 -3.24510E+03 -8.04558E+01 -5.32419E+03  2.22120E+03 -3.55470E+03
  3.81711E+03 -1.72773E+03  2.77767E+03  8.50691E+02  1.08804E+03  2.61717E+03  6.39975E+02  1.89001E+02
  1.43250E+03  7.39300E+02  1.60416E+03  1.31784E+03  1.28738E+03  2.56078E+03  2.06069E+03  3.06246E+03
 -1.73343E+03  4.41272E+03 -4.03196E+03  5.41366E+03 -4.98432E+03  1.73717E+03 -6.22040E+03 -1.20302E+03
 -2.29575E+03 -5.43482E+03  1.07502E+03 -7.06489E+03  3.01247E+03 -4.12011E+03  3.91301E+03 -1.62851E+03
  3.78948E+03  2.44793E+03  8.31469E+02  3.14480E+03 -1.60398E+03  2.36627E+03 -2.15868E+03 -9.15417E-01
 -8.21646E+02 -2.19750E+03  1.15566E+03 -2.59502E+03  2.18376E+03 -1.63126E+03  2.47236E+03  1.01133E+03
  1.39811E+03  1.53843E+03  1.42923E+03  5.53614E+02 -8.17288E+02  1.13591E+03  1.57154E+03 -3.19454E+02
  3.48064E+02 -8.87973E+01  2.71554E+03  1.53081E+03  6.18922E+02  3.27600E+03 -7.00518E+02  4.18897E+03
 -2.36175E+03  2.32058E+03 -3.15656E+03  5.46101E+02 -3.61970E+03 -5.68931E+02 -1.01576E+03 -1.76637E+03
  7.05514E+02 -1.68514E+03  1.74645E+03 -1.43319E+03  1.45932E+03  1.36476E+03 -4.51210E+02  1.87855E+03
 -2.29527E+03  1.06670E+03 -1.90774E+03 -1.66422E+03 -1.76581E+03 -2.86510E+03  1.42945E+02 -2.42092E+03
  1.29328E+03 -1.78426E+03  1.70365E+03 -3.39185E+02  2.10967E+03 -3.59885E+01  5.49224E+02  1.24267E+03
 -7.72564E+02  3.60832E+02 -1.15830E+03 -2.47820E+02  6.52321E+02 -1.77497E+03  2.50898E+03 -1.81007E+03
  3.04656E+03  7.53248E+02  3.48809E+03  1.75123E+03  1.11511E+03  3.02216E+03 -1.24835E+03  3.56652E+03
 -2.11830E+03  1.06927E+03 -2.43730E+03 -3.40948E+01 -1.07997E+03 -2.13253E+03  3.79630E+02 -1.51949E+03
  2.23174E+03 -3.00162E+02  1.56759E+03  8.15553E+02  5.57896E+02  2.04906E+03  6.07900E+01  1.71834E+03
 -4.84454E+02  1.16244E+03 -1.58966E+02  6.28127E+02 -4.80317E+01  1.27916E+03 -8.35662E+02  4.44723E+02
 -4.06857E+02  1.62815E+03 -2.93480E+03  7.46052E+02 -3.25114E+03  1.97774E+02 -3.48612E+03 -1.36079E+03
 -1.82803E+03 -3.49967E+03  5.52099E+02 -4.35963E+03  1.69473E+03 -3.78644E+03  4.43428E+03 -1.94356E+03
  4.19840E+03  2.52018E+02  1.80036E+03  2.18541E+03 -2.35134E+02  2.98688E+03 -1.27414E+03  1.76499E+03
 -8.69989E+02  5.24668E+02 -5.85605E+02  2.98439E+02 -4.05369E+02 -3.63941E+02 -2.51898E+02 -7.65878E+02
 -1.46450E+03  8.01399E+01 -1.14535E+03  3.30539E+02  2.38022E+02 -9.56599E+02 -6.82846E+02 -1.39583E+03
  1.76739E+03 -1.19747E+03  1.23525E+03  2.16346E+02  2.22675E+03  1.71394E+03  5.87298E+02  2.05595E+03
 -1.25381E+03  3.44675E+03 -3.02576E+03  1.75895E+03 -3.48658E+03 -6.92907E+02 -2.09351E+03 -1.77025E+03
 -1.70632E+03 -2.60972E+03  9.04764E+01 -2.35145E+03  1.49893E+03 -1.31398E+03  1.62267E+03  3.06217E+02
  8.66075E+02  7.61435E+02 -3.35424E+02  5.83995E+02 -6.39075E+02  1.41446E+02  1.14209E+02 -4.62296E+02
  2.63516E+02 -3.42429E+02  8.07463E+02  7.46553E+02  2.93292E+02  9.93372E+02 -2.56446E+01  5.64873E+02
 -1.09742E+03  1.27679E+03 -1.59555E+03 -4.17654E+02 -9.19006E+02 -1.45696E+03 -1.25610E+02 -1.98240E+03
  1.77170E+03 -1.48778E+03  1.08620E+03 -4.15551E+02  1.54031E+03 -1.29752E+02  6.13691E+02  1.13738E+03
  6.93741E+02  1.14650E+03 -3.79413E+02  1.46777E+03 -1.01531E+03  1.10993E+03 -4.73068E+02  1.12277E+02
  1.44617E+01  7.80491E+01 -7.65692E+02  2.76913E+02 -1.36865E+03 -3.36424E+02 -1.78810E+03 -4.66116E+02
 -2.04620E+03 -2.55253E+02  1.09154E+02 -1.17162E+03  1.01354E+03 -2.19927E+03  1.07509E+03 -3.38169E+02
  1.48811E+03 -3.04336E+02 -9.85957E+01  1.10469E+03 -7.81753E+02  1.43152E+03 -7.48411E+02  1.34451E+03
