 $NMID ID='MM_0lb_SNR400_7hz_g40_45.RAW', FMTDAT='(8E13.5)'
 TRAMP=1., VOLUME=1. $END
  3.09515E+05  6.08909E+02  3.38318E+05  2.51304E+05  8.50799E+04  3.38138E+05 -1.32750E+05  2.51464E+05
 -1.90237E+05  8.40528E+04 -1.12382E+05 -3.20517E+04  5.78090E+02 -5.10837E+04  5.37585E+04 -1.05820E+03
  3.59869E+04  5.34773E+04 -1.69940E+04  7.61518E+04 -6.07930E+04  6.51330E+04 -8.56910E+04  3.17785E+04
 -8.24893E+04 -1.17660E+04 -5.87296E+04 -5.31498E+04 -1.52368E+04 -7.14898E+04  2.86911E+04 -4.71115E+04
  4.22059E+04  4.42592E+03  1.68626E+04  4.91421E+04 -3.40840E+04  4.93607E+04 -6.82374E+04  1.08006E+03
 -5.55568E+04 -5.74173E+04 -7.55706E+03 -7.90311E+04  3.49989E+04 -5.71458E+04  5.00145E+04 -1.85264E+04
  4.51583E+04  1.06175E+04  3.36788E+04  2.55831E+04  1.61367E+04  3.07928E+04 -5.50589E+03  2.78759E+04
 -2.27601E+04  1.16598E+04 -1.80872E+04 -5.84142E+03  8.60269E+03 -7.75318E+03  2.35624E+04  1.41093E+04
  7.31169E+03  3.82620E+04 -3.40471E+04  3.76950E+04 -6.60854E+04  2.11747E+03 -5.83690E+04 -4.52493E+04
 -1.25245E+04 -6.68933E+04  4.27047E+04 -4.76691E+04  6.16720E+04 -3.12534E+03  3.78357E+04  3.50784E+04
 -5.78507E+03  4.05749E+04 -3.27823E+04  1.94442E+04 -3.30262E+04 -3.63812E+03 -2.03950E+04 -1.23044E+04
 -1.03447E+04 -1.50304E+04  5.93612E+02 -2.02892E+04  8.96448E+03 -2.45158E+04  1.62001E+04 -1.21956E+04
  9.98066E+03  5.42587E+03 -1.10856E+04  1.33831E+04 -2.35065E+04 -6.69908E+03 -9.01135E+03 -3.87572E+04
  2.61729E+04 -4.75770E+04  5.34258E+04 -2.03157E+04  4.94379E+04  2.16709E+04  1.79996E+04  4.74951E+04
 -1.62634E+04  3.64244E+04 -2.82716E+04  2.33799E+03 -1.19913E+04 -2.91604E+04  2.18049E+04 -3.77515E+04
  4.59255E+04 -1.14706E+04  4.19637E+04  2.50695E+04  2.16915E+04  5.17550E+04 -8.05765E+03  5.79371E+04
 -3.51286E+04  4.02953E+04 -4.95122E+04  1.16833E+04 -4.87899E+04 -1.92851E+04 -2.69201E+04 -4.29611E+04
  6.92354E+03 -4.27926E+04  3.50749E+04 -1.77506E+04  3.26779E+04  1.14718E+04  5.35056E+03  2.10194E+04
 -1.43971E+04  9.86176E+03 -1.12864E+04 -7.29910E+03  5.08404E+03 -1.19105E+04  1.89858E+04  5.07767E+03
  1.52960E+04  2.28142E+04 -4.53057E+03  2.74374E+04 -2.35119E+04  1.50816E+04 -3.23285E+04 -2.08197E+03
 -2.62387E+04 -1.79219E+04 -1.32378E+04 -2.59535E+04  4.81038E+03 -2.74806E+04  2.04321E+04 -2.54681E+04
  3.38707E+04 -1.46470E+04  3.98855E+04  4.63072E+03  2.78451E+04  2.48453E+04  5.50063E+03  4.26177E+04
 -1.99397E+04  3.42364E+04 -3.18477E+04  1.14704E+04 -2.35214E+04 -9.75888E+03 -5.07652E+03 -1.30709E+04
 -1.19203E+02 -2.88832E+02 -9.28319E+03  9.34943E+03 -2.22086E+04  5.64404E+03 -2.12531E+04 -1.06276E+04
 -1.19479E+04 -2.51857E+04  6.91037E+03 -2.88008E+04  1.98481E+04 -2.10078E+04  2.34499E+04 -1.77467E+03
  1.54785E+04  1.69029E+04 -1.16451E+03  2.43794E+04 -1.79683E+04  1.35385E+04 -2.49209E+04 -3.84891E+03
 -1.80008E+04 -2.15068E+04 -2.67359E+03 -2.94408E+04  1.33107E+04 -2.40906E+04  2.47647E+04 -1.35682E+04
  2.30753E+04  3.82737E+02  1.63295E+04  5.61761E+03  9.84128E+03  1.88402E+03  1.26911E+04 -2.10603E+03
  2.38536E+04  2.81619E+03  2.74962E+04  2.00149E+04  1.85682E+04  3.98746E+04 -2.90329E+03  4.65586E+04
 -2.69497E+04  3.90776E+04 -4.37824E+04  2.10384E+04 -4.80098E+04 -3.19758E+03 -3.94703E+04 -2.78263E+04
 -1.44796E+04 -3.96232E+04  1.45071E+04 -3.57893E+04  3.03162E+04 -1.59604E+04  2.48394E+04  9.40388E+03
  8.32422E+03  2.03309E+04 -1.16837E+04  1.72647E+04 -2.18571E+04  2.32115E+03 -1.74444E+04 -1.33113E+04
  7.66658E+02 -2.11140E+04  1.03060E+04 -1.46520E+04  1.40844E+04 -1.01129E+03  3.51693E+03  1.03599E+04
 -9.45945E+03  4.37054E+03 -9.63829E+03 -7.73660E+03 -2.38051E+03 -1.95541E+04  1.26352E+04 -2.10314E+04
  2.54321E+04 -1.25690E+04  2.89168E+04  2.57740E+03  2.52713E+04  2.07426E+04  1.14547E+04  3.24762E+04
 -5.13703E+03  3.44331E+04 -2.28792E+04  2.10458E+04 -2.48471E+04  3.94382E+03 -1.67451E+04 -7.06182E+03
 -7.66333E+03 -8.45843E+03 -2.34131E+02  1.01438E+03 -2.65875E+03  3.66504E+03 -8.70332E+03  5.66084E+03
 -1.57641E+04 -5.48985E+02 -1.59661E+04 -1.27254E+04 -6.72857E+03 -2.15199E+04  6.82820E+03 -1.67825E+04
  1.44681E+04 -8.46534E+03  1.03348E+04  4.11822E+03 -1.18444E+03  6.73196E+03 -8.28970E+03  2.24035E+01
 -8.17072E+03 -1.10295E+04 -1.39117E+03 -1.76148E+04  9.85930E+03 -1.87960E+04  2.22763E+04 -9.52383E+03
  2.58053E+04  2.95966E+03  1.88083E+04  1.52686E+04  3.76073E+03  2.16828E+04 -1.02979E+04  1.67636E+04
 -1.44860E+04  4.16971E+03 -6.99954E+03 -4.64317E+03  2.85954E+03 -3.98076E+03  9.48127E+03 -8.89618E+02
  7.81900E+03  7.50546E+03  1.95573E+03  1.38765E+04 -9.87968E+03  1.34883E+04 -1.76385E+04  4.70559E+03
 -1.20738E+04 -9.00252E+03 -7.83054E+01 -1.48680E+04  1.01816E+04 -7.05425E+03  9.28425E+03  3.64466E+03
  2.48711E+03  1.29141E+04 -8.38398E+03  1.30378E+04 -1.45979E+04  5.35314E+03 -1.68434E+04 -6.12314E+03
 -8.69858E+03 -1.70757E+04  3.84781E+03 -2.11501E+04  1.74762E+04 -1.19747E+04  1.99522E+04  3.96232E+03
  1.09192E+04  1.42765E+04 -1.28903E+03  1.70587E+04 -1.28422E+04  9.07072E+03 -1.47166E+04 -1.60296E+03
 -1.12569E+04 -1.22763E+04 -1.98632E+03 -1.39558E+04  5.83377E+03 -1.09369E+04  9.44927E+03 -3.84518E+03
  5.27718E+03  2.86975E+03 -1.06111E+03  2.82112E+03 -6.24094E+02 -3.68611E+03  3.12182E+03 -8.79319E+03
  1.30964E+04 -6.12086E+03  1.90455E+04  2.05182E+03  1.82291E+04  1.36446E+04  1.12568E+04  2.44655E+04
 -6.02787E+03  2.74871E+04 -2.22790E+04  2.02959E+04 -3.01102E+04  3.42455E+03 -2.34757E+04 -1.07537E+04
 -1.18245E+04 -1.93480E+04  2.41054E+02 -1.62145E+04  5.13890E+03 -1.00822E+04  5.58108E+03 -5.63811E+03
  3.81177E+03 -4.51660E+03  4.84297E+03 -4.73781E+03  6.44945E+03 -5.13642E+03  9.55908E+03 -1.81147E+03
  1.22241E+04  3.25519E+03  7.58889E+03  1.06225E+04 -2.55368E+03  1.30047E+04 -1.18271E+04  9.84213E+03
 -1.77259E+04 -2.11560E+03 -1.15893E+04 -1.11595E+04 -1.64612E+03 -1.81721E+04  1.04418E+04 -1.82315E+04
  2.01149E+04 -1.01336E+04  2.25659E+04  3.94480E+03  1.53504E+04  1.62738E+04  2.54897E+03  2.10129E+04
 -8.75160E+03  1.61778E+04 -1.28176E+04  5.66495E+03 -8.72936E+03 -1.98007E+03 -3.50803E+03 -3.41596E+03
 -1.82943E+03 -1.03398E+02 -3.52553E+03  3.79389E+03 -6.56126E+03  3.53842E+03 -1.17561E+04 -1.60361E+03
 -9.50201E+03 -1.20632E+04 -4.96406E+02 -1.70264E+04  1.11846E+04 -1.60726E+04  1.81104E+04 -5.20828E+03
  1.73328E+04  8.22137E+03  8.08399E+03  1.64828E+04 -3.63348E+03  1.76142E+04 -1.23318E+04  1.15124E+04
 -1.60438E+04  1.32160E+02 -1.24288E+04 -1.02792E+04 -1.21427E+03 -1.52064E+04  8.92978E+03 -1.19377E+04
  1.13192E+04 -2.82890E+03  7.45807E+03  3.44931E+03  3.25462E+03  4.93957E+03  1.63933E+03  2.14815E+03
  3.26030E+03  1.21793E+03  4.41809E+03  2.67138E+03  5.02450E+03  6.11940E+03  3.81390E+03  9.41324E+03
 -2.85903E+03  1.44283E+04 -1.30148E+04  1.41188E+04 -1.92117E+04  3.25993E+03 -1.90096E+04 -8.06057E+03
 -9.07789E+03 -1.87398E+04  2.70862E+03 -2.00220E+04  1.06227E+04 -1.24802E+04  1.47140E+04 -2.36949E+03
  1.18091E+04  6.05620E+03  3.41961E+03  1.10455E+04 -5.16605E+03  7.02685E+03 -7.96233E+03 -9.51257E+02
 -3.34871E+03 -8.41260E+03  4.57285E+03 -7.78646E+03  8.34118E+03 -4.89169E+03  7.01160E+03  1.47786E+03
  5.20333E+03  3.55327E+03  1.63190E+03  3.82771E+03 -8.62029E+02  2.96810E+03  1.28878E+03 -9.72554E+01
  2.72384E+03 -1.03297E+03  8.12355E+03  2.71533E+03  5.15197E+03  1.01268E+04 -1.32322E+03  1.31746E+04
 -9.12869E+03  9.59126E+03 -1.10608E+04  2.92688E+03 -1.09529E+04 -3.95082E+03 -4.22160E+03 -7.47029E+03
  2.45597E+03 -6.65668E+03  4.84456E+03 -3.10675E+03  4.33074E+03  3.32016E+03 -1.19734E+03  5.11298E+03
 -8.44804E+03  3.26871E+03 -8.74793E+03 -3.68147E+03 -5.25235E+03 -1.02324E+04  1.51615E+03 -1.06809E+04
  6.23069E+03 -7.19974E+03  7.91146E+03 -1.75840E+03  6.25556E+03  3.20439E+03  1.71815E+03  5.14617E+03
 -4.19513E+03  2.79760E+03 -3.80301E+03 -4.18845E+03  1.97464E+03 -8.34048E+03  9.44750E+03 -6.85005E+03
  1.24141E+04  1.73442E+03  1.16920E+04  8.49324E+03  4.08547E+03  1.32901E+04 -4.01881E+03  1.27795E+04
 -1.15928E+04  4.88016E+03 -1.13097E+04 -1.95323E+03 -6.53803E+03 -7.41278E+03  1.99892E+03 -8.18790E+03
  7.73461E+03 -3.58127E+03  7.23645E+03  3.33603E+03  2.87148E+03  7.32729E+03 -1.55370E+03  5.58177E+03
 -4.45711E+03  3.87949E+03 -2.77992E+03  5.70990E+02 -1.00172E+03  1.68050E+03 -1.32438E+03  1.38884E+03
 -2.93198E+03  4.76110E+03 -8.61875E+03  5.09832E+03 -1.30565E+04 -2.78303E+02 -1.47098E+04 -8.95068E+03
 -7.99592E+03 -1.75051E+04  3.06731E+03 -1.98209E+04  1.20531E+04 -1.46582E+04  1.93366E+04 -6.07692E+03
  1.86765E+04  3.54445E+03  1.14122E+04  1.23908E+04  1.56421E+03  1.40910E+04 -4.76811E+03  1.05099E+04
 -8.27442E+03  2.86076E+03 -4.97971E+03 -2.16520E+03 -2.29713E+03 -6.11278E+02 -6.11525E+02 -7.28891E+02
 -1.79417E+03 -1.44529E+02 -3.52664E+03  1.88386E+02 -1.25378E+03 -3.56501E+03  4.71405E+02 -4.53463E+03
  5.84196E+03 -4.36688E+03  7.37661E+03  3.33272E+02  1.04799E+04  6.47049E+03  2.14385E+03  1.34784E+04
 -5.99410E+03  1.60985E+04 -1.46814E+04  8.33699E+03 -1.66272E+04 -1.20064E+03 -1.25185E+04 -1.04389E+04
 -5.07590E+03 -1.52247E+04  3.06466E+03 -1.27028E+04  9.29483E+03 -6.70548E+03  1.03212E+04  1.75260E+03
  5.11866E+03  4.97675E+03 -1.01712E+03  3.79126E+03 -3.37382E+03  3.33307E+02 -4.78268E+02 -3.79345E+03
  3.97828E+03 -1.82741E+03  5.51244E+03  2.25120E+03  4.43322E+03  5.52214E+03 -4.01028E+02  7.58678E+03
 -6.32730E+03  6.36599E+03 -9.48322E+03  5.47491E+02 -8.61607E+03 -6.87023E+03 -7.37575E+02 -1.27456E+04
  6.68820E+03 -1.06674E+04  1.10181E+04 -3.04548E+03  1.07876E+04  2.80992E+03  6.13249E+03  9.29225E+03
  1.96143E+03  1.07610E+04 -4.38328E+03  8.32605E+03 -5.67445E+03  4.39898E+03 -5.07273E+03  9.27979E+01
 -2.76764E+03  1.27853E+02 -3.73469E+03  1.79486E+03 -5.02073E+03  2.08243E+03 -6.72610E+03 -6.33412E+02
 -7.06470E+03 -5.46076E+03 -2.68509E+03 -9.69433E+03  4.33238E+03 -9.76724E+03  8.96267E+03 -4.94620E+03
  9.64098E+03  1.62029E+03  5.58915E+03  7.60268E+03 -1.26821E+03  9.83401E+03 -6.69229E+03  5.52783E+03
