 $NMID ID='MM_0lb_SNR400_11hz_g40_45.RAW', FMTDAT='(8E13.5)'
 TRAMP=1., VOLUME=1. $END
  3.09769E+05  5.61493E+02  3.38647E+05  2.51347E+05  8.47143E+04  3.38273E+05 -1.32427E+05  2.51251E+05
 -1.90945E+05  8.31358E+04 -1.12630E+05 -3.19590E+04  8.18182E+02 -5.09693E+04  5.38077E+04  1.36964E+02
  3.54859E+04  5.23807E+04 -1.68198E+04  7.54114E+04 -6.12377E+04  6.42193E+04 -8.41372E+04  3.18016E+04
 -8.14540E+04 -1.11916E+04 -5.75090E+04 -5.20292E+04 -1.46123E+04 -7.02896E+04  2.81438E+04 -4.56886E+04
  4.03775E+04  3.84610E+03  1.62747E+04  4.81023E+04 -3.44614E+04  4.77068E+04 -6.74439E+04  5.76345E+01
 -5.33270E+04 -5.70592E+04 -7.15658E+03 -7.76176E+04  3.42115E+04 -5.57972E+04  4.84319E+04 -1.79302E+04
  4.40013E+04  1.20391E+04  3.18515E+04  2.61428E+04  1.58612E+04  3.01599E+04 -4.86428E+03  2.76157E+04
 -2.25720E+04  1.22221E+04 -1.87377E+04 -5.36399E+03  5.80607E+03 -7.46394E+03  2.21869E+04  1.29580E+04
  6.60758E+03  3.63474E+04 -3.24893E+04  3.57143E+04 -6.43899E+04  2.28395E+03 -5.69000E+04 -4.42348E+04
 -1.22387E+04 -6.45116E+04  4.02581E+04 -4.61340E+04  5.99327E+04 -2.14983E+03  3.44572E+04  3.27865E+04
 -6.04581E+03  3.73480E+04 -3.03415E+04  1.69092E+04 -3.05950E+04 -4.82075E+03 -1.74700E+04 -1.21098E+04
 -8.84006E+03 -1.34764E+04 -9.94973E+02 -1.96335E+04  8.15768E+03 -2.33341E+04  1.60502E+04 -1.32650E+04
  1.14798E+04  5.18184E+03 -8.41705E+03  1.28180E+04 -2.19688E+04 -5.48024E+03 -8.81192E+03 -3.46603E+04
  2.35530E+04 -4.55717E+04  4.94261E+04 -2.06209E+04  4.65742E+04  2.04228E+04  1.66403E+04  4.53614E+04
 -1.62101E+04  3.47496E+04 -2.63618E+04  2.72320E+03 -1.07412E+04 -2.82266E+04  2.16215E+04 -3.51609E+04
  4.22997E+04 -1.00030E+04  3.62709E+04  2.39086E+04  1.91269E+04  4.78613E+04 -7.90584E+03  5.28472E+04
 -3.26694E+04  3.53027E+04 -4.46074E+04  1.00350E+04 -4.45373E+04 -1.74433E+04 -2.43224E+04 -3.91849E+04
  7.24528E+03 -3.99446E+04  3.24102E+04 -1.58955E+04  2.98321E+04  1.05011E+04  5.02239E+03  1.98156E+04
 -1.31817E+04  9.06159E+03 -1.07371E+04 -8.05930E+03  5.45908E+03 -1.10729E+04  1.77159E+04  5.52182E+03
  1.43075E+04  2.27088E+04 -5.42143E+03  2.57245E+04 -2.26014E+04  1.25422E+04 -2.90746E+04 -3.94947E+03
 -2.24479E+04 -1.78357E+04 -9.48286E+03 -2.20769E+04  4.02243E+03 -2.20576E+04  1.74040E+04 -1.95959E+04
  2.80940E+04 -1.31034E+04  3.47893E+04  4.22145E+03  2.51233E+04  2.16493E+04  4.08620E+03  3.84539E+04
 -1.88012E+04  3.19479E+04 -2.92460E+04  1.05997E+04 -2.18564E+04 -1.04179E+04 -4.55125E+03 -1.37221E+04
  6.76893E+02 -3.03150E+03 -6.26144E+03  7.44989E+03 -1.79369E+04  5.36073E+03 -1.75238E+04 -8.71499E+03
 -1.06053E+04 -2.07574E+04  5.52930E+03 -2.41598E+04  1.62492E+04 -1.80674E+04  2.07283E+04 -1.68829E+03
  1.26682E+04  1.44086E+04 -9.02793E+02  2.05453E+04 -1.50071E+04  1.16825E+04 -2.01793E+04 -4.67269E+03
 -1.53946E+04 -1.91189E+04 -2.19897E+03 -2.47504E+04  1.10200E+04 -2.08788E+04  2.07236E+04 -1.06082E+04
  1.91438E+04  2.59993E+02  1.40057E+04  4.65426E+03  7.67470E+03  2.18057E+03  1.06662E+04 -2.13738E+03
  1.90676E+04  2.64571E+03  2.19892E+04  1.67499E+04  1.45210E+04  3.35298E+04 -2.12490E+03  3.82226E+04
 -2.23319E+04  3.14808E+04 -3.53704E+04  1.57605E+04 -3.80095E+04 -3.14428E+03 -3.10460E+04 -2.18196E+04
 -1.25417E+04 -3.14465E+04  1.14741E+04 -2.79732E+04  2.40122E+04 -1.30453E+04  2.07463E+04  6.74164E+03
  7.71794E+03  1.56475E+04 -9.29542E+03  1.37919E+04 -1.78172E+04  2.58280E+03 -1.36312E+04 -1.07162E+04
 -2.91963E+02 -1.77696E+04  9.07595E+03 -1.28089E+04  1.12260E+04 -2.49477E+02  2.73114E+03  8.01377E+03
 -7.34807E+03  3.43600E+03 -7.25023E+03 -5.85040E+03 -2.83217E+02 -1.55542E+04  1.04722E+04 -1.60434E+04
  1.93233E+04 -8.56440E+03  2.08613E+04  3.08944E+03  1.83079E+04  1.54732E+04  8.91373E+03  2.41505E+04
 -4.08776E+03  2.59273E+04 -1.71478E+04  1.65165E+04 -1.84590E+04  3.38289E+03 -1.38284E+04 -3.74881E+03
 -5.63730E+03 -6.19911E+03 -1.03791E+03  8.80797E+02 -2.89021E+03  3.35408E+03 -5.83853E+03  5.10699E+03
 -1.22359E+04 -3.56936E+02 -1.23784E+04 -1.03943E+04 -4.41467E+03 -1.70907E+04  5.11854E+03 -1.40017E+04
  1.04433E+04 -5.65289E+03  8.53648E+03  3.79612E+03 -3.43844E+02  4.81186E+03 -6.22542E+03  1.08148E+02
 -6.44057E+03 -8.24223E+03 -1.60003E+03 -1.17716E+04  7.59765E+03 -1.34710E+04  1.68990E+04 -6.79241E+03
  1.87746E+04  1.24333E+03  1.48423E+04  1.17737E+04  2.56370E+03  1.58482E+04 -7.52932E+03  1.40117E+04
 -1.01821E+04  4.18116E+03 -5.66408E+03 -3.38218E+03  1.84413E+03 -3.87103E+03  6.95448E+03 -7.94555E+02
  5.85299E+03  5.60970E+03  7.47153E+02  1.13573E+04 -7.97293E+03  9.55340E+03 -1.26518E+04  2.40903E+03
 -8.59921E+03 -6.79320E+03  8.25247E+02 -1.16537E+04  7.79295E+03 -5.82175E+03  7.24746E+03  2.48374E+03
  1.63527E+03  7.43894E+03 -7.20821E+03  9.30283E+03 -1.06991E+04  4.20366E+03 -1.06260E+04 -3.98641E+03
 -6.03289E+03 -1.21898E+04  2.55608E+03 -1.39340E+04  1.22721E+04 -9.46656E+03  1.32582E+04  2.04708E+03
  7.95690E+03  1.07077E+04 -1.22614E+03  1.35002E+04 -9.23040E+03  7.12571E+03 -1.00447E+04 -1.66137E+03
 -9.05417E+03 -9.55958E+03 -2.38854E+03 -8.79382E+03  5.51074E+03 -7.66778E+03  5.64190E+03 -2.77885E+03
  4.20766E+03  1.30165E+03 -6.19469E+02  1.75512E+03 -6.78307E+02 -2.84157E+03  1.99179E+03 -5.93075E+03
  8.51282E+03 -2.56329E+03  1.23990E+04  1.31079E+03  1.19081E+04  8.07906E+03  8.05253E+03  1.66336E+04
 -3.76364E+03  1.88285E+04 -1.58017E+04  1.38955E+04 -1.98426E+04  2.52922E+03 -1.63650E+04 -6.78571E+03
 -7.93310E+03 -1.31786E+04 -9.07538E+02 -1.10430E+04  4.24096E+03 -6.46320E+03  4.29351E+03 -4.37110E+03
  2.41589E+03 -2.66618E+03  3.40555E+03 -3.29017E+03  4.95535E+03 -3.44089E+03  5.47978E+03 -4.96497E+02
  8.85764E+03  1.33003E+03  4.29316E+03  7.52433E+03 -2.13450E+03  8.92606E+03 -9.39314E+03  6.63288E+03
 -1.11335E+04 -1.67925E+03 -6.80735E+03 -7.73824E+03  1.97337E+02 -1.18999E+04  6.88146E+03 -1.25370E+04
  1.24253E+04 -6.90991E+03  1.48936E+04  2.00801E+03  1.02990E+04  1.02557E+04  1.46272E+03  1.29508E+04
 -5.49460E+03  1.18775E+04 -7.30411E+03  3.88962E+03 -5.03745E+03 -2.19851E+03 -1.87196E+03 -1.50505E+03
 -1.28426E+03  2.11004E+02 -9.47322E+02  2.07052E+03 -4.98022E+03  2.46211E+03 -7.46923E+03 -1.32296E+03
 -5.37368E+03 -8.31249E+03  1.19464E+02 -1.11877E+04  6.24269E+03 -1.07502E+04  1.04310E+04 -3.34613E+03
  1.05375E+04  5.39335E+03  4.82207E+03  1.01254E+04 -2.68684E+03  1.05867E+04 -7.70755E+03  6.86979E+03
 -9.89962E+03  5.75265E+02 -7.99743E+03 -5.84056E+03 -1.23157E+03 -9.29447E+03  4.49415E+03 -6.29949E+03
  6.31029E+03 -1.67357E+03  5.38660E+03  2.13438E+03  1.71008E+03  3.27216E+03  1.21509E+03  1.16855E+03
  2.35200E+03  9.74477E+02  2.33215E+03  8.57413E+02  3.32600E+03  3.68648E+03  3.05740E+03  5.69344E+03
 -2.64389E+03  8.06901E+03 -6.99117E+03  8.43477E+03 -1.04963E+04  2.32891E+03 -1.17371E+04 -4.37708E+03
 -5.46935E+03 -1.05657E+04  1.56094E+03 -1.21177E+04  6.76544E+03 -7.94538E+03  9.54605E+03 -2.78163E+03
  6.88600E+03  3.79582E+03  9.73749E+02  6.43857E+03 -2.83010E+03  3.92199E+03 -4.61871E+03 -6.22177E+02
 -3.22183E+03 -4.50426E+03  1.67976E+03 -4.70748E+03  3.92623E+03 -2.75552E+03  4.25627E+03  7.77642E+02
  2.59001E+03  1.71916E+03  7.16784E+02  1.85616E+03 -5.58975E+02  1.57703E+03  1.73372E+03 -5.09355E+02
  1.60452E+03 -9.26545E+02  3.91716E+03  2.52529E+03  2.08174E+03  5.98077E+03 -9.81388E+02  7.31058E+03
 -5.24340E+03  4.85791E+03 -6.50671E+03  1.12158E+03 -6.31330E+03 -1.84907E+03 -1.99751E+03 -3.84261E+03
  3.63824E+02 -4.27821E+03  2.65802E+03 -2.05603E+03  1.93254E+03  2.75551E+03 -9.63738E+02  3.33139E+03
 -4.35482E+03  2.16750E+03 -5.35919E+03 -2.75416E+03 -3.46698E+03 -5.85967E+03  2.54607E+02 -5.89654E+03
  3.61247E+03 -2.87775E+03  3.81022E+03 -1.86577E+02  3.81400E+03  1.21859E+03  1.38953E+02  2.88383E+03
 -1.75929E+03  2.43848E+02 -2.99948E+03 -2.02174E+03  1.31223E+03 -4.38933E+03  4.88714E+03 -3.82779E+03
  6.48395E+03 -9.78989E+01  6.75197E+03  4.16501E+03  1.78689E+03  7.02283E+03 -1.71370E+03  6.13506E+03
 -5.31750E+03  2.90326E+03 -5.41107E+03 -7.32357E+02 -3.04796E+03 -4.12420E+03  1.10899E+03 -4.41284E+03
  3.57533E+03 -2.01183E+03  3.04122E+03  1.57316E+03  1.97664E+03  3.60019E+03 -6.79851E+02  3.51170E+03
 -1.81948E+03  2.38346E+03 -1.21631E+03  1.99600E+02 -1.04636E+03  2.46797E+02 -1.42489E+03  1.11471E+03
 -1.31071E+03  2.55367E+03 -4.33111E+03  2.16592E+03 -7.26868E+03 -1.52682E+02 -7.43646E+03 -4.18124E+03
 -4.15498E+03 -8.54934E+03  1.50192E+03 -1.04660E+04  6.61214E+03 -8.39095E+03  9.47209E+03 -2.88731E+03
  9.90610E+03  2.20177E+03  4.75659E+03  6.39406E+03 -1.25103E+02  6.87445E+03 -2.06335E+03  4.69727E+03
 -3.90222E+03  1.83876E+03 -2.08655E+03 -7.50453E+02 -6.46139E+02 -8.21021E+02 -9.23491E+02 -5.18035E+02
 -1.86088E+03  4.00973E+01 -1.44481E+03  1.35003E+02 -2.22045E+02 -1.94923E+03  3.95778E+02 -2.81411E+03
  3.41095E+03 -1.80511E+03  4.21924E+03  2.46101E+02  4.87773E+03  3.56517E+03  1.30839E+03  6.45178E+03
 -3.51740E+03  7.86367E+03 -7.03857E+03  4.30963E+03 -8.10170E+03 -1.26117E+03 -5.75785E+03 -4.32735E+03
 -2.49303E+03 -7.01207E+03  9.31926E+02 -5.79378E+03  4.77533E+03 -3.57463E+03  4.52204E+03 -4.34905E+02
  2.27777E+03  2.63480E+03  4.69207E+02  1.91977E+03 -1.50529E+03 -8.95053E+01  4.12153E+01 -1.74299E+03
  1.45907E+03 -7.29217E+02  2.01457E+03  5.01170E+02  1.84939E+03  2.90921E+03  1.31365E+02  2.99860E+03
 -2.90795E+03  3.17403E+03 -3.66839E+03  1.57628E+02 -4.40995E+03 -3.35077E+03 -5.19093E+02 -5.28841E+03
  3.15329E+03 -3.80273E+03  4.74483E+03 -1.69664E+03  5.51687E+03  7.28781E+02  3.38121E+03  4.22024E+03
  4.39844E+02  4.17876E+03 -1.49891E+03  3.73070E+03 -2.49498E+03  1.29603E+03 -3.04421E+03 -2.63553E+02
 -1.37622E+03  4.65426E+02 -7.50636E+02  2.32825E+02 -2.31272E+03  8.06028E+02 -3.13654E+03 -1.17423E+03
 -3.35601E+03 -1.59465E+03 -7.20635E+02 -4.64114E+03  2.70506E+03 -5.19443E+03  3.85956E+03 -2.63616E+03
  4.05659E+03  3.60180E+02  2.07396E+03  2.76160E+03  1.60399E+02  4.37488E+03 -2.77345E+03  3.44775E+03
