 $NMID ID='MM_0lb_SNR400_8hz_g55_67.RAW', FMTDAT='(8E13.5)'
 TRAMP=1., VOLUME=1. $END
  3.09891E+05 -1.69345E+02  3.37360E+05  2.50631E+05  8.44267E+04  3.38336E+05 -1.33016E+05  2.51857E+05
 -1.90101E+05  8.41090E+04 -1.12698E+05 -3.26983E+04 -1.14340E+01 -5.06582E+04  5.42826E+04 -3.51499E+02
  3.60693E+04  5.22456E+04 -1.65021E+04  7.58424E+04 -6.12338E+04  6.49241E+04 -8.51587E+04  3.29572E+04
 -8.21816E+04 -1.20744E+04 -5.84539E+04 -5.25699E+04 -1.47755E+04 -7.17871E+04  2.81928E+04 -4.67834E+04
  4.21555E+04  3.75980E+03  1.68436E+04  4.93459E+04 -3.44933E+04  4.88314E+04 -6.86176E+04  5.22557E+02
 -5.58175E+04 -5.87761E+04 -7.69669E+03 -7.92856E+04  3.47261E+04 -5.80024E+04  5.07115E+04 -1.82989E+04
  4.65275E+04  1.22261E+04  3.24381E+04  2.73854E+04  1.64995E+04  3.03126E+04 -5.95618E+03  2.78530E+04
 -2.21523E+04  1.27249E+04 -1.77943E+04 -6.52391E+03  6.95308E+03 -7.29935E+03  2.34793E+04  1.49294E+04
  7.39600E+03  3.86868E+04 -3.40439E+04  3.78024E+04 -6.63317E+04  2.15595E+03 -5.95980E+04 -4.57955E+04
 -1.28839E+04 -6.61296E+04  4.26752E+04 -4.82915E+04  6.13817E+04 -2.79999E+03  3.75009E+04  3.55732E+04
 -5.02535E+03  4.02269E+04 -3.27923E+04  1.97937E+04 -3.44550E+04 -3.59779E+03 -2.04716E+04 -1.20996E+04
 -9.49152E+03 -1.52465E+04 -3.15596E+02 -1.97547E+04  8.79549E+03 -2.40173E+04  1.72152E+04 -1.19875E+04
  1.02349E+04  6.56687E+03 -1.10967E+04  1.30002E+04 -2.40281E+04 -6.85087E+03 -9.01263E+03 -3.85239E+04
  2.60672E+04 -4.83422E+04  5.28843E+04 -2.12197E+04  5.01234E+04  2.09639E+04  1.78093E+04  4.83658E+04
 -1.70975E+04  3.68506E+04 -2.77204E+04  2.36166E+03 -1.22812E+04 -3.01909E+04  2.17170E+04 -3.80056E+04
  4.56341E+04 -1.18757E+04  4.14191E+04  2.56569E+04  2.24590E+04  5.26686E+04 -7.89191E+03  5.82084E+04
 -3.60749E+04  3.99294E+04 -4.98184E+04  1.24925E+04 -4.94283E+04 -1.86521E+04 -2.75846E+04 -4.37362E+04
  7.22898E+03 -4.32586E+04  3.46815E+04 -1.83044E+04  3.26607E+04  1.10718E+04  5.38583E+03  2.16258E+04
 -1.35076E+04  9.99109E+03 -1.20568E+04 -7.45529E+03  5.11562E+03 -1.17949E+04  1.97868E+04  5.03160E+03
  1.49800E+04  2.33635E+04 -5.07104E+03  2.86393E+04 -2.34467E+04  1.54227E+04 -3.15688E+04 -2.01872E+03
 -2.70326E+04 -1.95542E+04 -1.33295E+04 -2.61388E+04  3.92329E+03 -2.72894E+04  2.09594E+04 -2.44060E+04
  3.37067E+04 -1.51634E+04  3.97398E+04  5.29543E+03  2.83055E+04  2.54789E+04  4.69541E+03  4.25102E+04
 -2.05105E+04  3.47374E+04 -3.13157E+04  1.18491E+04 -2.38011E+04 -9.80318E+03 -5.37136E+03 -1.32811E+04
  4.22937E+02 -5.44781E+02 -8.79653E+03  8.18213E+03 -2.18607E+04  4.86233E+03 -2.16700E+04 -1.05886E+04
 -1.27894E+04 -2.44191E+04  6.77093E+03 -2.90674E+04  1.96286E+04 -2.09600E+04  2.39680E+04 -2.34592E+03
  1.57010E+04  1.69195E+04 -1.45189E+01  2.40367E+04 -1.75774E+04  1.43134E+04 -2.52680E+04 -5.04538E+03
 -1.82423E+04 -2.26205E+04 -2.36748E+03 -2.94952E+04  1.31873E+04 -2.50335E+04  2.47552E+04 -1.29675E+04
  2.25389E+04 -1.07519E+03  1.65257E+04  4.60757E+03  9.51773E+03  2.12319E+03  1.29554E+04 -2.16259E+03
  2.36629E+04  3.31316E+03  2.74832E+04  1.84432E+04  1.85751E+04  3.96571E+04 -2.22214E+03  4.73920E+04
 -2.70132E+04  3.99402E+04 -4.46620E+04  2.06230E+04 -4.88002E+04 -3.39191E+03 -3.92122E+04 -2.80788E+04
 -1.49046E+04 -4.03265E+04  1.42018E+04 -3.53945E+04  3.00164E+04 -1.66317E+04  2.58175E+04  9.40706E+03
  8.12070E+03  2.07740E+04 -1.19880E+04  1.72774E+04 -2.15338E+04  2.24418E+03 -1.54987E+04 -1.43874E+04
 -7.55177E+02 -2.15793E+04  1.13761E+04 -1.53488E+04  1.48400E+04 -3.63124E+02  3.67214E+03  9.47523E+03
 -9.92467E+03  4.78504E+03 -1.02612E+04 -7.92027E+03 -3.11191E+03 -2.00329E+04  1.26746E+04 -2.15122E+04
  2.50306E+04 -1.21576E+04  2.85069E+04  2.67224E+03  2.48564E+04  2.03508E+04  1.19062E+04  3.23576E+04
 -5.70864E+03  3.50122E+04 -2.25749E+04  2.06738E+04 -2.48009E+04  4.31003E+03 -1.81992E+04 -5.97411E+03
 -6.92908E+03 -7.31941E+03 -2.27116E+02 -1.79972E+02 -3.20275E+03  3.95997E+03 -8.33210E+03  6.03710E+03
 -1.65981E+04 -1.00439E+02 -1.62231E+04 -1.20382E+04 -6.72703E+03 -2.10190E+04  6.91233E+03 -1.69866E+04
  1.31747E+04 -6.88675E+03  8.89851E+03  4.70112E+03  5.38480E+01  6.62257E+03 -9.01185E+03 -4.65720E+00
 -9.01209E+03 -1.05296E+04 -1.64797E+03 -1.65979E+04  1.00532E+04 -1.85293E+04  2.20318E+04 -9.12921E+03
  2.60826E+04  2.68431E+03  1.84302E+04  1.63724E+04  3.27093E+03  2.19763E+04 -1.04777E+04  1.69374E+04
 -1.40682E+04  4.92696E+03 -7.85062E+03 -4.04533E+03  3.25976E+03 -4.50436E+03  8.91730E+03 -1.29487E+03
  8.02442E+03  7.10904E+03  1.86511E+03  1.37889E+04 -1.03378E+04  1.23825E+04 -1.74415E+04  3.33506E+03
 -1.27736E+04 -9.45636E+03  1.43417E+02 -1.50225E+04  9.77407E+03 -7.52764E+03  9.64342E+03  4.14689E+03
  3.54964E+03  1.10671E+04 -8.60828E+03  1.34334E+04 -1.50000E+04  6.31384E+03 -1.61888E+04 -5.64603E+03
 -8.57612E+03 -1.75865E+04  4.67026E+03 -2.09595E+04  1.69317E+04 -1.28207E+04  1.87329E+04  3.01445E+03
  1.15551E+04  1.57312E+04 -1.26016E+03  1.83639E+04 -1.19389E+04  1.01346E+04 -1.44087E+04 -2.09106E+03
 -1.24027E+04 -1.12898E+04 -1.64678E+03 -1.31087E+04  7.37165E+03 -1.07491E+04  8.91504E+03 -2.74596E+03
  4.55078E+03  2.81499E+03 -1.41062E+03  1.95223E+03 -1.56842E+03 -3.61378E+03  3.48535E+03 -7.84657E+03
  1.30875E+04 -6.10453E+03  1.84351E+04  1.99173E+03  1.68922E+04  1.31462E+04  1.12682E+04  2.31861E+04
 -5.93591E+03  2.75892E+04 -2.22341E+04  1.99430E+04 -2.92690E+04  3.77660E+03 -2.43401E+04 -1.08705E+04
 -1.25834E+04 -1.88204E+04 -6.02061E+02 -1.64644E+04  6.22613E+03 -8.99132E+03  6.07205E+03 -6.02437E+03
  4.72685E+03 -3.98184E+03  3.79666E+03 -4.33490E+03  7.04319E+03 -4.22397E+03  8.48529E+03 -2.37651E+03
  1.11878E+04  3.10519E+03  7.64003E+03  1.07168E+04 -2.64283E+03  1.32264E+04 -1.35078E+04  9.91179E+03
 -1.74469E+04 -1.84608E+03 -1.02846E+04 -1.19571E+04 -1.54435E+03 -1.85736E+04  9.88742E+03 -1.78021E+04
  1.87248E+04 -1.04387E+04  2.31124E+04  3.91084E+03  1.45328E+04  1.57456E+04  1.86125E+03  2.06248E+04
 -8.79221E+03  1.66942E+04 -1.15980E+04  6.57806E+03 -8.02227E+03 -2.10843E+03 -3.55789E+03 -3.29542E+03
 -1.73422E+03 -5.03934E+02 -2.46397E+03  3.22654E+03 -7.45652E+03  2.44242E+03 -1.11892E+04 -1.41185E+03
 -7.90015E+03 -1.14324E+04 -1.06306E+03 -1.70529E+04  1.05907E+04 -1.59839E+04  1.77020E+04 -4.54224E+03
  1.70034E+04  7.88454E+03  8.62222E+03  1.54662E+04 -3.16421E+03  1.76118E+04 -1.18076E+04  1.11978E+04
 -1.63577E+04  1.07550E+03 -1.31241E+04 -1.01503E+04 -1.99826E+03 -1.44785E+04  7.99736E+03 -1.07582E+04
  1.13501E+04 -2.71553E+03  7.68042E+03  2.29897E+03  1.54124E+03  5.14291E+03  1.83625E+03  2.28632E+03
  3.07854E+03  5.83581E+02  4.20476E+03  2.08250E+03  5.38022E+03  5.33189E+03  4.48545E+03  9.59687E+03
 -2.84878E+03  1.39749E+04 -1.25071E+04  1.33695E+04 -1.88358E+04  3.37915E+03 -1.78821E+04 -8.11075E+03
 -8.72726E+03 -1.75995E+04  3.16454E+03 -1.89657E+04  1.04288E+04 -1.22768E+04  1.49725E+04 -3.32079E+03
  1.09652E+04  6.59237E+03  3.06016E+03  1.01059E+04 -5.81576E+03  6.67830E+03 -7.59490E+03 -9.59450E+02
 -3.28934E+03 -7.18118E+03  3.81927E+03 -7.91545E+03  7.40517E+03 -4.10208E+03  8.47241E+03  2.17537E+03
  5.19607E+03  4.83395E+03  1.55527E+03  3.13323E+03 -1.46698E+03  2.49404E+03  2.08278E+03 -5.04466E+02
  2.94119E+03 -8.31329E+02  7.03268E+03  2.14994E+03  3.93545E+03  8.72708E+03 -1.63742E+03  1.25225E+04
 -8.91699E+03  8.70038E+03 -1.13012E+04  2.36461E+03 -1.06516E+04 -4.34068E+03 -3.91233E+03 -8.70856E+03
  2.76868E+02 -6.44271E+03  4.52617E+03 -2.76443E+03  4.22665E+03  3.91668E+03 -1.06408E+03  5.55309E+03
 -7.85178E+03  2.86150E+03 -8.65331E+03 -4.66068E+03 -5.32228E+03 -9.58369E+03  1.37911E+03 -1.02148E+04
  4.97575E+03 -6.60458E+03  7.71742E+03 -3.94729E+02  4.72654E+03  3.44362E+03  6.57729E+02  6.13105E+03
 -4.14240E+03  1.49485E+03 -4.28639E+03 -4.65598E+03  1.59166E+03 -8.71862E+03  9.65603E+03 -6.10111E+03
  1.17749E+04  9.87536E+02  1.07617E+04  8.14300E+03  3.35487E+03  1.18943E+04 -4.29753E+03  1.28256E+04
 -9.76173E+03  5.49028E+03 -1.04743E+04 -1.17881E+03 -5.42348E+03 -7.82055E+03  1.98131E+03 -7.91272E+03
  7.61828E+03 -3.33665E+03  6.93445E+03  3.32562E+03  2.33908E+03  6.88723E+03 -1.55113E+03  5.64493E+03
 -3.54833E+03  4.19902E+03 -2.69059E+03  9.77444E+02 -2.18480E+03  7.39343E+02 -1.71634E+03  2.41368E+03
 -2.49126E+03  4.73270E+03 -8.06136E+03  4.55173E+03 -1.21958E+04  8.51738E+02 -1.27882E+04 -9.07473E+03
 -8.02176E+03 -1.59144E+04  3.47878E+03 -1.93936E+04  1.16973E+04 -1.49439E+04  1.81852E+04 -6.16548E+03
  1.62694E+04  4.03632E+03  1.10098E+04  1.17896E+04  1.42134E+03  1.28783E+04 -4.68464E+03  9.75767E+03
 -7.43660E+03  3.56312E+03 -4.74587E+03 -1.14412E+03 -1.53398E+03 -2.00891E+03 -7.98325E+02  5.82054E+02
 -2.30049E+03 -3.40234E+02 -2.33958E+03 -7.44431E+02 -1.09412E+03 -2.64652E+03  7.99624E+02 -4.89234E+03
  5.62040E+03 -4.07027E+03  8.71501E+03 -1.69909E+02  9.61877E+03  7.13735E+03  2.81296E+03  1.26571E+04
 -5.29676E+03  1.48263E+04 -1.41091E+04  9.01706E+03 -1.55339E+04 -8.42764E+02 -1.25598E+04 -9.41756E+03
 -4.89862E+03 -1.32904E+04  4.27391E+03 -1.19827E+04  8.36765E+03 -7.00085E+03  9.77842E+03  5.77461E+02
  4.83207E+03  4.79536E+03 -3.60867E+02  3.02562E+03 -2.71401E+03 -4.28140E+02  9.90730E+01 -4.09267E+03
  4.45913E+03 -1.82917E+03  4.72395E+03  1.70005E+03  3.54032E+03  4.72159E+03 -1.07566E+02  7.45415E+03
 -6.82508E+03  6.62761E+03 -9.27695E+03  7.81847E+02 -8.14403E+03 -7.02082E+03 -8.50175E+02 -1.13462E+04
  6.30593E+03 -1.02942E+04  1.03284E+04 -2.66241E+03  1.06508E+04  2.59532E+03  5.31606E+03  7.86000E+03
  1.09133E+03  9.40954E+03 -4.41263E+03  8.42046E+03 -5.98338E+03  3.58596E+03 -4.43016E+03  4.92401E+02
 -2.87054E+03 -2.28551E+02 -2.03697E+03  1.00591E+03 -4.91117E+03  1.11491E+03 -6.69989E+03 -5.72718E+02
 -6.59715E+03 -4.05382E+03 -1.94280E+03 -9.60967E+03  4.49959E+03 -8.67506E+03  7.41200E+03 -4.69305E+03
  8.79590E+03  1.31487E+03  4.94218E+03  5.57811E+03 -4.29415E+02  9.81563E+03 -6.51508E+03  5.58879E+03
