 $NMID ID='MM_0lb_SNR400_17hz_g55_50.RAW', FMTDAT='(8E13.5)'
 TRAMP=1., VOLUME=1. $END
  3.09830E+05  5.36820E+01  3.38102E+05  2.50057E+05  8.49672E+04  3.37865E+05 -1.32100E+05  2.51225E+05
 -1.89914E+05  8.26432E+04 -1.11272E+05 -3.35039E+04  1.14882E+03 -5.05965E+04  5.36564E+04 -5.93473E+00
  3.53203E+04  5.27716E+04 -1.65739E+04  7.49168E+04 -6.04070E+04  6.36458E+04 -8.32866E+04  3.21074E+04
 -8.05863E+04 -1.11477E+04 -5.71468E+04 -5.08746E+04 -1.49768E+04 -6.92356E+04  2.76382E+04 -4.51314E+04
  3.93647E+04  4.19200E+03  1.59971E+04  4.74496E+04 -3.38814E+04  4.69240E+04 -6.64967E+04 -1.51035E+02
 -5.29809E+04 -5.65612E+04 -6.34803E+03 -7.60165E+04  3.34630E+04 -5.44301E+04  4.70633E+04 -1.67414E+04
  4.23374E+04  1.11394E+04  3.15230E+04  2.51563E+04  1.59544E+04  2.92048E+04 -5.15008E+03  2.71890E+04
 -2.21421E+04  1.25612E+04 -1.85645E+04 -4.09501E+03  5.45776E+03 -7.91260E+03  2.19472E+04  1.20716E+04
  8.02004E+03  3.48396E+04 -3.17021E+04  3.47552E+04 -6.30620E+04  2.15060E+03 -5.58667E+04 -4.19961E+04
 -1.24317E+04 -6.21910E+04  3.89514E+04 -4.47952E+04  5.66833E+04 -1.97669E+03  3.35238E+04  3.18639E+04
 -6.55312E+03  3.47699E+04 -2.96939E+04  1.52146E+04 -2.91625E+04 -4.77888E+03 -1.56039E+04 -1.03153E+04
 -7.36574E+03 -1.26042E+04 -7.38488E+02 -1.68083E+04  7.16256E+03 -2.31917E+04  1.52680E+04 -1.30168E+04
  1.16982E+04  4.17691E+03 -7.25627E+03  1.29137E+04 -2.06617E+04 -3.71955E+03 -7.82091E+03 -3.22334E+04
  2.18534E+04 -4.24451E+04  4.65135E+04 -1.90049E+04  4.39242E+04  1.84417E+04  1.46482E+04  4.33973E+04
 -1.53698E+04  3.24265E+04 -2.47879E+04  1.32593E+03 -9.22232E+03 -2.69805E+04  2.10933E+04 -3.28830E+04
  3.99897E+04 -8.49716E+03  3.42835E+04  2.30779E+04  1.65280E+04  4.52503E+04 -7.24289E+03  4.80590E+04
 -3.00125E+04  3.19844E+04 -4.01545E+04  9.17827E+03 -4.09977E+04 -1.52212E+04 -2.26475E+04 -3.68046E+04
  6.86273E+03 -3.62640E+04  3.09802E+04 -1.35263E+04  2.84704E+04  1.10634E+04  3.39779E+03  1.88030E+04
 -1.34584E+04  8.07959E+03 -9.44939E+03 -8.29526E+03  5.73692E+03 -1.09887E+04  1.73858E+04  6.03430E+03
  1.26548E+04  2.16120E+04 -6.25290E+03  2.44203E+04 -2.22964E+04  1.03619E+04 -2.66329E+04 -5.30007E+03
 -1.89873E+04 -1.70340E+04 -7.47170E+03 -1.91954E+04  3.53463E+03 -1.78389E+04  1.45855E+04 -1.63301E+04
  2.41266E+04 -1.23934E+04  3.05246E+04  1.77297E+03  2.21168E+04  1.76830E+04  4.09005E+03  3.45937E+04
 -1.64443E+04  2.89325E+04 -2.68270E+04  9.89355E+03 -2.03716E+04 -1.02415E+04 -3.96981E+03 -1.38302E+04
  2.27741E+03 -3.19069E+03 -3.94348E+03  5.07667E+03 -1.43891E+04  5.24096E+03 -1.51769E+04 -5.32343E+03
 -9.66197E+03 -1.74081E+04  4.64224E+03 -2.10458E+04  1.39546E+04 -1.51938E+04  1.62630E+04 -1.60100E+03
  1.02239E+04  1.19726E+04 -6.48826E+02  1.79339E+04 -1.20096E+04  9.87345E+03 -1.74283E+04 -3.64004E+03
 -1.26452E+04 -1.55414E+04 -1.75918E+03 -2.11862E+04  9.73345E+03 -1.70285E+04  1.76086E+04 -7.82646E+03
  1.58782E+04 -1.13024E+02  1.16656E+04  3.53345E+03  6.09110E+03  8.37115E+02  8.35895E+03 -7.44139E+02
  1.56770E+04  2.74411E+03  1.72079E+04  1.38585E+04  1.13153E+04  2.80689E+04 -2.98564E+03  3.06181E+04
 -1.79211E+04  2.41096E+04 -2.88239E+04  1.15005E+04 -2.86548E+04 -1.57519E+03 -2.48047E+04 -1.62499E+04
 -1.05947E+04 -2.43101E+04  7.68667E+03 -2.20042E+04  1.85953E+04 -1.22113E+04  1.75039E+04  4.42297E+03
  6.51185E+03  1.24101E+04 -8.06811E+03  1.16042E+04 -1.45594E+04  2.70099E+03 -1.11636E+04 -8.45423E+03
 -1.22136E+02 -1.41519E+04  6.34433E+03 -1.04822E+04  9.03724E+03 -1.61185E+03  1.51193E+03  5.98823E+03
 -5.77751E+03  1.36598E+03 -4.41456E+03 -5.38557E+03 -3.84795E+02 -1.19837E+04  8.42051E+03 -1.19046E+04
  1.46802E+04 -6.00504E+03  1.43745E+04  2.65032E+03  1.27962E+04  1.13441E+04  5.95851E+03  1.72583E+04
 -2.39475E+03  1.84308E+04 -1.17115E+04  1.15651E+04 -1.34633E+04  3.19906E+03 -9.72386E+03 -1.89134E+03
 -4.64691E+03 -4.20200E+03 -8.76629E+02  1.09706E+03 -1.75982E+03  2.57755E+03 -4.37833E+03  3.76491E+03
 -9.07328E+03 -7.56731E+02 -1.01183E+04 -7.67763E+03 -3.85158E+03 -1.34668E+04  4.44635E+03 -9.91132E+03
  7.76904E+03 -4.24995E+03  6.25810E+03  2.85750E+03  1.08860E+03  3.23323E+03 -4.14434E+03 -3.56610E+02
 -4.82848E+03 -5.72023E+03 -9.84769E+02 -8.74279E+03  4.87718E+03 -9.88942E+03  1.13993E+04 -4.72937E+03
  1.37085E+04  9.41366E+02  1.04252E+04  7.79115E+03  1.62003E+03  1.03081E+04 -5.49370E+03  1.03196E+04
 -7.55141E+03  2.73136E+03 -3.94340E+03 -1.42119E+03  1.63549E+03 -2.55713E+03  5.61368E+03 -9.62147E+02
  4.30850E+03  3.97191E+03  1.42645E+03  7.95709E+03 -5.30568E+03  7.37687E+03 -9.26318E+03  2.25339E+03
 -4.79295E+03 -4.25578E+03  1.39755E+02 -7.40723E+03  4.68717E+03 -3.78073E+03  4.54358E+03  1.77462E+03
  9.89180E+02  4.44243E+03 -4.81751E+03  5.77651E+03 -5.80240E+03  2.85384E+03 -6.00638E+03 -1.46990E+03
 -4.04388E+03 -7.58851E+03  1.60199E+03 -9.03307E+03  7.58789E+03 -5.43024E+03  7.90720E+03  5.85438E+02
  5.18012E+03  6.62630E+03  2.98160E+02  8.41515E+03 -5.83477E+03  4.96246E+03 -6.56237E+03 -6.34631E+02
 -6.41832E+03 -6.23006E+03 -1.40535E+03 -6.24335E+03  2.94364E+03 -5.05805E+03  4.08491E+03 -2.51910E+03
  2.84431E+03  7.69663E+02 -1.33554E+02  1.41548E+03  1.08744E+03 -5.43565E+02  9.29216E+02 -3.22111E+03
  4.44281E+03 -1.80155E+03  7.03727E+03  5.58847E+02  7.53651E+03  3.88939E+03  6.37365E+03  9.27351E+03
 -1.79425E+03  1.09077E+04 -9.18497E+03  8.05178E+03 -1.14461E+04  1.88501E+03 -9.53901E+03 -3.58216E+03
 -5.54319E+03 -8.06966E+03 -6.26506E+02 -6.38452E+03  2.74062E+03 -3.14895E+03  2.46229E+03 -2.15901E+03
  1.61695E+03 -1.63522E+03  3.02717E+03 -2.49236E+03  3.97017E+03 -1.72061E+03  4.15848E+03  5.74657E+02
  5.81320E+03  1.79732E+03  2.11191E+03  3.89871E+03 -1.32133E+03  4.02665E+03 -4.96527E+03  3.40598E+03
 -5.76756E+03 -9.45212E+02 -3.06235E+03 -4.00789E+03  2.81778E+02 -6.40003E+03  4.22908E+03 -6.75710E+03
  6.62730E+03 -3.93323E+03  8.62054E+03  1.18101E+03  5.76259E+03  5.37860E+03  1.32125E+03  7.91559E+03
 -3.02221E+03  6.92265E+03 -4.31507E+03  2.08507E+03 -1.97510E+03 -9.44399E+02 -5.85124E+02 -1.11122E+03
 -6.26415E+02  5.33676E+02 -7.21703E+02  2.71321E+03 -3.26107E+03  5.25285E+02 -5.04437E+03 -5.10004E+02
 -2.48383E+03 -4.83723E+03  9.10843E+02 -5.82590E+03  3.51936E+03 -5.37127E+03  4.44776E+03 -9.71522E+02
  5.01499E+03  2.51935E+03  2.35181E+03  3.88646E+03 -1.07196E+03  5.48801E+03 -3.70463E+03  3.30723E+03
 -4.34901E+03  3.98090E+02 -3.68416E+03 -3.43236E+03 -4.09460E+02 -4.39301E+03  1.89245E+03 -3.05255E+03
  3.47879E+03 -1.19795E+03  1.78916E+03  4.63041E+02  2.93589E+02  2.37910E+03  1.39272E+03  4.51292E+02
  1.46383E+03  2.68147E+02  1.56076E+03  9.31020E+02  7.72783E+02  3.08347E+03  1.67683E+03  2.70081E+03
 -2.44232E+03  3.61930E+03 -3.35856E+03  4.67623E+03 -4.19495E+03  1.55639E+03 -5.94641E+03 -1.10985E+03
 -2.27722E+03 -4.66838E+03  4.63101E+02 -5.92424E+03  2.02591E+03 -3.38848E+03  3.79123E+03 -1.07570E+03
  2.72754E+03  2.15218E+03  6.85604E+02  2.79263E+03 -1.13600E+03  1.19857E+03 -1.91152E+03  2.58467E+02
 -1.20155E+03 -1.95341E+03  1.92829E+03 -2.29929E+03  2.01862E+03 -1.40851E+03  1.74504E+03  8.98598E+02
  8.16229E+02  3.01067E+02  6.06320E+02  2.54568E+02 -9.72513E+01  1.12276E+03  1.34597E+03 -1.23230E+02
  3.36515E+02 -4.10856E+02  2.15841E+03  2.36742E+02  4.60342E+02  3.00422E+03 -8.01821E+02  2.74783E+03
 -2.09026E+03  1.73935E+03 -2.70625E+03  9.92977E+02 -2.42512E+03 -9.37146E+02  1.20137E+02 -1.08416E+03
  1.09708E+02 -2.15694E+03  8.00771E+02 -1.33688E+03  1.11931E+03  9.47530E+02 -8.73834E+02  1.51614E+03
 -2.72129E+03  5.76631E+02 -1.43888E+03 -1.84340E+03 -2.29900E+02 -2.20552E+03 -5.88133E+01 -2.14290E+03
  7.83874E+02 -9.57748E+02  9.52999E+02  6.00487E+02  1.71471E+03  9.93069E+01  5.72284E+01  1.41219E+03
 -5.58178E+02  7.11077E+02 -1.30948E+03 -2.98048E+02  5.38043E+02 -9.12025E+02  1.68609E+03 -1.02632E+03
  2.19066E+03  6.23583E+02  3.05308E+03  8.49984E+02  1.63858E+03  2.04161E+03 -8.36908E+02  2.53787E+03
 -1.49462E+03  6.57992E+02 -2.21079E+03  7.83749E+01 -1.75207E+03 -1.65823E+03  1.40171E+03 -3.56981E+02
  1.94722E+03 -6.86676E+02  1.09591E+03  9.34108E+02 -1.21494E+02  1.71439E+03  4.22459E+02  1.77745E+03
 -3.36176E+02  9.68305E+02 -4.16652E+02  2.85264E+02  4.29474E+01  7.08697E+02 -7.46023E+00  3.18024E+02
 -1.13562E+03  1.09644E+03 -2.43269E+03  9.87960E+02 -2.53094E+03  6.89952E-02 -2.94336E+03 -8.37892E+02
 -1.81629E+03 -3.36249E+03  6.86589E+02 -3.25590E+03  1.55404E+03 -3.06175E+03  2.89921E+03 -1.33016E+03
  3.19778E+03 -1.47564E+02  1.48654E+03  1.98980E+03 -3.68342E+02  2.00620E+03 -8.34546E+02  1.08155E+03
 -1.16134E+03  9.59572E+02 -4.99443E+02 -1.46800E+02  1.73563E+02 -5.89979E+01 -6.89610E+02 -2.33037E+02
 -1.41799E+03 -7.19261E+02 -1.32530E+03  6.71270E+02  2.21821E+02 -1.25972E+03 -2.51538E+02 -1.11889E+03
  2.29032E+03 -3.41161E+02  3.75596E+02  3.86762E+02  1.35649E+03  9.04382E+02 -5.55028E+02  1.74575E+03
 -1.70262E+03  2.94579E+03 -2.17740E+03  1.28556E+03 -2.06652E+03 -5.91386E+02 -1.37239E+03 -2.00098E+03
 -9.62173E+02 -1.87248E+03  6.60830E+01 -1.38505E+03  6.93863E+02 -4.93183E+02  1.21221E+03 -6.07236E+02
  1.51096E+03  3.75319E+02 -3.85866E+02  4.91820E+02 -2.35993E+02 -2.50748E+02 -8.08677E+02 -1.56837E+02
  6.63432E+02 -1.17858E+01  7.24045E+02  2.69733E+02 -6.70736E+01  7.51493E+02  5.96006E+02  4.71699E+02
 -7.72021E+02  1.10690E+03 -1.06013E+03  1.81310E+02 -8.53821E+02 -4.69388E+02  2.22891E+02 -1.41252E+03
  8.54957E+02 -1.31585E+03  1.02267E+03  4.75841E+02  1.26330E+03 -6.84569E+02  4.17105E+02  7.89014E+02
 -1.45345E+02  8.90211E+02 -3.31629E+02  9.79636E+02 -2.88002E+02  1.64774E+02 -6.06311E+02  7.47960E+01
 -1.65299E+02 -5.79414E+02 -9.93680E+01  4.31378E+02 -1.02658E+03 -2.25099E+02 -1.11632E+03  2.51596E+01
 -9.05925E+02  2.54443E+02 -3.05102E+02 -1.30809E+03  9.60635E+02 -1.93292E+03  9.73041E+02 -8.83430E+02
  3.02542E+02  1.35145E+02 -8.18662E+02 -7.53546E+01 -1.94247E+02  1.46169E+03 -3.29431E+02  5.65557E+02
