 $NMID ID='MM_0lb_SNR400_10hz_g55_29.RAW', FMTDAT='(8E13.5)'
 TRAMP=1., VOLUME=1. $END
  3.09317E+05  2.87970E+02  3.38116E+05  2.51152E+05  8.48886E+04  3.38598E+05 -1.32526E+05  2.51517E+05
 -1.91506E+05  8.29937E+04 -1.12702E+05 -3.25051E+04  2.60509E+02 -5.13612E+04  5.36311E+04 -2.05447E+02
  3.57739E+04  5.29970E+04 -1.66266E+04  7.51276E+04 -6.16735E+04  6.49097E+04 -8.59155E+04  3.23700E+04
 -8.23236E+04 -1.10028E+04 -5.82401E+04 -5.25687E+04 -1.54265E+04 -7.10885E+04  2.84555E+04 -4.66353E+04
  4.04069E+04  3.19753E+03  1.60327E+04  4.83258E+04 -3.51716E+04  4.89282E+04 -6.80302E+04  2.37974E+02
 -5.41075E+04 -5.74905E+04 -7.60110E+03 -7.88238E+04  3.46191E+04 -5.70581E+04  4.94054E+04 -1.80624E+04
  4.55936E+04  1.11051E+04  3.38815E+04  2.65047E+04  1.54227E+04  3.08875E+04 -6.61053E+03  2.77921E+04
 -2.28079E+04  1.17669E+04 -1.77256E+04 -6.33937E+03  6.68284E+03 -7.91389E+03  2.23092E+04  1.32852E+04
  7.03621E+03  3.76014E+04 -3.39191E+04  3.66322E+04 -6.65054E+04  1.50364E+03 -5.90835E+04 -4.37504E+04
 -1.27585E+04 -6.55990E+04  4.12716E+04 -4.81825E+04  6.09891E+04 -2.83461E+03  3.62401E+04  3.42034E+04
 -5.47180E+03  3.95085E+04 -3.15696E+04  1.82865E+04 -3.31485E+04 -3.43161E+03 -1.87673E+04 -1.17023E+04
 -9.05571E+03 -1.55106E+04  4.20025E+02 -1.92459E+04  8.31721E+03 -2.36633E+04  1.63405E+04 -1.29701E+04
  1.06763E+04  6.72092E+03 -1.08764E+04  1.22991E+04 -2.27159E+04 -6.96417E+03 -8.36942E+03 -3.77740E+04
  2.51364E+04 -4.65368E+04  5.11943E+04 -2.09875E+04  4.85222E+04  2.03811E+04  1.71763E+04  4.69801E+04
 -1.66352E+04  3.62382E+04 -2.79243E+04  3.18583E+03 -1.17776E+04 -2.93876E+04  2.13831E+04 -3.55649E+04
  4.44180E+04 -1.11227E+04  3.99416E+04  2.39992E+04  2.14933E+04  5.09666E+04 -8.95987E+03  5.56821E+04
 -3.50523E+04  3.76299E+04 -4.62967E+04  1.07182E+04 -4.75916E+04 -1.76382E+04 -2.56949E+04 -4.17165E+04
  7.84475E+03 -4.19381E+04  3.38004E+04 -1.62753E+04  3.18329E+04  1.14810E+04  4.86256E+03  2.03690E+04
 -1.33833E+04  8.75628E+03 -1.06915E+04 -7.79776E+03  5.19523E+03 -1.11660E+04  1.95519E+04  6.00615E+03
  1.47771E+04  2.34042E+04 -4.20343E+03  2.68429E+04 -2.31011E+04  1.42294E+04 -3.09788E+04 -3.34346E+03
 -2.47967E+04 -1.77342E+04 -1.08579E+04 -2.47389E+04  4.35058E+03 -2.52454E+04  1.98246E+04 -2.25547E+04
  3.10164E+04 -1.37862E+04  3.76141E+04  4.85880E+03  2.70181E+04  2.32972E+04  3.86909E+03  4.12066E+04
 -1.96671E+04  3.36442E+04 -3.00232E+04  1.18003E+04 -2.21201E+04 -1.06892E+04 -4.64452E+03 -1.23724E+04
  3.00141E+02 -1.89952E+03 -7.42576E+03  8.93054E+03 -1.97980E+04  4.93797E+03 -2.01885E+04 -9.79233E+03
 -1.13100E+04 -2.27950E+04  6.28030E+03 -2.76147E+04  1.80947E+04 -1.97797E+04  2.25718E+04 -1.38909E+03
  1.39121E+04  1.64804E+04 -1.61143E+03  2.29482E+04 -1.61673E+04  1.35820E+04 -2.34370E+04 -5.32314E+03
 -1.78003E+04 -2.12129E+04 -1.60695E+03 -2.77462E+04  1.21921E+04 -2.33293E+04  2.26065E+04 -1.27541E+04
  2.16547E+04  2.86821E+02  1.56556E+04  5.16521E+03  8.53048E+03  1.47895E+03  1.18813E+04 -2.37801E+03
  2.20002E+04  2.58659E+03  2.46231E+04  1.77090E+04  1.66669E+04  3.66850E+04 -2.91128E+03  4.38105E+04
 -2.46221E+04  3.61805E+04 -4.06510E+04  1.87040E+04 -4.39170E+04 -2.93388E+03 -3.58741E+04 -2.58060E+04
 -1.52893E+04 -3.62140E+04  1.25692E+04 -3.16523E+04  2.74957E+04 -1.50367E+04  2.39400E+04  7.37858E+03
  7.77810E+03  1.86809E+04 -1.10810E+04  1.57024E+04 -2.00225E+04  1.95770E+03 -1.45443E+04 -1.21102E+04
 -2.22847E+02 -1.90166E+04  1.04174E+04 -1.43003E+04  1.26189E+04 -1.49706E+03  3.10068E+03  9.42036E+03
 -8.24444E+03  3.35597E+03 -9.00197E+03 -7.09763E+03 -1.90189E+03 -1.75626E+04  1.20102E+04 -1.93647E+04
  2.13134E+04 -1.05371E+04  2.54863E+04  3.59034E+03  2.14441E+04  1.72497E+04  1.01400E+04  2.73857E+04
 -5.00649E+03  2.97722E+04 -1.96828E+04  1.93087E+04 -2.18095E+04  4.19048E+03 -1.48978E+04 -5.94257E+03
 -7.19659E+03 -7.18340E+03 -4.97709E+02  1.22285E+02 -2.45602E+03  3.45469E+03 -7.79185E+03  5.13417E+03
 -1.42863E+04 -4.07146E+02 -1.31087E+04 -1.11696E+04 -5.85177E+03 -1.94560E+04  6.85197E+03 -1.50522E+04
  1.26728E+04 -5.99894E+03  9.56180E+03  4.74306E+03 -9.23669E+02  5.74717E+03 -7.88995E+03 -6.11397E+02
 -8.09055E+03 -9.41189E+03 -1.59298E+03 -1.46743E+04  9.41633E+03 -1.56175E+04  1.93752E+04 -8.64992E+03
  2.22029E+04  2.35044E+03  1.66826E+04  1.39844E+04  2.74266E+03  1.85928E+04 -8.69442E+03  1.47811E+04
 -1.18950E+04  3.74481E+03 -6.50630E+03 -3.05452E+03  1.85521E+03 -4.20090E+03  7.85658E+03 -4.04891E+02
  6.88305E+03  6.38259E+03  1.26467E+03  1.27332E+04 -9.33951E+03  1.14669E+04 -1.49139E+04  3.20125E+03
 -1.01043E+04 -7.91035E+03 -5.38571E+02 -1.22405E+04  8.80584E+03 -6.43995E+03  8.81623E+03  3.26431E+03
  2.29239E+03  9.71117E+03 -8.18500E+03  1.08817E+04 -1.28035E+04  5.22889E+03 -1.38720E+04 -5.25844E+03
 -7.24399E+03 -1.57826E+04  3.93638E+03 -1.82775E+04  1.43020E+04 -1.10783E+04  1.62705E+04  3.66263E+03
  9.43533E+03  1.25077E+04 -1.12873E+03  1.54710E+04 -1.07618E+04  8.09667E+03 -1.18721E+04 -2.02020E+03
 -9.96605E+03 -9.75750E+03 -1.72517E+03 -1.14922E+04  5.92823E+03 -1.02817E+04  8.07218E+03 -3.82646E+03
  4.54345E+03  2.58774E+03 -7.51192E+02  2.45700E+03  2.89648E+02 -3.87636E+03  2.63788E+03 -7.15549E+03
  1.13340E+04 -4.12282E+03  1.46377E+04  7.14667E+02  1.53454E+04  9.72514E+03  9.69008E+03  1.94732E+04
 -3.70488E+03  2.26529E+04 -1.90256E+04  1.61861E+04 -2.46573E+04  3.02397E+03 -1.98088E+04 -8.04499E+03
 -9.85597E+03 -1.60097E+04 -9.32349E+02 -1.41066E+04  5.95358E+03 -7.16691E+03  4.83958E+03 -5.05736E+03
  3.74943E+03 -3.38624E+03  4.01629E+03 -3.75819E+03  4.62182E+03 -3.02883E+03  8.06110E+03 -1.12645E+03
  1.01040E+04  2.92625E+03  5.95650E+03  8.30270E+03 -2.31307E+03  9.74284E+03 -1.13642E+04  7.57951E+03
 -1.38413E+04 -6.31901E+02 -8.86362E+03 -1.01882E+04 -8.47166E+02 -1.42364E+04  8.48561E+03 -1.45157E+04
  1.55701E+04 -8.41390E+03  1.74907E+04  2.00104E+03  1.28598E+04  1.28249E+04  2.56359E+03  1.68861E+04
 -7.03925E+03  1.35756E+04 -9.55074E+03  4.36692E+03 -6.04062E+03 -1.60560E+03 -1.89563E+03 -1.67686E+03
 -1.08577E+03 -3.28574E+02 -1.66002E+03  2.68056E+03 -5.99783E+03  2.36468E+03 -9.92179E+03 -1.00177E+03
 -6.55855E+03 -8.87233E+03  8.21888E+02 -1.32271E+04  8.55845E+03 -1.22201E+04  1.38659E+04 -3.91893E+03
  1.36073E+04  7.15223E+03  6.39658E+03  1.20994E+04 -2.32027E+03  1.40594E+04 -1.06203E+04  8.27104E+03
 -1.24350E+04  2.20730E+02 -9.68818E+03 -9.05082E+03 -1.22846E+03 -1.20515E+04  5.85836E+03 -8.15171E+03
  8.74914E+03 -2.83652E+03  6.67390E+03  2.06025E+03  2.12353E+03  3.65979E+03  1.75045E+03  2.25180E+03
  2.97431E+03  9.64942E+02  3.44587E+03  1.92938E+03  3.70078E+03  4.92788E+03  3.67689E+03  7.00982E+03
 -3.18295E+03  1.16676E+04 -9.87882E+03  1.06740E+04 -1.35330E+04  3.06641E+03 -1.52555E+04 -6.40701E+03
 -6.90075E+03 -1.36418E+04  1.20104E+03 -1.50779E+04  7.71585E+03 -9.07703E+03  1.07952E+04 -2.40062E+03
  8.10651E+03  5.44184E+03  2.54010E+03  7.62161E+03 -4.60225E+03  5.75968E+03 -6.50732E+03 -1.30092E+03
 -2.86452E+03 -6.06764E+03  3.49926E+03 -6.43344E+03  6.35771E+03 -2.21951E+03  5.49215E+03  4.05372E+02
  2.94801E+03  2.67840E+03  1.22193E+03  2.22570E+03 -1.55988E+02  1.66306E+03  2.06390E+03 -3.75504E+02
  2.66114E+03 -1.01794E+03  5.45934E+03  2.77993E+03  2.91246E+03  7.65872E+03 -1.31835E+03  9.75972E+03
 -6.68406E+03  5.88219E+03 -8.64131E+03  1.85206E+03 -7.66560E+03 -3.05197E+03 -3.01587E+03 -5.48560E+03
  6.10886E+02 -5.38550E+03  3.10229E+03 -2.63476E+03  3.69753E+03  1.97126E+03 -1.22364E+03  4.86371E+03
 -5.67766E+03  3.40907E+03 -6.25983E+03 -3.74978E+03 -3.75612E+03 -7.67758E+03  1.76078E+03 -7.85747E+03
  4.03923E+03 -5.13142E+03  5.94775E+03 -2.17797E+02  4.23199E+03  1.48465E+03  1.00255E+03  4.28246E+03
 -2.46788E+03  9.91125E+02 -3.00572E+03 -2.19371E+03  1.32285E+03 -5.82091E+03  6.11757E+03 -4.44480E+03
  8.93923E+03  3.47471E+02  8.75438E+03  6.40083E+03  2.63096E+03  9.50673E+03 -2.57736E+03  8.87322E+03
 -7.78856E+03  4.21768E+03 -7.91938E+03 -8.33431E+02 -5.06478E+03 -5.24416E+03  1.01146E+03 -5.49539E+03
  5.60572E+03 -3.68853E+03  3.82753E+03  2.21250E+03  1.33170E+03  4.75299E+03 -4.08325E+02  3.62447E+03
 -3.56867E+03  2.87101E+03 -3.34222E+03  7.89992E+02 -8.32296E+02  7.93217E+02 -1.74334E+03  1.18489E+03
 -2.20129E+03  3.56929E+03 -5.97345E+03  3.02309E+03 -8.86774E+03  5.73479E+02 -9.47836E+03 -6.18526E+03
 -5.14647E+03 -1.22587E+04  2.00872E+03 -1.37640E+04  8.67743E+03 -1.02201E+04  1.28807E+04 -4.01496E+03
  1.16899E+04  1.90715E+03  7.22067E+03  8.29463E+03  5.70448E+02  9.21004E+03 -4.50969E+03  6.71840E+03
 -5.47492E+03  3.10638E+03 -3.06002E+03 -4.26774E+02 -1.02420E+03 -3.26006E+02 -1.48347E+03 -8.50631E+01
 -2.53656E+03  5.54683E+02 -2.99399E+03 -1.22268E+02 -2.51218E+02 -2.91031E+03 -6.90063E+01 -3.71651E+03
  4.15542E+03 -3.57548E+03  5.28455E+03 -3.04361E+02  6.42981E+03  4.58779E+03  1.15230E+03  8.99420E+03
 -4.02447E+03  9.87358E+03 -9.85510E+03  6.33502E+03 -1.17789E+04 -5.07463E+02 -8.42102E+03 -6.55995E+03
 -3.66062E+03 -9.56024E+03  1.66342E+03 -8.31772E+03  5.99987E+03 -5.12707E+03  5.63141E+03  4.16073E+02
  3.08287E+03  3.26093E+03 -5.54147E+02  1.92212E+03 -1.86337E+03 -3.73578E+02 -2.65077E+02 -2.59647E+03
  2.52793E+03 -1.28422E+03  4.18177E+03 -4.47705E+00  2.03690E+03  3.43333E+03  5.67659E+02  5.24993E+03
 -3.40141E+03  4.18479E+03 -5.59504E+03  1.04595E+03 -5.41400E+03 -4.74752E+03 -6.03473E+02 -7.81855E+03
  4.39070E+03 -6.62625E+03  6.56218E+03 -1.77435E+03  6.55630E+03  1.67356E+03  4.25404E+03  5.76093E+03
  1.30658E+03  5.89258E+03 -1.87880E+03  4.66438E+03 -3.64701E+03  2.48424E+03 -3.09202E+03 -2.08735E+01
 -1.00587E+03 -8.20927E+01 -1.67859E+03  1.37693E+03 -2.90095E+03  1.75671E+03 -4.25091E+03 -7.80869E+02
 -4.49750E+03 -3.81789E+03 -1.41356E+03 -6.63148E+03  2.58274E+03 -5.88156E+03  5.34678E+03 -3.09216E+03
  5.50613E+03 -4.93331E+01  3.36298E+03  3.96428E+03 -7.48274E+02  5.93076E+03 -5.03900E+03  4.02871E+03
