 $NMID ID='MM_0lb_SNR400_17hz_g50_22.RAW', FMTDAT='(8E13.5)'
 TRAMP=1., VOLUME=1. $END
  3.09744E+05  5.71605E+02  3.37174E+05  2.50256E+05  8.47046E+04  3.37629E+05 -1.32632E+05  2.50350E+05
 -1.90343E+05  8.23983E+04 -1.11417E+05 -3.25247E+04  1.39096E+03 -5.08508E+04  5.40008E+04 -8.46425E+00
  3.49892E+04  5.22350E+04 -1.66971E+04  7.48160E+04 -6.04138E+04  6.26919E+04 -8.35485E+04  3.18408E+04
 -8.04503E+04 -1.11557E+04 -5.65435E+04 -5.07723E+04 -1.47700E+04 -6.86511E+04  2.68837E+04 -4.52815E+04
  3.99428E+04  3.78581E+03  1.56830E+04  4.76656E+04 -3.44375E+04  4.64464E+04 -6.61323E+04  9.10830E+00
 -5.27795E+04 -5.67338E+04 -6.60802E+03 -7.59295E+04  3.31853E+04 -5.39960E+04  4.68727E+04 -1.70016E+04
  4.25566E+04  1.12187E+04  3.11638E+04  2.49822E+04  1.58679E+04  2.82751E+04 -4.43107E+03  2.67084E+04
 -2.21057E+04  1.26234E+04 -1.83497E+04 -3.78320E+03  4.85411E+03 -7.50902E+03  2.12985E+04  1.16266E+04
  7.27344E+03  3.40735E+04 -3.14089E+04  3.47466E+04 -6.23871E+04  1.44096E+03 -5.64468E+04 -4.18530E+04
 -1.23923E+04 -6.23083E+04  3.94304E+04 -4.38704E+04  5.69821E+04 -2.21925E+03  3.30738E+04  3.14209E+04
 -6.11805E+03  3.46360E+04 -2.94718E+04  1.42704E+04 -2.86340E+04 -5.29837E+03 -1.56821E+04 -1.06995E+04
 -7.52511E+03 -1.20967E+04 -6.32053E+02 -1.74445E+04  6.82325E+03 -2.22733E+04  1.52514E+04 -1.35629E+04
  1.18805E+04  4.98711E+03 -7.38523E+03  1.31158E+04 -2.04900E+04 -2.88589E+03 -8.15947E+03 -3.16692E+04
  2.16875E+04 -4.14716E+04  4.63561E+04 -1.89961E+04  4.30734E+04  1.87912E+04  1.47015E+04  4.26073E+04
 -1.54472E+04  3.15290E+04 -2.40466E+04  9.19151E+02 -8.71626E+03 -2.66196E+04  2.06299E+04 -3.22519E+04
  3.93249E+04 -7.47979E+03  3.34087E+04  2.25074E+04  1.63038E+04  4.42661E+04 -8.01847E+03  4.74808E+04
 -2.94352E+04  3.09229E+04 -3.93576E+04  8.98926E+03 -3.97952E+04 -1.52132E+04 -2.25485E+04 -3.57701E+04
  6.86580E+03 -3.54510E+04  3.07223E+04 -1.35580E+04  2.74004E+04  1.02623E+04  3.32319E+03  1.78718E+04
 -1.34962E+04  8.11356E+03 -1.01198E+04 -7.72205E+03  5.80188E+03 -1.02417E+04  1.76150E+04  6.20238E+03
  1.31101E+04  2.19106E+04 -6.03891E+03  2.42649E+04 -2.16807E+04  9.94563E+03 -2.59192E+04 -5.33515E+03
 -1.84333E+04 -1.66628E+04 -6.35764E+03 -1.81800E+04  4.09444E+03 -1.66991E+04  1.35806E+04 -1.58678E+04
  2.34447E+04 -1.24822E+04  2.92407E+04  1.70816E+03  2.24195E+04  1.76003E+04  4.02906E+03  3.39669E+04
 -1.64170E+04  2.80853E+04 -2.70753E+04  9.80058E+03 -2.02475E+04 -1.00294E+04 -4.30663E+03 -1.34842E+04
  2.33302E+03 -3.85275E+03 -3.63383E+03  5.92250E+03 -1.41228E+04  5.29473E+03 -1.49980E+04 -5.68791E+03
 -9.16353E+03 -1.72764E+04  4.66057E+03 -2.07422E+04  1.40180E+04 -1.48294E+04  1.57471E+04 -1.57847E+03
  9.79339E+03  1.14018E+04 -1.03122E+03  1.76789E+04 -1.08991E+04  9.34203E+03 -1.64427E+04 -3.94836E+03
 -1.27858E+04 -1.49691E+04 -1.71286E+03 -2.07512E+04  9.42728E+03 -1.64693E+04  1.76183E+04 -8.01641E+03
  1.61292E+04  3.76689E+02  1.12059E+04  4.10498E+03  6.11524E+03  3.55610E+02  8.43083E+03 -1.60323E+03
  1.57819E+04  2.99804E+03  1.60955E+04  1.36523E+04  1.03785E+04  2.66911E+04 -2.91388E+03  2.88540E+04
 -1.68486E+04  2.29197E+04 -2.73159E+04  1.06510E+04 -2.82904E+04 -1.97531E+03 -2.40236E+04 -1.64068E+04
 -1.05206E+04 -2.29961E+04  7.68471E+03 -2.13333E+04  1.85135E+04 -1.14425E+04  1.68438E+04  4.23485E+03
  6.77832E+03  1.23997E+04 -7.59946E+03  1.09065E+04 -1.42661E+04  2.74701E+03 -1.09315E+04 -8.94619E+03
 -2.91536E+02 -1.31734E+04  7.14022E+03 -1.07434E+04  8.86810E+03 -1.11818E+03  2.45114E+03  5.28049E+03
 -6.05493E+03  1.83077E+03 -4.18925E+03 -4.98930E+03  1.17353E+02 -1.16614E+04  8.07344E+03 -1.16439E+04
  1.35578E+04 -5.24136E+03  1.45846E+04  2.84427E+03  1.19747E+04  1.08971E+04  4.85059E+03  1.69592E+04
 -1.89152E+03  1.79805E+04 -1.18338E+04  1.11219E+04 -1.34249E+04  2.92346E+03 -9.21428E+03 -2.31885E+03
 -5.23410E+03 -3.85675E+03 -1.17054E+03  1.85301E+03 -2.22431E+03  2.06234E+03 -4.35734E+03  3.95373E+03
 -8.86081E+03 -5.29728E+02 -9.15330E+03 -7.67939E+03 -3.76948E+03 -1.28232E+04  3.98006E+03 -9.31686E+03
  7.90720E+03 -4.82200E+03  6.87337E+03  2.66542E+03  8.92683E+01  3.17397E+03 -4.02884E+03  4.84979E+02
 -4.38584E+03 -6.28943E+03 -1.17083E+03 -8.13173E+03  4.30539E+03 -9.37656E+03  1.11223E+04 -4.53446E+03
  1.33185E+04  9.12652E+02  9.52580E+03  6.78867E+03  1.86429E+03  9.67726E+03 -6.17890E+03  9.35493E+03
 -7.61132E+03  2.70664E+03 -4.22394E+03 -1.37775E+03  9.64477E+02 -1.52174E+03  4.81975E+03 -1.36754E+03
  4.33110E+03  3.65823E+03  6.95815E+02  7.46381E+03 -5.18200E+03  7.25669E+03 -8.77693E+03  1.79351E+03
 -5.21775E+03 -4.22032E+03  5.84172E+02 -7.54186E+03  4.18933E+03 -3.74884E+03  4.31720E+03  8.64778E+02
  6.81182E+02  3.70686E+03 -4.87313E+03  5.40190E+03 -5.68232E+03  3.06430E+03 -5.81392E+03 -1.20212E+03
 -3.43444E+03 -7.26819E+03  1.57000E+03 -8.49645E+03  7.08856E+03 -5.73102E+03  7.88733E+03  1.75862E+03
  5.37849E+03  5.75779E+03  3.58180E+02  8.48575E+03 -5.58871E+03  5.07964E+03 -6.32718E+03 -2.78195E+02
 -6.54292E+03 -5.55705E+03 -1.67078E+03 -5.67055E+03  2.95610E+03 -5.54999E+03  3.49746E+03 -3.16816E+03
  3.52796E+03  4.50635E+02  1.64929E+02  1.35414E+03  1.19815E+02 -6.94030E+02  1.29404E+02 -2.81600E+03
  5.64726E+03 -1.20565E+03  7.12276E+03  4.89556E+02  6.74821E+03  3.70987E+03  6.17157E+03  8.87869E+03
 -1.62625E+03  1.05481E+04 -9.15200E+03  7.78305E+03 -1.21361E+04  1.25836E+03 -9.04796E+03 -2.82586E+03
 -5.37055E+03 -7.76402E+03 -3.45021E+02 -6.39023E+03  2.56995E+03 -2.50229E+03  1.80909E+03 -2.40423E+03
  1.92411E+03 -1.64849E+03  1.96821E+03 -2.74480E+03  3.58527E+03 -2.07742E+03  4.01343E+03  1.37450E+02
  5.31455E+03  1.24921E+03  1.22224E+03  3.53042E+03 -1.45381E+03  3.99033E+03 -5.04229E+03  3.18697E+03
 -5.90257E+03 -8.14088E+02 -2.53190E+03 -4.71559E+03  6.19454E+02 -6.29848E+03  3.37834E+03 -6.52927E+03
  5.82724E+03 -3.84661E+03  7.80334E+03  3.76156E+02  6.18292E+03  5.15893E+03  1.37332E+03  6.95753E+03
 -2.48786E+03  6.63572E+03 -3.97356E+03  2.20076E+03 -2.12135E+03 -6.18887E+02 -2.79513E+02 -1.08833E+03
 -6.68679E+02  1.41043E+02 -1.55761E+03  1.96851E+03 -3.05866E+03  1.19124E+03 -4.77185E+03 -3.77139E+02
 -2.67070E+03 -4.18267E+03  8.59123E+02 -5.73664E+03  3.56435E+03 -5.65223E+03  4.49164E+03 -1.02447E+03
  5.61010E+03  2.64727E+03  2.36639E+03  4.14502E+03 -8.29311E+02  5.14462E+03 -3.50722E+03  4.00629E+03
 -4.70953E+03  9.61080E+02 -4.04184E+03 -2.98731E+03 -7.77885E+02 -4.34874E+03  2.39044E+03 -3.28755E+03
  3.93269E+03 -1.17138E+03  2.28090E+03  2.26854E+02  1.42401E+02  1.91408E+03  7.63474E+02  7.94375E+02
  1.62909E+03  2.45160E+02  8.11551E+02  1.31420E+03  1.51964E+03  2.96715E+03  1.01301E+03  2.00195E+03
 -1.15547E+03  3.52520E+03 -3.85658E+03  4.65344E+03 -3.96341E+03  1.57208E+03 -5.15577E+03 -9.05397E+02
 -2.22321E+03 -4.08608E+03  1.08240E+03 -5.36810E+03  2.63924E+03 -3.55918E+03  4.07180E+03 -6.40473E+02
  3.71645E+03  2.55606E+03  4.50768E+02  3.23629E+03 -9.16163E+02  1.53421E+03 -1.46961E+03 -4.59475E+02
 -9.59854E+02 -1.39510E+03  1.52770E+03 -2.25221E+03  1.64255E+03 -7.39017E+02  9.53793E+02  8.50011E+02
  1.24265E+03  3.06808E+02  7.13796E+02  1.64755E+02 -1.71406E+02  9.48071E+02  1.84830E+03  3.87478E+00
  8.87947E+02 -1.82862E+02  2.39280E+03  6.92839E+02  7.88435E+02  2.42846E+03 -3.23173E+02  3.23902E+03
 -2.29977E+03  1.44353E+03 -2.10789E+03  1.38691E+02 -2.74631E+03 -9.47424E+02 -9.28329E+01 -5.33666E+02
  5.99704E+02 -1.58108E+03  1.72621E+03 -1.23250E+03  7.75801E+02  1.79883E+03 -1.24954E+03  1.69683E+03
 -1.72102E+03  9.68139E+02 -1.93239E+03 -1.55472E+03 -4.03256E+02 -2.77107E+03  7.59892E+02 -1.89951E+03
  1.64947E+03 -1.11617E+03  1.16142E+03 -1.53961E+02  2.18029E+03 -2.77141E+02  6.61479E+02  1.35820E+03
 -4.13275E+02  1.08448E+02 -1.46020E+03 -3.18233E+02  1.01026E+02 -8.34536E+02  2.23842E+03 -1.53238E+03
  1.73043E+03  2.46244E+02  3.39112E+03  1.38333E+03  1.19429E+03  2.18086E+03 -6.61981E+01  2.70820E+03
 -2.07168E+03  7.28222E+02 -1.94726E+03 -1.88807E+02 -7.74286E+02 -1.99048E+03  4.70550E+01 -1.05897E+03
  1.43443E+03 -6.91451E+02  8.23967E+02  9.19219E+02  3.31558E+02  1.56376E+03  1.67250E+02  1.25743E+03
 -4.71296E+02  8.57632E+02 -2.86442E+02  7.52456E+02  1.56806E+02  6.27587E+02 -7.64070E+02  4.67367E+02
 -4.17049E+02  1.10138E+03 -1.83700E+03  2.61393E+02 -2.31009E+03  6.48912E+02 -2.93467E+03 -1.66129E+03
 -1.14250E+03 -3.31062E+03  4.92738E+02 -3.01060E+03  1.69775E+03 -2.96994E+03  3.71915E+03 -1.35614E+03
  3.02262E+03 -3.96393E+01  1.28350E+03  2.33546E+03 -6.12253E+02  1.71531E+03 -1.06664E+03  1.96095E+03
 -1.24590E+03  1.37884E+03 -8.12741E+02 -3.15899E+02 -4.58693E+02  5.55865E+02 -9.15361E+02  6.00973E+02
 -1.17561E+03 -4.41252E+02 -1.21187E+03 -3.88818E+02  3.36110E+02 -1.00834E+03 -6.05464E+02 -1.00837E+03
  1.62234E+03 -1.05471E+03  1.51880E+03  1.10591E+02  2.14829E+03  7.45822E+02 -1.59566E+02  1.86175E+03
 -1.01993E+03  2.68810E+03 -2.05703E+03  1.74457E+03 -2.16629E+03  4.34397E+01 -1.60588E+03 -1.71025E+03
 -1.12275E+03 -2.34607E+03  8.34138E+02 -2.50638E+03  6.85064E+02 -1.88513E+03  9.59554E+02  4.86350E+01
  6.63782E+02  2.31507E+02 -2.17814E+02  1.83238E+02 -2.93838E+02 -3.70104E+02 -3.85864E+01 -5.27584E+02
  1.13737E+03  1.68195E+02  4.54177E+02  6.16235E+02  7.84986E+01  4.85498E+02  3.90735E+02  6.00549E+02
 -1.33703E+03  1.86703E+02 -1.22130E+03 -2.35296E+01 -1.06073E+03 -2.27881E+02 -2.19766E+01 -1.01218E+03
  4.04891E+02 -7.32533E+02  4.60419E+02  3.52048E+02  1.03047E+03 -8.94488E+02  8.52876E+02  9.84296E+02
  8.28653E+02  5.12813E+02 -5.32312E+02  8.71874E+02 -9.13883E+01  6.22891E+02 -4.76441E+02  2.07369E+02
 -3.57059E+02 -2.21805E+02 -3.88928E+02 -1.40769E+02 -3.62319E+02  5.51996E+02 -1.24667E+03 -9.19391E+02
 -1.41273E+03  5.23401E+02 -5.25938E+02 -1.49447E+03  5.14817E+02 -1.84336E+03  8.39602E+02 -4.79578E+02
  5.64324E+02  8.76852E+01 -7.47431E+02  1.06807E+03 -2.77102E+02  3.74394E+02 -1.02750E+03  9.05573E+02
