 $NMID ID='MM_0lb_SNR400_19hz_g55_89.RAW', FMTDAT='(8E13.5)'
 TRAMP=1., VOLUME=1. $END
  3.09914E+05  4.70973E+02  3.37199E+05  2.50239E+05  8.45462E+04  3.37336E+05 -1.32374E+05  2.49933E+05
 -1.90205E+05  8.22966E+04 -1.11414E+05 -3.26901E+04  7.93569E+02 -5.03798E+04  5.35795E+04 -7.54089E+01
  3.46644E+04  5.26335E+04 -1.66644E+04  7.53798E+04 -6.06313E+04  6.30559E+04 -8.33034E+04  3.21308E+04
 -8.05326E+04 -1.13047E+04 -5.63723E+04 -5.05604E+04 -1.52008E+04 -6.81101E+04  2.66634E+04 -4.54122E+04
  3.91114E+04  4.13893E+03  1.56581E+04  4.71614E+04 -3.37788E+04  4.66439E+04 -6.56433E+04 -6.23675E+02
 -5.27940E+04 -5.61929E+04 -6.54039E+03 -7.57163E+04  3.29824E+04 -5.41942E+04  4.65816E+04 -1.64754E+04
  4.23924E+04  1.10264E+04  3.10011E+04  2.48127E+04  1.61698E+04  2.89013E+04 -4.48314E+03  2.65818E+04
 -2.23329E+04  1.28248E+04 -1.82796E+04 -4.36768E+03  4.46327E+03 -7.63437E+03  2.13241E+04  1.11169E+04
  7.19680E+03  3.36234E+04 -3.05283E+04  3.44414E+04 -6.20045E+04  2.27462E+03 -5.58387E+04 -4.20707E+04
 -1.25135E+04 -6.11601E+04  3.84548E+04 -4.46463E+04  5.63538E+04 -1.74004E+03  3.22051E+04  3.08491E+04
 -6.43341E+03  3.37525E+04 -2.86440E+04  1.44894E+04 -2.86030E+04 -5.06351E+03 -1.52167E+04 -1.01503E+04
 -7.36125E+03 -1.20265E+04 -8.08767E+02 -1.73044E+04  6.32912E+03 -2.14840E+04  1.48933E+04 -1.35029E+04
  1.17450E+04  4.32223E+03 -6.49729E+03  1.25537E+04 -2.01927E+04 -3.01054E+03 -8.39421E+03 -3.06287E+04
  2.15769E+04 -4.12397E+04  4.54461E+04 -1.88328E+04  4.31483E+04  1.86629E+04  1.43112E+04  4.21313E+04
 -1.59353E+04  3.17392E+04 -2.35728E+04  9.26453E+02 -8.75834E+03 -2.60407E+04  2.04711E+04 -3.16899E+04
  3.84199E+04 -7.71594E+03  3.20205E+04  2.30780E+04  1.59007E+04  4.30858E+04 -7.96050E+03  4.62724E+04
 -2.95554E+04  3.07765E+04 -3.80485E+04  8.30434E+03 -3.89295E+04 -1.56562E+04 -2.19461E+04 -3.49639E+04
  7.53894E+03 -3.45716E+04  2.96676E+04 -1.32052E+04  2.77738E+04  1.08951E+04  3.63620E+03  1.77529E+04
 -1.33405E+04  7.85452E+03 -9.69027E+03 -7.69527E+03  5.83315E+03 -1.03937E+04  1.74648E+04  7.14170E+03
  1.22291E+04  2.16425E+04 -6.73503E+03  2.34949E+04 -2.16264E+04  9.55144E+03 -2.55572E+04 -6.28748E+03
 -1.75037E+04 -1.63334E+04 -6.33888E+03 -1.75165E+04  3.11942E+03 -1.53039E+04  1.34014E+04 -1.46053E+04
  2.22906E+04 -1.18253E+04  2.87665E+04  7.89481E+02  2.13068E+04  1.66303E+04  3.82498E+03  3.28059E+04
 -1.63688E+04  2.81495E+04 -2.58948E+04  1.00162E+04 -2.01237E+04 -1.05114E+04 -3.47746E+03 -1.34698E+04
  2.75102E+03 -3.80840E+03 -2.97845E+03  5.47110E+03 -1.37197E+04  5.22279E+03 -1.38857E+04 -5.19980E+03
 -9.09984E+03 -1.59488E+04  4.23749E+03 -1.97211E+04  1.29193E+04 -1.45992E+04  1.57428E+04 -1.30011E+03
  9.13361E+03  1.09359E+04 -1.05856E+03  1.63623E+04 -1.01951E+04  9.28939E+03 -1.56089E+04 -3.34066E+03
 -1.18788E+04 -1.51449E+04 -1.16323E+03 -1.93644E+04  8.88437E+03 -1.60973E+04  1.67838E+04 -7.95336E+03
  1.48798E+04  4.65327E+02  1.09655E+04  4.04649E+03  5.75575E+03  1.73008E+02  7.85373E+03 -1.23613E+03
  1.40913E+04  2.44708E+03  1.52923E+04  1.31218E+04  9.28577E+03  2.50543E+04 -3.14650E+03  2.74858E+04
 -1.65744E+04  2.15019E+04 -2.50522E+04  1.00848E+04 -2.64287E+04 -2.51234E+03 -2.20214E+04 -1.47136E+04
 -1.05968E+04 -2.13230E+04  6.55930E+03 -1.98944E+04  1.75995E+04 -1.13320E+04  1.63241E+04  3.42701E+03
  6.35875E+03  1.12457E+04 -7.38102E+03  1.05294E+04 -1.35826E+04  2.59981E+03 -1.10109E+04 -8.72361E+03
  9.20443E+01 -1.24064E+04  5.76699E+03 -9.95542E+03  8.03083E+03 -9.25140E+02  1.16911E+03  5.36439E+03
 -5.80294E+03  1.57555E+03 -3.56759E+03 -5.06501E+03  6.69775E+02 -1.04548E+04  7.76127E+03 -1.03783E+04
  1.29192E+04 -5.26889E+03  1.24280E+04  3.36297E+03  1.09002E+04  1.01045E+04  5.11843E+03  1.43778E+04
 -1.84506E+03  1.60528E+04 -1.02497E+04  1.04447E+04 -1.09059E+04  2.99294E+03 -9.07925E+03 -1.94209E+03
 -4.66578E+03 -3.84392E+03 -8.56572E+02  1.49223E+03 -1.95543E+03  1.73838E+03 -3.78786E+03  3.56529E+03
 -8.25480E+03 -6.39729E+02 -9.37346E+03 -6.91023E+03 -3.26206E+03 -1.17824E+04  3.83125E+03 -8.33832E+03
  7.55054E+03 -3.91581E+03  4.82494E+03  2.14675E+03  2.93975E+02  3.28190E+03 -3.72045E+03 -8.95266E-01
 -3.05466E+03 -5.36979E+03 -6.63659E+02 -7.30635E+03  3.91536E+03 -7.67408E+03  1.01754E+04 -4.39734E+03
  1.19722E+04  8.15388E+02  9.13491E+03  6.03238E+03  1.55014E+03  9.22826E+03 -5.02264E+03  8.52557E+03
 -7.42696E+03  2.86893E+03 -3.88769E+03 -9.15115E+02  1.36135E+03 -1.91116E+03  4.78219E+03 -5.15767E+02
  3.57222E+03  3.51344E+03  1.05124E+03  6.65024E+03 -4.04729E+03  6.81440E+03 -8.35044E+03  1.96348E+03
 -5.06621E+03 -3.29405E+03  7.68001E+01 -6.69424E+03  3.86248E+03 -3.45399E+03  3.65499E+03  9.43038E+02
  2.41143E+01  2.82649E+03 -3.83496E+03  5.00980E+03 -4.24387E+03  2.26587E+03 -4.48490E+03 -1.26630E+03
 -2.88657E+03 -6.21574E+03  1.70715E+03 -7.46155E+03  5.79755E+03 -4.27733E+03  6.68912E+03  5.07622E+02
  4.72300E+03  5.77753E+03  2.61569E+02  6.96615E+03 -4.76817E+03  4.26861E+03 -5.26259E+03 -9.72289E+02
 -5.56696E+03 -4.86632E+03 -1.21465E+03 -5.11213E+03  2.82909E+03 -4.42535E+03  2.78635E+03 -2.57398E+03
  3.22271E+03  5.39922E+02  1.52498E+02  1.04181E+03  7.91509E+02  1.31250E+02  7.29086E+01 -1.70069E+03
  3.73872E+03 -1.16683E+03  5.37590E+03  7.18769E+02  5.96631E+03  3.25692E+03  4.95097E+03  6.86318E+03
 -1.17578E+03  8.30673E+03 -7.94135E+03  6.93072E+03 -9.88315E+03  1.45308E+03 -7.36725E+03 -2.20083E+03
 -3.62329E+03 -6.37575E+03 -4.20524E+02 -4.85345E+03  1.74047E+03 -2.38359E+03  1.64445E+03 -2.40115E+03
  1.55472E+03 -1.65325E+03  2.14738E+03 -2.30627E+03  2.91083E+03 -1.93906E+03  3.25301E+03  1.06872E+02
  4.01745E+03  1.23552E+03  1.14457E+03  3.03012E+03 -1.74721E+03  3.02479E+03 -4.66507E+03  2.36355E+03
 -4.94797E+03 -7.05065E+02 -1.35992E+03 -3.10221E+03  6.86569E+02 -4.81425E+03  3.03136E+03 -5.25456E+03
  5.38878E+03 -3.29676E+03  6.40160E+03 -1.14011E+02  4.24850E+03  4.05014E+03  1.65955E+03  5.95629E+03
 -2.07992E+03  5.58267E+03 -2.95430E+03  2.02783E+03 -1.82834E+03 -1.05703E+03  1.43062E+02 -6.46105E+02
 -1.25211E+01 -1.14090E+02 -9.67724E+02  2.20567E+03 -2.68243E+03  1.16252E+03 -3.67235E+03 -6.94314E+02
 -1.76501E+03 -3.60641E+03  6.71879E+02 -4.49289E+03  2.69156E+03 -3.77019E+03  3.59373E+03 -7.28469E+02
  3.58853E+03  2.55999E+03  1.87918E+03  3.31891E+03 -6.32795E+02  4.21900E+03 -2.19635E+03  2.35008E+03
 -2.96022E+03  1.09517E+03 -3.44594E+03 -2.24654E+03 -1.67419E+02 -3.13044E+03  1.87491E+03 -1.98747E+03
  2.55120E+03 -9.39063E+02  2.24281E+03  4.96640E+02 -1.97731E+01  1.54607E+03  9.62971E+02  8.53144E+02
  2.17045E+03  2.51172E+02  1.21334E+03  7.23463E+02  8.03287E+02  1.63604E+03  1.10388E+03  1.52050E+03
 -1.33810E+03  3.03089E+03 -2.74901E+03  4.69677E+03 -2.47472E+03  1.34248E+03 -3.72064E+03 -2.59721E+02
 -2.02402E+03 -3.41343E+03  4.13773E+02 -4.84828E+03  1.80466E+03 -2.59605E+03  2.93827E+03 -2.92636E+02
  2.26644E+03  1.61368E+03  6.82099E+02  2.03335E+03 -4.32738E+02  1.01696E+03 -6.52229E+02 -6.31817E+02
 -6.73735E+02 -1.55326E+03  1.47704E+03 -1.30454E+03  9.70486E+02 -1.24495E+03  9.04370E+02  6.94669E+02
  6.61805E+02  4.30452E+02  7.69923E+02 -1.31610E+02 -6.59019E+02  5.90744E+02  1.28024E+03 -2.28179E+01
  8.99989E+01  3.48909E+02  1.55153E+03  9.18026E+02  2.57732E+02  2.17245E+03 -4.51728E+02  3.11404E+03
 -1.37991E+03  8.63408E+02 -1.93306E+03  2.71749E+02 -1.93086E+03  2.40273E+01  2.55704E+02 -7.12442E+02
  7.63149E+01 -7.98922E+02  8.32262E+02 -6.91603E+02  8.42815E+02  8.74250E+02 -4.99581E+02  1.15710E+03
 -1.53037E+03  2.82891E+02 -6.61049E+02 -1.30008E+03 -1.14700E+03 -1.95219E+03  1.16221E+02 -1.33831E+03
  3.65044E+02 -2.35003E+02  1.07429E+03 -1.66715E+02  1.40273E+03 -2.43340E+02  3.11470E+02  1.29661E+03
 -7.08923E+00 -2.63022E+01 -1.19283E+03 -4.22992E+02  3.39636E+02 -8.93263E+02  1.52435E+03 -3.51098E+02
  1.11077E+03 -2.33748E+01  2.49425E+03  3.29160E+02  1.18772E+03  1.64231E+03  7.06933E+01  1.59576E+03
 -1.38283E+03 -1.43115E+02 -1.18763E+03 -3.50029E+02 -3.72601E+02 -1.62563E+03  3.51284E+02 -8.92477E+02
  1.40305E+03  5.97929E+01  2.29965E+02  6.42812E+02  3.66429E+02  1.25946E+03  2.05875E+02  1.22706E+03
  4.06261E+01  1.71978E+03 -4.37016E+02 -7.35617E+01 -2.21685E+02  4.26277E+01 -6.99488E+02  1.12561E+02
 -5.81283E+02  9.45100E+02 -1.38154E+03  3.63815E+02 -1.22839E+03  6.99683E+02 -2.20969E+03 -1.26090E+02
 -1.49187E+03 -1.88672E+03  7.20130E+02 -2.63784E+03  9.29981E+02 -1.80433E+03  2.65243E+03 -1.40014E+03
  2.22396E+03 -6.41963E+02  1.43263E+03  8.66907E+02 -3.17494E+02  1.54996E+03 -3.64401E+02  1.42478E+03
 -7.01138E+02  5.31260E+02 -4.63816E+02 -4.76890E+02 -1.53931E+02  3.01780E+02  7.41607E+01  2.64974E+02
 -1.26780E+03  2.08523E+02 -1.02504E+03 -4.46202E+02  1.26742E+02 -8.80535E+02 -2.66536E+02 -7.01150E+02
  8.19428E+02 -6.52562E+02  3.66449E+02  3.42969E+02  1.09673E+03  4.58464E+02 -7.05193E+02  1.51938E+03
 -1.47442E+03  1.33947E+03 -2.10277E+03  1.36286E+03 -1.49190E+03 -5.40160E+02 -1.24504E+03 -1.25025E+03
 -5.27985E+02 -1.01051E+03 -2.71391E+02 -1.08426E+03  2.47555E+02 -4.83981E+02  3.57105E+02 -9.30648E+01
  6.65861E+02  4.74492E+02 -3.96668E+02 -1.79210E+02  3.20590E+01 -5.79044E+02 -2.14024E+01 -1.56849E+01
  7.95600E+02  4.16892E+02 -2.39940E+02  9.82606E+02  1.83279E+00  3.16585E+02  2.65831E+02  3.49046E+02
  1.09550E+02  4.46386E+02 -3.75662E+02 -5.05645E+02 -7.10449E+02 -2.32954E+02 -3.17678E+02 -3.92802E+02
 -9.65971E+01 -1.52959E+02  4.57176E+01 -3.47522E-01  8.59369E+02 -1.05405E+03  3.59409E+02  5.82723E+02
  5.45310E+02  4.60574E+02 -3.15864E+02  4.49752E+02 -8.02617E+02  2.55940E+02 -5.06528E+02  3.26097E+02
  2.74754E+02 -1.57087E+02 -9.78602E+02 -1.86558E+02 -5.10299E+02  2.45799E+02 -5.36957E+02 -1.97766E+02
 -8.90173E+02  8.81918E+02 -6.00033E+02 -7.94655E+02  9.35999E+02 -1.64227E+03  5.64557E+02 -1.14720E+02
  6.83831E+02 -2.02701E+01 -1.28482E+02 -3.62486E+02 -4.35016E+02  4.44507E+02 -3.05152E+01  3.45071E+02
