 $NMID ID='MM_0lb_SNR400_10hz_g60_64.RAW', FMTDAT='(8E13.5)'
 TRAMP=1., VOLUME=1. $END
  3.10533E+05  2.77745E+01  3.38238E+05  2.50958E+05  8.48987E+04  3.38965E+05 -1.33236E+05  2.52264E+05
 -1.90255E+05  8.34786E+04 -1.12122E+05 -3.21727E+04  8.26898E+01 -5.09854E+04  5.35289E+04 -5.47937E+01
  3.63836E+04  5.27677E+04 -1.65384E+04  7.63479E+04 -6.15128E+04  6.46310E+04 -8.55750E+04  3.21881E+04
 -8.18132E+04 -1.15675E+04 -5.71264E+04 -5.22397E+04 -1.54414E+04 -7.18823E+04  2.76983E+04 -4.63279E+04
  4.10792E+04  2.30877E+03  1.68884E+04  4.82049E+04 -3.52036E+04  4.74807E+04 -6.82428E+04 -5.24805E+02
 -5.43634E+04 -5.84908E+04 -7.70041E+03 -7.91215E+04  3.49655E+04 -5.69269E+04  4.95873E+04 -1.83179E+04
  4.48906E+04  1.12303E+04  3.24843E+04  2.67672E+04  1.56202E+04  3.10785E+04 -5.73565E+03  2.82939E+04
 -2.25085E+04  1.17399E+04 -1.76519E+04 -5.79835E+03  6.94721E+03 -7.47733E+03  2.31200E+04  1.34597E+04
  7.45989E+03  3.79996E+04 -3.32494E+04  3.78142E+04 -6.58362E+04  1.88142E+03 -5.89556E+04 -4.37662E+04
 -1.22629E+04 -6.64239E+04  4.17619E+04 -4.79022E+04  6.18849E+04 -1.96255E+03  3.72633E+04  3.41817E+04
 -6.04333E+03  3.96507E+04 -3.18846E+04  1.94476E+04 -3.33685E+04 -4.21020E+03 -1.92022E+04 -1.27087E+04
 -9.49580E+03 -1.51039E+04 -5.67344E+02 -1.94361E+04  8.30317E+03 -2.25331E+04  1.61465E+04 -1.31504E+04
  1.05433E+04  6.91078E+03 -1.05184E+04  1.24263E+04 -2.39639E+04 -6.48206E+03 -1.00740E+04 -3.79161E+04
  2.54671E+04 -4.71552E+04  5.21178E+04 -2.13668E+04  4.84127E+04  2.14015E+04  1.69924E+04  4.63612E+04
 -1.71361E+04  3.69734E+04 -2.82887E+04  2.45984E+03 -1.13133E+04 -2.97309E+04  2.17639E+04 -3.69429E+04
  4.50585E+04 -1.17843E+04  4.03640E+04  2.49629E+04  2.17497E+04  5.14835E+04 -8.16120E+03  5.58817E+04
 -3.55775E+04  3.87985E+04 -4.82759E+04  1.10761E+04 -4.76661E+04 -1.79925E+04 -2.57214E+04 -4.30418E+04
  8.11762E+03 -4.26639E+04  3.37059E+04 -1.70639E+04  3.22651E+04  1.14775E+04  5.11285E+03  2.09648E+04
 -1.39234E+04  9.70631E+03 -1.11168E+04 -7.63771E+03  5.73709E+03 -1.16811E+04  1.91480E+04  5.51050E+03
  1.50584E+04  2.27286E+04 -4.73671E+03  2.69736E+04 -2.35944E+04  1.40638E+04 -3.11553E+04 -2.69937E+03
 -2.61434E+04 -1.88390E+04 -1.20157E+04 -2.52859E+04  4.96648E+03 -2.55280E+04  1.96435E+04 -2.36809E+04
  3.27197E+04 -1.40198E+04  3.84125E+04  4.83732E+03  2.76097E+04  2.40629E+04  5.16831E+03  4.11490E+04
 -2.06665E+04  3.35814E+04 -3.05765E+04  1.29800E+04 -2.28803E+04 -1.14352E+04 -5.42093E+03 -1.23817E+04
  8.65744E+02 -1.68079E+03 -8.14343E+03  8.39510E+03 -2.03383E+04  4.96474E+03 -2.05716E+04 -9.97769E+03
 -1.18313E+04 -2.38483E+04  5.93086E+03 -2.85025E+04  1.85136E+04 -2.01435E+04  2.25277E+04 -1.44589E+03
  1.46891E+04  1.67842E+04 -2.89822E+02  2.27886E+04 -1.79957E+04  1.36808E+04 -2.42148E+04 -4.85484E+03
 -1.73215E+04 -2.07263E+04 -2.44591E+03 -2.81694E+04  1.29126E+04 -2.32222E+04  2.40102E+04 -1.15348E+04
  2.23114E+04 -5.53855E+02  1.57602E+04  5.88331E+03  8.50349E+03  1.01588E+03  1.23703E+04 -2.65360E+03
  2.14897E+04  2.69790E+03  2.55251E+04  1.77337E+04  1.77789E+04  3.74296E+04 -2.41684E+03  4.45084E+04
 -2.52730E+04  3.70623E+04 -4.21429E+04  1.93171E+04 -4.48645E+04 -3.77526E+03 -3.63660E+04 -2.64271E+04
 -1.43745E+04 -3.66735E+04  1.39779E+04 -3.21515E+04  2.79320E+04 -1.53168E+04  2.45001E+04  7.18611E+03
  8.79804E+03  1.89587E+04 -1.17254E+04  1.59036E+04 -1.94714E+04  2.66876E+03 -1.53582E+04 -1.33923E+04
  3.28289E+02 -1.97406E+04  1.03319E+04 -1.40410E+04  1.29539E+04 -1.00346E+03  3.33876E+03  9.11435E+03
 -9.23583E+03  3.68230E+03 -9.16273E+03 -7.46098E+03 -2.16126E+03 -1.77388E+04  1.26433E+04 -2.00883E+04
  2.31855E+04 -1.09240E+04  2.53288E+04  3.78148E+03  2.25145E+04  1.88801E+04  1.08256E+04  2.89239E+04
 -5.32073E+03  3.11104E+04 -2.05162E+04  1.93745E+04 -2.31707E+04  3.80109E+03 -1.50376E+04 -6.37533E+03
 -7.23915E+03 -7.66476E+03 -9.65559E+02  7.21348E+02 -2.43835E+03  3.78433E+03 -7.38876E+03  4.78729E+03
 -1.43717E+04 -1.06468E+03 -1.45141E+04 -1.15404E+04 -6.49880E+03 -1.99977E+04  5.84221E+03 -1.58572E+04
  1.28350E+04 -6.25329E+03  8.94105E+03  4.03073E+03 -1.03110E+03  6.67095E+03 -7.71701E+03 -5.11064E+02
 -7.70381E+03 -1.01824E+04 -5.57536E+02 -1.61445E+04  9.16854E+03 -1.60018E+04  2.02880E+04 -8.83431E+03
  2.34915E+04  3.58656E+03  1.73887E+04  1.47246E+04  3.22222E+03  1.85043E+04 -9.60419E+03  1.65577E+04
 -1.30886E+04  4.31873E+03 -6.78257E+03 -4.46049E+03  2.89753E+03 -4.30316E+03  7.73094E+03 -1.42527E+03
  7.78181E+03  7.22683E+03  8.79257E+02  1.26830E+04 -8.50994E+03  1.23413E+04 -1.66102E+04  2.58450E+03
 -1.06832E+04 -8.33598E+03 -1.82916E+02 -1.31573E+04  9.19354E+03 -6.89527E+03  8.84159E+03  3.84671E+03
  1.75285E+03  9.51084E+03 -7.25769E+03  1.13925E+04 -1.29179E+04  5.20582E+03 -1.29777E+04 -5.00912E+03
 -7.74060E+03 -1.48480E+04  4.41158E+03 -1.86052E+04  1.52975E+04 -1.16415E+04  1.62042E+04  3.03870E+03
  1.03481E+04  1.37986E+04 -1.19802E+03  1.59726E+04 -1.16020E+04  8.30527E+03 -1.30368E+04 -1.61382E+03
 -9.46071E+03 -1.01173E+04 -1.05241E+03 -1.11131E+04  6.33289E+03 -9.83843E+03  7.95985E+03 -3.71367E+03
  5.28725E+03  2.05662E+03 -1.20935E+03  1.59660E+03 -8.14510E+02 -3.12592E+03  2.51340E+03 -6.73734E+03
  1.10848E+04 -4.93118E+03  1.59360E+04  1.75459E+03  1.56417E+04  1.13429E+04  9.49795E+03  2.01434E+04
 -4.86084E+03  2.42416E+04 -2.05641E+04  1.68320E+04 -2.48260E+04  3.32900E+03 -2.06145E+04 -9.27072E+03
 -1.01553E+04 -1.68525E+04 -7.65656E+02 -1.45649E+04  5.31450E+03 -7.20010E+03  4.94189E+03 -5.32737E+03
  3.63589E+03 -3.15256E+03  3.73792E+03 -3.35950E+03  6.45331E+03 -3.96630E+03  8.44689E+03 -1.38879E+03
  1.00559E+04  2.55266E+03  5.60231E+03  9.16437E+03 -2.76245E+03  1.11176E+04 -1.10799E+04  7.24434E+03
 -1.45882E+04 -1.08605E+03 -9.61955E+03 -9.84884E+03 -1.79651E+03 -1.56098E+04  8.52646E+03 -1.55059E+04
  1.56629E+04 -8.22449E+03  1.95620E+04  2.25721E+03  1.31884E+04  1.29833E+04  2.53381E+03  1.79829E+04
 -7.47273E+03  1.41823E+04 -1.03144E+04  5.02848E+03 -6.85018E+03 -1.41140E+03 -3.13175E+03 -2.37570E+03
 -1.95362E+03 -1.28110E+02 -1.98511E+03  2.49522E+03 -6.31571E+03  2.35838E+03 -1.00767E+04 -6.22173E+02
 -7.03782E+03 -9.42445E+03 -5.07960E+01 -1.41646E+04  8.65971E+03 -1.33623E+04  1.45402E+04 -4.28600E+03
  1.38141E+04  7.08289E+03  7.18083E+03  1.30163E+04 -3.39124E+03  1.52821E+04 -1.02800E+04  9.60271E+03
 -1.36194E+04  1.07864E+02 -9.91644E+03 -8.32514E+03 -9.77468E+02 -1.04224E+04  6.29253E+03 -8.17536E+03
  9.17966E+03 -3.32102E+03  5.97983E+03  2.53883E+03  2.23944E+03  4.74296E+03  1.55404E+03  2.44331E+03
  1.75206E+03  6.49689E+02  3.41114E+03  2.06621E+03  4.19655E+03  4.93978E+03  3.69931E+03  8.18177E+03
 -3.24724E+03  1.25061E+04 -9.56802E+03  1.19032E+04 -1.50993E+04  2.80552E+03 -1.54373E+04 -5.76155E+03
 -6.83177E+03 -1.44203E+04  1.76811E+03 -1.65264E+04  8.77195E+03 -1.06780E+04  1.13463E+04 -2.18237E+03
  9.32224E+03  5.17564E+03  2.35399E+03  8.44212E+03 -4.19408E+03  5.11750E+03 -5.75447E+03 -5.15008E+02
 -3.01373E+03 -6.06086E+03  3.22860E+03 -5.90288E+03  5.99500E+03 -3.17168E+03  6.49148E+03  7.34289E+02
  3.92996E+03  3.39070E+03  1.86425E+03  2.59248E+03 -6.89019E+02  1.63319E+03  1.43193E+03 -7.25787E+02
  2.80786E+03 -2.32307E+02  6.32397E+03  2.14040E+03  3.96315E+03  7.17585E+03 -2.23924E+03  1.05453E+04
 -6.46396E+03  6.00282E+03 -9.67839E+03  2.54190E+03 -7.76275E+03 -3.16721E+03 -2.58238E+03 -5.07942E+03
  1.14927E+03 -6.05624E+03  4.07538E+03 -1.44284E+03  2.84110E+03  2.48365E+03 -1.55496E+03  4.98504E+03
 -6.52747E+03  2.58974E+03 -6.62200E+03 -3.93269E+03 -3.96017E+03 -7.86644E+03  1.40834E+03 -8.29905E+03
  4.53447E+03 -4.30608E+03  6.65454E+03 -1.00322E+02  4.47263E+03  2.35719E+03  1.41818E+03  4.43752E+03
 -2.57665E+03  1.49660E+03 -3.90649E+03 -3.20386E+03  1.66019E+03 -5.97853E+03  7.57100E+03 -4.59350E+03
  9.03595E+03  2.74234E+02  8.36174E+03  5.97706E+03  2.56245E+03  8.69973E+03 -3.16290E+03  8.33596E+03
 -7.33239E+03  3.75211E+03 -7.98097E+03 -1.50150E+03 -4.76119E+03 -6.40856E+03  1.45056E+03 -6.39904E+03
  6.07745E+03 -3.21757E+03  4.48369E+03  2.17267E+03  1.52486E+03  4.79911E+03 -6.74049E+02  4.23345E+03
 -2.27068E+03  3.19766E+03 -1.69217E+03  1.33258E+03 -1.17808E+03  5.59460E+02 -1.19740E+03  1.96208E+03
 -2.70430E+03  3.00187E+03 -6.02807E+03  3.45312E+03 -9.03030E+03  4.55884E+02 -1.04432E+04 -6.14212E+03
 -5.99419E+03 -1.20952E+04  1.94153E+03 -1.41255E+04  9.25131E+03 -1.11165E+04  1.34027E+04 -4.94565E+03
  1.25226E+04  2.93682E+03  7.60759E+03  7.68428E+03  6.11593E+02  1.00602E+04 -4.49839E+03  7.12105E+03
 -5.15431E+03  2.92767E+03 -3.13184E+03 -1.53217E+03 -1.00018E+03 -1.64027E+03 -1.00147E+03  1.78330E+02
 -2.06491E+03  5.21198E+02 -1.83978E+03  3.89037E+02 -2.53193E+02 -2.09612E+03  6.33740E+02 -3.50937E+03
  4.26297E+03 -3.13117E+03  5.06269E+03 -1.16001E+02  6.14512E+03  4.00002E+03  7.23101E+02  9.33589E+03
 -5.03884E+03  1.07628E+04 -1.10032E+04  6.26934E+03 -1.14161E+04 -2.04718E+02 -8.95388E+03 -6.92963E+03
 -3.49089E+03 -1.00571E+04  2.00896E+03 -9.76658E+03  5.41180E+03 -5.14250E+03  5.92963E+03  5.15508E+02
  3.06871E+03  3.72079E+03 -1.74369E+02  3.85633E+03 -1.41402E+03 -1.85479E+02  5.38643E+02 -2.29395E+03
  3.01091E+03 -1.72357E+03  3.34511E+03  1.54645E+03  2.27768E+03  3.65196E+03  9.31083E+01  4.57177E+03
 -4.43118E+03  3.87366E+03 -5.95363E+03  5.37131E+01 -5.25995E+03 -4.35216E+03 -1.20272E+03 -7.61302E+03
  4.62521E+03 -6.43419E+03  6.10906E+03 -7.03931E+02  6.91780E+03  1.37714E+03  4.05465E+03  5.25231E+03
  7.57604E+02  5.84255E+03 -3.32073E+03  5.39145E+03 -4.33143E+03  2.78394E+03 -3.65907E+03  2.29706E+02
 -1.81619E+03  1.03487E+02 -1.86047E+03  8.25658E+02 -3.09403E+03  1.53538E+03 -4.86499E+03 -1.17991E+03
 -4.55015E+03 -3.17115E+03 -8.51081E+02 -6.30776E+03  2.69467E+03 -6.48826E+03  5.54184E+03 -3.46981E+03
  6.72440E+03  5.12472E+02  3.35185E+03  4.46788E+03 -3.06569E+02  5.37507E+03 -5.08812E+03  4.77202E+03
