 $NMID ID='MM_0lb_SNR400_16hz_g55_96.RAW', FMTDAT='(8E13.5)'
 TRAMP=1., VOLUME=1. $END
  3.10075E+05  2.81900E+02  3.37985E+05  2.50369E+05  8.49356E+04  3.37859E+05 -1.32275E+05  2.50414E+05
 -1.89860E+05  8.33897E+04 -1.12007E+05 -3.19000E+04  1.24163E+03 -5.08498E+04  5.39693E+04  1.94716E+01
  3.53973E+04  5.30216E+04 -1.71610E+04  7.53606E+04 -6.09315E+04  6.35901E+04 -8.42961E+04  3.24265E+04
 -8.04105E+04 -1.13498E+04 -5.67633E+04 -5.09173E+04 -1.47037E+04 -6.93372E+04  2.80328E+04 -4.48240E+04
  4.01362E+04  3.91786E+03  1.62685E+04  4.76620E+04 -3.42679E+04  4.68325E+04 -6.67712E+04 -9.70798E+01
 -5.39000E+04 -5.64357E+04 -6.20663E+03 -7.68129E+04  3.37707E+04 -5.51642E+04  4.78792E+04 -1.72353E+04
  4.34500E+04  1.11356E+04  3.18831E+04  2.56295E+04  1.59127E+04  2.88687E+04 -4.92191E+03  2.80560E+04
 -2.17437E+04  1.27958E+04 -1.84260E+04 -4.07921E+03  5.75498E+03 -7.16559E+03  2.23741E+04  1.19503E+04
  7.66000E+03  3.52019E+04 -3.20710E+04  3.50529E+04 -6.28247E+04  2.42612E+03 -5.70167E+04 -4.21149E+04
 -1.25308E+04 -6.28043E+04  3.95321E+04 -4.57245E+04  5.77418E+04 -2.74699E+03  3.39367E+04  3.28279E+04
 -5.23290E+03  3.54253E+04 -2.98723E+04  1.53490E+04 -2.92078E+04 -3.70572E+03 -1.60382E+04 -1.04147E+04
 -7.98790E+03 -1.31513E+04 -5.28452E+02 -1.80232E+04  7.26941E+03 -2.33135E+04  1.44940E+04 -1.39188E+04
  1.12995E+04  5.33328E+03 -7.56928E+03  1.34639E+04 -2.11038E+04 -4.34757E+03 -8.20310E+03 -3.29491E+04
  2.27602E+04 -4.26607E+04  4.75999E+04 -1.97594E+04  4.46721E+04  1.91082E+04  1.53704E+04  4.41999E+04
 -1.55754E+04  3.34887E+04 -2.55637E+04  1.74448E+03 -9.48934E+03 -2.77254E+04  2.07721E+04 -3.40343E+04
  4.03995E+04 -8.52598E+03  3.50233E+04  2.34746E+04  1.76642E+04  4.54647E+04 -7.70106E+03  4.90787E+04
 -3.11820E+04  3.23803E+04 -4.08643E+04  9.33665E+03 -4.18464E+04 -1.63666E+04 -2.27406E+04 -3.68631E+04
  7.41820E+03 -3.72886E+04  3.12206E+04 -1.45456E+04  2.83599E+04  1.11645E+04  4.26411E+03  1.90877E+04
 -1.37893E+04  8.60213E+03 -1.01361E+04 -7.67032E+03  5.25997E+03 -1.06441E+04  1.79014E+04  6.79442E+03
  1.29802E+04  2.17628E+04 -6.16209E+03  2.42695E+04 -2.17248E+04  1.11754E+04 -2.68726E+04 -5.18057E+03
 -1.94539E+04 -1.67465E+04 -7.75359E+03 -1.94211E+04  4.15257E+03 -1.79574E+04  1.53467E+04 -1.75586E+04
  2.48232E+04 -1.23775E+04  3.19477E+04  2.58469E+03  2.33008E+04  1.92089E+04  3.61722E+03  3.54243E+04
 -1.76605E+04  2.92077E+04 -2.83507E+04  1.04828E+04 -2.01976E+04 -1.05702E+04 -4.43364E+03 -1.35329E+04
  1.68019E+03 -3.18742E+03 -4.61072E+03  6.34402E+03 -1.52363E+04  5.47254E+03 -1.56681E+04 -6.11980E+03
 -9.44035E+03 -1.79985E+04  5.10883E+03 -2.19561E+04  1.48953E+04 -1.57962E+04  1.76655E+04 -1.54234E+03
  1.10989E+04  1.24819E+04 -1.07758E+03  1.82108E+04 -1.19226E+04  9.85964E+03 -1.80882E+04 -4.19715E+03
 -1.35759E+04 -1.68560E+04 -2.40602E+03 -2.17964E+04  9.60804E+03 -1.80765E+04  1.88793E+04 -8.86074E+03
  1.68549E+04  4.02535E+02  1.20384E+04  3.97554E+03  6.84409E+03  1.16099E+03  9.66030E+03 -1.91333E+03
  1.70108E+04  2.10434E+03  1.83349E+04  1.44633E+04  1.21183E+04  2.85958E+04 -3.04598E+03  3.15778E+04
 -1.85812E+04  2.47202E+04 -2.99481E+04  1.24277E+04 -3.11193E+04 -2.28286E+03 -2.53488E+04 -1.77919E+04
 -1.09014E+04 -2.50608E+04  8.04937E+03 -2.29574E+04  2.03552E+04 -1.18974E+04  1.75974E+04  4.45248E+03
  6.70074E+03  1.33783E+04 -8.41537E+03  1.26746E+04 -1.47717E+04  2.96237E+03 -1.16615E+04 -9.28072E+03
 -1.71555E+02 -1.45825E+04  7.20102E+03 -1.08341E+04  9.28222E+03 -8.82789E+02  2.37189E+03  5.69316E+03
 -6.25824E+03  2.59428E+03 -5.47092E+03 -5.58760E+03 -1.13811E+02 -1.20415E+04  8.80429E+03 -1.24016E+04
  1.55688E+04 -6.64184E+03  1.60958E+04  2.64540E+03  1.40867E+04  1.23395E+04  6.63772E+03  1.82627E+04
 -2.84756E+03  2.00395E+04 -1.22273E+04  1.26144E+04 -1.44848E+04  2.90018E+03 -1.02950E+04 -3.43918E+03
 -4.73618E+03 -4.32346E+03 -6.52517E+02  1.23690E+03 -1.93613E+03  2.35847E+03 -4.41772E+03  4.14895E+03
 -9.44585E+03 -7.34991E+02 -1.00863E+04 -8.56681E+03 -4.09492E+03 -1.39915E+04  4.69147E+03 -1.04668E+04
  8.90326E+03 -3.59972E+03  6.86108E+03  2.59122E+03  6.71094E+02  4.21143E+03 -4.51609E+03 -4.66303E+02
 -4.61074E+03 -5.99550E+03 -5.88952E+02 -9.10528E+03  5.65772E+03 -1.03693E+04  1.19860E+04 -5.07477E+03
  1.51069E+04  1.09694E+03  1.07498E+04  7.83728E+03  1.91481E+03  1.14813E+04 -5.84286E+03  9.88221E+03
 -9.14755E+03  3.45999E+03 -3.71497E+03 -1.77546E+03  1.52415E+03 -2.25154E+03  5.68048E+03 -1.21019E+03
  5.05705E+03  4.63084E+03  1.19731E+03  8.21058E+03 -5.91791E+03  7.99980E+03 -9.98259E+03  2.24839E+03
 -6.11872E+03 -4.82935E+03  7.87381E+01 -8.80924E+03  5.17500E+03 -4.03855E+03  4.74136E+03  1.86078E+03
  5.97722E+02  4.90945E+03 -5.04478E+03  6.36178E+03 -7.03388E+03  2.98554E+03 -6.81817E+03 -1.89473E+03
 -3.96041E+03 -8.61029E+03  2.38512E+03 -9.42547E+03  8.19455E+03 -6.23678E+03  8.81546E+03  9.42167E+02
  5.56046E+03  6.50301E+03 -6.36464E+02  8.85608E+03 -6.33893E+03  4.56460E+03 -7.59596E+03 -9.08742E+02
 -6.79079E+03 -6.73532E+03 -1.39992E+03 -6.59571E+03  3.39295E+03 -5.24066E+03  4.32994E+03 -3.31926E+03
  3.28779E+03  8.03608E+02 -2.42344E+02  1.04314E+03  3.03538E+02 -8.12650E+02  8.59387E+02 -3.01286E+03
  5.28467E+03 -1.79134E+03  7.79426E+03  7.34811E+02  8.25614E+03  5.22777E+03  6.40231E+03  1.01499E+04
 -2.37178E+03  1.19047E+04 -1.06536E+04  9.06693E+03 -1.34659E+04  1.99290E+03 -1.02884E+04 -3.80797E+03
 -6.18750E+03 -8.57672E+03 -3.78849E+02 -7.45820E+03  3.23743E+03 -3.90563E+03  2.90702E+03 -3.32023E+03
  2.45333E+03 -1.75719E+03  2.72721E+03 -2.73812E+03  4.50444E+03 -2.47533E+03  4.50547E+03 -6.21814E+02
  5.57495E+03  1.45110E+03  1.53417E+03  4.90573E+03 -1.16878E+03  4.66650E+03 -5.47113E+03  3.74404E+03
 -7.09818E+03 -1.16987E+03 -3.17553E+03 -4.85782E+03  3.27543E+01 -7.51189E+03  4.36643E+03 -7.73185E+03
  7.59394E+03 -4.49309E+03  9.33261E+03  1.04910E+03  5.97935E+03  6.34004E+03  1.45961E+03  8.46273E+03
 -2.96481E+03  7.64352E+03 -4.79291E+03  2.44718E+03 -3.47143E+03 -1.41188E+03 -5.04310E+02 -4.68248E+02
 -6.04994E+02  3.06729E+02 -1.15941E+03  2.06777E+03 -3.47293E+03  1.21989E+03 -5.32098E+03 -1.36325E+03
 -2.93086E+03 -4.86884E+03  8.59263E+02 -6.63764E+03  3.69267E+03 -6.16923E+03  5.42972E+03 -1.39426E+03
  5.64310E+03  3.34199E+03  2.93605E+03  5.24182E+03 -1.18996E+03  6.00794E+03 -4.50904E+03  4.26630E+03
 -5.98131E+03  8.37855E+02 -4.99782E+03 -3.60868E+03 -4.61238E+02 -4.92374E+03  2.68947E+03 -3.92333E+03
  3.79719E+03 -1.67300E+03  2.82522E+03  4.31385E+02  1.30242E+03  2.03589E+03  5.84420E+02  9.32510E+02
  1.92145E+03  4.24075E+02  1.67529E+03  1.27266E+03  1.55158E+03  3.07173E+03  2.06876E+03  2.48557E+03
 -1.72805E+03  4.53936E+03 -3.80799E+03  5.56864E+03 -5.27158E+03  1.27964E+03 -6.29406E+03 -1.76511E+03
 -2.99430E+03 -6.01204E+03  8.69404E+02 -6.05885E+03  2.97667E+03 -3.66106E+03  4.64581E+03 -2.04319E+03
  4.35999E+03  3.43548E+03  4.05103E+02  3.76141E+03 -1.57375E+03  2.17581E+03 -1.35276E+03 -1.88639E+02
 -1.31759E+03 -2.34995E+03  1.63384E+03 -2.86683E+03  2.04412E+03 -1.13642E+03  1.75540E+03  5.95142E+02
  9.65261E+02  9.83031E+02  1.00140E+03 -6.09632E+02 -5.43852E+02  4.15845E+02  1.66171E+03  2.04411E+02
  1.27683E+02 -4.30888E+02  2.01975E+03  6.19243E+02  6.40147E+02  3.81943E+03 -1.03101E+03  4.25173E+03
 -2.44202E+03  2.21137E+03 -3.19807E+03  5.15079E+02 -3.54055E+03 -1.53674E+03 -4.74794E+02 -1.42255E+03
  6.36078E+02 -2.66289E+03  1.15387E+03 -1.41078E+03  1.24586E+03  1.47223E+03 -5.00474E+02  1.79083E+03
 -1.96234E+03  8.39894E+02 -1.90292E+03 -1.55221E+03 -2.06537E+03 -2.60700E+03  7.40667E+02 -3.16964E+03
  1.17134E+03 -7.45488E+02  2.17654E+03  5.15197E+01  1.45283E+03  2.16265E+02  4.70608E+02  2.02713E+03
 -1.15053E+03  5.51323E+02 -7.21849E+02 -8.26995E+02  8.35664E+02 -2.05764E+03  2.36051E+03 -1.33042E+03
  2.05452E+03 -1.45946E+02  4.48080E+03  2.05159E+03  1.14368E+03  2.75917E+03 -7.33196E+02  2.94376E+03
 -1.94777E+03  1.01917E+03 -2.95273E+03 -2.83136E+02 -1.30134E+03 -1.89439E+03  2.99947E+02 -1.21794E+03
  2.08231E+03 -1.05042E+03  9.14266E+02  1.16378E+03  6.54119E+02  1.69875E+03  4.66881E+02  1.08794E+03
 -7.45152E+02  1.59028E+03 -6.71155E+02  8.02440E+02 -5.05430E+02 -1.29119E+02 -9.74249E+02  1.16428E+03
 -8.41179E+02  9.39383E+02 -2.57180E+03  5.82703E+02 -2.92335E+03  7.41755E+02 -3.81707E+03 -1.39380E+03
 -1.90420E+03 -3.24835E+03  1.08368E+03 -4.25540E+03  2.39622E+03 -3.51589E+03  4.23872E+03 -1.75094E+03
  3.88778E+03 -1.22661E+02  2.28705E+03  2.64184E+03 -5.31923E+02  2.06913E+03 -1.29851E+03  1.87203E+03
 -1.72587E+03  9.76499E+02 -4.04571E+02 -6.88655E+01 -5.40536E+02 -2.53131E+02 -9.18392E+02  4.44047E+02
 -7.42978E+02 -5.05072E+02 -1.73347E+03 -3.46473E+02 -2.23618E+02 -8.19058E+02 -5.89982E+02 -9.92551E+02
  1.49018E+03 -9.06811E+02  9.39691E+02  1.21178E+02  1.55932E+03  1.64579E+03  1.32123E+02  2.86285E+03
 -1.41452E+03  3.65975E+03 -2.98912E+03  1.78546E+03 -3.53789E+03 -4.10913E+02 -2.31175E+03 -2.25660E+03
 -1.73690E+03 -3.31709E+03  8.36456E+02 -2.56653E+03  1.34575E+03 -1.23063E+03  2.10324E+03  1.28645E+02
  7.55846E+02  5.70977E+02  4.10250E+01  5.60379E+02 -8.19337E+02 -2.36211E+02  2.01944E+01 -2.77300E+02
  9.61878E+02  3.31717E+01  5.95459E+02  4.81069E+02  6.67412E+02  6.08209E+02  4.32281E+02  4.38766E+02
 -1.01682E+03  1.22668E+03 -1.06195E+03  3.58719E+02 -1.73626E+03 -1.28201E+03 -1.46294E+02 -2.26708E+03
  5.88219E+02 -1.31943E+03  1.13565E+03 -9.16276E+01  1.45841E+03 -4.03447E+02  4.07362E+02  1.34445E+03
  4.47312E+02  1.33554E+03 -1.57750E+02  1.19154E+03 -6.43771E+02  3.60581E+02 -1.03157E+03 -4.63419E+01
 -3.83228E+02  5.19857E+01 -6.28011E+02 -2.24469E+02 -1.34126E+03  6.49732E+02 -1.14243E+03 -5.14834E+02
 -1.54103E+03  1.76027E+02 -1.03098E+03 -1.69978E+03  6.31881E+02 -2.13306E+03  1.32487E+03 -8.05287E+02
  1.02138E+03 -1.23966E+02  1.48406E+01  7.04146E+02 -2.28812E+02  1.44524E+03 -6.22055E+02  1.10564E+03
