 $NMID ID='MM_0lb_SNR400_12hz_g55_3.RAW', FMTDAT='(8E13.5)'
 TRAMP=1., VOLUME=1. $END
  3.09819E+05  5.73690E+02  3.37749E+05  2.50585E+05  8.50456E+04  3.38881E+05 -1.32802E+05  2.51361E+05
 -1.90755E+05  8.41033E+04 -1.12029E+05 -3.25957E+04  3.08793E+02 -5.01302E+04  5.37032E+04  5.69869E+01
  3.57375E+04  5.28326E+04 -1.68626E+04  7.52298E+04 -6.08071E+04  6.41611E+04 -8.50482E+04  3.18690E+04
 -8.06579E+04 -1.13878E+04 -5.84274E+04 -5.17149E+04 -1.47473E+04 -6.99611E+04  2.77234E+04 -4.66441E+04
  4.05133E+04  4.18336E+03  1.61234E+04  4.81885E+04 -3.44049E+04  4.77664E+04 -6.79536E+04  2.98460E+02
 -5.38506E+04 -5.73068E+04 -6.84932E+03 -7.83205E+04  3.42229E+04 -5.57998E+04  4.92657E+04 -1.79570E+04
  4.42461E+04  1.15444E+04  3.20902E+04  2.56671E+04  1.61289E+04  3.01016E+04 -6.08225E+03  2.78211E+04
 -2.32087E+04  1.21011E+04 -1.79747E+04 -4.83032E+03  6.35704E+03 -7.11008E+03  2.28698E+04  1.34359E+04
  7.04206E+03  3.62109E+04 -3.35014E+04  3.63682E+04 -6.46275E+04  1.77627E+03 -5.87281E+04 -4.41310E+04
 -1.26948E+04 -6.41596E+04  4.10491E+04 -4.62777E+04  5.97274E+04 -2.12382E+03  3.53717E+04  3.27610E+04
 -5.77668E+03  3.79403E+04 -3.12602E+04  1.73460E+04 -3.17893E+04 -3.45308E+03 -1.82173E+04 -1.19946E+04
 -8.67009E+03 -1.47888E+04 -2.24693E+02 -1.84789E+04  8.26827E+03 -2.28771E+04  1.55881E+04 -1.32493E+04
  1.08767E+04  5.67306E+03 -9.44815E+03  1.22645E+04 -2.23519E+04 -5.68212E+03 -7.70414E+03 -3.63737E+04
  2.34179E+04 -4.62572E+04  5.00902E+04 -2.05522E+04  4.68834E+04  2.07936E+04  1.68262E+04  4.63967E+04
 -1.61953E+04  3.43880E+04 -2.66540E+04  2.69179E+03 -1.12765E+04 -2.92650E+04  2.08558E+04 -3.52994E+04
  4.34534E+04 -1.02371E+04  3.82373E+04  2.37125E+04  2.01383E+04  4.88252E+04 -7.86918E+03  5.34968E+04
 -3.36361E+04  3.61063E+04 -4.51518E+04  1.03490E+04 -4.48462E+04 -1.79345E+04 -2.53129E+04 -4.03749E+04
  7.59953E+03 -3.98036E+04  3.25392E+04 -1.58730E+04  3.09119E+04  1.10478E+04  4.48034E+03  1.96947E+04
 -1.33241E+04  9.09785E+03 -1.03888E+04 -7.70346E+03  6.07626E+03 -1.15328E+04  1.89973E+04  5.24388E+03
  1.49443E+04  2.19862E+04 -5.46263E+03  2.59394E+04 -2.33491E+04  1.31182E+04 -2.97023E+04 -3.12909E+03
 -2.36175E+04 -1.78287E+04 -1.06723E+04 -2.27545E+04  4.58941E+03 -2.31759E+04  1.79198E+04 -2.05852E+04
  3.00024E+04 -1.34147E+04  3.50252E+04  3.54534E+03  2.59434E+04  2.20694E+04  5.44829E+03  3.94358E+04
 -1.89938E+04  3.19898E+04 -2.94768E+04  1.10163E+04 -2.25390E+04 -1.02384E+04 -4.94294E+03 -1.31561E+04
  1.26410E+03 -1.59158E+03 -6.35542E+03  7.50427E+03 -1.78459E+04  4.61972E+03 -1.80127E+04 -8.27411E+03
 -1.13066E+04 -2.15798E+04  5.23406E+03 -2.50852E+04  1.72836E+04 -1.80803E+04  2.08808E+04 -1.44876E+03
  1.21764E+04  1.47828E+04 -1.35748E+03  2.09743E+04 -1.56652E+04  1.20410E+04 -2.16766E+04 -4.44770E+03
 -1.58059E+04 -1.87177E+04 -1.73516E+03 -2.55173E+04  1.16724E+04 -2.06755E+04  2.03746E+04 -1.07717E+04
  1.97875E+04  7.11908E+02  1.40538E+04  5.18941E+03  8.03588E+03  1.41971E+03  1.10996E+04 -2.53066E+03
  1.98983E+04  3.11096E+03  2.23452E+04  1.70179E+04  1.51548E+04  3.38316E+04 -2.02728E+03  3.85781E+04
 -2.31038E+04  3.22763E+04 -3.66682E+04  1.64497E+04 -3.91002E+04 -2.57099E+03 -3.15570E+04 -2.25541E+04
 -1.27673E+04 -3.22038E+04  1.09983E+04 -2.83786E+04  2.42690E+04 -1.39096E+04  2.19263E+04  7.09905E+03
  7.47919E+03  1.62475E+04 -1.02462E+04  1.42207E+04 -1.83675E+04  2.70708E+03 -1.29912E+04 -1.10203E+04
 -7.88136E+02 -1.78615E+04  8.55783E+03 -1.31035E+04  1.20075E+04 -1.43545E+03  1.47415E+03  7.47477E+03
 -7.38862E+03  3.01583E+03 -7.41303E+03 -6.43642E+03 -1.31408E+03 -1.52234E+04  1.04684E+04 -1.62534E+04
  1.99161E+04 -9.33193E+03  2.13975E+04  3.13481E+03  1.85811E+04  1.56890E+04  9.41230E+03  2.44306E+04
 -4.19760E+03  2.61669E+04 -1.77088E+04  1.65593E+04 -1.91759E+04  3.67188E+03 -1.36126E+04 -4.70061E+03
 -5.74931E+03 -5.89276E+03 -4.27100E+02  1.05163E+03 -2.79705E+03  3.43447E+03 -5.86133E+03  4.12753E+03
 -1.23723E+04 -2.26599E+02 -1.32903E+04 -1.09977E+04 -5.63264E+03 -1.73160E+04  4.90506E+03 -1.28692E+04
  1.15408E+04 -5.79465E+03  7.82088E+03  3.72511E+03  4.38646E+02  5.41928E+03 -6.35507E+03 -6.51050E+02
 -5.82614E+03 -8.33245E+03 -1.55222E+03 -1.27533E+04  7.57556E+03 -1.39492E+04  1.66892E+04 -7.57317E+03
  1.91948E+04  1.92721E+03  1.39460E+04  1.14319E+04  2.37503E+03  1.55658E+04 -8.56491E+03  1.37388E+04
 -1.12800E+04  3.35318E+03 -5.68338E+03 -2.85950E+03  1.81864E+03 -3.83207E+03  6.99499E+03 -9.90494E+02
  6.85799E+03  6.07062E+03  1.55558E+03  1.00512E+04 -7.86793E+03  1.03341E+04 -1.24682E+04  2.75720E+03
 -8.09647E+03 -6.55551E+03  8.01019E+02 -1.15799E+04  7.54856E+03 -5.85179E+03  7.73946E+03  2.64433E+03
  1.65073E+03  8.32513E+03 -6.66772E+03  9.37231E+03 -1.04516E+04  3.97321E+03 -1.04779E+04 -4.03587E+03
 -6.57025E+03 -1.27093E+04  3.31919E+03 -1.45897E+04  1.24014E+04 -8.71573E+03  1.32591E+04  2.50802E+03
  7.69992E+03  1.07306E+04 -1.24991E+03  1.32158E+04 -9.34776E+03  6.64256E+03 -1.07682E+04 -1.31284E+03
 -9.23769E+03 -8.73261E+03 -2.02557E+03 -9.61340E+03  5.42916E+03 -8.08320E+03  5.44598E+03 -2.98158E+03
  4.55911E+03  2.13997E+03 -6.76534E+02  1.47864E+03 -2.44889E+02 -2.47766E+03  1.99020E+03 -5.92230E+03
  9.11223E+03 -3.03217E+03  1.25752E+04  1.22305E+03  1.19723E+04  8.61543E+03  8.25970E+03  1.59806E+04
 -3.37355E+03  1.78679E+04 -1.50326E+04  1.33486E+04 -1.99128E+04  2.85082E+03 -1.64044E+04 -6.36236E+03
 -8.22982E+03 -1.34118E+04 -4.61212E+01 -1.15254E+04  4.57766E+03 -5.83600E+03  4.15209E+03 -4.09218E+03
  3.03849E+03 -2.88860E+03  3.47611E+03 -3.25358E+03  5.36988E+03 -2.81558E+03  6.73203E+03 -6.31733E+02
  8.53987E+03  2.27786E+03  3.63884E+03  7.38124E+03 -1.58342E+03  8.03087E+03 -8.84164E+03  6.75907E+03
 -1.09293E+04 -1.42398E+03 -6.90764E+03 -7.22136E+03 -1.10328E+03 -1.18399E+04  7.42728E+03 -1.26252E+04
  1.27938E+04 -6.59521E+03  1.48949E+04  1.64973E+03  9.45571E+03  9.89888E+03  2.20390E+03  1.28565E+04
 -5.95375E+03  1.11004E+04 -7.97699E+03  3.95991E+03 -4.82400E+03 -1.65543E+03 -2.60755E+03 -1.68634E+03
 -5.97897E+02 -3.12358E+02 -1.68349E+03  3.30296E+03 -5.19144E+03  1.52115E+03 -9.01427E+03 -9.93509E+02
 -4.56926E+03 -8.05794E+03 -4.40364E+02 -1.12567E+04  6.52523E+03 -9.81093E+03  1.02877E+04 -2.73791E+03
  1.07730E+04  5.50832E+03  4.92157E+03  1.00837E+04 -1.96158E+03  1.02718E+04 -7.67823E+03  6.47304E+03
 -9.55425E+03  3.79504E+02 -7.43884E+03 -6.17723E+03 -1.21175E+03 -8.65174E+03  4.92356E+03 -6.74675E+03
  6.66916E+03 -2.88289E+03  4.88564E+03  2.47132E+03  2.12821E+03  3.86663E+03  9.07471E+02  1.84525E+03
  2.87306E+03  1.09439E+03  2.73835E+03  1.90033E+03  3.83657E+03  4.10572E+03  2.56348E+03  5.19536E+03
 -2.98062E+03  8.55896E+03 -7.32368E+03  9.19714E+03 -1.03055E+04  2.12464E+03 -1.10118E+04 -3.68336E+03
 -5.57313E+03 -1.04269E+04  2.01264E+03 -1.22856E+04  6.67379E+03 -6.56877E+03  8.51424E+03 -2.11018E+03
  6.75042E+03  3.97635E+03  1.54161E+03  6.20023E+03 -2.80638E+03  3.38757E+03 -4.49162E+03 -1.96702E+02
 -2.14277E+03 -3.71677E+03  2.78875E+03 -4.37536E+03  5.09478E+03 -2.23764E+03  4.17511E+03  1.04917E+03
  2.38199E+03  1.67317E+03  1.81772E+03  1.74730E+03 -6.99453E+02  1.68868E+03  1.01872E+03 -3.79371E+02
  1.66092E+03 -1.74787E+02  4.21581E+03  1.63680E+03  2.04440E+03  6.00110E+03 -1.29300E+03  7.33602E+03
 -4.34638E+03  4.38164E+03 -6.27779E+03  1.35722E+03 -6.57309E+03 -2.24531E+03 -2.42052E+03 -2.96775E+03
  1.67224E+03 -4.08477E+03  2.51309E+03 -1.49511E+03  1.90695E+03  2.41018E+03 -6.82268E+02  3.09139E+03
 -4.65820E+03  2.47835E+03 -4.59914E+03 -2.49816E+03 -2.48726E+03 -5.96630E+03  6.64335E+02 -5.46500E+03
  3.10693E+03 -2.85480E+03  4.09234E+03 -8.75972E+01  3.19821E+03  7.58695E+02  4.32951E+02  2.82334E+03
 -2.27022E+03  4.04324E+02 -2.70109E+03 -1.39975E+03  1.10077E+03 -3.71573E+03  4.54885E+03 -3.63668E+03
  5.37112E+03  2.71469E+02  6.29251E+03  4.09105E+03  1.95706E+03  6.89489E+03 -2.31835E+03  5.82447E+03
 -5.02730E+03  2.08153E+03 -5.30249E+03 -1.21174E+03 -2.81575E+03 -3.99838E+03  1.02389E+03 -3.22745E+03
  4.05085E+03 -2.28066E+03  2.43407E+03  1.19341E+03  1.35864E+03  3.94016E+03 -6.61862E+02  3.59047E+03
 -1.98390E+03  1.89076E+03 -1.12842E+03  2.50399E+02 -9.76339E+02  1.41080E+03 -1.02459E+03  1.27956E+03
 -2.06150E+03  2.54079E+03 -4.08152E+03  2.75572E+03 -5.97197E+03  8.83862E+02 -7.63540E+03 -4.52043E+03
 -3.68051E+03 -8.72630E+03  1.54887E+03 -9.81696E+03  4.97972E+03 -7.47176E+03  8.64695E+03 -3.50506E+03
  8.13765E+03  1.92111E+03  4.99538E+03  6.12612E+03 -1.42126E+02  6.21505E+03 -1.73504E+03  4.98322E+03
 -3.16498E+03  9.41042E+02 -2.28103E+03 -7.95939E+02 -5.72444E+02 -2.91686E+02 -8.39139E+02  1.38197E+02
 -1.33914E+03 -8.00054E+01 -1.94246E+03 -1.72367E+02 -2.63068E+02 -1.55104E+03  3.19363E+02 -2.97270E+03
  2.39386E+03 -2.88584E+03  3.38134E+03 -1.91229E+02  4.59498E+03  3.89123E+03  8.45703E+02  5.86209E+03
 -2.07480E+03  6.75770E+03 -6.91949E+03  4.55523E+03 -7.51355E+03 -1.43360E+03 -5.47707E+03 -3.98388E+03
 -3.20436E+03 -6.38102E+03  1.07169E+03 -5.75374E+03  4.02320E+03 -2.94952E+03  3.79358E+03  3.28385E+02
  2.25149E+03  1.67627E+03 -2.36941E+02  2.61071E+03 -1.42067E+03  1.43082E+02  9.46593E+01 -9.48610E+02
  1.42547E+03 -1.16304E+03  1.70678E+03  1.10758E+03  1.89929E+03  2.27230E+03  1.39772E+02  2.95927E+03
 -2.93737E+03  3.41474E+03 -4.16006E+03  4.58384E+02 -3.59098E+03 -2.66618E+03 -4.92134E+02 -4.77016E+03
  3.36888E+03 -4.28146E+03  3.94703E+03 -8.16538E+02  3.65150E+03  3.56443E+02  2.67461E+03  3.78378E+03
  5.98982E+02  3.67906E+03 -1.43196E+03  3.13479E+03 -2.87237E+03  1.99364E+03 -2.67023E+03  4.13219E+02
 -1.51968E+03 -7.62783E+02 -8.73250E+02  7.17349E+02 -1.65241E+03  4.84682E+02 -3.61465E+03 -6.80249E+02
 -2.72738E+03 -2.28587E+03 -6.77691E+02 -4.10200E+03  2.35457E+03 -3.92721E+03  3.75269E+03 -1.74456E+03
  3.97343E+03  4.00182E+02  2.00632E+03  2.23869E+03 -4.87383E+02  3.88251E+03 -2.28351E+03  2.98762E+03
