 $NMID ID='MM_0lb_SNR400_15hz_g50_19.RAW', FMTDAT='(8E13.5)'
 TRAMP=1., VOLUME=1. $END
  3.10175E+05 -2.75450E+01  3.37664E+05  2.50953E+05  8.41396E+04  3.37912E+05 -1.32132E+05  2.50899E+05
 -1.90146E+05  8.28841E+04 -1.11200E+05 -3.33920E+04  9.41897E+02 -5.01229E+04  5.36063E+04  6.05854E+02
  3.55672E+04  5.32956E+04 -1.64376E+04  7.54262E+04 -6.06084E+04  6.37265E+04 -8.40836E+04  3.17468E+04
 -8.11774E+04 -1.16803E+04 -5.69470E+04 -5.08235E+04 -1.48572E+04 -6.94235E+04  2.77081E+04 -4.53985E+04
  3.99490E+04  3.56440E+03  1.58991E+04  4.75797E+04 -3.48095E+04  4.66515E+04 -6.63639E+04 -3.04849E+02
 -5.34467E+04 -5.68458E+04 -6.92682E+03 -7.64442E+04  3.36162E+04 -5.49037E+04  4.77682E+04 -1.67824E+04
  4.29944E+04  1.13883E+04  3.17037E+04  2.49479E+04  1.60787E+04  2.88704E+04 -5.15836E+03  2.70546E+04
 -2.22762E+04  1.26335E+04 -1.82936E+04 -4.86985E+03  5.94489E+03 -7.08650E+03  2.24027E+04  1.24821E+04
  7.01119E+03  3.45977E+04 -3.22118E+04  3.53057E+04 -6.25348E+04  2.06712E+03 -5.74013E+04 -4.25508E+04
 -1.22990E+04 -6.28226E+04  3.94192E+04 -4.52380E+04  5.80581E+04 -2.21345E+03  3.39802E+04  3.15314E+04
 -6.22865E+03  3.60113E+04 -2.92573E+04  1.55909E+04 -2.98273E+04 -4.94771E+03 -1.59847E+04 -1.13079E+04
 -8.68770E+03 -1.29612E+04 -5.87821E+02 -1.71675E+04  7.50431E+03 -2.29126E+04  1.53378E+04 -1.32543E+04
  1.18162E+04  5.40631E+03 -7.69250E+03  1.28105E+04 -2.12878E+04 -4.04993E+03 -8.29061E+03 -3.32841E+04
  2.22879E+04 -4.29588E+04  4.74028E+04 -1.97967E+04  4.43937E+04  1.93839E+04  1.57599E+04  4.38413E+04
 -1.57322E+04  3.31920E+04 -2.51573E+04  2.31900E+03 -9.25880E+03 -2.79934E+04  2.06021E+04 -3.38099E+04
  4.09300E+04 -8.40951E+03  3.49583E+04  2.36649E+04  1.84798E+04  4.55168E+04 -7.91236E+03  4.97267E+04
 -3.10423E+04  3.29352E+04 -4.14526E+04  9.01724E+03 -4.19473E+04 -1.64015E+04 -2.32258E+04 -3.67224E+04
  7.14414E+03 -3.70221E+04  3.09696E+04 -1.49098E+04  2.86906E+04  1.03312E+04  3.97039E+03  1.95829E+04
 -1.32858E+04  7.89970E+03 -9.81102E+03 -7.75381E+03  5.49929E+03 -1.04195E+04  1.75073E+04  6.26413E+03
  1.33388E+04  2.21800E+04 -5.81425E+03  2.45702E+04 -2.24165E+04  1.11636E+04 -2.77323E+04 -5.05065E+03
 -2.00921E+04 -1.71871E+04 -7.87675E+03 -1.97024E+04  3.54736E+03 -1.86802E+04  1.52587E+04 -1.77484E+04
  2.57954E+04 -1.28234E+04  3.18903E+04  2.66857E+03  2.33987E+04  1.93324E+04  4.47214E+03  3.61683E+04
 -1.70420E+04  3.00638E+04 -2.69851E+04  1.04306E+04 -2.06382E+04 -1.03294E+04 -4.10400E+03 -1.38723E+04
  1.90319E+03 -3.03580E+03 -4.68431E+03  6.23081E+03 -1.53832E+04  5.53659E+03 -1.61644E+04 -6.46381E+03
 -1.00863E+04 -1.82701E+04  5.36989E+03 -2.25910E+04  1.47211E+04 -1.65551E+04  1.69679E+04 -1.26235E+03
  1.05090E+04  1.24377E+04 -8.39897E+02  1.84468E+04 -1.25443E+04  1.05376E+04 -1.86643E+04 -4.59337E+03
 -1.36177E+04 -1.68508E+04 -2.00394E+03 -2.21458E+04  1.03519E+04 -1.84608E+04  1.82669E+04 -8.73011E+03
  1.68401E+04  2.32882E+02  1.26032E+04  4.08517E+03  6.76071E+03  1.20579E+03  9.66346E+03 -1.81203E+03
  1.67723E+04  2.37294E+03  1.90162E+04  1.48099E+04  1.16216E+04  2.92283E+04 -3.67240E+03  3.31166E+04
 -1.92247E+04  2.58100E+04 -3.02425E+04  1.28575E+04 -3.18001E+04 -2.41842E+03 -2.66105E+04 -1.88180E+04
 -1.14182E+04 -2.65799E+04  8.54423E+03 -2.35517E+04  2.06717E+04 -1.25683E+04  1.85863E+04  5.61492E+03
  6.51500E+03  1.35982E+04 -8.94266E+03  1.18274E+04 -1.56999E+04  2.83327E+03 -1.15800E+04 -9.75577E+03
 -2.26356E+02 -1.45899E+04  6.93188E+03 -1.11796E+04  1.00180E+04 -1.36302E+03  1.69306E+03  6.66097E+03
 -6.88132E+03  2.44938E+03 -5.05172E+03 -5.39728E+03 -6.57230E+02 -1.29612E+04  9.11767E+03 -1.28549E+04
  1.52958E+04 -6.54357E+03  1.61040E+04  3.28058E+03  1.40858E+04  1.18275E+04  6.98933E+03  1.89765E+04
 -3.35837E+03  2.10390E+04 -1.30002E+04  1.30847E+04 -1.50596E+04  3.59657E+03 -1.13373E+04 -3.43637E+03
 -5.77762E+03 -4.68862E+03 -8.20517E+02  1.17496E+03 -2.56743E+03  2.21193E+03 -4.69510E+03  4.53650E+03
 -9.95624E+03 -1.11376E+03 -1.10659E+04 -8.64340E+03 -4.53604E+03 -1.39705E+04  4.36614E+03 -1.11397E+04
  9.03587E+03 -4.52407E+03  6.43884E+03  2.81381E+03  4.77265E+02  4.38506E+03 -5.14410E+03 -6.39921E+02
 -4.92264E+03 -6.53588E+03 -9.14300E+02 -1.01505E+04  5.85023E+03 -1.00535E+04  1.34448E+04 -5.08471E+03
  1.53534E+04  1.07303E+03  1.15431E+04  9.23031E+03  1.84937E+03  1.20919E+04 -6.41088E+03  1.03650E+04
 -9.50697E+03  2.72455E+03 -4.56440E+03 -1.41133E+03  2.23344E+03 -2.45700E+03  5.64880E+03 -1.22493E+03
  4.64180E+03  4.15473E+03  7.38139E+02  8.30686E+03 -6.49079E+03  7.80948E+03 -1.00896E+04  2.42434E+03
 -6.80871E+03 -5.15971E+03  1.95854E+02 -9.39620E+03  5.08917E+03 -4.38434E+03  5.11594E+03  1.81523E+03
  8.03740E+02  5.18379E+03 -5.33798E+03  6.58664E+03 -7.18328E+03  3.26326E+03 -8.26907E+03 -2.16411E+03
 -3.89919E+03 -9.09736E+03  1.99803E+03 -1.02216E+04  8.27407E+03 -6.42306E+03  1.03345E+04  1.47557E+03
  6.32480E+03  7.96250E+03 -2.33005E+02  9.38359E+03 -6.77671E+03  5.62647E+03 -7.22261E+03 -4.13778E+02
 -7.05257E+03 -6.46448E+03 -1.66224E+03 -7.58753E+03  3.57989E+03 -5.76638E+03  3.98806E+03 -3.27085E+03
  3.51868E+03  6.33675E+02 -6.48827E+02  1.65436E+03 -2.46997E+02 -9.65040E+02  4.43337E+02 -3.32723E+03
  6.60320E+03 -1.91390E+03  8.24441E+03  1.13040E+03  8.60539E+03  5.44285E+03  7.03589E+03  1.11099E+04
 -2.37569E+03  1.33830E+04 -1.14156E+04  9.62421E+03 -1.48669E+04  1.83320E+03 -1.14562E+04 -4.46416E+03
 -6.05448E+03 -9.75800E+03 -2.09148E+02 -8.32782E+03  2.76667E+03 -3.55840E+03  2.53880E+03 -3.44088E+03
  1.90472E+03 -2.21526E+03  2.45827E+03 -1.87894E+03  3.70259E+03 -1.74583E+03  4.99813E+03  1.06653E+02
  5.97021E+03  1.20837E+03  2.15171E+03  5.22762E+03 -1.76555E+03  4.83981E+03 -6.43341E+03  4.58826E+03
 -7.39689E+03 -1.28834E+03 -3.14831E+03 -4.73874E+03  2.23106E+01 -8.02590E+03  4.54379E+03 -8.26407E+03
  8.37324E+03 -4.80756E+03  9.95402E+03  1.68735E+03  7.28722E+03  7.03177E+03  1.88221E+03  8.62607E+03
 -3.98288E+03  8.27847E+03 -4.74228E+03  2.88995E+03 -3.30742E+03 -7.83589E+02 -1.29623E+03 -1.28053E+03
 -6.85704E+02  8.39551E+01 -1.22598E+03  2.59340E+03 -3.59582E+03  1.21489E+03 -5.66734E+03 -4.93694E+02
 -3.05795E+03 -5.58181E+03  4.30035E+02 -7.97922E+03  3.94384E+03 -6.22060E+03  6.48841E+03 -2.01907E+03
  7.23927E+03  3.32273E+03  2.85411E+03  5.69075E+03 -9.92510E+02  6.69984E+03 -4.49870E+03  4.07074E+03
 -6.01389E+03  7.06371E+01 -5.89094E+03 -3.64938E+03 -6.09378E+02 -5.96899E+03  2.85089E+03 -3.97819E+03
  4.64992E+03 -1.70959E+03  2.61426E+03  1.42999E+03  7.18300E+02  2.43877E+03  7.63347E+02  7.85666E+02
  1.21882E+03  1.37776E+03  1.62948E+03  2.02164E+03  1.71654E+03  3.47007E+03  2.00454E+03  3.45754E+03
 -1.94129E+03  5.94046E+03 -4.73908E+03  6.17601E+03 -6.51422E+03  2.38241E+03 -7.07911E+03 -2.05905E+03
 -3.53557E+03 -6.61118E+03  1.25260E+03 -7.89020E+03  3.87453E+03 -4.21733E+03  5.18421E+03 -9.35510E+02
  4.08906E+03  2.80437E+03  8.26724E+02  3.76849E+03 -1.31169E+03  2.57101E+03 -2.21624E+03 -1.68986E+02
 -1.20428E+03 -3.05538E+03  2.22426E+03 -2.86542E+03  2.53149E+03 -9.44848E+02  2.46563E+03  6.71309E+02
  1.69821E+03  7.09551E+02  1.15503E+03  6.12700E+02 -8.74073E+02  1.33668E+03  1.94585E+03 -4.24007E+02
  3.63406E+02 -8.85607E+01  3.45752E+03  8.76690E+02  6.92664E+02  3.74745E+03 -9.64742E+02  5.10626E+03
 -2.73105E+03  2.79955E+03 -3.60167E+03  1.07997E+03 -3.67070E+03 -1.65120E+03 -1.05555E+03 -2.18235E+03
  4.91256E+02 -2.37363E+03  6.95084E+02 -9.60513E+02  1.01653E+03  1.50416E+03 -7.54560E+02  1.79873E+03
 -2.71784E+03  1.31990E+03 -2.72473E+03 -1.58486E+03 -1.27516E+03 -3.08920E+03  5.83626E+01 -2.75465E+03
  1.10274E+03 -1.92339E+03  2.62664E+03 -3.03371E+02  2.42566E+03  3.14143E+02  5.53487E+01  1.96923E+03
 -1.11528E+03  2.81689E+01 -1.51544E+03 -6.26420E+02  9.89066E+02 -2.33377E+03  2.41871E+03 -2.33594E+03
  3.32714E+03  6.64891E+02  3.44817E+03  1.93271E+03  7.73725E+02  3.06784E+03 -5.30142E+02  3.16007E+03
 -3.62972E+03  1.05760E+03 -2.52740E+03 -3.79122E+02 -2.04178E+03 -2.75531E+03  3.22944E+02 -1.69684E+03
  2.57904E+03 -1.54395E+03  1.79090E+03  1.01496E+03 -1.54062E+01  2.32916E+03 -2.17008E+02  1.28190E+03
 -9.42193E+02  1.54568E+03 -1.20532E+03  4.59813E+02  5.45677E+02  3.90743E+02 -1.16626E+03  1.28878E+03
 -1.46380E+03  1.66316E+03 -3.08472E+03  1.37236E+03 -3.84974E+03  3.07003E+02 -4.28205E+03 -2.29239E+03
 -2.00417E+03 -4.36195E+03  8.38840E+02 -5.20836E+03  3.14371E+03 -4.19444E+03  4.89225E+03 -1.81245E+03
  4.26660E+03  2.28912E+02  2.75603E+03  3.17706E+03 -3.24193E+01  2.69792E+03 -1.21841E+03  2.64192E+03
 -1.40280E+03  7.23197E+02 -6.47591E+02 -5.75559E+02 -3.50090E+02 -1.36968E+01 -6.44362E+02 -2.81929E+02
 -1.23418E+03  3.93736E+02 -1.18697E+03 -1.48040E+02 -1.06351E+02 -1.02506E+03 -7.96772E+02 -1.53155E+03
  1.69322E+03 -1.16865E+03  1.84298E+03  2.88030E+02  2.44423E+03  1.81221E+03  1.45592E+02  3.23765E+03
 -1.87568E+03  3.58473E+03 -3.00359E+03  1.89664E+03 -3.42097E+03 -4.65393E+02 -2.92708E+03 -2.37994E+03
 -1.40711E+03 -3.27091E+03  7.83539E+02 -3.15799E+03  1.99125E+03 -1.25796E+03  2.04497E+03  1.12050E+02
  1.63471E+03  1.12471E+02 -1.42259E+02  7.40046E+02 -2.75778E+02 -2.15109E+02 -4.11430E+02 -7.21842E+02
  9.77739E+02 -2.92795E+02  9.81096E+02  9.67080E+02  6.78123E+02  6.50966E+02  1.11071E+03  1.11588E+03
 -1.26648E+03  1.30257E+03 -1.53881E+03 -2.61146E+02 -1.51672E+03 -1.54895E+03  8.16531E+01 -2.76909E+03
  1.34023E+03 -1.75856E+03  1.70625E+03 -1.86019E+02  2.33711E+03 -1.39652E+02  7.17505E+02  1.63163E+03
  6.79764E+02  2.10380E+03 -7.74360E+02  1.45905E+03 -1.53984E+03  1.09584E+03 -5.45483E+02  1.73575E+02
 -1.49280E+02 -6.40307E+02 -8.28142E+02  4.54468E+02 -1.68360E+03  7.65238E+02 -1.82613E+03 -4.53695E+02
 -1.88738E+03 -2.13176E+02 -1.02489E+03 -1.68146E+03  4.60471E+02 -2.55262E+03  2.14015E+03 -6.72614E+02
  2.00817E+03  1.55073E+02  7.91701E+02  1.15404E+03 -2.14217E+02  2.01129E+03 -1.19852E+03  1.36603E+03
