 $NMID ID='MM_0lb_SNR400_8hz_g50_39.RAW', FMTDAT='(8E13.5)'
 TRAMP=1., VOLUME=1. $END
  3.10161E+05  1.11496E+03  3.37764E+05  2.50413E+05  8.49412E+04  3.38647E+05 -1.32653E+05  2.52031E+05
 -1.91683E+05  8.40939E+04 -1.12279E+05 -3.16439E+04 -8.77073E+01 -5.11372E+04  5.35684E+04 -3.80303E+02
  3.52459E+04  5.24294E+04 -1.73610E+04  7.68347E+04 -6.06814E+04  6.44542E+04 -8.55840E+04  3.31846E+04
 -8.20843E+04 -1.14780E+04 -5.84471E+04 -5.24964E+04 -1.46697E+04 -7.10974E+04  2.92666E+04 -4.70168E+04
  4.22924E+04  3.52666E+03  1.64993E+04  4.86209E+04 -3.53720E+04  4.78161E+04 -6.84071E+04  4.61003E+02
 -5.49964E+04 -5.86623E+04 -7.05848E+03 -7.96751E+04  3.46655E+04 -5.81682E+04  4.99942E+04 -1.87045E+04
  4.58460E+04  1.16288E+04  3.25544E+04  2.72252E+04  1.55604E+04  3.11391E+04 -6.95669E+03  2.63879E+04
 -2.28761E+04  1.19810E+04 -1.79153E+04 -5.36775E+03  7.71101E+03 -7.45677E+03  2.39008E+04  1.35482E+04
  7.24116E+03  3.83375E+04 -3.56582E+04  3.73229E+04 -6.62667E+04  2.33097E+03 -5.90667E+04 -4.45187E+04
 -1.23440E+04 -6.70677E+04  4.14860E+04 -4.77430E+04  6.18459E+04 -2.48114E+03  3.74267E+04  3.46613E+04
 -5.25327E+03  4.02811E+04 -3.26172E+04  1.93933E+04 -3.42058E+04 -3.81748E+03 -1.98792E+04 -1.26049E+04
 -9.49629E+03 -1.57402E+04 -1.84665E+02 -2.04911E+04  9.08326E+03 -2.32081E+04  1.63282E+04 -1.27887E+04
  1.00694E+04  5.54314E+03 -1.09756E+04  1.18237E+04 -2.44887E+04 -7.31935E+03 -8.42792E+03 -3.83841E+04
  2.53864E+04 -4.70940E+04  5.32038E+04 -2.03000E+04  4.91612E+04  2.00228E+04  1.83034E+04  4.81027E+04
 -1.68966E+04  3.63931E+04 -2.80092E+04  3.47015E+03 -1.20176E+04 -3.00392E+04  2.28377E+04 -3.77957E+04
  4.56506E+04 -1.19406E+04  4.11992E+04  2.42935E+04  2.31385E+04  5.20019E+04 -7.76070E+03  5.82119E+04
 -3.66097E+04  3.88538E+04 -4.90687E+04  1.09955E+04 -4.78915E+04 -1.88626E+04 -2.53162E+04 -4.32659E+04
  8.72736E+03 -4.25559E+04  3.39942E+04 -1.76058E+04  3.31205E+04  1.09419E+04  4.88360E+03  2.20014E+04
 -1.42193E+04  8.90253E+03 -1.20340E+04 -7.81179E+03  5.61079E+03 -1.11116E+04  1.96253E+04  4.57242E+03
  1.51685E+04  2.28059E+04 -4.83162E+03  2.75288E+04 -2.28755E+04  1.52086E+04 -3.24004E+04 -3.33769E+03
 -2.69265E+04 -1.85257E+04 -1.26107E+04 -2.58397E+04  3.73613E+03 -2.71185E+04  2.12128E+04 -2.37203E+04
  3.37905E+04 -1.47474E+04  3.89215E+04  6.14303E+03  2.70180E+04  2.59732E+04  4.57269E+03  4.26549E+04
 -2.09284E+04  3.52027E+04 -3.07985E+04  1.14476E+04 -2.29049E+04 -9.07549E+03 -5.00562E+03 -1.19516E+04
 -1.12249E+02 -6.74493E+02 -8.46142E+03  8.25085E+03 -2.02565E+04  5.10463E+03 -2.08660E+04 -9.65351E+03
 -1.22481E+04 -2.39671E+04  6.28411E+03 -2.81855E+04  1.98344E+04 -2.14504E+04  2.36047E+04 -1.55433E+03
  1.44451E+04  1.72526E+04 -1.90650E+03  2.54394E+04 -1.76382E+04  1.36994E+04 -2.50169E+04 -4.83418E+03
 -1.89029E+04 -2.17717E+04 -1.92147E+03 -2.92774E+04  1.30940E+04 -2.46104E+04  2.43658E+04 -1.27550E+04
  2.22362E+04 -3.24907E+02  1.67784E+04  5.06161E+03  8.72940E+03  2.50011E+03  1.16893E+04 -2.04878E+03
  2.34759E+04  3.38872E+03  2.62879E+04  1.89820E+04  1.81878E+04  3.93395E+04 -2.20399E+03  4.60939E+04
 -2.59481E+04  3.83407E+04 -4.36075E+04  1.93669E+04 -4.66184E+04 -3.02280E+03 -3.77597E+04 -2.75572E+04
 -1.65173E+04 -3.86771E+04  1.44045E+04 -3.46301E+04  3.04563E+04 -1.62873E+04  2.55208E+04  8.29432E+03
  9.09360E+03  1.95061E+04 -1.18892E+04  1.73007E+04 -2.13273E+04  3.33089E+03 -1.57098E+04 -1.34836E+04
 -8.90303E+02 -2.00693E+04  1.11702E+04 -1.45847E+04  1.38467E+04 -6.61707E+02  4.36989E+03  8.61481E+03
 -9.06307E+03  3.62453E+03 -9.50795E+03 -6.93144E+03 -2.26405E+03 -1.88218E+04  1.29008E+04 -2.13590E+04
  2.39420E+04 -1.19892E+04  2.79805E+04  3.59020E+03  2.40531E+04  1.94036E+04  1.16664E+04  3.08162E+04
 -5.29806E+03  3.33860E+04 -2.15922E+04  2.03210E+04 -2.43856E+04  3.74222E+03 -1.56251E+04 -6.44285E+03
 -7.18333E+03 -8.41446E+03 -1.11052E+03 -7.98088E+02 -2.98447E+03  3.21068E+03 -8.40435E+03  6.47886E+03
 -1.50346E+04 -1.64988E+03 -1.62350E+04 -1.23983E+04 -6.74352E+03 -1.97429E+04  6.74420E+03 -1.68573E+04
  1.38687E+04 -6.82532E+03  9.48575E+03  4.39884E+03 -1.46161E+02  6.89886E+03 -8.95546E+03  5.42188E+02
 -8.07831E+03 -9.99535E+03 -6.83674E+02 -1.58884E+04  9.44606E+03 -1.66404E+04  2.11448E+04 -9.95760E+03
  2.46343E+04  2.46926E+03  1.85999E+04  1.55282E+04  3.42986E+03  2.10626E+04 -9.69147E+03  1.71026E+04
 -1.35593E+04  4.37791E+03 -7.45591E+03 -3.78347E+03  2.06461E+03 -5.36416E+03  8.58589E+03 -1.52613E+03
  7.87672E+03  7.32715E+03  1.54219E+03  1.29468E+04 -1.07493E+04  1.31256E+04 -1.65667E+04  2.83077E+03
 -1.01571E+04 -9.04884E+03 -1.06164E+00 -1.45455E+04  9.36160E+03 -7.38692E+03  1.01842E+04  4.20953E+03
  2.60074E+03  1.12153E+04 -9.19270E+03  1.26481E+04 -1.44199E+04  5.68390E+03 -1.48535E+04 -5.99743E+03
 -8.79102E+03 -1.66846E+04  4.33482E+03 -2.06493E+04  1.75381E+04 -1.16443E+04  1.87026E+04  3.38162E+03
  1.03385E+04  1.48910E+04 -2.11459E+03  1.77673E+04 -1.26925E+04  9.63056E+03 -1.37014E+04 -1.22675E+03
 -1.14837E+04 -1.13644E+04 -1.84237E+03 -1.26762E+04  7.71951E+03 -1.07564E+04  8.81056E+03 -4.20931E+03
  5.07891E+03  3.12848E+03 -1.13839E+03  2.47467E+03 -6.05605E+02 -3.88092E+03  3.10356E+03 -9.05080E+03
  1.19590E+04 -5.25345E+03  1.80897E+04  1.71797E+03  1.71091E+04  1.12422E+04  1.14517E+04  2.34613E+04
 -5.36467E+03  2.53407E+04 -2.14106E+04  1.89822E+04 -2.74642E+04  2.87774E+03 -2.28278E+04 -1.01380E+04
 -1.16373E+04 -1.85107E+04 -2.61741E+02 -1.57488E+04  5.50673E+03 -9.90575E+03  6.01888E+03 -5.26479E+03
  4.74664E+03 -3.17621E+03  3.91610E+03 -3.13523E+03  6.04295E+03 -3.39557E+03  8.03468E+03 -7.43571E+02
  1.16989E+04  2.58274E+03  7.39368E+03  1.06744E+04 -2.80494E+03  1.15919E+04 -1.26592E+04  9.96368E+03
 -1.63684E+04 -1.03017E+03 -1.01133E+04 -1.12542E+04 -1.51248E+03 -1.69460E+04  9.68219E+03 -1.70235E+04
  1.92236E+04 -9.11525E+03  2.21161E+04  3.21391E+03  1.46104E+04  1.64870E+04  2.41094E+03  1.99460E+04
 -9.08113E+03  1.60421E+04 -1.23907E+04  5.31743E+03 -7.29282E+03 -2.16115E+03 -3.78714E+03 -1.82887E+03
 -1.37820E+03 -2.76767E+01 -3.22490E+03  2.85923E+03 -6.92869E+03  3.16227E+03 -1.18314E+04 -1.46373E+03
 -8.36664E+03 -1.15301E+04  8.55882E+02 -1.59602E+04  1.02231E+04 -1.57692E+04  1.70628E+04 -4.38767E+03
  1.61938E+04  7.67199E+03  7.55748E+03  1.46320E+04 -3.31205E+03  1.71357E+04 -1.20547E+04  1.03226E+04
 -1.58113E+04  8.73918E+02 -1.22256E+04 -1.01401E+04 -9.83481E+02 -1.38258E+04  6.84400E+03 -9.85751E+03
  1.19434E+04 -3.59556E+03  6.75835E+03  2.28448E+03  2.02410E+03  4.52467E+03  1.90866E+03  2.09209E+03
  3.05291E+03  9.98812E+02  3.11722E+03  1.13627E+03  5.16287E+03  5.42588E+03  4.35474E+03  9.35828E+03
 -3.56380E+03  1.30287E+04 -1.16679E+04  1.29293E+04 -1.80578E+04  2.35556E+03 -1.72907E+04 -7.32478E+03
 -8.84912E+03 -1.72471E+04  1.90827E+03 -1.80757E+04  1.05188E+04 -1.15184E+04  1.43095E+04 -3.54082E+03
  1.08121E+04  6.06221E+03  1.56831E+03  1.04110E+04 -4.95556E+03  6.60334E+03 -7.30377E+03 -9.71511E+02
 -3.28886E+03 -7.18540E+03  4.22702E+03 -8.91715E+03  7.12678E+03 -3.15486E+03  7.24126E+03  2.50436E+03
  4.16119E+03  3.02298E+03  1.09375E+03  3.07786E+03 -9.24202E+01  2.82781E+03  4.91358E+02 -1.14431E+03
  2.99186E+03 -9.61752E+02  6.28246E+03  3.09391E+03  3.95867E+03  1.00019E+04 -1.58051E+03  1.16309E+04
 -8.57523E+03  7.95386E+03 -1.08470E+04  1.90389E+03 -1.05036E+04 -3.56896E+03 -3.76451E+03 -6.07773E+03
  1.08967E+03 -7.72497E+03  5.12816E+03 -2.50072E+03  2.91375E+03  3.01628E+03 -6.69951E+02  6.08069E+03
 -7.39205E+03  3.22112E+03 -7.57809E+03 -4.36046E+03 -4.34028E+03 -1.03745E+04  1.60858E+03 -1.02495E+04
  5.93869E+03 -5.54714E+03  7.59177E+03 -7.03926E+02  6.30239E+03  2.85212E+03  6.47310E+02  4.42275E+03
 -2.93507E+03  1.59179E+03 -4.82427E+03 -3.27801E+03  1.30902E+03 -7.35344E+03  8.23880E+03 -6.33041E+03
  1.17786E+04  6.55678E+02  1.11171E+04  7.69761E+03  3.60149E+03  1.23601E+04 -5.91627E+03  1.13194E+04
 -8.99975E+03  4.79958E+03 -1.00446E+04 -1.31191E+03 -5.78772E+03 -7.21107E+03  2.73872E+03 -6.49730E+03
  7.01609E+03 -2.58105E+03  6.81932E+03  2.84333E+03  2.45040E+03  5.98632E+03 -1.01291E+03  6.10327E+03
 -3.31494E+03  3.77795E+03 -3.25235E+03  8.38365E+02 -9.28469E+02  5.51410E+02 -1.38591E+03  2.83765E+03
 -3.08776E+03  5.20005E+03 -7.87221E+03  4.23016E+03 -1.21460E+04  1.32607E+02 -1.20142E+04 -8.65508E+03
 -7.42481E+03 -1.64856E+04  3.43236E+03 -1.78923E+04  1.18605E+04 -1.38249E+04  1.67820E+04 -5.21876E+03
  1.59285E+04  3.45269E+03  1.01243E+04  1.06797E+04  5.89197E+02  1.19700E+04 -4.81232E+03  8.73310E+03
 -7.15607E+03  2.82013E+03 -4.12968E+03 -9.67845E+02 -1.74346E+03 -1.03825E+03 -6.07223E+02 -8.79526E+02
 -1.21731E+03 -3.29273E+02 -2.97644E+03  1.71627E+02 -1.51379E+03 -3.61975E+03 -4.96297E+02 -4.72441E+03
  6.09561E+03 -4.24941E+03  7.94624E+03 -7.33900E+02  8.25956E+03  6.47048E+03  2.79544E+03  1.20529E+04
 -5.05706E+03  1.45569E+04 -1.29400E+04  7.51196E+03 -1.54662E+04 -1.29015E+03 -1.11783E+04 -9.80436E+03
 -4.26089E+03 -1.40598E+04  3.47082E+03 -1.20922E+04  7.18581E+03 -6.17806E+03  8.39563E+03  6.01077E+02
  4.24525E+03  3.23376E+03 -5.21157E+02  3.90634E+03 -2.96002E+03 -5.83120E+02 -5.08978E+02 -3.26952E+03
  3.75325E+03 -2.34255E+03  5.09173E+03  1.00179E+03  3.47139E+03  5.88231E+03  5.79643E+02  6.97492E+03
 -5.67842E+03  5.83218E+03 -7.61098E+03  6.25022E+02 -7.56639E+03 -5.57948E+03 -1.41164E+03 -1.06405E+04
  6.43615E+03 -9.16162E+03  9.84144E+03 -2.69148E+03  1.07108E+04  1.72145E+03  5.24452E+03  8.23798E+03
  1.93132E+03  8.38189E+03 -4.05811E+03  6.78428E+03 -5.82907E+03  3.43114E+03 -4.66349E+03  9.73075E+02
 -2.33437E+03 -1.02399E+03 -3.02928E+03  8.80750E+02 -3.73308E+03  2.20945E+03 -6.31572E+03 -1.29479E+03
 -6.65053E+03 -4.50839E+03 -2.15230E+03 -9.79463E+03  3.31951E+03 -9.07217E+03  7.44063E+03 -5.42474E+03
  8.55796E+03  1.38809E+03  5.23176E+03  6.50000E+03 -8.85383E+02  9.02083E+03 -6.09996E+03  4.90791E+03
