 $NMID ID='MM_0lb_SNR400_15hz_g50_64.RAW', FMTDAT='(8E13.5)'
 TRAMP=1., VOLUME=1. $END
  3.09715E+05  4.71209E+02  3.37503E+05  2.50055E+05  8.40292E+04  3.37617E+05 -1.32867E+05  2.50874E+05
 -1.90177E+05  8.25743E+04 -1.11649E+05 -3.25698E+04  8.20515E+02 -5.01828E+04  5.45305E+04  1.22439E+00
  3.53074E+04  5.28804E+04 -1.68133E+04  7.56143E+04 -6.05066E+04  6.35035E+04 -8.40848E+04  3.22503E+04
 -8.07110E+04 -1.19123E+04 -5.75752E+04 -5.12339E+04 -1.47689E+04 -6.95843E+04  2.67725E+04 -4.56876E+04
  3.99005E+04  3.01142E+03  1.65577E+04  4.80377E+04 -3.44129E+04  4.62886E+04 -6.63798E+04 -1.51556E+02
 -5.28227E+04 -5.70215E+04 -6.45327E+03 -7.65245E+04  3.34507E+04 -5.50814E+04  4.80174E+04 -1.65233E+04
  4.28305E+04  1.16168E+04  3.11577E+04  2.47357E+04  1.57420E+04  2.91792E+04 -5.30675E+03  2.73109E+04
 -2.20216E+04  1.26356E+04 -1.89895E+04 -5.14953E+03  5.67603E+03 -7.24917E+03  2.23523E+04  1.26021E+04
  7.23736E+03  3.50568E+04 -3.17895E+04  3.49718E+04 -6.32177E+04  1.52826E+03 -5.62686E+04 -4.25748E+04
 -1.25755E+04 -6.33533E+04  3.87766E+04 -4.47935E+04  5.76427E+04 -1.97533E+03  3.39297E+04  3.22967E+04
 -6.28344E+03  3.59847E+04 -2.99098E+04  1.54196E+04 -2.98306E+04 -4.48789E+03 -1.70364E+04 -1.00504E+04
 -7.66090E+03 -1.30963E+04 -7.21761E+02 -1.80561E+04  7.35573E+03 -2.35067E+04  1.55411E+04 -1.38042E+04
  1.10946E+04  5.57190E+03 -8.01716E+03  1.24414E+04 -2.06906E+04 -4.39972E+03 -8.02185E+03 -3.36997E+04
  2.25828E+04 -4.30789E+04  4.71775E+04 -1.94633E+04  4.49414E+04  1.90758E+04  1.55575E+04  4.36075E+04
 -1.57877E+04  3.25325E+04 -2.47279E+04  1.59372E+03 -8.99936E+03 -2.68710E+04  2.09977E+04 -3.27922E+04
  4.04294E+04 -8.40274E+03  3.54643E+04  2.30191E+04  1.72662E+04  4.57247E+04 -7.93823E+03  4.93914E+04
 -3.08754E+04  3.30991E+04 -4.11441E+04  9.65557E+03 -4.12874E+04 -1.64851E+04 -2.29774E+04 -3.71628E+04
  7.89220E+03 -3.72121E+04  3.06705E+04 -1.43651E+04  2.89965E+04  1.14372E+04  4.58810E+03  1.92948E+04
 -1.26623E+04  8.12807E+03 -1.04307E+04 -7.32870E+03  5.32786E+03 -1.00244E+04  1.76191E+04  6.34408E+03
  1.35091E+04  2.15861E+04 -6.44929E+03  2.50839E+04 -2.20413E+04  1.14506E+04 -2.74451E+04 -5.46494E+03
 -1.97188E+04 -1.70030E+04 -8.04122E+03 -1.97924E+04  4.17902E+03 -1.88416E+04  1.56611E+04 -1.76924E+04
  2.47889E+04 -1.24781E+04  3.20725E+04  2.43680E+03  2.34704E+04  1.93698E+04  4.57004E+03  3.64075E+04
 -1.74589E+04  2.96752E+04 -2.78796E+04  1.02392E+04 -2.08631E+04 -1.07000E+04 -4.18698E+03 -1.35782E+04
  1.94550E+03 -3.21443E+03 -4.40359E+03  6.10371E+03 -1.47249E+04  5.16810E+03 -1.60174E+04 -6.66859E+03
 -1.00006E+04 -1.82751E+04  4.86454E+03 -2.24954E+04  1.45457E+04 -1.57753E+04  1.73369E+04 -1.08699E+03
  1.06854E+04  1.28443E+04 -9.39411E+02  1.79115E+04 -1.25565E+04  1.02280E+04 -1.88323E+04 -3.25217E+03
 -1.38948E+04 -1.62810E+04 -1.69814E+03 -2.19078E+04  1.01148E+04 -1.85447E+04  1.86792E+04 -9.49061E+03
  1.75048E+04  9.18263E+02  1.20891E+04  4.96965E+03  6.02839E+03  4.19053E+02  9.32718E+03 -1.51139E+03
  1.72279E+04  2.97171E+03  1.78843E+04  1.46738E+04  1.24760E+04  2.90598E+04 -3.76714E+03  3.26468E+04
 -1.84651E+04  2.64884E+04 -3.07158E+04  1.32226E+04 -3.23012E+04 -2.89394E+03 -2.69632E+04 -1.79365E+04
 -1.19823E+04 -2.60635E+04  9.21482E+03 -2.41298E+04  2.07114E+04 -1.31113E+04  1.88808E+04  4.67227E+03
  6.85518E+03  1.37077E+04 -8.63172E+03  1.22497E+04 -1.48948E+04  2.49086E+03 -1.17230E+04 -1.01394E+04
 -9.81418E+02 -1.42397E+04  7.43832E+03 -1.10129E+04  9.47817E+03 -1.30229E+03  2.45656E+03  6.00416E+03
 -6.58189E+03  2.32326E+03 -5.91305E+03 -5.88230E+03 -7.77824E+02 -1.26641E+04  9.04834E+03 -1.28508E+04
  1.57451E+04 -6.83608E+03  1.67415E+04  2.84855E+03  1.47361E+04  1.25907E+04  7.05035E+03  1.93159E+04
 -2.70233E+03  2.12225E+04 -1.29279E+04  1.30879E+04 -1.54279E+04  2.84668E+03 -1.06126E+04 -3.45529E+03
 -4.74174E+03 -4.55268E+03 -6.17121E+02  1.41952E+03 -2.37422E+03  3.00839E+03 -5.81005E+03  4.63312E+03
 -1.02512E+04 -5.33947E+02 -1.04356E+04 -8.86505E+03 -4.83319E+03 -1.46627E+04  4.94374E+03 -1.05585E+04
  8.87749E+03 -4.58783E+03  6.45709E+03  2.71981E+03  4.73274E+02  4.49326E+03 -4.74923E+03  5.68100E+02
 -4.68239E+03 -6.81402E+03 -1.01321E+03 -9.91661E+03  6.01784E+03 -1.01839E+04  1.31296E+04 -5.50429E+03
  1.48402E+04  1.07606E+03  1.19996E+04  7.75956E+03  2.31846E+03  1.14970E+04 -6.50036E+03  1.05807E+04
 -8.97972E+03  2.85528E+03 -4.39332E+03 -2.27644E+03  1.47246E+03 -2.36743E+03  5.44550E+03 -1.21090E+03
  4.61727E+03  4.53441E+03  8.22451E+02  7.95276E+03 -5.91612E+03  7.93224E+03 -1.02097E+04  2.28874E+03
 -6.31581E+03 -5.16537E+03  4.80315E+02 -8.13910E+03  5.22426E+03 -4.60594E+03  4.83360E+03  1.52299E+03
  1.59083E+03  5.47136E+03 -5.73156E+03  6.28296E+03 -6.91759E+03  2.49708E+03 -7.75095E+03 -2.09534E+03
 -4.74228E+03 -8.59811E+03  2.43538E+03 -1.04557E+04  8.99237E+03 -7.04643E+03  9.76540E+03  1.49855E+03
  6.84522E+03  7.54172E+03  7.10621E+01  9.61858E+03 -7.43571E+03  5.60403E+03 -6.76256E+03 -7.87121E+02
 -7.05759E+03 -6.71027E+03 -1.54123E+03 -7.13391E+03  3.62752E+03 -5.30087E+03  4.63951E+03 -2.97532E+03
  3.28058E+03  9.46229E+02 -3.23809E+02  1.37671E+03  4.84885E+02 -1.11258E+03  8.17646E+02 -3.67351E+03
  5.53363E+03 -1.62418E+03  8.66414E+03  6.62951E+02  8.14736E+03  5.25505E+03  6.38283E+03  1.14790E+04
 -2.58920E+03  1.26857E+04 -1.15780E+04  9.77589E+03 -1.44050E+04  2.04370E+03 -1.12978E+04 -4.69225E+03
 -5.72271E+03 -9.52684E+03 -9.32381E+01 -7.41855E+03  3.15749E+03 -3.89959E+03  2.18824E+03 -2.47980E+03
  2.11687E+03 -1.59938E+03  2.46879E+03 -3.39307E+03  4.36780E+03 -2.15036E+03  4.58203E+03  8.30281E+00
  5.77008E+03  1.71443E+03  2.71996E+03  5.28236E+03 -2.01250E+03  5.28688E+03 -5.94289E+03  4.23228E+03
 -8.17936E+03 -1.08244E+03 -3.79942E+03 -5.07378E+03 -1.72260E+02 -8.33322E+03  4.91269E+03 -7.73623E+03
  7.79952E+03 -4.46597E+03  9.78999E+03  9.27509E+02  7.48678E+03  7.06619E+03  8.42511E+02  8.82637E+03
 -3.95270E+03  7.86552E+03 -5.78193E+03  2.26348E+03 -3.36502E+03 -1.13146E+03 -1.59807E+03 -7.40624E+02
  5.93910E+00  3.89380E+02 -1.39025E+03  1.83259E+03 -3.66108E+03  1.34991E+03 -5.66102E+03  6.50131E+01
 -2.95435E+03 -5.46538E+03  9.79928E+02 -7.02075E+03  4.20866E+03 -7.45435E+03  6.31680E+03 -1.70291E+03
  6.71907E+03  4.04637E+03  3.07871E+03  5.36592E+03 -1.00328E+03  7.21149E+03 -4.98563E+03  3.88908E+03
 -5.61988E+03  1.30131E+03 -5.38904E+03 -4.36320E+03 -6.74308E+02 -6.36251E+03  3.20534E+03 -4.37502E+03
  4.23732E+03 -1.43157E+03  3.17782E+03  9.24935E+02  9.70962E+02  1.94687E+03  1.20557E+03  1.18703E+03
  2.25744E+03  6.02271E+02  1.50898E+03  8.11290E+02  1.65870E+03  3.26339E+03  1.83178E+03  3.24208E+03
 -1.46316E+03  5.07212E+03 -4.60681E+03  5.48417E+03 -6.24758E+03  2.09570E+03 -7.08357E+03 -2.34447E+03
 -2.71304E+03 -6.31928E+03  3.54752E+02 -7.52799E+03  2.98157E+03 -4.16661E+03  4.83382E+03 -1.45186E+03
  3.80109E+03  2.79561E+03  4.48840E+02  4.19536E+03 -1.29510E+03  2.70799E+03 -1.78532E+03 -4.04627E+01
 -1.00256E+03 -2.30865E+03  1.86291E+03 -2.64319E+03  2.61532E+03 -1.42613E+03  2.51771E+03  6.74536E+02
  1.51256E+03  8.83222E+02  1.17078E+03  8.83235E+02 -6.29923E+02  1.02137E+03  1.69867E+03  3.60994E+02
  4.57877E+02 -1.75809E+02  2.63363E+03  1.25578E+03  1.30704E+03  3.74518E+03 -9.20345E+02  4.89272E+03
 -3.07000E+03  2.19624E+03 -3.68198E+03  8.54730E+02 -3.66387E+03 -1.37400E+03 -1.18588E+03 -2.44267E+03
  7.39032E+02 -2.84160E+03  1.42610E+03 -9.38376E+02  1.47058E+03  1.33027E+03 -1.16607E+03  1.77056E+03
 -2.91383E+03  1.61709E+03 -2.16159E+03 -1.96226E+03 -1.40499E+03 -3.63185E+03  6.26429E+02 -2.87348E+03
  1.39212E+03 -1.24681E+03  1.97767E+03 -2.33596E+02  1.70583E+03  2.84236E+02  8.68040E+01  1.69757E+03
 -1.03757E+03 -5.46877E+01 -1.99393E+03 -5.91873E+02  8.34269E+02 -2.05308E+03  2.73234E+03 -1.75442E+03
  3.19566E+03  6.07835E+02  3.93185E+03  1.65163E+03  1.30995E+03  4.09252E+03 -9.79921E+02  3.41783E+03
 -2.66596E+03  1.04240E+03 -2.42160E+03 -7.27610E+01 -1.82182E+03 -2.99649E+03  7.30990E+02 -1.35517E+03
  2.66586E+03 -7.31234E+02  1.65083E+03  1.39482E+03  7.03670E+02  2.22699E+03 -2.81569E+01  2.19666E+03
 -8.28030E+02  2.00563E+03 -8.73620E+02 -3.07379E+02  8.68004E+01  3.53672E+02 -7.91401E+02  9.93161E+02
 -1.89811E+03  2.03781E+03 -2.77545E+03  6.97141E+02 -3.48198E+03  5.61343E+02 -4.75761E+03 -2.52318E+03
 -1.90372E+03 -4.96424E+03  1.51447E+03 -5.78308E+03  2.41786E+03 -4.05609E+03  4.90036E+03 -1.51332E+03
  4.94082E+03  1.57320E+02  2.39025E+03  3.06249E+03 -1.66718E+01  3.13939E+03 -1.61795E+03  2.67667E+03
 -1.71441E+03  1.37050E+03 -1.24289E+03 -2.66971E+02 -6.57807E+02 -1.99476E+02  9.20568E+01  6.78890E+02
 -9.55321E+02  2.13989E+02 -1.05378E+03  5.53211E+02 -1.87790E+02 -3.97958E+02 -2.04559E+02 -1.17089E+03
  1.25032E+03 -5.33107E+02  1.36751E+03 -1.68146E+01  2.10133E+03  2.01091E+03 -1.21143E+02  2.66214E+03
 -1.40694E+03  4.32751E+03 -3.29023E+03  2.21748E+03 -4.16109E+03  7.36007E+01 -2.60830E+03 -2.63533E+03
 -1.89189E+03 -3.55138E+03  8.18476E+02 -2.77221E+03  1.98077E+03 -1.82398E+03  2.28713E+03  4.13476E+02
  1.59614E+03  5.97604E+02 -3.59037E+02  5.99904E+02 -5.64722E+02 -1.28192E+02 -1.10531E+02 -6.45028E+02
  1.28467E+03 -4.59288E+02  1.42190E+03  6.59287E+02  7.54421E+02  9.72996E+02 -3.26254E+02  1.50717E+03
 -1.40839E+03  1.55949E+03 -1.36858E+03  3.14004E+02 -2.11887E+03 -1.25905E+03  2.98857E+02 -2.81789E+03
  1.31299E+03 -1.84149E+03  1.78454E+03 -4.64438E+01  2.36125E+03  3.11653E+02  1.04912E+03  1.87642E+03
  8.61381E+02  1.92666E+03 -5.63723E+02  1.28898E+03 -9.17504E+02  6.27123E+02 -5.36659E+02  2.22756E+02
 -4.46515E+02 -2.61597E+02 -7.57555E+02  5.53739E+02 -1.35403E+03  2.78803E+02 -1.41961E+03  1.32598E+01
 -2.18345E+03 -1.13791E+03 -2.50902E+02 -1.43614E+03  8.36360E+02 -2.78360E+03  2.23836E+03 -9.02231E+02
  1.37941E+03 -1.47978E+02  3.67281E+02  8.19646E+02 -1.94585E+01  1.12878E+03 -1.16128E+03  1.12106E+03
