 $NMID ID='MM_0lb_SNR400_8hz_g50_32.RAW', FMTDAT='(8E13.5)'
 TRAMP=1., VOLUME=1. $END
  3.09547E+05  5.53143E+02  3.38108E+05  2.51480E+05  8.45513E+04  3.38957E+05 -1.32907E+05  2.52599E+05
 -1.90928E+05  8.37406E+04 -1.12609E+05 -3.22828E+04 -5.96466E+02 -5.09830E+04  5.46143E+04 -7.91499E+02
  3.62571E+04  5.22821E+04 -1.62442E+04  7.65004E+04 -6.21829E+04  6.45038E+04 -8.51863E+04  3.25048E+04
 -8.27978E+04 -1.23913E+04 -5.79881E+04 -5.24707E+04 -1.53671E+04 -7.03627E+04  2.84110E+04 -4.65819E+04
  4.11749E+04  4.01627E+03  1.64054E+04  4.84695E+04 -3.53014E+04  4.75262E+04 -6.86138E+04 -1.07919E+02
 -5.46915E+04 -5.77149E+04 -7.61732E+03 -7.88975E+04  3.51856E+04 -5.71211E+04  4.99202E+04 -1.86702E+04
  4.47930E+04  1.15290E+04  3.30514E+04  2.70744E+04  1.58333E+04  3.05615E+04 -5.36681E+03  2.76804E+04
 -2.20947E+04  1.24376E+04 -1.78069E+04 -5.94446E+03  7.38018E+03 -7.35002E+03  2.39295E+04  1.37912E+04
  6.51836E+03  3.91791E+04 -3.36474E+04  3.76723E+04 -6.63139E+04  3.18503E+03 -6.01504E+04 -4.55908E+04
 -1.26301E+04 -6.65816E+04  4.22813E+04 -4.84987E+04  6.10786E+04 -2.81390E+03  3.82127E+04  3.39867E+04
 -4.90682E+03  3.97051E+04 -3.25280E+04  1.92728E+04 -3.36651E+04 -3.36856E+03 -2.02484E+04 -1.26282E+04
 -9.21509E+03 -1.54640E+04 -5.70476E+02 -2.07015E+04  9.01700E+03 -2.34279E+04  1.54590E+04 -1.20278E+04
  1.02144E+04  6.02594E+03 -1.15806E+04  1.32247E+04 -2.40803E+04 -7.95723E+03 -8.14802E+03 -3.80342E+04
  2.53861E+04 -4.78988E+04  5.25160E+04 -2.12527E+04  4.92925E+04  2.09025E+04  1.82411E+04  4.68104E+04
 -1.71039E+04  3.58089E+04 -2.77936E+04  2.61801E+03 -1.15966E+04 -3.05514E+04  2.13841E+04 -3.75965E+04
  4.54563E+04 -1.21194E+04  4.09343E+04  2.51946E+04  2.27009E+04  5.19700E+04 -8.17103E+03  5.72758E+04
 -3.69237E+04  3.83718E+04 -4.88783E+04  1.10122E+04 -4.86235E+04 -1.87333E+04 -2.64983E+04 -4.32270E+04
  7.82405E+03 -4.29944E+04  3.39734E+04 -1.68130E+04  3.36127E+04  1.16395E+04  5.27505E+03  2.06861E+04
 -1.37712E+04  1.11690E+04 -1.05393E+04 -7.91284E+03  4.78133E+03 -1.15524E+04  1.91580E+04  5.94325E+03
  1.54616E+04  2.24690E+04 -6.04790E+03  2.76215E+04 -2.33187E+04  1.47298E+04 -3.21251E+04 -1.90185E+03
 -2.63396E+04 -1.88570E+04 -1.26915E+04 -2.62654E+04  4.17298E+03 -2.62846E+04  2.10116E+04 -2.42222E+04
  3.28873E+04 -1.49342E+04  3.94113E+04  4.68637E+03  2.76645E+04  2.52341E+04  4.31830E+03  4.20862E+04
 -2.03666E+04  3.35375E+04 -3.09797E+04  1.16270E+04 -2.31493E+04 -1.06903E+04 -4.87711E+03 -1.30434E+04
  4.30285E+02 -1.49253E+02 -8.29671E+03  8.79030E+03 -2.11334E+04  3.92546E+03 -2.08356E+04 -1.01655E+04
 -1.31792E+04 -2.42631E+04  6.29219E+03 -2.84025E+04  1.91742E+04 -2.04601E+04  2.34190E+04 -2.06425E+03
  1.48302E+04  1.67953E+04 -1.83688E+03  2.45660E+04 -1.66270E+04  1.44893E+04 -2.43468E+04 -5.40441E+03
 -1.80588E+04 -2.19125E+04 -1.67208E+03 -2.90900E+04  1.30848E+04 -2.47252E+04  2.41799E+04 -1.29244E+04
  2.28323E+04 -2.33585E+02  1.60336E+04  5.36969E+03  9.06859E+03  1.07493E+03  1.23977E+04 -2.63738E+03
  2.33439E+04  2.79973E+03  2.68619E+04  1.91453E+04  1.81255E+04  3.94594E+04 -2.46862E+03  4.74715E+04
 -2.67345E+04  3.95582E+04 -4.46310E+04  2.05539E+04 -4.72718E+04 -3.92853E+03 -3.79880E+04 -2.76580E+04
 -1.50072E+04 -3.92920E+04  1.36424E+04 -3.47989E+04  2.94031E+04 -1.60548E+04  2.53214E+04  8.38041E+03
  8.17550E+03  1.98486E+04 -1.12462E+04  1.64434E+04 -2.10495E+04  3.26501E+03 -1.54434E+04 -1.32364E+04
 -5.61912E+01 -2.07500E+04  1.12245E+04 -1.56126E+04  1.42465E+04 -4.04896E+02  3.85278E+03  9.48784E+03
 -9.69233E+03  4.42961E+03 -1.04807E+04 -8.10464E+03 -2.72288E+03 -1.91453E+04  1.31617E+04 -2.13567E+04
  2.41838E+04 -1.20575E+04  2.74098E+04  2.43734E+03  2.46232E+04  1.84704E+04  1.13490E+04  3.10775E+04
 -6.26016E+03  3.33527E+04 -2.28441E+04  2.07869E+04 -2.51591E+04  4.25853E+03 -1.67047E+04 -5.69852E+03
 -7.26278E+03 -8.70725E+03 -8.21671E+02  6.35353E+01 -2.76546E+03  3.35008E+03 -7.98869E+03  5.52495E+03
 -1.48021E+04 -1.50003E+03 -1.60391E+04 -1.28143E+04 -6.99886E+03 -2.12005E+04  6.51957E+03 -1.73588E+04
  1.37755E+04 -6.05312E+03  8.69394E+03  6.15689E+03 -1.44262E+03  5.97956E+03 -8.54209E+03 -5.99402E+02
 -7.53155E+03 -1.05352E+04 -9.65531E+02 -1.64702E+04  9.80745E+03 -1.73844E+04  2.20639E+04 -9.86875E+03
  2.47990E+04  3.02905E+03  1.81612E+04  1.57371E+04  2.95301E+03  2.02070E+04 -1.04126E+04  1.56748E+04
 -1.34577E+04  4.30835E+03 -7.16122E+03 -3.98115E+03  3.53385E+03 -5.37008E+03  8.46902E+03 -2.20436E+02
  8.17401E+03  8.15596E+03  8.54057E+02  1.29892E+04 -1.04231E+04  1.20591E+04 -1.61207E+04  3.32002E+03
 -1.19201E+04 -9.10373E+03  4.58803E+02 -1.42511E+04  1.00826E+04 -7.40430E+03  1.01578E+04  4.03410E+03
  2.39216E+03  1.10788E+04 -8.64594E+03  1.25490E+04 -1.41948E+04  5.44434E+03 -1.59895E+04 -5.33819E+03
 -8.63762E+03 -1.73314E+04  3.55823E+03 -2.02330E+04  1.70503E+04 -1.12759E+04  1.83570E+04  3.52546E+03
  1.02556E+04  1.48885E+04 -1.31141E+03  1.72386E+04 -1.23772E+04  9.72079E+03 -1.32547E+04 -2.38266E+03
 -1.19753E+04 -1.17956E+04 -1.24124E+03 -1.25208E+04  6.61986E+03 -1.05034E+04  7.90576E+03 -3.84852E+03
  5.62166E+03  2.91989E+03 -1.43251E+03  1.80151E+03 -6.53053E+02 -4.54984E+03  3.07309E+03 -8.14721E+03
  1.34424E+04 -5.77916E+03  1.82371E+04  1.97097E+03  1.67036E+04  1.23164E+04  1.09056E+04  2.29667E+04
 -5.55386E+03  2.66915E+04 -2.20888E+04  1.89472E+04 -2.77302E+04  3.49189E+03 -2.30144E+04 -1.03413E+04
 -1.21909E+04 -1.82416E+04 -6.05852E+02 -1.66520E+04  5.61807E+03 -9.70533E+03  6.02513E+03 -5.28800E+03
  4.92897E+03 -3.87242E+03  5.00084E+03 -3.98918E+03  5.74106E+03 -3.35504E+03  8.83690E+03 -2.44896E+03
  1.15042E+04  2.38740E+03  6.83499E+03  9.65326E+03 -2.45947E+03  1.28171E+04 -1.31129E+04  9.39978E+03
 -1.58516E+04 -1.52007E+03 -1.07703E+04 -1.19961E+04 -1.53137E+03 -1.80323E+04  9.96488E+03 -1.76576E+04
  1.79614E+04 -8.77462E+03  2.22366E+04  3.84038E+03  1.58238E+04  1.50231E+04  2.68872E+03  1.94029E+04
 -8.39543E+03  1.63334E+04 -1.19338E+04  4.81092E+03 -7.72921E+03 -2.15500E+03 -2.80072E+03 -2.70316E+03
 -1.87642E+03 -9.02124E+02 -1.55525E+03  3.24892E+03 -6.92170E+03  1.78126E+03 -1.14577E+04 -8.86856E+02
 -8.24017E+03 -1.07870E+04  7.76298E+02 -1.68904E+04  1.03468E+04 -1.53977E+04  1.64134E+04 -4.79326E+03
  1.62028E+04  8.87924E+03  7.66133E+03  1.51051E+04 -3.65578E+03  1.71173E+04 -1.14124E+04  1.08021E+04
 -1.51603E+04  9.51417E+02 -1.17704E+04 -9.64404E+03 -1.70535E+03 -1.51053E+04  7.77897E+03 -1.05145E+04
  1.05606E+04 -3.02478E+03  7.35250E+03  3.07058E+03  2.84691E+03  5.28137E+03  1.25329E+03  2.42202E+03
  3.75791E+03  8.66232E+02  4.56764E+03  2.31469E+03  5.36627E+03  3.81599E+03  4.51074E+03  9.42621E+03
 -3.02478E+03  1.28807E+04 -1.25670E+04  1.32607E+04 -1.73736E+04  3.54566E+03 -1.80640E+04 -7.66120E+03
 -8.86853E+03 -1.71155E+04  2.80766E+03 -1.86840E+04  1.07863E+04 -1.20870E+04  1.40250E+04 -3.29362E+03
  1.02447E+04  6.34999E+03  3.11635E+03  1.08440E+04 -5.55013E+03  6.57912E+03 -6.85895E+03 -1.81740E+03
 -2.64646E+03 -7.90907E+03  4.33716E+03 -7.81670E+03  7.43805E+03 -3.45887E+03  5.98407E+03  2.17907E+03
  3.25528E+03  3.19368E+03  2.18016E+03  3.42695E+03 -8.66492E+02  2.08353E+03  1.51766E+03 -1.07900E+03
  3.14119E+03 -4.84344E+02  6.59566E+03  2.66104E+03  4.01466E+03  9.66608E+03 -1.10703E+03  1.19821E+04
 -8.85300E+03  7.69410E+03 -1.11468E+04  2.20685E+03 -9.62281E+03 -4.02932E+03 -3.95503E+03 -7.13623E+03
  9.56659E+02 -6.61968E+03  4.82755E+03 -3.26741E+03  4.02824E+03  3.55241E+03 -1.77634E+03  6.17936E+03
 -8.08240E+03  4.07799E+03 -8.35196E+03 -3.88017E+03 -4.58125E+03 -9.70915E+03  2.07681E+03 -1.01899E+04
  5.31873E+03 -5.40841E+03  6.93620E+03 -1.01503E+03  5.79716E+03  2.08001E+03  1.37333E+03  4.39679E+03
 -3.10624E+03  2.40299E+02 -5.20913E+03 -3.69465E+03  6.00862E+02 -8.22021E+03  8.51464E+03 -5.49334E+03
  1.13117E+04  1.24395E+03  1.15493E+04  8.65628E+03  3.79456E+03  1.16844E+04 -4.05728E+03  1.12663E+04
 -8.96383E+03  5.53414E+03 -9.72548E+03 -1.72819E+03 -5.53502E+03 -8.02243E+03  1.48295E+03 -7.44246E+03
  7.03881E+03 -3.04630E+03  6.71948E+03  2.36508E+03  2.41662E+03  6.00767E+03 -4.72560E+01  5.76732E+03
 -3.00596E+03  3.95380E+03 -3.35577E+03  1.15001E+03 -1.54522E+03  3.43202E+02 -7.92178E+02  2.64330E+03
 -3.09470E+03  4.79393E+03 -7.91807E+03  4.36354E+03 -1.25879E+04  3.14877E+02 -1.29935E+04 -7.99579E+03
 -7.38346E+03 -1.56230E+04  3.17657E+03 -1.85141E+04  1.14213E+04 -1.39426E+04  1.75250E+04 -4.58221E+03
  1.56823E+04  4.36567E+03  1.02794E+04  1.00748E+04  4.19141E+02  1.34798E+04 -4.21250E+03  9.90871E+03
 -7.10402E+03  3.23820E+03 -4.43228E+03 -1.74702E+03 -1.65620E+03 -1.28432E+03 -5.01552E+02 -9.49560E+02
 -3.10321E+03 -7.97094E+01 -2.55656E+03 -2.98896E+02 -1.95959E+03 -3.72580E+03  1.55005E+02 -5.15780E+03
  4.33003E+03 -2.72263E+03  8.16888E+03  7.21098E+02  8.85894E+03  7.32946E+03  3.18815E+03  1.21160E+04
 -6.77214E+03  1.49422E+04 -1.27496E+04  9.01681E+03 -1.47711E+04 -1.61309E+03 -1.18011E+04 -1.04820E+04
 -4.61811E+03 -1.26368E+04  4.10934E+03 -1.17328E+04  8.68699E+03 -6.74350E+03  8.20379E+03 -1.67497E+01
  4.08213E+03  4.72741E+03 -2.63390E+02  3.39620E+03 -2.24476E+03 -1.62161E+02  2.05742E+02 -3.32029E+03
  3.62697E+03 -2.93094E+03  5.43602E+03  2.83422E+03  3.51676E+03  4.09709E+03 -7.65715E+02  7.07953E+03
 -4.99204E+03  5.36391E+03 -8.60324E+03  7.25858E+02 -8.18242E+03 -5.85374E+03 -4.24606E+02 -1.10450E+04
  5.87208E+03 -8.65542E+03  1.01215E+04 -1.88563E+03  1.05465E+04  2.21186E+03  5.20689E+03  7.12346E+03
  1.00384E+03  9.44882E+03 -3.79211E+03  6.88121E+03 -5.49307E+03  4.50895E+03 -5.72316E+03  9.37532E+02
 -2.60066E+03 -2.79294E+02 -2.12637E+03  2.86345E+02 -4.64544E+03  9.75113E+02 -5.68432E+03 -3.86800E+02
 -6.53382E+03 -5.19080E+03 -2.06309E+03 -8.69422E+03  4.07259E+03 -8.88782E+03  7.89448E+03 -4.74995E+03
  8.91393E+03  8.85823E+02  4.66193E+03  7.27846E+03 -5.06126E+01  8.15710E+03 -6.78674E+03  6.25154E+03
