 $NMID ID='MM_0lb_SNR400_14hz_g50_37.RAW', FMTDAT='(8E13.5)'
 TRAMP=1., VOLUME=1. $END
  3.10013E+05  6.40401E+02  3.37870E+05  2.50501E+05  8.47366E+04  3.38584E+05 -1.32464E+05  2.51084E+05
 -1.90679E+05  8.33284E+04 -1.11456E+05 -3.23199E+04  8.31430E+02 -5.06042E+04  5.40007E+04 -1.82851E+02
  3.56125E+04  5.28711E+04 -1.66288E+04  7.50242E+04 -6.04357E+04  6.35867E+04 -8.40224E+04  3.16524E+04
 -8.11615E+04 -1.11246E+04 -5.77089E+04 -5.13301E+04 -1.45188E+04 -6.90391E+04  2.73969E+04 -4.56385E+04
  4.03180E+04  4.03942E+03  1.58436E+04  4.81879E+04 -3.43646E+04  4.76751E+04 -6.65897E+04 -5.91081E+02
 -5.34041E+04 -5.68636E+04 -6.84172E+03 -7.68492E+04  3.46081E+04 -5.51260E+04  4.79931E+04 -1.73019E+04
  4.35758E+04  1.14803E+04  3.15553E+04  2.60449E+04  1.64999E+04  2.93504E+04 -4.87101E+03  2.73511E+04
 -2.19325E+04  1.17473E+04 -1.89147E+04 -4.69974E+03  6.16516E+03 -7.32319E+03  2.25452E+04  1.20402E+04
  6.77206E+03  3.51927E+04 -3.17758E+04  3.52082E+04 -6.38389E+04  2.52960E+03 -5.67567E+04 -4.21595E+04
 -1.26847E+04 -6.32386E+04  4.03545E+04 -4.50445E+04  5.88162E+04 -2.25351E+03  3.51620E+04  3.24264E+04
 -5.68894E+03  3.59481E+04 -3.01581E+04  1.59088E+04 -3.04686E+04 -4.48454E+03 -1.72121E+04 -1.07533E+04
 -8.95760E+03 -1.35365E+04 -7.81817E+02 -1.81350E+04  7.51503E+03 -2.31927E+04  1.62573E+04 -1.45015E+04
  1.12032E+04  4.80371E+03 -7.87551E+03  1.25790E+04 -2.15965E+04 -5.08264E+03 -8.02996E+03 -3.39256E+04
  2.30161E+04 -4.37087E+04  4.80926E+04 -1.98698E+04  4.50907E+04  1.93852E+04  1.59738E+04  4.40151E+04
 -1.54901E+04  3.31301E+04 -2.52273E+04  1.99487E+03 -1.02426E+04 -2.73512E+04  2.14612E+04 -3.35888E+04
  4.11312E+04 -9.33819E+03  3.63190E+04  2.38562E+04  1.80397E+04  4.66446E+04 -8.12634E+03  5.04197E+04
 -3.17136E+04  3.34664E+04 -4.25428E+04  1.01170E+04 -4.30582E+04 -1.67352E+04 -2.36030E+04 -3.81095E+04
  6.77606E+03 -3.81586E+04  3.15427E+04 -1.48264E+04  2.92479E+04  1.03063E+04  3.50610E+03  1.92232E+04
 -1.36770E+04  8.29275E+03 -1.08265E+04 -7.05835E+03  5.82332E+03 -1.03097E+04  1.83293E+04  5.57405E+03
  1.35419E+04  2.16254E+04 -6.23431E+03  2.52920E+04 -2.24124E+04  1.18392E+04 -2.76018E+04 -4.86060E+03
 -2.08774E+04 -1.73343E+04 -8.93131E+03 -2.05598E+04  3.94822E+03 -1.95217E+04  1.53007E+04 -1.82524E+04
  2.61959E+04 -1.26878E+04  3.26618E+04  3.16268E+03  2.42303E+04  2.00118E+04  3.97336E+03  3.70425E+04
 -1.77256E+04  3.05750E+04 -2.73831E+04  1.06027E+04 -2.11156E+04 -1.04468E+04 -4.46974E+03 -1.33921E+04
  1.68693E+03 -2.52682E+03 -5.97090E+03  6.30848E+03 -1.59632E+04  4.80348E+03 -1.62454E+04 -7.08140E+03
 -9.84653E+03 -1.95716E+04  4.66603E+03 -2.31648E+04  1.58533E+04 -1.65521E+04  1.80928E+04 -1.25247E+03
  1.15747E+04  1.37067E+04 -1.18498E+03  1.97336E+04 -1.32384E+04  1.13899E+04 -1.95049E+04 -4.09041E+03
 -1.36500E+04 -1.71085E+04 -1.91015E+03 -2.25283E+04  1.04621E+04 -1.86448E+04  1.96206E+04 -9.15519E+03
  1.77217E+04  3.87747E+02  1.23475E+04  4.15800E+03  6.67701E+03  1.24932E+03  9.87829E+03 -1.70626E+03
  1.74340E+04  2.91890E+03  1.95817E+04  1.53843E+04  1.28913E+04  3.08524E+04 -2.09533E+03  3.43825E+04
 -2.00861E+04  2.78836E+04 -3.17574E+04  1.39665E+04 -3.36529E+04 -2.55411E+03 -2.79566E+04 -1.92264E+04
 -1.21401E+04 -2.78259E+04  9.33620E+03 -2.48167E+04  2.17661E+04 -1.27902E+04  1.96244E+04  6.13693E+03
  7.88300E+03  1.44679E+04 -8.96868E+03  1.23592E+04 -1.64799E+04  2.32743E+03 -1.27366E+04 -1.03254E+04
  3.72326E+02 -1.47260E+04  8.30478E+03 -1.13705E+04  9.67696E+03 -1.11180E+03  2.22222E+03  6.52531E+03
 -7.39035E+03  2.53220E+03 -5.99803E+03 -5.45716E+03 -1.64727E+02 -1.37479E+04  9.91463E+03 -1.47100E+04
  1.69219E+04 -8.09145E+03  1.79639E+04  3.28887E+03  1.54078E+04  1.33064E+04  7.57283E+03  2.05758E+04
 -3.41724E+03  2.20058E+04 -1.41662E+04  1.39318E+04 -1.64385E+04  3.83183E+03 -1.17536E+04 -3.82878E+03
 -5.45035E+03 -5.54592E+03 -1.55958E+02  6.91700E+02 -1.76334E+03  2.53181E+03 -5.03509E+03  3.69081E+03
 -9.56757E+03 -1.11863E+03 -1.11698E+04 -9.12321E+03 -4.01048E+03 -1.44055E+04  4.86803E+03 -1.12437E+04
  9.64730E+03 -5.27062E+03  6.27851E+03  2.92696E+03  2.44545E+02  3.94243E+03 -6.00804E+03 -9.14400E+02
 -5.08866E+03 -6.68126E+03 -5.38203E+02 -9.77394E+03  6.03024E+03 -1.13825E+04  1.37654E+04 -5.80691E+03
  1.69941E+04  2.08045E+03  1.23937E+04  9.29773E+03  2.48482E+03  1.29946E+04 -6.23218E+03  1.12712E+04
 -9.45716E+03  3.23948E+03 -5.25268E+03 -2.59487E+03  1.77261E+03 -3.14406E+03  6.32350E+03 -8.94495E+02
  5.14657E+03  4.33142E+03  9.97071E+02  9.16050E+03 -6.63486E+03  8.64184E+03 -1.09085E+04  1.73974E+03
 -7.58037E+03 -5.39101E+03  6.29650E+01 -9.87119E+03  5.93062E+03 -4.78909E+03  5.84456E+03  1.95011E+03
  9.09448E+02  5.92201E+03 -5.76889E+03  7.40258E+03 -8.65166E+03  3.61529E+03 -7.72617E+03 -3.22784E+03
 -4.32155E+03 -9.55083E+03  2.42698E+03 -1.13818E+04  9.70745E+03 -6.87448E+03  1.05443E+04  2.56259E+03
  5.89486E+03  8.79711E+03  1.63113E+02  1.00275E+04 -7.47519E+03  6.12119E+03 -8.04113E+03 -1.19242E+03
 -8.28937E+03 -7.59465E+03 -1.37939E+03 -7.19969E+03  4.04661E+03 -6.37684E+03  4.70688E+03 -2.90202E+03
  4.17767E+03  1.21175E+03 -2.94447E+02  1.77123E+03  6.39688E+02 -1.88766E+03  1.05134E+03 -3.65821E+03
  7.36936E+03 -2.74029E+03  9.91519E+03  7.61910E+02  9.12456E+03  5.95995E+03  7.44345E+03  1.24629E+04
 -2.80819E+03  1.43777E+04 -1.28110E+04  1.01172E+04 -1.55177E+04  1.61878E+03 -1.28869E+04 -5.34748E+03
 -6.42612E+03 -1.06156E+04 -3.04465E+02 -9.10251E+03  2.75973E+03 -4.31815E+03  2.84596E+03 -3.67699E+03
  2.02264E+03 -1.41600E+03  2.93326E+03 -2.75576E+03  4.08102E+03 -2.45176E+03  5.32156E+03 -5.02640E+02
  6.61025E+03  1.63052E+03  2.79459E+03  5.48529E+03 -1.13189E+03  5.73062E+03 -7.50344E+03  5.06013E+03
 -8.78415E+03 -7.18766E+02 -4.73765E+03 -5.89107E+03 -5.46555E+02 -9.06592E+03  5.29679E+03 -8.76405E+03
  9.15103E+03 -5.02014E+03  1.15066E+04  1.06868E+03  7.60005E+03  7.63510E+03  1.27493E+03  1.01577E+04
 -4.66408E+03  9.25817E+03 -5.70869E+03  3.38427E+03 -3.79109E+03 -9.02626E+02 -8.14884E+02 -1.70526E+03
 -7.63547E+02  8.66450E+02 -1.26679E+03  2.75626E+03 -3.30261E+03  1.51305E+03 -5.85700E+03 -7.82232E+02
 -3.25861E+03 -6.18201E+03  8.97291E+02 -8.05717E+03  4.71283E+03 -7.81704E+03  7.50934E+03 -2.43925E+03
  7.82384E+03  4.30160E+03  4.33324E+03  6.72601E+03 -2.16783E+03  8.36936E+03 -5.76962E+03  4.27079E+03
 -7.23926E+03 -5.31448E+01 -6.23921E+03 -4.62931E+03 -8.50666E+02 -6.72096E+03  3.03559E+03 -4.64662E+03
  5.03533E+03 -1.32081E+03  3.54327E+03  1.36482E+03  1.00708E+03  2.79657E+03  7.17675E+02  7.04574E+02
  2.73594E+03  8.07993E+02  1.87115E+03  1.38345E+03  2.46924E+03  3.52159E+03  2.28068E+03  3.57390E+03
 -1.98454E+03  5.90870E+03 -4.85019E+03  6.88193E+03 -7.33859E+03  1.43591E+03 -7.75398E+03 -2.26105E+03
 -3.72694E+03 -7.43145E+03  1.71019E+03 -8.55484E+03  4.30953E+03 -4.68510E+03  5.84930E+03 -1.80751E+03
  4.56899E+03  3.29005E+03  9.84971E+02  4.24679E+03 -1.64784E+03  2.69895E+03 -2.44851E+03 -8.16463E+02
 -1.05726E+03 -2.98882E+03  1.42731E+03 -3.59229E+03  2.74515E+03 -1.96016E+03  2.95914E+03  8.16589E+02
  1.96094E+03  8.90103E+02  1.77207E+03  1.41947E+03  1.95409E+02  1.34829E+03  1.36665E+03 -4.24525E+02
  1.09987E+03 -9.30746E+02  3.48487E+03  1.56509E+03  1.51552E+03  4.83162E+03 -7.48210E+02  5.69108E+03
 -2.66508E+03  3.17540E+03 -4.55440E+03  1.08738E+03 -3.90402E+03 -9.59049E+02 -9.35159E+02 -2.60439E+03
  7.17667E+02 -3.17208E+03  1.91108E+03 -1.03955E+03  1.03558E+03  2.40007E+03 -9.17430E+02  2.80869E+03
 -3.04720E+03  1.16082E+03 -3.07656E+03 -2.20576E+03 -1.79001E+03 -4.17882E+03  6.26668E+02 -3.56502E+03
  1.84205E+03 -1.94888E+03  1.69818E+03  2.01300E+02  2.69964E+03  6.58698E+02  3.66292E+02  2.49528E+03
 -1.35575E+03  1.62067E+01 -2.19357E+03 -1.05489E+03  8.81471E+02 -2.34736E+03  3.41059E+03 -1.94826E+03
  4.38267E+03 -1.28338E+02  5.07864E+03  2.39944E+03  1.59134E+03  4.11261E+03 -1.38534E+03  4.05244E+03
 -3.57867E+03  1.61191E+03 -3.36061E+03 -4.41125E+02 -1.82656E+03 -3.25036E+03  1.33889E+03 -2.14647E+03
  2.57869E+03 -7.35970E+02  2.51207E+03  1.38701E+03  3.83397E+02  2.80775E+03 -4.79619E+02  2.05505E+03
 -6.54206E+02  1.16082E+03 -1.19134E+03  3.63013E+01 -4.99566E+02  2.95418E+02 -9.32358E+02  6.89569E+02
 -1.39607E+03  2.51941E+03 -3.61898E+03  2.00023E+03 -3.89713E+03 -3.57536E+02 -4.99096E+03 -2.89302E+03
 -2.10275E+03 -5.44064E+03  1.54618E+03 -6.59274E+03  3.38639E+03 -5.30911E+03  5.98714E+03 -1.89830E+03
  5.80899E+03  1.12574E+03  4.07426E+03  3.92529E+03 -2.80879E+02  4.33819E+03 -2.09632E+03  3.56342E+03
 -2.67771E+03  6.58282E+02 -8.23750E+02 -1.00347E+03 -2.56098E+02 -6.52375E+02 -1.18211E+03 -1.66128E+02
 -1.53439E+03 -7.08770E+02 -1.34776E+03 -1.17588E+01  2.33350E+02 -1.15466E+03 -2.31194E+02 -1.80019E+03
  1.35521E+03 -1.70246E+03  1.69474E+03  1.50159E+02  2.47955E+03  2.00600E+03  5.07461E+02  4.16981E+03
 -1.73716E+03  4.79574E+03 -4.33343E+03  2.95493E+03 -4.65331E+03 -2.54940E+02 -3.77496E+03 -2.83941E+03
 -1.56175E+03 -3.93644E+03  5.39818E+02 -3.47645E+03  2.14230E+03 -2.32501E+03  2.36466E+03 -4.29466E+01
  2.02787E+03  1.67719E+03  6.11986E+02  8.07689E+02 -1.39374E+03  3.12211E+02  4.35549E+01 -6.34880E+02
  1.36767E+03  4.79775E+02  1.11083E+03  6.61103E+02  1.17366E+03  1.73047E+03 -5.64144E+02  1.79820E+03
 -1.91477E+03  1.39834E+03 -2.05692E+03  5.51295E+02 -1.87782E+03 -1.23934E+03 -6.45840E+02 -3.10714E+03
  1.16261E+03 -2.97031E+03  2.65896E+03 -4.43326E+02  2.57103E+03  2.94977E+02  1.06223E+03  2.56444E+03
  7.34742E+02  2.25774E+03 -7.26197E+02  1.99408E+03 -1.42839E+03  8.05867E+02 -3.88000E+02  7.40287E+01
 -1.03495E+03 -1.04946E+02 -1.67504E+03 -2.63086E+02 -1.13196E+03  8.74910E+02 -1.92202E+03 -2.44875E+02
 -2.26263E+03 -4.89354E+02 -7.14613E+02 -2.32718E+03  1.94489E+03 -3.73835E+03  2.13451E+03 -9.17987E+02
  2.26060E+03  8.84517E+02  5.06559E+02  1.29371E+03 -3.35505E+02  3.06850E+03 -1.38520E+03  8.99182E+02
