 $NMID ID='MM_0lb_SNR400_16hz_g55_35.RAW', FMTDAT='(8E13.5)'
 TRAMP=1., VOLUME=1. $END
  3.09794E+05  6.34356E+02  3.37680E+05  2.51026E+05  8.40786E+04  3.37619E+05 -1.32239E+05  2.50861E+05
 -1.89781E+05  8.31819E+04 -1.11550E+05 -3.19442E+04  1.34401E+03 -5.01702E+04  5.41647E+04 -5.54893E+02
  3.55459E+04  5.26774E+04 -1.63044E+04  7.49770E+04 -6.11092E+04  6.32835E+04 -8.38098E+04  3.16248E+04
 -8.03583E+04 -1.08616E+04 -5.67910E+04 -5.06384E+04 -1.44390E+04 -6.95323E+04  2.76091E+04 -4.53982E+04
  4.03445E+04  3.46094E+03  1.57348E+04  4.79517E+04 -3.42419E+04  4.70852E+04 -6.66241E+04 -2.53028E+02
 -5.34152E+04 -5.67931E+04 -6.54741E+03 -7.66449E+04  3.39186E+04 -5.46651E+04  4.77053E+04 -1.73030E+04
  4.27572E+04  1.11508E+04  3.10522E+04  2.47743E+04  1.61805E+04  2.92945E+04 -5.22911E+03  2.73511E+04
 -2.15292E+04  1.29564E+04 -1.96491E+04 -4.40647E+03  5.34525E+03 -7.87989E+03  2.17437E+04  1.28187E+04
  7.75668E+03  3.51879E+04 -3.16883E+04  3.57158E+04 -6.33650E+04  1.89715E+03 -5.60688E+04 -4.26151E+04
 -1.25590E+04 -6.28423E+04  3.95568E+04 -4.50999E+04  5.81424E+04 -2.06013E+03  3.36215E+04  3.18953E+04
 -6.05289E+03  3.58352E+04 -2.98631E+04  1.55142E+04 -2.99605E+04 -4.86968E+03 -1.66741E+04 -1.09057E+04
 -7.64401E+03 -1.23438E+04 -5.06651E+02 -1.77683E+04  6.84077E+03 -2.24263E+04  1.51099E+04 -1.38892E+04
  1.15959E+04  4.54244E+03 -7.52790E+03  1.27772E+04 -2.07811E+04 -3.72461E+03 -8.83378E+03 -3.32046E+04
  2.28294E+04 -4.29898E+04  4.77488E+04 -1.96413E+04  4.44591E+04  1.90529E+04  1.59057E+04  4.37403E+04
 -1.62728E+04  3.28685E+04 -2.47512E+04  1.39024E+03 -9.52319E+03 -2.78838E+04  2.09886E+04 -3.35174E+04
  4.06526E+04 -8.76646E+03  3.49518E+04  2.37187E+04  1.72726E+04  4.54487E+04 -8.55774E+03  4.92904E+04
 -3.11148E+04  3.26999E+04 -4.14125E+04  9.15279E+03 -4.13231E+04 -1.59326E+04 -2.30849E+04 -3.69613E+04
  6.77932E+03 -3.66646E+04  3.05208E+04 -1.35822E+04  2.82813E+04  1.04297E+04  3.89437E+03  1.88868E+04
 -1.34628E+04  8.42395E+03 -9.81514E+03 -7.95518E+03  5.76236E+03 -9.93930E+03  1.75194E+04  5.80803E+03
  1.39931E+04  2.22018E+04 -6.34607E+03  2.50331E+04 -2.21667E+04  1.07046E+04 -2.71130E+04 -5.32773E+03
 -2.00233E+04 -1.73813E+04 -7.91759E+03 -1.95425E+04  3.88409E+03 -1.86838E+04  1.48569E+04 -1.72121E+04
  2.49022E+04 -1.23573E+04  3.18169E+04  2.60735E+03  2.35223E+04  1.88634E+04  4.03647E+03  3.54937E+04
 -1.71818E+04  2.92693E+04 -2.66836E+04  1.07129E+04 -1.97832E+04 -1.05401E+04 -3.98232E+03 -1.35614E+04
  1.74800E+03 -3.06282E+03 -4.48424E+03  6.13014E+03 -1.56453E+04  5.13237E+03 -1.55957E+04 -6.01028E+03
 -9.26259E+03 -1.76030E+04  4.83731E+03 -2.27371E+04  1.46717E+04 -1.57272E+04  1.60057E+04 -1.64321E+03
  1.09842E+04  1.24240E+04 -1.46411E+03  1.82803E+04 -1.25001E+04  1.05025E+04 -1.79120E+04 -3.82836E+03
 -1.38465E+04 -1.62485E+04 -1.34780E+03 -2.22428E+04  1.01526E+04 -1.78125E+04  1.84533E+04 -8.27938E+03
  1.63284E+04  3.84696E+02  1.21170E+04  4.37643E+03  6.28713E+03  3.58832E+02  9.54534E+03 -1.63738E+03
  1.60721E+04  2.54109E+03  1.79751E+04  1.46073E+04  1.09430E+04  2.87494E+04 -3.47469E+03  3.22083E+04
 -1.86165E+04  2.59548E+04 -2.97049E+04  1.30185E+04 -3.13555E+04 -2.70550E+03 -2.65438E+04 -1.75893E+04
 -1.07132E+04 -2.55105E+04  8.32548E+03 -2.31693E+04  2.03118E+04 -1.19589E+04  1.81741E+04  5.00054E+03
  7.14009E+03  1.29438E+04 -8.08427E+03  1.20783E+04 -1.53775E+04  2.48742E+03 -1.16269E+04 -9.30319E+03
 -3.33859E+02 -1.52103E+04  7.37038E+03 -1.00697E+04  9.12161E+03 -1.31144E+03  2.30919E+03  5.82683E+03
 -6.33109E+03  2.01814E+03 -4.96479E+03 -5.18585E+03 -1.02600E+02 -1.24322E+04  9.12931E+03 -1.30990E+04
  1.55681E+04 -6.72602E+03  1.62028E+04  2.88358E+03  1.41804E+04  1.23329E+04  6.45490E+03  1.81863E+04
 -2.82750E+03  2.00170E+04 -1.30261E+04  1.28244E+04 -1.40949E+04  3.33944E+03 -1.06295E+04 -3.02605E+03
 -5.17162E+03 -4.48450E+03 -1.28970E+03  1.69078E+03 -2.06186E+03  2.71085E+03 -4.50786E+03  4.45931E+03
 -9.49021E+03 -3.44490E+02 -1.06415E+04 -8.14252E+03 -4.80201E+03 -1.39812E+04  4.72558E+03 -1.04528E+04
  8.76157E+03 -4.74765E+03  6.11341E+03  2.95990E+03  3.18320E+01  4.06965E+03 -4.69822E+03  5.91481E+01
 -4.52285E+03 -6.94358E+03 -1.00242E+03 -9.26692E+03  5.30752E+03 -9.56135E+03  1.26196E+04 -5.07999E+03
  1.43572E+04  1.00540E+03  1.08394E+04  8.00574E+03  1.61846E+03  1.10646E+04 -6.41191E+03  1.02924E+04
 -8.14284E+03  2.85338E+03 -4.11872E+03 -1.94219E+03  1.63788E+03 -2.29383E+03  5.72443E+03 -5.22095E+02
  5.00590E+03  4.34904E+03  1.24718E+03  7.49460E+03 -5.49960E+03  7.52236E+03 -9.86093E+03  2.18702E+03
 -6.44035E+03 -4.72078E+03  7.12455E+02 -8.51538E+03  4.42755E+03 -4.74014E+03  4.99746E+03  1.96595E+03
  1.07544E+03  5.13835E+03 -4.61151E+03  6.24408E+03 -7.15614E+03  2.80528E+03 -6.63579E+03 -2.03426E+03
 -3.59272E+03 -8.30016E+03  1.98729E+03 -1.05011E+04  8.04470E+03 -6.19792E+03  9.22502E+03  1.41849E+03
  5.84540E+03  6.69642E+03 -5.64268E+02  9.14868E+03 -6.35693E+03  5.09037E+03 -7.74976E+03 -1.27485E+03
 -6.80203E+03 -6.33612E+03 -2.19768E+03 -6.57226E+03  3.55103E+03 -6.23865E+03  3.95267E+03 -3.31363E+03
  3.50520E+03  8.22982E+02 -2.95110E+02  1.22614E+03  1.00679E+03 -4.97834E+02  5.54020E+02 -2.07065E+03
  5.53207E+03 -1.89760E+03  7.21995E+03  1.31323E+03  7.91343E+03  4.79742E+03  6.42709E+03  9.57831E+03
 -1.99660E+03  1.21645E+04 -1.07134E+04  8.81100E+03 -1.33497E+04  1.09391E+03 -1.06051E+04 -4.25126E+03
 -5.96967E+03 -8.76754E+03 -7.67314E+02 -6.99266E+03  2.43396E+03 -3.76685E+03  2.39824E+03 -2.43125E+03
  1.31361E+03 -1.61220E+03  2.22465E+03 -3.04200E+03  3.73537E+03 -1.32800E+03  4.22088E+03 -4.54187E+02
  5.39326E+03  8.79484E+02  2.69642E+03  4.60459E+03 -1.34982E+03  4.56270E+03 -5.14728E+03  4.34472E+03
 -6.80298E+03 -6.35128E+02 -3.93832E+03 -4.65397E+03 -3.72469E+02 -7.48055E+03  4.55061E+03 -6.85951E+03
  7.58679E+03 -4.76220E+03  8.97907E+03  2.10301E+02  6.51222E+03  6.04968E+03  1.05195E+03  8.14130E+03
 -2.85967E+03  7.95213E+03 -4.62058E+03  2.72431E+03 -3.23000E+03 -8.50617E+02 -6.59478E+02 -8.25511E+02
 -9.09492E+02  1.63751E+02 -1.60940E+03  2.34022E+03 -3.27673E+03  1.68502E+03 -5.00989E+03 -4.86454E+02
 -2.21863E+03 -5.07617E+03  8.32337E+02 -6.59545E+03  3.80477E+03 -5.89002E+03  5.57076E+03 -1.91861E+03
  5.50399E+03  3.31126E+03  3.30744E+03  5.60382E+03 -8.09086E+02  6.76768E+03 -4.61583E+03  4.47000E+03
 -6.07686E+03  5.41105E+02 -4.95550E+03 -4.05435E+03 -4.69691E+02 -4.64666E+03  2.38265E+03 -3.79901E+03
  3.32415E+03 -1.94438E+03  2.86263E+03  7.41824E+02  1.05620E+03  2.26418E+03  8.94600E+02  1.23096E+03
  1.52712E+03  3.88113E+02  1.86927E+03  1.50150E+03  1.19104E+03  2.68914E+03  1.57784E+03  2.98794E+03
 -1.00156E+03  4.09248E+03 -4.05925E+03  5.69808E+03 -4.56249E+03  1.89287E+03 -6.19486E+03 -1.47163E+03
 -2.09293E+03 -5.09360E+03  9.94252E+02 -7.10079E+03  3.41190E+03 -3.55481E+03  4.72615E+03 -1.69920E+03
  3.47839E+03  2.01040E+03  1.22482E+03  3.46823E+03 -1.52237E+03  1.95010E+03 -2.61997E+03 -1.09842E+02
 -1.30700E+03 -2.14510E+03  1.42510E+03 -2.16905E+03  2.74683E+03 -1.44281E+03  2.39856E+03  1.07341E+03
  1.73381E+03  6.24510E+02  4.34858E+02  6.50307E+02 -4.29884E+02  9.04981E+02  1.53643E+03 -1.03880E+02
  4.81181E+02 -1.28580E+02  2.63949E+03  6.57061E+02  7.48317E+02  3.15340E+03 -2.90013E+01  3.89171E+03
 -2.03587E+03  2.00108E+03 -3.08581E+03  1.12804E+03 -3.15781E+03 -1.16610E+03 -1.10741E+03 -1.82731E+03
  8.67860E+02 -1.99339E+03  1.41765E+03 -6.68234E+02  1.53664E+03  1.87672E+03 -6.32043E+02  1.77384E+03
 -2.49733E+03  1.21888E+03 -2.54747E+03 -1.75891E+03 -1.40183E+03 -3.18896E+03  4.00828E+02 -1.62381E+03
  2.09201E+03 -1.07754E+03  1.22029E+03 -4.24702E+02  1.53002E+03  1.13462E+02  9.42217E+01  1.59356E+03
 -9.35835E+02 -2.62578E+02 -1.45127E+03 -1.19937E+03  9.99397E+02 -1.90617E+03  2.58076E+03 -2.26527E+03
  2.86564E+03 -4.89901E+01  4.44239E+03  1.31631E+03  1.72796E+03  2.83264E+03 -9.68398E+02  2.23271E+03
 -2.59077E+03  1.86397E+03 -2.33577E+03 -5.71590E+02 -1.43221E+03 -2.30737E+03  4.68785E+02 -1.79297E+03
  1.92280E+03 -9.28687E+02  1.19622E+03  1.14730E+03  4.49542E+02  1.65420E+03 -3.92960E+02  1.22783E+03
  5.15690E+01  1.49922E+03 -6.94411E+02  2.34850E+02 -2.69337E+02  8.86465E+01 -5.45765E+02  6.87360E+02
 -8.18686E+02  1.37055E+03 -2.42225E+03  1.35862E+03 -3.04155E+03  5.87839E+01 -3.57046E+03 -1.53231E+03
 -1.82071E+03 -3.61281E+03  5.67742E+02 -4.15808E+03  1.87424E+03 -3.81134E+03  4.04978E+03 -1.19436E+03
  3.83340E+03  3.88420E+02  2.44727E+03  3.01730E+03  1.64746E+02  2.68080E+03 -1.82325E+03  2.07454E+03
 -1.31927E+03  9.19559E+02 -1.10595E+03 -2.30809E+02  2.46214E+02  1.37086E+01 -6.53635E+02  6.10369E+02
 -8.69723E+02 -1.48459E+02 -1.26002E+03  1.35572E+02 -9.00943E+01 -1.51251E+03  1.00137E+02 -7.60804E+02
  1.66771E+03 -5.99105E+02  7.46899E+02  4.17518E+02  1.95870E+03  1.77342E+03 -5.33484E+02  2.67970E+03
 -1.45528E+03  3.26367E+03 -2.48354E+03  1.86272E+03 -3.29032E+03 -6.18260E+02 -1.97135E+03 -1.84060E+03
 -9.16770E+02 -1.92377E+03 -2.55506E+02 -2.31357E+03  1.60462E+03 -8.26539E+02  1.06177E+03  2.14617E+02
  1.05125E+03  7.47689E+02 -1.74059E+02  7.97892E+02 -6.80390E+02 -1.23221E+02 -2.44816E+02 -3.42097E+01
  1.33665E+03  2.19789E+01  7.20280E+02  3.66491E+02  2.76095E+02  1.12067E+03 -6.01417E+01  7.96256E+02
 -5.29537E+02  1.82628E+03 -1.99822E+03 -7.96661E+01 -1.38794E+03 -5.82578E+02 -2.14136E+02 -1.36916E+03
  6.48312E+02 -1.30362E+03  1.31678E+03  1.10935E+02  2.04579E+03  2.10044E+01  9.38442E+02  1.18199E+03
  4.39984E+02  9.63156E+02  7.74069E+01  1.09448E+03 -6.98841E+02  7.96146E+00 -4.96027E+02 -1.42796E+02
 -2.45315E+02 -4.14839E+02 -6.52953E+02  2.22731E+02 -1.16548E+03  4.06039E+02 -1.51974E+03 -3.72572E+02
 -1.39815E+03 -7.33904E+02 -5.64906E+02 -1.52192E+03  9.25493E+02 -2.25405E+03  1.26417E+03 -2.50271E+02
  1.00015E+03  1.25571E+02  5.48512E+02  7.87899E+02  9.06144E+01  7.76318E+02 -7.97799E+02  1.05317E+03
