 $NMID ID='MM_0lb_SNR400_7hz_g55_10.RAW', FMTDAT='(8E13.5)'
 TRAMP=1., VOLUME=1. $END
  3.09780E+05 -4.64205E+01  3.37734E+05  2.51119E+05  8.56578E+04  3.38910E+05 -1.33407E+05  2.52148E+05
 -1.91604E+05  8.38134E+04 -1.11656E+05 -3.22038E+04 -9.66594E+01 -5.17185E+04  5.33722E+04 -4.77140E+02
  3.62991E+04  5.23657E+04 -1.69044E+04  7.63873E+04 -6.07262E+04  6.47126E+04 -8.54731E+04  3.30026E+04
 -8.32115E+04 -1.24305E+04 -5.81761E+04 -5.32642E+04 -1.47844E+04 -7.17837E+04  2.85711E+04 -4.67295E+04
  4.20594E+04  3.80990E+03  1.66207E+04  4.87077E+04 -3.49620E+04  4.88714E+04 -6.88894E+04 -9.40843E+02
 -5.47484E+04 -5.89535E+04 -7.29250E+03 -7.99369E+04  3.49057E+04 -5.75211E+04  4.96754E+04 -1.89740E+04
  4.64423E+04  1.21143E+04  3.39505E+04  2.79686E+04  1.63400E+04  3.18167E+04 -5.01808E+03  2.80274E+04
 -2.21879E+04  1.24843E+04 -1.74772E+04 -7.66522E+03  7.21346E+03 -6.96451E+03  2.46775E+04  1.48504E+04
  6.90255E+03  3.78987E+04 -3.47545E+04  3.80174E+04 -6.66665E+04  2.37039E+03 -5.89182E+04 -4.64636E+04
 -1.30519E+04 -6.76720E+04  4.25666E+04 -4.88803E+04  6.19145E+04 -3.32958E+03  3.69415E+04  3.48158E+04
 -4.96006E+03  4.09832E+04 -3.29304E+04  2.01004E+04 -3.47446E+04 -2.60359E+03 -2.08002E+04 -1.29583E+04
 -1.02246E+04 -1.56133E+04 -1.16695E+02 -2.18768E+04  8.08028E+03 -2.29598E+04  1.62809E+04 -1.21213E+04
  1.03333E+04  7.08452E+03 -1.12425E+04  1.30162E+04 -2.49364E+04 -8.91840E+03 -8.61373E+03 -3.92850E+04
  2.62410E+04 -4.86090E+04  5.58011E+04 -2.19537E+04  5.10305E+04  2.17931E+04  1.83373E+04  4.87392E+04
 -1.70161E+04  3.72945E+04 -2.81084E+04  1.23771E+03 -1.13929E+04 -3.09971E+04  2.13857E+04 -3.91672E+04
  4.64427E+04 -1.25616E+04  4.33057E+04  2.50357E+04  2.27353E+04  5.40158E+04 -7.65143E+03  5.97749E+04
 -3.68827E+04  4.10970E+04 -4.99777E+04  1.17537E+04 -5.02676E+04 -1.97694E+04 -2.71654E+04 -4.50439E+04
  8.18480E+03 -4.39499E+04  3.48663E+04 -1.83627E+04  3.41808E+04  1.20676E+04  5.72030E+03  2.13631E+04
 -1.45094E+04  1.05468E+04 -1.16408E+04 -7.63030E+03  4.72582E+03 -1.16869E+04  1.90348E+04  5.31350E+03
  1.59656E+04  2.29386E+04 -4.64230E+03  2.75933E+04 -2.37088E+04  1.61429E+04 -3.30572E+04 -1.87077E+03
 -2.64490E+04 -1.93250E+04 -1.28460E+04 -2.69266E+04  4.54894E+03 -2.97593E+04  2.16812E+04 -2.50239E+04
  3.48133E+04 -1.57439E+04  4.07482E+04  6.22325E+03  2.84067E+04  2.66799E+04  5.46845E+03  4.40627E+04
 -2.01606E+04  3.60748E+04 -3.15263E+04  1.16005E+04 -2.27616E+04 -1.03255E+04 -5.22809E+03 -1.20842E+04
  4.01124E+02  6.38014E+02 -8.65961E+03  8.98610E+03 -2.20387E+04  4.84667E+03 -2.24814E+04 -1.03036E+04
 -1.35790E+04 -2.55174E+04  6.53184E+03 -3.05955E+04  2.10636E+04 -2.17160E+04  2.54518E+04 -2.03870E+03
  1.75293E+04  1.77578E+04 -2.14783E+03  2.51639E+04 -1.85213E+04  1.52729E+04 -2.62389E+04 -4.86506E+03
 -1.79518E+04 -2.22543E+04 -1.81966E+03 -3.07231E+04  1.42131E+04 -2.58413E+04  2.59874E+04 -1.33814E+04
  2.42263E+04 -5.63410E+02  1.83219E+04  5.22986E+03  1.04846E+04  2.52027E+03  1.37572E+04 -2.91811E+03
  2.45693E+04  3.56178E+03  2.91154E+04  1.99753E+04  2.06245E+04  4.17543E+04 -2.24926E+03  4.84952E+04
 -2.79173E+04  4.15306E+04 -4.75647E+04  2.31291E+04 -5.00537E+04 -4.62089E+03 -3.94405E+04 -3.04288E+04
 -1.62861E+04 -4.19819E+04  1.58969E+04 -3.66028E+04  3.21425E+04 -1.67589E+04  2.75564E+04  7.79686E+03
  8.73268E+03  2.07178E+04 -1.33407E+04  1.67619E+04 -2.20994E+04  3.28806E+03 -1.76307E+04 -1.51419E+04
 -1.66958E+02 -2.17278E+04  1.17592E+04 -1.51726E+04  1.42854E+04 -6.82368E+02  3.55080E+03  1.00383E+04
 -1.03215E+04  5.77219E+03 -1.10513E+04 -7.69049E+03 -2.45141E+03 -2.08115E+04  1.36598E+04 -2.15862E+04
  2.60985E+04 -1.28356E+04  3.08263E+04  3.15496E+03  2.66264E+04  2.14090E+04  1.31242E+04  3.52819E+04
 -6.49480E+03  3.65565E+04 -2.42601E+04  2.29319E+04 -2.69461E+04  4.55567E+03 -1.75655E+04 -6.92646E+03
 -7.38399E+03 -7.89647E+03 -8.99391E+02  2.70110E+02 -2.54631E+03  3.19506E+03 -8.69089E+03  5.46834E+03
 -1.56531E+04 -1.74669E+03 -1.73599E+04 -1.34128E+04 -7.03499E+03 -2.21814E+04  7.19948E+03 -1.82051E+04
  1.61937E+04 -7.14796E+03  1.02846E+04  5.29243E+03 -7.42989E+02  8.04612E+03 -9.09874E+03  4.24144E+02
 -8.92035E+03 -1.18735E+04 -1.21917E+03 -1.93159E+04  1.11043E+04 -2.01792E+04  2.37510E+04 -1.03423E+04
  2.80254E+04  3.01579E+03  2.03681E+04  1.76839E+04  3.32938E+03  2.24343E+04 -1.14584E+04  1.83763E+04
 -1.48690E+04  4.25771E+03 -7.89125E+03 -4.50456E+03  2.88484E+03 -5.69332E+03  8.85213E+03 -6.16720E+02
  7.96805E+03  7.95259E+03  7.76731E+02  1.49518E+04 -1.11469E+04  1.37248E+04 -1.78429E+04  2.91195E+03
 -1.21105E+04 -1.00077E+04  5.75448E+02 -1.57756E+04  1.04257E+04 -8.76911E+03  1.10881E+04  4.16093E+03
  2.53034E+03  1.20924E+04 -1.00366E+04  1.43003E+04 -1.73105E+04  5.39159E+03 -1.74996E+04 -6.35165E+03
 -1.02322E+04 -1.99477E+04  5.40910E+03 -2.25451E+04  1.92667E+04 -1.24486E+04  2.14293E+04  4.67392E+03
  1.24507E+04  1.70072E+04 -1.42475E+03  1.98720E+04 -1.41350E+04  9.82640E+03 -1.59022E+04 -2.22200E+03
 -1.22241E+04 -1.22675E+04 -1.78690E+03 -1.45646E+04  7.77144E+03 -9.88313E+03  9.57215E+03 -4.09506E+03
  5.52802E+03  2.83227E+03 -1.41380E+03  1.71342E+03 -1.56352E+03 -4.79860E+03  4.19428E+03 -9.58093E+03
  1.46015E+04 -5.46967E+03  2.01568E+04  3.05536E+03  1.96833E+04  1.42919E+04  1.13707E+04  2.63366E+04
 -5.99664E+03  2.93519E+04 -2.53258E+04  2.24229E+04 -3.22919E+04  4.14605E+03 -2.60413E+04 -1.08085E+04
 -1.37648E+04 -2.16908E+04 -9.49678E+01 -1.83599E+04  7.60037E+03 -9.92074E+03  5.73790E+03 -5.61826E+03
  5.78604E+03 -4.40753E+03  4.36021E+03 -3.86614E+03  7.12482E+03 -4.83553E+03  1.05473E+04 -1.83842E+03
  1.39457E+04  3.01141E+03  7.65695E+03  1.21993E+04 -2.70250E+03  1.45895E+04 -1.37894E+04  1.11056E+04
 -1.86656E+04 -2.39724E+03 -1.33977E+04 -1.24810E+04 -2.24962E+03 -2.05025E+04  1.08302E+04 -2.00872E+04
  2.06218E+04 -1.14921E+04  2.43335E+04  4.18004E+03  1.76667E+04  1.78220E+04  2.35035E+03  2.15903E+04
 -8.97631E+03  1.85326E+04 -1.37103E+04  5.99738E+03 -8.67017E+03 -1.35566E+03 -3.52336E+03 -2.86495E+03
 -1.74616E+03 -1.40708E+03 -2.51579E+03  4.14640E+03 -8.00507E+03  3.10812E+03 -1.24537E+04 -2.25619E+03
 -9.68381E+03 -1.22917E+04 -7.79405E+02 -1.90389E+04  1.17054E+04 -1.70512E+04  1.94921E+04 -5.34301E+03
  1.90336E+04  8.11494E+03  9.25427E+03  1.73369E+04 -4.37059E+03  1.89556E+04 -1.39687E+04  1.24942E+04
 -1.80236E+04  5.06250E+01 -1.39447E+04 -1.16391E+04 -1.34494E+03 -1.69892E+04  7.81115E+03 -1.18374E+04
  1.25358E+04 -2.71617E+03  8.69731E+03  3.02315E+03  3.69580E+03  5.99454E+03  1.94531E+03  3.23924E+03
  3.53070E+03  1.80037E+03  4.99795E+03  2.41039E+03  6.03728E+03  6.16565E+03  4.84037E+03  1.06485E+04
 -2.80470E+03  1.61024E+04 -1.45226E+04  1.56235E+04 -2.17098E+04  4.76360E+03 -2.09264E+04 -8.86360E+03
 -1.01493E+04 -2.08412E+04  2.51474E+03 -2.22946E+04  1.20346E+04 -1.33009E+04  1.61514E+04 -3.70339E+03
  1.29297E+04  7.34759E+03  3.01424E+03  1.11258E+04 -5.55820E+03  7.47674E+03 -7.78367E+03 -1.79082E+03
 -3.10656E+03 -8.89569E+03  3.39651E+03 -9.09322E+03  8.57744E+03 -4.32854E+03  8.16679E+03  2.43752E+03
  3.98325E+03  3.96924E+03  1.72137E+03  3.43644E+03 -8.51084E+02  2.75732E+03  2.06365E+03 -4.63392E+02
  3.11820E+03 -1.08233E+03  8.54455E+03  3.68740E+03  5.76097E+03  1.07240E+04 -1.38574E+03  1.38509E+04
 -1.03243E+04  1.05571E+04 -1.34481E+04  2.83182E+03 -1.25834E+04 -5.34456E+03 -5.02992E+03 -8.23583E+03
  1.50777E+03 -8.54773E+03  5.25686E+03 -3.36044E+03  5.24321E+03  3.49571E+03 -1.53069E+03  6.24820E+03
 -8.60633E+03  4.16900E+03 -1.04124E+04 -4.29859E+03 -6.34861E+03 -1.19629E+04  2.01503E+03 -1.19507E+04
  6.94804E+03 -7.18732E+03  8.77316E+03 -7.56796E+02  7.27482E+03  2.74649E+03  1.04125E+03  5.39062E+03
 -4.19587E+03  1.73697E+03 -5.44149E+03 -4.35953E+03  1.41983E+03 -8.89717E+03  9.82185E+03 -7.71409E+03
  1.41420E+04  9.45063E+02  1.20884E+04  1.02401E+04  4.70284E+03  1.51982E+04 -5.43351E+03  1.34092E+04
 -1.19416E+04  6.36008E+03 -1.16343E+04 -1.22218E+03 -7.31163E+03 -8.88058E+03  2.36457E+03 -9.25842E+03
  8.64067E+03 -4.87197E+03  7.06030E+03  3.59567E+03  2.67120E+03  8.55656E+03 -2.59825E+03  7.08023E+03
 -2.87964E+03  4.95739E+03 -3.06122E+03  2.67178E+03 -2.54311E+03  1.53002E+03 -1.39965E+03  2.03470E+03
 -3.34371E+03  5.23662E+03 -9.18827E+03  5.65055E+03 -1.49822E+04 -2.07112E+02 -1.57069E+04 -9.10913E+03
 -8.87023E+03 -1.92160E+04  2.70328E+03 -2.20935E+04  1.48478E+04 -1.67257E+04  2.11078E+04 -5.90515E+03
  1.99294E+04  3.37693E+03  1.21316E+04  1.42516E+04  1.79256E+03  1.62988E+04 -5.38543E+03  1.14227E+04
 -8.06611E+03  4.56427E+03 -4.46969E+03 -1.76976E+03 -1.79329E+03 -2.14970E+03  3.39946E+02 -1.17676E+03
 -2.49693E+03  1.02117E+03 -3.12654E+03 -2.51584E+02 -1.89374E+03 -3.65859E+03  6.34407E+02 -5.24667E+03
  6.37566E+03 -6.17620E+03  8.43950E+03  6.76210E+02  1.17775E+04  8.55381E+03  3.60131E+03  1.53654E+04
 -7.42574E+03  1.73136E+04 -1.62418E+04  1.02787E+04 -1.90457E+04 -1.82404E+03 -1.51444E+04 -1.10543E+04
 -5.59105E+03 -1.60703E+04  3.45032E+03 -1.40353E+04  1.02884E+04 -8.01950E+03  9.88838E+03  8.86306E+02
  5.50469E+03  5.63444E+03 -6.48561E+02  5.01753E+03 -2.46054E+03  5.30046E+01  5.54729E+02 -3.59874E+03
  5.21865E+03 -3.06847E+03  5.06742E+03  1.76143E+03  4.43747E+03  6.83340E+03  2.45951E+02  7.90837E+03
 -6.87010E+03  7.49015E+03 -1.02599E+04  7.36263E+02 -7.96815E+03 -7.55672E+03 -2.90826E+03 -1.35677E+04
  8.12780E+03 -1.05793E+04  1.26838E+04 -3.59956E+03  1.31808E+04  4.11951E+03  6.05456E+03  1.05414E+04
  6.41831E+02  1.12210E+04 -3.19660E+03  8.95053E+03 -6.93574E+03  5.31064E+03 -6.49280E+03  1.67136E+03
 -2.91802E+03 -1.19670E+03 -2.06420E+03  2.22510E+03 -6.39950E+03  1.51888E+03 -9.25137E+03 -2.06757E+03
 -7.81993E+03 -6.15535E+03 -2.96033E+03 -1.13592E+04  6.03884E+03 -1.04830E+04  1.06998E+04 -5.64429E+03
  1.16051E+04  9.76186E+02  7.92825E+03  7.97140E+03 -6.29137E+02  1.07870E+04 -8.82761E+03  7.10912E+03
