 $NMID ID='MM_0lb_SNR400_16hz_g50_61.RAW', FMTDAT='(8E13.5)'
 TRAMP=1., VOLUME=1. $END
  3.09446E+05  7.10457E+02  3.36941E+05  2.50359E+05  8.50419E+04  3.38182E+05 -1.32200E+05  2.50960E+05
 -1.90200E+05  8.28063E+04 -1.11213E+05 -3.25492E+04  9.65518E+02 -5.05088E+04  5.36672E+04  5.71868E+01
  3.51247E+04  5.27041E+04 -1.64684E+04  7.52581E+04 -6.07148E+04  6.35080E+04 -8.37487E+04  3.13980E+04
 -7.99091E+04 -1.14531E+04 -5.70375E+04 -5.11207E+04 -1.54287E+04 -6.92006E+04  2.70485E+04 -4.53943E+04
  3.99099E+04  3.43198E+03  1.54923E+04  4.75273E+04 -3.44912E+04  4.70072E+04 -6.62464E+04 -7.11698E+02
 -5.29783E+04 -5.65916E+04 -6.55744E+03 -7.65075E+04  3.38887E+04 -5.38835E+04  4.75017E+04 -1.73162E+04
  4.24866E+04  1.10403E+04  3.13450E+04  2.51075E+04  1.56056E+04  2.87579E+04 -4.61544E+03  2.69357E+04
 -2.22816E+04  1.22721E+04 -1.88860E+04 -4.95203E+03  5.12097E+03 -8.00623E+03  2.24896E+04  1.19812E+04
  7.42342E+03  3.47882E+04 -3.22655E+04  3.48645E+04 -6.25211E+04  1.98749E+03 -5.66404E+04 -4.22331E+04
 -1.24040E+04 -6.25914E+04  3.98659E+04 -4.51687E+04  5.75663E+04 -2.08980E+03  3.33031E+04  3.15190E+04
 -6.25313E+03  3.52822E+04 -2.94273E+04  1.49079E+04 -2.91687E+04 -5.23482E+03 -1.61649E+04 -1.09917E+04
 -7.81542E+03 -1.28254E+04 -1.50270E+03 -1.76156E+04  7.15114E+03 -2.31303E+04  1.51052E+04 -1.35715E+04
  1.19532E+04  4.65399E+03 -7.03220E+03  1.27149E+04 -2.08797E+04 -4.02196E+03 -8.29310E+03 -3.23943E+04
  2.22417E+04 -4.20866E+04  4.65650E+04 -1.96022E+04  4.43641E+04  1.96456E+04  1.57305E+04  4.34058E+04
 -1.60526E+04  3.21591E+04 -2.44647E+04  1.75664E+03 -9.19294E+03 -2.72471E+04  2.03116E+04 -3.28352E+04
  4.06797E+04 -8.62280E+03  3.42175E+04  2.31245E+04  1.73101E+04  4.56231E+04 -8.61791E+03  4.89454E+04
 -3.03947E+04  3.29870E+04 -3.98001E+04  8.80706E+03 -4.10571E+04 -1.61082E+04 -2.24027E+04 -3.68787E+04
  7.50728E+03 -3.62277E+04  3.05561E+04 -1.34011E+04  2.80408E+04  1.02925E+04  3.52291E+03  1.88330E+04
 -1.31689E+04  8.12724E+03 -9.55805E+03 -7.79203E+03  5.69631E+03 -1.05436E+04  1.83009E+04  6.71074E+03
  1.29196E+04  2.20139E+04 -6.46312E+03  2.45097E+04 -2.14554E+04  1.03427E+04 -2.67037E+04 -4.91474E+03
 -1.91882E+04 -1.66797E+04 -6.95006E+03 -1.89388E+04  3.41094E+03 -1.72370E+04  1.48558E+04 -1.68153E+04
  2.42683E+04 -1.24383E+04  3.09091E+04  2.50871E+03  2.30033E+04  1.86565E+04  4.41862E+03  3.44058E+04
 -1.75162E+04  2.91572E+04 -2.78132E+04  1.00230E+04 -2.05981E+04 -1.02793E+04 -4.10666E+03 -1.39032E+04
  1.71899E+03 -3.27750E+03 -3.50333E+03  6.10338E+03 -1.55582E+04  6.14720E+03 -1.51372E+04 -6.06718E+03
 -8.83669E+03 -1.73717E+04  5.08068E+03 -2.13918E+04  1.46409E+04 -1.60952E+04  1.69518E+04 -1.76100E+03
  1.01156E+04  1.23891E+04 -8.11776E+02  1.82337E+04 -1.16728E+04  1.01491E+04 -1.71846E+04 -3.81588E+03
 -1.25880E+04 -1.57160E+04 -1.47327E+03 -2.13436E+04  9.73419E+03 -1.76505E+04  1.79005E+04 -8.52604E+03
  1.58513E+04  3.15178E+02  1.18210E+04  3.82001E+03  5.71595E+03  5.51807E+02  9.40161E+03 -1.72258E+03
  1.60483E+04  2.51738E+03  1.74560E+04  1.39438E+04  1.07931E+04  2.73222E+04 -3.59400E+03  3.16723E+04
 -1.79392E+04  2.46085E+04 -2.84483E+04  1.24893E+04 -3.00279E+04 -2.01769E+03 -2.55105E+04 -1.71495E+04
 -1.06917E+04 -2.47938E+04  8.20065E+03 -2.19391E+04  1.87573E+04 -1.18108E+04  1.71063E+04  4.72448E+03
  7.03062E+03  1.33168E+04 -8.64818E+03  1.15604E+04 -1.48339E+04  2.29878E+03 -1.16149E+04 -8.97891E+03
 -1.30749E+01 -1.39942E+04  6.85751E+03 -1.05753E+04  8.84415E+03 -1.59912E+03  1.99688E+03  6.14570E+03
 -5.97422E+03  2.26990E+03 -5.44667E+03 -5.51850E+03  3.89818E+02 -1.20239E+04  8.61097E+03 -1.16524E+04
  1.47138E+04 -6.49579E+03  1.54958E+04  3.73382E+03  1.30555E+04  1.12548E+04  6.27944E+03  1.74179E+04
 -1.95597E+03  1.93150E+04 -1.21818E+04  1.16941E+04 -1.35034E+04  3.13602E+03 -9.95325E+03 -2.59207E+03
 -4.79538E+03 -4.80353E+03 -9.74869E+02  1.65075E+03 -2.47037E+03  2.79203E+03 -4.32523E+03  4.14374E+03
 -9.18060E+03 -6.52342E+02 -1.04141E+04 -7.96905E+03 -3.79539E+03 -1.30267E+04  4.01558E+03 -1.05553E+04
  8.16751E+03 -4.41529E+03  5.81917E+03  2.85307E+03  4.51962E+01  3.82816E+03 -4.90755E+03  3.67926E+02
 -4.09903E+03 -6.62814E+03 -8.06593E+02 -9.10284E+03  4.83885E+03 -9.63636E+03  1.21619E+04 -4.87157E+03
  1.41342E+04  1.04340E+03  1.07168E+04  7.63088E+03  2.35274E+03  1.04773E+04 -6.28570E+03  9.40675E+03
 -8.25633E+03  2.95796E+03 -4.13200E+03 -1.38851E+03  1.71116E+03 -2.42790E+03  6.08965E+03 -1.14596E+03
  4.86309E+03  4.71829E+03  1.69078E+03  7.45881E+03 -4.87069E+03  7.87719E+03 -9.28408E+03  2.22283E+03
 -6.41614E+03 -5.39497E+03  5.74126E+02 -8.64911E+03  5.31956E+03 -3.08204E+03  5.18843E+03  1.25916E+03
  6.88342E+02  4.91020E+03 -4.82279E+03  6.36759E+03 -7.34764E+03  3.24268E+03 -7.00952E+03 -1.55873E+03
 -3.67928E+03 -7.96639E+03  1.46622E+03 -9.28772E+03  8.16497E+03 -5.74016E+03  8.50372E+03  1.06193E+03
  5.61622E+03  6.18581E+03 -2.51042E+02  9.27611E+03 -6.24569E+03  4.90265E+03 -6.69069E+03 -3.81634E+02
 -6.60414E+03 -6.00459E+03 -2.20032E+03 -6.03053E+03  3.80326E+03 -5.58429E+03  3.12677E+03 -2.95737E+03
  3.32166E+03  2.93847E+02  5.82611E+02  2.14306E+03  6.41526E+02 -7.82489E+02  4.05710E+02 -3.31449E+03
  5.25172E+03 -1.80431E+03  7.52274E+03  1.44269E+03  7.31924E+03  4.69363E+03  6.37811E+03  9.35095E+03
 -2.31903E+03  1.19586E+04 -1.01721E+04  8.59494E+03 -1.22212E+04  1.70660E+03 -1.00638E+04 -4.11697E+03
 -5.66679E+03 -8.80271E+03 -5.32783E+02 -7.15151E+03  2.94341E+03 -3.37787E+03  2.87796E+03 -2.71247E+03
  1.85105E+03 -1.94172E+03  2.34525E+03 -2.41191E+03  3.99819E+03 -1.68403E+03  4.76091E+03  9.02964E+01
  5.71161E+03  1.29676E+03  1.57678E+03  4.76893E+03 -1.38911E+03  4.37571E+03 -5.01579E+03  3.46058E+03
 -6.64717E+03 -1.19219E+03 -3.07849E+03 -4.33955E+03  9.10462E+01 -6.80833E+03  4.42213E+03 -7.15762E+03
  7.04759E+03 -4.07758E+03  8.33606E+03  5.81926E+02  6.18097E+03  6.69517E+03  1.32757E+03  8.10336E+03
 -3.34658E+03  7.05953E+03 -5.02635E+03  2.12612E+03 -2.67697E+03 -1.40177E+03 -1.21951E+03 -1.38028E+03
  2.86212E+01  1.31693E+02 -1.15272E+03  1.97503E+03 -2.89132E+03  1.28514E+03 -4.88328E+03 -1.11323E+03
 -2.31783E+03 -4.63661E+03  9.65944E+02 -6.72413E+03  3.60384E+03 -5.19348E+03  5.69894E+03 -1.31490E+03
  5.92959E+03  2.85957E+03  2.75253E+03  4.78417E+03 -9.74820E+02  6.24432E+03 -4.51085E+03  4.24450E+03
 -5.37089E+03  5.45066E+02 -5.22438E+03 -3.29476E+03 -4.33816E+02 -4.60987E+03  3.04838E+03 -3.97559E+03
  4.08940E+03 -9.15458E+02  2.42750E+03  5.38310E+02  1.15474E+03  1.68045E+03  1.19281E+03  8.31143E+02
  2.46126E+03  7.49294E+02  1.47482E+03  1.30620E+03  2.51580E+03  2.30830E+03  1.93728E+03  3.04754E+03
 -1.53815E+03  5.20153E+03 -3.89402E+03  5.40061E+03 -4.32873E+03  1.16864E+03 -6.45880E+03 -1.33085E+03
 -2.86303E+03 -5.40588E+03  1.30958E+03 -6.11305E+03  3.23085E+03 -3.65456E+03  4.75178E+03 -1.03680E+03
  2.88442E+03  2.70616E+03  1.05829E+03  3.42113E+03 -1.24337E+03  1.71823E+03 -2.20208E+03 -1.10425E+02
 -1.42845E+03 -1.68008E+03  1.85909E+03 -2.14592E+03  1.69952E+03 -1.32106E+03  2.15819E+03  3.85793E+02
  1.25994E+03  3.19625E+02  1.27008E+03  8.59541E+01 -6.31395E+02  5.44013E+02  1.31857E+03 -8.98652E+01
 -2.58619E+02 -1.55902E+02  2.23471E+03  7.45820E+02  2.96504E+02  2.84854E+03 -5.96368E+02  3.95986E+03
 -2.61087E+03  1.79719E+03 -2.88881E+03  5.02251E+02 -2.61597E+03 -1.14297E+03 -9.39811E+02 -1.62292E+03
  9.90006E+02 -2.17481E+03  1.00493E+03 -1.05368E+03  1.05783E+03  1.46363E+03 -9.28202E+02  9.72092E+02
 -2.05822E+03  1.28029E+03 -1.97449E+03 -1.06240E+03 -9.57174E+02 -2.67924E+03  5.37434E+02 -2.42042E+03
  1.12732E+03 -1.16539E+03  1.97652E+03  7.62923E+02  1.98849E+03  2.57072E+02  3.97672E+02  1.48336E+03
 -7.70691E+02  5.20043E+02 -1.55672E+03 -5.26908E+02  7.91890E+02 -1.88696E+03  2.23463E+03 -1.36135E+03
  2.51277E+03  5.31765E+00  3.74997E+03  1.63345E+03  1.45854E+03  2.47800E+03 -5.03738E+02  3.08511E+03
 -2.37590E+03  8.26358E+02 -2.50898E+03 -6.21295E+02 -1.69882E+03 -2.12465E+03  6.70133E+02 -1.43290E+03
  2.81569E+03 -1.04116E+03  1.89200E+03  1.01229E+03  1.56639E+02  1.95617E+03  1.59389E+02  1.15861E+03
 -2.73995E+02  1.36494E+03 -7.52186E+02  4.98733E+02  2.21100E+02 -2.41617E+02 -1.13072E+03  9.69020E+02
 -1.03180E+03  1.02373E+03 -3.05366E+03  1.13646E+03 -2.74539E+03 -4.39287E+02 -3.61879E+03 -1.42393E+03
 -2.28390E+03 -3.90786E+03  4.00436E+02 -5.21549E+03  2.04030E+03 -3.73680E+03  4.93192E+03 -1.03685E+03
  3.74377E+03 -2.07943E+02  1.86124E+03  2.91562E+03 -4.22274E+02  2.88226E+03 -1.04491E+03  2.16601E+03
 -1.80271E+03  1.15264E+03 -8.31298E+02 -7.08124E+02 -6.97206E+02  4.88824E+02 -9.57439E+02  2.22906E+02
 -1.62328E+03 -6.23960E+02 -1.15201E+03  1.43744E+02  1.71790E+01 -7.78497E+02 -2.71762E+02 -1.46346E+03
  1.49788E+03 -5.99879E+02  1.37259E+03  2.09197E+02  1.81543E+03  1.26940E+03  3.16232E+02  2.32720E+03
 -1.95510E+03  3.62200E+03 -2.07483E+03  1.80334E+03 -2.87807E+03 -2.19953E+02 -2.16654E+03 -2.21404E+03
 -9.51417E+02 -2.30735E+03  5.84621E+02 -1.76398E+03  1.12502E+03 -1.59450E+03  1.03820E+03  2.41569E+02
  1.18800E+03  5.78667E+02  3.02667E+02  1.37162E+03 -1.21712E+03  5.84324E+02  1.27872E+02 -1.25604E+02
  7.74325E+02 -4.58165E+02  9.91405E+02  1.03413E+02  4.86132E+02  9.91166E+02  1.14913E+03  1.26941E+03
 -8.39682E+02  1.15090E+03 -9.35017E+02 -3.45872E+02 -1.32835E+03 -1.13163E+03  3.66792E+02 -1.97825E+03
  7.57060E+02 -1.73297E+03  1.28263E+03  1.12642E+02  2.26581E+03 -6.21720E+02  8.84362E+02  1.57444E+03
  6.13241E+02  1.32524E+03 -8.99592E+01  1.47965E+03 -1.28172E+03  8.24169E+02 -7.97934E+02 -3.63927E+01
 -6.50807E+02  6.58886E+02 -5.22403E+02  7.73410E+01 -1.06563E+03 -2.43897E+02 -1.44355E+03 -2.17826E+02
 -1.14473E+03 -2.89369E+02 -1.33850E+03 -1.35102E+03  1.09201E+03 -2.44602E+03  1.20362E+03 -1.21102E+01
  1.19225E+03  5.85012E+02 -8.83160E+01  3.91147E+02 -6.52630E+01  1.52315E+03 -1.03764E+03  1.38564E+03
