 $NMID ID='MM_0lb_SNR400_8hz_g55_35.RAW', FMTDAT='(8E13.5)'
 TRAMP=1., VOLUME=1. $END
  3.09436E+05  4.03965E+02  3.37683E+05  2.51252E+05  8.47484E+04  3.38600E+05 -1.32418E+05  2.52506E+05
 -1.90527E+05  8.41565E+04 -1.13467E+05 -3.23348E+04  2.52793E+02 -4.99584E+04  5.33050E+04 -1.39315E+03
  3.57460E+04  5.24785E+04 -1.68250E+04  7.57866E+04 -6.10137E+04  6.53549E+04 -8.61073E+04  3.22422E+04
 -8.26257E+04 -1.14939E+04 -5.79375E+04 -5.22439E+04 -1.46900E+04 -7.19306E+04  2.85150E+04 -4.70302E+04
  4.16845E+04  3.68403E+03  1.63972E+04  4.87372E+04 -3.42740E+04  4.85916E+04 -6.83299E+04  7.32440E+02
 -5.51221E+04 -5.80731E+04 -7.60293E+03 -7.97999E+04  3.50106E+04 -5.79044E+04  5.00961E+04 -1.85693E+04
  4.56865E+04  1.02169E+04  3.27917E+04  2.69631E+04  1.69752E+04  3.07157E+04 -5.76607E+03  2.77349E+04
 -2.21333E+04  1.13314E+04 -1.81069E+04 -5.17430E+03  7.15217E+03 -7.70182E+03  2.33259E+04  1.46136E+04
  7.02307E+03  3.82440E+04 -3.43120E+04  3.81967E+04 -6.69457E+04  2.02737E+03 -6.02290E+04 -4.49745E+04
 -1.20464E+04 -6.65850E+04  4.24388E+04 -4.74906E+04  6.21069E+04 -2.61509E+03  3.74854E+04  3.51151E+04
 -5.38867E+03  4.09632E+04 -3.21587E+04  1.89537E+04 -3.40983E+04 -4.15622E+03 -2.02094E+04 -1.21568E+04
 -9.79626E+03 -1.54744E+04 -1.18539E+02 -1.94553E+04  8.59747E+03 -2.41239E+04  1.59856E+04 -1.19052E+04
  9.78948E+03  5.85431E+03 -1.14446E+04  1.25411E+04 -2.42655E+04 -7.46233E+03 -8.46268E+03 -3.89359E+04
  2.55712E+04 -4.73699E+04  5.35135E+04 -2.17670E+04  4.97737E+04  2.16960E+04  1.78267E+04  4.81731E+04
 -1.67096E+04  3.77606E+04 -2.79136E+04  2.92106E+03 -1.26727E+04 -2.97401E+04  2.20294E+04 -3.73067E+04
  4.54809E+04 -1.17919E+04  4.14202E+04  2.57326E+04  2.21810E+04  5.24532E+04 -8.59255E+03  5.75646E+04
 -3.63596E+04  3.92372E+04 -4.93675E+04  1.19182E+04 -4.98671E+04 -1.92640E+04 -2.67743E+04 -4.36415E+04
  8.48629E+03 -4.38455E+04  3.52409E+04 -1.79015E+04  3.31573E+04  1.13396E+04  5.60709E+03  2.19896E+04
 -1.36083E+04  1.02744E+04 -1.04873E+04 -8.18027E+03  5.57747E+03 -1.18254E+04  1.89127E+04  4.52625E+03
  1.52483E+04  2.32725E+04 -4.27489E+03  2.81498E+04 -2.42238E+04  1.44737E+04 -3.26350E+04 -2.28056E+03
 -2.74107E+04 -1.86725E+04 -1.26311E+04 -2.64811E+04  4.83509E+03 -2.69460E+04  1.98833E+04 -2.40660E+04
  3.47917E+04 -1.45293E+04  3.96249E+04  5.67674E+03  2.88033E+04  2.60159E+04  4.69320E+03  4.30264E+04
 -1.99760E+04  3.50453E+04 -3.13879E+04  1.20225E+04 -2.26031E+04 -9.15204E+03 -4.61634E+03 -1.25858E+04
  1.39683E+03 -9.41872E+02 -8.73337E+03  8.33225E+03 -2.13998E+04  5.21384E+03 -2.10738E+04 -1.05051E+04
 -1.23601E+04 -2.42032E+04  6.36296E+03 -2.94577E+04  1.90600E+04 -2.08418E+04  2.44123E+04 -2.29501E+03
  1.58995E+04  1.77880E+04 -1.36464E+03  2.45792E+04 -1.78976E+04  1.33174E+04 -2.55841E+04 -5.44909E+03
 -1.81527E+04 -2.18729E+04 -1.91269E+03 -3.04339E+04  1.29273E+04 -2.49068E+04  2.49103E+04 -1.30766E+04
  2.37076E+04 -1.08778E+02  1.65449E+04  5.46009E+03  9.40944E+03  1.43151E+03  1.23067E+04 -2.14708E+03
  2.40446E+04  2.40568E+03  2.74109E+04  1.93507E+04  1.85373E+04  3.98319E+04 -2.49166E+03  4.73499E+04
 -2.71019E+04  4.00411E+04 -4.54523E+04  1.97071E+04 -4.79970E+04 -4.17747E+03 -3.90669E+04 -2.88844E+04
 -1.42534E+04 -4.00018E+04  1.43244E+04 -3.52281E+04  3.00060E+04 -1.60073E+04  2.52618E+04  8.27892E+03
  8.53498E+03  1.95805E+04 -1.17987E+04  1.69918E+04 -2.15113E+04  2.74915E+03 -1.71828E+04 -1.45539E+04
  1.27414E+02 -2.04104E+04  1.10780E+04 -1.49059E+04  1.44675E+04 -1.53809E+03  4.28989E+03  9.85243E+03
 -9.51918E+03  4.93331E+03 -1.05823E+04 -7.14405E+03 -2.37218E+03 -2.08757E+04  1.32455E+04 -2.20601E+04
  2.50187E+04 -1.22479E+04  2.84584E+04  3.33684E+03  2.57828E+04  2.08953E+04  1.20562E+04  3.28970E+04
 -5.92152E+03  3.37324E+04 -2.27761E+04  2.09402E+04 -2.44907E+04  5.27293E+03 -1.68090E+04 -6.03690E+03
 -6.67247E+03 -8.99621E+03 -1.04321E+03  9.01876E+02 -3.35432E+03  3.65960E+03 -7.72273E+03  6.22224E+03
 -1.49170E+04 -3.69768E+02 -1.55284E+04 -1.29385E+04 -6.39507E+03 -2.08430E+04  6.93951E+03 -1.69435E+04
  1.35876E+04 -7.40537E+03  9.60982E+03  4.60640E+03 -6.12130E+02  7.70118E+03 -9.85927E+03  4.89436E+02
 -8.59526E+03 -1.12829E+04 -1.44132E+03 -1.67607E+04  1.00437E+04 -1.77643E+04  2.22371E+04 -1.04777E+04
  2.55983E+04  2.56066E+03  1.84433E+04  1.59841E+04  3.41361E+03  2.04481E+04 -9.80186E+03  1.76085E+04
 -1.31221E+04  4.45370E+03 -7.28145E+03 -3.50245E+03  2.21860E+03 -4.16134E+03  8.19458E+03 -7.34572E+01
  8.26282E+03  7.73285E+03  2.05107E+03  1.43596E+04 -1.04886E+04  1.39994E+04 -1.75098E+04  3.39939E+03
 -1.23801E+04 -9.02374E+03  2.49787E+01 -1.45264E+04  9.94846E+03 -7.63320E+03  1.06500E+04  3.13664E+03
  2.52681E+03  1.10298E+04 -8.80486E+03  1.32304E+04 -1.55498E+04  4.79148E+03 -1.58374E+04 -5.31433E+03
 -9.26850E+03 -1.80374E+04  4.39246E+03 -2.00928E+04  1.85494E+04 -1.27250E+04  1.99267E+04  3.54045E+03
  1.12556E+04  1.43130E+04 -3.00600E+03  1.71192E+04 -1.38195E+04  9.49357E+03 -1.51546E+04 -1.34662E+03
 -1.18980E+04 -1.11553E+04 -1.81181E+03 -1.39118E+04  7.17398E+03 -1.10702E+04  8.41229E+03 -2.83453E+03
  4.69894E+03  2.08480E+03 -6.67749E+02  2.35868E+03 -5.69707E+02 -3.72094E+03  3.79674E+03 -8.46877E+03
  1.32853E+04 -6.04698E+03  1.77616E+04  1.87377E+03  1.86132E+04  1.31268E+04  1.18703E+04  2.43019E+04
 -5.75369E+03  2.73999E+04 -2.19687E+04  2.02558E+04 -2.85641E+04  3.69384E+03 -2.28997E+04 -1.12098E+04
 -1.21208E+04 -1.91181E+04 -6.47935E+02 -1.74667E+04  6.06211E+03 -9.54897E+03  6.88304E+03 -5.84575E+03
  4.59995E+03 -3.10970E+03  4.79031E+03 -4.62690E+03  6.53975E+03 -4.75124E+03  9.12053E+03 -1.80478E+03
  1.22306E+04  1.62601E+03  6.18513E+03  1.15013E+04 -2.50875E+03  1.35668E+04 -1.36869E+04  9.89768E+03
 -1.65262E+04 -1.59377E+03 -1.10977E+04 -1.20201E+04 -1.35406E+03 -1.78284E+04  9.73664E+03 -1.75982E+04
  1.89257E+04 -9.35138E+03  2.18725E+04  3.09081E+03  1.62881E+04  1.66164E+04  2.61630E+03  2.10051E+04
 -8.80651E+03  1.70287E+04 -1.20707E+04  5.48421E+03 -8.03565E+03 -1.49475E+03 -3.98675E+03 -2.96939E+03
 -1.07278E+03 -1.23750E+03 -2.96741E+03  2.29289E+03 -6.55444E+03  2.41628E+03 -1.15485E+04 -1.89415E+03
 -9.12927E+03 -1.12013E+04 -3.49657E+02 -1.70361E+04  1.04153E+04 -1.58020E+04  1.66173E+04 -4.50912E+03
  1.63493E+04  7.90731E+03  8.05769E+03  1.53968E+04 -3.45922E+03  1.76064E+04 -1.29846E+04  1.09887E+04
 -1.63313E+04  2.88334E+02 -1.20483E+04 -1.10604E+04 -1.32023E+03 -1.41436E+04  7.92560E+03 -1.00340E+04
  1.10924E+04 -3.90040E+03  8.44230E+03  3.38447E+03  2.87030E+03  4.54182E+03  1.02802E+03  2.26536E+03
  2.19871E+03  3.11465E+02  4.61280E+03  2.44043E+03  5.22940E+03  5.56587E+03  3.95219E+03  8.51596E+03
 -3.07762E+03  1.34029E+04 -1.32351E+04  1.32687E+04 -1.79115E+04  3.74172E+03 -1.88391E+04 -7.83753E+03
 -8.45445E+03 -1.78623E+04  3.09690E+03 -1.90377E+04  1.03786E+04 -1.25335E+04  1.47062E+04 -3.98448E+03
  1.02050E+04  6.98451E+03  2.86966E+03  1.13933E+04 -5.05706E+03  6.92333E+03 -7.29747E+03 -1.17968E+03
 -3.33296E+03 -7.66991E+03  4.49214E+03 -7.90328E+03  7.45862E+03 -4.13433E+03  7.27814E+03  1.73497E+03
  4.89629E+03  3.02849E+03  1.52229E+03  3.59893E+03 -7.34497E+02  3.12854E+03  1.92606E+03 -6.35841E+02
  2.79562E+03 -1.25784E+03  6.69397E+03  2.96704E+03  5.24549E+03  9.50272E+03 -1.78576E+03  1.30608E+04
 -8.94273E+03  9.18330E+03 -1.15540E+04  2.12204E+03 -9.52734E+03 -5.13697E+03 -3.89792E+03 -6.68221E+03
  8.36544E+02 -7.69008E+03  4.50286E+03 -3.07475E+03  3.99741E+03  4.24364E+03 -1.78227E+03  5.45960E+03
 -6.87934E+03  4.08571E+03 -9.84230E+03 -4.21642E+03 -5.25289E+03 -9.90196E+03  1.59332E+03 -9.66813E+03
  5.95505E+03 -5.83685E+03  7.51651E+03 -4.21000E+02  6.33311E+03  2.88102E+03  4.82000E+02  5.36305E+03
 -3.28535E+03  1.61123E+03 -4.34745E+03 -3.71894E+03  1.26175E+03 -7.71198E+03  9.75096E+03 -6.72711E+03
  1.21980E+04  9.86694E+02  1.11687E+04  8.07797E+03  2.94484E+03  1.13781E+04 -4.08064E+03  1.12137E+04
 -1.01621E+04  5.97422E+03 -1.01605E+04 -1.34206E+03 -6.04492E+03 -8.04714E+03  1.19038E+03 -7.72652E+03
  8.08856E+03 -3.94122E+03  6.98386E+03  3.31349E+03  2.41741E+03  6.50156E+03 -8.38275E+02  6.10725E+03
 -3.95552E+03  3.73891E+03 -2.82861E+03  5.73250E+02 -8.27917E+02  8.57053E+02 -1.89341E+03  3.07883E+03
 -3.89596E+03  5.92510E+03 -8.53455E+03  4.62984E+03 -1.25165E+04  6.19052E+02 -1.36203E+04 -7.71460E+03
 -7.49822E+03 -1.74420E+04  3.03360E+03 -1.83536E+04  1.14796E+04 -1.53542E+04  1.74494E+04 -5.85555E+03
  1.63556E+04  2.62546E+03  1.02632E+04  1.15003E+04  1.35831E+03  1.28339E+04 -4.69882E+03  1.00816E+04
 -7.48960E+03  3.76295E+03 -4.99609E+03 -1.35715E+03 -1.32709E+03 -6.85651E+02 -1.32991E+03 -3.68768E+02
 -1.82652E+03  1.25517E+03 -2.61122E+03 -9.17059E+02 -1.39649E+03 -2.85529E+03  1.39726E+02 -5.77403E+03
  5.70977E+03 -4.33252E+03  8.66127E+03  3.04703E+02  1.02206E+04  6.04029E+03  2.60324E+03  1.28298E+04
 -6.35969E+03  1.54208E+04 -1.36851E+04  8.47589E+03 -1.55711E+04 -9.85404E+02 -1.26810E+04 -9.89621E+03
 -4.76951E+03 -1.27208E+04  3.86570E+03 -1.28880E+04  7.71880E+03 -7.74423E+03  8.60562E+03  1.91228E+02
  4.76577E+03  4.67147E+03 -4.80547E+02  3.86971E+03 -2.92546E+03 -7.52185E+02  5.54063E+01 -2.89595E+03
  4.67222E+03 -1.57515E+03  5.41414E+03  1.45321E+03  2.81961E+03  4.66259E+03 -3.14012E+02  7.07586E+03
 -5.52163E+03  5.62112E+03 -9.35644E+03  5.71476E+02 -8.60918E+03 -5.98969E+03 -1.49019E+03 -1.13262E+04
  6.47756E+03 -8.98810E+03  1.06343E+04 -2.63707E+03  1.01637E+04  2.91122E+03  6.01757E+03  9.05104E+03
  1.88283E+02  9.37477E+03 -3.72400E+03  6.58174E+03 -6.00846E+03  4.50083E+03 -4.01680E+03  8.13614E+02
 -2.43722E+03  3.61131E+02 -2.56235E+03  1.17299E+03 -4.82150E+03  1.03958E+03 -6.28369E+03 -1.76187E+03
 -6.73132E+03 -4.72745E+03 -1.59795E+03 -9.36827E+03  3.51239E+03 -9.59508E+03  7.93277E+03 -5.05011E+03
  9.20307E+03  5.41328E+02  3.22499E+03  6.64597E+03 -8.58816E+01  9.04787E+03 -6.94077E+03  6.46494E+03
