 $NMID ID='MM_0lb_SNR400_16hz_g60_81.RAW', FMTDAT='(8E13.5)'
 TRAMP=1., VOLUME=1. $END
  3.09859E+05  9.34688E+02  3.37730E+05  2.50115E+05  8.49845E+04  3.37981E+05 -1.32482E+05  2.51338E+05
 -1.89824E+05  8.25635E+04 -1.11951E+05 -3.25463E+04  1.02282E+03 -4.98261E+04  5.39154E+04 -4.00790E+02
  3.50834E+04  5.25194E+04 -1.70682E+04  7.54237E+04 -6.06943E+04  6.31819E+04 -8.39715E+04  3.26511E+04
 -8.15827E+04 -1.19485E+04 -5.78732E+04 -5.16055E+04 -1.49715E+04 -7.03340E+04  2.70698E+04 -4.64150E+04
  4.00508E+04  3.64009E+03  1.59765E+04  4.76490E+04 -3.42615E+04  4.74916E+04 -6.67067E+04 -2.90858E+02
 -5.35589E+04 -5.64854E+04 -6.71610E+03 -7.73547E+04  3.35751E+04 -5.51611E+04  4.81286E+04 -1.71669E+04
  4.34278E+04  1.17433E+04  3.21596E+04  2.53171E+04  1.59271E+04  2.93985E+04 -5.20459E+03  2.78205E+04
 -2.22922E+04  1.23504E+04 -1.86935E+04 -4.70403E+03  5.69626E+03 -7.35884E+03  2.26319E+04  1.22872E+04
  7.53284E+03  3.48444E+04 -3.21765E+04  3.52120E+04 -6.39190E+04  1.93916E+03 -5.68643E+04 -4.29402E+04
 -1.23099E+04 -6.37662E+04  3.97286E+04 -4.54377E+04  5.85722E+04 -2.10067E+03  3.42468E+04  3.23566E+04
 -5.86028E+03  3.66671E+04 -2.99973E+04  1.56380E+04 -3.08042E+04 -4.05401E+03 -1.63960E+04 -1.10241E+04
 -8.79691E+03 -1.30885E+04 -3.12034E+02 -1.87484E+04  7.09038E+03 -2.35707E+04  1.54284E+04 -1.33828E+04
  1.14073E+04  5.37815E+03 -8.09975E+03  1.31748E+04 -2.12171E+04 -4.87294E+03 -8.46768E+03 -3.36599E+04
  2.20256E+04 -4.35493E+04  4.84256E+04 -1.95589E+04  4.55323E+04  2.02597E+04  1.57162E+04  4.44317E+04
 -1.61480E+04  3.31599E+04 -2.58677E+04  1.79000E+03 -9.94225E+03 -2.74450E+04  2.09445E+04 -3.42461E+04
  4.05297E+04 -9.20911E+03  3.56736E+04  2.37178E+04  1.85949E+04  4.68495E+04 -8.03801E+03  4.98331E+04
 -3.11115E+04  3.39752E+04 -4.19454E+04  9.78063E+03 -4.27334E+04 -1.71023E+04 -2.32308E+04 -3.82666E+04
  6.97585E+03 -3.77107E+04  3.17631E+04 -1.48419E+04  2.88411E+04  1.09015E+04  3.78199E+03  1.92520E+04
 -1.33060E+04  8.43786E+03 -1.06849E+04 -7.33947E+03  5.47619E+03 -1.03343E+04  1.76841E+04  6.12523E+03
  1.33212E+04  2.21123E+04 -6.21593E+03  2.49980E+04 -2.22945E+04  1.11307E+04 -2.82816E+04 -5.17876E+03
 -2.06422E+04 -1.76380E+04 -7.79539E+03 -1.94166E+04  3.99344E+03 -2.00712E+04  1.50408E+04 -1.79330E+04
  2.56797E+04 -1.25804E+04  3.19641E+04  2.61985E+03  2.33735E+04  1.93612E+04  4.28516E+03  3.57623E+04
 -1.69887E+04  2.99709E+04 -2.74038E+04  1.03828E+04 -2.11563E+04 -9.81357E+03 -4.47434E+03 -1.34097E+04
  1.61957E+03 -3.48930E+03 -4.37780E+03  6.30287E+03 -1.52992E+04  5.20674E+03 -1.64405E+04 -7.53143E+03
 -9.69735E+03 -1.85081E+04  5.40970E+03 -2.30092E+04  1.52036E+04 -1.63873E+04  1.79174E+04 -1.60019E+03
  1.12670E+04  1.26993E+04 -4.87956E+02  1.88655E+04 -1.29116E+04  1.08537E+04 -1.87261E+04 -4.07402E+03
 -1.38516E+04 -1.69423E+04 -1.87472E+03 -2.25434E+04  1.07723E+04 -1.83257E+04  1.90920E+04 -7.99443E+03
  1.79278E+04  5.10766E+00  1.25007E+04  3.95750E+03  7.11238E+03  1.01042E+03  9.57836E+03 -1.47288E+03
  1.67044E+04  3.03341E+03  1.81875E+04  1.49147E+04  1.22594E+04  2.98107E+04 -2.87900E+03  3.30156E+04
 -1.94063E+04  2.60931E+04 -3.09048E+04  1.30381E+04 -3.27932E+04 -2.27165E+03 -2.69418E+04 -1.91789E+04
 -1.20452E+04 -2.69094E+04  8.98074E+03 -2.41373E+04  2.12859E+04 -1.23763E+04  1.81663E+04  5.63417E+03
  6.85154E+03  1.39967E+04 -8.44947E+03  1.22552E+04 -1.58781E+04  2.58675E+03 -1.19263E+04 -9.43358E+03
 -4.51002E+02 -1.47038E+04  7.34028E+03 -1.13663E+04  9.94141E+03 -1.22433E+03  1.95939E+03  6.13056E+03
 -7.10241E+03  2.39820E+03 -5.72205E+03 -5.44291E+03 -2.65615E+01 -1.32302E+04  9.27663E+03 -1.35483E+04
  1.57760E+04 -6.54453E+03  1.71130E+04  2.81393E+03  1.46489E+04  1.16984E+04  7.16902E+03  1.96285E+04
 -3.55091E+03  2.14674E+04 -1.35077E+04  1.32061E+04 -1.55202E+04  3.14714E+03 -1.05861E+04 -3.41561E+03
 -5.40672E+03 -4.26940E+03 -2.73110E+02  1.18008E+03 -2.77544E+03  2.53898E+03 -5.27487E+03  4.22885E+03
 -1.01964E+04 -4.63048E+02 -1.07958E+04 -8.49307E+03 -4.41145E+03 -1.40796E+04  4.27413E+03 -1.13347E+04
  8.06340E+03 -5.04976E+03  6.55571E+03  2.84357E+03  5.72512E+02  4.17024E+03 -4.95531E+03 -5.02541E+02
 -4.72125E+03 -6.64840E+03 -5.18095E+02 -9.70517E+03  5.70348E+03 -1.03284E+04  1.33381E+04 -5.10305E+03
  1.50824E+04  3.90065E+02  1.16436E+04  8.74175E+03  2.13073E+03  1.15954E+04 -6.28914E+03  1.05108E+04
 -8.79766E+03  3.22727E+03 -4.70963E+03 -2.36774E+03  1.17367E+03 -2.82035E+03  5.61335E+03 -8.79644E+02
  5.39916E+03  3.97039E+03  1.44442E+03  8.06954E+03 -5.47854E+03  8.54245E+03 -9.51418E+03  2.04090E+03
 -6.43459E+03 -5.08985E+03  7.56299E+02 -8.40055E+03  5.88930E+03 -4.19648E+03  4.98146E+03  1.60762E+03
  4.74459E+02  5.78811E+03 -4.75755E+03  6.97072E+03 -7.15934E+03  2.93152E+03 -7.87203E+03 -2.06784E+03
 -4.61730E+03 -8.28121E+03  1.88751E+03 -1.00775E+04  9.34108E+03 -6.35813E+03  9.58223E+03  1.79260E+03
  5.86853E+03  7.32951E+03 -5.24570E+02  9.45337E+03 -6.53830E+03  5.74417E+03 -8.26207E+03 -5.99495E+02
 -6.75527E+03 -6.86813E+03 -1.35782E+03 -6.65981E+03  3.88650E+03 -6.12885E+03  4.10567E+03 -3.06080E+03
  3.50342E+03  8.49802E+02 -3.33743E+02  1.44698E+03  9.83295E+01 -1.00334E+03  8.51382E+02 -2.89122E+03
  6.25199E+03 -1.83736E+03  8.22632E+03  4.17442E+02  8.02436E+03  5.33923E+03  7.06935E+03  1.04891E+04
 -2.25942E+03  1.25607E+04 -1.06006E+04  9.86298E+03 -1.33100E+04  1.36013E+03 -1.03337E+04 -4.17662E+03
 -5.72937E+03 -9.25037E+03 -1.35294E+02 -7.35496E+03  2.73748E+03 -3.98967E+03  2.72319E+03 -2.62464E+03
  1.41971E+03 -1.68428E+03  2.41065E+03 -2.74700E+03  3.84720E+03 -1.97183E+03  4.11646E+03 -1.77915E+02
  6.13720E+03  1.04530E+03  2.11407E+03  4.96440E+03 -1.43759E+03  5.41990E+03 -6.00001E+03  3.80793E+03
 -7.25817E+03 -8.16018E+02 -3.89309E+03 -4.63876E+03 -3.01773E+02 -7.38359E+03  5.06765E+03 -7.54343E+03
  7.84642E+03 -5.04495E+03  9.83260E+03  8.26808E+02  7.04483E+03  5.86242E+03  1.60805E+03  8.40725E+03
 -3.26632E+03  7.53236E+03 -3.97104E+03  2.82184E+03 -2.71106E+03 -9.48744E+02 -8.12443E+02 -7.12208E+02
 -1.13632E+03 -3.10641E+01 -8.87205E+02  1.90593E+03 -2.68094E+03  1.42803E+03 -5.34233E+03  1.06864E+01
 -3.04186E+03 -5.35553E+03  2.57243E+02 -6.96538E+03  4.35098E+03 -6.16305E+03  6.07439E+03 -1.10972E+03
  6.46812E+03  3.62006E+03  2.79625E+03  5.40339E+03 -9.51510E+02  6.55789E+03 -4.13298E+03  4.05504E+03
 -6.31095E+03  3.61647E+02 -4.55550E+03 -3.55617E+03 -3.35502E+02 -5.16825E+03  1.80873E+03 -3.83479E+03
  4.01971E+03 -2.05328E+03  2.42987E+03  5.41597E+02  1.35173E+03  1.94442E+03  1.32391E+03  6.83092E+02
  2.23412E+03  9.63612E+02  1.64952E+03  1.00375E+03  1.66982E+03  2.94549E+03  1.63535E+03  2.38082E+03
 -1.43768E+03  4.50970E+03 -3.58549E+03  5.62514E+03 -5.92441E+03  8.08676E+02 -6.27721E+03 -1.84586E+03
 -2.96795E+03 -6.22390E+03  1.21285E+03 -6.67029E+03  3.49613E+03 -4.28047E+03  4.72555E+03 -1.09196E+03
  3.41195E+03  2.28565E+03  1.33293E+03  3.01711E+03 -1.03058E+03  2.06033E+03 -1.89086E+03 -4.03266E+02
 -1.19233E+03 -2.73412E+03  1.43375E+03 -2.55317E+03  1.84510E+03 -1.29363E+03  2.69385E+03  8.45821E+02
  1.57443E+03  1.39415E+03  7.70717E+02 -5.94059E+02 -1.33487E+02  9.59222E+02  1.68070E+03 -2.50140E+02
  5.63262E+02 -8.45556E+02  2.50559E+03  1.04300E+03  6.62767E+02  3.37592E+03 -4.14494E+02  3.95610E+03
 -2.16514E+03  2.30756E+03 -2.62843E+03  1.32029E+03 -3.39523E+03 -1.18666E+03 -5.30878E+02 -1.61447E+03
  3.21678E+02 -2.62087E+03  1.72638E+03 -1.36527E+03  6.76855E+02  1.58882E+03 -9.26425E+02  1.77388E+03
 -1.40975E+03  1.10630E+03 -2.04813E+03 -1.63729E+03 -1.23994E+03 -2.55945E+03  3.60995E+01 -2.69612E+03
  1.65304E+03 -6.56629E+02  1.13652E+03 -2.42453E+01  1.98875E+03 -9.00311E+01  6.20486E+02  1.50322E+03
 -8.06834E+02  6.85398E+02 -1.29482E+03 -3.64588E+02  6.86687E+02 -1.85403E+03  2.35947E+03 -1.72656E+03
  2.86021E+03  6.68328E+02  4.43099E+03  1.56768E+03  7.34418E+02  3.32261E+03 -7.90246E+02  3.16492E+03
 -2.24450E+03  5.28781E+02 -2.48235E+03 -5.18561E+01 -7.61353E+02 -1.86065E+03  3.48010E+02 -1.42162E+03
  2.33613E+03 -9.50544E+02  1.34518E+03  9.49538E+02  9.22364E+02  1.90980E+03  1.12211E+02  1.65990E+03
 -1.92242E+02  1.08106E+03 -2.94817E+02  1.86233E+02  1.96105E+02  1.39175E+02 -8.77032E+02  1.01025E+03
 -9.59337E+02  1.27877E+03 -3.17089E+03  7.82599E+02 -3.28978E+03 -9.68131E+01 -3.75505E+03 -2.05466E+03
 -2.01335E+03 -3.63753E+03  8.93131E+02 -4.49747E+03  2.56498E+03 -3.88930E+03  4.21702E+03 -1.51097E+03
  4.13075E+03 -4.08725E+02  2.36820E+03  1.92146E+03 -3.64450E+02  2.85472E+03 -6.35234E+02  2.48986E+03
 -1.50247E+03  1.78170E+03 -9.74087E+02 -5.43175E+02 -1.72149E+02  7.49225E+01 -9.52192E+02  6.47214E+01
 -1.22653E+03  5.16558E+02 -1.32364E+03 -9.19843E+00  3.93409E+01 -6.52528E+02 -6.94727E+02 -1.07402E+03
  2.28940E+03 -1.14922E+03  3.11045E+02  8.61069E+02  1.31902E+03  1.60760E+03 -5.90823E+02  2.42475E+03
 -1.46973E+03  3.12555E+03 -2.60425E+03  2.24968E+03 -3.28177E+03 -3.90033E+02 -2.20144E+03 -1.74603E+03
 -1.31749E+03 -2.20059E+03  8.96151E+02 -2.66093E+03  1.48097E+03 -5.49459E+02  8.20392E+02  3.12793E+02
  1.60454E+03  6.86331E+02  9.04445E+01  4.66286E+02 -3.35112E+01  3.26088E+02 -7.65048E+02 -2.27691E+02
  8.48389E+02  2.97254E+02  4.99595E+02  9.55583E+02  4.15843E+02  8.22186E+02  1.03002E+03  4.24110E+02
 -9.76832E+02  5.98711E+02 -1.10945E+03 -2.30957E+02 -1.74466E+03 -1.10520E+03  6.47441E+02 -2.35854E+03
  1.45484E+03 -1.94443E+03  1.14732E+03 -5.17222E+02  1.44827E+03 -8.58412E+02  1.40865E+03  1.53455E+03
  7.30549E+02  1.38539E+03 -4.09573E+02  1.20509E+03 -1.33860E+03  1.08346E+03 -5.29980E+02  7.23616E+02
  5.18332E+01 -6.76765E+01 -3.45174E+02  2.51711E+02 -1.12800E+03  7.79287E+01 -1.52066E+03 -1.13959E+03
 -1.50819E+03  4.72946E+02 -4.95738E+02 -1.48423E+03  7.22703E+02 -2.25070E+03  1.79943E+03 -6.33343E+02
  1.76057E+03  4.26972E+02  3.21699E+02  1.26947E+03  3.45059E+02  1.63132E+03 -5.82602E+02  9.79988E+02
