 $NMID ID='MM_0lb_SNR400_16hz_g60_35.RAW', FMTDAT='(8E13.5)'
 TRAMP=1., VOLUME=1. $END
  3.10051E+05 -1.99409E+02  3.37768E+05  2.50581E+05  8.46543E+04  3.38059E+05 -1.32451E+05  2.51106E+05
 -1.91024E+05  8.38992E+04 -1.11871E+05 -3.23438E+04  7.33283E+02 -4.98255E+04  5.41440E+04 -4.84358E+02
  3.48884E+04  5.26897E+04 -1.70902E+04  7.50811E+04 -6.06810E+04  6.39185E+04 -8.41622E+04  3.21514E+04
 -8.14947E+04 -1.20143E+04 -5.79043E+04 -5.17750E+04 -1.50510E+04 -6.92868E+04  2.74614E+04 -4.61563E+04
  4.04158E+04  3.80095E+03  1.59940E+04  4.79786E+04 -3.39612E+04  4.71966E+04 -6.65943E+04 -1.07929E+03
 -5.42841E+04 -5.65873E+04 -6.83139E+03 -7.68620E+04  3.38654E+04 -5.49621E+04  4.77895E+04 -1.68918E+04
  4.41490E+04  1.14453E+04  3.18515E+04  2.55136E+04  1.56446E+04  2.92027E+04 -4.39988E+03  2.71926E+04
 -2.18990E+04  1.27325E+04 -1.89696E+04 -5.03135E+03  6.08185E+03 -7.32776E+03  2.20557E+04  1.23048E+04
  7.34751E+03  3.51492E+04 -3.22430E+04  3.53681E+04 -6.33058E+04  2.49171E+03 -5.72344E+04 -4.28556E+04
 -1.19931E+04 -6.35297E+04  4.00876E+04 -4.55152E+04  5.88925E+04 -2.52776E+03  3.43009E+04  3.23172E+04
 -6.23091E+03  3.67033E+04 -3.03675E+04  1.62473E+04 -3.05974E+04 -4.22687E+03 -1.68267E+04 -1.10192E+04
 -8.32453E+03 -1.33855E+04 -1.15013E+03 -1.88226E+04  7.98029E+03 -2.31454E+04  1.56719E+04 -1.33226E+04
  1.16367E+04  5.12428E+03 -7.97435E+03  1.26619E+04 -2.12601E+04 -4.42426E+03 -8.02227E+03 -3.42636E+04
  2.32181E+04 -4.32586E+04  4.81863E+04 -1.95710E+04  4.42600E+04  1.99307E+04  1.59600E+04  4.43392E+04
 -1.63351E+04  3.31603E+04 -2.53058E+04  1.88330E+03 -9.88921E+03 -2.72276E+04  2.08918E+04 -3.39623E+04
  4.13317E+04 -8.78068E+03  3.49973E+04  2.34307E+04  1.79264E+04  4.63723E+04 -8.13520E+03  5.05304E+04
 -3.17142E+04  3.37355E+04 -4.20357E+04  9.67711E+03 -4.21278E+04 -1.69705E+04 -2.29104E+04 -3.76040E+04
  7.01752E+03 -3.68940E+04  3.11844E+04 -1.49604E+04  2.97930E+04  1.12821E+04  3.60315E+03  1.90574E+04
 -1.36283E+04  7.93920E+03 -1.10456E+04 -7.45616E+03  5.69134E+03 -1.02393E+04  1.76441E+04  6.09396E+03
  1.33886E+04  2.17063E+04 -5.94498E+03  2.55502E+04 -2.25944E+04  1.14446E+04 -2.79228E+04 -4.95980E+03
 -2.03911E+04 -1.76427E+04 -8.82279E+03 -2.00790E+04  3.70077E+03 -1.90678E+04  1.56999E+04 -1.79833E+04
  2.64456E+04 -1.22155E+04  3.26087E+04  2.19109E+03  2.38679E+04  1.97927E+04  4.55553E+03  3.56360E+04
 -1.79009E+04  3.04986E+04 -2.81110E+04  1.00312E+04 -2.12277E+04 -1.09459E+04 -4.10670E+03 -1.38801E+04
  1.79738E+03 -3.32537E+03 -4.36111E+03  6.52258E+03 -1.64092E+04  4.93000E+03 -1.57762E+04 -6.59446E+03
 -9.57533E+03 -1.90506E+04  4.97364E+03 -2.28497E+04  1.53221E+04 -1.61516E+04  1.80057E+04 -1.41430E+03
  1.13168E+04  1.32534E+04 -9.03545E+02  1.85474E+04 -1.30705E+04  1.06770E+04 -1.85308E+04 -4.43457E+03
 -1.33765E+04 -1.63315E+04 -1.86851E+03 -2.19383E+04  1.01394E+04 -1.86234E+04  1.91787E+04 -9.01281E+03
  1.78506E+04  2.36963E+02  1.27838E+04  4.78802E+03  6.72500E+03  8.99159E+02  9.18209E+03 -1.92972E+03
  1.72549E+04  3.45694E+03  1.93150E+04  1.52280E+04  1.23354E+04  2.95295E+04 -2.94095E+03  3.28057E+04
 -1.95925E+04  2.66906E+04 -3.07137E+04  1.29854E+04 -3.20401E+04 -2.54078E+03 -2.73557E+04 -1.80801E+04
 -1.18355E+04 -2.70615E+04  9.45706E+03 -2.42721E+04  2.07949E+04 -1.24715E+04  1.86565E+04  4.64213E+03
  7.03602E+03  1.31741E+04 -9.05959E+03  1.22619E+04 -1.55275E+04  3.19565E+03 -1.16156E+04 -1.01778E+04
 -1.02254E+02 -1.52852E+04  7.57189E+03 -1.11624E+04  1.00127E+04 -1.33870E+03  1.71195E+03  6.16079E+03
 -6.79124E+03  2.63727E+03 -5.61171E+03 -5.70712E+03  3.17530E+02 -1.24268E+04  8.85921E+03 -1.34231E+04
  1.57555E+04 -5.95070E+03  1.66518E+04  2.60394E+03  1.42770E+04  1.24383E+04  7.19950E+03  1.86437E+04
 -3.19258E+03  2.09684E+04 -1.31980E+04  1.31123E+04 -1.56333E+04  3.48383E+03 -1.10809E+04 -3.72864E+03
 -4.73896E+03 -4.09923E+03 -6.11322E+02  8.63583E+02 -2.78221E+03  2.67776E+03 -4.41428E+03  4.94083E+03
 -1.00605E+04 -6.48868E+02 -1.14627E+04 -8.14014E+03 -4.40285E+03 -1.39369E+04  4.06619E+03 -1.12719E+04
  8.53716E+03 -4.97904E+03  6.65667E+03  2.83940E+03 -1.32273E+02  3.45741E+03 -4.56381E+03 -2.37492E+01
 -4.60244E+03 -6.31865E+03 -7.72762E+02 -9.83921E+03  5.68831E+03 -1.06105E+04  1.30291E+04 -5.12294E+03
  1.57335E+04  9.83969E+02  1.16345E+04  8.14890E+03  2.38458E+03  1.17746E+04 -6.84081E+03  1.04797E+04
 -9.06432E+03  3.01419E+03 -4.75846E+03 -1.87177E+03  1.08937E+03 -3.13098E+03  5.87812E+03 -1.51860E+03
  5.17920E+03  4.21883E+03  7.03203E+02  7.87540E+03 -5.46976E+03  7.84050E+03 -1.00956E+04  1.83700E+03
 -6.65304E+03 -5.36184E+03  1.28193E+02 -9.19228E+03  5.41006E+03 -4.00498E+03  4.58782E+03  1.39590E+03
  8.30651E+02  5.16420E+03 -4.47421E+03  6.75547E+03 -7.89823E+03  3.04026E+03 -7.03729E+03 -2.16842E+03
 -4.24885E+03 -8.44586E+03  1.68813E+03 -9.64660E+03  8.23879E+03 -6.62641E+03  9.36591E+03  1.69115E+03
  6.08386E+03  7.23806E+03 -5.22350E+02  9.46143E+03 -7.15706E+03  5.06001E+03 -7.08643E+03 -4.46160E+02
 -6.85244E+03 -6.69878E+03 -8.27189E+02 -7.02467E+03  3.64866E+03 -6.01562E+03  4.23931E+03 -3.37364E+03
  2.94055E+03  7.58264E+02 -3.80521E+02  1.43296E+03  4.71777E+01 -1.64725E+03  1.07641E+03 -3.28161E+03
  5.94147E+03 -1.99908E+03  8.24848E+03  1.00941E+03  8.38195E+03  5.10185E+03  6.60802E+03  1.08811E+04
 -2.62575E+03  1.22240E+04 -1.04651E+04  9.23385E+03 -1.39261E+04  1.55189E+03 -1.11861E+04 -4.27765E+03
 -5.46208E+03 -9.07894E+03 -2.06332E+02 -7.27788E+03  2.85472E+03 -3.57197E+03  2.22587E+03 -3.37455E+03
  1.95778E+03 -2.18047E+03  2.99903E+03 -2.72408E+03  3.38876E+03 -2.28117E+03  4.80774E+03  3.36808E+02
  6.39997E+03  1.82613E+03  2.39807E+03  4.72847E+03 -1.27585E+03  5.34349E+03 -5.94230E+03  3.91901E+03
 -7.44991E+03 -9.24365E+02 -3.10974E+03 -5.27408E+03 -5.74634E+01 -7.19452E+03  4.43887E+03 -7.91210E+03
  8.10749E+03 -4.57824E+03  9.14555E+03  4.90496E+02  6.59249E+03  6.15858E+03  1.44856E+03  8.79929E+03
 -3.18758E+03  7.90425E+03 -4.39844E+03  2.63221E+03 -3.14411E+03 -9.22406E+02 -9.35765E+02 -5.35251E+02
 -1.21894E+03  3.27573E+01 -7.03323E+02  2.34960E+03 -3.69061E+03  1.28114E+03 -5.95394E+03 -8.29993E+02
 -2.71050E+03 -6.06555E+03  4.84721E+02 -7.09885E+03  3.99375E+03 -6.83848E+03  5.71620E+03 -1.40163E+03
  5.90597E+03  3.39935E+03  3.03469E+03  5.43037E+03 -8.77926E+02  6.43758E+03 -4.44972E+03  3.29672E+03
 -5.73511E+03  4.87067E+02 -4.65940E+03 -3.81431E+03 -8.86544E+01 -5.45370E+03  2.79230E+03 -3.39541E+03
  4.30379E+03 -9.18338E+02  2.37386E+03  6.93670E+02  8.56913E+02  1.64019E+03  1.32027E+03  7.17196E+02
  2.25043E+03  8.84085E+02  1.17104E+03  1.39926E+03  1.81737E+03  2.47108E+03  1.43400E+03  2.90598E+03
 -1.22470E+03  4.63700E+03 -3.83411E+03  5.44120E+03 -5.51494E+03  1.02972E+03 -6.28165E+03 -1.78644E+03
 -2.75508E+03 -5.88233E+03  8.80974E+02 -6.53476E+03  3.23692E+03 -3.80516E+03  4.53587E+03 -9.94792E+02
  4.07095E+03  2.29173E+03  4.80744E+02  3.72720E+03 -1.33248E+03  1.73976E+03 -1.93928E+03 -9.41412E+01
 -1.48638E+03 -2.78474E+03  1.68091E+03 -1.89534E+03  2.22054E+03 -1.04469E+03  2.44041E+03  6.01647E+02
  1.13313E+03  4.49857E+02  9.09474E+02  3.44004E+02  2.26018E+02  8.54634E+02  1.69322E+03 -3.98681E+01
  6.76379E+02 -8.78592E+02  2.59184E+03  1.34055E+03  6.81610E+02  3.29581E+03 -6.07031E+02  4.22245E+03
 -2.91463E+03  1.78133E+03 -3.25782E+03  8.11415E+02 -2.72558E+03 -8.38121E+02 -7.93592E+02 -1.57072E+03
  4.55542E+02 -1.99695E+03  1.42575E+03 -1.14681E+03  1.49453E+03  2.08519E+03 -2.67142E+02  1.38243E+03
 -1.78435E+03  9.07834E+02 -2.57293E+03 -1.34017E+03 -8.38233E+02 -3.05042E+03  8.66137E+02 -2.90119E+03
  1.68885E+03 -9.71876E+02  1.82441E+03 -2.90467E+02  2.52117E+03  4.44118E+02  1.94100E+02  2.32636E+03
 -7.82617E+02  5.26932E+01 -7.20574E+02 -3.32627E+02  1.32417E+03 -1.89204E+03  1.98122E+03 -1.32503E+03
  3.02822E+03  7.23946E+02  3.70650E+03  1.44933E+03  1.01437E+03  2.64153E+03 -8.17090E+02  2.46389E+03
 -2.62724E+03  9.58878E+02 -2.25417E+03 -9.09772E+02 -1.42790E+03 -2.62728E+03  3.76126E+02 -1.17964E+03
  1.77996E+03 -8.83574E+02  1.35469E+03  1.82025E+03  4.10564E+01  2.32250E+03 -9.58936E+01  1.18921E+03
 -9.77082E+02  1.29587E+03 -7.29745E+02  5.85316E+02 -5.78451E+02  3.72000E+02 -4.76956E+02  1.22335E+03
 -1.24166E+03  1.62581E+03 -2.22300E+03  1.00841E+03 -2.78082E+03  3.77702E+02 -3.53804E+03 -1.87701E+03
 -1.79657E+03 -3.34104E+03  6.99592E+02 -4.74191E+03  1.78205E+03 -3.78115E+03  3.40442E+03 -1.87369E+03
  4.05457E+03  3.49325E+02  2.07032E+03  2.50644E+03 -7.04227E+02  2.76109E+03 -1.80395E+03  2.40720E+03
 -1.25988E+03  8.94018E+02 -1.04070E+03 -9.28590E+02 -7.19216E+02 -6.70036E+01  1.63747E+02  2.01796E+02
 -6.84346E+02 -5.71975E+02 -1.03083E+03 -8.58619E+01  1.04484E+02 -2.74097E+02 -6.59387E+02 -1.71169E+03
  1.77076E+03 -5.69230E+02  1.08737E+03 -5.09402E+01  1.63669E+03  1.98765E+03  7.48326E+01  2.78493E+03
 -1.45692E+03  3.45351E+03 -2.46194E+03  1.91822E+03 -3.41376E+03 -4.70349E+02 -1.66643E+03 -1.87518E+03
 -1.71783E+03 -2.23196E+03  1.28174E+02 -2.38959E+03  1.98932E+03 -1.65425E+03  1.47601E+03 -1.27608E+02
  1.44569E+03  9.11276E+02 -9.18984E-01  6.49520E+02 -3.17535E+02  2.01951E+01  1.14911E+02 -4.47959E+02
  5.30707E+02  3.99081E+02  8.07918E+02  6.48646E+02  2.19409E+02  1.21452E+03  8.90840E+01  8.26026E+02
 -8.87300E+02  1.70087E+03 -1.38552E+03  1.62107E+02 -1.59962E+03 -1.30178E+03  9.76378E+01 -2.35184E+03
  8.96351E+02 -1.76236E+03  2.15624E+03 -3.27039E+02  1.52562E+03 -7.76797E+02  6.84290E+02  1.34713E+03
  9.75151E+02  8.13429E+02 -2.27576E+02  1.44532E+03 -1.26773E+03  9.65668E+02 -1.18473E+03  2.99166E+02
  7.82715E+01  1.10573E+02 -6.58163E+02  2.59557E+02 -9.21060E+02  8.58428E+02 -1.65281E+03 -5.14066E+02
 -2.07157E+03 -3.69983E+02 -1.47562E+02 -1.68049E+03  1.17984E+03 -2.00011E+03  1.20761E+03 -9.06246E+02
  1.52551E+03  5.28121E+02  7.41358E+02  5.91795E+02  2.13557E+02  1.46034E+03 -1.45161E+03  7.36792E+02
