 $NMID ID='MM_0lb_SNR400_17hz_g50_56.RAW', FMTDAT='(8E13.5)'
 TRAMP=1., VOLUME=1. $END
  3.10296E+05  2.60319E+02  3.37621E+05  2.51154E+05  8.46447E+04  3.37808E+05 -1.32227E+05  2.50375E+05
 -1.90366E+05  8.24021E+04 -1.11433E+05 -3.30925E+04  1.23568E+03 -5.02992E+04  5.38183E+04  2.29569E+02
  3.46004E+04  5.26705E+04 -1.71929E+04  7.51662E+04 -6.11625E+04  6.34871E+04 -8.36628E+04  3.18752E+04
 -7.97285E+04 -1.10468E+04 -5.63436E+04 -5.07249E+04 -1.52261E+04 -6.91132E+04  2.72513E+04 -4.52126E+04
  3.89501E+04  3.77060E+03  1.59814E+04  4.67264E+04 -3.41225E+04  4.65501E+04 -6.55872E+04 -9.81527E+02
 -5.29079E+04 -5.67739E+04 -6.35965E+03 -7.63400E+04  3.36585E+04 -5.37271E+04  4.73301E+04 -1.62365E+04
  4.24398E+04  1.10116E+04  3.13658E+04  2.48327E+04  1.60499E+04  2.85517E+04 -4.80839E+03  2.63865E+04
 -2.20602E+04  1.21763E+04 -1.90781E+04 -4.83733E+03  5.47301E+03 -7.67619E+03  2.16114E+04  1.18232E+04
  7.26678E+03  3.41878E+04 -3.06098E+04  3.42711E+04 -6.24046E+04  2.25271E+03 -5.65903E+04 -4.18615E+04
 -1.21184E+04 -6.24332E+04  3.91480E+04 -4.42289E+04  5.63665E+04 -1.95103E+03  3.29501E+04  3.17292E+04
 -5.99928E+03  3.43556E+04 -2.88096E+04  1.43094E+04 -2.89216E+04 -4.62253E+03 -1.52736E+04 -1.07923E+04
 -8.16611E+03 -1.21782E+04 -1.20359E+03 -1.73539E+04  7.35032E+03 -2.34844E+04  1.49914E+04 -1.37757E+04
  1.19640E+04  4.82861E+03 -6.86914E+03  1.32403E+04 -1.98912E+04 -3.38069E+03 -7.99016E+03 -3.20942E+04
  2.15097E+04 -4.14561E+04  4.67140E+04 -1.88133E+04  4.30582E+04  1.88410E+04  1.51922E+04  4.22038E+04
 -1.60272E+04  3.17839E+04 -2.38632E+04  1.02628E+03 -8.70859E+03 -2.67544E+04  2.08149E+04 -3.22454E+04
  3.91148E+04 -7.91638E+03  3.32584E+04  2.29499E+04  1.62093E+04  4.42592E+04 -7.64526E+03  4.71613E+04
 -2.96976E+04  3.13614E+04 -3.92596E+04  9.01394E+03 -4.00471E+04 -1.59024E+04 -2.16433E+04 -3.61472E+04
  7.02657E+03 -3.53622E+04  3.06304E+04 -1.34345E+04  2.80547E+04  1.07129E+04  3.42857E+03  1.80037E+04
 -1.33495E+04  7.47419E+03 -9.94754E+03 -7.68622E+03  5.43357E+03 -1.07062E+04  1.68577E+04  5.78528E+03
  1.27110E+04  2.21845E+04 -5.95778E+03  2.43326E+04 -2.18196E+04  1.00753E+04 -2.57203E+04 -5.24000E+03
 -1.81482E+04 -1.64577E+04 -6.83430E+03 -1.83334E+04  3.96064E+03 -1.65567E+04  1.37757E+04 -1.61749E+04
  2.37505E+04 -1.18692E+04  3.06167E+04  1.64175E+03  2.22948E+04  1.77161E+04  3.75667E+03  3.32594E+04
 -1.64333E+04  2.84672E+04 -2.70008E+04  9.98487E+03 -1.99891E+04 -1.01386E+04 -4.41777E+03 -1.42866E+04
  2.23238E+03 -4.18476E+03 -3.30714E+03  5.48059E+03 -1.37014E+04  5.16949E+03 -1.52975E+04 -6.43164E+03
 -9.35602E+03 -1.68800E+04  5.08797E+03 -2.06604E+04  1.34450E+04 -1.52557E+04  1.60075E+04 -1.46564E+03
  1.02843E+04  1.13360E+04 -9.54636E+02  1.71447E+04 -1.15655E+04  9.49806E+03 -1.66828E+04 -4.26747E+03
 -1.21478E+04 -1.51860E+04 -1.65115E+03 -2.03378E+04  9.52261E+03 -1.70472E+04  1.74374E+04 -8.15590E+03
  1.59982E+04  7.14844E+02  1.10267E+04  4.64265E+03  5.58047E+03  9.50594E+02  8.46469E+03 -9.65518E+02
  1.52921E+04  2.86898E+03  1.60964E+04  1.31506E+04  1.03296E+04  2.67373E+04 -3.39005E+03  2.96277E+04
 -1.72956E+04  2.24214E+04 -2.72365E+04  1.12585E+04 -2.81603E+04 -2.09009E+03 -2.42800E+04 -1.65548E+04
 -1.07459E+04 -2.31206E+04  7.65147E+03 -2.06172E+04  1.87208E+04 -1.16472E+04  1.65034E+04  3.82318E+03
  6.71855E+03  1.25930E+04 -7.55437E+03  1.12921E+04 -1.43212E+04  2.54556E+03 -1.13610E+04 -8.79798E+03
  3.32735E+01 -1.38737E+04  7.45740E+03 -1.02238E+04  8.63670E+03 -1.39309E+03  1.62000E+03  5.18857E+03
 -6.34439E+03  2.23059E+03 -5.17246E+03 -4.58995E+03  1.82534E+02 -1.13982E+04  9.18623E+03 -1.11556E+04
  1.46171E+04 -6.03557E+03  1.40137E+04  2.13476E+03  1.23610E+04  1.05064E+04  6.27616E+03  1.62493E+04
 -2.24048E+03  1.83427E+04 -1.13703E+04  1.08215E+04 -1.27116E+04  3.08629E+03 -9.04416E+03 -2.40512E+03
 -4.96127E+03 -3.98353E+03 -4.86222E+02  1.53785E+03 -1.85367E+03  2.36251E+03 -4.28028E+03  4.04433E+03
 -9.69564E+03 -7.19589E+02 -8.97332E+03 -7.67549E+03 -4.19824E+03 -1.24568E+04  4.05502E+03 -9.27971E+03
  7.63771E+03 -4.35782E+03  5.90966E+03  2.34436E+03  8.45832E+02  3.59505E+03 -4.11829E+03  1.80913E+01
 -4.13436E+03 -6.04774E+03 -7.89177E+02 -8.97455E+03  4.95797E+03 -8.81171E+03  1.10723E+04 -4.46219E+03
  1.31624E+04  9.16877E+02  1.01060E+04  7.15725E+03  2.06761E+03  1.00260E+04 -5.95266E+03  9.46515E+03
 -7.49138E+03  3.01784E+03 -3.61710E+03 -9.94001E+02  1.15080E+03 -1.87303E+03  5.38353E+03 -1.00313E+03
  4.15581E+03  3.74088E+03  8.18404E+02  6.61708E+03 -5.02635E+03  7.13689E+03 -9.11892E+03  1.94213E+03
 -5.77341E+03 -4.19807E+03 -9.36836E+01 -7.75984E+03  4.48818E+03 -3.99828E+03  4.34345E+03  1.10762E+03
  8.25619E+02  4.23516E+03 -5.05143E+03  5.56543E+03 -6.00721E+03  2.71614E+03 -5.59760E+03 -1.85316E+03
 -3.22862E+03 -6.84904E+03  1.54819E+03 -8.82357E+03  6.42627E+03 -5.45010E+03  7.47318E+03  1.23272E+03
  4.92499E+03  5.95695E+03  1.72237E+02  8.35656E+03 -5.96652E+03  4.47398E+03 -6.02013E+03 -5.38797E+02
 -6.59020E+03 -6.02631E+03 -1.31329E+03 -6.07542E+03  3.07865E+03 -5.09644E+03  3.13007E+03 -3.41899E+03
  2.87059E+03  6.87438E+02 -6.72466E+01  8.53674E+02  1.08599E+02 -1.01531E+03 -1.07656E+02 -2.61315E+03
  4.62451E+03 -1.44272E+03  6.64700E+03  6.00951E+02  6.53440E+03  4.23393E+03  5.79838E+03  8.54572E+03
 -1.48689E+03  1.01537E+04 -8.41149E+03  7.53247E+03 -1.16767E+04  2.05590E+03 -8.99967E+03 -3.45064E+03
 -5.41514E+03 -7.80022E+03 -2.61888E+02 -5.82149E+03  2.43916E+03 -2.81914E+03  1.98271E+03 -2.24807E+03
  1.37190E+03 -1.40527E+03  2.74977E+03 -3.06234E+03  3.74587E+03 -1.29506E+03  4.15446E+03  2.20244E+02
  5.45349E+03  1.42469E+03  1.59255E+03  4.07526E+03 -1.79995E+03  4.33292E+03 -5.25744E+03  3.12462E+03
 -5.71900E+03 -1.48088E+03 -2.69937E+03 -4.62672E+03  6.70865E+00 -6.34355E+03  3.76275E+03 -6.23629E+03
  6.38339E+03 -3.45003E+03  7.75768E+03  4.90332E+02  5.83916E+03  4.83906E+03  1.44321E+03  7.13155E+03
 -3.00766E+03  6.51915E+03 -3.68702E+03  2.42118E+03 -2.28276E+03 -1.00099E+03 -6.04705E+02 -1.54355E+03
 -4.97556E+02  2.55183E+02 -1.21057E+03  2.25719E+03 -3.23095E+03  1.28375E+03 -4.79015E+03 -8.71402E+02
 -2.24440E+03 -4.99878E+03  8.08007E+02 -6.19021E+03  3.60538E+03 -5.42594E+03  4.61837E+03 -1.41620E+03
  5.40820E+03  3.26500E+03  2.15708E+03  4.41861E+03 -1.25050E+03  5.09832E+03 -3.68787E+03  2.91758E+03
 -4.99948E+03  7.63079E+02 -4.09407E+03 -2.82944E+03 -3.03140E+02 -3.81077E+03  2.26276E+03 -3.57363E+03
  3.13655E+03 -1.34117E+03  2.78686E+03  7.71546E+02  3.27695E+02  1.14983E+03  1.33164E+03  5.74564E+02
  2.24416E+03  5.79019E+02  1.39386E+03  2.04610E+03  1.58778E+03  2.34494E+03  1.56582E+03  2.41747E+03
 -1.62264E+03  3.29809E+03 -3.27409E+03  4.97584E+03 -3.80480E+03  1.10685E+03 -5.41189E+03 -1.51461E+03
 -1.96245E+03 -4.76682E+03  9.52155E+02 -6.12191E+03  2.45534E+03 -3.70119E+03  3.97745E+03 -1.11341E+03
  2.98660E+03  2.70147E+03  2.18542E+02  2.83744E+03 -7.00594E+02  1.85072E+03 -1.26064E+03 -2.81461E+01
 -9.65477E+02 -1.82640E+03  1.34806E+03 -1.55876E+03  1.75624E+03 -1.23774E+03  2.10178E+03  8.39481E+02
  4.98774E+02  3.21986E+02  3.02313E+02  3.66787E+02 -4.34456E+02  6.80107E+02  1.48427E+03 -2.56036E+02
  2.68439E+02  3.68072E+01  2.57073E+03  2.90819E+02  3.43667E+02  2.39754E+03 -7.34970E+01  3.68936E+03
 -1.86638E+03  1.95473E+03 -2.49524E+03  2.99136E+02 -2.99772E+03 -8.00225E+02 -1.03161E+03 -1.14682E+03
  6.10346E+02 -1.41807E+03  9.08907E+02 -5.32843E+02  5.82236E+02  1.16138E+03 -6.12391E+02  1.41982E+03
 -1.82816E+03  7.40178E+02 -2.32079E+03 -1.56548E+03 -1.51284E+03 -2.82655E+03 -1.61296E+02 -1.63063E+03
  5.12839E+02 -1.31461E+03  8.84320E+02 -1.81540E+02  1.69734E+03  1.49711E+02  4.56488E+02  9.49431E+02
 -8.46942E+02 -2.57112E+02 -1.14482E+03 -7.15507E+02  7.53838E+02 -4.47872E+02  2.41886E+03 -9.27555E+02
  2.19741E+03  3.14361E+02  3.65166E+03  1.39719E+03  2.01632E+03  1.79235E+03 -2.54859E+02  2.56255E+03
 -1.40942E+03  8.37679E+02 -2.32358E+03 -9.73911E+01 -1.34914E+03 -1.19854E+03  2.68068E+02 -1.32819E+03
  2.13891E+03 -1.09292E+03  9.27619E+02  1.24693E+03  7.37985E+01  1.95952E+03  2.18588E+02  1.83021E+03
 -6.33126E+02  9.67896E+02 -5.09391E+02  6.07625E+02 -4.11870E+02  9.61490E+02 -8.69470E+02  2.39408E+02
 -6.51800E+02  1.07001E+03 -2.50233E+03  1.91220E+02 -2.22943E+03 -1.52926E+02 -3.01405E+03 -1.33665E+03
 -1.67713E+03 -3.17593E+03  4.93089E+02 -3.61191E+03  1.30187E+03 -2.65113E+03  3.77990E+03 -1.61379E+03
  3.40661E+03  7.09471E+01  1.84658E+03  1.74395E+03 -5.77514E+02  2.01402E+03 -1.15027E+03  1.79626E+03
 -1.65124E+03  1.27397E+03 -1.49279E+03 -3.87137E+02 -1.85008E+02  2.12390E+01 -4.77128E+02  4.20844E+02
 -1.48314E+03 -3.92390E+02 -1.05811E+03 -4.11674E+02 -3.69105E+02 -8.83514E+02 -5.61539E+02 -5.53419E+02
  1.69191E+03 -1.33122E+03  7.62506E+02  7.31274E+02  1.61459E+03  1.60972E+03  4.77367E+01  1.99006E+03
 -1.15728E+03  2.60995E+03 -2.14566E+03  1.75428E+03 -2.04016E+03  1.19265E+02 -1.50952E+03 -2.00800E+03
 -5.01748E+02 -2.14609E+03  7.67109E+02 -1.45513E+03  6.85191E+02 -9.97308E+02  5.51302E+02  2.01353E+02
  2.21103E+02  7.02796E+02  2.78215E+02  6.57079E+02  5.84936E+00  2.17963E+02 -1.51123E+02  7.55843E+01
  6.40858E+02 -1.94609E+02  1.11691E+03  6.86224E+02  6.25779E+01  6.10541E+02  4.05563E+02  3.81387E+02
 -7.60045E+02  3.37920E+02 -7.66785E+02  5.05958E+02 -1.24394E+03 -1.09719E+03  1.32655E+01 -1.86583E+03
  1.12889E+03 -1.25132E+03  1.21650E+03 -4.38222E+02  1.71914E+03 -8.95770E+02  3.45195E+02  1.22164E+03
  3.30194E+02  8.70626E+02 -4.89330E+02  9.22547E+02 -1.05142E+03  1.28139E+03 -5.62813E+02 -5.24861E+01
 -2.59825E+02 -5.72388E+02 -5.68879E+02  6.56236E+02 -5.76840E+02 -3.18739E+02 -1.49460E+03 -6.42254E+02
 -1.22947E+03 -2.55354E+02 -8.56797E+02 -1.02194E+03  9.79211E+02 -1.74586E+03  1.03241E+03 -1.13648E+02
  1.26170E+03  2.71475E+02  1.59833E+02  6.34385E+02 -2.65354E+02  1.25381E+03 -5.62668E+02  4.61464E+02
