 $NMID ID='MM_0lb_SNR400_13hz_g40_84.RAW', FMTDAT='(8E13.5)'
 TRAMP=1., VOLUME=1. $END
  3.10731E+05  5.14332E+02  3.37306E+05  2.50874E+05  8.43758E+04  3.37513E+05 -1.33130E+05  2.51617E+05
 -1.90114E+05  8.30103E+04 -1.11937E+05 -3.28657E+04  1.00776E+03 -5.07244E+04  5.37957E+04 -5.60588E+01
  3.51501E+04  5.27857E+04 -1.64349E+04  7.51053E+04 -6.08155E+04  6.33108E+04 -8.41639E+04  3.21193E+04
 -8.09970E+04 -1.13042E+04 -5.75132E+04 -5.11167E+04 -1.48946E+04 -6.95703E+04  2.75413E+04 -4.56939E+04
  4.09797E+04  3.41469E+03  1.64846E+04  4.80435E+04 -3.46241E+04  4.74939E+04 -6.72889E+04 -4.83552E+02
 -5.34914E+04 -5.70458E+04 -6.86205E+03 -7.68682E+04  3.36779E+04 -5.47948E+04  4.80989E+04 -1.70504E+04
  4.33021E+04  1.11443E+04  3.15540E+04  2.54371E+04  1.55544E+04  2.91730E+04 -4.80258E+03  2.68999E+04
 -2.24537E+04  1.16076E+04 -1.82702E+04 -5.42427E+03  5.49592E+03 -6.92690E+03  2.26334E+04  1.21444E+04
  7.39388E+03  3.51887E+04 -3.22304E+04  3.56714E+04 -6.42565E+04  1.78274E+03 -5.65143E+04 -4.24507E+04
 -1.22564E+04 -6.31864E+04  3.98632E+04 -4.51947E+04  5.83561E+04 -1.94029E+03  3.39520E+04  3.23899E+04
 -5.92073E+03  3.61769E+04 -3.01147E+04  1.61667E+04 -3.00275E+04 -4.54336E+03 -1.70331E+04 -1.15840E+04
 -8.64680E+03 -1.28056E+04 -5.97250E+02 -1.78971E+04  7.42724E+03 -2.31800E+04  1.59560E+04 -1.37374E+04
  1.14063E+04  5.10705E+03 -8.36464E+03  1.26365E+04 -2.16641E+04 -4.16995E+03 -8.43755E+03 -3.33044E+04
  2.27066E+04 -4.31348E+04  4.81039E+04 -1.94213E+04  4.46367E+04  1.96407E+04  1.52259E+04  4.41042E+04
 -1.58775E+04  3.31178E+04 -2.55614E+04  1.74157E+03 -1.03548E+04 -2.73109E+04  2.06638E+04 -3.38234E+04
  4.10698E+04 -8.67600E+03  3.56516E+04  2.38195E+04  1.83287E+04  4.61180E+04 -7.84273E+03  4.97242E+04
 -3.15625E+04  3.34197E+04 -4.18989E+04  9.25972E+03 -4.22992E+04 -1.62617E+04 -2.40658E+04 -3.82681E+04
  7.04704E+03 -3.74647E+04  3.09505E+04 -1.42972E+04  2.96413E+04  1.04652E+04  4.45559E+03  1.89953E+04
 -1.39968E+04  8.03691E+03 -1.07360E+04 -7.44215E+03  5.69307E+03 -1.04732E+04  1.79819E+04  5.72513E+03
  1.41349E+04  2.16193E+04 -5.76804E+03  2.50578E+04 -2.26220E+04  1.24451E+04 -2.76257E+04 -4.96880E+03
 -2.04898E+04 -1.66887E+04 -8.39289E+03 -2.04056E+04  4.35923E+03 -1.95767E+04  1.54165E+04 -1.83236E+04
  2.54353E+04 -1.27265E+04  3.32725E+04  2.72976E+03  2.43299E+04  1.97513E+04  4.37013E+03  3.67855E+04
 -1.70945E+04  3.03957E+04 -2.77767E+04  1.06271E+04 -2.06825E+04 -1.06527E+04 -4.41482E+03 -1.35232E+04
  1.54171E+03 -2.04353E+03 -4.87389E+03  7.50565E+03 -1.61226E+04  4.71888E+03 -1.61044E+04 -6.99927E+03
 -1.05493E+04 -1.87459E+04  4.78104E+03 -2.30579E+04  1.52772E+04 -1.62005E+04  1.80931E+04 -2.40447E+03
  1.17422E+04  1.26858E+04 -1.09781E+03  1.93765E+04 -1.30927E+04  1.07027E+04 -1.87235E+04 -3.80196E+03
 -1.39818E+04 -1.76819E+04 -1.72631E+03 -2.29924E+04  1.01909E+04 -1.85064E+04  1.97965E+04 -9.95600E+03
  1.86674E+04  2.76399E+02  1.26965E+04  4.20947E+03  6.87040E+03  1.30011E+02  9.37604E+03 -1.99377E+03
  1.75165E+04  2.80083E+03  1.96904E+04  1.49239E+04  1.28192E+04  3.05926E+04 -2.71312E+03  3.45365E+04
 -2.03007E+04  2.73943E+04 -3.24602E+04  1.41265E+04 -3.34280E+04 -3.21717E+03 -2.81187E+04 -1.94620E+04
 -1.22919E+04 -2.77504E+04  8.72472E+03 -2.53946E+04  2.19706E+04 -1.25016E+04  1.89695E+04  5.64366E+03
  7.00510E+03  1.48057E+04 -9.41609E+03  1.34899E+04 -1.63259E+04  2.09250E+03 -1.26326E+04 -9.47323E+03
  1.20319E+01 -1.55850E+04  8.41143E+03 -1.16456E+04  1.05155E+04 -1.02083E+03  2.51995E+03  6.65557E+03
 -7.09738E+03  2.97793E+03 -5.96191E+03 -5.07604E+03 -9.03249E+02 -1.34192E+04  9.73402E+03 -1.40395E+04
  1.73559E+04 -7.37232E+03  1.83945E+04  2.59576E+03  1.60928E+04  1.34150E+04  7.99209E+03  1.98154E+04
 -3.65730E+03  2.24356E+04 -1.41349E+04  1.45275E+04 -1.60685E+04  3.62762E+03 -1.14131E+04 -3.47019E+03
 -5.97011E+03 -5.05253E+03 -1.00282E+03  1.40024E+03 -2.03796E+03  2.85729E+03 -5.59160E+03  4.49835E+03
 -1.05323E+04 -1.25651E+03 -1.18817E+04 -9.17424E+03 -4.02577E+03 -1.48061E+04  4.79517E+03 -1.20947E+04
  9.85657E+03 -4.73575E+03  6.84537E+03  3.24895E+03  2.77858E+02  4.93621E+03 -5.67740E+03  3.32027E+00
 -4.94878E+03 -7.00256E+03 -1.23785E+03 -1.08664E+04  6.50538E+03 -1.14501E+04  1.45932E+04 -6.10859E+03
  1.65571E+04  1.78383E+03  1.21639E+04  9.83305E+03  1.65570E+03  1.35998E+04 -6.65352E+03  1.13119E+04
 -8.56912E+03  3.00043E+03 -4.84313E+03 -1.45608E+03  1.61718E+03 -3.37134E+03  5.60201E+03 -1.15855E+03
  5.97985E+03  4.53413E+03  1.23812E+03  9.03432E+03 -5.93277E+03  8.97898E+03 -1.13806E+04  2.47145E+03
 -7.42428E+03 -6.14234E+03  3.65157E+02 -9.09894E+03  6.40856E+03 -5.13642E+03  6.45869E+03  1.69562E+03
  1.16145E+03  6.49121E+03 -5.50251E+03  7.00750E+03 -8.97483E+03  3.66067E+03 -8.53754E+03 -2.13862E+03
 -4.35213E+03 -9.64729E+03  2.28942E+03 -1.23918E+04  9.72020E+03 -7.19313E+03  1.07286E+04  1.87291E+03
  7.20397E+03  8.10606E+03 -7.01179E+02  1.11980E+04 -7.64494E+03  5.94353E+03 -8.86144E+03 -1.12455E+03
 -7.81997E+03 -7.16559E+03 -1.71141E+03 -7.65056E+03  4.15811E+03 -6.84447E+03  4.63406E+03 -3.17716E+03
  4.36581E+03  7.83124E+02 -3.75616E+02  2.16382E+03 -1.85554E+02 -1.80139E+03  1.15633E+03 -4.25180E+03
  6.84061E+03 -2.54299E+03  9.54023E+03  7.44495E+02  9.79034E+03  6.46385E+03  7.61586E+03  1.26772E+04
 -2.64005E+03  1.56780E+04 -1.31796E+04  1.05931E+04 -1.68372E+04  2.44866E+03 -1.33117E+04 -5.35548E+03
 -6.46313E+03 -1.18454E+04 -6.63159E+02 -9.15913E+03  3.47767E+03 -5.27950E+03  3.15908E+03 -3.41265E+03
  2.51689E+03 -2.24271E+03  2.67987E+03 -3.58711E+03  4.08100E+03 -2.31608E+03  5.07219E+03 -2.74264E+02
  7.68264E+03  1.65570E+03  3.48941E+03  5.34007E+03 -1.70504E+03  5.36357E+03 -7.38918E+03  4.84267E+03
 -8.53493E+03 -5.50435E+02 -5.29034E+03 -6.39755E+03 -4.46861E+01 -9.79597E+03  5.33407E+03 -9.48181E+03
  9.14747E+03 -4.79193E+03  1.16520E+04  1.07878E+03  7.91394E+03  8.43830E+03  1.52833E+03  1.06380E+04
 -4.07310E+03  9.24651E+03 -6.40990E+03  2.84816E+03 -3.53585E+03 -1.65686E+03 -1.52811E+03 -9.43568E+02
 -1.39791E+03 -5.97651E+01 -1.46673E+03  2.65160E+03 -3.81597E+03  1.85626E+03 -6.80452E+03 -9.38429E+02
 -3.97816E+03 -6.60273E+03  6.80047E+02 -8.70168E+03  5.25582E+03 -7.94056E+03  8.40503E+03 -2.71136E+03
  7.79156E+03  3.49824E+03  3.93665E+03  7.65159E+03 -1.43448E+03  8.20051E+03 -5.92778E+03  4.46640E+03
 -8.41180E+03  1.66668E+02 -5.86272E+03 -5.12644E+03 -6.94210E+02 -7.73464E+03  3.42115E+03 -5.16158E+03
  5.08320E+03 -1.97505E+03  4.43455E+03  1.86514E+03  1.07525E+03  3.24331E+03  9.53996E+02  7.00482E+02
  1.39632E+03  8.59420E+02  2.18263E+03  2.09271E+03  2.41249E+03  3.55729E+03  2.11944E+03  3.76617E+03
 -1.89614E+03  5.97289E+03 -5.91817E+03  7.34523E+03 -8.48640E+03  1.82826E+03 -8.98286E+03 -2.55521E+03
 -3.84128E+03 -7.80147E+03  1.73418E+03 -8.73738E+03  5.04938E+03 -5.12628E+03  6.43125E+03 -1.63582E+03
  5.03880E+03  3.43958E+03  1.33645E+03  4.26918E+03 -2.07295E+03  2.93375E+03 -3.03233E+03 -1.16562E+03
 -1.63225E+03 -3.07074E+03  2.20364E+03 -3.40480E+03  3.29568E+03 -1.51070E+03  3.04286E+03  1.05435E+03
  1.38891E+03  7.61801E+02  1.46051E+03  1.14521E+03 -5.64033E+02  1.52033E+03  1.70040E+03 -6.31317E+02
  7.15999E+02 -6.95255E+02  4.09713E+03  1.28026E+03  1.56767E+03  5.06381E+03 -5.61819E+02  5.88790E+03
 -3.79192E+03  3.60393E+03 -5.13907E+03  1.01255E+03 -4.89135E+03 -2.41872E+03 -1.14408E+03 -3.21946E+03
  2.51132E+02 -3.06020E+03  2.22409E+03 -1.27589E+03  1.96113E+03  2.26859E+03 -4.63474E+02  2.17579E+03
 -3.39898E+03  8.43387E+02 -3.93457E+03 -1.57880E+03 -1.98038E+03 -4.52971E+03  5.98699E+02 -4.27373E+03
  2.34931E+03 -1.73159E+03  3.02672E+03  1.97070E+02  2.02089E+03  9.53153E+02  3.52649E+02  2.43605E+03
 -1.38568E+03  6.55567E+02 -1.38205E+03 -1.22763E+03  1.06099E+03 -3.00347E+03  4.35499E+03 -2.03365E+03
  4.62771E+03  1.57864E+03  5.24761E+03  2.46478E+03  1.23092E+03  4.50739E+03 -1.56282E+03  4.68748E+03
 -4.05669E+03  1.19699E+03 -4.19285E+03 -3.19814E+02 -2.64488E+03 -3.18181E+03  9.66750E+02 -2.37828E+03
  3.05256E+03 -1.81111E+03  2.31848E+03  1.66387E+03  2.95427E+02  2.95930E+03 -3.29199E+02  2.58570E+03
 -1.23958E+03  1.98579E+03 -1.63813E+03  8.12948E+02 -2.54145E+01  9.98629E+02 -4.59778E+02  1.45006E+03
 -1.91903E+03  2.72667E+03 -3.69462E+03  1.12968E+03 -4.90763E+03 -4.71466E+02 -5.95149E+03 -2.74034E+03
 -2.95125E+03 -6.30478E+03  1.01711E+03 -7.75793E+03  4.41203E+03 -6.21087E+03  7.41197E+03 -1.97227E+03
  6.79371E+03  1.20924E+03  4.09322E+03  4.84968E+03 -4.68239E+02  4.91169E+03 -2.40060E+03  3.72025E+03
 -2.24203E+03  1.14087E+03 -2.12989E+03 -2.77164E+02 -5.17693E+02  1.47835E+02 -9.30765E+02 -2.61664E+02
 -1.80197E+03 -1.00258E+01 -1.45441E+03  5.64112E+02  5.18506E+02 -1.29172E+03 -1.46362E+02 -2.13567E+03
  2.09748E+03 -1.03261E+03  1.97269E+03  1.50357E+02  3.55512E+03  2.64762E+03 -1.43859E+01  4.55179E+03
 -2.37527E+03  5.73035E+03 -5.44848E+03  3.41662E+03 -5.76678E+03 -7.84675E+02 -4.58619E+03 -3.32318E+03
 -2.03678E+03 -4.57322E+03  1.29866E+03 -4.46212E+03  2.94611E+03 -2.23817E+03  3.12266E+03  3.58540E+01
  1.88421E+03  1.02880E+03 -2.67159E+02  1.01158E+03 -7.52002E+02  1.37261E+02 -2.69589E+01 -4.22958E+02
  1.36339E+03 -6.99845E+02  1.97476E+03  9.69028E+02  1.66446E+03  1.94431E+03  4.85669E+02  1.76832E+03
 -2.10329E+03  2.13919E+03 -2.75442E+03  4.08592E+02 -2.48339E+03 -2.50499E+03 -2.68065E+02 -4.31477E+03
  1.63200E+03 -2.83662E+03  2.91573E+03 -7.72535E+02  3.07469E+03  5.13644E+02  1.60543E+03  2.86353E+03
  1.14037E+03  2.74645E+03 -7.31537E+02  2.60301E+03 -1.91839E+03  1.49318E+03 -2.20789E+03 -1.34174E+02
 -8.08032E+02 -7.16015E+02 -1.29559E+03  5.03459E+02 -1.11822E+03  6.29574E+02 -2.76957E+03 -5.80737E+02
 -2.26901E+03 -1.15339E+03 -4.02809E+02 -2.30994E+03  8.70677E+02 -3.69321E+03  2.77505E+03 -8.13581E+02
  3.19743E+03  7.25581E+02  1.46771E+03  2.75836E+03 -2.88911E+02  2.57142E+03 -1.87291E+03  1.52120E+03
