 $NMID ID='MM_0lb_SNR400_18hz_g60_90.RAW', FMTDAT='(8E13.5)'
 TRAMP=1., VOLUME=1. $END
  3.09422E+05  1.23002E+03  3.37211E+05  2.50774E+05  8.47921E+04  3.37376E+05 -1.32276E+05  2.50747E+05
 -1.90161E+05  8.30336E+04 -1.11664E+05 -3.29270E+04  1.17533E+03 -5.02956E+04  5.35717E+04  7.10605E+01
  3.48015E+04  5.26515E+04 -1.68155E+04  7.51381E+04 -6.10967E+04  6.33791E+04 -8.35179E+04  3.08939E+04
 -8.08020E+04 -1.09659E+04 -5.69876E+04 -5.12039E+04 -1.49352E+04 -6.98664E+04  2.73386E+04 -4.56053E+04
  3.96860E+04  3.50827E+03  1.55786E+04  4.77166E+04 -3.46770E+04  4.67742E+04 -6.62991E+04  1.18716E+02
 -5.26293E+04 -5.66106E+04 -6.67673E+03 -7.69262E+04  3.32446E+04 -5.46300E+04  4.71280E+04 -1.69565E+04
  4.28213E+04  1.06944E+04  3.14772E+04  2.56075E+04  1.57592E+04  2.86782E+04 -4.95698E+03  2.74736E+04
 -2.18425E+04  1.25117E+04 -1.85901E+04 -4.60971E+03  5.07365E+03 -7.58696E+03  2.21389E+04  1.16084E+04
  7.16567E+03  3.50084E+04 -3.10385E+04  3.47430E+04 -6.34610E+04  2.08526E+03 -5.64280E+04 -4.22074E+04
 -1.24027E+04 -6.24290E+04  3.97637E+04 -4.42854E+04  5.71130E+04 -2.08992E+03  3.30467E+04  3.22899E+04
 -6.17209E+03  3.52552E+04 -2.92265E+04  1.51394E+04 -2.95241E+04 -4.70649E+03 -1.64613E+04 -1.10220E+04
 -8.14179E+03 -1.29596E+04 -9.09861E+02 -1.73955E+04  6.78839E+03 -2.30634E+04  1.52714E+04 -1.36893E+04
  1.16493E+04  4.28564E+03 -7.85660E+03  1.30557E+04 -2.07149E+04 -3.50621E+03 -8.05138E+03 -3.25507E+04
  2.21914E+04 -4.19167E+04  4.70156E+04 -1.97165E+04  4.36787E+04  1.93805E+04  1.53576E+04  4.31524E+04
 -1.57447E+04  3.28992E+04 -2.45861E+04  1.32536E+03 -9.07781E+03 -2.75019E+04  2.04627E+04 -3.27889E+04
  3.97996E+04 -8.36431E+03  3.36251E+04  2.35099E+04  1.70696E+04  4.47101E+04 -7.86441E+03  4.85786E+04
 -3.03596E+04  3.22985E+04 -4.05273E+04  8.89212E+03 -4.11387E+04 -1.60369E+04 -2.20678E+04 -3.62889E+04
  6.77682E+03 -3.63037E+04  3.03932E+04 -1.41294E+04  2.83203E+04  1.10502E+04  3.26077E+03  1.87084E+04
 -1.32235E+04  7.94140E+03 -9.81055E+03 -7.50576E+03  5.85540E+03 -9.97290E+03  1.82602E+04  6.18489E+03
  1.29189E+04  2.16462E+04 -6.33836E+03  2.42242E+04 -2.21651E+04  1.10698E+04 -2.67886E+04 -6.27264E+03
 -1.89622E+04 -1.72932E+04 -6.95113E+03 -1.85872E+04  3.81409E+03 -1.80262E+04  1.39264E+04 -1.70532E+04
  2.39394E+04 -1.26382E+04  3.09156E+04  2.04897E+03  2.28300E+04  1.82304E+04  3.88123E+03  3.43706E+04
 -1.72678E+04  2.89656E+04 -2.68401E+04  9.96779E+03 -2.03915E+04 -9.82018E+03 -4.54986E+03 -1.39942E+04
  2.08274E+03 -3.57152E+03 -3.96720E+03  6.49189E+03 -1.43206E+04  4.73607E+03 -1.49250E+04 -5.89071E+03
 -9.27763E+03 -1.78306E+04  4.44030E+03 -2.07471E+04  1.39636E+04 -1.56388E+04  1.64368E+04 -2.01381E+03
  1.03341E+04  1.21929E+04 -6.40121E+02  1.75185E+04 -1.12417E+04  9.85209E+03 -1.64488E+04 -3.44641E+03
 -1.29842E+04 -1.54584E+04 -1.59575E+03 -2.08319E+04  9.42552E+03 -1.69552E+04  1.77808E+04 -7.64364E+03
  1.58680E+04  1.28754E+02  1.10380E+04  4.39708E+03  5.61952E+03  1.13605E+03  8.52614E+03 -1.15581E+03
  1.54871E+04  2.70749E+03  1.66146E+04  1.44450E+04  1.10306E+04  2.76464E+04 -2.78827E+03  2.98764E+04
 -1.76389E+04  2.33108E+04 -2.73673E+04  1.14492E+04 -2.86624E+04 -2.64185E+03 -2.39652E+04 -1.61284E+04
 -1.12890E+04 -2.37468E+04  7.89644E+03 -2.14403E+04  1.82276E+04 -1.19261E+04  1.74340E+04  4.62592E+03
  6.87984E+03  1.22342E+04 -8.32675E+03  1.13313E+04 -1.41527E+04  2.79940E+03 -1.14215E+04 -9.25866E+03
  3.22282E+02 -1.35120E+04  6.88124E+03 -1.03694E+04  8.39467E+03 -8.03236E+02  1.97090E+03  5.22220E+03
 -6.13748E+03  1.00150E+03 -4.99762E+03 -5.59626E+03  5.89046E+02 -1.15908E+04  8.02065E+03 -1.16757E+04
  1.37584E+04 -5.84662E+03  1.43323E+04  2.95004E+03  1.25614E+04  1.07488E+04  5.95239E+03  1.64147E+04
 -2.19876E+03  1.80690E+04 -1.15461E+04  1.14708E+04 -1.28509E+04  3.22254E+03 -9.83096E+03 -2.95091E+03
 -4.77428E+03 -4.61116E+03 -6.28638E+02  1.27313E+03 -2.63481E+03  2.26213E+03 -4.09994E+03  3.74456E+03
 -8.41969E+03 -8.39873E+02 -1.00730E+04 -7.24572E+03 -3.26311E+03 -1.26813E+04  3.79668E+03 -9.20913E+03
  7.65368E+03 -3.71082E+03  6.30456E+03  1.89951E+03  7.21572E+02  3.51683E+03 -4.24764E+03  2.16322E+02
 -4.19999E+03 -6.03055E+03 -1.13333E+03 -8.39577E+03  4.62581E+03 -8.93665E+03  1.11382E+04 -4.59256E+03
  1.28864E+04  1.07924E+03  9.73437E+03  7.18190E+03  1.90243E+03  1.04828E+04 -6.29344E+03  9.34192E+03
 -7.07871E+03  3.46540E+03 -4.21085E+03 -1.34029E+03  1.55973E+03 -2.29664E+03  5.57176E+03 -5.21472E+02
  4.78351E+03  3.70064E+03  1.09663E+03  6.76668E+03 -5.34143E+03  6.87459E+03 -8.93095E+03  1.64392E+03
 -5.77463E+03 -4.41269E+03  3.39870E+02 -7.35431E+03  3.95105E+03 -3.50687E+03  4.33004E+03  7.82015E+02
  5.43488E+02  4.22879E+03 -4.22598E+03  5.10725E+03 -5.91403E+03  2.23150E+03 -5.55666E+03 -1.49364E+03
 -3.83309E+03 -7.05886E+03  1.74109E+03 -7.88989E+03  6.78127E+03 -5.31239E+03  7.22118E+03  8.98008E+02
  5.31120E+03  6.06533E+03 -3.12883E+02  7.90848E+03 -6.00731E+03  4.70036E+03 -6.09384E+03 -5.40534E+02
 -5.86695E+03 -5.66034E+03 -1.48748E+03 -4.82043E+03  3.33423E+03 -5.80956E+03  3.31436E+03 -2.52292E+03
  2.73246E+03  5.71954E+02 -5.23466E+02  1.54552E+03  3.54679E+02 -1.45429E+02  6.00243E+02 -2.38684E+03
  4.78811E+03 -1.30075E+03  6.14381E+03  1.34475E+03  6.46339E+03  3.61955E+03  5.93032E+03  8.94827E+03
 -1.57627E+03  9.89695E+03 -8.69332E+03  7.34230E+03 -1.12536E+04  1.35628E+03 -8.67522E+03 -3.51073E+03
 -4.60997E+03 -7.32491E+03  4.65004E+00 -5.38880E+03  3.03089E+03 -2.68747E+03  1.70523E+03 -2.43168E+03
  5.56973E+02 -1.83077E+03  2.81098E+03 -2.47008E+03  3.45286E+03 -1.54265E+03  3.90954E+03  8.47524E+01
  4.35806E+03  8.32213E+02  1.04059E+03  4.44543E+03 -1.30765E+03  3.78577E+03 -4.51828E+03  2.83083E+03
 -5.19447E+03 -1.23003E+03 -2.09987E+03 -4.32959E+03  5.24518E+02 -6.35793E+03  3.24489E+03 -6.43633E+03
  5.46010E+03 -3.61639E+03  8.09295E+03  5.30636E+02  5.52210E+03  5.15064E+03  1.25151E+03  6.94436E+03
 -2.43948E+03  7.14895E+03 -4.39929E+03  2.09036E+03 -2.16539E+03 -1.02168E+03 -4.75573E+02 -6.69593E+02
 -1.38413E+02  4.60092E+02 -1.08176E+03  2.32443E+03 -3.25600E+03  1.40037E+03 -4.02318E+03 -1.06153E+02
 -2.09658E+03 -4.33361E+03  1.00031E+02 -5.22018E+03  2.66460E+03 -5.21377E+03  3.82670E+03 -1.37757E+03
  4.05299E+03  2.24088E+03  1.78615E+03  4.07393E+03 -1.19748E+03  4.39082E+03 -3.34545E+03  3.15042E+03
 -4.74345E+03  6.99705E+02 -3.31880E+03 -2.77503E+03 -5.06960E+02 -3.83150E+03  2.18324E+03 -2.61108E+03
  2.82791E+03 -1.72546E+03  1.95618E+03  1.14932E+03  2.45898E+02  1.76904E+03  7.79204E+02  1.06367E+03
  2.18564E+03  7.02082E+02  1.45084E+03  7.13111E+02  9.77599E+02  2.02868E+03  1.83814E+03  1.47028E+03
 -1.45529E+03  3.43834E+03 -3.54496E+03  4.45187E+03 -3.38831E+03  8.83995E+02 -4.85760E+03 -7.14645E+02
 -1.70366E+03 -4.28481E+03  8.45948E+02 -5.03286E+03  2.13479E+03 -2.77461E+03  3.74568E+03 -5.44509E+02
  2.84607E+03  2.07340E+03  4.13946E+02  2.66194E+03 -6.92523E+02  1.64853E+03 -1.52543E+03  6.87217E+01
 -8.50694E+02 -1.81885E+03  1.60220E+03 -1.71805E+03  1.76322E+03 -6.82600E+02  1.49715E+03  8.41676E+02
  3.56549E+02  6.10032E+02  8.06880E+02 -5.28962E+02 -7.14348E+02  3.12323E+02  2.11874E+03 -4.38371E+02
  4.09128E+02  8.60494E+01  1.61396E+03  5.53797E+02  2.88466E+02  2.42115E+03 -1.54828E+02  3.01130E+03
 -1.55072E+03  8.79664E+02 -2.73373E+03  2.83433E+02 -1.76883E+03 -9.93394E+02 -2.46707E+02 -1.48718E+03
  3.16828E+02 -1.17425E+03  1.07909E+03 -1.12368E+03  8.62337E+02  1.41575E+03 -7.49909E+02  9.70500E+02
 -1.63987E+03  1.27876E+03 -1.46657E+03 -1.34447E+03 -1.39375E+01 -2.09562E+03  5.51276E+02 -2.11327E+03
  6.11219E+02 -3.88914E+02  4.70077E+02  2.10749E+02  1.24841E+03 -3.52509E+01  2.62809E+02  1.20555E+03
 -2.56480E+02  4.30102E+02 -6.35646E+02 -2.84671E+02  5.34464E+02 -1.45245E+03  1.62383E+03 -3.49355E+02
  1.02684E+03  4.72773E+01  2.53092E+03  9.41725E+02  9.18344E+02  1.53209E+03 -2.46124E+02  1.76780E+03
 -2.00758E+03  5.64653E+02 -1.68317E+03 -4.98949E+02 -6.18807E+02 -1.31587E+03  6.77238E+02 -3.59276E+02
  1.43193E+03 -8.59355E+02  7.04972E+02  9.57284E+02 -2.50775E+01  7.80008E+02  6.47409E+01  1.38533E+03
  1.15330E+02  9.41381E+02 -4.16203E+02  2.89457E+02  2.32856E+02  5.09180E+02 -8.11501E+02  3.67343E+02
 -5.14872E+02  1.06722E+03 -1.92909E+03  8.49786E+02 -1.94983E+03  1.26024E+02 -1.82281E+03 -1.11995E+03
 -1.02127E+03 -2.94762E+03  8.94960E+02 -3.00751E+03  1.49613E+03 -2.32605E+03  2.82247E+03 -8.32016E+02
  2.56993E+03 -3.90849E+02  1.11348E+03  2.32577E+03 -3.25660E+02  1.42511E+03 -8.33405E+02  1.33171E+03
 -1.02465E+03  7.70661E+02 -9.83561E+02  5.08157E+00 -4.48272E+02  4.79780E+02 -1.04493E+03 -1.73744E+02
 -1.69832E+03 -7.17843E+01 -1.17175E+03  4.69201E+01 -1.06435E+02 -5.80703E+02 -4.71080E+01 -7.51085E+02
  3.23062E+02 -5.99219E+02  7.68010E+02  1.04072E+02  9.38666E+02  1.05351E+03  1.09632E+02  2.13031E+03
 -9.38223E+02  1.68437E+03 -1.60088E+03  1.98114E+03 -2.15289E+03  8.52985E+01 -8.82207E+02 -1.24741E+03
 -3.16300E+02 -2.15027E+03 -1.36123E+01 -1.50838E+03  8.41321E+02 -4.22659E+02  1.07047E+03  1.74705E+02
  1.11177E+03  4.12351E+02 -2.72481E+02  5.52710E+02 -2.94624E+02 -1.07336E+02 -4.10788E+02 -2.80692E+02
  5.59390E+02  2.90388E+02  2.05385E+02  9.80404E+02  1.20820E+02  2.89341E+01  6.58529E+02  7.33789E+02
 -3.29621E+02  5.02283E+02 -2.61464E+02  3.58458E+02 -1.01174E+03 -2.10753E+02  3.09423E+02 -1.30197E+03
  5.31716E+02 -3.84515E+02  1.64832E+02 -1.39513E+02  1.05399E+03 -8.57226E+02  2.73420E+02  9.11179E+02
  5.09448E+02  4.38639E+02 -5.75387E+02  9.05229E+02 -2.32397E+01  6.75162E+02 -7.77168E+02  5.04790E+01
  5.72794E+02 -3.86205E+02 -3.08678E+02 -2.40000E+02 -6.61162E+02 -3.68877E+01 -1.81391E+03  9.97753E+01
 -1.64837E+03  1.32800E+02 -6.53044E+02 -5.50041E+02  3.48942E+02 -1.86581E+03  8.44853E+02 -3.25556E+02
  5.89352E+02  3.56451E+01 -6.42185E+01 -3.84851E+01 -1.54908E+02  7.90717E+01 -9.22159E+01  9.26149E+02
