 $NMID ID='MM_0lb_SNR400_16hz_g60_50.RAW', FMTDAT='(8E13.5)'
 TRAMP=1., VOLUME=1. $END
  3.09663E+05  3.32134E+02  3.38007E+05  2.50900E+05  8.45736E+04  3.38110E+05 -1.32912E+05  2.50959E+05
 -1.90362E+05  8.35125E+04 -1.12376E+05 -3.25562E+04  5.52882E+02 -5.07410E+04  5.34431E+04 -1.71480E+02
  3.51292E+04  5.24485E+04 -1.69918E+04  7.54741E+04 -6.09935E+04  6.38685E+04 -8.41904E+04  3.16123E+04
 -8.12673E+04 -1.12869E+04 -5.70252E+04 -5.09153E+04 -1.51255E+04 -6.97640E+04  2.76304E+04 -4.56318E+04
  4.04748E+04  3.54583E+03  1.61068E+04  4.75258E+04 -3.41540E+04  4.74024E+04 -6.72329E+04 -7.35642E+02
 -5.45230E+04 -5.70546E+04 -6.85978E+03 -7.74520E+04  3.47407E+04 -5.51599E+04  4.77167E+04 -1.74667E+04
  4.31390E+04  1.13631E+04  3.14320E+04  2.59962E+04  1.56050E+04  2.91203E+04 -4.57143E+03  2.72585E+04
 -2.19262E+04  1.29208E+04 -1.88275E+04 -4.55896E+03  5.37201E+03 -7.86895E+03  2.18916E+04  1.24540E+04
  7.66702E+03  3.54948E+04 -3.25702E+04  3.54604E+04 -6.35743E+04  2.49536E+03 -5.73024E+04 -4.33999E+04
 -1.21861E+04 -6.35514E+04  3.98964E+04 -4.53617E+04  5.83652E+04 -2.30537E+03  3.43847E+04  3.31654E+04
 -5.83412E+03  3.63344E+04 -2.97623E+04  1.63258E+04 -2.99771E+04 -4.78096E+03 -1.67986E+04 -1.08403E+04
 -8.81108E+03 -1.25831E+04 -8.08895E+02 -1.82284E+04  6.91869E+03 -2.34751E+04  1.54756E+04 -1.32239E+04
  1.09806E+04  5.02501E+03 -8.39719E+03  1.29354E+04 -2.09654E+04 -4.38138E+03 -8.48696E+03 -3.42772E+04
  2.26745E+04 -4.39644E+04  4.77067E+04 -1.96181E+04  4.55726E+04  1.97782E+04  1.55018E+04  4.39238E+04
 -1.60087E+04  3.39070E+04 -2.55217E+04  1.57960E+03 -9.35521E+03 -2.82433E+04  2.16130E+04 -3.34299E+04
  4.14227E+04 -8.47200E+03  3.55308E+04  2.36766E+04  1.78908E+04  4.64642E+04 -8.12848E+03  5.04954E+04
 -3.13556E+04  3.32454E+04 -4.10988E+04  8.83207E+03 -4.22998E+04 -1.72099E+04 -2.29616E+04 -3.81726E+04
  7.28786E+03 -3.79031E+04  3.15919E+04 -1.43857E+04  2.94344E+04  1.11002E+04  3.50243E+03  1.91028E+04
 -1.35250E+04  8.43888E+03 -1.00560E+04 -7.42740E+03  6.09816E+03 -1.02582E+04  1.76831E+04  6.37789E+03
  1.33104E+04  2.22219E+04 -6.02263E+03  2.50965E+04 -2.27499E+04  1.12344E+04 -2.81294E+04 -4.41539E+03
 -2.08642E+04 -1.70550E+04 -8.70764E+03 -2.03924E+04  3.97666E+03 -1.93834E+04  1.57595E+04 -1.82679E+04
  2.59738E+04 -1.26979E+04  3.25378E+04  2.98003E+03  2.35136E+04  1.97717E+04  3.99697E+03  3.60774E+04
 -1.74562E+04  3.15072E+04 -2.83282E+04  9.99677E+03 -2.09221E+04 -1.00683E+04 -3.79860E+03 -1.35882E+04
  1.24756E+03 -2.98098E+03 -4.37193E+03  6.65731E+03 -1.62006E+04  4.82353E+03 -1.61725E+04 -7.38321E+03
 -1.01150E+04 -1.87532E+04  4.93654E+03 -2.30662E+04  1.47077E+04 -1.63535E+04  1.75705E+04 -1.71748E+03
  1.11730E+04  1.31106E+04 -1.19027E+03  1.82312E+04 -1.29020E+04  1.07070E+04 -1.87571E+04 -4.20990E+03
 -1.34517E+04 -1.75297E+04 -1.85407E+03 -2.26109E+04  1.05020E+04 -1.84879E+04  1.81592E+04 -9.53688E+03
  1.70839E+04 -6.25433E+02  1.24847E+04  4.42806E+03  7.36685E+03  8.30193E+02  9.02362E+03 -1.88900E+03
  1.68371E+04  2.25057E+03  1.87433E+04  1.48300E+04  1.21907E+04  2.99436E+04 -3.01661E+03  3.35844E+04
 -1.88341E+04  2.61618E+04 -3.05824E+04  1.36811E+04 -3.20062E+04 -1.88450E+03 -2.68478E+04 -1.89072E+04
 -1.19294E+04 -2.62760E+04  9.40420E+03 -2.43560E+04  2.05722E+04 -1.13620E+04  1.90316E+04  5.96449E+03
  6.53737E+03  1.39725E+04 -8.52451E+03  1.24178E+04 -1.63255E+04  2.25780E+03 -1.25376E+04 -9.65704E+03
 -6.93908E+01 -1.45126E+04  7.35898E+03 -1.12354E+04  1.00600E+04 -9.91283E+02  1.84596E+03  5.85143E+03
 -6.44541E+03  2.25690E+03 -5.70584E+03 -5.12417E+03  7.66030E+01 -1.27504E+04  8.87098E+03 -1.30140E+04
  1.63361E+04 -6.67623E+03  1.64476E+04  3.03778E+03  1.43349E+04  1.26928E+04  6.87233E+03  1.84478E+04
 -3.30434E+03  2.07773E+04 -1.36333E+04  1.34322E+04 -1.46347E+04  2.68372E+03 -1.09416E+04 -3.74625E+03
 -5.20616E+03 -4.69309E+03 -1.18673E+03  6.46446E+02 -2.44762E+03  2.47442E+03 -5.03394E+03  3.92838E+03
 -1.03776E+04 -6.08939E+02 -1.08841E+04 -9.19898E+03 -4.61199E+03 -1.39998E+04  4.46555E+03 -1.06770E+04
  9.24219E+03 -4.82458E+03  6.68253E+03  3.00936E+03  7.59550E+01  4.52340E+03 -5.00423E+03  5.34674E+01
 -5.29933E+03 -6.97391E+03 -1.51813E+03 -9.25040E+03  5.95329E+03 -1.07023E+04  1.27587E+04 -5.38222E+03
  1.51095E+04  1.09975E+03  1.14366E+04  8.92078E+03  2.15758E+03  1.18676E+04 -6.40466E+03  1.02954E+04
 -8.81770E+03  3.39919E+03 -5.12776E+03 -1.75946E+03  2.07782E+03 -2.75078E+03  6.21945E+03 -9.59645E+02
  5.67743E+03  4.41809E+03  2.51110E+02  7.79670E+03 -5.39215E+03  7.77517E+03 -1.02616E+04  2.25790E+03
 -6.53298E+03 -4.51277E+03  3.51310E+01 -8.69965E+03  5.05678E+03 -4.10138E+03  5.58194E+03  1.96599E+03
  8.58203E+02  5.83540E+03 -5.31582E+03  6.93666E+03 -7.22501E+03  2.91695E+03 -6.73214E+03 -2.08620E+03
 -4.35317E+03 -8.59911E+03  1.60970E+03 -1.02592E+04  8.56257E+03 -5.90394E+03  9.18292E+03  1.97820E+03
  6.44872E+03  7.56655E+03 -1.01508E+03  9.60668E+03 -7.42133E+03  5.30782E+03 -7.37144E+03 -8.54390E+02
 -6.81828E+03 -6.36518E+03 -1.53240E+03 -7.26126E+03  3.63290E+03 -6.29596E+03  3.67094E+03 -2.15914E+03
  3.61441E+03  5.32113E+02 -1.29508E+02  2.02296E+03  8.13046E+01 -1.38932E+03  1.11492E+03 -3.42145E+03
  6.37058E+03 -1.77490E+03  8.30777E+03  6.06738E+02  8.26418E+03  4.95540E+03  6.85315E+03  1.05189E+04
 -1.95720E+03  1.21053E+04 -1.06286E+04  8.98912E+03 -1.39145E+04  2.21121E+03 -1.13191E+04 -4.52739E+03
 -6.78632E+03 -9.48902E+03 -3.19191E+01 -7.19140E+03  3.43123E+03 -3.63289E+03  2.98040E+03 -2.78945E+03
  1.81621E+03 -1.91092E+03  2.48850E+03 -3.10507E+03  3.70953E+03 -1.87336E+03  4.38019E+03  2.59998E+02
  5.99989E+03  1.60515E+03  2.49469E+03  4.65104E+03 -1.23112E+03  4.36082E+03 -5.51286E+03  4.22156E+03
 -7.37169E+03 -1.18594E+03 -3.38032E+03 -4.61749E+03  2.68709E+02 -7.83540E+03  4.50241E+03 -7.56480E+03
  7.72653E+03 -4.79880E+03  9.71467E+03  7.25672E+02  6.86823E+03  6.57751E+03  1.10752E+03  8.62043E+03
 -3.25773E+03  7.33431E+03 -5.84590E+03  3.29791E+03 -2.83899E+03 -1.19384E+03 -6.72053E+02 -1.47968E+03
 -7.12459E+02  6.44511E+01 -1.31131E+03  2.44410E+03 -3.20573E+03  1.52439E+03 -5.33175E+03  2.17499E+01
 -3.05787E+03 -5.61147E+03  1.19051E+03 -6.87139E+03  4.00440E+03 -6.47086E+03  5.54341E+03 -2.28072E+03
  6.73394E+03  3.77275E+03  3.06926E+03  5.61732E+03 -1.10183E+03  6.57774E+03 -3.83738E+03  3.66794E+03
 -6.37655E+03  2.35604E+02 -5.00516E+03 -3.84860E+03 -6.30693E+02 -5.76928E+03  2.10057E+03 -4.46299E+03
  4.53128E+03 -1.70639E+03  3.14000E+03  1.16762E+03  8.98809E+02  1.83272E+03  1.01687E+03  6.92487E+02
  2.29507E+03  8.59570E+02  1.82937E+03  1.10603E+03  1.80098E+03  2.87400E+03  1.91881E+03  2.90419E+03
 -2.17147E+03  4.33466E+03 -4.37743E+03  5.60287E+03 -5.40789E+03  9.74032E+02 -6.54061E+03 -1.60563E+03
 -2.60425E+03 -5.73007E+03  1.15766E+03 -7.05599E+03  3.40080E+03 -4.11177E+03  5.37834E+03 -9.78499E+02
  4.21070E+03  2.22030E+03  4.53476E+02  3.66238E+03 -9.87118E+02  2.22982E+03 -1.68338E+03  3.74515E+02
 -1.28746E+03 -2.55547E+03  2.37837E+03 -2.49055E+03  2.02670E+03 -1.46489E+03  1.81448E+03  5.64165E+02
  1.07688E+03  1.17110E+03  5.54575E+02 -2.33990E+02 -3.20822E+02  4.84100E+02  1.60104E+03  2.60821E+02
  3.08497E+02 -1.32354E+02  2.79312E+03  9.42058E+02  9.30148E+02  4.19856E+03 -2.65219E+02  4.11790E+03
 -2.26532E+03  2.32537E+03 -3.37437E+03  5.32323E+02 -3.62432E+03 -1.15363E+03 -4.56897E+02 -1.80539E+03
  5.56267E+02 -2.41500E+03  1.20886E+03 -1.04002E+03  1.66233E+03  1.82563E+03 -8.10710E+02  2.08565E+03
 -1.86416E+03  8.43817E+02 -2.16514E+03 -1.61090E+03 -9.51653E+02 -3.70250E+03 -1.88768E+02 -2.57429E+03
  1.37695E+03 -1.30793E+03  1.46725E+03  1.15732E+02  2.02356E+03  2.82266E+02 -1.33820E+02  2.13080E+03
 -1.15461E+03  6.41097E+02 -1.69864E+03 -8.57424E+02  7.78937E+02 -1.99085E+03  2.54516E+03 -1.48622E+03
  2.51476E+03  5.18641E+01  3.40727E+03  9.94535E+02  9.32547E+02  2.84630E+03 -1.14287E+03  2.98554E+03
 -2.02458E+03  8.04544E+02 -2.09223E+03 -5.35804E+02 -1.50527E+03 -2.12328E+03  1.10873E+03 -1.52547E+03
  2.60826E+03 -1.19742E+03  1.88442E+03  2.05966E+03 -1.44752E+02  1.99584E+03 -2.77774E+02  1.85062E+03
 -2.98343E+02  1.87371E+03 -3.15131E+02  3.29245E+02  1.85413E+01  1.07205E+03 -8.89556E+02  1.48701E+03
 -8.47034E+02  1.24382E+03 -2.63041E+03  1.21824E+03 -3.07491E+03  3.41110E+02 -3.62999E+03 -2.12510E+03
 -1.71659E+03 -3.50349E+03  9.51502E+02 -4.43776E+03  2.09293E+03 -4.26188E+03  4.20522E+03 -1.95105E+03
  4.21303E+03  2.84484E+00  2.57944E+03  2.72246E+03 -1.20500E+03  2.43520E+03 -1.35986E+03  1.93706E+03
 -1.67513E+03  9.15105E+02 -9.11814E+02 -4.65572E+02 -4.34012E+02 -4.37269E+01 -6.92446E+02  4.17163E+02
 -1.69494E+03  1.11425E+02 -6.99218E+02 -1.35694E+02 -2.35551E+02 -1.33050E+03 -2.70738E+02 -1.72644E+03
  2.06755E+03 -6.65554E+02  1.87668E+03  6.97132E+02  1.83862E+03  1.36240E+03 -1.05187E+01  2.91994E+03
 -1.92871E+03  3.08198E+03 -3.12707E+03  1.98396E+03 -2.33604E+03 -9.29189E+01 -1.91974E+03 -2.57181E+03
 -1.26815E+03 -2.73071E+03  1.66979E+02 -2.28683E+03  2.50678E+02 -1.58410E+03  9.17403E+02 -1.95032E+01
  9.52710E+02  6.13722E+02  2.41454E+02  4.67404E+02 -3.25111E+02  8.97353E+01  3.21956E+02 -1.02982E+02
  6.52392E+02 -3.55368E+02  4.48690E+02  3.38196E+02  4.48383E+02  1.30694E+03  6.89385E+02  7.64305E+02
 -1.00813E+03  7.43787E+02 -6.95186E+02 -2.00452E+02 -8.36570E+02 -8.97859E+02  8.42998E+01 -2.69143E+03
  1.42296E+03 -1.57499E+03  6.79152E+02  9.38437E+01  1.20556E+03 -1.49915E+02  7.68266E+02  1.93879E+03
  2.62152E+02  1.61907E+03 -5.10075E+02  1.47947E+03 -4.65191E+02  7.38077E+02 -5.41563E+02 -3.65408E+02
 -9.46249E+01 -6.46257E+02 -7.91057E+02  4.91283E+02 -9.79803E+02  1.80768E+02 -1.44849E+03 -9.17764E+02
 -1.17750E+03 -8.21721E+02 -4.94083E+02 -1.09892E+03  1.59793E+03 -2.30374E+03  1.70497E+03 -3.23277E+02
  1.77580E+03 -2.40842E+02 -3.34699E+02  3.50227E+02 -4.64699E+02  1.77973E+03 -1.01393E+03  1.22484E+03
