 $NMID ID='MM_0lb_SNR400_12hz_g55_36.RAW', FMTDAT='(8E13.5)'
 TRAMP=1., VOLUME=1. $END
  3.09839E+05  8.03393E+02  3.38039E+05  2.50620E+05  8.45570E+04  3.38389E+05 -1.32745E+05  2.50565E+05
 -1.90665E+05  8.41072E+04 -1.11595E+05 -3.21414E+04  2.69523E+02 -4.99789E+04  5.31595E+04 -5.49437E+02
  3.56230E+04  5.27201E+04 -1.65208E+04  7.53206E+04 -6.12167E+04  6.40646E+04 -8.48904E+04  3.30111E+04
 -8.21833E+04 -1.12252E+04 -5.86820E+04 -5.16267E+04 -1.49664E+04 -7.09717E+04  2.75501E+04 -4.61587E+04
  4.04812E+04  4.01355E+03  1.61690E+04  4.83366E+04 -3.46548E+04  4.71935E+04 -6.75197E+04 -1.58153E+02
 -5.34251E+04 -5.74569E+04 -6.53565E+03 -7.79808E+04  3.45865E+04 -5.62475E+04  4.78166E+04 -1.82276E+04
  4.45827E+04  1.09244E+04  3.22509E+04  2.54405E+04  1.63287E+04  3.06960E+04 -5.29247E+03  2.72268E+04
 -2.23856E+04  1.21576E+04 -1.89305E+04 -4.56658E+03  6.09473E+03 -6.98001E+03  2.26331E+04  1.31056E+04
  7.06010E+03  3.72069E+04 -3.32898E+04  3.61643E+04 -6.44314E+04  3.01201E+03 -5.82244E+04 -4.35755E+04
 -1.29040E+04 -6.48585E+04  3.99956E+04 -4.67632E+04  5.92082E+04 -2.62061E+03  3.52353E+04  3.43489E+04
 -5.97219E+03  3.78511E+04 -3.11836E+04  1.75720E+04 -3.23690E+04 -3.66080E+03 -1.81447E+04 -1.18783E+04
 -8.65259E+03 -1.42410E+04 -1.20043E+03 -1.88544E+04  8.04936E+03 -2.32856E+04  1.55926E+04 -1.30046E+04
  1.07718E+04  5.31813E+03 -9.27103E+03  1.36030E+04 -2.24679E+04 -5.75126E+03 -9.01987E+03 -3.54989E+04
  2.34082E+04 -4.49375E+04  5.00680E+04 -2.07483E+04  4.65721E+04  2.05691E+04  1.68689E+04  4.50577E+04
 -1.63825E+04  3.47109E+04 -2.64658E+04  2.02441E+03 -1.09020E+04 -2.95066E+04  2.12037E+04 -3.58605E+04
  4.31061E+04 -1.04064E+04  3.82467E+04  2.44541E+04  1.94608E+04  4.87259E+04 -8.44765E+03  5.33445E+04
 -3.39241E+04  3.62659E+04 -4.51021E+04  1.05815E+04 -4.48953E+04 -1.81425E+04 -2.44285E+04 -4.04874E+04
  7.51613E+03 -4.03012E+04  3.23242E+04 -1.65952E+04  3.07725E+04  1.10597E+04  5.25828E+03  1.95500E+04
 -1.34500E+04  9.05156E+03 -1.08912E+04 -6.89514E+03  6.17251E+03 -1.13424E+04  1.82734E+04  6.04985E+03
  1.37020E+04  2.26846E+04 -5.55698E+03  2.58906E+04 -2.28269E+04  1.27487E+04 -2.98580E+04 -4.04589E+03
 -2.26135E+04 -1.85253E+04 -9.86972E+03 -2.30352E+04  3.99589E+03 -2.27597E+04  1.82428E+04 -2.13920E+04
  2.95602E+04 -1.30949E+04  3.57058E+04  3.98280E+03  2.56171E+04  2.23140E+04  4.65797E+03  3.90522E+04
 -1.88748E+04  3.25217E+04 -2.91468E+04  1.04605E+04 -2.20378E+04 -9.86691E+03 -4.36250E+03 -1.32010E+04
  1.59223E+03 -2.41839E+03 -6.63395E+03  6.75380E+03 -1.75729E+04  4.95996E+03 -1.81620E+04 -8.36619E+03
 -1.09369E+04 -2.10356E+04  5.90235E+03 -2.54419E+04  1.67421E+04 -1.80380E+04  2.03791E+04 -1.66719E+03
  1.32484E+04  1.47137E+04 -1.14500E+03  2.11996E+04 -1.49909E+04  1.17437E+04 -2.13272E+04 -4.48799E+03
 -1.54668E+04 -1.97742E+04 -1.89096E+03 -2.61257E+04  1.13314E+04 -2.14055E+04  2.13531E+04 -1.02825E+04
  2.00371E+04  5.24533E+02  1.45856E+04  4.32670E+03  6.76578E+03  1.32733E+03  1.06372E+04 -1.43480E+03
  1.97608E+04  2.57802E+03  2.19150E+04  1.69727E+04  1.48083E+04  3.35246E+04 -2.81483E+03  3.91448E+04
 -2.23552E+04  3.19671E+04 -3.64524E+04  1.65180E+04 -3.87080E+04 -2.96456E+03 -3.21578E+04 -2.30875E+04
 -1.31929E+04 -3.20293E+04  1.07464E+04 -2.89669E+04  2.48366E+04 -1.44942E+04  2.17279E+04  6.44026E+03
  7.92646E+03  1.63492E+04 -9.71391E+03  1.40675E+04 -1.83915E+04  2.96784E+03 -1.41431E+04 -1.17895E+04
 -1.33408E+02 -1.70583E+04  9.16148E+03 -1.36482E+04  1.13107E+04 -1.33917E+03  3.05296E+03  8.22082E+03
 -8.07943E+03  2.71763E+03 -7.35065E+03 -6.32540E+03 -1.13070E+03 -1.55925E+04  1.06832E+04 -1.70936E+04
  1.95877E+04 -9.42142E+03  2.15672E+04  3.06488E+03  1.97753E+04  1.63185E+04  9.12938E+03  2.48150E+04
 -5.65245E+03  2.62712E+04 -1.71859E+04  1.65500E+04 -1.88879E+04  4.16540E+03 -1.33149E+04 -4.80810E+03
 -5.95498E+03 -6.29515E+03 -9.25283E+02  1.29972E+03 -2.62513E+03  3.03567E+03 -5.96056E+03  4.67564E+03
 -1.20746E+04 -8.22148E+02 -1.28716E+04 -1.04921E+04 -5.25224E+03 -1.69171E+04  5.70333E+03 -1.30667E+04
  1.10615E+04 -5.80148E+03  7.89288E+03  3.15741E+03 -4.35392E+02  5.04576E+03 -6.28124E+03  4.67877E+02
 -6.05558E+03 -8.17888E+03 -1.14588E+03 -1.30971E+04  7.36560E+03 -1.36188E+04  1.66275E+04 -7.09133E+03
  2.06427E+04  2.26801E+03  1.47538E+04  1.26020E+04  2.71884E+03  1.58891E+04 -8.76410E+03  1.34791E+04
 -1.07703E+04  3.43127E+03 -5.35969E+03 -2.74476E+03  2.05272E+03 -3.83893E+03  6.98128E+03 -1.11329E+03
  6.06173E+03  5.80183E+03  5.62993E+02  1.03536E+04 -8.18485E+03  1.04838E+04 -1.28691E+04  2.89378E+03
 -9.34069E+03 -7.11469E+03  1.38844E+02 -1.10711E+04  7.07976E+03 -4.94845E+03  8.62708E+03  1.84830E+03
  1.78549E+03  8.32208E+03 -6.23817E+03  8.77086E+03 -1.12185E+04  3.82498E+03 -1.04223E+04 -4.28043E+03
 -6.66637E+03 -1.23578E+04  2.89051E+03 -1.45132E+04  1.26264E+04 -8.77182E+03  1.31053E+04  2.36021E+03
  7.71829E+03  1.07277E+04 -5.70993E+02  1.32469E+04 -9.33883E+03  7.60013E+03 -1.03543E+04 -7.54061E+02
 -8.74215E+03 -8.71940E+03 -1.61779E+03 -9.74221E+03  4.86319E+03 -8.14980E+03  6.11154E+03 -3.89952E+03
  3.66877E+03  1.17747E+03 -9.97308E+02  1.79080E+03  1.15833E+02 -2.98867E+03  1.55301E+03 -5.97234E+03
  8.75429E+03 -2.87860E+03  1.19218E+04  1.31007E+03  1.22171E+04  8.23903E+03  8.40382E+03  1.60610E+04
 -4.35819E+03  1.91912E+04 -1.58023E+04  1.43459E+04 -1.99130E+04  2.30632E+03 -1.55962E+04 -6.66491E+03
 -8.40526E+03 -1.31764E+04 -4.31392E+02 -1.08361E+04  4.30102E+03 -5.35588E+03  3.24635E+03 -4.36400E+03
  3.01956E+03 -2.48517E+03  3.45828E+03 -3.64305E+03  4.74048E+03 -3.39445E+03  6.57126E+03 -6.35951E+02
  8.19558E+03  2.05508E+03  4.25496E+03  7.60859E+03 -1.50739E+03  8.44250E+03 -8.66195E+03  6.29795E+03
 -1.10533E+04 -2.60746E+02 -7.11591E+03 -7.85375E+03 -3.85532E+02 -1.17458E+04  6.01923E+03 -1.23615E+04
  1.28153E+04 -7.01677E+03  1.52096E+04  1.59418E+03  1.02226E+04  1.02333E+04  1.18643E+03  1.43347E+04
 -5.68874E+03  1.13997E+04 -7.83082E+03  3.45430E+03 -4.89112E+03 -1.30442E+03 -2.11400E+03 -1.87622E+03
 -1.42245E+03 -5.40215E+02 -1.45902E+03  3.24405E+03 -4.55605E+03  1.63920E+03 -7.85255E+03 -1.09254E+03
 -4.80605E+03 -7.44730E+03  2.46576E+02 -1.09839E+04  6.53806E+03 -9.27047E+03  1.14142E+04 -3.20965E+03
  1.11908E+04  5.41686E+03  4.50610E+03  9.64358E+03 -2.34519E+03  1.08665E+04 -7.49353E+03  6.03312E+03
 -1.07305E+04  9.21721E+02 -8.47541E+03 -7.35552E+03 -8.17271E+02 -8.83405E+03  4.19252E+03 -6.82082E+03
  6.58443E+03 -1.97242E+03  4.72547E+03  1.98437E+03  1.29138E+03  3.17415E+03  1.55820E+03  1.62951E+03
  2.60788E+03  4.82270E+02  3.32949E+03  1.69549E+03  3.68496E+03  3.79943E+03  2.55141E+03  5.17981E+03
 -2.00333E+03  8.41962E+03 -7.46034E+03  8.67842E+03 -1.03824E+04  2.31000E+03 -1.17205E+04 -4.87142E+03
 -5.19488E+03 -1.01023E+04  1.76030E+03 -1.18529E+04  7.20284E+03 -8.02100E+03  7.89497E+03 -1.87691E+03
  7.19299E+03  4.14946E+03  1.31255E+03  6.31027E+03 -2.57902E+03  3.85370E+03 -4.36866E+03 -4.46988E+02
 -2.35127E+03 -4.60139E+03  2.28249E+03 -4.46024E+03  4.35854E+03 -2.06982E+03  3.94114E+03  7.09985E+02
  1.98265E+03  2.54856E+03  1.76993E+03  9.42506E+02 -1.18815E+02  1.07610E+03  2.38174E+03  5.99630E+02
  1.39889E+03  5.71329E+02  4.31412E+03  1.59001E+03  2.05221E+03  6.06125E+03 -4.33463E+02  6.98864E+03
 -4.81095E+03  4.31104E+03 -6.96706E+03  1.28651E+03 -5.53327E+03 -2.62300E+03 -1.89391E+03 -4.13208E+03
  1.49435E+03 -3.85128E+03  2.88348E+03 -1.90440E+03  1.95779E+03  1.87091E+03 -1.54032E+03  3.52012E+03
 -4.19190E+03  1.52348E+03 -5.23912E+03 -2.56127E+03 -3.41732E+03 -5.71466E+03  5.71770E+02 -5.61250E+03
  3.58355E+03 -3.03475E+03  3.44752E+03 -2.64643E+02  3.98225E+03  7.24604E+02  6.38233E+02  2.74665E+03
 -2.37077E+03  1.17506E+03 -1.43786E+03 -2.07122E+03  1.12809E+03 -3.94685E+03  4.91652E+03 -3.42126E+03
  5.78340E+03  4.18118E+02  6.56683E+03  4.23904E+03  2.06112E+03  6.04872E+03 -2.38361E+03  5.95974E+03
 -5.37856E+03  2.97316E+03 -5.19779E+03 -4.01082E+02 -2.80315E+03 -3.84375E+03  8.78285E+02 -3.85524E+03
  4.65387E+03 -1.97699E+03  3.50844E+03  1.72576E+03  1.10272E+03  3.28029E+03  3.08268E+02  3.26488E+03
 -1.27818E+03  2.40223E+03 -1.66765E+03  3.21470E+02 -1.02756E+03  7.54891E+02 -1.57871E+03  7.35050E+02
 -1.13778E+03  2.24508E+03 -4.35361E+03  2.17464E+03 -6.52454E+03  6.08667E+02 -7.60341E+03 -3.95773E+03
 -3.10605E+03 -8.17032E+03  1.68984E+03 -9.41656E+03  5.86111E+03 -7.95213E+03  8.75183E+03 -3.03895E+03
  8.19502E+03  1.18606E+03  5.22072E+03  5.27511E+03  5.62471E+02  6.52148E+03 -2.79512E+03  4.78449E+03
 -4.62747E+03  1.44899E+03 -2.23812E+03 -6.71369E+02 -6.40664E+02 -3.36675E+02 -9.20308E+02 -4.21635E+01
 -1.54691E+03 -2.00830E+02 -1.49139E+03  1.32562E+02 -8.69324E+02 -2.14374E+03 -4.33013E+01 -2.55584E+03
  3.28838E+03 -1.67743E+03  3.68975E+03  4.92856E+02  5.01579E+03  3.19091E+03  5.28479E+02  5.85501E+03
 -3.05575E+03  7.28136E+03 -5.66949E+03  3.86663E+03 -7.46115E+03 -8.95285E+02 -5.28600E+03 -5.01640E+03
 -1.95886E+03 -6.20626E+03  1.12369E+03 -5.86706E+03  3.81265E+03 -2.78513E+03  3.37557E+03  8.86843E+02
  2.15467E+03  1.83292E+03 -3.88898E+02  1.88568E+03 -1.11413E+03 -3.16160E+02  5.20782E+02 -1.38925E+03
  1.02016E+03 -3.01326E+01  2.07444E+03  6.46264E+02  1.13657E+03  2.65580E+03  1.05783E+03  2.88164E+03
 -3.18199E+03  2.88290E+03 -3.93682E+03 -4.24872E+01 -3.50173E+03 -3.55032E+03 -5.79938E+02 -4.52754E+03
  2.11737E+03 -3.27886E+03  3.66659E+03 -1.25106E+03  5.04337E+03  1.27163E+03  3.17812E+03  3.51034E+03
  6.03371E+02  3.43958E+03 -1.15913E+03  3.02242E+03 -1.85248E+03  1.81011E+03 -2.36599E+03  2.45517E+02
 -1.01112E+03  8.70655E+01 -1.04729E+03  4.78201E+02 -1.95837E+03  4.48967E+02 -3.11902E+03  9.94772E+01
 -2.94308E+03 -1.36716E+03 -2.58753E+02 -4.01227E+03  1.68853E+03 -4.53473E+03  3.10372E+03 -2.15653E+03
  4.53653E+03  3.82014E+02  1.80834E+03  2.29330E+03 -2.36623E+02  4.28195E+03 -2.34496E+03  2.15795E+03
