 $NMID ID='MM_0lb_SNR400_8hz_g55_8.RAW', FMTDAT='(8E13.5)'
 TRAMP=1., VOLUME=1. $END
  3.09829E+05  1.11187E+02  3.38881E+05  2.50516E+05  8.52231E+04  3.37654E+05 -1.32696E+05  2.52255E+05
 -1.91241E+05  8.33251E+04 -1.13135E+05 -3.19215E+04 -3.09324E+02 -5.04830E+04  5.44819E+04 -4.05573E+02
  3.49804E+04  5.30768E+04 -1.66112E+04  7.64742E+04 -6.11770E+04  6.42205E+04 -8.57254E+04  3.29177E+04
 -8.32402E+04 -1.23624E+04 -5.78290E+04 -5.23312E+04 -1.54114E+04 -7.10302E+04  2.83270E+04 -4.70461E+04
  4.11760E+04  3.66674E+03  1.61417E+04  4.82053E+04 -3.54156E+04  4.76948E+04 -6.81951E+04 -1.44272E+02
 -5.50716E+04 -5.81076E+04 -7.12919E+03 -7.96436E+04  3.39767E+04 -5.71163E+04  4.98666E+04 -1.91319E+04
  4.56913E+04  1.14715E+04  3.31987E+04  2.76287E+04  1.51796E+04  3.10998E+04 -5.45728E+03  2.83939E+04
 -2.25501E+04  1.18074E+04 -1.77175E+04 -5.29012E+03  7.44489E+03 -7.64010E+03  2.24686E+04  1.38699E+04
  7.10356E+03  3.89971E+04 -3.48571E+04  3.82181E+04 -6.63272E+04  2.49329E+03 -5.95411E+04 -4.58070E+04
 -1.35079E+04 -6.60169E+04  4.17483E+04 -4.77455E+04  6.21564E+04 -2.10768E+03  3.79189E+04  3.43709E+04
 -5.42556E+03  4.01267E+04 -3.16733E+04  1.83780E+04 -3.40199E+04 -3.51956E+03 -2.00541E+04 -1.25688E+04
 -1.00919E+04 -1.56579E+04 -3.51635E+02 -2.05724E+04  8.95095E+03 -2.35496E+04  1.52179E+04 -1.15455E+04
  1.04442E+04  7.35912E+03 -1.03902E+04  1.26454E+04 -2.31546E+04 -6.87374E+03 -8.55295E+03 -3.89366E+04
  2.54852E+04 -4.75806E+04  5.26978E+04 -2.16321E+04  4.90804E+04  2.13066E+04  1.70548E+04  4.82895E+04
 -1.69737E+04  3.62015E+04 -2.85487E+04  2.63029E+03 -1.23002E+04 -2.99934E+04  2.18036E+04 -3.73685E+04
  4.58273E+04 -1.26064E+04  4.24045E+04  2.56595E+04  2.20046E+04  5.21163E+04 -7.88274E+03  5.82403E+04
 -3.61891E+04  4.00519E+04 -4.96856E+04  1.21049E+04 -4.96160E+04 -1.91281E+04 -2.66014E+04 -4.41498E+04
  8.01368E+03 -4.35073E+04  3.56462E+04 -1.82742E+04  3.36845E+04  1.17949E+04  5.58602E+03  2.09647E+04
 -1.40165E+04  1.04118E+04 -1.09670E+04 -7.74653E+03  6.07675E+03 -1.21639E+04  1.94889E+04  4.77390E+03
  1.51832E+04  2.33951E+04 -4.51745E+03  2.72652E+04 -2.22497E+04  1.48509E+04 -3.25880E+04 -2.75014E+03
 -2.61836E+04 -1.80391E+04 -1.26661E+04 -2.59197E+04  3.75391E+03 -2.75220E+04  2.11467E+04 -2.38771E+04
  3.41010E+04 -1.50387E+04  3.95270E+04  5.73166E+03  2.76834E+04  2.54111E+04  4.42518E+03  4.29189E+04
 -2.00879E+04  3.54354E+04 -3.17200E+04  1.25993E+04 -2.31231E+04 -9.71723E+03 -4.14063E+03 -1.26084E+04
  1.31373E+03 -5.48538E+02 -8.80798E+03  8.09798E+03 -2.15180E+04  5.13853E+03 -2.19893E+04 -1.10697E+04
 -1.24843E+04 -2.52482E+04  5.83658E+03 -2.87757E+04  2.04710E+04 -2.07782E+04  2.41914E+04 -2.27894E+03
  1.46075E+04  1.69598E+04 -1.47001E+02  2.36583E+04 -1.77605E+04  1.41989E+04 -2.45529E+04 -4.86062E+03
 -1.83405E+04 -2.18220E+04 -2.04794E+03 -2.94801E+04  1.40690E+04 -2.52840E+04  2.37144E+04 -1.27822E+04
  2.26767E+04 -3.87324E+02  1.64008E+04  5.20381E+03  9.39153E+03  2.05825E+03  1.27214E+04 -2.17208E+03
  2.35527E+04  2.83028E+03  2.78424E+04  1.94968E+04  1.84386E+04  3.91604E+04 -2.71210E+03  4.72462E+04
 -2.73431E+04  4.03034E+04 -4.46712E+04  2.14935E+04 -4.79042E+04 -3.88640E+03 -3.92798E+04 -2.87489E+04
 -1.55209E+04 -4.06949E+04  1.48361E+04 -3.51084E+04  3.07576E+04 -1.60336E+04  2.47872E+04  7.90957E+03
  9.18836E+03  2.05568E+04 -1.22382E+04  1.70170E+04 -2.07563E+04  2.89567E+03 -1.61601E+04 -1.42974E+04
 -1.28593E+02 -2.04989E+04  1.07405E+04 -1.50318E+04  1.39664E+04 -7.44191E+02  3.15834E+03  1.03458E+04
 -9.36859E+03  4.07900E+03 -1.08123E+04 -7.08686E+03 -1.33127E+03 -1.88560E+04  1.18774E+04 -2.15995E+04
  2.46868E+04 -1.16995E+04  2.86037E+04  3.78758E+03  2.58056E+04  2.01112E+04  1.11225E+04  3.21006E+04
 -6.70253E+03  3.44204E+04 -2.16755E+04  2.12060E+04 -2.36396E+04  4.35246E+03 -1.72266E+04 -5.85513E+03
 -6.25023E+03 -7.47998E+03 -7.25404E+02  1.03398E+03 -3.05242E+03  3.64872E+03 -8.09308E+03  5.98725E+03
 -1.46900E+04 -1.62342E+02 -1.62726E+04 -1.24100E+04 -7.19974E+03 -2.08432E+04  6.94019E+03 -1.64796E+04
  1.45386E+04 -6.44649E+03  9.53562E+03  4.74043E+03 -6.59152E+02  6.94651E+03 -8.46617E+03  7.87550E+02
 -9.03101E+03 -1.10379E+04 -1.37013E+03 -1.76097E+04  1.02044E+04 -1.74915E+04  2.30134E+04 -9.21612E+03
  2.52324E+04  2.83922E+03  1.83692E+04  1.62409E+04  3.01301E+03  2.08687E+04 -1.09794E+04  1.60306E+04
 -1.39782E+04  4.64693E+03 -6.93753E+03 -3.80192E+03  3.42729E+03 -5.00101E+03  9.55828E+03 -7.16820E+02
  8.00859E+03  6.54595E+03  1.53991E+03  1.42993E+04 -9.47754E+03  1.33987E+04 -1.72541E+04  4.18512E+03
 -1.23832E+04 -9.26613E+03 -2.05087E+00 -1.48738E+04  9.85484E+03 -6.86489E+03  1.06907E+04  2.95079E+03
  1.65933E+03  1.12997E+04 -9.18362E+03  1.30258E+04 -1.47020E+04  6.25841E+03 -1.63291E+04 -5.83923E+03
 -9.60109E+03 -1.81882E+04  4.41080E+03 -2.08062E+04  1.77837E+04 -1.18809E+04  1.89404E+04  2.93127E+03
  1.12108E+04  1.50543E+04 -3.34288E+03  1.74512E+04 -1.30461E+04  1.03049E+04 -1.47982E+04 -1.25653E+03
 -1.25919E+04 -1.22507E+04 -8.45907E+02 -1.38357E+04  7.08036E+03 -1.08287E+04  7.48405E+03 -3.42020E+03
  5.78785E+03  3.06175E+03 -5.21370E+02  3.20555E+03 -1.24799E+03 -3.50422E+03  2.79263E+03 -9.02099E+03
  1.27352E+04 -5.74005E+03  1.79475E+04  1.45907E+03  1.76909E+04  1.24538E+04  1.06520E+04  2.30280E+04
 -6.60160E+03  2.72534E+04 -2.19347E+04  2.00503E+04 -2.94087E+04  3.96863E+03 -2.28578E+04 -1.04473E+04
 -1.16659E+04 -1.95119E+04  7.53154E+02 -1.74491E+04  6.01589E+03 -9.92362E+03  4.95692E+03 -5.46791E+03
  4.34646E+03 -3.33065E+03  3.59522E+03 -4.40028E+03  6.44251E+03 -4.20651E+03  9.11299E+03 -1.05158E+03
  1.15148E+04  2.74820E+03  6.57138E+03  1.04068E+04 -2.89333E+03  1.29970E+04 -1.38530E+04  9.78628E+03
 -1.64849E+04 -2.05610E+03 -1.20913E+04 -1.19874E+04 -1.82876E+03 -1.81303E+04  9.32413E+03 -1.82340E+04
  1.88488E+04 -9.43864E+03  2.26858E+04  2.85905E+03  1.59020E+04  1.53489E+04  2.12000E+03  2.06744E+04
 -9.35295E+03  1.54714E+04 -1.16078E+04  4.78176E+03 -8.38485E+03 -1.36151E+03 -2.84885E+03 -2.60683E+03
 -2.95710E+03 -1.11471E+02 -2.15392E+03  3.19097E+03 -6.78438E+03  2.79644E+03 -1.07057E+04 -2.33864E+03
 -8.59832E+03 -1.12936E+04  3.88439E+02 -1.67709E+04  1.17294E+04 -1.48289E+04  1.73131E+04 -4.95936E+03
  1.63359E+04  8.47275E+03  8.54147E+03  1.59274E+04 -3.06414E+03  1.66428E+04 -1.28777E+04  1.15805E+04
 -1.64443E+04 -4.03203E+02 -1.21374E+04 -9.63184E+03 -1.30717E+03 -1.44540E+04  7.59378E+03 -1.10191E+04
  9.88263E+03 -3.44192E+03  7.55958E+03  2.43884E+03  3.18532E+03  4.64713E+03  2.76221E+03  3.18115E+03
  3.27105E+03  2.15656E+02  4.38338E+03  2.64893E+03  5.28432E+03  5.84670E+03  4.06306E+03  9.24229E+03
 -2.70647E+03  1.41098E+04 -1.19624E+04  1.35536E+04 -1.72239E+04  4.06663E+03 -1.92375E+04 -7.05917E+03
 -8.31104E+03 -1.72592E+04  1.79282E+03 -1.97109E+04  1.00874E+04 -1.26210E+04  1.42605E+04 -3.78731E+03
  1.08354E+04  6.14039E+03  2.65067E+03  1.09610E+04 -4.86823E+03  6.45467E+03 -7.69222E+03 -1.70377E+03
 -3.74368E+03 -8.51378E+03  3.39230E+03 -7.45626E+03  7.25712E+03 -3.91079E+03  8.13983E+03  1.16894E+03
  4.68213E+03  3.36344E+03  1.01921E+03  3.12577E+03 -1.39519E+03  2.41359E+03  1.58078E+03 -7.26694E+02
  2.47453E+03 -6.47425E+01  7.34321E+03  3.05538E+03  4.49270E+03  9.07160E+03 -8.49452E+02  1.19252E+04
 -8.71237E+03  7.81250E+03 -1.15258E+04  1.26655E+03 -1.10842E+04 -4.07281E+03 -4.89880E+03 -6.93534E+03
  5.18899E+02 -7.64562E+03  4.31918E+03 -3.59004E+03  4.32880E+03  3.44310E+03 -6.56110E+02  6.67638E+03
 -8.00092E+03  3.26524E+03 -9.15462E+03 -3.44094E+03 -5.71696E+03 -1.04923E+04  1.15263E+03 -1.05811E+04
  6.40053E+03 -5.77853E+03  6.83434E+03 -2.98444E+02  6.55163E+03  3.23702E+03  1.03472E+03  5.10149E+03
 -2.54674E+03  1.75608E+03 -4.05407E+03 -4.14691E+03  8.05185E+02 -7.91837E+03  8.59589E+03 -6.65975E+03
  1.09273E+04  1.46145E+03  1.13292E+04  8.40279E+03  3.95213E+03  1.21355E+04 -5.00096E+03  1.16552E+04
 -9.29996E+03  5.36916E+03 -9.72026E+03 -1.45625E+03 -5.45078E+03 -8.11263E+03  9.02231E+02 -8.44118E+03
  7.64497E+03 -3.21977E+03  6.55527E+03  3.52452E+03  2.72102E+03  6.49270E+03 -1.26791E+03  5.68527E+03
 -2.52623E+03  4.23828E+03 -3.83207E+03  1.63170E+03 -1.60660E+03  8.26932E+02 -1.65500E+03  2.58122E+03
 -3.55284E+03  4.71627E+03 -8.13051E+03  4.79647E+03 -1.21207E+04  6.09549E+02 -1.35064E+04 -8.00778E+03
 -7.72042E+03 -1.60855E+04  2.94689E+03 -1.80026E+04  1.24484E+04 -1.49492E+04  1.78938E+04 -5.93911E+03
  1.77548E+04  3.65579E+03  9.88188E+03  1.08673E+04  1.63486E+03  1.20820E+04 -5.56408E+03  9.72170E+03
 -6.38985E+03  3.29582E+03 -3.93879E+03 -1.46564E+03 -2.12044E+03 -1.49670E+03 -1.16144E+03  4.98672E+02
 -2.30087E+03 -2.39789E+02 -3.25158E+03 -2.03007E+02 -2.76887E+02 -2.56022E+03  7.11285E+02 -4.53137E+03
  4.71928E+03 -4.31672E+03  8.15773E+03  7.67070E+02  9.80189E+03  6.85806E+03  2.12213E+03  1.28309E+04
 -6.23143E+03  1.59067E+04 -1.35210E+04  8.41945E+03 -1.55712E+04 -1.50538E+03 -1.21495E+04 -9.38113E+03
 -5.40278E+03 -1.36263E+04  3.31724E+03 -1.25424E+04  8.81428E+03 -6.32214E+03  9.41905E+03  6.47615E+01
  4.93209E+03  3.40072E+03 -1.09161E+03  3.94668E+03 -2.98214E+03 -8.67591E+02  9.59055E+02 -3.20727E+03
  4.13852E+03 -2.26192E+03  5.83995E+03  1.74330E+03  3.54007E+03  5.05424E+03  5.53425E+02  7.45621E+03
 -6.27220E+03  5.59134E+03 -9.60361E+03  9.47619E+02 -8.10853E+03 -7.35205E+03 -1.95343E+03 -1.14804E+04
  6.25273E+03 -9.74782E+03  1.03392E+04 -2.59757E+03  1.04465E+04  2.52843E+03  6.88327E+03  8.30953E+03
  1.57024E+03  8.41899E+03 -3.52230E+03  6.58691E+03 -5.95113E+03  3.99837E+03 -4.34381E+03  6.80157E+02
 -2.41831E+03 -4.80098E+02 -2.52155E+03  2.72230E+02 -3.79676E+03  1.83279E+03 -6.85549E+03 -1.60621E+03
 -6.11676E+03 -5.06945E+03 -2.03908E+03 -8.98275E+03  3.66424E+03 -9.98360E+03  7.44256E+03 -4.08837E+03
  9.55867E+03  1.09323E+03  4.02214E+03  6.56465E+03 -2.69380E+02  9.30902E+03 -7.14341E+03  6.28742E+03
