 $NMID ID='MM_0lb_SNR400_9hz_g60_52.RAW', FMTDAT='(8E13.5)'
 TRAMP=1., VOLUME=1. $END
  3.09911E+05  1.18431E+02  3.38237E+05  2.50956E+05  8.56724E+04  3.39040E+05 -1.32374E+05  2.51679E+05
 -1.90292E+05  8.31780E+04 -1.12904E+05 -3.25349E+04  5.18418E+00 -5.09437E+04  5.42687E+04 -5.37684E+02
  3.57410E+04  5.25755E+04 -1.64842E+04  7.56879E+04 -6.13516E+04  6.50586E+04 -8.54327E+04  3.31921E+04
 -8.27272E+04 -1.16386E+04 -5.85510E+04 -5.25945E+04 -1.44987E+04 -7.05263E+04  2.76795E+04 -4.64204E+04
  4.19967E+04  3.58513E+03  1.72992E+04  4.90406E+04 -3.46797E+04  4.86085E+04 -6.89360E+04 -3.57770E+02
 -5.53908E+04 -5.77212E+04 -8.30370E+03 -7.96934E+04  3.57919E+04 -5.78794E+04  5.00649E+04 -1.79930E+04
  4.57982E+04  1.21118E+04  3.30834E+04  2.73762E+04  1.63777E+04  3.08946E+04 -5.93056E+03  2.79398E+04
 -2.29052E+04  1.22157E+04 -1.73914E+04 -5.80099E+03  7.02998E+03 -7.72613E+03  2.31596E+04  1.38574E+04
  7.88640E+03  3.89651E+04 -3.48470E+04  3.62531E+04 -6.59769E+04  1.35557E+03 -5.95921E+04 -4.50125E+04
 -1.29931E+04 -6.60198E+04  4.25654E+04 -4.76764E+04  6.16811E+04 -2.24851E+03  3.78787E+04  3.59773E+04
 -3.87423E+03  4.03345E+04 -3.19753E+04  2.00291E+04 -3.42468E+04 -3.44740E+03 -2.02222E+04 -1.28772E+04
 -9.97668E+03 -1.52158E+04 -4.52582E+02 -2.03309E+04  9.28143E+03 -2.32841E+04  1.62528E+04 -1.24781E+04
  1.02828E+04  6.74564E+03 -1.01502E+04  1.26148E+04 -2.39475E+04 -7.11742E+03 -9.52719E+03 -3.79463E+04
  2.52678E+04 -4.78277E+04  5.28047E+04 -2.12590E+04  4.96815E+04  2.06900E+04  1.77364E+04  4.79749E+04
 -1.73181E+04  3.70422E+04 -2.83280E+04  2.90325E+03 -1.26499E+04 -2.93217E+04  2.17104E+04 -3.84800E+04
  4.48838E+04 -1.13410E+04  4.12660E+04  2.50757E+04  2.20985E+04  5.25517E+04 -8.77988E+03  5.83929E+04
 -3.62122E+04  3.90468E+04 -4.82331E+04  1.11412E+04 -4.83042E+04 -1.95832E+04 -2.64933E+04 -4.26868E+04
  7.60439E+03 -4.36631E+04  3.53505E+04 -1.71846E+04  3.28033E+04  1.14432E+04  4.64168E+03  2.05050E+04
 -1.40323E+04  1.00472E+04 -1.14911E+04 -7.13481E+03  5.69224E+03 -1.08667E+04  1.84237E+04  6.09091E+03
  1.45148E+04  2.28498E+04 -5.29846E+03  2.76860E+04 -2.38736E+04  1.44387E+04 -3.28849E+04 -2.65315E+03
 -2.65794E+04 -1.94060E+04 -1.20980E+04 -2.61520E+04  5.02536E+03 -2.66920E+04  2.09459E+04 -2.39616E+04
  3.43559E+04 -1.46067E+04  3.95345E+04  5.54940E+03  2.77930E+04  2.48803E+04  3.78937E+03  4.16831E+04
 -2.03752E+04  3.46822E+04 -3.09268E+04  1.14585E+04 -2.24187E+04 -9.95948E+03 -5.56339E+03 -1.33818E+04
  1.01805E+03 -5.91785E+02 -8.32923E+03  8.98367E+03 -2.17599E+04  5.66627E+03 -2.10783E+04 -9.61171E+03
 -1.32344E+04 -2.40906E+04  6.00426E+03 -2.88998E+04  1.89586E+04 -2.03259E+04  2.37004E+04 -1.86537E+03
  1.55671E+04  1.70995E+04 -1.62743E+03  2.48833E+04 -1.82426E+04  1.37938E+04 -2.41780E+04 -4.88071E+03
 -1.84356E+04 -2.17373E+04 -1.83492E+03 -2.91581E+04  1.31850E+04 -2.46017E+04  2.41845E+04 -1.21825E+04
  2.22104E+04  1.03395E+02  1.65557E+04  5.88465E+03  9.97909E+03  1.75787E+03  1.25013E+04 -1.83682E+03
  2.29377E+04  2.76506E+03  2.66506E+04  1.92375E+04  1.81553E+04  3.91655E+04 -2.57983E+03  4.60059E+04
 -2.61332E+04  3.92190E+04 -4.38213E+04  1.95905E+04 -4.72459E+04 -4.31457E+03 -3.82189E+04 -2.79345E+04
 -1.49543E+04 -3.90239E+04  1.30081E+04 -3.43939E+04  2.88301E+04 -1.63505E+04  2.54525E+04  7.35287E+03
  8.46787E+03  1.91071E+04 -1.20050E+04  1.58713E+04 -2.20867E+04  2.28728E+03 -1.56585E+04 -1.32628E+04
 -5.89990E+02 -2.00498E+04  1.05924E+04 -1.46864E+04  1.38705E+04 -1.26275E+03  3.54667E+03  9.43989E+03
 -9.70398E+03  4.60699E+03 -1.01903E+04 -7.43784E+03 -2.76182E+03 -1.95426E+04  1.20154E+04 -2.09083E+04
  2.39901E+04 -1.20695E+04  2.84555E+04  3.17511E+03  2.42286E+04  1.92488E+04  1.16733E+04  3.11580E+04
 -5.73269E+03  3.31467E+04 -2.18891E+04  2.08213E+04 -2.40310E+04  3.93215E+03 -1.52326E+04 -5.30543E+03
 -6.81222E+03 -8.11459E+03 -5.93331E+02  3.70679E+02 -2.23260E+03  2.76342E+03 -8.44333E+03  5.99810E+03
 -1.41454E+04 -5.35268E+02 -1.59848E+04 -1.22297E+04 -6.23071E+03 -1.97287E+04  6.49601E+03 -1.68270E+04
  1.40508E+04 -7.17480E+03  8.86329E+03  4.19298E+03 -2.06443E+02  6.23429E+03 -8.92552E+03 -6.22045E+02
 -7.71967E+03 -1.12396E+04 -1.40041E+03 -1.63228E+04  9.12664E+03 -1.72389E+04  2.16362E+04 -9.18455E+03
  2.52400E+04  2.64787E+03  1.80990E+04  1.48199E+04  2.86024E+03  2.06248E+04 -9.09640E+03  1.68192E+04
 -1.41974E+04  5.23786E+03 -6.59818E+03 -3.79826E+03  2.89281E+03 -3.78596E+03  8.91717E+03 -8.24407E+02
  8.14097E+03  7.62891E+03  1.16272E+03  1.36549E+04 -9.88563E+03  1.28096E+04 -1.72149E+04  2.65539E+03
 -1.19185E+04 -9.26889E+03 -1.88133E+02 -1.48975E+04  9.67027E+03 -7.08823E+03  1.03713E+04  2.77392E+03
  2.80753E+03  1.06809E+04 -8.59812E+03  1.12906E+04 -1.47523E+04  6.01107E+03 -1.50741E+04 -5.61731E+03
 -8.82048E+03 -1.62976E+04  3.90035E+03 -2.02131E+04  1.69430E+04 -1.11788E+04  1.93981E+04  3.35867E+03
  1.06627E+04  1.33856E+04 -1.48963E+03  1.74807E+04 -1.28517E+04  9.08965E+03 -1.47379E+04 -1.40648E+03
 -1.09108E+04 -1.16078E+04 -2.34481E+03 -1.27165E+04  6.48862E+03 -9.91603E+03  8.94811E+03 -3.67160E+03
  4.46240E+03  2.41634E+03 -4.63603E+02  3.16067E+03 -1.03246E+03 -4.07494E+03  3.10693E+03 -7.50500E+03
  1.22961E+04 -5.01083E+03  1.75823E+04  1.30479E+03  1.69974E+04  1.21362E+04  1.09220E+04  2.22768E+04
 -5.60523E+03  2.58982E+04 -2.21748E+04  1.82732E+04 -2.78012E+04  3.39409E+03 -2.19629E+04 -1.00417E+04
 -1.05010E+04 -1.84527E+04 -1.91730E+02 -1.57229E+04  5.48777E+03 -8.84241E+03  5.49931E+03 -5.31521E+03
  4.29913E+03 -3.79880E+03  4.11433E+03 -3.10499E+03  6.19571E+03 -3.93811E+03  8.43129E+03 -1.86011E+03
  1.20119E+04  2.23114E+03  7.14846E+03  1.04351E+04 -2.30911E+03  1.27276E+04 -1.19718E+04  9.77156E+03
 -1.52720E+04 -1.54755E+03 -1.04728E+04 -1.12755E+04 -1.50403E+03 -1.74155E+04  1.06567E+04 -1.80670E+04
  1.76448E+04 -9.43182E+03  2.09955E+04  2.83849E+03  1.44049E+04  1.52416E+04  2.27211E+03  1.95317E+04
 -7.94675E+03  1.48428E+04 -1.18061E+04  5.72623E+03 -8.11738E+03 -1.94005E+03 -2.66056E+03 -2.72998E+03
 -1.32298E+03  1.67831E+02 -2.86886E+03  3.10276E+03 -6.36670E+03  2.27867E+03 -1.07111E+04 -1.15294E+03
 -8.00038E+03 -1.11159E+04 -3.13767E+02 -1.54042E+04  9.99282E+03 -1.57943E+04  1.59332E+04 -4.24177E+03
  1.48418E+04  7.63783E+03  7.43889E+03  1.37864E+04 -2.77153E+03  1.61074E+04 -1.15991E+04  1.10230E+04
 -1.53639E+04  5.33697E+02 -1.20942E+04 -9.88299E+03 -2.28983E+03 -1.37519E+04  7.13669E+03 -9.88137E+03
  1.03948E+04 -3.62545E+03  6.86962E+03  3.19165E+03  2.11177E+03  5.59092E+03  9.88520E+02  3.08588E+03
  2.80562E+03  8.48531E+02  4.05222E+03  1.78150E+03  4.91936E+03  5.28491E+03  4.39747E+03  8.29053E+03
 -3.62749E+03  1.30199E+04 -1.04939E+04  1.24659E+04 -1.75178E+04  3.20437E+03 -1.65686E+04 -8.11557E+03
 -7.51788E+03 -1.60219E+04  2.53496E+03 -1.79620E+04  9.94316E+03 -1.10624E+04  1.43600E+04 -2.53682E+03
  1.09339E+04  6.66156E+03  2.87242E+03  9.30869E+03 -4.87438E+03  6.35345E+03 -6.76531E+03 -1.14162E+01
 -3.93053E+03 -7.22147E+03  4.01934E+03 -6.63782E+03  6.39675E+03 -3.17780E+03  5.76347E+03  8.13589E+02
  4.09631E+03  3.16580E+03  1.57941E+03  2.32162E+03 -8.23264E+02  2.40945E+03  8.49240E+02 -4.74258E+02
  1.98399E+03 -9.70149E+02  7.32920E+03  2.46339E+03  3.39978E+03  8.71625E+03 -1.70036E+03  1.13091E+04
 -8.47421E+03  7.70933E+03 -1.10503E+04  2.21990E+03 -9.50417E+03 -3.99319E+03 -3.40423E+03 -6.50768E+03
  4.71239E+02 -6.61979E+03  4.42493E+03 -3.26941E+03  3.50841E+03  2.88188E+03 -1.68853E+03  5.96640E+03
 -7.21728E+03  3.18907E+03 -7.53458E+03 -4.00153E+03 -4.60308E+03 -1.03390E+04  2.29814E+03 -8.75763E+03
  6.03206E+03 -5.41713E+03  6.29840E+03 -8.88937E+02  5.25131E+03  2.02817E+03  9.16077E+02  5.26094E+03
 -1.84018E+03  2.21734E+03 -5.16321E+03 -3.09429E+03  1.12928E+03 -6.45188E+03  8.53617E+03 -5.92337E+03
  1.04000E+04  1.22978E+03  9.44771E+03  7.26668E+03  2.50766E+03  1.14030E+04 -4.02061E+03  1.06209E+04
 -9.47367E+03  5.19556E+03 -8.32010E+03 -8.89729E+02 -5.71165E+03 -7.90519E+03  1.42677E+03 -6.98432E+03
  6.69883E+03 -3.38466E+03  6.23864E+03  2.61285E+03  1.83962E+03  5.95822E+03 -2.03259E+03  5.67312E+03
 -3.13628E+03  3.83197E+03 -3.08337E+03  1.28304E+03 -1.81133E+03  1.19056E+03 -9.21405E+02  1.52143E+03
 -2.92796E+03  4.59066E+03 -7.83230E+03  4.17699E+03 -1.16694E+04  3.95818E+02 -1.26895E+04 -7.13142E+03
 -6.34556E+03 -1.43990E+04  3.04922E+03 -1.61713E+04  1.05513E+04 -1.27308E+04  1.58158E+04 -4.75305E+03
  1.51533E+04  3.04487E+03  8.75613E+03  9.96224E+03  1.45332E+03  1.13779E+04 -4.29165E+03  7.55036E+03
 -6.50692E+03  3.70057E+03 -4.10157E+03 -9.72633E+02 -1.54440E+03 -1.70484E+03 -8.77043E+02 -5.50227E+02
 -1.44357E+03 -4.21814E+02 -2.25964E+03 -4.62625E+02 -1.05573E+03 -3.18162E+03  1.93010E+01 -4.87568E+03
  4.69015E+03 -3.13933E+03  6.85837E+03 -8.80179E+02  8.21128E+03  6.02315E+03  2.08647E+03  1.12037E+04
 -4.74326E+03  1.24487E+04 -1.26512E+04  8.33103E+03 -1.46901E+04 -2.06520E+03 -1.02547E+04 -8.54808E+03
 -3.85044E+03 -1.18515E+04  2.72582E+03 -1.09394E+04  7.01574E+03 -6.23380E+03  7.78350E+03  4.70038E+02
  3.27990E+03  3.99541E+03 -1.52617E+02  2.59451E+03 -2.77208E+03 -5.64899E+02  3.05646E+02 -2.62800E+03
  4.08904E+03 -2.34797E+03  4.85054E+03  1.59286E+03  3.60061E+03  4.03248E+03  7.98555E+02  5.75166E+03
 -4.12108E+03  5.24994E+03 -7.57756E+03  5.37028E+02 -7.11238E+03 -5.01962E+03 -9.72808E+02 -9.55443E+03
  5.68127E+03 -7.84096E+03  9.32385E+03 -2.54248E+03  9.19236E+03  2.00724E+03  5.27539E+03  7.23453E+03
  9.02134E+02  7.69867E+03 -3.14127E+03  5.89047E+03 -4.79319E+03  3.95339E+03 -4.07430E+03  1.34706E+02
 -2.49111E+03 -2.83905E+02 -2.55141E+03  7.38809E+02 -4.17258E+03  1.53586E+03 -5.24546E+03 -1.23235E+03
 -5.75203E+03 -3.79056E+03 -1.65255E+03 -8.17849E+03  3.71029E+03 -8.04482E+03  5.56108E+03 -4.64350E+03
  7.16645E+03  1.04540E+03  3.97984E+03  5.27340E+03  7.17368E+01  7.81246E+03 -5.82638E+03  6.70216E+03
