 $NMID ID='MM_0lb_SNR400_7hz_g40_81.RAW', FMTDAT='(8E13.5)'
 TRAMP=1., VOLUME=1. $END
  3.10093E+05  1.16479E+02  3.38654E+05  2.50744E+05  8.47119E+04  3.39703E+05 -1.32229E+05  2.52115E+05
 -1.91614E+05  8.37483E+04 -1.13104E+05 -3.09061E+04  5.46268E+02 -5.06050E+04  5.34561E+04 -3.75419E+02
  3.58789E+04  5.28410E+04 -1.66859E+04  7.66650E+04 -6.14938E+04  6.49934E+04 -8.60354E+04  3.17971E+04
 -8.38082E+04 -1.14474E+04 -5.87302E+04 -5.17831E+04 -1.53927E+04 -7.04204E+04  2.85056E+04 -4.75061E+04
  4.14474E+04  3.55161E+03  1.58951E+04  4.97906E+04 -3.47343E+04  4.84888E+04 -6.81267E+04 -1.39553E+02
 -5.51501E+04 -5.85488E+04 -7.99952E+03 -7.93559E+04  3.48440E+04 -5.70715E+04  4.93170E+04 -1.84832E+04
  4.52196E+04  1.20782E+04  3.41979E+04  2.68883E+04  1.58060E+04  3.13606E+04 -5.66616E+03  2.78829E+04
 -2.22130E+04  1.08961E+04 -1.78806E+04 -5.22161E+03  8.36562E+03 -6.60322E+03  2.36878E+04  1.34207E+04
  7.33022E+03  3.74623E+04 -3.33521E+04  3.78534E+04 -6.61113E+04  2.03006E+03 -5.86673E+04 -4.49130E+04
 -1.30935E+04 -6.62855E+04  4.18830E+04 -4.84785E+04  6.19275E+04 -3.33657E+03  3.77701E+04  3.40448E+04
 -6.31791E+03  3.97778E+04 -3.18879E+04  1.98123E+04 -3.42462E+04 -3.37593E+03 -1.92509E+04 -1.19984E+04
 -1.05447E+04 -1.49760E+04 -1.07510E+03 -1.99486E+04  9.83910E+03 -2.42744E+04  1.56101E+04 -1.28115E+04
  1.01720E+04  6.50087E+03 -1.10865E+04  1.34149E+04 -2.41130E+04 -6.62448E+03 -8.90673E+03 -3.80338E+04
  2.60050E+04 -4.70141E+04  5.32417E+04 -2.16776E+04  4.93699E+04  2.16411E+04  1.78912E+04  4.74992E+04
 -1.80888E+04  3.64045E+04 -2.76146E+04  3.59454E+03 -1.21862E+04 -3.11533E+04  2.17748E+04 -3.74085E+04
  4.70023E+04 -1.17458E+04  4.15855E+04  2.49931E+04  2.18549E+04  5.18508E+04 -8.72907E+03  5.78415E+04
 -3.65970E+04  3.96986E+04 -4.88565E+04  1.17676E+04 -4.88554E+04 -1.95199E+04 -2.70392E+04 -4.26083E+04
  8.20678E+03 -4.37630E+04  3.42161E+04 -1.69125E+04  3.35087E+04  1.16567E+04  5.49379E+03  2.12077E+04
 -1.44790E+04  1.02176E+04 -1.20630E+04 -7.65106E+03  5.18720E+03 -1.14177E+04  1.96157E+04  5.79849E+03
  1.44174E+04  2.31267E+04 -4.40262E+03  2.75362E+04 -2.42427E+04  1.42483E+04 -3.27683E+04 -2.43614E+03
 -2.68971E+04 -1.93451E+04 -1.24172E+04 -2.64014E+04  4.76150E+03 -2.70767E+04  2.10048E+04 -2.45929E+04
  3.38347E+04 -1.42652E+04  3.87929E+04  6.29104E+03  2.79449E+04  2.58467E+04  4.58405E+03  4.23849E+04
 -2.04934E+04  3.43933E+04 -3.09609E+04  1.27059E+04 -2.29526E+04 -9.18232E+03 -5.93764E+03 -1.21619E+04
  9.58977E+02 -1.13242E+02 -9.49826E+03  8.78763E+03 -2.15409E+04  5.73094E+03 -2.18158E+04 -1.02293E+04
 -1.28825E+04 -2.45430E+04  6.36890E+03 -2.91128E+04  1.87586E+04 -2.04870E+04  2.39014E+04 -1.46834E+03
  1.54778E+04  1.63606E+04 -1.60207E+03  2.49444E+04 -1.81300E+04  1.34682E+04 -2.57336E+04 -5.33624E+03
 -1.84847E+04 -2.26048E+04 -2.44613E+03 -2.97354E+04  1.33435E+04 -2.52086E+04  2.36432E+04 -1.32341E+04
  2.31015E+04 -6.66680E+01  1.65807E+04  6.57400E+03  1.01440E+04  1.94138E+03  1.28285E+04 -2.13518E+03
  2.34840E+04  3.46291E+03  2.73763E+04  1.91417E+04  1.87462E+04  3.92412E+04 -1.97657E+03  4.71112E+04
 -2.60439E+04  3.96412E+04 -4.53662E+04  2.05299E+04 -4.85036E+04 -3.58033E+03 -3.78345E+04 -2.82944E+04
 -1.51251E+04 -3.99965E+04  1.31491E+04 -3.47146E+04  2.94694E+04 -1.63169E+04  2.53050E+04  8.89157E+03
  8.10373E+03  1.86573E+04 -1.29454E+04  1.68116E+04 -2.10481E+04  2.80421E+03 -1.61225E+04 -1.37252E+04
 -2.15729E+03 -2.09128E+04  1.08397E+04 -1.53469E+04  1.51459E+04 -1.10998E+03  3.43234E+03  8.96535E+03
 -9.02986E+03  4.74543E+03 -9.60611E+03 -6.79459E+03 -1.89720E+03 -1.98493E+04  1.15227E+04 -2.15828E+04
  2.53128E+04 -1.19682E+04  2.87924E+04  3.96978E+03  2.50216E+04  1.99493E+04  1.11392E+04  3.22406E+04
 -6.18633E+03  3.39528E+04 -2.16490E+04  2.12024E+04 -2.43557E+04  3.91269E+03 -1.73005E+04 -6.31466E+03
 -6.97924E+03 -7.62821E+03 -4.69555E+02  2.56547E+02 -3.51000E+03  3.93761E+03 -8.07863E+03  5.93811E+03
 -1.62396E+04 -1.46247E+03 -1.60466E+04 -1.23234E+04 -5.73080E+03 -2.02050E+04  7.11363E+03 -1.69512E+04
  1.45082E+04 -5.78115E+03  9.47543E+03  4.85244E+03  5.60754E+02  6.36436E+03 -9.35298E+03  8.05402E+01
 -8.79029E+03 -1.14798E+04 -1.35275E+03 -1.81323E+04  1.02032E+04 -1.68840E+04  2.16391E+04 -1.05525E+04
  2.53625E+04  2.62146E+03  1.85119E+04  1.57153E+04  3.86276E+03  2.15552E+04 -1.01914E+04  1.65925E+04
 -1.26998E+04  4.76347E+03 -6.92448E+03 -4.26737E+03  2.94814E+03 -5.55057E+03  1.00625E+04  8.15843E+02
  8.52938E+03  6.70046E+03  1.42611E+03  1.41996E+04 -1.04646E+04  1.40524E+04 -1.77832E+04  2.97440E+03
 -1.21667E+04 -9.39616E+03  2.14276E+02 -1.52120E+04  9.38196E+03 -7.28608E+03  1.21308E+04  3.78760E+03
  2.44538E+03  1.19785E+04 -8.64375E+03  1.26645E+04 -1.57443E+04  4.28264E+03 -1.55144E+04 -6.10922E+03
 -8.84876E+03 -1.81863E+04  4.82997E+03 -2.05341E+04  1.70232E+04 -1.14954E+04  1.89342E+04  3.03950E+03
  1.07867E+04  1.52666E+04 -2.16097E+03  1.71206E+04 -1.26427E+04  1.02659E+04 -1.46544E+04 -1.96919E+03
 -1.13469E+04 -1.19489E+04 -1.15381E+03 -1.30133E+04  8.24857E+03 -1.09003E+04  8.97329E+03 -3.28880E+03
  4.59863E+03  2.48196E+03 -4.28868E+02  2.61931E+03 -8.16559E+02 -3.61637E+03  2.31841E+03 -8.96431E+03
  1.34015E+04 -6.14055E+03  1.91782E+04  1.69370E+03  1.79107E+04  1.26873E+04  1.14311E+04  2.43537E+04
 -6.09955E+03  2.72149E+04 -2.25527E+04  2.05758E+04 -2.89683E+04  3.18127E+03 -2.47344E+04 -1.03004E+04
 -1.24510E+04 -1.83830E+04  6.12074E+01 -1.66214E+04  6.02585E+03 -9.26923E+03  6.03267E+03 -6.34856E+03
  3.60081E+03 -3.77184E+03  4.22086E+03 -4.10117E+03  5.99679E+03 -4.79608E+03  9.78781E+03 -1.53225E+03
  1.13918E+04  2.54574E+03  7.12734E+03  1.06980E+04 -3.04116E+03  1.38376E+04 -1.26504E+04  9.76845E+03
 -1.69846E+04 -1.41258E+03 -1.09900E+04 -1.14761E+04 -2.39366E+03 -1.97665E+04  9.22017E+03 -1.89603E+04
  1.92878E+04 -1.06309E+04  2.36239E+04  3.54143E+03  1.54273E+04  1.57044E+04  3.02197E+03  2.09180E+04
 -8.89839E+03  1.65467E+04 -1.23218E+04  5.28791E+03 -8.84367E+03 -1.98673E+03 -4.19068E+03 -3.00747E+03
 -1.20211E+03 -4.96366E+02 -3.45671E+03  2.09346E+03 -7.18195E+03  3.08895E+03 -1.20719E+04 -1.25762E+03
 -8.62413E+03 -1.23659E+04 -6.44131E+02 -1.74941E+04  1.04581E+04 -1.60668E+04  1.77767E+04 -4.93514E+03
  1.72348E+04  8.12230E+03  7.61890E+03  1.57385E+04 -3.36759E+03  1.85293E+04 -1.21728E+04  1.17419E+04
 -1.73648E+04 -1.92440E+02 -1.39643E+04 -1.11693E+04 -7.73706E+02 -1.50111E+04  7.48606E+03 -1.03802E+04
  1.11939E+04 -3.09593E+03  7.65305E+03  3.30619E+03  2.84664E+03  5.60369E+03  9.49744E+02  2.10831E+03
  1.61468E+03  1.43137E+03  4.48273E+03  2.50101E+03  5.43263E+03  6.73309E+03  5.59478E+03  1.04108E+04
 -3.74195E+03  1.36121E+04 -1.23234E+04  1.42005E+04 -1.91924E+04  3.41865E+03 -1.90332E+04 -8.06477E+03
 -9.16340E+03 -1.83319E+04  2.60420E+03 -2.00287E+04  1.08845E+04 -1.28427E+04  1.61272E+04 -3.07530E+03
  1.14348E+04  7.10978E+03  3.06661E+03  1.12764E+04 -5.54200E+03  7.06681E+03 -8.39828E+03 -8.49250E+02
 -3.85680E+03 -8.30352E+03  4.17009E+03 -8.43878E+03  8.39951E+03 -4.36921E+03  7.38038E+03  1.88368E+03
  4.87921E+03  3.98836E+03  1.55689E+03  3.13670E+03 -1.24266E+03  3.21807E+03  1.85250E+03  1.46917E+02
  3.93847E+03 -1.43798E+03  7.51597E+03  2.37200E+03  4.12139E+03  9.87872E+03 -9.91598E+02  1.34960E+04
 -9.22686E+03  9.51209E+03 -1.13369E+04  2.44270E+03 -1.03240E+04 -3.44230E+03 -3.63376E+03 -7.21533E+03
  8.29887E+02 -6.36911E+03  5.29102E+03 -3.87785E+03  4.34980E+03  2.71893E+03 -1.82926E+03  5.94059E+03
 -8.12131E+03  3.38515E+03 -8.89401E+03 -4.72848E+03 -6.13519E+03 -1.00651E+04  2.04249E+03 -1.08402E+04
  7.46612E+03 -5.98988E+03  7.13428E+03 -8.64558E+02  6.43033E+03  3.82729E+03  1.10183E+03  5.48351E+03
 -3.00259E+03  1.99947E+03 -4.86153E+03 -3.64953E+03  1.85624E+03 -8.05131E+03  9.62544E+03 -5.78258E+03
  1.27560E+04  6.31930E+02  1.13704E+04  9.42266E+03  3.77958E+03  1.27708E+04 -4.81635E+03  1.23661E+04
 -1.03036E+04  5.82920E+03 -1.04240E+04 -1.74101E+03 -6.49240E+03 -7.64202E+03  1.95892E+03 -7.92941E+03
  8.44775E+03 -2.92800E+03  5.99822E+03  3.82636E+03  2.35711E+03  7.48788E+03 -6.60424E+02  5.81318E+03
 -3.35992E+03  3.46152E+03 -3.33669E+03  5.92156E+02 -6.28537E+02  1.15413E+03 -1.62312E+03  2.37386E+03
 -2.67767E+03  4.75533E+03 -7.96224E+03  4.95492E+03 -1.30897E+04 -2.92833E+02 -1.43558E+04 -9.21404E+03
 -8.10312E+03 -1.69765E+04  3.35010E+03 -2.00355E+04  1.27009E+04 -1.51959E+04  1.91983E+04 -6.10474E+03
  1.76351E+04  3.35905E+03  1.08475E+04  1.28615E+04  1.29923E+03  1.39879E+04 -5.09652E+03  1.07861E+04
 -8.14533E+03  3.73452E+03 -4.77334E+03 -1.74832E+03 -1.64086E+03 -1.48508E+03 -2.13309E+02  4.78783E+02
 -1.56624E+03  2.19931E+02 -3.99693E+03 -7.26414E+02 -1.38996E+03 -3.44333E+03  3.65630E+02 -5.48614E+03
  6.28122E+03 -4.89993E+03  8.12109E+03 -4.19502E+01  9.91423E+03  7.82634E+03  2.08375E+03  1.31702E+04
 -6.35917E+03  1.57709E+04 -1.45956E+04  8.61117E+03 -1.76743E+04 -6.13021E+02 -1.34477E+04 -1.02681E+04
 -4.62490E+03 -1.51587E+04  2.98515E+03 -1.31200E+04  9.47404E+03 -6.26129E+03  9.28223E+03  9.81372E+02
  5.38839E+03  5.20737E+03 -2.60428E+02  4.51586E+03 -3.06144E+03  6.55080E+02  1.07939E+03 -2.85870E+03
  4.46570E+03 -3.05422E+03  5.80603E+03  9.57988E+02  3.87273E+03  5.45297E+03  6.91979E+02  8.00128E+03
 -6.82783E+03  7.18085E+03 -9.72124E+03  1.15869E+03 -9.48849E+03 -6.79722E+03 -1.85693E+03 -1.17417E+04
  8.06704E+03 -1.02373E+04  1.20451E+04 -3.71268E+03  1.17353E+04  2.86350E+03  6.80539E+03  8.79709E+03
  4.45611E+02  1.01060E+04 -3.49102E+03  8.14231E+03 -5.97160E+03  3.81714E+03 -5.13767E+03  3.18075E+02
 -2.04182E+03 -1.63437E+02 -3.51121E+03  9.08727E+02 -5.80372E+03  2.13637E+03 -7.58744E+03 -1.54622E+03
 -6.20852E+03 -5.31216E+03 -2.12077E+03 -1.01176E+04  5.12100E+03 -1.03689E+04  8.85499E+03 -4.75723E+03
  9.68666E+03  1.10999E+03  5.49555E+03  7.84029E+03 -9.10364E+02  9.59978E+03 -8.19394E+03  6.41715E+03
