 $NMID ID='MM_0lb_SNR400_9hz_g45_43.RAW', FMTDAT='(8E13.5)'
 TRAMP=1., VOLUME=1. $END
  3.10069E+05 -5.47084E+02  3.37481E+05  2.50859E+05  8.45525E+04  3.37613E+05 -1.32431E+05  2.51799E+05
 -1.90804E+05  8.36031E+04 -1.12591E+05 -3.21376E+04 -4.75696E+01 -5.17874E+04  5.35850E+04 -4.88683E+02
  3.56579E+04  5.27382E+04 -1.67595E+04  7.59574E+04 -6.12604E+04  6.48837E+04 -8.54686E+04  3.17523E+04
 -8.19570E+04 -1.16422E+04 -5.75565E+04 -5.34183E+04 -1.50379E+04 -7.12058E+04  2.85735E+04 -4.65924E+04
  4.18259E+04  3.96236E+03  1.73797E+04  4.80074E+04 -3.52361E+04  4.82601E+04 -6.78313E+04  4.42573E+02
 -5.36639E+04 -5.73631E+04 -7.02137E+03 -7.89383E+04  3.47023E+04 -5.58366E+04  5.01185E+04 -1.77612E+04
  4.57855E+04  1.16976E+04  3.25458E+04  2.63776E+04  1.61071E+04  2.99657E+04 -5.87605E+03  2.81106E+04
 -2.23776E+04  1.28829E+04 -1.78980E+04 -5.24437E+03  7.24589E+03 -7.42308E+03  2.42404E+04  1.35990E+04
  5.97748E+03  3.61493E+04 -3.42997E+04  3.61504E+04 -6.53514E+04  1.84975E+03 -5.86516E+04 -4.42081E+04
 -1.28052E+04 -6.58649E+04  4.12810E+04 -4.74630E+04  6.08581E+04 -2.39878E+03  3.66750E+04  3.46149E+04
 -5.54707E+03  3.92823E+04 -3.15649E+04  1.91205E+04 -3.38760E+04 -3.20384E+03 -1.92705E+04 -1.17618E+04
 -9.52458E+03 -1.53858E+04 -4.96153E+02 -1.93278E+04  8.45340E+03 -2.37018E+04  1.68491E+04 -1.28343E+04
  1.10068E+04  6.04716E+03 -9.98400E+03  1.20933E+04 -2.31146E+04 -7.03912E+03 -8.70112E+03 -3.72273E+04
  2.50307E+04 -4.62993E+04  5.21045E+04 -2.11899E+04  4.80928E+04  2.12510E+04  1.70795E+04  4.74272E+04
 -1.67982E+04  3.63140E+04 -2.73546E+04  3.41648E+03 -1.15845E+04 -2.95295E+04  2.11472E+04 -3.71145E+04
  4.44365E+04 -1.07609E+04  3.96211E+04  2.45635E+04  2.10240E+04  5.11556E+04 -8.71695E+03  5.55155E+04
 -3.53102E+04  3.72885E+04 -4.72364E+04  1.00167E+04 -4.67299E+04 -1.84608E+04 -2.59289E+04 -4.17386E+04
  7.79186E+03 -4.17495E+04  3.42909E+04 -1.75557E+04  3.16651E+04  1.11296E+04  5.30873E+03  2.08642E+04
 -1.44472E+04  9.17908E+03 -1.17215E+04 -7.76733E+03  5.41258E+03 -1.13190E+04  1.91261E+04  6.06711E+03
  1.37358E+04  2.25140E+04 -5.28226E+03  2.66182E+04 -2.34383E+04  1.40763E+04 -3.09141E+04 -2.87861E+03
 -2.52788E+04 -1.81316E+04 -1.12200E+04 -2.42926E+04  4.81964E+03 -2.48035E+04  1.93448E+04 -2.26606E+04
  3.17203E+04 -1.38342E+04  3.77514E+04  4.59461E+03  2.69655E+04  2.39077E+04  4.85565E+03  4.02862E+04
 -1.96370E+04  3.39029E+04 -3.11005E+04  1.18348E+04 -2.27284E+04 -1.02663E+04 -4.91114E+03 -1.27243E+04
  1.02199E+03 -6.54606E+02 -7.85848E+03  8.27442E+03 -1.96095E+04  5.24175E+03 -2.00275E+04 -8.99499E+03
 -1.16259E+04 -2.26567E+04  5.14332E+03 -2.74722E+04  1.82342E+04 -1.89606E+04  2.20830E+04 -1.97441E+03
  1.43989E+04  1.57270E+04 -1.93239E+03  2.31941E+04 -1.56238E+04  1.34303E+04 -2.31575E+04 -4.21813E+03
 -1.64488E+04 -2.05046E+04 -9.68205E+02 -2.73677E+04  1.19025E+04 -2.30193E+04  2.30152E+04 -1.12624E+04
  2.13140E+04 -2.99489E+02  1.55209E+04  4.49176E+03  7.83170E+03  1.38981E+03  1.13696E+04 -2.50168E+03
  2.12733E+04  2.87349E+03  2.51171E+04  1.79341E+04  1.73045E+04  3.66992E+04 -2.64301E+03  4.36175E+04
 -2.49035E+04  3.61196E+04 -4.02805E+04  1.91585E+04 -4.41977E+04 -3.44007E+03 -3.54641E+04 -2.64169E+04
 -1.42990E+04 -3.68123E+04  1.32509E+04 -3.17802E+04  2.71879E+04 -1.45448E+04  2.29922E+04  7.40463E+03
  9.12577E+03  1.82503E+04 -1.05907E+04  1.58512E+04 -2.07064E+04  2.27807E+03 -1.47107E+04 -1.30023E+04
 -4.54867E+02 -1.95529E+04  1.04393E+04 -1.41902E+04  1.34470E+04 -2.07763E+03  3.37326E+03  8.40200E+03
 -8.52023E+03  4.48612E+03 -8.40237E+03 -7.09393E+03 -2.80642E+03 -1.77677E+04  1.17317E+04 -1.90353E+04
  2.21890E+04 -1.07682E+04  2.55740E+04  3.60647E+03  2.20862E+04  1.80109E+04  1.05457E+04  2.86010E+04
 -5.97660E+03  3.04327E+04 -1.92472E+04  1.84832E+04 -2.22283E+04  4.16795E+03 -1.51081E+04 -6.05050E+03
 -5.94568E+03 -7.36821E+03 -1.34656E+03  7.92256E+02 -2.53641E+03  3.41188E+03 -7.73472E+03  5.42145E+03
 -1.41129E+04 -1.27042E+03 -1.38489E+04 -1.18923E+04 -6.30470E+03 -1.99518E+04  6.55238E+03 -1.53838E+04
  1.31791E+04 -6.96743E+03  9.64511E+03  4.19430E+03 -2.85056E+02  6.34735E+03 -7.38506E+03 -1.03303E+03
 -6.96945E+03 -1.00026E+04 -1.33237E+03 -1.56520E+04  8.90009E+03 -1.61724E+04  1.95457E+04 -8.62138E+03
  2.32764E+04  2.33104E+03  1.69274E+04  1.37130E+04  3.10094E+03  1.91736E+04 -9.24741E+03  1.56953E+04
 -1.27420E+04  4.86328E+03 -6.18622E+03 -3.40114E+03  1.24437E+03 -4.55133E+03  7.68759E+03 -2.15100E+03
  7.12160E+03  6.62967E+03  9.01323E+02  1.17207E+04 -8.51251E+03  1.16215E+04 -1.55037E+04  2.64047E+03
 -1.03561E+04 -8.23098E+03  1.91741E+02 -1.28933E+04  8.96560E+03 -6.41493E+03  9.43239E+03  3.47709E+03
  2.26456E+03  9.90818E+03 -7.36537E+03  1.12231E+04 -1.34802E+04  5.04644E+03 -1.40116E+04 -4.40920E+03
 -7.19340E+03 -1.47451E+04  3.80069E+03 -1.74509E+04  1.49902E+04 -1.08500E+04  1.63722E+04  2.96746E+03
  9.53079E+03  1.27633E+04 -1.97773E+03  1.63029E+04 -1.18243E+04  8.97000E+03 -1.17573E+04 -1.49472E+03
 -1.04985E+04 -1.06032E+04 -1.89978E+03 -1.14956E+04  6.64963E+03 -9.73486E+03  7.30168E+03 -2.57963E+03
  5.01493E+03  1.97070E+03 -1.47642E+03  1.37003E+03 -6.36996E+02 -3.65054E+03  3.01009E+03 -7.16605E+03
  1.07572E+04 -4.85667E+03  1.56081E+04  2.54117E+03  1.55914E+04  9.86602E+03  9.08317E+03  2.00895E+04
 -4.09195E+03  2.34864E+04 -1.91181E+04  1.78600E+04 -2.56909E+04  3.43562E+03 -2.00542E+04 -8.85899E+03
 -9.98842E+03 -1.66670E+04  4.34865E+02 -1.41996E+04  5.26979E+03 -7.89043E+03  5.49917E+03 -4.29250E+03
  3.71262E+03 -2.80541E+03  3.99348E+03 -4.08605E+03  5.80386E+03 -3.73611E+03  7.38161E+03 -1.80798E+03
  9.75854E+03  2.68929E+03  5.73143E+03  8.73859E+03 -1.94794E+03  1.06664E+04 -1.07158E+04  8.39787E+03
 -1.43220E+04 -1.01744E+03 -8.56719E+03 -9.99653E+03 -1.14026E+03 -1.55641E+04  8.57498E+03 -1.50475E+04
  1.69183E+04 -7.97420E+03  1.90652E+04  2.52076E+03  1.31123E+04  1.38899E+04  2.06099E+03  1.74387E+04
 -7.76213E+03  1.42503E+04 -1.00046E+04  4.82749E+03 -7.36622E+03 -1.04838E+03 -3.41902E+03 -2.20848E+03
 -1.36271E+03  2.04182E+01 -2.07641E+03  3.01968E+03 -6.37300E+03  2.62009E+03 -1.05034E+04 -1.87825E+03
 -7.28499E+03 -1.01759E+04  5.34472E+02 -1.42996E+04  8.73248E+03 -1.34294E+04  1.41390E+04 -3.94624E+03
  1.41095E+04  6.83107E+03  7.10953E+03  1.23727E+04 -2.42899E+03  1.43371E+04 -1.09775E+04  8.53993E+03
 -1.35354E+04  1.03204E+03 -1.05516E+04 -8.37264E+03 -3.58701E+02 -1.20212E+04  6.44033E+03 -9.20738E+03
  8.68115E+03 -2.41066E+03  6.02718E+03  3.65362E+03  1.96266E+03  4.41186E+03  1.58915E+03  2.00889E+03
  2.46133E+03  1.23900E+03  3.19069E+03  1.41150E+03  4.09848E+03  4.50454E+03  3.16202E+03  6.93413E+03
 -2.84322E+03  1.20469E+04 -9.59543E+03  1.06778E+04 -1.44580E+04  2.94817E+03 -1.70590E+04 -5.46767E+03
 -7.02760E+03 -1.51409E+04  2.30226E+03 -1.56219E+04  8.68840E+03 -1.01699E+04  1.16566E+04 -2.51891E+03
  9.00166E+03  5.49335E+03  2.20889E+03  8.51624E+03 -4.14851E+03  5.73850E+03 -6.48788E+03 -2.47210E+02
 -2.60433E+03 -6.42731E+03  3.39672E+03 -6.01111E+03  6.14630E+03 -3.26286E+03  6.61196E+03  1.38261E+03
  2.80804E+03  3.41622E+03  1.18901E+03  2.35086E+03 -8.61475E+02  2.10908E+03  1.71582E+03 -1.17385E+03
  2.49429E+03 -9.68966E+02  6.13056E+03  1.79345E+03  4.12154E+03  8.12096E+03 -1.35823E+03  1.08519E+04
 -6.43889E+03  6.22080E+03 -9.46409E+03  1.70231E+03 -8.11274E+03 -3.48495E+03 -3.64887E+03 -5.89227E+03
  6.50134E+02 -5.87350E+03  3.63128E+03 -2.41127E+03  3.42724E+03  3.15165E+03 -1.97603E+03  4.69777E+03
 -6.29214E+03  2.23572E+03 -6.99306E+03 -3.79519E+03 -3.79869E+03 -7.42615E+03  7.46101E+02 -8.19538E+03
  5.01225E+03 -5.39404E+03  5.67958E+03 -4.76378E+02  4.57647E+03  2.38999E+03  6.35547E+02  3.92134E+03
 -2.79899E+03  8.19990E+02 -3.75538E+03 -3.25464E+03  1.90820E+03 -6.58367E+03  7.52982E+03 -5.38558E+03
  9.10930E+03  2.93382E+02  9.51325E+03  7.34799E+03  2.76659E+03  1.03334E+04 -3.98854E+03  9.24488E+03
 -7.80094E+03  3.32925E+03 -7.95820E+03 -9.83007E+02 -5.22427E+03 -6.23319E+03  1.32986E+03 -6.33598E+03
  5.95497E+03 -2.80860E+03  5.06152E+03  2.98081E+03  2.18245E+03  5.28516E+03 -1.08464E+03  4.87317E+03
 -1.80042E+03  3.25066E+03 -3.00773E+03  8.08987E+02 -9.49393E+02  1.03296E+03 -7.59190E+02  2.57517E+03
 -2.45817E+03  3.33794E+03 -6.39328E+03  3.22229E+03 -9.27916E+03  5.29707E+01 -1.12230E+04 -6.62293E+03
 -5.93695E+03 -1.26980E+04  2.24118E+03 -1.42792E+04  9.15895E+03 -1.14583E+04  1.40916E+04 -3.86959E+03
  1.38585E+04  2.37128E+03  7.91651E+03  9.12224E+03  7.17967E+02  1.04379E+04 -3.71232E+03  7.59396E+03
 -5.70157E+03  2.59462E+03 -4.24502E+03 -8.83174E+02 -6.50788E+02 -4.76578E+02 -3.83730E+02  3.57419E+02
 -1.36685E+03  5.27165E+02 -3.03153E+03 -7.74899E+02 -9.67701E+02 -1.75010E+03  1.88256E+02 -2.98890E+03
  4.71163E+03 -2.89084E+03  5.48972E+03  2.22830E+02  6.78632E+03  5.37639E+03  2.00003E+03  1.04395E+04
 -4.37552E+03  1.12419E+04 -1.03729E+04  7.05378E+03 -1.24041E+04 -6.41498E+02 -8.89415E+03 -7.10530E+03
 -4.59287E+03 -1.12187E+04  2.93368E+03 -8.90954E+03  6.46675E+03 -5.82490E+03  5.94295E+03  4.48895E+02
  4.15362E+03  4.25798E+03 -4.62800E+02  2.31919E+03 -2.69112E+03 -4.70494E+02 -2.29608E+02 -1.93985E+03
  2.96061E+03 -1.74807E+03  4.26003E+03  1.03616E+03  2.31378E+03  4.82626E+03  4.56409E+02  5.86733E+03
 -4.86874E+03  4.78207E+03 -6.04379E+03  5.06715E+02 -6.35426E+03 -5.14044E+03 -1.11768E+03 -8.91366E+03
  5.32413E+03 -8.23889E+03  7.76310E+03 -2.28983E+03  8.11235E+03  1.78072E+03  3.86109E+03  6.99030E+03
  1.31243E+03  6.42454E+03 -2.93658E+03  5.91313E+03 -4.08032E+03  2.86187E+03 -3.84380E+03  2.52292E+02
 -1.87955E+03 -5.33731E+02 -2.40799E+03 -2.53894E+02 -3.23385E+03  1.61408E+03 -5.19493E+03 -1.46701E+03
 -4.68092E+03 -3.63777E+03 -1.45064E+03 -6.00239E+03  3.33589E+03 -7.58480E+03  5.82585E+03 -3.53124E+03
  7.13715E+03  1.14573E+03  4.36041E+03  4.96402E+03 -3.21521E+02  7.20577E+03 -5.17291E+03  4.28131E+03
