 $NMID ID='MM_0lb_SNR400_12hz_g45_37.RAW', FMTDAT='(8E13.5)'
 TRAMP=1., VOLUME=1. $END
  3.09714E+05  8.78929E+02  3.36987E+05  2.51284E+05  8.46960E+04  3.38370E+05 -1.32204E+05  2.50948E+05
 -1.90757E+05  8.30818E+04 -1.12334E+05 -3.27792E+04  1.83642E+02 -5.16872E+04  5.37008E+04 -2.41650E+02
  3.59843E+04  5.28180E+04 -1.71072E+04  7.54126E+04 -6.14598E+04  6.47082E+04 -8.46208E+04  3.15589E+04
 -8.09311E+04 -1.11416E+04 -5.71317E+04 -5.15594E+04 -1.48592E+04 -6.99834E+04  2.78495E+04 -4.62799E+04
  3.99885E+04  3.47970E+03  1.62751E+04  4.82734E+04 -3.42494E+04  4.80918E+04 -6.76344E+04 -7.59638E+02
 -5.32395E+04 -5.68282E+04 -6.47541E+03 -7.76556E+04  3.40887E+04 -5.55764E+04  4.90760E+04 -1.71199E+04
  4.43004E+04  1.11473E+04  3.26011E+04  2.58999E+04  1.55680E+04  2.94466E+04 -5.43110E+03  2.77027E+04
 -2.20521E+04  1.27482E+04 -1.88472E+04 -3.97516E+03  5.54397E+03 -7.63956E+03  2.27043E+04  1.19600E+04
  7.15453E+03  3.58704E+04 -3.26114E+04  3.63962E+04 -6.38936E+04  2.43032E+03 -5.76984E+04 -4.32942E+04
 -1.27512E+04 -6.43599E+04  4.04338E+04 -4.56375E+04  5.89291E+04 -2.47940E+03  3.48189E+04  3.28670E+04
 -5.46193E+03  3.71263E+04 -3.04457E+04  1.64382E+04 -3.14884E+04 -4.02778E+03 -1.81592E+04 -1.16896E+04
 -8.91876E+03 -1.35337E+04 -6.28586E+02 -1.85795E+04  7.70444E+03 -2.26983E+04  1.57453E+04 -1.34253E+04
  1.07581E+04  5.33288E+03 -8.47457E+03  1.23048E+04 -2.18771E+04 -5.53662E+03 -9.11853E+03 -3.46391E+04
  2.35784E+04 -4.42849E+04  4.95324E+04 -2.00720E+04  4.62409E+04  1.93658E+04  1.58977E+04  4.49445E+04
 -1.66356E+04  3.42396E+04 -2.64737E+04  2.51429E+03 -1.05396E+04 -2.81191E+04  2.11514E+04 -3.53397E+04
  4.20589E+04 -9.50268E+03  3.72958E+04  2.48141E+04  1.88663E+04  4.86761E+04 -8.08087E+03  5.25848E+04
 -3.22297E+04  3.43865E+04 -4.39351E+04  1.01578E+04 -4.38277E+04 -1.67777E+04 -2.40657E+04 -4.00779E+04
  7.40335E+03 -3.94496E+04  3.21879E+04 -1.48865E+04  2.97810E+04  1.13269E+04  4.22175E+03  1.94836E+04
 -1.35228E+04  8.80355E+03 -1.03103E+04 -7.73692E+03  6.46294E+03 -1.08350E+04  1.82049E+04  5.41062E+03
  1.40029E+04  2.23316E+04 -5.07300E+03  2.53111E+04 -2.22969E+04  1.21026E+04 -2.87403E+04 -4.24974E+03
 -2.17537E+04 -1.77686E+04 -9.15546E+03 -2.17112E+04  4.27150E+03 -2.15982E+04  1.70036E+04 -1.95807E+04
  2.79217E+04 -1.32236E+04  3.45625E+04  2.97525E+03  2.50668E+04  2.08591E+04  4.17120E+03  3.82648E+04
 -1.83236E+04  3.13275E+04 -2.93839E+04  1.00569E+04 -2.09741E+04 -1.03035E+04 -4.28969E+03 -1.38100E+04
  1.50401E+03 -2.25641E+03 -6.06189E+03  7.72204E+03 -1.71714E+04  5.04868E+03 -1.75286E+04 -7.23905E+03
 -1.03541E+04 -2.00097E+04  5.63574E+03 -2.32685E+04  1.65377E+04 -1.77065E+04  1.93355E+04 -1.56377E+03
  1.20468E+04  1.45210E+04 -1.71176E+03  2.03332E+04 -1.42905E+04  1.08965E+04 -2.08841E+04 -4.71551E+03
 -1.43470E+04 -1.79236E+04 -2.09512E+03 -2.39272E+04  1.15067E+04 -2.01786E+04  2.02826E+04 -1.03201E+04
  1.89213E+04  7.54453E+02  1.36641E+04  4.71017E+03  7.07832E+03  5.71196E+02  1.07047E+04 -1.69561E+03
  1.87025E+04  3.06002E+03  2.12679E+04  1.57246E+04  1.44918E+04  3.23491E+04 -3.35279E+03  3.65119E+04
 -2.10910E+04  3.07409E+04 -3.38536E+04  1.53021E+04 -3.66149E+04 -2.66744E+03 -2.99190E+04 -2.13449E+04
 -1.20303E+04 -3.01204E+04  1.03392E+04 -2.66323E+04  2.29147E+04 -1.40468E+04  2.08548E+04  6.56506E+03
  7.27699E+03  1.56469E+04 -9.83797E+03  1.41913E+04 -1.75039E+04  2.15135E+03 -1.32913E+04 -1.05773E+04
 -2.71941E+02 -1.61877E+04  8.67411E+03 -1.26667E+04  1.05396E+04 -1.61800E+03  2.36978E+03  7.12490E+03
 -7.38491E+03  2.50802E+03 -7.48750E+03 -6.24439E+03 -7.48356E+02 -1.41773E+04  1.00388E+04 -1.53772E+04
  1.89741E+04 -7.85502E+03  2.03667E+04  3.07667E+03  1.75919E+04  1.46724E+04  8.26655E+03  2.26068E+04
 -4.20880E+03  2.52389E+04 -1.60954E+04  1.52409E+04 -1.77348E+04  3.64331E+03 -1.22787E+04 -4.21333E+03
 -6.04197E+03 -5.81035E+03 -8.00424E+02  8.61002E+02 -2.82056E+03  2.92889E+03 -6.12196E+03  5.04449E+03
 -1.19053E+04 -4.75773E+02 -1.15577E+04 -9.83518E+03 -5.28714E+03 -1.59649E+04  4.84067E+03 -1.25188E+04
  1.09585E+04 -5.36625E+03  7.77962E+03  3.57553E+03  1.43779E+02  5.03093E+03 -5.58963E+03  2.70692E+02
 -6.15666E+03 -7.98609E+03 -1.06070E+03 -1.17475E+04  7.07504E+03 -1.30129E+04  1.56609E+04 -6.90993E+03
  1.85435E+04  1.51816E+03  1.36334E+04  1.08856E+04  2.67231E+03  1.43014E+04 -7.55252E+03  1.21163E+04
 -9.96854E+03  3.53399E+03 -4.98568E+03 -2.53926E+03  1.97323E+03 -2.61905E+03  6.14065E+03 -9.64147E+02
  6.38909E+03  5.20634E+03  1.25519E+03  9.36287E+03 -6.91538E+03  9.35401E+03 -1.21684E+04  1.58616E+03
 -8.77927E+03 -6.01420E+03 -7.27704E+02 -1.03194E+04  6.27395E+03 -5.59422E+03  7.13138E+03  2.29623E+03
  1.57401E+03  7.52791E+03 -6.18466E+03  8.73216E+03 -1.05214E+04  4.39393E+03 -1.01428E+04 -3.25797E+03
 -5.67874E+03 -1.20870E+04  2.00780E+03 -1.31480E+04  1.12988E+04 -8.15599E+03  1.22262E+04  1.59782E+03
  7.46556E+03  9.46315E+03 -9.38237E+02  1.18804E+04 -8.57853E+03  6.61653E+03 -9.22244E+03 -6.53261E+02
 -8.87863E+03 -8.28408E+03 -1.96486E+03 -8.42582E+03  4.13857E+03 -7.53791E+03  5.88592E+03 -4.08848E+03
  4.40933E+03  1.19874E+03 -3.36963E+02  1.75733E+03 -3.24939E+02 -1.99268E+03  1.06485E+03 -5.08618E+03
  7.94563E+03 -3.31740E+03  1.11248E+04  1.59051E+03  1.15805E+04  7.76174E+03  8.15967E+03  1.47024E+04
 -3.61473E+03  1.70994E+04 -1.45698E+04  1.26325E+04 -1.90503E+04  2.12709E+03 -1.53754E+04 -6.34522E+03
 -7.55838E+03 -1.17893E+04  3.18054E+01 -1.10159E+04  3.21397E+03 -5.25463E+03  3.48005E+03 -4.10659E+03
  3.24800E+03 -2.45552E+03  2.93176E+03 -3.65475E+03  4.52808E+03 -3.00423E+03  6.38224E+03 -8.91566E+02
  8.17814E+03  1.29674E+03  3.58451E+03  7.00427E+03 -1.31763E+03  7.27343E+03 -8.24372E+03  6.26989E+03
 -1.03359E+04 -1.01779E+03 -6.09155E+03 -7.25116E+03 -5.90421E+02 -1.15794E+04  6.82434E+03 -1.10203E+04
  1.18835E+04 -5.73158E+03  1.35991E+04  2.05011E+03  9.56171E+03  9.18021E+03  1.39796E+03  1.24398E+04
 -5.35635E+03  1.02244E+04 -6.96450E+03  4.46800E+03 -4.82093E+03 -1.00516E+03 -1.97772E+03 -8.20275E+02
 -1.17067E+03  3.32555E+02 -1.96510E+03  2.62552E+03 -4.81998E+03  2.02045E+03 -7.81627E+03 -3.75339E+02
 -4.27891E+03 -7.00310E+03  2.42283E+02 -1.01242E+04  6.07735E+03 -9.25834E+03  9.59759E+03 -3.10186E+03
  1.04678E+04  5.38797E+03  3.94355E+03  8.97946E+03 -1.84009E+03  9.49851E+03 -7.08259E+03  6.01666E+03
 -9.24502E+03  3.98596E+02 -7.51588E+03 -5.89964E+03 -7.64845E+02 -8.12536E+03  4.41591E+03 -5.73852E+03
  6.17408E+03 -2.57420E+03  4.55449E+03  1.83529E+03  1.49753E+03  3.22096E+03  6.67402E+02  1.05795E+03
  1.97077E+03  8.21089E+02  2.57767E+03  7.48129E+02  2.47679E+03  3.44311E+03  2.49897E+03  5.10592E+03
 -2.52578E+03  7.89527E+03 -6.72452E+03  7.90828E+03 -1.01752E+04  2.52637E+03 -1.04370E+04 -3.25788E+03
 -4.45068E+03 -1.01709E+04  1.30211E+03 -1.15746E+04  6.16592E+03 -6.52526E+03  7.52997E+03 -1.61435E+03
  6.04817E+03  3.65636E+03  1.59012E+03  5.76099E+03 -2.66339E+03  3.78451E+03 -3.95998E+03 -4.61370E+02
 -1.72491E+03 -4.17926E+03  2.39719E+03 -4.12078E+03  3.89593E+03 -2.34550E+03  4.22070E+03  1.00071E+03
  1.65302E+03  2.04275E+03  1.14740E+03  1.45273E+03 -8.95446E+02  1.68646E+03  1.28316E+03 -3.36415E+02
  1.62891E+03 -7.84757E+02  4.26926E+03  1.02810E+03  1.74237E+03  5.68475E+03 -1.43268E+03  7.39451E+03
 -4.62931E+03  4.38460E+03 -5.78786E+03  7.88240E+02 -5.21983E+03 -2.54680E+03 -1.52944E+03 -3.33075E+03
  1.27556E+03 -3.62084E+03  2.19061E+03 -1.87398E+03  2.28656E+03  1.88347E+03 -1.61182E+03  2.96863E+03
 -3.66999E+03  2.17162E+03 -4.50035E+03 -2.63243E+03 -2.40712E+03 -4.29170E+03  1.00779E+03 -4.93961E+03
  2.67812E+03 -2.43310E+03  3.19580E+03 -2.64602E+02  3.26252E+03  1.21561E+03  7.51085E+02  2.98925E+03
 -1.58089E+03  4.82699E+02 -2.53010E+03 -1.30945E+03  1.05156E+03 -4.02142E+03  4.68298E+03 -3.15355E+03
  4.81128E+03  5.60828E+02  6.24093E+03  3.65055E+03  1.54203E+03  5.78715E+03 -1.80016E+03  5.79109E+03
 -5.20691E+03  2.31915E+03 -5.39685E+03 -5.87492E+02 -2.50716E+03 -3.66371E+03  5.22915E+02 -3.11709E+03
  3.58308E+03 -2.26042E+03  3.14834E+03  1.31679E+03  2.45763E+02  3.65631E+03 -2.82070E+02  3.31905E+03
 -1.08323E+03  2.18517E+03 -9.72303E+02  5.29809E+02 -1.58165E+02  8.69652E+01 -1.59395E+03  1.42992E+03
 -1.25342E+03  2.06361E+03 -4.09759E+03  2.05258E+03 -5.61092E+03  1.58264E+01 -6.89437E+03 -3.91400E+03
 -3.25383E+03 -7.34750E+03  2.14165E+03 -8.66738E+03  5.41098E+03 -6.46883E+03  8.38795E+03 -3.00858E+03
  7.68621E+03  1.30991E+03  5.00412E+03  5.08750E+03  7.46394E+01  6.32767E+03 -2.26379E+03  4.40005E+03
 -2.85783E+03  1.59790E+03 -2.11630E+03 -8.54322E+02 -5.35474E+02 -2.10719E+02 -2.75117E+02 -3.54833E+01
 -1.46252E+03  6.63781E+02 -1.13185E+03 -1.23860E+02 -2.74770E+02 -1.58500E+03 -6.77824E+02 -2.42666E+03
  2.63613E+03 -1.83491E+03  3.58116E+03 -1.25526E+02  4.45491E+03  2.85552E+03  3.57189E+02  5.97915E+03
 -2.91835E+03  7.12684E+03 -5.83956E+03  3.91233E+03 -7.10083E+03 -7.94742E+02 -5.41338E+03 -4.33555E+03
 -1.91848E+03 -6.68330E+03  1.15086E+03 -5.59386E+03  3.36642E+03 -2.77780E+03  3.43001E+03  2.62322E+02
  1.90914E+03  1.35561E+03 -3.80593E+02  2.05647E+03 -1.11066E+03 -3.21387E+02 -1.86754E+02 -1.88648E+03
  1.76179E+03 -5.92594E+02  1.57172E+03  8.55402E+02  1.51906E+03  2.42394E+03 -1.12502E+02  2.64080E+03
 -2.03563E+03  2.83083E+03 -3.72686E+03  4.60193E+02 -3.03791E+03 -3.04553E+03 -2.50745E+02 -4.88508E+03
  2.74845E+03 -3.02250E+03  3.86303E+03 -9.19336E+02  4.69549E+03  7.43409E+02  2.02406E+03  2.93434E+03
  5.20767E+02  3.46953E+03 -1.34944E+03  3.32770E+03 -1.96691E+03  2.07738E+03 -2.18755E+03  6.95872E+02
 -7.44304E+02 -5.39582E+02 -1.11966E+03  4.76434E+02 -1.81877E+03  5.64694E+02 -2.89434E+03 -2.32600E+02
 -2.68617E+03 -1.28284E+03 -7.16890E+02 -2.98475E+03  1.79645E+03 -3.80344E+03  3.54970E+03 -1.93881E+03
  3.86075E+03  7.56841E+01  1.64464E+03  2.59634E+03  1.95869E+01  3.91753E+03 -1.85758E+03  2.33802E+03
