 $NMID ID='MM_0lb_SNR400_14hz_g45_45.RAW', FMTDAT='(8E13.5)'
 TRAMP=1., VOLUME=1. $END
  3.09739E+05  5.23985E+02  3.37634E+05  2.50452E+05  8.44795E+04  3.37999E+05 -1.32651E+05  2.51331E+05
 -1.90203E+05  8.33647E+04 -1.11296E+05 -3.29461E+04  9.35353E+02 -5.08396E+04  5.35244E+04  2.55652E+01
  3.49152E+04  5.25540E+04 -1.69337E+04  7.53891E+04 -6.12992E+04  6.34081E+04 -8.43430E+04  3.20285E+04
 -8.11802E+04 -1.09774E+04 -5.73827E+04 -5.11157E+04 -1.43937E+04 -6.90904E+04  2.65245E+04 -4.54342E+04
  3.96653E+04  3.15595E+03  1.53202E+04  4.73915E+04 -3.44244E+04  4.71198E+04 -6.62960E+04  1.89154E+02
 -5.29675E+04 -5.68682E+04 -6.63186E+03 -7.68127E+04  3.37793E+04 -5.50347E+04  4.77423E+04 -1.70222E+04
  4.35186E+04  1.16538E+04  3.18202E+04  2.48743E+04  1.59236E+04  2.91290E+04 -5.82273E+03  2.73430E+04
 -2.18154E+04  1.24628E+04 -1.83928E+04 -4.35872E+03  5.40225E+03 -7.10850E+03  2.25241E+04  1.22264E+04
  7.08367E+03  3.52494E+04 -3.15818E+04  3.50306E+04 -6.29780E+04  1.91663E+03 -5.70901E+04 -4.21849E+04
 -1.26407E+04 -6.26386E+04  3.95370E+04 -4.48159E+04  5.81116E+04 -2.45275E+03  3.34095E+04  3.23972E+04
 -6.21653E+03  3.54754E+04 -2.94203E+04  1.60211E+04 -3.00517E+04 -4.75279E+03 -1.66488E+04 -1.10108E+04
 -8.33762E+03 -1.26742E+04 -6.38417E+02 -1.83086E+04  7.30638E+03 -2.25342E+04  1.52742E+04 -1.34691E+04
  1.15929E+04  5.09078E+03 -7.85754E+03  1.28593E+04 -2.08166E+04 -4.88017E+03 -8.93958E+03 -3.35924E+04
  2.32927E+04 -4.30123E+04  4.72088E+04 -1.95780E+04  4.48102E+04  1.91358E+04  1.50343E+04  4.42709E+04
 -1.61059E+04  3.29202E+04 -2.52586E+04  1.26498E+03 -9.66020E+03 -2.78427E+04  2.06655E+04 -3.31515E+04
  4.04172E+04 -9.19239E+03  3.53655E+04  2.37747E+04  1.72911E+04  4.58363E+04 -8.33647E+03  4.89590E+04
 -3.12556E+04  3.29056E+04 -4.12268E+04  9.17887E+03 -4.17989E+04 -1.69377E+04 -2.28184E+04 -3.75302E+04
  6.95516E+03 -3.75765E+04  3.15680E+04 -1.50357E+04  2.90855E+04  1.08931E+04  4.29865E+03  1.88697E+04
 -1.35421E+04  8.00073E+03 -9.84776E+03 -7.75427E+03  5.89511E+03 -1.02681E+04  1.79155E+04  5.89870E+03
  1.34183E+04  2.24894E+04 -6.44035E+03  2.52364E+04 -2.13776E+04  1.12520E+04 -2.67110E+04 -4.72343E+03
 -1.96457E+04 -1.72406E+04 -7.86152E+03 -2.05438E+04  3.79654E+03 -1.90004E+04  1.54458E+04 -1.74568E+04
  2.54681E+04 -1.26125E+04  3.20738E+04  2.56932E+03  2.44130E+04  1.95074E+04  4.08553E+03  3.58789E+04
 -1.78101E+04  3.00102E+04 -2.68049E+04  1.07748E+04 -2.13745E+04 -1.02197E+04 -4.05095E+03 -1.35726E+04
  1.47554E+03 -2.99602E+03 -4.78810E+03  6.53978E+03 -1.59875E+04  5.09421E+03 -1.63090E+04 -7.16887E+03
 -1.02852E+04 -1.85587E+04  5.49584E+03 -2.32002E+04  1.48531E+04 -1.67423E+04  1.70819E+04 -2.12217E+03
  1.12497E+04  1.30473E+04 -1.40958E+03  1.92324E+04 -1.28754E+04  1.01159E+04 -1.89728E+04 -3.35426E+03
 -1.37452E+04 -1.70589E+04 -2.21915E+03 -2.27099E+04  9.97725E+03 -1.86254E+04  1.90996E+04 -9.01399E+03
  1.77694E+04  1.66721E+02  1.22903E+04  4.13031E+03  6.75020E+03  1.64673E+03  9.74866E+03 -1.02171E+03
  1.67666E+04  2.86589E+03  1.90787E+04  1.57115E+04  1.28756E+04  2.95763E+04 -2.72387E+03  3.31072E+04
 -1.93258E+04  2.71466E+04 -3.05607E+04  1.34983E+04 -3.24565E+04 -2.31593E+03 -2.70207E+04 -1.91720E+04
 -1.14696E+04 -2.67763E+04  8.92184E+03 -2.40115E+04  2.09392E+04 -1.29624E+04  1.81443E+04  5.45388E+03
  7.34577E+03  1.35302E+04 -9.08400E+03  1.21920E+04 -1.61827E+04  2.65586E+03 -1.26788E+04 -1.00082E+04
  1.23286E+02 -1.54491E+04  7.74924E+03 -1.15495E+04  1.00029E+04 -1.60377E+03  2.41952E+03  6.80737E+03
 -6.86639E+03  1.95599E+03 -6.17355E+03 -5.22471E+03  1.24956E+02 -1.31410E+04  9.49971E+03 -1.33114E+04
  1.62819E+04 -7.54914E+03  1.78109E+04  2.73244E+03  1.51836E+04  1.31885E+04  7.37436E+03  1.99801E+04
 -3.17968E+03  2.18020E+04 -1.39579E+04  1.44709E+04 -1.63256E+04  3.40764E+03 -1.08044E+04 -3.10605E+03
 -5.56383E+03 -4.45356E+03 -6.20003E+02  6.44465E+02 -2.54690E+03  2.60520E+03 -5.27103E+03  3.48635E+03
 -1.01574E+04 -6.51564E+02 -1.11047E+04 -8.76355E+03 -4.38830E+03 -1.47264E+04  4.43846E+03 -1.10771E+04
  9.01137E+03 -4.69071E+03  6.41482E+03  3.34547E+03  6.95523E+02  4.14938E+03 -4.76220E+03  4.73491E+02
 -4.86703E+03 -6.56137E+03 -4.36647E+01 -1.07391E+04  5.77171E+03 -1.11066E+04  1.38412E+04 -5.11728E+03
  1.61464E+04  6.16348E+02  1.22283E+04  9.26421E+03  2.22318E+03  1.25276E+04 -6.42284E+03  1.05395E+04
 -9.06388E+03  2.80372E+03 -4.67908E+03 -2.35030E+03  2.06604E+03 -3.35779E+03  6.39886E+03 -1.59143E+03
  6.40649E+03  4.17087E+03  9.00518E+02  8.46079E+03 -6.44266E+03  8.92282E+03 -1.09116E+04  2.15377E+03
 -7.10613E+03 -5.10012E+03 -2.27560E+02 -8.71523E+03  5.23565E+03 -4.38689E+03  5.42944E+03  1.62837E+03
  1.17599E+03  5.50089E+03 -5.33478E+03  6.61018E+03 -7.90819E+03  3.60359E+03 -7.81672E+03 -2.76311E+03
 -4.77973E+03 -9.00236E+03  1.91748E+03 -1.07694E+04  9.43926E+03 -7.12547E+03  1.02267E+04  1.43149E+03
  6.73131E+03  7.92952E+03 -5.23250E+02  1.03107E+04 -7.28661E+03  5.63936E+03 -8.11476E+03 -1.02993E+03
 -7.55413E+03 -6.85252E+03 -1.22341E+03 -8.10548E+03  3.44849E+03 -6.84423E+03  5.21123E+03 -3.30172E+03
  3.16963E+03  4.45829E+02 -5.07762E+02  1.81281E+03 -6.15609E+02 -1.35312E+03  1.20814E+03 -3.81662E+03
  6.42237E+03 -2.76745E+03  8.27168E+03  1.09162E+03  9.58947E+03  5.87134E+03  6.80259E+03  1.19635E+04
 -2.30466E+03  1.41168E+04 -1.20379E+04  1.07966E+04 -1.54166E+04  2.06523E+03 -1.26580E+04 -5.59327E+03
 -6.02359E+03 -1.04133E+04 -9.34550E+02 -8.11961E+03  3.61305E+03 -4.32694E+03  2.71706E+03 -2.77200E+03
  2.11052E+03 -2.02786E+03  2.73781E+03 -2.63483E+03  4.54295E+03 -2.06202E+03  4.90844E+03 -2.52080E+02
  6.93641E+03  1.85123E+03  2.75780E+03  5.10099E+03 -2.24077E+03  5.45555E+03 -6.72388E+03  4.64173E+03
 -8.18639E+03 -1.52653E+03 -4.23395E+03 -6.20063E+03  1.99073E+02 -8.20344E+03  4.57083E+03 -8.36105E+03
  9.57908E+03 -4.65473E+03  1.10411E+04  1.48632E+03  7.68592E+03  6.74143E+03  1.76067E+03  1.04279E+04
 -3.94049E+03  8.30184E+03 -5.50737E+03  3.00414E+03 -3.13713E+03 -1.31017E+03 -1.12388E+03 -1.28975E+03
 -4.57942E+02  8.54835E+02 -1.46875E+03  2.27976E+03 -3.78088E+03  2.21247E+03 -6.35632E+03 -1.03750E+03
 -3.55118E+03 -6.15707E+03  8.96800E+02 -7.40651E+03  4.98067E+03 -6.79742E+03  7.60348E+03 -1.94584E+03
  7.75318E+03  3.63426E+03  3.40733E+03  5.99714E+03 -1.71479E+03  7.74964E+03 -5.10727E+03  4.17065E+03
 -7.50748E+03  1.07682E+03 -6.04187E+03 -4.16448E+03 -5.42381E+02 -6.34398E+03  3.69186E+03 -4.87243E+03
  4.75586E+03 -1.89345E+03  3.01497E+03  9.56446E+02  1.24597E+03  2.22240E+03  1.06724E+03  8.35632E+02
  2.14711E+03  5.43695E+02  2.43938E+03  1.09285E+03  2.16717E+03  2.99175E+03  2.40806E+03  3.72064E+03
 -1.72366E+03  5.87062E+03 -4.47639E+03  6.52487E+03 -6.64563E+03  2.90205E+03 -7.42194E+03 -2.30912E+03
 -3.16616E+03 -7.01425E+03  7.68610E+02 -9.17479E+03  3.98767E+03 -4.90235E+03  6.27919E+03 -1.43692E+03
  5.20186E+03  2.96266E+03  1.29496E+03  3.81340E+03 -2.14889E+03  2.91009E+03 -3.00367E+03 -1.01854E+03
 -1.27221E+03 -2.86271E+03  2.10947E+03 -3.47251E+03  2.75383E+03 -1.86727E+03  2.93441E+03  4.27449E+02
  1.94648E+03  9.37049E+02  1.38184E+03  7.21588E+02 -1.88724E+02  1.20897E+03  1.55717E+03 -5.52163E+02
  3.81128E+02 -5.26014E+02  3.41107E+03  7.83617E+02  7.87203E+02  4.16508E+03 -9.15860E+02  5.28420E+03
 -3.05268E+03  3.52940E+03 -4.47531E+03  1.24366E+03 -4.01370E+03 -2.37973E+03 -1.25507E+03 -3.17937E+03
  9.54427E+02 -2.96130E+03  1.76403E+03 -1.66415E+03  8.72359E+02  1.86921E+03 -7.11445E+02  2.21336E+03
 -2.20041E+03  9.10110E+02 -2.64999E+03 -2.00516E+03 -1.40897E+03 -3.42269E+03  4.46300E+02 -4.19565E+03
  2.75546E+03 -1.63226E+03  2.50536E+03 -2.21828E+02  2.35695E+03  2.05204E+02  3.40707E+02  2.35461E+03
 -4.38185E+02  2.47702E+01 -1.98175E+03 -7.07619E+02  1.09878E+03 -2.38799E+03  3.58137E+03 -2.15531E+03
  3.57795E+03  9.83263E+02  5.36702E+03  2.65059E+03  1.80551E+03  3.77180E+03 -1.03705E+03  3.54606E+03
 -3.26414E+03  1.39686E+03 -4.02840E+03 -8.26688E+02 -2.42080E+03 -2.87585E+03  1.04458E+03 -2.95269E+03
  2.75067E+03 -1.52980E+03  2.06497E+03  1.30076E+03  9.34781E+02  2.14266E+03 -9.21558E+02  2.18315E+03
 -1.20289E+03  1.77520E+03 -1.19938E+03 -3.14224E+02 -4.95654E+02  7.06928E+02 -1.04065E+03  8.92787E+02
 -1.23888E+03  1.87905E+03 -3.06777E+03  1.13915E+03 -4.03978E+03  1.83625E+02 -5.07255E+03 -2.68018E+03
 -2.19509E+03 -4.82092E+03  1.02897E+03 -6.41501E+03  3.47838E+03 -5.36638E+03  6.30881E+03 -2.22754E+03
  5.41670E+03  1.15733E+03  3.42915E+03  3.81269E+03 -5.35831E+02  3.96743E+03 -1.68381E+03  3.74604E+03
 -2.30700E+03  1.86976E+03 -2.42900E+03 -5.66036E+02 -1.13024E+03 -3.71990E+02 -1.00218E+03 -9.68487E+01
 -8.89128E+02 -3.73682E+01 -1.29130E+03  1.30351E+02  2.93325E+02 -1.35901E+03 -2.78601E+01 -1.68908E+03
  2.29104E+03 -9.95487E+02  1.71120E+03  6.57948E+02  3.18935E+03  2.31483E+03 -3.96130E+02  3.57045E+03
 -1.80885E+03  4.97537E+03 -3.93621E+03  2.72089E+03 -4.53361E+03 -4.62143E+02 -3.01377E+03 -3.06657E+03
 -1.89961E+03 -4.12127E+03  1.08894E+03 -4.14839E+03  2.76780E+03 -1.66889E+03  1.95980E+03 -2.23843E+02
  1.92389E+03  9.18008E+02  6.95067E+01  3.04503E+02 -8.81682E+02 -4.86435E+02  4.29240E+02 -5.30884E+02
  9.69600E+02 -2.53848E+02  1.65160E+03  9.74824E+02  4.68788E+02  1.34965E+03  1.95320E+02  1.53706E+03
 -1.58807E+03  1.21893E+03 -1.80632E+03  1.21450E+02 -2.19957E+03 -1.50190E+03 -1.03774E+03 -3.26816E+03
  1.28218E+03 -2.81293E+03  1.87735E+03 -8.61210E+02  2.82927E+03  1.43015E+02  1.33916E+03  2.21846E+03
  4.95680E+02  1.71213E+03 -8.01749E+02  2.35849E+03 -1.24529E+03  1.25341E+03 -1.29611E+03  1.39477E+02
 -4.18770E+02 -5.94605E+02 -1.03268E+03  6.94357E+02 -1.65014E+03  1.04844E+03 -1.67099E+03 -1.11977E+02
 -2.42313E+03 -5.19878E+02 -9.42713E+02 -2.20739E+03  1.31301E+03 -3.39054E+03  2.46809E+03 -1.10152E+03
  2.03105E+03  4.79106E+02  3.82218E+02  1.55025E+03  3.10281E+01  2.80120E+03 -1.33013E+03  1.53881E+03
