 $NMID ID='MM_0lb_SNR400_7hz_g40_15.RAW', FMTDAT='(8E13.5)'
 TRAMP=1., VOLUME=1. $END
  3.09835E+05 -5.28375E+02  3.38096E+05  2.51433E+05  8.37494E+04  3.39143E+05 -1.32612E+05  2.52827E+05
 -1.91032E+05  8.38771E+04 -1.12462E+05 -3.24308E+04  1.00629E+02 -5.04735E+04  5.31675E+04 -1.94345E+02
  3.50781E+04  5.28775E+04 -1.63534E+04  7.58662E+04 -6.17566E+04  6.41221E+04 -8.66004E+04  3.32076E+04
 -8.28455E+04 -1.19732E+04 -5.89134E+04 -5.28580E+04 -1.50189E+04 -6.96349E+04  2.79603E+04 -4.71547E+04
  4.12910E+04  4.17307E+03  1.65749E+04  4.87646E+04 -3.49222E+04  4.80543E+04 -6.85722E+04  1.60466E+01
 -5.54550E+04 -5.75965E+04 -8.01936E+03 -8.01636E+04  3.53028E+04 -5.69606E+04  4.94674E+04 -1.82779E+04
  4.48515E+04  1.16708E+04  3.30420E+04  2.78160E+04  1.62413E+04  3.10146E+04 -6.81384E+03  2.69724E+04
 -2.22735E+04  1.20954E+04 -1.73197E+04 -5.83539E+03  7.46358E+03 -7.28102E+03  2.31675E+04  1.41769E+04
  6.03699E+03  3.77744E+04 -3.44894E+04  3.69880E+04 -6.63642E+04  2.60222E+03 -5.95065E+04 -4.59670E+04
 -1.29002E+04 -6.59414E+04  4.24045E+04 -4.76386E+04  6.16569E+04 -3.13672E+03  3.71977E+04  3.52629E+04
 -5.11237E+03  4.06887E+04 -3.21962E+04  1.89914E+04 -3.39923E+04 -3.36702E+03 -1.90925E+04 -1.31646E+04
 -1.02166E+04 -1.52151E+04  4.62182E+00 -1.95244E+04  8.99832E+03 -2.39042E+04  1.56138E+04 -1.34234E+04
  9.60010E+03  6.48901E+03 -1.14604E+04  1.15677E+04 -2.39641E+04 -7.72887E+03 -9.55083E+03 -3.79795E+04
  2.55771E+04 -4.69471E+04  5.34725E+04 -2.11454E+04  4.99264E+04  2.16663E+04  1.76145E+04  4.75623E+04
 -1.67736E+04  3.72565E+04 -2.84492E+04  2.48491E+03 -1.26623E+04 -3.00844E+04  2.23472E+04 -3.76615E+04
  4.51944E+04 -1.20452E+04  4.24404E+04  2.57886E+04  2.09431E+04  5.31576E+04 -8.68925E+03  5.75241E+04
 -3.59329E+04  3.92507E+04 -4.88395E+04  1.18366E+04 -4.91907E+04 -1.88275E+04 -2.63862E+04 -4.32985E+04
  7.25019E+03 -4.27046E+04  3.52871E+04 -1.69609E+04  3.32427E+04  1.14187E+04  5.55959E+03  2.07170E+04
 -1.48647E+04  9.79274E+03 -1.15995E+04 -7.08057E+03  6.41268E+03 -1.11333E+04  1.93418E+04  5.40379E+03
  1.47218E+04  2.33307E+04 -6.12767E+03  2.80388E+04 -2.39723E+04  1.47158E+04 -3.25436E+04 -9.81171E+02
 -2.73753E+04 -1.82925E+04 -1.24710E+04 -2.68344E+04  4.78802E+03 -2.74032E+04  2.07662E+04 -2.50896E+04
  3.43756E+04 -1.46016E+04  3.99673E+04  5.88575E+03  2.80703E+04  2.60790E+04  4.79488E+03  4.24559E+04
 -1.96632E+04  3.40190E+04 -3.10561E+04  1.28668E+04 -2.19875E+04 -9.39936E+03 -5.26770E+03 -1.32028E+04
  1.46566E+03 -6.21497E+01 -8.19568E+03  8.50037E+03 -2.09600E+04  5.50318E+03 -2.02678E+04 -1.02965E+04
 -1.19814E+04 -2.53669E+04  5.73289E+03 -2.93422E+04  1.91191E+04 -2.04037E+04  2.36018E+04 -2.36049E+03
  1.53974E+04  1.69604E+04 -1.33890E+03  2.54945E+04 -1.81228E+04  1.41654E+04 -2.59231E+04 -5.49013E+03
 -1.81318E+04 -2.16803E+04 -1.95240E+03 -2.96708E+04  1.34377E+04 -2.35430E+04  2.36868E+04 -1.32084E+04
  2.33632E+04 -5.21681E+02  1.67701E+04  5.34432E+03  9.23861E+03  1.67238E+03  1.36450E+04 -1.83553E+03
  2.42238E+04  3.34357E+03  2.75124E+04  1.92503E+04  1.89340E+04  3.95229E+04 -2.41323E+03  4.66947E+04
 -2.73806E+04  4.01904E+04 -4.45809E+04  2.06414E+04 -4.81197E+04 -4.11388E+03 -3.89394E+04 -2.72951E+04
 -1.55860E+04 -3.97139E+04  1.46155E+04 -3.57961E+04  2.97139E+04 -1.52601E+04  2.58083E+04  7.09466E+03
  8.74533E+03  2.00336E+04 -1.20958E+04  1.65762E+04 -2.11381E+04  3.06271E+03 -1.64309E+04 -1.34126E+04
 -2.69667E+02 -2.05597E+04  1.08591E+04 -1.49491E+04  1.43526E+04 -3.60125E+02  2.96665E+03  9.96517E+03
 -8.74569E+03  5.24802E+03 -9.94543E+03 -7.03601E+03 -2.86062E+03 -1.91873E+04  1.29134E+04 -2.22608E+04
  2.52895E+04 -1.37233E+04  2.83847E+04  3.13984E+03  2.45879E+04  1.99722E+04  1.21686E+04  3.20639E+04
 -5.97959E+03  3.35941E+04 -2.21496E+04  2.07723E+04 -2.44661E+04  4.57769E+03 -1.72825E+04 -5.98415E+03
 -7.13797E+03 -7.26698E+03 -5.68315E+02  9.57241E+02 -3.03934E+03  3.72104E+03 -8.34396E+03  5.74034E+03
 -1.50832E+04 -6.17272E+02 -1.62694E+04 -1.30164E+04 -6.48396E+03 -2.04950E+04  5.75805E+03 -1.73070E+04
  1.43736E+04 -7.32322E+03  9.68509E+03  4.83208E+03 -5.21733E+02  6.58522E+03 -8.10741E+03 -4.30018E+02
 -7.27386E+03 -1.06608E+04 -1.15220E+03 -1.62402E+04  1.02638E+04 -1.92249E+04  2.13415E+04 -9.51244E+03
  2.61479E+04  2.44640E+03  1.84297E+04  1.52726E+04  3.50030E+03  2.06695E+04 -1.05067E+04  1.60156E+04
 -1.25368E+04  4.91306E+03 -7.61987E+03 -4.43954E+03  2.71354E+03 -4.78553E+03  8.33670E+03 -1.62087E+03
  6.93047E+03  7.51586E+03  1.07536E+03  1.31510E+04 -1.00330E+04  1.37767E+04 -1.67829E+04  2.58320E+03
 -1.17985E+04 -8.86557E+03 -1.73209E+02 -1.46989E+04  1.01453E+04 -7.10694E+03  1.03202E+04  4.56023E+03
  2.45877E+03  1.12760E+04 -8.73185E+03  1.34483E+04 -1.53795E+04  6.27811E+03 -1.53056E+04 -5.25248E+03
 -8.51698E+03 -1.82953E+04  4.51898E+03 -2.07480E+04  1.68476E+04 -1.21408E+04  1.89721E+04  3.36252E+03
  1.16846E+04  1.50665E+04 -1.91934E+03  1.69555E+04 -1.30081E+04  1.00697E+04 -1.45787E+04 -2.32438E+03
 -1.16397E+04 -1.16414E+04 -2.10648E+03 -1.36238E+04  7.03595E+03 -1.11750E+04  8.27455E+03 -3.31019E+03
  5.49877E+03  2.00957E+03 -1.57801E+03  2.43297E+03 -9.63317E+02 -4.41648E+03  3.28500E+03 -7.76271E+03
  1.38217E+04 -5.85017E+03  1.86874E+04  2.45939E+03  1.72895E+04  1.29640E+04  1.08683E+04  2.49919E+04
 -5.10665E+03  2.76648E+04 -2.34670E+04  1.95797E+04 -2.86558E+04  4.22156E+03 -2.35851E+04 -1.15289E+04
 -1.21209E+04 -1.96876E+04 -1.34477E+02 -1.67785E+04  5.35806E+03 -9.47143E+03  7.15886E+03 -6.62720E+03
  4.25176E+03 -2.47616E+03  4.79987E+03 -3.96585E+03  6.39462E+03 -5.18786E+03  9.43090E+03 -2.59083E+03
  1.15574E+04  2.66707E+03  7.01669E+03  1.13447E+04 -9.64131E+02  1.30956E+04 -1.33087E+04  9.99568E+03
 -1.74137E+04 -2.38820E+03 -1.18591E+04 -1.18835E+04 -1.64823E+03 -1.72382E+04  1.00408E+04 -1.84316E+04
  1.93672E+04 -1.00341E+04  2.26389E+04  2.99612E+03  1.58319E+04  1.62986E+04  2.96743E+03  2.11939E+04
 -8.89103E+03  1.64154E+04 -1.13039E+04  5.37791E+03 -8.25690E+03 -1.99692E+03 -4.58391E+03 -3.06307E+03
 -2.19020E+03  2.31201E+02 -2.88536E+03  2.73773E+03 -7.12493E+03  3.42758E+03 -1.24910E+04 -1.79009E+03
 -8.74527E+03 -1.13086E+04 -3.70119E+02 -1.74178E+04  1.00497E+04 -1.56687E+04  1.77626E+04 -4.63485E+03
  1.74406E+04  8.39174E+03  8.85757E+03  1.53423E+04 -4.48502E+03  1.79475E+04 -1.28775E+04  1.03839E+04
 -1.67886E+04  5.50753E+02 -1.26326E+04 -1.02245E+04 -1.43218E+03 -1.41572E+04  7.99268E+03 -1.06220E+04
  1.11109E+04 -3.76123E+03  7.18038E+03  3.72355E+03  3.23451E+03  5.19146E+03  1.35692E+03  2.59529E+03
  2.76269E+03  1.63903E+03  3.77152E+03  2.77718E+03  4.80859E+03  4.97267E+03  5.06800E+03  9.65698E+03
 -4.19606E+03  1.36316E+04 -1.30066E+04  1.39729E+04 -1.83710E+04  3.91963E+03 -1.88879E+04 -8.09095E+03
 -9.96370E+03 -1.77835E+04  2.22484E+03 -1.97574E+04  1.05523E+04 -1.28646E+04  1.56213E+04 -3.13903E+03
  1.13425E+04  6.59688E+03  2.42942E+03  1.10134E+04 -4.86534E+03  7.36199E+03 -8.38960E+03 -9.05139E+02
 -3.85571E+03 -8.17944E+03  4.39655E+03 -8.27216E+03  7.43877E+03 -3.90772E+03  7.02233E+03  1.22942E+03
  4.18457E+03  5.01737E+03  1.31300E+03  3.89048E+03 -1.03799E+03  3.31450E+03  2.06184E+03 -1.24430E+03
  3.34326E+03 -1.43175E+03  8.37305E+03  3.38157E+03  4.88357E+03  8.77237E+03 -1.09473E+03  1.39462E+04
 -9.89598E+03  9.60612E+03 -1.26321E+04  2.67244E+03 -1.09163E+04 -4.24327E+03 -4.57851E+03 -7.69389E+03
  1.39373E+03 -7.04175E+03  4.78401E+03 -3.88236E+03  4.17462E+03  3.30899E+03 -1.84892E+03  6.90031E+03
 -8.38576E+03  4.44638E+03 -9.28236E+03 -4.43880E+03 -5.51029E+03 -1.12099E+04  1.30179E+03 -1.19132E+04
  6.92817E+03 -6.24595E+03  8.15751E+03 -1.51169E+03  6.93189E+03  3.05013E+03  1.06775E+03  5.66381E+03
 -3.85755E+03  2.02612E+03 -4.92074E+03 -4.14932E+03  1.41668E+03 -9.65818E+03  9.18067E+03 -6.69423E+03
  1.24130E+04  1.14782E+03  1.16161E+04  8.84576E+03  3.96422E+03  1.27686E+04 -5.28481E+03  1.11922E+04
 -1.07383E+04  5.90043E+03 -1.19526E+04 -1.54867E+03 -6.33394E+03 -8.31882E+03  2.14889E+03 -9.54261E+03
  9.10899E+03 -3.83597E+03  7.82474E+03  3.50801E+03  1.94400E+03  6.56598E+03 -9.98306E+02  6.88090E+03
 -3.59079E+03  3.68047E+03 -2.55747E+03  1.23750E+03 -8.63646E+02  1.56717E+03 -1.71011E+03  2.32009E+03
 -3.59398E+03  5.03472E+03 -8.78160E+03  5.19387E+03 -1.23829E+04  1.75321E+01 -1.36351E+04 -8.63356E+03
 -7.50461E+03 -1.70392E+04  3.65444E+03 -1.89890E+04  1.33564E+04 -1.51897E+04  1.89707E+04 -6.08361E+03
  1.74318E+04  3.87113E+03  1.05480E+04  1.19327E+04  1.55953E+03  1.41564E+04 -5.25768E+03  9.39916E+03
 -7.27072E+03  3.59244E+03 -4.71689E+03 -1.24311E+03 -1.56821E+03 -1.63128E+03 -7.94001E+02 -1.13703E+02
 -2.05221E+03  4.44442E+02 -3.51675E+03 -2.99729E+02 -1.40371E+03 -3.72551E+03  3.43246E+02 -5.54965E+03
  5.77401E+03 -4.03103E+03  8.54561E+03 -3.15249E+02  1.00758E+04  5.96887E+03  2.69873E+03  1.34638E+04
 -6.53196E+03  1.61179E+04 -1.49675E+04  9.29675E+03 -1.66513E+04 -1.39310E+03 -1.27202E+04 -1.01495E+04
 -5.60128E+03 -1.42384E+04  3.96047E+03 -1.32796E+04  8.99245E+03 -8.11066E+03  1.01981E+04  7.48618E+02
  4.66718E+03  4.34812E+03 -1.62445E+03  3.61097E+03 -2.91607E+03 -1.45532E+02 -8.02026E+02 -3.52081E+03
  4.90984E+03 -2.08693E+03  5.43108E+03  1.76167E+03  3.79207E+03  6.05516E+03  1.11818E+03  7.67412E+03
 -7.28849E+03  6.79128E+03 -1.01065E+04  2.65147E+02 -9.56028E+03 -7.44805E+03 -1.75781E+03 -1.25892E+04
  6.79880E+03 -9.50203E+03  1.08384E+04 -3.38245E+03  1.16559E+04  2.54379E+03  6.74190E+03  9.40739E+03
  2.02195E+03  9.73926E+03 -4.17756E+03  8.40861E+03 -6.23808E+03  4.51456E+03 -4.49875E+03  2.21014E+02
 -2.67764E+03 -4.04215E+02 -3.44969E+03  1.09854E+03 -4.61809E+03  1.30790E+03 -7.22672E+03 -1.74155E+03
 -7.18992E+03 -5.53992E+03 -2.33985E+03 -8.91176E+03  4.40746E+03 -9.32278E+03  8.59944E+03 -5.17241E+03
  9.73052E+03  1.98844E+03  5.47605E+03  7.44670E+03 -1.02018E+03  1.01667E+04 -8.10775E+03  6.60875E+03
