 $NMID ID='MM_0lb_SNR400_17hz_g40_55.RAW', FMTDAT='(8E13.5)'
 TRAMP=1., VOLUME=1. $END
  3.09613E+05  1.24678E+02  3.37250E+05  2.50647E+05  8.42122E+04  3.37318E+05 -1.32030E+05  2.49916E+05
 -1.89627E+05  8.26731E+04 -1.10599E+05 -3.26116E+04  1.25837E+03 -5.10223E+04  5.39332E+04  3.34575E+02
  3.49665E+04  5.30726E+04 -1.72328E+04  7.53130E+04 -6.05690E+04  6.28111E+04 -8.33607E+04  3.15911E+04
 -7.97076E+04 -1.08183E+04 -5.68745E+04 -5.01809E+04 -1.53271E+04 -6.80788E+04  2.71046E+04 -4.48248E+04
  3.90880E+04  4.19913E+03  1.55980E+04  4.70286E+04 -3.37773E+04  4.68129E+04 -6.53507E+04 -7.72304E+02
 -5.24572E+04 -5.64849E+04 -5.89925E+03 -7.46302E+04  3.32667E+04 -5.31903E+04  4.63834E+04 -1.65393E+04
  4.11331E+04  1.10197E+04  3.07880E+04  2.46273E+04  1.57770E+04  2.86030E+04 -4.65744E+03  2.63839E+04
 -2.17802E+04  1.28727E+04 -1.89730E+04 -4.68589E+03  4.45252E+03 -7.53710E+03  2.13095E+04  1.08660E+04
  7.03824E+03  3.36242E+04 -3.06006E+04  3.39861E+04 -6.09521E+04  2.45833E+03 -5.55025E+04 -4.17737E+04
 -1.22240E+04 -6.10812E+04  3.82266E+04 -4.34322E+04  5.56347E+04 -1.85973E+03  3.22688E+04  3.09413E+04
 -7.27805E+03  3.36261E+04 -2.82008E+04  1.42076E+04 -2.80120E+04 -5.70440E+03 -1.43599E+04 -9.58678E+03
 -7.48811E+03 -1.16894E+04 -1.11771E+03 -1.71268E+04  6.58335E+03 -2.22036E+04  1.58544E+04 -1.39734E+04
  1.23824E+04  4.40168E+03 -6.81804E+03  1.27901E+04 -1.97078E+04 -2.92298E+03 -7.68441E+03 -3.10114E+04
  2.07631E+04 -4.07505E+04  4.47351E+04 -1.82143E+04  4.22353E+04  1.86654E+04  1.46449E+04  4.19355E+04
 -1.54262E+04  3.17096E+04 -2.37366E+04  1.01938E+03 -8.56177E+03 -2.62332E+04  2.02328E+04 -3.18772E+04
  3.86451E+04 -7.58342E+03  3.18440E+04  2.27465E+04  1.59734E+04  4.31751E+04 -7.85590E+03  4.55117E+04
 -2.84835E+04  3.00282E+04 -3.77372E+04  9.18585E+03 -3.89789E+04 -1.52507E+04 -2.11809E+04 -3.47403E+04
  6.59733E+03 -3.41296E+04  2.89726E+04 -1.27577E+04  2.73284E+04  1.11975E+04  3.24605E+03  1.76660E+04
 -1.32543E+04  7.38422E+03 -9.51082E+03 -8.03029E+03  5.76684E+03 -9.80214E+03  1.70940E+04  6.29786E+03
  1.22651E+04  2.21927E+04 -6.47312E+03  2.37202E+04 -2.13508E+04  9.79567E+03 -2.51530E+04 -5.85064E+03
 -1.71836E+04 -1.61699E+04 -5.85039E+03 -1.73565E+04  2.86394E+03 -1.56120E+04  1.30551E+04 -1.48843E+04
  2.18969E+04 -1.20784E+04  2.93299E+04  2.00738E+03  2.17443E+04  1.74938E+04  3.73846E+03  3.22798E+04
 -1.59173E+04  2.78002E+04 -2.57901E+04  9.34526E+03 -1.94984E+04 -9.95689E+03 -4.42727E+03 -1.37079E+04
  3.05321E+03 -3.45887E+03 -3.03947E+03  5.41056E+03 -1.29182E+04  5.43264E+03 -1.39651E+04 -5.32252E+03
 -9.26736E+03 -1.64987E+04  4.50715E+03 -1.99200E+04  1.30727E+04 -1.48335E+04  1.43322E+04 -1.39972E+03
  9.88208E+03  1.10682E+04 -1.02830E+03  1.58424E+04 -1.13898E+04  9.47083E+03 -1.58225E+04 -3.55930E+03
 -1.23809E+04 -1.46488E+04 -1.22069E+03 -1.96966E+04  8.56296E+03 -1.61458E+04  1.64950E+04 -7.69783E+03
  1.50488E+04  9.97428E+02  1.06626E+04  3.85168E+03  5.07689E+03  6.31291E+02  8.41480E+03 -1.63712E+03
  1.43910E+04  2.92269E+03  1.57585E+04  1.32535E+04  9.47161E+03  2.55892E+04 -3.00327E+03  2.80892E+04
 -1.63844E+04  2.14930E+04 -2.56975E+04  1.06952E+04 -2.61428E+04 -1.39673E+03 -2.17771E+04 -1.49035E+04
 -1.05969E+04 -2.11058E+04  7.73773E+03 -1.97551E+04  1.70800E+04 -1.05997E+04  1.63046E+04  3.96631E+03
  6.08856E+03  1.20358E+04 -7.76819E+03  1.09898E+04 -1.37533E+04  2.69993E+03 -1.08921E+04 -8.50849E+03
  3.14205E+02 -1.31334E+04  6.63104E+03 -9.41508E+03  8.19535E+03 -1.04141E+03  1.27498E+03  4.94829E+03
 -5.24774E+03  7.68821E+02 -3.50570E+03 -4.63789E+03  8.63175E+02 -1.03668E+04  8.21899E+03 -1.06101E+04
  1.29932E+04 -4.90297E+03  1.29924E+04  3.03617E+03  1.11965E+04  9.94491E+03  4.75850E+03  1.51867E+04
 -2.14527E+03  1.72594E+04 -1.03441E+04  1.07603E+04 -1.24949E+04  2.73524E+03 -8.98841E+03 -2.65468E+03
 -4.80392E+03 -3.58415E+03 -1.46873E+03  1.65665E+03 -2.34733E+03  2.30103E+03 -3.81744E+03  3.86107E+03
 -8.02031E+03 -2.09044E+02 -8.77767E+03 -7.48689E+03 -4.27323E+03 -1.19066E+04  3.57946E+03 -8.54081E+03
  7.64554E+03 -3.61058E+03  5.00319E+03  2.83627E+03  2.00156E+01  3.19446E+03 -3.55775E+03 -1.95855E+02
 -3.81342E+03 -5.43868E+03 -1.45037E+03 -7.81848E+03  4.52695E+03 -8.09639E+03  1.08112E+04 -4.81092E+03
  1.25405E+04  7.23813E+02  9.28380E+03  6.83394E+03  1.35956E+03  9.46714E+03 -5.89527E+03  8.89359E+03
 -7.49052E+03  2.97275E+03 -3.44261E+03 -1.28348E+03  1.32207E+03 -1.91532E+03  4.67419E+03 -1.26785E+03
  4.29451E+03  3.10340E+03  1.11041E+03  6.58917E+03 -4.76680E+03  6.85308E+03 -8.81454E+03  1.68269E+03
 -4.97518E+03 -4.29600E+03  6.63025E+02 -6.96545E+03  3.53545E+03 -3.75326E+03  3.93529E+03  1.16839E+03
  5.96668E+02  3.53781E+03 -4.25849E+03  4.61081E+03 -5.41595E+03  2.44983E+03 -5.44055E+03 -1.32133E+03
 -3.45418E+03 -6.87845E+03  1.29063E+03 -7.74770E+03  6.57659E+03 -4.88720E+03  7.43172E+03  1.09584E+03
  4.80471E+03  6.02782E+03 -1.32042E+02  7.56489E+03 -4.72467E+03  4.50535E+03 -5.41259E+03 -6.29566E+02
 -6.08701E+03 -5.16691E+03 -1.80064E+03 -5.32820E+03  3.56358E+03 -4.85107E+03  3.30714E+03 -3.06564E+03
  3.07683E+03  1.52613E+02  3.59223E+01  1.55158E+03  5.08351E+02 -2.79112E+02  8.64499E+02 -2.60488E+03
  3.97309E+03 -1.36898E+03  5.51190E+03  1.10299E+02  6.29686E+03  3.82984E+03  5.50434E+03  8.22642E+03
 -1.85951E+03  9.59241E+03 -8.74362E+03  7.12339E+03 -1.09882E+04  1.46049E+03 -8.50806E+03 -3.04945E+03
 -4.18774E+03 -6.93193E+03 -2.72627E+02 -5.60364E+03  2.04943E+03 -2.62694E+03  2.21110E+03 -2.48328E+03
  1.86481E+03 -1.86658E+03  2.52347E+03 -2.60809E+03  3.60286E+03 -1.25531E+03  3.67933E+03  4.70953E+02
  4.73991E+03  1.22860E+03  1.81388E+03  3.81078E+03 -1.58305E+03  3.55951E+03 -4.56920E+03  2.79339E+03
 -5.34348E+03 -9.34465E+02 -2.45655E+03 -3.35095E+03  3.71315E+02 -6.02910E+03  3.19690E+03 -6.38997E+03
  6.14152E+03 -3.90078E+03  7.86779E+03  4.32472E+02  5.86975E+03  5.20097E+03  1.77357E+03  7.00439E+03
 -2.78416E+03  6.35276E+03 -4.46251E+03  2.04348E+03 -1.99451E+03 -9.25997E+02 -6.56026E+02 -8.58386E+02
 -2.64464E+02  9.07483E+01 -1.26833E+03  1.57059E+03 -3.08938E+03  7.86673E+02 -4.74844E+03 -8.00190E+02
 -1.90260E+03 -4.87876E+03  1.07535E+03 -5.08473E+03  3.11358E+03 -4.19811E+03  4.33618E+03 -1.39819E+03
  5.12467E+03  2.97372E+03  2.14331E+03  4.14584E+03 -1.01931E+03  5.59634E+03 -3.22594E+03  3.24512E+03
 -4.51901E+03  6.32738E+02 -3.80063E+03 -3.15127E+03  9.66100E+01 -4.51576E+03  1.78260E+03 -3.13257E+03
  3.30771E+03 -1.30985E+03  1.86246E+03  4.40927E+02  2.34117E+02  2.24850E+03  2.87093E+02  5.10049E+02
  2.05822E+03  3.90921E+02  1.17775E+03  1.18531E+03  1.50852E+03  2.91715E+03  1.45947E+03  2.17835E+03
 -1.35540E+03  3.87571E+03 -2.87020E+03  4.91353E+03 -4.53358E+03  1.39262E+03 -4.46937E+03 -1.18885E+03
 -2.60087E+03 -4.44683E+03  9.92319E+02 -5.70170E+03  2.80964E+03 -2.79409E+03  3.86662E+03 -1.04023E+03
  3.00394E+03  1.52495E+03  5.74760E+02  2.88947E+03 -1.26081E+03  1.12274E+03 -1.56370E+03 -4.10719E+01
 -4.28985E+02 -1.54940E+03  1.97579E+03 -2.08377E+03  1.58832E+03 -1.13256E+03  2.21814E+03  5.31712E+02
  1.04367E+03  5.31503E+02  9.77713E+02  5.27606E+02 -7.50562E+02  8.41418E+02  1.69369E+03 -4.33030E+02
 -1.61258E+02 -3.92415E+01  2.39245E+03  1.29378E+03  3.62273E+02  2.38013E+03 -3.42770E+01  3.27923E+03
 -1.86487E+03  1.15319E+03 -3.28498E+03  2.14278E+02 -2.26977E+03 -1.16903E+03 -5.87155E+02 -1.11823E+03
  7.65202E+02 -1.53919E+03  6.17023E+02 -1.09597E+03  8.17940E+02  8.60748E+02 -8.09349E+02  1.67670E+03
 -2.17066E+03  7.96949E+02 -1.29584E+03 -1.12021E+03 -4.78264E+02 -2.50476E+03  3.30653E+02 -1.86715E+03
  6.78305E+02 -4.18530E+02  1.10776E+03  2.76036E+02  1.80360E+03  1.31372E+02  2.29472E+02  1.72643E+03
 -2.71625E+02  2.89285E+02 -1.23634E+03  9.80984E+01  8.31934E+02 -1.10224E+03  1.99534E+03 -9.87267E+02
  1.23558E+03  3.77278E+02  2.30840E+03  9.96998E+02  1.14309E+03  1.86433E+03 -2.61768E+02  2.04582E+03
 -2.08466E+03  7.24232E+02 -2.49547E+03 -3.14984E+02 -9.39396E+02 -1.85276E+03  8.30864E+02 -1.30971E+03
  1.48183E+03 -8.64847E+02  1.03329E+03 -1.75089E+02  4.92768E+02  1.84839E+03  8.11941E+02  1.81025E+03
 -1.09120E+03  1.19630E+03 -2.20558E+02  2.99345E+02  1.90980E+02  4.05945E+02 -7.33426E+02  5.50767E+02
 -7.11084E+02  1.54159E+03 -1.79477E+03  7.83361E+02 -2.25039E+03  2.46337E+02 -3.24020E+03 -1.55296E+03
 -1.91314E+03 -2.95262E+03  1.07335E+03 -3.69224E+03  2.10477E+03 -3.57177E+03  3.81963E+03 -1.28766E+03
  3.58950E+03 -2.43484E+01  1.75513E+03  2.50154E+03 -8.64749E+02  1.60352E+03 -5.67790E+02  1.78604E+03
 -1.09685E+03  5.02170E+02 -5.95630E+02 -3.71155E+02 -4.79112E+02  2.67685E+02 -9.14213E+02  3.93450E+02
 -1.38664E+03  7.66636E+01 -1.26648E+03  2.85782E+02  4.56760E+02 -8.17815E+02 -5.92036E+01 -8.33584E+02
  1.67371E+03 -1.33416E+03  1.60036E+03  4.75139E+01  1.19108E+03  1.65129E+03  2.45764E+02  1.92278E+03
 -1.39267E+03  3.17220E+03 -1.92372E+03  1.68500E+03 -2.53764E+03 -6.71254E+00 -1.77581E+03 -1.34707E+03
 -1.23753E+03 -1.51303E+03  8.39828E+01 -1.62574E+03  1.08069E+03 -1.10575E+03  1.29237E+03 -5.52826E+02
  8.18735E+02  2.68779E+02  2.15841E+02  5.00507E+02  2.79714E+02 -6.95036E+01  2.58344E+02 -4.42562E+02
  7.27509E+02  1.35824E+02  6.02121E+02  6.28563E+02  4.31374E+02  7.39382E+02  6.08630E+02  7.89973E+02
 -1.27578E+03  1.00227E+02 -7.37741E+02 -3.26182E+02 -2.12627E+03 -7.64577E+02  2.59047E+02 -1.45592E+03
  1.27517E+03 -1.07639E+03  9.51317E+02 -3.48180E+01  5.49733E+02 -2.91584E+02  5.64270E+02  1.36557E+03
  9.44377E+02  1.04031E+03 -7.08415E+02  1.35029E+03 -1.04956E+03  8.48998E+02 -5.60990E+02 -1.09047E+02
 -6.75667E+02 -3.66025E+02 -1.48974E+03 -3.57304E+02 -3.86196E+02  9.78456E+02 -1.26048E+03 -5.35926E+02
 -1.53698E+03 -8.85459E+01 -4.72551E+02 -1.15073E+03  6.23213E+02 -1.82222E+03  9.69472E+02 -5.21214E+02
  9.60654E+02  5.30788E+01 -9.52916E+01  2.86501E+02 -2.87703E+02  1.12719E+03 -9.56105E+02  1.45637E+03
