 $NMID ID='MM_0lb_SNR400_8hz_g45_93.RAW', FMTDAT='(8E13.5)'
 TRAMP=1., VOLUME=1. $END
  3.10031E+05  6.84739E+02  3.38080E+05  2.51051E+05  8.52718E+04  3.38639E+05 -1.32886E+05  2.51229E+05
 -1.91125E+05  8.36342E+04 -1.13166E+05 -3.24778E+04  5.14462E+02 -5.01273E+04  5.41381E+04 -3.31301E+02
  3.49799E+04  5.35971E+04 -1.69969E+04  7.62948E+04 -6.08422E+04  6.46033E+04 -8.59653E+04  3.18707E+04
 -8.22353E+04 -1.20850E+04 -5.85134E+04 -5.22869E+04 -1.47713E+04 -7.10988E+04  2.79297E+04 -4.65077E+04
  4.10401E+04  4.22333E+03  1.72152E+04  4.89653E+04 -3.40249E+04  4.87973E+04 -6.74920E+04  4.85020E+02
 -5.52387E+04 -5.79600E+04 -7.08058E+03 -7.96204E+04  3.53486E+04 -5.77444E+04  4.93573E+04 -1.82019E+04
  4.54173E+04  1.13016E+04  3.34148E+04  2.62130E+04  1.53854E+04  3.17941E+04 -6.66207E+03  2.77007E+04
 -2.28274E+04  1.21923E+04 -1.75847E+04 -6.10491E+03  8.17355E+03 -7.35471E+03  2.24784E+04  1.37317E+04
  7.00179E+03  3.71826E+04 -3.43016E+04  3.79216E+04 -6.60814E+04  2.69344E+03 -5.83403E+04 -4.40433E+04
 -1.24675E+04 -6.59707E+04  4.16612E+04 -4.78402E+04  6.14484E+04 -2.32649E+03  3.71422E+04  3.42692E+04
 -5.11374E+03  4.03309E+04 -3.14178E+04  1.88437E+04 -3.32826E+04 -4.16571E+03 -1.94061E+04 -1.24050E+04
 -9.91531E+03 -1.59400E+04 -5.21502E+02 -1.92545E+04  9.02633E+03 -2.35331E+04  1.54817E+04 -1.19516E+04
  1.05520E+04  6.53235E+03 -1.02352E+04  1.32979E+04 -2.32790E+04 -6.32330E+03 -8.47125E+03 -3.83979E+04
  2.52312E+04 -4.66743E+04  5.24611E+04 -2.13016E+04  4.90758E+04  2.06358E+04  1.78361E+04  4.74744E+04
 -1.69885E+04  3.70730E+04 -2.89964E+04  2.79680E+03 -1.13927E+04 -2.97215E+04  2.16636E+04 -3.80865E+04
  4.47744E+04 -1.12749E+04  4.03673E+04  2.54875E+04  2.10902E+04  5.23386E+04 -8.49314E+03  5.72925E+04
 -3.59318E+04  3.85813E+04 -4.88378E+04  1.11514E+04 -4.79084E+04 -1.82332E+04 -2.65224E+04 -4.29915E+04
  7.70559E+03 -4.24627E+04  3.40315E+04 -1.77575E+04  3.24533E+04  1.11822E+04  5.77496E+03  2.03075E+04
 -1.35481E+04  1.01199E+04 -1.13271E+04 -7.20716E+03  5.79591E+03 -1.13288E+04  1.82666E+04  5.27787E+03
  1.48114E+04  2.30173E+04 -5.45059E+03  2.66797E+04 -2.29811E+04  1.53800E+04 -3.25523E+04 -2.03566E+03
 -2.56890E+04 -1.84783E+04 -1.26578E+04 -2.60502E+04  4.04089E+03 -2.66014E+04  2.12162E+04 -2.38595E+04
  3.21601E+04 -1.33947E+04  3.83876E+04  4.74562E+03  2.71036E+04  2.50988E+04  5.07715E+03  4.25139E+04
 -1.86822E+04  3.35089E+04 -3.11936E+04  1.24362E+04 -2.27276E+04 -1.01862E+04 -4.04431E+03 -1.26041E+04
  2.91657E+02 -1.45681E+03 -7.65663E+03  7.93222E+03 -2.12388E+04  5.42742E+03 -2.04890E+04 -9.74540E+03
 -1.13089E+04 -2.40433E+04  5.36390E+03 -2.76556E+04  1.93084E+04 -2.07039E+04  2.41252E+04 -1.43336E+03
  1.51000E+04  1.63908E+04 -1.68986E+03  2.40545E+04 -1.69962E+04  1.47971E+04 -2.41007E+04 -5.24289E+03
 -1.72043E+04 -2.14124E+04 -2.21127E+03 -2.88313E+04  1.20276E+04 -2.30906E+04  2.38399E+04 -1.24580E+04
  2.32081E+04 -1.02807E+03  1.69188E+04  5.44402E+03  8.58296E+03  2.39111E+03  1.26103E+04 -2.39864E+03
  2.27802E+04  2.66200E+03  2.66863E+04  1.91460E+04  1.76283E+04  3.90695E+04 -2.34776E+03  4.48144E+04
 -2.58267E+04  3.78174E+04 -4.32336E+04  1.94523E+04 -4.60301E+04 -2.83623E+03 -3.76086E+04 -2.74613E+04
 -1.38250E+04 -3.86357E+04  1.37976E+04 -3.37817E+04  2.82272E+04 -1.60774E+04  2.59477E+04  8.44393E+03
  8.11537E+03  2.00986E+04 -1.26626E+04  1.61471E+04 -2.06078E+04  3.37933E+03 -1.54092E+04 -1.27317E+04
 -9.02832E+02 -1.94624E+04  1.01067E+04 -1.48314E+04  1.36981E+04 -1.38550E+03  3.47920E+03  8.81102E+03
 -9.06083E+03  4.56475E+03 -8.35086E+03 -7.88823E+03 -2.29742E+03 -1.90029E+04  1.31549E+04 -1.91207E+04
  2.41689E+04 -1.25298E+04  2.62457E+04  3.44561E+03  2.38843E+04  1.93124E+04  1.07831E+04  3.07425E+04
 -6.16256E+03  3.32691E+04 -2.17251E+04  2.01313E+04 -2.44325E+04  4.37453E+03 -1.62087E+04 -6.33649E+03
 -5.66786E+03 -6.28945E+03 -1.32947E+03  7.48152E+02 -2.92838E+03  4.25946E+03 -7.54399E+03  5.69388E+03
 -1.37136E+04 -9.47034E+02 -1.50385E+04 -1.12464E+04 -5.51829E+03 -2.06333E+04  5.93024E+03 -1.57535E+04
  1.31043E+04 -6.94704E+03  9.15027E+03  4.03218E+03 -2.42561E+02  7.03137E+03 -7.31054E+03  3.02144E+02
 -7.75107E+03 -1.00365E+04 -5.72097E+02 -1.56270E+04  9.95512E+03 -1.66466E+04  2.17465E+04 -8.84725E+03
  2.53408E+04  2.27559E+03  1.75867E+04  1.47268E+04  3.92992E+03  2.10004E+04 -1.02166E+04  1.61886E+04
 -1.35020E+04  4.50812E+03 -6.34305E+03 -3.36449E+03  1.94635E+03 -4.48295E+03  8.45377E+03 -1.68692E+03
  7.19418E+03  6.89032E+03  1.94314E+03  1.30807E+04 -9.58137E+03  1.30425E+04 -1.68323E+04  2.10382E+03
 -1.13496E+04 -9.07281E+03  3.52478E+02 -1.44399E+04  9.46539E+03 -6.99534E+03  9.44540E+03  3.98556E+03
  2.27933E+03  1.08524E+04 -8.38853E+03  1.24121E+04 -1.42970E+04  5.45483E+03 -1.49772E+04 -5.36400E+03
 -8.73740E+03 -1.77279E+04  4.94921E+03 -1.91503E+04  1.68524E+04 -1.12048E+04  1.75259E+04  3.31200E+03
  1.09896E+04  1.37999E+04 -1.83962E+03  1.71628E+04 -1.31792E+04  9.52217E+03 -1.35945E+04 -1.59851E+03
 -1.14570E+04 -1.19650E+04 -2.33480E+03 -1.33405E+04  6.39068E+03 -9.36072E+03  8.46346E+03 -3.80805E+03
  4.31818E+03  2.38573E+03 -1.58796E+03  1.79392E+03 -1.09968E+03 -4.55297E+03  2.36943E+03 -8.33699E+03
  1.18804E+04 -4.99376E+03  1.68181E+04  1.66506E+03  1.64714E+04  1.24347E+04  1.13957E+04  2.23292E+04
 -5.10286E+03  2.65020E+04 -2.09930E+04  1.90248E+04 -2.67977E+04  3.64983E+03 -2.21137E+04 -9.73922E+03
 -1.15811E+04 -1.80563E+04 -3.50828E+02 -1.57509E+04  5.85646E+03 -8.40661E+03  6.67301E+03 -5.93177E+03
  4.06371E+03 -3.02135E+03  4.29775E+03 -4.37740E+03  5.62656E+03 -3.98586E+03  8.56881E+03 -1.63924E+03
  1.13194E+04  2.36237E+03  6.73602E+03  9.57780E+03 -2.27574E+03  1.24147E+04 -1.24859E+04  8.59271E+03
 -1.64449E+04 -1.70902E+03 -1.01031E+04 -1.10259E+04 -1.66520E+03 -1.78847E+04  9.74146E+03 -1.73308E+04
  1.79002E+04 -9.34839E+03  2.13149E+04  2.97235E+03  1.42071E+04  1.51745E+04  3.12658E+03  1.86461E+04
 -8.33830E+03  1.54216E+04 -1.10773E+04  5.27174E+03 -7.46424E+03 -2.20466E+03 -3.93899E+03 -2.99329E+03
 -1.27894E+03  3.66454E+02 -2.06337E+03  2.93103E+03 -6.38168E+03  2.65929E+03 -1.19302E+04 -2.81123E+03
 -8.48309E+03 -1.07395E+04  2.70284E+02 -1.59901E+04  9.70284E+03 -1.47553E+04  1.65780E+04 -4.44494E+03
  1.58971E+04  7.47374E+03  8.10067E+03  1.36025E+04 -3.19830E+03  1.59731E+04 -1.19377E+04  9.41279E+03
 -1.60011E+04  8.74402E+02 -1.15085E+04 -1.00125E+04 -1.59918E+03 -1.36634E+04  7.56814E+03 -1.07920E+04
  1.05809E+04 -3.60129E+03  6.74806E+03  2.58547E+03  3.43935E+03  4.10672E+03  7.82045E+02  2.38946E+03
  2.40640E+03  9.78998E+02  3.93071E+03  9.64724E+02  4.77782E+03  5.48332E+03  3.08070E+03  8.87448E+03
 -3.77678E+03  1.32516E+04 -1.22309E+04  1.30548E+04 -1.66316E+04  3.06881E+03 -1.72104E+04 -8.01009E+03
 -9.45412E+03 -1.56508E+04  1.86501E+03 -1.78727E+04  9.39650E+03 -1.19129E+04  1.40370E+04 -2.45643E+03
  1.13950E+04  5.18441E+03  3.40510E+03  9.57203E+03 -4.79784E+03  6.16991E+03 -6.34219E+03 -1.36350E+02
 -3.35824E+03 -7.78423E+03  3.18170E+03 -8.07366E+03  6.67920E+03 -3.12551E+03  6.69274E+03  1.13118E+03
  3.67877E+03  3.76861E+03  2.58171E+03  3.05550E+03 -2.73276E+02  2.83849E+03  1.49821E+03  1.07911E+02
  2.79273E+03 -1.47751E+03  6.53009E+03  2.57441E+03  4.15529E+03  8.86277E+03 -1.53379E+03  1.24466E+04
 -8.02960E+03  7.37040E+03 -1.12217E+04  2.77638E+03 -9.23474E+03 -4.49616E+03 -3.54721E+03 -6.71321E+03
  7.78244E+02 -6.10300E+03  3.82295E+03 -3.45633E+03  3.61017E+03  3.98030E+03 -1.66042E+03  5.15618E+03
 -7.67684E+03  3.18157E+03 -8.89864E+03 -4.54735E+03 -5.27122E+03 -9.06704E+03  2.18675E+03 -9.51515E+03
  5.00729E+03 -5.95306E+03  7.53527E+03  5.28776E+02  6.74605E+03  3.37663E+03  9.06217E+02  4.06958E+03
 -3.38306E+03  1.56363E+03 -4.32518E+03 -3.83036E+03  1.13250E+03 -7.21329E+03  7.48540E+03 -6.20792E+03
  1.09722E+04  1.37263E+03  1.04367E+04  8.22319E+03  3.52380E+03  1.10283E+04 -4.51192E+03  1.04692E+04
 -9.60938E+03  4.75844E+03 -9.65362E+03 -1.06888E+02 -5.57826E+03 -7.71293E+03  7.78889E+02 -6.85357E+03
  7.02996E+03 -3.26289E+03  6.44293E+03  2.91298E+03  1.50763E+03  6.24532E+03 -7.27845E+02  5.44175E+03
 -2.81976E+03  3.73958E+03 -2.79460E+03  3.13037E+02 -1.28384E+03  8.04656E+02 -1.60720E+03  3.04204E+03
 -3.06084E+03  4.52556E+03 -7.61879E+03  4.06541E+03 -1.02661E+04  3.33462E+02 -1.30518E+04 -7.47008E+03
 -6.63612E+03 -1.51548E+04  3.03180E+03 -1.80123E+04  1.07698E+04 -1.34689E+04  1.63048E+04 -5.38891E+03
  1.58514E+04  3.11316E+03  1.01835E+04  1.02414E+04  1.73866E+03  1.15837E+04 -4.79290E+03  8.41475E+03
 -6.61218E+03  2.52016E+03 -4.28325E+03 -1.13387E+03 -1.90157E+03 -1.22133E+03 -6.28130E+02  3.04422E+01
 -9.47466E+02  5.48380E+01 -1.52585E+03 -1.00083E+03 -3.59253E+02 -2.63176E+03  1.03177E+03 -4.06434E+03
  4.87686E+03 -4.30948E+03  7.47842E+03  1.57306E+02  8.36330E+03  6.60214E+03  3.47635E+03  1.13451E+04
 -5.91956E+03  1.32405E+04 -1.24622E+04  7.45134E+03 -1.55580E+04 -1.75177E+03 -1.16004E+04 -9.23764E+03
 -4.79449E+03 -1.27818E+04  2.94373E+03 -1.12502E+04  7.76431E+03 -6.75253E+03  7.71004E+03 -4.23710E+02
  4.21200E+03  4.65712E+03 -6.51304E+02  3.33013E+03 -2.95000E+03 -6.09030E+01  4.61422E+02 -2.72497E+03
  3.69747E+03 -2.63696E+03  5.16039E+03  1.05881E+03  3.43200E+03  4.99612E+03 -1.13040E+02  6.84057E+03
 -5.71950E+03  5.14784E+03 -8.52465E+03  1.84649E+02 -7.32669E+03 -6.14561E+03 -1.69632E+03 -1.03235E+04
  6.64921E+03 -9.01341E+03  9.37304E+03 -3.08750E+03  1.00538E+04  1.51448E+03  5.23651E+03  7.34651E+03
  8.46146E+02  8.63908E+03 -3.62133E+03  6.52852E+03 -5.37290E+03  3.36271E+03 -4.14000E+03  2.67576E+02
 -2.41558E+03 -8.59135E+02 -1.99482E+03  5.93774E+02 -3.50091E+03  2.25765E+03 -6.85916E+03 -1.70079E+03
 -6.45098E+03 -4.05686E+03 -2.40767E+03 -8.98550E+03  4.19588E+03 -7.88960E+03  8.32435E+03 -3.51229E+03
  9.11407E+03  8.46085E+02  4.14802E+03  6.42262E+03 -1.08408E+03  8.21864E+03 -5.70037E+03  5.43282E+03
