 $NMID ID='MM_0lb_SNR400_19hz_g40_13.RAW', FMTDAT='(8E13.5)'
 TRAMP=1., VOLUME=1. $END
  3.09482E+05  2.69066E+02  3.37103E+05  2.50161E+05  8.44474E+04  3.36758E+05 -1.32368E+05  2.49835E+05
 -1.89426E+05  8.23313E+04 -1.10316E+05 -3.30244E+04  1.12154E+03 -5.04332E+04  5.38607E+04  6.18804E+02
  3.52233E+04  5.31553E+04 -1.69528E+04  7.45256E+04 -6.01666E+04  6.21037E+04 -8.23825E+04  3.10890E+04
 -7.88667E+04 -1.05958E+04 -5.59950E+04 -5.00315E+04 -1.47992E+04 -6.79016E+04  2.72114E+04 -4.40769E+04
  3.82981E+04  3.97301E+03  1.55620E+04  4.69261E+04 -3.37716E+04  4.54298E+04 -6.51454E+04 -7.15954E+02
 -5.16156E+04 -5.55508E+04 -6.47475E+03 -7.40891E+04  3.30325E+04 -5.25555E+04  4.60655E+04 -1.55514E+04
  4.10667E+04  1.07615E+04  3.02726E+04  2.37333E+04  1.54416E+04  2.79085E+04 -4.44346E+03  2.64819E+04
 -2.14536E+04  1.26931E+04 -1.97254E+04 -3.29225E+03  3.81018E+03 -7.31455E+03  2.13619E+04  1.01347E+04
  8.06038E+03  3.26768E+04 -2.95001E+04  3.36914E+04 -6.04449E+04  1.82028E+03 -5.47653E+04 -4.04270E+04
 -1.27323E+04 -6.01977E+04  3.75656E+04 -4.29169E+04  5.55348E+04 -2.08504E+03  3.10233E+04  2.95763E+04
 -6.91095E+03  3.19160E+04 -2.83905E+04  1.28217E+04 -2.68435E+04 -4.93176E+03 -1.35155E+04 -9.41351E+03
 -6.66778E+03 -1.15241E+04 -8.74765E+02 -1.62486E+04  6.30134E+03 -2.21210E+04  1.46117E+04 -1.38649E+04
  1.27800E+04  3.55351E+03 -5.54215E+03  1.29197E+04 -1.84984E+04 -2.25006E+03 -8.02297E+03 -2.92610E+04
  2.03574E+04 -3.97983E+04  4.42442E+04 -1.82213E+04  4.09982E+04  1.80178E+04  1.39974E+04  4.05361E+04
 -1.52288E+04  3.01660E+04 -2.27574E+04  1.07721E+03 -7.98462E+03 -2.58323E+04  2.00743E+04 -3.02571E+04
  3.75253E+04 -6.41162E+03  3.03044E+04  2.25239E+04  1.48356E+04  4.12436E+04 -7.97238E+03  4.36166E+04
 -2.71555E+04  2.89228E+04 -3.58024E+04  8.19940E+03 -3.72296E+04 -1.44266E+04 -2.04517E+04 -3.36172E+04
  6.64932E+03 -3.33219E+04  2.86406E+04 -1.22338E+04  2.64428E+04  1.07173E+04  2.43010E+03  1.72536E+04
 -1.30285E+04  6.53255E+03 -9.36648E+03 -7.92460E+03  5.61020E+03 -9.79101E+03  1.74138E+04  6.29192E+03
  1.18602E+04  2.12846E+04 -7.17176E+03  2.23576E+04 -2.14331E+04  8.44999E+03 -2.41460E+04 -7.08878E+03
 -1.59676E+04 -1.60823E+04 -5.14874E+03 -1.59395E+04  3.97983E+03 -1.35716E+04  1.12695E+04 -1.36447E+04
  2.03551E+04 -1.13604E+04  2.73000E+04  7.64389E+02  2.06599E+04  1.50801E+04  3.39810E+03  3.09998E+04
 -1.55914E+04  2.72882E+04 -2.54219E+04  9.04491E+03 -1.94214E+04 -1.05267E+04 -3.44730E+03 -1.40502E+04
  2.87713E+03 -4.04323E+03 -2.02472E+03  5.23793E+03 -1.19383E+04  5.50867E+03 -1.24728E+04 -4.65235E+03
 -8.16866E+03 -1.46324E+04  4.54931E+03 -1.86712E+04  1.18713E+04 -1.35476E+04  1.34866E+04 -1.31765E+03
  7.95671E+03  1.06140E+04 -4.81602E+02  1.49522E+04 -9.93558E+03  8.29962E+03 -1.44536E+04 -2.81293E+03
 -1.08069E+04 -1.34067E+04 -1.30119E+03 -1.79145E+04  8.21974E+03 -1.42112E+04  1.61971E+04 -7.03196E+03
  1.37076E+04  1.00981E+03  9.46889E+03  3.51915E+03  4.69949E+03  1.99433E+02  6.63947E+03 -1.23202E+03
  1.27025E+04  2.86818E+03  1.36482E+04  1.24670E+04  8.11612E+03  2.35766E+04 -3.17414E+03  2.43501E+04
 -1.45001E+04  1.90194E+04 -2.27020E+04  8.55075E+03 -2.23179E+04 -1.73621E+03 -1.98776E+04 -1.37272E+04
 -9.91925E+03 -1.87114E+04  6.13290E+03 -1.76670E+04  1.54984E+04 -1.04358E+04  1.48571E+04  3.30687E+03
  6.07987E+03  1.01232E+04 -6.26911E+03  1.03741E+04 -1.24214E+04  2.44571E+03 -9.55085E+03 -7.33085E+03
  1.08605E+02 -1.13538E+04  5.81810E+03 -9.33642E+03  7.43227E+03 -1.19580E+03  1.14909E+03  4.66232E+03
 -4.89088E+03  8.39704E+02 -3.30485E+03 -4.86751E+03  1.26597E+03 -9.70034E+03  7.26088E+03 -9.42713E+03
  1.12629E+04 -4.55880E+03  1.06695E+04  2.75319E+03  8.97929E+03  8.92003E+03  4.82175E+03  1.29985E+04
 -1.42649E+03  1.41833E+04 -8.82472E+03  9.42127E+03 -1.02204E+04  3.56393E+03 -7.78907E+03 -1.33472E+03
 -4.23156E+03 -3.24162E+03 -1.11132E+03  1.83333E+03 -2.60379E+03  1.62630E+03 -3.44029E+03  3.31802E+03
 -7.62535E+03 -7.54239E+02 -8.54091E+03 -6.93467E+03 -3.39888E+03 -1.05102E+04  3.51971E+03 -7.83799E+03
  6.78860E+03 -3.65249E+03  4.47152E+03  1.67529E+03  3.98918E+02  3.10468E+03 -3.32577E+03 -1.13374E+02
 -2.92188E+03 -4.73922E+03 -9.05941E+02 -6.85981E+03  3.63513E+03 -7.35128E+03  9.02541E+03 -3.75636E+03
  1.08769E+04  2.66652E+01  7.95896E+03  5.75307E+03  1.45221E+03  7.84789E+03 -5.32493E+03  7.49567E+03
 -6.30195E+03  2.67169E+03 -3.72636E+03 -1.22060E+03  1.28859E+03 -1.73575E+03  3.94105E+03 -1.22180E+03
  3.72641E+03  2.96911E+03  1.30146E+03  6.27601E+03 -3.81010E+03  6.29336E+03 -6.90427E+03  2.08988E+03
 -4.59329E+03 -3.55210E+03  4.44229E+02 -6.39445E+03  3.07119E+03 -2.85500E+03  2.65644E+03  8.94154E+02
  3.50693E+02  2.91027E+03 -3.47882E+03  4.04945E+03 -4.07047E+03  1.70273E+03 -3.18541E+03 -1.00240E+03
 -2.71084E+03 -5.35253E+03  9.68343E+02 -6.53993E+03  5.74299E+03 -4.03266E+03  6.05459E+03  1.74647E+02
  3.80003E+03  4.27417E+03  2.94109E+02  6.64242E+03 -4.70907E+03  4.51503E+03 -4.39287E+03 -1.06683E+02
 -5.11176E+03 -5.41666E+03 -1.30600E+03 -4.89329E+03  2.18751E+03 -4.26609E+03  2.92604E+03 -2.81625E+03
  2.59292E+03  2.65345E+02  3.48306E+02  1.34471E+03  7.83917E+02 -6.67314E+01  1.89208E+02 -1.44138E+03
  3.15790E+03 -3.84690E+02  4.20948E+03  8.39802E+02  5.09488E+03  2.27060E+03  4.36040E+03  6.46111E+03
 -8.97700E+02  7.70393E+03 -7.18848E+03  5.51350E+03 -8.73339E+03  1.25820E+03 -7.75118E+03 -1.98558E+03
 -4.12837E+03 -5.84475E+03 -3.71347E+02 -4.20551E+03  1.82802E+03 -2.25202E+03  1.32114E+03 -1.55726E+03
  1.09084E+03 -1.50673E+03  2.24763E+03 -2.17201E+03  2.98523E+03 -1.07499E+03  3.27823E+03  3.47046E+02
  4.39473E+03  1.11187E+03  1.19337E+03  2.67417E+03 -1.90763E+03  1.75553E+03 -4.09703E+03  2.43740E+03
 -4.40495E+03 -8.65002E+02 -1.33305E+03 -2.84404E+03  4.12186E+02 -4.80165E+03  2.92913E+03 -5.09170E+03
  4.08228E+03 -2.87299E+03  6.03288E+03 -7.83856E+01  4.09422E+03  4.06194E+03  5.65500E+02  5.52606E+03
 -1.94962E+03  5.18357E+03 -2.81708E+03  1.81938E+03 -1.66336E+03 -1.23678E+03 -1.20917E+02 -3.20346E+02
 -6.32534E+02  7.84390E+02 -9.87010E+02  1.99332E+03 -2.04131E+03  1.05514E+03 -3.70994E+03 -4.44803E+02
 -1.79287E+03 -3.51645E+03  1.05456E+03 -4.08898E+03  2.48460E+03 -4.11162E+03  3.82288E+03 -1.02369E+03
  3.28799E+03  2.55342E+03  1.56329E+03  3.15764E+03 -8.95446E+02  4.35489E+03 -2.16201E+03  2.47867E+03
 -3.98760E+03  7.06247E+02 -3.34452E+03 -2.03382E+03 -2.97612E+02 -2.70917E+03  1.57779E+03 -2.24149E+03
  2.75174E+03 -1.10994E+03  1.25969E+03  1.91151E+02  5.38128E+02  1.17378E+03  4.37555E+02 -3.06378E+02
  1.16453E+03  2.44962E+02  7.46631E+02  7.63177E+02  8.47082E+02  2.12326E+03  1.28950E+03  1.71586E+03
 -1.24535E+03  2.17260E+03 -1.92560E+03  3.72910E+03 -2.53660E+03  1.58510E+03 -4.05061E+03  5.80612E+02
 -1.65722E+03 -2.67230E+03  6.39261E+02 -3.95654E+03  1.37655E+03 -2.56301E+03  2.62616E+03 -7.52524E+02
  1.88302E+03  1.44445E+03  9.08739E+02  2.21056E+03 -8.83119E+02  1.17665E+03 -1.18020E+03  2.22778E+02
 -7.65745E+02 -1.28145E+03  1.49125E+03 -8.51920E+02  1.22289E+03 -6.37757E+02  1.13295E+03  5.47179E+02
  5.09244E+02 -2.94160E+02  1.01851E+02  1.49172E+01 -3.48355E+02  4.43425E+02  1.64765E+03  5.88335E+01
  3.38044E+02 -1.72427E+02  1.40658E+03  6.99712E+02  3.16628E+01  2.12679E+03  2.84130E+01  2.73285E+03
 -1.48043E+03  6.28591E+02 -2.31051E+03  9.50289E+02 -1.94780E+03 -7.09524E+02  5.42987E+01 -7.37543E+02
  3.09266E+02 -1.08019E+03  9.58459E+02 -3.76744E+02  5.90028E+02  1.46464E+03 -8.33197E+02  1.03194E+03
 -1.26449E+03  4.06340E+02 -1.29171E+03 -1.13548E+03 -9.13743E+02 -2.01665E+03  1.23622E+02 -1.13225E+03
  3.80505E+02 -6.31138E+02  9.16666E+02 -2.27919E+02  9.06851E+02  1.00368E+01  4.64089E+01  1.09775E+03
 -3.19618E+02  2.63458E+02 -9.58681E+02  8.13269E+01  3.61348E+02 -2.88617E+02  1.47854E+03 -9.06153E+02
  9.43917E+02  3.50098E+02  2.83489E+03  9.04456E+02  9.56105E+02  1.43301E+03  8.99623E+01  1.70936E+03
 -1.12819E+03  2.42727E+02 -1.13533E+03 -1.93083E+02 -5.20354E+02 -1.45851E+03  4.46699E+02 -5.41970E+02
  1.47805E+03 -6.86579E+02  2.11541E+02  2.25295E+02  2.36408E+02  1.42290E+03  2.46207E+02  9.17390E+02
 -4.30722E+02  1.03695E+03 -7.61211E+02  1.99676E+02  2.84573E+02  6.28167E+02 -5.63495E+02 -1.45996E+01
 -6.57728E+02  7.63841E+02 -2.14098E+03  6.28551E+02 -1.45991E+03 -1.89606E+02 -2.50282E+03 -7.49328E+02
 -1.02184E+03 -2.04708E+03  5.71536E+02 -2.57744E+03  1.30849E+03 -1.76448E+03  2.47802E+03 -4.80603E+02
  2.42192E+03 -3.33818E+02  5.81757E+02  1.54534E+03 -5.11475E+02  1.33145E+03 -7.62547E+02  8.58646E+02
 -5.63849E+02  6.84141E+02 -5.73058E+02  6.89746E+01 -5.19403E+02  3.04360E+02 -5.10093E+02 -3.41364E+02
 -7.68375E+02 -3.51842E+01 -1.13894E+03 -2.42813E+02  3.98349E+02 -7.13635E+02 -1.76864E+02 -6.35995E+02
  1.30759E+03 -5.65659E+02  1.76050E+02 -3.12447E+02  9.81503E+02  5.46192E+02 -6.39319E+02  1.07757E+03
 -5.96079E+02  2.22207E+03 -1.51608E+03  1.16784E+03 -1.69753E+03 -3.23188E+02 -1.15825E+03 -1.08489E+03
 -2.91532E+02 -1.42281E+03  6.79625E+02 -7.22812E+02  1.12007E+02 -3.37200E+02  7.53621E+02  1.46619E+02
  2.02627E+02  6.81719E+02 -3.05123E+02 -3.02063E+02 -3.23737E+02  5.56790E+02 -1.20094E+02  2.14985E+00
  6.48855E+02  3.31275E+01 -3.05779E+01  8.15368E+02  1.76052E+02  8.64298E+02 -2.34957E+02  4.45797E+02
 -3.11125E+02  2.47734E+02 -4.53191E+02 -2.93571E+02 -3.66337E+02 -3.67938E+02  9.13267E+01 -1.10530E+03
  1.64903E+02 -6.52007E+02  3.09007E+02 -1.10072E+02  1.39393E+03 -1.29986E+03  6.38759E+02  1.34247E+03
  2.79285E+01  2.48351E+02  7.31257E+01  8.48491E+02 -7.57173E+02  2.92084E+02 -3.73085E+02  6.72068E+01
 -1.08573E+02 -2.11426E+02 -2.21340E+02  3.93983E+02 -1.07030E+03  6.01351E+02 -2.85200E+02 -3.62601E+02
 -9.87218E+02 -1.35843E+01 -4.76672E+02 -1.62673E+03  1.04895E+03 -1.33875E+03  1.09095E+03 -2.81903E+02
  1.01487E+03  2.94615E+02 -2.64971E+02  1.77091E+02 -6.70953E+02  5.73618E+02 -5.32810E+02  9.03710E+02
