 $NMID ID='MM_0lb_SNR400_11hz_g45_80.RAW', FMTDAT='(8E13.5)'
 TRAMP=1., VOLUME=1. $END
  3.10428E+05  6.99544E+02  3.37569E+05  2.50747E+05  8.43409E+04  3.38333E+05 -1.32245E+05  2.51661E+05
 -1.90377E+05  8.36925E+04 -1.11870E+05 -3.17734E+04  1.40294E+03 -5.01113E+04  5.36196E+04 -3.85982E+02
  3.61218E+04  5.23946E+04 -1.60318E+04  7.54892E+04 -6.19137E+04  6.49011E+04 -8.50370E+04  3.21937E+04
 -8.11419E+04 -1.09418E+04 -5.74539E+04 -5.23415E+04 -1.50396E+04 -7.07128E+04  2.79969E+04 -4.60788E+04
  4.09135E+04  3.14981E+03  1.64007E+04  4.83805E+04 -3.41269E+04  4.80795E+04 -6.70231E+04 -5.23838E+02
 -5.43255E+04 -5.78405E+04 -7.21344E+03 -7.71841E+04  3.52027E+04 -5.62198E+04  4.86535E+04 -1.82802E+04
  4.43499E+04  1.12497E+04  3.18256E+04  2.58092E+04  1.54240E+04  3.00105E+04 -5.75697E+03  2.75524E+04
 -2.19891E+04  1.21298E+04 -1.82694E+04 -5.09559E+03  6.39269E+03 -7.41076E+03  2.34399E+04  1.26707E+04
  7.26224E+03  3.59404E+04 -3.24848E+04  3.64634E+04 -6.41192E+04  1.91108E+03 -5.70471E+04 -4.37863E+04
 -1.33106E+04 -6.42665E+04  4.07482E+04 -4.69873E+04  5.90086E+04 -1.86332E+03  3.56770E+04  3.32876E+04
 -6.44768E+03  3.79280E+04 -3.06714E+04  1.76486E+04 -3.19003E+04 -3.50388E+03 -1.80200E+04 -1.13684E+04
 -9.23468E+03 -1.40694E+04  3.26401E+01 -1.90575E+04  7.97898E+03 -2.33769E+04  1.55654E+04 -1.28597E+04
  1.07841E+04  5.74179E+03 -9.09000E+03  1.31859E+04 -2.23267E+04 -5.80289E+03 -8.46888E+03 -3.54095E+04
  2.39235E+04 -4.41682E+04  5.00664E+04 -2.02302E+04  4.70626E+04  1.99247E+04  1.74443E+04  4.52985E+04
 -1.60483E+04  3.50734E+04 -2.70108E+04  2.62322E+03 -1.08184E+04 -2.87634E+04  2.14264E+04 -3.52536E+04
  4.23576E+04 -9.82012E+03  3.82421E+04  2.38608E+04  1.97213E+04  4.85331E+04 -8.18329E+03  5.33986E+04
 -3.39777E+04  3.47856E+04 -4.48453E+04  1.06084E+04 -4.52264E+04 -1.79133E+04 -2.57110E+04 -3.95264E+04
  8.04696E+03 -3.91497E+04  3.32408E+04 -1.55972E+04  3.08532E+04  1.11626E+04  4.51616E+03  1.99265E+04
 -1.36741E+04  8.88264E+03 -1.03552E+04 -7.82842E+03  5.91255E+03 -1.09818E+04  1.82198E+04  5.96857E+03
  1.47953E+04  2.23899E+04 -5.89578E+03  2.56785E+04 -2.23147E+04  1.21599E+04 -3.01897E+04 -3.72914E+03
 -2.28276E+04 -1.81066E+04 -1.01299E+04 -2.26522E+04  4.30898E+03 -2.26305E+04  1.82347E+04 -2.02945E+04
  2.96190E+04 -1.36739E+04  3.44467E+04  3.97328E+03  2.54545E+04  2.24306E+04  5.00163E+03  3.86288E+04
 -1.90134E+04  3.24995E+04 -2.94704E+04  1.08896E+04 -2.13774E+04 -1.10006E+04 -4.86002E+03 -1.29227E+04
  8.35281E+02 -1.95506E+03 -6.19211E+03  7.43808E+03 -1.79060E+04  4.98983E+03 -1.84962E+04 -8.25811E+03
 -1.08077E+04 -2.11123E+04  6.04617E+03 -2.53876E+04  1.73887E+04 -1.83348E+04  2.06295E+04 -2.01111E+03
  1.32737E+04  1.44861E+04 -1.69733E+03  2.05920E+04 -1.47384E+04  1.19433E+04 -2.17566E+04 -4.20756E+03
 -1.49601E+04 -1.97573E+04 -2.26723E+03 -2.51654E+04  1.17240E+04 -2.09532E+04  2.04146E+04 -1.11769E+04
  1.99410E+04 -4.22645E+02  1.39138E+04  4.93489E+03  7.38123E+03  1.42865E+03  1.11467E+04 -1.67873E+03
  1.97695E+04  2.77854E+03  2.22933E+04  1.64710E+04  1.45924E+04  3.34322E+04 -3.17165E+03  3.94349E+04
 -2.24717E+04  3.27929E+04 -3.63127E+04  1.66052E+04 -3.86298E+04 -3.02859E+03 -3.23795E+04 -2.28062E+04
 -1.28315E+04 -3.23827E+04  1.13296E+04 -2.85787E+04  2.48044E+04 -1.41281E+04  2.12643E+04  6.76283E+03
  8.08290E+03  1.57684E+04 -1.16337E+04  1.38113E+04 -1.82179E+04  2.17054E+03 -1.41295E+04 -1.06338E+04
  7.84991E+02 -1.81911E+04  9.39733E+03 -1.23446E+04  1.13986E+04 -2.11836E+03  2.86062E+03  7.96046E+03
 -7.66814E+03  3.42823E+03 -7.63914E+03 -6.53563E+03 -6.05342E+02 -1.61638E+04  1.07355E+04 -1.66862E+04
  2.00268E+04 -9.93764E+03  2.25209E+04  3.48171E+03  1.90358E+04  1.58623E+04  8.96234E+03  2.48989E+04
 -4.61796E+03  2.70465E+04 -1.64210E+04  1.70137E+04 -1.87547E+04  3.51617E+03 -1.37148E+04 -4.14997E+03
 -6.48444E+03 -6.15142E+03 -5.02161E+02  8.11623E+02 -1.74296E+03  2.46035E+03 -6.25571E+03  5.34128E+03
 -1.18122E+04 -1.05681E+03 -1.29256E+04 -1.01759E+04 -5.09340E+03 -1.69310E+04  4.88958E+03 -1.35165E+04
  1.10181E+04 -6.01503E+03  8.35202E+03  3.70938E+03 -1.25546E+02  4.75619E+03 -6.82412E+03 -4.80114E+02
 -6.08126E+03 -8.51773E+03 -1.12642E+03 -1.22929E+04  7.43855E+03 -1.37223E+04  1.72312E+04 -6.94293E+03
  1.93801E+04  1.69456E+03  1.45330E+04  1.15036E+04  2.55583E+03  1.61128E+04 -7.96730E+03  1.35209E+04
 -1.08280E+04  4.21083E+03 -5.81519E+03 -2.40809E+03  1.72407E+03 -3.80736E+03  7.27250E+03 -1.14557E+03
  6.32999E+03  6.01103E+03  1.18028E+03  1.02981E+04 -7.82018E+03  1.02452E+04 -1.35314E+04  2.96851E+03
 -8.89901E+03 -6.58560E+03  1.36389E+02 -1.09106E+04  6.95529E+03 -5.80396E+03  7.36019E+03  2.50087E+03
  1.67682E+03  7.95651E+03 -7.24945E+03  9.68259E+03 -1.10018E+04  4.00867E+03 -1.13850E+04 -3.86892E+03
 -6.18866E+03 -1.23897E+04  2.72916E+03 -1.48404E+04  1.33216E+04 -9.31406E+03  1.36204E+04  2.05124E+03
  8.28336E+03  1.09931E+04 -1.55723E+03  1.39198E+04 -9.88464E+03  7.01024E+03 -1.01150E+04 -8.17658E+02
 -9.03742E+03 -8.99771E+03 -1.15633E+03 -9.46174E+03  5.74905E+03 -8.66152E+03  6.38369E+03 -3.61585E+03
  4.58996E+03  1.36661E+03 -7.41227E+02  1.46375E+03 -7.73998E+02 -2.46165E+03  1.31301E+03 -5.95773E+03
  9.14991E+03 -2.88654E+03  1.26380E+04  2.37853E+03  1.28217E+04  8.18479E+03  8.19953E+03  1.64887E+04
 -4.05206E+03  1.96408E+04 -1.65308E+04  1.41927E+04 -2.00325E+04  2.27222E+03 -1.67568E+04 -7.21358E+03
 -8.37628E+03 -1.34533E+04 -5.99371E+01 -1.12466E+04  4.48054E+03 -6.82798E+03  4.01797E+03 -4.16065E+03
  3.26232E+03 -2.99408E+03  2.93393E+03 -2.98797E+03  3.60910E+03 -2.85233E+03  6.59473E+03 -5.17061E+02
  8.77754E+03  1.93846E+03  4.00025E+03  7.41919E+03 -2.27627E+03  8.65056E+03 -8.83436E+03  6.92227E+03
 -1.14687E+04 -1.39618E+03 -6.61467E+03 -7.17297E+03 -4.54164E+02 -1.26279E+04  6.80493E+03 -1.21081E+04
  1.28625E+04 -6.81758E+03  1.49445E+04  2.02564E+03  1.06901E+04  1.04932E+04  1.69223E+03  1.38742E+04
 -5.25718E+03  1.20636E+04 -8.87475E+03  4.57226E+03 -5.80987E+03 -1.04138E+03 -1.83323E+03 -1.96344E+03
 -1.04763E+03 -2.53119E+02 -1.51398E+03  2.56558E+03 -4.90852E+03  2.81657E+03 -8.23012E+03 -1.56485E+03
 -5.25123E+03 -7.65940E+03  2.65119E+02 -1.16899E+04  7.01092E+03 -9.94232E+03  1.07039E+04 -2.94148E+03
  1.11558E+04  5.13875E+03  4.98531E+03  1.04728E+04 -1.69895E+03  1.15178E+04 -7.95374E+03  6.86940E+03
 -1.06742E+04  5.30953E+02 -7.95387E+03 -7.13588E+03 -1.13615E+03 -1.00890E+04  4.75825E+03 -6.71844E+03
  6.62250E+03 -2.45246E+03  5.10592E+03  1.92076E+03  1.38240E+03  4.07021E+03  4.74207E+02  3.73532E+02
  2.37665E+03  9.16420E+02  2.14041E+03  1.66243E+03  3.24171E+03  3.98930E+03  2.44350E+03  5.39935E+03
 -1.99535E+03  8.64161E+03 -8.02112E+03  8.78399E+03 -1.10813E+04  2.51494E+03 -1.08796E+04 -4.26127E+03
 -5.95012E+03 -1.16599E+04  2.15452E+03 -1.15629E+04  6.60913E+03 -7.27719E+03  9.40765E+03 -1.84892E+03
  7.16915E+03  4.63573E+03  1.42442E+03  5.96894E+03 -3.12301E+03  4.41979E+03 -4.34994E+03 -7.24980E+02
 -2.07776E+03 -4.80281E+03  2.14378E+03 -5.14116E+03  4.75218E+03 -2.81042E+03  4.44888E+03  1.05672E+03
  2.83774E+03  2.13187E+03  1.37572E+03  1.71319E+03 -1.05290E+03  1.60033E+03  1.23021E+03 -9.16639E+02
  1.70062E+03 -4.86024E+02  4.92282E+03  2.43330E+03  1.66790E+03  6.48276E+03 -5.84975E+02  7.99251E+03
 -5.08649E+03  4.72351E+03 -7.01099E+03  1.84036E+03 -6.29803E+03 -3.60577E+03 -1.81030E+03 -4.40799E+03
  6.89365E+02 -4.73183E+03  2.82978E+03 -2.07218E+03  2.58617E+03  1.94152E+03 -9.29608E+02  3.62442E+03
 -5.09813E+03  2.06134E+03 -5.37991E+03 -2.87873E+03 -3.33594E+03 -6.37995E+03  1.89058E+02 -5.88280E+03
  3.41128E+03 -3.01121E+03  4.04018E+03 -4.29216E+02  3.87173E+03  1.73251E+03  1.12185E+03  2.85873E+03
 -2.15648E+03  9.65903E+02 -2.66236E+03 -2.47488E+03  9.88514E+02 -4.83394E+03  5.56456E+03 -3.36036E+03
  6.71521E+03  8.61454E+02  7.10171E+03  4.05259E+03  2.20790E+03  6.80546E+03 -2.69876E+03  6.46594E+03
 -5.06262E+03  3.16479E+03 -6.28994E+03 -1.24801E+03 -3.11768E+03 -4.82197E+03  1.47950E+03 -4.09542E+03
  4.74032E+03 -2.03112E+03  4.02429E+03  2.72954E+03  1.08657E+03  4.13844E+03 -7.35669E+01  3.92823E+03
 -2.12672E+03  2.29913E+03 -1.58840E+03  5.97164E+02 -6.38601E+02  6.44649E+02 -1.80498E+03  1.62034E+03
 -2.93681E+03  3.29818E+03 -5.08578E+03  2.74460E+03 -6.37577E+03  4.17596E+01 -8.14559E+03 -4.53961E+03
 -3.79522E+03 -9.51022E+03  1.35976E+03 -1.05956E+04  6.59353E+03 -8.63193E+03  9.70809E+03 -2.93787E+03
  9.51286E+03  1.48058E+03  6.05890E+03  6.06624E+03  7.89938E+02  7.40274E+03 -2.72575E+03  5.45870E+03
 -3.79781E+03  2.16323E+03 -2.54744E+03 -6.80488E+02 -1.17121E+03 -4.01527E+02 -1.01808E+03 -6.40512E+02
 -1.85391E+03  4.63772E+02 -2.09307E+03 -5.88453E+02 -2.60883E+02 -2.29153E+03  2.13065E+02 -2.60686E+03
  3.24853E+03 -2.83151E+03  4.03969E+03 -3.54651E+01  5.06946E+03  3.88310E+03  1.49724E+03  6.53513E+03
 -3.90503E+03  7.89965E+03 -7.47063E+03  4.44287E+03 -8.49163E+03 -1.20142E+03 -6.56066E+03 -5.31629E+03
 -2.67941E+03 -7.35839E+03  2.06625E+03 -6.86459E+03  3.53196E+03 -3.94856E+03  4.76792E+03  6.01156E+02
  2.42272E+03  2.57082E+03 -7.87647E+02  1.94847E+03 -3.80363E+02  2.74802E+01  5.81925E+02 -2.02158E+03
  2.64940E+03 -5.79719E+02  2.62414E+03  1.26192E+03  1.72584E+03  2.43547E+03  2.43566E+02  2.66169E+03
 -2.89161E+03  3.16657E+03 -4.90081E+03 -4.03207E+02 -4.85342E+03 -3.25094E+03 -3.00825E+02 -5.53244E+03
  3.50001E+03 -4.45686E+03  4.91270E+03 -1.35092E+03  5.03486E+03  9.34068E+02  2.89491E+03  4.20252E+03
  4.49062E+02  4.41192E+03 -1.78514E+03  3.55765E+03 -2.82457E+03  1.80860E+03 -2.03502E+03  4.22154E+02
 -1.09124E+03 -6.35341E+02 -1.23969E+03  9.22990E+02 -2.71720E+03  8.76747E+02 -3.73351E+03 -4.80481E+02
 -2.88500E+03 -2.44956E+03 -1.66231E+03 -4.96544E+03  2.89602E+03 -4.76535E+03  4.57907E+03 -2.69503E+03
  4.28882E+03  5.37919E+02  2.05993E+03  2.67996E+03 -2.41574E+02  3.79993E+03 -2.57677E+03  3.03940E+03
