 $NMID ID='MM_0lb_SNR400_17hz_g50_24.RAW', FMTDAT='(8E13.5)'
 TRAMP=1., VOLUME=1. $END
  3.09633E+05  1.94296E+02  3.37344E+05  2.50769E+05  8.41217E+04  3.37778E+05 -1.32531E+05  2.50058E+05
 -1.89494E+05  8.27008E+04 -1.11435E+05 -3.25777E+04  1.43780E+03 -5.02827E+04  5.37705E+04  3.64861E+02
  3.48352E+04  5.26894E+04 -1.57318E+04  7.50151E+04 -6.09050E+04  6.30603E+04 -8.35799E+04  3.14871E+04
 -8.02444E+04 -1.08191E+04 -5.66201E+04 -5.01571E+04 -1.46296E+04 -6.92007E+04  2.68827E+04 -4.54928E+04
  3.98559E+04  4.20602E+03  1.56150E+04  4.71736E+04 -3.37700E+04  4.61646E+04 -6.55108E+04 -3.82588E+02
 -5.30348E+04 -5.62098E+04 -6.19923E+03 -7.58400E+04  3.34138E+04 -5.45076E+04  4.74013E+04 -1.65713E+04
  4.26162E+04  1.13318E+04  3.13769E+04  2.49873E+04  1.59249E+04  2.85556E+04 -5.21340E+03  2.70141E+04
 -2.20098E+04  1.25899E+04 -1.85649E+04 -4.39379E+03  5.12882E+03 -7.63647E+03  2.15879E+04  1.17268E+04
  7.15297E+03  3.42739E+04 -3.15433E+04  3.48998E+04 -6.21905E+04  1.86869E+03 -5.58779E+04 -4.18722E+04
 -1.23160E+04 -6.16699E+04  3.86780E+04 -4.40858E+04  5.62632E+04 -2.54155E+03  3.28445E+04  3.16216E+04
 -6.19136E+03  3.41278E+04 -2.92512E+04  1.48640E+04 -2.88999E+04 -5.41006E+03 -1.49228E+04 -1.02767E+04
 -7.38317E+03 -1.23406E+04 -4.07527E+02 -1.69975E+04  7.26525E+03 -2.28043E+04  1.56500E+04 -1.37237E+04
  1.23288E+04  5.07822E+03 -6.96309E+03  1.30756E+04 -2.04318E+04 -2.97246E+03 -7.79074E+03 -3.13676E+04
  2.19124E+04 -4.20093E+04  4.65453E+04 -1.91454E+04  4.30537E+04  1.95712E+04  1.43910E+04  4.22300E+04
 -1.58015E+04  3.26302E+04 -2.42195E+04  1.74604E+03 -8.41947E+03 -2.68174E+04  2.07642E+04 -3.21368E+04
  3.86671E+04 -8.43389E+03  3.31170E+04  2.30976E+04  1.63648E+04  4.45308E+04 -7.58259E+03  4.70705E+04
 -2.95307E+04  3.21270E+04 -3.92332E+04  9.49859E+03 -4.05648E+04 -1.57986E+04 -2.24168E+04 -3.62393E+04
  7.21848E+03 -3.53043E+04  2.99389E+04 -1.33896E+04  2.80405E+04  1.03888E+04  3.64952E+03  1.85338E+04
 -1.30682E+04  7.61213E+03 -9.63843E+03 -7.38568E+03  6.00715E+03 -1.02824E+04  1.75078E+04  6.36581E+03
  1.29404E+04  2.21695E+04 -6.58143E+03  2.35681E+04 -2.21660E+04  1.05213E+04 -2.60630E+04 -5.76704E+03
 -1.84568E+04 -1.65476E+04 -6.79494E+03 -1.81133E+04  4.38265E+03 -1.66070E+04  1.31409E+04 -1.54066E+04
  2.28137E+04 -1.21226E+04  2.96369E+04  2.06616E+03  2.21771E+04  1.74715E+04  4.32453E+03  3.41320E+04
 -1.67110E+04  2.79077E+04 -2.73619E+04  9.88142E+03 -2.05223E+04 -1.02205E+04 -4.03570E+03 -1.33308E+04
  2.22746E+03 -3.65452E+03 -3.57945E+03  5.96055E+03 -1.37926E+04  5.11410E+03 -1.43240E+04 -5.51722E+03
 -9.25880E+03 -1.67015E+04  4.53164E+03 -2.06917E+04  1.39743E+04 -1.53505E+04  1.60160E+04 -1.36421E+03
  9.79087E+03  1.17203E+04 -7.60953E+02  1.73225E+04 -1.13441E+04  9.58887E+03 -1.74422E+04 -4.28706E+03
 -1.23705E+04 -1.56885E+04 -2.08234E+03 -2.03715E+04  9.40360E+03 -1.64151E+04  1.72057E+04 -7.86988E+03
  1.58471E+04  1.26054E+03  1.12077E+04  4.69351E+03  6.29034E+03  6.28368E+02  8.41006E+03 -1.56624E+03
  1.55774E+04  2.99263E+03  1.58786E+04  1.36820E+04  1.05118E+04  2.67056E+04 -3.21748E+03  2.98113E+04
 -1.67879E+04  2.32305E+04 -2.75111E+04  1.12254E+04 -2.79698E+04 -2.71631E+03 -2.39453E+04 -1.55879E+04
 -1.08951E+04 -2.31213E+04  7.87801E+03 -2.11994E+04  1.79474E+04 -1.12480E+04  1.70899E+04  4.08628E+03
  6.69965E+03  1.23369E+04 -7.48946E+03  1.12849E+04 -1.43045E+04  3.05593E+03 -1.07109E+04 -8.62369E+03
 -1.77128E+01 -1.33461E+04  7.10485E+03 -9.86177E+03  8.53914E+03 -1.21349E+03  1.81741E+03  5.44633E+03
 -5.63992E+03  1.64665E+03 -4.70074E+03 -4.14642E+03  3.93532E+01 -1.12746E+04  8.04499E+03 -1.11540E+04
  1.43021E+04 -5.36707E+03  1.39260E+04  2.72356E+03  1.23456E+04  1.10143E+04  5.47394E+03  1.63205E+04
 -2.20845E+03  1.77400E+04 -1.11981E+04  1.14292E+04 -1.28310E+04  2.81478E+03 -8.99128E+03 -1.97174E+03
 -4.77319E+03 -3.69217E+03 -8.84151E+02  1.23146E+03 -1.91060E+03  1.96469E+03 -3.84899E+03  4.10135E+03
 -9.08299E+03 -7.62104E+02 -9.79597E+03 -7.83807E+03 -3.90648E+03 -1.29348E+04  3.81403E+03 -9.72281E+03
  7.93905E+03 -4.26377E+03  5.95183E+03  2.50246E+03  2.22732E+02  3.30335E+03 -4.34392E+03 -4.93768E+02
 -3.40102E+03 -6.50361E+03 -7.95129E+02 -8.29697E+03  4.84340E+03 -9.27289E+03  1.15109E+04 -4.62085E+03
  1.30436E+04  2.32481E+02  9.91489E+03  7.26510E+03  2.03700E+03  1.00310E+04 -6.03287E+03  9.23395E+03
 -7.77334E+03  2.49609E+03 -3.73563E+03 -1.41150E+03  1.64536E+03 -2.29419E+03  5.82744E+03 -2.13968E+02
  4.45271E+03  3.50259E+03  1.23810E+03  7.14985E+03 -5.52561E+03  7.42503E+03 -9.24570E+03  2.30346E+03
 -5.56225E+03 -3.31204E+03  4.35840E+02 -7.23652E+03  4.66100E+03 -3.81412E+03  4.53463E+03  1.28503E+03
  4.58083E+02  4.09872E+03 -5.36459E+03  5.85633E+03 -5.56167E+03  2.48643E+03 -5.41815E+03 -1.14640E+03
 -3.85096E+03 -6.59716E+03  2.00782E+03 -8.57152E+03  8.00916E+03 -5.37324E+03  7.61447E+03  1.28835E+03
  5.71183E+03  6.20166E+03  6.82495E+01  8.25355E+03 -5.87835E+03  4.67234E+03 -5.94586E+03 -2.51294E+02
 -6.42374E+03 -6.38566E+03 -1.59614E+03 -6.52670E+03  3.06977E+03 -4.75617E+03  3.33879E+03 -2.87021E+03
  3.05673E+03  2.39430E+02 -3.24696E+02  1.19815E+03  8.49432E+02 -7.17311E+02 -3.80148E+02 -2.63037E+03
  5.02824E+03 -1.49075E+03  6.14823E+03  6.63554E+02  6.23689E+03  4.19707E+03  5.82584E+03  8.96971E+03
 -1.87653E+03  1.08152E+04 -9.17163E+03  7.62992E+03 -1.16867E+04  1.35300E+03 -9.02963E+03 -3.14470E+03
 -4.26180E+03 -7.60815E+03  6.67658E+01 -6.31141E+03  2.22728E+03 -3.37651E+03  2.27662E+03 -2.20199E+03
  1.96179E+03 -1.78554E+03  2.83342E+03 -2.69050E+03  3.70538E+03 -1.88140E+03  3.62492E+03  2.79375E+02
  5.23868E+03  9.39141E+02  1.59125E+03  3.85635E+03 -1.69023E+03  3.98310E+03 -5.37474E+03  3.96942E+03
 -6.04657E+03 -1.10470E+03 -2.56208E+03 -3.81205E+03 -5.82307E+01 -6.08892E+03  3.59474E+03 -6.41402E+03
  6.68962E+03 -4.11159E+03  7.87356E+03  3.74733E+02  5.25306E+03  5.31247E+03  1.34111E+03  7.19587E+03
 -3.06770E+03  6.93230E+03 -3.82702E+03  2.01694E+03 -2.86653E+03 -6.99099E+02 -9.96341E+02 -1.07077E+03
 -8.55263E+02  1.02127E+03 -7.44182E+02  1.31671E+03 -2.69671E+03  1.43110E+03 -4.57934E+03 -5.64431E+02
 -1.78621E+03 -5.04045E+03  3.02437E+02 -5.75078E+03  3.38587E+03 -5.51847E+03  4.86933E+03 -1.00550E+03
  5.21649E+03  2.92928E+03  2.13883E+03  4.53136E+03 -6.43239E+02  5.22866E+03 -3.26006E+03  3.35764E+03
 -4.60945E+03  1.91137E+02 -4.29640E+03 -3.22938E+03 -1.56597E+02 -3.74410E+03  2.76579E+03 -3.06345E+03
  3.22972E+03 -1.62814E+03  1.99796E+03 -1.23873E+02  8.29586E+02  2.36293E+03  1.36738E+03  7.27370E+02
  1.82276E+03  9.74998E+02  1.14923E+03  1.44710E+03  1.23780E+03  2.86753E+03  1.67816E+03  2.79724E+03
 -1.71417E+03  4.07582E+03 -3.33809E+03  4.95428E+03 -4.28174E+03  1.13076E+03 -5.15240E+03 -1.39711E+03
 -2.40482E+03 -4.49427E+03  2.71720E+02 -5.96105E+03  2.72559E+03 -3.11145E+03  4.06464E+03 -7.82376E+02
  3.54201E+03  1.93803E+03  6.80264E+02  3.09814E+03 -9.32262E+02  1.43822E+03 -1.47721E+03 -3.39987E+02
 -7.26796E+02 -1.49441E+03  1.65413E+03 -2.21404E+03  2.08185E+03 -1.52175E+03  1.34435E+03  7.75392E+02
  1.04243E+03  8.63114E+02  5.93710E+02  4.08453E+02 -5.67361E+02  7.20441E+02  1.44577E+03 -2.05683E+02
  5.26334E+02 -4.11194E+02  2.54478E+03  1.04464E+03  3.36190E+02  2.52795E+03  3.54748E+02  3.19910E+03
 -2.14645E+03  1.75987E+03 -2.61580E+03  4.42006E+02 -2.44772E+03 -5.69333E+02 -1.94229E+02 -1.16788E+03
  2.31338E+02 -1.96920E+03  8.70197E+02 -9.38103E+02  1.01243E+03  1.55556E+03 -8.64445E+02  1.47121E+03
 -1.62874E+03  1.02571E+03 -1.52552E+03 -1.64877E+03 -8.26559E+02 -2.65740E+03  1.64345E+02 -2.64947E+03
  1.01592E+03 -1.30479E+03  8.41212E+02 -6.98417E+01  1.64623E+03 -1.07141E+02  6.60400E+02  8.84883E+02
 -4.42071E+02  4.04996E+02 -9.82174E+02 -4.15009E+02  4.45703E+02 -1.39295E+03  1.96825E+03 -1.10923E+03
  2.25017E+03  5.18241E+02  3.58631E+03  1.25729E+03  1.22979E+03  2.44211E+03 -6.70939E+02  2.21883E+03
 -1.81404E+03  5.23281E+02 -2.29699E+03 -1.25701E+02 -1.12636E+03 -2.40561E+03  8.96268E+02 -5.00787E+02
  1.95172E+03 -8.23796E+02  1.22798E+03  5.85024E+02  1.03071E+03  1.59343E+03  1.35616E+02  1.24639E+03
 -9.59496E+02  9.84927E+02 -9.73748E+01  3.54815E+02  1.45619E+02 -2.81606E+02 -8.62211E+02  8.30489E+02
 -1.41274E+03  1.06356E+03 -1.94274E+03  7.86657E+02 -2.08267E+03  2.45127E+02 -3.59108E+03 -1.53379E+03
 -1.53009E+03 -2.70871E+03  9.62429E+02 -3.45910E+03  1.85177E+03 -2.89289E+03  3.66988E+03 -1.22537E+03
  3.21709E+03  2.69831E+02  1.78236E+03  2.37857E+03 -1.99697E+02  2.29630E+03 -5.38921E+02  1.83450E+03
 -1.09678E+03  6.43854E+02 -1.07438E+03 -6.95483E+01 -1.43623E+02  4.24852E+02 -3.69077E+02 -4.20912E+01
 -1.29262E+03 -1.64649E+02 -6.65161E+02 -4.11151E+02 -2.99817E+02 -2.76218E+02 -5.32358E+02 -8.79231E+02
  1.80201E+03 -2.22523E+02  6.64171E+02 -1.78742E+02  1.48349E+03  1.21872E+03  1.73330E+02  2.23476E+03
 -1.91162E+03  2.39651E+03 -2.11420E+03  1.24852E+03 -2.08917E+03 -6.74189E+02 -1.66331E+03 -1.75000E+03
 -1.31946E+03 -2.03626E+03  3.37705E+02 -1.59685E+03  1.51025E+03 -2.47237E+02  1.25174E+03  6.44138E+02
  7.35240E+02  4.83682E+02 -2.66703E+02  3.00497E+02 -6.71788E+02 -4.15916E+02 -7.81210E+01 -2.74348E+02
  2.57527E+02  1.16647E+02  6.44300E+01  1.49165E+02 -1.19033E+02  7.42461E+02  5.15199E+02  1.64622E+02
 -6.42275E+02  1.28440E+03 -2.45414E+02  7.42442E+02 -1.34645E+03 -8.74542E+02 -3.98584E+02 -1.41905E+03
  9.88422E+02 -1.33179E+03  1.15475E+03  2.22190E+02  9.82087E+02 -5.45839E+02  1.50602E+02  1.14362E+03
  1.67092E+02  8.35960E+02  2.62018E+02  5.58967E+02 -6.30760E+02  6.35719E+02 -4.71468E+02  8.19295E+01
 -5.75159E+02 -2.10194E+02 -2.34189E+02  1.49625E+02 -7.52595E+02  2.53860E+02 -1.03658E+03 -5.47834E+02
 -9.31961E+02  5.10808E+02 -6.38124E+02 -1.37620E+03  5.65497E+02 -1.81546E+03  9.00356E+02 -1.39668E+02
  1.02083E+03  3.94113E+02  7.15216E+01  3.67043E+02 -4.84317E+01  6.24778E+02 -2.55706E+02  7.42619E+02
