 $NMID ID='MM_0lb_SNR400_10hz_g55_83.RAW', FMTDAT='(8E13.5)'
 TRAMP=1., VOLUME=1. $END
  3.10117E+05  8.34833E+02  3.38410E+05  2.51014E+05  8.54763E+04  3.38780E+05 -1.31689E+05  2.51375E+05
 -1.90682E+05  8.34758E+04 -1.12887E+05 -3.25734E+04  1.44898E+03 -4.96166E+04  5.36599E+04 -1.01066E+03
  3.56753E+04  5.32693E+04 -1.68420E+04  7.64704E+04 -6.12153E+04  6.48875E+04 -8.54672E+04  3.23469E+04
 -8.23938E+04 -1.16218E+04 -5.83026E+04 -5.13879E+04 -1.52033E+04 -6.97938E+04  2.81404E+04 -4.60129E+04
  4.11235E+04  3.87065E+03  1.64667E+04  4.85865E+04 -3.45352E+04  4.83096E+04 -6.79334E+04  8.52319E+02
 -5.53990E+04 -5.81871E+04 -6.39870E+03 -8.00434E+04  3.46551E+04 -5.67760E+04  5.01006E+04 -1.80910E+04
  4.50599E+04  1.17452E+04  3.31224E+04  2.71788E+04  1.65174E+04  3.00441E+04 -5.33134E+03  2.71984E+04
 -2.22427E+04  1.15630E+04 -1.84013E+04 -5.48650E+03  6.69842E+03 -7.20856E+03  2.33644E+04  1.39031E+04
  7.31587E+03  3.69133E+04 -3.35984E+04  3.71614E+04 -6.53277E+04  2.26386E+03 -5.94261E+04 -4.48807E+04
 -1.25838E+04 -6.54788E+04  4.09330E+04 -4.66748E+04  6.02661E+04 -2.27566E+03  3.58310E+04  3.42365E+04
 -5.22101E+03  3.92349E+04 -3.15576E+04  1.77532E+04 -3.29790E+04 -2.51086E+03 -1.86378E+04 -1.10651E+04
 -8.78545E+03 -1.46569E+04 -4.70018E+02 -2.02004E+04  8.40786E+03 -2.43589E+04  1.58065E+04 -1.20884E+04
  1.08783E+04  5.94253E+03 -9.58857E+03  1.27013E+04 -2.34630E+04 -6.31590E+03 -9.21629E+03 -3.72064E+04
  2.50299E+04 -4.62120E+04  5.21464E+04 -2.08567E+04  4.84677E+04  2.05187E+04  1.72301E+04  4.70486E+04
 -1.68275E+04  3.53884E+04 -2.79233E+04  1.63027E+03 -1.18081E+04 -2.97558E+04  2.12256E+04 -3.68413E+04
  4.39599E+04 -1.09220E+04  4.02256E+04  2.45000E+04  2.10166E+04  5.12100E+04 -8.92374E+03  5.53980E+04
 -3.51065E+04  3.78346E+04 -4.70423E+04  1.08788E+04 -4.68476E+04 -1.77280E+04 -2.61539E+04 -4.11915E+04
  7.43979E+03 -4.11680E+04  3.43991E+04 -1.66218E+04  3.24216E+04  1.17114E+04  5.60370E+03  2.03987E+04
 -1.41442E+04  9.58497E+03 -1.12565E+04 -7.56956E+03  5.49823E+03 -1.17121E+04  1.90787E+04  5.71648E+03
  1.43831E+04  2.24250E+04 -4.22417E+03  2.72305E+04 -2.41885E+04  1.38531E+04 -3.20555E+04 -2.68698E+03
 -2.47208E+04 -1.85703E+04 -1.15777E+04 -2.50271E+04  4.23086E+03 -2.52154E+04  1.92621E+04 -2.31903E+04
  3.12003E+04 -1.41346E+04  3.71240E+04  4.59908E+03  2.75017E+04  2.45509E+04  4.76875E+03  4.07620E+04
 -1.98483E+04  3.33230E+04 -2.97974E+04  1.20704E+04 -2.16744E+04 -1.06382E+04 -3.91459E+03 -1.26970E+04
  7.33149E+02 -9.20289E+02 -7.15101E+03  8.13415E+03 -1.91948E+04  5.52898E+03 -1.98291E+04 -9.48189E+03
 -1.07648E+04 -2.24942E+04  6.19696E+03 -2.71769E+04  1.85648E+04 -2.03125E+04  2.20247E+04 -1.33250E+03
  1.53131E+04  1.64679E+04 -1.05171E+03  2.23434E+04 -1.69356E+04  1.29342E+04 -2.27657E+04 -5.22401E+03
 -1.64766E+04 -2.07474E+04 -1.93160E+03 -2.74871E+04  1.26761E+04 -2.24643E+04  2.32946E+04 -1.17213E+04
  2.20375E+04 -2.89427E+02  1.63904E+04  4.93865E+03  8.28472E+03  1.72628E+03  1.29842E+04 -2.32950E+03
  2.22445E+04  3.36258E+03  2.48349E+04  1.81156E+04  1.64376E+04  3.63353E+04 -2.76944E+03  4.29375E+04
 -2.43972E+04  3.55993E+04 -4.11925E+04  1.83013E+04 -4.32439E+04 -3.28489E+03 -3.60380E+04 -2.50205E+04
 -1.37067E+04 -3.62112E+04  1.25721E+04 -3.30524E+04  2.79747E+04 -1.48299E+04  2.40558E+04  7.66520E+03
  8.28749E+03  1.79847E+04 -1.13991E+04  1.56228E+04 -1.98743E+04  3.03784E+03 -1.46321E+04 -1.27715E+04
  4.57618E+02 -1.87918E+04  9.88357E+03 -1.42180E+04  1.35440E+04 -1.62106E+03  2.59073E+03  8.83295E+03
 -7.68034E+03  4.27534E+03 -9.53367E+03 -6.89747E+03 -1.70242E+03 -1.74352E+04  1.14798E+04 -2.02828E+04
  2.18909E+04 -1.06224E+04  2.49436E+04  3.32103E+03  2.23275E+04  1.67137E+04  1.02146E+04  2.81102E+04
 -5.06342E+03  3.02732E+04 -1.93359E+04  1.80239E+04 -2.17432E+04  3.59298E+03 -1.45818E+04 -5.50413E+03
 -6.24176E+03 -6.45568E+03 -4.66621E+02  4.37350E+02 -3.21185E+03  3.67306E+03 -7.46248E+03  4.72312E+03
 -1.33961E+04 -8.39429E+02 -1.46725E+04 -1.13366E+04 -5.71557E+03 -1.86869E+04  6.04897E+03 -1.50405E+04
  1.23401E+04 -5.91909E+03  8.39523E+03  3.56974E+03 -8.08886E+02  6.23918E+03 -8.55963E+03 -9.62784E+02
 -7.76838E+03 -9.80692E+03 -9.15357E+02 -1.51131E+04  8.25847E+03 -1.61153E+04  1.89252E+04 -8.28752E+03
  2.28151E+04  1.57573E+03  1.59467E+04  1.38375E+04  3.12334E+03  1.73667E+04 -9.82367E+03  1.47895E+04
 -1.17299E+04  3.84194E+03 -6.89046E+03 -3.43746E+03  2.76321E+03 -3.58178E+03  7.62435E+03  7.49760E+00
  7.31114E+03  6.77411E+03  1.42611E+03  1.20895E+04 -9.14327E+03  1.15488E+04 -1.48049E+04  3.35907E+03
 -1.03680E+04 -7.79297E+03  3.93108E+02 -1.26730E+04  8.17302E+03 -7.07047E+03  9.19696E+03  3.36659E+03
  1.23599E+03  9.48810E+03 -7.90017E+03  1.08325E+04 -1.25012E+04  4.76577E+03 -1.25614E+04 -4.32500E+03
 -6.72045E+03 -1.44756E+04  3.52487E+03 -1.72996E+04  1.42327E+04 -1.13986E+04  1.54751E+04  2.98835E+03
  9.54090E+03  1.25843E+04 -2.22052E+03  1.52849E+04 -1.09895E+04  7.73876E+03 -1.19722E+04 -9.90777E+02
 -1.06570E+04 -1.07351E+04 -1.77197E+03 -1.17342E+04  5.62031E+03 -9.23099E+03  7.22963E+03 -3.44751E+03
  4.36677E+03  1.86481E+03 -6.36620E+02  2.65455E+03 -1.19789E+03 -3.25418E+03  2.53189E+03 -6.95698E+03
  1.08214E+04 -4.80034E+03  1.47689E+04  2.79201E+03  1.44627E+04  1.01214E+04  9.69232E+03  2.00516E+04
 -3.83323E+03  2.27866E+04 -1.91824E+04  1.65797E+04 -2.46430E+04  3.18247E+03 -2.04296E+04 -8.03154E+03
 -1.01183E+04 -1.63279E+04  1.86792E+02 -1.39529E+04  4.81299E+03 -7.77448E+03  5.80497E+03 -4.91478E+03
  2.88465E+03 -2.88710E+03  3.46133E+03 -3.44930E+03  5.32070E+03 -3.81159E+03  7.75725E+03 -7.57399E+02
  1.03315E+04  2.01425E+03  5.70913E+03  8.54789E+03 -2.37681E+03  1.02149E+04 -1.10781E+04  8.77136E+03
 -1.40324E+04 -1.57812E+03 -8.58154E+03 -9.38113E+03 -1.59043E+03 -1.56218E+04  8.07124E+03 -1.41005E+04
  1.59847E+04 -8.48410E+03  1.81069E+04  2.30926E+03  1.25331E+04  1.32075E+04  1.81674E+03  1.63980E+04
 -6.31643E+03  1.35014E+04 -9.55256E+03  4.34148E+03 -6.65842E+03 -9.30226E+02 -2.51619E+03 -1.82658E+03
 -1.29912E+03 -1.24584E+02 -1.64774E+03  2.61938E+03 -6.31542E+03  2.09578E+03 -9.10771E+03 -1.75871E+03
 -6.76501E+03 -9.32148E+03  3.30269E+02 -1.38051E+04  8.74535E+03 -1.23878E+04  1.42830E+04 -3.87823E+03
  1.37020E+04  6.64950E+03  6.13832E+03  1.20718E+04 -2.65659E+03  1.38371E+04 -1.02730E+04  8.57102E+03
 -1.31247E+04  2.40089E+01 -1.02441E+04 -8.43928E+03 -1.06727E+03 -1.10071E+04  6.07027E+03 -8.74919E+03
  8.63867E+03 -2.85178E+03  6.60295E+03  1.15107E+03  1.99977E+03  4.15622E+03  1.58136E+03  2.05845E+03
  2.20870E+03  1.65426E+03  2.69990E+03  2.19813E+03  4.23748E+03  4.78534E+03  4.15591E+03  7.53733E+03
 -3.69940E+03  1.03458E+04 -1.03177E+04  1.08742E+04 -1.40131E+04  3.31998E+03 -1.43030E+04 -5.53713E+03
 -6.62815E+03 -1.37970E+04  1.91637E+03 -1.46986E+04  7.86568E+03 -9.80301E+03  1.11738E+04 -2.49591E+03
  8.33102E+03  5.44309E+03  2.25659E+03  7.79424E+03 -3.58885E+03  4.85609E+03 -5.70891E+03 -6.08417E+02
 -3.35352E+03 -5.47935E+03  1.89023E+03 -5.99032E+03  6.02646E+03 -3.30858E+03  4.66602E+03  1.23971E+03
  3.31705E+03  2.34544E+03  1.50363E+03  2.06325E+03 -4.45462E+02  1.71176E+03  1.45754E+03 -3.82127E+02
  1.50508E+03 -3.81589E+02  5.42295E+03  2.09657E+03  3.29204E+03  7.23777E+03 -1.70744E+03  9.87971E+03
 -6.76126E+03  6.31655E+03 -8.73842E+03  2.17776E+03 -8.15892E+03 -2.89883E+03 -2.32548E+03 -5.04542E+03
  9.50488E+02 -5.53932E+03  3.60479E+03 -2.63850E+03  3.43200E+03  2.78331E+03 -9.21961E+02  4.69078E+03
 -4.84876E+03  3.20102E+03 -6.79470E+03 -4.10134E+03 -4.12633E+03 -7.10860E+03  1.32841E+03 -7.71459E+03
  4.57604E+03 -3.91218E+03  5.29185E+03 -7.00288E+02  4.29097E+03  1.99924E+03  3.92292E+02  4.61529E+03
 -2.15687E+03  1.74318E+03 -4.02671E+03 -2.69803E+03  2.01823E+03 -6.36569E+03  6.84942E+03 -4.93333E+03
  9.03109E+03  1.15514E+03  8.43707E+03  6.29478E+03  3.07685E+03  9.08896E+03 -3.70742E+03  8.97398E+03
 -6.87662E+03  4.37199E+03 -6.94339E+03 -6.78425E+02 -3.63154E+03 -5.48317E+03  1.84786E+03 -5.07671E+03
  5.62379E+03 -2.57905E+03  4.72165E+03  1.90148E+03  8.65712E+02  5.00946E+03 -5.61093E+02  4.51364E+03
 -2.62460E+03  3.31126E+03 -3.26626E+03  1.03176E+03 -7.41511E+02  4.90266E+02 -1.60268E+03  2.63316E+03
 -2.58865E+03  3.27328E+03 -5.37714E+03  2.70317E+03 -8.06660E+03  1.48095E+02 -9.55949E+03 -5.72903E+03
 -5.04643E+03 -1.16669E+04  2.60884E+03 -1.34789E+04  8.34558E+03 -1.06038E+04  1.25658E+04 -4.46461E+03
  1.09297E+04  2.03136E+03  6.65717E+03  7.79418E+03  3.01198E+01  9.13978E+03 -4.07493E+03  6.11258E+03
 -5.04206E+03  2.77503E+03 -2.98431E+03 -1.24526E+03 -1.22134E+03 -7.68350E+02 -9.82015E+02  4.33199E+02
 -2.02362E+03  2.17862E+02 -2.35499E+03 -1.05757E+02 -2.91970E+02 -2.06215E+03  4.35878E+02 -3.55309E+03
  4.30722E+03 -3.48139E+03  5.11297E+03  4.86540E+02  6.74156E+03  4.34586E+03  2.06532E+03  8.64049E+03
 -4.61379E+03  1.01091E+04 -9.50384E+03  5.73637E+03 -1.05811E+04 -6.17534E+02 -8.09909E+03 -7.35141E+03
 -3.82664E+03 -8.76696E+03  2.81056E+03 -8.59067E+03  5.65550E+03 -4.48351E+03  6.14438E+03  2.87317E+02
  3.26462E+03  2.34408E+03 -4.99909E+02  1.83745E+03 -1.39363E+03 -4.16473E+02 -2.39567E+02 -2.58653E+03
  3.23005E+03 -1.15666E+03  2.71920E+03  4.04857E+02  1.99090E+03  3.09757E+03  6.86986E+02  3.82191E+03
 -3.73299E+03  3.80812E+03 -5.78574E+03  7.44999E+02 -5.07145E+03 -4.66240E+03 -1.07982E+03 -7.59575E+03
  3.79079E+03 -5.88815E+03  6.52708E+03 -2.21403E+03  7.20534E+03  1.99770E+03  2.90489E+03  5.53142E+03
  4.56014E+02  5.90981E+03 -2.38475E+03  4.63891E+03 -4.08359E+03  2.26585E+03 -3.66990E+03 -1.95120E+02
 -1.83489E+03 -1.61108E+02 -2.26181E+03  6.19526E+02 -3.69568E+03  4.86411E+02 -4.68033E+03 -8.01188E+00
 -4.20464E+03 -2.73483E+03 -1.83681E+03 -6.03928E+03  1.96845E+03 -6.16500E+03  4.19425E+03 -3.21243E+03
  5.91040E+03  4.19457E+02  2.93343E+03  2.82973E+03 -7.00253E+02  6.16896E+03 -4.66487E+03  4.02085E+03
