 $NMID ID='MM_0lb_SNR400_15hz_g45_13.RAW', FMTDAT='(8E13.5)'
 TRAMP=1., VOLUME=1. $END
  3.09046E+05  6.06550E+01  3.37242E+05  2.50420E+05  8.49468E+04  3.37310E+05 -1.32293E+05  2.50941E+05
 -1.89788E+05  8.31271E+04 -1.10829E+05 -3.25565E+04  1.06597E+03 -4.99381E+04  5.32095E+04 -7.95888E+01
  3.52016E+04  5.25672E+04 -1.70052E+04  7.53233E+04 -6.03015E+04  6.34652E+04 -8.36134E+04  3.17847E+04
 -8.03113E+04 -1.16298E+04 -5.69104E+04 -5.03412E+04 -1.54512E+04 -6.91116E+04  2.71027E+04 -4.52312E+04
  3.95504E+04  3.61259E+03  1.62495E+04  4.74662E+04 -3.40689E+04  4.71351E+04 -6.61018E+04 -7.44416E+02
 -5.29612E+04 -5.64248E+04 -6.02871E+03 -7.67447E+04  3.38592E+04 -5.45308E+04  4.73600E+04 -1.74639E+04
  4.27174E+04  1.12386E+04  3.11461E+04  2.54442E+04  1.56302E+04  2.90161E+04 -4.61806E+03  2.66932E+04
 -2.20797E+04  1.27116E+04 -1.90101E+04 -4.55081E+03  4.58142E+03 -7.72954E+03  2.17283E+04  1.21239E+04
  6.90257E+03  3.47538E+04 -3.14591E+04  3.48963E+04 -6.29400E+04  1.73907E+03 -5.59364E+04 -4.24373E+04
 -1.16860E+04 -6.25600E+04  3.89259E+04 -4.47632E+04  5.73576E+04 -1.95393E+03  3.30572E+04  3.14933E+04
 -6.20803E+03  3.49194E+04 -2.97141E+04  1.47457E+04 -2.95525E+04 -5.07849E+03 -1.60851E+04 -1.06407E+04
 -7.84107E+03 -1.28283E+04 -1.07103E+03 -1.76955E+04  7.17850E+03 -2.29330E+04  1.53950E+04 -1.30595E+04
  1.11661E+04  5.30013E+03 -7.52938E+03  1.29720E+04 -2.05190E+04 -3.91738E+03 -7.21612E+03 -3.28637E+04
  2.17103E+04 -4.22521E+04  4.76909E+04 -1.97781E+04  4.36668E+04  1.93079E+04  1.55492E+04  4.38615E+04
 -1.58872E+04  3.24930E+04 -2.57404E+04  1.73932E+03 -9.61217E+03 -2.75896E+04  2.09245E+04 -3.25461E+04
  3.98446E+04 -8.55297E+03  3.46113E+04  2.34985E+04  1.67100E+04  4.52319E+04 -8.64694E+03  4.85261E+04
 -3.07014E+04  3.25115E+04 -4.06245E+04  8.84605E+03 -4.18742E+04 -1.60452E+04 -2.29736E+04 -3.66054E+04
  7.45683E+03 -3.62591E+04  3.12249E+04 -1.39974E+04  2.88459E+04  1.09796E+04  3.20557E+03  1.84001E+04
 -1.30883E+04  8.39506E+03 -9.84210E+03 -7.59982E+03  6.55795E+03 -1.02469E+04  1.79090E+04  5.90295E+03
  1.32931E+04  2.19671E+04 -5.95876E+03  2.43516E+04 -2.20210E+04  1.06786E+04 -2.72391E+04 -5.17252E+03
 -1.97947E+04 -1.74270E+04 -7.64129E+03 -1.87313E+04  4.62751E+03 -1.80883E+04  1.43110E+04 -1.68190E+04
  2.45832E+04 -1.23002E+04  3.06646E+04  2.19379E+03  2.25635E+04  1.88320E+04  3.81506E+03  3.46762E+04
 -1.73387E+04  3.00534E+04 -2.72001E+04  1.02915E+04 -2.08058E+04 -1.02770E+04 -4.02528E+03 -1.38737E+04
  2.09720E+03 -2.92270E+03 -3.97298E+03  5.96908E+03 -1.54312E+04  5.28957E+03 -1.57346E+04 -6.57831E+03
 -9.37544E+03 -1.83988E+04  5.34923E+03 -2.20273E+04  1.40793E+04 -1.59541E+04  1.67164E+04 -1.72412E+03
  1.03809E+04  1.27560E+04 -6.23903E+02  1.81266E+04 -1.26216E+04  1.00710E+04 -1.77485E+04 -3.47353E+03
 -1.31736E+04 -1.65040E+04 -1.22271E+03 -2.10924E+04  1.01714E+04 -1.75138E+04  1.81024E+04 -8.84199E+03
  1.69447E+04  6.70958E+02  1.20039E+04  4.36274E+03  6.40594E+03  1.24510E+03  8.77185E+03 -1.74276E+03
  1.59248E+04  2.65171E+03  1.82628E+04  1.38169E+04  1.19097E+04  2.87043E+04 -3.08386E+03  3.08385E+04
 -1.83696E+04  2.48129E+04 -2.96653E+04  1.22257E+04 -3.04761E+04 -2.06621E+03 -2.58530E+04 -1.75045E+04
 -1.08345E+04 -2.54101E+04  8.16220E+03 -2.33408E+04  2.02344E+04 -1.25557E+04  1.79913E+04  5.09019E+03
  7.06855E+03  1.30570E+04 -8.30861E+03  1.19682E+04 -1.56192E+04  2.47240E+03 -1.19754E+04 -8.76369E+03
 -1.12808E+02 -1.43578E+04  7.41912E+03 -1.04438E+04  9.08871E+03 -1.49497E+03  1.91722E+03  6.58275E+03
 -6.58188E+03  2.61324E+03 -5.14972E+03 -4.91975E+03 -3.77435E+02 -1.16942E+04  8.80910E+03 -1.28646E+04
  1.55691E+04 -7.04709E+03  1.61245E+04  2.91219E+03  1.38406E+04  1.20221E+04  6.39312E+03  1.84064E+04
 -2.81662E+03  1.98985E+04 -1.27569E+04  1.22256E+04 -1.47115E+04  3.77128E+03 -1.10492E+04 -3.29779E+03
 -5.18044E+03 -4.73033E+03 -1.20238E+03  1.19491E+03 -2.64450E+03  2.62570E+03 -4.95600E+03  3.30702E+03
 -9.39004E+03 -7.27565E+02 -1.02296E+04 -8.28229E+03 -4.38916E+03 -1.37604E+04  4.53974E+03 -1.01324E+04
  9.01813E+03 -4.41302E+03  6.31243E+03  2.85680E+03  4.78203E+02  4.43406E+03 -5.23486E+03 -1.01507E+03
 -4.60604E+03 -6.06338E+03 -1.46467E+03 -9.56641E+03  5.55664E+03 -1.09954E+04  1.28006E+04 -4.95561E+03
  1.48707E+04  9.22896E+02  1.09399E+04  8.07958E+03  1.89949E+03  1.16599E+04 -6.22780E+03  1.01653E+04
 -8.51931E+03  3.44745E+03 -3.96466E+03 -2.09822E+03  1.76125E+03 -2.60413E+03  5.43751E+03 -1.31493E+03
  5.12313E+03  4.50514E+03  1.13562E+03  7.59448E+03 -5.72969E+03  7.45676E+03 -1.00219E+04  1.99457E+03
 -5.91848E+03 -5.21200E+03  4.13297E+02 -8.66337E+03  5.31575E+03 -4.14945E+03  4.86575E+03  1.62648E+03
  1.02068E+03  5.77183E+03 -5.49567E+03  6.66789E+03 -6.65916E+03  3.29847E+03 -7.16117E+03 -2.16161E+03
 -4.23427E+03 -8.58495E+03  1.85270E+03 -9.78662E+03  8.51437E+03 -6.07630E+03  9.08054E+03  1.61316E+03
  5.42838E+03  6.83999E+03 -5.65770E+01  9.29755E+03 -6.09025E+03  5.14530E+03 -6.98948E+03 -1.19311E+03
 -6.91061E+03 -6.37718E+03 -1.78162E+03 -7.26410E+03  3.13127E+03 -5.97792E+03  4.00865E+03 -3.26914E+03
  3.88396E+03  5.01375E+02 -4.92561E+02  1.02309E+03  4.16464E+02 -1.17418E+03  5.89613E+02 -3.18724E+03
  5.72618E+03 -1.55153E+03  8.56161E+03  8.01412E+02  8.10673E+03  5.43609E+03  6.03314E+03  1.08627E+04
 -2.33071E+03  1.26574E+04 -1.05316E+04  9.38998E+03 -1.34076E+04  1.61804E+03 -1.09269E+04 -4.37107E+03
 -5.72264E+03 -9.04668E+03 -4.90188E+02 -6.81804E+03  2.91143E+03 -3.44219E+03  2.62533E+03 -2.46779E+03
  2.09726E+03 -1.53007E+03  2.88462E+03 -2.86277E+03  4.23308E+03 -1.39526E+03  4.66785E+03  8.02483E+01
  5.91005E+03  1.64954E+03  2.12762E+03  4.48768E+03 -1.77758E+03  4.73871E+03 -6.26367E+03  4.12097E+03
 -7.43216E+03 -7.76841E+02 -3.63193E+03 -4.85271E+03 -3.69211E+02 -7.04666E+03  4.43067E+03 -7.81417E+03
  7.93015E+03 -4.54753E+03  9.81741E+03  9.00847E+02  7.25988E+03  6.79970E+03  1.41281E+03  9.08443E+03
 -3.92456E+03  8.13888E+03 -5.07162E+03  3.30358E+03 -3.46285E+03 -1.35375E+03 -1.28979E+03 -8.26779E+02
 -5.59353E+02  5.40254E+02 -9.63452E+02  1.07804E+03 -3.54881E+03  1.31760E+03 -5.51605E+03 -8.12913E+02
 -2.88935E+03 -5.81256E+03  6.70737E+02 -6.84466E+03  4.40542E+03 -6.40421E+03  6.21366E+03 -2.22515E+03
  6.39387E+03  4.23483E+03  3.17708E+03  5.69177E+03 -1.40268E+03  7.34465E+03 -4.27141E+03  4.33173E+03
 -6.31140E+03  1.14132E+03 -5.60005E+03 -4.19821E+03 -6.77167E+02 -5.29838E+03  2.79597E+03 -4.40590E+03
  4.48401E+03 -1.57865E+03  2.65953E+03  4.85585E+02  7.86198E+02  3.02274E+03  6.05333E+02  1.09238E+03
  1.86611E+03  6.90425E+02  2.11134E+03  8.63675E+02  1.40385E+03  2.92300E+03  2.11169E+03  3.47411E+03
 -1.44845E+03  4.91409E+03 -4.18171E+03  6.06484E+03 -6.07260E+03  1.79284E+03 -7.00346E+03 -1.15721E+03
 -3.06427E+03 -6.21214E+03  8.21176E+02 -6.83191E+03  3.49689E+03 -4.28631E+03  5.16028E+03 -7.23411E+02
  4.15355E+03  2.36164E+03  1.09573E+03  3.34562E+03 -1.32122E+03  2.41325E+03 -2.31517E+03 -8.60201E+02
 -1.16731E+03 -2.77423E+03  1.54639E+03 -2.93988E+03  2.64898E+03 -1.22838E+03  2.74085E+03  5.35233E+02
  1.60565E+03  5.76855E+02  4.75339E+02  5.71063E+02 -2.12649E+02  7.83910E+02  1.91343E+03 -2.02019E+02
 -6.46407E+01 -1.02185E+03  2.55973E+03  1.39825E+03  3.72268E+02  4.02055E+03 -4.31268E+02  3.79077E+03
 -2.39138E+03  2.59497E+03 -3.51520E+03  8.39867E+02 -3.61485E+03 -1.31164E+03 -8.28549E+02 -2.02428E+03
  2.89700E+02 -2.26936E+03  1.38198E+03 -7.94178E+02  1.22111E+03  1.87665E+03 -1.66061E+03  2.24581E+03
 -2.48364E+03  1.14723E+03 -2.90317E+03 -1.82394E+03 -1.20794E+03 -3.48715E+03  7.25311E+02 -2.94823E+03
  1.30513E+03 -1.45897E+03  2.02701E+03 -3.91695E+01  2.37804E+03  5.71254E+02  5.92294E+02  1.68743E+03
 -9.36826E+02  3.01582E+02 -1.42654E+03 -1.03033E+03  8.94834E+02 -2.05480E+03  2.83982E+03 -1.25625E+03
  2.30684E+03  6.94150E+02  3.86706E+03  1.90502E+03  1.48252E+03  3.73477E+03 -1.03400E+03  3.10278E+03
 -2.67096E+03  8.74740E+02 -3.33582E+03 -8.40298E+02 -1.29116E+03 -2.32723E+03  7.24679E+02 -2.23726E+03
  2.48141E+03 -6.49172E+02  1.58569E+03  1.36667E+03  7.43268E+02  2.61575E+03  7.77648E+01  1.83122E+03
 -2.29914E+02  1.78657E+03 -6.24321E+02  6.98591E+02  3.56318E+02  4.90372E+02 -5.52190E+02  1.18911E+03
 -3.08229E+02  1.59008E+03 -3.09704E+03  8.51658E+02 -2.65729E+03  3.81821E+02 -4.14010E+03 -2.65574E+03
 -2.63560E+03 -4.56340E+03  1.00535E+03 -4.75732E+03  2.70831E+03 -4.12449E+03  5.65473E+03 -1.94826E+03
  4.31433E+03 -1.10437E+01  2.58089E+03  3.26946E+03 -4.54127E+01  3.30474E+03 -1.60152E+03  2.96812E+03
 -1.51886E+03  4.18103E+02 -1.70659E+03 -1.49888E+02 -1.19761E+03  3.08979E+02 -2.94369E+02  3.71483E+02
 -1.29741E+03  1.95047E+02 -1.05683E+03 -2.31157E+02  4.02655E+02 -8.30555E+02  1.47408E+02 -1.53760E+03
  2.66202E+03 -8.99082E+02  1.25746E+03  3.47747E+02  2.03750E+03  2.06716E+03 -3.41280E+02  3.18793E+03
 -1.34771E+03  4.72402E+03 -3.05716E+03  2.04810E+03 -3.53362E+03 -2.48001E+02 -2.69851E+03 -2.29274E+03
 -1.65956E+03 -2.98837E+03  8.15844E+02 -2.36493E+03  2.08030E+03 -9.47223E+02  1.52991E+03 -2.17093E+02
  1.01412E+03  6.90336E+02 -3.79576E+02  7.55461E+02 -6.55337E+02 -6.07229E+02 -5.97384E+02  1.83404E+02
  1.23122E+03 -6.25880E+02  1.13476E+03  7.19106E+02  5.74440E+02  9.22326E+02  1.34381E+02  1.63233E+03
 -1.24155E+03  2.04404E+03 -1.72563E+03  7.08668E+02 -1.37697E+03 -1.63191E+03  1.13392E+02 -1.80853E+03
  9.05964E+02 -1.58502E+03  1.77185E+03 -5.72996E+02  2.11097E+03 -5.37789E+02  8.14704E+02  2.17620E+03
  1.16964E+03  2.19070E+03 -8.37524E+02  2.11515E+03 -1.66985E+03  1.32018E+03 -1.11938E+03 -5.64888E+02
 -4.22300E+02  1.01803E+01 -1.13515E+03  7.12000E+02 -1.35176E+03  3.24239E+02 -1.69746E+03 -6.22301E+01
 -2.24595E+03 -8.68935E+02 -1.86592E+02 -1.85110E+03  1.14609E+03 -2.85236E+03  1.89418E+03 -3.45504E+02
  2.21748E+03 -8.65514E+02  3.59621E+02  7.71386E+02 -5.35215E+02  1.79148E+03 -1.13983E+03  1.32956E+03
