 $NMID ID='MM_0lb_SNR400_12hz_g50_10.RAW', FMTDAT='(8E13.5)'
 TRAMP=1., VOLUME=1. $END
  3.09408E+05  8.46188E+02  3.37538E+05  2.50530E+05  8.46021E+04  3.38582E+05 -1.32566E+05  2.51358E+05
 -1.90767E+05  8.42869E+04 -1.12355E+05 -3.24548E+04  1.54089E+02 -5.10577E+04  5.41095E+04 -2.19091E+02
  3.56415E+04  5.27094E+04 -1.69150E+04  7.61357E+04 -6.17574E+04  6.37990E+04 -8.38854E+04  3.18827E+04
 -8.15302E+04 -1.12500E+04 -5.77529E+04 -5.09704E+04 -1.55426E+04 -6.98385E+04  2.80213E+04 -4.61428E+04
  4.10454E+04  3.72112E+03  1.64735E+04  4.88666E+04 -3.43443E+04  4.76844E+04 -6.68219E+04 -4.06671E+02
 -5.41449E+04 -5.70314E+04 -7.28403E+03 -7.78677E+04  3.50153E+04 -5.52896E+04  4.87588E+04 -1.80380E+04
  4.36470E+04  1.13345E+04  3.29550E+04  2.61065E+04  1.51774E+04  2.93915E+04 -5.47493E+03  2.76356E+04
 -2.22877E+04  1.26891E+04 -1.83896E+04 -5.49080E+03  6.14259E+03 -7.63453E+03  2.28124E+04  1.28384E+04
  7.07395E+03  3.58811E+04 -3.24328E+04  3.62770E+04 -6.44848E+04  2.35948E+03 -5.72211E+04 -4.36536E+04
 -1.33910E+04 -6.45099E+04  4.03932E+04 -4.59643E+04  5.96703E+04 -2.33890E+03  3.58101E+04  3.35101E+04
 -5.90339E+03  3.77877E+04 -3.07690E+04  1.72468E+04 -3.13890E+04 -4.62544E+03 -1.79941E+04 -1.12509E+04
 -8.96180E+03 -1.41379E+04 -3.24428E+02 -1.83685E+04  7.41936E+03 -2.31602E+04  1.60461E+04 -1.26946E+04
  1.08628E+04  5.43920E+03 -9.38390E+03  1.25939E+04 -2.23921E+04 -5.24258E+03 -8.85327E+03 -3.48642E+04
  2.36498E+04 -4.52784E+04  4.99482E+04 -2.02342E+04  4.66354E+04  2.00082E+04  1.64571E+04  4.52962E+04
 -1.63099E+04  3.45725E+04 -2.62265E+04  2.27901E+03 -1.04952E+04 -2.86048E+04  2.06778E+04 -3.46366E+04
  4.22815E+04 -1.01058E+04  3.72803E+04  2.44366E+04  1.92383E+04  4.87778E+04 -8.88177E+03  5.22716E+04
 -3.34123E+04  3.58176E+04 -4.38803E+04  1.05439E+04 -4.46771E+04 -1.75048E+04 -2.48411E+04 -3.89389E+04
  7.62700E+03 -3.95897E+04  3.23760E+04 -1.54187E+04  3.05417E+04  1.05922E+04  5.15873E+03  2.01194E+04
 -1.33497E+04  8.93172E+03 -1.11674E+04 -7.14372E+03  6.22266E+03 -1.11763E+04  1.78780E+04  5.52753E+03
  1.44560E+04  2.13590E+04 -4.50706E+03  2.61734E+04 -2.26284E+04  1.34341E+04 -2.98604E+04 -3.76711E+03
 -2.32686E+04 -1.79239E+04 -1.00414E+04 -2.17490E+04  4.39114E+03 -2.18822E+04  1.73337E+04 -1.98797E+04
  2.87927E+04 -1.37864E+04  3.48954E+04  4.19197E+03  2.57610E+04  2.22498E+04  3.18860E+03  3.87996E+04
 -1.90280E+04  3.14001E+04 -2.93971E+04  1.09247E+04 -2.19079E+04 -1.05489E+04 -4.41415E+03 -1.31400E+04
  1.14021E+03 -2.37592E+03 -5.91741E+03  7.18219E+03 -1.77713E+04  5.66374E+03 -1.80338E+04 -8.16681E+03
 -1.12736E+04 -2.05344E+04  5.47779E+03 -2.51266E+04  1.60938E+04 -1.69390E+04  1.98490E+04 -1.67979E+03
  1.23837E+04  1.42147E+04 -1.13915E+03  2.03275E+04 -1.40997E+04  1.19463E+04 -2.11070E+04 -4.98860E+03
 -1.48878E+04 -1.94563E+04 -1.71156E+03 -2.47573E+04  1.12489E+04 -2.03539E+04  2.07286E+04 -1.05067E+04
  1.92337E+04 -8.49090E+01  1.44797E+04  4.05260E+03  7.73213E+03  6.78070E+02  1.10425E+04 -2.13435E+03
  1.91926E+04  2.77845E+03  2.20186E+04  1.68314E+04  1.51989E+04  3.33260E+04 -2.56701E+03  3.79052E+04
 -2.27805E+04  3.08503E+04 -3.56864E+04  1.57323E+04 -3.76766E+04 -3.02055E+03 -3.12372E+04 -2.17368E+04
 -1.29716E+04 -3.08852E+04  1.11812E+04 -2.80118E+04  2.34206E+04 -1.41156E+04  2.17116E+04  6.11773E+03
  6.92471E+03  1.61590E+04 -9.39408E+03  1.35483E+04 -1.80038E+04  2.23383E+03 -1.33388E+04 -1.15894E+04
  1.23297E+02 -1.69238E+04  8.93931E+03 -1.25070E+04  1.17815E+04 -1.13354E+03  1.81930E+03  7.84297E+03
 -7.02247E+03  3.62198E+03 -6.83442E+03 -5.66344E+03 -9.82456E+02 -1.56740E+04  1.07454E+04 -1.67394E+04
  2.00015E+04 -8.92293E+03  2.13411E+04  2.75918E+03  1.82368E+04  1.49162E+04  8.61787E+03  2.43544E+04
 -4.27071E+03  2.60696E+04 -1.68548E+04  1.64576E+04 -1.86340E+04  3.60354E+03 -1.30441E+04 -4.57104E+03
 -4.83722E+03 -5.91527E+03 -1.27728E+03  1.09376E+03 -3.19996E+03  3.25258E+03 -5.30597E+03  4.43901E+03
 -1.13932E+04 -1.71061E+03 -1.25861E+04 -1.02729E+04 -5.44972E+03 -1.54191E+04  5.30453E+03 -1.31692E+04
  1.01485E+04 -5.36365E+03  7.44460E+03  3.53690E+03 -4.56401E+02  5.80334E+03 -6.18530E+03  3.03359E+02
 -6.04818E+03 -8.29393E+03 -5.17532E+02 -1.15870E+04  7.11539E+03 -1.34794E+04  1.58223E+04 -6.72290E+03
  1.96122E+04  1.47835E+03  1.46904E+04  1.10303E+04  2.85750E+03  1.47078E+04 -8.28956E+03  1.31260E+04
 -1.02409E+04  4.00098E+03 -5.47619E+03 -3.13605E+03  2.22782E+03 -3.14583E+03  6.82321E+03 -1.30584E+03
  6.35960E+03  5.22526E+03  1.22307E+03  1.05209E+04 -8.03871E+03  9.63801E+03 -1.27133E+04  2.21095E+03
 -8.59534E+03 -6.32608E+03  7.85680E+01 -1.19442E+04  7.43813E+03 -5.91389E+03  7.31420E+03  2.44380E+03
  1.85331E+03  7.12411E+03 -6.49880E+03  9.03177E+03 -1.05225E+04  3.83247E+03 -9.16151E+03 -3.90068E+03
 -5.26790E+03 -1.24838E+04  2.87383E+03 -1.40489E+04  1.23411E+04 -8.07572E+03  1.31814E+04  1.32975E+03
  7.97635E+03  1.05975E+04 -1.62499E+03  1.26150E+04 -8.41756E+03  6.61680E+03 -1.01184E+04 -9.62496E+02
 -8.78086E+03 -8.19451E+03 -1.57983E+03 -9.10211E+03  4.49994E+03 -7.66556E+03  5.84970E+03 -3.52290E+03
  3.70648E+03  9.29649E+02 -1.21152E+03  1.61096E+03  2.28691E+02 -2.27603E+03  1.70709E+03 -4.51984E+03
  8.29758E+03 -3.06234E+03  1.16807E+04  1.77469E+03  1.14024E+04  8.09621E+03  8.44710E+03  1.55592E+04
 -2.67010E+03  1.80963E+04 -1.53045E+04  1.30088E+04 -1.91698E+04  2.96403E+03 -1.54681E+04 -6.80192E+03
 -7.68920E+03 -1.33661E+04 -3.58955E+02 -1.09602E+04  4.11661E+03 -6.70176E+03  4.19795E+03 -4.46650E+03
  2.55713E+03 -2.15444E+03  3.77493E+03 -3.41364E+03  5.20090E+03 -2.51980E+03  6.54074E+03 -8.46849E+02
  8.06145E+03  1.78081E+03  4.37758E+03  7.03843E+03 -1.99623E+03  8.18270E+03 -8.95573E+03  5.70025E+03
 -1.06360E+04 -1.50324E+03 -6.56462E+03 -7.48480E+03 -7.16423E+02 -1.09415E+04  5.94653E+03 -1.08034E+04
  1.18894E+04 -6.22366E+03  1.43519E+04  1.54289E+03  9.61120E+03  9.02579E+03  1.86992E+03  1.26892E+04
 -5.06249E+03  1.04516E+04 -7.48567E+03  3.90250E+03 -5.19493E+03 -1.12052E+03 -2.27936E+03 -2.05696E+03
 -1.38940E+03  4.60477E+02 -1.89667E+03  3.23710E+03 -4.81801E+03  2.25839E+03 -7.64061E+03 -5.70941E+02
 -4.45234E+03 -7.46002E+03  5.33017E+02 -1.04265E+04  6.52740E+03 -9.80541E+03  1.04362E+04 -2.18654E+03
  1.00425E+04  5.43161E+03  4.48712E+03  9.30274E+03 -1.98941E+03  1.12259E+04 -7.13540E+03  6.07681E+03
 -9.98121E+03  6.81944E+02 -7.50036E+03 -6.09640E+03 -7.76442E+02 -8.16465E+03  4.83271E+03 -6.45850E+03
  5.83836E+03 -2.40337E+03  4.29551E+03  2.64606E+03  1.29697E+03  3.16313E+03  8.05244E+02  1.28932E+03
  1.48708E+03  1.22242E+03  2.32998E+03  2.00912E+03  2.70057E+03  4.05731E+03  2.70615E+03  4.84001E+03
 -2.31296E+03  7.61733E+03 -7.74135E+03  8.85543E+03 -1.06882E+04  2.36856E+03 -1.04660E+04 -3.22978E+03
 -5.02519E+03 -1.04098E+04  1.53560E+03 -1.17863E+04  5.72408E+03 -7.08890E+03  8.71309E+03 -2.17568E+03
  6.75479E+03  3.93925E+03  1.37978E+03  5.91702E+03 -2.56349E+03  3.38793E+03 -4.22212E+03 -2.43527E+02
 -1.64969E+03 -4.06780E+03  2.73359E+03 -5.07767E+03  4.40546E+03 -2.71362E+03  4.07182E+03  1.14940E+03
  2.41053E+03  1.85911E+03  1.68890E+03  1.64401E+03 -4.01156E+02  8.41259E+02  5.03809E+02 -2.98424E+02
  1.55712E+03 -1.58209E+03  4.12707E+03  1.78973E+03  2.33235E+03  5.13787E+03 -9.57306E+02  7.31174E+03
 -4.40510E+03  4.84838E+03 -6.04568E+03  1.12053E+03 -5.66251E+03 -2.30965E+03 -2.58851E+03 -3.62569E+03
  1.02846E+03 -3.86725E+03  2.38337E+03 -1.78137E+03  1.22701E+03  2.44977E+03 -8.81975E+02  2.42383E+03
 -4.24007E+03  2.02978E+03 -5.15075E+03 -2.56673E+03 -2.77856E+03 -5.63966E+03 -5.61644E+01 -5.46923E+03
  3.34317E+03 -2.36505E+03  3.50194E+03 -7.89581E+02  3.35985E+03  1.44543E+03  1.41272E+02  2.47415E+03
 -1.43603E+03  1.31153E+03 -2.35977E+03 -1.67614E+03  4.49617E+02 -3.56103E+03  4.82780E+03 -3.24228E+03
  5.90156E+03  5.15125E+02  5.57151E+03  3.65704E+03  2.16518E+03  5.66152E+03 -2.02492E+03  6.60190E+03
 -5.65037E+03  2.23955E+03 -5.76092E+03 -4.16422E+02 -2.43628E+03 -4.60579E+03  1.64825E+03 -3.73235E+03
  3.93649E+03 -2.11184E+03  2.88103E+03  1.37772E+03  1.35986E+03  3.35352E+03 -1.09904E+03  3.16581E+03
 -1.82974E+03  2.36864E+03 -1.58363E+03  5.02013E+01 -2.70768E+02  7.19099E+02 -1.28014E+03  1.44536E+03
 -8.90146E+02  2.68754E+03 -4.10845E+03  1.63004E+03 -6.59278E+03  8.60668E+02 -7.33949E+03 -4.51951E+03
 -4.24400E+03 -8.13283E+03  1.60354E+03 -8.50067E+03  5.64911E+03 -7.59296E+03  7.93765E+03 -2.73774E+03
  8.01524E+03  1.44861E+03  4.55000E+03  5.63892E+03 -4.35637E+02  6.27009E+03 -3.08102E+03  4.80578E+03
 -3.43159E+03  1.89865E+03 -1.63790E+03 -6.46043E+02 -1.55244E+03  3.14237E+02 -5.91025E+02 -1.19075E+02
 -2.01803E+03  5.40310E+02 -1.10217E+03  2.30281E+02  3.13267E+02 -1.33618E+03  7.09023E+01 -1.85237E+03
  3.18067E+03 -2.51024E+03  3.44010E+03  3.12940E+02  3.78572E+03  3.55973E+03  3.00168E+02  5.36468E+03
 -3.35082E+03  7.35046E+03 -6.22271E+03  3.75088E+03 -7.25128E+03 -7.94400E+02 -5.62649E+03 -4.79456E+03
 -2.54371E+03 -6.65580E+03  1.43509E+03 -5.23220E+03  4.20635E+03 -2.44959E+03  3.61353E+03 -2.75022E+02
  1.25331E+03  2.50702E+03 -6.16432E+01  2.18225E+03 -1.88165E+03  8.00186E+02 -2.17625E+02 -2.37247E+03
  1.61034E+03 -5.18695E+02  2.72578E+03  1.43139E+03  1.44812E+03  2.06674E+03  2.75031E+02  3.30149E+03
 -2.52038E+03  2.17755E+03 -3.80138E+03  6.11183E+02 -3.30900E+03 -3.45684E+03 -3.01855E+02 -4.98537E+03
  2.59515E+03 -3.31519E+03  4.14274E+03 -1.06717E+03  4.02609E+03  8.48568E+02  2.37531E+03  2.99079E+03
  1.01335E+03  3.84364E+03 -2.04226E+03  3.34277E+03 -2.12646E+03  1.72373E+03 -1.58549E+03 -2.84123E+02
 -1.67208E+03 -2.39223E+02 -1.36656E+03  3.90046E+02 -1.66980E+03  7.12081E+02 -2.75854E+03 -6.04255E+02
 -3.30790E+03 -1.74357E+03 -1.15357E+03 -3.59282E+03  2.49753E+03 -4.28441E+03  3.61975E+03 -2.26304E+03
  3.32138E+03  3.62331E+02  1.90467E+03  2.31790E+03  3.47165E+02  4.04726E+03 -2.66392E+03  2.55854E+03
