 $NMID ID='MM_0lb_SNR400_17hz_g55_70.RAW', FMTDAT='(8E13.5)'
 TRAMP=1., VOLUME=1. $END
  3.10258E+05  1.34257E+02  3.37748E+05  2.50394E+05  8.44864E+04  3.37643E+05 -1.32514E+05  2.50749E+05
 -1.90044E+05  8.31371E+04 -1.11508E+05 -3.24722E+04  1.33266E+03 -4.99446E+04  5.42170E+04  7.67719E+01
  3.56643E+04  5.28071E+04 -1.63929E+04  7.54030E+04 -6.04306E+04  6.32726E+04 -8.41631E+04  3.19562E+04
 -8.09738E+04 -1.15573E+04 -5.72736E+04 -5.05913E+04 -1.49317E+04 -6.93553E+04  2.73897E+04 -4.52257E+04
  3.98019E+04  3.73749E+03  1.59348E+04  4.71344E+04 -3.38432E+04  4.71921E+04 -6.65354E+04 -4.04632E+01
 -5.31480E+04 -5.60294E+04 -6.48719E+03 -7.65199E+04  3.33206E+04 -5.41965E+04  4.71702E+04 -1.65407E+04
  4.33656E+04  1.18151E+04  3.16226E+04  2.50953E+04  1.55950E+04  2.87650E+04 -5.47151E+03  2.71981E+04
 -2.14065E+04  1.24268E+04 -1.82927E+04 -5.40626E+03  5.32051E+03 -7.15754E+03  2.18472E+04  1.21526E+04
  7.50182E+03  3.45809E+04 -3.13336E+04  3.50060E+04 -6.30888E+04  2.48325E+03 -5.62412E+04 -4.24074E+04
 -1.19208E+04 -6.26369E+04  3.95360E+04 -4.49019E+04  5.77105E+04 -2.08404E+03  3.33296E+04  3.17689E+04
 -6.37553E+03  3.51617E+04 -2.97302E+04  1.52561E+04 -2.89403E+04 -4.74978E+03 -1.60044E+04 -1.02356E+04
 -7.73980E+03 -1.27745E+04 -8.25502E+02 -1.76130E+04  7.27663E+03 -2.31385E+04  1.54902E+04 -1.37749E+04
  1.17531E+04  4.58097E+03 -7.70662E+03  1.35122E+04 -2.02926E+04 -3.94149E+03 -7.90532E+03 -3.28267E+04
  2.20368E+04 -4.28315E+04  4.68906E+04 -1.90024E+04  4.36981E+04  1.94081E+04  1.49965E+04  4.23255E+04
 -1.53963E+04  3.19688E+04 -2.46500E+04  1.63285E+03 -9.22259E+03 -2.74211E+04  2.05219E+04 -3.28039E+04
  4.02290E+04 -8.45353E+03  3.39626E+04  2.33728E+04  1.71856E+04  4.51728E+04 -7.86363E+03  4.84283E+04
 -2.97685E+04  3.19231E+04 -4.07076E+04  8.64439E+03 -4.05584E+04 -1.65904E+04 -2.24963E+04 -3.64454E+04
  6.47992E+03 -3.57624E+04  3.05196E+04 -1.34416E+04  2.86784E+04  1.06183E+04  3.68107E+03  1.83505E+04
 -1.31351E+04  7.55791E+03 -1.02421E+04 -7.42925E+03  5.34277E+03 -1.02756E+04  1.73706E+04  5.89224E+03
  1.24353E+04  2.20412E+04 -6.80634E+03  2.45058E+04 -2.21183E+04  9.99590E+03 -2.66318E+04 -5.42180E+03
 -1.82947E+04 -1.72701E+04 -7.10448E+03 -1.96755E+04  3.79019E+03 -1.76705E+04  1.47241E+04 -1.65877E+04
  2.36920E+04 -1.21927E+04  3.06971E+04  2.16383E+03  2.18851E+04  1.83557E+04  3.91943E+03  3.45522E+04
 -1.65889E+04  2.89079E+04 -2.70761E+04  1.01043E+04 -2.05386E+04 -1.05414E+04 -3.70580E+03 -1.33431E+04
  2.34350E+03 -3.61624E+03 -4.21207E+03  6.28603E+03 -1.45539E+04  4.97572E+03 -1.49851E+04 -5.63620E+03
 -9.17808E+03 -1.72290E+04  5.18008E+03 -2.11827E+04  1.33204E+04 -1.50159E+04  1.63730E+04 -1.81594E+03
  1.00611E+04  1.20799E+04 -1.08861E+03  1.73037E+04 -1.15208E+04  9.74898E+03 -1.72100E+04 -3.18953E+03
 -1.27631E+04 -1.55825E+04 -1.61198E+03 -2.09049E+04  9.64388E+03 -1.73064E+04  1.75759E+04 -8.63338E+03
  1.62716E+04  4.14285E+02  1.15269E+04  4.74562E+03  6.24746E+03  1.03920E+03  8.69958E+03 -1.01015E+03
  1.58395E+04  2.76254E+03  1.72560E+04  1.40166E+04  1.11915E+04  2.72638E+04 -3.18806E+03  3.06417E+04
 -1.77438E+04  2.39656E+04 -2.82370E+04  1.17142E+04 -2.89231E+04 -1.76375E+03 -2.44983E+04 -1.71581E+04
 -1.12687E+04 -2.44065E+04  7.90938E+03 -2.21271E+04  1.90940E+04 -1.17158E+04  1.76553E+04  4.67795E+03
  7.05930E+03  1.24763E+04 -8.53187E+03  1.12308E+04 -1.52994E+04  2.78466E+03 -1.10758E+04 -9.21172E+03
  4.10346E+01 -1.35668E+04  6.92263E+03 -1.03748E+04  9.18149E+03 -1.35328E+03  1.68430E+03  6.03963E+03
 -6.27577E+03  1.85827E+03 -4.21130E+03 -4.89574E+03 -4.31743E+02 -1.20420E+04  8.89446E+03 -1.21142E+04
  1.43024E+04 -6.06120E+03  1.48743E+04  2.94813E+03  1.30669E+04  1.16274E+04  6.36580E+03  1.74598E+04
 -2.66481E+03  1.82151E+04 -1.22802E+04  1.16408E+04 -1.35621E+04  3.38890E+03 -9.76732E+03 -2.52755E+03
 -4.58188E+03 -3.78379E+03 -6.47764E+02  1.49464E+03 -1.96511E+03  2.96607E+03 -4.23081E+03  3.71166E+03
 -9.31217E+03 -2.30899E+02 -1.02980E+04 -8.35965E+03 -3.95880E+03 -1.23966E+04  3.67380E+03 -9.61954E+03
  8.36399E+03 -4.46388E+03  5.49860E+03  2.76184E+03  5.18739E+02  3.89181E+03 -4.12488E+03  8.92708E+02
 -3.78480E+03 -6.07407E+03 -1.66911E+03 -9.12503E+03  4.93135E+03 -9.38451E+03  1.20278E+04 -5.14411E+03
  1.36786E+04  6.27136E+02  1.07943E+04  7.22022E+03  1.61194E+03  1.02002E+04 -6.34859E+03  9.90966E+03
 -8.18860E+03  2.83810E+03 -4.22455E+03 -1.50950E+03  1.15480E+03 -2.45996E+03  5.25547E+03 -1.21706E+03
  4.25054E+03  3.95044E+03  7.35409E+02  8.19204E+03 -5.26832E+03  7.64544E+03 -9.80303E+03  1.74577E+03
 -6.18571E+03 -4.60335E+03  7.18118E+02 -7.55434E+03  4.26007E+03 -3.81432E+03  4.20340E+03  1.36610E+03
  9.45014E+02  4.63840E+03 -4.58079E+03  5.89611E+03 -6.04707E+03  3.09701E+03 -5.97134E+03 -1.75807E+03
 -3.57396E+03 -7.54299E+03  1.85573E+03 -9.30191E+03  7.40576E+03 -6.11338E+03  8.64297E+03  1.17528E+03
  5.43193E+03  6.88441E+03 -4.70750E+02  9.04737E+03 -6.41981E+03  5.47291E+03 -6.18192E+03 -1.49478E+03
 -6.64790E+03 -6.32254E+03 -1.23659E+03 -5.96867E+03  3.36541E+03 -5.36191E+03  3.94451E+03 -3.26643E+03
  3.56593E+03 -6.24330E+00  3.24649E+01  1.11401E+03  2.01988E+02 -5.93775E+02  3.80873E+02 -2.78147E+03
  4.43736E+03 -1.46046E+03  6.50342E+03  4.69605E+02  7.16032E+03  4.53678E+03  6.41018E+03  8.61879E+03
 -9.33065E+02  1.04664E+04 -8.86620E+03  7.67678E+03 -1.20869E+04  1.77066E+03 -9.46092E+03 -3.31406E+03
 -4.89393E+03 -7.72316E+03 -1.03557E+03 -6.80937E+03  2.16847E+03 -3.17592E+03  2.09593E+03 -2.80286E+03
  1.21219E+03 -1.92002E+03  2.57754E+03 -2.20688E+03  3.73246E+03 -1.56552E+03  4.11890E+03 -1.51471E+02
  5.40901E+03  1.10059E+03  1.71797E+03  3.80069E+03 -1.82645E+03  3.65917E+03 -4.80820E+03  3.14818E+03
 -6.38845E+03 -1.43113E+03 -3.15115E+03 -3.97322E+03  2.53013E+02 -6.49512E+03  4.07534E+03 -6.38849E+03
  6.32607E+03 -4.19505E+03  8.32936E+03  3.15323E+02  6.06828E+03  5.43935E+03  9.75117E+02  7.31779E+03
 -2.77015E+03  6.90356E+03 -4.28427E+03  2.27978E+03 -2.65477E+03 -9.17010E+02 -1.15631E+03 -7.95620E+02
 -4.46126E+02  3.57827E+02 -8.54192E+02  2.21408E+03 -3.55743E+03  1.27699E+03 -4.71869E+03 -9.73670E+02
 -2.37121E+03 -4.82554E+03  8.42755E+02 -5.26838E+03  3.70366E+03 -5.51784E+03  4.88991E+03 -1.31346E+03
  5.59507E+03  2.66800E+03  2.01991E+03  4.65012E+03 -1.27846E+03  5.38540E+03 -4.16850E+03  3.52759E+03
 -4.23834E+03  6.35868E+02 -4.58981E+03 -2.75454E+03 -2.56638E+02 -4.34920E+03  2.05856E+03 -3.05306E+03
  3.35016E+03 -1.32646E+03  2.18846E+03  3.36519E+02  9.30514E+02  1.83977E+03  1.28424E+03  3.94951E+02
  2.09828E+03  3.39721E+02  1.56979E+03  1.46848E+03  1.97078E+03  2.46663E+03  1.30279E+03  2.52104E+03
 -1.50747E+03  4.04178E+03 -3.46391E+03  5.05367E+03 -4.31371E+03  1.54049E+03 -5.79348E+03 -8.96142E+02
 -2.02375E+03 -4.81125E+03  7.91769E+02 -6.16091E+03  3.23464E+03 -3.76508E+03  4.08230E+03 -1.14645E+03
  2.67206E+03  2.08024E+03  5.53132E+02  3.02656E+03 -4.87107E+02  1.36682E+03 -1.79387E+03 -3.43210E+02
 -7.30302E+02 -1.69420E+03  1.67506E+03 -2.18342E+03  1.77167E+03 -7.40563E+02  1.66421E+03  9.72494E+02
  1.05701E+03  6.27851E+02  1.08321E+03  3.83719E+02 -6.06866E+02  6.86612E+02  1.56747E+03 -4.62983E+02
  8.48700E+02 -2.78229E+01  2.44114E+03  3.89866E+02  8.59565E+02  3.07040E+03 -1.77982E+02  3.60110E+03
 -2.00141E+03  1.88502E+03 -2.07599E+03  5.48737E+02 -3.04611E+03 -9.44936E+02 -3.23078E+02 -1.60624E+03
  5.92623E+02 -2.01341E+03  1.56049E+03 -1.22099E+03  6.50814E+02  1.38840E+03 -4.55114E+02  1.90914E+03
 -1.82939E+03  1.48456E+03 -1.32643E+03 -1.51737E+03 -1.18609E+03 -2.05607E+03  1.73326E+02 -2.41830E+03
  1.34140E+03 -1.25943E+03  8.20718E+02 -3.44140E+02  2.13290E+03  7.90169E+01  1.14188E+02  1.49101E+03
 -4.66462E+02 -8.52916E+01 -9.39898E+02 -2.17249E+02  3.73872E+02 -1.49453E+03  2.47776E+03 -1.53180E+03
  1.91583E+03  1.47832E+02  2.79261E+03  1.45653E+03  1.13205E+03  2.44821E+03 -8.19985E+02  2.64040E+03
 -1.85224E+03  8.39140E+02 -1.71412E+03 -2.30197E+01 -1.50193E+03 -1.27689E+03  4.33490E+01 -1.23148E+03
  1.75693E+03 -9.83975E+02  1.33800E+03  3.08945E+02  2.51149E+02  1.75496E+03  3.83181E+02  1.08743E+03
 -3.06630E+02  9.16498E+02 -6.66737E+02  5.61190E+02 -2.01183E+01  6.56388E+02 -9.91349E+02  5.33071E+02
 -6.83541E+02  9.85556E+02 -2.07969E+03  9.57153E+02 -2.43568E+03  1.83038E+02 -2.67078E+03 -1.70609E+03
 -1.25789E+03 -2.72995E+03  5.90660E+02 -3.32609E+03  1.60610E+03 -2.68869E+03  3.21487E+03 -1.26666E+03
  2.77179E+03  5.87232E+02  1.70449E+03  2.12425E+03  3.09995E+02  1.98104E+03 -9.75728E+02  1.88835E+03
 -9.62571E+02  1.26622E+03 -8.28284E+02 -2.64004E+01 -5.41008E+02  4.38520E+02 -5.91893E+02  3.04748E+02
 -1.25478E+03  6.14330E+01 -7.48351E+02  4.86108E+02  2.63479E+02 -5.68371E+02  4.20925E+02 -7.34218E+02
  1.33302E+03 -4.86693E+02  9.67673E+02  3.19477E+02  1.91216E+03  1.77503E+03 -3.80915E+02  1.96940E+03
 -1.81038E+03  2.64379E+03 -1.71614E+03  1.52737E+03 -2.75416E+03 -1.79629E+02 -2.02080E+03 -1.01088E+03
 -9.34080E+02 -1.74935E+03  6.41777E+02 -1.67887E+03  4.01454E+02 -9.47780E+02  2.59256E+02  2.29716E+02
  7.20447E+02  9.48789E+01  2.57441E+02  3.63843E+02 -1.70578E+02 -1.11505E+02  1.40711E+02 -2.27064E+02
  3.67758E+02  1.79028E+02  2.91025E+02  5.07051E+02  4.26844E+02 -2.22791E+02  4.53999E+02  9.53539E+02
 -4.71740E+02  8.27453E+02 -7.84218E+02 -3.79443E+02 -4.88263E+02 -4.37103E+02  9.20216E+01 -1.64683E+03
  7.01993E+02 -9.41424E+02  6.48753E+02  2.79192E+02  1.23628E+03 -7.26794E+02  5.79212E+02  4.84308E+02
  5.32182E+02  9.23750E+02 -2.08547E+02  3.86988E+02 -1.93079E+02  1.22422E+03 -4.41485E+02  7.02551E+02
 -4.27994E+02  1.49896E+02 -7.58734E+02  4.08141E+02 -9.77835E+02 -1.14023E+02 -8.13755E+02  6.30655E+02
 -4.75751E+02 -2.61119E+02 -1.60108E+02 -1.58161E+03  1.04596E+03 -1.43655E+03  1.27176E+03 -1.60971E+02
  1.11494E+03 -1.90355E+02  2.48641E+01  7.68319E+02  2.33253E+02  1.44823E+03 -6.51628E+02  5.95019E+02
