 $NMID ID='MM_0lb_SNR400_15hz_g60_9.RAW', FMTDAT='(8E13.5)'
 TRAMP=1., VOLUME=1. $END
  3.10183E+05  5.01343E+02  3.38064E+05  2.51023E+05  8.43893E+04  3.37599E+05 -1.32152E+05  2.51090E+05
 -1.90421E+05  8.37867E+04 -1.11568E+05 -3.24904E+04  1.06225E+03 -5.07863E+04  5.42034E+04 -2.51704E+02
  3.55783E+04  5.28903E+04 -1.69917E+04  7.56441E+04 -6.12468E+04  6.42497E+04 -8.43689E+04  3.25757E+04
 -8.14729E+04 -1.15627E+04 -5.76551E+04 -5.17583E+04 -1.53077E+04 -6.96567E+04  2.74207E+04 -4.62958E+04
  4.01228E+04  3.77130E+03  1.58564E+04  4.73892E+04 -3.46682E+04  4.73009E+04 -6.68937E+04 -4.25951E+01
 -5.33661E+04 -5.72043E+04 -7.17047E+03 -7.75697E+04  3.37903E+04 -5.57242E+04  4.91053E+04 -1.73571E+04
  4.39044E+04  1.14282E+04  3.18436E+04  2.57837E+04  1.54930E+04  2.95772E+04 -5.91248E+03  2.72650E+04
 -2.15387E+04  1.20847E+04 -1.88149E+04 -4.30319E+03  5.70089E+03 -7.84412E+03  2.30358E+04  1.22488E+04
  6.89626E+03  3.57114E+04 -3.23671E+04  3.59793E+04 -6.31215E+04  1.36735E+03 -5.67638E+04 -4.31372E+04
 -1.20993E+04 -6.36303E+04  4.01401E+04 -4.57016E+04  5.85928E+04 -2.39927E+03  3.49833E+04  3.34012E+04
 -5.73003E+03  3.66125E+04 -3.04797E+04  1.62652E+04 -3.11561E+04 -4.60091E+03 -1.71877E+04 -1.19531E+04
 -8.61764E+03 -1.38472E+04 -1.08352E+03 -1.86769E+04  7.82032E+03 -2.30182E+04  1.52656E+04 -1.32336E+04
  1.13494E+04  5.15838E+03 -8.15235E+03  1.27685E+04 -2.16493E+04 -5.09588E+03 -8.77640E+03 -3.41091E+04
  2.30111E+04 -4.43937E+04  4.85561E+04 -2.01186E+04  4.57764E+04  1.95070E+04  1.64579E+04  4.49599E+04
 -1.60352E+04  3.40872E+04 -2.59116E+04  1.82878E+03 -9.39500E+03 -2.81132E+04  2.14294E+04 -3.41041E+04
  4.17329E+04 -9.54384E+03  3.66899E+04  2.35881E+04  1.94216E+04  4.72282E+04 -7.74173E+03  5.16581E+04
 -3.19498E+04  3.51547E+04 -4.28391E+04  9.74399E+03 -4.33032E+04 -1.66548E+04 -2.40925E+04 -3.82493E+04
  7.34399E+03 -3.85914E+04  3.22127E+04 -1.48788E+04  2.94833E+04  1.13710E+04  4.16222E+03  1.95488E+04
 -1.29071E+04  8.31600E+03 -1.07263E+04 -7.64135E+03  6.06660E+03 -1.05925E+04  1.76529E+04  5.60380E+03
  1.36233E+04  2.20509E+04 -6.04986E+03  2.51809E+04 -2.23266E+04  1.18258E+04 -2.82303E+04 -4.20947E+03
 -2.15457E+04 -1.71447E+04 -8.57884E+03 -2.07896E+04  4.00468E+03 -1.99799E+04  1.67661E+04 -1.84803E+04
  2.71946E+04 -1.30477E+04  3.34362E+04  2.66881E+03  2.45557E+04  2.06631E+04  4.75062E+03  3.71041E+04
 -1.81864E+04  3.06943E+04 -2.80916E+04  1.09757E+04 -2.07410E+04 -1.02195E+04 -4.43913E+03 -1.36519E+04
  2.21679E+03 -2.46594E+03 -5.23361E+03  6.83403E+03 -1.68272E+04  4.51450E+03 -1.67987E+04 -7.69000E+03
 -1.03456E+04 -1.96940E+04  5.11421E+03 -2.40742E+04  1.61196E+04 -1.67274E+04  1.87142E+04 -1.63372E+03
  1.11806E+04  1.35454E+04 -1.22655E+03  1.98554E+04 -1.35985E+04  1.09696E+04 -1.95227E+04 -4.03275E+03
 -1.43658E+04 -1.71793E+04 -2.16600E+03 -2.35406E+04  1.00065E+04 -1.94609E+04  2.04394E+04 -1.05285E+04
  1.80887E+04 -1.86250E+02  1.30229E+04  3.97204E+03  6.90265E+03  3.85565E+02  9.99597E+03 -2.21800E+03
  1.79712E+04  3.57658E+03  1.99839E+04  1.61195E+04  1.29553E+04  3.03945E+04 -3.34763E+03  3.54793E+04
 -2.03048E+04  2.87984E+04 -3.25115E+04  1.43035E+04 -3.46243E+04 -2.34199E+03 -2.86106E+04 -2.02701E+04
 -1.18525E+04 -2.79090E+04  1.01083E+04 -2.55297E+04  2.18747E+04 -1.26960E+04  1.89127E+04  5.53066E+03
  7.32459E+03  1.46952E+04 -9.38621E+03  1.25008E+04 -1.67889E+04  2.94703E+03 -1.24632E+04 -9.94077E+03
 -5.26790E+02 -1.60515E+04  7.64503E+03 -1.14779E+04  1.07589E+04 -1.18635E+03  3.04799E+03  6.62131E+03
 -6.90812E+03  2.27855E+03 -6.20500E+03 -5.26734E+03 -8.87641E+02 -1.38608E+04  9.33577E+03 -1.49331E+04
  1.75211E+04 -8.03013E+03  1.81412E+04  3.20314E+03  1.61563E+04  1.33675E+04  7.47540E+03  2.04059E+04
 -3.33369E+03  2.22808E+04 -1.45153E+04  1.42036E+04 -1.66477E+04  3.63074E+03 -1.12613E+04 -3.98501E+03
 -5.47803E+03 -4.57528E+03 -4.10054E+02  5.86288E+02 -2.22533E+03  2.56225E+03 -5.19901E+03  4.84838E+03
 -1.07885E+04 -6.45416E+02 -1.15204E+04 -9.07625E+03 -4.97975E+03 -1.48597E+04  4.61475E+03 -1.14048E+04
  9.83453E+03 -4.72170E+03  6.92211E+03  2.63571E+03 -1.56073E+02  4.64045E+03 -5.28574E+03 -4.31439E+02
 -4.95305E+03 -7.17546E+03 -1.30949E+03 -1.11821E+04  6.01213E+03 -1.12241E+04  1.43918E+04 -5.88341E+03
  1.64788E+04  1.02674E+03  1.20105E+04  9.45485E+03  1.83555E+03  1.29211E+04 -7.22675E+03  1.12625E+04
 -9.25945E+03  3.63301E+03 -5.02319E+03 -2.01591E+03  1.77614E+03 -3.28980E+03  6.01361E+03 -1.24524E+03
  5.46325E+03  4.26591E+03  1.31510E+03  8.90213E+03 -6.57834E+03  8.39769E+03 -1.06188E+04  2.82344E+03
 -6.67526E+03 -5.47720E+03  6.41193E+02 -9.49493E+03  6.23840E+03 -4.86096E+03  5.64543E+03  1.99554E+03
  1.03335E+03  6.05095E+03 -5.73655E+03  7.15722E+03 -8.12007E+03  3.06773E+03 -8.30184E+03 -2.97692E+03
 -5.49638E+03 -9.64757E+03  2.89978E+03 -1.15764E+04  9.31124E+03 -6.81757E+03  1.08293E+04  1.92811E+03
  6.86524E+03  8.50687E+03 -1.22098E+03  1.07029E+04 -7.57333E+03  5.69809E+03 -8.21021E+03 -4.47690E+02
 -7.43877E+03 -7.30997E+03 -1.48280E+03 -7.45778E+03  3.75746E+03 -6.53952E+03  4.60710E+03 -3.14232E+03
  3.01557E+03 -1.24286E+02 -4.63334E+02  1.69427E+03  7.93523E+02 -2.09217E+03  1.16662E+03 -4.01782E+03
  6.67102E+03 -1.96608E+03  9.23197E+03  1.24895E+03  8.83675E+03  5.89637E+03  6.88158E+03  1.27520E+04
 -2.31282E+03  1.38256E+04 -1.16828E+04  1.07454E+04 -1.51772E+04  2.20917E+03 -1.25559E+04 -4.80277E+03
 -6.61100E+03 -1.05700E+04 -6.17459E+02 -8.23234E+03  3.18106E+03 -4.40671E+03  2.59344E+03 -3.09304E+03
  2.23510E+03 -1.73643E+03  2.92559E+03 -2.75430E+03  4.29136E+03 -2.01964E+03  5.18301E+03 -3.67739E+02
  7.06012E+03  1.45741E+03  2.63889E+03  5.31721E+03 -2.16817E+03  6.07901E+03 -6.31905E+03  4.78226E+03
 -8.14216E+03 -9.79649E+02 -4.91778E+03 -5.63403E+03 -1.46286E+02 -7.96703E+03  4.76042E+03 -8.72469E+03
  8.98942E+03 -4.42913E+03  1.11899E+04  1.38937E+03  8.04557E+03  7.37368E+03  1.52908E+03  1.05206E+04
 -3.70587E+03  8.42967E+03 -4.88601E+03  3.09435E+03 -3.36315E+03 -1.27167E+03 -1.34499E+03 -1.35685E+03
 -4.57752E+02 -3.31748E+02 -1.41326E+03  2.37522E+03 -3.67170E+03  1.21209E+03 -6.77494E+03 -9.23706E+02
 -2.88975E+03 -6.02844E+03  6.03011E+02 -7.93333E+03  5.29540E+03 -7.26639E+03  6.57196E+03 -2.31492E+03
  7.17509E+03  3.96151E+03  3.47628E+03  6.34390E+03 -1.82702E+03  7.19334E+03 -4.74855E+03  4.69932E+03
 -6.62150E+03  7.00982E+02 -5.72804E+03 -3.47370E+03 -8.78440E+02 -5.76229E+03  3.14516E+03 -4.40267E+03
  4.55643E+03 -1.86607E+03  2.61529E+03  6.38160E+02  1.00069E+03  1.97549E+03  9.09585E+02  2.66870E+02
  2.00531E+03  4.92149E+02  1.98756E+03  1.09175E+03  1.99016E+03  2.79887E+03  1.95817E+03  3.01940E+03
 -2.41122E+03  5.07856E+03 -4.87058E+03  5.95300E+03 -6.16863E+03  1.73211E+03 -7.27289E+03 -2.14020E+03
 -2.91141E+03 -7.20061E+03  9.57940E+02 -7.76978E+03  4.40559E+03 -4.99238E+03  5.94203E+03 -1.76005E+03
  4.05643E+03  3.45712E+03  1.48397E+03  3.80629E+03 -1.21136E+03  2.19668E+03 -2.79646E+03 -4.18066E+02
 -1.28823E+03 -2.94074E+03  1.84692E+03 -3.28234E+03  2.77752E+03 -1.30852E+03  2.75853E+03  1.09608E+03
  1.94863E+03  1.01120E+03  1.08076E+03 -7.21199E+01  4.31996E+01  8.52020E+02  1.47010E+03 -5.15890E+02
  4.58790E+02 -7.17623E+02  3.35902E+03  6.06353E+02  1.10161E+03  3.92908E+03 -3.98599E+02  4.90504E+03
 -3.36318E+03  2.95718E+03 -3.27999E+03  9.58184E+02 -3.46644E+03 -1.78426E+03 -1.06415E+03 -2.16997E+03
  2.54350E+01 -2.61212E+03  2.16098E+03 -6.65229E+02  1.07950E+03  1.35274E+03 -1.02687E+03  2.07221E+03
 -2.16477E+03  1.21126E+03 -3.08246E+03 -1.44611E+03 -6.99088E+02 -3.56159E+03  5.95295E+02 -3.24570E+03
  1.78788E+03 -1.38203E+03  1.99855E+03  1.37792E+02  1.96994E+03  3.08642E+02  8.09319E+02  2.24183E+03
 -7.49337E+02  5.52530E+02 -1.60071E+03 -2.84540E+02  2.63835E+02 -2.80980E+03  3.14934E+03 -1.24404E+03
  3.82489E+03  2.45234E+02  3.79434E+03  2.40906E+03  8.88289E+02  3.91128E+03 -1.59265E+03  3.43687E+03
 -2.69245E+03  1.42203E+03 -3.13870E+03 -5.88594E+02 -1.77490E+03 -2.07735E+03  6.25893E+02 -1.48837E+03
  2.41708E+03 -1.35209E+03  1.28735E+03  8.85195E+02  7.03840E+01  2.04354E+03  1.49620E+01  1.98582E+03
 -8.34467E+02  1.39217E+03 -5.35549E+02  5.23327E+02 -3.68721E+02  5.48554E+02 -1.48309E+03  6.03884E+01
 -6.26500E+02  1.66994E+03 -3.12960E+03  1.11201E+03 -2.89435E+03  1.98849E+02 -4.72275E+03 -2.59870E+03
 -2.47965E+03 -4.65635E+03  1.11199E+03 -5.78494E+03  3.14690E+03 -4.57705E+03  5.78802E+03 -2.02299E+03
  3.95358E+03  1.15240E+03  2.77476E+03  3.34360E+03 -1.93080E+02  2.68126E+03 -1.39472E+03  2.36185E+03
 -1.98411E+03  1.09153E+03 -9.98215E+02 -4.57046E+02  8.30483E+01  1.13398E+02 -4.84547E+02  8.42403E+01
 -1.19684E+03 -2.87364E+02 -1.14163E+03 -3.38485E+02 -7.90121E+01 -1.32783E+03  4.76621E+02 -1.45682E+03
  1.96657E+03 -1.40163E+03  1.76062E+03 -1.53491E+02  2.39874E+03  1.90619E+03 -4.89513E+02  2.45537E+03
 -1.71507E+03  4.29416E+03 -3.64046E+03  2.39821E+03 -3.87731E+03 -8.95273E+01 -2.94488E+03 -2.51508E+03
 -1.24295E+03 -3.00581E+03  3.37365E+02 -2.93755E+03  2.15927E+03 -1.30502E+03  2.09090E+03 -9.04147E+01
  1.32837E+03  1.13384E+03 -5.22728E+02  8.03278E+02 -7.04604E+02  1.69889E+01  3.41044E+02 -6.74283E+02
  1.57318E+03 -1.86084E+02  9.71339E+02  5.56342E+02  7.22956E+02  1.61425E+03  2.53317E+02  7.78042E+02
 -1.60884E+03  1.18012E+03 -2.06634E+03 -7.73896E+01 -1.45671E+03 -1.03754E+03 -4.66220E+02 -3.21116E+03
  1.35846E+03 -1.73716E+03  1.78851E+03 -5.74804E+02  1.69701E+03 -5.19534E+02  2.65793E+02  2.31975E+03
  8.37351E+02  2.50009E+03 -5.48199E+02  1.60277E+03 -1.59481E+03  7.96945E+02 -8.58276E+02  5.87149E+01
 -9.83757E+02 -5.08855E+01 -5.10917E+02 -4.99126E+02 -7.82288E+02  1.54300E+02 -1.80052E+03 -6.25449E+02
 -1.89267E+03 -5.88980E+02 -5.98727E+02 -2.34398E+03  8.72605E+02 -2.33156E+03  1.60096E+03 -1.54353E+03
  2.05794E+03  6.95035E+02  1.03153E+03  9.89178E+02 -3.42047E+02  1.23192E+03 -8.30913E+02  1.56525E+03
