 $NMID ID='MM_0lb_SNR400_11hz_g50_92.RAW', FMTDAT='(8E13.5)'
 TRAMP=1., VOLUME=1. $END
  3.09640E+05  1.03773E+03  3.37990E+05  2.51286E+05  8.44433E+04  3.38561E+05 -1.32134E+05  2.52161E+05
 -1.90700E+05  8.27110E+04 -1.12236E+05 -3.24023E+04  2.32453E+02 -5.06039E+04  5.40771E+04 -5.19799E+02
  3.51026E+04  5.25427E+04 -1.67080E+04  7.61779E+04 -6.15531E+04  6.39283E+04 -8.46820E+04  3.20384E+04
 -8.16932E+04 -1.16241E+04 -5.86126E+04 -5.19338E+04 -1.48732E+04 -7.10984E+04  2.84516E+04 -4.65860E+04
  4.09668E+04  3.54537E+03  1.68158E+04  4.83508E+04 -3.45553E+04  4.75121E+04 -6.77998E+04  1.29023E+02
 -5.52016E+04 -5.74363E+04 -6.49213E+03 -7.83397E+04  3.46050E+04 -5.63937E+04  4.91712E+04 -1.81584E+04
  4.41703E+04  1.10942E+04  3.23594E+04  2.58109E+04  1.63421E+04  3.00553E+04 -4.93039E+03  2.75809E+04
 -2.22426E+04  1.21711E+04 -1.80075E+04 -4.82890E+03  7.13408E+03 -7.05621E+03  2.29494E+04  1.32746E+04
  7.04805E+03  3.70290E+04 -3.35465E+04  3.67494E+04 -6.47129E+04  2.56793E+03 -5.79167E+04 -4.38216E+04
 -1.21332E+04 -6.42596E+04  4.18322E+04 -4.64932E+04  6.06994E+04 -2.27358E+03  3.55734E+04  3.36473E+04
 -5.43753E+03  3.84420E+04 -3.17174E+04  1.69870E+04 -3.19076E+04 -3.34143E+03 -1.80178E+04 -1.18935E+04
 -9.62640E+03 -1.39719E+04 -8.13906E+02 -1.94013E+04  8.50415E+03 -2.29287E+04  1.59853E+04 -1.30292E+04
  1.02540E+04  5.78659E+03 -1.01051E+04  1.30279E+04 -2.27010E+04 -5.25906E+03 -8.53995E+03 -3.58292E+04
  2.41203E+04 -4.58923E+04  4.99105E+04 -2.00573E+04  4.72676E+04  2.00603E+04  1.60795E+04  4.58846E+04
 -1.62403E+04  3.50049E+04 -2.65370E+04  2.71900E+03 -1.13357E+04 -2.88051E+04  2.11974E+04 -3.50775E+04
  4.31414E+04 -1.00574E+04  3.90708E+04  2.47833E+04  2.03739E+04  4.90107E+04 -8.02641E+03  5.45234E+04
 -3.43718E+04  3.69982E+04 -4.48154E+04  1.04226E+04 -4.60899E+04 -1.78370E+04 -2.49544E+04 -3.98334E+04
  7.56467E+03 -3.98866E+04  3.32591E+04 -1.57059E+04  3.14495E+04  1.11072E+04  4.67246E+03  1.98654E+04
 -1.32402E+04  8.81208E+03 -1.08742E+04 -7.35069E+03  6.14777E+03 -1.10326E+04  1.78757E+04  6.00930E+03
  1.46197E+04  2.26499E+04 -5.25466E+03  2.63586E+04 -2.22211E+04  1.31252E+04 -2.95572E+04 -3.45736E+03
 -2.38101E+04 -1.80442E+04 -1.04708E+04 -2.32497E+04  4.36310E+03 -2.27318E+04  1.80589E+04 -2.12812E+04
  2.92063E+04 -1.33341E+04  3.60845E+04  4.17083E+03  2.58599E+04  2.28279E+04  4.42020E+03  3.86567E+04
 -1.92502E+04  3.18414E+04 -2.95079E+04  1.13566E+04 -2.21289E+04 -9.91996E+03 -4.41668E+03 -1.34399E+04
  1.17107E+03 -1.14063E+03 -6.77763E+03  6.94282E+03 -1.84033E+04  4.96467E+03 -1.78665E+04 -8.24733E+03
 -1.07689E+04 -2.21410E+04  5.87393E+03 -2.61807E+04  1.71115E+04 -1.79527E+04  2.03738E+04 -2.06927E+03
  1.29694E+04  1.44968E+04 -1.49168E+03  2.16211E+04 -1.50127E+04  1.21964E+04 -2.16834E+04 -5.14755E+03
 -1.63438E+04 -1.95072E+04 -2.02649E+03 -2.54144E+04  1.15053E+04 -2.14707E+04  2.16672E+04 -1.06099E+04
  1.96823E+04  6.28409E+02  1.42821E+04  4.67921E+03  7.54216E+03  1.31116E+03  1.08336E+04 -2.90902E+03
  2.04709E+04  2.54859E+03  2.32047E+04  1.67961E+04  1.57384E+04  3.43188E+04 -2.54652E+03  4.05417E+04
 -2.35697E+04  3.30868E+04 -3.80789E+04  1.74604E+04 -4.03047E+04 -2.75742E+03 -3.23943E+04 -2.29003E+04
 -1.40597E+04 -3.29773E+04  1.11912E+04 -2.89770E+04  2.54561E+04 -1.41450E+04  2.20496E+04  7.07009E+03
  7.66496E+03  1.74302E+04 -1.03804E+04  1.40456E+04 -1.92505E+04  3.23599E+03 -1.33019E+04 -1.13898E+04
 -8.80565E+01 -1.81278E+04  8.96171E+03 -1.35508E+04  1.13307E+04 -1.75541E+03  2.67922E+03  7.76066E+03
 -8.13557E+03  3.38815E+03 -8.02329E+03 -7.01831E+03 -1.43898E+03 -1.64004E+04  1.04011E+04 -1.80247E+04
  1.95180E+04 -1.01650E+04  2.23952E+04  3.07286E+03  1.94090E+04  1.69789E+04  8.90563E+03  2.54627E+04
 -5.18256E+03  2.73647E+04 -1.76745E+04  1.67809E+04 -2.00252E+04  2.69924E+03 -1.36071E+04 -5.40504E+03
 -6.12122E+03 -6.21552E+03 -5.52717E+02  1.20672E+03 -2.42092E+03  3.04050E+03 -5.60764E+03  6.09891E+03
 -1.28012E+04 -5.89605E+02 -1.30040E+04 -1.00202E+04 -5.38584E+03 -1.76776E+04  5.65235E+03 -1.43679E+04
  1.18568E+04 -5.90893E+03  7.74737E+03  3.97654E+03 -2.74894E+02  5.65299E+03 -6.84763E+03 -7.48813E+01
 -6.54809E+03 -8.52679E+03 -2.03879E+02 -1.36693E+04  7.46065E+03 -1.47747E+04  1.73076E+04 -7.65948E+03
  2.02690E+04  1.87333E+03  1.43072E+04  1.15272E+04  2.51789E+03  1.59283E+04 -8.62571E+03  1.36164E+04
 -1.12574E+04  3.62303E+03 -5.38205E+03 -2.84916E+03  2.54817E+03 -4.17448E+03  7.24199E+03 -6.87907E+02
  6.65082E+03  6.25160E+03  1.07854E+03  1.09650E+04 -7.67498E+03  1.05034E+04 -1.39538E+04  2.60074E+03
 -8.66109E+03 -7.67105E+03  6.31671E+02 -1.23730E+04  7.20809E+03 -5.93356E+03  8.33733E+03  2.47786E+03
  1.83403E+03  7.63023E+03 -6.56824E+03  9.96570E+03 -1.13895E+04  3.67652E+03 -1.15523E+04 -3.61042E+03
 -6.60669E+03 -1.30943E+04  2.70060E+03 -1.49456E+04  1.31659E+04 -8.83238E+03  1.32530E+04  2.04750E+03
  9.21555E+03  1.07571E+04 -1.02305E+03  1.31516E+04 -9.37256E+03  7.76640E+03 -1.14827E+04 -9.24264E+02
 -9.11633E+03 -8.61946E+03 -6.14773E+02 -1.04836E+04  5.12045E+03 -7.78699E+03  6.04346E+03 -3.47107E+03
  4.72584E+03  1.33360E+03 -1.30539E+03  2.38442E+03 -4.34049E+02 -3.09927E+03  2.29093E+03 -6.04937E+03
  9.76890E+03 -3.84788E+03  1.37593E+04  1.92735E+03  1.30732E+04  8.87520E+03  9.15159E+03  1.67635E+04
 -3.36549E+03  1.97932E+04 -1.65881E+04  1.41045E+04 -2.23648E+04  3.54556E+03 -1.63644E+04 -7.31065E+03
 -8.39211E+03 -1.42624E+04 -7.92912E+02 -1.20754E+04  4.45354E+03 -6.66510E+03  3.71250E+03 -4.44149E+03
  3.35486E+03 -3.02173E+03  3.30028E+03 -3.53666E+03  4.94775E+03 -2.69543E+03  6.58487E+03 -7.70258E+02
  9.03438E+03  2.57083E+03  4.34641E+03  7.81834E+03 -1.64404E+03  9.84147E+03 -9.99543E+03  6.71421E+03
 -1.13052E+04 -1.46150E+03 -7.90022E+03 -8.11508E+03 -8.12397E+02 -1.30223E+04  7.19576E+03 -1.24239E+04
  1.36019E+04 -7.06131E+03  1.54774E+04  2.20096E+03  1.00298E+04  1.18583E+04  1.53647E+03  1.46945E+04
 -6.11884E+03  1.22835E+04 -8.44225E+03  4.23048E+03 -5.37928E+03 -1.29495E+03 -2.31804E+03 -1.60441E+03
 -8.53448E+02  5.59753E+02 -2.68557E+03  3.71309E+03 -5.06285E+03  1.92017E+03 -8.47671E+03 -1.10404E+03
 -5.62676E+03 -8.36372E+03  2.28742E+02 -1.12902E+04  7.16791E+03 -1.13795E+04  1.15546E+04 -2.83866E+03
  1.12674E+04  5.16637E+03  5.00786E+03  1.05178E+04 -1.76194E+03  1.17922E+04 -8.36717E+03  7.74926E+03
 -1.09336E+04 -1.78849E+02 -8.78822E+03 -6.80939E+03 -1.18898E+03 -9.44932E+03  5.00427E+03 -6.48398E+03
  7.70515E+03 -1.82113E+03  5.65910E+03  2.51301E+03  1.37502E+03  3.19357E+03  8.73223E+02  1.40326E+03
  2.17026E+03  6.64888E+02  2.84695E+03  2.01273E+03  3.95688E+03  4.21864E+03  2.77858E+03  5.59945E+03
 -2.36917E+03  9.58832E+03 -7.79134E+03  9.96760E+03 -1.13868E+04  1.88423E+03 -1.26109E+04 -4.91009E+03
 -5.98403E+03 -1.26516E+04  1.38413E+03 -1.34832E+04  6.18077E+03 -7.77495E+03  8.98375E+03 -2.67847E+03
  7.60878E+03  4.37239E+03  1.68908E+03  7.05850E+03 -2.45466E+03  3.68326E+03 -3.81395E+03 -7.67279E+02
 -2.35963E+03 -4.90504E+03  3.14890E+03 -5.05915E+03  4.72135E+03 -2.59312E+03  4.37583E+03  5.40933E+02
  2.92997E+03  2.55169E+03  1.79417E+03  1.90003E+03 -7.06149E+02  1.98815E+03  1.04161E+03  7.25681E+01
  1.40229E+03 -1.02166E+03  4.32677E+03  1.67263E+03  3.01692E+03  6.23447E+03 -9.84158E+02  7.82783E+03
 -5.69839E+03  5.76588E+03 -7.36649E+03  1.56003E+03 -6.88962E+03 -2.49996E+03 -2.20102E+03 -4.32248E+03
  5.16021E+02 -4.89058E+03  2.96577E+03 -2.31508E+03  2.78481E+03  2.15806E+03 -1.33206E+03  3.89452E+03
 -4.45300E+03  2.81446E+03 -5.12709E+03 -3.07742E+03 -3.06757E+03 -6.79637E+03  1.30952E+03 -5.44103E+03
  2.96892E+03 -3.07008E+03  4.51261E+03 -4.98052E+01  4.11626E+03  1.65840E+03  5.99256E+02  3.30161E+03
 -2.06010E+03  1.42035E+03 -2.08083E+03 -1.97604E+03  8.48164E+02 -4.27695E+03  5.31820E+03 -3.95084E+03
  7.27177E+03  1.96591E+02  7.12153E+03  4.40159E+03  2.51608E+03  7.16479E+03 -1.88290E+03  6.86164E+03
 -5.10803E+03  3.06968E+03 -6.24196E+03 -1.11664E+03 -3.24466E+03 -4.52111E+03  7.20646E+02 -5.41250E+03
  4.95628E+03 -2.28688E+03  4.20858E+03  1.86525E+03  1.04338E+03  4.46281E+03 -4.48357E+02  2.78095E+03
 -1.34249E+03  2.65165E+03 -1.79593E+03  2.98739E+02 -9.47485E+02  6.18173E+02 -1.28810E+03  1.77448E+03
 -1.86802E+03  2.22303E+03 -5.09449E+03  2.56013E+03 -7.32397E+03  1.41515E+03 -8.40308E+03 -4.76522E+03
 -4.55024E+03 -9.23005E+03  8.66359E+02 -1.17557E+04  6.94568E+03 -8.45835E+03  1.02451E+04 -3.30360E+03
  1.02025E+04  1.21817E+03  5.85515E+03  6.99327E+03 -2.02398E+02  7.84710E+03 -2.90198E+03  5.49983E+03
 -4.17896E+03  2.12217E+03 -3.22944E+03 -8.17768E+02 -1.57621E+03 -5.79622E+02 -5.44077E+02  1.80852E+02
 -1.45225E+03  3.89577E+02 -1.49850E+03 -4.44584E+01 -2.83537E+02 -2.43892E+03  6.58706E+02 -2.66525E+03
  2.87648E+03 -2.55610E+03  4.36402E+03 -1.53163E+02  5.41584E+03  4.11036E+03  1.32989E+03  7.37676E+03
 -3.98166E+03  8.97368E+03 -7.13797E+03  4.45068E+03 -8.07864E+03 -5.43733E+02 -6.54598E+03 -5.19526E+03
 -3.22054E+03 -7.80951E+03  1.36943E+03 -7.44243E+03  4.26761E+03 -3.41042E+03  4.35355E+03  8.06370E+02
  2.85775E+03  2.46725E+03 -4.08392E+02  1.46079E+03 -1.23111E+03 -5.12767E+02 -7.20479E+02 -1.65657E+03
  2.43068E+03 -5.57237E+02  2.59393E+03  1.06091E+03  1.77068E+03  2.97278E+03  1.04170E+02  3.70846E+03
 -2.51453E+03  3.42610E+03 -4.94661E+03  5.71329E+02 -4.67691E+03 -2.59705E+03 -4.60047E+02 -5.96984E+03
  3.42438E+03 -5.37147E+03  6.08439E+03 -1.40537E+03  5.74025E+03  8.09046E+02  2.70182E+03  4.23430E+03
  7.97452E+02  4.07841E+03 -2.13633E+03  4.22895E+03 -2.94131E+03  1.85530E+03 -2.16756E+03  1.46819E+02
 -1.91033E+03 -4.62939E+02 -1.43759E+03  9.16031E+02 -1.99504E+03  5.94012E+02 -4.01673E+03 -1.62097E+02
 -3.88229E+03 -2.15190E+03 -9.44393E+02 -5.10053E+03  2.79044E+03 -5.20143E+03  3.38336E+03 -2.40222E+03
  5.23700E+03  1.08446E+03  2.68541E+03  3.03930E+03 -6.34290E+02  4.66950E+03 -3.29919E+03  3.42305E+03
