 $NMID ID='MM_0lb_SNR400_15hz_g55_70.RAW', FMTDAT='(8E13.5)'
 TRAMP=1., VOLUME=1. $END
  3.10062E+05  5.26044E+02  3.37450E+05  2.50312E+05  8.48773E+04  3.37883E+05 -1.32482E+05  2.50932E+05
 -1.89438E+05  8.26090E+04 -1.12085E+05 -3.23435E+04  1.04508E+03 -4.99055E+04  5.41157E+04 -5.08203E+01
  3.52161E+04  5.30713E+04 -1.67396E+04  7.53733E+04 -6.09619E+04  6.32506E+04 -8.41585E+04  3.17212E+04
 -8.13447E+04 -1.08784E+04 -5.73925E+04 -5.12980E+04 -1.44544E+04 -6.94599E+04  2.76222E+04 -4.57451E+04
  4.03155E+04  4.15267E+03  1.59164E+04  4.79203E+04 -3.46440E+04  4.72313E+04 -6.68588E+04  6.27258E+01
 -5.35779E+04 -5.70781E+04 -7.19291E+03 -7.71282E+04  3.38098E+04 -5.55275E+04  4.78072E+04 -1.73735E+04
  4.34574E+04  1.09494E+04  3.18313E+04  2.58030E+04  1.56326E+04  2.93634E+04 -4.79847E+03  2.70025E+04
 -2.18070E+04  1.31027E+04 -1.85368E+04 -5.31860E+03  5.25268E+03 -8.02787E+03  2.21202E+04  1.22013E+04
  7.28200E+03  3.51593E+04 -3.25477E+04  3.54567E+04 -6.31382E+04  1.92509E+03 -5.71562E+04 -4.32844E+04
 -1.30101E+04 -6.37807E+04  4.00560E+04 -4.52188E+04  5.79044E+04 -1.97384E+03  3.41739E+04  3.25045E+04
 -6.77194E+03  3.57902E+04 -3.01995E+04  1.61005E+04 -3.04020E+04 -4.49012E+03 -1.68367E+04 -1.08342E+04
 -7.46388E+03 -1.38457E+04 -8.98690E+02 -1.79149E+04  7.35610E+03 -2.30600E+04  1.51941E+04 -1.33832E+04
  1.18305E+04  4.94019E+03 -7.92119E+03  1.30954E+04 -2.10088E+04 -4.53748E+03 -8.48654E+03 -3.36549E+04
  2.28233E+04 -4.37159E+04  4.80681E+04 -1.99685E+04  4.50338E+04  1.90494E+04  1.60954E+04  4.44838E+04
 -1.61535E+04  3.32102E+04 -2.59342E+04  1.84732E+03 -9.74673E+03 -2.81754E+04  2.10660E+04 -3.39047E+04
  4.10105E+04 -9.47021E+03  3.58863E+04  2.39190E+04  1.81963E+04  4.67594E+04 -7.68327E+03  5.05120E+04
 -3.13829E+04  3.41548E+04 -4.17310E+04  9.66480E+03 -4.25388E+04 -1.60715E+04 -2.35724E+04 -3.81408E+04
  7.24524E+03 -3.74034E+04  3.10905E+04 -1.46676E+04  2.95407E+04  1.08361E+04  4.16636E+03  1.96677E+04
 -1.33294E+04  8.70593E+03 -1.04583E+04 -7.39650E+03  5.97945E+03 -1.08914E+04  1.78205E+04  5.96803E+03
  1.28657E+04  2.21801E+04 -6.03216E+03  2.49852E+04 -2.27581E+04  1.16036E+04 -2.83688E+04 -4.23929E+03
 -2.03729E+04 -1.73428E+04 -9.06008E+03 -2.07088E+04  4.00646E+03 -1.99138E+04  1.54894E+04 -1.88026E+04
  2.65317E+04 -1.20864E+04  3.24374E+04  2.31686E+03  2.38517E+04  1.97471E+04  4.01035E+03  3.63935E+04
 -1.73030E+04  2.99594E+04 -2.77164E+04  1.01757E+04 -2.05579E+04 -1.04700E+04 -4.38399E+03 -1.35855E+04
  1.69176E+03 -2.57903E+03 -5.09380E+03  6.22683E+03 -1.66771E+04  5.01595E+03 -1.62004E+04 -6.99416E+03
 -1.03751E+04 -1.90281E+04  4.88173E+03 -2.31348E+04  1.44470E+04 -1.64515E+04  1.81643E+04 -1.10146E+03
  1.06486E+04  1.30469E+04 -7.15374E+02  1.89138E+04 -1.36770E+04  9.92314E+03 -1.83981E+04 -3.31834E+03
 -1.31847E+04 -1.66362E+04 -1.85244E+03 -2.28055E+04  1.04682E+04 -1.90238E+04  1.87874E+04 -8.64554E+03
  1.78606E+04  7.26252E+02  1.21989E+04  3.68756E+03  6.71914E+03  1.04008E+03  9.65830E+03 -1.55813E+03
  1.69982E+04  2.41280E+03  1.92800E+04  1.46685E+04  1.19846E+04  2.97902E+04 -3.21500E+03  3.37469E+04
 -1.94986E+04  2.65922E+04 -3.13787E+04  1.33095E+04 -3.28233E+04 -2.23928E+03 -2.73877E+04 -1.86788E+04
 -1.15128E+04 -2.67432E+04  9.33321E+03 -2.40508E+04  2.15317E+04 -1.25916E+04  1.88913E+04  5.44231E+03
  7.15740E+03  1.39934E+04 -8.63030E+03  1.24238E+04 -1.60841E+04  2.16261E+03 -1.24429E+04 -1.02081E+04
 -5.02479E+02 -1.51505E+04  8.08318E+03 -1.11985E+04  9.81192E+03 -1.48419E+03  2.28834E+03  6.30263E+03
 -6.32111E+03  2.44027E+03 -5.69872E+03 -6.23579E+03 -3.28281E+02 -1.32435E+04  9.74745E+03 -1.36267E+04
  1.64815E+04 -7.73561E+03  1.79387E+04  2.62899E+03  1.56078E+04  1.37525E+04  6.99061E+03  2.00009E+04
 -3.38289E+03  2.15649E+04 -1.40016E+04  1.36182E+04 -1.57427E+04  3.84084E+03 -1.07837E+04 -3.98470E+03
 -5.43892E+03 -4.95844E+03 -5.47464E+02  1.70616E+03 -2.93479E+03  2.76210E+03 -5.23334E+03  4.14885E+03
 -1.01867E+04 -3.42913E+02 -1.12408E+04 -9.19293E+03 -4.17795E+03 -1.42882E+04  4.82402E+03 -1.11262E+04
  9.26962E+03 -5.29173E+03  6.90448E+03  3.01762E+03  1.20271E+02  4.50306E+03 -4.92953E+03 -8.21311E+02
 -4.91021E+03 -7.26290E+03 -5.92658E+02 -1.00257E+04  5.83629E+03 -1.14438E+04  1.33216E+04 -5.83652E+03
  1.63890E+04  1.31454E+03  1.19986E+04  8.32722E+03  2.66981E+03  1.24874E+04 -7.16319E+03  1.06040E+04
 -8.64288E+03  4.13764E+03 -4.37374E+03 -2.51164E+03  1.47973E+03 -3.13535E+03  5.95669E+03 -2.25441E+03
  5.90721E+03  4.78851E+03  1.39763E+03  8.78297E+03 -6.08988E+03  7.74290E+03 -1.05440E+04  2.34110E+03
 -7.10756E+03 -5.76709E+03  6.15565E+02 -8.75469E+03  5.28843E+03 -3.95404E+03  4.95848E+03  1.55221E+03
  1.61257E+03  5.73102E+03 -5.40204E+03  6.63432E+03 -7.80604E+03  3.28176E+03 -7.68997E+03 -2.40252E+03
 -4.78867E+03 -9.65436E+03  2.44876E+03 -1.05905E+04  8.49108E+03 -6.41163E+03  9.67734E+03  1.42492E+03
  6.44940E+03  8.14102E+03 -8.73538E+02  9.80110E+03 -7.67745E+03  5.21887E+03 -7.62296E+03 -1.18414E+03
 -7.72113E+03 -6.83709E+03 -7.84664E+02 -7.38306E+03  3.85654E+03 -6.38128E+03  3.88861E+03 -3.17643E+03
  3.34267E+03  9.58272E+02 -7.23630E+02  1.52077E+03  3.64729E+02 -7.07660E+02  1.31475E+03 -3.92797E+03
  6.10921E+03 -2.14995E+03  8.85636E+03  1.04786E+03  8.52467E+03  6.08281E+03  6.61682E+03  1.16058E+04
 -3.34509E+03  1.34366E+04 -1.19116E+04  9.71168E+03 -1.48602E+04  1.86507E+03 -1.15602E+04 -4.92362E+03
 -6.25553E+03 -1.01057E+04 -3.49771E+02 -7.90317E+03  3.25739E+03 -4.33297E+03  2.73288E+03 -3.33961E+03
  2.23592E+03 -1.89436E+03  2.49185E+03 -2.62108E+03  4.44849E+03 -1.84716E+03  4.90562E+03 -2.73269E+02
  6.73286E+03  1.22639E+03  2.68204E+03  5.88139E+03 -1.52141E+03  5.60016E+03 -6.62136E+03  4.68463E+03
 -7.80028E+03 -1.06528E+03 -4.01189E+03 -5.05168E+03  1.30240E+02 -8.25645E+03  5.40424E+03 -8.62321E+03
  8.92346E+03 -4.90959E+03  1.15279E+04  9.34889E+02  7.40956E+03  7.29613E+03  1.21197E+03  9.49918E+03
 -4.05725E+03  8.67521E+03 -5.56397E+03  2.86480E+03 -3.25954E+03 -1.71915E+03 -1.06433E+03 -1.15153E+03
 -1.21028E+03  4.59687E+02 -1.28977E+03  1.94269E+03 -3.61193E+03  1.86680E+03 -5.83754E+03 -5.18289E+02
 -3.18706E+03 -5.75374E+03  1.26954E+03 -7.19886E+03  5.07853E+03 -7.07191E+03  6.72755E+03 -2.74546E+03
  7.32349E+03  3.95438E+03  3.21016E+03  6.06364E+03 -1.22644E+03  7.80127E+03 -4.71002E+03  4.85903E+03
 -6.75999E+03  1.40660E+02 -5.53200E+03 -4.35190E+03 -3.42283E+02 -6.18234E+03  3.13654E+03 -4.57623E+03
  4.85321E+03 -1.54240E+03  3.81279E+03  1.10790E+03  1.02510E+03  2.02266E+03  1.08860E+03  5.33589E+02
  1.46297E+03  1.15829E+03  2.14846E+03  1.39373E+03  1.99886E+03  2.36312E+03  1.35022E+03  2.82657E+03
 -1.50421E+03  5.30278E+03 -4.81992E+03  5.43413E+03 -6.48026E+03  1.21687E+03 -6.83511E+03 -2.59559E+03
 -3.36243E+03 -7.13199E+03  1.06389E+03 -7.72347E+03  3.93933E+03 -4.70181E+03  5.78563E+03 -1.18851E+03
  3.75620E+03  3.14021E+03  5.10280E+02  3.99162E+03 -1.73340E+03  3.44655E+03 -2.00059E+03 -1.91866E+02
 -1.84062E+03 -2.22103E+03  2.30289E+03 -2.43810E+03  2.83496E+03 -1.75273E+03  2.34685E+03  1.11234E+03
  2.06257E+03  8.70157E+02  1.30461E+03  6.72003E+02 -2.95336E+02  1.37013E+03  1.35243E+03 -2.20476E+02
  3.16058E+02 -4.52835E+02  3.25191E+03  8.48674E+02  1.43560E+03  3.73381E+03 -2.06272E+02  5.02910E+03
 -2.64886E+03  2.33686E+03 -3.76228E+03  3.52441E+02 -4.09635E+03 -1.65362E+03 -4.04878E+02 -2.36095E+03
  5.10321E+02 -2.51282E+03  2.41381E+03 -7.99505E+02  1.19926E+03  1.60202E+03 -6.58119E+02  2.01592E+03
 -2.71231E+03  1.31582E+03 -2.80312E+03 -2.14790E+03 -1.82863E+03 -3.75824E+03  3.75167E+02 -3.04965E+03
  1.78746E+03 -1.26719E+03  1.89510E+03 -2.09466E+02  2.15890E+03  1.08004E+02 -3.78343E+01  1.48685E+03
 -1.64026E+03 -4.49836E+02 -1.25490E+03 -7.92201E+02  1.13131E+03 -1.58050E+03  2.61145E+03 -2.28047E+03
  2.99497E+03 -6.55449E+01  4.72775E+03  1.38437E+03  1.50069E+03  3.27257E+03 -1.33459E+03  3.98082E+03
 -3.01491E+03  1.35369E+03 -2.50057E+03 -5.98904E+02 -1.48811E+03 -2.53499E+03  7.56077E+02 -2.26019E+03
  2.62006E+03 -1.97370E+03  2.47164E+03  7.04599E+02  6.59048E+02  1.90377E+03  1.19400E+02  1.43827E+03
 -9.88043E+02  1.46732E+03 -1.05298E+03  5.31406E+02 -3.74094E+02 -1.97431E+02 -8.77220E+02  8.59672E+02
 -1.32044E+03  1.84457E+03 -2.99439E+03  1.03122E+03 -3.30148E+03  5.13929E+02 -4.15284E+03 -2.10397E+03
 -1.64197E+03 -4.54576E+03  4.57625E+02 -5.88370E+03  2.86082E+03 -4.58555E+03  5.47376E+03 -1.53650E+03
  4.79160E+03  4.30263E+02  2.66597E+03  3.37604E+03 -2.00548E+02  2.56873E+03 -2.00877E+03  3.20413E+03
 -1.99730E+03  1.17557E+03 -1.09477E+03 -3.49090E+02 -5.38617E+02 -1.58653E+02 -5.53477E+02  3.96087E+02
 -9.91911E+02  5.57843E+02 -1.05540E+03  7.90059E+02 -1.81795E+01 -8.02979E+02  6.12224E+01 -1.09849E+03
  2.31930E+03 -1.87931E+03  1.14004E+03  4.30414E+02  2.19287E+03  2.34532E+03 -5.93780E+01  2.82997E+03
 -1.44218E+03  3.81381E+03 -3.38355E+03  2.32420E+03 -4.07563E+03 -5.84150E+01 -2.50841E+03 -2.76231E+03
 -1.68383E+03 -3.54508E+03  1.08649E+03 -2.89940E+03  1.25510E+03 -8.12153E+02  1.70312E+03  1.16117E+02
  8.30436E+02  1.06218E+03  1.19808E+02  7.32463E+02 -8.69671E+02  2.95137E+02 -3.46682E+02 -1.42082E+03
  3.42999E+02  4.92707E+02  1.32103E+03  2.21273E+02  5.85663E+02  4.46334E+02  1.13465E+02  1.14245E+03
 -1.30246E+03  1.63537E+03 -1.47816E+03 -2.77991E+02 -2.09059E+03 -1.16176E+03 -1.17288E+02 -2.48541E+03
  4.43424E+02 -1.43769E+03  1.81417E+03 -8.77381E+02  1.73002E+03 -6.00222E+02  1.27747E+03  1.72396E+03
  8.21821E+02  2.36808E+03 -4.73681E+02  1.15405E+03 -1.18270E+03  9.59678E+02 -4.32637E+02  2.98748E+02
 -7.47716E+02 -2.67452E+02 -4.83504E+02 -1.27314E+01 -1.29295E+03  3.97535E+02 -2.07023E+03 -1.47860E+02
 -1.78175E+03 -3.07395E+02 -1.42400E+02 -2.18691E+03  1.02146E+03 -2.02902E+03  1.36511E+03  1.35031E+01
  1.98204E+03  4.20444E+02  5.58530E+02  1.30769E+03 -3.50357E+02  2.09459E+03 -9.61362E+02  1.81575E+03
