 $NMID ID='MM_0lb_SNR400_15hz_g50_52.RAW', FMTDAT='(8E13.5)'
 TRAMP=1., VOLUME=1. $END
  3.10019E+05  4.65090E+02  3.37500E+05  2.50625E+05  8.43903E+04  3.37800E+05 -1.32338E+05  2.50508E+05
 -1.89823E+05  8.31200E+04 -1.11938E+05 -3.31792E+04  1.03081E+03 -5.07187E+04  5.41535E+04 -4.53799E+02
  3.54585E+04  5.25768E+04 -1.74750E+04  7.59860E+04 -6.11947E+04  6.38404E+04 -8.37274E+04  3.20569E+04
 -8.06326E+04 -1.12511E+04 -5.73766E+04 -5.12222E+04 -1.48971E+04 -6.92811E+04  2.68917E+04 -4.59891E+04
  3.94375E+04  4.29868E+03  1.56843E+04  4.72804E+04 -3.39437E+04  4.71168E+04 -6.66226E+04  5.83684E+02
 -5.28191E+04 -5.67961E+04 -6.94206E+03 -7.66020E+04  3.40755E+04 -5.41651E+04  4.74702E+04 -1.70620E+04
  4.28992E+04  1.09631E+04  3.17822E+04  2.54010E+04  1.59130E+04  2.91989E+04 -5.05544E+03  2.69343E+04
 -2.16763E+04  1.26060E+04 -1.85203E+04 -4.14427E+03  5.57672E+03 -7.58281E+03  2.19249E+04  1.22006E+04
  7.35500E+03  3.47369E+04 -3.20144E+04  3.58316E+04 -6.32149E+04  2.00450E+03 -5.69605E+04 -4.27755E+04
 -1.27235E+04 -6.29849E+04  3.91940E+04 -4.50279E+04  5.75065E+04 -2.46452E+03  3.37454E+04  3.23885E+04
 -6.02721E+03  3.53462E+04 -2.95454E+04  1.50770E+04 -2.98815E+04 -4.28282E+03 -1.67035E+04 -1.04588E+04
 -7.93551E+03 -1.25730E+04 -5.10412E+02 -1.80824E+04  6.95918E+03 -2.26378E+04  1.54146E+04 -1.36995E+04
  1.19782E+04  5.17261E+03 -7.62727E+03  1.28101E+04 -2.05093E+04 -4.80693E+03 -7.96723E+03 -3.34306E+04
  2.19988E+04 -4.28550E+04  4.77699E+04 -1.95466E+04  4.41942E+04  1.90369E+04  1.53397E+04  4.33593E+04
 -1.63348E+04  3.34962E+04 -2.48678E+04  1.58479E+03 -9.92873E+03 -2.77104E+04  2.06394E+04 -3.35624E+04
  4.05442E+04 -8.02079E+03  3.52971E+04  2.40060E+04  1.79583E+04  4.54627E+04 -8.14847E+03  4.94971E+04
 -3.12244E+04  3.33327E+04 -4.15828E+04  9.24547E+03 -4.19094E+04 -1.59954E+04 -2.33852E+04 -3.73832E+04
  7.05184E+03 -3.74130E+04  3.10696E+04 -1.42035E+04  2.84683E+04  1.11115E+04  4.36346E+03  1.88136E+04
 -1.38193E+04  8.07449E+03 -1.03473E+04 -7.46758E+03  5.40468E+03 -1.03301E+04  1.86873E+04  5.82174E+03
  1.39604E+04  2.19775E+04 -6.11504E+03  2.46975E+04 -2.24916E+04  1.15444E+04 -2.71136E+04 -5.16707E+03
 -2.00215E+04 -1.76024E+04 -8.07516E+03 -1.99116E+04  4.23975E+03 -1.88721E+04  1.52562E+04 -1.75608E+04
  2.54118E+04 -1.21901E+04  3.18463E+04  2.21525E+03  2.33637E+04  2.01309E+04  3.81342E+03  3.61194E+04
 -1.73185E+04  3.04540E+04 -2.74549E+04  1.03071E+04 -2.08374E+04 -1.10950E+04 -3.93723E+03 -1.35905E+04
  2.21705E+03 -2.89540E+03 -4.71300E+03  7.13811E+03 -1.51907E+04  5.21682E+03 -1.55425E+04 -6.49438E+03
 -9.26687E+03 -1.87837E+04  5.20762E+03 -2.27863E+04  1.38873E+04 -1.61201E+04  1.68746E+04 -1.59475E+03
  1.07088E+04  1.25334E+04 -1.16428E+03  1.85235E+04 -1.26536E+04  1.03543E+04 -1.86115E+04 -4.08404E+03
 -1.35003E+04 -1.63435E+04 -1.44491E+03 -2.23637E+04  1.00155E+04 -1.78962E+04  1.88677E+04 -9.04338E+03
  1.67942E+04 -6.62852E+02  1.26077E+04  3.92211E+03  6.78452E+03  3.64922E+02  8.84986E+03 -1.78598E+03
  1.70876E+04  2.77019E+03  1.85290E+04  1.45754E+04  1.24022E+04  2.88831E+04 -2.89502E+03  3.29732E+04
 -1.91030E+04  2.58781E+04 -3.02452E+04  1.27681E+04 -3.14228E+04 -2.70824E+03 -2.63743E+04 -1.82629E+04
 -1.16589E+04 -2.60874E+04  9.46588E+03 -2.40473E+04  2.04306E+04 -1.25329E+04  1.87164E+04  5.06821E+03
  6.88516E+03  1.34151E+04 -8.65601E+03  1.19365E+04 -1.53955E+04  3.10612E+03 -1.17519E+04 -9.83099E+03
 -1.92842E+02 -1.46690E+04  7.32384E+03 -1.09728E+04  1.01496E+04 -1.50773E+03  2.52195E+03  6.26243E+03
 -6.82647E+03  2.87600E+03 -5.67836E+03 -5.82443E+03 -2.08799E+02 -1.36211E+04  9.18970E+03 -1.34879E+04
  1.61857E+04 -6.22137E+03  1.68583E+04  3.52439E+03  1.45528E+04  1.21487E+04  6.62223E+03  1.91807E+04
 -3.06595E+03  2.12471E+04 -1.31964E+04  1.28840E+04 -1.55251E+04  2.99679E+03 -1.05774E+04 -3.04555E+03
 -5.38198E+03 -4.38932E+03 -3.34294E+02  1.15616E+03 -1.91250E+03  2.09092E+03 -4.80756E+03  3.80488E+03
 -9.93592E+03 -1.24992E+03 -1.05749E+04 -8.61499E+03 -4.27678E+03 -1.39608E+04  4.20822E+03 -1.05627E+04
  8.67787E+03 -4.47632E+03  6.10971E+03  2.43117E+03  2.13481E+02  3.98857E+03 -4.45891E+03 -5.61852E+02
 -5.01066E+03 -6.94639E+03 -1.09238E+03 -9.87237E+03  5.58421E+03 -1.05293E+04  1.32657E+04 -5.48188E+03
  1.56041E+04  2.30572E+03  1.10713E+04  7.99013E+03  2.76885E+03  1.20307E+04 -6.54656E+03  1.06603E+04
 -8.70791E+03  3.60441E+03 -5.01082E+03 -2.75998E+03  1.52863E+03 -2.40322E+03  5.16410E+03 -1.28768E+03
  4.92140E+03  4.23628E+03  1.19185E+03  8.88278E+03 -6.07677E+03  7.93523E+03 -1.02890E+04  1.90972E+03
 -6.47803E+03 -4.71342E+03  1.97930E+02 -9.15774E+03  4.73088E+03 -4.45257E+03  5.47591E+03  1.70239E+03
  9.83272E+02  5.83601E+03 -5.48698E+03  7.06952E+03 -7.86548E+03  3.18385E+03 -6.97500E+03 -2.16300E+03
 -4.71392E+03 -8.94322E+03  2.12600E+03 -1.03741E+04  8.65652E+03 -6.44750E+03  9.49506E+03  1.84743E+03
  6.14453E+03  7.37207E+03 -2.30580E+02  9.71240E+03 -7.09998E+03  6.13893E+03 -7.41626E+03 -5.11287E+02
 -7.27938E+03 -6.60829E+03 -1.36195E+03 -7.23001E+03  3.69323E+03 -6.54279E+03  4.33471E+03 -2.65535E+03
  3.87881E+03  9.26210E+02 -1.36643E+02  1.52661E+03  4.02747E+02 -1.39055E+03  9.95656E+02 -3.68994E+03
  5.65905E+03 -2.18179E+03  8.50373E+03  1.13070E+03  8.27181E+03  5.01050E+03  7.05166E+03  1.09766E+04
 -2.46454E+03  1.27412E+04 -1.08643E+04  9.70460E+03 -1.49963E+04  1.71751E+03 -1.14010E+04 -4.89832E+03
 -5.43171E+03 -9.49105E+03 -1.10707E+03 -7.71758E+03  3.44578E+03 -3.72377E+03  2.56228E+03 -3.31203E+03
  1.87172E+03 -2.22381E+03  2.21822E+03 -2.33187E+03  4.30184E+03 -1.44896E+03  5.07477E+03 -2.09016E+02
  6.03976E+03  1.12782E+03  1.49353E+03  4.74167E+03 -1.47116E+03  5.69391E+03 -6.03806E+03  4.14118E+03
 -7.43757E+03 -6.87342E+02 -4.61203E+03 -4.85616E+03 -4.94553E+02 -7.84790E+03  4.78750E+03 -8.24414E+03
  8.72842E+03 -4.79046E+03  1.07769E+04  1.72292E+03  6.97528E+03  7.00175E+03  1.53951E+03  9.08746E+03
 -3.69189E+03  8.26778E+03 -5.04914E+03  2.89259E+03 -3.23401E+03 -1.21446E+03 -7.60989E+02 -1.33664E+03
 -5.65329E+02  2.89595E+02 -1.27725E+03  2.10157E+03 -3.21734E+03  1.26716E+03 -5.51873E+03 -6.13899E+02
 -3.55800E+03 -5.38228E+03  3.33095E+02 -7.25004E+03  4.48672E+03 -6.30716E+03  6.13923E+03 -1.81706E+03
  6.51004E+03  3.47333E+03  3.33521E+03  5.66950E+03 -6.31636E+02  7.26347E+03 -5.07298E+03  4.45229E+03
 -6.39479E+03  7.97488E+02 -4.74357E+03 -3.82156E+03 -6.90014E+02 -5.54214E+03  3.02342E+03 -3.77920E+03
  4.18935E+03 -1.31267E+03  3.11196E+03  9.09057E+02  8.06881E+02  2.20009E+03  1.20140E+03  1.37952E+03
  2.07592E+03  7.70721E+02  2.00462E+03  8.74708E+02  1.72920E+03  3.28317E+03  2.61685E+03  3.27627E+03
 -1.96860E+03  5.20571E+03 -4.62616E+03  5.94297E+03 -5.84334E+03  1.54585E+03 -7.07463E+03 -1.88870E+03
 -3.05698E+03 -6.15072E+03  7.00570E+02 -7.55764E+03  3.55585E+03 -5.17016E+03  5.41183E+03 -1.15077E+03
  3.82920E+03  3.00947E+03  4.07005E+02  3.10975E+03 -2.05777E+03  2.11686E+03 -1.94860E+03 -1.16419E+02
 -8.14232E+02 -2.49975E+03  1.47183E+03 -2.21948E+03  2.74485E+03 -2.10755E+03  2.50008E+03  9.80206E+02
  1.46958E+03  9.31436E+02  7.16157E+02 -3.36849E+02 -1.03856E+03  9.92106E+02  1.63329E+03 -4.05849E+02
  8.03991E+02  8.19351E+01  2.50798E+03  1.03274E+03  1.25701E+03  3.84122E+03  1.78436E+02  4.39580E+03
 -3.08935E+03  2.51048E+03 -3.78204E+03  5.38473E+02 -3.39597E+03 -1.01774E+03 -8.56456E+02 -1.88943E+03
  9.46586E+02 -2.36737E+03  1.28113E+03 -7.95935E+02  1.89670E+03  1.59405E+03 -1.32873E+03  1.82163E+03
 -1.84115E+03  1.41021E+03 -2.57618E+03 -1.96273E+03 -8.00317E+02 -4.12274E+03  3.42832E+02 -2.63973E+03
  1.86240E+03 -1.10660E+03  1.75776E+03 -5.16872E+00  2.23794E+03 -5.88510E+01  6.03005E+02  1.59063E+03
 -7.18886E+02  2.26523E+02 -2.13980E+03 -7.88409E+02  2.53597E+01 -1.87809E+03  3.48547E+03 -1.98549E+03
  3.90947E+03  2.23284E+02  4.15786E+03  2.31383E+03  1.84499E+03  3.29585E+03 -1.15168E+03  2.82459E+03
 -2.95987E+03  1.04104E+03 -2.31923E+03 -6.47675E+02 -1.97689E+03 -2.99646E+03  6.17539E+02 -1.39146E+03
  2.85746E+03 -1.45572E+03  1.45398E+03  7.82889E+02  5.77552E+02  2.10175E+03  2.47799E+02  1.79435E+03
 -1.07835E+03  2.21343E+03 -1.10504E+03  2.39780E+02 -1.20553E+02  5.68661E+02 -1.30428E+03  1.07540E+03
 -1.20891E+03  1.40713E+03 -2.45505E+03  8.69220E+02 -3.48052E+03  5.12006E+02 -4.54138E+03 -2.40263E+03
 -2.01681E+03 -4.79207E+03  6.46676E+02 -5.71214E+03  2.56183E+03 -4.23630E+03  5.82701E+03 -1.93199E+03
  5.15686E+03  4.70080E+02  2.65641E+03  2.86042E+03  2.01111E+02  3.08039E+03 -1.75401E+03  2.52994E+03
 -1.66824E+03  1.03164E+03 -1.34253E+03 -8.99725E+01 -1.02406E+03 -8.28089E+01 -1.05035E+03 -5.32056E+02
 -1.00106E+03 -1.42486E+02 -1.02431E+03 -4.14391E+02 -2.93832E+02 -6.68985E+02 -5.12071E+02 -1.68337E+03
  1.69828E+03 -1.17168E+03  1.48328E+03  1.11179E+02  2.05299E+03  1.79458E+03  1.68728E+02  2.93158E+03
 -1.04892E+03  4.31914E+03 -3.81440E+03  1.84141E+03 -4.16165E+03 -3.44240E+02 -2.72581E+03 -2.53323E+03
 -1.35678E+03 -2.48109E+03  4.15969E+02 -2.86246E+03  1.93239E+03 -1.48573E+03  2.02153E+03  4.39537E+02
  1.24094E+03  5.85539E+02 -4.08334E+02  1.03385E+03 -5.72913E+02  3.91478E+01 -6.08629E+01 -8.80901E+02
  5.18402E+02 -5.10436E+02  7.66855E+02  2.98986E+02  6.28937E+02  1.07821E+03  4.46090E+02  1.40469E+03
 -1.55060E+03  1.38772E+03 -1.57202E+03  9.74486E+01 -1.58243E+03 -1.29879E+03 -6.25494E+02 -1.81732E+03
  1.89297E+03 -2.24483E+03  1.59995E+03 -1.94523E+02  2.00704E+03 -3.58687E+01  1.16555E+03  1.68868E+03
  8.74868E+01  1.19791E+03 -3.84356E+02  7.92698E+02 -8.26054E+02  1.19745E+03 -7.31394E+02  3.41400E+02
 -2.00223E+02 -4.47950E+01 -5.85153E+02  5.25549E+02 -9.01209E+02  8.77911E+02 -1.36609E+03  7.87955E+00
 -1.26234E+03 -3.68965E+02 -4.69186E+02 -2.03113E+03  8.72175E+02 -2.83227E+03  2.74244E+03 -2.27279E+02
  2.34111E+03  1.04837E+02  4.08789E+02  1.21010E+03 -4.62626E+02  1.88334E+03 -1.11308E+03  1.68216E+03
