 $NMID ID='MM_0lb_SNR400_20hz_g55_86.RAW', FMTDAT='(8E13.5)'
 TRAMP=1., VOLUME=1. $END
  3.09678E+05  2.04528E+01  3.37523E+05  2.49830E+05  8.41509E+04  3.37348E+05 -1.32265E+05  2.50150E+05
 -1.89187E+05  8.25560E+04 -1.11011E+05 -3.24438E+04  1.72156E+03 -4.99937E+04  5.37088E+04  8.59670E+02
  3.46913E+04  5.30310E+04 -1.74112E+04  7.47087E+04 -6.06565E+04  6.29956E+04 -8.31900E+04  3.17244E+04
 -7.97880E+04 -1.10274E+04 -5.66284E+04 -5.01562E+04 -1.49015E+04 -6.82243E+04  2.68487E+04 -4.45261E+04
  3.93049E+04  3.84748E+03  1.55981E+04  4.74763E+04 -3.41996E+04  4.65115E+04 -6.53795E+04 -4.41237E+02
 -5.21538E+04 -5.58192E+04 -5.98107E+03 -7.49449E+04  3.35721E+04 -5.36292E+04  4.68035E+04 -1.62586E+04
  4.16711E+04  1.11848E+04  3.06602E+04  2.45372E+04  1.58873E+04  2.82743E+04 -4.36563E+03  2.69460E+04
 -2.19014E+04  1.27004E+04 -1.89407E+04 -4.38676E+03  4.64644E+03 -8.11024E+03  2.16790E+04  1.17493E+04
  7.39116E+03  3.33946E+04 -3.03873E+04  3.42928E+04 -6.10892E+04  2.42247E+03 -5.53793E+04 -4.18271E+04
 -1.24290E+04 -6.13900E+04  3.81711E+04 -4.36739E+04  5.51548E+04 -2.04159E+03  3.23801E+04  3.08673E+04
 -5.93765E+03  3.31498E+04 -2.82298E+04  1.39428E+04 -2.74462E+04 -4.80664E+03 -1.45039E+04 -1.02698E+04
 -7.29169E+03 -1.12584E+04 -1.15112E+03 -1.67766E+04  6.19976E+03 -2.23442E+04  1.46904E+04 -1.38334E+04
  1.20591E+04  4.70076E+03 -6.52640E+03  1.30127E+04 -1.94774E+04 -2.16322E+03 -8.52680E+03 -3.05969E+04
  2.08450E+04 -4.00955E+04  4.47734E+04 -1.84996E+04  4.20496E+04  1.85310E+04  1.45164E+04  4.13982E+04
 -1.52160E+04  3.13630E+04 -2.34893E+04  1.29510E+03 -8.15443E+03 -2.61088E+04  2.06896E+04 -3.13106E+04
  3.79001E+04 -7.03737E+03  3.15865E+04  2.30819E+04  1.54621E+04  4.23717E+04 -7.65475E+03  4.50801E+04
 -2.83535E+04  2.97678E+04 -3.69969E+04  8.91227E+03 -3.84050E+04 -1.50236E+04 -2.17459E+04 -3.44721E+04
  7.09328E+03 -3.41703E+04  2.90069E+04 -1.24635E+04  2.71983E+04  1.06092E+04  2.85591E+03  1.75905E+04
 -1.33241E+04  7.04134E+03 -9.24274E+03 -8.05746E+03  5.98281E+03 -1.00440E+04  1.72867E+04  6.58295E+03
  1.24305E+04  2.15584E+04 -6.63517E+03  2.35520E+04 -2.12613E+04  8.91603E+03 -2.52072E+04 -6.88779E+03
 -1.63145E+04 -1.57812E+04 -5.84517E+03 -1.64544E+04  3.92100E+03 -1.50289E+04  1.24358E+04 -1.44197E+04
  2.14185E+04 -1.16066E+04  2.77691E+04  1.09455E+03  2.16460E+04  1.62048E+04  3.79617E+03  3.26078E+04
 -1.60444E+04  2.76304E+04 -2.59693E+04  9.22314E+03 -1.94452E+04 -1.03857E+04 -3.55013E+03 -1.39550E+04
  2.94351E+03 -4.20979E+03 -2.02456E+03  5.01823E+03 -1.30174E+04  5.13486E+03 -1.35217E+04 -4.88655E+03
 -8.32688E+03 -1.47810E+04  4.66133E+03 -1.87389E+04  1.21039E+04 -1.36957E+04  1.44126E+04 -1.43931E+03
  8.78225E+03  1.08114E+04 -1.02955E+03  1.55856E+04 -1.01119E+04  8.04646E+03 -1.53371E+04 -3.75082E+03
 -1.18452E+04 -1.40381E+04 -1.43295E+03 -1.83916E+04  8.91413E+03 -1.55514E+04  1.57172E+04 -7.48353E+03
  1.44738E+04  5.48041E+02  9.99828E+03  4.06852E+03  4.91200E+03  7.47825E+02  7.04030E+03 -1.37122E+03
  1.36479E+04  2.39995E+03  1.45452E+04  1.24841E+04  8.44950E+03  2.36652E+04 -3.32640E+03  2.61883E+04
 -1.50502E+04  1.94803E+04 -2.36688E+04  9.27664E+03 -2.39894E+04 -1.61137E+03 -2.03233E+04 -1.39304E+04
 -9.93657E+03 -1.93100E+04  6.33406E+03 -1.87541E+04  1.61327E+04 -1.09383E+04  1.49666E+04  3.19117E+03
  6.52952E+03  1.08144E+04 -6.81683E+03  9.99970E+03 -1.28084E+04  2.99236E+03 -9.64738E+03 -7.71713E+03
  1.50592E+02 -1.21609E+04  5.79925E+03 -9.19094E+03  7.88286E+03 -1.39827E+03  1.45718E+03  5.24252E+03
 -5.55435E+03  1.05051E+03 -3.45092E+03 -4.62652E+03  8.71795E+02 -1.00462E+04  7.15359E+03 -9.66579E+03
  1.17250E+04 -4.22604E+03  1.12936E+04  3.16246E+03  9.24981E+03  8.16223E+03  5.00366E+03  1.35622E+04
 -1.48402E+03  1.47719E+04 -9.15382E+03  9.48265E+03 -1.11025E+04  2.84588E+03 -8.36533E+03 -1.74592E+03
 -3.28170E+03 -2.92915E+03 -8.91985E+02  1.75557E+03 -1.66325E+03  1.60648E+03 -3.06286E+03  3.68674E+03
 -7.54427E+03 -6.59189E+02 -8.78498E+03 -7.47474E+03 -3.21062E+03 -1.12159E+04  3.27639E+03 -7.91401E+03
  6.42727E+03 -4.05957E+03  5.33945E+03  2.37049E+03  6.34120E+02  2.78759E+03 -3.44767E+03 -2.66683E+02
 -2.60641E+03 -4.78472E+03 -6.87488E+02 -7.29068E+03  3.60064E+03 -7.74628E+03  9.09429E+03 -3.85950E+03
  1.12679E+04  4.35223E+02  8.75690E+03  5.67550E+03  1.55561E+03  7.81293E+03 -4.18301E+03  7.91147E+03
 -6.29846E+03  2.59912E+03 -3.51674E+03 -8.54131E+02  1.50868E+03 -1.96842E+03  4.04304E+03 -8.90929E+02
  3.40337E+03  3.59530E+03  1.02746E+03  5.87902E+03 -4.07655E+03  5.87308E+03 -7.33919E+03  1.66892E+03
 -4.43768E+03 -3.79012E+03  5.04404E+02 -6.27410E+03  3.38545E+03 -3.18799E+03  2.96274E+03  7.64438E+02
  5.87165E+02  2.89506E+03 -3.88711E+03  4.56536E+03 -4.53208E+03  2.61042E+03 -3.51741E+03 -7.80999E+02
 -2.41575E+03 -5.57789E+03  8.79082E+02 -6.23268E+03  5.47009E+03 -4.10159E+03  6.37433E+03  1.02365E+03
  4.20386E+03  4.73488E+03  1.01956E+02  6.75941E+03 -5.22712E+03  3.69342E+03 -4.64176E+03 -6.12850E+02
 -5.69709E+03 -4.52976E+03 -1.75437E+03 -4.37967E+03  2.19257E+03 -4.59383E+03  2.51344E+03 -3.15196E+03
  2.90366E+03 -3.96515E+01  3.56818E+02  1.30801E+03  4.50345E+02 -3.44894E+02 -2.74812E+01 -1.57709E+03
  3.42686E+03 -5.00947E+02  4.31605E+03  7.17466E+02  4.94015E+03  2.50272E+03  4.89318E+03  5.92538E+03
 -5.04700E+02  6.49406E+03 -6.64876E+03  6.00758E+03 -9.17694E+03  9.22090E+02 -6.74665E+03 -1.84715E+03
 -3.65936E+03 -5.89931E+03 -1.95302E+02 -4.92241E+03  1.87921E+03 -1.68719E+03  1.17244E+03 -1.83598E+03
  1.36019E+03 -1.64212E+03  1.77124E+03 -2.16836E+03  3.19995E+03 -1.08592E+03  3.63621E+03  7.05586E+02
  3.15091E+03  6.17406E+02  5.24058E+02  2.79099E+03 -1.45097E+03  1.87703E+03 -3.61167E+03  2.13349E+03
 -3.51392E+03 -1.24484E+03 -1.06372E+03 -2.53110E+03  3.07144E+02 -4.11144E+03  3.32491E+03 -4.27522E+03
  4.16939E+03 -2.92651E+03  6.13163E+03 -1.65555E+02  3.80514E+03  4.18749E+03  6.56173E+02  5.55201E+03
 -1.82255E+03  5.65845E+03 -2.55180E+03  1.87134E+03 -1.61207E+03 -1.05463E+03 -4.39560E+02 -3.44069E+02
 -3.61318E+02  5.14880E+02 -5.96110E+02  1.81724E+03 -2.04123E+03  1.13884E+03 -3.78140E+03 -9.25402E+01
 -1.49428E+03 -3.79499E+03  1.05618E+03 -3.96125E+03  2.65430E+03 -3.93089E+03  2.85081E+03 -8.33565E+02
  3.10796E+03  1.63143E+03  1.42198E+03  2.72648E+03 -6.49580E+02  3.79590E+03 -1.54761E+03  2.24481E+03
 -2.82001E+03  9.24848E+02 -2.83761E+03 -2.03241E+03 -7.68382E+01 -2.48547E+03  1.50122E+03 -1.70376E+03
  1.86691E+03 -1.29223E+03  1.76701E+03 -1.90452E+02  5.30196E+02  1.46766E+03  4.58285E+02 -6.32729E+01
  1.46743E+03  7.06609E+02  1.00537E+03  9.10887E+02  1.09224E+03  2.12444E+03  1.35253E+03  1.11111E+03
 -9.85693E+02  2.17477E+03 -1.15401E+03  3.73577E+03 -2.12324E+03  8.91569E+02 -3.71806E+03 -4.94957E+02
 -9.19244E+02 -3.70121E+03  1.71456E+02 -3.83330E+03  1.67107E+03 -2.12222E+03  2.10437E+03 -6.69744E+02
  1.74356E+03  1.35543E+03 -1.05788E+02  1.44582E+03 -6.04949E+02  5.98068E+02 -6.47246E+02  4.99018E+01
 -5.69302E+02 -8.85481E+02  6.28668E+02 -1.01983E+03  6.79543E+02 -6.57741E+02  1.16471E+03  1.44464E+02
  4.87590E+02  3.91590E+02  8.61200E+02 -4.08538E+02 -1.47630E+01  4.11516E+02  1.19621E+03 -1.05310E+01
 -3.53464E+02 -2.71148E+02  1.34249E+03  8.28718E+02 -3.90342E+02  1.64907E+03 -8.80777E+02  2.59363E+03
 -1.34238E+03  4.93365E+02 -1.73046E+03  5.62243E+02 -1.71454E+03 -5.41600E+02 -1.25667E+02 -9.51323E+02
  4.43221E+02 -7.54375E+02  7.74097E+02 -4.04414E+02  6.58486E+02  1.00800E+03 -7.45029E+02  7.26877E+02
 -1.04922E+03  4.13757E+02 -5.71443E+02 -9.28379E+02 -1.13992E+02 -1.85466E+03  2.30754E+02 -1.87030E+03
  5.26062E+02 -3.83220E+02  3.10798E+02  5.53009E+02  1.34774E+03 -4.17536E+02  2.08310E+02  9.62109E+02
 -6.14716E+02 -1.48845E+02 -6.70318E+02  5.01694E+02  7.61476E+02 -8.20696E+02  9.24818E+02 -1.08167E+03
  7.02332E+02 -2.08130E+02  2.78417E+03  2.59785E+02  8.50397E+02  1.18193E+03 -4.43550E+02  1.53915E+03
 -9.88212E+02 -5.48390E+02 -1.03952E+03  3.33053E+02 -8.08635E+02 -1.00974E+03  2.81839E+02  4.38248E+02
  7.36717E+02  2.35255E+01 -8.40576E+01  5.82001E+02 -4.09808E+02  7.43762E+02  9.26607E+01  8.85570E+02
 -2.39119E+02  7.17581E+02 -1.02782E+02 -9.19098E+01  9.48349E+01  3.41995E+02 -7.39771E+02  6.57509E+02
 -7.33454E+01  1.13959E+03 -1.89369E+03  4.39448E+02 -1.09959E+03  1.74726E+02 -1.85793E+03 -2.85850E+02
 -7.36944E+02 -1.57567E+03  5.53750E+02 -1.93734E+03  4.39122E+02 -1.65434E+03  2.36421E+03 -9.65717E+02
  1.89826E+03 -4.55755E+02  8.99485E+02  1.22550E+03 -9.37786E+02  1.43547E+03 -8.64683E+02  1.10123E+03
 -6.63776E+02  5.75351E+02 -3.12570E+02 -1.28091E+02 -1.22627E+02  4.40362E+02 -2.84508E+02 -1.95472E+02
 -9.45340E+02  1.96412E+02 -1.78432E+02  3.81139E+02 -1.44587E+02 -7.74942E+02 -7.45074E+02 -4.52299E+02
  7.83267E+02  1.38997E+02  3.76075E+02  3.97830E+02  5.14788E+02  3.67358E+02 -6.16574E+02  8.42058E+02
 -6.81977E+02  1.89826E+03 -8.07984E+02  6.59308E+02 -8.83943E+02 -9.99730E+01 -1.07073E+03 -1.38429E+03
 -6.99301E+02 -7.89814E+02  9.48024E+01 -1.07840E+03  3.09599E+02 -8.31059E+02  1.00958E+00  2.65923E+01
 -9.83844E+01  3.56692E+02  3.48989E+02  6.15810E+02 -6.87883E+01 -4.83111E+02 -3.73006E+02  2.83512E+02
  3.46519E+02  1.73668E+02 -8.52439E+01  5.01823E+02 -2.22183E+02  1.12746E+02 -2.06377E+02 -2.52090E+02
 -8.06587E+02  1.57886E+02 -2.25565E+02  1.30984E+02 -7.69888E+02  1.17703E+02  4.40573E+02 -5.56545E+02
  2.35749E+02 -5.19525E+02  3.11970E+02  1.27671E+02  3.73970E+02 -9.69221E+02  2.68803E+02  7.24725E+02
  6.39715E+02  4.64229E+02  1.74180E+02  7.44919E+01  5.89146E+02  1.17009E+03  6.59568E+01  3.87623E+02
 -2.09210E+02  9.18062E+01 -7.25319E+02 -8.09687E+00 -5.20305E+02  3.25334E+01 -2.09283E+02 -5.95863E+02
 -8.23280E+02  5.02705E+02  1.55995E+02 -3.32145E+02  9.93194E+01 -1.49878E+03  7.29505E+02 -3.02738E+01
  9.61203E+02 -2.87788E+02 -9.55713E+02 -1.51649E+02  4.94297E+01  7.55524E+02 -8.98236E+01  2.97519E+02
