 $NMID ID='MM_0lb_SNR400_11hz_g60_15.RAW', FMTDAT='(8E13.5)'
 TRAMP=1., VOLUME=1. $END
  3.09739E+05  2.66513E+02  3.37120E+05  2.51060E+05  8.49547E+04  3.38397E+05 -1.31909E+05  2.51498E+05
 -1.90951E+05  8.36385E+04 -1.12863E+05 -3.22059E+04  2.79147E+02 -5.06963E+04  5.43880E+04 -3.90952E+02
  3.56411E+04  5.25709E+04 -1.68029E+04  7.60751E+04 -6.19082E+04  6.48226E+04 -8.52333E+04  3.22914E+04
 -8.23424E+04 -1.19500E+04 -5.83082E+04 -5.26488E+04 -1.53558E+04 -7.07738E+04  2.78520E+04 -4.61366E+04
  4.05644E+04  3.31403E+03  1.63049E+04  4.92927E+04 -3.41307E+04  4.82895E+04 -6.78216E+04 -3.46860E+01
 -5.43366E+04 -5.79747E+04 -7.44370E+03 -7.82979E+04  3.48667E+04 -5.71115E+04  4.93475E+04 -1.82536E+04
  4.46572E+04  1.11580E+04  3.23254E+04  2.65299E+04  1.57163E+04  2.99220E+04 -6.06069E+03  2.82766E+04
 -2.19669E+04  1.21982E+04 -1.79631E+04 -5.69602E+03  6.79018E+03 -7.57457E+03  2.32960E+04  1.30826E+04
  7.59560E+03  3.68457E+04 -3.30335E+04  3.72477E+04 -6.56390E+04  1.70123E+03 -5.82327E+04 -4.41134E+04
 -1.23553E+04 -6.60087E+04  4.10998E+04 -4.72178E+04  6.04694E+04 -2.85672E+03  3.67484E+04  3.44816E+04
 -5.58082E+03  3.93139E+04 -3.12812E+04  1.86401E+04 -3.35457E+04 -3.53747E+03 -1.89853E+04 -1.10249E+04
 -9.85253E+03 -1.51372E+04 -8.40763E+02 -1.83375E+04  8.50467E+03 -2.43170E+04  1.61149E+04 -1.28260E+04
  1.08892E+04  6.86575E+03 -1.05735E+04  1.33006E+04 -2.30260E+04 -6.42765E+03 -9.08404E+03 -3.69103E+04
  2.50107E+04 -4.65176E+04  5.18760E+04 -2.10732E+04  4.81113E+04  2.09078E+04  1.69211E+04  4.66396E+04
 -1.69327E+04  3.59027E+04 -2.71454E+04  2.58098E+03 -1.12558E+04 -2.89309E+04  2.05534E+04 -3.69797E+04
  4.42463E+04 -1.08266E+04  3.98038E+04  2.50993E+04  2.07423E+04  5.03601E+04 -7.56834E+03  5.52177E+04
 -3.46560E+04  3.84394E+04 -4.72010E+04  1.08823E+04 -4.68954E+04 -1.76930E+04 -2.54081E+04 -4.15772E+04
  7.62296E+03 -4.15789E+04  3.35207E+04 -1.72528E+04  3.14353E+04  1.15200E+04  4.84648E+03  2.05649E+04
 -1.33058E+04  9.78555E+03 -1.10124E+04 -8.10608E+03  6.02526E+03 -1.15091E+04  1.88027E+04  5.32044E+03
  1.37410E+04  2.29658E+04 -5.47171E+03  2.63983E+04 -2.33421E+04  1.47487E+04 -3.09697E+04 -2.87321E+03
 -2.43508E+04 -1.77176E+04 -1.07866E+04 -2.46451E+04  4.01490E+03 -2.47042E+04  1.88221E+04 -2.14986E+04
  3.11854E+04 -1.44902E+04  3.69174E+04  4.46103E+03  2.69329E+04  2.36735E+04  4.30452E+03  4.06720E+04
 -2.02118E+04  3.30959E+04 -3.07777E+04  1.20166E+04 -2.21502E+04 -1.02258E+04 -4.73696E+03 -1.26326E+04
  1.17697E+03 -1.80839E+03 -7.26720E+03  7.82494E+03 -1.96920E+04  4.82274E+03 -1.88686E+04 -9.45988E+03
 -1.25616E+04 -2.22156E+04  5.97761E+03 -2.70356E+04  1.81920E+04 -1.92111E+04  2.13680E+04 -2.16412E+03
  1.42724E+04  1.58991E+04 -1.35573E+03  2.23681E+04 -1.56393E+04  1.32646E+04 -2.30930E+04 -4.02997E+03
 -1.63365E+04 -2.05005E+04 -1.88457E+03 -2.64612E+04  1.20495E+04 -2.25932E+04  2.28481E+04 -1.13679E+04
  2.12959E+04 -4.86144E+02  1.55786E+04  5.39205E+03  7.59490E+03  8.96874E+02  1.14639E+04 -2.64190E+03
  2.13102E+04  3.29293E+03  2.39551E+04  1.76245E+04  1.74701E+04  3.61363E+04 -3.25969E+03  4.24626E+04
 -2.45570E+04  3.55379E+04 -3.99589E+04  1.78387E+04 -4.26435E+04 -3.06717E+03 -3.48746E+04 -2.46981E+04
 -1.39539E+04 -3.50242E+04  1.25725E+04 -3.12938E+04  2.66846E+04 -1.49683E+04  2.36701E+04  6.99981E+03
  8.06322E+03  1.75930E+04 -1.10099E+04  1.49422E+04 -1.98903E+04  2.75232E+03 -1.44179E+04 -1.16568E+04
  1.91564E+00 -1.80669E+04  1.04827E+04 -1.32541E+04  1.30045E+04 -1.61667E+03  3.19985E+03  8.85864E+03
 -8.59355E+03  3.54046E+03 -8.13244E+03 -6.78964E+03 -8.45621E+02 -1.71945E+04  1.13607E+04 -1.84153E+04
  2.11440E+04 -1.03374E+04  2.47672E+04  3.27587E+03  2.09648E+04  1.72962E+04  9.79002E+03  2.76714E+04
 -5.88653E+03  2.86880E+04 -1.91798E+04  1.84714E+04 -2.16187E+04  4.37604E+03 -1.47807E+04 -5.80735E+03
 -5.87809E+03 -7.31588E+03 -9.03139E+02  4.55649E+02 -2.60882E+03  2.98660E+03 -6.97197E+03  4.58659E+03
 -1.33717E+04 -1.85195E+03 -1.41064E+04 -1.09929E+04 -6.03771E+03 -1.88312E+04  6.07663E+03 -1.47923E+04
  1.17167E+04 -6.91187E+03  9.32368E+03  4.00991E+03  2.81932E+02  6.32088E+03 -7.61219E+03 -2.01185E+02
 -7.08340E+03 -9.11019E+03 -1.48796E+03 -1.44124E+04  8.60033E+03 -1.49855E+04  1.88090E+04 -8.41299E+03
  2.15836E+04  1.93767E+03  1.54675E+04  1.35551E+04  3.20240E+03  1.79307E+04 -9.25172E+03  1.45057E+04
 -1.13863E+04  4.50942E+03 -6.01717E+03 -3.87245E+03  2.09622E+03 -4.47819E+03  7.91769E+03 -1.41203E+03
  6.48753E+03  6.33410E+03  1.32778E+03  1.24352E+04 -8.74406E+03  1.12778E+04 -1.38546E+04  2.92221E+03
 -9.64766E+03 -7.95411E+03 -6.46135E+02 -1.27144E+04  8.00873E+03 -6.40013E+03  8.77706E+03  2.44591E+03
  2.08689E+03  8.84761E+03 -7.61740E+03  1.07969E+04 -1.20962E+04  4.62604E+03 -1.16130E+04 -4.31407E+03
 -7.18361E+03 -1.43100E+04  3.34965E+03 -1.67301E+04  1.44566E+04 -9.99657E+03  1.52749E+04  3.40015E+03
  9.27305E+03  1.11476E+04 -6.10801E+02  1.42087E+04 -1.07368E+04  7.88688E+03 -1.16643E+04 -1.63068E+03
 -1.02170E+04 -1.01883E+04 -1.46006E+03 -1.03542E+04  5.92807E+03 -8.96858E+03  6.62557E+03 -3.35451E+03
  4.88072E+03  1.70669E+03 -1.27722E+03  1.87487E+03 -5.93679E+02 -2.50836E+03  2.71005E+03 -6.49610E+03
  1.03541E+04 -3.61101E+03  1.39857E+04  1.82402E+03  1.43870E+04  9.65690E+03  9.64321E+03  1.89888E+04
 -4.78851E+03  2.09480E+04 -1.80447E+04  1.53783E+04 -2.26467E+04  2.58474E+03 -1.88797E+04 -8.08793E+03
 -9.02723E+03 -1.52542E+04  1.83769E+02 -1.29479E+04  4.17849E+03 -7.01490E+03  4.67064E+03 -4.47673E+03
  2.94617E+03 -3.03297E+03  3.83621E+03 -3.37983E+03  4.82706E+03 -2.98306E+03  7.69388E+03 -7.03139E+02
  9.86621E+03  2.11776E+03  4.92733E+03  8.01261E+03 -2.42679E+03  8.69534E+03 -9.94119E+03  7.93137E+03
 -1.36924E+04 -1.35739E+03 -8.72950E+03 -9.08106E+03 -8.80712E+02 -1.40591E+04  7.98131E+03 -1.37152E+04
  1.39888E+04 -7.60353E+03  1.74458E+04  1.87232E+03  1.25056E+04  1.20419E+04  1.68278E+03  1.61560E+04
 -6.54682E+03  1.24431E+04 -9.34863E+03  4.93578E+03 -6.74916E+03 -1.57726E+03 -2.44329E+03 -2.34524E+03
 -1.35413E+03 -3.70584E+02 -1.96140E+03  3.20217E+03 -5.57090E+03  2.72203E+03 -8.87807E+03 -1.08153E+03
 -6.25825E+03 -9.17162E+03 -3.16040E+02 -1.24307E+04  8.22430E+03 -1.13820E+04  1.22648E+04 -3.73053E+03
  1.24345E+04  6.24234E+03  5.78528E+03  1.07935E+04 -2.48790E+03  1.27263E+04 -8.55636E+03  7.87003E+03
 -1.20932E+04  2.20909E+02 -8.76203E+03 -7.85884E+03 -9.14634E+02 -1.09380E+04  5.26119E+03 -8.31865E+03
  8.19996E+03 -2.08910E+03  6.25905E+03  1.76876E+03  2.19892E+03  3.56998E+03  8.07971E+02  1.41775E+03
  3.21627E+03  1.51575E+03  3.26776E+03  1.67302E+03  4.21377E+03  4.49764E+03  3.67232E+03  6.20719E+03
 -2.14929E+03  9.55754E+03 -9.37280E+03  9.89934E+03 -1.26980E+04  2.32310E+03 -1.29812E+04 -5.13322E+03
 -6.63263E+03 -1.17229E+04  2.27119E+03 -1.38618E+04  7.52116E+03 -8.83275E+03  1.02013E+04 -2.32761E+03
  8.10181E+03  4.92035E+03  1.77212E+03  7.91102E+03 -3.71469E+03  5.11977E+03 -5.54039E+03 -9.22623E+02
 -2.35480E+03 -5.12269E+03  3.53928E+03 -5.23970E+03  6.00150E+03 -2.59535E+03  5.04516E+03  6.80191E+02
  2.87268E+03  2.54759E+03  1.54834E+03  2.27640E+03 -5.48240E+02  2.19954E+03  1.65053E+03 -9.72359E+02
  1.89312E+03 -2.09698E+02  5.39087E+03  2.17579E+03  2.31873E+03  7.01265E+03 -1.40013E+03  8.82198E+03
 -5.63585E+03  6.55234E+03 -8.14490E+03  1.57749E+03 -7.26040E+03 -2.67700E+03 -2.32262E+03 -4.94604E+03
  5.01477E+02 -5.27399E+03  3.88536E+03 -2.60528E+03  2.41116E+03  2.32233E+03 -1.39407E+03  3.99548E+03
 -5.23126E+03  2.35609E+03 -4.82533E+03 -3.14772E+03 -3.99552E+03 -7.55218E+03  7.60369E+02 -6.35224E+03
  3.48630E+03 -3.50833E+03  4.38668E+03 -7.56108E+02  4.62019E+03  1.40886E+03  3.03114E+02  3.86479E+03
 -1.58640E+03  8.34898E+02 -2.54719E+03 -2.60247E+03  1.15102E+03 -5.10273E+03  5.26607E+03 -4.35486E+03
  7.21122E+03  3.75831E+02  7.54034E+03  5.09996E+03  2.33717E+03  7.53563E+03 -2.16626E+03  7.41992E+03
 -5.56672E+03  3.37161E+03 -6.11188E+03 -1.58080E+03 -3.10902E+03 -5.32146E+03  1.78355E+03 -5.10575E+03
  5.61396E+03 -1.38453E+03  4.02141E+03  1.82437E+03  1.06320E+03  4.46671E+03 -7.59187E+02  3.94446E+03
 -2.02395E+03  2.81827E+03 -8.66472E+02  6.00063E+02 -8.71254E+02  1.05875E+03 -1.48093E+03  1.93447E+03
 -1.99738E+03  2.71247E+03 -6.03747E+03  2.21738E+03 -7.34347E+03  2.66738E+02 -7.81507E+03 -4.66139E+03
 -4.38004E+03 -9.50866E+03  2.01587E+03 -1.12731E+04  6.74999E+03 -8.98933E+03  1.11736E+04 -3.37795E+03
  1.07084E+04  1.04682E+03  6.43478E+03  7.81211E+03  9.66780E+02  7.74365E+03 -2.85818E+03  6.31973E+03
 -4.44322E+03  1.82249E+03 -1.81142E+03 -5.94299E+02 -6.92628E+02 -6.03165E+02 -4.75696E+02 -4.54739E+02
 -1.74320E+03 -1.07323E+03 -1.51932E+03 -3.24575E+02 -4.91383E+02 -2.05656E+03 -3.84234E+01 -2.92733E+03
  2.59978E+03 -2.34141E+03  4.96160E+03 -4.46156E+02  5.41578E+03  4.62367E+03  1.36392E+03  7.24485E+03
 -4.06627E+03  9.54824E+03 -7.96428E+03  5.33020E+03 -9.12006E+03 -5.31254E+02 -7.02552E+03 -5.78687E+03
 -2.76699E+03 -8.10828E+03  1.24819E+03 -7.28808E+03  5.30669E+03 -3.79947E+03  5.02039E+03  8.53487E+02
  2.97635E+03  3.08288E+03 -3.59607E+01  2.46025E+03 -1.53447E+03 -5.34898E+02  5.84725E+02 -1.72926E+03
  3.17509E+03 -9.40143E+02  3.80548E+03  8.44111E+02  1.89552E+03  2.20862E+03  4.90129E+02  3.71889E+03
 -3.55854E+03  4.24251E+03 -4.62396E+03  8.43970E+02 -4.79287E+03 -3.01323E+03 -2.51745E+02 -6.21646E+03
  3.47613E+03 -5.35479E+03  5.80705E+03 -2.40730E+03  5.43932E+03  1.14936E+03  3.24264E+03  4.76013E+03
  1.31261E+03  5.23452E+03 -1.86153E+03  4.45286E+03 -2.64551E+03  2.04328E+03 -2.34806E+03  1.17279E+03
 -1.26897E+03 -1.26714E+01 -1.33709E+03  6.13346E+02 -2.56131E+03  1.16142E+03 -3.96336E+03 -7.41239E+02
 -3.87997E+03 -1.56274E+03 -1.02055E+03 -4.48585E+03  2.14943E+03 -5.25209E+03  3.97145E+03 -2.30408E+03
  4.65767E+03  5.47043E+02  2.32356E+03  3.24283E+03 -6.25164E+02  4.80028E+03 -3.37993E+03  3.90234E+03
