 $NMID ID='MM_0lb_SNR400_11hz_g40_17.RAW', FMTDAT='(8E13.5)'
 TRAMP=1., VOLUME=1. $END
  3.10115E+05 -3.00911E+02  3.37934E+05  2.50136E+05  8.45805E+04  3.38363E+05 -1.32552E+05  2.51434E+05
 -1.90810E+05  8.27820E+04 -1.11473E+05 -3.26538E+04  5.59569E+02 -5.05724E+04  5.33235E+04 -4.70326E+02
  3.59610E+04  5.27220E+04 -1.70656E+04  7.54778E+04 -6.13863E+04  6.40725E+04 -8.50750E+04  3.23090E+04
 -8.08588E+04 -1.17635E+04 -5.74744E+04 -5.18385E+04 -1.55051E+04 -7.00670E+04  2.72336E+04 -4.60069E+04
  4.02059E+04  3.51313E+03  1.61380E+04  4.81498E+04 -3.37883E+04  4.80763E+04 -6.75049E+04  1.81094E+02
 -5.39362E+04 -5.72740E+04 -6.92095E+03 -7.74405E+04  3.42678E+04 -5.59257E+04  4.83862E+04 -1.78323E+04
  4.37365E+04  1.13404E+04  3.22985E+04  2.61668E+04  1.60121E+04  2.94477E+04 -5.85619E+03  2.80207E+04
 -2.21669E+04  1.22409E+04 -1.82345E+04 -5.48831E+03  5.84720E+03 -8.07918E+03  2.25908E+04  1.33123E+04
  7.72830E+03  3.58205E+04 -3.29621E+04  3.57218E+04 -6.43848E+04  2.38331E+03 -5.81010E+04 -4.35140E+04
 -1.19909E+04 -6.32807E+04  4.07249E+04 -4.67116E+04  5.96074E+04 -3.24648E+03  3.56699E+04  3.29072E+04
 -6.29307E+03  3.73932E+04 -3.02377E+04  1.72998E+04 -3.19537E+04 -3.78688E+03 -1.77160E+04 -1.18490E+04
 -9.09140E+03 -1.44432E+04 -4.17004E+02 -1.91007E+04  7.83784E+03 -2.31044E+04  1.55797E+04 -1.31032E+04
  1.08355E+04  6.04550E+03 -9.12314E+03  1.36759E+04 -2.15732E+04 -5.18936E+03 -8.73511E+03 -3.52052E+04
  2.45108E+04 -4.47418E+04  5.00853E+04 -2.03906E+04  4.62437E+04  1.96035E+04  1.58635E+04  4.53041E+04
 -1.56548E+04  3.42145E+04 -2.61562E+04  2.66391E+03 -9.77187E+03 -2.89387E+04  2.13631E+04 -3.52370E+04
  4.22784E+04 -1.01244E+04  3.69795E+04  2.39790E+04  1.99701E+04  4.77501E+04 -8.03106E+03  5.26760E+04
 -3.27581E+04  3.52307E+04 -4.42808E+04  1.07962E+04 -4.50738E+04 -1.69762E+04 -2.44049E+04 -3.96733E+04
  7.25964E+03 -3.88422E+04  3.28933E+04 -1.58295E+04  3.05063E+04  1.16322E+04  4.98550E+03  2.02169E+04
 -1.30699E+04  7.84483E+03 -1.08591E+04 -7.27215E+03  5.59554E+03 -1.03798E+04  1.82643E+04  5.47380E+03
  1.39974E+04  2.19935E+04 -5.28932E+03  2.60596E+04 -2.22828E+04  1.29870E+04 -2.97778E+04 -3.57732E+03
 -2.25407E+04 -1.80333E+04 -9.02023E+03 -2.22214E+04  3.91894E+03 -2.19159E+04  1.73170E+04 -1.95761E+04
  2.88378E+04 -1.36774E+04  3.43464E+04  3.74208E+03  2.52224E+04  2.23569E+04  4.34722E+03  3.87769E+04
 -1.80761E+04  3.07206E+04 -2.94634E+04  1.03402E+04 -2.10781E+04 -1.08654E+04 -4.72617E+03 -1.33857E+04
  9.50645E+02 -1.96311E+03 -6.57270E+03  7.63814E+03 -1.77213E+04  5.53687E+03 -1.76388E+04 -8.44758E+03
 -1.03532E+04 -2.10213E+04  5.07229E+03 -2.52051E+04  1.62481E+04 -1.86094E+04  1.99673E+04 -1.56742E+03
  1.28496E+04  1.39724E+04 -1.45693E+03  2.02378E+04 -1.40901E+04  1.22049E+04 -2.14944E+04 -4.05300E+03
 -1.54926E+04 -1.82465E+04 -2.09737E+03 -2.54908E+04  1.21228E+04 -2.12340E+04  2.06750E+04 -1.06666E+04
  1.99998E+04 -1.47843E+02  1.39701E+04  5.55858E+03  8.04498E+03  1.18778E+03  1.10596E+04 -1.59966E+03
  1.81963E+04  3.11684E+03  2.17922E+04  1.68210E+04  1.44408E+04  3.37685E+04 -3.06287E+03  3.82906E+04
 -2.21012E+04  3.11912E+04 -3.57834E+04  1.58524E+04 -3.78632E+04 -2.75637E+03 -3.13403E+04 -2.20122E+04
 -1.27581E+04 -3.14368E+04  1.11156E+04 -2.82594E+04  2.34995E+04 -1.37066E+04  2.14017E+04  6.14708E+03
  8.14475E+03  1.52074E+04 -9.61078E+03  1.39113E+04 -1.73898E+04  2.44193E+03 -1.39911E+04 -1.18968E+04
  1.84418E+00 -1.72429E+04  8.77171E+03 -1.26180E+04  1.17027E+04 -1.50670E+03  2.89647E+03  7.56233E+03
 -7.66205E+03  3.62192E+03 -6.97607E+03 -6.57517E+03 -3.59740E+02 -1.52964E+04  1.06361E+04 -1.72865E+04
  1.88459E+04 -8.84028E+03  2.14910E+04  3.24037E+03  1.89215E+04  1.46391E+04  7.88397E+03  2.41025E+04
 -3.97503E+03  2.52581E+04 -1.61534E+04  1.64820E+04 -1.88285E+04  3.78675E+03 -1.32843E+04 -3.98486E+03
 -6.32420E+03 -5.58095E+03 -6.86366E+02  7.97584E+02 -2.70665E+03  3.10904E+03 -6.21003E+03  4.58479E+03
 -1.22097E+04 -6.87877E+02 -1.22292E+04 -9.84443E+03 -5.19410E+03 -1.65985E+04  5.10603E+03 -1.36028E+04
  1.15462E+04 -5.98537E+03  7.94037E+03  3.30823E+03 -2.36995E+02  5.46031E+03 -6.09523E+03 -5.52289E+01
 -5.55260E+03 -8.18183E+03 -9.24810E+02 -1.30332E+04  7.43673E+03 -1.33505E+04  1.70770E+04 -6.91202E+03
  1.96340E+04  1.83234E+03  1.41153E+04  1.15268E+04  2.96195E+03  1.50520E+04 -7.62622E+03  1.25551E+04
 -1.07794E+04  3.93594E+03 -5.67014E+03 -2.26841E+03  2.22808E+03 -3.86842E+03  6.88135E+03 -1.15284E+03
  6.47351E+03  5.67713E+03  9.08365E+02  1.05717E+04 -7.27444E+03  1.00042E+04 -1.30103E+04  1.78752E+03
 -7.96668E+03 -6.54342E+03  2.51987E+02 -1.11251E+04  7.20218E+03 -5.70792E+03  7.67687E+03  2.98833E+03
  1.46296E+03  7.86241E+03 -6.73677E+03  8.47399E+03 -1.06559E+04  4.52299E+03 -1.00890E+04 -3.46106E+03
 -6.16010E+03 -1.23099E+04  2.66269E+03 -1.43777E+04  1.19708E+04 -7.74252E+03  1.35821E+04  2.33184E+03
  8.31165E+03  1.03549E+04 -1.57364E+03  1.28426E+04 -9.17254E+03  7.03698E+03 -1.04924E+04 -1.55459E+03
 -9.18909E+03 -8.45951E+03 -8.86608E+02 -9.40741E+03  4.53471E+03 -8.08993E+03  6.30994E+03 -3.49540E+03
  4.77571E+03  1.03201E+03  1.30480E+02  1.69137E+03 -6.42831E+02 -1.71175E+03  1.82050E+03 -5.16377E+03
  8.66438E+03 -2.99589E+03  1.26358E+04  1.58810E+03  1.20455E+04  7.92781E+03  8.13109E+03  1.56293E+04
 -3.67113E+03  1.80048E+04 -1.62679E+04  1.33431E+04 -2.03203E+04  1.95126E+03 -1.65279E+04 -7.53933E+03
 -8.73425E+03 -1.27379E+04  2.64048E+02 -1.11586E+04  3.92501E+03 -5.91380E+03  4.08500E+03 -4.12745E+03
  2.65038E+03 -2.97430E+03  3.89364E+03 -3.59247E+03  5.29390E+03 -2.56580E+03  7.15319E+03 -1.33268E+03
  8.98036E+03  2.01853E+03  4.46585E+03  6.82004E+03 -2.31136E+03  8.31064E+03 -8.21872E+03  6.55377E+03
 -1.07006E+04 -1.13347E+03 -7.10716E+03 -7.87968E+03 -9.78076E+02 -1.12472E+04  6.08707E+03 -1.20767E+04
  1.20383E+04 -7.13629E+03  1.50661E+04  2.28462E+03  1.08370E+04  1.05759E+04  1.50199E+03  1.37681E+04
 -5.50694E+03  1.15070E+04 -7.98670E+03  4.13744E+03 -4.99607E+03 -1.82883E+03 -2.51266E+03 -1.52251E+03
 -6.73148E+02 -5.98845E+01 -2.50666E+03  1.83135E+03 -4.20283E+03  2.40707E+03 -8.27286E+03 -1.37726E+03
 -4.75393E+03 -8.13484E+03 -3.41428E+02 -1.14082E+04  6.36778E+03 -1.04085E+04  1.14984E+04 -3.31192E+03
  1.10675E+04  5.80417E+03  5.29747E+03  1.05990E+04 -2.71153E+03  1.10866E+04 -8.18101E+03  6.61836E+03
 -9.63836E+03  5.81608E+02 -7.67979E+03 -6.98460E+03 -1.14197E+03 -8.98184E+03  4.14759E+03 -6.52999E+03
  7.21306E+03 -1.97929E+03  4.41412E+03  2.37613E+03  1.49386E+03  3.37956E+03  7.18024E+02  1.77087E+03
  2.44652E+03  1.15257E+03  2.53993E+03  2.18411E+03  2.90468E+03  3.71327E+03  3.16164E+03  5.26784E+03
 -2.77386E+03  8.10666E+03 -7.65880E+03  9.20674E+03 -1.08023E+04  2.06317E+03 -1.14821E+04 -3.87925E+03
 -6.21765E+03 -1.07121E+04  1.37036E+03 -1.18545E+04  5.89330E+03 -7.65266E+03  8.27659E+03 -2.35688E+03
  6.91342E+03  4.48213E+03  1.62648E+03  5.85018E+03 -2.45050E+03  4.61858E+03 -4.25094E+03 -3.24903E+02
 -2.00074E+03 -4.61633E+03  2.50028E+03 -5.00792E+03  3.89820E+03 -2.39041E+03  4.05186E+03  1.03932E+03
  1.77995E+03  2.24182E+03  1.22903E+03  1.58873E+03 -1.58165E+03  1.30142E+03  1.66135E+03 -3.32025E+02
  1.22244E+03 -1.13913E+03  4.62106E+03  2.36782E+03  2.40727E+03  5.65291E+03 -1.11724E+03  7.29247E+03
 -5.24804E+03  4.40446E+03 -6.78218E+03  1.98269E+03 -5.80337E+03 -2.36684E+03 -2.09455E+03 -4.03516E+03
  7.98482E+02 -4.13730E+03  2.83879E+03 -1.87487E+03  2.00455E+03  1.74441E+03 -1.52524E+03  3.40826E+03
 -4.36546E+03  2.21830E+03 -4.43130E+03 -2.83657E+03 -2.71052E+03 -5.80011E+03  9.99843E+02 -5.75757E+03
  2.92173E+03 -3.41711E+03  3.71844E+03 -6.69269E+02  3.32094E+03  1.74709E+03  3.14509E+02  3.15387E+03
 -1.79051E+03  5.77957E+02 -3.18544E+03 -1.81823E+03  8.82675E+02 -4.83592E+03  6.58800E+03 -3.44472E+03
  6.31909E+03  8.81739E+02  6.77441E+03  4.30514E+03  2.07171E+03  6.53785E+03 -1.95476E+03  6.49915E+03
 -4.94128E+03  3.18755E+03 -6.19741E+03 -1.13418E+03 -3.03565E+03 -3.98025E+03  1.08049E+03 -3.81388E+03
  4.03296E+03 -1.86496E+03  4.14460E+03  7.13444E+02  8.34391E+02  3.69266E+03 -1.16432E+03  2.71409E+03
 -1.98547E+03  1.94864E+03 -1.79559E+03  7.60791E+02 -6.88753E+02  9.22883E+02 -4.19961E+02  1.39933E+03
 -1.98085E+03  2.62360E+03 -4.96460E+03  2.70465E+03 -6.15872E+03  1.51450E+02 -7.74117E+03 -4.53798E+03
 -4.12150E+03 -8.94019E+03  2.38146E+03 -1.02802E+04  6.24545E+03 -7.72739E+03  9.95301E+03 -3.12999E+03
  9.33531E+03  1.22766E+03  5.88723E+03  6.37551E+03  5.73057E+02  6.71556E+03 -2.68547E+03  4.88782E+03
 -4.05957E+03  1.64558E+03 -2.84567E+03 -3.38289E+02 -1.09301E+03 -7.99622E+02 -6.76709E+02  3.47093E+02
 -1.83970E+03  2.94586E+02 -1.64703E+03 -2.85709E+02 -1.17655E+03 -2.31524E+03 -3.96466E+02 -2.76413E+03
  3.12908E+03 -2.31338E+03  4.05155E+03  2.37389E+02  4.21045E+03  3.69761E+03  4.90183E+02  6.49337E+03
 -4.26728E+03  7.81859E+03 -7.03921E+03  4.39030E+03 -8.05763E+03 -1.51152E+03 -5.89548E+03 -4.73291E+03
 -2.64864E+03 -6.90193E+03  2.20126E+03 -5.84602E+03  4.74169E+03 -2.83202E+03  4.01155E+03  2.17752E+02
  2.11195E+03  2.31391E+03 -3.61007E+02  1.94217E+03 -9.82883E+02 -4.95204E+02 -5.15918E+02 -1.36278E+03
  1.53632E+03 -7.53229E+02  2.10059E+03  7.48918E+02  1.49978E+03  1.88434E+03  1.14903E+03  3.42312E+03
 -2.91920E+03  2.92888E+03 -4.43223E+03 -1.11380E+02 -4.10745E+03 -4.11828E+03 -4.24578E+02 -5.23351E+03
  3.21216E+03 -4.03716E+03  4.71859E+03 -7.03156E+02  4.92610E+03  1.31109E+03  2.93297E+03  4.21793E+03
  7.30892E+01  4.08741E+03 -2.71385E+03  3.19530E+03 -2.75445E+03  2.24445E+03 -2.24370E+03  4.26272E+02
 -1.05711E+03 -3.29434E+02 -1.20739E+03  7.81758E+02 -2.54648E+03  7.14420E+02 -3.55727E+03 -3.46903E+02
 -4.19728E+03 -2.58354E+03 -1.03562E+03 -4.38931E+03  2.41241E+03 -4.62422E+03  3.31156E+03 -1.78404E+03
  4.18420E+03  1.19270E+03  1.92397E+03  2.62923E+03 -7.44777E+02  3.82507E+03 -3.70925E+03  3.02139E+03
