 $NMID ID='MM_0lb_SNR400_10hz_g45_72.RAW', FMTDAT='(8E13.5)'
 TRAMP=1., VOLUME=1. $END
  3.09637E+05  8.97463E+02  3.37787E+05  2.50971E+05  8.41672E+04  3.38955E+05 -1.33006E+05  2.51886E+05
 -1.90347E+05  8.36284E+04 -1.12769E+05 -3.29040E+04  2.57458E+02 -5.06618E+04  5.40146E+04 -6.06162E+02
  3.61831E+04  5.17759E+04 -1.70199E+04  7.62294E+04 -6.05387E+04  6.44372E+04 -8.49678E+04  3.24454E+04
 -8.20771E+04 -1.10103E+04 -5.69486E+04 -5.17968E+04 -1.47625E+04 -7.09796E+04  2.82645E+04 -4.67095E+04
  4.10255E+04  3.62701E+03  1.61314E+04  4.82078E+04 -3.42802E+04  4.82599E+04 -6.82050E+04 -4.34574E+02
 -5.51722E+04 -5.78297E+04 -7.22994E+03 -7.82414E+04  3.36276E+04 -5.61493E+04  5.01572E+04 -1.91141E+04
  4.46136E+04  1.13459E+04  3.26059E+04  2.61847E+04  1.62719E+04  3.15502E+04 -5.45592E+03  2.78853E+04
 -2.26120E+04  1.21810E+04 -1.81213E+04 -5.16071E+03  6.63371E+03 -8.29131E+03  2.31880E+04  1.30523E+04
  7.19771E+03  3.67186E+04 -3.42419E+04  3.73814E+04 -6.46641E+04  1.34050E+03 -5.83087E+04 -4.41688E+04
 -1.26381E+04 -6.48975E+04  4.17456E+04 -4.76113E+04  6.00481E+04 -1.58332E+03  3.60657E+04  3.42417E+04
 -6.21504E+03  3.89624E+04 -3.12393E+04  1.88385E+04 -3.15285E+04 -3.97271E+03 -1.82165E+04 -1.14266E+04
 -9.10225E+03 -1.51424E+04 -8.84601E+02 -1.88568E+04  8.83479E+03 -2.32533E+04  1.60419E+04 -1.30844E+04
  1.07938E+04  6.11279E+03 -1.03864E+04  1.29761E+04 -2.28304E+04 -6.09405E+03 -8.66795E+03 -3.68905E+04
  2.47307E+04 -4.56747E+04  5.04467E+04 -2.00525E+04  4.73009E+04  1.95972E+04  1.70829E+04  4.62514E+04
 -1.62961E+04  3.52515E+04 -2.75180E+04  2.59636E+03 -1.13594E+04 -2.89070E+04  2.17696E+04 -3.57320E+04
  4.41513E+04 -1.09595E+04  3.92762E+04  2.41545E+04  2.07461E+04  5.03705E+04 -8.46161E+03  5.45625E+04
 -3.41948E+04  3.65086E+04 -4.52145E+04  1.14766E+04 -4.71359E+04 -1.72889E+04 -2.47946E+04 -4.09121E+04
  7.49736E+03 -4.11312E+04  3.27582E+04 -1.64696E+04  3.09234E+04  1.14874E+04  4.95023E+03  2.01357E+04
 -1.35676E+04  9.95104E+03 -1.03738E+04 -7.30476E+03  5.37691E+03 -1.10755E+04  1.85238E+04  5.57579E+03
  1.47398E+04  2.19815E+04 -5.74985E+03  2.63959E+04 -2.29754E+04  1.34746E+04 -3.04812E+04 -2.72200E+03
 -2.44042E+04 -1.81800E+04 -1.06219E+04 -2.38704E+04  4.15467E+03 -2.34687E+04  1.95498E+04 -2.15920E+04
  2.99867E+04 -1.28595E+04  3.57729E+04  4.26096E+03  2.61236E+04  2.31634E+04  4.80850E+03  4.00351E+04
 -1.92663E+04  3.33340E+04 -2.99094E+04  1.08748E+04 -2.16674E+04 -1.02578E+04 -5.51396E+03 -1.32902E+04
  6.46353E+02 -1.82166E+03 -6.25882E+03  7.22439E+03 -1.89507E+04  4.94866E+03 -1.93287E+04 -9.25815E+03
 -1.25000E+04 -2.20074E+04  4.92686E+03 -2.69490E+04  1.74055E+04 -1.81844E+04  2.17897E+04 -1.47320E+03
  1.39083E+04  1.57196E+04 -7.89066E+02  2.19218E+04 -1.56644E+04  1.28302E+04 -2.20309E+04 -4.71248E+03
 -1.62501E+04 -1.97385E+04 -1.71065E+03 -2.63279E+04  1.21760E+04 -2.17959E+04  2.17798E+04 -1.17744E+04
  2.07442E+04  2.77728E+01  1.49009E+04  5.24042E+03  8.29806E+03  1.57506E+03  1.13408E+04 -1.46095E+03
  2.03109E+04  2.50485E+03  2.32887E+04  1.74891E+04  1.61000E+04  3.53228E+04 -2.87229E+03  4.01461E+04
 -2.31470E+04  3.38873E+04 -3.79315E+04  1.78747E+04 -4.10063E+04 -2.38244E+03 -3.39995E+04 -2.43347E+04
 -1.33493E+04 -3.43665E+04  1.19040E+04 -2.98622E+04  2.56919E+04 -1.45786E+04  2.32121E+04  6.84554E+03
  7.33055E+03  1.74159E+04 -1.11548E+04  1.48924E+04 -1.91400E+04  2.78981E+03 -1.45797E+04 -1.14250E+04
  3.31658E+02 -1.74110E+04  9.79004E+03 -1.30704E+04  1.25256E+04 -6.56583E+02  2.79312E+03  7.95233E+03
 -8.22017E+03  3.98975E+03 -8.79446E+03 -7.09283E+03 -1.19563E+03 -1.64087E+04  1.12177E+04 -1.77993E+04
  1.99304E+04 -1.12232E+04  2.40357E+04  2.83623E+03  1.98698E+04  1.69171E+04  9.47314E+03  2.63089E+04
 -4.85341E+03  2.84195E+04 -1.79426E+04  1.76962E+04 -1.99846E+04  4.30722E+03 -1.40814E+04 -5.00590E+03
 -6.09827E+03 -6.90248E+03 -3.08684E+02  5.78724E+02 -3.23058E+03  3.83352E+03 -6.34808E+03  4.94898E+03
 -1.32295E+04 -5.67342E+02 -1.39778E+04 -1.16151E+04 -5.18432E+03 -1.86811E+04  5.95084E+03 -1.48304E+04
  1.15657E+04 -6.03460E+03  8.59288E+03  3.83629E+03  4.94722E+02  5.08603E+03 -6.61158E+03 -3.14118E+02
 -6.42906E+03 -9.18772E+03 -8.88658E+02 -1.37416E+04  8.43208E+03 -1.47573E+04  1.78268E+04 -8.35395E+03
  2.06452E+04  1.41503E+03  1.52624E+04  1.30014E+04  2.59058E+03  1.76709E+04 -9.13265E+03  1.43526E+04
 -1.12357E+04  4.58206E+03 -6.38160E+03 -2.74585E+03  1.85631E+03 -3.72879E+03  7.75630E+03 -8.59281E+02
  6.43314E+03  6.29118E+03  1.00513E+03  1.10876E+04 -8.35766E+03  1.07622E+04 -1.39282E+04  2.64243E+03
 -9.51015E+03 -8.03114E+03  1.99514E+02 -1.17779E+04  7.14727E+03 -5.98582E+03  7.87042E+03  2.68166E+03
  1.65617E+03  9.34927E+03 -7.23520E+03  9.94971E+03 -1.13704E+04  3.93867E+03 -1.26720E+04 -4.39927E+03
 -6.94028E+03 -1.43653E+04  3.33416E+03 -1.66029E+04  1.35455E+04 -9.85884E+03  1.50537E+04  2.41775E+03
  9.55096E+03  1.15414E+04 -1.15716E+03  1.40817E+04 -1.08757E+04  7.78132E+03 -1.18487E+04 -1.04683E+03
 -9.46160E+03 -9.28672E+03 -1.78510E+03 -1.05994E+04  5.92323E+03 -8.97307E+03  6.76623E+03 -3.78586E+03
  4.91915E+03  1.51252E+03 -1.04246E+03  1.72653E+03 -7.92869E+02 -2.99430E+03  2.54874E+03 -6.54453E+03
  9.83984E+03 -4.25172E+03  1.36078E+04  1.32667E+03  1.31695E+04  9.91964E+03  9.42151E+03  1.85622E+04
 -4.17388E+03  2.04805E+04 -1.77548E+04  1.57467E+04 -2.24123E+04  2.52643E+03 -1.85102E+04 -7.36868E+03
 -9.52249E+03 -1.55324E+04 -3.92690E+02 -1.24683E+04  4.20913E+03 -7.28412E+03  4.36188E+03 -4.37972E+03
  3.58876E+03 -2.86433E+03  3.22060E+03 -3.65637E+03  5.68211E+03 -3.43284E+03  6.27062E+03 -1.00702E+03
  9.27829E+03  2.41044E+03  5.22502E+03  8.07011E+03 -1.96002E+03  9.97671E+03 -9.52554E+03  7.61734E+03
 -1.31581E+04 -1.06153E+03 -7.47024E+03 -8.78710E+03 -5.12856E+02 -1.39591E+04  8.60277E+03 -1.34635E+04
  1.47874E+04 -7.22399E+03  1.70003E+04  2.39004E+03  1.23667E+04  1.19741E+04  2.26038E+03  1.59205E+04
 -7.51464E+03  1.28929E+04 -9.47242E+03  5.28986E+03 -5.90167E+03 -1.88985E+03 -2.32300E+03 -1.29091E+03
 -1.60553E+03  6.62477E+01 -1.69386E+03  2.72873E+03 -5.55992E+03  2.65712E+03 -8.92165E+03 -1.92873E+03
 -6.56183E+03 -9.25224E+03  2.35935E+02 -1.26345E+04  8.07719E+03 -1.15490E+04  1.15328E+04 -3.44245E+03
  1.25088E+04  5.94661E+03  6.25174E+03  1.16423E+04 -2.00758E+03  1.25281E+04 -9.07825E+03  7.13096E+03
 -1.17445E+04  4.88406E+02 -8.93653E+03 -7.74341E+03 -2.11254E+03 -1.04444E+04  5.77643E+03 -8.06016E+03
  8.03316E+03 -2.98504E+03  5.12433E+03  2.34826E+03  1.66185E+03  3.51699E+03  1.55104E+03  1.75932E+03
  2.89315E+03  7.41354E+02  3.50725E+03  1.97834E+03  4.01159E+03  4.32528E+03  3.11427E+03  6.08743E+03
 -3.52409E+03  1.06672E+04 -8.52165E+03  9.75660E+03 -1.24491E+04  2.06317E+03 -1.30520E+04 -4.89262E+03
 -5.88483E+03 -1.34057E+04  2.24501E+03 -1.47509E+04  7.41745E+03 -8.72891E+03  1.04528E+04 -2.52530E+03
  8.18704E+03  4.83838E+03  1.64515E+03  7.88456E+03 -3.17878E+03  4.98167E+03 -6.53426E+03 -9.17651E+02
 -2.87683E+03 -5.09573E+03  3.32465E+03 -5.40388E+03  6.00147E+03 -2.73157E+03  4.68011E+03  8.43995E+02
  2.73522E+03  3.08140E+03  1.84998E+03  2.23333E+03 -8.13923E+02  2.10132E+03  1.68383E+03 -4.47705E+02
  9.60836E+02 -8.94713E+02  5.34999E+03  1.87957E+03  3.41497E+03  6.27218E+03 -1.02920E+03  8.98911E+03
 -6.43818E+03  6.70586E+03 -7.75120E+03  1.74926E+03 -6.90858E+03 -2.97564E+03 -3.23350E+03 -5.12916E+03
  5.15743E+02 -4.05542E+03  3.72318E+03 -2.61337E+03  2.78513E+03  2.91143E+03 -1.34427E+03  5.15147E+03
 -5.18736E+03  1.83135E+03 -6.78138E+03 -2.87499E+03 -3.05763E+03 -7.15723E+03  1.84873E+03 -6.77524E+03
  4.84886E+03 -3.83858E+03  5.23055E+03 -6.92355E+02  4.22753E+03  1.57269E+03  1.03600E+03  3.02618E+03
 -2.66973E+03  1.48356E+03 -3.83009E+03 -2.06412E+03  1.19832E+03 -5.26537E+03  5.96791E+03 -4.55433E+03
  7.29998E+03  1.81684E+03  7.97944E+03  5.18094E+03  3.03189E+03  8.46813E+03 -3.09695E+03  7.98809E+03
 -7.09221E+03  4.18656E+03 -6.71551E+03 -1.13181E+03 -3.99450E+03 -5.61466E+03  1.42645E+03 -5.42351E+03
  5.27387E+03 -2.38336E+03  4.90884E+03  2.53841E+03  8.18220E+02  4.99305E+03 -1.35142E+03  4.07019E+03
 -2.02614E+03  2.70268E+03 -1.71239E+03  9.11349E+01 -5.30149E+02  1.01880E+03 -1.46766E+03  1.99728E+03
 -2.08630E+03  3.73526E+03 -6.14046E+03  3.16617E+03 -8.24308E+03  7.75666E+02 -9.56553E+03 -5.86420E+03
 -4.74365E+03 -1.08649E+04  2.04417E+03 -1.25563E+04  7.39482E+03 -9.61901E+03  1.11561E+04 -3.71367E+03
  1.12896E+04  1.96487E+03  7.86424E+03  7.34478E+03  1.46158E+03  8.75674E+03 -3.19070E+03  5.84410E+03
 -5.00103E+03  2.08097E+03 -2.59637E+03 -8.11743E+02 -1.00932E+03 -7.17409E+02 -5.27212E+02  1.40693E+02
 -1.49949E+03 -3.36226E+01 -2.34020E+03 -1.84630E+02 -1.54092E+03 -2.05682E+03 -5.04776E+02 -3.28610E+03
  3.37851E+03 -3.20838E+03  5.60680E+03 -1.60670E+02  5.76469E+03  4.07959E+03  1.13869E+03  8.20314E+03
 -4.26700E+03  9.50735E+03 -9.12648E+03  6.07728E+03 -9.64213E+03 -1.29085E+03 -7.63539E+03 -6.23869E+03
 -2.74089E+03 -8.49075E+03  2.17957E+03 -8.13573E+03  5.23399E+03 -4.07895E+03  5.73553E+03  2.71198E+01
  2.92248E+03  2.83658E+03 -6.37827E+02  2.21094E+03 -1.79252E+03 -9.44731E+02 -6.67521E+01 -1.88080E+03
  2.80826E+03 -2.04288E+03  2.86985E+03  1.43256E+03  2.35309E+03  3.15436E+03  9.91755E+02  4.07980E+03
 -3.19324E+03  3.21360E+03 -5.41304E+03  3.40913E+02 -4.89814E+03 -3.42576E+03 -7.97107E+02 -6.74602E+03
  4.18575E+03 -6.87398E+03  6.79468E+03 -2.02968E+03  6.04280E+03  7.61559E+02  3.95458E+03  5.00861E+03
  1.13800E+03  6.09200E+03 -1.23173E+03  4.69992E+03 -3.45319E+03  2.89780E+03 -3.34331E+03  3.19512E+02
 -1.51229E+03 -5.35710E+02 -1.83852E+03  4.66130E+02 -2.82517E+03  8.64516E+02 -4.19343E+03 -2.38535E+02
 -4.10948E+03 -3.07635E+03 -6.59400E+02 -6.17509E+03  2.79857E+03 -5.74517E+03  4.48829E+03 -2.47844E+03
  5.18781E+03  6.07481E+02  2.82841E+03  3.61648E+03 -1.17617E+03  6.55592E+03 -3.97831E+03  3.26340E+03
