 $NMID ID='MM_0lb_SNR400_20hz_g60_81.RAW', FMTDAT='(8E13.5)'
 TRAMP=1., VOLUME=1. $END
  3.09852E+05  3.50645E+02  3.37041E+05  2.49984E+05  8.47919E+04  3.37456E+05 -1.32313E+05  2.50538E+05
 -1.89807E+05  8.30066E+04 -1.11612E+05 -3.28045E+04  8.30863E+02 -5.09234E+04  5.36993E+04 -3.45609E+02
  3.45108E+04  5.32550E+04 -1.73195E+04  7.53830E+04 -6.03483E+04  6.31413E+04 -8.32016E+04  3.13902E+04
 -8.00376E+04 -1.10235E+04 -5.64221E+04 -5.03323E+04 -1.44376E+04 -6.87151E+04  2.68826E+04 -4.48269E+04
  3.95115E+04  3.56124E+03  1.54964E+04  4.69124E+04 -3.44896E+04  4.67890E+04 -6.57877E+04 -9.54440E+02
 -5.22047E+04 -5.59501E+04 -6.50492E+03 -7.62619E+04  3.35224E+04 -5.38617E+04  4.65177E+04 -1.62845E+04
  4.24222E+04  1.09996E+04  3.11571E+04  2.45064E+04  1.62974E+04  2.90736E+04 -5.17863E+03  2.66649E+04
 -2.15152E+04  1.27501E+04 -1.89744E+04 -4.78205E+03  4.45299E+03 -7.94391E+03  2.14214E+04  1.14918E+04
  7.22445E+03  3.40697E+04 -3.10339E+04  3.41923E+04 -6.23418E+04  2.05771E+03 -5.52227E+04 -4.18502E+04
 -1.28914E+04 -6.15685E+04  3.87345E+04 -4.39054E+04  5.59127E+04 -1.92853E+03  3.30479E+04  3.16602E+04
 -6.79593E+03  3.42488E+04 -2.91391E+04  1.46644E+04 -2.84423E+04 -5.37514E+03 -1.51188E+04 -1.02570E+04
 -7.81938E+03 -1.20367E+04 -1.09162E+03 -1.65854E+04  6.98101E+03 -2.28868E+04  1.52887E+04 -1.36158E+04
  1.16903E+04  4.65583E+03 -6.84294E+03  1.29796E+04 -1.99188E+04 -2.67753E+03 -8.40847E+03 -3.13707E+04
  2.05808E+04 -4.09665E+04  4.55468E+04 -1.92069E+04  4.23779E+04  1.83125E+04  1.46006E+04  4.23868E+04
 -1.55317E+04  3.17274E+04 -2.38833E+04  1.46851E+03 -8.81628E+03 -2.64159E+04  2.05785E+04 -3.21412E+04
  3.89066E+04 -7.76249E+03  3.27110E+04  2.30983E+04  1.56223E+04  4.34324E+04 -8.09716E+03  4.61635E+04
 -2.95131E+04  3.10698E+04 -3.80769E+04  8.28886E+03 -3.86288E+04 -1.54060E+04 -2.19424E+04 -3.50220E+04
  7.15775E+03 -3.51439E+04  2.98604E+04 -1.31404E+04  2.72073E+04  1.07089E+04  2.61313E+03  1.76464E+04
 -1.29472E+04  7.37905E+03 -9.89555E+03 -7.45297E+03  5.66226E+03 -1.02116E+04  1.73184E+04  6.72668E+03
  1.27268E+04  2.21056E+04 -6.75963E+03  2.37136E+04 -2.13056E+04  9.17506E+03 -2.57521E+04 -6.12678E+03
 -1.73758E+04 -1.61741E+04 -5.93324E+03 -1.75289E+04  3.58155E+03 -1.58587E+04  1.30905E+04 -1.48841E+04
  2.23287E+04 -1.19340E+04  2.88965E+04  1.13677E+03  2.20265E+04  1.68083E+04  3.94746E+03  3.32148E+04
 -1.64367E+04  2.77495E+04 -2.64113E+04  9.32280E+03 -1.96986E+04 -1.00763E+04 -3.60822E+03 -1.37615E+04
  2.41889E+03 -3.88207E+03 -2.81651E+03  5.47595E+03 -1.27189E+04  5.13511E+03 -1.37962E+04 -5.46369E+03
 -8.42477E+03 -1.58514E+04  4.57222E+03 -1.99035E+04  1.27045E+04 -1.42056E+04  1.51881E+04 -1.56590E+03
  9.49155E+03  1.11519E+04 -4.03617E+02  1.63072E+04 -1.01921E+04  9.31371E+03 -1.56974E+04 -3.57008E+03
 -1.20737E+04 -1.43623E+04 -1.35410E+03 -1.89974E+04  8.74571E+03 -1.60631E+04  1.60234E+04 -7.32438E+03
  1.49879E+04  5.22755E+02  1.02872E+04  3.87548E+03  5.10839E+03  5.92938E+02  7.91824E+03 -1.53622E+03
  1.42145E+04  2.33808E+03  1.45703E+04  1.33947E+04  8.90859E+03  2.50004E+04 -2.92892E+03  2.71108E+04
 -1.54040E+04  2.06213E+04 -2.52995E+04  1.00241E+04 -2.49839E+04 -1.78407E+03 -2.17446E+04 -1.45810E+04
 -1.00351E+04 -2.00801E+04  7.06117E+03 -1.99249E+04  1.66139E+04 -1.08045E+04  1.58327E+04  3.52271E+03
  7.20481E+03  1.12854E+04 -7.37076E+03  1.08606E+04 -1.33013E+04  2.45845E+03 -1.00643E+04 -7.90400E+03
 -2.77206E+02 -1.23210E+04  6.05683E+03 -9.59195E+03  7.78109E+03 -9.17820E+02  1.34437E+03  4.64882E+03
 -5.46471E+03  1.15375E+03 -4.02332E+03 -4.38509E+03  1.06932E+03 -1.01149E+04  7.60245E+03 -9.74855E+03
  1.22590E+04 -4.57383E+03  1.26852E+04  2.45370E+03  1.03653E+04  9.70305E+03  4.85336E+03  1.40967E+04
 -1.75065E+03  1.57525E+04 -9.81119E+03  1.02211E+04 -1.15242E+04  2.94610E+03 -7.98708E+03 -2.01553E+03
 -4.32278E+03 -3.23263E+03 -1.09177E+03  1.71518E+03 -1.39774E+03  1.54843E+03 -3.39824E+03  3.03014E+03
 -7.06827E+03 -6.14702E+02 -8.43327E+03 -6.85508E+03 -3.11354E+03 -1.12692E+04  3.26915E+03 -8.77673E+03
  7.14538E+03 -3.52454E+03  5.41098E+03  2.29820E+03  8.32802E+02  3.48329E+03 -3.29213E+03 -4.83745E+02
 -3.22895E+03 -4.67141E+03 -4.84624E+02 -7.37248E+03  3.61530E+03 -7.46359E+03  9.41898E+03 -4.08349E+03
  1.14230E+04  2.09095E+02  8.87884E+03  5.83045E+03  2.04920E+03  8.74603E+03 -5.00161E+03  7.57778E+03
 -6.78806E+03  2.70058E+03 -3.41137E+03 -1.11477E+03  1.31905E+03 -1.75738E+03  4.22870E+03 -8.96740E+02
  4.14413E+03  3.81110E+03  1.18940E+03  5.87862E+03 -4.36741E+03  6.63006E+03 -7.91410E+03  1.22578E+03
 -4.68783E+03 -3.37846E+03  4.02809E+02 -6.55073E+03  3.87340E+03 -3.65899E+03  3.28554E+03  1.14982E+03
  2.29107E+02  3.06918E+03 -4.08096E+03  4.45819E+03 -4.93038E+03  2.25721E+03 -3.83786E+03 -1.45535E+03
 -2.29004E+03 -5.66276E+03  1.90939E+03 -6.76578E+03  5.19148E+03 -3.93766E+03  6.24413E+03  5.11806E+02
  4.61676E+03  5.01647E+03  4.70591E+02  6.81627E+03 -4.96596E+03  3.76398E+03 -4.85893E+03 -4.46075E+02
 -5.43586E+03 -4.73319E+03 -1.57202E+03 -3.95819E+03  2.48437E+03 -4.23760E+03  2.81977E+03 -3.01486E+03
  2.98277E+03 -2.46278E+02 -4.64988E+02  1.24287E+03  6.58464E+02 -1.66754E+02  6.05748E+02 -1.70726E+03
  3.23752E+03 -1.47826E+02  4.89236E+03  2.12699E+02  4.98142E+03  2.38433E+03  4.87810E+03  6.17151E+03
 -1.79655E+03  7.71500E+03 -7.08723E+03  5.49307E+03 -8.87164E+03  1.05192E+03 -7.10543E+03 -2.05048E+03
 -3.91436E+03 -5.72708E+03 -1.07704E+02 -4.51794E+03  1.47108E+03 -1.78200E+03  1.67280E+03 -1.87161E+03
  1.06428E+03 -1.52153E+03  2.28540E+03 -2.30596E+03  3.88039E+03 -7.59028E+02  3.09278E+03 -2.52737E+01
  3.91015E+03  5.86621E+02  8.32574E+02  3.17393E+03 -1.19849E+03  2.15367E+03 -4.18596E+03  1.70621E+03
 -4.39933E+03 -7.21559E+02 -1.75818E+03 -3.52678E+03  1.47262E+03 -3.79262E+03  3.10133E+03 -4.82816E+03
  4.72780E+03 -2.77650E+03  6.02802E+03 -1.26162E+02  4.45972E+03  3.74227E+03  1.15012E+03  5.57939E+03
 -1.91269E+03  4.92124E+03 -2.86050E+03  1.88794E+03 -1.58469E+03 -7.86658E+02 -7.52987E+02 -3.79686E+02
 -7.95911E+02  1.77763E+01 -8.05471E+02  2.21239E+03 -2.61428E+03  1.03768E+03 -3.44326E+03 -3.32240E+02
 -1.24431E+03 -3.18196E+03  7.22376E+02 -3.81215E+03  2.34461E+03 -3.84796E+03  2.91124E+03 -1.03986E+03
  3.06715E+03  2.36049E+03  9.69932E+02  2.60730E+03 -8.39332E+02  3.59170E+03 -1.80985E+03  2.37295E+03
 -2.73506E+03  1.82602E+02 -2.60151E+03 -1.63824E+03  2.62836E+01 -2.04597E+03  1.07575E+03 -2.10471E+03
  2.22561E+03 -1.15094E+03  1.31650E+03  3.28811E+02  5.32370E+01  8.74218E+02  7.24568E+02  9.29504E+02
  1.80048E+03  5.50362E+02  1.38231E+03  1.49153E+03  1.00163E+03  2.10721E+03  1.29940E+03  1.92620E+03
 -1.26147E+03  2.05218E+03 -1.65277E+03  3.47701E+03 -2.33536E+03  1.12631E+03 -3.36154E+03  5.33509E+02
 -1.26010E+03 -3.16842E+03  9.28637E+02 -3.74927E+03  1.56755E+03 -2.27821E+03  2.79782E+03 -7.06975E+02
  1.74494E+03  1.47680E+03  3.60657E+02  1.99240E+03 -2.98601E+02  9.91284E+02 -7.24240E+02  3.41658E+02
 -2.93056E+02 -9.62713E+02  1.11928E+03 -7.74280E+02  9.29400E+02 -7.07299E+02  8.77989E+02  2.96221E+02
  8.40823E+02  7.20971E+02  1.05287E+03 -1.35236E+02 -4.26516E+02  1.11391E+03  1.49455E+03 -2.38014E+02
  2.81894E+02 -5.71812E+02  1.55729E+03  1.07035E+02  4.11742E+01  2.04156E+03 -3.26451E+02  2.34439E+03
 -9.09594E+02  3.88462E+02 -1.37751E+03 -1.12529E+02 -1.91466E+03 -8.88716E+02  6.32556E+01 -5.10604E+02
 -1.20780E+02 -1.69235E+03  4.52666E+02 -8.76129E+02  5.35865E+02  1.05521E+03 -6.51548E+02  5.50331E+02
 -1.06238E+03  6.65059E+02 -6.13862E+02 -1.20058E+03 -2.76816E+02 -1.89038E+03  2.83420E+02 -1.10879E+03
  2.71204E+02 -6.40056E+02  1.07230E+02  5.56118E+02  9.43129E+02 -4.22608E+02  1.55167E+02  4.91311E+02
  1.70566E+02 -2.74255E+02 -8.14607E+02 -2.88381E+02  3.52426E+02 -7.22362E+02  1.11724E+03 -4.64949E+02
  8.38677E+02  5.12336E+01  2.61265E+03  3.26903E+02  8.20026E+02  1.39988E+03  1.26770E+02  7.78658E+02
 -1.00846E+03  1.04275E+02 -1.54153E+03  3.30424E+02 -3.29252E+02 -4.79115E+02  2.85795E+02  1.51709E+02
  8.61943E+02 -6.62739E+02  7.03086E+02  4.85548E+02 -2.16461E+02  1.20900E+03  3.49685E+02  7.57281E+02
 -1.32099E+02  8.10452E+02  1.65145E+02  6.25295E+02  2.45125E+02  2.18886E+02 -7.88536E+02  2.44691E+02
 -4.56614E+02  7.14611E+02 -1.23259E+03  3.77420E+02 -1.08588E+03  2.17365E+01 -1.98793E+03 -2.25638E+02
 -6.06814E+02 -1.63770E+03  7.05775E+02 -1.82509E+03  2.41277E+02 -1.72816E+03  2.20845E+03 -8.15081E+02
  1.11124E+03 -7.36644E+02  9.56695E+02  1.21288E+03 -8.07996E+02  1.45161E+03 -6.01256E+02  9.60081E+02
 -7.73066E+02  2.89294E+01 -6.40894E+02 -1.45966E+02 -2.62215E+02  3.70050E+02 -9.72924E+02 -2.99154E+02
 -8.78152E+02 -1.94647E+02 -1.06335E+03  2.55244E+02  2.86955E+02 -1.37108E+02 -3.57710E+02 -5.80450E+02
  1.01577E+03 -6.63507E+00  2.58562E+02 -5.98774E+01  5.41912E+02  5.10809E+02 -8.55062E+02  5.61261E+02
 -8.19775E+02  1.34041E+03 -8.85350E+02  5.38395E+02 -4.90432E+02  2.36749E+02 -3.35565E+02 -1.08048E+03
 -8.43338E+02 -5.03839E+02  4.45421E+02 -4.26907E+02 -3.85116E+02 -8.83165E+02  1.61765E+02  2.28157E+02
  1.80215E+02  5.35453E+02 -3.32442E+01  3.30764E+02  2.30974E+02 -3.47629E+01  9.57675E+01  4.33737E+01
  8.88860E+02  3.32927E+02  1.03530E+02  2.27831E+02 -4.37208E+02  2.96809E+02  1.51024E+02  1.03583E+02
 -3.56636E+02  7.39651E+02  1.97100E+02 -2.45391E+02 -2.80203E+02 -8.71926E+01 -1.64693E+02 -3.11170E+02
  2.40114E+02 -4.44038E+02  1.04392E+02  1.37580E+02  3.42684E+02 -1.01797E+03 -2.74757E+02  6.17220E+02
  5.26752E+02  1.84596E+02  2.36777E+02  1.23281E+02 -7.17710E+01  2.88594E+02  5.28706E+02  5.21398E+02
 -8.92285E+00 -1.35083E+02 -7.81767E+02 -1.68419E+02 -4.83159E+02  6.89551E+02 -7.13220E+02 -6.66749E+02
 -1.10228E+03  3.73255E+02 -9.01889E+01 -8.84558E+02  9.25454E+02 -1.35609E+03  3.87789E+02  3.17714E+02
  6.75925E+02 -3.16579E+02 -6.26945E+02  3.72189E+02 -5.42687E+02  7.02943E+02 -2.13970E+02 -1.25463E+02
