 $NMID ID='MM_0lb_SNR400_12hz_g40_81.RAW', FMTDAT='(8E13.5)'
 TRAMP=1., VOLUME=1. $END
  3.09562E+05  6.63650E+02  3.37784E+05  2.49922E+05  8.50825E+04  3.37476E+05 -1.32264E+05  2.51059E+05
 -1.90149E+05  8.29666E+04 -1.12061E+05 -3.26441E+04  4.17815E+02 -5.01982E+04  5.42624E+04 -1.11538E+02
  3.54382E+04  5.30824E+04 -1.69497E+04  7.54815E+04 -6.11409E+04  6.39556E+04 -8.40054E+04  3.21017E+04
 -8.13054E+04 -1.13760E+04 -5.75792E+04 -5.12185E+04 -1.52612E+04 -6.94816E+04  2.78333E+04 -4.58633E+04
  4.06718E+04  3.73518E+03  1.64238E+04  4.74637E+04 -3.48488E+04  4.75985E+04 -6.63964E+04 -5.80569E+02
 -5.37044E+04 -5.71354E+04 -6.45887E+03 -7.65833E+04  3.48454E+04 -5.56242E+04  4.90030E+04 -1.74896E+04
  4.40591E+04  1.15136E+04  3.24554E+04  2.47971E+04  1.62517E+04  2.96824E+04 -6.33932E+03  2.73959E+04
 -2.25142E+04  1.22755E+04 -1.90920E+04 -5.24822E+03  5.44383E+03 -7.64490E+03  2.23521E+04  1.22187E+04
  7.47653E+03  3.53545E+04 -3.16985E+04  3.56380E+04 -6.37106E+04  1.86172E+03 -5.75936E+04 -4.35965E+04
 -1.28124E+04 -6.40915E+04  4.03037E+04 -4.56390E+04  5.85933E+04 -2.14861E+03  3.41362E+04  3.26353E+04
 -5.96420E+03  3.63265E+04 -3.02739E+04  1.66746E+04 -3.06646E+04 -4.43860E+03 -1.68100E+04 -1.10461E+04
 -8.00706E+03 -1.34351E+04 -9.77734E+02 -1.83951E+04  7.85138E+03 -2.26694E+04  1.50613E+04 -1.32556E+04
  1.20313E+04  4.81695E+03 -9.30508E+03  1.26687E+04 -2.22744E+04 -4.60929E+03 -7.73263E+03 -3.46085E+04
  2.39645E+04 -4.39559E+04  4.89984E+04 -1.99898E+04  4.57096E+04  1.91887E+04  1.53051E+04  4.37935E+04
 -1.65423E+04  3.28469E+04 -2.55003E+04  2.52350E+03 -9.70842E+03 -2.83762E+04  2.13930E+04 -3.41094E+04
  4.15337E+04 -9.11974E+03  3.68583E+04  2.40866E+04  1.80831E+04  4.70351E+04 -8.09176E+03  5.09841E+04
 -3.22557E+04  3.45771E+04 -4.32089E+04  1.05764E+04 -4.35285E+04 -1.76549E+04 -2.42257E+04 -3.88640E+04
  7.20941E+03 -3.87567E+04  3.18459E+04 -1.51945E+04  3.06016E+04  1.12562E+04  4.50411E+03  1.99170E+04
 -1.42070E+04  8.83570E+03 -1.07117E+04 -7.67915E+03  6.39886E+03 -1.12147E+04  1.81135E+04  6.15237E+03
  1.33516E+04  2.22332E+04 -4.90567E+03  2.56906E+04 -2.19469E+04  1.15815E+04 -2.86589E+04 -5.23343E+03
 -2.16920E+04 -1.76802E+04 -9.50776E+03 -2.13318E+04  3.62006E+03 -2.08078E+04  1.67512E+04 -1.94181E+04
  2.70879E+04 -1.23546E+04  3.37519E+04  3.40733E+03  2.43456E+04  2.10438E+04  4.58000E+03  3.74380E+04
 -1.81635E+04  3.01589E+04 -2.82035E+04  1.06078E+04 -2.15979E+04 -1.07234E+04 -4.68766E+03 -1.33364E+04
  1.11614E+03 -2.57684E+03 -5.81696E+03  7.26755E+03 -1.67923E+04  5.08809E+03 -1.71692E+04 -8.61165E+03
 -1.07056E+04 -1.94951E+04  5.34732E+03 -2.46642E+04  1.54539E+04 -1.71044E+04  1.86516E+04 -1.85600E+03
  1.24648E+04  1.36524E+04 -1.96848E+03  2.03598E+04 -1.40260E+04  1.08453E+04 -1.96782E+04 -4.14679E+03
 -1.50270E+04 -1.78279E+04 -1.30179E+03 -2.34245E+04  1.04207E+04 -1.92733E+04  2.03454E+04 -9.76775E+03
  1.79537E+04 -1.50672E+02  1.42418E+04  4.40722E+03  6.90764E+03  1.86973E+03  9.95886E+03 -1.21488E+03
  1.82018E+04  2.96810E+03  1.99828E+04  1.55665E+04  1.33520E+04  3.13318E+04 -2.56624E+03  3.61194E+04
 -2.07553E+04  2.89205E+04 -3.37851E+04  1.47624E+04 -3.58381E+04 -3.08153E+03 -2.96480E+04 -2.10213E+04
 -1.22574E+04 -2.95256E+04  1.00593E+04 -2.64525E+04  2.27931E+04 -1.34496E+04  2.03484E+04  6.04731E+03
  7.77150E+03  1.49240E+04 -8.78902E+03  1.34036E+04 -1.67988E+04  2.96643E+03 -1.34882E+04 -1.06401E+04
 -3.00817E+02 -1.67341E+04  8.43077E+03 -1.22201E+04  1.09440E+04 -1.09525E+03  1.78493E+03  7.05111E+03
 -7.69859E+03  3.22733E+03 -6.82364E+03 -5.80672E+03 -8.57831E+02 -1.41565E+04  9.48920E+03 -1.61086E+04
  1.78647E+04 -8.14530E+03  1.96583E+04  3.03717E+03  1.69550E+04  1.40388E+04  8.20392E+03  2.28256E+04
 -4.45691E+03  2.43042E+04 -1.51240E+04  1.43023E+04 -1.79263E+04  4.05091E+03 -1.16771E+04 -4.28870E+03
 -5.78690E+03 -5.68688E+03 -1.38740E+03  6.78151E+01 -1.69875E+03  3.09948E+03 -5.15227E+03  4.89269E+03
 -1.13292E+04 -2.86323E+01 -1.18410E+04 -9.81778E+03 -4.31821E+03 -1.55308E+04  4.97173E+03 -1.16357E+04
  1.00679E+04 -5.34904E+03  7.46919E+03  4.04962E+03 -1.00379E+02  4.88708E+03 -5.43363E+03 -3.31605E+02
 -5.17542E+03 -7.52507E+03 -9.71783E+02 -1.20129E+04  6.02626E+03 -1.31258E+04  1.50002E+04 -6.28979E+03
  1.81424E+04  1.10956E+03  1.34300E+04  1.06040E+04  2.48458E+03  1.34064E+04 -7.28384E+03  1.23391E+04
 -9.94172E+03  3.65211E+03 -5.08266E+03 -2.58713E+03  1.29314E+03 -3.38313E+03  6.13330E+03 -1.00202E+03
  5.89729E+03  5.26714E+03  8.34111E+02  9.86121E+03 -6.90139E+03  9.07918E+03 -1.19716E+04  2.38589E+03
 -8.09477E+03 -6.63243E+03  7.78669E+02 -9.99510E+03  6.27914E+03 -5.71200E+03  6.61791E+03  1.82647E+03
  1.40917E+03  6.61936E+03 -6.01185E+03  8.50849E+03 -9.92298E+03  3.65537E+03 -9.06359E+03 -3.92024E+03
 -5.74424E+03 -1.12609E+04  2.21137E+03 -1.30363E+04  1.13211E+04 -7.89324E+03  1.18167E+04  2.52640E+03
  7.29302E+03  9.59588E+03 -6.01701E+02  1.17381E+04 -8.66021E+03  7.40578E+03 -9.23546E+03 -1.09162E+03
 -7.79004E+03 -7.51852E+03 -1.65274E+03 -8.21770E+03  5.03293E+03 -7.17553E+03  6.05228E+03 -2.90261E+03
  3.92004E+03  2.07160E+03 -1.23859E+03  1.77087E+03  1.98607E+01 -2.38558E+03  1.08799E+03 -4.70998E+03
  7.06181E+03 -3.03925E+03  1.08022E+04  1.16379E+03  1.03936E+04  7.10741E+03  7.95702E+03  1.44528E+04
 -3.48743E+03  1.63477E+04 -1.40468E+04  1.21123E+04 -1.78673E+04  3.10041E+03 -1.44421E+04 -5.77046E+03
 -7.59922E+03 -1.19244E+04 -1.07415E+03 -1.08142E+04  3.76069E+03 -5.61008E+03  3.62624E+03 -3.42402E+03
  2.02216E+03 -2.35441E+03  3.37857E+03 -3.70544E+03  4.36256E+03 -2.67370E+03  5.98959E+03 -2.25066E+02
  7.59595E+03  2.13423E+03  3.24117E+03  6.48043E+03 -2.58449E+03  6.79239E+03 -8.25692E+03  5.44281E+03
 -1.02185E+04 -1.48535E+03 -5.61709E+03 -6.62292E+03 -4.85919E+02 -1.05313E+04  6.24075E+03 -1.07159E+04
  1.06343E+04 -5.72525E+03  1.36028E+04  7.94009E+02  9.02932E+03  9.35211E+03  1.75503E+03  1.25168E+04
 -4.68017E+03  1.07598E+04 -6.72146E+03  3.45867E+03 -4.81878E+03 -2.03335E+03 -1.62345E+03 -1.48931E+03
 -1.13568E+00  1.40165E+01 -1.68159E+03  1.87773E+03 -3.80751E+03  1.49769E+03 -6.95727E+03 -1.24751E+03
 -4.23935E+03 -6.94664E+03  7.91136E+02 -8.89523E+03  5.94132E+03 -9.13993E+03  8.89411E+03 -2.78125E+03
  9.25886E+03  4.64684E+03  4.52946E+03  8.92265E+03 -1.90429E+03  9.88089E+03 -6.88596E+03  5.55936E+03
 -8.99048E+03  7.17072E+02 -7.11306E+03 -6.34466E+03 -8.17505E+02 -7.99381E+03  4.79108E+03 -6.11649E+03
  6.54249E+03 -2.34172E+03  4.59558E+03  1.72820E+03  1.77681E+03  2.63698E+03  1.23216E+03  8.73136E+02
  2.14040E+03  9.99585E+02  1.90679E+03  8.86004E+02  3.09818E+03  3.53715E+03  2.54091E+03  4.55811E+03
 -2.23988E+03  7.26466E+03 -6.39022E+03  8.79371E+03 -9.06690E+03  2.76261E+03 -9.62827E+03 -3.35291E+03
 -4.79868E+03 -1.10404E+04  1.86839E+03 -1.00304E+04  5.44534E+03 -6.44531E+03  8.22823E+03 -2.16702E+03
  5.47816E+03  4.21037E+03  1.16312E+03  5.51281E+03 -2.41315E+03  3.12947E+03 -3.66637E+03 -9.21653E+02
 -1.96305E+03 -4.32413E+03  2.97117E+03 -4.13007E+03  3.89703E+03 -2.16479E+03  4.16489E+03  8.42531E+02
  1.77597E+03  1.57937E+03  1.49323E+03  1.10155E+03 -4.97430E+02  1.38482E+03  1.86140E+03  3.41848E+01
  1.58970E+03 -8.59505E+02  3.92863E+03  1.41191E+03  1.78736E+03  5.25702E+03 -1.27948E+03  6.25392E+03
 -4.54845E+03  4.28746E+03 -5.62513E+03  9.97377E+02 -5.60388E+03 -2.10647E+03 -2.11031E+03 -2.98967E+03
  6.96919E+02 -3.63222E+03  2.24239E+03 -1.48113E+03  2.03611E+03  2.34606E+03 -1.45453E+03  3.09335E+03
 -3.66259E+03  1.60147E+03 -4.67046E+03 -1.82178E+03 -2.40737E+03 -4.76026E+03  6.27390E+02 -4.38142E+03
  3.01515E+03 -3.05189E+03  2.48582E+03 -2.56015E+02  2.45531E+03  9.93359E+02  6.89193E+02  1.97046E+03
 -1.95317E+03  8.04953E+02 -2.21251E+03 -1.00210E+03  8.10115E+02 -4.20780E+03  4.04780E+03 -3.25708E+03
  5.07832E+03  2.36667E+02  6.67400E+03  3.46385E+03  1.68757E+03  5.73043E+03 -1.83079E+03  5.91991E+03
 -4.73182E+03  1.70333E+03 -5.23955E+03 -6.73535E+02 -2.46888E+03 -3.89206E+03  1.12290E+03 -3.32363E+03
  3.54384E+03 -1.91145E+03  3.04697E+03  1.63125E+03  5.89912E+02  2.68526E+03 -2.26611E+02  3.06999E+03
 -1.60421E+03  2.10762E+03 -1.66801E+03  8.54378E+02 -1.11979E+03  6.43794E+02 -9.32466E+02  1.59043E+03
 -1.82576E+03  2.40458E+03 -4.96806E+03  1.66774E+03 -6.31657E+03 -5.35771E+01 -5.88190E+03 -3.61005E+03
 -3.71898E+03 -7.83447E+03  1.46922E+03 -8.63670E+03  4.98089E+03 -6.19444E+03  8.39473E+03 -2.38160E+03
  7.63475E+03  1.57086E+03  3.87270E+03  5.43001E+03  4.59208E+02  5.60856E+03 -2.20693E+03  4.62553E+03
 -3.51920E+03  2.20921E+03 -1.68747E+03 -6.24224E+02 -3.49035E+02 -3.70452E+02 -3.94049E+02  1.60199E+02
 -1.53114E+03 -5.37143E+02 -1.69254E+03  3.57297E+01  4.30688E+02 -1.43654E+03 -5.04280E+02 -2.67246E+03
  2.89196E+03 -1.92175E+03  2.36668E+03  1.27096E+02  3.97337E+03  3.03609E+03  1.49986E+03  5.53025E+03
 -2.89380E+03  6.88612E+03 -6.00142E+03  4.04002E+03 -6.79340E+03 -4.40955E+02 -5.33193E+03 -3.65707E+03
 -1.61896E+03 -5.10848E+03  2.12607E+03 -5.01520E+03  3.20214E+03 -3.15321E+03  3.56899E+03  9.68194E+02
  1.79464E+03  1.37201E+03 -8.13929E+02  1.95748E+03 -1.11261E+03 -7.59375E+01 -6.70989E+00 -1.77008E+03
  1.67874E+03 -1.42036E+03  1.70547E+03  1.12452E+03  2.03390E+03  2.45217E+03  3.10715E+02  2.99762E+03
 -1.65857E+03  2.42203E+03 -3.98553E+03 -8.90801E+01 -3.02012E+03 -3.01480E+03 -2.51038E+02 -4.27510E+03
  2.68844E+03 -3.58691E+03  3.88029E+03 -5.68254E+02  3.48925E+03  7.74878E+02  2.15459E+03  3.25801E+03
  1.60940E+02  2.86824E+03 -1.24556E+03  2.78254E+03 -2.28154E+03  1.77731E+03 -1.45048E+03  7.59297E+02
 -1.20632E+03 -2.69682E+02 -1.95836E+03  5.85254E+02 -1.78346E+03  7.26340E+02 -2.01857E+03 -1.16233E+03
 -3.03636E+03 -1.12269E+03 -1.28312E+03 -3.99999E+03  1.70960E+03 -5.09748E+03  3.06227E+03 -1.69957E+03
  3.31963E+03  1.50630E+02  9.33821E+02  1.96625E+03 -1.70280E+01  3.56201E+03 -2.53128E+03  1.86612E+03
