 $NMID ID='MM_0lb_SNR400_15hz_g40_73.RAW', FMTDAT='(8E13.5)'
 TRAMP=1., VOLUME=1. $END
  3.09661E+05  6.05948E+02  3.37223E+05  2.50875E+05  8.38751E+04  3.37733E+05 -1.32695E+05  2.50526E+05
 -1.90393E+05  8.22629E+04 -1.11354E+05 -3.30476E+04  7.32897E+02 -5.00543E+04  5.38387E+04 -2.25173E+02
  3.55358E+04  5.27813E+04 -1.70033E+04  7.56061E+04 -6.04424E+04  6.32845E+04 -8.33501E+04  3.20086E+04
 -8.05496E+04 -1.11011E+04 -5.69257E+04 -5.07088E+04 -1.52120E+04 -6.84971E+04  2.73731E+04 -4.45001E+04
  3.98192E+04  3.85368E+03  1.55287E+04  4.71994E+04 -3.38645E+04  4.65219E+04 -6.67233E+04 -1.95805E+00
 -5.31869E+04 -5.62241E+04 -6.56449E+03 -7.64535E+04  3.33618E+04 -5.43384E+04  4.73513E+04 -1.70511E+04
  4.27078E+04  1.11712E+04  3.11989E+04  2.50509E+04  1.55754E+04  2.86908E+04 -4.57970E+03  2.72866E+04
 -2.18758E+04  1.25338E+04 -1.88965E+04 -4.48322E+03  5.21631E+03 -7.91826E+03  2.16834E+04  1.16477E+04
  7.17374E+03  3.42055E+04 -3.18621E+04  3.51732E+04 -6.19503E+04  1.97603E+03 -5.54349E+04 -4.25273E+04
 -1.21041E+04 -6.20870E+04  3.84181E+04 -4.41341E+04  5.61822E+04 -2.06458E+03  3.29609E+04  3.12736E+04
 -6.32025E+03  3.46540E+04 -2.94914E+04  1.52547E+04 -2.87453E+04 -4.95301E+03 -1.53299E+04 -1.07588E+04
 -7.75782E+03 -1.24290E+04 -5.28629E+02 -1.73746E+04  7.13694E+03 -2.23757E+04  1.50801E+04 -1.32325E+04
  1.16386E+04  4.99262E+03 -6.52477E+03  1.26563E+04 -2.07286E+04 -4.33815E+03 -8.17469E+03 -3.15909E+04
  2.21156E+04 -4.25320E+04  4.68243E+04 -1.93357E+04  4.42231E+04  1.94489E+04  1.54816E+04  4.30953E+04
 -1.54538E+04  3.21430E+04 -2.40133E+04  1.51483E+03 -8.82502E+03 -2.70472E+04  2.04325E+04 -3.20846E+04
  4.02556E+04 -8.43693E+03  3.37842E+04  2.30819E+04  1.73813E+04  4.46743E+04 -7.56768E+03  4.79490E+04
 -3.04598E+04  3.18821E+04 -3.94326E+04  9.06950E+03 -4.04696E+04 -1.60811E+04 -2.29234E+04 -3.63294E+04
  7.45953E+03 -3.61865E+04  2.99398E+04 -1.37279E+04  2.80616E+04  1.07091E+04  3.21517E+03  1.84305E+04
 -1.33103E+04  7.14350E+03 -9.72771E+03 -7.57306E+03  5.98986E+03 -1.07793E+04  1.72082E+04  5.98293E+03
  1.33422E+04  2.13498E+04 -6.40404E+03  2.42810E+04 -2.19297E+04  1.08999E+04 -2.59687E+04 -5.04668E+03
 -1.81643E+04 -1.69135E+04 -7.54017E+03 -1.93861E+04  4.10996E+03 -1.76749E+04  1.45708E+04 -1.66627E+04
  2.40255E+04 -1.21328E+04  3.06013E+04  2.34605E+03  2.23691E+04  1.82503E+04  3.72952E+03  3.47491E+04
 -1.68448E+04  2.91140E+04 -2.72242E+04  9.80719E+03 -2.04099E+04 -1.05355E+04 -4.17334E+03 -1.32015E+04
  2.49012E+03 -2.86955E+03 -4.37574E+03  6.10592E+03 -1.54119E+04  5.56446E+03 -1.47339E+04 -6.73141E+03
 -9.72500E+03 -1.73875E+04  5.21396E+03 -2.11520E+04  1.40817E+04 -1.56260E+04  1.70133E+04 -1.70453E+03
  1.00213E+04  1.18139E+04 -1.01162E+03  1.76683E+04 -1.20512E+04  1.00597E+04 -1.75667E+04 -2.62474E+03
 -1.28869E+04 -1.55275E+04 -1.32542E+03 -2.12813E+04  9.51083E+03 -1.71108E+04  1.80463E+04 -8.42640E+03
  1.59846E+04  4.99470E+02  1.18734E+04  4.26986E+03  6.07260E+03  8.61967E+02  8.79946E+03 -1.41609E+03
  1.60668E+04  2.53911E+03  1.70893E+04  1.41597E+04  1.12441E+04  2.71484E+04 -3.60732E+03  3.06569E+04
 -1.81856E+04  2.45513E+04 -2.86637E+04  1.24028E+04 -2.95470E+04 -2.07658E+03 -2.47781E+04 -1.71557E+04
 -1.07028E+04 -2.46384E+04  8.23175E+03 -2.24765E+04  1.98413E+04 -1.23825E+04  1.78745E+04  4.24756E+03
  6.55644E+03  1.27136E+04 -8.25949E+03  1.12003E+04 -1.48536E+04  2.32118E+03 -1.12782E+04 -8.61478E+03
 -1.47453E+02 -1.39989E+04  6.65135E+03 -1.02524E+04  9.33182E+03 -1.40524E+03  1.59762E+03  5.25956E+03
 -6.53310E+03  1.99001E+03 -4.36642E+03 -5.43308E+03 -2.78508E+02 -1.26598E+04  8.90170E+03 -1.25051E+04
  1.48441E+04 -5.33617E+03  1.52356E+04  2.75138E+03  1.31867E+04  1.18812E+04  6.33564E+03  1.76351E+04
 -2.71665E+03  1.96115E+04 -1.18966E+04  1.22568E+04 -1.33815E+04  2.94077E+03 -1.04922E+04 -2.56783E+03
 -5.44808E+03 -4.07343E+03 -4.91539E+02  1.12451E+03 -2.25697E+03  2.82653E+03 -4.31593E+03  3.74034E+03
 -9.68374E+03 -4.99487E+02 -9.40737E+03 -8.96456E+03 -4.06211E+03 -1.38589E+04  4.04829E+03 -1.07177E+04
  8.26033E+03 -4.78604E+03  6.49708E+03  2.81914E+03  3.89353E+02  3.74021E+03 -4.74946E+03 -9.59271E+01
 -4.50814E+03 -6.33605E+03 -1.14158E+03 -9.45044E+03  5.19420E+03 -9.97907E+03  1.19787E+04 -4.96297E+03
  1.49177E+04  1.22676E+03  1.06134E+04  7.88580E+03  2.04589E+03  1.16554E+04 -6.33698E+03  9.53227E+03
 -8.44183E+03  3.07647E+03 -4.13192E+03 -1.67723E+03  1.99475E+03 -2.33868E+03  5.68637E+03 -9.98074E+02
  4.85334E+03  4.45332E+03  6.89704E+02  7.39591E+03 -5.86993E+03  8.16739E+03 -1.03843E+04  2.71876E+03
 -6.82885E+03 -4.72468E+03  5.27257E+02 -8.49509E+03  4.65658E+03 -4.16058E+03  4.72794E+03  1.38298E+03
  8.26516E+02  4.68324E+03 -4.94765E+03  5.68021E+03 -7.58627E+03  2.86856E+03 -6.85541E+03 -1.94851E+03
 -3.46915E+03 -8.57308E+03  1.61737E+03 -1.01607E+04  8.11898E+03 -6.27360E+03  8.51568E+03  2.00930E+03
  6.20284E+03  7.18543E+03 -7.83825E+02  8.88786E+03 -6.26661E+03  4.86046E+03 -7.23925E+03 -7.69159E+02
 -7.08817E+03 -6.11723E+03 -1.78592E+03 -6.75260E+03  3.59352E+03 -5.85900E+03  4.18527E+03 -3.30612E+03
  3.42394E+03  8.34406E+02 -1.28120E+01  1.46977E+03  1.06840E+03 -1.22620E+03  7.16627E+02 -3.64567E+03
  5.60982E+03 -1.41248E+03  8.19539E+03  6.87404E+02  8.19034E+03  4.61842E+03  6.21411E+03  1.03570E+04
 -2.25684E+03  1.19965E+04 -1.01639E+04  8.97724E+03 -1.36355E+04  1.62935E+03 -1.08953E+04 -3.92973E+03
 -6.02825E+03 -8.53493E+03 -3.74356E+02 -6.93274E+03  2.47860E+03 -3.73594E+03  2.21610E+03 -3.13119E+03
  1.55399E+03 -1.95314E+03  2.74037E+03 -2.65460E+03  3.87683E+03 -1.89337E+03  4.49762E+03 -2.48623E+02
  5.49345E+03  1.88773E+03  2.79701E+03  4.69799E+03 -1.81146E+03  4.60713E+03 -5.65904E+03  3.58824E+03
 -7.45727E+03 -1.56373E+03 -3.17313E+03 -5.04898E+03  1.50505E+02 -7.66989E+03  4.35866E+03 -7.61019E+03
  7.81030E+03 -4.43834E+03  9.75583E+03  5.86380E+02  6.99180E+03  6.12081E+03  1.58655E+03  8.67976E+03
 -3.14433E+03  7.89738E+03 -5.32262E+03  2.75542E+03 -3.34647E+03 -9.67811E+02 -1.31493E+03 -5.27496E+02
 -9.04707E+02  4.53575E+01 -1.53537E+03  2.62874E+03 -3.88205E+03  1.09084E+03 -5.32406E+03 -8.96428E+02
 -2.29034E+03 -5.52220E+03  7.37544E+02 -6.38284E+03  3.77679E+03 -6.15372E+03  5.40629E+03 -1.19962E+03
  6.45225E+03  2.52375E+03  3.09441E+03  4.64713E+03 -1.75466E+03  6.76690E+03 -4.15014E+03  4.04952E+03
 -6.09161E+03  8.40512E+02 -5.08759E+03 -3.89630E+03 -4.06879E+02 -5.07590E+03  2.36767E+03 -4.14958E+03
  4.65123E+03 -1.46124E+03  2.99477E+03  6.00204E+02  6.87822E+02  1.82197E+03  8.46918E+02  1.04396E+03
  2.24775E+03  4.98205E+02  1.87284E+03  1.26067E+03  1.85369E+03  3.22095E+03  1.95164E+03  3.25003E+03
 -1.73493E+03  4.85138E+03 -3.98290E+03  6.15619E+03 -5.59087E+03  1.83923E+03 -6.82321E+03 -1.99731E+03
 -3.35042E+03 -6.43245E+03  1.02363E+03 -6.87358E+03  3.80615E+03 -3.89983E+03  5.43365E+03 -1.60622E+03
  3.77036E+03  2.44207E+03  1.37347E+03  3.59061E+03 -1.97976E+03  2.12708E+03 -2.12851E+03  7.13194E+02
 -1.45070E+03 -2.81689E+03  1.51269E+03 -2.27133E+03  2.56846E+03 -1.81711E+03  2.06119E+03  9.39580E+02
  1.19156E+03  5.57643E+02  1.46108E+03  3.50850E+02 -2.51710E+02  4.11995E+02  1.62742E+03  3.07104E+01
  2.17812E+02 -6.88156E+02  2.54187E+03  7.06054E+02  1.15932E+03  3.59761E+03 -3.25560E+02  4.30793E+03
 -2.59904E+03  2.26466E+03 -3.82497E+03  9.65085E+02 -3.15028E+03 -1.26752E+03 -9.99762E+02 -2.27172E+03
  2.83039E+02 -2.22621E+03  1.54674E+03 -1.41881E+03  1.00049E+03  1.57727E+03 -1.87403E+03  1.76847E+03
 -2.08930E+03  1.22457E+03 -2.12810E+03 -1.54433E+03 -1.47032E+03 -3.75881E+03  1.75805E+02 -3.38964E+03
  1.46871E+03 -1.81693E+03  1.87369E+03  4.47538E+02  1.73486E+03  2.65087E+02  2.61981E+02  1.90581E+03
 -8.95274E+02  1.18453E+02 -1.02457E+03 -8.87759E+02  9.15482E+02 -2.23632E+03  2.58935E+03 -1.74168E+03
  3.22579E+03  2.54079E+02  4.23538E+03  2.24322E+03  1.88891E+03  3.06170E+03 -7.29582E+02  3.46405E+03
 -2.06960E+03  1.03731E+03 -3.26826E+03 -6.71443E+02 -1.88071E+03 -2.25302E+03  7.40314E+00 -1.60950E+03
  2.52293E+03 -1.25462E+03  1.15945E+03  1.66443E+03  1.58519E+02  2.90485E+03  2.20821E+02  1.91740E+03
 -8.86178E+02  1.48484E+03 -4.04721E+02  6.95350E+02 -3.27130E+02  5.03571E+02 -4.46085E+02  8.37521E+02
 -1.19576E+03  1.42739E+03 -2.97241E+03  9.54404E+02 -3.35381E+03  4.29790E+02 -3.95317E+03 -1.90746E+03
 -2.79538E+03 -4.38093E+03  9.02676E+02 -4.62884E+03  2.24542E+03 -4.34947E+03  5.40713E+03 -1.72092E+03
  5.24507E+03  1.43026E+02  2.35665E+03  3.16395E+03  2.04698E+02  3.39681E+03 -8.20208E+02  2.34136E+03
 -2.15244E+03  1.91514E+03 -1.03170E+03 -4.47582E+02 -8.63751E+02  6.48339E+02 -5.46999E+02  2.11698E+02
 -1.66359E+03 -5.63481E+02 -1.46685E+03 -2.48652E+02 -4.09223E+02 -1.41562E+03  1.71823E+02 -1.69087E+03
  1.82195E+03 -1.08579E+03  2.20172E+03  1.51972E+02  2.08638E+03  1.51557E+03 -1.81965E+02  2.95012E+03
 -1.82368E+03  4.07878E+03 -3.20002E+03  2.51297E+03 -3.89564E+03 -2.51415E+01 -2.26163E+03 -2.39421E+03
 -6.35093E+02 -3.48783E+03  8.54653E+02 -2.48132E+03  2.15468E+03 -1.88973E+03  2.01193E+03 -1.02678E+02
  6.86125E+02  8.14504E+02  4.05510E+02  3.75795E+02 -6.72769E+02  4.63332E+02 -3.80088E+02 -1.03063E+03
  1.18373E+03  2.41297E+02  4.38400E+02  8.93068E+02  5.75126E+02  1.33389E+03  9.90692E+01  8.33786E+02
 -1.35950E+03  1.14596E+03 -1.77728E+03  4.34142E+02 -2.30432E+03 -1.43096E+03  2.42386E+01 -2.83655E+03
  9.79271E+02 -2.11551E+03  1.66995E+03 -5.58985E+02  2.18097E+03 -7.33660E+01  1.13363E+03  1.53004E+03
  1.68817E+02  1.17742E+03 -7.76268E+02  1.76790E+03 -6.90586E+02  9.56046E+02 -1.06272E+03  4.27310E+02
 -5.75809E+02 -4.46511E+02 -2.33763E+02  2.31309E+01 -6.56146E+02  7.58739E+02 -1.49341E+03 -2.90632E+02
 -2.46983E+03 -5.05212E+02 -5.56692E+02 -1.80522E+03  1.29276E+03 -2.60075E+03  1.78567E+03 -7.68907E+02
  1.72056E+03 -3.46960E+02  1.19764E+02  4.71667E+02 -2.35833E+01  1.53523E+03 -1.43132E+03  1.48137E+03
