 $NMID ID='MM_0lb_SNR400_20hz_g45_53.RAW', FMTDAT='(8E13.5)'
 TRAMP=1., VOLUME=1. $END
  3.09901E+05  3.95693E+02  3.37442E+05  2.50514E+05  8.41809E+04  3.37515E+05 -1.32660E+05  2.49624E+05
 -1.89187E+05  8.20649E+04 -1.10669E+05 -3.27427E+04  1.43983E+03 -4.96724E+04  5.37541E+04  7.61779E+02
  3.47873E+04  5.28987E+04 -1.68545E+04  7.42088E+04 -6.01732E+04  6.20098E+04 -8.24702E+04  3.15950E+04
 -7.88858E+04 -1.10872E+04 -5.59159E+04 -4.99952E+04 -1.46996E+04 -6.79253E+04  2.66918E+04 -4.43234E+04
  3.86841E+04  3.57145E+03  1.56851E+04  4.66740E+04 -3.37009E+04  4.57949E+04 -6.52247E+04 -7.66843E+02
 -5.08919E+04 -5.51932E+04 -5.86808E+03 -7.38678E+04  3.25111E+04 -5.29116E+04  4.57186E+04 -1.60267E+04
  4.13664E+04  1.05631E+04  3.04678E+04  2.41172E+04  1.58945E+04  2.77069E+04 -4.24251E+03  2.61081E+04
 -2.16189E+04  1.23770E+04 -1.89457E+04 -3.96569E+03  3.79809E+03 -7.51815E+03  2.09889E+04  9.60291E+03
  7.16550E+03  3.27343E+04 -3.01265E+04  3.35019E+04 -6.06078E+04  2.93144E+03 -5.42822E+04 -4.06674E+04
 -1.25444E+04 -5.98646E+04  3.75761E+04 -4.25175E+04  5.44726E+04 -1.53750E+03  3.08214E+04  3.03953E+04
 -6.62221E+03  3.19726E+04 -2.81624E+04  1.23389E+04 -2.68393E+04 -5.86785E+03 -1.40554E+04 -9.57371E+03
 -6.99188E+03 -1.09988E+04 -1.55026E+03 -1.63782E+04  6.83203E+03 -2.25369E+04  1.52808E+04 -1.35371E+04
  1.24910E+04  3.68838E+03 -5.71574E+03  1.30901E+04 -1.90189E+04 -1.97067E+03 -7.95289E+03 -2.97322E+04
  2.03825E+04 -3.96387E+04  4.31597E+04 -1.85450E+04  4.08264E+04  1.78436E+04  1.38087E+04  4.06541E+04
 -1.53274E+04  3.02053E+04 -2.26781E+04  9.75311E+02 -8.43268E+03 -2.60134E+04  2.02384E+04 -2.98278E+04
  3.66593E+04 -6.51618E+03  3.00519E+04  2.20174E+04  1.43025E+04  4.13941E+04 -7.77774E+03  4.32819E+04
 -2.79437E+04  2.84298E+04 -3.58206E+04  8.11947E+03 -3.68945E+04 -1.42440E+04 -2.01957E+04 -3.31957E+04
  6.62449E+03 -3.29786E+04  2.83090E+04 -1.17509E+04  2.60657E+04  1.12048E+04  2.99814E+03  1.69653E+04
 -1.33692E+04  6.82678E+03 -9.30475E+03 -7.57305E+03  5.97886E+03 -9.87704E+03  1.73353E+04  6.22016E+03
  1.22398E+04  2.11416E+04 -6.58756E+03  2.28680E+04 -2.08989E+04  8.16189E+03 -2.43448E+04 -6.65038E+03
 -1.53315E+04 -1.60894E+04 -4.73581E+03 -1.56237E+04  3.56642E+03 -1.32020E+04  1.13540E+04 -1.26532E+04
  1.96153E+04 -1.06831E+04  2.64629E+04  4.66599E+02  2.05063E+04  1.47733E+04  3.89515E+03  3.11637E+04
 -1.52586E+04  2.63656E+04 -2.51073E+04  9.13881E+03 -1.90049E+04 -1.05480E+04 -3.74521E+03 -1.45192E+04
  3.11588E+03 -5.05246E+03 -2.05933E+03  5.13683E+03 -1.17412E+04  4.90410E+03 -1.30196E+04 -4.57632E+03
 -8.30768E+03 -1.42787E+04  3.97722E+03 -1.81689E+04  1.17429E+04 -1.33763E+04  1.35240E+04 -9.59569E+02
  8.12722E+03  9.90444E+03 -7.43256E+02  1.44701E+04 -8.78738E+03  8.09789E+03 -1.46011E+04 -3.47573E+03
 -1.15795E+04 -1.35527E+04 -1.58432E+03 -1.72712E+04  8.57578E+03 -1.44145E+04  1.51366E+04 -6.86234E+03
  1.38096E+04  7.23166E+02  1.00365E+04  3.76693E+03  4.73405E+03  2.45955E+02  7.07418E+03 -1.30628E+03
  1.32526E+04  2.69459E+03  1.30123E+04  1.22604E+04  7.82553E+03  2.29416E+04 -3.20502E+03  2.41756E+04
 -1.45327E+04  1.80463E+04 -2.21512E+04  8.63094E+03 -2.31016E+04 -1.05996E+03 -1.97431E+04 -1.29870E+04
 -8.60109E+03 -1.81497E+04  6.50725E+03 -1.70341E+04  1.46607E+04 -1.02875E+04  1.43186E+04  2.89383E+03
  6.30032E+03  1.03457E+04 -6.86218E+03  9.08257E+03 -1.24360E+04  2.89384E+03 -9.34895E+03 -7.32565E+03
 -4.81491E+02 -1.14993E+04  5.21317E+03 -8.89430E+03  7.41568E+03 -1.67575E+03  1.08779E+03  4.45763E+03
 -5.12108E+03  1.08344E+03 -3.49684E+03 -4.43808E+03  6.68686E+02 -9.66532E+03  7.32189E+03 -8.78536E+03
  1.10135E+04 -3.41500E+03  1.02570E+04  2.50346E+03  9.45730E+03  8.11636E+03  4.57927E+03  1.24103E+04
 -1.14916E+03  1.42651E+04 -8.10606E+03  8.65601E+03 -9.95631E+03  2.47700E+03 -7.58414E+03 -1.26029E+03
 -4.18005E+03 -2.84400E+03 -9.65206E+02  1.53744E+03 -1.68616E+03  1.62568E+03 -3.49802E+03  3.15412E+03
 -7.57019E+03 -8.05594E+02 -7.58052E+03 -6.77740E+03 -3.18509E+03 -1.03781E+04  3.26607E+03 -7.86576E+03
  6.32333E+03 -3.43833E+03  5.35552E+03  2.09344E+03  6.40653E+02  3.24254E+03 -3.03018E+03 -4.75639E+01
 -2.68644E+03 -5.34432E+03 -5.67687E+02 -6.23054E+03  4.10289E+03 -7.00746E+03  8.86709E+03 -3.63064E+03
  9.97313E+03  2.81764E+02  8.00209E+03  5.56447E+03  1.42424E+03  7.42041E+03 -4.93916E+03  7.13791E+03
 -6.78953E+03  2.60463E+03 -3.39029E+03 -8.47128E+02  9.35564E+02 -1.40129E+03  4.14935E+03 -1.07064E+03
  3.59548E+03  2.32543E+03  8.04041E+02  6.82299E+03 -4.05099E+03  5.88270E+03 -7.26856E+03  1.21902E+03
 -3.83700E+03 -3.15886E+03  7.77847E+02 -6.19720E+03  3.37354E+03 -3.35432E+03  3.18563E+03  8.57598E+02
  3.21766E+02  2.41246E+03 -3.63701E+03  4.00142E+03 -4.06966E+03  2.24077E+03 -4.09508E+03 -4.31149E+02
 -2.72751E+03 -4.86349E+03  7.90859E+02 -5.82615E+03  5.03304E+03 -3.85084E+03  5.04997E+03  9.59886E+02
  4.15001E+03  4.48851E+03  4.78259E+02  6.40973E+03 -4.08778E+03  3.49780E+03 -4.48635E+03 -7.62763E+01
 -5.08919E+03 -4.69117E+03 -1.38596E+03 -4.19783E+03  2.31992E+03 -4.20013E+03  2.57627E+03 -2.74298E+03
  2.04879E+03 -7.84344E+01  3.44708E+01  1.36309E+03  7.20595E+02 -1.88135E+01 -9.67186E+01 -1.20443E+03
  2.97658E+03 -4.67781E+02  4.25791E+03  6.52159E+02  4.49774E+03  1.90921E+03  5.21161E+03  5.67095E+03
 -7.24811E+02  7.09831E+03 -6.29596E+03  4.80255E+03 -8.45569E+03  1.43717E+03 -6.39613E+03 -2.47924E+03
 -3.50481E+03 -5.07832E+03 -5.85094E+02 -4.01399E+03  1.78715E+03 -2.09293E+03  1.37377E+03 -1.53482E+03
  1.06230E+03 -1.48561E+03  2.32361E+03 -2.14796E+03  3.45541E+03 -8.95220E+02  3.36419E+03  5.59072E+02
  3.68461E+03  1.30005E+03  4.41428E+02  2.43062E+03 -1.26492E+03  1.68145E+03 -3.74371E+03  2.00003E+03
 -3.64872E+03 -1.16684E+03 -1.02754E+03 -2.62370E+03  9.98866E+02 -3.64460E+03  2.27266E+03 -4.13244E+03
  3.61728E+03 -2.64712E+03  5.81214E+03 -3.89147E+01  3.90134E+03  3.35328E+03  1.09971E+03  4.88093E+03
 -1.52570E+03  5.46782E+03 -2.76794E+03  1.71575E+03 -1.14164E+03 -1.17489E+03 -4.96008E+02 -8.09927E+02
  1.50441E+01  2.07903E+02 -8.46896E+02  2.09544E+03 -2.38459E+03  1.25110E+03 -3.72628E+03 -2.45299E+02
 -3.63926E+02 -3.28845E+03  8.61911E+02 -3.92024E+03  2.30572E+03 -3.59798E+03  2.88154E+03 -5.97464E+02
  3.53889E+03  2.08167E+03  1.04288E+03  2.90532E+03 -2.78927E+02  3.28770E+03 -1.40845E+03  1.73819E+03
 -3.21588E+03  2.07846E+02 -2.68731E+03 -1.93172E+03 -6.86001E+02 -2.99671E+03  1.17767E+03 -2.38026E+03
  1.71595E+03 -9.83658E+02  1.03150E+03  2.23302E+02  3.67370E+02  1.88772E+03  1.09990E+03  5.88514E+02
  1.41870E+03  2.55937E+02  7.23508E+02  8.42956E+02  6.86048E+02  1.90918E+03  8.55994E+02  1.09828E+03
 -9.74936E+02  2.66651E+03 -1.67235E+03  3.38484E+03 -2.11264E+03  4.33899E+02 -3.12494E+03  8.81753E+01
 -1.60725E+03 -2.36410E+03  2.58342E+02 -3.81091E+03  9.85568E+02 -2.02828E+03  2.99934E+03 -1.39703E+03
  2.06683E+03  1.86027E+03  8.61888E+01  1.26513E+03 -5.93268E+01  1.07605E+03 -5.31645E+02 -5.28219E+02
 -3.02245E+02 -8.64819E+02  9.44572E+02 -8.31420E+02  1.05767E+03 -8.79336E+02  9.61807E+02  3.70845E+02
  3.62504E+02 -3.55935E+02  1.28831E+03 -5.49623E+02 -6.86445E+02  7.32762E+02  1.88937E+03 -4.07627E+02
 -4.93097E+02 -2.27797E+02  1.56170E+03  6.61787E+02  4.76929E+02  2.05512E+03 -6.33074E+02  2.07672E+03
 -1.10008E+03  3.89922E+02 -1.61274E+03  5.27078E+02 -1.90519E+03 -2.39276E+02  2.00181E+02 -7.45651E+00
  7.24530E+02 -1.10569E+03  3.46084E+02 -6.34675E+02  5.16568E+02  1.04815E+03 -6.67810E+02  7.46635E+02
 -1.09137E+03  5.99442E+02 -3.73618E+02 -1.69312E+03 -8.75723E+02 -2.04936E+03 -3.08459E+02 -7.78566E+02
 -1.88462E+02 -2.91454E+02 -2.63593E+01  1.59209E+02  1.41222E+03 -2.07902E+02  2.65578E+02  1.06035E+03
  5.31658E+02  3.21151E+02 -4.34855E+02  1.43512E+02  1.07203E+03  2.35003E+01  1.51038E+03 -6.70864E+02
  6.29221E+02 -3.52764E+01  1.91852E+03  6.64608E+02  1.16483E+03  7.84106E+02 -2.82617E+02  1.96724E+03
 -1.39118E+03  2.26974E+00 -1.34730E+03  1.44230E+02 -1.34894E+02 -1.16614E+03 -1.44458E+02 -1.35081E+01
  7.38909E+02 -1.44291E+02  1.59558E+02  5.76066E+02  4.36407E+02  7.94558E+02 -1.68250E+02  1.02824E+03
 -1.67609E+02  2.94687E+02 -4.75410E+02 -8.42419E+01  2.79689E+02  6.31783E+02 -8.72577E+02  4.27203E+02
 -3.98911E+02  6.65189E+02 -1.36361E+03  2.19933E+01 -8.93513E+02  1.54301E+02 -1.88443E+03 -3.28188E+02
 -4.74143E+02 -1.35497E+03  5.45049E+02 -2.04009E+03  5.25732E+02 -1.82109E+03  1.79464E+03 -9.44938E+02
  1.61374E+03 -5.91688E+02  6.34864E+02  5.79081E+02 -6.17501E+02  8.03475E+02 -1.78580E+02  9.13215E+02
 -4.11685E+02  4.00440E+02 -6.54910E+02 -1.78467E+01 -1.12103E+02  1.15565E+02 -7.69690E+02 -9.10076E+01
 -9.10594E+02 -3.59247E+02 -5.65268E+02 -7.91361E+01 -5.90666E+01 -5.32319E+02 -4.41758E+02 -1.12081E+03
  9.84577E+02 -3.54630E+02  1.11658E+02  6.00794E+02  6.84199E+02  3.53951E+02 -6.77820E+02  1.02762E+03
 -8.79932E+02  2.05599E+03 -1.43602E+03  6.34111E+02 -1.45871E+03 -1.41511E+02 -6.13958E+02 -1.32207E+03
 -4.32723E+02 -9.53802E+02  1.00238E+02 -1.15686E+03  6.50714E+02 -1.61513E+02  3.90380E+02  4.12468E+02
  7.00122E+02  2.33714E+02  3.47724E+02  2.35480E+02 -3.33626E+02 -1.38877E+02 -2.27029E+02  2.36895E+02
  5.47703E+02  8.30067E+02  9.86952E+00  3.90143E+02 -4.66567E+01 -3.46328E+02  5.02931E+02  1.75702E+02
 -4.39353E+02 -1.06073E+02 -2.61382E+02  2.63449E+02 -6.90076E+02 -4.82871E+02  2.77168E+01 -1.04106E+03
  4.17526E+02  3.32065E+01  4.24341E+02  1.03867E+02  8.90639E+02 -8.33253E+02 -3.75330E+02  8.12914E+02
 -6.04378E+02  6.87578E+02  4.94161E+01  2.30584E+02 -9.86013E+02  7.17779E+02 -4.40823E+01  5.51835E+02
 -3.16360E+02 -2.02026E+02 -6.09638E+02 -4.55675E+01 -4.96408E+02  1.05780E+02 -6.34073E+02 -4.83045E+02
 -9.60434E+02  4.05940E+02 -4.98334E+02 -2.39312E+02  7.60108E+02 -1.02535E+03  4.97368E+02  3.11643E+02
  5.33730E+02 -5.06342E+02  1.33895E+02 -3.08768E+02 -6.56878E+02  1.06359E+03 -5.22570E+02  7.73101E+02
