 $NMID ID='MM_0lb_SNR400_8hz_g50_37.RAW', FMTDAT='(8E13.5)'
 TRAMP=1., VOLUME=1. $END
  3.09217E+05  4.04604E+02  3.37442E+05  2.50564E+05  8.49156E+04  3.39198E+05 -1.32469E+05  2.51598E+05
 -1.91883E+05  8.40117E+04 -1.12686E+05 -3.18226E+04  1.95271E+02 -5.07164E+04  5.30518E+04 -1.75148E+02
  3.58368E+04  5.31660E+04 -1.69727E+04  7.59550E+04 -6.16018E+04  6.48054E+04 -8.61753E+04  3.31018E+04
 -8.33779E+04 -1.19985E+04 -5.80803E+04 -5.24424E+04 -1.47983E+04 -7.20435E+04  2.80928E+04 -4.68848E+04
  4.13886E+04  3.22771E+03  1.68075E+04  4.88226E+04 -3.49650E+04  4.81535E+04 -6.87195E+04 -6.64713E+02
 -5.52744E+04 -5.81049E+04 -7.51203E+03 -7.99648E+04  3.49884E+04 -5.85113E+04  4.98799E+04 -1.86485E+04
  4.48286E+04  1.23669E+04  3.31296E+04  2.63316E+04  1.57747E+04  3.05033E+04 -5.93306E+03  2.77042E+04
 -2.31813E+04  1.26250E+04 -1.77465E+04 -6.79116E+03  7.56588E+03 -7.00413E+03  2.40623E+04  1.45451E+04
  7.44927E+03  3.78585E+04 -3.39238E+04  3.79894E+04 -6.54144E+04  2.21039E+03 -5.92906E+04 -4.43512E+04
 -1.20393E+04 -6.63179E+04  4.18741E+04 -4.83175E+04  6.17846E+04 -2.98885E+03  3.69891E+04  3.45559E+04
 -4.86976E+03  4.00255E+04 -3.26608E+04  1.89596E+04 -3.39765E+04 -3.20761E+03 -1.93229E+04 -1.27991E+04
 -1.00572E+04 -1.57903E+04 -3.52210E+01 -1.96689E+04  8.71021E+03 -2.31275E+04  1.60620E+04 -1.17611E+04
  1.00945E+04  6.43859E+03 -1.07271E+04  1.26177E+04 -2.35878E+04 -6.60220E+03 -8.07955E+03 -3.89993E+04
  2.56968E+04 -4.68595E+04  5.28809E+04 -2.03448E+04  4.93432E+04  2.07222E+04  1.75998E+04  4.88118E+04
 -1.71458E+04  3.63367E+04 -2.73487E+04  2.29060E+03 -1.26021E+04 -2.98608E+04  2.17088E+04 -3.70744E+04
  4.59583E+04 -1.05633E+04  4.17006E+04  2.51267E+04  2.23267E+04  5.15400E+04 -8.00114E+03  5.72823E+04
 -3.54962E+04  3.92212E+04 -4.85590E+04  1.12199E+04 -4.88110E+04 -1.83328E+04 -2.69983E+04 -4.41825E+04
  7.71716E+03 -4.35307E+04  3.41388E+04 -1.82991E+04  3.18659E+04  1.05845E+04  5.14734E+03  2.11813E+04
 -1.38567E+04  1.06167E+04 -1.12957E+04 -7.75016E+03  6.19348E+03 -1.19555E+04  1.89846E+04  6.00148E+03
  1.48051E+04  2.36184E+04 -5.49720E+03  2.67666E+04 -2.36428E+04  1.53740E+04 -3.20085E+04 -2.24157E+03
 -2.59508E+04 -1.85389E+04 -1.26679E+04 -2.57211E+04  4.03472E+03 -2.69037E+04  2.05281E+04 -2.45038E+04
  3.31904E+04 -1.46031E+04  4.02359E+04  4.64686E+03  2.72905E+04  2.54014E+04  4.69673E+03  4.18221E+04
 -2.04894E+04  3.52432E+04 -3.08519E+04  1.29471E+04 -2.24575E+04 -9.91011E+03 -5.32495E+03 -1.27920E+04
  1.67429E+03 -1.03957E+02 -8.84422E+03  9.50896E+03 -2.09530E+04  4.68396E+03 -2.01854E+04 -1.06509E+04
 -1.23662E+04 -2.34318E+04  6.04109E+03 -2.78988E+04  1.80485E+04 -2.01313E+04  2.36309E+04 -2.12274E+03
  1.49390E+04  1.74257E+04 -5.00919E+02  2.45586E+04 -1.73920E+04  1.32832E+04 -2.47565E+04 -5.09914E+03
 -1.84695E+04 -2.20405E+04 -2.48212E+03 -2.90840E+04  1.33995E+04 -2.43687E+04  2.48821E+04 -1.25391E+04
  2.25995E+04 -5.81645E+02  1.67137E+04  5.29963E+03  9.52096E+03  1.44996E+03  1.23069E+04 -2.07682E+03
  2.29076E+04  3.79427E+03  2.69409E+04  1.91151E+04  1.85504E+04  3.90937E+04 -2.09253E+03  4.62871E+04
 -2.72563E+04  3.90525E+04 -4.42032E+04  2.06564E+04 -4.59670E+04 -3.70217E+03 -3.75884E+04 -2.75076E+04
 -1.51596E+04 -3.95905E+04  1.37164E+04 -3.44716E+04  3.01971E+04 -1.56296E+04  2.60387E+04  8.89208E+03
  8.78251E+03  1.91164E+04 -1.19110E+04  1.65763E+04 -2.08438E+04  2.19323E+03 -1.51871E+04 -1.33128E+04
 -4.44236E+02 -1.96038E+04  1.06224E+04 -1.57135E+04  1.42836E+04 -1.59535E+03  3.75012E+03  9.55487E+03
 -1.06779E+04  3.94686E+03 -1.08471E+04 -7.79423E+03 -2.09889E+03 -1.95782E+04  1.28091E+04 -2.07711E+04
  2.44359E+04 -1.19723E+04  2.73211E+04  3.53005E+03  2.56690E+04  2.03816E+04  1.11770E+04  3.06273E+04
 -5.98718E+03  3.37649E+04 -2.16558E+04  2.12137E+04 -2.37903E+04  3.66940E+03 -1.55714E+04 -6.93501E+03
 -6.88053E+03 -7.42355E+03 -4.09257E+02  9.67711E+02 -2.43854E+03  3.37423E+03 -7.91297E+03  5.10971E+03
 -1.47399E+04 -1.37839E+03 -1.57412E+04 -1.28765E+04 -6.51560E+03 -2.01793E+04  5.82185E+03 -1.75470E+04
  1.31753E+04 -7.57609E+03  8.29723E+03  4.74247E+03 -4.78872E+02  6.88886E+03 -7.99028E+03  1.74414E+02
 -8.10624E+03 -1.06732E+04 -9.71064E+02 -1.59402E+04  1.00108E+04 -1.72268E+04  2.18638E+04 -9.01712E+03
  2.50459E+04  1.67928E+03  1.83085E+04  1.49272E+04  3.46863E+03  2.01173E+04 -1.03873E+04  1.71049E+04
 -1.34575E+04  4.47933E+03 -6.29555E+03 -2.86132E+03  1.94232E+03 -4.76368E+03  9.38874E+03 -1.06160E+03
  7.20814E+03  7.56137E+03  7.63729E+02  1.35952E+04 -1.05882E+04  1.17005E+04 -1.66123E+04  2.83424E+03
 -1.09058E+04 -9.88430E+03  3.77607E+02 -1.51540E+04  8.44507E+03 -8.10037E+03  1.02270E+04  3.66692E+03
  2.90416E+03  1.06411E+04 -8.58427E+03  1.30580E+04 -1.42923E+04  5.04353E+03 -1.50279E+04 -5.38450E+03
 -8.85840E+03 -1.69823E+04  4.92263E+03 -1.99940E+04  1.64330E+04 -1.17845E+04  1.78601E+04  3.72035E+03
  1.12117E+04  1.47874E+04 -1.93769E+03  1.65749E+04 -1.33377E+04  9.78946E+03 -1.37068E+04 -9.99752E+02
 -1.13906E+04 -1.14201E+04 -1.70880E+03 -1.26275E+04  6.74045E+03 -1.00125E+04  8.68333E+03 -3.44953E+03
  5.72561E+03  2.25005E+03 -1.10660E+03  2.30599E+03 -7.14872E+02 -4.04157E+03  3.14758E+03 -8.96402E+03
  1.23128E+04 -5.02152E+03  1.83673E+04  1.31206E+03  1.79261E+04  1.29735E+04  1.10445E+04  2.33408E+04
 -5.56738E+03  2.66529E+04 -2.13464E+04  1.91333E+04 -2.88316E+04  4.30424E+03 -2.30137E+04 -9.66865E+03
 -1.10483E+04 -1.71631E+04 -1.17700E+03 -1.60418E+04  6.30749E+03 -9.30493E+03  6.38001E+03 -6.58303E+03
  4.52933E+03 -3.20135E+03  3.70564E+03 -3.90765E+03  5.82951E+03 -4.58100E+03  8.81438E+03 -1.51477E+03
  1.24191E+04  2.48642E+03  6.89018E+03  1.05387E+04 -2.05334E+03  1.25878E+04 -1.23985E+04  9.67292E+03
 -1.64652E+04 -2.03202E+03 -1.03451E+04 -1.19609E+04 -2.21191E+03 -1.76186E+04  1.02546E+04 -1.80493E+04
  1.85197E+04 -9.50380E+03  2.19765E+04  3.35923E+03  1.47520E+04  1.55936E+04  1.82924E+03  2.00940E+04
 -7.66111E+03  1.63810E+04 -1.11900E+04  5.02375E+03 -7.93333E+03 -1.97447E+03 -3.50595E+03 -3.13379E+03
 -1.67798E+03 -1.16946E+02 -2.90742E+03  2.87749E+03 -6.95891E+03  2.68394E+03 -1.10094E+04 -1.52300E+03
 -8.08983E+03 -1.16484E+04 -3.80638E+02 -1.64994E+04  1.03931E+04 -1.43039E+04  1.72658E+04 -4.83251E+03
  1.65766E+04  8.62189E+03  7.60206E+03  1.53504E+04 -4.06609E+03  1.68937E+04 -1.18180E+04  1.07878E+04
 -1.55818E+04  4.80138E+02 -1.17793E+04 -9.80281E+03 -4.98982E+02 -1.38989E+04  7.79545E+03 -9.83375E+03
  1.10417E+04 -3.24799E+03  6.55616E+03  3.43091E+03  3.03644E+03  5.67868E+03  9.01682E+02  1.62386E+03
  2.54831E+03  1.37645E+03  4.21034E+03  1.95589E+03  4.47501E+03  5.42509E+03  4.60630E+03  8.46921E+03
 -2.88530E+03  1.47539E+04 -1.23436E+04  1.22994E+04 -1.79170E+04  3.39044E+03 -1.74850E+04 -6.95876E+03
 -8.48633E+03 -1.69107E+04  2.58300E+03 -1.86016E+04  1.15717E+04 -1.20017E+04  1.52011E+04 -3.62015E+03
  1.14260E+04  6.64639E+03  2.78977E+03  1.01072E+04 -4.56815E+03  6.24888E+03 -7.69591E+03 -1.18210E+03
 -2.60281E+03 -7.61186E+03  3.76055E+03 -8.01467E+03  7.26007E+03 -2.92122E+03  6.45328E+03  1.39842E+03
  4.47961E+03  3.97612E+03  1.38503E+03  3.53845E+03 -7.39295E+02  2.36263E+03  1.84874E+03  3.70884E+00
  2.55296E+03 -1.04452E+03  7.73894E+03  2.24994E+03  4.07532E+03  9.28338E+03 -1.90664E+02  1.15627E+04
 -7.87672E+03  8.00478E+03 -1.07834E+04  1.58765E+03 -1.04663E+04 -3.65677E+03 -3.59632E+03 -7.22918E+03
  7.43214E+02 -6.52042E+03  4.37854E+03 -3.72656E+03  2.99945E+03  3.07466E+03 -1.36111E+03  4.57029E+03
 -7.35833E+03  3.57256E+03 -8.40707E+03 -3.74890E+03 -5.09873E+03 -1.02628E+04  1.45779E+03 -9.54207E+03
  5.90379E+03 -6.64291E+03  6.56965E+03 -1.09759E+02  6.08115E+03  2.99349E+03  1.11378E+03  5.58478E+03
 -3.74777E+03  1.43719E+03 -4.37777E+03 -3.70526E+03  1.74948E+03 -7.00626E+03  9.08568E+03 -5.60557E+03
  1.14621E+04  1.38364E+03  1.05854E+04  7.60033E+03  3.45828E+03  1.14696E+04 -4.53262E+03  1.07287E+04
 -9.12482E+03  5.72076E+03 -1.06810E+04 -1.57805E+03 -4.92505E+03 -8.41926E+03  7.20547E+02 -7.60247E+03
  6.53747E+03 -3.59420E+03  6.73667E+03  2.95946E+03  1.69397E+03  7.55163E+03 -1.39769E+03  5.34255E+03
 -2.81151E+03  4.01533E+03 -2.49140E+03  1.52175E+03 -1.34504E+03  7.28607E+02 -1.48801E+03  2.15148E+03
 -2.85997E+03  4.81554E+03 -7.82871E+03  3.61825E+03 -1.19518E+04  4.70140E+02 -1.24568E+04 -7.43685E+03
 -7.21686E+03 -1.56584E+04  3.07252E+03 -1.87204E+04  1.05821E+04 -1.42645E+04  1.77364E+04 -4.38356E+03
  1.62888E+04  3.12497E+03  9.92186E+03  1.04746E+04  1.76189E+03  1.21639E+04 -4.78788E+03  9.35658E+03
 -6.93454E+03  3.39674E+03 -4.24589E+03 -1.92604E+03 -8.63527E+02 -1.16541E+03 -9.43968E+02  4.80255E+02
 -2.66834E+03  9.91090E+02 -2.12235E+03 -1.34708E+02 -9.75995E+02 -3.27024E+03  3.14434E+02 -4.80814E+03
  4.64060E+03 -4.09520E+03  7.70230E+03  1.10821E+03  8.81869E+03  6.45817E+03  2.89049E+03  1.19532E+04
 -5.74804E+03  1.33816E+04 -1.28629E+04  8.43971E+03 -1.56708E+04 -1.25605E+03 -1.20310E+04 -9.48816E+03
 -4.24111E+03 -1.28629E+04  3.42911E+03 -1.08765E+04  8.59819E+03 -6.71622E+03  8.82955E+03  7.64073E+02
  4.65402E+03  3.27029E+03 -9.23748E+02  4.28495E+03 -1.32222E+03  3.21699E+01  7.85390E+02 -3.23635E+03
  4.38202E+03 -1.49574E+03  5.65398E+03  1.38436E+03  2.68021E+03  4.76228E+03 -2.94250E+02  5.10198E+03
 -5.75908E+03  5.75418E+03 -8.49722E+03  1.13190E+03 -7.65088E+03 -5.34198E+03 -8.29208E+02 -1.09715E+04
  6.71779E+03 -8.66733E+03  1.04300E+04 -3.05572E+03  9.30272E+03  2.35731E+03  5.81677E+03  8.52601E+03
  1.05575E+03  8.14066E+03 -3.40278E+03  7.18533E+03 -5.69021E+03  3.98056E+03 -5.57947E+03  7.30927E+02
 -2.78494E+03 -7.30027E+02 -2.52736E+03  7.89075E+02 -3.92315E+03  1.31210E+03 -6.79772E+03 -1.92705E+03
 -6.21754E+03 -3.84317E+03 -1.20362E+03 -8.83682E+03  3.54527E+03 -9.37861E+03  7.78561E+03 -4.28599E+03
  8.79599E+03  5.95449E+02  5.28118E+03  6.42281E+03 -9.33698E+02  8.98945E+03 -7.06850E+03  5.57168E+03
