 $NMID ID='MM_0lb_SNR400_8hz_g50_11.RAW', FMTDAT='(8E13.5)'
 TRAMP=1., VOLUME=1. $END
  3.09228E+05  8.20030E+02  3.38951E+05  2.51482E+05  8.56861E+04  3.38667E+05 -1.33113E+05  2.52145E+05
 -1.90653E+05  8.36906E+04 -1.12507E+05 -3.28207E+04  1.04424E+02 -5.12755E+04  5.41995E+04 -5.29276E+02
  3.51424E+04  5.28041E+04 -1.72553E+04  7.60986E+04 -6.15874E+04  6.46013E+04 -8.50346E+04  3.30979E+04
 -8.28418E+04 -1.22605E+04 -5.86732E+04 -5.30063E+04 -1.61038E+04 -7.08800E+04  2.78659E+04 -4.79467E+04
  4.21515E+04  2.96139E+03  1.67680E+04  4.88593E+04 -3.54845E+04  4.82426E+04 -6.80161E+04  8.44927E+02
 -5.57219E+04 -5.89812E+04 -7.11952E+03 -7.86761E+04  3.41747E+04 -5.82256E+04  5.01936E+04 -1.78903E+04
  4.56421E+04  1.21758E+04  3.34722E+04  2.72308E+04  1.60793E+04  3.12265E+04 -5.27881E+03  2.79922E+04
 -2.22903E+04  1.15290E+04 -1.70597E+04 -5.29997E+03  6.78937E+03 -7.58659E+03  2.40215E+04  1.33543E+04
  6.86020E+03  3.77699E+04 -3.48129E+04  3.71001E+04 -6.62550E+04  2.16525E+03 -5.97902E+04 -4.49607E+04
 -1.31285E+04 -6.58059E+04  4.17063E+04 -4.82703E+04  6.20494E+04 -2.63878E+03  3.75248E+04  3.53172E+04
 -5.32116E+03  4.06812E+04 -3.16255E+04  1.94613E+04 -3.40311E+04 -3.36423E+03 -1.91519E+04 -1.22184E+04
 -9.52609E+03 -1.50547E+04 -6.23201E+02 -2.01937E+04  8.60709E+03 -2.28860E+04  1.62004E+04 -1.24194E+04
  1.14672E+04  6.46443E+03 -1.09740E+04  1.31453E+04 -2.36126E+04 -7.46233E+03 -8.91944E+03 -3.86499E+04
  2.58373E+04 -4.76263E+04  5.27273E+04 -2.13912E+04  4.96103E+04  2.05301E+04  1.74667E+04  4.76534E+04
 -1.72873E+04  3.67843E+04 -2.89141E+04  2.63565E+03 -1.13836E+04 -2.97111E+04  2.17893E+04 -3.66360E+04
  4.51550E+04 -1.16464E+04  4.18675E+04  2.53454E+04  2.13852E+04  5.25899E+04 -8.88378E+03  5.66505E+04
 -3.56911E+04  3.92177E+04 -4.82346E+04  1.19562E+04 -4.90781E+04 -1.92153E+04 -2.56367E+04 -4.25246E+04
  8.49157E+03 -4.31385E+04  3.39918E+04 -1.77870E+04  3.33959E+04  1.05229E+04  4.95285E+03  2.12754E+04
 -1.36602E+04  1.03524E+04 -1.15235E+04 -8.75535E+03  6.05475E+03 -1.08978E+04  1.91287E+04  5.10870E+03
  1.49946E+04  2.31799E+04 -4.76185E+03  2.74699E+04 -2.39132E+04  1.52166E+04 -3.22980E+04 -2.05193E+03
 -2.63464E+04 -1.83552E+04 -1.31566E+04 -2.64608E+04  4.84154E+03 -2.72443E+04  2.15607E+04 -2.40612E+04
  3.24913E+04 -1.53454E+04  3.86327E+04  5.43038E+03  2.81597E+04  2.55728E+04  3.82924E+03  4.24002E+04
 -2.05848E+04  3.51056E+04 -3.09052E+04  1.12272E+04 -2.26276E+04 -9.78469E+03 -5.34040E+03 -1.29816E+04
  3.96479E+02 -8.73073E+02 -7.65387E+03  8.86912E+03 -2.11787E+04  5.15138E+03 -2.08498E+04 -9.77374E+03
 -1.18918E+04 -2.32515E+04  6.28830E+03 -2.89092E+04  2.00012E+04 -2.00228E+04  2.38535E+04 -2.68327E+03
  1.54681E+04  1.73077E+04 -9.94678E+02  2.46049E+04 -1.77363E+04  1.33547E+04 -2.46258E+04 -5.46453E+03
 -1.79585E+04 -2.17667E+04 -2.55500E+03 -2.92073E+04  1.33476E+04 -2.51465E+04  2.44046E+04 -1.21535E+04
  2.31946E+04 -6.37436E+02  1.68920E+04  5.35422E+03  8.41169E+03  1.65585E+03  1.30318E+04 -1.34302E+03
  2.30460E+04  3.26999E+03  2.72190E+04  1.95602E+04  1.78639E+04  3.91759E+04 -2.53170E+03  4.75114E+04
 -2.68610E+04  3.99691E+04 -4.41658E+04  2.03952E+04 -4.78126E+04 -3.44338E+03 -3.85983E+04 -2.76885E+04
 -1.54978E+04 -3.95021E+04  1.48487E+04 -3.45393E+04  2.90995E+04 -1.47916E+04  2.51387E+04  8.16788E+03
  7.34392E+03  1.88643E+04 -1.20065E+04  1.66145E+04 -2.05089E+04  2.85112E+03 -1.58663E+04 -1.36949E+04
 -1.65293E+02 -1.95951E+04  1.07197E+04 -1.44720E+04  1.44959E+04 -1.50593E+03  2.58071E+03  9.50687E+03
 -8.75210E+03  4.21869E+03 -9.83624E+03 -6.65363E+03 -2.48187E+03 -1.82798E+04  1.30689E+04 -2.08332E+04
  2.39094E+04 -1.30920E+04  2.83183E+04  3.31257E+03  2.44023E+04  1.93827E+04  1.24969E+04  3.19891E+04
 -5.99675E+03  3.30852E+04 -2.12383E+04  2.13253E+04 -2.41174E+04  4.28098E+03 -1.66599E+04 -6.24065E+03
 -7.04086E+03 -8.28314E+03 -2.84065E+01  5.34381E+02 -3.38165E+03  3.43894E+03 -9.45237E+03  5.41415E+03
 -1.51046E+04 -1.49205E+03 -1.51308E+04 -1.27792E+04 -5.98446E+03 -2.10202E+04  7.58134E+03 -1.68744E+04
  1.36432E+04 -7.23739E+03  9.94890E+03  4.79496E+03 -4.51808E+02  6.02302E+03 -7.57741E+03 -6.91946E+02
 -8.69395E+03 -1.10064E+04 -1.15092E+03 -1.65116E+04  9.04423E+03 -1.76234E+04  2.12559E+04 -8.90546E+03
  2.49791E+04  3.36064E+03  1.76716E+04  1.54510E+04  2.96096E+03  2.11727E+04 -1.00239E+04  1.61628E+04
 -1.35925E+04  5.33898E+03 -7.39124E+03 -3.08513E+03  2.17264E+03 -4.44706E+03  8.49580E+03 -1.27193E+03
  7.09293E+03  7.74644E+03  1.77662E+03  1.47913E+04 -1.01436E+04  1.29846E+04 -1.69001E+04  3.02718E+03
 -1.16302E+04 -8.52588E+03  1.61859E+02 -1.49490E+04  9.57750E+03 -7.75200E+03  1.06112E+04  2.99718E+03
  1.62857E+03  1.14251E+04 -9.45446E+03  1.26483E+04 -1.48926E+04  5.83133E+03 -1.51944E+04 -5.35548E+03
 -9.15344E+03 -1.72100E+04  4.36273E+03 -2.00830E+04  1.73011E+04 -1.17534E+04  1.80257E+04  2.85842E+03
  1.04959E+04  1.48597E+04 -9.26443E+02  1.62440E+04 -1.32745E+04  1.01870E+04 -1.48224E+04 -1.02404E+03
 -1.19387E+04 -1.15901E+04 -1.86022E+03 -1.27366E+04  6.88139E+03 -1.08253E+04  8.64366E+03 -3.55082E+03
  4.50595E+03  2.18918E+03 -1.26667E+03  1.55275E+03 -1.15797E+03 -4.66597E+03  2.72642E+03 -8.13514E+03
  1.29836E+04 -5.65976E+03  1.85260E+04  2.11241E+03  1.67538E+04  1.30141E+04  1.16048E+04  2.29352E+04
 -4.50489E+03  2.70420E+04 -2.23358E+04  1.91355E+04 -2.82253E+04  4.76943E+03 -2.24542E+04 -9.90630E+03
 -1.15715E+04 -1.86942E+04 -5.83519E+02 -1.66618E+04  5.73683E+03 -8.60152E+03  6.21016E+03 -5.81822E+03
  4.97732E+03 -4.02882E+03  4.92644E+03 -4.43091E+03  5.38619E+03 -4.13754E+03  8.35417E+03 -1.02227E+03
  1.19223E+04  3.11477E+03  6.64911E+03  1.01804E+04 -1.63612E+03  1.26284E+04 -1.16346E+04  9.89538E+03
 -1.60560E+04 -9.77706E+02 -1.03880E+04 -1.12621E+04 -2.10558E+03 -1.83566E+04  9.94538E+03 -1.71578E+04
  1.87711E+04 -9.95824E+03  2.13586E+04  3.71973E+03  1.47751E+04  1.51135E+04  2.38856E+03  1.95450E+04
 -7.94486E+03  1.54543E+04 -1.19333E+04  5.47816E+03 -7.23104E+03 -1.56119E+03 -3.29591E+03 -2.21220E+03
 -2.54960E+03  1.97604E+02 -2.01265E+03  2.92918E+03 -7.82690E+03  2.58607E+03 -1.07354E+04 -2.02023E+03
 -7.70221E+03 -1.11997E+04 -1.36598E+03 -1.64614E+04  1.01617E+04 -1.41349E+04  1.65089E+04 -4.93059E+03
  1.63281E+04  7.79380E+03  7.35460E+03  1.62171E+04 -3.14600E+03  1.65250E+04 -1.22154E+04  1.05971E+04
 -1.55487E+04 -1.36843E+02 -1.21075E+04 -1.09792E+04 -1.70249E+03 -1.37635E+04  7.49265E+03 -1.01297E+04
  1.02832E+04 -2.76877E+03  7.25085E+03  3.12015E+03  2.46844E+03  4.78158E+03  2.17195E+03  3.21512E+03
  1.90796E+03  1.32185E+03  3.52521E+03  2.42536E+03  4.17247E+03  5.49760E+03  4.30567E+03  9.22104E+03
 -3.11122E+03  1.30921E+04 -1.26283E+04  1.34580E+04 -1.74470E+04  3.63451E+03 -1.76720E+04 -7.39916E+03
 -7.94035E+03 -1.82897E+04  2.12230E+03 -1.85864E+04  1.03887E+04 -1.22779E+04  1.41816E+04 -2.89283E+03
  1.11800E+04  6.63239E+03  3.01157E+03  9.64252E+03 -4.29199E+03  6.26416E+03 -7.36607E+03 -7.44677E+02
 -3.18834E+03 -6.94767E+03  3.76650E+03 -7.37201E+03  7.56935E+03 -3.30143E+03  7.69998E+03  1.42857E+03
  3.80476E+03  3.25727E+03  5.85656E+02  3.21323E+03 -5.79226E+02  2.86588E+03  1.52631E+03 -3.52297E+02
  3.46618E+03 -1.89012E+03  6.56365E+03  2.56342E+03  4.33958E+03  9.69130E+03 -1.42483E+03  1.25954E+04
 -8.84785E+03  7.39162E+03 -1.14594E+04  2.67142E+03 -1.01212E+04 -3.63941E+03 -4.51079E+03 -6.27263E+03
  9.65108E+02 -7.06291E+03  4.79173E+03 -3.44811E+03  3.89950E+03  2.57029E+03 -2.33529E+03  6.35309E+03
 -7.58289E+03  3.79418E+03 -8.37122E+03 -4.75307E+03 -5.15275E+03 -9.22191E+03  1.06167E+03 -1.02349E+04
  5.87799E+03 -6.48028E+03  7.24672E+03 -5.73633E+02  6.45426E+03  2.95713E+03  1.53732E+03  5.00973E+03
 -2.49395E+03  1.26016E+03 -5.05938E+03 -3.95648E+03  1.58667E+03 -7.85802E+03  7.35107E+03 -5.93730E+03
  1.20296E+04  1.68706E+03  1.01409E+04  7.81601E+03  3.48230E+03  1.17643E+04 -4.11515E+03  1.21267E+04
 -9.60375E+03  4.47439E+03 -9.90823E+03 -2.00060E+03 -5.39045E+03 -8.19286E+03  7.88868E+02 -7.10846E+03
  6.90155E+03 -3.25531E+03  5.83327E+03  3.27804E+03  1.43109E+03  7.32912E+03 -1.30446E+03  5.79583E+03
 -3.15105E+03  3.49262E+03 -2.70698E+03  2.08519E+03 -2.01128E+03  1.22266E+03 -1.56412E+03  1.36494E+03
 -3.13001E+03  4.74158E+03 -7.42076E+03  5.51264E+03 -1.20846E+04  1.20932E+03 -1.38551E+04 -8.42768E+03
 -6.54729E+03 -1.57883E+04  2.17735E+03 -1.84822E+04  1.15966E+04 -1.37458E+04  1.74749E+04 -5.37714E+03
  1.53918E+04  3.84939E+03  9.90762E+03  1.08020E+04  5.25973E+02  1.15621E+04 -5.23411E+03  1.01900E+04
 -6.09874E+03  3.33544E+03 -3.49386E+03 -1.85058E+03 -1.54113E+03 -1.36301E+03 -2.76002E+02 -6.43871E+02
 -1.85527E+03  5.77244E+02 -3.96877E+03  2.88238E+02 -6.25159E+02 -2.46763E+03  5.18072E+02 -4.93173E+03
  4.85111E+03 -3.01862E+03  8.67082E+03 -3.39823E+02  9.47202E+03  6.89103E+03  2.28887E+03  1.22630E+04
 -5.18748E+03  1.38496E+04 -1.35070E+04  7.88531E+03 -1.52405E+04 -1.42544E+03 -1.08454E+04 -9.43094E+03
 -5.68394E+03 -1.29468E+04  3.20400E+03 -1.23102E+04  8.23396E+03 -6.64696E+03  8.15410E+03 -3.48348E+02
  4.76776E+03  4.26924E+03 -3.38573E+02  3.57045E+03 -2.73765E+03 -6.31482E+01  5.63448E+02 -2.23083E+03
  2.88209E+03 -1.47543E+03  5.71391E+03  2.16070E+03  3.82335E+03  5.22812E+03  3.62776E+02  6.30292E+03
 -5.62063E+03  5.83719E+03 -8.35945E+03  3.54494E+02 -7.07283E+03 -6.47965E+03 -5.63864E+02 -1.03987E+04
  6.14521E+03 -8.62843E+03  1.02404E+04 -3.11713E+03  1.08556E+04  2.29717E+03  6.19154E+03  8.44195E+03
  1.38860E+03  8.49943E+03 -3.46626E+03  6.07641E+03 -6.24587E+03  3.91024E+03 -4.18060E+03 -2.44763E+02
 -2.74829E+03 -4.14085E+02 -1.94847E+03  1.31827E+03 -5.16462E+03  1.04562E+03 -6.82937E+03 -1.20470E+03
 -6.27940E+03 -3.93174E+03 -1.74910E+03 -8.61518E+03  4.57021E+03 -9.13742E+03  7.76109E+03 -5.27121E+03
  8.13576E+03  8.24805E+02  4.78733E+03  6.82810E+03 -1.06665E+03  8.89555E+03 -6.24211E+03  5.22486E+03
