 $NMID ID='MM_0lb_SNR400_11hz_g60_4.RAW', FMTDAT='(8E13.5)'
 TRAMP=1., VOLUME=1. $END
  3.10552E+05 -1.50922E+02  3.37922E+05  2.50469E+05  8.53413E+04  3.38153E+05 -1.32326E+05  2.52313E+05
 -1.91235E+05  8.43855E+04 -1.12656E+05 -3.23443E+04  1.57290E+02 -5.11197E+04  5.31560E+04  4.07100E+02
  3.54737E+04  5.23895E+04 -1.67833E+04  7.60662E+04 -6.20875E+04  6.38198E+04 -8.46517E+04  3.22479E+04
 -8.23552E+04 -1.12797E+04 -5.76773E+04 -5.25050E+04 -1.47005E+04 -7.05241E+04  2.83112E+04 -4.68474E+04
  4.09206E+04  3.72454E+03  1.72759E+04  4.86261E+04 -3.43375E+04  4.77929E+04 -6.85673E+04 -2.37639E+02
 -5.49367E+04 -5.77002E+04 -7.63008E+03 -7.89462E+04  3.46296E+04 -5.70529E+04  5.00582E+04 -1.76497E+04
  4.50778E+04  1.12744E+04  3.28073E+04  2.64417E+04  1.57599E+04  3.06968E+04 -5.99761E+03  2.83565E+04
 -2.26309E+04  1.26142E+04 -1.81487E+04 -5.79009E+03  7.40877E+03 -7.49033E+03  2.30683E+04  1.35344E+04
  6.86734E+03  3.69924E+04 -3.32084E+04  3.68717E+04 -6.55645E+04  2.28002E+03 -5.93964E+04 -4.41069E+04
 -1.28428E+04 -6.54449E+04  4.09897E+04 -4.70033E+04  6.05446E+04 -3.15279E+03  3.60529E+04  3.37377E+04
 -5.66932E+03  3.85086E+04 -3.17653E+04  1.83467E+04 -3.30000E+04 -3.58073E+03 -1.77144E+04 -1.18512E+04
 -8.68744E+03 -1.43316E+04 -1.12046E+03 -1.92058E+04  8.06202E+03 -2.34415E+04  1.61524E+04 -1.27958E+04
  1.02479E+04  6.71573E+03 -1.03544E+04  1.27391E+04 -2.30457E+04 -5.84181E+03 -9.02989E+03 -3.71518E+04
  2.40478E+04 -4.68472E+04  5.09829E+04 -2.05543E+04  4.82124E+04  2.10569E+04  1.74760E+04  4.64169E+04
 -1.66734E+04  3.57214E+04 -2.74253E+04  3.21612E+03 -1.11310E+04 -2.92358E+04  2.18514E+04 -3.56452E+04
  4.35928E+04 -1.09102E+04  4.01156E+04  2.45854E+04  2.11762E+04  5.02667E+04 -7.44557E+03  5.58102E+04
 -3.50862E+04  3.79627E+04 -4.67887E+04  1.05533E+04 -4.73758E+04 -1.80572E+04 -2.62432E+04 -4.16527E+04
  7.12169E+03 -4.14450E+04  3.43454E+04 -1.65332E+04  3.05991E+04  1.15348E+04  4.80525E+03  2.05083E+04
 -1.31972E+04  9.07187E+03 -1.09814E+04 -7.43224E+03  6.18126E+03 -1.18850E+04  1.86271E+04  5.60392E+03
  1.51185E+04  2.32723E+04 -5.29889E+03  2.69072E+04 -2.30035E+04  1.37171E+04 -3.10389E+04 -3.51822E+03
 -2.38155E+04 -1.82262E+04 -1.13716E+04 -2.46573E+04  4.60361E+03 -2.51576E+04  1.97981E+04 -2.21322E+04
  3.13699E+04 -1.40725E+04  3.74819E+04  4.80110E+03  2.66751E+04  2.38408E+04  4.16693E+03  4.08789E+04
 -1.99927E+04  3.26142E+04 -3.00793E+04  1.18009E+04 -2.22675E+04 -9.43965E+03 -4.57380E+03 -1.26266E+04
  2.86374E+02 -1.34348E+03 -6.86802E+03  7.47314E+03 -1.91551E+04  5.66160E+03 -1.92453E+04 -9.85830E+03
 -1.17310E+04 -2.24468E+04  5.72765E+03 -2.63566E+04  1.82223E+04 -1.93504E+04  2.24305E+04 -1.59467E+03
  1.44293E+04  1.65808E+04 -1.96988E+03  2.22342E+04 -1.61909E+04  1.28328E+04 -2.28006E+04 -4.85214E+03
 -1.68681E+04 -1.99078E+04 -2.55744E+03 -2.74549E+04  1.09873E+04 -2.21978E+04  2.27065E+04 -1.14749E+04
  2.15708E+04 -2.04745E+02  1.57697E+04  5.54238E+03  8.83162E+03  9.19156E+02  1.18595E+04 -2.23313E+03
  2.12197E+04  2.99828E+03  2.46029E+04  1.73589E+04  1.59537E+04  3.68023E+04 -1.97604E+03  4.23006E+04
 -2.37273E+04  3.48159E+04 -4.03523E+04  1.79019E+04 -4.25191E+04 -2.74684E+03 -3.50072E+04 -2.40914E+04
 -1.38150E+04 -3.49224E+04  1.20217E+04 -3.05445E+04  2.69255E+04 -1.47551E+04  2.36222E+04  7.46686E+03
  8.04586E+03  1.78193E+04 -1.10951E+04  1.51342E+04 -1.91331E+04  2.57528E+03 -1.46909E+04 -1.19743E+04
 -3.01508E+02 -1.85194E+04  9.77864E+03 -1.39401E+04  1.21233E+04 -1.41970E+03  2.71813E+03  8.21297E+03
 -8.28075E+03  3.99000E+03 -8.47663E+03 -7.42169E+03 -1.41357E+03 -1.72329E+04  1.08098E+04 -1.84417E+04
  2.18798E+04 -1.07255E+04  2.48080E+04  3.20725E+03  2.08250E+04  1.72626E+04  9.62019E+03  2.76031E+04
 -5.01673E+03  2.92365E+04 -1.91233E+04  1.81740E+04 -2.11701E+04  4.15953E+03 -1.46442E+04 -4.70639E+03
 -5.67049E+03 -6.71869E+03  1.08794E+02 -9.79221E+00 -2.75712E+03  2.83809E+03 -6.31778E+03  6.01092E+03
 -1.35303E+04 -6.06338E+02 -1.37844E+04 -1.14283E+04 -5.97190E+03 -1.83516E+04  6.58611E+03 -1.47552E+04
  1.25304E+04 -6.15848E+03  8.72426E+03  4.06789E+03  6.97692E+02  5.46667E+03 -7.58034E+03 -3.40219E+02
 -6.85670E+03 -9.81472E+03 -1.15497E+03 -1.44539E+04  8.16105E+03 -1.57469E+04  1.90858E+04 -8.10123E+03
  2.08611E+04  1.20925E+03  1.57595E+04  1.34190E+04  3.44299E+03  1.69121E+04 -8.52577E+03  1.35422E+04
 -1.14954E+04  4.14150E+03 -6.02108E+03 -3.28792E+03  2.76269E+03 -4.02106E+03  7.04230E+03 -1.26812E+03
  6.82974E+03  6.41830E+03  1.25385E+03  1.21106E+04 -8.37870E+03  1.13920E+04 -1.40949E+04  2.94168E+03
 -9.99606E+03 -7.92776E+03  2.65046E+02 -1.28443E+04  8.49958E+03 -6.45888E+03  8.32234E+03  3.11029E+03
  1.52821E+03  9.09097E+03 -7.48529E+03  1.03295E+04 -1.20331E+04  4.70599E+03 -1.29395E+04 -4.66048E+03
 -7.65854E+03 -1.42360E+04  3.75702E+03 -1.64810E+04  1.44718E+04 -1.01831E+04  1.53767E+04  3.19557E+03
  9.38520E+03  1.19775E+04 -1.52814E+03  1.42323E+04 -1.04408E+04  8.03259E+03 -1.18229E+04 -1.12089E+03
 -8.87441E+03 -1.00037E+04 -1.88815E+03 -1.12933E+04  5.32289E+03 -8.86609E+03  6.69181E+03 -3.48608E+03
  5.01417E+03  1.96035E+03 -5.59448E+02  1.66253E+03 -5.49586E+02 -3.10196E+03  2.16751E+03 -7.11460E+03
  1.07509E+04 -3.87066E+03  1.42826E+04  1.94964E+03  1.45349E+04  9.34950E+03  8.98961E+03  1.83519E+04
 -5.01450E+03  2.10964E+04 -1.78351E+04  1.56537E+04 -2.27870E+04  3.23047E+03 -1.91600E+04 -7.35964E+03
 -9.73010E+03 -1.50586E+04  1.71007E+02 -1.32668E+04  4.66007E+03 -6.31215E+03  4.53716E+03 -4.08604E+03
  3.34248E+03 -2.16396E+03  2.97142E+03 -3.32871E+03  5.78880E+03 -3.84223E+03  7.55666E+03 -8.10566E+02
  9.16160E+03  2.35204E+03  6.05224E+03  7.96596E+03 -2.90392E+03  9.35267E+03 -9.95613E+03  6.98674E+03
 -1.32536E+04 -9.24345E+02 -8.08383E+03 -9.91519E+03 -1.01522E+03 -1.38078E+04  8.58806E+03 -1.37974E+04
  1.52009E+04 -8.16632E+03  1.66835E+04  2.20969E+03  1.12298E+04  1.15540E+04  1.51143E+03  1.49436E+04
 -7.30125E+03  1.26535E+04 -9.17210E+03  3.94615E+03 -5.75909E+03 -1.82128E+03 -2.63015E+03 -2.14987E+03
 -1.05359E+03 -3.17218E+02 -2.03054E+03  2.52930E+03 -4.55409E+03  1.47060E+03 -8.31698E+03 -1.71434E+03
 -5.11292E+03 -8.73801E+03  5.35773E+01 -1.24167E+04  7.26040E+03 -1.13867E+04  1.29315E+04 -3.68177E+03
  1.27716E+04  6.29935E+03  5.85081E+03  1.11429E+04 -2.65823E+03  1.26804E+04 -9.33855E+03  7.72868E+03
 -1.21703E+04  9.60294E+02 -8.89924E+03 -7.39070E+03 -5.00026E+02 -1.09131E+04  5.20963E+03 -8.19512E+03
  8.33480E+03 -2.68535E+03  5.13673E+03  2.46972E+03  1.84818E+03  3.76219E+03  9.07044E+02  1.18969E+03
  3.25747E+03  6.84603E+02  3.57962E+03  1.92790E+03  4.08154E+03  4.92880E+03  2.98546E+03  6.80384E+03
 -3.56222E+03  1.00149E+04 -8.75904E+03  1.00513E+04 -1.27316E+04  2.94522E+03 -1.37501E+04 -4.80174E+03
 -6.07525E+03 -1.32379E+04  7.54564E+02 -1.42151E+04  7.77290E+03 -8.38395E+03  1.04806E+04 -1.45035E+03
  7.72617E+03  4.70847E+03  2.26576E+03  6.83692E+03 -2.77074E+03  3.71895E+03 -4.29438E+03 -1.21115E+03
 -2.06504E+03 -5.44337E+03  2.55648E+03 -6.15979E+03  4.45598E+03 -3.19905E+03  4.95698E+03  6.87151E+02
  3.06758E+03  2.11190E+03  1.43467E+03  2.00076E+03 -6.91027E+02  1.68374E+03  9.92809E+02 -3.37559E+02
  1.51236E+03 -1.09644E+03  5.44858E+03  2.28809E+03  2.64970E+03  6.56360E+03 -1.30133E+02  9.03503E+03
 -6.61954E+03  5.92607E+03 -7.72133E+03  1.38461E+03 -7.35532E+03 -2.61578E+03 -2.07734E+03 -4.71183E+03
  8.76508E+02 -5.80039E+03  3.25579E+03 -2.60904E+03  2.27091E+03  2.33060E+03 -1.74787E+03  3.93056E+03
 -5.40129E+03  2.14574E+03 -6.28904E+03 -2.77413E+03 -3.11015E+03 -6.81015E+03  9.88988E+02 -6.50197E+03
  3.36427E+03 -3.40332E+03  4.57453E+03 -4.26316E+02  4.47341E+03  9.37494E+02  9.54072E+00  3.87236E+03
 -2.74601E+03  1.30250E+03 -3.38485E+03 -2.40748E+03  1.32380E+03 -5.39723E+03  5.80507E+03 -4.08545E+03
  7.36503E+03  1.13062E+03  7.67671E+03  5.68739E+03  2.80320E+03  7.25845E+03 -2.49186E+03  7.08936E+03
 -6.67479E+03  2.44853E+03 -6.72323E+03 -1.36284E+03 -3.74265E+03 -4.70612E+03  8.68879E+02 -4.82194E+03
  4.63462E+03 -2.25365E+03  4.23151E+03  1.80433E+03  1.21280E+03  3.70841E+03  1.72311E+02  3.77302E+03
 -2.05944E+03  2.05046E+03 -2.05188E+03  1.55666E+03 -8.63596E+02  6.75920E+02 -8.25669E+02  3.09419E+03
 -2.80907E+03  2.68028E+03 -5.35344E+03  2.52751E+03 -7.81440E+03  1.70464E+02 -8.94321E+03 -4.91646E+03
 -4.78548E+03 -1.05963E+04  2.07237E+03 -1.19158E+04  7.50311E+03 -9.41760E+03  1.11615E+04 -3.59891E+03
  1.03124E+04  1.74992E+03  6.26597E+03  6.64025E+03  6.73903E+02  7.02587E+03 -2.90421E+03  6.40251E+03
 -4.04142E+03  2.22150E+03 -2.72219E+03 -1.30231E+03 -1.57438E+03 -4.93958E+02 -8.01169E+02  8.22620E+02
 -1.78124E+03  2.26036E+02 -2.44561E+03 -2.70133E+02 -5.35380E+02 -2.06780E+03  6.30701E+02 -3.42171E+03
  3.71249E+03 -2.14337E+03  4.34484E+03  9.11835E+01  4.88534E+03  4.54048E+03  1.26126E+03  7.49438E+03
 -3.51040E+03  9.52448E+03 -8.48710E+03  5.03512E+03 -1.02117E+04 -1.34129E+03 -6.89522E+03 -6.19059E+03
 -2.67009E+03 -8.37714E+03  1.82310E+03 -7.48782E+03  4.34902E+03 -3.74894E+03  4.13913E+03  2.92463E+02
  3.06928E+03  2.47959E+03 -6.88726E+01  1.83363E+03 -1.41351E+03  3.16435E+02  3.26823E+02 -1.77401E+03
  3.06860E+03 -6.97092E+02  2.63887E+03  6.41775E+02  2.87492E+03  2.75315E+03  4.75155E+02  3.66257E+03
 -2.92634E+03  3.23107E+03 -5.03965E+03  5.64438E+02 -4.62853E+03 -3.39934E+03 -1.13035E+03 -6.81019E+03
  3.41643E+03 -5.12236E+03  6.53909E+03 -1.80514E+03  5.64159E+03  1.13475E+03  3.24388E+03  4.03084E+03
  1.68215E+03  4.42019E+03 -1.74602E+03  4.33628E+03 -2.28687E+03  2.13155E+03 -1.98393E+03  3.80725E+02
 -4.51443E+02 -8.94049E+02 -1.96044E+03  6.40446E+02 -2.31214E+03  9.24264E+02 -3.86827E+03 -8.06510E+02
 -3.98184E+03 -2.11439E+03 -1.09308E+03 -4.87964E+03  1.60098E+03 -5.96560E+03  4.49806E+03 -2.73374E+03
  4.01239E+03  5.72469E+02  2.47058E+03  2.93961E+03  8.13187E+01  5.88396E+03 -3.49982E+03  4.12816E+03
