 $NMID ID='MM_0lb_SNR400_11hz_g45_59.RAW', FMTDAT='(8E13.5)'
 TRAMP=1., VOLUME=1. $END
  3.09328E+05  7.44135E+02  3.37863E+05  2.50968E+05  8.43925E+04  3.38661E+05 -1.32920E+05  2.51250E+05
 -1.90721E+05  8.34261E+04 -1.11992E+05 -3.30335E+04  3.45292E+02 -5.09516E+04  5.39528E+04 -8.08615E+02
  3.56270E+04  5.29330E+04 -1.71112E+04  7.60534E+04 -6.08055E+04  6.44058E+04 -8.47084E+04  3.20100E+04
 -8.10409E+04 -1.14864E+04 -5.75228E+04 -5.16525E+04 -1.47670E+04 -7.00534E+04  2.75744E+04 -4.56502E+04
  4.02405E+04  4.44050E+03  1.65761E+04  4.83296E+04 -3.50696E+04  4.80788E+04 -6.78361E+04 -5.51328E+02
 -5.35519E+04 -5.74222E+04 -7.98236E+03 -7.73216E+04  3.44163E+04 -5.63785E+04  4.84927E+04 -1.80972E+04
  4.40984E+04  1.14065E+04  3.28577E+04  2.62718E+04  1.62807E+04  2.95655E+04 -4.62123E+03  2.72735E+04
 -2.23159E+04  1.20038E+04 -1.80655E+04 -4.74146E+03  6.61896E+03 -6.83757E+03  2.25127E+04  1.36010E+04
  7.29920E+03  3.65229E+04 -3.28956E+04  3.59575E+04 -6.41891E+04  2.85245E+03 -5.76734E+04 -4.35618E+04
 -1.26838E+04 -6.43598E+04  4.05359E+04 -4.64734E+04  5.94259E+04 -2.06198E+03  3.53911E+04  3.33627E+04
 -5.31180E+03  3.78462E+04 -3.09572E+04  1.73652E+04 -3.15614E+04 -4.20725E+03 -1.75677E+04 -1.12984E+04
 -8.69876E+03 -1.47268E+04 -1.12332E+03 -1.91030E+04  7.99791E+03 -2.34280E+04  1.56170E+04 -1.34798E+04
  1.13853E+04  5.30164E+03 -9.95815E+03  1.26115E+04 -2.21653E+04 -5.54649E+03 -7.66196E+03 -3.54663E+04
  2.36384E+04 -4.53085E+04  4.96905E+04 -2.07263E+04  4.69778E+04  2.01629E+04  1.68570E+04  4.56157E+04
 -1.63753E+04  3.42724E+04 -2.57188E+04  2.16642E+03 -1.05298E+04 -2.83273E+04  2.11234E+04 -3.55793E+04
  4.26443E+04 -1.01942E+04  3.77961E+04  2.34247E+04  1.99209E+04  4.87168E+04 -8.44223E+03  5.28636E+04
 -3.36958E+04  3.56894E+04 -4.42861E+04  1.00807E+04 -4.56695E+04 -1.81041E+04 -2.46851E+04 -3.98855E+04
  8.06937E+03 -3.97432E+04  3.26293E+04 -1.56870E+04  3.05018E+04  1.07214E+04  4.43680E+03  2.05556E+04
 -1.38874E+04  8.13036E+03 -1.05133E+04 -7.01448E+03  5.86717E+03 -1.11689E+04  1.84895E+04  5.40421E+03
  1.36298E+04  2.25991E+04 -5.37196E+03  2.57471E+04 -2.20254E+04  1.32431E+04 -2.91943E+04 -4.05027E+03
 -2.28387E+04 -1.74599E+04 -1.05402E+04 -2.28746E+04  3.76799E+03 -2.22515E+04  1.69003E+04 -2.05316E+04
  2.85733E+04 -1.33363E+04  3.50775E+04  4.08844E+03  2.56889E+04  2.26754E+04  3.99984E+03  3.88183E+04
 -1.92520E+04  3.23631E+04 -2.94164E+04  1.11590E+04 -2.13946E+04 -1.01837E+04 -4.50656E+03 -1.30332E+04
  1.24950E+03 -1.51185E+03 -5.81466E+03  7.14529E+03 -1.77335E+04  6.13616E+03 -1.75491E+04 -8.12285E+03
 -1.10563E+04 -2.16819E+04  5.87428E+03 -2.51834E+04  1.75599E+04 -1.82847E+04  2.09224E+04 -1.52041E+03
  1.33233E+04  1.45257E+04 -1.14689E+03  2.03758E+04 -1.51893E+04  1.23449E+04 -2.20536E+04 -4.95977E+03
 -1.49710E+04 -1.93201E+04 -1.16508E+03 -2.48803E+04  1.14874E+04 -2.15434E+04  2.11386E+04 -1.03869E+04
  2.01140E+04 -1.01877E+03  1.46239E+04  4.81686E+03  7.45862E+03  1.06182E+03  1.08503E+04 -1.28676E+03
  1.97849E+04  2.88882E+03  2.22697E+04  1.66637E+04  1.46312E+04  3.40168E+04 -2.57940E+03  3.94771E+04
 -2.24331E+04  3.21342E+04 -3.70938E+04  1.63916E+04 -3.88957E+04 -3.35652E+03 -3.18942E+04 -2.33077E+04
 -1.32195E+04 -3.29521E+04  1.17581E+04 -2.92668E+04  2.49490E+04 -1.40579E+04  2.10648E+04  6.65447E+03
  7.00155E+03  1.68401E+04 -9.74990E+03  1.37202E+04 -1.86079E+04  2.33823E+03 -1.31335E+04 -1.17867E+04
 -4.41589E+01 -1.69617E+04  9.26619E+03 -1.20226E+04  1.10201E+04 -1.49477E+03  2.63552E+03  7.94547E+03
 -7.12709E+03  2.65923E+03 -7.50419E+03 -6.09010E+03 -1.26584E+03 -1.60262E+04  1.02598E+04 -1.73206E+04
  2.02369E+04 -9.48923E+03  2.19506E+04  3.60689E+03  2.02802E+04  1.61487E+04  9.33891E+03  2.41620E+04
 -4.48589E+03  2.66478E+04 -1.75618E+04  1.69091E+04 -1.93254E+04  3.80014E+03 -1.35407E+04 -4.26667E+03
 -5.75733E+03 -6.38745E+03 -1.91617E+01  1.47371E+03 -2.28359E+03  3.24224E+03 -6.54717E+03  4.32212E+03
 -1.20122E+04 -3.93946E+02 -1.31833E+04 -1.08971E+04 -5.44447E+03 -1.69399E+04  5.21506E+03 -1.37654E+04
  1.19904E+04 -5.64311E+03  7.34241E+03  3.32685E+03 -1.13967E+02  5.02419E+03 -6.70021E+03 -7.16306E+02
 -5.99190E+03 -8.86256E+03 -1.37493E+03 -1.30060E+04  7.38349E+03 -1.38271E+04  1.69070E+04 -7.30067E+03
  1.97779E+04  2.07351E+03  1.48727E+04  1.21377E+04  2.05886E+03  1.64417E+04 -7.78079E+03  1.35199E+04
 -1.05199E+04  3.78943E+03 -5.47129E+03 -2.33655E+03  1.89129E+03 -3.76428E+03  7.18718E+03 -1.91924E+03
  5.99130E+03  6.07662E+03  8.29584E+02  1.13552E+04 -7.69406E+03  1.09915E+04 -1.30074E+04  2.34619E+03
 -8.87016E+03 -7.14933E+03 -2.25801E+01 -1.16179E+04  8.11304E+03 -5.73311E+03  7.97755E+03  2.56317E+03
  1.12221E+03  8.22361E+03 -7.22213E+03  1.02361E+04 -1.17887E+04  5.18276E+03 -1.03173E+04 -3.88047E+03
 -6.83964E+03 -1.20786E+04  3.08598E+03 -1.45902E+04  1.28986E+04 -8.41005E+03  1.33843E+04  2.29367E+03
  8.03145E+03  1.03807E+04 -1.11183E+03  1.33546E+04 -9.90246E+03  7.79118E+03 -1.03528E+04 -7.88123E+02
 -9.42798E+03 -9.04678E+03 -1.19354E+03 -9.86383E+03  5.32785E+03 -8.06253E+03  6.61838E+03 -3.69514E+03
  4.17160E+03  2.10146E+03 -3.58274E+02  2.37681E+03 -5.45388E+00 -2.29965E+03  2.26746E+03 -5.34186E+03
  8.87675E+03 -3.57272E+03  1.22812E+04  1.28832E+03  1.27179E+04  8.58916E+03  8.94441E+03  1.65844E+04
 -4.74321E+03  1.86230E+04 -1.58439E+04  1.34529E+04 -2.09157E+04  2.74174E+03 -1.63343E+04 -7.00013E+03
 -8.69884E+03 -1.37991E+04 -6.21653E+01 -1.14947E+04  3.65571E+03 -5.88520E+03  3.56036E+03 -4.33341E+03
  3.34438E+03 -2.80481E+03  3.23022E+03 -3.22957E+03  5.64598E+03 -3.06645E+03  6.94536E+03 -4.20956E+02
  7.95269E+03  1.85580E+03  3.92625E+03  7.65163E+03 -2.58551E+03  9.45897E+03 -9.79068E+03  6.73168E+03
 -1.09322E+04 -9.26049E+02 -6.94729E+03 -8.38006E+03 -1.00923E+03 -1.19357E+04  5.72461E+03 -1.15679E+04
  1.32401E+04 -7.02345E+03  1.60749E+04  1.82100E+03  1.05603E+04  9.70538E+03  1.58961E+03  1.38814E+04
 -5.20186E+03  1.15421E+04 -8.28783E+03  3.62082E+03 -5.70942E+03 -9.70054E+02 -2.30268E+03 -1.86451E+03
 -4.30502E+02 -4.33372E+02 -1.49859E+03  3.16986E+03 -4.90494E+03  2.08066E+03 -8.32029E+03 -7.63977E+02
 -5.64520E+03 -9.10644E+03  2.58210E+02 -1.11643E+04  6.57042E+03 -1.03198E+04  1.09345E+04 -2.78203E+03
  1.04914E+04  5.42828E+03  4.67502E+03  1.00182E+04 -2.25424E+03  1.13100E+04 -7.38059E+03  7.32315E+03
 -1.03981E+04  2.58536E+02 -8.99887E+03 -6.79536E+03 -4.21024E+02 -9.32321E+03  5.11798E+03 -7.02804E+03
  7.07375E+03 -2.21098E+03  5.01954E+03  2.15319E+03  1.43332E+03  2.59911E+03  9.44731E+02  1.60644E+03
  2.01386E+03 -2.61832E+02  2.61302E+03  1.37377E+03  2.96547E+03  3.93279E+03  2.66824E+03  6.21636E+03
 -2.98715E+03  8.74320E+03 -7.97178E+03  9.34517E+03 -1.12558E+04  2.51568E+03 -1.09647E+04 -3.88305E+03
 -5.94624E+03 -1.15570E+04  1.57669E+03 -1.28105E+04  6.26775E+03 -7.85174E+03  9.17680E+03 -2.05431E+03
  7.24347E+03  4.36978E+03  1.80761E+03  6.01913E+03 -3.15503E+03  4.34185E+03 -4.25184E+03 -5.68256E+02
 -2.34972E+03 -4.70747E+03  2.35852E+03 -4.86063E+03  5.14613E+03 -1.89051E+03  3.59484E+03  9.21191E+02
  2.69029E+03  2.51641E+03  8.88182E+02  1.23563E+03 -8.33844E+02  1.46644E+03  2.08396E+03 -1.18311E+03
  1.20944E+03 -4.58736E+02  4.46241E+03  1.88822E+03  2.45100E+03  5.84492E+03 -5.24302E+02  7.79509E+03
 -5.73671E+03  4.63355E+03 -7.49955E+03  1.93317E+03 -6.03406E+03 -2.12663E+03 -3.18333E+03 -4.76177E+03
  8.11968E+02 -4.19613E+03  3.16292E+03 -1.89040E+03  2.38210E+03  2.26324E+03 -1.71972E+03  3.16624E+03
 -4.70352E+03  2.66077E+03 -4.62143E+03 -2.37892E+03 -3.11112E+03 -6.13110E+03 -1.46612E+02 -5.90195E+03
  3.21082E+03 -3.71540E+03  4.15511E+03 -2.43733E+02  3.46228E+03  1.67905E+03  9.50696E+02  3.34095E+03
 -2.60178E+03  8.29720E+02 -2.52981E+03 -1.94870E+03  1.26149E+03 -4.51392E+03  4.84409E+03 -3.38807E+03
  6.68747E+03  7.76059E+02  7.26052E+03  4.58253E+03  2.01649E+03  6.65212E+03 -2.72429E+03  6.73757E+03
 -6.27656E+03  2.51097E+03 -5.51151E+03 -9.55558E+02 -4.06400E+03 -5.13101E+03  1.05761E+03 -4.83571E+03
  4.67583E+03 -2.03528E+03  3.88873E+03  2.37053E+03  1.75533E+03  3.86560E+03 -3.55131E+02  2.99829E+03
 -1.70747E+03  2.25782E+03 -1.40616E+03  5.45547E+02 -6.57631E+02  9.51295E+02 -1.02799E+03  1.44760E+03
 -1.97501E+03  3.32931E+03 -4.63130E+03  2.71710E+03 -6.85638E+03 -1.38678E+02 -7.44085E+03 -4.29528E+03
 -3.84202E+03 -9.21866E+03  1.78121E+03 -1.12058E+04  6.28235E+03 -7.70870E+03  1.02318E+04 -2.87890E+03
  9.81962E+03  1.89852E+03  5.55105E+03  6.55377E+03  4.80980E+02  7.38683E+03 -3.62771E+03  5.30046E+03
 -3.69665E+03  2.31220E+03 -2.18248E+03 -1.17638E+03 -1.63548E+02 -1.21890E+02 -8.09987E+02  7.39609E+02
 -1.73830E+03  1.42140E+02 -8.83130E+02 -4.83758E+02 -5.68457E+01 -1.76651E+03  3.93430E+02 -2.98468E+03
  2.98260E+03 -2.48224E+03  3.64466E+03 -1.61843E+02  5.44282E+03  3.83503E+03  7.49572E+02  6.97640E+03
 -3.03136E+03  8.66320E+03 -8.11352E+03  5.20899E+03 -8.04504E+03 -5.21485E+02 -6.06824E+03 -5.06712E+03
 -3.40131E+03 -7.07385E+03  1.53114E+03 -6.75669E+03  4.40257E+03 -3.46153E+03  4.51668E+03  5.96170E+02
  3.17718E+03  2.34105E+03 -1.83520E+02  1.92952E+03 -1.54213E+03 -5.74650E+02  1.96097E+02 -1.11405E+03
  2.25976E+03 -2.21060E+02  2.84667E+03  5.03840E+02  1.56624E+03  2.48378E+03  4.40677E+02  3.62206E+03
 -3.09641E+03  3.48830E+03 -3.81864E+03  5.84106E+02 -4.03943E+03 -3.16481E+03 -3.67970E+02 -6.34914E+03
  3.54617E+03 -4.70898E+03  5.89302E+03 -1.60361E+03  5.76059E+03  1.29157E+03  3.58378E+03  4.52580E+03
  1.15903E+03  3.88312E+03 -1.57239E+03  3.32695E+03 -3.12670E+03  1.64693E+03 -2.76800E+03  1.87763E+02
 -9.86334E+02 -6.47406E+02 -1.78294E+03  4.47799E+02 -2.38873E+03  1.02884E+03 -3.37125E+03 -8.37783E+02
 -3.42604E+03 -2.46631E+03 -1.21102E+03 -4.27541E+03  2.53692E+03 -4.66060E+03  4.53630E+03 -2.19193E+03
  4.71178E+03 -2.72339E+02  2.13817E+03  2.78572E+03 -4.99049E+02  4.65062E+03 -3.30742E+03  3.63958E+03
