 $NMID ID='MM_0lb_SNR400_19hz_g60_59.RAW', FMTDAT='(8E13.5)'
 TRAMP=1., VOLUME=1. $END
  3.09860E+05  3.07111E+02  3.37722E+05  2.50338E+05  8.43105E+04  3.37466E+05 -1.32451E+05  2.50605E+05
 -1.89288E+05  8.29220E+04 -1.11572E+05 -3.29046E+04  1.15897E+03 -5.06102E+04  5.36881E+04 -4.35980E+02
  3.52574E+04  5.26089E+04 -1.67837E+04  7.52742E+04 -6.06349E+04  6.34693E+04 -8.42206E+04  3.25116E+04
 -8.04674E+04 -1.12136E+04 -5.62179E+04 -5.09966E+04 -1.45884E+04 -6.94437E+04  2.70549E+04 -4.54232E+04
  3.91156E+04  4.08264E+03  1.56670E+04  4.76657E+04 -3.36835E+04  4.71909E+04 -6.60071E+04 -1.98082E+02
 -5.24619E+04 -5.66774E+04 -6.20849E+03 -7.60784E+04  3.35462E+04 -5.37340E+04  4.77411E+04 -1.67869E+04
  4.23776E+04  1.12367E+04  3.17244E+04  2.44287E+04  1.57655E+04  2.92236E+04 -4.52876E+03  2.71003E+04
 -2.23308E+04  1.25970E+04 -1.88208E+04 -4.59956E+03  5.07426E+03 -7.70565E+03  2.13850E+04  1.21402E+04
  7.58799E+03  3.42483E+04 -3.10407E+04  3.49389E+04 -6.18954E+04  1.85795E+03 -5.62227E+04 -4.18762E+04
 -1.20312E+04 -6.22211E+04  3.92590E+04 -4.41217E+04  5.69966E+04 -1.92525E+03  3.29244E+04  3.13555E+04
 -6.12337E+03  3.45423E+04 -2.96267E+04  1.41477E+04 -2.94528E+04 -4.97397E+03 -1.54977E+04 -1.12893E+04
 -7.80631E+03 -1.25700E+04 -1.10665E+03 -1.74453E+04  7.13844E+03 -2.28047E+04  1.51611E+04 -1.31118E+04
  1.18200E+04  5.28573E+03 -6.62468E+03  1.28252E+04 -2.04164E+04 -3.79599E+03 -7.34026E+03 -3.22257E+04
  2.18269E+04 -4.17882E+04  4.65991E+04 -1.95735E+04  4.26107E+04  1.89096E+04  1.46017E+04  4.19744E+04
 -1.51856E+04  3.17600E+04 -2.46266E+04  1.35166E+03 -9.46313E+03 -2.66328E+04  2.02028E+04 -3.23434E+04
  3.90327E+04 -8.01100E+03  3.29743E+04  2.28229E+04  1.66132E+04  4.44303E+04 -7.69468E+03  4.69391E+04
 -3.02027E+04  3.11858E+04 -3.92185E+04  8.77494E+03 -4.02747E+04 -1.61448E+04 -2.21024E+04 -3.60816E+04
  6.90522E+03 -3.55773E+04  2.95328E+04 -1.32628E+04  2.76042E+04  1.05581E+04  3.23611E+03  1.80766E+04
 -1.33288E+04  7.10790E+03 -9.87792E+03 -7.31020E+03  6.16327E+03 -1.08275E+04  1.78414E+04  6.48068E+03
  1.25349E+04  2.16747E+04 -6.67543E+03  2.35838E+04 -2.15441E+04  1.02117E+04 -2.58706E+04 -5.44597E+03
 -1.80968E+04 -1.60764E+04 -6.54655E+03 -1.83641E+04  3.68434E+03 -1.63524E+04  1.33971E+04 -1.55087E+04
  2.30621E+04 -1.17038E+04  2.98752E+04  2.02177E+03  2.14585E+04  1.75488E+04  3.47415E+03  3.38678E+04
 -1.62063E+04  2.86806E+04 -2.68458E+04  9.80123E+03 -1.98287E+04 -1.02222E+04 -4.68812E+03 -1.39538E+04
  1.63991E+03 -3.89654E+03 -3.37519E+03  5.27547E+03 -1.37647E+04  4.75019E+03 -1.45590E+04 -5.63991E+03
 -8.94524E+03 -1.65975E+04  4.87848E+03 -2.05319E+04  1.38490E+04 -1.45773E+04  1.56683E+04 -1.67003E+03
  9.55427E+03  1.15278E+04 -1.02883E+03  1.67899E+04 -1.10383E+04  9.31182E+03 -1.67465E+04 -3.59966E+03
 -1.17944E+04 -1.47647E+04 -1.42499E+03 -1.99870E+04  8.87592E+03 -1.65311E+04  1.64374E+04 -8.02163E+03
  1.53769E+04  3.20626E+01  1.08489E+04  3.88457E+03  6.17788E+03  5.58049E+02  8.36540E+03 -1.55376E+03
  1.46429E+04  2.80810E+03  1.65058E+04  1.31050E+04  1.00824E+04  2.61000E+04 -3.53402E+03  2.87351E+04
 -1.69272E+04  2.18273E+04 -2.58831E+04  1.07368E+04 -2.68365E+04 -1.48717E+03 -2.26681E+04 -1.57209E+04
 -1.00935E+04 -2.20520E+04  7.46038E+03 -2.04161E+04  1.77910E+04 -1.15333E+04  1.63178E+04  3.74063E+03
  6.69666E+03  1.17344E+04 -7.68957E+03  1.10245E+04 -1.39589E+04  2.78764E+03 -1.06562E+04 -8.13887E+03
 -3.24498E+02 -1.29717E+04  6.68989E+03 -9.92585E+03  8.68204E+03 -1.53654E+03  1.65574E+03  5.19701E+03
 -6.15722E+03  1.24646E+03 -3.90824E+03 -4.83367E+03  7.29192E+02 -1.11889E+04  8.03751E+03 -1.10269E+04
  1.29948E+04 -5.34705E+03  1.29778E+04  2.89787E+03  1.06976E+04  1.00154E+04  5.35439E+03  1.48047E+04
 -1.90552E+03  1.62411E+04 -1.02354E+04  1.08566E+04 -1.16236E+04  2.68807E+03 -8.43899E+03 -1.59564E+03
 -4.36735E+03 -3.48226E+03 -2.25022E+02  1.10759E+03 -1.87054E+03  2.33891E+03 -3.70652E+03  3.46828E+03
 -8.54963E+03 -4.21714E+00 -9.33584E+03 -7.45132E+03 -3.63887E+03 -1.17534E+04  3.50409E+03 -8.34330E+03
  7.22743E+03 -4.18208E+03  5.33496E+03  2.54418E+03  5.96304E+02  2.86678E+03 -3.55958E+03  4.00140E+01
 -4.13534E+03 -5.16185E+03 -4.10982E+02 -7.68696E+03  4.29464E+03 -8.59671E+03  1.00359E+04 -4.10986E+03
  1.18831E+04  6.03648E+02  8.98635E+03  6.60252E+03  2.22785E+03  9.16648E+03 -4.97174E+03  9.27220E+03
 -7.13013E+03  2.83508E+03 -3.76639E+03 -1.27117E+03  1.52533E+03 -2.25318E+03  4.68206E+03 -9.76133E+02
  4.76244E+03  3.64072E+03  1.19031E+03  6.84774E+03 -4.23394E+03  6.16269E+03 -8.35079E+03  1.77582E+03
 -5.65954E+03 -4.38644E+03  2.01201E+02 -6.94699E+03  3.90849E+03 -3.25259E+03  4.00504E+03  1.06923E+03
  5.44381E+02  3.73669E+03 -4.15966E+03  5.35107E+03 -5.71922E+03  2.43379E+03 -4.18550E+03 -1.04387E+03
 -3.08574E+03 -6.53395E+03  1.12165E+03 -7.90979E+03  5.88895E+03 -4.50126E+03  6.80137E+03  1.38225E+03
  4.95687E+03  5.46982E+03  4.08738E+02  7.70585E+03 -5.30908E+03  4.33145E+03 -5.43404E+03 -6.74855E+02
 -6.18898E+03 -5.35103E+03 -1.37297E+03 -5.44454E+03  2.48882E+03 -4.38393E+03  3.03648E+03 -3.29472E+03
  2.86780E+03  5.74941E+01 -2.94985E+02  1.36025E+03  1.02675E+03 -4.78089E+02  7.91361E+01 -1.69688E+03
  3.97940E+03 -7.03495E+02  5.04700E+03  1.96377E+02  5.68180E+03  3.72827E+03  5.49554E+03  7.22538E+03
 -1.56570E+03  8.70251E+03 -8.07510E+03  6.69879E+03 -1.02045E+04  1.09954E+03 -7.68476E+03 -2.53535E+03
 -3.91686E+03 -7.18061E+03 -4.84971E+02 -5.31791E+03  1.93273E+03 -2.04449E+03  1.65916E+03 -1.86080E+03
  1.13324E+03 -1.47122E+03  2.94136E+03 -2.69208E+03  4.17853E+03 -1.61102E+03  3.74620E+03  2.69340E+02
  4.58289E+03  1.44128E+03  1.76224E+03  3.44532E+03 -1.24880E+03  2.65514E+03 -4.04843E+03  2.23459E+03
 -4.45892E+03 -7.71518E+02 -2.21843E+03 -3.32247E+03  4.40507E+02 -4.73023E+03  3.18548E+03 -5.64040E+03
  5.19763E+03 -3.18101E+03  6.48686E+03  4.48403E+02  5.08420E+03  3.95179E+03  9.26085E+02  5.44186E+03
 -2.00889E+03  5.58961E+03 -3.19329E+03  1.41103E+03 -1.57271E+03 -8.83050E+02 -1.77208E+02 -5.29972E+02
 -1.05099E+03  6.89168E+01 -2.88495E+02  1.58605E+03 -1.80734E+03  7.21076E+02 -4.02115E+03 -2.36888E+02
 -1.63222E+03 -3.55872E+03  1.02460E+03 -4.63365E+03  2.72357E+03 -4.27655E+03  3.66915E+03 -8.63427E+02
  4.52801E+03  3.26475E+03  1.73779E+03  3.37659E+03 -9.44691E+02  4.61537E+03 -3.31623E+03  2.44609E+03
 -3.58402E+03  8.05578E+01 -3.29592E+03 -2.67370E+03 -2.00400E+02 -2.80924E+03  8.11643E+02 -2.58394E+03
  2.51046E+03 -1.48552E+03  1.93078E+03  1.65533E+02  4.11801E+02  8.57115E+02  1.15744E+03  9.95278E+02
  1.15663E+03  9.79635E+02  1.17046E+03  1.02543E+03  1.29558E+03  2.31081E+03  1.34367E+03  2.02226E+03
 -1.22581E+03  2.38928E+03 -2.35837E+03  4.06602E+03 -2.98396E+03  1.07419E+03 -3.98773E+03 -1.71700E+02
 -1.54044E+03 -3.08136E+03  7.37558E+02 -4.60765E+03  1.67089E+03 -2.18017E+03  2.42395E+03 -5.42137E+02
  2.07377E+03  9.97213E+02  2.71756E+02  1.74408E+03 -7.27102E+02  1.16566E+03 -3.14158E+02 -6.01809E+02
 -6.28845E+02 -1.16784E+03  1.18903E+03 -9.66032E+02  1.05197E+03 -1.43308E+03  1.36040E+03  2.16577E+02
  9.92198E+02  9.58470E+01  4.22901E+02 -5.11124E+02 -7.77666E+02  1.74783E+02  1.02893E+03 -3.22026E+02
  6.06997E+02 -9.71898E+01  1.95230E+03  8.05932E+02  6.30003E+01  2.26387E+03  3.52133E+01  3.00576E+03
 -1.74021E+03  9.62671E+02 -1.70121E+03  9.06930E+02 -1.90711E+03 -9.03317E+02 -9.93648E+01 -4.74999E+02
  4.21920E+02 -1.56766E+03  3.17843E+02 -7.25667E+02  4.84302E+02  1.35048E+03 -6.33503E+02  1.37945E+03
 -1.53270E+03  1.23295E+03 -9.54632E+02 -1.41489E+03 -4.36859E+02 -1.89787E+03 -8.18960E+00 -1.91249E+03
  4.65051E+02 -5.84420E+02  3.23306E+02  6.22871E+01  1.35430E+03 -5.77501E+02  7.12038E+02  8.10979E+02
 -3.89601E+01 -4.77497E+02 -1.08114E+03 -3.36693E+01  5.90666E+02 -1.26649E+03  1.52890E+03 -9.36194E+02
  8.49549E+02 -8.43891E+01  2.66910E+03  9.65367E+02  9.90551E+02  1.22424E+03 -5.33826E+02  1.56414E+03
 -1.22531E+03 -5.69886E+01 -1.07431E+03  2.90884E+02 -1.00975E+03 -1.26157E+03 -1.04185E+01 -8.79542E+01
  1.58531E+03 -7.82444E+02  4.90248E+02  6.91293E+02  3.53135E+01  1.05665E+03  6.29555E+02  9.08736E+02
 -2.89602E+02  8.92665E+02  1.53682E+01  1.19978E+02  2.93698E+02  7.59673E+02 -8.70080E+02  4.43697E+02
 -5.85672E+02  1.37165E+03 -1.55278E+03  4.76987E+02 -1.78709E+03  4.54769E+02 -1.62691E+03 -1.24778E+03
 -1.25350E+03 -1.80157E+03  4.29352E+02 -2.90893E+03  7.14428E+02 -1.67866E+03  2.22744E+03 -1.04392E+03
  2.39375E+03 -7.18528E+02  1.32922E+03  1.12166E+03 -5.25073E+02  9.29656E+02 -4.59234E+02  1.01086E+03
 -8.03896E+02  7.48791E+02 -9.49806E+02 -6.66645E+02 -6.37689E+02 -2.64160E+02 -7.27961E+01  5.90772E+01
 -1.09613E+03 -1.29221E+02 -6.44937E+02 -2.56984E+01  8.56820E+02 -6.18490E+01 -6.24410E+02 -5.33988E+02
  1.00424E+03 -5.18899E+02  7.37302E+02 -1.51442E+02  1.36486E+03  1.33184E+03 -6.91723E+02  1.09225E+03
 -9.88547E+02  2.26693E+03 -1.23413E+03  1.01869E+03 -1.86780E+03 -5.71787E+02 -9.78369E+02 -7.70381E+02
 -7.66942E+02 -1.20391E+03  3.75440E+02 -8.21781E+02  2.34848E+01 -8.13269E+02  3.31342E+02  1.88722E+02
  4.34747E+02  6.55386E+01  3.62824E+02  1.78420E+01 -6.67597E+02  3.04408E+02  9.43146E+01  2.67840E+02
  1.10049E+03  3.40325E+02  2.30881E+02  6.77671E+02  4.60231E+02  3.58505E+02 -4.82886E+02  1.94166E+02
 -6.79780E+02  5.45720E+02 -7.17280E+02  6.25173E+02 -3.64304E+02 -4.28752E+02  1.11845E+01 -4.95506E+02
  5.46169E+02 -8.73971E+02  2.14133E+02  6.88456E+02  5.73932E+02 -8.97103E+02  3.34375E+02  9.59535E+02
 -8.01803E+00  2.87572E+02 -6.55625E+01  6.10535E+02 -8.75405E+02  6.71985E+02 -2.78178E+02  6.19242E+02
 -7.86428E+02 -9.85314E-01 -6.91831E+02  1.40438E+02 -2.56694E+02 -5.31023E+02 -7.60340E+02 -1.32743E+02
 -1.15701E+03  2.55961E+02 -4.05384E+02 -4.56995E+02  9.20587E+02 -1.43679E+03  5.05081E+02  1.82536E+02
  2.59343E+02  9.99158E+01 -9.46719E+02  4.70275E+01 -4.18246E+02  6.68567E+02  3.50979E+02  6.81888E+02
