 $NMID ID='MM_0lb_SNR400_15hz_g40_71.RAW', FMTDAT='(8E13.5)'
 TRAMP=1., VOLUME=1. $END
  3.10115E+05 -6.42554E+01  3.38501E+05  2.50843E+05  8.45699E+04  3.37644E+05 -1.32607E+05  2.50848E+05
 -1.90679E+05  8.26944E+04 -1.11351E+05 -3.28253E+04  1.17486E+03 -4.97697E+04  5.41498E+04  2.84958E+02
  3.49713E+04  5.32341E+04 -1.64004E+04  7.53486E+04 -6.01509E+04  6.28041E+04 -8.34245E+04  3.08142E+04
 -8.03815E+04 -1.10664E+04 -5.66374E+04 -4.97097E+04 -1.50485E+04 -6.85708E+04  2.71818E+04 -4.49669E+04
  4.01215E+04  3.71072E+03  1.54680E+04  4.71894E+04 -3.44708E+04  4.67220E+04 -6.58521E+04 -4.42067E+02
 -5.23740E+04 -5.63646E+04 -6.03792E+03 -7.63363E+04  3.34673E+04 -5.36665E+04  4.74943E+04 -1.64076E+04
  4.17969E+04  1.05848E+04  3.10260E+04  2.44567E+04  1.59494E+04  2.89880E+04 -5.20557E+03  2.73729E+04
 -2.17083E+04  1.27443E+04 -1.87807E+04 -4.50791E+03  4.88402E+03 -7.63881E+03  2.17147E+04  1.16421E+04
  7.55817E+03  3.46062E+04 -3.14389E+04  3.42989E+04 -6.16970E+04  2.22926E+03 -5.64333E+04 -4.18969E+04
 -1.25639E+04 -6.20939E+04  3.89675E+04 -4.43091E+04  5.68322E+04 -1.60650E+03  3.31419E+04  3.12897E+04
 -6.62636E+03  3.41116E+04 -2.95122E+04  1.46291E+04 -2.89478E+04 -5.07597E+03 -1.57644E+04 -1.07404E+04
 -7.89605E+03 -1.25499E+04 -1.44537E+03 -1.71261E+04  6.71307E+03 -2.23511E+04  1.50225E+04 -1.38324E+04
  1.15464E+04  5.55821E+03 -6.92188E+03  1.31117E+04 -2.00665E+04 -3.25715E+03 -8.37165E+03 -3.25817E+04
  2.20620E+04 -4.16479E+04  4.63143E+04 -1.90961E+04  4.28464E+04  1.94738E+04  1.43035E+04  4.30531E+04
 -1.55371E+04  3.26026E+04 -2.44284E+04  1.77433E+03 -9.28319E+03 -2.71512E+04  2.08761E+04 -3.25451E+04
  3.99362E+04 -8.27962E+03  3.37923E+04  2.37523E+04  1.69060E+04  4.48331E+04 -7.81947E+03  4.78320E+04
 -3.08530E+04  3.19199E+04 -4.00996E+04  8.95263E+03 -4.11529E+04 -1.61805E+04 -2.23305E+04 -3.58670E+04
  7.18782E+03 -3.57411E+04  3.05937E+04 -1.37760E+04  2.80637E+04  1.11054E+04  3.52266E+03  1.88459E+04
 -1.32506E+04  8.36269E+03 -9.74101E+03 -7.94932E+03  5.91112E+03 -1.04495E+04  1.70292E+04  6.08838E+03
  1.32521E+04  2.19635E+04 -6.91509E+03  2.41827E+04 -2.18866E+04  1.02405E+04 -2.69568E+04 -5.56774E+03
 -1.82982E+04 -1.68135E+04 -7.64196E+03 -1.85032E+04  4.12889E+03 -1.73860E+04  1.40550E+04 -1.63708E+04
  2.34038E+04 -1.25094E+04  3.08717E+04  2.29561E+03  2.20501E+04  1.84545E+04  4.43713E+03  3.47695E+04
 -1.70971E+04  2.92207E+04 -2.75712E+04  1.04290E+04 -2.04567E+04 -1.06421E+04 -4.10392E+03 -1.37975E+04
  2.19956E+03 -3.58484E+03 -3.82367E+03  6.00136E+03 -1.48998E+04  5.12076E+03 -1.47811E+04 -6.10117E+03
 -8.98974E+03 -1.75145E+04  5.41886E+03 -2.15320E+04  1.37641E+04 -1.49358E+04  1.65149E+04 -1.86326E+03
  1.00966E+04  1.15342E+04 -9.26726E+02  1.78530E+04 -1.19321E+04  9.82947E+03 -1.79140E+04 -3.83477E+03
 -1.24853E+04 -1.58436E+04 -1.56625E+03 -2.09217E+04  9.71914E+03 -1.80841E+04  1.73270E+04 -8.76355E+03
  1.67093E+04  8.31415E+02  1.21640E+04  3.99549E+03  6.05614E+03  6.94473E+02  8.63441E+03 -1.97712E+03
  1.55725E+04  2.81229E+03  1.67848E+04  1.39599E+04  1.15445E+04  2.78180E+04 -3.21814E+03  3.09852E+04
 -1.88075E+04  2.42718E+04 -2.85500E+04  1.18261E+04 -3.01296E+04 -1.95806E+03 -2.41932E+04 -1.71318E+04
 -1.07264E+04 -2.38767E+04  8.52626E+03 -2.23029E+04  1.85787E+04 -1.19913E+04  1.76500E+04  4.56610E+03
  6.87302E+03  1.33317E+04 -8.19630E+03  1.14870E+04 -1.51486E+04  2.42179E+03 -1.14352E+04 -8.87536E+03
 -8.79057E+02 -1.38808E+04  6.78246E+03 -1.01845E+04  9.49825E+03 -1.20614E+03  1.68315E+03  5.54045E+03
 -6.62915E+03  1.84398E+03 -4.75263E+03 -4.95132E+03  1.20988E+02 -1.19945E+04  8.98105E+03 -1.29228E+04
  1.46893E+04 -6.50030E+03  1.45526E+04  2.64260E+03  1.32545E+04  1.22013E+04  6.27994E+03  1.73026E+04
 -2.83899E+03  1.95869E+04 -1.27359E+04  1.17948E+04 -1.39305E+04  2.95393E+03 -1.05121E+04 -3.12521E+03
 -4.40078E+03 -4.07025E+03 -9.83244E+02  1.42834E+03 -2.41600E+03  2.27782E+03 -4.22582E+03  4.40313E+03
 -9.10922E+03 -1.04635E+03 -1.07902E+04 -8.47001E+03 -4.14599E+03 -1.31021E+04  4.19790E+03 -9.87698E+03
  8.95915E+03 -4.32542E+03  6.17351E+03  2.13473E+03  5.65518E+02  4.02831E+03 -4.62394E+03 -2.39080E+02
 -4.49294E+03 -6.00637E+03 -1.07777E+03 -9.41641E+03  4.97212E+03 -9.92234E+03  1.26159E+04 -5.52128E+03
  1.46637E+04  9.13518E+02  1.09581E+04  8.15979E+03  1.92775E+03  1.11118E+04 -6.20862E+03  1.01021E+04
 -7.62048E+03  3.25899E+03 -4.34435E+03 -1.92728E+03  1.66348E+03 -2.60263E+03  5.46794E+03 -1.35182E+03
  4.53873E+03  4.40413E+03  1.07788E+03  8.01306E+03 -5.92464E+03  7.58556E+03 -1.00435E+04  1.90110E+03
 -7.22123E+03 -4.92885E+03  1.52948E+02 -7.62476E+03  5.24579E+03 -4.04350E+03  4.54927E+03  1.25863E+03
  7.57957E+02  4.68082E+03 -4.32623E+03  6.29151E+03 -6.68555E+03  2.83129E+03 -7.31577E+03 -2.67287E+03
 -4.30355E+03 -8.22960E+03  1.69857E+03 -9.68733E+03  7.65239E+03 -6.35569E+03  8.85932E+03  1.75231E+03
  6.05934E+03  6.95935E+03 -8.13377E+01  9.13864E+03 -6.61746E+03  5.32770E+03 -7.18301E+03 -9.27952E+02
 -7.17962E+03 -6.07958E+03 -1.29812E+03 -6.50769E+03  3.44569E+03 -5.50904E+03  4.01130E+03 -3.44484E+03
  3.51468E+03  2.90624E+02  2.48611E+02  1.54990E+03  7.43667E+02 -1.22139E+03  9.62495E+02 -2.67361E+03
  5.74686E+03 -1.25770E+03  7.59698E+03  8.79622E+02  7.49891E+03  4.92674E+03  6.21066E+03  9.89783E+03
 -1.14665E+03  1.23739E+04 -1.06287E+04  9.25018E+03 -1.32214E+04  1.15388E+03 -1.06715E+04 -3.75230E+03
 -6.16287E+03 -8.93214E+03 -7.96063E+01 -7.45265E+03  2.35592E+03 -3.44969E+03  2.62496E+03 -2.77117E+03
  1.15971E+03 -1.99285E+03  1.77292E+03 -2.70418E+03  4.19157E+03 -1.66026E+03  4.70434E+03 -1.04733E+03
  5.59271E+03  1.20901E+03  2.08174E+03  4.49482E+03 -1.80201E+03  4.58490E+03 -6.48953E+03  3.65174E+03
 -6.93462E+03 -1.35552E+03 -3.55195E+03 -4.64956E+03 -5.24800E+01 -7.06399E+03  4.81066E+03 -7.98307E+03
  8.09495E+03 -4.43207E+03  9.52507E+03  9.82031E+02  6.28753E+03  5.93621E+03  1.43145E+03  8.62538E+03
 -3.03287E+03  7.92160E+03 -4.81546E+03  2.31911E+03 -2.98298E+03 -1.48472E+03 -1.49478E+03 -6.85422E+02
 -6.80496E+01  1.49216E+02 -1.02940E+03  2.64434E+03 -2.89586E+03  8.23899E+02 -5.27490E+03 -9.60528E+02
 -2.99169E+03 -4.94415E+03  8.47547E+01 -6.97887E+03  4.07990E+03 -6.14424E+03  6.48960E+03 -1.70219E+03
  6.90066E+03  3.22750E+03  2.82129E+03  5.20820E+03 -1.59980E+03  7.16631E+03 -4.53664E+03  3.65116E+03
 -5.69692E+03  7.99571E+02 -5.40671E+03 -4.02741E+03 -7.87938E+02 -5.96612E+03  2.48579E+03 -3.73885E+03
  4.37778E+03 -1.53392E+03  2.62474E+03  1.10203E+03  7.94633E+02  1.95550E+03  1.27907E+03  5.73296E+02
  1.57933E+03  7.79600E+02  1.67770E+03  1.31008E+03  2.14683E+03  2.58487E+03  1.34837E+03  3.17257E+03
 -1.79340E+03  5.01070E+03 -3.96742E+03  5.72053E+03 -5.54820E+03  1.74350E+03 -6.65899E+03 -2.01716E+03
 -3.59351E+03 -5.67258E+03  7.28388E+02 -6.46732E+03  3.57172E+03 -3.96162E+03  5.04657E+03 -1.54981E+03
  4.15540E+03  2.36411E+03  3.00803E+02  3.84836E+03 -2.19799E+03  2.39581E+03 -2.11532E+03 -2.64723E+02
 -1.24618E+03 -2.31094E+03  1.62466E+03 -2.31261E+03  2.75539E+03 -1.44443E+03  2.38952E+03  3.18960E+02
  1.43020E+03  1.05594E+03  1.10873E+03  1.10487E+02 -3.19531E+02  1.25277E+03  1.62975E+03 -4.76011E+02
  9.24749E+02 -6.88168E+02  2.70021E+03  7.96934E+02  9.94017E+02  3.63428E+03 -5.49867E+02  4.28579E+03
 -3.01756E+03  2.14086E+03 -4.23113E+03  1.02389E+03 -3.85524E+03 -9.12719E+02 -6.36239E+02 -1.96681E+03
  1.85754E+02 -2.46634E+03  1.27888E+03 -1.53273E+03  7.70128E+02  1.90813E+03 -9.06996E+02  1.54547E+03
 -2.59752E+03  1.31528E+03 -2.34236E+03 -2.44834E+03 -1.22305E+03 -2.96230E+03  2.08212E+02 -2.51945E+03
  1.15408E+03 -1.12850E+03  1.47802E+03  2.04882E+01  1.94063E+03  4.02386E+02  4.14945E+02  1.90635E+03
 -1.02997E+03 -4.83323E+00 -1.50378E+03 -1.42122E+03  6.71327E+02 -1.81066E+03  3.18446E+03 -1.26533E+03
  2.81642E+03  9.40298E+01  4.18261E+03  1.67174E+03  1.28771E+03  3.41909E+03 -8.72016E+02  3.43419E+03
 -2.95685E+03  1.67226E+03 -3.45111E+03 -2.94074E+02 -1.93598E+03 -2.55926E+03  2.23318E+02 -1.23597E+03
  2.35395E+03 -1.12156E+03  1.28763E+03  9.74049E+02  8.33264E+01  2.52260E+03 -2.23626E+02  2.16785E+03
 -5.10637E+02  1.33218E+03 -3.76962E+02  6.21746E+02 -2.39379E+02  9.66595E+02 -1.39439E+03  1.38581E+03
 -1.06801E+03  8.51541E+02 -3.20185E+03  9.84027E+02 -3.31871E+03  7.54666E+02 -4.27551E+03 -2.50122E+03
 -1.52229E+03 -4.46551E+03  9.56151E+02 -4.95780E+03  2.58591E+03 -4.68660E+03  5.66139E+03 -1.49177E+03
  5.06233E+03 -1.21591E+02  2.17011E+03  3.03323E+03  1.25879E+02  2.75028E+03 -8.73436E+02  2.90758E+03
 -1.97901E+03  1.61765E+03 -1.45441E+03 -6.46704E+00 -1.20574E+02  1.89496E+02 -1.15415E+03 -3.01636E+02
 -1.49920E+03  8.11137E+02 -1.70517E+03 -2.11162E+02  1.84127E+02 -9.45658E+02 -3.57221E+02 -1.44461E+03
  2.42933E+03 -8.06475E+02  9.61399E+02  2.10037E+02  2.12762E+03  1.73751E+03 -5.30634E+02  3.22246E+03
 -1.27779E+03  4.43204E+03 -3.19436E+03  2.37476E+03 -3.57817E+03  1.14624E+02 -2.59748E+03 -2.24888E+03
 -1.29700E+03 -2.82529E+03  7.23563E+02 -2.86924E+03  1.35590E+03 -8.68658E+02  1.55124E+03 -2.97752E+02
  1.80707E+03  1.58241E+02 -4.68814E+01  8.74190E+02 -2.26106E+02 -6.08951E+01  3.59297E+01 -3.57723E+02
  1.22628E+03  4.38520E+02  1.45531E+03  4.69587E+02  2.15829E+02  9.75682E+02  3.09089E+02  1.25518E+03
 -1.47089E+03  1.71549E+03 -1.39990E+03  2.48432E+01 -2.02026E+03 -1.00746E+03 -2.61715E+02 -2.46522E+03
  9.33957E+02 -1.43599E+03  2.28801E+03 -6.11885E+02  2.10631E+03 -1.01186E+02  1.37505E+03  1.56582E+03
  4.24921E+02  1.63046E+03 -6.45091E+02  1.03935E+03 -1.19357E+03  1.55734E+03 -1.59370E+03  8.45389E+01
 -2.74942E+02 -3.61434E+02 -9.94182E+02  1.01382E+02 -6.92678E+02  7.30509E+02 -1.29130E+03 -9.29895E+02
 -1.84037E+03 -7.85054E+02 -3.18276E+02 -1.50085E+03  1.32239E+03 -2.99361E+03  1.16728E+03 -5.96684E+02
  2.23633E+03  5.11541E+02  5.81313E+02  1.20271E+03 -1.97957E+02  2.16966E+03 -1.55692E+03  1.70715E+03
