 $NMID ID='MM_0lb_SNR400_20hz_g50_49.RAW', FMTDAT='(8E13.5)'
 TRAMP=1., VOLUME=1. $END
  3.09245E+05  4.15323E+02  3.37374E+05  2.50374E+05  8.43834E+04  3.37795E+05 -1.32485E+05  2.49860E+05
 -1.89474E+05  8.21731E+04 -1.10986E+05 -3.29825E+04  1.29206E+03 -5.01951E+04  5.38696E+04  2.75356E+02
  3.47260E+04  5.26191E+04 -1.68744E+04  7.53241E+04 -6.01735E+04  6.26935E+04 -8.25306E+04  3.08785E+04
 -7.99887E+04 -1.12302E+04 -5.62805E+04 -4.99564E+04 -1.47852E+04 -6.76296E+04  2.68818E+04 -4.44838E+04
  3.93703E+04  4.11628E+03  1.54242E+04  4.74589E+04 -3.36914E+04  4.59317E+04 -6.54746E+04 -5.60197E+02
 -5.21559E+04 -5.60949E+04 -6.17955E+03 -7.50180E+04  3.33501E+04 -5.32063E+04  4.58403E+04 -1.61084E+04
  4.15858E+04  1.13159E+04  3.10436E+04  2.45375E+04  1.57587E+04  2.81633E+04 -4.51071E+03  2.70156E+04
 -2.16594E+04  1.25570E+04 -1.94822E+04 -4.85397E+03  4.12370E+03 -7.32873E+03  2.09127E+04  1.05427E+04
  7.81480E+03  3.29347E+04 -3.05421E+04  3.40475E+04 -6.06327E+04  2.27326E+03 -5.48959E+04 -4.09926E+04
 -1.24668E+04 -6.05560E+04  3.75302E+04 -4.32543E+04  5.49367E+04 -1.82440E+03  3.09074E+04  3.04573E+04
 -6.39242E+03  3.26262E+04 -2.82148E+04  1.28459E+04 -2.74612E+04 -5.46738E+03 -1.41991E+04 -9.97377E+03
 -6.84733E+03 -1.14533E+04 -5.90279E+02 -1.63136E+04  6.30289E+03 -2.26749E+04  1.49043E+04 -1.36891E+04
  1.23238E+04  3.86689E+03 -6.44488E+03  1.30172E+04 -1.84212E+04 -2.13829E+03 -8.81508E+03 -2.95014E+04
  2.05759E+04 -3.99491E+04  4.39461E+04 -1.82760E+04  4.13836E+04  1.80368E+04  1.42322E+04  4.06933E+04
 -1.51721E+04  3.00879E+04 -2.29789E+04  7.48299E+02 -7.86702E+03 -2.62963E+04  2.08529E+04 -3.10016E+04
  3.77996E+04 -6.98260E+03  3.07982E+04  2.27027E+04  1.49177E+04  4.18229E+04 -7.38183E+03  4.44665E+04
 -2.79571E+04  2.91499E+04 -3.68433E+04  8.64271E+03 -3.74081E+04 -1.44899E+04 -2.10694E+04 -3.40659E+04
  6.11939E+03 -3.36123E+04  2.87747E+04 -1.24792E+04  2.60430E+04  1.08946E+04  2.62586E+03  1.75390E+04
 -1.30103E+04  6.96127E+03 -9.55285E+03 -8.19724E+03  6.01027E+03 -9.82992E+03  1.71909E+04  6.39342E+03
  1.21909E+04  2.16619E+04 -6.89272E+03  2.27123E+04 -2.11951E+04  8.73614E+03 -2.47612E+04 -7.27445E+03
 -1.60807E+04 -1.59204E+04 -4.87979E+03 -1.61292E+04  3.34191E+03 -1.38460E+04  1.14385E+04 -1.35598E+04
  2.04755E+04 -1.17364E+04  2.71626E+04  1.08489E+03  2.08410E+04  1.56323E+04  3.80692E+03  3.17054E+04
 -1.56851E+04  2.68322E+04 -2.51686E+04  9.47008E+03 -1.93359E+04 -1.03818E+04 -3.77763E+03 -1.39021E+04
  2.29035E+03 -4.55485E+03 -1.85530E+03  5.00477E+03 -1.21138E+04  5.49088E+03 -1.33217E+04 -4.55168E+03
 -8.52116E+03 -1.46333E+04  3.95109E+03 -1.86145E+04  1.17373E+04 -1.34816E+04  1.38725E+04 -1.70868E+03
  9.11428E+03  1.07097E+04 -9.41947E+02  1.47730E+04 -1.02465E+04  8.79366E+03 -1.44408E+04 -3.30955E+03
 -1.10566E+04 -1.38286E+04 -1.13523E+03 -1.78112E+04  8.26278E+03 -1.41509E+04  1.59716E+04 -6.73808E+03
  1.43378E+04  6.26154E+02  1.03108E+04  4.23896E+03  4.91412E+03  5.65908E+02  7.78383E+03 -1.01038E+03
  1.30275E+04  2.71526E+03  1.39844E+04  1.23778E+04  8.04913E+03  2.37631E+04 -2.79173E+03  2.47969E+04
 -1.50193E+04  1.93033E+04 -2.21704E+04  8.55183E+03 -2.34314E+04 -1.48770E+03 -2.02374E+04 -1.28714E+04
 -9.26487E+03 -1.83394E+04  6.45447E+03 -1.80901E+04  1.55789E+04 -1.07757E+04  1.47007E+04  3.75725E+03
  6.73581E+03  1.03924E+04 -6.65878E+03  9.78304E+03 -1.26213E+04  2.79315E+03 -9.83044E+03 -7.56406E+03
 -4.63653E+02 -1.20374E+04  5.25196E+03 -9.47686E+03  7.22591E+03 -1.17367E+03  1.37833E+03  4.72556E+03
 -5.08335E+03  5.75302E+02 -3.34864E+03 -4.41126E+03  7.03712E+02 -9.52654E+03  7.49170E+03 -9.65218E+03
  1.14534E+04 -4.31371E+03  1.08669E+04  3.45321E+03  9.93725E+03  8.51463E+03  4.86048E+03  1.29809E+04
 -1.22065E+03  1.48098E+04 -8.98945E+03  9.19321E+03 -1.05665E+04  2.80775E+03 -7.71431E+03 -1.70640E+03
 -4.39632E+03 -3.15159E+03 -5.74196E+02  1.80493E+03 -1.98795E+03  2.05781E+03 -3.09490E+03  3.65177E+03
 -7.55517E+03 -5.48509E+02 -8.24294E+03 -6.66241E+03 -2.87089E+03 -1.06693E+04  2.81446E+03 -8.22066E+03
  6.74770E+03 -3.06701E+03  5.34299E+03  1.61439E+03  1.05614E+03  2.94731E+03 -2.87294E+03  2.69898E+02
 -3.05457E+03 -4.43951E+03 -9.37966E+02 -6.19465E+03  3.55893E+03 -7.03042E+03  9.10736E+03 -3.35810E+03
  1.03251E+04  4.83645E+02  8.22007E+03  5.05693E+03  1.69831E+03  7.38353E+03 -5.20148E+03  7.32098E+03
 -6.11590E+03  2.93327E+03 -3.09980E+03 -1.29518E+03  1.06876E+03 -1.42756E+03  4.31761E+03 -1.31615E+03
  3.52831E+03  3.41684E+03  1.13871E+03  5.95109E+03 -4.09489E+03  6.10578E+03 -7.35956E+03  1.77758E+03
 -4.10328E+03 -3.23902E+03  4.05397E+02 -5.60450E+03  3.11483E+03 -3.41893E+03  2.84464E+03  1.58053E+03
  4.28190E+02  2.31648E+03 -3.70843E+03  4.29276E+03 -4.42961E+03  2.65044E+03 -3.64876E+03 -8.16508E+02
 -2.16997E+03 -5.07767E+03  9.39346E+02 -5.90013E+03  5.31229E+03 -4.26907E+03  5.53157E+03  6.92763E+02
  4.07590E+03  4.21645E+03 -1.56244E+01  6.28850E+03 -4.50770E+03  3.57490E+03 -4.38803E+03 -6.08939E+01
 -5.29493E+03 -4.82451E+03 -1.06006E+03 -4.46256E+03  2.05227E+03 -3.58785E+03  1.96913E+03 -2.67641E+03
  2.71985E+03 -2.61113E+02  2.58889E+02  1.23481E+03  6.20786E+02  2.47551E+01  1.62632E+02 -1.30489E+03
  3.16785E+03  1.65112E+02  4.43229E+03  1.99555E+02  4.39815E+03  2.20151E+03  4.59692E+03  6.07846E+03
 -9.76334E+02  7.45847E+03 -6.46961E+03  5.51064E+03 -8.74827E+03  1.29168E+03 -7.00377E+03 -2.00450E+03
 -3.71334E+03 -5.68296E+03 -2.63124E+02 -4.40686E+03  1.80610E+03 -1.45416E+03  1.36479E+03 -2.09858E+03
  2.97966E+02 -9.61968E+02  1.97771E+03 -2.16210E+03  3.12429E+03 -1.28276E+03  3.23909E+03  6.13248E+02
  3.37619E+03  6.17557E+02  7.38201E+02  3.17727E+03 -1.48123E+03  1.74820E+03 -3.86187E+03  1.96659E+03
 -4.33584E+03 -1.18013E+03 -1.13523E+03 -2.40556E+03  5.43088E+02 -4.58382E+03  2.48635E+03 -4.40710E+03
  3.86616E+03 -2.88900E+03  5.05046E+03  3.07213E+02  4.43741E+03  3.73545E+03  1.03441E+03  5.32527E+03
 -2.02690E+03  4.80860E+03 -2.76672E+03  1.57489E+03 -1.36516E+03 -4.15533E+02 -5.41704E+02 -3.91709E+02
 -7.40819E+02  9.27394E+02 -8.32062E+02  1.75777E+03 -2.22395E+03  1.13773E+03 -3.07765E+03 -5.53673E+02
 -9.88815E+02 -4.14831E+03  4.23220E+02 -4.00081E+03  2.12823E+03 -3.56631E+03  2.21254E+03 -1.11085E+03
  2.92327E+03  1.86185E+03  1.39877E+03  2.23978E+03 -1.28335E+03  3.68776E+03 -2.25195E+03  2.39083E+03
 -3.11956E+03  6.55376E+02 -2.98780E+03 -1.73716E+03 -1.42842E+02 -2.27046E+03  8.09206E+02 -2.14495E+03
  2.26450E+03 -1.34308E+03  1.33470E+03  7.12756E+02  2.51818E+02  1.59591E+03  5.81686E+02  3.64242E+02
  1.42217E+03  2.53395E+02  7.52448E+02  5.19929E+02  3.50749E+02  2.07346E+03  1.07988E+03  1.41567E+03
 -9.95106E+02  2.11357E+03 -1.88696E+03  3.57494E+03 -2.07823E+03  1.67185E+03 -3.19602E+03  1.71583E+02
 -8.01169E+02 -2.67329E+03  4.27268E+02 -4.13896E+03  1.16457E+03 -2.41857E+03  2.29393E+03 -5.64670E+02
  1.90993E+03  1.55846E+03  2.68481E+02  2.22391E+03 -9.15135E+02  6.20228E+02 -8.51569E+02  3.90701E+02
 -4.03162E+02 -1.43826E+03  8.28221E+02 -8.14277E+02  6.64060E+02 -3.59101E+02  6.35853E+02  4.72720E+01
  2.52313E+02  2.37854E+02  1.21649E+03 -2.74103E+02 -5.40735E+02  1.17357E+03  1.63720E+03 -4.25861E+02
 -5.05400E+02  1.34228E+02  1.04826E+03  5.89493E+02 -2.45083E+02  1.66248E+03 -1.73984E+02  2.50837E+03
 -1.40780E+03  6.16585E+02 -1.75485E+03  2.66935E+02 -1.40365E+03 -1.75502E+02  4.72700E+01 -1.23042E+03
 -9.17758E+01 -8.88645E+02  7.24762E+02 -5.42018E+02  8.33073E+00  1.05112E+03 -7.46949E+02  1.06867E+03
 -1.17709E+03  7.47000E+02 -4.57310E+02 -1.35603E+03 -4.84724E+02 -1.74139E+03 -9.93990E+01 -8.70316E+02
 -2.23620E+02  1.01309E+02  6.19460E+02 -4.46802E+01  8.33712E+02 -7.49627E+02  1.55016E+01  9.16866E+02
 -2.76311E+02  2.08277E+02 -5.56748E+02 -2.69688E-01  4.75404E+02  7.70516E+01  1.30575E+03 -6.76881E+02
  5.60951E+02  3.85249E+02  2.65904E+03  1.82801E+02  9.29805E+02  1.15322E+03  3.30161E+02  1.03307E+03
 -8.55447E+02  2.36403E+02 -6.93779E+02  3.66741E+02 -3.97029E+02 -7.93737E+02  6.84125E+02  1.36114E+02
  1.81102E+03 -4.02094E+02  7.63282E+02  2.68464E+02 -9.25799E+01  1.55517E+03  2.88163E+01  1.33605E+03
 -2.24450E+02  1.15356E+03 -5.74402E+01 -1.02930E+02  3.64009E+02  5.06709E+02 -2.54165E+02  3.88164E+02
 -7.28436E+02  9.04462E+02 -1.26518E+03  4.16211E+02 -1.32569E+03 -2.27032E+02 -2.09877E+03 -8.83720E+02
 -5.85531E+02 -1.87429E+03  4.60420E+02 -2.09064E+03  5.65837E+02 -1.60046E+03  2.04854E+03 -4.15849E+02
  2.01161E+03 -2.26813E+02  1.07801E+03  1.27172E+03 -5.28090E+02  7.13117E+02 -2.79956E+02  1.24720E+03
 -6.36035E+02  9.66288E+02 -7.62016E+02  5.26454E+01 -3.07560E+02  1.89241E+02 -4.16902E+02 -1.52089E+02
 -1.03734E+03 -9.50989E+01 -9.08111E+02  4.55931E+01  1.84587E+02  8.74486E+00 -3.48973E+02 -6.26708E+02
  1.01594E+03 -3.12281E+02 -3.33848E+01  5.29161E+02  9.47114E+02  4.63096E+01 -1.06328E+03  1.07233E+03
 -5.30429E+02  1.17387E+03 -1.34206E+03  4.86235E+01 -1.28736E+03 -1.72879E+02 -6.29297E+02 -7.27140E+02
 -5.56331E+02 -9.13779E+02 -1.70227E+02 -9.32347E+02  4.47319E+02 -2.58988E+02 -2.05701E+02  1.15730E+02
  4.28307E+02 -5.53343E+00  3.03044E+01  3.12732E+02 -2.57384E+02 -1.21299E+00  9.00159E+01  9.42510E+01
  4.70203E+01  2.29310E+02  2.97724E+02  3.94111E+02  2.11045E+02 -8.81394E+01  1.45366E+02 -2.41471E+02
 -2.49441E+02  6.31962E+02 -5.80902E+02 -5.80213E+01 -5.59573E+01 -4.09225E+02  4.08569E+02 -2.71443E+02
  8.00222E+01 -7.46260E+02  1.25903E+02  1.20203E+02  6.72416E+02 -4.25743E+02  4.18984E+02  7.65440E+01
  2.34754E+02  8.42890E+01 -2.14185E+02  1.66056E+02 -8.35863E+01  6.46386E+02 -8.55522E+02  2.84642E+02
  8.57763E+01  2.97740E+02 -9.05131E+02  2.05928E+02 -6.78880E+02  3.90283E+02 -6.69997E+02 -1.36460E+02
 -8.08217E+02  3.03577E+02 -4.69572E+02 -5.82481E+02  1.27293E+03 -1.05786E+03  7.87909E+01 -5.88946E+02
 -1.21594E+02  2.23561E+02 -1.76862E+02 -7.46915E+01  1.87400E+01  8.23866E+02 -9.71626E+01  1.06911E+03
