 $NMID ID='MM_0lb_SNR400_13hz_g45_10.RAW', FMTDAT='(8E13.5)'
 TRAMP=1., VOLUME=1. $END
  3.09751E+05  8.18283E+02  3.38316E+05  2.50477E+05  8.43517E+04  3.38193E+05 -1.32708E+05  2.51601E+05
 -1.89975E+05  8.33658E+04 -1.12368E+05 -3.29970E+04  1.34111E+03 -5.05938E+04  5.38533E+04 -7.00700E+02
  3.60399E+04  5.23682E+04 -1.67466E+04  7.54209E+04 -6.03838E+04  6.34646E+04 -8.46316E+04  3.17895E+04
 -8.11021E+04 -1.12723E+04 -5.75247E+04 -5.07149E+04 -1.51596E+04 -6.97910E+04  2.79461E+04 -4.57349E+04
  4.00823E+04  3.74427E+03  1.64740E+04  4.81351E+04 -3.35787E+04  4.67715E+04 -6.70895E+04  4.24935E+02
 -5.28366E+04 -5.65776E+04 -6.00193E+03 -7.73504E+04  3.36520E+04 -5.57952E+04  4.80090E+04 -1.69618E+04
  4.36085E+04  1.16263E+04  3.26375E+04  2.58631E+04  1.55378E+04  2.96976E+04 -5.43327E+03  2.72308E+04
 -2.17026E+04  1.23241E+04 -1.83788E+04 -4.99633E+03  5.14295E+03 -7.75743E+03  2.19875E+04  1.18590E+04
  7.44072E+03  3.51569E+04 -3.15144E+04  3.55444E+04 -6.33882E+04  2.10303E+03 -5.67748E+04 -4.22310E+04
 -1.26781E+04 -6.40632E+04  3.96911E+04 -4.51151E+04  5.87628E+04 -2.09331E+03  3.43873E+04  3.20783E+04
 -6.84866E+03  3.56225E+04 -3.06947E+04  1.61678E+04 -3.13121E+04 -4.19627E+03 -1.65436E+04 -1.14044E+04
 -8.07129E+03 -1.30369E+04 -5.21308E+02 -1.83398E+04  7.18325E+03 -2.29818E+04  1.60230E+04 -1.33525E+04
  1.11775E+04  5.74828E+03 -8.54583E+03  1.28422E+04 -2.17170E+04 -4.85893E+03 -9.21822E+03 -3.35187E+04
  2.28103E+04 -4.38027E+04  4.92315E+04 -1.97283E+04  4.53594E+04  1.93990E+04  1.55774E+04  4.43940E+04
 -1.53442E+04  3.30912E+04 -2.57883E+04  2.14933E+03 -9.81060E+03 -2.71439E+04  2.10814E+04 -3.37650E+04
  4.11319E+04 -9.41269E+03  3.61495E+04  2.37749E+04  1.83759E+04  4.72866E+04 -8.08376E+03  5.09752E+04
 -3.19336E+04  3.47114E+04 -4.23857E+04  1.03264E+04 -4.35362E+04 -1.65693E+04 -2.37653E+04 -3.77278E+04
  7.08506E+03 -3.83805E+04  3.19878E+04 -1.52928E+04  2.89837E+04  1.12599E+04  4.50849E+03  2.01032E+04
 -1.35749E+04  8.15656E+03 -1.07926E+04 -7.49791E+03  5.72166E+03 -1.09912E+04  1.76753E+04  5.85512E+03
  1.33133E+04  2.21446E+04 -5.67197E+03  2.50065E+04 -2.21057E+04  1.30716E+04 -2.84937E+04 -4.29077E+03
 -2.12013E+04 -1.70380E+04 -8.66513E+03 -2.06155E+04  3.96483E+03 -1.99548E+04  1.61774E+04 -1.92217E+04
  2.65212E+04 -1.31672E+04  3.39400E+04  3.04406E+03  2.39467E+04  2.07965E+04  4.41820E+03  3.64354E+04
 -1.75943E+04  3.08895E+04 -2.79979E+04  1.06817E+04 -2.09330E+04 -1.05202E+04 -4.54084E+03 -1.32833E+04
  1.51238E+03 -2.63753E+03 -5.24066E+03  6.46900E+03 -1.57284E+04  5.18449E+03 -1.70209E+04 -7.40563E+03
 -1.05317E+04 -1.97074E+04  5.41285E+03 -2.34702E+04  1.59776E+04 -1.78216E+04  1.81888E+04 -1.40537E+03
  1.16905E+04  1.36310E+04 -7.26202E+02  1.97820E+04 -1.31311E+04  1.07136E+04 -2.00228E+04 -4.01609E+03
 -1.41121E+04 -1.75326E+04 -1.55099E+03 -2.34451E+04  1.03415E+04 -1.91869E+04  1.93900E+04 -9.63804E+03
  1.81387E+04  3.75585E+02  1.36687E+04  4.90488E+03  6.37845E+03  6.71091E+02  9.53009E+03 -1.99609E+03
  1.75512E+04  2.59417E+03  2.02925E+04  1.57287E+04  1.29067E+04  3.12138E+04 -2.76613E+03  3.51559E+04
 -2.06694E+04  2.87513E+04 -3.29357E+04  1.43876E+04 -3.49766E+04 -2.22370E+03 -2.84445E+04 -1.99153E+04
 -1.27385E+04 -2.85046E+04  1.02298E+04 -2.51614E+04  2.23121E+04 -1.37025E+04  2.00072E+04  6.03506E+03
  7.70875E+03  1.46685E+04 -9.65049E+03  1.27872E+04 -1.63041E+04  3.15162E+03 -1.27435E+04 -1.05400E+04
 -3.39032E+02 -1.58031E+04  8.90537E+03 -1.14794E+04  1.07699E+04 -7.77419E+02  1.97208E+03  6.89668E+03
 -7.18168E+03  2.85069E+03 -6.41674E+03 -6.28766E+03 -1.57748E+02 -1.42028E+04  1.01663E+04 -1.57997E+04
  1.70881E+04 -8.31355E+03  1.92713E+04  2.87076E+03  1.66440E+04  1.44532E+04  7.94115E+03  2.10363E+04
 -2.78255E+03  2.33955E+04 -1.48819E+04  1.47073E+04 -1.61344E+04  3.31914E+03 -1.15201E+04 -3.76622E+03
 -5.85850E+03 -5.62967E+03 -3.06696E+02  5.21390E+02 -2.28749E+03  2.45687E+03 -5.12802E+03  4.34599E+03
 -1.07254E+04 -1.02386E+03 -1.24503E+04 -9.51120E+03 -4.45339E+03 -1.57484E+04  4.91695E+03 -1.16089E+04
  9.46753E+03 -5.10755E+03  7.41328E+03  2.59816E+03  4.42333E+02  4.85760E+03 -5.95187E+03 -3.95215E+02
 -5.33055E+03 -7.29328E+03 -1.47534E+03 -1.08569E+04  5.97061E+03 -1.30339E+04  1.48786E+04 -6.32841E+03
  1.65211E+04  6.42230E+02  1.26752E+04  9.35520E+03  2.56997E+03  1.38036E+04 -7.21618E+03  1.19264E+04
 -9.60106E+03  3.48460E+03 -4.96892E+03 -1.78089E+03  1.25087E+03 -2.48776E+03  6.63462E+03 -1.24413E+03
  5.19076E+03  4.90156E+03  1.25027E+03  9.27265E+03 -6.73016E+03  8.64784E+03 -1.09361E+04  2.04136E+03
 -8.00401E+03 -5.49629E+03 -4.03015E+01 -9.93833E+03  5.82455E+03 -4.70455E+03  7.03704E+03  1.83296E+03
  1.55040E+03  6.09139E+03 -5.62249E+03  8.12842E+03 -8.95147E+03  3.95596E+03 -9.36540E+03 -2.79927E+03
 -4.61664E+03 -1.00674E+04  2.05189E+03 -1.17641E+04  9.92854E+03 -7.43669E+03  1.11014E+04  1.75034E+03
  6.61499E+03  9.22990E+03 -6.31732E+02  1.09999E+04 -8.34700E+03  6.17335E+03 -8.20260E+03 -9.95530E+02
 -7.31318E+03 -7.86453E+03 -1.61793E+03 -8.19146E+03  4.65675E+03 -6.91502E+03  4.67738E+03 -3.16048E+03
  3.85364E+03  6.13567E+02 -4.47194E+02  1.60464E+03 -6.91469E+01 -1.96407E+03  8.30345E+02 -5.32556E+03
  7.30260E+03 -2.49594E+03  1.04114E+04  8.06934E+02  1.04141E+04  7.03592E+03  7.18356E+03  1.33909E+04
 -2.77462E+03  1.56849E+04 -1.30247E+04  1.15841E+04 -1.70321E+04  2.02291E+03 -1.36893E+04 -5.86392E+03
 -6.96205E+03 -1.15392E+04 -4.40673E+02 -9.33182E+03  3.29985E+03 -4.38844E+03  3.29641E+03 -3.47665E+03
  1.95347E+03 -3.17350E+03  2.99245E+03 -3.06300E+03  4.41146E+03 -2.02143E+03  5.23057E+03 -3.57668E+02
  6.90124E+03  1.82517E+03  3.41388E+03  6.43317E+03 -1.57893E+03  6.70288E+03 -7.59197E+03  5.60597E+03
 -9.75502E+03 -1.55397E+03 -5.64728E+03 -6.64909E+03 -4.39791E+02 -9.79309E+03  6.25030E+03 -9.54386E+03
  1.05056E+04 -5.28327E+03  1.22819E+04  3.20074E+02  8.45555E+03  9.01589E+03  1.71777E+03  1.10609E+04
 -4.81079E+03  9.37552E+03 -6.05845E+03  3.15678E+03 -3.70083E+03 -5.38300E+02 -2.19517E+03 -7.84911E+02
 -8.56253E+02  4.76757E+02 -1.25412E+03  2.32308E+03 -3.43453E+03  1.81159E+03 -6.22066E+03 -8.57075E+02
 -4.11517E+03 -7.07401E+03  8.05542E+02 -9.22821E+03  5.45545E+03 -8.87199E+03  8.50585E+03 -2.23234E+03
  9.12762E+03  3.92673E+03  3.67369E+03  7.54289E+03 -1.85762E+03  8.38558E+03 -5.36543E+03  5.44892E+03
 -7.70307E+03  7.66756E+02 -6.17979E+03 -5.50761E+03 -5.68191E+02 -7.26024E+03  3.88487E+03 -5.33622E+03
  5.73376E+03 -2.14544E+03  3.58671E+03  1.60528E+03  1.32247E+03  2.72163E+03  7.75376E+02  1.15425E+03
  2.57004E+03  1.00331E+03  2.19011E+03  1.84818E+03  1.78288E+03  3.14722E+03  1.74933E+03  3.93852E+03
 -1.79417E+03  7.08876E+03 -6.00533E+03  7.63463E+03 -8.49874E+03  2.01782E+03 -9.03800E+03 -3.12299E+03
 -4.14462E+03 -8.49336E+03  1.16938E+03 -9.36089E+03  4.96455E+03 -5.51574E+03  6.51317E+03 -1.91595E+03
  4.92091E+03  3.54705E+03  1.18312E+03  5.06180E+03 -1.11888E+03  2.76621E+03 -3.54031E+03 -3.53098E+02
 -1.69159E+03 -4.01608E+03  2.00904E+03 -2.93844E+03  3.56310E+03 -1.97833E+03  3.24793E+03  3.30381E+02
  1.99847E+03  1.67306E+03  5.18363E+02  7.68968E+02 -9.41214E+02  1.13087E+03  1.96505E+03 -4.28820E+02
  1.01116E+03 -7.76250E+01  4.49530E+03  1.38025E+03  2.03650E+03  4.88299E+03 -7.85103E+02  5.26810E+03
 -3.85782E+03  3.60567E+03 -5.24050E+03  1.33326E+03 -4.70755E+03 -1.54181E+03 -1.65061E+03 -2.65566E+03
  3.22865E+02 -3.04197E+03  2.29980E+03 -1.49361E+03  1.61426E+03  1.67897E+03 -7.97653E+02  2.60643E+03
 -3.66948E+03  1.33454E+03 -3.46221E+03 -1.81968E+03 -1.85643E+03 -4.74519E+03  3.96036E+01 -4.81423E+03
  2.60274E+03 -2.02713E+03  3.24388E+03  3.53685E+02  2.85684E+03  2.61482E+02  4.54569E+02  2.30817E+03
 -9.45242E+02  9.21789E+02 -2.03306E+03 -1.26131E+03  1.07045E+03 -3.03474E+03  4.16360E+03 -2.81821E+03
  4.52310E+03  5.37770E+01  5.37677E+03  2.83104E+03  1.46362E+03  4.17886E+03 -1.91889E+03  5.45951E+03
 -4.30217E+03  1.63070E+03 -4.45525E+03 -9.26036E+02 -2.14091E+03 -3.27250E+03  1.60782E+03 -2.60372E+03
  3.01032E+03 -1.90444E+03  2.36707E+03  1.52440E+03  1.05278E+03  2.96615E+03 -4.79393E+02  2.24122E+03
 -8.00869E+02  2.16279E+03 -1.17846E+03  1.04513E+03 -1.34082E+02  2.49902E+02 -1.45207E+03  2.84691E+02
 -8.86614E+02  2.55741E+03 -3.36084E+03  1.28853E+03 -4.61536E+03 -8.49712E+01 -5.83026E+03 -2.81390E+03
 -2.64791E+03 -6.65932E+03  1.30450E+03 -8.65057E+03  3.84795E+03 -6.07622E+03  6.97869E+03 -2.15724E+03
  6.60711E+03  7.54349E+02  3.92155E+03  3.86840E+03 -3.21112E+01  4.58194E+03 -2.69908E+03  3.73192E+03
 -3.59962E+03  1.63312E+03 -1.15187E+03 -4.23243E+02 -1.44436E+03 -2.72675E+02 -7.57742E+02  4.60666E+00
 -1.15168E+03  1.29428E+02 -1.93233E+03  8.33914E-01  1.65165E+02 -1.13518E+03  1.45084E+02 -2.06180E+03
  2.29690E+03 -1.47840E+03  2.64015E+03 -8.47114E+01  3.02516E+03  3.14099E+03 -1.56405E+02  4.48262E+03
 -2.20755E+03  5.67832E+03 -4.96091E+03  3.31138E+03 -4.86626E+03 -6.75465E+02 -3.79556E+03 -4.06964E+03
 -1.94342E+03 -4.66895E+03  1.72818E+03 -4.62691E+03  3.29721E+03 -1.47829E+03  2.62608E+03 -7.24589E+00
  1.79275E+03  1.21727E+03 -8.35511E+02  8.80945E+02 -5.18258E+02 -4.53078E+01 -4.40336E+02 -1.04696E+03
  1.83042E+03 -1.02176E+03  1.63554E+03  6.88355E+02  1.24095E+03  1.52401E+03  4.53389E+02  2.07991E+03
 -1.74169E+03  1.96336E+03 -3.29072E+03  1.32629E+02 -2.95481E+03 -2.03931E+03 -4.52397E+02 -4.22702E+03
  2.23838E+03 -3.03318E+03  2.71975E+03 -9.65155E+02  3.89504E+03  2.99413E+02  1.25810E+03  2.73034E+03
  1.08755E+03  2.62781E+03 -1.25622E+03  2.02948E+03 -1.68695E+03  1.15710E+03 -1.73936E+03  3.35236E+02
 -1.07041E+03 -2.78246E+02 -1.12239E+03 -2.39984E+02 -1.66828E+03  1.25650E+02 -2.49514E+03 -6.62815E+01
 -2.57520E+03 -1.37750E+03 -3.09011E+02 -2.80544E+03  1.37726E+03 -3.93188E+03  2.70882E+03 -1.13698E+03
  2.68158E+03  1.68275E+02  8.67494E+02  2.21789E+03 -3.31897E+02  3.76836E+03 -2.40082E+03  1.48625E+03
