 $NMID ID='MM_0lb_SNR400_7hz_g40_33.RAW', FMTDAT='(8E13.5)'
 TRAMP=1., VOLUME=1. $END
  3.10189E+05  8.36964E+02  3.38043E+05  2.51189E+05  8.47285E+04  3.37874E+05 -1.32806E+05  2.53075E+05
 -1.91536E+05  8.45392E+04 -1.13056E+05 -3.20546E+04 -7.40574E+02 -5.05287E+04  5.30290E+04 -3.41193E+02
  3.56286E+04  5.26881E+04 -1.61427E+04  7.60606E+04 -6.20171E+04  6.48954E+04 -8.59666E+04  3.26731E+04
 -8.29486E+04 -1.11645E+04 -5.90206E+04 -5.17206E+04 -1.54264E+04 -7.14007E+04  2.84733E+04 -4.73957E+04
  4.11223E+04  4.11372E+03  1.70706E+04  4.83439E+04 -3.47969E+04  4.86786E+04 -6.81610E+04 -2.41140E+01
 -5.53966E+04 -5.85562E+04 -7.13331E+03 -7.89065E+04  3.49808E+04 -5.73116E+04  5.01198E+04 -1.81280E+04
  4.51823E+04  1.17045E+04  3.42232E+04  2.64002E+04  1.56632E+04  3.04366E+04 -5.44666E+03  2.83563E+04
 -2.25752E+04  1.23753E+04 -1.70341E+04 -5.67390E+03  6.07371E+03 -6.81013E+03  2.35196E+04  1.29497E+04
  7.48554E+03  3.83889E+04 -3.40985E+04  3.80379E+04 -6.60927E+04  1.74685E+03 -5.93708E+04 -4.41883E+04
 -1.20898E+04 -6.60584E+04  4.16941E+04 -4.74395E+04  6.17943E+04 -1.59314E+03  3.76763E+04  3.42939E+04
 -5.56539E+03  3.99699E+04 -3.15931E+04  2.00351E+04 -3.34392E+04 -3.87669E+03 -2.00026E+04 -1.20800E+04
 -1.00900E+04 -1.51469E+04 -3.19638E+02 -2.01328E+04  9.32914E+03 -2.38176E+04  1.55821E+04 -1.30043E+04
  1.06464E+04  6.16664E+03 -1.05164E+04  1.24632E+04 -2.38854E+04 -8.15632E+03 -7.88600E+03 -3.81885E+04
  2.47123E+04 -4.80823E+04  5.26239E+04 -2.23650E+04  4.98734E+04  2.19632E+04  1.77614E+04  4.80263E+04
 -1.69826E+04  3.65921E+04 -2.73431E+04  3.01989E+03 -1.18132E+04 -2.84489E+04  2.13662E+04 -3.77442E+04
  4.59302E+04 -1.25470E+04  4.17856E+04  2.57729E+04  2.21778E+04  5.25712E+04 -9.42694E+03  5.72711E+04
 -3.68607E+04  3.92844E+04 -4.94668E+04  1.08313E+04 -4.85573E+04 -1.88790E+04 -2.72378E+04 -4.27351E+04
  8.16565E+03 -4.35018E+04  3.58760E+04 -1.80221E+04  3.25958E+04  1.18240E+04  5.82991E+03  2.18755E+04
 -1.46571E+04  9.19798E+03 -1.08379E+04 -6.82259E+03  6.29998E+03 -1.16858E+04  1.91394E+04  5.29086E+03
  1.52900E+04  2.31566E+04 -5.25958E+03  2.76800E+04 -2.44745E+04  1.47775E+04 -3.23327E+04 -3.26217E+03
 -2.76528E+04 -1.90633E+04 -1.22558E+04 -2.59298E+04  5.39170E+03 -2.83156E+04  2.13324E+04 -2.41889E+04
  3.39473E+04 -1.50622E+04  3.95957E+04  5.72111E+03  2.70690E+04  2.54081E+04  3.91654E+03  4.29282E+04
 -2.03545E+04  3.46954E+04 -3.17743E+04  1.25717E+04 -2.34712E+04 -9.80300E+03 -4.94166E+03 -1.27237E+04
  7.00172E+02 -3.06863E+01 -8.49265E+03  8.13942E+03 -2.21309E+04  4.74446E+03 -2.12450E+04 -1.01297E+04
 -1.20607E+04 -2.47619E+04  6.11964E+03 -2.81881E+04  1.95922E+04 -2.10011E+04  2.33386E+04 -2.40881E+03
  1.61956E+04  1.67344E+04 -2.29862E+03  2.51391E+04 -1.69174E+04  1.44435E+04 -2.51456E+04 -4.42889E+03
 -1.83732E+04 -2.23272E+04 -2.73366E+03 -2.95742E+04  1.34637E+04 -2.47218E+04  2.43199E+04 -1.23254E+04
  2.29295E+04 -1.66735E+02  1.66526E+04  4.53096E+03  8.69687E+03  1.07306E+03  1.31992E+04 -2.11594E+03
  2.35904E+04  1.65703E+03  2.77481E+04  1.87576E+04  1.89208E+04  4.02995E+04 -2.49101E+03  4.79950E+04
 -2.65415E+04  4.00299E+04 -4.44952E+04  2.07490E+04 -4.78831E+04 -3.67184E+03 -3.83797E+04 -2.91013E+04
 -1.47250E+04 -3.98709E+04  1.45956E+04 -3.55114E+04  2.99964E+04 -1.65098E+04  2.51864E+04  8.69642E+03
  9.23348E+03  1.95199E+04 -1.34035E+04  1.62951E+04 -2.12717E+04  3.13560E+03 -1.57967E+04 -1.47214E+04
 -8.66061E+00 -2.03509E+04  1.06657E+04 -1.52285E+04  1.51769E+04 -1.68730E+03  4.59137E+03  1.04271E+04
 -9.31666E+03  4.42875E+03 -9.84747E+03 -6.47589E+03 -2.74866E+03 -1.93318E+04  1.23636E+04 -2.22952E+04
  2.47494E+04 -1.15157E+04  2.89070E+04  4.22413E+03  2.58268E+04  2.01142E+04  1.17747E+04  3.22543E+04
 -6.72616E+03  3.32696E+04 -2.19229E+04  2.07772E+04 -2.43388E+04  3.63891E+03 -1.66198E+04 -6.34265E+03
 -6.56671E+03 -8.92915E+03 -5.32599E+02  2.09013E+02 -3.22101E+03  3.64374E+03 -8.05561E+03  6.50823E+03
 -1.58832E+04 -1.50607E+03 -1.64645E+04 -1.31197E+04 -6.84954E+03 -2.06787E+04  6.98783E+03 -1.71423E+04
  1.32917E+04 -6.62935E+03  1.09743E+04  5.47402E+03  3.43822E+02  7.17857E+03 -9.19015E+03 -3.99311E+02
 -8.73109E+03 -1.08877E+04 -1.43966E+03 -1.73563E+04  1.00143E+04 -1.83814E+04  2.15418E+04 -8.91782E+03
  2.53444E+04  2.36514E+03  1.76698E+04  1.61836E+04  4.23393E+03  2.09035E+04 -1.12150E+04  1.56564E+04
 -1.34591E+04  4.08968E+03 -7.16395E+03 -3.60966E+03  2.94916E+03 -4.19563E+03  9.70555E+03 -1.39450E+03
  8.27436E+03  7.96490E+03  1.26980E+03  1.41794E+04 -9.80938E+03  1.30851E+04 -1.79941E+04  2.64214E+03
 -1.21489E+04 -8.76652E+03 -2.21691E+02 -1.41343E+04  9.24149E+03 -7.94344E+03  1.01338E+04  3.19490E+03
  2.70328E+03  1.20990E+04 -8.78180E+03  1.20234E+04 -1.56148E+04  5.90294E+03 -1.59041E+04 -5.78844E+03
 -9.97144E+03 -1.84023E+04  5.16874E+03 -2.02252E+04  1.73250E+04 -1.23853E+04  1.91382E+04  4.70427E+03
  1.07318E+04  1.40233E+04 -1.18808E+03  1.72835E+04 -1.34674E+04  1.02542E+04 -1.47370E+04 -9.98402E+02
 -1.22738E+04 -1.25198E+04 -1.44040E+03 -1.48855E+04  7.53061E+03 -1.07467E+04  9.40534E+03 -3.40510E+03
  5.28149E+03  2.62056E+03 -7.35492E+02  2.33439E+03 -8.47274E+02 -3.79455E+03  3.07257E+03 -8.37176E+03
  1.32051E+04 -5.67950E+03  1.88668E+04  1.76436E+03  1.88766E+04  1.31881E+04  1.11193E+04  2.44231E+04
 -6.38625E+03  2.81521E+04 -2.27595E+04  1.96762E+04 -2.85896E+04  4.02995E+03 -2.34017E+04 -1.07918E+04
 -1.22937E+04 -1.97436E+04 -3.50454E+02 -1.71397E+04  6.04304E+03 -9.98715E+03  6.28693E+03 -6.20181E+03
  4.32400E+03 -2.65639E+03  4.35040E+03 -3.88902E+03  6.39800E+03 -4.29121E+03  9.67565E+03 -2.18414E+03
  1.25012E+04  2.70055E+03  7.31057E+03  1.11534E+04 -1.98796E+03  1.32846E+04 -1.25007E+04  9.27950E+03
 -1.63936E+04 -9.52691E+02 -1.14725E+04 -1.23647E+04 -2.07759E+03 -1.92364E+04  9.92237E+03 -1.83437E+04
  1.91826E+04 -1.04028E+04  2.20309E+04  2.76986E+03  1.59373E+04  1.59965E+04  2.57328E+03  2.05542E+04
 -8.84454E+03  1.64878E+04 -1.17026E+04  6.10012E+03 -8.23262E+03 -1.92178E+03 -3.99146E+03 -2.51455E+03
 -1.90375E+03 -3.08914E+02 -4.29624E+03  3.04682E+03 -7.00060E+03  2.10550E+03 -1.13715E+04 -2.42529E+03
 -8.68423E+03 -1.16921E+04  5.00042E+02 -1.75021E+04  9.83682E+03 -1.72050E+04  1.85434E+04 -4.55658E+03
  1.83431E+04  7.99406E+03  8.17021E+03  1.65461E+04 -4.03480E+03  1.74069E+04 -1.32155E+04  1.09009E+04
 -1.66766E+04  6.08185E+02 -1.24305E+04 -1.06584E+04 -1.79915E+03 -1.50267E+04  7.59507E+03 -1.05335E+04
  1.15150E+04 -2.81960E+03  8.21968E+03  2.97317E+03  2.83876E+03  4.16214E+03  1.42755E+03  2.03411E+03
  3.42140E+03  1.17477E+03  4.32381E+03  6.14433E+02  5.17468E+03  6.19656E+03  4.15067E+03  9.89013E+03
 -4.21392E+03  1.51373E+04 -1.31857E+04  1.35232E+04 -1.88777E+04  2.69887E+03 -1.89887E+04 -8.99709E+03
 -9.41549E+03 -1.83736E+04  3.36376E+03 -1.98174E+04  1.11359E+04 -1.27605E+04  1.46531E+04 -4.80235E+03
  1.20528E+04  6.64176E+03  2.37418E+03  1.00114E+04 -5.09318E+03  6.97006E+03 -7.96001E+03 -3.44513E+02
 -3.71816E+03 -7.78437E+03  3.87259E+03 -8.84687E+03  8.13585E+03 -4.03009E+03  7.31329E+03  1.63137E+03
  4.38099E+03  4.21313E+03  1.29960E+03  3.71846E+03 -1.27425E+03  2.44381E+03  2.01637E+03 -7.31528E+02
  3.02385E+03 -2.10708E+03  7.86292E+03  3.19214E+03  4.77418E+03  9.32654E+03 -1.66298E+03  1.26358E+04
 -8.18614E+03  9.61883E+03 -1.12360E+04  2.18632E+03 -1.13743E+04 -4.05563E+03 -4.60306E+03 -7.59819E+03
  1.85891E+03 -6.61584E+03  4.71225E+03 -4.36648E+03  4.93786E+03  3.89260E+03 -1.90368E+03  6.35050E+03
 -7.50364E+03  3.49326E+03 -9.34513E+03 -4.22422E+03 -4.69184E+03 -1.11753E+04  2.03531E+03 -1.04926E+04
  6.22659E+03 -6.44672E+03  8.84546E+03 -8.96569E+02  5.65275E+03  3.63322E+03  1.14724E+03  5.93393E+03
 -3.82357E+03  1.53855E+03 -4.13493E+03 -4.61026E+03  1.31397E+03 -7.10042E+03  1.03411E+04 -6.95029E+03
  1.35475E+04  1.61762E+03  1.06766E+04  8.98245E+03  4.67783E+03  1.39866E+04 -4.88794E+03  1.30406E+04
 -1.07232E+04  5.28316E+03 -1.20685E+04 -1.28929E+03 -6.28058E+03 -8.58569E+03  2.04552E+03 -7.51523E+03
  7.51307E+03 -3.48886E+03  7.29504E+03  3.66936E+03  2.50969E+03  8.01086E+03 -1.06711E+03  6.02028E+03
 -3.23523E+03  3.46771E+03 -3.19896E+03  4.27114E+02 -2.16542E+03  8.45420E+02 -1.48960E+03  2.41591E+03
 -3.56222E+03  4.15046E+03 -8.94139E+03  4.45808E+03 -1.33859E+04  7.31639E+02 -1.48015E+04 -8.27681E+03
 -8.33971E+03 -1.76135E+04  3.48446E+03 -2.02903E+04  1.23195E+04 -1.56629E+04  1.94035E+04 -5.66923E+03
  1.76844E+04  3.76784E+03  1.20464E+04  1.19529E+04  1.70510E+03  1.31748E+04 -5.16188E+03  1.03861E+04
 -6.57846E+03  1.81602E+03 -4.69513E+03 -1.50701E+03 -1.52392E+03 -1.65068E+03 -4.38992E+02  3.51294E+02
 -3.04162E+03  1.06446E+03 -2.43631E+03 -7.03460E+02 -3.42710E+02 -3.34891E+03 -3.22764E+02 -4.96138E+03
  6.27655E+03 -5.15537E+03  8.29409E+03  1.08014E+03  9.45817E+03  7.99409E+03  3.82363E+03  1.34028E+04
 -6.14248E+03  1.70374E+04 -1.44296E+04  9.46494E+03 -1.70684E+04 -1.75549E+03 -1.22776E+04 -1.00043E+04
 -4.63252E+03 -1.44805E+04  3.10289E+03 -1.24189E+04  8.66305E+03 -6.89612E+03  9.70817E+03  8.48400E+02
  4.65468E+03  4.75566E+03 -1.02076E+03  4.33780E+03 -3.08639E+03 -4.11705E+02  3.07133E+02 -2.81100E+03
  5.23879E+03 -2.03001E+03  5.80751E+03  1.93119E+03  4.09727E+03  4.95022E+03 -1.92361E+02  7.30815E+03
 -6.78732E+03  7.44616E+03 -1.13041E+04  8.07672E+02 -8.65240E+03 -7.61164E+03 -1.20182E+03 -1.19667E+04
  6.72875E+03 -9.80781E+03  1.22491E+04 -2.83276E+03  1.17252E+04  2.89764E+03  5.99044E+03  8.79562E+03
  7.21952E+02  9.04949E+03 -3.47568E+03  8.09433E+03 -6.09993E+03  3.75418E+03 -4.23987E+03  5.59459E+02
 -2.20670E+03 -4.67153E+02 -2.56625E+03  9.17516E+02 -5.23709E+03  1.64321E+03 -7.70989E+03 -1.81372E+03
 -6.91654E+03 -5.48658E+03 -2.65874E+03 -9.94003E+03  4.89274E+03 -1.13226E+04  8.52539E+03 -5.06101E+03
  9.19979E+03  9.09257E+02  6.00363E+03  7.51015E+03 -6.01091E+02  1.00912E+04 -7.44067E+03  5.80547E+03
