 $NMID ID='MM_0lb_SNR400_10hz_g60_63.RAW', FMTDAT='(8E13.5)'
 TRAMP=1., VOLUME=1. $END
  3.09758E+05  1.32439E+03  3.37914E+05  2.50584E+05  8.52194E+04  3.38493E+05 -1.33625E+05  2.51170E+05
 -1.90675E+05  8.41028E+04 -1.12882E+05 -3.21992E+04  4.26482E+02 -5.08591E+04  5.39868E+04 -3.32906E+02
  3.56422E+04  5.33276E+04 -1.66508E+04  7.58596E+04 -6.16857E+04  6.51366E+04 -8.56869E+04  3.28467E+04
 -8.27228E+04 -1.21885E+04 -5.77936E+04 -5.26663E+04 -1.52576E+04 -7.10502E+04  2.80733E+04 -4.63727E+04
  4.12625E+04  3.80582E+03  1.70689E+04  4.82698E+04 -3.40532E+04  4.85543E+04 -6.86088E+04  3.73680E+02
 -5.52894E+04 -5.80872E+04 -7.14980E+03 -7.93253E+04  3.40067E+04 -5.76675E+04  4.94433E+04 -1.80117E+04
  4.50743E+04  1.15481E+04  3.37091E+04  2.69431E+04  1.56219E+04  3.02125E+04 -6.13361E+03  2.80088E+04
 -2.18463E+04  1.21030E+04 -1.75117E+04 -5.30461E+03  6.98768E+03 -7.64629E+03  2.40535E+04  1.36720E+04
  7.20436E+03  3.75873E+04 -3.31420E+04  3.68603E+04 -6.66568E+04  2.13274E+03 -5.87544E+04 -4.51344E+04
 -1.28551E+04 -6.65132E+04  4.16221E+04 -4.79635E+04  6.21772E+04 -2.69235E+03  3.63069E+04  3.36911E+04
 -5.44798E+03  3.95393E+04 -3.24416E+04  1.87677E+04 -3.42332E+04 -3.68890E+03 -1.94891E+04 -1.22211E+04
 -9.34230E+03 -1.58383E+04  2.76216E+02 -1.94653E+04  8.46094E+03 -2.33398E+04  1.58495E+04 -1.26632E+04
  1.04293E+04  6.64685E+03 -1.11464E+04  1.18787E+04 -2.32172E+04 -6.09926E+03 -8.85861E+03 -3.74493E+04
  2.57057E+04 -4.75421E+04  5.22646E+04 -2.18065E+04  4.87486E+04  2.03869E+04  1.78693E+04  4.77732E+04
 -1.68443E+04  3.59254E+04 -2.74438E+04  2.94381E+03 -1.20553E+04 -2.96312E+04  2.09918E+04 -3.58282E+04
  4.48532E+04 -1.12274E+04  4.07335E+04  2.49420E+04  2.12654E+04  5.10147E+04 -8.04258E+03  5.68983E+04
 -3.55464E+04  3.91782E+04 -4.69831E+04  1.18223E+04 -4.78360E+04 -1.87678E+04 -2.49297E+04 -4.16254E+04
  8.35599E+03 -4.23120E+04  3.47822E+04 -1.73764E+04  3.17898E+04  1.07991E+04  5.97416E+03  2.04512E+04
 -1.40601E+04  9.32438E+03 -1.12534E+04 -7.12662E+03  5.70180E+03 -1.13378E+04  1.93181E+04  5.78142E+03
  1.51350E+04  2.30851E+04 -5.79317E+03  2.71484E+04 -2.33532E+04  1.46103E+04 -3.13275E+04 -3.86388E+03
 -2.52709E+04 -1.92353E+04 -1.13114E+04 -2.58506E+04  4.36359E+03 -2.60748E+04  2.04160E+04 -2.24696E+04
  3.21126E+04 -1.39708E+04  3.75783E+04  4.37811E+03  2.65999E+04  2.44110E+04  4.79014E+03  4.09543E+04
 -1.99314E+04  3.34245E+04 -3.05394E+04  1.15385E+04 -2.22333E+04 -1.09303E+04 -4.84788E+03 -1.37154E+04
  7.41717E+02 -1.63389E+03 -8.82596E+03  8.14681E+03 -2.02523E+04  4.70890E+03 -2.04086E+04 -9.46140E+03
 -1.15475E+04 -2.36971E+04  6.23631E+03 -2.76613E+04  1.87197E+04 -1.94454E+04  2.33242E+04 -1.18319E+03
  1.45912E+04  1.70485E+04 -1.33008E+03  2.32787E+04 -1.73348E+04  1.41490E+04 -2.33955E+04 -4.97143E+03
 -1.66391E+04 -2.15479E+04 -1.94531E+03 -2.77657E+04  1.29996E+04 -2.31783E+04  2.25845E+04 -1.20952E+04
  2.25620E+04 -6.59154E+02  1.62685E+04  4.70499E+03  8.41965E+03  2.72689E+03  1.22782E+04 -2.69443E+03
  2.21677E+04  2.90793E+03  2.56553E+04  1.87201E+04  1.69036E+04  3.72140E+04 -2.64501E+03  4.40120E+04
 -2.48266E+04  3.67271E+04 -4.21667E+04  1.88494E+04 -4.46282E+04 -3.68599E+03 -3.59232E+04 -2.53829E+04
 -1.42443E+04 -3.67178E+04  1.35050E+04 -3.26017E+04  2.76755E+04 -1.58415E+04  2.38104E+04  7.60832E+03
  8.32344E+03  1.86734E+04 -1.12566E+04  1.56199E+04 -2.05836E+04  2.74812E+03 -1.56126E+04 -1.34063E+04
 -2.41550E+02 -1.99683E+04  1.05180E+04 -1.41839E+04  1.37401E+04 -1.51219E+03  4.29761E+03  8.94576E+03
 -8.68930E+03  4.61637E+03 -9.39909E+03 -6.43498E+03 -2.39989E+03 -1.85923E+04  1.16569E+04 -1.93741E+04
  2.32354E+04 -1.05089E+04  2.54256E+04  3.27970E+03  2.31780E+04  1.86764E+04  9.78212E+03  2.95288E+04
 -6.04558E+03  3.06780E+04 -2.02465E+04  1.89735E+04 -2.24767E+04  4.56927E+03 -1.53671E+04 -6.78845E+03
 -6.66413E+03 -7.20765E+03 -4.19557E+02  2.88897E+02 -2.91416E+03  3.06908E+03 -8.14891E+03  4.74873E+03
 -1.40728E+04 -8.19888E+02 -1.56368E+04 -1.19061E+04 -6.22561E+03 -1.90424E+04  5.89708E+03 -1.53867E+04
  1.28027E+04 -6.24590E+03  8.79709E+03  4.61891E+03 -1.00273E+03  6.01586E+03 -7.43360E+03 -5.60084E+02
 -7.09686E+03 -1.01592E+04 -1.89827E+03 -1.57498E+04  9.22254E+03 -1.59170E+04  1.99713E+04 -8.85038E+03
  2.34898E+04  2.77481E+03  1.74499E+04  1.44842E+04  3.19156E+03  1.92181E+04 -8.97257E+03  1.53657E+04
 -1.28103E+04  4.65261E+03 -6.32457E+03 -3.53827E+03  2.34582E+03 -4.04827E+03  7.51098E+03 -6.76384E+02
  7.32779E+03  6.89818E+03  1.46844E+03  1.23677E+04 -9.14241E+03  1.21220E+04 -1.55530E+04  2.18385E+03
 -1.10674E+04 -8.56810E+03 -6.12138E+02 -1.37374E+04  9.17521E+03 -5.81945E+03  9.56455E+03  3.80280E+03
  2.63865E+03  1.02970E+04 -7.65890E+03  1.14799E+04 -1.35282E+04  5.20911E+03 -1.29909E+04 -5.41804E+03
 -7.23764E+03 -1.59774E+04  4.39772E+03 -1.81595E+04  1.57179E+04 -1.07513E+04  1.56942E+04  2.98788E+03
  1.06726E+04  1.25290E+04 -1.43501E+03  1.54286E+04 -1.15936E+04  7.74063E+03 -1.22771E+04 -1.12358E+03
 -1.09818E+04 -1.08368E+04 -1.71521E+03 -1.22247E+04  5.21322E+03 -9.18921E+03  6.81102E+03 -3.18248E+03
  4.83467E+03  1.04383E+03 -6.20370E+02  2.20852E+03 -8.38537E+02 -3.82054E+03  3.41710E+03 -8.01156E+03
  1.10254E+04 -4.62246E+03  1.55059E+04  1.79916E+03  1.47209E+04  1.10658E+04  1.02294E+04  2.01706E+04
 -3.70033E+03  2.29541E+04 -2.00198E+04  1.81621E+04 -2.53228E+04  3.24150E+03 -1.96797E+04 -9.69973E+03
 -1.00664E+04 -1.67700E+04  2.59045E+01 -1.34390E+04  5.47770E+03 -7.86437E+03  5.57703E+03 -4.29093E+03
  3.99280E+03 -2.24584E+03  4.45966E+03 -4.02377E+03  5.69546E+03 -4.18986E+03  7.48122E+03 -2.03517E+03
  9.70373E+03  2.00324E+03  6.97699E+03  9.02643E+03 -2.38832E+03  1.10538E+04 -1.12852E+04  8.27424E+03
 -1.40900E+04 -7.88599E+02 -8.23887E+03 -9.90442E+03 -1.24112E+03 -1.54254E+04  8.36986E+03 -1.57445E+04
  1.58664E+04 -8.00425E+03  1.92651E+04  2.47021E+03  1.25983E+04  1.30797E+04  2.16497E+03  1.67238E+04
 -7.47233E+03  1.39200E+04 -1.01065E+04  4.61030E+03 -6.82198E+03 -1.94100E+03 -2.90537E+03 -1.74598E+03
 -1.05720E+03 -6.30739E+02 -2.38899E+03  2.62445E+03 -6.19493E+03  2.25904E+03 -1.02613E+04 -1.66879E+03
 -7.03704E+03 -9.89570E+03 -2.38708E+02 -1.42514E+04  8.74003E+03 -1.26678E+04  1.44012E+04 -4.07158E+03
  1.42148E+04  7.34722E+03  7.03208E+03  1.30754E+04 -2.78347E+03  1.49808E+04 -1.04720E+04  9.02522E+03
 -1.38780E+04  7.66484E+02 -1.05523E+04 -8.57740E+03 -1.53541E+03 -1.19551E+04  5.92096E+03 -9.11961E+03
  8.32192E+03 -2.46721E+03  6.00055E+03  2.94829E+03  1.81027E+03  4.11400E+03  1.27067E+03  1.86166E+03
  2.55418E+03  1.81419E+03  4.32184E+03  1.77521E+03  4.05350E+03  4.21837E+03  3.67747E+03  8.17582E+03
 -2.06331E+03  1.14824E+04 -9.67962E+03  1.17518E+04 -1.44075E+04  3.07068E+03 -1.50447E+04 -5.56483E+03
 -7.47900E+03 -1.40348E+04  1.62033E+03 -1.56210E+04  9.53260E+03 -1.01063E+04  1.09138E+04 -2.04220E+03
  9.04282E+03  5.85980E+03  2.71131E+03  8.40979E+03 -4.09992E+03  5.64382E+03 -6.03444E+03 -1.05476E+03
 -2.96314E+03 -6.46606E+03  3.54180E+03 -5.85677E+03  5.64347E+03 -2.96033E+03  5.34406E+03  1.31401E+03
  3.33443E+03  2.99063E+03  1.77342E+03  1.29052E+03 -8.64832E+02  2.24291E+03  1.45190E+03 -6.98735E+02
  2.12785E+03 -4.47416E+02  5.44872E+03  2.65698E+03  2.69170E+03  7.79207E+03 -1.05402E+03  9.46677E+03
 -7.08167E+03  6.37667E+03 -9.20797E+03  1.62959E+03 -7.98366E+03 -3.34880E+03 -3.60674E+03 -5.56919E+03
  3.31206E+01 -5.36289E+03  4.57430E+03 -1.75503E+03  2.94277E+03  2.73304E+03 -1.50154E+03  5.59731E+03
 -5.90458E+03  2.78966E+03 -6.84862E+03 -3.80476E+03 -3.79632E+03 -8.05932E+03  9.41706E+02 -8.23128E+03
  4.77898E+03 -4.60246E+03  5.65265E+03 -3.74207E+02  4.49595E+03  1.44012E+03  2.46258E+02  4.70030E+03
 -2.77289E+03  1.70909E+03 -3.11357E+03 -2.53046E+03  1.38770E+03 -5.71190E+03  7.06761E+03 -4.90445E+03
  9.00245E+03  6.47729E+02  8.20585E+03  7.24407E+03  2.51540E+03  9.47472E+03 -3.10838E+03  9.37991E+03
 -7.01139E+03  3.65383E+03 -8.36552E+03 -1.03539E+03 -3.72227E+03 -6.30174E+03  1.76363E+03 -5.61059E+03
  6.59430E+03 -2.02933E+03  5.73579E+03  2.49884E+03  1.43226E+03  5.33903E+03 -4.91398E+02  4.91568E+03
 -2.91775E+03  3.76462E+03 -2.55319E+03  1.26151E+03 -8.81013E+02  9.94502E+02 -1.66085E+03  1.39269E+03
 -2.87121E+03  3.88414E+03 -6.11282E+03  2.27424E+03 -8.81525E+03  4.89725E+02 -9.14833E+03 -5.82666E+03
 -4.86352E+03 -1.22173E+04  2.45783E+03 -1.47165E+04  8.87317E+03 -1.10158E+04  1.31350E+04 -4.56778E+03
  1.22854E+04  2.60430E+03  7.75331E+03  7.68416E+03  1.02501E+03  1.02372E+04 -4.88798E+03  6.83147E+03
 -5.31370E+03  2.78854E+03 -2.96840E+03 -1.97609E+03 -1.72979E+03 -1.33542E+03 -4.76329E+02  3.69233E+01
 -2.61476E+03 -1.83038E+02 -1.86652E+03 -8.05684E+02 -1.33666E+03 -2.29828E+03  2.06950E+02 -3.83296E+03
  4.53599E+03 -3.12855E+03  4.96946E+03  6.23752E+02  6.67136E+03  4.65555E+03  1.49345E+03  9.49981E+03
 -4.45110E+03  1.10232E+04 -1.02411E+04  6.97033E+03 -1.17838E+04 -1.43981E+03 -8.54740E+03 -6.89767E+03
 -4.23602E+03 -8.56903E+03  2.55704E+03 -8.75747E+03  6.13073E+03 -4.23452E+03  6.66204E+03  1.12899E+02
  3.20245E+03  3.04412E+03 -6.10955E+02  2.22202E+03 -2.02953E+03 -1.99453E+02  1.08641E+02 -2.32493E+03
  2.79143E+03 -3.33511E+02  3.63969E+03  1.74779E+03  2.14531E+03  2.89250E+03 -3.42629E+02  4.64942E+03
 -4.21014E+03  4.41759E+03 -6.31675E+03  3.70283E+02 -5.33606E+03 -4.42183E+03 -1.37730E+03 -8.03460E+03
  4.80591E+03 -5.76943E+03  6.84313E+03 -1.63185E+03  7.82041E+03  1.18417E+03  4.41329E+03  5.51442E+03
  1.19980E+03  5.47847E+03 -1.91830E+03  4.56065E+03 -4.02034E+03  2.42096E+03 -3.52054E+03 -5.89292E+01
 -2.01441E+03 -6.66631E+02 -1.54805E+03  8.51197E+02 -2.81609E+03  1.10150E+03 -4.99521E+03 -1.42441E+03
 -4.49084E+03 -4.04369E+03 -1.74958E+03 -6.30479E+03  3.37346E+03 -6.29740E+03  4.99165E+03 -2.70146E+03
  5.53242E+03  3.03658E+02  3.32192E+03  4.55877E+03 -1.35299E+03  6.56207E+03 -4.52333E+03  4.07116E+03
