 $NMID ID='MM_0lb_SNR400_18hz_g55_53.RAW', FMTDAT='(8E13.5)'
 TRAMP=1., VOLUME=1. $END
  3.09765E+05  4.00349E+02  3.37485E+05  2.49962E+05  8.44701E+04  3.37871E+05 -1.32455E+05  2.51108E+05
 -1.89125E+05  8.25584E+04 -1.11749E+05 -3.25538E+04  7.20165E+02 -5.07977E+04  5.41836E+04  1.24358E+01
  3.46759E+04  5.31656E+04 -1.68534E+04  7.52683E+04 -6.07486E+04  6.33192E+04 -8.29764E+04  3.16682E+04
 -8.04621E+04 -1.13014E+04 -5.71728E+04 -5.05125E+04 -1.52049E+04 -6.95515E+04  2.73813E+04 -4.50367E+04
  3.96061E+04  4.27914E+03  1.58456E+04  4.78285E+04 -3.44720E+04  4.62582E+04 -6.62374E+04  1.52482E+02
 -5.33361E+04 -5.67555E+04 -6.88705E+03 -7.57764E+04  3.35097E+04 -5.43128E+04  4.71047E+04 -1.66804E+04
  4.22994E+04  1.18170E+04  3.11021E+04  2.50218E+04  1.56328E+04  2.84742E+04 -4.54784E+03  2.66544E+04
 -2.16798E+04  1.25893E+04 -1.89138E+04 -3.84918E+03  5.05818E+03 -7.07635E+03  2.18199E+04  1.14898E+04
  7.56560E+03  3.42961E+04 -3.13652E+04  3.49601E+04 -6.23956E+04  2.03539E+03 -5.64889E+04 -4.16589E+04
 -1.21556E+04 -6.14705E+04  3.87079E+04 -4.43899E+04  5.69285E+04 -1.52684E+03  3.29351E+04  3.15632E+04
 -6.65858E+03  3.43117E+04 -2.91435E+04  1.45467E+04 -2.88525E+04 -5.03210E+03 -1.54529E+04 -1.05336E+04
 -7.40869E+03 -1.18491E+04 -1.00798E+03 -1.69993E+04  6.47716E+03 -2.23117E+04  1.50795E+04 -1.38176E+04
  1.14368E+04  4.60424E+03 -6.87301E+03  1.28182E+04 -2.05852E+04 -3.23377E+03 -8.03483E+03 -3.20569E+04
  2.18430E+04 -4.19609E+04  4.57673E+04 -1.93163E+04  4.32766E+04  1.86240E+04  1.46861E+04  4.27726E+04
 -1.56562E+04  3.24659E+04 -2.40625E+04  1.42852E+03 -9.34930E+03 -2.67400E+04  2.02738E+04 -3.30329E+04
  3.94729E+04 -7.97028E+03  3.34768E+04  2.27501E+04  1.65690E+04  4.37322E+04 -7.74473E+03  4.68113E+04
 -2.99394E+04  3.09033E+04 -3.87597E+04  8.75900E+03 -4.00429E+04 -1.58226E+04 -2.28019E+04 -3.52286E+04
  6.74582E+03 -3.54248E+04  3.00522E+04 -1.35543E+04  2.78653E+04  1.09984E+04  2.89054E+03  1.83938E+04
 -1.35537E+04  7.85997E+03 -1.02727E+04 -7.45849E+03  5.67331E+03 -1.08627E+04  1.79189E+04  6.20048E+03
  1.20524E+04  2.14548E+04 -6.86492E+03  2.39219E+04 -2.12770E+04  1.04818E+04 -2.57639E+04 -5.60996E+03
 -1.84250E+04 -1.67080E+04 -6.36720E+03 -1.76822E+04  3.02968E+03 -1.63937E+04  1.39188E+04 -1.56251E+04
  2.28290E+04 -1.21223E+04  2.95919E+04  1.61047E+03  2.29041E+04  1.75383E+04  3.60198E+03  3.40559E+04
 -1.61404E+04  2.81135E+04 -2.66847E+04  9.70699E+03 -1.99545E+04 -1.00677E+04 -3.65371E+03 -1.45509E+04
  2.51536E+03 -4.12931E+03 -3.88321E+03  6.43391E+03 -1.36968E+04  4.96615E+03 -1.45189E+04 -5.98242E+03
 -8.24791E+03 -1.64014E+04  5.37367E+03 -2.00990E+04  1.36311E+04 -1.48102E+04  1.64249E+04 -1.13207E+03
  9.56558E+03  1.15816E+04 -4.77963E+02  1.67094E+04 -1.17486E+04  9.32756E+03 -1.63088E+04 -3.39354E+03
 -1.24106E+04 -1.53393E+04 -6.07489E+02 -2.05458E+04  9.27951E+03 -1.68048E+04  1.73194E+04 -8.38405E+03
  1.56573E+04  1.23635E+03  1.16782E+04  3.87438E+03  5.12000E+03  1.55090E+03  8.59133E+03 -2.00436E+03
  1.48681E+04  2.79417E+03  1.64583E+04  1.33254E+04  1.01873E+04  2.65650E+04 -2.49915E+03  2.87749E+04
 -1.69653E+04  2.25106E+04 -2.67733E+04  1.09560E+04 -2.76953E+04 -2.62740E+03 -2.31407E+04 -1.51033E+04
 -1.04565E+04 -2.16634E+04  7.63159E+03 -2.13951E+04  1.77126E+04 -1.10531E+04  1.67184E+04  3.97928E+03
  6.36226E+03  1.17801E+04 -7.62266E+03  1.11948E+04 -1.42684E+04  2.16502E+03 -1.06606E+04 -8.66808E+03
 -5.84040E+00 -1.29929E+04  6.62395E+03 -9.78494E+03  9.11610E+03 -1.27698E+03  1.58782E+03  4.65750E+03
 -5.98277E+03  1.44083E+03 -4.73049E+03 -4.89551E+03  4.53287E+02 -1.10965E+04  8.23651E+03 -1.14033E+04
  1.37965E+04 -5.25402E+03  1.37496E+04  2.97809E+03  1.21868E+04  1.06104E+04  6.03356E+03  1.60287E+04
 -1.74264E+03  1.79415E+04 -1.05953E+04  1.13317E+04 -1.27881E+04  3.01035E+03 -9.24912E+03 -2.39880E+03
 -4.10572E+03 -3.29653E+03 -3.41975E+02  1.84289E+03 -2.08632E+03  2.37892E+03 -4.08920E+03  3.40257E+03
 -8.65717E+03 -1.20051E+02 -9.48015E+03 -7.82958E+03 -3.53185E+03 -1.26608E+04  3.61053E+03 -9.29027E+03
  7.53231E+03 -3.90728E+03  5.02138E+03  1.98492E+03  1.76776E+02  3.06964E+03 -3.69407E+03 -2.01868E+02
 -3.97289E+03 -6.05928E+03 -7.65543E+02 -7.62246E+03  5.01251E+03 -9.00722E+03  1.03487E+04 -4.20135E+03
  1.28323E+04  9.69652E+02  9.65312E+03  7.13968E+03  9.30127E+02  9.75504E+03 -6.11863E+03  8.73704E+03
 -7.21644E+03  3.00095E+03 -3.05126E+03 -1.47401E+03  1.32731E+03 -2.11792E+03  4.45727E+03 -1.07610E+03
  4.58713E+03  3.31471E+03  1.31805E+03  6.56152E+03 -4.81406E+03  7.00049E+03 -8.70093E+03  2.15235E+03
 -5.07556E+03 -4.22841E+03  1.83693E+02 -7.91532E+03  3.79990E+03 -3.76357E+03  4.15199E+03  8.28736E+02
  7.04596E+02  3.71815E+03 -4.26629E+03  5.06676E+03 -4.86495E+03  2.62516E+03 -5.38679E+03 -1.50307E+03
 -3.69746E+03 -6.80884E+03  2.04219E+03 -7.68667E+03  5.94854E+03 -4.64277E+03  6.80354E+03  8.75570E+02
  4.69142E+03  6.03276E+03  2.66521E+02  7.82610E+03 -5.48772E+03  4.35883E+03 -5.66237E+03 -1.63224E+02
 -5.93593E+03 -5.24092E+03 -1.49178E+03 -6.01884E+03  2.67874E+03 -5.26633E+03  3.51138E+03 -2.65122E+03
  2.75560E+03  4.52773E+02 -3.29410E+02  1.26156E+03  8.07681E+02 -1.06551E+03 -7.25202E+01 -2.43836E+03
  4.58656E+03 -3.12825E+02  5.95270E+03  5.12606E+02  6.45035E+03  3.72209E+03  5.44092E+03  8.08170E+03
 -1.48696E+03  9.21569E+03 -8.51070E+03  7.26010E+03 -1.07850E+04  1.41809E+03 -8.48527E+03 -3.12960E+03
 -4.78336E+03 -6.61946E+03 -1.82440E+02 -5.64626E+03  2.71414E+03 -2.56719E+03  1.80804E+03 -2.43511E+03
  1.73591E+03 -1.67646E+03  2.56265E+03 -2.59485E+03  3.69605E+03 -1.44933E+03  3.78778E+03  7.94451E+02
  4.70179E+03  7.15183E+02  2.05904E+03  4.14249E+03 -1.34263E+03  2.97005E+03 -4.63143E+03  3.13966E+03
 -5.54034E+03 -1.03276E+03 -2.10246E+03 -3.46869E+03  9.71248E+02 -5.13660E+03  4.12132E+03 -6.11565E+03
  5.47120E+03 -3.95890E+03  7.33072E+03 -2.27695E+02  5.21904E+03  4.41548E+03  1.18486E+03  6.41351E+03
 -2.26868E+03  6.43639E+03 -3.55585E+03  1.86422E+03 -2.16405E+03 -1.53654E+03 -3.96926E+02 -7.65186E+02
 -6.33972E+02  6.01332E+02 -7.26475E+02  2.03290E+03 -2.13319E+03  1.24544E+03 -4.12912E+03 -2.28423E+02
 -1.53952E+03 -4.96972E+03  1.19583E+03 -5.30659E+03  2.78776E+03 -5.21077E+03  4.46323E+03 -1.34621E+03
  4.45954E+03  2.44621E+03  1.81612E+03  3.69233E+03 -1.16578E+03  4.80866E+03 -3.17618E+03  2.43005E+03
 -3.81400E+03  3.86606E+02 -3.64645E+03 -2.77535E+03 -4.04268E+02 -3.91391E+03  1.47492E+03 -3.08707E+03
  2.89438E+03 -1.30702E+03  1.94710E+03  1.20867E+03  8.97413E+02  1.58094E+03  6.25988E+02  6.11476E+02
  1.64132E+03  2.21574E+02  1.16115E+03  8.25139E+02  1.90337E+03  2.30607E+03  1.31341E+03  1.92037E+03
 -8.96320E+02  3.48050E+03 -2.63376E+03  4.64766E+03 -3.45097E+03  1.69331E+03 -4.72437E+03 -6.35575E+02
 -2.34880E+03 -4.39441E+03  9.17806E+02 -5.52705E+03  2.32106E+03 -3.08110E+03  3.05594E+03 -1.13311E+03
  2.61585E+03  1.69471E+03  5.44014E+02  2.83191E+03 -8.14944E+02  1.55099E+03 -1.42804E+03 -3.86541E+02
 -5.84959E+02 -1.42666E+03  8.65870E+02 -1.76963E+03  1.68772E+03 -6.80018E+02  1.60734E+03  5.76304E+02
  7.61175E+02  4.09591E+02  6.20365E+02 -1.18648E+02  5.34725E+01  6.65489E+02  1.00056E+03  4.92075E+01
 -2.02142E+02 -9.02132E+01  1.76893E+03  8.41813E+02  3.25456E+02  2.50401E+03 -5.55269E+01  3.02226E+03
 -7.10169E+02  1.43861E+03 -2.18475E+03 -1.12118E+02 -2.23796E+03 -6.35386E+02 -3.28006E+01 -8.05282E+02
  4.43710E+02 -1.48600E+03  1.10256E+03 -8.67125E+02  1.04678E+03  1.10739E+03 -1.11070E+03  1.22888E+03
 -9.16753E+02  7.91624E+02 -9.39073E+02 -1.31118E+03 -6.48576E+02 -2.23613E+03 -1.09663E+02 -1.91932E+03
  9.54973E+02 -6.85752E+02  8.95922E+02 -6.92590E+01  1.61171E+03 -1.67076E+02 -4.16249E+01  9.85847E+02
 -6.83385E+02 -3.76326E+02 -5.07190E+02  1.59544E+02  8.59654E+02 -1.02614E+03  2.00064E+03 -8.73801E+02
  1.08751E+03  3.67572E+02  3.05210E+03  5.79790E+02  7.74592E+02  1.69967E+03 -3.69104E+02  1.88526E+03
 -2.03942E+03  6.84684E+02 -1.57503E+03 -1.58579E+02 -9.30035E+02 -1.17281E+03  1.54637E+02 -8.59722E+02
  1.45166E+03 -8.67713E+02  1.14874E+03  3.37517E+02  1.54541E+01  1.71023E+03  4.14028E+02  1.33205E+03
 -9.69199E+02  1.24225E+03 -5.95086E+02  4.95040E+02  1.80734E+02  5.09049E+02 -7.42248E+02  7.43581E+02
 -9.12453E+02  1.07832E+03 -1.94624E+03  5.00885E+02 -1.47909E+03  1.26289E+02 -2.44525E+03 -1.16489E+03
 -1.03021E+03 -2.34053E+03  9.00620E+02 -2.96114E+03  1.30298E+03 -2.74097E+03  3.30816E+03 -7.55489E+02
  2.26887E+03 -4.99013E+01  1.53098E+03  1.74065E+03 -1.45667E+02  1.98977E+03  1.00510E+01  1.76113E+03
 -1.59577E+03  6.39251E+02 -7.66984E+02 -6.68934E+01 -1.74810E+02  4.31120E+02 -5.27896E+01 -2.47825E+02
 -1.18335E+03  1.26548E+02 -3.63951E+02  1.31065E+02  4.61499E+02 -5.20914E+02 -1.09569E+03 -9.50799E+02
  1.51633E+03 -8.53816E+02  5.03748E+02  4.65872E+01  1.27566E+03  8.87253E+02  1.22027E+02  1.26279E+03
 -6.10779E+02  2.12105E+03 -1.64910E+03  8.80776E+02 -2.23223E+03  4.89078E+02 -8.90328E+02 -8.68843E+02
 -9.22962E+02 -1.41530E+03  7.18992E+02 -1.86865E+03  1.04051E+02 -8.10070E+02  7.97973E+02  1.45619E+02
  9.07750E+02  6.70938E+02 -6.41322E+02  6.88657E+02 -7.63733E+02  5.62471E+01 -5.36479E+02 -6.22675E+02
  3.64631E+02 -5.33024E+02  5.32836E+01  5.56736E+02  3.44688E+02  3.61838E+02  8.02897E+02  4.43069E+02
 -1.92876E+01  9.59900E+02 -4.33898E+02 -2.45629E+02 -6.84949E+02 -2.73581E+02  1.58023E+02 -1.17284E+03
  6.33172E+02 -1.68024E+02  8.05205E+02 -7.10746E+02  7.82414E+02 -6.85144E+02  7.24222E+02  1.10724E+03
  4.97523E+02  2.65728E+02 -1.38775E+00  5.62512E+02 -5.87759E+02  9.26294E+02 -7.00597E+02  2.13865E+02
 -4.64122E+02  1.07910E+02 -7.09798E+02  5.01067E+02 -6.80356E+02  3.04230E+01 -1.02072E+03 -2.99029E+02
 -7.64248E+02 -9.40690E+00 -6.71688E+02 -1.55701E+03  8.91280E+02 -1.18491E+03  4.88287E+02 -4.58878E+02
  4.11622E+02  2.15612E+02 -1.52666E+02  8.85410E+02  3.53379E+02  8.86080E+01 -3.09299E+02  2.56851E+02
