 $NMID ID='MM_0lb_SNR400_9hz_g40_27.RAW', FMTDAT='(8E13.5)'
 TRAMP=1., VOLUME=1. $END
  3.10055E+05 -1.35162E+02  3.37464E+05  2.50820E+05  8.50592E+04  3.38313E+05 -1.33011E+05  2.51654E+05
 -1.90717E+05  8.35682E+04 -1.12741E+05 -3.20617E+04  6.35489E+01 -5.16433E+04  5.30794E+04 -7.28845E+02
  3.53813E+04  5.39703E+04 -1.69829E+04  7.63822E+04 -6.11914E+04  6.46595E+04 -8.47725E+04  3.14475E+04
 -8.16702E+04 -1.25926E+04 -5.78470E+04 -5.16795E+04 -1.59689E+04 -7.05408E+04  2.81599E+04 -4.64996E+04
  4.12786E+04  3.41253E+03  1.69538E+04  4.84842E+04 -3.44822E+04  4.82819E+04 -6.81248E+04 -3.10863E+02
 -5.42929E+04 -5.80252E+04 -7.01898E+03 -7.85161E+04  3.42716E+04 -5.59483E+04  4.91292E+04 -1.84989E+04
  4.51234E+04  1.20729E+04  3.24246E+04  2.64209E+04  1.65695E+04  3.01271E+04 -6.35581E+03  2.72459E+04
 -2.23076E+04  1.23374E+04 -1.82524E+04 -5.86003E+03  7.33311E+03 -7.35595E+03  2.27302E+04  1.37812E+04
  7.51580E+03  3.68940E+04 -3.24631E+04  3.74913E+04 -6.52656E+04  1.73582E+03 -5.85123E+04 -4.44184E+04
 -1.38005E+04 -6.51918E+04  4.17050E+04 -4.68245E+04  6.02282E+04 -2.92572E+03  3.64990E+04  3.48469E+04
 -4.97414E+03  3.91793E+04 -3.19250E+04  1.84791E+04 -3.26920E+04 -3.39541E+03 -1.88231E+04 -1.21229E+04
 -8.13750E+03 -1.43897E+04 -8.39882E+02 -1.94936E+04  8.57700E+03 -2.26006E+04  1.58551E+04 -1.27946E+04
  1.10229E+04  5.41896E+03 -9.62360E+03  1.27627E+04 -2.32829E+04 -6.48049E+03 -8.33494E+03 -3.67351E+04
  2.56461E+04 -4.62507E+04  5.18936E+04 -2.08070E+04  4.84233E+04  2.01058E+04  1.73253E+04  4.67060E+04
 -1.62974E+04  3.58271E+04 -2.88937E+04  2.86078E+03 -1.15567E+04 -2.93713E+04  2.15125E+04 -3.67108E+04
  4.36288E+04 -1.08526E+04  3.93810E+04  2.47344E+04  2.04820E+04  5.03789E+04 -7.82216E+03  5.49731E+04
 -3.45495E+04  3.70234E+04 -4.64170E+04  1.14123E+04 -4.64343E+04 -1.83771E+04 -2.58321E+04 -4.11440E+04
  7.62245E+03 -4.14424E+04  3.32733E+04 -1.63016E+04  3.16414E+04  1.18372E+04  4.11336E+03  2.06383E+04
 -1.35856E+04  9.09681E+03 -1.12247E+04 -7.02134E+03  6.31197E+03 -1.15703E+04  1.94024E+04  5.76625E+03
  1.46773E+04  2.31148E+04 -5.58598E+03  2.67467E+04 -2.34450E+04  1.32007E+04 -3.06228E+04 -3.14034E+03
 -2.47132E+04 -1.78829E+04 -1.01078E+04 -2.38210E+04  3.82147E+03 -2.48243E+04  1.94736E+04 -2.19832E+04
  3.11638E+04 -1.48142E+04  3.73190E+04  4.89561E+03  2.63959E+04  2.27667E+04  4.91660E+03  4.04380E+04
 -1.89018E+04  3.34456E+04 -3.04728E+04  1.17987E+04 -2.24611E+04 -1.01914E+04 -5.41443E+03 -1.39723E+04
  1.37986E+03 -1.27328E+03 -6.95146E+03  7.42473E+03 -1.96512E+04  4.81573E+03 -1.84659E+04 -9.02853E+03
 -1.09370E+04 -2.26245E+04  5.97122E+03 -2.72086E+04  1.74898E+04 -1.88582E+04  2.16847E+04 -1.58466E+03
  1.36795E+04  1.48742E+04 -1.24389E+03  2.26939E+04 -1.61412E+04  1.27766E+04 -2.28591E+04 -4.55482E+03
 -1.65478E+04 -2.05702E+04 -1.89837E+03 -2.64537E+04  1.22593E+04 -2.27195E+04  2.20758E+04 -1.06210E+04
  2.15159E+04 -9.40419E+02  1.54444E+04  5.01268E+03  7.88461E+03  1.24494E+03  1.18938E+04 -1.95771E+03
  2.06377E+04  2.91385E+03  2.48957E+04  1.85090E+04  1.69143E+04  3.66461E+04 -3.69315E+03  4.28145E+04
 -2.47845E+04  3.57464E+04 -3.99481E+04  1.86296E+04 -4.28744E+04 -3.86575E+03 -3.46176E+04 -2.50949E+04
 -1.34161E+04 -3.54897E+04  1.25787E+04 -3.15006E+04  2.66355E+04 -1.52477E+04  2.27864E+04  8.38076E+03
  8.47301E+03  1.84961E+04 -1.11752E+04  1.50353E+04 -1.88279E+04  3.08518E+03 -1.51334E+04 -1.19833E+04
 -4.55200E+02 -1.87537E+04  9.41880E+03 -1.35781E+04  1.27160E+04 -1.77953E+03  3.01811E+03  8.30555E+03
 -8.02498E+03  3.82110E+03 -8.59522E+03 -7.39821E+03 -1.45123E+03 -1.71254E+04  1.08218E+04 -1.87906E+04
  2.22477E+04 -1.07611E+04  2.55322E+04  3.50903E+03  2.06550E+04  1.75688E+04  9.98880E+03  2.77418E+04
 -5.01313E+03  2.90397E+04 -1.89337E+04  1.83463E+04 -2.12988E+04  4.14381E+03 -1.49147E+04 -6.06863E+03
 -5.91559E+03 -7.03636E+03 -3.61762E+02  8.91595E+02 -3.40034E+03  3.34897E+03 -6.65453E+03  5.21467E+03
 -1.37907E+04 -7.18196E+02 -1.39428E+04 -1.26489E+04 -4.90438E+03 -1.87240E+04  6.72081E+03 -1.46852E+04
  1.16971E+04 -6.52750E+03  9.18895E+03  4.41595E+03  2.97317E+02  6.04839E+03 -7.97685E+03 -5.55652E+02
 -6.74203E+03 -9.87524E+03 -1.14046E+03 -1.46562E+04  8.26536E+03 -1.59169E+04  1.92149E+04 -8.20769E+03
  2.22676E+04  2.53508E+03  1.58981E+04  1.35488E+04  3.53062E+03  1.85311E+04 -9.25619E+03  1.41611E+04
 -1.19368E+04  4.55972E+03 -6.50573E+03 -3.34382E+03  1.88182E+03 -3.77262E+03  8.12277E+03 -6.44003E+02
  7.83065E+03  7.06183E+03  9.76512E+02  1.19790E+04 -8.59096E+03  1.12333E+04 -1.48896E+04  2.54811E+03
 -1.13386E+04 -8.39986E+03  9.96519E+02 -1.25856E+04  8.40974E+03 -6.43008E+03  8.43540E+03  2.57367E+03
  2.07252E+03  8.81687E+03 -7.53076E+03  1.11357E+04 -1.27601E+04  4.95299E+03 -1.32286E+04 -3.71961E+03
 -7.19806E+03 -1.49373E+04  3.54106E+03 -1.64493E+04  1.54908E+04 -1.03813E+04  1.56913E+04  3.22604E+03
  8.98966E+03  1.28388E+04 -8.96739E+02  1.47274E+04 -1.07300E+04  8.39757E+03 -1.24917E+04 -6.52202E+02
 -1.11082E+04 -9.57078E+03 -1.40159E+03 -1.12748E+04  6.05508E+03 -8.95929E+03  8.11816E+03 -3.34955E+03
  4.62593E+03  1.99051E+03 -6.48161E+02  1.71746E+03 -6.14471E+02 -2.92439E+03  3.06901E+03 -6.53268E+03
  1.12465E+04 -4.51546E+03  1.52344E+04  1.25984E+03  1.44518E+04  1.03517E+04  9.71173E+03  1.93874E+04
 -4.52839E+03  2.21849E+04 -1.92853E+04  1.60883E+04 -2.37727E+04  3.89926E+03 -2.01607E+04 -8.54548E+03
 -9.04741E+03 -1.61991E+04 -7.34969E+02 -1.38615E+04  4.66856E+03 -8.05642E+03  5.20556E+03 -4.78148E+03
  3.61524E+03 -2.86112E+03  4.22956E+03 -3.72111E+03  5.25595E+03 -3.36892E+03  7.26856E+03 -9.79810E+02
  1.09331E+04  1.79783E+03  5.68181E+03  8.93234E+03 -1.74995E+03  1.03909E+04 -1.07274E+04  7.80370E+03
 -1.40443E+04 -1.35542E+03 -9.10679E+03 -1.01122E+04 -1.38779E+03 -1.53926E+04  8.48839E+03 -1.50541E+04
  1.55644E+04 -8.38746E+03  1.81145E+04  2.05938E+03  1.22798E+04  1.31110E+04  2.08027E+03  1.66659E+04
 -6.35094E+03  1.39221E+04 -1.01654E+04  4.44195E+03 -7.15027E+03 -2.15409E+03 -3.68272E+03 -2.05747E+03
 -1.74182E+03 -5.58071E+02 -2.40569E+03  2.98354E+03 -5.51429E+03  2.19021E+03 -9.29707E+03 -8.03450E+02
 -6.86065E+03 -9.09912E+03  2.63948E+02 -1.43115E+04  8.91404E+03 -1.37777E+04  1.39708E+04 -3.66229E+03
  1.39980E+04  7.11631E+03  6.75501E+03  1.25899E+04 -2.19412E+03  1.40068E+04 -1.07295E+04  8.89447E+03
 -1.29888E+04  9.89421E+02 -9.87689E+03 -7.48095E+03 -5.54320E+02 -1.12739E+04  6.53485E+03 -7.97266E+03
  8.75243E+03 -2.80717E+03  6.48756E+03  2.25220E+03  1.88346E+03  4.43992E+03  1.45961E+03  2.41345E+03
  3.19604E+03  1.26190E+03  3.53768E+03  2.05184E+03  4.48352E+03  4.68587E+03  3.61523E+03  7.28314E+03
 -2.36669E+03  1.12416E+04 -9.27746E+03  1.01428E+04 -1.48256E+04  2.76581E+03 -1.53456E+04 -6.47970E+03
 -7.17679E+03 -1.39799E+04  2.82029E+03 -1.54377E+04  8.46684E+03 -1.00500E+04  1.11589E+04 -2.64006E+03
  8.81324E+03  4.56374E+03  2.62032E+03  8.43100E+03 -4.90317E+03  5.57546E+03 -5.95515E+03 -7.23232E+02
 -2.31078E+03 -6.43683E+03  2.95366E+03 -6.44782E+03  6.21680E+03 -3.40001E+03  5.08436E+03  8.72394E+02
  2.77693E+03  3.98662E+03  1.80251E+03  2.16110E+03 -1.09723E+03  1.81066E+03  1.42421E+03 -5.52320E+02
  2.11955E+03 -3.23570E+02  6.08696E+03  2.31306E+03  2.72857E+03  8.24849E+03  1.20900E+01  9.68040E+03
 -7.51734E+03  6.71077E+03 -8.38814E+03  2.62098E+03 -8.67987E+03 -2.73729E+03 -3.11071E+03 -4.87077E+03
  1.34045E+02 -5.22305E+03  2.47592E+03 -2.89613E+03  2.50514E+03  2.88079E+03 -1.39299E+03  4.77189E+03
 -5.87560E+03  2.81416E+03 -7.24732E+03 -2.80527E+03 -4.77348E+03 -7.46974E+03  1.02275E+03 -7.80109E+03
  4.34473E+03 -4.34943E+03  5.78968E+03 -3.81795E+01  5.22767E+03  2.13226E+03  8.74488E+02  3.85557E+03
 -2.31667E+03  1.96287E+03 -2.96911E+03 -2.40629E+03  1.20464E+03 -6.52885E+03  7.39363E+03 -4.32379E+03
  8.81905E+03  9.53279E+02  8.47618E+03  6.38565E+03  2.71059E+03  9.80436E+03 -2.95243E+03  8.57022E+03
 -7.60120E+03  3.70542E+03 -8.65161E+03 -1.39027E+03 -4.32583E+03 -5.12904E+03  1.66623E+03 -6.30126E+03
  5.61767E+03 -3.73576E+03  5.42190E+03  1.98450E+03  2.04409E+03  5.50240E+03 -4.83417E+02  4.41641E+03
 -2.31374E+03  3.01038E+03 -1.63478E+03  1.14684E+03 -1.01900E+03  9.36883E+02 -8.30699E+02  2.40563E+03
 -2.27622E+03  3.88046E+03 -6.11519E+03  2.56552E+03 -1.02645E+04  7.55865E+00 -9.80262E+03 -6.30546E+03
 -5.18219E+03 -1.25952E+04  2.05569E+03 -1.47798E+04  9.53715E+03 -1.14744E+04  1.28807E+04 -4.69969E+03
  1.30071E+04  1.77388E+03  6.99062E+03  8.72056E+03  7.76793E+01  1.05417E+04 -3.94071E+03  7.37823E+03
 -4.97448E+03  3.18830E+03 -3.55842E+03 -1.57199E+03 -1.98343E+03 -7.35792E+02 -7.40811E+02 -1.39447E+03
 -2.42516E+03  5.90635E+01 -1.55139E+03 -2.48293E+02 -7.53674E+02 -2.16170E+03 -2.69322E+02 -4.07761E+03
  5.11385E+03 -2.84028E+03  5.66407E+03  2.19060E+02  7.17654E+03  5.44145E+03  1.11372E+03  9.21104E+03
 -4.74853E+03  1.20084E+04 -1.08982E+04  6.65943E+03 -1.15617E+04 -1.28739E+03 -8.75289E+03 -7.06263E+03
 -3.73364E+03 -9.94052E+03  1.98445E+03 -8.98780E+03  5.81131E+03 -5.61951E+03  5.85450E+03 -2.89320E+01
  2.79451E+03  3.82007E+03 -3.08094E+02  2.90463E+03 -2.89483E+03  2.52379E+02 -8.34173E+01 -2.47268E+03
  2.66701E+03 -2.05045E+03  4.32924E+03  1.00177E+03  2.60075E+03  4.04349E+03  6.14341E+02  5.20307E+03
 -3.87633E+03  4.96692E+03 -7.13052E+03  3.38715E+02 -5.25111E+03 -4.98302E+03 -6.33176E+02 -8.07432E+03
  3.98884E+03 -6.63449E+03  8.04471E+03 -2.05152E+03  7.31208E+03  2.38999E+03  4.42044E+03  5.50285E+03
  1.26817E+03  6.72825E+03 -2.03022E+03  4.83328E+03 -4.08756E+03  3.18221E+03 -3.21666E+03  9.16949E+01
 -2.30962E+03 -5.33167E+02 -1.69165E+03  1.58250E+03 -2.69682E+03  1.58201E+03 -5.13543E+03 -3.29096E+02
 -4.61589E+03 -3.43839E+03 -1.10149E+03 -6.84389E+03  3.55250E+03 -6.32941E+03  5.31510E+03 -3.48846E+03
  5.90161E+03  7.73982E+02  3.38429E+03  4.33369E+03  2.50884E+02  6.39663E+03 -4.98777E+03  4.32815E+03
