 $NMID ID='MM_0lb_SNR400_19hz_g40_32.RAW', FMTDAT='(8E13.5)'
 TRAMP=1., VOLUME=1. $END
  3.09995E+05  3.33417E+02  3.37424E+05  2.50820E+05  8.45683E+04  3.37301E+05 -1.32462E+05  2.50087E+05
 -1.89705E+05  8.24278E+04 -1.10796E+05 -3.33741E+04  1.54008E+03 -5.02398E+04  5.41465E+04  5.11819E+02
  3.52946E+04  5.24950E+04 -1.74112E+04  7.40615E+04 -5.97764E+04  6.28797E+04 -8.21865E+04  3.16564E+04
 -7.91704E+04 -1.09542E+04 -5.63037E+04 -4.98998E+04 -1.50083E+04 -6.75745E+04  2.67519E+04 -4.43775E+04
  3.87817E+04  4.22217E+03  1.52429E+04  4.67809E+04 -3.36331E+04  4.60195E+04 -6.49393E+04 -4.62269E+02
 -5.12183E+04 -5.58036E+04 -6.02563E+03 -7.41324E+04  3.29366E+04 -5.26459E+04  4.57350E+04 -1.63533E+04
  4.11111E+04  1.07512E+04  3.02307E+04  2.43556E+04  1.59362E+04  2.81490E+04 -4.52165E+03  2.71521E+04
 -2.16705E+04  1.24881E+04 -1.93305E+04 -4.03295E+03  3.41635E+03 -7.58835E+03  2.08272E+04  1.01920E+04
  6.87492E+03  3.24703E+04 -2.99220E+04  3.35422E+04 -6.00895E+04  1.93762E+03 -5.51818E+04 -4.02697E+04
 -1.22607E+04 -6.01227E+04  3.75845E+04 -4.27693E+04  5.45728E+04 -1.75360E+03  3.13750E+04  2.97591E+04
 -6.40110E+03  3.19040E+04 -2.73539E+04  1.23901E+04 -2.64240E+04 -5.86682E+03 -1.33823E+04 -9.67421E+03
 -6.74911E+03 -1.08601E+04 -6.03208E+02 -1.63992E+04  6.75110E+03 -2.25993E+04  1.53926E+04 -1.41101E+04
  1.22928E+04  4.42093E+03 -5.97714E+03  1.29274E+04 -1.89658E+04 -1.86168E+03 -7.63920E+03 -2.91710E+04
  1.98400E+04 -3.97753E+04  4.36795E+04 -1.90076E+04  4.11697E+04  1.81038E+04  1.40380E+04  4.07126E+04
 -1.51064E+04  3.05199E+04 -2.27606E+04  5.70285E+02 -7.90035E+03 -2.62358E+04  2.06205E+04 -2.94282E+04
  3.72755E+04 -6.49827E+03  2.98709E+04  2.18489E+04  1.48075E+04  4.11764E+04 -7.78884E+03  4.34993E+04
 -2.74481E+04  2.92898E+04 -3.54063E+04  7.75282E+03 -3.67234E+04 -1.45494E+04 -2.03483E+04 -3.34837E+04
  7.27356E+03 -3.32982E+04  2.86017E+04 -1.15887E+04  2.57721E+04  1.12116E+04  2.72449E+03  1.75887E+04
 -1.33090E+04  7.13897E+03 -9.43499E+03 -8.20016E+03  5.71670E+03 -1.02261E+04  1.74355E+04  6.91132E+03
  1.17898E+04  2.13940E+04 -6.34328E+03  2.25761E+04 -2.06754E+04  8.80648E+03 -2.43887E+04 -6.48780E+03
 -1.58735E+04 -1.55767E+04 -4.98333E+03 -1.58907E+04  3.74149E+03 -1.34353E+04  1.18400E+04 -1.37067E+04
  1.98790E+04 -1.15756E+04  2.70130E+04  1.14196E+03  2.06098E+04  1.55627E+04  4.13218E+03  3.16059E+04
 -1.53255E+04  2.71217E+04 -2.54986E+04  9.15011E+03 -1.97534E+04 -1.04614E+04 -3.49304E+03 -1.38965E+04
  2.98831E+03 -3.91477E+03 -1.73621E+03  5.28677E+03 -1.16205E+04  5.19198E+03 -1.31422E+04 -4.89923E+03
 -8.23573E+03 -1.45982E+04  3.80009E+03 -1.88491E+04  1.19727E+04 -1.39316E+04  1.36835E+04 -1.20756E+03
  8.46273E+03  1.02987E+04 -4.68534E+02  1.52789E+04 -9.90606E+03  8.49681E+03 -1.43230E+04 -3.11701E+03
 -1.10689E+04 -1.33969E+04 -1.42690E+03 -1.80667E+04  7.83431E+03 -1.41336E+04  1.50563E+04 -7.02975E+03
  1.42699E+04  3.67959E+02  1.01556E+04  3.61065E+03  5.19822E+03  4.57432E+02  7.30472E+03 -1.02014E+03
  1.30900E+04  2.65204E+03  1.29810E+04  1.23885E+04  8.13416E+03  2.39164E+04 -3.80695E+03  2.50600E+04
 -1.50696E+04  1.87266E+04 -2.30075E+04  8.70007E+03 -2.27686E+04 -1.75959E+03 -2.04563E+04 -1.33640E+04
 -9.62569E+03 -1.85831E+04  6.20248E+03 -1.79709E+04  1.59080E+04 -1.03961E+04  1.48879E+04  3.28012E+03
  6.14192E+03  1.10559E+04 -6.32684E+03  9.93256E+03 -1.30676E+04  2.87812E+03 -9.82949E+03 -7.54009E+03
 -1.98539E+02 -1.20668E+04  6.08635E+03 -9.32762E+03  7.24037E+03 -1.41554E+03  9.94539E+02  4.47542E+03
 -5.57397E+03  1.47816E+03 -3.24415E+03 -4.13839E+03  3.08473E+02 -9.51980E+03  7.92489E+03 -9.34373E+03
  1.13121E+04 -4.23159E+03  1.04655E+04  2.61710E+03  9.17173E+03  8.97441E+03  4.88181E+03  1.24271E+04
 -1.29053E+03  1.47912E+04 -8.91455E+03  1.00168E+04 -1.05133E+04  3.24210E+03 -7.84853E+03 -1.90558E+03
 -4.00901E+03 -3.13922E+03 -6.37175E+02  1.71229E+03 -2.04584E+03  1.68608E+03 -3.41062E+03  3.41012E+03
 -7.65876E+03 -4.45995E+01 -8.51752E+03 -6.68311E+03 -2.90741E+03 -1.09855E+04  3.20714E+03 -7.94462E+03
  6.94833E+03 -3.55021E+03  4.35867E+03  2.31512E+03  4.09567E+02  2.96884E+03 -3.24176E+03 -5.24670E+02
 -2.78663E+03 -4.95115E+03 -2.68194E+02 -6.54424E+03  3.49801E+03 -7.34229E+03  9.32867E+03 -3.68762E+03
  1.07463E+04 -1.62608E+02  7.78551E+03  5.91611E+03  1.43722E+03  8.20912E+03 -4.88019E+03  7.13999E+03
 -6.85849E+03  2.38997E+03 -3.38856E+03 -1.23343E+03  1.45055E+03 -1.19467E+03  4.05824E+03 -1.06013E+03
  3.88956E+03  3.10459E+03  3.74144E+02  6.35135E+03 -4.85874E+03  5.76719E+03 -7.10858E+03  2.04372E+03
 -4.54391E+03 -3.08306E+03  5.40210E+02 -5.74795E+03  3.14794E+03 -2.98555E+03  3.18004E+03  8.92507E+02
  8.79261E+01  2.79077E+03 -3.71270E+03  4.56986E+03 -4.15900E+03  2.23775E+03 -3.27322E+03 -1.20211E+03
 -2.22178E+03 -5.51645E+03  1.17588E+03 -6.86759E+03  5.21448E+03 -3.98851E+03  5.72316E+03  1.26610E+03
  4.57143E+03  4.68673E+03  2.30552E+02  6.54376E+03 -4.21380E+03  3.55669E+03 -4.79886E+03 -1.40159E+02
 -5.41697E+03 -4.82228E+03 -1.64943E+03 -4.79922E+03  2.76070E+03 -4.15137E+03  2.38993E+03 -2.85151E+03
  3.05533E+03  9.45279E+01 -2.41559E+02  1.41893E+03  1.04610E+03 -7.76571E+02  5.79391E+01 -1.49783E+03
  3.43442E+03 -1.15983E+03  4.66585E+03  6.19333E+02  5.63851E+03  2.34040E+03  4.81026E+03  6.26414E+03
 -6.26024E+02  7.34327E+03 -7.05813E+03  5.40061E+03 -8.91922E+03  1.16789E+03 -7.13076E+03 -2.02858E+03
 -3.39798E+03 -6.32823E+03 -4.79391E+02 -4.89810E+03  1.85768E+03 -1.98678E+03  1.10812E+03 -1.90910E+03
  1.34979E+03 -1.49529E+03  2.69707E+03 -1.85256E+03  3.66158E+03 -1.33812E+03  3.52445E+03  2.15046E+02
  4.13135E+03  1.04654E+03  5.66239E+02  2.90011E+03 -1.16855E+03  2.64308E+03 -4.52450E+03  2.63356E+03
 -4.17520E+03 -1.24510E+03 -1.30878E+03 -2.83278E+03  8.18232E+02 -4.07650E+03  3.11828E+03 -4.89259E+03
  4.30430E+03 -2.64012E+03  5.81468E+03 -1.74896E+02  4.67256E+03  4.04997E+03  5.25986E+02  5.88848E+03
 -2.13960E+03  5.67338E+03 -2.33668E+03  1.52711E+03 -1.63431E+03 -1.22701E+03 -4.65737E+02 -2.59028E+02
 -7.48817E+01 -1.13882E+02 -1.22969E+03  1.95857E+03 -1.91660E+03  1.57419E+03 -3.76956E+03 -2.42684E+02
 -1.10302E+03 -3.56505E+03  5.13903E+02 -4.16235E+03  2.07539E+03 -3.68074E+03  2.85992E+03 -1.19131E+03
  3.98127E+03  1.46486E+03  1.32403E+03  2.98768E+03 -5.90175E+02  3.87561E+03 -1.78503E+03  2.67021E+03
 -3.50631E+03  5.37902E+02 -3.06756E+03 -1.75308E+03 -1.83717E+02 -2.30488E+03  1.47596E+03 -2.60778E+03
  2.04445E+03 -1.49332E+03  1.67751E+03  2.11235E+02  5.21662E+02  1.25561E+03  7.12081E+02  5.11783E+02
  1.71932E+03  8.10698E+02  1.39066E+03  1.31798E+03  1.03129E+03  1.87420E+03  1.19573E+03  1.46527E+03
 -1.30310E+03  2.48548E+03 -2.25175E+03  3.79521E+03 -2.54777E+03  1.12442E+03 -3.88980E+03  6.16284E+01
 -1.32071E+03 -3.29189E+03  1.04608E+03 -4.44738E+03  1.73027E+03 -2.07478E+03  2.77955E+03 -7.02886E+02
  2.57787E+03  2.17723E+03 -7.73330E+01  1.78031E+03 -1.13702E+03  1.33204E+03 -1.06049E+03  2.98087E+02
 -8.30785E+02 -1.35988E+03  8.77882E+02 -1.59796E+03  1.40326E+03 -6.93852E+02  1.06254E+03  2.48096E+02
  6.38862E+02  5.82487E+02  2.97358E+02  4.26170E+02  1.43215E+02  5.25218E+02  1.75822E+03 -7.45328E+02
 -3.70240E+02 -5.07313E+02  1.29115E+03  4.92256E+02  7.45899E+02  2.51155E+03 -2.38211E+02  2.53669E+03
 -2.12816E+03  1.04165E+03 -1.50486E+03  9.97899E+01 -1.82440E+03 -5.89380E+02  3.35579E+02 -1.09043E+03
  5.30806E+02 -1.38501E+03  8.02033E+02 -6.80729E+02  6.46302E+02  8.59374E+02 -6.80918E+02  1.51204E+03
 -1.40075E+03  8.79671E+02 -1.34404E+03 -1.21696E+03 -6.61676E+02 -1.67963E+03  3.73263E+02 -1.50864E+03
  5.92856E+02 -5.57110E+02  1.77822E+02 -3.52340E+02  1.55620E+03 -1.80819E+00 -1.21344E+02  1.30675E+03
 -9.04141E+01 -6.39385E+02 -6.18393E+02 -1.56462E+02  5.36040E+02 -6.35616E+02  1.79599E+03 -6.87420E+02
  1.15020E+03  1.18495E+02  2.66840E+03  1.05909E+03  1.22603E+03  1.62730E+03 -4.22252E+01  1.65832E+03
 -1.38114E+03  4.01412E+02 -1.22486E+03  2.81674E+02 -1.19957E+02 -1.03091E+03  8.20025E+01 -1.13727E+01
  1.61999E+03 -1.05607E+03  4.85635E+02  6.44730E+02  4.60920E+02  1.77806E+03  4.56274E+02  1.06784E+03
 -3.54645E+02  9.26242E+02 -2.88438E+02 -1.42063E+02  2.00780E+02  8.85219E+02 -7.01664E+02  3.19684E+02
 -7.66635E+02  5.42462E+02 -1.68126E+03  2.96272E+02 -7.82064E+02 -1.24101E+02 -2.41668E+03 -8.79857E+02
 -1.08685E+03 -2.03348E+03  2.42146E+02 -2.67915E+03  6.24483E+02 -2.31271E+03  2.02903E+03 -6.32106E+02
  1.70745E+03 -2.02646E+02  1.20742E+03  1.61445E+03 -7.12307E+02  1.55310E+03 -1.02038E+03  1.54162E+03
 -1.09835E+03  7.92675E+02 -4.15743E+02 -2.65048E+02 -6.06116E+02  5.74320E+02 -6.37323E+02  2.55616E+02
 -1.40188E+03 -3.11382E+02 -3.50416E+02 -2.22600E+02 -1.00859E+02 -5.28842E+02 -2.01755E+02 -6.31496E+02
  1.34813E+03 -9.41377E+02  1.42621E-01  5.98217E+01  5.84497E+02  1.01350E+03 -5.28803E+02  1.21654E+03
 -8.20673E+02  1.77066E+03 -1.31894E+03  9.74845E+02 -1.97844E+03  1.95531E+02 -9.05095E+02 -1.78286E+03
 -1.05386E+03 -6.24188E+02  2.19510E+02 -9.72052E+02  8.25675E+02 -5.68900E+02  5.36571E+02  2.07133E+02
  9.83875E+02  7.21134E+02  2.95970E+02 -1.88268E+02 -7.64560E+02  5.91449E+01  2.75710E+02 -4.63695E+02
  7.30821E+02  3.45321E+02  1.71002E+02  4.21089E+02  1.29263E+02  1.04299E+02  5.20772E+02  1.66201E+02
 -2.38198E+02  5.71088E+02 -6.71616E+02  2.33697E+02 -1.14887E+03 -4.06024E+02  8.68089E+01 -1.21806E+03
  4.22510E+02 -2.07987E+02  9.05950E+02  3.84646E+02  8.61615E+02 -5.91841E+02  8.79906E+02  6.78039E+02
  5.23263E+02  3.99083E+02  2.57213E+02  1.89102E+02 -4.00824E+02  3.07933E+02 -5.73954E+02  5.07483E+01
  9.88647E+01  1.36744E+02 -6.78393E+02  1.10827E+01 -5.48967E+02  3.55895E+02 -6.04043E+02 -3.70068E+02
 -1.08428E+03  5.13549E+02 -1.70733E+02 -1.00916E+03  5.56948E+02 -1.10807E+03  1.10269E+03 -4.88621E+02
  6.17287E+02  2.87125E+02  1.01852E+02  1.93281E+02  1.06301E+02  3.62841E+02 -5.30260E+02  6.05542E+02
