 $NMID ID='MM_0lb_SNR400_8hz_g40_4.RAW', FMTDAT='(8E13.5)'
 TRAMP=1., VOLUME=1. $END
  3.09649E+05  1.03847E+03  3.37556E+05  2.50546E+05  8.46618E+04  3.38734E+05 -1.33334E+05  2.50991E+05
 -1.91292E+05  8.39871E+04 -1.12597E+05 -3.20461E+04  8.67402E+00 -5.14659E+04  5.35083E+04 -2.65366E+02
  3.58290E+04  5.32447E+04 -1.65228E+04  7.59282E+04 -6.11597E+04  6.40866E+04 -8.45034E+04  3.17595E+04
 -8.21763E+04 -1.18608E+04 -5.72979E+04 -5.29954E+04 -1.47845E+04 -7.07063E+04  2.76931E+04 -4.72892E+04
  4.06607E+04  3.67159E+03  1.71771E+04  4.86507E+04 -3.48146E+04  4.71746E+04 -6.77147E+04 -1.44518E+01
 -5.49667E+04 -5.78530E+04 -6.74333E+03 -7.88135E+04  3.49899E+04 -5.66982E+04  4.93754E+04 -1.79782E+04
  4.51839E+04  1.18167E+04  3.26966E+04  2.68295E+04  1.64055E+04  2.96121E+04 -6.64894E+03  2.79887E+04
 -2.34415E+04  1.10039E+04 -1.78112E+04 -5.66107E+03  6.77296E+03 -6.78591E+03  2.43992E+04  1.38994E+04
  6.88546E+03  3.72317E+04 -3.39074E+04  3.72964E+04 -6.55578E+04  1.45152E+03 -5.88325E+04 -4.41244E+04
 -1.26056E+04 -6.62169E+04  4.09751E+04 -4.73384E+04  6.00157E+04 -2.81918E+03  3.72142E+04  3.40858E+04
 -5.09840E+03  3.95603E+04 -3.12005E+04  1.88868E+04 -3.40188E+04 -3.33659E+03 -1.90008E+04 -1.25821E+04
 -9.67611E+03 -1.55757E+04  2.51621E+02 -2.00725E+04  8.80787E+03 -2.28114E+04  1.59804E+04 -1.27993E+04
  1.05471E+04  6.41621E+03 -1.03976E+04  1.28100E+04 -2.29877E+04 -6.43703E+03 -8.66405E+03 -3.81338E+04
  2.46957E+04 -4.72121E+04  5.20761E+04 -2.01940E+04  4.87118E+04  2.12789E+04  1.76257E+04  4.76880E+04
 -1.68771E+04  3.72020E+04 -2.75238E+04  2.56990E+03 -1.21761E+04 -3.00224E+04  2.07799E+04 -3.68440E+04
  4.52302E+04 -1.13155E+04  3.99945E+04  2.45610E+04  2.19152E+04  5.11840E+04 -8.02105E+03  5.63535E+04
 -3.63017E+04  3.87533E+04 -4.74543E+04  1.05051E+04 -4.82504E+04 -1.86148E+04 -2.67862E+04 -4.21141E+04
  7.28175E+03 -4.21280E+04  3.46838E+04 -1.71547E+04  3.15105E+04  1.05155E+04  4.89598E+03  2.12503E+04
 -1.38288E+04  9.40346E+03 -1.16911E+04 -7.78047E+03  4.93597E+03 -1.13549E+04  1.89993E+04  5.48244E+03
  1.48740E+04  2.30212E+04 -6.26176E+03  2.65490E+04 -2.42367E+04  1.49762E+04 -3.11989E+04 -2.81609E+03
 -2.61691E+04 -1.80810E+04 -1.04882E+04 -2.46178E+04  4.56283E+03 -2.57719E+04  1.96320E+04 -2.25022E+04
  3.25564E+04 -1.39342E+04  3.89414E+04  4.70644E+03  2.67117E+04  2.44275E+04  4.40834E+03  4.17986E+04
 -1.92111E+04  3.38932E+04 -3.08284E+04  1.19875E+04 -2.21379E+04 -1.09540E+04 -5.10780E+03 -1.29355E+04
  1.12369E+03 -2.44036E+03 -7.21808E+03  8.55779E+03 -2.13172E+04  5.66137E+03 -2.01724E+04 -9.31834E+03
 -1.28040E+04 -2.36258E+04  6.04884E+03 -2.81383E+04  1.85374E+04 -2.06229E+04  2.29971E+04 -2.02957E+03
  1.47994E+04  1.58031E+04 -1.34851E+03  2.36547E+04 -1.64408E+04  1.37858E+04 -2.39096E+04 -4.24202E+03
 -1.76630E+04 -2.17798E+04 -2.03131E+03 -2.82274E+04  1.23477E+04 -2.32395E+04  2.30123E+04 -1.26711E+04
  2.26612E+04 -1.33708E+03  1.58616E+04  5.39965E+03  9.08787E+03  1.48613E+03  1.21813E+04 -2.03616E+03
  2.22178E+04  3.62674E+03  2.51035E+04  1.87172E+04  1.73981E+04  3.73236E+04 -2.97972E+03  4.50287E+04
 -2.60479E+04  3.69906E+04 -4.21616E+04  1.95962E+04 -4.54087E+04 -2.63856E+03 -3.63308E+04 -2.60011E+04
 -1.43334E+04 -3.69976E+04  1.38347E+04 -3.31301E+04  2.74444E+04 -1.49158E+04  2.47044E+04  8.00226E+03
  8.95849E+03  1.91247E+04 -1.18242E+04  1.64881E+04 -1.96650E+04  2.47068E+03 -1.59719E+04 -1.33976E+04
  1.40499E+02 -1.90730E+04  1.04443E+04 -1.44296E+04  1.35021E+04 -1.57833E+03  3.36294E+03  9.03107E+03
 -9.53465E+03  4.20110E+03 -9.48774E+03 -7.07040E+03 -2.71979E+03 -1.81930E+04  1.15210E+04 -2.04995E+04
  2.33372E+04 -1.16338E+04  2.74659E+04  3.16476E+03  2.27824E+04  1.91468E+04  9.93122E+03  3.01365E+04
 -5.07037E+03  3.15898E+04 -1.98599E+04  1.91244E+04 -2.26399E+04  3.82755E+03 -1.47234E+04 -6.07244E+03
 -5.54361E+03 -7.53701E+03 -8.52452E+02  2.43628E+02 -4.02246E+03  3.72499E+03 -7.89858E+03  5.66490E+03
 -1.47588E+04 -2.31847E+02 -1.51627E+04 -1.27761E+04 -6.66186E+03 -2.04763E+04  6.85896E+03 -1.56952E+04
  1.38156E+04 -6.88159E+03  9.44938E+03  4.95750E+03 -1.29444E+03  6.47911E+03 -8.44098E+03  6.59473E+02
 -8.03126E+03 -1.00405E+04 -1.34385E+03 -1.57556E+04  9.67403E+03 -1.74295E+04  1.99215E+04 -9.04695E+03
  2.41618E+04  2.49417E+03  1.71192E+04  1.47059E+04  3.52465E+03  1.92638E+04 -9.65389E+03  1.51998E+04
 -1.22303E+04  4.97279E+03 -6.55970E+03 -2.61705E+03  2.41865E+03 -5.44096E+03  8.99714E+03 -6.74680E+02
  7.21258E+03  7.68479E+03  5.48034E+02  1.25482E+04 -1.01253E+04  1.30213E+04 -1.63281E+04  2.83214E+03
 -1.13264E+04 -8.08290E+03  2.83873E+02 -1.38567E+04  9.25774E+03 -6.68522E+03  8.88563E+03  3.73579E+03
  3.37514E+03  1.08747E+04 -9.22734E+03  1.15584E+04 -1.40155E+04  5.65358E+03 -1.47539E+04 -4.94686E+03
 -7.53453E+03 -1.59250E+04  3.85650E+03 -1.84712E+04  1.61940E+04 -1.11390E+04  1.71400E+04  3.05011E+03
  1.03240E+04  1.42113E+04 -9.56521E+02  1.61227E+04 -1.24665E+04  8.94239E+03 -1.35277E+04 -1.11086E+03
 -1.24114E+04 -1.07926E+04 -2.49149E+03 -1.30272E+04  5.99436E+03 -9.71663E+03  7.15956E+03 -3.60846E+03
  5.75378E+03  2.12938E+03 -1.74669E+03  2.06700E+03 -1.28614E+03 -3.55837E+03  3.28066E+03 -8.20919E+03
  1.20030E+04 -5.52673E+03  1.69246E+04  2.13313E+03  1.72136E+04  1.17409E+04  1.03386E+04  2.23073E+04
 -5.00486E+03  2.55442E+04 -2.03270E+04  1.86112E+04 -2.73016E+04  4.30284E+03 -2.22962E+04 -9.08922E+03
 -1.04125E+04 -1.75637E+04 -5.48165E+02 -1.58155E+04  5.67356E+03 -8.11407E+03  5.15715E+03 -4.69157E+03
  4.51403E+03 -3.35077E+03  4.23698E+03 -3.77142E+03  6.67885E+03 -3.69768E+03  7.87190E+03 -1.78373E+03
  1.09647E+04  3.06395E+03  6.24486E+03  9.76845E+03 -2.68280E+03  1.17557E+04 -1.16748E+04  9.06889E+03
 -1.52376E+04 -1.29434E+03 -9.59908E+03 -1.10972E+04 -1.98345E+03 -1.59685E+04  8.90734E+03 -1.64475E+04
  1.68903E+04 -8.94309E+03  2.09285E+04  2.32497E+03  1.47406E+04  1.46602E+04  2.56450E+03  1.90865E+04
 -8.09379E+03  1.46612E+04 -1.12566E+04  4.91697E+03 -8.55910E+03 -1.52842E+03 -3.44354E+03 -2.37468E+03
 -1.42468E+03  5.41168E+02 -2.56086E+03  4.04021E+03 -6.59599E+03  2.40916E+03 -1.07578E+04 -2.06532E+03
 -7.60544E+03 -1.11103E+04  8.40946E+01 -1.51684E+04  1.00261E+04 -1.38243E+04  1.54024E+04 -4.66567E+03
  1.52707E+04  7.64310E+03  6.84203E+03  1.48751E+04 -2.88245E+03  1.53960E+04 -1.15629E+04  9.92632E+03
 -1.52488E+04  7.28226E+02 -1.14687E+04 -1.02227E+04 -1.91357E+03 -1.36927E+04  6.56017E+03 -9.51865E+03
  1.06554E+04 -3.09882E+03  7.20122E+03  3.24514E+03  1.79984E+03  3.68073E+03  1.47298E+03  1.69444E+03
  3.07678E+03  1.14824E+03  3.33070E+03  1.83052E+03  4.52218E+03  5.54863E+03  3.95108E+03  8.02870E+03
 -3.00247E+03  1.29589E+04 -1.07497E+04  1.21188E+04 -1.66158E+04  3.32713E+03 -1.76703E+04 -6.74556E+03
 -8.59781E+03 -1.62134E+04  2.69741E+03 -1.74488E+04  9.93157E+03 -1.06971E+04  1.32731E+04 -3.37603E+03
  1.00789E+04  5.69714E+03  2.11852E+03  8.41313E+03 -6.00096E+03  5.53129E+03 -6.70643E+03 -5.63582E+02
 -3.45382E+03 -5.85645E+03  3.91319E+03 -6.96957E+03  6.75491E+03 -2.99185E+03  6.46437E+03  1.37480E+03
  4.26254E+03  4.31174E+03 -1.22358E+02  2.42217E+03 -5.21125E+02  2.60298E+03  2.08126E+03 -4.32391E+01
  3.72498E+03 -5.14292E+02  6.58057E+03  2.06695E+03  3.83195E+03  8.28287E+03 -2.09182E+03  1.09465E+04
 -7.46150E+03  7.17995E+03 -1.08549E+04  1.52272E+03 -9.37085E+03 -3.41798E+03 -2.69156E+03 -6.97205E+03
  1.43942E+03 -6.06139E+03  4.59240E+03 -3.10913E+03  2.96013E+03  3.15206E+03 -1.48182E+03  5.37530E+03
 -6.24354E+03  3.12534E+03 -8.63807E+03 -3.78470E+03 -4.68966E+03 -9.21522E+03  1.39441E+03 -9.48473E+03
  5.99441E+03 -6.07210E+03  6.95312E+03  3.47633E+01  5.25080E+03  2.14395E+03  7.75728E+02  5.30405E+03
 -4.00888E+03  8.15413E+02 -3.71831E+03 -3.46634E+03  3.53510E+02 -6.95132E+03  7.34819E+03 -5.74023E+03
  1.03338E+04  1.89357E+02  9.58056E+03  6.71600E+03  3.55583E+03  1.02802E+04 -4.19438E+03  1.02698E+04
 -8.73450E+03  5.20019E+03 -8.75647E+03 -1.38164E+03 -4.70949E+03 -8.54949E+03  1.15327E+03 -6.34002E+03
  7.03052E+03 -3.27180E+03  5.78340E+03  3.16288E+03  2.47601E+03  5.71222E+03 -3.07738E+02  5.04419E+03
 -2.86299E+03  3.52648E+03 -3.34858E+03  5.47079E+02 -1.49350E+03  1.68316E+03 -5.75717E+02  2.69097E+03
 -4.06781E+03  4.35691E+03 -7.03522E+03  3.58335E+03 -1.15213E+04  3.04806E+02 -1.32146E+04 -7.49230E+03
 -6.36286E+03 -1.46543E+04  2.53930E+03 -1.74310E+04  1.11381E+04 -1.28784E+04  1.59067E+04 -4.78592E+03
  1.49825E+04  2.47928E+03  9.29741E+03  1.07259E+04  7.32280E+02  1.09678E+04 -4.31674E+03  8.51760E+03
 -6.53406E+03  3.22762E+03 -3.36655E+03 -1.75470E+03 -2.22096E+03 -1.64721E+03 -5.63680E+02 -3.19637E+02
 -2.79391E+03  1.28168E+02 -2.67160E+03 -4.13351E+02 -8.22689E+02 -3.44685E+03  6.41506E+02 -4.13901E+03
  4.38510E+03 -4.22764E+03  7.06057E+03 -4.99193E+02  8.21725E+03  6.59599E+03  3.57031E+03  1.14397E+04
 -5.31251E+03  1.35186E+04 -1.23253E+04  7.95670E+03 -1.34772E+04 -5.57183E+02 -1.03962E+04 -8.81654E+03
 -4.88755E+03 -1.26982E+04  2.39322E+03 -1.12909E+04  6.91859E+03 -5.68433E+03  7.82989E+03  2.87737E+02
  3.47659E+03  4.23725E+03 -9.68636E+02  3.31247E+03 -2.17949E+03 -1.61302E+02 -4.91544E+02 -3.39520E+03
  4.08762E+03 -1.00227E+03  5.10104E+03  1.54141E+03  3.77708E+03  4.66718E+03  2.64206E+02  6.30883E+03
 -5.13492E+03  4.52692E+03 -8.20273E+03  2.96378E+02 -6.65456E+03 -5.28748E+03 -9.35610E+02 -1.07511E+04
  6.68114E+03 -7.95508E+03  9.84739E+03 -3.23901E+03  9.57291E+03  1.15544E+03  5.06612E+03  6.85239E+03
  8.59668E+02  7.67476E+03 -2.15358E+03  6.41822E+03 -5.06997E+03  3.58043E+03 -4.57363E+03  2.04838E+02
 -3.06938E+03 -9.90066E+02 -2.41720E+03  9.56246E+02 -4.09848E+03  9.01643E+02 -5.91151E+03 -1.22477E+03
 -6.54159E+03 -4.72211E+03 -1.32275E+03 -7.32895E+03  3.70643E+03 -8.51269E+03  7.79380E+03 -5.24254E+03
  8.15445E+03  1.57027E+03  5.18247E+03  5.31056E+03 -5.94593E+02  8.60248E+03 -5.92564E+03  5.58071E+03
