 $NMID ID='MM_0lb_SNR400_12hz_g40_6.RAW', FMTDAT='(8E13.5)'
 TRAMP=1., VOLUME=1. $END
  3.09659E+05  5.43765E+02  3.37197E+05  2.50499E+05  8.47585E+04  3.37907E+05 -1.33014E+05  2.51751E+05
 -1.90614E+05  8.34581E+04 -1.12319E+05 -3.20007E+04  7.24857E+02 -5.00866E+04  5.38099E+04  3.67055E+02
  3.58488E+04  5.33694E+04 -1.71016E+04  7.55697E+04 -6.09120E+04  6.41253E+04 -8.38204E+04  3.25778E+04
 -8.13206E+04 -1.13666E+04 -5.69325E+04 -5.10317E+04 -1.45926E+04 -6.98887E+04  2.74424E+04 -4.61085E+04
  4.03419E+04  3.64974E+03  1.66756E+04  4.75383E+04 -3.39403E+04  4.74564E+04 -6.72162E+04 -3.63910E+02
 -5.39264E+04 -5.65664E+04 -7.50964E+03 -7.69978E+04  3.42584E+04 -5.55371E+04  4.79154E+04 -1.70801E+04
  4.33189E+04  1.09635E+04  3.23382E+04  2.53026E+04  1.64743E+04  2.93826E+04 -5.37220E+03  2.73149E+04
 -2.24723E+04  1.22979E+04 -1.82077E+04 -5.11210E+03  5.59348E+03 -7.55742E+03  2.24137E+04  1.24310E+04
  7.24215E+03  3.57235E+04 -3.23620E+04  3.50123E+04 -6.37423E+04  2.05600E+03 -5.79477E+04 -4.25724E+04
 -1.29439E+04 -6.39521E+04  3.95486E+04 -4.57645E+04  5.90813E+04 -1.75031E+03  3.49178E+04  3.25457E+04
 -6.78479E+03  3.66802E+04 -3.03619E+04  1.62114E+04 -3.06328E+04 -4.91052E+03 -1.73987E+04 -1.10011E+04
 -8.85210E+03 -1.32833E+04 -4.56746E+02 -1.79055E+04  6.88120E+03 -2.36296E+04  1.54956E+04 -1.33573E+04
  1.13224E+04  5.29702E+03 -8.61590E+03  1.29512E+04 -2.16560E+04 -4.81130E+03 -8.34466E+03 -3.42175E+04
  2.33779E+04 -4.39824E+04  4.85247E+04 -1.95859E+04  4.52826E+04  1.93138E+04  1.61267E+04  4.47745E+04
 -1.57159E+04  3.43167E+04 -2.63480E+04  2.59173E+03 -1.00203E+04 -2.81260E+04  2.11167E+04 -3.41207E+04
  4.13641E+04 -9.23201E+03  3.63136E+04  2.38727E+04  1.83384E+04  4.74507E+04 -7.92664E+03  5.11718E+04
 -3.22035E+04  3.41440E+04 -4.17763E+04  9.83547E+03 -4.36663E+04 -1.68107E+04 -2.40428E+04 -3.82702E+04
  7.68001E+03 -3.83215E+04  3.19518E+04 -1.52088E+04  2.98670E+04  1.06295E+04  3.72453E+03  1.96821E+04
 -1.37784E+04  8.85500E+03 -1.07176E+04 -7.75021E+03  5.75921E+03 -1.08127E+04  1.82202E+04  5.77710E+03
  1.36900E+04  2.22622E+04 -5.92379E+03  2.50218E+04 -2.28950E+04  1.16538E+04 -2.91443E+04 -4.64003E+03
 -2.14098E+04 -1.74523E+04 -9.14992E+03 -2.17621E+04  4.72379E+03 -2.03743E+04  1.61969E+04 -1.87773E+04
  2.68400E+04 -1.30610E+04  3.36862E+04  3.97176E+03  2.44888E+04  2.00266E+04  3.99649E+03  3.71341E+04
 -1.82344E+04  3.05392E+04 -2.90033E+04  1.02364E+04 -2.10440E+04 -1.00970E+04 -4.37642E+03 -1.30993E+04
  1.71080E+03 -2.24248E+03 -5.53425E+03  7.09052E+03 -1.71323E+04  5.49762E+03 -1.66483E+04 -7.93784E+03
 -1.02661E+04 -1.94443E+04  5.38588E+03 -2.39422E+04  1.53217E+04 -1.68524E+04  1.86618E+04 -1.66904E+03
  1.13145E+04  1.34169E+04 -1.11952E+03  2.01206E+04 -1.37992E+04  1.11027E+04 -1.94880E+04 -4.42624E+03
 -1.48680E+04 -1.81679E+04 -2.19208E+03 -2.39858E+04  1.03972E+04 -1.98486E+04  1.99563E+04 -9.76781E+03
  1.89624E+04  4.21857E+02  1.25730E+04  4.73766E+03  7.99260E+03  1.57213E+03  9.80038E+03 -1.89800E+03
  1.87945E+04  3.42789E+03  2.11983E+04  1.57384E+04  1.26534E+04  3.15038E+04 -2.66492E+03  3.61170E+04
 -2.12885E+04  2.91725E+04 -3.33057E+04  1.44851E+04 -3.56369E+04 -2.33776E+03 -2.95582E+04 -2.08367E+04
 -1.20301E+04 -2.97406E+04  1.04854E+04 -2.63397E+04  2.27610E+04 -1.37305E+04  2.02860E+04  5.88884E+03
  7.34400E+03  1.50496E+04 -9.52520E+03  1.29883E+04 -1.73722E+04  2.45949E+03 -1.30214E+04 -1.03789E+04
  1.11161E+02 -1.62187E+04  8.46180E+03 -1.25817E+04  1.09811E+04 -1.36296E+03  3.06857E+03  7.34881E+03
 -6.78310E+03  2.93084E+03 -6.42353E+03 -6.01593E+03 -8.28433E+02 -1.50685E+04  1.02935E+04 -1.57139E+04
  1.81420E+04 -8.60438E+03  1.96700E+04  3.24769E+03  1.67855E+04  1.43801E+04  9.05380E+03  2.19497E+04
 -3.39081E+03  2.40920E+04 -1.53420E+04  1.57361E+04 -1.67290E+04  3.71515E+03 -1.28626E+04 -4.36724E+03
 -5.81951E+03 -5.20386E+03  1.34587E+02  7.88140E+02 -2.26923E+03  2.87426E+03 -5.27443E+03  4.11661E+03
 -1.11467E+04 -1.10701E+02 -1.22470E+04 -9.32690E+03 -4.48780E+03 -1.61560E+04  5.44569E+03 -1.23000E+04
  1.07179E+04 -5.25787E+03  7.45864E+03  3.71004E+03  2.69132E+02  4.69201E+03 -5.83860E+03 -3.89757E+02
 -5.96154E+03 -7.30066E+03 -1.06423E+03 -1.14176E+04  6.71966E+03 -1.26192E+04  1.54355E+04 -6.62607E+03
  1.76581E+04  2.32231E+03  1.37474E+04  1.11661E+04  2.76334E+03  1.43804E+04 -7.68077E+03  1.20845E+04
 -9.81433E+03  3.72377E+03 -5.07816E+03 -2.50670E+03  1.96992E+03 -3.29510E+03  6.84955E+03 -1.30910E+03
  6.25242E+03  6.04671E+03  6.65856E+02  9.69775E+03 -6.94451E+03  1.01251E+04 -1.19344E+04  2.54801E+03
 -8.09733E+03 -6.51369E+03  3.78950E+01 -1.01856E+04  6.71693E+03 -5.02273E+03  6.16636E+03  2.31764E+03
  1.37538E+03  6.90791E+03 -6.40192E+03  8.01888E+03 -9.23080E+03  3.94676E+03 -9.46116E+03 -3.70926E+03
 -5.74231E+03 -1.10119E+04  2.61965E+03 -1.28821E+04  1.09116E+04 -7.22997E+03  1.27993E+04  1.74539E+03
  7.77767E+03  9.36076E+03 -9.90151E+02  1.18388E+04 -8.45715E+03  6.99267E+03 -1.01004E+04 -6.04540E+02
 -8.11444E+03 -8.36799E+03 -1.39043E+03 -9.03840E+03  4.69503E+03 -7.11749E+03  6.03855E+03 -2.67412E+03
  3.85970E+03  7.69432E+02  2.46565E+01  1.17518E+03  4.41563E+02 -1.36799E+03  1.36822E+03 -4.88427E+03
  7.35469E+03 -3.19514E+03  1.11527E+04  1.03418E+03  1.14240E+04  7.56004E+03  7.81929E+03  1.47630E+04
 -3.61246E+03  1.61612E+04 -1.48136E+04  1.22457E+04 -1.76410E+04  2.16994E+03 -1.45642E+04 -5.66982E+03
 -7.71474E+03 -1.21306E+04 -6.04369E+02 -1.00359E+04  3.67438E+03 -6.01483E+03  3.63142E+03 -3.85912E+03
  2.97439E+03 -2.36722E+03  2.89313E+03 -3.19220E+03  4.79160E+03 -2.62367E+03  6.02089E+03 -1.16752E+03
  7.91855E+03  2.01317E+03  4.38826E+03  6.70475E+03 -2.57530E+03  7.20519E+03 -8.36189E+03  5.31231E+03
 -9.96503E+03 -1.29348E+03 -6.12700E+03 -6.47274E+03 -7.78402E+02 -1.05218E+04  5.91630E+03 -1.09583E+04
  1.08520E+04 -6.57288E+03  1.33039E+04  1.62235E+03  8.65295E+03  9.20249E+03  2.07720E+03  1.16973E+04
 -4.75417E+03  9.78324E+03 -7.28175E+03  3.27879E+03 -4.72509E+03 -1.43279E+03 -1.74723E+03 -1.87773E+03
 -9.38178E+02  3.78480E+02 -2.10285E+03  2.68276E+03 -4.83871E+03  2.48732E+03 -7.30823E+03 -9.54676E+02
 -4.35840E+03 -7.07177E+03  7.88866E+02 -9.87106E+03  6.27354E+03 -9.64146E+03  8.74884E+03 -2.67323E+03
  9.48395E+03  4.37506E+03  4.39213E+03  8.00758E+03 -2.03381E+03  9.58792E+03 -6.55901E+03  5.94297E+03
 -8.52244E+03  2.22290E+02 -6.88177E+03 -5.91655E+03 -2.39878E+02 -8.48953E+03  4.48437E+03 -6.04374E+03
  5.86610E+03 -2.14873E+03  4.76058E+03  8.61465E+02  9.74907E+02  3.39196E+03  1.45001E+03  1.79410E+03
  2.21758E+03  6.14761E+02  2.32830E+03  1.40127E+03  3.07877E+03  4.15157E+03  2.38519E+03  5.19086E+03
 -2.26157E+03  7.69474E+03 -5.86362E+03  8.14946E+03 -9.11176E+03  2.56432E+03 -9.67774E+03 -3.67327E+03
 -4.60255E+03 -1.01009E+04  1.87717E+03 -1.04582E+04  6.26986E+03 -5.99325E+03  7.93993E+03 -1.14744E+03
  6.79992E+03  4.38528E+03  1.54838E+03  5.18952E+03 -2.12783E+03  2.76518E+03 -3.76561E+03 -8.56654E+02
 -1.80633E+03 -4.20332E+03  2.23439E+03 -3.97542E+03  3.54406E+03 -2.47388E+03  3.58101E+03  7.18752E+02
  2.18077E+03  1.43453E+03  4.48501E+02  7.67259E+02 -1.03535E+03  1.50662E+03  2.13239E+03 -2.47424E+02
  7.98246E+02 -9.45158E+02  3.57077E+03  2.27235E+03  1.85740E+03  5.38638E+03 -7.57909E+02  5.94880E+03
 -4.40053E+03  3.74740E+03 -5.83067E+03  1.12044E+03 -5.02636E+03 -1.93493E+03 -1.86950E+03 -3.09295E+03
  1.04213E+03 -3.90916E+03  2.41723E+03 -1.75112E+03  1.29693E+03  2.29377E+03 -4.97864E+02  2.70661E+03
 -3.76028E+03  1.72982E+03 -3.82536E+03 -2.95463E+03 -2.49458E+03 -5.03215E+03  6.27819E+02 -4.94612E+03
  2.61185E+03 -2.62765E+03  3.44683E+03  6.12877E+02  2.62160E+03  1.56812E+03  1.06317E+03  3.32342E+03
 -1.56302E+03  2.42471E+02 -2.61084E+03 -2.00093E+03  1.21089E+03 -2.81026E+03  4.88677E+03 -3.11924E+03
  5.48332E+03  6.83693E+02  6.18750E+03  3.69921E+03  2.16711E+03  5.36408E+03 -1.87958E+03  5.55710E+03
 -4.99648E+03  2.21590E+03 -5.19723E+03 -7.83892E+02 -2.52527E+03 -4.31016E+03  9.66653E+02 -3.19767E+03
  4.01357E+03 -2.25566E+03  2.53795E+03  1.32036E+03  8.27088E+02  3.66725E+03  2.43610E+02  2.68995E+03
 -1.78128E+03  1.81889E+03 -7.03268E+02  8.27635E+02 -6.04572E+02  5.24491E+02 -1.25532E+03  1.33083E+03
 -1.14518E+03  2.67732E+03 -3.70705E+03  2.27037E+03 -5.83229E+03  3.08233E+01 -6.46780E+03 -3.64282E+03
 -3.44276E+03 -7.59153E+03  2.23202E+03 -8.58024E+03  5.17955E+03 -6.56029E+03  7.80387E+03 -2.75377E+03
  8.81558E+03  1.83538E+03  4.92761E+03  5.72715E+03  5.42020E+02  5.72498E+03 -1.96637E+03  4.75466E+03
 -2.84993E+03  1.71576E+03 -2.24701E+03 -6.98300E+02 -9.84832E+02 -6.58226E+02 -6.07476E+02 -1.18118E+02
 -8.80336E+02  5.22787E+02 -9.73946E+02 -1.75661E+02  1.45642E+02 -1.58817E+03 -1.49450E+01 -2.11888E+03
  2.67827E+03 -2.29114E+03  3.43756E+03  3.91964E+02  3.62490E+03  2.59261E+03  4.99073E+02  4.70381E+03
 -3.54496E+03  7.29675E+03 -5.64208E+03  3.97656E+03 -7.22123E+03 -2.31571E+02 -5.27269E+03 -4.55023E+03
 -2.25584E+03 -5.36235E+03  1.16926E+03 -5.16909E+03  3.27072E+03 -2.72905E+03  3.60186E+03  8.34028E+02
  2.28423E+03  1.94561E+03  1.04406E+02  2.00243E+03 -7.81249E+02 -4.69000E+02  8.95311E+01 -1.84156E+03
  1.88820E+03 -8.52309E+02  1.92755E+03  1.23314E+03  1.54130E+03  2.25794E+03 -8.21944E+01  3.16185E+03
 -1.94343E+03  2.23869E+03 -3.19858E+03  1.01314E+03 -4.23857E+03 -2.80291E+03 -4.12541E+02 -3.99049E+03
  2.54544E+03 -3.59659E+03  3.52099E+03 -1.03570E+03  4.10131E+03  5.08765E+02  2.28192E+03  2.81479E+03
  1.01637E+03  3.33511E+03 -5.04188E+02  2.93689E+03 -2.58734E+03  1.53522E+03 -2.14344E+03  4.57032E+02
 -8.37653E+02 -2.57488E+02 -1.10085E+03 -2.04295E+01 -1.97851E+03  1.75650E+02 -2.91070E+03 -6.34651E+02
 -3.07609E+03 -1.38814E+03 -5.77455E+02 -4.08970E+03  1.18211E+03 -4.07271E+03  2.80069E+03 -1.64128E+03
  3.63409E+03  5.70344E+02  1.68479E+03  2.76290E+03 -1.55867E+02  3.17392E+03 -2.95018E+03  2.21638E+03
