 $NMID ID='MM_0lb_SNR400_19hz_g50_100.RAW', FMTDAT='(8E13.5)'
 TRAMP=1., VOLUME=1. $END
  3.09400E+05  7.54028E+02  3.37655E+05  2.50596E+05  8.49942E+04  3.37820E+05 -1.32388E+05  2.50882E+05
 -1.90411E+05  8.24239E+04 -1.10606E+05 -3.29792E+04  1.45806E+03 -4.99544E+04  5.39609E+04 -5.84103E+01
  3.48683E+04  5.32735E+04 -1.65280E+04  7.52400E+04 -6.12099E+04  6.33650E+04 -8.34804E+04  3.12143E+04
 -7.98591E+04 -1.08790E+04 -5.67408E+04 -4.99951E+04 -1.53211E+04 -6.86533E+04  2.71680E+04 -4.51209E+04
  3.92487E+04  4.23964E+03  1.62593E+04  4.76051E+04 -3.38072E+04  4.63577E+04 -6.55421E+04 -6.70221E+02
 -5.17960E+04 -5.58634E+04 -6.19153E+03 -7.56694E+04  3.25385E+04 -5.35694E+04  4.66507E+04 -1.62120E+04
  4.15210E+04  1.08144E+04  3.05829E+04  2.43213E+04  1.54164E+04  2.84473E+04 -4.26764E+03  2.71340E+04
 -2.14098E+04  1.30516E+04 -1.96475E+04 -3.91626E+03  3.89741E+03 -8.24363E+03  2.15603E+04  1.14174E+04
  7.46032E+03  3.36153E+04 -3.09175E+04  3.42320E+04 -6.10606E+04  1.83723E+03 -5.56100E+04 -4.14715E+04
 -1.22284E+04 -6.06627E+04  3.81086E+04 -4.37064E+04  5.58468E+04 -2.22626E+03  3.15822E+04  3.04328E+04
 -6.87519E+03  3.29028E+04 -2.89952E+04  1.31314E+04 -2.74723E+04 -5.14655E+03 -1.44881E+04 -9.99163E+03
 -7.52778E+03 -1.17326E+04 -1.26863E+03 -1.63336E+04  7.10507E+03 -2.24234E+04  1.53244E+04 -1.40936E+04
  1.24521E+04  4.37745E+03 -5.86152E+03  1.33481E+04 -1.93830E+04 -2.55646E+03 -7.92439E+03 -3.06876E+04
  2.10962E+04 -4.08186E+04  4.54211E+04 -1.86219E+04  4.24335E+04  1.79294E+04  1.44271E+04  4.17759E+04
 -1.49689E+04  3.13740E+04 -2.33130E+04  9.27644E+02 -7.97851E+03 -2.59478E+04  2.02205E+04 -3.15565E+04
  3.81183E+04 -7.51602E+03  3.11523E+04  2.31156E+04  1.59436E+04  4.29884E+04 -7.65902E+03  4.52717E+04
 -2.85734E+04  2.97368E+04 -3.77212E+04  8.39798E+03 -3.82945E+04 -1.43940E+04 -2.08133E+04 -3.46173E+04
  6.94420E+03 -3.43621E+04  2.92049E+04 -1.31436E+04  2.70604E+04  1.07418E+04  3.01821E+03  1.76737E+04
 -1.31674E+04  7.46654E+03 -9.25563E+03 -7.61033E+03  6.23049E+03 -1.00642E+04  1.71659E+04  6.48596E+03
  1.23590E+04  2.20658E+04 -7.09667E+03  2.33930E+04 -2.13592E+04  9.43823E+03 -2.52642E+04 -6.11153E+03
 -1.66002E+04 -1.65054E+04 -5.43041E+03 -1.71638E+04  4.16343E+03 -1.45449E+04  1.22440E+04 -1.50638E+04
  2.14834E+04 -1.19168E+04  2.80692E+04  1.13338E+03  2.15177E+04  1.62618E+04  4.22119E+03  3.22230E+04
 -1.59266E+04  2.76412E+04 -2.56676E+04  9.73242E+03 -1.98750E+04 -1.04498E+04 -3.95462E+03 -1.35402E+04
  3.07926E+03 -4.12926E+03 -2.40601E+03  5.38521E+03 -1.29590E+04  4.33765E+03 -1.39865E+04 -5.02047E+03
 -8.57808E+03 -1.53596E+04  4.83236E+03 -1.94664E+04  1.34626E+04 -1.39830E+04  1.50636E+04 -1.41982E+03
  8.70299E+03  1.11980E+04 -1.28054E+03  1.56603E+04 -1.00787E+04  9.52815E+03 -1.50815E+04 -3.44252E+03
 -1.14513E+04 -1.47014E+04 -1.35445E+03 -1.87437E+04  8.36584E+03 -1.52686E+04  1.61476E+04 -7.19202E+03
  1.44377E+04  8.39443E+02  1.10476E+04  4.65584E+03  4.99538E+03  8.53680E+02  7.26820E+03 -1.54322E+03
  1.37511E+04  2.60123E+03  1.48492E+04  1.22174E+04  9.33559E+03  2.48193E+04 -3.11446E+03  2.63306E+04
 -1.55578E+04  2.00950E+04 -2.44920E+04  9.35533E+03 -2.56275E+04 -1.97520E+03 -2.09129E+04 -1.39172E+04
 -9.89297E+03 -2.02428E+04  6.40597E+03 -1.93289E+04  1.61990E+04 -1.01685E+04  1.53081E+04  3.68887E+03
  6.40996E+03  1.14149E+04 -7.15553E+03  1.01325E+04 -1.28514E+04  2.53861E+03 -1.05306E+04 -7.41313E+03
 -8.70127E+00 -1.22249E+04  6.66004E+03 -9.33740E+03  8.16726E+03 -1.50740E+03  1.19665E+03  4.95432E+03
 -5.74893E+03  1.70354E+03 -3.45218E+03 -4.14426E+03  6.92419E+02 -1.02510E+04  8.01213E+03 -1.00020E+04
  1.20418E+04 -4.54364E+03  1.16769E+04  3.12449E+03  9.85696E+03  1.02905E+04  4.92472E+03  1.43665E+04
 -1.79052E+03  1.57527E+04 -9.43439E+03  9.81756E+03 -1.07920E+04  2.79467E+03 -8.13075E+03 -1.63297E+03
 -4.14414E+03 -3.75198E+03 -4.12755E+02  1.70776E+03 -1.95700E+03  1.80021E+03 -3.23221E+03  3.50224E+03
 -8.18209E+03 -5.36556E+02 -8.79811E+03 -6.58075E+03 -3.31659E+03 -1.13170E+04  3.84786E+03 -8.30657E+03
  6.96435E+03 -3.80101E+03  4.99382E+03  2.25753E+03  5.59703E+02  2.72323E+03 -3.46346E+03 -3.44647E+02
 -3.19492E+03 -5.13359E+03 -9.04195E+02 -6.97225E+03  4.07687E+03 -8.10611E+03  9.82202E+03 -3.60150E+03
  1.16209E+04  4.40136E+02  8.82467E+03  5.67139E+03  1.92665E+03  8.67041E+03 -4.61851E+03  8.52916E+03
 -6.80177E+03  3.59471E+03 -3.23466E+03 -1.42285E+03  1.40791E+03 -1.68264E+03  4.14045E+03 -7.10653E+02
  4.64360E+03  3.50525E+03  1.03226E+03  6.12111E+03 -4.60472E+03  6.15506E+03 -7.54177E+03  1.48550E+03
 -4.95665E+03 -4.11515E+03  3.82584E+02 -6.30328E+03  3.76737E+03 -3.11990E+03  2.90184E+03  7.93714E+02
  3.00026E+02  3.22315E+03 -3.83540E+03  4.15188E+03 -4.73824E+03  2.04763E+03 -5.07332E+03 -9.21526E+02
 -2.74144E+03 -6.25930E+03  1.25002E+03 -6.99043E+03  5.76647E+03 -4.89221E+03  6.38284E+03  6.30418E+02
  4.83648E+03  5.06074E+03  2.56557E+02  7.07259E+03 -4.50178E+03  4.18093E+03 -5.14560E+03 -5.47383E+02
 -5.36675E+03 -5.17159E+03 -9.12524E+02 -4.74502E+03  1.95208E+03 -4.71557E+03  3.29274E+03 -2.79698E+03
  2.96008E+03  1.92939E+02 -2.20213E+00  1.32905E+03  8.08549E+02 -4.67029E+01 -2.97748E+02 -2.12256E+03
  3.77727E+03 -3.83000E+02  5.01635E+03  3.67355E+02  5.54364E+03  2.73212E+03  4.94172E+03  7.00069E+03
 -1.57402E+03  8.12121E+03 -6.98764E+03  6.81258E+03 -9.65738E+03  8.56519E+02 -7.67737E+03 -2.41150E+03
 -4.53547E+03 -6.58251E+03 -1.92223E+02 -4.15345E+03  2.15413E+03 -2.32431E+03  1.75301E+03 -1.86057E+03
  1.28128E+03 -1.34886E+03  2.08805E+03 -2.54975E+03  4.02439E+03 -1.23805E+03  3.89777E+03  1.09619E+03
  4.04971E+03  1.07359E+03  1.32458E+03  3.15027E+03 -1.53780E+03  2.59902E+03 -4.30752E+03  2.83997E+03
 -4.98285E+03 -6.62060E+02 -1.39825E+03 -2.96234E+03  2.95538E+02 -4.71343E+03  2.91082E+03 -4.69476E+03
  4.86048E+03 -3.01043E+03  5.94258E+03  1.34012E+02  4.37997E+03  4.03437E+03  1.04149E+03  5.87327E+03
 -1.87615E+03  5.92275E+03 -3.32051E+03  1.71937E+03 -1.46349E+03 -8.05282E+02 -5.33789E+02 -5.41270E+02
 -6.37085E+02  5.00433E+02 -3.19125E+02  1.81761E+03 -2.25026E+03  5.98568E+02 -3.74911E+03 -5.24807E+02
 -1.42328E+03 -3.58734E+03  8.45828E+02 -4.52741E+03  2.55469E+03 -4.02268E+03  3.91989E+03 -5.49065E+02
  3.43231E+03  2.41335E+03  1.59923E+03  2.97275E+03 -1.00537E+03  4.44598E+03 -2.28262E+03  2.33089E+03
 -3.69834E+03  9.81764E+02 -3.19928E+03 -2.39678E+03  3.02520E+01 -2.95777E+03  1.20092E+03 -2.37645E+03
  2.46691E+03 -9.69568E+02  1.61162E+03  5.61647E+02  6.21488E+01  2.01044E+03  7.55274E+02  2.59307E+02
  1.80481E+03  1.11171E+03  1.04825E+03  1.33943E+03  1.05514E+03  2.39020E+03  1.19563E+03  1.26798E+03
 -1.23013E+03  3.13476E+03 -2.06756E+03  4.11838E+03 -2.59473E+03  1.05429E+03 -3.89760E+03 -2.22755E+02
 -1.46316E+03 -3.82907E+03  5.09399E+02 -4.70223E+03  1.48920E+03 -2.56000E+03  2.73163E+03 -4.68862E+02
  2.50699E+03  1.87016E+03  4.52789E+02  1.34165E+03 -4.76668E+02  4.62183E+02 -1.34755E+03 -3.25780E+02
 -2.11025E+02 -1.50101E+03  7.75712E+02 -1.37772E+03  1.37486E+03 -6.33166E+02  1.23423E+03  2.90044E+02
  9.67816E+02  1.85720E+02  6.18185E+02 -4.34566E+02 -7.41762E+02  9.17862E+02  1.51083E+03 -8.20099E+01
 -3.34362E+02 -2.99447E+02  1.27953E+03  7.84203E+02  6.08647E+01  2.18409E+03 -3.78449E+02  2.31617E+03
 -1.67698E+03  8.50635E+02 -1.33772E+03 -8.68288E+01 -2.05501E+03 -7.20066E+02 -2.79880E+02 -7.35702E+02
  6.54007E+01 -1.28578E+03  8.82624E+02 -2.01204E+02  8.73860E+02  1.02651E+03 -4.37822E+02  1.24704E+03
 -9.84888E+02  1.07743E+03 -1.03995E+03 -1.40297E+03 -5.34614E+02 -1.52142E+03  6.45916E+02 -1.71414E+03
  4.32194E+02 -3.91588E+02  7.16101E+02  5.32842E+01  1.13575E+03 -4.03740E+02 -4.47067E+02  1.55499E+03
 -7.60634E+01 -1.25081E+01 -1.11249E+03 -1.60177E+02  4.91572E+02 -6.80824E+02  1.01927E+03 -1.09724E+03
  1.16475E+03 -8.37940E+01  2.52466E+03  5.12744E+01  7.97704E+02  1.63268E+03 -5.69349E+01  1.59430E+03
 -1.50294E+03 -3.85347E+02 -1.21192E+03 -4.79873E+01 -2.09554E+02 -1.30578E+03  1.69159E+01 -3.78239E+02
  1.46598E+03 -6.77812E+02  4.53525E+02 -4.24103E+02 -6.31949E+01  1.44198E+03  3.40380E+02  1.51934E+03
 -9.89499E+02  1.39780E+03 -6.01750E+02  1.76306E+02 -2.11869E+02 -1.21037E+02 -9.28970E+02  4.35244E+02
 -9.73979E+02  1.23645E+03 -1.62000E+03  7.67893E+02 -2.06906E+03 -3.53691E+02 -1.83553E+03 -7.58793E+02
 -7.97390E+02 -1.73066E+03  2.69409E+02 -2.46477E+03  7.50021E+02 -2.28016E+03  2.57467E+03 -7.39142E+02
  2.19944E+03 -1.27688E+02  1.11298E+03  1.93552E+03 -6.13944E+02  1.18715E+03 -6.12192E+02  7.09417E+02
 -9.14211E+02  6.93415E+02 -1.65761E+02  1.94336E+02 -4.89405E+02 -3.13397E+02 -9.07898E+02  1.89433E+02
 -1.14621E+03 -5.20915E+02 -9.92041E+02  2.22773E+02  4.80430E+01 -2.92975E+02 -4.01125E+02 -5.86634E+02
  1.11952E+03 -1.08642E+03  7.03215E+02  2.68435E+02  8.59351E+02  6.63754E+02 -6.72387E+02  1.14669E+03
 -6.26458E+02  1.94995E+03 -8.52577E+02  1.38496E+03 -1.68979E+03 -4.95517E+02 -2.69325E+02 -1.93332E+03
 -8.00236E+02 -1.02532E+03 -4.10500E+01 -8.41744E+02  1.03633E+03 -7.54467E+02  3.36486E+01  3.40920E+02
  2.82914E+02  4.35336E+02  9.91472E+01  5.70763E+00 -4.10864E+02  5.71317E+02 -4.21647E+02 -4.96149E+02
 -1.61485E+01  4.14755E+02  2.57499E+02  4.53737E+02  5.01870E+01  1.78978E+02  7.36450E+02  1.11753E+01
 -1.38664E+02  1.09196E+03 -5.67147E+02  2.21161E+02 -8.56753E+02 -1.09971E+02 -8.94923E+01 -1.11388E+03
  6.95520E+02 -1.14503E+03  2.37321E+01  5.57680E+02  5.39288E+02 -5.43790E+02  7.53453E+00  1.35038E+03
  3.00979E+02  3.44996E+02 -3.13114E+02  5.83549E+02 -7.63794E+02  2.19183E+02 -7.17389E+02  6.67970E+02
 -3.65988E+02 -3.96570E+02 -6.63551E+02 -3.94278E+02 -7.46057E+02 -3.02450E+02 -8.21323E+02 -2.68750E+02
 -9.19324E+02  6.72850E+02 -5.73792E+02 -5.86205E+02  2.44737E+02 -1.56790E+03  8.31445E+02 -6.14201E+01
  6.90789E+02  3.23084E+02 -4.19223E+02  7.18949E+02 -3.91191E+02  8.68483E+02 -3.57356E+02  1.09314E+03
