 $NMID ID='MM_0lb_SNR400_18hz_g60_97.RAW', FMTDAT='(8E13.5)'
 TRAMP=1., VOLUME=1. $END
  3.09985E+05  3.57048E+02  3.37582E+05  2.50416E+05  8.47373E+04  3.38039E+05 -1.32336E+05  2.50253E+05
 -1.89856E+05  8.31725E+04 -1.11413E+05 -3.24300E+04  1.51670E+03 -4.97490E+04  5.35833E+04 -3.11291E+01
  3.51817E+04  5.30855E+04 -1.72754E+04  7.58103E+04 -6.10010E+04  6.28512E+04 -8.42296E+04  3.21286E+04
 -8.13354E+04 -1.14380E+04 -5.73607E+04 -5.11768E+04 -1.51290E+04 -6.94485E+04  2.71100E+04 -4.52345E+04
  3.94831E+04  3.48996E+03  1.59113E+04  4.76011E+04 -3.40541E+04  4.66436E+04 -6.62592E+04 -7.46142E+01
 -5.30422E+04 -5.70067E+04 -6.85658E+03 -7.61991E+04  3.36527E+04 -5.43445E+04  4.75123E+04 -1.76276E+04
  4.29291E+04  1.12054E+04  3.14884E+04  2.51496E+04  1.60189E+04  2.91502E+04 -5.04276E+03  2.74219E+04
 -2.16287E+04  1.25196E+04 -1.88377E+04 -4.87212E+03  5.70231E+03 -6.72415E+03  2.12193E+04  1.16601E+04
  7.47536E+03  3.46200E+04 -3.17446E+04  3.48958E+04 -6.27034E+04  1.39468E+03 -5.67268E+04 -4.24740E+04
 -1.29746E+04 -6.21208E+04  3.96333E+04 -4.46296E+04  5.74036E+04 -1.58664E+03  3.41055E+04  3.21290E+04
 -6.03689E+03  3.46150E+04 -2.98312E+04  1.46230E+04 -2.92378E+04 -5.02139E+03 -1.62931E+04 -1.02701E+04
 -7.84157E+03 -1.24441E+04 -4.76864E+02 -1.73967E+04  7.50712E+03 -2.29166E+04  1.51917E+04 -1.39123E+04
  1.13907E+04  4.63385E+03 -7.19980E+03  1.27064E+04 -2.02202E+04 -4.00471E+03 -8.48641E+03 -3.27962E+04
  2.24508E+04 -4.19273E+04  4.67702E+04 -1.89314E+04  4.42082E+04  1.92913E+04  1.50459E+04  4.29641E+04
 -1.62433E+04  3.21104E+04 -2.43529E+04  1.58580E+03 -9.14770E+03 -2.72945E+04  2.09615E+04 -3.32688E+04
  3.99118E+04 -8.55977E+03  3.39861E+04  2.34955E+04  1.70812E+04  4.47753E+04 -8.18536E+03  4.85997E+04
 -3.01381E+04  3.27905E+04 -4.04033E+04  9.15009E+03 -4.12506E+04 -1.64190E+04 -2.23832E+04 -3.64612E+04
  7.06309E+03 -3.55558E+04  3.06107E+04 -1.35906E+04  2.80768E+04  1.06826E+04  3.64142E+03  1.89110E+04
 -1.30869E+04  7.69212E+03 -9.79133E+03 -7.65072E+03  5.67752E+03 -1.03752E+04  1.80894E+04  6.34308E+03
  1.28447E+04  2.17269E+04 -6.58253E+03  2.37814E+04 -2.22376E+04  1.07493E+04 -2.61746E+04 -5.25285E+03
 -1.92167E+04 -1.68989E+04 -6.93700E+03 -1.85856E+04  3.71856E+03 -1.71773E+04  1.42222E+04 -1.68228E+04
  2.40431E+04 -1.20053E+04  3.02097E+04  1.89644E+03  2.24163E+04  1.79992E+04  4.15695E+03  3.41857E+04
 -1.68631E+04  2.91095E+04 -2.74178E+04  9.45363E+03 -2.01771E+04 -1.01994E+04 -4.62443E+03 -1.34274E+04
  2.62578E+03 -3.63968E+03 -3.99213E+03  5.78606E+03 -1.43878E+04  5.47987E+03 -1.51680E+04 -6.47732E+03
 -9.16829E+03 -1.71765E+04  4.83098E+03 -2.14071E+04  1.37584E+04 -1.59368E+04  1.64673E+04 -1.22238E+03
  1.03902E+04  1.22769E+04 -9.41657E+02  1.73662E+04 -1.15074E+04  1.02977E+04 -1.73283E+04 -4.12648E+03
 -1.21411E+04 -1.57583E+04 -1.64073E+03 -2.03799E+04  9.65364E+03 -1.70918E+04  1.79820E+04 -8.88822E+03
  1.64901E+04  9.37380E+01  1.14086E+04  4.18799E+03  5.37235E+03  7.31102E+02  8.50309E+03 -1.53285E+03
  1.52013E+04  2.99424E+03  1.66992E+04  1.35056E+04  1.06208E+04  2.65295E+04 -2.92642E+03  2.97967E+04
 -1.76048E+04  2.31646E+04 -2.73639E+04  1.10581E+04 -2.90561E+04 -2.35187E+03 -2.37458E+04 -1.58717E+04
 -1.11632E+04 -2.32520E+04  7.84063E+03 -2.14524E+04  1.85292E+04 -1.14963E+04  1.71629E+04  4.59207E+03
  6.87982E+03  1.28402E+04 -7.87843E+03  1.12582E+04 -1.46824E+04  2.65067E+03 -1.14361E+04 -9.48246E+03
 -1.72015E+02 -1.35018E+04  6.92702E+03 -1.00419E+04  8.61654E+03 -7.78794E+02  1.60808E+03  5.79390E+03
 -6.53037E+03  1.52913E+03 -4.43936E+03 -5.40584E+03  1.54723E+02 -1.14022E+04  9.23707E+03 -1.14649E+04
  1.42146E+04 -5.56313E+03  1.44909E+04  2.94246E+03  1.23727E+04  1.13326E+04  5.70369E+03  1.65191E+04
 -2.28309E+03  1.87842E+04 -1.10141E+04  1.10746E+04 -1.25504E+04  3.32149E+03 -8.72107E+03 -2.59433E+03
 -4.88730E+03 -3.80645E+03 -1.04230E+03  1.67265E+03 -2.49689E+03  2.26148E+03 -4.33726E+03  3.88310E+03
 -8.34457E+03 -4.27811E+02 -9.37177E+03 -7.66640E+03 -3.51478E+03 -1.24327E+04  4.07607E+03 -9.32021E+03
  7.95834E+03 -3.88063E+03  5.47967E+03  2.59856E+03  4.04931E+02  3.77418E+03 -4.00420E+03 -1.35390E+02
 -4.22322E+03 -5.68683E+03 -8.11976E+02 -7.96926E+03  4.74745E+03 -9.14649E+03  1.11389E+04 -4.57834E+03
  1.34353E+04  1.34577E+03  1.02647E+04  7.09140E+03  1.78442E+03  1.02920E+04 -6.24836E+03  8.81985E+03
 -7.52394E+03  2.91417E+03 -3.83501E+03 -1.55718E+03  1.08030E+03 -2.25135E+03  5.38312E+03 -1.03414E+03
  4.90278E+03  3.51487E+03  1.53218E+03  7.17723E+03 -5.12051E+03  7.12093E+03 -8.80739E+03  1.58859E+03
 -6.01267E+03 -3.84082E+03  2.40419E+02 -7.85570E+03  4.25919E+03 -3.18571E+03  4.15693E+03  9.05797E+02
  2.33150E+02  4.23235E+03 -4.40244E+03  5.40660E+03 -6.09021E+03  2.86848E+03 -5.44921E+03 -1.83132E+03
 -3.31373E+03 -6.87247E+03  1.35020E+03 -8.39299E+03  6.63600E+03 -5.32831E+03  7.46493E+03  8.07453E+02
  5.24153E+03  5.89875E+03 -8.36404E+01  8.17610E+03 -5.63504E+03  4.75703E+03 -5.99977E+03 -1.57710E+02
 -6.46983E+03 -5.74377E+03 -1.58001E+03 -5.76739E+03  2.72791E+03 -5.12269E+03  3.56185E+03 -3.42023E+03
  2.99517E+03  3.09587E+02 -2.66141E+02  1.27619E+03  2.88685E+02 -4.53004E+02  6.39873E+02 -1.93617E+03
  4.61834E+03 -1.50398E+03  6.13287E+03  1.19877E+03  6.28216E+03  3.54498E+03  6.05594E+03  8.60789E+03
 -1.69373E+03  9.64315E+03 -7.96364E+03  7.12013E+03 -1.14847E+04  1.31071E+03 -9.07028E+03 -3.08761E+03
 -4.84077E+03 -6.94384E+03 -9.60167E+02 -5.98475E+03  2.38575E+03 -2.53099E+03  1.76406E+03 -2.28141E+03
  2.04533E+03 -1.38995E+03  1.91953E+03 -2.01559E+03  4.19178E+03 -1.80546E+03  4.12177E+03 -1.72368E+02
  5.29894E+03  1.26636E+03  1.07435E+03  3.91290E+03 -1.13944E+03  3.42048E+03 -5.27910E+03  3.00219E+03
 -5.57892E+03 -1.83038E+03 -2.40077E+03 -4.00709E+03  5.78559E-01 -5.70822E+03  3.56295E+03 -5.84621E+03
  5.70528E+03 -2.94058E+03  7.89143E+03  1.53538E+02  5.28595E+03  5.74294E+03  1.32872E+03  6.48171E+03
 -2.79241E+03  6.27775E+03 -3.55049E+03  2.42737E+03 -2.62545E+03 -9.70387E+02 -8.69899E+01 -9.43564E+02
 -5.59081E+02  6.12232E+02 -1.45686E+03  1.74852E+03 -2.60055E+03  1.56854E+03 -4.37437E+03 -6.92141E+02
 -1.48646E+03 -4.48587E+03  8.52977E+02 -5.61982E+03  3.22490E+03 -5.16160E+03  4.68374E+03 -1.48906E+03
  4.65321E+03  2.80381E+03  2.24492E+03  3.57984E+03 -3.66631E+02  4.82063E+03 -3.59922E+03  2.70057E+03
 -4.72422E+03  6.80385E+02 -3.47616E+03 -2.67724E+03 -4.07095E+02 -3.70714E+03  1.41408E+03 -2.61610E+03
  3.29863E+03 -1.18562E+03  2.40186E+03 -9.66238E+01  8.98784E+02  1.52130E+03  7.87660E+02  7.97066E+02
  1.83258E+03  2.11458E+02  6.92241E+02  8.96578E+02  1.67717E+03  2.54030E+03  1.69596E+03  2.61833E+03
 -1.61915E+03  3.54307E+03 -2.79282E+03  4.69668E+03 -3.77860E+03  8.11216E+02 -4.89894E+03 -7.54773E+02
 -1.98904E+03 -3.90642E+03  4.67506E+02 -4.84061E+03  2.10231E+03 -2.55513E+03  3.27641E+03 -8.92535E+02
  1.86877E+03  2.01332E+03  1.40306E+02  2.79797E+03 -1.39655E+03  2.08563E+03 -9.55393E+02 -1.49750E+02
 -1.11196E+03 -1.43910E+03  1.22582E+03 -2.37707E+03  1.83891E+03 -8.35816E+02  1.30571E+03  1.92255E+02
  4.27846E+02  1.81262E+02  7.70125E+02  3.60682E+02 -9.92576E+02  9.30125E+02  1.54383E+03  4.92142E+02
  5.66749E+02 -4.23357E+01  2.03419E+03  7.01701E+02 -5.48557E+01  2.32876E+03 -2.64773E+02  3.03934E+03
 -1.34957E+03  1.33436E+03 -2.56622E+03  3.93111E+02 -2.56454E+03 -4.02027E+02 -3.25026E+02 -1.65049E+03
  1.75177E+02 -1.40329E+03  8.67439E+02 -9.83254E+02  7.22710E+02  1.43965E+03 -1.50788E+03  7.91917E+02
 -1.17898E+03  1.05747E+03 -1.19080E+03 -1.74916E+03 -7.97109E+02 -2.10281E+03 -7.63269E+01 -1.63018E+03
  6.85628E+02 -4.14855E+02  8.77882E+02 -5.92752E+01  1.37297E+03  1.72429E+02  3.10996E+02  1.15747E+03
 -1.25989E+02 -4.13975E+02 -1.27036E+03 -3.42988E+02  8.09687E+02 -8.31185E+02  2.64674E+03 -1.33436E+03
  1.59311E+03 -1.74903E+02  2.75258E+03  8.10528E+02  1.23442E+03  2.54745E+03  2.69631E+02  1.47651E+03
 -1.48227E+03  1.88547E+02 -1.97836E+03  1.74736E+02 -3.56549E+02 -1.33866E+03  4.36223E+02 -4.49691E+02
  1.59329E+03 -5.40741E+02  7.46191E+02  1.02713E+03 -1.76870E+02  1.36446E+03  4.06865E+01  1.60724E+03
 -9.83895E+02  1.18694E+03 -3.85306E+02  3.18586E+02 -2.13895E+02  6.09036E+01 -7.23775E+02  7.76471E+02
  1.86199E+01  6.60026E+02 -1.56781E+03  5.30077E+02 -1.72039E+03  2.01177E+02 -2.84802E+03 -1.90115E+03
 -1.07250E+03 -2.76811E+03  6.63107E+02 -2.74835E+03  7.34162E+02 -2.40144E+03  3.17150E+03 -9.97708E+02
  2.31462E+03  1.28236E+02  1.40014E+03  1.31953E+03 -1.09082E+03  1.47072E+03 -4.44252E+02  1.21999E+03
 -1.31475E+03  9.48062E+02 -1.52326E+03 -1.73665E+02 -6.29953E+02  4.03383E+02 -6.72871E+02 -3.11994E+01
 -1.67929E+03 -3.60169E+02 -1.14216E+03 -2.89354E+02  4.70802E+02 -5.38906E+02 -3.49451E+02 -1.08668E+03
  1.32842E+03 -5.85362E+02  3.89635E+02  2.33846E+01  9.84735E+02  1.04799E+03 -5.43611E+02  1.52289E+03
 -1.00456E+03  2.46089E+03 -1.79425E+03  1.34542E+03 -1.47764E+03 -3.44848E+02 -1.28208E+03 -7.62092E+02
 -7.14940E+02 -1.39950E+03 -8.74137E+01 -6.20812E+02  6.85784E+02 -1.17224E+03  1.32465E+03 -2.87087E+02
  1.00057E+03  1.76555E+01 -3.58586E+02  3.51723E+02 -7.21446E+01  2.40174E+02 -1.29280E+02 -5.52904E+01
  5.68026E+02  4.54544E+02  3.70952E+02  4.64683E+02  1.80624E+02  1.14274E+02  3.84568E+02  1.35584E+02
 -7.45269E+02  4.49528E+02 -6.48677E+02 -1.77730E+02 -8.18027E+02 -1.81982E+02 -2.83845E+02 -1.67064E+03
  2.79629E+02 -7.77473E+02  4.42117E+02 -2.85977E+02  5.97391E+02 -1.46550E+02  6.45090E+01  1.36666E+03
  4.90398E+02  8.06062E+02 -3.69164E+02  6.34895E+02 -6.24775E+02  6.21887E+02 -3.76386E+02 -3.60226E+02
 -2.96334E+02 -4.29501E+02 -1.51651E+02  5.14355E+02 -8.63332E+02 -5.18122E+02 -1.08176E+03 -3.32718E+02
 -8.81551E+02  1.06598E+02 -4.45616E+02 -8.48201E+02  2.72574E+02 -1.67226E+03  4.39624E+02 -1.22140E+02
  1.07886E+03  5.93424E+02 -3.75462E+02  6.60167E+02 -4.56506E+02  9.40328E+02 -3.04797E+02  2.42276E+02
