 $NMID ID='MM_0lb_SNR400_19hz_g45_89.RAW', FMTDAT='(8E13.5)'
 TRAMP=1., VOLUME=1. $END
  3.09792E+05  5.73331E+02  3.37772E+05  2.50336E+05  8.38316E+04  3.37104E+05 -1.32598E+05  2.50108E+05
 -1.89210E+05  8.18289E+04 -1.10737E+05 -3.26527E+04  1.79925E+03 -5.07355E+04  5.37991E+04  2.22346E+02
  3.52520E+04  5.27747E+04 -1.70455E+04  7.51448E+04 -6.01603E+04  6.24845E+04 -8.24886E+04  3.16713E+04
 -7.89659E+04 -1.08281E+04 -5.65924E+04 -5.02313E+04 -1.48552E+04 -6.78409E+04  2.64925E+04 -4.47984E+04
  3.89714E+04  3.47099E+03  1.52952E+04  4.64841E+04 -3.39967E+04  4.65771E+04 -6.53696E+04 -1.08035E+03
 -5.17646E+04 -5.61762E+04 -5.88977E+03 -7.47977E+04  3.33803E+04 -5.24441E+04  4.59881E+04 -1.66869E+04
  4.12249E+04  1.11076E+04  3.09130E+04  2.44455E+04  1.60113E+04  2.83188E+04 -4.57186E+03  2.68967E+04
 -2.18538E+04  1.28914E+04 -1.89371E+04 -4.07766E+03  4.07216E+03 -7.26098E+03  2.09569E+04  1.10864E+04
  7.68792E+03  3.32894E+04 -3.03130E+04  3.34415E+04 -6.05105E+04  2.62868E+03 -5.55591E+04 -4.05017E+04
 -1.25435E+04 -6.01934E+04  3.77653E+04 -4.25800E+04  5.52465E+04 -2.00145E+03  3.15706E+04  3.03268E+04
 -6.12604E+03  3.24869E+04 -2.80147E+04  1.30493E+04 -2.71623E+04 -4.90411E+03 -1.40647E+04 -1.02764E+04
 -7.08560E+03 -1.10432E+04 -1.17720E+03 -1.60265E+04  6.63019E+03 -2.19348E+04  1.48668E+04 -1.38152E+04
  1.19473E+04  3.89115E+03 -5.64775E+03  1.30531E+04 -1.91084E+04 -2.06870E+03 -7.94407E+03 -3.03221E+04
  2.00808E+04 -4.00418E+04  4.41569E+04 -1.81275E+04  4.12798E+04  1.80140E+04  1.38508E+04  4.09144E+04
 -1.53363E+04  3.12711E+04 -2.30606E+04  1.11548E+03 -8.53773E+03 -2.65651E+04  2.04578E+04 -3.02272E+04
  3.75792E+04 -7.39212E+03  3.05641E+04  2.23625E+04  1.53715E+04  4.22416E+04 -7.12103E+03  4.49072E+04
 -2.77579E+04  2.90801E+04 -3.68177E+04  8.36869E+03 -3.78142E+04 -1.50453E+04 -2.06507E+04 -3.40684E+04
  6.88867E+03 -3.34338E+04  2.92327E+04 -1.21430E+04  2.65766E+04  1.07511E+04  3.50710E+03  1.78332E+04
 -1.29373E+04  6.45995E+03 -9.74950E+03 -7.70880E+03  5.79284E+03 -9.70362E+03  1.71134E+04  6.28465E+03
  1.20728E+04  2.17324E+04 -6.89407E+03  2.30550E+04 -2.15210E+04  8.49685E+03 -2.49069E+04 -6.46421E+03
 -1.68053E+04 -1.67584E+04 -5.24272E+03 -1.61362E+04  3.88356E+03 -1.41882E+04  1.19008E+04 -1.48796E+04
  2.05767E+04 -1.14945E+04  2.75030E+04  8.73656E+02  2.06419E+04  1.58021E+04  4.38177E+03  3.12943E+04
 -1.57579E+04  2.71964E+04 -2.59189E+04  9.57054E+03 -1.91944E+04 -1.05538E+04 -3.49406E+03 -1.39894E+04
  2.78291E+03 -4.46535E+03 -2.85548E+03  4.80940E+03 -1.20677E+04  6.05400E+03 -1.25734E+04 -4.53547E+03
 -8.39179E+03 -1.50943E+04  4.97639E+03 -1.87603E+04  1.21711E+04 -1.36180E+04  1.39569E+04 -1.68693E+03
  8.73657E+03  1.08248E+04 -4.05338E+02  1.48865E+04 -9.96237E+03  8.43537E+03 -1.46982E+04 -3.61983E+03
 -1.16928E+04 -1.38418E+04 -1.04884E+03 -1.89598E+04  8.56688E+03 -1.45390E+04  1.56429E+04 -7.13885E+03
  1.42270E+04  4.96017E+02  9.92997E+03  3.88479E+03  4.30350E+03  1.97785E+02  7.47255E+03 -1.67055E+03
  1.31610E+04  2.74425E+03  1.43403E+04  1.20961E+04  8.56714E+03  2.41137E+04 -2.90823E+03  2.56174E+04
 -1.53180E+04  1.92103E+04 -2.35290E+04  9.28977E+03 -2.38821E+04 -1.60930E+03 -2.07123E+04 -1.33429E+04
 -9.20703E+03 -1.91002E+04  6.22540E+03 -1.83994E+04  1.62998E+04 -1.06604E+04  1.55260E+04  3.45955E+03
  6.17103E+03  1.09140E+04 -7.03570E+03  1.04992E+04 -1.28286E+04  2.79933E+03 -9.99766E+03 -7.77783E+03
 -3.06101E+02 -1.20730E+04  5.33672E+03 -9.21127E+03  7.27922E+03 -1.71046E+03  1.20265E+03  5.23245E+03
 -5.43244E+03  1.83508E+03 -3.54820E+03 -4.14633E+03  1.06062E+03 -9.60731E+03  7.52028E+03 -9.41529E+03
  1.15447E+04 -4.24392E+03  1.11788E+04  3.36822E+03  9.32818E+03  8.50936E+03  3.99339E+03  1.37253E+04
 -1.35900E+03  1.43714E+04 -9.22568E+03  9.98106E+03 -1.05534E+04  3.26895E+03 -7.99365E+03 -1.68399E+03
 -4.53604E+03 -3.30897E+03 -1.04934E+03  1.26964E+03 -1.82757E+03  1.85248E+03 -3.66954E+03  3.04931E+03
 -8.39452E+03 -4.42879E+02 -8.44092E+03 -7.11017E+03 -4.15371E+03 -1.05574E+04  3.08403E+03 -8.05296E+03
  7.03188E+03 -3.57303E+03  5.95201E+03  2.01522E+03  5.27077E+02  2.95681E+03 -3.37484E+03  2.73168E+02
 -3.09156E+03 -4.57330E+03 -6.64488E+02 -6.29134E+03  3.44575E+03 -7.60756E+03  9.09807E+03 -4.14937E+03
  1.14561E+04  3.44824E+02  8.29083E+03  5.81395E+03  1.82224E+03  7.80990E+03 -4.94112E+03  7.93389E+03
 -6.75600E+03  2.33771E+03 -3.25123E+03 -8.93440E+02  1.45620E+03 -2.06063E+03  4.23252E+03 -1.09470E+03
  3.97815E+03  3.28427E+03  1.09435E+03  5.84500E+03 -4.41447E+03  6.04340E+03 -7.59835E+03  1.93250E+03
 -5.21643E+03 -3.38475E+03  5.60586E+02 -6.92424E+03  3.26894E+03 -3.25642E+03  2.84782E+03  5.36953E+02
  6.80489E+02  3.29209E+03 -4.10365E+03  4.79867E+03 -4.58732E+03  1.98446E+03 -3.94703E+03 -6.82956E+02
 -2.53873E+03 -5.73146E+03  5.49281E+02 -6.53544E+03  5.29155E+03 -4.81252E+03  6.26003E+03  1.22937E+03
  4.36933E+03  5.17681E+03  3.07306E+02  6.66838E+03 -4.52287E+03  3.81727E+03 -4.59134E+03 -6.25042E+02
 -5.86770E+03 -5.31180E+03 -1.16414E+03 -3.92302E+03  2.03298E+03 -4.50879E+03  2.17559E+03 -3.05768E+03
  2.94310E+03  5.71659E+01  2.04144E+02  1.64666E+03  4.31941E+02 -2.91967E+02  3.56499E+01 -1.36418E+03
  3.16536E+03 -1.08663E+03  4.81816E+03  6.56575E+01  4.67592E+03  2.38475E+03  4.79301E+03  6.51679E+03
 -9.43620E+02  7.47945E+03 -7.25752E+03  5.81048E+03 -9.31257E+03  1.19624E+03 -6.71040E+03 -2.06189E+03
 -3.59334E+03 -5.71553E+03 -1.28929E+02 -4.60670E+03  2.11455E+03 -2.16102E+03  1.01338E+03 -2.07233E+03
  1.20474E+03 -8.18736E+02  1.99353E+03 -2.34009E+03  3.30172E+03 -1.34503E+03  3.16730E+03  2.04547E+02
  3.84089E+03  1.00364E+03  9.31202E+02  3.34967E+03 -1.47257E+03  2.53180E+03 -4.18075E+03  2.42704E+03
 -4.88673E+03 -5.23210E+02 -1.38892E+03 -2.67271E+03 -3.99842E+01 -4.82026E+03  3.16467E+03 -5.04017E+03
  4.43778E+03 -2.90894E+03  6.07880E+03 -4.15926E+01  4.44758E+03  3.92807E+03  4.78249E+02  5.92343E+03
 -1.96449E+03  5.07328E+03 -3.17850E+03  1.67400E+03 -1.92145E+03 -9.09097E+02 -1.97636E+02 -6.95530E+02
 -1.23184E+02  5.12436E+02 -1.18375E+03  2.15333E+03 -2.38353E+03  9.54351E+02 -4.06513E+03 -2.73869E+02
 -1.40951E+03 -3.53684E+03  9.11508E+02 -4.37029E+03  2.16505E+03 -3.92510E+03  3.11095E+03 -1.09215E+03
  3.79891E+03  2.13584E+03  1.33150E+03  3.08886E+03 -7.18771E+01  4.33185E+03 -2.33951E+03  2.40046E+03
 -3.80893E+03  3.63004E+02 -3.09840E+03 -2.41992E+03 -4.63431E+02 -2.44593E+03  1.32394E+03 -2.40585E+03
  2.11512E+03 -1.87740E+03  1.38358E+03  4.29469E+02  5.41321E+02  2.03805E+03  9.41087E+02  7.71875E+02
  1.11887E+03  3.27239E+02  7.93845E+02  1.29479E+03  7.64453E+02  2.49372E+03  1.03864E+03  1.91053E+03
 -1.11352E+03  1.91842E+03 -2.23836E+03  3.50451E+03 -2.12870E+03  1.50962E+03 -3.71590E+03 -9.56664E+01
 -1.43302E+03 -3.09511E+03  6.28262E+02 -4.12491E+03  1.05890E+03 -2.38858E+03  3.13850E+03 -1.27852E+03
  2.29190E+03  1.56226E+03 -1.49827E+02  2.06644E+03 -9.17372E+02  1.04513E+03 -9.85091E+02 -2.99395E+02
 -8.54815E+02 -1.59151E+03  1.06054E+03 -1.51244E+03  9.74246E+02 -1.12278E+03  1.90108E+03  3.63500E+02
  8.33385E+02  1.62346E+02  5.06010E+02  1.08133E+01 -1.50074E+02  1.35301E+03  1.71426E+03 -4.44163E+02
  2.70331E+02  2.84876E+02  1.85903E+03  6.51749E+02 -3.28975E+02  2.33078E+03 -5.53992E+02  2.37394E+03
 -1.38024E+03  8.04313E+02 -1.48292E+03  5.28234E+01 -2.15546E+03 -7.90638E+02 -2.05286E+02 -1.01370E+03
  9.07511E+01 -8.11996E+02  7.90933E+02 -9.51459E+02  3.37059E+02  1.19177E+03 -8.88239E+02  9.89779E+02
 -1.37728E+03  9.70422E+02 -1.21169E+03 -1.58942E+03 -1.21400E+02 -2.05037E+03  4.28815E+02 -1.37997E+03
  5.46406E+02 -9.34506E+02  1.45278E+03  3.62492E+02  1.28574E+03 -6.53460E+02  4.25364E+02  1.32985E+03
  1.21805E+02  3.25396E+02 -5.80335E+02  4.08420E+02  8.66051E+02 -1.09834E+03  1.23455E+03 -8.42793E+02
  9.39455E+02  1.85251E+02  2.50285E+03  5.92603E+02  1.05535E+03  1.64423E+03 -1.33644E+02  1.92652E+03
 -1.40542E+03  4.51249E+01 -1.60343E+03  4.11314E+02 -5.11189E+02 -1.66619E+03  2.79673E+02 -2.88003E+02
  1.52822E+03 -8.25432E+02  7.57744E+02  5.79441E+02 -3.79409E+00  1.16902E+03  4.66640E+02  6.74970E+02
 -2.49151E+02  1.16651E+03 -1.68869E+02 -4.52671E+00 -2.77144E+02  7.65451E+02 -1.00646E+03 -4.91367E+01
 -1.48615E+02  7.77945E+02 -1.24747E+03  1.33369E+01 -1.76886E+03 -9.65656E+01 -2.52342E+03 -1.31737E+03
 -1.00789E+03 -1.91821E+03  9.35861E+02 -2.26959E+03  1.22720E+03 -2.49503E+03  2.68487E+03 -1.31821E+03
  2.20869E+03 -3.58403E+02  1.01085E+03  1.00611E+03 -5.77149E+02  1.31938E+03 -5.19720E+02  1.34713E+03
 -8.25840E+02  2.64924E+02 -9.38963E+01  5.34809E+01  2.20815E+02  6.83313E+02 -6.69910E+02 -2.47966E+02
 -1.14576E+03 -1.73952E+02 -5.88833E+02  1.19397E+02  3.43323E+02 -4.74171E+02 -2.97362E+02 -8.53511E+02
  1.07888E+03  7.83159E+00  3.69078E+02 -6.27120E+01  9.17833E+02  1.74342E+03 -4.56401E+02  1.57885E+03
 -3.21941E+02  2.03034E+03 -1.32502E+03  9.09080E+02 -1.20327E+03 -1.05107E+02 -6.52702E+02 -1.04004E+03
 -6.30032E+02 -7.69628E+02  1.30310E+02 -1.06710E+03  4.42311E+02 -3.62191E+02  2.05102E+02  3.97161E+02
  5.46882E+02 -1.15260E+01  3.66870E+02  1.99128E+02 -2.96530E+02 -3.57969E+02 -3.58597E+02 -1.63229E+02
  6.93909E+02 -2.86882E+02  9.93202E+01  4.38228E+02  5.08717E+02  4.79743E+02  5.45450E+02 -9.59051E+01
 -8.13022E+02  4.38180E+02 -4.26345E+02 -5.88983E+01 -1.06650E+03  5.83404E+01 -2.96020E+02 -1.13473E+03
  4.89860E+02 -6.54340E+02  5.34801E+02 -2.85139E+02  9.09061E+02 -9.15515E+02  4.15085E+02  4.55934E+02
 -4.07205E+01  3.03295E+02 -1.15615E+02  4.02137E+02 -8.81428E+02  3.97495E+02 -1.91068E+02 -1.74969E+02
  5.68656E+01  8.48881E+01 -2.46092E+02 -1.67563E+02 -4.28501E+02  2.30193E+02 -3.97025E+02 -1.62506E+02
 -9.71335E+02  7.25929E+02  1.77142E+02 -2.28734E+02  7.97613E+02 -1.88424E+03  9.59178E+02 -2.71052E+02
  3.11506E+02  3.63617E+02 -1.06369E+03 -9.02111E+01  1.55629E+02  6.16604E+02 -4.53691E+02  6.01531E+02
