 $NMID ID='MM_0lb_SNR400_20hz_g40_80.RAW', FMTDAT='(8E13.5)'
 TRAMP=1., VOLUME=1. $END
  3.10045E+05  7.10911E+01  3.37787E+05  2.50184E+05  8.40730E+04  3.36255E+05 -1.31840E+05  2.49776E+05
 -1.89652E+05  8.24233E+04 -1.09936E+05 -3.27863E+04  1.64846E+03 -4.99923E+04  5.36808E+04  2.49346E+02
  3.45080E+04  5.21580E+04 -1.69444E+04  7.47638E+04 -6.03513E+04  6.26824E+04 -8.22026E+04  3.15750E+04
 -7.87998E+04 -1.08299E+04 -5.55869E+04 -4.95488E+04 -1.48558E+04 -6.78352E+04  2.61146E+04 -4.38757E+04
  3.82805E+04  4.09967E+03  1.53271E+04  4.64999E+04 -3.38414E+04  4.60449E+04 -6.48134E+04 -5.60776E+02
 -5.08706E+04 -5.53463E+04 -5.59301E+03 -7.40986E+04  3.30146E+04 -5.24975E+04  4.52660E+04 -1.57020E+04
  4.05871E+04  1.11695E+04  3.01160E+04  2.39050E+04  1.60145E+04  2.75366E+04 -4.45229E+03  2.60357E+04
 -2.12035E+04  1.27985E+04 -1.94115E+04 -3.58458E+03  3.62776E+03 -7.96411E+03  2.03749E+04  1.00779E+04
  7.20183E+03  3.23976E+04 -3.00547E+04  3.32576E+04 -6.00474E+04  2.21613E+03 -5.44568E+04 -4.03521E+04
 -1.19371E+04 -5.97021E+04  3.71699E+04 -4.23732E+04  5.41352E+04 -1.67596E+03  3.06790E+04  2.93608E+04
 -6.74249E+03  3.18747E+04 -2.78562E+04  1.19711E+04 -2.62105E+04 -6.04263E+03 -1.29058E+04 -9.85832E+03
 -6.82010E+03 -1.06580E+04 -1.28504E+03 -1.57066E+04  6.54857E+03 -2.23919E+04  1.44418E+04 -1.38982E+04
  1.22717E+04  3.79787E+03 -5.49753E+03  1.34332E+04 -1.83146E+04 -1.51787E+03 -7.54785E+03 -2.85825E+04
  1.97637E+04 -3.90437E+04  4.35500E+04 -1.84218E+04  4.08098E+04  1.75894E+04  1.32594E+04  4.02147E+04
 -1.50050E+04  2.99996E+04 -2.23843E+04  1.01854E+03 -7.05328E+03 -2.59292E+04  2.00100E+04 -3.05241E+04
  3.65603E+04 -6.43117E+03  2.95396E+04  2.21934E+04  1.38920E+04  4.09369E+04 -7.24881E+03  4.27465E+04
 -2.67761E+04  2.82731E+04 -3.50479E+04  7.79052E+03 -3.66379E+04 -1.36517E+04 -2.00357E+04 -3.27132E+04
  6.86469E+03 -3.27824E+04  2.81103E+04 -1.18686E+04  2.57224E+04  1.09361E+04  2.50971E+03  1.63256E+04
 -1.30769E+04  6.44988E+03 -8.98779E+03 -7.73959E+03  5.98791E+03 -9.82339E+03  1.71652E+04  6.60715E+03
  1.18382E+04  2.17754E+04 -7.11860E+03  2.28963E+04 -2.11702E+04  8.12744E+03 -2.34583E+04 -7.33642E+03
 -1.46701E+04 -1.60315E+04 -4.92550E+03 -1.56842E+04  3.57055E+03 -1.26296E+04  1.09731E+04 -1.26287E+04
  1.91706E+04 -1.11402E+04  2.62014E+04  6.86448E+02  2.01704E+04  1.48012E+04  4.26000E+03  3.06062E+04
 -1.55039E+04  2.62021E+04 -2.48477E+04  8.55965E+03 -1.91058E+04 -1.04007E+04 -3.84547E+03 -1.43106E+04
  2.68001E+03 -4.43218E+03 -1.88943E+03  4.45025E+03 -1.17977E+04  5.22003E+03 -1.24855E+04 -4.40514E+03
 -7.90835E+03 -1.37793E+04  4.21113E+03 -1.72144E+04  1.16395E+04 -1.31955E+04  1.26365E+04 -1.29956E+03
  8.10773E+03  9.66914E+03 -9.28050E+02  1.42367E+04 -9.16590E+03  7.93229E+03 -1.41210E+04 -2.67004E+03
 -1.05152E+04 -1.28923E+04 -1.56525E+03 -1.71909E+04  7.76049E+03 -1.42501E+04  1.49336E+04 -6.72463E+03
  1.35586E+04  1.13449E+03  9.25695E+03  3.56273E+03  4.67637E+03 -1.90375E+01  6.75201E+03 -1.20991E+03
  1.20816E+04  2.40808E+03  1.23847E+04  1.20559E+04  7.63356E+03  2.27053E+04 -3.39730E+03  2.31770E+04
 -1.44909E+04  1.76459E+04 -2.08353E+04  8.17554E+03 -2.13900E+04 -1.60819E+03 -1.90219E+04 -1.23309E+04
 -9.50812E+03 -1.79421E+04  5.61424E+03 -1.70017E+04  1.39940E+04 -1.01842E+04  1.41004E+04  3.03025E+03
  5.96535E+03  9.77807E+03 -6.14356E+03  9.62065E+03 -1.20451E+04  2.55313E+03 -9.33413E+03 -6.81604E+03
 -2.71250E+02 -1.13607E+04  5.77843E+03 -8.86874E+03  7.47279E+03 -6.27721E+02  1.43200E+03  4.22515E+03
 -4.85733E+03  8.70014E+02 -2.26111E+03 -4.62523E+03  1.31151E+03 -8.86223E+03  6.76400E+03 -8.53061E+03
  1.04665E+04 -3.90421E+03  9.77026E+03  3.12677E+03  8.84963E+03  7.97405E+03  4.27843E+03  1.16116E+04
 -1.07848E+03  1.35567E+04 -8.03435E+03  8.86294E+03 -9.94792E+03  3.12407E+03 -7.22889E+03 -1.27321E+03
 -3.66926E+03 -2.24229E+03 -8.38215E+02  1.95699E+03 -1.97853E+03  1.42552E+03 -3.18247E+03  3.34936E+03
 -7.42698E+03 -6.21293E+02 -8.24617E+03 -6.32755E+03 -3.38179E+03 -1.04404E+04  3.15725E+03 -7.30974E+03
  6.40790E+03 -3.03503E+03  4.81716E+03  1.97967E+03  1.09239E+03  2.57908E+03 -3.08514E+03 -3.61927E+02
 -3.11647E+03 -4.94847E+03 -1.08977E+03 -6.14448E+03  3.17276E+03 -7.18022E+03  8.28738E+03 -2.79952E+03
  9.75218E+03  4.70183E+02  7.95418E+03  4.78251E+03  1.96785E+03  7.38100E+03 -4.55400E+03  7.32600E+03
 -5.95854E+03  2.42983E+03 -3.53490E+03 -1.25901E+03  1.68766E+03 -1.91823E+03  4.17582E+03 -8.07312E+02
  4.10459E+03  2.56980E+03  8.18339E+02  5.85397E+03 -3.83117E+03  5.85258E+03 -7.35473E+03  8.77999E+02
 -4.28427E+03 -2.44007E+03  3.24670E+02 -6.50713E+03  3.06208E+03 -2.93860E+03  2.35090E+03  2.29028E+02
  7.88303E+01  2.59482E+03 -3.61762E+03  4.06796E+03 -3.87428E+03  1.82037E+03 -3.12166E+03 -4.72272E+02
 -2.02751E+03 -4.90717E+03  1.35042E+03 -5.68852E+03  4.20403E+03 -3.85185E+03  5.39594E+03  4.36391E+02
  3.67755E+03  4.08282E+03  1.78839E+02  6.11437E+03 -4.13703E+03  3.49809E+03 -4.12308E+03  1.81959E+02
 -5.22841E+03 -4.84088E+03 -1.68349E+03 -4.50545E+03  2.25120E+03 -4.18892E+03  1.95819E+03 -2.58860E+03
  2.56685E+03 -5.31665E+01  3.51806E+02  1.40462E+03  4.44438E+02  5.34140E+02 -5.23671E+02 -9.05475E+02
  2.92294E+03 -1.88786E+02  3.51414E+03  5.23440E+02  4.29114E+03  2.66213E+03  4.33815E+03  5.05612E+03
 -1.08587E+03  6.85358E+03 -6.56819E+03  5.17146E+03 -8.50603E+03  8.38039E+02 -6.48523E+03 -2.06515E+03
 -3.16784E+03 -5.42318E+03 -5.17644E+01 -4.00497E+03  1.69322E+03 -1.33324E+03  1.05059E+03 -1.91097E+03
  9.83917E+02 -1.13192E+03  2.13234E+03 -2.29782E+03  3.66635E+03 -1.26679E+03  3.17756E+03  6.87216E+02
  3.94046E+03  1.13143E+03  9.54383E+02  2.81020E+03 -1.33364E+03  2.13671E+03 -4.51476E+03  1.10154E+03
 -4.15091E+03 -1.04099E+03 -8.42309E+02 -2.66045E+03  1.22834E+02 -3.90116E+03  2.39195E+03 -3.83056E+03
  3.81617E+03 -2.67267E+03  5.20573E+03 -5.10021E+02  4.11705E+03  3.25080E+03  5.47074E+02  5.03005E+03
 -2.04594E+03  4.86564E+03 -2.38504E+03  1.48834E+03 -1.62145E+03 -1.47626E+03  8.34683E+01 -1.52666E+02
 -2.78929E+02  7.25166E+02 -1.44228E+03  1.79981E+03 -2.28527E+03  9.91890E+02 -3.67033E+03 -1.66744E+02
 -1.00364E+03 -4.02338E+03  7.19192E+02 -4.38102E+03  2.22646E+03 -3.91501E+03  2.96161E+03 -9.82447E+02
  3.13381E+03  1.84367E+03  1.47161E+03  1.93280E+03 -5.31165E+02  3.53641E+03 -2.43242E+03  2.40486E+03
 -2.70915E+03  8.77378E+02 -2.35021E+03 -1.98736E+03  3.93127E+01 -2.17610E+03  1.57633E+03 -1.87837E+03
  2.16844E+03 -1.29464E+03  1.43117E+03  4.26867E+02  1.51724E+02  1.27054E+03  1.08473E+03  5.08709E+02
  1.94335E+03  1.52434E+02  8.24168E+02  6.60536E+01  1.07456E+03  2.05931E+03  1.33517E+03  1.27457E+03
 -8.91272E+02  2.57432E+03 -1.90352E+03  3.48511E+03 -1.70591E+03  1.10695E+03 -3.33138E+03 -6.34046E+01
 -1.44585E+03 -2.41999E+03  5.26050E+01 -3.98819E+03  1.30541E+03 -1.54398E+03  2.21043E+03 -9.40130E+02
  1.92264E+03  1.74169E+03  2.54592E+02  1.98762E+03 -6.03314E+01  1.26458E+03 -5.75820E+02 -2.03801E+02
  4.68704E+01 -1.29774E+03  1.07877E+03 -6.76649E+02  6.01171E+02 -7.61085E+02  1.01385E+03  6.72154E+02
  3.98563E+02  5.03623E+02  6.94486E+02 -7.51246E+02 -5.08253E+02  3.63808E+02  1.85313E+03  3.20955E+02
 -3.58017E+02  7.18267E+01  1.16162E+03  4.80021E+02  4.20793E+02  1.68127E+03 -7.03987E+01  2.30155E+03
 -1.44173E+03  7.51912E+02 -8.77239E+02 -1.60455E+02 -1.91407E+03 -6.89098E+02  2.91283E+02 -5.19725E+02
 -7.75080E+01 -9.42581E+02  6.34415E+02 -6.29747E+02  2.81972E+02  1.33603E+03 -1.30861E+03  6.31965E+02
 -7.92526E+02  7.04022E+02 -7.66097E+02 -1.46727E+03 -3.76349E+02 -1.98383E+03 -1.79425E+01 -1.38895E+03
 -7.87196E+01 -4.74655E+01  2.17129E+02  1.16882E+02  1.13802E+03 -3.17591E+01 -1.60685E+02  6.98867E+02
 -1.15270E+02  3.53555E+01 -9.06196E+02 -1.06171E+01  3.15809E+02 -1.00970E+03  1.93659E+03 -1.08496E+03
  1.29774E+03  6.70639E+02  2.56643E+03  1.01193E+03  1.39969E+03  1.38310E+03  3.33937E+02  1.22681E+03
 -9.62095E+02  7.93232E+01 -1.83969E+03 -5.21585E+01 -2.70392E+02 -1.17045E+03  1.37089E+02 -4.47641E+01
  1.44118E+03 -3.03069E+02  7.00423E+02  9.25714E+02  7.29952E+01  1.64913E+03 -1.07335E+02  8.45538E+02
 -2.29751E+02  1.07825E+03 -6.14021E+02 -8.25670E+01 -6.91275E+01  6.53173E+02 -4.95933E+02  9.57269E+02
 -8.95150E+02  7.09561E+02 -1.47277E+03  2.06179E+02 -7.97706E+02 -1.42790E+02 -2.01420E+03 -7.85326E+02
 -9.11734E+02 -1.81232E+03  1.26177E+02 -2.26616E+03  6.39624E+02 -1.61261E+03  2.41177E+03 -7.59569E+02
  1.90648E+03 -3.19079E+02  9.09501E+02  8.47708E+02 -7.07137E+02  9.87876E+02 -7.44160E+02  1.15037E+03
 -4.20327E+02  6.14958E+02 -3.50919E+02  1.02820E+02 -5.13267E+02  8.60869E+02 -3.96208E+02  4.87238E+02
 -1.30213E+03 -8.70180E+01 -8.14111E+02  7.91258E+02 -1.18676E+02 -3.89789E+02 -3.44203E+02 -8.96719E+02
  7.42098E+02 -5.75617E+02  6.05975E+02  8.44768E+01  6.77104E+02  8.71976E+02 -7.55854E+02  7.43993E+02
 -9.59646E+02  1.64129E+03 -1.01216E+03  9.79070E+02 -1.90697E+03 -4.10909E+02 -7.09524E+02 -2.28857E+02
 -6.38853E+02 -4.91317E+02  3.33026E+02 -1.09585E+03  5.74722E+02 -4.12798E+02  2.06214E+02  1.41233E+02
  4.88385E+02 -1.27897E+02 -1.37715E+02  1.35874E+02 -6.89903E+02 -2.95636E+02 -4.79043E+02 -5.78571E+02
  2.56318E+02  5.39585E+02  8.55788E+01  6.62609E+02  3.67256E+01  3.19870E+02  3.99537E+02  3.99497E+02
 -3.75973E+02 -2.32963E+02 -3.93746E+02  3.13640E+02 -7.15792E+02 -6.07636E+02 -1.68884E+01 -7.15585E+02
  6.94960E+02 -5.38011E+02  3.29430E+02 -2.22305E+02  7.85301E+02 -3.94673E+02  5.69091E+02  1.14789E+03
  9.70584E+01 -2.22406E+02 -6.02207E+02  4.15598E+02  3.04509E+02  1.07760E+03 -3.94879E+02 -2.96048E+02
  1.29745E+02  2.10240E+02  1.48395E+02 -1.21018E+02 -4.02098E+02  7.74806E+02 -1.11414E+03 -3.52603E+02
 -1.06804E+03  5.67017E+02 -5.74568E+02 -1.11849E+03  6.22479E+02 -1.83341E+03  3.43524E+02  8.56865E+01
  7.24916E+02 -1.08884E+02 -1.43675E+02 -1.21101E+02  4.27503E+02  3.99793E+02 -2.88423E+02  5.52136E+02
