 $NMID ID='MM_0lb_SNR400_16hz_g40_5.RAW', FMTDAT='(8E13.5)'
 TRAMP=1., VOLUME=1. $END
  3.09899E+05  7.51271E+02  3.37462E+05  2.50849E+05  8.47850E+04  3.37558E+05 -1.32876E+05  2.49918E+05
 -1.89142E+05  8.22274E+04 -1.11199E+05 -3.25324E+04  1.43590E+03 -5.01486E+04  5.38702E+04 -2.77981E+02
  3.54790E+04  5.20097E+04 -1.71161E+04  7.46098E+04 -6.02050E+04  6.28376E+04 -8.31047E+04  3.14870E+04
 -8.03460E+04 -1.11573E+04 -5.64884E+04 -5.06328E+04 -1.48874E+04 -6.90609E+04  2.74799E+04 -4.49737E+04
  3.96148E+04  4.07219E+03  1.55182E+04  4.68032E+04 -3.39256E+04  4.63160E+04 -6.60203E+04 -7.45750E+02
 -5.25508E+04 -5.63516E+04 -6.65009E+03 -7.53175E+04  3.35239E+04 -5.40831E+04  4.69095E+04 -1.69147E+04
  4.22346E+04  1.05204E+04  3.06012E+04  2.42827E+04  1.52914E+04  2.91025E+04 -4.62851E+03  2.61943E+04
 -2.19663E+04  1.27107E+04 -1.87663E+04 -4.33424E+03  4.78832E+03 -7.63844E+03  2.16456E+04  1.16052E+04
  7.57270E+03  3.46557E+04 -3.10494E+04  3.40377E+04 -6.17974E+04  1.97099E+03 -5.55716E+04 -4.21524E+04
 -1.24605E+04 -6.16287E+04  3.86884E+04 -4.42099E+04  5.59852E+04 -1.72675E+03  3.28040E+04  3.06368E+04
 -6.71700E+03  3.42118E+04 -2.89795E+04  1.35771E+04 -2.85976E+04 -5.42864E+03 -1.55055E+04 -1.09660E+04
 -8.75505E+03 -1.19253E+04 -1.02957E+03 -1.68233E+04  6.78236E+03 -2.27505E+04  1.49284E+04 -1.36000E+04
  1.18996E+04  4.28748E+03 -7.16964E+03  1.25161E+04 -1.98270E+04 -3.87248E+03 -8.19826E+03 -3.13806E+04
  2.16709E+04 -4.09694E+04  4.58019E+04 -1.91808E+04  4.25904E+04  1.85992E+04  1.46804E+04  4.24033E+04
 -1.55749E+04  3.22699E+04 -2.43596E+04  1.26906E+03 -9.22817E+03 -2.69218E+04  2.07943E+04 -3.16323E+04
  3.89019E+04 -8.00420E+03  3.27723E+04  2.30795E+04  1.61802E+04  4.36794E+04 -7.91838E+03  4.67934E+04
 -2.93809E+04  3.08757E+04 -3.87310E+04  8.46841E+03 -3.98894E+04 -1.55878E+04 -2.24257E+04 -3.56329E+04
  6.72808E+03 -3.48728E+04  2.98393E+04 -1.36314E+04  2.72520E+04  1.11026E+04  3.54151E+03  1.84329E+04
 -1.35582E+04  7.49755E+03 -9.86065E+03 -7.66180E+03  6.31174E+03 -1.04845E+04  1.77225E+04  6.34157E+03
  1.28247E+04  2.21225E+04 -6.33365E+03  2.41933E+04 -2.19679E+04  9.99166E+03 -2.61301E+04 -6.14136E+03
 -1.80681E+04 -1.68097E+04 -6.49849E+03 -1.80616E+04  3.67179E+03 -1.65722E+04  1.36273E+04 -1.59836E+04
  2.27630E+04 -1.27897E+04  2.91667E+04  1.87333E+03  2.24516E+04  1.76263E+04  4.18022E+03  3.37343E+04
 -1.68323E+04  2.84541E+04 -2.64584E+04  9.65599E+03 -1.93122E+04 -1.03659E+04 -4.73423E+03 -1.32582E+04
  2.46963E+03 -3.79240E+03 -4.06705E+03  5.73460E+03 -1.40095E+04  5.18950E+03 -1.38452E+04 -5.79034E+03
 -9.19853E+03 -1.70895E+04  5.03011E+03 -2.08970E+04  1.28743E+04 -1.47954E+04  1.59471E+04 -1.69866E+03
  9.78681E+03  1.13757E+04 -8.77449E+02  1.66796E+04 -1.10541E+04  9.33780E+03 -1.67238E+04 -3.29971E+03
 -1.24923E+04 -1.50969E+04 -1.49644E+03 -2.08753E+04  9.83475E+03 -1.66636E+04  1.69403E+04 -7.91406E+03
  1.63054E+04  4.31429E+02  1.10505E+04  4.26943E+03  6.16229E+03  2.52268E+02  8.88640E+03 -1.32107E+03
  1.49915E+04  2.23845E+03  1.66182E+04  1.35480E+04  1.03466E+04  2.60293E+04 -3.41234E+03  2.92712E+04
 -1.70886E+04  2.26617E+04 -2.66961E+04  1.11930E+04 -2.80700E+04 -1.69830E+03 -2.36437E+04 -1.57707E+04
 -1.08016E+04 -2.31749E+04  7.55756E+03 -2.17345E+04  1.80637E+04 -1.14374E+04  1.73298E+04  4.38049E+03
  6.63891E+03  1.22516E+04 -7.55296E+03  1.16603E+04 -1.49628E+04  2.65719E+03 -1.10918E+04 -8.55245E+03
 -1.74931E+02 -1.35227E+04  7.02783E+03 -1.07799E+04  8.89750E+03 -1.23499E+03  1.63163E+03  5.34043E+03
 -6.47253E+03  1.92890E+03 -4.34142E+03 -5.14581E+03 -4.06273E+01 -1.12490E+04  8.01747E+03 -1.15821E+04
  1.38008E+04 -5.45650E+03  1.36128E+04  2.42632E+03  1.22730E+04  1.10638E+04  5.97013E+03  1.68808E+04
 -2.42921E+03  1.81769E+04 -1.15169E+04  1.08857E+04 -1.31211E+04  3.45152E+03 -9.40107E+03 -2.43794E+03
 -5.31082E+03 -4.40976E+03 -9.42579E+02  1.51616E+03 -2.75209E+03  2.30698E+03 -4.42024E+03  3.83096E+03
 -8.38883E+03 -1.03236E+02 -9.46059E+03 -8.06136E+03 -3.85054E+03 -1.29725E+04  3.48690E+03 -9.49289E+03
  8.71668E+03 -3.88475E+03  5.64362E+03  2.50696E+03  1.09616E+02  3.58179E+03 -4.36691E+03 -3.85033E+02
 -4.06128E+03 -5.65118E+03 -1.02277E+03 -8.63335E+03  4.98522E+03 -9.98773E+03  1.12637E+04 -5.15586E+03
  1.37250E+04  1.33229E+03  1.03936E+04  7.56375E+03  2.08301E+03  1.06665E+04 -6.29908E+03  9.09379E+03
 -8.24808E+03  3.69338E+03 -3.91189E+03 -1.70979E+03  1.39077E+03 -2.41790E+03  5.65877E+03 -1.50034E+03
  4.84714E+03  4.21151E+03  1.47951E+03  7.23883E+03 -5.00814E+03  6.99741E+03 -8.64353E+03  1.36751E+03
 -5.77351E+03 -4.46440E+03 -8.09168E+01 -8.08569E+03  4.17934E+03 -3.75773E+03  4.90505E+03  1.38516E+03
  4.55410E+02  3.95552E+03 -4.93879E+03  5.45667E+03 -6.33743E+03  2.76227E+03 -5.95809E+03 -1.75161E+03
 -3.63293E+03 -7.28045E+03  1.34761E+03 -8.25472E+03  7.32655E+03 -5.41993E+03  7.39142E+03  1.41071E+03
  5.76480E+03  6.74438E+03 -7.18562E+02  8.48929E+03 -5.86640E+03  4.94675E+03 -6.05784E+03 -4.86994E+02
 -6.84929E+03 -5.94059E+03 -1.44376E+03 -5.98500E+03  3.28752E+03 -5.43904E+03  3.80391E+03 -2.99850E+03
  2.94771E+03  4.60095E+02  2.04396E+01  1.44057E+03 -1.02036E+02 -6.87644E+02  6.73266E+02 -2.63418E+03
  4.71063E+03 -1.01416E+03  7.07441E+03  6.15767E+02  7.10429E+03  3.95032E+03  5.77711E+03  8.55500E+03
 -1.50577E+03  1.05684E+04 -9.35283E+03  7.85606E+03 -1.28048E+04  1.58389E+03 -9.88290E+03 -3.18546E+03
 -4.91055E+03 -8.43210E+03 -7.76450E+02 -6.08801E+03  2.62851E+03 -3.45912E+03  2.00956E+03 -2.75055E+03
  1.28343E+03 -1.94464E+03  1.83234E+03 -2.75377E+03  3.77307E+03 -1.54789E+03  4.27116E+03 -1.24265E+02
  5.61356E+03  1.53864E+03  1.83951E+03  4.57960E+03 -1.69183E+03  3.73288E+03 -5.72720E+03  3.63434E+03
 -6.97856E+03 -5.60155E+02 -3.55594E+03 -4.23533E+03  6.14479E+01 -6.41875E+03  4.06754E+03 -7.20679E+03
  6.86281E+03 -3.98997E+03  8.21019E+03  4.05112E+02  6.63284E+03  5.74532E+03  1.69883E+03  7.57457E+03
 -2.96447E+03  7.24685E+03 -4.10061E+03  2.23612E+03 -2.73080E+03 -1.43910E+03 -7.56817E+02 -8.52019E+02
 -5.36823E+02  3.56234E+01 -1.11537E+03  2.49223E+03 -3.13948E+03  1.10029E+03 -5.06828E+03 -9.03327E+02
 -2.49498E+03 -4.50728E+03  3.38994E+02 -6.18153E+03  3.70009E+03 -6.09663E+03  5.26550E+03 -2.04742E+03
  5.55178E+03  2.76530E+03  2.86682E+03  4.37658E+03 -6.24144E+02  5.92473E+03 -4.40602E+03  3.82530E+03
 -4.80420E+03  6.90474E+02 -4.73361E+03 -3.07222E+03 -3.40317E+02 -4.55688E+03  2.88742E+03 -3.47239E+03
  3.75752E+03 -1.96023E+03  3.08778E+03  5.50276E+02  1.41768E+03  1.84101E+03  9.70791E+02  9.58020E+02
  1.82885E+03  4.22265E+02  1.27959E+03  1.19115E+03  1.59583E+03  2.51285E+03  2.30945E+03  2.99946E+03
 -1.54312E+03  4.49959E+03 -4.05425E+03  5.06227E+03 -4.31748E+03  1.79457E+03 -6.12890E+03 -1.01816E+03
 -2.91138E+03 -5.14797E+03  6.11586E+02 -6.34934E+03  2.55576E+03 -3.35530E+03  4.18383E+03 -9.45576E+02
  3.49969E+03  2.39756E+03  3.86509E+02  2.85118E+03 -1.04470E+03  1.96269E+03 -1.56415E+03  4.03714E+02
 -8.85901E+02 -2.21818E+03  1.35407E+03 -2.01239E+03  2.09638E+03 -1.69503E+03  1.89703E+03  2.72315E+02
  1.33560E+03  3.38907E+02  1.30557E+03  4.56690E+02  8.70476E+01  7.25032E+02  1.81933E+03  3.24858E+02
  2.73027E+02 -4.48780E+02  2.19718E+03  8.21177E+02  1.37846E+03  3.50394E+03 -3.80257E+02  3.94895E+03
 -2.60247E+03  1.84070E+03 -2.89403E+03 -3.18562E+01 -2.71136E+03 -1.15890E+03 -6.45320E+02 -2.17700E+03
  6.02440E+02 -2.11431E+03  1.49761E+03 -9.85214E+02  1.04779E+03  1.40137E+03 -7.65284E+02  1.29469E+03
 -2.43930E+03  1.03157E+03 -2.37510E+03 -1.28492E+03 -8.33327E+02 -3.76013E+03  3.20909E+02 -2.38779E+03
  1.26068E+03 -1.01371E+03  1.19252E+03  3.52304E+02  2.33014E+03  4.17906E+02  6.18411E+01  2.10328E+03
 -9.01689E+02  7.82833E+02 -1.13449E+03 -8.49306E+02  6.53775E+02 -1.57106E+03  2.59763E+03 -1.15669E+03
  2.42811E+03  1.35040E+02  3.76070E+03  1.07813E+03  1.32172E+03  3.06726E+03 -1.22161E+03  2.83062E+03
 -2.34996E+03  6.73324E+02 -2.17524E+03  1.91479E+02 -9.22854E+02 -1.75986E+03  5.20001E+02 -1.55171E+03
  2.13290E+03 -3.90494E+02  1.50323E+03  8.70710E+02 -1.01567E+02  1.40266E+03  1.13283E+02  1.20938E+03
 -9.79196E+02  1.35136E+03 -9.84126E+02 -4.72387E+02  1.52361E+02  5.22524E+02 -1.45799E+03  6.72888E+02
 -1.16115E+03  2.02921E+03 -2.08516E+03  1.01754E+03 -3.66960E+03  2.14656E+02 -3.36410E+03 -1.55296E+03
 -1.95531E+03 -3.41083E+03  4.55279E+02 -4.22366E+03  1.61438E+03 -3.55191E+03  3.89520E+03 -1.41574E+03
  3.44521E+03  4.78077E+02  1.80520E+03  2.16345E+03 -8.79222E+02  2.05965E+03 -8.80524E+02  2.22126E+03
 -1.61227E+03  5.39006E+02 -9.00407E+02 -1.32748E+02 -6.51038E+02  1.51583E+02 -1.38689E+03 -1.39122E+02
 -1.12200E+03 -5.77202E+02 -1.35170E+03  6.12230E+02  8.20392E+01 -9.48070E+02  2.00155E+02 -1.60645E+03
  1.88572E+03 -4.89563E+02  6.78615E+02 -1.11344E+02  2.06845E+03  2.16467E+03  7.44280E+01  2.51880E+03
 -1.32730E+03  3.24405E+03 -3.07584E+03  1.83210E+03 -2.88580E+03 -4.73531E+02 -1.47823E+03 -2.61668E+03
 -9.66550E+02 -2.27127E+03  2.05313E+02 -1.87702E+03  1.51675E+03 -9.15216E+02  1.54864E+03  1.11310E+02
  1.12581E+03  8.10024E+02 -6.56327E+01  1.18897E+03 -1.38571E+03 -7.96141E+01  1.50718E+02 -4.65008E+02
  8.48220E+02  2.53336E+01  1.09260E+03  1.17852E+03  1.18421E+02  7.20765E+02  3.85642E+02  4.66873E+02
 -6.98360E+02  1.06629E+03 -1.63165E+03 -1.96355E+02 -1.29161E+03 -7.72928E+02  3.10550E+02 -1.56148E+03
  8.16321E+02 -1.75765E+03  1.53824E+03 -4.18319E+02  1.80087E+03 -5.92218E+02  1.14603E+03  1.42160E+03
  5.64539E+02  1.38024E+03 -3.39467E+02  1.26584E+03 -1.35272E+03  1.47486E+03 -1.21360E+03 -1.03113E+02
 -4.89537E+02 -1.34350E+02 -8.14560E+02 -3.94668E+02 -6.97364E+02 -3.47439E+02 -1.71613E+03 -8.14297E+02
 -1.61426E+03 -5.34799E+02 -4.81177E+02 -2.02323E+03  1.02455E+03 -2.27224E+03  7.70039E+02 -6.98459E+02
  1.57103E+03 -2.05850E+02  1.67048E+02  5.16599E+02 -5.92930E+02  1.53516E+03 -4.25650E+02  4.72720E+02
