 $NMID ID='MM_0lb_SNR400_15hz_g45_31.RAW', FMTDAT='(8E13.5)'
 TRAMP=1., VOLUME=1. $END
  3.09542E+05 -1.05840E+02  3.37503E+05  2.50606E+05  8.45854E+04  3.37959E+05 -1.32561E+05  2.51206E+05
 -1.90582E+05  8.27593E+04 -1.11645E+05 -3.27762E+04  9.51408E+02 -4.99720E+04  5.38902E+04  2.82254E+02
  3.54317E+04  5.29520E+04 -1.68019E+04  7.53514E+04 -6.04638E+04  6.30282E+04 -8.38519E+04  3.21378E+04
 -8.05268E+04 -1.13823E+04 -5.63401E+04 -5.08713E+04 -1.53045E+04 -6.87465E+04  2.64287E+04 -4.52144E+04
  3.97856E+04  4.30632E+03  1.58363E+04  4.71808E+04 -3.41274E+04  4.74490E+04 -6.59474E+04 -3.86167E+01
 -5.33065E+04 -5.65498E+04 -6.57003E+03 -7.62036E+04  3.31434E+04 -5.41435E+04  4.76100E+04 -1.70114E+04
  4.29240E+04  1.08900E+04  3.12980E+04  2.46923E+04  1.57077E+04  2.91473E+04 -5.01488E+03  2.71634E+04
 -2.17012E+04  1.22553E+04 -1.85815E+04 -4.20881E+03  5.66978E+03 -7.45772E+03  2.26049E+04  1.20735E+04
  7.48664E+03  3.38882E+04 -3.09741E+04  3.50352E+04 -6.25794E+04  1.61760E+03 -5.65155E+04 -4.19811E+04
 -1.23626E+04 -6.31876E+04  3.86024E+04 -4.42033E+04  5.73587E+04 -1.75618E+03  3.36204E+04  3.18779E+04
 -5.56994E+03  3.48019E+04 -2.90169E+04  1.49714E+04 -2.95065E+04 -5.21511E+03 -1.63894E+04 -1.04667E+04
 -7.80757E+03 -1.29222E+04 -7.87842E+02 -1.73782E+04  7.26266E+03 -2.22717E+04  1.48276E+04 -1.31029E+04
  1.19947E+04  5.09472E+03 -7.47078E+03  1.26267E+04 -2.04036E+04 -4.47324E+03 -7.90089E+03 -3.32032E+04
  2.20280E+04 -4.30439E+04  4.71148E+04 -1.92341E+04  4.45050E+04  1.90214E+04  1.52233E+04  4.37336E+04
 -1.62166E+04  3.28400E+04 -2.43267E+04  1.22551E+03 -9.43109E+03 -2.71151E+04  2.07059E+04 -3.29517E+04
  4.01030E+04 -8.50252E+03  3.41764E+04  2.32920E+04  1.74161E+04  4.57080E+04 -7.53521E+03  4.85215E+04
 -3.04973E+04  3.26180E+04 -4.08796E+04  9.31197E+03 -4.08063E+04 -1.65535E+04 -2.23984E+04 -3.67014E+04
  7.60221E+03 -3.66552E+04  3.08369E+04 -1.41399E+04  2.84168E+04  1.09279E+04  3.75020E+03  1.84827E+04
 -1.35374E+04  7.56331E+03 -1.02545E+04 -7.35590E+03  6.23154E+03 -1.03843E+04  1.73605E+04  5.34734E+03
  1.26237E+04  2.19302E+04 -6.37218E+03  2.44840E+04 -2.15765E+04  1.11611E+04 -2.71993E+04 -5.21252E+03
 -1.96692E+04 -1.68135E+04 -7.43530E+03 -1.91966E+04  4.26861E+03 -1.76042E+04  1.45656E+04 -1.67706E+04
  2.43597E+04 -1.25691E+04  3.11582E+04  2.44045E+03  2.26611E+04  1.90850E+04  3.85665E+03  3.48852E+04
 -1.74986E+04  2.92883E+04 -2.71734E+04  9.84965E+03 -2.03051E+04 -1.04673E+04 -4.07452E+03 -1.40046E+04
  2.05551E+03 -2.70872E+03 -3.99691E+03  6.22161E+03 -1.48673E+04  5.68232E+03 -1.55784E+04 -6.59994E+03
 -9.65699E+03 -1.77645E+04  4.44760E+03 -2.19723E+04  1.42945E+04 -1.57575E+04  1.70376E+04 -1.57598E+03
  1.07296E+04  1.26429E+04 -1.19971E+03  1.84268E+04 -1.22421E+04  9.97606E+03 -1.82551E+04 -3.81070E+03
 -1.24513E+04 -1.56427E+04 -2.31490E+03 -2.20397E+04  9.38486E+03 -1.79584E+04  1.76735E+04 -8.31137E+03
  1.73095E+04  5.48401E+02  1.22004E+04  3.86911E+03  6.25646E+03  9.31464E+02  9.10913E+03 -1.82084E+03
  1.64835E+04  2.91168E+03  1.82319E+04  1.48790E+04  1.15502E+04  2.80941E+04 -2.73198E+03  3.13224E+04
 -1.88168E+04  2.53191E+04 -2.93436E+04  1.22596E+04 -3.05209E+04 -2.56556E+03 -2.59820E+04 -1.72858E+04
 -1.19832E+04 -2.53321E+04  9.05046E+03 -2.28661E+04  1.95249E+04 -1.20721E+04  1.82544E+04  5.18584E+03
  6.90062E+03  1.31542E+04 -8.82213E+03  1.26062E+04 -1.51906E+04  2.72094E+03 -1.12483E+04 -9.92155E+03
 -3.54025E+02 -1.46821E+04  7.35702E+03 -1.10840E+04  8.94353E+03 -1.45068E+03  2.25341E+03  6.26703E+03
 -6.05751E+03  2.74816E+03 -5.76919E+03 -5.07061E+03  4.45538E+01 -1.29823E+04  9.14618E+03 -1.31740E+04
  1.52896E+04 -6.99405E+03  1.64553E+04  4.04765E+03  1.45874E+04  1.23317E+04  6.55128E+03  1.85403E+04
 -2.76082E+03  2.04776E+04 -1.24024E+04  1.28209E+04 -1.40305E+04  3.68320E+03 -1.06408E+04 -2.81743E+03
 -4.55482E+03 -4.57716E+03 -8.05578E+02  7.54977E+02 -2.53007E+03  2.19004E+03 -4.43066E+03  3.79479E+03
 -9.43001E+03 -7.87244E+02 -1.01463E+04 -8.02695E+03 -4.33478E+03 -1.39042E+04  4.52594E+03 -1.02921E+04
  8.19932E+03 -4.84703E+03  6.54948E+03  3.16072E+03  2.36210E+01  3.75364E+03 -3.97456E+03 -2.13451E+02
 -4.28214E+03 -6.21760E+03 -1.14464E+03 -9.39827E+03  5.30625E+03 -1.05787E+04  1.27136E+04 -5.55135E+03
  1.52724E+04  1.22341E+03  1.11782E+04  8.88962E+03  2.13025E+03  1.15284E+04 -6.89829E+03  9.72852E+03
 -8.20362E+03  3.02041E+03 -3.75214E+03 -1.38934E+03  2.02414E+03 -2.55935E+03  5.51646E+03 -7.14147E+02
  5.40299E+03  4.33899E+03  1.95215E+03  7.92965E+03 -6.03689E+03  8.40573E+03 -1.01872E+04  2.25981E+03
 -6.57430E+03 -5.07404E+03  6.81763E+01 -7.91690E+03  5.73291E+03 -3.48730E+03  5.29186E+03  1.35750E+03
  1.84321E+03  5.12591E+03 -5.60188E+03  6.61014E+03 -7.54867E+03  2.90504E+03 -7.26297E+03 -1.85724E+03
 -3.94536E+03 -8.74938E+03  1.73393E+03 -9.51953E+03  8.67598E+03 -5.95313E+03  9.32800E+03  1.24711E+03
  6.46380E+03  7.40103E+03 -1.31734E+02  9.81247E+03 -6.30704E+03  5.53261E+03 -6.72246E+03 -6.41227E+02
 -7.05201E+03 -6.57003E+03 -1.51020E+03 -7.35653E+03  3.72261E+03 -5.91859E+03  4.33103E+03 -2.50275E+03
  3.79768E+03  7.96945E+02  1.60170E+02  1.52704E+03  8.04269E+02 -2.51248E+02  1.19814E+03 -3.24782E+03
  5.89448E+03 -2.12152E+03  7.94200E+03  7.38797E+02  8.91097E+03  5.08100E+03  6.87305E+03  1.03974E+04
 -2.12623E+03  1.19969E+04 -1.06586E+04  8.97674E+03 -1.38338E+04  1.36173E+03 -1.13834E+04 -3.86914E+03
 -6.46504E+03 -9.28064E+03 -1.58207E+02 -7.49430E+03  2.98186E+03 -3.99794E+03  2.96236E+03 -2.52476E+03
  2.19847E+03 -1.58310E+03  2.77607E+03 -2.97746E+03  4.55680E+03 -2.04545E+03  5.03097E+03 -5.17606E+02
  5.88633E+03  1.60476E+03  2.64816E+03  5.08482E+03 -9.47377E+02  4.57880E+03 -5.96298E+03  4.56100E+03
 -7.54368E+03 -1.25580E+03 -3.78435E+03 -4.67947E+03  4.19674E+02 -7.68224E+03  4.50487E+03 -7.69127E+03
  7.95404E+03 -4.59325E+03  9.86111E+03  9.38638E+02  7.55988E+03  7.02005E+03  1.20064E+03  9.08736E+03
 -3.80014E+03  8.09552E+03 -5.12198E+03  2.80988E+03 -3.37029E+03 -1.32474E+03 -1.12785E+03 -5.86098E+02
 -6.92161E+02  2.77892E+02 -1.18019E+03  1.78155E+03 -2.65183E+03  1.17637E+03 -5.73978E+03 -3.75688E+02
 -2.97154E+03 -5.60963E+03  1.26947E+03 -6.87138E+03  3.97356E+03 -6.47280E+03  7.02111E+03 -1.68981E+03
  5.99571E+03  3.71431E+03  3.06619E+03  5.54573E+03 -1.40729E+03  6.71589E+03 -4.77863E+03  3.94381E+03
 -6.16107E+03  4.54266E+02 -4.70731E+03 -3.83462E+03 -3.71677E+02 -5.35559E+03  2.46952E+03 -4.20162E+03
  4.61583E+03 -1.64755E+03  2.88107E+03  1.26734E+03  1.00656E+03  2.75375E+03  4.14572E+02  1.17978E+03
  2.32674E+03  2.22446E+02  1.59235E+03  1.21872E+03  1.59208E+03  3.19734E+03  1.97314E+03  3.66940E+03
 -1.82573E+03  4.75340E+03 -4.28776E+03  6.10708E+03 -5.70731E+03  1.18911E+03 -6.43416E+03 -2.41350E+03
 -2.93978E+03 -5.86371E+03  8.95380E+02 -7.63274E+03  2.75486E+03 -5.03041E+03  4.97906E+03 -1.21304E+03
  3.95067E+03  2.63062E+03  2.28624E+02  3.48602E+03 -9.77145E+02  2.16822E+03 -1.73456E+03 -8.59358E+01
 -7.63363E+02 -2.53940E+03  1.60561E+03 -2.50019E+03  2.32393E+03 -1.35713E+03  2.33898E+03  9.49913E+02
  1.57328E+03  3.68636E+02  7.05105E+02  2.98679E+02 -3.41337E+01  1.68549E+03  1.39794E+03  3.87669E+01
  5.37903E+02  2.80345E+02  3.07321E+03  9.40291E+02  1.19744E+03  3.28125E+03 -2.86948E+02  4.60196E+03
 -3.27991E+03  1.69004E+03 -3.70658E+03  5.99757E+02 -3.52741E+03 -5.46494E+02 -7.79865E+02 -2.14748E+03
  2.16386E+02 -2.89782E+03  1.73848E+03 -1.32645E+03  1.28918E+03  1.98934E+03 -9.49981E+02  1.37469E+03
 -2.60646E+03  4.77548E+02 -2.98430E+03 -1.76346E+03 -1.46286E+03 -3.30129E+03  7.02807E+02 -3.00398E+03
  2.13950E+03 -2.67568E+03  2.02859E+03 -4.59447E+02  2.21661E+03  5.10419E+02  1.88684E+02  2.23851E+03
 -7.86555E+02 -1.25888E+02 -1.33137E+03 -1.23721E+03  7.27897E+02 -2.00947E+03  2.87917E+03 -1.59012E+03
  2.93170E+03  7.60584E+02  3.87538E+03  2.17118E+03  2.18370E+03  2.81850E+03 -1.07332E+03  3.75064E+03
 -3.19985E+03  1.33955E+03 -3.33387E+03 -4.57368E+02 -1.80107E+03 -2.32584E+03  1.86219E+02 -1.65497E+03
  2.47425E+03 -7.48702E+02  1.91899E+03  1.20566E+03 -2.00978E+02  2.23720E+03 -1.24571E+02  1.40868E+03
 -1.06081E+03  1.30478E+03 -2.67920E+02 -1.37713E+02  1.62280E+02  7.12732E+02 -6.72920E+02 -4.18149E+01
 -1.04306E+03  1.86676E+03 -2.66380E+03  8.59948E+02 -3.35436E+03  2.15640E+02 -4.30263E+03 -2.29376E+03
 -2.00020E+03 -4.55012E+03  1.03499E+03 -5.42737E+03  2.60553E+03 -4.09041E+03  4.41356E+03 -2.05135E+03
  4.42964E+03  5.17422E+02  2.46830E+03  3.51091E+03 -3.78177E+02  3.28882E+03 -7.70126E+02  2.92646E+03
 -1.97586E+03  1.38529E+03 -8.58079E+02 -1.03205E+03 -1.06446E+03  1.70326E+01 -5.42524E+02  4.21400E+02
 -1.01185E+03 -1.26341E+02 -1.01275E+03 -7.59781E+01 -1.88867E+02 -1.18538E+03 -3.12135E+02 -1.76924E+03
  1.70405E+03 -1.49794E+03  1.18777E+03 -3.94051E+02  2.26211E+03  1.89961E+03 -2.89929E+02  3.26866E+03
 -1.69912E+03  4.52615E+03 -3.22493E+03  2.19008E+03 -2.87506E+03 -2.19631E+02 -3.04785E+03 -2.59012E+03
 -1.82388E+03 -2.62263E+03  8.65283E+02 -2.60465E+03  1.43929E+03 -1.21462E+03  1.82184E+03  2.06313E+02
  1.68233E+03  8.61316E+02  6.52938E+02  1.24844E+03 -7.92907E+02 -1.11864E+02  3.37987E+02 -2.11000E+02
  1.58817E+03 -4.04349E+02  1.24894E+03  7.86537E+02  2.92281E+02  1.33389E+03  1.64235E+02  7.23784E+02
 -1.37125E+03  1.32426E+03 -1.69756E+03  2.22162E+01 -1.53824E+03 -1.20808E+03 -3.53189E+02 -2.86395E+03
  1.45403E+03 -2.16883E+03  1.81376E+03 -1.86926E+02  2.35767E+03 -6.39180E+02  1.36581E+03  1.67574E+03
  8.53979E+02  1.86069E+03 -5.59855E+02  9.49838E+02 -1.05250E+03  1.07112E+03 -1.36592E+03  4.02772E+02
 -6.42240E+02  2.43230E+02 -7.48694E+02 -1.59984E+02 -1.01593E+03  1.95918E+01 -1.39926E+03 -6.58325E+02
 -1.70762E+03 -7.61637E+02 -5.69642E+02 -1.93277E+03  1.17371E+03 -2.62091E+03  1.68609E+03 -4.85156E+02
  1.97397E+03 -1.12042E+02  3.50453E+02  1.12615E+03 -2.44499E+01  1.95221E+03 -1.35578E+03  1.77489E+03
