 $NMID ID='MM_0lb_SNR400_19hz_g50_30.RAW', FMTDAT='(8E13.5)'
 TRAMP=1., VOLUME=1. $END
  3.10237E+05  3.87711E+02  3.37313E+05  2.50854E+05  8.40208E+04  3.37324E+05 -1.32054E+05  2.50937E+05
 -1.89982E+05  8.27750E+04 -1.11078E+05 -3.26244E+04  1.54720E+03 -5.06929E+04  5.36778E+04 -2.66962E+02
  3.46460E+04  5.27965E+04 -1.72226E+04  7.52557E+04 -5.99789E+04  6.28738E+04 -8.26654E+04  3.15172E+04
 -7.99875E+04 -1.09364E+04 -5.61791E+04 -4.98615E+04 -1.51901E+04 -6.80775E+04  2.69827E+04 -4.45238E+04
  3.87581E+04  3.71153E+03  1.51658E+04  4.74771E+04 -3.45401E+04  4.65939E+04 -6.50956E+04 -2.01605E+02
 -5.23681E+04 -5.58738E+04 -6.65061E+03 -7.52031E+04  3.29983E+04 -5.41239E+04  4.64478E+04 -1.63234E+04
  4.21463E+04  1.12998E+04  3.11706E+04  2.46814E+04  1.54653E+04  2.81540E+04 -4.78651E+03  2.65084E+04
 -2.15849E+04  1.32987E+04 -1.93934E+04 -4.06188E+03  4.53166E+03 -7.38502E+03  2.09849E+04  1.11472E+04
  7.57147E+03  3.35013E+04 -3.09389E+04  3.40313E+04 -6.09613E+04  1.96442E+03 -5.55979E+04 -4.08562E+04
 -1.26145E+04 -6.07117E+04  3.84518E+04 -4.37310E+04  5.61698E+04 -2.35672E+03  3.23724E+04  3.11299E+04
 -6.64296E+03  3.33929E+04 -2.86690E+04  1.31208E+04 -2.83309E+04 -5.29860E+03 -1.48269E+04 -1.05577E+04
 -7.40649E+03 -1.15398E+04 -7.85892E+02 -1.70165E+04  7.19018E+03 -2.28582E+04  1.46639E+04 -1.41502E+04
  1.21284E+04  4.05516E+03 -6.23591E+03  1.29488E+04 -1.94390E+04 -2.76330E+03 -8.40467E+03 -3.07433E+04
  2.16264E+04 -4.04522E+04  4.47295E+04 -1.89294E+04  4.15690E+04  1.82219E+04  1.42403E+04  4.17758E+04
 -1.51753E+04  3.11859E+04 -2.35148E+04  1.11567E+03 -8.80880E+03 -2.64545E+04  2.06500E+04 -3.15781E+04
  3.82421E+04 -7.48655E+03  3.15692E+04  2.26639E+04  1.57071E+04  4.22941E+04 -8.07821E+03  4.46435E+04
 -2.82417E+04  2.99875E+04 -3.76935E+04  8.30801E+03 -3.82958E+04 -1.51418E+04 -2.14661E+04 -3.42048E+04
  6.86692E+03 -3.37939E+04  2.95112E+04 -1.26237E+04  2.69862E+04  1.06973E+04  2.93943E+03  1.77440E+04
 -1.29629E+04  7.64563E+03 -9.65321E+03 -7.89206E+03  5.91449E+03 -1.05921E+04  1.69176E+04  6.34420E+03
  1.17046E+04  2.20006E+04 -7.01373E+03  2.36526E+04 -2.19436E+04  8.99377E+03 -2.52757E+04 -6.36044E+03
 -1.66883E+04 -1.64985E+04 -5.93538E+03 -1.67475E+04  3.25719E+03 -1.43721E+04  1.21317E+04 -1.40041E+04
  2.10687E+04 -1.14044E+04  2.84047E+04  1.41747E+03  2.16152E+04  1.58827E+04  3.86026E+03  3.24319E+04
 -1.59750E+04  2.72110E+04 -2.56954E+04  9.07417E+03 -1.91934E+04 -1.01710E+04 -4.03825E+03 -1.38692E+04
  2.65319E+03 -4.10040E+03 -2.24027E+03  5.30283E+03 -1.32509E+04  5.23485E+03 -1.34423E+04 -5.09010E+03
 -8.82692E+03 -1.53771E+04  4.93569E+03 -2.02481E+04  1.22537E+04 -1.39374E+04  1.45326E+04 -1.49440E+03
  8.93507E+03  1.08069E+04 -1.25558E+03  1.60829E+04 -1.05287E+04  8.90824E+03 -1.53650E+04 -3.01728E+03
 -1.15639E+04 -1.40629E+04 -1.36687E+03 -1.87414E+04  8.90298E+03 -1.49523E+04  1.65493E+04 -8.07417E+03
  1.43216E+04  8.02462E+02  1.01441E+04  3.83676E+03  5.03650E+03  5.09356E+00  7.52916E+03 -1.44824E+03
  1.43308E+04  2.55410E+03  1.50594E+04  1.24032E+04  8.93486E+03  2.44900E+04 -3.38936E+03  2.68319E+04
 -1.53498E+04  2.04696E+04 -2.41513E+04  9.67805E+03 -2.50037E+04 -1.78483E+03 -2.11013E+04 -1.42465E+04
 -1.09478E+04 -2.03534E+04  6.79384E+03 -1.88867E+04  1.62572E+04 -1.11176E+04  1.51931E+04  3.15003E+03
  6.28640E+03  1.12198E+04 -6.75382E+03  1.02906E+04 -1.37873E+04  2.53765E+03 -9.71366E+03 -7.50141E+03
 -5.39809E+01 -1.21722E+04  6.18053E+03 -9.46881E+03  7.21921E+03 -1.59314E+03  1.24695E+03  4.88876E+03
 -5.59322E+03  1.17071E+03 -3.72310E+03 -5.23853E+03  5.53227E+02 -9.58222E+03  7.67922E+03 -1.00554E+04
  1.19515E+04 -4.36178E+03  1.13519E+04  2.85425E+03  1.01678E+04  9.71743E+03  4.67361E+03  1.33574E+04
 -1.36735E+03  1.55923E+04 -9.54360E+03  1.01620E+04 -1.09013E+04  3.33808E+03 -8.07292E+03 -2.03173E+03
 -4.34520E+03 -3.08157E+03 -8.61459E+02  1.50564E+03 -2.36525E+03  1.60543E+03 -3.65362E+03  4.03145E+03
 -7.86297E+03 -3.70627E+02 -8.48623E+03 -7.21275E+03 -3.25467E+03 -1.08712E+04  3.25620E+03 -7.96452E+03
  7.01772E+03 -3.55899E+03  5.47369E+03  2.01593E+03  5.71856E+02  2.89748E+03 -3.78293E+03 -1.24784E+02
 -3.33212E+03 -4.70770E+03 -3.84418E+02 -7.38181E+03  3.37095E+03 -7.69252E+03  9.62696E+03 -4.19972E+03
  1.14570E+04  6.43388E+02  8.44581E+03  5.82880E+03  1.62563E+03  8.48976E+03 -5.05674E+03  8.14751E+03
 -6.79154E+03  2.93944E+03 -3.60861E+03 -1.52847E+03  1.43031E+03 -1.96473E+03  4.46261E+03 -1.07719E+03
  3.71680E+03  3.69586E+03  7.10891E+02  5.78737E+03 -4.42507E+03  6.23466E+03 -7.87281E+03  1.39450E+03
 -4.34556E+03 -3.93924E+03  1.73454E+02 -6.37119E+03  3.97413E+03 -2.91139E+03  3.41762E+03  1.34569E+03
  4.52232E+02  2.64685E+03 -3.59692E+03  4.85113E+03 -4.79661E+03  2.28194E+03 -4.47010E+03 -8.11787E+02
 -2.77877E+03 -5.12134E+03  9.31987E+02 -6.89185E+03  6.08037E+03 -4.12056E+03  6.16651E+03  6.96857E+02
  4.44653E+03  5.15255E+03  1.31358E+02  7.07857E+03 -4.71201E+03  4.35518E+03 -4.94069E+03 -3.10961E+02
 -5.10169E+03 -4.93538E+03 -1.18297E+03 -5.39821E+03  2.17121E+03 -4.43676E+03  3.01632E+03 -3.35243E+03
  2.70181E+03 -2.56738E+02 -9.90697E+00  1.26040E+03  9.24712E+02 -4.90076E+01  2.08505E+02 -1.13858E+03
  3.07479E+03 -9.04457E+02  5.49047E+03  3.62037E+02  5.03301E+03  2.74977E+03  5.04224E+03  7.00344E+03
 -1.08451E+03  8.52904E+03 -7.73311E+03  6.65103E+03 -9.57206E+03  7.39848E+02 -7.17371E+03 -2.02814E+03
 -4.18837E+03 -6.52828E+03  1.28596E+02 -4.42268E+03  2.10060E+03 -2.32343E+03  1.85189E+03 -1.92671E+03
  6.73004E+02 -1.70192E+03  2.19028E+03 -2.19984E+03  3.74996E+03 -6.86518E+02  3.74804E+03  5.97475E+02
  4.35943E+03  1.35837E+03  1.09376E+03  3.51153E+03 -1.47213E+03  2.61645E+03 -4.10365E+03  2.42151E+03
 -4.86990E+03 -1.03018E+03 -1.59469E+03 -3.41915E+03  4.29450E+02 -4.46300E+03  3.56476E+03 -5.80950E+03
  4.68285E+03 -2.78521E+03  6.50854E+03  3.52715E+02  4.56632E+03  3.53194E+03  1.29961E+03  4.97578E+03
 -1.75779E+03  5.58077E+03 -3.34507E+03  1.61447E+03 -1.12157E+03 -1.30002E+03 -4.49507E+02 -5.33227E+02
 -3.76635E+02 -3.08525E+02 -1.43936E+03  2.12646E+03 -1.68981E+03  1.15958E+03 -3.52802E+03  3.99254E+01
 -1.26206E+03 -4.16286E+03  8.93102E+02 -4.21578E+03  2.94275E+03 -4.46527E+03  2.78192E+03 -1.11036E+03
  4.10513E+03  2.60455E+03  1.38456E+03  3.34592E+03 -7.83986E+02  4.38645E+03 -2.30351E+03  2.43280E+03
 -3.33440E+03  1.14520E+03 -3.18294E+03 -1.79985E+03  2.47743E+02 -2.36870E+03  1.94548E+03 -2.21200E+03
  2.82457E+03 -1.24784E+03  2.00522E+03  5.46511E+02  4.50723E+02  1.43268E+03  1.16527E+03  7.92508E+02
  1.65966E+03  9.87330E+02  1.06405E+03  7.35197E+02  1.04234E+03  1.95757E+03  1.35839E+03  1.18950E+03
 -1.15107E+03  3.20287E+03 -2.37451E+03  3.90126E+03 -2.86765E+03  5.66517E+02 -3.34626E+03  3.05808E+02
 -8.03049E+02 -3.71051E+03  8.79084E+02 -4.10903E+03  2.33916E+03 -2.41359E+03  2.92099E+03 -7.66980E+02
  2.69487E+03  2.32627E+03  3.26046E+02  2.26521E+03 -5.39647E+02  8.60397E+02 -5.05144E+02 -2.41712E+02
 -2.41512E+02 -9.59938E+02  1.44117E+03 -1.34122E+03  9.64004E+02 -2.08305E+02  1.86186E+03  1.34096E+02
  5.58648E+02 -3.79639E+02  6.75818E+02 -6.47078E+01 -8.40401E+02  5.35773E+02  1.62066E+03 -8.14942E+02
  1.29618E+02 -4.38982E+01  1.79632E+03  5.83434E+02  2.63979E+02  1.82641E+03 -7.21799E+02  2.74463E+03
 -1.34254E+03  2.61638E+02 -2.12599E+03  4.72324E+02 -2.50937E+03 -9.55657E+02  2.73075E+02 -6.37485E+02
  5.98400E+02 -1.06706E+03  5.01594E+02 -6.67851E+02  7.38196E+02  1.11909E+03 -5.38650E+02  1.30537E+03
 -1.23725E+03  9.24565E+02 -1.23128E+03 -1.01582E+03 -2.38005E+02 -2.11184E+03 -3.42893E+02 -1.35190E+03
  3.14899E+02 -3.09391E+02  8.95380E+02  5.34900E+02  1.16479E+03 -2.40149E+02  3.27739E+02  1.01818E+03
 -5.03378E+02  2.05432E+02 -8.42953E+02  6.05119E+01  8.39723E+02 -6.29175E+02  1.75446E+03 -8.84321E+02
  1.61813E+03  2.41542E+02  2.55887E+03  7.70714E+02  7.39517E+02  1.48193E+03 -4.94578E+01  1.20720E+03
 -1.40600E+03  4.72863E+02 -1.10570E+03 -5.50405E+02 -7.75694E+02 -1.28246E+03 -9.48082E+01 -6.40583E+02
  1.64074E+03 -5.72133E+02  7.13113E+02  5.84620E+02  1.02575E+02  1.38840E+03  5.81603E+02  8.94786E+02
 -3.76307E+02  1.34643E+03  6.84231E+01  4.63422E+02  9.58343E+01  5.12140E+02 -1.01465E+03  4.49440E+02
 -3.28617E+02  6.90958E+02 -1.44305E+03  3.79993E+02 -1.30034E+03 -1.03975E+02 -1.85144E+03 -9.25868E+02
 -5.79688E+02 -1.70578E+03  3.31113E+02 -2.83403E+03  9.98468E+02 -1.98891E+03  2.40119E+03 -9.63706E+02
  1.84378E+03 -3.01111E+02  8.81936E+02  1.49599E+03  9.22437E+00  1.36233E+03 -3.02448E+02  9.44594E+02
 -7.11896E+02  3.28556E+02 -5.87273E+02 -3.24415E+02 -8.28049E+01  2.28043E+02 -9.60301E+02 -8.84255E+01
 -8.16116E+02 -2.79970E+02 -1.01332E+03  9.54754E+01 -9.44074E+01 -1.01137E+03 -4.64909E+02 -7.51472E+02
  9.96225E+02 -2.73672E+02  4.17395E+02  4.29634E+02  9.79961E+02  7.68731E+02  2.16922E+01  1.70085E+03
 -7.15590E+02  2.47097E+03 -1.41866E+03  1.20686E+03 -1.07505E+03 -1.45762E+02 -1.09612E+03 -1.13637E+03
 -1.17259E+03 -9.83960E+02 -1.70222E+02 -1.04576E+03  4.28952E+02 -1.10988E+03  3.85317E+02  6.18783E+02
  4.78099E+02  6.02861E+01 -1.24556E+02  3.89803E+02 -3.28693E+02 -4.99949E+02 -3.97212E+01  1.37722E+02
  3.75363E+02 -3.42679E+02  1.92607E+02  4.98639E+02 -4.34109E+02 -6.42653E+01  3.05346E+02  5.82444E+02
 -4.79567E+02  2.48974E+02 -1.13878E+02  5.75900E+02 -3.15530E+02 -2.36722E+02  2.35951E+02 -1.24557E+03
  5.45616E+02 -6.43449E+02  4.08064E+02 -3.10262E+02  1.54072E+03 -5.31011E+02  1.67229E+02  8.71239E+02
  3.31375E+02  6.70764E+02 -3.38207E+02  3.59748E+02 -7.49337E+01  9.80080E+01 -9.19195E+02  2.98587E+02
 -5.05135E+02  6.12510E+01 -2.09654E+02  3.83738E+02  8.58495E+00  3.15202E+02 -1.01701E+03 -6.70504E+02
 -6.33905E+02  4.72816E+02 -3.90620E+02 -9.78138E+02  8.86138E+02 -1.43429E+03  4.22591E+02 -6.75933E+02
  5.65851E+02 -2.75430E+01 -8.38025E+02  4.74149E+02 -3.08132E+02  5.25600E+02 -7.35561E+02  7.62707E+02
