 $NMID ID='MM_0lb_SNR400_16hz_g50_50.RAW', FMTDAT='(8E13.5)'
 TRAMP=1., VOLUME=1. $END
  3.09642E+05  5.14575E+02  3.37322E+05  2.50757E+05  8.46173E+04  3.37467E+05 -1.32333E+05  2.51522E+05
 -1.90008E+05  8.30718E+04 -1.11848E+05 -3.27237E+04  5.85633E+02 -5.03818E+04  5.40505E+04 -3.16217E+02
  3.55073E+04  5.28331E+04 -1.75325E+04  7.49101E+04 -6.07383E+04  6.30423E+04 -8.31379E+04  3.15275E+04
 -8.03855E+04 -1.10791E+04 -5.70309E+04 -5.07516E+04 -1.51885E+04 -6.94164E+04  2.76225E+04 -4.53336E+04
  4.02096E+04  3.92172E+03  1.60876E+04  4.72477E+04 -3.37295E+04  4.69131E+04 -6.62834E+04 -8.63659E+02
 -5.34333E+04 -5.70955E+04 -6.72355E+03 -7.59824E+04  3.36266E+04 -5.41405E+04  4.76211E+04 -1.68827E+04
  4.24344E+04  1.09153E+04  3.11653E+04  2.53898E+04  1.53523E+04  2.90741E+04 -4.43473E+03  2.68729E+04
 -2.15560E+04  1.29653E+04 -1.90112E+04 -4.42387E+03  4.84625E+03 -7.76798E+03  2.17245E+04  1.17227E+04
  6.95461E+03  3.47945E+04 -3.13260E+04  3.47679E+04 -6.21158E+04  1.77909E+03 -5.63230E+04 -4.22778E+04
 -1.20815E+04 -6.21428E+04  3.92422E+04 -4.41175E+04  5.73743E+04 -1.70188E+03  3.43324E+04  3.15864E+04
 -6.49048E+03  3.55679E+04 -2.98007E+04  1.55062E+04 -2.92329E+04 -4.86240E+03 -1.56257E+04 -1.05945E+04
 -8.80829E+03 -1.24080E+04 -1.30908E+03 -1.78014E+04  7.18619E+03 -2.26190E+04  1.50937E+04 -1.34399E+04
  1.13151E+04  4.74943E+03 -7.52626E+03  1.36382E+04 -2.05864E+04 -3.81398E+03 -8.01135E+03 -3.26857E+04
  2.18725E+04 -4.27853E+04  4.64750E+04 -1.89138E+04  4.43448E+04  1.82300E+04  1.53278E+04  4.36458E+04
 -1.56547E+04  3.20858E+04 -2.44759E+04  1.17808E+03 -9.32650E+03 -2.73448E+04  2.10158E+04 -3.27779E+04
  3.98819E+04 -8.29751E+03  3.36823E+04  2.37037E+04  1.67453E+04  4.45816E+04 -7.95532E+03  4.78924E+04
 -3.06683E+04  3.25483E+04 -4.00428E+04  8.93789E+03 -4.07701E+04 -1.57179E+04 -2.23028E+04 -3.57608E+04
  7.71552E+03 -3.67720E+04  3.04729E+04 -1.40002E+04  2.82234E+04  1.05199E+04  3.05806E+03  1.83218E+04
 -1.35689E+04  8.06853E+03 -9.98239E+03 -7.84448E+03  6.14777E+03 -1.04353E+04  1.76832E+04  5.98146E+03
  1.26623E+04  2.23410E+04 -6.29979E+03  2.40022E+04 -2.12839E+04  1.06549E+04 -2.66029E+04 -5.79101E+03
 -1.89342E+04 -1.70190E+04 -7.69275E+03 -1.95750E+04  4.27795E+03 -1.80339E+04  1.44404E+04 -1.64168E+04
  2.43040E+04 -1.23402E+04  3.11945E+04  1.48273E+03  2.25725E+04  1.82791E+04  3.92450E+03  3.50679E+04
 -1.69135E+04  2.99300E+04 -2.69198E+04  1.06991E+04 -2.06219E+04 -9.99327E+03 -4.80768E+03 -1.36536E+04
  2.03834E+03 -3.30864E+03 -4.19020E+03  6.69168E+03 -1.49196E+04  4.70090E+03 -1.51308E+04 -6.44449E+03
 -9.11645E+03 -1.73218E+04  5.43278E+03 -2.19256E+04  1.45595E+04 -1.55224E+04  1.64979E+04 -1.36772E+03
  1.06556E+04  1.25517E+04 -1.35464E+03  1.77867E+04 -1.14859E+04  1.03027E+04 -1.78796E+04 -3.98945E+03
 -1.28654E+04 -1.55379E+04 -1.63694E+03 -2.17981E+04  9.57401E+03 -1.77559E+04  1.77209E+04 -8.62427E+03
  1.65346E+04 -2.11979E+01  1.18935E+04  4.17702E+03  6.46280E+03  4.86615E+02  9.30750E+03 -1.91926E+03
  1.57111E+04  2.64282E+03  1.71208E+04  1.38831E+04  1.08300E+04  2.80862E+04 -2.96730E+03  3.09973E+04
 -1.74878E+04  2.43455E+04 -2.86794E+04  1.25726E+04 -2.95721E+04 -2.88252E+03 -2.49588E+04 -1.70606E+04
 -1.16314E+04 -2.49221E+04  8.36711E+03 -2.23999E+04  1.93333E+04 -1.18564E+04  1.76054E+04  4.89373E+03
  6.94998E+03  1.22289E+04 -8.13716E+03  1.12733E+04 -1.49991E+04  2.37687E+03 -1.14908E+04 -9.33457E+03
 -4.10785E+02 -1.33316E+04  7.18346E+03 -1.09662E+04  8.54034E+03 -1.22871E+03  2.09081E+03  5.66514E+03
 -6.21383E+03  2.22604E+03 -5.24490E+03 -4.99441E+03  2.20604E+01 -1.16512E+04  8.48264E+03 -1.20585E+04
  1.38237E+04 -5.87155E+03  1.56957E+04  2.84051E+03  1.35070E+04  1.23859E+04  6.48681E+03  1.70098E+04
 -2.31915E+03  1.93238E+04 -1.22485E+04  1.24544E+04 -1.40147E+04  3.34224E+03 -1.00799E+04 -2.86710E+03
 -5.29988E+03 -4.24759E+03 -4.40645E+02  1.37729E+03 -2.07835E+03  2.73943E+03 -4.40971E+03  3.30071E+03
 -9.49430E+03 -6.94603E+02 -1.04382E+04 -8.52258E+03 -4.15595E+03 -1.35436E+04  4.44338E+03 -9.78124E+03
  9.01154E+03 -4.10945E+03  6.09041E+03  2.30925E+03  8.19579E+02  3.85671E+03 -4.45947E+03  6.34451E+02
 -4.59491E+03 -6.53103E+03 -5.94058E+02 -9.12030E+03  5.37808E+03 -1.00554E+04  1.18045E+04 -4.50041E+03
  1.45353E+04  7.26339E+02  1.02651E+04  8.62998E+03  2.09837E+03  1.06484E+04 -6.24177E+03  9.29797E+03
 -8.08817E+03  3.79729E+03 -3.88524E+03 -1.54977E+03  1.07126E+03 -2.60442E+03  5.18355E+03 -9.22764E+02
  4.38887E+03  3.84835E+03  1.36604E+03  7.69706E+03 -5.77637E+03  7.47535E+03 -9.74392E+03  2.51767E+03
 -6.05808E+03 -4.76121E+03  1.99867E+02 -7.82210E+03  4.46837E+03 -3.66152E+03  4.84697E+03  1.26571E+03
  9.98734E+02  4.68392E+03 -5.09630E+03  5.84738E+03 -7.11690E+03  3.25576E+03 -6.63397E+03 -1.58462E+03
 -4.23156E+03 -7.75220E+03  1.55538E+03 -9.68182E+03  7.34365E+03 -5.56872E+03  8.32613E+03  1.66960E+03
  5.34503E+03  7.03996E+03  1.19444E+02  9.13450E+03 -7.38392E+03  4.63202E+03 -6.94054E+03 -8.06799E+02
 -6.80846E+03 -6.16422E+03 -1.63123E+03 -6.74604E+03  3.31533E+03 -5.39694E+03  3.43380E+03 -2.99851E+03
  3.51189E+03  1.35787E+02 -9.79070E+01  1.50823E+03  1.38307E+02 -8.26241E+02  2.39958E+02 -2.78872E+03
  6.09945E+03 -1.54333E+03  7.00288E+03  3.06043E+02  7.75928E+03  4.14856E+03  6.12393E+03  9.88024E+03
 -2.09889E+03  1.18775E+04 -1.01001E+04  8.60967E+03 -1.30762E+04  1.86131E+03 -1.00973E+04 -4.25393E+03
 -4.54281E+03 -8.46924E+03 -9.51208E+02 -6.86542E+03  2.70059E+03 -3.40106E+03  2.15411E+03 -2.98718E+03
  1.64295E+03 -1.84349E+03  2.53348E+03 -2.82403E+03  4.06607E+03 -1.89276E+03  4.85362E+03  2.92880E+02
  5.21815E+03  1.35071E+03  1.85185E+03  4.84590E+03 -1.88991E+03  4.67548E+03 -5.61863E+03  4.08481E+03
 -6.94261E+03 -8.05107E+02 -3.44798E+03 -5.01886E+03 -3.40448E+02 -7.01784E+03  4.06352E+03 -7.26221E+03
  7.54598E+03 -4.70638E+03  8.67074E+03  6.61013E+02  6.41950E+03  5.76574E+03  1.72981E+03  8.11714E+03
 -3.30883E+03  7.30061E+03 -4.76121E+03  2.25374E+03 -3.21739E+03 -1.58546E+03 -6.21878E+02 -7.61433E+02
 -3.25304E+02  4.43414E+02 -1.12583E+03  1.76896E+03 -3.41653E+03  1.99826E+03 -4.82039E+03 -7.19114E+02
 -2.25123E+03 -5.32564E+03  5.39789E+02 -6.90807E+03  3.77137E+03 -5.88090E+03  5.33935E+03 -1.22877E+03
  5.75536E+03  3.14856E+03  2.78304E+03  4.80122E+03 -9.90072E+02  6.13404E+03 -3.24072E+03  3.92811E+03
 -4.72639E+03  5.46272E+02 -4.25916E+03 -3.41964E+03 -2.89987E+02 -5.37194E+03  2.09403E+03 -3.29596E+03
  4.04585E+03 -8.90003E+02  2.47784E+03  4.61459E+02  1.07831E+03  2.28250E+03  4.31039E+02  1.72264E+02
  1.39192E+03  7.03166E+02  1.32666E+03  7.99284E+02  1.83093E+03  3.02227E+03  2.16902E+03  2.77065E+03
 -1.31579E+03  4.62241E+03 -4.10687E+03  5.52496E+03 -4.46917E+03  1.36375E+03 -6.35663E+03 -8.99658E+02
 -2.99715E+03 -5.65393E+03  1.32933E+03 -6.60720E+03  2.75165E+03 -3.38371E+03  4.92150E+03 -1.13559E+03
  3.72084E+03  2.66322E+03  5.93747E+02  2.70152E+03 -1.27734E+03  2.36188E+03 -1.95974E+03 -2.20448E+02
 -1.56384E+02 -2.13322E+03  1.43795E+03 -2.04260E+03  2.01106E+03 -1.21968E+03  2.13378E+03  6.55183E+02
  1.33639E+03  7.69517E+02  9.23436E+02  8.25517E+02 -6.67934E+02  8.85894E+01  1.70171E+03 -3.61170E+02
  2.40509E+02 -3.78634E+02  2.44308E+03  1.03434E+03  5.97133E+02  3.48275E+03 -2.44488E+02  4.08803E+03
 -2.31724E+03  3.07959E+03 -3.13364E+03  6.63011E+02 -3.19723E+03 -1.69169E+03 -5.88818E+02 -1.60457E+03
  7.11287E+02 -2.31704E+03  1.51785E+03 -9.05746E+02  1.39057E+03  1.66261E+03 -1.16929E+03  1.34618E+03
 -2.12846E+03  9.49598E+02 -2.28239E+03 -2.22932E+03 -1.44282E+03 -3.39307E+03  8.85127E+02 -2.82367E+03
  1.34776E+03 -1.11277E+03  1.49347E+03  2.80610E+02  1.72131E+03  6.67309E+02  1.15253E+02  1.87708E+03
 -2.15020E+02  1.57847E+02 -1.28403E+03 -2.47276E+02  6.44677E+02 -1.39970E+03  2.43137E+03 -1.27680E+03
  2.67991E+03  1.03057E+02  3.54818E+03  1.69726E+03  1.56737E+03  2.76775E+03 -5.66138E+02  3.18985E+03
 -2.10755E+03  4.96778E+02 -2.30120E+03 -8.23995E+02 -1.17311E+03 -2.24630E+03 -1.84628E+02 -1.41897E+03
  2.08862E+03 -1.11666E+03  1.71660E+03  1.21249E+03  3.32509E+01  1.79836E+03 -5.07666E+02  1.46543E+03
 -6.70792E+02  1.34772E+03 -6.22377E+02  8.69209E+02 -4.94134E+02  4.56569E+02 -1.45629E+01  5.68679E+02
 -8.70640E+02  1.38533E+03 -2.44499E+03  7.85390E+02 -3.16802E+03  2.95294E+02 -3.67679E+03 -1.98719E+03
 -1.29175E+03 -3.58490E+03  7.15852E+02 -4.44385E+03  2.61269E+03 -4.19283E+03  4.05655E+03 -1.26311E+03
  3.76429E+03  4.71677E+02  1.67805E+03  2.58604E+03 -2.97239E+02  2.74813E+03 -1.24129E+03  2.53413E+03
 -1.61019E+03  6.79209E+02 -6.85519E+02 -6.02053E+02 -6.29213E+02  4.71392E+01 -4.47382E+02 -3.66905E+01
 -7.59792E+02 -5.00192E+02 -7.49497E+02 -3.35252E+02  4.67334E+02 -1.31319E+03  1.44330E+02 -1.01582E+03
  1.95905E+03 -1.17769E+03  1.20405E+03 -4.25571E+02  2.27165E+03  1.80706E+03 -2.58042E+01  2.44773E+03
 -1.05534E+03  3.32990E+03 -3.09369E+03  2.26671E+03 -2.73261E+03 -5.32122E+02 -1.63792E+03 -2.45617E+03
 -1.54503E+03 -2.53739E+03  1.39716E+02 -2.38300E+03  1.74263E+03 -1.29401E+03  1.47732E+03  3.80544E+01
  1.27225E+03  7.35015E+02  8.61199E+01  6.85628E+02 -7.77879E+02 -3.02857E+02 -1.01648E+02 -2.27424E+02
  1.26573E+03  4.35632E+02  1.11736E+03  3.66309E+02 -2.83934E+02  6.87978E+02  2.97192E+02  2.32775E+02
 -1.34690E+03  1.10525E+03 -1.76053E+03  5.39021E+02 -1.36909E+03 -1.23211E+03 -3.93331E+02 -2.90382E+03
  1.12828E+03 -1.58073E+03  9.97511E+02 -5.57260E+02  2.04617E+03 -8.54443E+02  1.24854E+03  1.53764E+03
  8.41682E+02  1.49476E+03 -2.02005E+02  1.38963E+03 -1.13302E+03  8.73039E+02 -7.75740E+02 -2.69384E+02
 -8.43049E+02 -2.17347E+01 -4.75496E+02  4.67020E+02 -6.27489E+02 -3.18317E+01 -1.01987E+03  1.58576E+01
 -1.59924E+03 -7.89617E+01 -2.26558E+02 -1.80723E+03  6.96085E+02 -1.84636E+03  1.75175E+03 -9.35876E+02
  1.20310E+03  3.34353E+02 -3.59575E+02  1.58284E+03  2.62780E+02  1.40142E+03 -7.56895E+02  1.09662E+03
