 $NMID ID='MM_0lb_SNR400_8hz_g40_22.RAW', FMTDAT='(8E13.5)'
 TRAMP=1., VOLUME=1. $END
  3.10282E+05  4.82775E+02  3.38158E+05  2.50818E+05  8.45493E+04  3.39180E+05 -1.33145E+05  2.51259E+05
 -1.91240E+05  8.27946E+04 -1.12222E+05 -3.23504E+04  1.35801E+03 -5.09446E+04  5.37426E+04 -1.03110E+03
  3.58906E+04  5.25434E+04 -1.65820E+04  7.60433E+04 -6.20274E+04  6.51023E+04 -8.58355E+04  3.33400E+04
 -8.21195E+04 -1.24837E+04 -5.83908E+04 -5.31854E+04 -1.50604E+04 -7.19286E+04  2.75808E+04 -4.66813E+04
  4.06309E+04  2.78078E+03  1.68112E+04  4.83049E+04 -3.44640E+04  4.73564E+04 -6.88986E+04  6.03423E+01
 -5.50269E+04 -5.83105E+04 -8.26637E+03 -7.90153E+04  3.44245E+04 -5.69076E+04  4.92166E+04 -1.79347E+04
  4.52317E+04  1.14428E+04  3.37231E+04  2.65039E+04  1.61488E+04  3.06394E+04 -5.30352E+03  2.83774E+04
 -2.26213E+04  1.23073E+04 -1.72693E+04 -5.15753E+03  7.92914E+03 -7.06189E+03  2.41401E+04  1.32437E+04
  7.21483E+03  3.87406E+04 -3.35429E+04  3.65624E+04 -6.53779E+04  1.90712E+03 -5.94053E+04 -4.52286E+04
 -1.24285E+04 -6.51822E+04  4.19527E+04 -4.72206E+04  6.19298E+04 -2.97553E+03  3.71466E+04  3.53576E+04
 -5.77742E+03  3.91851E+04 -3.09577E+04  1.94508E+04 -3.29284E+04 -4.00839E+03 -1.93829E+04 -1.23914E+04
 -9.26337E+03 -1.50737E+04 -8.46995E+02 -2.03491E+04  8.41908E+03 -2.37164E+04  1.61199E+04 -1.31597E+04
  1.01871E+04  6.63271E+03 -1.10802E+04  1.28382E+04 -2.41550E+04 -6.80039E+03 -8.71428E+03 -3.79486E+04
  2.53716E+04 -4.73054E+04  5.17225E+04 -2.09123E+04  4.88680E+04  2.08889E+04  1.64301E+04  4.69657E+04
 -1.71852E+04  3.58577E+04 -2.83078E+04  2.74294E+03 -1.12112E+04 -2.97626E+04  2.12799E+04 -3.67964E+04
  4.45622E+04 -1.05641E+04  4.04202E+04  2.44428E+04  2.11469E+04  5.05275E+04 -8.81552E+03  5.65066E+04
 -3.50311E+04  3.88920E+04 -4.76589E+04  1.10717E+04 -4.70025E+04 -1.84866E+04 -2.61230E+04 -4.24613E+04
  7.67412E+03 -4.18087E+04  3.49024E+04 -1.67712E+04  3.14530E+04  1.11671E+04  4.84116E+03  2.11633E+04
 -1.42385E+04  1.02664E+04 -1.15844E+04 -8.18275E+03  5.08482E+03 -1.21012E+04  1.91671E+04  5.42363E+03
  1.45365E+04  2.24530E+04 -5.07261E+03  2.72233E+04 -2.36815E+04  1.48598E+04 -3.27393E+04 -2.97931E+03
 -2.55537E+04 -1.89660E+04 -1.24060E+04 -2.48318E+04  4.42223E+03 -2.61928E+04  1.99578E+04 -2.26171E+04
  3.14860E+04 -1.43443E+04  3.76681E+04  5.98836E+03  2.74744E+04  2.33564E+04  3.69720E+03  4.06248E+04
 -2.03707E+04  3.33920E+04 -3.10454E+04  1.24558E+04 -2.19694E+04 -1.00491E+04 -5.25519E+03 -1.30776E+04
  1.46922E+03 -1.28963E+03 -8.07008E+03  8.39152E+03 -2.04564E+04  4.44825E+03 -2.02984E+04 -9.72645E+03
 -1.20851E+04 -2.37535E+04  6.00720E+03 -2.84401E+04  1.93306E+04 -1.97798E+04  2.21605E+04 -2.14549E+03
  1.44978E+04  1.61637E+04 -1.56810E+03  2.37399E+04 -1.69318E+04  1.28332E+04 -2.29193E+04 -5.87277E+03
 -1.73942E+04 -2.11149E+04 -2.75314E+03 -2.92056E+04  1.27983E+04 -2.42152E+04  2.23057E+04 -1.27252E+04
  2.20943E+04 -5.39052E+02  1.55344E+04  4.47854E+03  1.02723E+04  1.30097E+03  1.17104E+04 -2.99014E+03
  2.18862E+04  3.10315E+03  2.62817E+04  1.92134E+04  1.78109E+04  3.74271E+04 -2.42419E+03  4.59971E+04
 -2.59370E+04  3.72338E+04 -4.21674E+04  1.93513E+04 -4.49838E+04 -2.34588E+03 -3.61281E+04 -2.58661E+04
 -1.45278E+04 -3.75547E+04  1.33689E+04 -3.24829E+04  2.82506E+04 -1.55559E+04  2.38003E+04  7.95900E+03
  7.10719E+03  1.87741E+04 -1.16375E+04  1.67048E+04 -2.01496E+04  2.67389E+03 -1.48119E+04 -1.31486E+04
 -2.32686E+02 -1.95533E+04  1.00868E+04 -1.40009E+04  1.24502E+04 -1.98374E+02  3.32554E+03  9.15146E+03
 -9.37517E+03  4.53519E+03 -9.97516E+03 -8.37852E+03 -2.34211E+03 -1.81582E+04  1.20461E+04 -1.97714E+04
  2.30681E+04 -1.18856E+04  2.59743E+04  4.53947E+03  2.36795E+04  1.94414E+04  9.91165E+03  3.05427E+04
 -5.47912E+03  3.25058E+04 -2.08835E+04  2.03899E+04 -2.27083E+04  3.55443E+03 -1.54072E+04 -6.95701E+03
 -6.86590E+03 -7.74919E+03 -7.77825E+02  1.08615E+03 -3.01415E+03  3.52553E+03 -7.22510E+03  5.25759E+03
 -1.35882E+04 -1.05747E+03 -1.41449E+04 -1.13989E+04 -6.17693E+03 -1.95639E+04  7.06895E+03 -1.55480E+04
  1.37751E+04 -6.42795E+03  9.34533E+03  4.64304E+03 -1.85285E+02  6.69958E+03 -7.93654E+03  1.78218E+01
 -7.85464E+03 -1.04776E+04 -1.07715E+03 -1.55133E+04  9.72036E+03 -1.78177E+04  2.05558E+04 -8.44936E+03
  2.35358E+04  1.94399E+03  1.73097E+04  1.51233E+04  2.80573E+03  1.92914E+04 -9.99837E+03  1.63534E+04
 -1.29765E+04  4.66277E+03 -6.44653E+03 -3.75914E+03  2.58834E+03 -5.23432E+03  7.85365E+03 -1.40540E+03
  7.70379E+03  7.47960E+03  1.28248E+03  1.33150E+04 -9.20673E+03  1.16036E+04 -1.52961E+04  2.48179E+03
 -1.09009E+04 -8.57484E+03 -1.75153E+02 -1.36998E+04  9.23381E+03 -7.23764E+03  9.56352E+03  3.07895E+03
  2.46250E+03  1.06725E+04 -8.00772E+03  1.25204E+04 -1.40430E+04  4.41294E+03 -1.47140E+04 -5.48069E+03
 -8.11082E+03 -1.71793E+04  3.98362E+03 -1.88927E+04  1.54832E+04 -1.12564E+04  1.75505E+04  3.12077E+03
  1.00344E+04  1.35458E+04 -1.25899E+03  1.64696E+04 -1.28617E+04  9.04340E+03 -1.36036E+04 -1.82597E+03
 -1.14183E+04 -1.06021E+04 -2.22053E+03 -1.26434E+04  6.02158E+03 -1.06956E+04  8.38676E+03 -3.55478E+03
  4.71680E+03  2.55607E+03 -1.68720E+03  2.70469E+03 -7.13102E+02 -4.22296E+03  2.61086E+03 -8.30517E+03
  1.13062E+04 -5.20536E+03  1.69512E+04  2.05202E+03  1.71387E+04  1.14898E+04  1.06243E+04  2.08495E+04
 -4.71443E+03  2.50296E+04 -2.06106E+04  1.76608E+04 -2.72067E+04  2.84137E+03 -2.18816E+04 -9.72675E+03
 -1.06581E+04 -1.79824E+04 -5.93380E+02 -1.53072E+04  5.03418E+03 -8.37531E+03  5.55218E+03 -5.76865E+03
  3.89744E+03 -3.16723E+03  4.56021E+03 -4.12750E+03  6.31952E+03 -4.93217E+03  8.24505E+03 -7.43591E+01
  1.08686E+04  2.81272E+03  6.08049E+03  1.01191E+04 -2.56104E+03  1.12364E+04 -1.16972E+04  9.29446E+03
 -1.53520E+04 -1.44418E+03 -9.16036E+03 -1.16511E+04 -9.51260E+02 -1.68463E+04  9.04453E+03 -1.71196E+04
  1.71441E+04 -9.31531E+03  1.98426E+04  3.89781E+03  1.40333E+04  1.48064E+04  1.90086E+03  1.94293E+04
 -8.21269E+03  1.54799E+04 -1.11462E+04  4.71767E+03 -7.80969E+03 -2.17727E+03 -2.82744E+03 -1.97108E+03
 -2.28136E+03  4.07732E+02 -2.59515E+03  3.33499E+03 -6.19706E+03  2.17638E+03 -1.10800E+04 -1.55038E+03
 -7.18284E+03 -1.03549E+04  7.77830E+02 -1.49133E+04  9.38199E+03 -1.47068E+04  1.56396E+04 -4.37547E+03
  1.53233E+04  7.21858E+03  8.14488E+03  1.40931E+04 -3.02050E+03  1.48932E+04 -1.10285E+04  1.06585E+04
 -1.48043E+04  8.24020E+02 -1.17098E+04 -9.70770E+03 -1.40066E+03 -1.27613E+04  7.39234E+03 -1.02350E+04
  9.96704E+03 -3.59196E+03  6.66549E+03  2.96445E+03  2.82668E+03  4.93792E+03  1.01895E+03  1.86680E+03
  2.85746E+03  1.98078E+03  4.83543E+03  2.30501E+03  4.77081E+03  4.60226E+03  3.93087E+03  8.71836E+03
 -2.81129E+03  1.34293E+04 -1.16219E+04  1.17178E+04 -1.61997E+04  2.95261E+03 -1.64846E+04 -6.87570E+03
 -9.02791E+03 -1.60578E+04  2.49736E+03 -1.79577E+04  9.64324E+03 -1.07975E+04  1.27637E+04 -3.17324E+03
  1.03107E+04  5.69129E+03  1.55418E+03  1.06378E+04 -4.16949E+03  6.11587E+03 -6.09098E+03 -1.52869E+03
 -2.71179E+03 -6.85029E+03  2.83435E+03 -7.09286E+03  7.70004E+03 -3.45417E+03  7.04720E+03  7.88401E+02
  3.96571E+03  3.57946E+03  1.85958E+03  2.93441E+03 -1.27500E+03  2.41231E+03  9.51296E+02 -3.48062E+02
  2.68357E+03 -7.83514E+02  7.19264E+03  2.79891E+03  4.48367E+03  8.15672E+03 -1.09585E+03  1.14151E+04
 -7.53957E+03  8.23553E+03 -1.11662E+04  1.68926E+03 -9.66834E+03 -3.74600E+03 -3.23864E+03 -6.24862E+03
  3.19356E+02 -6.63142E+03  4.56471E+03 -2.96254E+03  3.46971E+03  3.23787E+03 -1.21689E+03  5.20655E+03
 -6.50297E+03  3.17357E+03 -8.39470E+03 -3.18834E+03 -5.49782E+03 -9.20099E+03  1.36920E+03 -8.98362E+03
  6.48305E+03 -5.42735E+03  6.46217E+03 -2.30544E+02  6.01080E+03  2.83498E+03  8.41777E+02  5.17052E+03
 -3.86094E+03  1.20240E+03 -4.58810E+03 -3.19718E+03  1.59479E+03 -6.00357E+03  7.99737E+03 -5.81033E+03
  1.05432E+04  4.69966E+02  9.71605E+03  7.29805E+03  3.27501E+03  1.11512E+04 -3.08261E+03  1.02324E+04
 -9.36657E+03  4.64145E+03 -1.01699E+04 -1.99812E+03 -5.78688E+03 -7.04711E+03  1.34732E+03 -7.25209E+03
  7.11368E+03 -3.46274E+03  5.40234E+03  2.89625E+03  2.00155E+03  6.00515E+03 -1.18913E+03  5.52720E+03
 -2.60535E+03  3.59874E+03 -2.60146E+03  1.15554E+03 -1.03719E+03  1.11065E+03 -2.46245E+03  3.05817E+03
 -2.53622E+03  3.68917E+03 -7.41355E+03  3.81038E+03 -1.15217E+04  1.20003E+03 -1.22285E+04 -6.65547E+03
 -6.13106E+03 -1.52510E+04  2.68191E+03 -1.64265E+04  1.05864E+04 -1.27384E+04  1.51300E+04 -5.12696E+03
  1.50982E+04  3.18883E+03  9.83306E+03  1.05144E+04  1.24659E+03  1.13178E+04 -4.13314E+03  8.71953E+03
 -6.49165E+03  3.32718E+03 -4.60855E+03 -2.12862E+03 -5.79711E+02 -9.85254E+02  9.67253E+01  4.89863E+01
 -2.31217E+03  1.04257E+02 -2.33681E+03 -1.36642E+03 -6.38885E+02 -2.44114E+03  4.64702E+01 -4.61339E+03
  5.07881E+03 -3.11548E+03  6.38097E+03  3.83059E+02  8.60059E+03  6.71197E+03  1.69024E+03  1.17383E+04
 -5.24450E+03  1.26760E+04 -1.27058E+04  7.67033E+03 -1.49433E+04 -1.63306E+03 -1.07783E+04 -8.69598E+03
 -4.85538E+03 -1.17620E+04  3.06869E+03 -1.07876E+04  7.59295E+03 -5.57647E+03  6.83783E+03 -3.59642E+02
  3.52446E+03  3.74358E+03 -9.66830E+02  2.80139E+03 -2.28139E+03 -2.94567E+02  8.19377E+02 -2.56120E+03
  3.17650E+03 -2.16776E+03  4.54018E+03  8.43453E+02  2.54240E+03  4.61934E+03  1.02949E+01  6.00376E+03
 -5.29634E+03  5.37169E+03 -8.80500E+03  7.64208E+02 -7.16363E+03 -5.74483E+03 -1.47956E+03 -9.98653E+03
  5.89308E+03 -9.15281E+03  9.00683E+03 -2.49271E+03  8.90662E+03  2.98045E+03  5.09073E+03  7.97002E+03
  2.32791E+02  7.83294E+03 -3.66479E+03  5.98637E+03 -5.10194E+03  3.53547E+03 -3.90339E+03 -3.83012E+01
 -2.33602E+03 -4.35674E+02 -2.20545E+03  1.50917E+03 -4.77551E+03  1.52693E+03 -6.63230E+03 -1.33181E+03
 -5.60641E+03 -4.61797E+03 -2.59988E+03 -7.65207E+03  3.39505E+03 -8.57878E+03  7.23304E+03 -3.69041E+03
  7.63388E+03  1.12210E+03  5.09523E+03  4.98380E+03 -1.37946E+03  8.23511E+03 -5.88799E+03  5.75182E+03
