 $NMID ID='MM_0lb_SNR400_10hz_g55_9.RAW', FMTDAT='(8E13.5)'
 TRAMP=1., VOLUME=1. $END
  3.09142E+05  1.47207E+02  3.38244E+05  2.50927E+05  8.50134E+04  3.38446E+05 -1.32437E+05  2.51380E+05
 -1.91489E+05  8.46444E+04 -1.12480E+05 -3.26740E+04  6.78789E+02 -5.05477E+04  5.35464E+04 -8.83334E+02
  3.60866E+04  5.18693E+04 -1.69565E+04  7.52997E+04 -6.15699E+04  6.46984E+04 -8.51828E+04  3.25872E+04
 -8.22064E+04 -1.22195E+04 -5.85063E+04 -5.26837E+04 -1.53252E+04 -7.13845E+04  2.84593E+04 -4.66951E+04
  4.06292E+04  3.88989E+03  1.62991E+04  4.80247E+04 -3.44014E+04  4.78323E+04 -6.80421E+04 -1.20753E+02
 -5.43201E+04 -5.75781E+04 -7.36482E+03 -7.86046E+04  3.49654E+04 -5.69994E+04  5.02849E+04 -1.76597E+04
  4.50820E+04  1.22866E+04  3.29914E+04  2.63943E+04  1.61637E+04  3.05006E+04 -6.42328E+03  2.75680E+04
 -2.22359E+04  1.16361E+04 -1.81451E+04 -5.84180E+03  7.21168E+03 -7.01572E+03  2.27654E+04  1.31327E+04
  7.04079E+03  3.73544E+04 -3.37965E+04  3.68349E+04 -6.51318E+04  1.60733E+03 -5.95045E+04 -4.42407E+04
 -1.31060E+04 -6.60129E+04  4.19559E+04 -4.61182E+04  6.08755E+04 -2.21172E+03  3.52821E+04  3.41096E+04
 -5.53068E+03  3.88668E+04 -3.17026E+04  1.83723E+04 -3.31005E+04 -3.67857E+03 -1.90535E+04 -1.06902E+04
 -1.00959E+04 -1.50305E+04 -7.49417E+02 -2.06004E+04  7.83289E+03 -2.39817E+04  1.57666E+04 -1.24105E+04
  1.05476E+04  6.43094E+03 -1.01723E+04  1.29865E+04 -2.26833E+04 -5.76532E+03 -8.54660E+03 -3.74013E+04
  2.47958E+04 -4.62428E+04  5.17934E+04 -2.07712E+04  4.84414E+04  2.07762E+04  1.69484E+04  4.63662E+04
 -1.64246E+04  3.61742E+04 -2.70826E+04  2.12863E+03 -1.15251E+04 -3.01524E+04  2.14112E+04 -3.60790E+04
  4.46771E+04 -1.00926E+04  4.00649E+04  2.52987E+04  2.08432E+04  5.10590E+04 -7.43438E+03  5.58111E+04
 -3.51428E+04  3.85611E+04 -4.68818E+04  1.10784E+04 -4.65874E+04 -1.82710E+04 -2.53049E+04 -4.16393E+04
  8.21867E+03 -4.15276E+04  3.40492E+04 -1.69709E+04  3.17077E+04  1.10880E+04  5.09192E+03  2.01541E+04
 -1.35544E+04  9.31463E+03 -1.09938E+04 -7.35224E+03  5.91553E+03 -1.15954E+04  1.89817E+04  5.52682E+03
  1.39588E+04  2.26417E+04 -5.80771E+03  2.72016E+04 -2.39621E+04  1.41079E+04 -3.12954E+04 -3.20681E+03
 -2.48303E+04 -1.86713E+04 -1.11531E+04 -2.45442E+04  4.00923E+03 -2.54043E+04  1.94529E+04 -2.20596E+04
  3.09401E+04 -1.42617E+04  3.77004E+04  4.28163E+03  2.72665E+04  2.39265E+04  5.18606E+03  4.06468E+04
 -1.99078E+04  3.29656E+04 -3.03321E+04  1.14276E+04 -2.23164E+04 -9.60844E+03 -4.99757E+03 -1.32572E+04
  7.98126E+02 -1.31793E+03 -7.45384E+03  7.43555E+03 -2.01309E+04  5.20415E+03 -1.96371E+04 -9.30089E+03
 -1.18451E+04 -2.31008E+04  5.47269E+03 -2.65267E+04  1.83074E+04 -1.93319E+04  2.27579E+04 -1.47432E+03
  1.36760E+04  1.54497E+04 -1.76000E+03  2.27338E+04 -1.68203E+04  1.24945E+04 -2.26210E+04 -4.02467E+03
 -1.70851E+04 -2.08938E+04 -1.84351E+03 -2.76995E+04  1.24437E+04 -2.31470E+04  2.26598E+04 -1.14858E+04
  2.10408E+04 -2.36750E+02  1.56410E+04  5.04469E+03  8.28137E+03  6.43362E+02  1.18004E+04 -2.20221E+03
  2.10526E+04  2.89973E+03  2.46778E+04  1.70437E+04  1.72852E+04  3.61214E+04 -2.62255E+03  4.35851E+04
 -2.45018E+04  3.56998E+04 -4.05875E+04  1.87613E+04 -4.28125E+04 -3.90410E+03 -3.50781E+04 -2.49410E+04
 -1.36526E+04 -3.62874E+04  1.30057E+04 -3.19596E+04  2.68512E+04 -1.54960E+04  2.39452E+04  8.39106E+03
  9.03294E+03  1.81097E+04 -1.08330E+04  1.52011E+04 -1.96248E+04  3.35154E+03 -1.52668E+04 -1.29151E+04
 -3.61680E+02 -1.89243E+04  1.00497E+04 -1.39229E+04  1.26664E+04 -1.18473E+03  2.95264E+03  8.63964E+03
 -7.91117E+03  3.74712E+03 -9.26174E+03 -6.36955E+03 -1.89747E+03 -1.76847E+04  1.16201E+04 -1.98449E+04
  2.20182E+04 -1.09295E+04  2.48361E+04  2.93670E+03  2.19584E+04  1.81307E+04  1.05949E+04  2.77476E+04
 -5.31654E+03  3.04298E+04 -1.89213E+04  1.90319E+04 -2.23273E+04  3.74281E+03 -1.41559E+04 -5.11645E+03
 -6.26614E+03 -7.20448E+03 -1.12759E+03  6.83651E+02 -3.06757E+03  3.14974E+03 -7.37201E+03  5.39017E+03
 -1.38051E+04 -7.48308E+02 -1.44060E+04 -1.13670E+04 -5.81511E+03 -1.91236E+04  6.66433E+03 -1.54575E+04
  1.27709E+04 -6.00051E+03  8.93178E+03  3.79926E+03 -1.07629E+03  5.99435E+03 -7.15514E+03  3.17594E+01
 -7.26856E+03 -1.00466E+04 -1.14669E+03 -1.43486E+04  8.27601E+03 -1.57903E+04  1.86346E+04 -8.18514E+03
  2.32163E+04  2.09057E+03  1.59728E+04  1.43078E+04  3.16246E+03  1.80909E+04 -8.26844E+03  1.53759E+04
 -1.26394E+04  3.76359E+03 -6.05868E+03 -3.43752E+03  2.79313E+03 -4.44054E+03  8.25706E+03 -5.15091E+02
  6.88791E+03  7.04922E+03  1.15940E+03  1.30082E+04 -8.41382E+03  1.16656E+04 -1.54836E+04  3.04758E+03
 -1.00431E+04 -8.08935E+03 -4.57815E+02 -1.29947E+04  8.42885E+03 -6.92417E+03  9.14993E+03  2.69844E+03
  1.81939E+03  8.88542E+03 -8.24343E+03  1.10076E+04 -1.23869E+04  4.07953E+03 -1.35711E+04 -3.90125E+03
 -7.13222E+03 -1.49097E+04  3.81304E+03 -1.74505E+04  1.49721E+04 -9.84512E+03  1.59473E+04  2.92386E+03
  9.45326E+03  1.24038E+04 -1.80338E+03  1.46299E+04 -1.12156E+04  8.89100E+03 -1.23616E+04 -6.77178E+02
 -1.06109E+04 -9.85988E+03 -1.86890E+03 -1.18172E+04  6.21507E+03 -8.72085E+03  8.50537E+03 -2.46782E+03
  5.10064E+03  1.79157E+03 -1.39172E+03  1.98549E+03 -7.91217E+02 -3.25265E+03  2.63879E+03 -6.81487E+03
  1.07596E+04 -4.26568E+03  1.52364E+04  1.45901E+03  1.47557E+04  9.98866E+03  9.96357E+03  1.93671E+04
 -4.22031E+03  2.23301E+04 -1.85844E+04  1.64909E+04 -2.50948E+04  2.69631E+03 -1.99218E+04 -8.68017E+03
 -1.07519E+04 -1.62899E+04 -5.40890E+02 -1.30481E+04  4.80882E+03 -7.42215E+03  5.00638E+03 -5.10387E+03
  3.11439E+03 -2.74201E+03  4.65616E+03 -3.28459E+03  5.96775E+03 -2.96792E+03  7.02164E+03 -1.53127E+03
  1.02908E+04  2.01548E+03  5.45306E+03  9.04671E+03 -1.58760E+03  1.04493E+04 -1.02388E+04  7.81956E+03
 -1.36847E+04 -1.07027E+03 -8.82809E+03 -9.92452E+03 -1.02018E+03 -1.49412E+04  8.06861E+03 -1.47163E+04
  1.49368E+04 -7.72841E+03  1.81890E+04  2.66126E+03  1.29551E+04  1.30574E+04  1.59381E+03  1.63429E+04
 -7.47761E+03  1.34205E+04 -9.94744E+03  4.29616E+03 -6.47786E+03 -1.93020E+03 -2.77078E+03 -2.69154E+03
 -1.18549E+03 -1.01146E+03 -1.54604E+03  2.87755E+03 -6.13921E+03  2.41435E+03 -9.81106E+03 -9.39171E+02
 -7.31915E+03 -9.46659E+03  7.38503E+02 -1.42096E+04  8.36651E+03 -1.19615E+04  1.36151E+04 -3.45558E+03
  1.34412E+04  6.52636E+03  6.04311E+03  1.25547E+04 -2.91756E+03  1.29508E+04 -9.52045E+03  9.12480E+03
 -1.31408E+04  5.93489E+02 -1.02020E+04 -8.51815E+03 -1.54425E+03 -1.14827E+04  5.73466E+03 -7.68987E+03
  8.46199E+03 -2.78327E+03  5.99108E+03  2.40324E+03  2.79407E+03  4.49740E+03  1.91214E+03  1.89989E+03
  2.37465E+03  1.27945E+03  3.42018E+03  1.38029E+03  5.26603E+03  4.60251E+03  4.25584E+03  7.99930E+03
 -3.39375E+03  1.08798E+04 -9.39085E+03  1.14232E+04 -1.47418E+04  3.03647E+03 -1.39047E+04 -6.27744E+03
 -7.34414E+03 -1.30544E+04  2.49826E+03 -1.52756E+04  8.69015E+03 -9.15854E+03  1.10406E+04 -3.20575E+03
  8.43925E+03  6.00817E+03  1.62692E+03  7.14324E+03 -3.39307E+03  5.80297E+03 -5.67916E+03 -6.27454E+02
 -3.41818E+03 -5.41202E+03  2.52650E+03 -5.52665E+03  6.13423E+03 -3.07406E+03  6.46572E+03  1.29842E+03
  4.04323E+03  3.14559E+03  1.13815E+03  1.74230E+03 -1.00424E+03  1.73816E+03  1.75158E+03 -1.23188E+03
  1.70051E+03 -7.17989E+02  5.07503E+03  2.33916E+03  2.57699E+03  6.94486E+03 -8.07726E+02  8.96933E+03
 -5.37744E+03  5.84952E+03 -8.65527E+03  1.82019E+03 -8.72808E+03 -2.67475E+03 -3.03687E+03 -4.92994E+03
  8.51662E+02 -6.14268E+03  3.61552E+03 -2.51380E+03  3.46936E+03  2.89037E+03 -1.10630E+03  4.30091E+03
 -5.71094E+03  1.80488E+03 -6.32705E+03 -2.99695E+03 -3.81514E+03 -7.43030E+03  1.37439E+03 -8.13953E+03
  4.23138E+03 -4.38426E+03  5.54317E+03 -5.75743E+02  3.95915E+03  1.31274E+03  8.01752E+02  4.39453E+03
 -2.24611E+03  3.74834E+02 -3.15488E+03 -2.73416E+03  1.66347E+03 -5.81431E+03  6.71318E+03 -4.87529E+03
  8.88817E+03  1.10845E+03  8.69186E+03  5.67953E+03  2.13480E+03  8.80666E+03 -3.20588E+03  7.57806E+03
 -7.77985E+03  3.06224E+03 -7.58057E+03 -1.22435E+03 -4.70756E+03 -5.62916E+03  1.38276E+03 -5.49726E+03
  5.40106E+03 -1.96132E+03  4.81184E+03  3.55733E+03  1.55559E+03  4.09811E+03 -4.20688E+02  4.56018E+03
 -2.29733E+03  2.97736E+03 -1.74352E+03  5.94624E+02 -4.02881E+02  1.26958E+03 -1.98901E+03  1.51734E+03
 -2.29713E+03  3.20338E+03 -5.99987E+03  3.03241E+03 -8.70385E+03  9.27633E+02 -9.14309E+03 -6.04405E+03
 -4.30912E+03 -1.13866E+04  1.52099E+03 -1.39763E+04  8.66917E+03 -1.03679E+04  1.33863E+04 -4.48670E+03
  1.21802E+04  2.92455E+03  6.75382E+03  8.18279E+03  1.13230E+03  9.14886E+03 -2.95700E+03  6.44740E+03
 -5.53012E+03  3.02868E+03 -2.94381E+03 -8.80475E+02 -6.47732E+02 -5.76137E+02 -1.15232E+03  1.81847E+01
 -2.14505E+03  6.30773E+02 -1.60656E+03 -7.18486E+02 -9.41287E+02 -2.29059E+03  7.14092E+02 -3.16108E+03
  3.74390E+03 -3.15169E+03  5.23662E+03 -1.03314E+02  6.38862E+03  4.55500E+03  1.62601E+03  8.93778E+03
 -4.43969E+03  1.03056E+04 -9.24230E+03  6.14666E+03 -1.24678E+04 -1.17078E+03 -8.44229E+03 -7.15831E+03
 -3.19699E+03 -9.30056E+03  2.30140E+03 -8.21294E+03  6.51451E+03 -5.12891E+03  5.75249E+03 -1.91137E+02
  2.69705E+03  2.70901E+03 -5.06081E+02  3.37905E+03 -7.48051E+02  6.34529E+01  6.00027E+02 -2.88243E+03
  3.41646E+03 -7.92835E+02  3.38132E+03  8.71689E+02  2.74587E+03  3.29065E+03  1.06425E+02  4.78325E+03
 -4.01946E+03  4.84459E+03 -5.65107E+03  1.54693E+02 -5.79897E+03 -4.74999E+03 -3.26895E+02 -7.41607E+03
  3.43735E+03 -7.33348E+03  6.66707E+03 -1.58255E+03  6.81247E+03  1.79892E+03  4.33359E+03  5.49151E+03
  3.55569E+02  5.80993E+03 -1.86248E+03  4.30559E+03 -3.65062E+03  2.61678E+03 -2.66106E+03  3.49544E+02
 -1.74754E+03 -1.52338E+02 -2.24630E+03  1.26970E+03 -3.62596E+03  3.99719E+02 -4.47428E+03 -9.80478E+02
 -5.15597E+03 -2.50528E+03 -1.51314E+03 -5.93736E+03  3.38381E+03 -6.30959E+03  4.90573E+03 -2.30778E+03
  6.40808E+03  1.08574E+03  3.06963E+03  3.86635E+03 -5.42454E+02  6.25242E+03 -5.26558E+03  4.27066E+03
