 $NMID ID='MM_0lb_SNR400_11hz_g55_93.RAW', FMTDAT='(8E13.5)'
 TRAMP=1., VOLUME=1. $END
  3.09546E+05  6.83521E+01  3.38136E+05  2.50720E+05  8.49280E+04  3.38169E+05 -1.32452E+05  2.52066E+05
 -1.90527E+05  8.38060E+04 -1.12258E+05 -3.26763E+04 -1.33080E+02 -5.04123E+04  5.34993E+04 -2.98502E+02
  3.54290E+04  5.30748E+04 -1.67193E+04  7.62899E+04 -6.10294E+04  6.49563E+04 -8.52658E+04  3.18096E+04
 -8.18755E+04 -1.17940E+04 -5.79651E+04 -5.27163E+04 -1.47346E+04 -7.03881E+04  2.81604E+04 -4.69995E+04
  4.05825E+04  3.52307E+03  1.71538E+04  4.78426E+04 -3.48051E+04  4.69241E+04 -6.75492E+04 -1.58984E+02
 -5.38833E+04 -5.76158E+04 -7.18102E+03 -7.86121E+04  3.48509E+04 -5.65572E+04  4.94060E+04 -1.87882E+04
  4.41657E+04  1.12633E+04  3.20471E+04  2.58777E+04  1.60789E+04  3.10442E+04 -5.87524E+03  2.77798E+04
 -2.27669E+04  1.23580E+04 -1.82335E+04 -5.58893E+03  6.46874E+03 -7.99500E+03  2.33999E+04  1.29854E+04
  7.34810E+03  3.74492E+04 -3.35475E+04  3.69198E+04 -6.48337E+04  2.13035E+03 -5.84053E+04 -4.33771E+04
 -1.24197E+04 -6.53466E+04  4.11436E+04 -4.68817E+04  6.06909E+04 -2.76381E+03  3.52366E+04  3.37732E+04
 -5.63620E+03  3.90904E+04 -3.15056E+04  1.77613E+04 -3.19950E+04 -3.66884E+03 -1.85048E+04 -1.19555E+04
 -9.16629E+03 -1.42794E+04 -1.00278E+03 -1.99954E+04  8.21017E+03 -2.35696E+04  1.54616E+04 -1.30798E+04
  1.08678E+04  5.50207E+03 -1.02005E+04  1.30720E+04 -2.38214E+04 -5.57060E+03 -8.22602E+03 -3.56600E+04
  2.45560E+04 -4.58087E+04  5.13927E+04 -2.04289E+04  4.79900E+04  2.00337E+04  1.61144E+04  4.64156E+04
 -1.68134E+04  3.55322E+04 -2.69509E+04  2.96100E+03 -1.11531E+04 -2.91085E+04  2.07418E+04 -3.62626E+04
  4.39423E+04 -1.08605E+04  3.94708E+04  2.44417E+04  2.01263E+04  4.92083E+04 -8.74124E+03  5.38614E+04
 -3.50050E+04  3.68964E+04 -4.62872E+04  1.09303E+04 -4.63390E+04 -1.77002E+04 -2.54818E+04 -4.08525E+04
  8.36813E+03 -4.08167E+04  3.32347E+04 -1.69707E+04  3.12719E+04  1.07075E+04  4.40295E+03  2.01868E+04
 -1.37285E+04  8.75646E+03 -1.09527E+04 -7.73452E+03  5.00637E+03 -1.06864E+04  1.91973E+04  5.82797E+03
  1.40310E+04  2.20638E+04 -5.06537E+03  2.68178E+04 -2.30762E+04  1.31343E+04 -3.02808E+04 -4.08036E+03
 -2.40073E+04 -1.83949E+04 -1.09213E+04 -2.42071E+04  4.24163E+03 -2.30422E+04  1.85010E+04 -2.25999E+04
  3.03306E+04 -1.35337E+04  3.65184E+04  4.50767E+03  2.60661E+04  2.29479E+04  4.70710E+03  3.92661E+04
 -1.97545E+04  3.32938E+04 -2.88332E+04  1.10190E+04 -2.22397E+04 -9.68611E+03 -4.75441E+03 -1.27636E+04
  6.04851E+02 -1.78982E+03 -6.50776E+03  8.09821E+03 -1.97439E+04  5.09241E+03 -1.96417E+04 -8.84914E+03
 -1.22787E+04 -2.20822E+04  5.55127E+03 -2.61783E+04  1.87976E+04 -1.84490E+04  2.21097E+04 -1.48868E+03
  1.35840E+04  1.50139E+04 -1.29704E+03  2.22692E+04 -1.62785E+04  1.24172E+04 -2.25198E+04 -4.67405E+03
 -1.55648E+04 -1.93647E+04 -2.60311E+03 -2.67933E+04  1.16944E+04 -2.14802E+04  2.20290E+04 -1.11719E+04
  2.04934E+04  3.61336E+02  1.52371E+04  4.87646E+03  8.14423E+03  1.35247E+03  1.16660E+04 -1.82833E+03
  2.06422E+04  2.56318E+03  2.26432E+04  1.68201E+04  1.61060E+04  3.59815E+04 -2.66414E+03  4.11706E+04
 -2.40153E+04  3.33054E+04 -3.90248E+04  1.73871E+04 -4.14665E+04 -3.18827E+03 -3.29530E+04 -2.37143E+04
 -1.33098E+04 -3.45392E+04  1.28252E+04 -3.04715E+04  2.61612E+04 -1.46812E+04  2.20153E+04  8.09878E+03
  8.01957E+03  1.75752E+04 -1.16349E+04  1.49381E+04 -1.95900E+04  2.08296E+03 -1.43663E+04 -1.23584E+04
 -6.88011E+02 -1.85059E+04  9.15576E+03 -1.35635E+04  1.23549E+04 -1.26757E+03  2.82470E+03  8.26535E+03
 -7.87419E+03  3.42242E+03 -7.59526E+03 -6.03317E+03 -1.72512E+03 -1.67666E+04  1.08292E+04 -1.77125E+04
  2.06264E+04 -1.06689E+04  2.33194E+04  2.60901E+03  2.03815E+04  1.68887E+04  9.75854E+03  2.66772E+04
 -3.70740E+03  2.80164E+04 -1.84620E+04  1.75497E+04 -2.05322E+04  3.78199E+03 -1.42912E+04 -5.14077E+03
 -6.47277E+03 -7.54570E+03 -1.10610E+03  4.96448E+02 -2.91418E+03  2.97010E+03 -6.69326E+03  5.01285E+03
 -1.30362E+04 -1.32920E+03 -1.38802E+04 -1.08411E+04 -5.37481E+03 -1.84458E+04  6.18148E+03 -1.40498E+04
  1.25573E+04 -6.22680E+03  9.08487E+03  3.53767E+03 -1.68493E+02  5.16438E+03 -7.26599E+03  3.26584E+01
 -6.75861E+03 -8.93329E+03 -1.88942E+02 -1.45839E+04  7.48626E+03 -1.47378E+04  1.83421E+04 -8.01754E+03
  2.11635E+04  1.21665E+03  1.52008E+04  1.26147E+04  3.15028E+03  1.71684E+04 -9.12795E+03  1.35777E+04
 -1.14565E+04  4.33571E+03 -6.11547E+03 -3.90028E+03  1.97619E+03 -4.14834E+03  7.76906E+03 -1.13539E+03
  6.85323E+03  6.30840E+03  1.21806E+03  1.13129E+04 -8.79692E+03  1.02642E+04 -1.40831E+04  2.58388E+03
 -8.94662E+03 -6.91079E+03  1.12448E+02 -1.19559E+04  7.64104E+03 -6.77846E+03  7.65057E+03  3.04555E+03
  1.18234E+03  9.33345E+03 -7.23546E+03  9.56429E+03 -1.17285E+04  3.84785E+03 -1.19661E+04 -4.39002E+03
 -7.34124E+03 -1.31389E+04  2.95551E+03 -1.61263E+04  1.36438E+04 -9.42696E+03  1.43364E+04  3.26234E+03
  8.29147E+03  1.21337E+04 -1.33960E+03  1.35863E+04 -1.02078E+04  8.56744E+03 -1.13510E+04 -1.21363E+03
 -9.71929E+03 -1.03085E+04 -1.65703E+03 -1.09318E+04  4.97406E+03 -8.81085E+03  6.98804E+03 -3.90855E+03
  4.72305E+03  1.45408E+03 -1.44393E+03  1.43541E+03 -8.95054E+02 -2.71652E+03  2.36183E+03 -6.96671E+03
  1.02037E+04 -3.82931E+03  1.36531E+04  1.40922E+03  1.31607E+04  8.96224E+03  8.62580E+03  1.75829E+04
 -3.46231E+03  2.05673E+04 -1.73408E+04  1.57107E+04 -2.19001E+04  2.37394E+03 -1.81716E+04 -7.53466E+03
 -9.12955E+03 -1.44322E+04 -1.22704E+03 -1.22873E+04  4.96809E+03 -6.69971E+03  4.20110E+03 -3.81673E+03
  3.47521E+03 -2.80906E+03  3.51222E+03 -3.90285E+03  5.29476E+03 -3.15395E+03  7.09166E+03 -7.72905E+02
  9.33421E+03  2.45799E+03  4.72256E+03  7.57906E+03 -1.77359E+03  9.62169E+03 -9.62452E+03  7.54424E+03
 -1.22703E+04 -8.83903E+02 -7.61931E+03 -8.93637E+03 -1.05585E+03 -1.31395E+04  7.07679E+03 -1.39995E+04
  1.39521E+04 -6.84336E+03  1.62362E+04  2.10582E+03  1.11950E+04  1.11308E+04  2.99253E+03  1.51289E+04
 -6.51744E+03  1.24650E+04 -9.00231E+03  4.23610E+03 -5.91577E+03 -1.49344E+03 -2.18446E+03 -1.60175E+03
 -1.01450E+03 -1.39048E+02 -2.29810E+03  2.38721E+03 -4.63747E+03  2.17794E+03 -8.29268E+03 -7.75193E+02
 -5.32830E+03 -8.58493E+03  3.59718E+02 -1.20290E+04  7.33422E+03 -1.04042E+04  1.22790E+04 -4.27318E+03
  1.20820E+04  5.91052E+03  5.76724E+03  1.10043E+04 -2.45780E+03  1.30296E+04 -8.51328E+03  7.43570E+03
 -1.11742E+04  9.15807E+02 -8.41913E+03 -6.80359E+03 -8.98186E+02 -9.33215E+03  5.14710E+03 -7.43745E+03
  7.39356E+03 -2.49307E+03  5.49015E+03  2.30713E+03  2.24391E+03  3.21325E+03  9.07152E+02  1.92046E+03
  2.24418E+03  1.50929E+03  3.09170E+03  1.79412E+03  2.55141E+03  4.48689E+03  4.08275E+03  6.24186E+03
 -2.53967E+03  9.66829E+03 -8.05065E+03  1.00458E+04 -1.18475E+04  2.47531E+03 -1.29853E+04 -4.69840E+03
 -6.12369E+03 -1.22694E+04  2.05900E+03 -1.34671E+04  6.65069E+03 -8.59466E+03  1.02764E+04 -2.07866E+03
  7.57642E+03  4.59688E+03  1.90135E+03  6.45719E+03 -3.66086E+03  4.30381E+03 -5.43652E+03  2.79700E+02
 -2.23867E+03 -4.98555E+03  2.77398E+03 -5.31942E+03  4.79608E+03 -2.12013E+03  4.79808E+03  1.14139E+03
  3.05539E+03  2.69455E+03  1.12533E+03  1.68929E+03 -1.47189E+03  2.39470E+03  2.50472E+03 -4.28903E+02
  2.24516E+03 -5.52523E+02  5.24917E+03  2.00887E+03  1.79931E+03  6.52879E+03 -6.56166E+02  8.27648E+03
 -5.22611E+03  5.88228E+03 -6.82429E+03  1.25202E+03 -6.62568E+03 -2.07635E+03 -2.97587E+03 -4.85207E+03
  8.02509E+02 -4.92191E+03  3.60999E+03 -1.77651E+03  2.33453E+03  2.66662E+03 -1.05519E+03  3.74697E+03
 -4.86005E+03  2.33931E+03 -5.44874E+03 -3.18791E+03 -3.12241E+03 -6.54896E+03  7.18796E+02 -6.55690E+03
  4.08783E+03 -3.28304E+03  4.59892E+03 -4.65603E+02  4.06628E+03  1.55571E+03  1.09295E+03  3.69337E+03
 -1.71786E+03  4.05713E+02 -3.75678E+03 -2.03883E+03  7.32717E+02 -4.77759E+03  5.80320E+03 -4.09842E+03
  7.04100E+03  7.14292E+02  6.95888E+03  4.84557E+03  2.45249E+03  6.73362E+03 -3.26208E+03  7.19469E+03
 -5.59319E+03  2.42287E+03 -6.45213E+03 -8.04011E+02 -3.70692E+03 -4.62251E+03  9.59186E+02 -3.99098E+03
  5.23738E+03 -2.31311E+03  3.84385E+03  1.69843E+03  1.17578E+03  3.99075E+03 -3.28329E+02  3.27842E+03
 -2.51584E+03  2.05230E+03 -2.17883E+03  5.48394E+02 -4.30443E+02  4.28891E+02 -1.30342E+03  9.16260E+02
 -1.65269E+03  2.96680E+03 -5.09032E+03  2.69651E+03 -6.73802E+03  2.02234E+02 -7.26366E+03 -4.66886E+03
 -3.71856E+03 -9.82480E+03  1.55707E+03 -1.11287E+04  7.61732E+03 -9.05599E+03  1.10965E+04 -3.58151E+03
  1.00204E+04  1.75222E+03  6.40386E+03  6.21035E+03  2.54038E+02  7.03183E+03 -3.02089E+03  6.36935E+03
 -4.60269E+03  2.43198E+03 -2.87580E+03 -1.52558E+03 -1.05287E+03 -1.35002E+03 -4.39837E+02 -3.60578E+02
 -1.50450E+03 -5.91645E+02 -2.59179E+03 -1.78705E+02 -1.02212E+03 -2.02824E+03 -8.01309E+02 -2.84435E+03
  3.71691E+03 -2.88165E+03  4.12623E+03  1.97781E+02  4.39847E+03  4.30944E+03  1.16719E+03  6.70884E+03
 -3.77188E+03  8.67622E+03 -7.45838E+03  5.32562E+03 -8.83183E+03 -9.63021E+02 -6.09243E+03 -4.42954E+03
 -2.52278E+03 -6.72893E+03  2.11238E+03 -6.75449E+03  4.14766E+03 -3.03831E+03  5.25991E+03  9.24015E+02
  2.47798E+03  2.13811E+03 -6.76719E+02  1.68372E+03 -1.17033E+03  7.46768E+01  1.60029E+02 -2.04720E+03
  1.90516E+03 -3.44055E+02  2.61574E+03  1.45246E+03  2.41339E+03  2.52668E+03  1.00867E+03  3.82508E+03
 -2.72625E+03  3.77279E+03 -4.55510E+03  4.43916E+02 -4.73820E+03 -3.32005E+03 -6.40379E+02 -6.18837E+03
  3.43001E+03 -5.00589E+03  4.85510E+03 -1.85323E+03  5.44008E+03  1.17691E+03  3.01358E+03  4.56496E+03
  8.90659E+02  4.93448E+03 -1.35969E+03  2.95417E+03 -2.70037E+03  1.92685E+03 -3.52775E+03 -2.71569E+02
 -1.45030E+03  8.07021E+01 -1.53634E+03  8.15895E+02 -2.99595E+03  1.02762E+03 -3.66380E+03 -1.44558E+03
 -3.30267E+03 -1.48253E+03 -6.92305E+02 -5.05431E+03  1.85951E+03 -5.79091E+03  4.04220E+03 -1.69826E+03
  4.93028E+03  1.14880E+03  2.05206E+03  2.93727E+03  2.19172E+02  4.56252E+03 -3.49238E+03  3.24024E+03
