 $NMID ID='MM_0lb_SNR400_7hz_g55_44.RAW', FMTDAT='(8E13.5)'
 TRAMP=1., VOLUME=1. $END
  3.09820E+05 -9.74920E+02  3.37574E+05  2.51263E+05  8.50229E+04  3.39069E+05 -1.32996E+05  2.52386E+05
 -1.91020E+05  8.36640E+04 -1.11932E+05 -3.21723E+04 -6.77088E+02 -5.13587E+04  5.42054E+04 -1.00750E+03
  3.57985E+04  5.32224E+04 -1.66132E+04  7.61872E+04 -6.23543E+04  6.43600E+04 -8.49975E+04  3.29979E+04
 -8.28489E+04 -1.14600E+04 -5.88583E+04 -5.25466E+04 -1.56190E+04 -7.25486E+04  2.90048E+04 -4.73924E+04
  4.23378E+04  2.56840E+03  1.76656E+04  4.82110E+04 -3.55137E+04  4.92554E+04 -6.85094E+04  3.73932E+02
 -5.53189E+04 -5.79438E+04 -8.82250E+03 -8.07003E+04  3.47213E+04 -5.82248E+04  5.13037E+04 -1.92082E+04
  4.66030E+04  1.19507E+04  3.33370E+04  2.78200E+04  1.51629E+04  3.07236E+04 -6.30789E+03  2.76496E+04
 -2.25018E+04  1.17350E+04 -1.85335E+04 -6.15276E+03  8.16289E+03 -8.07352E+03  2.38782E+04  1.46558E+04
  8.20738E+03  3.82604E+04 -3.43694E+04  3.78815E+04 -6.65853E+04  2.72146E+03 -5.95379E+04 -4.58724E+04
 -1.28058E+04 -6.67207E+04  4.21864E+04 -4.80870E+04  6.26740E+04 -3.39851E+03  3.80994E+04  3.49149E+04
 -5.14598E+03  4.20086E+04 -3.29674E+04  2.04487E+04 -3.41044E+04 -3.39331E+03 -2.09709E+04 -1.28617E+04
 -1.13249E+04 -1.64686E+04  2.78632E+02 -2.00096E+04  9.14616E+03 -2.36225E+04  1.54798E+04 -1.21587E+04
  1.04993E+04  6.48780E+03 -1.20742E+04  1.32181E+04 -2.37598E+04 -7.70184E+03 -8.83649E+03 -3.94153E+04
  2.65572E+04 -4.83986E+04  5.43697E+04 -2.15123E+04  5.00749E+04  2.09983E+04  1.75729E+04  4.85584E+04
 -1.74626E+04  3.70560E+04 -2.92936E+04  1.97715E+03 -1.37196E+04 -3.07897E+04  2.19403E+04 -3.81097E+04
  4.63908E+04 -1.31707E+04  4.34707E+04  2.59936E+04  2.37456E+04  5.30846E+04 -8.66641E+03  5.90013E+04
 -3.78015E+04  3.99974E+04 -5.04588E+04  1.20804E+04 -4.98678E+04 -1.92873E+04 -2.78125E+04 -4.42163E+04
  7.91132E+03 -4.44945E+04  3.62336E+04 -1.80792E+04  3.32869E+04  1.06920E+04  6.15640E+03  2.15472E+04
 -1.43383E+04  9.56984E+03 -1.17524E+04 -7.51665E+03  5.13478E+03 -1.08653E+04  1.92326E+04  4.13866E+03
  1.56068E+04  2.33878E+04 -4.34825E+03  2.92182E+04 -2.42058E+04  1.59052E+04 -3.38652E+04 -2.52184E+03
 -2.82331E+04 -1.95523E+04 -1.29950E+04 -2.62070E+04  4.53453E+03 -2.92471E+04  2.16797E+04 -2.57853E+04
  3.47378E+04 -1.47147E+04  4.13754E+04  5.01434E+03  2.89116E+04  2.72571E+04  4.38353E+03  4.30809E+04
 -2.11982E+04  3.54461E+04 -3.16930E+04  1.15413E+04 -2.37927E+04 -1.03909E+04 -5.73657E+03 -1.29608E+04
  4.21607E+01 -8.33712E+02 -8.77214E+03  9.59691E+03 -2.17733E+04  4.76109E+03 -2.18223E+04 -1.13982E+04
 -1.24571E+04 -2.59064E+04  6.43677E+03 -3.03894E+04  1.96755E+04 -2.19442E+04  2.42517E+04 -1.44587E+03
  1.55974E+04  1.78646E+04 -6.17424E+02  2.55857E+04 -1.85115E+04  1.51158E+04 -2.61216E+04 -5.41136E+03
 -1.93483E+04 -2.35606E+04 -2.13842E+03 -3.11239E+04  1.40705E+04 -2.52082E+04  2.48087E+04 -1.30491E+04
  2.40898E+04 -3.07603E+02  1.76624E+04  5.96515E+03  9.51982E+03  7.05945E+02  1.29893E+04 -2.75751E+03
  2.36756E+04  2.19070E+03  2.82643E+04  1.95528E+04  1.89124E+04  4.12664E+04 -2.51435E+03  5.03140E+04
 -2.89443E+04  4.13096E+04 -4.63465E+04  2.25123E+04 -5.14630E+04 -4.32672E+03 -3.99381E+04 -2.86269E+04
 -1.52547E+04 -4.23099E+04  1.59245E+04 -3.63929E+04  3.19151E+04 -1.72429E+04  2.77424E+04  8.52558E+03
  8.99295E+03  2.16345E+04 -1.24771E+04  1.69405E+04 -2.27974E+04  2.87039E+03 -1.74192E+04 -1.30874E+04
 -1.18595E+03 -2.13556E+04  1.17618E+04 -1.53422E+04  1.46834E+04 -1.24971E+03  4.69380E+03  1.07711E+04
 -9.37087E+03  4.66795E+03 -1.21346E+04 -8.19589E+03 -2.76779E+03 -2.08822E+04  1.32231E+04 -2.36211E+04
  2.58761E+04 -1.33081E+04  3.04677E+04  2.73362E+03  2.67325E+04  2.23124E+04  1.32535E+04  3.42538E+04
 -7.17115E+03  3.70137E+04 -2.44118E+04  2.17165E+04 -2.66264E+04  4.75666E+03 -1.75876E+04 -7.21564E+03
 -8.02659E+03 -6.75464E+03 -1.24467E+03  4.59084E+02 -2.96565E+03  2.71602E+03 -8.53717E+03  6.20610E+03
 -1.64673E+04 -1.97684E+03 -1.81089E+04 -1.27849E+04 -6.85997E+03 -2.31039E+04  8.05950E+03 -1.85368E+04
  1.51316E+04 -6.73954E+03  1.12571E+04  5.93476E+03 -2.69907E+02  8.10452E+03 -9.36221E+03 -2.67435E+02
 -9.57945E+03 -1.18795E+04 -1.37286E+03 -1.81266E+04  1.13191E+04 -1.89999E+04  2.38281E+04 -1.08935E+04
  2.76358E+04  3.05190E+03  1.89914E+04  1.77463E+04  3.76646E+03  2.25979E+04 -1.15714E+04  1.79159E+04
 -1.42327E+04  6.16460E+03 -8.08061E+03 -4.25657E+03  1.92596E+03 -5.21058E+03  8.86249E+03 -1.00819E+03
  8.08543E+03  8.79762E+03  1.24526E+03  1.50632E+04 -1.12375E+04  1.41985E+04 -1.74441E+04  2.51498E+03
 -1.31293E+04 -9.70053E+03 -8.78903E+02 -1.60052E+04  1.06742E+04 -8.35566E+03  1.19777E+04  4.33975E+03
  2.86140E+03  1.33323E+04 -9.64131E+03  1.41935E+04 -1.67053E+04  5.73825E+03 -1.72442E+04 -6.99212E+03
 -1.03076E+04 -1.86655E+04  4.31999E+03 -2.14664E+04  1.88513E+04 -1.24766E+04  2.10581E+04  3.57551E+03
  1.13880E+04  1.66985E+04 -2.72702E+03  1.87082E+04 -1.51383E+04  1.03133E+04 -1.60449E+04 -2.05160E+03
 -1.29793E+04 -1.24288E+04 -1.33675E+03 -1.37782E+04  6.70516E+03 -1.09315E+04  9.20131E+03 -4.28234E+03
  6.05326E+03  2.68670E+03 -1.43448E+03  1.48376E+03 -1.14298E+03 -4.64455E+03  4.21867E+03 -1.00319E+04
  1.41024E+04 -6.81757E+03  1.99910E+04  2.14749E+03  1.99660E+04  1.35043E+04  1.17962E+04  2.69274E+04
 -6.01008E+03  2.99838E+04 -2.39487E+04  2.21843E+04 -3.12277E+04  4.54633E+03 -2.54855E+04 -1.13188E+04
 -1.22004E+04 -2.13802E+04 -2.84722E+02 -1.83689E+04  6.04113E+03 -1.05048E+04  6.46111E+03 -6.67143E+03
  4.44362E+03 -3.16093E+03  4.66363E+03 -3.47150E+03  6.91742E+03 -4.46324E+03  1.02623E+04 -2.26928E+03
  1.40001E+04  3.14852E+03  6.76249E+03  1.14730E+04 -2.49474E+03  1.45930E+04 -1.37813E+04  1.04481E+04
 -1.83484E+04 -4.78418E+02 -1.21484E+04 -1.32530E+04 -2.71424E+03 -2.02171E+04  1.09134E+04 -1.95139E+04
  2.08475E+04 -1.06661E+04  2.45273E+04  2.65279E+03  1.72527E+04  1.79807E+04  2.56902E+03  2.15950E+04
 -1.05677E+04  1.76896E+04 -1.41560E+04  6.65015E+03 -8.02236E+03 -1.54338E+03 -4.15225E+03 -2.95847E+03
 -1.30833E+03 -2.04904E+02 -1.91390E+03  3.08623E+03 -7.91795E+03  2.80238E+03 -1.14259E+04 -1.13841E+03
 -1.00688E+04 -1.29056E+04 -7.72067E+02 -1.87222E+04  1.17143E+04 -1.68462E+04  2.08284E+04 -5.95700E+03
  1.91410E+04  8.82695E+03  7.95855E+03  1.71224E+04 -4.70805E+03  1.96932E+04 -1.36945E+04  1.25422E+04
 -1.85336E+04  1.47026E+00 -1.43001E+04 -1.28301E+04 -1.85452E+03 -1.54710E+04  8.84194E+03 -1.21990E+04
  1.24293E+04 -4.91159E+03  8.25812E+03  3.82320E+03  2.79678E+03  4.68766E+03  1.19277E+03  2.56726E+03
  2.66044E+03 -1.17084E+02  4.42434E+03  1.72256E+03  5.32204E+03  6.98960E+03  4.99471E+03  1.01075E+04
 -4.73044E+03  1.56195E+04 -1.44074E+04  1.48083E+04 -2.08239E+04  4.20290E+03 -2.11310E+04 -9.49375E+03
 -1.02489E+04 -1.92707E+04  4.54349E+03 -2.21192E+04  1.20066E+04 -1.33421E+04  1.76224E+04 -3.73559E+03
  1.20566E+04  6.64278E+03  2.15781E+03  1.15613E+04 -6.02807E+03  7.82003E+03 -8.42875E+03 -8.43185E+02
 -3.49679E+03 -8.62001E+03  4.11953E+03 -9.43754E+03  8.64238E+03 -3.98257E+03  8.26964E+03  2.11313E+03
  5.68297E+03  4.85905E+03  1.99617E+03  3.51033E+03 -1.43013E+03  1.57861E+03  1.55631E+03 -1.00996E+03
  3.55254E+03 -5.05639E+02  8.56491E+03  3.13317E+03  4.92739E+03  1.11095E+04 -1.73362E+03  1.41136E+04
 -9.83799E+03  9.97023E+03 -1.31852E+04  3.18338E+03 -1.25539E+04 -4.50829E+03 -4.37278E+03 -8.95266E+03
  8.66549E+02 -8.70957E+03  6.22257E+03 -3.63016E+03  4.80114E+03  3.24201E+03 -1.36094E+03  6.91804E+03
 -9.21607E+03  3.39351E+03 -1.04040E+04 -4.71346E+03 -5.54571E+03 -1.13742E+04  1.58645E+03 -1.19081E+04
  6.66701E+03 -7.19692E+03  9.08265E+03 -6.52716E+02  7.16672E+03  2.65118E+03  5.58969E+02  6.09027E+03
 -4.78435E+03  2.06435E+03 -5.59297E+03 -4.61134E+03  1.50142E+03 -8.99919E+03  1.00044E+04 -6.84209E+03
  1.45779E+04  1.15993E+03  1.34195E+04  9.12541E+03  3.63500E+03  1.47367E+04 -5.40662E+03  1.37330E+04
 -1.20922E+04  6.42893E+03 -1.26096E+04 -1.35605E+03 -6.27928E+03 -9.70011E+03  2.64748E+03 -9.41858E+03
  9.63256E+03 -4.64072E+03  7.62438E+03  3.69138E+03  2.33934E+03  7.82105E+03 -1.41502E+03  7.78512E+03
 -3.89568E+03  4.20735E+03 -3.71186E+03  1.13035E+03 -1.81759E+03  1.27822E+03 -1.77855E+03  3.00730E+03
 -2.30562E+03  5.68860E+03 -9.57497E+03  5.86780E+03 -1.40886E+04  2.24192E+02 -1.62594E+04 -9.82783E+03
 -8.87795E+03 -1.85930E+04  3.00620E+03 -2.12925E+04  1.35881E+04 -1.68766E+04  2.10177E+04 -5.77707E+03
  2.00840E+04  3.44172E+03  1.31240E+04  1.41792E+04  1.74307E+03  1.56498E+04 -5.30253E+03  1.20421E+04
 -8.38885E+03  3.74715E+03 -6.26042E+03 -1.91508E+03 -1.87144E+03 -1.57981E+03 -3.48089E+02 -6.11787E+01
 -2.42271E+03  5.84854E+02 -2.11661E+03 -6.50195E+02 -1.47977E+03 -2.94982E+03  4.78788E+02 -4.88455E+03
  6.61309E+03 -4.46447E+03  9.30691E+03 -4.25150E+02  1.14491E+04  7.65750E+03  3.80156E+03  1.59267E+04
 -7.11560E+03  1.69431E+04 -1.56956E+04  1.09279E+04 -1.91177E+04 -4.31433E+02 -1.38898E+04 -1.09205E+04
 -5.66573E+03 -1.59129E+04  3.99968E+03 -1.50328E+04  9.62311E+03 -8.56117E+03  1.08137E+04 -2.70435E+02
  6.21050E+03  5.17904E+03 -1.22837E+03  3.80446E+03 -2.86677E+03 -1.63591E+02 -5.24436E+02 -3.80997E+03
  4.92515E+03 -2.65905E+03  6.53926E+03  1.57839E+03  4.95030E+03  5.51399E+03  5.18873E+02  8.48040E+03
 -6.36064E+03  7.32130E+03 -1.10858E+04  1.06447E+03 -9.31569E+03 -7.63094E+03 -2.36576E+03 -1.32762E+04
  6.37952E+03 -1.13185E+04  1.32075E+04 -3.27856E+03  1.28345E+04  3.42659E+03  6.92215E+03  8.94165E+03
  1.39811E+03  1.08159E+04 -3.89238E+03  9.16056E+03 -6.72629E+03  4.60412E+03 -5.94106E+03  9.11228E+02
 -2.10163E+03 -8.28820E+02 -3.50557E+03  1.82538E+03 -5.34056E+03  9.47201E+02 -7.49109E+03 -7.25630E+02
 -8.56990E+03 -6.17020E+03 -1.88639E+03 -1.11759E+04  4.70355E+03 -1.11357E+04  9.52503E+03 -6.30542E+03
  9.56947E+03  1.52348E+03  6.17336E+03  8.61229E+03 -1.06136E+03  1.12731E+04 -7.98652E+03  7.41883E+03
