 $NMID ID='MM_0lb_SNR400_14hz_g55_44.RAW', FMTDAT='(8E13.5)'
 TRAMP=1., VOLUME=1. $END
  3.10068E+05  1.24708E+02  3.37286E+05  2.50244E+05  8.51826E+04  3.37594E+05 -1.33324E+05  2.50484E+05
 -1.90611E+05  8.29485E+04 -1.11936E+05 -3.20910E+04  7.04667E+02 -5.06145E+04  5.39312E+04 -2.15406E+02
  3.52695E+04  5.20460E+04 -1.71884E+04  7.54067E+04 -6.12490E+04  6.37282E+04 -8.41021E+04  3.22890E+04
 -8.12383E+04 -1.16296E+04 -5.74262E+04 -5.18032E+04 -1.47765E+04 -7.05130E+04  2.83493E+04 -4.51109E+04
  4.07224E+04  3.34844E+03  1.62277E+04  4.81028E+04 -3.48061E+04  4.79516E+04 -6.69276E+04 -2.45204E+01
 -5.38169E+04 -5.71198E+04 -6.64601E+03 -7.78650E+04  3.44498E+04 -5.54435E+04  4.86584E+04 -1.71207E+04
  4.38241E+04  1.15736E+04  3.18220E+04  2.54443E+04  1.56941E+04  2.92742E+04 -5.51029E+03  2.71902E+04
 -2.19847E+04  1.31718E+04 -1.79094E+04 -4.87307E+03  5.72589E+03 -7.95385E+03  2.24826E+04  1.21571E+04
  7.40857E+03  3.51047E+04 -3.25336E+04  3.54870E+04 -6.42751E+04  2.74999E+03 -5.77400E+04 -4.37347E+04
 -1.31963E+04 -6.27628E+04  4.02767E+04 -4.60315E+04  5.91579E+04 -1.99361E+03  3.54351E+04  3.18889E+04
 -6.32721E+03  3.64222E+04 -3.01756E+04  1.63807E+04 -3.13717E+04 -4.22788E+03 -1.76779E+04 -1.05198E+04
 -8.37439E+03 -1.35990E+04 -6.34809E+02 -1.83415E+04  7.73388E+03 -2.33294E+04  1.54913E+04 -1.29546E+04
  1.18871E+04  5.61859E+03 -8.75359E+03  1.33762E+04 -2.19987E+04 -5.31217E+03 -8.46725E+03 -3.42641E+04
  2.34172E+04 -4.38683E+04  4.85535E+04 -1.92316E+04  4.56640E+04  1.93884E+04  1.58422E+04  4.45268E+04
 -1.55745E+04  3.42493E+04 -2.59699E+04  2.95271E+03 -1.09449E+04 -2.79411E+04  2.10825E+04 -3.43742E+04
  4.15526E+04 -9.43900E+03  3.61959E+04  2.38794E+04  1.86791E+04  4.69505E+04 -7.89576E+03  5.10712E+04
 -3.18645E+04  3.48376E+04 -4.32470E+04  1.00113E+04 -4.32614E+04 -1.70964E+04 -2.40233E+04 -3.92820E+04
  7.95122E+03 -3.81116E+04  3.17991E+04 -1.53651E+04  2.97607E+04  1.09073E+04  3.55313E+03  1.95729E+04
 -1.31602E+04  9.14726E+03 -1.04259E+04 -6.97065E+03  5.97161E+03 -1.11520E+04  1.80961E+04  5.96873E+03
  1.34760E+04  2.10795E+04 -5.20779E+03  2.50864E+04 -2.28091E+04  1.21166E+04 -2.87373E+04 -4.27164E+03
 -2.17148E+04 -1.76853E+04 -9.76114E+03 -2.11615E+04  4.36134E+03 -2.04389E+04  1.69480E+04 -1.88048E+04
  2.71746E+04 -1.36681E+04  3.36731E+04  3.34475E+03  2.44051E+04  2.05071E+04  4.17465E+03  3.64340E+04
 -1.83467E+04  3.14001E+04 -2.78842E+04  1.07382E+04 -2.17785E+04 -1.05029E+04 -4.08795E+03 -1.37003E+04
  1.72229E+03 -2.47929E+03 -5.63508E+03  6.76388E+03 -1.70448E+04  5.68376E+03 -1.67404E+04 -7.96474E+03
 -1.01115E+04 -1.95509E+04  5.44592E+03 -2.33353E+04  1.54997E+04 -1.73221E+04  1.91152E+04 -9.01990E+02
  1.18326E+04  1.38486E+04 -1.52983E+03  1.88464E+04 -1.39408E+04  1.12876E+04 -1.92301E+04 -4.03771E+03
 -1.45963E+04 -1.78443E+04 -2.18499E+03 -2.40887E+04  1.05301E+04 -1.95418E+04  1.91637E+04 -9.77073E+03
  1.84045E+04  3.15661E+02  1.36593E+04  4.30998E+03  7.10678E+03  3.85282E+02  9.77005E+03 -1.43585E+03
  1.86109E+04  3.56892E+03  2.01082E+04  1.54246E+04  1.27396E+04  3.09905E+04 -3.45082E+03  3.50571E+04
 -2.09783E+04  2.89491E+04 -3.33713E+04  1.49327E+04 -3.53247E+04 -2.34500E+03 -2.84187E+04 -2.01126E+04
 -1.26101E+04 -2.89146E+04  1.00204E+04 -2.55887E+04  2.24124E+04 -1.31514E+04  1.97889E+04  6.02504E+03
  7.60063E+03  1.55967E+04 -9.76357E+03  1.29056E+04 -1.62984E+04  2.20909E+03 -1.27026E+04 -1.04350E+04
 -9.48169E+02 -1.61320E+04  7.97535E+03 -1.19150E+04  1.06453E+04 -1.67017E+03  2.83726E+03  6.42104E+03
 -7.06323E+03  2.85037E+03 -6.49226E+03 -5.82581E+03 -6.59883E+02 -1.42416E+04  9.89586E+03 -1.52300E+04
  1.72707E+04 -7.54157E+03  1.92982E+04  2.74023E+03  1.65091E+04  1.40713E+04  7.52754E+03  2.14114E+04
 -3.05937E+03  2.32257E+04 -1.42763E+04  1.42800E+04 -1.69670E+04  3.45327E+03 -1.20135E+04 -3.19085E+03
 -5.11735E+03 -5.05194E+03 -3.16115E+02  1.39739E+03 -2.67012E+03  2.64895E+03 -6.09126E+03  5.05179E+03
 -1.12630E+04 -7.61479E+02 -1.18070E+04 -8.99251E+03 -5.03377E+03 -1.57210E+04  4.95886E+03 -1.18604E+04
  9.57524E+03 -5.25290E+03  7.16037E+03  3.45986E+03 -2.86952E+01  4.51157E+03 -5.61730E+03  1.75103E+01
 -5.54355E+03 -7.71357E+03 -1.54620E+03 -1.10691E+04  6.01485E+03 -1.24120E+04  1.51013E+04 -6.13803E+03
  1.74017E+04  1.71234E+03  1.29299E+04  1.02514E+04  2.84756E+03  1.32315E+04 -7.51204E+03  1.10840E+04
 -9.50180E+03  2.84290E+03 -4.84511E+03 -2.14760E+03  1.21044E+03 -3.12326E+03  6.63115E+03 -5.68050E+02
  5.40334E+03  5.12348E+03  1.32302E+03  1.00853E+04 -6.82237E+03  8.96991E+03 -1.12997E+04  1.80705E+03
 -7.32027E+03 -5.71357E+03  1.97002E+02 -9.49839E+03  6.15475E+03 -3.91444E+03  6.10568E+03  2.31488E+03
  1.45102E+03  6.89110E+03 -5.64869E+03  7.88398E+03 -9.04042E+03  3.18909E+03 -8.51320E+03 -2.74019E+03
 -5.19587E+03 -9.64310E+03  2.52726E+03 -1.23213E+04  1.02636E+04 -6.98090E+03  1.08139E+04  1.50445E+03
  6.74375E+03  8.58515E+03 -8.33834E+02  1.07814E+04 -7.38986E+03  5.86918E+03 -8.60375E+03 -7.65622E+02
 -7.99988E+03 -7.13942E+03 -1.99139E+03 -8.62284E+03  3.94327E+03 -7.02857E+03  4.94584E+03 -3.35815E+03
  3.38954E+03  8.27533E+02 -3.03593E+02  2.01162E+03  6.58368E+02 -8.08599E+02  1.79054E+03 -3.99403E+03
  7.17643E+03 -2.58738E+03  9.66906E+03  1.08309E+03  9.82508E+03  6.80210E+03  7.33163E+03  1.27974E+04
 -3.23415E+03  1.53813E+04 -1.29865E+04  1.15670E+04 -1.64225E+04  2.24218E+03 -1.32110E+04 -4.69646E+03
 -7.15968E+03 -1.08387E+04 -5.50213E+02 -8.55019E+03  3.43998E+03 -4.77908E+03  3.90898E+03 -3.13166E+03
  2.11114E+03 -2.15198E+03  3.26420E+03 -3.29587E+03  4.45078E+03 -1.97823E+03  5.60415E+03  2.50282E+02
  7.51095E+03  1.40866E+03  2.58462E+03  6.13520E+03 -1.59170E+03  6.84501E+03 -7.49529E+03  5.20113E+03
 -8.60365E+03 -1.10428E+03 -4.88104E+03 -5.58553E+03 -3.72369E+02 -9.18242E+03  5.56976E+03 -9.38875E+03
  9.76602E+03 -4.70873E+03  1.12761E+04  6.74848E+02  8.63645E+03  7.98156E+03  1.02967E+03  1.06667E+04
 -3.78046E+03  8.81780E+03 -5.88394E+03  3.10158E+03 -3.89259E+03 -1.10970E+03 -1.31736E+03 -1.42613E+03
 -6.97755E+02  6.37231E+02 -1.22511E+03  2.57219E+03 -4.28600E+03  1.89878E+03 -5.94781E+03 -7.21001E+02
 -4.34811E+03 -6.66230E+03  2.66697E+02 -8.02458E+03  5.38040E+03 -7.26629E+03  7.74751E+03 -1.69491E+03
  7.94493E+03  3.69301E+03  3.77703E+03  7.09094E+03 -1.71665E+03  8.30555E+03 -5.08795E+03  5.50373E+03
 -7.37546E+03  8.10380E+02 -6.06220E+03 -5.14645E+03 -1.13639E+03 -6.25664E+03  3.21410E+03 -4.84013E+03
  4.59253E+03 -1.01894E+03  3.78851E+03  2.00277E+03  1.29612E+03  2.73136E+03  1.06718E+03  9.77303E+02
  1.85054E+03  3.23852E+02  2.08452E+03  8.52750E+02  2.53494E+03  3.43485E+03  1.97610E+03  4.12108E+03
 -2.02438E+03  5.84249E+03 -5.34295E+03  7.02069E+03 -7.54480E+03  2.11703E+03 -8.19566E+03 -2.91218E+03
 -4.22473E+03 -7.24999E+03  1.60401E+03 -8.99357E+03  3.96609E+03 -5.05369E+03  6.04025E+03 -1.93969E+03
  4.52079E+03  3.44986E+03  1.05906E+03  4.17860E+03 -1.82714E+03  3.00828E+03 -1.91245E+03 -9.43550E+02
 -8.06678E+02 -3.82848E+03  1.96109E+03 -3.33064E+03  3.12273E+03 -1.42469E+03  3.21565E+03  9.14192E+02
  2.35215E+03  1.00315E+03  1.03357E+03  4.50955E+02 -3.68158E+01  8.98150E+02  1.05883E+03  1.69858E+01
  1.46347E+03 -2.72960E+02  3.56195E+03  1.22529E+03  1.06566E+03  4.38091E+03 -1.09469E+03  6.07397E+03
 -3.10610E+03  2.77737E+03 -4.48806E+03  6.32533E+02 -4.32803E+03 -1.39932E+03 -1.50330E+03 -2.58134E+03
  2.93972E+02 -2.88643E+03  1.94074E+03 -1.61597E+03  1.66984E+03  1.63992E+03 -5.34335E+02  3.07481E+03
 -3.77257E+03  1.71557E+03 -3.25457E+03 -2.38200E+03 -2.33909E+03 -4.35693E+03  1.22150E+02 -3.65766E+03
  1.64960E+03 -2.05102E+03  2.77563E+03 -1.09633E+01  2.51060E+03  9.00956E+01  5.50974E+02  2.01183E+03
 -1.59456E+03  8.49008E+02 -2.41697E+03 -1.11979E+03  8.11683E+02 -3.15615E+03  3.57058E+03 -2.47632E+03
  3.92892E+03  5.67569E+02  4.88147E+03  2.23376E+03  2.02618E+03  4.01402E+03 -1.23609E+03  4.06704E+03
 -3.42823E+03  2.25359E+03 -3.87764E+03 -4.60601E+02 -1.95913E+03 -2.90545E+03  6.83862E+02 -2.09899E+03
  2.49696E+03 -1.70189E+03  2.45095E+03  1.05528E+03  6.09161E+02  2.79450E+03 -2.14745E+02  2.55157E+03
 -8.83509E+02  1.66210E+03 -1.84146E+03  5.23221E+02 -6.81446E+02  1.20864E+02 -1.77705E+02  9.40000E+02
 -1.20107E+03  1.95808E+03 -3.17645E+03  1.33681E+03 -4.17685E+03 -2.93365E+02 -5.00993E+03 -2.47954E+03
 -2.32770E+03 -5.74627E+03  1.37169E+03 -6.65761E+03  4.01971E+03 -4.99198E+03  6.41432E+03 -2.60385E+03
  5.66200E+03  1.22077E+03  2.96128E+03  3.19577E+03 -2.12371E+02  4.03141E+03 -1.56264E+03  2.60031E+03
 -2.53859E+03  1.83433E+03 -8.83817E+02 -7.74700E+02 -8.54103E+02  3.24919E+02 -9.16492E+02  2.61665E+02
 -1.49506E+03 -6.28160E+02 -1.71246E+03  4.33957E+02 -1.64765E+02 -6.59567E+02 -1.83931E+02 -1.53593E+03
  2.75933E+03 -1.23886E+03  2.16137E+03 -1.68958E+01  2.54698E+03  2.74774E+03  5.32123E+02  4.44164E+03
 -2.81901E+03  5.31410E+03 -4.75061E+03  2.53182E+03 -4.63035E+03 -1.54290E+02 -3.39302E+03 -3.27359E+03
 -2.06860E+03 -3.88129E+03  5.00708E+02 -3.56647E+03  3.30954E+03 -2.43352E+03  2.43657E+03  8.20177E+01
  1.45306E+03  9.37317E+02  5.92226E+02  1.20706E+03 -1.55143E+03  1.26096E+02  2.87329E+02 -1.07667E+03
  1.13972E+03 -3.58270E+02  1.41041E+03  5.98424E+02  7.61991E+02  9.22014E+02  3.95040E+01  1.87687E+03
 -2.09576E+03  1.39672E+03 -2.63102E+03  2.15808E+02 -1.94510E+03 -1.78774E+03 -3.65223E+02 -3.03385E+03
  1.33786E+03 -2.52525E+03  2.54680E+03 -2.97306E+02  2.16181E+03  3.56719E+02  1.24509E+03  2.05873E+03
  2.14496E+02  1.82539E+03 -7.76791E+02  2.12238E+03 -1.03575E+03  1.01486E+03 -1.61360E+03 -1.03136E+02
 -5.54573E+02 -4.19997E+02 -1.21288E+03  3.13964E+02 -1.34806E+03  5.34612E+01 -1.76673E+03 -9.39623E+02
 -2.61016E+03 -7.32074E+02 -4.24238E+02 -2.91203E+03  1.12251E+03 -3.33558E+03  2.63777E+03 -9.89820E+02
  1.74396E+03  8.88147E+01  1.16581E+03  1.03810E+03 -1.69367E+02  2.10148E+03 -1.29807E+03  8.02215E+02
