 $NMID ID='MM_0lb_SNR400_18hz_g45_55.RAW', FMTDAT='(8E13.5)'
 TRAMP=1., VOLUME=1. $END
  3.10177E+05  5.15069E+02  3.37476E+05  2.50252E+05  8.46911E+04  3.37397E+05 -1.32646E+05  2.49698E+05
 -1.90050E+05  8.28403E+04 -1.11109E+05 -3.22820E+04  1.77571E+03 -5.03278E+04  5.40763E+04  3.59491E+02
  3.44699E+04  5.28686E+04 -1.73851E+04  7.50653E+04 -6.06232E+04  6.27093E+04 -8.31929E+04  3.19272E+04
 -8.00222E+04 -1.09159E+04 -5.67007E+04 -5.04343E+04 -1.45923E+04 -6.81968E+04  2.65011E+04 -4.52503E+04
  3.84483E+04  4.38974E+03  1.51967E+04  4.68536E+04 -3.39090E+04  4.66149E+04 -6.49302E+04 -7.13848E+02
 -5.23828E+04 -5.57825E+04 -6.57028E+03 -7.52460E+04  3.33136E+04 -5.29610E+04  4.62657E+04 -1.58777E+04
  4.15722E+04  1.16388E+04  3.03700E+04  2.47868E+04  1.59552E+04  2.88017E+04 -4.38958E+03  2.69679E+04
 -2.17628E+04  1.25778E+04 -1.93462E+04 -4.75499E+03  4.30328E+03 -7.20276E+03  2.15118E+04  1.09126E+04
  7.86592E+03  3.33631E+04 -3.07799E+04  3.41460E+04 -6.13524E+04  2.15523E+03 -5.49323E+04 -4.14141E+04
 -1.18972E+04 -6.03561E+04  3.80500E+04 -4.36920E+04  5.58012E+04 -2.25378E+03  3.18454E+04  3.06456E+04
 -6.34926E+03  3.28646E+04 -2.83593E+04  1.34758E+04 -2.77196E+04 -5.67441E+03 -1.44347E+04 -1.01451E+04
 -7.04224E+03 -1.13389E+04 -1.33872E+03 -1.63169E+04  6.61948E+03 -2.26285E+04  1.52228E+04 -1.38046E+04
  1.26787E+04  4.33318E+03 -5.95651E+03  1.29208E+04 -1.96138E+04 -3.11615E+03 -7.57970E+03 -3.05823E+04
  2.13097E+04 -4.07225E+04  4.45728E+04 -1.82984E+04  4.19301E+04  1.82895E+04  1.45180E+04  4.14766E+04
 -1.54121E+04  3.10578E+04 -2.28206E+04  9.12934E+02 -8.72675E+03 -2.62106E+04  2.00239E+04 -3.16665E+04
  3.82176E+04 -7.51530E+03  3.18274E+04  2.29850E+04  1.57201E+04  4.28071E+04 -8.24947E+03  4.56977E+04
 -2.84117E+04  2.95395E+04 -3.70651E+04  8.14134E+03 -3.82123E+04 -1.47140E+04 -2.13390E+04 -3.48216E+04
  7.14044E+03 -3.45563E+04  2.86471E+04 -1.26909E+04  2.69354E+04  1.05560E+04  3.01457E+03  1.81186E+04
 -1.30111E+04  7.17288E+03 -9.46201E+03 -7.80100E+03  6.06237E+03 -9.96774E+03  1.70468E+04  6.41804E+03
  1.23127E+04  2.15622E+04 -6.74180E+03  2.36751E+04 -2.11236E+04  9.14943E+03 -2.50887E+04 -6.52850E+03
 -1.76334E+04 -1.63900E+04 -5.90196E+03 -1.63783E+04  3.62808E+03 -1.49266E+04  1.33608E+04 -1.43879E+04
  2.18848E+04 -1.14523E+04  2.82832E+04  1.48637E+03  2.14537E+04  1.60931E+04  4.03894E+03  3.23677E+04
 -1.61472E+04  2.75917E+04 -2.58317E+04  9.38939E+03 -1.94201E+04 -1.09139E+04 -3.75997E+03 -1.44394E+04
  2.67028E+03 -3.63014E+03 -3.17469E+03  5.26756E+03 -1.32063E+04  5.18198E+03 -1.37450E+04 -4.72184E+03
 -8.14563E+03 -1.62504E+04  4.64806E+03 -1.91425E+04  1.25958E+04 -1.41777E+04  1.49566E+04 -1.48674E+03
  8.92411E+03  1.06848E+04 -7.31731E+02  1.58399E+04 -1.04064E+04  8.30420E+03 -1.58848E+04 -4.23843E+03
 -1.16085E+04 -1.42670E+04 -1.21345E+03 -1.92509E+04  8.59115E+03 -1.56501E+04  1.62699E+04 -7.19855E+03
  1.49243E+04  5.22151E+02  1.06317E+04  4.21016E+03  5.64580E+03  2.84980E+02  7.90627E+03 -1.43062E+03
  1.41871E+04  2.96082E+03  1.52777E+04  1.29732E+04  9.10357E+03  2.50845E+04 -3.41744E+03  2.72676E+04
 -1.60629E+04  2.03969E+04 -2.53922E+04  9.73507E+03 -2.52026E+04 -2.43392E+03 -2.18047E+04 -1.45695E+04
 -1.04504E+04 -2.05066E+04  7.12381E+03 -1.93063E+04  1.71348E+04 -1.03406E+04  1.55930E+04  4.15056E+03
  6.86452E+03  1.18563E+04 -6.75153E+03  1.03511E+04 -1.37374E+04  2.35341E+03 -1.00669E+04 -8.53761E+03
  8.38927E+01 -1.26524E+04  6.28494E+03 -9.42135E+03  7.94851E+03 -9.98962E+02  1.44502E+03  5.08412E+03
 -5.83055E+03  1.63175E+03 -3.74946E+03 -4.70452E+03  5.08631E+02 -1.01825E+04  7.59938E+03 -1.09064E+04
  1.24993E+04 -4.87377E+03  1.22475E+04  2.44650E+03  1.08213E+04  9.76294E+03  5.02026E+03  1.44146E+04
 -1.69818E+03  1.63609E+04 -9.79392E+03  1.02659E+04 -1.17835E+04  2.80720E+03 -8.90769E+03 -2.19266E+03
 -5.05118E+03 -3.38777E+03 -4.88468E+02  1.88243E+03 -2.01373E+03  1.98888E+03 -3.05653E+03  3.75316E+03
 -8.04637E+03 -7.06209E+02 -8.74406E+03 -7.28263E+03 -3.68235E+03 -1.12722E+04  3.42989E+03 -8.81582E+03
  7.50021E+03 -4.04327E+03  5.34126E+03  2.57895E+03  5.88768E+02  3.36664E+03 -3.20572E+03 -4.06451E+01
 -3.35617E+03 -5.31084E+03 -1.09768E+03 -7.12571E+03  3.94915E+03 -8.02905E+03  1.01921E+04 -3.79003E+03
  1.20020E+04  1.10647E+03  9.02370E+03  6.67496E+03  2.06536E+03  9.04940E+03 -5.73220E+03  8.32225E+03
 -7.37595E+03  3.07714E+03 -3.80112E+03 -1.25951E+03  1.20177E+03 -1.84152E+03  4.82140E+03 -9.07082E+02
  4.37423E+03  3.35913E+03  1.03647E+03  7.13643E+03 -4.63302E+03  6.42992E+03 -8.20582E+03  1.42477E+03
 -4.75275E+03 -3.46986E+03  3.54157E+02 -7.47845E+03  4.22236E+03 -3.32917E+03  3.73529E+03  1.32078E+03
  7.21574E+02  3.42025E+03 -4.26077E+03  5.19394E+03 -4.65427E+03  2.23348E+03 -4.89446E+03 -1.13458E+03
 -2.94393E+03 -6.65254E+03  8.18488E+02 -7.28532E+03  6.04311E+03 -4.81435E+03  6.78116E+03  1.17588E+03
  4.70319E+03  5.54163E+03  2.88390E+02  6.98468E+03 -5.51553E+03  3.99645E+03 -5.85588E+03 -4.89563E+02
 -5.43621E+03 -5.25856E+03 -1.54691E+03 -5.07158E+03  2.70544E+03 -4.50034E+03  3.27472E+03 -3.20389E+03
  2.47606E+03  1.06361E+03 -2.68105E+01  1.37227E+03  6.07565E+02 -5.66697E+02  7.40986E+02 -2.33799E+03
  3.56954E+03 -1.38916E+03  5.43431E+03  7.28493E+02  5.14925E+03  3.02037E+03  5.35818E+03  7.43000E+03
 -1.72801E+03  8.64931E+03 -7.57637E+03  7.32788E+03 -1.06738E+04  1.25795E+03 -8.39541E+03 -2.79737E+03
 -4.60636E+03 -6.76076E+03 -6.08306E+02 -5.80355E+03  1.72092E+03 -2.55642E+03  1.57867E+03 -1.90189E+03
  1.01025E+03 -1.89745E+03  2.31523E+03 -3.22228E+03  3.56658E+03 -1.07636E+03  3.63110E+03  2.94440E+02
  4.10725E+03  1.02184E+03  9.62537E+02  3.26115E+03 -1.71578E+03  2.85416E+03 -5.19029E+03  2.80890E+03
 -4.67472E+03 -1.13859E+03 -2.17482E+03 -3.96062E+03  3.92031E+02 -5.42202E+03  3.37633E+03 -5.57796E+03
  5.33393E+03 -3.07205E+03  6.75007E+03  8.76740E+02  5.09492E+03  3.95474E+03  7.84122E+02  6.01760E+03
 -2.26554E+03  5.61827E+03 -4.11415E+03  2.05309E+03 -1.89748E+03 -1.38349E+03 -3.02653E+02 -3.08375E+02
 -6.54771E+02  2.39902E+02 -9.53277E+02  1.89757E+03 -2.91117E+03  1.27920E+03 -4.21588E+03 -1.92816E+02
 -1.55296E+03 -4.68138E+03  1.06169E+03 -5.23496E+03  2.85732E+03 -4.41660E+03  3.87544E+03 -1.45120E+03
  4.43291E+03  2.25827E+03  1.93873E+03  2.96416E+03 -9.31549E+02  4.44925E+03 -2.63805E+03  3.33639E+03
 -3.78622E+03  1.87660E+02 -3.39443E+03 -2.52688E+03 -4.38189E+02 -2.72168E+03  1.81812E+03 -2.90557E+03
  2.93798E+03 -1.75985E+03  2.32859E+03  5.60057E+02  4.35979E+02  1.73556E+03  7.30043E+02  5.72265E+02
  2.28164E+03  1.23484E+03  7.23274E+02  1.22284E+03  9.03701E+02  2.25995E+03  1.37933E+03  1.92437E+03
 -1.33755E+03  3.64876E+03 -2.58854E+03  3.95092E+03 -3.48913E+03  1.19371E+03 -4.48576E+03 -6.94237E+02
 -2.17108E+03 -3.96163E+03  3.46683E+02 -4.32078E+03  2.01109E+03 -2.56481E+03  2.96762E+03 -7.36419E+02
  2.48212E+03  2.31134E+03  2.92712E+02  1.90723E+03 -9.29543E+02  1.37887E+03 -6.84838E+02  1.20257E+02
 -4.93360E+02 -1.62164E+03  1.45839E+03 -2.06142E+03  1.44640E+03 -1.12603E+03  1.72284E+03  1.85573E+02
  6.78857E+02 -1.45598E+02  7.71023E+02 -5.44272E+02 -1.18090E+03  6.91308E+02  1.42483E+03 -7.00614E+01
 -4.00879E+02  1.56513E+02  1.80968E+03  5.76851E+02  3.05475E+02  2.24418E+03 -5.10974E+02  3.50896E+03
 -1.53482E+03  1.34644E+03 -2.02476E+03  3.65792E+02 -2.45882E+03 -6.81961E+02 -3.33595E+02 -1.41290E+03
 -2.39373E+02 -1.25149E+03  7.98072E+02 -8.79615E+02  5.41649E+02  1.19070E+03 -7.22103E+02  1.09934E+03
 -1.47369E+03  6.34643E+02 -1.25109E+03 -1.09034E+03 -5.80897E+02 -2.64594E+03  5.89210E+02 -2.09961E+03
  3.64706E+02 -3.56108E+02  1.40584E+03  2.76272E+02  1.52097E+03 -1.90075E+02 -1.29348E+02  1.21508E+03
 -4.86232E+02  1.58073E+01 -9.01917E+02 -1.92195E+01  6.12848E+02 -7.39563E+02  1.20042E+03 -8.63958E+02
  1.13372E+03  1.14588E+01  2.95844E+03  8.74745E+02  1.23318E+03  1.78479E+03 -3.63592E+02  2.01000E+03
 -1.77239E+03  8.00507E+00 -1.50197E+03 -5.56580E+02 -1.40556E+03 -1.37353E+03  4.14656E+02 -1.09413E+03
  1.53576E+03 -7.36036E+02  4.48738E+02  2.50501E+02  5.13793E+02  1.30290E+03  8.31771E+02  1.40001E+03
 -2.79172E+02  1.15174E+03 -3.70526E+02  1.77097E+02 -2.52029E+02  2.68529E+02 -6.85522E+02  4.89894E+01
 -4.16756E+02  9.73220E+02 -1.93138E+03  7.40076E+02 -1.81851E+03  4.30911E+02 -2.21277E+03 -1.01717E+03
 -1.34972E+03 -2.52463E+03  5.68396E+02 -3.35611E+03  1.39764E+03 -2.40506E+03  3.07695E+03 -1.45033E+03
  2.27135E+03 -2.32936E+02  9.96662E+02  1.54771E+03 -4.65350E+02  1.48109E+03 -9.09492E+02  1.26800E+03
 -1.43218E+03  1.11399E+03 -6.99399E+02  5.16137E+01 -5.24486E+02  5.53961E+02 -3.42672E+02 -1.86732E+02
 -1.44420E+03  2.69752E+02 -6.63777E+02  1.19376E+02 -2.35738E+02 -8.46067E+02 -2.97867E+02 -7.96232E+02
  1.50471E+03 -1.04802E+03  6.18573E+02  1.37107E+02  9.92754E+02  7.79002E+02 -8.35828E+02  1.54428E+03
 -9.34912E+02  2.37798E+03 -1.39668E+03  1.39572E+03 -1.66395E+03 -3.20771E+02 -1.42490E+03 -1.64295E+03
 -1.12378E+03 -9.46504E+02  5.81737E+02 -1.55820E+03  1.04480E+03 -3.48423E+02  3.92739E+02  2.76760E+02
  1.03091E+03  2.50256E+02  3.79436E+02  1.61052E+02 -7.74068E+01  4.02459E+01  5.25965E+01 -3.26482E+02
  6.79528E+02  4.60103E+02  6.03421E+02  3.12306E+02  1.13560E+02  4.89859E+02  2.51562E+02  3.10715E+02
 -8.90536E+02  5.55765E+02 -6.33781E+02  2.90567E+02 -7.00379E+02 -4.58524E+02 -4.82523E+02 -8.01761E+02
  5.02198E+02 -8.16819E+02  9.33036E+02  1.92172E+02  1.12485E+03 -1.28081E+03  4.56118E+02  2.42937E+02
  1.10166E+03  1.49451E+03 -5.11106E+02  4.35219E+02 -8.96755E+02  9.92067E+02 -5.89686E+02  4.28525E+02
 -3.58462E+02  4.08713E+02 -8.21810E+01  2.75876E+02 -9.76843E+02 -4.37525E+01 -1.06789E+03 -3.03876E+01
 -1.50746E+03 -5.93307E+00 -8.44287E+02 -9.03574E+02  8.33075E+02 -1.24460E+03  4.73653E+02 -1.16700E+02
  6.03390E+02 -8.12893E+01  4.33498E+01  3.23682E+02 -7.79044E+01  5.74823E+02 -5.59227E+02  4.91194E+02
