 $NMID ID='MM_0lb_SNR400_14hz_g55_86.RAW', FMTDAT='(8E13.5)'
 TRAMP=1., VOLUME=1. $END
  3.10068E+05  2.95576E+01  3.38015E+05  2.50498E+05  8.45127E+04  3.38003E+05 -1.32998E+05  2.51751E+05
 -1.89913E+05  8.33586E+04 -1.11644E+05 -3.22012E+04  5.84857E+02 -5.02976E+04  5.39442E+04 -3.54134E+02
  3.52954E+04  5.25952E+04 -1.67018E+04  7.51879E+04 -6.09254E+04  6.37704E+04 -8.44529E+04  3.20587E+04
 -8.17057E+04 -1.11796E+04 -5.75992E+04 -5.11214E+04 -1.50546E+04 -6.99989E+04  2.75801E+04 -4.57440E+04
  4.03881E+04  3.44672E+03  1.62966E+04  4.87066E+04 -3.46032E+04  4.78440E+04 -6.68847E+04 -5.83857E+02
 -5.33918E+04 -5.72989E+04 -7.14265E+03 -7.79379E+04  3.42632E+04 -5.56115E+04  4.84337E+04 -1.70583E+04
  4.42899E+04  1.10712E+04  3.18784E+04  2.58624E+04  1.59272E+04  2.96855E+04 -4.69467E+03  2.76585E+04
 -2.17864E+04  1.21868E+04 -1.86417E+04 -5.04207E+03  6.02461E+03 -8.09528E+03  2.25424E+04  1.17159E+04
  7.45997E+03  3.55394E+04 -3.30626E+04  3.55646E+04 -6.42697E+04  1.94490E+03 -5.72451E+04 -4.25416E+04
 -1.29597E+04 -6.41938E+04  4.00006E+04 -4.57717E+04  5.87745E+04 -2.84047E+03  3.46253E+04  3.21638E+04
 -6.08184E+03  3.63920E+04 -3.02918E+04  1.60187E+04 -3.06985E+04 -4.38163E+03 -1.73513E+04 -1.11572E+04
 -8.82694E+03 -1.37613E+04 -6.85391E+02 -1.84332E+04  7.31021E+03 -2.30482E+04  1.53601E+04 -1.36144E+04
  1.15521E+04  5.96614E+03 -8.75337E+03  1.33628E+04 -2.18427E+04 -4.96607E+03 -8.79071E+03 -3.47418E+04
  2.30859E+04 -4.36744E+04  4.85886E+04 -2.02053E+04  4.59447E+04  2.01243E+04  1.61811E+04  4.42935E+04
 -1.59796E+04  3.37473E+04 -2.58273E+04  1.58772E+03 -1.03860E+04 -2.82291E+04  2.06071E+04 -3.44204E+04
  4.16585E+04 -9.41754E+03  3.67840E+04  2.40278E+04  1.85913E+04  4.72453E+04 -7.66593E+03  5.15058E+04
 -3.27325E+04  3.41605E+04 -4.29334E+04  9.83172E+03 -4.37259E+04 -1.67203E+04 -2.37146E+04 -3.85592E+04
  7.60691E+03 -3.87926E+04  3.20965E+04 -1.54820E+04  3.00955E+04  1.08505E+04  4.29622E+03  1.92090E+04
 -1.35975E+04  8.26687E+03 -1.04452E+04 -7.58289E+03  5.93547E+03 -1.02769E+04  1.81714E+04  5.34685E+03
  1.34999E+04  2.16680E+04 -4.52138E+03  2.55183E+04 -2.18690E+04  1.17049E+04 -2.84999E+04 -5.06138E+03
 -2.16984E+04 -1.78644E+04 -8.58658E+03 -2.08976E+04  3.48332E+03 -2.02974E+04  1.62786E+04 -1.85575E+04
  2.71937E+04 -1.28271E+04  3.38418E+04  3.17562E+03  2.38119E+04  2.06733E+04  3.92935E+03  3.66734E+04
 -1.75279E+04  3.10821E+04 -2.81059E+04  1.09281E+04 -2.11628E+04 -1.03303E+04 -4.92577E+03 -1.33726E+04
  1.00333E+03 -2.09139E+03 -5.20261E+03  6.87559E+03 -1.66643E+04  5.01570E+03 -1.78129E+04 -7.35670E+03
 -9.97347E+03 -1.99828E+04  5.29041E+03 -2.37937E+04  1.55717E+04 -1.72230E+04  1.87030E+04 -1.72905E+03
  1.17451E+04  1.36636E+04 -1.34605E+03  1.91147E+04 -1.42666E+04  1.13150E+04 -1.93742E+04 -4.09344E+03
 -1.45478E+04 -1.80810E+04 -1.73680E+03 -2.33901E+04  1.10961E+04 -1.93879E+04  1.95935E+04 -9.61125E+03
  1.91256E+04  2.70944E+02  1.35427E+04  4.75333E+03  6.98601E+03  1.01466E+03  1.00887E+04 -1.15309E+03
  1.85863E+04  2.56498E+03  1.98982E+04  1.53765E+04  1.35237E+04  3.13914E+04 -3.31439E+03  3.52165E+04
 -2.02054E+04  2.87568E+04 -3.26668E+04  1.39898E+04 -3.44894E+04 -2.33162E+03 -2.89548E+04 -2.04209E+04
 -1.22532E+04 -2.87676E+04  9.85727E+03 -2.58540E+04  2.25439E+04 -1.31808E+04  2.00124E+04  5.77612E+03
  7.28272E+03  1.46485E+04 -9.36485E+03  1.31031E+04 -1.67219E+04  2.60207E+03 -1.29612E+04 -1.05899E+04
 -1.98969E+02 -1.53707E+04  8.54067E+03 -1.20979E+04  1.07024E+04 -1.38702E+03  2.88566E+03  6.74046E+03
 -6.96698E+03  2.75088E+03 -6.35681E+03 -5.99845E+03 -9.26877E+02 -1.38926E+04  9.53679E+03 -1.46659E+04
  1.75283E+04 -8.00058E+03  1.89358E+04  2.90220E+03  1.65735E+04  1.40371E+04  7.58784E+03  2.15011E+04
 -3.79705E+03  2.31826E+04 -1.48068E+04  1.43896E+04 -1.60944E+04  3.07565E+03 -1.16039E+04 -3.81991E+03
 -5.24277E+03 -5.32777E+03 -1.01465E+03  8.29274E+02 -2.38573E+03  2.46299E+03 -5.77005E+03  4.36665E+03
 -1.08019E+04 -8.55010E+02 -1.08997E+04 -9.23462E+03 -4.36281E+03 -1.52971E+04  5.53541E+03 -1.23484E+04
  9.78733E+03 -5.21837E+03  7.36754E+03  3.43425E+03 -4.81409E+01  5.21643E+03 -4.68142E+03 -3.72433E+02
 -4.80283E+03 -7.68633E+03 -9.31877E+02 -1.06798E+04  6.78084E+03 -1.23204E+04  1.47226E+04 -6.69711E+03
  1.73934E+04  1.10204E+03  1.30059E+04  9.38894E+03  2.69547E+03  1.47071E+04 -7.15013E+03  1.17135E+04
 -9.68403E+03  2.89830E+03 -5.06667E+03 -2.58645E+03  2.61022E+03 -3.01975E+03  6.77969E+03 -5.59570E+02
  5.61356E+03  4.70453E+03  9.36605E+02  9.42772E+03 -6.76549E+03  8.80912E+03 -1.12422E+04  2.25905E+03
 -7.79994E+03 -5.44533E+03  8.26778E+01 -9.26139E+03  6.19336E+03 -4.89147E+03  5.72833E+03  2.09605E+03
  1.10784E+03  6.15551E+03 -6.27779E+03  8.31031E+03 -9.03103E+03  3.70344E+03 -8.24253E+03 -3.00844E+03
 -5.34123E+03 -1.04387E+04  2.78480E+03 -1.17807E+04  1.03139E+04 -7.47965E+03  1.09277E+04  2.47633E+03
  7.22369E+03  8.73441E+03 -1.51948E+02  1.13703E+04 -8.22828E+03  6.22806E+03 -8.39186E+03 -1.18665E+03
 -7.87579E+03 -7.82947E+03 -1.43333E+03 -8.08964E+03  4.20461E+03 -6.57022E+03  4.72299E+03 -3.45990E+03
  3.37151E+03  1.18102E+03  7.40517E+00  1.72403E+03  3.34073E+01 -1.29921E+03  6.49824E+02 -4.63007E+03
  7.44504E+03 -2.50176E+03  1.05481E+04  1.79490E+03  1.00791E+04  7.07160E+03  7.30135E+03  1.32072E+04
 -3.38754E+03  1.51143E+04 -1.31316E+04  1.13430E+04 -1.61666E+04  2.27438E+03 -1.32261E+04 -5.85135E+03
 -6.62391E+03 -1.06706E+04 -1.94729E+02 -8.79019E+03  3.37885E+03 -4.62774E+03  3.22203E+03 -2.82621E+03
  2.10369E+03 -2.36765E+03  2.53853E+03 -2.25112E+03  4.32796E+03 -1.67940E+03  5.58775E+03 -7.08564E+02
  7.06713E+03  1.82670E+03  2.50123E+03  6.48814E+03 -2.27111E+03  6.30132E+03 -7.61869E+03  4.84614E+03
 -8.78924E+03 -1.22650E+03 -5.21716E+03 -6.25158E+03 -6.34614E+02 -9.09464E+03  6.14688E+03 -9.38680E+03
  9.77092E+03 -4.57138E+03  1.15360E+04  1.43285E+03  8.95235E+03  7.52832E+03  1.62096E+03  1.07885E+04
 -4.52759E+03  9.46318E+03 -6.13700E+03  3.28817E+03 -3.36025E+03 -2.39348E+02 -1.34512E+03 -1.17319E+03
 -7.04918E+02 -4.26636E+01 -1.48048E+03  2.88000E+03 -4.30891E+03  1.42677E+03 -6.34548E+03 -1.70672E+03
 -3.33280E+03 -6.43803E+03  7.05955E+02 -8.08814E+03  5.21766E+03 -8.10806E+03  7.58584E+03 -2.65633E+03
  8.56732E+03  4.28652E+03  3.91509E+03  6.79193E+03 -1.33518E+03  8.80199E+03 -6.08909E+03  4.82572E+03
 -8.04015E+03  2.95261E+02 -6.23530E+03 -5.36651E+03 -3.65967E+02 -6.71875E+03  3.73514E+03 -4.77662E+03
  4.80348E+03 -1.81634E+03  2.70876E+03  8.35740E+02  1.38234E+03  2.70058E+03  3.78450E+02  5.92905E+02
  1.64378E+03  7.13245E+02  2.61925E+03  6.53351E+02  1.92994E+03  3.18351E+03  2.84184E+03  4.42770E+03
 -2.04462E+03  6.65549E+03 -5.23454E+03  6.84338E+03 -7.20059E+03  1.38335E+03 -8.21130E+03 -2.81483E+03
 -3.63666E+03 -7.73982E+03  1.09017E+03 -8.86127E+03  4.43637E+03 -5.01370E+03  6.40357E+03 -1.21621E+03
  4.88385E+03  3.47076E+03  1.36690E+03  4.44567E+03 -2.32044E+03  2.94525E+03 -2.52699E+03 -6.14776E+01
 -1.63596E+03 -2.83349E+03  1.26425E+03 -3.03398E+03  3.13585E+03 -1.16765E+03  3.20341E+03  3.41843E+02
  1.59660E+03  9.17118E+02  6.17883E+02  9.59519E+02  1.95989E+02  1.17967E+03  1.67565E+03  2.29196E+02
  9.82380E+02 -6.50465E+02  3.04139E+03  1.53951E+03  1.38777E+03  4.66343E+03 -3.46288E+02  5.57208E+03
 -3.75977E+03  2.65010E+03 -4.55080E+03 -4.76995E+00 -3.98472E+03 -1.66868E+03 -1.61828E+03 -2.97570E+03
  7.85408E+01 -3.07602E+03  1.63231E+03 -1.85641E+03  9.44958E+02  1.64890E+03 -1.35524E+03  2.51526E+03
 -2.94695E+03  1.92050E+03 -3.22240E+03 -1.77338E+03 -1.66373E+03 -4.31163E+03  5.31389E+01 -3.84435E+03
  2.45996E+03 -2.19909E+03  2.76787E+03  2.89540E+02  2.85994E+03  4.47950E+02  6.95877E+02  2.55838E+03
 -1.42833E+03  1.03019E+03 -1.23297E+03 -1.06230E+03  1.09813E+03 -2.72440E+03  3.57357E+03 -2.11803E+03
  3.89354E+03  1.14170E+02  5.14313E+03  2.84043E+03  2.00824E+03  4.07659E+03 -8.15908E+02  4.24972E+03
 -4.09081E+03  1.62000E+03 -3.86053E+03 -5.09755E+02 -1.68777E+03 -3.20868E+03  7.58905E+02 -2.19773E+03
  2.97063E+03 -1.00223E+03  1.91297E+03  1.29096E+03  5.68163E+02  2.70727E+03  1.14228E+01  2.44434E+03
 -1.11289E+03  7.41712E+02 -8.76987E+02 -1.13008E+02 -6.70885E+02  3.91397E+02 -1.74059E+03  9.85438E+02
 -8.52340E+02  1.81930E+03 -3.17558E+03  1.40757E+03 -3.41312E+03 -3.43494E+02 -5.31015E+03 -2.43389E+03
 -2.86976E+03 -4.89972E+03  1.17827E+03 -6.27701E+03  4.14450E+03 -5.62360E+03  6.20659E+03 -1.59098E+03
  5.99257E+03  1.14729E+03  3.21276E+03  3.48491E+03 -2.81406E+02  4.30229E+03 -1.61409E+03  3.15256E+03
 -2.18890E+03  1.97568E+03 -1.54489E+03 -5.48483E+02 -4.08355E+02  1.94539E+02 -6.76595E+02 -3.67865E+02
 -1.58735E+03 -1.04237E+02 -1.42075E+03  9.87485E+01  1.41181E+02 -5.37902E+02 -3.91401E+02 -1.86736E+03
  2.16168E+03 -2.13808E+03  1.39347E+03 -3.87472E+02  2.92755E+03  3.22623E+03  4.40608E+02  3.63078E+03
 -1.72781E+03  5.22621E+03 -4.97852E+03  2.44165E+03 -4.52721E+03 -6.61467E+02 -3.24922E+03 -3.87394E+03
 -1.83362E+03 -4.01222E+03  6.67047E+02 -3.46658E+03  1.98205E+03 -1.96527E+03  2.66632E+03 -9.54422E+01
  1.59504E+03  1.25942E+03 -1.00910E+01  1.17827E+03 -4.72472E+02  6.15215E+01 -1.89367E+02 -6.06554E+02
  1.30489E+03 -4.16056E+02  1.67132E+03  2.69524E+02  1.21116E+03  2.24039E+03 -1.26422E+02  1.76953E+03
 -1.43194E+03  2.25477E+03 -2.89630E+03 -1.84351E+02 -2.08788E+03 -1.67167E+03  1.40670E+02 -3.09462E+03
  1.43591E+03 -2.90229E+03  2.10983E+03 -3.97820E+02  1.93164E+03  1.46765E+02  1.37925E+03  2.05112E+03
  1.00894E+03  1.93062E+03 -3.41400E+02  2.22496E+03 -1.66252E+03  1.65936E+03 -1.62394E+03  3.17399E+02
 -5.27606E+02 -5.40386E+02 -9.29130E+02  6.64629E+02 -1.35049E+03  5.64129E+02 -1.57939E+03 -1.08894E+03
 -1.71553E+03 -7.76242E+02 -3.45183E+02 -1.90525E+03  1.18130E+03 -3.29356E+03  2.44178E+03 -9.76569E+02
  2.11201E+03  6.86840E+01  6.82901E+02  6.85849E+02 -1.80300E+02  2.30118E+03 -1.35175E+03  1.18573E+03
