 $NMID ID='MM_0lb_SNR400_10hz_g45_93.RAW', FMTDAT='(8E13.5)'
 TRAMP=1., VOLUME=1. $END
  3.10173E+05  1.09468E+03  3.37380E+05  2.50561E+05  8.44518E+04  3.38281E+05 -1.32344E+05  2.52602E+05
 -1.91252E+05  8.35435E+04 -1.12462E+05 -3.21361E+04  1.30630E+03 -5.10778E+04  5.40032E+04 -7.89741E+02
  3.53189E+04  5.28793E+04 -1.68431E+04  7.63997E+04 -6.15892E+04  6.51076E+04 -8.48328E+04  3.26088E+04
 -8.24045E+04 -1.14841E+04 -5.84288E+04 -5.18979E+04 -1.52510E+04 -7.07092E+04  2.76607E+04 -4.64101E+04
  4.08925E+04  4.61405E+03  1.63926E+04  4.78978E+04 -3.50235E+04  4.76825E+04 -6.77186E+04 -4.10934E+02
 -5.46673E+04 -5.76898E+04 -7.32494E+03 -7.74061E+04  3.44452E+04 -5.60449E+04  4.92061E+04 -1.85107E+04
  4.42573E+04  1.22929E+04  3.31272E+04  2.62791E+04  1.59992E+04  3.02219E+04 -6.18418E+03  2.81723E+04
 -2.25783E+04  1.21816E+04 -1.83899E+04 -5.95395E+03  7.03526E+03 -7.76600E+03  2.29695E+04  1.29481E+04
  7.29692E+03  3.63942E+04 -3.30316E+04  3.62723E+04 -6.46436E+04  1.70621E+03 -5.83802E+04 -4.45904E+04
 -1.29916E+04 -6.56613E+04  4.12971E+04 -4.63463E+04  5.99343E+04 -3.16803E+03  3.59419E+04  3.40706E+04
 -5.97741E+03  3.80064E+04 -3.13981E+04  1.84127E+04 -3.30208E+04 -3.18320E+03 -1.85088E+04 -1.14054E+04
 -8.90463E+03 -1.41977E+04 -7.82299E+02 -1.94781E+04  8.18283E+03 -2.26646E+04  1.54938E+04 -1.33628E+04
  1.10392E+04  6.21067E+03 -9.03566E+03  1.30284E+04 -2.33927E+04 -5.85675E+03 -9.22775E+03 -3.58198E+04
  2.53547E+04 -4.54203E+04  5.00357E+04 -2.06239E+04  4.71174E+04  2.03234E+04  1.65773E+04  4.61943E+04
 -1.65145E+04  3.56942E+04 -2.68697E+04  2.64830E+03 -1.17864E+04 -2.91928E+04  2.13898E+04 -3.57587E+04
  4.34214E+04 -9.88522E+03  3.90892E+04  2.45921E+04  2.01190E+04  4.99938E+04 -8.70273E+03  5.41908E+04
 -3.32974E+04  3.69802E+04 -4.61338E+04  1.09882E+04 -4.57827E+04 -1.83090E+04 -2.54340E+04 -4.14191E+04
  7.27342E+03 -4.10702E+04  3.31747E+04 -1.67969E+04  3.12847E+04  1.12963E+04  4.46543E+03  2.02357E+04
 -1.33395E+04  9.51852E+03 -1.01222E+04 -7.30244E+03  6.09512E+03 -1.12050E+04  1.82545E+04  5.74592E+03
  1.40896E+04  2.27581E+04 -5.58305E+03  2.58925E+04 -2.26785E+04  1.27598E+04 -3.05404E+04 -3.94907E+03
 -2.41006E+04 -1.84863E+04 -1.05939E+04 -2.38639E+04  3.96886E+03 -2.42852E+04  1.84147E+04 -2.21675E+04
  3.06927E+04 -1.33848E+04  3.64942E+04  4.57235E+03  2.65755E+04  2.34292E+04  4.55170E+03  3.92087E+04
 -1.85953E+04  3.25316E+04 -2.94985E+04  1.07522E+04 -2.22330E+04 -9.68561E+03 -3.86135E+03 -1.32998E+04
  6.64340E+02 -1.09053E+03 -7.18553E+03  8.00419E+03 -1.88432E+04  5.17235E+03 -1.85391E+04 -8.98245E+03
 -1.08939E+04 -2.16837E+04  6.18640E+03 -2.59658E+04  1.80732E+04 -1.83685E+04  2.07864E+04 -2.33069E+03
  1.34494E+04  1.55123E+04 -1.44804E+03  2.13733E+04 -1.48082E+04  1.27221E+04 -2.20749E+04 -4.53383E+03
 -1.57232E+04 -1.92116E+04 -2.46643E+03 -2.63988E+04  1.22749E+04 -2.23907E+04  2.02821E+04 -1.10390E+04
  2.05210E+04 -6.46539E+02  1.51228E+04  4.88178E+03  8.27601E+03  9.17088E+02  1.09980E+04 -1.81607E+03
  2.08180E+04  2.25896E+03  2.30496E+04  1.75782E+04  1.61482E+04  3.58139E+04 -3.06520E+03  4.11192E+04
 -2.34483E+04  3.38317E+04 -3.92289E+04  1.71991E+04 -4.13334E+04 -2.71660E+03 -3.39568E+04 -2.42186E+04
 -1.39768E+04 -3.43397E+04  1.19198E+04 -3.05654E+04  2.59443E+04 -1.44430E+04  2.38144E+04  6.55265E+03
  7.47819E+03  1.69893E+04 -1.02465E+04  1.31288E+04 -1.86962E+04  2.20398E+03 -1.45293E+04 -1.20946E+04
 -1.02295E+03 -1.84793E+04  8.96687E+03 -1.34955E+04  1.24544E+04 -2.00183E+03  4.14458E+03  8.23748E+03
 -7.83038E+03  3.36826E+03 -7.95475E+03 -6.59882E+03 -1.51067E+03 -1.67310E+04  1.01344E+04 -1.89390E+04
  2.11986E+04 -1.07721E+04  2.32380E+04  2.37711E+03  2.05886E+04  1.67926E+04  9.98252E+03  2.64885E+04
 -5.43651E+03  2.87457E+04 -1.85216E+04  1.74117E+04 -2.01989E+04  3.53528E+03 -1.44791E+04 -3.86993E+03
 -5.20315E+03 -6.78371E+03 -1.43933E+03  1.48127E+03 -3.38430E+03  2.82160E+03 -6.67823E+03  5.33845E+03
 -1.34237E+04 -1.62358E+03 -1.33019E+04 -1.08304E+04 -5.91198E+03 -1.77430E+04  5.89705E+03 -1.42939E+04
  1.18208E+04 -6.77554E+03  8.83240E+03  4.09635E+03 -2.71712E+02  5.02354E+03 -7.61226E+03 -1.15292E+02
 -7.35570E+03 -9.75927E+03 -1.44885E+03 -1.31238E+04  7.54256E+03 -1.52113E+04  1.84372E+04 -8.54332E+03
  2.12990E+04  2.27218E+03  1.55131E+04  1.27480E+04  2.54294E+03  1.73765E+04 -8.10267E+03  1.42397E+04
 -1.13775E+04  3.54826E+03 -5.86484E+03 -2.76786E+03  2.19795E+03 -3.54770E+03  7.47212E+03 -1.40567E+03
  6.54205E+03  5.54333E+03  1.03862E+03  1.16896E+04 -7.45141E+03  1.04991E+04 -1.49665E+04  2.39647E+03
 -9.58705E+03 -6.72951E+03  3.74743E+02 -1.17680E+04  7.72924E+03 -5.69997E+03  8.13019E+03  2.49048E+03
  2.20784E+03  8.67560E+03 -7.35510E+03  1.01431E+04 -1.23511E+04  4.59236E+03 -1.18194E+04 -4.74905E+03
 -7.21451E+03 -1.37299E+04  3.84925E+03 -1.68478E+04  1.34559E+04 -9.18279E+03  1.53118E+04  2.25932E+03
  9.77482E+03  1.14836E+04 -1.92389E+03  1.43340E+04 -9.96286E+03  7.73440E+03 -1.07812E+04 -1.17858E+03
 -9.20317E+03 -9.61071E+03 -1.66833E+03 -1.01619E+04  5.37368E+03 -8.47062E+03  6.85005E+03 -3.32141E+03
  4.85022E+03  2.76549E+03 -1.53464E+03  2.03857E+03 -2.92125E+02 -3.29109E+03  2.03133E+03 -6.25382E+03
  9.66062E+03 -4.05239E+03  1.41505E+04  1.04769E+03  1.41228E+04  9.56607E+03  9.14760E+03  1.85911E+04
 -4.13805E+03  2.04127E+04 -1.75885E+04  1.64565E+04 -2.28914E+04  3.48200E+03 -1.92468E+04 -8.00170E+03
 -8.66166E+03 -1.54714E+04 -1.75685E+02 -1.23748E+04  4.86450E+03 -6.92614E+03  4.85352E+03 -3.99579E+03
  3.64043E+03 -2.17573E+03  4.27056E+03 -4.03626E+03  5.16828E+03 -2.80193E+03  7.52995E+03 -1.00087E+03
  9.60169E+03  2.41449E+03  5.07747E+03  7.96249E+03 -1.73824E+03  9.60518E+03 -1.01459E+04  8.39398E+03
 -1.25172E+04 -1.47525E+03 -7.77532E+03 -9.09122E+03 -3.47754E+02 -1.38150E+04  7.56838E+03 -1.29967E+04
  1.39463E+04 -7.54033E+03  1.76464E+04  2.13027E+03  1.22918E+04  1.16621E+04  1.61604E+03  1.50793E+04
 -7.18797E+03  1.31912E+04 -8.62360E+03  4.43671E+03 -5.47068E+03 -2.02567E+03 -2.19316E+03 -2.51566E+03
 -1.11728E+03  8.99757E+02 -1.88559E+03  2.73354E+03 -6.32404E+03  1.76618E+03 -9.31040E+03 -1.19208E+03
 -6.36251E+03 -9.32303E+03  3.44829E+02 -1.30264E+04  8.29510E+03 -1.24061E+04  1.22659E+04 -2.83560E+03
  1.23495E+04  5.43979E+03  5.59348E+03  1.10056E+04 -2.80168E+03  1.26310E+04 -9.39241E+03  7.67883E+03
 -1.16449E+04 -3.00913E+02 -9.03414E+03 -7.32605E+03 -1.35065E+03 -1.02864E+04  5.07110E+03 -8.20382E+03
  8.25697E+03 -2.58583E+03  6.56034E+03  2.51981E+03  1.97730E+03  3.95614E+03  1.70065E+03  1.52778E+03
  2.57693E+03  7.88490E+02  3.26136E+03  2.19080E+03  3.63318E+03  4.22365E+03  2.77690E+03  6.77075E+03
 -2.50451E+03  1.04365E+04 -8.64437E+03  9.81251E+03 -1.33941E+04  2.77865E+03 -1.30815E+04 -4.95642E+03
 -6.37564E+03 -1.30284E+04  2.50295E+03 -1.42798E+04  7.93728E+03 -8.49002E+03  1.04304E+04 -1.81445E+03
  8.39720E+03  4.60376E+03  1.66625E+03  7.39501E+03 -3.17693E+03  4.57227E+03 -4.44147E+03 -3.93020E+02
 -2.79849E+03 -5.26805E+03  2.54558E+03 -5.72208E+03  5.71771E+03 -2.92768E+03  5.19069E+03  1.22787E+03
  3.60660E+03  2.68658E+03  1.24293E+03  1.52437E+03 -5.92113E+02  1.85345E+03  1.64707E+03 -3.14155E+02
  2.05213E+03 -5.68037E+02  4.20451E+03  2.54044E+03  3.26242E+03  7.08844E+03 -9.46449E+02  9.27048E+03
 -5.55724E+03  6.52499E+03 -8.37949E+03  1.77407E+03 -7.00067E+03 -2.69830E+03 -3.46555E+03 -4.84905E+03
  6.99190E+02 -4.73960E+03  2.99230E+03 -2.66463E+03  3.68226E+03  2.45019E+03 -1.30237E+03  4.42096E+03
 -5.46337E+03  2.04769E+03 -5.73243E+03 -2.75677E+03 -3.05790E+03 -7.33356E+03  8.87336E+02 -7.49742E+03
  3.92140E+03 -4.61074E+03  4.99679E+03  4.63351E+01  4.60348E+03  1.44786E+03  1.84002E+02  4.10213E+03
 -2.20751E+03  1.28026E+03 -3.86013E+03 -2.50355E+03  1.15356E+03 -4.89772E+03  6.96118E+03 -4.41072E+03
  8.07095E+03 -4.26116E+01  8.60064E+03  5.06961E+03  2.57152E+03  9.05201E+03 -2.59961E+03  7.80859E+03
 -7.01183E+03  4.23485E+03 -6.59268E+03 -8.04165E+02 -3.50572E+03 -5.73269E+03  1.20618E+03 -5.07754E+03
  5.69139E+03 -2.74208E+03  4.22153E+03  1.47805E+03  1.91290E+03  3.73563E+03 -1.27828E+03  4.57657E+03
 -2.18873E+03  2.45760E+03 -2.37425E+03  1.50378E+03 -4.70516E+02  1.31130E+03 -1.23831E+03  1.70101E+03
 -2.17201E+03  2.93470E+03 -5.37217E+03  3.19839E+03 -8.21184E+03 -1.74811E+02 -9.15547E+03 -5.99753E+03
 -4.51332E+03 -1.08776E+04  2.29065E+03 -1.22079E+04  7.12293E+03 -9.12982E+03  1.13997E+04 -3.86583E+03
  1.12556E+04  2.37132E+03  6.57822E+03  7.81742E+03  4.47761E+02  8.45840E+03 -3.55647E+03  6.09597E+03
 -4.71623E+03  1.90543E+03 -3.00771E+03 -7.94358E+02 -7.92785E+02 -6.40208E+02 -1.19250E+03 -6.93286E+02
 -1.63111E+03  2.47678E+02 -1.28038E+03 -4.85208E+02 -5.39218E+02 -1.83096E+03 -4.34070E+02 -3.95173E+03
  4.11919E+03 -2.80901E+03  5.19568E+03 -9.54655E+02  5.57672E+03  3.99127E+03  1.40239E+03  7.84707E+03
 -3.18159E+03  9.67859E+03 -9.14484E+03  5.30042E+03 -1.03890E+04 -4.18277E+02 -7.25485E+03 -5.97174E+03
 -3.12369E+03 -8.71908E+03  2.13249E+03 -7.83876E+03  5.39333E+03 -3.80894E+03  5.70782E+03  1.33988E+03
  3.31968E+03  3.64939E+03 -3.83293E+02  2.94332E+03 -8.55722E+02  5.28802E+02  4.82156E+02 -1.73084E+03
  2.31728E+03 -1.82550E+03  3.52070E+03  9.53182E+02  2.66602E+03  3.51886E+03  3.77725E+01  3.75889E+03
 -4.01731E+03  3.82079E+03 -5.49294E+03  8.44680E+01 -5.36948E+03 -4.63282E+03 -1.21505E+03 -7.23667E+03
  3.78698E+03 -5.93098E+03  6.10377E+03 -2.80848E+03  6.16655E+03  1.46003E+03  3.04261E+03  4.51585E+03
  1.29745E+03  5.08698E+03 -2.03143E+03  4.61811E+03 -3.74495E+03  2.06050E+03 -2.87874E+03  9.32256E+01
 -1.97304E+03 -6.64101E+02 -1.36612E+03  3.66406E+02 -3.40925E+03  6.94740E+02 -4.40795E+03 -1.43602E+03
 -4.18129E+03 -2.60296E+03 -4.50079E+02 -6.04268E+03  2.20713E+03 -5.62142E+03  5.31522E+03 -2.59203E+03
  5.07795E+03  4.73849E+02  2.49457E+03  4.06153E+03 -9.54557E+02  5.79236E+03 -4.44598E+03  3.54558E+03
