 $NMID ID='MM_0lb_SNR400_16hz_g45_9.RAW', FMTDAT='(8E13.5)'
 TRAMP=1., VOLUME=1. $END
  3.09934E+05  4.84311E+02  3.37247E+05  2.50889E+05  8.45327E+04  3.37945E+05 -1.32836E+05  2.50705E+05
 -1.90413E+05  8.21762E+04 -1.11164E+05 -3.32890E+04  1.30590E+03 -4.98388E+04  5.37838E+04  3.35161E+02
  3.47008E+04  5.34070E+04 -1.68963E+04  7.55209E+04 -6.01099E+04  6.31632E+04 -8.34386E+04  3.14516E+04
 -8.06245E+04 -1.08706E+04 -5.69127E+04 -5.07632E+04 -1.48941E+04 -6.92110E+04  2.69533E+04 -4.56361E+04
  3.89762E+04  4.16935E+03  1.55663E+04  4.77627E+04 -3.40003E+04  4.67409E+04 -6.60046E+04 -5.42401E+02
 -5.28819E+04 -5.62893E+04 -6.37621E+03 -7.60322E+04  3.35579E+04 -5.36254E+04  4.66202E+04 -1.62779E+04
  4.23481E+04  1.07361E+04  3.10877E+04  2.47081E+04  1.60300E+04  2.87347E+04 -4.46177E+03  2.67562E+04
 -2.13789E+04  1.25072E+04 -1.87471E+04 -5.07518E+03  4.77973E+03 -7.44055E+03  2.15865E+04  1.16989E+04
  7.14499E+03  3.41756E+04 -3.11440E+04  3.46150E+04 -6.18126E+04  2.14926E+03 -5.66730E+04 -4.17621E+04
 -1.24451E+04 -6.18426E+04  3.89652E+04 -4.37158E+04  5.66966E+04 -2.32406E+03  3.29550E+04  3.12990E+04
 -6.66181E+03  3.45686E+04 -2.86660E+04  1.49436E+04 -2.87465E+04 -4.93995E+03 -1.52954E+04 -1.03085E+04
 -7.78314E+03 -1.21564E+04 -6.63912E+02 -1.70070E+04  6.87758E+03 -2.23387E+04  1.54933E+04 -1.40132E+04
  1.20625E+04  5.32362E+03 -7.15555E+03  1.29687E+04 -1.94236E+04 -3.14076E+03 -8.39254E+03 -3.16350E+04
  2.18535E+04 -4.18233E+04  4.65340E+04 -1.92264E+04  4.34805E+04  1.85275E+04  1.45326E+04  4.26609E+04
 -1.55102E+04  3.16139E+04 -2.44285E+04  1.43592E+03 -9.17926E+03 -2.73582E+04  2.08143E+04 -3.28067E+04
  4.01497E+04 -8.14749E+03  3.34643E+04  2.36929E+04  1.66650E+04  4.42314E+04 -7.41028E+03  4.75513E+04
 -2.94234E+04  3.15593E+04 -3.96268E+04  8.68242E+03 -4.04083E+04 -1.64070E+04 -2.23466E+04 -3.54109E+04
  6.92415E+03 -3.53655E+04  3.03891E+04 -1.36111E+04  2.84820E+04  1.06835E+04  3.60839E+03  1.82271E+04
 -1.35399E+04  7.09265E+03 -1.07362E+04 -7.36185E+03  5.36027E+03 -1.09157E+04  1.77440E+04  6.83803E+03
  1.24515E+04  2.10288E+04 -6.66675E+03  2.40795E+04 -2.18624E+04  1.00873E+04 -2.67004E+04 -5.36595E+03
 -1.87696E+04 -1.67125E+04 -6.93708E+03 -1.84493E+04  3.54995E+03 -1.67629E+04  1.37246E+04 -1.62827E+04
  2.35531E+04 -1.21706E+04  3.07706E+04  2.23366E+03  2.28631E+04  1.77212E+04  3.88202E+03  3.39747E+04
 -1.63315E+04  2.88574E+04 -2.69144E+04  9.53097E+03 -2.01266E+04 -1.05945E+04 -4.16120E+03 -1.39632E+04
  1.87696E+03 -4.02133E+03 -3.83215E+03  6.00784E+03 -1.47777E+04  5.00858E+03 -1.48040E+04 -5.85766E+03
 -9.35968E+03 -1.69782E+04  4.46142E+03 -2.08666E+04  1.36393E+04 -1.56699E+04  1.64252E+04 -1.37712E+03
  1.05753E+04  1.17654E+04 -7.37747E+02  1.66284E+04 -1.17363E+04  9.66841E+03 -1.72338E+04 -3.18776E+03
 -1.21746E+04 -1.53379E+04 -1.96991E+03 -2.10189E+04  9.70852E+03 -1.71936E+04  1.76147E+04 -8.64907E+03
  1.62696E+04  4.32971E+02  1.14514E+04  3.68995E+03  6.04199E+03  6.97774E+02  8.53797E+03 -1.38508E+03
  1.57604E+04  2.59029E+03  1.68149E+04  1.38433E+04  1.03751E+04  2.77895E+04 -3.02421E+03  3.03005E+04
 -1.75179E+04  2.38663E+04 -2.79716E+04  1.09273E+04 -2.88819E+04 -2.87052E+03 -2.44472E+04 -1.70082E+04
 -1.04358E+04 -2.38451E+04  7.52385E+03 -2.24163E+04  1.85913E+04 -1.14585E+04  1.74308E+04  4.64511E+03
  6.95198E+03  1.30955E+04 -8.30419E+03  1.15939E+04 -1.44816E+04  2.65853E+03 -1.10394E+04 -8.68407E+03
 -1.82777E+02 -1.30745E+04  7.05525E+03 -1.07960E+04  8.63445E+03 -1.64756E+03  1.91198E+03  5.66686E+03
 -6.34666E+03  1.02171E+03 -4.82625E+03 -5.19100E+03  1.42789E+02 -1.17655E+04  8.62007E+03 -1.20422E+04
  1.45326E+04 -5.90773E+03  1.41431E+04  3.40072E+03  1.22628E+04  1.06767E+04  5.71651E+03  1.72399E+04
 -2.12546E+03  1.88491E+04 -1.17896E+04  1.19850E+04 -1.35747E+04  3.25159E+03 -9.41989E+03 -2.58753E+03
 -5.27192E+03 -4.47483E+03 -4.81979E+02  6.84114E+02 -2.07025E+03  2.10197E+03 -3.96898E+03  4.59995E+03
 -9.76414E+03 -5.18204E+01 -9.83228E+03 -8.28122E+03 -4.10315E+03 -1.29899E+04  4.08984E+03 -9.36097E+03
  7.88043E+03 -4.88776E+03  6.22654E+03  2.17824E+03  5.23282E+02  3.54141E+03 -4.13153E+03  3.96766E+01
 -3.98626E+03 -6.46518E+03 -9.53024E+02 -8.85201E+03  4.87568E+03 -9.06009E+03  1.15718E+04 -4.65000E+03
  1.38560E+04  6.30546E+02  1.05111E+04  8.32071E+03  1.67884E+03  1.05757E+04 -6.06891E+03  9.75598E+03
 -7.62558E+03  3.02604E+03 -3.64543E+03 -1.38125E+03  1.15051E+03 -2.30216E+03  5.63762E+03 -9.09452E+02
  5.11032E+03  4.47903E+03  1.49459E+03  7.12083E+03 -5.78984E+03  7.77773E+03 -9.39263E+03  2.28572E+03
 -5.99869E+03 -4.51371E+03  6.26600E+02 -8.12046E+03  4.88751E+03 -3.89569E+03  5.30797E+03  1.01585E+03
  8.54644E+02  4.25264E+03 -4.78728E+03  5.49567E+03 -6.33194E+03  2.85781E+03 -6.13567E+03 -2.26962E+03
 -3.98204E+03 -8.22844E+03  1.81457E+03 -9.11032E+03  7.98149E+03 -5.56854E+03  7.86295E+03  1.44780E+03
  5.25562E+03  6.67082E+03 -2.59975E+02  8.32088E+03 -6.46551E+03  5.01606E+03 -6.70545E+03 -5.31963E+02
 -7.05502E+03 -6.48584E+03 -2.07966E+03 -6.45202E+03  2.85411E+03 -5.54785E+03  3.84441E+03 -2.89732E+03
  3.34621E+03  6.21686E+02  6.52427E+02  1.43325E+03  2.83706E+02 -8.45535E+02  7.25604E+02 -2.00382E+03
  5.17628E+03 -1.86116E+03  7.14607E+03  8.93777E+02  7.51759E+03  4.52284E+03  5.84654E+03  9.35286E+03
 -1.81490E+03  1.09003E+04 -9.84902E+03  8.67124E+03 -1.30554E+04  1.76722E+03 -1.05494E+04 -3.71586E+03
 -5.12663E+03 -7.95049E+03 -5.14880E+02 -6.31547E+03  2.83868E+03 -3.39490E+03  2.66611E+03 -2.53971E+03
  1.15385E+03 -1.63172E+03  1.73470E+03 -3.16390E+03  4.19120E+03 -1.31646E+03  3.96694E+03 -6.06767E+02
  5.74713E+03  1.25308E+03  1.59342E+03  4.77934E+03 -1.69651E+03  4.01238E+03 -5.37732E+03  3.97800E+03
 -7.24935E+03 -1.51199E+03 -3.00525E+03 -4.58527E+03 -1.58012E+02 -7.01934E+03  4.14370E+03 -7.16913E+03
  7.57808E+03 -4.22068E+03  8.76460E+03  3.41750E+02  5.61826E+03  6.30689E+03  1.31626E+03  8.12294E+03
 -3.36065E+03  7.73939E+03 -4.50158E+03  1.88174E+03 -2.67807E+03 -7.85387E+02 -1.22773E+03 -1.17099E+02
 -4.98339E+02  6.99284E+02 -5.05209E+02  2.47691E+03 -3.20137E+03  1.40319E+03 -4.67842E+03 -2.41741E+02
 -2.12534E+03 -4.89680E+03  7.04738E+02 -5.96830E+03  3.75815E+03 -5.74959E+03  5.51231E+03 -1.63631E+03
  5.74975E+03  3.19259E+03  2.24381E+03  4.50393E+03 -9.23985E+02  5.84770E+03 -4.08200E+03  3.39610E+03
 -5.11239E+03  5.33582E+02 -4.30065E+03 -3.75828E+03 -1.56890E+02 -4.63038E+03  2.52551E+03 -3.36824E+03
  3.69011E+03 -1.46586E+03  2.51483E+03  1.06787E+03  1.04723E+03  2.51147E+03  1.00096E+03  1.23744E+03
  2.12853E+03  6.27469E+02  1.93154E+03  1.07907E+03  1.50324E+03  2.79671E+03  2.24293E+03  2.51405E+03
 -1.80321E+03  4.37577E+03 -3.13496E+03  5.52456E+03 -5.06783E+03  1.84298E+03 -5.87747E+03 -1.37434E+03
 -2.28811E+03 -5.40599E+03  1.02988E+03 -6.71766E+03  3.05234E+03 -4.17290E+03  4.24593E+03 -1.35102E+03
  3.29129E+03  2.68694E+03  8.70824E+02  2.78385E+03 -1.38693E+03  1.83505E+03 -1.68322E+03 -1.18546E+02
 -1.14532E+03 -2.28976E+03  1.84618E+03 -1.78381E+03  2.20313E+03 -1.39865E+03  1.94306E+03  1.36267E+03
  1.11518E+03  6.81169E+02  4.47736E+02  3.74790E+01 -5.76249E+01  7.21198E+02  1.88551E+03 -1.28151E+03
  4.91542E+01  9.24909E+01  2.81507E+03  2.79727E+02  4.62701E+02  3.10011E+03 -3.08712E+02  4.06875E+03
 -2.54548E+03  1.97371E+03 -2.83214E+03  4.11781E+02 -3.07334E+03 -1.15222E+03 -3.73770E+02 -1.71780E+03
  9.53296E+02 -1.87813E+03  1.39302E+03 -9.57080E+02  5.50560E+02  1.09552E+03 -9.72973E+02  1.68763E+03
 -2.03520E+03  1.03680E+03 -1.70761E+03 -1.44279E+03 -1.02363E+03 -2.76818E+03 -8.10168E+01 -2.44457E+03
  9.69217E+02 -1.51827E+03  1.48180E+03  6.45076E+02  2.17448E+03  3.53740E+02  5.77913E+02  1.36113E+03
 -8.82737E+02  2.64487E+02 -1.50361E+03 -1.46698E+03  4.73852E+02 -1.90961E+03  2.57901E+03 -7.16212E+02
  3.27570E+03 -2.49260E+02  3.43009E+03  1.28919E+03  1.37992E+03  2.81158E+03 -1.05975E+03  3.34208E+03
 -2.70626E+03  1.47301E+03 -2.36563E+03 -2.98114E+02 -1.07780E+03 -2.19844E+03  3.62234E+02 -1.28968E+03
  1.81914E+03 -6.34826E+02  6.16691E+02  6.77047E+02  2.76283E+02  1.57048E+03 -6.46891E+02  1.20100E+03
 -8.35999E+02  7.90182E+02 -5.68506E+02 -6.80700E+01 -5.23708E+02  6.58745E+02 -6.28649E+02  7.55291E+00
 -5.84089E+02  6.85862E+02 -2.53704E+03  1.51845E+03 -2.75800E+03  3.39855E+02 -3.90549E+03 -2.09790E+03
 -2.30510E+03 -4.20042E+03  8.42956E+02 -4.58253E+03  2.65222E+03 -3.79630E+03  3.81651E+03 -1.67269E+03
  3.31438E+03  4.25786E+02  1.56297E+03  2.42333E+03 -5.26441E+02  2.76600E+03 -9.90201E+02  2.28904E+03
 -1.65182E+03  8.56203E+02 -5.58479E+02 -1.20279E+03 -6.20613E+02  3.08818E+01 -4.98753E+01  4.59132E+02
 -1.05716E+03  1.13663E+02 -1.14528E+03 -5.47793E+02  4.79145E+02 -1.07344E+03 -1.32092E+02 -1.29970E+03
  1.53206E+03 -7.17722E+02  1.22429E+03 -4.69022E+01  2.32765E+03  1.56142E+03  4.26374E+02  2.73840E+03
 -1.78462E+03  3.39986E+03 -2.75772E+03  2.43164E+03 -3.16523E+03 -1.54658E+02 -2.01495E+03 -1.61017E+03
 -1.87746E+03 -2.13345E+03  8.67151E+02 -2.20472E+03  1.30745E+03 -6.59022E+02  1.47356E+03  1.94576E+02
  3.49423E+02  6.23692E+02  2.27255E+02  4.06708E+02 -7.99434E+02 -2.88708E+02  6.02775E+02 -8.49764E+02
  1.09260E+03 -3.14236E+02  9.64757E+02  1.45168E+03  5.25187E+02  1.16944E+03  7.30549E+02  7.71105E+02
 -1.28246E+03  1.00156E+03 -1.04479E+03  2.26975E+02 -9.97238E+02 -1.32891E+03  8.77193E+01 -1.89783E+03
  9.22062E+02 -1.44908E+03  1.38761E+03 -5.96961E+02  2.24570E+03 -4.67634E+02  1.11262E+03  1.34853E+03
  2.08809E+01  1.27987E+03 -6.37180E+02  1.07073E+03 -7.04854E+02  5.79142E+02 -6.52472E+02  1.24598E+02
 -7.28862E+01 -2.87398E+02 -6.37083E+02  5.35353E+02 -7.69218E+02 -5.63533E+01 -1.34211E+03 -2.53592E+02
 -1.69368E+03 -1.83413E+02 -3.17509E+02 -1.68930E+03  8.86429E+02 -2.38777E+03  1.27515E+03 -6.72815E+02
  1.86012E+03 -5.17048E+02  2.36263E+01  7.05654E+02 -1.79330E+02  1.86349E+03 -1.05549E+03  8.23329E+02
