 $NMID ID='MM_0lb_SNR400_11hz_g50_10.RAW', FMTDAT='(8E13.5)'
 TRAMP=1., VOLUME=1. $END
  3.09129E+05 -1.16802E+00  3.37568E+05  2.50793E+05  8.43262E+04  3.38177E+05 -1.32534E+05  2.51218E+05
 -1.90884E+05  8.38505E+04 -1.12266E+05 -3.22985E+04  9.91856E+01 -5.02997E+04  5.40421E+04 -3.29259E+02
  3.52800E+04  5.32004E+04 -1.61354E+04  7.61554E+04 -6.06068E+04  6.43631E+04 -8.50355E+04  3.21184E+04
 -8.23926E+04 -1.13222E+04 -5.72911E+04 -5.17779E+04 -1.49863E+04 -7.08542E+04  2.86132E+04 -4.65405E+04
  4.04479E+04  3.69733E+03  1.65402E+04  4.79435E+04 -3.44631E+04  4.75685E+04 -6.81760E+04 -2.09363E+02
 -5.45429E+04 -5.78827E+04 -7.29293E+03 -7.80547E+04  3.41997E+04 -5.68442E+04  4.90680E+04 -1.76182E+04
  4.47047E+04  1.06745E+04  3.25287E+04  2.69073E+04  1.59907E+04  3.03138E+04 -5.26063E+03  2.68829E+04
 -2.27959E+04  1.17194E+04 -1.88298E+04 -5.09972E+03  7.01812E+03 -6.80821E+03  2.31464E+04  1.38638E+04
  7.68736E+03  3.69941E+04 -3.37597E+04  3.59183E+04 -6.47084E+04  2.39745E+03 -5.79396E+04 -4.43525E+04
 -1.29247E+04 -6.46118E+04  4.09551E+04 -4.61978E+04  5.99165E+04 -2.28389E+03  3.55480E+04  3.35457E+04
 -5.89780E+03  3.81562E+04 -3.14020E+04  1.74689E+04 -3.18373E+04 -4.22304E+03 -1.82051E+04 -1.06996E+04
 -8.50878E+03 -1.36121E+04  7.09067E+01 -1.84093E+04  8.21478E+03 -2.32116E+04  1.54601E+04 -1.34028E+04
  1.04799E+04  5.76587E+03 -1.01482E+04  1.24943E+04 -2.26770E+04 -5.55614E+03 -8.20040E+03 -3.62461E+04
  2.42877E+04 -4.60318E+04  5.04084E+04 -2.07299E+04  4.75310E+04  2.00576E+04  1.64769E+04  4.63831E+04
 -1.62502E+04  3.53326E+04 -2.67423E+04  2.05270E+03 -1.08632E+04 -2.91313E+04  2.18402E+04 -3.55497E+04
  4.33496E+04 -1.06995E+04  3.89239E+04  2.54684E+04  2.04173E+04  4.86743E+04 -7.78210E+03  5.35130E+04
 -3.40232E+04  3.65699E+04 -4.57359E+04  1.08745E+04 -4.56730E+04 -1.77393E+04 -2.56153E+04 -4.04611E+04
  7.84474E+03 -4.01632E+04  3.41141E+04 -1.65922E+04  3.03945E+04  1.17900E+04  4.19938E+03  2.01527E+04
 -1.33425E+04  8.70650E+03 -1.15591E+04 -7.79195E+03  5.61508E+03 -1.14703E+04  1.82152E+04  5.91797E+03
  1.43209E+04  2.23551E+04 -6.20287E+03  2.61601E+04 -2.24708E+04  1.29974E+04 -3.02770E+04 -3.85446E+03
 -2.33058E+04 -1.82454E+04 -1.02929E+04 -2.28281E+04  4.39088E+03 -2.32645E+04  1.79488E+04 -2.07032E+04
  2.95696E+04 -1.33556E+04  3.56682E+04  3.41779E+03  2.59766E+04  2.37963E+04  4.25563E+03  3.86953E+04
 -1.94834E+04  3.27162E+04 -2.94675E+04  1.10263E+04 -2.16690E+04 -1.03647E+04 -4.80704E+03 -1.31298E+04
  1.26502E+03 -1.11895E+03 -6.22240E+03  7.83644E+03 -1.84466E+04  5.46592E+03 -1.82527E+04 -8.69145E+03
 -1.02890E+04 -2.22204E+04  5.36322E+03 -2.62195E+04  1.73268E+04 -1.82038E+04  2.07839E+04 -1.89161E+03
  1.27150E+04  1.52809E+04 -1.47154E+03  2.23101E+04 -1.57500E+04  1.17860E+04 -2.13247E+04 -3.22434E+03
 -1.60020E+04 -1.92113E+04 -2.38264E+03 -2.62279E+04  1.12938E+04 -2.20687E+04  2.17686E+04 -1.09298E+04
  2.05343E+04  1.59719E+02  1.51377E+04  5.16066E+03  6.90488E+03  8.66171E+02  1.06379E+04 -1.84163E+03
  2.05164E+04  2.49825E+03  2.33037E+04  1.68288E+04  1.51634E+04  3.50989E+04 -2.50964E+03  4.03639E+04
 -2.30352E+04  3.24642E+04 -3.86824E+04  1.65706E+04 -4.01221E+04 -3.17117E+03 -3.24511E+04 -2.31877E+04
 -1.31533E+04 -3.30996E+04  1.12521E+04 -2.95136E+04  2.51062E+04 -1.45606E+04  2.23162E+04  7.00101E+03
  7.98683E+03  1.63496E+04 -1.06293E+04  1.40961E+04 -1.88560E+04  2.95796E+03 -1.37688E+04 -1.17768E+04
 -6.97534E+02 -1.79456E+04  9.79952E+03 -1.34069E+04  1.19034E+04 -1.59289E+03  2.79071E+03  7.27542E+03
 -8.42112E+03  3.46571E+03 -8.08668E+03 -6.49933E+03 -1.24263E+03 -1.61677E+04  1.10386E+04 -1.79374E+04
  2.00534E+04 -1.04030E+04  2.27324E+04  3.33106E+03  1.99628E+04  1.68156E+04  8.99800E+03  2.49912E+04
 -4.38835E+03  2.76758E+04 -1.79193E+04  1.69797E+04 -1.99384E+04  3.66353E+03 -1.39646E+04 -5.46885E+03
 -6.23079E+03 -6.13225E+03 -7.31972E+02  5.29458E+02 -2.61027E+03  2.93030E+03 -6.19676E+03  4.20303E+03
 -1.34341E+04 -4.67867E+02 -1.28243E+04 -1.07650E+04 -5.35599E+03 -1.72844E+04  5.66347E+03 -1.35441E+04
  1.14863E+04 -6.16190E+03  8.19665E+03  3.94265E+03 -1.39415E+01  6.01484E+03 -6.69901E+03 -1.36646E+02
 -7.06591E+03 -8.77088E+03 -1.75223E+03 -1.39875E+04  8.63861E+03 -1.38435E+04  1.80594E+04 -8.05663E+03
  2.02596E+04  2.15150E+03  1.48026E+04  1.23635E+04  2.78815E+03  1.69766E+04 -7.82842E+03  1.30257E+04
 -1.09073E+04  3.09655E+03 -6.58562E+03 -2.67498E+03  1.60432E+03 -4.06501E+03  7.43937E+03 -1.81658E+03
  6.08530E+03  5.93359E+03  1.10097E+03  1.06525E+04 -8.16059E+03  1.06687E+04 -1.34569E+04  3.34509E+03
 -9.42753E+03 -6.62106E+03  4.85013E+02 -1.20266E+04  7.52681E+03 -5.88038E+03  7.83650E+03  2.82103E+03
  1.97053E+03  7.75040E+03 -7.41937E+03  9.87244E+03 -1.15316E+04  4.38327E+03 -1.15291E+04 -3.24722E+03
 -6.59613E+03 -1.36769E+04  2.54293E+03 -1.57745E+04  1.29349E+04 -9.07338E+03  1.40222E+04  2.45706E+03
  7.79917E+03  1.14631E+04 -1.09830E+03  1.34198E+04 -9.10621E+03  7.53020E+03 -1.15544E+04 -1.01591E+03
 -9.39286E+03 -8.67664E+03 -2.37010E+03 -9.58860E+03  5.53104E+03 -8.20113E+03  6.34115E+03 -3.15550E+03
  4.44234E+03  1.84894E+03 -8.87368E+02  1.79355E+03 -9.12312E+02 -2.61400E+03  1.53825E+03 -6.51225E+03
  9.90989E+03 -3.31429E+03  1.31739E+04  1.44970E+03  1.28627E+04  9.10370E+03  8.55410E+03  1.70734E+04
 -4.24178E+03  1.99468E+04 -1.65673E+04  1.51838E+04 -2.20928E+04  2.55691E+03 -1.70852E+04 -7.37909E+03
 -8.62316E+03 -1.34262E+04 -3.97370E+02 -1.19592E+04  3.95120E+03 -6.67512E+03  3.96922E+03 -4.14723E+03
  2.45881E+03 -2.07833E+03  3.36241E+03 -2.99101E+03  5.50560E+03 -2.94301E+03  7.29325E+03 -8.23651E+02
  8.74303E+03  1.86272E+03  4.23427E+03  7.83955E+03 -2.26484E+03  9.24069E+03 -9.80091E+03  6.89929E+03
 -1.22604E+04 -1.36061E+03 -7.37745E+03 -8.20591E+03 -1.20747E+03 -1.28953E+04  6.83629E+03 -1.33892E+04
  1.27942E+04 -7.29843E+03  1.55365E+04  1.60643E+03  1.05794E+04  1.09193E+04  1.76848E+03  1.49739E+04
 -6.11947E+03  1.18384E+04 -8.50399E+03  3.43449E+03 -5.70467E+03 -2.21119E+03 -2.26098E+03 -1.81577E+03
 -1.49328E+03  1.39899E+02 -1.70547E+03  2.91984E+03 -4.97660E+03  2.03105E+03 -7.79773E+03 -8.94422E+02
 -5.44983E+03 -8.30329E+03  7.68896E+02 -1.18560E+04  6.89087E+03 -1.06975E+04  1.15798E+04 -2.84715E+03
  1.12602E+04  5.71174E+03  5.45129E+03  1.01527E+04 -2.78490E+03  1.14926E+04 -7.80155E+03  7.34471E+03
 -1.01270E+04  7.68828E+02 -8.71324E+03 -7.12868E+03 -5.29598E+02 -9.39295E+03  4.30698E+03 -8.00759E+03
  7.73651E+03 -2.00733E+03  4.87390E+03  1.41317E+03  1.94183E+03  4.11573E+03  4.87145E+02  1.15300E+03
  2.52536E+03  1.91770E+03  2.91749E+03  1.65377E+03  4.48354E+03  3.88385E+03  3.19703E+03  5.79018E+03
 -2.74681E+03  9.34011E+03 -7.98964E+03  9.03867E+03 -1.12438E+04  2.17885E+03 -1.18282E+04 -4.51458E+03
 -5.84870E+03 -1.05115E+04  1.64898E+03 -1.27137E+04  7.01495E+03 -7.63717E+03  9.80019E+03 -2.17700E+03
  7.20448E+03  4.77248E+03  2.06545E+03  6.64599E+03 -3.42806E+03  4.01753E+03 -5.09253E+03 -2.99217E+02
 -1.99764E+03 -5.04915E+03  3.17107E+03 -4.22836E+03  5.02253E+03 -2.50499E+03  4.29894E+03 -1.32951E+01
  2.84392E+03  1.61587E+03  1.17115E+03  1.33599E+03 -4.88935E+02  1.39523E+03  2.29617E+03 -7.51385E+02
  1.48215E+03 -1.01766E+03  4.89285E+03  1.86708E+03  2.81880E+03  6.71721E+03 -1.88863E+03  8.70947E+03
 -5.41795E+03  5.46669E+03 -7.34512E+03  1.13162E+03 -6.72520E+03 -2.73845E+03 -1.93240E+03 -4.33804E+03
  1.82057E+03 -4.33930E+03  2.33261E+03 -1.64004E+03  2.32387E+03  3.17091E+03 -1.67151E+03  3.59202E+03
 -5.48382E+03  3.28525E+03 -5.09122E+03 -2.40181E+03 -2.88107E+03 -6.87317E+03  7.89987E+02 -6.02123E+03
  3.78129E+03 -3.22624E+03  4.43636E+03 -9.39356E+02  4.40377E+03  1.62338E+03  4.75261E+02  3.81540E+03
 -1.98147E+03  4.42616E+02 -2.40493E+03 -1.58605E+03  1.14218E+03 -4.72897E+03  5.07613E+03 -4.29030E+03
  7.53024E+03  1.40546E+02  6.76244E+03  5.08613E+03  2.00058E+03  7.27657E+03 -1.91408E+03  7.49867E+03
 -6.17350E+03  2.30526E+03 -6.57756E+03 -2.94517E+02 -4.07568E+03 -4.74382E+03  1.61919E+03 -4.77882E+03
  4.93627E+03 -1.60294E+03  4.17068E+03  1.91971E+03  8.18324E+02  4.25278E+03 -1.25694E+02  3.84190E+03
 -2.22167E+03  1.84981E+03 -1.55616E+03  1.30110E+03 -9.98944E+02  2.73489E+02 -1.39954E+03  2.31306E+03
 -1.33990E+03  3.28310E+03 -4.82023E+03  2.59104E+03 -7.47739E+03  8.86136E+01 -8.69359E+03 -4.38385E+03
 -3.57316E+03 -1.01803E+04  1.80199E+03 -1.17846E+04  6.88482E+03 -9.09410E+03  9.80480E+03 -3.41287E+03
  1.04751E+04  1.08203E+03  5.64583E+03  6.38374E+03  1.03759E+02  8.02162E+03 -2.67281E+03  5.29516E+03
 -3.40010E+03  2.38998E+03 -2.76687E+03 -6.58942E+02 -1.10759E+03 -1.49059E+03 -1.17394E+03 -5.14979E+02
 -2.07460E+03 -1.01985E+02 -2.51162E+03  2.29589E+01 -9.11204E+02 -2.34103E+03  1.34876E+02 -2.39212E+03
  3.55266E+03 -2.21884E+03  4.13848E+03  4.64661E+02  5.55999E+03  3.91007E+03  1.73552E+03  6.64052E+03
 -4.47470E+03  8.46236E+03 -7.78156E+03  5.27827E+03 -9.33489E+03 -4.34252E+02 -6.60679E+03 -5.30327E+03
 -2.92071E+03 -7.43718E+03  1.42491E+03 -6.86383E+03  4.18209E+03 -4.17654E+03  4.11172E+03  3.79638E+02
  3.08350E+03  1.59024E+03 -9.17665E+01  2.05023E+03 -1.53482E+03 -1.95968E+02  4.96068E+02 -1.81516E+03
  1.98465E+03 -1.15962E+03  2.13468E+03  1.40650E+03  2.08484E+03  2.82583E+03  2.68908E+02  3.47652E+03
 -3.57894E+03  3.73787E+03 -5.17173E+03  9.88608E+02 -4.64315E+03 -2.99263E+03 -1.33227E+03 -6.04167E+03
  3.02553E+03 -4.18114E+03  5.61486E+03 -1.29613E+03  5.61448E+03  4.24523E+02  2.97187E+03  4.21243E+03
  3.43980E+02  5.09025E+03 -1.75146E+03  3.66616E+03 -3.35372E+03  2.72210E+03 -2.77850E+03  5.02414E+02
 -7.43331E+02  2.75692E+02 -1.45623E+03  9.67707E+01 -2.70070E+03  1.10318E+03 -3.28512E+03 -4.87889E+02
 -4.16408E+03 -1.78206E+03 -1.07059E+03 -5.21396E+03  2.71426E+03 -5.70045E+03  4.44294E+03 -3.36120E+03
  4.04817E+03  8.60606E+02  2.36616E+03  2.73887E+03 -4.29062E+02  4.94947E+03 -3.79286E+03  2.98892E+03
