 $NMID ID='MM_0lb_SNR400_7hz_g50_32.RAW', FMTDAT='(8E13.5)'
 TRAMP=1., VOLUME=1. $END
  3.10397E+05  5.13619E+02  3.37932E+05  2.50911E+05  8.48177E+04  3.38368E+05 -1.33163E+05  2.53100E+05
 -1.90157E+05  8.34511E+04 -1.12726E+05 -3.20043E+04 -9.83892E+02 -5.13177E+04  5.33937E+04 -7.38946E+02
  3.59180E+04  5.26150E+04 -1.68299E+04  7.66688E+04 -6.05121E+04  6.50079E+04 -8.56964E+04  3.19494E+04
 -8.28940E+04 -1.18496E+04 -5.93947E+04 -5.23600E+04 -1.55451E+04 -7.18285E+04  2.86643E+04 -4.69361E+04
  4.17246E+04  3.66816E+03  1.70922E+04  4.90279E+04 -3.49093E+04  4.91652E+04 -6.81130E+04  1.09068E+03
 -5.49301E+04 -5.75554E+04 -7.71910E+03 -7.98057E+04  3.48838E+04 -5.85975E+04  5.08028E+04 -1.80328E+04
  4.53806E+04  1.21288E+04  3.29056E+04  2.68698E+04  1.56754E+04  3.20602E+04 -5.59887E+03  2.68548E+04
 -2.25143E+04  1.11637E+04 -1.79957E+04 -6.55705E+03  7.02039E+03 -6.60718E+03  2.33723E+04  1.46780E+04
  6.89835E+03  3.78066E+04 -3.50710E+04  3.71091E+04 -6.60418E+04  2.02665E+03 -5.98001E+04 -4.54841E+04
 -1.27012E+04 -6.68866E+04  4.16820E+04 -4.84716E+04  6.27232E+04 -2.43026E+03  3.78607E+04  3.50252E+04
 -6.50089E+03  4.01473E+04 -3.30175E+04  1.96705E+04 -3.41214E+04 -3.17578E+03 -2.02556E+04 -1.28614E+04
 -9.81304E+03 -1.53480E+04 -3.47901E+02 -1.96299E+04  8.66171E+03 -2.41871E+04  1.63196E+04 -1.11414E+04
  1.04392E+04  6.64508E+03 -1.08329E+04  1.34680E+04 -2.44378E+04 -7.26444E+03 -9.11243E+03 -3.94905E+04
  2.56281E+04 -4.77890E+04  5.35809E+04 -2.08559E+04  5.05936E+04  2.23619E+04  1.83668E+04  4.79598E+04
 -1.71924E+04  3.70392E+04 -2.75738E+04  2.70595E+03 -1.31852E+04 -3.13079E+04  2.11789E+04 -3.80722E+04
  4.59734E+04 -1.23701E+04  4.19777E+04  2.51046E+04  2.18478E+04  5.34801E+04 -9.01977E+03  5.89925E+04
 -3.76029E+04  4.04924E+04 -4.92475E+04  1.14743E+04 -4.89261E+04 -2.07564E+04 -2.74486E+04 -4.36333E+04
  9.25697E+03 -4.50852E+04  3.47844E+04 -1.76372E+04  3.36364E+04  1.03978E+04  5.71270E+03  2.10533E+04
 -1.39102E+04  1.02847E+04 -1.14113E+04 -6.88965E+03  5.55668E+03 -1.15631E+04  1.86292E+04  5.28828E+03
  1.50681E+04  2.33443E+04 -6.05474E+03  2.83582E+04 -2.45273E+04  1.53551E+04 -3.24892E+04 -2.32542E+03
 -2.77425E+04 -1.91287E+04 -1.27850E+04 -2.71683E+04  4.37963E+03 -2.81279E+04  2.15456E+04 -2.46604E+04
  3.48085E+04 -1.49767E+04  4.06801E+04  6.50978E+03  2.78365E+04  2.72613E+04  4.26856E+03  4.29882E+04
 -2.04593E+04  3.59692E+04 -3.17800E+04  1.16044E+04 -2.33382E+04 -9.76544E+03 -4.69496E+03 -1.23281E+04
  9.80910E+02 -9.70792E+02 -8.83028E+03  9.41654E+03 -2.29604E+04  5.94589E+03 -2.19640E+04 -1.12801E+04
 -1.25468E+04 -2.52140E+04  6.63153E+03 -2.97699E+04  2.06036E+04 -2.13727E+04  2.51410E+04 -2.26946E+03
  1.57085E+04  1.63774E+04 -2.11934E+03  2.58250E+04 -1.78375E+04  1.47296E+04 -2.51455E+04 -4.87369E+03
 -1.90118E+04 -2.23854E+04 -2.50195E+03 -3.05014E+04  1.32581E+04 -2.51419E+04  2.44362E+04 -1.33067E+04
  2.34930E+04 -8.94002E+02  1.72252E+04  5.47995E+03  9.53660E+03  1.52865E+03  1.45778E+04 -1.95952E+03
  2.36473E+04  3.07527E+03  2.83072E+04  1.94449E+04  2.01548E+04  4.09874E+04 -2.98527E+03  4.87941E+04
 -2.83294E+04  4.08055E+04 -4.63283E+04  2.14086E+04 -4.95978E+04 -4.15066E+03 -4.00727E+04 -2.90496E+04
 -1.50350E+04 -4.18872E+04  1.50823E+04 -3.62714E+04  3.09990E+04 -1.71654E+04  2.63535E+04  8.56371E+03
  8.29672E+03  2.05601E+04 -1.28112E+04  1.62970E+04 -2.21981E+04  2.58853E+03 -1.68944E+04 -1.40122E+04
 -7.03238E+02 -2.14209E+04  1.19365E+04 -1.49903E+04  1.54601E+04 -2.10698E+03  3.74639E+03  9.91924E+03
 -9.67486E+03  5.87952E+03 -1.13193E+04 -7.37267E+03 -1.69465E+03 -2.05714E+04  1.22223E+04 -2.24978E+04
  2.55281E+04 -1.28328E+04  3.01014E+04  3.33647E+03  2.64964E+04  2.16357E+04  1.24012E+04  3.33514E+04
 -6.34581E+03  3.60880E+04 -2.33134E+04  2.15453E+04 -2.68940E+04  3.77988E+03 -1.74990E+04 -6.84435E+03
 -7.28842E+03 -8.24536E+03 -8.59569E+02 -6.12867E+02 -3.06436E+03  2.79902E+03 -7.91165E+03  5.44370E+03
 -1.63405E+04 -1.57266E+03 -1.58423E+04 -1.25150E+04 -6.82243E+03 -2.15223E+04  7.62163E+03 -1.73604E+04
  1.51291E+04 -7.30505E+03  1.11479E+04  4.84108E+03 -1.80560E+02  6.74671E+03 -9.55238E+03 -1.20365E+03
 -9.08852E+03 -1.11431E+04 -1.48286E+03 -1.88469E+04  1.06798E+04 -1.81731E+04  2.28905E+04 -1.01699E+04
  2.56894E+04  3.71421E+03  2.02657E+04  1.67412E+04  3.38945E+03  2.19102E+04 -1.03912E+04  1.84332E+04
 -1.41615E+04  4.81939E+03 -7.51316E+03 -3.99953E+03  3.30843E+03 -5.46893E+03  9.41750E+03 -9.52155E+02
  8.15119E+03  7.95870E+03  7.58564E+02  1.47626E+04 -9.38506E+03  1.33248E+04 -1.80203E+04  3.15395E+03
 -1.26849E+04 -9.08610E+03 -9.89536E+01 -1.48665E+04  1.03696E+04 -7.71624E+03  1.08837E+04  4.43733E+03
  2.71593E+03  1.20223E+04 -9.63412E+03  1.43714E+04 -1.69449E+04  6.19548E+03 -1.69839E+04 -5.91980E+03
 -9.58932E+03 -1.86456E+04  5.14245E+03 -2.18427E+04  1.91025E+04 -1.31880E+04  2.07781E+04  3.11674E+03
  1.22037E+04  1.51534E+04 -1.05223E+03  1.80639E+04 -1.38015E+04  1.06602E+04 -1.55401E+04 -1.53052E+03
 -1.21784E+04 -1.22886E+04 -2.17615E+03 -1.45491E+04  7.34846E+03 -1.10441E+04  1.03937E+04 -3.95178E+03
  5.91833E+03  2.55013E+03 -1.95600E+03  2.24739E+03 -9.83621E+02 -3.96752E+03  3.73420E+03 -9.37002E+03
  1.34566E+04 -6.29671E+03  1.95746E+04  2.57363E+03  1.86807E+04  1.36174E+04  1.09872E+04  2.42091E+04
 -5.51657E+03  2.89215E+04 -2.37525E+04  2.05609E+04 -3.02531E+04  3.81147E+03 -2.55646E+04 -1.07487E+04
 -1.13787E+04 -2.06393E+04 -3.06634E+02 -1.82005E+04  5.66160E+03 -1.01458E+04  5.34454E+03 -5.71462E+03
  5.19299E+03 -2.04924E+03  4.07652E+03 -4.24277E+03  6.87857E+03 -4.27990E+03  1.01827E+04 -2.60995E+03
  1.26533E+04  3.28738E+03  6.75101E+03  1.10277E+04 -1.97276E+03  1.46243E+04 -1.30087E+04  9.75006E+03
 -1.80815E+04 -1.01901E+03 -1.19390E+04 -1.32441E+04 -1.16133E+03 -1.99717E+04  9.99234E+03 -1.96903E+04
  2.05872E+04 -1.08266E+04  2.44551E+04  3.58983E+03  1.66002E+04  1.67060E+04  2.49602E+03  2.15269E+04
 -9.61068E+03  1.79335E+04 -1.19691E+04  6.47993E+03 -8.22434E+03 -2.04581E+03 -3.83045E+03 -4.33669E+03
 -1.52470E+03 -3.88306E+02 -2.52762E+03  3.19764E+03 -6.62334E+03  3.08138E+03 -1.22635E+04 -1.19535E+03
 -9.14155E+03 -1.21683E+04 -1.42539E+02 -1.83697E+04  1.12085E+04 -1.73522E+04  1.87696E+04 -4.69970E+03
  1.85928E+04  9.21801E+03  8.78909E+03  1.57794E+04 -2.89301E+03  1.95356E+04 -1.38026E+04  1.16093E+04
 -1.71439E+04  5.80573E+01 -1.37178E+04 -1.08184E+04 -1.31744E+03 -1.58694E+04  7.89345E+03 -1.19630E+04
  1.21258E+04 -3.57250E+03  7.76204E+03  3.36861E+03  3.06897E+03  5.37453E+03  1.50863E+03  2.95208E+03
  3.28008E+03  1.70948E+03  4.99600E+03  1.96526E+03  5.45084E+03  6.55977E+03  5.21427E+03  9.86318E+03
 -2.81284E+03  1.47842E+04 -1.29984E+04  1.53797E+04 -1.98464E+04  3.09234E+03 -1.94558E+04 -7.77228E+03
 -9.51542E+03 -1.89698E+04  2.05939E+03 -2.09817E+04  1.19173E+04 -1.35930E+04  1.58775E+04 -3.50487E+03
  1.19260E+04  7.74412E+03  2.35190E+03  1.15357E+04 -6.14001E+03  7.12339E+03 -8.23002E+03 -1.56088E+03
 -4.57627E+03 -8.72216E+03  3.64528E+03 -8.42269E+03  8.01115E+03 -3.94986E+03  8.37959E+03  2.49537E+03
  4.59595E+03  4.75246E+03  2.54531E+03  3.85294E+03 -1.60703E+03  2.93511E+03  1.77130E+03 -7.22368E+02
  3.78260E+03 -1.88065E+03  8.54618E+03  3.92675E+03  5.45986E+03  1.09943E+04 -1.86489E+03  1.43556E+04
 -1.00604E+04  9.37688E+03 -1.37391E+04  2.83245E+03 -1.11583E+04 -4.30141E+03 -4.56301E+03 -8.13443E+03
  2.70806E+03 -8.04833E+03  5.55981E+03 -3.47928E+03  4.31658E+03  3.35395E+03 -2.09757E+03  6.33738E+03
 -7.44446E+03  3.39053E+03 -1.08800E+04 -4.60975E+03 -5.06723E+03 -1.07581E+04  2.24503E+03 -1.13636E+04
  6.79430E+03 -6.91589E+03  7.34315E+03 -6.44248E+02  6.23903E+03  2.85725E+03  1.36924E+03  6.00702E+03
 -3.80302E+03  1.44031E+03 -4.86291E+03 -4.73337E+03  2.23384E+03 -8.36011E+03  1.01606E+04 -6.80505E+03
  1.38531E+04  1.20685E+03  1.22947E+04  9.32820E+03  3.05734E+03  1.31878E+04 -4.60535E+03  1.22277E+04
 -1.19174E+04  6.03964E+03 -1.18042E+04 -2.98937E+03 -7.06270E+03 -9.03494E+03  2.29082E+03 -8.35947E+03
  8.49270E+03 -4.12661E+03  8.10026E+03  2.83986E+03  2.19711E+03  7.93940E+03 -2.04909E+03  6.37897E+03
 -3.68371E+03  4.13710E+03 -3.27713E+03  1.54881E+03 -1.52179E+03  1.37210E+02 -2.39647E+03  2.90258E+03
 -3.78857E+03  5.30005E+03 -8.85475E+03  4.70976E+03 -1.29904E+04 -2.90183E+02 -1.44538E+04 -9.41659E+03
 -7.56909E+03 -1.83794E+04  2.79257E+03 -2.13839E+04  1.30535E+04 -1.60223E+04  2.00581E+04 -6.13981E+03
  1.81983E+04  3.37909E+03  1.17535E+04  1.32683E+04  2.15537E+03  1.56640E+04 -6.28062E+03  1.08678E+04
 -8.34108E+03  4.65523E+03 -5.18913E+03 -1.24483E+03 -2.12893E+03 -1.91095E+03 -9.50388E+02  2.52767E+02
 -2.76157E+03  5.67311E+02 -2.92664E+03 -5.65935E+02 -1.72804E+03 -3.27200E+03  9.40433E+02 -4.61642E+03
  5.68518E+03 -5.51357E+03  8.52232E+03  4.81150E+02  1.02229E+04  8.37214E+03  4.01272E+03  1.62833E+04
 -7.17823E+03  1.67629E+04 -1.53120E+04  1.02288E+04 -1.83626E+04 -1.98796E+03 -1.34588E+04 -1.12911E+04
 -6.26428E+03 -1.48956E+04  3.45687E+03 -1.37387E+04  1.08652E+04 -8.54241E+03  9.34699E+03  9.75961E+02
  5.38067E+03  5.62296E+03 -9.89467E+01  4.34661E+03 -2.39600E+03 -1.18644E+02  5.70311E+02 -3.03619E+03
  4.06917E+03 -2.47225E+03  5.89493E+03  1.80828E+03  3.99369E+03  6.83222E+03 -1.42593E+02  8.67858E+03
 -6.65184E+03  6.80186E+03 -1.08217E+04  3.56676E+02 -8.70231E+03 -8.03423E+03 -1.50968E+03 -1.28062E+04
  8.58218E+03 -1.01316E+04  1.17767E+04 -2.69522E+03  1.22297E+04  4.77192E+03  6.66270E+03  9.20552E+03
  1.22475E+03  1.06768E+04 -3.87000E+03  7.85326E+03 -6.96052E+03  4.94563E+03 -4.92789E+03  1.11176E+03
 -3.08610E+03  3.12648E+02 -3.01954E+03  1.75929E+03 -5.48857E+03  2.14121E+03 -6.96615E+03 -1.01493E+03
 -7.76913E+03 -5.64514E+03 -2.11259E+03 -1.01154E+04  5.03276E+03 -1.14548E+04  9.44358E+03 -5.10605E+03
  1.14601E+04  9.91955E+02  6.86049E+03  8.04267E+03 -1.28667E+03  1.09583E+04 -8.69478E+03  6.80253E+03
