 $NMID ID='MM_0lb_SNR400_12hz_g60_42.RAW', FMTDAT='(8E13.5)'
 TRAMP=1., VOLUME=1. $END
  3.09501E+05  1.15900E+02  3.37732E+05  2.50715E+05  8.47194E+04  3.38130E+05 -1.32833E+05  2.51510E+05
 -1.90287E+05  8.34432E+04 -1.11989E+05 -3.22913E+04  3.14636E+02 -5.02985E+04  5.35161E+04 -6.69569E+01
  3.56501E+04  5.29612E+04 -1.68911E+04  7.60095E+04 -6.14685E+04  6.34598E+04 -8.48922E+04  3.24719E+04
 -8.24154E+04 -1.14915E+04 -5.84196E+04 -5.24165E+04 -1.50020E+04 -7.11622E+04  2.79164E+04 -4.66271E+04
  3.98361E+04  3.86446E+03  1.63932E+04  4.86343E+04 -3.47728E+04  4.74316E+04 -6.81221E+04 -1.95780E+02
 -5.47566E+04 -5.74554E+04 -7.22932E+03 -7.88607E+04  3.46625E+04 -5.68652E+04  4.96615E+04 -1.81641E+04
  4.44814E+04  1.15753E+04  3.27146E+04  2.60133E+04  1.64016E+04  3.00985E+04 -5.78537E+03  2.73691E+04
 -2.27742E+04  1.19896E+04 -1.80074E+04 -5.10745E+03  6.56112E+03 -7.52877E+03  2.35368E+04  1.32839E+04
  7.42314E+03  3.68846E+04 -3.39075E+04  3.64619E+04 -6.51926E+04  2.24000E+03 -5.79483E+04 -4.38798E+04
 -1.23069E+04 -6.57779E+04  4.07859E+04 -4.65045E+04  6.00194E+04 -3.03046E+03  3.61235E+04  3.42322E+04
 -5.58109E+03  3.82720E+04 -3.12707E+04  1.78365E+04 -3.24487E+04 -3.64959E+03 -1.89292E+04 -1.19152E+04
 -9.27177E+03 -1.53219E+04 -8.59157E+02 -1.88221E+04  8.19163E+03 -2.35494E+04  1.62000E+04 -1.26300E+04
  1.01282E+04  5.68087E+03 -1.00296E+04  1.30837E+04 -2.25933E+04 -5.86755E+03 -8.64450E+03 -3.60953E+04
  2.44623E+04 -4.58994E+04  5.12765E+04 -2.10457E+04  4.76546E+04  2.10555E+04  1.67437E+04  4.67792E+04
 -1.62499E+04  3.59305E+04 -2.72131E+04  2.74323E+03 -1.13423E+04 -2.88274E+04  2.12924E+04 -3.54850E+04
  4.36415E+04 -1.05468E+04  3.89063E+04  2.51871E+04  2.00645E+04  4.92243E+04 -8.81480E+03  5.50860E+04
 -3.43029E+04  3.68035E+04 -4.56786E+04  1.06321E+04 -4.59100E+04 -1.83907E+04 -2.48549E+04 -4.04391E+04
  7.82989E+03 -4.13695E+04  3.35130E+04 -1.61482E+04  3.13298E+04  1.09239E+04  5.17211E+03  2.04054E+04
 -1.39639E+04  9.04237E+03 -1.04340E+04 -7.85083E+03  5.57160E+03 -1.08236E+04  1.89009E+04  5.62579E+03
  1.41723E+04  2.29359E+04 -5.72992E+03  2.64769E+04 -2.34957E+04  1.39642E+04 -3.03179E+04 -3.32003E+03
 -2.37952E+04 -1.80787E+04 -1.03588E+04 -2.27194E+04  4.18640E+03 -2.34122E+04  1.84810E+04 -2.09387E+04
  2.95548E+04 -1.28750E+04  3.63241E+04  3.98226E+03  2.53276E+04  2.19293E+04  4.16468E+03  3.91892E+04
 -1.92741E+04  3.23476E+04 -3.02184E+04  1.14713E+04 -2.19823E+04 -9.84921E+03 -4.53197E+03 -1.25798E+04
  1.12677E+03 -1.61084E+03 -6.87982E+03  7.67211E+03 -1.82892E+04  5.19689E+03 -1.94006E+04 -8.65918E+03
 -1.12799E+04 -2.13792E+04  6.15742E+03 -2.58113E+04  1.74707E+04 -1.89250E+04  2.11963E+04 -2.30115E+03
  1.38049E+04  1.50018E+04 -1.53777E+03  2.14025E+04 -1.61104E+04  1.30446E+04 -2.16949E+04 -4.09652E+03
 -1.63743E+04 -1.96394E+04 -1.59212E+03 -2.59603E+04  1.17128E+04 -2.18758E+04  2.11957E+04 -1.13348E+04
  2.00785E+04  2.01931E+02  1.45964E+04  4.89757E+03  7.54960E+03  1.71409E+03  1.15163E+04 -1.84468E+03
  1.98153E+04  2.25489E+03  2.31473E+04  1.77170E+04  1.56050E+04  3.48754E+04 -3.44541E+03  3.98348E+04
 -2.35988E+04  3.35930E+04 -3.85869E+04  1.74680E+04 -4.06075E+04 -2.88544E+03 -3.32294E+04 -2.36139E+04
 -1.32970E+04 -3.32067E+04  1.19273E+04 -2.93854E+04  2.58226E+04 -1.41719E+04  2.24032E+04  7.04952E+03
  7.86444E+03  1.71183E+04 -1.11628E+04  1.46902E+04 -1.83487E+04  3.11060E+03 -1.46895E+04 -1.12660E+04
  3.22395E+02 -1.82280E+04  9.73808E+03 -1.24438E+04  1.18754E+04 -1.25071E+03  3.00575E+03  7.95894E+03
 -8.49143E+03  4.03337E+03 -7.07645E+03 -6.48411E+03 -1.66426E+03 -1.61431E+04  1.09805E+04 -1.73265E+04
  2.02404E+04 -9.35280E+03  2.33273E+04  2.82199E+03  1.98965E+04  1.64044E+04  9.06717E+03  2.63123E+04
 -4.42422E+03  2.79545E+04 -1.78520E+04  1.69818E+04 -1.98362E+04  3.83424E+03 -1.32974E+04 -4.69632E+03
 -6.65595E+03 -5.80496E+03 -1.34393E+03  5.12778E+02 -2.56465E+03  3.36247E+03 -6.51456E+03  4.92751E+03
 -1.20640E+04 -1.05151E+03 -1.34001E+04 -1.10981E+04 -5.60793E+03 -1.76019E+04  5.85760E+03 -1.37559E+04
  1.12201E+04 -6.32536E+03  7.62780E+03  3.37390E+03 -1.75813E+02  4.92279E+03 -6.89796E+03 -2.59526E+01
 -5.59390E+03 -9.71811E+03 -1.42234E+03 -1.37395E+04  7.86121E+03 -1.43531E+04  1.75097E+04 -7.60434E+03
  2.09285E+04  1.90442E+03  1.52109E+04  1.17376E+04  2.87894E+03  1.57433E+04 -7.99886E+03  1.35019E+04
 -1.14674E+04  3.36893E+03 -5.53457E+03 -2.90799E+03  2.04236E+03 -3.29190E+03  6.75008E+03 -9.24316E+02
  6.36539E+03  6.02283E+03  1.31208E+03  1.11685E+04 -7.44655E+03  1.05864E+04 -1.36514E+04  2.60440E+03
 -9.17362E+03 -7.15875E+03  8.20778E+02 -1.10758E+04  7.29370E+03 -6.07296E+03  7.09382E+03  2.35628E+03
  1.22433E+03  7.95366E+03 -7.51500E+03  9.48148E+03 -1.14893E+04  4.91882E+03 -1.18837E+04 -4.94834E+03
 -7.25154E+03 -1.30886E+04  2.16326E+03 -1.47330E+04  1.26971E+04 -9.57477E+03  1.40764E+04  2.20434E+03
  9.02755E+03  1.05779E+04 -1.00283E+03  1.29396E+04 -9.86679E+03  7.26076E+03 -1.08982E+04 -1.39311E+03
 -9.12884E+03 -8.72943E+03 -1.90365E+03 -9.85074E+03  4.86585E+03 -8.35811E+03  5.98466E+03 -3.60888E+03
  4.52532E+03  1.12299E+03 -4.65509E+02  2.30060E+03 -6.52375E+02 -3.15725E+03  2.40934E+03 -5.94271E+03
  9.21686E+03 -4.06108E+03  1.27144E+04  9.76600E+02  1.30827E+04  8.63338E+03  8.63645E+03  1.71308E+04
 -3.79920E+03  1.88708E+04 -1.66740E+04  1.39465E+04 -2.09292E+04  2.71262E+03 -1.75050E+04 -7.41638E+03
 -9.01168E+03 -1.39881E+04  6.88113E+01 -1.09441E+04  4.51390E+03 -5.76108E+03  4.22523E+03 -3.81102E+03
  2.52024E+03 -2.80279E+03  3.54039E+03 -2.86866E+03  4.54170E+03 -2.26981E+03  6.44573E+03 -7.51023E+02
  8.97784E+03  2.10914E+03  3.69836E+03  7.24468E+03 -1.87206E+03  9.02932E+03 -9.14178E+03  6.89693E+03
 -1.15735E+04 -9.22355E+02 -6.32458E+03 -8.43803E+03 -8.82126E+02 -1.19172E+04  7.52613E+03 -1.22270E+04
  1.32407E+04 -7.48784E+03  1.50346E+04  1.96598E+03  1.08258E+04  1.07721E+04  2.07624E+03  1.35817E+04
 -6.19739E+03  1.15281E+04 -8.10296E+03  4.38959E+03 -5.63664E+03 -8.46763E+02 -3.19968E+03 -1.16359E+03
 -1.41767E+03 -2.13809E+01 -1.80542E+03  3.44390E+03 -4.75007E+03  1.69018E+03 -8.12923E+03 -1.76423E+03
 -6.20072E+03 -7.58406E+03  2.24939E+02 -1.12513E+04  7.03425E+03 -1.00511E+04  1.13593E+04 -3.51835E+03
  1.10851E+04  5.12122E+03  5.23904E+03  9.51794E+03 -2.09293E+03  1.09776E+04 -7.11443E+03  6.59545E+03
 -1.06754E+04  3.43861E+02 -8.21611E+03 -6.94522E+03 -6.19757E+02 -9.40986E+03  3.62808E+03 -7.14878E+03
  6.71705E+03 -1.57166E+03  5.60381E+03  1.96709E+03  1.64577E+03  3.77003E+03  1.42760E+03  1.84754E+03
  3.03732E+03  1.00098E+03  2.63674E+03  1.65919E+03  3.88795E+03  4.27107E+03  3.17378E+03  5.63891E+03
 -2.03108E+03  8.05326E+03 -7.07829E+03  9.05917E+03 -1.10446E+04  2.97964E+03 -1.07309E+04 -3.51737E+03
 -5.27797E+03 -1.07960E+04  2.07668E+03 -1.24553E+04  6.52254E+03 -7.90723E+03  8.74477E+03 -2.62988E+03
  6.65413E+03  4.95688E+03  1.99652E+03  5.89230E+03 -2.48708E+03  3.89870E+03 -3.84450E+03 -5.77412E+02
 -1.93125E+03 -4.70304E+03  2.25348E+03 -5.28810E+03  4.59363E+03 -2.42105E+03  4.05325E+03  1.26676E+03
  3.60216E+03  2.03930E+03  1.40247E+03  1.58268E+03 -7.31007E+02  2.20113E+03  1.69889E+03  1.84129E+02
  1.62712E+03 -3.62406E+02  4.88041E+03  1.97616E+03  2.26423E+03  6.33405E+03 -1.36574E+03  8.21230E+03
 -5.93222E+03  4.17107E+03 -7.05626E+03  4.40516E+02 -6.07312E+03 -1.77427E+03 -2.65607E+03 -3.80105E+03
  2.18592E+02 -3.86348E+03  2.88389E+03 -1.94473E+03  1.95506E+03  2.48015E+03 -9.11659E+02  3.50591E+03
 -4.70854E+03  2.29431E+03 -4.99430E+03 -2.64041E+03 -3.13005E+03 -6.05494E+03  3.30519E+02 -5.73174E+03
  3.22587E+03 -3.22571E+03  3.42433E+03 -6.14291E+02  3.93029E+03  1.61908E+03 -3.53283E+01  3.30986E+03
 -2.19240E+03  9.77960E+02 -2.48985E+03 -1.95897E+03  7.64575E+02 -3.84359E+03  5.17981E+03 -3.69913E+03
  5.80990E+03 -6.25356E-02  6.69053E+03  4.03622E+03  1.62306E+03  6.25293E+03 -2.63023E+03  6.50183E+03
 -4.75833E+03  2.85015E+03 -5.55039E+03 -2.13093E+02 -2.43457E+03 -4.43690E+03  1.15642E+03 -3.89540E+03
  4.06038E+03 -1.91797E+03  3.60736E+03  1.90816E+03  7.32502E+02  3.52257E+03 -1.53117E+02  3.54432E+03
 -1.53951E+03  2.15865E+03 -8.64556E+02  6.29732E+02 -1.03705E+03  7.41445E+02 -9.82288E+02  8.17390E+02
 -1.61514E+03  2.65783E+03 -4.68174E+03  2.42450E+03 -6.87746E+03 -1.24666E+02 -7.44083E+03 -4.16861E+03
 -3.91068E+03 -8.27793E+03  2.59794E+03 -1.00202E+04  5.78953E+03 -7.73459E+03  9.30889E+03 -2.82233E+03
  9.01561E+03  1.67005E+03  5.17466E+03  5.92132E+03 -8.17796E+02  6.46185E+03 -2.63819E+03  4.94934E+03
 -4.01505E+03  2.45617E+03 -2.37724E+03 -5.51596E+02 -9.30427E+02  1.89227E+02 -9.44166E+02  8.34561E+00
 -1.90315E+03 -2.46467E+01 -1.67848E+03 -6.01589E+02 -5.45933E+02 -1.91799E+03 -1.81837E+02 -2.82494E+03
  2.86270E+03 -2.08299E+03  3.12915E+03  2.92575E+02  4.54227E+03  3.70335E+03  9.71563E+02  6.46577E+03
 -3.31889E+03  7.37597E+03 -6.86681E+03  4.24424E+03 -7.98896E+03 -3.20950E+02 -5.78478E+03 -4.64106E+03
 -1.75756E+03 -6.59364E+03  7.06415E+02 -5.94546E+03  4.12024E+03 -3.23341E+03  3.55565E+03  2.26440E+01
  2.28366E+03  1.37676E+03  2.93700E+01  1.46178E+03 -9.33469E+02  4.89369E+02  3.72713E+02 -8.80505E+02
  1.88728E+03 -4.65234E+02  1.59113E+03  4.90176E+02  1.53027E+03  2.53888E+03  6.08828E+02  2.69045E+03
 -1.79382E+03  2.18357E+03 -3.43202E+03  3.50239E+02 -3.27987E+03 -3.12049E+03 -6.57400E+02 -5.04718E+03
  3.65338E+03 -3.48140E+03  4.32824E+03 -1.41483E+03  4.41816E+03  3.17595E+02  2.44356E+03  4.32905E+03
 -1.21688E+02  3.96651E+03 -1.78748E+03  3.07319E+03 -3.24275E+03  1.50712E+03 -2.18602E+03 -8.43110E+01
 -1.33307E+03  6.68585E+02 -1.03446E+03 -3.05699E+02 -2.18452E+03  6.19608E+02 -3.02247E+03 -3.45364E+02
 -2.85428E+03 -1.27158E+03 -1.52055E+03 -4.32386E+03  2.48604E+03 -4.10657E+03  3.34265E+03 -2.11911E+03
  3.75165E+03  2.46555E+02  1.64008E+03  3.25207E+03 -3.72649E+02  4.18879E+03 -2.27675E+03  2.28282E+03
