 $NMID ID='MM_0lb_SNR400_14hz_g60_57.RAW', FMTDAT='(8E13.5)'
 TRAMP=1., VOLUME=1. $END
  3.09351E+05  3.11813E+02  3.38601E+05  2.50602E+05  8.47522E+04  3.37579E+05 -1.32617E+05  2.51136E+05
 -1.90561E+05  8.34332E+04 -1.11955E+05 -3.29804E+04  2.95321E+02 -5.06057E+04  5.46590E+04 -8.43960E+01
  3.56586E+04  5.31706E+04 -1.65717E+04  7.60154E+04 -6.12326E+04  6.34449E+04 -8.46089E+04  3.25861E+04
 -8.16262E+04 -1.13580E+04 -5.79529E+04 -5.17967E+04 -1.46253E+04 -7.10234E+04  2.78477E+04 -4.63989E+04
  4.02822E+04  3.51867E+03  1.56805E+04  4.81496E+04 -3.38261E+04  4.70746E+04 -6.72246E+04  6.44972E+02
 -5.43396E+04 -5.74261E+04 -6.72572E+03 -7.78341E+04  3.43035E+04 -5.56396E+04  4.91262E+04 -1.74799E+04
  4.40798E+04  1.08993E+04  3.19173E+04  2.61109E+04  1.56523E+04  2.98431E+04 -5.93904E+03  2.73126E+04
 -2.21072E+04  1.30872E+04 -1.82444E+04 -5.62345E+03  6.18642E+03 -6.96002E+03  2.27075E+04  1.25417E+04
  7.02332E+03  3.65652E+04 -3.26473E+04  3.64690E+04 -6.39947E+04  1.35849E+03 -5.79787E+04 -4.32694E+04
 -1.25760E+04 -6.41522E+04  4.10370E+04 -4.62650E+04  5.92353E+04 -2.33289E+03  3.52283E+04  3.37960E+04
 -5.88079E+03  3.75404E+04 -3.09527E+04  1.74381E+04 -3.17093E+04 -4.31115E+03 -1.78147E+04 -1.15692E+04
 -8.21347E+03 -1.35739E+04 -8.79744E+02 -1.92596E+04  7.88640E+03 -2.25330E+04  1.50358E+04 -1.27934E+04
  1.13166E+04  5.46790E+03 -9.09311E+03  1.27627E+04 -2.22031E+04 -4.92315E+03 -8.87127E+03 -3.52702E+04
  2.38819E+04 -4.53022E+04  4.91986E+04 -2.04575E+04  4.65002E+04  1.94610E+04  1.66856E+04  4.51430E+04
 -1.65942E+04  3.45299E+04 -2.55892E+04  2.19184E+03 -1.00548E+04 -2.85027E+04  2.07063E+04 -3.53593E+04
  4.23044E+04 -9.91617E+03  3.74301E+04  2.43307E+04  1.86812E+04  4.83566E+04 -7.58784E+03  5.27378E+04
 -3.27422E+04  3.56014E+04 -4.36494E+04  1.00320E+04 -4.42935E+04 -1.77067E+04 -2.40539E+04 -3.89512E+04
  7.38617E+03 -3.98944E+04  3.23793E+04 -1.48554E+04  3.02806E+04  1.04204E+04  4.50639E+03  1.96206E+04
 -1.33561E+04  9.06952E+03 -1.06013E+04 -7.87191E+03  5.77734E+03 -1.02344E+04  1.79165E+04  6.26863E+03
  1.38254E+04  2.18382E+04 -5.60055E+03  2.55346E+04 -2.26112E+04  1.19946E+04 -2.93429E+04 -3.68333E+03
 -2.25584E+04 -1.73569E+04 -9.31440E+03 -2.15859E+04  4.26493E+03 -2.15828E+04  1.66446E+04 -1.95550E+04
  2.79966E+04 -1.27959E+04  3.47293E+04  3.04668E+03  2.42526E+04  2.16016E+04  4.00957E+03  3.81665E+04
 -1.86170E+04  3.21925E+04 -2.79583E+04  1.12449E+04 -2.15176E+04 -1.07769E+04 -4.23108E+03 -1.35676E+04
  1.26952E+03 -2.28904E+03 -5.48547E+03  7.17107E+03 -1.78134E+04  5.38147E+03 -1.78393E+04 -7.00958E+03
 -1.04849E+04 -2.04012E+04  5.58311E+03 -2.42983E+04  1.64375E+04 -1.73008E+04  1.93631E+04 -2.26137E+03
  1.22091E+04  1.44254E+04 -1.25866E+03  1.98850E+04 -1.36410E+04  1.18134E+04 -2.02734E+04 -4.39242E+03
 -1.48349E+04 -1.79421E+04 -2.12801E+03 -2.42069E+04  1.06388E+04 -1.99339E+04  1.99161E+04 -1.00320E+04
  1.86233E+04 -6.14486E+02  1.34274E+04  4.66270E+03  7.70444E+03  1.14145E+03  1.02527E+04 -1.75960E+03
  1.89301E+04  2.37288E+03  2.08793E+04  1.59711E+04  1.38921E+04  3.22950E+04 -2.76883E+03  3.72110E+04
 -2.09922E+04  2.92387E+04 -3.49741E+04  1.55602E+04 -3.67400E+04 -2.08971E+03 -2.98641E+04 -2.18106E+04
 -1.25879E+04 -2.91923E+04  1.10057E+04 -2.69686E+04  2.33719E+04 -1.35107E+04  2.03114E+04  5.71922E+03
  7.42444E+03  1.51109E+04 -9.70404E+03  1.36031E+04 -1.70399E+04  3.32373E+03 -1.28855E+04 -1.05947E+04
 -1.98529E+02 -1.61309E+04  8.52909E+03 -1.18293E+04  1.08386E+04 -7.26683E+02  3.03851E+03  7.00429E+03
 -7.05080E+03  2.60320E+03 -6.38580E+03 -6.27880E+03 -1.43279E+03 -1.41898E+04  1.00504E+04 -1.55977E+04
  1.82586E+04 -9.09277E+03  1.94716E+04  3.46858E+03  1.77709E+04  1.45189E+04  7.84751E+03  2.28030E+04
 -3.40758E+03  2.36094E+04 -1.55934E+04  1.50229E+04 -1.75847E+04  4.35234E+03 -1.22116E+04 -4.05041E+03
 -5.65121E+03 -5.10733E+03 -7.00409E+02  1.24506E+03 -2.31473E+03  3.18206E+03 -5.98200E+03  4.77383E+03
 -1.10024E+04 -4.46334E+02 -1.20291E+04 -9.73110E+03 -4.37025E+03 -1.57373E+04  4.84914E+03 -1.21561E+04
  1.00769E+04 -5.42224E+03  7.17012E+03  3.08494E+03 -7.76730E+01  5.03959E+03 -5.78196E+03 -7.06039E+02
 -5.98714E+03 -8.26247E+03 -8.40577E+02 -1.14711E+04  6.55300E+03 -1.21519E+04  1.45483E+04 -5.71546E+03
  1.74854E+04  1.79422E+03  1.25124E+04  1.08105E+04  2.77604E+03  1.38389E+04 -7.55492E+03  1.18796E+04
 -1.00099E+04  4.16776E+03 -4.97955E+03 -2.10855E+03  1.87608E+03 -2.79386E+03  5.58517E+03 -6.21898E+02
  5.54440E+03  5.44997E+03  1.50235E+03  9.88260E+03 -7.06599E+03  9.24021E+03 -1.11865E+04  1.87980E+03
 -8.15553E+03 -5.77755E+03  8.86457E+01 -1.00354E+04  6.21256E+03 -5.65127E+03  6.37276E+03  2.03547E+03
  1.99542E+03  6.44696E+03 -5.94372E+03  7.88501E+03 -8.88858E+03  3.93709E+03 -9.16790E+03 -2.64173E+03
 -4.92365E+03 -1.08469E+04  1.89063E+03 -1.24281E+04  1.06141E+04 -8.15496E+03  1.16612E+04  1.52665E+03
  7.05473E+03  9.33159E+03 -5.44946E+02  1.18022E+04 -8.18401E+03  6.55491E+03 -8.99067E+03 -6.45620E+02
 -8.66521E+03 -8.29924E+03 -1.74004E+03 -8.64870E+03  4.73762E+03 -7.14192E+03  4.74667E+03 -3.68414E+03
  4.56140E+03  8.73506E+02 -5.92844E+02  1.26896E+03 -7.07572E+01 -1.97316E+03  1.34800E+03 -4.65895E+03
  7.05698E+03 -2.65679E+03  1.05511E+04  8.04009E+02  1.01930E+04  6.95662E+03  7.61173E+03  1.36253E+04
 -2.76355E+03  1.51393E+04 -1.32241E+04  1.21148E+04 -1.69765E+04  2.18517E+03 -1.36700E+04 -6.36470E+03
 -6.98826E+03 -1.14242E+04 -1.87182E+02 -9.05477E+03  2.91035E+03 -4.96324E+03  3.45306E+03 -3.68717E+03
  2.12122E+03 -2.08332E+03  3.40311E+03 -3.16052E+03  5.26427E+03 -1.71539E+03  5.70821E+03 -2.55514E+02
  7.46604E+03  1.26794E+03  3.42168E+03  5.95041E+03 -1.28346E+03  6.74051E+03 -8.28824E+03  5.43633E+03
 -9.15017E+03 -1.26892E+03 -5.06599E+03 -6.63338E+03 -7.68439E+02 -9.88882E+03  5.82847E+03 -9.82820E+03
  9.55076E+03 -5.98156E+03  1.22199E+04  1.95447E+03  8.96719E+03  8.40186E+03  1.59576E+03  1.13793E+04
 -4.49145E+03  9.03167E+03 -6.35791E+03  3.01024E+03 -3.52378E+03 -1.10577E+03 -1.86609E+03 -1.58808E+03
 -1.02822E+03  5.44191E+02 -1.61618E+03  2.31314E+03 -4.14499E+03  2.06958E+03 -6.63860E+03 -5.78648E+02
 -3.96603E+03 -6.00808E+03  1.20273E+02 -8.74236E+03  5.91434E+03 -8.15524E+03  8.05537E+03 -2.67165E+03
  8.37970E+03  4.04802E+03  3.53350E+03  7.84399E+03 -1.92782E+03  8.84541E+03 -6.23886E+03  5.34368E+03
 -8.48849E+03  2.96895E+02 -6.59432E+03 -4.86264E+03 -1.02756E+03 -6.53921E+03  4.03898E+03 -5.09857E+03
  5.38575E+03 -1.76616E+03  3.48243E+03  6.29412E+02  1.41677E+03  2.47442E+03  1.27341E+03  1.08975E+03
  2.09205E+03  1.11062E+03  1.81072E+03  1.23230E+03  1.97017E+03  3.38230E+03  2.04275E+03  3.91797E+03
 -2.08113E+03  6.99046E+03 -5.53027E+03  6.97196E+03 -8.20721E+03  2.08777E+03 -8.67047E+03 -2.15236E+03
 -3.97198E+03 -8.33809E+03  9.64332E+02 -9.93965E+03  4.95499E+03 -5.63418E+03  6.90658E+03 -1.40893E+03
  5.19260E+03  3.60442E+03  5.96767E+02  4.71960E+03 -2.23736E+03  3.44052E+03 -3.34974E+03 -2.78786E+02
 -1.22089E+03 -3.45520E+03  1.42067E+03 -3.73997E+03  3.23486E+03 -1.83010E+03  2.75738E+03  5.05712E+02
  1.55889E+03  1.38743E+03  9.34702E+02  9.75497E+02 -1.36870E+02  9.72220E+02  1.46779E+03  1.11167E+01
  5.84833E+02  2.72634E+01  3.53555E+03  9.63111E+02  3.61224E+02  4.02479E+03 -4.60851E+02  5.51357E+03
 -3.60988E+03  3.23611E+03 -4.78292E+03  5.89851E+02 -4.12059E+03 -1.19427E+03 -1.47420E+03 -3.33982E+03
  4.79133E+02 -2.78015E+03  1.66089E+03 -1.99432E+03  9.44373E+02  1.89673E+03 -7.57494E+02  2.76530E+03
 -3.53442E+03  1.99057E+03 -3.09116E+03 -2.10084E+03 -1.91917E+03 -3.93011E+03  1.11712E+03 -4.80296E+03
  2.70897E+03 -2.12651E+03  2.19269E+03 -2.15944E+02  2.63794E+03  1.13005E+03  5.74761E+02  2.21009E+03
 -1.29793E+03  1.22976E+03 -2.02045E+03 -1.90932E+03  1.41541E+03 -2.94167E+03  3.73368E+03 -2.52760E+03
  4.45178E+03  3.99604E+02  4.73381E+03  2.40445E+03  2.10784E+03  4.85873E+03 -1.61807E+03  4.39891E+03
 -4.46018E+03  1.77530E+03 -4.47412E+03 -1.35137E+03 -2.25279E+03 -3.11292E+03  6.05759E+01 -2.45362E+03
  2.69354E+03 -8.66027E+02  2.90500E+03  1.28577E+03  4.99291E+02  2.99254E+03  5.16523E+02  2.65973E+03
 -1.39291E+03  1.90554E+03 -6.83030E+02  5.37512E+02 -4.92502E+02  6.80434E+02 -6.28339E+02  8.08804E+02
 -1.99029E+03  1.88222E+03 -3.36389E+03  1.69027E+03 -3.88116E+03  4.69594E+02 -5.30526E+03 -2.85905E+03
 -2.37663E+03 -5.87785E+03  8.17082E+02 -7.04099E+03  3.43140E+03 -5.13418E+03  5.77194E+03 -1.84237E+03
  5.84346E+03  1.02531E+03  3.57036E+03  3.64970E+03  5.07872E+02  4.19091E+03 -1.83645E+03  3.32867E+03
 -1.86690E+03  1.32612E+03 -1.07832E+03 -1.07985E+03 -8.88875E+02 -4.12890E+02 -5.91576E+02 -4.24655E+02
 -1.99836E+03  7.82569E+01 -6.35963E+02 -5.66637E+01 -4.37806E+01 -1.05357E+03  6.26197E+02 -2.27602E+03
  2.37845E+03 -1.49045E+03  2.28789E+03  3.27085E+02  2.86205E+03  2.55265E+03 -3.46510E+01  4.02913E+03
 -1.93467E+03  4.55051E+03 -4.52853E+03  3.51825E+03 -5.54057E+03 -6.38530E+02 -3.31619E+03 -3.14796E+03
 -1.52225E+03 -3.60477E+03  6.10544E+02 -4.18094E+03  2.31518E+03 -2.00561E+03  2.18754E+03 -2.38204E+02
  1.24108E+03  7.57368E+02  5.88542E+01  1.63147E+03 -9.84527E+01 -4.04118E+02 -3.34282E+01 -9.14634E+02
  1.05329E+03  8.09674E+01  1.83002E+03  5.02689E+02  1.30768E+03  1.79782E+03  2.87225E+02  1.87609E+03
 -1.75712E+03  1.64923E+03 -2.35121E+03  9.97863E+01 -2.45554E+03 -1.86005E+03 -1.73319E+02 -2.81775E+03
  1.98131E+03 -2.46431E+03  2.69875E+03 -7.80419E+02  3.14294E+03 -1.91230E+02  1.09076E+03  2.23202E+03
  3.54127E+02  2.25594E+03 -1.09976E+03  2.08589E+03 -2.13738E+03  6.27893E+02 -1.06316E+03  7.89361E+02
 -3.93297E+02 -6.61707E+01 -9.90866E+02 -1.26248E+02 -1.34168E+03  5.96598E+02 -2.10743E+03 -1.39356E+02
 -1.96434E+03 -4.10479E+02 -6.48459E+02 -2.54732E+03  1.46577E+03 -3.39642E+03  2.13951E+03 -6.84752E+02
  1.92870E+03  6.65333E+02  8.51275E+02  8.52458E+02 -3.34927E+02  2.18853E+03 -1.38926E+03  1.70911E+03
