 $NMID ID='MM_0lb_SNR400_10hz_g45_29.RAW', FMTDAT='(8E13.5)'
 TRAMP=1., VOLUME=1. $END
  3.10460E+05  4.25547E+02  3.37900E+05  2.50261E+05  8.52137E+04  3.38055E+05 -1.32399E+05  2.51214E+05
 -1.91148E+05  8.33434E+04 -1.11603E+05 -3.19521E+04  1.27628E+03 -5.02199E+04  5.32413E+04 -6.97256E+02
  3.53137E+04  5.26345E+04 -1.67562E+04  7.52565E+04 -6.14697E+04  6.38701E+04 -8.42483E+04  3.20652E+04
 -8.17672E+04 -1.14088E+04 -5.80709E+04 -5.26286E+04 -1.55609E+04 -7.10965E+04  2.82443E+04 -4.72196E+04
  4.10309E+04  3.54025E+03  1.64360E+04  4.86386E+04 -3.40122E+04  4.74663E+04 -6.84139E+04 -7.65919E+02
 -5.40689E+04 -5.71624E+04 -6.71883E+03 -7.87645E+04  3.48445E+04 -5.62297E+04  4.92882E+04 -1.85367E+04
  4.44694E+04  1.12883E+04  3.26314E+04  2.62600E+04  1.65722E+04  3.04578E+04 -5.49860E+03  2.75307E+04
 -2.24370E+04  1.20049E+04 -1.81631E+04 -4.51087E+03  5.86503E+03 -7.23951E+03  2.27306E+04  1.28373E+04
  6.69013E+03  3.67377E+04 -3.31228E+04  3.64959E+04 -6.48193E+04  1.95384E+03 -5.82102E+04 -4.37871E+04
 -1.27963E+04 -6.56467E+04  4.06010E+04 -4.66633E+04  6.03625E+04 -2.88601E+03  3.61178E+04  3.28557E+04
 -4.61018E+03  3.81422E+04 -3.18310E+04  1.76900E+04 -3.26205E+04 -4.77242E+03 -1.84585E+04 -1.20025E+04
 -9.36172E+03 -1.45973E+04 -1.23572E+03 -1.95083E+04  7.42124E+03 -2.34261E+04  1.62944E+04 -1.29944E+04
  1.08227E+04  6.67905E+03 -1.01607E+04  1.29023E+04 -2.27860E+04 -6.52918E+03 -8.89711E+03 -3.60595E+04
  2.39569E+04 -4.56092E+04  5.07607E+04 -2.08524E+04  4.73452E+04  2.05363E+04  1.70032E+04  4.60844E+04
 -1.66094E+04  3.50549E+04 -2.71136E+04  2.41670E+03 -1.22661E+04 -2.93812E+04  2.11599E+04 -3.59907E+04
  4.33464E+04 -9.78364E+03  3.95891E+04  2.41862E+04  1.98305E+04  4.95109E+04 -7.78941E+03  5.42181E+04
 -3.47336E+04  3.61028E+04 -4.54782E+04  1.02376E+04 -4.64142E+04 -1.78668E+04 -2.50949E+04 -4.03808E+04
  7.98609E+03 -3.98700E+04  3.33774E+04 -1.70873E+04  3.12675E+04  1.14335E+04  4.42476E+03  2.01658E+04
 -1.40190E+04  9.03403E+03 -1.04230E+04 -6.90453E+03  5.29228E+03 -1.17136E+04  1.79556E+04  5.76574E+03
  1.39277E+04  2.21213E+04 -5.06483E+03  2.60532E+04 -2.33520E+04  1.33783E+04 -3.09472E+04 -3.35222E+03
 -2.37979E+04 -1.81181E+04 -1.05683E+04 -2.36296E+04  4.67232E+03 -2.32489E+04  1.84885E+04 -2.16258E+04
  3.08568E+04 -1.39795E+04  3.65605E+04  3.52639E+03  2.58507E+04  2.27223E+04  3.97479E+03  4.00945E+04
 -1.89615E+04  3.28049E+04 -2.97896E+04  1.17455E+04 -2.21502E+04 -9.86516E+03 -4.61770E+03 -1.28319E+04
  7.73083E+02 -1.06396E+03 -6.46724E+03  7.19992E+03 -1.93606E+04  4.92971E+03 -1.87760E+04 -8.70145E+03
 -1.17236E+04 -2.20293E+04  5.76202E+03 -2.58903E+04  1.83183E+04 -1.86822E+04  2.11820E+04 -2.04021E+03
  1.38420E+04  1.56040E+04 -1.68689E+03  2.21340E+04 -1.52402E+04  1.22401E+04 -2.24731E+04 -4.17380E+03
 -1.59010E+04 -1.93778E+04 -2.23892E+03 -2.64366E+04  1.15814E+04 -2.22769E+04  2.22860E+04 -1.10135E+04
  2.08902E+04 -1.92176E+02  1.46764E+04  5.50424E+03  8.11601E+03  1.12543E+03  1.05575E+04 -1.45600E+03
  2.04099E+04  3.02284E+03  2.46403E+04  1.76193E+04  1.51777E+04  3.55802E+04 -2.65884E+03  4.15411E+04
 -2.49057E+04  3.38621E+04 -3.84996E+04  1.75965E+04 -4.17754E+04 -2.18750E+03 -3.37591E+04 -2.36408E+04
 -1.33803E+04 -3.47550E+04  1.15641E+04 -3.04529E+04  2.62416E+04 -1.45287E+04  2.26837E+04  6.73135E+03
  8.77933E+03  1.73559E+04 -1.06582E+04  1.44499E+04 -1.93116E+04  2.03276E+03 -1.41802E+04 -1.21621E+04
 -4.99739E+02 -1.83107E+04  8.94080E+03 -1.29433E+04  1.26476E+04 -1.75114E+03  3.05394E+03  8.92473E+03
 -7.89247E+03  3.83454E+03 -7.85274E+03 -6.36913E+03 -1.30258E+03 -1.59154E+04  1.10925E+04 -1.90378E+04
  2.10137E+04 -1.00950E+04  2.35069E+04  3.35606E+03  2.14631E+04  1.67651E+04  9.68679E+03  2.64719E+04
 -5.26482E+03  2.89693E+04 -1.84069E+04  1.68471E+04 -2.08150E+04  3.71291E+03 -1.42323E+04 -5.37052E+03
 -6.40692E+03 -6.55390E+03 -8.38048E+02  1.09839E+03 -2.32352E+03  3.40968E+03 -6.58158E+03  5.35407E+03
 -1.25121E+04 -5.64919E+01 -1.29097E+04 -1.10148E+04 -5.25529E+03 -1.77120E+04  6.39305E+03 -1.40707E+04
  1.16060E+04 -6.53429E+03  8.75005E+03  3.33253E+03 -9.52408E+01  4.93766E+03 -7.30088E+03 -7.03391E+02
 -7.36460E+03 -9.16969E+03 -8.11897E+02 -1.41472E+04  8.20921E+03 -1.45279E+04  1.81354E+04 -8.33173E+03
  2.15613E+04  2.03254E+03  1.54369E+04  1.22939E+04  3.35906E+03  1.72525E+04 -8.97808E+03  1.43124E+04
 -1.16217E+04  3.77804E+03 -5.55366E+03 -3.14135E+03  1.15774E+03 -4.02795E+03  7.27152E+03 -9.42826E+02
  7.09504E+03  6.58931E+03  1.29315E+03  1.15499E+04 -8.12736E+03  1.09440E+04 -1.46856E+04  2.68811E+03
 -9.22242E+03 -7.10625E+03  1.43177E+03 -1.33738E+04  7.84813E+03 -6.12296E+03  8.18615E+03  2.34118E+03
  1.95169E+03  8.98461E+03 -6.56692E+03  1.02243E+04 -1.23738E+04  3.77089E+03 -1.18541E+04 -3.97644E+03
 -6.74166E+03 -1.46456E+04  2.97747E+03 -1.52350E+04  1.36583E+04 -9.55856E+03  1.43417E+04  2.53430E+03
  8.71791E+03  1.20735E+04 -2.06294E+03  1.36370E+04 -1.08023E+04  8.81862E+03 -1.12887E+04 -1.18792E+03
 -1.01325E+04 -9.17655E+03 -1.38037E+03 -1.07169E+04  6.20957E+03 -7.83733E+03  6.20794E+03 -3.70938E+03
  4.51261E+03  1.86215E+03 -7.77995E+02  2.11996E+03 -8.54883E+02 -2.55725E+03  2.16182E+03 -6.65929E+03
  1.04302E+04 -3.14673E+03  1.43066E+04  1.46857E+03  1.41343E+04  9.66301E+03  8.82797E+03  1.80857E+04
 -3.42852E+03  2.10630E+04 -1.73480E+04  1.57956E+04 -2.27029E+04  2.82469E+03 -1.88101E+04 -7.80276E+03
 -9.16276E+03 -1.44687E+04 -6.71474E+02 -1.24633E+04  3.63328E+03 -7.21094E+03  4.73122E+03 -4.72067E+03
  2.92941E+03 -2.77457E+03  3.22046E+03 -3.60062E+03  5.44213E+03 -2.37726E+03  6.96424E+03 -3.81881E+02
  9.61660E+03  2.50181E+03  5.35353E+03  8.45317E+03 -1.98828E+03  9.83091E+03 -1.03628E+04  7.08627E+03
 -1.24215E+04 -8.18936E+02 -7.70416E+03 -9.91063E+03 -1.13151E+03 -1.38400E+04  7.57447E+03 -1.37570E+04
  1.47876E+04 -7.70256E+03  1.60253E+04  3.14185E+03  1.20314E+04  1.23977E+04  2.24328E+03  1.66989E+04
 -7.27284E+03  1.33002E+04 -9.85617E+03  4.95785E+03 -5.66266E+03 -2.20884E+03 -2.06939E+03 -1.87891E+03
 -1.73503E+03 -5.56482E+02 -2.76992E+03  3.20378E+03 -5.03254E+03  2.29281E+03 -9.33539E+03 -9.68283E+02
 -6.18292E+03 -9.26250E+03  7.73862E+00 -1.27025E+04  7.70218E+03 -1.22218E+04  1.21935E+04 -4.31197E+03
  1.23402E+04  6.80962E+03  5.78380E+03  1.15637E+04 -2.34597E+03  1.29133E+04 -9.15834E+03  7.42313E+03
 -1.18063E+04  1.20370E+02 -9.24501E+03 -7.21524E+03 -1.65919E+02 -1.08626E+04  5.48484E+03 -7.57604E+03
  7.79364E+03 -2.53378E+03  5.42870E+03  2.90651E+03  1.98219E+03  4.11919E+03  7.46222E+02  2.15460E+03
  2.96817E+03  2.10228E+03  3.60375E+03  1.34046E+03  4.31058E+03  5.02677E+03  3.42750E+03  7.00213E+03
 -3.03247E+03  1.01709E+04 -9.37374E+03  1.01344E+04 -1.33089E+04  3.06968E+03 -1.35563E+04 -5.70907E+03
 -5.95276E+03 -1.35238E+04  1.74554E+03 -1.42220E+04  7.77543E+03 -8.84334E+03  9.95131E+03 -2.18337E+03
  8.24114E+03  5.78932E+03  1.80390E+03  7.68431E+03 -3.35389E+03  5.05350E+03 -4.59418E+03 -9.09559E+02
 -1.97845E+03 -5.58715E+03  2.95737E+03 -5.56523E+03  5.31217E+03 -2.86619E+03  4.88491E+03  1.78392E+03
  3.50958E+03  2.98478E+03  2.14080E+03  1.96677E+03 -2.23213E+02  2.34525E+03  1.26550E+03 -5.78683E+02
  3.06017E+03 -9.43079E+02  4.97747E+03  1.44752E+03  2.68778E+03  6.34818E+03 -8.33647E+02  8.64013E+03
 -5.42062E+03  5.95067E+03 -7.93932E+03  1.19891E+03 -7.38349E+03 -2.22418E+03 -2.92124E+03 -4.36512E+03
  1.19425E+03 -4.53445E+03  2.62371E+03 -1.99507E+03  2.45097E+03  2.43295E+03 -1.23471E+03  3.95230E+03
 -5.86436E+03  1.86118E+03 -6.07482E+03 -2.97157E+03 -3.75877E+03 -6.90376E+03  1.74616E+03 -6.75823E+03
  4.55219E+03 -4.55729E+03  4.97942E+03 -1.18070E+02  4.74260E+03  2.27240E+03  9.93443E+02  3.34866E+03
 -2.06862E+03  5.20185E+02 -3.73834E+03 -2.50394E+03  6.73607E+02 -5.12402E+03  6.56216E+03 -4.52052E+03
  7.73469E+03  6.87722E+02  8.30033E+03  4.89533E+03  2.83979E+03  8.51235E+03 -3.56252E+03  8.45111E+03
 -6.64636E+03  3.20306E+03 -6.91080E+03 -1.12131E+03 -4.01193E+03 -4.24502E+03  1.39537E+03 -5.33294E+03
  4.76784E+03 -3.13235E+03  4.53054E+03  2.19396E+03  1.37500E+03  4.68958E+03 -4.16273E+02  4.60926E+03
 -1.39049E+03  2.95842E+03 -2.08828E+03  9.81505E+02 -9.62294E+02  1.32038E+03 -2.10695E+03  1.82180E+03
 -2.08202E+03  3.36670E+03 -5.71539E+03  3.40359E+03 -8.55500E+03  4.86029E+02 -9.39041E+03 -5.36684E+03
 -4.49701E+03 -1.11107E+04  1.50510E+03 -1.27352E+04  7.81946E+03 -9.19857E+03  1.18542E+04 -4.16485E+03
  1.13202E+04  2.64340E+03  7.14357E+03  7.62933E+03  7.73100E+02  8.98997E+03 -3.71869E+03  6.30779E+03
 -5.21441E+03  2.26579E+03 -3.02692E+03 -1.16477E+03 -1.33132E+03 -8.08657E+02 -1.03614E+03 -1.09493E+03
 -1.66079E+03 -6.24673E+02 -1.69161E+03 -6.21433E+02 -1.27956E+03 -1.71828E+03 -3.27058E+02 -3.97339E+03
  4.07236E+03 -2.80341E+03  4.40598E+03 -1.26281E+02  6.54367E+03  4.60088E+03  8.83316E+02  8.50253E+03
 -3.68477E+03  9.76994E+03 -8.78172E+03  6.23184E+03 -1.01609E+04 -7.88854E+02 -8.05400E+03 -6.15953E+03
 -3.28705E+03 -8.45070E+03  2.25183E+03 -7.44774E+03  5.87468E+03 -4.13141E+03  6.03146E+03 -5.22289E+01
  3.76775E+03  2.47763E+03  3.55946E+02  2.98308E+03 -1.85490E+03 -6.16627E+01  2.17075E+02 -2.14492E+03
  2.69286E+03 -9.51476E+02  3.26822E+03  1.46755E+03  2.05376E+03  2.89766E+03  3.31563E+02  4.75951E+03
 -3.09270E+03  5.17787E+03 -5.85829E+03  4.09741E+02 -4.71036E+03 -3.43766E+03 -2.08726E+02 -7.28928E+03
  4.01079E+03 -6.09491E+03  6.27127E+03 -1.38829E+03  6.60341E+03  1.03057E+03  3.30585E+03  4.16128E+03
  1.68369E+03  5.52831E+03 -2.03965E+03  4.21959E+03 -3.48826E+03  3.11217E+03 -2.99231E+03  7.92029E+02
 -1.57377E+03 -6.52049E+02 -1.50661E+03  1.51505E+03 -2.79935E+03  1.20735E+03 -4.03718E+03 -1.00139E+03
 -4.37512E+03 -2.60261E+03 -6.73926E+02 -6.11390E+03  2.72042E+03 -6.19744E+03  4.41502E+03 -2.22513E+03
  5.55457E+03  3.80839E+02  2.36580E+03  3.73072E+03 -2.95944E+02  6.39485E+03 -3.96482E+03  4.11505E+03
