 $NMID ID='MM_0lb_SNR400_11hz_g55_15.RAW', FMTDAT='(8E13.5)'
 TRAMP=1., VOLUME=1. $END
  3.09827E+05  5.24509E+02  3.36965E+05  2.50293E+05  8.55320E+04  3.38864E+05 -1.33632E+05  2.50776E+05
 -1.90477E+05  8.32649E+04 -1.12139E+05 -3.25881E+04  5.33799E+02 -5.04751E+04  5.38595E+04  1.13515E+02
  3.59488E+04  5.28664E+04 -1.64940E+04  7.64811E+04 -6.13218E+04  6.42458E+04 -8.52832E+04  3.17887E+04
 -8.32280E+04 -1.13568E+04 -5.83748E+04 -5.22344E+04 -1.56123E+04 -7.09137E+04  2.74806E+04 -4.67339E+04
  4.10660E+04  3.80309E+03  1.66594E+04  4.91264E+04 -3.52613E+04  4.73609E+04 -6.84266E+04 -3.88122E+02
 -5.51168E+04 -5.76489E+04 -7.30675E+03 -7.83688E+04  3.49702E+04 -5.62063E+04  4.92155E+04 -1.84452E+04
  4.44453E+04  1.16705E+04  3.27382E+04  2.67031E+04  1.56150E+04  2.99963E+04 -5.42375E+03  2.70908E+04
 -2.18091E+04  1.19564E+04 -1.82726E+04 -5.53237E+03  7.24557E+03 -7.27087E+03  2.35380E+04  1.31419E+04
  7.20625E+03  3.73733E+04 -3.37640E+04  3.67010E+04 -6.41277E+04  2.16932E+03 -5.89187E+04 -4.44807E+04
 -1.24108E+04 -6.51447E+04  4.07632E+04 -4.73886E+04  6.04471E+04 -2.83908E+03  3.52752E+04  3.32585E+04
 -5.57823E+03  3.87589E+04 -3.16896E+04  1.86912E+04 -3.22191E+04 -3.92299E+03 -1.86112E+04 -1.13621E+04
 -9.71124E+03 -1.51064E+04 -3.86999E+02 -1.93901E+04  8.97128E+03 -2.35520E+04  1.59727E+04 -1.22563E+04
  1.02522E+04  5.56712E+03 -9.06058E+03  1.32963E+04 -2.29016E+04 -5.88113E+03 -8.55202E+03 -3.64424E+04
  2.43760E+04 -4.59117E+04  5.06310E+04 -2.09791E+04  4.78754E+04  1.99951E+04  1.64841E+04  4.61928E+04
 -1.63952E+04  3.52360E+04 -2.71907E+04  2.65677E+03 -1.10946E+04 -2.93200E+04  2.14698E+04 -3.63630E+04
  4.33181E+04 -1.09441E+04  3.89205E+04  2.51189E+04  2.09809E+04  4.99392E+04 -7.78997E+03  5.50678E+04
 -3.41657E+04  3.65057E+04 -4.56222E+04  1.08146E+04 -4.57476E+04 -1.79880E+04 -2.53695E+04 -4.08447E+04
  7.91396E+03 -4.07258E+04  3.32658E+04 -1.72292E+04  3.05289E+04  1.13381E+04  5.30297E+03  2.03804E+04
 -1.41867E+04  9.61214E+03 -1.08767E+04 -7.07447E+03  5.71809E+03 -1.11573E+04  1.80236E+04  5.73792E+03
  1.40493E+04  2.23035E+04 -5.33069E+03  2.64518E+04 -2.34449E+04  1.33674E+04 -3.06402E+04 -3.37349E+03
 -2.42040E+04 -1.92089E+04 -1.08812E+04 -2.42226E+04  4.03257E+03 -2.43458E+04  1.88484E+04 -2.04947E+04
  3.00805E+04 -1.39667E+04  3.61568E+04  4.46516E+03  2.62189E+04  2.30523E+04  4.43541E+03  3.94832E+04
 -1.87399E+04  3.29350E+04 -2.95287E+04  1.04478E+04 -2.21230E+04 -1.02137E+04 -5.09978E+03 -1.37833E+04
  1.02385E+03 -1.81617E+03 -6.25260E+03  7.34738E+03 -1.91939E+04  5.66794E+03 -1.88805E+04 -9.23136E+03
 -1.09076E+04 -2.24617E+04  5.82924E+03 -2.63238E+04  1.86477E+04 -1.83719E+04  2.19954E+04 -2.34096E+03
  1.38963E+04  1.39895E+04 -1.30181E+03  2.22069E+04 -1.57366E+04  1.26050E+04 -2.25737E+04 -4.33618E+03
 -1.65397E+04 -1.96515E+04 -2.05177E+03 -2.63564E+04  1.23009E+04 -2.17819E+04  2.22863E+04 -1.07096E+04
  2.05749E+04 -1.90303E+02  1.44339E+04  5.89250E+03  8.21089E+03  8.77756E+02  1.08628E+04 -1.55194E+03
  2.06892E+04  3.39503E+03  2.30174E+04  1.67206E+04  1.58910E+04  3.58878E+04 -3.05399E+03  4.17457E+04
 -2.35911E+04  3.41411E+04 -3.84138E+04  1.79738E+04 -4.13157E+04 -2.61079E+03 -3.42892E+04 -2.42548E+04
 -1.38239E+04 -3.38282E+04  1.15963E+04 -3.05281E+04  2.67113E+04 -1.45280E+04  2.24129E+04  6.90998E+03
  7.51487E+03  1.72980E+04 -1.06523E+04  1.33726E+04 -1.95222E+04  2.42369E+03 -1.37338E+04 -1.15713E+04
  3.00903E+02 -1.78991E+04  9.05176E+03 -1.35340E+04  1.18960E+04 -1.31159E+03  3.33470E+03  7.90223E+03
 -8.42567E+03  3.67543E+03 -8.08477E+03 -6.20999E+03 -1.67017E+03 -1.71474E+04  1.11742E+04 -1.77482E+04
  2.03640E+04 -1.03499E+04  2.38288E+04  3.48452E+03  2.03124E+04  1.66855E+04  9.52069E+03  2.64336E+04
 -5.17123E+03  2.72068E+04 -1.81670E+04  1.71509E+04 -2.10033E+04  4.10288E+03 -1.37272E+04 -5.31263E+03
 -5.57656E+03 -6.35331E+03 -4.47944E+02  1.22214E+03 -3.02273E+03  3.50232E+03 -6.41043E+03  5.49129E+03
 -1.30275E+04 -1.59043E+03 -1.32888E+04 -1.04697E+04 -5.86121E+03 -1.87449E+04  4.80698E+03 -1.45935E+04
  1.22138E+04 -6.59555E+03  8.71356E+03  3.90273E+03  6.25248E+01  5.38428E+03 -6.94705E+03 -5.16407E+02
 -6.63397E+03 -9.50881E+03 -1.10425E+03 -1.44253E+04  8.24681E+03 -1.48920E+04  1.87363E+04 -8.29809E+03
  2.08967E+04  2.35990E+03  1.58370E+04  1.27471E+04  3.54516E+03  1.65404E+04 -8.30246E+03  1.41091E+04
 -1.22780E+04  4.45809E+03 -6.36150E+03 -3.89640E+03  1.82403E+03 -4.32275E+03  8.05859E+03 -7.94472E+02
  6.51697E+03  6.57351E+03  1.05826E+03  1.11401E+04 -8.21801E+03  1.10946E+04 -1.44993E+04  2.23390E+03
 -9.99412E+03 -7.03030E+03  4.84896E+02 -1.21621E+04  7.22247E+03 -5.28230E+03  8.34493E+03  2.23820E+03
  2.48603E+03  9.00154E+03 -7.72321E+03  1.05993E+04 -1.25217E+04  4.26722E+03 -1.19415E+04 -3.76578E+03
 -6.61765E+03 -1.40817E+04  3.08046E+03 -1.55862E+04  1.28338E+04 -8.80569E+03  1.40179E+04  2.39174E+03
  8.60967E+03  1.16281E+04 -1.32777E+03  1.42866E+04 -9.83970E+03  8.04778E+03 -1.11614E+04 -1.28678E+03
 -9.87542E+03 -9.42449E+03 -2.26464E+03 -9.84145E+03  5.13162E+03 -7.91333E+03  6.40716E+03 -3.37559E+03
  3.66341E+03  1.43047E+03 -9.67402E+02  1.96658E+03 -7.94475E+02 -2.87998E+03  1.74396E+03 -6.48482E+03
  9.66683E+03 -3.88955E+03  1.37221E+04  1.70830E+03  1.29632E+04  8.97634E+03  9.09102E+03  1.77733E+04
 -4.36177E+03  2.05238E+04 -1.65122E+04  1.52140E+04 -2.25482E+04  2.28671E+03 -1.75678E+04 -7.90811E+03
 -8.80740E+03 -1.48025E+04 -2.80630E+02 -1.20986E+04  4.62783E+03 -6.24562E+03  4.33351E+03 -4.89127E+03
  2.73584E+03 -3.54241E+03  3.39814E+03 -3.27867E+03  5.61035E+03 -3.94424E+03  6.90968E+03 -9.80093E+02
  9.22410E+03  2.62675E+03  4.72488E+03  8.17859E+03 -2.12150E+03  9.02604E+03 -9.97260E+03  7.56737E+03
 -1.25127E+04 -1.07588E+03 -7.47380E+03 -9.24192E+03 -9.91482E+02 -1.33121E+04  7.80502E+03 -1.34677E+04
  1.35715E+04 -7.78554E+03  1.68114E+04  1.88529E+03  1.17145E+04  1.12138E+04  1.22783E+03  1.45933E+04
 -6.66922E+03  1.24532E+04 -8.48426E+03  3.71415E+03 -6.33502E+03 -1.46175E+03 -2.26699E+03 -2.16217E+03
 -9.41932E+02  1.19730E+02 -1.57076E+03  2.71943E+03 -5.85305E+03  2.43503E+03 -8.71152E+03 -1.45985E+03
 -6.23842E+03 -8.19925E+03  4.73788E+02 -1.20315E+04  7.75418E+03 -1.11671E+04  1.22726E+04 -3.35837E+03
  1.13759E+04  5.81575E+03  5.60400E+03  1.03565E+04 -2.14493E+03  1.31956E+04 -7.58978E+03  7.73593E+03
 -1.03678E+04  1.31218E+03 -8.24955E+03 -6.44133E+03 -5.22366E+02 -9.61964E+03  5.28762E+03 -7.14683E+03
  8.80331E+03 -3.05614E+03  4.87985E+03  1.46858E+03  1.58080E+03  3.37613E+03  1.68242E+03  1.61381E+03
  2.31241E+03  4.87720E+02  2.70070E+03  1.88494E+03  3.96337E+03  3.65622E+03  2.61195E+03  6.62025E+03
 -3.08539E+03  9.68363E+03 -8.72467E+03  9.09988E+03 -1.20153E+04  2.80818E+03 -1.23624E+04 -5.49577E+03
 -5.78007E+03 -1.18068E+04  1.39706E+03 -1.38721E+04  6.87559E+03 -8.76954E+03  9.66777E+03 -1.83569E+03
  7.30412E+03  4.27611E+03  1.88466E+03  7.30117E+03 -3.04716E+03  4.48311E+03 -4.95817E+03 -1.87564E+02
 -2.63499E+03 -5.30839E+03  2.63142E+03 -5.57561E+03  5.17471E+03 -2.55487E+03  4.68832E+03  1.48905E+03
  2.54151E+03  2.30722E+03  1.47048E+03  1.91720E+03 -6.70534E+02  1.49575E+03  1.73816E+03 -9.24818E+02
  2.05750E+03 -1.07273E+03  4.83414E+03  1.84316E+03  2.85054E+03  6.50865E+03 -1.17450E+03  8.35303E+03
 -5.79185E+03  5.51100E+03 -7.57693E+03  1.38018E+03 -6.75797E+03 -2.75673E+03 -1.52000E+03 -4.53004E+03
  3.81425E+02 -4.76789E+03  3.32442E+03 -1.80692E+03  1.83641E+03  1.52067E+03 -1.39599E+03  4.19971E+03
 -4.87821E+03  2.89020E+03 -5.05574E+03 -2.59983E+03 -3.57071E+03 -6.27663E+03  1.12752E+03 -6.36038E+03
  3.79409E+03 -4.13258E+03  4.94200E+03 -6.28051E+02  3.46274E+03  1.71098E+03  3.07528E+02  3.09436E+03
 -2.66238E+03  1.51140E+03 -2.73525E+03 -2.15803E+03  1.44310E+03 -5.30137E+03  6.07877E+03 -3.40094E+03
  7.26954E+03  2.96692E+02  8.15850E+03  4.58396E+03  2.31895E+03  8.28134E+03 -2.88861E+03  6.86832E+03
 -5.79847E+03  2.56473E+03 -6.98159E+03 -7.91774E+02 -3.15729E+03 -5.27210E+03  7.89698E+02 -4.69634E+03
  4.27025E+03 -1.86641E+03  4.66315E+03  2.72112E+03  1.29024E+03  4.48086E+03 -5.98590E+02  4.00866E+03
 -1.74368E+03  3.55383E+03 -1.96370E+03  8.89499E+02 -4.48594E+02  8.05514E+02 -9.47145E+02  1.70504E+03
 -1.76191E+03  2.68414E+03 -5.89200E+03  2.43715E+03 -7.15769E+03  2.11130E+02 -8.39314E+03 -5.49354E+03
 -4.58785E+03 -9.29372E+03  2.58713E+03 -1.17507E+04  6.63637E+03 -9.37925E+03  1.15561E+04 -3.38347E+03
  9.66396E+03  1.59311E+03  6.58692E+03  6.52630E+03  1.64772E+02  7.36737E+03 -3.17478E+03  5.65393E+03
 -3.74782E+03  1.49503E+03 -2.32354E+03 -6.77445E+02 -8.78815E+02 -6.70181E+02 -2.03426E+02  2.47019E+02
 -1.77752E+03  4.77176E+01 -2.10338E+03 -6.32305E+02 -2.61381E+02 -1.25718E+03 -4.52518E+01 -2.70396E+03
  3.53511E+03 -1.81121E+03  3.99057E+03 -3.15367E+01  5.64350E+03  4.87869E+03  9.68971E+02  7.50324E+03
 -3.78251E+03  8.61312E+03 -7.65773E+03  4.55879E+03 -8.55562E+03 -3.04343E+02 -7.16698E+03 -5.74534E+03
 -3.03043E+03 -7.95205E+03  1.76514E+03 -7.16659E+03  5.28866E+03 -3.54522E+03  4.40413E+03  4.60762E+02
  2.60349E+03  2.03879E+03 -7.87160E+02  2.07349E+03 -1.62207E+03 -5.47650E+02  7.05172E+02 -2.32907E+03
  2.20481E+03 -6.77309E+02  3.11852E+03  1.34149E+03  1.28948E+03  2.77326E+03  1.53600E+02  3.53850E+03
 -3.33698E+03  3.39027E+03 -5.40959E+03  3.35228E+02 -3.97086E+03 -2.99265E+03 -9.52424E+02 -5.20447E+03
  3.07689E+03 -4.93480E+03  5.45597E+03 -1.04449E+03  4.98808E+03  1.02227E+03  3.00253E+03  4.55206E+03
  5.59210E+02  4.08477E+03 -1.84778E+03  3.81843E+03 -2.86866E+03  2.06400E+03 -2.10209E+03  9.03136E+02
 -3.56180E+02  2.96109E+02 -2.00024E+03  4.99310E+02 -2.61941E+03  9.90750E+02 -3.74637E+03 -1.29205E+03
 -4.45989E+03 -2.69937E+03 -5.52637E+02 -4.50553E+03  2.12357E+03 -5.08514E+03  4.01939E+03 -2.81798E+03
  4.86384E+03  3.02424E+02  2.67242E+03  3.94581E+03 -7.27139E+02  5.05669E+03 -3.25466E+03  3.04852E+03
