 $NMID ID='MM_0lb_SNR400_9hz_g45_91.RAW', FMTDAT='(8E13.5)'
 TRAMP=1., VOLUME=1. $END
  3.10225E+05  3.67482E+02  3.37796E+05  2.50922E+05  8.49676E+04  3.38796E+05 -1.32338E+05  2.51414E+05
 -1.90613E+05  8.33992E+04 -1.12108E+05 -3.23878E+04  3.05624E+02 -5.15408E+04  5.36195E+04 -1.23681E+02
  3.64747E+04  5.30614E+04 -1.75219E+04  7.54362E+04 -6.10674E+04  6.43297E+04 -8.48324E+04  3.23737E+04
 -8.23881E+04 -1.11449E+04 -5.81194E+04 -5.24273E+04 -1.50228E+04 -7.15837E+04  2.78927E+04 -4.63176E+04
  4.02500E+04  2.55552E+03  1.65340E+04  4.87548E+04 -3.46804E+04  4.77956E+04 -6.82658E+04 -2.48489E+02
 -5.53904E+04 -5.72405E+04 -7.05336E+03 -7.94141E+04  3.46181E+04 -5.66821E+04  4.93672E+04 -1.81774E+04
  4.51646E+04  1.12455E+04  3.27413E+04  2.70013E+04  1.54050E+04  3.07102E+04 -6.18163E+03  2.73283E+04
 -2.30293E+04  1.14383E+04 -1.82756E+04 -5.80640E+03  7.16350E+03 -7.56776E+03  2.29960E+04  1.33918E+04
  6.91144E+03  3.73876E+04 -3.29998E+04  3.79814E+04 -6.49382E+04  1.16765E+03 -5.89137E+04 -4.39865E+04
 -1.23107E+04 -6.54935E+04  4.13306E+04 -4.72795E+04  6.02467E+04 -2.31533E+03  3.63882E+04  3.42044E+04
 -4.68746E+03  3.96455E+04 -3.20910E+04  1.81412E+04 -3.29693E+04 -4.08817E+03 -1.90085E+04 -1.18640E+04
 -9.74627E+03 -1.52381E+04 -3.87074E+02 -1.96990E+04  8.55927E+03 -2.37698E+04  1.57046E+04 -1.31294E+04
  1.04040E+04  5.72776E+03 -1.08750E+04  1.30740E+04 -2.36978E+04 -6.50606E+03 -8.30451E+03 -3.69004E+04
  2.54300E+04 -4.62002E+04  5.10967E+04 -2.11078E+04  4.89979E+04  2.07372E+04  1.78727E+04  4.74484E+04
 -1.64940E+04  3.54376E+04 -2.72136E+04  2.95499E+03 -1.11186E+04 -2.97689E+04  2.19313E+04 -3.68406E+04
  4.44056E+04 -1.06729E+04  3.94275E+04  2.47246E+04  2.08672E+04  5.07916E+04 -7.85215E+03  5.56730E+04
 -3.55169E+04  3.79658E+04 -4.68775E+04  1.08598E+04 -4.71662E+04 -1.87761E+04 -2.56152E+04 -4.13554E+04
  8.19462E+03 -4.21049E+04  3.32981E+04 -1.64021E+04  3.17160E+04  1.14240E+04  4.88731E+03  2.03496E+04
 -1.31967E+04  9.26106E+03 -1.14608E+04 -7.00024E+03  5.54311E+03 -1.07823E+04  1.86657E+04  5.42579E+03
  1.47240E+04  2.26905E+04 -5.35989E+03  2.69044E+04 -2.30351E+04  1.47546E+04 -3.14455E+04 -3.47414E+03
 -2.54221E+04 -1.85588E+04 -1.04858E+04 -2.46822E+04  3.32100E+03 -2.52692E+04  1.93246E+04 -2.26453E+04
  3.18167E+04 -1.44941E+04  3.74987E+04  4.39336E+03  2.74264E+04  2.45021E+04  4.31842E+03  4.06402E+04
 -1.97302E+04  3.34457E+04 -3.07122E+04  1.11565E+04 -2.26934E+04 -9.91883E+03 -4.26715E+03 -1.31228E+04
  1.48300E+03 -1.43708E+03 -7.66394E+03  8.64694E+03 -1.95585E+04  5.21273E+03 -1.92770E+04 -9.13070E+03
 -1.19554E+04 -2.26856E+04  6.23179E+03 -2.76361E+04  1.87081E+04 -1.97155E+04  2.21584E+04 -1.33241E+03
  1.38913E+04  1.65154E+04 -1.20118E+03  2.33528E+04 -1.60701E+04  1.32002E+04 -2.37977E+04 -5.20949E+03
 -1.66983E+04 -1.97996E+04 -2.12511E+03 -2.76751E+04  1.15670E+04 -2.35206E+04  2.29678E+04 -1.17918E+04
  2.08996E+04 -6.60595E+02  1.53570E+04  5.20947E+03  8.66226E+03  1.52717E+03  1.18195E+04 -1.93151E+03
  2.18012E+04  2.64411E+03  2.53437E+04  1.83851E+04  1.71209E+04  3.74930E+04 -2.60539E+03  4.27770E+04
 -2.47428E+04  3.68627E+04 -4.03220E+04  1.82913E+04 -4.29197E+04 -3.70814E+03 -3.59121E+04 -2.51696E+04
 -1.44514E+04 -3.64013E+04  1.23537E+04 -3.12718E+04  2.69539E+04 -1.50964E+04  2.32219E+04  8.13032E+03
  7.12387E+03  1.84453E+04 -1.16472E+04  1.53423E+04 -1.99057E+04  2.72989E+03 -1.53635E+04 -1.31096E+04
 -8.76552E+02 -1.92432E+04  9.03805E+03 -1.40346E+04  1.33462E+04 -1.61779E+03  3.13848E+03  8.87221E+03
 -8.70065E+03  4.12604E+03 -9.22120E+03 -5.72583E+03 -2.20195E+03 -1.79094E+04  1.23071E+04 -2.02856E+04
  2.19795E+04 -1.05049E+04  2.55969E+04  2.96475E+03  2.26057E+04  1.80749E+04  1.00731E+04  2.85524E+04
 -5.60901E+03  3.03572E+04 -2.07105E+04  1.89639E+04 -2.22527E+04  3.30117E+03 -1.52132E+04 -5.57373E+03
 -6.74478E+03 -7.25411E+03 -8.19650E+02  9.23420E+02 -2.99460E+03  2.38319E+03 -7.22817E+03  5.61245E+03
 -1.36357E+04 -1.80535E+03 -1.47627E+04 -1.06455E+04 -5.40832E+03 -1.85675E+04  5.87734E+03 -1.49284E+04
  1.18998E+04 -6.29834E+03  8.65558E+03  4.12555E+03 -4.93608E+02  6.02588E+03 -7.16486E+03 -2.36271E+01
 -7.68828E+03 -1.05852E+04 -1.43494E+03 -1.50727E+04  8.95641E+03 -1.56893E+04  1.98230E+04 -8.74998E+03
  2.26754E+04  1.69086E+03  1.70308E+04  1.33908E+04  3.44763E+03  1.85200E+04 -9.24000E+03  1.53859E+04
 -1.27532E+04  4.39213E+03 -6.28902E+03 -2.86582E+03  1.84893E+03 -4.81841E+03  8.27976E+03 -6.82339E+02
  6.63619E+03  6.76886E+03  1.10689E+03  1.17727E+04 -8.45898E+03  1.18176E+04 -1.53764E+04  2.95519E+03
 -1.03673E+04 -8.50717E+03  4.50593E+02 -1.35252E+04  8.44646E+03 -6.63139E+03  9.40499E+03  3.78623E+03
  1.65263E+03  9.15135E+03 -8.09605E+03  1.11218E+04 -1.33456E+04  5.16725E+03 -1.28951E+04 -4.44200E+03
 -7.06516E+03 -1.56161E+04  4.33288E+03 -1.73151E+04  1.51445E+04 -1.07339E+04  1.62622E+04  3.29501E+03
  9.11473E+03  1.25284E+04 -1.54630E+03  1.56217E+04 -1.15310E+04  8.33223E+03 -1.22100E+04 -1.33039E+03
 -1.16305E+04 -1.05174E+04 -1.73404E+03 -1.28254E+04  6.54171E+03 -9.04508E+03  7.32890E+03 -3.48485E+03
  4.74477E+03  2.49643E+03 -1.52882E+03  1.72503E+03 -1.75370E+02 -2.71271E+03  2.93578E+03 -6.33825E+03
  1.03999E+04 -4.50416E+03  1.48025E+04  1.93407E+03  1.51141E+04  1.09009E+04  1.07700E+04  2.08383E+04
 -4.92172E+03  2.34229E+04 -1.94744E+04  1.64057E+04 -2.50532E+04  3.84816E+03 -1.93611E+04 -8.81430E+03
 -1.06995E+04 -1.67677E+04  9.05938E+01 -1.37675E+04  5.50815E+03 -8.35365E+03  5.38278E+03 -5.41446E+03
  3.84303E+03 -2.53479E+03  3.30422E+03 -3.40265E+03  6.06843E+03 -3.25416E+03  7.93599E+03 -1.22801E+03
  1.08366E+04  3.15161E+03  5.28116E+03  8.95190E+03 -2.08976E+03  1.13843E+04 -1.08290E+04  8.18539E+03
 -1.32414E+04 -9.52283E+02 -1.00901E+04 -9.38018E+03 -1.64582E+03 -1.54251E+04  8.42256E+03 -1.54588E+04
  1.56587E+04 -8.72781E+03  1.92159E+04  2.42486E+03  1.36979E+04  1.34914E+04  1.95825E+03  1.74093E+04
 -6.91849E+03  1.47931E+04 -1.01219E+04  4.69150E+03 -7.65830E+03 -1.08434E+03 -3.43032E+03 -2.46520E+03
 -1.58603E+03 -1.46077E+01 -3.05065E+03  3.07693E+03 -6.00875E+03  2.78805E+03 -9.40824E+03 -1.91275E+03
 -7.27344E+03 -9.85603E+03 -5.99277E+02 -1.49629E+04  7.90836E+03 -1.33781E+04  1.43975E+04 -4.80926E+03
  1.37311E+04  7.59089E+03  6.52274E+03  1.37347E+04 -2.81025E+03  1.49357E+04 -1.00392E+04  8.97803E+03
 -1.27068E+04  1.14000E+03 -9.87530E+03 -8.32912E+03 -2.10287E+03 -1.22423E+04  7.05806E+03 -8.46494E+03
  9.52173E+03 -3.37244E+03  6.34103E+03  2.75368E+03  1.92067E+03  4.71454E+03  6.87055E+02  1.71497E+03
  2.22791E+03  1.10367E+03  3.77249E+03  1.49165E+03  4.39291E+03  4.78669E+03  3.52111E+03  7.59614E+03
 -2.46912E+03  1.12453E+04 -1.04621E+04  1.11904E+04 -1.50028E+04  3.18478E+03 -1.55843E+04 -6.04095E+03
 -6.79125E+03 -1.42287E+04  1.84189E+03 -1.62616E+04  8.57416E+03 -1.00152E+04  1.14559E+04 -2.51611E+03
  8.95502E+03  5.56315E+03  1.70559E+03  8.21941E+03 -3.87706E+03  5.75449E+03 -4.84356E+03 -1.13407E+03
 -2.46717E+03 -5.99529E+03  3.45958E+03 -6.72351E+03  5.93956E+03 -2.31366E+03  5.48606E+03  8.47894E+02
  3.57694E+03  2.83032E+03  1.89504E+03  1.96710E+03 -9.10003E+02  2.11547E+03  1.60448E+03 -7.37447E+02
  2.62218E+03 -1.00984E+03  5.99865E+03  1.70536E+03  3.89542E+03  7.89653E+03 -1.11641E+03  9.53664E+03
 -6.93708E+03  6.71997E+03 -9.70906E+03  1.39940E+03 -8.24010E+03 -3.38102E+03 -3.46982E+03 -5.33404E+03
  1.15279E+03 -5.49626E+03  3.69934E+03 -2.75505E+03  3.19245E+03  3.91645E+03 -1.61743E+03  5.01617E+03
 -6.02107E+03  3.17355E+03 -6.64203E+03 -3.51283E+03 -4.20383E+03 -8.14808E+03  2.17395E+03 -9.05581E+03
  4.81519E+03 -5.06175E+03  6.15543E+03 -4.56597E+02  4.86225E+03  2.60431E+03  5.76274E+02  3.86789E+03
 -3.07643E+03  1.23733E+03 -3.26413E+03 -3.80075E+03  1.74639E+03 -6.67305E+03  7.29997E+03 -4.96021E+03
  9.34698E+03  1.17985E+03  8.77122E+03  5.65500E+03  3.01614E+03  9.95856E+03 -3.47697E+03  8.95657E+03
 -8.32586E+03  4.21494E+03 -8.08416E+03 -1.34577E+03 -4.47767E+03 -6.63636E+03  1.87948E+03 -6.26834E+03
  6.08317E+03 -2.65979E+03  5.07061E+03  2.52126E+03  2.01170E+03  5.10048E+03 -3.56609E+02  5.31857E+03
 -3.17165E+03  2.48919E+03 -2.15379E+03  1.06778E+03 -1.51107E+03  1.31350E+03 -1.73086E+03  2.09879E+03
 -2.30802E+03  3.19943E+03 -6.83947E+03  3.83574E+03 -9.48534E+03 -4.95634E+02 -1.09840E+04 -6.51592E+03
 -6.51340E+03 -1.22097E+04  1.71324E+03 -1.51072E+04  9.06977E+03 -1.09264E+04  1.34903E+04 -4.77929E+03
  1.29139E+04  3.12129E+03  8.01713E+03  8.47893E+03  7.22499E+02  9.93968E+03 -4.39523E+03  7.44983E+03
 -5.32837E+03  1.97674E+03 -3.33344E+03 -2.23000E+03 -1.52533E+03 -8.54502E+02 -6.58557E+02  7.72140E+02
 -1.95156E+03 -2.86908E+02 -2.68134E+03 -6.53973E+02 -5.88967E+02 -2.24466E+03  2.68664E+02 -3.53926E+03
  5.30340E+03 -3.71068E+03  6.12081E+03  3.89884E+02  7.00079E+03  5.48856E+03  1.62765E+03  1.02218E+04
 -5.40146E+03  1.13050E+04 -1.12881E+04  7.34825E+03 -1.23974E+04 -6.33333E+02 -1.00459E+04 -7.72503E+03
 -4.01895E+03 -1.07442E+04  2.83538E+03 -8.77683E+03  6.48886E+03 -5.07310E+03  6.67861E+03  4.80187E+02
  3.42182E+03  3.02009E+03 -2.04140E+02  3.41758E+03 -2.17956E+03  5.59863E+02 -9.48430E+01 -2.29822E+03
  4.11026E+03 -1.46008E+03  4.18874E+03  1.35522E+03  2.26024E+03  4.09670E+03 -3.74863E+02  5.10628E+03
 -5.15597E+03  4.68546E+03 -6.74439E+03  1.08173E+03 -6.32974E+03 -4.56719E+03 -1.08194E+03 -9.39160E+03
  4.74412E+03 -6.81392E+03  8.11800E+03 -1.97682E+03  8.17094E+03  1.78349E+03  4.83964E+03  6.31208E+03
  1.86618E+02  6.16314E+03 -2.96393E+03  5.36689E+03 -3.74217E+03  2.81602E+03 -3.77070E+03  2.02898E+02
 -1.78757E+03 -3.07559E+01 -1.81460E+03  9.95411E+02 -3.55500E+03  6.38034E+02 -4.67182E+03 -1.31196E+03
 -5.09879E+03 -3.43154E+03 -1.52628E+03 -7.05975E+03  3.79551E+03 -7.31372E+03  5.62141E+03 -3.38814E+03
  6.50672E+03  1.52781E+03  3.45831E+03  5.17888E+03 -3.48518E+01  6.83764E+03 -5.49328E+03  4.45955E+03
