 $NMID ID='MM_0lb_SNR400_13hz_g50_71.RAW', FMTDAT='(8E13.5)'
 TRAMP=1., VOLUME=1. $END
  3.10144E+05  1.34324E+02  3.37704E+05  2.51288E+05  8.43375E+04  3.38034E+05 -1.33289E+05  2.51287E+05
 -1.90581E+05  8.32379E+04 -1.11613E+05 -3.24330E+04  6.41273E+02 -5.00507E+04  5.35889E+04  6.98095E+02
  3.55832E+04  5.27971E+04 -1.69303E+04  7.54952E+04 -6.01367E+04  6.30117E+04 -8.50535E+04  3.21320E+04
 -8.11772E+04 -1.15477E+04 -5.70775E+04 -5.07489E+04 -1.45234E+04 -6.99871E+04  2.74447E+04 -4.58360E+04
  4.02891E+04  3.78778E+03  1.67555E+04  4.74465E+04 -3.45100E+04  4.77047E+04 -6.73589E+04 -9.20558E+01
 -5.35539E+04 -5.69344E+04 -6.78325E+03 -7.78743E+04  3.41205E+04 -5.56190E+04  4.89739E+04 -1.70588E+04
  4.37323E+04  1.09584E+04  3.22626E+04  2.60460E+04  1.70175E+04  2.93310E+04 -5.75095E+03  2.79827E+04
 -2.21785E+04  1.22926E+04 -1.82508E+04 -5.60474E+03  6.17440E+03 -7.72076E+03  2.29461E+04  1.22275E+04
  7.85827E+03  3.62683E+04 -3.28900E+04  3.62262E+04 -6.40377E+04  2.17535E+03 -5.66549E+04 -4.29152E+04
 -1.20985E+04 -6.33020E+04  4.01867E+04 -4.66844E+04  5.86697E+04 -2.66037E+03  3.50778E+04  3.31091E+04
 -5.36813E+03  3.68977E+04 -3.06128E+04  1.64629E+04 -3.09955E+04 -4.00806E+03 -1.74372E+04 -1.13130E+04
 -7.77707E+03 -1.41271E+04 -7.30974E+02 -1.81969E+04  7.62707E+03 -2.30541E+04  1.54512E+04 -1.26492E+04
  1.11989E+04  5.53674E+03 -8.55822E+03  1.32248E+04 -2.20398E+04 -4.92344E+03 -8.34188E+03 -3.45549E+04
  2.32690E+04 -4.39489E+04  4.86141E+04 -2.02589E+04  4.54451E+04  1.93533E+04  1.55007E+04  4.45171E+04
 -1.59671E+04  3.37150E+04 -2.62529E+04  1.52343E+03 -1.04292E+04 -2.81744E+04  2.13106E+04 -3.46517E+04
  4.21234E+04 -9.40640E+03  3.61016E+04  2.30464E+04  1.99342E+04  4.71567E+04 -8.22610E+03  5.16309E+04
 -3.28560E+04  3.51763E+04 -4.39142E+04  9.23570E+03 -4.38101E+04 -1.69501E+04 -2.37807E+04 -3.90781E+04
  7.42898E+03 -3.87595E+04  3.23762E+04 -1.53376E+04  2.88653E+04  1.14225E+04  3.73594E+03  1.99473E+04
 -1.35667E+04  8.60845E+03 -1.10566E+04 -7.63731E+03  5.65547E+03 -1.10405E+04  1.83401E+04  5.94188E+03
  1.41517E+04  2.25308E+04 -5.95989E+03  2.57608E+04 -2.23148E+04  1.23853E+04 -2.91134E+04 -4.88531E+03
 -2.12217E+04 -1.74400E+04 -9.50604E+03 -2.11715E+04  4.01430E+03 -2.11910E+04  1.66011E+04 -1.96646E+04
  2.65633E+04 -1.30268E+04  3.38315E+04  3.71073E+03  2.47707E+04  2.11898E+04  4.62997E+03  3.72821E+04
 -1.81062E+04  3.13511E+04 -2.79336E+04  1.08246E+04 -2.13591E+04 -1.03836E+04 -3.93399E+03 -1.32402E+04
  1.50634E+03 -2.99915E+03 -5.21174E+03  6.57211E+03 -1.72885E+04  4.80333E+03 -1.69774E+04 -7.32601E+03
 -1.05488E+04 -1.96452E+04  5.12543E+03 -2.40183E+04  1.57723E+04 -1.74360E+04  1.96272E+04 -1.93415E+03
  1.14074E+04  1.38708E+04 -1.19849E+03  1.98545E+04 -1.42535E+04  1.15587E+04 -1.98614E+04 -4.52827E+03
 -1.49371E+04 -1.83851E+04 -1.66678E+03 -2.39524E+04  1.10100E+04 -1.97336E+04  2.03675E+04 -1.02478E+04
  1.84408E+04  3.27793E+02  1.37552E+04  4.98152E+03  7.35250E+03  1.18632E+03  9.98554E+03 -1.43318E+03
  1.83942E+04  2.48947E+03  2.12601E+04  1.60244E+04  1.31144E+04  3.16958E+04 -3.23104E+03  3.60695E+04
 -2.11138E+04  2.98164E+04 -3.38157E+04  1.48925E+04 -3.62393E+04 -2.68647E+03 -2.95945E+04 -2.15147E+04
 -1.31333E+04 -2.95986E+04  1.04391E+04 -2.68560E+04  2.33387E+04 -1.28805E+04  2.03326E+04  6.07702E+03
  7.19015E+03  1.48452E+04 -9.97882E+03  1.33317E+04 -1.74360E+04  2.61949E+03 -1.32875E+04 -1.06939E+04
 -2.38684E+02 -1.63198E+04  8.79388E+03 -1.24858E+04  1.05255E+04 -1.97381E+03  2.53182E+03  6.99913E+03
 -7.53265E+03  3.34014E+03 -6.68747E+03 -6.09865E+03 -8.91908E+02 -1.38164E+04  9.71716E+03 -1.45864E+04
  1.83544E+04 -8.77078E+03  1.94153E+04  3.29439E+03  1.64135E+04  1.41542E+04  8.03074E+03  2.20862E+04
 -3.64370E+03  2.39159E+04 -1.51463E+04  1.46523E+04 -1.69936E+04  3.45495E+03 -1.23423E+04 -4.30114E+03
 -6.25772E+03 -5.80729E+03 -3.12819E+02  1.22382E+03 -2.85231E+03  2.29315E+03 -5.15060E+03  5.01003E+03
 -1.11688E+04 -5.89389E+02 -1.15179E+04 -9.94956E+03 -4.54338E+03 -1.57473E+04  4.67003E+03 -1.25969E+04
  9.83136E+03 -5.17810E+03  7.45114E+03  2.91231E+03  2.80757E+01  4.27684E+03 -5.47555E+03  1.04689E+02
 -6.07475E+03 -7.73755E+03 -1.37742E+03 -1.15411E+04  6.37064E+03 -1.22850E+04  1.51640E+04 -6.42322E+03
  1.76064E+04  1.77473E+03  1.29203E+04  1.08725E+04  2.54648E+03  1.39065E+04 -7.72045E+03  1.19200E+04
 -9.84226E+03  4.05892E+03 -4.72191E+03 -2.38190E+03  1.71027E+03 -3.51493E+03  6.68269E+03 -1.81454E+03
  5.92235E+03  4.99365E+03  1.27933E+03  9.80535E+03 -6.80333E+03  9.52456E+03 -1.17753E+04  1.82120E+03
 -7.69489E+03 -5.94952E+03  5.31816E+02 -1.01243E+04  6.49537E+03 -4.87175E+03  6.13786E+03  2.18934E+03
  1.70625E+03  6.81114E+03 -6.35551E+03  8.20705E+03 -9.66648E+03  3.77691E+03 -9.22919E+03 -3.03820E+03
 -5.72694E+03 -1.11092E+04  3.24764E+03 -1.26933E+04  1.04949E+04 -7.60793E+03  1.19661E+04  1.26241E+03
  7.75159E+03  1.00234E+04 -5.31488E+02  1.07258E+04 -8.73546E+03  6.36109E+03 -9.10521E+03 -9.77441E+02
 -8.69848E+03 -7.57118E+03 -2.13476E+03 -8.96009E+03  4.36523E+03 -6.63217E+03  5.17476E+03 -3.76376E+03
  3.78743E+03  1.32333E+03 -8.99883E+02  1.94174E+03  3.46939E+02 -2.31394E+03  1.22290E+03 -4.51979E+03
  7.80807E+03 -2.74356E+03  1.15658E+04  1.45232E+03  1.07070E+04  7.36098E+03  7.80924E+03  1.35856E+04
 -2.73098E+03  1.60741E+04 -1.34437E+04  1.21538E+04 -1.77929E+04  1.83650E+03 -1.40458E+04 -6.26646E+03
 -7.37951E+03 -1.16886E+04 -4.22029E+02 -9.71306E+03  3.52510E+03 -4.81806E+03  3.47291E+03 -3.87135E+03
  2.61333E+03 -2.23815E+03  2.91744E+03 -2.91258E+03  4.89675E+03 -2.81908E+03  5.51468E+03  3.55818E+01
  7.58343E+03  1.86181E+03  3.31515E+03  6.28777E+03 -2.34656E+03  6.89065E+03 -7.49620E+03  5.45173E+03
 -9.25829E+03 -7.23191E+02 -5.93087E+03 -6.18722E+03  1.87931E+02 -1.01988E+04  5.84671E+03 -1.02228E+04
  1.00073E+04 -5.83214E+03  1.25464E+04  1.23804E+03  9.25364E+03  8.32226E+03  1.51684E+03  1.10410E+04
 -4.98170E+03  9.51822E+03 -6.37886E+03  3.84169E+03 -4.44754E+03 -1.32305E+03 -1.60010E+03 -1.49451E+03
 -9.20749E+02  2.37545E+00 -1.29697E+03  2.87501E+03 -4.54725E+03  1.92309E+03 -7.14629E+03 -6.50696E+02
 -4.34517E+03 -6.94167E+03  7.37413E+02 -9.10808E+03  5.56757E+03 -8.61000E+03  8.25620E+03 -2.84244E+03
  8.06247E+03  4.69915E+03  4.07913E+03  8.18005E+03 -1.16977E+03  9.28205E+03 -6.59654E+03  6.01647E+03
 -8.48399E+03  9.64718E+02 -6.03381E+03 -5.53418E+03 -6.45416E+01 -7.25823E+03  3.66861E+03 -5.73052E+03
  5.38490E+03 -1.37119E+03  3.95199E+03  1.43503E+03  1.31704E+03  3.15396E+03  1.83448E+03  7.51766E+02
  2.61905E+03  8.64522E+02  1.38745E+03  2.01554E+03  2.68805E+03  3.34394E+03  2.67839E+03  4.94211E+03
 -2.35371E+03  6.70835E+03 -6.64992E+03  7.27891E+03 -8.28650E+03  1.98338E+03 -9.40093E+03 -3.05316E+03
 -4.55201E+03 -9.19972E+03  1.37139E+03 -1.02374E+04  5.70711E+03 -5.37842E+03  7.36473E+03 -1.75399E+03
  5.22865E+03  3.88987E+03  1.31091E+03  5.58684E+03 -2.39166E+03  2.48990E+03 -2.24130E+03 -1.88812E+01
 -1.22512E+03 -4.31068E+03  2.50946E+03 -3.97703E+03  3.02977E+03 -2.02361E+03  2.91998E+03  6.24492E+02
  1.28707E+03  1.92030E+03  4.54135E+02  1.21120E+03 -6.67492E+02  6.80658E+02  1.11015E+03 -5.51352E+02
  6.96072E+02 -4.73883E+02  3.08758E+03  1.88280E+03  1.98798E+03  4.36627E+03 -9.92985E+02  6.16790E+03
 -3.31969E+03  3.95718E+03 -5.36543E+03  8.56716E+02 -4.72276E+03 -1.92313E+03 -1.21149E+03 -3.14693E+03
  3.89189E+02 -3.04438E+03  2.15694E+03 -1.23350E+03  1.38268E+03  1.73220E+03 -4.78145E+02  2.74348E+03
 -4.15011E+03  1.70742E+03 -3.30076E+03 -2.22555E+03 -2.47159E+03 -4.54886E+03  2.79922E+02 -4.82822E+03
  2.40972E+03 -2.65015E+03  3.26854E+03 -4.56267E+02  2.55557E+03  9.92690E+02  7.72549E+02  2.68656E+03
 -1.68260E+03  1.03805E+03 -2.29239E+03 -1.62638E+03  8.28995E+02 -3.49118E+03  4.28954E+03 -2.99296E+03
  5.06024E+03  4.01533E+01  5.52449E+03  2.84567E+03  1.98324E+03  5.32108E+03 -2.19711E+03  5.38546E+03
 -4.64754E+03  1.20450E+03 -4.12684E+03 -8.82673E+02 -2.78009E+03 -3.60750E+03  7.44065E+02 -2.70958E+03
  3.78861E+03 -1.67128E+03  2.92012E+03  1.31753E+03  7.22236E+02  2.57053E+03 -3.16535E+02  2.09217E+03
 -1.57061E+03  1.28014E+03 -4.30801E+02  6.77293E+02  2.71120E+02  7.16265E+02 -1.30073E+03  1.14142E+03
 -1.45391E+03  2.40902E+03 -3.43164E+03  9.88176E+02 -4.72602E+03 -7.12013E+01 -6.01335E+03 -2.59870E+03
 -3.07427E+03 -6.47311E+03  1.54014E+03 -7.94838E+03  4.20495E+03 -5.83764E+03  7.46700E+03 -2.09848E+03
  6.98389E+03  1.11886E+03  4.15740E+03  4.38156E+03 -2.18233E+02  4.74763E+03 -1.42304E+03  3.80023E+03
 -1.81916E+03  1.98573E+03 -9.05412E+02 -1.16595E+03 -7.42118E+02 -5.09477E+02 -5.56668E+02 -3.22680E+01
 -1.11227E+03 -2.06318E+02 -1.44272E+03  2.11294E+02 -3.61056E+02 -1.24118E+03 -7.01389E+02 -2.07293E+03
  2.99906E+03 -1.83435E+03  2.56536E+03 -6.15656E+02  3.57182E+03  3.16528E+03  3.28788E+02  5.08304E+03
 -1.55435E+03  5.38714E+03 -5.38733E+03  3.45941E+03 -5.51829E+03 -1.97702E+02 -4.09939E+03 -4.06186E+03
 -1.46018E+03 -4.36196E+03  9.50114E+02 -4.75195E+03  3.16299E+03 -2.60728E+03  3.65709E+03 -5.07046E+02
  1.92582E+03  1.53800E+03 -1.88326E+02  1.38713E+03 -1.46029E+03  3.39461E+02 -4.72976E+02 -6.06130E+02
  1.83859E+03  7.26456E+01  1.99755E+03  1.12699E+03  9.64490E+02  1.64060E+03  2.06800E+02  2.93663E+03
 -1.92928E+03  2.57714E+03 -2.67878E+03  9.62004E+02 -2.35304E+03 -2.49120E+03 -2.94392E+02 -3.99443E+03
  1.95895E+03 -2.53055E+03  3.43531E+03 -1.15682E+03  3.53081E+03  2.45220E+02  9.77938E+02  2.77370E+03
  1.34940E+03  2.72739E+03 -2.07294E+03  2.84000E+03 -2.41785E+03  1.14067E+03 -1.75558E+03  9.39318E+02
 -3.22789E+02 -7.86643E+01 -3.80528E+02  6.33174E+02 -2.15614E+03  5.58610E+02 -2.31544E+03  3.10691E+02
 -2.64160E+03 -1.01699E+03 -4.64055E+02 -3.02887E+03  1.81903E+03 -3.09489E+03  3.43934E+03 -1.63974E+03
  3.15987E+03  2.78496E+02  1.00345E+03  1.15513E+03 -6.82787E+02  2.64410E+03 -2.30441E+03  2.54192E+03
