 $NMID ID='MM_0lb_SNR400_11hz_g40_62.RAW', FMTDAT='(8E13.5)'
 TRAMP=1., VOLUME=1. $END
  3.09602E+05  3.50954E+02  3.37571E+05  2.50098E+05  8.45923E+04  3.38322E+05 -1.32091E+05  2.51331E+05
 -1.90719E+05  8.27257E+04 -1.11580E+05 -3.22322E+04  4.94348E+02 -5.08311E+04  5.37437E+04 -4.05947E+02
  3.59558E+04  5.18527E+04 -1.67537E+04  7.60244E+04 -6.12616E+04  6.47713E+04 -8.44960E+04  3.19631E+04
 -8.09567E+04 -1.18118E+04 -5.76187E+04 -5.15791E+04 -1.49879E+04 -7.06503E+04  2.78531E+04 -4.58612E+04
  4.08355E+04  4.27987E+03  1.61970E+04  4.72509E+04 -3.46200E+04  4.78641E+04 -6.72208E+04  6.76785E+02
 -5.38641E+04 -5.71590E+04 -7.27299E+03 -7.78194E+04  3.43924E+04 -5.53440E+04  4.86735E+04 -1.79032E+04
  4.40980E+04  1.12595E+04  3.23072E+04  2.55836E+04  1.62442E+04  3.00347E+04 -5.75145E+03  2.74772E+04
 -2.26401E+04  1.17944E+04 -1.87719E+04 -5.15166E+03  6.61261E+03 -8.01121E+03  2.23580E+04  1.37512E+04
  7.22985E+03  3.65797E+04 -3.27756E+04  3.61973E+04 -6.42941E+04  1.80948E+03 -5.74508E+04 -4.34947E+04
 -1.23910E+04 -6.46878E+04  4.07612E+04 -4.63746E+04  5.95729E+04 -1.80091E+03  3.57760E+04  3.26494E+04
 -5.40061E+03  3.72597E+04 -3.09562E+04  1.70203E+04 -3.19595E+04 -4.10040E+03 -1.75102E+04 -1.12798E+04
 -9.04779E+03 -1.40081E+04 -5.58104E+02 -1.84573E+04  7.26925E+03 -2.31504E+04  1.58146E+04 -1.31688E+04
  1.09342E+04  5.40000E+03 -8.90042E+03  1.30991E+04 -2.14023E+04 -5.56075E+03 -8.66346E+03 -3.48341E+04
  2.37299E+04 -4.49463E+04  4.98738E+04 -1.96688E+04  4.69332E+04  2.02722E+04  1.66553E+04  4.53774E+04
 -1.59259E+04  3.42214E+04 -2.65811E+04  1.92322E+03 -1.01294E+04 -2.84626E+04  2.12772E+04 -3.46490E+04
  4.26861E+04 -9.55385E+03  3.76255E+04  2.34258E+04  1.94160E+04  4.87334E+04 -7.76554E+03  5.24968E+04
 -3.38549E+04  3.53627E+04 -4.44323E+04  1.05185E+04 -4.50255E+04 -1.76111E+04 -2.41807E+04 -4.00863E+04
  7.36856E+03 -3.95748E+04  3.33776E+04 -1.58133E+04  3.01176E+04  1.14705E+04  4.31669E+03  1.98640E+04
 -1.37460E+04  9.76356E+03 -1.09201E+04 -7.19660E+03  5.29110E+03 -1.09319E+04  1.84599E+04  5.95824E+03
  1.36407E+04  2.26122E+04 -6.01004E+03  2.58309E+04 -2.34959E+04  1.24726E+04 -2.93402E+04 -3.92373E+03
 -2.24963E+04 -1.73375E+04 -9.75331E+03 -2.16006E+04  3.99040E+03 -2.23481E+04  1.73981E+04 -2.07199E+04
  2.87525E+04 -1.31713E+04  3.42689E+04  3.76552E+03  2.53513E+04  2.12051E+04  4.49451E+03  3.86107E+04
 -1.83583E+04  3.15533E+04 -2.92636E+04  1.08945E+04 -2.08712E+04 -1.07232E+04 -5.03476E+03 -1.34097E+04
  1.19794E+03 -2.26632E+03 -6.04458E+03  6.37044E+03 -1.73946E+04  4.59108E+03 -1.79863E+04 -8.03981E+03
 -1.10553E+04 -2.05275E+04  5.07709E+03 -2.48522E+04  1.67804E+04 -1.81908E+04  1.99262E+04 -1.93068E+03
  1.20767E+04  1.42278E+04 -1.36323E+03  2.07869E+04 -1.44255E+04  1.20954E+04 -2.09035E+04 -5.11266E+03
 -1.52239E+04 -1.86145E+04 -2.18597E+03 -2.51326E+04  1.18429E+04 -2.07876E+04  2.03374E+04 -1.02730E+04
  1.98210E+04  5.46520E+02  1.47032E+04  5.02455E+03  6.92492E+03  1.08437E+03  1.06112E+04 -1.55185E+03
  1.93540E+04  2.52660E+03  2.17583E+04  1.60841E+04  1.44479E+04  3.36024E+04 -2.14459E+03  3.82372E+04
 -2.25913E+04  3.18895E+04 -3.54957E+04  1.64615E+04 -3.77133E+04 -2.49488E+03 -3.06343E+04 -2.20720E+04
 -1.22331E+04 -3.21073E+04  1.09760E+04 -2.80459E+04  2.35398E+04 -1.43191E+04  2.16414E+04  6.10382E+03
  7.52617E+03  1.69338E+04 -9.83091E+03  1.43026E+04 -1.73497E+04  2.40982E+03 -1.32156E+04 -1.09666E+04
 -2.08677E+02 -1.67485E+04  8.77704E+03 -1.28497E+04  1.14187E+04 -8.91848E+02  2.44856E+03  7.09175E+03
 -7.37525E+03  3.02971E+03 -7.52393E+03 -6.13467E+03 -8.35753E+02 -1.51443E+04  1.00607E+04 -1.68567E+04
  1.99571E+04 -8.97805E+03  2.20185E+04  3.39405E+03  1.92150E+04  1.62776E+04  8.32636E+03  2.37735E+04
 -3.71600E+03  2.61982E+04 -1.67354E+04  1.63351E+04 -1.90085E+04  4.15276E+03 -1.29599E+04 -4.83417E+03
 -6.02024E+03 -5.75434E+03 -3.63163E+02  1.54095E+03 -2.90801E+03  2.98919E+03 -5.63325E+03  5.40779E+03
 -1.24952E+04 -8.93141E+02 -1.22666E+04 -1.04356E+04 -5.53660E+03 -1.65863E+04  5.08295E+03 -1.34706E+04
  1.07459E+04 -5.38744E+03  7.91552E+03  3.57410E+03 -2.57127E+02  5.41031E+03 -6.92227E+03 -6.53165E+02
 -6.63384E+03 -8.10439E+03 -9.44965E+02 -1.25469E+04  6.89457E+03 -1.38250E+04  1.70655E+04 -7.11982E+03
  1.91371E+04  2.02761E+03  1.44260E+04  1.13759E+04  1.95019E+03  1.54361E+04 -7.48221E+03  1.27948E+04
 -1.05141E+04  3.76409E+03 -5.55288E+03 -3.43239E+03  1.70090E+03 -3.33185E+03  6.90611E+03 -1.95187E+03
  5.88256E+03  4.83077E+03  1.13430E+03  1.05165E+04 -7.66799E+03  1.06242E+04 -1.26730E+04  2.74143E+03
 -8.50273E+03 -6.82830E+03  3.01413E+02 -1.09956E+04  7.95316E+03 -5.99639E+03  7.79407E+03  2.23136E+03
  1.18096E+03  8.38354E+03 -7.09313E+03  9.45147E+03 -1.07625E+04  3.79254E+03 -1.14517E+04 -3.25941E+03
 -6.12754E+03 -1.34090E+04  2.53441E+03 -1.43342E+04  1.16878E+04 -8.57197E+03  1.38636E+04  2.29587E+03
  7.89773E+03  1.04469E+04 -3.57115E+02  1.34086E+04 -9.25424E+03  7.47076E+03 -1.02471E+04 -1.93720E+03
 -8.80797E+03 -8.36860E+03 -1.88869E+03 -9.38615E+03  4.58024E+03 -8.00003E+03  6.36137E+03 -3.36113E+03
  4.50415E+03  1.22736E+03 -7.65248E+02  1.66485E+03  1.69622E+02 -2.33444E+03  1.22341E+03 -5.89087E+03
  9.38949E+03 -3.48390E+03  1.20746E+04  5.37052E+02  1.19149E+04  8.40921E+03  8.30216E+03  1.63396E+04
 -3.53676E+03  1.82702E+04 -1.51734E+04  1.41296E+04 -2.01985E+04  2.32984E+03 -1.59901E+04 -6.15688E+03
 -7.81884E+03 -1.35924E+04 -1.83033E+02 -1.12170E+04  3.50383E+03 -5.78887E+03  3.45432E+03 -4.40266E+03
  2.83358E+03 -2.96406E+03  3.45059E+03 -3.09154E+03  4.99532E+03 -3.08331E+03  7.00537E+03 -1.15885E+03
  8.29648E+03  1.88183E+03  4.16469E+03  7.31961E+03 -1.80085E+03  8.15966E+03 -8.89737E+03  6.39462E+03
 -1.14047E+04 -1.41874E+03 -6.89164E+03 -7.53666E+03 -4.49158E+02 -1.21646E+04  7.11780E+03 -1.27188E+04
  1.14455E+04 -7.48253E+03  1.47702E+04  2.01175E+03  9.84391E+03  1.04791E+04  2.59720E+03  1.33942E+04
 -5.71267E+03  1.08526E+04 -7.86040E+03  3.52313E+03 -5.36095E+03 -1.50011E+03 -1.64785E+03 -1.18862E+03
 -1.12227E+03 -4.50785E+01 -1.95033E+03  2.34462E+03 -4.49620E+03  2.29689E+03 -7.30942E+03 -9.34232E+02
 -5.13294E+03 -8.71344E+03  2.72852E+02 -1.15444E+04  6.89527E+03 -1.05518E+04  1.01902E+04 -2.81350E+03
  1.11806E+04  5.72680E+03  4.88221E+03  1.01411E+04 -2.01624E+03  9.94419E+03 -8.36955E+03  7.23391E+03
 -1.08414E+04  5.88617E+02 -7.78380E+03 -6.26946E+03 -9.56769E+02 -9.42100E+03  4.55936E+03 -7.23186E+03
  7.64706E+03 -3.11825E+03  5.40280E+03  1.50577E+03  1.68289E+03  3.47099E+03  4.66199E+02  8.52562E+02
  2.35850E+03  9.97615E+02  3.26088E+03  1.87071E+03  3.30281E+03  4.03587E+03  3.15724E+03  5.46473E+03
 -2.89401E+03  8.30692E+03 -7.89777E+03  9.46264E+03 -1.04296E+04  1.94959E+03 -1.10665E+04 -3.41359E+03
 -5.26151E+03 -1.08398E+04  1.51728E+03 -1.21161E+04  6.39348E+03 -7.43600E+03  8.96308E+03 -1.99237E+03
  7.38032E+03  4.21685E+03  1.69996E+03  6.59206E+03 -2.77283E+03  3.60378E+03 -5.04437E+03 -6.76395E+02
 -1.64246E+03 -4.85962E+03  2.87523E+03 -5.39181E+03  4.65018E+03 -2.64200E+03  4.88933E+03  6.65891E+02
  2.79559E+03  1.88895E+03  1.04914E+03  1.47739E+03 -7.43029E+02  1.54960E+03  1.55835E+03 -2.94407E+02
  1.92644E+03 -1.16061E+03  4.67471E+03  2.70854E+03  2.65146E+03  5.93296E+03  1.70238E+02  8.29585E+03
 -4.88416E+03  5.31161E+03 -6.82686E+03  1.53331E+03 -6.51172E+03 -1.91447E+03 -2.52999E+03 -4.25651E+03
  9.18033E+02 -4.45339E+03  2.99947E+03 -1.87164E+03  2.48158E+03  2.58579E+03 -1.13099E+03  3.86680E+03
 -4.27158E+03  2.19230E+03 -4.73608E+03 -2.41997E+03 -2.40780E+03 -5.93853E+03  1.04002E+03 -5.84472E+03
  2.93101E+03 -3.55543E+03  4.46488E+03 -2.97774E+02  3.47687E+03  1.21425E+03  3.58310E+02  2.85979E+03
 -1.75932E+03  1.18526E+03 -2.58146E+03 -1.77765E+03  1.24734E+03 -4.18810E+03  5.35313E+03 -3.62967E+03
  6.70769E+03  2.59409E+02  6.21292E+03  3.93127E+03  2.80105E+03  7.09935E+03 -2.18542E+03  6.55459E+03
 -5.25824E+03  2.83756E+03 -5.67381E+03 -1.00444E+03 -3.56725E+03 -4.20627E+03  9.79817E+02 -4.60058E+03
  3.61186E+03 -2.30177E+03  4.03249E+03  1.93616E+03  1.75701E+03  4.08683E+03  1.55661E+02  3.38779E+03
 -1.56870E+03  2.61307E+03 -2.27272E+03  3.78121E+02 -6.87858E+02  5.65791E+02 -1.04080E+03  1.74822E+03
 -1.11508E+03  2.57938E+03 -5.10863E+03  2.23793E+03 -6.69497E+03 -1.82541E+02 -7.75778E+03 -3.62268E+03
 -4.06510E+03 -8.71231E+03  1.50375E+03 -9.71007E+03  6.28568E+03 -7.99518E+03  1.02957E+04 -2.86855E+03
  9.84959E+03  2.18754E+03  5.31651E+03  5.99910E+03 -1.20010E+01  6.59133E+03 -2.61364E+03  5.50096E+03
 -3.53635E+03  2.08061E+03 -2.40542E+03 -1.02683E+03 -9.12577E+02  8.56048E+01 -2.88308E+02  3.38995E+02
 -1.99001E+03  2.93106E+02 -1.21431E+03 -3.24835E+02 -2.85948E+02 -1.63642E+03  3.75368E+02 -3.01433E+03
  3.43002E+03 -2.16540E+03  4.33271E+03  4.17132E+02  5.33697E+03  3.98796E+03  9.35370E+02  6.85264E+03
 -3.96282E+03  8.15396E+03 -6.73399E+03  4.58289E+03 -8.20669E+03 -6.58300E+02 -6.92466E+03 -5.33309E+03
 -3.10776E+03 -6.79897E+03  1.35315E+03 -6.49987E+03  4.72586E+03 -3.64019E+03  4.61396E+03 -6.80345E+02
  2.83758E+03  2.45129E+03 -2.30343E+01  2.10260E+03 -8.71144E+02  9.82936E+02  4.50062E+01 -1.68296E+03
  1.83329E+03 -1.00199E+03  2.99232E+03  1.08570E+03  1.61528E+03  2.69909E+03 -1.71889E+02  3.56411E+03
 -2.85494E+03  3.41676E+03 -4.83747E+03  3.06873E+02 -4.92024E+03 -2.51585E+03 -7.25000E+02 -4.82450E+03
  2.90167E+03 -4.88025E+03  4.85092E+03 -1.28354E+03  5.39183E+03  1.80164E+02  2.74794E+03  4.08266E+03
  5.18974E+02  4.05421E+03 -1.68306E+03  3.13043E+03 -2.79341E+03  2.12875E+03 -1.38453E+03  7.32790E+01
 -5.30526E+02  9.53957E+01 -1.68802E+03  3.22471E+02 -2.36971E+03  4.50486E+02 -3.54206E+03 -9.40630E+02
 -3.59634E+03 -2.03258E+03 -1.36956E+03 -4.72227E+03  1.91498E+03 -4.22484E+03  4.11168E+03 -1.50607E+03
  3.66859E+03  7.52651E+02  2.33864E+03  2.49953E+03 -4.00272E+01  4.20013E+03 -3.13120E+03  3.14571E+03
