 $NMID ID='MM_0lb_SNR400_7hz_g45_67.RAW', FMTDAT='(8E13.5)'
 TRAMP=1., VOLUME=1. $END
  3.10408E+05  8.00707E+02  3.38461E+05  2.50703E+05  8.46190E+04  3.38632E+05 -1.32972E+05  2.51503E+05
 -1.92079E+05  8.40890E+04 -1.12389E+05 -3.24180E+04 -2.56686E+02 -5.00427E+04  5.40491E+04 -1.47282E+03
  3.50296E+04  5.31984E+04 -1.66309E+04  7.59847E+04 -6.15315E+04  6.52705E+04 -8.59444E+04  3.19739E+04
 -8.23408E+04 -1.14345E+04 -5.85500E+04 -5.13425E+04 -1.52515E+04 -7.08278E+04  2.89859E+04 -4.84788E+04
  4.04331E+04  3.73205E+03  1.72802E+04  4.92824E+04 -3.46542E+04  4.83352E+04 -6.95730E+04  7.18134E+02
 -5.47907E+04 -5.80542E+04 -7.48036E+03 -8.03082E+04  3.49836E+04 -5.73906E+04  5.06854E+04 -1.86968E+04
  4.59061E+04  1.15852E+04  3.34884E+04  2.70117E+04  1.56341E+04  3.07361E+04 -5.21945E+03  2.84182E+04
 -2.28187E+04  1.06506E+04 -1.83676E+04 -6.22277E+03  7.82191E+03 -8.04807E+03  2.29584E+04  1.38910E+04
  7.07332E+03  3.76181E+04 -3.42032E+04  3.78395E+04 -6.59233E+04  1.61315E+03 -5.89520E+04 -4.61807E+04
 -1.31050E+04 -6.66186E+04  4.25901E+04 -4.72182E+04  6.16395E+04 -1.90721E+03  3.73557E+04  3.49403E+04
 -6.24518E+03  4.10547E+04 -3.26482E+04  2.05539E+04 -3.36103E+04 -2.68782E+03 -1.97391E+04 -1.23747E+04
 -1.00421E+04 -1.51689E+04 -1.25541E+02 -2.04444E+04  8.37780E+03 -2.36492E+04  1.58693E+04 -1.22224E+04
  1.01969E+04  7.55719E+03 -1.07748E+04  1.23103E+04 -2.39448E+04 -6.88755E+03 -8.55105E+03 -3.87829E+04
  2.55548E+04 -4.83153E+04  5.30384E+04 -2.15361E+04  5.03146E+04  2.14853E+04  1.85670E+04  4.80809E+04
 -1.71917E+04  3.59677E+04 -2.79680E+04  3.29058E+03 -1.14366E+04 -3.04086E+04  2.14206E+04 -3.79866E+04
  4.61172E+04 -1.20607E+04  4.19830E+04  2.54085E+04  2.17143E+04  5.31312E+04 -8.39865E+03  5.79505E+04
 -3.68278E+04  4.00457E+04 -5.00532E+04  1.09851E+04 -4.94670E+04 -1.93797E+04 -2.58695E+04 -4.41104E+04
  6.95112E+03 -4.34195E+04  3.50601E+04 -1.70810E+04  3.32396E+04  1.20090E+04  5.42928E+03  2.17417E+04
 -1.35891E+04  9.89199E+03 -1.14547E+04 -7.39272E+03  5.76573E+03 -1.01353E+04  1.83916E+04  5.20009E+03
  1.46681E+04  2.32558E+04 -5.38080E+03  2.84369E+04 -2.32652E+04  1.48097E+04 -3.24386E+04 -3.43085E+03
 -2.69672E+04 -1.77544E+04 -1.33140E+04 -2.74410E+04  4.17216E+03 -2.79283E+04  2.12651E+04 -2.44955E+04
  3.35405E+04 -1.48547E+04  4.03113E+04  6.02265E+03  2.82322E+04  2.55039E+04  5.13231E+03  4.21617E+04
 -2.01115E+04  3.42605E+04 -3.17500E+04  1.27777E+04 -2.27575E+04 -1.03674E+04 -4.88468E+03 -1.23031E+04
  6.03849E+02 -8.38330E+02 -8.48166E+03  9.27945E+03 -2.07220E+04  4.51355E+03 -2.18576E+04 -1.04458E+04
 -1.28220E+04 -2.49612E+04  6.64444E+03 -2.92132E+04  1.92425E+04 -2.07976E+04  2.47500E+04 -2.72152E+03
  1.60335E+04  1.70188E+04 -1.78340E+03  2.45863E+04 -1.76271E+04  1.40798E+04 -2.48225E+04 -5.29625E+03
 -1.76838E+04 -2.20347E+04 -2.48921E+03 -2.92969E+04  1.28251E+04 -2.54219E+04  2.43853E+04 -1.26527E+04
  2.33597E+04 -2.47608E+02  1.64751E+04  4.99136E+03  8.74994E+03  2.59987E+03  1.25897E+04 -2.92861E+03
  2.42520E+04  3.27896E+03  2.81264E+04  1.95695E+04  1.90543E+04  4.06354E+04 -3.60526E+03  4.87411E+04
 -2.71438E+04  3.95892E+04 -4.60317E+04  2.09647E+04 -4.87902E+04 -3.56685E+03 -3.83853E+04 -2.90347E+04
 -1.53873E+04 -4.06910E+04  1.54650E+04 -3.54713E+04  3.04321E+04 -1.61201E+04  2.63539E+04  8.65941E+03
  8.62936E+03  2.01059E+04 -1.30724E+04  1.67995E+04 -2.12146E+04  2.48780E+03 -1.67683E+04 -1.46713E+04
 -1.00957E+03 -2.13057E+04  1.12571E+04 -1.51919E+04  1.47441E+04 -1.30685E+03  4.41972E+03  1.00722E+04
 -9.00978E+03  4.30005E+03 -1.16009E+04 -6.49669E+03 -2.22150E+03 -2.06373E+04  1.22890E+04 -2.19661E+04
  2.55736E+04 -1.26084E+04  2.89760E+04  3.15562E+03  2.61842E+04  2.07258E+04  1.11138E+04  3.26412E+04
 -7.02080E+03  3.44655E+04 -2.33397E+04  2.23236E+04 -2.54082E+04  4.13243E+03 -1.70136E+04 -6.96904E+03
 -7.71676E+03 -8.54867E+03 -1.53970E+02  7.38990E+02 -4.01240E+03  4.43025E+03 -8.38611E+03  5.51673E+03
 -1.65153E+04 -1.32264E+03 -1.53527E+04 -1.37136E+04 -6.15077E+03 -2.17471E+04  6.03920E+03 -1.74124E+04
  1.39541E+04 -7.66749E+03  9.59854E+03  5.36411E+03 -8.99884E+02  7.32539E+03 -7.90525E+03 -4.19323E+02
 -8.18542E+03 -1.17003E+04 -1.56788E+03 -1.70381E+04  9.99934E+03 -1.75638E+04  2.24452E+04 -1.04350E+04
  2.60222E+04  2.47796E+03  1.87175E+04  1.64569E+04  3.65275E+03  2.16135E+04 -1.09348E+04  1.64759E+04
 -1.35817E+04  4.52620E+03 -7.39301E+03 -3.77847E+03  2.49798E+03 -4.44501E+03  9.39177E+03 -1.86995E+03
  8.57602E+03  8.02372E+03  1.35613E+03  1.44946E+04 -1.06770E+04  1.38181E+04 -1.77575E+04  3.02708E+03
 -1.26910E+04 -9.13502E+03  2.91728E+02 -1.51852E+04  1.02052E+04 -7.83230E+03  1.00890E+04  4.22851E+03
  3.21445E+03  1.18321E+04 -8.95166E+03  1.30932E+04 -1.53080E+04  6.44991E+03 -1.59744E+04 -6.08052E+03
 -9.35977E+03 -1.79752E+04  5.04471E+03 -2.16946E+04  1.78756E+04 -1.17940E+04  2.04563E+04  3.60793E+03
  1.07837E+04  1.54162E+04 -1.98919E+03  1.89087E+04 -1.33736E+04  9.51246E+03 -1.40905E+04 -2.48401E+03
 -1.21249E+04 -1.19648E+04 -1.60538E+03 -1.43680E+04  8.26284E+03 -1.11610E+04  9.11983E+03 -4.15935E+03
  5.85984E+03  3.30422E+03 -1.53098E+03  2.91588E+03 -1.35242E+03 -4.86926E+03  3.72126E+03 -9.89609E+03
  1.37683E+04 -5.32180E+03  1.90417E+04  2.13284E+03  1.90514E+04  1.33437E+04  1.09416E+04  2.42839E+04
 -6.93580E+03  2.78166E+04 -2.24376E+04  2.03091E+04 -3.04222E+04  4.11099E+03 -2.46493E+04 -1.14315E+04
 -1.21788E+04 -2.04277E+04  1.25602E+02 -1.77052E+04  6.02421E+03 -1.00851E+04  6.61463E+03 -5.90696E+03
  4.59236E+03 -3.13038E+03  3.69393E+03 -4.59118E+03  5.97097E+03 -5.11885E+03  9.01244E+03 -2.47635E+03
  1.29055E+04  2.38432E+03  7.07633E+03  1.20021E+04 -2.82176E+03  1.38554E+04 -1.31998E+04  9.99518E+03
 -1.80668E+04 -1.19658E+03 -1.11638E+04 -1.18861E+04 -1.91151E+03 -1.92084E+04  9.80619E+03 -1.91626E+04
  2.04672E+04 -1.03250E+04  2.26192E+04  3.41976E+03  1.65604E+04  1.68473E+04  1.92076E+03  2.18777E+04
 -9.07201E+03  1.72063E+04 -1.29279E+04  5.99439E+03 -8.17570E+03 -1.59939E+03 -4.55317E+03 -2.70062E+03
 -1.97350E+03 -3.18011E+01 -3.91253E+03  2.36771E+03 -7.01590E+03  4.14838E+03 -1.19622E+04 -1.91804E+03
 -8.27972E+03 -1.15690E+04 -6.57820E+02 -1.90585E+04  1.15726E+04 -1.67406E+04  1.73900E+04 -5.35327E+03
  1.84852E+04  7.93653E+03  7.97016E+03  1.70850E+04 -4.55795E+03  1.84408E+04 -1.27174E+04  1.12603E+04
 -1.72678E+04  1.05350E+03 -1.21012E+04 -1.15673E+04 -1.04340E+03 -1.59086E+04  7.85468E+03 -1.09295E+04
  1.17894E+04 -3.66275E+03  7.49710E+03  2.15294E+03  3.02642E+03  5.29214E+03  1.61228E+03  2.17556E+03
  2.72558E+03  3.09685E+02  4.18518E+03  2.84563E+03  6.14388E+03  6.03501E+03  4.20884E+03  9.94497E+03
 -2.85949E+03  1.45335E+04 -1.34462E+04  1.46222E+04 -2.00102E+04  4.47722E+03 -1.94853E+04 -8.29620E+03
 -1.01769E+04 -1.88053E+04  2.53373E+03 -1.96776E+04  1.24000E+04 -1.33967E+04  1.54472E+04 -3.87008E+03
  1.23893E+04  6.45404E+03  3.36506E+03  1.22790E+04 -5.77606E+03  6.43368E+03 -8.32899E+03 -6.94470E+02
 -3.50118E+03 -8.67838E+03  5.73247E+03 -8.00486E+03  8.26266E+03 -4.14389E+03  8.78964E+03  1.33239E+03
  4.47163E+03  4.09458E+03  2.48658E+03  3.51471E+03  4.03892E+02  2.91296E+03  2.39001E+03 -6.55264E+02
  3.60725E+03 -9.11078E+02  8.56589E+03  2.66649E+03  4.68665E+03  1.02793E+04 -1.39932E+03  1.36381E+04
 -9.09803E+03  9.91372E+03 -1.17995E+04  2.53647E+03 -1.13762E+04 -3.42228E+03 -4.36023E+03 -8.40136E+03
  1.32453E+03 -7.63721E+03  5.07630E+03 -4.03265E+03  4.48836E+03  4.07504E+03 -2.29719E+03  5.87904E+03
 -8.41542E+03  3.47252E+03 -9.40730E+03 -5.05564E+03 -5.31711E+03 -1.02755E+04  1.19279E+03 -1.17305E+04
  7.13544E+03 -6.23400E+03  8.51574E+03 -4.39083E+02  6.81866E+03  2.98448E+03  7.80287E+02  5.76165E+03
 -3.88565E+03  2.53285E+03 -5.18768E+03 -3.36555E+03 -8.33095E+01 -8.25679E+03  9.91983E+03 -7.23857E+03
  1.34425E+04  5.23982E+02  1.19293E+04  9.63353E+03  3.19436E+03  1.33164E+04 -5.31890E+03  1.23099E+04
 -1.03327E+04  5.18615E+03 -1.17272E+04 -1.87086E+03 -5.50386E+03 -8.03844E+03  1.61250E+03 -8.85541E+03
  8.13519E+03 -4.85013E+03  7.68735E+03  3.32670E+03  2.21220E+03  6.83690E+03 -5.04945E+02  6.01305E+03
 -3.11045E+03  4.50226E+03 -4.11116E+03  1.94854E+03 -1.46540E+03  1.69483E+03 -2.39664E+03  3.10728E+03
 -3.61104E+03  5.23947E+03 -8.87793E+03  4.42238E+03 -1.28999E+04  7.78253E+02 -1.45462E+04 -8.85557E+03
 -7.22385E+03 -1.75057E+04  2.98541E+03 -2.10152E+04  1.31259E+04 -1.71121E+04  1.94351E+04 -5.88182E+03
  1.88121E+04  4.44537E+03  1.08301E+04  1.29373E+04  1.17773E+03  1.41177E+04 -4.63559E+03  1.02247E+04
 -7.62905E+03  4.78064E+03 -5.45031E+03 -1.94184E+03 -2.19110E+03 -1.76136E+03 -4.92662E+02  1.06064E+02
 -1.92958E+03 -1.54230E+02 -3.01057E+03 -1.05521E+03 -8.18534E+02 -4.11769E+03  6.15282E+02 -6.26031E+03
  6.17107E+03 -3.84628E+03  8.95023E+03  4.92718E+02  1.07744E+04  7.35046E+03  3.26313E+03  1.41978E+04
 -7.36790E+03  1.50826E+04 -1.51519E+04  8.84541E+03 -1.83224E+04 -1.57125E+03 -1.31991E+04 -1.07151E+04
 -5.42613E+03 -1.47607E+04  2.85788E+03 -1.37966E+04  9.45612E+03 -7.81038E+03  1.03215E+04  3.17150E+02
  4.49468E+03  4.99293E+03 -6.15556E+02  2.71503E+03 -3.21422E+03 -2.95080E+02  7.43681E+02 -3.41351E+03
  5.50386E+03 -2.21539E+03  6.03958E+03  2.09644E+03  4.77839E+03  6.18247E+03 -1.33065E+02  7.38611E+03
 -6.85940E+03  6.28768E+03 -9.90838E+03  6.72232E+02 -9.00707E+03 -7.51160E+03 -1.67577E+03 -1.29010E+04
  6.50942E+03 -9.47664E+03  1.20368E+04 -3.06745E+03  1.17628E+04  2.93171E+03  7.25779E+03  9.27980E+03
  7.29917E+02  1.01102E+04 -3.93980E+03  7.78367E+03 -6.89382E+03  3.74518E+03 -5.59678E+03  2.82052E+03
 -3.33551E+03  5.79474E+02 -2.57262E+03  7.06644E+02 -6.11899E+03  2.17716E+03 -8.70373E+03 -1.41584E+03
 -7.26813E+03 -5.62574E+03 -2.52215E+03 -1.06862E+04  4.42841E+03 -1.10571E+04  8.95013E+03 -5.52977E+03
  1.02360E+04  1.30838E+03  6.76934E+03  7.14492E+03 -1.62678E+03  9.66594E+03 -7.62982E+03  6.52217E+03
