 $NMID ID='MM_0lb_SNR400_8hz_g50_69.RAW', FMTDAT='(8E13.5)'
 TRAMP=1., VOLUME=1. $END
  3.10087E+05  3.97325E+02  3.38089E+05  2.50734E+05  8.41222E+04  3.37727E+05 -1.33674E+05  2.51596E+05
 -1.90901E+05  8.40080E+04 -1.12893E+05 -3.17977E+04  3.84404E+02 -5.10378E+04  5.36762E+04 -6.29017E+02
  3.50751E+04  5.28903E+04 -1.63303E+04  7.54261E+04 -6.08504E+04  6.40280E+04 -8.56915E+04  3.26077E+04
 -8.25459E+04 -1.23143E+04 -5.88474E+04 -5.27978E+04 -1.53107E+04 -7.15146E+04  2.89273E+04 -4.70528E+04
  4.08807E+04  3.78341E+03  1.67687E+04  4.95252E+04 -3.47870E+04  4.85561E+04 -6.82803E+04  4.68245E+02
 -5.43502E+04 -5.81233E+04 -7.51651E+03 -7.89693E+04  3.45317E+04 -5.67886E+04  4.99696E+04 -1.81855E+04
  4.58226E+04  1.19041E+04  3.37321E+04  2.68690E+04  1.56785E+04  3.00604E+04 -5.89756E+03  2.72643E+04
 -2.27482E+04  1.12854E+04 -1.85756E+04 -5.22462E+03  6.82142E+03 -7.22308E+03  2.48153E+04  1.41914E+04
  6.87571E+03  3.79034E+04 -3.46630E+04  3.77440E+04 -6.71616E+04  1.89274E+03 -5.85948E+04 -4.41941E+04
 -1.28640E+04 -6.56124E+04  4.27160E+04 -4.74639E+04  6.17936E+04 -2.55843E+03  3.67976E+04  3.39222E+04
 -5.39672E+03  4.05045E+04 -3.20653E+04  1.91735E+04 -3.43385E+04 -3.67891E+03 -1.92018E+04 -1.21419E+04
 -1.00407E+04 -1.58090E+04  5.13664E+02 -2.00513E+04  8.05208E+03 -2.33018E+04  1.61597E+04 -1.22644E+04
  1.04177E+04  6.06160E+03 -1.00517E+04  1.29029E+04 -2.39415E+04 -7.38358E+03 -8.07331E+03 -3.81757E+04
  2.52343E+04 -4.81694E+04  5.27132E+04 -2.16992E+04  4.94676E+04  2.12365E+04  1.89649E+04  4.78688E+04
 -1.65140E+04  3.67684E+04 -2.83988E+04  2.09832E+03 -1.16715E+04 -2.93354E+04  2.25696E+04 -3.78624E+04
  4.56459E+04 -1.08681E+04  4.10478E+04  2.61162E+04  2.22857E+04  5.32282E+04 -7.73731E+03  5.69593E+04
 -3.56680E+04  3.91598E+04 -4.89283E+04  1.16473E+04 -4.92685E+04 -1.82743E+04 -2.64678E+04 -4.25726E+04
  9.07935E+03 -4.35507E+04  3.44315E+04 -1.76362E+04  3.26151E+04  1.14016E+04  5.26550E+03  2.09138E+04
 -1.36220E+04  1.00772E+04 -1.24783E+04 -8.02707E+03  5.92174E+03 -1.15587E+04  1.91191E+04  5.38754E+03
  1.43670E+04  2.32902E+04 -4.99044E+03  2.85373E+04 -2.40167E+04  1.41401E+04 -3.21541E+04 -2.00839E+03
 -2.54061E+04 -1.78367E+04 -1.23270E+04 -2.66509E+04  4.75763E+03 -2.62227E+04  2.03515E+04 -2.36883E+04
  3.34608E+04 -1.45056E+04  3.79358E+04  5.43555E+03  2.69985E+04  2.47467E+04  5.03472E+03  4.20311E+04
 -2.04154E+04  3.48680E+04 -3.18646E+04  1.28315E+04 -2.35517E+04 -1.12405E+04 -4.40101E+03 -1.26691E+04
  8.57768E+02 -1.15406E+03 -7.92299E+03  8.82141E+03 -2.03802E+04  4.72973E+03 -2.20626E+04 -1.02084E+04
 -1.23740E+04 -2.35744E+04  6.61943E+03 -2.95463E+04  1.90355E+04 -2.00800E+04  2.32043E+04 -1.78866E+03
  1.56711E+04  1.62734E+04 -1.42519E+03  2.37191E+04 -1.79256E+04  1.33188E+04 -2.47578E+04 -5.68495E+03
 -1.86670E+04 -2.18447E+04 -2.16260E+03 -2.89862E+04  1.32616E+04 -2.34870E+04  2.44367E+04 -1.26875E+04
  2.26953E+04 -1.71198E+02  1.71909E+04  5.57843E+03  9.21601E+03  1.43965E+03  1.24022E+04 -2.51952E+03
  2.28764E+04  3.87935E+03  2.73318E+04  1.86728E+04  1.83738E+04  3.96681E+04 -2.76933E+03  4.69100E+04
 -2.65614E+04  3.88107E+04 -4.36977E+04  2.11305E+04 -4.65687E+04 -3.59951E+03 -3.79546E+04 -2.83410E+04
 -1.54356E+04 -3.89055E+04  1.43622E+04 -3.42918E+04  2.91593E+04 -1.53009E+04  2.50987E+04  8.41686E+03
  7.92650E+03  1.95081E+04 -1.26223E+04  1.62859E+04 -2.04986E+04  2.61073E+03 -1.62832E+04 -1.33057E+04
 -8.75766E+02 -2.04846E+04  1.10821E+04 -1.52287E+04  1.31273E+04 -1.24408E+03  4.04315E+03  9.34091E+03
 -9.37024E+03  4.51648E+03 -9.71431E+03 -6.94650E+03 -2.47788E+03 -1.96472E+04  1.31050E+04 -2.14461E+04
  2.41120E+04 -1.20097E+04  2.82874E+04  3.49055E+03  2.41878E+04  1.94910E+04  1.11725E+04  3.10429E+04
 -7.37526E+03  3.32046E+04 -2.17154E+04  1.99538E+04 -2.39249E+04  4.61446E+03 -1.61786E+04 -5.96169E+03
 -6.72962E+03 -7.50492E+03 -3.15488E+02  9.56406E+01 -2.71717E+03  3.44695E+03 -7.41583E+03  5.11659E+03
 -1.52136E+04 -1.65804E+03 -1.59863E+04 -1.15381E+04 -6.07026E+03 -1.93113E+04  7.50802E+03 -1.70034E+04
  1.34246E+04 -6.79503E+03  9.52765E+03  3.24978E+03  1.29871E+02  6.67500E+03 -8.18283E+03 -4.49510E+02
 -9.00143E+03 -1.06779E+04 -1.48896E+03 -1.61057E+04  9.80411E+03 -1.76803E+04  2.09788E+04 -9.94782E+03
  2.50120E+04  2.76806E+03  1.84851E+04  1.50837E+04  3.72397E+03  2.07376E+04 -1.06378E+04  1.65079E+04
 -1.32890E+04  4.09933E+03 -6.60726E+03 -4.29281E+03  2.29677E+03 -4.49018E+03  9.08935E+03 -1.15606E+03
  7.83966E+03  6.76020E+03  1.86285E+03  1.33922E+04 -9.70761E+03  1.28202E+04 -1.70238E+04  2.54944E+03
 -1.14263E+04 -8.95170E+03  1.32972E+02 -1.50338E+04  9.89909E+03 -7.12241E+03  9.80594E+03  4.05742E+03
  2.92985E+03  1.08269E+04 -8.19917E+03  1.27404E+04 -1.45983E+04  6.51222E+03 -1.54114E+04 -4.80573E+03
 -9.11175E+03 -1.66066E+04  4.95226E+03 -1.99793E+04  1.66140E+04 -1.19166E+04  1.85269E+04  3.80664E+03
  1.05790E+04  1.44179E+04 -1.88300E+03  1.75226E+04 -1.27155E+04  9.42875E+03 -1.42979E+04 -1.86603E+03
 -1.10116E+04 -1.16488E+04 -1.76523E+03 -1.31416E+04  6.79210E+03 -1.08404E+04  8.44418E+03 -3.94873E+03
  4.80757E+03  3.59191E+03 -1.58750E+03  2.33482E+03 -5.64496E+01 -3.06168E+03  3.29696E+03 -7.71949E+03
  1.25805E+04 -5.75911E+03  1.79506E+04  1.37765E+03  1.70347E+04  1.32148E+04  1.06460E+04  2.35562E+04
 -5.56999E+03  2.59398E+04 -2.11335E+04  1.99754E+04 -2.83630E+04  4.01113E+03 -2.23705E+04 -1.01677E+04
 -1.04457E+04 -1.86359E+04 -1.93301E+02 -1.53620E+04  5.99853E+03 -9.44911E+03  5.44885E+03 -5.54396E+03
  4.09544E+03 -4.04618E+03  4.59767E+03 -3.82268E+03  6.07882E+03 -4.65438E+03  8.97450E+03 -1.11021E+03
  1.22374E+04  3.02567E+03  6.42060E+03  1.06238E+04 -4.18208E+03  1.35654E+04 -1.23436E+04  9.76668E+03
 -1.58646E+04 -1.32029E+03 -1.10388E+04 -1.21494E+04 -2.14642E+03 -1.77909E+04  9.45134E+03 -1.87574E+04
  1.82568E+04 -9.48666E+03  2.22156E+04  2.68054E+03  1.50965E+04  1.52098E+04  2.31806E+03  2.02565E+04
 -8.25120E+03  1.56824E+04 -1.19624E+04  5.48249E+03 -8.31432E+03 -2.04052E+03 -3.52285E+03 -2.79978E+03
 -2.08167E+03 -5.61831E+02 -2.01902E+03  3.66728E+03 -7.45862E+03  2.45120E+03 -1.14124E+04 -1.71896E+03
 -8.42808E+03 -1.09679E+04 -5.09470E+02 -1.64759E+04  9.58055E+03 -1.53012E+04  1.63200E+04 -4.80722E+03
  1.53703E+04  8.25212E+03  7.96587E+03  1.45426E+04 -3.25258E+03  1.70574E+04 -1.23912E+04  1.11313E+04
 -1.52367E+04  1.32243E+03 -1.25612E+04 -1.00689E+04 -6.02622E+02 -1.49391E+04  7.37466E+03 -1.12329E+04
  1.04624E+04 -3.75782E+03  6.91889E+03  2.69435E+03  2.28729E+03  4.43617E+03  1.38677E+03  2.62192E+03
  2.31763E+03  1.47236E+03  3.57841E+03  2.37233E+03  4.34051E+03  5.92971E+03  4.32510E+03  9.07994E+03
 -3.10842E+03  1.43490E+04 -1.21499E+04  1.31382E+04 -1.76820E+04  3.62400E+03 -1.76739E+04 -7.39760E+03
 -8.85820E+03 -1.69246E+04  2.71126E+03 -1.94764E+04  9.47569E+03 -1.20904E+04  1.41434E+04 -3.39983E+03
  1.14026E+04  6.58904E+03  1.77515E+03  1.05674E+04 -4.69680E+03  6.96308E+03 -6.79092E+03 -4.51687E+02
 -2.23651E+03 -7.77400E+03  3.81164E+03 -7.47671E+03  7.72045E+03 -3.66673E+03  7.07760E+03  2.83327E+03
  3.79101E+03  3.49769E+03  1.28912E+03  2.04855E+03 -1.23961E+03  2.48363E+03  2.07154E+03 -8.57416E+02
  2.24415E+03 -1.12302E+03  6.93134E+03  2.84731E+03  3.70575E+03  9.81417E+03 -1.63340E+03  1.15849E+04
 -7.84150E+03  7.96655E+03 -1.08274E+04  2.81847E+03 -9.86348E+03 -3.63244E+03 -4.10105E+03 -7.08990E+03
  9.54376E+02 -6.03520E+03  4.53804E+03 -3.61786E+03  3.13090E+03  4.06745E+03 -1.23753E+03  6.00137E+03
 -7.97928E+03  3.10571E+03 -8.19048E+03 -4.12802E+03 -4.87099E+03 -9.33975E+03  2.08381E+03 -9.64196E+03
  6.33253E+03 -5.94717E+03  8.13291E+03 -5.44638E+02  6.60987E+03  2.20863E+03  8.22713E+02  4.62841E+03
 -3.05470E+03  1.55392E+03 -4.55944E+03 -3.57781E+03  7.47879E+02 -7.74708E+03  8.62676E+03 -6.80424E+03
  1.12537E+04  7.59015E+02  1.00313E+04  8.10689E+03  3.55716E+03  1.25567E+04 -4.80448E+03  1.08644E+04
 -9.84774E+03  5.26101E+03 -9.64166E+03 -8.90541E+02 -5.33395E+03 -7.39875E+03  1.83625E+03 -6.66336E+03
  7.00551E+03 -3.46162E+03  6.65968E+03  2.72770E+03  2.12660E+03  5.81109E+03 -1.69636E+03  4.91272E+03
 -3.21143E+03  3.42754E+03 -2.46626E+03  1.07577E+03 -1.86678E+03  1.80084E+03 -2.07785E+03  2.44337E+03
 -3.82664E+03  4.60705E+03 -7.56055E+03  3.76337E+03 -1.19525E+04 -1.16684E+02 -1.27623E+04 -7.55181E+03
 -6.92401E+03 -1.57814E+04  2.45287E+03 -1.80430E+04  1.10743E+04 -1.40124E+04  1.76060E+04 -5.19992E+03
  1.68279E+04  3.63497E+03  1.01718E+04  1.07656E+04  1.42627E+03  1.34347E+04 -5.55984E+03  9.74819E+03
 -6.88460E+03  2.68404E+03 -4.10443E+03 -1.10639E+03 -8.65285E+02 -9.81099E+02 -5.75810E+02 -3.67901E+02
 -1.78421E+03 -5.47833E+02 -2.96308E+03 -1.24681E+03 -1.51342E+03 -3.31991E+03  4.82969E+02 -4.23952E+03
  4.85611E+03 -3.85020E+03  7.75986E+03  1.10055E+02  8.50558E+03  6.74901E+03  2.42410E+03  1.19528E+04
 -5.67098E+03  1.40014E+04 -1.29141E+04  8.05557E+03 -1.54402E+04 -1.36125E+03 -1.19273E+04 -8.88920E+03
 -3.32034E+03 -1.30344E+04  3.12679E+03 -1.19931E+04  8.93695E+03 -6.56557E+03  7.49260E+03 -1.94564E+02
  4.53214E+03  4.10396E+03 -7.46391E+02  3.15869E+03 -1.95560E+03 -4.00337E+01  1.87129E+02 -3.19029E+03
  3.79563E+03 -2.00526E+03  5.06787E+03  1.08800E+03  2.77294E+03  5.19870E+03  1.21044E+02  7.13767E+03
 -5.34451E+03  5.15369E+03 -8.48458E+03 -3.24791E+02 -7.12323E+03 -5.67675E+03 -3.31126E+02 -1.02111E+04
  5.10131E+03 -8.87290E+03  1.06792E+04 -3.17318E+03  9.69745E+03  2.30627E+03  5.37845E+03  8.35737E+03
  6.92863E+02  9.34631E+03 -2.89841E+03  6.88001E+03 -5.34735E+03  3.46676E+03 -5.00732E+03  5.48297E+02
 -2.67200E+03 -8.06050E+02 -2.69368E+03  8.08958E+02 -4.25538E+03  1.03745E+03 -7.72636E+03 -1.51064E+03
 -6.20261E+03 -5.52381E+03 -2.72753E+03 -7.91063E+03  3.97681E+03 -8.63472E+03  8.06144E+03 -4.08189E+03
  8.56460E+03  1.03448E+03  4.96155E+03  6.44788E+03 -4.44123E+02  8.25293E+03 -7.21205E+03  5.47643E+03
