 $NMID ID='MM_0lb_SNR400_14hz_g50_99.RAW', FMTDAT='(8E13.5)'
 TRAMP=1., VOLUME=1. $END
  3.10147E+05  8.04591E+02  3.37369E+05  2.50411E+05  8.46441E+04  3.38206E+05 -1.32712E+05  2.51477E+05
 -1.90946E+05  8.28150E+04 -1.11732E+05 -3.22108E+04  6.02976E+02 -5.08258E+04  5.46827E+04  3.02539E+02
  3.54775E+04  5.33356E+04 -1.63704E+04  7.54927E+04 -6.09160E+04  6.36758E+04 -8.40120E+04  3.25400E+04
 -8.15317E+04 -1.13793E+04 -5.70529E+04 -5.11317E+04 -1.52499E+04 -6.95319E+04  2.74541E+04 -4.56679E+04
  3.98129E+04  3.98267E+03  1.68370E+04  4.81095E+04 -3.43121E+04  4.77241E+04 -6.63118E+04 -2.17861E+02
 -5.36040E+04 -5.67509E+04 -6.88621E+03 -7.73658E+04  3.36403E+04 -5.49772E+04  4.82122E+04 -1.80492E+04
  4.30874E+04  1.12869E+04  3.21066E+04  2.48878E+04  1.59565E+04  2.93110E+04 -5.06990E+03  2.74881E+04
 -2.24761E+04  1.24340E+04 -1.91459E+04 -4.85908E+03  5.12740E+03 -7.09066E+03  2.26486E+04  1.23899E+04
  8.14474E+03  3.54735E+04 -3.25998E+04  3.54512E+04 -6.36037E+04  2.11044E+03 -5.73415E+04 -4.27651E+04
 -1.21002E+04 -6.33675E+04  3.92012E+04 -4.53699E+04  5.87878E+04 -1.75286E+03  3.46725E+04  3.28353E+04
 -5.81897E+03  3.61951E+04 -2.97490E+04  1.59448E+04 -3.03197E+04 -4.48227E+03 -1.68564E+04 -1.07938E+04
 -8.47713E+03 -1.31807E+04 -3.86365E+02 -1.79717E+04  7.53436E+03 -2.27580E+04  1.52564E+04 -1.29366E+04
  1.11615E+04  5.20866E+03 -8.47511E+03  1.22762E+04 -2.13850E+04 -4.84201E+03 -8.02525E+03 -3.40390E+04
  2.31583E+04 -4.35732E+04  4.80645E+04 -1.94714E+04  4.54849E+04  1.95861E+04  1.58623E+04  4.36916E+04
 -1.61597E+04  3.40364E+04 -2.57092E+04  2.18981E+03 -9.94886E+03 -2.80303E+04  2.13112E+04 -3.36910E+04
  4.09880E+04 -9.74061E+03  3.53063E+04  2.38850E+04  1.85732E+04  4.69889E+04 -7.22975E+03  5.07850E+04
 -3.20988E+04  3.45098E+04 -4.20781E+04  9.52968E+03 -4.29961E+04 -1.69341E+04 -2.37634E+04 -3.78544E+04
  6.73428E+03 -3.79278E+04  3.14314E+04 -1.45678E+04  2.91359E+04  1.11280E+04  4.17765E+03  1.92849E+04
 -1.28175E+04  8.42706E+03 -9.89101E+03 -7.80563E+03  6.08689E+03 -1.06365E+04  1.77824E+04  6.35845E+03
  1.37676E+04  2.18552E+04 -5.27566E+03  2.51251E+04 -2.23971E+04  1.14502E+04 -2.77576E+04 -4.94154E+03
 -2.16386E+04 -1.75139E+04 -8.00660E+03 -2.05742E+04  3.54829E+03 -1.98539E+04  1.60398E+04 -1.87426E+04
  2.67288E+04 -1.28591E+04  3.28852E+04  2.80294E+03  2.35716E+04  2.02982E+04  4.15334E+03  3.66117E+04
 -1.77108E+04  3.04419E+04 -2.79003E+04  1.06410E+04 -2.10482E+04 -1.08738E+04 -4.03568E+03 -1.31212E+04
  1.74857E+03 -2.59708E+03 -4.50386E+03  7.34110E+03 -1.68768E+04  5.03618E+03 -1.57743E+04 -7.37945E+03
 -1.03468E+04 -1.93777E+04  5.24395E+03 -2.33015E+04  1.53016E+04 -1.73314E+04  1.82103E+04 -1.49143E+03
  1.15121E+04  1.37131E+04 -7.92373E+02  1.95996E+04 -1.34842E+04  1.03363E+04 -1.91854E+04 -3.58131E+03
 -1.44284E+04 -1.65821E+04 -2.03185E+03 -2.31587E+04  1.01818E+04 -1.88832E+04  1.94038E+04 -9.90040E+03
  1.76760E+04  2.50916E+02  1.30457E+04  4.47753E+03  6.54329E+03  4.25157E+02  9.88630E+03 -1.79882E+03
  1.74201E+04  2.72600E+03  2.00241E+04  1.49994E+04  1.23759E+04  3.04638E+04 -2.70734E+03  3.38741E+04
 -2.03296E+04  2.75767E+04 -3.19313E+04  1.36115E+04 -3.37898E+04 -2.37213E+03 -2.79492E+04 -1.94657E+04
 -1.16982E+04 -2.75666E+04  9.22907E+03 -2.52049E+04  2.18089E+04 -1.28015E+04  1.97669E+04  5.36609E+03
  7.77221E+03  1.39624E+04 -8.42888E+03  1.32606E+04 -1.66236E+04  2.39882E+03 -1.19226E+04 -9.81455E+03
 -6.86634E+02 -1.55976E+04  8.81581E+03 -1.09868E+04  1.02677E+04 -1.23371E+03  2.37007E+03  6.75736E+03
 -7.26149E+03  2.65367E+03 -6.53582E+03 -6.45300E+03 -5.06357E+02 -1.36752E+04  9.23647E+03 -1.45119E+04
  1.62341E+04 -8.10518E+03  1.78362E+04  2.22139E+03  1.61193E+04  1.38175E+04  7.77124E+03  2.06890E+04
 -3.34578E+03  2.21430E+04 -1.46266E+04  1.43777E+04 -1.62747E+04  3.28643E+03 -1.19014E+04 -4.04372E+03
 -5.49820E+03 -4.98521E+03 -1.10580E+02  9.16379E+02 -2.69170E+03  2.57868E+03 -5.43838E+03  3.91787E+03
 -1.09202E+04 -4.54647E+02 -1.16112E+04 -8.85783E+03 -4.88153E+03 -1.48140E+04  4.32786E+03 -1.18386E+04
  9.07435E+03 -4.46884E+03  7.19944E+03  2.89266E+03  8.12233E+01  3.92699E+03 -5.18029E+03 -1.30929E+02
 -5.13253E+03 -7.30746E+03 -1.08123E+03 -1.03260E+04  5.82682E+03 -1.14549E+04  1.40964E+04 -6.18583E+03
  1.64803E+04  1.54247E+03  1.28642E+04  1.01115E+04  3.05862E+03  1.23873E+04 -6.42134E+03  1.16308E+04
 -8.83402E+03  3.23675E+03 -4.83694E+03 -1.61604E+03  1.65120E+03 -2.64438E+03  5.74987E+03 -5.48028E+02
  5.24966E+03  4.40684E+03  7.23120E+02  9.15364E+03 -6.66015E+03  8.62675E+03 -1.11600E+04  1.28408E+03
 -7.25881E+03 -5.79478E+03 -8.22756E+01 -8.62256E+03  6.32297E+03 -5.13503E+03  6.29655E+03  1.84860E+03
  1.45666E+03  5.45345E+03 -5.56025E+03  7.66419E+03 -8.40039E+03  3.65679E+03 -8.53025E+03 -2.65848E+03
 -4.89343E+03 -9.79090E+03  1.79165E+03 -1.13925E+04  1.00139E+04 -7.55326E+03  1.06201E+04  2.04282E+03
  6.33204E+03  8.82966E+03 -4.73233E+02  1.09714E+04 -7.47068E+03  5.80917E+03 -8.53251E+03 -6.23390E+02
 -7.71990E+03 -7.07337E+03 -1.81810E+03 -8.22492E+03  4.11314E+03 -7.00651E+03  4.58966E+03 -3.19978E+03
  3.74048E+03  5.33271E+02  7.90059E+01  1.43017E+03  2.86368E+02 -1.99547E+03  9.14522E+02 -4.30535E+03
  6.56569E+03 -2.09270E+03  8.97217E+03  1.24638E+03  9.15069E+03  6.06569E+03  7.46195E+03  1.28221E+04
 -2.67631E+03  1.37815E+04 -1.22341E+04  1.03605E+04 -1.67614E+04  2.29088E+03 -1.25035E+04 -4.88940E+03
 -6.42325E+03 -1.09167E+04 -6.65820E+02 -8.66728E+03  3.64636E+03 -3.23805E+03  3.23136E+03 -3.05166E+03
  2.30737E+03 -1.52971E+03  2.85000E+03 -2.72494E+03  4.25996E+03 -1.90173E+03  5.79516E+03 -2.75249E+02
  6.75260E+03  1.85922E+03  3.00413E+03  5.98401E+03 -1.88525E+03  6.25900E+03 -7.27900E+03  5.15123E+03
 -8.30142E+03 -1.22229E+03 -4.08487E+03 -5.87306E+03 -6.50188E+02 -8.73087E+03  5.67861E+03 -8.72221E+03
  9.23954E+03 -5.68363E+03  1.16922E+04  1.48184E+03  7.49553E+03  8.15929E+03  9.89548E+02  1.03637E+04
 -3.53019E+03  9.45711E+03 -5.28328E+03  3.22786E+03 -4.11078E+03 -1.02702E+03 -5.32968E+02 -8.45270E+02
 -8.16638E+02 -2.58193E+02 -1.90467E+03  2.11142E+03 -3.77686E+03  1.82466E+03 -6.34135E+03 -8.08585E+02
 -3.88524E+03 -6.44325E+03  4.90320E+02 -8.51327E+03  5.30056E+03 -7.23371E+03  7.72938E+03 -1.99536E+03
  7.55533E+03  4.13996E+03  3.09175E+03  6.73053E+03 -2.06780E+03  7.33034E+03 -5.51704E+03  4.95136E+03
 -7.95102E+03  4.61033E+02 -6.31952E+03 -4.70415E+03 -5.63787E+02 -6.20240E+03  3.10455E+03 -5.42295E+03
  5.47069E+03 -1.19155E+03  3.73171E+03  1.81201E+03  1.14049E+03  2.59839E+03  1.19407E+03  1.44274E+03
  2.22849E+03  5.64887E+02  2.53004E+03  9.95329E+02  2.23290E+03  2.83675E+03  1.89359E+03  3.92222E+03
 -1.41291E+03  5.41497E+03 -5.01839E+03  6.73398E+03 -6.91582E+03  2.33912E+03 -8.14272E+03 -2.20987E+03
 -3.80671E+03 -6.75655E+03  9.94145E+02 -9.02803E+03  4.47849E+03 -5.69293E+03  5.99529E+03 -9.58488E+02
  4.73149E+03  3.11826E+03  5.53075E+02  4.09746E+03 -1.69749E+03  2.61607E+03 -2.91021E+03 -8.85514E+02
 -1.35466E+03 -3.06450E+03  2.26240E+03 -3.18553E+03  3.34059E+03 -1.85877E+03  2.51971E+03  8.30432E+02
  1.98916E+03  1.51545E+03  1.38390E+03  6.53398E+02 -1.01171E+03  1.29044E+03  1.52529E+03 -2.28522E+02
  7.83273E+02 -2.62043E+02  3.05251E+03  7.70813E+02  1.14710E+03  4.15728E+03  4.53358E-01  6.26310E+03
 -3.74555E+03  2.92833E+03 -4.48525E+03  1.00858E+03 -4.64960E+03 -1.90226E+03 -9.69200E+02 -2.69619E+03
  5.96909E+02 -2.81678E+03  2.11675E+03 -1.67771E+03  1.51169E+03  1.91898E+03 -1.11396E+03  2.48453E+03
 -2.91240E+03  1.05639E+03 -3.19604E+03 -2.17463E+03 -1.39466E+03 -4.16253E+03  1.42357E+02 -3.35423E+03
  1.74218E+03 -2.17665E+03  2.48046E+03 -5.45960E+01  2.11933E+03  9.09465E+02 -1.50293E+02  1.73426E+03
 -1.16937E+03  7.98854E+02 -1.47751E+03 -1.65370E+03  9.16671E+02 -2.58957E+03  3.29136E+03 -2.52657E+03
  3.91780E+03 -2.79551E+02  5.09378E+03  2.28277E+03  2.14958E+03  4.30689E+03 -1.30902E+03  3.93941E+03
 -3.00273E+03  2.20597E+03 -3.21925E+03 -7.08718E+02 -1.83863E+03 -3.28647E+03  8.00289E+02 -1.84242E+03
  3.04831E+03 -1.70387E+03  1.98732E+03  7.97303E+02  1.03168E+03  2.51245E+03 -2.59126E+02  1.84758E+03
 -8.36555E+02  2.09834E+03 -8.96773E+02 -1.75102E+02 -3.35362E+02  6.36265E+02 -5.31473E+02  5.29724E+02
 -1.20188E+03  2.16168E+03 -3.22411E+03  1.45895E+03 -3.10530E+03  3.21553E+02 -5.24374E+03 -2.49311E+03
 -1.61063E+03 -5.50293E+03  1.21181E+03 -6.10982E+03  3.49134E+03 -4.63014E+03  5.92807E+03 -2.42678E+03
  5.39542E+03  1.14780E+03  3.62961E+03  3.68157E+03 -2.31314E+02  3.80005E+03 -1.12305E+03  2.45013E+03
 -2.31332E+03  1.36223E+03 -1.66806E+03 -4.88193E+02 -5.96226E+02 -1.34726E+02 -6.97303E+02  8.49110E+02
 -1.17582E+03 -2.62312E+02 -1.35930E+03  2.88511E+02  2.20056E+02 -1.02416E+03  3.60038E+01 -1.74376E+03
  1.52298E+03 -1.39002E+03  2.13327E+03  6.55355E+02  2.21887E+03  2.56992E+03 -1.28274E+02  4.27317E+03
 -1.58923E+03  4.64262E+03 -4.30486E+03  3.68849E+03 -5.36017E+03 -3.92956E+02 -3.77977E+03 -2.98236E+03
 -1.48099E+03 -3.58751E+03  1.26978E+03 -3.36455E+03  2.56693E+03 -2.36102E+03  2.37525E+03 -2.65474E+02
  2.51031E+03  8.03630E+02  3.99881E+02  9.55728E+02 -1.30579E+03  2.50344E+02  7.48955E+01 -5.84205E+02
  9.07769E+02 -4.61941E+01  1.29442E+03  1.15683E+02  1.02319E+03  1.31402E+03  6.70859E+02  1.18296E+03
 -1.41788E+03  1.36765E+03 -2.87846E+03 -2.32990E+01 -2.67674E+03 -2.04481E+03 -5.27705E+01 -3.34398E+03
  1.48923E+03 -2.30115E+03  3.10508E+03 -1.21166E+03  2.83152E+03  1.34935E+02  1.53184E+03  2.69464E+03
  3.68683E+02  1.80454E+03 -7.78126E+02  1.04505E+03 -1.27888E+03  1.16644E+03 -1.44111E+03  2.53641E+02
 -2.03894E+02 -3.18824E+02 -5.49335E+02  5.68569E+02 -1.36038E+03  6.06451E+02 -1.96710E+03 -1.12238E+03
 -2.19189E+03 -1.29427E+03 -9.07876E+02 -2.02303E+03  5.72792E+02 -3.50391E+03  2.01235E+03 -9.06883E+02
  1.72719E+03  5.41717E+01  5.51094E+02  1.63743E+03 -2.31289E+02  2.46822E+03 -1.52961E+03  2.35397E+03
