 $NMID ID='MM_0lb_SNR400_13hz_g45_70.RAW', FMTDAT='(8E13.5)'
 TRAMP=1., VOLUME=1. $END
  3.09825E+05 -1.66248E+02  3.38320E+05  2.51425E+05  8.47896E+04  3.37396E+05 -1.31908E+05  2.51349E+05
 -1.90022E+05  8.33907E+04 -1.12050E+05 -3.25855E+04  8.23100E+01 -5.04049E+04  5.36769E+04  1.51187E+02
  3.54119E+04  5.26378E+04 -1.71513E+04  7.49433E+04 -6.06767E+04  6.40391E+04 -8.46981E+04  3.14731E+04
 -8.11314E+04 -1.19186E+04 -5.72687E+04 -5.16451E+04 -1.50146E+04 -7.00468E+04  2.79874E+04 -4.64789E+04
  4.03385E+04  3.34683E+03  1.60388E+04  4.81244E+04 -3.38082E+04  4.71265E+04 -6.70624E+04 -9.16289E+01
 -5.38604E+04 -5.73918E+04 -7.60918E+03 -7.76382E+04  3.39822E+04 -5.52178E+04  4.87029E+04 -1.72889E+04
  4.36068E+04  1.14486E+04  3.21858E+04  2.52907E+04  1.61468E+04  3.01846E+04 -5.09232E+03  2.71574E+04
 -2.27329E+04  1.25782E+04 -1.86684E+04 -4.15474E+03  5.75064E+03 -7.35179E+03  2.25494E+04  1.22741E+04
  7.05776E+03  3.56423E+04 -3.28353E+04  3.56610E+04 -6.32185E+04  2.46341E+03 -5.75572E+04 -4.24795E+04
 -1.27472E+04 -6.38358E+04  3.96539E+04 -4.52988E+04  5.86461E+04 -1.97245E+03  3.45467E+04  3.28428E+04
 -6.07982E+03  3.61382E+04 -3.00892E+04  1.65756E+04 -2.95375E+04 -4.09197E+03 -1.75615E+04 -1.09004E+04
 -8.91967E+03 -1.36745E+04 -1.90302E+02 -1.78122E+04  6.68844E+03 -2.26480E+04  1.54811E+04 -1.34542E+04
  1.18167E+04  5.00484E+03 -8.57517E+03  1.28696E+04 -2.08393E+04 -4.50744E+03 -8.22324E+03 -3.35672E+04
  2.27223E+04 -4.35125E+04  4.86914E+04 -1.98816E+04  4.52094E+04  1.95785E+04  1.62537E+04  4.43179E+04
 -1.57621E+04  3.33945E+04 -2.60227E+04  1.51656E+03 -1.01067E+04 -2.84767E+04  2.12051E+04 -3.38931E+04
  4.08490E+04 -9.11756E+03  3.61839E+04  2.36992E+04  1.84414E+04  4.70265E+04 -8.08879E+03  5.04862E+04
 -3.18295E+04  3.45742E+04 -4.21522E+04  9.38758E+03 -4.34480E+04 -1.68407E+04 -2.37076E+04 -3.83395E+04
  7.63924E+03 -3.85875E+04  3.19157E+04 -1.51396E+04  2.91671E+04  1.09465E+04  4.54153E+03  1.91476E+04
 -1.37412E+04  8.47602E+03 -1.04216E+04 -7.94278E+03  6.13872E+03 -1.09884E+04  1.75090E+04  5.96701E+03
  1.30263E+04  2.20698E+04 -6.12377E+03  2.46709E+04 -2.26048E+04  1.20139E+04 -2.86780E+04 -3.91092E+03
 -2.10256E+04 -1.77861E+04 -8.11400E+03 -2.01205E+04  4.13637E+03 -2.09186E+04  1.69658E+04 -1.89226E+04
  2.63858E+04 -1.30853E+04  3.28283E+04  3.47616E+03  2.43041E+04  2.10603E+04  4.11051E+03  3.63926E+04
 -1.78780E+04  3.11140E+04 -2.82982E+04  1.12283E+04 -2.05346E+04 -1.05253E+04 -4.43086E+03 -1.34136E+04
  1.91875E+03 -2.58379E+03 -4.51241E+03  7.62995E+03 -1.63842E+04  5.39075E+03 -1.68490E+04 -7.60079E+03
 -1.03264E+04 -1.92083E+04  5.08057E+03 -2.37770E+04  1.54810E+04 -1.71513E+04  1.87003E+04 -1.76774E+03
  1.23755E+04  1.38244E+04 -1.32731E+03  1.93734E+04 -1.32592E+04  1.07219E+04 -1.98009E+04 -3.83475E+03
 -1.44894E+04 -1.70120E+04 -1.42752E+03 -2.32862E+04  1.08031E+04 -1.89229E+04  1.92990E+04 -1.05277E+04
  1.79886E+04 -1.06824E+01  1.29066E+04  4.49476E+03  6.77298E+03  5.49422E+02  9.93398E+03 -1.91272E+03
  1.78613E+04  3.12457E+03  2.00539E+04  1.55229E+04  1.31410E+04  3.04117E+04 -2.59763E+03  3.48388E+04
 -2.07835E+04  2.83673E+04 -3.28807E+04  1.43851E+04 -3.43417E+04 -2.43200E+03 -2.90905E+04 -1.95828E+04
 -1.22465E+04 -2.87015E+04  9.91820E+03 -2.58771E+04  2.16285E+04 -1.37227E+04  2.04452E+04  5.72352E+03
  6.85245E+03  1.44410E+04 -9.44410E+03  1.26377E+04 -1.72331E+04  2.59077E+03 -1.21028E+04 -9.88322E+03
 -4.93937E+02 -1.56644E+04  7.72110E+03 -1.25136E+04  1.09649E+04 -1.62903E+03  2.85856E+03  7.31033E+03
 -7.32325E+03  2.94930E+03 -6.33010E+03 -5.56814E+03 -1.46667E+01 -1.41183E+04  9.35124E+03 -1.46903E+04
  1.68630E+04 -7.77066E+03  1.88271E+04  2.67929E+03  1.66567E+04  1.37727E+04  7.18019E+03  2.14191E+04
 -3.69374E+03  2.32662E+04 -1.51396E+04  1.40651E+04 -1.70761E+04  2.76013E+03 -1.15991E+04 -4.01062E+03
 -5.93265E+03 -5.27048E+03 -9.93964E+02  8.18897E+02 -2.29305E+03  2.80687E+03 -5.64068E+03  4.14105E+03
 -1.07127E+04 -9.25932E+02 -1.18615E+04 -9.18067E+03 -4.52397E+03 -1.49484E+04  4.95331E+03 -1.26848E+04
  9.78993E+03 -4.88831E+03  7.28314E+03  2.93966E+03  2.63389E+02  4.29651E+03 -5.49071E+03 -4.48162E+02
 -5.75561E+03 -6.75903E+03 -1.42901E+03 -1.08228E+04  6.04106E+03 -1.19526E+04  1.51316E+04 -6.17428E+03
  1.72399E+04  1.36560E+03  1.27333E+04  9.48793E+03  2.58401E+03  1.35502E+04 -7.21941E+03  1.25118E+04
 -9.68716E+03  3.64108E+03 -4.73459E+03 -2.75770E+03  1.88234E+03 -3.21000E+03  6.68127E+03 -9.51644E+02
  6.37208E+03  4.90976E+03  9.01500E+02  9.65277E+03 -7.24564E+03  8.80047E+03 -1.13460E+04  2.17741E+03
 -7.77105E+03 -5.34742E+03 -1.81011E+02 -9.30465E+03  5.93321E+03 -5.18452E+03  6.72990E+03  2.22094E+03
  1.49872E+03  6.71741E+03 -6.25208E+03  7.66482E+03 -8.46945E+03  3.76906E+03 -8.45443E+03 -3.31084E+03
 -4.74512E+03 -1.08640E+04  2.20416E+03 -1.27553E+04  9.99253E+03 -6.68356E+03  1.04919E+04  2.10382E+03
  6.53090E+03  8.28221E+03 -5.29859E+02  1.02539E+04 -8.10479E+03  6.46067E+03 -8.25970E+03 -5.95830E+02
 -8.11617E+03 -8.23353E+03 -1.27366E+03 -8.68070E+03  4.42560E+03 -6.54705E+03  5.00949E+03 -2.88912E+03
  3.99268E+03  1.30915E+03  2.13742E+02  1.17451E+03 -1.68905E+02 -1.92810E+03  1.71549E+03 -4.70255E+03
  7.08133E+03 -2.46240E+03  9.75172E+03  7.95491E+02  1.02018E+04  7.04178E+03  7.50782E+03  1.35594E+04
 -3.11954E+03  1.59558E+04 -1.31159E+04  1.17852E+04 -1.72957E+04  1.92062E+03 -1.31764E+04 -5.38006E+03
 -7.14829E+03 -1.09115E+04 -2.47667E+02 -9.46738E+03  3.12924E+03 -5.03791E+03  3.32389E+03 -3.06561E+03
  3.03426E+03 -2.36146E+03  3.08562E+03 -2.98287E+03  4.71947E+03 -1.89632E+03  5.76418E+03 -5.77882E+02
  7.09870E+03  1.76440E+03  3.20575E+03  5.77945E+03 -1.49142E+03  6.04673E+03 -7.83803E+03  5.46731E+03
 -8.72537E+03 -1.08593E+03 -5.51040E+03 -5.68549E+03  4.44473E+01 -1.02577E+04  5.36449E+03 -1.04548E+04
  1.03195E+04 -5.73445E+03  1.22207E+04  1.59130E+03  8.58673E+03  8.70885E+03  1.65098E+03  1.18142E+04
 -4.13803E+03  9.73116E+03 -6.78928E+03  2.73797E+03 -3.93361E+03 -1.10389E+03 -1.81250E+03 -1.37824E+03
 -8.29803E+02 -1.68609E+02 -1.19489E+03  2.43459E+03 -3.54727E+03  1.95300E+03 -7.07431E+03 -3.27495E+02
 -4.10273E+03 -6.74507E+03 -1.32065E+02 -9.10058E+03  5.43965E+03 -8.23218E+03  8.38124E+03 -1.44460E+03
  8.19446E+03  4.41100E+03  3.86275E+03  7.81496E+03 -1.81631E+03  9.13804E+03 -6.02635E+03  4.84927E+03
 -7.87352E+03  2.35844E+02 -6.29976E+03 -4.94210E+03 -1.33297E+02 -6.20689E+03  3.76541E+03 -5.25328E+03
  5.38201E+03 -1.92165E+03  4.62481E+03  1.81394E+03  1.63738E+03  3.54487E+03  1.51962E+03  2.00509E+03
  2.35343E+03  6.44819E+02  2.26217E+03  1.47555E+03  2.45160E+03  3.64867E+03  2.74930E+03  4.35589E+03
 -2.46488E+03  6.91956E+03 -5.77702E+03  7.91351E+03 -7.80060E+03  1.49856E+03 -8.82928E+03 -3.53143E+03
 -4.04474E+03 -8.62856E+03  8.15419E+02 -9.69187E+03  4.03835E+03 -6.14985E+03  6.88358E+03 -2.04179E+03
  5.80343E+03  3.79873E+03  2.03890E+03  4.80121E+03 -2.09768E+03  2.89822E+03 -3.34601E+03 -7.62723E+02
 -1.54737E+03 -3.44235E+03  1.91179E+03 -3.82560E+03  3.39597E+03 -2.04189E+03  3.49822E+03  2.10149E+02
  1.78214E+03  1.59682E+03  9.51934E+02  6.68772E+02 -2.63102E+02  1.09945E+03  2.21528E+03 -1.06694E+03
  8.54182E+02 -6.71877E+02  3.43557E+03  1.43173E+03  1.32145E+03  4.43513E+03 -8.48786E+02  6.24647E+03
 -3.50046E+03  3.55325E+03 -5.01923E+03  1.23153E+03 -4.68578E+03 -1.78924E+03 -1.87412E+03 -2.62970E+03
  1.03091E+03 -2.81420E+03  1.00776E+03 -2.46019E+03  1.51838E+03  1.99638E+03 -6.55925E+02  2.15658E+03
 -3.60662E+03  1.29609E+03 -3.29471E+03 -2.04617E+03 -2.41812E+03 -4.39123E+03  3.06134E+02 -4.14173E+03
  1.82587E+03 -2.28613E+03  2.88768E+03 -4.48943E+02  2.40237E+03  7.73871E+02  2.93230E+02  2.90961E+03
 -2.10576E+03  1.93017E+02 -1.94938E+03 -9.13584E+02  4.04830E+02 -2.96916E+03  4.15306E+03 -2.69385E+03
  4.72286E+03  9.12106E+02  5.57642E+03  3.06374E+03  2.14742E+03  4.31578E+03 -1.28170E+03  5.05372E+03
 -4.39474E+03  1.44431E+03 -5.03173E+03 -5.58507E+02 -2.31712E+03 -2.89801E+03  5.65280E+02 -2.54335E+03
  2.90912E+03 -1.13561E+03  3.22223E+03  1.93351E+03  2.84684E+02  3.19860E+03 -3.97856E+02  2.77397E+03
 -1.11123E+03  1.81824E+03 -7.46316E+02  3.04501E+02 -6.45406E+02  1.15310E+03 -8.58650E+02  1.06531E+03
 -8.70983E+02  2.36484E+03 -3.06413E+03  1.97948E+03 -4.69574E+03  2.41284E+02 -5.43778E+03 -2.93710E+03
 -2.95080E+03 -5.68462E+03  1.53809E+03 -7.61678E+03  4.42754E+03 -6.06075E+03  6.99097E+03 -2.51706E+03
  6.56666E+03  9.03080E+02  4.39130E+03  4.88734E+03 -2.70432E+02  5.18331E+03 -2.16978E+03  3.55482E+03
 -2.77724E+03  1.66670E+03 -1.23858E+03 -2.87140E+02 -6.14453E+02 -3.17221E+02 -5.58475E+02  2.23670E+02
 -1.54607E+03  3.46648E+01 -1.57448E+03  5.77582E+02 -7.87124E+02 -1.36222E+03 -1.13464E+02 -1.50258E+03
  2.51704E+03 -1.57719E+03  2.40241E+03 -4.52290E+02  3.12576E+03  2.66465E+03  8.84399E+02  4.77727E+03
 -2.31280E+03  5.87728E+03 -4.99893E+03  2.99536E+03 -6.10646E+03 -4.32733E+02 -3.84332E+03 -3.35649E+03
 -2.26185E+03 -4.54353E+03  8.22755E+02 -4.35058E+03  3.10489E+03 -2.79835E+03  2.72623E+03  2.57765E+02
  2.43798E+03  1.44932E+03 -9.32663E+02  1.52003E+03 -9.15853E+02 -2.69767E+02 -4.28843E+02 -7.22182E+02
  1.50037E+03 -3.31092E+02  2.00811E+03  1.12595E+03  6.98565E+02  1.49966E+03  3.77043E+02  2.50638E+03
 -1.68693E+03  2.35429E+03 -2.35370E+03  2.74778E+02 -3.09621E+03 -1.92853E+03 -1.17143E+03 -4.08492E+03
  1.61110E+03 -2.39837E+03  3.35165E+03 -8.11672E+02  2.59921E+03  2.47194E+02  1.95101E+03  3.34042E+03
  5.95048E+02  3.16523E+03 -8.32170E+02  2.51183E+03 -1.51839E+03  1.38468E+03 -2.11327E+03  3.90086E+02
 -1.22363E+03 -6.65773E+02 -1.21157E+03  5.56160E+02 -1.86688E+03  4.07990E+02 -2.40199E+03 -1.35172E+02
 -2.66814E+03 -1.12169E+03 -1.01667E+03 -2.66527E+03  1.35274E+03 -3.31263E+03  2.03809E+03 -8.18972E+02
  2.56220E+03  1.97768E+02  1.47196E+03  1.94221E+03 -1.20593E+03  2.67625E+03 -1.69035E+03  1.75550E+03
