 $NMID ID='MM_0lb_SNR400_17hz_g55_23.RAW', FMTDAT='(8E13.5)'
 TRAMP=1., VOLUME=1. $END
  3.09695E+05  6.71940E+00  3.37783E+05  2.50181E+05  8.45615E+04  3.37271E+05 -1.31758E+05  2.50314E+05
 -1.90672E+05  8.28523E+04 -1.11471E+05 -3.29973E+04  1.56332E+03 -4.95126E+04  5.39546E+04  2.42484E+02
  3.56270E+04  5.26945E+04 -1.67703E+04  7.59406E+04 -6.06878E+04  6.37773E+04 -8.39852E+04  3.19852E+04
 -8.03957E+04 -1.10604E+04 -5.73074E+04 -5.06207E+04 -1.49881E+04 -6.89632E+04  2.67380E+04 -4.56944E+04
  3.95871E+04  3.82934E+03  1.63144E+04  4.77278E+04 -3.40249E+04  4.63641E+04 -6.66052E+04 -5.92640E+02
 -5.32110E+04 -5.66497E+04 -7.16440E+03 -7.60140E+04  3.41048E+04 -5.45013E+04  4.74052E+04 -1.68129E+04
  4.25871E+04  1.16237E+04  3.14329E+04  2.52058E+04  1.58832E+04  2.89453E+04 -5.18487E+03  2.72004E+04
 -2.20648E+04  1.22302E+04 -1.87922E+04 -4.63844E+03  4.20628E+03 -7.61922E+03  2.16660E+04  1.15724E+04
  7.10076E+03  3.41498E+04 -3.19065E+04  3.48463E+04 -6.27610E+04  2.27707E+03 -5.70329E+04 -4.23015E+04
 -1.19627E+04 -6.19115E+04  3.91859E+04 -4.52974E+04  5.71173E+04 -1.32019E+03  3.35449E+04  3.19258E+04
 -6.41012E+03  3.49505E+04 -2.95733E+04  1.48750E+04 -2.93254E+04 -4.86461E+03 -1.56551E+04 -1.01502E+04
 -7.77304E+03 -1.22648E+04 -9.96543E+02 -1.77533E+04  6.40436E+03 -2.29695E+04  1.55836E+04 -1.35809E+04
  1.15721E+04  5.02186E+03 -7.45291E+03  1.29995E+04 -2.05394E+04 -3.41489E+03 -8.35259E+03 -3.21477E+04
  2.22927E+04 -4.27305E+04  4.68753E+04 -1.92586E+04  4.38061E+04  1.87086E+04  1.48859E+04  4.32157E+04
 -1.61703E+04  3.17903E+04 -2.43500E+04  1.93900E+03 -9.15528E+03 -2.76593E+04  2.03241E+04 -3.25797E+04
  3.97544E+04 -8.15446E+03  3.35820E+04  2.36291E+04  1.75428E+04  4.45498E+04 -8.07546E+03  4.85926E+04
 -3.07859E+04  3.22424E+04 -4.02034E+04  9.06783E+03 -4.13062E+04 -1.57990E+04 -2.26937E+04 -3.63560E+04
  7.36055E+03 -3.57811E+04  3.04669E+04 -1.39804E+04  2.83722E+04  1.10440E+04  4.00030E+03  1.88127E+04
 -1.37118E+04  8.41946E+03 -1.01533E+04 -7.91409E+03  5.63333E+03 -1.06808E+04  1.80050E+04  5.81635E+03
  1.29499E+04  2.15806E+04 -6.47664E+03  2.45968E+04 -2.20243E+04  1.08532E+04 -2.63315E+04 -5.46573E+03
 -1.86843E+04 -1.69973E+04 -7.00197E+03 -1.88782E+04  3.64901E+03 -1.79460E+04  1.42896E+04 -1.66755E+04
  2.38731E+04 -1.23580E+04  3.01871E+04  2.61135E+03  2.29765E+04  1.86858E+04  4.18996E+03  3.45818E+04
 -1.72816E+04  2.94763E+04 -2.73731E+04  9.70581E+03 -2.05264E+04 -1.11134E+04 -3.73859E+03 -1.37900E+04
  2.31548E+03 -3.14808E+03 -3.72232E+03  5.91279E+03 -1.47161E+04  5.01748E+03 -1.50344E+04 -6.50435E+03
 -9.59535E+03 -1.74599E+04  4.46313E+03 -2.14608E+04  1.42539E+04 -1.53311E+04  1.66770E+04 -1.35082E+03
  1.03840E+04  1.17153E+04 -1.11341E+03  1.73384E+04 -1.16936E+04  9.66278E+03 -1.71662E+04 -4.11044E+03
 -1.30140E+04 -1.58678E+04 -1.29828E+03 -2.13619E+04  9.85210E+03 -1.73248E+04  1.78618E+04 -7.89693E+03
  1.64825E+04  2.67501E+02  1.15673E+04  4.04696E+03  5.81979E+03  5.04147E+02  8.74414E+03 -1.92479E+03
  1.52263E+04  2.79690E+03  1.71519E+04  1.36381E+04  1.10692E+04  2.73747E+04 -3.61015E+03  3.01674E+04
 -1.74565E+04  2.39164E+04 -2.82078E+04  1.16734E+04 -2.90907E+04 -2.25731E+03 -2.44442E+04 -1.64764E+04
 -1.12050E+04 -2.41228E+04  8.16868E+03 -2.12159E+04  1.90127E+04 -1.21412E+04  1.69989E+04  4.53384E+03
  5.98500E+03  1.24218E+04 -7.51912E+03  1.07767E+04 -1.48273E+04  2.80113E+03 -1.18164E+04 -8.72652E+03
 -1.25854E+02 -1.35303E+04  7.40992E+03 -1.06200E+04  9.50040E+03 -9.33693E+02  1.48556E+03  5.39167E+03
 -5.74106E+03  2.56425E+03 -4.73141E+03 -5.07172E+03 -2.15808E+02 -1.19525E+04  9.00780E+03 -1.19992E+04
  1.43356E+04 -5.75197E+03  1.44392E+04  2.85725E+03  1.29381E+04  1.06753E+04  6.65334E+03  1.70247E+04
 -2.19929E+03  1.78136E+04 -1.19462E+04  1.21009E+04 -1.33122E+04  3.22276E+03 -9.41741E+03 -2.48736E+03
 -4.27144E+03 -4.32478E+03 -9.09609E+02  1.08954E+03 -2.19060E+03  2.55953E+03 -4.33196E+03  4.11047E+03
 -9.90838E+03 -9.58471E+02 -1.00531E+04 -8.07636E+03 -4.28682E+03 -1.28459E+04  3.65566E+03 -1.02678E+04
  8.03027E+03 -4.36723E+03  6.61454E+03  2.36426E+03  3.83955E+01  3.77285E+03 -3.99350E+03 -1.05116E+02
 -4.63123E+03 -6.01678E+03 -9.70530E+02 -8.90853E+03  4.74142E+03 -9.67513E+03  1.18157E+04 -5.13268E+03
  1.37204E+04  1.00294E+03  1.01363E+04  7.44945E+03  2.27902E+03  1.06486E+04 -5.79131E+03  9.67735E+03
 -8.41439E+03  2.31447E+03 -4.32044E+03 -2.06350E+03  1.80625E+03 -2.56811E+03  5.16176E+03 -1.12273E+03
  4.99873E+03  4.36846E+03  1.64224E+03  7.32651E+03 -5.30234E+03  7.30690E+03 -8.62066E+03  2.04296E+03
 -5.99756E+03 -4.78497E+03  2.99232E+02 -8.13995E+03  4.48125E+03 -4.23412E+03  4.75701E+03  1.58920E+03
  4.68671E+02  4.45304E+03 -4.72510E+03  5.86683E+03 -6.75131E+03  2.93544E+03 -5.72084E+03 -1.94532E+03
 -3.94968E+03 -7.98721E+03  1.44676E+03 -8.92823E+03  6.67433E+03 -5.45958E+03  8.07685E+03  1.48471E+03
  5.26073E+03  6.52589E+03  4.11431E+02  8.30181E+03 -6.28821E+03  4.70362E+03 -6.38752E+03 -2.92538E+02
 -6.24686E+03 -5.77798E+03 -1.34569E+03 -5.87307E+03  3.33441E+03 -4.96769E+03  3.39868E+03 -2.91827E+03
  3.57513E+03  7.44547E+02 -6.79848E+02  1.14889E+03  3.63144E+02 -7.86304E+02  1.13119E+02 -2.54788E+03
  5.19454E+03 -1.46401E+03  6.98956E+03  1.01837E+03  7.09325E+03  4.15413E+03  6.23107E+03  9.18428E+03
 -1.95893E+03  1.03185E+04 -9.30637E+03  7.91628E+03 -1.23812E+04  1.21026E+03 -9.77034E+03 -2.87801E+03
 -4.91952E+03 -7.95153E+03 -6.28994E+02 -6.40391E+03  2.35798E+03 -2.85587E+03  2.25159E+03 -2.91592E+03
  1.82108E+03 -1.31307E+03  2.77803E+03 -2.04424E+03  3.65330E+03 -1.74664E+03  4.51155E+03 -3.72153E+02
  5.80778E+03  1.31236E+03  1.77881E+03  4.26670E+03 -1.75974E+03  3.80377E+03 -4.98443E+03  3.40237E+03
 -6.36038E+03 -9.59767E+02 -3.22462E+03 -4.48391E+03 -1.54448E+02 -6.27566E+03  3.80029E+03 -6.81324E+03
  6.46893E+03 -4.63363E+03  8.38527E+03  1.47017E+02  6.15707E+03  5.41257E+03  1.38460E+03  7.13155E+03
 -3.22715E+03  6.58014E+03 -3.25864E+03  2.33308E+03 -2.99483E+03 -1.34102E+03 -7.79541E+02 -5.47215E+02
 -8.20427E+02  3.05388E+02 -1.11325E+03  2.44083E+03 -2.66267E+03  1.20457E+03 -5.23517E+03 -1.91490E+02
 -2.64169E+03 -4.68725E+03  6.95449E+02 -5.93592E+03  3.72824E+03 -5.58963E+03  4.86482E+03 -1.82931E+03
  5.27525E+03  3.19113E+03  2.01444E+03  4.35133E+03 -1.53283E+03  5.68010E+03 -3.68242E+03  3.00590E+03
 -5.22340E+03  5.27524E+02 -4.03980E+03 -3.36751E+03 -1.26780E+02 -4.25621E+03  1.44729E+03 -2.94399E+03
  3.28594E+03 -1.37047E+03  1.75060E+03  9.72433E+02  4.22863E+02  1.83023E+03  7.16791E+02  4.57408E+02
  1.11730E+03  4.23052E+02  1.47155E+03  1.36840E+03  1.44340E+03  2.95578E+03  1.69021E+03  1.89008E+03
 -1.97898E+03  4.50151E+03 -3.20594E+03  4.87324E+03 -4.51584E+03  1.28535E+03 -4.66900E+03 -9.83527E+02
 -2.13037E+03 -4.58848E+03  5.29498E+02 -6.14811E+03  2.54911E+03 -3.58334E+03  4.33827E+03 -1.12779E+03
  3.29842E+03  2.03165E+03  3.69681E+02  2.30761E+03 -5.76327E+02  1.42292E+03 -1.32275E+03 -4.20464E+02
 -1.03177E+03 -2.38387E+03  1.37760E+03 -1.88021E+03  2.09817E+03 -7.48184E+02  2.00414E+03  2.35956E+02
  9.92559E+02  4.28322E+02  1.14220E+03 -1.77524E+02 -9.97434E+02  1.15696E+03  1.45127E+03 -2.00572E+02
  9.49691E+01 -8.47927E+00  2.27755E+03  1.25067E+03  5.09100E+02  2.92598E+03 -3.37245E+02  3.52728E+03
 -1.94333E+03  1.23155E+03 -3.41538E+03  1.69519E+02 -2.18482E+03 -1.03305E+03 -3.36242E+02 -1.19825E+03
  1.89171E+02 -1.79134E+03  5.19796E+02 -8.70490E+02  1.09706E+03  1.46406E+03 -2.58331E+02  1.89047E+03
 -1.53175E+03  1.01600E+03 -2.22765E+03 -1.62686E+03 -6.17705E+02 -2.80555E+03  5.35529E+02 -2.22315E+03
  4.40747E+02 -6.80596E+02  1.27121E+03  1.88415E+02  1.26983E+03 -1.05345E+02  7.71407E+02  1.35247E+03
 -5.77247E+02  3.05150E+02 -7.95550E+02 -2.84574E+02  9.41988E+02 -1.27854E+03  1.63049E+03 -1.26324E+03
  1.97806E+03  3.92336E+01  3.76355E+03  1.71715E+03  1.64198E+03  2.35312E+03 -7.47594E+02  2.01690E+03
 -2.22755E+03  1.98712E+02 -2.32882E+03 -1.14587E+00 -1.17425E+03 -1.81421E+03  3.61001E+02 -7.10604E+02
  2.22753E+03 -8.50297E+02  1.16464E+03  1.57907E+03  1.61493E+02  9.69469E+02  5.57208E+02  1.39661E+03
 -7.69964E+02  1.15848E+03 -6.15593E+02  6.95189E+01  2.97570E+02 -7.09235E+01 -1.05483E+03  4.22376E+02
 -9.69547E+02  1.02810E+03 -1.88663E+03  9.03755E+02 -2.04442E+03  3.48981E+01 -2.72274E+03 -1.56978E+03
 -1.63188E+03 -3.58769E+03  1.04722E+03 -3.75553E+03  1.71059E+03 -3.19335E+03  3.70746E+03 -1.30374E+03
  3.27582E+03  1.33614E+02  1.57988E+03  2.02046E+03 -4.70388E+02  1.52837E+03 -6.55626E+02  1.84830E+03
 -1.53056E+03  4.12770E+02 -5.14557E+02 -6.26296E+02 -3.39145E+02 -2.30676E+02 -3.96888E+02  2.73655E+01
 -1.03049E+03  1.74266E+02 -4.46258E+02 -2.02718E+02  2.34908E+02 -1.23270E+03 -3.56989E+02 -1.49946E+03
  1.87351E+03 -7.59768E+02  5.66965E+02  2.89226E+02  1.79676E+03  1.17014E+03  4.36704E+01  1.60022E+03
 -8.75741E+02  3.06670E+03 -2.42894E+03  1.75216E+03 -2.38011E+03 -4.03630E+02 -1.58953E+03 -1.82842E+03
 -8.56626E+02 -1.94009E+03  2.90409E+02 -1.62659E+03  1.07519E+03 -8.85270E+02  1.04853E+03 -5.80301E+01
  9.37193E+02  4.25116E+02  5.46454E+02  1.28178E+02  1.35572E+02 -2.58233E+02 -4.21678E+02 -2.80324E+02
  5.56906E+02  1.96105E+02  2.86365E+02  2.38801E+02  1.99636E+02  4.45682E+02  9.23485E+01  2.55731E+02
 -1.21557E+03  8.13065E+02 -9.38275E+01  8.14800E+01 -9.98634E+02 -8.30360E+02  2.25111E+01 -1.95972E+03
  5.81644E+02 -9.12969E+02  3.95546E+02 -1.93341E+02  1.53969E+03 -3.98017E+02  1.22288E+03  1.54064E+03
 -6.82414E+00  7.39322E+02 -9.35955E+02  7.05266E+02 -5.81759E+02  1.48145E+03 -1.34896E+03  1.05860E+02
  9.15224E+01 -2.86253E+01 -1.01780E+03  1.13517E+02 -8.76016E+02  3.26853E+02 -1.10075E+03 -6.09100E+02
 -1.68144E+03  4.47624E+02 -9.47196E+02 -1.09657E+03  1.03985E+03 -2.36024E+03  9.06796E+02 -4.45087E+02
  1.26978E+03 -8.77189E+01 -1.54430E+02  5.67632E+02 -1.67969E+02  1.52970E+03 -7.13077E+02  8.64918E+02
