 $NMID ID='MM_0lb_SNR400_13hz_g40_16.RAW', FMTDAT='(8E13.5)'
 TRAMP=1., VOLUME=1. $END
  3.09936E+05 -2.61939E+02  3.37049E+05  2.50236E+05  8.44888E+04  3.37553E+05 -1.32985E+05  2.50612E+05
 -1.90207E+05  8.30818E+04 -1.11377E+05 -3.26767E+04  1.32342E+03 -5.09724E+04  5.35803E+04 -3.15574E+02
  3.59434E+04  5.28644E+04 -1.65573E+04  7.52029E+04 -6.07007E+04  6.31450E+04 -8.41532E+04  3.17319E+04
 -8.09260E+04 -1.12270E+04 -5.62510E+04 -5.10645E+04 -1.40842E+04 -7.02616E+04  2.74861E+04 -4.56894E+04
  4.02650E+04  3.82016E+03  1.61278E+04  4.74464E+04 -3.42654E+04  4.75072E+04 -6.64393E+04 -1.56364E+02
 -5.33837E+04 -5.62295E+04 -7.04381E+03 -7.67490E+04  3.39995E+04 -5.44584E+04  4.75030E+04 -1.69467E+04
  4.36036E+04  1.12554E+04  3.19675E+04  2.51042E+04  1.61591E+04  2.92789E+04 -4.71436E+03  2.71733E+04
 -2.17852E+04  1.27902E+04 -1.87331E+04 -5.32641E+03  4.71738E+03 -7.16382E+03  2.20150E+04  1.20374E+04
  6.83504E+03  3.48495E+04 -3.23899E+04  3.55427E+04 -6.28828E+04  1.92536E+03 -5.67031E+04 -4.31436E+04
 -1.24581E+04 -6.31138E+04  4.03007E+04 -4.53907E+04  5.84896E+04 -1.84020E+03  3.38370E+04  3.21530E+04
 -6.05988E+03  3.61519E+04 -2.95887E+04  1.57074E+04 -3.01289E+04 -4.63334E+03 -1.63136E+04 -1.04281E+04
 -8.57298E+03 -1.31164E+04 -8.57909E+02 -1.80822E+04  7.57820E+03 -2.24465E+04  1.50116E+04 -1.27397E+04
  1.17513E+04  4.53732E+03 -8.01938E+03  1.31198E+04 -2.11908E+04 -4.57749E+03 -8.31954E+03 -3.43179E+04
  2.31405E+04 -4.37159E+04  4.86689E+04 -1.91529E+04  4.49860E+04  1.96581E+04  1.55502E+04  4.42989E+04
 -1.51680E+04  3.30192E+04 -2.55410E+04  1.58994E+03 -9.97700E+03 -2.74099E+04  2.10347E+04 -3.38473E+04
  4.09660E+04 -9.08799E+03  3.55286E+04  2.43619E+04  1.86295E+04  4.66966E+04 -7.88877E+03  4.99003E+04
 -3.17603E+04  3.37923E+04 -4.19497E+04  9.41924E+03 -4.31733E+04 -1.62159E+04 -2.33615E+04 -3.84474E+04
  6.84706E+03 -3.74485E+04  3.12305E+04 -1.40614E+04  2.90317E+04  1.07416E+04  3.33111E+03  1.93180E+04
 -1.36581E+04  8.04366E+03 -1.05281E+04 -7.94367E+03  5.64319E+03 -1.02377E+04  1.88995E+04  6.53674E+03
  1.34349E+04  2.24625E+04 -6.28460E+03  2.55539E+04 -2.30444E+04  1.15814E+04 -2.79467E+04 -4.93600E+03
 -2.06549E+04 -1.66667E+04 -9.17433E+03 -2.00790E+04  3.88604E+03 -1.96848E+04  1.52783E+04 -1.82058E+04
  2.57751E+04 -1.21396E+04  3.21949E+04  2.45523E+03  2.37504E+04  2.02045E+04  4.29506E+03  3.65648E+04
 -1.75693E+04  3.08231E+04 -2.75757E+04  1.05159E+04 -2.07497E+04 -9.93908E+03 -4.45945E+03 -1.29617E+04
  1.65659E+03 -2.60726E+03 -4.94406E+03  6.66901E+03 -1.62096E+04  4.90191E+03 -1.70447E+04 -6.90206E+03
 -1.05825E+04 -1.85339E+04  5.37845E+03 -2.31594E+04  1.52536E+04 -1.70072E+04  1.80985E+04 -2.59558E+03
  1.15006E+04  1.29826E+04 -6.35291E+02  1.91613E+04 -1.28511E+04  1.09932E+04 -1.89729E+04 -4.38020E+03
 -1.35506E+04 -1.79607E+04 -1.67301E+03 -2.32777E+04  1.01838E+04 -1.87623E+04  1.97849E+04 -9.67216E+03
  1.76866E+04 -2.28238E+02  1.25660E+04  4.41202E+03  6.59512E+03  1.19386E+03  9.59440E+03 -1.32970E+03
  1.79010E+04  2.21811E+03  1.95902E+04  1.48842E+04  1.26103E+04  3.09504E+04 -2.81904E+03  3.43858E+04
 -1.96670E+04  2.76355E+04 -3.24801E+04  1.39207E+04 -3.36135E+04 -3.10378E+03 -2.76641E+04 -1.94843E+04
 -1.10738E+04 -2.77108E+04  9.45227E+03 -2.55803E+04  2.13060E+04 -1.29370E+04  1.93658E+04  5.40463E+03
  7.19818E+03  1.39696E+04 -8.94342E+03  1.24863E+04 -1.64330E+04  2.79368E+03 -1.24009E+04 -1.01478E+04
 -1.42943E+02 -1.53964E+04  7.78177E+03 -1.18084E+04  1.06438E+04 -1.35104E+03  2.19863E+03  6.98329E+03
 -6.52695E+03  2.73445E+03 -5.91580E+03 -6.11365E+03 -5.80866E+02 -1.34964E+04  9.53629E+03 -1.42150E+04
  1.67334E+04 -7.34118E+03  1.82562E+04  2.98938E+03  1.57037E+04  1.34537E+04  8.26737E+03  2.10886E+04
 -3.23078E+03  2.31306E+04 -1.39647E+04  1.36698E+04 -1.60618E+04  3.06751E+03 -1.11209E+04 -4.10042E+03
 -5.11527E+03 -5.47549E+03 -9.80060E+02  9.09634E+02 -2.70702E+03  2.66753E+03 -4.99471E+03  3.92667E+03
 -1.06639E+04 -6.75922E+02 -1.14541E+04 -9.07667E+03 -4.92552E+03 -1.51775E+04  4.58442E+03 -1.17538E+04
  9.01997E+03 -4.40070E+03  6.92696E+03  2.89857E+03  6.86900E+02  5.06855E+03 -5.57134E+03 -2.89692E+02
 -5.58510E+03 -7.59314E+03 -1.12562E+03 -1.10999E+04  6.11431E+03 -1.17709E+04  1.52299E+04 -6.28364E+03
  1.67661E+04  1.97264E+03  1.27236E+04  9.35702E+03  2.18085E+03  1.29998E+04 -6.98206E+03  1.07269E+04
 -9.67668E+03  4.00765E+03 -4.57354E+03 -2.14819E+03  8.32709E+02 -3.02417E+03  6.46899E+03 -1.17947E+03
  5.03287E+03  4.82574E+03  1.84323E+03  9.32950E+03 -6.49493E+03  8.53902E+03 -1.08096E+04  2.11877E+03
 -8.09087E+03 -5.90835E+03 -5.10235E+01 -9.11925E+03  5.99107E+03 -5.28278E+03  6.48156E+03  1.97095E+03
  1.54866E+03  5.96898E+03 -5.82899E+03  7.47157E+03 -8.39828E+03  3.97388E+03 -8.83099E+03 -2.22381E+03
 -5.11946E+03 -1.02080E+04  2.91209E+03 -1.15385E+04  9.96601E+03 -6.87260E+03  1.10021E+04  1.62951E+03
  6.87481E+03  8.58209E+03 -8.78840E+02  1.06685E+04 -7.97792E+03  6.01973E+03 -8.37896E+03 -7.78771E+02
 -7.68208E+03 -7.47825E+03 -1.76592E+03 -8.29954E+03  4.05516E+03 -6.93389E+03  5.08134E+03 -3.53388E+03
  3.12565E+03  5.83912E+02 -4.40204E+02  1.38926E+03 -2.73853E+02 -1.74612E+03  1.06964E+03 -4.32716E+03
  6.81192E+03 -3.13312E+03  1.02095E+04  1.54615E+03  9.32931E+03  6.22819E+03  7.25352E+03  1.32517E+04
 -2.88593E+03  1.45776E+04 -1.24397E+04  1.07737E+04 -1.69543E+04  2.27949E+03 -1.34192E+04 -5.39914E+03
 -6.94030E+03 -1.04086E+04 -5.23411E+02 -8.99169E+03  3.30476E+03 -4.86014E+03  2.89392E+03 -3.33027E+03
  2.20061E+03 -2.51122E+03  2.80889E+03 -3.19974E+03  4.55561E+03 -2.33850E+03  5.10787E+03 -4.08074E+02
  6.88503E+03  1.30720E+03  3.04568E+03  5.67838E+03 -1.98977E+03  6.60480E+03 -7.34515E+03  5.46836E+03
 -8.79058E+03 -1.31189E+03 -4.87758E+03 -6.31509E+03  3.06843E+01 -9.20369E+03  5.59715E+03 -9.35340E+03
  1.00795E+04 -5.53091E+03  1.20899E+04  1.39588E+03  8.02075E+03  8.37052E+03  1.29290E+03  1.06165E+04
 -4.01930E+03  8.91868E+03 -6.78929E+03  3.81595E+03 -4.01352E+03 -6.36099E+02 -1.14594E+03 -7.47281E+02
 -9.46355E+02  4.11334E+02 -1.25373E+03  2.45812E+03 -4.09370E+03  1.56210E+03 -6.53089E+03 -7.35233E+02
 -4.08997E+03 -6.22380E+03  4.04979E+02 -8.12443E+03  5.89383E+03 -7.38506E+03  7.37413E+03 -2.27148E+03
  8.08954E+03  4.43461E+03  4.28908E+03  7.21334E+03 -2.46513E+03  8.59921E+03 -5.66334E+03  4.48918E+03
 -7.53730E+03  8.86162E+02 -6.36477E+03 -4.88821E+03 -4.33441E+02 -6.96701E+03  3.66784E+03 -5.51909E+03
  5.43538E+03 -2.31057E+03  3.89605E+03  1.16442E+03  1.04423E+03  2.67430E+03  1.52901E+03  1.21106E+03
  2.21539E+03  6.75368E+02  2.11257E+03  1.35279E+03  2.54612E+03  3.78459E+03  2.19808E+03  4.28290E+03
 -1.52392E+03  6.63617E+03 -5.99415E+03  7.02589E+03 -8.13741E+03  2.52402E+03 -8.72984E+03 -3.57013E+03
 -4.68253E+03 -8.31554E+03  1.63425E+03 -9.01051E+03  4.82916E+03 -5.69395E+03  6.56421E+03 -1.60122E+03
  5.65446E+03  3.29705E+03  1.06489E+03  5.17115E+03 -2.41286E+03  2.91540E+03 -2.49481E+03 -6.61790E+02
 -1.60711E+03 -3.86337E+03  2.42424E+03 -3.73475E+03  3.39456E+03 -2.04399E+03  3.62317E+03  6.84942E+02
  1.93009E+03  1.58859E+03  1.04440E+03  7.01071E+02 -1.88290E+02  1.22354E+03  1.47379E+03 -8.17147E+02
  7.91428E+02 -3.73244E+02  3.96796E+03  1.72423E+03  1.47495E+03  4.36809E+03 -3.22612E+02  6.14161E+03
 -4.09873E+03  3.07156E+03 -5.20808E+03  1.37353E+03 -4.55051E+03 -1.80950E+03 -9.17372E+02 -2.89567E+03
  4.93943E+02 -3.67945E+03  1.97252E+03 -1.48192E+03  1.42692E+03  1.80075E+03 -1.66569E+03  2.01933E+03
 -3.63186E+03  1.46459E+03 -3.85858E+03 -2.36150E+03 -1.41902E+03 -4.38349E+03  6.37287E+02 -4.34291E+03
  2.52741E+03 -2.33157E+03  3.17834E+03 -3.47826E+02  2.89088E+03  4.69113E+02  1.09849E+03  2.72315E+03
 -1.29944E+03  8.90391E+01 -2.28587E+03 -1.58534E+03  6.12113E+01 -3.35566E+03  3.50942E+03 -2.47775E+03
  3.95471E+03  7.36600E+02  5.69283E+03  2.84565E+03  1.78413E+03  5.52610E+03 -1.24449E+03  4.86024E+03
 -3.63764E+03  1.45388E+03 -3.44514E+03  1.53366E+02 -2.48541E+03 -3.15313E+03  1.67385E+03 -3.30703E+03
  3.03988E+03 -8.89846E+02  2.67513E+03  1.12726E+03  2.38906E+02  2.87002E+03 -1.95610E+02  2.19001E+03
 -1.83395E+03  1.73659E+03 -1.31492E+03  6.22150E+02 -9.38490E+02  3.56181E+02 -9.28651E+02  1.36027E+03
 -1.60719E+03  2.21692E+03 -3.81404E+03  1.39341E+03 -4.38052E+03 -2.67762E+02 -5.44717E+03 -3.00657E+03
 -2.81778E+03 -6.84402E+03  1.07288E+03 -7.55339E+03  3.98800E+03 -5.57480E+03  6.65497E+03 -2.23291E+03
  6.67941E+03  1.61071E+03  3.96006E+03  4.25787E+03 -2.57463E+02  4.47077E+03 -2.03978E+03  3.04090E+03
 -2.95932E+03  1.86205E+03 -1.70478E+03 -2.83306E+02 -7.55344E+02 -2.21398E+02 -1.05156E+03 -2.80826E+02
 -1.07367E+03  1.49570E+01 -2.04358E+03 -2.10153E+02  4.80583E+02 -1.01568E+03  2.76388E+02 -2.13198E+03
  2.60391E+03 -1.28146E+03  2.65509E+03  3.41120E+02  3.54958E+03  2.27632E+03  8.86153E+02  4.47864E+03
 -2.80731E+03  5.12636E+03 -4.98240E+03  3.94503E+03 -5.32699E+03 -7.01649E+02 -4.16652E+03 -3.51132E+03
 -2.38139E+03 -4.54172E+03  6.81854E+02 -4.66028E+03  3.44913E+03 -2.00123E+03  3.12959E+03  3.42094E+02
  1.32295E+03  1.61931E+03 -5.67941E+02  1.20347E+03 -2.57365E+02 -7.18119E+01  1.09654E+02 -1.06623E+03
  7.34697E+02  1.26640E+02  1.61407E+03  1.57282E+03  4.92109E+02  1.61061E+03  1.46496E+02  1.90488E+03
 -1.86346E+03  2.24359E+03 -2.36750E+03  8.11622E+02 -2.31842E+03 -2.51626E+03  3.57317E+01 -4.03885E+03
  2.09088E+03 -2.90569E+03  2.67161E+03 -8.96915E+01  3.07766E+03  5.37861E+02  2.22424E+03  3.05786E+03
  4.15653E+02  2.56347E+03 -7.25849E+02  1.95947E+03 -1.72271E+03  1.23679E+03 -1.10566E+03 -3.73323E+02
 -2.10460E+02 -2.81274E+02 -1.10922E+03  7.00762E+02 -1.74943E+03 -9.41483E+01 -2.32029E+03 -9.80340E+02
 -2.18717E+03 -1.45549E+03 -1.21057E+03 -3.42996E+03  1.53524E+03 -3.78428E+03  2.47250E+03 -1.00514E+03
  2.24787E+03  7.69095E+01  1.01746E+03  1.76484E+03 -1.47322E+02  2.55460E+03 -1.78310E+03  2.14305E+03
