 $NMID ID='MM_0lb_SNR400_14hz_g45_3.RAW', FMTDAT='(8E13.5)'
 TRAMP=1., VOLUME=1. $END
  3.09668E+05  5.55767E+02  3.37933E+05  2.50738E+05  8.46746E+04  3.37648E+05 -1.32394E+05  2.50485E+05
 -1.90270E+05  8.30147E+04 -1.11642E+05 -3.23691E+04  1.19746E+03 -5.13286E+04  5.38005E+04 -5.50929E+02
  3.52573E+04  5.31632E+04 -1.65490E+04  7.52658E+04 -6.02755E+04  6.35335E+04 -8.40455E+04  3.17142E+04
 -8.16748E+04 -1.11828E+04 -5.69749E+04 -5.14535E+04 -1.47790E+04 -6.92060E+04  2.76591E+04 -4.56606E+04
  3.99483E+04  3.60879E+03  1.62512E+04  4.77375E+04 -3.38392E+04  4.68407E+04 -6.64442E+04 -3.21437E+02
 -5.31552E+04 -5.66077E+04 -7.05260E+03 -7.68131E+04  3.35248E+04 -5.46093E+04  4.75078E+04 -1.77788E+04
  4.31993E+04  1.13169E+04  3.14648E+04  2.56282E+04  1.56493E+04  2.90598E+04 -4.89759E+03  2.75061E+04
 -2.24753E+04  1.25865E+04 -1.91993E+04 -5.10229E+03  5.71981E+03 -7.64080E+03  2.21820E+04  1.18468E+04
  7.02600E+03  3.45327E+04 -3.19763E+04  3.57808E+04 -6.33430E+04  2.34206E+03 -5.66714E+04 -4.30577E+04
 -1.26336E+04 -6.30395E+04  3.94480E+04 -4.54624E+04  5.84708E+04 -2.31638E+03  3.37154E+04  3.28449E+04
 -5.87835E+03  3.63380E+04 -3.03120E+04  1.57267E+04 -3.03892E+04 -4.59216E+03 -1.66248E+04 -1.10116E+04
 -8.46880E+03 -1.25626E+04 -4.70353E+02 -1.78134E+04  7.13657E+03 -2.28284E+04  1.54719E+04 -1.29712E+04
  1.13130E+04  4.89291E+03 -8.40690E+03  1.24309E+04 -2.05323E+04 -4.65909E+03 -7.84117E+03 -3.38335E+04
  2.28510E+04 -4.32972E+04  4.79879E+04 -1.94259E+04  4.43185E+04  1.90453E+04  1.55245E+04  4.39891E+04
 -1.65187E+04  3.32566E+04 -2.52635E+04  1.75645E+03 -8.95728E+03 -2.74329E+04  2.09545E+04 -3.32483E+04
  4.10597E+04 -8.10117E+03  3.49961E+04  2.36811E+04  1.78344E+04  4.60659E+04 -8.14808E+03  5.05086E+04
 -3.12386E+04  3.28367E+04 -4.12036E+04  8.89046E+03 -4.18326E+04 -1.60786E+04 -2.29412E+04 -3.66349E+04
  6.94769E+03 -3.70533E+04  3.15420E+04 -1.36449E+04  2.81809E+04  1.04190E+04  3.50391E+03  1.94311E+04
 -1.37023E+04  8.10429E+03 -1.01986E+04 -8.24227E+03  5.74283E+03 -1.10526E+04  1.75184E+04  6.24183E+03
  1.28328E+04  2.22338E+04 -6.05065E+03  2.51133E+04 -2.18923E+04  1.12799E+04 -2.75827E+04 -5.37631E+03
 -2.04448E+04 -1.67804E+04 -8.12751E+03 -2.02416E+04  3.97926E+03 -1.92718E+04  1.54095E+04 -1.79531E+04
  2.54204E+04 -1.30673E+04  3.18014E+04  2.33861E+03  2.42584E+04  1.97742E+04  4.06271E+03  3.58937E+04
 -1.78113E+04  3.03342E+04 -2.78670E+04  9.90759E+03 -2.02184E+04 -1.06784E+04 -4.23627E+03 -1.38193E+04
  2.04080E+03 -3.17548E+03 -4.17175E+03  6.53251E+03 -1.51522E+04  4.55997E+03 -1.61941E+04 -6.80096E+03
 -9.45358E+03 -1.78396E+04  4.83196E+03 -2.33541E+04  1.50392E+04 -1.62866E+04  1.77351E+04 -1.75742E+03
  1.14111E+04  1.34267E+04 -9.57746E+02  1.84956E+04 -1.27956E+04  1.06924E+04 -1.92429E+04 -4.24769E+03
 -1.38042E+04 -1.67651E+04 -1.86937E+03 -2.23934E+04  1.00280E+04 -1.77417E+04  1.92424E+04 -9.30448E+03
  1.83205E+04 -2.07411E+01  1.26876E+04  4.54718E+03  6.41618E+03  2.53496E+02  9.71938E+03 -1.43699E+03
  1.71179E+04  2.55962E+03  1.91069E+04  1.55133E+04  1.23818E+04  2.96284E+04 -2.85807E+03  3.40035E+04
 -1.96194E+04  2.67509E+04 -3.16496E+04  1.31403E+04 -3.30728E+04 -2.77891E+03 -2.78374E+04 -1.86307E+04
 -1.14932E+04 -2.67171E+04  1.01354E+04 -2.42288E+04  2.12483E+04 -1.24897E+04  1.88982E+04  5.87249E+03
  7.20355E+03  1.44621E+04 -8.81230E+03  1.29640E+04 -1.58759E+04  2.79244E+03 -1.20039E+04 -9.70216E+03
  2.69283E+01 -1.52442E+04  7.42481E+03 -1.07373E+04  1.02162E+04 -1.07962E+03  2.38748E+03  6.28405E+03
 -6.58975E+03  2.65043E+03 -5.87386E+03 -5.67673E+03  5.28024E+01 -1.30570E+04  9.32173E+03 -1.32805E+04
  1.61158E+04 -7.47642E+03  1.74147E+04  2.98108E+03  1.51255E+04  1.34568E+04  7.17848E+03  1.98461E+04
 -3.46470E+03  2.12767E+04 -1.38193E+04  1.30891E+04 -1.49802E+04  3.32204E+03 -1.12474E+04 -3.45014E+03
 -4.95874E+03 -4.54088E+03 -4.56195E+02  1.22402E+03 -2.77055E+03  2.17700E+03 -4.49367E+03  3.59021E+03
 -1.02808E+04 -8.41477E+02 -1.11853E+04 -9.27283E+03 -3.76086E+03 -1.47973E+04  4.91063E+03 -1.12425E+04
  9.24570E+03 -5.16169E+03  6.74252E+03  3.15440E+03  6.39677E+02  4.09827E+03 -4.56500E+03 -3.15757E+02
 -4.20159E+03 -6.95167E+03 -4.40731E+02 -1.09303E+04  6.29266E+03 -1.03771E+04  1.37385E+04 -5.28644E+03
  1.58323E+04  8.47991E+02  1.17784E+04  9.50262E+03  2.70283E+03  1.28136E+04 -6.60759E+03  1.09457E+04
 -9.01192E+03  3.66973E+03 -4.49482E+03 -2.27142E+03  1.53881E+03 -2.29424E+03  5.84839E+03 -1.23957E+03
  5.57180E+03  4.69775E+03  1.60674E+03  8.67135E+03 -6.13270E+03  8.37708E+03 -1.12735E+04  2.62233E+03
 -6.97847E+03 -5.57740E+03  6.24999E+02 -9.33806E+03  5.27225E+03 -4.75825E+03  5.43218E+03  2.44271E+03
  1.27991E+03  6.11359E+03 -5.86275E+03  7.11833E+03 -7.56956E+03  2.75275E+03 -7.91719E+03 -2.65698E+03
 -4.38984E+03 -9.28004E+03  2.72205E+03 -1.12609E+04  8.79225E+03 -7.12164E+03  9.68079E+03  1.63462E+03
  6.63499E+03  7.93688E+03 -7.39158E+02  1.06703E+04 -7.16317E+03  5.85155E+03 -7.69939E+03 -3.77158E+02
 -6.92529E+03 -7.17079E+03 -1.70621E+03 -7.71015E+03  4.17775E+03 -6.68264E+03  4.87778E+03 -3.51383E+03
  3.58609E+03  6.02390E+02 -1.90242E+02  1.43922E+03  4.00149E+01 -1.29970E+03  1.63548E+03 -3.51862E+03
  6.80537E+03 -3.00849E+03  9.26790E+03  1.10535E+03  8.87187E+03  5.65668E+03  6.84113E+03  1.17771E+04
 -2.25137E+03  1.30338E+04 -1.26173E+04  1.03134E+04 -1.53855E+04  2.22526E+03 -1.20764E+04 -4.80101E+03
 -5.87521E+03 -9.63069E+03 -4.38013E+01 -7.83913E+03  3.44300E+03 -4.47263E+03  2.88613E+03 -2.37135E+03
  2.34481E+03 -1.69233E+03  2.79793E+03 -2.69288E+03  4.34497E+03 -2.02676E+03  4.97148E+03 -7.96751E+02
  6.76413E+03  1.54341E+03  3.14933E+03  5.97600E+03 -1.20124E+03  5.41617E+03 -7.64378E+03  4.80170E+03
 -7.57329E+03 -1.31136E+03 -4.14518E+03 -5.54022E+03 -4.12287E+02 -8.91405E+03  5.01589E+03 -8.23807E+03
  8.51186E+03 -4.94936E+03  1.07704E+04  7.08120E+02  8.07253E+03  7.07871E+03  1.75772E+03  9.51629E+03
 -3.90699E+03  8.59843E+03 -5.30494E+03  2.81828E+03 -3.19088E+03 -1.14424E+03 -1.56073E+03 -7.56957E+02
 -1.18194E+03  4.67814E+01 -1.30695E+03  2.27684E+03 -3.84115E+03  1.76240E+03 -6.47253E+03 -6.42965E+02
 -3.55679E+03 -6.14408E+03  6.07925E+02 -8.18467E+03  4.88776E+03 -6.90233E+03  7.53237E+03 -1.77721E+03
  7.76728E+03  3.85951E+03  2.86883E+03  6.79157E+03 -1.37195E+03  7.81257E+03 -4.94898E+03  5.24619E+03
 -7.29393E+03  1.15666E+02 -5.95454E+03 -4.74587E+03  4.29183E+02 -6.55406E+03  3.69090E+03 -4.29782E+03
  4.45682E+03 -2.15833E+03  3.71265E+03  9.33695E+02  4.67924E+02  2.32321E+03  7.62819E+02  9.79526E+02
  1.77704E+03  6.09723E+02  1.77974E+03  1.38938E+03  2.32905E+03  3.31835E+03  2.52152E+03  4.03021E+03
 -2.23172E+03  5.65100E+03 -4.67477E+03  6.44161E+03 -7.25118E+03  9.48375E+02 -7.88435E+03 -2.44883E+03
 -4.07052E+03 -7.69028E+03  1.18845E+03 -9.06828E+03  3.64793E+03 -4.59277E+03  6.45732E+03 -1.23806E+03
  4.72580E+03  2.84648E+03  1.29231E+03  4.38706E+03 -2.18454E+03  2.47828E+03 -2.20079E+03  1.58153E+02
 -1.61138E+03 -2.62341E+03  1.69463E+03 -2.64360E+03  2.89226E+03 -2.18714E+03  2.57898E+03  5.91345E+02
  1.87178E+03  1.34117E+03  3.14454E+02  1.37214E+03 -3.11551E+02  1.61396E+03  9.95791E+02 -1.38596E+02
  5.92515E+02 -6.69314E+02  2.54829E+03  9.30192E+02  1.26820E+03  4.29044E+03 -1.61513E+02  5.55068E+03
 -3.56268E+03  2.69179E+03 -4.22206E+03  1.46157E+03 -4.09425E+03 -9.76027E+02 -1.67574E+03 -2.68975E+03
  8.05075E+01 -2.94782E+03  1.74635E+03 -1.42098E+03  1.54196E+03  1.83602E+03 -9.78794E+02  2.04900E+03
 -2.89214E+03  1.47138E+03 -2.59011E+03 -1.81845E+03 -1.62563E+03 -3.96544E+03  7.56735E+02 -3.64090E+03
  2.03154E+03 -2.13364E+03  2.40465E+03  3.69879E+02  2.36752E+03  3.03792E+02  5.77765E+01  2.63270E+03
 -1.56097E+03  4.95554E+02 -1.30427E+03 -9.52774E+02  3.86050E+02 -2.73297E+03  4.04407E+03 -1.49346E+03
  3.38565E+03  4.38539E+02  5.03168E+03  2.59717E+03  1.57024E+03  4.80263E+03 -1.04962E+03  4.13501E+03
 -3.81410E+03  1.30310E+03 -3.35218E+03 -1.69580E+02 -1.94669E+03 -2.42876E+03  7.14838E+02 -1.51158E+03
  2.25263E+03 -6.37258E+02  2.31697E+03  1.64340E+03  7.05880E+02  2.45375E+03 -3.99551E+02  1.83030E+03
 -8.28834E+02  1.61278E+03 -1.06184E+03 -4.17336E+01 -5.16669E+02  2.14535E+02 -8.36946E+02  8.67744E+02
 -1.24331E+03  2.19464E+03 -3.59249E+03  1.13726E+03 -4.23260E+03 -4.92662E+01 -4.36963E+03 -2.51225E+03
 -2.15726E+03 -4.77058E+03  1.14197E+03 -6.44884E+03  3.94587E+03 -5.20320E+03  5.94661E+03 -1.74521E+03
  5.20088E+03  7.03950E+02  3.54785E+03  3.60871E+03  1.86891E+00  3.86862E+03 -1.56024E+03  3.89770E+03
 -2.75499E+03  1.07142E+03 -1.01925E+03 -4.92776E+02 -1.15546E+03 -3.19463E+02 -8.78536E+02  4.74378E+01
 -8.45514E+02  2.26833E+02 -1.39560E+03  2.78930E+02 -2.91929E+02 -1.37890E+03  1.07129E+02 -1.35715E+03
  1.73768E+03 -1.39747E+03  2.62865E+03  1.47024E+02  2.47634E+03  1.69889E+03  7.15816E+02  3.44965E+03
 -2.06452E+03  4.61812E+03 -3.94038E+03  2.57303E+03 -4.55247E+03 -1.06201E+03 -2.99165E+03 -2.56755E+03
 -1.33208E+03 -3.85620E+03  9.78777E+02 -3.12646E+03  2.45872E+03 -1.90385E+03  2.37126E+03  3.48393E+02
  1.79591E+03  1.22247E+03  3.69108E+02  9.96031E+02 -1.03069E+03  2.52297E+01 -5.38550E+02 -1.20954E+03
  1.32998E+03 -8.21206E+02  1.22302E+03  4.35937E+02  1.18369E+03  1.53661E+03  5.34179E+02  1.88686E+03
 -1.49919E+03  1.31219E+03 -2.25770E+03  3.98615E+02 -2.44859E+03 -2.15366E+03  1.26254E+02 -2.82856E+03
  1.57915E+03 -1.72913E+03  2.95977E+03 -3.16257E+02  3.27076E+03 -2.61203E+02  1.63207E+03  2.49480E+03
  7.58649E+02  2.38368E+03 -3.40083E+02  2.25872E+03 -2.09217E+03  1.10749E+03 -1.68608E+03  4.17298E+02
 -9.00198E+02 -1.01059E+03 -5.58673E+02  6.34689E+02 -9.41647E+02 -1.19308E+02 -1.82466E+03 -4.72296E+02
 -1.93668E+03 -9.69327E+02 -1.03625E+03 -2.31628E+03  1.46316E+03 -3.17176E+03  2.24297E+03 -1.25856E+03
  2.16293E+03  1.03320E+02  6.42402E+02  1.40434E+03 -5.19482E+02  2.86721E+03 -1.09621E+03  1.78567E+03
