 $NMID ID='MM_0lb_SNR400_9hz_g50_67.RAW', FMTDAT='(8E13.5)'
 TRAMP=1., VOLUME=1. $END
  3.09546E+05 -1.29222E+02  3.38692E+05  2.51806E+05  8.51982E+04  3.39145E+05 -1.32309E+05  2.51666E+05
 -1.90655E+05  8.39629E+04 -1.12657E+05 -3.20883E+04 -7.11945E+02 -5.00977E+04  5.43474E+04  1.23625E+02
  3.52806E+04  5.29209E+04 -1.72287E+04  7.68934E+04 -6.22912E+04  6.44495E+04 -8.55736E+04  3.27214E+04
 -8.18324E+04 -1.22523E+04 -5.86575E+04 -5.19976E+04 -1.51622E+04 -7.10349E+04  2.81732E+04 -4.64634E+04
  4.10448E+04  4.35031E+03  1.67794E+04  4.83884E+04 -3.45833E+04  4.81698E+04 -6.88206E+04  1.74022E+01
 -5.53854E+04 -5.81905E+04 -7.44997E+03 -7.91280E+04  3.39268E+04 -5.63775E+04  5.00342E+04 -1.80405E+04
  4.52819E+04  1.09553E+04  3.32402E+04  2.70139E+04  1.61687E+04  2.98395E+04 -5.95420E+03  2.85628E+04
 -2.28127E+04  1.15872E+04 -1.81735E+04 -6.45577E+03  6.33668E+03 -7.06381E+03  2.32875E+04  1.42659E+04
  6.86389E+03  3.72735E+04 -3.44268E+04  3.73370E+04 -6.61123E+04  2.67460E+03 -5.87123E+04 -4.43065E+04
 -1.28776E+04 -6.61418E+04  4.12158E+04 -4.68154E+04  6.16769E+04 -2.93204E+03  3.62191E+04  3.40075E+04
 -5.46648E+03  3.93979E+04 -3.12804E+04  1.83914E+04 -3.38651E+04 -4.25909E+03 -1.92988E+04 -1.21389E+04
 -9.64156E+03 -1.52841E+04 -4.59205E+02 -2.00137E+04  8.46504E+03 -2.30923E+04  1.67762E+04 -1.29229E+04
  1.09767E+04  6.05066E+03 -1.05373E+04  1.24521E+04 -2.34389E+04 -6.28717E+03 -8.89926E+03 -3.76075E+04
  2.44918E+04 -4.74078E+04  5.17538E+04 -2.07486E+04  4.96535E+04  2.15710E+04  1.74447E+04  4.65673E+04
 -1.67702E+04  3.57545E+04 -2.78612E+04  2.71154E+03 -1.14104E+04 -2.92466E+04  2.17410E+04 -3.57097E+04
  4.47105E+04 -1.13183E+04  4.02633E+04  2.50587E+04  2.16338E+04  5.08695E+04 -9.29853E+03  5.53921E+04
 -3.50472E+04  3.84628E+04 -4.72099E+04  1.02338E+04 -4.75549E+04 -1.89503E+04 -2.65233E+04 -4.20549E+04
  8.01003E+03 -4.22560E+04  3.44526E+04 -1.64221E+04  3.24702E+04  1.13117E+04  6.41067E+03  2.16483E+04
 -1.36075E+04  1.02375E+04 -1.13589E+04 -8.10864E+03  6.51590E+03 -1.18305E+04  1.89848E+04  6.03605E+03
  1.42026E+04  2.29131E+04 -5.42424E+03  2.71820E+04 -2.34018E+04  1.52043E+04 -3.12198E+04 -3.56406E+03
 -2.56707E+04 -1.83371E+04 -1.18482E+04 -2.56325E+04  4.77961E+03 -2.60215E+04  1.98479E+04 -2.39607E+04
  3.17393E+04 -1.43225E+04  3.79039E+04  5.08157E+03  2.72607E+04  2.46331E+04  4.48238E+03  4.10048E+04
 -1.92791E+04  3.39165E+04 -3.10568E+04  1.10220E+04 -2.23444E+04 -9.95899E+03 -4.08017E+03 -1.23123E+04
  1.30894E+03 -1.20432E+03 -7.40145E+03  8.53028E+03 -2.00676E+04  5.14362E+03 -2.02351E+04 -9.68125E+03
 -1.22294E+04 -2.35809E+04  6.11020E+03 -2.83189E+04  1.86825E+04 -1.99014E+04  2.28896E+04 -1.31858E+03
  1.39704E+04  1.60080E+04 -1.13159E+03  2.27133E+04 -1.70763E+04  1.29328E+04 -2.27935E+04 -4.61810E+03
 -1.77867E+04 -2.12419E+04 -1.18043E+03 -2.71860E+04  1.28589E+04 -2.30829E+04  2.32662E+04 -1.20930E+04
  2.21567E+04 -2.84477E+02  1.62259E+04  5.67646E+03  8.49534E+03  8.98666E+02  1.26608E+04 -1.72826E+03
  2.20591E+04  3.42471E+03  2.57016E+04  1.77407E+04  1.69625E+04  3.78376E+04 -2.82470E+03  4.45195E+04
 -2.51408E+04  3.69429E+04 -4.20493E+04  1.91408E+04 -4.42200E+04 -3.22167E+03 -3.64412E+04 -2.58122E+04
 -1.45353E+04 -3.79339E+04  1.43375E+04 -3.22760E+04  2.75432E+04 -1.53275E+04  2.43236E+04  7.95366E+03
  8.81606E+03  1.88709E+04 -1.07285E+04  1.58850E+04 -1.97863E+04  2.19797E+03 -1.42829E+04 -1.35093E+04
 -5.78205E+02 -1.92641E+04  1.00801E+04 -1.40342E+04  1.35239E+04 -1.67941E+03  3.65495E+03  9.38694E+03
 -8.20688E+03  4.24715E+03 -8.67068E+03 -7.20055E+03 -1.40878E+03 -1.72841E+04  1.23790E+04 -2.03240E+04
  2.28472E+04 -1.14418E+04  2.60346E+04  3.98975E+03  2.36513E+04  1.83021E+04  9.93686E+03  2.93491E+04
 -5.59130E+03  3.02503E+04 -2.00567E+04  1.90071E+04 -2.23435E+04  3.53829E+03 -1.53583E+04 -6.45564E+03
 -6.43379E+03 -6.97265E+03  3.52001E+01  6.97029E+02 -2.99824E+03  3.33290E+03 -8.17778E+03  5.79278E+03
 -1.39904E+04 -5.70789E+02 -1.53934E+04 -1.21027E+04 -6.52636E+03 -1.87077E+04  6.20643E+03 -1.54054E+04
  1.34610E+04 -5.79488E+03  9.08745E+03  4.62524E+03 -5.55522E+02  5.77759E+03 -8.65865E+03 -3.77484E+02
 -7.89929E+03 -1.04638E+04 -1.11556E+03 -1.49615E+04  9.51584E+03 -1.71470E+04  1.95766E+04 -9.13300E+03
  2.36982E+04  1.91790E+03  1.70324E+04  1.37518E+04  3.29075E+03  1.91699E+04 -9.97802E+03  1.53869E+04
 -1.29309E+04  5.09293E+03 -6.63284E+03 -3.48268E+03  2.26427E+03 -4.63824E+03  8.25992E+03 -8.41458E+02
  7.72949E+03  6.34410E+03  9.77178E+02  1.24567E+04 -8.57400E+03  1.18576E+04 -1.52783E+04  3.19586E+03
 -1.03188E+04 -7.94270E+03  7.31166E+01 -1.39424E+04  9.25420E+03 -5.97587E+03  9.39135E+03  3.28506E+03
  2.50146E+03  9.46055E+03 -8.09354E+03  1.09614E+04 -1.33321E+04  5.39603E+03 -1.38648E+04 -3.87218E+03
 -7.72343E+03 -1.57269E+04  3.77881E+03 -1.83815E+04  1.53927E+04 -1.05003E+04  1.71696E+04  3.08174E+03
  1.07046E+04  1.30627E+04 -1.31403E+03  1.59328E+04 -1.21128E+04  8.81228E+03 -1.26865E+04 -1.19857E+03
 -1.14854E+04 -1.00005E+04 -1.85050E+03 -1.22115E+04  7.51996E+03 -9.53776E+03  7.30165E+03 -4.07718E+03
  4.85070E+03  2.05988E+03 -7.51962E+02  2.62095E+03 -9.15873E+02 -3.98666E+03  3.15170E+03 -7.71146E+03
  1.16695E+04 -5.25391E+03  1.57065E+04  2.07806E+03  1.53192E+04  1.09298E+04  1.04622E+04  2.06959E+04
 -5.20623E+03  2.41766E+04 -1.97869E+04  1.79169E+04 -2.58186E+04  3.17685E+03 -2.14108E+04 -8.44345E+03
 -9.60830E+03 -1.72633E+04 -1.08560E+03 -1.46248E+04  5.37175E+03 -8.54709E+03  5.53862E+03 -5.44688E+03
  3.62691E+03 -3.07526E+03  3.80467E+03 -4.20695E+03  6.03176E+03 -3.38917E+03  8.21694E+03 -9.76993E+02
  1.05092E+04  2.19116E+03  6.27003E+03  9.83893E+03 -1.45194E+03  1.10802E+04 -1.12577E+04  8.70309E+03
 -1.43391E+04 -1.74415E+03 -9.79500E+03 -9.80396E+03 -1.79643E+03 -1.62389E+04  8.55687E+03 -1.59642E+04
  1.68382E+04 -8.63492E+03  1.92823E+04  3.15577E+03  1.30244E+04  1.30385E+04  2.14641E+03  1.80375E+04
 -7.16646E+03  1.35025E+04 -1.00089E+04  4.49218E+03 -7.08759E+03 -1.47267E+03 -2.93008E+03 -2.16222E+03
 -2.01494E+03 -3.57630E+02 -3.00499E+03  3.30682E+03 -6.35212E+03  2.83516E+03 -1.02762E+04 -1.57307E+03
 -7.09881E+03 -1.02395E+04  5.39377E+01 -1.44913E+04  8.96315E+03 -1.28603E+04  1.42204E+04 -4.01086E+03
  1.40181E+04  6.67845E+03  6.72570E+03  1.30459E+04 -2.29200E+03  1.47863E+04 -1.02435E+04  1.02183E+04
 -1.40025E+04  7.27464E+02 -1.09895E+04 -8.63559E+03 -7.72529E+02 -1.22544E+04  5.68290E+03 -9.25201E+03
  9.51959E+03 -2.61974E+03  6.62441E+03  2.00407E+03  1.52433E+03  4.50294E+03  1.67226E+03  1.54767E+03
  2.79191E+03  1.23793E+03  3.78395E+03  1.89848E+03  4.72145E+03  5.58767E+03  3.01556E+03  7.90823E+03
 -4.06925E+03  1.15542E+04 -1.00599E+04  1.22374E+04 -1.62424E+04  2.76694E+03 -1.58150E+04 -5.96833E+03
 -7.99227E+03 -1.51777E+04  2.14877E+03 -1.69005E+04  9.69963E+03 -1.08604E+04  1.31049E+04 -2.38217E+03
  1.03924E+04  5.62724E+03  2.45528E+03  9.22532E+03 -4.30136E+03  5.52134E+03 -6.65665E+03 -1.04809E+03
 -2.87470E+03 -5.90664E+03  3.50636E+03 -6.55056E+03  6.30053E+03 -3.06152E+03  6.16426E+03  9.56669E+02
  3.14248E+03  3.00363E+03  1.11775E+03  3.64437E+03 -4.80269E+02  2.36630E+03  7.37600E+02 -5.40815E+02
  2.38279E+03 -1.03468E+03  5.92631E+03  2.56448E+03  2.56854E+03  8.43728E+03 -1.89858E+03  1.04629E+04
 -7.18107E+03  6.93839E+03 -9.49443E+03  2.37259E+03 -8.70652E+03 -2.98164E+03 -3.64011E+03 -5.79419E+03
  1.63310E+03 -5.90946E+03  4.50100E+03 -2.77656E+03  3.76643E+03  4.17897E+03 -1.85679E+03  4.99427E+03
 -6.81375E+03  3.32116E+03 -7.89278E+03 -3.30566E+03 -4.61336E+03 -8.55512E+03  1.93349E+03 -8.08963E+03
  5.08760E+03 -5.03554E+03  6.72452E+03 -7.96136E+02  4.99041E+03  2.00730E+03  4.74680E+02  4.15142E+03
 -3.40478E+03  1.36917E+03 -3.94124E+03 -3.17279E+03  2.74956E+03 -6.10234E+03  6.93338E+03 -5.34303E+03
  9.79462E+03  4.22459E+02  8.87331E+03  7.14782E+03  3.35877E+03  9.53739E+03 -3.78439E+03  9.18405E+03
 -8.75734E+03  4.61748E+03 -7.84741E+03 -1.93152E+03 -4.01105E+03 -6.51578E+03  1.75075E+03 -5.95981E+03
  5.92847E+03 -3.21675E+03  4.44997E+03  2.97547E+03  1.14814E+03  6.02714E+03 -3.56015E+02  4.67537E+03
 -2.37855E+03  2.37584E+03 -2.79994E+03  7.94828E+02 -1.47792E+03  1.54687E+03 -1.24587E+03  2.08495E+03
 -2.54759E+03  3.95846E+03 -6.97633E+03  4.26380E+03 -1.01434E+04 -8.99027E+01 -1.12550E+04 -7.08840E+03
 -5.93636E+03 -1.35347E+04  2.37536E+03 -1.57580E+04  1.01983E+04 -1.26944E+04  1.46293E+04 -5.21568E+03
  1.34539E+04  2.34431E+03  8.89162E+03  9.70098E+03  6.12723E+02  1.03258E+04 -3.42400E+03  7.13790E+03
 -6.01423E+03  3.07264E+03 -3.33070E+03 -1.14821E+03 -2.10340E+03 -9.09236E+02 -1.38828E+03  1.65473E+02
 -1.33754E+03  7.67058E+01 -2.28135E+03  2.41206E+02 -8.51156E+02 -2.88665E+03  2.69427E+01 -4.33755E+03
  4.45724E+03 -3.09821E+03  6.93247E+03 -1.52723E+02  7.94769E+03  5.50351E+03  1.52517E+03  9.89987E+03
 -4.62270E+03  1.12305E+04 -1.12027E+04  7.05580E+03 -1.26197E+04 -5.43251E+02 -1.00941E+04 -7.57884E+03
 -3.41174E+03 -1.02820E+04  3.16282E+03 -1.09023E+04  6.63513E+03 -5.84807E+03  7.14487E+03  5.13728E+02
  4.37458E+03  3.76164E+03 -9.73324E+02  2.78986E+03 -1.95582E+03  5.11944E+01 -1.45060E+02 -2.68441E+03
  3.58667E+03 -1.47154E+03  3.95735E+03  2.24771E+03  3.12636E+03  4.61836E+03  6.87293E+02  5.44827E+03
 -4.86785E+03  4.69797E+03 -7.77460E+03  3.97538E+02 -6.10696E+03 -5.11349E+03 -1.55703E+03 -9.27796E+03
  4.49760E+03 -7.79738E+03  7.47819E+03 -1.64478E+03  8.61932E+03  2.16424E+03  4.97911E+03  6.91379E+03
  9.77157E+02  6.80865E+03 -2.62988E+03  5.80526E+03 -4.27523E+03  2.82923E+03 -3.95222E+03 -9.43199E+01
 -2.00859E+03  8.39304E+02 -2.07883E+03  1.29333E+03 -3.34377E+03  1.29274E+03 -6.04216E+03 -1.00819E+03
 -5.57324E+03 -3.42000E+03 -1.50072E+03 -7.12070E+03  3.35731E+03 -7.32261E+03  6.25859E+03 -3.81436E+03
  6.57386E+03  9.11478E+02  4.60627E+03  4.41356E+03 -1.07155E+03  7.04485E+03 -5.95296E+03  4.65410E+03
