 $NMID ID='MM_0lb_SNR400_14hz_g50_19.RAW', FMTDAT='(8E13.5)'
 TRAMP=1., VOLUME=1. $END
  3.09697E+05  2.31948E+02  3.38296E+05  2.50944E+05  8.43242E+04  3.38102E+05 -1.32301E+05  2.51387E+05
 -1.90669E+05  8.32646E+04 -1.12239E+05 -3.24404E+04  1.31366E+03 -5.04483E+04  5.39502E+04 -2.68243E+02
  3.52069E+04  5.24069E+04 -1.70398E+04  7.59624E+04 -6.10772E+04  6.36944E+04 -8.43621E+04  3.18842E+04
 -8.00286E+04 -1.14485E+04 -5.72668E+04 -5.17826E+04 -1.45014E+04 -7.01704E+04  2.78499E+04 -4.53836E+04
  4.04943E+04  4.08569E+03  1.63885E+04  4.86902E+04 -3.48725E+04  4.75488E+04 -6.72876E+04 -2.54659E+02
 -5.36798E+04 -5.67531E+04 -6.93900E+03 -7.69469E+04  3.40268E+04 -5.56205E+04  4.76927E+04 -1.72414E+04
  4.37499E+04  1.12718E+04  3.20397E+04  2.56859E+04  1.59128E+04  2.96128E+04 -5.20561E+03  2.76041E+04
 -2.19210E+04  1.19078E+04 -1.80595E+04 -5.30857E+03  5.44420E+03 -7.64752E+03  2.22289E+04  1.21363E+04
  6.69226E+03  3.57201E+04 -3.21749E+04  3.57618E+04 -6.44097E+04  2.43491E+03 -5.69805E+04 -4.25782E+04
 -1.26311E+04 -6.34159E+04  3.98412E+04 -4.50502E+04  5.81602E+04 -2.12186E+03  3.41934E+04  3.19870E+04
 -5.91292E+03  3.64624E+04 -3.01379E+04  1.64427E+04 -2.99147E+04 -3.70943E+03 -1.68635E+04 -1.07917E+04
 -7.95306E+03 -1.36460E+04 -4.72210E+02 -1.80795E+04  7.92577E+03 -2.34460E+04  1.54048E+04 -1.29320E+04
  1.09829E+04  5.05812E+03 -9.13488E+03  1.32128E+04 -2.12639E+04 -4.15077E+03 -7.86982E+03 -3.34011E+04
  2.28996E+04 -4.35658E+04  4.82016E+04 -2.00313E+04  4.51440E+04  1.89255E+04  1.58744E+04  4.41993E+04
 -1.65425E+04  3.33570E+04 -2.55735E+04  2.29057E+03 -9.50627E+03 -2.79544E+04  2.09936E+04 -3.39795E+04
  4.19578E+04 -9.03327E+03  3.56446E+04  2.34854E+04  1.84697E+04  4.64627E+04 -8.11328E+03  5.01545E+04
 -3.16111E+04  3.38604E+04 -4.20418E+04  9.45753E+03 -4.32268E+04 -1.67074E+04 -2.36405E+04 -3.85464E+04
  7.88916E+03 -3.78178E+04  3.22309E+04 -1.46006E+04  2.89118E+04  1.09433E+04  4.48218E+03  1.90738E+04
 -1.33740E+04  9.02364E+03 -1.10740E+04 -7.53525E+03  6.55395E+03 -1.03556E+04  1.81530E+04  6.25367E+03
  1.37025E+04  2.20514E+04 -5.96258E+03  2.46761E+04 -2.22795E+04  1.20468E+04 -2.80507E+04 -4.27324E+03
 -2.06549E+04 -1.74091E+04 -8.41949E+03 -2.03814E+04  4.05728E+03 -1.98872E+04  1.55484E+04 -1.83818E+04
  2.52605E+04 -1.24597E+04  3.26452E+04  2.72104E+03  2.38241E+04  2.01128E+04  4.56281E+03  3.66289E+04
 -1.76290E+04  3.01894E+04 -2.77297E+04  1.02650E+04 -2.10384E+04 -1.02854E+04 -4.07065E+03 -1.37357E+04
  1.09937E+03 -2.96832E+03 -4.59913E+03  6.17484E+03 -1.60805E+04  5.32568E+03 -1.67609E+04 -7.37951E+03
 -9.89583E+03 -1.90831E+04  5.38402E+03 -2.30830E+04  1.46036E+04 -1.67053E+04  1.85860E+04 -1.77888E+03
  1.13592E+04  1.29575E+04 -1.73998E+03  1.89809E+04 -1.31870E+04  1.07509E+04 -1.87730E+04 -3.64723E+03
 -1.41177E+04 -1.72669E+04 -2.13505E+03 -2.26799E+04  9.60253E+03 -1.92140E+04  1.84912E+04 -9.30762E+03
  1.78900E+04  2.91728E+01  1.31763E+04  4.21051E+03  6.71889E+03  6.79258E+02  9.55920E+03 -1.32725E+03
  1.74065E+04  2.52819E+03  2.03916E+04  1.54887E+04  1.28596E+04  3.00341E+04 -2.44288E+03  3.42041E+04
 -1.98827E+04  2.76098E+04 -3.22400E+04  1.35104E+04 -3.36087E+04 -2.41059E+03 -2.80243E+04 -1.90442E+04
 -1.16276E+04 -2.71060E+04  9.23513E+03 -2.49937E+04  2.17249E+04 -1.29409E+04  1.95075E+04  5.89337E+03
  7.01927E+03  1.40208E+04 -8.96942E+03  1.21567E+04 -1.62673E+04  2.42966E+03 -1.22030E+04 -1.03673E+04
 -6.81288E+01 -1.61517E+04  8.62331E+03 -1.12667E+04  1.02751E+04 -1.09106E+03  1.85335E+03  6.77741E+03
 -6.88335E+03  2.46074E+03 -5.92405E+03 -5.35992E+03 -7.08260E+02 -1.35899E+04  9.50831E+03 -1.39703E+04
  1.72158E+04 -7.41653E+03  1.84771E+04  2.87123E+03  1.54807E+04  1.30726E+04  7.23179E+03  2.07962E+04
 -3.22098E+03  2.27063E+04 -1.45436E+04  1.37128E+04 -1.67258E+04  2.71468E+03 -1.06471E+04 -3.97167E+03
 -5.92986E+03 -5.07188E+03 -5.61410E+02  3.14495E+02 -2.18213E+03  2.44505E+03 -5.52963E+03  4.37373E+03
 -1.01946E+04 -1.31108E+02 -1.13192E+04 -9.16424E+03 -4.53969E+03 -1.49067E+04  4.46223E+03 -1.11593E+04
  9.63537E+03 -4.96702E+03  7.65112E+03  3.28355E+03  1.45653E+02  4.25332E+03 -4.62657E+03  3.36487E+01
 -5.02290E+03 -7.65041E+03 -1.27043E+03 -1.09863E+04  6.09668E+03 -1.13073E+04  1.40228E+04 -5.51078E+03
  1.68302E+04  1.98291E+03  1.19759E+04  9.84827E+03  2.17828E+03  1.31514E+04 -7.13107E+03  1.11066E+04
 -9.19130E+03  3.06537E+03 -4.62521E+03 -2.55525E+03  1.70946E+03 -3.31535E+03  6.20543E+03 -7.45079E+02
  5.46222E+03  4.61520E+03  1.39898E+03  8.79194E+03 -6.26581E+03  9.07010E+03 -1.10524E+04  2.05751E+03
 -6.79876E+03 -5.49316E+03  4.01614E+02 -8.96877E+03  5.61818E+03 -4.75657E+03  5.31891E+03  2.00917E+03
  6.55325E+02  5.84609E+03 -5.52016E+03  7.38860E+03 -9.01879E+03  3.18507E+03 -7.70706E+03 -2.29361E+03
 -4.71243E+03 -9.72136E+03  2.50197E+03 -1.13849E+04  9.86381E+03 -7.11552E+03  1.03601E+04  1.96316E+03
  6.79970E+03  8.91153E+03 -1.22719E+03  1.04775E+04 -7.60843E+03  6.34804E+03 -8.52411E+03 -2.95295E+01
 -7.61712E+03 -6.73621E+03 -1.72998E+03 -7.59569E+03  3.60604E+03 -6.60774E+03  4.91614E+03 -3.49236E+03
  3.53334E+03  6.12845E+02 -2.50743E+02  2.01824E+03 -5.53798E+02 -2.03560E+03  1.23308E+03 -3.84630E+03
  6.45512E+03 -2.32073E+03  9.78057E+03  9.66815E+02  9.31097E+03  6.11888E+03  7.60018E+03  1.31166E+04
 -2.57843E+03  1.47194E+04 -1.26016E+04  1.04326E+04 -1.62845E+04  1.88599E+03 -1.25933E+04 -4.94447E+03
 -6.45493E+03 -1.01471E+04  3.27845E+02 -8.39375E+03  2.54180E+03 -4.93087E+03  2.96759E+03 -3.41211E+03
  2.89826E+03 -1.89330E+03  2.70458E+03 -3.01044E+03  4.20023E+03 -2.00500E+03  5.54097E+03 -2.77073E+02
  7.37699E+03  1.55235E+03  2.95749E+03  5.37980E+03 -1.99875E+03  6.11974E+03 -6.75509E+03  4.41904E+03
 -8.71161E+03 -1.04098E+03 -4.61042E+03 -5.71209E+03 -6.25558E+02 -9.22624E+03  5.81240E+03 -9.64801E+03
  9.40817E+03 -5.14248E+03  1.13697E+04  8.76157E+02  7.97960E+03  7.97093E+03  1.29796E+03  1.00711E+04
 -4.56580E+03  8.39328E+03 -5.95725E+03  3.13444E+03 -3.35104E+03 -9.33850E+02 -1.27256E+03 -1.41052E+03
 -3.29126E+02  3.51514E+02 -1.59472E+03  2.47985E+03 -3.85521E+03  1.41388E+03 -6.24325E+03 -4.61917E+02
 -3.30545E+03 -5.50991E+03  5.86018E+02 -8.23040E+03  4.62082E+03 -7.53151E+03  8.16003E+03 -1.99440E+03
  7.50640E+03  3.74534E+03  3.77847E+03  6.33768E+03 -1.56713E+03  8.03314E+03 -5.01669E+03  5.13393E+03
 -7.51025E+03  4.56480E+02 -5.48073E+03 -4.41271E+03 -4.44419E+02 -6.44671E+03  3.27596E+03 -4.71096E+03
  5.10044E+03 -1.98131E+03  3.18548E+03  1.05673E+03  1.24058E+03  1.93727E+03  8.51444E+02  1.44682E+03
  1.27182E+03  1.29714E+03  2.25521E+03  1.94226E+03  1.82487E+03  3.27082E+03  2.30164E+03  4.11335E+03
 -1.67320E+03  6.40707E+03 -5.26325E+03  7.15398E+03 -6.64144E+03  1.62799E+03 -8.00107E+03 -2.78547E+03
 -3.44686E+03 -7.74263E+03  1.73671E+03 -8.93436E+03  4.69134E+03 -5.48242E+03  6.06450E+03 -1.64672E+03
  4.87574E+03  3.17558E+03  1.56827E+03  4.24884E+03 -1.55864E+03  2.41857E+03 -2.85136E+03 -3.04700E+01
 -2.09700E+03 -3.13831E+03  1.87040E+03 -3.07837E+03  3.12994E+03 -1.99948E+03  3.12750E+03  2.52522E+02
  1.57274E+03  1.27756E+03  1.82806E+03  1.32915E+03 -8.85983E+02  1.21558E+03  1.96887E+03 -2.93799E+02
  9.38130E+02 -1.17864E+03  3.29657E+03  1.27308E+03  1.08190E+03  4.67171E+03 -1.09189E+03  5.30004E+03
 -3.38929E+03  2.98147E+03 -3.95895E+03  1.27591E+03 -3.95340E+03 -1.56702E+03 -6.49270E+02 -2.93080E+03
  2.97840E+02 -2.72713E+03  2.33869E+03 -1.48531E+03  1.45908E+03  1.74564E+03 -1.17357E+03  2.49984E+03
 -2.47241E+03  1.37022E+03 -3.45419E+03 -2.46868E+03 -1.85265E+03 -4.31737E+03  5.51686E+02 -3.78006E+03
  2.00794E+03 -1.85046E+03  2.26312E+03 -4.56451E+01  2.32154E+03  9.00300E+02  5.19680E+02  2.40988E+03
 -1.36083E+03  2.96517E+02 -1.47429E+03 -1.24802E+03  9.26925E+02 -2.84557E+03  3.12516E+03 -3.08364E+03
  3.43122E+03  3.60978E+02  4.53653E+03  2.45940E+03  1.90073E+03  4.74340E+03 -1.49665E+03  4.29608E+03
 -3.58343E+03  1.76262E+03 -3.99072E+03 -3.83772E+02 -2.04823E+03 -3.48240E+03  1.22347E+03 -2.24823E+03
  2.77565E+03 -1.60147E+03  1.79418E+03  1.50156E+03  5.91979E+02  3.24800E+03 -5.05308E+02  2.16734E+03
 -1.34978E+03  1.60194E+03 -5.59281E+02  2.98811E+02 -3.41881E+02  5.43921E+02 -1.07755E+03  1.30794E+03
 -1.52462E+03  2.15075E+03 -3.38899E+03  1.64898E+03 -3.56301E+03  2.56357E+02 -5.32049E+03 -2.29163E+03
 -1.67165E+03 -5.15933E+03  1.01560E+03 -6.33874E+03  3.11714E+03 -5.32950E+03  5.74131E+03 -1.70672E+03
  5.59811E+03  1.06680E+03  2.95594E+03  3.21805E+03 -3.85250E+02  4.13865E+03 -1.79850E+03  2.74629E+03
 -2.48252E+03  1.30809E+03 -1.93734E+03 -6.29097E+02 -1.20679E+03 -4.84533E+02 -1.15269E+02  1.54678E+01
 -1.01782E+03  3.16106E+02 -1.64732E+03  3.24227E+02 -4.61929E+02 -1.27999E+03  4.39769E+01 -2.30431E+03
  2.00648E+03 -9.81323E+02  2.32826E+03 -2.50427E+02  3.07242E+03  1.78800E+03 -7.50418E+01  4.15243E+03
 -2.25804E+03  4.48994E+03 -5.02059E+03  2.92602E+03 -5.26517E+03  8.42322E+01 -3.73375E+03 -3.24436E+03
 -1.32727E+03 -3.67403E+03  4.21854E+02 -3.78905E+03  2.45869E+03 -1.63739E+03  2.09703E+03 -1.17587E+01
  1.60133E+03  1.76121E+03  2.11433E+02  6.66105E+02 -1.10994E+03 -5.20711E+02  1.05740E+02 -8.05193E+02
  1.34829E+03 -1.67747E+02  1.76242E+03  4.28319E+02  7.30718E+02  1.46395E+03  1.97940E+02  1.69776E+03
 -1.54407E+03  1.93660E+03 -1.91122E+03  2.33389E+01 -2.01186E+03 -2.14759E+03  4.31682E+02 -3.79659E+03
  1.57550E+03 -2.39722E+03  2.43005E+03 -4.05130E+02  2.47630E+03  1.61650E+02  1.35453E+03  2.17058E+03
  5.36370E+02  1.91908E+03 -1.12825E+03  1.78474E+03 -1.44150E+03  8.61228E+02 -7.05159E+02 -7.04363E+01
 -6.59017E+02  5.63984E+02 -1.28874E+03  6.53048E+02 -9.97167E+02 -1.61194E+02 -1.92642E+03 -5.99269E+02
 -1.59892E+03 -6.80147E+02 -8.28182E+02 -2.16603E+03  1.13573E+03 -3.02888E+03  2.10078E+03 -1.24010E+03
  1.92117E+03  3.00954E+02  6.26558E+02  1.80185E+03 -2.35539E+02  2.17976E+03 -1.42904E+03  1.73108E+03
