 $NMID ID='MM_0lb_SNR400_15hz_g40_77.RAW', FMTDAT='(8E13.5)'
 TRAMP=1., VOLUME=1. $END
  3.09871E+05  7.65332E+02  3.38119E+05  2.51029E+05  8.50944E+04  3.38016E+05 -1.32695E+05  2.51580E+05
 -1.89120E+05  8.21721E+04 -1.10917E+05 -3.25886E+04  9.22777E+02 -5.04017E+04  5.42056E+04  1.07231E+01
  3.48927E+04  5.26021E+04 -1.68981E+04  7.56910E+04 -6.04668E+04  6.29626E+04 -8.40516E+04  3.18470E+04
 -8.08011E+04 -1.15405E+04 -5.60925E+04 -5.03480E+04 -1.55627E+04 -6.87972E+04  2.74847E+04 -4.53393E+04
  4.00258E+04  3.70149E+03  1.58659E+04  4.73394E+04 -3.39020E+04  4.64586E+04 -6.65536E+04 -5.41459E+02
 -5.30062E+04 -5.69044E+04 -6.54566E+03 -7.60368E+04  3.33228E+04 -5.37631E+04  4.75653E+04 -1.71919E+04
  4.21737E+04  1.10691E+04  3.03469E+04  2.49635E+04  1.55499E+04  2.89642E+04 -5.19248E+03  2.68086E+04
 -2.21334E+04  1.29633E+04 -1.89797E+04 -4.37217E+03  5.49994E+03 -7.13794E+03  2.18577E+04  1.16586E+04
  7.51355E+03  3.44265E+04 -3.12358E+04  3.48197E+04 -6.25299E+04  2.14406E+03 -5.62637E+04 -4.17883E+04
 -1.21945E+04 -6.24907E+04  3.89651E+04 -4.41896E+04  5.70315E+04 -1.98720E+03  3.31889E+04  3.15591E+04
 -6.19077E+03  3.43016E+04 -2.94085E+04  1.49659E+04 -2.90388E+04 -4.63479E+03 -1.61096E+04 -1.05421E+04
 -7.68760E+03 -1.24128E+04 -1.38445E+03 -1.74149E+04  6.85282E+03 -2.23123E+04  1.58216E+04 -1.36910E+04
  1.22092E+04  4.53793E+03 -7.00323E+03  1.31174E+04 -2.05785E+04 -4.23293E+03 -7.60981E+03 -3.21741E+04
  2.15969E+04 -4.20876E+04  4.60295E+04 -1.89275E+04  4.34177E+04  1.86059E+04  1.47364E+04  4.28707E+04
 -1.55809E+04  3.21052E+04 -2.48747E+04  1.59407E+03 -9.41697E+03 -2.70763E+04  2.06929E+04 -3.29127E+04
  3.96143E+04 -7.91751E+03  3.40912E+04  2.29220E+04  1.70416E+04  4.43473E+04 -7.82915E+03  4.77064E+04
 -3.00678E+04  3.19462E+04 -4.01312E+04  9.33870E+03 -4.05148E+04 -1.57960E+04 -2.20762E+04 -3.59698E+04
  7.22253E+03 -3.62135E+04  3.05653E+04 -1.38460E+04  2.80479E+04  1.11334E+04  3.92707E+03  1.80737E+04
 -1.39131E+04  8.20704E+03 -1.04312E+04 -7.62431E+03  5.69779E+03 -1.00254E+04  1.78345E+04  6.51012E+03
  1.30566E+04  2.18600E+04 -6.28570E+03  2.38976E+04 -2.22106E+04  1.04479E+04 -2.65145E+04 -5.82500E+03
 -1.92661E+04 -1.71908E+04 -6.82745E+03 -1.87584E+04  4.25484E+03 -1.69823E+04  1.40061E+04 -1.67626E+04
  2.36094E+04 -1.22055E+04  3.06555E+04  1.73468E+03  2.27293E+04  1.78568E+04  4.65502E+03  3.47003E+04
 -1.70323E+04  2.89261E+04 -2.72697E+04  1.03924E+04 -2.07918E+04 -1.02963E+04 -4.23852E+03 -1.28083E+04
  2.16229E+03 -3.24308E+03 -3.41454E+03  5.96168E+03 -1.43835E+04  5.48133E+03 -1.49259E+04 -6.13841E+03
 -9.98163E+03 -1.73633E+04  5.25575E+03 -2.10148E+04  1.39005E+04 -1.55289E+04  1.66835E+04 -2.40734E+03
  9.55661E+03  1.24825E+04 -1.63706E+03  1.80085E+04 -1.20710E+04  1.01061E+04 -1.79044E+04 -3.76355E+03
 -1.26215E+04 -1.61282E+04 -1.45743E+03 -2.14047E+04  9.41478E+03 -1.73977E+04  1.72523E+04 -8.19957E+03
  1.65041E+04  5.35380E+02  1.24029E+04  3.99155E+03  5.55329E+03  1.55742E+03  8.43570E+03 -2.05869E+03
  1.57669E+04  2.73709E+03  1.76184E+04  1.43122E+04  1.08301E+04  2.78251E+04 -3.15657E+03  3.06386E+04
 -1.79126E+04  2.43455E+04 -2.80734E+04  1.24251E+04 -2.98151E+04 -2.27213E+03 -2.49940E+04 -1.71378E+04
 -1.13127E+04 -2.47628E+04  8.23097E+03 -2.21404E+04  1.98415E+04 -1.23958E+04  1.72764E+04  4.19080E+03
  6.57983E+03  1.29147E+04 -8.15115E+03  1.11619E+04 -1.51193E+04  1.97788E+03 -1.13719E+04 -8.76790E+03
  6.69611E+01 -1.39230E+04  6.56345E+03 -1.09558E+04  9.20701E+03 -8.66102E+02  1.81144E+03  6.02906E+03
 -6.65783E+03  1.32651E+03 -4.98915E+03 -4.81524E+03 -7.46938E+01 -1.20643E+04  8.56305E+03 -1.25717E+04
  1.46730E+04 -6.64051E+03  1.55624E+04  3.08714E+03  1.36559E+04  1.14606E+04  6.82809E+03  1.80354E+04
 -2.51986E+03  1.95002E+04 -1.24355E+04  1.22259E+04 -1.36990E+04  3.62312E+03 -1.02143E+04 -2.70913E+03
 -5.08557E+03 -4.02850E+03 -8.58811E+02  1.12115E+03 -2.20935E+03  2.85451E+03 -3.97837E+03  4.47713E+03
 -9.50550E+03 -1.00439E+03 -9.90931E+03 -7.99330E+03 -4.02095E+03 -1.29198E+04  4.57561E+03 -1.04153E+04
  8.56512E+03 -4.06872E+03  6.36739E+03  2.26627E+03  2.13691E+02  3.86433E+03 -4.36310E+03 -5.74324E+02
 -5.15229E+03 -6.09526E+03 -7.50466E+02 -9.31121E+03  4.87022E+03 -9.50210E+03  1.21444E+04 -4.98240E+03
  1.47945E+04  1.18404E+03  1.06127E+04  7.93866E+03  1.71287E+03  1.11781E+04 -6.32390E+03  1.00847E+04
 -8.13147E+03  2.96198E+03 -4.50539E+03 -1.52907E+03  1.17481E+03 -2.42916E+03  5.60303E+03 -9.70779E+02
  5.83966E+03  4.01413E+03  1.07864E+03  7.56942E+03 -5.74801E+03  7.76852E+03 -9.47204E+03  1.89465E+03
 -6.87292E+03 -5.28762E+03  1.76214E+02 -8.07406E+03  5.14737E+03 -3.45001E+03  5.12676E+03  1.53384E+03
  8.98734E+02  4.58079E+03 -4.73252E+03  6.56248E+03 -6.87870E+03  2.68202E+03 -6.72405E+03 -1.78074E+03
 -3.89981E+03 -8.43145E+03  1.88506E+03 -9.86337E+03  8.37958E+03 -6.18172E+03  8.52802E+03  1.35337E+03
  6.36041E+03  7.27799E+03 -9.68865E+02  9.02212E+03 -6.56929E+03  4.66973E+03 -7.03914E+03  2.35216E+02
 -6.77760E+03 -7.23837E+03 -1.78716E+03 -5.92532E+03  3.29363E+03 -5.35160E+03  3.57588E+03 -2.05690E+03
  3.24371E+03  7.18992E+02 -3.62083E+02  1.37822E+03  4.44269E+02 -8.34268E+02  1.31114E+03 -3.11198E+03
  5.49730E+03 -1.49589E+03  7.69044E+03  1.15121E+03  7.69669E+03  4.82714E+03  6.44473E+03  1.02639E+04
 -2.09498E+03  1.19078E+04 -1.07493E+04  9.14582E+03 -1.39539E+04  2.24437E+03 -1.03955E+04 -3.74159E+03
 -5.45854E+03 -8.47386E+03 -6.51314E+02 -7.10216E+03  2.06890E+03 -3.58874E+03  2.87241E+03 -3.01608E+03
  2.32676E+03 -2.17877E+03  2.39649E+03 -3.19094E+03  3.81061E+03 -1.71119E+03  4.52762E+03 -4.56868E+02
  5.78708E+03  1.25531E+03  1.86899E+03  4.76233E+03 -1.46377E+03  4.97155E+03 -6.00826E+03  4.11141E+03
 -7.23321E+03 -1.35262E+03 -3.78734E+03 -4.58706E+03  3.79997E+02 -7.00958E+03  5.14220E+03 -7.16969E+03
  8.29697E+03 -4.77704E+03  9.65950E+03  1.15888E+03  6.85522E+03  6.38043E+03  1.30359E+03  8.85620E+03
 -3.06600E+03  7.45920E+03 -4.53313E+03  2.51056E+03 -2.84355E+03 -1.32736E+03 -1.24283E+03 -4.71963E+02
 -2.47425E+02  4.35795E+02 -1.29223E+03  2.05574E+03 -3.19946E+03  1.30487E+03 -5.56375E+03 -6.56232E+02
 -2.32319E+03 -4.43758E+03  2.43436E+02 -7.51975E+03  3.44822E+03 -6.23328E+03  5.61839E+03 -1.91665E+03
  6.31992E+03  3.37273E+03  3.03800E+03  5.56324E+03 -1.12924E+03  6.95525E+03 -3.98186E+03  4.36966E+03
 -6.08160E+03  4.60345E+02 -5.36724E+03 -3.86442E+03 -7.65019E+02 -5.19965E+03  2.93154E+03 -4.39536E+03
  3.88594E+03 -1.40179E+03  2.89384E+03  8.38196E+02  1.00606E+03  1.74276E+03  5.62754E+02  7.00296E+02
  2.27667E+03  5.09190E+02  1.88342E+03  1.43219E+03  1.62892E+03  2.94831E+03  1.76999E+03  2.77088E+03
 -2.13821E+03  5.42614E+03 -3.18746E+03  5.58831E+03 -5.29747E+03  1.09076E+03 -6.02016E+03 -1.53574E+03
 -2.83976E+03 -6.82732E+03  8.00281E+02 -7.03911E+03  3.69126E+03 -3.91685E+03  5.22822E+03 -1.75994E+03
  3.66444E+03  2.59058E+03  9.03047E+02  4.00335E+03 -1.34747E+03  1.94851E+03 -2.22827E+03  1.39698E+02
 -8.68225E+02 -2.04810E+03  1.93624E+03 -2.90042E+03  2.36047E+03 -1.79954E+03  2.62061E+03  4.28590E+02
  1.35568E+03  8.84084E+02  7.04879E+02  4.84138E+02 -2.52208E+02  8.78067E+02  1.56175E+03 -1.37293E+02
  6.98178E+02 -6.38017E+02  2.84256E+03  1.22919E+03  6.12488E+02  3.43742E+03 -6.43749E+02  4.33056E+03
 -2.88798E+03  2.74343E+03 -3.18596E+03  5.01988E+02 -3.96523E+03 -1.68923E+03 -6.28153E+02 -1.60152E+03
  2.55272E+02 -2.22963E+03  1.80284E+03 -1.12537E+03  1.82896E+03  1.65833E+03 -6.15208E+02  1.95923E+03
 -2.54682E+03  8.23935E+02 -2.28293E+03 -1.41841E+03 -1.50030E+03 -3.34635E+03  9.86125E+02 -3.25963E+03
  1.24430E+03 -1.25865E+03  2.37212E+03  4.29099E+02  2.30505E+03  3.84892E+02  8.03280E+02  1.82897E+03
 -5.60233E+02  4.73299E+02 -1.29850E+03 -5.51276E+02  1.09703E+03 -2.10064E+03  2.60264E+03 -8.77520E+02
  3.38036E+03  7.05075E+02  4.44827E+03  2.58843E+03  1.34339E+03  3.21998E+03 -1.14947E+03  2.88689E+03
 -2.85820E+03  8.42676E+02 -2.87937E+03 -3.60456E+02 -2.03510E+03 -2.35062E+03  8.94979E+02 -1.66373E+03
  2.90793E+03 -1.08688E+03  1.11077E+03  6.94707E+02  2.38300E+02  1.56550E+03  3.06265E+02  2.09027E+03
 -6.48210E+02  1.47972E+03 -6.34007E+02  3.47188E+02 -4.03971E+02  2.98276E+02 -7.32476E+02  7.04984E+02
 -7.19828E+02  1.69616E+03 -3.17763E+03  8.99404E+02 -3.58757E+03  6.11750E+02 -3.96214E+03 -1.99780E+03
 -2.01322E+03 -4.40016E+03  5.81940E+02 -4.85534E+03  2.69982E+03 -4.17596E+03  4.88573E+03 -2.44450E+03
  4.55362E+03 -1.30844E+02  2.47707E+03  3.03137E+03 -6.97320E+02  3.06787E+03 -1.81677E+03  2.59268E+03
 -2.38055E+03  8.63527E+02 -1.37656E+03 -2.28507E+02 -3.64961E+02 -2.19945E+00 -6.27211E+02  4.13062E+01
 -1.22870E+03  1.82934E+02 -1.24766E+03  1.74169E+00 -7.95041E+01 -9.60494E+02 -2.94120E+02 -1.30564E+03
  2.75805E+03 -1.69597E+03  1.74388E+03  5.98176E+02  1.50788E+03  2.37471E+03  2.35422E+02  3.78281E+03
 -1.60128E+03  4.40928E+03 -3.05424E+03  2.79112E+03 -4.01061E+03 -4.37147E+01 -2.86505E+03 -1.81206E+03
 -1.50157E+03 -3.05839E+03  5.55736E+02 -2.55757E+03  1.49799E+03 -8.86204E+02  1.92056E+03 -7.55969E+01
  1.04768E+03  1.42113E+03 -1.73401E+02  1.24162E+03 -4.97793E+02 -4.08271E+02  3.54634E+02 -1.28746E+03
  1.14953E+03  5.22817E+02  7.71642E+02  5.22626E+02  3.62490E+02  9.84310E+02  4.20077E+02  1.79734E+03
 -1.69312E+03  1.47051E+03 -1.49387E+03  3.38318E+02 -1.97678E+03 -1.70741E+03  8.45665E+01 -2.59255E+03
  1.36766E+03 -1.77237E+03  1.62171E+03  7.10455E+01  1.69807E+03  2.84934E+02  9.47218E+02  2.35892E+03
  8.06656E+02  1.57878E+03 -4.70828E+02  1.38691E+03 -1.45398E+03  1.31048E+03 -8.33020E+02 -1.62740E+02
 -8.81318E+02  4.66876E+02 -7.16569E+02  2.32396E+02 -8.70991E+02  1.83789E+02 -1.79671E+03 -3.68630E+02
 -1.74098E+03 -6.20963E+01  5.07749E+01 -2.61039E+03  8.72361E+02 -2.50835E+03  1.98453E+03 -5.16378E+02
  2.32234E+03  1.88236E+02  5.24096E+02  1.18512E+03  1.17408E+02  1.64415E+03 -8.51973E+02  1.24172E+03
