 $NMID ID='MM_0lb_SNR400_16hz_g60_96.RAW', FMTDAT='(8E13.5)'
 TRAMP=1., VOLUME=1. $END
  3.09884E+05  4.11729E+02  3.37986E+05  2.50756E+05  8.41626E+04  3.38043E+05 -1.32744E+05  2.51111E+05
 -1.91158E+05  8.29770E+04 -1.11903E+05 -3.29454E+04  9.76743E+02 -5.08503E+04  5.37415E+04  9.64447E+01
  3.56591E+04  5.28165E+04 -1.65802E+04  7.57773E+04 -6.09814E+04  6.38706E+04 -8.40949E+04  3.22578E+04
 -8.12899E+04 -1.13172E+04 -5.74165E+04 -5.09162E+04 -1.48595E+04 -7.03440E+04  2.70456E+04 -4.55400E+04
  3.98635E+04  4.22281E+03  1.60364E+04  4.82538E+04 -3.44962E+04  4.71516E+04 -6.70176E+04 -6.30744E+02
 -5.37699E+04 -5.68111E+04 -6.92159E+03 -7.73521E+04  3.38867E+04 -5.49013E+04  4.81073E+04 -1.74214E+04
  4.39412E+04  1.15318E+04  3.20481E+04  2.61699E+04  1.62785E+04  2.98763E+04 -4.96379E+03  2.78052E+04
 -2.24120E+04  1.24898E+04 -1.80262E+04 -5.32546E+03  6.37284E+03 -7.60370E+03  2.30027E+04  1.28595E+04
  6.30580E+03  3.57115E+04 -3.20306E+04  3.57539E+04 -6.42636E+04  2.09054E+03 -5.67262E+04 -4.27701E+04
 -1.25345E+04 -6.37288E+04  3.96690E+04 -4.57121E+04  5.79679E+04 -1.94174E+03  3.35579E+04  3.22138E+04
 -6.16470E+03  3.65172E+04 -3.06816E+04  1.59798E+04 -3.05460E+04 -5.15316E+03 -1.66774E+04 -1.05933E+04
 -8.22578E+03 -1.33695E+04 -9.50883E+02 -1.80983E+04  7.82307E+03 -2.29211E+04  1.51344E+04 -1.26422E+04
  1.13275E+04  4.80585E+03 -9.09545E+03  1.31645E+04 -2.15248E+04 -4.95293E+03 -8.23716E+03 -3.35978E+04
  2.27855E+04 -4.38802E+04  4.88120E+04 -1.91465E+04  4.53779E+04  1.90236E+04  1.60700E+04  4.45371E+04
 -1.56657E+04  3.30615E+04 -2.55112E+04  1.94651E+03 -9.87350E+03 -2.77493E+04  2.11568E+04 -3.41270E+04
  4.07599E+04 -8.56004E+03  3.53710E+04  2.47139E+04  1.79389E+04  4.72004E+04 -8.14227E+03  5.02219E+04
 -3.15878E+04  3.38284E+04 -4.18867E+04  9.29863E+03 -4.26551E+04 -1.64578E+04 -2.39497E+04 -3.75573E+04
  7.11826E+03 -3.74609E+04  3.16852E+04 -1.44726E+04  2.87915E+04  1.12104E+04  3.94748E+03  1.87750E+04
 -1.37149E+04  7.77272E+03 -1.05007E+04 -7.78080E+03  5.59086E+03 -1.11503E+04  1.77460E+04  5.87162E+03
  1.43097E+04  2.20456E+04 -5.64799E+03  2.46525E+04 -2.27244E+04  1.11758E+04 -2.75429E+04 -4.79754E+03
 -2.05790E+04 -1.69761E+04 -7.86104E+03 -2.01630E+04  4.02349E+03 -1.96157E+04  1.54551E+04 -1.82097E+04
  2.58108E+04 -1.28944E+04  3.22766E+04  2.88838E+03  2.35850E+04  1.99830E+04  3.47049E+03  3.59888E+04
 -1.72651E+04  2.93660E+04 -2.77588E+04  1.04044E+04 -2.10454E+04 -1.03977E+04 -3.90984E+03 -1.35361E+04
  2.79651E+03 -2.22123E+03 -4.60511E+03  6.62800E+03 -1.55742E+04  5.15559E+03 -1.61777E+04 -6.85498E+03
 -9.99244E+03 -1.82073E+04  5.65492E+03 -2.23401E+04  1.51239E+04 -1.60342E+04  1.82034E+04 -1.47132E+03
  1.12623E+04  1.26963E+04 -1.34348E+03  1.88122E+04 -1.30668E+04  1.03875E+04 -1.81155E+04 -3.78825E+03
 -1.38316E+04 -1.65725E+04 -1.84598E+03 -2.25700E+04  1.02558E+04 -1.83189E+04  1.88267E+04 -9.25592E+03
  1.81006E+04  1.90787E+02  1.25081E+04  3.71907E+03  6.61625E+03  1.01575E+03  9.16152E+03 -1.44536E+03
  1.73944E+04  2.71478E+03  1.88424E+04  1.45500E+04  1.19192E+04  2.97520E+04 -2.24649E+03  3.30179E+04
 -1.97433E+04  2.65871E+04 -3.15796E+04  1.29229E+04 -3.23332E+04 -1.69476E+03 -2.64155E+04 -1.85616E+04
 -1.19584E+04 -2.67079E+04  8.72941E+03 -2.35818E+04  2.09205E+04 -1.28527E+04  1.91076E+04  5.08899E+03
  7.30682E+03  1.39807E+04 -9.03439E+03  1.21804E+04 -1.50300E+04  2.91856E+03 -1.18088E+04 -1.01456E+04
 -4.58865E+01 -1.49002E+04  7.49574E+03 -1.14367E+04  9.26580E+03 -1.12823E+03  2.23409E+03  6.25632E+03
 -6.81041E+03  2.35984E+03 -5.67395E+03 -5.17673E+03 -6.07455E+02 -1.30699E+04  9.00968E+03 -1.33735E+04
  1.58580E+04 -6.60828E+03  1.73529E+04  2.71860E+03  1.41954E+04  1.27110E+04  6.94483E+03  1.94034E+04
 -3.44570E+03  2.03707E+04 -1.31427E+04  1.33062E+04 -1.45159E+04  2.81723E+03 -1.09405E+04 -3.53894E+03
 -5.21767E+03 -4.36491E+03 -8.76578E+02  1.53941E+03 -2.26659E+03  2.33150E+03 -5.10233E+03  4.76669E+03
 -9.70725E+03 -2.96668E+02 -1.07308E+04 -8.36182E+03 -4.89078E+03 -1.41661E+04  4.61489E+03 -1.09356E+04
  8.72091E+03 -5.08761E+03  5.99806E+03  3.27644E+03  8.53674E+02  3.94576E+03 -5.57272E+03  2.06204E+02
 -4.53727E+03 -6.26085E+03 -7.96150E+02 -9.42774E+03  6.36464E+03 -1.01237E+04  1.38793E+04 -5.19925E+03
  1.52819E+04  1.05528E+03  1.11872E+04  8.40470E+03  2.84065E+03  1.13654E+04 -6.82410E+03  1.00706E+04
 -8.90587E+03  3.10625E+03 -4.18103E+03 -1.56833E+03  2.26561E+03 -3.05529E+03  6.36663E+03 -1.17215E+03
  5.43808E+03  4.84198E+03  9.84961E+02  8.48387E+03 -5.97128E+03  7.50285E+03 -1.06121E+04  1.85055E+03
 -6.44897E+03 -5.14504E+03  1.39798E+02 -8.32733E+03  4.69676E+03 -4.16504E+03  5.26127E+03  1.23048E+03
  1.43890E+03  5.86573E+03 -5.33021E+03  6.42509E+03 -7.39486E+03  3.38736E+03 -7.02461E+03 -2.25833E+03
 -4.89755E+03 -9.02394E+03  1.88929E+03 -1.01556E+04  8.64199E+03 -6.45846E+03  9.45042E+03  1.81496E+03
  5.86096E+03  6.96211E+03 -6.07977E+02  9.87144E+03 -6.86651E+03  5.45286E+03 -7.26839E+03 -6.53966E+02
 -7.57352E+03 -6.16573E+03 -1.37025E+03 -6.60295E+03  3.33256E+03 -5.81330E+03  3.81404E+03 -3.52301E+03
  3.01166E+03  4.79799E+02 -3.00964E+02  1.25345E+03 -8.83144E+01 -1.16853E+03  1.50826E+03 -3.57252E+03
  5.61006E+03 -2.40057E+03  8.12751E+03  9.19860E+02  7.82559E+03  4.92783E+03  6.61638E+03  1.05912E+04
 -2.06761E+03  1.22561E+04 -1.07447E+04  1.00468E+04 -1.42603E+04  1.99203E+03 -1.11799E+04 -4.16609E+03
 -6.02913E+03 -9.03097E+03 -5.35916E+02 -7.61626E+03  2.91657E+03 -3.66074E+03  2.43049E+03 -3.15558E+03
  2.08698E+03 -1.75273E+03  2.41629E+03 -3.19552E+03  4.72779E+03 -1.66379E+03  4.52197E+03  2.08703E+02
  5.90295E+03  1.69247E+03  2.53206E+03  4.65930E+03 -1.98368E+03  4.96249E+03 -6.15020E+03  3.40931E+03
 -7.04577E+03 -9.78866E+02 -3.64499E+03 -5.47461E+03 -1.90467E+02 -7.46448E+03  4.31957E+03 -7.84584E+03
  8.02395E+03 -4.58085E+03  9.23439E+03  3.07833E+02  6.64838E+03  6.20072E+03  1.47152E+03  8.33597E+03
 -2.76702E+03  7.94981E+03 -4.56118E+03  2.23818E+03 -3.42799E+03 -9.90102E+02 -8.56872E+02 -1.15780E+03
 -6.77230E+02 -3.39376E-01 -9.88632E+02  2.27926E+03 -3.96635E+03  1.14300E+03 -5.01724E+03 -7.80143E+02
 -2.51748E+03 -4.95549E+03  2.33328E+02 -6.68243E+03  4.32791E+03 -6.28701E+03  5.88049E+03 -2.29457E+03
  6.75946E+03  3.16580E+03  3.22668E+03  5.31055E+03 -7.24457E+02  7.00796E+03 -4.40318E+03  4.41255E+03
 -6.10009E+03  1.22124E+03 -5.31375E+03 -3.43552E+03  5.58748E-01 -5.07904E+03  2.82598E+03 -3.84254E+03
  3.96508E+03 -1.45455E+03  2.71550E+03  1.12067E+03  1.39913E+03  2.20468E+03  1.30931E+03  2.36694E+02
  1.40889E+03  4.72681E+02  1.26115E+03  1.14263E+03  1.09594E+03  2.40922E+03  1.96997E+03  3.10966E+03
 -1.28979E+03  5.18133E+03 -4.45524E+03  5.78765E+03 -5.73069E+03  1.22582E+03 -6.59857E+03 -1.73912E+03
 -3.55241E+03 -6.06817E+03  8.75376E+02 -6.88711E+03  3.67771E+03 -3.89543E+03  4.53564E+03 -6.02298E+02
  3.27393E+03  3.09739E+03  9.74654E+02  3.91988E+03 -1.69405E+03  1.51935E+03 -2.20879E+03 -5.15238E+02
 -1.10783E+03 -1.80313E+03  1.32076E+03 -2.81236E+03  2.13998E+03 -1.40104E+03  2.06848E+03  5.09254E+02
  1.37980E+03  9.10687E+02  1.07703E+03  4.94553E+02 -2.18058E+02  6.92834E+02  1.37041E+03 -8.95737E+02
  6.06598E+02 -1.17099E+03  2.28418E+03  1.55052E+03  1.26838E+03  3.47909E+03 -5.12873E+02  4.12691E+03
 -2.74971E+03  2.26218E+03 -3.30492E+03  1.13957E+03 -2.83369E+03 -7.21253E+02 -6.10990E+02 -1.67437E+03
  1.29524E+02 -1.88111E+03  6.26401E+02 -1.43640E+03  1.50134E+03  1.67188E+03 -7.15534E+02  2.28022E+03
 -2.07627E+03  1.18104E+03 -2.12250E+03 -2.53907E+03 -1.36893E+03 -3.65842E+03  7.92878E+02 -2.15794E+03
  1.83877E+03 -1.73278E+03  1.93460E+03  2.59059E+02  1.81781E+03  4.21068E+02  3.18656E+01  1.86687E+03
 -7.72751E+02 -3.28627E+02 -1.13928E+03  1.85318E+01  3.59743E+02 -1.95482E+03  2.87272E+03 -1.37713E+03
  2.04574E+03 -1.32328E+02  3.67344E+03  1.68601E+03  1.18667E+03  3.13650E+03 -1.09131E+03  3.27803E+03
 -2.49590E+03  1.16387E+03 -2.27865E+03 -4.17438E+02 -1.35948E+03 -2.75643E+03  7.24393E+02 -1.67113E+03
  2.27413E+03 -8.92491E+02  1.20390E+03  4.42430E+02 -4.56513E+01  1.58677E+03  2.92546E+02  1.46865E+03
 -6.21215E+02  6.72540E+02 -8.36047E+02  3.08240E+02 -5.07412E+02  1.75176E+02 -5.93095E+02  1.01170E+03
 -1.14535E+03  6.22070E+02 -3.18109E+03  1.08123E+03 -2.50198E+03 -1.39509E+02 -3.63693E+03 -1.58644E+03
 -1.77176E+03 -3.86281E+03  1.19600E+03 -3.81889E+03  1.45174E+03 -3.96492E+03  4.46204E+03 -1.65100E+03
  4.03511E+03  7.28206E+02  2.49336E+03  2.09128E+03 -1.26869E+02  2.63282E+03 -1.35866E+03  2.11229E+03
 -1.37113E+03  1.10126E+03 -1.04076E+03 -4.26285E+02 -6.66959E+02  5.88525E+02 -4.87188E+02  1.60957E+02
 -9.95729E+02 -5.75699E+01 -1.67641E+03 -1.78405E+02  2.61376E+02 -8.95109E+02 -4.92038E+02 -1.34424E+03
  1.77716E+03 -6.28539E+02  1.11241E+03  4.15572E+02  1.59987E+03  1.50109E+03  7.25093E+01  2.53375E+03
 -1.36737E+03  3.77106E+03 -2.30368E+03  2.41066E+03 -2.31432E+03 -1.82705E+02 -2.65313E+03 -2.05579E+03
 -1.35311E+03 -2.61661E+03  5.57196E+02 -2.65451E+03  1.42016E+03 -1.52521E+03  1.68522E+03  4.81230E+02
  1.12837E+03  1.07164E+03  2.44371E+02  3.98944E+02 -5.38459E+02  1.30325E+02 -2.36613E+02 -5.32474E+02
  9.67216E+02 -1.14816E+02  5.83925E+02  8.17843E+02  3.92161E+02  1.17833E+03  5.94297E+02  9.84612E+02
 -1.14801E+03  1.09376E+03 -9.47477E+02  2.52299E+02 -1.48166E+03 -5.18029E+02  6.01587E+02 -2.16299E+03
  1.11438E+03 -1.67414E+03  1.35595E+03 -1.83485E+02  1.56255E+03 -7.27388E+02  1.72575E+02  1.00940E+03
  4.97303E+02  1.33397E+03 -5.22845E+02  1.04949E+03 -1.41073E+03  3.37937E+02 -1.26306E+03  1.68285E+02
 -2.27935E+02  2.61503E+02 -5.25120E+02  3.89671E+02 -1.08866E+03  3.48801E+02 -1.40685E+03 -4.63999E+02
 -1.82124E+03  4.54649E+02 -3.39579E+02 -6.95180E+02  1.19835E+03 -1.79656E+03  1.03528E+03 -6.97468E+02
  9.24618E+02 -2.31586E+02  5.29626E+02  1.12837E+02  3.23291E+01  1.03168E+03 -1.00838E+03  7.03601E+02
