 $NMID ID='MM_0lb_SNR400_7hz_g40_84.RAW', FMTDAT='(8E13.5)'
 TRAMP=1., VOLUME=1. $END
  3.09837E+05 -1.96449E+01  3.36642E+05  2.50920E+05  8.47811E+04  3.38163E+05 -1.32602E+05  2.51336E+05
 -1.91084E+05  8.44850E+04 -1.12736E+05 -3.25363E+04  8.03387E+02 -5.03529E+04  5.29567E+04 -7.21967E+02
  3.68064E+04  5.24334E+04 -1.73623E+04  7.62085E+04 -6.10774E+04  6.44236E+04 -8.62189E+04  3.29055E+04
 -8.29486E+04 -1.11871E+04 -5.84681E+04 -5.37048E+04 -1.50134E+04 -7.14014E+04  2.79479E+04 -4.67023E+04
  4.11666E+04  3.90641E+03  1.69445E+04  4.85458E+04 -3.49049E+04  4.86070E+04 -6.82553E+04 -5.54567E+02
 -5.48932E+04 -5.78998E+04 -6.91693E+03 -7.95781E+04  3.54464E+04 -5.69967E+04  4.96921E+04 -1.80169E+04
  4.55362E+04  1.06681E+04  3.25680E+04  2.65228E+04  1.51525E+04  3.04368E+04 -5.67841E+03  2.77695E+04
 -2.31185E+04  1.22719E+04 -1.85080E+04 -4.96411E+03  6.30423E+03 -7.60242E+03  2.45279E+04  1.40548E+04
  7.07499E+03  3.76140E+04 -3.47664E+04  3.80684E+04 -6.59430E+04  1.74101E+03 -5.74065E+04 -4.53429E+04
 -1.25179E+04 -6.66059E+04  4.14568E+04 -4.82261E+04  6.27598E+04 -2.69522E+03  3.73693E+04  3.58504E+04
 -5.41294E+03  4.05033E+04 -3.19857E+04  1.94101E+04 -3.44789E+04 -3.78029E+03 -1.97393E+04 -1.14920E+04
 -1.01164E+04 -1.51930E+04 -5.79985E+02 -1.98714E+04  8.45118E+03 -2.31440E+04  1.57703E+04 -1.25922E+04
  1.07811E+04  7.22147E+03 -1.13822E+04  1.23582E+04 -2.46041E+04 -6.82544E+03 -8.82121E+03 -3.90451E+04
  2.60254E+04 -4.77288E+04  5.30203E+04 -2.11354E+04  5.00263E+04  2.17449E+04  1.78794E+04  4.71242E+04
 -1.69569E+04  3.66322E+04 -2.88826E+04  3.11510E+03 -1.25404E+04 -3.00719E+04  2.18354E+04 -3.77622E+04
  4.53662E+04 -1.15876E+04  4.13699E+04  2.61634E+04  2.23593E+04  5.30210E+04 -8.56004E+03  5.78662E+04
 -3.59826E+04  3.89899E+04 -4.89049E+04  1.11785E+04 -4.87357E+04 -1.85088E+04 -2.63647E+04 -4.25809E+04
  8.19414E+03 -4.34451E+04  3.44999E+04 -1.82095E+04  3.23725E+04  1.09039E+04  6.42423E+03  2.14049E+04
 -1.41527E+04  9.74748E+03 -1.16105E+04 -7.40867E+03  4.84674E+03 -1.24617E+04  1.85281E+04  5.21335E+03
  1.40896E+04  2.34278E+04 -4.99151E+03  2.79829E+04 -2.37795E+04  1.50780E+04 -3.17065E+04 -2.59098E+03
 -2.71262E+04 -1.91030E+04 -1.25727E+04 -2.50196E+04  5.23123E+03 -2.71308E+04  2.07575E+04 -2.43144E+04
  3.32383E+04 -1.50043E+04  3.86315E+04  5.18261E+03  2.76388E+04  2.53291E+04  4.93895E+03  4.28709E+04
 -2.05178E+04  3.48262E+04 -3.04627E+04  1.20652E+04 -2.34028E+04 -1.03224E+04 -5.46558E+03 -1.31606E+04
  3.65116E+02  5.19411E+02 -7.43074E+03  8.39973E+03 -2.24016E+04  5.24213E+03 -2.06966E+04 -1.03292E+04
 -1.25545E+04 -2.47819E+04  6.36482E+03 -2.96442E+04  2.01128E+04 -2.07021E+04  2.35413E+04 -2.28039E+03
  1.54080E+04  1.70149E+04 -1.48674E+03  2.40872E+04 -1.70237E+04  1.56134E+04 -2.57392E+04 -4.99652E+03
 -1.80935E+04 -2.21266E+04 -2.58388E+03 -3.00160E+04  1.32579E+04 -2.43225E+04  2.46354E+04 -1.34396E+04
  2.28955E+04  2.06434E+01  1.71491E+04  5.37263E+03  9.09087E+03  1.28604E+03  1.25177E+04 -2.61180E+03
  2.38816E+04  2.99382E+03  2.68662E+04  1.86529E+04  1.93067E+04  3.95253E+04 -1.32878E+03  4.77532E+04
 -2.71625E+04  3.99964E+04 -4.42806E+04  2.08297E+04 -4.86599E+04 -3.31785E+03 -3.88497E+04 -2.84110E+04
 -1.57177E+04 -3.98913E+04  1.50253E+04 -3.46190E+04  2.97280E+04 -1.68862E+04  2.56145E+04  8.73372E+03
  9.51823E+03  1.98176E+04 -1.16663E+04  1.63510E+04 -2.12643E+04  3.34627E+03 -1.60615E+04 -1.31701E+04
  3.20345E+01 -2.14706E+04  1.16272E+04 -1.50065E+04  1.48789E+04 -7.65257E+02  3.78150E+03  9.77157E+03
 -8.85739E+03  4.53812E+03 -9.78380E+03 -7.40173E+03 -2.07227E+03 -1.96505E+04  1.20154E+04 -2.09149E+04
  2.53426E+04 -1.30240E+04  2.98134E+04  3.52089E+03  2.53041E+04  2.08146E+04  1.16542E+04  3.07391E+04
 -5.93868E+03  3.33857E+04 -2.23799E+04  2.04137E+04 -2.49701E+04  4.38616E+03 -1.73565E+04 -6.16728E+03
 -6.79808E+03 -8.04126E+03 -1.11102E+02  2.71749E+02 -4.00560E+03  3.71861E+03 -8.93566E+03  5.76154E+03
 -1.55158E+04 -1.12652E+03 -1.59133E+04 -1.21521E+04 -6.92371E+03 -2.07153E+04  6.87606E+03 -1.68160E+04
  1.41958E+04 -7.02836E+03  1.00159E+04  5.17775E+03 -9.78951E+02  7.28479E+03 -8.87407E+03  2.06381E+02
 -7.51107E+03 -1.09194E+04 -1.63006E+03 -1.85807E+04  9.59364E+03 -1.73646E+04  2.30772E+04 -9.39243E+03
  2.67770E+04  2.80107E+03  1.86291E+04  1.50883E+04  3.94100E+03  2.17256E+04 -1.03678E+04  1.64120E+04
 -1.40805E+04  4.68925E+03 -6.65241E+03 -3.99091E+03  2.45446E+03 -4.42920E+03  8.67184E+03 -1.94739E+03
  7.51610E+03  7.63833E+03  1.20308E+03  1.32283E+04 -9.62598E+03  1.25892E+04 -1.65083E+04  3.70735E+03
 -1.17193E+04 -9.34813E+03  4.20943E+02 -1.49184E+04  9.29151E+03 -6.78659E+03  9.30367E+03  3.65008E+03
  2.14500E+03  1.19433E+04 -9.50271E+03  1.31732E+04 -1.52159E+04  5.42734E+03 -1.58367E+04 -5.65232E+03
 -8.97559E+03 -1.77309E+04  4.88629E+03 -2.11781E+04  1.65745E+04 -1.19228E+04  1.85563E+04  3.66466E+03
  1.14596E+04  1.53145E+04 -1.78671E+03  1.81460E+04 -1.20689E+04  9.35531E+03 -1.34257E+04 -1.37074E+03
 -1.20119E+04 -1.14481E+04 -1.87081E+03 -1.23362E+04  7.78627E+03 -1.06524E+04  9.05076E+03 -3.25591E+03
  5.69318E+03  1.75941E+03 -1.54576E+03  2.33968E+03 -5.97398E+02 -4.05909E+03  3.49757E+03 -8.81086E+03
  1.36455E+04 -5.12757E+03  1.82443E+04  1.79660E+03  1.77665E+04  1.28201E+04  1.10149E+04  2.31892E+04
 -5.39543E+03  2.78819E+04 -2.25421E+04  1.92449E+04 -3.02220E+04  4.31008E+03 -2.43836E+04 -9.83882E+03
 -1.18747E+04 -1.94511E+04 -2.05149E+02 -1.67520E+04  6.02244E+03 -9.73193E+03  5.59113E+03 -5.98231E+03
  4.63253E+03 -4.33965E+03  4.73262E+03 -5.02784E+03  6.78737E+03 -4.60649E+03  9.52583E+03 -1.52837E+03
  1.25239E+04  3.44874E+03  7.41664E+03  1.05260E+04 -2.93161E+03  1.24327E+04 -1.38693E+04  1.07439E+04
 -1.69849E+04 -8.07273E+02 -1.12002E+04 -1.14565E+04 -1.26154E+03 -1.78307E+04  9.97468E+03 -1.85181E+04
  1.98306E+04 -1.07096E+04  2.30815E+04  3.26436E+03  1.57830E+04  1.67058E+04  2.95067E+03  2.08887E+04
 -9.13196E+03  1.64913E+04 -1.22234E+04  7.01766E+03 -8.20209E+03 -6.74332E+02 -4.21991E+03 -2.81315E+03
 -1.68649E+03 -5.62892E+02 -2.49417E+03  3.14645E+03 -6.16961E+03  1.85441E+03 -1.17675E+04 -1.73626E+03
 -8.66875E+03 -1.23199E+04 -6.32666E+02 -1.76371E+04  1.13662E+04 -1.58937E+04  1.82836E+04 -5.77719E+03
  1.73124E+04  8.16068E+03  8.19085E+03  1.65973E+04 -3.19200E+03  1.81127E+04 -1.30066E+04  1.10606E+04
 -1.67858E+04  6.88692E+02 -1.20236E+04 -9.82414E+03 -2.02425E+03 -1.46667E+04  8.07470E+03 -1.10632E+04
  1.09374E+04 -2.99906E+03  7.76229E+03  3.81736E+03  1.87802E+03  5.35275E+03  1.78567E+03  2.06436E+03
  3.04846E+03  1.63150E+03  4.75532E+03  1.95864E+03  5.96614E+03  6.03621E+03  4.62815E+03  9.24013E+03
 -3.44135E+03  1.43895E+04 -1.25893E+04  1.42108E+04 -1.87272E+04  3.27360E+03 -1.94567E+04 -7.96121E+03
 -8.53443E+03 -1.90327E+04  3.10966E+03 -1.93066E+04  1.15626E+04 -1.23445E+04  1.48336E+04 -2.70737E+03
  1.21785E+04  6.90448E+03  3.12538E+03  9.94278E+03 -4.85701E+03  7.90170E+03 -8.33799E+03 -1.47368E+03
 -3.04281E+03 -7.38039E+03  3.23119E+03 -7.57047E+03  7.84353E+03 -4.06361E+03  7.46368E+03  1.57606E+03
  4.62204E+03  3.85173E+03  1.38163E+03  3.38982E+03 -1.55991E+03  2.41205E+03  1.42134E+03 -5.29686E+02
  4.15454E+03 -1.15329E+03  7.46587E+03  2.57310E+03  4.57536E+03  1.03250E+04 -1.62910E+03  1.24872E+04
 -8.57932E+03  8.81458E+03 -1.23907E+04  3.32038E+03 -9.98166E+03 -4.14541E+03 -4.05568E+03 -8.71445E+03
  1.51226E+03 -8.25920E+03  5.09051E+03 -3.40472E+03  4.39387E+03  3.14078E+03 -2.24576E+03  6.19859E+03
 -7.55768E+03  3.91020E+03 -8.60082E+03 -4.79798E+03 -4.80491E+03 -1.03262E+04  1.92034E+03 -1.15944E+04
  6.66115E+03 -7.18137E+03  8.06719E+03 -1.01490E+03  6.56654E+03  3.04616E+03  8.98443E+02  6.18868E+03
 -3.22972E+03  1.95501E+03 -5.42923E+03 -4.13624E+03  1.58475E+03 -8.67987E+03  9.78330E+03 -6.88391E+03
  1.20428E+04  2.56410E+02  1.18367E+04  8.49443E+03  3.92349E+03  1.35039E+04 -4.55512E+03  1.13955E+04
 -1.06098E+04  4.67833E+03 -1.07803E+04 -1.82987E+03 -5.47778E+03 -8.16007E+03  1.78955E+03 -8.72472E+03
  7.95351E+03 -3.14841E+03  7.20650E+03  3.99405E+03  1.93822E+03  7.02479E+03 -2.19238E+03  5.80459E+03
 -3.81724E+03  3.60562E+03 -2.79264E+03  1.62011E+03 -1.46431E+03  4.69438E+02 -1.88609E+03  2.57217E+03
 -3.57948E+03  5.72889E+03 -8.21377E+03  4.73060E+03 -1.28341E+04 -2.44402E+02 -1.35731E+04 -8.15586E+03
 -8.11099E+03 -1.80593E+04  3.56181E+03 -1.97225E+04  1.29405E+04 -1.44439E+04  1.92719E+04 -4.59439E+03
  1.69808E+04  3.88870E+03  1.11487E+04  1.15229E+04  1.04822E+03  1.42544E+04 -4.26067E+03  1.07990E+04
 -7.46270E+03  3.64688E+03 -5.02278E+03 -1.48470E+03 -1.44767E+03 -1.75292E+03 -1.33000E+03  2.82147E+02
 -2.08016E+03  4.83840E+02 -2.86197E+03 -6.46653E+02 -1.13381E+03 -3.65977E+03  3.55464E+02 -4.65104E+03
  5.59514E+03 -5.06011E+03  8.91074E+03 -7.07527E+01  9.65535E+03  7.43719E+03  3.04072E+03  1.39798E+04
 -6.36101E+03  1.50976E+04 -1.44413E+04  9.84650E+03 -1.75150E+04 -1.00928E+03 -1.30211E+04 -1.08129E+04
 -4.23414E+03 -1.57853E+04  2.90816E+03 -1.30424E+04  9.14491E+03 -7.34231E+03  9.25455E+03  9.71613E+01
  4.71965E+03  5.07757E+03 -3.27150E+02  3.96562E+03 -3.19534E+03 -5.63677E+02 -3.06824E+02 -2.27914E+03
  4.34511E+03 -2.13642E+03  5.88729E+03  8.37011E+02  4.09546E+03  5.43208E+03 -8.14476E+01  7.14961E+03
 -5.44857E+03  6.62540E+03 -9.72725E+03  1.13184E+03 -8.06447E+03 -6.82116E+03 -2.42438E+03 -1.15126E+04
  7.63360E+03 -9.26059E+03  1.19883E+04 -2.73015E+03  1.10175E+04  2.65589E+03  6.81199E+03  8.12701E+03
  1.50618E+03  9.83656E+03 -4.56846E+03  7.52119E+03 -6.34407E+03  3.89801E+03 -5.16878E+03  8.61075E+02
 -3.48567E+03 -9.87837E+02 -2.66196E+03  1.79435E+03 -5.58212E+03  1.17644E+03 -7.04890E+03 -1.00925E+03
 -6.81920E+03 -6.72799E+03 -2.12830E+03 -8.94475E+03  4.15127E+03 -1.03694E+04  9.03472E+03 -5.10215E+03
  1.01060E+04  1.10802E+03  5.56644E+03  6.23754E+03 -8.44347E+02  9.65994E+03 -7.41294E+03  6.58192E+03
