 $NMID ID='MM_0lb_SNR400_13hz_g40_9.RAW', FMTDAT='(8E13.5)'
 TRAMP=1., VOLUME=1. $END
  3.10158E+05  4.89558E+02  3.37986E+05  2.50479E+05  8.52681E+04  3.37784E+05 -1.32611E+05  2.50270E+05
 -1.90480E+05  8.27246E+04 -1.11751E+05 -3.29016E+04  1.33732E+03 -5.06532E+04  5.38007E+04  1.40429E+02
  3.52045E+04  5.28122E+04 -1.70492E+04  7.58435E+04 -6.08831E+04  6.32690E+04 -8.39392E+04  3.18556E+04
 -8.11016E+04 -1.17744E+04 -5.68193E+04 -5.18658E+04 -1.42352E+04 -6.92629E+04  2.76666E+04 -4.59017E+04
  4.00752E+04  3.78419E+03  1.63018E+04  4.76451E+04 -3.48414E+04  4.69960E+04 -6.70945E+04 -5.03437E+02
 -5.31970E+04 -5.73169E+04 -6.76457E+03 -7.61843E+04  3.38395E+04 -5.47029E+04  4.75127E+04 -1.69220E+04
  4.30497E+04  1.11491E+04  3.18149E+04  2.53817E+04  1.57170E+04  2.99415E+04 -4.21069E+03  2.74622E+04
 -2.16330E+04  1.23178E+04 -1.84218E+04 -4.87473E+03  5.80752E+03 -6.90578E+03  2.23831E+04  1.23308E+04
  7.15784E+03  3.53715E+04 -3.20086E+04  3.57880E+04 -6.35199E+04  1.63330E+03 -5.73833E+04 -4.26765E+04
 -1.22321E+04 -6.29492E+04  3.96179E+04 -4.52082E+04  5.80571E+04 -1.71117E+03  3.40339E+04  3.24778E+04
 -6.55372E+03  3.57719E+04 -2.93893E+04  1.56707E+04 -2.98871E+04 -4.73451E+03 -1.67291E+04 -1.02832E+04
 -7.70567E+03 -1.33565E+04 -5.46349E+02 -1.83520E+04  7.90652E+03 -2.28604E+04  1.49551E+04 -1.36295E+04
  1.15273E+04  4.77066E+03 -8.55821E+03  1.30626E+04 -2.09907E+04 -4.90620E+03 -7.42728E+03 -3.33024E+04
  2.25786E+04 -4.36792E+04  4.72429E+04 -1.98146E+04  4.47027E+04  1.92608E+04  1.61170E+04  4.44499E+04
 -1.59693E+04  3.34429E+04 -2.50119E+04  1.48123E+03 -9.90339E+03 -2.76679E+04  2.07707E+04 -3.39648E+04
  4.07409E+04 -9.94078E+03  3.55667E+04  2.38868E+04  1.80757E+04  4.65084E+04 -8.13520E+03  4.98519E+04
 -3.18461E+04  3.39778E+04 -4.12213E+04  8.95691E+03 -4.27281E+04 -1.70743E+04 -2.34172E+04 -3.72526E+04
  7.61317E+03 -3.78375E+04  3.15622E+04 -1.43331E+04  2.95005E+04  1.07415E+04  3.70817E+03  1.87119E+04
 -1.34156E+04  8.29853E+03 -1.02675E+04 -7.32755E+03  6.03551E+03 -1.12620E+04  1.83747E+04  6.32532E+03
  1.30372E+04  2.18525E+04 -5.80625E+03  2.52647E+04 -2.26725E+04  1.20729E+04 -2.80893E+04 -5.62447E+03
 -2.07535E+04 -1.66337E+04 -8.22409E+03 -2.04500E+04  4.06283E+03 -1.90739E+04  1.54509E+04 -1.87877E+04
  2.61179E+04 -1.24446E+04  3.26628E+04  2.35647E+03  2.44715E+04  1.99510E+04  4.34970E+03  3.64086E+04
 -1.79752E+04  3.07592E+04 -2.79845E+04  1.05226E+04 -2.08336E+04 -1.03368E+04 -4.35049E+03 -1.35192E+04
  1.20038E+03 -2.74085E+03 -4.94189E+03  7.02082E+03 -1.58470E+04  5.20844E+03 -1.61970E+04 -6.96103E+03
 -1.04202E+04 -1.86599E+04  5.40851E+03 -2.30713E+04  1.54510E+04 -1.69993E+04  1.85101E+04 -2.29188E+03
  1.15047E+04  1.28245E+04 -1.16034E+03  1.84650E+04 -1.28371E+04  1.11462E+04 -1.92471E+04 -4.02482E+03
 -1.40476E+04 -1.69884E+04 -1.87434E+03 -2.30380E+04  1.09165E+04 -1.86485E+04  1.91145E+04 -9.00196E+03
  1.77841E+04  8.00559E+01  1.31033E+04  4.50210E+03  6.33830E+03  3.59471E+02  9.56401E+03 -1.38944E+03
  1.75364E+04  2.61198E+03  1.93183E+04  1.49173E+04  1.33131E+04  3.04513E+04 -2.99286E+03  3.45332E+04
 -1.99142E+04  2.80152E+04 -3.23176E+04  1.39737E+04 -3.36426E+04 -2.70845E+03 -2.81700E+04 -1.92076E+04
 -1.22817E+04 -2.75554E+04  9.53951E+03 -2.48705E+04  2.16125E+04 -1.27460E+04  1.91842E+04  5.50732E+03
  6.97278E+03  1.47927E+04 -8.46713E+03  1.32458E+04 -1.68583E+04  2.60710E+03 -1.14743E+04 -1.03627E+04
 -6.96280E+02 -1.53101E+04  7.56911E+03 -1.12727E+04  9.78181E+03 -1.60068E+03  1.81425E+03  6.90413E+03
 -7.28306E+03  3.06692E+03 -6.05395E+03 -5.81053E+03 -3.68803E+02 -1.33004E+04  9.93938E+03 -1.40092E+04
  1.71491E+04 -7.85357E+03  1.88224E+04  3.21968E+03  1.62396E+04  1.31901E+04  7.77497E+03  2.04403E+04
 -3.10192E+03  2.22244E+04 -1.42627E+04  1.36256E+04 -1.60956E+04  3.83120E+03 -1.19903E+04 -3.92136E+03
 -5.56159E+03 -5.02197E+03 -1.22760E+03  1.49484E+03 -2.04839E+03  2.57404E+03 -5.45248E+03  4.75050E+03
 -1.13014E+04 -4.37674E+02 -1.17126E+04 -8.99419E+03 -4.43911E+03 -1.49519E+04  4.76721E+03 -1.17463E+04
  9.42926E+03 -4.86915E+03  6.95232E+03  3.40299E+03  2.05217E+02  4.12288E+03 -5.28534E+03 -9.93352E+01
 -5.64513E+03 -6.97016E+03 -7.52706E+02 -1.08127E+04  5.73538E+03 -1.16609E+04  1.39703E+04 -6.02580E+03
  1.65477E+04  1.08561E+03  1.22326E+04  9.67528E+03  3.09531E+03  1.31953E+04 -6.96050E+03  1.15214E+04
 -8.93650E+03  3.40160E+03 -4.90538E+03 -2.29217E+03  1.72606E+03 -2.47250E+03  5.75318E+03 -1.42043E+03
  6.19789E+03  4.63520E+03  1.45553E+03  8.56681E+03 -6.53357E+03  8.69154E+03 -1.04945E+04  1.58759E+03
 -7.27319E+03 -5.67729E+03 -8.53534E+01 -9.67549E+03  5.65304E+03 -4.79594E+03  6.16342E+03  2.04801E+03
  9.73703E+02  5.89255E+03 -6.19508E+03  7.47577E+03 -8.42836E+03  3.19088E+03 -8.71604E+03 -2.53778E+03
 -5.27143E+03 -1.03758E+04  2.46773E+03 -1.20243E+04  1.00982E+04 -7.53733E+03  1.04465E+04  1.57076E+03
  7.47003E+03  8.66529E+03 -1.74175E+02  1.09696E+04 -7.68987E+03  6.01022E+03 -8.42477E+03 -8.12044E+02
 -7.96923E+03 -7.76142E+03 -2.18721E+03 -7.98844E+03  3.44657E+03 -7.23251E+03  4.76334E+03 -3.25603E+03
  3.85579E+03  1.70477E+03 -6.62534E+02  1.69877E+03  6.79578E+00 -1.32948E+03  1.32979E+03 -4.22854E+03
  6.81375E+03 -2.56419E+03  9.71202E+03  1.19009E+03  9.42459E+03  6.06790E+03  7.31333E+03  1.26745E+04
 -2.86500E+03  1.43242E+04 -1.23085E+04  1.08436E+04 -1.62680E+04  2.33553E+03 -1.31651E+04 -5.48819E+03
 -6.77129E+03 -1.09724E+04 -3.74286E+02 -9.28055E+03  3.41067E+03 -5.01225E+03  3.07838E+03 -2.83224E+03
  2.45987E+03 -2.01334E+03  3.15806E+03 -3.33937E+03  4.09179E+03 -2.41817E+03  5.46485E+03 -5.73928E+02
  7.03459E+03  1.79080E+03  3.49138E+03  6.35802E+03 -1.88822E+03  6.27792E+03 -7.46805E+03  5.01925E+03
 -8.25373E+03 -1.34437E+03 -4.88870E+03 -5.89122E+03 -2.75082E+02 -9.40877E+03  5.82352E+03 -9.55990E+03
  9.54628E+03 -5.19176E+03  1.11603E+04  6.06353E+02  7.97143E+03  8.07064E+03  1.59023E+03  1.08143E+04
 -4.44584E+03  9.78565E+03 -6.51083E+03  3.52468E+03 -3.59976E+03 -1.27727E+03 -1.23532E+03 -1.53024E+03
 -6.96838E+02  2.57269E+02 -1.05742E+03  2.61248E+03 -4.16089E+03  1.31285E+03 -6.71013E+03 -4.55289E+02
 -3.46069E+03 -6.22615E+03 -2.76604E+02 -8.71825E+03  4.89602E+03 -7.35759E+03  7.77257E+03 -1.66095E+03
  8.69391E+03  4.44363E+03  3.79951E+03  7.31025E+03 -1.80552E+03  8.93228E+03 -6.73141E+03  4.85338E+03
 -7.36230E+03  5.31561E+02 -6.23631E+03 -5.18938E+03 -6.59260E+02 -7.09445E+03  3.50310E+03 -5.47753E+03
  5.45297E+03 -1.75050E+03  3.39171E+03  2.02048E+03  1.49623E+03  2.74945E+03  1.05150E+03  8.34446E+02
  2.07566E+03  1.34317E+03  2.29951E+03  7.81520E+02  2.83990E+03  3.35628E+03  2.43754E+03  4.46320E+03
 -1.81213E+03  7.00893E+03 -5.55851E+03  7.08288E+03 -8.27661E+03  2.35287E+03 -8.13174E+03 -2.76631E+03
 -3.41303E+03 -8.14404E+03  1.64643E+03 -9.59273E+03  4.62503E+03 -5.67013E+03  7.04501E+03 -1.59031E+03
  5.71726E+03  2.98616E+03  1.75374E+02  4.74352E+03 -1.99318E+03  3.32221E+03 -3.07241E+03 -9.41829E+02
 -1.84992E+03 -2.32675E+03  2.28399E+03 -3.55475E+03  3.61701E+03 -1.60142E+03  2.99574E+03  6.30393E+02
  1.87169E+03  1.37034E+03  1.21596E+03  5.17726E+02 -3.85670E+02  1.32593E+03  2.29095E+03 -2.60649E+02
  7.64968E+02 -1.54725E+02  4.24493E+03  1.80350E+03  1.45605E+03  4.08464E+03 -2.79282E+02  5.26294E+03
 -3.83688E+03  3.23264E+03 -5.24217E+03  1.27701E+03 -4.40503E+03 -2.02398E+03 -1.11261E+03 -3.58801E+03
  5.86696E+02 -3.13857E+03  2.70782E+03 -1.82953E+03  1.36363E+03  1.33062E+03 -5.42131E+02  2.25543E+03
 -3.28698E+03  1.76598E+03 -3.86869E+03 -1.31439E+03 -1.71595E+03 -3.79394E+03  1.85266E+02 -3.89502E+03
  1.90862E+03 -3.14314E+03  2.39746E+03 -1.30287E+02  2.20849E+03  1.33110E+03  3.30918E+02  2.75092E+03
 -9.14302E+02  3.65989E+02 -1.36561E+03 -1.27138E+03  9.47692E+02 -3.13339E+03  4.30829E+03 -2.22298E+03
  4.05404E+03  5.32113E+02  5.15582E+03  2.93811E+03  2.04031E+03  4.97750E+03 -1.04593E+03  4.98116E+03
 -4.07154E+03  1.26513E+03 -4.14988E+03 -1.07401E+03 -2.26238E+03 -2.45853E+03  1.19382E+02 -3.92343E+03
  3.46684E+03 -1.75619E+03  3.07904E+03  1.72637E+03  9.25695E+02  2.70437E+03 -7.81274E+01  2.63943E+03
 -1.00358E+03  1.71298E+03 -1.68416E+03  2.26822E+02 -7.85875E+02  8.88004E+01 -1.38759E+03  1.99570E+02
 -1.66273E+03  2.07903E+03 -3.29180E+03  1.36568E+03 -5.44800E+03  3.62324E+02 -5.54716E+03 -3.23794E+03
 -2.63321E+03 -6.10599E+03  1.61635E+03 -7.48266E+03  3.98532E+03 -5.95068E+03  6.96177E+03 -2.47727E+03
  6.22284E+03  8.91496E+02  4.01266E+03  4.87875E+03 -1.21652E+02  4.28606E+03 -1.72736E+03  3.86595E+03
 -3.32545E+03  1.54066E+03 -2.12878E+03 -5.20730E+02 -8.90679E+02  1.26894E+02 -3.62635E+02  1.30245E+02
 -1.58091E+03 -4.13940E+02 -9.54555E+02 -3.02843E+01 -7.83575E+02 -1.37034E+03 -4.48761E+02 -2.22158E+03
  2.82266E+03 -2.28775E+03  1.77093E+03  3.30015E+02  3.82854E+03  2.71355E+03  7.63182E+02  4.27441E+03
 -2.57971E+03  5.73342E+03 -4.16694E+03  3.36526E+03 -5.54568E+03 -8.10313E+02 -4.33119E+03 -3.82581E+03
 -2.36057E+03 -4.95227E+03  8.65774E+01 -3.70129E+03  2.85177E+03 -2.06309E+03  2.74338E+03  7.36657E+01
  1.79818E+03  1.84930E+03 -2.71111E+02  1.92496E+03 -1.56669E+02 -5.09128E+02 -2.44741E+02 -8.77664E+02
  1.89025E+03 -5.10200E+02  1.49992E+03  6.86467E+02  1.01577E+03  1.64573E+03 -3.96579E+01  2.24480E+03
 -2.17574E+03  2.12709E+03 -2.41305E+03  1.43400E+02 -3.07496E+03 -2.56102E+03 -5.47377E+02 -4.09143E+03
  2.23047E+03 -2.49852E+03  2.43425E+03 -4.25679E+02  2.90551E+03  4.09374E+02  1.90280E+03  2.92356E+03
  2.65906E+02  2.71663E+03 -4.15533E+02  2.09829E+03 -2.83265E+03  1.65809E+03 -1.27706E+03  3.55384E+01
 -9.49220E+02 -3.68180E+02 -1.07370E+03  4.08685E+02 -1.20717E+03  7.34784E+02 -2.02180E+03 -5.78280E+02
 -2.26541E+03 -1.54009E+03 -1.44518E+03 -2.90606E+03  1.93038E+03 -3.57919E+03  2.83015E+03 -1.19861E+03
  3.67533E+03  7.53695E+02  9.32906E+02  1.48673E+03 -1.82859E+02  2.67658E+03 -1.97490E+03  2.25374E+03
