 $NMID ID='MM_0lb_SNR400_14hz_g55_68.RAW', FMTDAT='(8E13.5)'
 TRAMP=1., VOLUME=1. $END
  3.09170E+05  4.09898E+02  3.37848E+05  2.51207E+05  8.49274E+04  3.38395E+05 -1.32927E+05  2.50847E+05
 -1.90354E+05  8.39258E+04 -1.12303E+05 -3.21973E+04  4.57298E+02 -5.07323E+04  5.44324E+04 -6.41674E+02
  3.52613E+04  5.29474E+04 -1.70495E+04  7.55427E+04 -6.08994E+04  6.35684E+04 -8.46770E+04  3.16552E+04
 -8.12589E+04 -1.13092E+04 -5.76148E+04 -5.13586E+04 -1.43946E+04 -7.03647E+04  2.74620E+04 -4.61893E+04
  4.00024E+04  3.40295E+03  1.61227E+04  4.76137E+04 -3.44162E+04  4.75137E+04 -6.69450E+04 -5.24779E+02
 -5.38608E+04 -5.68484E+04 -7.29209E+03 -7.79571E+04  3.50006E+04 -5.56729E+04  4.85042E+04 -1.73613E+04
  4.37031E+04  1.03819E+04  3.23662E+04  2.54148E+04  1.62720E+04  2.92840E+04 -5.10774E+03  2.70264E+04
 -2.20677E+04  1.29667E+04 -1.86272E+04 -5.25014E+03  5.54651E+03 -7.81866E+03  2.23725E+04  1.24689E+04
  7.85457E+03  3.50517E+04 -3.30281E+04  3.55679E+04 -6.44585E+04  2.28576E+03 -5.71786E+04 -4.27772E+04
 -1.29246E+04 -6.38401E+04  3.97991E+04 -4.59123E+04  5.87340E+04 -1.72448E+03  3.50669E+04  3.29085E+04
 -6.52530E+03  3.65024E+04 -3.07138E+04  1.59803E+04 -3.08129E+04 -4.45926E+03 -1.67707E+04 -1.13127E+04
 -8.98973E+03 -1.32150E+04 -7.78043E+02 -1.78231E+04  7.72494E+03 -2.26655E+04  1.57597E+04 -1.33754E+04
  1.15802E+04  5.14676E+03 -8.42055E+03  1.32513E+04 -2.17823E+04 -5.14333E+03 -8.11704E+03 -3.46395E+04
  2.35147E+04 -4.33430E+04  4.93916E+04 -2.02097E+04  4.53131E+04  1.95294E+04  1.56642E+04  4.47093E+04
 -1.64861E+04  3.44759E+04 -2.60543E+04  1.76747E+03 -1.00617E+04 -2.80495E+04  2.05042E+04 -3.41221E+04
  4.20949E+04 -9.88181E+03  3.63292E+04  2.41982E+04  1.92622E+04  4.69647E+04 -7.46640E+03  5.17182E+04
 -3.20848E+04  3.46536E+04 -4.27121E+04  9.54008E+03 -4.34582E+04 -1.73447E+04 -2.39539E+04 -3.83734E+04
  7.68185E+03 -3.84729E+04  3.15760E+04 -1.46387E+04  2.99183E+04  1.12327E+04  4.22734E+03  1.89046E+04
 -1.36349E+04  9.04008E+03 -1.06422E+04 -7.40619E+03  5.83210E+03 -1.10519E+04  1.79140E+04  5.49611E+03
  1.32322E+04  2.27002E+04 -6.31504E+03  2.58421E+04 -2.23617E+04  1.21194E+04 -2.90929E+04 -4.69256E+03
 -2.14030E+04 -1.74490E+04 -9.57793E+03 -2.13483E+04  4.42903E+03 -2.08048E+04  1.59519E+04 -1.94307E+04
  2.73029E+04 -1.33873E+04  3.33538E+04  3.67024E+03  2.44969E+04  2.01958E+04  4.62256E+03  3.78193E+04
 -1.76644E+04  3.12356E+04 -2.81305E+04  1.11149E+04 -2.06287E+04 -1.03575E+04 -4.22352E+03 -1.32117E+04
  1.51719E+03 -3.00905E+03 -5.88427E+03  6.84712E+03 -1.70769E+04  5.13483E+03 -1.69284E+04 -7.35293E+03
 -1.03915E+04 -1.93608E+04  4.86908E+03 -2.36308E+04  1.57814E+04 -1.74866E+04  1.88365E+04 -1.75497E+03
  1.18116E+04  1.34573E+04 -1.18843E+03  1.99737E+04 -1.31606E+04  1.09175E+04 -1.99258E+04 -3.78730E+03
 -1.46750E+04 -1.76310E+04 -1.87880E+03 -2.37892E+04  1.16316E+04 -1.93961E+04  1.99251E+04 -9.69646E+03
  1.78903E+04  2.19775E+02  1.30735E+04  4.15795E+03  6.77302E+03  1.45040E+03  1.02240E+04 -1.67135E+03
  1.75298E+04  2.28640E+03  2.01784E+04  1.52297E+04  1.34692E+04  3.10733E+04 -2.32889E+03  3.59713E+04
 -1.97900E+04  2.87758E+04 -3.28900E+04  1.45794E+04 -3.47850E+04 -2.46456E+03 -2.85080E+04 -2.01696E+04
 -1.25912E+04 -2.85236E+04  1.03101E+04 -2.55305E+04  2.19089E+04 -1.32099E+04  1.97943E+04  5.24500E+03
  7.29849E+03  1.46001E+04 -9.37531E+03  1.36062E+04 -1.64001E+04  2.71272E+03 -1.34865E+04 -1.00846E+04
 -1.05459E+03 -1.57285E+04  8.24052E+03 -1.19413E+04  1.08898E+04 -1.60955E+03  2.27961E+03  7.27434E+03
 -6.56101E+03  2.66325E+03 -6.90479E+03 -5.76951E+03 -9.95957E+02 -1.36333E+04  9.63894E+03 -1.44365E+04
  1.70756E+04 -8.26011E+03  1.88631E+04  3.19290E+03  1.72174E+04  1.37407E+04  7.31581E+03  2.09764E+04
 -3.88292E+03  2.30445E+04 -1.51046E+04  1.35497E+04 -1.66497E+04  3.28558E+03 -1.14604E+04 -3.87670E+03
 -5.42323E+03 -4.79272E+03 -5.93037E+02  8.45311E+02 -2.22233E+03  2.41073E+03 -5.12948E+03  4.52092E+03
 -1.07878E+04 -1.21008E+02 -1.15579E+04 -9.16736E+03 -4.80264E+03 -1.50693E+04  4.90945E+03 -1.12321E+04
  9.42611E+03 -4.81792E+03  7.23276E+03  2.77544E+03  6.35379E+02  4.68157E+03 -5.22475E+03  2.27644E+02
 -5.26918E+03 -7.38438E+03 -1.49461E+03 -1.03736E+04  6.86485E+03 -1.21131E+04  1.42550E+04 -6.43829E+03
  1.74717E+04  5.46304E+02  1.25632E+04  1.00356E+04  2.15726E+03  1.35968E+04 -6.99630E+03  1.15845E+04
 -9.65999E+03  3.51944E+03 -4.47064E+03 -2.49813E+03  1.61495E+03 -2.68204E+03  6.23648E+03 -1.19217E+03
  5.88882E+03  5.60559E+03  1.29069E+03  9.00829E+03 -6.22797E+03  8.88706E+03 -1.09683E+04  2.17000E+03
 -6.95045E+03 -5.68655E+03  1.66038E+02 -9.42509E+03  5.26206E+03 -4.72762E+03  6.23910E+03  1.82932E+03
  1.19159E+03  6.62922E+03 -5.97295E+03  7.98685E+03 -8.83030E+03  3.93217E+03 -8.88110E+03 -3.51203E+03
 -4.96134E+03 -1.01946E+04  2.43580E+03 -1.21775E+04  1.01809E+04 -7.41640E+03  1.10597E+04  1.80151E+03
  7.52189E+03  9.11015E+03 -5.79047E+02  1.10111E+04 -7.78823E+03  6.63348E+03 -8.52037E+03 -2.57655E+02
 -7.29146E+03 -7.13798E+03 -1.24680E+03 -7.58966E+03  3.85159E+03 -7.21952E+03  5.25186E+03 -3.16816E+03
  3.75777E+03  4.08354E+02 -7.65001E+02  2.07127E+03 -4.54701E+02 -2.06832E+03  7.03828E+02 -4.35065E+03
  7.48584E+03 -1.93170E+03  1.02045E+04  1.22567E+03  1.05347E+04  6.54558E+03  6.53813E+03  1.31331E+04
 -2.90870E+03  1.51359E+04 -1.28896E+04  1.07579E+04 -1.62878E+04  1.81163E+03 -1.28554E+04 -4.66487E+03
 -7.06261E+03 -1.09958E+04 -9.15003E+02 -9.17140E+03  3.07307E+03 -4.76391E+03  2.96625E+03 -2.91035E+03
  2.47762E+03 -2.52199E+03  2.88304E+03 -2.47604E+03  4.49351E+03 -2.72944E+03  5.48246E+03 -1.00670E+03
  7.64213E+03  2.09962E+03  3.02646E+03  5.56866E+03 -1.58964E+03  6.87667E+03 -7.44084E+03  5.09642E+03
 -8.98158E+03 -1.80834E+03 -4.66769E+03 -6.34546E+03 -3.29246E+02 -9.61845E+03  5.71607E+03 -9.81879E+03
  9.54398E+03 -6.33224E+03  1.19406E+04  9.98382E+02  8.00279E+03  7.74005E+03  1.88634E+03  1.15333E+04
 -4.03994E+03  9.13983E+03 -5.93619E+03  3.59101E+03 -4.13648E+03 -1.57277E+03 -1.68356E+03 -1.47261E+03
 -1.40607E+03 -4.15301E+02 -2.00508E+03  2.29471E+03 -3.71555E+03  1.88830E+03 -6.74479E+03 -1.16571E+03
 -4.51739E+03 -6.29321E+03  2.78086E+02 -8.58408E+03  4.87518E+03 -7.57142E+03  7.48589E+03 -2.06351E+03
  8.36286E+03  4.72388E+03  3.89509E+03  7.25514E+03 -1.48896E+03  8.34773E+03 -5.34989E+03  5.16204E+03
 -7.63014E+03  1.06341E+02 -6.38923E+03 -5.01419E+03 -6.01292E+02 -6.84964E+03  3.71092E+03 -4.98604E+03
  4.93957E+03 -2.08070E+03  4.01209E+03  1.77081E+03  1.44605E+03  3.20550E+03  6.02983E+02  1.01104E+03
  1.77181E+03  5.05013E+02  2.35785E+03  1.35700E+03  3.22050E+03  3.12470E+03  2.68318E+03  4.13467E+03
 -2.13839E+03  6.05112E+03 -5.10472E+03  6.73050E+03 -7.84506E+03  2.32857E+03 -9.03625E+03 -2.96972E+03
 -4.56624E+03 -7.61044E+03  1.34400E+03 -9.42026E+03  4.02175E+03 -6.20987E+03  6.45519E+03 -1.20753E+03
  5.02514E+03  2.98156E+03  4.85164E+02  4.78913E+03 -1.83859E+03  2.56379E+03 -2.85130E+03 -1.34214E+03
 -1.59827E+03 -3.49627E+03  2.29175E+03 -2.76681E+03  3.09765E+03 -2.02212E+03  3.02463E+03  4.06711E+02
  1.20514E+03  1.49121E+03  1.33775E+03  5.62809E+02 -3.72885E+02  1.26181E+03  1.57405E+03 -1.40800E+02
  1.94429E+02 -1.60564E+02  3.04214E+03  1.27461E+03  1.12757E+03  4.04864E+03 -1.37567E+03  5.42603E+03
 -3.75805E+03  3.24986E+03 -4.20276E+03  1.14036E+03 -4.32938E+03 -1.82842E+03 -9.72955E+02 -2.73026E+03
  6.68659E+02 -2.48069E+03  2.20284E+03 -1.18085E+03  2.29767E+03  1.80598E+03 -8.77606E+02  2.77933E+03
 -2.97263E+03  1.46071E+03 -3.03996E+03 -2.48460E+03 -2.21433E+03 -4.49156E+03  5.19292E+02 -3.86072E+03
  2.11355E+03 -2.33943E+03  2.45848E+03 -1.96672E+02  2.37836E+03  2.21229E+02  5.46220E+02  2.89967E+03
 -1.05664E+03  4.64319E+02 -2.18735E+03 -1.33626E+03  1.11623E+03 -3.10905E+03  3.62175E+03 -2.44081E+03
  3.85196E+03  5.71723E+02  4.56301E+03  2.56442E+03  2.04862E+03  4.38344E+03 -8.98708E+02  4.05662E+03
 -3.76571E+03  1.74008E+03 -3.40370E+03 -9.82823E+02 -1.99641E+03 -3.03133E+03  6.10746E+02 -2.91420E+03
  3.26274E+03 -1.00263E+03  1.91419E+03  1.06447E+03  1.08113E+03  2.89501E+03 -2.47099E+02  2.17890E+03
 -9.14304E+02  2.19041E+03 -1.32741E+03  6.95828E+02 -2.29094E+02  6.67869E+02 -7.55242E+02  1.46943E+03
 -1.23466E+03  9.95546E+02 -3.67140E+03  1.34455E+03 -3.81962E+03 -2.74820E+01 -4.90285E+03 -2.41424E+03
 -3.16933E+03 -6.27320E+03  1.51291E+03 -6.71950E+03  3.69387E+03 -5.20753E+03  5.90806E+03 -2.25961E+03
  5.25248E+03  8.09753E+02  2.80767E+03  4.16468E+03  2.67794E+01  4.33408E+03 -2.22501E+03  3.62323E+03
 -2.53379E+03  9.33285E+02 -1.35721E+03 -3.76562E+02 -1.29470E+03 -4.55378E+02 -2.50640E+02 -2.39376E+02
 -1.43352E+03  2.77825E+02 -9.92024E+02  5.58066E+02 -1.65998E+02 -1.40154E+03  1.76965E+02 -1.33887E+03
  2.01714E+03 -2.32309E+03  2.05044E+03 -2.36318E+02  2.84325E+03  2.27509E+03 -1.65503E+02  3.69186E+03
 -2.76833E+03  4.78447E+03 -3.81141E+03  3.33791E+03 -5.07399E+03 -2.46936E+02 -3.07214E+03 -2.52967E+03
 -1.53428E+03 -3.78414E+03  9.07621E+02 -3.19890E+03  2.66551E+03 -1.81066E+03  2.23230E+03  2.26120E+02
  2.18792E+03  7.28011E+02 -4.94242E+01  1.76872E+03 -9.73483E+02 -6.93894E+02  3.35930E+02 -1.56322E+03
  8.48503E+02 -3.66263E+02  1.32934E+03  3.92577E+02  8.32021E+02  8.58380E+02  4.61706E+02  1.65730E+03
 -1.68756E+03  1.60616E+03 -1.69841E+03  8.53900E+02 -1.94371E+03 -1.89888E+03 -2.42728E+02 -2.40204E+03
  1.61813E+03 -2.23770E+03  2.56273E+03 -3.74194E+02  2.37072E+03 -9.65646E+01  1.07517E+03  2.23139E+03
  7.95632E+02  2.26378E+03 -3.70491E+02  2.25821E+03 -1.37461E+03  8.59230E+02 -1.96501E+03  1.48228E+02
 -5.20371E+02  2.90439E+02 -1.30886E+03  4.59713E+02 -1.41162E+03  2.88604E+02 -2.34866E+03 -3.85064E+02
 -2.11642E+03 -8.50439E+02 -5.84531E+02 -2.12384E+03  1.18831E+03 -2.91433E+03  1.85871E+03 -1.08191E+03
  1.87547E+03  2.84279E+02  1.20702E+03  1.01501E+03  1.50657E+02  2.33391E+03 -1.20993E+03  2.30939E+03
