 $NMID ID='MM_0lb_SNR400_15hz_g60_40.RAW', FMTDAT='(8E13.5)'
 TRAMP=1., VOLUME=1. $END
  3.10021E+05  7.16812E+02  3.37405E+05  2.50767E+05  8.46843E+04  3.37770E+05 -1.33637E+05  2.51185E+05
 -1.90021E+05  8.35072E+04 -1.12107E+05 -3.31028E+04  4.52286E+02 -5.11054E+04  5.42490E+04 -2.20333E+02
  3.55668E+04  5.29947E+04 -1.71945E+04  7.58377E+04 -6.06355E+04  6.39870E+04 -8.37720E+04  3.22151E+04
 -8.20908E+04 -1.11377E+04 -5.78930E+04 -5.13833E+04 -1.54608E+04 -7.02664E+04  2.76559E+04 -4.59249E+04
  4.04815E+04  3.86722E+03  1.67689E+04  4.73165E+04 -3.42747E+04  4.66731E+04 -6.70422E+04 -5.91319E+02
 -5.36433E+04 -5.71126E+04 -7.05888E+03 -7.72235E+04  3.39170E+04 -5.54318E+04  4.87798E+04 -1.78395E+04
  4.38715E+04  1.10055E+04  3.23177E+04  2.61760E+04  1.51699E+04  2.95230E+04 -5.06599E+03  2.77912E+04
 -2.19004E+04  1.21997E+04 -1.84422E+04 -5.36806E+03  5.41767E+03 -7.67256E+03  2.20679E+04  1.27569E+04
  7.19707E+03  3.56342E+04 -3.30190E+04  3.60489E+04 -6.35182E+04  2.27340E+03 -5.79954E+04 -4.34513E+04
 -1.26079E+04 -6.38266E+04  4.04469E+04 -4.59667E+04  5.84850E+04 -1.52608E+03  3.42506E+04  3.24238E+04
 -5.68547E+03  3.66807E+04 -3.07241E+04  1.64535E+04 -3.07183E+04 -4.34373E+03 -1.70144E+04 -1.12270E+04
 -8.61254E+03 -1.37341E+04 -2.47982E+02 -1.83793E+04  7.14031E+03 -2.34153E+04  1.57872E+04 -1.33556E+04
  1.12010E+04  5.34247E+03 -8.82717E+03  1.29793E+04 -2.09295E+04 -4.42696E+03 -7.95147E+03 -3.47113E+04
  2.33084E+04 -4.39144E+04  4.89169E+04 -1.98338E+04  4.60792E+04  1.98144E+04  1.64439E+04  4.45291E+04
 -1.60281E+04  3.43920E+04 -2.55369E+04  1.54924E+03 -9.57556E+03 -2.86682E+04  2.14107E+04 -3.45161E+04
  4.17362E+04 -9.44043E+03  3.62757E+04  2.44592E+04  1.83153E+04  4.76075E+04 -7.83324E+03  5.09573E+04
 -3.23038E+04  3.45860E+04 -4.25727E+04  9.91863E+03 -4.37143E+04 -1.72805E+04 -2.36094E+04 -3.81597E+04
  7.23943E+03 -3.85125E+04  3.28273E+04 -1.46868E+04  2.98103E+04  1.10962E+04  4.15524E+03  1.97713E+04
 -1.33108E+04  8.76816E+03 -1.08246E+04 -6.99386E+03  5.45161E+03 -1.09119E+04  1.83686E+04  5.85768E+03
  1.33566E+04  2.28211E+04 -5.51573E+03  2.48049E+04 -2.25019E+04  1.17178E+04 -2.80267E+04 -4.63031E+03
 -2.14871E+04 -1.71009E+04 -9.02222E+03 -2.09675E+04  4.17783E+03 -2.09947E+04  1.63096E+04 -1.82833E+04
  2.71986E+04 -1.27354E+04  3.31148E+04  3.00119E+03  2.44138E+04  2.08097E+04  3.91165E+03  3.74591E+04
 -1.79919E+04  3.10125E+04 -2.80543E+04  1.05451E+04 -2.14532E+04 -1.00976E+04 -4.26795E+03 -1.28326E+04
  2.31763E+03 -2.38697E+03 -4.99686E+03  6.67416E+03 -1.63194E+04  5.16606E+03 -1.67905E+04 -7.25802E+03
 -1.09040E+04 -1.96470E+04  5.35509E+03 -2.33559E+04  1.56666E+04 -1.64274E+04  1.83577E+04 -1.65094E+03
  1.15146E+04  1.37132E+04 -9.45031E+02  1.91492E+04 -1.31704E+04  1.09263E+04 -1.96040E+04 -3.98281E+03
 -1.48083E+04 -1.75210E+04 -1.86097E+03 -2.36997E+04  1.08216E+04 -1.93338E+04  2.00094E+04 -9.17472E+03
  1.80094E+04  1.41372E+02  1.30816E+04  4.72659E+03  6.12091E+03  1.01890E+03  9.52592E+03 -2.07578E+03
  1.83116E+04  2.60762E+03  2.00588E+04  1.51163E+04  1.27294E+04  3.05548E+04 -2.73431E+03  3.52077E+04
 -2.02627E+04  2.76638E+04 -3.29910E+04  1.46904E+04 -3.48435E+04 -2.44912E+03 -2.80325E+04 -2.03062E+04
 -1.16548E+04 -2.82326E+04  9.58958E+03 -2.60424E+04  2.24769E+04 -1.28820E+04  1.92291E+04  5.50320E+03
  7.02668E+03  1.41120E+04 -9.40995E+03  1.20012E+04 -1.62372E+04  2.51079E+03 -1.18434E+04 -9.84342E+03
 -9.36442E+02 -1.63845E+04  7.89276E+03 -1.15511E+04  1.05311E+04 -1.04158E+03  2.14791E+03  7.04178E+03
 -6.62756E+03  2.68721E+03 -7.03040E+03 -5.68792E+03 -6.12677E+02 -1.30492E+04  1.00859E+04 -1.44740E+04
  1.72560E+04 -7.21901E+03  1.76818E+04  3.01328E+03  1.61393E+04  1.37522E+04  7.46789E+03  2.04903E+04
 -3.32100E+03  2.27318E+04 -1.47623E+04  1.39347E+04 -1.59011E+04  3.32199E+03 -1.11173E+04 -3.28325E+03
 -4.56429E+03 -5.03884E+03 -9.67026E+02  7.76209E+02 -2.60209E+03  2.13397E+03 -5.14585E+03  4.09273E+03
 -1.12270E+04 -6.03873E+02 -1.17262E+04 -9.01947E+03 -4.18516E+03 -1.50601E+04  4.94602E+03 -1.20914E+04
  9.58758E+03 -5.01590E+03  6.77213E+03  2.67933E+03  3.52266E+02  4.26755E+03 -5.49398E+03 -1.71581E+02
 -5.46157E+03 -7.86811E+03 -1.09476E+03 -1.04374E+04  6.52395E+03 -1.19274E+04  1.44459E+04 -5.82622E+03
  1.63633E+04  1.28971E+03  1.18011E+04  8.91127E+03  2.75750E+03  1.25297E+04 -7.14423E+03  1.11847E+04
 -9.75325E+03  3.24952E+03 -4.19962E+03 -2.20355E+03  1.09933E+03 -2.75283E+03  6.73914E+03 -3.25955E+02
  5.44629E+03  4.67404E+03  9.69751E+02  8.95315E+03 -6.41613E+03  9.08039E+03 -1.10435E+04  2.47461E+03
 -7.14182E+03 -4.96038E+03  4.83086E+02 -9.18392E+03  5.90702E+03 -5.49935E+03  5.13022E+03  2.44150E+03
  1.59359E+03  6.34477E+03 -6.31657E+03  7.63756E+03 -8.13960E+03  3.55759E+03 -8.19729E+03 -3.08431E+03
 -4.49423E+03 -9.78079E+03  2.52338E+03 -1.13929E+04  9.55150E+03 -6.59598E+03  1.05430E+04  1.86362E+03
  6.03104E+03  8.58417E+03 -5.55539E+02  1.02004E+04 -7.53712E+03  5.70485E+03 -8.06649E+03 -1.01599E+03
 -7.69533E+03 -7.14395E+03 -1.76438E+03 -7.97851E+03  3.37557E+03 -6.58267E+03  5.07040E+03 -3.65275E+03
  4.00407E+03  1.15408E+03 -6.65078E+02  2.09510E+03 -1.41299E+02 -1.92139E+03  9.89760E+02 -4.54207E+03
  6.41840E+03 -2.00610E+03  9.13896E+03  1.41091E+03  9.51536E+03  5.67685E+03  6.68142E+03  1.21176E+04
 -2.08344E+03  1.33679E+04 -1.24105E+04  1.04836E+04 -1.51606E+04  2.25097E+03 -1.27917E+04 -4.44749E+03
 -6.35155E+03 -1.00161E+04 -2.14915E+02 -8.91690E+03  3.49807E+03 -4.48162E+03  2.41088E+03 -3.44596E+03
  2.54795E+03 -2.29118E+03  2.62392E+03 -2.28664E+03  4.35397E+03 -2.27809E+03  5.51280E+03 -2.59083E+02
  7.42150E+03  1.68173E+03  2.82872E+03  5.42211E+03 -1.27471E+03  5.62602E+03 -6.88321E+03  5.10821E+03
 -7.99183E+03 -1.21971E+03 -4.45002E+03 -5.52950E+03 -2.38790E+02 -8.39823E+03  4.76369E+03 -8.83674E+03
  9.24188E+03 -5.34458E+03  1.10088E+04  1.76512E+03  7.72790E+03  7.20381E+03  1.70568E+03  1.02574E+04
 -3.66508E+03  8.60538E+03 -5.13116E+03  3.40808E+03 -3.25866E+03 -1.70374E+03 -1.19382E+03 -5.85185E+02
 -1.00610E+03  1.17524E+02 -1.58417E+03  2.68742E+03 -3.44522E+03  1.63826E+03 -6.30013E+03 -8.47338E+02
 -3.37910E+03 -5.95530E+03  9.47102E+02 -7.94941E+03  4.96792E+03 -6.92471E+03  6.64538E+03 -2.18331E+03
  6.79126E+03  3.76037E+03  3.84079E+03  5.86176E+03 -9.98754E+02  8.04236E+03 -4.70615E+03  4.39010E+03
 -6.77261E+03  5.73987E+02 -5.92998E+03 -4.58472E+03 -3.75513E+01 -5.91383E+03  3.17320E+03 -5.08123E+03
  4.64072E+03 -1.98742E+03  3.25690E+03  1.25888E+03  7.30490E+02  2.53894E+03  1.49814E+03  1.59108E+03
  2.39616E+03  8.05260E+02  1.85877E+03  1.29009E+03  1.84011E+03  3.19684E+03  1.54884E+03  3.30838E+03
 -1.69801E+03  6.16937E+03 -4.59266E+03  6.50066E+03 -6.08786E+03  2.22155E+03 -7.39063E+03 -2.19641E+03
 -3.52236E+03 -6.39510E+03  7.88659E+02 -8.14107E+03  3.87894E+03 -4.94905E+03  5.18702E+03 -1.50389E+03
  4.38820E+03  2.83279E+03  1.05219E+03  4.66561E+03 -1.58494E+03  2.77246E+03 -2.91375E+03  3.86029E+02
 -7.71956E+02 -2.85860E+03  1.91994E+03 -3.25967E+03  2.49829E+03 -1.88716E+03  3.38935E+03  4.26669E+02
  1.42997E+03  1.58460E+03  7.93135E+02  7.07317E+02 -8.09328E+02  1.08089E+03  1.56065E+03 -2.90259E+02
  4.42278E+02 -6.74857E+02  2.68929E+03  1.93364E+03  1.11335E+03  3.92565E+03 -5.28690E+02  5.06972E+03
 -3.04446E+03  3.47265E+03 -4.12810E+03  7.96544E+02 -3.89236E+03 -1.54240E+03 -1.08611E+03 -1.62097E+03
  4.91908E+02 -3.01251E+03  1.98834E+03 -1.76061E+03  1.51682E+03  2.00741E+03 -9.55796E+02  2.20478E+03
 -3.12685E+03  9.47018E+02 -2.40421E+03 -1.21052E+03 -1.66257E+03 -3.98002E+03  3.20075E+02 -3.59838E+03
  9.76585E+02 -9.75301E+02  2.11149E+03 -4.12638E+02  2.26859E+03  4.69844E+02  6.68067E+02  2.19843E+03
 -1.05382E+03  5.93276E+02 -1.20764E+03 -1.20163E+03  1.68483E+02 -2.65418E+03  2.34036E+03 -1.50733E+03
  2.82587E+03  3.35547E+02  4.73028E+03  2.04558E+03  1.54664E+03  3.24344E+03 -1.07098E+03  3.12570E+03
 -3.05869E+03  1.27641E+03 -2.56187E+03 -5.92909E+02 -1.92195E+03 -2.22304E+03  4.34144E+02 -2.11842E+03
  2.25021E+03 -1.51931E+03  1.51021E+03  5.98965E+02  9.80442E+02  1.62060E+03  6.31112E+01  2.09151E+03
 -6.30071E+02  1.93162E+03 -9.39647E+02  3.15332E+02 -7.59101E+02  5.87491E+01 -1.15236E+03  9.81623E+02
 -1.19087E+03  2.36194E+03 -2.56803E+03  1.37258E+03 -3.49330E+03  4.56223E+02 -4.66424E+03 -1.71117E+03
 -1.68524E+03 -4.60903E+03  8.67337E+02 -5.22640E+03  2.60434E+03 -4.54657E+03  4.75341E+03 -1.76421E+03
  4.77265E+03  5.37250E+02  2.39484E+03  3.05163E+03 -8.50190E+02  3.24237E+03 -2.10052E+03  2.88187E+03
 -2.65575E+03  1.12144E+03 -7.82540E+02 -7.12512E+02 -4.05262E+02  2.09468E+02 -3.39884E+02  3.34643E+02
 -9.83921E+02 -3.07834E+01 -9.81765E+02  2.38032E+02  1.67739E+02 -5.25093E+02  4.38391E+01 -7.69941E+02
  1.34096E+03 -1.27647E+03  1.86910E+03  1.77034E+02  2.54367E+03  1.26060E+03 -4.55067E+02  3.42753E+03
 -1.20913E+03  3.78895E+03 -3.58908E+03  2.44902E+03 -4.54578E+03 -6.41252E+02 -3.68158E+03 -2.79925E+03
 -1.41689E+03 -2.94951E+03  9.92262E+02 -3.68702E+03  1.88324E+03 -1.84517E+03  2.71990E+03  1.10454E+03
  1.55107E+03  3.47527E+02 -3.07131E+01  8.48561E+02 -8.16869E+02 -1.01931E+03  4.29780E+02 -4.88819E+02
  1.33856E+03 -2.89855E+02  1.05702E+03  5.98005E+02  3.27361E+02  1.24684E+03  4.27428E+02  1.02184E+03
 -1.06253E+03  1.31931E+03 -1.53735E+03  2.43035E+02 -1.71316E+03 -2.09627E+03  9.97207E+00 -2.72033E+03
  1.90447E+03 -1.72861E+03  1.64678E+03 -1.56152E+02  1.83087E+03  6.09567E+01  1.25517E+03  1.75806E+03
  7.11530E+02  1.47035E+03 -7.43735E+02  2.00046E+03 -1.28708E+03  9.84684E+02 -8.36781E+02 -2.20298E+02
 -2.53318E+02  4.43048E+02 -3.00754E+02  5.54273E+02 -1.08527E+03  5.88833E+02 -8.75763E+02 -6.15323E+01
 -1.36260E+03 -1.41737E+02 -1.00895E+03 -1.09099E+03  1.56923E+03 -2.30009E+03  1.55589E+03 -4.84641E+02
  1.17170E+03  1.62895E+02 -7.75207E+01  8.78975E+02 -3.14511E+02  2.25522E+03 -1.59979E+03  9.96118E+02
