 $NMID ID='MM_0lb_SNR400_19hz_g60_43.RAW', FMTDAT='(8E13.5)'
 TRAMP=1., VOLUME=1. $END
  3.09537E+05  1.29456E-01  3.37692E+05  2.50570E+05  8.49265E+04  3.37389E+05 -1.32297E+05  2.50682E+05
 -1.90193E+05  8.33725E+04 -1.10907E+05 -3.22130E+04  8.73681E+02 -4.99505E+04  5.41944E+04 -2.07705E+02
  3.49989E+04  5.33436E+04 -1.69276E+04  7.53424E+04 -6.14359E+04  6.36245E+04 -8.28887E+04  3.21087E+04
 -8.05633E+04 -1.12626E+04 -5.71399E+04 -5.08833E+04 -1.51172E+04 -6.86598E+04  2.69226E+04 -4.53032E+04
  3.97886E+04  3.98275E+03  1.61347E+04  4.72103E+04 -3.41152E+04  4.62786E+04 -6.60213E+04 -4.46462E+02
 -5.26429E+04 -5.62177E+04 -6.51085E+03 -7.61461E+04  3.35436E+04 -5.40536E+04  4.66489E+04 -1.74565E+04
  4.23201E+04  1.16045E+04  3.13082E+04  2.50243E+04  1.57182E+04  2.93011E+04 -5.07935E+03  2.66421E+04
 -2.20384E+04  1.27522E+04 -1.86889E+04 -4.42243E+03  4.87037E+03 -7.10703E+03  2.15642E+04  1.13918E+04
  7.52692E+03  3.40517E+04 -3.04315E+04  3.51606E+04 -6.24068E+04  2.13761E+03 -5.57975E+04 -4.19345E+04
 -1.20620E+04 -6.24200E+04  3.89819E+04 -4.37855E+04  5.61808E+04 -1.97644E+03  3.32150E+04  3.15864E+04
 -6.66791E+03  3.39783E+04 -2.87926E+04  1.45080E+04 -2.85945E+04 -4.89046E+03 -1.57202E+04 -1.01424E+04
 -7.76618E+03 -1.19435E+04 -4.58665E+02 -1.69981E+04  7.13677E+03 -2.27634E+04  1.50431E+04 -1.33219E+04
  1.21943E+04  5.52099E+03 -7.26775E+03  1.36247E+04 -2.02599E+04 -3.45633E+03 -8.52901E+03 -3.17322E+04
  2.11397E+04 -4.17103E+04  4.62678E+04 -1.94149E+04  4.30479E+04  1.90766E+04  1.45184E+04  4.29513E+04
 -1.54327E+04  3.25594E+04 -2.43239E+04  1.49496E+03 -9.34419E+03 -2.70194E+04  2.05672E+04 -3.20904E+04
  3.91556E+04 -8.28176E+03  3.36076E+04  2.30835E+04  1.56310E+04  4.42684E+04 -7.87056E+03  4.78690E+04
 -2.96760E+04  3.15070E+04 -3.92259E+04  8.74986E+03 -3.98517E+04 -1.60981E+04 -2.14388E+04 -3.60853E+04
  7.27322E+03 -3.57870E+04  3.04040E+04 -1.38646E+04  2.80063E+04  1.07321E+04  3.49561E+03  1.87289E+04
 -1.31191E+04  7.91881E+03 -9.68967E+03 -7.74857E+03  5.86402E+03 -1.02569E+04  1.77654E+04  6.20363E+03
  1.31473E+04  2.15440E+04 -6.49285E+03  2.42650E+04 -2.21482E+04  1.01488E+04 -2.59104E+04 -6.12957E+03
 -1.82837E+04 -1.66717E+04 -6.50281E+03 -1.75996E+04  3.87052E+03 -1.69523E+04  1.35414E+04 -1.59584E+04
  2.27862E+04 -1.17224E+04  2.93773E+04  1.91218E+03  2.25958E+04  1.75239E+04  4.19170E+03  3.33567E+04
 -1.67790E+04  2.89307E+04 -2.69141E+04  9.65522E+03 -2.05431E+04 -1.04146E+04 -3.84697E+03 -1.34564E+04
  2.69911E+03 -3.53619E+03 -3.30253E+03  5.68552E+03 -1.42472E+04  4.91409E+03 -1.40763E+04 -5.20823E+03
 -8.87077E+03 -1.65749E+04  4.60194E+03 -2.02337E+04  1.32148E+04 -1.52097E+04  1.58869E+04 -1.45145E+03
  9.26012E+03  1.16745E+04 -5.16599E+02  1.66514E+04 -1.12611E+04  8.81252E+03 -1.63128E+04 -3.31576E+03
 -1.20797E+04 -1.47899E+04 -6.35902E+02 -1.97056E+04  8.85032E+03 -1.64725E+04  1.69002E+04 -7.70819E+03
  1.57793E+04  2.45678E+02  1.10776E+04  4.22900E+03  5.59780E+03  4.77810E+02  8.30958E+03 -1.63384E+03
  1.48720E+04  2.93427E+03  1.54413E+04  1.32420E+04  1.03158E+04  2.57176E+04 -3.64269E+03  2.90916E+04
 -1.68760E+04  2.24768E+04 -2.61857E+04  1.07174E+04 -2.70695E+04 -1.14386E+03 -2.27600E+04 -1.54995E+04
 -1.04748E+04 -2.20535E+04  7.41651E+03 -2.07415E+04  1.74244E+04 -1.12371E+04  1.63781E+04  4.29028E+03
  6.62937E+03  1.19568E+04 -7.66211E+03  1.08128E+04 -1.37510E+04  2.91845E+03 -1.05175E+04 -8.61036E+03
 -3.00265E+02 -1.29717E+04  6.39154E+03 -1.01500E+04  8.16097E+03 -1.53260E+03  1.39636E+03  5.64546E+03
 -5.69471E+03  1.66301E+03 -4.00967E+03 -4.74611E+03  2.21618E+02 -1.06648E+04  7.89959E+03 -1.12540E+04
  1.32011E+04 -5.34796E+03  1.29210E+04  2.70486E+03  1.13143E+04  1.05560E+04  5.74162E+03  1.51887E+04
 -1.79735E+03  1.72069E+04 -1.04386E+04  1.11608E+04 -1.22897E+04  3.36241E+03 -8.96228E+03 -2.20015E+03
 -4.70676E+03 -3.81450E+03 -1.12116E+03  9.08467E+02 -1.97005E+03  2.38117E+03 -4.10317E+03  3.93661E+03
 -8.12054E+03  3.30276E+02 -9.31795E+03 -7.52778E+03 -3.78511E+03 -1.19167E+04  3.47641E+03 -9.13599E+03
  7.40572E+03 -4.29697E+03  5.40848E+03  2.05890E+03  7.52880E+02  3.21614E+03 -4.16230E+03  4.19372E+02
 -3.58659E+03 -5.79590E+03 -7.75931E+02 -7.55928E+03  4.09055E+03 -8.41736E+03  1.06654E+04 -4.56314E+03
  1.25421E+04  7.08757E+02  9.15355E+03  6.65379E+03  2.06510E+03  9.42211E+03 -5.59150E+03  8.67217E+03
 -7.37497E+03  2.73522E+03 -3.62856E+03 -1.09402E+03  1.30367E+03 -2.31678E+03  5.03818E+03 -1.16771E+03
  4.13562E+03  3.25289E+03  7.89672E+02  7.15601E+03 -4.71393E+03  6.86152E+03 -8.22033E+03  1.26082E+03
 -5.52347E+03 -3.84466E+03  6.18809E+02 -7.02321E+03  3.64614E+03 -3.56149E+03  3.20872E+03  1.08200E+03
 -1.20451E+02  3.26219E+03 -4.13879E+03  5.45855E+03 -5.28337E+03  2.14237E+03 -4.84730E+03 -1.14867E+03
 -2.77925E+03 -5.75193E+03  1.39459E+03 -7.31427E+03  6.43331E+03 -4.45922E+03  7.06675E+03  1.08887E+03
  5.30964E+03  5.31038E+03  5.49301E+02  7.06097E+03 -4.94899E+03  4.28060E+03 -5.20187E+03  2.40364E+02
 -5.72674E+03 -5.54753E+03 -1.60377E+03 -4.82057E+03  2.65716E+03 -5.05611E+03  2.96254E+03 -2.76332E+03
  2.66886E+03 -6.64747E+01  2.35079E+02  1.37350E+03  1.66588E+02  4.92582E+01 -1.73161E+01 -1.78715E+03
  3.65489E+03 -1.26473E+03  5.79396E+03  6.75073E+02  6.09496E+03  3.11275E+03  5.05972E+03  7.54692E+03
 -1.05550E+03  8.34032E+03 -8.13587E+03  6.15539E+03 -1.05392E+04  1.28896E+03 -7.75901E+03 -2.47393E+03
 -4.27692E+03 -6.31685E+03 -3.32088E+02 -4.98810E+03  1.88002E+03 -2.17978E+03  1.61528E+03 -2.06276E+03
  9.68533E+02 -1.15900E+03  2.27508E+03 -2.64258E+03  3.43180E+03 -1.32824E+03  3.19822E+03  4.87523E+02
  4.64247E+03  1.05745E+03  6.11515E+02  3.30091E+03 -1.11463E+03  2.98762E+03 -3.75791E+03  2.33220E+03
 -4.84595E+03 -1.17643E+03 -2.20901E+03 -3.10979E+03  3.83440E+02 -5.64700E+03  3.36822E+03 -5.72596E+03
  5.36560E+03 -3.64065E+03  6.76373E+03  2.56359E+02  4.42391E+03  3.86297E+03  9.79711E+02  5.86910E+03
 -2.48105E+03  5.94963E+03 -3.42758E+03  1.92987E+03 -1.40593E+03 -1.24243E+03 -4.38939E+02 -2.10576E+02
 -7.04953E+02  5.35483E+02 -8.85535E+02  1.32221E+03 -2.72349E+03  9.56381E+02 -4.39077E+03  3.48810E+01
 -1.35974E+03 -4.37383E+03  7.60055E+02 -4.83953E+03  2.62604E+03 -4.31708E+03  3.83345E+03 -1.07244E+03
  3.78486E+03  2.65221E+03  1.67377E+03  3.39823E+03 -3.61702E+02  4.77538E+03 -3.17081E+03  2.93331E+03
 -4.02600E+03  1.91498E+02 -3.21933E+03 -2.84206E+03  1.52343E+01 -2.79684E+03  1.73373E+03 -2.46723E+03
  2.20329E+03 -1.45812E+03  1.54930E+03  5.57954E+02  1.43948E+02  1.84076E+03  9.84507E+02  3.85959E+01
  1.92810E+03  1.18285E+03  1.11049E+03  5.55526E+02  5.14682E+02  2.14991E+03  1.29662E+03  2.13012E+03
 -1.34461E+03  2.42309E+03 -2.15192E+03  3.59700E+03 -2.38824E+03  1.01242E+03 -3.19580E+03 -5.51649E+02
 -1.29545E+03 -3.45623E+03  6.64715E+02 -4.64201E+03  1.75395E+03 -2.20918E+03  2.65466E+03 -1.00058E+03
  2.26997E+03  1.35221E+03  3.56565E+02  2.46094E+03 -4.91797E+02  1.05597E+03 -1.06701E+03 -2.67516E+02
 -4.59125E+01 -1.26056E+03  6.78589E+02 -1.79844E+03  8.35212E+02 -1.13538E+03  1.01427E+03 -3.16841E+01
  1.08594E+03 -1.73154E+02  8.41075E+02 -4.18052E+02 -3.09054E+02  9.89915E+02  9.70782E+02 -2.05292E+02
  1.13764E+02 -8.24246E+01  1.99966E+03  4.33485E+02 -1.97047E+02  2.17652E+03 -2.56394E+02  2.16364E+03
 -2.26613E+03  7.19141E+02 -1.84826E+03  1.25931E+02 -2.23127E+03 -3.95357E+02  4.33474E+01 -8.45923E+02
  8.19164E+01 -9.65188E+02  7.37771E+02 -9.34833E+02  9.06806E+02  1.38672E+03 -4.58172E+02  1.04673E+03
 -4.77180E+02  5.79957E+02 -9.70833E+02 -6.15887E+02 -5.49186E+02 -1.87975E+03 -8.56270E+01 -1.17200E+03
  3.77734E+02 -2.21449E+02  7.82527E+02 -4.55742E+02  1.08107E+03 -4.95024E+02  9.17482E-01  1.14181E+03
 -1.33094E+02  6.56938E+02 -8.70501E+02  1.06368E+02  4.67388E+02 -4.92158E+02  1.35751E+03 -6.35769E+02
  8.28330E+02 -3.16943E+02  2.83378E+03  4.61413E+02  1.03056E+03  1.58515E+03  6.54596E+02  1.57333E+03
 -1.28537E+03  5.49927E+02 -9.27868E+02  4.56535E+02 -6.99978E+01 -9.66799E+02  2.73302E+02 -1.76484E+02
  9.39627E+02 -4.19739E+02  5.37692E+02  7.11582E+02  3.09611E+02  9.80423E+02  2.27842E+02  7.97301E+02
 -6.73962E+02  1.35225E+03 -1.83008E+02  3.57184E+02  3.04036E+02  4.49088E+02 -7.12992E+02  4.75225E+02
 -9.74658E+02  1.09534E+03 -1.69475E+03  3.23886E+02 -1.39505E+03 -1.63737E+01 -1.60312E+03 -5.51032E+02
 -8.14480E+02 -2.06759E+03  7.80549E+02 -2.70835E+03  2.10969E+02 -1.85507E+03  2.15332E+03 -8.05079E+02
  2.03078E+03  5.47090E+02  5.66179E+02  9.84402E+02 -6.31404E+02  1.47952E+03 -5.81120E+02  1.04283E+03
 -3.51641E+02  1.01196E+03 -5.61465E+02  1.13891E+02 -4.93810E+02  1.14650E+02 -5.33885E+02 -4.51395E+01
 -1.26250E+03 -3.52192E+02 -4.40576E+02 -3.81807E+02 -2.93497E+01 -3.60524E+02  2.11420E+02 -1.25825E+03
  1.56304E+03 -1.01971E+03 -2.45140E+01  1.61888E+02  8.25020E+02  9.81037E+02 -5.25764E+02  1.19636E+03
 -9.37343E+02  1.57804E+03 -1.25519E+03  1.33009E+03 -1.28055E+03 -2.99978E+02 -9.43139E+02 -1.41892E+03
 -5.74366E+02 -1.04097E+03  1.83503E+02 -6.10138E+02  1.00974E+03 -5.44812E+02  9.76532E+02 -1.31944E+02
  1.12495E+03  2.38742E+02 -2.46655E+00  2.25084E+02 -3.77403E+02 -1.20849E+01 -1.91198E+02 -4.31055E+02
 -6.72333E+01  4.28532E+02 -1.33817E+01  7.53445E+02 -9.84178E+01  3.60083E+01  2.84024E+02 -2.46497E+02
 -5.61438E+02  6.59512E+02 -6.62770E+02  5.61591E+00 -8.19005E+02 -6.26020E+02  6.84243E+01 -9.62531E+02
  2.33149E+02 -8.22512E+02  5.93352E+02 -1.04854E+02  9.76516E+02 -6.53804E+02  3.22610E+02  3.88280E+02
  1.86365E+02  4.02179E+01 -3.34401E+02  4.33371E+02  2.41842E+02  2.30025E+02 -6.61567E+02  6.24738E+02
 -4.68004E+01 -4.31237E+02 -1.75773E+02 -6.84412E+01 -1.88214E+02 -1.83663E+02 -8.38117E+02 -1.98702E+02
 -4.78889E+02  2.70160E+02 -1.05169E+02 -9.69975E+02  6.18692E+02 -1.24510E+03  6.72189E+02 -8.47395E+01
  6.18443E+02 -1.26351E+02 -5.37016E+02  2.90815E+02  5.08095E+02  7.44298E+02 -1.59752E+02  1.00734E+03
