 $NMID ID='MM_0lb_SNR400_19hz_g60_36.RAW', FMTDAT='(8E13.5)'
 TRAMP=1., VOLUME=1. $END
  3.09574E+05  3.02458E+02  3.37248E+05  2.49797E+05  8.46281E+04  3.37155E+05 -1.32732E+05  2.51002E+05
 -1.89825E+05  8.26775E+04 -1.11396E+05 -3.24978E+04  1.36790E+03 -5.02806E+04  5.38871E+04  1.45987E+02
  3.47912E+04  5.31347E+04 -1.70641E+04  7.48687E+04 -6.06121E+04  6.32254E+04 -8.36668E+04  3.20906E+04
 -8.05121E+04 -1.16376E+04 -5.67583E+04 -5.07843E+04 -1.53132E+04 -6.89680E+04  2.68013E+04 -4.51288E+04
  3.95976E+04  3.77342E+03  1.62919E+04  4.74572E+04 -3.39165E+04  4.64579E+04 -6.59727E+04 -8.44517E+02
 -5.27781E+04 -5.68790E+04 -6.80709E+03 -7.60010E+04  3.34466E+04 -5.38384E+04  4.75672E+04 -1.70956E+04
  4.26446E+04  1.10793E+04  3.17162E+04  2.50879E+04  1.57502E+04  2.93729E+04 -4.72453E+03  2.76373E+04
 -2.13389E+04  1.29474E+04 -1.88342E+04 -4.71016E+03  4.86557E+03 -7.49341E+03  2.15367E+04  1.12629E+04
  7.80138E+03  3.44958E+04 -3.13841E+04  3.45313E+04 -6.20849E+04  2.29364E+03 -5.61499E+04 -4.21095E+04
 -1.27606E+04 -6.21019E+04  3.90636E+04 -4.44437E+04  5.71870E+04 -1.76407E+03  3.32240E+04  3.13659E+04
 -6.40710E+03  3.47521E+04 -2.95686E+04  1.47447E+04 -2.91388E+04 -5.06548E+03 -1.55720E+04 -1.05768E+04
 -7.78177E+03 -1.23282E+04 -9.01231E+02 -1.72557E+04  6.99259E+03 -2.25376E+04  1.51559E+04 -1.37516E+04
  1.14051E+04  4.74481E+03 -6.71895E+03  1.32290E+04 -2.02709E+04 -3.50788E+03 -8.48558E+03 -3.17691E+04
  2.19012E+04 -4.16970E+04  4.58316E+04 -1.87496E+04  4.34123E+04  1.86487E+04  1.46383E+04  4.30260E+04
 -1.57102E+04  3.21911E+04 -2.45739E+04  1.62411E+03 -8.94747E+03 -2.74805E+04  2.04355E+04 -3.18518E+04
  3.90185E+04 -7.98028E+03  3.30999E+04  2.36449E+04  1.70213E+04  4.46137E+04 -7.47937E+03  4.72378E+04
 -2.94719E+04  3.15816E+04 -3.88721E+04  8.81645E+03 -4.03895E+04 -1.51066E+04 -2.25960E+04 -3.60974E+04
  7.53807E+03 -3.56182E+04  2.98842E+04 -1.34280E+04  2.82706E+04  1.07361E+04  3.26502E+03  1.82821E+04
 -1.34188E+04  7.87594E+03 -1.02485E+04 -8.17606E+03  5.84424E+03 -1.03080E+04  1.75667E+04  6.56283E+03
  1.23549E+04  2.15216E+04 -6.31877E+03  2.34922E+04 -2.15826E+04  1.01874E+04 -2.58986E+04 -5.84577E+03
 -1.85150E+04 -1.66891E+04 -7.00251E+03 -1.76529E+04  3.98101E+03 -1.68224E+04  1.37161E+04 -1.56909E+04
  2.28127E+04 -1.17410E+04  2.97779E+04  1.50167E+03  2.23160E+04  1.77394E+04  4.58420E+03  3.41399E+04
 -1.69845E+04  2.86765E+04 -2.65723E+04  9.90867E+03 -1.99733E+04 -1.04112E+04 -3.73663E+03 -1.42602E+04
  1.93326E+03 -4.33650E+03 -3.40716E+03  5.58306E+03 -1.41072E+04  5.19814E+03 -1.50926E+04 -5.81806E+03
 -8.60360E+03 -1.68866E+04  4.58045E+03 -2.03403E+04  1.34623E+04 -1.50776E+04  1.57981E+04 -1.02126E+03
  9.45876E+03  1.11435E+04 -3.49903E+02  1.65538E+04 -1.13394E+04  9.08909E+03 -1.63892E+04 -3.64362E+03
 -1.19967E+04 -1.49676E+04 -1.19973E+03 -2.00178E+04  8.82631E+03 -1.66565E+04  1.67183E+04 -8.07645E+03
  1.54836E+04  3.10945E+02  1.13723E+04  3.87354E+03  5.76372E+03  7.12481E+02  8.72435E+03 -1.37800E+03
  1.45878E+04  2.87160E+03  1.55963E+04  1.39706E+04  9.94559E+03  2.60127E+04 -2.77338E+03  2.86103E+04
 -1.72298E+04  2.21360E+04 -2.64157E+04  1.08099E+04 -2.71427E+04 -1.75606E+03 -2.26771E+04 -1.58061E+04
 -1.06103E+04 -2.19592E+04  6.84165E+03 -2.05307E+04  1.78628E+04 -1.08718E+04  1.59535E+04  3.93961E+03
  6.39035E+03  1.20945E+04 -7.99637E+03  1.12468E+04 -1.35903E+04  2.94493E+03 -1.10229E+04 -8.38742E+03
 -3.58746E+02 -1.28164E+04  6.69280E+03 -1.00455E+04  7.97058E+03 -1.20575E+03  1.88239E+03  5.39040E+03
 -5.72967E+03  1.52436E+03 -4.38082E+03 -5.53048E+03  7.67262E+02 -1.07771E+04  7.91243E+03 -1.02021E+04
  1.29569E+04 -5.80351E+03  1.29083E+04  2.71758E+03  1.12643E+04  9.94612E+03  5.33675E+03  1.47743E+04
 -2.46978E+03  1.73913E+04 -1.07774E+04  1.08491E+04 -1.21380E+04  2.64969E+03 -8.79694E+03 -2.99981E+03
 -5.04845E+03 -3.51590E+03 -5.24339E+02  1.04241E+03 -1.85872E+03  2.23119E+03 -3.59049E+03  3.32127E+03
 -8.15707E+03 -8.19893E+02 -8.69949E+03 -7.27511E+03 -3.64705E+03 -1.20332E+04  3.63677E+03 -9.15729E+03
  7.32027E+03 -4.12035E+03  5.22477E+03  1.54555E+03  6.22115E+02  3.44738E+03 -3.46473E+03 -1.47509E+02
 -3.43316E+03 -5.63269E+03 -5.49634E+02 -7.62275E+03  4.00174E+03 -8.53995E+03  1.01502E+04 -4.05866E+03
  1.18388E+04  5.15332E+02  8.87053E+03  6.39623E+03  2.07119E+03  9.26516E+03 -5.31507E+03  8.87539E+03
 -7.33007E+03  2.86316E+03 -3.46002E+03 -9.55301E+02  1.20355E+03 -2.21366E+03  4.70043E+03 -7.48440E+02
  4.18078E+03  3.21064E+03  1.05388E+03  7.22439E+03 -4.67232E+03  6.59858E+03 -8.07630E+03  1.44723E+03
 -5.18348E+03 -3.75127E+03  2.29602E+02 -6.86877E+03  3.92923E+03 -3.31214E+03  3.46626E+03  1.11431E+03
  6.12950E+02  3.58017E+03 -4.00354E+03  4.97477E+03 -4.80289E+03  2.44642E+03 -4.79068E+03 -1.55214E+03
 -3.12707E+03 -6.37919E+03  1.24272E+03 -7.22258E+03  6.33435E+03 -4.95255E+03  6.97873E+03  7.60485E+02
  4.57493E+03  5.47807E+03  2.41479E+00  7.35800E+03 -5.54039E+03  4.24364E+03 -4.88681E+03 -3.10628E+02
 -5.91666E+03 -5.17181E+03 -1.38732E+03 -5.60485E+03  3.15683E+03 -4.99209E+03  3.24924E+03 -2.88896E+03
  2.79706E+03  3.95430E+02  7.85588E+01  1.84441E+03  1.51253E+02 -5.46368E+02  4.67411E+01 -1.66468E+03
  3.98461E+03 -4.64989E+02  5.52912E+03  9.77123E+02  5.98152E+03  3.24590E+03  5.30479E+03  7.45549E+03
 -1.29112E+03  8.65600E+03 -7.44398E+03  6.50334E+03 -1.02709E+04  1.26612E+03 -7.66725E+03 -2.84907E+03
 -3.58288E+03 -6.13308E+03 -8.56884E+02 -4.96269E+03  1.97434E+03 -2.33232E+03  1.69042E+03 -1.97825E+03
  1.07988E+03 -1.05701E+03  2.28926E+03 -2.58143E+03  3.39944E+03 -1.34522E+03  3.92581E+03  3.80165E+02
  4.68150E+03  1.32123E+03  7.63526E+02  3.43237E+03 -1.84225E+03  2.81670E+03 -4.28107E+03  2.74619E+03
 -5.00653E+03 -8.69365E+02 -1.28227E+03 -2.85791E+03  2.43095E+02 -5.06969E+03  2.74222E+03 -4.78495E+03
  5.28447E+03 -3.40127E+03  6.65827E+03  3.94684E+02  4.36276E+03  4.48635E+03  9.84641E+02  6.47374E+03
 -1.85923E+03  5.77957E+03 -3.40220E+03  2.17636E+03 -2.13738E+03 -1.34841E+03 -2.84341E+02 -9.41747E+02
 -3.45465E+02  4.96234E+02 -1.24171E+03  2.01534E+03 -2.75840E+03  1.45547E+03 -4.13155E+03 -1.68578E+02
 -2.11374E+03 -4.20206E+03  9.11409E+02 -5.16977E+03  2.50406E+03 -4.38141E+03  3.81389E+03 -1.19954E+03
  3.47591E+03  2.39503E+03  2.22598E+03  2.99702E+03 -9.25722E+02  4.11660E+03 -2.78920E+03  2.82377E+03
 -3.88582E+03  7.04125E+02 -3.76799E+03 -2.53345E+03  5.35794E+01 -3.07513E+03  1.93809E+03 -2.35681E+03
  2.12606E+03 -1.77095E+03  1.36632E+03  5.53785E+02  1.50390E+02  1.33894E+03  8.86891E+02  4.32738E+02
  9.43594E+02  8.54394E+02  1.00520E+03  1.32310E+03  1.44119E+03  2.40140E+03  1.17236E+03  1.07554E+03
 -1.54661E+03  3.02023E+03 -2.22254E+03  3.97169E+03 -3.19782E+03  1.21473E+03 -4.24650E+03 -4.53634E+02
 -1.77389E+03 -3.75256E+03  2.83150E+02 -4.37184E+03  1.54819E+03 -2.32253E+03  3.34297E+03 -5.58889E+02
  2.22654E+03  1.96371E+03  6.97142E+02  2.26384E+03 -8.46779E+02  1.05172E+03 -1.03739E+03 -8.45907E+01
 -7.19905E+02 -1.50228E+03  1.77246E+03 -1.28939E+03  1.45922E+03 -1.43424E+03  1.36782E+03  4.35956E+01
  7.95172E+02  1.44256E+02  5.38146E+02 -3.78086E+02 -2.33752E+02  9.37806E+02  1.85165E+03  5.09935E+01
 -4.67459E+01 -2.78348E+02  1.40146E+03  4.89739E+02  4.69719E+02  2.01596E+03 -2.28794E+02  2.92974E+03
 -9.84645E+02  1.10132E+03 -1.94123E+03  4.47578E+02 -1.43434E+03 -7.86634E+02 -5.53881E+02 -4.18187E+02
  5.31876E+02 -1.05127E+03  4.91384E+01 -6.97874E+02  8.94706E+02  1.12637E+03 -5.50318E+02  1.40785E+03
 -1.35020E+03  3.88894E+02 -1.42058E+03 -1.52929E+03 -6.59290E+02 -1.62705E+03  1.73255E+02 -1.26197E+03
  6.29281E+02 -6.13870E+02  5.36345E+02  1.17029E+02  8.19656E+02 -4.24237E+02  1.41847E+01  6.15777E+02
 -4.86106E+01  2.06532E+02 -1.08813E+03  8.41138E+01  5.52441E+02 -7.34197E+02  1.79493E+03 -9.63161E+02
  9.90114E+02  4.46328E+02  2.90166E+03  5.99680E+02  1.45152E+03  1.54967E+03 -1.22292E+02  1.47474E+03
 -1.90757E+03 -3.47741E+02 -1.09108E+03 -7.55218E+02 -7.57704E+02 -1.08921E+03  2.24301E+02 -4.24449E+02
  1.02718E+03 -4.66086E+02  5.55371E+02  8.66586E+02 -5.47387E+02  1.25825E+03  2.73659E+02  9.22905E+02
 -1.29266E+02  1.26058E+03 -6.87070E+01  4.29056E+02  8.90511E+01  4.27761E+02 -1.26754E+03  9.77158E+02
 -6.08869E+02  1.10170E+03 -1.88816E+03 -4.88504E+01 -1.48525E+03  3.43860E+02 -1.59319E+03 -7.31269E+02
 -1.04825E+03 -2.10190E+03  5.25892E+02 -2.55521E+03  4.82870E+02 -2.61785E+03  2.61610E+03 -1.26221E+03
  1.97438E+03 -3.48227E+02  5.37496E+02  1.24870E+03 -2.52251E+02  1.49050E+03 -9.21471E+02  9.10977E+02
 -1.05083E+03  9.55495E+02 -2.31807E+02 -4.88868E+02 -6.09619E+02  4.48181E+02 -7.76966E+02  7.06176E+01
 -1.80112E+03 -3.95127E+02 -1.07566E+03  2.91422E+01  1.34633E+02 -4.28249E+02 -1.16504E+02 -7.14458E+02
  1.46217E+03 -5.11212E+02 -2.62003E+02  4.47127E+01  6.45422E+02  5.45441E+02 -4.16075E+02  1.15755E+03
 -1.18697E+03  2.25627E+03 -1.44777E+03  1.23981E+03 -1.17264E+03 -4.80377E+02 -1.58974E+03 -1.09783E+03
 -9.19801E+02 -1.36834E+03  5.28221E+02 -7.49261E+02  8.74203E+02 -3.77810E+02  2.39428E+02  4.56152E+02
  6.14287E+02  1.14760E+02 -2.20070E+02  1.02395E+01 -6.02456E+02  5.53417E+01 -1.95574E+02 -3.87798E+02
  3.70679E+02 -1.10345E+02  2.63841E+02  4.97654E+02 -1.82899E+02  1.35923E+02  1.04101E+01 -1.87302E+02
 -7.73679E+02  8.20942E+02 -5.49013E+02 -2.96547E+02 -4.79306E+02 -7.05612E+02  3.28312E+02 -1.07205E+03
  4.28050E+02  1.37382E+02  4.23660E+02  1.05248E+02  6.87670E+02 -5.04198E+02  5.55384E+02  6.92150E+02
  3.52738E+02 -2.00305E+02 -1.08690E+02  5.11250E+02 -3.62122E+02  6.72819E+02 -7.08238E+01  5.23182E+02
  1.15290E+02 -5.94287E+02 -2.98737E+02 -2.88541E+02 -2.72676E+02 -2.44171E+01 -4.07736E+02 -6.84198E+01
 -1.09336E+03  8.20388E+01 -1.73497E+02 -6.65939E+02  1.41917E+03 -1.21206E+03  4.68224E+02  1.51389E+02
  5.53501E+01  7.94734E+01 -3.42068E+02 -1.70098E+02  2.09669E+02  1.48168E+02  4.04482E+01  1.07675E+03
