 $NMID ID='MM_0lb_SNR400_13hz_g50_53.RAW', FMTDAT='(8E13.5)'
 TRAMP=1., VOLUME=1. $END
  3.09784E+05  4.42842E+02  3.37874E+05  2.50658E+05  8.47792E+04  3.37849E+05 -1.32904E+05  2.51320E+05
 -1.90709E+05  8.33214E+04 -1.12281E+05 -3.30630E+04  7.77272E+02 -5.10169E+04  5.41548E+04 -4.05794E+02
  3.55071E+04  5.31419E+04 -1.75906E+04  7.55971E+04 -6.10306E+04  6.38049E+04 -8.42655E+04  3.19984E+04
 -8.11339E+04 -1.08891E+04 -5.73237E+04 -5.09935E+04 -1.48111E+04 -7.03246E+04  2.77216E+04 -4.58262E+04
  4.05712E+04  4.50408E+03  1.62892E+04  4.76436E+04 -3.44954E+04  4.73162E+04 -6.70881E+04  3.51350E+02
 -5.38233E+04 -5.70736E+04 -6.10221E+03 -7.71924E+04  3.37591E+04 -5.54982E+04  4.85969E+04 -1.73617E+04
  4.37390E+04  1.13212E+04  3.22859E+04  2.54044E+04  1.54428E+04  2.94492E+04 -5.66930E+03  2.69358E+04
 -2.25204E+04  1.22796E+04 -1.83680E+04 -5.15717E+03  6.07313E+03 -8.12272E+03  2.26420E+04  1.27540E+04
  7.28550E+03  3.58383E+04 -3.18267E+04  3.61967E+04 -6.41189E+04  3.03935E+03 -5.79483E+04 -4.31856E+04
 -1.30102E+04 -6.39264E+04  4.03183E+04 -4.55721E+04  5.82538E+04 -2.11997E+03  3.48258E+04  3.24793E+04
 -6.13823E+03  3.65777E+04 -3.02916E+04  1.66239E+04 -3.07514E+04 -4.62831E+03 -1.78438E+04 -1.11306E+04
 -8.72289E+03 -1.39483E+04 -8.16523E+02 -1.87145E+04  7.67290E+03 -2.32708E+04  1.56432E+04 -1.32821E+04
  1.11414E+04  5.18978E+03 -8.36442E+03  1.24768E+04 -2.18943E+04 -4.76768E+03 -8.92062E+03 -3.45082E+04
  2.39896E+04 -4.37032E+04  4.92437E+04 -2.00184E+04  4.60954E+04  1.99022E+04  1.56604E+04  4.51429E+04
 -1.62399E+04  3.42464E+04 -2.58295E+04  2.23543E+03 -1.00387E+04 -2.83658E+04  2.09310E+04 -3.44348E+04
  4.23211E+04 -8.52975E+03  3.62329E+04  2.35156E+04  1.88887E+04  4.76657E+04 -8.04975E+03  5.16727E+04
 -3.25838E+04  3.51794E+04 -4.29291E+04  9.76402E+03 -4.40460E+04 -1.70394E+04 -2.42147E+04 -3.88730E+04
  7.25713E+03 -3.88457E+04  3.15116E+04 -1.52372E+04  2.99168E+04  1.18684E+04  4.70623E+03  1.94646E+04
 -1.36298E+04  8.14619E+03 -1.04433E+04 -7.07982E+03  5.52619E+03 -1.05730E+04  1.82951E+04  6.86129E+03
  1.38148E+04  2.19993E+04 -6.02603E+03  2.54771E+04 -2.25451E+04  1.22679E+04 -2.86807E+04 -4.11826E+03
 -2.12709E+04 -1.74273E+04 -9.22360E+03 -2.10262E+04  4.25122E+03 -2.09951E+04  1.69087E+04 -1.96448E+04
  2.79150E+04 -1.23171E+04  3.37597E+04  2.80241E+03  2.41051E+04  2.04184E+04  4.09033E+03  3.68637E+04
 -1.78152E+04  3.12513E+04 -2.81285E+04  1.15319E+04 -2.18851E+04 -1.04450E+04 -4.20508E+03 -1.33135E+04
  1.57614E+03 -3.19219E+03 -5.44480E+03  6.76166E+03 -1.76578E+04  5.23169E+03 -1.78528E+04 -7.74607E+03
 -1.01190E+04 -2.00330E+04  6.17655E+03 -2.46516E+04  1.61788E+04 -1.75809E+04  1.95687E+04 -1.62293E+03
  1.18497E+04  1.31519E+04 -5.64155E+02  1.98810E+04 -1.38114E+04  1.11352E+04 -1.98937E+04 -4.18193E+03
 -1.40032E+04 -1.80096E+04 -1.88545E+03 -2.45244E+04  1.10533E+04 -1.94076E+04  1.96021E+04 -9.46313E+03
  1.88444E+04  7.48755E+02  1.28580E+04  4.63761E+03  7.26897E+03  1.06796E+03  1.02269E+04 -1.48257E+03
  1.84373E+04  2.81039E+03  2.06770E+04  1.62190E+04  1.36062E+04  3.10529E+04 -2.87357E+03  3.62133E+04
 -2.12239E+04  2.90576E+04 -3.39969E+04  1.50440E+04 -3.55770E+04 -2.75211E+03 -2.90630E+04 -2.02399E+04
 -1.16706E+04 -2.94712E+04  9.63098E+03 -2.64626E+04  2.26014E+04 -1.35818E+04  2.06420E+04  5.60217E+03
  7.04328E+03  1.50212E+04 -9.24068E+03  1.33944E+04 -1.71960E+04  2.37871E+03 -1.29600E+04 -1.04485E+04
 -3.38644E+02 -1.61589E+04  8.29543E+03 -1.23176E+04  1.07840E+04 -1.01092E+03  1.86394E+03  6.51496E+03
 -7.27594E+03  2.75058E+03 -6.60545E+03 -5.66316E+03 -7.97506E+02 -1.41924E+04  9.20722E+03 -1.55736E+04
  1.79683E+04 -8.04027E+03  1.94617E+04  3.46282E+03  1.69037E+04  1.42161E+04  8.27841E+03  2.17633E+04
 -4.37131E+03  2.35893E+04 -1.60523E+04  1.46589E+04 -1.73162E+04  3.53718E+03 -1.30177E+04 -3.61494E+03
 -5.55289E+03 -5.48195E+03 -4.91989E+02  9.56772E+02 -2.17294E+03  2.52886E+03 -5.72184E+03  4.17995E+03
 -1.12157E+04 -7.55109E+02 -1.25848E+04 -9.38130E+03 -5.15451E+03 -1.52464E+04  4.49257E+03 -1.28814E+04
  1.03406E+04 -5.28181E+03  7.49743E+03  3.29314E+03  8.25315E+02  5.02708E+03 -4.87422E+03 -2.85378E+02
 -5.30865E+03 -7.51937E+03 -7.85537E+02 -1.12181E+04  6.88425E+03 -1.28880E+04  1.50131E+04 -6.47761E+03
  1.75238E+04  2.20784E+03  1.32819E+04  9.85991E+03  2.39207E+03  1.39124E+04 -7.68353E+03  1.19155E+04
 -9.68233E+03  3.46599E+03 -4.41236E+03 -2.87206E+03  1.82547E+03 -3.26941E+03  6.09934E+03 -8.43280E+02
  6.22201E+03  5.32262E+03  1.27216E+03  9.17353E+03 -7.08807E+03  8.79748E+03 -1.21968E+04  2.62559E+03
 -8.43353E+03 -5.60290E+03  2.32474E+02 -9.94624E+03  6.12081E+03 -5.11636E+03  6.63735E+03  2.42640E+03
  1.40568E+03  6.22933E+03 -6.07561E+03  7.91879E+03 -9.04513E+03  4.09193E+03 -9.07120E+03 -2.46460E+03
 -5.91349E+03 -1.09456E+04  2.33066E+03 -1.20745E+04  1.05884E+04 -7.96188E+03  1.18860E+04  1.49017E+03
  7.45041E+03  9.02812E+03 -6.44798E+02  1.17481E+04 -8.82632E+03  6.51349E+03 -9.51015E+03 -7.55006E+02
 -8.02374E+03 -8.07645E+03 -1.55738E+03 -8.79197E+03  4.97318E+03 -6.93893E+03  4.74736E+03 -3.55325E+03
  3.89093E+03  1.26394E+03 -4.44254E+01  1.52307E+03  1.26375E+02 -2.57174E+03  2.14539E+03 -5.35176E+03
  7.51303E+03 -2.65480E+03  1.05649E+04  1.92564E+03  1.04738E+04  6.81061E+03  8.05857E+03  1.38577E+04
 -3.03408E+03  1.58239E+04 -1.36460E+04  1.19035E+04 -1.78042E+04  2.13487E+03 -1.44378E+04 -5.82846E+03
 -7.28814E+03 -1.08553E+04 -1.67699E+02 -9.78314E+03  3.20853E+03 -5.06702E+03  3.61936E+03 -3.31687E+03
  2.53976E+03 -2.59284E+03  3.10410E+03 -3.07005E+03  4.46224E+03 -2.84860E+03  5.61400E+03 -5.03230E+02
  6.89221E+03  1.78243E+03  3.84651E+03  6.42158E+03 -2.08400E+03  7.22169E+03 -8.08286E+03  5.87974E+03
 -9.84375E+03 -1.11977E+03 -5.12222E+03 -6.28945E+03 -1.31057E+02 -1.01375E+04  5.30911E+03 -1.02619E+04
  1.06094E+04 -6.51770E+03  1.30910E+04  1.05928E+03  8.84262E+03  8.72038E+03  1.51946E+03  1.11683E+04
 -4.17663E+03  9.93264E+03 -6.31302E+03  3.10049E+03 -4.77684E+03 -1.51422E+03 -1.21787E+03 -1.55924E+03
 -1.53889E+03  9.15105E+02 -1.81803E+03  3.07335E+03 -4.34967E+03  1.57331E+03 -6.46750E+03 -1.06546E+03
 -4.01114E+03 -6.77318E+03  3.38372E+02 -1.01889E+04  5.87764E+03 -8.45560E+03  8.60721E+03 -2.19254E+03
  8.62724E+03  4.90570E+03  4.28485E+03  8.08331E+03 -2.06109E+03  9.54307E+03 -6.04713E+03  5.42161E+03
 -8.50748E+03  1.53174E+03 -6.70129E+03 -5.91920E+03 -5.90831E+02 -7.02782E+03  3.05467E+03 -5.17203E+03
  6.28917E+03 -2.27114E+03  4.07621E+03  7.49450E+02  1.05896E+03  3.19736E+03  1.68500E+03  8.26168E+02
  2.28154E+03  1.21449E+03  2.52827E+03  1.50308E+03  2.39506E+03  3.19901E+03  2.04327E+03  4.69407E+03
 -1.98043E+03  6.67110E+03 -6.19176E+03  7.91198E+03 -8.92148E+03  2.08577E+03 -9.74809E+03 -3.00447E+03
 -4.66860E+03 -8.86292E+03  1.07818E+03 -1.04345E+04  5.40224E+03 -5.63889E+03  7.50806E+03 -1.73366E+03
  5.98671E+03  3.34547E+03  9.95860E+02  4.98756E+03 -1.85682E+03  3.73908E+03 -3.56100E+03 -6.98735E+02
 -1.67320E+03 -4.05530E+03  2.36752E+03 -3.70102E+03  3.66974E+03 -1.16605E+03  3.27821E+03  9.30628E+02
  2.02839E+03  1.53254E+03  6.38165E+02  1.07740E+03 -5.36305E+02  1.10874E+03  1.48007E+03 -8.78019E+02
  9.47233E+01 -8.08745E+02  3.56024E+03  1.99694E+03  1.62459E+03  4.84867E+03 -7.15588E+02  6.46612E+03
 -4.40718E+03  3.59114E+03 -5.49119E+03  4.67038E+02 -4.53975E+03 -1.76493E+03 -2.07443E+03 -2.53007E+03
  1.60533E+02 -2.92703E+03  2.30879E+03 -1.81499E+03  1.97202E+03  1.73449E+03 -1.14238E+03  2.36651E+03
 -3.66607E+03  1.40161E+03 -3.91584E+03 -2.81490E+03 -1.71876E+03 -5.05004E+03  7.08721E+02 -4.51472E+03
  2.10335E+03 -2.28227E+03  2.89336E+03 -4.18738E+02  3.14021E+03  5.77836E+02  2.51991E+02  3.01542E+03
 -8.29457E+02  6.16776E+02 -1.75273E+03 -1.25078E+03  8.82422E+02 -3.04312E+03  3.94449E+03 -2.81468E+03
  4.72598E+03  7.40291E+02  5.65105E+03  2.69294E+03  2.33910E+03  4.43757E+03 -1.39386E+03  4.64470E+03
 -4.24524E+03  1.92746E+03 -4.42246E+03 -8.50942E+02 -1.70798E+03 -3.23583E+03  9.00386E+02 -2.78428E+03
  3.46928E+03 -1.65681E+03  1.85519E+03  1.59926E+03  1.00215E+03  3.68642E+03  1.87723E+02  2.94336E+03
 -1.17803E+03  2.24207E+03 -7.69302E+02  4.45863E+02 -1.03089E+03  9.89369E+02 -1.39264E+03  1.69651E+03
 -1.39252E+03  2.08063E+03 -3.77590E+03  1.53965E+03 -4.36073E+03  2.89070E+02 -6.14622E+03 -2.67138E+03
 -2.81058E+03 -6.35971E+03  1.73873E+03 -7.53299E+03  4.38058E+03 -6.79358E+03  7.44273E+03 -2.94953E+03
  6.33871E+03  7.56114E+02  3.62546E+03  4.05122E+03 -3.53162E+02  5.08354E+03 -2.08604E+03  4.15043E+03
 -2.25766E+03  1.37212E+03 -1.45073E+03 -6.86063E+02 -2.89608E+02  1.76279E+02 -5.79542E+02 -1.33688E+01
 -9.43212E+02  4.39536E+01 -8.69155E+02  8.34380E+01 -4.77056E+01 -1.48793E+03 -4.52263E+02 -2.10457E+03
  2.59520E+03 -1.58093E+03  2.92685E+03  2.51451E+02  3.69676E+03  2.58582E+03  5.26146E+02  4.84914E+03
 -1.67503E+03  5.93035E+03 -4.52954E+03  3.07332E+03 -6.63891E+03 -1.34172E+03 -4.30664E+03 -4.09311E+03
 -2.26314E+03 -4.81162E+03  1.52734E+03 -5.04108E+03  2.94816E+03 -1.33992E+03  2.79157E+03 -7.78578E+02
  1.70603E+03  1.34852E+03 -3.16396E+01  1.70583E+03 -7.98210E+02 -2.67910E+02 -1.06232E+02 -1.49617E+03
  1.48647E+03 -1.37517E+03  1.63758E+03  1.00662E+03  8.58627E+02  9.29221E+02 -2.43358E+02  2.30328E+03
 -2.02291E+03  2.42231E+03 -3.13170E+03  3.65159E+02 -2.76884E+03 -1.86390E+03 -6.23584E+02 -3.75290E+03
  2.07083E+03 -2.13349E+03  3.63061E+03 -8.44949E+02  3.78365E+03  7.76925E+02  1.45744E+03  2.96307E+03
  5.70110E+01  2.59220E+03 -7.66802E+02  2.62899E+03 -2.52602E+03  1.14672E+03 -8.26769E+02 -5.56765E+02
 -5.49167E+02  1.02143E+02 -1.38138E+03  3.56674E+01 -1.65881E+03  8.29341E+02 -2.60896E+03 -7.95221E+02
 -2.26542E+03 -8.02506E+02 -7.94953E+02 -3.18820E+03  2.03027E+03 -3.72070E+03  2.18348E+03 -1.09116E+03
  3.01740E+03  7.56181E+02  1.77540E+03  2.04413E+03 -1.74288E+02  2.80617E+03 -1.95000E+03  1.89535E+03
