 $NMID ID='MM_0lb_SNR400_8hz_g40_16.RAW', FMTDAT='(8E13.5)'
 TRAMP=1., VOLUME=1. $END
  3.10203E+05  3.11997E+02  3.37325E+05  2.50698E+05  8.54443E+04  3.38601E+05 -1.33206E+05  2.51175E+05
 -1.89577E+05  8.40389E+04 -1.12415E+05 -3.16355E+04 -7.41518E+02 -5.13843E+04  5.31784E+04 -2.50051E+02
  3.60226E+04  5.27431E+04 -1.61197E+04  7.51949E+04 -6.06525E+04  6.47859E+04 -8.48969E+04  3.24532E+04
 -8.23335E+04 -1.14374E+04 -5.81680E+04 -5.14237E+04 -1.44185E+04 -7.11634E+04  2.86340E+04 -4.63758E+04
  4.12398E+04  3.45674E+03  1.69326E+04  4.85084E+04 -3.57645E+04  4.91454E+04 -6.75091E+04  2.90586E+01
 -5.43888E+04 -5.78560E+04 -7.36877E+03 -7.85724E+04  3.45480E+04 -5.68399E+04  4.99216E+04 -1.81308E+04
  4.55731E+04  1.11599E+04  3.26543E+04  2.68962E+04  1.54023E+04  3.13622E+04 -5.81534E+03  2.71759E+04
 -2.26974E+04  1.09770E+04 -1.81605E+04 -5.63271E+03  8.10905E+03 -7.53593E+03  2.28726E+04  1.41066E+04
  7.00946E+03  3.81246E+04 -3.41003E+04  3.63609E+04 -6.57746E+04  2.78249E+03 -5.88547E+04 -4.38959E+04
 -1.18631E+04 -6.59580E+04  4.11741E+04 -4.74485E+04  6.14436E+04 -2.29889E+03  3.68657E+04  3.41075E+04
 -5.59497E+03  3.96063E+04 -3.28199E+04  1.86743E+04 -3.27020E+04 -2.97102E+03 -1.92066E+04 -1.23000E+04
 -9.37460E+03 -1.48805E+04 -2.89231E+02 -1.98204E+04  8.57687E+03 -2.31132E+04  1.72112E+04 -1.20458E+04
  1.03015E+04  6.78435E+03 -9.78300E+03  1.25556E+04 -2.33278E+04 -5.36571E+03 -8.72850E+03 -3.85596E+04
  2.41650E+04 -4.70076E+04  5.29807E+04 -2.12961E+04  4.91101E+04  2.04333E+04  1.74566E+04  4.72244E+04
 -1.68072E+04  3.61933E+04 -2.76516E+04  2.72206E+03 -1.15984E+04 -2.95942E+04  2.13298E+04 -3.65727E+04
  4.45374E+04 -1.20835E+04  4.00802E+04  2.49801E+04  2.11818E+04  5.10492E+04 -8.23138E+03  5.63877E+04
 -3.58306E+04  3.78251E+04 -4.74714E+04  1.10914E+04 -4.88341E+04 -1.91092E+04 -2.52046E+04 -4.16437E+04
  8.44069E+03 -4.20894E+04  3.31353E+04 -1.69169E+04  3.22892E+04  1.18017E+04  4.47771E+03  2.00492E+04
 -1.46725E+04  8.90117E+03 -1.11788E+04 -7.39998E+03  5.67419E+03 -1.20225E+04  1.93634E+04  5.97503E+03
  1.47719E+04  2.30046E+04 -5.67922E+03  2.73976E+04 -2.31278E+04  1.48956E+04 -3.12975E+04 -2.92144E+03
 -2.52375E+04 -1.78821E+04 -1.17491E+04 -2.50430E+04  3.74399E+03 -2.50338E+04  1.95713E+04 -2.31950E+04
  3.18314E+04 -1.34041E+04  3.76358E+04  4.97606E+03  2.72333E+04  2.44551E+04  3.68642E+03  4.11402E+04
 -2.08573E+04  3.45992E+04 -3.10577E+04  1.20806E+04 -2.22492E+04 -1.03547E+04 -4.94010E+03 -1.21808E+04
  5.18818E+01 -6.53945E+02 -8.32152E+03  8.07416E+03 -2.04488E+04  5.54138E+03 -1.96471E+04 -9.95652E+03
 -1.19587E+04 -2.26935E+04  6.24604E+03 -2.73572E+04  2.01415E+04 -2.02083E+04  2.27704E+04 -1.56102E+03
  1.47626E+04  1.56905E+04 -1.04675E+03  2.35949E+04 -1.76095E+04  1.30857E+04 -2.37755E+04 -4.94052E+03
 -1.76400E+04 -2.16501E+04 -2.95894E+03 -2.82875E+04  1.26125E+04 -2.27696E+04  2.35108E+04 -1.22801E+04
  2.23251E+04 -2.74772E+02  1.66507E+04  5.31397E+03  8.84566E+03  1.71137E+03  1.19429E+04 -2.40293E+03
  2.22681E+04  3.16546E+03  2.56965E+04  1.79801E+04  1.77767E+04  3.79250E+04 -2.42931E+03  4.53758E+04
 -2.52848E+04  3.72256E+04 -4.20791E+04  1.94406E+04 -4.49937E+04 -2.85922E+03 -3.65589E+04 -2.56669E+04
 -1.36697E+04 -3.80558E+04  1.33280E+04 -3.19475E+04  2.86776E+04 -1.56154E+04  2.41322E+04  8.32683E+03
  7.93526E+03  1.88922E+04 -1.23346E+04  1.58601E+04 -2.01618E+04  2.21708E+03 -1.55185E+04 -1.24871E+04
 -1.69742E+02 -1.92559E+04  1.09869E+04 -1.42156E+04  1.34759E+04 -1.54354E+03  4.29485E+03  8.72027E+03
 -8.16610E+03  4.57376E+03 -9.27220E+03 -7.34636E+03 -1.80259E+03 -1.83868E+04  1.28811E+04 -2.00148E+04
  2.38096E+04 -1.15044E+04  2.68044E+04  2.77014E+03  2.41610E+04  1.85966E+04  1.07170E+04  3.04667E+04
 -5.39414E+03  3.18524E+04 -2.09588E+04  2.01862E+04 -2.34265E+04  2.83395E+03 -1.53163E+04 -6.14510E+03
 -6.47352E+03 -7.45270E+03 -3.38369E+02  6.77996E+02 -2.47692E+03  3.15034E+03 -7.39447E+03  5.69167E+03
 -1.53792E+04 -5.95356E+02 -1.51625E+04 -1.09544E+04 -6.42201E+03 -1.91271E+04  7.37462E+03 -1.62455E+04
  1.25598E+04 -6.96971E+03  8.84644E+03  5.47717E+03 -1.06748E+03  6.67667E+03 -7.60413E+03 -3.48039E+02
 -7.45851E+03 -1.05552E+04 -5.31081E+02 -1.55635E+04  9.22618E+03 -1.65556E+04  1.97971E+04 -9.17445E+03
  2.47651E+04  3.21932E+03  1.77088E+04  1.55821E+04  3.18840E+03  1.91514E+04 -9.58706E+03  1.63634E+04
 -1.31366E+04  5.29514E+03 -5.92010E+03 -3.57034E+03  2.45436E+03 -4.76352E+03  8.44920E+03 -9.56835E+02
  7.23504E+03  6.74622E+03  1.21551E+03  1.28038E+04 -9.56143E+03  1.30937E+04 -1.54720E+04  3.97365E+03
 -1.08573E+04 -8.93316E+03 -4.20094E+01 -1.33670E+04  8.54013E+03 -6.57628E+03  1.01425E+04  2.73784E+03
  2.90637E+03  1.04605E+04 -7.68280E+03  1.14854E+04 -1.38515E+04  5.40388E+03 -1.36414E+04 -5.05917E+03
 -8.58064E+03 -1.61817E+04  3.58218E+03 -1.84052E+04  1.64079E+04 -1.08125E+04  1.70098E+04  3.62352E+03
  1.09716E+04  1.35683E+04 -1.72857E+03  1.68960E+04 -1.25670E+04  9.20922E+03 -1.27510E+04 -1.40752E+03
 -1.04469E+04 -1.08286E+04 -2.39036E+03 -1.31979E+04  6.34805E+03 -9.60510E+03  7.77700E+03 -3.81762E+03
  4.87974E+03  3.15761E+03 -1.20754E+03  1.50967E+03 -7.82147E+02 -3.60752E+03  3.38548E+03 -6.87849E+03
  1.18181E+04 -5.15527E+03  1.69253E+04  2.17992E+03  1.59825E+04  1.12808E+04  1.06497E+04  2.31086E+04
 -4.72613E+03  2.51862E+04 -2.11962E+04  1.82780E+04 -2.65739E+04  3.37943E+03 -2.11133E+04 -9.73948E+03
 -1.19535E+04 -1.80947E+04 -4.71136E+02 -1.45782E+04  5.33282E+03 -8.14019E+03  5.47398E+03 -6.11018E+03
  3.29980E+03 -3.92742E+03  4.75597E+03 -5.06191E+03  6.46744E+03 -3.90211E+03  8.19861E+03 -5.17893E+02
  1.13776E+04  2.69868E+03  6.24381E+03  1.05433E+04 -1.68932E+03  1.17399E+04 -1.19008E+04  9.62245E+03
 -1.53630E+04 -1.50027E+03 -8.86938E+03 -1.07101E+04 -2.65109E+03 -1.66810E+04  9.51296E+03 -1.71173E+04
  1.76823E+04 -9.38465E+03  1.97495E+04  3.09327E+03  1.39678E+04  1.56781E+04  2.63687E+03  1.84959E+04
 -7.29550E+03  1.54218E+04 -1.07493E+04  5.42512E+03 -7.04655E+03 -2.46013E+03 -3.43453E+03 -1.89114E+03
 -1.94110E+03 -6.55377E+01 -2.54074E+03  3.02590E+03 -6.25588E+03  2.65042E+03 -1.08532E+04 -1.29185E+03
 -7.31455E+03 -1.06082E+04 -9.05651E+01 -1.46540E+04  8.60092E+03 -1.40520E+04  1.55214E+04 -4.70418E+03
  1.51955E+04  7.20669E+03  6.71199E+03  1.37400E+04 -3.47708E+03  1.49253E+04 -1.27077E+04  1.05360E+04
 -1.45597E+04 -2.33885E+02 -1.18421E+04 -9.49559E+03 -1.16765E+03 -1.34217E+04  7.78644E+03 -9.79182E+03
  1.02516E+04 -2.78234E+03  7.27574E+03  2.86489E+03  3.06479E+03  4.18777E+03  1.39884E+03  2.53815E+03
  2.56708E+03  1.09752E+03  3.87464E+03  1.77872E+03  4.51967E+03  5.88097E+03  3.94493E+03  8.88494E+03
 -3.22368E+03  1.35805E+04 -1.12586E+04  1.34521E+04 -1.67500E+04  2.98620E+03 -1.66937E+04 -6.76455E+03
 -8.70588E+03 -1.71022E+04  3.35150E+03 -1.74337E+04  1.00264E+04 -1.14028E+04  1.32710E+04 -3.15218E+03
  1.05084E+04  6.18209E+03  2.05206E+03  9.32066E+03 -4.52410E+03  5.15579E+03 -7.05100E+03 -1.45159E+03
 -3.52265E+03 -6.86017E+03  3.64020E+03 -7.31778E+03  6.12364E+03 -2.93302E+03  6.56161E+03  1.06884E+03
  4.22837E+03  3.44259E+03  9.66993E+02  2.85862E+03 -1.43649E+03  2.28320E+03  2.31986E+03 -1.10487E+03
  2.32026E+03 -9.95703E+02  6.82486E+03  2.78690E+03  4.07515E+03  8.09340E+03 -9.15885E+02  1.15177E+04
 -7.69199E+03  7.71746E+03 -1.07492E+04  2.41249E+03 -8.95773E+03 -3.72646E+03 -3.43068E+03 -5.76987E+03
  1.03894E+03 -6.71952E+03  4.51931E+03 -3.07854E+03  3.12593E+03  3.60353E+03 -9.38573E+02  5.69738E+03
 -6.54916E+03  3.12401E+03 -7.70522E+03 -3.69931E+03 -4.13817E+03 -1.01226E+04  1.00791E+03 -9.15662E+03
  5.80120E+03 -5.40756E+03  5.77021E+03 -1.12820E+03  5.71446E+03  2.20803E+03  4.93171E+02  3.93421E+03
 -2.32243E+03  1.56804E+03 -3.61343E+03 -3.56153E+03  1.37781E+03 -7.14330E+03  8.15953E+03 -5.82721E+03
  1.04764E+04  9.00589E+02  1.04596E+04  7.81604E+03  3.53362E+03  1.14158E+04 -4.16281E+03  1.06646E+04
 -9.38268E+03  4.99977E+03 -9.25016E+03 -2.15193E+03 -5.95797E+03 -6.36252E+03  1.21261E+03 -6.75437E+03
  5.79448E+03 -3.11560E+03  6.02574E+03  3.08735E+03  2.36591E+03  5.96346E+03 -1.10349E+03  5.76936E+03
 -3.33822E+03  3.40902E+03 -2.62454E+03  1.25617E+03 -1.23165E+03  1.23544E+03 -2.28742E+03  1.60686E+03
 -3.05316E+03  4.22166E+03 -7.49042E+03  3.22089E+03 -1.11248E+04 -4.00458E+01 -1.20172E+04 -7.28866E+03
 -6.37769E+03 -1.51894E+04  3.26948E+03 -1.78231E+04  1.11576E+04 -1.35036E+04  1.54628E+04 -4.07423E+03
  1.56127E+04  3.05073E+03  9.13841E+03  1.08438E+04  1.48393E+03  1.16353E+04 -3.85882E+03  7.97564E+03
 -7.11560E+03  3.30648E+03 -4.27551E+03 -6.80275E+02 -9.79518E+02 -8.94504E+02 -3.50072E+02 -5.33704E+02
 -1.48662E+03  9.82615E+02 -2.23077E+03 -1.31789E+03 -1.06454E+02 -3.09243E+03  1.14336E+02 -4.26752E+03
  4.61423E+03 -3.76858E+03  6.76535E+03 -5.63635E+02  8.76700E+03  5.78659E+03  2.57987E+03  1.17953E+04
 -5.91408E+03  1.33952E+04 -1.22005E+04  7.76943E+03 -1.45802E+04 -1.14548E+03 -1.04399E+04 -8.36563E+03
 -4.20181E+03 -1.25621E+04  3.22575E+03 -1.18278E+04  7.57880E+03 -5.70740E+03  7.24202E+03 -3.77358E+01
  5.15432E+03  3.80807E+03 -5.22399E-01  3.37328E+03 -2.23447E+03 -9.65302E+01 -8.09652E+02 -2.78991E+03
  4.37752E+03 -1.43162E+03  4.04189E+03  1.82794E+03  2.79189E+03  4.02058E+03  3.43254E+02  6.44956E+03
 -5.65591E+03  5.27635E+03 -7.44703E+03  2.89858E+02 -7.26615E+03 -6.00068E+03 -1.88475E+03 -9.84565E+03
  5.56714E+03 -8.12188E+03  9.88640E+03 -3.27126E+03  9.32718E+03  2.15944E+03  4.47499E+03  7.60428E+03
  1.67091E+03  8.11205E+03 -2.44329E+03  7.14679E+03 -4.80948E+03  3.92350E+03 -3.77408E+03  4.67460E+02
 -1.64583E+03 -4.52065E+00 -2.12225E+03  5.24190E+02 -4.02934E+03  1.95367E+03 -6.37909E+03 -1.24495E+03
 -6.82974E+03 -3.98007E+03 -1.86485E+03 -8.00102E+03  4.59913E+03 -8.67930E+03  6.80165E+03 -3.40209E+03
  7.02739E+03  7.30193E+02  5.25637E+03  5.77026E+03 -7.72362E+02  7.42853E+03 -6.16780E+03  5.12147E+03
