 $NMID ID='MM_0lb_SNR400_19hz_g60_17.RAW', FMTDAT='(8E13.5)'
 TRAMP=1., VOLUME=1. $END
  3.09710E+05  4.16932E+02  3.37057E+05  2.49872E+05  8.44151E+04  3.37454E+05 -1.33259E+05  2.50762E+05
 -1.90446E+05  8.30790E+04 -1.11309E+05 -3.28057E+04  1.02758E+03 -5.02791E+04  5.39141E+04 -1.01794E+02
  3.50040E+04  5.30211E+04 -1.66247E+04  7.57534E+04 -6.01787E+04  6.31465E+04 -8.34823E+04  3.19898E+04
 -8.01845E+04 -1.05767E+04 -5.68174E+04 -5.09151E+04 -1.48742E+04 -6.86727E+04  2.65513E+04 -4.50851E+04
  3.94432E+04  4.33453E+03  1.59766E+04  4.71770E+04 -3.45549E+04  4.67844E+04 -6.57231E+04 -4.71212E+02
 -5.29225E+04 -5.63265E+04 -6.49212E+03 -7.58134E+04  3.36057E+04 -5.40980E+04  4.71641E+04 -1.70883E+04
  4.23825E+04  1.14508E+04  3.12886E+04  2.51669E+04  1.59334E+04  2.87899E+04 -5.81610E+03  2.68918E+04
 -2.23804E+04  1.22531E+04 -1.89857E+04 -4.81473E+03  5.07667E+03 -6.81865E+03  2.19060E+04  1.15013E+04
  7.77474E+03  3.45800E+04 -3.08192E+04  3.46440E+04 -6.21166E+04  2.00319E+03 -5.59676E+04 -4.24214E+04
 -1.23110E+04 -6.25342E+04  3.92253E+04 -4.43257E+04  5.69964E+04 -1.86165E+03  3.30238E+04  3.13046E+04
 -6.03650E+03  3.45685E+04 -2.94582E+04  1.41021E+04 -2.89690E+04 -5.58361E+03 -1.57037E+04 -1.10346E+04
 -8.28282E+03 -1.23460E+04 -5.04700E+02 -1.76550E+04  6.48619E+03 -2.28249E+04  1.51094E+04 -1.38576E+04
  1.20109E+04  4.64667E+03 -7.24594E+03  1.32173E+04 -2.03449E+04 -2.89869E+03 -8.17169E+03 -3.20732E+04
  2.23833E+04 -4.24917E+04  4.61938E+04 -1.94376E+04  4.31448E+04  1.92845E+04  1.44043E+04  4.28188E+04
 -1.56107E+04  3.26703E+04 -2.41271E+04  1.56109E+03 -8.72592E+03 -2.64328E+04  2.03964E+04 -3.23328E+04
  3.90427E+04 -8.04814E+03  3.32462E+04  2.35791E+04  1.62454E+04  4.39318E+04 -7.73439E+03  4.68687E+04
 -2.94420E+04  3.10672E+04 -3.96306E+04  8.51303E+03 -3.96005E+04 -1.56733E+04 -2.27187E+04 -3.61450E+04
  7.09740E+03 -3.58643E+04  2.99388E+04 -1.36556E+04  2.78046E+04  1.12575E+04  3.15532E+03  1.82318E+04
 -1.26421E+04  8.10556E+03 -1.01140E+04 -7.94233E+03  5.55366E+03 -9.90175E+03  1.75294E+04  6.31832E+03
  1.29434E+04  2.18012E+04 -6.74434E+03  2.38319E+04 -2.19051E+04  1.00893E+04 -2.56960E+04 -5.37837E+03
 -1.83263E+04 -1.67382E+04 -5.74220E+03 -1.87909E+04  4.10713E+03 -1.61645E+04  1.27971E+04 -1.60814E+04
  2.31891E+04 -1.20542E+04  2.90134E+04  1.66734E+03  2.22633E+04  1.74143E+04  4.07079E+03  3.37791E+04
 -1.62249E+04  2.79618E+04 -2.69198E+04  9.73501E+03 -2.04218E+04 -1.02792E+04 -3.68861E+03 -1.39279E+04
  1.58543E+03 -3.70671E+03 -2.92953E+03  5.19646E+03 -1.33683E+04  5.18845E+03 -1.43093E+04 -5.46583E+03
 -8.78439E+03 -1.60567E+04  4.98326E+03 -2.08719E+04  1.30451E+04 -1.45301E+04  1.57383E+04 -1.39334E+03
  9.69580E+03  1.16005E+04 -1.14701E+03  1.66032E+04 -1.10234E+04  9.09023E+03 -1.64739E+04 -3.73012E+03
 -1.25860E+04 -1.48987E+04 -1.38778E+03 -2.01769E+04  8.92058E+03 -1.68692E+04  1.68728E+04 -7.83962E+03
  1.53883E+04  7.49478E+02  1.06971E+04  4.33034E+03  5.63970E+03  3.91135E+02  7.73178E+03 -1.59238E+03
  1.44201E+04  3.12858E+03  1.64591E+04  1.31785E+04  9.96510E+03  2.64880E+04 -2.96375E+03  2.84086E+04
 -1.67721E+04  2.25001E+04 -2.61523E+04  1.03301E+04 -2.67702E+04 -1.72915E+03 -2.26486E+04 -1.53072E+04
 -1.04489E+04 -2.20659E+04  7.46431E+03 -1.99750E+04  1.74621E+04 -1.13681E+04  1.67381E+04  3.66460E+03
  6.36588E+03  1.23147E+04 -7.22278E+03  1.12206E+04 -1.42906E+04  2.58253E+03 -1.11031E+04 -8.68358E+03
  3.67133E+02 -1.24890E+04  6.54283E+03 -1.00350E+04  8.05578E+03 -1.87252E+03  1.84179E+03  5.23055E+03
 -5.20457E+03  1.03632E+03 -4.59646E+03 -5.12202E+03  6.12073E+02 -1.13595E+04  7.61966E+03 -1.11858E+04
  1.28998E+04 -5.45977E+03  1.31869E+04  3.14169E+03  1.15664E+04  1.01977E+04  5.51972E+03  1.51978E+04
 -1.98156E+03  1.70514E+04 -9.96102E+03  1.07604E+04 -1.18643E+04  3.08310E+03 -8.78657E+03 -2.16214E+03
 -5.12407E+03 -3.48077E+03 -4.62258E+02  1.16835E+03 -1.78729E+03  1.83352E+03 -3.97089E+03  3.77680E+03
 -8.23162E+03 -7.59639E+02 -9.38138E+03 -7.20099E+03 -3.68508E+03 -1.22622E+04  3.69407E+03 -8.89672E+03
  6.94715E+03 -3.80104E+03  5.82007E+03  2.78309E+03  5.05035E+02  3.61073E+03 -4.06985E+03 -9.39343E+01
 -3.34669E+03 -5.52583E+03 -8.10730E+02 -7.72956E+03  4.20196E+03 -8.49437E+03  1.05466E+04 -4.23388E+03
  1.22403E+04  4.39147E+02  9.20088E+03  6.23216E+03  2.03612E+03  8.44379E+03 -5.40834E+03  8.63495E+03
 -6.97011E+03  2.75113E+03 -3.66460E+03 -1.45384E+03  1.53052E+03 -2.09522E+03  5.28292E+03 -1.33144E+03
  4.28688E+03  3.67337E+03  8.16699E+02  6.52919E+03 -4.71318E+03  6.30998E+03 -8.56806E+03  1.73043E+03
 -4.90439E+03 -3.47115E+03  7.72995E+02 -6.96311E+03  3.88441E+03 -3.55439E+03  4.12918E+03  1.24973E+03
 -4.39395E+01  3.43001E+03 -4.55884E+03  5.11933E+03 -4.51292E+03  2.53993E+03 -4.93525E+03 -1.72928E+03
 -2.94064E+03 -5.84444E+03  1.26022E+03 -7.35408E+03  5.69310E+03 -4.82365E+03  6.69505E+03  1.30576E+03
  4.60423E+03  5.51052E+03 -2.35253E+01  7.69691E+03 -5.29599E+03  4.04433E+03 -5.71282E+03 -2.38632E+02
 -5.69562E+03 -5.31550E+03 -1.28805E+03 -5.51683E+03  2.74541E+03 -4.61173E+03  3.19539E+03 -3.28244E+03
  3.48398E+03 -9.53370E+01 -1.53368E+02  1.16606E+03  5.11109E+02  1.17148E+02  7.94453E+01 -1.46359E+03
  3.93833E+03 -8.31172E+02  5.95228E+03  8.67941E+02  5.28787E+03  3.17023E+03  5.21738E+03  7.27156E+03
 -1.51271E+03  8.47984E+03 -7.79307E+03  6.58611E+03 -1.00199E+04  1.22755E+03 -8.33351E+03 -2.40536E+03
 -4.01157E+03 -6.86425E+03 -9.05849E+02 -4.78709E+03  2.76367E+03 -1.88726E+03  1.89760E+03 -2.38544E+03
  1.00049E+03 -1.36262E+03  2.07209E+03 -2.17254E+03  3.41419E+03 -1.36127E+03  3.63848E+03  2.35469E+02
  4.29533E+03  1.42079E+03  1.07966E+03  3.57948E+03 -1.65336E+03  3.05039E+03 -4.40139E+03  2.19947E+03
 -4.84441E+03 -1.04049E+03 -1.81370E+03 -3.22863E+03  4.07046E+01 -4.97186E+03  3.51086E+03 -5.44760E+03
  5.81266E+03 -3.31359E+03  6.80876E+03  4.23071E+02  4.54902E+03  4.09120E+03  9.31903E+02  6.30637E+03
 -2.01174E+03  5.83232E+03 -3.18848E+03  1.87647E+03 -1.89187E+03 -8.02813E+02 -8.68729E+02 -8.56082E+02
 -3.24249E+02  1.21024E+03 -1.04135E+03  2.04912E+03 -3.07100E+03  1.33827E+03 -3.79935E+03 -1.80322E+02
 -1.63924E+03 -4.08423E+03  3.34360E+02 -4.70599E+03  2.85944E+03 -4.05995E+03  3.40465E+03 -9.45636E+02
  3.86996E+03  2.71715E+03  1.20828E+03  2.90096E+03 -7.62883E+02  4.18627E+03 -2.71018E+03  2.61161E+03
 -4.19905E+03  7.89710E+02 -3.43708E+03 -2.47070E+03 -1.97429E+02 -3.20079E+03  1.51394E+03 -2.44996E+03
  2.38336E+03 -1.32740E+03  1.82551E+03 -1.34651E+02 -9.02791E+01  1.67743E+03  6.38323E+02  1.43530E+02
  1.50499E+03  1.42017E+02  1.38476E+03  1.31571E+03  1.04169E+03  1.90804E+03  1.15897E+03  1.77522E+03
 -1.33815E+03  2.57495E+03 -2.20518E+03  3.83982E+03 -3.03495E+03  1.93941E+03 -3.83401E+03 -5.26108E+02
 -1.68518E+03 -3.44844E+03  5.67413E+02 -3.90084E+03  1.74498E+03 -2.50224E+03  2.57410E+03 -1.23121E+03
  2.67074E+03  1.74186E+03  1.75415E+02  1.67740E+03 -6.80152E+01  6.98768E+02 -8.70412E+02 -3.11403E+02
  2.73891E+02 -2.04032E+03  1.38480E+03 -1.53291E+03  1.11920E+03 -1.20363E+03  8.13217E+02  8.06794E+02
  9.84160E+02  8.60048E+01  1.11441E+03 -2.35637E+02 -4.24099E+02  5.24045E+02  1.43222E+03 -9.50111E+00
 -4.68446E+02 -5.20060E+02  1.61006E+03  4.96040E+02  3.27511E+02  2.44736E+03 -1.70584E+02  2.92433E+03
 -1.78068E+03  8.99936E+02 -1.44858E+03  1.44782E+02 -2.20590E+03 -4.48724E+02 -3.81933E+02 -9.07876E+02
  4.88533E+02 -1.47942E+03  9.92037E+02 -4.04524E+02  4.39842E+02  1.33115E+03 -1.01900E+03  1.11607E+03
 -1.30513E+03  5.25461E+02 -1.35683E+03 -1.89670E+03 -3.89415E+02 -1.96852E+03  3.03354E+02 -1.54623E+03
  3.05628E+01  3.14462E+02  3.55563E+02  1.84027E+02  8.92879E+02 -2.89735E+01  2.12726E+02  1.29409E+03
 -3.21796E+02  1.59488E+02 -9.41905E+02  7.34334E+01  7.48927E+02 -9.76741E+02  1.48003E+03 -4.26750E+02
  1.41281E+03  2.73230E+01  2.57478E+03  4.48554E+02  5.51061E+02  1.51509E+03 -1.97682E+02  2.11957E+03
 -1.11677E+03  2.91382E+02 -1.25401E+03 -1.14946E+02 -6.82056E+02 -1.43476E+03  7.86066E+02 -7.26526E+02
  1.54239E+03 -5.77398E+02  3.51591E+02  8.80539E+02  8.80821E+01  8.59820E+02  2.88068E+02  9.23231E+02
 -2.01064E+02  1.15813E+03 -1.32396E+02  3.32208E+02  2.02121E+02  3.06695E+02 -1.11640E+03  2.19141E+02
 -6.47669E+02  5.77147E+02 -1.56523E+03  7.36077E+02 -1.49703E+03  4.70995E+02 -2.10141E+03 -5.00690E+02
 -9.46819E+02 -1.94754E+03  9.18759E+02 -2.96645E+03  1.06073E+03 -1.83160E+03  2.66867E+03 -1.09270E+03
  2.38560E+03 -5.67759E+02  1.32849E+03  1.01622E+03 -5.96867E+02  1.11779E+03 -2.58426E+02  9.00496E+02
 -7.41190E+02  1.47334E+03 -4.10158E+02 -7.24117E+01 -1.43563E+02  6.56331E+02 -8.67596E+02 -4.07814E+02
 -9.60110E+02 -2.16935E+02 -6.39856E+02 -2.18953E+01  1.99703E+02 -3.63060E+02 -1.65061E+02 -6.74353E+02
  1.22444E+03 -8.65219E+02  1.84881E+02 -2.98562E+02  1.00108E+03  1.35831E+03 -7.38902E+02  1.30511E+03
 -7.97400E+02  1.62331E+03 -1.77966E+03  5.79931E+02 -1.81514E+03 -1.00880E+02 -1.47288E+03 -9.18471E+02
 -1.07700E+03 -6.60908E+02 -9.84091E+01 -1.03227E+03  1.42414E+02 -6.78444E+02  7.27148E+02  2.85400E+02
  8.12208E+02 -6.98008E+01 -8.90171E+01  1.46758E+02  3.20073E+02 -2.25477E+02 -3.23305E+02 -2.15648E+02
  5.72778E+02  1.65643E+02  3.82878E+02  3.52410E+02  2.04976E+02 -1.75627E+02  6.65674E+02  5.08155E+02
 -2.69900E+02  8.28565E+02 -3.87411E+02  6.13277E+02 -3.51887E+02 -5.92867E+01  2.31084E+00 -4.59387E+02
  2.43108E+01 -4.73450E+02  2.57001E+01 -1.40265E+02  7.36605E+02 -7.67224E+02  3.97687E+02  7.40319E+02
  3.10471E+02  4.72839E+02 -3.12672E+02  7.26924E+02 -3.64502E+02  7.67805E+02  6.79618E+01 -1.91928E+02
 -2.74669E+02 -1.50253E+02 -5.55026E+02  4.27609E+02 -5.62738E+01  4.25060E+02 -7.81728E+02 -3.24685E+02
 -9.12496E+02 -2.66152E+01 -2.88044E+02 -1.25112E+03  2.33812E+02 -1.22723E+03  3.46451E+02 -7.17746E+01
  4.85304E+02  2.02433E+02 -3.09237E+02  1.69656E+02 -1.21544E+02  1.32431E+03 -1.98296E+02  5.95760E+02
