 $NMID ID='MM_0lb_SNR400_15hz_g50_86.RAW', FMTDAT='(8E13.5)'
 TRAMP=1., VOLUME=1. $END
  3.09954E+05  2.58659E+02  3.37663E+05  2.50933E+05  8.42555E+04  3.38221E+05 -1.32138E+05  2.50655E+05
 -1.90629E+05  8.33284E+04 -1.11364E+05 -3.25903E+04  1.20868E+03 -5.06911E+04  5.40876E+04 -5.67712E+01
  3.50805E+04  5.26567E+04 -1.64128E+04  7.57268E+04 -6.04843E+04  6.35277E+04 -8.38370E+04  3.17351E+04
 -8.09683E+04 -1.15578E+04 -5.72063E+04 -5.09815E+04 -1.51776E+04 -6.92457E+04  2.72064E+04 -4.55296E+04
  3.95057E+04  3.66399E+03  1.61308E+04  4.77603E+04 -3.43098E+04  4.69886E+04 -6.65650E+04 -4.66232E+02
 -5.33248E+04 -5.69220E+04 -6.78709E+03 -7.70228E+04  3.39859E+04 -5.46292E+04  4.68530E+04 -1.75490E+04
  4.26771E+04  1.16700E+04  3.22164E+04  2.58364E+04  1.61246E+04  2.85994E+04 -5.35414E+03  2.71335E+04
 -2.19842E+04  1.18701E+04 -1.88757E+04 -5.02925E+03  5.05776E+03 -7.65534E+03  2.20699E+04  1.21233E+04
  7.54493E+03  3.47718E+04 -3.16521E+04  3.51625E+04 -6.34556E+04  1.57980E+03 -5.68747E+04 -4.25952E+04
 -1.23528E+04 -6.27758E+04  3.92313E+04 -4.49826E+04  5.78472E+04 -2.13129E+03  3.38729E+04  3.21586E+04
 -6.35586E+03  3.50908E+04 -2.93659E+04  1.53881E+04 -3.01670E+04 -3.99411E+03 -1.65291E+04 -1.06798E+04
 -8.59742E+03 -1.31457E+04 -7.44166E+02 -1.76416E+04  7.33338E+03 -2.32277E+04  1.52025E+04 -1.32261E+04
  1.17035E+04  5.54666E+03 -8.53865E+03  1.34260E+04 -2.06066E+04 -3.93090E+03 -8.03485E+03 -3.35306E+04
  2.29385E+04 -4.25877E+04  4.71297E+04 -1.97884E+04  4.45249E+04  1.92959E+04  1.58994E+04  4.36092E+04
 -1.51503E+04  3.32763E+04 -2.51029E+04  1.16668E+03 -9.85502E+03 -2.74542E+04  2.13787E+04 -3.29107E+04
  4.07435E+04 -8.41090E+03  3.47414E+04  2.34655E+04  1.82918E+04  4.59315E+04 -8.42735E+03  4.91810E+04
 -3.09200E+04  3.32191E+04 -4.10537E+04  8.98984E+03 -4.19880E+04 -1.63842E+04 -2.24038E+04 -3.74839E+04
  8.09213E+03 -3.68180E+04  3.09815E+04 -1.47500E+04  2.88214E+04  1.09816E+04  3.53375E+03  1.89474E+04
 -1.32934E+04  7.52883E+03 -1.02275E+04 -7.81437E+03  5.74444E+03 -1.03904E+04  1.85839E+04  6.01935E+03
  1.32992E+04  2.17374E+04 -5.91684E+03  2.46299E+04 -2.22913E+04  1.07036E+04 -2.74873E+04 -4.97715E+03
 -1.98087E+04 -1.75859E+04 -8.40415E+03 -1.96449E+04  3.81686E+03 -1.91516E+04  1.50868E+04 -1.73461E+04
  2.47300E+04 -1.24143E+04  3.14369E+04  2.41339E+03  2.36268E+04  1.92246E+04  4.53602E+03  3.60765E+04
 -1.68750E+04  3.03069E+04 -2.77201E+04  1.07723E+04 -2.05566E+04 -1.02853E+04 -4.51041E+03 -1.35340E+04
  2.12258E+03 -3.34867E+03 -4.76623E+03  6.19769E+03 -1.56333E+04  5.24862E+03 -1.53211E+04 -7.24888E+03
 -1.01653E+04 -1.82957E+04  5.49074E+03 -2.25279E+04  1.51160E+04 -1.61813E+04  1.72171E+04 -1.25692E+03
  1.06561E+04  1.30249E+04 -1.85483E+03  1.83746E+04 -1.25756E+04  1.05322E+04 -1.83126E+04 -4.02904E+03
 -1.34580E+04 -1.61501E+04 -1.77562E+03 -2.24034E+04  9.83861E+03 -1.80480E+04  1.81374E+04 -9.32411E+03
  1.67677E+04  3.06769E+02  1.22671E+04  4.40966E+03  6.61989E+03  8.19955E+02  8.76287E+03 -1.27716E+03
  1.64425E+04  2.83450E+03  1.85223E+04  1.46173E+04  1.19061E+04  2.92890E+04 -3.04577E+03  3.29835E+04
 -1.85417E+04  2.58929E+04 -3.06187E+04  1.27916E+04 -3.14446E+04 -1.72927E+03 -2.64360E+04 -1.85404E+04
 -1.12858E+04 -2.61022E+04  9.21925E+03 -2.40394E+04  2.10060E+04 -1.24834E+04  1.85083E+04  5.15157E+03
  7.50463E+03  1.40757E+04 -8.65691E+03  1.24072E+04 -1.55081E+04  2.70698E+03 -1.15729E+04 -1.00148E+04
  1.14765E+02 -1.43738E+04  7.56684E+03 -1.10113E+04  9.75693E+03 -1.40307E+03  2.22688E+03  6.44531E+03
 -5.96802E+03  1.77543E+03 -5.39415E+03 -4.93267E+03 -8.75002E+02 -1.27639E+04  8.89708E+03 -1.32712E+04
  1.54835E+04 -6.82071E+03  1.68554E+04  2.78491E+03  1.44880E+04  1.21884E+04  6.47777E+03  1.84059E+04
 -2.85423E+03  2.06301E+04 -1.29211E+04  1.29960E+04 -1.44428E+04  3.07840E+03 -1.12995E+04 -3.67334E+03
 -5.04594E+03 -4.96169E+03 -9.33912E+02  1.07206E+03 -2.27556E+03  2.11866E+03 -4.56270E+03  4.16341E+03
 -9.91651E+03 -6.74082E+02 -1.06582E+04 -8.73102E+03 -4.21938E+03 -1.45825E+04  4.55950E+03 -1.07104E+04
  9.36769E+03 -4.38777E+03  6.06038E+03  2.48068E+03  6.47830E+02  4.03615E+03 -4.47163E+03  7.24588E+01
 -4.50636E+03 -6.63242E+03 -1.72880E+03 -9.80338E+03  5.75089E+03 -1.06599E+04  1.40111E+04 -5.75534E+03
  1.61727E+04  8.89816E+02  1.12184E+04  8.58932E+03  1.86884E+03  1.12825E+04 -6.52411E+03  1.08488E+04
 -8.75167E+03  3.17534E+03 -4.55395E+03 -2.06644E+03  1.62600E+03 -3.06176E+03  6.02567E+03 -8.47279E+02
  4.73736E+03  4.70743E+03  1.32674E+03  8.02181E+03 -6.38774E+03  8.21709E+03 -1.04690E+04  2.39111E+03
 -6.82898E+03 -5.35494E+03  2.19539E+02 -8.46673E+03  4.63485E+03 -3.99528E+03  5.07007E+03  2.38419E+03
  7.66657E+02  5.65566E+03 -5.83207E+03  7.45440E+03 -7.26710E+03  3.03330E+03 -7.67611E+03 -2.39227E+03
 -4.18069E+03 -8.65618E+03  2.54384E+03 -1.02011E+04  8.33658E+03 -6.33341E+03  9.35351E+03  1.71628E+03
  6.38541E+03  8.21971E+03  8.33699E+01  9.32493E+03 -7.15155E+03  5.46137E+03 -7.12172E+03 -1.44060E+03
 -7.08296E+03 -6.95952E+03 -1.38312E+03 -7.43271E+03  3.48231E+03 -5.87355E+03  4.59675E+03 -3.30009E+03
  3.06084E+03  4.59540E+02 -3.57751E+02  1.45557E+03 -3.09331E+02 -9.46024E+02  7.93739E+02 -3.23365E+03
  5.75715E+03 -1.44334E+03  8.74494E+03  8.59022E+02  8.15201E+03  5.32744E+03  6.48978E+03  1.08602E+04
 -3.08792E+03  1.27655E+04 -1.10544E+04  9.41409E+03 -1.42902E+04  1.61524E+03 -1.14338E+04 -4.03208E+03
 -6.00622E+03 -9.47694E+03 -2.37240E+02 -7.67634E+03  2.46870E+03 -3.76588E+03  3.01154E+03 -2.67495E+03
  1.91374E+03 -1.95233E+03  2.86784E+03 -2.96587E+03  4.32833E+03 -1.91322E+03  4.81737E+03  2.23525E+02
  6.72908E+03  1.46647E+03  2.16679E+03  4.71560E+03 -1.64219E+03  5.62800E+03 -6.29765E+03  4.33411E+03
 -8.03596E+03 -5.30978E+02 -3.63463E+03 -5.58622E+03  5.70972E+01 -8.09510E+03  4.79995E+03 -8.32680E+03
  8.72035E+03 -4.58014E+03  1.03749E+04  6.32132E+02  7.54348E+03  6.75268E+03  1.42905E+03  9.46257E+03
 -2.86135E+03  8.09652E+03 -5.35491E+03  2.74671E+03 -3.78957E+03 -1.21874E+03 -1.20130E+03 -7.44135E+02
 -1.05361E+03  1.10560E+02 -1.31421E+03  2.24578E+03 -3.79076E+03  1.23655E+03 -5.46304E+03 -1.06797E+03
 -3.12845E+03 -5.57444E+03 -8.14866E+01 -7.79095E+03  4.10847E+03 -7.13126E+03  6.79648E+03 -1.64734E+03
  6.27801E+03  3.99700E+03  2.66254E+03  6.62237E+03 -2.11317E+03  6.91804E+03 -4.99629E+03  4.20514E+03
 -5.98537E+03  4.32735E+02 -5.05525E+03 -3.67738E+03 -7.18181E+02 -5.50687E+03  3.18738E+03 -4.49004E+03
  4.44957E+03 -1.57456E+03  2.91205E+03  1.38464E+03  1.01060E+03  2.69568E+03  6.75776E+02  6.37013E+02
  2.43087E+03 -1.60907E+02  1.83400E+03  1.08641E+03  2.17445E+03  3.81204E+03  1.98912E+03  2.92680E+03
 -1.99558E+03  5.09672E+03 -3.93072E+03  6.72414E+03 -5.75075E+03  1.70126E+03 -6.67672E+03 -1.97111E+03
 -3.14090E+03 -6.98721E+03  3.37436E+02 -7.81977E+03  3.40826E+03 -4.41364E+03  5.18361E+03 -1.41076E+03
  4.05642E+03  2.41825E+03  1.21197E+03  3.86531E+03 -1.54167E+03  1.87289E+03 -2.30895E+03 -3.78294E+02
 -1.39107E+03 -2.77452E+03  2.22102E+03 -2.57325E+03  2.79826E+03 -1.31210E+03  2.89658E+03  9.81493E+02
  1.42219E+03  1.20497E+03  7.60764E+02  6.39461E+01 -5.35228E+02  1.58309E+03  1.29663E+03 -1.19643E+02
  4.40925E+02 -2.02138E+02  2.95308E+03  1.32348E+03  1.16656E+03  3.60888E+03 -8.96180E+02  4.70611E+03
 -3.25040E+03  2.95450E+03 -3.65331E+03  6.25727E+02 -3.12044E+03 -8.70277E+02 -6.38758E+02 -2.47050E+03
  5.40330E+02 -2.29150E+03  1.51661E+03 -1.22694E+03  9.34918E+02  1.02248E+03 -1.48564E+03  1.86190E+03
 -2.41396E+03  1.63691E+03 -2.87445E+03 -1.42150E+03 -1.51203E+03 -3.38100E+03  1.17448E+03 -3.14228E+03
  9.41357E+02 -1.74407E+03  2.11740E+03 -2.12149E+02  2.33258E+03  8.21472E+02  6.03754E+02  1.68656E+03
 -7.59099E+02  4.94697E+02 -1.90123E+03 -8.40905E+02  5.67633E+02 -2.53833E+03  3.37503E+03 -2.00542E+03
  3.22885E+03  2.46034E+02  4.24993E+03  2.53135E+03  1.37725E+03  3.38962E+03 -1.23228E+03  4.18542E+03
 -2.37643E+03  1.01545E+03 -2.66983E+03 -5.70822E+02 -1.43353E+03 -2.50878E+03  6.31742E+02 -2.04689E+03
  2.57561E+03 -1.66340E+03  1.81770E+03  1.52625E+03  5.42334E+02  2.95143E+03 -2.93905E+02  1.87097E+03
 -4.08032E+02  1.64970E+03 -1.05687E+03  3.15615E+02 -3.21706E+02  3.15978E+02 -8.46726E+02  1.66052E+02
 -1.36358E+03  1.78775E+03 -3.08311E+03  7.99806E+02 -3.26063E+03 -4.07927E+01 -4.37122E+03 -2.29725E+03
 -2.61973E+03 -4.60442E+03  9.42691E+02 -5.70498E+03  2.42568E+03 -4.20624E+03  4.93152E+03 -1.41989E+03
  4.75365E+03  5.65988E+02  2.94922E+03  3.11011E+03  1.83928E+02  3.13824E+03 -1.95046E+03  2.69892E+03
 -1.98977E+03  9.31155E+02 -1.57597E+03 -5.50020E+02 -1.07501E+03 -8.55380E-02 -7.84792E+02 -5.24243E+02
 -1.20887E+03  1.72367E+02 -1.84342E+03  4.29330E+01  3.11936E+02 -9.22652E+02 -1.98779E+02 -1.23671E+03
  1.55353E+03 -7.58580E+02  1.04270E+03  2.91466E+02  2.22820E+03  2.00562E+03 -2.55893E+02  3.16770E+03
 -1.21243E+03  4.48424E+03 -3.65538E+03  2.42176E+03 -3.94242E+03 -6.61813E+02 -3.19151E+03 -2.78764E+03
 -1.47449E+03 -3.04276E+03  2.68916E+02 -2.39092E+03  1.54082E+03 -1.77937E+03  1.74383E+03  9.09160E+01
  1.06191E+03  9.28968E+02 -2.59242E+02  1.08142E+03 -1.25745E+03 -8.08662E+01 -3.53254E+01 -8.96566E+02
  1.07041E+03  6.90588E+01  1.14817E+03  7.26136E+02  6.71011E+02  1.46848E+03  8.81416E+02  1.51316E+03
 -9.90787E+02  1.80052E+03 -1.43128E+03 -2.94153E+02 -1.52266E+03 -1.08767E+03  2.72158E+01 -2.69917E+03
  1.36510E+03 -2.04777E+03  2.48445E+03 -7.21778E+02  2.69920E+03 -2.48570E+01  1.26769E+03  2.30336E+03
  2.29321E+02  2.48994E+03 -1.01833E+03  1.16012E+03 -1.40282E+03  8.58482E+02 -1.02849E+03  3.82963E+02
 -1.39256E+02  8.02927E+02 -7.05114E+02  7.94979E+02 -1.20929E+03  8.95796E+02 -1.32400E+03 -2.79684E+02
 -1.72956E+03 -1.32332E+02 -5.64894E+02 -2.00698E+03  1.30743E+03 -2.29619E+03  1.26491E+03 -9.95900E+02
  1.76314E+03  2.87632E+01  2.98919E+02  1.27605E+03 -1.34669E+02  1.77425E+03 -1.17215E+03  1.17444E+03
