 $NMID ID='MM_0lb_SNR400_19hz_g55_97.RAW', FMTDAT='(8E13.5)'
 TRAMP=1., VOLUME=1. $END
  3.09188E+05  4.26667E+02  3.37491E+05  2.51093E+05  8.47616E+04  3.37607E+05 -1.32043E+05  2.50173E+05
 -1.90380E+05  8.25975E+04 -1.11144E+05 -3.27555E+04  1.62846E+03 -5.03048E+04  5.40401E+04 -3.50805E+02
  3.49742E+04  5.28775E+04 -1.67603E+04  7.47729E+04 -6.05030E+04  6.31110E+04 -8.28001E+04  3.13347E+04
 -8.02315E+04 -1.14262E+04 -5.67680E+04 -5.05563E+04 -1.45326E+04 -6.86915E+04  2.68409E+04 -4.47592E+04
  3.99995E+04  3.74092E+03  1.56758E+04  4.74625E+04 -3.45666E+04  4.61555E+04 -6.53147E+04 -5.34090E+02
 -5.23689E+04 -5.59260E+04 -6.47481E+03 -7.56709E+04  3.36578E+04 -5.39493E+04  4.62192E+04 -1.67335E+04
  4.20710E+04  1.16622E+04  3.10773E+04  2.50379E+04  1.60926E+04  2.85448E+04 -4.88451E+03  2.73320E+04
 -2.20256E+04  1.27282E+04 -1.90616E+04 -4.61279E+03  4.86044E+03 -7.29123E+03  2.17645E+04  1.12880E+04
  7.22814E+03  3.44026E+04 -3.13160E+04  3.44630E+04 -6.16262E+04  2.46139E+03 -5.58371E+04 -4.12131E+04
 -1.24496E+04 -6.16851E+04  3.83177E+04 -4.38144E+04  5.65094E+04 -2.28862E+03  3.23161E+04  3.15747E+04
 -6.38390E+03  3.37897E+04 -2.86903E+04  1.40175E+04 -2.78591E+04 -5.07762E+03 -1.48941E+04 -9.99293E+03
 -7.49947E+03 -1.19649E+04 -7.12646E+02 -1.66683E+04  7.31620E+03 -2.24703E+04  1.48148E+04 -1.34397E+04
  1.15906E+04  4.38079E+03 -6.69420E+03  1.31727E+04 -1.97037E+04 -3.06979E+03 -7.90256E+03 -3.17066E+04
  2.10939E+04 -4.10366E+04  4.51939E+04 -1.94630E+04  4.25626E+04  1.85428E+04  1.50642E+04  4.22678E+04
 -1.53258E+04  3.20125E+04 -2.33415E+04  1.51564E+03 -8.28850E+03 -2.62057E+04  2.04761E+04 -3.14243E+04
  3.86672E+04 -7.79524E+03  3.23223E+04  2.30071E+04  1.61020E+04  4.34308E+04 -7.88300E+03  4.62992E+04
 -2.87432E+04  3.04667E+04 -3.83169E+04  8.40555E+03 -3.91429E+04 -1.54309E+04 -2.16549E+04 -3.50150E+04
  6.41462E+03 -3.47923E+04  2.98265E+04 -1.28870E+04  2.69576E+04  1.05964E+04  3.13134E+03  1.77486E+04
 -1.36295E+04  7.45945E+03 -9.60014E+03 -7.70092E+03  5.95929E+03 -1.03239E+04  1.75026E+04  5.55190E+03
  1.25938E+04  2.21460E+04 -6.53249E+03  2.39173E+04 -2.15027E+04  9.52622E+03 -2.60438E+04 -6.07004E+03
 -1.78469E+04 -1.68326E+04 -6.42463E+03 -1.79535E+04  3.57889E+03 -1.51647E+04  1.29030E+04 -1.49943E+04
  2.21038E+04 -1.18000E+04  2.86159E+04  1.21690E+03  2.13425E+04  1.66619E+04  3.97563E+03  3.28066E+04
 -1.62445E+04  2.81012E+04 -2.59139E+04  9.65227E+03 -2.02795E+04 -1.02049E+04 -3.76088E+03 -1.34649E+04
  2.62747E+03 -4.07667E+03 -3.01008E+03  5.77196E+03 -1.40292E+04  5.27022E+03 -1.30681E+04 -4.83523E+03
 -9.07780E+03 -1.58428E+04  4.79290E+03 -1.95725E+04  1.27219E+04 -1.41382E+04  1.50298E+04 -1.22276E+03
  9.39639E+03  1.13085E+04 -9.89053E+02  1.62840E+04 -1.05531E+04  8.89801E+03 -1.61460E+04 -3.85289E+03
 -1.20304E+04 -1.48954E+04 -1.62394E+03 -1.96434E+04  8.79001E+03 -1.56682E+04  1.61369E+04 -7.63492E+03
  1.53964E+04  9.20719E+02  1.14964E+04  4.27212E+03  5.35959E+03  8.40785E+02  8.29606E+03 -1.43466E+03
  1.39730E+04  2.54984E+03  1.51682E+04  1.28972E+04  9.55896E+03  2.49751E+04 -3.02721E+03  2.74885E+04
 -1.62263E+04  2.06530E+04 -2.49098E+04  9.94912E+03 -2.57038E+04 -1.98315E+03 -2.18302E+04 -1.50605E+04
 -1.00549E+04 -2.11263E+04  6.89218E+03 -1.95571E+04  1.67371E+04 -1.10512E+04  1.58535E+04  3.97532E+03
  6.49451E+03  1.10306E+04 -7.15415E+03  1.03246E+04 -1.33607E+04  2.59535E+03 -1.05745E+04 -7.63571E+03
 -2.18172E+02 -1.26406E+04  6.29444E+03 -9.64365E+03  8.31121E+03 -9.28805E+02  1.30426E+03  4.92911E+03
 -5.64321E+03  1.71043E+03 -3.97886E+03 -5.06661E+03  7.54204E+02 -1.02947E+04  8.05999E+03 -1.05132E+04
  1.25204E+04 -4.58975E+03  1.18560E+04  2.74338E+03  1.09799E+04  9.76247E+03  5.06988E+03  1.41275E+04
 -1.92283E+03  1.67920E+04 -9.93318E+03  9.72152E+03 -1.14762E+04  3.51352E+03 -8.68844E+03 -2.13136E+03
 -4.57462E+03 -3.38446E+03 -1.27903E+03  1.95552E+03 -1.97240E+03  2.11618E+03 -3.56274E+03  4.13352E+03
 -8.46274E+03 -1.26831E+03 -9.11547E+03 -7.39820E+03 -3.49002E+03 -1.22414E+04  3.82543E+03 -8.67084E+03
  7.40900E+03 -4.33152E+03  5.25280E+03  2.03978E+03  4.58784E+02  3.34142E+03 -3.49953E+03 -9.24797E+01
 -3.68228E+03 -5.10167E+03 -6.82035E+02 -7.40004E+03  4.68360E+03 -7.52128E+03  9.97521E+03 -4.61818E+03
  1.17387E+04  5.80280E+02  8.97580E+03  5.81492E+03  1.63261E+03  8.77841E+03 -5.49779E+03  8.29365E+03
 -7.06362E+03  2.64810E+03 -3.53212E+03 -1.06545E+03  1.30357E+03 -2.02328E+03  4.66614E+03 -1.25383E+03
  4.26890E+03  3.00145E+03  1.38212E+03  6.48618E+03 -3.94491E+03  6.49766E+03 -7.72430E+03  2.07459E+03
 -5.24502E+03 -3.61773E+03  1.74911E+02 -7.02596E+03  3.35079E+03 -3.36574E+03  3.52136E+03  1.18816E+03
  2.81954E+02  3.79166E+03 -4.38114E+03  5.04013E+03 -4.82083E+03  2.57411E+03 -4.50662E+03 -1.18619E+03
 -2.41988E+03 -5.93145E+03  1.72430E+03 -7.40156E+03  5.99980E+03 -4.57094E+03  6.15869E+03  1.24311E+03
  4.81215E+03  5.18559E+03 -2.97896E+02  6.91757E+03 -4.65777E+03  4.53253E+03 -5.47535E+03  2.84028E+02
 -5.85848E+03 -5.55966E+03 -1.39786E+03 -5.29001E+03  2.79177E+03 -4.92604E+03  3.15677E+03 -2.35401E+03
  2.68081E+03  1.60117E+00 -2.30011E+02  1.18265E+03 -3.65334E+01 -5.92188E+02  1.30684E+02 -1.59115E+03
  3.86069E+03 -3.10112E+02  5.36396E+03  3.52126E+02  5.07165E+03  3.00055E+03  5.43905E+03  7.43270E+03
 -1.51510E+03  8.55379E+03 -7.31300E+03  6.06403E+03 -9.43442E+03  9.70951E+02 -7.66245E+03 -2.67047E+03
 -4.28986E+03 -6.21834E+03 -4.32757E+02 -4.52847E+03  1.96302E+03 -2.02204E+03  1.60500E+03 -2.03712E+03
  1.07048E+03 -1.51058E+03  2.17490E+03 -2.08604E+03  3.59791E+03 -1.88347E+03  3.69179E+03  5.20767E+02
  4.33117E+03  1.22040E+03  1.17965E+03  3.54576E+03 -1.95839E+03  2.71111E+03 -4.42911E+03  2.43464E+03
 -4.95786E+03 -1.39209E+03 -1.59091E+03 -2.99479E+03  6.71939E+02 -4.62913E+03  3.70003E+03 -5.44590E+03
  5.07447E+03 -3.07452E+03  6.43409E+03  9.93965E+01  4.20254E+03  4.04498E+03  1.52314E+03  5.70320E+03
 -2.05548E+03  5.87374E+03 -3.30170E+03  2.09637E+03 -1.42815E+03 -1.19462E+03 -2.47116E+02 -5.42860E+02
 -8.29913E+02  1.87721E+02 -9.30940E+02  2.61411E+03 -2.20069E+03  1.45184E+03 -4.23271E+03 -6.25990E+02
 -1.32977E+03 -3.84405E+03  7.77771E+02 -4.85324E+03  2.73503E+03 -4.32989E+03  3.03492E+03 -1.43761E+03
  3.49405E+03  2.01114E+03  2.02855E+03  3.27202E+03 -7.66789E+02  4.47742E+03 -2.42236E+03  2.60619E+03
 -3.79931E+03  3.04987E+02 -3.93916E+03 -2.20426E+03  2.84432E+02 -3.71640E+03  1.56213E+03 -2.55615E+03
  2.12753E+03 -6.70745E+02  1.80861E+03  4.30924E+02  6.74392E+02  1.87209E+03  1.28167E+03 -3.80563E+02
  2.18713E+03  4.15698E+02  1.46809E+03  1.11076E+03  7.24745E+02  2.28598E+03  1.38383E+03  1.61754E+03
 -1.52628E+03  2.20376E+03 -2.37498E+03  3.89972E+03 -2.70437E+03  6.29511E+02 -4.04554E+03 -5.51274E+02
 -1.77341E+03 -3.48707E+03  8.53161E+02 -4.61480E+03  1.66653E+03 -2.29050E+03  3.17360E+03 -1.35736E+03
  2.27653E+03  1.37416E+03  2.92752E+02  1.69813E+03 -7.23486E+02  1.08621E+03 -6.51055E+02 -4.08671E+01
 -8.53191E+02 -1.30730E+03  1.14249E+03 -1.39014E+03  1.42042E+03 -1.08912E+03  1.83074E+03  2.55619E+02
  3.69062E+02 -1.93704E+01  7.68144E+02 -3.35078E+02 -3.11885E+02  6.37823E+02  1.49280E+03 -6.04186E+00
  3.42728E+02  1.56218E+02  1.38906E+03  6.42545E+02  3.55586E+02  2.48850E+03 -3.22604E+02  2.55393E+03
 -8.78054E+02  4.71537E+02 -2.01777E+03  1.58895E+02 -2.59890E+03 -8.80874E+02 -3.93137E+01 -9.92713E+02
  9.08443E+02 -1.38949E+03  9.83361E+02 -1.10710E+03  6.20148E+02  1.00723E+03 -7.84904E+02  1.45728E+03
 -1.50538E+03  1.37453E+03 -1.16759E+03 -1.49898E+03 -1.09536E+03 -1.67516E+03 -2.85531E+02 -7.07827E+02
  3.21399E+02 -5.10206E+02  6.69720E+01  3.65323E+02  8.86167E+02 -3.86783E+02  7.57148E+02  1.13604E+03
 -1.65498E+02 -3.86794E+02 -5.83244E+02  2.19375E+02  6.52492E+02 -4.88060E+02  1.62499E+03 -1.01609E+03
  7.03055E+02  3.26887E+02  2.60500E+03 -7.13309E+01  8.36807E+02  1.26265E+03 -2.44899E+02  1.43496E+03
 -7.25011E+02 -3.26884E+02 -1.49818E+03  1.70469E+02 -5.95947E+02 -1.46646E+03  2.88071E+02 -6.12339E+02
  1.55810E+03 -4.34927E+02  5.64737E+02  1.27871E+02 -2.10136E+02  1.31733E+03 -2.29090E+00  1.07652E+03
 -8.45426E+01  1.70426E+02 -1.01661E+01  1.95553E+02 -3.69708E+02  2.55306E+02 -3.29556E+02  1.23347E+02
 -2.40843E+02  9.79982E+02 -1.93912E+03  2.92286E+02 -1.63305E+03  4.43006E+02 -2.19366E+03 -3.19920E+02
 -7.25218E+02 -2.08811E+03  4.93362E+02 -2.31241E+03  6.05870E+02 -2.21177E+03  2.08353E+03 -7.12322E+02
  1.73272E+03 -1.92033E+02  6.48698E+02  1.89333E+03 -7.29324E+02  1.42809E+03 -8.87316E+01  1.29002E+03
 -6.35382E+02  5.79854E+02 -2.32806E+02 -2.39190E+02 -3.73272E+02  2.35098E+02 -8.83362E+02  9.17826E+01
 -8.63885E+02 -1.89976E+02 -6.23465E+02  1.46624E+02  2.37938E+02 -8.31130E+02 -6.14274E+02 -3.47034E+02
  1.48279E+03 -4.91142E+02  4.41203E+02  6.81382E+01  1.03589E+03  1.24483E+03 -6.58403E+02  9.37163E+02
 -1.40409E+03  2.25649E+03 -1.25719E+03  1.01605E+03 -1.68805E+03 -4.64741E+01 -1.08518E+03 -7.25788E+02
 -4.73366E+02 -9.55176E+02  7.90849E+02 -1.21287E+03  2.78082E+02 -1.00139E+03  1.03940E+03  3.65059E+02
  4.31832E+02  2.49169E+02  1.09264E+02  6.57680E+02 -7.02115E+02 -1.15588E+02  4.87501E+02 -3.29211E+02
  6.01223E+02  4.91892E+02  3.77413E+02  5.09346E+02 -1.58850E+02  4.75387E+02 -1.63453E+02  3.90790E+02
 -2.84664E+02  3.87727E+02 -8.91753E+02  1.81894E+02 -2.82749E+02 -8.17115E+02  3.49289E+02 -4.63813E+02
  4.07915E+02 -4.93488E+02  1.28485E+02 -3.26169E+01  6.43153E+02 -1.10105E+03  3.39174E+02  3.82558E+02
  2.94428E+02  8.58352E+02 -5.04324E+02  5.07032E+02 -6.45957E+02  7.24243E+02 -2.65667E+02  9.08720E+01
 -1.66011E+02 -2.33076E+02 -4.57056E+02  2.09199E+02 -3.62097E+02 -3.07079E+02 -6.98292E+02 -3.29906E+02
 -9.55939E+02  5.69109E+02 -5.48015E+02 -1.00668E+03  1.09860E+02 -1.06635E+03  6.92903E+02 -1.80897E+02
  3.81276E+02 -2.48227E+02 -5.49410E+02  1.41535E+00  7.30238E+01  7.83022E+02 -5.39557E+02  5.43452E+02
