 $NMID ID='MM_0lb_SNR400_10hz_g50_15.RAW', FMTDAT='(8E13.5)'
 TRAMP=1., VOLUME=1. $END
  3.09451E+05  8.82060E+02  3.37722E+05  2.51158E+05  8.47362E+04  3.37892E+05 -1.32952E+05  2.51846E+05
 -1.90145E+05  8.34259E+04 -1.12589E+05 -3.25739E+04  1.26149E+02 -5.08263E+04  5.49062E+04 -1.07182E+03
  3.58217E+04  5.25410E+04 -1.71578E+04  7.62871E+04 -6.12295E+04  6.40674E+04 -8.52827E+04  3.23924E+04
 -8.25143E+04 -1.18412E+04 -5.82675E+04 -5.13302E+04 -1.56412E+04 -7.06615E+04  2.88593E+04 -4.68414E+04
  4.00358E+04  3.55657E+03  1.68115E+04  4.82868E+04 -3.50311E+04  4.70205E+04 -6.79802E+04  1.04178E+01
 -5.42372E+04 -5.75004E+04 -7.13242E+03 -7.87071E+04  3.45453E+04 -5.69537E+04  4.89489E+04 -1.78160E+04
  4.45299E+04  1.11474E+04  3.28393E+04  2.61576E+04  1.58347E+04  3.02508E+04 -5.81113E+03  2.80771E+04
 -2.22270E+04  1.17925E+04 -1.80409E+04 -5.08279E+03  6.79392E+03 -8.35818E+03  2.33469E+04  1.34113E+04
  7.07075E+03  3.73124E+04 -3.38936E+04  3.68525E+04 -6.53466E+04  1.98822E+03 -5.81952E+04 -4.45597E+04
 -1.21985E+04 -6.50347E+04  4.07318E+04 -4.69600E+04  6.15223E+04 -2.15040E+03  3.60870E+04  3.40464E+04
 -6.15295E+03  3.91676E+04 -3.10653E+04  1.91090E+04 -3.25304E+04 -3.04032E+03 -1.87738E+04 -1.13865E+04
 -8.63355E+03 -1.42357E+04 -7.90363E+02 -1.94829E+04  8.09959E+03 -2.34940E+04  1.63824E+04 -1.25343E+04
  1.08080E+04  6.25606E+03 -1.03652E+04  1.26363E+04 -2.31730E+04 -6.10111E+03 -8.37800E+03 -3.68793E+04
  2.42616E+04 -4.58654E+04  5.21439E+04 -2.09313E+04  4.83424E+04  2.04092E+04  1.74411E+04  4.68662E+04
 -1.65580E+04  3.57934E+04 -2.64375E+04  2.58799E+03 -1.14600E+04 -2.93755E+04  2.15415E+04 -3.72572E+04
  4.35278E+04 -1.03797E+04  3.92686E+04  2.45911E+04  2.04343E+04  5.05131E+04 -8.00346E+03  5.44219E+04
 -3.46396E+04  3.74583E+04 -4.66674E+04  1.11722E+04 -4.67690E+04 -1.83611E+04 -2.54801E+04 -4.14008E+04
  7.36260E+03 -4.18464E+04  3.38708E+04 -1.67192E+04  3.07522E+04  1.17311E+04  5.08899E+03  2.02970E+04
 -1.36020E+04  9.36795E+03 -1.11336E+04 -7.33782E+03  6.08820E+03 -9.76468E+03  1.80072E+04  5.74242E+03
  1.44672E+04  2.27124E+04 -5.47864E+03  2.68749E+04 -2.27093E+04  1.35041E+04 -3.02498E+04 -3.78519E+03
 -2.41991E+04 -1.76825E+04 -1.14794E+04 -2.45240E+04  3.68501E+03 -2.45959E+04  1.89989E+04 -2.13009E+04
  3.03354E+04 -1.33012E+04  3.67425E+04  4.82078E+03  2.64783E+04  2.39516E+04  4.23870E+03  4.00254E+04
 -1.95475E+04  3.25676E+04 -2.91420E+04  1.18014E+04 -2.28070E+04 -1.03826E+04 -5.16545E+03 -1.28088E+04
  7.48965E+02 -1.57794E+03 -7.84735E+03  7.76592E+03 -1.91470E+04  4.86121E+03 -1.93698E+04 -9.69109E+03
 -1.11550E+04 -2.21377E+04  5.19658E+03 -2.66242E+04  1.79549E+04 -1.94549E+04  2.13794E+04 -1.71842E+03
  1.34951E+04  1.58462E+04 -7.17918E+02  2.23672E+04 -1.55889E+04  1.32876E+04 -2.25031E+04 -4.47645E+03
 -1.65115E+04 -2.07422E+04 -2.16862E+03 -2.71838E+04  1.17610E+04 -2.28291E+04  2.25267E+04 -1.16545E+04
  2.05064E+04  1.23092E+02  1.50303E+04  5.48182E+03  8.49043E+03  1.45146E+03  1.22084E+04 -2.11049E+03
  2.13193E+04  2.52628E+03  2.42435E+04  1.82438E+04  1.60296E+04  3.65128E+04 -2.01945E+03  4.16186E+04
 -2.41831E+04  3.51295E+04 -3.98398E+04  1.74657E+04 -4.20755E+04 -2.75142E+03 -3.44347E+04 -2.45612E+04
 -1.36675E+04 -3.43902E+04  1.26725E+04 -3.06603E+04  2.62803E+04 -1.46878E+04  2.33624E+04  7.49084E+03
  7.68672E+03  1.79192E+04 -1.09398E+04  1.49377E+04 -1.99981E+04  2.98103E+03 -1.45532E+04 -1.21851E+04
 -3.64704E+02 -1.83398E+04  9.91471E+03 -1.37649E+04  1.27217E+04 -1.50758E+03  3.16547E+03  8.08532E+03
 -8.34925E+03  3.76688E+03 -9.13990E+03 -6.08274E+03 -8.92276E+02 -1.71235E+04  1.19678E+04 -1.87918E+04
  2.20438E+04 -1.00087E+04  2.47877E+04  3.63590E+03  2.10855E+04  1.67899E+04  1.01847E+04  2.69213E+04
 -5.70260E+03  2.91074E+04 -1.87231E+04  1.80743E+04 -2.07354E+04  3.82749E+03 -1.39476E+04 -4.63869E+03
 -6.00893E+03 -6.83950E+03 -4.04332E+02  7.51518E+02 -3.88930E+03  2.84586E+03 -6.22648E+03  5.05073E+03
 -1.35242E+04 -1.06637E+03 -1.46292E+04 -1.15122E+04 -5.89532E+03 -1.84125E+04  6.30130E+03 -1.50041E+04
  1.21712E+04 -6.09754E+03  9.01711E+03  3.97912E+03  1.53089E+02  5.29901E+03 -7.37355E+03 -1.75500E+02
 -8.05713E+03 -9.07044E+03 -8.81435E+02 -1.48779E+04  8.95794E+03 -1.50017E+04  1.86727E+04 -8.18634E+03
  2.16359E+04  2.08182E+03  1.63884E+04  1.33388E+04  3.05428E+03  1.78787E+04 -8.98567E+03  1.42785E+04
 -1.18417E+04  4.42098E+03 -6.37657E+03 -3.24923E+03  1.93952E+03 -3.55389E+03  7.67767E+03 -1.37521E+03
  7.71604E+03  6.57821E+03  1.47685E+03  1.20275E+04 -9.23058E+03  1.21970E+04 -1.41598E+04  2.58895E+03
 -9.88477E+03 -7.91153E+03 -5.98994E+01 -1.17850E+04  7.77662E+03 -7.10924E+03  8.72951E+03  3.26694E+03
  1.70880E+03  1.00314E+04 -7.44210E+03  1.07999E+04 -1.20040E+04  4.79300E+03 -1.23971E+04 -4.30970E+03
 -6.65086E+03 -1.48559E+04  3.82721E+03 -1.73708E+04  1.39784E+04 -9.96791E+03  1.56579E+04  2.08144E+03
  9.16393E+03  1.25822E+04 -1.47079E+03  1.49658E+04 -1.04230E+04  8.19431E+03 -1.18462E+04 -1.05520E+03
 -1.02057E+04 -9.78438E+03 -2.48701E+03 -1.16082E+04  5.97100E+03 -8.10450E+03  7.47944E+03 -3.30087E+03
  4.27741E+03  1.38066E+03 -1.65854E+03  2.35628E+03 -1.18955E+03 -2.47849E+03  2.21615E+03 -7.09094E+03
  1.01802E+04 -4.31564E+03  1.39934E+04  1.86215E+03  1.40690E+04  9.81799E+03  9.82743E+03  1.91035E+04
 -4.38091E+03  2.22717E+04 -1.76550E+04  1.62556E+04 -2.36810E+04  3.14973E+03 -1.90577E+04 -8.85210E+03
 -9.30052E+03 -1.53307E+04 -2.93342E+01 -1.36329E+04  4.83470E+03 -6.96304E+03  4.72919E+03 -4.41755E+03
  3.23974E+03 -2.49547E+03  4.10136E+03 -4.01008E+03  5.54877E+03 -2.43776E+03  7.54979E+03 -1.17607E+03
  1.00003E+04  2.19141E+03  5.09519E+03  8.41917E+03 -2.47836E+03  1.04274E+04 -9.91361E+03  7.73459E+03
 -1.37232E+04 -1.54068E+03 -7.58898E+03 -9.52461E+03 -1.82948E+03 -1.44309E+04  8.23374E+03 -1.40743E+04
  1.52135E+04 -8.70002E+03  1.75591E+04  2.28526E+03  1.22462E+04  1.27853E+04  2.60031E+03  1.52632E+04
 -6.58046E+03  1.30775E+04 -8.97129E+03  4.49454E+03 -6.15270E+03 -2.07473E+03 -2.82262E+03 -1.10062E+03
 -1.72584E+03 -1.44735E+02 -1.73230E+03  2.71569E+03 -5.87534E+03  3.14486E+03 -9.65839E+03 -1.50986E+03
 -6.68165E+03 -8.88389E+03 -4.09685E+02 -1.30819E+04  8.30256E+03 -1.16551E+04  1.35507E+04 -3.45040E+03
  1.22726E+04  6.60233E+03  5.91389E+03  1.22352E+04 -2.27783E+03  1.31579E+04 -8.75635E+03  8.52350E+03
 -1.17030E+04  1.20588E+02 -9.42320E+03 -8.15997E+03 -6.68419E+02 -1.09893E+04  5.29814E+03 -7.77332E+03
  8.07427E+03 -2.81776E+03  5.79870E+03  2.20837E+03  1.84058E+03  3.91693E+03  6.47753E+02  1.61453E+03
  2.76146E+03  1.56171E+03  3.52883E+03  1.65253E+03  4.33690E+03  4.98633E+03  3.03919E+03  6.81772E+03
 -2.59627E+03  1.05112E+04 -1.00650E+04  9.54236E+03 -1.27403E+04  2.63068E+03 -1.42112E+04 -5.72868E+03
 -6.80977E+03 -1.40398E+04  2.75155E+03 -1.40645E+04  8.13573E+03 -9.39045E+03  1.16622E+04 -2.17425E+03
  8.82591E+03  4.43858E+03  1.98271E+03  6.88638E+03 -3.63408E+03  5.72786E+03 -5.80641E+03 -7.92762E+02
 -2.04408E+03 -6.31213E+03  2.62647E+03 -5.83190E+03  6.04449E+03 -2.74824E+03  5.56578E+03  1.05085E+03
  2.90823E+03  2.88781E+03  1.28998E+03  2.05612E+03 -7.92212E+02  1.35658E+03  1.66843E+03 -1.14596E+03
  2.03737E+03 -8.61300E+02  4.89676E+03  1.94674E+03  3.03580E+03  6.87831E+03 -1.59067E+03  8.77062E+03
 -5.53163E+03  5.88225E+03 -8.33881E+03  1.90098E+03 -7.32074E+03 -2.68816E+03 -3.28913E+03 -4.97116E+03
  2.14913E+03 -5.29808E+03  3.92190E+03 -2.51347E+03  3.04487E+03  2.70795E+03 -1.42132E+03  4.69370E+03
 -5.93381E+03  3.06413E+03 -5.92705E+03 -3.02786E+03 -3.58962E+03 -6.87734E+03  1.56812E+03 -7.42921E+03
  4.57594E+03 -3.84431E+03  5.66403E+03 -2.96017E+02  4.96779E+03  1.14265E+03 -4.47251E+02  3.78262E+03
 -2.36171E+03  1.73691E+03 -3.25737E+03 -2.39543E+03  9.22285E+02 -5.76746E+03  5.83488E+03 -4.27432E+03
  8.96106E+03  5.88248E+02  8.40866E+03  5.18126E+03  2.26636E+03  8.47632E+03 -2.42311E+03  7.41898E+03
 -6.36075E+03  4.25247E+03 -7.58384E+03 -7.21018E+02 -3.55085E+03 -5.31593E+03  1.06139E+03 -5.29594E+03
  5.20782E+03 -2.96110E+03  4.96000E+03  1.58989E+03  1.43993E+03  5.12211E+03 -1.03432E+03  3.96905E+03
 -1.79477E+03  3.25183E+03 -2.33802E+03  1.60292E+03 -3.51241E+02  4.92315E+02 -1.64237E+03  1.56404E+03
 -2.13424E+03  3.16126E+03 -5.62459E+03  3.04631E+03 -8.64697E+03  4.56070E+02 -9.21126E+03 -5.13265E+03
 -6.04952E+03 -1.15799E+04  1.81148E+03 -1.38553E+04  7.73688E+03 -1.01812E+04  1.19568E+04 -4.37695E+03
  1.21712E+04  2.36473E+03  6.66981E+03  8.00596E+03  2.89379E+02  9.55659E+03 -2.81146E+03  6.91438E+03
 -5.14660E+03  2.71143E+03 -3.57063E+03 -8.36753E+02 -8.82571E+02 -1.44820E+03 -5.14974E+02  3.28082E+02
 -1.35667E+03  9.96248E+02 -2.18751E+03 -5.60712E+02  1.42461E+02 -2.37676E+03  1.81791E+02 -3.88074E+03
  3.93703E+03 -2.65731E+03  4.86795E+03 -1.57932E+01  6.75811E+03  5.01188E+03  1.33212E+03  8.67570E+03
 -4.06023E+03  1.05944E+04 -9.61037E+03  6.14905E+03 -1.03801E+04 -5.36367E+02 -7.42760E+03 -6.58000E+03
 -3.26691E+03 -8.92020E+03  1.77149E+03 -7.19857E+03  5.12597E+03 -4.25808E+03  6.17804E+03  3.03836E+02
  4.06222E+03  2.65532E+03  1.38513E+02  2.68662E+03 -8.84034E+02 -7.53230E+02  1.16385E+02 -3.17236E+03
  2.11842E+03 -1.25063E+03  3.65226E+03  1.34653E+03  2.96126E+03  4.20933E+03 -7.89227E+02  4.37824E+03
 -3.95367E+03  4.44135E+03 -6.21044E+03  7.09732E+02 -4.58047E+03 -3.69456E+03 -6.29570E+02 -8.20397E+03
  4.31769E+03 -6.39039E+03  7.21929E+03 -2.29014E+03  6.85931E+03  4.06172E+02  4.22734E+03  4.41641E+03
  1.23169E+03  5.26247E+03 -2.00492E+03  4.35316E+03 -3.50377E+03  2.33997E+03 -2.90431E+03  1.18563E+03
 -1.98952E+03 -1.45282E+03 -1.98688E+03  8.95823E+02 -2.72507E+03  1.15545E+03 -4.47982E+03 -4.94187E+02
 -4.50868E+03 -3.06069E+03 -7.41188E+02 -5.29476E+03  2.59178E+03 -6.39545E+03  5.07802E+03 -2.73507E+03
  6.09643E+03  9.52681E+02  3.46438E+03  3.42857E+03 -2.05150E+02  5.50038E+03 -3.40235E+03  3.55110E+03
