 $NMID ID='MM_0lb_SNR400_13hz_g45_54.RAW', FMTDAT='(8E13.5)'
 TRAMP=1., VOLUME=1. $END
  3.09478E+05  9.86154E+01  3.38290E+05  2.50751E+05  8.48779E+04  3.37940E+05 -1.32491E+05  2.50864E+05
 -1.90203E+05  8.38212E+04 -1.11763E+05 -3.25792E+04  7.74954E+02 -5.06929E+04  5.38811E+04 -5.95915E+01
  3.49352E+04  5.28534E+04 -1.67879E+04  7.41292E+04 -6.08090E+04  6.36223E+04 -8.39967E+04  3.19322E+04
 -8.13990E+04 -1.14990E+04 -5.73878E+04 -5.13288E+04 -1.48367E+04 -6.94857E+04  2.77551E+04 -4.60130E+04
  4.04344E+04  3.75194E+03  1.65403E+04  4.75965E+04 -3.50634E+04  4.68742E+04 -6.68236E+04 -1.22654E+01
 -5.37141E+04 -5.71082E+04 -6.41688E+03 -7.71612E+04  3.40652E+04 -5.49870E+04  4.88836E+04 -1.77265E+04
  4.32369E+04  1.12724E+04  3.18381E+04  2.49962E+04  1.65716E+04  2.98781E+04 -5.07159E+03  2.71123E+04
 -2.18131E+04  1.28076E+04 -1.79205E+04 -5.25078E+03  5.94468E+03 -7.77558E+03  2.21955E+04  1.28889E+04
  7.61040E+03  3.54329E+04 -3.26357E+04  3.55144E+04 -6.38599E+04  2.18101E+03 -5.70748E+04 -4.29821E+04
 -1.20836E+04 -6.34907E+04  3.99531E+04 -4.58058E+04  5.82912E+04 -1.82788E+03  3.46011E+04  3.19871E+04
 -5.61258E+03  3.64369E+04 -3.06458E+04  1.66665E+04 -3.16426E+04 -4.91209E+03 -1.69568E+04 -1.06202E+04
 -8.74816E+03 -1.36645E+04 -2.37419E+02 -1.82923E+04  7.55302E+03 -2.28349E+04  1.52108E+04 -1.35859E+04
  1.19376E+04  4.78951E+03 -8.23891E+03  1.31324E+04 -2.12876E+04 -4.15283E+03 -8.62758E+03 -3.40844E+04
  2.29947E+04 -4.38552E+04  4.82058E+04 -1.93245E+04  4.52533E+04  1.95222E+04  1.53849E+04  4.43820E+04
 -1.67284E+04  3.36934E+04 -2.56858E+04  1.33935E+03 -9.92613E+03 -2.81672E+04  2.11564E+04 -3.37884E+04
  4.12419E+04 -9.69548E+03  3.59773E+04  2.41285E+04  1.78619E+04  4.72177E+04 -8.06514E+03  5.11717E+04
 -3.24681E+04  3.45289E+04 -4.21321E+04  1.01335E+04 -4.29728E+04 -1.69244E+04 -2.34759E+04 -3.81918E+04
  7.38205E+03 -3.80968E+04  3.19824E+04 -1.47328E+04  2.96662E+04  1.08943E+04  4.34215E+03  1.93656E+04
 -1.35823E+04  8.31447E+03 -1.03201E+04 -7.51027E+03  5.74284E+03 -1.02877E+04  1.81241E+04  5.68145E+03
  1.34951E+04  2.23865E+04 -5.88155E+03  2.56435E+04 -2.29512E+04  1.23739E+04 -2.81087E+04 -4.43448E+03
 -2.04909E+04 -1.70139E+04 -8.41865E+03 -2.07281E+04  4.43453E+03 -1.99710E+04  1.63010E+04 -1.86908E+04
  2.71323E+04 -1.22816E+04  3.29746E+04  3.09165E+03  2.34386E+04  2.06586E+04  5.15686E+03  3.72155E+04
 -1.81827E+04  3.04118E+04 -2.84329E+04  1.00060E+04 -2.13401E+04 -1.08164E+04 -4.44283E+03 -1.32056E+04
  1.56915E+03 -2.43812E+03 -4.98872E+03  7.15388E+03 -1.64688E+04  6.02382E+03 -1.64022E+04 -7.24662E+03
 -1.03074E+04 -1.91229E+04  5.34450E+03 -2.41724E+04  1.53023E+04 -1.72170E+04  1.87314E+04 -2.16396E+03
  1.16199E+04  1.41112E+04 -9.73178E+02  1.98445E+04 -1.31048E+04  1.02538E+04 -1.96724E+04 -4.08213E+03
 -1.40288E+04 -1.80901E+04 -1.98512E+03 -2.37691E+04  1.05665E+04 -1.94130E+04  1.99974E+04 -9.63590E+03
  1.76055E+04  2.79681E+01  1.36877E+04  4.41495E+03  6.76497E+03  1.55732E+02  9.69294E+03 -1.69677E+03
  1.78270E+04  3.41230E+03  1.99431E+04  1.50342E+04  1.31158E+04  3.10871E+04 -3.47001E+03  3.51356E+04
 -2.06177E+04  2.87557E+04 -3.22796E+04  1.45554E+04 -3.43362E+04 -2.81712E+03 -2.86483E+04 -2.02533E+04
 -1.18416E+04 -2.84633E+04  9.39540E+03 -2.50322E+04  2.21024E+04 -1.32857E+04  1.98046E+04  5.78376E+03
  8.03228E+03  1.57263E+04 -9.06144E+03  1.36775E+04 -1.63333E+04  2.87257E+03 -1.28038E+04 -1.06659E+04
 -1.29570E+02 -1.55380E+04  7.61707E+03 -1.21016E+04  1.05057E+04 -1.68741E+03  2.92746E+03  6.77175E+03
 -7.09834E+03  2.58817E+03 -6.64346E+03 -5.30554E+03 -1.06778E+02 -1.42883E+04  9.50125E+03 -1.44454E+04
  1.77520E+04 -8.03563E+03  1.81891E+04  3.62422E+03  1.66000E+04  1.38987E+04  8.11975E+03  2.21258E+04
 -3.43091E+03  2.28889E+04 -1.49266E+04  1.43348E+04 -1.67613E+04  3.66565E+03 -1.23459E+04 -3.31438E+03
 -5.39091E+03 -6.02171E+03 -6.70120E+02  1.02971E+03 -2.59566E+03  2.99766E+03 -5.06653E+03  4.33888E+03
 -1.07207E+04 -8.81319E+02 -1.21435E+04 -9.23874E+03 -4.97227E+03 -1.50383E+04  5.01285E+03 -1.20038E+04
  1.00163E+04 -4.81855E+03  7.09654E+03  2.94164E+03  3.36766E+02  4.45595E+03 -5.66893E+03 -5.83415E+02
 -5.21134E+03 -7.58761E+03 -1.04352E+03 -1.15897E+04  6.88005E+03 -1.20415E+04  1.48406E+04 -6.54199E+03
  1.71337E+04  1.53725E+03  1.24892E+04  1.06901E+04  2.60331E+03  1.40197E+04 -7.06448E+03  1.17763E+04
 -9.84667E+03  3.36472E+03 -5.13236E+03 -1.89982E+03  1.74339E+03 -2.88862E+03  6.62502E+03 -9.83990E+02
  5.88646E+03  4.95009E+03  1.01500E+03  9.07197E+03 -6.83539E+03  8.41321E+03 -1.22741E+04  2.01843E+03
 -8.22257E+03 -5.98080E+03  1.11459E+02 -9.26744E+03  6.01905E+03 -5.22286E+03  5.76211E+03  1.96519E+03
  1.53249E+03  6.20264E+03 -5.99111E+03  8.50047E+03 -9.11299E+03  3.52483E+03 -8.49404E+03 -2.66791E+03
 -5.35007E+03 -1.09016E+04  2.50700E+03 -1.17975E+04  1.06518E+04 -7.09705E+03  1.07245E+04  1.51652E+03
  7.12475E+03  9.00436E+03 -2.73317E+02  1.07812E+04 -7.92302E+03  6.85061E+03 -8.53248E+03 -7.91251E+02
 -8.15921E+03 -7.93096E+03 -1.64756E+03 -8.10937E+03  4.06150E+03 -7.61409E+03  5.40470E+03 -2.79279E+03
  3.56343E+03  4.90517E+02 -6.03680E+02  1.17038E+03  2.63461E+02 -2.11080E+03  1.39101E+03 -4.53748E+03
  7.42332E+03 -2.70335E+03  1.08751E+04  4.46519E+02  9.97975E+03  6.28277E+03  7.02050E+03  1.34964E+04
 -3.06084E+03  1.54835E+04 -1.33543E+04  1.07936E+04 -1.68633E+04  2.29152E+03 -1.35452E+04 -5.77819E+03
 -6.76408E+03 -1.11363E+04 -7.68954E+02 -9.74289E+03  3.26292E+03 -4.63877E+03  3.27691E+03 -4.03095E+03
  2.14546E+03 -1.95937E+03  2.53458E+03 -2.63270E+03  4.39064E+03 -2.17139E+03  6.24508E+03 -6.21305E+02
  6.83226E+03  1.81520E+03  3.19151E+03  6.91221E+03 -1.87070E+03  7.10003E+03 -7.99560E+03  5.21102E+03
 -9.39462E+03 -7.83654E+02 -5.19331E+03 -6.99639E+03  6.17145E+02 -9.98576E+03  5.43121E+03 -9.49810E+03
  1.01111E+04 -5.11732E+03  1.18689E+04  9.86194E+02  9.04837E+03  8.57762E+03  1.64346E+03  1.05902E+04
 -4.12089E+03  1.00312E+04 -6.88514E+03  2.59000E+03 -4.22833E+03 -1.79555E+03 -1.58621E+03 -1.03834E+03
 -9.37557E+02  5.75568E+02 -1.44795E+03  2.73728E+03 -3.80783E+03  1.16384E+03 -6.53099E+03 -2.94361E+01
 -4.30267E+03 -6.66362E+03  3.31711E+02 -8.90563E+03  5.66233E+03 -8.20468E+03  8.93752E+03 -2.47654E+03
  7.85763E+03  3.91481E+03  3.90320E+03  7.87741E+03 -1.76589E+03  8.54071E+03 -6.79491E+03  6.33566E+03
 -7.30901E+03  8.89918E+02 -6.50748E+03 -4.98195E+03 -5.83427E+02 -7.00940E+03  3.66404E+03 -4.59548E+03
  5.41485E+03 -2.24693E+03  3.49361E+03  1.28710E+03  1.46231E+03  2.90019E+03  1.10975E+03  1.32148E+03
  2.08429E+03  6.63073E+02  2.60389E+03  8.59286E+02  2.21351E+03  3.60999E+03  2.70241E+03  4.05102E+03
 -2.12745E+03  6.82324E+03 -5.42483E+03  7.04593E+03 -7.82932E+03  1.96344E+03 -9.20404E+03 -3.43551E+03
 -4.09868E+03 -8.03855E+03  1.27861E+03 -9.21905E+03  4.77671E+03 -5.79359E+03  7.09645E+03 -1.01136E+03
  4.98557E+03  3.55810E+03  1.51074E+03  5.14225E+03 -2.45708E+03  2.92014E+03 -3.13377E+03 -1.14724E+03
 -1.74438E+03 -3.76074E+03  1.60463E+03 -4.13396E+03  3.35406E+03 -2.01415E+03  3.43612E+03  8.22064E+02
  2.71930E+03  1.26207E+03  1.30132E+03  6.78117E+02 -7.59603E+02  7.17887E+02  6.20371E+02 -4.33454E+02
  8.35272E+02 -2.06185E+02  3.84027E+03  1.07809E+03  1.23030E+03  4.68032E+03 -7.09873E+02  5.75823E+03
 -3.90585E+03  3.17787E+03 -5.32908E+03  8.34873E+02 -4.36229E+03 -2.18611E+03 -8.24047E+02 -2.93887E+03
  8.63949E+02 -3.09986E+03  2.06663E+03 -1.24586E+03  1.81337E+03  1.89748E+03 -1.12329E+03  2.78874E+03
 -3.34758E+03  1.84631E+03 -3.32232E+03 -2.38890E+03 -1.90914E+03 -4.67107E+03  7.54631E+02 -4.14485E+03
  2.38268E+03 -2.36073E+03  2.56699E+03 -1.44759E+01  2.77201E+03  9.23829E+02  6.95052E+02  2.69167E+03
 -1.02308E+03 -1.64403E+01 -2.03281E+03 -1.04920E+03  9.27758E+02 -2.78472E+03  4.47535E+03 -2.68459E+03
  4.07867E+03  5.68292E+02  5.45503E+03  3.50430E+03  1.84402E+03  4.71996E+03 -1.17367E+03  5.09411E+03
 -3.77202E+03  1.43814E+03 -4.17075E+03 -2.57952E+02 -2.42277E+03 -3.22953E+03  2.57707E+02 -2.24958E+03
  3.18641E+03 -1.58311E+03  2.35556E+03  1.71324E+03  5.36209E+02  3.04514E+03  1.00280E+02  2.42649E+03
 -1.44907E+03  1.92546E+03 -1.20608E+03  5.95543E+02 -8.03710E+02  1.00123E+03 -1.03582E+03  9.07412E+02
 -1.04707E+03  2.15049E+03 -3.46370E+03  2.03570E+03 -4.95590E+03 -3.55396E+02 -6.02842E+03 -3.43672E+03
 -3.22968E+03 -6.66600E+03  8.24943E+02 -7.24372E+03  4.51631E+03 -5.66494E+03  6.80498E+03 -2.88892E+03
  6.28666E+03  8.70155E+02  4.32084E+03  4.89776E+03  2.07828E+02  4.29990E+03 -2.21320E+03  3.34378E+03
 -2.59745E+03  1.56905E+03 -1.59132E+03 -7.30308E+02 -6.12734E+02  9.88673E+01 -7.23284E+02 -1.00149E+02
 -8.82284E+02  4.40373E+02 -9.62880E+02  2.01697E+02 -9.59409E-01 -1.05855E+03 -2.23589E+02 -2.00409E+03
  2.78221E+03 -1.69711E+03  2.30836E+03  6.12654E+02  3.76425E+03  2.57041E+03  2.32382E+02  5.07238E+03
 -2.20037E+03  5.76248E+03 -5.61005E+03  3.70451E+03 -5.95532E+03 -6.10524E+02 -4.01679E+03 -3.58305E+03
 -2.19683E+03 -4.47266E+03  1.41129E+03 -4.51242E+03  2.92069E+03 -2.73060E+03  2.70734E+03  4.87769E+01
  1.94463E+03  1.24141E+03  3.07507E+02  1.85174E+03 -4.71025E+02 -3.93849E+02 -2.23819E+02 -1.49145E+03
  1.94924E+03 -5.02136E+02  1.80453E+03  9.31788E+02  6.58370E+02  2.09128E+03  3.81869E+02  1.53578E+03
 -2.42444E+03  1.94327E+03 -2.94806E+03  2.22072E+01 -3.01720E+03 -2.06205E+03 -2.61754E+02 -3.89939E+03
  1.99216E+03 -2.93282E+03  4.18195E+03 -7.32160E+02  3.85540E+03  6.18050E+02  2.90601E+03  2.55389E+03
  8.60976E+02  2.60879E+03 -1.85644E+03  2.04689E+03 -2.22406E+03  1.61717E+03 -2.06502E+03  3.21720E+02
 -9.46128E+02 -5.29931E+02 -1.18773E+03  3.90905E+02 -1.73280E+03  1.11662E+03 -2.38603E+03 -2.09039E+02
 -2.50459E+03 -1.56677E+03 -7.49516E+02 -2.74074E+03  1.12471E+03 -3.43737E+03  3.11155E+03 -2.02659E+03
  3.23963E+03  4.49506E+02  1.33556E+03  1.80824E+03  5.47487E+01  2.37345E+03 -2.25107E+03  1.89461E+03
