 $NMID ID='MM_0lb_SNR400_9hz_g45_46.RAW', FMTDAT='(8E13.5)'
 TRAMP=1., VOLUME=1. $END
  3.09401E+05  1.59417E+02  3.37750E+05  2.51061E+05  8.54625E+04  3.38604E+05 -1.32620E+05  2.52419E+05
 -1.90697E+05  8.33552E+04 -1.12610E+05 -3.21926E+04  5.01429E+02 -5.00717E+04  5.39861E+04 -8.04132E+02
  3.54985E+04  5.24560E+04 -1.66129E+04  7.63013E+04 -6.11002E+04  6.38568E+04 -8.54096E+04  3.30532E+04
 -8.18630E+04 -1.18580E+04 -5.80066E+04 -5.21144E+04 -1.52112E+04 -7.10933E+04  2.84132E+04 -4.70957E+04
  4.02394E+04  3.26059E+03  1.69807E+04  4.80753E+04 -3.56165E+04  4.80285E+04 -6.76859E+04  2.97433E+02
 -5.40610E+04 -5.71616E+04 -6.74202E+03 -7.86477E+04  3.47935E+04 -5.63730E+04  4.91933E+04 -1.84131E+04
  4.52526E+04  1.17522E+04  3.30691E+04  2.65348E+04  1.59576E+04  3.09306E+04 -5.16705E+03  2.72303E+04
 -2.23973E+04  1.20943E+04 -1.81238E+04 -6.23074E+03  7.24558E+03 -7.48071E+03  2.24146E+04  1.36961E+04
  8.28457E+03  3.72701E+04 -3.35471E+04  3.74667E+04 -6.56249E+04  1.62842E+03 -5.86384E+04 -4.46516E+04
 -1.29132E+04 -6.48133E+04  4.18557E+04 -4.70579E+04  6.12827E+04 -2.61094E+03  3.56914E+04  3.44865E+04
 -5.85665E+03  3.88284E+04 -3.17902E+04  1.79088E+04 -3.30907E+04 -3.65169E+03 -1.86934E+04 -1.21744E+04
 -9.96395E+03 -1.49408E+04  2.75279E+02 -1.94668E+04  8.62186E+03 -2.37682E+04  1.58360E+04 -1.22221E+04
  1.05077E+04  6.23088E+03 -9.64911E+03  1.27366E+04 -2.37272E+04 -7.20724E+03 -8.80785E+03 -3.64824E+04
  2.47532E+04 -4.63221E+04  5.13105E+04 -1.95445E+04  4.86858E+04  2.09930E+04  1.75972E+04  4.71098E+04
 -1.63938E+04  3.65304E+04 -2.71069E+04  2.46257E+03 -1.13419E+04 -2.96415E+04  2.14345E+04 -3.63173E+04
  4.40738E+04 -1.11098E+04  3.91010E+04  2.49693E+04  2.13791E+04  5.09633E+04 -7.70750E+03  5.52315E+04
 -3.49447E+04  3.83743E+04 -4.75365E+04  1.05665E+04 -4.73193E+04 -1.80025E+04 -2.62036E+04 -4.22220E+04
  7.96115E+03 -4.19518E+04  3.42220E+04 -1.64524E+04  3.18769E+04  1.14091E+04  5.75043E+03  2.01526E+04
 -1.36328E+04  9.61689E+03 -1.07039E+04 -7.48183E+03  5.15337E+03 -1.07260E+04  1.89756E+04  5.79443E+03
  1.49765E+04  2.21907E+04 -5.50711E+03  2.68493E+04 -2.28541E+04  1.40032E+04 -3.02725E+04 -2.82669E+03
 -2.48637E+04 -1.77345E+04 -1.16498E+04 -2.43495E+04  3.97980E+03 -2.58371E+04  1.87107E+04 -2.21741E+04
  3.20771E+04 -1.45595E+04  3.79757E+04  4.89793E+03  2.68533E+04  2.43359E+04  4.62926E+03  4.05253E+04
 -1.97949E+04  3.30818E+04 -2.92401E+04  1.16853E+04 -2.19687E+04 -1.02852E+04 -4.59587E+03 -1.22043E+04
  1.10704E+03 -1.29235E+03 -7.86016E+03  8.17947E+03 -2.00607E+04  5.71725E+03 -1.96054E+04 -9.21333E+03
 -1.24056E+04 -2.36616E+04  6.86211E+03 -2.74153E+04  1.81718E+04 -2.02040E+04  2.21850E+04 -1.84861E+03
  1.38411E+04  1.57698E+04 -1.15678E+03  2.27967E+04 -1.68423E+04  1.30342E+04 -2.40350E+04 -4.96128E+03
 -1.71520E+04 -2.04952E+04 -2.19316E+03 -2.78016E+04  1.17469E+04 -2.27935E+04  2.21392E+04 -1.15166E+04
  2.10765E+04 -5.02432E+02  1.55256E+04  5.29500E+03  8.41726E+03  1.62044E+03  1.18563E+04 -1.25864E+03
  2.11036E+04  3.57748E+03  2.41468E+04  1.84147E+04  1.72635E+04  3.79107E+04 -2.97552E+03  4.40489E+04
 -2.53259E+04  3.64294E+04 -4.08865E+04  1.84379E+04 -4.33111E+04 -3.38904E+03 -3.48609E+04 -2.51932E+04
 -1.37717E+04 -3.64786E+04  1.24233E+04 -3.17789E+04  2.64908E+04 -1.48752E+04  2.40048E+04  7.69860E+03
  8.47010E+03  1.81312E+04 -1.19159E+04  1.53340E+04 -1.96072E+04  2.59548E+03 -1.46619E+04 -1.27275E+04
 -8.09162E+02 -1.96466E+04  9.97744E+03 -1.40630E+04  1.34385E+04 -1.71782E+03  2.90412E+03  9.08937E+03
 -8.24774E+03  4.33803E+03 -8.10153E+03 -6.86076E+03 -1.31867E+03 -1.76420E+04  1.13276E+04 -1.99242E+04
  2.23094E+04 -1.03511E+04  2.59476E+04  3.71658E+03  2.25067E+04  1.76292E+04  1.01336E+04  2.86082E+04
 -5.18949E+03  2.97822E+04 -1.99011E+04  1.85065E+04 -2.19207E+04  3.50053E+03 -1.50094E+04 -5.50546E+03
 -6.30057E+03 -7.32476E+03 -7.23931E+02  8.70344E+02 -2.79575E+03  3.12112E+03 -7.37963E+03  5.01747E+03
 -1.38849E+04 -3.48406E+02 -1.50950E+04 -1.20472E+04 -6.06908E+03 -1.88792E+04  6.44747E+03 -1.50538E+04
  1.33111E+04 -6.24638E+03  8.18319E+03  5.09495E+03 -4.87565E+02  6.54276E+03 -7.68160E+03  6.60938E+02
 -7.91879E+03 -9.19220E+03 -1.44218E+03 -1.49007E+04  9.08462E+03 -1.61344E+04  2.01236E+04 -8.49914E+03
  2.33123E+04  2.42999E+03  1.63461E+04  1.42271E+04  3.34376E+03  1.89624E+04 -9.19146E+03  1.48678E+04
 -1.28153E+04  3.75237E+03 -6.94868E+03 -3.42734E+03  1.70783E+03 -4.10485E+03  8.03728E+03 -1.30483E+03
  7.24993E+03  5.91204E+03  1.60129E+03  1.31755E+04 -8.86925E+03  1.16815E+04 -1.51526E+04  2.52563E+03
 -1.07172E+04 -7.90771E+03  3.58187E+02 -1.28532E+04  8.72303E+03 -6.98170E+03  9.84728E+03  3.16170E+03
  2.55928E+03  9.94548E+03 -8.25845E+03  1.06519E+04 -1.29151E+04  5.00640E+03 -1.35921E+04 -5.42497E+03
 -8.07727E+03 -1.44889E+04  4.65572E+03 -1.81794E+04  1.46945E+04 -1.00284E+04  1.57682E+04  2.51184E+03
  9.91210E+03  1.25648E+04 -6.88068E+02  1.50544E+04 -1.10970E+04  7.92518E+03 -1.18639E+04 -1.31602E+03
 -1.00818E+04 -9.93317E+03 -1.95463E+03 -1.18053E+04  6.78218E+03 -8.76278E+03  7.63556E+03 -3.91461E+03
  4.60590E+03  1.60091E+03 -1.21347E+03  2.12513E+03 -1.07908E+03 -2.99012E+03  3.14973E+03 -7.39620E+03
  1.12711E+04 -4.45004E+03  1.67841E+04  1.83154E+03  1.48987E+04  1.06398E+04  9.59359E+03  2.09833E+04
 -5.04403E+03  2.29951E+04 -1.94953E+04  1.70454E+04 -2.48688E+04  3.49959E+03 -1.97135E+04 -9.64089E+03
 -9.60682E+03 -1.69008E+04 -2.97433E+02 -1.39013E+04  4.73824E+03 -7.72350E+03  4.97829E+03 -5.06282E+03
  3.92104E+03 -2.91345E+03  3.72666E+03 -4.20419E+03  6.45056E+03 -3.07649E+03  7.56442E+03 -1.91351E+03
  1.02695E+04  2.69212E+03  5.52860E+03  8.77840E+03 -1.69745E+03  1.06124E+04 -1.17567E+04  7.79556E+03
 -1.38646E+04 -9.36359E+02 -9.24711E+03 -9.72773E+03 -1.13582E+03 -1.53475E+04  8.33601E+03 -1.56373E+04
  1.60059E+04 -8.71879E+03  1.92580E+04  2.62832E+03  1.25719E+04  1.36614E+04  1.83824E+03  1.74095E+04
 -6.99650E+03  1.50232E+04 -1.01664E+04  4.61536E+03 -7.16996E+03 -1.44498E+03 -2.88927E+03 -1.34773E+03
 -1.43540E+03  3.54984E+02 -2.70815E+03  2.83638E+03 -6.10618E+03  2.37676E+03 -1.04110E+04 -1.70789E+03
 -6.74311E+03 -9.97214E+03  3.22900E+02 -1.39284E+04  9.00924E+03 -1.32143E+04  1.43370E+04 -4.25922E+03
  1.44546E+04  6.37503E+03  5.54547E+03  1.27056E+04 -2.48277E+03  1.41742E+04 -1.07426E+04  9.22735E+03
 -1.29102E+04  1.22598E+03 -1.04562E+04 -8.57348E+03 -1.13404E+03 -1.18837E+04  6.08373E+03 -9.05386E+03
  9.49098E+03 -2.70378E+03  6.32691E+03  3.62423E+03  2.24389E+03  5.03541E+03 -2.03146E+02  1.43286E+03
  2.53544E+03  1.68465E+03  3.17518E+03  1.77166E+03  4.03969E+03  5.30842E+03  3.90035E+03  7.73002E+03
 -3.21232E+03  1.16706E+04 -9.54451E+03  1.26137E+04 -1.48542E+04  2.73840E+03 -1.55572E+04 -6.22485E+03
 -7.42030E+03 -1.41200E+04  1.69991E+03 -1.64130E+04  9.10337E+03 -1.05628E+04  1.28619E+04 -2.63296E+03
  8.65700E+03  5.46590E+03  2.33268E+03  8.63073E+03 -4.04013E+03  4.74052E+03 -6.17897E+03 -1.08327E+03
 -2.82855E+03 -5.63665E+03  3.54417E+03 -6.37026E+03  5.34464E+03 -2.82797E+03  5.21319E+03  9.23640E+02
  3.30577E+03  3.03604E+03  1.04050E+03  2.40536E+03 -7.80303E+02  2.28944E+03  1.63668E+03 -1.11050E+03
  3.45231E+03 -4.17585E+02  5.35522E+03  2.10916E+03  3.02037E+03  7.95046E+03 -1.36438E+03  1.05242E+04
 -7.62879E+03  5.99438E+03 -9.59846E+03  1.95030E+03 -8.59156E+03 -3.59604E+03 -4.06353E+03 -5.47214E+03
  7.60951E+02 -6.42634E+03  3.71762E+03 -1.93816E+03  3.12740E+03  3.29797E+03 -2.02216E+03  4.86389E+03
 -6.73678E+03  2.35657E+03 -7.70391E+03 -3.10060E+03 -3.74204E+03 -8.22747E+03  9.07079E+02 -8.29633E+03
  4.71175E+03 -5.07799E+03  5.80114E+03 -1.77821E+02  5.21743E+03  1.73662E+03  9.86487E+02  4.13359E+03
 -2.80544E+03  1.67424E+03 -3.54404E+03 -2.86276E+03  1.60607E+03 -6.14582E+03  7.21110E+03 -4.62411E+03
  8.67200E+03  6.83048E+02  9.51968E+03  6.11722E+03  3.03856E+03  9.64345E+03 -2.54875E+03  8.99065E+03
 -8.19656E+03  4.05712E+03 -8.01127E+03 -1.91243E+03 -4.61518E+03 -7.10869E+03  2.05617E+03 -6.09609E+03
  6.16599E+03 -2.28963E+03  4.39617E+03  2.94831E+03  2.01186E+03  5.48155E+03 -2.41392E+02  4.40457E+03
 -2.50961E+03  3.39927E+03 -2.26490E+03  1.13346E+03 -1.57943E+03  1.18598E+03 -1.47018E+03  2.08777E+03
 -3.11593E+03  3.13039E+03 -7.00738E+03  3.35210E+03 -9.91393E+03  3.83537E+01 -1.12022E+04 -7.20145E+03
 -5.62679E+03 -1.27164E+04  3.01268E+03 -1.43554E+04  7.96714E+03 -1.13318E+04  1.43698E+04 -4.79497E+03
  1.23839E+04  2.32451E+03  8.19735E+03  9.04981E+03  1.16652E+03  9.99940E+03 -4.15508E+03  7.22648E+03
 -6.46621E+03  2.80244E+03 -3.46852E+03 -9.99950E+02 -8.83354E+02  3.66229E+02  2.13508E+02 -2.90647E+02
 -1.76797E+03  3.87036E+02 -1.33619E+03  2.48606E+02 -1.12679E+03 -2.26358E+03 -1.01651E+02 -3.47372E+03
  4.47679E+03 -3.04008E+03  6.70195E+03 -1.72619E+02  7.26955E+03  4.84656E+03  2.14688E+03  1.02743E+04
 -4.52188E+03  1.17490E+04 -1.01878E+04  6.81640E+03 -1.21263E+04 -1.74709E+03 -9.45508E+03 -8.18810E+03
 -3.75053E+03 -1.09980E+04  2.23734E+03 -8.93750E+03  6.57832E+03 -5.28680E+03  6.86198E+03  1.20873E+03
  3.69196E+03  3.51959E+03  3.91984E+01  3.41023E+03 -2.23039E+03 -7.99320E+02 -2.45361E+01 -2.38769E+03
  2.61786E+03 -1.36840E+03  4.53034E+03  1.55831E+03  2.94931E+03  4.05758E+03  1.28198E+02  5.12277E+03
 -4.94124E+03  4.73518E+03 -6.91959E+03  4.83772E+02 -5.56630E+03 -4.19722E+03 -1.45145E+03 -9.51878E+03
  4.59598E+03 -7.48107E+03  8.16721E+03 -2.35308E+03  8.09553E+03  2.14880E+03  4.37694E+03  5.83685E+03
  2.87939E+02  6.79214E+03 -1.74747E+03  5.56747E+03 -4.44246E+03  3.06336E+03 -4.05133E+03  5.76638E+02
 -2.38413E+03 -6.33293E+02 -2.10545E+03  1.26779E+03 -3.08044E+03  7.79389E+02 -4.95362E+03 -2.64811E+02
 -5.02628E+03 -2.90544E+03 -1.86600E+03 -7.42723E+03  3.85106E+03 -7.37252E+03  6.12902E+03 -3.96625E+03
  6.61621E+03  4.79011E+02  3.55089E+03  4.82640E+03 -1.06241E+03  7.29941E+03 -4.37448E+03  4.43164E+03
