 $NMID ID='MM_0lb_SNR400_17hz_g45_83.RAW', FMTDAT='(8E13.5)'
 TRAMP=1., VOLUME=1. $END
  3.09876E+05  3.85999E+01  3.37180E+05  2.50783E+05  8.37483E+04  3.37245E+05 -1.32542E+05  2.50563E+05
 -1.89914E+05  8.26482E+04 -1.10956E+05 -3.29336E+04  1.16977E+03 -5.04170E+04  5.38294E+04 -2.01897E+02
  3.47708E+04  5.32125E+04 -1.70682E+04  7.54933E+04 -6.04652E+04  6.24432E+04 -8.30592E+04  3.20654E+04
 -7.97981E+04 -1.10961E+04 -5.68140E+04 -5.04035E+04 -1.49874E+04 -6.85996E+04  2.66363E+04 -4.51665E+04
  3.93358E+04  4.00877E+03  1.57574E+04  4.73928E+04 -3.38369E+04  4.68104E+04 -6.53737E+04 -1.48102E+03
 -5.18848E+04 -5.66249E+04 -5.96673E+03 -7.60284E+04  3.32331E+04 -5.35331E+04  4.68255E+04 -1.63632E+04
  4.20824E+04  1.14114E+04  3.09887E+04  2.52303E+04  1.61361E+04  2.79408E+04 -5.44751E+03  2.72795E+04
 -2.14697E+04  1.32680E+04 -1.86460E+04 -4.97583E+03  4.62772E+03 -7.43451E+03  2.14380E+04  1.20388E+04
  7.02814E+03  3.37792E+04 -3.08163E+04  3.43665E+04 -6.13696E+04  1.87748E+03 -5.55943E+04 -4.16370E+04
 -1.24325E+04 -6.10561E+04  3.89515E+04 -4.39193E+04  5.63698E+04 -1.75527E+03  3.25143E+04  3.07654E+04
 -7.20616E+03  3.39611E+04 -2.89352E+04  1.42053E+04 -2.79494E+04 -4.69816E+03 -1.47847E+04 -1.02567E+04
 -7.49055E+03 -1.26809E+04 -5.78451E+02 -1.72273E+04  7.16003E+03 -2.24855E+04  1.56511E+04 -1.38055E+04
  1.16048E+04  5.02300E+03 -6.89521E+03  1.32478E+04 -1.93432E+04 -3.12969E+03 -8.12078E+03 -3.11198E+04
  2.13107E+04 -4.13500E+04  4.54103E+04 -1.85733E+04  4.28229E+04  1.86192E+04  1.41265E+04  4.20951E+04
 -1.53692E+04  3.16362E+04 -2.33057E+04  1.29821E+03 -8.48168E+03 -2.65679E+04  2.06816E+04 -3.20974E+04
  3.90333E+04 -8.40575E+03  3.20289E+04  2.35597E+04  1.58172E+04  4.31885E+04 -7.62924E+03  4.67187E+04
 -2.93098E+04  3.09606E+04 -3.87697E+04  8.54416E+03 -3.95218E+04 -1.53432E+04 -2.21061E+04 -3.54605E+04
  6.80435E+03 -3.52434E+04  2.98202E+04 -1.30184E+04  2.78979E+04  1.07864E+04  2.89327E+03  1.78775E+04
 -1.30040E+04  7.71092E+03 -1.00816E+04 -7.27650E+03  5.22250E+03 -1.04493E+04  1.76080E+04  6.46477E+03
  1.24690E+04  2.11323E+04 -6.51265E+03  2.35055E+04 -2.10845E+04  9.36976E+03 -2.55855E+04 -5.82172E+03
 -1.79268E+04 -1.68893E+04 -6.35418E+03 -1.79458E+04  4.34135E+03 -1.58432E+04  1.33060E+04 -1.52414E+04
  2.22736E+04 -1.21383E+04  2.94334E+04  1.72757E+03  2.18749E+04  1.73262E+04  3.63557E+03  3.37608E+04
 -1.60246E+04  2.82887E+04 -2.61054E+04  9.91258E+03 -1.97120E+04 -1.09992E+04 -3.76879E+03 -1.36811E+04
  2.28807E+03 -3.36071E+03 -3.70891E+03  5.81494E+03 -1.32776E+04  5.24973E+03 -1.42422E+04 -5.20348E+03
 -9.23424E+03 -1.68492E+04  4.43060E+03 -2.03960E+04  1.32798E+04 -1.44603E+04  1.54330E+04 -1.32141E+03
  9.47382E+03  1.16838E+04 -7.77445E+02  1.65149E+04 -1.10821E+04  9.31594E+03 -1.64803E+04 -3.45858E+03
 -1.27807E+04 -1.43969E+04 -1.27498E+03 -2.02512E+04  8.94358E+03 -1.59464E+04  1.68701E+04 -7.82311E+03
  1.58422E+04  5.22048E+02  1.07873E+04  4.00414E+03  6.07396E+03  5.18092E+02  8.02360E+03 -1.81140E+03
  1.48693E+04  3.17708E+03  1.56527E+04  1.31696E+04  9.92488E+03  2.57024E+04 -3.50378E+03  2.84844E+04
 -1.71976E+04  2.24980E+04 -2.60761E+04  1.05601E+04 -2.73205E+04 -2.49762E+03 -2.28712E+04 -1.54616E+04
 -1.06918E+04 -2.23831E+04  7.48330E+03 -2.07801E+04  1.81148E+04 -1.12022E+04  1.65346E+04  3.95867E+03
  7.17024E+03  1.17827E+04 -7.60460E+03  1.05323E+04 -1.39995E+04  2.09632E+03 -1.12762E+04 -8.60918E+03
 -6.05942E+01 -1.33117E+04  6.77674E+03 -1.02619E+04  8.01036E+03 -1.58124E+03  1.36283E+03  5.16493E+03
 -6.17877E+03  1.29590E+03 -3.95207E+03 -4.34631E+03  2.08995E+02 -1.10568E+04  8.50892E+03 -1.05117E+04
  1.36610E+04 -5.43228E+03  1.37791E+04  2.90189E+03  1.21716E+04  9.92627E+03  5.72940E+03  1.56623E+04
 -1.84558E+03  1.78049E+04 -1.04366E+04  1.06915E+04 -1.29548E+04  2.37181E+03 -8.94636E+03 -2.24707E+03
 -4.66271E+03 -3.52282E+03 -1.18790E+03  1.08447E+03 -1.74964E+03  2.47925E+03 -4.10297E+03  3.88797E+03
 -9.01634E+03 -6.96182E+02 -9.32085E+03 -7.95245E+03 -3.36642E+03 -1.26300E+04  3.74797E+03 -9.34925E+03
  7.28080E+03 -4.40357E+03  5.82977E+03  2.25037E+03  5.17381E+02  3.07753E+03 -3.87935E+03  5.92976E+02
 -3.41945E+03 -5.76979E+03 -4.50104E+02 -7.80591E+03  4.50765E+03 -8.51243E+03  1.10916E+04 -4.90506E+03
  1.30542E+04  1.10848E+03  9.67047E+03  7.26841E+03  1.65475E+03  1.00754E+04 -5.05701E+03  8.90557E+03
 -7.51058E+03  2.95511E+03 -3.73091E+03 -1.92556E+03  1.60264E+03 -2.01894E+03  4.94438E+03 -1.11026E+03
  4.03013E+03  3.82908E+03  7.85247E+02  6.64113E+03 -5.24518E+03  6.21275E+03 -8.32764E+03  1.95106E+03
 -5.49802E+03 -3.94700E+03  4.89365E+02 -7.45038E+03  4.11417E+03 -3.48649E+03  4.60357E+03  9.01091E+02
  7.99235E+02  3.47647E+03 -4.27555E+03  5.31247E+03 -5.94935E+03  2.85169E+03 -5.58907E+03 -1.27236E+03
 -3.49316E+03 -6.85264E+03  1.06302E+03 -7.74672E+03  6.92131E+03 -5.34996E+03  6.98443E+03  1.15185E+03
  5.52721E+03  6.03208E+03 -4.18417E+02  7.81386E+03 -5.70032E+03  4.22970E+03 -6.00151E+03 -4.18957E+02
 -6.17161E+03 -5.69069E+03 -1.92213E+03 -5.74575E+03  2.91393E+03 -4.77534E+03  2.86813E+03 -3.11116E+03
  3.03538E+03  1.08601E+03  1.92185E+02  8.55930E+02  1.02703E+02 -4.61378E+02  1.09062E+00 -2.39992E+03
  4.33841E+03 -8.99723E+02  6.48864E+03  1.05183E+03  7.25146E+03  3.70803E+03  6.30249E+03  7.93009E+03
 -1.94237E+03  9.88898E+03 -8.17054E+03  7.59459E+03 -1.22121E+04  1.41487E+03 -9.20370E+03 -3.23618E+03
 -4.81314E+03 -7.73636E+03 -1.32434E+01 -5.94069E+03  2.89192E+03 -2.28100E+03  2.05899E+03 -2.33951E+03
  1.16715E+03 -1.20409E+03  1.79919E+03 -2.47327E+03  4.06733E+03 -1.32728E+03  3.87391E+03 -2.73857E+01
  4.92081E+03  1.38502E+03  1.59691E+03  3.88173E+03 -1.83538E+03  3.61528E+03 -4.64429E+03  2.99680E+03
 -5.40032E+03 -1.20877E+03 -2.70259E+03 -4.19194E+03 -2.22915E+02 -6.09410E+03  3.50697E+03 -6.48411E+03
  6.07571E+03 -3.37949E+03  7.78707E+03  5.79390E+02  6.12478E+03  5.40946E+03  1.22263E+03  7.05984E+03
 -2.46027E+03  6.33523E+03 -3.61643E+03  2.20067E+03 -1.84746E+03 -1.42364E+03 -1.08260E+03 -6.03020E+02
 -7.28268E+02  2.64110E+02 -6.01100E+02  1.55101E+03 -2.57663E+03  1.20851E+03 -5.67574E+03 -2.18080E+02
 -2.16742E+03 -4.13142E+03  4.67999E+02 -5.92984E+03  3.38262E+03 -5.41414E+03  4.53327E+03 -1.17139E+03
  4.46147E+03  2.97399E+03  2.18011E+03  4.11956E+03 -1.05361E+03  5.39204E+03 -3.12216E+03  2.80708E+03
 -4.67259E+03  7.26520E+02 -3.75702E+03 -3.16045E+03 -3.70685E+01 -4.06743E+03  1.67317E+03 -2.92755E+03
  2.69116E+03 -1.28418E+03  2.43533E+03  1.89141E+02  6.09780E+02  1.83855E+03  8.79694E+02  2.68204E+02
  2.00266E+03  8.35210E+02  1.29943E+03  8.94192E+02  1.18572E+03  2.03917E+03  1.76089E+03  2.38639E+03
 -1.57614E+03  3.26114E+03 -3.01742E+03  4.58487E+03 -3.79772E+03  1.85300E+03 -4.51229E+03 -1.21601E+03
 -2.65789E+03 -5.35573E+03  6.03133E+02 -5.69036E+03  2.35792E+03 -3.50093E+03  3.99453E+03 -1.33200E+03
  3.03659E+03  1.49006E+03 -1.24079E+02  2.34001E+03 -1.32022E+03  1.70981E+03 -1.99516E+03  2.97169E+02
 -9.79485E+02 -2.02285E+03  1.24424E+03 -2.13864E+03  1.16249E+03 -8.02639E+02  1.60675E+03  7.98517E+02
  5.97810E+02  5.29918E+02  8.43564E+02  1.11524E+02 -1.86417E+02  9.06693E+02  1.83625E+03 -1.48903E+02
 -3.51983E+02 -4.09994E+02  1.94031E+03  1.04158E+03  9.44444E+02  2.89757E+03 -3.38748E+02  3.08406E+03
 -2.52632E+03  2.09714E+03 -2.69653E+03  6.57446E+02 -2.89557E+03 -8.35485E+02 -3.18000E+02 -1.74022E+03
  5.21271E+02 -1.59441E+03  1.42633E+03 -4.66260E+02  8.35098E+02  1.75816E+03 -5.78524E+02  1.37517E+03
 -1.58435E+03  9.72231E+02 -1.40727E+03 -2.02132E+03 -1.43419E+03 -2.52916E+03 -5.84307E+01 -1.92029E+03
  1.72357E+03 -8.84214E+02  1.21736E+03 -7.97934E+01  1.14578E+03 -2.76303E+02  2.22211E+02  1.47489E+03
 -7.76049E+02  5.45088E+02 -1.49902E+03 -1.08452E+02  7.30777E+02 -1.42096E+03  2.56115E+03 -1.66704E+03
  1.56481E+03 -4.17466E+01  3.55799E+03  7.96066E+02  1.26449E+03  2.04932E+03 -5.59694E+01  1.99600E+03
 -1.69027E+03  4.94931E+02 -2.04147E+03  1.08267E+02 -9.48905E+02 -1.98747E+03 -6.88678E+01 -7.40358E+02
  2.23092E+03 -6.58317E+02  1.07557E+03  7.22014E+02  6.49079E+01  1.23824E+03  5.12813E+02  1.41780E+03
 -7.23297E+02  9.01221E+02 -8.17431E+02  4.04915E+02  1.66754E+02  4.94091E+02 -1.23923E+03  7.25278E+02
 -6.16860E+02  1.16195E+03 -2.19421E+03  5.95221E+02 -2.22779E+03  6.05289E+02 -2.92934E+03 -1.50816E+03
 -1.01666E+03 -2.92226E+03  1.17642E+03 -3.59168E+03  1.79373E+03 -3.12104E+03  3.11673E+03 -1.16971E+03
  3.06654E+03 -2.18908E+02  1.34423E+03  2.33597E+03 -2.91265E+02  2.04526E+03 -9.77549E+02  1.85937E+03
 -1.76422E+03  8.88942E+02 -1.12148E+03 -9.14951E+01 -6.50999E+02  4.31504E+01 -7.43288E+02  1.69937E+02
 -9.24015E+02 -1.62336E+02 -9.81177E+02 -6.22988E+02 -1.38837E+02 -8.33440E+02 -1.46770E+01 -1.11502E+03
  1.76683E+03 -8.21228E+02  1.21303E+03  2.86141E+02  8.86609E+02  1.52856E+03 -3.39779E+02  1.86732E+03
 -1.49872E+03  3.35112E+03 -2.46501E+03  1.06177E+03 -2.42445E+03 -2.35432E+02 -1.72385E+03 -1.72788E+03
 -1.07376E+03 -1.79580E+03  8.43707E+02 -1.96103E+03  5.36769E+02 -7.62362E+02  1.37028E+03 -8.21653E+00
  6.13373E+02 -5.60927E+00  3.67607E+02  7.49299E+02 -7.54511E+02 -1.64234E+02 -3.51197E+01 -2.93775E+02
  6.05901E+01  2.88668E+02  7.38300E+02  4.01590E+02 -4.50450E+02  1.21804E+03  1.28293E+02  5.02886E+02
 -6.10386E+02  1.16687E+03 -7.32590E+02 -2.27446E+02 -9.74864E+02 -3.64486E+02 -1.32310E+02 -1.19368E+03
  8.44715E+02 -1.33753E+03  3.09199E+02 -8.53094E+02  1.20084E+03  3.14112E+02  1.09615E+03  8.75433E+02
  5.02151E+02  1.10668E+03 -1.31076E+02  8.40350E+02 -4.62090E+02  9.08837E+02 -3.62834E+02 -2.17458E+02
 -5.86142E+02 -6.02627E+01 -6.64377E+02  7.67153E+02 -1.28263E+03 -3.30165E+01 -8.25603E+02 -6.83026E+02
 -9.69050E+02  3.23519E+02 -2.33902E+02 -7.17149E+02  1.25652E+03 -2.00054E+03  1.19023E+03 -4.09399E+02
  1.00158E+03 -2.16379E+02 -3.31613E+00  4.78329E+02 -2.99431E+02  1.60361E+03 -4.17220E+02  1.14411E+03
