 $NMID ID='MM_0lb_SNR400_8hz_g55_29.RAW', FMTDAT='(8E13.5)'
 TRAMP=1., VOLUME=1. $END
  3.09159E+05  1.16310E+03  3.37814E+05  2.50630E+05  8.45770E+04  3.38385E+05 -1.32883E+05  2.51503E+05
 -1.91589E+05  8.46767E+04 -1.12879E+05 -3.26208E+04  9.79803E+01 -5.14942E+04  5.40282E+04 -5.47485E+02
  3.59598E+04  5.26920E+04 -1.61909E+04  7.64184E+04 -6.17306E+04  6.48659E+04 -8.62026E+04  3.24923E+04
 -8.27171E+04 -1.26104E+04 -5.81972E+04 -5.35712E+04 -1.46850E+04 -7.14707E+04  2.91471E+04 -4.77808E+04
  4.17436E+04  3.65645E+03  1.74471E+04  4.90608E+04 -3.48746E+04  4.81966E+04 -6.94034E+04  9.71432E+01
 -5.57941E+04 -5.80396E+04 -6.82937E+03 -8.02615E+04  3.49780E+04 -5.73437E+04  5.01180E+04 -1.77704E+04
  4.52124E+04  1.18525E+04  3.32669E+04  2.64498E+04  1.52570E+04  3.11143E+04 -5.80191E+03  2.78809E+04
 -2.20610E+04  1.20633E+04 -1.85618E+04 -6.20081E+03  8.13278E+03 -7.49199E+03  2.40953E+04  1.42450E+04
  6.80863E+03  3.86843E+04 -3.47272E+04  3.73459E+04 -6.72723E+04  2.81460E+03 -5.99270E+04 -4.60074E+04
 -1.29937E+04 -6.66488E+04  4.23026E+04 -4.76519E+04  6.21033E+04 -2.91431E+03  3.76683E+04  3.52564E+04
 -4.35026E+03  4.02004E+04 -3.20914E+04  2.01009E+04 -3.42787E+04 -3.07901E+03 -2.00038E+04 -1.19178E+04
 -9.08263E+03 -1.54510E+04 -2.06544E+02 -2.05611E+04  8.90240E+03 -2.28242E+04  1.59822E+04 -1.25011E+04
  9.82711E+03  6.74206E+03 -1.14036E+04  1.24967E+04 -2.33883E+04 -6.68047E+03 -8.97573E+03 -3.84199E+04
  2.66973E+04 -4.82948E+04  5.34918E+04 -2.16633E+04  4.94045E+04  2.12442E+04  1.79952E+04  4.80923E+04
 -1.69736E+04  3.67879E+04 -2.75911E+04  2.44034E+03 -1.17794E+04 -2.94768E+04  2.16685E+04 -3.78566E+04
  4.59667E+04 -1.14812E+04  4.12275E+04  2.52656E+04  2.13308E+04  5.30004E+04 -8.52054E+03  5.74298E+04
 -3.67174E+04  3.97178E+04 -4.81607E+04  1.17705E+04 -4.86895E+04 -1.97131E+04 -2.76142E+04 -4.21521E+04
  7.79267E+03 -4.49802E+04  3.45678E+04 -1.83060E+04  3.29140E+04  1.10606E+04  5.12569E+03  2.21125E+04
 -1.41656E+04  9.86641E+03 -1.22574E+04 -7.49978E+03  5.24058E+03 -1.15859E+04  1.87612E+04  5.64121E+03
  1.45443E+04  2.31153E+04 -4.73253E+03  2.82914E+04 -2.37085E+04  1.55265E+04 -3.25678E+04 -2.72856E+03
 -2.71861E+04 -1.93141E+04 -1.24427E+04 -2.64844E+04  3.56373E+03 -2.73260E+04  2.06978E+04 -2.49623E+04
  3.39690E+04 -1.44321E+04  3.93677E+04  5.35556E+03  2.79004E+04  2.39406E+04  4.75295E+03  4.27323E+04
 -2.09569E+04  3.42705E+04 -3.12571E+04  1.26042E+04 -2.30498E+04 -1.03969E+04 -4.55297E+03 -1.15005E+04
  1.00841E+03  4.63211E+01 -7.62155E+03  8.82428E+03 -2.11695E+04  5.81700E+03 -2.02496E+04 -1.10101E+04
 -1.26758E+04 -2.54002E+04  6.26374E+03 -3.05774E+04  1.99744E+04 -2.07343E+04  2.41856E+04 -1.69951E+03
  1.49359E+04  1.70898E+04 -1.34503E+03  2.54834E+04 -1.72885E+04  1.42689E+04 -2.50612E+04 -4.29881E+03
 -1.71272E+04 -2.23295E+04 -1.95459E+03 -2.90867E+04  1.30247E+04 -2.44664E+04  2.39688E+04 -1.27588E+04
  2.25822E+04 -7.41538E+02  1.71809E+04  5.07908E+03  8.89573E+03  1.35151E+03  1.30028E+04 -1.50411E+03
  2.32483E+04  1.82100E+03  2.76203E+04  1.88815E+04  1.80336E+04  3.90836E+04 -1.97460E+03  4.83605E+04
 -2.73573E+04  4.01436E+04 -4.43323E+04  2.15978E+04 -4.87529E+04 -4.08288E+03 -3.96103E+04 -2.77987E+04
 -1.49099E+04 -4.00991E+04  1.49699E+04 -3.46738E+04  2.94485E+04 -1.56818E+04  2.57179E+04  8.48163E+03
  9.23319E+03  1.99428E+04 -1.24764E+04  1.60506E+04 -2.16407E+04  2.46466E+03 -1.57211E+04 -1.38242E+04
  3.01880E+02 -2.08519E+04  1.15508E+04 -1.57030E+04  1.50277E+04 -1.63383E+03  4.07924E+03  8.83484E+03
 -9.03935E+03  4.53501E+03 -1.07585E+04 -6.97098E+03 -2.44258E+03 -1.93536E+04  1.21122E+04 -2.17624E+04
  2.56624E+04 -1.17155E+04  2.88349E+04  2.90340E+03  2.57458E+04  2.05134E+04  1.04045E+04  3.19414E+04
 -5.47875E+03  3.38255E+04 -2.24403E+04  2.13536E+04 -2.46212E+04  4.18138E+03 -1.71732E+04 -6.60719E+03
 -7.66093E+03 -8.08290E+03 -1.22251E+03  1.03370E+03 -2.99590E+03  4.62132E+03 -8.04422E+03  5.29115E+03
 -1.63111E+04 -4.65792E+02 -1.53003E+04 -1.26462E+04 -6.49747E+03 -2.12464E+04  6.74028E+03 -1.68737E+04
  1.32344E+04 -6.96641E+03  1.04781E+04  4.50525E+03  2.95668E+02  7.70150E+03 -8.44970E+03 -6.51700E+02
 -8.34808E+03 -1.08937E+04 -8.03704E+02 -1.68078E+04  9.75269E+03 -1.86700E+04  2.23009E+04 -8.75439E+03
  2.56564E+04  2.89089E+03  1.89419E+04  1.54614E+04  4.17424E+03  2.10782E+04 -9.51184E+03  1.70193E+04
 -1.55903E+04  4.83244E+03 -7.10382E+03 -3.18159E+03  2.38058E+03 -5.79424E+03  8.23789E+03 -5.14954E+02
  8.26282E+03  7.05656E+03  1.29458E+03  1.44138E+04 -1.04016E+04  1.33076E+04 -1.72424E+04  3.04080E+03
 -1.17825E+04 -9.17578E+03  2.31268E+02 -1.57099E+04  9.83281E+03 -8.27536E+03  1.04493E+04  3.58327E+03
  2.90716E+03  1.10155E+04 -8.88462E+03  1.30631E+04 -1.52005E+04  5.70680E+03 -1.61778E+04 -5.62657E+03
 -9.40458E+03 -1.74332E+04  4.79475E+03 -2.02948E+04  1.73904E+04 -1.16746E+04  1.91639E+04  3.30085E+03
  1.22283E+04  1.65672E+04 -1.51016E+03  1.78654E+04 -1.32783E+04  1.02241E+04 -1.44358E+04 -2.15567E+03
 -1.13456E+04 -1.14329E+04 -2.58607E+03 -1.33222E+04  7.22854E+03 -1.10056E+04  8.47628E+03 -4.24450E+03
  5.48849E+03  2.71502E+03 -7.40626E+02  1.69002E+03 -1.58716E+03 -4.29286E+03  3.94519E+03 -8.80442E+03
  1.32949E+04 -5.54131E+03  1.80848E+04  2.66831E+03  1.78513E+04  1.29325E+04  1.15193E+04  2.30931E+04
 -5.77914E+03  2.70246E+04 -2.28530E+04  1.95890E+04 -2.87194E+04  4.47072E+03 -2.33701E+04 -9.71132E+03
 -1.18222E+04 -1.94992E+04 -1.30011E+02 -1.69233E+04  6.12202E+03 -9.79245E+03  6.03322E+03 -6.04652E+03
  4.35142E+03 -3.35810E+03  4.23864E+03 -4.52289E+03  6.38119E+03 -4.16533E+03  8.78997E+03 -1.57544E+03
  1.28359E+04  2.11226E+03  6.80215E+03  1.06368E+04 -2.51565E+03  1.25557E+04 -1.26769E+04  1.03659E+04
 -1.58570E+04 -1.74829E+03 -1.13954E+04 -1.19134E+04 -1.05320E+03 -1.78433E+04  9.91677E+03 -1.79086E+04
  1.88022E+04 -1.00568E+04  2.18370E+04  3.52067E+03  1.53499E+04  1.52679E+04  2.47298E+03  2.12671E+04
 -8.23419E+03  1.69431E+04 -1.20318E+04  6.39594E+03 -8.03937E+03 -1.49661E+03 -3.76777E+03 -2.61364E+03
 -1.41431E+03 -2.57372E+02 -2.34559E+03  2.54107E+03 -6.50627E+03  3.14458E+03 -1.16822E+04 -2.26253E+03
 -8.65241E+03 -1.18705E+04 -5.73736E+02 -1.66044E+04  1.05718E+04 -1.53764E+04  1.79254E+04 -5.74383E+03
  1.71215E+04  7.89631E+03  8.56962E+03  1.54924E+04 -3.64007E+03  1.72951E+04 -1.20698E+04  1.01754E+04
 -1.54644E+04  9.78139E+02 -1.28238E+04 -1.09788E+04 -1.27425E+03 -1.43845E+04  7.96170E+03 -1.05731E+04
  1.04909E+04 -3.64651E+03  7.54024E+03  2.43709E+03  2.73189E+03  4.52870E+03  9.80034E+02  2.72050E+03
  2.95945E+03  9.44393E+02  5.53128E+03  2.27102E+03  4.50174E+03  6.12182E+03  4.12608E+03  9.09012E+03
 -3.61480E+03  1.41234E+04 -1.26386E+04  1.44609E+04 -1.82669E+04  3.65863E+03 -1.76337E+04 -7.86030E+03
 -9.12138E+03 -1.73456E+04  2.60523E+03 -1.91313E+04  1.06542E+04 -1.28552E+04  1.46071E+04 -2.78364E+03
  1.15653E+04  6.75677E+03  2.99081E+03  1.05731E+04 -5.38207E+03  6.76449E+03 -7.22519E+03 -5.49059E+02
 -2.58395E+03 -7.17968E+03  4.18541E+03 -8.37644E+03  7.34425E+03 -3.66846E+03  7.25591E+03  1.34616E+03
  4.55780E+03  3.50347E+03  1.10760E+03  3.61110E+03 -5.34838E+02  2.65370E+03  2.40076E+03 -5.08137E+02
  3.53107E+03 -2.44235E+03  7.33003E+03  3.75623E+03  4.75523E+03  1.01333E+04 -1.45391E+03  1.27954E+04
 -8.28660E+03  8.73039E+03 -1.18514E+04  2.45258E+03 -1.03091E+04 -3.96591E+03 -4.42824E+03 -7.02344E+03
  1.99193E+03 -7.19636E+03  4.59879E+03 -3.87193E+03  4.41732E+03  4.00911E+03 -1.50429E+03  5.91429E+03
 -7.59516E+03  3.42638E+03 -9.00445E+03 -4.83333E+03 -4.81210E+03 -1.00512E+04  1.43666E+03 -1.04058E+04
  5.79501E+03 -6.57574E+03  8.11878E+03 -1.36478E+03  5.84522E+03  2.76744E+03  1.24069E+03  5.17894E+03
 -3.93654E+03  1.45815E+03 -4.41828E+03 -4.66300E+03  1.41361E+03 -7.70077E+03  1.01077E+04 -6.50359E+03
  1.06307E+04  4.36579E+02  1.09818E+04  8.85706E+03  3.38150E+03  1.24443E+04 -4.23103E+03  1.14930E+04
 -9.97736E+03  5.37832E+03 -1.02231E+04 -3.89285E+02 -5.68491E+03 -8.52398E+03  1.83799E+03 -7.67380E+03
  7.95525E+03 -3.41162E+03  5.73904E+03  3.23333E+03  1.81615E+03  6.95132E+03 -1.39480E+03  6.12482E+03
 -3.34873E+03  3.61657E+03 -3.44313E+03  9.74055E+02 -1.08525E+03  8.32260E+02 -1.58612E+03  2.99652E+03
 -3.74684E+03  5.14505E+03 -9.57944E+03  4.39520E+03 -1.22709E+04 -4.76591E+02 -1.41442E+04 -7.29274E+03
 -7.96631E+03 -1.61992E+04  2.87844E+03 -1.86055E+04  1.21349E+04 -1.47142E+04  1.84116E+04 -5.10031E+03
  1.64577E+04  3.80184E+03  1.03125E+04  1.16911E+04  7.72952E+02  1.35666E+04 -5.03357E+03  9.32340E+03
 -6.92094E+03  2.96495E+03 -5.02138E+03 -1.67609E+03 -1.26480E+03 -1.43659E+03  4.79275E+02  7.26174E+02
 -3.01081E+03 -2.52096E+02 -2.40186E+03 -9.70931E+02 -6.88429E+02 -3.24532E+03  6.42573E+02 -5.31268E+03
  5.42068E+03 -3.53190E+03  8.04299E+03  5.98985E+02  9.50716E+03  6.13398E+03  3.03239E+03  1.34630E+04
 -6.00615E+03  1.47643E+04 -1.40075E+04  8.78015E+03 -1.57226E+04 -1.21766E+03 -1.22851E+04 -9.75265E+03
 -4.75717E+03 -1.29606E+04  3.58708E+03 -1.24221E+04  8.40328E+03 -7.02689E+03  7.85537E+03  1.94524E+02
  5.18914E+03  3.96749E+03 -8.20853E+02  3.37303E+03 -1.69442E+03 -3.16806E+02 -1.19545E+02 -4.32967E+03
  3.93394E+03 -1.92816E+03  5.60865E+03  2.32760E+03  4.17051E+03  5.61041E+03  5.43058E+02  7.27019E+03
 -6.11686E+03  5.97887E+03 -9.47457E+03  5.33130E+02 -7.75518E+03 -6.64504E+03 -2.15843E+03 -1.13624E+04
  7.02981E+03 -9.55990E+03  1.07387E+04 -2.57087E+03  1.07667E+04  4.05938E+03  5.88845E+03  8.66944E+03
  2.09832E+02  9.72185E+03 -3.10184E+03  7.83139E+03 -6.08024E+03  3.40103E+03 -5.08853E+03  1.12171E+03
 -2.16874E+03 -1.91661E+02 -3.04623E+03  8.58623E+02 -4.69989E+03  1.17841E+03 -6.74339E+03 -1.71142E+03
 -5.72037E+03 -4.10452E+03 -9.48568E+02 -8.49467E+03  3.83556E+03 -9.74227E+03  7.34052E+03 -4.55748E+03
  8.43157E+03  1.18902E+03  4.59745E+03  7.22986E+03 -8.01173E+02  9.77309E+03 -6.18459E+03  5.21751E+03
