 $NMID ID='MM_0lb_SNR400_8hz_g55_43.RAW', FMTDAT='(8E13.5)'
 TRAMP=1., VOLUME=1. $END
  3.10777E+05 -2.68784E+02  3.37021E+05  2.50758E+05  8.44327E+04  3.38312E+05 -1.32565E+05  2.52423E+05
 -1.90650E+05  8.37482E+04 -1.13875E+05 -3.29066E+04  6.35657E+02 -5.15794E+04  5.43275E+04 -1.08349E+03
  3.55573E+04  5.20087E+04 -1.65649E+04  7.57246E+04 -6.18711E+04  6.50573E+04 -8.60093E+04  3.26850E+04
 -8.27222E+04 -1.23255E+04 -5.83207E+04 -5.21761E+04 -1.51147E+04 -7.15482E+04  2.79198E+04 -4.68187E+04
  4.08025E+04  3.41458E+03  1.76597E+04  4.91860E+04 -3.47610E+04  4.85903E+04 -6.83366E+04  2.02315E+02
 -5.51546E+04 -5.89030E+04 -7.16135E+03 -7.92422E+04  3.36834E+04 -5.74153E+04  5.01758E+04 -1.84435E+04
  4.57732E+04  1.13358E+04  3.41862E+04  2.65600E+04  1.61051E+04  3.10099E+04 -6.70806E+03  2.75249E+04
 -2.26467E+04  1.06553E+04 -1.75431E+04 -5.92896E+03  8.16665E+03 -6.50651E+03  2.46566E+04  1.41901E+04
  6.17915E+03  3.88518E+04 -3.46260E+04  3.80779E+04 -6.63977E+04  2.02654E+03 -5.91242E+04 -4.44320E+04
 -1.28217E+04 -6.63527E+04  4.23115E+04 -4.83183E+04  6.12454E+04 -3.59303E+03  3.72896E+04  3.45178E+04
 -5.94100E+03  4.00346E+04 -3.36671E+04  1.94301E+04 -3.40241E+04 -3.21145E+03 -2.04481E+04 -1.20227E+04
 -1.03133E+04 -1.54481E+04 -9.18266E+02 -1.99901E+04  8.86164E+03 -2.43996E+04  1.54629E+04 -1.19375E+04
  9.91678E+03  6.65099E+03 -1.08482E+04  1.28648E+04 -2.41795E+04 -7.63970E+03 -9.09024E+03 -3.84912E+04
  2.57754E+04 -4.83079E+04  5.31985E+04 -2.05005E+04  4.94868E+04  2.11497E+04  1.86156E+04  4.73070E+04
 -1.69508E+04  3.68248E+04 -2.83980E+04  3.75872E+03 -1.30102E+04 -2.99248E+04  2.18632E+04 -3.81329E+04
  4.56104E+04 -1.15904E+04  4.18965E+04  2.45677E+04  2.23022E+04  5.21948E+04 -7.72509E+03  5.87559E+04
 -3.65750E+04  3.88546E+04 -4.96992E+04  1.12520E+04 -4.79730E+04 -1.79615E+04 -2.59413E+04 -4.33282E+04
  8.23559E+03 -4.34242E+04  3.55298E+04 -1.85918E+04  3.37235E+04  1.10541E+04  6.28366E+03  2.14245E+04
 -1.37596E+04  9.96070E+03 -1.22741E+04 -7.79525E+03  5.67529E+03 -1.09666E+04  1.90365E+04  5.01420E+03
  1.53100E+04  2.33179E+04 -4.98665E+03  2.89686E+04 -2.43147E+04  1.55826E+04 -3.24012E+04 -2.60061E+03
 -2.69328E+04 -1.88498E+04 -1.28454E+04 -2.66609E+04  5.10226E+03 -2.66044E+04  2.08317E+04 -2.44954E+04
  3.41194E+04 -1.48244E+04  3.97995E+04  5.20497E+03  2.86572E+04  2.55042E+04  3.82746E+03  4.33604E+04
 -2.10178E+04  3.47648E+04 -3.11316E+04  1.27621E+04 -2.23559E+04 -1.06398E+04 -4.73111E+03 -1.19896E+04
  3.69398E+02 -9.77011E+02 -8.24974E+03  8.60653E+03 -2.19151E+04  5.73699E+03 -2.08353E+04 -9.83391E+03
 -1.26029E+04 -2.43805E+04  5.62183E+03 -3.04218E+04  1.97484E+04 -2.07358E+04  2.35362E+04 -2.37167E+03
  1.48130E+04  1.73268E+04 -8.11048E+02  2.51964E+04 -1.76953E+04  1.40064E+04 -2.52757E+04 -5.15196E+03
 -1.79232E+04 -2.25897E+04 -2.11844E+03 -2.99243E+04  1.38043E+04 -2.45324E+04  2.39895E+04 -1.31362E+04
  2.31502E+04 -4.05144E+01  1.70336E+04  6.03040E+03  1.02226E+04  2.09583E+03  1.30666E+04 -2.07579E+03
  2.36929E+04  2.11711E+03  2.70056E+04  1.93966E+04  1.81632E+04  4.03960E+04 -2.92897E+03  4.74900E+04
 -2.72847E+04  3.99613E+04 -4.42930E+04  2.16251E+04 -4.83847E+04 -3.39538E+03 -3.88464E+04 -2.83477E+04
 -1.48520E+04 -4.03803E+04  1.36046E+04 -3.48288E+04  2.97493E+04 -1.71422E+04  2.57557E+04  8.73737E+03
  8.03861E+03  2.00152E+04 -1.28537E+04  1.69939E+04 -2.12331E+04  1.95023E+03 -1.59737E+04 -1.42881E+04
 -8.96457E+02 -2.05590E+04  1.19389E+04 -1.48168E+04  1.46771E+04 -1.41114E+03  4.30980E+03  9.14571E+03
 -9.45561E+03  4.29933E+03 -9.44397E+03 -7.80583E+03 -3.02610E+03 -1.95852E+04  1.19623E+04 -2.22675E+04
  2.51406E+04 -1.20837E+04  2.81948E+04  4.03720E+03  2.56217E+04  2.00873E+04  1.18171E+04  3.22627E+04
 -6.64913E+03  3.38235E+04 -2.18073E+04  2.13192E+04 -2.48854E+04  4.28977E+03 -1.77247E+04 -6.74591E+03
 -6.62892E+03 -7.81778E+03 -7.33790E+02  1.18434E+03 -2.52980E+03  3.56137E+03 -8.51814E+03  5.67397E+03
 -1.55205E+04 -9.58857E+02 -1.62041E+04 -1.26909E+04 -5.62934E+03 -2.05405E+04  6.77333E+03 -1.74997E+04
  1.36406E+04 -6.20352E+03  1.00058E+04  4.96070E+03 -1.14351E+03  7.55515E+03 -8.65555E+03 -1.01951E+02
 -8.30339E+03 -1.22124E+04 -1.89696E+03 -1.71828E+04  1.01069E+04 -1.79544E+04  2.25472E+04 -9.73508E+03
  2.62575E+04  2.80011E+03  1.92230E+04  1.61337E+04  3.57453E+03  2.07246E+04 -1.03474E+04  1.77516E+04
 -1.36476E+04  5.49454E+03 -7.96400E+03 -3.96938E+03  1.82116E+03 -5.19305E+03  8.92202E+03 -1.11359E+03
  8.88606E+03  7.52250E+03  9.86309E+02  1.35755E+04 -1.00482E+04  1.25105E+04 -1.71817E+04  3.09838E+03
 -1.24404E+04 -8.72622E+03  9.70559E+02 -1.49806E+04  1.01517E+04 -7.70743E+03  1.07623E+04  3.97602E+03
  1.96622E+03  1.09714E+04 -9.17052E+03  1.29778E+04 -1.49971E+04  5.62553E+03 -1.48552E+04 -5.65429E+03
 -8.56024E+03 -1.83978E+04  5.26600E+03 -2.07106E+04  1.75682E+04 -1.12590E+04  1.83105E+04  2.77196E+03
  1.08304E+04  1.48553E+04 -1.84455E+03  1.73947E+04 -1.26182E+04  1.05963E+04 -1.39782E+04 -1.62809E+03
 -1.08150E+04 -1.16442E+04 -2.49878E+03 -1.32107E+04  7.00305E+03 -1.06634E+04  8.22384E+03 -3.95484E+03
  5.68318E+03  2.32218E+03 -1.32697E+03  2.78256E+03 -1.29530E+03 -4.58215E+03  3.75771E+03 -8.23828E+03
  1.35475E+04 -5.78993E+03  1.83102E+04  1.79755E+03  1.76906E+04  1.29413E+04  1.09980E+04  2.40466E+04
 -5.77623E+03  2.74083E+04 -2.26160E+04  2.00925E+04 -2.96547E+04  3.33158E+03 -2.43489E+04 -9.79247E+03
 -1.18698E+04 -1.92972E+04 -7.14265E+02 -1.73775E+04  6.46086E+03 -9.39400E+03  6.70121E+03 -6.02935E+03
  4.74765E+03 -4.17919E+03  3.67279E+03 -4.93505E+03  5.90236E+03 -3.60320E+03  8.96029E+03 -1.09611E+03
  1.25499E+04  2.72054E+03  6.91927E+03  1.06618E+04 -2.63884E+03  1.24966E+04 -1.23641E+04  1.10377E+04
 -1.62091E+04 -1.05229E+03 -1.08726E+04 -1.18485E+04 -1.80749E+03 -1.81503E+04  1.03283E+04 -1.82406E+04
  1.89265E+04 -8.97774E+03  2.30564E+04  3.83883E+03  1.54306E+04  1.53003E+04  2.62790E+03  2.07814E+04
 -8.90324E+03  1.70404E+04 -1.15650E+04  6.07230E+03 -8.24963E+03 -1.36957E+03 -3.08987E+03 -2.58701E+03
 -2.14500E+03 -3.16442E+02 -2.97527E+03  4.05477E+03 -6.29766E+03  2.83726E+03 -1.10773E+04 -1.83924E+03
 -9.27713E+03 -1.16711E+04 -7.72141E+02 -1.65938E+04  1.05512E+04 -1.52753E+04  1.72828E+04 -4.31017E+03
  1.70864E+04  8.47732E+03  8.20267E+03  1.58835E+04 -3.78501E+03  1.82364E+04 -1.22811E+04  1.04738E+04
 -1.63660E+04 -2.13656E+02 -1.31510E+04 -1.07011E+04 -1.48258E+03 -1.49220E+04  7.65028E+03 -1.15346E+04
  1.11209E+04 -1.95943E+03  7.50275E+03  2.56948E+03  2.78123E+03  5.36245E+03  1.65970E+03  2.11259E+03
  3.40984E+03  1.81295E+03  3.02725E+03  1.89997E+03  5.36070E+03  5.55113E+03  3.65658E+03  9.22432E+03
 -3.97302E+03  1.37559E+04 -1.22773E+04  1.31960E+04 -1.84692E+04  3.21636E+03 -1.88543E+04 -7.35822E+03
 -8.98636E+03 -1.81164E+04  3.03841E+03 -1.98753E+04  1.05411E+04 -1.18315E+04  1.42042E+04 -3.34095E+03
  1.20242E+04  7.52692E+03  2.81267E+03  1.05026E+04 -5.10072E+03  6.74986E+03 -7.29940E+03 -1.07808E+03
 -3.99469E+03 -7.64004E+03  4.74797E+03 -8.34220E+03  7.45929E+03 -3.92405E+03  7.11859E+03  1.95307E+03
  4.47829E+03  3.62192E+03  1.36897E+03  3.20707E+03 -1.95613E+03  2.16028E+03  1.51344E+03 -7.54578E+02
  2.59387E+03 -8.47967E+02  7.80469E+03  2.80094E+03  4.13154E+03  9.32163E+03 -2.30892E+03  1.30096E+04
 -9.70262E+03  9.06590E+03 -1.23807E+04  2.82788E+03 -9.70098E+03 -3.12922E+03 -3.58014E+03 -6.64389E+03
  4.08891E+02 -7.46316E+03  4.92560E+03 -3.37118E+03  2.36662E+03  3.50918E+03 -2.26488E+03  5.41416E+03
 -8.33836E+03  3.84022E+03 -9.47539E+03 -4.06505E+03 -4.81064E+03 -9.53808E+03  1.09343E+03 -1.00132E+04
  6.12794E+03 -6.44423E+03  8.26834E+03 -1.19501E+03  6.03606E+03  2.67629E+03  6.09781E+02  5.39412E+03
 -3.45520E+03  1.38654E+03 -4.62702E+03 -4.11814E+03  1.23118E+03 -7.94214E+03  9.08562E+03 -5.95105E+03
  1.19613E+04  1.44067E+03  1.14656E+04  8.58013E+03  3.13768E+03  1.23306E+04 -4.15172E+03  1.14799E+04
 -1.06393E+04  5.78097E+03 -1.06806E+04 -2.06297E+03 -6.21208E+03 -7.62251E+03  1.63620E+03 -7.35398E+03
  7.21918E+03 -4.17456E+03  5.91020E+03  3.33826E+03  2.82946E+03  6.01722E+03 -1.26015E+03  6.19034E+03
 -4.23564E+03  4.19922E+03 -3.37278E+03  1.16226E+03 -1.32011E+03  4.01888E+01 -1.95156E+03  2.29350E+03
 -2.27851E+03  5.04752E+03 -8.18783E+03  3.26136E+03 -1.20548E+04 -6.03553E+02 -1.29556E+04 -8.34445E+03
 -7.64030E+03 -1.62280E+04  3.36085E+03 -1.93743E+04  1.24183E+04 -1.39616E+04  1.76964E+04 -5.83140E+03
  1.64538E+04  3.91401E+03  1.08017E+04  1.12680E+04  1.80436E+03  1.28852E+04 -4.77196E+03  9.29861E+03
 -7.09164E+03  3.40729E+03 -4.26159E+03 -4.58488E+02 -9.71024E+02 -1.08226E+03 -1.25565E+03  4.19552E+02
 -1.66972E+03  8.21692E+02 -2.17206E+03 -8.96250E+02 -1.89702E+03 -2.86000E+03  8.31733E+02 -4.86783E+03
  4.31358E+03 -3.93753E+03  8.18899E+03 -5.66087E+02  9.19679E+03  6.65083E+03  2.18410E+03  1.36580E+04
 -5.39950E+03  1.49199E+04 -1.40445E+04  9.38381E+03 -1.57573E+04 -1.07236E+03 -1.19774E+04 -9.62782E+03
 -5.22393E+03 -1.36876E+04  2.71415E+03 -1.12579E+04  8.18945E+03 -6.64140E+03  8.46696E+03  6.71186E+02
  4.58746E+03  5.39485E+03 -7.34227E+02  3.56286E+03 -1.71318E+03  1.79203E+02  6.81034E+02 -3.56868E+03
  3.88543E+03 -2.26471E+03  4.86827E+03  1.35809E+03  4.32894E+03  5.56831E+03  2.21185E+02  6.09578E+03
 -6.28190E+03  5.73227E+03 -9.36795E+03  3.66507E+02 -7.72352E+03 -6.46892E+03 -2.37122E+03 -1.14045E+04
  6.43785E+03 -9.16478E+03  1.04598E+04 -2.23843E+03  8.99559E+03  2.91182E+03  5.16931E+03  8.80771E+03
  6.82710E+02  8.75597E+03 -3.15643E+03  7.25864E+03 -5.42006E+03  4.67489E+03 -3.98043E+03 -1.61638E+01
 -2.87348E+03 -4.07353E+02 -2.77287E+03  8.11112E+02 -3.98919E+03  1.91651E+03 -6.54186E+03 -1.46619E+03
 -6.28334E+03 -4.74412E+03 -2.07570E+03 -9.51607E+03  4.66910E+03 -1.02169E+04  7.80916E+03 -4.40199E+03
  9.51205E+03  5.37100E+02  5.64291E+03  6.03377E+03 -5.46805E+02  8.45480E+03 -7.65404E+03  5.76375E+03
