 $NMID ID='MM_0lb_SNR400_16hz_g55_10.RAW', FMTDAT='(8E13.5)'
 TRAMP=1., VOLUME=1. $END
  3.09859E+05  1.98772E+02  3.37560E+05  2.50973E+05  8.43713E+04  3.37674E+05 -1.31990E+05  2.51066E+05
 -1.89920E+05  8.29158E+04 -1.11949E+05 -3.24298E+04  1.28291E+03 -5.09563E+04  5.35967E+04  1.15401E+02
  3.51266E+04  5.25412E+04 -1.67314E+04  7.51877E+04 -6.04210E+04  6.37082E+04 -8.44772E+04  3.19737E+04
 -8.12644E+04 -1.21452E+04 -5.73631E+04 -5.07690E+04 -1.56822E+04 -6.97773E+04  2.70424E+04 -4.58340E+04
  3.97437E+04  3.91475E+03  1.60476E+04  4.72615E+04 -3.39307E+04  4.69523E+04 -6.62739E+04  9.10092E+01
 -5.37161E+04 -5.66272E+04 -6.98575E+03 -7.64144E+04  3.43571E+04 -5.49093E+04  4.77674E+04 -1.73548E+04
  4.31891E+04  1.15096E+04  3.17343E+04  2.47325E+04  1.60898E+04  2.95916E+04 -4.99834E+03  2.71371E+04
 -2.17758E+04  1.31483E+04 -1.88290E+04 -4.76884E+03  5.77560E+03 -7.63992E+03  2.17964E+04  1.20332E+04
  7.11970E+03  3.47630E+04 -3.20537E+04  3.53133E+04 -6.28748E+04  2.04451E+03 -5.68724E+04 -4.27911E+04
 -1.23539E+04 -6.26557E+04  3.93188E+04 -4.53299E+04  5.75904E+04 -1.80016E+03  3.42492E+04  3.18187E+04
 -6.22001E+03  3.55297E+04 -2.97462E+04  1.59647E+04 -2.97548E+04 -4.68876E+03 -1.65034E+04 -1.10747E+04
 -7.95196E+03 -1.32882E+04 -6.12653E+02 -1.74614E+04  7.61062E+03 -2.26443E+04  1.57182E+04 -1.33607E+04
  1.13498E+04  5.11615E+03 -8.09700E+03  1.27077E+04 -2.08047E+04 -3.67554E+03 -8.38237E+03 -3.30997E+04
  2.29330E+04 -4.27696E+04  4.76172E+04 -1.96998E+04  4.46801E+04  1.91408E+04  1.61523E+04  4.35633E+04
 -1.58935E+04  3.29819E+04 -2.48042E+04  1.77308E+03 -1.00832E+04 -2.71149E+04  2.00352E+04 -3.35911E+04
  4.02411E+04 -7.90984E+03  3.43748E+04  2.38955E+04  1.73820E+04  4.58943E+04 -8.30589E+03  4.91905E+04
 -3.07733E+04  3.31838E+04 -4.08531E+04  9.15624E+03 -4.15559E+04 -1.63094E+04 -2.33040E+04 -3.73179E+04
  7.95942E+03 -3.69963E+04  3.03886E+04 -1.42572E+04  2.90500E+04  1.12654E+04  3.60280E+03  1.93491E+04
 -1.35846E+04  8.12392E+03 -1.04016E+04 -6.96406E+03  5.80669E+03 -1.11885E+04  1.81199E+04  5.92126E+03
  1.33803E+04  2.20337E+04 -5.75754E+03  2.43458E+04 -2.19901E+04  1.11533E+04 -2.77134E+04 -5.07075E+03
 -2.03870E+04 -1.71146E+04 -7.09833E+03 -1.95720E+04  3.84242E+03 -1.84073E+04  1.50339E+04 -1.73876E+04
  2.44953E+04 -1.24227E+04  3.14135E+04  2.23670E+03  2.30807E+04  1.90007E+04  3.94510E+03  3.53542E+04
 -1.72648E+04  2.96319E+04 -2.73927E+04  9.86722E+03 -2.09604E+04 -1.08940E+04 -3.88017E+03 -1.32305E+04
  1.73954E+03 -3.28012E+03 -4.25097E+03  6.47104E+03 -1.50138E+04  5.35030E+03 -1.57608E+04 -5.95412E+03
 -9.49968E+03 -1.75461E+04  4.89188E+03 -2.18603E+04  1.49961E+04 -1.60874E+04  1.74885E+04 -1.30331E+03
  1.06480E+04  1.24451E+04 -7.92550E+02  1.81929E+04 -1.22254E+04  1.02636E+04 -1.77285E+04 -3.72058E+03
 -1.31579E+04 -1.64704E+04 -1.38696E+03 -2.28294E+04  1.00650E+04 -1.77853E+04  1.83135E+04 -9.12176E+03
  1.70421E+04  7.37593E+02  1.24496E+04  4.02671E+03  6.23179E+03  7.43703E+02  9.58679E+03 -1.85094E+03
  1.63286E+04  2.40162E+03  1.83835E+04  1.43273E+04  1.19436E+04  2.89148E+04 -2.85062E+03  3.16375E+04
 -1.83187E+04  2.54933E+04 -2.93246E+04  1.26536E+04 -3.07292E+04 -3.23887E+03 -2.55843E+04 -1.80706E+04
 -1.17188E+04 -2.58249E+04  8.62911E+03 -2.34144E+04  1.96844E+04 -1.21297E+04  1.76807E+04  5.45089E+03
  7.57212E+03  1.39605E+04 -8.78900E+03  1.18558E+04 -1.57250E+04  2.57521E+03 -1.19025E+04 -9.93708E+03
  3.98892E+02 -1.46143E+04  6.77602E+03 -1.06047E+04  9.19637E+03 -1.77780E+03  1.87391E+03  5.84722E+03
 -6.65492E+03  1.97423E+03 -5.82179E+03 -4.94253E+03 -3.86867E+02 -1.24192E+04  9.13482E+03 -1.26831E+04
  1.55947E+04 -5.90434E+03  1.61692E+04  2.59627E+03  1.32361E+04  1.19719E+04  7.05914E+03  1.78011E+04
 -2.70835E+03  1.97688E+04 -1.27616E+04  1.23237E+04 -1.48497E+04  3.23865E+03 -1.03934E+04 -3.27367E+03
 -5.13347E+03 -3.68975E+03 -9.28755E+02  1.54184E+03 -2.84765E+03  2.54566E+03 -4.38103E+03  3.88374E+03
 -1.01640E+04 -8.19189E+02 -1.04916E+04 -8.44790E+03 -4.06631E+03 -1.41475E+04  4.00529E+03 -1.02999E+04
  8.75342E+03 -4.51801E+03  6.19007E+03  2.61444E+03 -1.14429E+02  4.00214E+03 -4.48843E+03 -9.37095E+01
 -4.86667E+03 -6.65545E+03 -1.02020E+03 -9.18855E+03  5.05284E+03 -9.83262E+03  1.29638E+04 -5.41580E+03
  1.48939E+04  1.37099E+03  1.11822E+04  8.28347E+03  2.26776E+03  1.16637E+04 -6.60430E+03  1.04480E+04
 -7.67492E+03  3.15663E+03 -4.67512E+03 -1.65267E+03  1.31198E+03 -2.42719E+03  5.36036E+03 -1.20533E+03
  4.70188E+03  4.10551E+03  9.70793E+02  7.98922E+03 -5.60333E+03  8.13462E+03 -9.93328E+03  2.26126E+03
 -7.06186E+03 -4.50721E+03  1.06533E+02 -8.49590E+03  4.47096E+03 -4.56955E+03  5.37327E+03  1.74901E+03
  3.06346E+02  5.25728E+03 -5.15786E+03  6.51037E+03 -7.17699E+03  2.93409E+03 -6.98453E+03 -2.05465E+03
 -4.63205E+03 -8.30350E+03  2.06410E+03 -9.57393E+03  8.44030E+03 -6.11312E+03  9.08049E+03  1.54849E+03
  5.76954E+03  7.08820E+03 -2.17076E+02  9.55933E+03 -6.49220E+03  5.13918E+03 -6.97902E+03 -8.92650E+02
 -7.16685E+03 -6.28590E+03 -7.81815E+02 -7.28321E+03  3.19052E+03 -5.95743E+03  3.54665E+03 -2.73152E+03
  3.68271E+03  1.40447E+03 -1.06992E+03  1.12624E+03  3.61362E+01 -1.32691E+03  4.94761E+02 -2.81164E+03
  6.15366E+03 -2.14036E+03  7.73280E+03  9.42334E+02  7.87447E+03  5.23404E+03  6.58593E+03  1.08313E+04
 -2.09523E+03  1.23862E+04 -1.01633E+04  9.39238E+03 -1.32967E+04  1.51552E+03 -1.04584E+04 -3.87531E+03
 -5.30745E+03 -8.73601E+03 -6.80644E+02 -7.37590E+03  2.53008E+03 -3.22893E+03  2.60084E+03 -3.05434E+03
  1.77175E+03 -1.45371E+03  2.95885E+03 -2.68157E+03  4.06934E+03 -1.14217E+03  5.24040E+03 -6.52911E+01
  5.66251E+03  1.57747E+03  2.74413E+03  4.65149E+03 -1.33996E+03  4.82003E+03 -6.42584E+03  3.79676E+03
 -6.62915E+03 -8.19222E+02 -3.48472E+03 -4.99327E+03 -2.56245E+02 -6.76667E+03  4.37403E+03 -7.54830E+03
  6.68840E+03 -4.26329E+03  9.05972E+03  6.06042E+02  6.49074E+03  6.05876E+03  2.05172E+03  8.83845E+03
 -3.46740E+03  7.41175E+03 -4.94637E+03  3.17315E+03 -3.01830E+03 -1.33660E+03 -9.09767E+02 -1.24764E+03
 -2.49723E+02 -2.61514E+02 -1.64729E+03  2.59422E+03 -3.35960E+03  1.36458E+03 -5.26433E+03 -9.82191E+02
 -2.80569E+03 -5.26670E+03  1.31468E+03 -6.69185E+03  4.39258E+03 -6.56547E+03  5.65163E+03 -1.90112E+03
  6.11279E+03  2.95842E+03  2.76890E+03  5.08570E+03 -8.20714E+02  6.74334E+03 -4.06969E+03  4.20085E+03
 -5.67746E+03  4.75368E+02 -5.12798E+03 -3.82655E+03 -5.32067E+02 -4.78143E+03  2.00165E+03 -3.43224E+03
  4.51002E+03 -1.51760E+03  2.66542E+03  1.29770E+03  7.07189E+02  2.28473E+03  8.74738E+02  4.64484E+02
  2.33774E+03  7.49870E+02  1.53241E+03  9.52657E+02  1.84945E+03  2.85687E+03  1.66903E+03  2.59989E+03
 -1.26674E+03  4.58224E+03 -3.47753E+03  4.98970E+03 -5.69702E+03  1.31934E+03 -6.41158E+03 -2.05740E+03
 -2.75854E+03 -5.45723E+03  1.04841E+03 -6.77722E+03  2.86085E+03 -3.61517E+03  5.29377E+03 -8.90239E+02
  3.26138E+03  2.03918E+03  8.90661E+02  3.10491E+03 -6.91080E+02  1.68898E+03 -1.73021E+03  2.78870E+02
 -9.96478E+02 -2.14706E+03  1.79812E+03 -1.88644E+03  1.65434E+03 -1.52301E+03  1.78507E+03  4.40338E+02
  5.76688E+02  8.64923E+02  7.01079E+02  5.52213E+02 -8.76602E+02  1.10409E+03  1.90404E+03 -3.55843E+02
 -2.62839E+01  6.18015E+01  2.61735E+03  1.22450E+03  1.22141E+03  4.05534E+03 -1.94933E+01  4.14054E+03
 -2.04486E+03  2.20645E+03 -2.40657E+03  5.42455E+02 -2.72412E+03 -1.38976E+03 -9.38631E+02 -1.41874E+03
  1.09622E+03 -1.78840E+03  1.15393E+03 -9.16258E+02  1.38736E+03  1.50301E+03 -1.42967E+03  1.46859E+03
 -1.92351E+03  1.59803E+03 -1.45237E+03 -1.58029E+03 -1.15663E+03 -3.11373E+03  2.31636E+02 -1.90108E+03
  1.28114E+03 -1.29156E+03  2.00386E+03 -1.38075E+02  2.13698E+03 -1.39981E+02  4.30104E+02  2.43361E+03
 -9.40901E+02 -2.78161E+02 -1.44389E+03 -7.89439E+02  1.01033E+03 -1.99934E+03  2.08067E+03 -1.65538E+03
  2.69372E+03  7.69589E+02  4.16854E+03  1.48093E+03  1.20776E+03  3.22302E+03 -9.35317E+02  3.09796E+03
 -2.38576E+03  9.96236E+02 -2.07541E+03 -8.05471E+02 -6.43141E+02 -2.47818E+03  2.40528E+01 -1.74779E+03
  2.81614E+03 -1.39650E+03  1.50745E+03  8.23106E+02  3.29829E+01  1.60311E+03  3.80211E+02  1.25248E+03
 -7.04735E+02  1.34081E+03 -7.28795E+02  5.97947E+02  5.13343E+02  4.48952E+02 -3.23994E+02  4.49995E+02
 -8.57576E+02  1.48260E+03 -2.31375E+03  5.03572E+02 -2.46054E+03  4.40537E+01 -3.19652E+03 -1.39769E+03
 -2.16321E+03 -3.59017E+03  1.33034E+01 -4.62980E+03  2.48774E+03 -3.37284E+03  4.40941E+03 -1.53452E+03
  4.34500E+03  3.58458E+02  1.88600E+03  2.43757E+03  4.37874E+01  3.08033E+03 -1.42192E+03  1.45944E+03
 -1.84645E+03  1.09712E+03 -1.27356E+03 -4.77893E+02 -2.27290E+02  1.69409E+02 -7.54791E+02 -5.39317E+01
 -1.05174E+03 -5.17773E+02 -8.83143E+02 -5.42969E+02 -2.00522E+02 -1.12567E+03 -6.37047E+02 -9.49273E+02
  1.72250E+03 -6.78598E+02  9.14859E+02 -7.34910E+01  1.88791E+03  1.58798E+03 -2.32403E+02  2.80779E+03
 -1.48616E+03  2.90406E+03 -3.05044E+03  1.93690E+03 -3.10378E+03  1.49496E+02 -1.46995E+03 -1.99641E+03
 -1.78445E+03 -2.17587E+03  3.15851E+02 -2.65716E+03  1.22942E+03 -1.42793E+03  1.77380E+03  4.18303E+02
  1.24858E+03  2.97404E+02  1.07305E+02  6.26435E+02 -5.78564E+02 -1.52488E+02  3.20098E+02  1.05768E+02
  5.93981E+02 -2.17234E+02  1.13517E+03  8.29178E+01 -5.42773E+02  6.99057E+02  5.89070E+02  1.22215E+03
 -1.16425E+03  1.24668E+03 -1.95934E+03  9.27444E+01 -2.13948E+03 -4.17047E+02 -1.86094E+02 -1.83736E+03
  8.97597E+02 -1.62710E+03  1.45445E+03 -1.34033E+02  1.52565E+03 -6.26586E+02  1.15375E+03  1.25575E+03
  4.30550E+02  1.48697E+03  1.25266E+02  1.55246E+03 -6.26487E+02  1.52573E+03 -6.53094E+02  5.04424E+02
 -2.86207E+02 -6.72802E+02 -4.70782E+02  8.12413E+01 -1.14388E+03  5.34075E+01 -1.19220E+03 -8.98223E+02
 -1.29164E+03 -2.77866E+01 -1.00349E+03 -1.70621E+03  1.26682E+03 -2.46283E+03  1.41833E+03 -1.30912E+03
  2.10924E+03  1.05817E+02  2.93646E+02  6.63560E+02 -1.98279E+02  1.63655E+03 -4.07006E+02  1.34049E+03
