 $NMID ID='MM_0lb_SNR400_14hz_g50_28.RAW', FMTDAT='(8E13.5)'
 TRAMP=1., VOLUME=1. $END
  3.09999E+05  1.68767E+02  3.37796E+05  2.50850E+05  8.45553E+04  3.38357E+05 -1.32510E+05  2.51332E+05
 -1.90580E+05  8.36654E+04 -1.11191E+05 -3.21660E+04  8.20368E+02 -5.06394E+04  5.40931E+04 -6.08060E+00
  3.55384E+04  5.29509E+04 -1.66091E+04  7.55741E+04 -6.08777E+04  6.37156E+04 -8.46062E+04  3.13786E+04
 -8.17344E+04 -1.06753E+04 -5.74285E+04 -5.15674E+04 -1.45165E+04 -6.94999E+04  2.76606E+04 -4.59911E+04
  4.00167E+04  3.43242E+03  1.63203E+04  4.73061E+04 -3.47203E+04  4.73677E+04 -6.75931E+04 -1.06587E+02
 -5.37052E+04 -5.69048E+04 -6.44666E+03 -7.74770E+04  3.38758E+04 -5.56149E+04  4.82055E+04 -1.72835E+04
  4.33595E+04  1.12252E+04  3.18790E+04  2.63473E+04  1.63589E+04  2.95091E+04 -5.10613E+03  2.77506E+04
 -2.25997E+04  1.20530E+04 -1.92239E+04 -5.10865E+03  5.25912E+03 -7.34128E+03  2.23200E+04  1.25541E+04
  7.51194E+03  3.49908E+04 -3.14696E+04  3.54186E+04 -6.38790E+04  1.98649E+03 -5.69285E+04 -4.34212E+04
 -1.23098E+04 -6.28668E+04  4.01795E+04 -4.57561E+04  5.88263E+04 -1.66203E+03  3.44432E+04  3.26171E+04
 -6.21282E+03  3.59322E+04 -3.01024E+04  1.65120E+04 -3.04414E+04 -4.26224E+03 -1.67918E+04 -1.12582E+04
 -8.33331E+03 -1.39434E+04 -6.67054E+02 -1.82034E+04  7.68744E+03 -2.25814E+04  1.51392E+04 -1.36134E+04
  1.15045E+04  4.57675E+03 -8.50125E+03  1.35795E+04 -2.12314E+04 -5.01770E+03 -8.38622E+03 -3.37280E+04
  2.34689E+04 -4.28514E+04  4.82183E+04 -1.98880E+04  4.51029E+04  1.96944E+04  1.54217E+04  4.44909E+04
 -1.56484E+04  3.30498E+04 -2.53503E+04  1.91614E+03 -1.07041E+04 -2.81225E+04  2.09541E+04 -3.33905E+04
  4.16967E+04 -8.87627E+03  3.52881E+04  2.35407E+04  1.85572E+04  4.62308E+04 -7.72981E+03  4.99845E+04
 -3.20538E+04  3.34711E+04 -4.23421E+04  1.01286E+04 -4.32361E+04 -1.61649E+04 -2.32703E+04 -3.80460E+04
  7.35563E+03 -3.77892E+04  3.15442E+04 -1.39437E+04  2.95032E+04  1.08795E+04  4.10241E+03  1.88520E+04
 -1.33282E+04  8.11451E+03 -1.04092E+04 -7.32927E+03  6.04861E+03 -1.16732E+04  1.80562E+04  6.27675E+03
  1.36915E+04  2.24849E+04 -6.27588E+03  2.49331E+04 -2.25530E+04  1.16836E+04 -2.81879E+04 -4.82701E+03
 -2.07642E+04 -1.74423E+04 -8.17201E+03 -2.00054E+04  4.06551E+03 -1.96833E+04  1.61783E+04 -1.85386E+04
  2.63115E+04 -1.24832E+04  3.32061E+04  3.55474E+03  2.39424E+04  1.97612E+04  4.03165E+03  3.60961E+04
 -1.76620E+04  3.04032E+04 -2.82127E+04  1.00142E+04 -2.14436E+04 -9.89267E+03 -4.15854E+03 -1.37677E+04
  1.85324E+03 -3.09125E+03 -4.58846E+03  6.74767E+03 -1.62765E+04  5.23439E+03 -1.66775E+04 -6.80804E+03
 -9.70768E+03 -1.94761E+04  5.71497E+03 -2.33547E+04  1.49259E+04 -1.71345E+04  1.80905E+04 -9.82614E+02
  1.16274E+04  1.29997E+04 -8.87291E+02  1.87087E+04 -1.29445E+04  1.06258E+04 -1.95599E+04 -4.76156E+03
 -1.36240E+04 -1.69111E+04 -1.74488E+03 -2.27553E+04  1.03977E+04 -1.91010E+04  1.94243E+04 -1.00651E+04
  1.77591E+04  4.58364E+01  1.29434E+04  4.35315E+03  7.18967E+03  1.64103E+02  9.50494E+03 -1.83621E+03
  1.79955E+04  2.85049E+03  1.96057E+04  1.50022E+04  1.28168E+04  3.05109E+04 -3.13917E+03  3.49094E+04
 -1.94992E+04  2.83525E+04 -3.22521E+04  1.36950E+04 -3.31339E+04 -2.46338E+03 -2.81407E+04 -1.92878E+04
 -1.25820E+04 -2.85003E+04  9.60675E+03 -2.46563E+04  2.15013E+04 -1.30788E+04  2.01228E+04  4.82211E+03
  7.40426E+03  1.44964E+04 -9.49585E+03  1.27354E+04 -1.60269E+04  2.24143E+03 -1.24106E+04 -1.01539E+04
 -1.15101E+03 -1.47794E+04  7.82056E+03 -1.14424E+04  1.01287E+04 -1.54191E+03  2.30077E+03  6.50494E+03
 -7.48194E+03  2.66038E+03 -6.58894E+03 -5.18427E+03 -3.43095E+02 -1.40220E+04  9.25805E+03 -1.41865E+04
  1.63801E+04 -7.52628E+03  1.81049E+04  2.93593E+03  1.57747E+04  1.35375E+04  7.66621E+03  2.02905E+04
 -3.44703E+03  2.28933E+04 -1.43565E+04  1.41302E+04 -1.60413E+04  3.69289E+03 -1.16035E+04 -4.07934E+03
 -5.46594E+03 -5.33480E+03 -6.63691E+02  1.09540E+03 -2.67671E+03  2.88039E+03 -5.36337E+03  4.65425E+03
 -1.08680E+04 -5.86020E+02 -1.16928E+04 -8.53601E+03 -5.02765E+03 -1.47693E+04  4.98980E+03 -1.14633E+04
  9.00749E+03 -4.23168E+03  7.07750E+03  3.46207E+03  1.03117E+02  4.59620E+03 -5.25561E+03 -6.92333E+02
 -5.41669E+03 -7.34337E+03 -1.48699E+03 -1.01283E+04  5.93258E+03 -1.12869E+04  1.38346E+04 -6.32905E+03
  1.67193E+04  1.43876E+03  1.21140E+04  8.99674E+03  2.63817E+03  1.28519E+04 -6.76265E+03  1.13827E+04
 -9.07496E+03  3.64489E+03 -4.95425E+03 -2.14716E+03  1.50783E+03 -2.84786E+03  6.46315E+03 -1.21498E+03
  5.76622E+03  5.35910E+03  1.46933E+03  8.83294E+03 -5.95214E+03  8.89699E+03 -1.14931E+04  1.98686E+03
 -7.23688E+03 -4.84233E+03 -1.80163E+02 -9.49676E+03  5.05238E+03 -4.74436E+03  6.27912E+03  1.63412E+03
  1.42282E+03  5.51995E+03 -5.05918E+03  7.68186E+03 -8.29548E+03  4.21158E+03 -8.21512E+03 -2.81816E+03
 -4.99987E+03 -1.01199E+04  2.20757E+03 -1.13458E+04  9.84012E+03 -6.61254E+03  1.04392E+04  2.02903E+03
  6.70918E+03  8.08738E+03 -5.62944E+02  1.06555E+04 -7.44901E+03  5.55327E+03 -8.07314E+03 -4.46303E+02
 -7.64319E+03 -7.25906E+03 -1.13974E+03 -7.45922E+03  3.58148E+03 -6.57763E+03  4.77307E+03 -2.36361E+03
  3.82000E+03  8.47301E+02 -3.30591E+02  1.52954E+03  1.28001E+02 -1.58900E+03  1.63256E+03 -3.89345E+03
  6.31102E+03 -1.90248E+03  9.18740E+03  8.64378E+02  9.44493E+03  6.54025E+03  7.65615E+03  1.25142E+04
 -2.78511E+03  1.40803E+04 -1.25135E+04  1.10035E+04 -1.62230E+04  2.42319E+03 -1.24399E+04 -5.29768E+03
 -6.11279E+03 -1.11153E+04 -5.45841E+02 -8.83204E+03  4.02236E+03 -4.54572E+03  3.05296E+03 -3.48018E+03
  2.21479E+03 -2.40518E+03  2.85928E+03 -2.31467E+03  3.75625E+03 -2.25578E+03  5.20936E+03 -8.55645E+02
  6.79162E+03  1.67923E+03  3.23150E+03  5.49653E+03 -1.69756E+03  5.93404E+03 -7.19660E+03  5.09523E+03
 -8.48825E+03 -8.39038E+02 -4.52760E+03 -5.56069E+03 -6.32381E+01 -8.84177E+03  4.96584E+03 -8.90180E+03
  9.90615E+03 -5.24620E+03  1.14800E+04  9.88367E+02  8.33376E+03  7.83902E+03  1.84727E+03  1.05860E+04
 -4.71721E+03  9.53234E+03 -5.18912E+03  2.51420E+03 -4.54893E+03 -1.10544E+03 -1.52905E+03 -1.01532E+03
 -2.76456E+02  3.28683E+02 -1.07552E+03  2.55411E+03 -3.65565E+03  1.36241E+03 -5.95591E+03 -9.06689E+02
 -3.68889E+03 -6.23370E+03  2.74157E+02 -8.71319E+03  5.34314E+03 -7.39948E+03  7.34710E+03 -1.68755E+03
  8.13139E+03  4.26519E+03  3.16285E+03  6.75656E+03 -2.62009E+03  8.54082E+03 -5.50857E+03  5.23149E+03
 -6.82879E+03  5.55795E+02 -5.88936E+03 -4.90238E+03 -1.17810E+03 -6.43733E+03  3.30843E+03 -4.82127E+03
  5.02511E+03 -1.62915E+03  3.80241E+03  1.38590E+03  5.61918E+02  2.91542E+03  1.10377E+03  1.07505E+03
  1.92736E+03  5.03113E+02  2.08639E+03  1.45707E+03  1.67035E+03  3.47889E+03  2.45788E+03  3.72740E+03
 -1.94196E+03  6.30604E+03 -5.44026E+03  5.94779E+03 -7.88082E+03  1.83110E+03 -8.49053E+03 -2.07780E+03
 -3.42956E+03 -8.04051E+03  7.84319E+02 -8.72540E+03  4.28660E+03 -5.28439E+03  5.68681E+03 -1.51126E+03
  5.05114E+03  2.96744E+03  9.04016E+02  3.44862E+03 -1.85353E+03  2.60971E+03 -2.98966E+03 -7.47057E+02
 -1.13780E+03 -3.21417E+03  2.20015E+03 -2.82235E+03  2.43393E+03 -1.67821E+03  2.93526E+03  9.50999E+02
  1.88830E+03  6.00997E+02  1.48975E+03  8.57039E+02 -1.07080E+02  1.32839E+03  1.52276E+03 -2.33803E+02
  1.23634E+03 -3.00762E+02  3.68174E+03  1.71126E+03  1.34528E+03  4.34750E+03 -5.34057E+02  5.43796E+03
 -3.29934E+03  3.32949E+03 -4.73535E+03  4.44266E+02 -4.26896E+03 -9.99897E+02 -1.17848E+03 -2.74507E+03
  8.70998E+02 -2.62848E+03  1.75714E+03 -1.32324E+03  1.97286E+03  2.28260E+03 -9.01870E+02  3.07325E+03
 -2.98867E+03  1.28116E+03 -3.43104E+03 -2.36583E+03 -1.54834E+03 -4.14341E+03  4.41531E+02 -3.56743E+03
  2.05015E+03 -2.03586E+03  2.52183E+03  2.23594E+01  2.48303E+03  4.30965E+02  5.23939E+02  1.98743E+03
 -7.29618E+02  9.83910E+02 -1.87165E+03 -1.26117E+03  7.25796E+02 -2.67283E+03  3.49188E+03 -1.93777E+03
  3.77530E+03  3.49391E+01  4.95700E+03  3.00444E+03  1.53676E+03  4.22439E+03 -1.61336E+03  4.21976E+03
 -3.38160E+03  1.60382E+03 -2.96256E+03 -2.97976E+02 -1.75287E+03 -2.62886E+03  5.35120E+02 -2.08129E+03
  3.37902E+03 -1.51833E+03  2.18482E+03  9.77231E+02  1.06162E+03  2.46841E+03  1.57386E+02  1.75922E+03
 -8.93055E+02  1.50613E+03 -8.83941E+02  2.26481E+02 -4.19266E+02  7.95009E+02 -1.79870E+03  9.96101E+02
 -7.09408E+02  9.50420E+02 -3.72113E+03  9.22905E+02 -3.86446E+03 -1.31686E+02 -4.99704E+03 -2.93980E+03
 -2.01979E+03 -5.16181E+03  2.00805E+03 -6.06428E+03  3.43313E+03 -5.03793E+03  5.65805E+03 -1.95166E+03
  5.38836E+03  9.44593E+02  2.92257E+03  3.50643E+03 -1.74168E+02  3.81985E+03 -1.72153E+03  2.86790E+03
 -1.97287E+03  1.08226E+03 -1.04092E+03  6.15982E-01 -6.68229E+02  1.98678E+02 -1.31016E+03 -1.71458E+02
 -1.40719E+03 -4.59712E+02 -1.32601E+03 -1.96024E+02 -5.30077E+02 -1.10183E+03 -8.12650E+02 -2.09325E+03
  2.59150E+03 -1.65218E+03  1.64535E+03  3.92790E+01  2.77368E+03  1.99441E+03  4.76144E+02  3.79630E+03
 -2.06554E+03  5.24893E+03 -4.18882E+03  2.61285E+03 -5.05207E+03 -1.19816E+03 -3.74793E+03 -3.17612E+03
 -1.52848E+03 -3.62129E+03  1.06257E+03 -3.63273E+03  2.26738E+03 -1.88641E+03  2.46182E+03 -4.15588E+02
  1.50552E+03  4.87992E+02 -9.01733E+00  1.52684E+03 -8.47034E+02 -5.27445E+02  6.40032E+01 -5.44872E+02
  1.43966E+03  3.70776E+01  1.73373E+03  7.65641E+02  1.33237E+03  9.22070E+02  3.04642E+02  1.39609E+03
 -1.73413E+03  1.06837E+03 -2.20214E+03  2.05264E+02 -2.38413E+03 -1.12561E+03 -2.12432E+02 -3.19134E+03
  1.96349E+03 -3.05452E+03  2.65810E+03 -7.62907E+02  2.55389E+03  2.68527E+02  7.65718E+02  1.64793E+03
  1.09555E+03  2.46504E+03 -6.17380E+02  2.29392E+03 -1.21557E+03  1.47296E+03 -8.94588E+02  8.22914E+02
 -2.38704E+02 -1.18879E+02 -6.83552E+02  6.12977E+02 -1.17913E+03  4.58327E+02 -2.35221E+03 -4.93437E+02
 -2.17243E+03 -1.10153E+03 -4.23746E+02 -2.42726E+03  1.21538E+03 -3.33079E+03  1.92107E+03 -1.15426E+03
  2.87514E+03  7.78567E+01  8.33205E+02  1.80051E+03 -2.17900E+02  2.81513E+03 -1.44967E+03  2.11721E+03
