 $NMID ID='MM_0lb_SNR400_15hz_g50_34.RAW', FMTDAT='(8E13.5)'
 TRAMP=1., VOLUME=1. $END
  3.09208E+05 -1.34945E+02  3.37626E+05  2.50485E+05  8.49869E+04  3.37654E+05 -1.32668E+05  2.51374E+05
 -1.90322E+05  8.32862E+04 -1.12001E+05 -3.21877E+04  9.48996E+02 -5.05128E+04  5.38264E+04  4.11378E+02
  3.51945E+04  5.36602E+04 -1.70027E+04  7.48389E+04 -6.05731E+04  6.29311E+04 -8.48023E+04  3.18193E+04
 -8.05433E+04 -1.06062E+04 -5.69889E+04 -5.12246E+04 -1.51813E+04 -6.90158E+04  2.78172E+04 -4.54208E+04
  4.01077E+04  3.44403E+03  1.57376E+04  4.74735E+04 -3.47497E+04  4.66200E+04 -6.60608E+04 -4.32228E+02
 -5.28884E+04 -5.64450E+04 -7.30894E+03 -7.65764E+04  3.35371E+04 -5.47414E+04  4.76936E+04 -1.69921E+04
  4.31544E+04  1.08205E+04  3.18651E+04  2.52582E+04  1.59752E+04  2.92487E+04 -5.34518E+03  2.76896E+04
 -2.16646E+04  1.24884E+04 -1.87764E+04 -5.33017E+03  5.76205E+03 -7.25072E+03  2.19942E+04  1.21495E+04
  7.73914E+03  3.52999E+04 -3.23433E+04  3.50470E+04 -6.30708E+04  2.24657E+03 -5.61944E+04 -4.26456E+04
 -1.25950E+04 -6.30665E+04  3.93357E+04 -4.46827E+04  5.75215E+04 -2.30250E+03  3.38077E+04  3.19756E+04
 -6.17464E+03  3.56662E+04 -3.02619E+04  1.59018E+04 -3.00687E+04 -4.49548E+03 -1.56964E+04 -9.98326E+03
 -8.08507E+03 -1.21503E+04 -5.63279E+02 -1.81183E+04  7.47032E+03 -2.30959E+04  1.53130E+04 -1.31773E+04
  1.18223E+04  5.07391E+03 -7.97698E+03  1.34512E+04 -2.05445E+04 -3.59532E+03 -8.69367E+03 -3.26712E+04
  2.23524E+04 -4.30388E+04  4.78057E+04 -1.97129E+04  4.53220E+04  1.94659E+04  1.59474E+04  4.38135E+04
 -1.62211E+04  3.25473E+04 -2.48662E+04  1.67131E+03 -9.79794E+03 -2.77728E+04  2.09464E+04 -3.30040E+04
  3.97200E+04 -8.44515E+03  3.52045E+04  2.27234E+04  1.80053E+04  4.56850E+04 -8.02781E+03  4.96512E+04
 -3.10100E+04  3.25135E+04 -4.06361E+04  9.91674E+03 -4.18612E+04 -1.66597E+04 -2.30378E+04 -3.75373E+04
  6.93908E+03 -3.69876E+04  3.16802E+04 -1.34584E+04  2.84569E+04  1.07085E+04  3.88692E+03  1.87041E+04
 -1.39466E+04  8.49600E+03 -1.01626E+04 -7.66502E+03  5.43884E+03 -1.03617E+04  1.71724E+04  5.94810E+03
  1.32330E+04  2.15317E+04 -6.00001E+03  2.46759E+04 -2.17425E+04  1.14311E+04 -2.77303E+04 -4.70878E+03
 -2.01489E+04 -1.75847E+04 -8.07046E+03 -1.98486E+04  3.75841E+03 -1.84753E+04  1.52197E+04 -1.78191E+04
  2.49835E+04 -1.33014E+04  3.15601E+04  2.27092E+03  2.32241E+04  1.91532E+04  3.91259E+03  3.53715E+04
 -1.77080E+04  2.94812E+04 -2.75396E+04  9.73712E+03 -2.06274E+04 -1.02129E+04 -4.13262E+03 -1.38974E+04
  1.96212E+03 -2.95845E+03 -4.27475E+03  6.52474E+03 -1.59912E+04  4.77104E+03 -1.59930E+04 -6.70626E+03
 -9.82843E+03 -1.84138E+04  5.64947E+03 -2.18693E+04  1.52096E+04 -1.62650E+04  1.77566E+04 -8.82572E+02
  1.08530E+04  1.26215E+04 -1.27711E+03  1.85188E+04 -1.26827E+04  1.04091E+04 -1.80382E+04 -3.56314E+03
 -1.31891E+04 -1.69846E+04 -1.97090E+03 -2.19570E+04  9.50314E+03 -1.79915E+04  1.89827E+04 -8.81928E+03
  1.74150E+04  5.04792E+02  1.20917E+04  4.66875E+03  5.72219E+03  1.34132E+03  9.31196E+03 -1.59237E+03
  1.68309E+04  2.79137E+03  1.81230E+04  1.46308E+04  1.21037E+04  2.93302E+04 -2.86108E+03  3.29659E+04
 -1.91387E+04  2.58984E+04 -3.00899E+04  1.24481E+04 -3.17009E+04 -2.12108E+03 -2.60655E+04 -1.87014E+04
 -1.19567E+04 -2.67331E+04  8.81827E+03 -2.39638E+04  2.04450E+04 -1.26991E+04  1.86825E+04  5.13129E+03
  6.97785E+03  1.36938E+04 -8.25764E+03  1.26888E+04 -1.50203E+04  2.67315E+03 -1.17290E+04 -9.19839E+03
  7.09600E+01 -1.50502E+04  7.65691E+03 -1.08830E+04  9.92025E+03 -1.68404E+03  2.01618E+03  6.79954E+03
 -6.42694E+03  2.29376E+03 -5.38377E+03 -5.18572E+03 -3.15510E+02 -1.27737E+04  9.37631E+03 -1.39268E+04
  1.59342E+04 -6.73366E+03  1.68428E+04  2.83128E+03  1.51360E+04  1.25117E+04  6.86374E+03  1.92254E+04
 -3.17534E+03  2.09660E+04 -1.27548E+04  1.36124E+04 -1.50201E+04  3.81575E+03 -1.10807E+04 -3.96822E+03
 -5.05843E+03 -3.74541E+03 -5.35811E+02  4.42321E+02 -2.63846E+03  3.34120E+03 -4.61480E+03  4.40964E+03
 -9.90195E+03 -8.20325E+02 -1.09130E+04 -8.75084E+03 -3.92673E+03 -1.40935E+04  5.23195E+03 -1.04491E+04
  8.76129E+03 -4.75405E+03  6.80198E+03  2.35880E+03 -2.20068E+02  3.99763E+03 -4.81868E+03  2.58000E+01
 -4.75909E+03 -6.16707E+03 -7.51630E+02 -9.74439E+03  5.22071E+03 -1.03381E+04  1.28473E+04 -5.68690E+03
  1.54093E+04  9.78913E+02  1.18646E+04  8.82165E+03  2.55680E+03  1.16955E+04 -6.34145E+03  1.03489E+04
 -9.03801E+03  3.06211E+03 -3.97054E+03 -1.84629E+03  1.95448E+03 -2.83729E+03  5.68984E+03 -1.26394E+03
  5.54953E+03  3.97808E+03  1.27530E+03  8.37696E+03 -6.40862E+03  8.01069E+03 -1.09441E+04  2.26064E+03
 -6.35789E+03 -5.41054E+03  1.58261E+02 -9.03258E+03  5.25905E+03 -4.14447E+03  5.28882E+03  1.31288E+03
  1.10105E+03  5.16270E+03 -5.64030E+03  6.66946E+03 -7.33632E+03  3.19297E+03 -7.39640E+03 -2.46806E+03
 -4.10982E+03 -8.91395E+03  2.45433E+03 -1.09969E+04  8.86762E+03 -6.30781E+03  9.70727E+03  2.06781E+03
  6.44588E+03  8.08872E+03 -8.94509E+02  9.50461E+03 -6.82638E+03  5.45132E+03 -7.35690E+03 -1.25780E+03
 -7.67637E+03 -6.79624E+03 -9.76098E+02 -7.03587E+03  3.51928E+03 -6.28647E+03  4.55829E+03 -3.25857E+03
  3.50693E+03  8.46680E+02 -5.45515E+01  1.69779E+03  2.22662E+02 -1.57984E+03  9.08426E+02 -3.52744E+03
  6.26414E+03 -1.47818E+03  8.35932E+03  1.47727E+03  8.05825E+03  5.45513E+03  6.08206E+03  1.10181E+04
 -2.32824E+03  1.25936E+04 -1.08864E+04  9.31081E+03 -1.42888E+04  1.62869E+03 -1.14280E+04 -4.58442E+03
 -6.34675E+03 -9.76139E+03 -8.22500E+02 -8.02645E+03  3.24546E+03 -3.31186E+03  2.44038E+03 -3.00920E+03
  2.11153E+03 -1.97390E+03  2.56666E+03 -3.15465E+03  3.90608E+03 -1.57518E+03  4.42317E+03 -3.50500E+02
  6.36802E+03  1.12111E+03  2.58653E+03  5.10247E+03 -1.24921E+03  5.70661E+03 -6.53371E+03  3.77489E+03
 -7.17827E+03 -1.12626E+03 -3.94511E+03 -5.40278E+03 -2.62380E+02 -7.85961E+03  4.70802E+03 -7.84643E+03
  8.87381E+03 -4.22649E+03  9.15834E+03  8.90062E+02  7.00120E+03  6.39776E+03  1.27424E+03  9.17258E+03
 -3.56891E+03  7.90681E+03 -5.08426E+03  2.64237E+03 -4.00471E+03 -1.08776E+03 -1.59507E+03 -7.49704E+02
 -5.39486E+02  7.32148E+02 -1.41002E+03  2.72683E+03 -3.65947E+03  1.69235E+03 -6.08745E+03 -1.06650E+03
 -3.85489E+03 -5.51381E+03  1.82588E+02 -7.56094E+03  5.05942E+03 -6.37311E+03  6.41760E+03 -2.28465E+03
  7.14649E+03  3.56301E+03  2.68512E+03  5.37069E+03 -1.12431E+03  7.58973E+03 -5.60652E+03  3.80892E+03
 -6.88441E+03  7.00196E+02 -5.28335E+03 -4.27236E+03 -6.85667E+01 -4.94901E+03  3.58304E+03 -3.91038E+03
  4.31569E+03 -2.26684E+03  2.83700E+03  2.50005E+02  1.23091E+03  2.25522E+03  9.69744E+02  1.36759E+03
  2.14489E+03  4.59339E+02  1.28564E+03  1.32325E+03  2.02776E+03  3.21295E+03  2.57135E+03  4.11349E+03
 -1.37134E+03  5.13230E+03 -4.12452E+03  6.17391E+03 -6.08077E+03  2.19782E+03 -7.28398E+03 -1.84101E+03
 -2.78343E+03 -6.37688E+03  1.16682E+03 -7.51012E+03  3.73916E+03 -4.91948E+03  5.67167E+03 -1.03384E+03
  4.51829E+03  2.18256E+03  8.32716E+02  4.30875E+03 -1.26059E+03  2.49117E+03 -2.26823E+03 -2.58348E+02
 -1.57865E+03 -2.73303E+03  1.76253E+03 -2.92972E+03  2.93567E+03 -1.30628E+03  2.35265E+03  8.70684E+01
  1.11402E+03  1.39782E+03  5.59880E+02  5.73396E+02 -2.41668E+02  1.34216E+03  1.83763E+03  1.79616E+02
  9.53862E+02 -1.25238E+02  2.59041E+03  1.19396E+03  9.73003E+02  3.76592E+03  4.64324E+01  4.81580E+03
 -3.31366E+03  2.31658E+03 -3.86101E+03  1.05625E+03 -3.79502E+03 -1.48636E+03 -7.15308E+02 -2.05712E+03
  1.14417E+03 -2.84571E+03  1.63396E+03 -1.21528E+03  1.35227E+03  1.76310E+03 -2.22517E+02  1.87098E+03
 -2.39879E+03  1.38121E+03 -2.44211E+03 -2.53228E+03 -1.42621E+03 -3.65425E+03 -1.56332E+02 -3.15624E+03
  1.28505E+03 -1.39951E+03  1.72812E+03  7.05710E+02  1.74303E+03  6.28893E+02 -1.29545E+02  1.79254E+03
 -7.81601E+02  9.78723E+02 -1.26304E+03 -9.56394E+02  9.99761E+02 -2.31536E+03  2.79384E+03 -1.64962E+03
  2.76773E+03  7.30869E+02  4.31556E+03  1.81635E+03  1.49265E+03  2.93145E+03 -6.66250E+02  3.32961E+03
 -2.56814E+03  8.66064E+02 -3.12106E+03 -1.05068E+02 -1.35423E+03 -2.58920E+03  3.38207E+02 -1.51586E+03
  3.13164E+03 -1.22858E+03  1.34411E+03  8.51700E+02  3.28988E+02  2.11971E+03  2.76136E+02  1.93122E+03
 -1.61224E+03  1.41943E+03 -5.96926E+02  1.32868E+02  5.53178E+02  9.30329E+02 -1.01219E+03  7.48063E+02
 -8.15339E+02  1.53659E+03 -3.11166E+03  1.23360E+03 -3.03754E+03  1.18780E+02 -4.13476E+03 -1.77577E+03
 -1.81791E+03 -5.01403E+03  1.00510E+03 -5.47360E+03  2.70437E+03 -4.56159E+03  4.98003E+03 -2.20768E+03
  4.97146E+03  6.24348E+02  2.59136E+03  3.35258E+03 -2.49345E+02  3.53753E+03 -1.60513E+03  2.82164E+03
 -1.99639E+03  1.43044E+03 -6.40114E+02 -6.92535E+02 -6.41526E+02 -2.73174E+02 -1.12216E+03  2.37420E+02
 -8.25300E+02 -4.01546E+01 -9.33398E+02  4.47525E+02  3.14293E+02 -9.80268E+02 -4.60783E+02 -1.31205E+03
  2.30119E+03 -1.79650E+03  1.53080E+03 -3.69250E+01  2.61004E+03  2.34636E+03  7.78825E+02  3.28468E+03
 -1.83579E+03  3.45988E+03 -3.29431E+03  1.75018E+03 -3.95952E+03 -9.21591E+02 -3.03302E+03 -2.34253E+03
 -1.77558E+03 -2.91593E+03  1.08983E+03 -2.71167E+03  1.93567E+03 -1.89610E+03  1.30611E+03  5.84967E+02
  1.34427E+03  7.86060E+02 -3.82313E+02  6.99395E+02 -5.40106E+02 -2.41659E+02 -5.88163E+01 -8.28335E+02
  9.79606E+02 -7.11324E+02  8.12609E+02  5.80659E+02  1.71214E+02  6.71909E+02  4.75831E+02  5.79235E+02
 -7.04617E+02  1.13457E+03 -1.90020E+03  4.77103E+02 -2.04939E+03 -1.51319E+03  1.68311E+02 -3.20153E+03
  1.67796E+03 -2.02368E+03  1.68844E+03 -9.17023E+02  2.15722E+03  5.13121E+02  1.00602E+03  2.16527E+03
  4.76724E+02  1.61501E+03 -5.22547E+02  1.59750E+03 -1.34364E+03  9.06378E+02 -1.02282E+03  4.78475E+01
 -5.81239E+02 -1.00711E+02 -8.32780E+02  2.44166E+02 -3.59468E+02  1.04683E+03 -1.80868E+03 -4.95429E+02
 -1.50279E+03 -4.63722E+02 -1.67155E+02 -1.72386E+03  5.37383E+02 -2.24856E+03  1.63951E+03 -9.06344E+02
  2.09115E+03 -6.14624E+01  4.13037E+02  9.82168E+02 -2.91355E+01  2.40211E+03 -1.25216E+03  1.62024E+03
