 $NMID ID='MM_0lb_SNR400_13hz_g55_91.RAW', FMTDAT='(8E13.5)'
 TRAMP=1., VOLUME=1. $END
  3.09226E+05  9.38679E+02  3.37651E+05  2.50410E+05  8.53094E+04  3.38640E+05 -1.32840E+05  2.50343E+05
 -1.90589E+05  8.30928E+04 -1.12038E+05 -3.22618E+04  2.93322E+02 -5.02568E+04  5.39207E+04 -7.90324E+02
  3.61761E+04  5.26843E+04 -1.62197E+04  7.55402E+04 -6.07695E+04  6.33408E+04 -8.48169E+04  3.28733E+04
 -8.17398E+04 -1.17518E+04 -5.73419E+04 -5.18855E+04 -1.56127E+04 -6.98744E+04  2.79761E+04 -4.59715E+04
  4.08830E+04  3.66215E+03  1.67652E+04  4.74443E+04 -3.44313E+04  4.75115E+04 -6.69301E+04 -4.05409E+01
 -5.44252E+04 -5.74515E+04 -7.56464E+03 -7.78196E+04  3.37174E+04 -5.54805E+04  4.83255E+04 -1.79440E+04
  4.38450E+04  1.16376E+04  3.26333E+04  2.54386E+04  1.66222E+04  2.99103E+04 -5.81088E+03  2.70839E+04
 -2.23110E+04  1.18124E+04 -1.78734E+04 -5.39434E+03  6.30266E+03 -7.67561E+03  2.26965E+04  1.27888E+04
  6.76660E+03  3.64162E+04 -3.26377E+04  3.58541E+04 -6.42411E+04  1.38279E+03 -5.73672E+04 -4.32881E+04
 -1.22647E+04 -6.42415E+04  4.08826E+04 -4.65293E+04  5.94806E+04 -2.58655E+03  3.49668E+04  3.36801E+04
 -5.59395E+03  3.70000E+04 -3.08179E+04  1.72841E+04 -3.14170E+04 -4.48207E+03 -1.71952E+04 -1.07683E+04
 -8.67558E+03 -1.40150E+04 -9.48427E+02 -1.81902E+04  8.29866E+03 -2.38062E+04  1.63540E+04 -1.27875E+04
  1.07102E+04  5.40203E+03 -9.39171E+03  1.28645E+04 -2.21132E+04 -4.93837E+03 -8.43220E+03 -3.58453E+04
  2.37811E+04 -4.42501E+04  5.02524E+04 -2.09906E+04  4.68156E+04  2.05982E+04  1.63607E+04  4.58398E+04
 -1.65797E+04  3.42511E+04 -2.62407E+04  1.86457E+03 -1.03595E+04 -2.82168E+04  2.10948E+04 -3.51629E+04
  4.27009E+04 -1.04528E+04  3.71890E+04  2.43327E+04  1.90768E+04  4.81090E+04 -8.24008E+03  5.26108E+04
 -3.33635E+04  3.54212E+04 -4.41223E+04  1.01800E+04 -4.35074E+04 -1.69638E+04 -2.46511E+04 -3.88074E+04
  7.52829E+03 -3.95727E+04  3.26660E+04 -1.49582E+04  3.03635E+04  1.12266E+04  4.71717E+03  2.02393E+04
 -1.41649E+04  9.04368E+03 -1.03330E+04 -7.45297E+03  6.08078E+03 -1.11998E+04  1.85100E+04  5.91460E+03
  1.34616E+04  2.28412E+04 -5.65452E+03  2.56499E+04 -2.32023E+04  1.28978E+04 -2.95195E+04 -3.72503E+03
 -2.17890E+04 -1.74541E+04 -8.88464E+03 -2.20531E+04  5.05414E+03 -2.18565E+04  1.70126E+04 -2.02355E+04
  2.86986E+04 -1.31110E+04  3.50803E+04  3.14417E+03  2.47777E+04  2.16326E+04  4.17452E+03  3.80808E+04
 -1.91232E+04  3.12076E+04 -2.81350E+04  1.02658E+04 -2.12336E+04 -1.04313E+04 -4.83864E+03 -1.37238E+04
  2.16230E+03 -2.52627E+03 -6.49268E+03  6.81943E+03 -1.71940E+04  5.75567E+03 -1.79987E+04 -7.36474E+03
 -1.08623E+04 -2.06271E+04  5.32241E+03 -2.49252E+04  1.56988E+04 -1.77546E+04  1.93434E+04 -1.87488E+03
  1.23795E+04  1.40079E+04 -1.01583E+03  2.00117E+04 -1.43861E+04  1.17465E+04 -1.97994E+04 -4.21946E+03
 -1.52421E+04 -1.84688E+04 -1.79350E+03 -2.45144E+04  1.12879E+04 -1.99807E+04  2.09075E+04 -1.02981E+04
  1.94971E+04 -2.30200E+02  1.40848E+04  4.57288E+03  7.22944E+03  1.18780E+03  1.03087E+04 -1.78916E+03
  1.87755E+04  2.44587E+03  2.14381E+04  1.61638E+04  1.44984E+04  3.16999E+04 -2.77752E+03  3.73206E+04
 -2.13289E+04  3.05795E+04 -3.46188E+04  1.55679E+04 -3.76525E+04 -2.02570E+03 -3.06348E+04 -2.13936E+04
 -1.17501E+04 -3.03411E+04  1.09277E+04 -2.72900E+04  2.32243E+04 -1.32695E+04  2.06943E+04  5.72378E+03
  6.68056E+03  1.55140E+04 -9.67044E+03  1.32744E+04 -1.69932E+04  3.19143E+03 -1.27806E+04 -1.09195E+04
 -7.49074E+02 -1.69111E+04  8.51606E+03 -1.23353E+04  1.10349E+04 -1.80684E+03  2.88345E+03  7.36084E+03
 -7.14651E+03  2.71162E+03 -6.44979E+03 -6.75008E+03 -8.04425E+02 -1.49484E+04  9.87882E+03 -1.61487E+04
  1.86674E+04 -8.05884E+03  2.10168E+04  3.14946E+03  1.71369E+04  1.50944E+04  8.29929E+03  2.34826E+04
 -4.19488E+03  2.49795E+04 -1.60944E+04  1.53875E+04 -1.82262E+04  3.44940E+03 -1.21564E+04 -4.02815E+03
 -5.60454E+03 -5.85483E+03 -9.48889E+02  4.49826E+02 -3.21096E+03  3.22304E+03 -6.58690E+03  4.48967E+03
 -1.19702E+04 -7.01397E+02 -1.23565E+04 -9.80309E+03 -4.87337E+03 -1.63160E+04  5.27297E+03 -1.28747E+04
  1.02575E+04 -5.31217E+03  7.74182E+03  3.17252E+03  2.04320E+02  4.56386E+03 -5.79076E+03 -5.59860E+01
 -5.81996E+03 -7.43751E+03 -3.42941E+02 -1.19168E+04  6.63594E+03 -1.25941E+04  1.57373E+04 -6.73404E+03
  1.86571E+04  1.89137E+03  1.37591E+04  1.11065E+04  2.43569E+03  1.47034E+04 -7.84319E+03  1.22904E+04
 -1.01770E+04  3.79491E+03 -6.17163E+03 -2.32990E+03  2.24017E+03 -2.90901E+03  6.44518E+03 -6.56404E+02
  6.12942E+03  5.01210E+03  1.33766E+03  9.95442E+03 -7.10480E+03  9.32690E+03 -1.20353E+04  2.23868E+03
 -8.18378E+03 -6.11649E+03 -5.96501E+01 -1.08305E+04  6.43957E+03 -5.51911E+03  6.91528E+03  2.31952E+03
  1.49266E+03  6.58473E+03 -6.35600E+03  8.67678E+03 -1.02219E+04  3.91852E+03 -9.04775E+03 -3.41979E+03
 -5.47478E+03 -1.16825E+04  2.66090E+03 -1.25182E+04  1.11179E+04 -8.38365E+03  1.27150E+04  2.50416E+03
  7.62771E+03  9.80539E+03 -9.46022E+02  1.20862E+04 -8.99907E+03  6.53071E+03 -9.55212E+03 -7.41849E+02
 -8.07073E+03 -8.18680E+03 -1.85409E+03 -9.14561E+03  3.90009E+03 -7.87383E+03  5.49151E+03 -3.45783E+03
  3.81052E+03  1.58383E+03 -7.38492E+02  1.28498E+03  9.53809E+01 -1.51527E+03  1.68255E+03 -4.69095E+03
  8.09422E+03 -2.85989E+03  1.09510E+04  1.49020E+03  1.01330E+04  7.29138E+03  7.82853E+03  1.44707E+04
 -3.05746E+03  1.68693E+04 -1.34459E+04  1.25364E+04 -1.82758E+04  1.94657E+03 -1.49464E+04 -5.33605E+03
 -7.46373E+03 -1.15433E+04 -1.04948E+03 -1.02787E+04  3.98413E+03 -4.99884E+03  3.49123E+03 -3.63217E+03
  2.18944E+03 -1.98032E+03  2.96932E+03 -2.73117E+03  5.04657E+03 -2.45596E+03  6.50528E+03 -3.87388E+02
  7.65257E+03  1.64058E+03  3.19080E+03  6.92413E+03 -1.56558E+03  7.49606E+03 -7.72479E+03  5.29904E+03
 -9.74966E+03 -1.34671E+03 -5.03297E+03 -6.78211E+03  3.23036E+02 -1.13259E+04  5.26089E+03 -1.01890E+04
  1.12741E+04 -5.93862E+03  1.28120E+04  1.55695E+03  9.44495E+03  9.51222E+03  1.81309E+03  1.19609E+04
 -4.60254E+03  1.02726E+04 -6.73507E+03  3.80823E+03 -4.99219E+03 -1.28619E+03 -1.40530E+03 -1.08630E+03
 -9.23672E+02  2.21735E+02 -2.00855E+03  2.24254E+03 -3.80255E+03  1.29537E+03 -6.65787E+03 -8.99384E+02
 -4.73729E+03 -7.27979E+03  2.01441E+02 -9.79646E+03  5.85106E+03 -9.00948E+03  9.11904E+03 -2.31010E+03
  9.02158E+03  4.94309E+03  3.77513E+03  8.20587E+03 -1.99045E+03  9.84648E+03 -6.36646E+03  6.38927E+03
 -8.96852E+03  5.94039E+02 -7.24185E+03 -5.23761E+03 -5.39933E+02 -7.33572E+03  3.45043E+03 -5.02795E+03
  5.85911E+03 -2.33291E+03  4.15552E+03  2.10092E+03  2.08559E+03  2.99125E+03  9.65654E+02  1.04893E+03
  2.76294E+03  1.21727E+03  2.38952E+03  1.90219E+03  2.22363E+03  3.44624E+03  3.23038E+03  4.64751E+03
 -1.99563E+03  7.40964E+03 -5.94336E+03  8.80734E+03 -8.92994E+03  2.52698E+03 -1.07266E+04 -2.63857E+03
 -4.47713E+03 -9.09095E+03  1.37170E+03 -1.07002E+04  5.65463E+03 -6.27160E+03  7.01531E+03 -2.51939E+03
  5.76812E+03  3.36822E+03  7.81912E+02  5.20378E+03 -2.18329E+03  3.40374E+03 -2.98704E+03 -5.82975E+02
 -9.59511E+02 -4.12512E+03  2.66077E+03 -3.91428E+03  3.37082E+03 -2.38318E+03  3.70356E+03  5.86758E+02
  2.13093E+03  2.12363E+03  1.16233E+03  1.34488E+03 -1.37041E+03  9.21361E+02  1.34722E+03 -7.79052E+02
  1.23070E+03 -7.98070E+02  3.02558E+03  1.37923E+03  1.91023E+03  4.65105E+03 -1.19466E+03  6.42339E+03
 -4.53116E+03  3.91717E+03 -5.37821E+03  2.00404E+03 -4.91437E+03 -1.99169E+03 -1.18532E+03 -3.59215E+03
  1.40837E+02 -2.92814E+03  1.51343E+03 -9.35925E+02  1.57989E+03  2.21440E+03 -1.18968E+03  2.79083E+03
 -3.89633E+03  1.57537E+03 -3.86931E+03 -2.11384E+03 -2.50120E+03 -5.07810E+03  1.15280E+03 -4.31959E+03
  3.18217E+03 -2.24469E+03  3.13224E+03 -4.09581E+02  3.73080E+03  1.59376E+03  1.05204E+03  2.96813E+03
 -1.93441E+03  1.03365E+03 -2.21408E+03 -1.21821E+03  7.97154E+02 -4.04628E+03  4.35432E+03 -3.10956E+03
  5.18289E+03  4.52848E+02  6.05782E+03  3.62490E+03  1.98528E+03  4.82303E+03 -1.59155E+03  4.86028E+03
 -4.30592E+03  1.15949E+03 -4.36855E+03 -1.01977E+03 -2.24740E+03 -2.89680E+03  9.39381E+02 -2.27055E+03
  2.97963E+03 -1.74531E+03  2.93377E+03  1.64296E+03  1.27183E+03  3.20302E+03 -1.91423E+02  3.02249E+03
 -1.20538E+03  1.33485E+03 -1.17916E+03  3.68916E+02  1.79534E+02  8.81081E+02 -1.37736E+03  1.06224E+03
 -1.28355E+03  2.41006E+03 -4.02676E+03  1.48325E+03 -4.29253E+03 -2.80873E+02 -6.58157E+03 -2.77983E+03
 -3.08002E+03 -6.70962E+03  1.07322E+03 -7.36729E+03  4.77548E+03 -6.56771E+03  7.29251E+03 -2.49953E+03
  6.61208E+03  1.20253E+03  4.24917E+03  4.80846E+03  2.24592E+02  4.92537E+03 -1.62731E+03  3.98329E+03
 -2.50883E+03  1.65092E+03 -2.36434E+03 -8.29345E+02 -5.70156E+02 -5.07018E+02 -1.01714E+03 -5.36833E+01
 -1.61956E+03  1.65061E+02 -1.63552E+03  1.16577E+02 -2.96094E+02 -1.73412E+03 -3.82099E+02 -2.85020E+03
  2.80004E+03 -2.20883E+03  2.80194E+03  4.34754E+02  3.26087E+03  2.35761E+03  4.68834E+02  5.12622E+03
 -2.41761E+03  6.50981E+03 -5.11013E+03  3.61341E+03 -6.48055E+03 -9.62225E+02 -4.45810E+03 -4.00097E+03
 -1.94597E+03 -5.26008E+03  1.55623E+03 -4.28235E+03  3.22064E+03 -3.15656E+03  3.40636E+03  5.29299E+01
  2.00997E+03  1.32575E+03 -1.38575E+02  8.65227E+02 -8.68157E+02 -3.73285E+02  9.76128E+01 -1.48543E+02
  1.33560E+03 -6.79147E+02  2.25964E+03  9.81605E+02  7.00340E+02  1.73053E+03  5.28242E+02  2.18315E+03
 -1.62761E+03  2.34255E+03 -2.48968E+03 -1.68087E+02 -2.90631E+03 -2.07038E+03 -2.98592E+02 -3.47520E+03
  2.59572E+03 -3.34572E+03  3.07600E+03 -5.78271E+02  3.55787E+03  7.44118E+02  2.08128E+03  3.10422E+03
  1.27371E+03  3.05350E+03 -1.52656E+03  2.25375E+03 -1.90687E+03  1.44172E+03 -1.32805E+03  1.44990E+03
 -7.37551E+02 -1.02400E+02 -7.89922E+02  7.24791E+02 -1.19762E+03  8.37985E+02 -2.12474E+03 -7.86351E+02
 -3.17950E+03 -1.06542E+03 -3.16413E+02 -2.32916E+03  1.13680E+03 -3.53705E+03  2.99324E+03 -1.79025E+03
  2.80699E+03  4.58081E+02  1.01409E+03  2.19180E+03 -3.79748E+02  3.23244E+03 -2.21880E+03  2.08199E+03
