 $NMID ID='MM_0lb_SNR400_11hz_g40_65.RAW', FMTDAT='(8E13.5)'
 TRAMP=1., VOLUME=1. $END
  3.09481E+05  5.75203E+01  3.37675E+05  2.51171E+05  8.49347E+04  3.38557E+05 -1.32502E+05  2.51787E+05
 -1.90492E+05  8.36952E+04 -1.11899E+05 -3.26949E+04  5.00812E+00 -5.01770E+04  5.41367E+04 -2.32486E+02
  3.56806E+04  5.27228E+04 -1.60879E+04  7.56680E+04 -6.04621E+04  6.39970E+04 -8.50035E+04  3.26510E+04
 -8.14354E+04 -1.12081E+04 -5.74557E+04 -5.15756E+04 -1.56925E+04 -6.97372E+04  2.78051E+04 -4.60138E+04
  4.06236E+04  4.30381E+03  1.56949E+04  4.74670E+04 -3.51847E+04  4.84859E+04 -6.70761E+04  3.03655E+02
 -5.40346E+04 -5.70036E+04 -7.20573E+03 -7.75418E+04  3.40382E+04 -5.63007E+04  4.81250E+04 -1.76100E+04
  4.43515E+04  1.09872E+04  3.17828E+04  2.64514E+04  1.56038E+04  2.97396E+04 -4.80913E+03  2.73614E+04
 -2.21127E+04  1.21163E+04 -1.74502E+04 -5.14851E+03  5.78402E+03 -7.27778E+03  2.24704E+04  1.30113E+04
  6.39963E+03  3.60001E+04 -3.25684E+04  3.64497E+04 -6.42839E+04  2.00682E+03 -5.76437E+04 -4.36022E+04
 -1.28472E+04 -6.38464E+04  4.11265E+04 -4.58593E+04  5.92957E+04 -2.42848E+03  3.52095E+04  3.30181E+04
 -5.63630E+03  3.68969E+04 -3.06080E+04  1.74688E+04 -3.23885E+04 -3.70836E+03 -1.81417E+04 -1.15219E+04
 -8.76515E+03 -1.36338E+04 -6.71425E+02 -1.84461E+04  8.55426E+03 -2.35186E+04  1.56361E+04 -1.32676E+04
  1.07922E+04  5.79771E+03 -8.92004E+03  1.30066E+04 -2.17662E+04 -5.20575E+03 -8.47050E+03 -3.42360E+04
  2.36438E+04 -4.50104E+04  4.90721E+04 -1.95752E+04  4.70240E+04  1.97552E+04  1.71699E+04  4.59866E+04
 -1.57420E+04  3.36509E+04 -2.55674E+04  2.17161E+03 -1.07977E+04 -2.89527E+04  2.01433E+04 -3.55987E+04
  4.17128E+04 -9.55807E+03  3.76583E+04  2.34457E+04  1.86869E+04  4.78096E+04 -7.92070E+03  5.22199E+04
 -3.32342E+04  3.59365E+04 -4.36933E+04  9.61151E+03 -4.47401E+04 -1.68756E+04 -2.41676E+04 -3.94338E+04
  6.97381E+03 -3.91801E+04  3.25721E+04 -1.46387E+04  3.06348E+04  1.08713E+04  4.33962E+03  1.93734E+04
 -1.40988E+04  8.35888E+03 -1.06908E+04 -6.94487E+03  6.17105E+03 -1.03143E+04  1.82875E+04  6.61591E+03
  1.36851E+04  2.24589E+04 -5.40592E+03  2.58535E+04 -2.23019E+04  1.23132E+04 -2.92783E+04 -4.19295E+03
 -2.25624E+04 -1.78298E+04 -9.99643E+03 -2.21384E+04  4.03882E+03 -2.18715E+04  1.64579E+04 -2.02615E+04
  2.84373E+04 -1.37170E+04  3.41331E+04  4.26957E+03  2.48877E+04  2.15831E+04  4.50665E+03  3.83295E+04
 -1.86535E+04  3.22802E+04 -2.87274E+04  1.15704E+04 -2.10313E+04 -1.03042E+04 -4.88066E+03 -1.32354E+04
  1.43306E+03 -2.33981E+03 -5.89493E+03  7.17932E+03 -1.76576E+04  5.58007E+03 -1.79679E+04 -7.71468E+03
 -1.08163E+04 -2.08262E+04  4.86627E+03 -2.49439E+04  1.67161E+04 -1.70773E+04  2.08039E+04 -1.54927E+03
  1.27674E+04  1.40995E+04 -1.67839E+03  2.05255E+04 -1.47004E+04  1.20051E+04 -2.06519E+04 -4.41314E+03
 -1.56310E+04 -1.83172E+04 -2.27531E+03 -2.50776E+04  1.08742E+04 -2.13591E+04  2.08615E+04 -1.06640E+04
  1.93272E+04 -5.22475E+00  1.37149E+04  4.42209E+03  8.16299E+03  9.16420E+02  1.03357E+04 -1.61077E+03
  1.93355E+04  2.44499E+03  2.18313E+04  1.59304E+04  1.44590E+04  3.35358E+04 -2.93482E+03  3.75170E+04
 -2.15019E+04  3.21782E+04 -3.60525E+04  1.61640E+04 -3.81138E+04 -2.74891E+03 -3.16588E+04 -2.19239E+04
 -1.28063E+04 -3.24546E+04  1.07718E+04 -2.79356E+04  2.34968E+04 -1.36892E+04  2.15264E+04  7.16387E+03
  7.54061E+03  1.56131E+04 -1.01558E+04  1.41203E+04 -1.75945E+04  2.08710E+03 -1.32928E+04 -1.11028E+04
 -1.42023E+02 -1.71879E+04  9.37365E+03 -1.24080E+04  1.09556E+04 -1.10671E+03  2.40547E+03  7.64561E+03
 -8.06520E+03  4.23238E+03 -7.67938E+03 -6.21860E+03 -1.53595E+03 -1.53428E+04  1.04881E+04 -1.67115E+04
  1.89416E+04 -8.71025E+03  2.10181E+04  2.88844E+03  1.89024E+04  1.53771E+04  9.02549E+03  2.37268E+04
 -3.77134E+03  2.60202E+04 -1.67631E+04  1.60568E+04 -1.82869E+04  3.18107E+03 -1.29249E+04 -4.48304E+03
 -5.82205E+03 -5.39966E+03 -5.61353E+02  1.38671E+03 -3.14052E+03  2.88682E+03 -5.90359E+03  4.88742E+03
 -1.21045E+04 -8.71366E+02 -1.30073E+04 -1.08375E+04 -4.67664E+03 -1.69922E+04  5.31747E+03 -1.37244E+04
  1.06159E+04 -5.57485E+03  8.45462E+03  3.30341E+03 -1.99627E+02  5.71730E+03 -6.28529E+03 -6.21732E+02
 -6.24411E+03 -8.20009E+03 -1.36015E+03 -1.25215E+04  6.70555E+03 -1.34668E+04  1.60323E+04 -6.92498E+03
  1.94997E+04  2.48082E+03  1.39730E+04  1.15263E+04  2.58607E+03  1.49036E+04 -8.00732E+03  1.30218E+04
 -1.11355E+04  3.95842E+03 -5.75198E+03 -2.87434E+03  2.84690E+03 -3.54879E+03  6.42749E+03 -1.03615E+03
  6.47217E+03  6.06183E+03  1.22311E+03  9.99428E+03 -8.12918E+03  1.04614E+04 -1.31221E+04  2.90343E+03
 -8.71832E+03 -7.15750E+03  8.29389E+02 -1.14205E+04  7.28597E+03 -5.93253E+03  6.93307E+03  2.91360E+03
  1.92421E+03  7.43791E+03 -6.44426E+03  8.52338E+03 -1.08904E+04  4.20347E+03 -1.00926E+04 -4.08103E+03
 -6.20149E+03 -1.27538E+04  3.33911E+03 -1.33417E+04  1.20522E+04 -8.30700E+03  1.30513E+04  2.55862E+03
  7.72346E+03  1.09427E+04 -1.74604E+03  1.30123E+04 -1.02994E+04  7.61655E+03 -1.02866E+04 -1.00626E+03
 -9.25369E+03 -8.01849E+03 -1.64591E+03 -9.89957E+03  4.59615E+03 -8.11206E+03  5.89092E+03 -3.63035E+03
  3.91387E+03  1.62521E+03 -4.61175E+02  1.52435E+03 -4.43330E+02 -1.81064E+03  1.90666E+03 -5.15022E+03
  8.82124E+03 -3.45189E+03  1.19583E+04  1.44083E+03  1.16207E+04  7.76516E+03  8.53743E+03  1.58131E+04
 -3.63111E+03  1.88727E+04 -1.59478E+04  1.35141E+04 -2.02293E+04  2.91068E+03 -1.67543E+04 -6.56570E+03
 -7.91686E+03 -1.33159E+04 -5.31722E+02 -1.18378E+04  4.61037E+03 -6.24743E+03  4.06452E+03 -4.28235E+03
  3.44322E+03 -2.26743E+03  3.28244E+03 -2.74751E+03  4.96039E+03 -3.41468E+03  6.93024E+03 -4.29827E+02
  8.40210E+03  1.72707E+03  3.78204E+03  7.45086E+03 -2.19866E+03  7.71812E+03 -8.98490E+03  6.92674E+03
 -1.15093E+04 -1.11892E+03 -7.22059E+03 -8.08237E+03 -9.00632E+02 -1.23081E+04  6.79708E+03 -1.24889E+04
  1.28671E+04 -6.67441E+03  1.41863E+04  1.94519E+03  1.03462E+04  9.68136E+03  1.22790E+03  1.29618E+04
 -4.96108E+03  1.09729E+04 -7.40890E+03  3.38912E+03 -5.49123E+03 -2.49777E+03 -2.68027E+03 -1.93393E+03
 -1.07406E+03 -8.69060E+02 -1.69364E+03  2.41750E+03 -4.82684E+03  2.03455E+03 -7.97143E+03 -1.26817E+03
 -5.29748E+03 -7.64873E+03  2.82906E+02 -1.15423E+04  6.73772E+03 -1.04463E+04  1.00794E+04 -2.97150E+03
  1.01352E+04  6.00393E+03  4.88116E+03  9.58929E+03 -1.80631E+03  1.12048E+04 -7.43662E+03  6.63128E+03
 -1.03121E+04  1.09130E+02 -8.00674E+03 -6.68902E+03 -3.78139E+02 -9.81003E+03  5.03180E+03 -6.76509E+03
  6.64217E+03 -2.03477E+03  4.78050E+03  1.76910E+03  1.96977E+03  2.12216E+03  1.49656E+03  1.46785E+03
  3.10382E+03  1.25836E+03  2.25250E+03  7.53037E+02  2.46046E+03  3.86484E+03  2.36652E+03  5.23114E+03
 -2.74645E+03  8.20758E+03 -7.90164E+03  9.28135E+03 -1.05822E+04  2.91427E+03 -1.16102E+04 -3.81114E+03
 -5.72853E+03 -1.05830E+04  1.31647E+03 -1.16747E+04  6.43544E+03 -7.39648E+03  8.65674E+03 -1.29772E+03
  6.93345E+03  4.26508E+03  1.60946E+03  6.32388E+03 -3.16079E+03  4.02702E+03 -4.11031E+03 -1.28086E+02
 -2.05225E+03 -4.68988E+03  2.58072E+03 -4.26286E+03  4.12467E+03 -2.44235E+03  4.21135E+03  1.13900E+03
  2.58039E+03  2.53962E+03  1.47302E+03  1.54978E+03 -9.10591E+02  1.94325E+03  7.16907E+02 -2.58022E+02
  1.88558E+03  2.19822E+01  4.83932E+03  1.39217E+03  1.60882E+03  6.28661E+03 -1.06824E+02  7.71946E+03
 -5.26559E+03  4.60733E+03 -6.71201E+03  5.22240E+02 -6.47129E+03 -2.81310E+03 -1.39448E+03 -3.98708E+03
  1.48950E+03 -4.24787E+03  2.72405E+03 -1.08787E+03  2.08548E+03  2.17233E+03 -1.21040E+03  3.43026E+03
 -4.51412E+03  2.34630E+03 -4.70410E+03 -2.57920E+03 -3.06669E+03 -5.36467E+03  6.60736E+02 -5.88129E+03
  3.56140E+03 -3.62356E+03  4.32305E+03 -4.70750E+02  3.87395E+03  1.50921E+03  4.14074E+02  3.19308E+03
 -2.23090E+03  1.28259E+03 -2.46937E+03 -2.31779E+03  1.22317E+03 -3.88649E+03  5.62883E+03 -3.62322E+03
  5.64024E+03  3.35518E+02  7.03153E+03  4.04031E+03  1.59805E+03  7.19623E+03 -3.65059E+03  6.71828E+03
 -5.13671E+03  2.55037E+03 -5.48344E+03 -9.61156E+02 -3.12290E+03 -4.57875E+03  1.61401E+03 -3.13024E+03
  4.38157E+03 -2.71068E+03  3.21918E+03  2.66630E+03  1.46715E+03  3.51524E+03  3.93321E+01  3.75225E+03
 -1.63380E+03  1.92097E+03 -1.49739E+03 -1.67485E+02 -5.59443E+02  7.22543E+02 -1.43200E+03  7.96075E+02
 -1.59203E+03  2.66644E+03 -4.88828E+03  1.71054E+03 -7.06094E+03  7.52825E+02 -7.31266E+03 -4.41259E+03
 -3.76562E+03 -8.90249E+03  2.03568E+03 -1.05642E+04  5.78213E+03 -8.16725E+03  1.01532E+04 -2.90160E+03
  8.96881E+03  1.52137E+03  5.84981E+03  6.27943E+03  9.12262E+02  7.32851E+03 -3.53435E+03  5.27609E+03
 -4.15431E+03  1.48165E+03 -2.49402E+03 -1.17136E+01 -1.11045E+03 -5.76197E+02 -1.92508E+02  1.07682E+02
 -1.33690E+03 -6.97421E+01 -1.92701E+03 -4.27842E+02 -2.20109E+01 -1.69131E+03  4.41147E+02 -2.74126E+03
  2.91062E+03 -2.62823E+03  3.44167E+03 -9.90098E+00  4.64416E+03  4.82750E+03  1.93864E+03  6.73660E+03
 -3.49464E+03  7.97299E+03 -7.70360E+03  4.49584E+03 -8.07447E+03 -4.05448E+02 -6.67989E+03 -4.34128E+03
 -3.10611E+03 -6.99354E+03  1.19629E+03 -6.68187E+03  3.80642E+03 -3.12430E+03  4.39621E+03  4.06328E+02
  2.93223E+03  1.96736E+03 -7.05227E+02  2.12832E+03 -1.06591E+03 -3.09870E+02  3.57678E+02 -7.80351E+02
  2.09965E+03 -1.47781E+03  2.57341E+03  1.26063E+03  1.63309E+03  2.74400E+03 -1.80885E+02  3.29198E+03
 -3.33955E+03  2.53082E+03 -4.20032E+03  4.31930E+02 -3.81390E+03 -3.53214E+03 -8.67643E+02 -5.14620E+03
  3.11350E+03 -4.23963E+03  4.79469E+03 -8.28948E+02  5.10953E+03  4.29920E+02  3.57298E+03  4.23924E+03
  4.95648E+02  4.83684E+03 -1.46035E+03  3.57145E+03 -2.55093E+03  2.25841E+03 -2.15060E+03  7.04663E+01
 -1.43190E+03 -3.04136E+02 -1.41512E+03 -1.37420E+02 -2.12215E+03  1.18949E+03 -3.98947E+03 -3.82429E+02
 -3.57198E+03 -2.53990E+03 -1.14315E+03 -4.81679E+03  2.85460E+03 -4.93329E+03  4.35796E+03 -2.55437E+03
  4.37128E+03  6.33465E+02  1.70121E+03  2.53053E+03 -5.70202E+02  4.94408E+03 -3.52529E+03  3.14711E+03
