 $NMID ID='MM_0lb_SNR400_16hz_g55_45.RAW', FMTDAT='(8E13.5)'
 TRAMP=1., VOLUME=1. $END
  3.10015E+05  3.73746E+02  3.37530E+05  2.50269E+05  8.46431E+04  3.37999E+05 -1.33058E+05  2.50620E+05
 -1.90128E+05  8.30054E+04 -1.11532E+05 -3.28310E+04  2.69547E+02 -5.05213E+04  5.38732E+04 -4.30281E+02
  3.52061E+04  5.30576E+04 -1.76757E+04  7.50977E+04 -6.10566E+04  6.36164E+04 -8.39648E+04  3.25248E+04
 -8.04940E+04 -1.16557E+04 -5.71626E+04 -5.12556E+04 -1.52160E+04 -6.96765E+04  2.78648E+04 -4.57891E+04
  3.98642E+04  4.04891E+03  1.58502E+04  4.71731E+04 -3.43381E+04  4.68981E+04 -6.64316E+04 -8.24957E+02
 -5.33465E+04 -5.62560E+04 -6.73644E+03 -7.75306E+04  3.41854E+04 -5.49061E+04  4.71987E+04 -1.69614E+04
  4.29054E+04  1.10515E+04  3.20688E+04  2.56689E+04  1.58239E+04  2.94185E+04 -4.69515E+03  2.69733E+04
 -2.23867E+04  1.29053E+04 -1.91612E+04 -5.05562E+03  5.41300E+03 -7.70182E+03  2.23136E+04  1.20094E+04
  7.03598E+03  3.44786E+04 -3.16707E+04  3.51394E+04 -6.32594E+04  2.02958E+03 -5.67449E+04 -4.28685E+04
 -1.27922E+04 -6.28419E+04  3.89790E+04 -4.50776E+04  5.78932E+04 -2.49463E+03  3.36832E+04  3.15730E+04
 -5.83752E+03  3.52447E+04 -2.96478E+04  1.54533E+04 -2.96117E+04 -4.56684E+03 -1.61787E+04 -1.08691E+04
 -8.11357E+03 -1.29739E+04 -1.15427E+03 -1.76206E+04  7.02057E+03 -2.32951E+04  1.53529E+04 -1.44273E+04
  1.17173E+04  5.38918E+03 -8.03444E+03  1.26552E+04 -2.07174E+04 -3.44378E+03 -8.46946E+03 -3.28331E+04
  2.24746E+04 -4.31705E+04  4.75096E+04 -1.94337E+04  4.45890E+04  1.94781E+04  1.56980E+04  4.33804E+04
 -1.60020E+04  3.30550E+04 -2.51317E+04  1.57725E+03 -9.88956E+03 -2.69778E+04  2.07048E+04 -3.32251E+04
  4.07002E+04 -8.83773E+03  3.45057E+04  2.33868E+04  1.74854E+04  4.63260E+04 -8.17263E+03  4.93480E+04
 -3.13503E+04  3.31714E+04 -4.11072E+04  9.58712E+03 -4.17652E+04 -1.63013E+04 -2.25705E+04 -3.71895E+04
  7.56195E+03 -3.69328E+04  3.10901E+04 -1.44512E+04  2.85040E+04  1.08734E+04  4.45769E+03  1.85311E+04
 -1.32337E+04  8.16232E+03 -1.01353E+04 -7.60231E+03  6.17864E+03 -1.02657E+04  1.74226E+04  6.21579E+03
  1.31069E+04  2.17241E+04 -6.47010E+03  2.46297E+04 -2.19457E+04  1.08139E+04 -2.74379E+04 -5.30524E+03
 -1.97593E+04 -1.70129E+04 -7.54180E+03 -1.95993E+04  3.87868E+03 -1.89136E+04  1.46989E+04 -1.77349E+04
  2.48941E+04 -1.27760E+04  3.19560E+04  2.52263E+03  2.27998E+04  1.88527E+04  4.38388E+03  3.51285E+04
 -1.78405E+04  2.96482E+04 -2.70752E+04  1.02307E+04 -2.05698E+04 -1.05226E+04 -4.48555E+03 -1.36850E+04
  1.86501E+03 -3.26548E+03 -4.28371E+03  7.18540E+03 -1.48719E+04  5.22286E+03 -1.55256E+04 -6.74859E+03
 -9.92721E+03 -1.84065E+04  4.91380E+03 -2.25100E+04  1.46620E+04 -1.59395E+04  1.72297E+04 -1.79023E+03
  1.04926E+04  1.27097E+04 -9.30157E+02  1.82284E+04 -1.25150E+04  1.05448E+04 -1.79633E+04 -4.14666E+03
 -1.35250E+04 -1.63909E+04 -1.41654E+03 -2.20456E+04  1.03890E+04 -1.80292E+04  1.79955E+04 -9.06986E+03
  1.70126E+04  3.44834E+02  1.22245E+04  4.63849E+03  6.67028E+03  2.75348E+02  9.30206E+03 -1.20047E+03
  1.64773E+04  2.10848E+03  1.81978E+04  1.43471E+04  1.17998E+04  2.88910E+04 -2.67686E+03  3.15947E+04
 -1.90652E+04  2.52793E+04 -2.96021E+04  1.33248E+04 -3.14273E+04 -1.87657E+03 -2.55592E+04 -1.76205E+04
 -1.18050E+04 -2.58043E+04  8.66030E+03 -2.31529E+04  2.03204E+04 -1.26818E+04  1.84100E+04  4.84835E+03
  6.95879E+03  1.31339E+04 -8.33511E+03  1.19277E+04 -1.50831E+04  2.46409E+03 -1.18545E+04 -9.53914E+03
 -1.55164E+02 -1.44541E+04  7.08941E+03 -1.07687E+04  9.70514E+03 -1.43861E+03  2.13857E+03  5.76600E+03
 -7.47044E+03  1.76822E+03 -5.88010E+03 -5.69283E+03 -4.98025E+02 -1.27770E+04  9.13016E+03 -1.28057E+04
  1.50849E+04 -6.66937E+03  1.59212E+04  3.07657E+03  1.33324E+04  1.16242E+04  6.68616E+03  1.85258E+04
 -3.06281E+03  2.03043E+04 -1.27737E+04  1.30949E+04 -1.41562E+04  3.13478E+03 -1.05436E+04 -3.14782E+03
 -4.35606E+03 -4.41798E+03 -4.63810E+02  6.17192E+02 -2.27822E+03  1.93092E+03 -4.84249E+03  3.86691E+03
 -9.87285E+03 -6.14896E+02 -1.01517E+04 -8.42784E+03 -4.19771E+03 -1.34752E+04  4.24939E+03 -1.04547E+04
  9.27296E+03 -4.57608E+03  6.23332E+03  2.83641E+03  5.35680E+02  4.08164E+03 -4.19689E+03 -9.62018E+00
 -4.54166E+03 -6.56155E+03 -8.27659E+02 -9.46486E+03  5.48046E+03 -1.06348E+04  1.29139E+04 -5.17172E+03
  1.45044E+04  7.27187E+02  1.16726E+04  8.39222E+03  1.59183E+03  1.16998E+04 -6.82086E+03  1.03561E+04
 -8.43129E+03  3.43451E+03 -4.23836E+03 -2.11894E+03  1.65596E+03 -2.76363E+03  5.41721E+03 -8.64299E+02
  4.36051E+03  4.40889E+03  1.02527E+03  8.13814E+03 -5.59217E+03  8.22573E+03 -1.02341E+04  2.26791E+03
 -5.35736E+03 -4.85771E+03 -1.58248E+01 -8.42122E+03  5.43404E+03 -4.18718E+03  5.64880E+03  1.27871E+03
  9.05750E+02  4.50317E+03 -5.26393E+03  6.79519E+03 -7.40116E+03  3.39199E+03 -6.53342E+03 -2.11616E+03
 -3.95617E+03 -8.61852E+03  1.98737E+03 -9.44411E+03  8.31454E+03 -6.26403E+03  8.59266E+03  1.49913E+03
  5.40896E+03  6.75619E+03 -3.81377E+02  9.88024E+03 -6.62415E+03  5.05803E+03 -7.29905E+03 -4.54616E+02
 -6.82830E+03 -6.78829E+03 -1.83036E+03 -6.38993E+03  3.44911E+03 -6.39426E+03  4.29810E+03 -3.22593E+03
  3.17126E+03  5.38729E+02  9.92561E+01  1.27342E+03  3.63863E+02 -8.96064E+02  2.88123E+02 -3.73280E+03
  6.00653E+03 -1.81716E+03  8.13256E+03  1.01965E+03  7.59511E+03  5.13487E+03  5.94308E+03  9.93034E+03
 -2.10051E+03  1.17651E+04 -1.09874E+04  8.81191E+03 -1.38195E+04  1.40757E+03 -1.08458E+04 -3.95468E+03
 -5.25902E+03 -8.97097E+03 -2.95880E+02 -7.09697E+03  3.42595E+03 -3.81434E+03  2.29928E+03 -3.22702E+03
  1.67539E+03 -2.42243E+03  2.41830E+03 -2.50543E+03  4.21571E+03 -1.78165E+03  4.96370E+03 -2.99714E+02
  5.51580E+03  2.29089E+03  2.23984E+03  4.94451E+03 -1.17897E+03  4.57428E+03 -5.97956E+03  4.27670E+03
 -7.18473E+03 -1.06431E+03 -3.54309E+03 -4.89361E+03 -5.08576E+01 -6.78708E+03  4.50002E+03 -7.54515E+03
  7.51133E+03 -4.09941E+03  9.21774E+03  8.06985E+02  7.20296E+03  6.33481E+03  1.14640E+03  8.20418E+03
 -2.79004E+03  7.52486E+03 -4.59894E+03  2.53904E+03 -2.54169E+03 -1.36363E+03 -1.65683E+03 -5.68870E+02
 -3.25974E+02  1.04678E+02 -1.51875E+03  2.58779E+03 -3.17403E+03  1.91608E+03 -5.32879E+03 -8.00003E+02
 -2.43039E+03 -5.80847E+03  3.68270E+02 -7.04162E+03  3.86144E+03 -5.67801E+03  6.04373E+03 -1.96733E+03
  6.25877E+03  3.21221E+03  2.78476E+03  5.28928E+03 -1.21063E+03  6.61745E+03 -3.87021E+03  4.13154E+03
 -6.44827E+03  3.37773E+02 -4.81816E+03 -3.80975E+03 -8.69251E+02 -5.06357E+03  2.36140E+03 -4.13827E+03
  4.16147E+03 -1.39964E+03  2.43794E+03  7.47675E+02  1.19057E+03  2.34817E+03  7.79073E+02  7.29827E+02
  1.79909E+03  6.74826E+02  1.77132E+03  1.28174E+03  2.01450E+03  2.30649E+03  1.65068E+03  3.31746E+03
 -1.54940E+03  4.52928E+03 -4.09709E+03  5.21729E+03 -5.63018E+03  1.86820E+03 -6.37024E+03 -1.20964E+03
 -2.92641E+03 -5.97773E+03  7.34568E+02 -7.14267E+03  2.77523E+03 -3.55652E+03  4.69595E+03 -1.94468E+03
  4.05214E+03  2.32539E+03  7.22920E+02  3.28217E+03 -1.55322E+03  2.11428E+03 -2.03266E+03 -4.12830E+02
 -1.21547E+03 -2.76080E+03  1.52125E+03 -2.62045E+03  2.35047E+03 -1.47461E+03  1.97059E+03  4.12859E+02
  1.15811E+03  2.47931E+02  8.55306E+02  3.69878E+02  1.01350E+02  1.32557E+03  1.72615E+03 -9.56400E+02
  2.57048E+02 -5.89905E+02  3.28694E+03  1.05274E+03  1.06915E+03  2.96188E+03 -3.92145E+02  4.53708E+03
 -2.61104E+03  2.54927E+03 -3.34008E+03  7.57506E+02 -2.80668E+03 -8.83910E+02 -4.53463E+02 -1.78279E+03
  1.11703E+03 -1.85102E+03  1.36509E+03 -1.48529E+03  1.00222E+03  2.06098E+03 -8.86911E+02  1.75730E+03
 -2.00984E+03  7.21220E+02 -1.81320E+03 -1.28595E+03 -1.48223E+03 -3.66290E+03  9.62278E+02 -2.49087E+03
  1.34670E+03 -1.40603E+03  1.58945E+03 -2.61339E+02  1.71858E+03  5.75603E+02  4.26243E+02  1.32234E+03
 -1.00206E+03 -2.23023E+02 -1.85591E+03 -1.12507E+03  5.43406E+02 -1.90984E+03  2.83197E+03 -1.32974E+03
  2.31979E+03  2.79289E+02  3.76744E+03  1.37335E+03  1.67077E+03  3.27631E+03 -6.78482E+02  3.23770E+03
 -2.62601E+03  1.35593E+02 -2.78885E+03 -2.54926E+02 -1.29605E+03 -1.68500E+03  3.18250E+02 -1.52484E+03
  2.24530E+03 -7.22430E+02  1.23120E+03  1.11249E+03  5.99753E+02  2.18895E+03  1.62424E+02  1.10607E+03
 -2.34731E+02  1.38260E+03 -1.49917E+03 -8.77898E+02 -6.81467E+02  1.39735E+03 -8.09050E+02  5.73328E+02
 -1.14889E+03  1.54675E+03 -2.32820E+03  8.08498E+02 -2.85797E+03 -3.20089E+02 -3.55450E+03 -2.13377E+03
 -1.72600E+03 -4.08748E+03  5.32585E+02 -4.57699E+03  2.55319E+03 -3.60560E+03  4.41208E+03 -1.21178E+03
  3.73121E+03  5.43748E+02  2.57695E+03  2.93304E+03 -1.27513E+02  2.51978E+03 -1.33392E+03  1.82443E+03
 -1.67074E+03  6.20978E+02 -1.34209E+03 -8.19936E+02 -2.00996E+02  5.31824E+02 -8.12623E+02 -2.34451E+02
 -1.55105E+03  3.47723E+02 -1.22514E+03  2.69473E+02 -3.77672E+02 -9.14105E+02 -9.03003E+02 -1.13563E+03
  2.25643E+03 -7.85065E+02  1.58862E+03 -1.86613E+02  1.70651E+03  1.40405E+03 -3.50882E+02  2.31604E+03
 -2.13679E+03  3.28816E+03 -2.67921E+03  2.44761E+03 -3.15712E+03  3.69244E+01 -2.06556E+03 -1.90222E+03
 -1.44302E+03 -2.98796E+03  6.90547E+02 -2.79184E+03  1.51451E+03 -1.17231E+03  1.51975E+03  3.48510E+02
  1.04079E+03  6.25185E+02  3.69189E+02  5.82806E+02 -6.45547E+02 -3.84250E+02 -6.39408E+02 -8.13501E+02
  7.45108E+02 -6.96607E+01  7.21671E+02  3.10605E+02  5.12249E+02  7.33916E+02  5.23748E+02  3.78026E+02
 -8.32753E+02  1.07574E+03 -1.30769E+03 -1.39156E+02 -1.15433E+03 -9.37817E+02  6.02325E+02 -2.20948E+03
  1.39192E+03 -1.22657E+03  1.35665E+03  1.43162E+02  1.45795E+03 -8.47225E+02  9.35169E+02  1.41726E+03
  7.07870E+02  9.49090E+02 -6.96164E+02  1.61342E+03 -6.07797E+02  7.18369E+02 -3.29455E+02  5.65482E+02
 -1.97582E+02 -4.07587E+02 -1.14019E+03  8.53972E+02 -1.04815E+03  1.69769E+02 -1.22513E+03 -6.47208E+02
 -1.72979E+03  5.35300E+01 -6.95580E+02 -9.58710E+02  9.76293E+02 -1.65686E+03  1.13648E+03 -1.11388E+01
  1.07114E+03 -6.04368E+00  1.12896E+01  4.37922E+02 -2.70581E+02  1.95578E+03 -6.82051E+02  9.36801E+02
