 $NMID ID='MM_0lb_SNR400_11hz_g55_33.RAW', FMTDAT='(8E13.5)'
 TRAMP=1., VOLUME=1. $END
  3.09462E+05 -1.06955E+02  3.37529E+05  2.50511E+05  8.52382E+04  3.38768E+05 -1.32328E+05  2.52259E+05
 -1.90806E+05  8.39960E+04 -1.12527E+05 -3.27193E+04  6.60027E+02 -5.14984E+04  5.32846E+04 -6.62700E+02
  3.52647E+04  5.27503E+04 -1.65147E+04  7.60302E+04 -6.10823E+04  6.40014E+04 -8.46965E+04  3.24020E+04
 -8.22440E+04 -1.17805E+04 -5.82294E+04 -5.20615E+04 -1.49304E+04 -7.10334E+04  2.86736E+04 -4.62501E+04
  4.12055E+04  3.96291E+03  1.68205E+04  4.83939E+04 -3.46111E+04  4.77416E+04 -6.73225E+04  9.78423E+01
 -5.39071E+04 -5.81665E+04 -7.04884E+03 -7.89761E+04  3.46041E+04 -5.65871E+04  5.00525E+04 -1.75815E+04
  4.44149E+04  1.19477E+04  3.27452E+04  2.63200E+04  1.57396E+04  3.01306E+04 -5.94690E+03  2.78685E+04
 -2.20992E+04  1.19358E+04 -1.83134E+04 -5.65804E+03  6.32266E+03 -7.30867E+03  2.35506E+04  1.31828E+04
  6.89020E+03  3.72223E+04 -3.36828E+04  3.71389E+04 -6.55610E+04  2.37979E+03 -5.76717E+04 -4.47367E+04
 -1.21606E+04 -6.49853E+04  4.15365E+04 -4.71768E+04  6.04820E+04 -2.95113E+03  3.57932E+04  3.43948E+04
 -6.01996E+03  3.87032E+04 -3.21546E+04  1.85850E+04 -3.21128E+04 -4.04994E+03 -1.89332E+04 -1.24537E+04
 -9.57091E+03 -1.44611E+04 -4.22112E+02 -1.91124E+04  7.67132E+03 -2.38618E+04  1.58316E+04 -1.37056E+04
  1.05616E+04  6.36676E+03 -1.05565E+04  1.36269E+04 -2.28325E+04 -5.95465E+03 -8.53745E+03 -3.67720E+04
  2.48984E+04 -4.65324E+04  5.07153E+04 -1.99956E+04  4.79520E+04  2.01465E+04  1.67049E+04  4.69369E+04
 -1.70798E+04  3.57223E+04 -2.71843E+04  2.31852E+03 -1.12876E+04 -2.93444E+04  2.14781E+04 -3.67768E+04
  4.36668E+04 -1.02855E+04  3.93599E+04  2.50551E+04  2.09114E+04  4.88239E+04 -8.59000E+03  5.46543E+04
 -3.44564E+04  3.66949E+04 -4.57643E+04  1.11911E+04 -4.62669E+04 -1.78511E+04 -2.48985E+04 -4.04806E+04
  7.55091E+03 -4.10516E+04  3.32770E+04 -1.66231E+04  3.26018E+04  1.07540E+04  4.69727E+03  2.06138E+04
 -1.36206E+04  9.39282E+03 -1.07229E+04 -7.20453E+03  5.68080E+03 -1.01931E+04  1.86997E+04  5.77414E+03
  1.42426E+04  2.29320E+04 -5.77625E+03  2.64325E+04 -2.32286E+04  1.31593E+04 -3.05848E+04 -2.95886E+03
 -2.41765E+04 -1.77650E+04 -1.09241E+04 -2.36298E+04  4.19916E+03 -2.40314E+04  1.96562E+04 -2.17012E+04
  3.03429E+04 -1.38723E+04  3.71186E+04  3.98603E+03  2.65625E+04  2.34892E+04  4.23997E+03  3.95680E+04
 -1.85602E+04  3.28931E+04 -2.96843E+04  1.16809E+04 -2.17665E+04 -1.03118E+04 -4.69535E+03 -1.26058E+04
  1.30558E+03 -1.42628E+03 -6.89586E+03  8.03232E+03 -1.91602E+04  5.73606E+03 -1.97692E+04 -8.99296E+03
 -1.13939E+04 -2.21079E+04  6.16102E+03 -2.64333E+04  1.79478E+04 -1.90795E+04  2.15162E+04 -1.95335E+03
  1.32996E+04  1.56333E+04 -1.64611E+03  2.11596E+04 -1.55435E+04  1.28299E+04 -2.25497E+04 -4.41164E+03
 -1.54743E+04 -1.97468E+04 -1.96562E+03 -2.67824E+04  1.21954E+04 -2.15743E+04  2.19301E+04 -1.02792E+04
  2.07266E+04 -2.83663E+02  1.48298E+04  4.94000E+03  7.89647E+03  1.59798E+03  1.14434E+04 -2.00001E+03
  2.13414E+04  3.29582E+03  2.36784E+04  1.74651E+04  1.57794E+04  3.57035E+04 -2.09740E+03  4.08897E+04
 -2.37379E+04  3.39628E+04 -3.85181E+04  1.75824E+04 -4.20783E+04 -2.84133E+03 -3.31144E+04 -2.43158E+04
 -1.39571E+04 -3.40131E+04  1.07792E+04 -3.00047E+04  2.52664E+04 -1.38115E+04  2.33755E+04  7.63662E+03
  8.10895E+03  1.77043E+04 -1.08278E+04  1.47920E+04 -1.88795E+04  2.55801E+03 -1.43983E+04 -1.21903E+04
 -4.60419E+02 -1.82365E+04  9.82173E+03 -1.27915E+04  1.19809E+04 -1.04323E+03  3.15467E+03  8.30743E+03
 -8.01184E+03  3.63986E+03 -7.98374E+03 -6.51555E+03 -6.46279E+02 -1.60132E+04  1.08451E+04 -1.77307E+04
  2.11743E+04 -9.42538E+03  2.34086E+04  3.53639E+03  2.08728E+04  1.65338E+04  9.25446E+03  2.62688E+04
 -5.06712E+03  2.85064E+04 -1.83587E+04  1.70476E+04 -2.05072E+04  3.62468E+03 -1.43107E+04 -4.71118E+03
 -5.57279E+03 -6.09922E+03 -6.75922E+02  4.53893E+02 -3.31569E+03  3.73823E+03 -6.36670E+03  5.22458E+03
 -1.38653E+04 -8.31850E+02 -1.36319E+04 -1.00073E+04 -5.67595E+03 -1.83164E+04  5.88193E+03 -1.37342E+04
  1.18772E+04 -5.74966E+03  8.32557E+03  4.17854E+03 -8.91263E+01  5.29050E+03 -7.70420E+03  3.01517E+02
 -7.02727E+03 -9.76687E+03 -7.41327E+02 -1.35345E+04  8.31447E+03 -1.41867E+04  1.76069E+04 -8.12828E+03
  2.11300E+04  1.55954E+03  1.55673E+04  1.24577E+04  3.76014E+03  1.71831E+04 -8.99903E+03  1.39688E+04
 -1.19434E+04  4.41428E+03 -5.47998E+03 -3.62642E+03  1.99216E+03 -4.01054E+03  7.33053E+03  4.40981E+02
  7.42864E+03  7.13628E+03  1.28976E+03  1.19962E+04 -8.16221E+03  1.08572E+04 -1.38080E+04  3.23864E+03
 -8.69438E+03 -7.07908E+03 -6.03483E+01 -1.17161E+04  7.66959E+03 -6.09928E+03  7.36565E+03  2.44087E+03
  1.55760E+03  8.46464E+03 -7.27183E+03  1.06779E+04 -1.16746E+04  3.99583E+03 -1.11999E+04 -4.18912E+03
 -6.97867E+03 -1.37578E+04  3.05573E+03 -1.59818E+04  1.34025E+04 -9.48861E+03  1.39237E+04  2.34980E+03
  8.52500E+03  1.17783E+04 -1.00468E+03  1.34932E+04 -9.87166E+03  7.85331E+03 -1.10235E+04 -1.92235E+03
 -9.79254E+03 -9.38330E+03 -2.30231E+03 -1.06716E+04  6.30233E+03 -9.17604E+03  6.27643E+03 -3.26629E+03
  4.97666E+03  1.65896E+03 -1.10401E+03  1.26317E+03 -7.82594E+02 -2.69349E+03  2.02285E+03 -5.78343E+03
  1.04242E+04 -4.22098E+03  1.45408E+04  1.39845E+03  1.38873E+04  9.22880E+03  9.17626E+03  1.80415E+04
 -3.73557E+03  2.06809E+04 -1.76526E+04  1.54643E+04 -2.24731E+04  2.79098E+03 -1.78681E+04 -7.26688E+03
 -7.70735E+03 -1.50382E+04 -9.64831E+02 -1.25415E+04  4.21594E+03 -7.30530E+03  4.88320E+03 -4.50160E+03
  3.71876E+03 -2.30237E+03  3.26868E+03 -3.55326E+03  5.51046E+03 -2.47346E+03  7.06855E+03 -9.03119E+02
  9.03454E+03  2.48574E+03  5.09090E+03  7.86718E+03 -2.34342E+03  9.11305E+03 -1.03006E+04  7.06105E+03
 -1.21532E+04 -1.50252E+03 -7.67193E+03 -9.16274E+03 -5.53005E+02 -1.32003E+04  7.40361E+03 -1.32788E+04
  1.35906E+04 -6.95276E+03  1.70545E+04  2.18098E+03  1.07523E+04  1.14875E+04  1.96131E+03  1.42702E+04
 -5.74995E+03  1.22245E+04 -8.27753E+03  4.26136E+03 -5.34592E+03 -1.34856E+03 -1.93707E+03 -2.12006E+03
 -1.53408E+03 -9.82624E+02 -1.29053E+03  2.99897E+03 -5.69819E+03  2.93305E+03 -8.66192E+03 -1.04747E+03
 -4.91245E+03 -8.85414E+03  4.15889E+02 -1.25853E+04  7.68870E+03 -1.11576E+04  1.18710E+04 -3.09465E+03
  1.20076E+04  4.90528E+03  5.33616E+03  1.16631E+04 -2.38170E+03  1.23820E+04 -8.42412E+03  8.30702E+03
 -1.17818E+04  7.60759E+01 -8.99205E+03 -7.72963E+03 -9.30167E+02 -1.00324E+04  5.01887E+03 -7.77351E+03
  7.44610E+03 -2.84079E+03  6.08615E+03  2.39303E+03  1.66504E+03  3.95577E+03  1.55587E+03  1.79851E+03
  2.35016E+03  5.73310E+02  3.09411E+03  1.76274E+03  3.53473E+03  4.59346E+03  3.13479E+03  6.65942E+03
 -1.77630E+03  9.35118E+03 -7.95984E+03  8.97638E+03 -1.19535E+04  2.69667E+03 -1.26722E+04 -4.34457E+03
 -5.47169E+03 -1.22787E+04  1.51776E+03 -1.34162E+04  7.04258E+03 -7.63681E+03  1.06445E+04 -2.05609E+03
  8.36247E+03  4.82127E+03  1.93901E+03  6.31559E+03 -3.14287E+03  4.47504E+03 -4.17508E+03 -6.29749E+02
 -2.01420E+03 -4.61209E+03  3.51124E+03 -5.05053E+03  5.34702E+03 -2.70745E+03  5.61356E+03  1.53662E+03
  3.34517E+03  2.49148E+03  1.67047E+03  1.98615E+03 -2.68986E+02  1.80818E+03  1.61331E+03  3.25741E+02
  1.85473E+03 -9.72857E+02  4.95231E+03  1.86132E+03  2.51385E+03  6.38276E+03 -1.11507E+03  9.15814E+03
 -6.54133E+03  5.54826E+03 -7.31164E+03  8.95550E+02 -7.15651E+03 -3.29097E+03 -2.46489E+03 -4.37590E+03
  1.38571E+03 -4.69955E+03  2.87561E+03 -2.11625E+03  2.63880E+03  2.28088E+03 -8.96740E+02  4.31225E+03
 -5.15043E+03  1.68382E+03 -5.76457E+03 -2.91293E+03 -2.80241E+03 -6.23339E+03  1.21755E+03 -6.26753E+03
  4.03660E+03 -3.97854E+03  4.68762E+03 -6.61365E+02  4.26257E+03  1.52449E+03  9.02470E+02  4.27654E+03
 -2.46020E+03  1.57763E+03 -2.99973E+03 -2.50573E+03  9.31328E+02 -4.94710E+03  5.24534E+03 -3.36857E+03
  7.64287E+03  4.24514E+02  7.68819E+03  5.67340E+03  2.85829E+03  7.04689E+03 -2.21981E+03  7.47342E+03
 -5.54619E+03  2.57420E+03 -6.45914E+03 -7.06950E+02 -3.32074E+03 -4.92552E+03  1.60926E+03 -4.86701E+03
  4.98663E+03 -2.45900E+03  4.29109E+03  1.80224E+03  1.17997E+03  4.18885E+03 -1.66957E+03  4.40643E+03
 -2.37995E+03  2.84647E+03 -1.19909E+03  1.39471E+03 -4.38268E+02  9.12187E+02 -9.40209E+02  1.41190E+03
 -2.16430E+03  2.55691E+03 -5.25493E+03  2.23387E+03 -7.14410E+03  2.23737E+02 -8.03825E+03 -5.03775E+03
 -4.55429E+03 -9.58088E+03  2.36721E+03 -1.14472E+04  6.98155E+03 -9.36901E+03  1.08725E+04 -3.47625E+03
  9.09880E+03  1.33536E+03  6.14983E+03  8.05906E+03  2.55399E+02  7.53012E+03 -2.32265E+03  5.59304E+03
 -4.04153E+03  2.16580E+03 -2.26137E+03 -6.80675E+02 -1.46252E+03 -1.11990E+03  1.21125E+02 -3.31800E+02
 -1.55896E+03  3.15833E+02 -1.39386E+03  5.92724E+02 -2.80027E+02 -2.58452E+03 -2.45553E+02 -3.01980E+03
  3.73710E+03 -2.66401E+03  4.96649E+03  7.78784E+02  5.16705E+03  3.62896E+03  1.36729E+03  6.71754E+03
 -3.79855E+03  9.05796E+03 -7.60067E+03  5.18679E+03 -8.74758E+03 -4.62489E+02 -6.74222E+03 -4.78145E+03
 -3.88741E+03 -7.87994E+03  1.76795E+03 -6.62399E+03  4.34277E+03 -4.43082E+03  4.75378E+03 -5.45954E+02
  2.87268E+03  2.15578E+03 -3.31948E+02  2.50699E+03 -1.28642E+03  1.20269E+01  3.38159E+02 -1.86875E+03
  2.48630E+03 -7.67030E+02  1.92478E+03  8.94321E+02  2.14410E+03  2.88750E+03  7.34603E+01  3.30056E+03
 -3.25906E+03  3.22308E+03 -5.02318E+03  3.23878E+02 -4.01829E+03 -3.58138E+03 -1.21172E+03 -5.38226E+03
  3.26553E+03 -4.53226E+03  5.43614E+03 -1.57847E+03  5.33739E+03  1.26405E+03  3.52732E+03  3.93422E+03
  1.72679E+03  5.14054E+03 -2.03986E+03  3.61928E+03 -2.80907E+03  2.17652E+03 -2.30198E+03  1.51475E+02
 -2.08655E+03 -2.64794E+02 -1.86351E+03  4.49391E+02 -2.46373E+03  3.28288E+02 -3.53431E+03 -2.42646E+02
 -4.27284E+03 -2.46655E+03 -7.06253E+02 -5.39326E+03  1.96072E+03 -5.54675E+03  4.51733E+03 -2.05712E+03
  4.04995E+03  7.53781E+02  2.56529E+03  2.87371E+03 -1.01365E+03  4.05631E+03 -3.36687E+03  3.27866E+03
