 $NMID ID='MM_0lb_SNR400_7hz_g45_29.RAW', FMTDAT='(8E13.5)'
 TRAMP=1., VOLUME=1. $END
  3.10459E+05  3.58407E+02  3.37551E+05  2.50031E+05  8.56581E+04  3.38998E+05 -1.32912E+05  2.52461E+05
 -1.90450E+05  8.40302E+04 -1.13138E+05 -3.21440E+04 -5.48037E+02 -5.13276E+04  5.40265E+04 -4.03808E+02
  3.62443E+04  5.28592E+04 -1.57561E+04  7.68836E+04 -6.16953E+04  6.51393E+04 -8.61160E+04  3.29199E+04
 -8.21123E+04 -1.19787E+04 -5.89251E+04 -5.38619E+04 -1.54894E+04 -7.13528E+04  2.90773E+04 -4.70143E+04
  4.19994E+04  4.20519E+03  1.61315E+04  4.86422E+04 -3.54344E+04  4.80840E+04 -6.79373E+04 -1.94454E+02
 -5.49836E+04 -5.80417E+04 -7.24467E+03 -8.02708E+04  3.42894E+04 -5.74112E+04  5.06710E+04 -1.85975E+04
  4.53568E+04  1.12129E+04  3.24891E+04  2.71352E+04  1.61455E+04  3.14973E+04 -5.40788E+03  2.79449E+04
 -2.17778E+04  1.15537E+04 -1.77151E+04 -6.08571E+03  7.68042E+03 -7.72481E+03  2.29793E+04  1.45133E+04
  6.90320E+03  3.81220E+04 -3.47393E+04  3.78611E+04 -6.65103E+04  1.99928E+03 -5.89380E+04 -4.55658E+04
 -1.24285E+04 -6.68102E+04  4.22937E+04 -4.80103E+04  6.22707E+04 -3.54601E+03  3.75279E+04  3.51062E+04
 -5.42569E+03  4.08102E+04 -3.27433E+04  1.97953E+04 -3.40566E+04 -2.96210E+03 -2.04744E+04 -1.22000E+04
 -1.06257E+04 -1.61056E+04  2.35818E+02 -1.87595E+04  8.11480E+03 -2.33220E+04  1.55724E+04 -1.30964E+04
  9.76675E+03  6.54226E+03 -1.11116E+04  1.18854E+04 -2.41283E+04 -7.14742E+03 -8.40394E+03 -3.85378E+04
  2.57728E+04 -4.72114E+04  5.25883E+04 -2.07004E+04  4.96610E+04  2.18010E+04  1.84937E+04  4.70792E+04
 -1.69379E+04  3.74342E+04 -2.92705E+04  3.46273E+03 -1.27199E+04 -2.97219E+04  2.19020E+04 -3.78785E+04
  4.49204E+04 -1.12466E+04  4.15984E+04  2.55119E+04  2.26967E+04  5.18721E+04 -9.04939E+03  5.80822E+04
 -3.59271E+04  3.89407E+04 -4.93451E+04  1.13002E+04 -4.82936E+04 -1.99971E+04 -2.72726E+04 -4.32818E+04
  9.03405E+03 -4.37074E+04  3.54630E+04 -1.75678E+04  3.32178E+04  1.13835E+04  4.94854E+03  2.15524E+04
 -1.45939E+04  8.78001E+03 -1.14986E+04 -7.61757E+03  5.68140E+03 -1.07550E+04  1.88879E+04  5.28285E+03
  1.50706E+04  2.30135E+04 -4.62550E+03  2.74268E+04 -2.36320E+04  1.46842E+04 -3.21139E+04 -2.51383E+03
 -2.60519E+04 -1.88388E+04 -1.32183E+04 -2.56707E+04  4.82510E+03 -2.72200E+04  2.09829E+04 -2.40989E+04
  3.40903E+04 -1.48844E+04  3.93101E+04  5.99506E+03  2.93515E+04  2.48299E+04  4.43196E+03  4.26899E+04
 -1.99792E+04  3.51650E+04 -3.34817E+04  1.24729E+04 -2.35022E+04 -1.05886E+04 -5.08838E+03 -1.33119E+04
  5.19807E+02 -3.63502E+02 -8.42038E+03  9.57718E+03 -2.22290E+04  4.38993E+03 -2.18638E+04 -9.94868E+03
 -1.17195E+04 -2.48527E+04  6.52178E+03 -3.09183E+04  1.98153E+04 -2.06817E+04  2.45166E+04 -2.34484E+03
  1.63274E+04  1.68526E+04 -1.46901E+03  2.46035E+04 -1.83486E+04  1.47108E+04 -2.41341E+04 -5.01315E+03
 -1.78370E+04 -2.23177E+04 -2.16033E+03 -3.03383E+04  1.32114E+04 -2.45870E+04  2.38711E+04 -1.36146E+04
  2.34880E+04  7.31395E+02  1.66540E+04  5.88183E+03  9.38872E+03  2.04022E+03  1.29828E+04 -1.90467E+03
  2.28721E+04  2.73701E+03  2.77624E+04  1.91399E+04  1.88692E+04  4.04955E+04 -2.63717E+03  4.77534E+04
 -2.70923E+04  3.99610E+04 -4.56567E+04  2.14524E+04 -4.85407E+04 -3.57296E+03 -3.91026E+04 -2.83310E+04
 -1.60721E+04 -4.07915E+04  1.42970E+04 -3.47811E+04  3.08290E+04 -1.53541E+04  2.53412E+04  7.52096E+03
  7.88891E+03  1.95140E+04 -1.17804E+04  1.68932E+04 -2.14367E+04  1.71391E+03 -1.64434E+04 -1.41844E+04
 -1.84618E+01 -2.08445E+04  1.06440E+04 -1.52114E+04  1.41898E+04 -2.38950E+03  5.18620E+03  8.58076E+03
 -9.35329E+03  4.52814E+03 -1.12356E+04 -7.56451E+03 -2.26630E+03 -2.05140E+04  1.26116E+04 -2.19223E+04
  2.56326E+04 -1.23152E+04  2.92734E+04  3.75459E+03  2.53302E+04  2.02660E+04  1.16447E+04  3.39693E+04
 -6.57722E+03  3.39003E+04 -2.28495E+04  2.19553E+04 -2.42703E+04  3.60689E+03 -1.68308E+04 -6.59426E+03
 -7.35993E+03 -8.10663E+03  1.36712E+02  1.47075E+02 -3.72594E+03  3.12573E+03 -8.47105E+03  6.27617E+03
 -1.52706E+04 -1.05017E+03 -1.63550E+04 -1.27709E+04 -5.85437E+03 -2.05514E+04  6.53688E+03 -1.66662E+04
  1.37594E+04 -6.77326E+03  9.94879E+03  5.21666E+03 -1.82324E+02  7.32391E+03 -9.60535E+03 -6.20906E+02
 -8.40685E+03 -1.19424E+04 -2.00421E+03 -1.79102E+04  1.07621E+04 -1.80779E+04  2.25587E+04 -9.66397E+03
  2.61650E+04  2.46095E+03  1.89654E+04  1.52998E+04  3.04563E+03  2.17657E+04 -1.10607E+04  1.71069E+04
 -1.41190E+04  5.11008E+03 -6.31539E+03 -4.04922E+03  1.82616E+03 -5.28344E+03  8.66621E+03 -9.30568E+02
  8.72331E+03  6.88500E+03  9.65624E+02  1.48835E+04 -1.06064E+04  1.24370E+04 -1.69898E+04  3.91386E+03
 -1.18079E+04 -8.90760E+03 -4.19075E+01 -1.51863E+04  1.04020E+04 -7.53660E+03  1.06252E+04  3.93519E+03
  1.91935E+03  1.15556E+04 -8.69572E+03  1.30170E+04 -1.49764E+04  4.75963E+03 -1.62740E+04 -6.40637E+03
 -9.82837E+03 -1.79171E+04  5.40086E+03 -2.16650E+04  1.77977E+04 -1.29949E+04  1.99719E+04  4.08096E+03
  1.21446E+04  1.56768E+04 -2.19239E+03  1.80341E+04 -1.36426E+04  9.70744E+03 -1.49973E+04 -1.88267E+03
 -1.16074E+04 -1.18965E+04 -2.65879E+03 -1.39549E+04  7.03867E+03 -1.05083E+04  7.92423E+03 -3.50526E+03
  4.98385E+03  3.00144E+03 -1.11882E+03  2.18895E+03 -1.25052E+03 -3.87620E+03  3.17396E+03 -8.41880E+03
  1.37622E+04 -6.10209E+03  1.88669E+04  1.64009E+03  1.82919E+04  1.32709E+04  1.13423E+04  2.42589E+04
 -5.97638E+03  2.75381E+04 -2.31439E+04  2.15342E+04 -2.97629E+04  4.05608E+03 -2.38940E+04 -1.05942E+04
 -1.23164E+04 -1.87951E+04 -7.71587E+02 -1.69527E+04  5.83495E+03 -1.04711E+04  5.25622E+03 -5.50368E+03
  4.95560E+03 -4.02921E+03  5.12730E+03 -3.46938E+03  6.69323E+03 -3.62523E+03  9.65930E+03 -2.13103E+03
  1.23294E+04  3.22010E+03  6.93619E+03  1.08075E+04 -2.37457E+03  1.29457E+04 -1.34060E+04  1.02307E+04
 -1.75725E+04 -8.85910E+02 -1.11022E+04 -1.25872E+04 -2.45933E+03 -1.90995E+04  1.05015E+04 -1.89596E+04
  1.90796E+04 -1.01197E+04  2.36370E+04  3.79588E+03  1.57699E+04  1.70736E+04  1.98971E+03  2.09760E+04
 -9.21436E+03  1.78329E+04 -1.19423E+04  5.84860E+03 -8.61658E+03 -2.02165E+03 -4.11232E+03 -3.91909E+03
 -1.51217E+03 -4.20203E+02 -3.62730E+03  3.43512E+03 -7.48891E+03  3.27458E+03 -1.18583E+04 -2.18770E+03
 -8.19566E+03 -1.22263E+04 -3.02529E+02 -1.80866E+04  1.08313E+04 -1.52384E+04  1.89114E+04 -5.29576E+03
  1.78347E+04  8.95933E+03  7.91609E+03  1.63519E+04 -2.87390E+03  1.75600E+04 -1.31628E+04  1.13663E+04
 -1.75536E+04  5.80153E+02 -1.29218E+04 -1.11437E+04 -1.25071E+03 -1.48459E+04  7.13107E+03 -1.17446E+04
  1.12106E+04 -3.68987E+03  8.58905E+03  3.01835E+03  3.83866E+03  5.06984E+03  9.25977E+02  3.32333E+03
  3.63441E+03  1.54107E+03  3.88603E+03  2.02784E+03  5.96852E+03  6.34388E+03  5.25399E+03  9.84123E+03
 -3.40253E+03  1.52259E+04 -1.30825E+04  1.53772E+04 -1.92547E+04  3.83568E+03 -1.92478E+04 -8.21546E+03
 -9.50531E+03 -1.91516E+04  3.05925E+03 -2.15209E+04  1.22150E+04 -1.37770E+04  1.53495E+04 -3.51889E+03
  1.18884E+04  7.31231E+03  2.40462E+03  1.09067E+04 -5.28242E+03  7.20865E+03 -7.53895E+03 -1.23192E+03
 -4.21126E+03 -8.40586E+03  3.97178E+03 -8.93621E+03  7.85570E+03 -5.04093E+03  8.02966E+03  1.56339E+03
  5.43932E+03  3.89010E+03  1.90287E+03  3.93808E+03 -1.54355E+03  1.78061E+03  2.46941E+03 -1.43508E+03
  2.96206E+03 -9.76903E+02  7.54029E+03  3.53797E+03  4.94330E+03  9.41920E+03 -9.05753E+02  1.38826E+04
 -1.01496E+04  8.97175E+03 -1.32235E+04  1.64842E+03 -1.14165E+04 -4.18801E+03 -4.81429E+03 -7.62195E+03
  4.41220E+02 -8.95264E+03  5.64231E+03 -3.15084E+03  3.63216E+03  4.12339E+03 -1.02497E+03  6.62687E+03
 -8.19450E+03  4.29685E+03 -9.62834E+03 -4.91155E+03 -6.15108E+03 -1.08894E+04  1.35161E+03 -1.03721E+04
  7.39647E+03 -7.41400E+03  9.10504E+03 -1.22153E+03  6.88375E+03  2.82104E+03  3.01006E+02  6.22603E+03
 -4.15741E+03  1.88865E+03 -4.99041E+03 -3.24906E+03  2.56724E+03 -8.68544E+03  9.53822E+03 -7.20710E+03
  1.29480E+04  1.30941E+03  1.18480E+04  8.70601E+03  3.56420E+03  1.31120E+04 -4.19078E+03  1.25340E+04
 -1.10338E+04  5.40771E+03 -1.09300E+04 -1.97817E+03 -6.28446E+03 -8.77740E+03  2.70136E+03 -8.20131E+03
  7.71378E+03 -4.09609E+03  7.84409E+03  3.77695E+03  1.67815E+03  6.64892E+03 -1.04895E+03  6.14648E+03
 -3.50709E+03  4.31055E+03 -2.82332E+03  1.45717E+03 -1.57841E+03  1.36072E+03 -1.46889E+03  3.26530E+03
 -3.27528E+03  4.58441E+03 -8.45027E+03  5.10906E+03 -1.39434E+04  5.62909E+02 -1.48601E+04 -8.29450E+03
 -7.06545E+03 -1.76301E+04  3.59659E+03 -2.11301E+04  1.30211E+04 -1.60699E+04  1.97910E+04 -5.41459E+03
  1.81852E+04  3.50862E+03  1.15022E+04  1.26516E+04  7.66582E+02  1.43126E+04 -5.23928E+03  1.08915E+04
 -8.51933E+03  3.99465E+03 -5.08049E+03 -2.70696E+03 -7.40610E+02 -1.68718E+03 -1.95838E+03 -7.29880E+01
 -1.72881E+03  1.53915E+02 -1.92735E+03 -5.23513E+02 -2.25750E+03 -2.44195E+03  7.49260E+02 -4.57877E+03
  5.94793E+03 -4.83534E+03  8.85856E+03  6.18135E+02  1.08787E+04  7.37834E+03  3.10034E+03  1.41562E+04
 -7.24122E+03  1.56484E+04 -1.54873E+04  9.18732E+03 -1.70966E+04 -1.98097E+03 -1.28876E+04 -1.09705E+04
 -5.15818E+03 -1.34661E+04  4.63068E+03 -1.43447E+04  9.29333E+03 -7.80219E+03  1.06208E+04  3.44021E+02
  5.11457E+03  5.34399E+03 -4.87007E+01  4.50089E+03 -3.18686E+03 -2.96543E+02  7.57941E+02 -3.53001E+03
  4.65874E+03 -2.55869E+03  5.68843E+03  2.01708E+03  3.99085E+03  5.19912E+03  3.82366E+01  8.53252E+03
 -6.74648E+03  6.79448E+03 -1.02300E+04  1.17865E+03 -9.52909E+03 -6.03612E+03 -1.66424E+03 -1.21821E+04
  8.22427E+03 -9.24632E+03  1.21717E+04 -3.39763E+03  1.15258E+04  3.21544E+03  6.49137E+03  1.01824E+04
  2.35535E+03  9.22287E+03 -4.06206E+03  8.06643E+03 -6.39952E+03  4.35143E+03 -4.55071E+03 -1.29310E+02
 -3.30499E+03 -8.14174E+02 -3.21342E+03  8.14933E+02 -4.87991E+03  1.11608E+03 -6.87595E+03 -1.49361E+03
 -7.67155E+03 -6.34981E+03 -2.13549E+03 -1.07931E+04  5.70964E+03 -1.03398E+04  8.86075E+03 -5.86368E+03
  1.02450E+04  1.06023E+03  5.15526E+03  7.01942E+03 -2.90005E+02  9.87789E+03 -7.25323E+03  5.92320E+03
