 $NMID ID='MM_0lb_SNR400_17hz_g55_27.RAW', FMTDAT='(8E13.5)'
 TRAMP=1., VOLUME=1. $END
  3.10108E+05  2.80116E+02  3.37791E+05  2.50147E+05  8.50605E+04  3.37765E+05 -1.32920E+05  2.50686E+05
 -1.89231E+05  8.33523E+04 -1.11482E+05 -3.27778E+04  6.34417E+02 -5.06743E+04  5.35567E+04  5.10041E+02
  3.54324E+04  5.29899E+04 -1.63419E+04  7.50075E+04 -6.13832E+04  6.34374E+04 -8.34509E+04  3.15517E+04
 -8.07233E+04 -1.15271E+04 -5.65513E+04 -5.07998E+04 -1.49383E+04 -6.90554E+04  2.75242E+04 -4.56810E+04
  4.00658E+04  4.33315E+03  1.60995E+04  4.74327E+04 -3.42377E+04  4.67807E+04 -6.61494E+04 -4.34345E+02
 -5.29670E+04 -5.68607E+04 -6.21787E+03 -7.64221E+04  3.40210E+04 -5.46723E+04  4.73805E+04 -1.68305E+04
  4.28180E+04  1.10692E+04  3.18349E+04  2.43245E+04  1.61070E+04  2.94448E+04 -4.74096E+03  2.65692E+04
 -2.16826E+04  1.27461E+04 -1.83071E+04 -4.35472E+03  5.57745E+03 -7.53014E+03  2.23176E+04  1.20863E+04
  7.81235E+03  3.42172E+04 -3.11506E+04  3.49035E+04 -6.22926E+04  1.84861E+03 -5.63317E+04 -4.18912E+04
 -1.22688E+04 -6.26303E+04  3.91385E+04 -4.42330E+04  5.79045E+04 -2.00938E+03  3.32892E+04  3.22318E+04
 -6.86942E+03  3.49823E+04 -2.92516E+04  1.43885E+04 -2.97192E+04 -4.64202E+03 -1.63960E+04 -1.09015E+04
 -8.16744E+03 -1.28474E+04 -8.94694E+02 -1.74687E+04  7.24767E+03 -2.31507E+04  1.53278E+04 -1.38590E+04
  1.17046E+04  4.35239E+03 -7.59858E+03  1.29518E+04 -2.06636E+04 -3.06527E+03 -8.64609E+03 -3.20918E+04
  2.21523E+04 -4.29320E+04  4.69723E+04 -1.87981E+04  4.42849E+04  1.90525E+04  1.53143E+04  4.30882E+04
 -1.55812E+04  3.20046E+04 -2.41800E+04  1.02375E+03 -9.34464E+03 -2.74977E+04  2.05441E+04 -3.28780E+04
  3.95328E+04 -8.95332E+03  3.40385E+04  2.33644E+04  1.70915E+04  4.49857E+04 -7.90412E+03  4.79144E+04
 -3.06363E+04  3.22801E+04 -4.04625E+04  8.97737E+03 -4.07049E+04 -1.57895E+04 -2.25435E+04 -3.64458E+04
  7.43240E+03 -3.62014E+04  3.04601E+04 -1.35752E+04  2.85033E+04  1.09823E+04  3.75114E+03  1.88473E+04
 -1.37127E+04  7.99271E+03 -9.88862E+03 -7.36707E+03  5.51182E+03 -1.01146E+04  1.74635E+04  5.95318E+03
  1.30040E+04  2.19149E+04 -6.27041E+03  2.44921E+04 -2.18913E+04  1.05190E+04 -2.65848E+04 -5.47551E+03
 -1.89910E+04 -1.67809E+04 -7.41301E+03 -1.87336E+04  4.17401E+03 -1.74008E+04  1.41000E+04 -1.64752E+04
  2.32512E+04 -1.24514E+04  3.07185E+04  2.46106E+03  2.24634E+04  1.84203E+04  4.42924E+03  3.51124E+04
 -1.69120E+04  2.96110E+04 -2.66327E+04  9.69761E+03 -2.01295E+04 -9.97058E+03 -4.31414E+03 -1.35014E+04
  1.86401E+03 -3.79903E+03 -3.60124E+03  6.26838E+03 -1.44704E+04  4.82500E+03 -1.52165E+04 -6.16031E+03
 -9.90889E+03 -1.71747E+04  4.52513E+03 -2.16840E+04  1.40410E+04 -1.57255E+04  1.67524E+04 -2.25550E+03
  1.03155E+04  1.18948E+04 -8.85019E+02  1.75477E+04 -1.17421E+04  9.90217E+03 -1.72238E+04 -4.03020E+03
 -1.28275E+04 -1.64677E+04 -1.48273E+03 -2.08168E+04  9.71562E+03 -1.66238E+04  1.78686E+04 -9.03572E+03
  1.60087E+04  9.59414E+02  1.17378E+04  4.37799E+03  6.68393E+03  3.55123E+02  8.73113E+03 -1.24530E+03
  1.60583E+04  2.55429E+03  1.71065E+04  1.39086E+04  1.13100E+04  2.75000E+04 -3.27961E+03  3.08814E+04
 -1.81476E+04  2.37533E+04 -2.77388E+04  1.15827E+04 -2.92050E+04 -1.36143E+03 -2.45980E+04 -1.65690E+04
 -1.04094E+04 -2.38843E+04  7.93884E+03 -2.19273E+04  1.90263E+04 -1.14394E+04  1.72613E+04  4.52930E+03
  6.59210E+03  1.25018E+04 -8.36124E+03  1.18938E+04 -1.48080E+04  2.52142E+03 -1.17619E+04 -9.01255E+03
  2.37826E+02 -1.37637E+04  7.49797E+03 -1.05401E+04  8.62049E+03 -1.22027E+03  2.24656E+03  5.43767E+03
 -6.66203E+03  2.12568E+03 -4.92834E+03 -5.89643E+03  5.04191E+02 -1.18487E+04  8.84385E+03 -1.20272E+04
  1.36613E+04 -6.34608E+03  1.45705E+04  2.56584E+03  1.29301E+04  1.12208E+04  5.92062E+03  1.73305E+04
 -2.34925E+03  1.91404E+04 -1.14585E+04  1.22953E+04 -1.32372E+04  2.59570E+03 -1.01398E+04 -2.58718E+03
 -4.84170E+03 -4.00580E+03 -5.86477E+02  6.84209E+02 -1.99157E+03  2.73692E+03 -4.10679E+03  4.26890E+03
 -8.83273E+03 -8.20866E+02 -9.57495E+03 -8.26610E+03 -3.51438E+03 -1.24562E+04  4.35109E+03 -1.00972E+04
  7.98549E+03 -3.75921E+03  5.74590E+03  2.53226E+03  6.72003E+02  3.27339E+03 -4.52886E+03  2.39415E+02
 -4.32619E+03 -5.95845E+03 -4.18096E+02 -8.74777E+03  5.13126E+03 -9.43786E+03  1.11859E+04 -4.59567E+03
  1.39452E+04  7.33173E+02  9.88208E+03  8.10053E+03  2.08768E+03  9.97800E+03 -6.42476E+03  8.76041E+03
 -7.75102E+03  2.19252E+03 -4.14752E+03 -1.65244E+03  1.79186E+03 -2.22306E+03  5.21757E+03 -1.21600E+03
  5.38891E+03  3.68081E+03  6.24236E+02  7.45254E+03 -5.35875E+03  7.71756E+03 -9.49826E+03  2.19277E+03
 -6.03913E+03 -4.22928E+03  3.76274E+02 -7.47900E+03  4.26626E+03 -4.18385E+03  4.60386E+03  1.49776E+03
  6.30284E+02  4.28090E+03 -4.09789E+03  5.85775E+03 -5.78155E+03  2.81306E+03 -5.99347E+03 -2.07664E+03
 -3.79790E+03 -7.32396E+03  1.90141E+03 -8.51683E+03  7.51292E+03 -4.83669E+03  7.97219E+03  1.50830E+03
  5.92541E+03  5.88243E+03 -9.97469E+01  8.74435E+03 -6.02412E+03  4.88913E+03 -6.45268E+03 -6.04672E+02
 -5.90578E+03 -5.81404E+03 -1.64332E+03 -6.23293E+03  2.99284E+03 -5.58616E+03  3.76193E+03 -2.76446E+03
  2.71390E+03  3.04794E-01 -3.01545E+02  1.73234E+03  2.84730E+02 -5.15854E+02  7.10691E+02 -2.71043E+03
  4.98526E+03 -1.51946E+03  7.39506E+03  5.31691E+02  6.64662E+03  4.17894E+03  5.25304E+03  9.44909E+03
 -1.88762E+03  1.06339E+04 -9.59744E+03  8.20224E+03 -1.25538E+04  1.12734E+03 -9.19060E+03 -4.02606E+03
 -5.45519E+03 -7.77594E+03 -2.23176E+02 -6.72610E+03  2.19202E+03 -3.37340E+03  2.54493E+03 -2.87048E+03
  1.66469E+03 -1.70090E+03  3.03088E+03 -2.34820E+03  4.28973E+03 -1.91529E+03  4.87405E+03 -2.70867E+02
  5.38469E+03  2.31857E+03  1.40526E+03  3.69326E+03 -1.39030E+03  3.62822E+03 -5.44962E+03  3.47302E+03
 -6.31697E+03 -1.43271E+03 -2.80863E+03 -4.18038E+03  4.85326E+02 -5.81699E+03  4.00441E+03 -6.21567E+03
  6.35229E+03 -3.62970E+03  8.01698E+03  2.11985E+01  5.88587E+03  5.86937E+03  1.64657E+03  7.55028E+03
 -3.17543E+03  6.81212E+03 -4.09383E+03  1.77178E+03 -2.81832E+03 -8.86330E+02 -1.14710E+03 -4.47193E+02
 -1.46891E+03  5.85357E+02 -9.32054E+02  1.99275E+03 -3.38704E+03  1.35992E+03 -4.64777E+03 -7.92876E+02
 -2.44054E+03 -5.09552E+03  1.09728E+03 -6.26927E+03  3.63720E+03 -5.37528E+03  5.14792E+03 -1.93260E+03
  5.13135E+03  2.94241E+03  2.29628E+03  3.96928E+03 -1.45809E+03  5.61672E+03 -3.45417E+03  3.68378E+03
 -5.31184E+03  2.07435E+02 -4.22788E+03 -2.71078E+03 -5.82544E+02 -3.95107E+03  2.04530E+03 -3.78152E+03
  3.01037E+03 -1.66419E+03  2.76517E+03  2.42140E+02  6.46588E+02  2.38203E+03  9.83971E+02  6.05851E+02
  2.11462E+03  5.36729E+02  1.68349E+03  9.48319E+02  1.80635E+03  3.29998E+03  2.04830E+03  2.36629E+03
 -1.07941E+03  4.03215E+03 -3.85788E+03  5.26012E+03 -3.93538E+03  1.38736E+03 -4.98596E+03 -6.13214E+02
 -2.79603E+03 -4.70451E+03  5.80643E+02 -5.37359E+03  3.00172E+03 -2.99566E+03  3.95112E+03 -6.28818E+02
  3.35125E+03  2.29137E+03  1.46979E+02  2.97370E+03 -8.77652E+02  1.51895E+03 -1.67349E+03  2.55341E+02
 -6.48214E+02 -2.18227E+03  1.43143E+03 -1.92546E+03  2.04811E+03 -7.97910E+02  1.42182E+03  3.35385E+02
  8.13006E+02  6.56291E+02  5.59856E+02  1.04269E+02 -4.10517E+02  6.56476E+02  1.65221E+03 -4.07980E+02
 -5.14048E+01 -3.26373E+02  2.31630E+03  6.47008E+02  2.69826E+02  2.78230E+03 -3.36437E+02  3.17145E+03
 -2.01682E+03  1.84124E+03 -2.49630E+03  1.18687E+03 -2.64557E+03 -6.72626E+02 -9.14123E+01 -8.19741E+02
  1.31174E+03 -1.96026E+03  2.01464E+03 -5.92633E+02  3.76665E+02  1.26654E+03 -9.85563E+02  1.50192E+03
 -1.90628E+03  2.11795E+02 -1.31177E+03 -1.60382E+03 -7.52017E+02 -2.67915E+03  6.37835E+02 -2.29974E+03
  8.27545E+02 -5.87442E+02  1.15191E+03  4.35343E+02  1.58837E+03 -7.15587E+01 -6.21937E+01  1.56473E+03
  5.76723E+01  2.44878E+02 -1.22717E+03 -5.52247E+02  4.48094E+02 -6.61652E+02  1.83039E+03 -1.40042E+03
  1.71927E+03  2.80919E+02  3.00465E+03  1.54324E+03  1.51989E+03  2.34702E+03  5.41927E+01  2.28106E+03
 -1.88425E+03  3.50541E+02 -2.29044E+03 -1.51602E+02 -5.24537E+02 -1.93314E+03 -7.61595E+01 -1.29591E+03
  1.74553E+03 -9.40148E+02  1.24879E+03  4.45543E+02  6.64258E+02  1.84776E+03  9.62175E+01  1.57930E+03
 -1.87363E+02  1.16173E+03 -9.98025E+02  3.94345E+02 -4.11131E+02  4.77838E+02 -8.25468E+02  2.97501E+01
 -2.77750E+02  1.14123E+03 -2.19169E+03  9.93305E+02 -2.21230E+03  1.18412E+02 -3.58969E+03 -1.34471E+03
 -1.32249E+03 -2.73050E+03  1.11134E+02 -3.91499E+03  2.59727E+03 -3.28464E+03  3.90066E+03 -1.62656E+03
  3.28847E+03 -1.72583E+01  1.29879E+03  2.51169E+03 -5.20256E+01  2.08206E+03 -8.65420E+02  1.51254E+03
 -1.03561E+03  6.80329E+02 -5.41565E+02  1.57314E+02  2.66041E+02 -8.70664E+01 -1.00042E+03  6.27227E+02
 -1.38948E+03 -1.88101E+02 -5.04071E+02  1.90912E+02  1.05860E+02 -4.10249E+02 -5.36281E+02 -8.07018E+02
  1.56313E+03 -6.25729E+02  3.56824E+02 -1.31403E+02  1.44741E+03  1.24726E+03  1.48274E+02  2.10499E+03
 -1.23293E+03  2.46579E+03 -2.54270E+03  1.75921E+03 -2.57858E+03 -5.78200E+01 -2.03528E+03 -1.96646E+03
 -5.15417E+02 -1.45979E+03  4.49048E+02 -1.65808E+03  7.21481E+02 -1.03516E+03  1.24950E+03 -9.46519E+01
  9.14404E+02  9.49319E+02 -5.10211E+01  5.96268E+02 -2.99443E+02 -6.50150E+02 -2.02848E+02 -5.34751E+02
  7.48565E+02  1.44128E+02  6.28238E+02  2.78842E+02 -1.93770E+02  1.15892E+02  4.53799E+02  4.16840E+02
 -1.29744E+03  1.04086E+03 -3.80147E+02 -2.85689E+02 -1.46199E+03 -6.23359E+02 -2.21744E+02 -1.30440E+03
  9.51406E+02 -9.87720E+02  8.38109E+02 -5.70825E+02  8.89244E+02  1.11788E+02  3.81595E+02  9.44195E+02
  1.32074E+02  1.13906E+03 -9.28678E+01  1.38485E+03 -2.66222E+02  2.23398E+02 -6.34234E+02  4.92937E+02
 -5.36608E+02 -4.56150E+02 -9.72625E+02  1.40775E+02 -5.12928E+02  1.27206E+02 -2.40184E+02 -2.86641E+02
 -1.29233E+03  3.29067E+02 -7.64219E+02 -1.00139E+03  3.37843E+02 -1.76394E+03  9.31573E+02 -6.03384E+02
  1.08636E+03  1.60771E+02 -2.44991E+02  8.15770E+02 -2.63750E+01  9.82189E+02 -4.25205E+02  1.27387E+03
