 $NMID ID='MM_0lb_SNR400_11hz_g55_42.RAW', FMTDAT='(8E13.5)'
 TRAMP=1., VOLUME=1. $END
  3.09531E+05  3.76043E+02  3.38052E+05  2.50859E+05  8.50677E+04  3.38667E+05 -1.33087E+05  2.51675E+05
 -1.91085E+05  8.37752E+04 -1.12892E+05 -3.18552E+04  1.35669E+02 -4.98258E+04  5.31846E+04 -2.20241E+02
  3.56349E+04  5.28154E+04 -1.69683E+04  7.64560E+04 -6.09695E+04  6.41681E+04 -8.56645E+04  3.24234E+04
 -8.20196E+04 -1.13724E+04 -5.74506E+04 -5.25005E+04 -1.56778E+04 -7.03891E+04  2.83196E+04 -4.66539E+04
  4.07977E+04  4.08489E+03  1.62728E+04  4.80478E+04 -3.48701E+04  4.76728E+04 -6.83394E+04 -4.69991E+01
 -5.42135E+04 -5.77237E+04 -7.17772E+03 -7.86501E+04  3.45104E+04 -5.66119E+04  4.85239E+04 -1.74319E+04
  4.49458E+04  1.14560E+04  3.28459E+04  2.67856E+04  1.59661E+04  3.06062E+04 -6.28189E+03  2.79112E+04
 -2.22137E+04  1.17388E+04 -1.78466E+04 -5.08445E+03  5.47604E+03 -7.88073E+03  2.32239E+04  1.31763E+04
  7.35068E+03  3.65284E+04 -3.35210E+04  3.74624E+04 -6.52980E+04  2.60203E+03 -5.72668E+04 -4.46406E+04
 -1.28585E+04 -6.50574E+04  4.09316E+04 -4.69667E+04  6.08336E+04 -1.87764E+03  3.58350E+04  3.41349E+04
 -5.64068E+03  3.82549E+04 -3.12803E+04  1.78548E+04 -3.27289E+04 -4.08256E+03 -1.85259E+04 -1.15160E+04
 -9.53469E+03 -1.46231E+04 -5.58231E+02 -1.96854E+04  8.03086E+03 -2.32820E+04  1.60128E+04 -1.27547E+04
  1.13504E+04  6.82167E+03 -1.02114E+04  1.25545E+04 -2.30212E+04 -5.29899E+03 -8.31823E+03 -3.61846E+04
  2.48430E+04 -4.58212E+04  5.11105E+04 -2.09347E+04  4.78058E+04  2.05186E+04  1.73523E+04  4.62034E+04
 -1.60075E+04  3.50885E+04 -2.71722E+04  2.26085E+03 -1.01151E+04 -2.84534E+04  2.18373E+04 -3.55930E+04
  4.34229E+04 -1.00438E+04  3.88507E+04  2.42557E+04  2.04576E+04  4.94616E+04 -8.12708E+03  5.45688E+04
 -3.51291E+04  3.76884E+04 -4.50316E+04  1.10988E+04 -4.59814E+04 -1.80266E+04 -2.51306E+04 -4.01581E+04
  8.16522E+03 -4.10193E+04  3.34962E+04 -1.65863E+04  3.16487E+04  1.13648E+04  5.14855E+03  2.03858E+04
 -1.38408E+04  9.03400E+03 -1.04087E+04 -6.81691E+03  6.02195E+03 -1.04503E+04  1.91787E+04  5.66776E+03
  1.48108E+04  2.19492E+04 -5.76061E+03  2.62177E+04 -2.31282E+04  1.37500E+04 -3.02453E+04 -3.64706E+03
 -2.44082E+04 -1.77645E+04 -1.08199E+04 -2.35521E+04  3.91679E+03 -2.41323E+04  1.92424E+04 -2.17192E+04
  3.09142E+04 -1.36963E+04  3.64928E+04  4.05946E+03  2.60314E+04  2.31266E+04  4.59270E+03  4.02320E+04
 -1.91513E+04  3.38747E+04 -3.00191E+04  1.13878E+04 -2.14641E+04 -1.09839E+04 -4.53431E+03 -1.31399E+04
  1.15897E+03 -1.72730E+03 -6.41156E+03  7.49627E+03 -1.87851E+04  4.91366E+03 -1.94401E+04 -8.62691E+03
 -1.17052E+04 -2.24749E+04  5.74913E+03 -2.60867E+04  1.71677E+04 -1.91279E+04  2.16342E+04 -2.01714E+03
  1.39523E+04  1.58450E+04 -1.93156E+03  2.22196E+04 -1.56098E+04  1.35684E+04 -2.23561E+04 -4.17132E+03
 -1.65576E+04 -1.88143E+04 -2.30616E+03 -2.72328E+04  1.21877E+04 -2.17198E+04  2.20029E+04 -1.11385E+04
  2.09200E+04  1.21176E+02  1.52504E+04  4.95996E+03  8.03021E+03  1.14109E+03  1.20956E+04 -1.80778E+03
  2.02793E+04  3.01205E+03  2.33262E+04  1.71595E+04  1.63831E+04  3.57522E+04 -3.24914E+03  4.14393E+04
 -2.27175E+04  3.42616E+04 -3.86680E+04  1.82829E+04 -4.07671E+04 -3.08735E+03 -3.37946E+04 -2.40209E+04
 -1.33037E+04 -3.45273E+04  1.08569E+04 -3.08844E+04  2.60513E+04 -1.47127E+04  2.28130E+04  7.65353E+03
  7.82343E+03  1.73221E+04 -1.07608E+04  1.45353E+04 -1.87919E+04  2.21847E+03 -1.39394E+04 -1.18843E+04
 -4.87913E+02 -1.81410E+04  9.80535E+03 -1.40809E+04  1.26561E+04 -1.33331E+03  3.08827E+03  8.35456E+03
 -7.68104E+03  3.27942E+03 -8.48782E+03 -6.06834E+03 -1.59158E+03 -1.72368E+04  1.08655E+04 -1.73719E+04
  2.03262E+04 -9.87277E+03  2.28233E+04  3.11208E+03  2.07219E+04  1.65457E+04  9.43120E+03  2.63607E+04
 -5.38859E+03  2.84273E+04 -1.80694E+04  1.77347E+04 -2.09332E+04  3.63957E+03 -1.37373E+04 -5.34872E+03
 -6.15029E+03 -6.84283E+03 -1.03452E+03  1.10869E+03 -2.63678E+03  3.39957E+03 -6.70320E+03  6.10327E+03
 -1.25702E+04 -9.52953E+02 -1.30280E+04 -1.11769E+04 -5.26826E+03 -1.85504E+04  5.73288E+03 -1.43168E+04
  1.19542E+04 -5.77102E+03  8.02312E+03  3.94502E+03  8.87264E+01  4.76405E+03 -6.61196E+03  2.07924E+01
 -6.54644E+03 -9.38290E+03 -8.04704E+02 -1.40063E+04  8.30573E+03 -1.48695E+04  1.80150E+04 -7.80283E+03
  2.11134E+04  2.07059E+03  1.54336E+04  1.28954E+04  2.86124E+03  1.65727E+04 -8.94259E+03  1.34871E+04
 -1.08075E+04  4.60758E+03 -5.96149E+03 -3.04728E+03  1.70938E+03 -3.76638E+03  7.69814E+03 -1.69655E+03
  6.06419E+03  6.56623E+03  4.02821E+02  1.07143E+04 -8.25980E+03  1.06244E+04 -1.42334E+04  2.21992E+03
 -9.31718E+03 -7.79221E+03 -9.28239E+01 -1.20539E+04  7.43272E+03 -5.96165E+03  7.66934E+03  3.01769E+03
  1.85830E+03  9.18635E+03 -7.28341E+03  1.01390E+04 -1.18084E+04  4.60731E+03 -1.21281E+04 -4.68740E+03
 -6.01338E+03 -1.40944E+04  3.33972E+03 -1.52786E+04  1.28497E+04 -9.98448E+03  1.39673E+04  2.61619E+03
  8.05486E+03  1.15180E+04 -1.09110E+03  1.37984E+04 -9.88346E+03  7.24890E+03 -1.04767E+04 -1.29003E+03
 -9.32849E+03 -8.60166E+03 -2.17475E+03 -1.06952E+04  5.90948E+03 -9.01348E+03  6.25125E+03 -3.01887E+03
  4.90361E+03  2.14520E+03 -1.25296E+03  1.83074E+03 -8.94531E+02 -2.29298E+03  1.81658E+03 -6.12092E+03
  9.44543E+03 -3.37434E+03  1.37159E+04  2.33883E+03  1.29519E+04  8.96665E+03  9.71910E+03  1.79001E+04
 -4.14950E+03  2.09020E+04 -1.76042E+04  1.48253E+04 -2.29659E+04  2.53567E+03 -1.78071E+04 -7.20634E+03
 -8.59610E+03 -1.39684E+04 -1.16796E+02 -1.25974E+04  3.90813E+03 -6.59259E+03  4.03467E+03 -4.30538E+03
  3.36300E+03 -1.75880E+03  3.56237E+03 -4.01307E+03  5.09374E+03 -3.10362E+03  6.75516E+03 -1.23304E+03
  9.65244E+03  2.71330E+03  5.16073E+03  8.92726E+03 -1.74448E+03  8.65823E+03 -9.52142E+03  7.22467E+03
 -1.30279E+04 -5.47676E+02 -7.56037E+03 -8.10982E+03 -1.06708E+03 -1.33709E+04  7.07588E+03 -1.37787E+04
  1.36147E+04 -7.70368E+03  1.66998E+04  1.80644E+03  1.13143E+04  1.20526E+04  1.75694E+03  1.42027E+04
 -6.14393E+03  1.27154E+04 -9.28202E+03  4.45904E+03 -5.68411E+03 -9.75300E+02 -2.06067E+03 -1.73311E+03
 -1.09420E+03 -5.34344E+02 -2.44545E+03  2.95036E+03 -5.77256E+03  2.59443E+03 -9.09241E+03 -4.88437E+02
 -6.04523E+03 -8.64716E+03  9.07903E+02 -1.18357E+04  7.18386E+03 -1.17429E+04  1.21094E+04 -3.27283E+03
  1.20483E+04  6.23766E+03  5.35665E+03  1.04225E+04 -2.51189E+03  1.24442E+04 -8.67897E+03  7.03989E+03
 -1.08517E+04  7.91999E+02 -9.24295E+03 -7.08948E+03 -1.51678E+03 -1.03587E+04  5.04512E+03 -7.42715E+03
  7.37718E+03 -2.24149E+03  5.32703E+03  2.18658E+03  2.20461E+03  3.64348E+03  1.31513E+03  1.70646E+03
  1.82903E+03  1.13399E+03  2.48128E+03  1.47103E+03  3.14590E+03  4.83362E+03  1.99993E+03  6.44542E+03
 -2.48851E+03  1.01181E+04 -9.24245E+03  9.59854E+03 -1.16524E+04  1.95755E+03 -1.26004E+04 -4.78929E+03
 -5.38736E+03 -1.18704E+04  1.81520E+03 -1.32059E+04  7.21262E+03 -8.93369E+03  9.69738E+03 -2.27014E+03
  7.76633E+03  4.40671E+03  1.63347E+03  6.42395E+03 -4.38909E+03  4.21614E+03 -4.45006E+03 -1.24118E+03
 -2.17051E+03 -4.77493E+03  3.16367E+03 -5.53702E+03  4.43565E+03 -2.29515E+03  5.12573E+03  6.87719E+02
  2.63685E+03  2.49554E+03  6.84291E+02  2.02968E+03 -1.53883E+03  1.46172E+03  1.92703E+03 -6.84179E+02
  1.65106E+03 -1.98656E+02  5.91501E+03  2.02305E+03  2.77811E+03  7.08878E+03 -1.13990E+03  8.68469E+03
 -5.77531E+03  5.50352E+03 -6.93307E+03  1.33321E+03 -6.68858E+03 -2.58277E+03 -2.40687E+03 -4.70567E+03
  3.95049E+02 -4.79341E+03  2.72283E+03 -2.34793E+03  2.50481E+03  2.70077E+03 -1.15986E+03  3.89929E+03
 -4.70854E+03  1.95191E+03 -6.07092E+03 -3.00437E+03 -3.38127E+03 -6.53749E+03  1.25771E+03 -6.50291E+03
  3.67241E+03 -4.54248E+03  4.57612E+03 -1.00693E+03  4.36934E+03  1.56844E+03  3.68988E+02  4.38457E+03
 -3.46495E+03  4.83514E+02 -3.23152E+03 -1.95835E+03  1.14076E+03 -5.46956E+03  5.44637E+03 -4.27868E+03
  7.41379E+03  9.47022E+02  6.83821E+03  5.31149E+03  2.91724E+03  7.37085E+03 -3.03879E+03  6.97043E+03
 -6.47800E+03  2.90278E+03 -6.20081E+03 -1.20262E+03 -3.04337E+03 -4.65342E+03  8.09994E+02 -4.89456E+03
  5.01276E+03 -2.45803E+03  3.76764E+03  2.00300E+03  1.32623E+03  4.04113E+03 -3.47909E+02  3.66256E+03
 -1.85275E+03  2.89334E+03 -2.25047E+03  7.94779E+02 -1.16845E+03  6.44909E+02 -1.32982E+03  1.29557E+03
 -1.74774E+03  3.26714E+03 -5.37500E+03  2.88250E+03 -7.75563E+03  6.53922E+01 -9.24649E+03 -5.45878E+03
 -4.27644E+03 -9.39476E+03  1.99340E+03 -1.13788E+04  7.24351E+03 -8.93558E+03  1.05835E+04 -2.91870E+03
  1.05258E+04  1.87511E+03  6.61134E+03  6.75966E+03  9.57193E+01  7.04832E+03 -3.39133E+03  5.84640E+03
 -3.75242E+03  2.21827E+03 -2.75120E+03 -1.13815E+03 -1.14112E+03  2.49070E+02 -7.89862E+02 -1.40359E+02
 -1.72862E+03  2.51812E+02 -1.65302E+03 -1.16557E+02 -1.24618E+03 -2.10840E+03  5.14268E+02 -2.78179E+03
  4.24722E+03 -2.58122E+03  4.16866E+03  7.67879E+02  5.17607E+03  4.67598E+03  1.38711E+03  6.86083E+03
 -3.31294E+03  8.85357E+03 -7.29799E+03  4.69933E+03 -8.81165E+03 -4.10486E+02 -6.50767E+03 -6.19776E+03
 -3.50996E+03 -7.12561E+03  2.33361E+03 -6.94575E+03  4.43665E+03 -2.95222E+03  4.91447E+03  1.51017E+02
  2.72722E+03  1.96033E+03 -1.36954E+03  2.40466E+03 -1.60685E+03 -1.11960E+02  3.93780E+02 -2.02398E+03
  2.27119E+03 -1.21907E+03  2.44999E+03  1.61624E+03  2.95364E+03  3.39781E+03 -4.74808E+00  3.90818E+03
 -3.23835E+03  3.72130E+03 -5.03645E+03  2.63028E+02 -4.54400E+03 -4.30812E+03 -1.38608E+03 -6.64766E+03
  2.67578E+03 -4.64578E+03  5.76354E+03 -1.75256E+03  5.66139E+03  5.52062E+02  3.52161E+03  4.43730E+03
  8.10157E+02  4.87490E+03 -1.20963E+03  3.72647E+03 -3.02106E+03  1.73008E+03 -2.53433E+03  7.09001E+01
 -1.43727E+03 -2.39118E+01 -2.33149E+03  9.01202E+01 -3.78162E+03  1.21110E+03 -4.18655E+03 -1.01189E+03
 -4.20486E+03 -2.12742E+03 -2.60881E+03 -4.71255E+03  2.56326E+03 -4.95172E+03  4.05544E+03 -2.27726E+03
  4.32234E+03 -7.60270E+01  2.58416E+03  3.19829E+03 -1.80788E+02  5.04775E+03 -3.83317E+03  2.69747E+03
