 $NMID ID='MM_0lb_SNR400_18hz_g40_87.RAW', FMTDAT='(8E13.5)'
 TRAMP=1., VOLUME=1. $END
  3.10073E+05  4.25830E+02  3.37732E+05  2.49847E+05  8.41018E+04  3.37856E+05 -1.32217E+05  2.50201E+05
 -1.89350E+05  8.24968E+04 -1.10623E+05 -3.23311E+04  1.18550E+03 -5.05580E+04  5.34129E+04  6.19318E+02
  3.50103E+04  5.32723E+04 -1.67573E+04  7.44321E+04 -6.03151E+04  6.25604E+04 -8.25739E+04  3.14400E+04
 -7.94442E+04 -1.11423E+04 -5.64730E+04 -4.97677E+04 -1.48551E+04 -6.81005E+04  2.67013E+04 -4.47507E+04
  3.83131E+04  3.63113E+03  1.54853E+04  4.67509E+04 -3.36687E+04  4.60790E+04 -6.52731E+04 -6.77103E+02
 -5.21804E+04 -5.52667E+04 -6.31633E+03 -7.51149E+04  3.28575E+04 -5.26114E+04  4.61608E+04 -1.63905E+04
  4.14751E+04  1.15517E+04  3.06426E+04  2.44798E+04  1.61339E+04  2.84653E+04 -4.39398E+03  2.62666E+04
 -2.14807E+04  1.25435E+04 -1.85949E+04 -4.49732E+03  4.52816E+03 -7.59435E+03  2.08433E+04  1.06764E+04
  7.20438E+03  3.31236E+04 -2.94275E+04  3.39187E+04 -6.08823E+04  2.04705E+03 -5.55289E+04 -4.06832E+04
 -1.21225E+04 -6.02595E+04  3.80103E+04 -4.29954E+04  5.48410E+04 -2.00070E+03  3.19727E+04  3.02917E+04
 -6.96452E+03  3.26623E+04 -2.81131E+04  1.31736E+04 -2.68259E+04 -5.07068E+03 -1.45670E+04 -1.02313E+04
 -7.70726E+03 -1.18264E+04 -8.12910E+02 -1.65311E+04  6.47224E+03 -2.24160E+04  1.49176E+04 -1.45330E+04
  1.21607E+04  4.25442E+03 -6.08520E+03  1.34552E+04 -1.89305E+04 -2.24883E+03 -7.77088E+03 -3.01963E+04
  2.03268E+04 -4.05344E+04  4.38780E+04 -1.85471E+04  4.18663E+04  1.79258E+04  1.39594E+04  4.14145E+04
 -1.51586E+04  3.07059E+04 -2.29482E+04  9.87183E+02 -8.70534E+03 -2.64985E+04  2.01180E+04 -3.13716E+04
  3.81445E+04 -7.51565E+03  3.14057E+04  2.29545E+04  1.46545E+04  4.22520E+04 -7.48170E+03  4.42104E+04
 -2.81911E+04  2.93986E+04 -3.70205E+04  7.80639E+03 -3.78839E+04 -1.50387E+04 -2.12753E+04 -3.39124E+04
  6.38306E+03 -3.36758E+04  2.86175E+04 -1.23668E+04  2.67168E+04  1.08969E+04  2.76794E+03  1.71143E+04
 -1.33068E+04  7.33000E+03 -9.42310E+03 -7.40886E+03  5.79482E+03 -1.01261E+04  1.71891E+04  6.58866E+03
  1.24344E+04  2.15110E+04 -7.07442E+03  2.31159E+04 -2.15215E+04  8.87977E+03 -2.46782E+04 -6.68994E+03
 -1.65376E+04 -1.59230E+04 -5.44507E+03 -1.67417E+04  4.13426E+03 -1.43659E+04  1.21461E+04 -1.39205E+04
  2.10927E+04 -1.12565E+04  2.80494E+04  8.89103E+02  2.16607E+04  1.62594E+04  4.18533E+03  3.19257E+04
 -1.57262E+04  2.77791E+04 -2.57815E+04  9.33443E+03 -1.95468E+04 -1.04985E+04 -3.87151E+03 -1.33738E+04
  2.50617E+03 -4.04391E+03 -2.67760E+03  5.21473E+03 -1.30653E+04  4.86912E+03 -1.32870E+04 -4.76958E+03
 -7.74567E+03 -1.53353E+04  4.39800E+03 -1.93803E+04  1.20731E+04 -1.38895E+04  1.44186E+04 -1.20538E+03
  9.03012E+03  1.07691E+04 -7.33151E+02  1.51400E+04 -1.00720E+04  9.03054E+03 -1.50446E+04 -3.45064E+03
 -1.13129E+04 -1.37491E+04 -1.46930E+03 -1.83635E+04  8.16144E+03 -1.51314E+04  1.62798E+04 -6.98655E+03
  1.43893E+04  6.50709E+02  1.01842E+04  3.81280E+03  4.98299E+03  2.81965E+02  7.51746E+03 -1.42471E+03
  1.39088E+04  2.87483E+03  1.47077E+04  1.25162E+04  8.79633E+03  2.51080E+04 -2.62952E+03  2.68388E+04
 -1.56376E+04  2.00878E+04 -2.39979E+04  9.42149E+03 -2.49400E+04 -2.33303E+03 -2.14624E+04 -1.33629E+04
 -1.03032E+04 -1.96962E+04  6.37537E+03 -1.87619E+04  1.61970E+04 -1.06765E+04  1.53035E+04  3.58020E+03
  6.63242E+03  1.07772E+04 -6.75044E+03  1.05230E+04 -1.33549E+04  2.70415E+03 -1.00147E+04 -7.73890E+03
 -1.89513E+02 -1.29205E+04  5.79413E+03 -9.63260E+03  7.98026E+03 -1.16521E+03  1.41279E+03  4.82946E+03
 -5.67221E+03  7.01510E+02 -3.81945E+03 -4.96702E+03  6.80917E+02 -1.00197E+04  7.87392E+03 -1.04663E+04
  1.19275E+04 -4.83625E+03  1.18287E+04  2.93703E+03  9.89027E+03  9.79133E+03  5.42644E+03  1.39182E+04
 -1.85126E+03  1.55971E+04 -9.90039E+03  1.03739E+04 -1.08280E+04  3.30855E+03 -7.56284E+03 -1.78663E+03
 -4.44264E+03 -3.23421E+03 -7.35121E+02  1.88834E+03 -2.38217E+03  2.10498E+03 -3.50976E+03  3.49771E+03
 -8.13833E+03 -9.27152E+02 -8.92685E+03 -6.98972E+03 -3.23086E+03 -1.10820E+04  3.71400E+03 -8.66384E+03
  7.02887E+03 -4.07536E+03  5.44707E+03  2.47667E+03  6.39004E+02  2.86812E+03 -3.71595E+03  3.07093E+01
 -3.50425E+03 -5.86562E+03 -8.01635E+02 -6.95967E+03  3.52392E+03 -8.03114E+03  9.79159E+03 -3.73868E+03
  1.14286E+04  5.71881E+02  8.86479E+03  6.56960E+03  1.55458E+03  8.89390E+03 -5.05996E+03  8.17705E+03
 -6.91885E+03  2.93822E+03 -3.21057E+03 -9.51016E+02  1.55060E+03 -1.92097E+03  4.93863E+03 -1.16983E+03
  4.20114E+03  3.36382E+03  7.52332E+02  6.15904E+03 -4.44318E+03  6.41426E+03 -7.88776E+03  1.54148E+03
 -4.81181E+03 -3.56722E+03  2.73546E+02 -7.03459E+03  3.67896E+03 -3.12462E+03  3.21267E+03  1.56274E+03
  4.03919E+02  3.57543E+03 -4.08591E+03  4.26607E+03 -4.83244E+03  2.23636E+03 -4.91601E+03 -7.47714E+02
 -3.04460E+03 -5.64433E+03  5.68938E+02 -6.77871E+03  6.39451E+03 -5.11439E+03  6.52087E+03  1.03757E+03
  4.46611E+03  5.55722E+03  3.29493E+02  7.33569E+03 -5.15154E+03  4.41663E+03 -5.01372E+03 -4.88565E+02
 -6.15688E+03 -5.18572E+03 -1.02551E+03 -4.84300E+03  2.57208E+03 -4.58060E+03  2.97104E+03 -3.15162E+03
  3.34206E+03  1.94985E+02  1.53319E+02  1.48480E+03  2.94840E+02 -3.79156E+02  6.95311E+02 -2.03113E+03
  3.88914E+03 -9.54433E+02  4.97584E+03  5.93715E+02  5.32952E+03  3.08460E+03  5.15476E+03  7.56707E+03
 -1.54502E+03  8.94471E+03 -7.62141E+03  6.63889E+03 -1.02882E+04  7.27182E+02 -8.29212E+03 -2.55526E+03
 -4.37931E+03 -7.00101E+03  1.88013E+02 -4.97500E+03  2.08881E+03 -2.07855E+03  1.91414E+03 -1.76149E+03
  1.77526E+03 -1.05092E+03  2.56017E+03 -2.36822E+03  3.82583E+03 -1.42795E+03  3.70702E+03  3.69333E+02
  4.65237E+03  1.15462E+03  1.29615E+03  3.54631E+03 -1.51940E+03  2.99522E+03 -4.67240E+03  2.54647E+03
 -4.81109E+03 -1.02288E+03 -1.86670E+03 -3.77735E+03  7.04768E+02 -5.32219E+03  3.19702E+03 -5.46819E+03
  5.66487E+03 -3.16313E+03  6.68985E+03  5.00706E+02  4.89484E+03  4.98498E+03  8.23430E+02  5.98134E+03
 -2.58721E+03  6.23687E+03 -3.39615E+03  2.06088E+03 -1.94504E+03 -5.84896E+02 -5.58202E+02 -1.81465E+02
 -8.04514E+02  9.60342E+02 -7.81516E+02  1.72388E+03 -2.81784E+03  9.23476E+02 -4.07156E+03 -3.83605E+02
 -1.74336E+03 -3.58590E+03  4.12002E+02 -4.60056E+03  2.70090E+03 -4.56357E+03  3.85352E+03 -1.12144E+03
  3.87206E+03  2.59659E+03  2.12647E+03  3.64381E+03 -1.40913E+03  4.61131E+03 -2.92071E+03  3.27788E+03
 -3.74269E+03  8.01485E+02 -3.09504E+03 -2.36199E+03 -2.69555E+02 -2.90280E+03  1.42846E+03 -2.83354E+03
  2.20789E+03 -1.03545E+03  2.61931E+03  1.12897E+03  7.41462E+01  1.57566E+03  1.01864E+03  4.02513E+02
  1.69266E+03  2.80962E+02  7.85575E+02  1.41314E+03  1.32186E+03  2.32278E+03  1.35934E+03  1.77031E+03
 -1.63341E+03  3.56703E+03 -2.91141E+03  4.10144E+03 -2.97129E+03  1.21865E+03 -4.52307E+03 -3.57445E+02
 -2.13301E+03 -3.79201E+03  2.75256E+02 -4.79990E+03  1.52732E+03 -2.51211E+03  2.93832E+03 -4.89449E+02
  2.56585E+03  2.07595E+03  4.36739E+02  2.06661E+03 -5.64516E+02  1.39493E+03 -1.06342E+03 -4.31590E+01
 -6.53586E+02 -1.53194E+03  1.63721E+03 -1.52799E+03  1.13600E+03 -1.50456E+03  1.10793E+03 -2.22209E+02
  1.01467E+03  3.14041E+02  1.03562E+03 -1.95153E+02 -1.22590E+02  9.22562E+02  1.76031E+03 -1.26537E+02
  8.71702E+01 -6.49061E+01  2.34975E+03  4.82210E+02  3.36237E+02  2.83888E+03 -4.89004E+02  2.60506E+03
 -1.99056E+03  1.16639E+03 -2.29616E+03  8.06491E+01 -2.57915E+03 -7.04989E+02 -4.14276E+02 -1.02498E+03
  5.91923E+02 -8.85795E+02  1.14731E+03 -6.19624E+02  4.30743E+02  9.42569E+02 -8.81481E+02  1.33730E+03
 -1.37707E+03  4.50799E+02 -1.28495E+03 -1.47042E+03 -7.26121E+02 -2.63652E+03  1.68002E+02 -1.96661E+03
  9.39243E+02 -1.19986E+02  3.63004E+02 -2.27665E+02  1.24270E+03  4.67527E+02  3.76851E+02  1.28906E+03
 -5.28432E+02 -2.63776E+02 -9.88866E+02 -4.03154E+02  8.35263E+02 -9.35255E+02  2.05676E+03 -1.54251E+03
  1.67040E+03  9.37346E+00  3.01772E+03  8.58429E+02  1.39646E+03  1.63715E+03 -8.51882E+02  2.36340E+03
 -1.82844E+03  2.98867E+02 -1.17939E+03 -5.90190E+02 -1.08892E+03 -1.33847E+03 -7.36689E+01 -8.99885E+02
  1.95229E+03 -5.51972E+02  1.34392E+03  2.25031E+02  3.54007E+02  1.59320E+03  5.83196E+02  7.49123E+02
 -7.32741E+02  1.25476E+03 -9.44434E+02  4.48219E+02  7.11432E+02  2.16065E+02 -3.37886E+02  2.68763E+02
 -4.71880E+02  1.02773E+03 -1.45730E+03  2.39315E+02 -2.30883E+03  2.01668E+01 -2.65878E+03 -8.46277E+02
 -1.16675E+03 -2.07915E+03  8.71025E+02 -2.65143E+03  1.43442E+03 -2.79235E+03  2.82792E+03 -1.36237E+03
  2.67324E+03 -1.94125E+02  1.37786E+03  1.82592E+03 -9.79704E+02  1.74295E+03 -5.35356E+02  1.05283E+03
 -5.79322E+02  6.90041E+02 -4.70412E+02 -1.05947E+03  2.05387E+01  1.98666E+02 -7.63603E+02  5.20309E+01
 -8.20754E+02 -1.09107E+03 -8.56476E+02 -1.90603E+02 -8.19268E+01 -4.85525E+02 -2.01777E+02 -1.00144E+03
  1.07865E+03 -1.47993E+02  2.76027E+02  8.34360E+02  1.54874E+03  1.11759E+03  3.83451E+01  2.04880E+03
 -7.54207E+02  2.33815E+03 -1.87545E+03  1.58362E+03 -2.54383E+03 -1.21479E+01 -1.65475E+03 -1.72808E+03
 -1.14703E+03 -1.86024E+03  7.68817E+02 -1.61620E+03  1.05314E+03 -1.11544E+02  5.98125E+02 -3.05800E+01
  1.22780E+03  1.84546E+02  7.49148E+01  6.17282E+02 -3.59282E+02  7.47108E+01 -3.79814E+02 -4.42198E+02
 -1.29382E+02  7.51601E+02  2.86437E+02  2.63302E+02 -2.36494E+02  1.21091E+02  9.16305E+01  1.66172E+02
 -8.46369E+02  1.81342E+02 -4.79943E+02  3.93716E+02 -1.30317E+03 -6.10363E+02  4.08979E+02 -1.28751E+03
  8.01186E+02 -7.48707E+02  2.48627E+02 -4.37341E+02  8.96435E+02 -8.70403E+02  6.38232E+02  7.21309E+02
  1.68580E+02  1.13438E+02 -6.75898E+02  1.23853E+03 -7.84999E+02  1.94023E+02 -5.00340E+02 -8.57833E+01
  2.65777E+02 -6.82616E+02 -6.40224E+02  4.14474E+02 -8.97731E+02 -6.05044E+01 -9.10470E+02  1.39617E+01
 -8.22303E+02  3.52571E+02  7.92859E+01 -9.90884E+02  4.50830E+02 -1.47981E+03  1.01213E+03 -1.32445E+02
  3.29916E+02 -4.64321E+02 -2.63547E+02  8.97275E+02 -1.11860E+01  9.25884E+02 -5.97615E+02  7.54809E+02
