 $NMID ID='MM_0lb_SNR400_7hz_g55_31.RAW', FMTDAT='(8E13.5)'
 TRAMP=1., VOLUME=1. $END
  3.09207E+05 -1.55416E+02  3.38081E+05  2.51067E+05  8.50079E+04  3.37368E+05 -1.32564E+05  2.52820E+05
 -1.92434E+05  8.44644E+04 -1.12770E+05 -3.24287E+04 -4.58602E+02 -5.07529E+04  5.37417E+04 -1.88292E+02
  3.61748E+04  5.31065E+04 -1.62757E+04  7.55069E+04 -6.12701E+04  6.38948E+04 -8.57120E+04  3.33199E+04
 -8.26200E+04 -1.23812E+04 -5.89770E+04 -5.24469E+04 -1.46390E+04 -7.17795E+04  2.82739E+04 -4.81949E+04
  4.24304E+04  3.31937E+03  1.70662E+04  4.89363E+04 -3.64439E+04  4.84882E+04 -6.88494E+04  4.94797E+02
 -5.59126E+04 -5.77343E+04 -7.38893E+03 -7.94917E+04  3.50286E+04 -5.83313E+04  5.15375E+04 -1.91556E+04
  4.64858E+04  1.16552E+04  3.34174E+04  2.67065E+04  1.53069E+04  3.08925E+04 -6.30900E+03  2.78206E+04
 -2.22547E+04  1.11540E+04 -1.84426E+04 -6.64451E+03  7.99727E+03 -7.54214E+03  2.35488E+04  1.43533E+04
  7.39027E+03  3.85930E+04 -3.53443E+04  3.84105E+04 -6.77268E+04  3.37692E+03 -5.96696E+04 -4.55586E+04
 -1.26809E+04 -6.69882E+04  4.24012E+04 -4.88200E+04  6.27952E+04 -2.76865E+03  3.71027E+04  3.48279E+04
 -5.71320E+03  4.15935E+04 -3.26920E+04  2.03121E+04 -3.52100E+04 -2.13572E+03 -2.09255E+04 -1.24311E+04
 -9.69881E+03 -1.53442E+04 -1.69122E+02 -2.07517E+04  9.15981E+03 -2.44690E+04  1.70385E+04 -1.29878E+04
  1.04722E+04  6.79587E+03 -1.19134E+04  1.23240E+04 -2.35038E+04 -8.50907E+03 -8.89624E+03 -3.82895E+04
  2.56281E+04 -4.79152E+04  5.38831E+04 -2.24557E+04  5.02062E+04  2.13978E+04  1.81776E+04  4.83685E+04
 -1.66673E+04  3.74632E+04 -2.93673E+04  3.40206E+03 -1.32418E+04 -3.08093E+04  2.19723E+04 -3.76726E+04
  4.58526E+04 -1.33206E+04  4.24845E+04  2.50863E+04  2.36692E+04  5.31453E+04 -8.53127E+03  5.94183E+04
 -3.81201E+04  3.98839E+04 -5.01647E+04  1.19299E+04 -5.05293E+04 -1.98985E+04 -2.79558E+04 -4.58863E+04
  7.20876E+03 -4.46938E+04  3.57240E+04 -1.81337E+04  3.28941E+04  1.11918E+04  5.58347E+03  2.13398E+04
 -1.41694E+04  1.07288E+04 -1.13425E+04 -7.23749E+03  5.65779E+03 -1.18890E+04  1.94970E+04  5.23778E+03
  1.45540E+04  2.41168E+04 -4.96080E+03  2.75575E+04 -2.46080E+04  1.54732E+04 -3.34719E+04 -1.44097E+03
 -2.85237E+04 -1.89975E+04 -1.33843E+04 -2.77519E+04  4.49723E+03 -2.85931E+04  2.07133E+04 -2.56004E+04
  3.61419E+04 -1.52135E+04  4.12299E+04  7.20405E+03  2.88433E+04  2.67302E+04  3.87299E+03  4.46334E+04
 -2.10571E+04  3.63070E+04 -3.18599E+04  1.26778E+04 -2.27326E+04 -1.06519E+04 -5.76407E+03 -1.26269E+04
  1.34237E+03 -7.61246E+02 -9.21295E+03  8.91272E+03 -2.32215E+04  3.93354E+03 -2.22362E+04 -1.11808E+04
 -1.37762E+04 -2.55783E+04  6.08887E+03 -2.98475E+04  2.10179E+04 -2.14335E+04  2.48988E+04 -1.14096E+03
  1.65224E+04  1.73482E+04 -2.03354E+03  2.50832E+04 -1.80018E+04  1.51005E+04 -2.62729E+04 -6.28035E+03
 -1.90807E+04 -2.32497E+04 -2.03630E+03 -3.07396E+04  1.33647E+04 -2.66983E+04  2.57349E+04 -1.35422E+04
  2.50504E+04  5.07923E+01  1.79196E+04  4.89049E+03  9.90747E+03  2.00099E+03  1.38321E+04 -2.99824E+03
  2.44562E+04  3.20677E+03  2.83594E+04  2.04195E+04  2.05853E+04  4.21876E+04 -2.84778E+03  4.98203E+04
 -2.80238E+04  4.22262E+04 -4.73233E+04  2.26178E+04 -5.06096E+04 -3.93575E+03 -4.13046E+04 -2.86740E+04
 -1.58271E+04 -4.25674E+04  1.45727E+04 -3.76964E+04  3.13325E+04 -1.74090E+04  2.60230E+04  8.93162E+03
  7.65263E+03  2.05978E+04 -1.35195E+04  1.66770E+04 -2.27726E+04  2.40975E+03 -1.67585E+04 -1.47003E+04
 -7.94497E+02 -2.10126E+04  1.20822E+04 -1.59295E+04  1.51828E+04 -1.04608E+03  4.28232E+03  9.25013E+03
 -8.90837E+03  5.12753E+03 -1.12281E+04 -7.28100E+03 -2.71927E+03 -2.10146E+04  1.40690E+04 -2.32293E+04
  2.68595E+04 -1.22510E+04  3.15888E+04  3.46780E+03  2.74170E+04  2.08300E+04  1.29853E+04  3.41128E+04
 -6.74471E+03  3.66537E+04 -2.27325E+04  2.19846E+04 -2.65105E+04  4.44405E+03 -1.78153E+04 -6.86203E+03
 -7.08551E+03 -8.32160E+03 -7.18013E+02  9.97916E+01 -3.94030E+03  3.18079E+03 -8.34864E+03  6.84161E+03
 -1.63361E+04 -4.18054E+02 -1.70742E+04 -1.22371E+04 -6.48230E+03 -2.19741E+04  7.49880E+03 -1.76065E+04
  1.50051E+04 -7.17888E+03  1.04039E+04  5.54082E+03 -1.03486E+03  6.66815E+03 -9.10085E+03 -2.34778E+02
 -8.54324E+03 -1.23033E+04 -1.00965E+03 -1.86847E+04  1.04981E+04 -1.94899E+04  2.36032E+04 -1.04403E+04
  2.67932E+04  2.70192E+03  2.03499E+04  1.65910E+04  4.03871E+03  2.22880E+04 -1.12966E+04  1.85987E+04
 -1.42612E+04  4.87281E+03 -7.90631E+03 -4.14087E+03  3.20924E+03 -4.66619E+03  8.18967E+03 -9.72712E+02
  8.23903E+03  8.39628E+03  1.52011E+03  1.46313E+04 -1.05253E+04  1.35689E+04 -1.79307E+04  3.36121E+03
 -1.22701E+04 -1.07856E+04  4.34512E+02 -1.60114E+04  1.07193E+04 -7.53640E+03  1.21414E+04  3.73344E+03
  2.83939E+03  1.34358E+04 -9.46892E+03  1.34584E+04 -1.73876E+04  5.83267E+03 -1.78136E+04 -5.87160E+03
 -1.01859E+04 -1.98809E+04  4.16772E+03 -2.12594E+04  1.85587E+04 -1.36882E+04  2.03493E+04  3.89164E+03
  1.20093E+04  1.64459E+04 -1.54818E+03  1.91877E+04 -1.29052E+04  1.03168E+04 -1.53803E+04 -1.87091E+03
 -1.26362E+04 -1.32349E+04 -2.86046E+03 -1.44737E+04  7.90742E+03 -1.17520E+04  9.64523E+03 -3.48071E+03
  5.42507E+03  3.00401E+03 -1.40028E+03  2.18916E+03 -5.68151E+02 -5.48578E+03  3.22232E+03 -9.25295E+03
  1.46282E+04 -6.47882E+03  2.12988E+04  1.53033E+03  1.98576E+04  1.38730E+04  1.18051E+04  2.62640E+04
 -6.19883E+03  3.03003E+04 -2.43611E+04  2.23620E+04 -3.20879E+04  4.43724E+03 -2.56188E+04 -1.20908E+04
 -1.22743E+04 -2.13425E+04 -6.68332E+02 -1.83886E+04  6.40058E+03 -1.04201E+04  6.77284E+03 -6.69195E+03
  5.37450E+03 -3.88801E+03  5.26683E+03 -3.58775E+03  6.89695E+03 -4.19842E+03  9.50295E+03 -3.04271E+03
  1.26519E+04  3.56735E+03  8.48964E+03  1.10117E+04 -1.80500E+03  1.51096E+04 -1.45533E+04  1.15933E+04
 -1.84011E+04 -1.43741E+03 -1.26111E+04 -1.28684E+04 -2.56510E+03 -2.08195E+04  1.06759E+04 -2.03941E+04
  2.15855E+04 -1.10183E+04  2.47212E+04  3.98931E+03  1.69294E+04  1.62831E+04  2.35537E+03  2.28232E+04
 -9.41551E+03  1.86405E+04 -1.43659E+04  6.15272E+03 -9.22873E+03 -9.94647E+02 -4.06262E+03 -3.12254E+03
 -2.58831E+03  1.90821E+02 -3.06888E+03  3.79080E+03 -7.67843E+03  3.32393E+03 -1.35881E+04 -2.01058E+03
 -9.88058E+03 -1.25404E+04  6.69887E+02 -1.85391E+04  1.14111E+04 -1.73780E+04  2.00316E+04 -5.75577E+03
  1.89328E+04  9.94949E+03  9.66127E+03  1.77949E+04 -3.55479E+03  1.87951E+04 -1.43437E+04  1.21635E+04
 -1.81179E+04  8.30640E+02 -1.35103E+04 -1.20827E+04 -1.25687E+03 -1.66855E+04  9.34213E+03 -1.25620E+04
  1.26084E+04 -2.77234E+03  7.81613E+03  3.76897E+03  2.73694E+03  6.08076E+03  2.24699E+03  2.79466E+03
  2.90756E+03  1.40602E+03  4.38720E+03  1.66909E+03  5.93183E+03  6.04555E+03  5.11832E+03  1.09704E+04
 -4.03832E+03  1.50266E+04 -1.38032E+04  1.52688E+04 -2.11131E+04  2.75598E+03 -2.04025E+04 -9.22561E+03
 -9.44169E+03 -1.99402E+04  3.79758E+03 -2.08797E+04  1.21646E+04 -1.41887E+04  1.64275E+04 -2.81572E+03
  1.27780E+04  7.35849E+03  2.01597E+03  1.12747E+04 -7.36034E+03  8.32386E+03 -9.79045E+03 -1.30451E+03
 -4.10458E+03 -9.70368E+03  4.68501E+03 -9.29103E+03  8.42627E+03 -4.29817E+03  7.46605E+03  1.40107E+03
  5.22370E+03  4.59780E+03  3.12222E+03  4.35421E+03 -1.51275E+03  2.72306E+03  5.44294E+02 -1.39049E+03
  3.16712E+03 -1.14739E+03  7.65772E+03  3.27607E+03  4.99485E+03  9.96805E+03 -3.06490E+03  1.45426E+04
 -1.00912E+04  1.00486E+04 -1.30285E+04  2.30261E+03 -1.13125E+04 -4.69885E+03 -5.47156E+03 -7.79300E+03
  9.73769E+02 -7.85745E+03  5.40188E+03 -4.43680E+03  4.67190E+03  4.04255E+03 -2.30133E+03  6.96310E+03
 -9.49680E+03  3.46725E+03 -1.02323E+04 -4.86471E+03 -5.57848E+03 -1.12870E+04  1.48431E+03 -1.16118E+04
  6.93903E+03 -7.63086E+03  8.24642E+03 -1.84720E+03  6.96586E+03  4.09989E+03  1.36120E+03  6.07592E+03
 -4.33943E+03  1.59257E+03 -4.99109E+03 -4.49414E+03  1.84376E+03 -8.80697E+03  9.30705E+03 -6.97411E+03
  1.41604E+04  3.87166E+02  1.27334E+04  9.49995E+03  4.41817E+03  1.48248E+04 -5.14295E+03  1.37088E+04
 -1.16638E+04  5.30075E+03 -1.20464E+04 -1.04365E+03 -6.91222E+03 -8.41370E+03  1.54244E+03 -9.00250E+03
  8.33954E+03 -3.80349E+03  7.48015E+03  4.49551E+03  3.24593E+03  7.93179E+03 -1.66295E+03  7.87942E+03
 -4.06466E+03  4.01642E+03 -3.30066E+03  9.97239E+02 -1.48104E+03  1.44193E+03 -2.51684E+03  3.21338E+03
 -2.94474E+03  4.74996E+03 -9.07534E+03  4.96194E+03 -1.50554E+04  8.59843E+02 -1.53488E+04 -8.90954E+03
 -8.99555E+03 -1.87350E+04  3.90236E+03 -2.24615E+04  1.36160E+04 -1.72084E+04  2.04642E+04 -6.88029E+03
  1.88324E+04  4.51414E+03  1.19222E+04  1.33612E+04  1.67068E+03  1.52858E+04 -6.57260E+03  1.18833E+04
 -7.84982E+03  4.49363E+03 -5.11502E+03 -1.47408E+03 -2.22860E+03 -1.22289E+03 -6.49668E+02 -5.16790E+01
 -2.05729E+03  1.21615E+03 -2.70062E+03 -5.09394E+02 -2.11947E+03 -3.51765E+03  1.12326E+03 -6.06087E+03
  5.72848E+03 -4.03490E+03  8.83094E+03  2.65007E+02  1.08829E+04  9.34942E+03  3.62724E+03  1.53299E+04
 -7.56715E+03  1.68844E+04 -1.64952E+04  9.49012E+03 -1.93429E+04 -9.41013E+02 -1.39723E+04 -1.18178E+04
 -4.94199E+03 -1.64049E+04  4.28221E+03 -1.46545E+04  1.04255E+04 -7.89489E+03  1.12616E+04 -6.87227E+02
  5.74990E+03  6.07777E+03 -8.49157E+02  4.93166E+03 -3.82102E+03 -1.18393E+03  8.25986E+02 -2.63698E+03
  5.01097E+03 -2.25628E+03  7.08302E+03  2.56214E+03  3.96340E+03  6.46428E+03 -8.04632E+02  7.91229E+03
 -7.03183E+03  7.98360E+03 -1.16194E+04  5.85696E+02 -9.89313E+03 -7.52071E+03 -1.01843E+03 -1.30798E+04
  8.18323E+03 -1.13304E+04  1.22400E+04 -3.31524E+03  1.29006E+04  3.85758E+03  6.81668E+03  1.01954E+04
  9.67336E+02  1.13381E+04 -5.34295E+03  7.95299E+03 -6.79397E+03  4.71795E+03 -5.04627E+03  1.43491E+03
 -2.92350E+03 -6.65238E+02 -3.01753E+03  1.35355E+03 -5.17664E+03  2.23306E+03 -8.42236E+03 -1.11869E+03
 -8.10159E+03 -5.91904E+03 -1.79734E+03 -1.12990E+04  4.40467E+03 -1.11644E+04  1.01803E+04 -6.06128E+03
  1.03398E+04  4.31692E+02  6.51498E+03  7.97179E+03 -1.15957E+03  1.12407E+04 -8.55413E+03  6.48868E+03
