 $NMID ID='MM_0lb_SNR400_13hz_g55_93.RAW', FMTDAT='(8E13.5)'
 TRAMP=1., VOLUME=1. $END
  3.09821E+05  9.03692E+02  3.37962E+05  2.50615E+05  8.42517E+04  3.37672E+05 -1.32729E+05  2.51101E+05
 -1.90914E+05  8.31573E+04 -1.12282E+05 -3.24297E+04  1.14125E+02 -5.03296E+04  5.40279E+04 -7.22784E+02
  3.57737E+04  5.23531E+04 -1.63485E+04  7.63649E+04 -6.09665E+04  6.40944E+04 -8.43358E+04  3.24936E+04
 -8.14334E+04 -1.12832E+04 -5.73518E+04 -5.07954E+04 -1.60247E+04 -6.94298E+04  2.80588E+04 -4.63254E+04
  4.06723E+04  4.17950E+03  1.60554E+04  4.84052E+04 -3.43364E+04  4.72083E+04 -6.69281E+04  1.75209E+02
 -5.37028E+04 -5.68704E+04 -6.70925E+03 -7.80252E+04  3.42223E+04 -5.58494E+04  4.79755E+04 -1.78705E+04
  4.42079E+04  1.10279E+04  3.24438E+04  2.57798E+04  1.58897E+04  2.89380E+04 -5.52185E+03  2.69898E+04
 -2.23489E+04  1.18729E+04 -1.82500E+04 -5.11722E+03  6.44888E+03 -7.31144E+03  2.28385E+04  1.26451E+04
  6.67732E+03  3.60018E+04 -3.31467E+04  3.57139E+04 -6.47822E+04  2.98390E+03 -5.81892E+04 -4.35706E+04
 -1.23941E+04 -6.43205E+04  4.03162E+04 -4.53553E+04  5.95044E+04 -2.05889E+03  3.47847E+04  3.31241E+04
 -6.28662E+03  3.81759E+04 -3.09672E+04  1.75041E+04 -3.11526E+04 -4.27228E+03 -1.75625E+04 -1.08718E+04
 -8.79731E+03 -1.36966E+04 -6.40248E+02 -1.86195E+04  7.76790E+03 -2.30235E+04  1.53508E+04 -1.32223E+04
  1.13717E+04  5.74543E+03 -9.16102E+03  1.33544E+04 -2.26406E+04 -5.30487E+03 -7.52280E+03 -3.61846E+04
  2.43715E+04 -4.43253E+04  4.97272E+04 -1.94020E+04  4.65930E+04  1.95742E+04  1.67416E+04  4.51324E+04
 -1.61061E+04  3.43191E+04 -2.62520E+04  1.96964E+03 -1.02148E+04 -2.82882E+04  2.23060E+04 -3.51889E+04
  4.22003E+04 -1.04519E+04  3.79079E+04  2.42606E+04  1.97615E+04  4.81242E+04 -8.06382E+03  5.24073E+04
 -3.27225E+04  3.49751E+04 -4.43215E+04  1.00287E+04 -4.42988E+04 -1.69427E+04 -2.42060E+04 -3.96677E+04
  7.75044E+03 -3.83906E+04  3.26147E+04 -1.55096E+04  2.94832E+04  1.03859E+04  4.53808E+03  1.98579E+04
 -1.33182E+04  9.15314E+03 -1.06689E+04 -7.67593E+03  5.66292E+03 -1.07831E+04  1.85892E+04  5.76179E+03
  1.41193E+04  2.18789E+04 -5.92009E+03  2.55718E+04 -2.30347E+04  1.25545E+04 -2.93399E+04 -4.59595E+03
 -2.19678E+04 -1.79043E+04 -9.11144E+03 -2.20147E+04  3.94651E+03 -2.20125E+04  1.71548E+04 -2.00125E+04
  2.84087E+04 -1.29813E+04  3.38393E+04  3.19908E+03  2.49580E+04  2.17493E+04  4.56467E+03  3.81888E+04
 -1.84617E+04  3.15470E+04 -2.89485E+04  1.10754E+04 -2.11716E+04 -1.04742E+04 -4.54716E+03 -1.31803E+04
  1.37634E+03 -1.59601E+03 -5.82368E+03  7.28968E+03 -1.72294E+04  5.12781E+03 -1.74739E+04 -7.53023E+03
 -1.12254E+04 -2.04117E+04  5.38190E+03 -2.52475E+04  1.67513E+04 -1.72146E+04  1.99182E+04 -1.90796E+03
  1.21987E+04  1.42479E+04 -2.29398E+03  2.07058E+04 -1.34881E+04  1.20629E+04 -2.05598E+04 -4.55003E+03
 -1.50237E+04 -1.81161E+04 -2.02225E+03 -2.45888E+04  1.08540E+04 -2.03395E+04  2.03216E+04 -1.04758E+04
  1.89338E+04  2.15726E+02  1.39522E+04  4.92942E+03  7.56099E+03  8.67652E+02  1.06229E+04 -2.00078E+03
  1.90575E+04  2.33775E+03  2.11990E+04  1.60088E+04  1.42896E+04  3.28154E+04 -2.41961E+03  3.74220E+04
 -2.17431E+04  3.05550E+04 -3.44829E+04  1.49565E+04 -3.71019E+04 -2.32725E+03 -3.05744E+04 -2.15546E+04
 -1.30216E+04 -3.07287E+04  1.03536E+04 -2.69051E+04  2.36682E+04 -1.37449E+04  2.11126E+04  6.34060E+03
  7.26337E+03  1.60547E+04 -1.00783E+04  1.27858E+04 -1.71828E+04  2.97571E+03 -1.35061E+04 -1.14649E+04
  3.75133E+02 -1.60055E+04  9.15793E+03 -1.17295E+04  1.02959E+04 -1.14564E+03  2.99148E+03  7.33941E+03
 -7.56912E+03  3.08729E+03 -7.04447E+03 -6.31572E+03 -3.39913E+02 -1.49925E+04  1.04721E+04 -1.55614E+04
  1.88566E+04 -8.34342E+03  2.03769E+04  2.70748E+03  1.73925E+04  1.56035E+04  8.74725E+03  2.25537E+04
 -3.92636E+03  2.47696E+04 -1.62060E+04  1.44102E+04 -1.84088E+04  3.21766E+03 -1.21212E+04 -4.17009E+03
 -5.45687E+03 -6.29385E+03 -6.68793E+02  9.92853E+02 -2.66106E+03  2.83926E+03 -5.55665E+03  4.74562E+03
 -1.18513E+04 -8.59083E+02 -1.20375E+04 -9.85362E+03 -4.86034E+03 -1.55906E+04  5.33569E+03 -1.24624E+04
  1.04393E+04 -5.41876E+03  7.91430E+03  2.94792E+03 -1.79338E+02  4.94389E+03 -6.41069E+03 -3.63139E+02
 -5.54479E+03 -7.81167E+03 -9.12282E+02 -1.16283E+04  6.75702E+03 -1.31801E+04  1.52344E+04 -7.23852E+03
  1.83650E+04  1.64056E+03  1.44284E+04  1.13302E+04  2.98586E+03  1.41307E+04 -8.49236E+03  1.32297E+04
 -1.06261E+04  4.02813E+03 -6.06150E+03 -2.54418E+03  1.54997E+03 -2.94216E+03  6.49259E+03 -1.19996E+03
  5.97044E+03  5.92832E+03  1.66870E+03  9.72767E+03 -6.73053E+03  9.08917E+03 -1.13194E+04  2.25126E+03
 -8.75386E+03 -6.47901E+03  3.56628E+01 -1.06468E+04  6.58548E+03 -4.64080E+03  6.85096E+03  2.24110E+03
  1.77522E+03  7.13344E+03 -6.88108E+03  7.79807E+03 -1.07163E+04  3.94631E+03 -9.34693E+03 -2.68483E+03
 -6.25881E+03 -1.15478E+04  2.58018E+03 -1.33179E+04  1.07972E+04 -8.02553E+03  1.18489E+04  1.68424E+03
  8.02630E+03  9.29086E+03 -7.78754E+02  1.18892E+04 -8.92115E+03  6.46469E+03 -8.88795E+03 -1.22398E+03
 -8.61382E+03 -7.89716E+03 -1.65588E+03 -8.33973E+03  4.62801E+03 -7.16246E+03  5.33991E+03 -3.55431E+03
  3.98759E+03  3.47423E+02 -8.29896E+02  1.85910E+03  1.46918E+02 -2.05380E+03  1.23525E+03 -4.57070E+03
  7.62969E+03 -2.67127E+03  1.11617E+04  1.50470E+03  1.11419E+04  7.61045E+03  8.64224E+03  1.43548E+04
 -2.47980E+03  1.70168E+04 -1.38779E+04  1.27881E+04 -1.81974E+04  1.80076E+03 -1.49352E+04 -6.51914E+03
 -7.88302E+03 -1.26069E+04 -1.35810E+03 -1.02770E+04  3.19756E+03 -5.12517E+03  3.20875E+03 -4.33825E+03
  2.11162E+03 -1.98189E+03  2.80975E+03 -3.43255E+03  4.87740E+03 -1.80206E+03  5.77761E+03 -6.63815E+02
  7.29204E+03  8.69732E+02  3.77903E+03  6.52245E+03 -2.19397E+03  7.11062E+03 -8.16522E+03  5.89418E+03
 -9.73359E+03 -1.59598E+03 -5.86112E+03 -6.83766E+03 -6.33072E+02 -9.95465E+03  5.97182E+03 -1.06980E+04
  1.06762E+04 -6.16262E+03  1.28464E+04  1.49911E+03  9.30193E+03  8.94363E+03  1.63108E+03  1.14949E+04
 -4.14968E+03  1.04944E+04 -6.46581E+03  3.74826E+03 -4.90624E+03 -1.61838E+03 -1.49821E+03 -1.99317E+03
 -1.13447E+03  2.98432E+02 -1.84556E+03  2.95347E+03 -4.35195E+03  1.26092E+03 -7.04036E+03 -9.06262E+02
 -4.40727E+03 -7.31239E+03 -1.55620E+02 -1.01676E+04  5.94700E+03 -8.93068E+03  8.86586E+03 -2.39003E+03
  8.99982E+03  5.42101E+03  4.37409E+03  7.98233E+03 -1.12093E+03  9.89186E+03 -6.86594E+03  6.31608E+03
 -9.02346E+03  1.21305E+03 -6.55709E+03 -5.50089E+03 -3.71956E+02 -7.73085E+03  4.04362E+03 -6.01982E+03
  5.63273E+03 -1.95002E+03  4.40261E+03  1.17719E+03  6.55532E+02  3.44686E+03  7.31573E+02  4.19644E+02
  1.80848E+03  1.02467E+03  2.88061E+03  1.39649E+03  2.89680E+03  3.68377E+03  3.25076E+03  4.89258E+03
 -1.76914E+03  7.42361E+03 -5.74658E+03  7.83041E+03 -8.99517E+03  2.12812E+03 -9.44602E+03 -3.43667E+03
 -4.15520E+03 -8.75081E+03  1.22947E+03 -9.56127E+03  5.33657E+03 -6.52087E+03  6.88842E+03 -1.32326E+03
  5.93499E+03  3.42377E+03  1.04157E+03  4.89375E+03 -2.27375E+03  3.02867E+03 -3.05674E+03 -6.06533E+02
 -1.73573E+03 -4.35456E+03  2.35700E+03 -3.92521E+03  3.45828E+03 -1.70342E+03  3.65566E+03  5.68636E+02
  2.00196E+03  1.47056E+03  1.57760E+03  1.20397E+03 -4.04811E+02  1.26976E+03  1.23134E+03  3.50393E+02
  1.28065E+03 -7.94288E+02  3.73977E+03  6.17177E+02  2.09976E+03  5.07455E+03 -3.53795E+02  6.56504E+03
 -4.06702E+03  3.71123E+03 -5.50642E+03  6.24437E+02 -5.07415E+03 -2.08265E+03 -1.15643E+03 -2.99618E+03
  5.78249E+02 -3.64151E+03  2.46655E+03 -1.63673E+03  1.82810E+03  1.93346E+03 -1.51404E+03  2.66414E+03
 -3.89393E+03  1.76624E+03 -4.27990E+03 -2.20621E+03 -2.33640E+03 -4.88526E+03  1.46778E+03 -4.98736E+03
  2.24015E+03 -2.28794E+03  2.59990E+03  1.68085E+02  2.77336E+03  6.47177E+02  1.26647E+03  3.23646E+03
 -1.36870E+03  3.17015E+02 -1.74206E+03 -1.19292E+03  1.18316E+03 -3.11062E+03  4.03117E+03 -2.38440E+03
  4.94077E+03  7.79109E+02  5.19895E+03  2.82885E+03  1.98425E+03  5.68757E+03 -1.38334E+03  4.61524E+03
 -4.36153E+03  1.70441E+03 -3.96892E+03 -4.67076E+02 -2.81577E+03 -3.12412E+03  9.78100E+02 -2.84115E+03
  3.65204E+03 -2.04772E+03  2.75975E+03  9.44837E+02  8.82576E+02  3.29108E+03 -1.73744E+02  2.71328E+03
 -1.01922E+03  2.08660E+03 -1.80317E+03  2.49096E+02 -5.24639E+02  8.34466E+02 -6.32060E+02  7.93527E+02
 -1.15246E+03  2.07014E+03 -4.37786E+03  1.62132E+03 -4.99896E+03 -2.76967E+01 -5.90340E+03 -3.67223E+03
 -2.84297E+03 -6.38752E+03  1.37037E+03 -7.27643E+03  4.24997E+03 -6.83566E+03  7.97481E+03 -2.53215E+03
  7.07789E+03  3.99028E+02  3.77795E+03  4.36328E+03  4.28069E+02  5.27200E+03 -1.88890E+03  3.79708E+03
 -2.58372E+03  1.91627E+03 -1.11435E+03 -7.60687E+02 -7.46611E+02 -6.12806E+02 -3.53816E+02 -1.41808E+02
 -1.71305E+03  7.54875E+02 -1.59618E+03  1.03831E+01  1.42796E+02 -1.02923E+03 -5.24385E+02 -1.27081E+03
  1.98683E+03 -1.19696E+03  2.80913E+03  1.40069E+02  3.36956E+03  2.59773E+03  2.03795E+02  5.45616E+03
 -2.20783E+03  6.46571E+03 -5.56580E+03  3.55457E+03 -6.26235E+03 -8.90583E+02 -3.98657E+03 -3.66299E+03
 -2.46611E+03 -5.26225E+03  9.97763E+02 -4.28921E+03  2.97244E+03 -2.58684E+03  3.11137E+03 -1.22436E+02
  1.72569E+03  1.23157E+03 -3.92663E+02  1.31198E+03 -1.45992E+03  3.83436E+01  7.16356E+02 -1.52811E+03
  1.85027E+03  2.91344E+02  1.44948E+03  1.38314E+03  1.18032E+03  2.05791E+03  1.17539E+02  2.41843E+03
 -2.78752E+03  2.07865E+03 -3.19817E+03  1.25634E+03 -2.88423E+03 -1.49288E+03 -8.58924E+02 -3.46028E+03
  1.95559E+03 -3.73183E+03  3.41492E+03 -9.38977E+02  3.70202E+03  6.13929E+02  2.09819E+03  3.07725E+03
  7.89250E+02  2.62779E+03 -1.06099E+03  2.60356E+03 -1.79927E+03  1.23307E+03 -1.95198E+03 -1.70347E+02
 -9.57807E+02  4.19080E+02 -1.30954E+03  9.74731E+02 -2.20812E+03  3.28007E+02 -2.29222E+03 -8.53385E+02
 -2.66846E+03 -9.09929E+02 -1.01560E+03 -2.58154E+03  1.58629E+03 -3.35471E+03  1.95179E+03 -1.36641E+03
  2.75819E+03  6.89547E+02  1.29782E+03  1.70715E+03  1.00736E+02  3.14489E+03 -1.90810E+03  2.23691E+03
