 $NMID ID='MM_0lb_SNR400_8hz_g45_64.RAW', FMTDAT='(8E13.5)'
 TRAMP=1., VOLUME=1. $END
  3.08544E+05  1.96811E+02  3.37350E+05  2.51227E+05  8.41846E+04  3.38846E+05 -1.32536E+05  2.51864E+05
 -1.91196E+05  8.41961E+04 -1.12441E+05 -3.26631E+04  1.17534E+03 -5.01548E+04  5.38694E+04 -1.42973E+03
  3.55158E+04  5.28651E+04 -1.67966E+04  7.56738E+04 -6.13239E+04  6.47405E+04 -8.63517E+04  3.20445E+04
 -8.30700E+04 -1.18598E+04 -5.84487E+04 -5.25100E+04 -1.56967E+04 -7.09943E+04  2.85687E+04 -4.68002E+04
  4.10645E+04  3.01293E+03  1.68841E+04  4.80881E+04 -3.51187E+04  4.88956E+04 -6.80008E+04 -3.87289E+02
 -5.57074E+04 -5.65731E+04 -7.23160E+03 -7.92286E+04  3.53568E+04 -5.74294E+04  4.93804E+04 -1.78031E+04
  4.60085E+04  1.12553E+04  3.28764E+04  2.70988E+04  1.60172E+04  3.08438E+04 -6.33839E+03  2.72796E+04
 -2.25875E+04  1.15592E+04 -1.75309E+04 -5.83468E+03  6.81400E+03 -7.05769E+03  2.33224E+04  1.39338E+04
  7.29683E+03  3.77529E+04 -3.44728E+04  3.78285E+04 -6.59719E+04  2.59066E+03 -5.97230E+04 -4.46008E+04
 -1.32086E+04 -6.69289E+04  4.10542E+04 -4.79877E+04  6.11737E+04 -2.56637E+03  3.68158E+04  3.46826E+04
 -4.54971E+03  4.07371E+04 -3.24659E+04  1.89813E+04 -3.42332E+04 -3.08137E+03 -1.93289E+04 -1.26707E+04
 -9.22316E+03 -1.56751E+04 -1.13383E+03 -1.90677E+04  8.52356E+03 -2.29889E+04  1.54848E+04 -1.24877E+04
  9.58802E+03  6.16188E+03 -1.06304E+04  1.25153E+04 -2.41816E+04 -6.72697E+03 -9.38254E+03 -3.82234E+04
  2.48407E+04 -4.71489E+04  5.20789E+04 -2.08467E+04  4.99598E+04  2.05770E+04  1.76842E+04  4.73694E+04
 -1.74228E+04  3.65793E+04 -2.81207E+04  2.68628E+03 -1.21366E+04 -3.03814E+04  2.07217E+04 -3.63895E+04
  4.44186E+04 -1.12807E+04  4.09518E+04  2.53321E+04  2.26320E+04  5.15835E+04 -9.00592E+03  5.73813E+04
 -3.52964E+04  3.82428E+04 -4.87634E+04  1.08973E+04 -4.84341E+04 -1.92294E+04 -2.64751E+04 -4.22251E+04
  7.71954E+03 -4.25183E+04  3.45974E+04 -1.77027E+04  3.24280E+04  1.23235E+04  6.05415E+03  2.07170E+04
 -1.40710E+04  9.91555E+03 -1.09475E+04 -7.05616E+03  5.82001E+03 -1.08085E+04  1.85426E+04  4.75966E+03
  1.57705E+04  2.23087E+04 -4.74429E+03  2.69544E+04 -2.29776E+04  1.53777E+04 -3.19184E+04 -2.90522E+03
 -2.59329E+04 -1.91382E+04 -1.28102E+04 -2.60503E+04  4.91310E+03 -2.66792E+04  2.07124E+04 -2.39965E+04
  3.29202E+04 -1.48592E+04  3.86841E+04  5.45619E+03  2.73246E+04  2.38739E+04  4.44529E+03  4.20054E+04
 -2.08771E+04  3.41050E+04 -3.10068E+04  1.17042E+04 -2.23503E+04 -1.01880E+04 -4.57107E+03 -1.26649E+04
  1.45904E+03 -1.47348E+03 -8.15026E+03  8.95553E+03 -2.01288E+04  4.96391E+03 -2.03189E+04 -8.93585E+03
 -1.27998E+04 -2.35465E+04  6.42255E+03 -2.73422E+04  1.90628E+04 -1.99414E+04  2.34426E+04 -1.38373E+03
  1.53953E+04  1.64370E+04 -2.13664E+03  2.46770E+04 -1.69198E+04  1.31979E+04 -2.47267E+04 -4.76352E+03
 -1.79232E+04 -2.14305E+04 -2.57236E+03 -2.86927E+04  1.30891E+04 -2.37886E+04  2.30269E+04 -1.27276E+04
  2.24609E+04 -5.20562E+02  1.64002E+04  4.45729E+03  8.85486E+03  1.64419E+03  1.25049E+04 -2.15459E+03
  2.25403E+04  3.59889E+03  2.69282E+04  1.86056E+04  1.83739E+04  3.90462E+04 -3.45952E+03  4.64893E+04
 -2.64879E+04  3.82953E+04 -4.30768E+04  2.06927E+04 -4.60529E+04 -3.05128E+03 -3.73036E+04 -2.76821E+04
 -1.53032E+04 -3.87488E+04  1.29848E+04 -3.39195E+04  2.83110E+04 -1.56861E+04  2.51006E+04  8.93660E+03
  7.99923E+03  1.86357E+04 -1.20990E+04  1.57591E+04 -2.07264E+04  2.22458E+03 -1.55104E+04 -1.31916E+04
 -3.35020E+02 -2.06212E+04  1.03698E+04 -1.49574E+04  1.39810E+04 -1.20520E+03  3.53712E+03  9.97377E+03
 -8.32856E+03  4.95214E+03 -1.02989E+04 -7.73769E+03 -2.04278E+03 -1.88536E+04  1.18085E+04 -2.05974E+04
  2.42759E+04 -1.21553E+04  2.74930E+04  3.50377E+03  2.35321E+04  1.96500E+04  1.07042E+04  3.03415E+04
 -6.43506E+03  3.21436E+04 -2.12666E+04  2.04957E+04 -2.31690E+04  3.87823E+03 -1.53156E+04 -6.50419E+03
 -5.74325E+03 -7.99100E+03 -1.05821E+03 -1.70990E+02 -3.19977E+03  3.25595E+03 -8.10758E+03  5.45695E+03
 -1.46513E+04 -3.66609E+02 -1.52448E+04 -1.30613E+04 -5.90294E+03 -1.96561E+04  6.54936E+03 -1.62964E+04
  1.28550E+04 -6.70190E+03  9.96612E+03  4.33120E+03 -7.91926E+02  6.58529E+03 -8.67262E+03 -3.28423E+02
 -7.69351E+03 -1.10085E+04 -1.67968E+03 -1.59108E+04  9.39459E+03 -1.74180E+04  2.09550E+04 -8.71003E+03
  2.41590E+04  3.55249E+03  1.75022E+04  1.46639E+04  3.37777E+03  1.96484E+04 -9.58925E+03  1.53280E+04
 -1.35746E+04  5.26214E+03 -6.57256E+03 -3.45428E+03  2.31649E+03 -4.82007E+03  8.89831E+03 -2.04623E+03
  8.21803E+03  7.44790E+03  5.64640E+02  1.29112E+04 -9.07559E+03  1.28372E+04 -1.57393E+04  3.12985E+03
 -1.13284E+04 -9.54623E+03  5.06182E+02 -1.42281E+04  9.06651E+03 -7.16719E+03  1.00740E+04  3.79057E+03
  2.88127E+03  1.06165E+04 -8.08383E+03  1.18279E+04 -1.53272E+04  4.62803E+03 -1.46298E+04 -5.30950E+03
 -8.65065E+03 -1.66801E+04  5.20193E+03 -1.88717E+04  1.59617E+04 -1.18937E+04  1.80750E+04  3.40307E+03
  1.05659E+04  1.36507E+04 -1.47120E+03  1.68879E+04 -1.20605E+04  8.89839E+03 -1.30923E+04 -1.56234E+03
 -1.11188E+04 -1.08301E+04 -2.32579E+03 -1.31157E+04  7.14505E+03 -1.06538E+04  8.10825E+03 -3.75030E+03
  5.13574E+03  2.35287E+03 -1.17767E+03  1.81386E+03 -1.68522E+03 -4.41059E+03  3.01243E+03 -8.40962E+03
  1.27151E+04 -4.48190E+03  1.69562E+04  1.80264E+03  1.69307E+04  1.20607E+04  1.05440E+04  2.29050E+04
 -5.02578E+03  2.55833E+04 -2.11716E+04  1.80258E+04 -2.74846E+04  4.81963E+03 -2.19994E+04 -1.03972E+04
 -1.16394E+04 -1.82923E+04 -8.82945E+02 -1.52766E+04  5.74271E+03 -9.22364E+03  5.50408E+03 -5.40606E+03
  4.15583E+03 -3.33321E+03  4.63671E+03 -3.54128E+03  6.34495E+03 -3.38640E+03  8.79355E+03 -2.00208E+03
  1.19245E+04  2.01457E+03  6.51311E+03  1.03782E+04 -2.46220E+03  1.16162E+04 -1.21066E+04  1.02220E+04
 -1.56586E+04 -1.18241E+03 -1.07037E+04 -1.08829E+04 -2.14142E+03 -1.78161E+04  9.69042E+03 -1.71285E+04
  1.75578E+04 -8.86160E+03  2.10162E+04  3.56361E+03  1.47443E+04  1.53441E+04  1.53043E+03  1.86152E+04
 -8.40954E+03  1.51639E+04 -1.10544E+04  4.51934E+03 -7.16519E+03 -2.51387E+03 -3.69286E+03 -1.86802E+03
 -1.68979E+03  2.01506E+02 -1.94597E+03  3.82394E+03 -6.79181E+03  2.19113E+03 -1.13128E+04 -1.93575E+03
 -7.54555E+03 -1.10156E+04  3.92971E+02 -1.61191E+04  9.36520E+03 -1.48772E+04  1.58378E+04 -4.48570E+03
  1.63869E+04  7.96736E+03  7.62807E+03  1.55456E+04 -3.57088E+03  1.61972E+04 -1.13513E+04  1.04599E+04
 -1.53635E+04  4.00570E+02 -1.19953E+04 -1.01257E+04 -1.02599E+03 -1.37950E+04  7.70267E+03 -9.82585E+03
  1.06362E+04 -3.65781E+03  7.04952E+03  2.83377E+03  2.69112E+03  4.87680E+03  1.96296E+03  1.64370E+03
  2.81050E+03  1.65430E+03  3.78047E+03  2.90624E+03  5.14148E+03  5.21790E+03  4.40658E+03  8.75772E+03
 -3.38873E+03  1.27809E+04 -1.21225E+04  1.29223E+04 -1.69181E+04  3.00183E+03 -1.71611E+04 -7.11547E+03
 -7.65048E+03 -1.63519E+04  3.09207E+03 -1.80541E+04  9.23376E+03 -1.21406E+04  1.38441E+04 -3.46852E+03
  1.01627E+04  5.92492E+03  2.85814E+03  9.96027E+03 -5.38214E+03  6.19780E+03 -7.03213E+03 -1.59762E+03
 -4.34787E+03 -7.66169E+03  3.19200E+03 -7.94116E+03  7.69239E+03 -4.00086E+03  7.14955E+03  2.22061E+03
  3.75376E+03  4.06613E+03  1.66864E+03  3.62225E+03 -1.49205E+03  2.15648E+03  1.78333E+03 -1.28948E+03
  2.37564E+03 -5.34502E+02  6.33231E+03  2.74622E+03  3.38265E+03  9.76856E+03 -1.11086E+03  1.18448E+04
 -8.14845E+03  8.17772E+03 -1.05104E+04  1.77779E+03 -9.70381E+03 -4.58262E+03 -3.76648E+03 -6.74413E+03
  1.27590E+03 -6.18512E+03  3.55405E+03 -2.63536E+03  3.48464E+03  3.46355E+03 -1.64887E+03  5.27658E+03
 -6.86106E+03  3.85410E+03 -8.90049E+03 -4.98501E+03 -4.40163E+03 -9.05004E+03  1.66366E+03 -9.22294E+03
  6.43679E+03 -5.89453E+03  7.91524E+03 -7.56859E+02  5.35267E+03  2.67657E+03  4.63393E+02  5.28314E+03
 -3.41852E+03  1.26726E+03 -3.97967E+03 -3.46573E+03  1.65321E+03 -7.18305E+03  8.10242E+03 -6.31145E+03
  1.14939E+04  1.21819E+03  1.05754E+04  7.40733E+03  3.35614E+03  1.09751E+04 -4.03928E+03  1.02230E+04
 -9.64196E+03  4.54993E+03 -9.53404E+03 -1.75096E+03 -5.29125E+03 -6.41071E+03  1.86175E+03 -7.80136E+03
  7.35286E+03 -3.41304E+03  6.40177E+03  3.02591E+03  2.70779E+03  6.00806E+03 -2.62325E+02  5.96156E+03
 -2.51817E+03  2.86932E+03 -3.12558E+03  1.26335E+03 -1.51929E+03  1.27572E+03 -1.37830E+03  1.86069E+03
 -3.53071E+03  4.12318E+03 -7.72657E+03  3.26836E+03 -1.18222E+04  1.02373E+03 -1.21744E+04 -7.61515E+03
 -6.91523E+03 -1.53764E+04  2.87199E+03 -1.67270E+04  1.13913E+04 -1.34461E+04  1.63786E+04 -5.16853E+03
  1.50090E+04  3.22568E+03  9.40447E+03  1.08218E+04  1.98367E+03  1.22370E+04 -4.61796E+03  9.08970E+03
 -6.61605E+03  3.65524E+03 -4.33475E+03 -1.32696E+03 -1.80104E+03 -8.13918E+02 -9.86986E+02 -1.92273E+02
 -2.22401E+03  4.92408E+02 -2.19042E+03 -3.89955E+02 -1.21995E+03 -2.29313E+03  8.39572E+02 -4.32868E+03
  5.44064E+03 -2.71425E+03  7.25390E+03  2.22021E+02  7.59115E+03  6.23899E+03  2.47411E+03  1.21418E+04
 -5.87239E+03  1.40361E+04 -1.21205E+04  7.98264E+03 -1.50151E+04 -1.00679E+03 -1.09204E+04 -8.92663E+03
 -4.26916E+03 -1.25768E+04  2.00868E+03 -1.10816E+04  7.89940E+03 -7.04337E+03  8.47548E+03  6.57983E+02
  4.17567E+03  4.62830E+03 -1.52504E+03  3.01236E+03 -2.58031E+03 -5.42037E+02  3.35067E+02 -2.95690E+03
  4.22262E+03 -2.43104E+03  5.51548E+03  1.76403E+03  3.20063E+03  5.57422E+03  7.14420E+01  6.21650E+03
 -6.08734E+03  4.96569E+03 -8.14765E+03  5.28905E+02 -7.73271E+03 -5.39031E+03 -2.10840E+03 -1.05282E+04
  6.32507E+03 -9.20248E+03  8.89900E+03 -2.57976E+03  9.65792E+03  2.86678E+03  4.81434E+03  7.25611E+03
  1.18418E+03  8.89095E+03 -3.24880E+03  7.26208E+03 -4.91362E+03  3.87014E+03 -4.71723E+03  6.25236E+02
 -2.53920E+03 -2.12515E+02 -1.55486E+03  1.08847E+03 -4.84531E+03  1.25252E+03 -6.76517E+03 -1.06654E+03
 -5.79913E+03 -4.79064E+03 -1.28016E+03 -9.19085E+03  4.27486E+03 -8.54081E+03  6.81472E+03 -3.99045E+03
  9.05761E+03  1.42011E+03  4.61742E+03  6.14392E+03 -2.07086E+03  8.69904E+03 -6.74598E+03  5.17459E+03
