 $NMID ID='MM_0lb_SNR400_13hz_g45_98.RAW', FMTDAT='(8E13.5)'
 TRAMP=1., VOLUME=1. $END
  3.10245E+05  2.18691E+02  3.37776E+05  2.51234E+05  8.42943E+04  3.37486E+05 -1.32370E+05  2.51228E+05
 -1.90514E+05  8.35741E+04 -1.11761E+05 -3.26381E+04  1.07842E+03 -5.02091E+04  5.39810E+04 -2.44970E+02
  3.46280E+04  5.24537E+04 -1.68289E+04  7.52929E+04 -6.07248E+04  6.41184E+04 -8.33831E+04  3.24205E+04
 -8.12999E+04 -1.15097E+04 -5.74335E+04 -5.12241E+04 -1.52081E+04 -6.93920E+04  2.72188E+04 -4.56078E+04
  4.00668E+04  4.19525E+03  1.61816E+04  4.75574E+04 -3.51756E+04  4.70112E+04 -6.68074E+04 -1.34625E+02
 -5.35440E+04 -5.73652E+04 -6.88408E+03 -7.68228E+04  3.41333E+04 -5.59825E+04  4.85631E+04 -1.83782E+04
  4.33717E+04  1.15542E+04  3.19294E+04  2.53836E+04  1.59698E+04  3.01195E+04 -5.59118E+03  2.70132E+04
 -2.23418E+04  1.22524E+04 -1.82519E+04 -5.64921E+03  5.94572E+03 -7.43840E+03  2.21115E+04  1.24224E+04
  7.09689E+03  3.55124E+04 -3.16569E+04  3.58416E+04 -6.38587E+04  1.87946E+03 -5.69770E+04 -4.28794E+04
 -1.29114E+04 -6.31802E+04  3.94889E+04 -4.59025E+04  5.85387E+04 -2.36900E+03  3.45161E+04  3.24297E+04
 -6.13714E+03  3.66846E+04 -2.99357E+04  1.70096E+04 -3.05460E+04 -4.19732E+03 -1.69846E+04 -1.05163E+04
 -8.44024E+03 -1.30700E+04 -7.44622E+02 -1.78275E+04  7.61737E+03 -2.34329E+04  1.55289E+04 -1.29574E+04
  1.14184E+04  5.24652E+03 -8.44310E+03  1.35154E+04 -2.12407E+04 -4.69643E+03 -7.95731E+03 -3.34550E+04
  2.27885E+04 -4.40182E+04  4.80958E+04 -2.00494E+04  4.55871E+04  1.97316E+04  1.62305E+04  4.44436E+04
 -1.60307E+04  3.33656E+04 -2.52824E+04  1.31693E+03 -1.00645E+04 -2.80499E+04  2.02682E+04 -3.39066E+04
  4.13227E+04 -8.88161E+03  3.58039E+04  2.39470E+04  1.83580E+04  4.69768E+04 -8.37037E+03  5.03264E+04
 -3.18982E+04  3.40654E+04 -4.23512E+04  9.84114E+03 -4.25633E+04 -1.65862E+04 -2.37323E+04 -3.84721E+04
  6.90764E+03 -3.77744E+04  3.12338E+04 -1.45404E+04  2.92448E+04  1.10144E+04  4.19805E+03  1.91361E+04
 -1.44003E+04  7.69782E+03 -1.05813E+04 -7.49394E+03  5.89298E+03 -1.09522E+04  1.87683E+04  6.05762E+03
  1.40934E+04  2.20717E+04 -5.42684E+03  2.54359E+04 -2.25628E+04  1.19168E+04 -2.82997E+04 -4.87424E+03
 -2.13576E+04 -1.75966E+04 -8.82415E+03 -2.16414E+04  4.48188E+03 -1.99129E+04  1.59817E+04 -1.74714E+04
  2.65432E+04 -1.27828E+04  3.29111E+04  2.91005E+03  2.41674E+04  2.05342E+04  4.27950E+03  3.64962E+04
 -1.77549E+04  2.98973E+04 -2.77166E+04  1.08781E+04 -2.12260E+04 -1.01986E+04 -4.71306E+03 -1.34852E+04
  1.73120E+03 -2.54197E+03 -5.58779E+03  6.90463E+03 -1.71316E+04  4.93947E+03 -1.63282E+04 -7.39186E+03
 -1.03273E+04 -1.91882E+04  5.54970E+03 -2.39730E+04  1.48787E+04 -1.77783E+04  1.86532E+04 -2.14493E+03
  1.16014E+04  1.33870E+04 -7.48854E+02  1.95711E+04 -1.39411E+04  1.13049E+04 -1.92796E+04 -4.16871E+03
 -1.42874E+04 -1.75866E+04 -1.08554E+03 -2.33332E+04  1.06336E+04 -1.93036E+04  1.96214E+04 -9.67215E+03
  1.86520E+04 -1.29405E+02  1.30744E+04  4.60515E+03  6.70677E+03  1.42570E+03  1.02943E+04 -2.04215E+03
  1.79216E+04  2.33119E+03  2.02768E+04  1.56018E+04  1.29463E+04  3.11443E+04 -2.87989E+03  3.53114E+04
 -2.00897E+04  2.80055E+04 -3.29500E+04  1.45636E+04 -3.41733E+04 -2.31216E+03 -2.88181E+04 -2.02012E+04
 -1.26596E+04 -2.88028E+04  9.98572E+03 -2.65663E+04  2.22258E+04 -1.23215E+04  1.93976E+04  5.75605E+03
  7.48824E+03  1.45537E+04 -9.72046E+03  1.29007E+04 -1.61131E+04  2.59278E+03 -1.26719E+04 -1.04089E+04
 -4.00794E+02 -1.63707E+04  8.05156E+03 -1.13742E+04  1.05142E+04 -1.47329E+03  2.42446E+03  6.51244E+03
 -7.27367E+03  2.75436E+03 -6.00781E+03 -5.72077E+03 -7.08220E+02 -1.41381E+04  1.00204E+04 -1.55155E+04
  1.74563E+04 -7.53076E+03  1.93251E+04  2.94161E+03  1.65444E+04  1.43290E+04  7.24209E+03  2.13994E+04
 -3.53368E+03  2.35797E+04 -1.52043E+04  1.39995E+04 -1.69470E+04  3.50938E+03 -1.18432E+04 -4.06219E+03
 -5.77963E+03 -4.67080E+03 -6.83314E+02  8.90693E+02 -2.38855E+03  3.15035E+03 -6.22920E+03  4.29625E+03
 -1.09824E+04 -9.91347E+02 -1.19009E+04 -9.05872E+03 -4.73877E+03 -1.53238E+04  4.43185E+03 -1.12922E+04
  1.02533E+04 -4.52544E+03  7.30751E+03  3.86009E+03  5.94589E+02  4.84685E+03 -5.39190E+03 -1.37571E+02
 -5.40838E+03 -7.47267E+03 -1.33729E+03 -1.07498E+04  6.39444E+03 -1.17972E+04  1.39112E+04 -6.19010E+03
  1.72234E+04  1.24906E+03  1.27995E+04  9.91484E+03  1.86245E+03  1.35196E+04 -7.02450E+03  1.12432E+04
 -1.01075E+04  4.47680E+03 -4.60000E+03 -2.22200E+03  7.71088E+02 -3.06641E+03  6.13167E+03 -8.87898E+02
  5.77918E+03  4.90989E+03  1.09925E+03  9.19756E+03 -6.57018E+03  9.12647E+03 -1.15369E+04  1.92351E+03
 -7.73766E+03 -6.19923E+03  4.21336E+02 -9.70739E+03  5.70178E+03 -4.67062E+03  6.82717E+03  1.82549E+03
  1.95208E+03  6.18105E+03 -5.99475E+03  8.42626E+03 -9.06230E+03  3.73004E+03 -8.70397E+03 -2.12350E+03
 -5.02793E+03 -1.05527E+04  2.81176E+03 -1.17316E+04  1.04046E+04 -7.24503E+03  1.16430E+04  2.17159E+03
  7.10110E+03  9.02052E+03 -6.33705E+02  1.12064E+04 -8.41938E+03  6.36296E+03 -8.03579E+03 -9.88770E+02
 -8.05499E+03 -7.74176E+03 -1.27540E+03 -8.16632E+03  3.96405E+03 -6.90945E+03  4.61716E+03 -3.20899E+03
  3.75530E+03  8.79449E+02 -1.36175E+02  2.24140E+03 -3.13839E+02 -2.53617E+03  1.66233E+03 -4.14688E+03
  7.42709E+03 -2.70369E+03  9.96954E+03  1.03648E+03  9.81819E+03  6.87777E+03  6.71181E+03  1.35556E+04
 -2.82954E+03  1.49425E+04 -1.37214E+04  1.15288E+04 -1.73792E+04  1.77719E+03 -1.37397E+04 -5.78916E+03
 -6.84024E+03 -1.08473E+04 -8.14075E+02 -8.68893E+03  4.18925E+03 -4.31093E+03  3.05151E+03 -3.39519E+03
  1.97854E+03 -9.34813E+02  3.00155E+03 -3.19312E+03  4.88698E+03 -2.13224E+03  5.26600E+03 -8.83071E+02
  7.30016E+03  1.78105E+03  2.32751E+03  5.97311E+03 -1.25731E+03  6.45175E+03 -8.29841E+03  5.43651E+03
 -9.19624E+03 -1.01296E+03 -4.92735E+03 -6.29634E+03  8.61085E+01 -1.03965E+04  6.05070E+03 -1.02609E+04
  9.99900E+03 -5.14467E+03  1.20548E+04  1.71740E+03  8.06635E+03  8.77778E+03  1.16116E+03  1.15420E+04
 -4.92854E+03  9.85814E+03 -6.86703E+03  3.06792E+03 -4.14249E+03 -1.67661E+03 -2.27731E+03 -1.40482E+03
 -4.22851E+02  6.76972E+02 -1.52476E+03  2.80410E+03 -4.20198E+03  2.03593E+03 -6.28777E+03 -1.04654E+03
 -4.22097E+03 -6.65724E+03 -3.34794E+01 -9.50071E+03  5.52164E+03 -8.16176E+03  8.18862E+03 -2.70878E+03
  8.41052E+03  4.45199E+03  4.01866E+03  7.23907E+03 -1.08750E+03  9.30080E+03 -6.65776E+03  5.22535E+03
 -8.36042E+03  5.03234E+02 -6.26257E+03 -6.12556E+03 -7.27556E+02 -7.87654E+03  3.52307E+03 -4.89709E+03
  5.02402E+03 -2.00720E+03  3.68594E+03  1.00369E+03  1.82721E+03  2.94736E+03  9.72209E+02  9.27752E+02
  1.89108E+03  3.78530E+02  2.33913E+03  1.70383E+03  3.57169E+03  3.93976E+03  3.06366E+03  4.32688E+03
 -2.08371E+03  6.30601E+03 -5.60167E+03  7.64598E+03 -8.58412E+03  2.26861E+03 -8.75472E+03 -2.46581E+03
 -3.72478E+03 -8.44068E+03  1.67744E+03 -1.00434E+04  4.88779E+03 -5.80980E+03  7.56266E+03 -1.55486E+03
  5.42168E+03  3.67925E+03  9.94280E+02  4.73572E+03 -2.48025E+03  2.48654E+03 -3.54621E+03 -8.62455E+02
 -1.83951E+03 -3.70381E+03  2.60990E+03 -3.68654E+03  3.02945E+03 -1.58425E+03  3.01227E+03  4.42226E+02
  2.27072E+03  1.12047E+03  1.17043E+03  7.65982E+02 -6.08721E+02  6.73003E+02  1.06849E+03 -5.10230E+02
  5.38017E+02 -7.26988E+02  3.76897E+03  1.20972E+03  1.87093E+03  4.46538E+03 -1.28927E+03  6.40711E+03
 -4.12030E+03  4.35963E+03 -4.73826E+03  7.94937E+02 -4.59178E+03 -2.07015E+03 -1.34901E+03 -3.33436E+03
  4.36767E+02 -2.59577E+03  2.28706E+03 -1.67315E+03  1.42416E+03  1.74219E+03 -1.40907E+03  2.70872E+03
 -3.40126E+03  1.15104E+03 -3.87386E+03 -1.60534E+03 -3.04161E+03 -3.83022E+03  1.13228E+02 -4.01401E+03
  2.00446E+03 -2.21486E+03  2.92631E+03  2.74121E+02  2.33876E+03  7.58500E+02  4.33468E+01  2.36411E+03
 -1.72571E+03  7.33536E+02 -2.57419E+03 -1.57293E+03  9.70573E+02 -3.38513E+03  3.87084E+03 -2.34491E+03
  4.83096E+03  1.13309E+03  5.19621E+03  3.41475E+03  2.12725E+03  5.04855E+03 -1.15391E+03  4.24613E+03
 -4.76854E+03  1.19469E+03 -4.60915E+03 -2.28679E+02 -2.02435E+03 -3.28147E+03  8.21725E+02 -3.20323E+03
  3.41448E+03 -1.46616E+03  2.46719E+03  1.32851E+03  7.41007E+02  2.74716E+03  1.65066E+02  2.29168E+03
 -1.02143E+03  1.51124E+03 -6.10540E+02 -6.70595E+01 -7.17805E+02  3.21462E+02 -1.22645E+03  1.53242E+03
 -1.75814E+03  2.17737E+03 -3.57824E+03  1.72484E+03 -4.65577E+03  1.04600E+02 -5.31481E+03 -2.77779E+03
 -2.34280E+03 -6.75789E+03  1.15301E+03 -7.95548E+03  3.64276E+03 -6.01149E+03  6.85068E+03 -2.81717E+03
  6.53111E+03  1.12455E+03  4.01234E+03  4.76112E+03 -4.55522E+02  4.83480E+03 -1.97765E+03  3.60274E+03
 -3.16175E+03  1.67815E+03 -1.87303E+03 -8.26794E+01 -2.52773E+02 -3.51456E+02 -6.17997E+02 -7.11080E+02
 -1.46530E+03  3.77047E+02 -1.18037E+03 -7.86219E+02  8.95463E+01 -4.15735E+02  4.72840E+02 -2.11785E+03
  2.12471E+03 -1.16852E+03  2.49488E+03 -4.39847E+01  3.49610E+03  2.58178E+03  2.25232E+02  4.65950E+03
 -2.22662E+03  6.05338E+03 -5.25846E+03  3.29650E+03 -6.41316E+03 -2.79927E+02 -3.89835E+03 -3.48860E+03
 -1.94043E+03 -4.34789E+03  1.53523E+03 -4.43796E+03  2.54641E+03 -2.45113E+03  3.42112E+03  3.79089E+02
  2.28231E+03  2.14022E+03 -4.80490E+02  1.41705E+03 -1.12477E+02  8.39905E+01  4.88920E+02 -5.96696E+02
  1.55084E+03 -9.69350E+01  1.82260E+03  3.49281E+02  5.26766E+02  1.77490E+03  5.42192E+02  2.42758E+03
 -1.85697E+03  1.62128E+03 -1.98103E+03  5.14254E+02 -2.48229E+03 -2.06777E+03 -7.15275E+02 -4.21697E+03
  2.06129E+03 -3.67299E+03  2.49660E+03 -5.27660E+02  3.29977E+03  7.87018E+01  1.63852E+03  2.38027E+03
  2.59218E+02  2.64916E+03 -7.89739E+02  2.64985E+03 -2.09264E+03  1.84569E+03 -1.20451E+03 -5.25165E+02
 -8.23492E+02  1.41166E+02 -1.21854E+03 -1.82788E+01 -1.40410E+03  2.34335E+02 -2.41634E+03 -9.87440E+02
 -2.35993E+03 -1.02475E+03 -1.34562E+03 -2.55778E+03  1.58421E+03 -3.31781E+03  2.83597E+03 -1.48059E+03
  2.73947E+03  9.36435E+01  1.23834E+03  1.56847E+03 -2.96997E+01  3.01989E+03 -1.24675E+03  1.91280E+03
