 $NMID ID='MM_0lb_SNR400_8hz_g60_18.RAW', FMTDAT='(8E13.5)'
 TRAMP=1., VOLUME=1. $END
  3.08987E+05  1.63705E+00  3.38230E+05  2.50883E+05  8.54348E+04  3.38485E+05 -1.32257E+05  2.52620E+05
 -1.91097E+05  8.47622E+04 -1.13068E+05 -3.23964E+04 -3.26743E+02 -5.12102E+04  5.42833E+04 -8.90334E+02
  3.50488E+04  5.29504E+04 -1.72168E+04  7.60874E+04 -6.04673E+04  6.44771E+04 -8.60010E+04  3.20605E+04
 -8.34030E+04 -1.17622E+04 -5.89805E+04 -5.22680E+04 -1.47058E+04 -7.06768E+04  2.85387E+04 -4.78044E+04
  4.16448E+04  3.20325E+03  1.73819E+04  4.85633E+04 -3.56740E+04  4.87399E+04 -6.91621E+04  1.05264E+02
 -5.50446E+04 -5.69351E+04 -8.44232E+03 -8.01690E+04  3.56697E+04 -5.77505E+04  5.06207E+04 -1.92981E+04
  4.58951E+04  1.17722E+04  3.36954E+04  2.82465E+04  1.56361E+04  3.13150E+04 -5.88631E+03  2.74608E+04
 -2.16696E+04  1.14434E+04 -1.70152E+04 -6.23152E+03  7.24427E+03 -7.22554E+03  2.41941E+04  1.46008E+04
  7.64254E+03  3.83928E+04 -3.46332E+04  3.69929E+04 -6.63882E+04  1.71006E+03 -6.01377E+04 -4.51001E+04
 -1.34743E+04 -6.67112E+04  4.29316E+04 -4.77525E+04  6.29799E+04 -2.82322E+03  3.78787E+04  3.54334E+04
 -5.81749E+03  4.16307E+04 -3.24629E+04  2.01682E+04 -3.39458E+04 -2.69475E+03 -2.08669E+04 -1.28930E+04
 -1.03775E+04 -1.67518E+04  2.93382E+02 -2.00449E+04  9.30479E+03 -2.41017E+04  1.61764E+04 -1.15879E+04
  1.02963E+04  6.20355E+03 -1.15927E+04  1.27022E+04 -2.39268E+04 -7.07529E+03 -8.11501E+03 -3.94607E+04
  2.72014E+04 -4.86557E+04  5.32330E+04 -2.19347E+04  5.09484E+04  2.17331E+04  1.74964E+04  4.82948E+04
 -1.77101E+04  3.77028E+04 -2.87273E+04  3.37691E+03 -1.21198E+04 -2.99730E+04  2.19651E+04 -3.93801E+04
  4.59245E+04 -1.27826E+04  4.23761E+04  2.52232E+04  2.31140E+04  5.30188E+04 -8.35777E+03  5.90671E+04
 -3.61012E+04  4.04467E+04 -4.93467E+04  1.12144E+04 -4.92989E+04 -1.86273E+04 -2.69364E+04 -4.40439E+04
  7.97013E+03 -4.41886E+04  3.60031E+04 -1.74283E+04  3.27327E+04  1.15406E+04  5.47379E+03  2.12806E+04
 -1.41117E+04  9.45525E+03 -1.13943E+04 -7.73762E+03  5.03976E+03 -1.20514E+04  2.01223E+04  4.76841E+03
  1.51483E+04  2.32762E+04 -5.67409E+03  2.76872E+04 -2.43824E+04  1.55154E+04 -3.24801E+04 -1.82730E+03
 -2.73925E+04 -1.87035E+04 -1.26272E+04 -2.70142E+04  5.21312E+03 -2.77826E+04  2.12768E+04 -2.44097E+04
  3.36229E+04 -1.42956E+04  4.09946E+04  6.51536E+03  2.90494E+04  2.68851E+04  5.73254E+03  4.30460E+04
 -2.05600E+04  3.48527E+04 -3.13796E+04  1.18378E+04 -2.29257E+04 -1.07418E+04 -5.04274E+03 -1.27777E+04
  1.06362E+02 -4.88728E+02 -8.53066E+03  8.85130E+03 -2.15878E+04  5.45967E+03 -2.17676E+04 -1.08084E+04
 -1.28225E+04 -2.42888E+04  6.02458E+03 -2.98321E+04  2.00017E+04 -2.08704E+04  2.39609E+04 -1.97735E+03
  1.51187E+04  1.78014E+04 -9.14934E+02  2.51041E+04 -1.78203E+04  1.48826E+04 -2.68882E+04 -5.05536E+03
 -1.76215E+04 -2.25103E+04 -2.56622E+03 -3.04701E+04  1.28686E+04 -2.55660E+04  2.49015E+04 -1.29862E+04
  2.36226E+04 -9.33194E+02  1.63791E+04  5.69472E+03  9.17158E+03  1.59470E+03  1.22669E+04 -1.56824E+03
  2.44772E+04  4.18573E+03  2.80834E+04  1.95228E+04  2.10315E+04  4.08908E+04 -2.57807E+03  4.84897E+04
 -2.73999E+04  4.17211E+04 -4.66094E+04  2.04045E+04 -4.89417E+04 -4.08870E+03 -4.04800E+04 -2.91302E+04
 -1.54480E+04 -4.08204E+04  1.46071E+04 -3.62163E+04  2.98101E+04 -1.53951E+04  2.69689E+04  7.39412E+03
  8.22724E+03  2.07644E+04 -1.24278E+04  1.70448E+04 -2.19585E+04  3.32279E+03 -1.59341E+04 -1.36789E+04
 -4.52011E+02 -2.10373E+04  1.25681E+04 -1.51406E+04  1.48813E+04 -8.02249E+02  4.03955E+03  1.00000E+04
 -9.58587E+03  5.62028E+03 -9.34236E+03 -6.92594E+03 -2.31751E+03 -2.00432E+04  1.32031E+04 -2.19632E+04
  2.57362E+04 -1.35384E+04  3.00294E+04  4.17725E+03  2.57144E+04  2.11361E+04  1.23289E+04  3.30234E+04
 -6.35210E+03  3.48798E+04 -2.25881E+04  2.21976E+04 -2.50825E+04  4.97892E+03 -1.74385E+04 -7.69700E+03
 -7.22464E+03 -7.94644E+03 -5.77136E+02  6.77989E+02 -3.79568E+03  4.14353E+03 -8.04544E+03  6.24591E+03
 -1.59467E+04 -1.71637E+03 -1.59630E+04 -1.38445E+04 -6.10588E+03 -2.19964E+04  7.92893E+03 -1.69911E+04
  1.39305E+04 -6.80538E+03  9.71974E+03  5.34840E+03 -1.18687E+03  6.99023E+03 -9.16335E+03 -2.28767E+02
 -7.97049E+03 -1.11785E+04 -1.50312E+03 -1.73518E+04  1.10447E+04 -1.85659E+04  2.21806E+04 -1.01646E+04
  2.69740E+04  3.22287E+03  1.88121E+04  1.66929E+04  4.04593E+03  2.13636E+04 -1.02601E+04  1.75866E+04
 -1.42135E+04  5.40308E+03 -7.78165E+03 -4.27766E+03  2.62782E+03 -5.66585E+03  8.74710E+03 -7.89083E+02
  8.39406E+03  8.87995E+03  1.21730E+03  1.39222E+04 -1.03310E+04  1.39539E+04 -1.69320E+04  3.64231E+03
 -1.22010E+04 -9.20238E+03  7.84375E+01 -1.47098E+04  9.64278E+03 -7.91095E+03  1.14057E+04  4.15819E+03
  3.13085E+03  1.19499E+04 -8.86317E+03  1.37806E+04 -1.61306E+04  5.98281E+03 -1.65667E+04 -6.08957E+03
 -9.55084E+03 -1.85115E+04  5.53963E+03 -2.12589E+04  1.75173E+04 -1.14755E+04  1.94883E+04  3.47947E+03
  1.18656E+04  1.57387E+04 -1.98766E+03  1.79863E+04 -1.32062E+04  9.68974E+03 -1.37729E+04 -1.71827E+03
 -1.24542E+04 -1.22604E+04 -2.47353E+03 -1.37290E+04  6.55434E+03 -1.09479E+04  9.13729E+03 -3.54265E+03
  5.51404E+03  3.05268E+03 -1.49849E+03  1.71119E+03 -3.72303E+02 -5.03025E+03  3.77973E+03 -8.87706E+03
  1.30203E+04 -6.13821E+03  1.94794E+04  1.46539E+03  1.83226E+04  1.32280E+04  1.07804E+04  2.54913E+04
 -6.82085E+03  2.85807E+04 -2.30525E+04  2.11140E+04 -2.98391E+04  4.21147E+03 -2.34826E+04 -1.12528E+04
 -1.21883E+04 -2.09164E+04  3.39441E+02 -1.62376E+04  5.83119E+03 -1.02203E+04  6.73007E+03 -6.04423E+03
  3.55399E+03 -3.40810E+03  4.36010E+03 -4.77291E+03  6.31198E+03 -4.87550E+03  8.70150E+03 -1.55232E+03
  1.27907E+04  2.70541E+03  7.24433E+03  1.14999E+04 -1.60435E+03  1.34979E+04 -1.26569E+04  1.00517E+04
 -1.73000E+04 -1.22040E+03 -1.14361E+04 -1.23550E+04 -1.32987E+03 -1.85317E+04  1.00975E+04 -1.78378E+04
  1.96387E+04 -1.04621E+04  2.47688E+04  2.13356E+03  1.59037E+04  1.52567E+04  1.20260E+03  2.18270E+04
 -9.60044E+03  1.70322E+04 -1.26880E+04  6.30311E+03 -8.40621E+03 -2.02914E+03 -3.73264E+03 -2.82442E+03
 -1.44884E+03 -2.15344E+03 -3.33006E+03  4.72494E+03 -6.93050E+03  2.86408E+03 -1.12192E+04 -1.86616E+03
 -8.75850E+03 -1.23261E+04 -6.72776E+02 -1.84732E+04  1.11586E+04 -1.62055E+04  1.84664E+04 -5.75969E+03
  1.74510E+04  8.23244E+03  8.71151E+03  1.66642E+04 -2.52218E+03  1.74895E+04 -1.32265E+04  1.15345E+04
 -1.69213E+04  4.81398E+02 -1.33427E+04 -1.13297E+04 -9.61954E+02 -1.54894E+04  8.07309E+03 -1.20442E+04
  1.13772E+04 -3.28674E+03  7.39156E+03  3.52007E+03  2.75688E+03  5.13817E+03  2.37599E+03  1.57612E+03
  2.74572E+03  6.20774E+02  3.95999E+03  2.31946E+03  5.76032E+03  5.80590E+03  4.27163E+03  9.60569E+03
 -2.73846E+03  1.45605E+04 -1.28082E+04  1.47567E+04 -1.82551E+04  2.62388E+03 -1.91140E+04 -8.81103E+03
 -9.52890E+03 -1.83038E+04  2.88683E+03 -2.01652E+04  1.09482E+04 -1.27518E+04  1.49584E+04 -2.87165E+03
  1.18772E+04  7.13124E+03  2.52603E+03  1.10944E+04 -4.64950E+03  6.63972E+03 -7.11479E+03 -1.30621E+03
 -3.27729E+03 -8.77813E+03  4.42086E+03 -8.16829E+03  8.37150E+03 -4.17284E+03  7.08226E+03  1.07960E+03
  4.04037E+03  4.32059E+03  1.07754E+03  3.55164E+03 -1.05986E+03  2.39631E+03  1.86693E+03 -3.79914E+02
  2.64296E+03 -1.64944E+03  8.12087E+03  3.11428E+03  4.00984E+03  9.84458E+03 -2.10813E+03  1.29662E+04
 -9.39139E+03  9.09722E+03 -1.19041E+04  2.98120E+03 -1.11304E+04 -3.47563E+03 -4.28573E+03 -7.94287E+03
  1.35847E+03 -7.41647E+03  4.07685E+03 -3.18667E+03  3.18491E+03  4.04282E+03 -2.37201E+03  6.15209E+03
 -8.44802E+03  4.51829E+03 -9.29219E+03 -4.22039E+03 -4.93894E+03 -9.71873E+03  1.78761E+03 -1.10716E+04
  6.25329E+03 -7.46768E+03  7.71726E+03 -7.44155E+02  5.90801E+03  3.50130E+03  8.47275E+02  5.95424E+03
 -3.75463E+03  2.29091E+03 -4.75446E+03 -3.63464E+03  9.53813E+02 -8.26874E+03  9.36720E+03 -6.35609E+03
  1.21888E+04  1.31602E+03  1.16187E+04  9.26101E+03  4.44514E+03  1.23869E+04 -4.62867E+03  1.26976E+04
 -1.08928E+04  4.61427E+03 -1.03055E+04 -2.44982E+03 -5.21515E+03 -7.50701E+03  2.46188E+03 -7.92542E+03
  6.92863E+03 -4.14000E+03  7.21038E+03  3.39630E+03  2.43590E+03  6.99375E+03 -8.32868E+02  6.07591E+03
 -4.05945E+03  2.81492E+03 -3.55257E+03  1.39165E+03 -9.85894E+02  5.01080E+02 -2.00215E+03  2.34014E+03
 -2.85757E+03  5.14031E+03 -8.46803E+03  4.15778E+03 -1.30229E+04  1.91363E+02 -1.42467E+04 -8.06576E+03
 -7.82173E+03 -1.69585E+04  4.53487E+03 -1.96748E+04  1.24859E+04 -1.49786E+04  1.90699E+04 -5.30157E+03
  1.79380E+04  2.96609E+03  1.00133E+04  1.22758E+04  1.62002E+03  1.40908E+04 -5.24195E+03  1.05752E+04
 -7.94234E+03  4.13903E+03 -5.69374E+03 -1.36718E+03 -1.62168E+03 -7.89028E+02 -1.15813E+03 -6.38292E+02
 -3.03371E+03 -1.10002E+03 -2.69616E+03 -8.73384E+02 -1.60530E+03 -2.97190E+03  9.20874E+02 -5.58474E+03
  5.46425E+03 -4.50930E+03  8.32070E+03 -2.15547E+02  1.01043E+04  8.44687E+03  2.61940E+03  1.31376E+04
 -6.50049E+03  1.44218E+04 -1.47079E+04  8.34510E+03 -1.66697E+04 -1.38308E+03 -1.23658E+04 -1.05028E+04
 -5.07504E+03 -1.47359E+04  4.04623E+03 -1.31909E+04  9.23120E+03 -6.79737E+03  8.76970E+03  3.98624E+02
  5.00018E+03  4.75971E+03 -1.31874E+03  3.06335E+03 -2.59412E+03 -1.30547E+03  1.99909E+02 -3.35134E+03
  4.23180E+03 -1.99641E+03  4.91343E+03  2.59541E+03  4.35424E+03  4.72873E+03 -4.93457E+02  7.05116E+03
 -6.47868E+03  6.21563E+03 -9.36594E+03  1.37699E+03 -8.01607E+03 -6.40173E+03 -1.42316E+03 -1.22214E+04
  6.10647E+03 -9.75020E+03  1.15856E+04 -2.75853E+03  1.12433E+04  2.71142E+03  5.87631E+03  8.61861E+03
  1.58662E+03  9.17695E+03 -3.43171E+03  7.68622E+03 -5.31923E+03  3.41987E+03 -4.11843E+03  6.58326E+02
 -2.06717E+03  4.93281E+02 -2.94981E+03  1.14377E+03 -5.07469E+03  8.67067E+02 -6.05585E+03 -1.25097E+03
 -6.53756E+03 -4.96950E+03 -2.81591E+03 -8.64001E+03  4.40300E+03 -1.03147E+04  8.05150E+03 -4.32754E+03
  9.59435E+03  1.13392E+03  5.16711E+03  5.73880E+03 -4.80150E+02  9.90136E+03 -7.24817E+03  6.12462E+03
