 $NMID ID='MM_0lb_SNR400_12hz_g50_83.RAW', FMTDAT='(8E13.5)'
 TRAMP=1., VOLUME=1. $END
  3.09440E+05  6.69158E+02  3.37297E+05  2.50222E+05  8.41310E+04  3.37746E+05 -1.32850E+05  2.51008E+05
 -1.90205E+05  8.32722E+04 -1.11877E+05 -3.25274E+04  4.71298E+02 -5.03825E+04  5.42204E+04 -1.07571E+01
  3.56694E+04  5.31583E+04 -1.63095E+04  7.62440E+04 -6.06599E+04  6.38726E+04 -8.47073E+04  3.23218E+04
 -8.17936E+04 -1.13788E+04 -5.72221E+04 -5.12186E+04 -1.55770E+04 -6.98734E+04  2.76193E+04 -4.66492E+04
  4.09169E+04  3.35021E+03  1.65537E+04  4.83281E+04 -3.44909E+04  4.76878E+04 -6.77358E+04 -1.15482E+02
 -5.37646E+04 -5.72140E+04 -6.71035E+03 -7.81930E+04  3.45752E+04 -5.55943E+04  4.90806E+04 -1.78361E+04
  4.38807E+04  1.11142E+04  3.26084E+04  2.64129E+04  1.54469E+04  3.03927E+04 -5.83883E+03  2.73807E+04
 -2.21251E+04  1.23070E+04 -1.84545E+04 -5.75814E+03  6.10247E+03 -7.58709E+03  2.34032E+04  1.30470E+04
  7.11159E+03  3.61629E+04 -3.27191E+04  3.66404E+04 -6.45715E+04  2.82618E+03 -5.78169E+04 -4.33305E+04
 -1.32115E+04 -6.45084E+04  4.07597E+04 -4.63006E+04  5.87700E+04 -2.04923E+03  3.51060E+04  3.31260E+04
 -5.61758E+03  3.79222E+04 -3.10762E+04  1.64927E+04 -3.15140E+04 -4.48860E+03 -1.77165E+04 -1.18071E+04
 -7.95429E+03 -1.46125E+04 -4.23032E+02 -1.91102E+04  7.54119E+03 -2.32451E+04  1.48284E+04 -1.31334E+04
  1.05848E+04  5.79632E+03 -8.67359E+03  1.33278E+04 -2.19675E+04 -5.28715E+03 -8.45520E+03 -3.51104E+04
  2.33437E+04 -4.52278E+04  5.00312E+04 -1.99630E+04  4.70403E+04  2.06135E+04  1.61044E+04  4.50436E+04
 -1.66158E+04  3.48301E+04 -2.57249E+04  1.41102E+03 -1.06662E+04 -2.82738E+04  2.10222E+04 -3.53308E+04
  4.21147E+04 -8.92631E+03  3.69383E+04  2.40083E+04  1.96582E+04  4.82102E+04 -7.97785E+03  5.31993E+04
 -3.33009E+04  3.56411E+04 -4.43875E+04  1.00130E+04 -4.46203E+04 -1.80758E+04 -2.42801E+04 -4.02064E+04
  7.29494E+03 -3.99543E+04  3.23911E+04 -1.57825E+04  2.96757E+04  1.15023E+04  4.66052E+03  2.00843E+04
 -1.36142E+04  8.51774E+03 -1.06905E+04 -7.06848E+03  6.20187E+03 -1.12983E+04  1.86433E+04  5.46228E+03
  1.42266E+04  2.23513E+04 -5.64460E+03  2.58902E+04 -2.27110E+04  1.23807E+04 -2.98796E+04 -4.85718E+03
 -2.28879E+04 -1.76726E+04 -1.01039E+04 -2.19827E+04  2.99450E+03 -2.24388E+04  1.74922E+04 -2.05622E+04
  2.82380E+04 -1.34930E+04  3.46761E+04  3.35969E+03  2.51601E+04  2.20236E+04  4.26105E+03  3.86853E+04
 -1.82226E+04  3.16570E+04 -2.96132E+04  1.05090E+04 -2.09682E+04 -1.01664E+04 -4.27800E+03 -1.36476E+04
  1.85769E+03 -2.15627E+03 -6.05053E+03  6.87762E+03 -1.76682E+04  4.82548E+03 -1.83581E+04 -8.50706E+03
 -1.10645E+04 -2.08159E+04  5.16964E+03 -2.48410E+04  1.66419E+04 -1.75321E+04  2.00767E+04 -1.28522E+03
  1.25955E+04  1.44821E+04 -8.26122E+02  1.98513E+04 -1.46519E+04  1.14487E+04 -2.03840E+04 -4.99599E+03
 -1.55732E+04 -1.82036E+04 -1.49237E+03 -2.43705E+04  1.10221E+04 -2.05413E+04  2.08754E+04 -1.04415E+04
  1.93363E+04  3.57166E+02  1.29461E+04  5.09975E+03  7.76169E+03  2.10714E+03  1.05642E+04 -1.56652E+03
  1.81609E+04  2.46046E+03  2.18478E+04  1.59134E+04  1.42472E+04  3.30427E+04 -3.05935E+03  3.83023E+04
 -2.16295E+04  3.14374E+04 -3.56637E+04  1.56728E+04 -3.71465E+04 -2.58324E+03 -3.13120E+04 -2.18297E+04
 -1.23389E+04 -3.11434E+04  1.05430E+04 -2.81551E+04  2.43630E+04 -1.41374E+04  2.13867E+04  6.69296E+03
  7.47282E+03  1.57106E+04 -1.01214E+04  1.31452E+04 -1.85817E+04  3.41235E+03 -1.30623E+04 -1.14060E+04
  3.26242E+02 -1.67725E+04  9.09575E+03 -1.24224E+04  1.06610E+04 -7.72372E+02  2.91813E+03  7.30572E+03
 -7.45283E+03  3.16329E+03 -8.06050E+03 -6.10885E+03 -1.01884E+03 -1.56052E+04  9.87621E+03 -1.61408E+04
  1.86936E+04 -8.59107E+03  2.10154E+04  3.26802E+03  1.83690E+04  1.53133E+04  8.37476E+03  2.41729E+04
 -3.98586E+03  2.68886E+04 -1.63889E+04  1.58472E+04 -1.80582E+04  3.11689E+03 -1.24560E+04 -3.93068E+03
 -5.69463E+03 -5.33353E+03 -6.88259E+02  2.83344E+02 -3.04546E+03  3.23209E+03 -5.97468E+03  4.21557E+03
 -1.18996E+04 -9.73289E+02 -1.21970E+04 -9.90845E+03 -4.23695E+03 -1.63306E+04  5.64408E+03 -1.23869E+04
  1.03158E+04 -5.41472E+03  8.15535E+03  3.57184E+03  1.75233E+02  5.13795E+03 -6.34058E+03 -7.68395E+02
 -6.53907E+03 -8.64084E+03 -1.45577E+03 -1.27705E+04  7.07287E+03 -1.32464E+04  1.62080E+04 -6.81861E+03
  1.91748E+04  1.55204E+03  1.38685E+04  1.09680E+04  2.93295E+03  1.54081E+04 -6.81174E+03  1.23650E+04
 -1.06769E+04  3.57076E+03 -5.29048E+03 -2.22133E+03  1.95047E+03 -3.85643E+03  7.34656E+03 -1.10544E+03
  6.63718E+03  5.31327E+03  8.76753E+02  9.88647E+03 -7.48017E+03  1.02514E+04 -1.24096E+04  2.84043E+03
 -9.31667E+03 -6.51353E+03 -5.76197E+00 -1.14294E+04  6.60503E+03 -5.85579E+03  7.10622E+03  1.92261E+03
  1.71513E+03  7.63215E+03 -6.70333E+03  9.06812E+03 -9.55233E+03  4.81452E+03 -1.07573E+04 -3.71014E+03
 -5.86313E+03 -1.24082E+04  3.27692E+03 -1.38017E+04  1.19644E+04 -7.95433E+03  1.23596E+04  1.85750E+03
  7.87960E+03  1.00304E+04 -7.88904E+02  1.24198E+04 -9.13764E+03  7.34009E+03 -8.89613E+03 -1.52007E+03
 -8.85392E+03 -8.32383E+03 -1.49489E+03 -9.41441E+03  4.65165E+03 -7.71780E+03  6.56426E+03 -2.99182E+03
  4.11020E+03  1.56014E+03 -1.32316E+02  1.41621E+03 -8.88512E-01 -2.37338E+03  1.52694E+03 -5.45779E+03
  8.90119E+03 -2.77919E+03  1.22661E+04  1.03792E+03  1.18749E+04  7.82615E+03  7.77196E+03  1.52240E+04
 -3.11881E+03  1.73158E+04 -1.46099E+04  1.35843E+04 -1.89936E+04  2.68095E+03 -1.52894E+04 -6.87146E+03
 -7.40245E+03 -1.27169E+04 -4.48078E+02 -1.04192E+04  3.59143E+03 -5.59260E+03  3.73440E+03 -3.78679E+03
  2.99949E+03 -2.12954E+03  3.23777E+03 -3.48161E+03  4.77822E+03 -2.72216E+03  7.06027E+03 -5.54864E+02
  7.27107E+03  2.01448E+03  4.00100E+03  6.21601E+03 -1.72096E+03  8.02317E+03 -8.92051E+03  6.69722E+03
 -1.05788E+04 -1.18111E+03 -6.30988E+03 -7.28752E+03 -8.71898E+02 -1.11237E+04  6.40390E+03 -1.13214E+04
  1.12451E+04 -6.25528E+03  1.40044E+04  1.67415E+03  1.04658E+04  9.31194E+03  1.91248E+03  1.22803E+04
 -5.15548E+03  1.07647E+04 -6.77077E+03  3.87548E+03 -4.57358E+03 -1.97453E+03 -1.65916E+03 -2.36440E+02
 -9.98345E+02  2.98185E+01 -1.34016E+03  3.12167E+03 -4.44616E+03  2.38509E+03 -7.50827E+03 -1.30110E+03
 -4.89644E+03 -7.67155E+03  7.38019E+02 -1.02904E+04  6.92902E+03 -9.75399E+03  1.05410E+04 -2.24969E+03
  1.00417E+04  5.11652E+03  4.80996E+03  8.51291E+03 -2.13944E+03  1.12426E+04 -6.86571E+03  5.72250E+03
 -9.56214E+03  6.44489E+02 -6.85968E+03 -6.40485E+03 -3.30979E+02 -8.61771E+03  4.38207E+03 -6.09561E+03
  6.22942E+03 -2.41228E+03  4.72285E+03  1.66010E+03  1.79080E+03  2.95413E+03  8.47304E+02  1.07076E+03
  2.67078E+03  1.02677E+03  2.89942E+03  1.26795E+03  3.20189E+03  4.15010E+03  2.29019E+03  5.26774E+03
 -2.09654E+03  8.33981E+03 -7.23233E+03  8.09963E+03 -9.60188E+03  2.60478E+03 -1.10858E+04 -4.16558E+03
 -5.01237E+03 -1.05758E+04  8.74894E+02 -1.12316E+04  6.03878E+03 -6.66215E+03  7.94147E+03 -2.07409E+03
  6.64561E+03  3.70397E+03  1.27449E+03  5.85845E+03 -2.82151E+03  3.55258E+03 -3.76752E+03 -8.74373E+02
 -1.85836E+03 -4.13187E+03  2.71352E+03 -4.38388E+03  4.21965E+03 -2.02687E+03  3.92531E+03  1.43722E+03
  2.57804E+03  1.28024E+03  1.00526E+03  2.18129E+03  1.25557E+01  1.37848E+03  1.52653E+03 -7.61175E+02
  9.82111E+02 -6.28148E+02  3.57244E+03  1.42093E+03  2.63930E+03  5.85027E+03 -8.07974E+02  7.20447E+03
 -4.84817E+03  4.00925E+03 -6.47216E+03  1.22477E+03 -5.80687E+03 -2.24498E+03 -2.15044E+03 -3.60767E+03
  8.96314E+02 -3.66918E+03  2.91421E+03 -1.92110E+03  1.78325E+03  2.34061E+03 -9.21566E+02  2.60264E+03
 -4.34680E+03  2.12599E+03 -4.49863E+03 -2.66439E+03 -2.80269E+03 -5.53130E+03  1.67507E+03 -5.73055E+03
  2.99453E+03 -2.38646E+03  3.47258E+03 -4.98594E+02  3.44140E+03  1.30369E+03  9.56435E+02  3.06186E+03
 -2.14212E+03  4.72572E+02 -1.93328E+03 -1.91565E+03  7.22462E+02 -3.98454E+03  4.72140E+03 -3.37845E+03
  5.40351E+03  2.42024E+02  5.21593E+03  3.14247E+03  1.95911E+03  5.77334E+03 -1.60427E+03  6.21870E+03
 -5.18971E+03  2.39536E+03 -5.97567E+03 -1.02059E+03 -2.74774E+03 -4.18800E+03  7.36657E+02 -3.25618E+03
  3.83552E+03 -2.02728E+03  3.11301E+03  1.52197E+03  1.04039E+03  3.39285E+03 -3.67019E+02  3.11764E+03
 -1.87877E+03  2.01181E+03 -1.41440E+03  1.21554E+03 -4.40439E+02  1.53214E+03 -6.68298E+02  1.05795E+03
 -1.88811E+03  2.25661E+03 -4.77890E+03  1.54419E+03 -6.87097E+03 -9.50639E+00 -6.34819E+03 -4.12863E+03
 -3.81025E+03 -7.58000E+03  1.03966E+03 -8.67181E+03  4.64093E+03 -7.57599E+03  9.26988E+03 -2.21234E+03
  7.63971E+03  1.33132E+03  5.40638E+03  5.00207E+03 -1.00707E+02  5.74759E+03 -2.73366E+03  4.88143E+03
 -3.21695E+03  1.89570E+03 -2.31969E+03 -8.74874E+02 -1.09668E+03 -5.24597E+02 -3.35853E+02 -2.69188E+02
 -1.96134E+03  1.41912E+02 -1.40032E+03 -3.40678E+02 -1.93339E+02 -1.05891E+03 -1.42533E+02 -2.33929E+03
  2.21971E+03 -1.94206E+03  3.25786E+03 -7.78417E+02  3.02827E+03  3.07194E+03  4.23872E+02  6.04359E+03
 -2.50662E+03  7.14022E+03 -6.21737E+03  3.83015E+03 -7.02753E+03 -1.62485E+02 -4.95643E+03 -3.83580E+03
 -2.21720E+03 -6.21762E+03  1.77564E+03 -5.96048E+03  3.28189E+03 -2.56911E+03  3.89857E+03 -5.77097E+01
  1.81632E+03  1.33981E+03 -3.01922E+02  1.48335E+03 -1.36142E+03 -5.98594E+02  3.94935E+02 -1.24597E+03
  2.15712E+03 -3.05538E+02  2.73597E+03  9.64929E+02  1.51765E+03  3.18159E+03  2.80644E+02  2.83493E+03
 -3.13613E+03  1.97742E+03 -3.65139E+03  9.79854E+01 -3.08252E+03 -1.85502E+03  1.06073E+02 -4.53986E+03
  2.57342E+03 -4.68508E+03  4.00846E+03 -7.60571E+02  4.29529E+03  1.06535E+03  2.71819E+03  3.38538E+03
  1.37794E+02  3.84353E+03 -1.63442E+03  2.78300E+03 -2.22495E+03  1.42411E+03 -1.83351E+03  7.47606E+01
 -6.57898E+02 -1.43059E+01 -1.24254E+03  2.34486E+02 -2.84037E+03  5.57616E+02 -2.51940E+03 -7.46869E+02
 -3.27682E+03 -1.65014E+03 -5.91422E+02 -3.85207E+03  1.77691E+03 -3.89034E+03  3.38968E+03 -2.48435E+03
  2.90599E+03  4.25616E+02  1.38228E+03  3.30941E+03 -6.02229E+02  3.20884E+03 -2.82054E+03  3.10600E+03
