 $NMID ID='MM_0lb_SNR400_16hz_g50_14.RAW', FMTDAT='(8E13.5)'
 TRAMP=1., VOLUME=1. $END
  3.09777E+05  8.79354E+02  3.37575E+05  2.50563E+05  8.47013E+04  3.37926E+05 -1.32396E+05  2.51212E+05
 -1.89224E+05  8.31301E+04 -1.11952E+05 -3.26764E+04  1.23662E+03 -5.01043E+04  5.43279E+04  2.02171E+02
  3.55965E+04  5.27310E+04 -1.76885E+04  7.53649E+04 -6.05420E+04  6.35675E+04 -8.31273E+04  3.09323E+04
 -8.05073E+04 -1.12255E+04 -5.69093E+04 -5.07498E+04 -1.50336E+04 -6.95389E+04  2.68703E+04 -4.56065E+04
  4.02406E+04  4.01137E+03  1.58386E+04  4.76827E+04 -3.44325E+04  4.67532E+04 -6.61401E+04 -6.28124E+02
 -5.27419E+04 -5.66297E+04 -5.94568E+03 -7.65549E+04  3.35438E+04 -5.44030E+04  4.73506E+04 -1.67429E+04
  4.24579E+04  1.14458E+04  3.13634E+04  2.49610E+04  1.54449E+04  2.89087E+04 -5.35609E+03  2.68133E+04
 -2.15190E+04  1.23487E+04 -1.81648E+04 -4.98040E+03  5.02776E+03 -7.63504E+03  2.20708E+04  1.12268E+04
  7.01771E+03  3.43215E+04 -3.16208E+04  3.47243E+04 -6.24841E+04  2.30944E+03 -5.60673E+04 -4.22091E+04
 -1.21924E+04 -6.21820E+04  3.87813E+04 -4.46957E+04  5.74034E+04 -1.93842E+03  3.30420E+04  3.21282E+04
 -5.79322E+03  3.52575E+04 -2.99813E+04  1.45925E+04 -2.90907E+04 -4.55991E+03 -1.61214E+04 -1.11365E+04
 -7.62335E+03 -1.22571E+04 -8.33414E+02 -1.68461E+04  7.14594E+03 -2.28141E+04  1.52017E+04 -1.32028E+04
  1.11635E+04  4.82672E+03 -7.62068E+03  1.30976E+04 -2.05520E+04 -3.59473E+03 -8.21177E+03 -3.28650E+04
  2.20406E+04 -4.18197E+04  4.69216E+04 -1.94033E+04  4.38580E+04  1.93153E+04  1.52086E+04  4.37368E+04
 -1.58163E+04  3.32904E+04 -2.51676E+04  1.80912E+03 -9.04381E+03 -2.79592E+04  2.08064E+04 -3.24802E+04
  3.98493E+04 -8.28176E+03  3.46429E+04  2.34305E+04  1.69336E+04  4.42785E+04 -7.67528E+03  4.81867E+04
 -2.99789E+04  3.27735E+04 -4.08836E+04  9.09968E+03 -4.11611E+04 -1.62918E+04 -2.24414E+04 -3.65424E+04
  7.13104E+03 -3.67080E+04  3.06165E+04 -1.39029E+04  2.84978E+04  1.11038E+04  3.57178E+03  1.86821E+04
 -1.35122E+04  9.09261E+03 -9.71982E+03 -7.05928E+03  6.36581E+03 -1.06620E+04  1.78713E+04  5.94239E+03
  1.26018E+04  2.14452E+04 -6.57874E+03  2.44208E+04 -2.18869E+04  1.09129E+04 -2.65635E+04 -5.24581E+03
 -1.89974E+04 -1.69249E+04 -7.12988E+03 -1.88609E+04  3.76416E+03 -1.79589E+04  1.43527E+04 -1.57024E+04
  2.42101E+04 -1.17879E+04  3.09209E+04  2.50396E+03  2.29745E+04  1.88839E+04  3.60315E+03  3.51822E+04
 -1.70750E+04  2.90303E+04 -2.73762E+04  1.05268E+04 -2.03764E+04 -1.07463E+04 -4.49830E+03 -1.32316E+04
  1.77848E+03 -3.26826E+03 -3.82912E+03  5.81728E+03 -1.40553E+04  5.59175E+03 -1.48500E+04 -6.52998E+03
 -9.18091E+03 -1.67152E+04  5.16659E+03 -2.07688E+04  1.43215E+04 -1.53168E+04  1.67182E+04 -1.36483E+03
  1.04272E+04  1.24950E+04 -7.49701E+02  1.81091E+04 -1.14974E+04  9.59549E+03 -1.81356E+04 -4.11268E+03
 -1.30240E+04 -1.60095E+04 -1.83702E+03 -2.11669E+04  9.95027E+03 -1.70004E+04  1.80352E+04 -8.09163E+03
  1.65712E+04  4.83568E+02  1.22342E+04  4.33307E+03  6.27644E+03  6.55661E+02  8.47564E+03 -1.45778E+03
  1.57604E+04  2.75450E+03  1.74822E+04  1.41202E+04  1.14457E+04  2.81043E+04 -3.15495E+03  3.10263E+04
 -1.84738E+04  2.50264E+04 -2.87084E+04  1.23920E+04 -2.97015E+04 -2.32457E+03 -2.51280E+04 -1.70093E+04
 -1.11188E+04 -2.45851E+04  8.14573E+03 -2.23569E+04  1.93685E+04 -1.19168E+04  1.77210E+04  4.67114E+03
  6.76140E+03  1.30539E+04 -7.50416E+03  1.22587E+04 -1.52136E+04  2.10304E+03 -1.17831E+04 -9.25044E+03
 -3.21970E+02 -1.38852E+04  6.88930E+03 -1.00721E+04  8.59197E+03 -1.62868E+03  1.55435E+03  5.69348E+03
 -6.78868E+03  1.87385E+03 -5.04815E+03 -4.95748E+03 -5.58960E+01 -1.23340E+04  9.18608E+03 -1.22562E+04
  1.50728E+04 -6.04976E+03  1.56064E+04  2.61837E+03  1.36476E+04  1.15491E+04  5.95636E+03  1.74610E+04
 -3.38277E+03  1.93443E+04 -1.22204E+04  1.23989E+04 -1.37081E+04  3.31469E+03 -1.00271E+04 -2.54643E+03
 -5.18411E+03 -4.44938E+03 -8.85672E+02  1.15319E+03 -1.94569E+03  2.26178E+03 -4.42006E+03  4.21928E+03
 -9.54919E+03 -1.52847E+02 -1.00239E+04 -8.26875E+03 -4.61680E+03 -1.33884E+04  4.81013E+03 -1.00397E+04
  8.37454E+03 -4.42397E+03  5.88264E+03  2.33738E+03  6.81855E+02  3.94099E+03 -4.34242E+03  2.33379E+01
 -3.93761E+03 -6.77512E+03 -1.50521E+02 -9.63986E+03  5.22330E+03 -1.00791E+04  1.29198E+04 -5.23214E+03
  1.40496E+04  5.29466E+02  1.08890E+04  7.46791E+03  1.83417E+03  1.09265E+04 -6.45222E+03  9.95174E+03
 -8.33338E+03  2.97114E+03 -3.36353E+03 -1.34197E+03  2.18354E+03 -2.44305E+03  5.45817E+03 -1.52061E+03
  4.82902E+03  4.38236E+03  9.83994E+02  7.65890E+03 -4.73066E+03  8.28548E+03 -9.54624E+03  1.98554E+03
 -5.88851E+03 -4.73467E+03  4.33451E+02 -7.67861E+03  5.42190E+03 -4.24529E+03  4.92807E+03  1.27566E+03
  3.50130E+02  4.99899E+03 -4.78600E+03  6.20212E+03 -6.60186E+03  3.19313E+03 -6.28381E+03 -2.14284E+03
 -4.32412E+03 -7.88989E+03  2.49349E+03 -9.44364E+03  8.14831E+03 -5.97547E+03  8.88834E+03  1.45435E+03
  6.25971E+03  6.82617E+03 -1.25263E+02  9.31936E+03 -6.02409E+03  5.67469E+03 -7.08403E+03 -9.69883E+02
 -6.72046E+03 -6.16696E+03 -1.25298E+03 -6.10379E+03  3.31887E+03 -5.92905E+03  3.70814E+03 -3.39288E+03
  3.08572E+03  6.48768E+02 -2.31545E+02  1.41155E+03  2.52083E+02 -1.77156E+02  2.39623E+02 -2.15340E+03
  5.29648E+03 -1.57516E+03  6.82389E+03  1.09606E+03  7.28812E+03  4.35756E+03  6.51151E+03  1.01747E+04
 -2.18357E+03  1.14429E+04 -1.01800E+04  8.33942E+03 -1.26973E+04  1.98987E+03 -1.05563E+04 -4.38093E+03
 -5.17049E+03 -8.87649E+03  5.32218E+01 -7.70616E+03  2.34753E+03 -3.07821E+03  2.37700E+03 -2.83871E+03
  1.56430E+03 -2.50535E+03  2.13291E+03 -2.99472E+03  3.96027E+03 -1.18054E+03  4.84945E+03 -4.46150E+02
  5.16252E+03  1.48081E+03  1.96611E+03  4.03617E+03 -1.12695E+03  4.27856E+03 -5.90463E+03  3.55675E+03
 -6.89723E+03 -1.04358E+03 -3.30649E+03 -4.21121E+03 -5.10742E+02 -6.91026E+03  4.30003E+03 -7.09549E+03
  6.84605E+03 -4.58913E+03  9.15290E+03  4.97806E+02  6.89682E+03  5.45352E+03  1.13090E+03  8.12499E+03
 -3.52319E+03  7.23244E+03 -4.49365E+03  2.92562E+03 -2.67459E+03 -1.23076E+03 -7.48953E+02 -9.04696E+02
 -6.69111E+02  4.17375E+02 -1.07786E+03  2.61337E+03 -3.19298E+03  1.02467E+03 -5.72027E+03 -4.66712E+02
 -2.44498E+03 -5.13911E+03  1.17412E+03 -6.89495E+03  3.76863E+03 -6.37177E+03  5.17868E+03 -1.26654E+03
  5.28617E+03  3.75673E+03  2.62611E+03  5.58593E+03 -1.01394E+03  6.03406E+03 -3.66699E+03  3.82690E+03
 -5.58914E+03  7.52706E+02 -5.10213E+03 -3.29598E+03 -1.07173E+03 -4.80285E+03  2.39315E+03 -3.57349E+03
  4.19757E+03 -1.37924E+03  1.84255E+03  6.96790E+02  9.46452E+02  1.68862E+03  1.10183E+03  5.74063E+02
  1.83729E+03  1.17495E+03  1.54498E+03  9.19376E+02  1.67778E+03  2.48586E+03  1.82145E+03  2.68589E+03
 -1.34726E+03  4.50016E+03 -3.51198E+03  5.44883E+03 -5.04632E+03  1.57443E+03 -6.17172E+03 -1.10373E+03
 -2.81432E+03 -6.09883E+03  1.17489E+03 -6.82790E+03  2.86332E+03 -3.95696E+03  4.42122E+03 -1.43425E+03
  3.44964E+03  2.87464E+03  6.85951E+02  2.81562E+03 -1.73322E+03  2.16865E+03 -1.59966E+03 -5.28717E+02
 -3.85384E+02 -2.15943E+03  1.49400E+03 -2.14278E+03  2.37307E+03 -1.39685E+03  2.17363E+03  3.28030E+02
  1.53001E+03  6.00383E+02  7.18344E+02  3.46542E+02 -2.79167E+02  1.27661E+03  1.50979E+03  1.44524E+02
  6.72165E+01 -8.57608E+02  2.88026E+03  1.03939E+03  1.03055E+03  3.20950E+03 -4.22614E+02  4.13666E+03
 -2.40289E+03  1.38065E+03 -2.71862E+03  6.70892E+01 -3.11281E+03 -1.01813E+03 -3.81728E+02 -2.04519E+03
  5.13877E+02 -2.00091E+03  1.17095E+03 -1.13441E+03  1.15556E+03  1.51385E+03 -8.25628E+02  1.80243E+03
 -1.87521E+03  1.40575E+03 -2.28513E+03 -1.40243E+03 -1.47221E+03 -2.37932E+03  3.26603E+02 -2.77711E+03
  1.10100E+03 -1.27986E+03  1.63707E+03 -2.45649E+02  2.40727E+03  7.57145E+02  7.51285E+02  2.02659E+03
 -8.03165E+02  1.23289E+02 -1.65013E+03 -6.17652E+02  1.07057E+03 -1.54448E+03  2.88341E+03 -1.65449E+03
  2.64114E+03  9.98279E+02  3.74796E+03  1.67046E+03  1.47428E+03  2.56411E+03 -7.94080E+02  3.36055E+03
 -2.02597E+03  1.12514E+03 -2.47194E+03 -4.66836E+02 -1.21905E+03 -2.59201E+03  2.74881E+02 -1.51891E+03
  1.84201E+03 -7.15595E+02  1.15718E+03  5.64434E+02  6.15437E+02  2.43435E+03  5.04130E+02  1.44023E+03
 -2.73473E+02  1.34915E+03 -3.60197E+02 -3.72368E+02 -5.22332E+02  5.64656E+02 -6.78442E+02  1.30928E+03
 -1.00653E+03  1.26343E+03 -2.79313E+03  1.28438E+03 -2.56725E+03  1.04604E+02 -3.29725E+03 -1.91495E+03
 -2.06012E+03 -4.21843E+03  1.03194E+03 -4.92570E+03  2.26433E+03 -4.12164E+03  4.04264E+03 -1.92083E+03
  3.81151E+03 -2.50014E+02  1.83286E+03  2.44726E+03 -1.74453E+02  2.40752E+03 -6.23543E+02  2.03734E+03
 -1.50766E+03  9.54338E+02 -1.46945E+03 -9.07560E+02 -6.86347E+01  4.26442E+01 -2.07732E+02  7.29528E+02
 -9.90055E+02 -3.72841E+02 -1.32643E+03  1.06748E+02  3.18848E+02 -5.23664E+02 -6.74395E+02 -1.16539E+03
  1.74072E+03 -7.26270E+02  8.60106E+02  2.19180E+02  7.93779E+02  9.19490E+02  1.08461E+02  3.20694E+03
 -1.41758E+03  3.46427E+03 -2.41447E+03  2.14334E+03 -2.71483E+03 -5.28804E+02 -2.38362E+03 -2.04891E+03
 -1.54654E+03 -2.12947E+03  3.13846E+02 -1.81713E+03  3.35218E+02 -1.31653E+03  1.89445E+03 -5.13716E+01
  1.19847E+03  7.21660E+02  5.24669E+01  1.34401E+03 -9.95507E+02  1.09859E+01 -6.07374E+02 -5.21397E+02
  1.04115E+03 -3.65541E+02 -6.55021E+01  1.25339E+03  3.30481E+02  1.52052E+03  1.16750E+03  1.18996E+03
 -1.38722E+03  6.76350E+02 -1.55889E+03  5.47736E+02 -1.18441E+03 -1.24632E+03 -1.45688E+02 -1.73446E+03
  1.03226E+03 -1.87919E+03  1.04893E+03 -3.35073E+01  1.87862E+03  2.61941E+02  8.77127E+02  1.86751E+03
  4.70738E+02  9.84547E+02 -6.07215E+02  1.71435E+03 -7.56169E+02  6.37095E+02 -1.20649E+03  1.77108E+02
 -2.87814E+02 -4.51991E+02 -1.06920E+03  3.07945E+02 -1.26362E+02  1.75200E+02 -1.48635E+03 -2.97540E+02
 -4.72690E+02  2.21963E+02  1.08162E+02 -1.71397E+03  1.10831E+03 -2.44696E+03  1.80639E+03 -4.69827E+02
  1.58319E+03 -4.19381E+02  6.07072E+02  7.13927E+02 -4.74211E+02  1.57182E+03 -8.31016E+02  3.84168E+02
