 $NMID ID='MM_0lb_SNR400_11hz_g60_22.RAW', FMTDAT='(8E13.5)'
 TRAMP=1., VOLUME=1. $END
  3.09558E+05 -1.08918E+01  3.37910E+05  2.50190E+05  8.50978E+04  3.37639E+05 -1.31741E+05  2.51040E+05
 -1.91441E+05  8.36905E+04 -1.12086E+05 -3.16956E+04  3.37278E+02 -5.11708E+04  5.35779E+04 -5.73117E+01
  3.56948E+04  5.30485E+04 -1.66308E+04  7.66010E+04 -6.12506E+04  6.45831E+04 -8.57484E+04  3.27135E+04
 -8.18779E+04 -1.18952E+04 -5.77513E+04 -5.30075E+04 -1.49569E+04 -7.03503E+04  2.80628E+04 -4.68316E+04
  4.11966E+04  3.07842E+03  1.63330E+04  4.84544E+04 -3.50484E+04  4.89811E+04 -6.81902E+04  2.10614E+02
 -5.43344E+04 -5.78774E+04 -7.29347E+03 -7.89439E+04  3.46031E+04 -5.67157E+04  4.88521E+04 -1.80968E+04
  4.44629E+04  1.18625E+04  3.21189E+04  2.64484E+04  1.54689E+04  3.04920E+04 -6.67908E+03  2.75099E+04
 -2.24855E+04  1.20932E+04 -1.86627E+04 -5.44562E+03  7.53733E+03 -7.01489E+03  2.33663E+04  1.34290E+04
  7.40478E+03  3.68493E+04 -3.37537E+04  3.65563E+04 -6.57616E+04  1.24574E+03 -5.89652E+04 -4.43951E+04
 -1.21673E+04 -6.58930E+04  4.13880E+04 -4.71211E+04  6.07279E+04 -2.70189E+03  3.61624E+04  3.45545E+04
 -4.89124E+03  3.90927E+04 -3.19337E+04  1.89678E+04 -3.24457E+04 -3.81736E+03 -1.96055E+04 -1.22071E+04
 -8.42864E+03 -1.43792E+04 -8.54281E+01 -1.92882E+04  8.27338E+03 -2.36759E+04  1.56277E+04 -1.22853E+04
  1.10182E+04  5.31829E+03 -1.05427E+04  1.39051E+04 -2.39074E+04 -6.05876E+03 -8.52913E+03 -3.70794E+04
  2.50425E+04 -4.68370E+04  5.19089E+04 -2.09679E+04  4.85309E+04  2.05435E+04  1.69032E+04  4.70179E+04
 -1.64061E+04  3.58830E+04 -2.75354E+04  3.17776E+03 -1.17560E+04 -2.92508E+04  2.14128E+04 -3.69407E+04
  4.44437E+04 -1.04709E+04  3.98565E+04  2.46551E+04  2.00704E+04  5.08670E+04 -8.10625E+03  5.58724E+04
 -3.46346E+04  3.70614E+04 -4.66119E+04  1.08875E+04 -4.70201E+04 -1.89784E+04 -2.62500E+04 -4.21624E+04
  7.58746E+03 -4.11630E+04  3.40004E+04 -1.69641E+04  3.16226E+04  1.09282E+04  4.78877E+03  2.02693E+04
 -1.42146E+04  9.44583E+03 -1.19175E+04 -7.86451E+03  5.74649E+03 -1.06837E+04  1.88275E+04  5.55536E+03
  1.43633E+04  2.22668E+04 -5.13046E+03  2.71377E+04 -2.30404E+04  1.42801E+04 -3.13168E+04 -2.88701E+03
 -2.46430E+04 -1.78530E+04 -1.07698E+04 -2.45305E+04  4.47919E+03 -2.43920E+04  1.98108E+04 -2.24994E+04
  3.12325E+04 -1.44340E+04  3.75529E+04  4.51597E+03  2.64330E+04  2.36871E+04  3.99390E+03  4.00948E+04
 -1.95298E+04  3.31216E+04 -2.99876E+04  1.22285E+04 -2.19201E+04 -9.25166E+03 -5.11993E+03 -1.26644E+04
  9.98791E+02 -1.83898E+03 -7.01619E+03  8.00479E+03 -1.92244E+04  5.04415E+03 -1.97738E+04 -8.89132E+03
 -1.19621E+04 -2.21607E+04  5.52436E+03 -2.77262E+04  1.84192E+04 -1.95905E+04  2.23137E+04 -1.14095E+03
  1.37968E+04  1.52277E+04 -1.40521E+03  2.28279E+04 -1.66372E+04  1.33032E+04 -2.30379E+04 -4.98399E+03
 -1.73365E+04 -2.06906E+04 -2.38874E+03 -2.78167E+04  1.22491E+04 -2.25990E+04  2.24016E+04 -1.21126E+04
  2.14424E+04  3.29124E+02  1.53730E+04  5.52167E+03  7.76860E+03  1.87177E+03  1.17027E+04 -2.23032E+03
  2.14490E+04  3.10528E+03  2.38302E+04  1.80526E+04  1.68984E+04  3.62305E+04 -2.58435E+03  4.25612E+04
 -2.41617E+04  3.58460E+04 -3.99931E+04  1.83791E+04 -4.20433E+04 -2.76889E+03 -3.46926E+04 -2.49267E+04
 -1.29706E+04 -3.50081E+04  1.21749E+04 -3.08757E+04  2.69800E+04 -1.46481E+04  2.30782E+04  7.65941E+03
  7.75358E+03  1.74641E+04 -1.10990E+04  1.50100E+04 -1.92475E+04  2.56201E+03 -1.46633E+04 -1.19063E+04
 -2.38725E+02 -1.91530E+04  9.71337E+03 -1.45858E+04  1.28835E+04 -1.11621E+03  3.59128E+03  8.05555E+03
 -8.81246E+03  3.90206E+03 -8.48825E+03 -7.05144E+03 -1.29146E+03 -1.69627E+04  1.13906E+04 -1.87628E+04
  2.08560E+04 -9.91085E+03  2.45316E+04  3.25595E+03  2.13942E+04  1.73450E+04  9.73236E+03  2.74890E+04
 -5.16876E+03  2.88875E+04 -1.91583E+04  1.82385E+04 -2.06817E+04  4.00615E+03 -1.42943E+04 -5.43490E+03
 -7.01356E+03 -6.79450E+03 -7.13179E+02 -5.23784E+02 -3.07402E+03  2.70806E+03 -6.79631E+03  5.06327E+03
 -1.29172E+04 -1.02222E+03 -1.45413E+04 -1.19209E+04 -5.37132E+03 -1.83843E+04  5.66679E+03 -1.49134E+04
  1.25015E+04 -5.58129E+03  8.33857E+03  4.24066E+03 -3.97990E+02  6.44927E+03 -7.39462E+03 -1.13818E+03
 -6.64470E+03 -9.04595E+03 -3.79289E+02 -1.40468E+04  8.86825E+03 -1.51455E+04  1.86551E+04 -8.21934E+03
  2.15812E+04  2.00061E+03  1.57918E+04  1.24561E+04  2.77527E+03  1.71815E+04 -8.71847E+03  1.50982E+04
 -1.15740E+04  3.84429E+03 -6.13050E+03 -2.89517E+03  2.48046E+03 -4.29117E+03  8.37271E+03 -6.22746E+02
  6.63848E+03  6.17886E+03  1.33841E+03  1.11410E+04 -7.47736E+03  1.11510E+04 -1.47013E+04  1.67886E+03
 -9.68693E+03 -6.94986E+03 -2.47828E+02 -1.23744E+04  8.07658E+03 -6.44065E+03  8.77553E+03  2.90322E+03
  2.09771E+03  9.76666E+03 -7.68897E+03  1.10432E+04 -1.19050E+04  5.42768E+03 -1.25054E+04 -4.05330E+03
 -6.40319E+03 -1.38952E+04  4.11074E+03 -1.67968E+04  1.36604E+04 -9.58437E+03  1.53877E+04  3.09643E+03
  8.90201E+03  1.20071E+04 -1.66601E+03  1.48646E+04 -1.05111E+04  7.44676E+03 -1.14344E+04 -1.48414E+03
 -9.98981E+03 -9.56720E+03 -2.01899E+03 -1.13370E+04  5.63538E+03 -8.41935E+03  6.59232E+03 -3.00415E+03
  4.66053E+03  1.78684E+03 -7.68173E+02  1.72074E+03 -1.03125E+03 -2.75704E+03  2.57172E+03 -6.58740E+03
  1.03525E+04 -4.47842E+03  1.47378E+04  1.02147E+03  1.45308E+04  9.48614E+03  1.00814E+04  1.89942E+04
 -4.57662E+03  2.16904E+04 -1.83414E+04  1.60740E+04 -2.37097E+04  3.49035E+03 -1.84503E+04 -8.18656E+03
 -9.82817E+03 -1.45958E+04 -1.70855E+02 -1.26112E+04  4.88969E+03 -6.84999E+03  4.85742E+03 -5.05036E+03
  3.95601E+03 -2.64588E+03  3.89005E+03 -3.88105E+03  6.12779E+03 -3.64802E+03  7.20254E+03 -1.22139E+03
  9.67327E+03  1.57108E+03  5.34415E+03  8.43676E+03 -2.12892E+03  8.99842E+03 -1.04543E+04  6.80701E+03
 -1.28809E+04 -7.98532E+02 -7.93658E+03 -8.95004E+03 -8.86040E+02 -1.41113E+04  7.72593E+03 -1.42297E+04
  1.45523E+04 -8.06359E+03  1.76030E+04  2.52995E+03  1.16896E+04  1.19964E+04  1.84926E+03  1.50463E+04
 -6.40763E+03  1.33489E+04 -8.79148E+03  4.91583E+03 -6.54472E+03 -8.36490E+02 -2.25815E+03 -2.23437E+03
 -1.70110E+03 -7.53588E+01 -2.14955E+03  2.11417E+03 -5.35307E+03  2.39429E+03 -8.37916E+03 -1.19766E+03
 -6.39369E+03 -9.22851E+03  2.22007E+01 -1.29858E+04  8.36457E+03 -1.22682E+04  1.29785E+04 -2.64347E+03
  1.25303E+04  6.04505E+03  5.22543E+03  1.20584E+04 -1.80844E+03  1.27784E+04 -7.97454E+03  7.64890E+03
 -1.21686E+04  5.28124E+02 -9.73265E+03 -7.88772E+03 -6.11820E+02 -1.01974E+04  5.74941E+03 -8.03590E+03
  7.11783E+03 -2.52904E+03  5.58321E+03  1.81627E+03  2.74236E+03  4.07296E+03  7.36879E+02  1.52010E+03
  2.54881E+03  1.36007E+03  2.92014E+03  1.87577E+03  3.95971E+03  4.45251E+03  3.37743E+03  6.58822E+03
 -2.19684E+03  1.08331E+04 -8.57126E+03  9.94440E+03 -1.22702E+04  2.60303E+03 -1.31606E+04 -5.08779E+03
 -6.20371E+03 -1.26222E+04  2.01375E+03 -1.39973E+04  7.44236E+03 -9.25849E+03  1.07638E+04 -1.89633E+03
  7.77868E+03  4.58452E+03  1.82897E+03  6.90414E+03 -3.35027E+03  5.07221E+03 -4.32762E+03 -7.34742E+02
 -2.02856E+03 -4.97938E+03  2.75606E+03 -5.52222E+03  4.92670E+03 -2.56582E+03  4.94189E+03  3.45461E+02
  2.47237E+03  2.45357E+03  1.76783E+03  1.36684E+03 -5.40799E+02  2.35830E+03  9.61122E+02 -2.08186E+02
  1.89910E+03 -7.07868E+02  5.11189E+03  1.61122E+03  2.64481E+03  6.60119E+03 -8.48322E+02  8.12799E+03
 -5.67694E+03  6.31744E+03 -7.76236E+03  1.49664E+03 -7.62067E+03 -2.82337E+03 -3.05790E+03 -4.82535E+03
  6.62837E+02 -4.37793E+03  2.87671E+03 -2.46305E+03  1.77046E+03  2.77661E+03 -1.47162E+03  4.41124E+03
 -5.25028E+03  2.23620E+03 -5.94686E+03 -3.12856E+03 -3.01217E+03 -6.78852E+03  1.41962E+03 -7.29111E+03
  4.38316E+03 -4.02121E+03  4.83622E+03 -6.21660E+02  4.28740E+03  1.09128E+03  4.10246E+02  3.37620E+03
 -2.59328E+03  2.49009E+02 -2.96567E+03 -2.51422E+03  6.86558E+02 -5.62061E+03  5.77484E+03 -4.21626E+03
  7.55443E+03  3.41971E+02  6.92468E+03  5.08584E+03  3.10684E+03  8.06202E+03 -1.99720E+03  7.70329E+03
 -6.29234E+03  3.06783E+03 -7.26148E+03 -3.61355E+02 -4.31357E+03 -4.98731E+03  2.08153E+03 -3.89043E+03
  5.57319E+03 -2.64751E+03  3.69019E+03  1.46423E+03  1.92271E+03  4.32101E+03 -6.88472E+02  3.76528E+03
 -1.69564E+03  2.62789E+03 -1.60011E+03  4.59974E+02 -3.82122E+02  5.54741E+01 -1.67709E+03  1.85771E+03
 -2.20120E+03  2.52902E+03 -5.30798E+03  2.69575E+03 -7.58900E+03  2.67429E+02 -8.60615E+03 -5.43676E+03
 -4.98577E+03 -1.04335E+04  2.14220E+03 -1.17619E+04  7.37245E+03 -9.57757E+03  1.13446E+04 -3.44983E+03
  1.07404E+04  1.78440E+03  6.46695E+03  7.89216E+03  3.75104E+02  7.91021E+03 -3.03111E+03  6.56092E+03
 -4.43727E+03  2.11275E+03 -2.17175E+03 -5.75204E+02 -1.44489E+03 -6.05986E+02 -7.73665E+01  1.98227E+02
 -1.96753E+03  1.33814E+02 -2.58840E+03 -6.89583E+02 -2.11338E+02 -2.11580E+03  1.97731E+02 -3.02763E+03
  3.70377E+03 -2.95008E+03  5.12872E+03  3.15624E+02  5.99778E+03  4.86080E+03  1.32346E+03  7.55508E+03
 -3.58779E+03  9.44671E+03 -8.14506E+03  5.69099E+03 -9.58050E+03 -1.03169E+03 -7.05137E+03 -5.72473E+03
 -3.19573E+03 -7.77387E+03  2.39478E+03 -6.78743E+03  4.67142E+03 -3.90037E+03  5.48860E+03  4.23517E+02
  2.73863E+03  2.18938E+03 -2.44656E+02  2.00200E+03 -1.79010E+03  8.83938E+02  6.89897E+01 -1.98406E+03
  2.48595E+03 -1.12717E+03  2.35014E+03  1.36457E+03  1.73911E+03  3.44737E+03  2.01793E+02  3.67109E+03
 -3.84856E+03  3.27501E+03 -5.21794E+03  4.18466E+02 -3.94777E+03 -3.31267E+03 -5.96751E+02 -6.65130E+03
  3.10072E+03 -5.09174E+03  6.08633E+03 -2.41824E+03  5.97587E+03  1.14531E+03  3.52921E+03  4.76725E+03
  9.31157E+02  4.80537E+03 -2.09206E+03  3.67083E+03 -3.17943E+03  2.11543E+03 -2.30152E+03  5.62409E+02
 -1.46900E+03  6.06240E+01 -1.91452E+03 -1.62325E+01 -2.96860E+03  8.55148E+02 -3.42758E+03 -2.66727E+02
 -3.74612E+03 -2.23707E+03 -7.44721E+02 -5.68404E+03  2.54055E+03 -5.35430E+03  4.63397E+03 -2.43058E+03
  5.00932E+03  8.07797E+02  2.29833E+03  3.08791E+03 -2.52000E+02  4.86663E+03 -3.63337E+03  2.65324E+03
