 $NMID ID='MM_0lb_SNR400_20hz_g55_72.RAW', FMTDAT='(8E13.5)'
 TRAMP=1., VOLUME=1. $END
  3.09842E+05  9.36929E+02  3.37578E+05  2.50586E+05  8.45324E+04  3.37833E+05 -1.32446E+05  2.50534E+05
 -1.89852E+05  8.24220E+04 -1.11506E+05 -3.29202E+04  1.95702E+03 -5.04029E+04  5.36058E+04 -2.64914E+02
  3.52316E+04  5.29731E+04 -1.75563E+04  7.48502E+04 -6.05774E+04  6.26305E+04 -8.35699E+04  3.15211E+04
 -7.93989E+04 -1.13988E+04 -5.65014E+04 -5.06438E+04 -1.49587E+04 -6.82692E+04  2.69462E+04 -4.43863E+04
  3.87963E+04  4.34581E+03  1.58882E+04  4.71767E+04 -3.34522E+04  4.60805E+04 -6.56750E+04 -4.27031E+02
 -5.20485E+04 -5.58772E+04 -6.41866E+03 -7.47742E+04  3.30354E+04 -5.31017E+04  4.69115E+04 -1.65461E+04
  4.17986E+04  1.06770E+04  3.09601E+04  2.48569E+04  1.58332E+04  2.81056E+04 -5.20897E+03  2.63758E+04
 -2.19548E+04  1.30085E+04 -1.95470E+04 -4.37103E+03  4.57438E+03 -7.48989E+03  2.10293E+04  1.13345E+04
  7.44265E+03  3.35301E+04 -3.06485E+04  3.38718E+04 -6.04874E+04  2.42405E+03 -5.52324E+04 -4.08169E+04
 -1.26274E+04 -6.10235E+04  3.81486E+04 -4.37722E+04  5.53238E+04 -1.89628E+03  3.20370E+04  3.06750E+04
 -6.36579E+03  3.26582E+04 -2.82838E+04  1.36237E+04 -2.78680E+04 -5.17377E+03 -1.42450E+04 -1.04797E+04
 -7.28047E+03 -1.17751E+04 -1.43351E+03 -1.62864E+04  6.72058E+03 -2.25437E+04  1.50426E+04 -1.36818E+04
  1.21447E+04  4.14721E+03 -6.83823E+03  1.34835E+04 -1.97422E+04 -2.34732E+03 -8.11018E+03 -3.02240E+04
  2.05607E+04 -4.08873E+04  4.42643E+04 -1.87411E+04  4.19081E+04  1.81778E+04  1.45788E+04  4.17760E+04
 -1.53894E+04  3.12363E+04 -2.36118E+04  8.09101E+02 -8.70739E+03 -2.64654E+04  2.05127E+04 -3.06550E+04
  3.78825E+04 -7.45754E+03  3.13167E+04  2.31772E+04  1.55364E+04  4.28645E+04 -7.16398E+03  4.48751E+04
 -2.87897E+04  2.99135E+04 -3.75679E+04  8.54484E+03 -3.81968E+04 -1.46879E+04 -2.11473E+04 -3.42211E+04
  6.92045E+03 -3.43478E+04  2.90452E+04 -1.24897E+04  2.70466E+04  1.07311E+04  2.80856E+03  1.80810E+04
 -1.28730E+04  6.71887E+03 -8.98270E+03 -7.32118E+03  5.82779E+03 -1.00627E+04  1.69264E+04  6.21738E+03
  1.21745E+04  2.18696E+04 -6.36724E+03  2.36401E+04 -2.15034E+04  9.11719E+03 -2.54381E+04 -6.56735E+03
 -1.64680E+04 -1.58346E+04 -5.45540E+03 -1.63663E+04  3.74421E+03 -1.46069E+04  1.24147E+04 -1.44875E+04
  2.11512E+04 -1.15417E+04  2.78851E+04  1.17514E+03  2.08154E+04  1.64264E+04  4.06845E+03  3.23542E+04
 -1.62574E+04  2.74908E+04 -2.60431E+04  9.59961E+03 -1.97108E+04 -1.08304E+04 -3.75259E+03 -1.38447E+04
  2.80211E+03 -3.79814E+03 -2.57271E+03  5.58622E+03 -1.25851E+04  5.05846E+03 -1.34645E+04 -4.53005E+03
 -8.53555E+03 -1.56810E+04  4.50198E+03 -1.96614E+04  1.25368E+04 -1.37907E+04  1.42607E+04 -1.47667E+03
  8.46651E+03  1.10789E+04 -8.61834E+02  1.56394E+04 -1.00447E+04  8.76552E+03 -1.51516E+04 -3.62069E+03
 -1.12180E+04 -1.42798E+04 -1.06962E+03 -1.87466E+04  8.67785E+03 -1.50170E+04  1.59803E+04 -7.37842E+03
  1.46119E+04  1.03278E+03  1.02421E+04  3.72504E+03  4.69388E+03  2.75718E+02  7.87727E+03 -1.08632E+03
  1.34736E+04  2.42275E+03  1.45063E+04  1.21096E+04  9.00123E+03  2.44244E+04 -3.53043E+03  2.55903E+04
 -1.55302E+04  2.01416E+04 -2.34043E+04  9.43221E+03 -2.46581E+04 -1.46690E+03 -2.07234E+04 -1.38787E+04
 -9.75261E+03 -1.97495E+04  6.83749E+03 -1.86303E+04  1.64296E+04 -1.05654E+04  1.54122E+04  3.74894E+03
  6.83021E+03  1.08942E+04 -6.92471E+03  1.00992E+04 -1.26290E+04  2.68520E+03 -1.00630E+04 -7.91184E+03
 -2.09194E+02 -1.21062E+04  6.13987E+03 -8.95676E+03  7.33215E+03 -1.52128E+03  1.19413E+03  4.87664E+03
 -6.18433E+03  1.23802E+03 -3.72000E+03 -4.58209E+03  5.89873E+02 -1.00900E+04  7.21575E+03 -9.80272E+03
  1.18102E+04 -4.36739E+03  1.17476E+04  2.85015E+03  9.26945E+03  9.14242E+03  4.50657E+03  1.33988E+04
 -1.83416E+03  1.51260E+04 -9.21974E+03  9.55689E+03 -1.08388E+04  2.44212E+03 -7.92285E+03 -1.31287E+03
 -4.12550E+03 -3.36127E+03 -6.14904E+02  1.61030E+03 -2.10809E+03  2.30631E+03 -3.56044E+03  2.87410E+03
 -7.37671E+03 -7.72184E+02 -8.28554E+03 -7.10431E+03 -3.55303E+03 -1.13267E+04  3.23533E+03 -8.12356E+03
  7.14151E+03 -2.92281E+03  4.57237E+03  1.86887E+03  4.51640E+02  3.02123E+03 -3.25309E+03 -2.96972E+02
 -3.06388E+03 -4.42956E+03 -8.39315E+02 -6.80841E+03  2.87210E+03 -7.68335E+03  9.28504E+03 -4.17882E+03
  1.13563E+04  3.05419E+02  8.42271E+03  5.67978E+03  1.58182E+03  7.64999E+03 -4.58382E+03  8.35726E+03
 -6.44233E+03  3.06063E+03 -3.87257E+03 -1.01894E+03  1.59034E+03 -1.29910E+03  4.41674E+03 -1.47091E+03
  3.97834E+03  2.72195E+03  1.43650E+03  6.68246E+03 -4.53952E+03  5.79754E+03 -7.40001E+03  2.11201E+03
 -4.63633E+03 -3.49256E+03  5.76190E+02 -6.21140E+03  3.40836E+03 -3.10676E+03  3.58896E+03  7.84160E+02
  1.22219E+02  2.60750E+03 -3.49571E+03  4.25787E+03 -4.15036E+03  2.22192E+03 -4.22345E+03 -1.07174E+03
 -2.25902E+03 -5.06046E+03  8.73577E+02 -6.60114E+03  5.18048E+03 -4.36385E+03  5.59631E+03  7.00546E+02
  4.18144E+03  5.42748E+03  4.99270E+02  6.76160E+03 -4.53861E+03  3.52927E+03 -4.88346E+03 -4.01901E+02
 -5.64412E+03 -4.40244E+03 -1.18515E+03 -4.55629E+03  2.35043E+03 -4.32742E+03  3.33203E+03 -2.83602E+03
  2.54559E+03  2.84356E+02 -4.48709E+00  1.18647E+03  6.21360E+02 -6.28087E+01  4.70851E+01 -1.36967E+03
  3.63548E+03 -3.97297E+02  4.03297E+03  9.28618E+02  4.81996E+03  2.61405E+03  4.50643E+03  6.28482E+03
 -7.05896E+02  7.48171E+03 -6.72079E+03  5.75945E+03 -9.22686E+03  1.45935E+03 -6.99706E+03 -1.70933E+03
 -4.19985E+03 -5.96793E+03  7.09981E+01 -3.93331E+03  2.32055E+03 -2.00425E+03  1.81100E+03 -1.85188E+03
  9.49827E+02 -1.33811E+03  1.67736E+03 -2.51440E+03  3.57078E+03 -2.78433E+02  3.48567E+03  3.58018E+02
  4.35920E+03  1.30915E+03  9.22413E+02  2.73298E+03 -1.80083E+03  2.18154E+03 -4.03464E+03  2.03407E+03
 -4.19521E+03 -1.49249E+03 -1.38827E+03 -2.83840E+03  7.15903E+02 -4.29482E+03  2.84308E+03 -5.03135E+03
  3.94872E+03 -3.37267E+03  5.96418E+03  2.69673E+02  4.41422E+03  3.13991E+03  1.11232E+03  5.37121E+03
 -1.86574E+03  5.02785E+03 -2.75208E+03  1.75489E+03 -1.41499E+03 -1.42987E+03 -7.01086E+02 -9.62050E-01
 -7.10126E+02  4.96420E+02 -5.04289E+02  1.87931E+03 -1.92745E+03  1.06332E+03 -3.24176E+03 -5.29048E+02
 -1.25687E+03 -3.67417E+03  9.00550E+02 -4.03489E+03  2.33859E+03 -3.95709E+03  2.68646E+03 -8.91947E+02
  3.37971E+03  2.14666E+03  1.85523E+03  2.24375E+03 -3.31188E+02  3.79338E+03 -1.74959E+03  2.78217E+03
 -2.52593E+03  2.04754E+02 -3.21040E+03 -2.56656E+03  8.62050E+01 -2.70850E+03  9.90424E+02 -1.59490E+03
  2.16825E+03 -1.23757E+03  1.94630E+03  3.22627E+01  1.23199E+02  1.24547E+03  1.05727E+03  3.70730E+02
  1.57658E+03  7.32856E+02  5.91109E+02  3.97473E+02  1.24871E+03  2.07613E+03  1.31991E+03  1.59072E+03
 -5.85952E+02  2.56545E+03 -1.99664E+03  3.35476E+03 -2.06244E+03  1.22849E+03 -2.97230E+03 -1.63414E+02
 -2.02765E+03 -2.97933E+03  1.09242E+03 -4.18125E+03  1.22764E+03 -1.73024E+03  2.45120E+03 -4.85196E+02
  1.99414E+03  9.10339E+02  8.37905E+02  1.94355E+03 -8.46028E+02  1.12980E+03 -1.15882E+03  3.77429E+02
  2.11571E+02 -1.49048E+03  1.08618E+03 -1.06836E+03  7.78246E+02 -8.34813E+02  8.92834E+02  5.67995E+02
  6.54520E+02  2.57762E+02  7.34544E+02  3.53773E+02 -3.45378E+02  2.72614E+02  2.11530E+03 -2.17112E+02
  8.56401E+01  2.85613E+02  1.56377E+03  3.51227E+02  6.88442E+02  1.73662E+03 -2.91535E+01  2.58627E+03
 -3.57717E+02  1.02125E+03 -1.60656E+03  9.08481E+02 -1.77843E+03 -5.00245E+02  6.32972E+02 -2.97306E+01
  1.15838E+02 -8.15017E+02  8.49835E+02 -7.75036E+02  7.52008E+02  8.64598E+02 -4.96958E+02  1.11690E+03
 -1.97551E+03  7.59448E+01 -2.79012E+02 -1.40894E+03 -2.99390E+02 -1.14859E+03  6.49635E+02 -1.47627E+03
 -1.45838E+02 -2.98578E+02  8.22670E+01  7.49459E+02  9.67331E+02 -1.80815E+02  4.19334E+02  3.35853E+02
 -4.04830E+02 -1.46751E+02 -8.16250E+02 -2.05289E+02  8.94170E+02 -1.04307E+02  1.29340E+03 -3.26846E+02
  3.25910E+02  3.40885E+02  1.34732E+03 -1.52967E+01  6.28162E+02  1.39014E+03 -5.54071E+02  1.33030E+03
 -4.35385E+02  9.89387E+01 -1.55037E+03 -8.18866E+01 -2.47278E+02 -1.47346E+03  5.80407E+01 -1.98784E+02
  1.98751E+03 -5.44127E+02  2.75634E+01 -1.61070E+02  1.17345E+02  7.67037E+02  2.40833E+02  1.09761E+03
  3.79098E+02  9.49760E+02 -6.68923E+01  3.56792E+02 -1.84070E+01  2.70933E+02 -7.51522E+02  4.61177E+02
 -8.29463E+02  4.70259E+02 -1.60378E+03  3.57420E+02 -1.32639E+03  1.09415E+02 -1.70139E+03  3.25458E+01
 -5.07210E+02 -1.62347E+03  3.65386E+02 -1.90882E+03  6.48960E+02 -1.47940E+03  1.95989E+03 -9.65406E+02
  1.93338E+03 -9.33545E+01  1.39878E+03  6.77785E+02 -1.07542E+02  1.10016E+03  2.00756E+02  3.76363E+02
 -8.16413E+02  9.64392E+02 -2.67858E+02 -2.80230E+02 -3.79747E+02  4.77992E+02 -4.96552E+02 -1.05280E+02
 -9.94199E+02 -9.12792E+02 -1.42825E+02  3.21132E+02  5.16627E+02 -3.31037E+02 -7.23577E+02 -7.07442E+02
  8.81948E+02 -3.42618E+02  2.17558E+02  4.56248E+01  7.19552E+02  7.45263E+02 -7.65589E+02  5.62207E+02
 -7.34373E+02  1.84996E+03 -1.42263E+03  6.89449E+02 -1.11340E+03 -3.27741E+02 -1.44105E+02 -1.39379E+03
 -7.82535E+02 -6.43033E+02  5.59952E+02 -6.69937E+02 -2.72098E+02  3.04046E+01  1.01311E+02  4.03233E+02
  8.76080E+02  5.27970E+02  1.51388E+02  3.95769E+01 -1.54847E+02 -1.79562E+02 -1.10347E+02  3.39074E+02
  1.95646E+01 -3.10485E+02 -2.27928E+02  2.85903E+02 -3.83357E+01 -6.33341E+01  3.99137E+02  3.06978E+02
 -2.73320E+02  8.88602E+02 -6.73817E+01  2.38235E+02 -2.40671E+02 -1.14022E+02  2.77933E+02 -1.55459E+02
  5.54134E+02 -6.04629E+02 -3.38157E+02  2.46340E+02  4.91077E+02 -5.92141E+02 -2.81245E+02  9.74214E+01
  1.95449E+02  5.48900E+02  1.42587E+02  1.01666E+02 -2.07924E+02 -5.30376E+01 -4.77709E+02  9.66020E+01
 -3.40124E+02  2.99206E+02 -2.71188E+02 -3.40123E+02 -5.83122E+02  3.07130E+02 -6.49613E+02 -4.87180E+01
 -9.73983E+02  8.99606E+02 -1.96569E+02 -6.95155E+02  2.92153E+00 -9.91384E+02  5.51016E+02  5.12546E+02
  3.41806E+02  3.85935E+02 -1.75131E+02  6.05360E+02  2.57220E+02  3.80511E+02 -1.41270E+02  8.34813E+02
