 $NMID ID='MM_0lb_SNR400_14hz_g60_7.RAW', FMTDAT='(8E13.5)'
 TRAMP=1., VOLUME=1. $END
  3.09436E+05  5.41850E+01  3.37456E+05  2.50875E+05  8.47690E+04  3.38142E+05 -1.32433E+05  2.51770E+05
 -1.90288E+05  8.38356E+04 -1.12358E+05 -3.21138E+04 -2.42980E+02 -5.10674E+04  5.43025E+04  4.48323E+02
  3.55127E+04  5.35247E+04 -1.65432E+04  7.55695E+04 -6.02913E+04  6.45320E+04 -8.44128E+04  3.23344E+04
 -8.13093E+04 -1.09486E+04 -5.77354E+04 -5.11755E+04 -1.49643E+04 -6.98386E+04  2.77787E+04 -4.67438E+04
  4.04295E+04  4.13645E+03  1.64230E+04  4.81258E+04 -3.49451E+04  4.81727E+04 -6.70846E+04  6.45146E+02
 -5.38534E+04 -5.69655E+04 -7.46193E+03 -7.82343E+04  3.41551E+04 -5.59074E+04  4.86140E+04 -1.76473E+04
  4.38495E+04  1.11767E+04  3.17387E+04  2.58208E+04  1.55425E+04  2.97909E+04 -5.77293E+03  2.79496E+04
 -2.23755E+04  1.26009E+04 -1.90569E+04 -4.74856E+03  6.03310E+03 -7.87059E+03  2.31118E+04  1.27534E+04
  7.00512E+03  3.63852E+04 -3.27920E+04  3.62016E+04 -6.42300E+04  1.98613E+03 -5.74251E+04 -4.38275E+04
 -1.22140E+04 -6.40320E+04  4.01962E+04 -4.66691E+04  5.88951E+04 -3.24449E+03  3.49632E+04  3.25205E+04
 -6.10077E+03  3.77194E+04 -3.06784E+04  1.68671E+04 -3.11052E+04 -4.25346E+03 -1.78664E+04 -1.20323E+04
 -9.17299E+03 -1.38541E+04 -8.54201E+02 -1.86445E+04  7.83280E+03 -2.28120E+04  1.59798E+04 -1.34389E+04
  1.04820E+04  5.66840E+03 -9.79578E+03  1.22316E+04 -2.19289E+04 -4.65196E+03 -7.78476E+03 -3.57499E+04
  2.38709E+04 -4.44369E+04  4.93968E+04 -2.03893E+04  4.64286E+04  2.03038E+04  1.70684E+04  4.57066E+04
 -1.63912E+04  3.43700E+04 -2.60994E+04  2.51788E+03 -1.08639E+04 -2.82968E+04  2.14401E+04 -3.50276E+04
  4.19377E+04 -9.29536E+03  3.70565E+04  2.44079E+04  1.94161E+04  4.85155E+04 -8.12092E+03  5.18908E+04
 -3.28225E+04  3.55481E+04 -4.39383E+04  1.01672E+04 -4.39311E+04 -1.71604E+04 -2.49979E+04 -3.96772E+04
  7.92322E+03 -3.96494E+04  3.25208E+04 -1.59558E+04  3.01440E+04  1.15842E+04  4.70903E+03  1.97468E+04
 -1.36652E+04  9.08252E+03 -1.02982E+04 -7.23102E+03  5.42717E+03 -1.08845E+04  1.79485E+04  5.81018E+03
  1.43587E+04  2.20392E+04 -6.10705E+03  2.58651E+04 -2.23392E+04  1.22411E+04 -2.91006E+04 -4.15802E+03
 -2.28923E+04 -1.75049E+04 -9.51746E+03 -2.15244E+04  4.54199E+03 -2.16004E+04  1.68507E+04 -1.92009E+04
  2.80809E+04 -1.38726E+04  3.42767E+04  3.48840E+03  2.46585E+04  2.06917E+04  4.59762E+03  3.80119E+04
 -1.90893E+04  3.13830E+04 -2.89746E+04  1.05983E+04 -2.11372E+04 -1.06139E+04 -4.46877E+03 -1.30319E+04
  1.71180E+03 -2.30117E+03 -5.92724E+03  7.46569E+03 -1.73012E+04  5.17073E+03 -1.79594E+04 -7.79268E+03
 -1.09755E+04 -1.99177E+04  5.72029E+03 -2.40891E+04  1.65454E+04 -1.81957E+04  1.88983E+04 -1.66387E+03
  1.24953E+04  1.35329E+04 -6.28437E+02  2.06229E+04 -1.39401E+04  1.16497E+04 -1.96992E+04 -3.82327E+03
 -1.47515E+04 -1.78776E+04 -1.65020E+03 -2.40638E+04  1.06074E+04 -2.00098E+04  2.05815E+04 -9.79933E+03
  1.91505E+04 -7.45224E+02  1.36724E+04  4.78382E+03  7.82179E+03  7.31698E+02  1.09893E+04 -1.95604E+03
  1.82524E+04  2.96054E+03  2.07405E+04  1.57456E+04  1.41965E+04  3.25623E+04 -3.15740E+03  3.62754E+04
 -2.13075E+04  2.97440E+04 -3.40034E+04  1.51534E+04 -3.56468E+04 -2.81338E+03 -2.93812E+04 -2.12257E+04
 -1.23311E+04 -3.01215E+04  1.07286E+04 -2.71305E+04  2.35255E+04 -1.39620E+04  2.04630E+04  6.08341E+03
  7.47379E+03  1.57278E+04 -9.44876E+03  1.34243E+04 -1.74194E+04  2.65926E+03 -1.27109E+04 -1.09720E+04
 -1.71104E+02 -1.65013E+04  8.46093E+03 -1.24065E+04  1.07113E+04 -1.26921E+03  1.96142E+03  7.23069E+03
 -7.43047E+03  2.99273E+03 -6.62513E+03 -6.05177E+03 -5.14461E+02 -1.48453E+04  9.75816E+03 -1.54900E+04
  1.75228E+04 -8.14838E+03  1.96894E+04  2.70111E+03  1.71644E+04  1.41238E+04  8.29740E+03  2.22878E+04
 -3.95133E+03  2.50993E+04 -1.54251E+04  1.46099E+04 -1.80143E+04  3.42321E+03 -1.20268E+04 -3.87830E+03
 -5.19308E+03 -5.91502E+03 -4.91250E+02  6.88091E+02 -2.52054E+03  2.84397E+03 -5.81630E+03  5.01032E+03
 -1.13387E+04 -8.16895E+02 -1.18226E+04 -9.64332E+03 -5.01176E+03 -1.53754E+04  5.12438E+03 -1.26380E+04
  1.01761E+04 -5.23848E+03  7.55933E+03  3.50418E+03  2.62444E+02  4.76015E+03 -5.71717E+03 -3.46966E+02
 -5.19649E+03 -7.60586E+03 -9.73614E+02 -1.16443E+04  6.17561E+03 -1.24323E+04  1.44288E+04 -7.04702E+03
  1.84102E+04  1.46693E+03  1.34363E+04  1.08777E+04  2.61818E+03  1.41199E+04 -7.85927E+03  1.15552E+04
 -1.04372E+04  3.78776E+03 -5.12527E+03 -2.35543E+03  1.82063E+03 -3.23859E+03  7.03820E+03 -5.62340E+02
  5.24547E+03  5.30417E+03  9.75334E+02  9.51935E+03 -7.09515E+03  9.16539E+03 -1.16488E+04  2.14075E+03
 -7.41812E+03 -5.43994E+03  1.90375E+02 -1.00232E+04  5.48729E+03 -5.26991E+03  5.99138E+03  2.25127E+03
  1.25777E+03  7.08647E+03 -6.05099E+03  8.10229E+03 -9.51034E+03  3.77525E+03 -8.57264E+03 -3.21291E+03
 -5.25370E+03 -1.04851E+04  2.70871E+03 -1.29148E+04  1.03229E+04 -7.66379E+03  1.18558E+04  1.54158E+03
  7.38009E+03  9.01789E+03 -3.69798E+02  1.17858E+04 -7.80488E+03  6.44052E+03 -9.28851E+03 -1.18747E+03
 -7.87402E+03 -7.96910E+03 -2.04135E+03 -8.59609E+03  4.11048E+03 -6.91544E+03  5.04977E+03 -2.73211E+03
  3.87409E+03  1.12703E+03 -6.04930E+02  1.96533E+03  3.98264E+01 -2.18643E+03  1.68022E+03 -4.89828E+03
  7.57453E+03 -2.47397E+03  1.07852E+04  8.94661E+02  9.47297E+03  7.51369E+03  7.24556E+03  1.33526E+04
 -3.03772E+03  1.57512E+04 -1.35403E+04  1.22098E+04 -1.68104E+04  2.04444E+03 -1.34815E+04 -5.72116E+03
 -7.41517E+03 -1.11606E+04 -5.13198E+02 -9.65535E+03  3.37174E+03 -4.96240E+03  3.90006E+03 -2.78241E+03
  2.56204E+03 -1.89478E+03  3.01498E+03 -2.45482E+03  4.39716E+03 -2.49143E+03  5.56593E+03 -1.32036E+03
  7.45844E+03  1.49477E+03  3.02412E+03  5.84254E+03 -1.25884E+03  6.97318E+03 -7.72649E+03  5.60524E+03
 -9.40871E+03 -1.37236E+03 -5.32904E+03 -6.39964E+03 -6.57317E+02 -1.02186E+04  5.93763E+03 -1.02728E+04
  1.07406E+04 -5.87029E+03  1.22717E+04  9.12606E+02  8.88274E+03  8.08148E+03  1.87387E+03  1.12271E+04
 -4.59986E+03  9.42339E+03 -6.10856E+03  2.53142E+03 -3.54949E+03 -1.53172E+03 -1.70963E+03 -1.02226E+03
 -1.02444E+03 -1.10890E+02 -1.52155E+03  1.87631E+03 -4.34278E+03  1.58698E+03 -6.30927E+03 -1.04862E+03
 -3.68103E+03 -6.53063E+03  4.25835E+02 -8.54446E+03  5.47627E+03 -8.66783E+03  8.10614E+03 -2.36210E+03
  8.61266E+03  4.05968E+03  3.73738E+03  6.76786E+03 -1.94175E+03  8.59668E+03 -6.31771E+03  5.24838E+03
 -8.17141E+03  7.41902E+02 -6.79286E+03 -5.45069E+03 -7.79139E+02 -7.06247E+03  3.48695E+03 -5.23740E+03
  4.83826E+03 -1.89639E+03  3.76142E+03  7.00848E+02  7.48318E+02  2.79770E+03  1.09361E+03  8.18730E+02
  2.21798E+03  5.06568E+02  2.13444E+03  1.57778E+03  2.65223E+03  3.20801E+03  2.39087E+03  4.57665E+03
 -1.92362E+03  6.83836E+03 -5.25712E+03  7.07399E+03 -7.65645E+03  1.41901E+03 -8.72365E+03 -3.04616E+03
 -3.82428E+03 -7.72046E+03  1.57012E+03 -9.47968E+03  4.56390E+03 -5.28222E+03  6.30039E+03 -1.52224E+03
  5.35094E+03  3.30792E+03  4.36461E+02  4.73408E+03 -1.98591E+03  2.92591E+03 -3.11958E+03 -8.73311E+01
 -1.68612E+03 -3.90749E+03  2.56156E+03 -3.14214E+03  3.48307E+03 -2.40345E+03  3.40979E+03  8.65309E+02
  2.32085E+03  1.42081E+03  1.17448E+03  1.25028E+03 -9.18656E+02  7.38337E+02  2.07655E+03 -1.38432E+02
  9.25017E+02 -3.88418E+02  3.38226E+03  1.57128E+03  2.30952E+03  4.86879E+03 -7.93980E+02  6.06840E+03
 -3.29958E+03  3.06156E+03 -4.87428E+03  8.98991E+02 -4.71003E+03 -1.96983E+03 -1.07103E+03 -3.33753E+03
  1.31224E+03 -2.90119E+03  1.49219E+03 -1.70834E+03  1.38762E+03  1.70195E+03 -1.30111E+03  2.59280E+03
 -3.05075E+03  1.34531E+03 -2.80902E+03 -2.43409E+03 -2.64481E+03 -4.02723E+03  2.05417E+02 -4.01343E+03
  2.14252E+03 -2.06500E+03  2.69982E+03 -6.78808E+02  2.71950E+03  6.97765E+02  8.49870E+02  1.98883E+03
 -8.82077E+02  3.84623E+02 -1.84366E+03 -1.38716E+03  6.06538E+02 -3.08240E+03  4.19222E+03 -2.41364E+03
  3.57470E+03  2.69304E+02  4.79928E+03  2.60649E+03  2.18485E+03  4.27340E+03 -1.52374E+03  4.39295E+03
 -3.44643E+03  1.12968E+03 -4.12078E+03 -1.30241E+02 -2.49316E+03 -3.45688E+03  1.06290E+03 -2.22184E+03
  3.43373E+03 -1.94241E+03  1.98783E+03  1.13890E+03  3.20028E+02  2.54191E+03 -1.06352E+02  2.46851E+03
 -7.59466E+02  2.05913E+03 -1.34252E+03  3.44211E+02 -4.88367E+02  2.11517E+02 -1.17478E+03  1.09712E+03
 -1.21268E+03  1.65753E+03 -3.07482E+03  1.82809E+03 -3.90623E+03  4.54551E+02 -4.92979E+03 -3.49383E+03
 -2.13707E+03 -5.48661E+03  1.44042E+03 -7.15641E+03  4.17361E+03 -5.14388E+03  5.89197E+03 -2.26802E+03
  5.85877E+03  1.00569E+03  3.35246E+03  4.12782E+03  3.03296E+02  4.33785E+03 -1.55246E+03  3.36249E+03
 -1.92354E+03  1.53255E+03 -7.00909E+02 -7.40240E+02 -2.94071E+02  2.33451E+02 -9.55212E+02 -4.99723E+02
 -6.54036E+02  2.74208E+02 -9.31301E+02 -2.40439E+00 -1.95820E+02 -1.26222E+03 -2.46738E+02 -1.05122E+03
  1.59466E+03 -1.32479E+03  2.21033E+03  1.02191E+01  3.77931E+03  2.21299E+03  5.40641E+02  4.58435E+03
 -2.10991E+03  5.36698E+03 -4.41538E+03  2.70820E+03 -4.09103E+03  4.02171E+01 -3.77400E+03 -2.68394E+03
 -1.52033E+03 -3.78129E+03  9.29850E+02 -3.42438E+03  1.97937E+03 -2.07900E+03  2.02210E+03  3.74218E+02
  1.16058E+03  1.18883E+03  2.53548E+02  1.02320E+03 -7.01329E+02 -1.47027E+02 -2.05858E+02 -1.05681E+03
  1.56401E+03 -1.18382E+02  5.76488E+02  6.73600E+02  6.91694E+02  2.17741E+03  5.11420E+02  1.52118E+03
 -1.85422E+03  1.76388E+03 -2.26027E+03  2.78782E+02 -1.88223E+03 -1.96434E+03 -2.14966E+02 -3.04491E+03
  1.15009E+03 -2.44732E+03  2.88219E+03 -5.27355E+02  2.71406E+03  3.18747E+02  1.97111E+03  2.14465E+03
  1.09887E+03  2.06979E+03 -2.94280E+02  2.32839E+03 -1.75332E+03  9.19071E+02 -1.16638E+03  4.50001E+02
 -8.29551E+02 -2.09888E+01 -1.40666E+03  7.88125E+02 -1.29441E+03  5.56197E+02 -1.45697E+03 -9.39492E+02
 -2.25241E+03 -1.02785E+03 -9.22957E+02 -2.19141E+03  1.06406E+03 -3.74267E+03  2.61262E+03 -1.52793E+03
  2.06535E+03 -5.94391E+00  9.46474E+02  1.58520E+03 -3.66456E+02  2.85293E+03 -1.32046E+03  1.80026E+03
