 $NMID ID='MM_0lb_SNR400_9hz_g45_81.RAW', FMTDAT='(8E13.5)'
 TRAMP=1., VOLUME=1. $END
  3.10384E+05  7.08607E+02  3.38210E+05  2.50572E+05  8.47242E+04  3.38215E+05 -1.32738E+05  2.51802E+05
 -1.91218E+05  8.35902E+04 -1.12455E+05 -3.19648E+04 -2.93956E+02 -5.07337E+04  5.36172E+04 -6.83019E+01
  3.68050E+04  5.27981E+04 -1.72375E+04  7.66460E+04 -6.11730E+04  6.42571E+04 -8.53529E+04  3.31566E+04
 -8.23550E+04 -1.17830E+04 -5.80334E+04 -5.20638E+04 -1.50150E+04 -7.07346E+04  2.76412E+04 -4.70443E+04
  4.12253E+04  3.74409E+03  1.68179E+04  4.85422E+04 -3.49578E+04  4.81790E+04 -6.77687E+04 -1.10686E+02
 -5.55458E+04 -5.78375E+04 -7.57841E+03 -7.80210E+04  3.42417E+04 -5.68727E+04  4.90836E+04 -1.80346E+04
  4.51942E+04  1.18481E+04  3.27124E+04  2.63704E+04  1.60740E+04  3.01430E+04 -5.41331E+03  2.72140E+04
 -2.20863E+04  1.16482E+04 -1.82526E+04 -6.60750E+03  7.27206E+03 -8.12252E+03  2.38677E+04  1.24279E+04
  6.39131E+03  3.68726E+04 -3.32781E+04  3.64927E+04 -6.59501E+04  1.71561E+03 -5.93764E+04 -4.39083E+04
 -1.33353E+04 -6.63265E+04  4.14818E+04 -4.72979E+04  6.09493E+04 -2.07877E+03  3.69852E+04  3.38818E+04
 -5.67655E+03  3.91724E+04 -3.10717E+04  1.79266E+04 -3.30976E+04 -3.86156E+03 -1.84961E+04 -1.18964E+04
 -9.17160E+03 -1.53253E+04 -7.65804E+02 -1.95431E+04  8.19584E+03 -2.32357E+04  1.57511E+04 -1.26417E+04
  1.05298E+04  5.85228E+03 -9.82957E+03  1.24608E+04 -2.23744E+04 -6.61042E+03 -9.04632E+03 -3.61231E+04
  2.53245E+04 -4.65601E+04  5.18554E+04 -2.04918E+04  4.86487E+04  2.15391E+04  1.71877E+04  4.64630E+04
 -1.66156E+04  3.56925E+04 -2.75895E+04  3.16363E+03 -1.24283E+04 -2.89853E+04  2.13148E+04 -3.61589E+04
  4.40807E+04 -1.09254E+04  4.03001E+04  2.46171E+04  2.13062E+04  5.11312E+04 -8.04916E+03  5.52805E+04
 -3.45858E+04  3.74707E+04 -4.71610E+04  1.09640E+04 -4.69370E+04 -1.79664E+04 -2.64032E+04 -4.15782E+04
  7.33636E+03 -4.19664E+04  3.38555E+04 -1.61608E+04  3.21826E+04  1.15158E+04  5.26832E+03  2.05096E+04
 -1.42828E+04  1.03109E+04 -1.11520E+04 -7.14571E+03  5.07391E+03 -1.18807E+04  1.88120E+04  5.68151E+03
  1.47041E+04  2.26404E+04 -5.86290E+03  2.68869E+04 -2.34473E+04  1.41609E+04 -3.16635E+04 -2.52132E+03
 -2.46268E+04 -1.81752E+04 -1.10020E+04 -2.42905E+04  4.67783E+03 -2.54354E+04  1.99313E+04 -2.27386E+04
  3.17787E+04 -1.39149E+04  3.82964E+04  4.59823E+03  2.68718E+04  2.37107E+04  4.33005E+03  4.05666E+04
 -1.89573E+04  3.30615E+04 -3.06373E+04  1.16726E+04 -2.23281E+04 -1.08303E+04 -5.55226E+03 -1.26813E+04
  8.22254E+02 -1.94638E+03 -7.63395E+03  8.60413E+03 -1.99891E+04  5.21589E+03 -1.93361E+04 -9.38978E+03
 -1.19746E+04 -2.29360E+04  5.43424E+03 -2.69159E+04  1.84344E+04 -1.93420E+04  2.27830E+04 -1.71737E+03
  1.40540E+04  1.51804E+04 -7.62123E+02  2.28676E+04 -1.59365E+04  1.27129E+04 -2.39831E+04 -4.36122E+03
 -1.69399E+04 -2.06676E+04 -2.00570E+03 -2.82960E+04  1.22578E+04 -2.27473E+04  2.25211E+04 -1.15308E+04
  2.08330E+04 -3.03586E+02  1.63991E+04  5.06648E+03  8.65308E+03  2.20345E+03  1.19566E+04 -2.24091E+03
  2.11275E+04  2.75336E+03  2.50102E+04  1.82077E+04  1.77966E+04  3.66926E+04 -2.81797E+03  4.42239E+04
 -2.51041E+04  3.69003E+04 -4.05982E+04  1.87423E+04 -4.31625E+04 -4.25115E+03 -3.57514E+04 -2.57825E+04
 -1.39593E+04 -3.66066E+04  1.26419E+04 -3.14088E+04  2.71647E+04 -1.46779E+04  2.34295E+04  7.88060E+03
  8.58856E+03  1.88719E+04 -1.14721E+04  1.50606E+04 -1.98661E+04  2.59696E+03 -1.48217E+04 -1.30037E+04
 -1.41934E+02 -1.81672E+04  1.05071E+04 -1.39557E+04  1.32858E+04 -1.34938E+03  3.38044E+03  7.92625E+03
 -8.79559E+03  3.40235E+03 -8.54908E+03 -6.83676E+03 -1.31397E+03 -1.73501E+04  1.15992E+04 -1.86569E+04
  2.24665E+04 -1.13637E+04  2.50358E+04  3.94892E+03  2.31780E+04  1.86570E+04  1.00712E+04  2.77801E+04
 -4.97134E+03  2.99707E+04 -1.94617E+04  1.90529E+04 -2.16207E+04  4.10639E+03 -1.53633E+04 -5.32542E+03
 -6.44402E+03 -6.32054E+03 -4.84741E+00  4.04896E+02 -2.64620E+03  2.74105E+03 -7.10132E+03  5.41402E+03
 -1.30774E+04 -5.41386E+02 -1.43879E+04 -1.13209E+04 -5.52366E+03 -1.84067E+04  6.31300E+03 -1.60303E+04
  1.39249E+04 -6.49481E+03  9.29380E+03  4.30196E+03 -7.33667E+02  5.89209E+03 -7.63314E+03  3.58000E+02
 -7.09065E+03 -9.63783E+03 -1.41031E+03 -1.52354E+04  8.81967E+03 -1.63916E+04  1.97651E+04 -8.84670E+03
  2.26034E+04  2.77040E+03  1.69785E+04  1.42092E+04  2.54857E+03  1.92015E+04 -9.10262E+03  1.53131E+04
 -1.23255E+04  4.12074E+03 -6.37890E+03 -3.21270E+03  2.29623E+03 -4.23558E+03  8.03633E+03 -8.20049E+02
  7.31613E+03  6.23407E+03  4.83358E+02  1.23966E+04 -9.14108E+03  1.15886E+04 -1.48725E+04  2.33471E+03
 -1.02885E+04 -6.76133E+03 -5.63804E+01 -1.26271E+04  8.13949E+03 -6.36395E+03  9.79638E+03  2.77585E+03
  1.75260E+03  1.02107E+04 -7.79406E+03  1.16895E+04 -1.44203E+04  5.11139E+03 -1.29757E+04 -4.49859E+03
 -7.26806E+03 -1.45950E+04  2.97936E+03 -1.77533E+04  1.53937E+04 -1.13190E+04  1.65628E+04  2.84537E+03
  1.01388E+04  1.30893E+04 -1.46927E+03  1.59313E+04 -1.08628E+04  8.41341E+03 -1.33106E+04 -1.36165E+03
 -1.01937E+04 -1.05330E+04 -1.33518E+03 -1.13743E+04  6.90557E+03 -8.37824E+03  7.71046E+03 -3.79504E+03
  4.73098E+03  1.45766E+03 -1.22300E+03  2.48548E+03 -1.05358E+03 -3.64663E+03  2.89749E+03 -7.43191E+03
  1.12642E+04 -4.43603E+03  1.57530E+04  1.79700E+03  1.48900E+04  1.12603E+04  9.49869E+03  2.00269E+04
 -5.37955E+03  2.31281E+04 -1.93854E+04  1.71204E+04 -2.54511E+04  3.53709E+03 -2.02794E+04 -8.68736E+03
 -1.04968E+04 -1.60588E+04 -8.48908E+02 -1.39628E+04  5.37097E+03 -7.73676E+03  5.92989E+03 -4.66451E+03
  4.24838E+03 -2.82352E+03  3.81194E+03 -4.06660E+03  5.64335E+03 -3.52910E+03  7.82657E+03 -1.25794E+03
  1.13421E+04  2.63438E+03  5.57634E+03  9.51588E+03 -2.59168E+03  1.10853E+04 -1.12639E+04  9.24753E+03
 -1.44199E+04 -5.29463E+02 -9.63307E+03 -1.07688E+04 -1.52926E+03 -1.57554E+04  9.11457E+03 -1.53521E+04
  1.61949E+04 -8.73219E+03  1.90364E+04  2.34186E+03  1.32092E+04  1.29938E+04  2.84526E+03  1.78595E+04
 -7.31052E+03  1.45505E+04 -9.87375E+03  5.73876E+03 -6.64357E+03 -1.72385E+03 -2.67907E+03 -2.15224E+03
 -1.31009E+03 -4.33779E+02 -2.19281E+03  3.28923E+03 -5.87054E+03  2.62919E+03 -1.07384E+04 -1.53299E+03
 -7.29601E+03 -9.88300E+03 -2.40179E+02 -1.45319E+04  8.97168E+03 -1.29851E+04  1.40438E+04 -4.42985E+03
  1.39330E+04  6.27400E+03  7.25347E+03  1.32092E+04 -2.76049E+03  1.40472E+04 -1.10049E+04  9.28077E+03
 -1.39206E+04  2.61532E+02 -1.03309E+04 -9.09191E+03 -1.05606E+03 -1.17017E+04  6.08724E+03 -8.93300E+03
  9.01167E+03 -2.92151E+03  6.21737E+03  2.69139E+03  2.74906E+03  3.98010E+03  1.69767E+03  1.91778E+03
  1.52295E+03  1.37364E+03  3.56672E+03  2.25188E+03  4.61676E+03  4.65878E+03  3.27649E+03  7.78724E+03
 -3.12566E+03  1.15282E+04 -9.93509E+03  1.08043E+04 -1.57945E+04  2.89197E+03 -1.54075E+04 -6.03038E+03
 -7.11426E+03 -1.43271E+04  2.47445E+03 -1.54395E+04  8.97806E+03 -1.02539E+04  1.20909E+04 -1.73051E+03
  9.61037E+03  5.72956E+03  2.13156E+03  8.20627E+03 -4.29920E+03  5.16776E+03 -6.03109E+03 -1.01045E+03
 -3.06956E+03 -5.80325E+03  4.22556E+03 -6.80639E+03  6.49073E+03 -2.78371E+03  5.77218E+03  1.75973E+03
  2.99781E+03  2.58374E+03  1.49538E+03  1.52155E+03 -4.54717E+02  2.51209E+03  1.01779E+03 -7.26627E+02
  2.17861E+03 -1.38749E+03  6.65626E+03  2.64483E+03  2.74742E+03  7.77508E+03 -8.16607E+02  1.04921E+04
 -5.96292E+03  6.95003E+03 -8.74709E+03  2.39891E+03 -8.80511E+03 -3.60281E+03 -3.75749E+03 -5.62831E+03
  1.11925E+02 -6.06134E+03  3.57052E+03 -2.37735E+03  3.07433E+03  2.54938E+03 -9.05998E+02  5.32350E+03
 -6.51382E+03  3.15695E+03 -7.34648E+03 -3.55400E+03 -3.35230E+03 -7.61150E+03  1.91666E+03 -8.31183E+03
  5.43079E+03 -4.77542E+03  5.59339E+03 -4.75057E+02  4.44169E+03  1.76232E+03  5.85746E+02  4.17577E+03
 -2.49666E+03  1.66951E+03 -3.75348E+03 -3.27045E+03  1.26182E+03 -6.33497E+03  6.87856E+03 -4.09381E+03
  9.92134E+03  1.14245E+03  9.71006E+03  6.46609E+03  1.76723E+03  9.71232E+03 -4.09201E+03  9.12393E+03
 -8.59073E+03  3.69505E+03 -8.32585E+03 -9.60555E+02 -4.32881E+03 -6.28806E+03  1.37956E+03 -5.33086E+03
  6.31685E+03 -2.82977E+03  5.36928E+03  2.78183E+03  1.71978E+03  6.24102E+03 -5.90474E+02  4.47041E+03
 -2.35032E+03  2.69597E+03 -2.59715E+03  6.63174E+02 -6.27429E+02  9.32956E+02 -1.96042E+03  2.06923E+03
 -2.29379E+03  3.44502E+03 -6.30804E+03  3.56471E+03 -1.00452E+04  1.00886E+02 -1.12006E+04 -6.51048E+03
 -6.21199E+03 -1.32949E+04  2.01080E+03 -1.42338E+04  8.95401E+03 -1.18219E+04  1.33648E+04 -4.77855E+03
  1.29089E+04  3.16429E+03  8.14553E+03  8.98749E+03  4.48585E+02  1.01838E+04 -4.02300E+03  7.92319E+03
 -5.92139E+03  2.83017E+03 -3.45762E+03 -1.53850E+03 -1.36208E+03 -1.59656E+03 -1.04776E+03 -3.36492E+02
 -3.06214E+03  2.11814E+02 -2.06208E+03 -4.34367E+02 -3.54468E+02 -1.47399E+03 -2.22492E+02 -3.56555E+03
  4.81308E+03 -2.67155E+03  5.94420E+03 -3.96922E+02  7.17795E+03  5.88619E+03  1.38108E+03  9.74497E+03
 -4.89152E+03  1.11951E+04 -1.10947E+04  7.45186E+03 -1.27261E+04 -1.59473E+03 -7.90174E+03 -8.24770E+03
 -4.08528E+03 -1.01588E+04  2.88249E+03 -9.32296E+03  6.41652E+03 -5.33549E+03  7.12242E+03  5.07824E+02
  3.90577E+03  3.97301E+03 -4.07365E+02  2.17163E+03 -1.39578E+03 -1.19218E+03 -3.19245E+02 -2.40896E+03
  3.19037E+03 -1.50125E+03  4.23832E+03  1.81241E+03  2.02688E+03  4.46128E+03  3.77178E+02  5.11359E+03
 -4.62330E+03  3.70280E+03 -6.68574E+03  6.09130E+02 -6.12712E+03 -4.44748E+03 -1.02196E+03 -8.89795E+03
  4.97310E+03 -6.92188E+03  7.53105E+03 -2.36422E+03  7.98882E+03  1.80992E+03  4.39438E+03  7.27125E+03
  1.32983E+02  6.65884E+03 -3.25731E+03  5.24368E+03 -3.73895E+03  3.13126E+03 -4.22059E+03  8.44858E+02
 -1.76231E+03 -7.23443E+02 -2.44063E+03  7.45359E+02 -3.97068E+03  1.08635E+03 -5.79495E+03 -1.11097E+03
 -4.70847E+03 -3.76417E+03 -1.74623E+03 -7.44785E+03  3.27764E+03 -6.96749E+03  5.83852E+03 -2.88415E+03
  6.34927E+03  9.83362E+02  3.71740E+03  4.20434E+03 -7.40376E+01  7.03132E+03 -5.27103E+03  4.01270E+03
