 $NMID ID='MM_0lb_SNR400_17hz_g60_54.RAW', FMTDAT='(8E13.5)'
 TRAMP=1., VOLUME=1. $END
  3.09736E+05  2.83528E+01  3.37754E+05  2.50389E+05  8.49698E+04  3.37994E+05 -1.32501E+05  2.51375E+05
 -1.90073E+05  8.23148E+04 -1.11553E+05 -3.32966E+04  7.04207E+02 -5.08347E+04  5.37668E+04 -3.21453E+02
  3.53339E+04  5.25783E+04 -1.62780E+04  7.59276E+04 -6.03476E+04  6.39319E+04 -8.42889E+04  3.21972E+04
 -8.09606E+04 -1.15862E+04 -5.69057E+04 -5.08745E+04 -1.49705E+04 -6.94967E+04  2.77218E+04 -4.55666E+04
  3.96951E+04  4.02809E+03  1.61314E+04  4.77561E+04 -3.47568E+04  4.74172E+04 -6.64419E+04 -1.82368E+02
 -5.30862E+04 -5.60008E+04 -6.93896E+03 -7.68643E+04  3.29408E+04 -5.39799E+04  4.82062E+04 -1.66383E+04
  4.27601E+04  1.14643E+04  3.14885E+04  2.53578E+04  1.57892E+04  2.92168E+04 -5.09809E+03  2.70919E+04
 -2.12712E+04  1.18537E+04 -1.87935E+04 -5.14614E+03  5.76897E+03 -6.91469E+03  2.19250E+04  1.18999E+04
  7.46084E+03  3.47123E+04 -3.19059E+04  3.51100E+04 -6.29647E+04  1.92678E+03 -5.63788E+04 -4.23485E+04
 -1.24184E+04 -6.28560E+04  3.93995E+04 -4.54010E+04  5.76904E+04 -2.64455E+03  3.37161E+04  3.17176E+04
 -6.21249E+03  3.56997E+04 -3.03602E+04  1.53121E+04 -3.01090E+04 -4.67558E+03 -1.65423E+04 -1.05808E+04
 -8.55342E+03 -1.23837E+04 -8.76625E+02 -1.77040E+04  7.54150E+03 -2.28896E+04  1.52021E+04 -1.30653E+04
  1.16391E+04  4.77431E+03 -8.16135E+03  1.30285E+04 -2.07916E+04 -3.37556E+03 -8.24367E+03 -3.28364E+04
  2.23976E+04 -4.23967E+04  4.73622E+04 -1.96397E+04  4.40431E+04  1.92288E+04  1.52044E+04  4.41116E+04
 -1.53115E+04  3.30697E+04 -2.50963E+04  1.45703E+03 -9.12747E+03 -2.77005E+04  2.12213E+04 -3.32410E+04
  4.07770E+04 -8.63910E+03  3.46204E+04  2.34968E+04  1.75131E+04  4.56886E+04 -7.73757E+03  4.90810E+04
 -3.15394E+04  3.27217E+04 -4.09979E+04  9.51218E+03 -4.15152E+04 -1.62762E+04 -2.31537E+04 -3.77613E+04
  7.47917E+03 -3.75158E+04  3.07146E+04 -1.43521E+04  2.86135E+04  1.09785E+04  4.05728E+03  1.88332E+04
 -1.40382E+04  7.81748E+03 -9.30327E+03 -7.30174E+03  5.93569E+03 -1.05028E+04  1.73953E+04  6.71116E+03
  1.27303E+04  2.22213E+04 -6.18108E+03  2.45674E+04 -2.22713E+04  1.11064E+04 -2.73383E+04 -5.35199E+03
 -1.98726E+04 -1.70729E+04 -7.40954E+03 -1.97560E+04  4.43235E+03 -1.79403E+04  1.48570E+04 -1.70667E+04
  2.44303E+04 -1.20286E+04  3.14245E+04  2.56229E+03  2.29898E+04  1.86069E+04  4.02841E+03  3.52454E+04
 -1.75617E+04  2.90138E+04 -2.74739E+04  9.69918E+03 -2.04141E+04 -1.02572E+04 -4.69885E+03 -1.31996E+04
  2.05600E+03 -3.35673E+03 -4.65717E+03  5.95024E+03 -1.52874E+04  4.96822E+03 -1.58423E+04 -6.13273E+03
 -9.65461E+03 -1.87535E+04  5.08400E+03 -2.21635E+04  1.45467E+04 -1.62765E+04  1.66624E+04 -1.10522E+03
  1.07651E+04  1.25773E+04 -8.26692E+02  1.80995E+04 -1.27956E+04  1.00378E+04 -1.77115E+04 -3.94901E+03
 -1.31167E+04 -1.61389E+04 -1.95663E+03 -2.17242E+04  9.89132E+03 -1.77048E+04  1.80306E+04 -8.55352E+03
  1.63735E+04  9.05792E+02  1.26854E+04  3.92164E+03  6.69682E+03  8.34270E+02  8.70981E+03 -1.25559E+03
  1.58448E+04  2.84503E+03  1.81510E+04  1.37769E+04  1.18749E+04  2.79252E+04 -3.00073E+03  3.17562E+04
 -1.83405E+04  2.52904E+04 -2.88871E+04  1.19449E+04 -3.08938E+04 -2.64582E+03 -2.60414E+04 -1.79178E+04
 -1.10749E+04 -2.47286E+04  8.40280E+03 -2.28899E+04  1.95639E+04 -1.23010E+04  1.85528E+04  4.52644E+03
  7.09353E+03  1.31500E+04 -7.67456E+03  1.21897E+04 -1.48573E+04  2.00089E+03 -1.17086E+04 -9.52786E+03
 -1.09608E+01 -1.37357E+04  7.54642E+03 -1.02702E+04  8.45366E+03 -1.60774E+03  1.65816E+03  5.93099E+03
 -6.56066E+03  2.30744E+03 -5.30308E+03 -5.24443E+03 -2.92579E+01 -1.17634E+04  8.92423E+03 -1.27515E+04
  1.44796E+04 -7.00106E+03  1.58382E+04  2.47584E+03  1.38949E+04  1.19993E+04  6.09529E+03  1.78706E+04
 -2.47121E+03  1.99089E+04 -1.22347E+04  1.24852E+04 -1.41388E+04  2.92955E+03 -1.01697E+04 -2.83533E+03
 -4.81424E+03 -4.23087E+03 -6.77705E+02  1.50509E+03 -1.96110E+03  2.25775E+03 -4.17463E+03  3.43784E+03
 -9.19348E+03 -7.38393E+02 -1.03050E+04 -8.53832E+03 -4.14296E+03 -1.37924E+04  3.80267E+03 -1.04262E+04
  8.05161E+03 -4.90473E+03  6.20584E+03  3.13933E+03  4.91387E+02  3.92658E+03 -4.09607E+03 -1.73858E+02
 -4.22633E+03 -6.32768E+03 -3.77761E+02 -9.00779E+03  5.87078E+03 -9.73602E+03  1.21491E+04 -4.79667E+03
  1.42314E+04  5.54124E+02  1.10564E+04  8.21494E+03  2.47179E+03  1.12007E+04 -5.89644E+03  1.00187E+04
 -7.81725E+03  3.23901E+03 -4.26981E+03 -2.03637E+03  1.72385E+03 -2.02168E+03  5.89080E+03 -7.35546E+02
  5.07920E+03  4.79028E+03  1.14967E+03  8.04181E+03 -5.46551E+03  8.00913E+03 -1.00835E+04  1.75870E+03
 -6.41665E+03 -4.95176E+03 -5.21386E+02 -8.21587E+03  5.22641E+03 -4.25264E+03  4.98972E+03  1.92596E+03
  6.31149E+02  4.83687E+03 -4.94930E+03  6.20739E+03 -6.00243E+03  2.60464E+03 -6.52840E+03 -1.97661E+03
 -3.89855E+03 -7.88910E+03  1.26956E+03 -9.52325E+03  7.55119E+03 -6.54690E+03  8.45493E+03  1.32060E+03
  5.46233E+03  6.73677E+03 -1.10219E+03  8.95582E+03 -5.87368E+03  5.01316E+03 -6.48670E+03 -1.50147E+03
 -6.75058E+03 -5.68684E+03 -9.83355E+02 -6.23033E+03  3.41411E+03 -6.01667E+03  3.86227E+03 -2.83251E+03
  3.67610E+03  4.45971E+02 -2.67538E+02  1.60379E+03  1.14970E+02 -8.63984E+02  1.65700E+02 -2.23434E+03
  5.13121E+03 -1.47659E+03  6.93525E+03  1.28892E+03  7.93128E+03  4.61261E+03  6.09277E+03  9.38611E+03
 -1.84268E+03  1.17263E+04 -9.62935E+03  8.29140E+03 -1.29519E+04  1.64169E+03 -9.72186E+03 -3.98983E+03
 -5.48863E+03 -7.72220E+03 -2.60663E+02 -6.55723E+03  2.75052E+03 -3.36268E+03  2.74482E+03 -2.84315E+03
  1.65203E+03 -1.82916E+03  1.83539E+03 -2.53109E+03  3.69754E+03 -1.83610E+03  4.68213E+03  3.59898E+02
  5.47410E+03  1.33767E+03  1.71295E+03  4.03079E+03 -1.94667E+03  4.09645E+03 -5.18935E+03  2.89088E+03
 -6.62012E+03 -1.28713E+03 -3.56956E+03 -4.41681E+03  1.57883E+02 -6.70922E+03  4.66914E+03 -6.94368E+03
  7.08318E+03 -4.41439E+03  8.29907E+03  8.36156E+02  6.01603E+03  4.91450E+03  1.74920E+02  7.28902E+03
 -3.10827E+03  6.89283E+03 -4.11415E+03  2.14566E+03 -2.76750E+03 -1.06048E+03 -9.59287E+02 -1.04922E+03
 -5.46681E+02 -2.53739E+01 -1.37001E+03  2.38685E+03 -3.34612E+03  1.26773E+03 -4.90616E+03 -4.18188E+02
 -2.68782E+03 -5.06840E+03  8.24460E+02 -6.35875E+03  4.00269E+03 -5.30935E+03  4.98167E+03 -1.53242E+03
  4.88854E+03  3.01001E+03  2.50981E+03  5.00904E+03 -9.78946E+02  5.54664E+03 -4.14439E+03  3.53277E+03
 -5.40823E+03  5.97659E+02 -4.41829E+03 -3.47570E+03 -4.63860E+02 -4.23998E+03  2.80895E+03 -3.58050E+03
  3.49532E+03 -1.43394E+03  2.54495E+03  1.10006E+03  8.10990E+02  1.82070E+03  1.18138E+03  9.16429E+02
  1.96193E+03  1.18606E+03  1.41792E+03  1.97421E+02  1.81293E+03  2.20892E+03  1.95813E+03  2.56466E+03
 -1.89904E+03  3.74073E+03 -3.85653E+03  5.22868E+03 -3.86497E+03  1.46598E+03 -5.27384E+03 -1.11998E+03
 -2.92178E+03 -5.27483E+03  6.04944E+02 -5.83145E+03  2.97438E+03 -3.52340E+03  4.07882E+03 -5.14130E+02
  3.51767E+03  1.66113E+03  9.68846E+02  3.06768E+03 -8.39025E+02  1.60209E+03 -1.48025E+03  1.01433E+02
 -9.24184E+02 -2.56097E+03  1.27677E+03 -2.45771E+03  2.35181E+03 -9.71446E+02  1.52964E+03  4.54849E+02
  1.36309E+03  9.04537E+02  4.92781E+02 -4.83846E+01 -8.07178E+01  1.24953E+03  1.68287E+03  2.10865E+02
 -2.23361E+02 -9.73167E+02  2.60331E+03  1.15286E+03  6.76376E+02  3.05938E+03 -1.01285E+03  3.45396E+03
 -2.17226E+03  1.81019E+03 -2.59226E+03  7.21655E+01 -2.66632E+03 -1.18734E+03  3.45647E+02 -1.48598E+03
  9.04105E+01 -1.94775E+03  8.75822E+02 -8.91306E+02  8.59688E+02  1.61619E+03 -6.65599E+02  1.43194E+03
 -1.25643E+03  7.39631E+02 -2.13074E+03 -1.56809E+03 -1.25178E+03 -2.94246E+03 -4.16813E+01 -2.36156E+03
  8.00327E+02 -6.99591E+02  6.57851E+02 -6.71297E+01  1.22762E+03  1.70443E+02  3.42823E+02  1.01202E+03
 -1.13901E+03  5.28172E+02 -1.08441E+03 -1.28983E+02  7.68027E+02 -9.14692E+02  2.49870E+03 -8.46086E+02
  1.74471E+03  8.98069E+01  3.24301E+03  1.66431E+03  1.30372E+03  2.74823E+03 -7.06589E+02  2.50721E+03
 -1.61433E+03  5.13432E+02 -1.52245E+03 -6.09823E+02 -1.10977E+03 -1.64913E+03  1.26399E+01 -8.82145E+02
  1.75073E+03 -1.08818E+03  1.16588E+03  8.90428E+02  1.18406E+02  1.82720E+03  5.55867E+01  1.28128E+03
 -6.31363E+02  1.21332E+03 -1.18217E+03  1.57934E+02 -1.45850E+02  7.57057E+02 -6.76511E+02  1.10911E+03
 -1.07008E+03  1.18635E+03 -2.64993E+03  6.99261E+02 -2.12785E+03 -3.61012E+02 -3.27161E+03 -1.14173E+03
 -1.44046E+03 -2.41768E+03  3.97516E+02 -3.74667E+03  2.06847E+03 -3.15373E+03  3.66084E+03 -1.62756E+03
  2.76093E+03 -1.36630E+02  1.82480E+03  2.74569E+03 -6.28832E+02  2.17629E+03 -7.95229E+02  2.25942E+03
 -1.31553E+03  1.42333E+03 -9.75457E+02  1.30280E+02 -1.32984E+02  3.65498E+02 -6.81134E+02 -1.46261E+02
 -1.24215E+03 -2.73694E+02 -9.00486E+02 -1.39554E+02 -4.46607E+02 -4.52962E+02 -1.89903E+02 -1.35125E+03
  8.15756E+02 -6.43808E+02  1.73375E+02  8.34280E+02  1.79851E+03  1.33693E+03 -2.40154E+02  2.11034E+03
 -9.10751E+02  2.55358E+03 -1.90212E+03  1.48142E+03 -2.46752E+03 -1.87885E+02 -1.80123E+03 -1.60457E+03
 -1.08330E+03 -1.44236E+03  4.97026E+02 -2.21914E+03  8.62124E+02 -4.02717E+02  6.30773E+02 -1.02172E+02
  8.22690E+02  1.17631E+03  2.17063E+02  5.91660E+02 -7.68588E+02 -7.26500E+01  3.03155E+00  1.54735E+01
  3.48222E+02  4.55961E+02  5.03037E+02  6.95273E+02 -2.00399E+02  6.49004E+02  4.03462E+02  4.50368E+02
 -5.95702E+02  1.06022E+03 -9.90565E+02  9.13896E+02 -5.29319E+02 -1.32551E+03 -1.15655E+02 -2.04996E+03
  1.01720E+03 -9.34101E+02  8.05560E+02 -2.47205E+02  1.07930E+03 -4.98519E+02  9.83708E+02  8.36841E+02
  1.11610E+03  6.89346E+02 -4.35122E+02  6.13635E+02 -5.72475E+02  6.71371E+02 -9.23552E+01 -3.19725E+02
 -1.22495E+02 -6.68486E+01 -2.34742E+02 -8.01867E+01 -5.65098E+02  3.75134E+02 -8.72909E+02 -9.06529E+02
 -1.44512E+03 -3.94161E+01 -4.00726E+01 -1.29075E+03  3.47754E+02 -2.57116E+03  8.36937E+02 -6.21702E+02
  1.10912E+03  2.67249E+02 -3.75421E+02  1.81806E+02 -4.68454E+02  1.30978E+03 -6.41769E+02  5.32747E+02
