 $NMID ID='MM_0lb_SNR400_15hz_g55_51.RAW', FMTDAT='(8E13.5)'
 TRAMP=1., VOLUME=1. $END
  3.09484E+05 -1.30927E+02  3.37609E+05  2.50655E+05  8.41740E+04  3.37945E+05 -1.33021E+05  2.51670E+05
 -1.90377E+05  8.32773E+04 -1.11897E+05 -3.25790E+04  4.52428E+02 -5.06827E+04  5.39491E+04  8.52871E+01
  3.53874E+04  5.25686E+04 -1.66130E+04  7.56149E+04 -6.10089E+04  6.38728E+04 -8.45095E+04  3.24654E+04
 -8.11897E+04 -1.13277E+04 -5.70087E+04 -5.16954E+04 -1.53254E+04 -6.97950E+04  2.76497E+04 -4.59210E+04
  3.96636E+04  3.92839E+03  1.60686E+04  4.80347E+04 -3.46064E+04  4.72454E+04 -6.68816E+04 -4.65042E+02
 -5.35065E+04 -5.67108E+04 -6.95757E+03 -7.77552E+04  3.35063E+04 -5.56471E+04  4.77037E+04 -1.70314E+04
  4.31134E+04  1.11667E+04  3.16423E+04  2.50574E+04  1.54379E+04  2.89404E+04 -5.17459E+03  2.74615E+04
 -2.26053E+04  1.24194E+04 -1.81755E+04 -4.59342E+03  6.01477E+03 -7.49230E+03  2.27023E+04  1.21275E+04
  7.17863E+03  3.55113E+04 -3.19038E+04  3.56600E+04 -6.33909E+04  2.18245E+03 -5.77886E+04 -4.31719E+04
 -1.24837E+04 -6.36402E+04  4.04465E+04 -4.51848E+04  5.79886E+04 -2.54271E+03  3.45691E+04  3.23417E+04
 -6.23960E+03  3.60670E+04 -3.01957E+04  1.58113E+04 -3.01712E+04 -4.78408E+03 -1.69855E+04 -1.09631E+04
 -8.86001E+03 -1.29544E+04 -4.68920E+02 -1.80941E+04  7.95680E+03 -2.28227E+04  1.54679E+04 -1.34264E+04
  1.15808E+04  4.98652E+03 -8.25000E+03  1.30816E+04 -2.12706E+04 -5.19489E+03 -8.55303E+03 -3.33341E+04
  2.34147E+04 -4.41489E+04  4.88803E+04 -1.94161E+04  4.54320E+04  1.94881E+04  1.60110E+04  4.44000E+04
 -1.65143E+04  3.36160E+04 -2.52780E+04  1.58335E+03 -9.92740E+03 -2.74220E+04  2.11085E+04 -3.40280E+04
  4.06239E+04 -9.18306E+03  3.46602E+04  2.39339E+04  1.78793E+04  4.68415E+04 -8.21811E+03  5.03192E+04
 -3.15473E+04  3.39445E+04 -4.17853E+04  9.65408E+03 -4.25103E+04 -1.75195E+04 -2.38286E+04 -3.84146E+04
  7.72029E+03 -3.74998E+04  3.13527E+04 -1.44113E+04  2.93523E+04  1.13096E+04  3.80508E+03  1.91907E+04
 -1.36446E+04  7.93706E+03 -1.02314E+04 -7.83312E+03  5.80005E+03 -1.03768E+04  1.80472E+04  5.59075E+03
  1.30892E+04  2.19758E+04 -6.13223E+03  2.51013E+04 -2.23147E+04  1.15625E+04 -2.78545E+04 -4.60284E+03
 -2.01586E+04 -1.68636E+04 -8.16250E+03 -2.03862E+04  3.59193E+03 -1.94043E+04  1.53598E+04 -1.82381E+04
  2.65247E+04 -1.31053E+04  3.28892E+04  2.31098E+03  2.32543E+04  1.98475E+04  4.11313E+03  3.62904E+04
 -1.75483E+04  3.04567E+04 -2.80724E+04  1.01475E+04 -2.13983E+04 -9.80407E+03 -4.43953E+03 -1.35390E+04
  1.54882E+03 -2.68483E+03 -5.40721E+03  6.37786E+03 -1.56306E+04  4.98638E+03 -1.57750E+04 -6.99497E+03
 -1.04020E+04 -1.89577E+04  5.16871E+03 -2.30931E+04  1.51281E+04 -1.66239E+04  1.77735E+04 -1.59783E+03
  1.11459E+04  1.35848E+04 -8.86233E+02  1.89975E+04 -1.32556E+04  1.06612E+04 -1.87621E+04 -3.82892E+03
 -1.45898E+04 -1.65155E+04 -1.63771E+03 -2.29060E+04  9.58586E+03 -1.89997E+04  1.92501E+04 -9.48924E+03
  1.76219E+04 -3.15747E+02  1.28612E+04  4.22853E+03  6.74423E+03  9.42946E+02  9.85834E+03 -1.75071E+03
  1.72197E+04  2.79239E+03  1.89400E+04  1.49061E+04  1.24815E+04  2.98111E+04 -3.09740E+03  3.38449E+04
 -1.91589E+04  2.68403E+04 -3.12049E+04  1.36153E+04 -3.27659E+04 -2.09951E+03 -2.77608E+04 -1.85401E+04
 -1.14929E+04 -2.70607E+04  9.34997E+03 -2.46302E+04  2.15935E+04 -1.26725E+04  1.90947E+04  5.09957E+03
  7.34140E+03  1.44640E+04 -8.91953E+03  1.29383E+04 -1.57544E+04  2.66107E+03 -1.25698E+04 -9.86833E+03
 -7.27851E+02 -1.57605E+04  7.80841E+03 -1.16103E+04  1.05507E+04 -1.42392E+03  1.90827E+03  6.26777E+03
 -6.78799E+03  1.80799E+03 -5.90007E+03 -5.34341E+03 -4.39620E+02 -1.39498E+04  9.17793E+03 -1.35246E+04
  1.60400E+04 -6.80212E+03  1.73969E+04  2.99802E+03  1.51622E+04  1.33218E+04  6.86191E+03  1.99103E+04
 -2.71512E+03  2.18261E+04 -1.38198E+04  1.35516E+04 -1.58742E+04  2.81735E+03 -1.10924E+04 -3.41959E+03
 -5.51730E+03 -4.52625E+03 -1.00278E+03  1.02308E+03 -2.57856E+03  2.46224E+03 -4.62207E+03  4.34577E+03
 -9.89059E+03 -1.18050E+03 -1.13234E+04 -9.41151E+03 -4.47768E+03 -1.38369E+04  4.86324E+03 -1.13091E+04
  9.69426E+03 -4.79410E+03  6.61765E+03  2.83762E+03  4.00712E+02  4.71212E+03 -4.98616E+03 -4.19586E+02
 -5.04546E+03 -6.67532E+03 -1.33638E+03 -1.02830E+04  5.66452E+03 -1.04330E+04  1.36120E+04 -6.17957E+03
  1.60533E+04  1.47574E+03  1.15435E+04  9.09733E+03  2.61058E+03  1.28002E+04 -6.61305E+03  1.07573E+04
 -9.97126E+03  3.83452E+03 -4.66669E+03 -1.59260E+03  1.97175E+03 -2.83530E+03  5.42103E+03 -9.42051E+02
  4.64816E+03  4.68365E+03  1.24012E+03  8.12188E+03 -6.19285E+03  8.27301E+03 -1.01740E+04  2.22200E+03
 -6.53271E+03 -5.84136E+03 -7.48835E+01 -8.96104E+03  5.44522E+03 -4.94869E+03  6.15287E+03  1.74880E+03
  7.45766E+02  4.93671E+03 -5.67118E+03  6.58828E+03 -8.18474E+03  2.98187E+03 -7.31841E+03 -2.61845E+03
 -4.63773E+03 -9.20329E+03  1.99793E+03 -1.00985E+04  8.53577E+03 -7.06883E+03  1.01313E+04  1.77189E+03
  7.21579E+03  7.93404E+03 -5.75759E+02  1.04146E+04 -7.17735E+03  6.28883E+03 -7.63334E+03 -7.79489E+02
 -7.69007E+03 -6.92094E+03 -1.22300E+03 -7.40848E+03  4.19953E+03 -6.41228E+03  4.63726E+03 -3.60819E+03
  3.74067E+03  6.65978E+02 -4.91894E+01  1.44775E+03  5.04342E+02 -7.58976E+02  1.44957E+03 -3.90279E+03
  5.89222E+03 -2.60503E+03  9.27492E+03  1.06031E+03  8.59753E+03  5.42343E+03  6.55716E+03  1.21441E+04
 -2.54393E+03  1.30869E+04 -1.12037E+04  1.03463E+04 -1.46056E+04  1.04148E+03 -1.18236E+04 -4.53718E+03
 -6.35023E+03 -1.01391E+04 -6.20535E+02 -8.16316E+03  2.95427E+03 -3.26974E+03  2.60481E+03 -3.62810E+03
  1.35196E+03 -1.91131E+03  2.81803E+03 -2.75169E+03  4.05366E+03 -2.25458E+03  5.13564E+03 -3.04070E+01
  6.56098E+03  1.16964E+03  2.27753E+03  5.31412E+03 -1.88693E+03  5.72496E+03 -6.72228E+03  4.27770E+03
 -7.73146E+03 -1.61822E+03 -4.12690E+03 -5.38345E+03 -7.15871E+02 -8.23253E+03  4.29598E+03 -8.77181E+03
  8.53443E+03 -5.20704E+03  1.02497E+04  9.94895E+02  7.41003E+03  6.73697E+03  1.26526E+03  9.69257E+03
 -4.07295E+03  7.59749E+03 -5.00996E+03  3.12199E+03 -2.86960E+03 -8.70365E+02 -1.48498E+03 -5.60885E+02
 -1.58053E+02 -4.68647E+01 -1.11777E+03  1.65929E+03 -3.63890E+03  1.31098E+03 -5.54710E+03 -1.15416E+03
 -2.90357E+03 -6.22000E+03  5.25006E+02 -7.57026E+03  4.06088E+03 -7.17678E+03  6.42275E+03 -1.52238E+03
  7.66236E+03  4.34784E+03  3.57336E+03  6.24760E+03 -1.40762E+03  7.47793E+03 -4.85082E+03  4.87905E+03
 -6.74538E+03  2.65431E+02 -5.97346E+03 -3.98830E+03 -9.48268E+01 -6.16595E+03  3.21815E+03 -4.63654E+03
  4.72017E+03 -2.05681E+03  2.70602E+03  7.31710E+02  9.87365E+02  2.35092E+03  8.22676E+02  9.56987E+02
  2.71750E+03  8.71877E+02  1.82514E+03  9.77909E+02  2.12132E+03  2.92854E+03  2.80802E+03  2.98510E+03
 -2.02321E+03  5.15146E+03 -3.79181E+03  6.08050E+03 -5.45049E+03  2.08694E+03 -7.66940E+03 -2.14992E+03
 -2.96482E+03 -6.42328E+03  1.05856E+03 -7.55837E+03  3.64596E+03 -4.55313E+03  5.08679E+03 -1.82009E+03
  4.67796E+03  3.16861E+03  1.25878E+02  3.77888E+03 -1.94308E+03  2.67550E+03 -2.28659E+03 -1.86221E+02
 -1.08430E+03 -3.03409E+03  2.37903E+03 -2.86894E+03  2.10106E+03 -1.54054E+03  2.98036E+03  7.59628E+02
  1.87457E+03  1.15144E+03  9.46439E+02  4.20203E+02 -5.66620E+02  1.01357E+03  1.90249E+03 -5.94734E+02
  4.99416E+02 -6.23123E+02  2.81422E+03  8.52594E+02  1.54149E+02  3.67869E+03 -4.73006E+02  5.13287E+03
 -3.50037E+03  2.16452E+03 -4.11466E+03  9.40046E+02 -4.02755E+03 -1.23022E+03 -6.93783E+02 -2.03333E+03
  1.39663E+02 -2.71455E+03  1.07476E+03 -7.88496E+02  7.45339E+02  1.66972E+03 -9.14136E+02  2.54102E+03
 -2.44716E+03  9.35996E+02 -2.42348E+03 -2.04487E+03 -1.74863E+03 -3.72057E+03  3.86548E+01 -3.01342E+03
  1.88964E+03 -1.89648E+03  1.70543E+03 -3.86327E+02  2.29760E+03  7.20039E+02  3.55175E+01  2.24704E+03
 -9.52394E+02  8.98029E+02 -1.31828E+03 -3.81298E+02  4.44946E-01 -2.14571E+03  3.18394E+03 -2.60664E+03
  3.66082E+03  4.33448E+02  4.22553E+03  2.69200E+03  1.30199E+03  3.71551E+03 -2.41379E+02  3.21209E+03
 -2.88355E+03  1.27729E+03 -2.87294E+03 -4.92680E+02 -2.08917E+03 -2.57878E+03  9.88857E+02 -1.92029E+03
  2.46291E+03 -9.96293E+02  1.99868E+03  5.13408E+02  4.90591E+02  1.80645E+03  3.24863E+01  1.76420E+03
 -1.05631E+03  2.27898E+03 -1.05635E+03 -1.84556E+02  2.99551E+02  3.91291E+02 -1.20710E+03  1.27674E+03
 -1.30178E+03  2.02992E+03 -3.08199E+03  1.36988E+03 -3.61734E+03  7.03285E+02 -4.18104E+03 -2.27149E+03
 -2.25625E+03 -4.50711E+03  9.59063E+02 -4.95503E+03  1.97349E+03 -4.76026E+03  5.12351E+03 -2.03001E+03
  5.07256E+03  5.29335E+02  2.75982E+03  3.22259E+03  1.91823E+02  2.90085E+03 -6.40064E+02  2.34769E+03
 -1.87762E+03  1.06616E+03 -1.50767E+03 -9.84027E+02 -4.55652E+01 -3.62169E+02 -4.95117E+02 -6.92531E+02
 -1.25198E+03  2.68730E+02 -1.19310E+03  2.68977E+02  2.07353E+02 -1.28804E+03  5.55978E+01 -1.82065E+03
  1.94300E+03 -1.21164E+03  1.26364E+03  7.37671E+02  2.80148E+03  2.17343E+03  8.00028E+01  3.08192E+03
 -2.25767E+03  4.34047E+03 -3.12275E+03  2.07556E+03 -4.24530E+03 -4.69280E+02 -3.27762E+03 -2.49639E+03
 -1.18791E+03 -3.00990E+03  8.03785E+02 -2.26460E+03  1.59888E+03 -1.73029E+03  2.05173E+03 -5.09159E+02
  1.07094E+03  6.24906E+02 -3.60054E+01  6.04590E+02 -4.13964E+02  1.87083E+02 -5.93570E+00 -4.22546E+02
  9.90863E+02  1.21171E+02  1.42790E+03  9.30602E+02  1.97887E+02  9.80293E+02  3.61671E+02  1.57777E+03
 -9.97108E+02  1.22625E+03 -1.36394E+03  3.34537E+01 -1.72268E+03 -6.20859E+02 -1.06751E+02 -2.52882E+03
  7.41084E+02 -2.03701E+03  2.16406E+03  1.23409E+02  2.24846E+03 -2.73725E+02  1.46834E+03  1.69778E+03
  2.83832E+02  1.08141E+03 -7.25444E+02  1.47070E+03 -1.52014E+03  1.24492E+03 -1.00856E+03  9.89605E+01
 -7.38741E+02 -1.60737E+02 -1.01685E+03 -1.16044E+02 -1.39137E+03  6.82542E+01 -1.27871E+03 -5.00064E+02
 -2.00990E+03 -2.86417E+02  1.39452E+02 -2.28556E+03  9.26344E+02 -2.61477E+03  2.19637E+03 -8.79028E+02
  1.40840E+03  1.78792E+02  3.79381E+02  6.41787E+02 -2.68157E+02  2.23386E+03 -1.39337E+03  1.60387E+03
