 $NMID ID='MM_0lb_SNR400_18hz_g55_7.RAW', FMTDAT='(8E13.5)'
 TRAMP=1., VOLUME=1. $END
  3.09908E+05  8.58253E+02  3.37325E+05  2.50311E+05  8.49523E+04  3.37228E+05 -1.32538E+05  2.50418E+05
 -1.89733E+05  8.27685E+04 -1.11495E+05 -3.30211E+04  9.71513E+02 -5.07544E+04  5.35521E+04  2.21508E+02
  3.47894E+04  5.28741E+04 -1.70305E+04  7.56985E+04 -6.05427E+04  6.30929E+04 -8.38511E+04  3.18981E+04
 -8.01781E+04 -1.11614E+04 -5.64744E+04 -5.08627E+04 -1.50922E+04 -6.87061E+04  2.69505E+04 -4.51723E+04
  3.94430E+04  3.83992E+03  1.52012E+04  4.70636E+04 -3.46795E+04  4.75021E+04 -6.57820E+04 -7.59615E+02
 -5.20924E+04 -5.65251E+04 -6.20588E+03 -7.57966E+04  3.41305E+04 -5.37422E+04  4.70017E+04 -1.70623E+04
  4.21852E+04  1.12878E+04  3.08811E+04  2.54925E+04  1.57467E+04  2.90618E+04 -5.42468E+03  2.72824E+04
 -2.19114E+04  1.25090E+04 -1.90709E+04 -4.57014E+03  4.62607E+03 -7.16939E+03  2.16488E+04  1.16991E+04
  7.39956E+03  3.44271E+04 -3.15252E+04  3.47097E+04 -6.17133E+04  1.91734E+03 -5.64077E+04 -4.23311E+04
 -1.24539E+04 -6.20235E+04  3.88629E+04 -4.35767E+04  5.65184E+04 -2.12251E+03  3.30280E+04  3.09420E+04
 -5.98211E+03  3.41390E+04 -2.90346E+04  1.46566E+04 -2.84712E+04 -5.07939E+03 -1.50093E+04 -1.06284E+04
 -7.77656E+03 -1.20698E+04 -7.60023E+02 -1.73145E+04  6.80067E+03 -2.25644E+04  1.52122E+04 -1.38262E+04
  1.21650E+04  4.65027E+03 -6.88583E+03  1.25858E+04 -1.98727E+04 -3.31136E+03 -8.63206E+03 -3.15843E+04
  2.20396E+04 -4.18151E+04  4.63782E+04 -1.89143E+04  4.29985E+04  1.86756E+04  1.52960E+04  4.28938E+04
 -1.57874E+04  3.17652E+04 -2.46193E+04  1.18361E+03 -8.59281E+03 -2.69119E+04  2.04052E+04 -3.26134E+04
  3.96069E+04 -8.10976E+03  3.30279E+04  2.34355E+04  1.63589E+04  4.42902E+04 -8.09789E+03  4.71424E+04
 -2.95310E+04  3.14284E+04 -3.94940E+04  9.24029E+03 -4.01966E+04 -1.53617E+04 -2.18730E+04 -3.70494E+04
  7.41807E+03 -3.61385E+04  3.04219E+04 -1.36122E+04  2.74151E+04  1.07165E+04  2.98050E+03  1.82906E+04
 -1.32410E+04  7.83636E+03 -1.00423E+04 -7.48688E+03  5.80247E+03 -9.94882E+03  1.69800E+04  5.91453E+03
  1.32438E+04  2.11846E+04 -6.42196E+03  2.37716E+04 -2.18840E+04  9.83688E+03 -2.66111E+04 -5.88027E+03
 -1.83510E+04 -1.66181E+04 -6.22455E+03 -1.81515E+04  4.46501E+03 -1.65565E+04  1.36783E+04 -1.54481E+04
  2.25915E+04 -1.17618E+04  2.95025E+04  1.53957E+03  2.18801E+04  1.79599E+04  3.95229E+03  3.34944E+04
 -1.65734E+04  2.88058E+04 -2.69913E+04  1.02018E+04 -2.00731E+04 -1.01125E+04 -4.25070E+03 -1.41611E+04
  2.23865E+03 -4.17642E+03 -3.22428E+03  5.93702E+03 -1.43507E+04  5.82124E+03 -1.42705E+04 -5.87255E+03
 -9.48889E+03 -1.64017E+04  4.54744E+03 -2.05686E+04  1.36304E+04 -1.50807E+04  1.56408E+04 -1.29429E+03
  9.60538E+03  1.19627E+04 -5.90491E+02  1.71176E+04 -1.16667E+04  9.75620E+03 -1.59317E+04 -3.71996E+03
 -1.21382E+04 -1.52898E+04 -1.63289E+03 -1.99661E+04  8.99755E+03 -1.67346E+04  1.71995E+04 -7.65128E+03
  1.55366E+04  3.71253E+02  1.10839E+04  3.42840E+03  5.59223E+03  8.40314E+02  8.12549E+03 -1.37107E+03
  1.45344E+04  2.71227E+03  1.64564E+04  1.36495E+04  1.03496E+04  2.59976E+04 -2.69849E+03  2.84918E+04
 -1.65905E+04  2.21785E+04 -2.70443E+04  1.06994E+04 -2.78752E+04 -1.62088E+03 -2.28981E+04 -1.52814E+04
 -1.07802E+04 -2.26895E+04  7.18642E+03 -2.08068E+04  1.77729E+04 -1.10395E+04  1.64171E+04  4.37362E+03
  6.60472E+03  1.24022E+04 -7.91163E+03  1.03531E+04 -1.35321E+04  2.59458E+03 -1.08754E+04 -8.91879E+03
  1.24140E+02 -1.31367E+04  6.59387E+03 -9.58379E+03  9.17506E+03 -1.71008E+03  1.62439E+03  5.49025E+03
 -6.07076E+03  1.15719E+03 -4.20149E+03 -5.09790E+03  2.25787E+02 -1.14257E+04  8.59757E+03 -1.14724E+04
  1.35827E+04 -4.78030E+03  1.32465E+04  2.96595E+03  1.15871E+04  1.07201E+04  5.96939E+03  1.56966E+04
 -1.86339E+03  1.72634E+04 -1.07995E+04  1.08922E+04 -1.23631E+04  2.97155E+03 -8.78108E+03 -2.83505E+03
 -4.67125E+03 -3.85699E+03 -1.05174E+03  1.65579E+03 -1.75311E+03  2.23499E+03 -3.83924E+03  3.87421E+03
 -8.37666E+03 -5.45063E+02 -9.31811E+03 -7.41232E+03 -3.47948E+03 -1.17096E+04  4.02290E+03 -9.10899E+03
  7.21338E+03 -3.35737E+03  5.56507E+03  2.65231E+03  8.50679E+02  3.21966E+03 -3.36631E+03 -5.69215E+02
 -4.08347E+03 -5.59095E+03 -7.07570E+02 -7.89554E+03  3.97078E+03 -8.42668E+03  1.09807E+04 -4.64332E+03
  1.28473E+04  9.40152E+02  9.08085E+03  7.20266E+03  2.29642E+03  9.47340E+03 -5.71643E+03  9.21398E+03
 -7.54522E+03  2.84365E+03 -3.85820E+03 -1.51862E+03  9.12321E+02 -2.17631E+03  5.20276E+03 -4.45768E+02
  4.50531E+03  3.44003E+03  1.73246E+03  6.49733E+03 -5.04083E+03  6.86892E+03 -8.74149E+03  1.88160E+03
 -5.31471E+03 -4.01788E+03  6.69832E+02 -7.15163E+03  4.61211E+03 -3.81999E+03  4.19456E+03  9.41658E+02
  4.27996E+02  3.87363E+03 -4.59031E+03  5.26035E+03 -5.40141E+03  2.80446E+03 -4.94953E+03 -1.52735E+03
 -3.38274E+03 -6.71811E+03  1.17569E+03 -8.48262E+03  7.32495E+03 -4.84576E+03  7.20872E+03  1.20913E+03
  4.67421E+03  6.09997E+03  2.51852E+02  8.01366E+03 -5.83676E+03  3.78761E+03 -5.78835E+03 -4.05743E+02
 -6.09683E+03 -5.61191E+03 -1.66199E+03 -5.85864E+03  2.74945E+03 -5.01803E+03  3.07753E+03 -2.98877E+03
  3.21884E+03  5.44410E+02  2.07804E+02  1.32850E+03  4.52413E+02 -8.78991E+02  5.33748E+02 -2.07085E+03
  4.00338E+03 -7.74985E+02  5.93891E+03  4.35991E+02  5.99132E+03  3.60176E+03  5.65283E+03  7.92887E+03
 -1.35801E+03  9.55001E+03 -8.50825E+03  7.35052E+03 -1.08335E+04  1.05741E+03 -8.80637E+03 -2.58154E+03
 -4.35477E+03 -6.71823E+03 -6.85671E+02 -6.34762E+03  2.21581E+03 -2.88903E+03  1.43941E+03 -2.16311E+03
  1.56680E+03 -1.56601E+03  1.96163E+03 -1.79132E+03  4.03969E+03 -1.32417E+03  3.68357E+03  6.62518E+02
  4.80327E+03  9.02147E+02  9.96862E+02  3.51458E+03 -2.09708E+03  2.87274E+03 -4.90200E+03  2.67932E+03
 -5.54388E+03 -1.06252E+03 -1.97173E+03 -4.18047E+03 -3.49966E+02 -5.78366E+03  3.53039E+03 -5.82035E+03
  5.38201E+03 -3.09569E+03  7.70515E+03  1.11548E+03  5.05843E+03  5.17472E+03  9.24121E+02  6.54551E+03
 -2.48196E+03  6.39916E+03 -3.79939E+03  1.72244E+03 -2.33774E+03 -1.12366E+03 -4.34607E+02 -7.26895E+02
 -7.15627E+02 -3.91380E+01 -6.66413E+02  2.27206E+03 -2.85850E+03  1.41197E+03 -4.09658E+03 -4.13164E+02
 -1.65507E+03 -4.24646E+03  1.05923E+03 -5.26201E+03  2.77560E+03 -4.58628E+03  4.52327E+03 -1.45079E+03
  4.92877E+03  2.75778E+03  1.64032E+03  3.83049E+03 -6.31916E+02  5.19832E+03 -3.42760E+03  2.87779E+03
 -3.91901E+03  8.58125E+01 -3.87427E+03 -2.67863E+03 -3.24677E+02 -3.84489E+03  1.23322E+03 -2.99825E+03
  2.95264E+03 -7.88812E+02  2.28940E+03  2.03348E+02  8.13218E+01  1.72704E+03  7.61381E+02  2.29240E+02
  1.47259E+03  7.85168E+02  1.39508E+03  8.87854E+02  9.66735E+02  2.38184E+03  2.06125E+03  1.67435E+03
 -1.59721E+03  2.77202E+03 -2.42906E+03  4.52338E+03 -3.73883E+03  1.46886E+03 -4.75019E+03 -2.79994E+02
 -1.99908E+03 -4.01335E+03  3.61815E+02 -5.06788E+03  2.00769E+03 -3.19314E+03  3.15343E+03 -9.20984E+02
  3.03166E+03  2.67185E+03  8.38660E+02  2.47403E+03 -7.96042E+02  1.30742E+03 -1.26962E+03 -4.45365E+02
 -8.15409E+02 -1.69389E+03  1.49822E+03 -2.16264E+03  1.17713E+03 -1.27976E+03  1.70426E+03 -1.36218E+02
  6.50208E+02  6.34631E+02  9.73701E+02 -1.12747E+02 -1.57503E+01  1.18886E+03  1.60194E+03 -3.87832E+02
  5.66411E+02 -5.80074E+02  2.40060E+03  2.16246E+02 -8.25948E+01  2.93646E+03 -3.25639E+02  2.67665E+03
 -1.85755E+03  1.01175E+03 -2.21820E+03  5.61020E+02 -2.40809E+03 -6.98633E+02  1.17119E+02 -1.30875E+03
  3.20553E+02 -1.27956E+03  1.18341E+03 -5.49738E+02  3.12364E+02  1.58603E+03 -7.10873E+02  9.79753E+02
 -1.94036E+03  1.31180E+03 -1.44709E+03 -1.40327E+03 -1.74718E+02 -2.07723E+03 -2.51726E+02 -1.94845E+03
  1.16991E+02 -5.33409E+02  5.62346E+02 -7.31817E+02  1.51235E+03  1.70985E+01  4.50983E+02  8.77812E+02
 -3.74205E+02  4.90568E+02 -4.83244E+02  2.34924E+01  7.69868E+02 -7.38265E+02  1.39455E+03 -7.45956E+02
  9.08195E+02  5.89115E+02  2.92876E+03  6.67847E+02  1.08835E+03  1.95918E+03 -2.84627E+02  1.48546E+03
 -1.62295E+03  1.76661E+02 -1.41153E+03 -2.15969E+02 -5.30121E+02 -1.67638E+03  8.19663E+01 -2.73656E+02
  1.53190E+03  9.12415E+01  1.55810E+02  1.62797E+02  5.02058E+02  9.35907E+02  7.36998E+02  1.20339E+03
 -1.10968E+03  1.08843E+03 -9.99927E+02 -1.03978E+01  1.11968E+02  5.30000E+02 -9.45961E+02  3.42541E+02
 -7.86625E+02  1.02119E+03 -1.97467E+03  7.61866E+02 -2.00253E+03  4.82309E+02 -2.70390E+03 -1.17460E+03
 -1.12802E+03 -2.70611E+03  3.31581E+02 -2.65429E+03  1.30793E+03 -2.78002E+03  2.45837E+03 -6.11921E+02
  2.69740E+03  1.87235E+02  7.44507E+02  2.29167E+03 -9.41602E+02  1.74795E+03 -1.40434E+03  1.09430E+03
 -1.19366E+03  1.00237E+03 -8.90177E+01 -6.30103E+02 -5.16057E+02  8.16054E+02 -4.86287E+02  3.70786E+01
 -9.40720E+02 -2.87718E+02 -1.25107E+03  1.09918E+02  2.18977E+02 -4.61016E+02 -1.73272E+02 -8.14657E+02
  1.23578E+03 -6.82954E+02  4.82459E+02  1.29975E+02  2.00121E+03  1.06642E+03 -6.94938E+02  1.23780E+03
 -1.33427E+03  1.82268E+03 -1.67560E+03  1.47563E+03 -1.97247E+03 -3.70726E+02 -1.20745E+03 -1.57982E+03
 -1.22245E+03 -1.27489E+03 -9.46588E+01 -9.68996E+02  4.29371E+02 -1.01690E+03  5.06034E+02 -8.30443E+00
  6.96835E+02  1.74626E+02  5.00216E+01  7.46738E+02 -4.93257E+02  2.23532E+02 -2.37291E+02 -1.18498E+01
  8.76822E+01 -2.52649E+02  8.86681E+02  3.46045E+02 -1.42329E+02  6.02353E+02  6.24671E+02  6.76768E+01
 -3.35277E+02  5.93674E+02 -7.45449E+02 -1.66907E+02 -5.19647E+02 -8.45356E+02  1.94166E+02 -1.23572E+03
  4.64792E+02 -6.64233E+02 -7.82041E+01  5.97513E+01  1.09674E+03 -4.19607E+02  2.80643E+02  1.16059E+03
  7.05327E+02  4.56095E+02 -7.10247E+02  8.37058E+02 -6.40688E+02  3.26954E+02 -4.62170E+02  1.63127E+02
 -3.68358E+02 -5.22817E+02 -3.77766E+02  6.35110E+01 -6.22221E+02  1.91117E+01 -4.21974E+02 -4.13949E+02
 -7.45215E+02  5.03402E+02 -2.01060E+02 -1.12130E+03  1.17960E+03 -1.55366E+03  9.36753E+02 -7.91839E+02
  9.34433E+02 -3.38931E+02 -1.88802E+02  7.94519E+02 -4.76287E+02  1.09144E+03 -4.66383E+02  2.57501E+02
