 $NMID ID='MM_0lb_SNR400_13hz_g60_99.RAW', FMTDAT='(8E13.5)'
 TRAMP=1., VOLUME=1. $END
  3.10050E+05  4.31467E+02  3.37929E+05  2.51048E+05  8.48837E+04  3.38327E+05 -1.32674E+05  2.51851E+05
 -1.90743E+05  8.33557E+04 -1.12154E+05 -3.24372E+04  7.97324E+02 -5.03772E+04  5.38642E+04 -8.51428E+00
  3.51750E+04  5.26382E+04 -1.64856E+04  7.62532E+04 -6.06736E+04  6.46140E+04 -8.45054E+04  3.17767E+04
 -8.21914E+04 -1.08312E+04 -5.73263E+04 -5.18346E+04 -1.47965E+04 -7.07750E+04  2.82137E+04 -4.64668E+04
  4.08010E+04  3.89400E+03  1.68541E+04  4.80555E+04 -3.46482E+04  4.72804E+04 -6.71932E+04 -3.84496E+02
 -5.43235E+04 -5.72534E+04 -6.81363E+03 -7.80119E+04  3.43122E+04 -5.62369E+04  4.85186E+04 -1.75865E+04
  4.42668E+04  1.18198E+04  3.23512E+04  2.61269E+04  1.66925E+04  3.03163E+04 -5.28473E+03  2.72520E+04
 -2.25084E+04  1.23273E+04 -1.83270E+04 -5.45017E+03  6.49826E+03 -7.40290E+03  2.29643E+04  1.32409E+04
  7.79800E+03  3.66623E+04 -3.26732E+04  3.67556E+04 -6.47356E+04  2.70860E+03 -5.81528E+04 -4.44307E+04
 -1.24115E+04 -6.46411E+04  4.07316E+04 -4.64663E+04  5.95719E+04 -2.32147E+03  3.52343E+04  3.34167E+04
 -5.22901E+03  3.83335E+04 -3.13244E+04  1.71622E+04 -3.21821E+04 -4.27220E+03 -1.81982E+04 -1.12666E+04
 -8.95562E+03 -1.42471E+04 -8.14055E+02 -1.87061E+04  8.62740E+03 -2.40577E+04  1.55202E+04 -1.25892E+04
  1.08576E+04  5.38783E+03 -9.53338E+03  1.29183E+04 -2.32100E+04 -6.08505E+03 -8.16910E+03 -3.54345E+04
  2.40706E+04 -4.50140E+04  5.03282E+04 -2.03486E+04  4.70467E+04  2.00174E+04  1.67652E+04  4.54392E+04
 -1.65526E+04  3.55397E+04 -2.64881E+04  2.45102E+03 -1.05755E+04 -2.89427E+04  2.14836E+04 -3.54903E+04
  4.28061E+04 -9.84873E+03  3.77196E+04  2.49143E+04  1.97803E+04  4.92447E+04 -8.60379E+03  5.27533E+04
 -3.35391E+04  3.59543E+04 -4.47861E+04  1.02556E+04 -4.51299E+04 -1.77989E+04 -2.47117E+04 -3.96166E+04
  7.41735E+03 -3.97002E+04  3.32639E+04 -1.61549E+04  3.06831E+04  1.10364E+04  4.62382E+03  2.02934E+04
 -1.36723E+04  9.42491E+03 -1.06533E+04 -7.13232E+03  5.92519E+03 -1.07873E+04  1.87834E+04  6.05095E+03
  1.38074E+04  2.24813E+04 -5.53120E+03  2.65296E+04 -2.17332E+04  1.30472E+04 -2.91037E+04 -4.61155E+03
 -2.22993E+04 -1.77327E+04 -9.98520E+03 -2.23456E+04  4.57667E+03 -2.26259E+04  1.82664E+04 -2.06952E+04
  2.86923E+04 -1.33983E+04  3.59179E+04  3.50104E+03  2.59603E+04  2.24412E+04  3.83123E+03  3.85257E+04
 -1.91296E+04  3.17995E+04 -2.92471E+04  1.10803E+04 -2.15653E+04 -1.04019E+04 -5.13305E+03 -1.35885E+04
  1.49411E+03 -2.18599E+03 -5.89699E+03  7.49503E+03 -1.75376E+04  5.07629E+03 -1.85475E+04 -8.02362E+03
 -1.12615E+04 -2.14412E+04  5.55491E+03 -2.55526E+04  1.69248E+04 -1.87022E+04  1.99357E+04 -1.41264E+03
  1.34951E+04  1.44900E+04 -9.77574E+02  2.08618E+04 -1.43517E+04  1.18303E+04 -2.12039E+04 -4.12226E+03
 -1.59032E+04 -1.84111E+04 -1.93309E+03 -2.53658E+04  1.07522E+04 -2.09421E+04  2.12288E+04 -1.06195E+04
  1.92270E+04 -4.67464E+01  1.42339E+04  4.31616E+03  8.03324E+03  8.71207E+02  1.07501E+04 -1.73825E+03
  1.95366E+04  3.31067E+03  2.14885E+04  1.67158E+04  1.40370E+04  3.35683E+04 -2.62737E+03  3.84645E+04
 -2.22514E+04  3.21546E+04 -3.59193E+04  1.57359E+04 -3.76276E+04 -2.76718E+03 -3.13943E+04 -2.13731E+04
 -1.25721E+04 -3.18799E+04  1.09247E+04 -2.85241E+04  2.41028E+04 -1.48216E+04  2.12829E+04  6.20652E+03
  7.83787E+03  1.63790E+04 -1.05578E+04  1.32140E+04 -1.83871E+04  2.64011E+03 -1.38793E+04 -1.12730E+04
 -5.27492E+02 -1.72467E+04  8.72025E+03 -1.19556E+04  1.08786E+04 -1.13557E+03  3.32693E+03  7.22441E+03
 -8.00909E+03  3.49660E+03 -7.08148E+03 -6.01243E+03 -6.21000E+02 -1.44586E+04  1.12918E+04 -1.58591E+04
  1.87563E+04 -8.89694E+03  2.15293E+04  3.31669E+03  1.79850E+04  1.55488E+04  7.81068E+03  2.35680E+04
 -4.13372E+03  2.50612E+04 -1.64068E+04  1.59763E+04 -1.90793E+04  2.93877E+03 -1.20057E+04 -4.35149E+03
 -6.55547E+03 -5.63744E+03 -5.99039E+02  8.98066E+02 -2.56891E+03  3.65292E+03 -5.70425E+03  4.35977E+03
 -1.23471E+04 -1.30706E+03 -1.27574E+04 -1.09499E+04 -4.88763E+03 -1.64047E+04  6.05431E+03 -1.27046E+04
  1.05339E+04 -5.19981E+03  7.82918E+03  3.37695E+03 -2.43814E+02  5.15909E+03 -5.93498E+03 -6.17470E+02
 -5.73377E+03 -8.17550E+03 -1.19745E+03 -1.20635E+04  7.11143E+03 -1.34899E+04  1.61683E+04 -6.58359E+03
  1.89320E+04  1.83912E+03  1.41191E+04  1.14165E+04  2.99982E+03  1.54766E+04 -7.35151E+03  1.22274E+04
 -1.02922E+04  4.39308E+03 -5.78926E+03 -2.30969E+03  1.55217E+03 -3.25640E+03  6.63181E+03 -8.19127E+02
  5.91186E+03  6.01454E+03  9.43967E+02  1.01012E+04 -7.21584E+03  9.54654E+03 -1.24494E+04  2.96197E+03
 -8.96465E+03 -6.79840E+03  3.11512E+02 -1.17488E+04  6.92158E+03 -4.73570E+03  7.49425E+03  2.65040E+03
  7.26268E+02  7.32637E+03 -6.21144E+03  8.68429E+03 -9.99586E+03  4.67780E+03 -9.79664E+03 -2.94145E+03
 -6.75241E+03 -1.17422E+04  3.69801E+03 -1.34067E+04  1.18176E+04 -8.32595E+03  1.27179E+04  2.69614E+03
  7.21774E+03  9.77098E+03 -1.11762E+03  1.25022E+04 -8.92772E+03  7.52878E+03 -9.53784E+03 -7.07683E+02
 -9.01986E+03 -8.49582E+03 -1.90859E+03 -9.28439E+03  4.91391E+03 -6.97472E+03  6.18265E+03 -3.53844E+03
  3.66059E+03  1.07744E+03 -5.74107E+02  1.08826E+03 -4.76071E+02 -3.03063E+03  1.84034E+03 -4.63550E+03
  8.72025E+03 -2.91589E+03  1.23200E+04  5.89429E+02  1.22600E+04  7.75487E+03  7.99253E+03  1.52179E+04
 -3.74778E+03  1.73599E+04 -1.50503E+04  1.26242E+04 -1.91419E+04  2.57211E+03 -1.51987E+04 -6.17809E+03
 -7.62958E+03 -1.27457E+04 -7.97896E+02 -1.05612E+04  3.94759E+03 -5.92359E+03  3.80554E+03 -4.14635E+03
  2.53274E+03 -1.67867E+03  2.63522E+03 -2.77165E+03  4.83262E+03 -2.17412E+03  5.73458E+03 -6.33491E+02
  8.05682E+03  1.82686E+03  3.78364E+03  6.44624E+03 -1.79225E+03  7.35564E+03 -8.22560E+03  5.51344E+03
 -9.79381E+03 -1.13421E+03 -5.90207E+03 -6.84422E+03 -1.48616E+02 -1.05018E+04  6.26913E+03 -1.09146E+04
  1.08219E+04 -6.53119E+03  1.35341E+04  1.62034E+03  9.92120E+03  9.34088E+03  1.83250E+03  1.21792E+04
 -5.35902E+03  1.08641E+04 -7.37761E+03  4.08212E+03 -4.26362E+03 -9.86116E+02 -1.38569E+03 -1.61126E+03
 -1.27168E+03 -1.05587E+01 -1.63958E+03  2.67205E+03 -4.92423E+03  1.94429E+03 -7.84156E+03 -6.96381E+02
 -5.09310E+03 -7.22377E+03  1.76033E+02 -1.02801E+04  5.71928E+03 -9.26489E+03  9.64772E+03 -2.44165E+03
  1.00966E+04  4.95397E+03  5.12529E+03  8.45715E+03 -1.31017E+03  1.00901E+04 -7.47544E+03  5.99778E+03
 -9.00345E+03  9.13780E+02 -7.03502E+03 -5.88010E+03 -7.45451E+02 -8.46280E+03  4.54785E+03 -6.36356E+03
  5.99378E+03 -2.28785E+03  4.21911E+03  1.51467E+03  2.26346E+03  3.38729E+03  1.06465E+03  1.30346E+03
  2.60156E+03  5.54124E+02  3.11476E+03  1.69855E+03  2.80841E+03  3.63176E+03  2.20226E+03  4.11054E+03
 -2.54937E+03  7.90668E+03 -6.43187E+03  8.31790E+03 -9.68764E+03  1.73387E+03 -9.68405E+03 -3.04441E+03
 -5.19650E+03 -9.20210E+03  1.67388E+03 -1.01775E+04  5.61996E+03 -6.55285E+03  7.25932E+03 -1.98540E+03
  6.07342E+03  3.85668E+03  1.71114E+03  5.74451E+03 -2.36492E+03  3.65337E+03 -3.92422E+03 -5.93885E+02
 -1.99250E+03 -3.29163E+03  2.90653E+03 -4.46939E+03  4.23345E+03 -1.82994E+03  4.01046E+03  4.28284E+02
  2.35955E+03  1.44518E+03  1.34218E+03  1.03172E+03 -1.54840E+02  1.53032E+03  2.15608E+03 -2.77131E+02
  5.27690E+02 -8.48830E+02  3.93127E+03  1.45891E+03  1.53428E+03  5.00512E+03 -4.02397E+02  7.02885E+03
 -4.63841E+03  3.55979E+03 -5.16128E+03  1.43598E+03 -5.23825E+03 -2.11492E+03 -1.31877E+03 -2.70091E+03
  6.12961E+01 -3.42238E+03  1.71628E+03 -1.49578E+03  1.12443E+03  2.64237E+03 -1.15096E+03  3.15537E+03
 -3.67887E+03  2.31001E+03 -4.06219E+03 -2.50611E+03 -2.51624E+03 -5.00442E+03  5.22744E+02 -4.31867E+03
  3.14153E+03 -2.20792E+03  3.10439E+03 -1.28452E+02  2.79675E+03  1.31083E+03  9.18260E+02  1.99484E+03
 -1.01378E+03  1.36005E+03 -2.15872E+03 -1.46051E+03  1.35345E+03 -3.86563E+03  4.54573E+03 -2.62985E+03
  4.89999E+03  2.95502E+01  6.51303E+03  3.40776E+03  1.22878E+03  5.60870E+03 -1.38065E+03  4.89869E+03
 -4.30310E+03  1.89904E+03 -5.31083E+03 -8.70349E+02 -2.91217E+03 -3.33396E+03  3.41108E+02 -2.34940E+03
  3.82004E+03 -1.39654E+03  2.75283E+03  1.59329E+03  1.05533E+03  2.81287E+03 -2.27172E+02  2.66740E+03
 -1.30066E+03  1.67180E+03 -8.01976E+02  7.61978E+02 -8.81914E+02  1.26588E+03 -1.08016E+03  1.59641E+03
 -1.60653E+03  2.76496E+03 -3.74579E+03  1.95042E+03 -5.28350E+03  2.33727E+02 -6.28047E+03 -2.86550E+03
 -2.52770E+03 -6.98553E+03  1.81011E+03 -7.83075E+03  4.23527E+03 -6.61591E+03  7.45887E+03 -2.94697E+03
  7.34268E+03  1.51969E+03  4.65817E+03  4.46780E+03  3.20421E+02  5.04170E+03 -1.58687E+03  3.69583E+03
 -3.10045E+03  1.09523E+03 -2.02123E+03 -9.15532E+02 -1.81486E+03 -6.75620E+01 -1.16908E+01 -6.25747E+01
 -1.34458E+03 -3.94384E+02 -1.86345E+03  3.10666E+02 -1.05200E+03 -1.27291E+03 -6.23548E+01 -2.22077E+03
  2.14852E+03 -2.06947E+03  3.43481E+03 -1.44834E+02  2.96272E+03  2.77715E+03  2.39862E+02  5.05969E+03
 -2.90532E+03  5.56398E+03 -5.48720E+03  3.51307E+03 -5.66238E+03 -4.74143E+02 -4.72637E+03 -3.64382E+03
 -2.03412E+03 -5.05177E+03  1.12303E+03 -4.33058E+03  2.44007E+03 -2.20364E+03  3.16462E+03  5.25009E+01
  2.13223E+03  1.59985E+03 -8.09405E+02  1.57724E+03 -1.17806E+03 -5.80654E+02 -2.02364E+01 -1.93296E+03
  1.96797E+03 -4.37634E+02  1.51366E+03  4.48464E+02  1.60074E+03  1.54527E+03 -8.21993E+01  2.00692E+03
 -2.20198E+03  1.88931E+03 -3.14888E+03 -1.76781E+02 -2.64810E+03 -2.72312E+03 -1.59990E+02 -4.36440E+03
  2.01556E+03 -3.11209E+03  3.63607E+03 -1.09791E+03  3.72726E+03 -2.56325E+02  1.32067E+03  2.58238E+03
  2.82582E+02  2.96615E+03 -4.25798E+02  2.69936E+03 -2.19632E+03  1.17536E+03 -1.88363E+03  2.54566E+01
 -8.94264E+02 -3.85716E+02 -1.53914E+03  5.04783E+02 -1.69187E+03  9.96428E+02 -2.54734E+03 -6.38413E+02
 -2.77316E+03 -9.05568E+02 -1.92789E+02 -3.52160E+03  1.83640E+03 -3.87223E+03  1.81862E+03 -1.33103E+03
  2.89428E+03 -1.24500E+02  1.10293E+03  2.49649E+03  6.43713E+02  3.53272E+03 -2.44574E+03  2.19310E+03
