 $NMID ID='MM_0lb_SNR400_12hz_g60_15.RAW', FMTDAT='(8E13.5)'
 TRAMP=1., VOLUME=1. $END
  3.09583E+05  3.35804E+02  3.38300E+05  2.50664E+05  8.44681E+04  3.38245E+05 -1.33012E+05  2.51676E+05
 -1.90454E+05  8.35405E+04 -1.12726E+05 -3.25112E+04  4.91379E+02 -5.08709E+04  5.35556E+04 -2.59220E+02
  3.50920E+04  5.24232E+04 -1.59014E+04  7.58862E+04 -6.13705E+04  6.41622E+04 -8.45688E+04  3.25852E+04
 -8.20075E+04 -1.13765E+04 -5.84186E+04 -5.23861E+04 -1.51566E+04 -7.04113E+04  2.79768E+04 -4.61571E+04
  4.10606E+04  3.39848E+03  1.59309E+04  4.82414E+04 -3.48067E+04  4.81928E+04 -6.83666E+04  2.82279E+02
 -5.43473E+04 -5.75356E+04 -7.38919E+03 -7.84835E+04  3.51649E+04 -5.66475E+04  5.00860E+04 -1.88475E+04
  4.43023E+04  1.18133E+04  3.28127E+04  2.61203E+04  1.64833E+04  3.04834E+04 -5.26766E+03  2.80843E+04
 -2.28440E+04  1.26925E+04 -1.82018E+04 -5.34286E+03  6.27439E+03 -7.37053E+03  2.27057E+04  1.31304E+04
  7.35808E+03  3.69132E+04 -3.31125E+04  3.72559E+04 -6.49466E+04  2.02001E+03 -5.77020E+04 -4.43344E+04
 -1.25535E+04 -6.51645E+04  4.21075E+04 -4.73210E+04  6.05703E+04 -2.53443E+03  3.61638E+04  3.34579E+04
 -5.71670E+03  3.76606E+04 -3.17297E+04  1.79494E+04 -3.26529E+04 -3.85178E+03 -1.85639E+04 -1.27197E+04
 -9.75650E+03 -1.56121E+04 -6.72418E+02 -1.86703E+04  8.12103E+03 -2.37424E+04  1.57212E+04 -1.28744E+04
  1.08888E+04  5.85585E+03 -9.80477E+03  1.33928E+04 -2.26457E+04 -6.15309E+03 -8.74137E+03 -3.63791E+04
  2.46016E+04 -4.59101E+04  5.08855E+04 -2.04907E+04  4.77456E+04  2.03022E+04  1.70717E+04  4.63585E+04
 -1.63183E+04  3.48234E+04 -2.67535E+04  2.06684E+03 -1.23901E+04 -2.94793E+04  2.17080E+04 -3.54521E+04
  4.34016E+04 -1.07103E+04  3.95481E+04  2.42820E+04  2.09612E+04  4.95044E+04 -7.61959E+03  5.46074E+04
 -3.38800E+04  3.69348E+04 -4.56842E+04  1.05272E+04 -4.69666E+04 -1.84050E+04 -2.52873E+04 -4.14400E+04
  7.15080E+03 -4.14167E+04  3.25000E+04 -1.68327E+04  3.04949E+04  1.09186E+04  4.51860E+03  2.03912E+04
 -1.36373E+04  9.46370E+03 -1.12942E+04 -7.52232E+03  6.11465E+03 -1.07945E+04  1.86386E+04  5.66095E+03
  1.47950E+04  2.26060E+04 -6.03052E+03  2.66656E+04 -2.31977E+04  1.32244E+04 -3.05689E+04 -2.88602E+03
 -2.38886E+04 -1.86473E+04 -1.09049E+04 -2.34694E+04  4.52852E+03 -2.36624E+04  1.83172E+04 -2.18585E+04
  2.99335E+04 -1.38415E+04  3.67867E+04  4.86102E+03  2.56691E+04  2.32955E+04  4.85125E+03  3.93299E+04
 -1.99546E+04  3.32948E+04 -2.91889E+04  1.12886E+04 -2.15468E+04 -1.03817E+04 -4.74201E+03 -1.31126E+04
  1.08557E+03 -1.84842E+03 -6.00821E+03  7.72835E+03 -1.84692E+04  5.27972E+03 -1.87834E+04 -8.57499E+03
 -1.11125E+04 -2.26599E+04  6.08470E+03 -2.53872E+04  1.80735E+04 -1.79984E+04  2.05141E+04 -1.27829E+03
  1.33744E+04  1.48307E+04 -1.55506E+03  2.14085E+04 -1.54123E+04  1.23581E+04 -2.16198E+04 -4.53731E+03
 -1.55862E+04 -1.97477E+04 -1.82994E+03 -2.56781E+04  1.15611E+04 -2.16975E+04  2.24903E+04 -1.13633E+04
  1.96623E+04 -3.14504E+02  1.46773E+04  5.32039E+03  8.54095E+03  1.93254E+03  1.09518E+04 -1.77395E+03
  2.02820E+04  2.61162E+03  2.28253E+04  1.63940E+04  1.55004E+04  3.57146E+04 -2.89008E+03  4.02617E+04
 -2.31950E+04  3.34110E+04 -3.81887E+04  1.68628E+04 -4.08590E+04 -2.83950E+03 -3.27581E+04 -2.30434E+04
 -1.31994E+04 -3.38989E+04  1.15662E+04 -2.98012E+04  2.49704E+04 -1.44185E+04  2.21009E+04  7.22837E+03
  8.41789E+03  1.74228E+04 -1.01912E+04  1.53147E+04 -1.85469E+04  2.15953E+03 -1.42448E+04 -1.21742E+04
 -4.67671E+02 -1.74582E+04  1.03649E+04 -1.26878E+04  1.25024E+04 -1.48155E+03  3.40150E+03  8.17427E+03
 -7.21788E+03  4.25505E+03 -7.45615E+03 -6.20004E+03 -1.10079E+03 -1.61064E+04  1.10608E+04 -1.78617E+04
  2.01714E+04 -9.74489E+03  2.29086E+04  3.11973E+03  2.00438E+04  1.60341E+04  8.86097E+03  2.53166E+04
 -5.16266E+03  2.76093E+04 -1.88265E+04  1.72137E+04 -1.93212E+04  3.76666E+03 -1.42379E+04 -4.90163E+03
 -5.71170E+03 -6.29133E+03 -6.48293E+02  3.98106E+02 -3.32701E+03  2.67183E+03 -6.52235E+03  6.49006E+03
 -1.23535E+04 -1.12145E+03 -1.36540E+04 -1.07982E+04 -5.16654E+03 -1.73801E+04  6.07318E+03 -1.38721E+04
  1.10605E+04 -5.59080E+03  7.12855E+03  3.78089E+03 -4.66581E+02  6.02549E+03 -6.96177E+03  1.32226E+01
 -5.76165E+03 -9.04834E+03 -1.24528E+03 -1.34635E+04  8.15711E+03 -1.46166E+04  1.76588E+04 -7.52551E+03
  2.06727E+04  1.78727E+03  1.48379E+04  1.22811E+04  2.99419E+03  1.62261E+04 -8.86274E+03  1.29710E+04
 -1.15533E+04  3.60673E+03 -5.69533E+03 -3.33785E+03  2.48297E+03 -4.01177E+03  7.42035E+03 -7.36037E+02
  7.16427E+03  6.07540E+03  1.27554E+03  1.10204E+04 -8.37154E+03  9.90069E+03 -1.39328E+04  2.81141E+03
 -8.44451E+03 -7.42116E+03  3.30320E+02 -1.21374E+04  6.97736E+03 -6.25698E+03  7.85960E+03  2.49968E+03
  2.10595E+03  7.66983E+03 -7.25630E+03  9.60862E+03 -1.13236E+04  4.09399E+03 -1.16748E+04 -4.50702E+03
 -6.40899E+03 -1.33360E+04  3.11616E+03 -1.44886E+04  1.26260E+04 -9.47157E+03  1.34679E+04  1.56914E+03
  8.88622E+03  1.19220E+04 -1.12150E+03  1.32460E+04 -1.00079E+04  7.41316E+03 -1.02763E+04 -1.17145E+03
 -9.43754E+03 -8.69421E+03 -1.81859E+03 -9.71129E+03  5.08803E+03 -7.98879E+03  6.03537E+03 -3.66235E+03
  3.96434E+03  1.93399E+03 -9.15500E+02  1.46811E+03 -5.92717E+02 -2.51462E+03  1.96987E+03 -5.20678E+03
  9.43810E+03 -3.28099E+03  1.25800E+04  1.11902E+03  1.24879E+04  9.08382E+03  8.35461E+03  1.70944E+04
 -4.08466E+03  1.86533E+04 -1.55813E+04  1.40061E+04 -2.12227E+04  2.64322E+03 -1.66679E+04 -7.43974E+03
 -8.44824E+03 -1.40294E+04 -2.84922E+02 -1.22449E+04  4.41068E+03 -6.58638E+03  4.22869E+03 -3.91504E+03
  3.53244E+03 -2.58068E+03  3.53763E+03 -3.15231E+03  4.41638E+03 -3.13344E+03  6.30093E+03 -1.10609E+03
  9.30117E+03  2.21674E+03  4.23936E+03  8.00344E+03 -2.50473E+03  9.05541E+03 -9.08447E+03  6.49184E+03
 -1.24645E+04 -1.79381E+03 -6.96203E+03 -8.87140E+03 -1.28608E+03 -1.23147E+04  6.30602E+03 -1.28618E+04
  1.28306E+04 -7.46583E+03  1.55446E+04  2.32425E+03  1.03421E+04  1.10016E+04  1.99578E+03  1.40835E+04
 -5.63926E+03  1.16992E+04 -8.19948E+03  4.23622E+03 -6.25785E+03 -1.47390E+03 -2.63106E+03 -1.21761E+03
 -1.86472E+03  4.98448E+00 -1.07157E+03  3.18249E+03 -4.90996E+03  1.78135E+03 -7.94050E+03 -1.47539E+03
 -5.62096E+03 -7.84252E+03  2.81116E+02 -1.16289E+04  6.78717E+03 -1.03375E+04  1.07041E+04 -3.73996E+03
  1.11282E+04  5.11761E+03  5.32053E+03  9.36824E+03 -1.99283E+03  1.07486E+04 -7.62869E+03  6.81529E+03
 -1.01941E+04  6.73840E+02 -8.22879E+03 -6.67258E+03 -1.22048E+03 -9.09073E+03  5.06850E+03 -6.82298E+03
  7.33865E+03 -2.87675E+03  4.28570E+03  2.44538E+03  1.82421E+03  3.54886E+03  1.17275E+03  1.83155E+03
  2.50345E+03  8.49242E+02  2.77685E+03  1.13436E+03  3.06840E+03  4.42884E+03  2.75874E+03  5.76512E+03
 -1.82706E+03  8.70241E+03 -7.57722E+03  8.90248E+03 -1.16401E+04  2.52700E+03 -1.13880E+04 -4.37379E+03
 -5.09617E+03 -1.07056E+04  2.11425E+03 -1.19138E+04  6.78934E+03 -7.30148E+03  9.29228E+03 -2.78840E+03
  7.44050E+03  4.29763E+03  7.71714E+02  5.89898E+03 -2.60390E+03  3.31555E+03 -4.68412E+03 -1.40738E+03
 -2.34673E+03 -4.11545E+03  2.08188E+03 -4.54006E+03  4.74624E+03 -2.60386E+03  4.33031E+03  1.02224E+03
  2.84434E+03  1.88207E+03  1.12659E+03  1.43636E+03  1.39388E+02  1.28291E+03  1.51928E+03 -7.58035E+02
  1.40195E+03 -9.25060E+02  4.08302E+03  1.62225E+03  2.78825E+03  6.27065E+03 -5.99829E+02  8.17133E+03
 -5.38880E+03  4.67269E+03 -6.43948E+03  1.86354E+03 -5.96098E+03 -2.20529E+03 -1.72082E+03 -3.39103E+03
  1.06711E+03 -4.27406E+03  3.03469E+03 -2.08387E+03  2.18661E+03  2.72330E+03 -1.60207E+03  3.10178E+03
 -4.41569E+03  2.51472E+03 -4.79252E+03 -2.53676E+03 -2.78557E+03 -5.33041E+03  9.68406E+02 -5.54720E+03
  3.60043E+03 -3.07622E+03  4.29389E+03  3.77115E+02  4.15389E+03  9.61322E+02  6.58992E+02  3.78266E+03
 -2.64354E+03  1.46848E+03 -2.57377E+03 -2.37110E+03  7.10540E+02 -4.01328E+03  5.30845E+03 -3.69130E+03
  6.06309E+03 -3.36419E+01  7.01439E+03  4.49708E+03  2.37940E+03  6.50827E+03 -2.19943E+03  5.89047E+03
 -5.14072E+03  2.82330E+03 -5.17951E+03 -1.38922E+03 -2.27506E+03 -4.62024E+03  7.68772E+02 -3.84216E+03
  4.30144E+03 -1.22500E+03  3.32419E+03  2.52082E+03  1.34348E+03  3.96294E+03 -1.84538E+02  3.23662E+03
 -1.67080E+03  2.16477E+03 -1.15671E+03  4.24187E+02 -4.08474E+02  8.88974E+02 -1.25105E+03  1.84250E+03
 -2.13805E+03  2.23628E+03 -5.21477E+03  2.19061E+03 -6.61234E+03 -1.25201E+02 -7.86438E+03 -4.25517E+03
 -3.55015E+03 -8.61925E+03  1.45231E+03 -1.01265E+04  5.57001E+03 -7.79691E+03  9.49167E+03 -2.84725E+03
  8.53796E+03  1.54875E+03  5.44587E+03  5.59737E+03  3.17811E+02  5.57331E+03 -2.23156E+03  4.80346E+03
 -3.70551E+03  2.33562E+03 -7.51720E+02 -5.85291E+02 -9.00026E+02 -5.64486E+02 -9.64917E+02 -8.37893E+01
 -1.45964E+03  2.45853E+02 -1.68618E+03 -5.70140E+02 -3.67981E+02 -1.87740E+03  8.25079E+01 -2.91349E+03
  3.04669E+03 -2.89842E+03  3.67895E+03  3.65214E+02  4.92591E+03  2.54984E+03  9.42057E+02  6.94226E+03
 -2.80136E+03  7.20727E+03 -7.11373E+03  4.66178E+03 -7.46725E+03 -8.95528E+02 -5.07131E+03 -4.70054E+03
 -2.54121E+03 -6.75681E+03  1.41984E+03 -5.83122E+03  4.20907E+03 -3.10696E+03  4.56381E+03 -3.34337E+02
  2.44023E+03  2.20447E+03 -4.09916E+02  2.04338E+03 -1.32888E+03  3.54008E+02  2.15362E+02 -1.76879E+03
  2.33478E+03 -7.07488E+02  2.20322E+03  7.68663E+02  1.03342E+03  2.85389E+03  3.88510E+02  3.83084E+03
 -3.06902E+03  2.53516E+03 -3.87326E+03 -1.41872E+02 -4.26197E+03 -3.18926E+03 -6.55413E+02 -5.88107E+03
  2.97168E+03 -4.54623E+03  4.28955E+03 -1.36046E+03  4.35522E+03  8.23643E+02  2.88997E+03  3.75303E+03
  3.45571E+02  3.46694E+03 -1.37570E+03  3.76808E+03 -2.80474E+03  2.02859E+03 -2.17348E+03  5.38978E+02
 -4.72639E+02  4.41274E+01 -1.48749E+03 -9.34988E+01 -1.98069E+03  6.85174E+02 -2.73048E+03 -5.08427E+02
 -3.32954E+03 -1.78930E+03 -1.14076E+03 -3.74745E+03  1.98460E+03 -4.66517E+03  3.59267E+03 -1.67777E+03
  4.15197E+03 -1.09006E+02  1.94660E+03  2.58230E+03 -4.90773E+01  4.31341E+03 -3.27706E+03  1.79722E+03
