 $NMID ID='MM_0lb_SNR400_20hz_g50_22.RAW', FMTDAT='(8E13.5)'
 TRAMP=1., VOLUME=1. $END
  3.09647E+05  7.89133E+02  3.37525E+05  2.50281E+05  8.48535E+04  3.37285E+05 -1.32747E+05  2.50116E+05
 -1.89939E+05  8.21120E+04 -1.10923E+05 -3.30785E+04  1.24917E+03 -5.02666E+04  5.41897E+04  1.92299E+02
  3.50381E+04  5.23458E+04 -1.69935E+04  7.45398E+04 -6.03107E+04  6.26002E+04 -8.30355E+04  3.13655E+04
 -7.91652E+04 -1.10222E+04 -5.61736E+04 -4.99497E+04 -1.46275E+04 -6.82932E+04  2.66122E+04 -4.48224E+04
  3.89829E+04  4.08271E+03  1.55852E+04  4.69819E+04 -3.34396E+04  4.58254E+04 -6.51050E+04 -8.72638E+02
 -5.17009E+04 -5.58793E+04 -6.27284E+03 -7.49230E+04  3.31958E+04 -5.31221E+04  4.58073E+04 -1.61486E+04
  4.08386E+04  1.10556E+04  3.05897E+04  2.41165E+04  1.57197E+04  2.80910E+04 -4.49433E+03  2.69317E+04
 -2.16447E+04  1.29867E+04 -1.94141E+04 -4.09541E+03  4.42893E+03 -7.37003E+03  2.12255E+04  1.05013E+04
  7.35211E+03  3.32284E+04 -3.02429E+04  3.34412E+04 -6.12102E+04  2.56893E+03 -5.49868E+04 -4.13674E+04
 -1.27142E+04 -5.97363E+04  3.78854E+04 -4.28907E+04  5.52984E+04 -1.72855E+03  3.16730E+04  3.07477E+04
 -6.57385E+03  3.27904E+04 -2.79801E+04  1.32780E+04 -2.69461E+04 -5.36842E+03 -1.42189E+04 -9.79152E+03
 -7.68339E+03 -1.13647E+04 -1.19219E+03 -1.64095E+04  6.22031E+03 -2.23584E+04  1.48469E+04 -1.36384E+04
  1.25607E+04  4.29741E+03 -5.61301E+03  1.31571E+04 -1.95650E+04 -2.21135E+03 -8.01637E+03 -2.98428E+04
  2.06756E+04 -3.96982E+04  4.38349E+04 -1.84122E+04  4.12300E+04  1.78300E+04  1.39245E+04  4.13174E+04
 -1.48847E+04  3.07413E+04 -2.25795E+04  6.33026E+02 -7.33822E+03 -2.59036E+04  2.00976E+04 -3.07811E+04
  3.72663E+04 -7.19847E+03  3.05171E+04  2.28920E+04  1.49415E+04  4.22347E+04 -7.37107E+03  4.41075E+04
 -2.79879E+04  2.91062E+04 -3.62652E+04  8.21985E+03 -3.80175E+04 -1.44759E+04 -2.10509E+04 -3.41063E+04
  6.63458E+03 -3.33691E+04  2.88124E+04 -1.25874E+04  2.68265E+04  1.04713E+04  3.07046E+03  1.79636E+04
 -1.39340E+04  6.91730E+03 -9.13654E+03 -7.94002E+03  5.70188E+03 -9.82085E+03  1.72557E+04  6.64466E+03
  1.21899E+04  2.15974E+04 -7.11596E+03  2.29374E+04 -2.12095E+04  8.33241E+03 -2.47890E+04 -6.60380E+03
 -1.60108E+04 -1.57273E+04 -5.40020E+03 -1.63274E+04  3.22618E+03 -1.35029E+04  1.17250E+04 -1.34973E+04
  2.02635E+04 -1.17316E+04  2.72968E+04  1.07972E+03  2.04211E+04  1.56198E+04  3.83578E+03  3.18568E+04
 -1.56618E+04  2.70721E+04 -2.58530E+04  9.21341E+03 -1.91723E+04 -1.08210E+04 -3.99490E+03 -1.39371E+04
  2.61464E+03 -4.56056E+03 -2.21782E+03  5.18585E+03 -1.19485E+04  4.80345E+03 -1.25752E+04 -5.06117E+03
 -9.19426E+03 -1.49810E+04  4.93221E+03 -1.83976E+04  1.18082E+04 -1.37391E+04  1.39643E+04 -1.58743E+03
  8.25067E+03  1.03464E+04 -1.23851E+03  1.46977E+04 -1.00311E+04  8.27043E+03 -1.43933E+04 -3.26576E+03
 -1.10997E+04 -1.35431E+04 -1.70652E+03 -1.80646E+04  8.49375E+03 -1.43987E+04  1.55088E+04 -6.82554E+03
  1.39495E+04  9.13930E+02  9.83508E+03  3.56645E+03  4.68992E+03  8.26940E+02  7.18343E+03 -1.48438E+03
  1.31135E+04  2.67782E+03  1.38175E+04  1.26151E+04  8.89839E+03  2.30454E+04 -3.19932E+03  2.47846E+04
 -1.51836E+04  1.88042E+04 -2.30362E+04  9.45647E+03 -2.24826E+04 -1.49518E+03 -2.00101E+04 -1.29376E+04
 -9.91456E+03 -1.92693E+04  6.04809E+03 -1.73910E+04  1.54549E+04 -1.04437E+04  1.46516E+04  3.51494E+03
  6.33413E+03  1.03441E+04 -6.54088E+03  9.98679E+03 -1.31507E+04  2.66234E+03 -9.66768E+03 -6.95123E+03
  2.96329E+02 -1.20007E+04  6.16110E+03 -9.20431E+03  7.02778E+03 -1.66112E+03  1.63371E+03  4.55412E+03
 -5.14521E+03  8.66892E+02 -3.53075E+03 -3.95348E+03  8.17759E+02 -9.43181E+03  8.33690E+03 -9.96701E+03
  1.17716E+04 -4.17080E+03  1.06102E+04  2.68739E+03  8.72072E+03  8.63075E+03  4.92319E+03  1.28310E+04
 -1.25258E+03  1.48251E+04 -8.41014E+03  9.14122E+03 -9.81517E+03  2.59657E+03 -7.74334E+03 -1.52103E+03
 -4.34752E+03 -2.64090E+03 -1.17075E+03  1.64753E+03 -2.15787E+03  2.04622E+03 -3.28549E+03  3.69533E+03
 -6.94066E+03 -1.70326E+00 -8.36837E+03 -6.86475E+03 -3.61734E+03 -1.07814E+04  2.88704E+03 -7.64852E+03
  6.72339E+03 -3.40144E+03  4.89795E+03  2.43271E+03  5.31064E+02  2.60551E+03 -2.81142E+03 -8.16422E+01
 -2.53575E+03 -4.08899E+03 -1.05354E+03 -7.08049E+03  3.73209E+03 -7.00880E+03  9.29941E+03 -3.64889E+03
  1.04405E+04  6.56745E+02  7.99713E+03  5.46584E+03  1.84605E+03  7.70977E+03 -4.56320E+03  7.82262E+03
 -6.57193E+03  2.50622E+03 -3.82242E+03 -1.08693E+03  1.16928E+03 -1.77687E+03  4.67364E+03 -1.14172E+03
  3.73486E+03  2.99287E+03  9.02377E+02  5.89275E+03 -3.43799E+03  6.30971E+03 -7.16014E+03  1.82484E+03
 -4.46773E+03 -3.19552E+03  6.80904E+02 -6.30421E+03  3.41308E+03 -3.16233E+03  3.15611E+03  7.41482E+02
  7.65087E+02  3.00017E+03 -3.80362E+03  4.14349E+03 -3.84420E+03  2.02652E+03 -4.02736E+03 -5.30481E+02
 -2.45663E+03 -4.98849E+03  5.25027E+02 -5.70460E+03  4.94395E+03 -4.38964E+03  5.26030E+03  1.01777E+03
  4.28953E+03  5.09815E+03 -6.29799E+01  6.63059E+03 -4.31599E+03  4.01908E+03 -4.48982E+03 -6.34457E+02
 -5.21580E+03 -5.04212E+03 -1.41680E+03 -4.68724E+03  2.15540E+03 -3.80576E+03  2.71854E+03 -2.30084E+03
  2.81090E+03  2.89596E+02  1.64172E+02  1.07356E+03  6.43447E+02  1.94410E+02  2.97823E+02 -1.13914E+03
  3.22660E+03  1.31580E+02  4.51498E+03  9.84737E+02  4.70440E+03  2.58616E+03  4.91687E+03  5.52930E+03
 -5.78141E+02  7.15702E+03 -6.70904E+03  5.59289E+03 -8.18218E+03  9.46926E+02 -6.52210E+03 -2.20276E+03
 -3.52566E+03 -5.93670E+03 -3.85220E+02 -4.66933E+03  2.15467E+03 -2.03040E+03  1.30408E+03 -1.84399E+03
  9.05434E+02 -1.65933E+03  1.88992E+03 -2.27898E+03  3.54046E+03 -8.08515E+02  3.04011E+03  4.73922E+02
  4.03762E+03  8.00312E+02  9.97540E+02  3.18371E+03 -1.27880E+03  1.96656E+03 -3.24666E+03  2.36046E+03
 -4.03821E+03 -7.84965E+02 -1.29112E+03 -2.68410E+03  5.80108E+02 -3.79569E+03  2.95525E+03 -4.77746E+03
  4.65202E+03 -2.84199E+03  5.86307E+03 -4.25288E+02  3.96599E+03  3.05284E+03  9.61481E+02  5.29749E+03
 -1.74985E+03  5.12902E+03 -2.21362E+03  1.37041E+03 -1.28539E+03 -1.04716E+03 -2.06376E+02 -7.87928E+02
 -4.24580E+02  5.47348E+02 -5.89614E+02  2.12050E+03 -2.09651E+03  6.67861E+02 -3.62393E+03 -3.52982E+02
 -9.74400E+02 -3.64170E+03  1.04651E+03 -3.60702E+03  2.19167E+03 -3.44615E+03  2.47145E+03 -1.19320E+03
  3.09499E+03  1.95528E+03  1.13795E+03  2.60320E+03 -3.14845E+02  3.47555E+03 -2.24553E+03  2.11924E+03
 -2.88324E+03  6.01353E+02 -3.32674E+03 -1.66580E+03  2.28157E+02 -2.29741E+03  1.31525E+03 -2.55832E+03
  2.18564E+03 -1.43010E+03  1.41068E+03  3.90438E+02  2.51933E+02  1.54392E+03  2.41797E+02  2.05148E+02
  1.66546E+03  5.14569E+02  1.29552E+03  5.59429E+02  6.10873E+02  2.00627E+03  7.84109E+02  1.65413E+03
 -1.28708E+03  2.22620E+03 -2.01373E+03  3.22348E+03 -1.70937E+03  1.38902E+03 -3.34768E+03 -1.69773E+02
 -1.24683E+03 -2.91367E+03  4.75082E+02 -3.46909E+03  1.07881E+03 -1.34488E+03  2.28416E+03 -3.39023E+02
  1.47131E+03  1.48037E+03 -5.72736E+02  1.93415E+03 -8.54422E+02  9.52969E+02 -6.60635E+02 -4.98003E+02
 -4.21501E+02 -1.15045E+03  1.33889E+03 -1.54125E+03  6.52933E+02 -7.08412E+02  1.30521E+03  2.14202E+02
  3.30359E+02 -1.03402E+02  5.18456E+02 -6.34893E+02  1.06266E+02  1.23233E+03  1.16164E+03 -2.80876E+02
 -1.37832E+02 -3.88481E+02  1.19723E+03  4.55513E+02 -3.92104E+02  2.16781E+03 -3.49944E+02  2.02562E+03
 -1.55243E+03  7.34473E+02 -1.64798E+03  6.43948E+02 -1.80237E+03 -3.18387E+02  1.45793E+02 -9.03443E+02
  1.75384E+02 -7.74343E+02  4.12565E-01 -5.08748E+02  5.36729E+02  1.04227E+03 -8.32177E+02  7.49436E+02
 -1.81594E+03  1.27319E+03 -1.00274E+03 -1.01369E+03 -3.90556E+02 -1.32878E+03 -1.92116E+02 -1.64204E+03
 -1.87430E+02 -2.78441E+02  2.93475E+02  8.52569E+00  6.46854E+02 -8.94988E+02  4.84953E+02  6.93756E+02
 -3.55648E+02  2.30334E+02 -5.56774E+02 -7.18706E+02  3.78615E+02 -2.61343E+02  1.05533E+03 -8.57136E+02
  1.20956E+03 -1.29809E+02  2.61516E+03 -4.10449E+02  4.92237E+02  1.23525E+03 -4.94848E+02  1.25241E+03
 -1.05684E+03  9.61624E+00 -1.24621E+03 -8.28057E+00 -2.43290E+02 -1.30245E+03 -1.71741E+02 -5.08146E+02
  1.29719E+03 -6.46796E+02  6.61845E+02  6.64987E+02 -3.13469E+02  1.00698E+03  3.92895E+02  9.78847E+02
  4.49462E+01  1.46445E+03 -3.36259E+02  2.27782E+02 -5.23413E+01 -9.91214E+01 -4.66283E+02  3.72005E+02
 -6.05301E+02  9.35422E+02 -1.52055E+03  5.14488E+02 -1.19605E+03  1.51875E+02 -2.12388E+03 -7.73861E+02
 -6.55065E+02 -1.38402E+03  1.42586E+02 -1.54366E+03  4.09038E+02 -2.08894E+03  1.94318E+03 -1.14409E+03
  1.26402E+03 -4.66690E+02  1.16610E+03  1.20649E+03 -1.28875E+02  5.14532E+02 -4.74215E+02  7.19404E+02
 -8.47860E+02  6.69570E+02 -6.10146E+02 -4.16921E+02 -3.01452E+02  4.86071E+01 -3.76174E+02 -3.97260E+02
 -1.30858E+03  5.64973E+01 -9.55800E+02  1.88805E+02  6.48817E+02 -8.20837E+02 -6.34004E+02 -6.82147E+02
  8.48821E+02 -4.46807E+02 -3.80207E+01 -8.43045E+01  7.25662E+02  6.37501E+02 -8.35526E+02  9.84308E+02
 -7.12409E+02  1.59779E+03 -1.75930E+03  9.77075E+02 -9.42243E+02 -5.37684E+01 -8.41481E+02 -1.22599E+03
 -9.26723E+02 -9.56138E+02 -5.95555E+02 -9.50639E+02  4.32042E+02 -3.94229E+02  9.10104E+01 -2.00051E+02
  3.44668E+02 -5.65166E+02  5.80884E+01  3.57026E+02 -5.99878E+01 -4.63693E+02 -4.79789E+02 -5.63404E+02
 -7.29714E+00  4.21861E+02  4.28401E+02  6.08828E+02 -3.61502E+02  4.93251E+00  1.03430E+03  5.21633E+02
 -4.86261E+02  8.48328E+02 -1.82571E+02  2.78041E+02 -7.19656E+02  1.25297E+02  1.52378E+02 -1.32415E+03
  1.86915E+02 -5.73322E+02  3.03515E+02  3.49386E+01  1.01142E+03 -1.02434E+03  8.19681E+01  1.69169E+02
  1.82550E+02  3.75048E+02  6.59374E+01  1.04443E+03 -1.02957E+02  1.09925E+03 -4.38611E+02 -8.44553E+01
  2.66490E+02 -2.09045E+01 -6.23243E+02  4.38292E+02 -1.25983E+02 -2.19538E+00 -3.86069E+02  3.87917E+00
 -3.24708E+02 -1.06312E+02 -7.29748E+02 -9.66068E+02  2.99530E+02 -1.49193E+03  5.82703E+02  3.82043E+02
  6.34368E+01  1.34595E+02 -2.61479E+02  1.50215E+02  6.78459E+01  4.07819E+02 -7.69386E+01  4.60224E+02
