 $NMID ID='MM_0lb_SNR400_14hz_g45_100.RAW', FMTDAT='(8E13.5)'
 TRAMP=1., VOLUME=1. $END
  3.10320E+05 -1.51301E+02  3.37570E+05  2.50373E+05  8.46130E+04  3.37833E+05 -1.32980E+05  2.51024E+05
 -1.90086E+05  8.34333E+04 -1.11293E+05 -3.27781E+04  1.00055E+03 -5.06030E+04  5.42245E+04 -3.91092E+01
  3.48722E+04  5.31359E+04 -1.68234E+04  7.50918E+04 -6.09091E+04  6.35656E+04 -8.40675E+04  3.18977E+04
 -8.08100E+04 -1.12145E+04 -5.73384E+04 -5.08212E+04 -1.57162E+04 -6.92971E+04  2.76424E+04 -4.54382E+04
  4.01028E+04  3.55035E+03  1.60141E+04  4.78104E+04 -3.41236E+04  4.71991E+04 -6.69654E+04 -4.42001E+02
 -5.32889E+04 -5.64650E+04 -6.73325E+03 -7.64147E+04  3.33976E+04 -5.48926E+04  4.78939E+04 -1.72543E+04
  4.35509E+04  1.17115E+04  3.16431E+04  2.57200E+04  1.63515E+04  2.93265E+04 -5.39706E+03  2.68939E+04
 -2.12829E+04  1.21458E+04 -1.86657E+04 -4.83392E+03  5.46736E+03 -7.38855E+03  2.25014E+04  1.18154E+04
  7.75186E+03  3.48291E+04 -3.20980E+04  3.51898E+04 -6.33666E+04  2.41969E+03 -5.68168E+04 -4.29452E+04
 -1.24939E+04 -6.32454E+04  3.95879E+04 -4.44119E+04  5.78532E+04 -2.18211E+03  3.39925E+04  3.17988E+04
 -5.63420E+03  3.57144E+04 -2.99841E+04  1.54926E+04 -2.99847E+04 -4.64611E+03 -1.61451E+04 -1.14750E+04
 -8.46435E+03 -1.28930E+04 -7.81305E+02 -1.77531E+04  7.27702E+03 -2.32015E+04  1.56044E+04 -1.37421E+04
  1.17498E+04  5.01904E+03 -8.33944E+03  1.26879E+04 -2.11426E+04 -4.01220E+03 -7.90660E+03 -3.33046E+04
  2.28859E+04 -4.37134E+04  4.76366E+04 -1.95740E+04  4.50325E+04  1.87946E+04  1.55448E+04  4.35012E+04
 -1.54022E+04  3.33361E+04 -2.50706E+04  1.78013E+03 -1.00299E+04 -2.75459E+04  2.04905E+04 -3.36089E+04
  4.02469E+04 -8.70403E+03  3.52952E+04  2.35898E+04  1.78751E+04  4.58090E+04 -8.61889E+03  4.96806E+04
 -3.13682E+04  3.33974E+04 -4.11089E+04  8.93348E+03 -4.22496E+04 -1.61191E+04 -2.28495E+04 -3.78478E+04
  6.82161E+03 -3.69882E+04  3.14563E+04 -1.47760E+04  2.91025E+04  1.06263E+04  4.12882E+03  1.89269E+04
 -1.35266E+04  8.17509E+03 -1.06935E+04 -7.82996E+03  5.54250E+03 -1.04443E+04  1.74315E+04  6.05740E+03
  1.34241E+04  2.15653E+04 -6.02298E+03  2.47067E+04 -2.28307E+04  1.06884E+04 -2.80079E+04 -4.58544E+03
 -2.04297E+04 -1.73970E+04 -7.89162E+03 -2.06876E+04  3.45645E+03 -1.82923E+04  1.51094E+04 -1.81115E+04
  2.59113E+04 -1.26007E+04  3.21125E+04  2.86226E+03  2.37998E+04  1.97984E+04  4.31433E+03  3.54833E+04
 -1.72454E+04  2.99925E+04 -2.79005E+04  1.01960E+04 -2.05264E+04 -1.00617E+04 -3.65172E+03 -1.35644E+04
  2.56108E+03 -3.30116E+03 -4.27551E+03  6.50956E+03 -1.60142E+04  4.56365E+03 -1.63087E+04 -6.19786E+03
 -9.89080E+03 -1.82720E+04  4.99772E+03 -2.26006E+04  1.49964E+04 -1.63090E+04  1.77859E+04 -1.95818E+03
  1.07457E+04  1.28582E+04 -1.51159E+03  1.89449E+04 -1.29383E+04  1.12064E+04 -1.86530E+04 -3.81941E+03
 -1.35066E+04 -1.71918E+04 -1.84761E+03 -2.24926E+04  1.08136E+04 -1.86826E+04  1.87685E+04 -9.00969E+03
  1.76856E+04  5.36814E+02  1.25588E+04  4.26306E+03  5.87714E+03  1.06883E+03  8.72344E+03 -2.26881E+03
  1.70553E+04  3.10274E+03  1.87632E+04  1.54256E+04  1.24984E+04  2.96094E+04 -3.08300E+03  3.28424E+04
 -1.93646E+04  2.65460E+04 -3.16967E+04  1.35897E+04 -3.23063E+04 -2.06252E+03 -2.78576E+04 -1.84464E+04
 -1.17560E+04 -2.69922E+04  9.60320E+03 -2.47609E+04  2.09041E+04 -1.26757E+04  1.91323E+04  5.14468E+03
  6.86412E+03  1.43541E+04 -8.82957E+03  1.26874E+04 -1.59683E+04  2.71751E+03 -1.19275E+04 -9.82121E+03
 -2.36175E+02 -1.54197E+04  7.85002E+03 -1.15853E+04  9.68329E+03 -1.46458E+03  2.25253E+03  6.55135E+03
 -6.92197E+03  2.43244E+03 -5.81840E+03 -5.52875E+03 -1.04735E+02 -1.33222E+04  8.99480E+03 -1.37614E+04
  1.64320E+04 -7.09715E+03  1.75508E+04  3.32253E+03  1.46234E+04  1.27937E+04  7.51382E+03  1.98577E+04
 -2.98635E+03  2.15932E+04 -1.38860E+04  1.37494E+04 -1.55215E+04  2.73033E+03 -1.11244E+04 -3.18183E+03
 -4.72957E+03 -4.51843E+03 -8.06289E+02  7.18286E+02 -2.40684E+03  2.66350E+03 -4.90112E+03  4.48261E+03
 -1.06732E+04 -5.86509E+02 -1.08295E+04 -8.64515E+03 -4.66487E+03 -1.46555E+04  4.11388E+03 -1.17422E+04
  9.26247E+03 -4.35822E+03  7.27589E+03  2.50727E+03  2.53269E+02  4.32240E+03 -5.25240E+03 -4.89891E+02
 -4.81114E+03 -6.57563E+03 -1.37568E+03 -1.00157E+04  5.73491E+03 -1.14475E+04  1.40157E+04 -5.13000E+03
  1.61608E+04  1.42236E+03  1.18773E+04  8.51021E+03  1.85271E+03  1.30219E+04 -7.25347E+03  1.03584E+04
 -9.21023E+03  3.47207E+03 -4.54266E+03 -1.59339E+03  1.43640E+03 -2.41273E+03  6.11986E+03 -1.09366E+03
  5.94429E+03  4.67379E+03  6.04439E+02  8.64997E+03 -6.13762E+03  8.46940E+03 -1.06120E+04  1.81323E+03
 -7.00105E+03 -5.25525E+03  3.67981E+02 -8.75473E+03  5.34993E+03 -4.50724E+03  5.19699E+03  1.72773E+03
  7.51078E+02  5.72157E+03 -5.72028E+03  7.39267E+03 -7.90168E+03  3.34104E+03 -7.54722E+03 -2.59735E+03
 -4.90745E+03 -1.02350E+04  2.23328E+03 -1.11153E+04  9.06165E+03 -7.04860E+03  1.03824E+04  1.68198E+03
  6.57169E+03  8.30641E+03 -2.56383E+02  1.03469E+04 -7.66337E+03  5.85286E+03 -7.46885E+03 -8.44092E+02
 -8.21850E+03 -6.99410E+03 -1.13994E+03 -7.38106E+03  4.53938E+03 -6.39097E+03  4.30324E+03 -3.07078E+03
  3.74806E+03  8.64638E+02 -2.43723E+02  1.73428E+03  3.83928E+02 -1.41918E+03  9.99085E+02 -3.36510E+03
  6.83534E+03 -2.11454E+03  9.35739E+03  5.04127E+02  9.51009E+03  5.82515E+03  6.39765E+03  1.17441E+04
 -2.76337E+03  1.39477E+04 -1.14904E+04  1.04124E+04 -1.46836E+04  1.81835E+03 -1.25550E+04 -4.34486E+03
 -7.18968E+03 -9.94629E+03 -2.82291E+02 -8.34832E+03  3.21991E+03 -3.53668E+03  2.36797E+03 -2.81760E+03
  1.56040E+03 -1.86996E+03  2.33644E+03 -2.67251E+03  3.98626E+03 -2.15898E+03  5.23744E+03  2.91438E+02
  6.54060E+03  1.70045E+03  2.90690E+03  5.91475E+03 -1.49503E+03  6.10689E+03 -6.13878E+03  4.68141E+03
 -8.56641E+03 -1.20623E+03 -4.26152E+03 -5.75825E+03 -5.11778E+02 -8.27511E+03  5.66236E+03 -9.02184E+03
  8.48215E+03 -4.92916E+03  1.09005E+04  1.57705E+03  7.29355E+03  7.08793E+03  1.15438E+03  9.86111E+03
 -4.26488E+03  8.82033E+03 -5.91429E+03  2.76482E+03 -3.30171E+03 -1.74049E+03 -1.10129E+03 -1.87095E+03
 -1.30689E+03  7.65266E+01 -1.52438E+03  2.46796E+03 -3.31372E+03  1.96383E+03 -6.89194E+03 -9.82892E+02
 -3.15915E+03 -6.18431E+03  1.38018E+02 -8.32059E+03  4.31239E+03 -7.65564E+03  7.27743E+03 -2.22343E+03
  6.77963E+03  3.93730E+03  3.29421E+03  7.12650E+03 -1.67635E+03  7.83559E+03 -5.68290E+03  4.93851E+03
 -7.40690E+03  6.08202E+02 -6.21016E+03 -4.40817E+03  5.18120E+01 -6.57482E+03  2.72219E+03 -4.88811E+03
  3.82945E+03 -2.32767E+03  3.79656E+03  1.38986E+03  6.96848E+02  2.54863E+03  7.64455E+02  1.34708E+03
  2.25175E+03  7.28820E+02  2.08550E+03  1.26576E+03  2.40825E+03  3.28910E+03  1.79803E+03  4.26897E+03
 -1.85655E+03  5.41404E+03 -5.00032E+03  6.48854E+03 -7.22092E+03  2.09361E+03 -7.72701E+03 -2.57762E+03
 -3.94818E+03 -7.92617E+03  1.06748E+03 -8.53431E+03  4.46784E+03 -5.48369E+03  6.12125E+03 -1.12692E+03
  4.26001E+03  2.78801E+03  7.10698E+02  3.45715E+03 -2.00964E+03  2.35239E+03 -2.33731E+03 -9.85004E+02
 -1.33252E+03 -3.04318E+03  1.56250E+03 -2.70649E+03  2.96667E+03 -1.60127E+03  3.24404E+03  6.46613E+02
  1.47431E+03  9.65091E+02  8.18315E+02  4.97660E+02 -1.06844E+03  1.32452E+03  9.61827E+02  6.18797E+01
  5.75812E+02 -1.12579E+03  3.01116E+03  8.36982E+02  1.46178E+03  4.40807E+03 -4.93072E+02  4.92451E+03
 -3.67837E+03  2.50430E+03 -4.14126E+03  9.00984E+02 -4.00325E+03 -1.60178E+03 -1.51320E+03 -2.31901E+03
  7.91405E+02 -2.34289E+03  1.66451E+03 -1.65826E+03  1.19043E+03  1.60008E+03 -4.98248E+02  2.69094E+03
 -3.21862E+03  1.02866E+03 -3.34212E+03 -1.95950E+03 -1.80790E+03 -4.21462E+03 -3.09135E+02 -3.15060E+03
  2.48781E+03 -1.39758E+03  2.30351E+03 -7.09416E+02  2.38401E+03  6.00485E+02  2.47173E+02  2.64477E+03
 -8.41003E+02  2.97101E+02 -1.74377E+03 -9.09153E+02  7.96429E+02 -2.41847E+03  3.73430E+03 -2.82508E+03
  3.93687E+03  5.83226E-01  4.17490E+03  2.46631E+03  1.34968E+03  3.89307E+03 -1.17554E+03  4.22347E+03
 -3.44221E+03  1.81297E+03 -3.82512E+03 -4.34972E+02 -1.79518E+03 -2.75242E+03  7.42558E+02 -2.10263E+03
  3.10848E+03 -1.65626E+03  1.81675E+03  1.50243E+03  5.57414E+02  2.15538E+03 -2.24460E+02  2.32768E+03
 -9.74165E+02  1.41520E+03 -6.78002E+02  5.94967E+02 -7.76381E+02  3.72093E+02 -6.10128E+02  9.83072E+02
 -1.31701E+03  1.53802E+03 -3.38709E+03  1.23879E+03 -4.40702E+03  3.35458E+02 -4.93990E+03 -2.68373E+03
 -1.97798E+03 -5.27071E+03  9.27254E+02 -6.57387E+03  3.26667E+03 -5.25129E+03  5.96432E+03 -1.75537E+03
  5.79730E+03  3.28690E+02  2.97503E+03  3.45447E+03 -4.70309E+02  3.44532E+03 -1.30287E+03  3.55526E+03
 -2.20846E+03  2.06580E+03 -1.55860E+03 -3.01216E+02 -5.79932E+02  7.11850E+01 -6.21175E+02 -2.52425E+02
 -1.15807E+03  3.50460E+02 -1.10790E+03 -4.64412E+02  4.77965E+02 -2.28166E+03 -5.93519E+02 -2.02267E+03
  1.41748E+03 -4.91376E+02  1.82735E+03 -9.16127E+01  2.45880E+03  2.62988E+03  6.25066E+02  3.52858E+03
 -1.78886E+03  5.04899E+03 -4.52352E+03  3.00625E+03 -4.42008E+03 -3.17808E+02 -3.24652E+03 -3.19592E+03
 -1.48169E+03 -3.36821E+03  1.03242E+03 -3.56835E+03  2.52218E+03 -1.87289E+03  1.90987E+03  5.97751E+02
  1.87761E+03  1.37161E+03  1.58246E+02  1.44183E+03  1.21042E+01  1.08781E+02 -3.08126E+02  3.89960E+01
  1.10559E+03  2.30282E+02  1.36402E+03  3.65361E+02  5.22040E+02  1.58023E+03 -3.19480E+01  2.10662E+03
 -1.48602E+03  1.70284E+03 -2.75471E+03  6.22517E+02 -1.78916E+03 -1.50017E+03 -1.25084E+02 -3.46078E+03
  1.83562E+03 -2.52824E+03  2.44663E+03 -6.68502E+02  3.02020E+03  4.91634E+02  1.72158E+03  3.02264E+03
  9.58176E+02  2.56272E+03 -1.21489E+03  1.77354E+03 -1.76948E+03  8.59693E+02 -1.82663E+03  2.84960E+02
 -8.62808E+01 -2.48370E+02 -1.53966E+03  2.23317E+02 -1.79163E+03  3.24550E+02 -2.04412E+03 -2.49949E+02
 -2.53562E+03 -6.51940E+02 -6.70948E+02 -2.35567E+03  1.71106E+03 -2.42522E+03  2.26765E+03 -8.45459E+02
  2.06719E+03  7.08576E+02  7.17861E+02  1.68365E+03 -5.84044E+02  2.84065E+03 -1.92835E+03  1.85920E+03
