 $NMID ID='MM_0lb_SNR400_8hz_g55_65.RAW', FMTDAT='(8E13.5)'
 TRAMP=1., VOLUME=1. $END
  3.10022E+05 -3.10423E+02  3.37831E+05  2.50422E+05  8.55389E+04  3.38472E+05 -1.32779E+05  2.51983E+05
 -1.90877E+05  8.40106E+04 -1.11640E+05 -3.19815E+04 -6.36235E+02 -5.12251E+04  5.37420E+04 -5.21289E+02
  3.60252E+04  5.35136E+04 -1.56197E+04  7.61809E+04 -6.19240E+04  6.41386E+04 -8.50916E+04  3.27333E+04
 -8.26884E+04 -1.13979E+04 -5.86469E+04 -5.26774E+04 -1.45107E+04 -7.12297E+04  2.83652E+04 -4.73304E+04
  4.11159E+04  3.77584E+03  1.65626E+04  4.91939E+04 -3.47980E+04  4.84364E+04 -6.89640E+04  6.43106E+02
 -5.56246E+04 -5.83679E+04 -7.58518E+03 -7.99352E+04  3.47402E+04 -5.82056E+04  5.01045E+04 -1.83442E+04
  4.58141E+04  1.13851E+04  3.32314E+04  2.67682E+04  1.60146E+04  3.08104E+04 -5.96101E+03  2.79530E+04
 -2.17658E+04  1.16766E+04 -1.85829E+04 -5.10836E+03  7.84769E+03 -7.84689E+03  2.34497E+04  1.36509E+04
  7.58118E+03  3.73699E+04 -3.47101E+04  3.77235E+04 -6.71600E+04  3.09632E+03 -5.86952E+04 -4.50849E+04
 -1.28629E+04 -6.64999E+04  4.22940E+04 -4.75125E+04  6.21992E+04 -3.17860E+03  3.70223E+04  3.36273E+04
 -5.80006E+03  4.06604E+04 -3.27050E+04  2.00603E+04 -3.42675E+04 -3.65018E+03 -1.95721E+04 -1.20240E+04
 -9.58817E+03 -1.61682E+04 -2.58997E+02 -1.98933E+04  8.49228E+03 -2.29488E+04  1.56152E+04 -1.26001E+04
  1.01025E+04  5.91913E+03 -1.10875E+04  1.27746E+04 -2.39407E+04 -7.77526E+03 -8.75243E+03 -3.90946E+04
  2.54983E+04 -4.72685E+04  5.29319E+04 -2.06644E+04  4.96307E+04  2.11122E+04  1.72256E+04  4.69410E+04
 -1.72828E+04  3.69650E+04 -2.85976E+04  2.79173E+03 -1.21851E+04 -2.99732E+04  2.22424E+04 -3.71447E+04
  4.53312E+04 -1.16567E+04  4.19439E+04  2.56260E+04  2.19844E+04  5.19158E+04 -7.64016E+03  5.79720E+04
 -3.66627E+04  4.02199E+04 -4.89209E+04  1.25744E+04 -4.94352E+04 -1.84030E+04 -2.69164E+04 -4.41632E+04
  7.84468E+03 -4.29921E+04  3.56572E+04 -1.77324E+04  3.35313E+04  1.15553E+04  5.65118E+03  2.13910E+04
 -1.46808E+04  1.05641E+04 -1.11528E+04 -7.45394E+03  6.24702E+03 -1.07305E+04  1.96378E+04  5.26938E+03
  1.44878E+04  2.32222E+04 -5.12285E+03  2.72274E+04 -2.40835E+04  1.55833E+04 -3.20659E+04 -2.72569E+03
 -2.73340E+04 -1.85640E+04 -1.16316E+04 -2.66683E+04  5.28321E+03 -2.73643E+04  2.13476E+04 -2.47510E+04
  3.34728E+04 -1.44882E+04  3.98218E+04  4.70253E+03  2.72051E+04  2.62054E+04  4.09595E+03  4.24661E+04
 -2.12020E+04  3.47952E+04 -3.11173E+04  1.23702E+04 -2.19681E+04 -1.02577E+04 -4.41490E+03 -1.15707E+04
  1.25840E+02 -1.57433E+02 -8.73765E+03  8.84108E+03 -2.21628E+04  4.78584E+03 -2.08027E+04 -1.01157E+04
 -1.22187E+04 -2.48700E+04  7.65993E+03 -2.94109E+04  1.96737E+04 -2.06635E+04  2.42975E+04 -1.49021E+03
  1.63123E+04  1.75557E+04 -2.05494E+03  2.49274E+04 -1.67097E+04  1.37812E+04 -2.51703E+04 -5.43597E+03
 -1.82304E+04 -2.09332E+04 -2.19045E+03 -2.97626E+04  1.36440E+04 -2.45554E+04  2.42343E+04 -1.25937E+04
  2.33883E+04 -1.28336E+02  1.65170E+04  4.90685E+03  8.85076E+03  5.72612E+02  1.27562E+04 -2.00764E+03
  2.30145E+04  2.92107E+03  2.75369E+04  1.91974E+04  1.85001E+04  4.05468E+04 -1.61540E+03  4.67286E+04
 -2.73080E+04  3.99030E+04 -4.55524E+04  2.03853E+04 -4.90948E+04 -4.11944E+03 -3.84828E+04 -2.80461E+04
 -1.48116E+04 -4.01469E+04  1.30397E+04 -3.51398E+04  3.08364E+04 -1.63773E+04  2.63846E+04  9.08008E+03
  8.84167E+03  2.02676E+04 -1.25357E+04  1.68869E+04 -2.20884E+04  2.68542E+03 -1.72035E+04 -1.40053E+04
 -5.21516E+02 -1.99367E+04  1.11036E+04 -1.46190E+04  1.38974E+04 -1.64061E+03  4.33859E+03  9.28262E+03
 -8.53416E+03  4.56415E+03 -1.07695E+04 -7.04188E+03 -1.46076E+03 -1.96805E+04  1.23070E+04 -2.19785E+04
  2.54645E+04 -1.19220E+04  2.89635E+04  3.86993E+03  2.47883E+04  1.98585E+04  1.16531E+04  3.15039E+04
 -5.48318E+03  3.35821E+04 -2.23382E+04  2.12586E+04 -2.50839E+04  4.71714E+03 -1.64362E+04 -7.16752E+03
 -7.12753E+03 -7.84758E+03 -5.24938E+02  4.92793E+02 -2.85616E+03  4.43945E+03 -7.69947E+03  6.59248E+03
 -1.57267E+04 -1.47775E+03 -1.60727E+04 -1.22339E+04 -5.88422E+03 -2.05473E+04  7.01329E+03 -1.75904E+04
  1.41764E+04 -5.96477E+03  9.69683E+03  5.40139E+03 -2.51986E+02  6.32191E+03 -9.08285E+03  9.51024E+01
 -8.50027E+03 -1.10520E+04 -2.13316E+03 -1.68216E+04  9.63625E+03 -1.73076E+04  2.19037E+04 -1.02783E+04
  2.60190E+04  2.92564E+03  1.86235E+04  1.64938E+04  4.34364E+03  2.16724E+04 -1.03078E+04  1.71337E+04
 -1.38312E+04  4.62675E+03 -7.01978E+03 -3.87732E+03  2.45138E+03 -5.01884E+03  9.11906E+03 -1.20935E+03
  8.60747E+03  7.52406E+03  1.82623E+03  1.44204E+04 -1.05138E+04  1.36854E+04 -1.79470E+04  2.51643E+03
 -1.21566E+04 -9.24921E+03 -5.35332E+02 -1.52152E+04  1.01731E+04 -7.86562E+03  1.02873E+04  2.84506E+03
  2.50412E+03  1.12363E+04 -8.28170E+03  1.25128E+04 -1.53355E+04  5.91730E+03 -1.53737E+04 -5.60888E+03
 -9.64761E+03 -1.77159E+04  4.79567E+03 -2.02713E+04  1.72412E+04 -1.18488E+04  1.89401E+04  3.24657E+03
  1.09560E+04  1.45927E+04 -2.09157E+03  1.69957E+04 -1.29249E+04  9.37852E+03 -1.44567E+04 -9.77907E+02
 -1.19217E+04 -1.10725E+04 -1.15560E+03 -1.31097E+04  6.90363E+03 -1.08327E+04  9.12888E+03 -3.69719E+03
  5.36632E+03  2.63309E+03 -2.26691E+03  2.18892E+03 -5.09466E+02 -4.26200E+03  3.19666E+03 -8.21184E+03
  1.34622E+04 -5.57801E+03  1.86070E+04  1.90449E+03  1.67793E+04  1.38057E+04  1.07793E+04  2.31863E+04
 -6.24038E+03  2.76940E+04 -2.22240E+04  1.94660E+04 -2.97667E+04  3.64293E+03 -2.29562E+04 -1.01783E+04
 -1.14228E+04 -1.93939E+04 -9.22056E+01 -1.70101E+04  7.00545E+03 -9.71935E+03  5.41534E+03 -5.08207E+03
  4.15899E+03 -3.74386E+03  3.84858E+03 -5.13244E+03  6.01044E+03 -3.42997E+03  9.98439E+03 -1.81478E+03
  1.21609E+04  2.19638E+03  7.67511E+03  1.05708E+04 -2.90084E+03  1.24904E+04 -1.25668E+04  1.01036E+04
 -1.69912E+04 -1.66663E+03 -1.09796E+04 -1.21594E+04 -5.58858E+02 -1.85061E+04  1.01127E+04 -1.81892E+04
  1.99572E+04 -1.01923E+04  2.23073E+04  3.67763E+03  1.64265E+04  1.60423E+04  1.50792E+03  2.14686E+04
 -8.45755E+03  1.69852E+04 -1.23015E+04  4.93490E+03 -8.33661E+03 -2.14268E+03 -2.94913E+03 -2.36243E+03
 -1.92474E+03 -5.83218E+02 -3.03832E+03  3.15570E+03 -7.70483E+03  3.68360E+03 -1.15377E+04 -2.17238E+03
 -8.25194E+03 -1.22769E+04  8.24655E+00 -1.68445E+04  1.10448E+04 -1.65279E+04  1.78556E+04 -5.61937E+03
  1.77021E+04  7.06387E+03  9.11562E+03  1.60092E+04 -2.57168E+03  1.73662E+04 -1.23360E+04  1.11334E+04
 -1.66494E+04  5.08669E+02 -1.26884E+04 -9.99171E+03 -1.10443E+03 -1.43362E+04  7.55723E+03 -1.04374E+04
  1.08842E+04 -4.01151E+03  8.68239E+03  3.25096E+03  3.20800E+03  5.41229E+03  1.68309E+03  2.39984E+03
  4.05977E+03  7.06039E+02  4.88533E+03  1.40802E+03  5.54901E+03  5.08442E+03  4.13507E+03  8.91309E+03
 -3.14623E+03  1.37477E+04 -1.13187E+04  1.45097E+04 -1.81382E+04  2.58398E+03 -1.80051E+04 -7.45417E+03
 -8.57548E+03 -1.87175E+04  2.93887E+03 -1.90659E+04  1.18591E+04 -1.13461E+04  1.37786E+04 -3.38523E+03
  1.07893E+04  6.64079E+03  2.56478E+03  1.01841E+04 -5.64621E+03  6.72150E+03 -6.81044E+03 -9.90265E+02
 -3.55121E+03 -7.83998E+03  4.32867E+03 -8.03610E+03  7.11326E+03 -3.41031E+03  7.02607E+03  5.80683E+02
  4.50414E+03  3.81415E+03  1.75068E+03  3.83274E+03 -1.03998E+03  3.04202E+03  1.63547E+03 -6.44397E+02
  2.82593E+03 -2.15400E+02  6.54441E+03  2.21292E+03  4.83746E+03  9.16636E+03 -1.48095E+03  1.28260E+04
 -9.63933E+03  9.35315E+03 -1.17968E+04  3.08046E+03 -1.03676E+04 -2.22249E+03 -4.34864E+03 -6.36045E+03
  8.47973E+02 -7.55745E+03  4.55320E+03 -3.08496E+03  3.48756E+03  3.67272E+03 -1.21819E+03  5.55190E+03
 -7.36097E+03  3.56618E+03 -8.46304E+03 -2.92306E+03 -5.02071E+03 -9.91388E+03  1.97999E+03 -1.03192E+04
  5.71003E+03 -7.03920E+03  7.38422E+03 -1.24652E+03  7.20446E+03  2.88130E+03  1.73915E+02  5.10624E+03
 -3.52462E+03  2.09875E+03 -4.35230E+03 -3.38800E+03  8.93747E+02 -7.84308E+03  8.51709E+03 -6.43296E+03
  1.14983E+04  4.52391E+02  1.10659E+04  7.98997E+03  3.03400E+03  1.20193E+04 -5.08283E+03  1.21969E+04
 -1.00283E+04  5.60770E+03 -1.06491E+04 -1.88134E+03 -5.97237E+03 -8.35135E+03  2.22882E+03 -6.94818E+03
  7.17104E+03 -3.63153E+03  7.03613E+03  3.07135E+03  2.36730E+03  6.06760E+03 -6.51912E+02  6.57084E+03
 -3.13066E+03  3.97927E+03 -3.20877E+03  1.84700E+03 -1.26747E+03  1.21832E+03 -2.12851E+03  1.90874E+03
 -2.57344E+03  4.11054E+03 -7.98250E+03  3.95742E+03 -1.19046E+04 -4.89153E+02 -1.37316E+04 -8.04369E+03
 -6.79636E+03 -1.61175E+04  3.18402E+03 -1.85028E+04  1.20394E+04 -1.37066E+04  1.76312E+04 -5.08860E+03
  1.66178E+04  3.29622E+03  9.98129E+03  1.13002E+04  1.04965E+03  1.34058E+04 -5.56841E+03  9.79566E+03
 -7.62275E+03  2.91484E+03 -4.83932E+03 -6.03609E+02 -1.36654E+03 -1.07456E+03  1.72135E+02  6.33426E+02
 -2.75570E+03  9.31710E+02 -2.70392E+03 -6.55818E+02 -3.21490E+02 -3.05963E+03  6.89619E+02 -5.19549E+03
  5.90907E+03 -4.29221E+03  7.77291E+03 -6.44248E+01  9.34230E+03  7.01056E+03  2.71189E+03  1.28414E+04
 -6.01841E+03  1.44439E+04 -1.44997E+04  8.85987E+03 -1.59297E+04 -2.04329E+03 -1.09384E+04 -9.73407E+03
 -4.72872E+03 -1.35984E+04  3.00199E+03 -1.25339E+04  9.26260E+03 -7.68045E+03  9.55783E+03 -1.76897E+02
  4.45726E+03  4.74588E+03 -5.66307E+02  4.13516E+03 -3.18457E+03  3.77392E+02  3.13357E+02 -3.54575E+03
  4.40561E+03 -2.34566E+03  5.60441E+03  9.72488E+02  2.89825E+03  4.91960E+03 -1.16259E+02  5.94005E+03
 -5.31760E+03  5.48873E+03 -8.70272E+03  6.64372E+02 -7.29194E+03 -5.50937E+03 -5.94327E+02 -1.01399E+04
  6.74688E+03 -9.44325E+03  1.02108E+04 -2.49618E+03  1.01986E+04  2.81110E+03  6.60420E+03  8.19793E+03
  5.74008E+02  9.15912E+03 -3.74972E+03  7.78603E+03 -5.56080E+03  4.04987E+03 -4.77480E+03  6.17538E+02
 -2.24641E+03 -7.64942E+02 -2.68412E+03  1.48108E+03 -4.30448E+03  8.92143E+02 -7.05985E+03 -1.77186E+03
 -6.86417E+03 -4.96452E+03 -1.46620E+03 -8.60427E+03  4.11781E+03 -9.64170E+03  7.41467E+03 -4.03278E+03
  8.70142E+03  9.04960E+02  5.12670E+03  6.17662E+03 -5.83974E+02  9.27961E+03 -7.09744E+03  5.56394E+03
