 $NMID ID='MM_0lb_SNR400_7hz_g60_64.RAW', FMTDAT='(8E13.5)'
 TRAMP=1., VOLUME=1. $END
  3.10394E+05  7.29967E+02  3.38230E+05  2.50573E+05  8.49924E+04  3.38783E+05 -1.33188E+05  2.52115E+05
 -1.91055E+05  8.38022E+04 -1.12521E+05 -3.27830E+04 -9.76727E+02 -5.13582E+04  5.36788E+04 -7.83361E+02
  3.56711E+04  5.33355E+04 -1.58848E+04  7.62018E+04 -6.20206E+04  6.52004E+04 -8.54766E+04  3.21937E+04
 -8.27684E+04 -1.16367E+04 -5.73482E+04 -5.42153E+04 -1.59655E+04 -7.24764E+04  2.86934E+04 -4.77931E+04
  4.18838E+04  3.45068E+03  1.80980E+04  4.93381E+04 -3.49283E+04  4.91786E+04 -6.83409E+04 -1.37901E+01
 -5.61682E+04 -5.92437E+04 -7.24216E+03 -7.93252E+04  3.58752E+04 -5.83941E+04  5.06160E+04 -1.87592E+04
  4.57722E+04  1.11782E+04  3.38461E+04  2.69157E+04  1.60125E+04  3.10907E+04 -7.34091E+03  2.84501E+04
 -2.27566E+04  1.14601E+04 -1.74668E+04 -6.97180E+03  7.92765E+03 -8.07843E+03  2.45610E+04  1.43684E+04
  5.64342E+03  3.82931E+04 -3.51253E+04  3.79007E+04 -6.74890E+04  1.29213E+03 -5.97481E+04 -4.61720E+04
 -1.30543E+04 -6.74945E+04  4.24117E+04 -4.78685E+04  6.23250E+04 -2.87272E+03  3.77682E+04  3.55515E+04
 -5.34746E+03  4.06336E+04 -3.22726E+04  2.07557E+04 -3.48102E+04 -2.47507E+03 -2.05366E+04 -1.19443E+04
 -1.02647E+04 -1.65651E+04 -4.92624E+02 -2.10743E+04  9.45819E+03 -2.31428E+04  1.67602E+04 -1.16178E+04
  9.21618E+03  6.88184E+03 -1.29946E+04  1.27059E+04 -2.44850E+04 -7.15254E+03 -8.87661E+03 -3.94778E+04
  2.61928E+04 -4.93163E+04  5.47667E+04 -2.19367E+04  5.05055E+04  2.10087E+04  1.70106E+04  4.93827E+04
 -1.63723E+04  3.71924E+04 -2.92492E+04  3.95153E+03 -1.29947E+04 -3.04888E+04  2.20169E+04 -3.88795E+04
  4.72526E+04 -1.19490E+04  4.26556E+04  2.41753E+04  2.32973E+04  5.36518E+04 -9.20716E+03  6.01418E+04
 -3.80909E+04  4.13974E+04 -5.07380E+04  1.21594E+04 -5.03250E+04 -1.96657E+04 -2.64336E+04 -4.51743E+04
  8.16303E+03 -4.52500E+04  3.53536E+04 -1.89036E+04  3.35592E+04  1.17487E+04  5.28861E+03  2.28967E+04
 -1.51135E+04  1.06548E+04 -1.23324E+04 -7.55159E+03  5.42284E+03 -1.11674E+04  1.98931E+04  4.92933E+03
  1.58765E+04  2.23885E+04 -4.90077E+03  2.81275E+04 -2.46824E+04  1.69725E+04 -3.47754E+04 -2.08987E+03
 -2.81396E+04 -1.95212E+04 -1.30764E+04 -2.85556E+04  5.24587E+03 -2.94682E+04  2.27510E+04 -2.61834E+04
  3.54284E+04 -1.55263E+04  4.14947E+04  5.37753E+03  2.91364E+04  2.62050E+04  4.49169E+03  4.44788E+04
 -2.03279E+04  3.64066E+04 -3.24225E+04  1.24791E+04 -2.34877E+04 -9.66195E+03 -5.66427E+03 -1.31342E+04
  2.75101E+02 -3.97674E+01 -9.77818E+03  9.77342E+03 -2.27123E+04  5.65353E+03 -2.30387E+04 -1.21341E+04
 -1.34857E+04 -2.66244E+04  5.71538E+03 -2.96139E+04  2.14911E+04 -2.15213E+04  2.52755E+04 -1.05392E+03
  1.75436E+04  1.71148E+04 -1.44848E+03  2.63854E+04 -1.82910E+04  1.51778E+04 -2.67217E+04 -5.11746E+03
 -1.98638E+04 -2.40121E+04 -1.58339E+03 -3.07633E+04  1.44475E+04 -2.65452E+04  2.56937E+04 -1.32239E+04
  2.45223E+04 -9.53582E+02  1.82511E+04  5.89981E+03  1.07064E+04  7.53154E+02  1.34048E+04 -2.22966E+03
  2.47036E+04  3.28034E+03  2.87176E+04  2.11219E+04  2.04516E+04  4.26125E+04 -2.91782E+03  5.04970E+04
 -2.81952E+04  4.23335E+04 -4.87696E+04  2.30568E+04 -5.18377E+04 -3.98953E+03 -4.11737E+04 -3.02446E+04
 -1.54464E+04 -4.29900E+04  1.49907E+04 -3.77617E+04  3.25431E+04 -1.62616E+04  2.65372E+04  9.09598E+03
  8.83678E+03  2.23147E+04 -1.38624E+04  1.70631E+04 -2.25149E+04  2.34011E+03 -1.70168E+04 -1.48243E+04
  3.14140E+02 -2.22024E+04  1.20675E+04 -1.61549E+04  1.55612E+04 -2.01327E+03  3.37742E+03  1.07477E+04
 -9.36759E+03  5.48143E+03 -1.12744E+04 -8.29040E+03 -3.68971E+03 -2.13653E+04  1.33381E+04 -2.38363E+04
  2.75307E+04 -1.35603E+04  3.14954E+04  2.86220E+03  2.68610E+04  2.26009E+04  1.20115E+04  3.47250E+04
 -6.33903E+03  3.66816E+04 -2.48165E+04  2.26720E+04 -2.69393E+04  4.59652E+03 -1.89085E+04 -6.54653E+03
 -7.52728E+03 -7.86927E+03 -7.44710E+02 -4.94261E+02 -2.86439E+03  3.86500E+03 -8.47953E+03  6.85180E+03
 -1.68795E+04 -1.40643E+03 -1.70171E+04 -1.36217E+04 -7.34792E+03 -2.23784E+04  7.28673E+03 -1.92328E+04
  1.58461E+04 -7.01117E+03  9.63664E+03  4.36762E+03 -1.12475E+03  7.39727E+03 -9.54153E+03 -8.28841E+02
 -8.81496E+03 -1.23003E+04 -1.61015E+03 -1.91293E+04  1.16666E+04 -1.99440E+04  2.35601E+04 -1.15061E+04
  2.88869E+04  3.14901E+03  2.05405E+04  1.69890E+04  4.09161E+03  2.43053E+04 -1.05323E+04  1.81912E+04
 -1.52998E+04  5.77424E+03 -8.41839E+03 -3.65366E+03  2.61526E+03 -5.78221E+03  8.74795E+03 -1.50331E+02
  9.28887E+03  8.10036E+03  9.00509E+02  1.63708E+04 -1.09059E+04  1.39003E+04 -1.88778E+04  3.82354E+03
 -1.31417E+04 -1.02745E+04  3.31889E+02 -1.58253E+04  1.06328E+04 -7.71868E+03  1.17945E+04  4.79390E+03
  3.03255E+03  1.30733E+04 -9.96786E+03  1.58712E+04 -1.74020E+04  5.92613E+03 -1.74824E+04 -6.62308E+03
 -1.03706E+04 -1.93587E+04  4.19531E+03 -2.26837E+04  1.95778E+04 -1.32499E+04  2.27480E+04  2.95061E+03
  1.24229E+04  1.66743E+04 -2.81285E+03  1.84460E+04 -1.52674E+04  1.09887E+04 -1.56151E+04 -2.33984E+03
 -1.27412E+04 -1.22113E+04 -2.10237E+03 -1.52866E+04  7.87272E+03 -1.11642E+04  9.20686E+03 -3.96963E+03
  5.55697E+03  2.30935E+03 -2.32784E+03  1.81603E+03 -1.04868E+03 -4.77447E+03  3.89612E+03 -1.02945E+04
  1.49759E+04 -6.68821E+03  2.13487E+04  2.58732E+03  2.01962E+04  1.50196E+04  1.26592E+04  2.77670E+04
 -7.01421E+03  3.09731E+04 -2.62359E+04  2.39660E+04 -3.24873E+04  4.86138E+03 -2.70194E+04 -1.22930E+04
 -1.26017E+04 -2.14834E+04  2.85825E+02 -1.81138E+04  7.24006E+03 -1.08991E+04  6.26315E+03 -7.23785E+03
  4.52321E+03 -3.77070E+03  5.25363E+03 -5.31414E+03  7.17306E+03 -5.36170E+03  1.01316E+04 -2.00777E+03
  1.37260E+04  3.11028E+03  7.47527E+03  1.22695E+04 -2.92495E+03  1.49094E+04 -1.52747E+04  1.04309E+04
 -1.95174E+04 -2.77099E+03 -1.32079E+04 -1.28001E+04 -1.62789E+03 -2.09756E+04  1.17325E+04 -2.07831E+04
  2.24253E+04 -1.10000E+04  2.63792E+04  4.06470E+03  1.72846E+04  1.86080E+04  1.59661E+03  2.26267E+04
 -9.72982E+03  1.81354E+04 -1.38593E+04  6.95572E+03 -9.45406E+03 -1.62714E+03 -3.75285E+03 -2.70681E+03
 -1.90962E+03 -1.02671E+03 -2.19244E+03  2.79299E+03 -7.60250E+03  2.78034E+03 -1.30280E+04 -1.80566E+03
 -1.00861E+04 -1.30082E+04 -3.25408E+02 -2.03592E+04  1.32728E+04 -1.85597E+04  1.88973E+04 -6.55871E+03
  1.95591E+04  9.04833E+03  8.38916E+03  1.85614E+04 -4.34011E+03  1.98867E+04 -1.49490E+04  1.23469E+04
 -1.89091E+04  3.57155E+02 -1.47901E+04 -1.18280E+04 -1.38767E+03 -1.64722E+04  8.67833E+03 -1.28535E+04
  1.21118E+04 -3.63882E+03  8.56366E+03  4.00093E+03  2.80326E+03  5.58753E+03  2.00345E+03  3.56928E+03
  2.07477E+03  1.61280E+03  4.32892E+03  1.50233E+03  5.48255E+03  7.82591E+03  5.81180E+03  1.07563E+04
 -3.69179E+03  1.71466E+04 -1.38114E+04  1.60110E+04 -2.13253E+04  3.62240E+03 -2.13992E+04 -9.51403E+03
 -9.43911E+03 -2.04811E+04  2.67007E+03 -2.27033E+04  1.29017E+04 -1.50862E+04  1.77731E+04 -3.65810E+03
  1.34019E+04  7.32914E+03  3.70004E+03  1.18920E+04 -5.95177E+03  8.09026E+03 -8.80731E+03 -1.33688E+03
 -5.16978E+03 -9.14630E+03  4.29765E+03 -9.91336E+03  9.47536E+03 -4.26186E+03  8.70971E+03  2.94569E+03
  5.82992E+03  4.35955E+03  1.46345E+03  3.61227E+03 -7.83596E+02  3.22602E+03  1.38877E+03 -8.09616E+02
  3.40198E+03 -2.26444E+03  8.34197E+03  3.68820E+03  5.88072E+03  1.08305E+04 -2.08587E+03  1.53988E+04
 -1.05673E+04  9.97032E+03 -1.33004E+04  3.40782E+03 -1.22807E+04 -5.94651E+03 -5.32439E+03 -8.33873E+03
  1.44341E+03 -8.61222E+03  5.65418E+03 -4.68367E+03  4.35853E+03  3.11866E+03 -1.98573E+03  7.97606E+03
 -9.49427E+03  4.27278E+03 -1.12481E+04 -4.37516E+03 -5.53747E+03 -1.15976E+04  1.64374E+03 -1.16177E+04
  7.41881E+03 -6.89713E+03  8.99099E+03 -1.04115E+03  7.54616E+03  2.67081E+03  1.08332E+03  5.57764E+03
 -4.46089E+03  3.17307E+03 -4.85945E+03 -3.79743E+03  2.35685E+03 -9.33844E+03  1.07729E+04 -7.78067E+03
  1.46691E+04  4.20638E+02  1.34653E+04  1.06005E+04  4.56362E+03  1.46296E+04 -5.15918E+03  1.34659E+04
 -1.14895E+04  5.89413E+03 -1.21342E+04 -2.12904E+03 -6.49699E+03 -9.69521E+03  3.00395E+03 -1.00063E+04
  8.63756E+03 -4.00720E+03  7.78517E+03  4.00393E+03  2.84278E+03  8.01041E+03 -1.94378E+03  6.58974E+03
 -4.30040E+03  4.84826E+03 -1.92677E+03  1.09251E+03 -2.21771E+03  1.52555E+03 -2.22598E+03  3.38282E+03
 -4.14267E+03  5.72866E+03 -9.45957E+03  5.22850E+03 -1.42536E+04  5.06187E+00 -1.69838E+04 -1.06135E+04
 -7.61967E+03 -1.95357E+04  3.93048E+03 -2.29785E+04  1.46575E+04 -1.74222E+04  2.18185E+04 -5.83081E+03
  2.00914E+04  4.08573E+03  1.36288E+04  1.34058E+04  2.07899E+03  1.59082E+04 -6.37247E+03  1.20365E+04
 -9.38548E+03  3.53044E+03 -5.62555E+03 -2.18773E+03 -2.73601E+03 -2.57569E+03 -3.83607E+02  6.17774E+02
 -1.37092E+03  3.33139E+02 -3.24352E+03  1.71508E+02 -1.59972E+03 -3.47568E+03  2.35864E+02 -5.95891E+03
  6.41745E+03 -5.82825E+03  9.56083E+03  3.31970E+02  1.08055E+04  9.46702E+03  3.14634E+03  1.56572E+04
 -7.69302E+03  1.79636E+04 -1.62138E+04  1.02280E+04 -1.95607E+04 -2.11985E+03 -1.53439E+04 -1.16035E+04
 -6.31435E+03 -1.70213E+04  4.72789E+03 -1.52140E+04  9.74181E+03 -8.50906E+03  1.13137E+04  9.16428E+02
  5.59517E+03  6.37700E+03 -1.24330E+03  3.74177E+03 -2.74157E+03  4.32071E+02  4.29650E+02 -4.10954E+03
  5.06570E+03 -2.29438E+03  6.96701E+03  2.10329E+03  5.27671E+03  6.32222E+03  4.17366E+02  8.10292E+03
 -6.86060E+03  7.21595E+03 -1.16496E+04  1.78004E+03 -1.04503E+04 -8.59431E+03 -1.58959E+03 -1.27325E+04
  7.77198E+03 -1.16441E+04  1.30423E+04 -3.41750E+03  1.30754E+04  3.15778E+03  7.77082E+03  1.00076E+04
  1.27375E+03  1.08123E+04 -4.73164E+03  7.77709E+03 -7.84616E+03  6.26072E+03 -6.20831E+03  1.30090E+03
 -3.56056E+03 -3.98208E+02 -3.21537E+03  1.75148E+03 -6.08555E+03  1.68871E+03 -8.98700E+03 -5.02410E+02
 -8.35580E+03 -6.92478E+03 -1.86620E+03 -1.07719E+04  3.98173E+03 -1.12140E+04  9.80669E+03 -6.42603E+03
  1.08740E+04  9.62624E+02  6.36473E+03  8.47020E+03 -4.90308E+02  1.22637E+04 -9.39727E+03  7.86584E+03
