 $NMID ID='MM_0lb_SNR400_20hz_g40_10.RAW', FMTDAT='(8E13.5)'
 TRAMP=1., VOLUME=1. $END
  3.09999E+05  7.11887E+02  3.36985E+05  2.50335E+05  8.38952E+04  3.37137E+05 -1.32817E+05  2.49852E+05
 -1.89791E+05  8.20077E+04 -1.10664E+05 -3.29883E+04  1.33596E+03 -5.03067E+04  5.39909E+04  4.31038E+02
  3.47875E+04  5.29776E+04 -1.68351E+04  7.45318E+04 -5.98284E+04  6.26515E+04 -8.22467E+04  3.07445E+04
 -7.92756E+04 -1.11847E+04 -5.51198E+04 -4.91341E+04 -1.44474E+04 -6.76995E+04  2.60296E+04 -4.43422E+04
  3.81185E+04  4.00445E+03  1.53445E+04  4.64496E+04 -3.34375E+04  4.52512E+04 -6.52050E+04 -8.80174E+02
 -5.09394E+04 -5.51979E+04 -5.88466E+03 -7.41292E+04  3.29420E+04 -5.17535E+04  4.54081E+04 -1.54299E+04
  4.04177E+04  1.06818E+04  3.03207E+04  2.42416E+04  1.54600E+04  2.74061E+04 -4.28035E+03  2.65536E+04
 -2.13391E+04  1.34479E+04 -1.92739E+04 -3.97499E+03  4.00874E+03 -7.38308E+03  2.07275E+04  1.02928E+04
  7.37218E+03  3.18239E+04 -2.94937E+04  3.30251E+04 -6.06829E+04  2.04681E+03 -5.46353E+04 -4.02324E+04
 -1.24244E+04 -5.98580E+04  3.70878E+04 -4.22393E+04  5.40929E+04 -2.20834E+03  3.06138E+04  2.99454E+04
 -6.68264E+03  3.13251E+04 -2.76161E+04  1.17797E+04 -2.61425E+04 -5.87650E+03 -1.31610E+04 -9.55695E+03
 -7.12442E+03 -1.04435E+04 -1.01202E+03 -1.51894E+04  5.55327E+03 -2.19473E+04  1.50885E+04 -1.40831E+04
  1.26863E+04  3.90098E+03 -5.35236E+03  1.28685E+04 -1.79834E+04 -1.48003E+03 -8.08176E+03 -2.84859E+04
  1.96651E+04 -3.89501E+04  4.32269E+04 -1.78299E+04  4.03722E+04  1.81797E+04  1.33708E+04  4.07075E+04
 -1.47614E+04  2.98284E+04 -2.24661E+04  7.89175E+02 -7.53465E+03 -2.54422E+04  2.00155E+04 -2.98395E+04
  3.69099E+04 -6.26057E+03  2.91927E+04  2.24806E+04  1.42615E+04  4.08325E+04 -7.82832E+03  4.26762E+04
 -2.71107E+04  2.76345E+04 -3.47991E+04  7.15636E+03 -3.60311E+04 -1.39443E+04 -2.01123E+04 -3.30403E+04
  6.14339E+03 -3.22413E+04  2.83520E+04 -1.23089E+04  2.55020E+04  1.03520E+04  2.98809E+03  1.70592E+04
 -1.30735E+04  7.12206E+03 -9.46130E+03 -8.00632E+03  5.99648E+03 -9.22374E+03  1.70073E+04  6.62665E+03
  1.16028E+04  2.12011E+04 -6.31901E+03  2.23548E+04 -2.09276E+04  8.63765E+03 -2.39119E+04 -7.27647E+03
 -1.46031E+04 -1.64277E+04 -4.32422E+03 -1.52620E+04  3.41348E+03 -1.24008E+04  1.07576E+04 -1.25199E+04
  1.93107E+04 -1.09389E+04  2.60405E+04  7.06532E+02  1.95183E+04  1.49581E+04  4.13359E+03  3.05386E+04
 -1.51617E+04  2.63854E+04 -2.48758E+04  9.02071E+03 -1.85476E+04 -1.02111E+04 -3.42231E+03 -1.38531E+04
  2.43521E+03 -5.01268E+03 -1.66194E+03  5.11604E+03 -1.16106E+04  5.74307E+03 -1.26334E+04 -3.86914E+03
 -7.85614E+03 -1.40171E+04  3.90421E+03 -1.79582E+04  1.15054E+04 -1.25816E+04  1.27623E+04 -6.63981E+02
  7.99509E+03  9.65575E+03 -5.07418E+02  1.41909E+04 -9.23614E+03  7.93992E+03 -1.41552E+04 -3.49894E+03
 -9.88565E+03 -1.24798E+04 -1.38920E+03 -1.69809E+04  8.26228E+03 -1.41137E+04  1.47278E+04 -6.53527E+03
  1.33046E+04  4.23690E+02  9.63460E+03  3.50353E+03  4.52187E+03  1.21585E+02  7.18330E+03 -1.61003E+03
  1.30893E+04  2.56548E+03  1.28548E+04  1.14086E+04  8.13009E+03  2.23142E+04 -3.21782E+03  2.33324E+04
 -1.45507E+04  1.73191E+04 -2.12430E+04  7.68351E+03 -2.16616E+04 -1.73267E+03 -1.92928E+04 -1.24552E+04
 -9.11413E+03 -1.74214E+04  5.68659E+03 -1.70559E+04  1.45754E+04 -1.02384E+04  1.41995E+04  2.61545E+03
  6.42810E+03  1.00873E+04 -6.12874E+03  9.57735E+03 -1.22740E+04  2.58847E+03 -9.82880E+03 -7.11348E+03
 -1.37786E+02 -1.14147E+04  5.44411E+03 -8.65392E+03  7.06163E+03 -1.34852E+03  9.23501E+02  4.04688E+03
 -5.19887E+03  8.48547E+02 -2.96204E+03 -4.03927E+03  9.55394E+02 -8.20982E+03  7.17605E+03 -8.71572E+03
  1.05615E+04 -3.65133E+03  9.66206E+03  2.79446E+03  8.56648E+03  7.96923E+03  3.72709E+03  1.16845E+04
 -1.13644E+03  1.33030E+04 -8.01004E+03  8.67946E+03 -9.25178E+03  2.63688E+03 -7.43662E+03 -1.62876E+03
 -4.06867E+03 -2.49230E+03 -9.58221E+02  1.32947E+03 -1.40314E+03  1.78608E+03 -2.67980E+03  3.28117E+03
 -7.14333E+03 -6.53666E+01 -7.52834E+03 -6.35725E+03 -3.24320E+03 -1.02566E+04  3.09174E+03 -6.92867E+03
  6.53895E+03 -3.39017E+03  4.64957E+03  1.73793E+03  9.72125E+02  2.73447E+03 -2.98630E+03 -3.88652E+02
 -2.70836E+03 -4.63204E+03 -7.83426E+02 -5.97911E+03  3.47185E+03 -7.10369E+03  8.56021E+03 -3.22033E+03
  9.58916E+03  3.24433E+02  7.63995E+03  4.72221E+03  1.64795E+03  6.67543E+03 -4.18578E+03  7.59302E+03
 -6.10217E+03  2.92312E+03 -3.23973E+03 -1.36947E+03  8.47758E+02 -1.94032E+03  3.83691E+03 -1.56621E+03
  4.27146E+03  2.45875E+03  1.05151E+03  5.61992E+03 -3.53198E+03  5.75194E+03 -6.71145E+03  1.45946E+03
 -3.88356E+03 -3.11207E+03  3.33902E+02 -5.89673E+03  3.57377E+03 -2.37615E+03  2.22960E+03  6.33068E+02
  4.95910E+02  2.23289E+03 -3.54906E+03  4.05096E+03 -3.54078E+03  2.47662E+03 -3.30658E+03 -6.46440E+02
 -1.56165E+03 -5.15566E+03  1.07102E+03 -5.67037E+03  5.04337E+03 -4.22113E+03  5.00552E+03  1.00306E+03
  4.35557E+03  4.38546E+03  2.82580E+02  6.46989E+03 -4.16499E+03  3.66472E+03 -4.41407E+03  4.74415E+02
 -5.04987E+03 -4.82512E+03 -9.21295E+02 -4.31746E+03  1.83347E+03 -3.73960E+03  2.57335E+03 -3.09289E+03
  2.44604E+03 -2.10359E+02  1.71555E+02  1.23162E+03  4.69343E+02  5.39656E+02 -4.64133E+02 -1.18187E+03
  2.96189E+03 -6.94806E+02  3.77478E+03  5.14820E+02  4.37079E+03  1.90482E+03  4.78607E+03  6.34649E+03
 -8.23593E+02  6.59632E+03 -6.21729E+03  5.18467E+03 -8.19318E+03  1.11266E+03 -6.56055E+03 -2.03824E+03
 -3.40739E+03 -5.35989E+03 -7.99173E+02 -4.12240E+03  1.97255E+03 -2.05517E+03  1.58257E+03 -1.84349E+03
  1.31833E+03 -1.10285E+03  1.56837E+03 -2.19814E+03  2.86654E+03 -1.07248E+03  3.00648E+03  8.20600E+02
  4.13342E+03  9.08376E+02  5.18161E+02  2.94267E+03 -1.22689E+03  2.25226E+03 -3.40040E+03  1.68495E+03
 -3.69946E+03 -7.30492E+02 -1.15608E+03 -2.63125E+03  5.78233E+02 -3.65927E+03  2.48501E+03 -4.26098E+03
  4.16358E+03 -2.70825E+03  5.58891E+03 -1.80915E+02  3.83807E+03  3.25376E+03  1.11039E+03  4.72465E+03
 -1.83938E+03  4.44038E+03 -2.87431E+03  1.51855E+03 -1.77348E+03 -1.00052E+03 -2.97268E+02 -5.08466E+01
 -5.83183E+02  2.02841E+02 -8.57619E+02  2.18619E+03 -2.36589E+03  6.66353E+02 -3.45497E+03  9.52203E+01
 -1.02112E+03 -3.35930E+03  1.38515E+03 -3.55294E+03  1.70050E+03 -3.05196E+03  2.37434E+03 -5.30801E+02
  2.88281E+03  2.15268E+03  1.41060E+03  2.41368E+03 -4.44567E+02  3.29966E+03 -2.25991E+03  1.62043E+03
 -2.95408E+03  5.88126E+02 -2.57568E+03 -2.07549E+03  1.49020E+02 -2.42596E+03  1.37915E+03 -1.96447E+03
  2.22446E+03 -1.04083E+03  1.21470E+03  2.35469E+02  7.91409E+02  1.18818E+03  1.18618E+03  7.33593E+02
  1.75602E+03  5.37745E+02  1.31786E+03  9.43894E+02  1.11482E+03  1.99291E+03  1.18095E+03  1.04894E+03
 -1.92835E+03  2.45554E+03 -1.58104E+03  3.50003E+03 -1.84918E+03  1.43999E+03 -3.56182E+03  1.37581E+02
 -1.63097E+03 -2.83818E+03  8.20053E+02 -3.63333E+03  1.45766E+03 -1.78283E+03  2.51533E+03 -1.08526E+03
  1.87315E+03  1.07531E+03  2.89747E+02  1.43590E+03 -6.16737E+02  9.74464E+02 -9.04780E+02 -1.11869E+02
 -1.65623E+02 -1.05670E+03  7.43533E+02 -1.21450E+03  1.04357E+03 -5.06392E+02  7.52790E+02 -2.80358E+02
  6.03902E+02 -3.81493E+01  1.28622E+03 -4.00307E+02 -6.73007E+02  5.78599E+02  1.40540E+03  2.73410E+01
 -5.75624E+02 -2.22825E+02  6.40332E+02  4.37266E+02  3.73948E+02  2.01712E+03 -4.36903E+02  2.57066E+03
 -1.58108E+03  1.00590E+03 -1.23021E+03 -2.88673E+02 -1.94025E+03 -4.35300E+02  1.60740E+01 -7.80565E+02
  7.80785E+02 -1.05479E+03  4.32276E+02 -6.96989E+02  8.13049E+02  1.28136E+03 -4.82446E+02  1.28420E+03
 -1.40058E+03  3.56674E+02 -8.20913E+02 -1.05319E+03 -5.05469E+02 -1.75221E+03  3.21875E+02 -1.40453E+03
  1.59385E+02 -1.36141E+02  1.06511E+03  2.00554E+02  1.37508E+03 -6.55657E+01  2.92098E+02  2.80729E+02
 -2.30925E+02 -1.83052E+02 -6.63239E+02 -5.50599E+00  2.01856E+02 -4.34929E+02  1.20395E+03 -2.54403E+02
  1.30236E+03  4.95807E+02  2.66781E+03  4.33172E+02  1.33059E+03  1.31824E+03  4.57365E+02  1.46823E+03
 -9.13847E+02 -2.95330E+02 -5.86493E+02  3.96544E+01 -3.90533E+02 -1.12815E+03  2.18769E+01 -2.96861E+02
  1.43627E+03 -5.68853E+02  4.45449E+02  1.10599E+03  1.83233E+02  4.23775E+02  3.95885E+01  7.01241E+02
 -3.47915E+02  1.39596E+03 -4.64302E+02  2.99352E+02  8.75741E+02  2.87923E+02 -7.88006E+02  6.39764E+02
  6.92467E+01  7.16088E+02 -1.16843E+03  5.13666E+02 -1.14329E+03 -2.08361E+02 -1.91048E+03 -4.23508E+02
 -6.81863E+02 -1.93428E+03  8.09624E+02 -1.99924E+03  2.99698E+02 -1.82408E+03  2.12418E+03 -6.44104E+02
  1.70883E+03 -3.63244E+02  7.03510E+02  1.20294E+03 -6.47480E+02  1.06719E+03 -3.34106E+02  8.27034E+02
 -1.31622E+03  5.95600E+02 -6.40975E+02 -1.33226E+02 -5.48982E+02  5.06491E+02 -4.55443E+02  1.41584E+02
 -5.91294E+02  1.35321E+02 -4.82961E+02  4.67506E+02  3.62115E+02 -1.21870E+03 -7.39305E+02 -6.09921E+02
  1.08685E+03 -1.01512E+02  2.73497E+02  1.46487E+02  1.18408E+03  9.12599E+02 -1.63427E+02  1.14523E+03
 -9.02238E+02  1.85455E+03 -1.29763E+03  1.12437E+03 -8.38494E+02  4.56489E+01 -8.76206E+02 -1.04080E+03
 -8.21839E+02 -9.80187E+02  2.25953E+02 -9.28383E+02  7.77340E+02 -2.38726E+02  7.00547E+02 -1.18052E+02
  8.15236E+02  8.97492E+01 -1.50508E+02  5.32859E+02 -4.50741E+02  8.80649E+01 -5.72844E+02  4.91217E+01
  6.71286E+02 -1.57987E+02 -2.86969E+02  8.76640E+02 -1.30083E+02  1.17660E+02  2.87195E+02 -2.70029E+02
 -2.24473E+02  5.61240E+02 -3.59035E+02 -4.98785E+01 -6.63448E+02 -4.35618E+02 -2.66067E+02 -8.14143E+02
  8.12200E+02 -6.80407E+02  5.63392E+02  2.98368E+02  9.63990E+02 -6.11835E+02  5.05290E+02  4.28444E+02
  3.16259E+02  2.13364E+02 -5.13330E+01  5.76143E+02 -1.87755E+02  4.56155E+02  7.57383E+01 -1.04307E+02
 -4.65129E+02  2.86705E+02 -3.35608E+02 -2.73276E+02 -3.49227E+02 -5.80581E+02 -6.07433E+02 -1.09459E+02
 -5.13513E+02  3.02093E+02 -3.03799E+02 -9.12054E+02  5.33536E+02 -1.23229E+03  2.01743E+02 -4.30793E+02
  2.28627E+02  7.13356E+01 -4.86890E+02  1.28990E+02  2.53627E+02  1.29948E+03 -2.22911E+02  2.73962E+02
