 $NMID ID='MM_0lb_SNR400_7hz_g50_47.RAW', FMTDAT='(8E13.5)'
 TRAMP=1., VOLUME=1. $END
  3.10198E+05  3.43607E+02  3.38108E+05  2.50631E+05  8.55339E+04  3.38849E+05 -1.32359E+05  2.52007E+05
 -1.90796E+05  8.48064E+04 -1.12672E+05 -3.30605E+04 -3.08193E+02 -5.12227E+04  5.38064E+04 -4.95320E+02
  3.48962E+04  5.29865E+04 -1.62396E+04  7.67158E+04 -6.20082E+04  6.42608E+04 -8.53000E+04  3.25504E+04
 -8.31843E+04 -1.07965E+04 -5.82323E+04 -5.27346E+04 -1.49535E+04 -7.11607E+04  2.86177E+04 -4.64866E+04
  4.17493E+04  3.02701E+03  1.67566E+04  4.88168E+04 -3.59140E+04  4.82375E+04 -6.77589E+04  5.20722E+02
 -5.53270E+04 -5.79447E+04 -7.72645E+03 -7.97665E+04  3.52301E+04 -5.75927E+04  5.00351E+04 -1.93220E+04
  4.61932E+04  1.11252E+04  3.40727E+04  2.72294E+04  1.55842E+04  3.01811E+04 -5.92483E+03  2.78053E+04
 -2.27888E+04  1.12995E+04 -1.80001E+04 -6.11215E+03  7.25950E+03 -6.91691E+03  2.41825E+04  1.44056E+04
  6.83167E+03  3.73097E+04 -3.44397E+04  3.74554E+04 -6.82115E+04  2.06247E+03 -6.02989E+04 -4.50688E+04
 -1.36877E+04 -6.63381E+04  4.19786E+04 -4.79129E+04  6.20996E+04 -1.90825E+03  3.86002E+04  3.57297E+04
 -5.27230E+03  4.13781E+04 -3.27259E+04  2.02119E+04 -3.39487E+04 -2.82430E+03 -2.05699E+04 -1.21462E+04
 -1.00521E+04 -1.60985E+04 -8.52370E+01 -2.06823E+04  8.50658E+03 -2.44718E+04  1.58501E+04 -1.31461E+04
  1.07128E+04  7.14525E+03 -1.13572E+04  1.28043E+04 -2.34233E+04 -7.51633E+03 -8.71221E+03 -3.80938E+04
  2.65150E+04 -4.91080E+04  5.37926E+04 -2.06725E+04  4.99520E+04  2.19143E+04  1.79716E+04  4.88031E+04
 -1.70566E+04  3.68033E+04 -2.90051E+04  3.71665E+03 -1.23017E+04 -2.99664E+04  2.16853E+04 -3.85236E+04
  4.72248E+04 -1.16297E+04  4.28096E+04  2.59421E+04  2.25735E+04  5.34049E+04 -7.74568E+03  5.81030E+04
 -3.74162E+04  4.01123E+04 -4.98757E+04  1.16092E+04 -4.94127E+04 -1.92390E+04 -2.76530E+04 -4.31289E+04
  8.16608E+03 -4.44723E+04  3.51350E+04 -1.81163E+04  3.31218E+04  1.06973E+04  6.08120E+03  2.16950E+04
 -1.46302E+04  1.02096E+04 -1.19632E+04 -7.11421E+03  5.35367E+03 -1.17840E+04  1.88702E+04  5.40878E+03
  1.51518E+04  2.29301E+04 -4.89616E+03  2.86248E+04 -2.41130E+04  1.50271E+04 -3.24970E+04 -2.37892E+03
 -2.71589E+04 -1.91931E+04 -1.30697E+04 -2.68638E+04  4.08131E+03 -2.92625E+04  2.20314E+04 -2.55895E+04
  3.40610E+04 -1.48737E+04  4.02424E+04  5.01788E+03  2.80286E+04  2.67803E+04  5.16110E+03  4.35328E+04
 -2.14456E+04  3.52522E+04 -3.15547E+04  1.32407E+04 -2.28452E+04 -9.74505E+03 -4.27558E+03 -1.25342E+04
  1.66376E+02 -6.54966E+02 -9.53252E+03  9.20998E+03 -2.28486E+04  5.18847E+03 -2.11085E+04 -1.02943E+04
 -1.26887E+04 -2.50580E+04  6.81202E+03 -3.00214E+04  2.06167E+04 -2.09709E+04  2.45383E+04 -1.88916E+03
  1.58869E+04  1.73802E+04 -1.27838E+03  2.63438E+04 -1.82857E+04  1.42380E+04 -2.59906E+04 -6.28877E+03
 -1.79875E+04 -2.29627E+04 -2.80039E+03 -3.14813E+04  1.29946E+04 -2.46998E+04  2.54545E+04 -1.33282E+04
  2.38433E+04 -3.00186E+02  1.84401E+04  5.50568E+03  1.01789E+04  2.21913E+03  1.34539E+04 -1.81314E+03
  2.38460E+04  2.79478E+03  2.82468E+04  1.96071E+04  1.93366E+04  4.13037E+04 -2.71249E+03  4.85279E+04
 -2.81445E+04  4.15408E+04 -4.70160E+04  2.21662E+04 -5.02386E+04 -3.55368E+03 -3.94306E+04 -2.94030E+04
 -1.60136E+04 -4.08200E+04  1.51562E+04 -3.59721E+04  3.00729E+04 -1.68513E+04  2.72947E+04  9.94999E+03
  8.51516E+03  2.04943E+04 -1.27721E+04  1.56066E+04 -2.23273E+04  2.53228E+03 -1.74532E+04 -1.36434E+04
  3.63798E+02 -2.19024E+04  1.09710E+04 -1.43381E+04  1.53122E+04 -1.29332E+03  3.98038E+03  1.05537E+04
 -8.18914E+03  4.62669E+03 -1.06519E+04 -7.23974E+03 -2.60918E+03 -1.96992E+04  1.23410E+04 -2.23788E+04
  2.62931E+04 -1.24348E+04  3.03218E+04  4.22733E+03  2.68388E+04  2.05223E+04  1.29208E+04  3.20291E+04
 -6.00117E+03  3.51361E+04 -2.41654E+04  2.19038E+04 -2.52852E+04  3.86800E+03 -1.74065E+04 -6.90596E+03
 -6.47981E+03 -8.75259E+03 -2.16369E+02  2.53247E+01 -3.48835E+03  4.91810E+03 -8.59404E+03  6.21648E+03
 -1.53287E+04 -1.00545E+03 -1.53401E+04 -1.30229E+04 -7.38254E+03 -2.16503E+04  6.94979E+03 -1.76740E+04
  1.55314E+04 -7.49429E+03  1.03478E+04  3.99227E+03 -1.01131E+03  7.51198E+03 -9.44675E+03 -3.14927E+02
 -8.80513E+03 -1.13946E+04 -1.86819E+03 -1.72272E+04  9.88888E+03 -1.82618E+04  2.35163E+04 -1.05011E+04
  2.69096E+04  3.68059E+03  1.93747E+04  1.74233E+04  4.95999E+03  2.14276E+04 -1.11517E+04  1.77549E+04
 -1.41311E+04  4.90701E+03 -6.71324E+03 -4.09759E+03  3.31217E+03 -4.02795E+03  1.07038E+04 -1.27145E+03
  8.16521E+03  8.80045E+03  4.22887E+02  1.50697E+04 -1.14104E+04  1.41266E+04 -1.82148E+04  3.64276E+03
 -1.27473E+04 -9.29573E+03  5.97621E+02 -1.62976E+04  1.09101E+04 -7.14807E+03  1.06970E+04  4.39289E+03
  2.99437E+03  1.19597E+04 -8.98804E+03  1.45851E+04 -1.60056E+04  6.43584E+03 -1.70183E+04 -5.74009E+03
 -1.02104E+04 -1.88927E+04  5.63754E+03 -2.10224E+04  1.84119E+04 -1.28240E+04  2.04011E+04  3.01951E+03
  1.16867E+04  1.61314E+04 -2.36072E+03  1.83643E+04 -1.36615E+04  1.00712E+04 -1.56475E+04 -2.10484E+03
 -1.35183E+04 -1.27115E+04 -2.18933E+03 -1.55441E+04  7.60061E+03 -1.05253E+04  9.32641E+03 -3.87042E+03
  5.21228E+03  2.38537E+03 -1.22161E+03  2.01448E+03 -2.46669E+03 -4.66313E+03  3.28054E+03 -1.01017E+04
  1.33559E+04 -6.07668E+03  1.95163E+04  2.26144E+03  1.93036E+04  1.38143E+04  1.08735E+04  2.46986E+04
 -5.51326E+03  2.95513E+04 -2.34369E+04  2.08791E+04 -3.10228E+04  4.50973E+03 -2.55555E+04 -1.18246E+04
 -1.28901E+04 -2.09576E+04  1.42206E+02 -1.73955E+04  6.61695E+03 -1.07727E+04  5.85505E+03 -5.85962E+03
  4.34927E+03 -3.77248E+03  4.68170E+03 -4.29265E+03  6.34507E+03 -4.54456E+03  9.57344E+03 -1.49531E+03
  1.34034E+04  2.85760E+03  7.36142E+03  1.12659E+04 -2.04719E+03  1.39704E+04 -1.24204E+04  1.11088E+04
 -1.81008E+04 -1.34206E+03 -1.19021E+04 -1.31051E+04 -3.98379E+03 -1.96039E+04  9.97911E+03 -1.84439E+04
  2.08008E+04 -1.09330E+04  2.43140E+04  3.22670E+03  1.71434E+04  1.69256E+04  2.05309E+03  2.21817E+04
 -1.02720E+04  1.77125E+04 -1.26524E+04  5.49759E+03 -9.18502E+03 -1.96336E+03 -3.99048E+03 -3.03225E+03
 -2.01935E+03 -2.26737E+02 -3.12430E+03  3.21210E+03 -7.51289E+03  3.29853E+03 -1.23314E+04 -1.71971E+03
 -8.90063E+03 -1.26709E+04 -7.15755E+02 -1.76528E+04  1.17643E+04 -1.65129E+04  1.89269E+04 -4.40617E+03
  1.83531E+04  8.74991E+03  8.43677E+03  1.64542E+04 -2.69742E+03  1.85567E+04 -1.33515E+04  1.11778E+04
 -1.68535E+04  9.65644E+02 -1.32781E+04 -1.14526E+04 -2.54966E+03 -1.57674E+04  8.47861E+03 -1.15731E+04
  1.26435E+04 -3.63318E+03  7.84453E+03  4.30319E+03  2.21913E+03  4.73646E+03  2.50552E+03  2.97282E+03
  3.29525E+03  1.77783E+03  4.50889E+03  1.85002E+03  6.23143E+03  6.53395E+03  5.01607E+03  1.12962E+04
 -3.77530E+03  1.54198E+04 -1.36735E+04  1.50925E+04 -1.99638E+04  4.11476E+03 -1.98005E+04 -8.42360E+03
 -1.04224E+04 -1.89172E+04  3.33875E+03 -2.12688E+04  1.18504E+04 -1.38815E+04  1.57629E+04 -4.25356E+03
  1.17282E+04  6.82012E+03  3.05903E+03  1.20598E+04 -6.42662E+03  7.27585E+03 -8.54966E+03 -1.26016E+03
 -4.53273E+03 -8.86789E+03  4.92453E+03 -8.01329E+03  8.80916E+03 -4.17955E+03  8.07358E+03  1.04174E+03
  4.46653E+03  4.33187E+03  1.14836E+03  4.04955E+03 -1.28510E+03  1.92932E+03  1.63581E+03  4.13649E+02
  2.98335E+03 -1.80567E+03  8.30101E+03  3.29480E+03  5.89396E+03  1.04180E+04 -5.32134E+02  1.43907E+04
 -9.50846E+03  9.47284E+03 -1.32032E+04  2.17488E+03 -1.18186E+04 -3.84934E+03 -4.34366E+03 -7.92793E+03
  9.66547E+02 -8.75025E+03  5.97089E+03 -3.03766E+03  4.83351E+03  3.53164E+03 -2.19118E+03  6.77691E+03
 -6.86771E+03  4.31936E+03 -1.00104E+04 -4.78522E+03 -5.50680E+03 -1.10411E+04  1.68521E+03 -1.10836E+04
  6.19588E+03 -6.87357E+03  7.80987E+03 -1.34704E+03  6.36297E+03  2.31334E+03  9.39140E+02  5.19533E+03
 -3.32260E+03  2.91398E+03 -5.78316E+03 -3.64350E+03  1.17814E+03 -7.61143E+03  1.01937E+04 -7.28543E+03
  1.37180E+04  1.22913E+03  1.18012E+04  8.72714E+03  3.22720E+03  1.44837E+04 -4.76009E+03  1.29231E+04
 -1.08151E+04  6.07363E+03 -1.17109E+04 -2.74084E+03 -5.19619E+03 -8.53342E+03  1.37709E+03 -8.56144E+03
  7.68521E+03 -5.11244E+03  7.65176E+03  2.88546E+03  3.70335E+03  7.48481E+03 -1.78096E+03  5.71747E+03
 -3.07925E+03  4.55410E+03 -2.92395E+03  1.66269E+03 -1.73658E+03  1.27664E+03 -2.11914E+03  2.98396E+03
 -3.86713E+03  5.15090E+03 -8.74654E+03  5.11913E+03 -1.48237E+04  7.51754E+02 -1.47496E+04 -8.23516E+03
 -7.94123E+03 -1.81874E+04  4.60876E+03 -2.19730E+04  1.40212E+04 -1.66737E+04  2.02892E+04 -5.76342E+03
  1.86799E+04  4.42929E+03  1.20746E+04  1.26267E+04  9.00288E+02  1.38018E+04 -5.88435E+03  1.05733E+04
 -8.24386E+03  3.50600E+03 -4.67428E+03 -1.35388E+03 -2.12273E+03 -1.45783E+03 -1.59998E+03 -1.40798E+02
 -2.53386E+03  3.84651E+02 -2.12974E+03  2.04249E+01 -2.14160E+03 -4.41896E+03  6.90286E+02 -5.62123E+03
  6.59737E+03 -5.05785E+03  1.02734E+04 -6.76186E+01  1.01539E+04  7.58604E+03  2.27498E+03  1.39728E+04
 -7.58977E+03  1.60206E+04 -1.62007E+04  9.01657E+03 -1.79794E+04 -1.58504E+03 -1.38970E+04 -1.04165E+04
 -5.36306E+03 -1.61587E+04  4.04864E+03 -1.39563E+04  9.83156E+03 -7.43296E+03  9.89851E+03  1.00512E+03
  5.24661E+03  5.30691E+03 -4.33521E+02  5.48827E+03 -3.40562E+03  5.05478E+02  9.29957E+02 -4.04657E+03
  5.24790E+03 -2.14209E+03  6.07976E+03  1.99622E+03  4.58535E+03  6.43687E+03  7.51140E+01  7.86041E+03
 -7.19248E+03  7.54429E+03 -1.00721E+04  1.21578E+03 -9.13379E+03 -7.90369E+03 -1.83239E+03 -1.21051E+04
  6.91481E+03 -1.01257E+04  1.13461E+04 -3.50697E+03  1.17090E+04  3.06719E+03  6.44323E+03  8.98451E+03
  1.14644E+03  1.02203E+04 -3.63020E+03  9.04940E+03 -6.67554E+03  4.77261E+03 -5.37810E+03  6.27283E+02
 -3.05601E+03 -5.50314E+02 -2.94028E+03  1.55065E+03 -4.16433E+03  2.62653E+03 -8.05570E+03 -1.70468E+03
 -6.92316E+03 -6.23632E+03 -2.70453E+03 -1.03826E+04  5.45110E+03 -1.08133E+04  9.74926E+03 -5.80701E+03
  9.99193E+03  1.30646E+03  5.95211E+03  7.97189E+03 -2.53841E+02  1.04771E+04 -8.22069E+03  6.44526E+03
