 $NMID ID='MM_0lb_SNR400_17hz_g55_51.RAW', FMTDAT='(8E13.5)'
 TRAMP=1., VOLUME=1. $END
  3.09355E+05  1.11183E+02  3.37549E+05  2.50778E+05  8.45781E+04  3.37470E+05 -1.32533E+05  2.50254E+05
 -1.90378E+05  8.28405E+04 -1.11848E+05 -3.24636E+04  7.76060E+02 -5.04969E+04  5.39783E+04 -1.87549E+02
  3.54208E+04  5.31183E+04 -1.65517E+04  7.51014E+04 -6.08511E+04  6.33737E+04 -8.36805E+04  3.16683E+04
 -8.05259E+04 -1.10801E+04 -5.80340E+04 -5.11071E+04 -1.53320E+04 -6.88973E+04  2.72104E+04 -4.50721E+04
  3.96932E+04  3.70290E+03  1.61476E+04  4.72293E+04 -3.40502E+04  4.62435E+04 -6.60534E+04 -9.47008E+02
 -5.33909E+04 -5.64162E+04 -6.12751E+03 -7.62262E+04  3.36864E+04 -5.47156E+04  4.68197E+04 -1.70159E+04
  4.30388E+04  1.16150E+04  3.12880E+04  2.50058E+04  1.53597E+04  2.90473E+04 -5.11657E+03  2.69654E+04
 -2.18985E+04  1.27359E+04 -1.90883E+04 -4.30044E+03  5.19360E+03 -7.76946E+03  2.23036E+04  1.23845E+04
  7.25360E+03  3.41148E+04 -3.19788E+04  3.56759E+04 -6.24262E+04  2.21389E+03 -5.60122E+04 -4.21351E+04
 -1.25159E+04 -6.25705E+04  3.87847E+04 -4.45903E+04  5.71473E+04 -2.65370E+03  3.34982E+04  3.19325E+04
 -6.17761E+03  3.54590E+04 -2.92846E+04  1.43182E+04 -2.92553E+04 -4.99547E+03 -1.57873E+04 -1.02764E+04
 -8.22999E+03 -1.26513E+04 -9.14904E+02 -1.75792E+04  7.11772E+03 -2.26884E+04  1.54709E+04 -1.32587E+04
  1.17526E+04  5.02184E+03 -7.27071E+03  1.30336E+04 -2.06487E+04 -3.63482E+03 -7.21808E+03 -3.22577E+04
  2.24012E+04 -4.25538E+04  4.59963E+04 -1.90240E+04  4.39650E+04  1.87851E+04  1.49643E+04  4.28281E+04
 -1.59230E+04  3.25712E+04 -2.41839E+04  1.28001E+03 -9.70812E+03 -2.71936E+04  2.05444E+04 -3.26253E+04
  3.99408E+04 -8.13786E+03  3.41439E+04  2.33505E+04  1.71135E+04  4.52486E+04 -7.90177E+03  4.80433E+04
 -3.03914E+04  3.20665E+04 -4.05801E+04  8.85295E+03 -4.04481E+04 -1.67552E+04 -2.20047E+04 -3.62773E+04
  6.89984E+03 -3.67395E+04  3.01894E+04 -1.40611E+04  2.84640E+04  1.04449E+04  3.99221E+03  1.80933E+04
 -1.37085E+04  8.10908E+03 -9.27538E+03 -7.69649E+03  5.57032E+03 -1.06864E+04  1.74979E+04  6.42510E+03
  1.23099E+04  2.17843E+04 -5.78486E+03  2.43169E+04 -2.22645E+04  1.09424E+04 -2.69550E+04 -5.02997E+03
 -1.92255E+04 -1.68841E+04 -6.54812E+03 -1.82361E+04  3.34016E+03 -1.72719E+04  1.46541E+04 -1.71117E+04
  2.39140E+04 -1.24682E+04  3.04132E+04  2.00398E+03  2.25622E+04  1.79668E+04  4.15455E+03  3.49234E+04
 -1.72520E+04  2.88187E+04 -2.65598E+04  1.03463E+04 -2.04903E+04 -1.05407E+04 -4.24482E+03 -1.38392E+04
  2.48794E+03 -2.68633E+03 -3.71445E+03  5.76973E+03 -1.49177E+04  4.65233E+03 -1.46809E+04 -5.91191E+03
 -9.47313E+03 -1.71333E+04  4.78445E+03 -2.18941E+04  1.38691E+04 -1.53103E+04  1.62078E+04 -1.37520E+03
  1.03739E+04  1.17595E+04 -9.77948E+02  1.79730E+04 -1.14532E+04  1.07495E+04 -1.71334E+04 -3.96219E+03
 -1.28995E+04 -1.55865E+04 -1.37135E+03 -2.06028E+04  9.27573E+03 -1.66854E+04  1.77358E+04 -8.68098E+03
  1.64498E+04  5.21455E+02  1.17936E+04  3.91017E+03  6.18439E+03  7.99859E+02  8.87787E+03 -1.76779E+03
  1.57302E+04  2.20218E+03  1.70499E+04  1.40943E+04  1.05954E+04  2.80506E+04 -3.29705E+03  3.03494E+04
 -1.78563E+04  2.43564E+04 -2.79516E+04  1.17035E+04 -2.92751E+04 -1.54358E+03 -2.41356E+04 -1.69507E+04
 -1.10389E+04 -2.42351E+04  7.97469E+03 -2.16501E+04  1.94235E+04 -1.13806E+04  1.71646E+04  4.19967E+03
  6.69876E+03  1.25771E+04 -7.79411E+03  1.11872E+04 -1.43947E+04  2.70811E+03 -1.11831E+04 -9.21225E+03
 -1.28133E+02 -1.33375E+04  7.04981E+03 -9.79168E+03  9.20238E+03 -1.78905E+03  1.87355E+03  5.75877E+03
 -6.15488E+03  1.91424E+03 -5.49631E+03 -4.70218E+03 -7.07588E+01 -1.17150E+04  8.67546E+03 -1.20550E+04
  1.42972E+04 -5.81956E+03  1.47299E+04  2.07707E+03  1.26121E+04  1.14256E+04  5.98378E+03  1.66624E+04
 -2.21617E+03  1.87775E+04 -1.16791E+04  1.18190E+04 -1.35075E+04  2.95498E+03 -1.00837E+04 -2.73426E+03
 -4.39477E+03 -3.96938E+03 -5.76430E+02  1.11281E+03 -1.99275E+03  2.27031E+03 -4.03247E+03  3.99286E+03
 -9.14091E+03 -1.79250E+02 -9.60835E+03 -8.09768E+03 -3.90175E+03 -1.33159E+04  3.94334E+03 -9.67066E+03
  8.56930E+03 -3.55149E+03  5.26574E+03  2.48341E+03  1.02871E+02  3.66999E+03 -4.05383E+03 -4.78544E+02
 -3.86832E+03 -6.40206E+03 -6.59846E+02 -8.51392E+03  4.41053E+03 -9.72810E+03  1.16655E+04 -4.52484E+03
  1.31961E+04  5.56256E+02  1.05290E+04  7.35282E+03  1.53789E+03  1.06912E+04 -6.28097E+03  9.50055E+03
 -8.41473E+03  3.17894E+03 -4.39059E+03 -1.91425E+03  1.79343E+03 -2.31864E+03  5.47525E+03 -7.84251E+02
  4.48886E+03  4.21165E+03  6.56328E+02  7.28793E+03 -5.01466E+03  7.06998E+03 -8.90940E+03  2.38788E+03
 -5.46971E+03 -5.13892E+03  5.70716E+01 -7.96078E+03  4.46645E+03 -3.89933E+03  4.85626E+03  1.78864E+03
  8.92994E+02  5.11704E+03 -5.10570E+03  5.76624E+03 -5.52690E+03  2.75359E+03 -5.90838E+03 -1.70256E+03
 -3.56719E+03 -7.29605E+03  1.83098E+03 -9.26918E+03  7.45517E+03 -5.40985E+03  8.55333E+03  6.08633E+02
  5.37879E+03  6.77606E+03  7.75125E+01  8.53855E+03 -5.87574E+03  5.52509E+03 -6.30213E+03 -3.68006E+02
 -6.83640E+03 -5.35755E+03 -1.40315E+03 -6.61492E+03  2.81117E+03 -5.42758E+03  3.39170E+03 -3.25884E+03
  3.17455E+03  1.03857E+03 -3.75966E+02  1.59849E+03  2.55049E+02 -5.57559E+02  3.19308E+02 -2.76570E+03
  5.11504E+03 -1.12520E+03  7.39275E+03  5.88661E+02  6.78291E+03  4.50316E+03  6.35651E+03  9.17274E+03
 -1.99469E+03  1.09612E+04 -9.67439E+03  8.05033E+03 -1.23661E+04  1.06387E+03 -9.61359E+03 -3.75297E+03
 -4.76729E+03 -7.90848E+03 -5.08485E+02 -6.66926E+03  2.88019E+03 -3.01022E+03  2.33205E+03 -2.91861E+03
  1.80897E+03 -1.52900E+03  2.46801E+03 -2.94689E+03  3.37769E+03 -1.53600E+03  4.22489E+03  3.52380E+01
  5.25722E+03  1.65583E+03  1.27569E+03  3.40337E+03 -1.73849E+03  3.77221E+03 -5.46756E+03  3.75782E+03
 -6.17756E+03 -1.26013E+03 -2.48163E+03 -4.28562E+03  6.19457E+01 -6.20477E+03  3.68251E+03 -6.30732E+03
  6.75237E+03 -3.72563E+03  8.51994E+03  1.47494E+03  5.64865E+03  5.30859E+03  9.32962E+02  7.00445E+03
 -3.03277E+03  7.03075E+03 -4.09619E+03  2.39249E+03 -2.50472E+03 -9.23999E+02 -1.48818E+03 -4.11538E+02
 -3.85731E+02  4.52316E+02 -1.41765E+03  1.99305E+03 -2.50350E+03  1.51307E+03 -4.77760E+03 -6.65156E+02
 -2.02240E+03 -4.95555E+03  9.82307E+02 -5.20189E+03  3.64366E+03 -4.98627E+03  5.07925E+03 -1.10037E+03
  4.93241E+03  2.99409E+03  2.48918E+03  4.37271E+03 -7.58293E+02  5.59774E+03 -3.22125E+03  3.84931E+03
 -5.00624E+03  5.33188E+02 -4.96163E+03 -3.14422E+03 -3.85800E+02 -3.81255E+03  2.27157E+03 -3.47221E+03
  3.31703E+03 -1.80203E+03  2.10124E+03  8.63174E+02  1.11404E+00  1.92379E+03  9.40908E+02  6.20234E+02
  1.30460E+03  6.88853E+02  1.64623E+03  8.90008E+02  8.53784E+02  2.40392E+03  1.39548E+03  2.94577E+03
 -1.89157E+03  3.75804E+03 -3.51460E+03  4.71071E+03 -4.63003E+03  1.43931E+03 -5.02261E+03 -1.08045E+02
 -2.19963E+03 -4.91888E+03  4.60276E+02 -6.30514E+03  2.66589E+03 -2.89419E+03  4.17355E+03 -7.99580E+02
  3.38607E+03  1.83059E+03  1.08486E+03  2.41044E+03 -6.68822E+02  1.56455E+03 -1.70423E+03 -5.07174E+02
 -1.02636E+03 -2.63678E+03  1.66325E+03 -2.12400E+03  1.60911E+03 -1.11417E+03  2.04134E+03 -7.57759E+01
  1.05502E+03  5.14060E+02  1.18061E+03  6.06675E+02  1.24481E+01  9.39691E+02  1.35569E+03 -1.52882E+02
  2.67744E+02 -2.17794E+02  1.85054E+03  6.72632E+02  3.59388E+02  3.03580E+03 -3.01695E+02  3.46979E+03
 -1.87483E+03  1.82287E+03 -2.63613E+03  2.43709E+02 -3.04647E+03 -8.24218E+02 -5.18347E+02 -1.79983E+03
  3.70561E+02 -1.82214E+03  1.43053E+03 -8.90985E+02  7.24671E+02  1.47644E+03 -5.12089E+02  1.70560E+03
 -1.97557E+03  6.19154E+02 -1.21709E+03 -1.32567E+03 -8.65545E+02 -2.69957E+03  2.90651E+02 -1.89477E+03
  9.03235E+02 -8.57141E+02  1.13923E+03 -1.59099E+02  1.60900E+03 -4.26513E+02 -1.73301E+01  1.78915E+03
 -2.45835E+02  6.33712E+02 -8.02839E+02 -3.95703E+02  3.95379E+02 -1.63082E+03  2.23448E+03 -1.31115E+03
  1.84276E+03 -2.72888E+02  3.19709E+03  9.40409E+02  1.70799E+03  2.29504E+03 -4.21317E+00  2.58437E+03
 -1.97156E+03  5.62228E+02 -1.99831E+03 -3.36668E+02 -1.06272E+03 -1.66863E+03  2.53004E+02 -1.35414E+03
  9.60201E+02 -5.53227E+02  1.40333E+03  2.86299E+02  5.98079E+02  1.41428E+03  1.46718E+02  1.23577E+03
 -2.48009E+02  1.13884E+03 -2.57520E+02 -8.87144E+01 -5.03685E+02  1.35120E+02 -1.44073E+03  2.74209E+02
 -1.18358E+03  1.28988E+03 -2.30539E+03  8.45715E+02 -2.38765E+03  9.18781E+01 -2.97848E+03 -1.95882E+03
 -1.26779E+03 -2.55851E+03  8.69637E+02 -3.33133E+03  1.52167E+03 -3.00147E+03  3.79451E+03 -5.85948E+02
  2.60336E+03 -3.79147E+02  1.62375E+03  1.87086E+03 -7.43418E+02  2.52893E+03 -9.32399E+02  1.37159E+03
 -9.60702E+02  7.31439E+02 -1.19728E+03  1.34339E+02 -1.42673E+02  1.29258E+02 -7.43984E+02  5.35804E+02
 -1.10506E+03  4.58400E+01 -9.18567E+02  4.82365E+01  2.49652E+02 -6.82697E+02 -6.31629E+02 -9.87736E+02
  1.68763E+03 -8.84993E+02  8.23219E+02  2.51522E+02  1.27810E+03  1.33534E+03 -2.66907E+02  2.59290E+03
 -8.72364E+02  3.13887E+03 -2.87522E+03  1.31638E+03 -1.98271E+03 -5.34890E+02 -1.52607E+03 -1.57771E+03
 -1.35756E+03 -1.54554E+03  4.36492E+02 -2.24441E+03  7.98560E+02 -7.03811E+02  7.24906E+02  1.93775E+02
  1.57179E+03  3.61608E+02  3.76092E+02  5.30996E+02 -2.69631E+02  3.10056E+02 -1.97809E+02 -1.03554E+03
  9.54934E+02 -2.23405E+02  9.99295E+02  4.21438E+02  3.02718E+02  5.01889E+02  8.19449E+02  3.24379E+02
 -8.54944E+02  7.76525E+02 -8.35161E+02  6.64078E+01 -6.26024E+02 -7.85168E+02 -5.31867E+01 -1.95350E+03
  6.17112E+02 -7.22065E+02  1.20676E+03  1.71777E+02  1.39411E+03 -1.07084E+03  7.42402E+01  8.23437E+02
  1.02507E+03  1.20875E+03  1.26528E+02  1.15616E+03 -8.09596E+02  6.40135E+02 -4.80026E+02 -6.58898E+01
 -2.87641E+02 -6.09769E+02  5.98521E+01 -2.85360E+01 -1.09032E+03 -1.28635E+02 -1.09800E+03 -4.42399E+02
 -1.16980E+03  5.28599E+02 -5.79322E+02 -6.17762E+02  8.09196E+02 -2.22758E+03  1.09537E+03 -1.16131E+02
  5.41520E+02  2.66471E+02 -8.07949E+02  1.83426E+02  6.33807E+01  8.04876E+02 -4.06106E+02  7.87675E+02
