 $NMID ID='MM_0lb_SNR400_18hz_g45_54.RAW', FMTDAT='(8E13.5)'
 TRAMP=1., VOLUME=1. $END
  3.09947E+05  4.69531E+02  3.37431E+05  2.50399E+05  8.52687E+04  3.37038E+05 -1.32578E+05  2.50294E+05
 -1.89587E+05  8.24918E+04 -1.11011E+05 -3.27086E+04  8.65426E+02 -5.02742E+04  5.39096E+04  3.81390E+02
  3.46684E+04  5.25743E+04 -1.67004E+04  7.48512E+04 -6.06416E+04  6.28856E+04 -8.32880E+04  3.07525E+04
 -8.03175E+04 -1.07961E+04 -5.65300E+04 -5.04252E+04 -1.45164E+04 -6.82350E+04  2.64865E+04 -4.44580E+04
  3.90025E+04  3.54339E+03  1.54167E+04  4.70776E+04 -3.35989E+04  4.66515E+04 -6.57632E+04 -4.29684E+02
 -5.21413E+04 -5.65053E+04 -6.00401E+03 -7.48180E+04  3.25094E+04 -5.31063E+04  4.65019E+04 -1.65456E+04
  4.13670E+04  1.11924E+04  3.09210E+04  2.43858E+04  1.62529E+04  2.87248E+04 -4.66431E+03  2.68059E+04
 -2.18146E+04  1.27116E+04 -1.92203E+04 -4.37129E+03  4.18283E+03 -7.88591E+03  2.15337E+04  1.10446E+04
  7.90143E+03  3.38305E+04 -3.07002E+04  3.42042E+04 -6.13501E+04  2.22481E+03 -5.55588E+04 -4.14868E+04
 -1.22927E+04 -6.03572E+04  3.84666E+04 -4.34630E+04  5.57475E+04 -2.13230E+03  3.17710E+04  3.08603E+04
 -6.70374E+03  3.33806E+04 -2.87566E+04  1.44136E+04 -2.75399E+04 -4.76310E+03 -1.47569E+04 -9.88965E+03
 -7.26199E+03 -1.15702E+04 -8.74371E+02 -1.69553E+04  6.67919E+03 -2.19685E+04  1.48450E+04 -1.42388E+04
  1.26498E+04  3.66729E+03 -5.79079E+03  1.34025E+04 -1.96736E+04 -2.72804E+03 -7.81495E+03 -3.12344E+04
  2.09378E+04 -4.09349E+04  4.44745E+04 -1.87179E+04  4.17293E+04  1.81304E+04  1.37153E+04  4.15182E+04
 -1.58851E+04  3.11808E+04 -2.33307E+04  9.90337E+02 -8.36353E+03 -2.58537E+04  2.04566E+04 -3.07888E+04
  3.81271E+04 -7.61904E+03  3.15360E+04  2.30273E+04  1.53014E+04  4.28026E+04 -7.84288E+03  4.55753E+04
 -2.91121E+04  3.00127E+04 -3.77621E+04  8.94435E+03 -3.85246E+04 -1.50991E+04 -2.12775E+04 -3.48145E+04
  7.67284E+03 -3.45694E+04  2.92804E+04 -1.27944E+04  2.69237E+04  1.10305E+04  2.80795E+03  1.79531E+04
 -1.31957E+04  7.47962E+03 -1.02241E+04 -7.61996E+03  6.18620E+03 -1.06988E+04  1.65358E+04  6.26203E+03
  1.24646E+04  2.15184E+04 -6.73043E+03  2.39028E+04 -2.13144E+04  9.49944E+03 -2.53280E+04 -6.57612E+03
 -1.66061E+04 -1.65350E+04 -5.19244E+03 -1.66100E+04  3.51899E+03 -1.49621E+04  1.24116E+04 -1.51184E+04
  2.14470E+04 -1.20706E+04  2.83825E+04  1.45532E+03  2.17511E+04  1.66109E+04  3.54693E+03  3.30720E+04
 -1.56896E+04  2.76180E+04 -2.57946E+04  9.82050E+03 -1.97443E+04 -1.08632E+04 -4.44906E+03 -1.38731E+04
  2.64451E+03 -3.94778E+03 -2.35692E+03  5.20612E+03 -1.32274E+04  5.04074E+03 -1.36506E+04 -4.88657E+03
 -8.71569E+03 -1.57529E+04  4.41835E+03 -2.01269E+04  1.25638E+04 -1.42084E+04  1.48485E+04 -1.21703E+03
  8.88378E+03  1.04620E+04 -9.14667E+02  1.58663E+04 -1.05231E+04  8.84578E+03 -1.58437E+04 -3.80434E+03
 -1.09295E+04 -1.42174E+04 -9.08284E+02 -1.90617E+04  8.63860E+03 -1.55813E+04  1.68552E+04 -7.38816E+03
  1.54668E+04  4.94027E+02  1.02919E+04  4.05986E+03  5.30307E+03 -1.26346E+02  7.55081E+03 -1.84223E+03
  1.41254E+04  2.53716E+03  1.49320E+04  1.27547E+04  9.37376E+03  2.50742E+04 -2.96953E+03  2.70717E+04
 -1.62830E+04  2.09739E+04 -2.48802E+04  1.00098E+04 -2.52289E+04 -1.83753E+03 -2.18455E+04 -1.43067E+04
 -1.03338E+04 -2.07564E+04  6.50309E+03 -1.93706E+04  1.72557E+04 -1.14044E+04  1.56676E+04  3.21561E+03
  5.77068E+03  1.15444E+04 -7.09572E+03  1.05622E+04 -1.38651E+04  2.66896E+03 -1.04345E+04 -7.52171E+03
 -3.67985E+02 -1.28382E+04  6.36312E+03 -9.47068E+03  8.36277E+03 -1.26504E+03  1.21237E+03  4.81115E+03
 -5.40845E+03  8.68487E+02 -4.00602E+03 -4.23244E+03  9.05808E+02 -1.06232E+04  7.82183E+03 -1.02122E+04
  1.25605E+04 -4.96667E+03  1.23532E+04  2.86179E+03  1.02673E+04  1.01682E+04  5.61241E+03  1.49171E+04
 -1.50666E+03  1.59976E+04 -9.54971E+03  1.02512E+04 -1.16152E+04  3.19974E+03 -8.81455E+03 -1.84080E+03
 -3.94714E+03 -3.45139E+03 -1.14908E+03  1.83291E+03 -2.01143E+03  2.08275E+03 -3.60603E+03  3.17755E+03
 -7.86633E+03 -1.02782E+03 -8.74547E+03 -7.16546E+03 -3.77442E+03 -1.16342E+04  3.98825E+03 -8.82305E+03
  7.84469E+03 -3.93976E+03  5.93899E+03  2.55079E+03  2.87302E+02  2.71573E+03 -3.92940E+03 -1.08440E+02
 -3.33188E+03 -5.18791E+03 -8.18072E+02 -6.94204E+03  3.67923E+03 -8.30262E+03  1.01316E+04 -4.19531E+03
  1.17119E+04  9.17202E+02  8.90536E+03  6.63232E+03  2.34182E+03  8.91114E+03 -5.75463E+03  8.46139E+03
 -6.80308E+03  3.01015E+03 -3.74469E+03 -1.50794E+03  1.51233E+03 -1.98890E+03  4.53529E+03 -1.03079E+03
  4.45805E+03  3.27321E+03  8.40693E+02  6.41100E+03 -4.30135E+03  6.19705E+03 -8.41690E+03  2.00274E+03
 -4.72666E+03 -3.48459E+03  1.38950E+02 -6.72811E+03  4.03557E+03 -3.26983E+03  3.77262E+03  9.73498E+02
  5.42726E+02  3.20379E+03 -3.90215E+03  4.96748E+03 -5.55448E+03  2.95466E+03 -4.58137E+03 -1.43962E+03
 -2.93642E+03 -6.47396E+03  1.29416E+03 -6.99119E+03  6.36989E+03 -4.97309E+03  6.38216E+03  9.15194E+02
  4.36678E+03  5.99528E+03 -3.85862E+02  7.38868E+03 -5.11260E+03  4.44599E+03 -5.78938E+03 -8.86311E+02
 -6.26860E+03 -5.08090E+03 -1.61162E+03 -5.25572E+03  3.13698E+03 -5.33790E+03  3.16857E+03 -2.94329E+03
  3.16219E+03 -4.57097E+02 -3.58830E+02  1.63104E+03  2.45079E+02 -6.01443E+02  5.27648E+02 -1.38844E+03
  3.97865E+03 -5.30442E+02  5.71852E+03  6.76206E+02  5.61286E+03  3.21447E+03  4.73613E+03  7.44804E+03
 -1.94964E+03  8.81051E+03 -7.86697E+03  6.58749E+03 -1.08937E+04  1.21701E+03 -7.87472E+03 -2.72580E+03
 -4.99200E+03 -6.12987E+03 -4.39891E+02 -5.74577E+03  2.00313E+03 -2.09165E+03  1.57701E+03 -1.83438E+03
  1.63442E+03 -1.58934E+03  1.93901E+03 -2.82812E+03  4.17354E+03 -1.50474E+03  3.76429E+03  1.03218E+03
  4.60877E+03  7.15353E+02  1.18982E+03  3.39325E+03 -1.56648E+03  2.85661E+03 -4.48834E+03  2.68692E+03
 -5.18467E+03 -1.19488E+03 -1.81257E+03 -3.30960E+03 -3.36609E+01 -5.30814E+03  3.25148E+03 -5.29911E+03
  5.54163E+03 -3.42795E+03  7.18637E+03  5.90437E+02  5.35255E+03  4.58786E+03  1.34719E+03  6.15312E+03
 -1.92914E+03  5.36174E+03 -3.11242E+03  2.30800E+03 -2.21790E+03 -7.89747E+02 -8.02681E+02 -6.79393E+02
 -5.17618E+02  3.63857E+02 -1.07069E+03  1.89868E+03 -2.74328E+03  1.41357E+03 -4.41253E+03 -5.87593E+02
 -1.36982E+03 -3.93762E+03  7.18088E+02 -4.72917E+03  3.13278E+03 -4.44450E+03  3.95118E+03 -1.87096E+03
  4.65976E+03  2.89467E+03  1.65105E+03  2.98713E+03 -8.79628E+02  4.42954E+03 -2.55509E+03  2.70109E+03
 -4.18546E+03  5.25294E+02 -3.48991E+03 -2.30065E+03 -7.18731E+02 -2.91513E+03  1.88211E+03 -2.66044E+03
  3.36369E+03 -1.32412E+03  1.46490E+03  5.38584E+02  1.18636E+03  1.01794E+03  8.84564E+02  7.63879E+02
  1.37037E+03  9.48269E+02  1.42388E+03  9.22677E+02  1.35146E+03  2.34349E+03  1.33495E+03  1.55686E+03
 -1.50877E+03  3.33857E+03 -2.98726E+03  4.20973E+03 -3.09886E+03  1.01309E+03 -4.31254E+03 -8.63633E+02
 -2.50532E+03 -3.98430E+03  7.17654E+02 -5.17077E+03  1.76806E+03 -3.56309E+03  3.15260E+03 -1.22397E+03
  2.45538E+03  2.11326E+03 -2.15105E+02  2.37599E+03 -1.10010E+03  1.84920E+03 -1.19018E+03 -6.51836E+02
 -9.91083E+02 -1.54281E+03  1.30302E+03 -1.27577E+03  1.88701E+03 -1.23903E+03  1.45484E+03 -1.23609E+01
  9.78292E+02  3.63952E+02  1.03579E+03  1.13605E+02 -8.35496E+02  5.21087E+02  1.68422E+03 -6.67474E+02
  2.26501E+02  3.17090E+02  2.35018E+03  3.45264E+02 -1.82498E+02  2.49395E+03 -5.12770E+02  3.07552E+03
 -1.70284E+03  8.06178E+02 -1.90967E+03  1.94844E+02 -2.33838E+03 -9.17724E+02 -7.98066E+02 -9.00355E+02
 -1.01911E+02 -1.80623E+03  1.13941E+03 -7.01437E+02  9.97873E+02  1.16695E+03 -3.82923E+02  5.07396E+02
 -1.52397E+03  5.86890E+02 -1.36196E+03 -1.56887E+03 -5.95807E+02 -2.30202E+03 -1.67958E+01 -1.87748E+03
  1.05596E+03 -9.99192E+02  1.29970E+03  1.17823E+02  1.32832E+03  3.04822E+02  1.30439E+02  1.34831E+03
  9.86991E+01  1.34343E+02 -7.87048E+02 -3.18574E+01  5.13374E+02 -1.59284E+03  1.67936E+03 -7.36599E+02
  1.22756E+03  4.93411E+02  3.38672E+03  9.95375E+02  1.28287E+03  1.95683E+03 -5.19485E+02  2.07875E+03
 -1.37949E+03  7.55614E+01 -1.86191E+03 -4.25769E+02 -7.40269E+02 -1.50687E+03  4.38052E+02 -4.37638E+02
  1.46962E+03 -4.69177E+02  7.66464E+02  7.06539E+02  2.48813E+02  1.44290E+03  2.08550E+02  1.42904E+03
 -5.87013E+02  1.60117E+03 -5.19614E+02  4.40104E+02 -3.51523E+02  1.75092E+02 -9.24797E+02  8.76897E+02
 -1.14588E+03  1.17497E+03 -1.65683E+03  8.26083E+02 -1.73669E+03  6.66621E+01 -2.82060E+03 -1.16903E+03
 -1.37024E+03 -2.29845E+03  5.86007E+02 -2.83831E+03  9.80936E+02 -2.54401E+03  3.00666E+03 -1.26526E+03
  2.44336E+03  1.03924E+02  1.33823E+03  1.99231E+03 -5.11469E+02  1.23777E+03 -1.36533E+03  1.80801E+03
 -7.78159E+02  8.55460E+02 -8.74536E+02 -9.06354E+01 -3.54536E+02 -2.01619E+02 -5.22504E+02 -4.02111E+02
 -1.30090E+03 -1.72077E+02 -3.94210E+02 -9.88034E+01  5.69961E+02 -4.70188E+02 -1.19296E+02 -1.36911E+03
  8.13556E+02 -4.40970E+02  2.83473E+02  3.63372E+02  1.10266E+03  8.79813E+02 -9.66022E+02  1.38322E+03
 -1.36281E+03  2.57186E+03 -1.80159E+03  1.51384E+03 -2.20799E+03  1.75109E+02 -1.85841E+03 -1.43167E+03
 -1.16858E+03 -1.17938E+03  5.35256E+02 -1.35868E+03  8.49378E+02 -7.15157E+02  7.00668E+02  1.57346E+02
  5.00452E+02  7.01438E+01  1.50215E+02  1.06620E+03 -5.33705E+02 -1.93316E+02  5.21323E+01 -7.59280E+01
  8.39859E+02  1.07984E+02 -7.94284E+01  5.84983E+02  2.28439E+02  5.16434E+02  5.70729E+02  8.63632E+01
 -3.84282E+02  4.78681E+02 -8.47561E+02 -8.95097E+01 -8.07616E+02 -6.06928E+02  3.15558E+00 -1.50175E+03
  5.38561E+02 -8.01876E+02  7.38757E+02 -2.06790E+02  8.89040E+02 -4.60988E+02  4.60792E+01  1.22642E+03
  7.57314E+02  8.41004E+02 -3.60382E+02  1.05588E+03 -4.51758E+02  1.05058E+03  4.77448E+01  1.16108E+02
 -2.21701E+02  5.74312E+01 -6.23073E+02 -3.62955E+01 -7.73119E+02 -3.26496E+02 -7.17747E+02 -3.75334E+02
 -1.16053E+03  6.37689E+02 -3.16339E+02 -1.08955E+03  6.84382E+02 -1.98549E+03  9.85346E+02 -1.65368E+02
  8.11422E+02  1.50293E+02 -2.89862E+02  3.24280E+00  5.42048E+01  7.61761E+02 -5.80967E+02  4.69862E+02
