 $NMID ID='MM_0lb_SNR400_17hz_g45_26.RAW', FMTDAT='(8E13.5)'
 TRAMP=1., VOLUME=1. $END
  3.09614E+05  4.70431E+02  3.37052E+05  2.50168E+05  8.45628E+04  3.37791E+05 -1.32607E+05  2.50599E+05
 -1.90181E+05  8.28056E+04 -1.11105E+05 -3.27627E+04  1.35167E+03 -5.06252E+04  5.35928E+04 -7.13324E+02
  3.51814E+04  5.30497E+04 -1.69771E+04  7.50108E+04 -6.00931E+04  6.33496E+04 -8.31421E+04  3.17325E+04
 -7.90453E+04 -1.08410E+04 -5.67780E+04 -5.05701E+04 -1.47371E+04 -6.85585E+04  2.69626E+04 -4.48959E+04
  3.92649E+04  3.96706E+03  1.56084E+04  4.76503E+04 -3.43705E+04  4.64823E+04 -6.49625E+04 -3.53632E+02
 -5.20832E+04 -5.61650E+04 -6.18033E+03 -7.60242E+04  3.28551E+04 -5.36244E+04  4.60013E+04 -1.66950E+04
  4.20929E+04  1.14999E+04  3.13874E+04  2.38643E+04  1.57664E+04  2.86241E+04 -4.92285E+03  2.62158E+04
 -2.17136E+04  1.18682E+04 -1.91750E+04 -4.48302E+03  4.17488E+03 -6.99577E+03  2.10116E+04  1.10308E+04
  7.77917E+03  3.34538E+04 -3.07471E+04  3.45963E+04 -6.20606E+04  2.25745E+03 -5.63269E+04 -4.19481E+04
 -1.22179E+04 -6.13370E+04  3.81405E+04 -4.35199E+04  5.58575E+04 -1.67023E+03  3.19037E+04  3.04093E+04
 -6.51778E+03  3.43125E+04 -2.91321E+04  1.46002E+04 -2.78737E+04 -5.59307E+03 -1.53730E+04 -9.86991E+03
 -7.52908E+03 -1.13364E+04 -4.91345E+02 -1.67974E+04  7.04162E+03 -2.24464E+04  1.49742E+04 -1.34955E+04
  1.17089E+04  4.37307E+03 -6.90707E+03  1.29626E+04 -2.02871E+04 -3.15129E+03 -8.24988E+03 -3.09926E+04
  2.13545E+04 -4.10860E+04  4.56990E+04 -1.90913E+04  4.29087E+04  1.86417E+04  1.44366E+04  4.25641E+04
 -1.56739E+04  3.17025E+04 -2.39208E+04  1.70000E+03 -8.53774E+03 -2.65110E+04  2.10775E+04 -3.18304E+04
  3.90034E+04 -8.09133E+03  3.26543E+04  2.30688E+04  1.60810E+04  4.38967E+04 -8.12829E+03  4.65848E+04
 -2.92830E+04  3.10318E+04 -3.82556E+04  8.67200E+03 -3.96330E+04 -1.57358E+04 -2.17112E+04 -3.57677E+04
  6.86787E+03 -3.51752E+04  3.00116E+04 -1.35111E+04  2.76610E+04  1.04286E+04  3.14273E+03  1.87855E+04
 -1.36501E+04  7.57253E+03 -9.96258E+03 -8.12318E+03  6.18635E+03 -1.05541E+04  1.67576E+04  6.07089E+03
  1.29446E+04  2.10386E+04 -6.29435E+03  2.39557E+04 -2.13248E+04  9.58907E+03 -2.54582E+04 -5.92183E+03
 -1.74465E+04 -1.59529E+04 -6.40974E+03 -1.72725E+04  3.56979E+03 -1.53484E+04  1.33537E+04 -1.52115E+04
  2.26112E+04 -1.20376E+04  2.91106E+04  1.49102E+03  2.20214E+04  1.73217E+04  3.94753E+03  3.38901E+04
 -1.72925E+04  2.83136E+04 -2.63284E+04  8.94876E+03 -1.98802E+04 -1.04976E+04 -4.54615E+03 -1.34257E+04
  2.00099E+03 -3.46079E+03 -3.16718E+03  5.69914E+03 -1.42133E+04  5.35886E+03 -1.36888E+04 -5.97515E+03
 -9.51532E+03 -1.67528E+04  4.91661E+03 -2.06461E+04  1.35344E+04 -1.48312E+04  1.55686E+04 -1.24011E+03
  9.48972E+03  1.12015E+04 -8.87960E+02  1.63093E+04 -1.06872E+04  9.23798E+03 -1.58097E+04 -3.83612E+03
 -1.20876E+04 -1.47711E+04 -1.40456E+03 -1.97817E+04  9.20803E+03 -1.55744E+04  1.69296E+04 -7.73490E+03
  1.58504E+04  2.00812E+02  1.18428E+04  3.51836E+03  5.33008E+03  4.35423E+02  7.74606E+03 -1.41641E+03
  1.50801E+04  2.74617E+03  1.60532E+04  1.36698E+04  1.03852E+04  2.68619E+04 -3.04665E+03  2.86501E+04
 -1.61531E+04  2.19110E+04 -2.60330E+04  1.05860E+04 -2.70157E+04 -1.95031E+03 -2.33355E+04 -1.53935E+04
 -1.00994E+04 -2.18149E+04  7.38195E+03 -2.01493E+04  1.75493E+04 -1.14925E+04  1.63573E+04  3.56028E+03
  6.56838E+03  1.21076E+04 -6.44002E+03  1.19498E+04 -1.39489E+04  3.01024E+03 -1.07326E+04 -8.71923E+03
  4.51230E+02 -1.28745E+04  6.55263E+03 -9.78946E+03  8.68347E+03 -1.17762E+03  1.69050E+03  5.56735E+03
 -5.83614E+03  1.93871E+03 -4.86034E+03 -4.90975E+03  3.28278E+02 -1.06511E+04  8.43285E+03 -1.10584E+04
  1.38543E+04 -5.71494E+03  1.34006E+04  3.04496E+03  1.11042E+04  1.01104E+04  5.65672E+03  1.55772E+04
 -2.67458E+03  1.74858E+04 -1.08343E+04  1.07707E+04 -1.28643E+04  2.50987E+03 -9.25899E+03 -2.57797E+03
 -4.95027E+03 -3.69298E+03 -5.25298E+02  1.67687E+03 -2.60159E+03  2.29294E+03 -4.17904E+03  3.58079E+03
 -8.50118E+03 -6.97000E+02 -9.34822E+03 -7.54419E+03 -3.65551E+03 -1.18148E+04  3.49285E+03 -9.56789E+03
  8.17460E+03 -4.11153E+03  5.35282E+03  2.15771E+03  6.42585E+02  3.22745E+03 -3.56471E+03  4.96755E+02
 -3.81082E+03 -5.65955E+03 -8.66932E+02 -8.12056E+03  4.40687E+03 -8.79320E+03  1.07522E+04 -4.29123E+03
  1.28549E+04  3.64110E+02  9.58727E+03  6.90315E+03  1.74577E+03  9.92343E+03 -5.76253E+03  9.25047E+03
 -7.70854E+03  3.01129E+03 -3.98707E+03 -1.28904E+03  1.06899E+03 -1.91997E+03  4.60226E+03 -9.90297E+02
  4.09421E+03  3.70615E+03  1.53908E+03  7.01284E+03 -5.04084E+03  7.20325E+03 -8.55771E+03  1.25710E+03
 -5.80895E+03 -4.19546E+03 -8.81528E+01 -6.75378E+03  4.43430E+03 -3.56503E+03  4.25477E+03  7.51222E+02
  1.14349E+03  4.23671E+03 -4.82260E+03  5.19432E+03 -5.65052E+03  2.81015E+03 -5.62517E+03 -1.00209E+03
 -3.68828E+03 -6.90548E+03  1.61783E+03 -7.86729E+03  7.12312E+03 -5.44790E+03  7.54868E+03  6.28224E+02
  5.08822E+03  6.03571E+03  2.88078E+02  8.35499E+03 -5.73112E+03  4.69061E+03 -5.79093E+03 -6.03043E+02
 -6.52352E+03 -5.55461E+03 -1.18601E+03 -6.55510E+03  2.31423E+03 -5.13218E+03  3.13327E+03 -3.03765E+03
  3.00381E+03 -9.75230E+01  2.42133E+02  1.35306E+03  5.41378E+02 -4.31895E+02  7.57192E+01 -2.52176E+03
  4.14574E+03 -1.05049E+03  6.37853E+03  7.51176E+02  6.43940E+03  3.69812E+03  6.21116E+03  8.57840E+03
 -1.51397E+03  1.05068E+04 -9.08476E+03  7.13967E+03 -1.16307E+04  1.14239E+03 -8.97842E+03 -3.36684E+03
 -4.45376E+03 -7.83616E+03 -1.58197E+02 -6.50879E+03  2.30023E+03 -3.11998E+03  2.17484E+03 -2.34037E+03
  1.82260E+03 -1.60938E+03  2.39240E+03 -2.00248E+03  3.78576E+03 -1.40716E+03  3.74714E+03  4.33811E+02
  5.66135E+03  1.41815E+03  1.16162E+03  3.80467E+03 -1.63650E+03  3.34224E+03 -4.76600E+03  3.12035E+03
 -5.81125E+03 -5.78249E+02 -2.10698E+03 -4.18375E+03  3.59978E+02 -6.06423E+03  3.69515E+03 -6.27126E+03
  6.40352E+03 -3.72947E+03  7.52043E+03  6.95851E+02  5.78165E+03  5.02626E+03  1.09126E+03  6.70392E+03
 -1.95194E+03  6.82070E+03 -4.00149E+03  1.61226E+03 -2.39535E+03 -1.05458E+03 -1.04306E+03 -5.18164E+02
 -9.96430E+02  4.51975E+02 -1.13926E+03  1.93280E+03 -2.51203E+03  1.48563E+03 -4.17778E+03 -5.46581E+02
 -2.23954E+03 -4.64659E+03  7.63384E+02 -5.72950E+03  3.09006E+03 -5.03768E+03  4.38790E+03 -1.11345E+03
  4.45445E+03  2.93807E+03  1.49139E+03  4.24284E+03 -1.20386E+03  5.59835E+03 -3.18478E+03  3.09353E+03
 -4.79397E+03  4.24463E+01 -3.99606E+03 -3.16857E+03 -9.36674E+01 -4.34142E+03  2.09843E+03 -2.64533E+03
  3.29678E+03 -1.25542E+03  2.04458E+03  2.92681E+02  7.53367E+02  1.77742E+03  6.39646E+02  1.07447E+03
  1.33974E+03  8.02138E+02  1.07010E+03  1.21218E+03  8.81466E+02  2.30216E+03  1.76008E+03  2.02364E+03
 -8.90032E+02  3.73708E+03 -3.45205E+03  4.20972E+03 -4.49466E+03  1.58706E+03 -4.88720E+03 -1.33747E+03
 -1.92125E+03 -4.40629E+03  9.42124E+02 -5.15229E+03  2.53743E+03 -2.98987E+03  4.08350E+03 -5.40440E+02
  3.37338E+03  2.36065E+03  3.47550E+02  2.46470E+03 -1.40035E+03  1.19995E+03 -1.45845E+03 -2.22523E+02
 -7.37255E+02 -1.35182E+03  1.52961E+03 -2.59904E+03  1.86218E+03 -1.12040E+03  1.48348E+03  2.60948E+02
  1.62959E+03  2.62704E+02  8.52213E+02  5.23229E+02 -1.29713E+02  8.25337E+02  1.61075E+03  1.75830E+02
  1.76044E+02 -4.33713E+02  2.40774E+03  8.36423E+02  9.14884E+02  2.61296E+03 -2.98231E+02  3.44617E+03
 -1.89697E+03  1.26287E+03 -3.12412E+03  4.35855E+02 -2.76760E+03 -9.38297E+02 -5.09785E+02 -1.04886E+03
  7.85344E+02 -1.42061E+03  1.03498E+03 -1.07456E+03  8.76228E+02  1.38063E+03 -4.37564E+02  1.20889E+03
 -2.72469E+03  9.84972E+02 -2.02414E+03 -1.64854E+03 -1.52688E+03 -2.93333E+03 -1.99299E+02 -1.85963E+03
  9.55042E+02 -1.01531E+03  1.26581E+03 -2.01041E+01  1.57941E+03 -2.86943E+01  4.70869E+02  1.90260E+03
 -4.81446E+02  6.23530E+02 -1.08552E+03 -3.57878E+02  7.67420E+02 -8.91931E+02  2.39654E+03 -6.92787E+02
  1.57503E+03 -1.46815E+02  3.36665E+03  9.38041E+02  1.45388E+03  2.39792E+03  2.81187E+02  2.43913E+03
 -2.04265E+03  6.72284E+02 -2.03113E+03  7.98198E+01 -1.52381E+03 -1.63276E+03  7.78818E+02 -9.04894E+02
  1.97081E+03 -1.05522E+03  1.38182E+03  4.66503E+02  2.02204E+02  1.27298E+03  4.31955E+00  1.99410E+03
 -6.27701E+02  8.56299E+02 -7.41356E+02  3.87611E+02  4.31714E+02  3.59534E+02 -4.59604E+02  4.46429E+02
 -6.65307E+02  1.58321E+03 -2.19696E+03  1.11772E+03 -1.95107E+03  3.72137E+01 -3.02432E+03 -1.52765E+03
 -1.21325E+03 -3.22148E+03  6.30528E+02 -4.09449E+03  1.76358E+03 -2.76878E+03  3.41279E+03 -9.14652E+02
  3.12801E+03 -1.12607E+02  1.41442E+03  2.19264E+03 -5.89911E+02  2.29982E+03 -1.15955E+03  1.53903E+03
 -1.11710E+03  7.03819E+02 -6.30969E+02 -7.95133E+01 -3.30587E+02 -5.89725E+02 -4.00433E+02 -4.46149E+01
 -1.02328E+03 -1.68540E+02 -1.08214E+03 -1.40640E+02  1.80579E+02 -1.30592E+03 -6.22449E+01 -1.06413E+03
  1.42906E+03 -1.30403E+03  5.16049E+02  2.84335E+02  1.95149E+03  1.38433E+03  5.72181E+02  1.99273E+03
 -9.26389E+02  2.96982E+03 -2.03520E+03  1.56482E+03 -1.92333E+03 -1.06603E+02 -2.20979E+03 -1.81300E+03
 -2.70470E+02 -1.97031E+03 -7.97009E+01 -1.45136E+03  1.29550E+03 -5.34769E+02  1.75803E+03  7.92686E+02
  1.15034E+03  4.25962E+02  5.85019E+01  8.14963E+02 -6.86380E+02  5.48251E+02 -3.78553E+02 -2.12654E+02
  6.99537E+02  3.79830E+02  6.64942E+02  7.68459E+02  6.63689E+02  3.98408E+02  4.24222E+02  1.46154E+03
 -8.86673E+02  8.69482E+02 -1.10236E+03  3.70473E+02 -3.21597E+02 -6.89894E+02 -1.21221E+02 -1.89673E+03
  1.10409E+03 -1.10052E+03  1.01871E+03 -4.71274E+02  1.02579E+03 -3.41706E+02  9.81474E+02  1.29556E+03
  2.89502E+02  6.60534E+02  5.71801E+01  4.28111E+02 -6.91564E+02  1.02942E+03 -9.02953E+02  1.76820E+02
 -8.68065E+02 -4.89597E+02 -1.06922E+03 -5.27916E+02 -7.15080E+02  3.78111E+02 -6.99879E+02 -2.78763E+02
 -1.27263E+03 -4.27794E+02 -1.92342E+01 -1.03538E+03  1.28911E+03 -2.18973E+03  1.18933E+03 -2.50271E+02
  6.77346E+02  4.13494E+02  2.45754E+02  8.73609E+02 -3.83067E+02  1.38812E+03 -4.05339E+02  6.89700E+02
