 $NMID ID='MM_0lb_SNR400_12hz_g40_83.RAW', FMTDAT='(8E13.5)'
 TRAMP=1., VOLUME=1. $END
  3.10007E+05  9.92579E+02  3.37730E+05  2.50550E+05  8.47791E+04  3.38250E+05 -1.32592E+05  2.50939E+05
 -1.90271E+05  8.37573E+04 -1.11113E+05 -3.32629E+04  8.26447E+02 -5.05356E+04  5.31361E+04 -4.97752E+02
  3.52030E+04  5.31877E+04 -1.67651E+04  7.51360E+04 -6.06968E+04  6.37868E+04 -8.51219E+04  3.23456E+04
 -8.11564E+04 -1.08634E+04 -5.73602E+04 -5.13368E+04 -1.51397E+04 -6.94290E+04  2.79547E+04 -4.61540E+04
  4.01411E+04  3.30434E+03  1.62358E+04  4.82073E+04 -3.41437E+04  4.77821E+04 -6.64210E+04  8.87511E+01
 -5.32736E+04 -5.70575E+04 -7.11603E+03 -7.76101E+04  3.31403E+04 -5.44025E+04  4.81603E+04 -1.69344E+04
  4.37303E+04  1.10962E+04  3.26045E+04  2.58350E+04  1.58900E+04  2.94990E+04 -4.66014E+03  2.71742E+04
 -2.17595E+04  1.28475E+04 -1.80933E+04 -4.77808E+03  4.92847E+03 -8.11591E+03  2.26669E+04  1.28359E+04
  6.44865E+03  3.54829E+04 -3.22175E+04  3.56029E+04 -6.37802E+04  2.52838E+03 -5.67790E+04 -4.25779E+04
 -1.27176E+04 -6.36302E+04  3.99066E+04 -4.46951E+04  5.87699E+04 -1.76638E+03  3.45922E+04  3.27518E+04
 -5.85822E+03  3.65000E+04 -3.01429E+04  1.68073E+04 -3.09489E+04 -4.49377E+03 -1.67333E+04 -1.13430E+04
 -9.10397E+03 -1.31160E+04 -8.74577E+02 -1.83132E+04  8.37307E+03 -2.28541E+04  1.53947E+04 -1.26688E+04
  1.12090E+04  6.06313E+03 -8.56551E+03  1.26743E+04 -2.15685E+04 -5.21968E+03 -8.36425E+03 -3.40787E+04
  2.32125E+04 -4.38632E+04  4.92982E+04 -1.94396E+04  4.54982E+04  2.04530E+04  1.59980E+04  4.42170E+04
 -1.58578E+04  3.44022E+04 -2.57173E+04  1.15251E+03 -1.03776E+04 -2.76894E+04  2.13010E+04 -3.35529E+04
  4.11424E+04 -9.89820E+03  3.61067E+04  2.40129E+04  1.85770E+04  4.76267E+04 -8.27744E+03  5.10120E+04
 -3.26154E+04  3.41834E+04 -4.33030E+04  9.65931E+03 -4.28454E+04 -1.67978E+04 -2.44848E+04 -3.84486E+04
  7.66561E+03 -3.86528E+04  3.19102E+04 -1.55241E+04  3.02191E+04  1.08234E+04  3.82445E+03  1.96697E+04
 -1.37663E+04  8.83808E+03 -1.02940E+04 -7.80134E+03  5.94955E+03 -1.10586E+04  1.81123E+04  6.06877E+03
  1.36426E+04  2.20726E+04 -6.18964E+03  2.55822E+04 -2.29719E+04  1.18450E+04 -2.86408E+04 -4.62921E+03
 -2.21183E+04 -1.75010E+04 -8.55454E+03 -2.11561E+04  4.33801E+03 -2.12921E+04  1.59514E+04 -1.83872E+04
  2.71840E+04 -1.35260E+04  3.37779E+04  3.80583E+03  2.45336E+04  2.02862E+04  4.84410E+03  3.74803E+04
 -1.84453E+04  3.07577E+04 -2.78024E+04  1.10567E+04 -2.10445E+04 -1.04098E+04 -4.46659E+03 -1.33491E+04
  9.45094E+02 -2.73941E+03 -5.35536E+03  6.82988E+03 -1.72694E+04  4.83689E+03 -1.72259E+04 -7.51763E+03
 -1.02755E+04 -1.99542E+04  5.54359E+03 -2.45540E+04  1.57722E+04 -1.73660E+04  1.89519E+04 -1.48533E+03
  1.19617E+04  1.37828E+04 -1.23273E+03  1.91780E+04 -1.42030E+04  1.12541E+04 -2.02352E+04 -4.11930E+03
 -1.48128E+04 -1.85771E+04 -2.57945E+03 -2.36613E+04  1.06128E+04 -1.91785E+04  1.96185E+04 -9.98856E+03
  1.78126E+04  1.44256E+02  1.28464E+04  4.57897E+03  6.89287E+03  1.36650E+03  1.09192E+04 -1.54987E+03
  1.82538E+04  3.17296E+03  2.00536E+04  1.59480E+04  1.35534E+04  3.12718E+04 -2.83675E+03  3.59876E+04
 -2.11964E+04  3.00878E+04 -3.33496E+04  1.48332E+04 -3.65095E+04 -1.93182E+03 -2.97437E+04 -2.06854E+04
 -1.27769E+04 -2.95553E+04  1.00350E+04 -2.69972E+04  2.25309E+04 -1.28956E+04  1.98938E+04  5.54008E+03
  6.82835E+03  1.53148E+04 -9.90924E+03  1.35052E+04 -1.65686E+04  2.62409E+03 -1.32802E+04 -1.08200E+04
  2.18855E+02 -1.61108E+04  8.33076E+03 -1.23239E+04  1.01085E+04 -1.56273E+03  2.34257E+03  7.25317E+03
 -7.43145E+03  2.82280E+03 -6.93312E+03 -5.25215E+03 -7.40709E+02 -1.44616E+04  9.42619E+03 -1.54459E+04
  1.80740E+04 -7.66266E+03  1.91791E+04  3.29817E+03  1.71915E+04  1.44266E+04  8.18316E+03  2.20605E+04
 -3.38276E+03  2.47177E+04 -1.56052E+04  1.53083E+04 -1.83359E+04  3.73679E+03 -1.26502E+04 -3.98466E+03
 -5.13218E+03 -5.49734E+03 -6.55672E+02  9.63596E+02 -2.34830E+03  2.44597E+03 -5.22101E+03  4.26505E+03
 -1.14583E+04 -8.31759E+01 -1.21555E+04 -9.03883E+03 -5.49375E+03 -1.56132E+04  4.69339E+03 -1.22732E+04
  1.00254E+04 -5.25936E+03  7.50995E+03  3.61824E+03 -8.21926E+02  4.68751E+03 -5.88270E+03 -5.08881E+01
 -5.90968E+03 -7.66593E+03 -8.01534E+02 -1.14741E+04  6.26278E+03 -1.24208E+04  1.58554E+04 -5.84686E+03
  1.83536E+04  2.10177E+03  1.24877E+04  1.04074E+04  2.46439E+03  1.34906E+04 -7.77451E+03  1.24542E+04
 -1.05132E+04  3.72007E+03 -5.60915E+03 -2.59141E+03  2.36918E+03 -4.00950E+03  6.51607E+03 -5.78114E+02
  6.10520E+03  5.25305E+03  1.36822E+03  9.65968E+03 -6.91682E+03  9.78489E+03 -1.17629E+04  2.01290E+03
 -7.77773E+03 -6.59000E+03  4.95337E+02 -1.07468E+04  6.15518E+03 -5.50137E+03  7.38857E+03  2.53766E+03
  1.41692E+03  6.99274E+03 -5.91124E+03  7.75328E+03 -9.07365E+03  4.45986E+03 -1.00795E+04 -2.90341E+03
 -5.80836E+03 -1.02553E+04  3.30101E+03 -1.32368E+04  1.06113E+04 -7.59133E+03  1.08879E+04  2.46465E+03
  6.86737E+03  9.75196E+03 -7.81812E+02  1.11909E+04 -8.72211E+03  7.34791E+03 -9.02986E+03 -8.57477E+02
 -8.39027E+03 -8.10808E+03 -1.11683E+03 -8.91535E+03  5.12526E+03 -7.39485E+03  5.41213E+03 -3.35736E+03
  4.20803E+03  1.39761E+03 -8.57928E+02  1.98979E+03 -1.35785E+03 -1.49919E+03  1.64546E+03 -5.00494E+03
  7.97806E+03 -2.79523E+03  1.01734E+04  1.16146E+03  1.09742E+04  7.14092E+03  8.00586E+03  1.36087E+04
 -3.38236E+03  1.67275E+04 -1.34375E+04  1.22341E+04 -1.80532E+04  2.05333E+03 -1.48195E+04 -6.08302E+03
 -7.52027E+03 -1.16441E+04 -5.57534E+02 -1.02269E+04  4.24280E+03 -5.63575E+03  3.31662E+03 -3.52532E+03
  2.16631E+03 -2.27544E+03  2.60498E+03 -3.27485E+03  4.68283E+03 -3.38069E+03  5.58567E+03  5.38716E+01
  8.10992E+03  1.44449E+03  3.32468E+03  6.00251E+03 -2.06943E+03  7.37520E+03 -7.70585E+03  5.99360E+03
 -9.49360E+03 -6.85757E+02 -5.43144E+03 -7.07461E+03 -1.04993E+03 -1.07245E+04  6.40260E+03 -1.09504E+04
  9.73077E+03 -6.10660E+03  1.38867E+04  1.14269E+03  9.69411E+03  8.59399E+03  1.43561E+03  1.17097E+04
 -4.58147E+03  9.85320E+03 -6.87099E+03  3.06304E+03 -4.83714E+03 -1.62788E+03 -1.85279E+03 -1.62953E+03
 -9.36745E+02  4.47189E+02 -2.03435E+03  2.36229E+03 -4.20537E+03  1.52567E+03 -7.34484E+03 -1.22356E+03
 -4.36789E+03 -7.34453E+03 -4.29469E+01 -9.84941E+03  6.03141E+03 -8.49118E+03  9.78792E+03 -2.04480E+03
  9.38734E+03  4.46658E+03  4.50348E+03  7.46378E+03 -2.47199E+03  1.00825E+04 -7.20578E+03  5.43882E+03
 -9.13075E+03  6.22734E+02 -6.72565E+03 -6.04654E+03 -7.44509E+02 -8.24051E+03  4.57493E+03 -6.43305E+03
  6.65237E+03 -2.23053E+03  3.50673E+03  1.83301E+03  1.43535E+03  3.19754E+03  1.26115E+03  1.22098E+03
  2.70356E+03  9.63369E+02  2.48444E+03  1.44173E+03  3.00721E+03  3.98138E+03  2.27519E+03  4.48957E+03
 -2.35830E+03  6.89784E+03 -6.42555E+03  7.92268E+03 -9.37006E+03  1.53538E+03 -1.01223E+04 -3.23892E+03
 -4.80338E+03 -9.39053E+03  1.29204E+03 -1.07619E+04  6.10796E+03 -6.71970E+03  7.15644E+03 -2.30757E+03
  6.01681E+03  3.48647E+03  1.80384E+03  5.67995E+03 -1.53258E+03  3.42361E+03 -3.62045E+03 -9.98524E+02
 -1.76504E+03 -3.86594E+03  1.54992E+03 -4.60106E+03  4.27574E+03 -2.44385E+03  3.75420E+03  6.59292E+02
  1.75212E+03  2.21162E+03  1.42046E+03  6.82584E+02 -7.66266E+02  9.93223E+02  1.34035E+03 -1.33433E+03
  1.72277E+03 -2.57924E+02  4.06524E+03  1.69335E+03  2.57035E+03  4.98936E+03 -6.73818E+02  6.48486E+03
 -4.46702E+03  4.71236E+03 -5.76602E+03  3.14180E+02 -6.19900E+03 -2.10960E+03 -1.56930E+03 -3.69136E+03
  1.12154E+03 -3.14766E+03  2.29977E+03 -1.69909E+03  1.66514E+03  2.76053E+03 -1.11011E+03  3.56657E+03
 -3.73327E+03  1.47793E+03 -4.13728E+03 -2.03775E+03 -2.07074E+03 -4.83178E+03  2.40840E+02 -5.30542E+03
  2.51494E+03 -2.42111E+03  3.91793E+03  1.26757E+02  3.62144E+03  6.60742E+02  1.30597E+03  2.87285E+03
 -1.90858E+03  1.06300E+03 -1.77902E+03 -1.88566E+03  7.13409E+02 -2.87746E+03  4.63624E+03 -3.09889E+03
  5.41946E+03  6.17756E+02  5.66591E+03  3.07274E+03  1.96246E+03  5.22177E+03 -1.65192E+03  5.29728E+03
 -5.19200E+03  2.17476E+03 -5.36072E+03 -3.11718E+02 -2.35428E+03 -3.58960E+03  8.72232E+02 -3.30437E+03
  3.63842E+03 -2.24594E+03  2.71906E+03  1.19708E+03  1.34148E+03  3.51021E+03  2.50770E+01  3.12013E+03
 -1.84527E+03  2.19888E+03 -1.47862E+03  7.97318E+02 -5.35386E+02  6.72071E+02 -1.20734E+03  1.68579E+03
 -1.12050E+03  2.59664E+03 -4.95557E+03  2.56090E+03 -5.67811E+03  8.89621E+02 -6.09299E+03 -3.53147E+03
 -3.32189E+03 -6.97491E+03  1.74763E+03 -8.30380E+03  5.59768E+03 -7.13245E+03  7.92588E+03 -2.66977E+03
  6.90727E+03  1.08687E+03  4.23668E+03  5.08850E+03  2.30566E+02  5.96927E+03 -2.27745E+03  5.18013E+03
 -2.96923E+03  1.98625E+03 -2.14934E+03  1.40362E+02 -6.56114E+02 -6.44627E+02 -7.02873E+02 -5.30103E+02
 -1.02900E+03 -3.70568E+02 -9.61742E+02  6.20708E+01 -3.39468E+01 -8.00821E+02  1.89960E+02 -2.28992E+03
  2.26344E+03 -2.07801E+03  2.86619E+03  4.38775E+02  4.69669E+03  2.71914E+03  5.17527E+02  6.43071E+03
 -2.65627E+03  6.99031E+03 -6.20006E+03  4.38632E+03 -7.53723E+03 -1.19420E+02 -5.51227E+03 -4.50814E+03
 -2.09347E+03 -5.40281E+03  1.39192E+03 -5.44862E+03  3.91947E+03 -3.21420E+03  3.38618E+03  3.72776E+02
  1.97052E+03  1.65326E+03 -3.18004E+02  1.72282E+03 -1.35822E+03  2.49417E+01 -1.40169E+02 -1.78920E+03
  1.80722E+03 -2.28726E+02  2.00769E+03  9.30027E+02  1.77627E+03  2.32049E+03  2.55998E+02  2.65444E+03
 -1.94650E+03  2.26829E+03 -3.89164E+03  8.13962E+01 -3.88752E+03 -3.07541E+03 -5.90396E+02 -4.75996E+03
  2.68874E+03 -3.31007E+03  3.83885E+03 -1.06084E+03  4.07541E+03  3.45387E+02  2.54961E+03  3.17231E+03
  9.44453E+02  3.69699E+03 -1.37850E+03  2.73639E+03 -2.86364E+03  1.71204E+03 -1.66114E+03  1.59414E+02
 -1.12839E+03 -3.42711E+02 -1.66428E+03  4.25463E+02 -1.49616E+03  4.14720E+02 -1.76794E+03 -8.16903E+02
 -3.22487E+03 -1.73851E+03 -9.44614E+02 -3.51896E+03  8.46248E+02 -4.50148E+03  3.52076E+03 -1.79401E+03
  4.00048E+03  3.80980E+02  1.87197E+03  2.10609E+03 -1.45713E+02  3.38283E+03 -2.91698E+03  2.54777E+03
