 $NMID ID='MM_0lb_SNR400_17hz_g50_99.RAW', FMTDAT='(8E13.5)'
 TRAMP=1., VOLUME=1. $END
  3.09500E+05  8.61905E+02  3.36913E+05  2.50224E+05  8.44581E+04  3.37784E+05 -1.32587E+05  2.51393E+05
 -1.89784E+05  8.30227E+04 -1.11692E+05 -3.27889E+04  1.26663E+03 -5.03740E+04  5.38854E+04 -1.94202E+01
  3.51005E+04  5.27835E+04 -1.64717E+04  7.52384E+04 -6.01430E+04  6.28325E+04 -8.32884E+04  3.19286E+04
 -8.03052E+04 -1.13150E+04 -5.68196E+04 -5.03927E+04 -1.54248E+04 -6.89017E+04  2.70132E+04 -4.51109E+04
  3.96183E+04  3.66732E+03  1.58976E+04  4.67584E+04 -3.41345E+04  4.66593E+04 -6.52280E+04 -1.40067E+02
 -5.30131E+04 -5.66745E+04 -6.55100E+03 -7.57209E+04  3.36180E+04 -5.42131E+04  4.72320E+04 -1.65967E+04
  4.27285E+04  1.11906E+04  3.17769E+04  2.41252E+04  1.60764E+04  2.86244E+04 -4.99436E+03  2.74373E+04
 -2.17139E+04  1.25773E+04 -1.90219E+04 -4.41804E+03  5.30961E+03 -7.76395E+03  2.10922E+04  1.15672E+04
  7.76882E+03  3.42991E+04 -3.09474E+04  3.51255E+04 -6.30529E+04  2.20164E+03 -5.61462E+04 -4.19753E+04
 -1.19604E+04 -6.19143E+04  3.91178E+04 -4.42939E+04  5.68820E+04 -2.05162E+03  3.25809E+04  3.10378E+04
 -6.22021E+03  3.42637E+04 -2.88434E+04  1.51610E+04 -2.89567E+04 -4.74344E+03 -1.47925E+04 -1.07046E+04
 -7.87185E+03 -1.23626E+04 -1.25397E+03 -1.71148E+04  6.65515E+03 -2.32867E+04  1.57364E+04 -1.37372E+04
  1.19440E+04  4.34398E+03 -6.89961E+03  1.31324E+04 -1.94755E+04 -3.24246E+03 -8.18341E+03 -3.19828E+04
  2.11111E+04 -4.19447E+04  4.60180E+04 -1.86272E+04  4.33205E+04  1.93187E+04  1.53233E+04  4.23510E+04
 -1.54867E+04  3.18687E+04 -2.44444E+04  1.36285E+03 -8.52921E+03 -2.72659E+04  2.06286E+04 -3.22098E+04
  3.94123E+04 -8.55506E+03  3.34401E+04  2.27857E+04  1.68017E+04  4.40277E+04 -7.58717E+03  4.74655E+04
 -2.99991E+04  3.18147E+04 -3.93400E+04  8.16091E+03 -3.96157E+04 -1.59913E+04 -2.20959E+04 -3.56580E+04
  7.16413E+03 -3.51627E+04  2.96282E+04 -1.33654E+04  2.75731E+04  1.10000E+04  2.78697E+03  1.81583E+04
 -1.25971E+04  7.95306E+03 -1.00317E+04 -7.50318E+03  6.16818E+03 -1.03340E+04  1.73645E+04  6.29497E+03
  1.35274E+04  2.15307E+04 -6.19179E+03  2.41192E+04 -2.20866E+04  9.19842E+03 -2.65597E+04 -5.51835E+03
 -1.80333E+04 -1.67907E+04 -6.75911E+03 -1.84555E+04  3.86451E+03 -1.68880E+04  1.40339E+04 -1.61477E+04
  2.28003E+04 -1.29174E+04  3.00030E+04  1.72570E+03  2.23540E+04  1.73160E+04  4.35523E+03  3.45521E+04
 -1.68117E+04  2.83049E+04 -2.68412E+04  1.02080E+04 -2.01042E+04 -1.06474E+04 -4.53414E+03 -1.39086E+04
  1.84991E+03 -3.85567E+03 -3.55447E+03  5.73843E+03 -1.43433E+04  6.10366E+03 -1.45588E+04 -5.84310E+03
 -9.37124E+03 -1.67952E+04  4.77686E+03 -2.12489E+04  1.37297E+04 -1.50911E+04  1.55883E+04 -1.38800E+03
  9.64108E+03  1.12480E+04 -9.95836E+02  1.72503E+04 -1.16098E+04  9.43853E+03 -1.59545E+04 -3.78504E+03
 -1.24508E+04 -1.51469E+04 -1.63124E+03 -1.98146E+04  9.63816E+03 -1.65171E+04  1.74795E+04 -8.20198E+03
  1.55939E+04  3.43513E+02  1.19642E+04  4.07635E+03  5.53581E+03  3.23808E+02  7.99524E+03 -1.08305E+03
  1.57266E+04  2.52441E+03  1.66498E+04  1.38032E+04  1.07446E+04  2.60732E+04 -3.29431E+03  2.92485E+04
 -1.76706E+04  2.26158E+04 -2.69897E+04  1.09144E+04 -2.80247E+04 -1.91383E+03 -2.34539E+04 -1.59577E+04
 -1.09896E+04 -2.27041E+04  7.91019E+03 -2.12914E+04  1.82908E+04 -1.11618E+04  1.75806E+04  3.86348E+03
  6.84041E+03  1.25810E+04 -7.53237E+03  1.17300E+04 -1.44574E+04  2.31135E+03 -1.11325E+04 -8.63836E+03
 -5.81377E+02 -1.36968E+04  6.51188E+03 -1.03238E+04  9.15838E+03 -8.13967E+02  1.35974E+03  5.10438E+03
 -6.34432E+03  2.20257E+03 -4.01814E+03 -4.71316E+03  5.00119E+01 -1.11399E+04  8.82149E+03 -1.13102E+04
  1.37652E+04 -5.79040E+03  1.45273E+04  2.92417E+03  1.16767E+04  1.13148E+04  5.65176E+03  1.60320E+04
 -2.15432E+03  1.83164E+04 -1.16578E+04  1.16726E+04 -1.33475E+04  3.36148E+03 -9.49680E+03 -2.04274E+03
 -4.59824E+03 -4.04372E+03 -8.04398E+02  1.02567E+03 -2.25836E+03  2.55046E+03 -3.71202E+03  3.37652E+03
 -8.92149E+03 -1.04158E+02 -9.31096E+03 -7.92101E+03 -4.10447E+03 -1.26294E+04  4.33086E+03 -8.82429E+03
  8.00274E+03 -4.62261E+03  5.34233E+03  2.30780E+03  1.82786E+02  3.23353E+03 -4.05348E+03 -7.34385E+01
 -3.93697E+03 -6.42543E+03 -8.82576E+02 -8.79236E+03  4.58369E+03 -8.67041E+03  1.11632E+04 -4.55222E+03
  1.29316E+04  6.49609E+02  9.96739E+03  7.08054E+03  2.18240E+03  1.05722E+04 -5.53690E+03  9.14184E+03
 -7.51170E+03  3.02868E+03 -4.78942E+03 -1.83109E+03  1.47301E+03 -2.24797E+03  5.63240E+03 -7.63242E+02
  4.51929E+03  4.10517E+03  1.32533E+03  7.01755E+03 -4.86594E+03  7.38827E+03 -8.31951E+03  2.25565E+03
 -5.40585E+03 -4.42053E+03  3.48461E+02 -6.68310E+03  4.21997E+03 -3.75588E+03  3.77644E+03  1.17624E+03
  8.39308E+02  3.83867E+03 -4.84273E+03  5.16497E+03 -5.70316E+03  2.77077E+03 -5.70764E+03 -1.10063E+03
 -3.29509E+03 -7.28266E+03  1.55783E+03 -8.27092E+03  7.12846E+03 -5.31029E+03  7.43331E+03  1.48170E+03
  4.94823E+03  6.07842E+03 -6.56932E+01  8.10299E+03 -5.30544E+03  5.21948E+03 -6.06437E+03 -5.94040E+02
 -6.90806E+03 -6.27001E+03 -1.63115E+03 -5.41976E+03  3.08820E+03 -4.98413E+03  3.11495E+03 -3.50257E+03
  2.78396E+03  4.77951E+02  1.80001E+02  9.59334E+02  5.03973E+02 -1.90061E+02  6.94621E+02 -3.17392E+03
  4.90050E+03 -1.41160E+03  6.50179E+03  7.79696E+02  6.33470E+03  4.44629E+03  5.63241E+03  8.91296E+03
 -1.59336E+03  1.05550E+04 -9.61004E+03  7.74001E+03 -1.16873E+04  1.44389E+03 -9.10426E+03 -3.27516E+03
 -4.61326E+03 -7.26424E+03 -5.74586E+02 -6.19174E+03  2.80837E+03 -2.90235E+03  2.18595E+03 -2.42442E+03
  1.61843E+03 -1.55952E+03  2.39901E+03 -2.50591E+03  3.96718E+03 -1.43563E+03  4.24046E+03  1.41642E+02
  4.99547E+03  1.17133E+03  1.78922E+03  4.35850E+03 -1.38811E+03  3.85358E+03 -5.33642E+03  3.58375E+03
 -6.12928E+03 -5.29855E+02 -2.71357E+03 -3.94724E+03  3.02510E+02 -6.48351E+03  3.25175E+03 -7.09666E+03
  6.07359E+03 -4.12051E+03  8.30614E+03  4.23314E+02  5.13017E+03  5.69421E+03  1.44848E+03  6.88960E+03
 -3.14676E+03  7.12320E+03 -4.23951E+03  2.24751E+03 -1.94137E+03 -1.33232E+03 -3.30562E+02 -4.85304E+02
 -4.73924E+02  4.28980E+02 -8.50522E+02  1.42542E+03 -2.92218E+03  1.78882E+03 -4.35103E+03 -8.00138E+02
 -2.35744E+03 -4.58964E+03  1.37480E+03 -5.83212E+03  3.46760E+03 -4.92875E+03  4.53654E+03 -1.17052E+03
  5.21294E+03  2.44441E+03  2.41628E+03  3.84863E+03 -1.25954E+03  5.35235E+03 -3.82553E+03  3.35851E+03
 -4.42686E+03  2.81529E+02 -3.82635E+03 -3.51477E+03  5.61655E+01 -5.04497E+03  2.76019E+03 -2.84693E+03
  3.75439E+03 -1.80019E+03  2.43411E+03  1.53204E+02  4.17215E+02  2.51789E+03  9.52945E+02  3.10241E+02
  1.92486E+03  5.71147E+02  1.59430E+03  1.47126E+02  1.44081E+03  2.06546E+03  1.82813E+03  2.05213E+03
 -1.37108E+03  3.81771E+03 -3.58842E+03  4.70436E+03 -4.36760E+03  1.35065E+03 -5.17601E+03 -9.85128E+02
 -2.43543E+03 -5.26623E+03  1.27688E+03 -6.00369E+03  3.17142E+03 -2.41422E+03  4.29359E+03 -1.30834E+03
  3.15317E+03  2.37019E+03  6.12501E+02  2.84125E+03 -1.36524E+03  2.00757E+03 -1.88989E+03 -2.87909E+02
 -9.69293E+02 -1.93782E+03  1.42459E+03 -2.05858E+03  1.80923E+03 -1.27364E+03  2.51282E+03  3.47520E+02
  8.62239E+02 -1.52502E+01  5.29133E+02 -1.31663E+02 -7.44455E+02  8.02691E+02  1.54559E+03 -4.11374E+02
  3.95539E+01 -6.14004E+02  1.87664E+03  7.34566E+02  5.87703E+01  2.91205E+03 -5.06122E+02  3.14333E+03
 -2.26913E+03  1.58084E+03 -2.76701E+03  3.34852E+02 -2.30281E+03 -1.00620E+03 -3.99973E+02 -1.13170E+03
  2.45600E+01 -1.89979E+03  1.50299E+03 -9.17986E+02  1.11874E+03  1.37327E+03 -1.00991E+03  8.07318E+02
 -1.66691E+03  7.60517E+02 -1.56035E+03 -1.49535E+03 -7.88875E+02 -2.15147E+03  2.89919E+02 -2.11841E+03
  9.92711E+02 -8.34394E+02  8.12593E+02 -3.65815E+02  1.15999E+03  1.62857E+02  1.08373E+03  1.32315E+03
 -5.11089E+02 -4.39802E+02 -1.04210E+03 -3.45157E+02  3.95625E+02 -7.14907E+02  1.95394E+03 -1.46615E+03
  1.73400E+03  4.29657E+00  3.54047E+03  1.35453E+03  1.11202E+03  2.64333E+03 -4.41691E+02  3.06690E+03
 -1.91997E+03  4.05432E+02 -2.31751E+03  2.50776E+02 -1.28683E+03 -1.56451E+03  1.32325E+02 -1.43571E+03
  1.21276E+03 -8.07997E+02  1.11695E+03  4.32283E+02  4.74580E+01  1.39567E+03 -5.71358E+02  9.99858E+02
 -1.83475E+02  5.61030E+02 -5.50317E+02  2.52943E+02  1.51912E+02  4.01417E+02 -7.41991E+02  6.13090E+02
 -4.89084E+02  1.39602E+03 -1.62923E+03  5.43026E+02 -2.31042E+03 -5.58192E+01 -3.58962E+03 -1.82046E+03
 -7.47732E+02 -2.29968E+03  5.65363E+02 -4.18258E+03  1.20181E+03 -3.10544E+03  3.45475E+03 -1.02426E+03
  3.45432E+03 -2.62636E+02  1.43088E+03  2.40453E+03 -5.43172E+02  2.19330E+03 -1.32742E+03  1.71547E+03
 -1.56054E+03  1.39608E+03 -2.54505E+02  2.96917E+02 -5.55509E+02  2.91504E+02 -1.00860E+03  2.57812E+02
 -1.32246E+03 -1.55120E+02 -7.89060E+02 -4.23911E+02  8.37712E+01 -6.13631E+02 -2.26143E+02 -1.59632E+03
  1.74338E+03 -5.00017E+02  8.52309E+02 -2.18177E+01  1.49428E+03  9.42410E+02 -5.75958E+02  1.88976E+03
 -1.00613E+03  2.37143E+03 -2.22081E+03  1.41928E+03 -2.14076E+03 -1.67890E+02 -1.62420E+03 -1.63951E+03
 -1.00050E+03 -1.67300E+03 -6.63098E+00 -1.74472E+03  1.18215E+03 -8.93310E+02  8.93743E+02  2.70088E+01
  9.94191E+02  1.00188E+03 -4.44281E+02  1.16211E+02 -1.87298E+02 -1.67753E+02 -2.07568E+02 -9.15468E+01
  8.33403E+02  7.50839E+01  4.14707E+02  8.43875E+02  6.18293E+02  2.78456E+02  1.01941E+03  5.54460E+02
 -6.56616E+02  8.96954E+02 -8.37155E+02 -1.19173E+02 -9.84402E+02 -7.63788E+02  2.91589E+02 -1.41290E+03
  7.18730E+02 -8.27771E+02  9.53049E+02 -1.38498E+02  1.61055E+03 -3.74564E+02  9.76941E+02  1.11931E+03
  5.31376E+02  9.33445E+02 -8.01151E+02  7.28227E+02 -3.93998E+02  9.63532E+02 -8.00960E+02 -1.67792E+02
 -3.17696E+02 -1.62631E+01 -4.49037E+02 -5.83273E+02 -1.35253E+03  6.85403E+02 -7.72155E+02 -1.96774E+02
 -1.14824E+03 -1.77025E+02  1.51036E+02 -1.51352E+03  8.10573E+02 -2.66372E+03  9.94907E+02 -1.29493E+03
  1.33809E+03 -1.53765E+02  1.42184E+02  4.83403E+02  4.02619E+01  1.22066E+03 -6.54595E+02  7.53219E+02
