 $NMID ID='MM_0lb_SNR400_19hz_g45_77.RAW', FMTDAT='(8E13.5)'
 TRAMP=1., VOLUME=1. $END
  3.09902E+05  5.19145E+02  3.37212E+05  2.50326E+05  8.38889E+04  3.37865E+05 -1.32304E+05  2.50034E+05
 -1.89517E+05  8.26429E+04 -1.10747E+05 -3.29755E+04  1.71708E+03 -5.01104E+04  5.37097E+04  1.93549E+02
  3.52155E+04  5.22855E+04 -1.73694E+04  7.52110E+04 -6.06331E+04  6.26050E+04 -8.28056E+04  3.10717E+04
 -7.94765E+04 -1.08716E+04 -5.61476E+04 -4.98834E+04 -1.54860E+04 -6.80940E+04  2.66762E+04 -4.40822E+04
  3.84580E+04  4.22526E+03  1.49300E+04  4.72699E+04 -3.37480E+04  4.60626E+04 -6.49729E+04 -2.08984E+02
 -5.15889E+04 -5.63865E+04 -6.59133E+03 -7.48719E+04  3.27824E+04 -5.32614E+04  4.59167E+04 -1.60205E+04
  4.15189E+04  1.07724E+04  3.06826E+04  2.44282E+04  1.56883E+04  2.84393E+04 -4.80825E+03  2.63405E+04
 -2.14331E+04  1.27235E+04 -1.89516E+04 -4.08463E+03  4.03509E+03 -7.77102E+03  2.10887E+04  1.08487E+04
  7.63971E+03  3.27751E+04 -3.00620E+04  3.36301E+04 -6.03009E+04  2.64952E+03 -5.47979E+04 -4.12500E+04
 -1.20040E+04 -6.06413E+04  3.83218E+04 -4.27297E+04  5.47872E+04 -1.60950E+03  3.21986E+04  3.00693E+04
 -6.81873E+03  3.29703E+04 -2.78333E+04  1.23647E+04 -2.71051E+04 -5.11370E+03 -1.41121E+04 -1.05378E+04
 -7.14668E+03 -1.13204E+04 -7.84867E+02 -1.59465E+04  6.65806E+03 -2.20229E+04  1.49344E+04 -1.35735E+04
  1.28451E+04  3.84722E+03 -6.22053E+03  1.30851E+04 -1.88109E+04 -2.59732E+03 -8.02936E+03 -2.99021E+04
  2.06993E+04 -4.02133E+04  4.39783E+04 -1.83205E+04  4.14365E+04  1.79280E+04  1.37505E+04  4.12239E+04
 -1.54839E+04  3.06987E+04 -2.34298E+04  1.69005E+03 -7.76658E+03 -2.63490E+04  2.05510E+04 -3.08172E+04
  3.74181E+04 -6.93452E+03  3.06307E+04  2.26310E+04  1.50852E+04  4.19668E+04 -7.87150E+03  4.46174E+04
 -2.83602E+04  2.92881E+04 -3.64812E+04  8.01647E+03 -3.80360E+04 -1.45485E+04 -2.08246E+04 -3.31597E+04
  6.93493E+03 -3.36145E+04  2.92259E+04 -1.21890E+04  2.67920E+04  1.07390E+04  2.35377E+03  1.76952E+04
 -1.27494E+04  6.97903E+03 -9.81305E+03 -7.43514E+03  5.81484E+03 -1.02265E+04  1.70087E+04  6.23096E+03
  1.23974E+04  2.08860E+04 -6.64306E+03  2.28195E+04 -2.12971E+04  9.16930E+03 -2.44892E+04 -6.21241E+03
 -1.62940E+04 -1.57757E+04 -5.03168E+03 -1.60969E+04  3.60217E+03 -1.44519E+04  1.21825E+04 -1.37306E+04
  2.05655E+04 -1.11782E+04  2.73236E+04  1.24513E+03  2.08260E+04  1.55745E+04  3.85551E+03  3.18163E+04
 -1.58966E+04  2.72633E+04 -2.56300E+04  9.07339E+03 -1.98391E+04 -1.04827E+04 -4.13803E+03 -1.39529E+04
  2.91226E+03 -4.02972E+03 -2.78935E+03  5.03317E+03 -1.22935E+04  5.66477E+03 -1.35705E+04 -5.09633E+03
 -8.44825E+03 -1.48515E+04  4.19309E+03 -1.99028E+04  1.20209E+04 -1.39258E+04  1.43081E+04 -1.47052E+03
  8.01072E+03  1.04799E+04 -1.52714E+03  1.51575E+04 -1.01716E+04  8.01258E+03 -1.47994E+04 -2.96273E+03
 -1.10871E+04 -1.42499E+04 -9.70713E+02 -1.85233E+04  8.74859E+03 -1.51436E+04  1.59486E+04 -7.55754E+03
  1.43548E+04  7.87310E+02  1.04661E+04  4.00583E+03  5.17867E+03  4.46119E+02  7.92937E+03 -1.42525E+03
  1.34769E+04  2.81514E+03  1.40670E+04  1.21843E+04  8.86077E+03  2.38233E+04 -2.63356E+03  2.58591E+04
 -1.54396E+04  1.98049E+04 -2.39092E+04  9.14753E+03 -2.40586E+04 -1.48077E+03 -2.06416E+04 -1.42581E+04
 -9.79765E+03 -1.93554E+04  6.71008E+03 -1.85831E+04  1.62235E+04 -1.02991E+04  1.51310E+04  3.33043E+03
  6.30630E+03  1.09814E+04 -6.62653E+03  9.83675E+03 -1.31235E+04  3.27516E+03 -1.01411E+04 -7.29676E+03
  2.52460E+02 -1.19806E+04  5.69760E+03 -9.80362E+03  7.46198E+03 -8.43190E+02  1.44323E+03  5.02852E+03
 -5.44033E+03  1.52258E+03 -3.96451E+03 -4.65683E+03  7.78048E+02 -9.37366E+03  8.19250E+03 -9.43737E+03
  1.22284E+04 -4.01752E+03  1.11333E+04  2.92452E+03  9.58015E+03  9.44750E+03  4.79324E+03  1.34260E+04
 -1.31907E+03  1.53418E+04 -9.22950E+03  9.57951E+03 -1.05780E+04  2.98670E+03 -7.90113E+03 -1.12178E+03
 -4.25042E+03 -3.18550E+03 -4.93250E+02  1.79627E+03 -1.75288E+03  1.94152E+03 -3.48062E+03  3.54761E+03
 -7.76052E+03 -7.36220E+02 -8.38537E+03 -6.96908E+03 -3.79298E+03 -1.11730E+04  3.18734E+03 -8.27633E+03
  7.12508E+03 -3.21889E+03  5.21010E+03  1.90458E+03  5.51736E+02  3.24517E+03 -3.25983E+03 -4.96403E+02
 -3.15788E+03 -4.56065E+03 -7.85836E+02 -7.41934E+03  3.53617E+03 -7.88481E+03  9.51843E+03 -3.61652E+03
  1.08991E+04  3.55956E+02  8.45868E+03  5.64567E+03  1.27384E+03  7.54008E+03 -5.68867E+03  7.81594E+03
 -6.89439E+03  2.76133E+03 -3.45916E+03 -1.18175E+03  1.50143E+03 -1.68688E+03  4.77420E+03 -5.17128E+02
  3.98159E+03  2.65976E+03  1.11172E+03  5.88021E+03 -4.58404E+03  6.32317E+03 -7.25863E+03  1.47741E+03
 -4.54276E+03 -4.14635E+03  2.45288E+02 -5.85565E+03  3.86435E+03 -3.06986E+03  3.45076E+03  7.26412E+02
  3.73865E+02  2.98080E+03 -4.04792E+03  4.06437E+03 -4.47268E+03  2.00186E+03 -4.21277E+03 -9.29026E+02
 -2.66087E+03 -5.37629E+03  7.70003E+02 -6.87807E+03  5.39227E+03 -4.05690E+03  5.63473E+03  9.89990E+02
  4.26546E+03  5.20604E+03  4.90837E+02  6.26168E+03 -4.96201E+03  4.47234E+03 -4.63338E+03 -5.76693E+02
 -5.26344E+03 -4.93054E+03 -1.24745E+03 -4.73801E+03  1.74642E+03 -4.78525E+03  3.24932E+03 -2.92144E+03
  3.32921E+03  4.87620E+02  1.78008E+02  1.04454E+03  1.10824E+02 -2.08866E+02  1.73542E+02 -1.86200E+03
  3.25767E+03 -1.05407E+03  4.77552E+03  5.61474E+02  5.16136E+03  3.28411E+03  4.75391E+03  6.82588E+03
 -6.32245E+02  7.45842E+03 -7.25771E+03  6.25185E+03 -9.48323E+03  9.37448E+02 -7.20203E+03 -2.19063E+03
 -3.73743E+03 -6.56908E+03 -2.37014E+02 -4.37396E+03  2.01264E+03 -2.29883E+03  1.39546E+03 -1.61469E+03
  1.29044E+03 -1.36595E+03  2.22485E+03 -2.27140E+03  3.57159E+03 -1.53427E+03  3.31726E+03  9.54189E+02
  4.24962E+03  1.23067E+03  9.38628E+02  2.95342E+03 -1.61493E+03  2.89411E+03 -4.43310E+03  2.27435E+03
 -4.64851E+03 -4.08039E+02 -1.21324E+03 -2.96570E+03  6.38243E+01 -4.76308E+03  2.64674E+03 -4.89681E+03
  4.94462E+03 -3.34694E+03  6.40208E+03  6.62230E+02  4.22107E+03  4.12572E+03  9.82051E+02  5.66142E+03
 -2.19165E+03  5.66150E+03 -3.12679E+03  1.86625E+03 -1.76157E+03 -9.10397E+02  1.85892E+01 -8.84231E+02
 -7.54363E+02  7.91615E+02 -4.73569E+02  1.71654E+03 -2.49721E+03  8.31988E+02 -3.91932E+03 -4.84859E+02
 -1.08077E+03 -3.51014E+03  8.86082E+02 -4.42823E+03  2.14022E+03 -4.68378E+03  3.25636E+03 -1.05121E+03
  3.72094E+03  2.07393E+03  1.60475E+03  3.52249E+03 -1.22680E+03  3.81172E+03 -1.68950E+03  2.10203E+03
 -3.73793E+03  6.21255E+02 -3.13447E+03 -2.41911E+03  1.67181E+01 -2.55712E+03  1.54734E+03 -2.21172E+03
  2.08640E+03 -1.49040E+03  1.39152E+03  1.92548E+02  2.92302E+02  1.47469E+03  9.84775E+02  4.16391E+02
  1.78092E+03  7.47012E+02  8.26311E+02  1.18264E+03  8.39470E+02  2.13415E+03  1.49132E+03  1.57365E+03
 -7.02326E+02  2.87501E+03 -1.86737E+03  4.26437E+03 -2.80072E+03  1.34301E+03 -3.55983E+03 -9.78635E+00
 -1.67560E+03 -3.47550E+03  4.47730E+02 -4.55509E+03  1.92055E+03 -2.33343E+03  2.90664E+03 -9.48109E+02
  2.23819E+03  2.08186E+03  5.43014E+02  1.93949E+03 -4.64077E+02  1.56250E+03 -6.85949E+02  3.99769E+01
 -9.04546E+02 -1.08496E+03  7.84036E+02 -1.28877E+03  9.94453E+02 -5.98409E+02  1.17803E+03  1.53318E+02
  1.11153E+03 -1.29001E+02  7.10229E+02 -4.09742E+02 -3.37889E+02  9.33919E+02  1.35176E+03 -1.80779E+02
 -1.52056E+02 -6.01218E+02  1.86883E+03  3.01848E+02  2.51317E+02  2.44216E+03 -6.66937E+01  2.85416E+03
 -1.06874E+03  1.04121E+03 -1.92755E+03  6.83830E+02 -2.24600E+03 -3.54288E+02 -1.12145E+02 -9.79991E+02
  3.66459E+02 -1.36903E+03  8.35213E+02 -1.13518E+03  7.74571E+02  1.30255E+03 -6.46642E+02  1.12836E+03
 -1.95976E+03  8.05788E+02 -1.17508E+03 -1.84365E+03 -7.81334E+02 -2.14041E+03  3.01182E+02 -1.53876E+03
  4.63086E+02 -9.18694E+01  4.97958E+02 -4.92287E+00  9.47303E+02 -2.70511E+02  3.94666E+02  7.36891E+02
 -1.21554E+02  3.57977E+02 -1.00712E+03 -8.05691E+01  9.95222E+02 -6.06415E+02  1.23394E+03 -6.49433E+02
  1.41819E+03  3.77890E+02  1.97853E+03  8.85250E+02  1.08518E+03  1.30717E+03 -1.03403E+02  1.97316E+03
 -9.93165E+02 -3.99385E+02 -1.31723E+03 -3.02495E+02 -8.83228E+02 -1.48986E+03  1.31592E+02 -7.96094E+02
  1.74620E+03 -8.82330E+02  9.31108E+02  1.01786E+03  1.96513E+02  1.30777E+03  9.97278E+01  8.31169E+02
 -3.16606E+02  7.50540E+02 -5.45250E+02  3.20970E+02  6.06085E+00 -2.36069E+02 -8.36457E+01  7.19765E+02
 -4.18695E+02  9.09602E+02 -2.10059E+03  6.16599E+02 -1.41902E+03  1.57342E+02 -1.68057E+03 -5.32424E+02
 -6.85482E+02 -1.88660E+03 -2.29760E+02 -2.46090E+03  5.10985E+02 -2.76940E+03  2.21434E+03 -1.23091E+03
  2.11809E+03  2.28750E+02  1.09925E+03  1.46225E+03 -5.67391E+02  1.23838E+03 -5.74284E+02  9.19751E+02
 -5.67073E+02  1.39833E+03 -4.92927E+02 -4.08270E+02 -5.87381E+02  3.88686E+02 -2.25413E+01  1.08024E+00
 -1.01700E+03 -3.38634E+02 -7.63763E+02  3.55648E+02  7.11793E+02 -9.48025E+02 -2.96619E+02 -6.06230E+02
  1.36477E+03 -4.28538E+02  1.83034E+02  9.43080E+01  6.67583E+02  8.28482E+02 -4.99271E+02  1.65750E+03
 -1.46230E+03  1.88379E+03 -1.48314E+03  1.36315E+03 -1.87012E+03  9.00489E+01 -1.15406E+03 -7.03435E+02
 -5.94131E+02 -1.30859E+03  6.55515E+02 -1.40664E+03  8.56342E+02 -3.36673E+02  7.07631E+02  1.09096E+02
  8.62497E+02  4.27583E+02  5.10304E+02  5.15846E+02 -5.49554E+02 -3.36713E+02 -6.40620E+02 -4.62546E+02
  1.41355E+02  2.44371E+02  1.14239E+02  4.21100E+02 -6.21750E+01  2.21211E+02  3.93379E+02  2.72627E+02
 -9.24749E+02  1.00727E+03 -4.08523E+02  3.26087E+02  9.47047E+01 -3.41255E+02 -2.25435E+02 -9.88651E+02
  5.20442E+02 -7.65806E+02 -2.99636E+02  5.34480E+01  3.68074E+02 -4.09268E+02  7.04263E+02  8.10847E+02
  4.67107E+02  2.99127E+02 -5.22659E+02  5.08682E+02 -1.04596E+02  9.29603E+02 -1.75428E+02  7.48814E+02
 -3.48054E+02  9.02963E+01 -4.87752E+02 -2.03999E+02 -7.28395E+02  7.16065E+01 -1.04857E+03 -4.60840E+02
 -5.92358E+02  9.81189E+01 -7.07315E+02 -6.20961E+02  3.14524E+02 -2.07334E+03  4.47180E+01 -3.07231E+02
  5.73575E+02  3.46424E+02  3.60061E+01  2.05205E+02 -3.07659E+02  3.29123E+02 -1.35231E+02  2.37944E+02
