 $NMID ID='MM_0lb_SNR400_13hz_g45_52.RAW', FMTDAT='(8E13.5)'
 TRAMP=1., VOLUME=1. $END
  3.09800E+05 -7.44633E+00  3.37764E+05  2.51260E+05  8.39482E+04  3.38266E+05 -1.32357E+05  2.50999E+05
 -1.89954E+05  8.32732E+04 -1.11464E+05 -3.28179E+04  1.32135E+03 -5.02564E+04  5.36535E+04 -3.51176E+02
  3.55991E+04  5.24678E+04 -1.69448E+04  7.51897E+04 -6.05500E+04  6.31677E+04 -8.37424E+04  3.24197E+04
 -8.11967E+04 -1.10002E+04 -5.73288E+04 -5.17297E+04 -1.44385E+04 -6.95755E+04  2.78401E+04 -4.61461E+04
  4.02155E+04  3.21001E+03  1.57983E+04  4.79512E+04 -3.44319E+04  4.74593E+04 -6.67640E+04 -9.88822E+02
 -5.39720E+04 -5.72770E+04 -6.15156E+03 -7.74390E+04  3.37562E+04 -5.56300E+04  4.83811E+04 -1.71318E+04
  4.34958E+04  1.14248E+04  3.20656E+04  2.55262E+04  1.58511E+04  2.96070E+04 -5.46217E+03  2.76030E+04
 -2.23521E+04  1.15857E+04 -1.78787E+04 -5.59497E+03  5.31841E+03 -8.11768E+03  2.16591E+04  1.25818E+04
  7.10782E+03  3.56739E+04 -3.21010E+04  3.58294E+04 -6.31788E+04  2.32722E+03 -5.72531E+04 -4.27687E+04
 -1.24622E+04 -6.29288E+04  4.01985E+04 -4.59539E+04  5.84819E+04 -2.03262E+03  3.49056E+04  3.21193E+04
 -5.51832E+03  3.58301E+04 -3.03337E+04  1.64340E+04 -3.02438E+04 -3.87394E+03 -1.73360E+04 -1.14830E+04
 -8.14994E+03 -1.32596E+04 -8.27369E+02 -1.84660E+04  7.41239E+03 -2.38969E+04  1.52295E+04 -1.35810E+04
  1.16658E+04  4.85571E+03 -8.31952E+03  1.26296E+04 -2.11756E+04 -4.83128E+03 -8.35388E+03 -3.36114E+04
  2.23968E+04 -4.41534E+04  4.87541E+04 -1.99120E+04  4.55907E+04  1.92658E+04  1.56717E+04  4.45599E+04
 -1.63870E+04  3.34033E+04 -2.54779E+04  1.41865E+03 -9.89245E+03 -2.79072E+04  2.15735E+04 -3.44218E+04
  4.17352E+04 -9.23516E+03  3.61670E+04  2.32416E+04  1.83251E+04  4.71106E+04 -8.51928E+03  5.03423E+04
 -3.19087E+04  3.44599E+04 -4.29223E+04  9.77510E+03 -4.31700E+04 -1.65345E+04 -2.37271E+04 -3.85484E+04
  7.06023E+03 -3.85462E+04  3.14551E+04 -1.45018E+04  3.02651E+04  1.15367E+04  5.19264E+03  1.90008E+04
 -1.34374E+04  8.21358E+03 -9.89608E+03 -7.58152E+03  5.14323E+03 -1.10331E+04  1.83726E+04  6.65889E+03
  1.29809E+04  2.22620E+04 -5.82703E+03  2.56321E+04 -2.24310E+04  1.17077E+04 -2.81784E+04 -4.55464E+03
 -2.08112E+04 -1.72706E+04 -8.75373E+03 -2.09032E+04  3.84917E+03 -2.01167E+04  1.58864E+04 -1.84601E+04
  2.68719E+04 -1.32655E+04  3.34343E+04  3.34260E+03  2.40343E+04  2.04755E+04  4.43486E+03  3.65970E+04
 -1.82657E+04  3.10920E+04 -2.82172E+04  1.04846E+04 -2.10113E+04 -1.01336E+04 -4.58981E+03 -1.35006E+04
  1.72608E+03 -2.35588E+03 -4.80008E+03  7.00518E+03 -1.64924E+04  4.38308E+03 -1.70007E+04 -6.82330E+03
 -1.03990E+04 -1.99234E+04  4.68666E+03 -2.35416E+04  1.54831E+04 -1.69748E+04  1.90766E+04 -1.92997E+03
  1.21027E+04  1.35769E+04 -7.12992E+02  1.91593E+04 -1.31507E+04  1.07141E+04 -1.93281E+04 -4.38896E+03
 -1.40283E+04 -1.72180E+04 -1.52625E+03 -2.35486E+04  1.03623E+04 -1.99843E+04  1.92695E+04 -9.46834E+03
  1.85638E+04 -1.87555E+02  1.34052E+04  4.54101E+03  6.79645E+03  1.74661E+03  9.73469E+03 -1.40787E+03
  1.80207E+04  2.62164E+03  1.95985E+04  1.55589E+04  1.26107E+04  3.09540E+04 -2.92301E+03  3.53925E+04
 -1.97178E+04  2.81821E+04 -3.30026E+04  1.42977E+04 -3.43452E+04 -2.42229E+03 -2.82630E+04 -2.06655E+04
 -1.17224E+04 -2.90817E+04  1.00228E+04 -2.54415E+04  2.19342E+04 -1.35770E+04  1.93061E+04  5.90490E+03
  7.05364E+03  1.47356E+04 -9.01202E+03  1.28501E+04 -1.65860E+04  2.80448E+03 -1.26778E+04 -1.07571E+04
 -2.95881E+02 -1.61342E+04  8.42664E+03 -1.19907E+04  1.06022E+04 -1.22314E+03  2.86193E+03  6.49191E+03
 -8.44598E+03  3.37349E+03 -6.73533E+03 -5.37046E+03 -1.33700E+03 -1.37811E+04  9.58227E+03 -1.50283E+04
  1.68904E+04 -8.15146E+03  1.92312E+04  3.52684E+03  1.64337E+04  1.40185E+04  7.04839E+03  2.11380E+04
 -3.70391E+03  2.31991E+04 -1.44311E+04  1.41204E+04 -1.65405E+04  3.61586E+03 -1.11736E+04 -4.17283E+03
 -5.43535E+03 -5.39416E+03 -5.82595E+02  6.23829E+02 -2.27332E+03  3.18089E+03 -5.97702E+03  3.79418E+03
 -1.05680E+04 -4.57064E+02 -1.17072E+04 -9.65479E+03 -5.00648E+03 -1.53899E+04  5.16120E+03 -1.16453E+04
  9.58895E+03 -5.04625E+03  6.97906E+03  2.43272E+03 -2.16635E+01  4.67867E+03 -5.60762E+03  2.55286E+02
 -5.84398E+03 -7.75443E+03 -7.20326E+02 -1.10784E+04  6.22718E+03 -1.28004E+04  1.43005E+04 -6.28626E+03
  1.64873E+04  1.25820E+03  1.31093E+04  9.70991E+03  2.18459E+03  1.38003E+04 -6.94408E+03  1.17878E+04
 -9.49912E+03  3.75824E+03 -5.34175E+03 -2.38763E+03  1.97879E+03 -3.51898E+03  6.18697E+03 -1.07205E+03
  5.52182E+03  4.66262E+03  1.53832E+03  9.20989E+03 -7.04709E+03  9.03591E+03 -1.17784E+04  2.16726E+03
 -7.71345E+03 -5.92083E+03  5.08462E+02 -1.01751E+04  5.80778E+03 -5.13142E+03  6.27032E+03  2.50061E+03
  1.77309E+03  5.90974E+03 -6.38384E+03  7.95937E+03 -8.96441E+03  4.71723E+03 -8.77292E+03 -3.13029E+03
 -5.68074E+03 -1.04948E+04  2.38714E+03 -1.22821E+04  1.00289E+04 -7.91632E+03  1.15332E+04  2.44019E+03
  6.98369E+03  8.68114E+03 -9.30598E+02  1.14380E+04 -8.33438E+03  6.81889E+03 -9.03686E+03 -1.07870E+03
 -7.87927E+03 -7.38694E+03 -1.78533E+03 -8.29697E+03  4.75606E+03 -6.78736E+03  5.18506E+03 -3.84234E+03
  2.93178E+03  1.85187E+03 -9.80384E+02  1.53620E+03 -2.57434E+02 -1.41693E+03  1.31684E+03 -3.91392E+03
  7.30957E+03 -2.30189E+03  1.01552E+04  5.98480E+02  1.06058E+04  6.35772E+03  6.97593E+03  1.30434E+04
 -2.69310E+03  1.58376E+04 -1.30927E+04  1.12639E+04 -1.66615E+04  2.05914E+03 -1.42348E+04 -5.63171E+03
 -7.43624E+03 -1.09038E+04 -4.85353E+02 -9.07626E+03  3.67546E+03 -4.84377E+03  3.00746E+03 -3.91991E+03
  2.43553E+03 -2.47351E+03  2.17077E+03 -3.06574E+03  5.33824E+03 -2.56716E+03  5.15209E+03 -6.37637E+02
  7.06404E+03  1.33945E+03  3.10320E+03  5.69864E+03 -1.71971E+03  6.65515E+03 -7.42495E+03  5.16767E+03
 -8.89550E+03 -1.31593E+03 -5.44041E+03 -6.53202E+03 -5.16249E+02 -9.84985E+03  5.96187E+03 -9.96556E+03
  9.90571E+03 -5.72010E+03  1.25130E+04  7.89985E+02  8.68908E+03  8.75206E+03  1.80416E+03  1.14904E+04
 -4.85285E+03  9.85186E+03 -6.44142E+03  3.44237E+03 -4.17151E+03 -1.62957E+03 -1.20117E+03 -1.43668E+03
 -7.84944E+02 -2.82137E+02 -1.74741E+03  2.98720E+03 -4.71865E+03  1.82376E+03 -6.37218E+03 -1.11634E+03
 -4.26565E+03 -6.56722E+03  9.03034E+02 -9.66163E+03  6.06682E+03 -8.09542E+03  8.71038E+03 -2.07261E+03
  8.94561E+03  4.33686E+03  4.02465E+03  8.01439E+03 -2.11159E+03  8.57241E+03 -5.66752E+03  5.37014E+03
 -7.79489E+03  9.00661E+02 -6.49680E+03 -5.17934E+03 -4.01903E+02 -7.23018E+03  3.23687E+03 -5.33482E+03
  5.40252E+03 -2.34602E+03  3.77181E+03  1.65364E+03  8.40772E+02  2.64353E+03  8.74000E+02  1.31879E+03
  2.20263E+03  4.08129E+02  1.57701E+03  1.11029E+03  2.42754E+03  3.81513E+03  2.44920E+03  4.47134E+03
 -1.90219E+03  6.65839E+03 -5.09310E+03  7.30980E+03 -8.12539E+03  1.74363E+03 -8.20643E+03 -3.05936E+03
 -3.60687E+03 -8.54472E+03  1.35886E+03 -9.95959E+03  4.79163E+03 -5.83271E+03  6.92033E+03 -1.29462E+03
  5.25819E+03  4.04463E+03  1.49729E+03  5.10807E+03 -2.37748E+03  3.51560E+03 -3.50528E+03 -6.70371E+02
 -2.10503E+03 -3.27736E+03  3.11520E+03 -3.99639E+03  3.38215E+03 -2.24450E+03  3.77023E+03  8.63098E+02
  1.66355E+03  1.15101E+03  1.13376E+03  7.73044E+02 -3.67418E+01  1.19442E+03  9.41050E+02 -8.15795E+01
  7.36019E+02 -6.94580E+02  3.25988E+03  9.94511E+02  1.18320E+03  4.10659E+03 -6.08271E+02  6.38118E+03
 -3.60353E+03  3.70633E+03 -5.68920E+03  9.50534E+02 -4.53638E+03 -1.94802E+03 -1.09939E+03 -3.33872E+03
  5.80828E+02 -3.49541E+03  1.76002E+03 -9.97356E+02  1.90767E+03  2.11191E+03 -1.08111E+03  2.64492E+03
 -3.47491E+03  9.29222E+02 -3.77030E+03 -2.12093E+03 -1.83725E+03 -4.27928E+03  4.13924E+02 -4.73548E+03
  2.61236E+03 -2.87523E+03  2.81139E+03  8.87083E+00  2.25844E+03  6.00882E+02  1.08686E+03  1.97541E+03
 -6.32394E+02  7.06603E+02 -2.63794E+03 -1.50466E+03  1.50047E+03 -2.58113E+03  4.01951E+03 -3.08961E+03
  4.30945E+03  6.51368E+02  5.00698E+03  2.88019E+03  1.89599E+03  5.07198E+03 -1.87277E+03  4.74006E+03
 -4.16443E+03  1.60894E+03 -5.14669E+03  1.19051E+02 -1.83291E+03 -2.92173E+03  5.00701E+02 -3.05087E+03
  3.94298E+03 -1.90433E+03  2.56829E+03  1.72486E+03  7.59457E+02  3.34684E+03  4.70204E+02  2.58435E+03
 -8.94123E+02  1.98065E+03 -7.76888E+02  5.31255E+02 -2.62443E+02  6.61924E+02 -7.85756E+02  6.73163E+02
 -1.45980E+03  1.85471E+03 -3.99129E+03  1.97711E+03 -4.61133E+03  3.29053E+02 -5.49197E+03 -2.89415E+03
 -2.48140E+03 -5.73870E+03  2.64041E+02 -7.43313E+03  3.59832E+03 -6.04541E+03  7.42473E+03 -1.98598E+03
  6.13086E+03  1.16701E+03  4.86854E+03  4.11093E+03  6.76444E+02  4.80037E+03 -2.11345E+03  3.66710E+03
 -2.66110E+03  7.02996E+02 -1.57862E+03 -4.97497E+02 -1.42380E+03 -2.02788E+02 -2.60228E+02  1.37116E+02
 -1.11836E+03 -3.33348E+02 -1.79037E+03 -8.90366E+00  3.45242E+02 -1.01613E+03 -1.09695E+02 -2.36727E+03
  2.53780E+03 -1.65555E+03  2.22165E+03  3.85765E+02  3.23942E+03  2.91127E+03  2.74780E+02  4.81915E+03
 -2.29749E+03  5.83043E+03 -5.41275E+03  3.16018E+03 -5.74495E+03 -3.11540E+02 -3.94220E+03 -3.84317E+03
 -2.26048E+03 -4.91460E+03  1.45011E+03 -4.00315E+03  3.29918E+03 -2.05560E+03  3.05710E+03  2.20392E+02
  1.62637E+03  2.41906E+02  5.29267E+02  1.52855E+03 -4.48575E+02 -3.29546E+02  5.71767E+01 -8.69937E+02
  9.23246E+02 -6.26311E+02  1.79955E+03  1.13759E+03  1.16758E+03  1.85616E+03  3.86601E+02  2.18393E+03
 -1.82276E+03  2.95772E+03 -2.53387E+03  6.25299E+02 -2.63597E+03 -2.15834E+03  1.20494E+02 -3.85071E+03
  2.29052E+03 -3.16002E+03  2.88540E+03 -7.14773E+02  3.60541E+03  3.64093E+02  2.08551E+03  2.39916E+03
  1.11711E+03  3.60483E+03 -9.79128E+02  2.07790E+03 -1.77457E+03  1.16228E+03 -9.80789E+02  4.36484E+02
 -8.99431E+02  1.05983E+02 -1.49365E+03  1.43558E+02 -1.92725E+03 -1.74471E+02 -2.67831E+03 -6.99009E+02
 -2.30920E+03 -1.07471E+03 -1.17554E+03 -2.64043E+03  1.50715E+03 -2.87130E+03  2.42198E+03 -1.31008E+03
  2.92190E+03  2.03183E+02  5.33943E+02  2.19813E+03 -4.81614E+02  2.70178E+03 -1.81642E+03  1.45855E+03
