 $NMID ID='MM_0lb_SNR400_18hz_g60_31.RAW', FMTDAT='(8E13.5)'
 TRAMP=1., VOLUME=1. $END
  3.09601E+05  9.79886E+02  3.37737E+05  2.50716E+05  8.42535E+04  3.38266E+05 -1.33094E+05  2.51019E+05
 -1.90015E+05  8.32169E+04 -1.11132E+05 -3.25123E+04  1.50249E+03 -5.08430E+04  5.31892E+04 -1.76184E+02
  3.56156E+04  5.28488E+04 -1.61406E+04  7.58771E+04 -6.07275E+04  6.36625E+04 -8.40539E+04  3.18701E+04
 -8.03566E+04 -1.10350E+04 -5.70310E+04 -5.06695E+04 -1.53565E+04 -6.95252E+04  2.60057E+04 -4.50641E+04
  4.01033E+04  3.75972E+03  1.61619E+04  4.76021E+04 -3.42769E+04  4.67184E+04 -6.68046E+04 -4.90751E+02
 -5.30851E+04 -5.60690E+04 -6.93708E+03 -7.63284E+04  3.38680E+04 -5.41342E+04  4.75189E+04 -1.68318E+04
  4.28582E+04  1.13077E+04  3.12661E+04  2.50480E+04  1.57016E+04  2.90763E+04 -5.33483E+03  2.65775E+04
 -2.21715E+04  1.25672E+04 -1.85835E+04 -4.59995E+03  4.77300E+03 -7.39314E+03  2.15859E+04  1.20485E+04
  7.25042E+03  3.47245E+04 -3.11767E+04  3.45198E+04 -6.30723E+04  2.10321E+03 -5.68410E+04 -4.19849E+04
 -1.23123E+04 -6.22847E+04  3.91320E+04 -4.51857E+04  5.73753E+04 -1.82541E+03  3.41712E+04  3.16446E+04
 -6.32926E+03  3.51797E+04 -2.96422E+04  1.48019E+04 -2.96542E+04 -4.96587E+03 -1.57424E+04 -1.05861E+04
 -8.04477E+03 -1.21535E+04 -1.25582E+03 -1.77528E+04  7.34487E+03 -2.26400E+04  1.55213E+04 -1.33139E+04
  1.19133E+04  4.89347E+03 -7.54166E+03  1.30916E+04 -2.05919E+04 -3.58021E+03 -8.54479E+03 -3.22860E+04
  2.21445E+04 -4.23233E+04  4.69609E+04 -1.93435E+04  4.39999E+04  1.90508E+04  1.52194E+04  4.33183E+04
 -1.56401E+04  3.24109E+04 -2.48916E+04  1.57873E+03 -8.97333E+03 -2.62807E+04  2.02115E+04 -3.33210E+04
  4.04123E+04 -8.00119E+03  3.44508E+04  2.31702E+04  1.70637E+04  4.46666E+04 -7.37073E+03  4.86835E+04
 -3.04048E+04  3.22860E+04 -4.05116E+04  8.74122E+03 -4.10701E+04 -1.59290E+04 -2.21478E+04 -3.66609E+04
  7.45795E+03 -3.60604E+04  3.09040E+04 -1.37227E+04  2.81265E+04  1.12932E+04  3.88882E+03  1.87858E+04
 -1.32961E+04  8.09801E+03 -9.79646E+03 -7.48718E+03  5.68384E+03 -1.05471E+04  1.78993E+04  6.52009E+03
  1.19508E+04  2.19282E+04 -6.10434E+03  2.41712E+04 -2.16343E+04  1.00943E+04 -2.66851E+04 -5.16099E+03
 -1.87730E+04 -1.71629E+04 -7.37747E+03 -1.83601E+04  3.48854E+03 -1.79011E+04  1.43929E+04 -1.69203E+04
  2.36717E+04 -1.25709E+04  3.05224E+04  2.26434E+03  2.24382E+04  1.81264E+04  4.64475E+03  3.46156E+04
 -1.70902E+04  2.89509E+04 -2.73140E+04  9.53647E+03 -2.03557E+04 -1.02143E+04 -3.88257E+03 -1.34551E+04
  2.11565E+03 -3.29639E+03 -3.51689E+03  6.23449E+03 -1.38798E+04  5.11572E+03 -1.48888E+04 -5.99776E+03
 -9.21037E+03 -1.70101E+04  5.08549E+03 -2.10024E+04  1.35446E+04 -1.56881E+04  1.59632E+04 -1.68816E+03
  1.04567E+04  1.20227E+04 -1.04379E+03  1.74251E+04 -1.17258E+04  9.93251E+03 -1.66025E+04 -4.40703E+03
 -1.28041E+04 -1.57689E+04 -1.40481E+03 -2.10879E+04  9.59051E+03 -1.66961E+04  1.75512E+04 -8.57866E+03
  1.57070E+04 -4.78048E-01  1.19749E+04  4.31696E+03  6.17296E+03  9.14049E+02  8.31764E+03 -1.08224E+03
  1.56813E+04  2.43255E+03  1.66196E+04  1.39589E+04  1.02265E+04  2.72444E+04 -3.38439E+03  3.02125E+04
 -1.72992E+04  2.40620E+04 -2.76180E+04  1.09394E+04 -2.91868E+04 -2.06422E+03 -2.42095E+04 -1.63473E+04
 -1.10573E+04 -2.35049E+04  8.09429E+03 -2.12524E+04  1.83980E+04 -1.18090E+04  1.70849E+04  4.48868E+03
  6.83236E+03  1.25400E+04 -7.66099E+03  1.13197E+04 -1.43059E+04  2.72960E+03 -1.10544E+04 -8.50120E+03
 -6.82134E+02 -1.35558E+04  7.32518E+03 -1.00273E+04  8.91230E+03 -1.47790E+03  2.00403E+03  5.97417E+03
 -6.12295E+03  2.28369E+03 -4.59763E+03 -4.63503E+03  7.34708E+02 -1.16323E+04  8.48112E+03 -1.19179E+04
  1.38569E+04 -5.95321E+03  1.38280E+04  3.25636E+03  1.24240E+04  1.12818E+04  5.93291E+03  1.64728E+04
 -2.18267E+03  1.83287E+04 -1.09329E+04  1.14251E+04 -1.24268E+04  2.63031E+03 -9.20903E+03 -2.01271E+03
 -4.85849E+03 -4.11877E+03 -5.69956E+02  9.30286E+02 -2.17898E+03  2.13166E+03 -4.14483E+03  3.39743E+03
 -8.98060E+03 -3.25328E+02 -9.93565E+03 -7.49216E+03 -3.76784E+03 -1.33506E+04  4.01487E+03 -9.68966E+03
  8.02794E+03 -3.80273E+03  5.93984E+03  2.77006E+03  7.16691E+02  2.77573E+03 -3.53474E+03 -2.63974E+02
 -4.58294E+03 -6.02220E+03 -8.24785E+02 -8.54663E+03  4.58194E+03 -9.13233E+03  1.08883E+04 -4.24153E+03
  1.32644E+04  9.35486E+02  1.00857E+04  7.42825E+03  1.71599E+03  9.31497E+03 -5.85437E+03  9.48336E+03
 -8.12599E+03  3.35307E+03 -3.93337E+03 -1.29584E+03  1.68229E+03 -2.67453E+03  5.43857E+03 -8.54973E+02
  3.72872E+03  3.86603E+03  1.43257E+03  6.93910E+03 -5.01575E+03  7.22545E+03 -9.03917E+03  1.74814E+03
 -5.99001E+03 -4.18320E+03  3.38658E+02 -7.22809E+03  4.84789E+03 -3.66994E+03  4.17594E+03  1.59576E+03
  8.47342E+02  3.98020E+03 -4.40515E+03  5.84269E+03 -6.05870E+03  2.43414E+03 -5.29929E+03 -1.28136E+03
 -3.77449E+03 -6.75125E+03  1.44400E+03 -7.94089E+03  6.93406E+03 -5.80700E+03  7.68737E+03  1.71165E+03
  5.03659E+03  6.09651E+03 -4.51797E+02  8.14948E+03 -5.92179E+03  4.90891E+03 -6.66204E+03 -8.12017E+02
 -6.23952E+03 -5.40731E+03 -1.04966E+03 -5.27792E+03  2.75481E+03 -4.89332E+03  3.55127E+03 -3.15057E+03
  3.27862E+03  6.22170E+02  1.53917E+02  1.37850E+03  8.80961E+02 -7.01384E+01  3.93645E+02 -2.42744E+03
  4.39355E+03 -1.39122E+03  6.58235E+03  9.71948E+02  6.32640E+03  3.76816E+03  5.47366E+03  8.24662E+03
 -1.13140E+03  1.01199E+04 -8.77857E+03  8.20708E+03 -1.11446E+04  1.50736E+03 -8.79473E+03 -3.70340E+03
 -5.02377E+03 -7.42274E+03 -8.38688E+02 -5.98022E+03  2.44482E+03 -2.58573E+03  2.36237E+03 -2.68006E+03
  1.33481E+03 -1.82706E+03  2.32263E+03 -2.13209E+03  3.71332E+03 -1.38338E+03  3.70939E+03  5.49690E+02
  4.63858E+03  9.03505E+02  1.31400E+03  4.13839E+03 -1.04877E+03  3.53167E+03 -4.98324E+03  3.41058E+03
 -5.94631E+03 -9.53051E+02 -2.47588E+03 -3.09954E+03  7.82756E+02 -5.01307E+03  3.46456E+03 -6.29316E+03
  6.43917E+03 -3.02076E+03  7.77171E+03  4.13794E+02  4.83987E+03  5.13780E+03  8.80194E+02  6.80428E+03
 -2.96282E+03  5.81077E+03 -3.90554E+03  2.24468E+03 -1.82790E+03 -5.68058E+02 -5.96453E+02 -7.58739E+02
 -4.35658E+02  9.70835E+02 -1.34624E+03  1.78691E+03 -2.43584E+03  1.15519E+03 -4.64586E+03 -8.79499E+02
 -1.97126E+03 -4.43762E+03  1.51051E+03 -4.49596E+03  3.23067E+03 -5.08786E+03  4.68707E+03 -1.18386E+03
  4.62695E+03  2.52666E+03  1.89670E+03  4.14283E+03 -8.80864E+02  4.61432E+03 -3.36166E+03  3.15870E+03
 -3.85408E+03  7.97172E+02 -3.35536E+03 -3.04670E+03 -7.98597E+00 -3.38249E+03  1.87445E+03 -3.25528E+03
  3.01793E+03 -1.34505E+03  2.05963E+03  1.03066E+03  1.07900E+03  1.70067E+03  7.74204E+02  3.88410E+02
  1.99628E+03  6.16787E+02  1.21202E+03  1.14612E+03  1.84968E+03  2.94841E+03  1.53044E+03  2.19724E+03
 -1.77454E+03  3.52037E+03 -2.75058E+03  4.67492E+03 -3.74954E+03  1.06436E+03 -4.90664E+03 -6.54342E+02
 -2.01585E+03 -4.38538E+03  1.00371E+03 -5.41672E+03  1.79373E+03 -2.43061E+03  3.51207E+03 -1.25364E+03
  2.30974E+03  1.85554E+03  9.75116E+02  2.18870E+03 -8.70678E+02  1.84599E+03 -1.22529E+03 -2.90556E+02
 -6.68200E+02 -2.28077E+03  1.31289E+03 -1.71262E+03  1.55579E+03 -1.32220E+03  1.32063E+03  4.89832E+02
  1.92325E+02  6.96336E+02  4.38057E+02  3.45646E+01 -8.98825E+01  1.77016E+02  9.94469E+02  1.65193E+02
  8.60816E+01 -4.90451E+02  1.76129E+03  5.69144E+02  8.74836E+01  2.60537E+03 -4.35956E+02  3.23550E+03
 -9.49601E+02  1.07556E+03 -2.90831E+03  2.34468E+02 -2.54522E+03 -6.22853E+02 -5.38249E+02 -1.49151E+03
  5.82059E+02 -1.52982E+03  1.01191E+03 -6.94524E+02  9.73394E+02  1.11838E+03 -7.84507E+02  7.75339E+02
 -1.98775E+03  4.23533E+02 -1.09927E+03 -1.06796E+03 -1.23694E+03 -2.34442E+03  7.65915E+01 -1.81111E+03
  9.03218E+02 -1.05391E+00  1.05758E+03  5.14569E+02  1.55601E+03 -3.01678E+02  9.27533E+01  7.47759E+02
 -1.62838E+02 -5.50196E+01 -1.29032E+03  2.55396E+02  9.19221E+02 -1.45240E+03  1.95733E+03 -9.32115E+02
  1.64533E+03  2.90509E+01  3.25391E+03  7.73982E+02  1.22187E+03  2.08902E+03 -7.16336E+02  1.75861E+03
 -1.17470E+03  7.56279E+02 -2.00898E+03 -8.47643E+01 -1.02614E+03 -1.06152E+03  2.22900E+02 -6.78697E+02
  1.84372E+03 -7.81220E+02  1.06664E+03  1.01628E+03  3.60692E+02  9.70362E+02  4.85324E+02  1.16743E+03
 -8.78176E+01  9.08835E+02 -5.76783E+02  5.49293E+02 -2.70617E+02  5.36329E+02 -1.13546E+03  9.09381E+02
 -7.67683E+02  8.20223E+02 -1.59022E+03  3.23374E+02 -1.79808E+03  1.80637E+02 -3.09083E+03 -1.11669E+03
 -1.12023E+03 -3.33051E+03  1.04501E+03 -2.76768E+03  1.13092E+03 -2.35090E+03  2.89502E+03 -9.59691E+02
  1.70045E+03  5.75815E+02  1.14716E+03  1.60390E+03 -8.18100E+02  2.03788E+03 -1.82330E+02  1.31219E+03
 -8.93619E+02  3.93779E+02 -5.52984E+02 -1.96221E+02 -5.23016E+02  3.42703E+02 -5.99944E+02 -6.33525E+02
 -1.07528E+03 -2.43750E+02 -7.90610E+02  2.86687E+01  2.45497E+02 -5.71223E+02  1.08557E+02 -7.44567E+02
  1.45191E+03 -1.42829E+03  1.01722E+02 -2.50010E+02  9.44931E+02  1.36882E+03 -3.99896E+02  1.56999E+03
 -1.10978E+03  2.26496E+03 -2.08145E+03  1.15600E+03 -2.25267E+03 -2.47303E+02 -1.35605E+03 -1.14614E+03
 -1.66162E+03 -1.45429E+03 -3.76064E+01 -1.26300E+03  5.53887E+02 -1.08319E+03  9.22857E+02 -2.34450E+01
  2.86201E+02  1.77628E+02  8.48846E+02  2.57884E+02  1.46077E+02  2.72893E+02 -1.26485E+02  3.88200E+01
  5.91566E+02  2.01735E+02  1.84503E+01  2.30961E+02  6.28741E+02  3.41138E+02  2.64692E+02 -1.12993E+02
 -6.35474E+02  9.32909E+02 -7.39885E+02  1.25296E+02 -9.47620E+02 -7.17742E+02 -2.58784E+02 -1.31706E+03
  1.83060E+02 -7.50417E+02  8.06192E+02 -2.54750E+02  1.09988E+03 -4.79849E+02  2.10788E+02  6.97964E+02
  3.34467E+02  1.36403E+02 -3.54900E+02  6.69103E+02 -7.55662E+02  1.05673E+03 -2.38501E+02  1.87366E+01
 -2.39165E+02 -4.32680E+01 -4.81688E+02 -7.46399E+01 -8.89950E+02  5.74795E+02 -1.20846E+03 -2.57054E+02
 -1.37086E+03  3.31184E+02 -3.08210E+02 -5.09374E+02  3.96293E+02 -1.47897E+03  1.19216E+03 -4.70122E+02
  4.30042E+02  4.29466E+02 -7.01127E+02  6.48383E+02  1.78552E+02  6.64540E+02 -2.04841E+01  4.66698E+02
