 $NMID ID='MM_0lb_SNR400_17hz_g40_18.RAW', FMTDAT='(8E13.5)'
 TRAMP=1., VOLUME=1. $END
  3.09656E+05  6.48135E+02  3.37823E+05  2.50841E+05  8.42786E+04  3.37729E+05 -1.32086E+05  2.51030E+05
 -1.90163E+05  8.25358E+04 -1.10994E+05 -3.29816E+04  1.33312E+03 -5.05270E+04  5.37115E+04  7.41180E+02
  3.47358E+04  5.25011E+04 -1.65401E+04  7.48846E+04 -6.00666E+04  6.21185E+04 -8.27970E+04  3.19100E+04
 -7.97032E+04 -1.06931E+04 -5.57589E+04 -5.06533E+04 -1.50828E+04 -6.89966E+04  2.68506E+04 -4.47693E+04
  3.90460E+04  3.50555E+03  1.57173E+04  4.71224E+04 -3.40785E+04  4.66096E+04 -6.54134E+04 -7.36271E+02
 -5.22099E+04 -5.59909E+04 -6.11731E+03 -7.48096E+04  3.36371E+04 -5.33531E+04  4.60980E+04 -1.63576E+04
  4.17402E+04  1.11846E+04  3.10070E+04  2.48278E+04  1.57913E+04  2.82965E+04 -4.39158E+03  2.68396E+04
 -2.18769E+04  1.26405E+04 -1.90207E+04 -4.80857E+03  4.54541E+03 -7.72083E+03  2.15089E+04  1.09222E+04
  6.89125E+03  3.30183E+04 -3.08738E+04  3.44583E+04 -6.12204E+04  2.04974E+03 -5.55115E+04 -4.14927E+04
 -1.23932E+04 -6.07130E+04  3.82500E+04 -4.35388E+04  5.61880E+04 -1.85364E+03  3.22267E+04  3.11638E+04
 -6.80202E+03  3.35190E+04 -2.86619E+04  1.38609E+04 -2.78904E+04 -5.19984E+03 -1.41018E+04 -1.01023E+04
 -7.64849E+03 -1.13816E+04 -5.52154E+02 -1.65227E+04  6.29991E+03 -2.24878E+04  1.46928E+04 -1.37082E+04
  1.22155E+04  4.45475E+03 -6.57522E+03  1.29616E+04 -1.88784E+04 -2.53696E+03 -8.26069E+03 -3.06018E+04
  2.02864E+04 -4.05754E+04  4.44136E+04 -1.85826E+04  4.26234E+04  1.86316E+04  1.45974E+04  4.22962E+04
 -1.55926E+04  3.14149E+04 -2.41423E+04  9.85281E+02 -8.18846E+03 -2.64435E+04  2.09437E+04 -3.20603E+04
  3.77374E+04 -7.67582E+03  3.17368E+04  2.25457E+04  1.59254E+04  4.31723E+04 -7.59348E+03  4.54625E+04
 -2.84873E+04  3.00939E+04 -3.77256E+04  8.92745E+03 -3.94554E+04 -1.52632E+04 -2.18510E+04 -3.48934E+04
  7.27063E+03 -3.43778E+04  2.96187E+04 -1.28945E+04  2.69108E+04  1.12861E+04  3.00915E+03  1.79926E+04
 -1.32569E+04  7.50875E+03 -9.08329E+03 -7.31745E+03  6.12737E+03 -9.46413E+03  1.69396E+04  6.30213E+03
  1.22885E+04  2.21188E+04 -6.95177E+03  2.37638E+04 -2.09639E+04  9.87049E+03 -2.60997E+04 -6.06163E+03
 -1.74307E+04 -1.69875E+04 -6.03236E+03 -1.73666E+04  3.57757E+03 -1.53561E+04  1.30727E+04 -1.52718E+04
  2.16716E+04 -1.13037E+04  2.79701E+04  1.56464E+03  2.14143E+04  1.67854E+04  4.20873E+03  3.25854E+04
 -1.59952E+04  2.83440E+04 -2.60954E+04  9.93953E+03 -1.97125E+04 -1.08460E+04 -4.23510E+03 -1.36780E+04
  2.63191E+03 -4.33284E+03 -2.55301E+03  5.80186E+03 -1.30309E+04  5.06655E+03 -1.37944E+04 -4.95699E+03
 -8.48966E+03 -1.53859E+04  4.66012E+03 -2.00869E+04  1.39988E+04 -1.47161E+04  1.53282E+04 -1.24825E+03
  8.85275E+03  1.15253E+04 -1.11522E+03  1.64491E+04 -1.08055E+04  9.18155E+03 -1.59042E+04 -3.59796E+03
 -1.22522E+04 -1.50125E+04 -1.48527E+03 -1.91686E+04  9.28428E+03 -1.53329E+04  1.64433E+04 -7.33039E+03
  1.46779E+04  1.07243E+03  1.10695E+04  3.88324E+03  6.51275E+03  4.62775E+02  7.36914E+03 -1.41410E+03
  1.40750E+04  2.98365E+03  1.56762E+04  1.32318E+04  1.02483E+04  2.50759E+04 -3.01306E+03  2.78995E+04
 -1.63456E+04  2.09223E+04 -2.57602E+04  1.07994E+04 -2.61386E+04 -1.63104E+03 -2.20747E+04 -1.53669E+04
 -1.04179E+04 -2.10546E+04  7.15326E+03 -1.98322E+04  1.78524E+04 -1.13724E+04  1.63850E+04  3.87581E+03
  7.28245E+03  1.12510E+04 -7.37639E+03  1.08304E+04 -1.39267E+04  2.72680E+03 -1.09677E+04 -8.54308E+03
 -7.27852E+02 -1.23747E+04  6.54955E+03 -9.71667E+03  8.18594E+03 -1.47232E+03  1.49184E+03  5.20165E+03
 -5.39620E+03  1.54345E+03 -4.36479E+03 -4.43443E+03  1.94899E+02 -1.11014E+04  7.69716E+03 -1.11596E+04
  1.29367E+04 -4.44818E+03  1.27987E+04  2.92018E+03  1.17109E+04  1.04404E+04  5.02522E+03  1.52354E+04
 -2.19362E+03  1.74284E+04 -1.02379E+04  1.06806E+04 -1.16170E+04  2.79406E+03 -8.27132E+03 -2.15349E+03
 -5.19382E+03 -3.78632E+03 -7.82737E+02  1.37028E+03 -1.47325E+03  1.62142E+03 -3.75524E+03  3.91777E+03
 -8.25534E+03  7.78749E+01 -9.29334E+03 -7.53374E+03 -3.74201E+03 -1.19128E+04  3.71534E+03 -9.25341E+03
  7.36608E+03 -3.72966E+03  5.41543E+03  2.32051E+03  3.33606E+02  3.17474E+03 -3.99023E+03 -4.82876E+02
 -3.83448E+03 -5.60931E+03 -3.24917E+02 -7.81791E+03  4.17461E+03 -8.90219E+03  1.09117E+04 -4.48241E+03
  1.25079E+04  6.91468E+02  9.43503E+03  6.90608E+03  2.08208E+03  8.93187E+03 -5.88233E+03  9.38037E+03
 -7.45722E+03  2.94847E+03 -3.59397E+03 -1.88569E+03  1.93931E+03 -2.18090E+03  5.06827E+03 -1.22229E+03
  4.01562E+03  3.58233E+03  8.21373E+02  6.65563E+03 -4.64491E+03  7.13469E+03 -8.18370E+03  1.84948E+03
 -5.14157E+03 -4.23169E+03  3.74300E+02 -7.42781E+03  3.60445E+03 -3.77609E+03  3.71109E+03  1.24893E+03
 -2.35361E+02  4.26770E+03 -4.84293E+03  5.22026E+03 -5.41405E+03  2.65978E+03 -5.45396E+03 -1.15635E+03
 -3.69110E+03 -6.92398E+03  1.46234E+03 -7.76037E+03  6.25151E+03 -5.62344E+03  7.36241E+03  8.61044E+02
  5.03589E+03  5.57709E+03  1.77852E+01  8.10184E+03 -5.58224E+03  4.35012E+03 -5.70318E+03 -9.94900E+00
 -6.03950E+03 -5.87865E+03 -1.19584E+03 -5.53498E+03  2.96045E+03 -5.46602E+03  2.98385E+03 -3.35900E+03
  2.88068E+03  3.07486E+02  9.09080E+01  1.43614E+03  1.22524E+03 -3.87346E+02  3.28914E+02 -1.72790E+03
  4.16008E+03 -1.48144E+03  5.82736E+03  1.06743E+03  6.31390E+03  3.58696E+03  6.09463E+03  8.47445E+03
 -1.33659E+03  9.52618E+03 -8.14489E+03  7.18984E+03 -1.14283E+04  1.52492E+03 -8.65429E+03 -3.16237E+03
 -4.74186E+03 -7.34436E+03 -2.01585E+02 -5.83013E+03  2.81515E+03 -2.71744E+03  2.41357E+03 -1.89293E+03
  1.64541E+03 -1.36755E+03  2.42285E+03 -2.69574E+03  3.48076E+03 -1.15081E+03  4.01303E+03  6.03376E+02
  5.09806E+03  1.87783E+03  8.49381E+02  3.67056E+03 -1.93972E+03  3.36835E+03 -4.83004E+03  3.22020E+03
 -5.26411E+03 -1.23733E+03 -2.53295E+03 -3.34571E+03  1.06800E+03 -6.04092E+03  3.32182E+03 -6.52599E+03
  5.66140E+03 -3.44358E+03  7.45022E+03  3.56823E+02  5.61891E+03  4.87351E+03  9.19081E+02  7.21321E+03
 -2.46202E+03  6.48128E+03 -3.96235E+03  2.55382E+03 -2.28691E+03 -6.45649E+02 -5.46371E+02 -4.98610E+02
 -8.25654E+02  3.17141E+02 -1.02506E+03  2.37501E+03 -2.39058E+03  1.45482E+03 -4.82088E+03 -5.09540E+02
 -2.02984E+03 -4.58153E+03  1.23784E+03 -4.82237E+03  3.13745E+03 -5.07930E+03  3.78874E+03 -1.68924E+03
  5.22970E+03  3.07425E+03  2.06573E+03  3.74673E+03 -1.12387E+03  5.17428E+03 -3.38459E+03  2.87853E+03
 -4.15909E+03  8.40178E+02 -3.87218E+03 -3.07212E+03 -1.12379E+03 -4.60653E+03  1.29152E+03 -2.84443E+03
  2.82205E+03 -1.23410E+03  2.04076E+03  5.90411E+02  8.62338E+02  1.66550E+03  1.18620E+03  5.62603E+02
  1.57991E+03  7.90566E+02  1.65480E+03  9.54129E+02  1.71293E+03  2.23523E+03  1.90821E+03  1.72652E+03
 -1.54962E+03  3.71623E+03 -3.33535E+03  4.95365E+03 -3.95147E+03  8.54944E+02 -4.66916E+03 -5.87998E+02
 -2.02277E+03 -4.27962E+03  4.67250E+02 -5.60283E+03  2.73592E+03 -2.72981E+03  3.71574E+03 -1.07274E+03
  2.95741E+03  2.55865E+03  6.81575E+02  2.91641E+03 -6.77398E+02  2.11611E+03 -1.98849E+03 -3.24416E+02
 -1.09162E+03 -2.42417E+03  2.01857E+03 -1.56606E+03  2.11009E+03 -1.13521E+03  1.26150E+03  1.79345E+02
  1.20515E+03  1.17738E+02  7.32140E+02  6.29323E+01 -2.52457E+02  1.09444E+03  1.77043E+03 -4.50886E+02
  9.42476E+02 -1.36724E+02  2.22636E+03  3.80407E+02  8.45686E+02  2.61914E+03 -9.18280E+02  3.48825E+03
 -2.44491E+03  1.20794E+03 -2.74555E+03  2.54578E+02 -2.20966E+03 -1.07253E+03 -4.42250E+02 -6.69047E+02
  3.11955E+02 -1.96989E+03  9.39674E+02 -6.13153E+02  6.62943E+02  1.66918E+03 -2.13022E+02  1.30460E+03
 -1.75055E+03  7.11490E+02 -1.49633E+03 -1.22805E+03 -5.53934E+02 -2.51964E+03  1.54196E+02 -1.35166E+03
  4.18768E+02 -1.04624E+03  1.04143E+03  3.29435E+02  1.50875E+03  1.49306E+02 -1.10716E+02  2.04924E+03
 -7.78069E+02  9.02306E+01 -1.57855E+03 -7.06384E+02  4.42380E+02 -1.37373E+03  2.53351E+03 -8.92864E+02
  1.76591E+03  1.73277E+02  3.18800E+03  7.90170E+02  1.45601E+03  2.09677E+03 -2.52935E+02  2.41809E+03
 -2.14855E+03  3.60877E+02 -1.81672E+03 -3.28859E+02 -1.17109E+03 -1.65885E+03  4.18326E+02 -1.24655E+03
  2.21159E+03 -8.90015E+02  1.09629E+03  1.08757E+03  2.17095E+01  1.14915E+03  2.52834E+02  8.84338E+02
 -6.88269E+02  8.58026E+02 -6.61001E+02  2.44992E+02 -8.54709E+01  8.61845E+02 -1.09226E+03  7.84307E+02
 -7.52417E+02  1.55103E+03 -2.50972E+03 -1.17027E+02 -2.15268E+03  5.25850E+02 -2.52725E+03 -1.18884E+03
 -1.53099E+03 -3.12602E+03  3.76229E+02 -4.19861E+03  1.60488E+03 -2.84218E+03  4.00534E+03 -1.04175E+03
  2.62342E+03  2.73622E+01  1.94861E+03  1.48174E+03 -2.70819E+02  1.64075E+03 -7.04780E+02  2.14950E+03
 -1.31350E+03  1.07120E+03 -1.07150E+03 -2.66567E+02 -1.98525E+02  7.42307E+01 -4.95047E+02  3.23649E+02
 -4.68299E+02 -1.02267E+02 -7.63077E+02 -3.64190E+02  5.86750E+02 -5.58613E+02 -5.77802E+02 -8.87372E+02
  7.98601E+02 -3.44230E+02  5.48944E+02  1.71735E+02  1.70353E+03  8.33280E+02 -3.13218E+01  1.43884E+03
 -7.63788E+02  2.83195E+03 -2.08351E+03  1.48620E+03 -2.64357E+03 -1.62999E+02 -1.46037E+03 -1.33830E+03
 -1.64191E+03 -1.47392E+03  2.27829E+02 -1.87089E+03  9.95834E+02 -4.61948E+02  1.15262E+03 -5.56950E+01
  8.04712E+02  4.86296E+02 -2.91959E+02  1.00315E+02 -7.45711E+02 -3.29193E+02 -8.73946E+01  1.10527E+01
  9.03332E+02  3.90458E+02  8.13442E+02  8.15976E+02  5.61311E+02  6.83280E+02 -1.25407E+02  7.92778E+02
 -6.40370E+02  1.08324E+03 -1.93056E+03  4.43440E+02 -1.52801E+03 -5.94306E+02  4.37292E+01 -1.76293E+03
  5.66633E+02 -1.14136E+03  9.90352E+02 -1.69103E+02  1.05925E+03  6.28461E+01  7.66617E+02  1.09513E+03
  6.96075E+00  3.92167E+02  1.83705E+02  1.02191E+03 -1.31241E+03  1.08504E+03 -1.03891E+03 -1.20083E+02
 -4.28812E+01  3.85613E+02 -5.76768E+02 -1.04935E+02 -6.08720E+02 -3.21100E+02 -8.53737E+02 -5.74332E+02
 -9.68750E+02 -1.01937E+02 -4.65513E+02 -1.01569E+03  1.50089E+03 -2.24064E+03  1.39669E+03 -2.03688E+02
  1.17832E+03 -1.02363E+02 -7.39026E+01  4.72231E+02 -3.79818E+02  1.38592E+03 -6.02999E+02  8.00569E+02
