 $NMID ID='MM_0lb_SNR400_7hz_g40_93.RAW', FMTDAT='(8E13.5)'
 TRAMP=1., VOLUME=1. $END
  3.10020E+05  1.45159E+03  3.37504E+05  2.50259E+05  8.52297E+04  3.39058E+05 -1.32369E+05  2.51769E+05
 -1.91736E+05  8.28511E+04 -1.12577E+05 -3.21370E+04  8.61287E+02 -5.07506E+04  5.37698E+04 -3.13526E+02
  3.54111E+04  5.25114E+04 -1.70925E+04  7.64718E+04 -6.11801E+04  6.49422E+04 -8.59502E+04  3.29666E+04
 -8.26122E+04 -1.21498E+04 -5.84669E+04 -5.28658E+04 -1.54882E+04 -7.19409E+04  2.80166E+04 -4.74214E+04
  4.11903E+04  2.87522E+03  1.73621E+04  4.86580E+04 -3.57132E+04  4.79763E+04 -6.84502E+04 -1.21358E+02
 -5.64683E+04 -5.79022E+04 -7.64384E+03 -7.99741E+04  3.44388E+04 -5.69025E+04  5.03009E+04 -1.81621E+04
  4.52931E+04  1.20164E+04  3.28628E+04  2.71465E+04  1.68156E+04  3.03455E+04 -6.16837E+03  2.76952E+04
 -2.25025E+04  1.21670E+04 -1.72844E+04 -6.29944E+03  6.89815E+03 -7.68565E+03  2.43633E+04  1.43216E+04
  7.24516E+03  3.69847E+04 -3.42960E+04  3.74087E+04 -6.58596E+04  2.39457E+03 -6.00622E+04 -4.51363E+04
 -1.27984E+04 -6.64768E+04  4.18989E+04 -4.75708E+04  6.14715E+04 -2.80885E+03  3.79853E+04  3.43450E+04
 -5.24749E+03  4.04529E+04 -3.23171E+04  1.97327E+04 -3.46223E+04 -3.47962E+03 -1.90188E+04 -1.10282E+04
 -9.56062E+03 -1.53056E+04  1.69168E+02 -2.01858E+04  8.60090E+03 -2.36591E+04  1.57469E+04 -1.21811E+04
  1.05026E+04  6.45290E+03 -1.12702E+04  1.27761E+04 -2.46357E+04 -7.02204E+03 -8.77010E+03 -3.78490E+04
  2.55994E+04 -4.76808E+04  5.30350E+04 -2.17144E+04  4.93867E+04  2.13207E+04  1.75943E+04  4.82134E+04
 -1.67022E+04  3.79169E+04 -2.83262E+04  2.81127E+03 -1.16712E+04 -3.03176E+04  2.10096E+04 -3.86343E+04
  4.52044E+04 -1.16674E+04  4.15314E+04  2.48098E+04  2.23040E+04  5.22848E+04 -8.06082E+03  5.70200E+04
 -3.64049E+04  4.01329E+04 -4.91443E+04  1.13863E+04 -4.91822E+04 -1.83166E+04 -2.73202E+04 -4.37474E+04
  7.56100E+03 -4.33595E+04  3.45024E+04 -1.73682E+04  3.35638E+04  1.05061E+04  6.07972E+03  2.08677E+04
 -1.48463E+04  1.07128E+04 -1.11625E+04 -7.83829E+03  5.97566E+03 -1.18199E+04  1.87705E+04  5.13335E+03
  1.51265E+04  2.25438E+04 -5.47400E+03  2.81617E+04 -2.39845E+04  1.40778E+04 -3.25924E+04 -2.47477E+03
 -2.70325E+04 -1.86755E+04 -1.21491E+04 -2.56201E+04  4.73446E+03 -2.73014E+04  2.06988E+04 -2.53500E+04
  3.40474E+04 -1.46555E+04  3.92561E+04  5.16231E+03  2.80337E+04  2.59146E+04  3.94386E+03  4.20383E+04
 -2.08173E+04  3.44897E+04 -3.17085E+04  1.22946E+04 -2.22415E+04 -1.06827E+04 -5.49132E+03 -1.24129E+04
  1.45914E+02 -2.07003E+02 -8.66226E+03  8.16897E+03 -2.15765E+04  4.29912E+03 -2.08634E+04 -9.59061E+03
 -1.18401E+04 -2.43466E+04  5.47825E+03 -2.82110E+04  1.99256E+04 -2.07888E+04  2.44738E+04 -2.44485E+03
  1.55853E+04  1.64470E+04 -1.54067E+03  2.43708E+04 -1.74705E+04  1.38703E+04 -2.59125E+04 -4.82741E+03
 -1.87544E+04 -2.26823E+04 -2.52483E+03 -2.90700E+04  1.32522E+04 -2.42183E+04  2.40028E+04 -1.33104E+04
  2.32350E+04  1.01687E+02  1.64405E+04  6.01502E+03  9.66030E+03  1.08777E+03  1.30506E+04 -2.20091E+03
  2.39814E+04  2.47369E+03  2.74569E+04  1.88284E+04  1.87272E+04  3.94171E+04 -3.46483E+03  4.78814E+04
 -2.71601E+04  3.93334E+04 -4.52624E+04  2.10802E+04 -4.81886E+04 -3.46162E+03 -3.80941E+04 -2.79403E+04
 -1.49122E+04 -4.01269E+04  1.47072E+04 -3.42758E+04  2.87937E+04 -1.64152E+04  2.62239E+04  8.47174E+03
  8.09469E+03  1.95783E+04 -1.18812E+04  1.67965E+04 -2.13171E+04  3.54064E+03 -1.60968E+04 -1.34425E+04
 -9.20500E+02 -2.01326E+04  1.07429E+04 -1.56060E+04  1.42090E+04 -1.32317E+03  4.20966E+03  8.69016E+03
 -9.49323E+03  4.64035E+03 -1.02584E+04 -7.12595E+03 -3.14720E+03 -1.93687E+04  1.27454E+04 -2.15352E+04
  2.53636E+04 -1.25243E+04  2.90727E+04  3.93173E+03  2.45221E+04  2.02594E+04  1.16169E+04  3.14981E+04
 -6.19442E+03  3.32130E+04 -2.20511E+04  2.10074E+04 -2.50920E+04  4.27291E+03 -1.74104E+04 -7.40748E+03
 -6.03719E+03 -8.26699E+03 -2.15656E+02 -1.64579E+02 -3.48849E+03  5.01841E+03 -7.67964E+03  6.20721E+03
 -1.52855E+04 -1.47919E+03 -1.58658E+04 -1.32130E+04 -6.77471E+03 -2.02745E+04  7.68291E+03 -1.67000E+04
  1.38510E+04 -7.17187E+03  9.92555E+03  4.01670E+03 -3.87572E+02  6.91480E+03 -8.94906E+03 -9.08264E+02
 -8.53152E+03 -1.19088E+04 -1.54041E+03 -1.68848E+04  1.08423E+04 -1.76404E+04  2.25183E+04 -1.05053E+04
  2.53632E+04  2.86339E+03  1.87864E+04  1.65107E+04  4.16379E+03  2.12334E+04 -1.03828E+04  1.73993E+04
 -1.42455E+04  5.37870E+03 -7.41629E+03 -4.04293E+03  2.76402E+03 -6.00589E+03  9.00287E+03 -6.83686E+02
  8.53152E+03  7.50868E+03  7.04826E+02  1.44018E+04 -1.13937E+04  1.28067E+04 -1.71071E+04  3.36104E+03
 -1.18464E+04 -9.19919E+03  8.52413E+02 -1.46201E+04  9.38562E+03 -7.45691E+03  1.08646E+04  3.66731E+03
  1.83636E+03  1.21886E+04 -9.04346E+03  1.36783E+04 -1.59648E+04  6.22542E+03 -1.65095E+04 -6.38116E+03
 -9.89708E+03 -1.74482E+04  5.31988E+03 -2.09634E+04  1.74293E+04 -1.13089E+04  1.91577E+04  2.11091E+03
  1.16207E+04  1.48445E+04 -2.43682E+03  1.74133E+04 -1.36844E+04  1.04502E+04 -1.46001E+04 -1.41124E+03
 -1.18036E+04 -1.13406E+04 -1.43016E+03 -1.31809E+04  7.48644E+03 -1.09101E+04  9.22723E+03 -4.34006E+03
  6.05405E+03  2.52278E+03 -1.55707E+03  2.46068E+03 -1.17478E+03 -3.38214E+03  4.18140E+03 -8.69682E+03
  1.35150E+04 -5.90483E+03  1.83595E+04  3.23646E+03  1.70747E+04  1.29562E+04  1.11003E+04  2.30386E+04
 -6.28927E+03  2.78412E+04 -2.25839E+04  2.06175E+04 -2.97629E+04  5.04287E+03 -2.37331E+04 -1.00052E+04
 -1.23011E+04 -1.88195E+04 -9.02210E+02 -1.65123E+04  6.22982E+03 -9.78852E+03  6.16348E+03 -5.39018E+03
  5.35281E+03 -3.57468E+03  4.19809E+03 -4.33168E+03  5.83001E+03 -3.58676E+03  9.58412E+03 -1.24702E+03
  1.25097E+04  2.40683E+03  6.69325E+03  1.09516E+04 -3.21420E+03  1.35867E+04 -1.28026E+04  9.63874E+03
 -1.74946E+04 -1.63475E+03 -1.09187E+04 -1.10888E+04 -1.43656E+03 -1.87063E+04  9.90180E+03 -1.85200E+04
  1.95292E+04 -1.10605E+04  2.25239E+04  3.06193E+03  1.53541E+04  1.59054E+04  2.06861E+03  2.12895E+04
 -9.83909E+03  1.64508E+04 -1.31829E+04  5.48842E+03 -8.09741E+03 -1.58703E+03 -3.87644E+03 -2.63596E+03
 -9.70015E+02  6.79759E+01 -2.26294E+03  2.89108E+03 -6.68510E+03  3.21489E+03 -1.17057E+04 -2.59821E+03
 -8.35269E+03 -1.15930E+04 -4.62540E+02 -1.73333E+04  1.12119E+04 -1.56436E+04  1.84113E+04 -5.11002E+03
  1.77521E+04  9.10225E+03  8.92308E+03  1.56097E+04 -2.67237E+03  1.80545E+04 -1.28952E+04  1.07304E+04
 -1.66464E+04  5.16250E+02 -1.31207E+04 -1.05098E+04 -1.32750E+03 -1.57302E+04  7.67280E+03 -1.05150E+04
  1.12594E+04 -3.38896E+03  8.43657E+03  3.15163E+03  2.80740E+03  4.57473E+03  1.22739E+03  1.90238E+03
  2.42979E+03  1.29582E+03  4.11208E+03  2.31350E+03  5.59369E+03  6.70856E+03  4.68164E+03  8.86676E+03
 -2.64987E+03  1.42411E+04 -1.36938E+04  1.44360E+04 -1.95843E+04  3.77786E+03 -1.88685E+04 -7.77526E+03
 -8.91548E+03 -1.81813E+04  2.52117E+03 -1.92082E+04  1.18029E+04 -1.38973E+04  1.46642E+04 -3.43196E+03
  1.15317E+04  6.61304E+03  3.01961E+03  1.09183E+04 -5.37909E+03  7.60290E+03 -6.90173E+03 -3.69740E+02
 -4.27016E+03 -8.25710E+03  3.36836E+03 -8.71083E+03  8.56716E+03 -3.86093E+03  7.29124E+03  8.73128E+02
  4.51786E+03  3.87395E+03  2.20198E+03  3.98684E+03 -2.97567E+02  2.41190E+03  1.98285E+03 -4.86724E+02
  3.19299E+03 -1.03275E+03  7.66613E+03  2.54716E+03  5.17171E+03  1.01851E+04 -1.45652E+03  1.28873E+04
 -8.82206E+03  8.20843E+03 -1.20121E+04  2.95443E+03 -1.08155E+04 -3.48083E+03 -3.65827E+03 -7.90034E+03
  8.64628E+02 -7.27431E+03  4.50353E+03 -2.55707E+03  4.55037E+03  4.00323E+03 -1.40732E+03  6.57602E+03
 -8.30446E+03  4.28081E+03 -9.64999E+03 -4.35967E+03 -4.18017E+03 -9.60214E+03  1.22330E+03 -1.12156E+04
  6.80633E+03 -6.91252E+03  7.78728E+03 -1.03579E+03  7.13069E+03  2.97574E+03  8.44559E+02  5.87726E+03
 -4.93488E+03  2.04526E+03 -4.30804E+03 -4.06160E+03  2.13877E+03 -8.54692E+03  9.34612E+03 -6.46081E+03
  1.28248E+04  3.97841E+02  1.11722E+04  8.89685E+03  3.37945E+03  1.36981E+04 -5.44242E+03  1.32023E+04
 -1.00327E+04  4.89071E+03 -1.10335E+04 -9.27822E+02 -6.74168E+03 -8.47969E+03  1.98386E+03 -7.82206E+03
  8.20742E+03 -4.43277E+03  6.70166E+03  3.74218E+03  1.85262E+03  7.34816E+03 -9.88700E+02  5.96141E+03
 -3.69664E+03  2.46631E+03 -3.04792E+03  1.62105E+03 -1.58490E+03  9.16964E+02 -1.24747E+03  2.65246E+03
 -1.94139E+03  4.44895E+03 -9.22118E+03  5.51394E+03 -1.29526E+04  2.51156E+02 -1.46406E+04 -8.03544E+03
 -7.91510E+03 -1.72886E+04  3.33062E+03 -2.06754E+04  1.31187E+04 -1.47188E+04  1.89334E+04 -5.59649E+03
  1.72535E+04  4.04864E+03  1.12424E+04  1.17405E+04  9.31630E+02  1.43065E+04 -4.88568E+03  1.01100E+04
 -7.69146E+03  3.26248E+03 -4.97296E+03 -1.60331E+03 -1.85638E+02 -1.04226E+03 -1.54964E+03 -3.61895E+02
 -2.08875E+03  1.08087E+03 -3.15524E+03 -1.67501E+01 -7.50296E+02 -2.85373E+03  1.26121E+02 -4.30174E+03
  5.92150E+03 -5.86598E+03  7.74265E+03  9.28208E+01  9.82625E+03  8.33080E+03  2.52003E+03  1.36505E+04
 -7.25651E+03  1.53859E+04 -1.50275E+04  9.46660E+03 -1.72826E+04 -7.15692E+02 -1.25272E+04 -1.06270E+04
 -5.83888E+03 -1.48891E+04  3.72706E+03 -1.17309E+04  9.52490E+03 -7.21195E+03  9.36622E+03  1.13753E+03
  5.41817E+03  5.19998E+03 -8.33361E+02  4.47336E+03 -3.25258E+03 -1.02923E+03  3.70168E+02 -3.39399E+03
  4.18374E+03 -1.85018E+03  5.87153E+03  1.43672E+03  2.60024E+03  5.97115E+03  1.46776E+01  7.94401E+03
 -6.31067E+03  6.98242E+03 -9.40361E+03  3.00590E+02 -9.00240E+03 -7.70166E+03 -1.47544E+03 -1.30568E+04
  6.28468E+03 -9.69571E+03  1.10580E+04 -3.33579E+03  1.03852E+04  2.60698E+03  7.04715E+03  9.35706E+03
  7.37120E+02  1.03080E+04 -4.22871E+03  7.56557E+03 -5.60247E+03  4.45085E+03 -5.15866E+03  2.34160E+02
 -2.16658E+03 -8.80999E+02 -2.69696E+03  1.71223E+03 -4.33285E+03  1.23395E+03 -6.96947E+03 -1.93774E+03
 -7.12237E+03 -4.89116E+03 -2.75820E+03 -1.03388E+04  5.33140E+03 -1.00466E+04  8.76830E+03 -5.55675E+03
  9.77526E+03  1.03467E+03  5.70771E+03  6.97986E+03 -1.04026E+03  9.90702E+03 -7.59031E+03  6.53045E+03
