 $NMID ID='MM_0lb_SNR400_11hz_g50_43.RAW', FMTDAT='(8E13.5)'
 TRAMP=1., VOLUME=1. $END
  3.09682E+05 -8.27221E+01  3.37928E+05  2.50458E+05  8.54110E+04  3.38422E+05 -1.32692E+05  2.51338E+05
 -1.90732E+05  8.34258E+04 -1.12458E+05 -3.24479E+04  1.26528E+03 -5.07527E+04  5.35169E+04 -3.24743E+01
  3.52731E+04  5.30673E+04 -1.66608E+04  7.64603E+04 -6.17690E+04  6.41887E+04 -8.51863E+04  3.24306E+04
 -8.19720E+04 -1.10152E+04 -5.81195E+04 -5.18394E+04 -1.55326E+04 -7.02126E+04  2.83236E+04 -4.61959E+04
  4.10260E+04  3.12569E+03  1.72194E+04  4.84769E+04 -3.45283E+04  4.82019E+04 -6.77795E+04  1.71237E+02
 -5.48892E+04 -5.72023E+04 -7.25869E+03 -7.84104E+04  3.37729E+04 -5.60519E+04  4.85375E+04 -1.79895E+04
  4.47202E+04  1.14798E+04  3.25146E+04  2.54505E+04  1.56714E+04  2.92490E+04 -4.93146E+03  2.73416E+04
 -2.24642E+04  1.23710E+04 -1.80089E+04 -5.42863E+03  6.24946E+03 -7.15084E+03  2.29435E+04  1.34413E+04
  7.36817E+03  3.69816E+04 -3.32024E+04  3.61106E+04 -6.50099E+04  2.53007E+03 -5.90152E+04 -4.40900E+04
 -1.20700E+04 -6.50686E+04  4.01760E+04 -4.69950E+04  6.04980E+04 -2.61497E+03  3.57640E+04  3.42391E+04
 -5.43414E+03  3.80967E+04 -3.09659E+04  1.79162E+04 -3.16355E+04 -3.98263E+03 -1.79876E+04 -1.20764E+04
 -9.17909E+03 -1.38182E+04 -8.91818E+02 -1.92365E+04  7.90520E+03 -2.30523E+04  1.60434E+04 -1.34684E+04
  1.04617E+04  5.75470E+03 -9.63952E+03  1.32457E+04 -2.25695E+04 -5.72770E+03 -7.86466E+03 -3.55546E+04
  2.44388E+04 -4.52834E+04  5.07033E+04 -2.04552E+04  4.73017E+04  2.02650E+04  1.61215E+04  4.58619E+04
 -1.60989E+04  3.49382E+04 -2.73947E+04  2.29934E+03 -1.13068E+04 -2.89572E+04  2.15044E+04 -3.51531E+04
  4.34376E+04 -1.05019E+04  3.83602E+04  2.43780E+04  2.07551E+04  4.89178E+04 -7.99159E+03  5.42167E+04
 -3.32571E+04  3.69774E+04 -4.48594E+04  1.06218E+04 -4.44435E+04 -1.77737E+04 -2.47651E+04 -4.11935E+04
  7.83135E+03 -3.99959E+04  3.29129E+04 -1.59290E+04  3.07298E+04  1.17404E+04  4.70491E+03  2.04905E+04
 -1.37483E+04  9.29579E+03 -1.11573E+04 -7.27391E+03  5.60536E+03 -1.07344E+04  1.89395E+04  5.46164E+03
  1.40282E+04  2.26620E+04 -5.58567E+03  2.68799E+04 -2.25873E+04  1.34089E+04 -3.04677E+04 -3.98946E+03
 -2.44109E+04 -1.79248E+04 -1.04201E+04 -2.24410E+04  4.21497E+03 -2.39431E+04  1.81710E+04 -2.08950E+04
  2.97720E+04 -1.36133E+04  3.66064E+04  3.96824E+03  2.55477E+04  2.32693E+04  4.36557E+03  3.89374E+04
 -1.91348E+04  3.28666E+04 -2.99353E+04  1.07891E+04 -2.17931E+04 -1.03173E+04 -4.63833E+03 -1.39371E+04
  6.62534E+02 -2.09173E+03 -6.37841E+03  8.01923E+03 -1.88406E+04  4.87994E+03 -1.90228E+04 -8.26504E+03
 -1.03462E+04 -2.19887E+04  5.23179E+03 -2.62018E+04  1.78596E+04 -1.96527E+04  2.00883E+04 -1.36023E+03
  1.31711E+04  1.43568E+04 -1.08263E+03  2.09202E+04 -1.50716E+04  1.19242E+04 -2.18783E+04 -4.03538E+03
 -1.55972E+04 -1.96116E+04 -2.86542E+03 -2.60258E+04  1.13331E+04 -2.03864E+04  2.12327E+04 -1.14332E+04
  2.03486E+04 -8.97116E+02  1.49404E+04  5.23470E+03  7.01982E+03  1.45626E+03  1.08371E+04 -1.46291E+03
  1.99391E+04  3.16509E+03  2.30094E+04  1.71289E+04  1.53687E+04  3.47710E+04 -2.70533E+03  4.03777E+04
 -2.31475E+04  3.32845E+04 -3.77328E+04  1.73784E+04 -3.98790E+04 -2.81523E+03 -3.22768E+04 -2.35119E+04
 -1.34555E+04 -3.29894E+04  1.15520E+04 -3.00293E+04  2.50978E+04 -1.44293E+04  2.23903E+04  6.70926E+03
  8.03242E+03  1.70303E+04 -1.13675E+04  1.46238E+04 -1.87223E+04  3.10122E+03 -1.45620E+04 -1.13771E+04
 -1.25926E+01 -1.79783E+04  9.20417E+03 -1.33822E+04  1.13521E+04 -1.20234E+03  2.89049E+03  6.81263E+03
 -8.18176E+03  4.05905E+03 -8.30365E+03 -5.68000E+03 -7.17715E+02 -1.63332E+04  1.10177E+04 -1.78342E+04
  2.06560E+04 -9.13949E+03  2.25782E+04  2.46539E+03  2.02428E+04  1.58112E+04  8.65345E+03  2.56356E+04
 -4.42728E+03  2.81615E+04 -1.73762E+04  1.69431E+04 -1.98164E+04  3.66160E+03 -1.37737E+04 -4.95182E+03
 -5.26275E+03 -5.84095E+03 -6.02066E+02  3.41855E+02 -1.94056E+03  3.61808E+03 -7.02305E+03  4.89359E+03
 -1.31239E+04 -8.07264E+02 -1.29991E+04 -1.12928E+04 -5.35040E+03 -1.78106E+04  5.18469E+03 -1.37130E+04
  1.10474E+04 -5.81062E+03  8.11845E+03  3.27371E+03 -7.11067E+02  5.07592E+03 -6.34225E+03 -5.25460E+02
 -6.52696E+03 -8.23498E+03 -1.72339E+03 -1.39392E+04  7.66827E+03 -1.40935E+04  1.72767E+04 -7.38075E+03
  2.03681E+04  2.20240E+03  1.47394E+04  1.24987E+04  2.82911E+03  1.65526E+04 -8.48701E+03  1.35037E+04
 -1.08134E+04  3.45173E+03 -6.18457E+03 -3.23228E+03  2.47059E+03 -4.06931E+03  6.61901E+03 -8.39451E+02
  6.45216E+03  6.35114E+03  6.26037E+02  1.08642E+04 -8.02922E+03  1.05450E+04 -1.40598E+04  2.78581E+03
 -1.01062E+04 -7.25719E+03 -6.81163E+02 -1.15033E+04  6.33613E+03 -5.38125E+03  8.08713E+03  2.64464E+03
  2.42881E+03  8.74909E+03 -7.41150E+03  9.58879E+03 -1.15581E+04  4.96691E+03 -1.13577E+04 -4.11974E+03
 -6.47718E+03 -1.30281E+04  3.57444E+03 -1.50748E+04  1.29819E+04 -9.07822E+03  1.40161E+04  1.98952E+03
  8.62949E+03  1.15086E+04 -5.87489E+02  1.37130E+04 -1.04088E+04  6.92975E+03 -1.14962E+04 -1.15449E+03
 -8.93657E+03 -9.11477E+03 -1.30739E+03 -9.89753E+03  5.24419E+03 -8.17290E+03  6.37634E+03 -4.00903E+03
  4.15030E+03  1.43498E+03 -4.89697E+02  1.76731E+03 -1.56723E+02 -2.64585E+03  1.66015E+03 -6.37455E+03
  9.71690E+03 -3.09600E+03  1.31789E+04  2.25168E+03  1.28864E+04  8.54491E+03  7.75226E+03  1.69917E+04
 -4.31751E+03  1.98576E+04 -1.69443E+04  1.43183E+04 -2.15664E+04  2.52176E+03 -1.73902E+04 -7.14482E+03
 -8.67623E+03 -1.30042E+04 -8.46827E+01 -1.21587E+04  5.09126E+03 -6.42603E+03  4.71369E+03 -4.56039E+03
  2.92429E+03 -2.69939E+03  4.02499E+03 -3.36569E+03  5.10879E+03 -3.12418E+03  7.43220E+03 -5.69006E+02
  9.43865E+03  2.01391E+03  4.44525E+03  7.65780E+03 -1.56238E+03  8.35607E+03 -9.16364E+03  6.58343E+03
 -1.22738E+04 -1.19256E+03 -7.12104E+03 -8.66242E+03  1.65899E+02 -1.27738E+04  7.27775E+03 -1.33821E+04
  1.31829E+04 -7.47634E+03  1.58504E+04  1.44724E+03  1.10723E+04  1.07219E+04  1.63760E+03  1.40537E+04
 -6.17581E+03  1.23161E+04 -8.68634E+03  4.00964E+03 -6.29239E+03 -2.05634E+03 -2.09853E+03 -1.31132E+03
 -1.58926E+03  2.53342E+02 -2.00669E+03  2.62765E+03 -5.27873E+03  2.61194E+03 -8.23681E+03 -7.80403E+02
 -5.12626E+03 -8.48310E+03  5.39705E+02 -1.15902E+04  7.79868E+03 -1.11321E+04  1.07157E+04 -2.95522E+03
  1.09666E+04  5.29348E+03  5.38677E+03  1.04144E+04 -2.81813E+03  1.19036E+04 -7.96003E+03  6.98761E+03
 -1.11487E+04  3.69452E+02 -8.79100E+03 -6.92982E+03 -1.01454E+03 -1.00622E+04  4.69798E+03 -7.55061E+03
  7.32503E+03 -2.98982E+03  4.76944E+03  1.71211E+03  1.87782E+03  4.18482E+03  1.36085E+03  1.34483E+03
  2.47135E+03  9.22068E+02  3.16610E+03  1.25727E+03  3.47523E+03  4.44550E+03  2.71461E+03  6.39237E+03
 -3.06424E+03  9.26860E+03 -7.98440E+03  9.80711E+03 -1.13852E+04  3.10372E+03 -1.23992E+04 -4.85196E+03
 -5.45420E+03 -1.15606E+04  1.90420E+03 -1.30127E+04  6.55952E+03 -8.39315E+03  9.63081E+03 -1.74824E+03
  7.36647E+03  4.38216E+03  2.44969E+03  7.34180E+03 -3.48773E+03  4.10154E+03 -4.58333E+03 -1.91633E+02
 -2.22760E+03 -4.80990E+03  3.03062E+03 -5.35256E+03  4.87184E+03 -2.58482E+03  4.50709E+03  1.42078E+03
  2.05002E+03  2.17440E+03  1.25846E+03  7.96592E+02 -1.37952E+03  2.35076E+03  1.46233E+03 -4.45791E+02
  2.25262E+03 -6.92260E+02  5.23194E+03  2.50848E+03  2.58680E+03  6.43220E+03 -1.05080E+03  8.01901E+03
 -5.71505E+03  5.51319E+03 -7.57689E+03  1.32301E+03 -6.31423E+03 -2.80779E+03 -2.24584E+03 -3.66439E+03
  8.60612E+02 -4.06755E+03  3.36020E+03 -1.99090E+03  1.68838E+03  1.98940E+03 -1.06335E+03  4.14892E+03
 -5.35653E+03  2.42785E+03 -4.96964E+03 -2.73591E+03 -2.83699E+03 -6.84652E+03  1.76221E+03 -6.31642E+03
  3.60618E+03 -2.80922E+03  3.70997E+03 -2.96918E+02  3.77798E+03  1.29020E+03  5.73973E+02  3.07921E+03
 -2.29879E+03  1.21686E+02 -2.36463E+03 -2.19113E+03  6.65319E+02 -4.02067E+03  5.73347E+03 -3.40679E+03
  6.41988E+03  1.03330E+03  7.95008E+03  4.34128E+03  2.53921E+03  7.65621E+03 -2.71715E+03  7.16813E+03
 -6.05197E+03  2.63267E+03 -6.04176E+03 -6.31868E+02 -3.18338E+03 -4.50452E+03  1.45987E+03 -4.14014E+03
  4.81795E+03 -2.63152E+03  3.65266E+03  1.83135E+03  1.25208E+03  3.58513E+03 -3.41395E+02  4.18674E+03
 -2.30835E+03  2.31640E+03 -2.12223E+03  8.40026E+02 -1.08511E+03  6.38305E+02 -1.05906E+03  1.38737E+03
 -2.08729E+03  2.70658E+03 -4.96177E+03  2.28416E+03 -7.13840E+03  2.82541E+02 -8.10243E+03 -5.28165E+03
 -4.26433E+03 -9.56794E+03  1.72510E+03 -1.14261E+04  7.23989E+03 -8.33253E+03  9.96528E+03 -3.59515E+03
  9.85549E+03  1.02720E+03  5.64595E+03  7.08188E+03 -3.47686E+02  7.49254E+03 -2.85537E+03  5.86315E+03
 -4.84103E+03  1.95430E+03 -1.88461E+03 -2.60968E+02 -9.47643E+02 -4.43446E+02 -5.51701E+02 -1.06514E+02
 -1.88318E+03  1.04161E+03 -2.02638E+03 -2.15470E+01 -7.02535E+02 -2.09344E+03  7.28496E+01 -2.69630E+03
  3.81700E+03 -2.70301E+03  5.05185E+03  6.70041E+02  5.59796E+03  3.79645E+03  1.22583E+03  7.56831E+03
 -2.89167E+03  8.33470E+03 -7.39374E+03  5.15304E+03 -8.97271E+03 -7.05634E+02 -6.47169E+03 -5.16962E+03
 -2.49163E+03 -6.96420E+03  2.22486E+03 -6.37401E+03  4.29693E+03 -3.36927E+03  4.80907E+03  1.49618E+01
  2.63672E+03  2.64333E+03 -6.28568E+02  1.99264E+03 -6.60342E+02 -2.43079E+02 -5.35414E+02 -1.86186E+03
  1.62558E+03 -9.52583E+02  1.97562E+03  6.24643E+02  1.46647E+03  3.15069E+03  4.31539E+02  3.12250E+03
 -3.50387E+03  3.40749E+03 -4.84702E+03  4.29706E+02 -5.20605E+03 -3.31766E+03 -1.22607E+02 -5.85519E+03
  3.47989E+03 -5.10303E+03  5.47620E+03 -1.26335E+03  5.30645E+03  1.06485E+03  3.01445E+03  3.58181E+03
  1.06335E+03  4.73528E+03 -1.92956E+03  3.84213E+03 -1.99493E+03  1.94071E+03 -2.91089E+03  6.11474E+02
 -1.16110E+03 -4.53024E+02 -6.52255E+02  9.89393E+02 -2.00108E+03  1.23975E+03 -3.80097E+03 -9.03180E+02
 -3.44116E+03 -2.41483E+03 -1.61754E+03 -4.64047E+03  2.83727E+03 -4.85331E+03  4.14098E+03 -2.82707E+03
  4.99903E+03  8.78233E+02  2.13764E+03  3.25670E+03 -8.86135E+02  5.03661E+03 -3.19479E+03  3.55325E+03
