 $NMID ID='MM_0lb_SNR400_16hz_g60_19.RAW', FMTDAT='(8E13.5)'
 TRAMP=1., VOLUME=1. $END
  3.09411E+05  3.37858E+02  3.37331E+05  2.50882E+05  8.46401E+04  3.38048E+05 -1.32952E+05  2.51557E+05
 -1.90467E+05  8.26603E+04 -1.11510E+05 -3.29316E+04  4.84812E+02 -4.99308E+04  5.38713E+04  1.35839E+02
  3.60165E+04  5.32942E+04 -1.75820E+04  7.51041E+04 -6.09841E+04  6.35684E+04 -8.42408E+04  3.17019E+04
 -8.17180E+04 -1.12824E+04 -5.68214E+04 -5.09959E+04 -1.50674E+04 -6.95039E+04  2.74858E+04 -4.53438E+04
  4.03421E+04  3.94481E+03  1.59606E+04  4.78915E+04 -3.46395E+04  4.75259E+04 -6.68024E+04 -1.19868E+02
 -5.33874E+04 -5.67226E+04 -6.11569E+03 -7.74790E+04  3.38849E+04 -5.44196E+04  4.83341E+04 -1.77237E+04
  4.29150E+04  1.07537E+04  3.23928E+04  2.58982E+04  1.56464E+04  2.94989E+04 -5.25098E+03  2.70605E+04
 -2.23937E+04  1.18151E+04 -1.86496E+04 -5.12810E+03  5.43914E+03 -7.66025E+03  2.21320E+04  1.25121E+04
  8.01576E+03  3.52835E+04 -3.19732E+04  3.57429E+04 -6.31785E+04  1.82049E+03 -5.68726E+04 -4.29089E+04
 -1.23111E+04 -6.31842E+04  4.01259E+04 -4.49264E+04  5.82984E+04 -1.86905E+03  3.42774E+04  3.24796E+04
 -5.62699E+03  3.60427E+04 -2.97098E+04  1.64502E+04 -2.99032E+04 -4.32219E+03 -1.66913E+04 -1.16890E+04
 -8.81682E+03 -1.33496E+04 -1.16537E+03 -1.79882E+04  7.81015E+03 -2.32770E+04  1.51195E+04 -1.36989E+04
  1.16673E+04  4.81906E+03 -8.11985E+03  1.30669E+04 -2.14843E+04 -4.55090E+03 -8.54448E+03 -3.42884E+04
  2.24012E+04 -4.38588E+04  4.89334E+04 -1.92437E+04  4.55964E+04  2.00343E+04  1.58563E+04  4.37234E+04
 -1.57764E+04  3.37274E+04 -2.55209E+04  1.87408E+03 -9.50037E+03 -2.76499E+04  2.11622E+04 -3.36602E+04
  4.14901E+04 -9.13147E+03  3.58887E+04  2.36884E+04  1.72860E+04  4.66244E+04 -7.88127E+03  5.03644E+04
 -3.14347E+04  3.36051E+04 -4.18839E+04  9.53568E+03 -4.25254E+04 -1.65300E+04 -2.31624E+04 -3.81012E+04
  7.15193E+03 -3.79767E+04  3.12794E+04 -1.46596E+04  2.90141E+04  1.04108E+04  4.19406E+03  1.85104E+04
 -1.31825E+04  8.27093E+03 -1.08133E+04 -7.98549E+03  5.65548E+03 -1.08838E+04  1.78829E+04  6.66351E+03
  1.35230E+04  2.20309E+04 -5.71573E+03  2.49786E+04 -2.21328E+04  1.13079E+04 -2.83407E+04 -4.71454E+03
 -2.01757E+04 -1.74728E+04 -8.71550E+03 -2.06820E+04  4.19275E+03 -1.90170E+04  1.50445E+04 -1.82533E+04
  2.58644E+04 -1.28632E+04  3.20077E+04  2.52538E+03  2.37036E+04  1.97845E+04  4.19809E+03  3.62486E+04
 -1.72635E+04  3.03706E+04 -2.76038E+04  1.10851E+04 -2.03728E+04 -1.03110E+04 -4.43644E+03 -1.36035E+04
  2.26449E+03 -3.19730E+03 -4.87715E+03  7.11625E+03 -1.62803E+04  4.89242E+03 -1.65738E+04 -6.96385E+03
 -1.00523E+04 -1.86881E+04  5.21561E+03 -2.30769E+04  1.48812E+04 -1.69473E+04  1.82545E+04 -1.55963E+03
  1.16123E+04  1.29765E+04 -5.92084E+02  1.87694E+04 -1.28703E+04  1.05819E+04 -1.88551E+04 -3.95691E+03
 -1.32093E+04 -1.63856E+04 -1.12395E+03 -2.23941E+04  1.05850E+04 -1.85389E+04  1.84908E+04 -9.39451E+03
  1.74008E+04  2.91042E+02  1.25265E+04  4.20756E+03  6.64965E+03  8.08917E+02  9.12002E+03 -1.50307E+03
  1.65944E+04  3.09290E+03  1.95235E+04  1.47827E+04  1.26275E+04  2.94190E+04 -3.16871E+03  3.32634E+04
 -1.97862E+04  2.68284E+04 -3.11197E+04  1.37468E+04 -3.18612E+04 -2.56644E+03 -2.66886E+04 -1.89183E+04
 -1.19725E+04 -2.66808E+04  8.93881E+03 -2.39314E+04  2.09033E+04 -1.26255E+04  1.97973E+04  4.97848E+03
  6.93356E+03  1.36228E+04 -8.08762E+03  1.25813E+04 -1.57576E+04  3.18329E+03 -1.23033E+04 -9.54030E+03
 -1.79980E+02 -1.50004E+04  7.67733E+03 -1.09097E+04  1.00412E+04 -6.49520E+02  2.02954E+03  6.26205E+03
 -6.51508E+03  2.36222E+03 -5.74374E+03 -4.85412E+03 -2.57962E+02 -1.28996E+04  8.86401E+03 -1.33423E+04
  1.59950E+04 -6.74282E+03  1.66782E+04  2.88719E+03  1.44277E+04  1.28463E+04  6.79743E+03  1.87618E+04
 -3.24414E+03  2.08346E+04 -1.31515E+04  1.32528E+04 -1.50903E+04  3.84764E+03 -1.11194E+04 -3.23760E+03
 -4.51503E+03 -4.33808E+03 -1.35407E+03  1.05492E+03 -2.32278E+03  2.75253E+03 -4.56121E+03  4.28111E+03
 -1.02913E+04 -3.30343E+02 -1.03868E+04 -9.02054E+03 -4.31144E+03 -1.41518E+04  4.53812E+03 -1.10603E+04
  9.23521E+03 -4.75346E+03  6.29716E+03  2.68778E+03  8.16511E+02  4.34993E+03 -4.28872E+03  1.43477E+02
 -3.96832E+03 -6.47898E+03 -6.83112E+02 -8.87479E+03  5.23130E+03 -9.99899E+03  1.31111E+04 -5.32041E+03
  1.57284E+04  1.19242E+03  1.16282E+04  8.71950E+03  1.77420E+03  1.12302E+04 -6.49953E+03  1.03101E+04
 -8.18508E+03  3.03252E+03 -4.71161E+03 -1.45363E+03  1.28512E+03 -2.44724E+03  5.89184E+03 -1.55580E+03
  5.78772E+03  4.57297E+03  1.29229E+03  8.37179E+03 -5.48427E+03  8.05968E+03 -1.03715E+04  2.00277E+03
 -6.63046E+03 -4.64479E+03  6.35029E+02 -8.87629E+03  5.60803E+03 -4.45475E+03  4.71845E+03  1.91671E+03
  1.06129E+03  5.07036E+03 -5.68187E+03  7.18863E+03 -7.65007E+03  3.43873E+03 -6.58995E+03 -2.72409E+03
 -4.55398E+03 -9.14425E+03  2.50407E+03 -9.90660E+03  8.85316E+03 -6.82476E+03  9.85294E+03  1.71974E+03
  6.08378E+03  7.82702E+03 -6.43777E+02  9.65535E+03 -7.00596E+03  5.05828E+03 -7.03688E+03 -8.19191E+02
 -6.93155E+03 -6.91963E+03 -1.48991E+03 -7.25235E+03  3.84201E+03 -6.01716E+03  4.58096E+03 -2.43746E+03
  3.10915E+03  4.64350E+02 -1.85278E+02  1.67163E+03  1.04887E+02 -1.03745E+03  8.51897E+02 -3.22510E+03
  6.36991E+03 -2.52494E+03  8.12221E+03  1.14542E+03  8.37005E+03  4.67056E+03  6.49840E+03  1.04809E+04
 -1.97318E+03  1.19964E+04 -1.05993E+04  8.98975E+03 -1.40143E+04  2.28540E+03 -1.13597E+04 -3.96317E+03
 -6.10876E+03 -8.91636E+03 -5.12298E+01 -7.48195E+03  2.65939E+03 -3.55041E+03  2.53483E+03 -2.99378E+03
  1.75827E+03 -1.87076E+03  3.13088E+03 -3.14951E+03  4.56747E+03 -2.21721E+03  4.78031E+03 -8.51197E+02
  6.64149E+03  1.69024E+03  2.36539E+03  4.93466E+03 -1.34058E+03  4.33537E+03 -6.72777E+03  4.13833E+03
 -7.24620E+03 -1.76970E+03 -3.24941E+03 -4.72827E+03 -2.91174E+01 -7.53889E+03  4.91100E+03 -8.25351E+03
  7.37371E+03 -4.44999E+03  9.69239E+03  1.12338E+03  6.69460E+03  6.17815E+03  1.60775E+03  8.84685E+03
 -3.00225E+03  8.12219E+03 -4.88297E+03  2.18986E+03 -3.29508E+03 -1.48686E+03 -8.65113E+02 -1.17840E+03
 -4.92054E+02  4.17672E+02 -1.17801E+03  1.70866E+03 -3.01390E+03  1.30538E+03 -5.39046E+03 -3.87120E+02
 -2.70283E+03 -5.41995E+03  1.99552E+02 -7.01832E+03  4.14959E+03 -6.51314E+03  5.74445E+03 -1.58275E+03
  5.58190E+03  3.24549E+03  2.49663E+03  5.30977E+03 -1.00284E+03  6.46418E+03 -4.68940E+03  3.76116E+03
 -6.45861E+03  8.65796E+02 -5.56376E+03 -3.25754E+03 -4.46653E+02 -4.93972E+03  2.43752E+03 -3.73064E+03
  3.57841E+03 -1.33965E+03  1.93216E+03  1.15098E+03  1.38517E+03  2.43485E+03  1.12150E+03  1.22571E+03
  1.57699E+03  5.93296E+02  2.38867E+03  1.34256E+03  1.85173E+03  2.55380E+03  1.75149E+03  2.81953E+03
 -2.02654E+03  4.47456E+03 -4.14048E+03  5.43219E+03 -4.84316E+03  1.86720E+03 -6.46916E+03 -1.53888E+03
 -3.26872E+03 -5.42327E+03  7.96238E+02 -7.05877E+03  2.84310E+03 -5.06790E+03  5.10011E+03 -1.61887E+03
  4.25620E+03  2.03332E+03  7.41142E+02  4.02303E+03 -1.52391E+03  1.72689E+03 -1.52036E+03  5.90613E+02
 -8.21686E+02 -2.79116E+03  1.60117E+03 -2.49258E+03  2.61892E+03 -1.73839E+03  2.66754E+03  6.34064E+02
  1.38886E+03  8.74092E+02  6.97164E+02 -1.79037E+02 -4.05054E+02  1.45903E+03  1.27642E+03 -7.99553E+01
  8.18159E+02 -5.13863E+02  3.21495E+03  1.05380E+03  1.08516E+03  3.17133E+03 -2.88045E+02  3.90289E+03
 -2.42786E+03  2.03352E+03 -3.30804E+03  2.72655E+02 -3.22974E+03 -1.05612E+03 -6.16723E+02 -1.91420E+03
  6.93937E+02 -2.30618E+03  1.19273E+03 -1.20013E+03  1.03258E+03  1.18820E+03 -9.68867E+02  2.08026E+03
 -2.70941E+03  1.55369E+03 -2.51000E+03 -1.99313E+03 -1.25889E+03 -3.08978E+03  8.28003E+01 -3.44164E+03
  7.90130E+02 -1.28816E+03  1.30234E+03  1.77987E+02  1.99690E+03  1.02643E+03  3.55159E+02  1.78169E+03
 -9.42048E+02  4.29542E+02 -1.56443E+03 -4.84195E+02  4.01363E+02 -2.02461E+03  2.77211E+03 -1.39676E+03
  2.38829E+03  2.07001E+02  3.99256E+03  1.55268E+03  1.31937E+03  2.36225E+03 -9.76353E+02  3.02813E+03
 -2.82988E+03  6.93475E+02 -3.03220E+03 -5.16956E+02 -1.11500E+03 -2.15200E+03  6.81133E+02 -1.39617E+03
  2.64615E+03 -7.65016E+02  1.51615E+03  1.21448E+03  5.23211E+02  1.82327E+03 -2.73979E+02  1.10219E+03
 -6.97777E+02  1.83233E+03 -2.58597E+02  2.83748E+02  7.28593E+01  3.23847E+02 -1.13462E+03  1.28692E+03
 -2.79767E+02  1.83441E+03 -2.63924E+03  1.05246E+03 -2.74762E+03  6.38658E+02 -3.96831E+03 -2.22734E+03
 -1.71003E+03 -3.87964E+03  3.97831E+02 -4.59978E+03  2.11684E+03 -3.50270E+03  5.07650E+03 -1.26251E+03
  3.75894E+03 -2.20249E+02  1.60148E+03  2.52583E+03 -1.16461E+03  2.64633E+03 -8.72960E+02  2.60667E+03
 -2.07443E+03  1.08987E+03 -9.20223E+02 -5.92479E+02 -6.13474E+02  1.20759E+02  1.44766E+02  7.66916E+01
 -1.23091E+03  6.22297E+02 -1.35707E+03 -4.35171E+02  2.18107E+02 -6.48211E+02 -3.73390E+02 -4.70966E+02
  1.60476E+03 -8.21999E+02  8.62512E+02  4.24173E+02  1.87037E+03  1.75043E+03 -2.43772E+02  1.84529E+03
 -1.83682E+03  3.19599E+03 -2.77050E+03  1.76955E+03 -2.92251E+03 -5.21038E+02 -2.21497E+03 -2.66588E+03
 -1.04783E+03 -2.20526E+03  1.04317E+03 -2.02444E+03  1.82497E+03 -1.35526E+03  1.50956E+03 -4.01212E+02
  1.65362E+03  3.42796E+02 -3.17080E+02  4.73244E+02  4.77370E+01 -5.90071E+01 -4.33012E+02 -6.69201E+02
  4.18784E+02 -2.36625E+02  8.80829E+02  9.88183E+02 -2.84118E+01  8.37958E+02  2.26041E+02  8.99792E+02
 -9.33218E+02  1.18010E+03 -1.23355E+03  2.20085E+02 -1.38258E+03 -7.00617E+02  3.14847E+01 -1.86956E+03
  2.37723E+02 -9.35643E+02  7.51551E+02 -1.33188E+01  2.11189E+03  5.73865E+01  1.08035E+03  1.85437E+03
  4.32486E+02  9.67908E+02 -6.94275E+02  1.46618E+03 -1.28926E+03  5.88984E+02 -4.11033E+02  1.27229E+02
 -1.15154E+02 -1.63274E+02 -8.56598E+02  3.23545E+02 -7.55134E+02  3.74024E+02 -1.62919E+03 -2.03945E+02
 -8.90451E+02 -4.91790E+01 -9.94808E+02 -1.59402E+03  1.21799E+03 -2.04702E+03  1.31945E+03 -4.81183E+02
  1.61731E+03 -4.52423E+01 -1.21749E+02  6.45861E+02 -7.84692E+02  1.30948E+03 -9.47920E+02  7.62685E+02
