 $NMID ID='MM_0lb_SNR400_18hz_g45_87.RAW', FMTDAT='(8E13.5)'
 TRAMP=1., VOLUME=1. $END
  3.10160E+05  8.58597E+02  3.37017E+05  2.50385E+05  8.37448E+04  3.37505E+05 -1.32574E+05  2.50240E+05
 -1.90297E+05  8.22243E+04 -1.11198E+05 -3.33530E+04  1.38739E+03 -4.99569E+04  5.42058E+04  2.85159E+02
  3.52758E+04  5.21564E+04 -1.69784E+04  7.44137E+04 -6.04396E+04  6.21362E+04 -8.25627E+04  3.15549E+04
 -7.96012E+04 -1.08882E+04 -5.63296E+04 -5.01419E+04 -1.51077E+04 -6.82132E+04  2.62301E+04 -4.46053E+04
  3.88846E+04  3.81334E+03  1.56020E+04  4.72485E+04 -3.36279E+04  4.63766E+04 -6.54973E+04 -2.99124E+02
 -5.19674E+04 -5.57750E+04 -6.39295E+03 -7.50510E+04  3.31555E+04 -5.39609E+04  4.64136E+04 -1.66691E+04
  4.15662E+04  1.07190E+04  3.09353E+04  2.46184E+04  1.57177E+04  2.83167E+04 -4.87936E+03  2.62851E+04
 -2.21058E+04  1.32789E+04 -1.94902E+04 -4.61156E+03  4.32939E+03 -7.49574E+03  2.11351E+04  1.12216E+04
  7.28819E+03  3.31287E+04 -3.06604E+04  3.41844E+04 -6.15039E+04  2.04268E+03 -5.52176E+04 -4.12156E+04
 -1.26852E+04 -6.04386E+04  3.85396E+04 -4.36080E+04  5.53716E+04 -1.91046E+03  3.26351E+04  3.06906E+04
 -6.49268E+03  3.35406E+04 -2.87360E+04  1.36390E+04 -2.78905E+04 -5.21495E+03 -1.46200E+04 -9.98515E+03
 -7.75514E+03 -1.15910E+04 -9.02229E+02 -1.67742E+04  6.69105E+03 -2.22270E+04  1.48287E+04 -1.41414E+04
  1.20919E+04  4.38834E+03 -6.54958E+03  1.30244E+04 -1.92548E+04 -2.24894E+03 -8.40717E+03 -3.09477E+04
  2.04328E+04 -4.08014E+04  4.48647E+04 -1.79210E+04  4.23310E+04  1.82128E+04  1.39093E+04  4.21780E+04
 -1.50141E+04  3.15567E+04 -2.29963E+04  1.21331E+03 -8.58315E+03 -2.66830E+04  2.07511E+04 -3.11687E+04
  3.79466E+04 -7.54476E+03  3.20970E+04  2.29717E+04  1.53148E+04  4.25013E+04 -7.14831E+03  4.51281E+04
 -2.87917E+04  3.00898E+04 -3.73461E+04  8.50551E+03 -3.83625E+04 -1.54052E+04 -2.17748E+04 -3.46725E+04
  6.16463E+03 -3.45977E+04  2.92959E+04 -1.30764E+04  2.70230E+04  1.10624E+04  3.05597E+03  1.77698E+04
 -1.31627E+04  7.14491E+03 -9.61311E+03 -7.64657E+03  5.72813E+03 -1.05406E+04  1.71607E+04  6.57326E+03
  1.19777E+04  2.14347E+04 -5.98983E+03  2.37011E+04 -2.13083E+04  9.21284E+03 -2.53110E+04 -5.90915E+03
 -1.73536E+04 -1.62945E+04 -5.56492E+03 -1.65887E+04  4.33156E+03 -1.51224E+04  1.29467E+04 -1.43790E+04
  2.15238E+04 -1.10384E+04  2.85666E+04  1.68596E+03  2.16130E+04  1.64165E+04  4.09867E+03  3.27059E+04
 -1.66659E+04  2.73514E+04 -2.55188E+04  9.96501E+03 -1.97135E+04 -1.07054E+04 -4.13505E+03 -1.37917E+04
  2.43992E+03 -3.88261E+03 -2.69623E+03  5.23196E+03 -1.28540E+04  5.18491E+03 -1.37398E+04 -5.32978E+03
 -8.65935E+03 -1.57049E+04  3.93671E+03 -1.92248E+04  1.31265E+04 -1.39842E+04  1.48150E+04 -1.23184E+03
  9.36903E+03  1.10637E+04 -1.29699E+03  1.57326E+04 -1.03632E+04  8.99934E+03 -1.54306E+04 -3.99610E+03
 -1.18026E+04 -1.41749E+04 -1.52234E+03 -1.90900E+04  8.77491E+03 -1.55362E+04  1.63925E+04 -6.93656E+03
  1.52859E+04  8.04851E+02  1.06515E+04  3.73420E+03  5.54161E+03  1.14093E+02  7.88034E+03 -1.73844E+03
  1.34098E+04  3.17771E+03  1.50985E+04  1.30611E+04  9.00898E+03  2.52305E+04 -3.49131E+03  2.70632E+04
 -1.55604E+04  2.07399E+04 -2.45414E+04  9.62315E+03 -2.58862E+04 -1.03067E+03 -2.09323E+04 -1.38449E+04
 -9.73726E+03 -2.06227E+04  6.87291E+03 -1.87508E+04  1.63693E+04 -1.13779E+04  1.59763E+04  3.67033E+03
  6.78559E+03  1.08566E+04 -7.20947E+03  1.05691E+04 -1.39039E+04  2.69040E+03 -1.04361E+04 -7.98824E+03
 -7.33851E+01 -1.29991E+04  6.11958E+03 -9.54975E+03  7.87708E+03 -1.10947E+03  1.63074E+03  4.67993E+03
 -5.48248E+03  1.29985E+03 -4.32130E+03 -5.08364E+03  6.23092E+02 -1.08553E+04  8.20315E+03 -1.05100E+04
  1.26776E+04 -4.91965E+03  1.28801E+04  2.29557E+03  1.07370E+04  9.63383E+03  4.88614E+03  1.45270E+04
 -1.40928E+03  1.67189E+04 -9.24272E+03  1.02952E+04 -1.19393E+04  3.70112E+03 -8.78738E+03 -2.00621E+03
 -4.77174E+03 -3.21808E+03 -7.98505E+02  1.45032E+03 -1.54702E+03  1.88361E+03 -3.98613E+03  3.76777E+03
 -8.53458E+03 -5.27038E+02 -9.19159E+03 -7.86939E+03 -3.69842E+03 -1.17183E+04  3.53468E+03 -8.42420E+03
  6.69120E+03 -3.76349E+03  5.44786E+03  1.79222E+03  6.21554E+02  2.68530E+03 -3.43508E+03  3.08760E+02
 -3.84972E+03 -5.37908E+03 -4.37915E+02 -7.09567E+03  4.18426E+03 -8.75257E+03  9.89180E+03 -3.92719E+03
  1.21970E+04  8.15054E+02  8.83009E+03  6.30938E+03  1.82389E+03  9.25252E+03 -5.24911E+03  8.52075E+03
 -6.66694E+03  3.09318E+03 -3.37815E+03 -9.29738E+02  1.52265E+03 -2.00557E+03  4.71781E+03 -1.25735E+03
  3.79739E+03  3.52757E+03  9.70949E+02  6.54259E+03 -4.40850E+03  6.24132E+03 -7.87881E+03  1.70669E+03
 -4.25637E+03 -3.49486E+03  3.40065E+02 -6.96535E+03  4.34132E+03 -3.39393E+03  4.11265E+03  7.21178E+02
  3.15070E+02  3.90683E+03 -3.99588E+03  4.89190E+03 -5.06675E+03  2.45686E+03 -4.96122E+03 -1.15835E+03
 -2.93620E+03 -6.15765E+03  1.13158E+03 -7.10733E+03  6.00361E+03 -4.51365E+03  6.81885E+03  4.11193E+02
  4.78558E+03  5.68338E+03  5.22841E+02  7.62849E+03 -5.26496E+03  4.30553E+03 -5.64769E+03 -4.81582E+02
 -5.41444E+03 -4.92623E+03 -1.05642E+03 -5.26674E+03  3.09007E+03 -4.31173E+03  3.67371E+03 -3.00832E+03
  2.78697E+03  3.01433E+02 -3.51828E+01  1.12750E+03  8.03526E+02 -3.05041E+02 -2.58664E+02 -2.01044E+03
  3.93540E+03 -7.86783E+02  5.21622E+03  2.55209E+02  5.78323E+03  3.51668E+03  5.44671E+03  7.25136E+03
 -1.53520E+03  8.99729E+03 -8.02522E+03  6.79558E+03 -1.03255E+04  1.65715E+03 -8.03182E+03 -2.75033E+03
 -4.24569E+03 -6.58055E+03 -4.41225E+02 -5.57542E+03  2.56278E+03 -2.38957E+03  2.12645E+03 -2.48116E+03
  1.40753E+03 -1.30940E+03  2.06109E+03 -2.39919E+03  4.14102E+03 -1.39070E+03  3.31124E+03  4.94147E+02
  4.61337E+03  1.13719E+03  1.39840E+03  3.63708E+03 -1.43655E+03  2.91891E+03 -3.94470E+03  2.88997E+03
 -5.87905E+03 -8.63693E+02 -2.67953E+03 -3.37144E+03  2.66889E+02 -4.88997E+03  3.44375E+03 -5.42415E+03
  5.35108E+03 -3.91794E+03  7.22051E+03 -7.29655E+00  4.72207E+03  4.60073E+03  8.38108E+02  6.76261E+03
 -1.17182E+03  6.09234E+03 -3.29840E+03  2.21750E+03 -2.50370E+03 -1.04391E+03 -9.23715E+02 -8.82865E+02
 -4.32539E+02  7.64880E+02 -9.69270E+02  2.03539E+03 -2.62439E+03  1.47501E+03 -4.24314E+03 -1.99730E+02
 -7.56164E+02 -4.05807E+03  3.51384E+02 -4.92252E+03  2.82724E+03 -4.49088E+03  3.49119E+03 -1.45077E+03
  4.61186E+03  2.51670E+03  1.83845E+03  3.42205E+03 -8.23521E+02  4.14847E+03 -2.68861E+03  3.64395E+03
 -4.14826E+03  1.92596E+02 -4.31240E+03 -2.36127E+03 -3.55444E+02 -3.45466E+03  1.42182E+03 -3.39689E+03
  2.74585E+03 -1.26542E+03  1.76088E+03  4.97091E+02  2.88245E+02  1.72185E+03  4.36283E+02  6.29630E+02
  1.58477E+03  3.13493E+02  8.62151E+02  1.34193E+03  6.89729E+02  2.44251E+03  1.39405E+03  1.70393E+03
 -1.29879E+03  3.59980E+03 -3.05957E+03  4.00969E+03 -3.85622E+03  1.12400E+03 -4.24382E+03 -3.80757E+02
 -1.92688E+03 -4.18007E+03  4.12517E+02 -5.55755E+03  2.85357E+03 -3.24348E+03  3.45946E+03 -9.20615E+02
  3.27237E+03  1.68793E+03  7.83774E+02  2.30609E+03 -5.98765E+02  1.43599E+03 -1.33063E+03 -3.20794E+02
 -5.27162E+02 -2.44911E+03  1.38018E+03 -1.95834E+03  1.06636E+03 -8.25654E+02  1.26443E+03  4.52130E+02
  7.90951E+02  1.35171E+02  1.20191E+03 -5.25113E+02 -1.31206E+01  1.40792E+03  1.51874E+03 -3.02338E+01
  2.18756E+02 -5.85665E+01  2.23008E+03  5.37860E+02  4.82320E+02  2.26675E+03 -5.28474E+02  3.36418E+03
 -1.88489E+03  8.07937E+02 -2.06817E+03 -1.01227E+02 -2.48636E+03 -4.09684E+02  1.06081E+02 -5.43564E+02
  5.55172E+02 -1.48697E+03  5.80336E+02 -6.52048E+02  7.85661E+02  1.24243E+03 -1.19595E+02  1.10127E+03
 -1.80836E+03  6.91924E+02 -9.08294E+02 -1.15694E+03 -5.06622E+02 -1.65312E+03  2.17319E+02 -1.83700E+03
  9.36856E+02 -6.28745E+02  7.39918E+02  4.86978E+01  1.57072E+03 -1.62108E+02  1.93124E+02  7.38790E+02
 -1.17997E+02  1.70729E+02 -7.41467E+02 -4.79760E+02  1.01025E+03 -8.56196E+02  1.97380E+03 -1.55515E+03
  8.86985E+02  6.68552E+02  2.95092E+03  7.80400E+02  1.63467E+03  1.71785E+03 -3.97931E+02  1.83359E+03
 -1.45634E+03  7.32277E+02 -1.26315E+03  1.62143E+02 -8.52945E+02 -1.65369E+03  7.20007E+02 -5.35197E+02
  1.57359E+03 -1.23444E+03  7.24981E+02  8.89902E+02 -3.52337E+02  1.50266E+03 -2.22572E+02  1.38711E+03
 -6.27330E+02  8.56772E+02 -6.12661E+02 -1.14972E+02  3.23778E+02  2.56244E+02 -9.75161E+02  9.78260E+02
 -4.33712E+02  1.02891E+03 -1.99629E+03  3.73912E+02 -2.02245E+03 -5.75147E+02 -2.81005E+03 -4.75486E+02
 -7.10637E+02 -2.93900E+03  7.02625E+02 -3.59364E+03  1.43745E+03 -2.95587E+03  3.40472E+03 -1.11112E+03
  2.30287E+03  6.37181E+02  9.79004E+02  2.00904E+03 -9.53295E+02  1.36920E+03 -8.48365E+02  1.31039E+03
 -1.20969E+03  3.37754E+02 -2.76408E+02 -3.42627E+02 -1.77364E+02  2.97016E+02 -9.68370E+02  4.83374E+02
 -9.75843E+02 -4.91846E+02 -8.77472E+02  3.85060E+02  7.71439E+02 -1.46920E+03 -3.41802E+02 -1.20209E+03
  1.61140E+03 -7.40119E+02  8.75206E+02  4.71973E+02  1.08477E+03  1.26113E+03 -4.51971E+02  1.64600E+03
 -6.03139E+02  2.54094E+03 -1.97575E+03  1.13091E+03 -2.17885E+03 -2.76315E+02 -1.11099E+03 -1.32812E+03
 -9.46546E+02 -1.66890E+03  9.88586E+01 -1.95119E+03  9.19557E+02  4.61625E+01  8.18964E+02 -3.83723E+01
  8.24184E+02  3.02762E+02  3.56838E+02  2.95117E+02 -8.31272E+02  8.10374E+01 -2.47388E+01 -6.24323E+02
  8.61788E+02  2.09183E+01  3.17996E+02  6.30786E+02  4.70866E+02  3.81809E+02 -1.19426E+02  4.32473E+02
 -6.32472E+02  5.95381E+02 -6.60866E+02  1.41919E+02 -7.85367E+02 -8.97831E+02 -3.92632E+02 -9.60941E+02
  8.08976E+02 -8.53549E+02  2.08599E+02 -2.90652E+02  1.24869E+03 -9.53745E+02  1.19273E+03  8.23149E+02
  2.88322E+02  3.18815E+02 -2.06648E+02  5.70938E+02 -5.93137E+02  9.02382E+02 -6.58100E+02 -3.67747E+02
 -6.38970E+02 -3.27721E+02 -6.49019E+02 -4.85459E+01  4.98436E+01  1.52177E+02 -1.08893E+03 -4.50526E+02
 -9.83094E+02 -1.96661E+02 -3.56217E+02 -9.41175E+02  1.52391E+02 -1.61793E+03  8.84439E+02 -4.53934E+02
  2.60675E+02 -1.97832E+01 -4.86500E+02  2.73363E+01 -8.62185E+01  1.48754E+03 -1.66960E+02  7.28073E+02
