 $NMID ID='MM_0lb_SNR400_9hz_g60_7.RAW', FMTDAT='(8E13.5)'
 TRAMP=1., VOLUME=1. $END
  3.09960E+05  6.63696E+02  3.38613E+05  2.50603E+05  8.45061E+04  3.38890E+05 -1.32772E+05  2.52875E+05
 -1.90893E+05  8.36667E+04 -1.13166E+05 -3.24419E+04  4.28201E+02 -5.09340E+04  5.45591E+04  9.64876E+00
  3.63603E+04  5.32096E+04 -1.66295E+04  7.60671E+04 -6.06780E+04  6.45406E+04 -8.60978E+04  3.14596E+04
 -8.30364E+04 -1.21264E+04 -5.86790E+04 -5.21674E+04 -1.44634E+04 -7.15953E+04  2.80165E+04 -4.72173E+04
  4.14924E+04  3.78728E+03  1.69294E+04  4.83482E+04 -3.50496E+04  4.84677E+04 -6.81240E+04  8.70891E+02
 -5.54601E+04 -5.83566E+04 -7.14217E+03 -7.94852E+04  3.53456E+04 -5.59531E+04  4.98556E+04 -1.90797E+04
  4.61280E+04  1.24857E+04  3.32124E+04  2.70471E+04  1.59921E+04  3.08754E+04 -5.26134E+03  2.72848E+04
 -2.27721E+04  1.16234E+04 -1.84137E+04 -5.23123E+03  6.97159E+03 -7.52789E+03  2.31316E+04  1.45213E+04
  6.47771E+03  3.85697E+04 -3.37209E+04  3.72502E+04 -6.65802E+04  2.07224E+03 -5.88901E+04 -4.51554E+04
 -1.25523E+04 -6.76652E+04  4.17569E+04 -4.75760E+04  6.15802E+04 -2.37853E+03  3.69673E+04  3.54801E+04
 -5.56018E+03  3.95189E+04 -3.27005E+04  1.94372E+04 -3.39065E+04 -4.03586E+03 -2.03286E+04 -1.20636E+04
 -9.99919E+03 -1.61361E+04 -7.52582E+02 -2.02341E+04  9.29109E+03 -2.36433E+04  1.62466E+04 -1.19825E+04
  1.07336E+04  5.60866E+03 -1.20733E+04  1.34475E+04 -2.43640E+04 -7.62947E+03 -9.05564E+03 -3.76851E+04
  2.58338E+04 -4.70809E+04  5.26889E+04 -2.12703E+04  5.00080E+04  2.16907E+04  1.73327E+04  4.81445E+04
 -1.73053E+04  3.67014E+04 -2.77332E+04  2.63909E+03 -1.17380E+04 -2.96534E+04  2.17639E+04 -3.69878E+04
  4.52439E+04 -1.13764E+04  4.15359E+04  2.49358E+04  2.17665E+04  5.20511E+04 -7.83755E+03  5.82884E+04
 -3.53815E+04  3.93374E+04 -4.92469E+04  1.11103E+04 -4.92101E+04 -1.90336E+04 -2.64742E+04 -4.35831E+04
  8.56780E+03 -4.27578E+04  3.48038E+04 -1.80979E+04  3.28506E+04  1.09681E+04  5.74471E+03  2.05212E+04
 -1.30370E+04  9.80962E+03 -1.03850E+04 -8.37912E+03  5.38221E+03 -1.11856E+04  1.89045E+04  5.52356E+03
  1.43278E+04  2.24415E+04 -4.34536E+03  2.72873E+04 -2.35895E+04  1.57813E+04 -3.25544E+04 -3.42284E+03
 -2.69500E+04 -1.91153E+04 -1.27231E+04 -2.55521E+04  4.27317E+03 -2.68500E+04  2.07892E+04 -2.39958E+04
  3.38211E+04 -1.44306E+04  3.91242E+04  5.27096E+03  2.75160E+04  2.48400E+04  3.46837E+03  4.24432E+04
 -1.99484E+04  3.44850E+04 -3.14641E+04  1.19617E+04 -2.24381E+04 -9.56765E+03 -4.64470E+03 -1.19681E+04
  3.55477E+02 -7.77789E+02 -7.59786E+03  8.83048E+03 -2.12685E+04  4.99197E+03 -2.09726E+04 -9.61321E+03
 -1.23627E+04 -2.41847E+04  5.68566E+03 -2.89993E+04  1.98793E+04 -2.12267E+04  2.27701E+04 -2.66226E+03
  1.60185E+04  1.68385E+04 -1.21278E+03  2.43602E+04 -1.75301E+04  1.41357E+04 -2.42264E+04 -5.11284E+03
 -1.73606E+04 -2.17359E+04 -2.36375E+03 -2.90066E+04  1.22790E+04 -2.51003E+04  2.37267E+04 -1.18546E+04
  2.28567E+04 -6.26174E+02  1.65949E+04  5.49040E+03  9.61418E+03  1.42503E+03  1.37626E+04 -2.45055E+03
  2.27162E+04  2.38705E+03  2.63254E+04  1.93273E+04  1.89223E+04  4.00187E+04 -2.41909E+03  4.54342E+04
 -2.65192E+04  3.85408E+04 -4.37130E+04  2.03315E+04 -4.68688E+04 -3.30570E+03 -3.80968E+04 -2.74409E+04
 -1.56771E+04 -4.00009E+04  1.46127E+04 -3.42068E+04  2.96798E+04 -1.60762E+04  2.50763E+04  8.97839E+03
  8.21320E+03  1.92992E+04 -1.29794E+04  1.56881E+04 -2.11498E+04  2.45217E+03 -1.57178E+04 -1.42177E+04
 -4.69780E+02 -2.07149E+04  1.07094E+04 -1.46460E+04  1.36141E+04 -4.08515E+01  3.41520E+03  9.25154E+03
 -8.95129E+03  4.89917E+03 -8.75761E+03 -7.36986E+03 -2.43976E+03 -1.93040E+04  1.32009E+04 -2.05112E+04
  2.37917E+04 -1.23590E+04  2.79151E+04  3.11512E+03  2.50772E+04  1.95504E+04  1.21819E+04  3.11178E+04
 -5.42584E+03  3.32716E+04 -2.20620E+04  1.91401E+04 -2.38558E+04  4.19574E+03 -1.66956E+04 -6.72341E+03
 -7.34156E+03 -7.66771E+03 -4.57953E+02  6.26878E+02 -2.71826E+03  3.73326E+03 -8.07528E+03  5.48054E+03
 -1.48982E+04 -7.30984E+02 -1.58881E+04 -1.14932E+04 -6.57090E+03 -2.02021E+04  6.81152E+03 -1.66844E+04
  1.31826E+04 -7.31703E+03  9.95017E+03  4.12986E+03 -3.59072E+02  5.87050E+03 -8.72738E+03  2.23593E+01
 -9.05532E+03 -1.06543E+04 -1.48934E+03 -1.63775E+04  1.01017E+04 -1.68114E+04  2.10988E+04 -8.80685E+03
  2.52490E+04  2.52573E+03  1.80113E+04  1.58803E+04  4.26393E+03  2.04983E+04 -9.87446E+03  1.60514E+04
 -1.34562E+04  4.92186E+03 -6.06967E+03 -4.10080E+03  3.06494E+03 -4.81661E+03  9.36037E+03 -9.76380E+02
  7.26619E+03  7.15041E+03  1.52690E+03  1.40820E+04 -1.07095E+04  1.25470E+04 -1.69951E+04  3.64382E+03
 -1.16020E+04 -7.71475E+03  1.08982E+02 -1.47172E+04  9.32428E+03 -7.41146E+03  1.02115E+04  3.58803E+03
  3.24916E+03  1.06145E+04 -8.32471E+03  1.22928E+04 -1.47977E+04  5.21750E+03 -1.55425E+04 -6.02133E+03
 -9.15361E+03 -1.73151E+04  4.79254E+03 -1.93437E+04  1.65699E+04 -1.11862E+04  1.82486E+04  3.04144E+03
  1.14037E+04  1.43797E+04 -1.08063E+03  1.64551E+04 -1.26438E+04  9.01792E+03 -1.33554E+04 -2.10191E+03
 -1.15233E+04 -1.08199E+04 -1.99284E+03 -1.31788E+04  7.32522E+03 -1.07166E+04  8.77757E+03 -3.51910E+03
  5.49101E+03  1.99419E+03 -5.02174E+02  2.38433E+03 -3.60056E+02 -4.35970E+03  3.34486E+03 -8.46467E+03
  1.25650E+04 -4.72471E+03  1.82209E+04  1.96656E+03  1.76547E+04  1.25159E+04  1.08819E+04  2.17130E+04
 -5.91772E+03  2.64385E+04 -2.09928E+04  1.94445E+04 -2.81139E+04  2.76521E+03 -2.23572E+04 -1.00887E+04
 -1.15271E+04 -1.88839E+04 -5.69500E+02 -1.60744E+04  5.41073E+03 -8.41944E+03  5.34316E+03 -6.55410E+03
  3.29374E+03 -3.57637E+03  3.68295E+03 -4.40503E+03  5.69907E+03 -4.64871E+03  7.97452E+03 -2.85197E+03
  1.09318E+04  2.17348E+03  6.40924E+03  1.06834E+04 -1.49145E+03  1.25793E+04 -1.18548E+04  8.73003E+03
 -1.60970E+04 -1.14450E+03 -9.66617E+03 -1.07343E+04 -1.81204E+03 -1.68593E+04  8.51902E+03 -1.68317E+04
  1.80895E+04 -9.68384E+03  2.10891E+04  2.71718E+03  1.45137E+04  1.45236E+04  2.01927E+03  1.85004E+04
 -7.78440E+03  1.53564E+04 -1.14005E+04  5.22500E+03 -8.08404E+03 -8.16548E+02 -3.03646E+03 -2.23206E+03
 -2.05491E+03 -6.54485E+02 -2.76807E+03  4.28545E+03 -6.25879E+03  2.82672E+03 -1.08423E+04 -1.50557E+03
 -8.37454E+03 -1.15197E+04  2.01319E+02 -1.57660E+04  9.89864E+03 -1.38602E+04  1.61779E+04 -4.21623E+03
  1.60591E+04  7.81893E+03  8.11712E+03  1.45984E+04 -2.66280E+03  1.62630E+04 -1.21780E+04  1.08838E+04
 -1.44252E+04 -5.02969E+01 -1.14751E+04 -9.71239E+03 -1.03590E+03 -1.41923E+04  7.36312E+03 -1.03940E+04
  1.00582E+04 -3.13112E+03  6.43457E+03  2.71635E+03  2.95628E+03  5.15155E+03  1.42060E+03  1.92427E+03
  2.72863E+03  1.13828E+03  3.96624E+03  1.32262E+03  5.56898E+03  4.79490E+03  3.62671E+03  8.53230E+03
 -2.73080E+03  1.28863E+04 -1.16858E+04  1.21034E+04 -1.64457E+04  3.33438E+03 -1.69931E+04 -7.14584E+03
 -8.15424E+03 -1.62521E+04  2.78880E+03 -1.84753E+04  1.06152E+04 -1.23897E+04  1.32779E+04 -3.15885E+03
  1.10798E+04  5.82256E+03  2.65894E+03  9.04373E+03 -4.72130E+03  6.10615E+03 -6.71733E+03 -1.17659E+03
 -2.93744E+03 -6.74453E+03  3.83909E+03 -7.81227E+03  7.33498E+03 -3.14829E+03  6.29051E+03  1.24899E+03
  3.78764E+03  3.69769E+03  1.07299E+03  2.97510E+03 -6.31396E+02  1.99695E+03  2.48240E+03 -7.25410E+02
  2.90296E+03 -2.28580E+02  6.50388E+03  2.02963E+03  4.28537E+03  8.24742E+03 -1.55030E+03  1.18141E+04
 -7.57476E+03  7.74408E+03 -1.10106E+04  1.58582E+03 -9.70690E+03 -4.63661E+03 -3.29854E+03 -7.00143E+03
  9.04041E+02 -6.68477E+03  4.60407E+03 -3.65015E+03  3.53644E+03  2.79876E+03 -1.17628E+03  4.77517E+03
 -6.18369E+03  3.47461E+03 -7.51890E+03 -3.68475E+03 -4.89722E+03 -9.53938E+03  7.23099E+02 -8.63394E+03
  4.67921E+03 -5.66770E+03  6.80672E+03 -1.18566E+03  5.44132E+03  2.64041E+03  1.56051E+03  4.33733E+03
 -3.09272E+03  1.34814E+03 -3.88320E+03 -3.34937E+03  1.90583E+03 -7.26525E+03  8.75579E+03 -5.83214E+03
  1.12593E+04  4.01063E+02  9.55824E+03  7.91454E+03  3.07999E+03  1.15559E+04 -4.20596E+03  1.03672E+04
 -9.38497E+03  5.97853E+03 -9.26908E+03 -1.49898E+03 -5.43297E+03 -6.89501E+03  1.99404E+03 -7.19856E+03
  6.27790E+03 -2.99973E+03  5.96867E+03  2.96887E+03  2.92269E+03  5.86835E+03 -1.50019E+03  6.01252E+03
 -2.62292E+03  2.97080E+03 -2.33956E+03  1.05556E+03 -1.18933E+03  7.10027E+02 -1.63891E+03  1.75019E+03
 -2.79024E+03  4.32296E+03 -7.16871E+03  3.26959E+03 -1.07634E+04  1.08456E+02 -1.19155E+04 -7.64909E+03
 -5.87637E+03 -1.33011E+04  2.58264E+03 -1.67270E+04  9.48810E+03 -1.31846E+04  1.59590E+04 -4.95737E+03
  1.42097E+04  3.27586E+03  9.39522E+03  9.75732E+03  9.90312E+02  1.09513E+04 -4.84813E+03  8.32744E+03
 -6.54145E+03  2.83891E+03 -3.75228E+03 -1.15433E+03 -1.39563E+03 -6.18274E+02 -1.10657E+02  1.65180E+02
 -2.44428E+03  1.29162E+03 -3.01233E+03  1.18849E+02 -9.45062E+02 -2.81074E+03  5.62126E+01 -3.83991E+03
  4.26221E+03 -3.74835E+03  6.88118E+03  1.35155E+01  7.72685E+03  6.27285E+03  2.27955E+03  1.13712E+04
 -5.52302E+03  1.28267E+04 -1.19082E+04  8.53619E+03 -1.44467E+04 -1.53234E+03 -8.90028E+03 -8.43809E+03
 -4.78112E+03 -1.19686E+04  2.61130E+03 -1.03115E+04  7.28591E+03 -5.87352E+03  6.94900E+03 -5.13109E+01
  4.25763E+03  3.89964E+03 -8.38745E+02  3.09418E+03 -1.88972E+03 -3.50913E+02 -1.64625E+02 -3.06784E+03
  3.59519E+03 -1.64048E+03  4.47378E+03  1.11033E+03  3.79340E+03  3.14905E+03 -7.86434E+01  5.92277E+03
 -5.18969E+03  5.80947E+03 -7.65133E+03  5.24792E+02 -6.74070E+03 -4.94796E+03 -1.18904E+03 -9.61477E+03
  5.42506E+03 -8.18667E+03  9.14100E+03 -2.70023E+03  9.23790E+03  2.09101E+03  5.01914E+03  7.33113E+03
  1.57364E+03  7.62914E+03 -3.35974E+03  6.37091E+03 -5.07604E+03  3.77801E+03 -3.43531E+03  6.14512E+02
 -2.72234E+03 -6.33535E+01 -2.09687E+03  7.18505E+02 -3.34189E+03  7.10380E+02 -6.29919E+03 -9.67308E+02
 -5.63364E+03 -4.96150E+03 -1.19494E+03 -7.43409E+03  3.35062E+03 -7.98520E+03  7.10486E+03 -3.47260E+03
  7.90991E+03  1.26443E+03  5.32223E+03  5.21018E+03 -6.05836E+02  7.89803E+03 -6.28783E+03  5.76716E+03
