 $NMID ID='MM_0lb_SNR400_10hz_g40_78.RAW', FMTDAT='(8E13.5)'
 TRAMP=1., VOLUME=1. $END
  3.09654E+05  1.69398E+02  3.38484E+05  2.50532E+05  8.49745E+04  3.38157E+05 -1.32060E+05  2.51559E+05
 -1.90667E+05  8.30248E+04 -1.11734E+05 -3.26324E+04  8.98304E+02 -5.08921E+04  5.37273E+04 -1.20869E+00
  3.62041E+04  5.34165E+04 -1.73346E+04  7.56852E+04 -6.15377E+04  6.43615E+04 -8.41814E+04  3.26601E+04
 -8.16467E+04 -1.12479E+04 -5.78053E+04 -5.23266E+04 -1.53742E+04 -6.96583E+04  2.81979E+04 -4.64375E+04
  4.10961E+04  3.44594E+03  1.67273E+04  4.82851E+04 -3.49453E+04  4.81056E+04 -6.75210E+04  2.01017E+02
 -5.45558E+04 -5.67991E+04 -7.31329E+03 -7.82561E+04  3.43660E+04 -5.58726E+04  4.86896E+04 -1.72275E+04
  4.41860E+04  1.08934E+04  3.25316E+04  2.59715E+04  1.57096E+04  3.03872E+04 -5.47421E+03  2.72415E+04
 -2.22432E+04  1.19028E+04 -1.79814E+04 -5.09750E+03  5.19839E+03 -7.46665E+03  2.25797E+04  1.32641E+04
  7.61588E+03  3.70431E+04 -3.32344E+04  3.54318E+04 -6.50159E+04  1.88218E+03 -5.83095E+04 -4.39468E+04
 -1.24566E+04 -6.54965E+04  4.09470E+04 -4.65442E+04  6.03308E+04 -2.82591E+03  3.61206E+04  3.32215E+04
 -5.86462E+03  3.76984E+04 -3.10499E+04  1.75920E+04 -3.19730E+04 -3.69889E+03 -1.83711E+04 -1.15159E+04
 -9.17868E+03 -1.38296E+04  5.74496E+02 -1.88376E+04  7.64644E+03 -2.33728E+04  1.58374E+04 -1.24696E+04
  1.09282E+04  5.20673E+03 -1.02754E+04  1.26602E+04 -2.22139E+04 -6.34765E+03 -8.60459E+03 -3.58225E+04
  2.52444E+04 -4.53928E+04  5.09187E+04 -1.97093E+04  4.71183E+04  2.02830E+04  1.72498E+04  4.54278E+04
 -1.69362E+04  3.47175E+04 -2.60163E+04  2.52868E+03 -1.09055E+04 -2.88867E+04  2.15041E+04 -3.56136E+04
  4.30159E+04 -1.06717E+04  3.86055E+04  2.37321E+04  1.93958E+04  4.91918E+04 -7.92369E+03  5.37157E+04
 -3.41073E+04  3.60674E+04 -4.58923E+04  1.02308E+04 -4.60712E+04 -1.72202E+04 -2.45810E+04 -4.02058E+04
  7.51004E+03 -4.01661E+04  3.32197E+04 -1.64535E+04  3.14969E+04  1.13167E+04  4.63421E+03  2.06022E+04
 -1.37012E+04  8.51080E+03 -1.06769E+04 -7.66133E+03  6.19739E+03 -1.11044E+04  1.81973E+04  7.00649E+03
  1.40614E+04  2.30342E+04 -5.00221E+03  2.57345E+04 -2.27636E+04  1.33526E+04 -3.01034E+04 -4.14369E+03
 -2.39612E+04 -1.75754E+04 -9.44598E+03 -2.31308E+04  4.46419E+03 -2.33742E+04  1.78059E+04 -2.12775E+04
  3.02352E+04 -1.34512E+04  3.52743E+04  4.54320E+03  2.52033E+04  2.27576E+04  3.97813E+03  3.91192E+04
 -2.00137E+04  3.30054E+04 -3.02524E+04  1.14232E+04 -2.21580E+04 -9.75347E+03 -3.93826E+03 -1.29788E+04
  1.26505E+03 -2.55085E+03 -6.40098E+03  7.42884E+03 -1.86011E+04  5.10285E+03 -1.93774E+04 -8.74122E+03
 -1.15403E+04 -2.16988E+04  4.74694E+03 -2.57862E+04  1.71984E+04 -1.84260E+04  2.01950E+04 -1.72429E+03
  1.33896E+04  1.47641E+04 -7.77190E+02  2.24565E+04 -1.54744E+04  1.20884E+04 -2.19199E+04 -5.52108E+03
 -1.67333E+04 -1.94767E+04 -2.54599E+03 -2.64071E+04  1.17595E+04 -2.14982E+04  2.14984E+04 -1.14966E+04
  2.01770E+04  9.20799E+00  1.44531E+04  5.08218E+03  8.03537E+03  1.30368E+03  1.11911E+04 -1.85352E+03
  2.01298E+04  3.20180E+03  2.28448E+04  1.72105E+04  1.55865E+04  3.53196E+04 -2.30721E+03  4.03995E+04
 -2.32692E+04  3.37723E+04 -3.80882E+04  1.65558E+04 -4.01613E+04 -3.15538E+03 -3.25310E+04 -2.36790E+04
 -1.36820E+04 -3.35179E+04  1.16015E+04 -2.94307E+04  2.53941E+04 -1.41678E+04  2.27939E+04  6.60589E+03
  8.10040E+03  1.67829E+04 -1.07332E+04  1.44440E+04 -1.88771E+04  2.57106E+03 -1.36555E+04 -1.09921E+04
  1.63290E+02 -1.72210E+04  9.61796E+03 -1.36015E+04  1.20062E+04 -1.38624E+03  3.35363E+03  7.43024E+03
 -7.57918E+03  3.57826E+03 -8.24658E+03 -6.69142E+03 -1.40481E+03 -1.53628E+04  1.05576E+04 -1.83185E+04
  2.06319E+04 -9.77342E+03  2.25892E+04  3.17581E+03  2.06744E+04  1.62170E+04  9.07452E+03  2.61599E+04
 -4.95961E+03  2.81856E+04 -1.77078E+04  1.77472E+04 -2.00190E+04  3.29206E+03 -1.39037E+04 -4.83571E+03
 -6.10577E+03 -5.81520E+03 -1.03765E+02  2.27692E+02 -2.91719E+03  3.65720E+03 -6.01272E+03  4.98902E+03
 -1.29484E+04 -1.54613E+03 -1.33560E+04 -1.04059E+04 -5.22501E+03 -1.72338E+04  5.56930E+03 -1.33870E+04
  1.16935E+04 -6.52670E+03  8.36362E+03  3.23952E+03 -1.00786E+02  5.66042E+03 -7.07506E+03 -5.39489E+02
 -6.68653E+03 -9.01182E+03 -1.39253E+03 -1.33968E+04  7.13458E+03 -1.40602E+04  1.74615E+04 -6.84960E+03
  2.09805E+04  2.56010E+03  1.45698E+04  1.25703E+04  2.92931E+03  1.67345E+04 -8.59387E+03  1.39812E+04
 -1.14171E+04  3.76139E+03 -6.16778E+03 -2.93233E+03  1.90938E+03 -4.35282E+03  7.91320E+03 -1.45142E+03
  6.24249E+03  6.33731E+03  7.55063E+02  1.13264E+04 -7.80675E+03  1.04999E+04 -1.34625E+04  3.20990E+03
 -9.23032E+03 -6.90338E+03 -3.99702E+02 -1.20782E+04  6.87709E+03 -6.39450E+03  7.98557E+03  2.96033E+03
  2.06850E+03  8.93087E+03 -7.37406E+03  1.01741E+04 -1.11037E+04  4.55253E+03 -1.20215E+04 -3.68070E+03
 -6.53017E+03 -1.28099E+04  3.19182E+03 -1.57923E+04  1.31417E+04 -9.04639E+03  1.42700E+04  2.07949E+03
  8.73726E+03  1.23641E+04 -1.00564E+03  1.43875E+04 -1.06156E+04  7.08368E+03 -1.11552E+04 -1.14676E+03
 -9.75744E+03 -9.71791E+03 -2.22015E+03 -1.04182E+04  5.47829E+03 -8.20743E+03  6.58400E+03 -3.44588E+03
  3.94455E+03  2.13408E+03 -9.63608E+02  1.14799E+03 -5.56219E+00 -2.08260E+03  1.87979E+03 -7.14792E+03
  9.45253E+03 -4.74493E+03  1.36020E+04  1.94397E+03  1.31873E+04  9.82791E+03  9.07724E+03  1.75666E+04
 -3.80975E+03  2.03194E+04 -1.75370E+04  1.49778E+04 -2.14313E+04  2.72529E+03 -1.84362E+04 -7.80428E+03
 -8.58278E+03 -1.45130E+04 -4.47967E+02 -1.23212E+04  5.04434E+03 -7.33687E+03  4.45731E+03 -4.75291E+03
  3.62938E+03 -2.21972E+03  2.90907E+03 -3.29423E+03  5.30910E+03 -2.77317E+03  7.38853E+03 -3.29574E+02
  8.90368E+03  2.41502E+03  5.10240E+03  7.70326E+03 -1.89748E+03  1.00626E+04 -9.43566E+03  7.15472E+03
 -1.24810E+04 -8.83046E+02 -7.91805E+03 -8.67799E+03 -9.86600E+02 -1.27219E+04  7.78777E+03 -1.28663E+04
  1.35246E+04 -6.93003E+03  1.73280E+04  2.52726E+03  1.16254E+04  1.15421E+04  2.15828E+03  1.45773E+04
 -6.69717E+03  1.18539E+04 -8.54835E+03  3.90749E+03 -5.91231E+03 -2.02925E+03 -2.69898E+03 -1.64107E+03
 -1.34862E+03  3.57655E+01 -2.33869E+03  3.12116E+03 -5.30707E+03  2.37934E+03 -9.04827E+03 -7.14207E+02
 -6.12604E+03 -8.55647E+03 -2.53468E+01 -1.24330E+04  7.37530E+03 -1.10534E+04  1.14532E+04 -3.21251E+03
  1.26094E+04  5.40101E+03  5.62933E+03  9.87015E+03 -2.39713E+03  1.27330E+04 -9.21954E+03  8.29254E+03
 -1.07751E+04  1.14012E+02 -8.69529E+03 -7.27605E+03 -9.45160E+02 -1.09718E+04  5.35650E+03 -7.21035E+03
  7.98576E+03 -2.91688E+03  4.83243E+03  2.18918E+03  1.96305E+03  4.13811E+03  1.50153E+03  2.31762E+03
  2.88381E+03  2.66182E+02  3.15940E+03  2.43559E+03  2.66167E+03  4.42175E+03  2.97717E+03  6.29792E+03
 -2.41822E+03  9.68545E+03 -7.84673E+03  9.93872E+03 -1.18970E+04  2.38373E+03 -1.18255E+04 -4.70474E+03
 -6.28570E+03 -1.20460E+04  1.88934E+03 -1.30931E+04  7.07019E+03 -9.14718E+03  9.30012E+03 -2.72256E+03
  7.62366E+03  3.99219E+03  1.03667E+03  7.13404E+03 -3.83810E+03  4.66735E+03 -5.59089E+03 -6.26998E+02
 -1.67830E+03 -5.27935E+03  3.25749E+03 -5.10487E+03  5.71458E+03 -2.80871E+03  5.06475E+03  9.56985E+02
  2.85852E+03  2.76042E+03  1.79627E+03  1.48383E+03 -8.92757E+02  2.60038E+03  2.06062E+03 -2.91258E+02
  2.85987E+03 -4.53549E+01  5.89538E+03  1.83731E+03  2.23799E+03  6.83920E+03 -9.35266E+02  8.83388E+03
 -5.93345E+03  5.72522E+03 -8.35581E+03  1.10916E+03 -6.56660E+03 -2.81138E+03 -3.24296E+03 -4.80560E+03
  3.16112E+02 -4.65418E+03  3.47596E+03 -2.74631E+03  2.61678E+03  2.83139E+03 -1.47987E+03  3.36038E+03
 -5.01944E+03  2.36084E+03 -5.03444E+03 -2.95893E+03 -3.10542E+03 -7.30137E+03  8.74421E+02 -6.83667E+03
  4.23859E+03 -3.28025E+03  4.60903E+03 -2.57500E+01  3.20120E+03  2.67160E+03  1.20017E+03  3.83233E+03
 -2.25780E+03  9.30633E+02 -3.45071E+03 -2.55136E+03  7.59778E+02 -5.08889E+03  6.10715E+03 -3.97247E+03
  7.45573E+03  7.56636E+02  7.94747E+03  5.05492E+03  3.05375E+03  7.94233E+03 -2.50806E+03  8.05296E+03
 -6.06697E+03  2.34026E+03 -5.91657E+03 -1.50274E+03 -3.24888E+03 -4.81368E+03  1.37051E+03 -5.49819E+03
  5.46713E+03 -2.72042E+03  3.92090E+03  2.45282E+03  1.22538E+03  3.91412E+03 -2.61650E+02  4.07226E+03
 -1.67713E+03  2.47861E+03 -2.29006E+03  7.44077E+02 -8.42685E+02  7.03395E+02 -8.58404E+02  1.60729E+03
 -1.96582E+03  3.65397E+03 -6.03597E+03  2.05360E+03 -7.86397E+03 -5.37914E+02 -9.41323E+03 -5.41904E+03
 -4.63464E+03 -1.11602E+04  2.42112E+03 -1.22266E+04  7.69100E+03 -1.01037E+04  1.15728E+04 -3.36030E+03
  1.13038E+04  1.72861E+03  8.08191E+03  7.68231E+03  2.65385E+02  8.10268E+03 -3.27734E+03  6.35571E+03
 -4.00141E+03  2.21972E+03 -3.45175E+03 -1.39148E+03 -8.74403E+02 -8.50089E+02 -8.65953E+02  2.86560E+00
 -1.57986E+03  4.70272E+01 -1.81657E+03 -3.05977E+02 -5.53992E+02 -2.59269E+03 -1.34885E+02 -3.03930E+03
  3.45409E+03 -2.30805E+03  4.28365E+03  1.93515E+02  5.87561E+03  4.65442E+03  1.51069E+03  7.91172E+03
 -3.50499E+03  9.65180E+03 -9.04709E+03  5.48524E+03 -1.00422E+04 -5.32846E+02 -7.37674E+03 -6.11623E+03
 -3.11845E+03 -8.14762E+03  1.86561E+03 -7.50829E+03  5.84794E+03 -4.33010E+03  5.40887E+03  2.63234E+01
  2.69236E+03  2.54610E+03 -1.95973E+02  1.63096E+03 -1.51693E+03 -9.58391E+02 -6.67300E+02 -1.60103E+03
  2.67843E+03 -6.95354E+02  2.78753E+03  1.12051E+03  2.41955E+03  3.54447E+03  3.84207E+02  3.11922E+03
 -3.78167E+03  3.44994E+03 -5.99077E+03  8.89042E+02 -4.66441E+03 -3.78950E+03 -9.57599E+02 -6.81154E+03
  4.43150E+03 -5.79539E+03  6.05884E+03 -1.95199E+03  5.60704E+03  5.27980E+02  3.96243E+03  5.57888E+03
  3.98000E+02  5.37097E+03 -2.98168E+03  4.42749E+03 -3.38659E+03  2.56228E+03 -2.11119E+03  2.03231E+02
 -1.10813E+03 -7.72753E+02 -2.32065E+03  1.01377E+03 -3.04840E+03  4.61004E+02 -4.29095E+03 -1.43183E+03
 -3.51648E+03 -3.14005E+03 -9.75221E+02 -4.94663E+03  2.91034E+03 -6.29968E+03  5.39971E+03 -1.99683E+03
  5.61647E+03  3.32693E+02  2.69144E+03  3.23256E+03 -3.44725E+02  5.57270E+03 -4.07903E+03  3.85407E+03
