 $NMID ID='MM_0lb_SNR400_9hz_g55_94.RAW', FMTDAT='(8E13.5)'
 TRAMP=1., VOLUME=1. $END
  3.10164E+05  9.49971E+02  3.38264E+05  2.51447E+05  8.49540E+04  3.38562E+05 -1.32763E+05  2.52235E+05
 -1.90894E+05  8.46523E+04 -1.12489E+05 -3.26953E+04  1.88609E+02 -5.04760E+04  5.38374E+04 -4.04568E+02
  3.52059E+04  5.32138E+04 -1.58492E+04  7.52496E+04 -6.06032E+04  6.45644E+04 -8.54453E+04  3.27323E+04
 -8.21612E+04 -1.23829E+04 -5.81045E+04 -5.19814E+04 -1.41461E+04 -7.10673E+04  2.84256E+04 -4.78035E+04
  4.18008E+04  4.29559E+03  1.68424E+04  4.80619E+04 -3.41910E+04  4.82863E+04 -6.91498E+04  1.72234E+02
 -5.55961E+04 -5.77149E+04 -6.80818E+03 -8.03990E+04  3.49552E+04 -5.69397E+04  5.03639E+04 -1.80681E+04
  4.50637E+04  1.11444E+04  3.40924E+04  2.63399E+04  1.72358E+04  3.09494E+04 -6.32522E+03  2.80432E+04
 -2.26975E+04  1.17106E+04 -1.81831E+04 -5.32579E+03  6.71347E+03 -7.62542E+03  2.41977E+04  1.45139E+04
  6.54079E+03  3.71082E+04 -3.52359E+04  3.82462E+04 -6.60791E+04  2.59450E+03 -5.89106E+04 -4.32105E+04
 -1.14272E+04 -6.60430E+04  4.21498E+04 -4.68849E+04  6.15020E+04 -2.58434E+03  3.76858E+04  3.43819E+04
 -5.72572E+03  3.95782E+04 -3.22081E+04  1.87967E+04 -3.35689E+04 -3.23367E+03 -1.98466E+04 -1.15602E+04
 -9.58352E+03 -1.65414E+04 -8.88677E+02 -1.89565E+04  8.07147E+03 -2.39476E+04  1.52472E+04 -1.32357E+04
  1.06574E+04  6.53994E+03 -1.08080E+04  1.24253E+04 -2.42765E+04 -7.17888E+03 -8.70990E+03 -3.74618E+04
  2.50397E+04 -4.80221E+04  5.21447E+04 -2.02712E+04  4.85449E+04  2.08889E+04  1.79131E+04  4.73562E+04
 -1.72256E+04  3.59146E+04 -2.89578E+04  3.50509E+03 -1.17476E+04 -2.95952E+04  2.12679E+04 -3.70154E+04
  4.50936E+04 -1.13443E+04  4.09171E+04  2.57507E+04  2.16157E+04  5.13422E+04 -9.04312E+03  5.62054E+04
 -3.61670E+04  3.80235E+04 -4.77225E+04  9.70476E+03 -4.81394E+04 -1.88222E+04 -2.77535E+04 -4.20622E+04
  8.88377E+03 -4.22645E+04  3.43391E+04 -1.74010E+04  3.25739E+04  1.06418E+04  5.98320E+03  2.06259E+04
 -1.39393E+04  9.53540E+03 -1.12823E+04 -7.44389E+03  5.36982E+03 -1.08769E+04  1.89662E+04  5.88033E+03
  1.48383E+04  2.30451E+04 -5.18135E+03  2.70072E+04 -2.33846E+04  1.46805E+04 -3.21859E+04 -2.62652E+03
 -2.59890E+04 -1.88297E+04 -1.20471E+04 -2.52274E+04  4.32647E+03 -2.62140E+04  2.08021E+04 -2.31997E+04
  3.22022E+04 -1.39240E+04  3.81625E+04  5.59357E+03  2.78404E+04  2.49032E+04  4.29922E+03  4.13313E+04
 -2.00811E+04  3.39412E+04 -3.05984E+04  1.27542E+04 -2.35507E+04 -1.05785E+04 -4.94280E+03 -1.29694E+04
  8.29505E+02 -7.28290E+02 -8.09428E+03  8.83812E+03 -2.07400E+04  4.80684E+03 -2.09617E+04 -9.60474E+03
 -1.18376E+04 -2.42478E+04  5.77918E+03 -2.79906E+04  1.84973E+04 -2.01418E+04  2.28755E+04 -1.80089E+03
  1.52065E+04  1.64941E+04 -1.95007E+03  2.36966E+04 -1.67131E+04  1.31129E+04 -2.40513E+04 -4.48154E+03
 -1.68749E+04 -2.13694E+04 -2.81417E+03 -2.87331E+04  1.24499E+04 -2.38002E+04  2.38110E+04 -1.24874E+04
  2.25689E+04 -6.60186E+02  1.66262E+04  5.52356E+03  8.95308E+03  2.21310E+03  1.22752E+04 -2.22938E+03
  2.35738E+04  2.33771E+03  2.58375E+04  1.86418E+04  1.73515E+04  3.91204E+04 -2.54577E+03  4.52304E+04
 -2.54515E+04  3.83334E+04 -4.24136E+04  1.94154E+04 -4.49850E+04 -2.60574E+03 -3.71648E+04 -2.62796E+04
 -1.54771E+04 -3.77523E+04  1.41147E+04 -3.27001E+04  2.87518E+04 -1.59460E+04  2.46029E+04  8.11867E+03
  7.87679E+03  1.83931E+04 -1.13789E+04  1.60629E+04 -1.98164E+04  3.07519E+03 -1.50459E+04 -1.31137E+04
 -4.22882E+02 -1.96824E+04  1.09609E+04 -1.46705E+04  1.41903E+04 -1.45322E+03  3.60618E+03  8.52143E+03
 -9.00528E+03  4.25281E+03 -9.05812E+03 -7.07886E+03 -1.80012E+03 -1.96467E+04  1.26930E+04 -2.11690E+04
  2.44079E+04 -1.14036E+04  2.67035E+04  2.85368E+03  2.31624E+04  1.86178E+04  1.01265E+04  3.03724E+04
 -5.68155E+03  3.23539E+04 -2.13301E+04  1.92223E+04 -2.34617E+04  4.23123E+03 -1.56451E+04 -5.95702E+03
 -6.10156E+03 -7.72027E+03 -1.12650E+03  1.95362E+02 -3.57718E+03  3.04367E+03 -7.92014E+03  5.14836E+03
 -1.51642E+04 -5.83202E+02 -1.60642E+04 -1.20610E+04 -6.82561E+03 -2.14691E+04  6.30038E+03 -1.61427E+04
  1.35949E+04 -5.86154E+03  9.25048E+03  4.76344E+03 -7.25924E+02  6.73126E+03 -8.68921E+03 -5.82885E+02
 -7.95873E+03 -1.07941E+04 -1.16633E+03 -1.57540E+04  9.05195E+03 -1.72303E+04  2.05158E+04 -8.66720E+03
  2.39030E+04  2.06322E+03  1.84705E+04  1.48656E+04  3.41310E+03  1.87930E+04 -1.00035E+04  1.60905E+04
 -1.32894E+04  4.57362E+03 -7.25862E+03 -3.02075E+03  1.69016E+03 -4.73901E+03  8.80373E+03 -1.19134E+03
  7.34533E+03  7.29899E+03  6.55179E+02  1.39360E+04 -9.29185E+03  1.17934E+04 -1.59115E+04  3.12724E+03
 -1.07595E+04 -9.34174E+03 -1.35540E+02 -1.36770E+04  9.26388E+03 -6.84842E+03  1.00760E+04  4.44131E+03
  1.97707E+03  9.41227E+03 -8.89456E+03  1.20212E+04 -1.33765E+04  4.74417E+03 -1.43544E+04 -5.57152E+03
 -7.68959E+03 -1.59336E+04  4.26078E+03 -1.90352E+04  1.53515E+04 -1.16285E+04  1.79019E+04  3.16882E+03
  1.06826E+04  1.34326E+04 -9.03202E+02  1.60511E+04 -1.19335E+04  9.52143E+03 -1.37109E+04 -9.13509E+02
 -1.16755E+04 -1.12210E+04 -1.52420E+03 -1.23474E+04  6.29897E+03 -9.88884E+03  8.55907E+03 -4.13207E+03
  4.81970E+03  2.10552E+03 -1.09570E+03  1.63984E+03 -8.83938E+02 -3.41447E+03  2.66969E+03 -7.83934E+03
  1.21218E+04 -5.56510E+03  1.65511E+04  1.41817E+03  1.67956E+04  1.20870E+04  1.04423E+04  2.20068E+04
 -4.90396E+03  2.51510E+04 -2.15932E+04  1.80083E+04 -2.67031E+04  3.58015E+03 -2.16583E+04 -9.05955E+03
 -1.08829E+04 -1.79083E+04  1.41878E+02 -1.50843E+04  5.51536E+03 -8.76693E+03  4.95654E+03 -5.37770E+03
  3.90679E+03 -3.07082E+03  4.32788E+03 -4.15091E+03  6.66472E+03 -4.65920E+03  8.19770E+03 -1.44891E+03
  1.06482E+04  3.09249E+03  6.23748E+03  1.01713E+04 -2.73348E+03  1.17114E+04 -1.07983E+04  1.00517E+04
 -1.56796E+04 -1.39783E+03 -1.04296E+04 -9.52624E+03 -9.93558E+02 -1.66552E+04  9.04496E+03 -1.65447E+04
  1.68835E+04 -9.96402E+03  2.04054E+04  3.79036E+03  1.39574E+04  1.40920E+04  2.38918E+03  1.81332E+04
 -6.70297E+03  1.47269E+04 -1.08815E+04  6.48723E+03 -7.09228E+03 -8.53618E+02 -3.62800E+03 -1.90702E+03
 -9.24042E+02  1.27896E+02 -2.36472E+03  2.98663E+03 -6.34241E+03  2.86766E+03 -1.06157E+04 -1.80063E+03
 -7.78606E+03 -1.05367E+04 -3.57438E+02 -1.55198E+04  9.59755E+03 -1.41853E+04  1.60653E+04 -4.48714E+03
  1.50874E+04  7.17564E+03  6.39166E+03  1.39950E+04 -3.29586E+03  1.52740E+04 -1.13181E+04  9.83181E+03
 -1.42974E+04  1.64630E+02 -1.14528E+04 -9.71677E+03 -5.24148E+02 -1.33466E+04  6.93580E+03 -9.80921E+03
  9.23336E+03 -2.97567E+03  6.69738E+03  2.85261E+03  2.38557E+03  5.21645E+03  1.73678E+03  1.56225E+03
  3.17228E+03  1.27503E+03  3.46430E+03  1.49139E+03  4.24448E+03  5.15952E+03  3.61734E+03  8.45155E+03
 -3.36530E+03  1.20920E+04 -1.17906E+04  1.20625E+04 -1.57475E+04  3.45658E+03 -1.69951E+04 -7.19483E+03
 -8.43114E+03 -1.58069E+04  2.66450E+03 -1.75739E+04  9.22336E+03 -1.10730E+04  1.28158E+04 -3.87660E+03
  1.06270E+04  5.79159E+03  2.22310E+03  8.32171E+03 -3.75105E+03  6.23141E+03 -6.82628E+03 -1.04850E+03
 -3.49074E+03 -7.02584E+03  4.42660E+03 -6.36247E+03  6.35673E+03 -2.98640E+03  6.15819E+03  1.56206E+03
  3.57369E+03  2.43245E+03  1.45537E+03  2.37639E+03 -4.13542E+02  2.51570E+03  9.25305E+02 -5.79970E+02
  2.15030E+03 -6.79390E+02  6.37108E+03  2.22362E+03  4.29481E+03  8.19761E+03 -1.49806E+03  1.13508E+04
 -8.48274E+03  7.20015E+03 -1.12235E+04  1.84128E+03 -8.75396E+03 -3.11604E+03 -3.14004E+03 -5.87645E+03
  9.31042E+02 -5.60472E+03  5.10098E+03 -2.60192E+03  3.91732E+03  3.38857E+03 -1.29958E+03  4.53521E+03
 -7.04890E+03  3.59860E+03 -7.46445E+03 -4.20555E+03 -4.05648E+03 -8.08705E+03  1.46752E+03 -9.50758E+03
  5.47514E+03 -4.91357E+03  6.28496E+03 -1.50082E+02  6.16668E+03  1.97333E+03  1.60221E+03  4.72667E+03
 -3.62490E+03  1.38843E+03 -4.11774E+03 -3.06892E+03  1.02853E+03 -6.79238E+03  8.13165E+03 -5.87602E+03
  1.06056E+04  7.29177E+02  9.63585E+03  7.04839E+03  3.20731E+03  1.16109E+04 -4.29444E+03  9.33119E+03
 -8.05537E+03  4.18504E+03 -9.08007E+03 -1.39223E+03 -4.80237E+03 -6.89866E+03  1.20821E+03 -6.23793E+03
  6.48632E+03 -2.85679E+03  5.71007E+03  2.64256E+03  2.05331E+03  6.21242E+03 -8.74568E+02  4.46648E+03
 -2.85179E+03  2.99506E+03 -2.41254E+03  1.60576E+03 -1.53431E+03  1.30220E+03 -1.44217E+03  3.13768E+03
 -2.63053E+03  4.31546E+03 -7.34383E+03  3.76738E+03 -1.09147E+04  2.24116E+02 -1.26151E+04 -6.40092E+03
 -6.20808E+03 -1.38233E+04  3.60073E+03 -1.54790E+04  9.75069E+03 -1.33444E+04  1.46893E+04 -4.97737E+03
  1.44335E+04  4.00672E+03  8.78553E+03  9.81378E+03  1.95075E+03  1.04349E+04 -3.79599E+03  8.20901E+03
 -6.92547E+03  2.02931E+03 -3.38951E+03 -1.09080E+03 -1.34924E+03 -9.80944E+02  8.44023E+01 -2.45344E+02
 -1.59684E+03  2.77015E+02 -2.08426E+03 -3.87766E+02 -1.29364E+03 -1.45840E+03 -2.29053E+02 -3.57334E+03
  4.18955E+03 -3.07569E+03  5.84203E+03  1.21435E+03  7.51199E+03  6.10495E+03  1.60356E+03  1.08340E+04
 -5.49215E+03  1.28226E+04 -1.09110E+04  6.64450E+03 -1.36570E+04 -8.07606E+02 -9.75051E+03 -8.35057E+03
 -4.92104E+03 -1.09863E+04  2.85600E+03 -1.06733E+04  7.60173E+03 -6.73761E+03  7.68978E+03  2.92808E+02
  3.75445E+03  3.06305E+03  4.94590E+02  3.24431E+03 -2.11928E+03  8.14123E+02  3.73515E+02 -1.82880E+03
  3.74677E+03 -1.72570E+03  4.74164E+03  1.65165E+03  2.80252E+03  4.02176E+03  2.76790E+02  6.29582E+03
 -4.39938E+03  4.89668E+03 -7.60881E+03  1.04548E+03 -7.05938E+03 -4.35649E+03 -1.85793E+03 -9.30185E+03
  5.09520E+03 -8.03543E+03  8.24083E+03 -2.22284E+03  7.98568E+03  1.69974E+03  5.26415E+03  6.26119E+03
  6.72336E+02  7.71717E+03 -2.64311E+03  5.72941E+03 -4.75873E+03  2.76910E+03 -4.12419E+03  1.02358E+03
 -1.89713E+03 -6.27263E+02 -1.71961E+03  7.24915E+02 -3.91860E+03  1.17845E+03 -5.63381E+03 -1.41734E+03
 -4.86776E+03 -3.64958E+03 -1.20181E+03 -6.76202E+03  3.57150E+03 -7.83070E+03  7.23479E+03 -3.50648E+03
  8.06314E+03  9.74617E+02  4.14929E+03  5.63451E+03 -6.64295E+02  7.20380E+03 -5.47412E+03  5.08980E+03
