 $NMID ID='MM_0lb_SNR400_8hz_g45_85.RAW', FMTDAT='(8E13.5)'
 TRAMP=1., VOLUME=1. $END
  3.09664E+05  6.86654E+02  3.38315E+05  2.50630E+05  8.50754E+04  3.37476E+05 -1.33816E+05  2.51961E+05
 -1.90650E+05  8.23802E+04 -1.12765E+05 -3.22087E+04  6.16903E+02 -5.05919E+04  5.34975E+04 -1.18572E+03
  3.54150E+04  5.34011E+04 -1.68032E+04  7.59642E+04 -6.16906E+04  6.43081E+04 -8.52447E+04  3.19386E+04
 -8.27587E+04 -1.14858E+04 -5.84171E+04 -5.21329E+04 -1.56586E+04 -7.16413E+04  2.77626E+04 -4.69047E+04
  4.10757E+04  3.87047E+03  1.64909E+04  4.76594E+04 -3.48879E+04  4.84937E+04 -6.84625E+04 -1.49516E+02
 -5.57087E+04 -5.71355E+04 -6.45421E+03 -7.86509E+04  3.44153E+04 -5.77069E+04  5.00644E+04 -1.75525E+04
  4.52791E+04  1.16805E+04  3.32146E+04  2.68645E+04  1.61369E+04  3.07791E+04 -4.97448E+03  2.77986E+04
 -2.16847E+04  1.17632E+04 -1.76560E+04 -5.97255E+03  6.75812E+03 -7.48950E+03  2.42361E+04  1.33960E+04
  6.95228E+03  3.83077E+04 -3.42126E+04  3.76126E+04 -6.62238E+04  2.09553E+03 -5.95769E+04 -4.40255E+04
 -1.29198E+04 -6.58485E+04  4.16257E+04 -4.80236E+04  6.15560E+04 -3.02364E+03  3.66981E+04  3.50693E+04
 -5.29247E+03  4.05209E+04 -3.20963E+04  1.85366E+04 -3.33812E+04 -3.83188E+03 -1.98860E+04 -1.18986E+04
 -9.03254E+03 -1.54510E+04 -9.77904E+02 -2.02257E+04  8.70846E+03 -2.39483E+04  1.62325E+04 -1.37611E+04
  1.05660E+04  6.31046E+03 -1.02683E+04  1.30816E+04 -2.42408E+04 -6.29070E+03 -8.96949E+03 -3.84723E+04
  2.51870E+04 -4.77747E+04  5.22851E+04 -2.15467E+04  4.90437E+04  2.09943E+04  1.78880E+04  4.77897E+04
 -1.64153E+04  3.62424E+04 -2.65406E+04  3.10194E+03 -1.17813E+04 -2.88192E+04  2.11375E+04 -3.74761E+04
  4.60530E+04 -1.04413E+04  4.07046E+04  2.51392E+04  2.22242E+04  5.19729E+04 -8.23460E+03  5.67307E+04
 -3.49350E+04  3.93857E+04 -4.84518E+04  1.10196E+04 -4.76676E+04 -1.92528E+04 -2.68473E+04 -4.29778E+04
  7.67830E+03 -4.29123E+04  3.48967E+04 -1.67360E+04  3.26635E+04  1.13174E+04  5.80290E+03  2.04567E+04
 -1.32593E+04  9.35498E+03 -1.15655E+04 -7.71610E+03  4.99511E+03 -1.16667E+04  1.88295E+04  5.70852E+03
  1.50694E+04  2.18977E+04 -4.67644E+03  2.71351E+04 -2.25618E+04  1.36284E+04 -3.17362E+04 -2.54273E+03
 -2.59494E+04 -1.88153E+04 -1.24677E+04 -2.51500E+04  4.37647E+03 -2.54392E+04  1.95695E+04 -2.37154E+04
  3.34702E+04 -1.52023E+04  3.84121E+04  4.44557E+03  2.77359E+04  2.55555E+04  4.51262E+03  4.17331E+04
 -1.91880E+04  3.47615E+04 -3.04624E+04  1.15424E+04 -2.20780E+04 -1.00260E+04 -4.90158E+03 -1.23339E+04
  5.68534E+02 -1.43511E+03 -7.33228E+03  8.80144E+03 -2.11944E+04  4.35337E+03 -2.00949E+04 -9.74556E+03
 -1.28486E+04 -2.40411E+04  6.47391E+03 -2.91586E+04  1.88398E+04 -2.02987E+04  2.36784E+04 -2.45060E+03
  1.46109E+04  1.60477E+04 -1.12256E+03  2.34048E+04 -1.73539E+04  1.31873E+04 -2.44095E+04 -5.01941E+03
 -1.78261E+04 -2.13392E+04 -2.62590E+03 -2.87116E+04  1.26045E+04 -2.38911E+04  2.39327E+04 -1.29125E+04
  2.30582E+04 -3.93520E+02  1.65187E+04  5.00503E+03  8.96133E+03  5.22248E+02  1.27675E+04 -2.63175E+03
  2.14446E+04  2.46169E+03  2.64161E+04  1.82334E+04  1.80681E+04  3.85343E+04 -2.71742E+03  4.54422E+04
 -2.56810E+04  3.77054E+04 -4.33707E+04  2.00283E+04 -4.55966E+04 -3.13460E+03 -3.67377E+04 -2.74908E+04
 -1.36923E+04 -3.83762E+04  1.40157E+04 -3.41823E+04  2.87985E+04 -1.53868E+04  2.45933E+04  8.26982E+03
  8.54586E+03  1.96797E+04 -1.21111E+04  1.63504E+04 -1.97108E+04  2.24804E+03 -1.51519E+04 -1.30026E+04
 -2.49390E+02 -1.99262E+04  1.07530E+04 -1.48755E+04  1.40119E+04 -6.48358E+02  3.16031E+03  9.10494E+03
 -9.34508E+03  4.69815E+03 -1.03605E+04 -7.56692E+03 -2.01204E+03 -1.83706E+04  1.20197E+04 -1.97964E+04
  2.42868E+04 -1.09880E+04  2.75819E+04  3.33331E+03  2.44761E+04  2.01232E+04  1.09292E+04  3.07837E+04
 -6.22626E+03  3.15752E+04 -2.22484E+04  1.94594E+04 -2.34435E+04  4.06731E+03 -1.53978E+04 -6.62613E+03
 -6.12960E+03 -7.44581E+03 -9.55167E+02  5.00282E+02 -2.86856E+03  3.57164E+03 -7.82883E+03  6.02671E+03
 -1.39845E+04 -1.60970E+03 -1.46262E+04 -1.20835E+04 -5.21938E+03 -2.03690E+04  5.92645E+03 -1.66078E+04
  1.36158E+04 -6.40021E+03  9.54870E+03  3.56176E+03 -9.39825E+01  6.57855E+03 -8.63549E+03 -9.91009E+02
 -8.51876E+03 -1.04497E+04 -1.35344E+03 -1.64195E+04  9.86265E+03 -1.64255E+04  2.06532E+04 -1.02328E+04
  2.44165E+04  2.61749E+03  1.76565E+04  1.55567E+04  3.90676E+03  2.13885E+04 -1.01192E+04  1.65553E+04
 -1.31808E+04  5.07301E+03 -7.22597E+03 -3.59246E+03  2.11142E+03 -4.60549E+03  8.92273E+03 -2.11622E+03
  8.15669E+03  7.52676E+03  1.66874E+03  1.27323E+04 -1.04092E+04  1.34690E+04 -1.67266E+04  3.37442E+03
 -1.07303E+04 -8.02220E+03  7.15919E+01 -1.44572E+04  9.58415E+03 -8.59451E+03  9.62459E+03  4.02815E+03
  2.00278E+03  1.10823E+04 -8.75312E+03  1.32187E+04 -1.44821E+04  5.61925E+03 -1.49339E+04 -5.29098E+03
 -7.68665E+03 -1.74450E+04  4.63879E+03 -1.98511E+04  1.62390E+04 -1.15882E+04  1.84079E+04  2.52166E+03
  1.08795E+04  1.33205E+04 -1.57088E+03  1.68450E+04 -1.27283E+04  8.90393E+03 -1.39431E+04 -1.04334E+03
 -1.12763E+04 -1.09548E+04 -2.53500E+03 -1.16486E+04  7.04297E+03 -9.96122E+03  8.46601E+03 -4.72046E+03
  4.75555E+03  2.62808E+03 -8.04316E+02  2.11137E+03 -9.36808E+02 -3.32473E+03  3.86115E+03 -7.32059E+03
  1.19344E+04 -5.17148E+03  1.71502E+04  2.00293E+03  1.73760E+04  1.19551E+04  1.19086E+04  2.19413E+04
 -5.77830E+03  2.56456E+04 -2.18285E+04  1.89762E+04 -2.75143E+04  4.03994E+03 -2.28084E+04 -1.04625E+04
 -1.10476E+04 -1.75655E+04 -5.71745E+02 -1.46640E+04  4.79659E+03 -8.82522E+03  5.72344E+03 -5.68657E+03
  3.95257E+03 -2.77936E+03  3.85503E+03 -3.81800E+03  6.01878E+03 -3.14939E+03  8.81403E+03 -2.44018E+03
  1.17729E+04  3.46780E+03  6.42576E+03  9.79281E+03 -2.26627E+03  1.24358E+04 -1.24041E+04  8.89312E+03
 -1.63819E+04 -1.57680E+03 -1.04166E+04 -1.05020E+04 -1.84120E+02 -1.76556E+04  9.71747E+03 -1.75871E+04
  1.78084E+04 -9.14800E+03  2.13948E+04  3.22810E+03  1.50377E+04  1.48019E+04  2.16668E+03  1.91707E+04
 -7.17941E+03  1.41845E+04 -1.13294E+04  4.85836E+03 -8.13851E+03 -1.31448E+03 -3.42022E+03 -2.77863E+03
 -1.29245E+03 -4.41000E+02 -2.82749E+03  2.97783E+03 -7.09626E+03  2.51317E+03 -1.13534E+04 -1.96720E+03
 -8.05535E+03 -1.11431E+04 -5.74498E+02 -1.67190E+04  9.50151E+03 -1.55808E+04  1.60302E+04 -4.11214E+03
  1.54247E+04  7.73182E+03  7.40274E+03  1.41883E+04 -2.73737E+03  1.58270E+04 -1.21671E+04  1.09679E+04
 -1.52144E+04  7.21233E+02 -1.21164E+04 -1.00811E+04 -1.44415E+03 -1.34312E+04  6.98491E+03 -9.68153E+03
  1.13761E+04 -3.14344E+03  7.15724E+03  2.77553E+03  2.75740E+03  4.87635E+03  2.16453E+03  2.75488E+03
  2.16631E+03  1.64024E+03  4.00971E+03  1.89583E+03  4.82096E+03  5.99944E+03  4.21501E+03  8.77229E+03
 -3.35810E+03  1.34563E+04 -1.15039E+04  1.25784E+04 -1.77821E+04  3.47012E+03 -1.82325E+04 -7.52128E+03
 -8.35103E+03 -1.60845E+04  2.72171E+03 -1.83045E+04  9.75163E+03 -1.14520E+04  1.27424E+04 -2.09746E+03
  1.02781E+04  6.43079E+03  2.91995E+03  1.01766E+04 -4.62933E+03  6.22265E+03 -6.46414E+03 -1.37905E+03
 -3.66913E+03 -7.41248E+03  5.02783E+03 -7.63140E+03  7.85156E+03 -3.07749E+03  6.47539E+03  6.72100E+02
  4.09287E+03  3.20241E+03  1.47161E+03  3.34408E+03 -6.85193E+02  1.94584E+03  1.88635E+03 -8.30164E+01
  2.54343E+03 -1.05575E+03  5.91287E+03  2.49930E+03  3.90249E+03  9.09187E+03 -1.24348E+03  1.23291E+04
 -8.43552E+03  7.99958E+03 -1.08753E+04  1.35755E+03 -9.05744E+03 -3.38274E+03 -4.16405E+03 -6.98041E+03
  5.42126E+02 -6.18181E+03  4.92356E+03 -2.03420E+03  4.18165E+03  2.69425E+03 -1.93944E+03  5.42575E+03
 -7.16867E+03  2.87981E+03 -7.88283E+03 -3.80935E+03 -4.53512E+03 -9.54406E+03  1.31603E+03 -9.46235E+03
  5.18529E+03 -5.14608E+03  7.47749E+03 -1.11613E+03  5.33095E+03  3.10771E+03  1.79990E+03  4.36105E+03
 -3.75836E+03  1.57577E+03 -5.15648E+03 -2.89637E+03  1.83326E+03 -8.05253E+03  9.54128E+03 -6.21913E+03
  1.09674E+04  4.53255E+02  1.06200E+04  7.78676E+03  2.24270E+03  1.10522E+04 -4.47704E+03  1.02427E+04
 -9.61664E+03  4.86263E+03 -1.06602E+04 -1.18862E+03 -5.35436E+03 -6.85246E+03  1.26614E+03 -6.95939E+03
  7.18679E+03 -2.99176E+03  5.75224E+03  4.09609E+03  2.31769E+03  6.33352E+03 -1.26543E+03  5.83194E+03
 -3.34540E+03  3.03817E+03 -2.74835E+03  1.99611E+03 -5.25206E+02  1.95752E+03 -2.10478E+03  2.86823E+03
 -3.12894E+03  4.91921E+03 -8.13810E+03  4.25686E+03 -1.15488E+04 -1.55970E+02 -1.18555E+04 -6.95163E+03
 -6.48655E+03 -1.62468E+04  3.47428E+03 -1.76294E+04  1.19949E+04 -1.29874E+04  1.65233E+04 -5.15108E+03
  1.57859E+04  3.34182E+03  9.31219E+03  1.11351E+04  1.44505E+03  1.18040E+04 -4.74460E+03  8.78328E+03
 -7.12020E+03  3.20900E+03 -4.50677E+03 -1.69803E+03 -1.28971E+03 -1.29370E+03 -6.88130E+02  3.86540E+02
 -1.77402E+03 -1.82377E+02 -2.29796E+03 -8.85308E+02  6.28783E+01 -2.46297E+03  8.39194E+02 -3.86951E+03
  4.96674E+03 -3.12941E+03  7.38235E+03  8.33840E+01  8.14003E+03  6.58314E+03  2.38868E+03  1.18484E+04
 -6.25285E+03  1.39832E+04 -1.32317E+04  7.50981E+03 -1.57437E+04 -1.84803E+03 -1.10062E+04 -8.90516E+03
 -5.02677E+03 -1.26458E+04  3.30153E+03 -1.22153E+04  8.08907E+03 -6.65894E+03  8.65695E+03  5.33975E+02
  4.82707E+03  3.59408E+03 -4.75275E+02  3.62320E+03 -2.80312E+03  1.39251E+02  2.00172E+01 -3.48611E+03
  3.71765E+03 -2.04178E+03  5.25917E+03  7.91702E+02  3.15847E+03  5.06090E+03  5.14756E+02  6.25463E+03
 -5.37908E+03  6.05838E+03 -8.51463E+03  8.33181E+02 -7.62987E+03 -5.41669E+03 -9.46242E+02 -1.06929E+04
  5.67326E+03 -7.48383E+03  9.94245E+03 -1.71250E+03  9.92583E+03  1.92278E+03  5.58388E+03  7.75492E+03
  1.43310E+03  8.67793E+03 -3.78722E+03  6.60317E+03 -4.91306E+03  4.06895E+03 -4.21334E+03  1.07675E+03
 -1.84679E+03 -2.36527E+02 -1.83805E+03  1.39449E+03 -4.11659E+03  1.25693E+03 -6.24640E+03 -1.23430E+03
 -5.91110E+03 -4.63309E+03 -2.05277E+03 -8.91486E+03  4.20781E+03 -8.94767E+03  7.13215E+03 -4.36284E+03
  8.65723E+03  7.01871E+02  5.25762E+03  5.91431E+03 -1.30175E+02  7.49243E+03 -5.85238E+03  5.33619E+03
