 $NMID ID='MM_0lb_SNR400_11hz_g60_34.RAW', FMTDAT='(8E13.5)'
 TRAMP=1., VOLUME=1. $END
  3.10395E+05  2.45614E+02  3.38090E+05  2.50933E+05  8.44279E+04  3.38686E+05 -1.32847E+05  2.51489E+05
 -1.91039E+05  8.33812E+04 -1.12780E+05 -3.21849E+04 -4.08887E+02 -5.14304E+04  5.36056E+04 -1.57048E+01
  3.56607E+04  5.25852E+04 -1.64857E+04  7.52966E+04 -6.06882E+04  6.47822E+04 -8.50357E+04  3.25920E+04
 -8.23523E+04 -1.16887E+04 -5.83968E+04 -5.20516E+04 -1.51928E+04 -7.07090E+04  2.77773E+04 -4.65332E+04
  4.15288E+04  3.88671E+03  1.65616E+04  4.86079E+04 -3.45006E+04  4.70700E+04 -6.80600E+04  1.75503E+02
 -5.45539E+04 -5.73797E+04 -7.60623E+03 -7.80169E+04  3.46750E+04 -5.69141E+04  4.92922E+04 -1.75148E+04
  4.50384E+04  1.14349E+04  3.29671E+04  2.64197E+04  1.56921E+04  3.04820E+04 -6.30069E+03  2.81678E+04
 -2.25177E+04  1.17198E+04 -1.87721E+04 -5.69129E+03  7.49442E+03 -7.79466E+03  2.25744E+04  1.31448E+04
  7.53374E+03  3.71160E+04 -3.44949E+04  3.66624E+04 -6.57333E+04  2.45389E+03 -5.87916E+04 -4.39408E+04
 -1.33306E+04 -6.50962E+04  4.12764E+04 -4.69039E+04  6.04996E+04 -2.56242E+03  3.63113E+04  3.42207E+04
 -5.04264E+03  3.92454E+04 -3.18742E+04  1.84206E+04 -3.26851E+04 -3.37649E+03 -1.85530E+04 -1.14418E+04
 -9.34274E+03 -1.53268E+04 -3.11637E+02 -1.94171E+04  7.92729E+03 -2.39657E+04  1.55917E+04 -1.26006E+04
  1.05699E+04  5.81716E+03 -1.03960E+04  1.29612E+04 -2.33136E+04 -6.65453E+03 -9.12594E+03 -3.62567E+04
  2.48030E+04 -4.65323E+04  5.13533E+04 -1.98724E+04  4.88444E+04  2.04258E+04  1.68481E+04  4.59969E+04
 -1.64336E+04  3.58836E+04 -2.71710E+04  2.58120E+03 -1.16751E+04 -2.89536E+04  2.15911E+04 -3.71888E+04
  4.42417E+04 -1.09793E+04  3.97460E+04  2.50289E+04  2.13587E+04  4.98710E+04 -7.78059E+03  5.53401E+04
 -3.49918E+04  3.72121E+04 -4.68404E+04  1.07757E+04 -4.72050E+04 -1.83967E+04 -2.56756E+04 -4.16730E+04
  7.95392E+03 -4.15056E+04  3.35699E+04 -1.57833E+04  3.13124E+04  1.13127E+04  4.89430E+03  2.11406E+04
 -1.37170E+04  1.01229E+04 -1.15015E+04 -7.95483E+03  5.52700E+03 -1.11513E+04  1.84361E+04  5.76579E+03
  1.45006E+04  2.19222E+04 -5.24769E+03  2.70739E+04 -2.34805E+04  1.46829E+04 -3.15065E+04 -4.03809E+03
 -2.43380E+04 -1.85785E+04 -1.10538E+04 -2.51719E+04  4.27059E+03 -2.45163E+04  1.92604E+04 -2.22573E+04
  3.08121E+04 -1.37898E+04  3.70794E+04  4.17189E+03  2.63220E+04  2.40808E+04  4.79476E+03  4.04601E+04
 -1.95100E+04  3.32177E+04 -2.99844E+04  1.15061E+04 -2.30497E+04 -1.00912E+04 -4.32975E+03 -1.31827E+04
  1.28225E+03 -1.53756E+03 -6.93589E+03  7.82424E+03 -1.88202E+04  5.23873E+03 -1.92607E+04 -8.39272E+03
 -1.14107E+04 -2.25974E+04  6.42370E+03 -2.67260E+04  1.73333E+04 -1.86205E+04  2.23905E+04 -2.12561E+03
  1.42430E+04  1.62927E+04 -1.39438E+03  2.26187E+04 -1.47071E+04  1.28653E+04 -2.20539E+04 -5.19659E+03
 -1.79871E+04 -2.07430E+04 -2.27939E+03 -2.69138E+04  1.26205E+04 -2.25640E+04  2.21665E+04 -1.14028E+04
  2.15178E+04  1.12749E+02  1.52128E+04  5.26279E+03  8.34932E+03  1.65981E+03  1.18751E+04 -2.38800E+03
  2.04858E+04  3.23775E+03  2.47363E+04  1.79372E+04  1.59706E+04  3.65760E+04 -2.86003E+03  4.21241E+04
 -2.44641E+04  3.41419E+04 -4.00414E+04  1.74630E+04 -4.22634E+04 -3.15409E+03 -3.54783E+04 -2.42965E+04
 -1.35723E+04 -3.47650E+04  1.24120E+04 -3.10814E+04  2.67800E+04 -1.50489E+04  2.33726E+04  7.59456E+03
  7.81300E+03  1.78438E+04 -1.05206E+04  1.49127E+04 -1.88665E+04  2.06022E+03 -1.44363E+04 -1.25998E+04
 -7.84700E+02 -1.91326E+04  9.42579E+03 -1.39622E+04  1.24651E+04 -1.40001E+03  2.24840E+03  7.56848E+03
 -8.80261E+03  3.80620E+03 -8.61218E+03 -6.50406E+03 -1.88643E+03 -1.70936E+04  1.12198E+04 -1.87904E+04
  2.17926E+04 -9.74514E+03  2.43937E+04  3.93220E+03  2.14319E+04  1.77592E+04  9.74186E+03  2.77084E+04
 -5.18740E+03  2.89680E+04 -1.88914E+04  1.83411E+04 -2.12117E+04  3.41718E+03 -1.47547E+04 -5.69688E+03
 -6.62191E+03 -6.94947E+03 -7.96243E+02  7.97839E+02 -2.90526E+03  3.11164E+03 -6.63381E+03  5.37087E+03
 -1.35839E+04 -7.81296E+01 -1.45699E+04 -1.08449E+04 -6.04042E+03 -1.81275E+04  6.10980E+03 -1.42644E+04
  1.26247E+04 -6.75891E+03  8.89230E+03  3.79445E+03  3.40264E+02  6.03077E+03 -7.46133E+03 -4.10406E+02
 -7.30517E+03 -9.15740E+03 -8.47523E+02 -1.42548E+04  8.54632E+03 -1.50488E+04  1.92293E+04 -7.71941E+03
  2.21160E+04  2.17160E+03  1.68055E+04  1.33076E+04  3.19629E+03  1.74549E+04 -9.89234E+03  1.44398E+04
 -1.21653E+04  4.94886E+03 -5.77330E+03 -2.86247E+03  2.31446E+03 -3.89822E+03  7.89431E+03 -1.21814E+03
  6.87402E+03  6.64359E+03  1.31579E+03  1.23239E+04 -8.57561E+03  1.12391E+04 -1.48751E+04  2.36080E+03
 -9.65119E+03 -7.28380E+03  2.05458E+02 -1.21423E+04  8.35135E+03 -6.43740E+03  8.65102E+03  2.98330E+03
  1.77979E+03  9.35277E+03 -7.53652E+03  1.04237E+04 -1.20240E+04  4.46218E+03 -1.22849E+04 -5.09966E+03
 -7.36265E+03 -1.42135E+04  3.69078E+03 -1.59970E+04  1.34927E+04 -9.62402E+03  1.49218E+04  3.02150E+03
  9.26461E+03  1.22921E+04 -1.18453E+03  1.40705E+04 -1.09669E+04  8.19042E+03 -1.16477E+04 -1.33473E+03
 -1.00056E+04 -9.92039E+03 -1.51866E+03 -1.08345E+04  6.01780E+03 -8.88233E+03  7.35896E+03 -3.30568E+03
  4.42530E+03  1.59556E+03 -1.42509E+03  9.93915E+02 -2.04345E+02 -2.64106E+03  3.45237E+03 -6.22677E+03
  1.03631E+04 -3.21978E+03  1.42928E+04  1.52165E+03  1.42257E+04  9.44503E+03  9.45051E+03  1.86107E+04
 -3.92830E+03  2.11865E+04 -1.83936E+04  1.58316E+04 -2.36495E+04  2.66526E+03 -1.82153E+04 -7.98524E+03
 -9.24627E+03 -1.50652E+04 -2.44373E+02 -1.32179E+04  4.96407E+03 -7.27671E+03  4.39702E+03 -4.65966E+03
  3.15314E+03 -2.74585E+03  3.69449E+03 -4.01700E+03  5.21440E+03 -3.59693E+03  6.80272E+03 -8.27151E+02
  9.09768E+03  2.54338E+03  4.32624E+03  8.47489E+03 -1.75306E+03  9.90326E+03 -9.93384E+03  7.39003E+03
 -1.27582E+04 -1.36831E+03 -8.18418E+03 -9.33814E+03 -4.27619E+02 -1.36483E+04  7.47299E+03 -1.38000E+04
  1.40869E+04 -8.06198E+03  1.71116E+04  2.83623E+03  1.12139E+04  1.25570E+04  2.06998E+03  1.52482E+04
 -6.44555E+03  1.26803E+04 -9.57092E+03  4.17771E+03 -6.10470E+03 -1.10044E+03 -3.12639E+03 -1.77271E+03
 -1.39118E+03  9.02786E+01 -1.94681E+03  3.45152E+03 -5.76429E+03  2.38613E+03 -9.66999E+03 -1.18418E+03
 -6.84238E+03 -8.89398E+03 -2.67340E+02 -1.30905E+04  7.60134E+03 -1.19762E+04  1.25389E+04 -3.34660E+03
  1.16723E+04  6.30651E+03  5.42348E+03  1.12183E+04 -3.03460E+03  1.30915E+04 -9.20459E+03  7.76601E+03
 -1.18138E+04  5.42181E+02 -8.90019E+03 -7.65017E+03 -6.84024E+02 -1.06930E+04  5.15955E+03 -7.46926E+03
  8.31650E+03 -2.13357E+03  5.64906E+03  1.88511E+03  2.01423E+03  3.92063E+03  8.61320E+02  1.58707E+03
  2.99338E+03  6.87875E+02  2.97255E+03  1.29789E+03  3.93793E+03  4.88679E+03  3.13687E+03  6.72083E+03
 -2.54485E+03  1.05890E+04 -9.66247E+03  1.05595E+04 -1.25189E+04  2.61417E+03 -1.30830E+04 -5.32954E+03
 -5.30052E+03 -1.32123E+04  2.16589E+03 -1.35879E+04  7.46720E+03 -8.64654E+03  1.07477E+04 -1.77699E+03
  7.42782E+03  4.67288E+03  2.15427E+03  7.55499E+03 -3.08429E+03  4.37459E+03 -4.88858E+03 -9.72707E+01
 -2.05760E+03 -4.96913E+03  3.14000E+03 -5.26654E+03  4.63162E+03 -3.24008E+03  4.25584E+03  1.31213E+03
  2.88989E+03  2.85651E+03  1.51011E+03  1.72281E+03 -8.56588E+02  1.59771E+03  9.05015E+02 -4.78914E+02
  1.06619E+03 -5.45541E+02  5.02708E+03  1.79657E+03  2.15975E+03  6.92513E+03 -1.01296E+03  9.22412E+03
 -5.97366E+03  5.55739E+03 -8.28973E+03  1.72851E+03 -7.17959E+03 -2.51560E+03 -2.48861E+03 -4.57689E+03
  1.65637E+03 -4.94180E+03  3.61509E+03 -2.86052E+03  2.54813E+03  2.17484E+03 -2.16071E+03  4.02874E+03
 -5.54040E+03  2.43558E+03 -6.56453E+03 -3.35005E+03 -3.22805E+03 -6.62050E+03  1.27483E+03 -6.27611E+03
  4.03450E+03 -3.57818E+03  4.07907E+03 -4.47278E+02  4.14115E+03  1.73220E+03  9.91564E+02  3.81447E+03
 -2.62127E+03  6.75850E+02 -3.66423E+03 -2.70695E+03  1.08581E+03 -4.40407E+03  6.10163E+03 -4.32313E+03
  6.91237E+03 -2.18067E+02  7.44591E+03  4.49237E+03  2.70614E+03  8.28019E+03 -2.27188E+03  7.52277E+03
 -6.30180E+03  3.64381E+03 -6.54270E+03 -9.90429E+02 -3.32336E+03 -5.22393E+03  9.47017E+02 -5.11054E+03
  4.45312E+03 -2.72100E+03  3.15341E+03  1.95709E+03  1.34314E+03  4.79824E+03 -4.78628E+02  3.24917E+03
 -2.47353E+03  2.84309E+03 -1.37430E+03  3.49754E+02 -6.38834E+02  1.77188E+03 -1.69569E+03  1.88239E+03
 -1.09905E+03  3.27731E+03 -5.76080E+03  2.01162E+03 -7.56799E+03  1.54907E+02 -8.81704E+03 -4.64222E+03
 -4.86068E+03 -1.07242E+04  2.17413E+03 -1.14441E+04  7.67421E+03 -9.34849E+03  1.19255E+04 -4.15247E+03
  1.11570E+04  2.44888E+03  6.68005E+03  6.52537E+03  9.62163E+02  8.35029E+03 -3.07679E+03  5.51328E+03
 -4.30457E+03  2.10105E+03 -2.60279E+03 -1.48492E+03 -1.28069E+03  3.82069E+02 -9.53298E+02 -1.66188E+02
 -2.12827E+03  6.63584E+02 -1.56270E+03  4.43796E+02 -7.17802E+02 -1.41761E+03 -6.36339E+02 -3.00945E+03
  3.73260E+03 -2.41756E+03  5.36373E+03 -1.53875E+02  4.75919E+03  4.18354E+03  7.78682E+02  7.23653E+03
 -3.99526E+03  9.38420E+03 -8.71272E+03  5.07127E+03 -9.15498E+03 -1.11932E+02 -6.32152E+03 -5.51347E+03
 -2.86747E+03 -7.79894E+03  1.50617E+03 -6.96831E+03  5.76498E+03 -3.53180E+03  4.75272E+03  7.37290E+02
  2.35271E+03  2.42088E+03 -3.86074E+01  1.76791E+03 -1.14332E+03  1.59867E+02  2.29877E+02 -1.66238E+03
  3.23013E+03 -9.55312E+02  2.51249E+03  1.45260E+03  1.65954E+03  3.14098E+03  7.55060E+02  3.34861E+03
 -3.57232E+03  3.58758E+03 -4.87400E+03  2.37187E+02 -4.54776E+03 -3.60604E+03 -4.92358E+02 -6.03494E+03
  3.42065E+03 -5.49645E+03  5.43610E+03 -1.31878E+03  5.21424E+03  1.13992E+03  2.29860E+03  4.77952E+03
  1.24162E+03  4.53286E+03 -1.83792E+03  4.60259E+03 -2.46789E+03  2.34787E+03 -2.41318E+03 -8.91245E+01
 -1.79674E+03 -6.15360E+02 -2.33427E+03  3.11738E+02 -2.58929E+03  1.15723E+03 -3.50004E+03 -5.87252E+02
 -3.50644E+03 -1.92401E+03 -7.85088E+02 -5.01408E+03  2.27560E+03 -4.97938E+03  4.44996E+03 -2.53517E+03
  4.60880E+03  7.75062E+02  2.54281E+03  4.07545E+03  3.46705E+00  5.35321E+03 -3.43602E+03  3.22756E+03
