 $NMID ID='MM_0lb_SNR400_15hz_g40_37.RAW', FMTDAT='(8E13.5)'
 TRAMP=1., VOLUME=1. $END
  3.09938E+05  9.38279E+02  3.36765E+05  2.50532E+05  8.40769E+04  3.37513E+05 -1.32412E+05  2.50437E+05
 -1.90082E+05  8.32911E+04 -1.10909E+05 -3.27416E+04  1.14871E+03 -5.02780E+04  5.37381E+04 -2.95502E+02
  3.49308E+04  5.26742E+04 -1.69727E+04  7.47886E+04 -6.03472E+04  6.31599E+04 -8.34683E+04  3.12521E+04
 -8.00540E+04 -1.12272E+04 -5.63709E+04 -5.08158E+04 -1.53870E+04 -6.88571E+04  2.76733E+04 -4.54584E+04
  3.99804E+04  3.82156E+03  1.60012E+04  4.73277E+04 -3.43612E+04  4.65178E+04 -6.61592E+04 -3.24834E+02
 -5.23877E+04 -5.62581E+04 -7.00920E+03 -7.65093E+04  3.31743E+04 -5.41624E+04  4.78965E+04 -1.67722E+04
  4.28284E+04  1.09183E+04  3.15482E+04  2.46179E+04  1.61603E+04  2.86484E+04 -4.58246E+03  2.60771E+04
 -2.15818E+04  1.25640E+04 -1.88948E+04 -4.90881E+03  5.10235E+03 -7.40634E+03  2.20468E+04  1.16505E+04
  7.83132E+03  3.41384E+04 -3.12297E+04  3.46865E+04 -6.21092E+04  2.38345E+03 -5.60909E+04 -4.21208E+04
 -1.24703E+04 -6.19695E+04  3.87922E+04 -4.46825E+04  5.70127E+04 -2.43205E+03  3.30933E+04  3.15434E+04
 -6.90768E+03  3.41518E+04 -2.93285E+04  1.44143E+04 -2.89283E+04 -4.97228E+03 -1.53584E+04 -1.03350E+04
 -7.66204E+03 -1.21488E+04 -7.95210E+02 -1.73804E+04  7.01225E+03 -2.36005E+04  1.54812E+04 -1.33600E+04
  1.24737E+04  4.43242E+03 -7.38083E+03  1.32986E+04 -2.02570E+04 -3.74622E+03 -8.21288E+03 -3.22454E+04
  2.18850E+04 -4.22415E+04  4.66231E+04 -1.89813E+04  4.37250E+04  1.85755E+04  1.48222E+04  4.31082E+04
 -1.55908E+04  3.21009E+04 -2.41676E+04  8.05852E+02 -8.55819E+03 -2.66910E+04  2.10570E+04 -3.33929E+04
  3.95683E+04 -8.24034E+03  3.37573E+04  2.33646E+04  1.65723E+04  4.48377E+04 -7.53535E+03  4.81351E+04
 -2.99987E+04  3.20642E+04 -3.99207E+04  9.31284E+03 -4.11501E+04 -1.64215E+04 -2.26984E+04 -3.63292E+04
  6.82616E+03 -3.59616E+04  3.04147E+04 -1.32527E+04  2.85848E+04  1.08679E+04  3.26402E+03  1.87464E+04
 -1.37288E+04  8.23119E+03 -1.01443E+04 -7.74866E+03  6.39697E+03 -1.04637E+04  1.76262E+04  6.57973E+03
  1.30921E+04  2.22457E+04 -5.75034E+03  2.45092E+04 -2.21313E+04  1.03574E+04 -2.60018E+04 -5.27277E+03
 -1.85944E+04 -1.66239E+04 -6.93439E+03 -1.90584E+04  3.96425E+03 -1.74817E+04  1.45388E+04 -1.64929E+04
  2.43175E+04 -1.21041E+04  3.05787E+04  2.58112E+03  2.31654E+04  1.81406E+04  4.09122E+03  3.43844E+04
 -1.62509E+04  2.97085E+04 -2.65547E+04  9.31835E+03 -2.11383E+04 -1.05855E+04 -4.42442E+03 -1.28720E+04
  2.34436E+03 -3.18717E+03 -3.99152E+03  6.45321E+03 -1.52208E+04  5.09220E+03 -1.49969E+04 -6.28235E+03
 -9.19176E+03 -1.76130E+04  4.87676E+03 -2.14892E+04  1.45663E+04 -1.50982E+04  1.64120E+04 -1.33852E+03
  1.02498E+04  1.25764E+04 -1.14749E+03  1.69422E+04 -1.17582E+04  9.60606E+03 -1.75936E+04 -4.00633E+03
 -1.31921E+04 -1.57169E+04 -1.34488E+03 -2.08001E+04  9.42483E+03 -1.73865E+04  1.80260E+04 -7.63683E+03
  1.63841E+04  3.02488E+02  1.18123E+04  3.91846E+03  6.02544E+03  2.34778E+02  8.16115E+03 -1.48936E+03
  1.64600E+04  2.26147E+03  1.75574E+04  1.42899E+04  1.14450E+04  2.80136E+04 -3.18002E+03  3.05671E+04
 -1.82190E+04  2.42343E+04 -2.88704E+04  1.26293E+04 -2.96426E+04 -1.69565E+03 -2.47901E+04 -1.73203E+04
 -1.13944E+04 -2.44679E+04  8.11526E+03 -2.18887E+04  1.92380E+04 -1.23325E+04  1.73753E+04  4.97905E+03
  7.06844E+03  1.31702E+04 -8.40914E+03  1.12707E+04 -1.50422E+04  1.66441E+03 -1.17451E+04 -8.40167E+03
  1.62710E+02 -1.43359E+04  7.39153E+03 -1.07997E+04  9.20501E+03 -1.27748E+03  1.34806E+03  5.71373E+03
 -6.42650E+03  2.07958E+03 -5.51732E+03 -5.64589E+03  3.70350E+02 -1.23474E+04  9.04299E+03 -1.28052E+04
  1.50202E+04 -6.31448E+03  1.56239E+04  2.56611E+03  1.35573E+04  1.18160E+04  6.34998E+03  1.82428E+04
 -2.19622E+03  1.98797E+04 -1.23632E+04  1.22549E+04 -1.41027E+04  2.63139E+03 -9.75464E+03 -2.89177E+03
 -5.08280E+03 -4.31858E+03 -5.51552E+02  8.50960E+02 -2.29426E+03  2.72908E+03 -4.25795E+03  4.31522E+03
 -1.01089E+04 -4.04609E+02 -9.85030E+03 -8.35083E+03 -4.53741E+03 -1.38441E+04  4.49879E+03 -9.57055E+03
  8.89362E+03 -3.80409E+03  6.22173E+03  2.77645E+03  2.91584E+02  3.58771E+03 -4.31405E+03 -7.22055E+01
 -4.42483E+03 -5.90306E+03 -8.59170E+02 -8.97796E+03  6.09797E+03 -1.03846E+04  1.26891E+04 -4.64933E+03
  1.49610E+04  9.55693E+02  1.05577E+04  8.11358E+03  2.40600E+03  1.11916E+04 -6.29917E+03  9.76408E+03
 -8.06927E+03  3.02979E+03 -4.35780E+03 -1.83606E+03  1.43680E+03 -2.28270E+03  5.17394E+03 -1.25122E+03
  4.10195E+03  4.97231E+03  1.09874E+03  7.53036E+03 -5.91137E+03  7.51891E+03 -9.86125E+03  1.34013E+03
 -6.03659E+03 -5.10533E+03 -2.65478E+01 -8.23503E+03  4.95548E+03 -3.67272E+03  4.91454E+03  1.62278E+03
  1.04029E+03  4.62113E+03 -4.63934E+03  6.43105E+03 -6.91974E+03  2.75628E+03 -6.72316E+03 -2.49909E+03
 -3.84765E+03 -8.24402E+03  2.04770E+03 -9.95295E+03  8.44995E+03 -5.83816E+03  8.97903E+03  1.76250E+03
  6.13092E+03  7.06418E+03 -7.37286E+02  8.84665E+03 -6.96629E+03  5.59709E+03 -7.27378E+03 -9.46837E+02
 -7.10202E+03 -6.68352E+03 -1.72311E+03 -6.89368E+03  3.50453E+03 -6.15158E+03  4.29647E+03 -3.21164E+03
  3.02991E+03  3.11449E+02 -2.88173E+02  2.02711E+03 -1.66950E+02 -8.84800E+02  5.82039E+02 -3.15373E+03
  6.12499E+03 -2.02074E+03  7.31384E+03  7.88527E+02  7.93664E+03  5.42938E+03  6.45207E+03  9.86320E+03
 -2.59315E+03  1.20440E+04 -1.04281E+04  9.17941E+03 -1.36901E+04  1.98843E+03 -1.06786E+04 -4.20842E+03
 -5.75663E+03 -9.33600E+03 -6.22423E+02 -7.04548E+03  3.31072E+03 -3.79920E+03  2.44625E+03 -2.62373E+03
  1.40598E+03 -1.73402E+03  2.57177E+03 -2.88341E+03  4.21804E+03 -1.37182E+03  3.99834E+03  4.36437E+02
  5.89821E+03  1.22888E+03  2.05408E+03  4.29763E+03 -1.11850E+03  5.16563E+03 -5.85413E+03  3.87086E+03
 -7.38476E+03 -1.43756E+03 -3.62721E+03 -4.63568E+03 -4.51832E+02 -7.24467E+03  4.33545E+03 -7.56137E+03
  7.19723E+03 -5.13281E+03  9.41458E+03  8.13737E+02  6.50357E+03  6.23372E+03  1.88448E+03  8.45531E+03
 -3.35243E+03  7.52989E+03 -5.18353E+03  2.72323E+03 -3.37741E+03 -1.12611E+03 -9.27136E+02 -1.19298E+03
 -1.34102E+03  1.27027E+02 -1.50049E+03  2.04903E+03 -2.75944E+03  1.52778E+03 -5.37645E+03 -7.16909E+02
 -2.73635E+03 -5.26429E+03  2.54121E+02 -7.32283E+03  3.85564E+03 -6.23667E+03  5.68028E+03 -1.49477E+03
  6.26745E+03  3.35380E+03  2.96661E+03  5.44707E+03 -7.42270E+02  6.45524E+03 -4.28193E+03  3.82301E+03
 -6.17558E+03  4.65250E+02 -4.57695E+03 -3.17108E+03 -3.37931E+02 -5.29005E+03  2.28406E+03 -4.00850E+03
  4.38941E+03 -1.31427E+03  2.90832E+03  1.08481E+03  7.47083E+02  1.95563E+03  2.75700E+02  2.08416E+02
  2.02361E+03  9.31965E+02  1.85980E+03  1.39390E+03  1.76286E+03  3.08435E+03  1.55151E+03  3.05618E+03
 -2.55302E+03  4.75694E+03 -4.11549E+03  5.55654E+03 -6.11023E+03  1.05603E+03 -6.78096E+03 -1.42935E+03
 -3.05540E+03 -5.97504E+03  1.12673E+03 -7.11462E+03  3.60233E+03 -3.74728E+03  5.40081E+03 -1.54494E+03
  4.76828E+03  2.80273E+03  1.12186E+03  3.21693E+03 -1.37708E+03  2.06075E+03 -2.30873E+03  1.89683E+01
 -1.21494E+03 -2.04103E+03  1.49670E+03 -2.80770E+03  2.82809E+03 -1.63736E+03  1.90365E+03  3.38353E+02
  1.27256E+03  1.41547E+03  1.56383E+03 -8.46275E+01 -4.26376E+02  1.62183E+03  1.62185E+03 -6.80178E+02
  9.39753E+02 -4.52370E+02  1.88301E+03  5.52288E+02  1.24126E+03  3.60197E+03 -5.29221E+02  4.04243E+03
 -2.65347E+03  2.65699E+03 -3.90635E+03  3.76361E+02 -3.20306E+03 -1.15570E+03 -1.49730E+03 -1.80915E+03
  2.48607E+02 -2.33184E+03  1.21527E+03 -1.27021E+03  1.61290E+03  1.00471E+03 -7.57159E+02  1.73748E+03
 -2.49681E+03  8.79803E+02 -2.82733E+03 -2.04625E+03 -1.42585E+03 -3.82919E+03  3.94948E+02 -3.14059E+03
  1.80672E+03 -7.33607E+02  2.34686E+03 -6.86416E+02  2.46903E+03  4.82608E+02  7.92423E+02  1.81684E+03
 -7.82792E+02  5.44098E+02 -1.09898E+03 -6.52436E+02  2.24549E+02 -1.84862E+03  2.76131E+03 -1.32563E+03
  2.92259E+03  5.49630E+02  4.21274E+03  1.75741E+03  1.66982E+03  2.76729E+03 -9.69338E+02  3.52671E+03
 -2.58596E+03  1.61209E+03 -2.98963E+03  3.73569E+02 -1.57561E+03 -2.53918E+03  2.08112E+02 -1.49126E+03
  2.41207E+03 -9.09152E+02  1.97975E+03  1.98378E+03  7.31727E+02  2.09011E+03 -4.64513E+01  1.91212E+03
 -9.06414E+02  1.74479E+03 -4.94016E+02  2.93653E+02 -2.07107E+02  6.21753E+02 -9.62337E+02  9.74857E+02
 -6.60704E+02  1.86480E+03 -2.83097E+03  1.68725E+03 -3.43572E+03  5.19873E+02 -3.81708E+03 -1.81802E+03
 -2.27509E+03 -4.68123E+03  6.44420E+02 -4.92421E+03  2.54946E+03 -3.95873E+03  5.42180E+03 -1.20050E+03
  4.33175E+03  7.97783E+02  3.10709E+03  3.52211E+03 -4.26115E+02  3.22206E+03 -1.55266E+03  2.63431E+03
 -1.32847E+03  9.24971E+02 -6.66324E+02 -1.14435E+02 -3.49572E+02 -2.05974E+02 -4.68764E+02  2.13650E+00
 -9.20931E+02  1.47076E+02 -1.33471E+03  2.25026E+02  3.52529E+01 -6.12728E+02 -2.26397E+02 -1.85666E+03
  1.86886E+03 -1.30052E+03  2.05773E+03 -2.18690E+02  2.16031E+03  1.74439E+03 -3.47956E+02  2.84099E+03
 -1.83882E+03  4.05478E+03 -3.81942E+03  2.19351E+03 -3.71767E+03 -8.49732E+02 -2.28827E+03 -3.02327E+03
 -1.15637E+03 -2.75445E+03  7.55907E+02 -2.23509E+03  1.64864E+03 -1.59427E+03  1.80293E+03  2.21680E+02
  1.43694E+03  6.61197E+02  3.36348E+01  1.03461E+03 -7.85655E+02 -1.60270E+02 -2.41010E+02 -9.34623E+02
  8.84614E+02 -2.27725E+02  1.58752E+03 -4.54765E+01  4.24951E+02  1.27172E+03  4.57137E+02  2.26011E+03
 -1.51858E+03  1.43291E+03 -1.58745E+03  2.48006E+02 -1.81261E+03 -1.50477E+03 -6.09054E+02 -2.32430E+03
  1.46686E+03 -2.15499E+03  2.23222E+03 -3.79410E+02  2.04461E+03  7.88689E+01  1.45667E+03  1.96982E+03
  7.13590E+02  1.37245E+03 -7.81699E+02  1.87006E+03 -1.10968E+03  1.17023E+03 -3.89985E+02  6.79757E+02
 -2.73086E+02 -1.76372E+02 -2.34091E+02  1.83348E+02 -1.54173E+03  3.99082E+02 -1.55899E+03 -1.00574E+03
 -2.03737E+03 -7.06371E+02 -2.88392E+02 -2.21870E+03  7.03637E+02 -2.66587E+03  2.05146E+03 -6.84448E+02
  2.14907E+03 -2.93144E+02  1.94722E+02  9.67779E+02 -1.85474E+02  1.51825E+03 -1.14531E+03  1.27241E+03
