 $NMID ID='MM_0lb_SNR400_20hz_g40_77.RAW', FMTDAT='(8E13.5)'
 TRAMP=1., VOLUME=1. $END
  3.09766E+05  9.74671E+01  3.37517E+05  2.50112E+05  8.44570E+04  3.37109E+05 -1.32140E+05  2.50146E+05
 -1.89037E+05  8.26874E+04 -1.10820E+05 -3.29823E+04  1.93610E+03 -5.01370E+04  5.35300E+04  3.52988E+02
  3.50493E+04  5.28502E+04 -1.62408E+04  7.45548E+04 -6.02344E+04  6.19424E+04 -8.20463E+04  3.11357E+04
 -7.89967E+04 -1.08301E+04 -5.57785E+04 -4.94614E+04 -1.51944E+04 -6.74614E+04  2.64248E+04 -4.46109E+04
  3.86332E+04  3.72097E+03  1.56179E+04  4.65123E+04 -3.36458E+04  4.58283E+04 -6.44105E+04 -5.58861E+02
 -5.13791E+04 -5.53903E+04 -5.74247E+03 -7.37502E+04  3.23149E+04 -5.18725E+04  4.53895E+04 -1.61360E+04
  4.04205E+04  1.07367E+04  3.02481E+04  2.39715E+04  1.58322E+04  2.75342E+04 -4.54756E+03  2.64311E+04
 -2.16203E+04  1.30066E+04 -1.94210E+04 -3.65381E+03  3.55979E+03 -7.79837E+03  2.04686E+04  1.01919E+04
  7.48326E+03  3.16957E+04 -2.99226E+04  3.33100E+04 -5.97167E+04  2.21831E+03 -5.46305E+04 -4.07924E+04
 -1.21288E+04 -5.96528E+04  3.69261E+04 -4.21912E+04  5.44100E+04 -1.67718E+03  3.10048E+04  2.96984E+04
 -7.04770E+03  3.17714E+04 -2.76243E+04  1.20327E+04 -2.64127E+04 -5.75296E+03 -1.33461E+04 -9.40869E+03
 -7.50338E+03 -1.07764E+04 -1.40984E+03 -1.57259E+04  5.84693E+03 -2.19302E+04  1.42793E+04 -1.49925E+04
  1.23321E+04  3.97294E+03 -5.26083E+03  1.29452E+04 -1.82414E+04 -1.44344E+03 -7.80810E+03 -2.86675E+04
  2.00612E+04 -3.89037E+04  4.27799E+04 -1.78574E+04  4.02836E+04  1.79181E+04  1.33171E+04  4.05951E+04
 -1.52185E+04  3.02614E+04 -2.21184E+04  7.81413E+02 -7.53512E+03 -2.57783E+04  2.01400E+04 -3.01829E+04
  3.67806E+04 -6.25585E+03  2.94205E+04  2.25296E+04  1.41916E+04  4.04931E+04 -7.68881E+03  4.26903E+04
 -2.68125E+04  2.81078E+04 -3.47512E+04  7.98180E+03 -3.59638E+04 -1.51810E+04 -2.06166E+04 -3.26911E+04
  7.04447E+03 -3.19941E+04  2.79834E+04 -1.20156E+04  2.55689E+04  1.00942E+04  2.41821E+03  1.73087E+04
 -1.27021E+04  6.81097E+03 -9.32331E+03 -7.60012E+03  5.97554E+03 -1.03473E+04  1.73199E+04  6.36500E+03
  1.18979E+04  2.15075E+04 -7.21169E+03  2.24634E+04 -2.11559E+04  8.11768E+03 -2.37680E+04 -6.76280E+03
 -1.49820E+04 -1.57045E+04 -3.77475E+03 -1.47703E+04  3.53431E+03 -1.24451E+04  1.08714E+04 -1.26876E+04
  1.92821E+04 -1.13134E+04  2.63018E+04  4.62942E+02  2.01265E+04  1.41936E+04  4.41519E+03  3.04843E+04
 -1.50756E+04  2.59943E+04 -2.47453E+04  9.00525E+03 -1.87529E+04 -1.03334E+04 -4.03328E+03 -1.40139E+04
  3.07876E+03 -4.63652E+03 -1.47452E+03  5.25823E+03 -1.15457E+04  5.32162E+03 -1.21622E+04 -3.83477E+03
 -8.10827E+03 -1.42137E+04  4.37897E+03 -1.76781E+04  1.14769E+04 -1.31562E+04  1.33853E+04 -1.65870E+03
  8.66788E+03  9.62592E+03 -6.88196E+02  1.44577E+04 -9.16257E+03  7.28367E+03 -1.37537E+04 -3.28096E+03
 -1.05077E+04 -1.30047E+04 -9.09882E+02 -1.74382E+04  7.71045E+03 -1.42070E+04  1.53375E+04 -6.73249E+03
  1.32631E+04  8.60186E+02  9.55669E+03  3.58153E+03  4.32570E+03  4.32648E+02  6.59470E+03 -1.17633E+03
  1.24492E+04  2.64517E+03  1.32695E+04  1.17389E+04  7.96179E+03  2.21108E+04 -3.25909E+03  2.32848E+04
 -1.41069E+04  1.72621E+04 -2.13303E+04  8.42576E+03 -2.16959E+04 -1.43084E+03 -1.87106E+04 -1.27589E+04
 -9.37949E+03 -1.69690E+04  5.78480E+03 -1.70614E+04  1.43647E+04 -1.00413E+04  1.35415E+04  3.01429E+03
  6.08380E+03  9.88997E+03 -6.03372E+03  9.86734E+03 -1.17710E+04  2.37554E+03 -9.61540E+03 -7.31595E+03
 -2.23120E+02 -1.13657E+04  5.61140E+03 -8.62248E+03  7.21521E+03 -1.34685E+03  2.71354E+02  4.18031E+03
 -5.08054E+03  1.14678E+03 -2.92179E+03 -4.00173E+03  1.54394E+03 -8.84669E+03  7.39594E+03 -8.31665E+03
  1.09171E+04 -3.66761E+03  9.83654E+03  2.92985E+03  8.57096E+03  8.43290E+03  4.25021E+03  1.11926E+04
 -5.65696E+02  1.34135E+04 -7.93829E+03  9.09063E+03 -8.96893E+03  2.71610E+03 -7.09756E+03 -1.10548E+03
 -4.20901E+03 -2.56750E+03 -1.41872E+03  1.23813E+03 -1.24633E+03  1.44350E+03 -2.77658E+03  3.79416E+03
 -7.32719E+03 -5.89859E+02 -8.12485E+03 -6.37954E+03 -3.82912E+03 -1.09504E+04  3.48967E+03 -7.59614E+03
  6.85408E+03 -2.96461E+03  4.40899E+03  2.05363E+03  6.42158E+02  2.63687E+03 -2.36130E+03 -1.33785E+02
 -2.84456E+03 -4.67738E+03 -9.54331E+02 -6.06756E+03  3.44066E+03 -6.70336E+03  8.29274E+03 -2.89200E+03
  1.04628E+04  5.01565E+01  7.97041E+03  5.40884E+03  1.64625E+03  7.08651E+03 -4.43476E+03  7.19931E+03
 -6.10462E+03  2.47641E+03 -2.67075E+03 -1.08078E+03  9.94412E+02 -1.62351E+03  4.13195E+03 -4.58532E+02
  3.74511E+03  3.41106E+03  1.31560E+03  5.66778E+03 -3.55955E+03  5.69689E+03 -6.61472E+03  1.27004E+03
 -3.80554E+03 -3.02923E+03  8.31555E+02 -5.65813E+03  3.20105E+03 -2.60898E+03  2.53574E+03  7.28647E+02
  6.55263E+02  2.23208E+03 -3.50554E+03  3.34130E+03 -3.35611E+03  2.04092E+03 -3.35671E+03 -6.17816E+02
 -2.22910E+03 -4.85344E+03  4.44528E+02 -6.15257E+03  4.76903E+03 -3.50933E+03  5.31362E+03  9.82373E+02
  4.03928E+03  4.50199E+03  7.99289E+02  6.30901E+03 -4.63301E+03  4.00006E+03 -4.35459E+03 -5.78039E+02
 -4.99190E+03 -4.46586E+03 -1.40118E+03 -4.07243E+03  2.03613E+03 -4.09077E+03  2.73226E+03 -2.61861E+03
  2.36864E+03  5.17963E+02 -1.57529E+02  1.33574E+03  7.73354E+02  3.83292E+01 -3.02878E+01 -1.29883E+03
  2.48490E+03 -5.47750E+02  3.45617E+03  6.95564E+02  4.47441E+03  2.51741E+03  4.58819E+03  4.91782E+03
 -9.17341E+02  6.64032E+03 -5.84201E+03  5.53998E+03 -8.39013E+03  9.84505E+02 -6.18329E+03 -1.83762E+03
 -3.05823E+03 -4.96728E+03 -5.84985E+02 -3.92087E+03  2.08376E+03 -9.22877E+02  1.44586E+03 -1.82220E+03
  1.10020E+03 -1.81652E+03  2.13474E+03 -2.58616E+03  3.42264E+03 -9.74982E+02  2.88451E+03  9.40837E+02
  3.96647E+03  1.37189E+03  1.05362E+03  2.85634E+03 -1.62819E+03  2.08682E+03 -3.63190E+03  1.66963E+03
 -3.30824E+03 -7.33690E+02 -9.63053E+02 -2.78719E+03  5.62028E+02 -3.61356E+03  2.92842E+03 -3.91087E+03
  3.97561E+03 -2.38689E+03  5.45670E+03  2.42135E+02  3.86576E+03  3.01598E+03  6.01593E+02  4.99010E+03
 -1.66603E+03  4.69091E+03 -2.22864E+03  1.78591E+03 -1.40574E+03 -6.08094E+02 -1.01661E+03 -3.37734E+02
 -5.42979E+02  6.74354E+02 -1.04292E+03  1.85959E+03 -1.77789E+03  1.05358E+03 -3.54699E+03 -3.11609E+02
 -7.34529E+02 -3.20574E+03  6.54127E+02 -4.01638E+03  2.46684E+03 -3.24923E+03  2.32508E+03 -6.37758E+02
  3.04349E+03  1.82969E+03  1.48529E+03  2.34443E+03 -8.83098E+02  3.85191E+03 -1.67503E+03  1.95191E+03
 -2.81165E+03  5.30014E+02 -2.54885E+03 -1.63480E+03 -6.67699E+02 -1.88102E+03  1.23988E+03 -1.67633E+03
  2.18221E+03 -1.03501E+03  1.36041E+03 -5.57550E+02 -1.14301E+02  7.50721E+02  9.67905E+02  4.23957E+02
  1.50025E+03  4.76594E+02  8.96522E+02  1.04469E+03  8.44142E+02  1.45125E+03  1.12128E+03  1.25948E+03
 -1.16838E+03  2.20280E+03 -1.51543E+03  3.50067E+03 -2.06175E+03  9.06986E+02 -3.05779E+03  2.87089E+02
 -1.31870E+03 -2.46391E+03  3.45250E+02 -3.90362E+03  1.56017E+03 -2.22156E+03  2.55691E+03 -8.94179E+02
  1.95153E+03  1.62199E+03  1.12432E+02  1.93633E+03 -3.46486E+02  1.27243E+03 -5.94949E+02  2.00942E+02
 -9.04024E+02 -1.01283E+03  1.13821E+03 -1.23524E+03  1.21974E+03 -1.29141E+03  8.34328E+02  2.62040E+02
 -4.91584E+01 -2.67953E+02  5.93206E+02 -1.23778E+02 -2.81726E+02  2.14036E+02  1.82406E+03 -2.65590E+02
 -2.36706E+02 -3.37940E+02  2.18456E+03  3.89262E+02 -1.26598E+02  1.56245E+03 -1.74274E+02  2.47665E+03
 -1.13716E+03  7.46078E+02 -1.28065E+03  7.47518E+02 -1.88307E+03 -5.81577E+02  4.67976E+02 -4.43372E+02
  5.28730E+02 -4.89293E+02  7.45965E+02 -3.26504E+02  4.87847E+02  9.32709E+02 -1.10619E+03  4.91989E+02
 -1.16433E+03  4.78512E+02 -1.19690E+03 -1.63871E+03  1.50690E+02 -1.77732E+03  1.30074E+02 -1.28517E+03
  1.07223E+02  3.03299E+02  6.01138E+02  1.12781E+03  1.56516E+03 -5.73422E+02  1.35477E+02  1.43171E+03
 -7.21357E+01 -2.32008E+02 -6.80290E+02 -7.93157E+01  8.05607E+02 -2.82556E+02  1.57577E+03 -2.34565E+02
  7.25030E+02 -7.09448E+01  2.51429E+03  8.89783E+02  7.44287E+02  1.08356E+03 -1.05807E+02  1.38719E+03
 -6.71568E+02 -4.79609E+02 -1.22518E+03 -6.32953E+02 -8.28412E+02 -1.04439E+03  9.97880E+02 -4.85350E+02
  1.08803E+03 -8.37389E+02  5.43525E+02  5.53937E+02  1.75355E+01  6.91824E+02  1.41619E+02  4.64668E+02
  2.15794E+01  1.25939E+03 -4.89245E+02  5.54576E+02  1.11469E+01  2.52516E+02 -1.10234E+03  4.63335E+02
 -1.89430E+02  1.01786E+03 -1.27373E+03  8.53409E+01 -1.15519E+03  5.33564E+01 -1.82218E+03 -1.16035E+03
 -1.09247E+03 -1.63256E+03  5.45873E+02 -2.11458E+03  4.80866E+02 -1.66480E+03  2.42328E+03  3.59501E+01
  2.13326E+03 -3.70860E+02  8.27389E+02  1.54993E+03 -5.55199E+02  1.36659E+03 -6.44890E+02  9.36942E+02
 -8.80635E+02  8.70752E+02 -4.92760E+02 -1.15412E+02 -5.94295E+02  1.55345E+02 -8.82136E+02  3.41831E+01
 -9.94978E+02  1.20004E+02 -8.11267E+02  7.91314E+01 -2.61842E+02  1.72011E+02  2.50412E+02 -9.13290E+02
  1.03884E+03  4.53319E+01  4.36004E+02 -8.13674E+01  1.01909E+03  6.78497E+02 -3.28204E+02  1.17012E+03
 -9.23119E+02  1.36270E+03 -1.34943E+03  1.09359E+03 -8.77512E+02 -1.47237E+02 -7.40536E+02 -9.66494E+02
 -3.69352E+02 -1.20704E+03  8.41978E+00 -8.75227E+02  3.80146E+01 -2.99447E+02  2.76332E+02  5.12125E+01
  3.13084E+02 -2.81355E+02 -3.16972E+02  2.01224E+02 -3.14820E+02 -1.69549E+02  1.40220E+02 -1.22485E+02
  3.51020E+02  8.11015E+02 -3.94340E+02  1.27717E+02 -2.34382E+02  8.19866E+02 -7.40720E+01  1.88462E+01
 -8.41040E+02  9.61066E+02 -1.22256E+02  1.25648E+02 -1.13688E+03 -3.25165E+02  6.16582E+02 -9.97196E+02
  8.31010E+02 -7.88637E+02  3.60665E+02 -3.25931E+02  8.35044E+02 -1.08030E+03  6.29087E+02  8.79990E+02
  1.29217E+02 -3.05930E+02 -1.37427E+02 -3.61242E+02 -4.55040E+02  5.50162E+02 -2.13624E+02 -2.84679E+00
  5.70836E+01 -1.27383E+02 -4.03832E+02  2.70545E+02 -8.08467E+02 -5.26605E+01 -6.55150E+02 -4.35820E+02
 -1.06502E+03  1.48469E+02 -6.64655E+02 -5.20852E+02  1.13333E+03 -1.30945E+03  2.86143E+02  3.33432E+02
  4.21363E+02  3.70613E+02 -7.75103E+02 -3.75423E+01  8.47179E+01  4.44328E+02 -1.02582E+02  1.97721E+02
