 $NMID ID='MM_0lb_SNR400_19hz_g45_9.RAW', FMTDAT='(8E13.5)'
 TRAMP=1., VOLUME=1. $END
  3.09771E+05  1.96323E+02  3.37122E+05  2.50360E+05  8.41446E+04  3.37295E+05 -1.32574E+05  2.49662E+05
 -1.89316E+05  8.25724E+04 -1.10098E+05 -3.24698E+04  1.61899E+03 -5.00921E+04  5.38586E+04  1.85348E+02
  3.51286E+04  5.22181E+04 -1.71598E+04  7.48417E+04 -6.04688E+04  6.28169E+04 -8.29247E+04  3.23138E+04
 -7.97174E+04 -1.13492E+04 -5.60425E+04 -5.03116E+04 -1.44118E+04 -6.80732E+04  2.66045E+04 -4.46584E+04
  3.87852E+04  4.16220E+03  1.55752E+04  4.70604E+04 -3.37342E+04  4.61516E+04 -6.50347E+04 -6.96069E+02
 -5.15921E+04 -5.60912E+04 -5.96706E+03 -7.50096E+04  3.33026E+04 -5.23005E+04  4.57841E+04 -1.60221E+04
  4.10026E+04  1.16926E+04  3.08571E+04  2.38957E+04  1.57667E+04  2.85510E+04 -4.98788E+03  2.69258E+04
 -2.20837E+04  1.29882E+04 -2.01272E+04 -4.03634E+03  4.18357E+03 -7.80675E+03  2.09208E+04  1.06697E+04
  7.87868E+03  3.31613E+04 -3.03158E+04  3.40960E+04 -6.04954E+04  1.81751E+03 -5.49187E+04 -4.12430E+04
 -1.22624E+04 -6.04381E+04  3.81226E+04 -4.26504E+04  5.50259E+04 -2.10689E+03  3.18568E+04  3.06856E+04
 -6.57292E+03  3.26235E+04 -2.86500E+04  1.24216E+04 -2.70066E+04 -5.64151E+03 -1.42570E+04 -9.42323E+03
 -6.97006E+03 -1.12134E+04 -1.09894E+03 -1.65715E+04  6.19848E+03 -2.29472E+04  1.51620E+04 -1.43068E+04
  1.24823E+04  4.51698E+03 -6.02036E+03  1.28929E+04 -1.92480E+04 -2.16741E+03 -8.04477E+03 -2.97983E+04
  2.02642E+04 -4.03554E+04  4.43087E+04 -1.81279E+04  4.11691E+04  1.81709E+04  1.43941E+04  4.11332E+04
 -1.56506E+04  3.11907E+04 -2.32192E+04  1.11377E+03 -8.26136E+03 -2.62875E+04  2.02579E+04 -3.10259E+04
  3.77182E+04 -7.40378E+03  3.08683E+04  2.23674E+04  1.42578E+04  4.19737E+04 -7.48804E+03  4.40908E+04
 -2.75322E+04  2.92882E+04 -3.66941E+04  8.32196E+03 -3.76205E+04 -1.52522E+04 -2.15164E+04 -3.41226E+04
  7.13070E+03 -3.40119E+04  2.86471E+04 -1.26490E+04  2.67356E+04  1.07913E+04  2.82301E+03  1.75328E+04
 -1.28188E+04  7.29938E+03 -9.02512E+03 -7.69655E+03  5.66509E+03 -9.92158E+03  1.69619E+04  6.82073E+03
  1.21071E+04  2.11989E+04 -6.59149E+03  2.36432E+04 -2.12897E+04  8.95615E+03 -2.50559E+04 -6.60010E+03
 -1.59121E+04 -1.61139E+04 -5.60939E+03 -1.63183E+04  3.96324E+03 -1.39419E+04  1.20421E+04 -1.43000E+04
  2.05164E+04 -1.19848E+04  2.74707E+04  9.53440E+02  2.12485E+04  1.54523E+04  4.12287E+03  3.23557E+04
 -1.61720E+04  2.74555E+04 -2.51250E+04  9.28546E+03 -1.95862E+04 -1.07369E+04 -3.31241E+03 -1.43663E+04
  2.44269E+03 -4.22515E+03 -2.23756E+03  4.95251E+03 -1.27547E+04  4.97740E+03 -1.28090E+04 -4.64971E+03
 -8.18558E+03 -1.53618E+04  4.06960E+03 -1.88093E+04  1.17668E+04 -1.36274E+04  1.42775E+04 -1.37345E+03
  8.23301E+03  1.02634E+04 -1.26631E+03  1.52036E+04 -1.03204E+04  9.23379E+03 -1.52077E+04 -2.69949E+03
 -1.09580E+04 -1.35843E+04 -1.06391E+03 -1.86007E+04  8.17664E+03 -1.54842E+04  1.55690E+04 -6.96276E+03
  1.42603E+04  6.61641E+02  1.04848E+04  3.79923E+03  4.79764E+03  3.38712E+01  7.81617E+03 -1.06311E+03
  1.32847E+04  2.63608E+03  1.42067E+04  1.25627E+04  8.86886E+03  2.37785E+04 -3.02050E+03  2.54040E+04
 -1.53833E+04  2.01567E+04 -2.36627E+04  9.16802E+03 -2.36935E+04 -1.47409E+03 -2.00087E+04 -1.41427E+04
 -9.83466E+03 -1.94879E+04  6.48039E+03 -1.79899E+04  1.56787E+04 -1.06057E+04  1.51690E+04  3.68214E+03
  6.79202E+03  1.09629E+04 -6.36456E+03  9.65805E+03 -1.29707E+04  2.54027E+03 -1.02855E+04 -7.83885E+03
  2.36835E+02 -1.16544E+04  6.00738E+03 -9.44234E+03  7.57875E+03 -2.02856E+03  1.26226E+03  4.75403E+03
 -5.08839E+03  8.07247E+02 -3.60980E+03 -4.55776E+03  5.64760E+02 -9.82134E+03  7.41245E+03 -8.86285E+03
  1.19748E+04 -4.28686E+03  1.12395E+04  2.51114E+03  9.65545E+03  9.29014E+03  4.61097E+03  1.29735E+04
 -1.15505E+03  1.52269E+04 -8.95853E+03  9.57566E+03 -1.07170E+04  2.93811E+03 -7.95884E+03 -1.58366E+03
 -4.12332E+03 -2.88361E+03 -6.30092E+02  1.66715E+03 -2.12975E+03  1.65057E+03 -3.60645E+03  3.19386E+03
 -7.96287E+03 -4.53004E+02 -8.56226E+03 -7.37963E+03 -3.41069E+03 -1.09427E+04  3.52308E+03 -8.37748E+03
  6.88763E+03 -3.46387E+03  5.16850E+03  2.25680E+03  7.33062E+02  2.36273E+03 -3.53645E+03 -5.18531E+02
 -3.34542E+03 -4.72774E+03 -1.11773E+03 -6.64807E+03  3.78589E+03 -7.94152E+03  9.65408E+03 -3.98452E+03
  1.06718E+04  3.56929E+02  8.27708E+03  5.65221E+03  1.49183E+03  8.56156E+03 -4.71252E+03  8.08858E+03
 -6.40408E+03  2.63696E+03 -3.57314E+03 -1.06028E+03  1.73445E+03 -1.87467E+03  4.66744E+03 -1.11457E+03
  3.88242E+03  3.29131E+03  6.76302E+02  6.06292E+03 -3.95620E+03  5.87735E+03 -7.12550E+03  1.65904E+03
 -4.68679E+03 -3.67906E+03  4.80997E+02 -6.29073E+03  3.58012E+03 -2.89529E+03  3.16454E+03  1.21237E+03
 -6.08904E+01  3.70220E+03 -3.98178E+03  4.24841E+03 -4.45957E+03  2.28379E+03 -3.72884E+03 -9.05255E+02
 -2.26781E+03 -5.71663E+03  1.66142E+03 -6.44636E+03  5.46801E+03 -4.53505E+03  6.00493E+03  5.55815E+02
  4.12735E+03  5.05543E+03  2.39375E+02  6.84861E+03 -4.48994E+03  4.00611E+03 -5.02642E+03 -2.03400E+02
 -5.52684E+03 -4.93010E+03 -9.44905E+02 -4.65772E+03  1.91784E+03 -4.22118E+03  2.59511E+03 -2.78033E+03
  2.60810E+03 -9.93864E+01  3.45782E+02  1.31594E+03  3.31997E+02 -5.37034E+02 -3.49052E+02 -1.68565E+03
  3.35271E+03 -3.20995E+02  4.78089E+03  1.25053E+03  5.47099E+03  2.73353E+03  4.89244E+03  7.20315E+03
 -8.24758E+02  7.79253E+03 -6.94587E+03  5.57613E+03 -9.18055E+03  7.42740E+02 -7.11386E+03 -2.32714E+03
 -4.12803E+03 -6.48044E+03  4.86654E+02 -4.81750E+03  1.97019E+03 -2.05093E+03  1.60790E+03 -2.37429E+03
  1.08998E+03 -1.72826E+03  1.90117E+03 -2.39799E+03  3.60475E+03 -1.28171E+03  3.59939E+03  4.60972E+02
  4.50528E+03  1.22681E+03  9.68725E+02  3.42863E+03 -1.93101E+03  2.46015E+03 -4.40420E+03  2.17298E+03
 -3.81167E+03 -1.22300E+03 -1.74314E+03 -3.29253E+03  9.03987E+02 -4.42324E+03  2.61271E+03 -5.19478E+03
  5.26754E+03 -3.28728E+03  6.10358E+03 -2.12922E+02  4.52573E+03  3.87364E+03  8.80782E+02  5.11049E+03
 -1.90348E+03  5.49271E+03 -2.85082E+03  2.20006E+03 -1.88791E+03 -1.07396E+03 -1.10317E+03 -6.99767E+02
 -5.80163E+02  5.18182E+02 -1.56845E+03  1.82483E+03 -2.34560E+03  4.71870E+02 -3.72134E+03 -6.73076E+02
 -9.56314E+02 -3.80386E+03  6.05202E+02 -4.12438E+03  2.68850E+03 -3.89600E+03  2.71385E+03 -1.22243E+03
  3.63544E+03  2.33394E+03  1.33092E+03  3.50250E+03 -1.17335E+03  3.88258E+03 -2.73901E+03  2.53662E+03
 -4.19761E+03  1.02753E+03 -3.09475E+03 -2.09341E+03 -2.77486E+02 -4.08929E+03  1.03232E+03 -2.43543E+03
  2.50765E+03 -1.57921E+03  1.52332E+03  1.43069E+02  4.15171E+02  1.93027E+03  1.40071E+03  4.22087E+02
  1.10779E+03  3.68601E+02  1.40078E+03  8.18125E+02  1.29829E+03  2.13012E+03  1.56805E+03  1.35988E+03
 -1.69847E+03  2.48135E+03 -2.16313E+03  3.93001E+03 -2.87937E+03  1.34953E+03 -3.55134E+03 -2.38638E+02
 -1.50148E+03 -3.56089E+03  7.10993E+02 -3.62782E+03  1.51119E+03 -2.21055E+03  2.86043E+03 -8.22405E+02
  2.14452E+03  1.70316E+03  7.03360E+02  1.80060E+03 -4.40473E+02  1.44554E+03 -8.41863E+02  5.11022E+00
 -2.92639E+02 -1.27904E+03  1.19698E+03 -1.89016E+03  1.30479E+03 -6.82175E+02  1.14598E+03  5.83812E+01
  7.89031E+02  3.58304E+02  4.78801E+02 -7.37278E+02 -2.30569E+02  8.38842E+02  1.84175E+03 -2.54118E+02
  5.94505E+01 -2.64005E+02  1.71185E+03  3.18859E+02 -1.40083E+02  1.79354E+03 -4.39002E+02  2.73621E+03
 -1.62721E+03  6.16508E+02 -2.42405E+03  8.05058E+02 -1.68358E+03 -8.73271E+02 -2.22519E+02 -5.26927E+02
 -3.27605E+01 -1.43211E+03  9.88432E+02 -1.17237E+03  7.55113E+02  1.11971E+03 -4.37269E+02  1.49694E+03
 -9.36021E+02  3.00210E+02 -1.42657E+03 -7.50219E+02  1.44771E+02 -1.74934E+03  1.86668E+02 -1.66883E+03
  5.73107E+02 -3.99874E+02  1.03989E+03 -1.08658E+02  1.06285E+03 -2.16151E+02  2.62519E+02  8.14263E+02
 -1.23525E+02  1.54162E+02 -9.00757E+02 -7.89268E+01  2.27137E+02 -8.48745E+02  1.28374E+03 -1.18839E+03
  1.35472E+03 -3.19688E+00  2.97565E+03  5.03396E+02  6.87793E+02  1.16585E+03 -3.28053E+02  1.91023E+03
 -1.13120E+03  3.43142E-01 -1.24828E+03  1.78838E+02 -1.02345E+03 -9.26046E+02  6.59867E+02  4.03387E+02
  1.87972E+03 -7.45445E+02  9.36353E+02  1.45017E+01  2.25977E+02  1.29184E+03  4.93294E+02  7.31684E+02
 -8.93681E+02  7.87555E+02 -3.64840E+02  4.14075E+02  4.69456E+02  5.29285E+02 -8.28226E+02  6.56535E+02
 -3.62224E+02  5.11773E+02 -2.01957E+03  3.71172E+02 -1.23059E+03 -1.44327E+02 -1.69855E+03 -1.06270E+03
 -4.06332E+02 -2.30321E+03  2.19777E+02 -2.21154E+03  1.14221E+03 -1.87599E+03  3.06616E+03 -9.74286E+02
  2.48246E+03  2.17863E+01  1.05073E+03  9.35414E+02 -6.02140E+02  7.79549E+02 -4.07887E+02  1.30794E+03
 -5.05609E+02  1.81368E+02 -8.75908E+01 -7.02391E+02 -5.34553E+02  1.06094E+03 -1.31349E+03  6.68978E+02
 -1.59573E+03 -2.03019E+02 -8.53712E+02  2.12650E+01 -1.42474E+02 -4.98044E+02 -3.48898E+02 -1.18609E+03
  1.01653E+03  8.05986E+01 -2.80016E+02  2.74744E+02  1.07950E+03  7.56498E+02 -3.94232E+02  1.09886E+03
 -6.77329E+02  1.93333E+03 -1.69689E+03  7.54653E+02 -1.22819E+03 -9.90300E+00 -1.07585E+03 -1.25002E+03
 -1.29630E+03 -1.42744E+03 -4.84269E+02 -6.76336E+02  4.42243E+02 -4.86381E+02  5.98546E+02  1.55253E+02
  6.36281E+02  4.19540E+02  5.52334E+01  6.71109E+02 -1.02740E+02 -1.33203E+02  1.54765E+02  2.22562E+02
  8.49736E+02  1.81061E+02  9.91701E+02  8.52569E+01 -3.62554E+02  3.93842E+02 -8.10996E+01 -7.84162E+01
 -7.71887E+02  3.54220E+02 -1.97361E+02  9.72141E+01 -3.51018E+02 -2.15166E+02 -2.08980E+02 -1.51058E+03
  6.18182E+02 -6.78065E+02  3.73380E+02  5.86928E+02  1.24935E+03 -3.02079E+02  6.84058E+01  4.57292E+02
 -3.44537E+02  5.00365E+02 -3.58434E+02  7.49396E+02 -8.84795E+02  5.23766E+02 -3.06957E+02  3.38763E+02
  5.16375E+02 -4.00728E+02 -6.70037E+02  2.42951E+02 -1.15504E+03 -2.29029E+02 -3.50404E+02 -4.81856E+02
 -1.99732E+02  6.86417E+02 -1.15047E+02 -6.63103E+02  8.60333E+02 -1.10375E+03  1.12279E+03 -5.07351E+02
  6.82803E+02  5.66953E+02 -5.45210E+02  2.27887E+02  3.41734E+02  9.02841E+02  2.21899E+02  7.73691E+02
