 $NMID ID='MM_0lb_SNR400_7hz_g45_43.RAW', FMTDAT='(8E13.5)'
 TRAMP=1., VOLUME=1. $END
  3.09341E+05 -3.62135E+02  3.37515E+05  2.51278E+05  8.46668E+04  3.38534E+05 -1.31968E+05  2.51765E+05
 -1.91515E+05  8.44338E+04 -1.12759E+05 -3.29507E+04 -3.85074E+02 -5.05486E+04  5.33900E+04 -6.90693E+02
  3.64926E+04  5.33195E+04 -1.66172E+04  7.55122E+04 -6.12743E+04  6.46440E+04 -8.54252E+04  3.30855E+04
 -8.37653E+04 -1.23342E+04 -5.86976E+04 -5.32927E+04 -1.41180E+04 -7.17797E+04  2.85890E+04 -4.71824E+04
  4.16389E+04  3.50907E+03  1.63724E+04  4.91023E+04 -3.44648E+04  4.80378E+04 -6.83504E+04 -1.92911E+02
 -5.52832E+04 -5.85182E+04 -7.59075E+03 -8.02638E+04  3.43485E+04 -5.64385E+04  5.06225E+04 -1.81100E+04
  4.54106E+04  1.10624E+04  3.33631E+04  2.61124E+04  1.59899E+04  3.13631E+04 -5.51240E+03  2.78767E+04
 -2.34757E+04  1.20630E+04 -1.86022E+04 -6.12453E+03  7.07079E+03 -6.84657E+03  2.35090E+04  1.43910E+04
  6.60254E+03  3.87101E+04 -3.52750E+04  3.79077E+04 -6.56791E+04  2.30026E+03 -5.89068E+04 -4.52322E+04
 -1.26448E+04 -6.65570E+04  4.21649E+04 -4.72216E+04  6.22590E+04 -2.35541E+03  3.75748E+04  3.48007E+04
 -5.22899E+03  4.15578E+04 -3.22849E+04  2.01351E+04 -3.38731E+04 -3.54072E+03 -2.05531E+04 -1.19942E+04
 -9.90454E+03 -1.53118E+04  3.28088E+02 -2.05186E+04  8.38052E+03 -2.39161E+04  1.59422E+04 -1.15009E+04
  9.30016E+03  6.21641E+03 -1.18669E+04  1.26302E+04 -2.42809E+04 -7.20383E+03 -8.98012E+03 -3.79748E+04
  2.60269E+04 -4.78086E+04  5.37091E+04 -2.11859E+04  5.04819E+04  2.10345E+04  1.85259E+04  4.82102E+04
 -1.63334E+04  3.67695E+04 -2.83797E+04  2.36498E+03 -1.16379E+04 -3.09091E+04  2.09149E+04 -3.81187E+04
  4.57332E+04 -1.23442E+04  4.21825E+04  2.52295E+04  2.17986E+04  5.24620E+04 -7.82044E+03  5.85215E+04
 -3.68131E+04  4.01414E+04 -5.02439E+04  1.11704E+04 -4.95996E+04 -1.89681E+04 -2.70734E+04 -4.29046E+04
  8.59499E+03 -4.39466E+04  3.47922E+04 -1.77677E+04  3.29657E+04  1.08985E+04  5.20495E+03  2.08574E+04
 -1.51008E+04  1.04692E+04 -1.12357E+04 -6.53842E+03  5.96117E+03 -1.19733E+04  1.83752E+04  5.40398E+03
  1.49830E+04  2.23466E+04 -5.19792E+03  2.72244E+04 -2.34942E+04  1.65347E+04 -3.28134E+04 -1.58633E+03
 -2.71108E+04 -1.86012E+04 -1.31204E+04 -2.58453E+04  4.92366E+03 -2.72629E+04  2.09152E+04 -2.40684E+04
  3.40578E+04 -1.53306E+04  4.05342E+04  6.12150E+03  2.79913E+04  2.64050E+04  4.68260E+03  4.38924E+04
 -2.04399E+04  3.53197E+04 -3.22846E+04  1.24996E+04 -2.33968E+04 -1.10158E+04 -5.00802E+03 -1.32532E+04
  1.01985E+03 -4.70274E+02 -8.57648E+03  7.96733E+03 -2.15621E+04  5.74594E+03 -2.12920E+04 -9.89370E+03
 -1.21457E+04 -2.56929E+04  6.28887E+03 -2.91983E+04  2.00151E+04 -2.07472E+04  2.42757E+04 -1.85286E+03
  1.61363E+04  1.76121E+04 -2.11787E+03  2.53666E+04 -1.74302E+04  1.41713E+04 -2.46996E+04 -5.45988E+03
 -1.84691E+04 -2.28222E+04 -2.84405E+03 -2.89104E+04  1.44543E+04 -2.49248E+04  2.45861E+04 -1.20978E+04
  2.41140E+04 -5.68253E+02  1.75900E+04  4.55819E+03  9.14617E+03  2.35497E+03  1.37172E+04 -2.90328E+03
  2.38936E+04  2.86672E+03  2.76569E+04  1.96773E+04  1.96201E+04  3.99604E+04 -2.17099E+03  4.75055E+04
 -2.77011E+04  4.04514E+04 -4.53085E+04  2.10967E+04 -4.95613E+04 -3.38223E+03 -3.94387E+04 -2.92406E+04
 -1.53505E+04 -4.08148E+04  1.35269E+04 -3.49546E+04  3.07448E+04 -1.55473E+04  2.60073E+04  7.77315E+03
  8.62468E+03  2.04542E+04 -1.26075E+04  1.61917E+04 -2.18420E+04  1.67161E+03 -1.69715E+04 -1.41061E+04
  6.73973E+01 -2.19687E+04  1.08519E+04 -1.54478E+04  1.44532E+04 -9.07352E+02  4.45936E+03  1.00232E+04
 -9.51861E+03  5.10590E+03 -9.95770E+03 -7.66264E+03 -4.06469E+03 -1.94972E+04  1.38014E+04 -2.14491E+04
  2.56960E+04 -1.33349E+04  2.92084E+04  3.38065E+03  2.47672E+04  2.09418E+04  1.09030E+04  3.28383E+04
 -6.05710E+03  3.47740E+04 -2.37613E+04  2.12002E+04 -2.53534E+04  4.73538E+03 -1.64467E+04 -7.68000E+03
 -7.15728E+03 -8.75275E+03 -7.89080E+02  1.02892E+02 -2.99588E+03  3.89004E+03 -9.12656E+03  6.08514E+03
 -1.57264E+04 -1.27408E+03 -1.63707E+04 -1.31663E+04 -6.96061E+03 -2.18877E+04  6.30408E+03 -1.74021E+04
  1.39610E+04 -6.40395E+03  1.00397E+04  5.07105E+03 -1.01717E+03  7.61715E+03 -8.85602E+03  1.10749E+02
 -7.71536E+03 -1.21273E+04 -5.80139E+02 -1.82176E+04  1.11325E+04 -1.76702E+04  2.26198E+04 -9.45749E+03
  2.69704E+04  2.48128E+03  1.91609E+04  1.68546E+04  4.45593E+03  2.12840E+04 -1.09328E+04  1.65355E+04
 -1.38923E+04  4.97406E+03 -7.37342E+03 -4.23894E+03  1.87256E+03 -4.57003E+03  8.79652E+03 -9.26103E+02
  7.48923E+03  7.46164E+03  3.89984E+01  1.38519E+04 -1.05500E+04  1.21980E+04 -1.67824E+04  3.27556E+03
 -1.17041E+04 -9.26043E+03  1.25365E+03 -1.49697E+04  9.65528E+03 -8.68755E+03  1.04911E+04  4.57134E+03
  2.60357E+03  1.21666E+04 -9.80082E+03  1.33007E+04 -1.56198E+04  5.34307E+03 -1.54034E+04 -6.71131E+03
 -9.38873E+03 -1.86824E+04  3.84088E+03 -2.03921E+04  1.73841E+04 -1.20723E+04  1.96201E+04  2.99922E+03
  1.10903E+04  1.54387E+04 -1.82637E+03  1.78691E+04 -1.35727E+04  9.52900E+03 -1.41146E+04 -1.67444E+03
 -1.23468E+04 -1.10972E+04 -1.91642E+03 -1.38156E+04  7.01084E+03 -1.03425E+04  9.41492E+03 -4.47736E+03
  4.96502E+03  3.39289E+03 -1.93295E+03  2.23578E+03 -2.19021E+03 -4.16454E+03  3.75451E+03 -9.66768E+03
  1.37711E+04 -6.58971E+03  1.83619E+04  1.12426E+03  1.84877E+04  1.29118E+04  1.13783E+04  2.48775E+04
 -5.50865E+03  2.79404E+04 -2.28425E+04  2.07233E+04 -3.04927E+04  4.12967E+03 -2.41399E+04 -1.05572E+04
 -1.20878E+04 -2.07601E+04  2.87036E+02 -1.67589E+04  6.16421E+03 -1.00780E+04  6.50492E+03 -5.30866E+03
  4.46922E+03 -3.27405E+03  4.78152E+03 -4.48182E+03  6.74090E+03 -3.97999E+03  9.27570E+03 -2.35615E+03
  1.23894E+04  2.82155E+03  6.73166E+03  1.12951E+04 -3.47338E+03  1.41629E+04 -1.36539E+04  9.97951E+03
 -1.70020E+04 -1.36229E+03 -1.20958E+04 -1.22794E+04 -2.39618E+03 -1.89470E+04  9.89029E+03 -1.92793E+04
  2.08934E+04 -1.11505E+04  2.24723E+04  3.85245E+03  1.64462E+04  1.59153E+04  2.04867E+03  2.17580E+04
 -9.58830E+03  1.64320E+04 -1.22525E+04  5.70037E+03 -7.85478E+03 -1.72009E+03 -4.03426E+03 -2.10681E+03
 -1.44845E+03 -7.14541E+02 -3.14185E+03  4.09386E+03 -6.79471E+03  3.13275E+03 -1.22101E+04 -1.43311E+03
 -8.93570E+03 -1.23922E+04 -1.28551E+03 -1.77725E+04  1.13568E+04 -1.70000E+04  1.84221E+04 -5.21895E+03
  1.75423E+04  8.19469E+03  7.44175E+03  1.61121E+04 -3.88959E+03  1.73345E+04 -1.27909E+04  1.20957E+04
 -1.75346E+04  9.61567E+02 -1.20128E+04 -1.12445E+04 -1.72855E+03 -1.59325E+04  7.60398E+03 -1.04818E+04
  1.16241E+04 -3.70958E+03  7.69988E+03  3.19576E+03  3.34945E+03  5.24688E+03  1.77028E+03  2.03582E+03
  3.57485E+03  9.66523E+02  4.81319E+03  1.39754E+03  6.35772E+03  7.07831E+03  4.65003E+03  1.01821E+04
 -3.59853E+03  1.40827E+04 -1.35727E+04  1.49919E+04 -1.97359E+04  2.76098E+03 -2.03162E+04 -8.49828E+03
 -9.81302E+03 -1.93554E+04  2.79567E+03 -2.09249E+04  1.15226E+04 -1.27405E+04  1.60406E+04 -3.08112E+03
  1.16922E+04  6.63263E+03  2.35879E+03  1.13565E+04 -5.84803E+03  6.44103E+03 -7.30829E+03 -7.08749E+02
 -3.05017E+03 -8.01407E+03  3.95815E+03 -8.56436E+03  7.83719E+03 -4.40653E+03  7.55729E+03  1.97623E+03
  4.92973E+03  3.53050E+03  1.44054E+03  3.89872E+03 -6.00258E+02  1.71355E+03  1.80273E+03 -5.32114E+02
  3.87106E+03 -1.09169E+03  7.60190E+03  3.46552E+03  4.82745E+03  9.73504E+03 -1.63682E+03  1.37628E+04
 -9.16375E+03  9.31624E+03 -1.26230E+04  2.50650E+03 -1.08472E+04 -4.19574E+03 -4.97987E+03 -7.86246E+03
  1.16691E+03 -7.94275E+03  5.06256E+03 -3.40284E+03  4.30526E+03  3.34013E+03 -2.10568E+03  5.62892E+03
 -8.31136E+03  3.48893E+03 -1.00288E+04 -4.12906E+03 -5.28699E+03 -1.06309E+04  1.11548E+03 -1.09569E+04
  6.68330E+03 -6.59938E+03  8.49350E+03 -8.79937E+02  6.61579E+03  3.97815E+03  1.19965E+03  5.00755E+03
 -4.00286E+03  1.51792E+03 -4.90429E+03 -3.80186E+03  1.48692E+03 -8.43437E+03  1.00304E+04 -7.34892E+03
  1.24097E+04  1.33426E+03  1.12913E+04  9.11349E+03  3.79492E+03  1.33061E+04 -4.71254E+03  1.31460E+04
 -1.16824E+04  6.29372E+03 -1.21339E+04 -1.80851E+03 -5.98167E+03 -9.40993E+03  2.03105E+03 -8.71471E+03
  8.09725E+03 -4.60593E+03  6.32052E+03  3.56590E+03  2.09104E+03  7.60591E+03 -8.53208E+02  6.61418E+03
 -3.27358E+03  4.40032E+03 -2.99782E+03  1.84435E+03 -1.92450E+03  7.63265E+02 -1.91688E+03  3.81249E+03
 -2.64961E+03  4.74573E+03 -9.09340E+03  4.58414E+03 -1.37742E+04  4.99980E+01 -1.46697E+04 -9.63828E+03
 -8.13948E+03 -1.83451E+04  3.14900E+03 -2.06415E+04  1.33607E+04 -1.61048E+04  2.01299E+04 -6.63052E+03
  1.82295E+04  3.83695E+03  1.16536E+04  1.27314E+04  9.82140E+02  1.36845E+04 -5.87376E+03  1.08321E+04
 -7.77811E+03  3.80249E+03 -3.94264E+03 -1.55779E+03 -2.36631E+03 -1.40612E+03 -1.16203E+02  4.96880E+02
 -2.00811E+03 -1.96981E+02 -2.96894E+03 -3.11045E+00 -1.46905E+03 -2.05432E+03  8.94186E+02 -6.16479E+03
  7.36671E+03 -4.19484E+03  9.83985E+03 -1.44452E+02  1.02698E+04  7.58193E+03  3.94878E+03  1.40262E+04
 -6.12158E+03  1.59936E+04 -1.58025E+04  1.00098E+04 -1.68904E+04 -8.22866E+02 -1.34657E+04 -1.11196E+04
 -4.75434E+03 -1.53546E+04  4.03545E+03 -1.38547E+04  9.54042E+03 -7.59818E+03  8.72301E+03  6.51298E+02
  4.53357E+03  5.19104E+03  6.66733E+01  4.53332E+03 -2.84701E+03 -4.33384E+02  1.02156E-01 -4.15580E+03
  4.99558E+03 -2.37817E+03  6.11910E+03  1.47653E+03  3.22099E+03  5.44647E+03  7.32586E+01  8.62681E+03
 -6.35319E+03  7.30995E+03 -9.93836E+03  2.54948E+02 -9.85150E+03 -6.95187E+03 -1.85488E+03 -1.18183E+04
  6.60124E+03 -1.10612E+04  1.15011E+04 -3.44924E+03  1.17206E+04  4.01172E+03  6.07814E+03  9.59045E+03
  8.79815E+02  1.01623E+04 -3.70571E+03  7.96964E+03 -6.88590E+03  4.67287E+03 -5.61953E+03  7.19616E+02
 -2.21690E+03 -7.12462E+02 -2.94004E+03  1.21703E+03 -5.13971E+03  2.41706E+03 -7.73916E+03 -2.31626E+03
 -6.87418E+03 -6.16399E+03 -2.26484E+03 -1.06117E+04  4.81518E+03 -1.05589E+04  9.34159E+03 -4.92148E+03
  9.95249E+03  1.06433E+03  5.28921E+03  6.80159E+03 -7.68973E+02  9.65127E+03 -8.40298E+03  6.87435E+03
