 $NMID ID='MM_0lb_SNR400_10hz_g60_27.RAW', FMTDAT='(8E13.5)'
 TRAMP=1., VOLUME=1. $END
  3.09604E+05  5.63108E+01  3.37796E+05  2.50832E+05  8.43481E+04  3.38471E+05 -1.32937E+05  2.51694E+05
 -1.90443E+05  8.45838E+04 -1.12681E+05 -3.24006E+04  7.29708E+02 -5.05242E+04  5.33820E+04 -5.22604E+02
  3.61515E+04  5.24388E+04 -1.69489E+04  7.58938E+04 -6.11132E+04  6.44160E+04 -8.52590E+04  3.22947E+04
 -8.26076E+04 -1.24144E+04 -5.85185E+04 -5.26526E+04 -1.53840E+04 -7.05491E+04  2.79627E+04 -4.71471E+04
  4.16282E+04  3.60556E+03  1.74236E+04  4.87749E+04 -3.46052E+04  4.86324E+04 -6.87489E+04 -3.10499E+02
 -5.55381E+04 -5.80008E+04 -7.42311E+03 -7.93725E+04  3.49629E+04 -5.63402E+04  4.99743E+04 -1.81346E+04
  4.53023E+04  1.19585E+04  3.25902E+04  2.64789E+04  1.61633E+04  3.04175E+04 -5.82778E+03  2.81901E+04
 -2.27808E+04  1.20479E+04 -1.79603E+04 -6.28990E+03  6.75008E+03 -7.88906E+03  2.33297E+04  1.41492E+04
  7.07724E+03  3.76160E+04 -3.41769E+04  3.72769E+04 -6.59149E+04  2.49433E+03 -5.80167E+04 -4.51114E+04
 -1.24980E+04 -6.69753E+04  4.27019E+04 -4.70617E+04  6.13922E+04 -2.49386E+03  3.70408E+04  3.41497E+04
 -5.26741E+03  3.95698E+04 -3.23521E+04  1.96571E+04 -3.34183E+04 -3.71742E+03 -1.98600E+04 -1.24497E+04
 -9.20278E+03 -1.58654E+04 -3.63789E+02 -1.93037E+04  8.65413E+03 -2.38094E+04  1.56952E+04 -1.17580E+04
  1.07586E+04  6.48672E+03 -1.04375E+04  1.25467E+04 -2.34280E+04 -6.37141E+03 -8.51102E+03 -3.71678E+04
  2.57140E+04 -4.74249E+04  5.17049E+04 -2.06712E+04  4.93506E+04  2.15194E+04  1.74427E+04  4.70067E+04
 -1.76144E+04  3.66475E+04 -2.63919E+04  2.61328E+03 -1.13328E+04 -2.94059E+04  2.08297E+04 -3.64216E+04
  4.46509E+04 -1.16659E+04  4.10312E+04  2.54708E+04  2.16753E+04  5.08142E+04 -7.76517E+03  5.65653E+04
 -3.49679E+04  3.84937E+04 -4.78683E+04  1.08711E+04 -4.79853E+04 -1.79169E+04 -2.67723E+04 -4.18441E+04
  7.72924E+03 -4.23389E+04  3.33296E+04 -1.68618E+04  3.16850E+04  1.09395E+04  5.08704E+03  2.08971E+04
 -1.35116E+04  9.45021E+03 -1.15962E+04 -7.38021E+03  5.79873E+03 -1.19171E+04  1.85359E+04  6.41952E+03
  1.53613E+04  2.28365E+04 -6.05044E+03  2.69821E+04 -2.28143E+04  1.49225E+04 -3.19652E+04 -3.17251E+03
 -2.58776E+04 -1.85401E+04 -1.16540E+04 -2.52996E+04  4.53595E+03 -2.58578E+04  1.91264E+04 -2.38418E+04
  3.31558E+04 -1.45450E+04  3.79480E+04  4.97018E+03  2.73196E+04  2.44893E+04  4.72936E+03  4.03643E+04
 -2.01045E+04  3.37205E+04 -3.11081E+04  1.25637E+04 -2.32943E+04 -1.01609E+04 -5.08531E+03 -1.36029E+04
  3.72968E+02 -1.16372E+03 -7.77757E+03  7.84943E+03 -1.98954E+04  4.77748E+03 -1.99607E+04 -9.93600E+03
 -1.22400E+04 -2.30033E+04  6.89813E+03 -2.81311E+04  1.88107E+04 -1.95033E+04  2.27725E+04 -1.56390E+03
  1.49098E+04  1.67719E+04 -1.35391E+03  2.35808E+04 -1.60790E+04  1.32915E+04 -2.34241E+04 -5.73647E+03
 -1.72811E+04 -2.12710E+04 -2.31157E+03 -2.78484E+04  1.27402E+04 -2.28651E+04  2.23047E+04 -1.21683E+04
  2.23322E+04 -4.52743E+02  1.58685E+04  5.05767E+03  8.46781E+03  9.07161E+02  1.19764E+04 -1.42498E+03
  2.26038E+04  3.15459E+03  2.53612E+04  1.84715E+04  1.77522E+04  3.76710E+04 -3.13591E+03  4.39439E+04
 -2.41095E+04  3.71912E+04 -4.21839E+04  1.88333E+04 -4.47441E+04 -2.65766E+03 -3.54842E+04 -2.57360E+04
 -1.43165E+04 -3.69523E+04  1.35549E+04 -3.24222E+04  2.76630E+04 -1.45031E+04  2.41163E+04  7.58172E+03
  8.78222E+03  1.81862E+04 -1.17159E+04  1.59836E+04 -2.01691E+04  3.10587E+03 -1.52338E+04 -1.33543E+04
 -1.84138E+02 -1.99424E+04  1.07736E+04 -1.42676E+04  1.35379E+04 -1.13266E+03  3.41875E+03  9.19982E+03
 -8.26245E+03  4.48432E+03 -9.26311E+03 -7.29888E+03 -2.31610E+03 -1.77858E+04  1.20842E+04 -1.93183E+04
  2.28851E+04 -1.08668E+04  2.61551E+04  3.72959E+03  2.30346E+04  1.90474E+04  1.05685E+04  2.92219E+04
 -5.31334E+03  3.10265E+04 -2.04442E+04  1.92262E+04 -2.24652E+04  4.74394E+03 -1.50617E+04 -5.59439E+03
 -5.97347E+03 -6.92936E+03 -1.62577E+03  7.64914E+02 -2.68611E+03  2.95047E+03 -8.05525E+03  5.62477E+03
 -1.41732E+04 -1.00070E+03 -1.49831E+04 -1.10892E+04 -5.63631E+03 -1.92336E+04  5.91257E+03 -1.56571E+04
  1.28667E+04 -6.48263E+03  8.95911E+03  4.24347E+03  2.85584E+02  6.06683E+03 -8.13275E+03 -1.17630E+03
 -7.75566E+03 -1.03377E+04 -5.76307E+02 -1.56613E+04  9.01452E+03 -1.58520E+04  1.94733E+04 -9.35768E+03
  2.35868E+04  2.20951E+03  1.70469E+04  1.48007E+04  3.57156E+03  1.91216E+04 -9.22231E+03  1.54673E+04
 -1.28611E+04  5.10954E+03 -6.23716E+03 -3.27554E+03  2.06633E+03 -4.69071E+03  7.92669E+03 -1.08231E+03
  7.48078E+03  6.70200E+03  1.38801E+03  1.26612E+04 -8.73778E+03  1.29657E+04 -1.48607E+04  2.97468E+03
 -1.11703E+04 -8.25154E+03  6.32062E+02 -1.37826E+04  8.60419E+03 -6.66985E+03  9.14216E+03  3.88847E+03
  2.03528E+03  9.03991E+03 -8.39033E+03  1.14020E+04 -1.26511E+04  5.19400E+03 -1.37864E+04 -4.99020E+03
 -7.78352E+03 -1.49636E+04  3.75142E+03 -1.79944E+04  1.52672E+04 -1.07533E+04  1.62770E+04  2.92954E+03
  9.41121E+03  1.29663E+04 -1.28531E+03  1.54877E+04 -1.21096E+04  8.34441E+03 -1.30409E+04 -1.45842E+03
 -1.05307E+04 -1.02602E+04 -1.71929E+03 -1.16063E+04  6.08030E+03 -9.23856E+03  7.61392E+03 -4.74970E+03
  5.02804E+03  2.81143E+03 -1.48162E+03  2.14700E+03 -1.15242E+02 -3.73795E+03  2.32800E+03 -8.08271E+03
  1.05109E+04 -4.35077E+03  1.61788E+04  2.28021E+03  1.49887E+04  1.09813E+04  9.74731E+03  2.08850E+04
 -4.12348E+03  2.34767E+04 -1.97764E+04  1.70339E+04 -2.47831E+04  3.76204E+03 -2.01653E+04 -9.10323E+03
 -1.08983E+04 -1.63509E+04 -5.41032E+02 -1.45200E+04  4.69207E+03 -8.13131E+03  5.43056E+03 -4.84572E+03
  4.15751E+03 -3.34974E+03  3.79880E+03 -4.05131E+03  5.56140E+03 -3.39657E+03  7.57582E+03 -1.36157E+03
  1.01078E+04  2.57724E+03  6.18840E+03  9.59514E+03 -2.61987E+03  1.00589E+04 -1.08969E+04  8.28280E+03
 -1.48562E+04 -1.62601E+03 -8.84689E+03 -1.00993E+04 -9.70332E+02 -1.51139E+04  8.05693E+03 -1.59600E+04
  1.60717E+04 -7.93313E+03  1.94090E+04  2.17758E+03  1.28891E+04  1.42264E+04  2.18013E+03  1.69193E+04
 -6.93511E+03  1.37636E+04 -9.54752E+03  4.69387E+03 -6.81436E+03 -1.52578E+03 -2.47447E+03 -2.62372E+03
 -2.21032E+03  9.77345E+01 -2.19161E+03  3.15484E+03 -5.97571E+03  2.34347E+03 -9.90178E+03 -1.38278E+03
 -6.72009E+03 -8.73226E+03  2.99619E+02 -1.40401E+04  8.48285E+03 -1.28807E+04  1.36061E+04 -3.68500E+03
  1.32404E+04  6.93295E+03  6.49292E+03  1.29807E+04 -3.73016E+03  1.46573E+04 -9.73137E+03  8.70217E+03
 -1.39316E+04  6.96769E+02 -1.09492E+04 -9.04967E+03 -9.84634E+02 -1.21705E+04  6.22827E+03 -8.85834E+03
  8.86968E+03 -3.31601E+03  5.53065E+03  2.09691E+03  1.61007E+03  4.61812E+03  1.37770E+03  1.70618E+03
  3.04006E+03  1.04382E+03  3.05758E+03  1.46106E+03  3.85898E+03  6.05713E+03  4.29379E+03  7.51871E+03
 -2.57458E+03  1.14893E+04 -9.69576E+03  1.17449E+04 -1.43740E+04  2.71305E+03 -1.55907E+04 -6.50700E+03
 -7.42269E+03 -1.49292E+04  1.66416E+03 -1.49324E+04  8.74065E+03 -9.83168E+03  1.17937E+04 -3.62618E+03
  8.71372E+03  5.12651E+03  2.75666E+03  8.20841E+03 -4.34382E+03  4.57662E+03 -5.32665E+03 -4.89072E+02
 -2.71983E+03 -5.86504E+03  3.10030E+03 -6.22631E+03  6.13060E+03 -3.16042E+03  5.59086E+03  1.66194E+03
  3.51853E+03  2.62839E+03  8.71069E+02  2.08705E+03 -1.05829E+03  1.73778E+03  1.71887E+03 -1.17685E+02
  1.57539E+03 -7.93904E+02  5.72616E+03  3.12866E+03  3.98504E+03  7.94466E+03 -1.24055E+03  1.09867E+04
 -5.98278E+03  6.21821E+03 -8.86800E+03  1.83580E+03 -8.11285E+03 -3.09852E+03 -3.25669E+03 -5.68962E+03
  9.46691E+02 -6.03311E+03  3.98578E+03 -2.73083E+03  2.97970E+03  3.22588E+03 -1.81325E+03  4.94726E+03
 -6.21346E+03  3.07162E+03 -7.16583E+03 -2.79660E+03 -4.18219E+03 -8.72585E+03  1.65536E+03 -7.70983E+03
  5.02420E+03 -4.31270E+03  6.32066E+03 -5.45635E+02  4.49657E+03  1.16179E+03  5.95707E+02  4.80080E+03
 -3.43488E+03  1.07481E+03 -3.55007E+03 -2.51437E+03  7.57593E+02 -5.78514E+03  7.12731E+03 -4.37717E+03
  9.16794E+03  5.00645E+02  9.24996E+03  5.82220E+03  2.89892E+03  9.54367E+03 -3.36164E+03  9.18461E+03
 -6.73007E+03  3.89964E+03 -7.72213E+03 -8.36580E+02 -4.46726E+03 -6.31442E+03  1.59031E+03 -5.16978E+03
  6.15050E+03 -2.92668E+03  4.31122E+03  1.77955E+03  1.27060E+03  5.35563E+03 -6.85288E+02  4.86161E+03
 -2.51440E+03  2.27106E+03 -2.64596E+03  1.34331E+03 -1.06966E+03  4.07588E+02 -1.81357E+03  2.10866E+03
 -1.71271E+03  2.91848E+03 -6.07443E+03  3.09143E+03 -9.45830E+03  9.67699E+01 -1.00180E+04 -6.05257E+03
 -5.14265E+03 -1.31990E+04  2.68449E+03 -1.37278E+04  8.22223E+03 -1.07953E+04  1.30782E+04 -3.90076E+03
  1.27809E+04  3.52176E+03  6.93341E+03  9.05260E+03  2.27421E+02  8.98904E+03 -3.48696E+03  6.26472E+03
 -5.30297E+03  3.09471E+03 -2.78541E+03 -6.99499E+02 -1.49785E+03 -3.22988E+02 -6.55119E+02 -5.15673E+02
 -2.46090E+03  1.93772E+02 -1.69729E+03 -1.11074E+03 -8.78075E+02 -2.50178E+03  9.75888E+02 -3.03330E+03
  4.66325E+03 -3.61833E+03  5.57051E+03 -3.93732E+01  6.33389E+03  4.36786E+03  2.55328E+03  9.29451E+03
 -4.96263E+03  1.08122E+04 -1.00360E+04  6.18865E+03 -1.25263E+04 -8.04636E+02 -8.97117E+03 -7.13471E+03
 -3.28420E+03 -9.88832E+03  2.48558E+03 -9.15044E+03  6.04888E+03 -4.98259E+03  6.45460E+03  6.72421E+02
  3.47266E+03  3.66229E+03 -3.13866E+02  2.45286E+03 -1.69480E+03 -4.41587E+02  6.98770E+02 -2.21897E+03
  2.86166E+03 -3.86666E+02  3.29336E+03  1.55672E+03  2.62897E+03  3.01124E+03  6.19894E+02  4.80866E+03
 -4.76654E+03  4.18018E+03 -5.95752E+03  5.93964E+02 -5.47848E+03 -5.68321E+03 -4.66686E+02 -8.50368E+03
  4.41513E+03 -6.19075E+03  7.55431E+03 -1.09154E+03  6.48079E+03  1.59315E+03  4.23317E+03  6.17117E+03
  3.48696E+02  5.19211E+03 -2.16970E+03  5.60159E+03 -4.87465E+03  2.87217E+03 -3.10368E+03  2.33050E+02
 -8.83164E+02  4.44909E+02 -1.40644E+03  7.76767E+02 -3.01625E+03  1.25843E+03 -4.76793E+03 -9.93598E+02
 -5.11186E+03 -3.37651E+03 -1.62761E+03 -5.83190E+03  3.34605E+03 -6.61983E+03  5.77879E+03 -3.10078E+03
  5.98350E+03  4.75005E+02  3.57519E+03  4.41129E+03 -1.45812E+03  6.74040E+03 -4.92064E+03  3.63928E+03
