 $NMID ID='MM_0lb_SNR400_18hz_g55_6.RAW', FMTDAT='(8E13.5)'
 TRAMP=1., VOLUME=1. $END
  3.09918E+05  1.94632E+02  3.37066E+05  2.51136E+05  8.48269E+04  3.37842E+05 -1.33056E+05  2.50700E+05
 -1.89837E+05  8.28149E+04 -1.11511E+05 -3.30369E+04  6.37590E+02 -5.02054E+04  5.40777E+04  3.00523E+02
  3.51111E+04  5.24067E+04 -1.68024E+04  7.48549E+04 -6.05722E+04  6.28100E+04 -8.27779E+04  3.15628E+04
 -8.02624E+04 -1.13855E+04 -5.71112E+04 -5.05992E+04 -1.54022E+04 -6.88832E+04  2.68403E+04 -4.53838E+04
  3.96707E+04  4.02915E+03  1.56156E+04  4.67768E+04 -3.45668E+04  4.65182E+04 -6.59638E+04 -3.83365E+02
 -5.26550E+04 -5.68958E+04 -6.62146E+03 -7.62050E+04  3.38142E+04 -5.46917E+04  4.69271E+04 -1.68830E+04
  4.20261E+04  1.09952E+04  3.07267E+04  2.52253E+04  1.58614E+04  2.84536E+04 -5.11929E+03  2.68633E+04
 -2.21943E+04  1.29607E+04 -1.90229E+04 -4.85370E+03  5.16964E+03 -7.16837E+03  2.13914E+04  1.13609E+04
  7.40572E+03  3.39769E+04 -3.07398E+04  3.46209E+04 -6.20299E+04  1.77249E+03 -5.62388E+04 -4.18977E+04
 -1.31039E+04 -6.16955E+04  3.90103E+04 -4.41790E+04  5.67602E+04 -1.95168E+03  3.30138E+04  3.18798E+04
 -6.42667E+03  3.43382E+04 -2.92210E+04  1.48844E+04 -2.93509E+04 -4.63290E+03 -1.51689E+04 -1.07101E+04
 -7.60661E+03 -1.23767E+04 -6.11909E+02 -1.74849E+04  6.85234E+03 -2.22898E+04  1.49579E+04 -1.33014E+04
  1.21331E+04  4.92908E+03 -6.85836E+03  1.28710E+04 -2.05456E+04 -3.36094E+03 -8.69973E+03 -3.19942E+04
  2.16488E+04 -4.22177E+04  4.60491E+04 -1.93081E+04  4.33832E+04  1.90802E+04  1.50873E+04  4.25546E+04
 -1.55943E+04  3.18641E+04 -2.46045E+04  1.55981E+03 -8.65270E+03 -2.69172E+04  2.04774E+04 -3.16554E+04
  3.92863E+04 -7.77797E+03  3.30195E+04  2.30961E+04  1.64306E+04  4.38884E+04 -8.22524E+03  4.72672E+04
 -2.97308E+04  3.14103E+04 -3.96301E+04  8.26578E+03 -4.00856E+04 -1.54635E+04 -2.19396E+04 -3.56325E+04
  6.82286E+03 -3.57063E+04  2.97324E+04 -1.34913E+04  2.71996E+04  1.05721E+04  3.35699E+03  1.81526E+04
 -1.30111E+04  7.51553E+03 -9.64415E+03 -7.40139E+03  6.09786E+03 -1.02474E+04  1.74597E+04  6.70216E+03
  1.32711E+04  2.18370E+04 -6.24642E+03  2.47017E+04 -2.20776E+04  1.01319E+04 -2.63841E+04 -5.61097E+03
 -1.80745E+04 -1.66189E+04 -6.47653E+03 -1.83838E+04  3.76724E+03 -1.62089E+04  1.36410E+04 -1.63169E+04
  2.33361E+04 -1.26988E+04  2.98584E+04  1.72079E+03  2.21791E+04  1.75004E+04  4.24370E+03  3.37653E+04
 -1.63050E+04  2.87893E+04 -2.67634E+04  9.97892E+03 -1.99895E+04 -1.03683E+04 -3.94595E+03 -1.40213E+04
  2.03377E+03 -3.34260E+03 -3.59518E+03  5.70739E+03 -1.40941E+04  6.03149E+03 -1.44205E+04 -5.95869E+03
 -9.56526E+03 -1.64265E+04  4.97469E+03 -2.06674E+04  1.33707E+04 -1.44664E+04  1.57345E+04 -1.70398E+03
  1.01745E+04  1.17065E+04 -7.12863E+02  1.67339E+04 -1.09452E+04  9.81473E+03 -1.61354E+04 -3.82836E+03
 -1.26038E+04 -1.50843E+04 -1.40508E+03 -1.98013E+04  8.61290E+03 -1.63959E+04  1.70103E+04 -7.61978E+03
  1.58997E+04  3.70485E+02  1.12624E+04  4.37081E+03  5.49446E+03  3.64771E+02  7.74843E+03 -1.78534E+03
  1.54844E+04  2.65558E+03  1.59639E+04  1.34761E+04  1.03167E+04  2.65861E+04 -3.06402E+03  2.82284E+04
 -1.74345E+04  2.21876E+04 -2.63998E+04  1.06206E+04 -2.72655E+04 -1.98166E+03 -2.31826E+04 -1.55483E+04
 -1.02039E+04 -2.24872E+04  8.21372E+03 -2.07035E+04  1.76242E+04 -1.13532E+04  1.67176E+04  3.76040E+03
  6.88808E+03  1.22521E+04 -8.31964E+03  1.06751E+04 -1.40289E+04  2.24679E+03 -1.05862E+04 -8.38794E+03
 -2.73537E+02 -1.31762E+04  6.57726E+03 -1.03723E+04  9.11154E+03 -1.15763E+03  1.49486E+03  5.90227E+03
 -5.57243E+03  1.85004E+03 -4.50915E+03 -4.80542E+03  5.57186E+02 -1.10858E+04  8.39710E+03 -1.08503E+04
  1.37043E+04 -5.02864E+03  1.32245E+04  3.19164E+03  1.17025E+04  1.01247E+04  5.61688E+03  1.58524E+04
 -1.84538E+03  1.76371E+04 -1.05765E+04  1.14178E+04 -1.21465E+04  3.33717E+03 -9.29755E+03 -2.33286E+03
 -4.26620E+03 -3.73650E+03 -1.02892E+03  1.31386E+03 -2.35848E+03  2.29628E+03 -3.45408E+03  4.16487E+03
 -8.84547E+03  1.31615E+02 -9.49562E+03 -7.59539E+03 -3.77623E+03 -1.16645E+04  3.55586E+03 -9.86785E+03
  7.85814E+03 -3.88982E+03  5.79612E+03  2.86890E+03  7.29194E+02  3.05979E+03 -3.41515E+03  1.62964E+02
 -3.78564E+03 -6.02233E+03 -1.09025E+03 -8.32582E+03  3.91504E+03 -8.73079E+03  1.11699E+04 -4.28790E+03
  1.28973E+04  9.26272E+02  9.51109E+03  7.15348E+03  2.14156E+03  9.69881E+03 -5.80320E+03  8.95004E+03
 -7.36758E+03  3.11695E+03 -3.38204E+03 -1.50471E+03  1.17394E+03 -2.14855E+03  4.74716E+03 -1.22903E+03
  4.89628E+03  3.62323E+03  1.06137E+03  6.74307E+03 -5.31949E+03  6.79645E+03 -8.45116E+03  2.28074E+03
 -5.46706E+03 -3.96656E+03  4.68013E+02 -7.74809E+03  3.94841E+03 -3.80734E+03  4.16423E+03  8.41359E+02
  7.28810E+02  3.65219E+03 -4.16719E+03  5.81210E+03 -5.81542E+03  3.06875E+03 -5.22479E+03 -1.92135E+03
 -2.91702E+03 -6.59680E+03  1.79542E+03 -7.51556E+03  6.21536E+03 -5.39283E+03  7.09675E+03  1.08189E+03
  5.00741E+03  5.44741E+03 -4.23373E+02  7.95732E+03 -5.51708E+03  4.09493E+03 -5.83677E+03 -9.05712E+02
 -6.16584E+03 -4.98210E+03 -1.45709E+03 -5.08050E+03  3.18255E+03 -5.29347E+03  3.31323E+03 -2.35566E+03
  2.90187E+03  1.63284E+02 -3.64854E+02  9.02183E+02  5.15245E+02 -5.21504E+01  2.54123E+02 -2.63147E+03
  3.99019E+03 -1.00131E+03  6.54007E+03  1.29771E+03  5.91577E+03  3.19208E+03  5.42616E+03  8.20893E+03
 -1.68784E+03  9.20795E+03 -9.01618E+03  6.94358E+03 -1.06337E+04  1.36187E+03 -8.95126E+03 -3.32329E+03
 -5.12283E+03 -6.82950E+03 -6.90504E+02 -5.73259E+03  2.04540E+03 -2.87649E+03  2.30922E+03 -2.20799E+03
  1.65786E+03 -1.32262E+03  2.07700E+03 -2.27567E+03  3.84480E+03 -1.27522E+03  3.54712E+03  2.19155E+00
  5.14300E+03  1.20756E+03  1.07890E+03  3.90092E+03 -1.51517E+03  3.15659E+03 -4.74999E+03  2.62292E+03
 -5.25520E+03 -7.50036E+02 -2.54482E+03 -3.88553E+03  2.75509E+02 -5.47130E+03  3.02265E+03 -6.13959E+03
  5.58618E+03 -3.67159E+03  7.53719E+03  9.47965E+02  5.03866E+03  4.98248E+03  1.02454E+03  6.25886E+03
 -2.87180E+03  6.10629E+03 -3.63843E+03  2.40423E+03 -2.01239E+03 -5.85778E+02 -7.37080E+02 -7.82917E+02
 -6.33284E+02  4.90680E+02 -8.30837E+02  1.67749E+03 -2.35573E+03  1.30694E+03 -3.99844E+03 -2.18207E+02
 -1.51374E+03 -4.71505E+03  9.48998E+02 -5.03365E+03  2.89418E+03 -5.12094E+03  3.93541E+03 -1.24254E+03
  4.53806E+03  2.27803E+03  2.31984E+03  4.11216E+03 -6.48727E+02  4.78540E+03 -2.80921E+03  2.53069E+03
 -4.44221E+03  6.92415E+02 -3.76435E+03 -2.73760E+03 -3.07617E+01 -3.90157E+03  1.36420E+03 -2.61183E+03
  3.25331E+03 -1.77371E+03  1.95048E+03  7.01416E+02  5.81263E+02  1.50621E+03  3.61446E+02  1.49513E+02
  1.56546E+03  3.81658E+02  1.62924E+03  6.62875E+02  1.37705E+03  2.56723E+03  1.43608E+03  1.76513E+03
 -1.13576E+03  3.25074E+03 -2.79689E+03  4.60650E+03 -4.12443E+03  1.16093E+03 -5.19826E+03 -7.14716E+02
 -2.17619E+03 -4.03561E+03  4.70297E+02 -5.33438E+03  1.44935E+03 -3.27325E+03  3.71499E+03 -1.10061E+03
  1.72325E+03  1.92359E+03 -1.52062E+02  2.75391E+03 -1.15226E+03  1.57995E+03 -7.48053E+02  1.03477E+01
 -2.89770E+02 -7.39713E+02  1.37537E+03 -1.26893E+03  1.70424E+03 -9.42908E+02  1.90266E+03  2.43116E+01
  9.24506E+02  3.78636E+01  4.46308E+02  1.24014E+01 -4.34862E+02  6.37871E+02  1.36748E+03 -2.53469E+02
 -4.05067E+02  1.51065E+02  2.53238E+03  8.33593E+02  3.07015E+01  2.89551E+03 -1.10553E+02  3.47326E+03
 -1.68522E+03  8.90049E+02 -1.76301E+03  3.74650E+02 -2.76866E+03 -9.06794E+02  4.26846E-01 -1.49648E+03
  7.36441E+02 -1.06691E+03  5.16936E+02 -1.09093E+03  8.20512E+02  1.50625E+03 -7.00559E+02  1.56203E+03
 -1.15049E+03  7.98182E+02 -1.39555E+03 -1.59888E+03 -9.10832E+02 -2.48570E+03  2.38093E+02 -1.88039E+03
  8.43992E+02 -6.23789E+02  1.18117E+03  2.51658E+02  1.45583E+03  1.16898E+02  2.08127E+02  1.64405E+03
 -4.67967E+02  1.66817E+02 -1.20899E+03 -5.60098E+02  5.72564E+02 -7.91490E+02  1.07562E+03 -8.86535E+02
  1.45961E+03  3.68045E+02  2.10109E+03  6.75647E+02  1.20299E+03  1.40124E+03 -4.60023E+02  1.44118E+03
 -1.05865E+03  1.72686E+02 -1.86356E+03 -6.18842E+02 -1.07601E+03 -1.39740E+03 -2.48155E+02 -5.34226E+02
  2.04727E+03 -9.58251E+02  8.73044E+02  6.78034E+02  8.16113E+02  1.55518E+03  6.05227E+02  1.28563E+03
 -8.54893E+02  1.25568E+03 -2.12516E+02  3.65105E+02  3.46233E+02  3.96763E+02 -8.78488E+02  4.19863E+02
 -7.88540E+02  7.90025E+02 -2.11735E+03  3.81362E+02 -2.03811E+03  2.91727E+02 -2.91318E+03 -1.02683E+03
 -1.29483E+03 -2.19238E+03  3.71851E+02 -3.14858E+03  1.21472E+03 -2.63928E+03  2.82937E+03 -1.07121E+03
  2.85217E+03  9.29007E+01  1.46483E+03  1.46089E+03 -1.80932E+02  1.90952E+03 -4.94202E+02  1.76711E+03
 -1.60930E+03  7.24183E+02 -2.36043E+02 -1.94565E+02 -2.31310E+02 -1.21792E+02 -6.46190E+02 -3.91159E+01
 -1.10650E+03  8.86877E+02 -7.71031E+02  7.74263E+02 -4.57992E+02 -4.91075E+02 -1.89197E+02 -8.88869E+02
  1.53203E+03 -3.88777E+02  5.56465E+02  4.11596E+02  1.03314E+03  9.34889E+02 -5.33312E+02  1.15347E+03
 -1.05041E+03  2.87610E+03 -1.63586E+03  1.30623E+03 -2.21791E+03 -2.25457E+02 -1.13447E+03 -6.01316E+02
 -7.19496E+02 -1.97486E+03  2.17716E+02 -1.32712E+03  6.38287E+02 -5.84973E+02  7.41173E+02  1.74018E+02
  6.82700E+02  2.89732E+02  2.41329E+02  7.52001E+02 -4.95939E+02 -4.54431E+02 -3.39388E+02 -3.55101E+01
  5.72214E+02  6.48060E+02  3.40614E+02  4.10047E+02  1.04569E+02  7.90325E+01  5.61191E+02  4.68388E+02
 -5.18902E+02  4.19075E+02 -8.17282E+02  5.74570E+02 -4.82030E+02 -4.19238E+02 -5.23506E+02 -1.57652E+03
  2.17998E+02 -3.85693E+02  7.62458E+02  5.79248E+02  5.04136E+02 -5.91620E+02  9.57693E+02  5.70548E+02
  3.36161E+02  5.89334E+02 -3.20761E+02  7.60957E+02 -3.33893E+02  7.27554E+02 -4.72550E+02 -9.33656E+00
 -1.85972E+02  1.94060E+02 -5.69061E+02  8.40476E+02 -6.12107E+02 -1.03164E+01 -1.25699E+03 -4.85127E+02
 -1.00642E+03  7.40244E+01 -2.30647E+02 -8.51372E+02  8.43627E+02 -1.67381E+03  8.55603E+02 -4.11209E+02
  7.09185E+02  5.97792E+02 -8.20990E+01  4.84710E+02 -4.60826E+02  1.40063E+03 -5.01298E+02  3.85472E+02
