 $NMID ID='MM_0lb_SNR400_19hz_g40_68.RAW', FMTDAT='(8E13.5)'
 TRAMP=1., VOLUME=1. $END
  3.09953E+05  8.17355E+01  3.37188E+05  2.49899E+05  8.40695E+04  3.36785E+05 -1.32353E+05  2.50132E+05
 -1.89813E+05  8.19050E+04 -1.10453E+05 -3.23204E+04  1.99609E+03 -5.03290E+04  5.37574E+04  2.61850E+02
  3.52441E+04  5.23657E+04 -1.75017E+04  7.44903E+04 -5.97765E+04  6.25806E+04 -8.26477E+04  3.12563E+04
 -7.88310E+04 -1.17734E+04 -5.59629E+04 -4.94842E+04 -1.48180E+04 -6.83174E+04  2.66312E+04 -4.42562E+04
  3.86508E+04  4.39532E+03  1.54270E+04  4.66005E+04 -3.36732E+04  4.54339E+04 -6.50968E+04 -1.31966E+02
 -5.10988E+04 -5.55439E+04 -5.65294E+03 -7.43158E+04  3.29616E+04 -5.25398E+04  4.49532E+04 -1.59866E+04
  4.13571E+04  1.09020E+04  3.04625E+04  2.40073E+04  1.56786E+04  2.79717E+04 -4.54681E+03  2.65778E+04
 -2.11532E+04  1.26707E+04 -1.91345E+04 -4.08770E+03  3.77000E+03 -7.72146E+03  2.11168E+04  1.07479E+04
  7.87082E+03  3.32090E+04 -3.02053E+04  3.34479E+04 -6.08082E+04  2.64411E+03 -5.48994E+04 -4.00088E+04
 -1.23542E+04 -6.01483E+04  3.76143E+04 -4.29310E+04  5.46223E+04 -1.80862E+03  3.13082E+04  2.97224E+04
 -6.58413E+03  3.22820E+04 -2.80135E+04  1.26411E+04 -2.70264E+04 -5.12486E+03 -1.41323E+04 -9.54224E+03
 -7.15980E+03 -1.12248E+04 -8.60857E+02 -1.63992E+04  6.29620E+03 -2.28096E+04  1.50552E+04 -1.43829E+04
  1.25162E+04  4.64539E+03 -5.60468E+03  1.34161E+04 -1.86668E+04 -1.20278E+03 -8.02353E+03 -2.91570E+04
  1.98883E+04 -4.00253E+04  4.41498E+04 -1.84403E+04  4.08809E+04  1.78779E+04  1.37153E+04  4.11574E+04
 -1.49750E+04  3.03481E+04 -2.25952E+04  5.35411E+02 -7.69949E+03 -2.56722E+04  2.07652E+04 -3.04817E+04
  3.71135E+04 -7.37577E+03  3.00040E+04  2.24251E+04  1.47453E+04  4.12907E+04 -7.53858E+03  4.36023E+04
 -2.67582E+04  2.87051E+04 -3.61460E+04  8.13237E+03 -3.69042E+04 -1.51173E+04 -2.06488E+04 -3.34841E+04
  6.95011E+03 -3.28501E+04  2.84940E+04 -1.26240E+04  2.64008E+04  1.07652E+04  2.94665E+03  1.70692E+04
 -1.32339E+04  6.55476E+03 -9.48307E+03 -7.73293E+03  5.80695E+03 -9.57137E+03  1.72116E+04  6.77625E+03
  1.18503E+04  2.14280E+04 -7.44572E+03  2.23644E+04 -2.09325E+04  8.26356E+03 -2.45475E+04 -6.52377E+03
 -1.55217E+04 -1.64090E+04 -4.79680E+03 -1.60505E+04  3.63888E+03 -1.31310E+04  1.17474E+04 -1.34701E+04
  1.96925E+04 -1.13766E+04  2.62368E+04  2.70113E+02  2.09687E+04  1.56317E+04  4.05406E+03  3.17766E+04
 -1.58695E+04  2.66862E+04 -2.51061E+04  9.46318E+03 -1.94994E+04 -1.04541E+04 -3.58369E+03 -1.37937E+04
  2.52620E+03 -4.44833E+03 -1.46240E+03  5.24177E+03 -1.17622E+04  5.47350E+03 -1.26147E+04 -3.99657E+03
 -8.35730E+03 -1.51912E+04  4.30510E+03 -1.84811E+04  1.21586E+04 -1.38684E+04  1.40003E+04 -1.16222E+03
  8.50906E+03  1.02666E+04 -3.42165E+02  1.47954E+04 -9.54363E+03  8.18221E+03 -1.41448E+04 -3.24821E+03
 -1.13292E+04 -1.29841E+04 -1.49686E+03 -1.81069E+04  7.92224E+03 -1.45017E+04  1.56850E+04 -6.96579E+03
  1.39967E+04  6.17201E+02  1.00991E+04  3.63714E+03  4.12687E+03  4.69019E+02  6.64379E+03 -1.21420E+03
  1.27699E+04  2.25632E+03  1.35922E+04  1.20553E+04  8.33770E+03  2.32701E+04 -3.39455E+03  2.46531E+04
 -1.50538E+04  1.93173E+04 -2.28544E+04  9.02168E+03 -2.34782E+04 -1.87678E+03 -1.98798E+04 -1.30552E+04
 -9.34760E+03 -1.85846E+04  5.85951E+03 -1.73097E+04  1.56437E+04 -1.02452E+04  1.46545E+04  3.08966E+03
  6.32951E+03  1.04918E+04 -6.50888E+03  9.84194E+03 -1.29884E+04  2.87479E+03 -9.82934E+03 -7.27998E+03
  2.07626E+02 -1.19340E+04  5.86410E+03 -9.09219E+03  7.60211E+03 -1.32066E+03  1.51256E+03  4.66194E+03
 -5.57933E+03  7.75157E+02 -3.09650E+03 -4.27938E+03  9.52461E+02 -9.60478E+03  7.38703E+03 -8.87476E+03
  1.16579E+04 -3.86897E+03  1.10022E+04  2.41989E+03  9.65005E+03  8.48633E+03  4.23366E+03  1.29049E+04
 -1.71834E+03  1.46028E+04 -8.85818E+03  9.50374E+03 -1.06256E+04  2.94094E+03 -7.67149E+03 -1.56250E+03
 -3.96661E+03 -2.75332E+03 -1.10282E+03  1.20546E+03 -1.42047E+03  1.99069E+03 -3.62298E+03  3.13413E+03
 -7.04303E+03 -4.08857E+02 -8.71245E+03 -6.94372E+03 -3.94715E+03 -1.07803E+04  3.03745E+03 -7.70817E+03
  6.87659E+03 -3.79990E+03  4.81998E+03  1.59223E+03  7.69061E+02  2.34899E+03 -2.99878E+03  3.56619E+02
 -3.62761E+03 -5.14308E+03 -9.59364E+02 -6.71289E+03  3.57870E+03 -7.12413E+03  9.01058E+03 -3.15718E+03
  1.10619E+04  3.07564E+02  8.16850E+03  5.81417E+03  1.47354E+03  7.65170E+03 -4.88251E+03  7.40712E+03
 -6.82242E+03  2.55950E+03 -2.90641E+03 -1.20185E+03  1.04162E+03 -1.75860E+03  4.68459E+03 -1.31209E+03
  3.99968E+03  2.95187E+03  7.01993E+02  5.66587E+03 -3.82985E+03  6.26633E+03 -7.17370E+03  2.07077E+03
 -4.24084E+03 -3.45578E+03  2.82699E+02 -6.52958E+03  2.95728E+03 -3.25380E+03  3.05516E+03  7.57739E+02
 -5.34334E+02  2.43045E+03 -3.77586E+03  4.43097E+03 -4.39245E+03  2.62956E+03 -3.80234E+03 -7.92250E+02
 -2.81447E+03 -5.87380E+03  8.93823E+02 -6.25607E+03  5.14706E+03 -4.18146E+03  5.98842E+03  7.07189E+02
  4.36849E+03  4.75109E+03  5.73261E+02  6.59387E+03 -4.63381E+03  3.74526E+03 -4.81801E+03 -2.30267E+02
 -5.01174E+03 -4.91584E+03 -9.59110E+02 -4.87997E+03  2.74848E+03 -3.80773E+03  2.64027E+03 -2.75608E+03
  2.69526E+03  5.13381E+02  2.49946E+02  1.54388E+03  3.73489E+02 -3.30519E+02 -1.12781E+02 -1.13300E+03
  2.82383E+03 -5.95366E+02  4.52806E+03  7.55426E+02  4.92669E+03  2.20084E+03  4.94374E+03  6.23343E+03
 -8.56997E+02  7.31046E+03 -7.10717E+03  5.63296E+03 -8.78836E+03  7.22646E+02 -6.91906E+03 -2.13323E+03
 -4.30584E+03 -5.71721E+03 -5.31398E+02 -4.42625E+03  2.39581E+03 -1.41061E+03  1.44408E+03 -2.02434E+03
  1.44744E+03 -9.84337E+02  2.23571E+03 -2.26747E+03  3.36183E+03 -1.03760E+03  3.04221E+03  1.19875E+03
  4.15302E+03  1.28859E+03  1.11051E+03  3.23209E+03 -1.14345E+03  2.22550E+03 -4.48799E+03  2.09987E+03
 -4.52932E+03 -1.37638E+03 -1.73628E+03 -2.74950E+03  6.07578E+02 -4.42013E+03  2.62889E+03 -5.17639E+03
  4.41063E+03 -2.97383E+03  6.10286E+03  4.13946E+02  4.67670E+03  4.11693E+03  6.66037E+02  5.81914E+03
 -1.74155E+03  5.39016E+03 -3.35947E+03  1.64190E+03 -1.66689E+03 -8.63873E+02 -1.87626E+02 -2.93163E+02
 -3.01538E+02  4.12684E+01 -1.13021E+03  1.74546E+03 -2.15198E+03  6.06527E+02 -3.91342E+03 -6.11842E+01
 -1.17725E+03 -3.54035E+03  6.12810E+02 -4.37506E+03  3.10869E+03 -4.22338E+03  3.59276E+03 -1.59030E+03
  3.77356E+03  1.71109E+03  1.77505E+03  2.40676E+03 -7.12892E+02  4.39725E+03 -2.37728E+03  2.29062E+03
 -3.89535E+03  2.21439E+02 -3.08400E+03 -1.88981E+03  4.05427E+01 -2.79047E+03  1.83509E+03 -2.01445E+03
  2.64918E+03 -1.41225E+03  1.41818E+03  9.69238E+01  6.38067E+02  1.52647E+03  4.82835E+02  1.10365E+03
  1.47684E+03  8.41137E+02  1.45650E+03  1.59664E+03  7.35777E+02  2.33554E+03  1.17033E+03  1.67252E+03
 -6.42002E+02  2.93762E+03 -2.69288E+03  3.88375E+03 -2.65077E+03  1.61584E+03 -3.41574E+03 -1.90599E+02
 -1.09307E+03 -3.44863E+03  4.62758E+02 -4.24124E+03  1.28200E+03 -1.93367E+03  2.16484E+03 -1.00351E+03
  1.88266E+03  1.50491E+03 -1.01005E+02  2.09526E+03 -5.82278E+02  1.17562E+03 -8.78087E+02 -1.57158E+02
 -2.40488E+02 -1.48317E+03  4.82113E+02 -1.51632E+03  1.16298E+03 -9.71658E+02  1.47297E+03  5.09456E+02
  9.43093E+02  1.70141E+02  7.36645E+02 -4.86261E+02 -2.37006E+02  1.00429E+03  1.37700E+03 -2.82374E+02
 -4.69083E+02  6.23665E+00  1.51269E+03  6.25022E+02  3.91482E+02  2.26254E+03 -2.07920E+02  2.68249E+03
 -1.44436E+03  1.28825E+03 -1.76267E+03  1.35432E+02 -2.39225E+03 -9.11479E+01 -5.99890E+02 -4.07056E+02
  7.84727E+02 -7.73705E+02  7.56354E+02 -6.31874E+02  3.10551E+02  1.44248E+03 -5.98131E+02  1.79335E+03
 -1.50491E+03  7.34188E+02 -1.17090E+03 -4.32067E+02 -9.65862E+02 -2.10448E+03  2.07726E+02 -1.15431E+03
  3.28727E+02 -1.56939E+02  7.98329E+02 -5.22985E+01  1.30898E+03  4.89983E+02  2.29056E+02  8.25280E+02
 -3.05707E+02  2.40305E+02 -1.10364E+03  3.44339E+02  7.69461E+02 -3.36436E+02  1.44574E+03 -5.23894E+02
  1.20470E+03  7.26718E+02  2.66593E+03  8.07092E+02  1.16668E+03  1.45318E+03 -1.56195E+02  1.54496E+03
 -1.19321E+03  2.11949E+02 -1.62642E+03 -1.76254E+01 -5.64628E+02 -1.03983E+03  3.34774E+02 -6.50508E+02
  1.55520E+03 -7.00976E+02  5.40836E+02  6.41032E+02 -1.45109E+02  2.01854E+03  4.79697E+02  1.07464E+03
 -2.10464E+01  9.53736E+02 -4.48387E+02  1.27668E+02 -1.60317E+02  4.36778E+02 -5.71771E+02  3.77496E+02
 -3.57585E+02  7.41160E+02 -2.01094E+03  2.07024E+02 -1.53353E+03  3.82620E+02 -2.59311E+03 -6.71884E+02
 -6.20357E+02 -2.10336E+03  4.87688E+02 -2.37919E+03  9.03559E+02 -2.45390E+03  2.53645E+03 -1.09396E+03
  1.88913E+03 -1.61641E+02  8.74593E+02  1.34523E+03 -8.13114E+02  1.44389E+03 -7.14688E+01  4.62366E+02
 -1.16553E+03  8.62836E+02 -8.33696E+02 -8.77075E+02 -7.44581E+02  5.73828E+02 -5.70310E+02  3.12856E+02
 -1.04883E+03 -3.59419E+02 -9.31997E+02  1.41350E+02  2.55437E+02 -4.55091E+02 -4.26483E+02 -1.17800E+03
  9.74963E+02 -2.35559E+02  7.86274E+02  3.35498E+02  7.71248E+02  9.54121E+02 -3.35342E+02  9.76869E+02
 -1.23973E+03  1.94078E+03 -1.22961E+03  1.17794E+03 -1.19961E+03 -3.08132E+02 -1.12651E+03 -1.24132E+03
 -9.73570E+02 -1.35114E+03  2.62225E+01 -8.03967E+02  2.45154E+02 -8.39246E+02  2.00862E+02  3.06285E+02
  5.53541E+02  4.12272E+02 -1.02034E+02  2.51665E+02 -1.30958E+02 -1.74510E+02 -9.04357E+01  4.68061E+02
  3.71350E+02 -6.10539E+01 -2.05153E+02  4.85502E+01 -3.52887E+02  9.50776E+02  2.61251E+02  5.55368E+02
 -2.70726E+02 -6.44029E+01 -2.92870E+02  3.00400E+02 -8.10352E+02  2.29323E+02  7.52798E+01 -1.47359E+03
  5.61048E+02 -5.06048E+02  3.40218E+02  6.98890E+02  4.79383E+02 -7.69322E+02  5.81566E+02  6.35879E+02
  1.57201E+02  6.00767E+02 -2.10384E+02  7.80418E+02 -3.13481E+02  7.54853E+02 -6.56242E+02  4.84164E+01
 -5.14254E+02  4.07803E+01 -3.02767E+02 -1.29410E+02 -3.42468E+02 -9.43054E+01 -7.69089E+02  1.33646E+02
 -1.06331E+03  5.18489E+02 -5.06410E+02 -1.02530E+03  1.60476E+02 -1.02102E+03  8.40852E+02 -1.28640E+02
  2.05326E+02 -1.49863E+02 -1.20637E+02  5.37623E+02 -1.04042E+02  8.51342E+02  4.95402E+02  9.02636E+02
