 $NMID ID='MM_0lb_SNR400_9hz_g60_76.RAW', FMTDAT='(8E13.5)'
 TRAMP=1., VOLUME=1. $END
  3.09655E+05  4.44230E+02  3.37443E+05  2.50757E+05  8.49926E+04  3.37853E+05 -1.32692E+05  2.52065E+05
 -1.90771E+05  8.44869E+04 -1.11921E+05 -3.26047E+04  5.25819E+02 -5.10198E+04  5.38239E+04 -6.15490E+02
  3.56087E+04  5.20840E+04 -1.65411E+04  7.59394E+04 -6.18486E+04  6.48261E+04 -8.52081E+04  3.23615E+04
 -8.29547E+04 -1.18313E+04 -5.81723E+04 -5.27940E+04 -1.58001E+04 -7.22022E+04  2.77506E+04 -4.72764E+04
  4.14423E+04  4.11890E+03  1.64064E+04  4.91178E+04 -3.59299E+04  4.80666E+04 -6.82947E+04 -1.04553E+02
 -5.54991E+04 -5.81973E+04 -7.46093E+03 -7.90152E+04  3.47877E+04 -5.73892E+04  5.04497E+04 -1.85349E+04
  4.66667E+04  1.17252E+04  3.23547E+04  2.58335E+04  1.60628E+04  3.07748E+04 -6.57359E+03  2.78843E+04
 -2.21989E+04  1.20227E+04 -1.78349E+04 -6.16557E+03  7.10785E+03 -7.26643E+03  2.39977E+04  1.40978E+04
  6.83682E+03  3.82904E+04 -3.46119E+04  3.71171E+04 -6.66013E+04  2.28491E+03 -5.96840E+04 -4.59246E+04
 -1.31300E+04 -6.62452E+04  4.23268E+04 -4.78839E+04  6.22473E+04 -1.79579E+03  3.72663E+04  3.39129E+04
 -5.60125E+03  4.11266E+04 -3.20327E+04  1.91480E+04 -3.45136E+04 -3.58849E+03 -1.96063E+04 -1.22258E+04
 -9.75121E+03 -1.51349E+04 -2.06401E+02 -2.02006E+04  8.52913E+03 -2.37911E+04  1.55117E+04 -1.20601E+04
  9.44215E+03  5.78852E+03 -1.01422E+04  1.32482E+04 -2.39446E+04 -6.28779E+03 -9.10821E+03 -3.89790E+04
  2.57807E+04 -4.72539E+04  5.23759E+04 -2.13032E+04  4.96743E+04  2.15481E+04  1.81812E+04  4.81016E+04
 -1.66796E+04  3.65038E+04 -2.84011E+04  2.73275E+03 -1.30309E+04 -2.95946E+04  2.20417E+04 -3.79173E+04
  4.52522E+04 -1.12043E+04  4.08420E+04  2.55308E+04  2.20520E+04  5.23868E+04 -8.20170E+03  5.68512E+04
 -3.71478E+04  3.99147E+04 -4.93497E+04  1.11371E+04 -4.89623E+04 -1.95334E+04 -2.65703E+04 -4.21746E+04
  7.40512E+03 -4.31674E+04  3.51034E+04 -1.75998E+04  3.18176E+04  1.13667E+04  5.43650E+03  2.15440E+04
 -1.33258E+04  1.03313E+04 -1.17557E+04 -7.16281E+03  5.58938E+03 -1.09780E+04  1.96676E+04  6.48219E+03
  1.54940E+04  2.29710E+04 -4.38402E+03  2.78883E+04 -2.34775E+04  1.49490E+04 -3.21457E+04 -2.35737E+03
 -2.66054E+04 -1.88908E+04 -1.15412E+04 -2.61954E+04  4.20441E+03 -2.75676E+04  2.10845E+04 -2.41564E+04
  3.29784E+04 -1.46478E+04  3.98111E+04  5.15526E+03  2.75134E+04  2.52823E+04  5.31859E+03  4.24763E+04
 -2.02053E+04  3.46471E+04 -3.05950E+04  1.19860E+04 -2.25280E+04 -1.10016E+04 -5.47262E+03 -1.28378E+04
  9.76774E+02 -1.41538E+03 -8.38540E+03  8.92740E+03 -2.14237E+04  4.79263E+03 -2.05637E+04 -1.03704E+04
 -1.24984E+04 -2.35656E+04  6.60808E+03 -2.90959E+04  1.93144E+04 -2.03032E+04  2.36614E+04 -1.07174E+03
  1.48621E+04  1.68505E+04 -1.58587E+03  2.38461E+04 -1.76448E+04  1.48790E+04 -2.51870E+04 -4.57613E+03
 -1.84155E+04 -2.21083E+04 -2.11907E+03 -2.79115E+04  1.33250E+04 -2.46485E+04  2.45687E+04 -1.26039E+04
  2.29546E+04 -3.76831E+02  1.63408E+04  5.63600E+03  8.58831E+03  1.97408E+03  1.34363E+04 -2.25195E+03
  2.37801E+04  2.40591E+03  2.67974E+04  1.95363E+04  1.78086E+04  3.91607E+04 -2.35615E+03  4.58346E+04
 -2.55159E+04  4.03801E+04 -4.41365E+04  2.07038E+04 -4.73521E+04 -3.20739E+03 -3.80309E+04 -2.73066E+04
 -1.54656E+04 -3.95164E+04  1.35106E+04 -3.43254E+04  2.91261E+04 -1.56043E+04  2.59465E+04  8.18981E+03
  8.46517E+03  2.02145E+04 -1.21597E+04  1.60290E+04 -2.07309E+04  2.54088E+03 -1.56448E+04 -1.33844E+04
 -1.86840E+02 -1.97643E+04  1.07161E+04 -1.56660E+04  1.40414E+04 -1.42380E+03  3.14715E+03  9.03517E+03
 -8.45608E+03  4.74991E+03 -1.03969E+04 -6.77518E+03 -1.89073E+03 -1.88539E+04  1.26144E+04 -2.06253E+04
  2.45111E+04 -1.23408E+04  2.82073E+04  3.30735E+03  2.43258E+04  1.95717E+04  1.16931E+04  3.03290E+04
 -5.54753E+03  3.26607E+04 -2.15430E+04  2.03167E+04 -2.37170E+04  3.62605E+03 -1.53490E+04 -6.27344E+03
 -6.57458E+03 -7.76779E+03  4.35213E+02  8.34251E+02 -2.43041E+03  3.29874E+03 -6.82601E+03  5.54067E+03
 -1.51394E+04 -1.50099E+03 -1.50330E+04 -1.28048E+04 -6.49562E+03 -2.04355E+04  6.51014E+03 -1.56190E+04
  1.32693E+04 -6.94879E+03  8.99439E+03  5.32126E+03 -1.83393E+01  6.25791E+03 -8.49763E+03 -2.71160E+02
 -7.55302E+03 -1.06209E+04 -1.62915E+03 -1.59672E+04  9.47124E+03 -1.61512E+04  2.10748E+04 -9.18605E+03
  2.56448E+04  2.25184E+03  1.76340E+04  1.56427E+04  2.66794E+03  1.89602E+04 -1.04251E+04  1.70295E+04
 -1.24166E+04  3.93105E+03 -6.79885E+03 -3.22125E+03  2.79736E+03 -5.33936E+03  8.48891E+03 -5.64513E+02
  8.36709E+03  7.39585E+03  1.93452E+03  1.28821E+04 -1.00799E+04  1.28859E+04 -1.64444E+04  2.18453E+03
 -1.27145E+04 -9.12418E+03  1.06807E+03 -1.47212E+04  8.84271E+03 -8.10572E+03  9.62977E+03  3.59722E+03
  2.99735E+03  1.05745E+04 -8.74137E+03  1.24500E+04 -1.44494E+04  4.60194E+03 -1.52795E+04 -6.24128E+03
 -7.18109E+03 -1.78929E+04  4.67463E+03 -1.99296E+04  1.60223E+04 -1.10021E+04  1.76606E+04  3.57933E+03
  1.06597E+04  1.46600E+04 -2.34633E+03  1.64611E+04 -1.25574E+04  9.12548E+03 -1.45541E+04 -1.28536E+03
 -1.14853E+04 -1.05825E+04 -2.01093E+03 -1.30396E+04  7.77488E+03 -1.03012E+04  7.31865E+03 -3.84163E+03
  4.65356E+03  3.27893E+03 -9.97545E+02  2.09765E+03 -1.04500E+03 -3.50566E+03  2.26212E+03 -7.96427E+03
  1.27828E+04 -5.99414E+03  1.72617E+04  1.96467E+03  1.67990E+04  1.28980E+04  1.01552E+04  2.24664E+04
 -5.66392E+03  2.59930E+04 -2.15416E+04  1.87810E+04 -2.82233E+04  3.94334E+03 -2.17925E+04 -9.09629E+03
 -1.12957E+04 -1.85271E+04 -1.88959E+02 -1.54917E+04  4.98901E+03 -9.45719E+03  4.87278E+03 -5.96760E+03
  3.83264E+03 -3.53268E+03  4.79757E+03 -4.12359E+03  6.46310E+03 -4.35169E+03  7.80716E+03 -2.07655E+03
  1.20646E+04  2.20805E+03  6.70277E+03  1.10647E+04 -1.94047E+03  1.21814E+04 -1.18311E+04  9.78695E+03
 -1.58017E+04 -1.28442E+03 -1.07462E+04 -1.02634E+04 -1.27927E+03 -1.74986E+04  9.62531E+03 -1.59798E+04
  1.76764E+04 -9.35740E+03  2.13535E+04  2.88211E+03  1.38121E+04  1.47462E+04  1.76925E+03  1.83414E+04
 -8.28180E+03  1.52882E+04 -1.17665E+04  5.61587E+03 -8.02136E+03 -1.77784E+03 -2.79623E+03 -3.17392E+03
 -1.67901E+03 -7.82588E+02 -2.40543E+03  2.88053E+03 -6.49440E+03  2.42349E+03 -1.22700E+04 -2.18585E+03
 -7.76548E+03 -1.08045E+04 -4.89850E+02 -1.57154E+04  1.08760E+04 -1.43222E+04  1.62822E+04 -4.24250E+03
  1.54021E+04  7.55765E+03  5.71080E+03  1.49599E+04 -3.55238E+03  1.58372E+04 -1.09436E+04  1.02312E+04
 -1.51684E+04 -2.12336E+02 -1.12010E+04 -9.84593E+03 -1.45967E+03 -1.31283E+04  6.79628E+03 -9.54027E+03
  1.03079E+04 -3.24136E+03  7.84502E+03  2.81861E+03  2.79764E+03  4.28505E+03  9.37553E+02  2.25154E+03
  2.99832E+03  1.71658E+03  4.27311E+03  1.79386E+03  5.07312E+03  6.11058E+03  3.37780E+03  9.01217E+03
 -2.64862E+03  1.27197E+04 -1.09673E+04  1.23823E+04 -1.72443E+04  2.58706E+03 -1.73431E+04 -6.76222E+03
 -8.28488E+03 -1.67165E+04  2.40076E+03 -1.75112E+04  1.04038E+04 -1.20069E+04  1.37281E+04 -3.61573E+03
  1.11142E+04  6.00466E+03  2.05879E+03  9.12469E+03 -4.82711E+03  6.09154E+03 -6.56908E+03 -1.00681E+03
 -3.38756E+03 -6.69118E+03  4.09712E+03 -6.30434E+03  6.72141E+03 -3.82818E+03  7.08535E+03  7.47319E+02
  4.30845E+03  2.94246E+03  2.00100E+03  2.78879E+03 -1.65294E+02  2.08848E+03  1.59461E+03 -6.96513E+02
  2.41671E+03 -1.15957E+03  6.05680E+03  3.16030E+03  3.96393E+03  8.45476E+03 -1.16838E+03  1.18474E+04
 -7.53941E+03  7.60716E+03 -1.10869E+04  1.69937E+03 -9.83917E+03 -2.98979E+03 -3.46315E+03 -6.67817E+03
  1.86511E+02 -7.41898E+03  4.14071E+03 -3.56094E+03  3.34681E+03  3.22524E+03 -1.28916E+03  5.55354E+03
 -5.85606E+03  3.37380E+03 -7.86071E+03 -3.96438E+03 -4.71060E+03 -9.39739E+03  1.33324E+03 -8.58561E+03
  6.09687E+03 -5.44954E+03  7.30769E+03 -2.04853E+02  5.46421E+03  2.45691E+03  5.56418E+02  5.28482E+03
 -3.60742E+03  1.88582E+03 -3.91762E+03 -2.40036E+03  1.75493E+03 -7.82653E+03  8.18881E+03 -6.68480E+03
  1.08866E+04  1.08888E+03  1.02414E+04  8.30811E+03  3.30300E+03  1.06454E+04 -3.38508E+03  1.06771E+04
 -9.23102E+03  4.34888E+03 -8.99327E+03 -1.13198E+03 -5.05477E+03 -7.39701E+03  1.44867E+03 -6.77824E+03
  6.69962E+03 -3.14802E+03  6.00038E+03  2.81811E+03  2.00602E+03  6.06933E+03 -1.42597E+03  6.03438E+03
 -2.99897E+03  3.14949E+03 -2.97520E+03  1.10772E+03 -1.37396E+03  1.13644E+03 -1.13928E+03  1.93801E+03
 -3.94478E+03  4.61984E+03 -6.94115E+03  3.03855E+03 -9.92075E+03  1.49495E+02 -1.16928E+04 -7.54376E+03
 -6.81283E+03 -1.36206E+04  3.03074E+03 -1.67937E+04  1.06922E+04 -1.23568E+04  1.61527E+04 -4.24671E+03
  1.38078E+04  3.05003E+03  8.26135E+03  1.00048E+04  1.94899E+03  1.15377E+04 -4.28332E+03  8.19375E+03
 -5.85908E+03  2.60261E+03 -3.70254E+03 -1.65583E+03 -1.18085E+03 -8.20178E+02 -1.12073E+03  5.29039E+02
 -1.28947E+03  3.68328E+02 -1.99217E+03 -9.87693E+02 -1.04679E+03 -2.46842E+03  8.25776E+02 -3.73273E+03
  4.42500E+03 -3.67670E+03  7.10169E+03  4.70201E+01  8.31965E+03  6.93774E+03  3.29467E+03  1.19201E+04
 -5.04598E+03  1.29106E+04 -1.17654E+04  8.39029E+03 -1.42859E+04 -2.23627E+03 -1.06153E+04 -8.85792E+03
 -3.04794E+03 -1.18081E+04  2.86068E+03 -1.16655E+04  7.35581E+03 -5.76733E+03  7.50823E+03  9.59364E+01
  4.61038E+03  3.93985E+03 -5.54219E+02  2.64324E+03 -1.67291E+03 -3.39737E+02 -1.14030E+02 -2.83728E+03
  2.99679E+03 -2.12400E+03  4.52873E+03  1.86957E+03  3.37475E+03  5.14623E+03 -2.60135E+02  5.87596E+03
 -5.07811E+03  5.22557E+03 -7.27698E+03  3.00234E+02 -6.74179E+03 -5.30400E+03 -1.03377E+03 -9.52732E+03
  6.09563E+03 -7.89674E+03  8.97409E+03 -3.02433E+03  8.76103E+03  1.33623E+03  5.00077E+03  7.07943E+03
  6.15714E+02  7.70805E+03 -3.27106E+03  6.39254E+03 -5.17221E+03  3.71126E+03 -4.56082E+03  2.53714E+02
 -1.07237E+03  3.10726E+02 -2.67184E+03  7.62490E+02 -4.49122E+03  4.52630E+02 -5.08784E+03 -9.45230E+02
 -5.36000E+03 -3.63127E+03 -1.40204E+03 -7.92149E+03  3.86870E+03 -8.88298E+03  6.83506E+03 -4.07653E+03
  7.34620E+03  1.26188E+03  4.15181E+03  5.09409E+03 -8.29451E+02  7.47959E+03 -5.10324E+03  5.47025E+03
