 $NMID ID='MM_0lb_SNR400_10hz_g55_90.RAW', FMTDAT='(8E13.5)'
 TRAMP=1., VOLUME=1. $END
  3.10356E+05  1.11554E+03  3.37800E+05  2.51513E+05  8.59255E+04  3.38167E+05 -1.32239E+05  2.51047E+05
 -1.90696E+05  8.32860E+04 -1.12500E+05 -3.26611E+04  1.46829E+02 -5.05271E+04  5.34515E+04  6.44507E+02
  3.57268E+04  5.21207E+04 -1.58955E+04  7.56291E+04 -6.16212E+04  6.50596E+04 -8.54770E+04  3.22737E+04
 -8.20280E+04 -1.17578E+04 -5.84659E+04 -5.21144E+04 -1.49217E+04 -6.98738E+04  2.79309E+04 -4.74754E+04
  4.06851E+04  3.69475E+03  1.68496E+04  4.77024E+04 -3.46569E+04  4.84028E+04 -6.78597E+04  6.19563E+02
 -5.49069E+04 -5.73464E+04 -6.33446E+03 -7.95016E+04  3.46216E+04 -5.68380E+04  4.97576E+04 -1.86623E+04
  4.50118E+04  1.23080E+04  3.26988E+04  2.67594E+04  1.57639E+04  2.96790E+04 -5.90171E+03  2.81805E+04
 -2.20021E+04  1.25486E+04 -1.85200E+04 -5.88232E+03  6.55991E+03 -7.75012E+03  2.33494E+04  1.34861E+04
  7.39775E+03  3.67007E+04 -3.39477E+04  3.66668E+04 -6.59314E+04  2.02150E+03 -5.90231E+04 -4.46590E+04
 -1.28022E+04 -6.47452E+04  4.15327E+04 -4.74136E+04  6.08338E+04 -2.69448E+03  3.64887E+04  3.43297E+04
 -6.19353E+03  3.82309E+04 -3.15627E+04  1.77424E+04 -3.29804E+04 -3.44425E+03 -1.91368E+04 -1.25566E+04
 -9.43582E+03 -1.49829E+04 -8.00652E+01 -1.96329E+04  8.45817E+03 -2.30877E+04  1.56828E+04 -1.27010E+04
  1.01163E+04  6.50960E+03 -9.47524E+03  1.28885E+04 -2.36144E+04 -6.30440E+03 -8.67146E+03 -3.69122E+04
  2.46766E+04 -4.62382E+04  5.16264E+04 -2.06722E+04  4.79937E+04  2.11240E+04  1.77547E+04  4.65361E+04
 -1.74805E+04  3.64246E+04 -2.74803E+04  2.77769E+03 -1.21889E+04 -2.90674E+04  2.14815E+04 -3.72822E+04
  4.41508E+04 -1.09517E+04  4.04375E+04  2.45873E+04  2.15392E+04  5.14101E+04 -8.34034E+03  5.59927E+04
 -3.49560E+04  3.76202E+04 -4.65645E+04  1.15942E+04 -4.72811E+04 -1.78662E+04 -2.55604E+04 -4.13593E+04
  8.12325E+03 -4.15637E+04  3.41349E+04 -1.64124E+04  3.08718E+04  1.09632E+04  4.41526E+03  2.06805E+04
 -1.43459E+04  1.00987E+04 -1.13384E+04 -7.14705E+03  5.17543E+03 -1.14745E+04  1.89978E+04  5.70328E+03
  1.45301E+04  2.33465E+04 -5.78630E+03  2.74956E+04 -2.27601E+04  1.43794E+04 -3.04092E+04 -3.94183E+03
 -2.40743E+04 -1.92814E+04 -1.11961E+04 -2.39199E+04  4.80120E+03 -2.47060E+04  1.95136E+04 -2.29137E+04
  3.06837E+04 -1.35444E+04  3.71250E+04  5.15425E+03  2.70279E+04  2.45727E+04  4.21313E+03  4.07871E+04
 -1.97483E+04  3.36834E+04 -3.01084E+04  1.19566E+04 -2.23734E+04 -1.02819E+04 -4.71606E+03 -1.25758E+04
  1.30956E+03 -1.04396E+03 -6.98941E+03  7.56193E+03 -1.96806E+04  4.89420E+03 -1.91594E+04 -9.36086E+03
 -1.17975E+04 -2.31807E+04  6.14367E+03 -2.65644E+04  1.84396E+04 -2.01106E+04  2.18084E+04 -1.36298E+03
  1.38667E+04  1.52048E+04 -1.32189E+03  2.35704E+04 -1.71312E+04  1.21029E+04 -2.29217E+04 -4.35643E+03
 -1.67526E+04 -2.06264E+04 -2.37401E+03 -2.78787E+04  1.31088E+04 -2.29743E+04  2.30666E+04 -1.17819E+04
  2.07340E+04  1.89118E+02  1.49935E+04  4.09287E+03  8.70546E+03  1.43977E+03  1.18337E+04 -1.74270E+03
  2.15644E+04  3.28110E+03  2.54459E+04  1.89640E+04  1.67460E+04  3.71087E+04 -3.82273E+03  4.27653E+04
 -2.46258E+04  3.66940E+04 -4.07838E+04  1.85792E+04 -4.36656E+04 -3.23379E+03 -3.44551E+04 -2.47139E+04
 -1.38348E+04 -3.59112E+04  1.34092E+04 -3.20762E+04  2.71008E+04 -1.47867E+04  2.37570E+04  7.09829E+03
  8.57225E+03  1.89334E+04 -1.17511E+04  1.45813E+04 -1.94343E+04  3.11643E+03 -1.46510E+04 -1.22551E+04
 -2.62462E+02 -1.89639E+04  9.80837E+03 -1.30590E+04  1.23226E+04 -8.72581E+02  4.07659E+03  8.79357E+03
 -8.55150E+03  3.96760E+03 -9.29965E+03 -5.95981E+03 -1.85486E+03 -1.70712E+04  1.14250E+04 -1.87452E+04
  2.17758E+04 -1.11640E+04  2.52696E+04  3.19167E+03  2.21914E+04  1.70099E+04  1.02746E+04  2.79591E+04
 -5.33447E+03  3.10163E+04 -1.99596E+04  1.79396E+04 -2.13301E+04  3.94482E+03 -1.48469E+04 -5.74622E+03
 -6.12423E+03 -6.56658E+03 -2.43016E+02  1.28426E+02 -2.61943E+03  3.21613E+03 -6.86006E+03  5.83311E+03
 -1.36556E+04 -1.26848E+03 -1.46761E+04 -1.13384E+04 -5.80069E+03 -1.80775E+04  5.82986E+03 -1.51105E+04
  1.28819E+04 -6.23405E+03  8.78581E+03  3.66294E+03 -5.28241E+02  5.97411E+03 -7.81844E+03 -5.04634E+02
 -6.16688E+03 -9.61419E+03 -7.78812E+02 -1.45763E+04  8.49685E+03 -1.59257E+04  1.97220E+04 -8.87424E+03
  2.23397E+04  2.17703E+03  1.66561E+04  1.39562E+04  2.81993E+03  1.73005E+04 -9.13041E+03  1.43646E+04
 -1.16060E+04  4.84897E+03 -6.92220E+03 -3.58326E+03  2.75258E+03 -3.67074E+03  8.19727E+03 -1.21207E+03
  7.14267E+03  7.07082E+03  1.36890E+03  1.18671E+04 -9.07761E+03  1.13583E+04 -1.52580E+04  2.90795E+03
 -9.98196E+03 -8.11409E+03  1.34053E+02 -1.41103E+04  8.37490E+03 -6.62321E+03  9.29393E+03  3.11958E+03
  2.41206E+03  9.83699E+03 -7.86050E+03  1.05219E+04 -1.19128E+04  4.41864E+03 -1.35233E+04 -4.16129E+03
 -7.27709E+03 -1.50455E+04  3.95147E+03 -1.72079E+04  1.50173E+04 -1.00882E+04  1.54964E+04  2.51785E+03
  9.84556E+03  1.30009E+04 -1.13003E+03  1.50736E+04 -1.04760E+04  8.02541E+03 -1.20808E+04 -1.85371E+03
 -1.01096E+04 -1.03989E+04 -1.75933E+03 -1.10932E+04  6.43698E+03 -9.06381E+03  7.34885E+03 -3.82650E+03
  4.92836E+03  1.56855E+03 -1.13136E+03  2.03578E+03 -6.63398E+02 -2.78139E+03  2.97615E+03 -7.71388E+03
  1.11349E+04 -4.38521E+03  1.55592E+04  1.91575E+03  1.44222E+04  1.01156E+04  9.76574E+03  2.00690E+04
 -5.12289E+03  2.29302E+04 -1.87571E+04  1.66823E+04 -2.39504E+04  3.44704E+03 -1.93564E+04 -8.36808E+03
 -9.85754E+03 -1.57315E+04 -3.50004E+02 -1.38070E+04  4.16803E+03 -7.80628E+03  5.09861E+03 -4.31927E+03
  3.45219E+03 -3.52725E+03  3.91698E+03 -3.35951E+03  5.43173E+03 -3.45984E+03  7.76860E+03 -1.21271E+03
  9.60911E+03  2.16249E+03  5.36594E+03  9.03787E+03 -2.43004E+03  1.04645E+04 -1.06605E+04  8.49907E+03
 -1.38720E+04 -1.59022E+03 -8.29363E+03 -9.11736E+03 -9.01946E+02 -1.49321E+04  8.49265E+03 -1.48041E+04
  1.52977E+04 -8.32988E+03  1.86643E+04  2.41658E+03  1.23688E+04  1.25474E+04  1.36845E+03  1.63363E+04
 -7.33996E+03  1.29062E+04 -9.92108E+03  5.29431E+03 -6.63152E+03 -1.94250E+03 -2.41681E+03 -2.00382E+03
 -1.48471E+03  1.11492E+02 -1.79471E+03  2.11562E+03 -5.90470E+03  2.87873E+03 -9.55563E+03 -1.30304E+03
 -6.16285E+03 -9.74530E+03 -7.35484E+01 -1.30465E+04  8.29365E+03 -1.29734E+04  1.33394E+04 -3.85771E+03
  1.36105E+04  7.45006E+03  6.73210E+03  1.25900E+04 -2.35189E+03  1.42605E+04 -9.87357E+03  7.96560E+03
 -1.34784E+04  6.78741E+00 -9.84298E+03 -7.84977E+03 -1.38195E+03 -1.15630E+04  5.86539E+03 -8.50893E+03
  9.12865E+03 -2.70684E+03  5.50341E+03  2.39129E+03  2.61229E+03  4.60839E+03  8.61305E+02  1.82138E+03
  2.88113E+03  1.31773E+03  2.96066E+03  2.19031E+03  3.27040E+03  5.02447E+03  3.43881E+03  6.74182E+03
 -3.05680E+03  1.06379E+04 -9.68922E+03  1.09595E+04 -1.38897E+04  3.10207E+03 -1.51232E+04 -6.04997E+03
 -7.13816E+03 -1.46251E+04  2.45004E+03 -1.55535E+04  8.24167E+03 -9.39158E+03  1.05753E+04 -2.88723E+03
  9.38219E+03  4.97033E+03  1.22404E+03  8.20478E+03 -3.86258E+03  5.18110E+03 -5.51273E+03 -5.97618E+02
 -3.05235E+03 -5.73775E+03  3.44235E+03 -5.30641E+03  5.58504E+03 -3.20419E+03  5.58844E+03  3.99109E+02
  3.03265E+03  2.24201E+03  1.19734E+03  2.53789E+03 -9.59216E+02  1.57267E+03  1.64700E+03 -1.58237E+02
  2.55279E+03 -9.33256E+02  5.17184E+03  2.68964E+03  3.22989E+03  8.04067E+03 -1.68815E+03  9.86438E+03
 -6.67814E+03  5.83683E+03 -8.94678E+03  1.25102E+03 -8.16185E+03 -2.80896E+03 -2.05832E+03 -4.57656E+03
  1.07293E+03 -5.58117E+03  3.52256E+03 -2.57423E+03  3.40949E+03  2.42147E+03 -8.23225E+02  4.10930E+03
 -5.68179E+03  3.55961E+03 -6.48250E+03 -3.44956E+03 -3.36714E+03 -7.46691E+03  1.16298E+03 -7.61984E+03
  5.03405E+03 -3.96543E+03  5.49177E+03  2.11066E+02  4.24372E+03  2.89178E+03  1.22796E+03  4.32148E+03
 -3.02318E+03  1.31710E+03 -3.64942E+03 -2.90130E+03  1.47156E+03 -5.70915E+03  6.52440E+03 -4.68726E+03
  8.61474E+03  9.31595E+02  9.16101E+03  6.10626E+03  2.47055E+03  8.96161E+03 -3.02354E+03  8.34527E+03
 -7.64852E+03  3.91648E+03 -7.44983E+03 -1.25120E+03 -4.05474E+03 -5.83215E+03  1.13528E+03 -5.47575E+03
  5.45521E+03 -2.98989E+03  4.27881E+03  2.21755E+03  1.09727E+03  4.80617E+03 -1.34556E+03  3.98624E+03
 -1.92762E+03  2.80661E+03 -2.30147E+03  4.60798E+02 -6.96969E+02  1.22098E+03 -5.77659E+02  1.89604E+03
 -2.71423E+03  3.04389E+03 -5.63016E+03  3.38932E+03 -8.54068E+03  3.02362E+02 -9.83276E+03 -6.27659E+03
 -5.05281E+03 -1.06924E+04  1.87339E+03 -1.36416E+04  8.54674E+03 -1.10947E+04  1.32837E+04 -4.12513E+03
  1.15823E+04  2.24275E+03  7.63470E+03  8.38776E+03 -9.73362E+01  9.28727E+03 -3.47232E+03  7.67588E+03
 -5.09928E+03  2.06091E+03 -3.35394E+03 -1.05503E+03 -1.25292E+03 -4.29571E+02 -1.13469E+03  1.07171E+02
 -1.67066E+03  4.17464E+02 -1.72230E+03  2.35490E+02  2.80742E+02 -1.12467E+03  3.36929E+02 -3.53556E+03
  4.30503E+03 -3.18003E+03  5.36837E+03 -2.84740E+02  6.36513E+03  4.89864E+03  1.89614E+03  8.44400E+03
 -4.27098E+03  1.09679E+04 -9.11219E+03  6.05219E+03 -1.11558E+04 -8.67873E+02 -7.98071E+03 -6.31858E+03
 -3.51408E+03 -8.97962E+03  2.38228E+03 -8.83642E+03  5.38827E+03 -5.35979E+03  6.16574E+03 -1.82113E+00
  3.28870E+03  3.19590E+03 -7.24478E+02  2.65966E+03 -1.86928E+03  2.48691E+02  9.60911E+02 -1.88602E+03
  3.32053E+03 -9.56232E+02  3.34275E+03  1.29629E+03  2.05957E+03  3.41644E+03  3.25380E+02  4.60265E+03
 -3.84420E+03  3.94385E+03 -6.35066E+03 -3.11086E+02 -5.92595E+03 -4.19476E+03 -1.07040E+03 -8.02519E+03
  4.87520E+03 -7.00404E+03  7.19199E+03 -1.33728E+03  6.91970E+03  1.86801E+03  4.18985E+03  5.62560E+03
  1.22750E+03  5.95368E+03 -2.03513E+03  4.65478E+03 -4.14255E+03  2.81350E+03 -3.35204E+03 -1.52964E+02
 -1.73816E+03  2.70774E+02 -1.27296E+03  9.98972E+02 -2.95481E+03  1.17869E+03 -4.14691E+03 -1.62459E+03
 -4.97912E+03 -2.67721E+03 -1.06183E+03 -5.58397E+03  2.46651E+03 -6.94031E+03  6.70049E+03 -2.94237E+03
  5.61157E+03  8.27172E+02  2.96354E+03  4.15011E+03 -7.28651E+02  6.17739E+03 -4.41959E+03  3.65518E+03
