 $NMID ID='MM_0lb_SNR400_15hz_g50_78.RAW', FMTDAT='(8E13.5)'
 TRAMP=1., VOLUME=1. $END
  3.10095E+05 -2.35976E+02  3.37492E+05  2.50599E+05  8.45623E+04  3.38423E+05 -1.31844E+05  2.50953E+05
 -1.90506E+05  8.25960E+04 -1.11949E+05 -3.28816E+04  1.01014E+03 -5.07828E+04  5.36562E+04 -4.30018E+02
  3.53234E+04  5.29175E+04 -1.67287E+04  7.57434E+04 -6.07165E+04  6.33513E+04 -8.35767E+04  3.15583E+04
 -8.07072E+04 -1.15693E+04 -5.70665E+04 -5.12160E+04 -1.45962E+04 -6.96318E+04  2.70707E+04 -4.57705E+04
  3.99801E+04  4.00465E+03  1.65326E+04  4.77381E+04 -3.43157E+04  4.64743E+04 -6.63070E+04  1.12466E+02
 -5.26543E+04 -5.64328E+04 -6.65142E+03 -7.67396E+04  3.40187E+04 -5.47967E+04  4.80852E+04 -1.68845E+04
  4.23167E+04  1.13666E+04  3.18221E+04  2.50861E+04  1.54885E+04  2.98288E+04 -5.69481E+03  2.74514E+04
 -2.18409E+04  1.20055E+04 -1.88682E+04 -4.63039E+03  5.16760E+03 -7.17588E+03  2.19563E+04  1.15463E+04
  7.02184E+03  3.51062E+04 -3.17888E+04  3.56502E+04 -6.31015E+04  2.60504E+03 -5.67940E+04 -4.25123E+04
 -1.26027E+04 -6.27258E+04  3.90679E+04 -4.53813E+04  5.78382E+04 -1.61760E+03  3.41670E+04  3.18865E+04
 -5.89656E+03  3.56412E+04 -2.97120E+04  1.49808E+04 -2.92274E+04 -4.49681E+03 -1.64763E+04 -1.01817E+04
 -8.32206E+03 -1.27296E+04 -6.06046E+02 -1.80552E+04  6.92963E+03 -2.26025E+04  1.49952E+04 -1.33680E+04
  1.14957E+04  5.39348E+03 -7.87461E+03  1.24189E+04 -2.05986E+04 -4.05910E+03 -8.25047E+03 -3.32371E+04
  2.29293E+04 -4.24287E+04  4.79775E+04 -1.94518E+04  4.42202E+04  1.93271E+04  1.51994E+04  4.38191E+04
 -1.59938E+04  3.34237E+04 -2.49491E+04  1.97360E+03 -9.31212E+03 -2.69517E+04  2.08045E+04 -3.29093E+04
  4.00801E+04 -8.02849E+03  3.46778E+04  2.32511E+04  1.71611E+04  4.53145E+04 -8.09006E+03  4.93257E+04
 -3.07995E+04  3.35520E+04 -4.12814E+04  8.98583E+03 -4.16824E+04 -1.65863E+04 -2.30583E+04 -3.74557E+04
  7.14854E+03 -3.70988E+04  3.12313E+04 -1.39404E+04  2.84668E+04  1.15390E+04  3.52509E+03  1.90155E+04
 -1.39644E+04  8.30060E+03 -1.03277E+04 -7.79442E+03  5.68968E+03 -1.02681E+04  1.77795E+04  6.65593E+03
  1.32673E+04  2.17850E+04 -6.12513E+03  2.41886E+04 -2.21919E+04  1.16285E+04 -2.74726E+04 -4.60694E+03
 -1.97895E+04 -1.71801E+04 -8.10911E+03 -1.98607E+04  3.78063E+03 -1.83879E+04  1.56539E+04 -1.74255E+04
  2.52493E+04 -1.22673E+04  3.13700E+04  2.67373E+03  2.28022E+04  1.94487E+04  4.13467E+03  3.59445E+04
 -1.75151E+04  2.98614E+04 -2.77861E+04  1.04345E+04 -2.07610E+04 -1.05189E+04 -4.64207E+03 -1.42081E+04
  1.86226E+03 -2.53768E+03 -4.66155E+03  6.31694E+03 -1.58330E+04  5.14017E+03 -1.57860E+04 -6.99342E+03
 -9.62665E+03 -1.88902E+04  5.13502E+03 -2.21796E+04  1.48872E+04 -1.59394E+04  1.72624E+04 -1.81490E+03
  1.08433E+04  1.20681E+04 -9.46459E+02  1.82066E+04 -1.23550E+04  1.03331E+04 -1.85128E+04 -3.82303E+03
 -1.33490E+04 -1.68015E+04 -2.10509E+03 -2.21148E+04  1.01943E+04 -1.80095E+04  1.78334E+04 -9.34293E+03
  1.68413E+04  6.38434E+02  1.26086E+04  4.00774E+03  6.53463E+03  4.81553E+02  9.18494E+03 -1.14435E+03
  1.69695E+04  2.72270E+03  1.79276E+04  1.49301E+04  1.24588E+04  2.90022E+04 -2.83910E+03  3.26281E+04
 -1.91780E+04  2.67124E+04 -3.02254E+04  1.34504E+04 -3.13814E+04 -2.70081E+03 -2.68708E+04 -1.78476E+04
 -1.16461E+04 -2.58947E+04  9.40982E+03 -2.37749E+04  2.05281E+04 -1.28965E+04  1.86836E+04  4.81288E+03
  7.82059E+03  1.38055E+04 -8.88756E+03  1.18144E+04 -1.58133E+04  2.20111E+03 -1.21025E+04 -9.55555E+03
  4.96216E+02 -1.50077E+04  7.37333E+03 -1.10837E+04  9.80903E+03 -1.05722E+03  2.31724E+03  6.34870E+03
 -6.70151E+03  2.65781E+03 -5.52679E+03 -5.20024E+03 -1.43605E+02 -1.26536E+04  8.98025E+03 -1.32121E+04
  1.56682E+04 -6.75749E+03  1.69934E+04  3.43413E+03  1.39612E+04  1.23601E+04  7.00705E+03  1.88701E+04
 -2.03234E+03  2.05488E+04 -1.25907E+04  1.30348E+04 -1.50262E+04  3.21700E+03 -1.08901E+04 -2.96543E+03
 -5.22269E+03 -5.12003E+03 -9.74751E+02  1.00241E+03 -2.61967E+03  2.39928E+03 -4.08261E+03  4.21037E+03
 -1.00581E+04 -6.77834E+02 -1.03159E+04 -8.81327E+03 -4.55592E+03 -1.44951E+04  4.44877E+03 -1.14784E+04
  8.84946E+03 -4.58962E+03  6.47957E+03  2.82708E+03  6.61227E+01  4.63260E+03 -4.74161E+03 -1.82751E+02
 -5.03250E+03 -6.89273E+03 -3.57091E+02 -1.00653E+04  5.54741E+03 -1.04421E+04  1.27008E+04 -5.76859E+03
  1.51867E+04  1.38520E+03  1.14365E+04  8.61024E+03  2.67660E+03  1.21517E+04 -6.48970E+03  1.07785E+04
 -8.45487E+03  2.98540E+03 -4.44973E+03 -1.51436E+03  1.61660E+03 -2.70563E+03  6.13406E+03 -1.17768E+03
  5.65033E+03  4.38185E+03  6.37885E+02  8.39963E+03 -5.53069E+03  8.30273E+03 -1.01211E+04  2.64353E+03
 -6.18202E+03 -4.89583E+03  1.63465E+02 -8.70981E+03  5.38016E+03 -4.34428E+03  5.58757E+03  2.04743E+03
  1.42937E+03  5.79989E+03 -5.52561E+03  7.04029E+03 -7.48466E+03  3.12686E+03 -6.86236E+03 -2.47972E+03
 -4.62566E+03 -8.77497E+03  2.53105E+03 -1.05478E+04  8.94026E+03 -6.41331E+03  9.31601E+03  1.50065E+03
  6.70741E+03  7.96898E+03 -6.48088E+02  9.86170E+03 -7.55974E+03  5.47000E+03 -8.52790E+03 -7.82877E+02
 -7.32585E+03 -7.15421E+03 -1.81592E+03 -7.37288E+03  3.86462E+03 -5.74424E+03  4.43299E+03 -3.17367E+03
  3.87457E+03  8.38800E+02 -1.56855E+02  1.20242E+03  1.47757E+02 -1.45512E+03  7.25863E+02 -3.70627E+03
  6.37058E+03 -1.84727E+03  8.53501E+03  1.27928E+02  8.68907E+03  5.37787E+03  6.70038E+03  1.09692E+04
 -2.39499E+03  1.26289E+04 -1.15013E+04  1.01076E+04 -1.45947E+04  1.69478E+03 -1.15659E+04 -4.26558E+03
 -5.50540E+03 -9.26094E+03 -4.81852E+02 -7.96197E+03  2.97736E+03 -3.87464E+03  2.69333E+03 -2.60271E+03
  2.40719E+03 -1.84857E+03  2.80733E+03 -2.31313E+03  4.65542E+03 -2.16278E+03  5.12820E+03 -4.87270E+02
  6.39660E+03  1.18453E+03  2.63685E+03  4.99098E+03 -1.34151E+03  5.29743E+03 -7.25444E+03  4.80336E+03
 -7.51924E+03 -1.19683E+03 -3.90378E+03 -5.00476E+03  2.92466E+02 -8.31565E+03  4.65513E+03 -8.28716E+03
  8.13865E+03 -4.71494E+03  9.76266E+03  1.32989E+03  7.09424E+03  6.87916E+03  1.01937E+03  8.56105E+03
 -2.99340E+03  8.14733E+03 -5.05768E+03  2.90844E+03 -3.35329E+03 -1.26249E+03 -9.75706E+02 -1.23496E+03
 -9.21600E+02  6.04000E+02 -1.11184E+03  2.21504E+03 -3.15621E+03  1.17896E+03 -5.67675E+03 -6.42417E+01
 -2.97138E+03 -5.58186E+03  2.68659E+02 -7.83200E+03  4.07298E+03 -6.28697E+03  6.22905E+03 -2.02217E+03
  6.51656E+03  3.64049E+03  3.14178E+03  5.52725E+03 -1.17293E+03  6.93245E+03 -4.25131E+03  4.74110E+03
 -6.41988E+03  1.70025E+02 -5.08878E+03 -4.27882E+03 -3.20374E+02 -5.44882E+03  2.57332E+03 -3.52995E+03
  4.16369E+03 -1.75855E+03  3.29311E+03  5.45218E+02  1.10370E+03  2.57882E+03  1.10769E+03  8.53374E+02
  2.04740E+03  5.09324E+02  1.97619E+03  1.21387E+03  1.29936E+03  2.50813E+03  1.55266E+03  3.23516E+03
 -1.31186E+03  4.96589E+03 -4.60059E+03  5.79034E+03 -5.93334E+03  1.82315E+03 -6.73784E+03 -1.72758E+03
 -2.85509E+03 -5.47828E+03  8.05903E+02 -7.62803E+03  3.66618E+03 -4.69189E+03  5.41587E+03 -1.99933E+03
  4.60182E+03  3.41652E+03  1.43658E+03  3.68666E+03 -1.93447E+03  2.31876E+03 -2.32493E+03 -6.03914E+02
 -2.14351E+03 -2.75456E+03  1.81646E+03 -2.71429E+03  2.85396E+03 -1.55356E+03  2.34076E+03  7.53573E+02
  2.17601E+03  7.80185E+02  7.44658E+02  2.52160E+02 -6.15116E+02  1.61932E+03  1.69288E+03 -1.81437E+02
  6.53391E+02 -2.23420E+02  3.06435E+03  1.21398E+03  1.48006E+03  4.17183E+03 -4.14954E+02  4.47804E+03
 -2.72851E+03  2.93249E+03 -4.17902E+03  7.43989E+02 -3.46471E+03 -1.02031E+03 -1.52764E+03 -2.05360E+03
  2.05424E+02 -2.48055E+03  1.39108E+03 -6.54150E+02  1.36519E+03  1.73868E+03 -1.24694E+03  2.54169E+03
 -2.32951E+03  8.63935E+02 -2.65916E+03 -2.04760E+03 -1.76663E+03 -3.35177E+03  7.96377E+02 -3.35628E+03
  1.58529E+03 -2.12346E+03  2.05736E+03  2.53263E+02  1.77910E+03  6.95680E+02  8.04054E+02  2.32767E+03
 -1.18470E+03 -7.31402E+01 -1.51640E+03 -7.61385E+02  1.15192E+03 -2.31501E+03  3.44130E+03 -2.32881E+03
  3.35337E+03  5.75113E+02  3.81786E+03  1.72500E+03  1.74013E+03  3.23425E+03 -8.33978E+02  3.27865E+03
 -3.14645E+03  7.18592E+02 -2.64834E+03 -6.27727E+02 -1.68630E+03 -2.48670E+03  7.74230E+02 -1.61794E+03
  2.71016E+03 -1.73299E+03  1.54312E+03  1.39801E+03  2.70310E+02  1.87246E+03  6.56835E+01  1.54868E+03
 -7.90073E+02  1.32553E+03 -4.96460E+02  3.71951E+02 -9.17631E+02  8.26979E+02 -9.63640E+02  6.82896E+02
 -7.29710E+02  1.68296E+03 -2.44613E+03  9.52902E+02 -3.28585E+03 -1.34470E+02 -3.97680E+03 -2.34364E+03
 -2.14251E+03 -4.59730E+03  6.67352E+02 -5.15112E+03  2.61978E+03 -4.05940E+03  5.11710E+03 -1.90017E+03
  4.46898E+03  7.64475E+02  2.68475E+03  2.80479E+03 -2.88114E+02  3.04335E+03 -2.13675E+03  2.41901E+03
 -2.17173E+03  6.07052E+02 -9.10553E+02  1.19178E+02 -3.66339E+02 -2.14651E+02 -7.79278E+02 -1.63727E+02
 -1.62486E+03  7.96708E+01 -9.47626E+02 -3.59062E+02  2.03056E+02 -9.96749E+02 -3.21624E+02 -1.18500E+03
  1.94907E+03 -6.73202E+02  2.13228E+03  1.35947E+02  2.37172E+03  1.76670E+03  1.64651E+02  3.23503E+03
 -1.75875E+03  3.87384E+03 -3.08257E+03  2.09893E+03 -3.50586E+03 -7.20126E+01 -2.39628E+03 -2.17634E+03
 -1.33448E+03 -2.80062E+03  3.07739E+02 -3.66545E+03  2.25419E+03 -1.76625E+03  1.66018E+03  4.04849E+02
  1.15055E+03  6.06833E+02 -7.49439E+01  8.78538E+02 -9.62380E+02 -2.23864E+02 -5.15912E+02 -4.16117E+02
  1.03130E+03 -5.07212E+02  4.42993E+02  1.79016E+02  8.58029E+02  1.30096E+03  1.40704E+00  1.25060E+03
 -1.13431E+03  1.67215E+03 -1.69442E+03  4.56615E+01 -1.72679E+03 -1.56651E+03  7.35755E+00 -2.71333E+03
  4.79109E+02 -1.95566E+03  1.98025E+03 -1.70061E+02  2.01275E+03 -2.00950E+02  8.56153E+02  1.84103E+03
  7.65542E+02  1.85853E+03 -7.37252E+02  1.30441E+03 -6.49786E+02  1.95092E+03 -1.39791E+03 -1.67552E+02
 -8.06031E+02 -2.58690E+02  1.20921E+02  6.54242E+02 -1.30105E+03  8.97478E+02 -1.50693E+03  6.20518E+01
 -2.19836E+03 -5.49738E+02 -8.64102E+02 -1.94812E+03  8.54636E+02 -2.00243E+03  1.98267E+03 -6.50853E+02
  2.43352E+03  2.95092E+02  6.88335E+02  9.91562E+02 -5.49340E+02  1.86744E+03 -1.51434E+03  1.69803E+03
