 $NMID ID='MM_0lb_SNR400_9hz_g60_58.RAW', FMTDAT='(8E13.5)'
 TRAMP=1., VOLUME=1. $END
  3.09942E+05  4.39627E+02  3.37969E+05  2.50851E+05  8.51358E+04  3.39123E+05 -1.33117E+05  2.52691E+05
 -1.90677E+05  8.39981E+04 -1.13442E+05 -3.25016E+04 -7.50706E+02 -5.11141E+04  5.31540E+04 -7.55794E+02
  3.54142E+04  5.30803E+04 -1.60387E+04  7.57743E+04 -6.14653E+04  6.47431E+04 -8.58027E+04  3.18829E+04
 -8.36087E+04 -1.22836E+04 -5.86086E+04 -5.24427E+04 -1.53728E+04 -7.06740E+04  2.78644E+04 -4.78906E+04
  4.14524E+04  3.64101E+03  1.77375E+04  4.88260E+04 -3.49228E+04  4.85911E+04 -6.89840E+04  5.83870E+02
 -5.51027E+04 -5.81448E+04 -6.51442E+03 -8.01342E+04  3.57362E+04 -5.78298E+04  5.01412E+04 -1.75918E+04
  4.63092E+04  1.16090E+04  3.27018E+04  2.65414E+04  1.54282E+04  3.13929E+04 -5.59929E+03  2.81716E+04
 -2.23372E+04  1.24403E+04 -1.80536E+04 -6.06688E+03  6.60749E+03 -6.27061E+03  2.43898E+04  1.46743E+04
  6.64050E+03  3.73484E+04 -3.48498E+04  3.75816E+04 -6.56536E+04  2.17038E+03 -5.88548E+04 -4.48992E+04
 -1.28204E+04 -6.70765E+04  4.23498E+04 -4.76858E+04  6.28027E+04 -1.65873E+03  3.74920E+04  3.48052E+04
 -5.05260E+03  3.88724E+04 -3.19282E+04  1.91487E+04 -3.49725E+04 -3.27110E+03 -1.95681E+04 -1.28837E+04
 -9.80035E+03 -1.57281E+04 -1.38291E+03 -2.08842E+04  7.70884E+03 -2.38425E+04  1.68441E+04 -1.25616E+04
  1.04351E+04  5.65471E+03 -1.06559E+04  1.26538E+04 -2.30120E+04 -7.60000E+03 -8.38795E+03 -3.80824E+04
  2.60930E+04 -4.75626E+04  5.29294E+04 -2.14345E+04  4.92448E+04  2.12020E+04  1.70396E+04  4.76758E+04
 -1.76367E+04  3.67330E+04 -2.75220E+04  2.74286E+03 -1.23412E+04 -2.96024E+04  2.13597E+04 -3.73050E+04
  4.57411E+04 -1.23374E+04  4.13719E+04  2.51399E+04  2.16960E+04  5.20762E+04 -8.67181E+03  5.75795E+04
 -3.61275E+04  3.89053E+04 -4.83279E+04  1.13908E+04 -4.83087E+04 -1.93243E+04 -2.73313E+04 -4.32352E+04
  7.93074E+03 -4.33275E+04  3.49487E+04 -1.81370E+04  3.31934E+04  1.14066E+04  5.72121E+03  2.20233E+04
 -1.39102E+04  1.02988E+04 -1.08731E+04 -7.68045E+03  5.90801E+03 -1.18375E+04  1.94348E+04  5.44322E+03
  1.50681E+04  2.22642E+04 -4.47986E+03  2.79290E+04 -2.44163E+04  1.53726E+04 -3.26323E+04 -2.77948E+03
 -2.60819E+04 -1.88190E+04 -1.26188E+04 -2.52294E+04  4.33419E+03 -2.75251E+04  1.99835E+04 -2.39051E+04
  3.33547E+04 -1.46204E+04  3.95106E+04  5.49088E+03  2.79413E+04  2.58472E+04  4.47405E+03  4.20760E+04
 -2.03836E+04  3.49639E+04 -3.03453E+04  1.25316E+04 -2.33190E+04 -1.10093E+04 -4.81132E+03 -1.24781E+04
  2.96555E+02 -1.87969E+03 -7.81040E+03  9.15278E+03 -2.10762E+04  4.48012E+03 -2.16911E+04 -1.02936E+04
 -1.23417E+04 -2.43286E+04  7.19227E+03 -2.95581E+04  1.89971E+04 -2.05058E+04  2.33391E+04 -2.39377E+03
  1.44495E+04  1.73078E+04 -1.70441E+03  2.48958E+04 -1.75253E+04  1.44545E+04 -2.53629E+04 -5.56304E+03
 -1.82144E+04 -2.21781E+04 -2.52666E+03 -2.89363E+04  1.36850E+04 -2.46082E+04  2.40173E+04 -1.25286E+04
  2.32038E+04 -1.12135E+03  1.64715E+04  6.24210E+03  9.12984E+03  2.40210E+03  1.20447E+04 -1.91165E+03
  2.35382E+04  2.75003E+03  2.71519E+04  1.97918E+04  1.91174E+04  3.99837E+04 -2.46157E+03  4.65887E+04
 -2.61499E+04  3.87127E+04 -4.42586E+04  2.05749E+04 -4.63905E+04 -3.92902E+03 -3.85518E+04 -2.85401E+04
 -1.41385E+04 -3.83047E+04  1.36929E+04 -3.37115E+04  3.08306E+04 -1.60525E+04  2.46884E+04  8.08445E+03
  8.27404E+03  1.95553E+04 -1.28577E+04  1.59157E+04 -2.07624E+04  2.41537E+03 -1.61316E+04 -1.27204E+04
 -6.68403E+02 -2.02398E+04  1.13522E+04 -1.50453E+04  1.47519E+04 -1.49101E+03  3.07033E+03  9.28712E+03
 -9.18032E+03  4.72590E+03 -9.75783E+03 -6.75017E+03 -1.85165E+03 -1.93750E+04  1.27603E+04 -2.09440E+04
  2.41285E+04 -1.27145E+04  2.80056E+04  3.56253E+03  2.52530E+04  1.88613E+04  1.13317E+04  3.01329E+04
 -6.02111E+03  3.34685E+04 -2.12952E+04  2.04026E+04 -2.40350E+04  4.40218E+03 -1.63829E+04 -5.92557E+03
 -6.51084E+03 -7.65280E+03 -7.42693E+02  1.02382E+03 -2.91400E+03  4.00901E+03 -8.33574E+03  6.03693E+03
 -1.42886E+04 -1.03912E+03 -1.62165E+04 -1.18449E+04 -5.98564E+03 -2.05645E+04  7.46237E+03 -1.68684E+04
  1.38818E+04 -6.71043E+03  9.42753E+03  3.39230E+03 -1.01238E+03  5.66491E+03 -8.66748E+03  7.69990E+02
 -9.08812E+03 -1.02977E+04 -5.67870E+02 -1.60248E+04  9.98779E+03 -1.76455E+04  2.05450E+04 -9.57666E+03
  2.50491E+04  2.34914E+03  1.90175E+04  1.59108E+04  4.19276E+03  2.04758E+04 -1.08284E+04  1.67151E+04
 -1.29448E+04  5.30821E+03 -6.29542E+03 -4.11078E+03  2.11859E+03 -5.14790E+03  8.45512E+03 -1.55497E+03
  8.95501E+03  7.41776E+03  5.81339E+02  1.37231E+04 -8.77724E+03  1.26959E+04 -1.61552E+04  2.68937E+03
 -1.16485E+04 -8.84979E+03  3.59313E+02 -1.50149E+04  9.07168E+03 -7.50559E+03  9.72462E+03  3.25786E+03
  2.73485E+03  1.02616E+04 -9.04174E+03  1.15642E+04 -1.50951E+04  5.58814E+03 -1.53778E+04 -5.40474E+03
 -9.44848E+03 -1.69385E+04  5.64193E+03 -2.03913E+04  1.67765E+04 -1.13736E+04  1.87249E+04  3.20051E+03
  1.07546E+04  1.40581E+04 -1.69593E+03  1.69250E+04 -1.23661E+04  9.84058E+03 -1.42549E+04 -1.78882E+03
 -1.08785E+04 -1.10156E+04 -1.90255E+03 -1.21449E+04  7.31763E+03 -9.51394E+03  8.48039E+03 -3.74865E+03
  5.67262E+03  3.37871E+03 -1.17153E+03  2.01276E+03 -9.09610E+02 -4.16730E+03  3.33230E+03 -9.12857E+03
  1.21952E+04 -4.55563E+03  1.76202E+04  1.83103E+03  1.59431E+04  1.15562E+04  1.02861E+04  2.30401E+04
 -5.90265E+03  2.56820E+04 -2.08269E+04  1.94006E+04 -2.81392E+04  3.67376E+03 -2.19322E+04 -1.08379E+04
 -1.11947E+04 -1.80698E+04 -6.60916E+02 -1.58455E+04  5.76490E+03 -8.18631E+03  5.40892E+03 -5.99598E+03
  4.64881E+03 -3.91022E+03  4.45131E+03 -3.89283E+03  5.54918E+03 -3.71035E+03  8.50645E+03 -1.41056E+03
  1.11748E+04  3.20596E+03  6.16063E+03  9.64739E+03 -1.85131E+03  1.26181E+04 -1.36911E+04  9.76637E+03
 -1.55503E+04 -1.56348E+03 -1.01198E+04 -1.09886E+04 -1.15704E+03 -1.75128E+04  9.82928E+03 -1.64324E+04
  1.74773E+04 -9.36450E+03  2.15994E+04  1.85712E+03  1.44056E+04  1.54861E+04  2.31472E+03  1.95102E+04
 -7.86096E+03  1.51306E+04 -1.09384E+04  6.14514E+03 -7.69773E+03 -2.34956E+03 -3.55151E+03 -1.73827E+03
 -9.78175E+02  4.94814E+02 -2.54752E+03  2.85192E+03 -6.47259E+03  2.33335E+03 -1.04120E+04 -2.01911E+03
 -8.86004E+03 -1.14376E+04 -7.48629E+02 -1.51660E+04  9.95978E+03 -1.49267E+04  1.56851E+04 -4.70197E+03
  1.69191E+04  7.42476E+03  7.85964E+03  1.44493E+04 -3.05973E+03  1.69547E+04 -1.21092E+04  9.19248E+03
 -1.47034E+04  3.67222E+02 -1.21351E+04 -1.08882E+04 -1.13326E+03 -1.38885E+04  7.26831E+03 -1.03943E+04
  1.10622E+04 -2.66957E+03  7.16873E+03  2.30934E+03  2.49025E+03  4.34435E+03  1.72342E+03  2.63776E+03
  2.99278E+03  1.41811E+03  4.47367E+03  2.03828E+03  4.85874E+03  5.10788E+03  4.22510E+03  8.47184E+03
 -3.39014E+03  1.21052E+04 -1.10547E+04  1.20754E+04 -1.66570E+04  3.82060E+03 -1.71969E+04 -6.73708E+03
 -8.16638E+03 -1.62674E+04  2.43298E+03 -1.92273E+04  1.12941E+04 -1.05708E+04  1.37424E+04 -3.50024E+03
  1.05905E+04  6.06272E+03  1.88799E+03  9.67667E+03 -4.62768E+03  5.83873E+03 -7.21608E+03 -1.87181E+03
 -2.97681E+03 -7.42487E+03  3.31949E+03 -6.47558E+03  6.78475E+03 -3.62951E+03  6.59970E+03  1.06510E+03
  4.08890E+03  2.89615E+03  1.02836E+03  3.69750E+03 -8.67956E+02  1.57394E+03  2.17568E+03  3.48525E+02
  2.83348E+03 -6.80301E+02  6.43034E+03  2.54404E+03  3.47466E+03  8.69921E+03 -1.41848E+03  1.23011E+04
 -8.25410E+03  7.84831E+03 -1.12148E+04  1.79713E+03 -9.72208E+03 -3.77266E+03 -4.48423E+03 -5.86046E+03
  1.21790E+03 -7.29850E+03  4.15676E+03 -3.54321E+03  3.22642E+03  2.93665E+03 -9.11524E+02  5.63297E+03
 -6.29096E+03  2.81381E+03 -7.16056E+03 -3.33419E+03 -4.57812E+03 -8.24311E+03  1.18391E+03 -8.48791E+03
  5.34677E+03 -4.95909E+03  6.62749E+03 -1.22272E+03  5.36471E+03  2.45692E+03  4.72329E+02  5.09030E+03
 -3.20054E+03  1.94438E+03 -3.78155E+03 -3.67285E+03  1.87284E+03 -7.29933E+03  8.05570E+03 -6.08050E+03
  1.03774E+04  7.47690E+02  1.03451E+04  7.57838E+03  3.19241E+03  1.17161E+04 -3.96474E+03  1.07064E+04
 -9.23420E+03  4.82998E+03 -9.35692E+03 -1.53398E+03 -5.18767E+03 -7.65991E+03  1.86573E+03 -7.66429E+03
  7.21705E+03 -3.07675E+03  5.92920E+03  3.03041E+03  1.13339E+03  5.42194E+03 -1.00001E+03  4.43856E+03
 -2.76106E+03  4.16277E+03 -2.90681E+03  1.65348E+03 -9.28843E+02  1.19136E+03 -2.29124E+03  2.25531E+03
 -2.56924E+03  4.13855E+03 -7.84990E+03  3.31230E+03 -1.08815E+04  7.16200E+02 -1.13473E+04 -7.34136E+03
 -6.23293E+03 -1.49507E+04  2.80059E+03 -1.61962E+04  1.04954E+04 -1.29978E+04  1.50081E+04 -4.72121E+03
  1.45146E+04  3.40068E+03  9.14405E+03  1.03754E+04  1.45662E+02  1.08645E+04 -5.10574E+03  7.90191E+03
 -6.10750E+03  3.49346E+03 -3.03537E+03 -1.50871E+03 -1.68740E+03 -1.69432E+03 -9.49118E+02 -2.42718E+02
 -1.86543E+03 -4.18133E+02 -2.98576E+03 -3.91704E+02 -1.49807E+03 -3.50516E+03  5.04955E+02 -3.71736E+03
  5.38090E+03 -2.33817E+03  6.86770E+03  4.90579E+02  7.15530E+03  5.87206E+03  2.32761E+03  1.18337E+04
 -5.17991E+03  1.35113E+04 -1.28682E+04  8.63412E+03 -1.37086E+04 -1.35616E+03 -1.02321E+04 -8.51988E+03
 -4.31085E+03 -1.13308E+04  3.03851E+03 -1.11168E+04  7.32192E+03 -5.56253E+03  6.79224E+03  1.73459E+01
  4.18955E+03  3.53884E+03 -7.35155E+02  3.61856E+03 -2.00802E+03  5.51053E+02 -5.11456E+02 -1.59393E+03
  3.13934E+03 -1.09730E+03  3.45181E+03  8.39922E+02  3.00106E+03  5.18903E+03  3.82537E+02  6.14198E+03
 -4.76766E+03  5.41253E+03 -7.17365E+03  7.03408E+02 -7.04502E+03 -5.59586E+03 -5.22384E+02 -9.68447E+03
  5.91877E+03 -7.12779E+03  9.04631E+03 -3.23869E+03  8.58545E+03  2.20280E+03  5.17820E+03  7.53006E+03
  1.54088E+03  7.92354E+03 -3.17923E+03  6.64394E+03 -5.41328E+03  3.36321E+03 -4.02980E+03  7.63627E+02
 -2.01072E+03 -1.10588E+02 -2.45341E+03  2.35167E+03 -3.88785E+03  1.83530E+03 -5.63626E+03 -1.18103E+03
 -4.97366E+03 -4.59273E+03 -1.70002E+03 -7.28181E+03  2.67738E+03 -7.71215E+03  6.97386E+03 -4.91220E+03
  7.43787E+03  1.68921E+03  4.64603E+03  5.76926E+03 -1.23160E+03  7.59178E+03 -6.07002E+03  4.65881E+03
