 $NMID ID='MM_0lb_SNR400_16hz_g45_91.RAW', FMTDAT='(8E13.5)'
 TRAMP=1., VOLUME=1. $END
  3.09569E+05  1.43690E+02  3.37266E+05  2.50559E+05  8.45426E+04  3.37181E+05 -1.32347E+05  2.50550E+05
 -1.89562E+05  8.30274E+04 -1.10633E+05 -3.20186E+04  8.46138E+02 -5.01381E+04  5.40255E+04 -4.40969E+01
  3.51665E+04  5.26072E+04 -1.70061E+04  7.48833E+04 -6.12122E+04  6.28532E+04 -8.33889E+04  3.11663E+04
 -8.04155E+04 -1.06125E+04 -5.68033E+04 -5.07928E+04 -1.52943E+04 -6.89222E+04  2.73039E+04 -4.48886E+04
  3.96066E+04  3.37896E+03  1.57025E+04  4.70449E+04 -3.37995E+04  4.62877E+04 -6.58605E+04 -3.43234E+02
 -5.22633E+04 -5.65699E+04 -6.31381E+03 -7.61361E+04  3.39248E+04 -5.42342E+04  4.69723E+04 -1.71680E+04
  4.25048E+04  1.13445E+04  3.07597E+04  2.43397E+04  1.63886E+04  2.85283E+04 -4.74914E+03  2.75807E+04
 -2.18415E+04  1.25437E+04 -1.86291E+04 -4.34725E+03  5.29344E+03 -7.45620E+03  2.18674E+04  1.17641E+04
  6.73358E+03  3.39150E+04 -3.15654E+04  3.56347E+04 -6.19350E+04  2.10436E+03 -5.62194E+04 -4.22601E+04
 -1.20208E+04 -6.12443E+04  3.80052E+04 -4.41976E+04  5.68745E+04 -1.97940E+03  3.30723E+04  3.14369E+04
 -6.90986E+03  3.38868E+04 -2.89417E+04  1.51817E+04 -2.86490E+04 -5.35387E+03 -1.58511E+04 -1.00345E+04
 -8.16160E+03 -1.21183E+04 -1.06213E+03 -1.72123E+04  7.11105E+03 -2.27516E+04  1.51341E+04 -1.38916E+04
  1.16704E+04  5.14942E+03 -7.58102E+03  1.33264E+04 -2.04567E+04 -3.39541E+03 -7.78003E+03 -3.17966E+04
  2.19554E+04 -4.20528E+04  4.61119E+04 -1.89328E+04  4.29840E+04  1.88701E+04  1.49716E+04  4.33083E+04
 -1.49399E+04  3.23108E+04 -2.41780E+04  9.37378E+02 -9.03630E+03 -2.72455E+04  2.07772E+04 -3.27211E+04
  3.93643E+04 -7.61185E+03  3.33558E+04  2.32219E+04  1.63477E+04  4.46973E+04 -8.04556E+03  4.76900E+04
 -3.00369E+04  3.15938E+04 -3.92595E+04  9.33342E+03 -3.97927E+04 -1.53135E+04 -2.24011E+04 -3.63687E+04
  7.23462E+03 -3.55595E+04  2.96283E+04 -1.35181E+04  2.77142E+04  1.15158E+04  3.55062E+03  1.84704E+04
 -1.33300E+04  7.65302E+03 -9.50581E+03 -7.70834E+03  6.30303E+03 -1.03744E+04  1.75094E+04  6.57855E+03
  1.33500E+04  2.19614E+04 -6.11661E+03  2.33687E+04 -2.18329E+04  1.03807E+04 -2.70503E+04 -5.63477E+03
 -1.84035E+04 -1.67456E+04 -6.67561E+03 -1.86385E+04  3.56704E+03 -1.65900E+04  1.41260E+04 -1.62051E+04
  2.34071E+04 -1.26313E+04  3.04923E+04  1.98965E+03  2.27530E+04  1.85400E+04  4.34953E+03  3.42422E+04
 -1.68937E+04  2.86506E+04 -2.73828E+04  1.03434E+04 -2.01839E+04 -1.03442E+04 -4.38502E+03 -1.37545E+04
  2.19673E+03 -2.85555E+03 -3.34898E+03  5.77872E+03 -1.45815E+04  5.23597E+03 -1.54166E+04 -6.52997E+03
 -8.92733E+03 -1.66791E+04  5.03631E+03 -2.10207E+04  1.40240E+04 -1.52136E+04  1.60581E+04 -1.41915E+03
  1.01207E+04  1.19381E+04 -1.46731E+03  1.69396E+04 -1.16053E+04  9.89441E+03 -1.73399E+04 -3.63709E+03
 -1.19033E+04 -1.53252E+04 -1.38572E+03 -2.06943E+04  9.62787E+03 -1.66422E+04  1.80092E+04 -8.73080E+03
  1.61091E+04  6.04522E+02  1.17978E+04  3.97902E+03  6.13767E+03  8.14207E+02  8.33398E+03 -1.56716E+03
  1.53559E+04  2.53842E+03  1.69222E+04  1.33613E+04  1.14500E+04  2.69472E+04 -2.73240E+03  3.01177E+04
 -1.72748E+04  2.30900E+04 -2.81615E+04  1.14939E+04 -2.87743E+04 -1.63173E+03 -2.43221E+04 -1.67884E+04
 -1.11326E+04 -2.35717E+04  8.62490E+03 -2.11384E+04  1.87261E+04 -1.17449E+04  1.67883E+04  4.72535E+03
  7.13726E+03  1.30298E+04 -7.67311E+03  1.11143E+04 -1.46216E+04  2.76557E+03 -1.10256E+04 -8.83807E+03
 -2.35595E+02 -1.33613E+04  7.83487E+03 -1.04759E+04  9.17182E+03 -1.03787E+03  8.02502E+02  5.47732E+03
 -6.23102E+03  1.59295E+03 -4.93441E+03 -5.32437E+03  8.67770E+02 -1.19712E+04  8.28411E+03 -1.16506E+04
  1.40067E+04 -6.86705E+03  1.48658E+04  2.78982E+03  1.29674E+04  1.11831E+04  6.15608E+03  1.71418E+04
 -2.24352E+03  1.88360E+04 -1.15418E+04  1.15883E+04 -1.34214E+04  3.10736E+03 -1.00063E+04 -2.20016E+03
 -5.00674E+03 -3.38904E+03 -9.70484E+02  1.19850E+03 -2.79131E+03  2.27109E+03 -4.54472E+03  4.05718E+03
 -9.28092E+03 -7.94334E+02 -9.75902E+03 -7.76919E+03 -4.30021E+03 -1.32645E+04  4.03656E+03 -9.76803E+03
  7.99019E+03 -4.32493E+03  5.72802E+03  2.69985E+03 -1.74374E+02  3.34762E+03 -4.67816E+03 -6.68360E+02
 -4.48832E+03 -5.53814E+03 -1.13508E+03 -8.59359E+03  4.83153E+03 -9.87209E+03  1.22134E+04 -5.30495E+03
  1.38882E+04  1.04275E+03  1.06807E+04  7.39044E+03  2.62929E+03  1.06107E+04 -5.61335E+03  9.63337E+03
 -7.76196E+03  3.33995E+03 -4.07396E+03 -1.34002E+03  1.98285E+03 -2.24111E+03  5.05844E+03 -1.00299E+03
  4.71987E+03  3.55532E+03  9.33541E+02  8.01055E+03 -5.76625E+03  7.94664E+03 -9.37005E+03  1.98316E+03
 -5.93162E+03 -3.95500E+03 -2.15078E+02 -7.40713E+03  4.87612E+03 -3.72905E+03  4.95924E+03  1.37250E+03
  6.04623E+02  4.37025E+03 -4.49176E+03  6.32821E+03 -6.74024E+03  3.22246E+03 -6.38629E+03 -1.93066E+03
 -3.51080E+03 -7.33325E+03  1.75451E+03 -8.82866E+03  7.31804E+03 -5.97537E+03  8.54445E+03  1.42425E+03
  5.33896E+03  6.59146E+03  4.11732E+02  8.50712E+03 -6.07198E+03  5.00691E+03 -6.29781E+03 -6.74826E+02
 -6.29491E+03 -6.08517E+03 -1.81003E+03 -5.77321E+03  3.63957E+03 -5.13539E+03  3.40385E+03 -3.48077E+03
  3.19960E+03  6.83327E+02 -6.69264E+01  1.34199E+03  1.02253E+02 -8.50044E+02  5.40783E+02 -3.12232E+03
  5.03330E+03 -1.47656E+03  6.88258E+03  4.97204E+02  6.65265E+03  4.12546E+03  6.24402E+03  9.68187E+03
 -1.77980E+03  1.08822E+04 -9.31983E+03  8.75918E+03 -1.24499E+04  1.34993E+03 -1.02040E+04 -3.62854E+03
 -5.20015E+03 -9.20892E+03 -7.32115E+02 -6.91829E+03  2.60889E+03 -2.95345E+03  2.53752E+03 -3.14816E+03
  2.26152E+03 -1.66746E+03  2.56404E+03 -2.79286E+03  3.51058E+03 -2.03301E+03  4.20325E+03  1.36570E+02
  5.93098E+03  8.69190E+02  1.74029E+03  4.01795E+03 -1.55858E+03  4.18742E+03 -5.75799E+03  3.46307E+03
 -6.82307E+03 -1.40550E+03 -3.15597E+03 -4.62842E+03  3.12071E+02 -6.64768E+03  3.87262E+03 -6.75599E+03
  7.27727E+03 -4.13449E+03  8.12941E+03  9.18756E+02  6.26935E+03  5.47976E+03  9.37229E+02  8.17919E+03
 -2.54093E+03  7.55845E+03 -4.05112E+03  2.00663E+03 -2.34389E+03 -9.94263E+02 -3.32438E+02 -1.02802E+03
 -7.97146E+02  2.29411E+02 -8.95994E+02  1.79774E+03 -3.03814E+03  1.64853E+03 -5.00176E+03 -1.34550E+03
 -2.43847E+03 -5.47042E+03  5.05273E+02 -6.47106E+03  3.71805E+03 -6.05941E+03  5.43667E+03 -2.12808E+03
  5.45977E+03  2.91794E+03  2.56165E+03  5.04266E+03 -1.16663E+03  5.46508E+03 -3.77982E+03  3.60197E+03
 -5.02861E+03  3.45424E+02 -4.43509E+03 -3.72079E+03 -1.01697E+02 -5.05191E+03  2.16137E+03 -3.60294E+03
  3.30742E+03 -2.08098E+03  2.41908E+03  1.97861E+02  1.35495E+03  2.69018E+03  9.27825E+02  1.25187E+03
  2.03661E+03  8.17262E+02  1.94115E+03  1.25392E+03  2.07563E+03  2.72257E+03  1.73153E+03  1.98400E+03
 -1.60684E+03  4.44083E+03 -3.69128E+03  5.15577E+03 -5.18024E+03  1.18515E+03 -6.21220E+03 -1.19937E+03
 -2.41158E+03 -5.12702E+03  6.97447E+02 -6.39787E+03  3.22898E+03 -3.71936E+03  4.45370E+03 -1.10137E+03
  3.88807E+03  2.58674E+03  3.15938E+02  3.66503E+03 -1.10423E+03  2.05289E+03 -1.92236E+03 -4.51170E+02
 -7.51659E+02 -2.63446E+03  1.11808E+03 -2.67215E+03  1.39689E+03 -1.01684E+03  1.75004E+03  6.74233E+02
  1.14427E+03  7.32538E+02  6.31243E+02  4.72712E+02 -4.10510E+01  1.11727E+03  9.86987E+02 -7.67750E+02
  4.47228E+02 -7.36217E+02  2.26463E+03  9.01826E+02  4.40417E+02  3.31498E+03 -8.80362E+02  4.39224E+03
 -3.26977E+03  2.12633E+03 -3.26436E+03  5.19859E+02 -2.62562E+03 -1.02110E+03 -5.29095E+02 -1.53091E+03
  5.94221E+02 -1.47166E+03  1.10881E+03 -1.04815E+03  8.89304E+02  1.12989E+03 -9.11589E+02  1.50843E+03
 -1.79739E+03  1.29350E+03 -2.51447E+03 -2.04255E+03 -1.22266E+03 -2.70784E+03  4.73244E+02 -2.06240E+03
  1.26162E+03 -1.69932E+03  1.44987E+03 -2.36889E+02  2.13328E+03  1.01666E+03  4.38305E+02  1.28877E+03
 -1.14230E+03 -3.16687E+01 -1.27888E+03 -6.51158E+02  3.85480E+02 -1.86284E+03  3.09576E+03 -1.05688E+03
  2.68167E+03  9.66753E+00  3.10180E+03  1.71277E+03  1.60021E+03  2.88801E+03 -1.47390E+03  3.08927E+03
 -2.90788E+03  8.39879E+02 -2.29428E+03 -1.74395E+02 -1.35174E+03 -2.25052E+03 -1.18850E+02 -1.07014E+03
  2.50246E+03 -3.91959E+02  1.32394E+03  1.07953E+03  8.73208E+02  1.39055E+03  7.45875E+01  1.61172E+03
 -1.35819E+03  8.35605E+02 -9.42953E+02  1.55454E+02 -4.92772E+01  7.47927E+02 -3.92674E+02  4.61068E+02
 -7.71702E+02  1.41636E+03 -2.27452E+03  1.20069E+03 -2.99506E+03  3.99371E+02 -3.49528E+03 -1.35357E+03
 -9.96296E+02 -3.30827E+03  8.56125E+02 -5.43331E+03  2.10233E+03 -3.55515E+03  4.02003E+03 -1.89571E+03
  3.65958E+03  1.05154E+02  2.27236E+03  2.20313E+03  5.67227E+01  2.70496E+03 -1.06496E+03  1.91627E+03
 -1.77653E+03  6.30502E+02 -9.46050E+02  1.02016E+02 -4.26701E+02 -2.14800E+02 -7.69601E+02 -4.02914E+02
 -1.57755E+03 -2.54930E+01 -1.15183E+03  4.79737E+02 -4.59976E+02 -8.38136E+02  1.34932E+02 -1.60468E+03
  1.39439E+03 -1.22694E+03  1.15011E+03  8.62917E+02  2.17725E+03  1.63721E+03 -3.59454E+02  2.69325E+03
 -1.27716E+03  3.15454E+03 -2.92043E+03  2.09204E+03 -3.13763E+03 -4.28690E+02 -2.07047E+03 -1.92134E+03
 -1.43246E+03 -2.04722E+03  7.67252E+02 -2.10302E+03  1.89289E+03 -7.66965E+02  1.49212E+03 -2.77506E+02
  1.23574E+03  5.48617E+02  3.16532E+02  1.09386E+03 -3.33597E+02  4.18274E+02 -1.55265E+02  7.15588E+00
  4.60171E+02 -2.62760E+02  6.12280E+02 -2.25985E+01  4.36638E+02  5.48221E+02  7.35815E+02  3.45097E+02
 -7.08670E+02  1.05960E+03 -8.18214E+02  6.17758E+02 -1.67752E+03 -8.92027E+02  4.44799E+01 -1.90631E+03
  7.99567E+02 -1.04249E+03  1.39909E+03 -4.63701E+02  1.63147E+03 -6.46842E+02  5.04650E+02  1.57505E+03
  5.74522E+01  1.71660E+03 -6.68852E+02  1.23816E+03 -9.58575E+02  8.78035E+02 -4.20869E+02 -7.10041E+01
  1.60452E+02  3.92496E+02 -6.16145E+02  3.85121E+02 -9.11305E+02  5.42975E+02 -1.55943E+03 -2.31716E+02
 -9.13024E+02 -6.75907E+01 -4.50420E+02 -1.85952E+03  9.62388E+02 -2.17298E+03  1.60972E+03 -5.48301E+02
  1.45235E+03  3.27195E+02  4.05700E+02  9.06096E+02 -4.92637E+01  1.58362E+03 -8.71706E+02  8.75405E+02
