 $NMID ID='MM_0lb_SNR400_16hz_g40_67.RAW', FMTDAT='(8E13.5)'
 TRAMP=1., VOLUME=1. $END
  3.09979E+05  4.92742E+02  3.37256E+05  2.50695E+05  8.48114E+04  3.37799E+05 -1.32855E+05  2.50622E+05
 -1.89815E+05  8.27018E+04 -1.10955E+05 -3.27384E+04  7.31284E+02 -5.08024E+04  5.44344E+04 -2.48237E+02
  3.53212E+04  5.27243E+04 -1.66867E+04  7.54250E+04 -6.04496E+04  6.28222E+04 -8.33087E+04  3.14597E+04
 -8.03391E+04 -1.06475E+04 -5.63053E+04 -5.12422E+04 -1.46721E+04 -6.79784E+04  2.72232E+04 -4.51889E+04
  3.97039E+04  3.59005E+03  1.54671E+04  4.74309E+04 -3.41442E+04  4.61369E+04 -6.55285E+04 -1.61777E+02
 -5.25833E+04 -5.61908E+04 -6.43854E+03 -7.55079E+04  3.28577E+04 -5.37162E+04  4.71523E+04 -1.61547E+04
  4.24530E+04  1.07123E+04  3.12442E+04  2.53468E+04  1.57179E+04  2.86540E+04 -4.89985E+03  2.75269E+04
 -2.20097E+04  1.31089E+04 -1.85357E+04 -4.38125E+03  4.24862E+03 -7.94001E+03  2.19141E+04  1.16478E+04
  7.31657E+03  3.39517E+04 -3.11035E+04  3.44813E+04 -6.17200E+04  2.07786E+03 -5.57285E+04 -4.15973E+04
 -1.21764E+04 -6.19238E+04  3.85353E+04 -4.35344E+04  5.61885E+04 -2.12142E+03  3.28540E+04  3.11673E+04
 -6.06958E+03  3.40114E+04 -2.86313E+04  1.49169E+04 -2.86726E+04 -5.21046E+03 -1.55831E+04 -1.04175E+04
 -7.08169E+03 -1.21972E+04 -9.84317E+02 -1.72053E+04  6.94050E+03 -2.26779E+04  1.47790E+04 -1.32730E+04
  1.21313E+04  4.89715E+03 -6.72848E+03  1.34306E+04 -1.98635E+04 -2.95087E+03 -8.10975E+03 -3.20150E+04
  2.08869E+04 -4.13888E+04  4.58329E+04 -1.89336E+04  4.30370E+04  1.88125E+04  1.47373E+04  4.24215E+04
 -1.57521E+04  3.18598E+04 -2.38833E+04  9.38949E+02 -8.64968E+03 -2.66482E+04  2.02750E+04 -3.26792E+04
  3.89348E+04 -7.51242E+03  3.35652E+04  2.27846E+04  1.63757E+04  4.36649E+04 -7.68114E+03  4.72596E+04
 -2.96046E+04  3.15573E+04 -3.88947E+04  8.98733E+03 -3.98155E+04 -1.57464E+04 -2.21089E+04 -3.54222E+04
  7.83280E+03 -3.56021E+04  3.01882E+04 -1.29147E+04  2.75668E+04  1.09813E+04  3.94007E+03  1.84603E+04
 -1.35018E+04  7.81815E+03 -1.04371E+04 -7.93150E+03  5.39156E+03 -1.03589E+04  1.81033E+04  6.04221E+03
  1.30372E+04  2.21466E+04 -6.27039E+03  2.39028E+04 -2.10379E+04  9.86275E+03 -2.62708E+04 -5.50361E+03
 -1.80820E+04 -1.70452E+04 -6.61381E+03 -1.78771E+04  3.70459E+03 -1.62408E+04  1.34486E+04 -1.54109E+04
  2.26934E+04 -1.19173E+04  2.93143E+04  1.90917E+03  2.20310E+04  1.78633E+04  4.06347E+03  3.39865E+04
 -1.62111E+04  2.86377E+04 -2.68794E+04  9.41663E+03 -1.94462E+04 -1.06712E+04 -4.33954E+03 -1.34887E+04
  2.21776E+03 -4.66767E+03 -3.65701E+03  5.33729E+03 -1.38698E+04  5.62692E+03 -1.44878E+04 -5.69866E+03
 -9.50197E+03 -1.70092E+04  4.60584E+03 -2.11691E+04  1.37550E+04 -1.48189E+04  1.53078E+04 -1.80550E+03
  1.00511E+04  1.15349E+04 -1.05992E+03  1.66880E+04 -1.13208E+04  1.00664E+04 -1.63894E+04 -3.73552E+03
 -1.21910E+04 -1.53519E+04 -2.01850E+03 -2.08846E+04  8.91374E+03 -1.60798E+04  1.70312E+04 -8.13715E+03
  1.55413E+04  6.68319E+02  1.12300E+04  3.98726E+03  5.90617E+03  2.90996E+02  7.98562E+03 -1.69070E+03
  1.47774E+04  2.43620E+03  1.64418E+04  1.36182E+04  9.38027E+03  2.64809E+04 -3.06816E+03  2.93688E+04
 -1.66328E+04  2.22446E+04 -2.70463E+04  1.17190E+04 -2.79548E+04 -2.11786E+03 -2.36426E+04 -1.58839E+04
 -1.06199E+04 -2.34632E+04  7.23008E+03 -2.12308E+04  1.81680E+04 -1.12841E+04  1.71175E+04  3.98612E+03
  6.52673E+03  1.26129E+04 -7.60340E+03  1.19576E+04 -1.44053E+04  2.75477E+03 -1.09465E+04 -9.17010E+03
 -8.35405E+02 -1.34107E+04  6.92865E+03 -9.84409E+03  8.72632E+03 -1.16661E+03  1.31357E+03  5.54228E+03
 -5.70842E+03  1.67238E+03 -4.59424E+03 -4.65789E+03  4.37786E+02 -1.16623E+04  8.62823E+03 -1.16763E+04
  1.41511E+04 -5.86016E+03  1.41599E+04  2.57313E+03  1.23078E+04  1.05157E+04  5.77876E+03  1.60635E+04
 -1.77937E+03  1.81542E+04 -1.13064E+04  1.18018E+04 -1.29926E+04  2.92425E+03 -8.73350E+03 -2.66100E+03
 -5.19517E+03 -3.69576E+03 -1.06263E+03  1.07804E+03 -2.31587E+03  1.72686E+03 -3.93271E+03  3.55191E+03
 -9.17182E+03 -9.00701E+02 -9.03536E+03 -8.00080E+03 -4.20898E+03 -1.30113E+04  3.55763E+03 -9.34716E+03
  7.88249E+03 -3.79061E+03  5.95121E+03  2.87409E+03  2.90225E+02  3.89688E+03 -3.50732E+03 -4.12382E+02
 -3.99656E+03 -5.65300E+03 -8.89108E+02 -8.37268E+03  4.99344E+03 -9.44292E+03  1.19308E+04 -4.91444E+03
  1.38475E+04  7.51375E+02  9.84739E+03  7.44419E+03  1.29795E+03  1.00615E+04 -5.67729E+03  9.28905E+03
 -8.27409E+03  3.06571E+03 -3.67727E+03 -1.85620E+03  1.95961E+03 -2.40685E+03  5.08445E+03 -5.53543E+02
  4.42940E+03  3.75072E+03  1.29990E+03  6.86071E+03 -4.81443E+03  7.03719E+03 -8.33172E+03  1.94175E+03
 -5.96313E+03 -4.30026E+03 -3.95287E+02 -7.22120E+03  4.78316E+03 -3.57155E+03  4.51977E+03  1.57911E+03
  7.70041E+02  4.73269E+03 -5.04248E+03  5.77080E+03 -6.04773E+03  2.73811E+03 -6.11178E+03 -1.14288E+03
 -3.69611E+03 -7.38131E+03  1.59948E+03 -8.57754E+03  7.10058E+03 -5.56776E+03  8.17893E+03  7.66791E+02
  5.34163E+03  6.42956E+03 -3.14895E+02  8.58504E+03 -6.23743E+03  4.60165E+03 -6.54552E+03 -4.39965E+02
 -6.19470E+03 -5.60454E+03 -1.48642E+03 -6.36539E+03  2.94070E+03 -5.92352E+03  3.57828E+03 -2.67521E+03
  3.32161E+03  5.77318E+02  1.45689E+01  1.64899E+03  3.14599E+02 -7.87624E+02  4.64132E+02 -2.66441E+03
  5.02022E+03 -1.94305E+03  6.48031E+03  4.70459E+02  7.28777E+03  4.32389E+03  5.85593E+03  8.95184E+03
 -1.53431E+03  1.04139E+04 -1.02134E+04  7.64816E+03 -1.23659E+04  1.51667E+03 -9.43964E+03 -3.64853E+03
 -5.33456E+03 -8.30768E+03 -2.15635E+02 -6.54359E+03  2.44722E+03 -3.04235E+03  2.56984E+03 -2.24849E+03
  1.71714E+03 -1.89184E+03  2.26222E+03 -2.55183E+03  3.64099E+03 -2.59941E+03  4.43936E+03  4.63466E+00
  4.93306E+03  1.51316E+03  1.92818E+03  4.12221E+03 -1.79608E+03  3.88549E+03 -5.01331E+03  3.62983E+03
 -6.18515E+03 -6.99751E+02 -2.86759E+03 -4.03907E+03  2.91831E+02 -6.46571E+03  3.71631E+03 -6.84004E+03
  6.58161E+03 -3.80361E+03  8.73937E+03  8.47881E+02  5.47674E+03  5.09474E+03  2.08491E+03  7.35942E+03
 -2.76490E+03  6.94433E+03 -4.41314E+03  2.39838E+03 -2.37197E+03 -9.22591E+02 -5.73526E+02 -1.10424E+02
 -9.18703E+02 -9.13968E+01 -1.21159E+03  2.24092E+03 -2.98474E+03  1.19444E+03 -4.93815E+03 -6.45230E+02
 -2.62010E+03 -4.97488E+03  6.44635E+02 -6.33614E+03  3.38169E+03 -5.42203E+03  5.45379E+03 -1.41030E+03
  5.59172E+03  2.84852E+03  2.45778E+03  4.45825E+03 -1.19624E+03  5.71666E+03 -3.59829E+03  4.36030E+03
 -5.26220E+03  8.64395E+02 -4.19865E+03 -2.45938E+03 -1.40558E+02 -4.20162E+03  2.58997E+03 -3.18982E+03
  3.68373E+03 -1.65124E+03  2.07093E+03  4.65086E+02  1.04489E+03  2.08900E+03  9.67082E+02  5.63366E+02
  2.28112E+03  7.20460E+02  1.79767E+03  7.93969E+02  1.79092E+03  2.77212E+03  1.82151E+03  2.64382E+03
 -1.54048E+03  3.92575E+03 -3.21958E+03  4.91102E+03 -4.66693E+03  9.88111E+02 -5.33653E+03 -1.16637E+03
 -2.03176E+03 -5.40600E+03  5.71753E+02 -6.48030E+03  3.23676E+03 -3.09794E+03  3.72620E+03 -1.42548E+03
  3.94694E+03  2.21584E+03  7.38571E+02  3.07347E+03 -8.51220E+02  1.87020E+03 -2.14958E+03 -4.70853E+02
 -2.89854E+02 -2.70534E+03  1.50091E+03 -2.56154E+03  1.93435E+03 -1.30781E+03  1.94654E+03  1.04104E+03
  1.55793E+03  6.57088E+02  8.69425E+02 -6.76742E+02  1.69195E+02  1.20685E+03  1.89785E+03 -4.51076E+02
  4.99093E+02 -1.72785E+02  2.23876E+03  1.09899E+03  7.91106E+02  3.09815E+03 -3.83840E+02  3.95528E+03
 -3.00025E+03  1.73696E+03 -3.54247E+03  3.70262E+02 -2.84959E+03 -1.03825E+03 -5.35773E+02 -2.07350E+03
  6.99299E+02 -1.93394E+03  1.42223E+03 -1.11547E+03  1.11815E+03  1.23518E+03 -9.63260E+02  1.60968E+03
 -1.90852E+03  1.02914E+03 -2.09471E+03 -1.40004E+03 -1.10948E+03 -2.57056E+03  3.12987E+02 -2.79811E+03
  1.07569E+03 -1.50584E+03  9.78628E+02  5.89652E+02  2.19730E+03  2.10396E+02  6.80431E+02  1.34282E+03
 -7.75776E+02 -3.32348E+01 -1.40415E+03 -7.88589E+02  1.13157E+03 -1.29373E+03  2.64773E+03 -1.37878E+03
  2.64163E+03  5.13836E+02  3.73292E+03  1.56364E+03  2.06293E+03  2.62730E+03 -1.12126E+03  2.92764E+03
 -3.11969E+03  8.80272E+02 -1.95571E+03 -3.64190E+02 -9.42530E+02 -1.98478E+03  2.37688E+02 -1.62250E+03
  1.87980E+03 -1.30553E+03  1.10310E+03  9.41313E+02  5.19988E+02  2.28901E+03  1.60554E+02  1.56483E+03
 -4.87053E+02  1.76675E+03 -5.06021E+02  6.01889E+01 -6.13202E+01  4.64089E+02 -1.52272E+03  8.01896E+02
 -9.17445E+02  1.40169E+03 -2.61797E+03  1.06099E+03 -2.65157E+03 -7.78848E+01 -3.12013E+03 -1.39327E+03
 -1.85724E+03 -3.57348E+03  1.34775E+03 -3.93711E+03  2.22051E+03 -3.19761E+03  4.42239E+03 -1.47837E+03
  3.68683E+03  3.96422E+02  1.85585E+03  2.01094E+03 -7.97477E+02  2.74263E+03 -7.85962E+02  1.74528E+03
 -1.87683E+03  1.20124E+03 -9.59257E+02 -7.21595E+02 -3.64171E+02  3.93043E+02 -1.46794E+03 -5.19527E+02
 -1.02003E+03 -2.92127E+02 -2.75319E+02  6.35349E+02  1.71327E+02 -1.23243E+03  1.58087E+02 -8.82725E+02
  1.42766E+03 -1.35633E+03  1.01210E+03  2.35055E+02  1.92253E+03  2.00425E+03 -4.86056E+01  2.87054E+03
 -1.13567E+03  3.43159E+03 -2.70535E+03  2.19460E+03 -2.81641E+03 -2.87409E+02 -1.95846E+03 -1.95972E+03
 -9.17446E+02 -2.07807E+03  6.07932E+02 -2.85396E+03  1.71407E+03 -1.23065E+03  1.59872E+03  4.87651E+02
  8.90637E+02  9.51729E+02  6.54257E+00  7.59722E+02 -7.25484E+02 -2.18330E+02 -3.36336E+02 -1.14358E+02
  1.01989E+03 -7.40672E+01  9.40415E+01  5.68581E+02  2.05574E+01  5.51984E+02  5.20808E+02  8.59859E+02
 -9.44893E+02  9.64912E+02 -9.23128E+02 -2.36031E+02 -1.49723E+03 -1.08773E+03 -1.76013E+02 -1.99054E+03
  6.71988E+02 -1.78837E+03  1.02405E+03 -4.14610E+02  1.40391E+03 -1.81574E+02  1.03385E+03  1.51232E+03
  3.67750E+02  1.11439E+03 -5.45453E+02  1.42820E+03 -8.49990E+01  1.11558E+03 -8.00438E+02 -1.15256E+02
 -7.44567E+02  3.00238E+02 -3.40454E+02  4.88916E+01 -9.96155E+02  7.78969E+01 -1.27497E+03 -1.00949E+03
 -1.50501E+03 -4.17139E+02 -3.36501E+02 -1.31503E+03  5.42691E+02 -2.49519E+03  1.37633E+03 -8.02479E+02
  1.73711E+03  9.18834E+01 -7.48867E+01  3.05606E+02 -5.09645E+02  1.07398E+03 -2.66146E+02  1.06423E+03
