 $NMID ID='MM_0lb_SNR400_14hz_g45_81.RAW', FMTDAT='(8E13.5)'
 TRAMP=1., VOLUME=1. $END
  3.09188E+05  5.74779E+02  3.37127E+05  2.50507E+05  8.45620E+04  3.37924E+05 -1.32404E+05  2.50870E+05
 -1.89662E+05  8.26224E+04 -1.11299E+05 -3.26206E+04  1.17388E+03 -5.06306E+04  5.45185E+04 -1.28823E+02
  3.54730E+04  5.29390E+04 -1.69075E+04  7.50645E+04 -6.05363E+04  6.38244E+04 -8.36519E+04  3.17264E+04
 -8.11981E+04 -1.13458E+04 -5.70565E+04 -5.15149E+04 -1.49877E+04 -6.91856E+04  2.71648E+04 -4.61050E+04
  3.97780E+04  3.54567E+03  1.63551E+04  4.76403E+04 -3.45884E+04  4.72638E+04 -6.73712E+04 -4.06919E+02
 -5.30769E+04 -5.66903E+04 -6.87933E+03 -7.64754E+04  3.40252E+04 -5.47323E+04  4.75677E+04 -1.69811E+04
  4.31856E+04  1.15917E+04  3.16434E+04  2.50006E+04  1.62242E+04  2.90593E+04 -5.43259E+03  2.71176E+04
 -2.23171E+04  1.19420E+04 -1.85133E+04 -4.77056E+03  5.42437E+03 -7.17256E+03  2.22132E+04  1.22795E+04
  6.66984E+03  3.50554E+04 -3.19604E+04  3.45619E+04 -6.30777E+04  2.10675E+03 -5.70454E+04 -4.28957E+04
 -1.27215E+04 -6.26690E+04  3.97141E+04 -4.50871E+04  5.74531E+04 -2.25267E+03  3.43862E+04  3.21454E+04
 -5.87769E+03  3.59280E+04 -2.97978E+04  1.55969E+04 -3.00326E+04 -4.60295E+03 -1.67332E+04 -1.12612E+04
 -8.57301E+03 -1.25549E+04 -1.10675E+03 -1.82286E+04  7.41672E+03 -2.32605E+04  1.62292E+04 -1.30098E+04
  1.14139E+04  5.74571E+03 -9.09210E+03  1.29959E+04 -2.13312E+04 -4.06828E+03 -8.22763E+03 -3.35514E+04
  2.25457E+04 -4.31408E+04  4.78414E+04 -1.93831E+04  4.45616E+04  1.93737E+04  1.55908E+04  4.35627E+04
 -1.58935E+04  3.27463E+04 -2.49098E+04  1.86531E+03 -9.62255E+03 -2.76396E+04  2.11002E+04 -3.38516E+04
  4.09615E+04 -8.93380E+03  3.48787E+04  2.33255E+04  1.83365E+04  4.64107E+04 -7.58539E+03  5.01511E+04
 -3.08542E+04  3.32141E+04 -4.19215E+04  9.12786E+03 -4.18433E+04 -1.69546E+04 -2.32058E+04 -3.73404E+04
  6.77514E+03 -3.74992E+04  3.12274E+04 -1.41226E+04  2.88578E+04  1.11104E+04  3.46161E+03  1.87107E+04
 -1.35134E+04  8.71097E+03 -1.06341E+04 -7.85189E+03  6.09452E+03 -1.05231E+04  1.76139E+04  6.25141E+03
  1.40563E+04  2.25336E+04 -6.51244E+03  2.44992E+04 -2.17516E+04  1.15873E+04 -2.80924E+04 -5.05258E+03
 -1.95464E+04 -1.69225E+04 -8.19702E+03 -2.07253E+04  4.03991E+03 -1.90393E+04  1.51595E+04 -1.81714E+04
  2.56975E+04 -1.27293E+04  3.19309E+04  2.40919E+03  2.37079E+04  1.97587E+04  4.46315E+03  3.58355E+04
 -1.79169E+04  2.96393E+04 -2.77348E+04  9.91159E+03 -2.05098E+04 -1.05691E+04 -4.84698E+03 -1.31552E+04
  2.14245E+03 -2.88061E+03 -5.31404E+03  6.33553E+03 -1.55003E+04  5.12089E+03 -1.61079E+04 -6.91659E+03
 -9.80916E+03 -1.89835E+04  4.86270E+03 -2.31061E+04  1.49927E+04 -1.64533E+04  1.73245E+04 -1.53567E+03
  1.16183E+04  1.31234E+04 -9.51890E+02  1.86018E+04 -1.33928E+04  1.12986E+04 -1.94025E+04 -4.25657E+03
 -1.43451E+04 -1.70911E+04 -1.75233E+03 -2.21076E+04  1.00792E+04 -1.82963E+04  1.90986E+04 -9.16434E+03
  1.76870E+04  5.31051E+02  1.32150E+04  3.92239E+03  6.87677E+03  4.12502E+02  9.11264E+03 -1.69757E+03
  1.72275E+04  2.89671E+03  1.94848E+04  1.45335E+04  1.22252E+04  2.95168E+04 -3.04259E+03  3.32451E+04
 -1.94413E+04  2.69887E+04 -3.06582E+04  1.36666E+04 -3.18221E+04 -2.15983E+03 -2.72950E+04 -1.85920E+04
 -1.17281E+04 -2.69474E+04  8.80759E+03 -2.43584E+04  2.10228E+04 -1.24874E+04  1.88626E+04  5.49718E+03
  7.04950E+03  1.38415E+04 -8.31390E+03  1.24074E+04 -1.57217E+04  2.44839E+03 -1.26221E+04 -1.01560E+04
 -1.95579E+02 -1.53495E+04  7.78634E+03 -1.12120E+04  1.01540E+04 -1.51062E+03  2.52718E+03  6.78753E+03
 -6.71916E+03  2.28338E+03 -6.03914E+03 -5.17389E+03 -1.24366E+02 -1.31836E+04  9.47452E+03 -1.36772E+04
  1.67013E+04 -7.12770E+03  1.69988E+04  3.06548E+03  1.49039E+04  1.30177E+04  7.11842E+03  2.00797E+04
 -2.79797E+03  2.13504E+04 -1.37759E+04  1.32169E+04 -1.50867E+04  3.13971E+03 -1.08271E+04 -3.52605E+03
 -5.38210E+03 -4.01608E+03 -1.50721E+03  7.12838E+02 -2.17188E+03  2.67784E+03 -5.33400E+03  3.70890E+03
 -1.04743E+04 -8.49848E+02 -1.09297E+04 -9.23168E+03 -4.43658E+03 -1.52014E+04  4.84790E+03 -1.12101E+04
  9.00662E+03 -4.56481E+03  6.13156E+03  2.78605E+03 -8.38792E+01  4.12151E+03 -4.35661E+03 -2.47327E+02
 -5.26569E+03 -6.93357E+03 -6.63748E+02 -1.06010E+04  5.67291E+03 -1.10909E+04  1.39462E+04 -5.71483E+03
  1.62774E+04  1.33319E+03  1.13669E+04  8.87811E+03  2.25738E+03  1.23611E+04 -6.50477E+03  1.08601E+04
 -9.69102E+03  3.18211E+03 -4.73791E+03 -1.48522E+03  1.70934E+03 -2.60023E+03  5.53708E+03 -7.39780E+02
  5.19380E+03  5.49962E+03  1.24531E+03  8.44097E+03 -6.13307E+03  9.28637E+03 -1.10121E+04  2.08430E+03
 -7.28478E+03 -4.63985E+03  1.88646E+02 -9.18055E+03  5.58254E+03 -4.71407E+03  5.41165E+03  1.99684E+03
  8.45090E+02  5.47089E+03 -5.62026E+03  7.43914E+03 -7.85687E+03  2.66376E+03 -8.00412E+03 -2.91965E+03
 -4.52000E+03 -9.72101E+03  1.81537E+03 -1.15029E+04  9.73211E+03 -6.89335E+03  1.03301E+04  2.08330E+03
  5.95657E+03  8.00592E+03 -2.49160E+02  1.01082E+04 -7.55854E+03  5.82555E+03 -7.59719E+03 -7.04255E+02
 -7.11129E+03 -7.50370E+03 -1.79198E+03 -6.71399E+03  3.58932E+03 -6.39004E+03  4.54836E+03 -2.93520E+03
  3.32771E+03  9.71753E+02 -9.16394E+02  1.83673E+03  3.23549E+02 -1.34603E+03  5.98222E+02 -4.24439E+03
  6.38668E+03 -3.05064E+03  8.82891E+03  1.42429E+03  8.54590E+03  5.46508E+03  6.37509E+03  1.18685E+04
 -2.17806E+03  1.31701E+04 -1.17995E+04  1.04013E+04 -1.55892E+04  2.07860E+03 -1.23045E+04 -5.20419E+03
 -5.85249E+03 -1.02987E+04 -3.68948E+02 -8.64527E+03  2.78936E+03 -4.79547E+03  3.12223E+03 -3.26927E+03
  2.25928E+03 -2.38474E+03  2.78043E+03 -2.91862E+03  4.36411E+03 -2.49747E+03  5.45807E+03 -7.06662E+02
  6.84640E+03  1.63411E+03  2.54482E+03  5.70871E+03 -1.56670E+03  6.21131E+03 -7.25053E+03  5.54445E+03
 -8.35366E+03 -9.21306E+02 -4.44918E+03 -5.86109E+03 -4.32145E+01 -8.83356E+03  4.35046E+03 -8.66919E+03
  9.14668E+03 -5.04023E+03  1.08749E+04  9.67627E+02  7.01560E+03  7.83963E+03  1.11416E+03  1.01214E+04
 -3.09750E+03  8.48726E+03 -5.22844E+03  2.71917E+03 -3.86229E+03 -1.07303E+03 -5.46832E+02 -1.21317E+03
 -5.04372E+02  5.94146E+01 -7.22499E+02  2.35197E+03 -3.84212E+03  1.24088E+03 -5.75023E+03 -5.12029E+02
 -3.41555E+03 -6.84907E+03  2.53097E+01 -7.82098E+03  5.49475E+03 -7.53016E+03  6.82861E+03 -2.39228E+03
  7.93513E+03  3.45329E+03  3.21507E+03  6.71184E+03 -1.29426E+03  7.69680E+03 -4.90375E+03  5.00674E+03
 -6.66994E+03  2.17229E+02 -5.61479E+03 -4.20827E+03 -4.85974E+02 -6.39346E+03  3.36846E+03 -4.03840E+03
  4.88142E+03 -1.33755E+03  3.01844E+03  1.61251E+03  7.08872E+02  2.63974E+03  6.41756E+02  7.56388E+02
  2.37041E+03  7.88949E+02  1.90755E+03  1.64768E+03  2.38589E+03  2.86875E+03  2.38547E+03  3.49591E+03
 -1.69200E+03  5.96267E+03 -4.71555E+03  6.93441E+03 -6.95614E+03  1.58442E+03 -7.68282E+03 -2.68550E+03
 -3.84328E+03 -6.67976E+03  1.67034E+03 -8.62747E+03  4.69694E+03 -5.03394E+03  5.63987E+03 -2.06013E+03
  4.88278E+03  2.89033E+03  1.43232E+03  3.66146E+03 -2.35515E+03  3.02742E+03 -2.94652E+03 -8.72633E+02
 -1.95948E+03 -2.96522E+03  2.32346E+03 -2.84241E+03  2.79767E+03 -1.37612E+03  2.44514E+03  7.08568E+02
  1.24480E+03  1.30517E+03  7.53011E+02  3.89873E+02 -7.02029E+02  1.11449E+03  1.76445E+03 -2.71172E+02
  5.30175E+02  1.12912E+02  3.52791E+03  1.66856E+03  1.28749E+03  4.63046E+03 -8.56569E+02  5.66639E+03
 -3.46743E+03  3.21851E+03 -4.01642E+03  5.21987E+02 -3.76057E+03 -9.91852E+02 -1.29743E+03 -2.30094E+03
  3.66989E+02 -2.97036E+03  1.91271E+03 -1.20063E+03  1.40317E+03  1.89804E+03 -1.23867E+03  2.53606E+03
 -2.87917E+03  1.71926E+03 -3.14839E+03 -1.82534E+03 -1.87765E+03 -3.44806E+03  7.20533E+02 -3.86192E+03
  1.82884E+03 -2.13549E+03  2.60461E+03 -2.50212E+02  2.00238E+03  6.68314E+02  2.23936E+02  1.70416E+03
 -9.62605E+02  5.11392E+02 -1.57125E+03 -8.76058E+02  9.31376E+02 -2.34605E+03  3.46039E+03 -2.21187E+03
  3.49812E+03 -1.58896E+01  4.49718E+03  3.00419E+03  2.55624E+03  3.56164E+03 -1.71532E+03  4.34136E+03
 -3.59843E+03  1.67644E+03 -2.99250E+03 -6.37316E+02 -2.04450E+03 -2.89123E+03  5.25135E+02 -1.66127E+03
  2.59445E+03 -1.27787E+03  2.00483E+03  1.00428E+03  6.50114E+02  2.25025E+03  1.59194E+02  2.32297E+03
 -9.98412E+02  2.09306E+03 -9.98091E+02  1.14365E+00 -8.88417E+02  1.22244E+02 -9.41612E+02  8.86878E+02
 -1.08976E+03  2.06362E+03 -3.55743E+03  2.08282E+03 -4.10663E+03  3.89343E+02 -4.93118E+03 -2.70546E+03
 -2.43552E+03 -4.77907E+03  1.03401E+03 -6.67770E+03  3.32837E+03 -4.41978E+03  6.04993E+03 -1.80933E+03
  5.67784E+03  2.34111E+02  3.28860E+03  3.84956E+03  1.03724E+02  3.69538E+03 -1.69985E+03  3.13898E+03
 -2.14739E+03  5.95366E+02 -1.53894E+03 -2.13580E+02 -8.51722E+02 -3.65905E+02 -7.06960E+02  9.96854E-01
 -1.44497E+03 -1.08879E+02 -1.01718E+03 -1.51621E+01  1.64068E+02 -1.48917E+03 -8.97250E+02 -1.47538E+03
  2.51966E+03 -1.07686E+03  1.95125E+03 -2.68760E+02  2.83352E+03  2.69294E+03  4.86545E+02  3.91311E+03
 -2.19511E+03  4.41924E+03 -4.02814E+03  2.55462E+03 -4.29683E+03 -6.56793E+02 -3.09494E+03 -2.73237E+03
 -1.44240E+03 -4.29330E+03  4.54600E+02 -3.57514E+03  2.01434E+03 -1.74918E+03  1.72945E+03 -3.61949E+02
  1.78282E+03  1.28213E+03  3.44111E+01  8.56341E+02 -8.23710E+02  1.22894E+02  2.75003E+02 -1.06577E+03
  1.57455E+03 -2.57780E+02  1.27161E+03  2.58086E+02  1.17539E+03  1.09071E+03  8.17613E+02  1.69053E+03
 -6.24436E+02  1.78788E+03 -1.67827E+03  6.44106E+02 -1.83401E+03 -1.16400E+03 -5.97331E+02 -2.91885E+03
  1.67459E+03 -2.43872E+03  1.70238E+03 -1.10227E+03  2.54691E+03 -6.34084E+01  1.23184E+03  1.54960E+03
  6.51148E+02  2.19772E+03 -1.13961E+03  2.22127E+03 -1.92485E+03  1.07320E+03 -1.35163E+03 -7.17095E+02
 -1.24598E+03 -2.32897E+02 -1.33177E+03  9.07524E+01 -7.94604E+02  5.56571E+02 -1.89409E+03 -4.88764E+02
 -1.81142E+03 -3.51790E+02 -3.28089E+02 -2.10675E+03  1.30695E+03 -2.87752E+03  2.55000E+03 -9.13533E+02
  2.07102E+03  1.35196E+02  8.23408E+02  1.68424E+03 -8.14829E+02  2.33376E+03 -1.47497E+03  2.16495E+03
