 $NMID ID='MM_0lb_SNR400_7hz_g50_3.RAW', FMTDAT='(8E13.5)'
 TRAMP=1., VOLUME=1. $END
  3.09262E+05  6.87697E+02  3.38697E+05  2.50565E+05  8.51404E+04  3.38560E+05 -1.32236E+05  2.51915E+05
 -1.91242E+05  8.38759E+04 -1.13138E+05 -3.23316E+04  1.16912E+03 -5.04855E+04  5.39457E+04 -1.19154E+03
  3.51620E+04  5.23858E+04 -1.71966E+04  7.59775E+04 -6.08769E+04  6.49914E+04 -8.52080E+04  3.25942E+04
 -8.26751E+04 -1.17389E+04 -5.92844E+04 -5.23422E+04 -1.52028E+04 -7.18230E+04  2.83601E+04 -4.68893E+04
  4.15385E+04  3.95203E+03  1.61295E+04  4.87444E+04 -3.46237E+04  4.89119E+04 -6.79313E+04  8.14379E+02
 -5.53059E+04 -5.87054E+04 -7.64986E+03 -7.97316E+04  3.48202E+04 -5.73896E+04  5.00880E+04 -1.89451E+04
  4.52680E+04  1.18624E+04  3.35483E+04  2.67360E+04  1.52412E+04  3.14570E+04 -5.09202E+03  2.76866E+04
 -2.25489E+04  1.21776E+04 -1.77463E+04 -5.47137E+03  7.54036E+03 -7.72907E+03  2.35477E+04  1.46735E+04
  7.73888E+03  3.88437E+04 -3.45806E+04  3.81166E+04 -6.52641E+04  1.61448E+03 -5.83897E+04 -4.53751E+04
 -1.23263E+04 -6.64842E+04  4.21695E+04 -4.87063E+04  6.19510E+04 -2.94364E+03  3.77652E+04  3.53692E+04
 -4.54035E+03  4.08999E+04 -3.26143E+04  1.98867E+04 -3.44325E+04 -3.41789E+03 -2.03994E+04 -1.25990E+04
 -1.00939E+04 -1.65408E+04 -9.96621E+02 -1.99678E+04  8.76344E+03 -2.41248E+04  1.63735E+04 -1.22681E+04
  1.02808E+04  6.07129E+03 -1.07674E+04  1.33528E+04 -2.41744E+04 -7.08376E+03 -8.92773E+03 -3.80486E+04
  2.58346E+04 -4.80463E+04  5.37802E+04 -2.14110E+04  4.91496E+04  2.08314E+04  1.77858E+04  4.80333E+04
 -1.66981E+04  3.78364E+04 -2.89343E+04  4.06817E+03 -1.30446E+04 -2.92654E+04  2.19309E+04 -3.76721E+04
  4.54319E+04 -1.21751E+04  4.18654E+04  2.65642E+04  2.21696E+04  5.33769E+04 -8.57610E+03  5.82638E+04
 -3.74763E+04  3.96369E+04 -4.97081E+04  1.12406E+04 -5.03989E+04 -1.83624E+04 -2.71114E+04 -4.32747E+04
  6.91689E+03 -4.33258E+04  3.62969E+04 -1.81429E+04  3.34069E+04  1.07871E+04  5.01686E+03  2.24979E+04
 -1.40269E+04  9.62690E+03 -1.20062E+04 -7.52620E+03  5.97588E+03 -1.23437E+04  1.87776E+04  4.87303E+03
  1.50936E+04  2.35263E+04 -5.20778E+03  2.81540E+04 -2.44437E+04  1.48017E+04 -3.26000E+04 -1.60099E+03
 -2.69390E+04 -1.97360E+04 -1.31409E+04 -2.66813E+04  4.50489E+03 -2.77248E+04  2.15802E+04 -2.56441E+04
  3.57157E+04 -1.44984E+04  4.11178E+04  6.03375E+03  2.84425E+04  2.62952E+04  3.92323E+03  4.31112E+04
 -2.09887E+04  3.56504E+04 -3.13955E+04  1.26577E+04 -2.36535E+04 -9.82131E+03 -5.79923E+03 -1.20627E+04
  5.95264E+02 -2.70980E+01 -7.92371E+03  9.74422E+03 -2.22088E+04  5.30813E+03 -2.12119E+04 -1.09412E+04
 -1.25514E+04 -2.54008E+04  6.51271E+03 -2.93411E+04  2.06685E+04 -2.03166E+04  2.55425E+04 -1.83551E+03
  1.55602E+04  1.76511E+04 -1.07248E+03  2.47090E+04 -1.74571E+04  1.52405E+04 -2.50424E+04 -5.38036E+03
 -1.90756E+04 -2.29532E+04 -1.32429E+03 -3.09192E+04  1.41328E+04 -2.48317E+04  2.48892E+04 -1.44648E+04
  2.41374E+04 -1.25222E+03  1.76989E+04  5.49157E+03  9.54308E+03  2.19643E+03  1.35301E+04 -3.20701E+03
  2.43690E+04  2.37076E+03  2.84017E+04  1.90222E+04  1.98798E+04  4.09445E+04 -2.82966E+03  4.80623E+04
 -2.77577E+04  4.07500E+04 -4.58764E+04  2.16596E+04 -4.98669E+04 -4.32112E+03 -3.99989E+04 -2.94472E+04
 -1.46474E+04 -4.15692E+04  1.42389E+04 -3.53344E+04  3.08759E+04 -1.64614E+04  2.60292E+04  8.84339E+03
  9.01648E+03  2.03056E+04 -1.32936E+04  1.70188E+04 -2.17711E+04  2.27963E+03 -1.70065E+04 -1.33919E+04
  5.24009E+02 -2.01845E+04  1.12393E+04 -1.61257E+04  1.44583E+04 -1.63962E+03  4.13495E+03  8.81895E+03
 -9.49188E+03  5.08888E+03 -1.00142E+04 -7.27795E+03 -2.69783E+03 -2.04305E+04  1.33539E+04 -2.32887E+04
  2.59772E+04 -1.30175E+04  3.04050E+04  3.42114E+03  2.64802E+04  2.17764E+04  1.25899E+04  3.29939E+04
 -6.35177E+03  3.44500E+04 -2.28286E+04  2.09306E+04 -2.59725E+04  5.20760E+03 -1.73024E+04 -6.82408E+03
 -5.71802E+03 -7.92204E+03  3.29823E+02  9.17218E+02 -3.12460E+03  3.12433E+03 -8.71070E+03  5.85307E+03
 -1.56754E+04 -5.53807E+02 -1.59716E+04 -1.31390E+04 -7.12424E+03 -2.09042E+04  8.06624E+03 -1.80234E+04
  1.41854E+04 -8.04573E+03  1.01331E+04  4.59566E+03  4.79917E+02  7.34797E+03 -9.02274E+03 -1.07596E+03
 -8.78982E+03 -1.15464E+04 -1.86432E+03 -1.79422E+04  1.12887E+04 -1.84411E+04  2.35382E+04 -1.03669E+04
  2.69319E+04  3.59580E+03  2.06617E+04  1.70868E+04  4.54810E+03  2.27650E+04 -1.03945E+04  1.76194E+04
 -1.44597E+04  5.03659E+03 -7.40890E+03 -4.13544E+03  2.54432E+03 -4.66119E+03  9.84297E+03 -9.06553E+02
  8.78111E+03  7.87087E+03  1.03774E+03  1.41342E+04 -9.75943E+03  1.35165E+04 -1.80408E+04  2.12842E+03
 -1.30324E+04 -9.44192E+03  4.28904E+02 -1.63331E+04  1.00937E+04 -8.24887E+03  1.12348E+04  4.13033E+03
  2.76956E+03  1.15888E+04 -9.32550E+03  1.43339E+04 -1.64812E+04  5.54333E+03 -1.72515E+04 -6.71803E+03
 -9.74506E+03 -1.97349E+04  5.21437E+03 -2.14702E+04  1.81853E+04 -1.18001E+04  2.06932E+04  4.00234E+03
  1.18908E+04  1.57217E+04 -2.36131E+03  1.90700E+04 -1.41113E+04  9.45089E+03 -1.52083E+04 -1.76062E+03
 -1.19916E+04 -1.26966E+04 -2.05230E+03 -1.51040E+04  7.91039E+03 -1.12174E+04  9.34251E+03 -3.30256E+03
  5.18833E+03  2.52184E+03 -1.68925E+03  2.38473E+03 -1.54599E+03 -4.79183E+03  3.94043E+03 -9.33012E+03
  1.46407E+04 -6.85044E+03  1.98619E+04  2.15951E+03  1.93819E+04  1.40651E+04  1.24680E+04  2.51502E+04
 -5.88791E+03  2.97228E+04 -2.33198E+04  2.17234E+04 -3.10400E+04  4.84097E+03 -2.51787E+04 -1.04155E+04
 -1.22432E+04 -2.12544E+04  1.13191E+01 -1.78633E+04  7.03699E+03 -1.08975E+04  6.30439E+03 -6.70882E+03
  4.25513E+03 -3.71647E+03  3.83618E+03 -3.82616E+03  5.80385E+03 -3.97229E+03  9.72223E+03 -1.59768E+03
  1.32387E+04  3.05363E+03  7.42864E+03  1.18356E+04 -2.68625E+03  1.44218E+04 -1.33586E+04  1.13300E+04
 -1.73708E+04 -1.51551E+03 -1.22356E+04 -1.28499E+04 -2.03985E+03 -2.05541E+04  9.51530E+03 -1.91112E+04
  2.04150E+04 -1.11903E+04  2.40904E+04  4.16939E+03  1.57619E+04  1.73673E+04  1.83054E+03  2.22036E+04
 -9.64517E+03  1.73100E+04 -1.27821E+04  5.89321E+03 -9.61296E+03 -2.38217E+03 -4.52564E+03 -2.78092E+03
 -2.25071E+03  1.65070E+02 -3.46661E+03  3.60510E+03 -6.89713E+03  3.05465E+03 -1.31340E+04 -2.33680E+03
 -8.13552E+03 -1.20177E+04 -4.18572E+02 -1.74474E+04  1.17766E+04 -1.64083E+04  1.87229E+04 -4.98826E+03
  1.84810E+04  8.18021E+03  8.64248E+03  1.59162E+04 -3.48807E+03  1.84802E+04 -1.35268E+04  1.12588E+04
 -1.75931E+04 -3.79034E+02 -1.31159E+04 -1.08476E+04 -1.02141E+03 -1.48325E+04  7.91529E+03 -1.18367E+04
  1.11633E+04 -3.56886E+03  8.11953E+03  3.15310E+03  2.80806E+03  5.62495E+03  2.00338E+03  2.12953E+03
  3.52158E+03  1.82943E+03  4.41311E+03  1.79478E+03  5.05865E+03  5.85411E+03  4.61766E+03  1.05252E+04
 -3.29291E+03  1.54627E+04 -1.28019E+04  1.44184E+04 -2.02842E+04  4.52208E+03 -2.04226E+04 -8.81977E+03
 -1.04162E+04 -1.89154E+04  2.16048E+03 -2.11759E+04  1.22793E+04 -1.37852E+04  1.64857E+04 -2.82353E+03
  1.22551E+04  6.93432E+03  1.73872E+03  1.19143E+04 -4.88335E+03  8.27970E+03 -8.16308E+03 -1.50201E+03
 -3.73897E+03 -9.09975E+03  4.39703E+03 -9.23883E+03  8.49818E+03 -4.27799E+03  7.75307E+03  1.93578E+03
  4.39294E+03  4.11809E+03  1.67264E+03  2.87945E+03 -4.22858E+02  1.73712E+03  1.98105E+03 -1.06389E+03
  3.68732E+03 -1.34516E+03  8.82773E+03  3.01491E+03  5.24386E+03  1.00976E+04 -1.08637E+03  1.23383E+04
 -1.00475E+04  9.78478E+03 -1.29920E+04  3.37762E+03 -1.08994E+04 -4.80714E+03 -4.92710E+03 -8.96981E+03
  9.29162E+02 -8.08763E+03  4.93336E+03 -3.69402E+03  5.65508E+03  3.46506E+03 -1.97796E+03  6.61454E+03
 -7.69913E+03  4.65339E+03 -9.96703E+03 -5.01043E+03 -6.18334E+03 -1.02254E+04  2.59702E+03 -1.10709E+04
  7.18076E+03 -7.38478E+03  8.68280E+03 -1.20007E+03  5.74114E+03  2.97110E+03  6.27612E+02  5.33407E+03
 -4.60564E+03  1.75197E+03 -4.90984E+03 -4.68964E+03  1.37382E+03 -9.15335E+03  9.44385E+03 -7.32193E+03
  1.33962E+04  1.02793E+03  1.18304E+04  8.92982E+03  3.88657E+03  1.38804E+04 -5.43990E+03  1.33127E+04
 -1.16922E+04  6.49098E+03 -1.12104E+04 -8.68314E+02 -6.29539E+03 -8.52204E+03  1.27339E+03 -8.64978E+03
  8.21315E+03 -5.07961E+03  6.83104E+03  4.10259E+03  2.71950E+03  7.83394E+03 -1.84340E+03  6.21587E+03
 -2.83261E+03  2.94507E+03 -3.20085E+03  1.19502E+03 -2.56242E+03  2.17841E+03 -1.63423E+03  3.12849E+03
 -2.84943E+03  4.59856E+03 -9.79043E+03  5.68576E+03 -1.37556E+04  8.93059E+01 -1.53912E+04 -9.49533E+03
 -7.85968E+03 -1.82617E+04  4.29939E+03 -2.18106E+04  1.30658E+04 -1.60888E+04  2.03185E+04 -6.20715E+03
  1.83826E+04  3.98832E+03  1.16007E+04  1.29202E+04  1.96577E+03  1.47149E+04 -5.86665E+03  1.15273E+04
 -7.80672E+03  3.79944E+03 -4.59345E+03 -2.06573E+03 -2.11752E+03 -1.03966E+03 -1.51037E+03  1.06755E+02
 -3.32335E+03  6.25860E+02 -3.61691E+03 -1.85427E+02 -1.34143E+03 -3.49493E+03  2.67348E+02 -5.53085E+03
  6.31550E+03 -4.44420E+03  9.13384E+03  4.46034E+02  1.03786E+04  7.82784E+03  3.33877E+03  1.45247E+04
 -6.57825E+03  1.63845E+04 -1.59663E+04  1.03845E+04 -1.88793E+04 -2.17241E+03 -1.34101E+04 -1.01238E+04
 -4.80181E+03 -1.56919E+04  3.90919E+03 -1.40433E+04  9.69516E+03 -7.45650E+03  1.00445E+04  6.04713E+02
  5.04873E+03  5.28209E+03 -4.10911E+02  3.57445E+03 -3.40670E+03 -7.04664E+02 -2.86977E+02 -4.82371E+03
  5.08237E+03 -2.57112E+03  6.03465E+03  1.34963E+03  4.09807E+03  6.13819E+03 -3.17810E+02  8.19277E+03
 -8.48450E+03  6.79549E+03 -1.11539E+04  9.78891E+02 -8.77342E+03 -8.28421E+03 -2.65693E+03 -1.31389E+04
  7.81002E+03 -1.04157E+04  1.26702E+04 -3.65225E+03  1.17870E+04  3.11776E+03  6.31249E+03  1.02054E+04
  6.79902E+02  1.14063E+04 -4.51731E+03  8.33399E+03 -7.71998E+03  3.95909E+03 -6.97786E+03  4.44813E+01
 -2.82761E+03 -1.85180E+02 -2.91163E+03  1.79892E+03 -4.61864E+03  2.08133E+03 -8.53999E+03 -1.29314E+03
 -7.37665E+03 -5.56316E+03 -1.80367E+03 -1.07931E+04  5.17666E+03 -1.16383E+04  8.58720E+03 -5.62968E+03
  1.06339E+04  1.14550E+03  5.65513E+03  7.25360E+03 -1.40214E+03  1.08279E+04 -9.21130E+03  7.49196E+03
