 $NMID ID='MM_0lb_SNR400_17hz_g40_100.RAW', FMTDAT='(8E13.5)'
 TRAMP=1., VOLUME=1. $END
  3.10081E+05  1.16431E+02  3.37307E+05  2.49782E+05  8.46517E+04  3.37365E+05 -1.32590E+05  2.49896E+05
 -1.89887E+05  8.28664E+04 -1.10855E+05 -3.30716E+04  1.33691E+03 -5.03434E+04  5.40304E+04  5.01062E+02
  3.55419E+04  5.28689E+04 -1.71219E+04  7.53336E+04 -6.03598E+04  6.25761E+04 -8.29197E+04  3.18071E+04
 -8.00441E+04 -1.18834E+04 -5.65375E+04 -4.99941E+04 -1.52538E+04 -6.84442E+04  2.67197E+04 -4.48819E+04
  3.88251E+04  4.03151E+03  1.54552E+04  4.79112E+04 -3.47537E+04  4.63356E+04 -6.50585E+04  1.07548E+02
 -5.17864E+04 -5.59028E+04 -5.64896E+03 -7.55598E+04  3.35159E+04 -5.29849E+04  4.63456E+04 -1.62376E+04
  4.19291E+04  1.11983E+04  3.06508E+04  2.51295E+04  1.60625E+04  2.89198E+04 -4.81063E+03  2.70997E+04
 -2.20406E+04  1.29915E+04 -1.88026E+04 -4.69181E+03  4.29371E+03 -7.17305E+03  2.16930E+04  1.12424E+04
  6.77110E+03  3.31716E+04 -3.06723E+04  3.47756E+04 -6.08716E+04  2.35061E+03 -5.48346E+04 -4.16968E+04
 -1.28241E+04 -6.10502E+04  3.81205E+04 -4.36144E+04  5.56899E+04 -1.84789E+03  3.19674E+04  3.06341E+04
 -6.57891E+03  3.25346E+04 -2.83848E+04  1.38677E+04 -2.78790E+04 -5.54680E+03 -1.49750E+04 -9.92678E+03
 -7.45634E+03 -1.05577E+04 -8.41149E+02 -1.63813E+04  6.56560E+03 -2.25299E+04  1.49489E+04 -1.44986E+04
  1.25528E+04  4.27338E+03 -6.79832E+03  1.29176E+04 -1.96928E+04 -2.98391E+03 -7.80641E+03 -3.07688E+04
  2.14740E+04 -4.07000E+04  4.50492E+04 -1.83478E+04  4.25354E+04  1.82194E+04  1.44626E+04  4.19374E+04
 -1.57246E+04  3.08800E+04 -2.35131E+04  8.75391E+02 -8.36241E+03 -2.66781E+04  2.06660E+04 -3.10257E+04
  3.86492E+04 -7.30300E+03  3.14339E+04  2.31161E+04  1.60982E+04  4.31675E+04 -8.07400E+03  4.59810E+04
 -2.93346E+04  3.04519E+04 -3.78555E+04  8.36275E+03 -3.89875E+04 -1.52719E+04 -2.15513E+04 -3.45656E+04
  7.13993E+03 -3.51228E+04  2.97242E+04 -1.28857E+04  2.68105E+04  1.11801E+04  3.32103E+03  1.82760E+04
 -1.35371E+04  7.77941E+03 -9.67777E+03 -8.29800E+03  6.35088E+03 -9.76002E+03  1.71051E+04  6.32334E+03
  1.23796E+04  2.19134E+04 -6.47001E+03  2.32701E+04 -2.19336E+04  9.61493E+03 -2.48476E+04 -6.05645E+03
 -1.73221E+04 -1.63896E+04 -6.24720E+03 -1.75273E+04  4.26479E+03 -1.50570E+04  1.27319E+04 -1.52599E+04
  2.19651E+04 -1.16747E+04  2.87460E+04  1.03106E+03  2.12731E+04  1.68168E+04  3.91597E+03  3.25138E+04
 -1.61306E+04  2.80182E+04 -2.56499E+04  9.46111E+03 -2.00381E+04 -1.00566E+04 -3.69234E+03 -1.41398E+04
  2.63583E+03 -4.14091E+03 -3.06057E+03  5.33604E+03 -1.34892E+04  5.26857E+03 -1.40105E+04 -4.84675E+03
 -8.70095E+03 -1.56650E+04  4.00416E+03 -1.96382E+04  1.31206E+04 -1.46950E+04  1.51167E+04 -1.48610E+03
  9.73653E+03  1.13194E+04 -4.63703E+02  1.60406E+04 -1.07114E+04  9.02325E+03 -1.54138E+04 -3.78559E+03
 -1.17320E+04 -1.42231E+04 -1.52017E+03 -1.93273E+04  8.46218E+03 -1.59926E+04  1.61881E+04 -7.84423E+03
  1.53670E+04  9.73833E+02  1.13998E+04  4.14101E+03  5.31163E+03  2.46841E+02  8.26121E+03 -1.24652E+03
  1.46080E+04  2.53525E+03  1.56655E+04  1.33088E+04  9.60826E+03  2.55035E+04 -3.45863E+03  2.73612E+04
 -1.66704E+04  2.10285E+04 -2.54364E+04  1.05253E+04 -2.61861E+04 -2.63972E+03 -2.25597E+04 -1.45856E+04
 -1.04311E+04 -2.16582E+04  7.35665E+03 -2.02788E+04  1.68255E+04 -1.12697E+04  1.61077E+04  3.57997E+03
  6.53402E+03  1.16338E+04 -7.30367E+03  1.08367E+04 -1.36358E+04  2.41736E+03 -1.04194E+04 -8.43374E+03
 -3.08390E+02 -1.26820E+04  6.51477E+03 -9.60513E+03  8.34919E+03 -1.38287E+03  1.39734E+03  5.21783E+03
 -5.51132E+03  1.01751E+03 -3.89556E+03 -4.89566E+03  8.47954E+02 -1.11016E+04  8.12475E+03 -1.07458E+04
  1.29070E+04 -5.26807E+03  1.30283E+04  2.96104E+03  1.10608E+04  1.05614E+04  5.55872E+03  1.52443E+04
 -1.37958E+03  1.70744E+04 -9.76433E+03  1.02908E+04 -1.16697E+04  2.80284E+03 -8.56292E+03 -2.11381E+03
 -4.50404E+03 -3.57362E+03 -1.09830E+03  9.69826E+02 -2.10374E+03  2.17908E+03 -3.71121E+03  3.36084E+03
 -8.36356E+03 -2.80699E+02 -9.24115E+03 -7.19497E+03 -4.21617E+03 -1.19336E+04  3.36683E+03 -9.19020E+03
  7.54468E+03 -3.95801E+03  5.71328E+03  2.40673E+03  1.89217E+02  2.73855E+03 -3.80320E+03  2.09398E+02
 -3.75817E+03 -5.16390E+03 -2.90398E+02 -7.76765E+03  4.32129E+03 -9.02285E+03  9.84101E+03 -4.77101E+03
  1.25934E+04  7.32925E+02  9.21832E+03  6.70701E+03  2.08934E+03  9.75148E+03 -5.25008E+03  8.35948E+03
 -6.47546E+03  2.25800E+03 -2.76192E+03 -1.45669E+03  1.66819E+03 -1.73837E+03  4.82374E+03 -8.76938E+02
  4.56707E+03  3.80700E+03  9.49261E+02  7.11672E+03 -5.11790E+03  6.65042E+03 -8.15716E+03  1.93694E+03
 -5.68714E+03 -3.89439E+03  3.17867E+02 -7.02856E+03  4.13413E+03 -2.96507E+03  3.20414E+03  1.19304E+03
  1.20935E+03  3.89806E+03 -4.24286E+03  5.75068E+03 -5.39674E+03  2.22470E+03 -4.93409E+03 -1.51855E+03
 -3.15708E+03 -6.84529E+03  1.58288E+03 -8.10643E+03  6.86734E+03 -4.92345E+03  6.79745E+03  5.20185E+02
  4.97627E+03  5.70008E+03 -3.60951E+02  7.92737E+03 -5.40985E+03  4.47402E+03 -5.80148E+03 -3.87682E+02
 -5.97680E+03 -5.29054E+03 -1.15909E+03 -6.08096E+03  2.58111E+03 -4.67802E+03  3.24279E+03 -3.12664E+03
  2.71340E+03  2.47946E+02  1.15623E+02  9.53218E+02  2.11128E+02 -2.67001E+02  5.92954E+02 -1.74009E+03
  4.57768E+03 -7.66956E+02  6.66033E+03  7.60857E+02  6.46711E+03  3.10440E+03  5.96624E+03  8.15881E+03
 -4.64834E+02  9.49580E+03 -8.22299E+03  7.14856E+03 -1.16235E+04  7.38827E+02 -9.33012E+03 -2.96901E+03
 -4.74182E+03 -7.14365E+03 -3.33486E+02 -6.13819E+03  2.34228E+03 -2.95393E+03  2.10704E+03 -2.45138E+03
  1.75135E+03 -8.95399E+02  1.84000E+03 -2.32662E+03  3.89313E+03 -1.10541E+03  3.48722E+03  5.61863E+02
  5.44825E+03  1.28898E+03  1.30134E+03  4.02282E+03 -1.56516E+03  3.51792E+03 -4.89576E+03  3.24448E+03
 -5.14264E+03 -7.98414E+02 -2.55732E+03 -3.76708E+03  1.50853E+02 -5.74473E+03  3.39960E+03 -6.23905E+03
  6.08168E+03 -3.38450E+03  7.40452E+03  6.79670E+02  5.75834E+03  5.07436E+03  1.33052E+03  6.57616E+03
 -2.48720E+03  6.56588E+03 -3.56119E+03  2.35289E+03 -3.16223E+03 -1.08501E+03 -1.00278E+03 -4.94924E+02
 -7.36636E+02  3.22971E+01 -1.10452E+03  2.30873E+03 -2.70183E+03  1.42141E+03 -4.26332E+03 -4.40001E+02
 -2.16659E+03 -4.23718E+03  6.72947E+02 -5.44519E+03  3.21873E+03 -5.33025E+03  4.27057E+03 -1.20400E+03
  4.01643E+03  2.90992E+03  2.56869E+03  4.13954E+03 -8.21325E+02  4.79720E+03 -3.07509E+03  3.07554E+03
 -4.66854E+03  2.24366E+02 -3.78409E+03 -2.95924E+03 -2.56555E+02 -3.61944E+03  1.80771E+03 -2.85937E+03
  3.44803E+03 -1.37484E+03  1.90711E+03  5.67288E+02  8.31883E+02  2.26987E+03  1.11371E+03  8.57259E+02
  1.26777E+03  5.75718E+02  1.00248E+03  1.25825E+03  1.61145E+03  2.49899E+03  1.51956E+03  2.11351E+03
 -1.85528E+03  3.81516E+03 -2.69684E+03  4.58476E+03 -3.72266E+03  1.19637E+03 -4.53885E+03 -9.77117E+02
 -2.21818E+03 -4.36466E+03  1.00936E+03 -5.50729E+03  2.41170E+03 -3.73568E+03  4.07896E+03 -1.07341E+03
  2.89559E+03  1.50911E+03  2.43265E+02  3.19987E+03 -5.53044E+02  1.80083E+03 -1.48523E+03 -3.19237E+02
 -5.22026E+02 -1.65247E+03  1.58250E+03 -2.02996E+03  1.71875E+03 -1.09045E+03  1.39522E+03  7.04947E+02
  6.14482E+02  3.71003E+02  8.18712E+02 -4.31938E+01 -7.54269E+02  1.15631E+03  1.12968E+03 -2.14501E+02
 -4.01951E+01 -4.07792E+02  1.76989E+03  6.23333E+02  6.01803E+02  2.69309E+03 -1.01938E+03  2.79372E+03
 -1.61954E+03  1.05559E+03 -2.89932E+03  1.97394E+02 -2.42758E+03 -3.82847E+02 -7.32746E+02 -1.32722E+03
  9.31542E+02 -1.57601E+03  1.30800E+03 -7.19719E+02  1.09477E+03  1.50392E+03 -1.26825E+03  1.32261E+03
 -1.81569E+03  7.19836E+02 -1.65722E+03 -1.13258E+03 -1.24493E+03 -2.80445E+03  1.24685E+02 -1.97658E+03
  1.13006E+03 -4.42076E+02  1.38446E+03  3.95812E+02  1.31305E+03  2.06079E+02  4.08291E+02  1.25949E+03
 -4.47236E+02  2.07544E+02 -9.05722E+02 -1.59646E+02  5.16546E+02 -1.70654E+03  1.77244E+03 -1.34935E+03
  1.87440E+03  6.87204E+02  3.48604E+03  1.12566E+03  1.03907E+03  2.64362E+03  2.92493E+02  2.81513E+03
 -1.16821E+03  2.83375E+02 -1.82297E+03  4.27266E+02 -5.80228E+02 -1.96145E+03  6.90046E+02 -1.50655E+03
  1.87185E+03 -7.97033E+02  6.74708E+02  5.46942E+02  4.47918E+02  1.79971E+03 -3.25414E+02  2.08739E+03
 -3.30229E+01  1.35322E+03 -9.67435E+02  6.52803E+02 -6.70403E+01  9.84701E+02 -6.20922E+02  9.55668E+02
 -6.29223E+02  7.37822E+02 -2.33118E+03 -3.57014E+01 -2.65524E+03  5.38185E+02 -3.14579E+03 -1.18743E+03
 -1.47376E+03 -2.89321E+03  8.13200E+02 -3.70245E+03  1.40604E+03 -3.03998E+03  3.89486E+03 -1.36655E+03
  3.49263E+03  3.72969E+02  1.70017E+03  2.36466E+03 -3.24854E+02  1.69164E+03 -1.01480E+03  1.48425E+03
 -9.85408E+02  1.43464E+03 -1.94610E+02 -4.58092E+02 -7.72348E+02  1.89464E+02 -7.17908E+02  3.71936E+02
 -8.68369E+02 -4.20476E+02 -8.37507E+02 -2.21882E+02  5.12064E+02 -1.06407E+03 -3.83631E+02 -8.86470E+02
  1.40287E+03 -7.99338E+02  5.14797E+02  2.43716E+02  1.55083E+03  1.79524E+03 -6.36222E+02  1.48018E+03
 -7.92032E+02  2.96898E+03 -2.60682E+03  1.60469E+03 -2.37037E+03 -4.54510E+02 -2.40045E+03 -1.73807E+03
 -1.42153E+03 -1.32095E+03  6.87729E+02 -1.33004E+03  1.51845E+03 -8.74246E+02  9.92327E+02  8.46515E+01
  9.39886E+02  5.51375E+02  1.38433E+02  3.44471E+02 -5.15376E+02 -1.74950E+02  2.59756E+02 -3.03318E+02
  1.36318E+03 -2.49027E+02  1.43622E+03  8.80475E+02  4.60339E+02  6.86645E+02  1.37069E+02  6.64686E+02
 -4.49439E+02  6.02809E+02 -5.46945E+02 -8.02747E+01 -8.54150E+02 -1.16202E+03  2.12714E+02 -1.57541E+03
  7.50545E+02 -1.52731E+03  6.96916E+02 -5.72033E+01  1.80539E+03 -8.19438E+02  8.77870E+02  9.66969E+02
  5.20707E+02  9.89770E+02 -2.08931E+02  7.29908E+02 -1.37339E+03  1.08869E+03 -8.54100E+02 -2.29091E+02
 -2.56691E+01 -3.36067E+02 -4.62751E+02  4.66946E+02 -1.10894E+03 -2.01906E+02 -8.05729E+02 -1.61523E+02
 -1.17466E+03 -2.62164E+02 -1.45039E+02 -1.32782E+03  1.85834E+02 -2.23639E+03  1.09892E+03 -4.26068E+02
  1.22080E+03  3.52081E+02 -1.08494E+02  7.73718E+02  4.91059E+02  9.72243E+02 -4.94965E+02  9.30405E+02
