 $NMID ID='MM_0lb_SNR400_14hz_g55_87.RAW', FMTDAT='(8E13.5)'
 TRAMP=1., VOLUME=1. $END
  3.10431E+05  8.45559E+02  3.37440E+05  2.51211E+05  8.52270E+04  3.37924E+05 -1.32314E+05  2.51436E+05
 -1.90239E+05  8.36888E+04 -1.11823E+05 -3.20062E+04  8.21720E+02 -5.05031E+04  5.38998E+04 -2.65312E+02
  3.52372E+04  5.31967E+04 -1.72909E+04  7.59841E+04 -6.05221E+04  6.38889E+04 -8.38727E+04  3.15201E+04
 -8.12315E+04 -1.10399E+04 -5.70851E+04 -5.16296E+04 -1.51305E+04 -7.02674E+04  2.77100E+04 -4.58388E+04
  4.00201E+04  4.20096E+03  1.61436E+04  4.77396E+04 -3.40478E+04  4.74646E+04 -6.71546E+04 -9.98228E+02
 -5.39677E+04 -5.62936E+04 -6.80163E+03 -7.72212E+04  3.43977E+04 -5.54090E+04  4.83188E+04 -1.79195E+04
  4.40613E+04  1.16132E+04  3.18664E+04  2.58168E+04  1.56355E+04  3.01543E+04 -5.02181E+03  2.81692E+04
 -2.21935E+04  1.19882E+04 -1.81036E+04 -5.15449E+03  6.60414E+03 -6.93863E+03  2.29726E+04  1.18061E+04
  7.55825E+03  3.63365E+04 -3.24715E+04  3.56609E+04 -6.41593E+04  1.88830E+03 -5.75584E+04 -4.27940E+04
 -1.20941E+04 -6.34783E+04  4.01224E+04 -4.58690E+04  5.87646E+04 -2.58375E+03  3.46158E+04  3.30772E+04
 -5.41411E+03  3.64524E+04 -3.05615E+04  1.60778E+04 -3.08974E+04 -4.36060E+03 -1.77689E+04 -1.13070E+04
 -8.44507E+03 -1.32699E+04 -1.21232E+03 -1.81184E+04  8.18539E+03 -2.28671E+04  1.59647E+04 -1.33311E+04
  1.12198E+04  5.34501E+03 -9.36285E+03  1.26838E+04 -2.23919E+04 -4.64393E+03 -8.44506E+03 -3.41532E+04
  2.32543E+04 -4.44750E+04  4.90874E+04 -1.96223E+04  4.58944E+04  1.94644E+04  1.54909E+04  4.50610E+04
 -1.61328E+04  3.39219E+04 -2.53067E+04  1.76886E+03 -1.04528E+04 -2.74060E+04  2.17847E+04 -3.46140E+04
  4.21681E+04 -9.67566E+03  3.59729E+04  2.38789E+04  1.90128E+04  4.69711E+04 -7.86781E+03  5.17306E+04
 -3.24272E+04  3.42164E+04 -4.29526E+04  1.03749E+04 -4.31210E+04 -1.68472E+04 -2.34451E+04 -3.82500E+04
  7.47460E+03 -3.88832E+04  3.20904E+04 -1.47036E+04  2.99197E+04  1.05289E+04  3.85810E+03  1.94588E+04
 -1.36505E+04  8.90567E+03 -1.02891E+04 -8.02441E+03  5.95107E+03 -1.10672E+04  1.85176E+04  5.26750E+03
  1.38542E+04  2.24903E+04 -5.53009E+03  2.58455E+04 -2.33473E+04  1.17875E+04 -2.84446E+04 -4.21590E+03
 -2.16309E+04 -1.79502E+04 -8.87703E+03 -2.09320E+04  4.72490E+03 -2.03002E+04  1.65293E+04 -1.88282E+04
  2.76662E+04 -1.32641E+04  3.39369E+04  3.30199E+03  2.49696E+04  2.07717E+04  4.46283E+03  3.66928E+04
 -1.84449E+04  3.12455E+04 -2.78857E+04  1.07391E+04 -2.03969E+04 -9.81757E+03 -4.30000E+03 -1.36517E+04
  1.25061E+03 -3.08085E+03 -5.29207E+03  6.92369E+03 -1.66909E+04  5.37121E+03 -1.69952E+04 -7.18787E+03
 -9.80757E+03 -1.99071E+04  5.54496E+03 -2.36619E+04  1.59723E+04 -1.70784E+04  1.84948E+04 -1.33949E+03
  1.19800E+04  1.41408E+04 -1.31270E+03  1.97408E+04 -1.42721E+04  1.07538E+04 -2.00086E+04 -4.44865E+03
 -1.44615E+04 -1.77361E+04 -1.91333E+03 -2.38129E+04  1.11487E+04 -1.99130E+04  1.97511E+04 -9.55356E+03
  1.82714E+04  4.90304E+02  1.38069E+04  4.10869E+03  7.01133E+03  1.16034E+03  1.05526E+04 -1.41950E+03
  1.74533E+04  3.30665E+03  1.99156E+04  1.55716E+04  1.31620E+04  3.09140E+04 -2.24734E+03  3.59380E+04
 -2.03960E+04  2.82148E+04 -3.26363E+04  1.41082E+04 -3.48171E+04 -2.70978E+03 -2.87805E+04 -1.94259E+04
 -1.24832E+04 -2.89900E+04  1.02475E+04 -2.59313E+04  2.24120E+04 -1.23660E+04  2.01949E+04  5.63328E+03
  7.31316E+03  1.51626E+04 -9.22606E+03  1.33611E+04 -1.60838E+04  3.18010E+03 -1.29796E+04 -1.03913E+04
  2.67502E+02 -1.58775E+04  8.31453E+03 -1.22828E+04  1.04637E+04 -1.56731E+03  2.39306E+03  7.08125E+03
 -7.08747E+03  2.70955E+03 -6.01132E+03 -5.98096E+03 -3.75605E+02 -1.45099E+04  9.45913E+03 -1.44867E+04
  1.79908E+04 -7.72079E+03  1.86074E+04  3.31384E+03  1.64030E+04  1.32409E+04  7.44459E+03  2.19328E+04
 -2.82262E+03  2.37513E+04 -1.51464E+04  1.41007E+04 -1.68132E+04  3.70654E+03 -1.19103E+04 -4.65348E+03
 -5.39986E+03 -5.79240E+03 -1.03938E+02  1.41580E+03 -2.76218E+03  2.97722E+03 -5.87684E+03  4.69998E+03
 -1.05633E+04 -7.83176E+02 -1.13472E+04 -9.50292E+03 -4.03535E+03 -1.47093E+04  4.33440E+03 -1.20236E+04
  9.78045E+03 -5.26197E+03  7.13443E+03  3.51101E+03 -2.47520E+02  4.71432E+03 -5.61979E+03  2.69706E+02
 -5.47976E+03 -7.08729E+03 -1.28520E+03 -1.14827E+04  6.37409E+03 -1.21099E+04  1.51740E+04 -5.58959E+03
  1.72054E+04  9.80604E+02  1.28869E+04  9.96327E+03  2.55050E+03  1.34161E+04 -6.99717E+03  1.16095E+04
 -9.47060E+03  3.48291E+03 -5.27868E+03 -2.10000E+03  2.26050E+03 -2.27353E+03  6.53251E+03 -1.10569E+03
  5.57510E+03  4.72545E+03  1.74775E+03  9.29003E+03 -6.69924E+03  8.97735E+03 -1.15278E+04  2.56723E+03
 -8.23952E+03 -5.55579E+03  4.19147E+02 -9.56038E+03  5.31733E+03 -5.15390E+03  6.27782E+03  2.21464E+03
  1.65256E+03  6.04560E+03 -6.12063E+03  7.71055E+03 -9.10581E+03  4.03114E+03 -8.58470E+03 -2.81169E+03
 -5.52746E+03 -1.00856E+04  2.64918E+03 -1.16352E+04  9.92167E+03 -7.19567E+03  1.12247E+04  2.33516E+03
  7.13453E+03  8.67504E+03 -1.10637E+03  1.07740E+04 -7.25145E+03  6.14316E+03 -8.76484E+03 -1.77318E+03
 -7.63312E+03 -6.75742E+03 -9.99935E+02 -8.38534E+03  3.69865E+03 -6.37520E+03  4.50557E+03 -3.63660E+03
  3.72717E+03  1.79959E+03  2.41323E+02  1.96104E+03 -2.49199E+00 -1.63804E+03  1.14042E+03 -4.72302E+03
  6.85050E+03 -2.86264E+03  9.48563E+03  1.44792E+03  9.85046E+03  5.89796E+03  7.20917E+03  1.29054E+04
 -2.57013E+03  1.55044E+04 -1.31214E+04  1.07904E+04 -1.67601E+04  1.31952E+03 -1.31679E+04 -5.57655E+03
 -7.05744E+03 -1.02233E+04 -5.52904E+02 -9.10602E+03  4.07773E+03 -4.35322E+03  2.71850E+03 -3.78123E+03
  2.18662E+03 -2.62363E+03  3.32300E+03 -2.96876E+03  3.66493E+03 -1.83975E+03  5.59668E+03 -1.56683E+02
  6.82754E+03  2.14040E+03  3.03846E+03  5.55696E+03 -1.64966E+03  6.32306E+03 -7.36106E+03  5.12326E+03
 -8.87089E+03 -8.25434E+02 -5.26420E+03 -5.96577E+03  5.26919E+01 -9.59019E+03  5.51252E+03 -8.73727E+03
  9.81053E+03 -5.85256E+03  1.14683E+04  1.14540E+03  8.55982E+03  7.61045E+03  1.08469E+03  1.01996E+04
 -4.39362E+03  9.59645E+03 -6.30250E+03  2.94538E+03 -3.76570E+03 -7.05500E+02 -1.21335E+03 -1.04188E+03
 -4.86770E+02 -4.59074E+01 -1.32196E+03  1.96239E+03 -3.35292E+03  1.71656E+03 -6.31153E+03 -7.15285E+02
 -3.73449E+03 -6.57625E+03 -2.67985E+01 -8.93411E+03  5.01861E+03 -7.98858E+03  8.22552E+03 -2.25371E+03
  7.19444E+03  3.93553E+03  3.52974E+03  7.51529E+03 -1.60354E+03  8.42343E+03 -5.17217E+03  5.62414E+03
 -8.19471E+03  3.96399E+02 -6.26266E+03 -4.71609E+03 -1.48664E+02 -7.35784E+03  3.40113E+03 -5.06678E+03
  4.87425E+03 -2.11836E+03  3.55442E+03  1.49340E+03  7.33298E+02  2.99471E+03  1.13139E+03  9.52738E+02
  1.72272E+03  9.83130E+02  2.35574E+03  1.36546E+03  2.63571E+03  3.21829E+03  2.66538E+03  4.01797E+03
 -1.55805E+03  6.77175E+03 -5.59530E+03  6.34517E+03 -7.59084E+03  1.61613E+03 -8.57881E+03 -2.36950E+03
 -3.83140E+03 -8.06982E+03  1.81056E+03 -8.55878E+03  4.57159E+03 -6.32683E+03  6.11271E+03 -2.30278E+03
  4.60354E+03  3.14387E+03  8.29062E+02  4.83248E+03 -2.55047E+03  2.74573E+03 -3.48366E+03 -1.38506E+02
 -6.46534E+02 -3.33835E+03  2.41461E+03 -3.48324E+03  3.54902E+03 -1.67781E+03  3.09632E+03  7.41624E+02
  2.44703E+03  1.04314E+03  1.01028E+03  2.57042E+01 -2.84318E+02  1.15356E+03  1.43485E+03 -8.04072E+02
  8.95657E+02 -6.90462E+02  3.39741E+03  1.16059E+03  1.26995E+03  4.72216E+03 -1.46461E+02  5.53152E+03
 -3.72753E+03  3.36403E+03 -4.48946E+03  4.63724E+02 -3.75331E+03 -2.12916E+03 -1.15970E+03 -2.56176E+03
  8.34886E+02 -2.71140E+03  2.17011E+03 -1.03303E+03  1.49313E+03  1.71261E+03 -1.46674E+03  2.46317E+03
 -3.05025E+03  1.97226E+03 -3.35299E+03 -1.86119E+03 -1.72155E+03 -3.56847E+03  5.45943E+02 -4.44404E+03
  1.88210E+03 -1.99694E+03  2.30830E+03 -5.76767E+02  2.53061E+03  4.84321E+02  5.63454E+02  2.10468E+03
 -1.63043E+03  6.56656E+02 -1.67840E+03 -1.18889E+03  1.33543E+03 -2.97518E+03  3.34440E+03 -2.25224E+03
  4.12530E+03  1.91399E+02  4.61447E+03  2.31473E+03  1.48954E+03  4.38057E+03 -1.29921E+03  3.83853E+03
 -3.42503E+03  1.67270E+03 -4.01134E+03  3.67440E+02 -2.18306E+03 -2.61869E+03  6.66268E+02 -2.08345E+03
  3.09713E+03 -1.84865E+03  2.32495E+03  1.59301E+03  6.42708E+02  2.09768E+03 -2.04206E+02  1.48968E+03
 -1.11715E+03  2.29148E+03 -1.13655E+03  1.14013E+03 -1.85137E+02  4.65687E+02 -7.85166E+02  9.02029E+02
 -1.33186E+03  1.55798E+03 -3.58307E+03  1.54697E+03 -4.84553E+03  9.71769E+01 -5.10296E+03 -3.31536E+03
 -2.66951E+03 -5.79497E+03  8.09738E+02 -6.56997E+03  3.04403E+03 -5.65754E+03  6.33323E+03 -1.94912E+03
  5.74036E+03  4.98737E+02  3.27185E+03  4.17613E+03  3.02405E+02  3.98562E+03 -1.21227E+03  3.40023E+03
 -2.72573E+03  1.47306E+03 -9.01739E+02 -6.59592E+02 -7.87259E+02  3.28525E+02 -1.07554E+03  2.42042E+02
 -1.42141E+03  2.16999E+02 -1.36866E+03  1.04150E+02 -1.51508E+02 -1.86246E+03  1.94308E+02 -1.13115E+03
  3.04564E+03 -1.50954E+03  1.88773E+03 -5.72476E+02  3.72012E+03  2.66209E+03 -3.33456E+02  3.82046E+03
 -1.85259E+03  5.42416E+03 -4.38810E+03  2.22709E+03 -4.64109E+03 -5.22974E+02 -2.97250E+03 -3.32505E+03
 -2.00805E+03 -4.27818E+03  8.96159E+02 -2.85701E+03  1.66116E+03 -1.38095E+03  2.20652E+03  3.45392E+02
  1.83393E+03  1.84348E+03 -2.45696E+02  1.45562E+03 -1.04459E+03 -6.25837E+02  8.18592E+01 -5.11531E+02
  9.90168E+02 -3.00638E+02  8.46279E+02  5.25441E+02  4.12027E+02  1.86640E+03  3.81600E+02  2.42167E+03
 -1.97885E+03  1.66931E+03 -2.08260E+03 -3.19769E+02 -2.51053E+03 -1.87314E+03 -5.52005E+02 -3.52126E+03
  1.75954E+03 -2.13805E+03  2.58257E+03 -7.73468E+02  2.37064E+03  5.27336E+02  1.63821E+03  2.17311E+03
  4.01001E+02  2.31726E+03 -1.03388E+03  2.04579E+03 -9.87842E+02  1.49596E+03 -1.23371E+03  8.63200E+02
 -7.81073E+02 -1.74659E+02 -1.03239E+03  6.99770E+02 -1.28294E+03  4.68384E+02 -1.99818E+03 -9.82991E+02
 -1.80566E+03 -1.11120E+03 -4.41370E+02 -3.24578E+03  1.59557E+03 -3.52421E+03  2.04762E+03 -1.04912E+02
  2.73459E+03  2.87423E+02  5.00250E+02  1.50702E+03 -6.80206E+02  2.50955E+03 -1.48580E+03  1.69270E+03
