 $NMID ID='MM_0lb_SNR400_10hz_g40_41.RAW', FMTDAT='(8E13.5)'
 TRAMP=1., VOLUME=1. $END
  3.09644E+05  4.08721E+02  3.37951E+05  2.51204E+05  8.49890E+04  3.38242E+05 -1.32467E+05  2.51094E+05
 -1.90487E+05  8.35460E+04 -1.11930E+05 -3.23386E+04  3.62076E+02 -4.97449E+04  5.42188E+04 -2.78983E+02
  3.55513E+04  5.28996E+04 -1.72870E+04  7.58761E+04 -6.15406E+04  6.43950E+04 -8.48297E+04  3.16605E+04
 -8.21760E+04 -1.16705E+04 -5.74573E+04 -5.21565E+04 -1.52608E+04 -7.05288E+04  2.83297E+04 -4.56939E+04
  4.12791E+04  3.73958E+03  1.62837E+04  4.75778E+04 -3.50282E+04  4.72524E+04 -6.77916E+04  5.67535E+02
 -5.41916E+04 -5.69957E+04 -6.80700E+03 -7.77802E+04  3.46838E+04 -5.47358E+04  4.89367E+04 -1.77535E+04
  4.48162E+04  1.22031E+04  3.27757E+04  2.62292E+04  1.57481E+04  3.03565E+04 -5.63472E+03  2.76096E+04
 -2.25198E+04  1.24884E+04 -1.83818E+04 -5.66813E+03  5.79856E+03 -8.50804E+03  2.34018E+04  1.31794E+04
  6.95046E+03  3.66407E+04 -3.34903E+04  3.62286E+04 -6.45888E+04  1.89163E+03 -5.85322E+04 -4.41175E+04
 -1.23425E+04 -6.45526E+04  4.05165E+04 -4.64950E+04  6.00106E+04 -2.46239E+03  3.54235E+04  3.42796E+04
 -5.62264E+03  3.83223E+04 -3.02382E+04  1.72038E+04 -3.19706E+04 -3.67906E+03 -1.82681E+04 -1.18941E+04
 -9.00840E+03 -1.45307E+04 -2.81475E+02 -1.86509E+04  8.80388E+03 -2.40848E+04  1.53563E+04 -1.21557E+04
  1.10683E+04  6.08972E+03 -9.18154E+03  1.31975E+04 -2.24517E+04 -6.81859E+03 -7.96780E+03 -3.62406E+04
  2.35434E+04 -4.60292E+04  5.05105E+04 -1.99047E+04  4.80029E+04  1.97838E+04  1.69168E+04  4.55975E+04
 -1.63282E+04  3.43433E+04 -2.71290E+04  2.08365E+03 -1.05890E+04 -2.89912E+04  2.18635E+04 -3.60009E+04
  4.32207E+04 -1.02863E+04  3.86530E+04  2.50046E+04  1.97237E+04  4.88180E+04 -8.12794E+03  5.43760E+04
 -3.35733E+04  3.63121E+04 -4.53392E+04  1.08084E+04 -4.55582E+04 -1.75971E+04 -2.49497E+04 -4.00705E+04
  7.89425E+03 -4.07535E+04  3.34280E+04 -1.63036E+04  3.13502E+04  1.13566E+04  3.88086E+03  2.10805E+04
 -1.35150E+04  9.02063E+03 -1.09877E+04 -7.70868E+03  4.72441E+03 -1.10551E+04  1.81897E+04  5.78686E+03
  1.37979E+04  2.23935E+04 -5.49301E+03  2.65788E+04 -2.32226E+04  1.30052E+04 -3.02264E+04 -3.48672E+03
 -2.37366E+04 -1.79386E+04 -1.02154E+04 -2.35199E+04  4.43620E+03 -2.41546E+04  1.85612E+04 -2.07287E+04
  2.97945E+04 -1.44374E+04  3.57227E+04  3.88498E+03  2.61658E+04  2.27853E+04  4.09322E+03  3.95056E+04
 -1.92877E+04  3.30154E+04 -2.86968E+04  1.14493E+04 -2.12559E+04 -9.70871E+03 -4.81576E+03 -1.31971E+04
  1.88415E+03 -1.78693E+03 -6.07155E+03  7.75452E+03 -1.81802E+04  4.61785E+03 -1.90459E+04 -8.43053E+03
 -1.06043E+04 -2.20969E+04  5.78883E+03 -2.57001E+04  1.67604E+04 -1.82102E+04  2.12860E+04 -1.82175E+03
  1.31857E+04  1.46071E+04 -9.79815E+02  2.22072E+04 -1.50411E+04  1.26818E+04 -2.17883E+04 -4.58311E+03
 -1.57330E+04 -1.89882E+04 -1.63817E+03 -2.65885E+04  1.15658E+04 -2.15542E+04  2.18409E+04 -1.06747E+04
  2.04112E+04 -6.43080E+02  1.48020E+04  4.47552E+03  7.06257E+03  1.06762E+03  1.03534E+04 -2.22823E+03
  2.03460E+04  2.93630E+03  2.33718E+04  1.72665E+04  1.51366E+04  3.44621E+04 -2.38645E+03  4.02644E+04
 -2.30533E+04  3.32365E+04 -3.74382E+04  1.69806E+04 -4.03603E+04 -2.79423E+03 -3.22497E+04 -2.30327E+04
 -1.33621E+04 -3.34702E+04  1.18100E+04 -2.86120E+04  2.52599E+04 -1.45780E+04  2.26113E+04  6.41753E+03
  7.79304E+03  1.73979E+04 -1.05750E+04  1.45153E+04 -1.79297E+04  2.37224E+03 -1.36802E+04 -1.15665E+04
  1.48161E+02 -1.78114E+04  9.66290E+03 -1.35259E+04  1.17178E+04 -1.99516E+03  2.81268E+03  8.27086E+03
 -8.02917E+03  3.12749E+03 -7.53730E+03 -6.24426E+03 -1.30066E+03 -1.67098E+04  1.13756E+04 -1.67109E+04
  2.05910E+04 -9.92437E+03  2.27029E+04  3.52277E+03  2.01814E+04  1.67575E+04  9.47260E+03  2.64107E+04
 -4.83532E+03  2.72652E+04 -1.75976E+04  1.77292E+04 -2.07174E+04  4.49368E+03 -1.36070E+04 -4.49584E+03
 -6.04900E+03 -6.57163E+03 -2.52350E+02  6.66895E+02 -3.06085E+03  3.48880E+03 -6.60729E+03  4.47852E+03
 -1.25731E+04 -9.86630E+02 -1.34599E+04 -1.01467E+04 -5.20852E+03 -1.81126E+04  5.55633E+03 -1.43711E+04
  1.15948E+04 -4.96730E+03  8.26634E+03  3.49676E+03  3.76251E+01  5.38364E+03 -7.45499E+03  2.48164E+02
 -6.62432E+03 -9.10929E+03 -3.96885E+02 -1.32884E+04  7.41430E+03 -1.43501E+04  1.82545E+04 -7.28998E+03
  2.05919E+04  2.41779E+03  1.49242E+04  1.34343E+04  3.48450E+03  1.69083E+04 -8.92343E+03  1.37570E+04
 -1.10683E+04  4.28594E+03 -6.10963E+03 -2.29192E+03  2.86906E+03 -3.45272E+03  7.31265E+03 -1.13498E+03
  6.20792E+03  6.39570E+03  1.57557E+03  1.09758E+04 -8.31413E+03  1.10392E+04 -1.42186E+04  2.91094E+03
 -8.94681E+03 -7.86315E+03  4.40428E+02 -1.19614E+04  7.66418E+03 -6.00904E+03  8.00569E+03  2.74655E+03
  1.49075E+03  8.52144E+03 -7.56650E+03  9.76512E+03 -1.12916E+04  4.47249E+03 -1.18281E+04 -4.19582E+03
 -6.55432E+03 -1.31300E+04  3.97226E+03 -1.58844E+04  1.33961E+04 -9.70297E+03  1.34614E+04  3.18948E+03
  8.56736E+03  1.13023E+04 -1.54808E+03  1.41823E+04 -1.03687E+04  8.45129E+03 -1.15689E+04 -8.92201E+02
 -9.02147E+03 -8.99497E+03 -1.58000E+03 -1.04786E+04  5.85598E+03 -8.60628E+03  6.56485E+03 -3.80812E+03
  4.04831E+03  1.95538E+03 -9.45598E+02  2.40249E+03 -9.19794E+02 -2.75953E+03  2.49128E+03 -6.14256E+03
  9.87734E+03 -4.26265E+03  1.33613E+04  1.89785E+03  1.29413E+04  9.45185E+03  8.99433E+03  1.74254E+04
 -4.50455E+03  2.01514E+04 -1.70003E+04  1.46980E+04 -2.25186E+04  2.48025E+03 -1.77811E+04 -7.21155E+03
 -8.79806E+03 -1.43882E+04  3.80938E+00 -1.30723E+04  3.66819E+03 -6.69306E+03  4.50380E+03 -4.05434E+03
  3.67738E+03 -2.57779E+03  4.18101E+03 -2.74883E+03  6.04714E+03 -3.82198E+03  7.64021E+03 -1.39960E+03
  9.27049E+03  1.87097E+03  4.93241E+03  8.40660E+03 -1.82381E+03  9.67507E+03 -9.67901E+03  6.87485E+03
 -1.22991E+04 -6.18019E+02 -7.24902E+03 -8.51026E+03 -1.26345E+03 -1.30930E+04  7.31163E+03 -1.33479E+04
  1.35464E+04 -7.28141E+03  1.63719E+04  2.01718E+03  1.10744E+04  1.11694E+04  1.86507E+03  1.49883E+04
 -6.16412E+03  1.30423E+04 -7.98523E+03  4.27314E+03 -5.48838E+03 -1.86398E+03 -2.41211E+03 -1.63199E+03
 -8.41220E+02  6.96020E+01 -1.51017E+03  3.67299E+03 -5.07631E+03  2.17019E+03 -8.82979E+03 -1.09526E+03
 -5.06409E+03 -8.71567E+03  3.78667E+02 -1.24390E+04  7.66170E+03 -1.10033E+04  1.19047E+04 -3.49310E+03
  1.17735E+04  6.34570E+03  5.95739E+03  1.08667E+04 -2.49258E+03  1.19859E+04 -9.57816E+03  7.75265E+03
 -1.15765E+04  8.10329E+02 -9.01699E+03 -7.68952E+03 -4.90971E+02 -1.03730E+04  5.20093E+03 -7.66830E+03
  8.73465E+03 -3.41686E+03  5.03693E+03  2.12313E+03  2.04436E+03  3.69935E+03  1.08349E+03  1.70113E+03
  1.60534E+03  7.35863E+02  3.35915E+03  1.83974E+03  3.97960E+03  4.49999E+03  3.44538E+03  6.80649E+03
 -2.66312E+03  9.49283E+03 -7.92206E+03  9.52757E+03 -1.23134E+04  2.73437E+03 -1.26059E+04 -5.53948E+03
 -5.79316E+03 -1.21870E+04  2.03133E+03 -1.35401E+04  7.23030E+03 -8.92793E+03  9.84997E+03 -2.24340E+03
  7.95938E+03  5.01215E+03  9.90005E+02  7.05535E+03 -3.45258E+03  4.19993E+03 -5.17370E+03 -1.00533E+03
 -2.51060E+03 -5.53828E+03  2.57623E+03 -5.83900E+03  5.87062E+03 -3.06842E+03  5.18828E+03  5.90221E+02
  3.00245E+03  2.57558E+03  8.38255E+02  2.00433E+03 -1.20094E+03  1.81848E+03  1.97515E+03 -1.09507E+03
  1.45353E+03 -5.73846E+02  5.04505E+03  2.16949E+03  2.05643E+03  6.81935E+03 -1.17796E+03  8.14678E+03
 -6.05822E+03  5.11303E+03 -7.37121E+03  1.37606E+03 -7.03420E+03 -3.12887E+03 -3.07405E+03 -4.53968E+03
  1.36901E+01 -5.55397E+03  3.23024E+03 -2.13485E+03  3.34563E+03  2.76938E+03 -8.08560E+02  3.95988E+03
 -5.75938E+03  3.01223E+03 -5.66990E+03 -2.43988E+03 -3.13263E+03 -6.52491E+03  9.60640E+02 -6.60854E+03
  3.93604E+03 -3.90529E+03  5.65834E+03 -9.21753E+02  4.36775E+03  1.55447E+03  5.52815E+02  4.27354E+03
 -2.30200E+03  8.99822E+02 -3.87063E+03 -2.23672E+03  7.44735E+02 -5.08473E+03  6.05682E+03 -4.28945E+03
  8.06641E+03  6.63952E+02  7.68032E+03  4.52013E+03  1.69707E+03  8.15641E+03 -2.55898E+03  7.41961E+03
 -6.38652E+03  3.46198E+03 -7.14138E+03 -3.53564E+02 -3.97561E+03 -5.08296E+03  4.89054E+02 -5.25955E+03
  5.04711E+03 -2.26756E+03  4.17556E+03  1.47021E+03  9.98712E+02  4.68713E+03 -7.63709E+02  4.26741E+03
 -1.33761E+03  1.46949E+03 -2.07682E+03  1.48182E+03 -3.93861E+02  9.29727E+02 -1.85319E+03  1.55460E+03
 -2.18904E+03  2.62554E+03 -5.68595E+03  2.77952E+03 -7.80819E+03 -2.01734E+02 -9.06884E+03 -5.37999E+03
 -4.48696E+03 -1.07665E+04  2.18099E+03 -1.17614E+04  8.06888E+03 -1.02641E+04  1.17466E+04 -3.55039E+03
  1.14139E+04  1.84108E+03  6.37308E+03  7.00909E+03  9.49490E+02  8.53279E+03 -2.79524E+03  5.63515E+03
 -4.11100E+03  2.11407E+03 -2.51550E+03 -1.14482E+03 -1.15581E+03 -6.44542E+02  1.05910E+02  3.84281E+01
 -1.54786E+03  6.93874E+02 -2.12465E+03 -9.35790E+02 -6.62891E+02 -1.43043E+03  3.52771E+02 -3.75577E+03
  2.92727E+03 -2.46734E+03  4.83433E+03 -2.04202E+01  5.60650E+03  4.71884E+03  1.70153E+03  8.05496E+03
 -3.63116E+03  9.85034E+03 -8.77223E+03  5.41803E+03 -9.05398E+03 -1.03021E+03 -7.44566E+03 -6.14392E+03
 -3.11858E+03 -8.19015E+03  1.98180E+03 -7.51169E+03  4.87978E+03 -4.00846E+03  5.55662E+03 -5.56717E+00
  3.44841E+03  2.77794E+03 -1.06035E+02  2.42255E+03 -1.89685E+03 -3.42206E+02 -3.42614E+02 -1.95790E+03
  2.59189E+03 -8.33917E+02  2.90890E+03  4.07300E+02  2.28083E+03  3.86027E+03 -3.65963E+02  4.31113E+03
 -2.88492E+03  3.84872E+03 -5.36229E+03  8.35721E+02 -4.34204E+03 -3.56617E+03 -4.27088E+02 -6.65987E+03
  4.39483E+03 -6.34152E+03  6.85444E+03 -2.29103E+03  6.36438E+03  1.42955E+03  3.53609E+03  5.19596E+03
  1.31505E+03  5.61317E+03 -2.23026E+03  4.83077E+03 -3.67708E+03  2.17345E+03 -2.08400E+03  9.72860E+02
 -1.39921E+03 -3.62192E+02 -2.49367E+03  9.03814E+02 -2.84325E+03  4.28910E+02 -3.73929E+03 -2.90980E+02
 -3.97386E+03 -2.24231E+03 -1.85393E+03 -5.76367E+03  3.11296E+03 -6.36302E+03  5.30592E+03 -2.68189E+03
  6.07807E+03  9.09965E+01  3.31109E+03  3.84644E+03 -5.40654E+02  5.50756E+03 -4.02672E+03  2.79786E+03
