 $NMID ID='MM_0lb_SNR400_18hz_g40_75.RAW', FMTDAT='(8E13.5)'
 TRAMP=1., VOLUME=1. $END
  3.10027E+05  1.16962E+02  3.37239E+05  2.49703E+05  8.45091E+04  3.37776E+05 -1.32070E+05  2.50031E+05
 -1.89604E+05  8.32615E+04 -1.10867E+05 -3.23734E+04  1.44511E+03 -5.00616E+04  5.38098E+04  3.44190E+01
  3.49987E+04  5.28144E+04 -1.66686E+04  7.49616E+04 -6.01732E+04  6.25910E+04 -8.24848E+04  3.15604E+04
 -7.99483E+04 -1.08846E+04 -5.66625E+04 -5.00123E+04 -1.54046E+04 -6.80551E+04  2.66344E+04 -4.45028E+04
  3.89823E+04  4.40563E+03  1.48501E+04  4.65205E+04 -3.36130E+04  4.57682E+04 -6.54647E+04 -6.41945E+02
 -5.19310E+04 -5.54724E+04 -5.75079E+03 -7.49241E+04  3.25710E+04 -5.28755E+04  4.54620E+04 -1.59035E+04
  4.17551E+04  1.14179E+04  3.07558E+04  2.44880E+04  1.57960E+04  2.81987E+04 -4.48441E+03  2.67447E+04
 -2.11238E+04  1.24042E+04 -1.91111E+04 -4.35285E+03  3.74921E+03 -7.67222E+03  2.07894E+04  1.06933E+04
  7.33098E+03  3.28287E+04 -3.02434E+04  3.38069E+04 -6.11931E+04  2.42876E+03 -5.49949E+04 -4.05859E+04
 -1.23385E+04 -6.01421E+04  3.74816E+04 -4.27428E+04  5.50149E+04 -1.96684E+03  3.18249E+04  3.00434E+04
 -6.65433E+03  3.30290E+04 -2.78982E+04  1.33337E+04 -2.70287E+04 -5.15604E+03 -1.42997E+04 -1.02602E+04
 -7.28754E+03 -1.08718E+04 -1.04918E+03 -1.64506E+04  6.71766E+03 -2.30736E+04  1.43069E+04 -1.38846E+04
  1.21506E+04  4.59044E+03 -5.55984E+03  1.29093E+04 -1.90832E+04 -2.22297E+03 -8.13449E+03 -3.01677E+04
  2.02785E+04 -3.99684E+04  4.50999E+04 -1.80605E+04  4.15785E+04  1.81633E+04  1.37807E+04  4.13317E+04
 -1.47534E+04  3.05612E+04 -2.31039E+04  8.35494E+02 -7.78567E+03 -2.59196E+04  2.04993E+04 -3.11649E+04
  3.78389E+04 -7.40681E+03  3.14040E+04  2.22637E+04  1.46438E+04  4.25306E+04 -7.39402E+03  4.43424E+04
 -2.80152E+04  2.99158E+04 -3.69003E+04  8.45412E+03 -3.76814E+04 -1.48347E+04 -2.13435E+04 -3.41516E+04
  6.72386E+03 -3.36519E+04  2.89766E+04 -1.23819E+04  2.69189E+04  1.09551E+04  2.91075E+03  1.77091E+04
 -1.27577E+04  7.54444E+03 -9.27688E+03 -7.80657E+03  6.14529E+03 -9.69693E+03  1.72544E+04  6.39784E+03
  1.19340E+04  2.12192E+04 -6.78022E+03  2.31002E+04 -2.13522E+04  8.50957E+03 -2.49013E+04 -6.25777E+03
 -1.63627E+04 -1.67453E+04 -5.96777E+03 -1.62167E+04  3.41771E+03 -1.47243E+04  1.18839E+04 -1.40640E+04
  2.09980E+04 -1.19216E+04  2.80212E+04  7.99753E+02  2.08862E+04  1.65289E+04  3.39379E+03  3.25153E+04
 -1.58825E+04  2.71182E+04 -2.58934E+04  9.84134E+03 -1.93305E+04 -1.04281E+04 -4.58123E+03 -1.42748E+04
  2.59896E+03 -3.86986E+03 -2.59867E+03  5.17801E+03 -1.29059E+04  5.91278E+03 -1.37295E+04 -4.68276E+03
 -8.20787E+03 -1.56815E+04  4.71483E+03 -1.89196E+04  1.24362E+04 -1.43667E+04  1.46572E+04 -1.13412E+03
  8.73777E+03  1.07297E+04 -1.05418E+03  1.60106E+04 -1.01816E+04  8.40256E+03 -1.48389E+04 -3.39729E+03
 -1.14552E+04 -1.40477E+04 -1.58450E+03 -1.89400E+04  8.36737E+03 -1.52259E+04  1.58544E+04 -7.19555E+03
  1.45505E+04  1.19913E+03  1.06060E+04  3.65853E+03  5.02840E+03  7.51147E+02  7.26277E+03 -1.45074E+03
  1.38392E+04  3.04678E+03  1.42980E+04  1.21844E+04  9.11293E+03  2.46016E+04 -3.35772E+03  2.63406E+04
 -1.52652E+04  1.97372E+04 -2.47146E+04  9.99220E+03 -2.50385E+04 -1.27363E+03 -2.10588E+04 -1.37133E+04
 -1.02549E+04 -1.98911E+04  6.07784E+03 -1.84359E+04  1.64324E+04 -1.12994E+04  1.54947E+04  3.72936E+03
  6.69979E+03  1.12233E+04 -7.15568E+03  1.05026E+04 -1.26426E+04  2.59206E+03 -1.00791E+04 -7.93917E+03
  8.34484E+01 -1.23389E+04  5.77702E+03 -9.52191E+03  8.11139E+03 -1.72079E+03  1.64431E+03  4.67596E+03
 -5.06988E+03  1.44030E+03 -4.31189E+03 -4.83707E+03  8.82456E+02 -1.01594E+04  7.70646E+03 -9.85513E+03
  1.21563E+04 -4.52340E+03  1.18975E+04  2.85378E+03  1.02132E+04  9.23981E+03  4.94823E+03  1.35194E+04
 -2.16214E+03  1.54762E+04 -8.76418E+03  9.62316E+03 -1.09345E+04  3.62521E+03 -8.70775E+03 -1.99327E+03
 -4.19706E+03 -3.92300E+03 -4.40168E+02  1.72469E+03 -2.37120E+03  2.10531E+03 -3.28595E+03  3.59112E+03
 -7.89733E+03 -2.55575E+02 -8.86613E+03 -7.27240E+03 -3.77775E+03 -1.22762E+04  3.90640E+03 -8.41967E+03
  7.42085E+03 -3.90290E+03  5.10664E+03  1.83671E+03  1.16319E+03  2.33153E+03 -3.45932E+03 -3.33486E+01
 -3.29811E+03 -4.94434E+03 -4.68333E+02 -7.36162E+03  4.21623E+03 -8.10394E+03  1.02700E+04 -4.41807E+03
  1.17367E+04  2.94379E+02  8.90863E+03  5.83449E+03  1.61328E+03  8.88887E+03 -4.69094E+03  8.40887E+03
 -7.14034E+03  2.89234E+03 -3.41371E+03 -1.29658E+03  1.50098E+03 -1.82766E+03  4.25204E+03 -3.04763E+02
  4.02853E+03  3.39567E+03  8.82630E+02  6.63703E+03 -4.41566E+03  5.92640E+03 -7.66527E+03  2.39523E+03
 -5.24605E+03 -3.48527E+03  3.97459E+02 -6.56957E+03  3.92832E+03 -2.94114E+03  3.92669E+03  3.25052E+02
  3.54509E+02  3.63961E+03 -3.84001E+03  5.47079E+03 -4.90869E+03  2.40734E+03 -4.68216E+03 -1.17218E+03
 -3.25302E+03 -6.44901E+03  1.39309E+03 -7.03311E+03  5.85455E+03 -4.71286E+03  6.32479E+03  6.84802E+02
  4.47727E+03  4.84849E+03 -2.12759E+02  7.34394E+03 -4.90203E+03  4.61569E+03 -5.03931E+03 -3.02636E+02
 -5.62580E+03 -4.93170E+03 -1.12474E+03 -4.95665E+03  2.62781E+03 -4.43023E+03  2.25206E+03 -2.21988E+03
  2.88970E+03  4.93199E+02  2.07384E+02  1.19758E+03  5.29518E+02 -3.68141E+02  3.97555E+02 -1.76571E+03
  3.79469E+03 -7.52856E+02  5.09577E+03  9.21405E+02  6.09042E+03  2.78627E+03  5.75129E+03  7.32803E+03
 -1.54519E+03  8.71608E+03 -8.10334E+03  6.40027E+03 -9.91253E+03  1.32955E+03 -7.44082E+03 -2.30779E+03
 -4.65150E+03 -6.44503E+03 -9.59146E+02 -5.22014E+03  2.31740E+03 -2.33218E+03  1.79014E+03 -2.25302E+03
  1.48334E+03 -1.76425E+03  2.28060E+03 -2.63953E+03  3.97399E+03 -1.22712E+03  3.91701E+03 -3.82393E+01
  4.23812E+03  1.66194E+03  1.33770E+03  4.00284E+03 -1.58025E+03  3.26273E+03 -4.19796E+03  2.76528E+03
 -5.38552E+03 -1.40670E+03 -2.19293E+03 -3.57250E+03  8.83985E+02 -4.99376E+03  3.18895E+03 -5.57917E+03
  4.57744E+03 -2.61767E+03  6.72372E+03  3.43998E+02  5.25420E+03  4.70970E+03  1.19511E+03  6.37081E+03
 -2.30544E+03  5.59365E+03 -3.30389E+03  2.27185E+03 -1.32266E+03 -8.59014E+02 -2.18352E+02 -7.55446E+02
 -3.39524E+02  1.09973E+03 -5.41373E+02  1.95612E+03 -3.16407E+03  9.82287E+02 -3.78281E+03 -5.19527E+02
 -8.62968E+02 -4.64861E+03  1.11714E+03 -5.70283E+03  2.81424E+03 -4.53782E+03  3.80069E+03 -1.23992E+03
  3.58051E+03  2.38281E+03  2.34452E+03  3.65148E+03 -9.23473E+02  5.10635E+03 -3.20382E+03  2.82003E+03
 -3.72305E+03  1.50100E+02 -3.51547E+03 -2.98857E+03 -2.20497E+02 -3.61462E+03  1.49202E+03 -2.70910E+03
  2.71909E+03 -1.24303E+03  1.30328E+03  7.63492E+02  7.02168E+02  1.91837E+03  1.36423E+03  4.64099E+02
  1.93554E+03  8.00432E+02  1.13210E+03  9.68915E+02  1.10653E+03  1.94669E+03  1.75892E+03  1.75694E+03
 -6.23985E+02  2.98345E+03 -2.79443E+03  4.09586E+03 -2.89947E+03  1.24050E+03 -4.62751E+03 -1.04316E+03
 -1.70718E+03 -3.37327E+03  9.72499E+02 -4.90201E+03  2.00559E+03 -2.86506E+03  3.12128E+03 -1.02199E+03
  3.03945E+03  1.89528E+03  3.32944E+02  2.60498E+03 -6.96005E+02  1.22188E+03 -9.70276E+02 -8.50181E+01
 -5.85157E+02 -1.94601E+03  1.04327E+03 -1.14711E+03  1.30656E+03 -1.03869E+03  9.80305E+02  5.19603E+02
  1.09981E+03  6.52693E+01  9.13798E+02 -4.35661E+02 -3.64744E+02  5.32873E+02  1.21672E+03 -2.91054E+02
 -9.09914E+01  2.31728E+02  1.18276E+03  5.08297E+02  3.64742E+01  2.81963E+03 -1.25723E+02  2.96346E+03
 -2.08302E+03  1.07384E+03 -2.12956E+03  5.03323E+02 -2.50879E+03 -4.71387E+02  1.25743E+02 -1.07416E+03
  4.19048E+02 -1.42003E+03  1.19655E+03 -1.12505E+03  5.91873E+02  9.92384E+02 -9.05182E+02  1.74661E+03
 -1.64661E+03  1.12438E+03 -1.33008E+03 -9.33997E+02 -9.76487E+02 -2.46692E+03 -3.03891E+02 -1.86359E+03
  1.02893E+03 -4.73530E+02  7.35870E+02  2.76533E+02  1.80245E+03 -1.86828E+01  1.14894E+02  1.15211E+03
 -3.82076E+02  2.83788E+01 -8.26766E+02 -8.22855E+02  3.86034E+02 -8.69115E+02  1.49838E+03 -4.44432E+02
  1.04248E+03  3.65719E+02  2.90765E+03  9.42687E+02  9.97409E+02  2.04104E+03 -1.96720E+02  1.70761E+03
 -1.29600E+03  4.75893E+01 -1.63058E+03 -3.24107E+02 -4.80880E+02 -1.26822E+03 -1.15842E+02 -9.10390E+02
  1.66598E+03 -9.05093E+02  9.11970E+02  9.79059E+02 -2.18500E+02  1.22560E+03  1.79315E+02  1.01935E+03
 -5.84521E+02  1.65792E+03  7.90067E-01 -3.31741E+01 -5.13287E+01  5.27013E+02 -8.53201E+02  7.53297E+02
 -7.82330E+02  5.01179E+02 -1.99450E+03  3.52569E+02 -1.83357E+03 -3.39969E+02 -2.43562E+03 -1.07258E+03
 -1.32466E+03 -2.41816E+03  7.37829E+02 -3.05122E+03  8.69011E+02 -3.52732E+03  3.03494E+03 -1.40502E+03
  2.49001E+03 -1.44210E+02  1.18822E+03  1.91395E+03 -1.00426E+03  1.66949E+03 -1.17408E+03  1.35879E+03
 -1.32962E+03  4.35896E+02 -2.69007E+02 -2.15321E+02 -3.38392E+02  7.62857E+02 -7.73543E+02 -9.50440E+01
 -1.12849E+03  7.55130E+01 -1.18934E+03 -3.87171E+01  8.03087E+02 -3.72470E+02  3.46318E+01 -9.88421E+02
  1.36532E+03 -4.62162E+02  5.77616E+02 -3.51360E+01  1.85872E+03  1.17819E+03 -1.01029E+02  1.81880E+03
 -7.49488E+02  2.70248E+03 -1.40405E+03  1.05785E+03 -1.56054E+03 -2.34478E+02 -9.38595E+02 -1.56858E+03
 -5.88442E+02 -1.34122E+03  3.36987E+02 -1.33689E+03  9.00801E+02 -9.44737E+02  4.16515E+02 -1.43747E+02
  1.03486E+03 -2.15734E+01 -3.76912E+02  8.07916E+02 -5.09981E+02 -1.52741E+02 -5.40313E+01  3.72486E+02
  8.72280E+02  1.77637E+02  7.69845E+02  3.10379E+02  5.06953E+02  5.61032E+02  1.46656E+02  2.83953E+02
 -4.75218E+02  6.11376E+02 -3.46881E+02  7.02542E+01 -8.71949E+02 -5.07014E+02  5.42985E+02 -1.03435E+03
  3.50888E+02 -1.10171E+03  5.86957E+02 -3.70588E+02  7.66307E+02 -5.77767E+02  5.20069E+02  8.00913E+02
  4.38672E+02  2.49523E+02 -2.69446E+02  1.00330E+03 -6.45280E+02  4.06622E+02 -2.05073E+02  1.52334E+02
 -6.33758E+02  9.33839E+00 -2.59350E+02 -9.31915E+01 -7.02964E+02  3.06417E+01 -6.45565E+02 -7.39395E+00
 -8.94050E+02  1.99156E+02 -3.78726E+01 -5.17366E+02  6.15524E+02 -1.77167E+03  1.27335E+03 -1.32264E+02
  9.90365E+02  2.55773E+02 -2.63286E+02 -2.24380E+01 -2.75400E+01  1.32838E+03 -6.03498E+02  3.66868E+02
