 $NMID ID='MM_0lb_SNR400_11hz_g55_51.RAW', FMTDAT='(8E13.5)'
 TRAMP=1., VOLUME=1. $END
  3.10049E+05  6.20505E+02  3.37997E+05  2.50314E+05  8.54694E+04  3.38423E+05 -1.32135E+05  2.51628E+05
 -1.90170E+05  8.42052E+04 -1.12053E+05 -3.26504E+04  5.34494E+00 -5.06727E+04  5.39721E+04 -5.99981E+02
  3.60109E+04  5.33747E+04 -1.59891E+04  7.66638E+04 -6.10871E+04  6.46299E+04 -8.49227E+04  3.26302E+04
 -8.25668E+04 -1.18495E+04 -5.79839E+04 -5.22981E+04 -1.46952E+04 -7.06001E+04  2.75283E+04 -4.68476E+04
  4.12245E+04  3.65741E+03  1.65109E+04  4.90387E+04 -3.50536E+04  4.76857E+04 -6.80143E+04 -5.08871E+02
 -5.51439E+04 -5.76519E+04 -7.34615E+03 -7.84541E+04  3.44024E+04 -5.66639E+04  4.94961E+04 -1.83284E+04
  4.47528E+04  1.11084E+04  3.23837E+04  2.62445E+04  1.56283E+04  3.02736E+04 -5.66295E+03  2.74673E+04
 -2.27888E+04  1.16166E+04 -1.76159E+04 -5.96644E+03  6.85777E+03 -7.20270E+03  2.32865E+04  1.31675E+04
  7.34750E+03  3.68726E+04 -3.39100E+04  3.68150E+04 -6.52257E+04  2.46903E+03 -5.86974E+04 -4.45610E+04
 -1.29274E+04 -6.55266E+04  4.09107E+04 -4.71758E+04  6.03361E+04 -2.19279E+03  3.66301E+04  3.32859E+04
 -5.90234E+03  3.83816E+04 -3.15647E+04  1.79970E+04 -3.20282E+04 -4.20980E+03 -1.87551E+04 -1.13859E+04
 -9.28099E+03 -1.52619E+04 -7.32305E+02 -1.91377E+04  9.06085E+03 -2.40974E+04  1.54951E+04 -1.25391E+04
  1.06429E+04  6.52869E+03 -1.00713E+04  1.31636E+04 -2.24219E+04 -6.16229E+03 -7.96343E+03 -3.61311E+04
  2.41891E+04 -4.61046E+04  5.06180E+04 -2.05295E+04  4.79979E+04  1.99172E+04  1.73063E+04  4.65971E+04
 -1.65656E+04  3.53435E+04 -2.75465E+04  2.78815E+03 -1.14494E+04 -2.95360E+04  2.17127E+04 -3.62886E+04
  4.35500E+04 -1.05881E+04  3.92680E+04  2.45462E+04  2.05362E+04  5.03679E+04 -8.72277E+03  5.45993E+04
 -3.38945E+04  3.72808E+04 -4.61965E+04  1.12970E+04 -4.61983E+04 -1.85250E+04 -2.53437E+04 -4.07589E+04
  7.50085E+03 -4.04540E+04  3.35734E+04 -1.63102E+04  3.10285E+04  1.06846E+04  4.85349E+03  2.07571E+04
 -1.42282E+04  9.40187E+03 -1.04471E+04 -7.87932E+03  5.79480E+03 -1.07900E+04  1.85968E+04  5.30040E+03
  1.48843E+04  2.29670E+04 -5.51447E+03  2.68906E+04 -2.24793E+04  1.39693E+04 -3.04966E+04 -4.05812E+03
 -2.40357E+04 -1.79144E+04 -1.03627E+04 -2.42061E+04  3.82943E+03 -2.40515E+04  1.86692E+04 -2.12137E+04
  3.07637E+04 -1.36370E+04  3.57096E+04  4.55012E+03  2.63027E+04  2.29901E+04  4.64005E+03  3.95421E+04
 -1.87673E+04  3.23968E+04 -2.94811E+04  1.12770E+04 -2.19036E+04 -1.01596E+04 -4.60641E+03 -1.34699E+04
  1.08543E+03 -8.50657E+02 -6.82062E+03  8.19373E+03 -1.94213E+04  4.72917E+03 -1.86304E+04 -8.89187E+03
 -1.10436E+04 -2.16730E+04  6.39453E+03 -2.64341E+04  1.79919E+04 -1.92292E+04  2.13988E+04 -2.11295E+03
  1.31557E+04  1.49082E+04 -8.76214E+02  2.18915E+04 -1.61469E+04  1.30486E+04 -2.24663E+04 -4.52212E+03
 -1.53668E+04 -1.89956E+04 -1.94943E+03 -2.62542E+04  1.20571E+04 -2.20055E+04  2.22941E+04 -1.10975E+04
  2.06973E+04  9.57842E+01  1.48968E+04  4.48371E+03  8.21185E+03  1.32320E+03  1.27127E+04 -1.34397E+03
  2.08091E+04  2.81497E+03  2.44304E+04  1.65053E+04  1.59356E+04  3.53222E+04 -2.60623E+03  4.15264E+04
 -2.36022E+04  3.39872E+04 -3.90007E+04  1.74627E+04 -4.13383E+04 -3.42847E+03 -3.34092E+04 -2.33284E+04
 -1.33690E+04 -3.47185E+04  1.24147E+04 -3.05563E+04  2.59593E+04 -1.46776E+04  2.34385E+04  6.76161E+03
  7.65126E+03  1.83112E+04 -1.08031E+04  1.58818E+04 -1.91887E+04  2.24952E+03 -1.44003E+04 -1.20462E+04
  1.37934E+02 -1.84538E+04  9.91851E+03 -1.33648E+04  1.18047E+04 -1.98125E+03  2.62042E+03  8.23741E+03
 -8.37442E+03  3.20733E+03 -7.93830E+03 -6.44628E+03 -1.56205E+03 -1.59593E+04  1.08128E+04 -1.82333E+04
  2.10637E+04 -1.01635E+04  2.32739E+04  2.73686E+03  2.07560E+04  1.73413E+04  9.43434E+03  2.62851E+04
 -4.98518E+03  2.88425E+04 -1.83960E+04  1.76628E+04 -2.11585E+04  4.11438E+03 -1.39645E+04 -5.69100E+03
 -6.06640E+03 -6.01179E+03 -1.08939E+03  5.43528E+02 -2.46152E+03  3.36370E+03 -6.17754E+03  5.62649E+03
 -1.25005E+04 -9.67078E+02 -1.33248E+04 -1.11407E+04 -5.93811E+03 -1.76996E+04  5.97617E+03 -1.46107E+04
  1.17368E+04 -5.71550E+03  8.02406E+03  3.34249E+03 -5.44689E+02  5.79367E+03 -6.35110E+03 -3.44070E+01
 -6.69386E+03 -9.53063E+03 -9.03348E+02 -1.37354E+04  7.96636E+03 -1.50261E+04  1.88726E+04 -8.41324E+03
  2.11608E+04  1.84196E+03  1.49951E+04  1.26549E+04  2.59962E+03  1.69439E+04 -8.40070E+03  1.39900E+04
 -1.14774E+04  4.03536E+03 -6.03171E+03 -3.27155E+03  2.62832E+03 -4.26134E+03  6.90718E+03 -8.14226E+02
  6.38388E+03  6.04828E+03  8.02528E+02  1.14372E+04 -8.07802E+03  1.04731E+04 -1.39620E+04  2.02665E+03
 -9.25933E+03 -7.02065E+03  9.44441E+02 -1.18387E+04  7.41514E+03 -6.03064E+03  7.45427E+03  3.12460E+03
  1.19076E+03  8.14645E+03 -7.17988E+03  9.88362E+03 -1.14691E+04  4.61663E+03 -1.18646E+04 -4.22881E+03
 -6.55686E+03 -1.43662E+04  3.54444E+03 -1.59129E+04  1.38087E+04 -1.01546E+04  1.37836E+04  3.06569E+03
  9.18723E+03  1.10296E+04 -1.77079E+03  1.40758E+04 -1.02134E+04  8.08005E+03 -1.12670E+04 -9.22758E+02
 -1.01437E+04 -9.14872E+03 -1.12944E+03 -1.02287E+04  5.54722E+03 -8.67064E+03  6.57238E+03 -3.39596E+03
  4.17779E+03  2.05247E+03 -6.37689E+02  1.55345E+03 -6.24137E+02 -2.40154E+03  2.35291E+03 -6.29534E+03
  9.09699E+03 -4.12914E+03  1.34339E+04  1.69951E+03  1.30396E+04  9.76487E+03  8.66488E+03  1.82934E+04
 -4.18903E+03  1.95758E+04 -1.67867E+04  1.51094E+04 -2.28816E+04  2.97172E+03 -1.79637E+04 -7.32445E+03
 -9.33039E+03 -1.45681E+04  1.63702E+02 -1.21572E+04  4.18910E+03 -6.77840E+03  3.89672E+03 -4.15131E+03
  3.81507E+03 -2.38924E+03  3.18632E+03 -3.80804E+03  5.80042E+03 -3.07051E+03  6.98574E+03 -1.88864E+02
  9.61326E+03  2.67269E+03  5.71980E+03  8.14887E+03 -1.93383E+03  9.37753E+03 -9.41658E+03  6.89109E+03
 -1.19325E+04 -1.37293E+03 -7.60087E+03 -8.48439E+03 -6.80530E+02 -1.28260E+04  8.06267E+03 -1.35538E+04
  1.38564E+04 -7.71387E+03  1.61488E+04  2.61130E+03  1.15843E+04  1.12830E+04  2.05496E+03  1.44008E+04
 -6.57007E+03  1.23952E+04 -8.95202E+03  3.48565E+03 -5.45062E+03 -1.31025E+03 -2.44059E+03 -1.50857E+03
 -8.40705E+02  7.37794E+00 -1.89964E+03  2.84120E+03 -5.84794E+03  2.31562E+03 -8.64846E+03 -9.55534E+02
 -6.25294E+03 -8.70500E+03  4.46702E+02 -1.21277E+04  7.72444E+03 -1.14673E+04  1.21773E+04 -3.29853E+03
  1.18388E+04  5.31029E+03  5.70637E+03  1.07302E+04 -2.38625E+03  1.14363E+04 -7.90752E+03  7.69591E+03
 -1.20440E+04  3.16520E+02 -8.88242E+03 -7.65011E+03 -1.48883E+03 -1.04250E+04  5.20300E+03 -7.23902E+03
  8.04156E+03 -2.76247E+03  5.40315E+03  2.15289E+03  2.22743E+03  3.83828E+03  1.27948E+03  1.92201E+03
  2.24430E+03  8.69042E+02  2.41452E+03  1.94108E+03  3.01796E+03  4.11034E+03  3.53249E+03  6.27030E+03
 -1.73195E+03  9.31485E+03 -7.80936E+03  1.05139E+04 -1.25926E+04  2.62365E+03 -1.24553E+04 -5.05956E+03
 -6.19589E+03 -1.18750E+04  2.56626E+03 -1.37495E+04  7.66677E+03 -8.29415E+03  9.67698E+03 -2.33220E+03
  7.85133E+03  3.99270E+03  1.57791E+03  6.81254E+03 -3.47185E+03  4.33605E+03 -4.81712E+03 -2.41078E+02
 -2.20093E+03 -5.31109E+03  2.82019E+03 -5.33224E+03  4.77346E+03 -2.59948E+03  5.18508E+03  9.89637E+02
  2.68537E+03  1.89206E+03  9.77646E+02  1.48285E+03 -7.95023E+02  1.41485E+03  1.20550E+03 -7.65551E+02
  2.32009E+03 -7.29267E+02  4.75818E+03  2.18873E+03  3.69754E+03  5.90166E+03 -8.21427E+02  7.79820E+03
 -5.28070E+03  5.09479E+03 -7.28712E+03  1.40030E+03 -6.43530E+03 -2.64927E+03 -1.70367E+03 -4.87398E+03
  3.77488E+02 -4.73838E+03  2.92078E+03 -2.16108E+03  2.44161E+03  2.56629E+03 -1.31980E+03  3.48603E+03
 -4.67530E+03  2.60538E+03 -5.97644E+03 -2.05142E+03 -3.70770E+03 -6.40994E+03  8.68469E+02 -6.64953E+03
  3.48695E+03 -3.59128E+03  4.49172E+03  2.12618E+02  4.07041E+03  7.16605E+02  7.81578E+01  3.14885E+03
 -2.52574E+03  9.83800E+02 -3.14790E+03 -2.15655E+03  1.17006E+03 -4.62044E+03  5.70351E+03 -4.34816E+03
  7.22261E+03  1.31294E+03  7.43962E+03  5.25095E+03  2.02914E+03  7.99201E+03 -1.77796E+03  7.37183E+03
 -6.21980E+03  3.09307E+03 -6.29700E+03 -8.54271E+02 -4.37870E+03 -4.14225E+03  1.88378E+03 -3.82522E+03
  4.93605E+03 -2.47315E+03  3.87732E+03  2.32597E+03  1.44812E+03  4.95259E+03 -5.54263E+02  3.50989E+03
 -1.71874E+03  2.70693E+03 -1.91234E+03  6.21682E+02 -7.13251E+02  7.54808E+02 -1.35548E+03  1.36498E+03
 -1.77044E+03  2.56659E+03 -5.11523E+03  2.48156E+03 -6.95334E+03  1.15989E+02 -8.28037E+03 -4.08861E+03
 -4.10532E+03 -9.88308E+03  2.42174E+03 -1.22135E+04  7.20720E+03 -8.46551E+03  1.06259E+04 -3.63269E+03
  1.02259E+04  2.75646E+03  7.01067E+03  6.70320E+03  6.77936E+02  7.42799E+03 -2.63544E+03  5.91757E+03
 -4.43114E+03  2.02275E+03 -2.39913E+03 -9.13265E+02 -1.29616E+03 -9.25459E+02 -3.56176E+02 -2.26915E+02
 -2.28479E+03  1.14589E+02 -1.56179E+03 -5.43517E+02 -5.45682E+02 -2.12870E+03 -2.59739E+02 -3.12248E+03
  3.20104E+03 -2.36478E+03  4.54246E+03  3.27368E+02  5.68047E+03  4.04906E+03  9.72065E+02  7.52223E+03
 -2.97599E+03  8.19261E+03 -7.99375E+03  4.42478E+03 -8.92816E+03 -7.33128E+02 -6.33401E+03 -5.63168E+03
 -3.45361E+03 -8.20013E+03  1.88993E+03 -6.57647E+03  4.57053E+03 -3.95159E+03  4.84328E+03 -1.26005E+02
  2.22347E+03  1.98678E+03  9.23234E+01  1.99010E+03 -1.56788E+03  3.56462E+02 -3.00180E+02 -1.20597E+03
  2.39237E+03 -1.02403E+03  2.75948E+03  9.22821E+02  1.94314E+03  3.30576E+03  3.26243E+02  4.11884E+03
 -2.83995E+03  3.13259E+03 -4.39904E+03  7.63025E+02 -4.22835E+03 -3.40287E+03 -4.56796E+02 -5.63122E+03
  3.52994E+03 -5.27065E+03  4.86738E+03 -2.01622E+03  5.67570E+03  9.36429E+02  3.00112E+03  4.56789E+03
  8.31000E+02  4.30144E+03 -2.29589E+03  3.32752E+03 -3.23680E+03  1.70091E+03 -2.23874E+03 -1.41179E+02
 -6.66426E+02 -6.27332E+02 -1.37747E+03  6.51546E+02 -2.87114E+03  6.87410E+02 -3.76083E+03 -5.02441E+01
 -3.09192E+03 -2.70441E+03 -1.26339E+03 -5.23523E+03  2.12109E+03 -5.32437E+03  4.26795E+03 -2.51819E+03
  5.41399E+03  4.67247E+02  3.09076E+03  3.24523E+03 -2.87048E+02  5.35954E+03 -3.86986E+03  3.22459E+03
