 $NMID ID='MM_0lb_SNR400_10hz_g60_72.RAW', FMTDAT='(8E13.5)'
 TRAMP=1., VOLUME=1. $END
  3.09814E+05  5.76468E+02  3.37878E+05  2.50723E+05  8.45375E+04  3.37947E+05 -1.32937E+05  2.51105E+05
 -1.91582E+05  8.39657E+04 -1.12435E+05 -3.27405E+04  6.15221E+02 -5.06506E+04  5.39721E+04 -1.36848E+03
  3.49130E+04  5.26444E+04 -1.57607E+04  7.59494E+04 -6.12222E+04  6.40144E+04 -8.60676E+04  3.26385E+04
 -8.19140E+04 -1.22297E+04 -5.81023E+04 -5.30329E+04 -1.63301E+04 -7.13534E+04  2.83708E+04 -4.74527E+04
  4.15351E+04  3.10405E+03  1.80583E+04  4.85729E+04 -3.51471E+04  4.81122E+04 -6.79869E+04  4.54708E+01
 -5.49995E+04 -5.79971E+04 -7.29680E+03 -7.96506E+04  3.49902E+04 -5.77553E+04  4.94262E+04 -1.82984E+04
  4.54750E+04  1.18810E+04  3.30158E+04  2.65252E+04  1.59421E+04  3.04808E+04 -6.66034E+03  2.79392E+04
 -2.29500E+04  1.23165E+04 -1.82247E+04 -5.65730E+03  6.19083E+03 -7.60057E+03  2.37664E+04  1.30913E+04
  6.47985E+03  3.79979E+04 -3.46755E+04  3.72312E+04 -6.52592E+04  1.63433E+03 -5.92387E+04 -4.43023E+04
 -1.30708E+04 -6.53725E+04  4.16450E+04 -4.76892E+04  6.09534E+04 -2.04790E+03  3.68644E+04  3.50772E+04
 -5.30345E+03  4.00776E+04 -3.25493E+04  1.87900E+04 -3.29559E+04 -3.26201E+03 -1.92037E+04 -1.18576E+04
 -9.35374E+03 -1.49720E+04 -6.74196E+02 -2.04132E+04  8.42854E+03 -2.40608E+04  1.58132E+04 -1.28801E+04
  1.02720E+04  7.02624E+03 -1.05098E+04  1.23579E+04 -2.35318E+04 -6.29248E+03 -9.00727E+03 -3.78508E+04
  2.50313E+04 -4.74311E+04  5.22992E+04 -2.14907E+04  4.83128E+04  2.05127E+04  1.74754E+04  4.71620E+04
 -1.64900E+04  3.58747E+04 -2.76574E+04  1.74974E+03 -1.16391E+04 -2.94688E+04  2.13658E+04 -3.71779E+04
  4.42402E+04 -1.09745E+04  3.99058E+04  2.55662E+04  2.17139E+04  5.20964E+04 -8.34185E+03  5.64895E+04
 -3.59378E+04  3.83508E+04 -4.76161E+04  1.15734E+04 -4.77500E+04 -1.90477E+04 -2.65703E+04 -4.19193E+04
  8.13028E+03 -4.31632E+04  3.39173E+04 -1.71399E+04  3.21024E+04  1.10410E+04  5.97344E+03  2.17795E+04
 -1.41637E+04  9.69022E+03 -1.12575E+04 -7.99808E+03  5.77632E+03 -1.21851E+04  1.87741E+04  5.79329E+03
  1.45981E+04  2.34283E+04 -5.34907E+03  2.65640E+04 -2.34310E+04  1.48854E+04 -3.16975E+04 -2.79828E+03
 -2.55471E+04 -1.81373E+04 -1.15896E+04 -2.52596E+04  3.50216E+03 -2.61113E+04  1.98283E+04 -2.34414E+04
  3.21734E+04 -1.39186E+04  3.77449E+04  4.54718E+03  2.71590E+04  2.48714E+04  4.82759E+03  4.10507E+04
 -2.03351E+04  3.39949E+04 -3.08192E+04  1.19361E+04 -2.22412E+04 -1.05762E+04 -4.69187E+03 -1.33480E+04
 -9.09928E+01 -1.89955E+03 -8.03506E+03  8.26537E+03 -2.04310E+04  5.98628E+03 -2.00723E+04 -8.58417E+03
 -1.24960E+04 -2.34816E+04  6.25226E+03 -2.89264E+04  1.81944E+04 -1.96297E+04  2.33089E+04 -1.56324E+03
  1.40141E+04  1.60653E+04 -1.16656E+03  2.27176E+04 -1.63602E+04  1.28606E+04 -2.38729E+04 -4.78632E+03
 -1.70131E+04 -2.12780E+04 -2.71279E+03 -2.85081E+04  1.19917E+04 -2.40532E+04  2.34332E+04 -1.21992E+04
  2.24254E+04 -2.47112E+02  1.57483E+04  5.73247E+03  8.66937E+03  8.38150E+02  1.23036E+04 -2.98650E+03
  2.19261E+04  2.86116E+03  2.51946E+04  1.79050E+04  1.74175E+04  3.79301E+04 -2.21057E+03  4.36683E+04
 -2.55325E+04  3.71106E+04 -4.17482E+04  1.95899E+04 -4.47448E+04 -3.23537E+03 -3.66980E+04 -2.70519E+04
 -1.38649E+04 -3.70301E+04  1.32047E+04 -3.26678E+04  2.79595E+04 -1.52082E+04  2.39811E+04  8.10548E+03
  8.03904E+03  1.90533E+04 -1.23804E+04  1.59094E+04 -1.99058E+04  2.58668E+03 -1.56363E+04 -1.27230E+04
 -2.07501E+01 -1.93329E+04  1.11884E+04 -1.49288E+04  1.42754E+04 -1.13112E+03  3.87205E+03  8.77286E+03
 -8.31985E+03  4.03136E+03 -9.25969E+03 -6.60503E+03 -1.49456E+03 -1.73740E+04  1.21967E+04 -2.03367E+04
  2.22005E+04 -1.04600E+04  2.59874E+04  4.29954E+03  2.27391E+04  1.85984E+04  1.05412E+04  2.88105E+04
 -5.48891E+03  3.06746E+04 -2.01060E+04  1.94231E+04 -2.19664E+04  3.94082E+03 -1.51644E+04 -5.85794E+03
 -7.59574E+03 -6.94285E+03 -2.08909E+02  1.08895E+01 -3.81493E+03  3.25109E+03 -6.81564E+03  5.92505E+03
 -1.47872E+04 -1.07021E+03 -1.41752E+04 -1.15130E+04 -4.81162E+03 -1.92162E+04  6.51380E+03 -1.58131E+04
  1.27401E+04 -6.69853E+03  8.98192E+03  3.46939E+03 -7.62517E+02  5.36121E+03 -7.49894E+03 -5.31210E+02
 -7.99688E+03 -1.00776E+04 -5.65860E+02 -1.57599E+04  9.37622E+03 -1.54410E+04  1.98552E+04 -8.47036E+03
  2.27655E+04  2.19200E+03  1.69077E+04  1.44587E+04  3.43183E+03  1.89189E+04 -8.78125E+03  1.63233E+04
 -1.19422E+04  5.46637E+03 -5.64751E+03 -4.34082E+03  2.41645E+03 -5.31466E+03  7.76424E+03 -3.99665E+02
  7.19404E+03  6.46242E+03  1.71940E+03  1.17020E+04 -9.16707E+03  1.18364E+04 -1.54019E+04  3.40633E+03
 -1.06765E+04 -8.69929E+03  9.80024E+02 -1.27712E+04  8.12354E+03 -7.25800E+03  8.73514E+03  3.65743E+03
  3.11451E+03  1.00017E+04 -8.48337E+03  1.15749E+04 -1.37734E+04  5.25345E+03 -1.35954E+04 -4.49465E+03
 -8.51555E+03 -1.63417E+04  4.35618E+03 -1.81040E+04  1.50829E+04 -1.08325E+04  1.71353E+04  2.88795E+03
  1.04411E+04  1.34838E+04 -1.64249E+03  1.56469E+04 -1.12762E+04  8.09867E+03 -1.26626E+04 -2.19155E+03
 -1.03731E+04 -9.80595E+03 -2.10435E+03 -1.11788E+04  6.01336E+03 -9.05112E+03  6.78223E+03 -3.67684E+03
  5.24080E+03  2.49914E+03 -1.89595E+03  2.11712E+03 -1.00765E+03 -3.61895E+03  2.81498E+03 -7.34001E+03
  1.08954E+04 -5.80921E+03  1.55054E+04  2.38425E+03  1.50704E+04  1.07877E+04  1.01614E+04  2.04113E+04
 -5.00670E+03  2.32629E+04 -1.96632E+04  1.71098E+04 -2.51802E+04  3.65431E+03 -2.00154E+04 -8.41636E+03
 -1.07542E+04 -1.68176E+04 -1.04846E+03 -1.48654E+04  5.11406E+03 -8.90374E+03  4.65313E+03 -6.79103E+03
  3.86369E+03 -2.24896E+03  3.98709E+03 -4.75279E+03  6.46480E+03 -3.49901E+03  8.26014E+03 -5.34266E+02
  1.04684E+04  2.40833E+03  5.81529E+03  9.53934E+03 -2.38354E+03  1.15402E+04 -1.11777E+04  8.03761E+03
 -1.37933E+04 -1.22436E+03 -9.62015E+03 -9.94226E+03 -1.24255E+03 -1.55283E+04  7.61190E+03 -1.60263E+04
  1.59945E+04 -8.60723E+03  1.84652E+04  2.87842E+03  1.28757E+04  1.38352E+04  1.43004E+03  1.74094E+04
 -7.04654E+03  1.39365E+04 -1.00104E+04  4.74296E+03 -6.27057E+03 -2.35965E+03 -2.90468E+03 -2.70755E+03
 -8.92222E+02 -7.20290E+00 -1.66920E+03  2.29179E+03 -5.91220E+03  3.01926E+03 -9.90596E+03 -1.15014E+03
 -6.33049E+03 -9.58954E+03  4.28875E+02 -1.45997E+04  8.56856E+03 -1.23865E+04  1.42573E+04 -4.20948E+03
  1.48557E+04  7.32529E+03  6.33309E+03  1.22540E+04 -2.35256E+03  1.39240E+04 -9.87824E+03  8.95206E+03
 -1.39373E+04  4.03436E+02 -1.00101E+04 -8.60370E+03 -9.81683E+02 -1.12001E+04  6.29499E+03 -8.80990E+03
  9.11798E+03 -2.23393E+03  5.73438E+03  2.82535E+03  2.62681E+03  4.01577E+03  1.74752E+03  1.87426E+03
  3.39205E+03  1.03022E+03  3.61332E+03  1.38648E+03  4.44129E+03  4.62291E+03  3.80436E+03  7.55449E+03
 -2.83598E+03  1.18080E+04 -1.04420E+04  1.19288E+04 -1.37591E+04  2.13917E+03 -1.43065E+04 -6.40606E+03
 -7.66536E+03 -1.37576E+04  2.37572E+03 -1.53941E+04  8.70066E+03 -1.02851E+04  1.22334E+04 -3.29243E+03
  9.38240E+03  5.48237E+03  2.44854E+03  7.54640E+03 -3.38646E+03  5.50329E+03 -5.18103E+03 -7.22770E+02
 -3.19539E+03 -5.80998E+03  2.91624E+03 -6.37518E+03  5.63556E+03 -3.03481E+03  5.80035E+03  1.02700E+03
  3.29711E+03  2.84267E+03  1.24362E+03  2.57218E+03 -1.55604E+02  2.87960E+03  1.43897E+03 -5.02844E+02
  1.72919E+03 -1.59011E+02  5.74855E+03  2.04736E+03  3.21874E+03  6.90739E+03 -1.78813E+03  1.00221E+04
 -7.49206E+03  6.40640E+03 -9.02756E+03  1.83698E+03 -8.01154E+03 -4.43255E+03 -3.45820E+03 -5.36503E+03
  6.03958E+02 -5.33108E+03  3.24339E+03 -2.13121E+03  3.30369E+03  2.61650E+03 -1.20040E+03  4.96042E+03
 -6.21319E+03  3.27444E+03 -7.23237E+03 -3.23505E+03 -3.61248E+03 -7.41373E+03  5.67575E+02 -7.89583E+03
  4.05554E+03 -4.15438E+03  5.85358E+03 -6.73875E+02  4.82878E+03  2.51122E+03  6.98494E+02  4.44110E+03
 -2.77892E+03  4.16628E+02 -3.68616E+03 -2.57049E+03  2.20123E+03 -5.90678E+03  6.86460E+03 -5.08154E+03
  8.75606E+03  8.59198E+02  9.25328E+03  6.55843E+03  2.34557E+03  9.42659E+03 -3.55966E+03  9.10791E+03
 -7.82709E+03  3.87383E+03 -7.52390E+03 -1.12548E+03 -3.86873E+03 -6.10062E+03  2.27084E+03 -6.19213E+03
  5.98442E+03 -2.50892E+03  4.96327E+03  1.69121E+03  1.73223E+03  5.60725E+03 -1.13488E+03  4.25838E+03
 -2.09688E+03  3.47670E+03 -1.96119E+03  9.33346E+02 -1.51614E+03  1.33029E+03 -6.28027E+02  2.53471E+03
 -3.02793E+03  4.45979E+03 -6.64432E+03  2.65983E+03 -1.00088E+04 -1.04213E+02 -1.01355E+04 -6.45149E+03
 -5.19791E+03 -1.21220E+04  2.41677E+03 -1.49026E+04  8.99496E+03 -1.02017E+04  1.32201E+04 -4.32772E+03
  1.18800E+04  3.12867E+03  7.96790E+03  8.23682E+03  2.50772E+02  9.38265E+03 -4.05171E+03  7.15902E+03
 -5.59657E+03  2.24975E+03 -2.79287E+03 -1.03190E+03 -1.51418E+03 -6.58797E+02 -1.14270E+03 -2.52734E+02
 -2.12622E+03  1.46000E+02 -1.96482E+03 -1.37562E+03 -1.39650E+01 -2.98928E+03  3.05660E+02 -3.95412E+03
  4.39754E+03 -2.80423E+03  5.73055E+03 -8.57558E+01  6.55596E+03  5.17534E+03  9.20282E+02  8.72564E+03
 -4.30588E+03  1.07591E+04 -9.72714E+03  5.13865E+03 -1.16237E+04 -4.79986E+02 -8.97366E+03 -7.38427E+03
 -3.88078E+03 -9.24735E+03  2.08785E+03 -8.56622E+03  6.05094E+03 -4.96827E+03  6.09385E+03  7.36997E+01
  3.19608E+03  3.01753E+03 -1.48126E+02  3.22369E+03 -1.95433E+03  1.67128E+02  4.37961E+02 -2.37675E+03
  2.59358E+03 -9.51779E+02  3.52630E+03  1.96643E+03  2.71180E+03  3.11617E+03  5.52623E+02  5.37048E+03
 -3.77204E+03  4.43563E+03 -6.57320E+03 -2.59616E+02 -5.41275E+03 -5.23624E+03 -6.60165E+02 -7.27535E+03
  4.75570E+03 -6.61012E+03  6.76678E+03 -1.91945E+03  7.66684E+03  1.85178E+03  3.46847E+03  6.10746E+03
  1.04004E+03  6.44938E+03 -2.81384E+03  5.23206E+03 -3.20371E+03  2.36901E+03 -3.51600E+03  8.55023E+01
 -1.60955E+03 -5.86714E+02 -2.65207E+03  8.31206E+02 -2.54461E+03  1.08017E+03 -4.13945E+03 -1.74632E+03
 -4.61619E+03 -3.23839E+03 -1.78832E+03 -6.45595E+03  2.88586E+03 -6.55474E+03  5.78183E+03 -3.25987E+03
  5.62454E+03  5.93334E+02  4.10147E+03  4.20983E+03 -8.28625E+02  5.88585E+03 -5.03347E+03  4.68591E+03
