 $NMID ID='MM_0lb_SNR400_20hz_g55_90.RAW', FMTDAT='(8E13.5)'
 TRAMP=1., VOLUME=1. $END
  3.10284E+05  2.93478E+02  3.37422E+05  2.50759E+05  8.50327E+04  3.37395E+05 -1.32736E+05  2.50032E+05
 -1.89579E+05  8.30135E+04 -1.11047E+05 -3.30590E+04  1.46513E+03 -5.00123E+04  5.29464E+04 -4.94912E+00
  3.51754E+04  5.26480E+04 -1.68812E+04  7.54796E+04 -6.06949E+04  6.28098E+04 -8.29090E+04  3.19965E+04
 -8.00601E+04 -1.11529E+04 -5.68098E+04 -5.08864E+04 -1.50677E+04 -6.86101E+04  2.69797E+04 -4.47526E+04
  3.95010E+04  4.15844E+03  1.54497E+04  4.76361E+04 -3.38354E+04  4.61046E+04 -6.50003E+04 -7.28741E+02
 -5.20126E+04 -5.60922E+04 -6.42636E+03 -7.53633E+04  3.29236E+04 -5.37904E+04  4.64291E+04 -1.65382E+04
  4.17394E+04  1.09526E+04  3.08828E+04  2.46222E+04  1.57254E+04  2.85051E+04 -4.87830E+03  2.68205E+04
 -2.12411E+04  1.29682E+04 -1.96471E+04 -4.39653E+03  4.66073E+03 -7.62177E+03  2.17152E+04  1.07811E+04
  7.76555E+03  3.36139E+04 -3.05467E+04  3.38985E+04 -6.14477E+04  2.16564E+03 -5.54642E+04 -4.10151E+04
 -1.22349E+04 -6.05049E+04  3.87304E+04 -4.36665E+04  5.60517E+04 -1.92784E+03  3.23394E+04  3.06179E+04
 -6.41166E+03  3.34832E+04 -2.85295E+04  1.36032E+04 -2.78124E+04 -5.27333E+03 -1.43228E+04 -9.99331E+03
 -7.34472E+03 -1.14812E+04 -1.00112E+03 -1.65864E+04  6.69425E+03 -2.20336E+04  1.50913E+04 -1.35934E+04
  1.21109E+04  4.51611E+03 -5.84310E+03  1.28647E+04 -1.92438E+04 -2.85964E+03 -8.10124E+03 -3.02890E+04
  2.12636E+04 -4.09869E+04  4.51852E+04 -1.85767E+04  4.20372E+04  1.82178E+04  1.42623E+04  4.20235E+04
 -1.52166E+04  3.03624E+04 -2.36532E+04  9.73861E+02 -8.58533E+03 -2.65395E+04  2.07786E+04 -3.11791E+04
  3.78469E+04 -7.36943E+03  3.13313E+04  2.27144E+04  1.57626E+04  4.32035E+04 -7.14539E+03  4.54178E+04
 -2.85719E+04  2.97109E+04 -3.73910E+04  8.52534E+03 -3.84911E+04 -1.52031E+04 -2.09898E+04 -3.48060E+04
  7.12018E+03 -3.44167E+04  2.89093E+04 -1.18725E+04  2.68484E+04  1.09312E+04  2.92459E+03  1.80294E+04
 -1.22701E+04  7.10835E+03 -9.61869E+03 -7.59079E+03  5.86222E+03 -9.80848E+03  1.76248E+04  5.91154E+03
  1.21161E+04  2.16527E+04 -6.32788E+03  2.38761E+04 -2.16138E+04  8.78472E+03 -2.50089E+04 -6.03808E+03
 -1.72713E+04 -1.64526E+04 -5.21039E+03 -1.67223E+04  3.80803E+03 -1.50846E+04  1.25368E+04 -1.41824E+04
  2.14913E+04 -1.17914E+04  2.75924E+04  1.13651E+03  2.08812E+04  1.59460E+04  3.81259E+03  3.25141E+04
 -1.58829E+04  2.75655E+04 -2.57490E+04  9.62126E+03 -1.97461E+04 -9.95292E+03 -4.17594E+03 -1.41407E+04
  3.25724E+03 -4.29922E+03 -2.68992E+03  5.37102E+03 -1.25389E+04  5.31458E+03 -1.35630E+04 -4.82038E+03
 -8.70049E+03 -1.55153E+04  3.67480E+03 -1.95330E+04  1.20820E+04 -1.35391E+04  1.43688E+04 -1.27059E+03
  8.68431E+03  1.06561E+04 -1.06746E+03  1.56236E+04 -1.01893E+04  8.28380E+03 -1.50958E+04 -3.18734E+03
 -1.08843E+04 -1.35123E+04 -9.64856E+02 -1.86587E+04  8.21271E+03 -1.50285E+04  1.58499E+04 -7.00305E+03
  1.48570E+04  6.04552E+02  1.02603E+04  3.65400E+03  5.60963E+03  2.33957E+02  7.53807E+03 -8.60268E+02
  1.43059E+04  2.46470E+03  1.38792E+04  1.24700E+04  8.89450E+03  2.45587E+04 -3.36933E+03  2.62634E+04
 -1.53851E+04  1.92707E+04 -2.31743E+04  9.32374E+03 -2.47346E+04 -1.05197E+03 -2.12011E+04 -1.36748E+04
 -9.89112E+03 -1.98828E+04  6.73599E+03 -1.85265E+04  1.64041E+04 -1.07655E+04  1.51111E+04  3.25121E+03
  6.41640E+03  1.11897E+04 -6.75430E+03  1.04494E+04 -1.32567E+04  2.48346E+03 -1.00129E+04 -7.32278E+03
 -1.55378E+02 -1.25939E+04  5.51661E+03 -9.49248E+03  7.89286E+03 -1.81899E+03  1.50063E+03  4.90105E+03
 -5.65142E+03  1.08245E+03 -3.30112E+03 -4.29511E+03  2.19686E+02 -1.00652E+04  7.99854E+03 -9.73578E+03
  1.14766E+04 -4.89384E+03  1.11081E+04  2.78437E+03  9.58561E+03  8.71246E+03  4.94335E+03  1.32086E+04
 -1.23051E+03  1.49988E+04 -9.74664E+03  9.54317E+03 -1.03445E+04  2.33637E+03 -8.04998E+03 -1.80930E+03
 -4.56597E+03 -3.14478E+03 -1.06587E+03  1.79023E+03 -1.85994E+03  1.74977E+03 -3.47102E+03  3.26362E+03
 -7.91610E+03  2.00253E+02 -8.32183E+03 -6.76807E+03 -3.44108E+03 -1.12458E+04  3.64413E+03 -8.01245E+03
  6.91406E+03 -3.87352E+03  4.72945E+03  1.86957E+03  5.27705E+02  2.37446E+03 -3.12644E+03  1.38367E+02
 -3.11081E+03 -5.58597E+03 -1.28135E+03 -6.74784E+03  3.73079E+03 -7.85559E+03  9.10191E+03 -3.81288E+03
  1.16087E+04  5.30885E+02  7.80454E+03  5.74598E+03  1.54869E+03  8.19109E+03 -4.96639E+03  8.14756E+03
 -6.61855E+03  2.49667E+03 -3.63927E+03 -9.73737E+02  1.55106E+03 -1.80324E+03  4.47270E+03 -8.55591E+02
  3.66770E+03  3.41557E+03  5.38810E+02  6.03037E+03 -4.11195E+03  5.68585E+03 -7.16572E+03  1.75163E+03
 -4.37481E+03 -3.17163E+03  2.74344E+02 -6.33119E+03  3.43140E+03 -3.63851E+03  2.64464E+03  8.42750E+02
 -7.36239E+01  2.96013E+03 -4.07749E+03  4.08824E+03 -4.25715E+03  2.36808E+03 -3.67232E+03 -9.56916E+02
 -2.44375E+03 -5.56847E+03  8.32837E+02 -6.37193E+03  4.95085E+03 -3.73760E+03  5.91076E+03  5.71603E+02
  4.22078E+03  4.75484E+03  3.19935E+02  6.91361E+03 -4.46699E+03  3.99508E+03 -4.78877E+03 -2.98720E+02
 -5.26879E+03 -5.07228E+03 -1.37948E+03 -4.89894E+03  2.30716E+03 -3.47372E+03  2.37343E+03 -2.47735E+03
  2.98906E+03  2.76293E+02  9.39793E+01  9.54475E+02  7.18252E+02 -1.70212E+02  2.74453E+02 -1.19438E+03
  3.53195E+03 -6.33986E+02  4.15301E+03  3.45090E+02  4.94089E+03  2.34389E+03  5.06454E+03  5.82302E+03
 -6.23043E+02  8.00834E+03 -7.09511E+03  6.45182E+03 -9.37992E+03  8.73841E+02 -6.89888E+03 -1.96159E+03
 -3.74685E+03 -5.77241E+03 -7.82539E+02 -4.43306E+03  1.70044E+03 -1.41164E+03  1.91201E+03 -2.22681E+03
  1.30577E+03 -2.08720E+03  1.82206E+03 -2.45027E+03  3.57263E+03 -1.25439E+03  3.37058E+03  6.73815E+02
  4.18524E+03  1.07545E+03  1.31274E+03  2.35792E+03 -1.19564E+03  2.57901E+03 -3.57838E+03  2.38947E+03
 -4.25638E+03 -1.09933E+03 -1.03186E+03 -3.34510E+03  8.19672E+02 -4.09900E+03  2.50785E+03 -4.25374E+03
  3.77089E+03 -2.28192E+03  5.92702E+03  4.70009E+02  4.82894E+03  3.02572E+03  6.63613E+02  5.08897E+03
 -2.01233E+03  5.68367E+03 -2.25117E+03  1.76517E+03 -9.50107E+02 -1.36218E+03 -9.83970E+02 -7.89414E+02
 -5.00216E+02  5.68852E+02 -5.98199E+02  1.90336E+03 -2.20016E+03  1.66404E+03 -4.10217E+03 -3.41757E+02
 -1.28517E+03 -3.36888E+03  4.88377E+02 -3.98569E+03  2.21444E+03 -3.97707E+03  2.55659E+03 -1.19255E+03
  2.81429E+03  2.34506E+03  1.42224E+03  2.36868E+03 -3.54406E+02  4.02333E+03 -2.28389E+03  1.80868E+03
 -3.01916E+03  8.69613E+02 -2.43029E+03 -1.77615E+03 -5.44057E+01 -2.52535E+03  1.57637E+03 -1.95259E+03
  2.28586E+03 -2.04734E+03  1.51282E+03  4.04419E+02  7.02441E+02  1.56457E+03  2.59911E+01  3.08091E+02
  1.30716E+03  6.60920E+02  1.29758E+03  1.20598E+03  6.72816E+02  2.30250E+03  8.64560E+02  1.45228E+03
 -1.05274E+03  2.33062E+03 -2.26342E+03  3.46069E+03 -2.39764E+03  1.07266E+03 -3.60479E+03  2.05247E+02
 -1.58405E+03 -2.71867E+03  8.47495E+02 -3.57895E+03  1.14588E+03 -2.36479E+03  2.57167E+03 -9.49372E+02
  2.04408E+03  1.23192E+03  4.09994E+02  1.73228E+03 -3.99187E+02  8.90287E+02 -5.15544E+02 -2.17850E+02
 -1.50908E+02 -1.46587E+03  8.28738E+02 -1.46826E+03  7.14212E+02 -1.07755E+03  1.36188E+03  6.89456E+02
  8.85117E+02 -1.83518E+02  2.27340E+02 -2.06626E+02 -6.32424E+02  9.66074E+02  1.47091E+03 -2.57765E+02
 -2.11038E+02 -3.98749E+01  9.59762E+02  8.80031E+02  2.71724E+02  1.97727E+03 -4.24122E+02  2.74794E+03
 -9.77397E+02  8.03072E+02 -1.45422E+03  5.75378E+02 -1.48784E+03 -6.75821E+02  6.98878E+01 -3.58147E+02
  3.45847E+02 -6.80141E+02  5.78442E+02 -7.41286E+02  3.48269E+02  1.49765E+03 -1.07844E+03  9.19537E+02
 -1.00649E+03 -2.47473E+01 -1.21123E+03 -9.28913E+02 -4.49298E+02 -1.85721E+03  6.58980E+01 -1.63675E+03
  4.33563E+02 -2.72376E+02  3.43851E+02 -1.73645E+02  7.11341E+02 -1.18065E+03  3.95427E+02  7.27727E+02
 -4.83186E+02  3.12382E+02 -3.56161E+02  5.94170E+01  5.79653E+02 -4.39528E+02  1.40474E+03 -8.78345E+02
  6.01010E+02  8.11826E+02  1.86836E+03  4.75827E+02  1.42115E+03  1.41027E+03 -1.43508E+02  1.66177E+03
 -1.05555E+03 -7.79208E+01 -8.96770E+02  1.11445E+01 -8.37020E+02 -7.48458E+02  3.43924E+02  2.39768E+02
  1.17165E+03 -6.70404E+02  2.71485E+01  6.15994E+02  3.28851E+02  6.45107E+02 -1.29791E+02  9.34942E+02
 -3.30672E+02  7.01378E+02 -8.05878E+02  6.07768E+02 -2.24393E+02  4.81743E+02 -2.19341E+02  4.07723E+02
 -5.35876E+02  1.12955E+03 -1.54793E+03 -1.15410E+01 -1.06643E+03  2.29213E+02 -1.87345E+03 -1.30011E+02
 -7.42739E+02 -9.14836E+02  4.11030E+02 -1.86698E+03  4.69966E+02 -1.82538E+03  1.97182E+03 -6.11241E+02
  1.55699E+03 -5.08931E+02  1.11463E+03  8.98535E+02 -8.36790E+02  7.96097E+02 -2.00821E+02  1.33034E+03
 -2.95914E+02  2.45593E+02 -3.97863E+02 -5.87805E+02 -5.61423E+02  1.81959E+02 -5.48591E+02  4.02611E+02
 -6.23976E+02  1.69264E+02 -7.56205E+02  1.93087E+02  5.18100E+02 -4.94280E+02 -6.61281E+02 -6.05143E+02
  1.01599E+03 -1.19395E+03 -4.99872E+01  6.81826E+01  9.32068E+02  8.87977E+02 -5.96184E+02  7.18751E+02
 -5.90953E+02  1.67404E+03 -1.33529E+03  1.44859E+03 -1.17549E+03 -2.40534E+02 -7.02561E+02 -5.54204E+02
 -8.18643E+02 -5.48777E+02 -5.21324E+02 -1.26631E+01  4.00872E+02 -6.92180E+01  7.54620E+02  1.68237E+02
  1.10623E+03  9.65913E+01 -2.63064E+02  5.04513E+01 -3.36160E+02 -1.56481E+02 -1.28845E+02 -3.55708E+02
  5.85498E+02 -1.69739E+02  2.07977E+02  7.86040E+02 -1.51287E+02 -4.28295E+02  6.13400E+02 -1.67915E+02
 -7.68739E+02  2.10003E+02  8.53530E+01  3.65678E+02 -5.06460E+02 -4.36994E+02  3.02932E+02 -2.29068E+02
  1.25254E+02 -4.96150E+02  1.68585E+01 -3.11758E+02  6.79260E+02 -7.09236E+02 -3.00256E+02  6.09431E+02
  4.63372E+02 -5.29832E+02  1.11133E+02  6.53084E+02 -2.60231E+02  1.04940E+02  1.71133E+01  4.83181E+02
 -3.13028E+02  3.29328E+01 -3.08040E+02  9.95776E-01 -2.84874E+02  2.52193E+02 -3.56941E+02  4.72225E+01
 -5.71199E+02  1.05086E+03 -5.36809E+02 -3.54331E+02  1.27599E+03 -1.16497E+03  3.18220E+02 -2.37944E+02
  5.19040E+02 -3.26696E+02 -5.97433E+02  4.12003E+01  1.21662E+02  5.75101E+02 -1.64929E+02  9.69853E+01
