 $NMID ID='MM_0lb_SNR400_14hz_g45_30.RAW', FMTDAT='(8E13.5)'
 TRAMP=1., VOLUME=1. $END
  3.09561E+05  7.91975E+01  3.37763E+05  2.50775E+05  8.44992E+04  3.37818E+05 -1.32694E+05  2.50260E+05
 -1.90200E+05  8.29935E+04 -1.11727E+05 -3.24731E+04  5.85081E+02 -5.05873E+04  5.39429E+04 -6.58869E+01
  3.50142E+04  5.25390E+04 -1.72453E+04  7.53689E+04 -6.08818E+04  6.32939E+04 -8.36871E+04  3.18284E+04
 -8.02570E+04 -1.12500E+04 -5.67513E+04 -5.10614E+04 -1.46123E+04 -6.96870E+04  2.72680E+04 -4.51412E+04
  3.91907E+04  3.63696E+03  1.63860E+04  4.80504E+04 -3.45495E+04  4.67717E+04 -6.67201E+04  1.70236E+02
 -5.32426E+04 -5.65677E+04 -6.44799E+03 -7.70086E+04  3.40899E+04 -5.45543E+04  4.75469E+04 -1.72116E+04
  4.24038E+04  1.14922E+04  3.14202E+04  2.51276E+04  1.59071E+04  2.95474E+04 -5.30493E+03  2.71165E+04
 -2.15398E+04  1.25345E+04 -1.78740E+04 -5.51855E+03  5.75165E+03 -7.33454E+03  2.14271E+04  1.21950E+04
  6.86769E+03  3.49464E+04 -3.13764E+04  3.51920E+04 -6.33402E+04  1.87513E+03 -5.68345E+04 -4.26181E+04
 -1.26743E+04 -6.29526E+04  3.95342E+04 -4.50791E+04  5.75902E+04 -2.01466E+03  3.39776E+04  3.18690E+04
 -6.33853E+03  3.53499E+04 -3.03398E+04  1.57476E+04 -2.98954E+04 -4.15633E+03 -1.66687E+04 -1.09275E+04
 -8.16843E+03 -1.37732E+04 -6.54518E+02 -1.79271E+04  7.63440E+03 -2.31303E+04  1.51243E+04 -1.31117E+04
  1.14635E+04  4.79140E+03 -8.31196E+03  1.36070E+04 -2.11023E+04 -4.56100E+03 -8.36612E+03 -3.32551E+04
  2.24853E+04 -4.29524E+04  4.78868E+04 -2.01889E+04  4.44663E+04  1.96889E+04  1.60328E+04  4.40197E+04
 -1.60735E+04  3.34569E+04 -2.43860E+04  1.33047E+03 -9.93531E+03 -2.70979E+04  2.07618E+04 -3.34696E+04
  4.08083E+04 -8.43536E+03  3.49255E+04  2.32803E+04  1.77162E+04  4.53414E+04 -7.67515E+03  4.91546E+04
 -3.10283E+04  3.36046E+04 -4.17545E+04  9.72972E+03 -4.22813E+04 -1.60817E+04 -2.30923E+04 -3.76610E+04
  7.04077E+03 -3.74765E+04  3.12844E+04 -1.43240E+04  2.89000E+04  1.14356E+04  3.46004E+03  1.99263E+04
 -1.32992E+04  8.37826E+03 -1.00342E+04 -7.74217E+03  5.43375E+03 -1.05306E+04  1.75374E+04  5.73790E+03
  1.34089E+04  2.21117E+04 -6.10282E+03  2.50544E+04 -2.26231E+04  1.18253E+04 -2.73975E+04 -4.95033E+03
 -2.01891E+04 -1.72278E+04 -8.26855E+03 -1.98643E+04  3.58152E+03 -1.96665E+04  1.53068E+04 -1.76721E+04
  2.58448E+04 -1.24557E+04  3.18798E+04  2.59734E+03  2.32038E+04  2.02002E+04  4.24459E+03  3.54316E+04
 -1.77648E+04  3.01242E+04 -2.78410E+04  1.02978E+04 -2.14182E+04 -1.04248E+04 -4.80461E+03 -1.40176E+04
  1.92554E+03 -3.01144E+03 -5.58384E+03  6.73976E+03 -1.64004E+04  5.16486E+03 -1.49822E+04 -6.69720E+03
 -9.78604E+03 -1.90435E+04  5.33089E+03 -2.27178E+04  1.48220E+04 -1.59784E+04  1.78650E+04 -1.96659E+03
  1.07615E+04  1.34693E+04 -1.54943E+03  1.84412E+04 -1.26121E+04  1.02151E+04 -1.83387E+04 -4.37215E+03
 -1.35770E+04 -1.68925E+04 -1.75272E+03 -2.26954E+04  1.04058E+04 -1.82719E+04  1.93587E+04 -8.20417E+03
  1.76782E+04  4.08027E+02  1.29129E+04  4.03005E+03  6.53381E+03  1.19762E+03  9.79021E+03 -1.53809E+03
  1.72831E+04  2.82805E+03  1.88237E+04  1.52512E+04  1.23864E+04  2.94426E+04 -3.41171E+03  3.32151E+04
 -1.96226E+04  2.72326E+04 -3.14799E+04  1.30131E+04 -3.29860E+04 -2.11014E+03 -2.74914E+04 -1.88442E+04
 -1.23004E+04 -2.59590E+04  9.45231E+03 -2.46479E+04  2.05461E+04 -1.25040E+04  1.87982E+04  5.37386E+03
  7.59232E+03  1.45790E+04 -8.89193E+03  1.16814E+04 -1.58087E+04  2.56701E+03 -1.24709E+04 -9.74944E+03
  2.57309E+02 -1.46787E+04  7.39597E+03 -1.13558E+04  1.00179E+04 -1.43809E+03  1.59619E+03  6.94257E+03
 -7.20413E+03  2.80370E+03 -5.42958E+03 -5.19746E+03 -2.19624E+02 -1.40045E+04  9.47071E+03 -1.33779E+04
  1.64738E+04 -6.94832E+03  1.73469E+04  2.77810E+03  1.58355E+04  1.32028E+04  7.09868E+03  1.98361E+04
 -2.79172E+03  2.21294E+04 -1.34181E+04  1.28095E+04 -1.60350E+04  4.19488E+03 -1.14208E+04 -3.80595E+03
 -5.09071E+03 -4.45332E+03 -6.11515E+02  1.75312E+03 -2.54503E+03  3.12679E+03 -4.88448E+03  4.34195E+03
 -1.08498E+04 -5.29981E+02 -1.14369E+04 -8.83289E+03 -4.42912E+03 -1.50179E+04  4.48267E+03 -1.13047E+04
  9.14901E+03 -4.55261E+03  6.23857E+03  2.42379E+03  3.11800E+02  3.97408E+03 -4.74415E+03 -5.98758E+02
 -4.59108E+03 -7.06407E+03 -5.17142E+02 -9.97885E+03  6.24870E+03 -1.10318E+04  1.37806E+04 -5.96525E+03
  1.61111E+04  9.51457E+02  1.17668E+04  8.64934E+03  2.39466E+03  1.27010E+04 -7.18499E+03  1.06481E+04
 -9.44447E+03  3.50193E+03 -4.32058E+03 -1.74425E+03  1.14903E+03 -2.65719E+03  5.96967E+03 -9.87227E+02
  4.97155E+03  4.98710E+03  1.04491E+03  8.46914E+03 -6.17187E+03  8.41122E+03 -1.01995E+04  2.82771E+03
 -7.15062E+03 -5.23391E+03  2.71293E+02 -8.99174E+03  5.17653E+03 -4.55083E+03  5.73996E+03  1.95743E+03
  1.83849E+03  5.54257E+03 -5.92076E+03  7.12510E+03 -7.76759E+03  3.64965E+03 -7.86359E+03 -2.59223E+03
 -4.91568E+03 -9.79608E+03  2.52843E+03 -1.18327E+04  9.55641E+03 -7.53899E+03  1.01297E+04  1.29483E+03
  6.27179E+03  7.96196E+03 -1.12794E+03  9.99279E+03 -6.98073E+03  6.30205E+03 -7.47975E+03 -1.02677E+03
 -7.54020E+03 -6.96154E+03 -1.99007E+03 -8.05608E+03  3.70427E+03 -6.13008E+03  4.64144E+03 -3.03778E+03
  3.30607E+03  4.45479E+02 -4.03597E+02  1.64995E+03  5.54099E+02 -1.37337E+03  8.22606E+02 -4.11839E+03
  5.97235E+03 -2.91293E+03  8.79487E+03  7.71156E+02  9.15292E+03  6.31379E+03  6.43470E+03  1.17989E+04
 -2.15589E+03  1.40676E+04 -1.17376E+04  1.04130E+04 -1.49378E+04  1.35704E+03 -1.22193E+04 -5.23243E+03
 -6.35998E+03 -1.03784E+04 -3.63379E+02 -8.08523E+03  2.46551E+03 -4.32389E+03  3.01077E+03 -3.17257E+03
  1.79805E+03 -1.59611E+03  2.65541E+03 -2.86599E+03  4.65419E+03 -2.76312E+03  4.77503E+03 -6.27237E+01
  6.45107E+03  1.24653E+03  2.93220E+03  5.46542E+03 -2.21001E+03  5.42366E+03 -7.37655E+03  4.37705E+03
 -8.37469E+03 -2.51124E+03 -4.58125E+03 -6.11677E+03  9.67318E+01 -8.83467E+03  5.33212E+03 -8.76301E+03
  9.24319E+03 -5.27922E+03  1.11591E+04  1.17405E+03  8.15231E+03  6.95006E+03  1.82994E+03  9.86477E+03
 -4.18643E+03  8.97096E+03 -4.88626E+03  2.85472E+03 -3.71478E+03 -1.42460E+03 -1.65234E+03 -1.03400E+03
 -9.53086E+02  6.14765E+02 -6.69555E+02  1.65868E+03 -3.77621E+03  1.24130E+03 -5.25952E+03 -9.94541E+02
 -3.92775E+03 -5.98786E+03  1.24175E+03 -7.52386E+03  4.89857E+03 -7.57241E+03  6.95278E+03 -2.51891E+03
  7.90768E+03  3.54886E+03  3.42188E+03  6.47721E+03 -1.47960E+03  8.30893E+03 -4.78171E+03  5.42345E+03
 -7.11103E+03  5.23047E+02 -5.82167E+03 -4.89343E+03 -5.16959E+02 -6.47709E+03  3.24345E+03 -4.53675E+03
  5.11178E+03 -1.79059E+03  2.87949E+03  1.62325E+03  9.85558E+02  2.87428E+03  1.78043E+03  1.21703E+03
  2.40202E+03  7.57605E+02  1.16474E+03  1.23834E+03  2.11036E+03  2.88795E+03  2.16295E+03  3.65414E+03
 -1.83283E+03  5.89930E+03 -4.97943E+03  6.16995E+03 -6.80065E+03  1.83184E+03 -7.70264E+03 -2.75212E+03
 -2.55509E+03 -7.43075E+03  1.10418E+03 -8.29931E+03  3.72870E+03 -5.18578E+03  5.90499E+03 -1.25995E+03
  4.39505E+03  2.66036E+03  9.62683E+02  4.01538E+03 -1.51656E+03  2.51317E+03 -2.65847E+03 -5.46194E+02
 -1.93747E+03 -3.40415E+03  1.92627E+03 -3.14329E+03  2.73157E+03 -2.17023E+03  2.59075E+03  9.11904E+02
  1.73449E+03  1.22078E+03  2.91263E+01  6.53707E+02 -5.75500E+02  1.37423E+03  1.62431E+03  1.40130E+02
  4.45391E+02  4.94592E+02  2.28502E+03  9.20110E+02  1.52444E+03  3.89333E+03 -3.68203E+02  5.64877E+03
 -3.25322E+03  2.46702E+03 -4.31594E+03  4.21536E+02 -4.57771E+03 -1.62512E+03 -1.00357E+03 -2.50685E+03
  4.44917E+02 -2.51845E+03  2.01294E+03 -1.56660E+03  1.27906E+03  1.45177E+03 -8.84288E+02  1.52871E+03
 -3.07282E+03  1.57076E+03 -2.91545E+03 -2.20764E+03 -1.91135E+03 -3.84847E+03 -1.60794E+02 -3.93655E+03
  1.55198E+03 -1.77811E+03  2.87269E+03 -1.71572E+02  2.29638E+03  2.76986E+02  5.69815E+02  2.35940E+03
 -5.19371E+02  6.75920E+02 -1.73733E+03 -1.80925E+03  1.44025E+03 -2.37658E+03  3.87935E+03 -2.07647E+03
  3.86759E+03  1.51210E+02  4.35386E+03  2.43906E+03  2.07656E+03  4.27123E+03 -7.67381E+02  3.77311E+03
 -4.14342E+03  1.32261E+03 -3.49836E+03 -2.93622E+02 -2.18903E+03 -3.00438E+03  6.09183E+02 -2.45358E+03
  3.43561E+03 -1.56928E+03  1.86560E+03  7.76441E+02  7.48412E+01  2.82414E+03 -5.62897E+02  2.26837E+03
 -5.94958E+02  1.33247E+03 -1.08835E+03 -1.06486E+02 -9.23653E+01  4.51262E+02 -2.76368E+02  5.39897E+02
 -1.14510E+03  2.47978E+03 -3.48295E+03  9.08651E+02 -4.12630E+03  1.23883E+02 -5.02098E+03 -2.13823E+03
 -1.79427E+03 -5.67422E+03  8.17165E+02 -6.41924E+03  3.65766E+03 -5.36081E+03  6.26877E+03 -1.58356E+03
  5.36407E+03  7.92538E+02  3.43633E+03  4.35142E+03  2.70142E+02  4.10372E+03 -1.46597E+03  2.65036E+03
 -2.09459E+03  1.25811E+03 -1.61120E+03 -8.29765E+02 -1.48772E+03  1.30192E+02 -7.35942E+02  1.65577E+02
 -1.24058E+03 -8.12737E+02 -1.42074E+03 -8.42205E+02  2.35007E+02 -9.64062E+02  2.82387E+02 -2.49062E+03
  2.48687E+03 -1.46110E+03  1.53504E+03 -7.34809E+01  2.73186E+03  2.79483E+03 -1.90824E+02  3.68029E+03
 -1.84990E+03  4.81413E+03 -4.06945E+03  3.37048E+03 -4.88659E+03 -7.29531E+02 -3.59287E+03 -3.02619E+03
 -1.24113E+03 -4.12400E+03  1.00469E+03 -3.50296E+03  1.96177E+03 -1.40895E+03  2.48913E+03 -3.15747E+00
  1.16328E+03  1.35682E+03  7.17266E+02  1.17473E+03 -6.18381E+02  6.41507E+01 -2.00431E+02 -1.06554E+03
  1.12923E+03 -1.58256E+02  1.80810E+03  6.13816E+02  2.17745E+02  1.70711E+03  4.02216E+02  1.40970E+03
 -1.83115E+03  2.62264E+03 -2.28504E+03  8.62140E+01 -2.05663E+03 -1.37465E+03 -3.43656E+01 -3.05360E+03
  1.35002E+03 -2.52164E+03  2.48834E+03  1.98273E+02  2.57255E+03 -2.19138E+01  1.41520E+03  2.27353E+03
  9.92530E+02  2.62363E+03 -1.01328E+03  1.69228E+03 -1.38692E+03  1.16778E+03 -9.75374E+02  3.02661E+02
  5.86116E+01  1.66535E+02 -6.99106E+02  7.89784E+02 -1.39879E+03  4.23633E+02 -1.69224E+03 -4.03799E+02
 -1.86981E+03 -9.67832E+02 -5.08630E+02 -1.78893E+03  2.00675E+03 -3.23880E+03  1.81143E+03 -1.43352E+03
  2.29610E+03  6.06953E+02  6.07307E+02  1.55835E+03 -7.12049E+02  2.34122E+03 -1.12601E+03  1.71748E+03
