 $NMID ID='MM_0lb_SNR400_17hz_g40_48.RAW', FMTDAT='(8E13.5)'
 TRAMP=1., VOLUME=1. $END
  3.09373E+05 -3.96562E+01  3.37394E+05  2.50908E+05  8.43792E+04  3.37495E+05 -1.32883E+05  2.49905E+05
 -1.89665E+05  8.25184E+04 -1.10628E+05 -3.31201E+04  1.81806E+03 -5.06191E+04  5.39989E+04  3.01198E+02
  3.54434E+04  5.28735E+04 -1.72651E+04  7.49149E+04 -6.03916E+04  6.26803E+04 -8.25934E+04  3.21798E+04
 -7.92263E+04 -1.12214E+04 -5.69847E+04 -5.02818E+04 -1.50749E+04 -6.82403E+04  2.71545E+04 -4.47899E+04
  3.92973E+04  4.44508E+03  1.53641E+04  4.74152E+04 -3.37616E+04  4.65109E+04 -6.50054E+04 -6.72589E+01
 -5.22832E+04 -5.60304E+04 -6.48841E+03 -7.53150E+04  3.31820E+04 -5.31881E+04  4.68725E+04 -1.59452E+04
  4.14373E+04  1.11336E+04  3.08439E+04  2.45053E+04  1.59167E+04  2.85036E+04 -4.67067E+03  2.65892E+04
 -2.19631E+04  1.36211E+04 -1.89114E+04 -4.42106E+03  4.59493E+03 -7.54667E+03  2.13967E+04  1.11148E+04
  7.55244E+03  3.34176E+04 -3.07558E+04  3.40558E+04 -6.13607E+04  2.44208E+03 -5.58102E+04 -4.12912E+04
 -1.24409E+04 -6.15106E+04  3.85242E+04 -4.33753E+04  5.62778E+04 -2.13743E+03  3.24711E+04  3.08642E+04
 -6.48033E+03  3.28518E+04 -2.85911E+04  1.39418E+04 -2.79488E+04 -5.14867E+03 -1.48752E+04 -9.89106E+03
 -7.14047E+03 -1.15297E+04 -8.16412E+02 -1.62963E+04  6.65157E+03 -2.23456E+04  1.55275E+04 -1.34334E+04
  1.24116E+04  4.47216E+03 -6.44000E+03  1.35377E+04 -1.98844E+04 -3.13645E+03 -7.79756E+03 -3.09749E+04
  2.10598E+04 -4.03807E+04  4.50108E+04 -1.84497E+04  4.22169E+04  1.80777E+04  1.47058E+04  4.18003E+04
 -1.56568E+04  3.13519E+04 -2.37988E+04  1.03898E+03 -8.84029E+03 -2.63064E+04  2.10171E+04 -3.17780E+04
  3.86560E+04 -7.60311E+03  3.18710E+04  2.28200E+04  1.59635E+04  4.28420E+04 -7.55773E+03  4.55317E+04
 -2.85122E+04  3.01571E+04 -3.76070E+04  7.76386E+03 -3.89095E+04 -1.53621E+04 -2.14435E+04 -3.45865E+04
  6.92073E+03 -3.47696E+04  2.96718E+04 -1.26292E+04  2.70399E+04  1.05680E+04  3.39443E+03  1.84548E+04
 -1.34037E+04  7.80623E+03 -9.70388E+03 -7.97224E+03  5.95790E+03 -1.00747E+04  1.74960E+04  5.87630E+03
  1.27011E+04  2.12988E+04 -6.40634E+03  2.35995E+04 -2.16840E+04  9.42441E+03 -2.51027E+04 -5.90764E+03
 -1.75287E+04 -1.63716E+04 -6.05716E+03 -1.68843E+04  4.18461E+03 -1.53451E+04  1.28062E+04 -1.49109E+04
  2.16036E+04 -1.19325E+04  2.86791E+04  1.72626E+03  2.15039E+04  1.72295E+04  3.51309E+03  3.28663E+04
 -1.59480E+04  2.81074E+04 -2.55638E+04  9.77426E+03 -1.97362E+04 -1.00976E+04 -3.94753E+03 -1.36734E+04
  2.30997E+03 -4.08296E+03 -2.72779E+03  5.31275E+03 -1.29627E+04  4.84013E+03 -1.36076E+04 -4.95552E+03
 -9.06364E+03 -1.56194E+04  4.84419E+03 -2.01264E+04  1.29192E+04 -1.41775E+04  1.46850E+04 -1.10401E+03
  8.89993E+03  1.13504E+04 -2.89419E+02  1.61454E+04 -1.02608E+04  8.58480E+03 -1.55815E+04 -4.33266E+03
 -1.16242E+04 -1.47157E+04 -1.24935E+03 -2.00572E+04  8.42418E+03 -1.61844E+04  1.67783E+04 -7.56618E+03
  1.47460E+04  3.86410E+02  1.07619E+04  4.24550E+03  5.30771E+03  8.83365E+02  8.09583E+03 -1.96696E+03
  1.44891E+04  3.15334E+03  1.50954E+04  1.27846E+04  9.80724E+03  2.55766E+04 -3.06984E+03  2.75349E+04
 -1.64113E+04  2.06924E+04 -2.52193E+04  1.02551E+04 -2.65453E+04 -1.58357E+03 -2.24758E+04 -1.48720E+04
 -1.03239E+04 -2.13142E+04  6.86143E+03 -1.98215E+04  1.75100E+04 -1.10621E+04  1.60295E+04  3.52542E+03
  6.73904E+03  1.19938E+04 -7.45972E+03  1.11295E+04 -1.41619E+04  3.02610E+03 -1.10048E+04 -7.90036E+03
 -1.35865E+02 -1.33136E+04  6.05709E+03 -9.83951E+03  8.03109E+03 -1.21229E+03  1.46557E+03  5.36837E+03
 -5.93356E+03  1.69986E+03 -3.80814E+03 -4.27208E+03 -1.28082E+02 -1.07067E+04  8.51035E+03 -1.05952E+04
  1.31366E+04 -5.32201E+03  1.27743E+04  3.08227E+03  1.10250E+04  1.03632E+04  5.53707E+03  1.45469E+04
 -1.89974E+03  1.70239E+04 -1.05971E+04  1.10089E+04 -1.19507E+04  2.73514E+03 -8.70543E+03 -2.00044E+03
 -4.65021E+03 -3.77618E+03 -9.37073E+02  1.34638E+03 -1.79608E+03  1.72481E+03 -3.98974E+03  3.62585E+03
 -8.39141E+03 -5.70560E+02 -9.30317E+03 -8.02816E+03 -3.59601E+03 -1.21598E+04  3.57102E+03 -9.20634E+03
  7.42792E+03 -4.21984E+03  5.46417E+03  2.60178E+03  5.45104E+02  3.66523E+03 -3.64803E+03 -2.32085E+02
 -4.07667E+03 -5.73512E+03 -1.10660E+03 -7.71452E+03  4.69040E+03 -8.66371E+03  1.09907E+04 -4.16561E+03
  1.20862E+04  6.91190E+02  9.32335E+03  7.07532E+03  1.92363E+03  9.08900E+03 -5.47259E+03  8.74088E+03
 -6.44754E+03  3.03512E+03 -3.17526E+03 -1.26078E+03  1.03568E+03 -2.10975E+03  4.61568E+03 -1.06577E+03
  4.49134E+03  3.31040E+03  4.80912E+02  6.58685E+03 -4.88546E+03  7.41712E+03 -8.94103E+03  1.75950E+03
 -5.13943E+03 -3.73851E+03  1.94173E+02 -6.91152E+03  3.93269E+03 -3.87776E+03  4.12563E+03  1.21683E+03
  8.26210E+02  3.36186E+03 -4.72571E+03  5.43335E+03 -5.92586E+03  2.54021E+03 -5.23121E+03 -1.71677E+03
 -3.94152E+03 -6.97462E+03  9.95123E+02 -8.01756E+03  6.28889E+03 -5.03215E+03  7.80187E+03  1.64622E+03
  5.24316E+03  5.88413E+03  6.60987E+01  8.29984E+03 -5.45210E+03  4.68492E+03 -5.77066E+03 -5.29250E+02
 -6.46005E+03 -5.32650E+03 -1.47850E+03 -5.90339E+03  2.95390E+03 -5.16207E+03  2.87332E+03 -2.93326E+03
  2.98471E+03  1.88921E+02  1.44185E+01  1.39579E+03 -6.84967E+01 -6.59964E+02  3.87664E+02 -2.04518E+03
  5.18937E+03 -5.51530E+02  6.45921E+03  1.02016E+03  6.22196E+03  2.91439E+03  5.76775E+03  7.84221E+03
 -2.06720E+03  9.48263E+03 -8.29660E+03  7.83497E+03 -1.12841E+04  2.12261E+03 -8.84196E+03 -3.12037E+03
 -4.97453E+03 -6.97953E+03 -2.59059E+02 -6.16578E+03  2.63844E+03 -2.46669E+03  2.17300E+03 -2.49634E+03
  1.16054E+03 -1.62993E+03  2.02627E+03 -2.16976E+03  3.27573E+03 -1.21382E+03  4.01797E+03  6.39379E+02
  5.27508E+03  1.83696E+03  1.79243E+03  3.23550E+03 -1.90183E+03  3.03214E+03 -5.32548E+03  3.17914E+03
 -5.99237E+03 -1.26825E+03 -2.31500E+03 -3.62412E+03  5.17014E+02 -5.39625E+03  3.56240E+03 -5.58723E+03
  6.02080E+03 -3.78000E+03  7.48842E+03  7.61025E+01  5.47266E+03  4.64667E+03  1.24894E+03  7.19216E+03
 -2.50079E+03  6.42068E+03 -4.17857E+03  2.15976E+03 -2.42269E+03 -9.51849E+02 -9.00564E+02 -6.41391E+02
 -2.93443E+02  7.25868E+02 -9.79628E+02  2.16675E+03 -3.06649E+03  1.26914E+03 -4.73394E+03 -5.06104E+02
 -2.09955E+03 -4.69807E+03  8.56123E+02 -5.03993E+03  3.42137E+03 -5.02427E+03  4.33737E+03 -1.03306E+03
  4.53299E+03  2.78365E+03  2.20473E+03  4.30392E+03 -1.00348E+03  5.19578E+03 -3.24885E+03  3.82980E+03
 -4.27719E+03  3.53427E+02 -4.19718E+03 -3.08726E+03 -3.83788E+02 -4.25512E+03  1.61027E+03 -2.47773E+03
  3.80842E+03 -1.60654E+03  2.14481E+03  2.03966E+02  4.95540E+02  1.61560E+03  1.02291E+03  6.25964E+02
  1.05066E+03  1.38660E+03  1.64424E+03  1.25313E+03  1.32097E+03  2.29185E+03  1.69837E+03  1.53778E+03
 -9.63774E+02  3.47484E+03 -3.48236E+03  4.56682E+03 -4.24997E+03  1.37072E+03 -5.24910E+03 -7.35165E+02
 -2.25908E+03 -4.33159E+03  4.17201E+02 -5.78564E+03  2.29009E+03 -2.19820E+03  3.25944E+03 -1.04816E+03
  2.79342E+03  1.87353E+03  7.06773E+02  2.97732E+03 -5.58338E+02  1.53552E+03 -1.09330E+03 -2.69821E+01
 -1.06542E+03 -1.64819E+03  1.44627E+03 -1.88354E+03  1.15469E+03 -1.01830E+03  1.90848E+03  4.55871E+02
  7.97457E+02  5.09386E+02  9.34381E+02  9.22893E+01 -2.86777E+02  1.02132E+03  1.47267E+03 -1.47133E+02
  2.83469E+02 -2.93796E+02  2.80327E+03  9.73966E+02  1.45600E+01  2.83683E+03 -7.03483E+02  3.65985E+03
 -1.87282E+03  1.32316E+03 -3.19546E+03  4.21843E+02 -2.68282E+03 -9.50642E+02 -8.88696E+02 -1.39433E+03
  8.20002E+02 -1.80272E+03  1.60691E+03 -5.61561E+02  2.43279E+02  1.66437E+03 -9.20217E+02  9.49265E+02
 -1.87282E+03  9.35682E+02 -1.66092E+03 -1.55283E+03 -7.41832E+02 -2.46205E+03  3.13171E+02 -1.68079E+03
  4.11749E+02 -1.11904E+03  1.15209E+03  6.75268E+02  1.61766E+03  1.50860E+02  3.46125E+02  2.08187E+03
 -8.31767E+02  1.13286E+02 -1.10035E+03 -2.96106E+02  9.13638E+02 -1.13287E+03  2.49079E+03 -1.49333E+03
  1.85579E+03  8.91894E+00  3.56336E+03  1.51287E+03  1.01824E+03  2.31142E+03 -1.01797E+03  2.58364E+03
 -2.41154E+03  1.49950E+02 -1.67327E+03 -2.68745E+02 -1.07639E+03 -1.31666E+03  7.14280E+01 -1.13967E+03
  1.61344E+03 -1.45604E+03  1.64521E+03  8.88099E+02  2.14810E+02  1.14344E+03 -2.28953E+01  1.18079E+03
 -5.20307E+02  1.27360E+03 -8.23895E+02  4.91578E+01 -7.30891E+01  2.69083E+02 -5.14512E+02  1.11415E+03
 -4.26018E+02  1.17301E+03 -2.42964E+03  4.42757E+02 -2.45192E+03  1.49353E+02 -2.84254E+03 -1.84332E+03
 -1.35835E+03 -2.76232E+03  7.42115E+02 -3.13861E+03  1.67894E+03 -3.02597E+03  3.63346E+03 -1.04496E+03
  2.67903E+03  5.42445E+02  1.47958E+03  2.29425E+03 -2.73731E+02  2.31083E+03 -7.29022E+02  2.49550E+03
 -1.65519E+03  7.96333E+02 -1.04547E+03 -5.26930E+02 -1.75129E+02  9.79978E+02 -7.17813E+02  1.84375E+02
 -5.47442E+02  1.05132E+02 -8.41634E+02 -5.89039E+02  1.76496E+02 -5.04445E+02 -2.76616E+02 -6.86606E+02
  1.32688E+03 -9.24265E+02  6.04738E+02  1.34972E+02  1.68125E+03  1.51465E+03 -1.10048E+02  1.32952E+03
 -7.41760E+02  2.78961E+03 -1.94025E+03  1.88849E+03 -2.62196E+03 -1.94256E+02 -1.81784E+03 -1.59178E+03
 -8.60815E+02 -2.05437E+03  6.84889E+02 -1.65080E+03  4.34692E+02 -7.79161E+02  5.07721E+02  4.90388E+01
  1.04749E+03  5.44557E+02  2.24068E+02  6.43343E+02 -6.52115E+02  8.32276E+01 -2.75171E+02 -2.69363E+02
  7.32475E+02  1.60300E+01  1.30554E+02  2.63452E+02  9.23526E+02  6.50557E+02  7.47797E+02  6.14465E+02
 -6.09707E+02  7.54348E+02 -1.17473E+03  4.87728E+02 -4.61586E+02 -3.55271E+02 -2.18037E+02 -1.36474E+03
  1.16671E+03 -1.26909E+03  1.74791E+03 -1.74002E+02  9.39546E+02 -1.25976E+03  1.35236E+03  9.54162E+02
  3.81799E+02  6.33217E+02 -9.61947E+02  1.33561E+03 -4.33561E+02  4.96235E+02 -2.88776E+02 -4.28991E+02
 -1.64573E+02  1.25996E+02 -6.00233E+02  8.21322E+02 -5.78783E+02 -2.43866E+02 -1.58570E+03 -1.99416E+02
 -7.70359E+02 -2.94327E+02 -6.25969E+02 -1.55275E+03  1.02256E+03 -2.25382E+03  9.34716E+02 -4.23355E+02
  8.52790E+02  3.30367E+02  1.55457E+02  3.08984E+02 -2.23695E+02  1.45664E+03 -9.67699E+02  1.37129E+03
