 $NMID ID='MM_0lb_SNR400_9hz_g50_80.RAW', FMTDAT='(8E13.5)'
 TRAMP=1., VOLUME=1. $END
  3.09541E+05  2.90884E+02  3.38550E+05  2.50543E+05  8.48607E+04  3.38428E+05 -1.33122E+05  2.51894E+05
 -1.90868E+05  8.40435E+04 -1.12537E+05 -3.17607E+04  3.45193E+02 -5.10039E+04  5.35074E+04 -9.16434E+02
  3.51183E+04  5.29463E+04 -1.70875E+04  7.53799E+04 -6.21357E+04  6.43808E+04 -8.48183E+04  3.27913E+04
 -8.31903E+04 -1.22174E+04 -5.84157E+04 -5.17296E+04 -1.50063E+04 -7.05159E+04  2.81078E+04 -4.66847E+04
  4.08774E+04  3.72626E+03  1.72697E+04  4.79579E+04 -3.46815E+04  4.77620E+04 -6.77575E+04 -2.62485E+02
 -5.53939E+04 -5.81853E+04 -7.59934E+03 -7.84608E+04  3.45906E+04 -5.68756E+04  5.06016E+04 -1.79838E+04
  4.51883E+04  1.15985E+04  3.30946E+04  2.68030E+04  1.70455E+04  3.08704E+04 -6.22108E+03  2.72069E+04
 -2.19978E+04  1.19306E+04 -1.78471E+04 -5.48273E+03  5.90687E+03 -7.25769E+03  2.32419E+04  1.37549E+04
  7.13678E+03  3.75930E+04 -3.46709E+04  3.68516E+04 -6.53608E+04  1.70886E+03 -5.85034E+04 -4.42586E+04
 -1.29143E+04 -6.61472E+04  4.12162E+04 -4.70882E+04  6.10482E+04 -1.83428E+03  3.67861E+04  3.36676E+04
 -5.34545E+03  3.99540E+04 -3.21986E+04  1.88049E+04 -3.35743E+04 -3.77294E+03 -1.97530E+04 -1.21511E+04
 -9.51078E+03 -1.46232E+04 -5.70524E+02 -2.00564E+04  8.83155E+03 -2.39073E+04  1.61197E+04 -1.27450E+04
  1.06189E+04  5.77375E+03 -1.06917E+04  1.27913E+04 -2.34149E+04 -6.60847E+03 -8.47466E+03 -3.75469E+04
  2.48090E+04 -4.69204E+04  5.20553E+04 -2.08850E+04  4.89124E+04  2.05550E+04  1.77411E+04  4.69703E+04
 -1.63043E+04  3.63120E+04 -2.75355E+04  2.85869E+03 -1.14440E+04 -2.92267E+04  2.12231E+04 -3.68141E+04
  4.42734E+04 -1.07354E+04  4.03445E+04  2.51752E+04  2.11050E+04  5.11690E+04 -7.99582E+03  5.62781E+04
 -3.50847E+04  3.83952E+04 -4.70877E+04  1.11541E+04 -4.78705E+04 -1.86337E+04 -2.54625E+04 -4.21638E+04
  7.97470E+03 -4.21198E+04  3.34833E+04 -1.70747E+04  3.22816E+04  1.08941E+04  4.89471E+03  2.09109E+04
 -1.41769E+04  9.39010E+03 -1.06456E+04 -7.26179E+03  6.10690E+03 -1.15497E+04  1.96706E+04  5.08622E+03
  1.48090E+04  2.35569E+04 -5.16189E+03  2.73157E+04 -2.35753E+04  1.45607E+04 -3.07160E+04 -3.50332E+03
 -2.52310E+04 -1.81734E+04 -1.17751E+04 -2.41764E+04  3.76373E+03 -2.48272E+04  1.96478E+04 -2.33808E+04
  3.14109E+04 -1.36851E+04  3.73819E+04  4.62074E+03  2.67685E+04  2.43418E+04  4.17565E+03  4.19015E+04
 -1.92158E+04  3.38250E+04 -3.05163E+04  1.20003E+04 -2.25179E+04 -9.91976E+03 -4.73874E+03 -1.24818E+04
  1.10980E+03 -1.85661E+03 -7.63566E+03  7.51004E+03 -2.04129E+04  4.63839E+03 -1.97232E+04 -8.50938E+03
 -1.24558E+04 -2.29538E+04  5.97061E+03 -2.75543E+04  1.92928E+04 -1.99655E+04  2.27220E+04 -2.08211E+03
  1.48401E+04  1.60977E+04 -1.48404E+03  2.35344E+04 -1.68140E+04  1.27734E+04 -2.41463E+04 -4.37413E+03
 -1.75868E+04 -2.20991E+04 -1.95388E+03 -2.80386E+04  1.33474E+04 -2.33434E+04  2.22052E+04 -1.24725E+04
  2.17871E+04 -4.40017E+02  1.63386E+04  4.10936E+03  9.01282E+03  1.15035E+03  1.17566E+04 -1.98712E+03
  2.13485E+04  2.82520E+03  2.52445E+04  1.79819E+04  1.77840E+04  3.66621E+04 -2.46007E+03  4.41620E+04
 -2.58706E+04  3.70039E+04 -4.20188E+04  1.91267E+04 -4.44504E+04 -3.02300E+03 -3.65778E+04 -2.58998E+04
 -1.44515E+04 -3.70661E+04  1.26701E+04 -3.25948E+04  2.81266E+04 -1.53678E+04  2.43959E+04  7.31026E+03
  7.61702E+03  1.84675E+04 -1.14368E+04  1.55017E+04 -2.00189E+04  2.57154E+03 -1.50425E+04 -1.21423E+04
  1.37447E+01 -1.86621E+04  1.03159E+04 -1.46691E+04  1.25504E+04 -1.56601E+03  3.02181E+03  9.30300E+03
 -8.49040E+03  3.86505E+03 -9.55860E+03 -7.60763E+03 -1.95301E+03 -1.83657E+04  1.21757E+04 -2.03709E+04
  2.23410E+04 -1.09172E+04  2.65015E+04  3.86639E+03  2.33202E+04  1.87072E+04  1.05410E+04  2.96246E+04
 -4.76665E+03  3.07650E+04 -1.98093E+04  1.94781E+04 -2.20324E+04  3.95160E+03 -1.58671E+04 -6.15981E+03
 -6.38264E+03 -7.86932E+03 -1.76114E+03  4.04137E+02 -2.84532E+03  3.44875E+03 -7.71013E+03  5.44164E+03
 -1.44506E+04 -1.89335E+03 -1.49767E+04 -1.21794E+04 -6.27256E+03 -2.06695E+04  6.68327E+03 -1.69925E+04
  1.27968E+04 -6.31347E+03  9.24225E+03  4.53556E+03 -2.51979E+01  7.38293E+03 -8.05493E+03 -3.53078E+02
 -8.08681E+03 -1.04901E+04 -1.18957E+03 -1.48272E+04  8.72006E+03 -1.66351E+04  2.03360E+04 -8.78990E+03
  2.33604E+04  3.08365E+03  1.68476E+04  1.41649E+04  2.49560E+03  1.96595E+04 -8.71674E+03  1.50717E+04
 -1.30605E+04  4.37779E+03 -7.17381E+03 -3.57088E+03  2.05667E+03 -4.41376E+03  9.00474E+03 -1.14437E+03
  7.91594E+03  6.56354E+03  1.12708E+03  1.26488E+04 -9.13824E+03  1.16123E+04 -1.56484E+04  3.15798E+03
 -1.07391E+04 -8.62936E+03  5.58130E+02 -1.35006E+04  8.66345E+03 -6.87574E+03  9.59035E+03  3.87818E+03
  2.23445E+03  1.05972E+04 -8.40881E+03  1.08719E+04 -1.45442E+04  5.30113E+03 -1.35986E+04 -4.74484E+03
 -7.78719E+03 -1.62315E+04  3.56214E+03 -1.75656E+04  1.56455E+04 -1.15504E+04  1.73206E+04  2.69636E+03
  9.30539E+03  1.34939E+04 -9.42448E+02  1.64794E+04 -1.18243E+04  8.51035E+03 -1.27889E+04 -1.29028E+03
 -1.06598E+04 -1.11241E+04 -1.31225E+03 -1.19730E+04  6.18648E+03 -9.32105E+03  7.40509E+03 -5.56737E+03
  5.70406E+03  3.07281E+03 -1.46218E+03  2.73161E+03 -1.55604E+03 -3.69149E+03  3.02332E+03 -7.22173E+03
  1.16682E+04 -5.39486E+03  1.57187E+04  1.64636E+03  1.59239E+04  1.12192E+04  1.05520E+04  2.14122E+04
 -4.87852E+03  2.39423E+04 -2.05834E+04  1.72017E+04 -2.60578E+04  3.56015E+03 -2.05503E+04 -9.31626E+03
 -1.05448E+04 -1.74401E+04 -7.65581E+01 -1.40090E+04  5.24859E+03 -8.19098E+03  5.91590E+03 -4.91210E+03
  3.69266E+03 -2.79014E+03  3.66708E+03 -3.98369E+03  5.93494E+03 -3.70198E+03  8.31972E+03 -1.34099E+03
  1.08664E+04  2.20776E+03  6.38985E+03  9.05718E+03 -2.75853E+03  1.16073E+04 -1.15479E+04  8.63331E+03
 -1.44725E+04 -8.20547E+02 -9.33803E+03 -1.01737E+04 -1.39092E+03 -1.59331E+04  8.28359E+03 -1.57811E+04
  1.70912E+04 -8.64210E+03  1.95073E+04  2.21413E+03  1.29010E+04  1.41332E+04  1.50603E+03  1.77410E+04
 -7.47945E+03  1.47479E+04 -1.06374E+04  4.01410E+03 -7.48369E+03 -2.17108E+03 -3.10718E+03 -2.09131E+03
 -1.33086E+03 -5.61193E+02 -2.26317E+03  2.84041E+03 -5.89347E+03  1.94105E+03 -9.53609E+03 -1.50477E+03
 -6.99812E+03 -1.11147E+04  4.15576E+02 -1.47457E+04  8.21929E+03 -1.34970E+04  1.47610E+04 -4.89171E+03
  1.45018E+04  6.87051E+03  6.86834E+03  1.37041E+04 -3.17161E+03  1.47841E+04 -1.03685E+04  9.90835E+03
 -1.38748E+04  2.34763E+02 -1.05457E+04 -9.01264E+03 -1.19946E+03 -1.27591E+04  5.37414E+03 -8.94994E+03
  9.34429E+03 -3.25504E+03  7.51806E+03  2.89542E+03  2.25448E+03  4.15143E+03  1.14725E+03  1.67741E+03
  2.42362E+03  1.74859E+03  3.00366E+03  2.32032E+03  4.64193E+03  5.92220E+03  4.10873E+03  7.92172E+03
 -3.16950E+03  1.16229E+04 -1.00500E+04  1.10172E+04 -1.51007E+04  3.13006E+03 -1.53220E+04 -6.16849E+03
 -7.32040E+03 -1.50185E+04  2.31192E+03 -1.63788E+04  9.33281E+03 -1.14667E+04  1.23896E+04 -2.67205E+03
  9.78177E+03  5.26510E+03  2.65823E+03  9.31059E+03 -3.71125E+03  5.17041E+03 -6.01263E+03  4.70801E+02
 -2.73868E+03 -6.13446E+03  3.90259E+03 -6.31765E+03  6.45428E+03 -3.78391E+03  5.34653E+03  1.48470E+03
  3.69510E+03  2.90224E+03  1.42005E+03  3.15356E+03 -1.34147E+03  2.45449E+03  5.70784E+02  5.30039E+02
  2.55224E+03 -9.69220E+02  5.92021E+03  2.11443E+03  3.64465E+03  8.80034E+03 -1.21258E+03  1.13929E+04
 -7.28621E+03  6.60472E+03 -9.70389E+03  2.64921E+03 -8.54390E+03 -3.41011E+03 -2.83595E+03 -5.71211E+03
  8.36607E+02 -5.35772E+03  4.70579E+03 -3.24466E+03  3.55484E+03  2.83500E+03 -1.69339E+03  5.02100E+03
 -6.73638E+03  2.94914E+03 -7.63345E+03 -3.80125E+03 -4.27103E+03 -8.33072E+03  1.44475E+03 -8.50089E+03
  5.55180E+03 -5.56880E+03  6.88544E+03 -4.61793E+01  4.79999E+03  1.65196E+03 -3.05264E+02  4.47726E+03
 -3.25846E+03  1.00140E+03 -4.20547E+03 -2.69299E+03  9.37991E+02 -6.61566E+03  8.11085E+03 -5.86000E+03
  1.03336E+04  7.98773E+02  9.36710E+03  6.15707E+03  3.43441E+03  1.02265E+04 -4.04064E+03  9.46783E+03
 -7.89517E+03  4.00932E+03 -7.89975E+03 -8.19146E+02 -4.90583E+03 -5.80281E+03  1.37095E+03 -5.51710E+03
  6.53327E+03 -2.61439E+03  4.56733E+03  3.28458E+03  2.65892E+03  6.12243E+03 -1.48950E+03  4.39832E+03
 -2.21153E+03  3.09248E+03 -2.65063E+03  1.37097E+03 -6.82357E+02  1.65055E+03 -1.80029E+03  2.41694E+03
 -2.83390E+03  3.70778E+03 -6.81671E+03  3.23972E+03 -9.11558E+03  4.60872E+02 -1.13176E+04 -6.05077E+03
 -5.86216E+03 -1.35974E+04  2.35880E+03 -1.53189E+04  1.01323E+04 -1.24442E+04  1.44404E+04 -4.65894E+03
  1.30966E+04  2.51273E+03  8.20392E+03  9.72453E+03  6.17223E+02  1.11156E+04 -4.46423E+03  8.39160E+03
 -5.66727E+03  2.02234E+03 -4.26815E+03 -1.01114E+03 -4.44153E+02 -1.49046E+03 -6.43039E+02 -3.02187E+02
 -1.83848E+03  5.62509E+02 -1.48920E+03 -6.34873E+02 -9.56532E+02 -3.31238E+03  7.90032E+02 -4.14083E+03
  5.48178E+03 -3.56843E+03  5.88479E+03 -2.35737E+02  8.22798E+03  5.25035E+03  2.17554E+03  1.02409E+04
 -4.96875E+03  1.19476E+04 -1.13210E+04  6.92113E+03 -1.36595E+04 -1.36603E+03 -9.84963E+03 -7.63396E+03
 -3.36408E+03 -1.17894E+04  2.83357E+03 -1.00284E+04  6.64132E+03 -5.29414E+03  6.69394E+03  9.48783E+02
  3.07596E+03  2.42704E+03 -2.08936E+02  3.31561E+03 -1.60090E+03 -1.98316E+02 -1.50196E+02 -1.88480E+03
  3.84100E+03 -1.08065E+03  4.02127E+03  2.02047E+03  2.88673E+03  3.56168E+03  2.68889E+02  5.41972E+03
 -5.24299E+03  4.95155E+03 -7.34438E+03  6.49367E+02 -6.64052E+03 -5.11143E+03 -7.89899E+02 -8.04190E+03
  5.32943E+03 -7.26410E+03  8.41363E+03 -2.19168E+03  7.33601E+03  1.72183E+03  5.09475E+03  7.09512E+03
  9.01824E+02  6.41391E+03 -1.74721E+03  5.50629E+03 -4.79043E+03  2.89471E+03 -4.72059E+03  9.11164E+02
 -1.93361E+03  4.36238E+02 -1.96387E+03  1.10789E+03 -3.89750E+03  4.04450E+02 -4.59315E+03 -1.01762E+03
 -5.43323E+03 -4.28246E+03 -1.99004E+03 -7.57622E+03  3.05908E+03 -7.25657E+03  5.55308E+03 -3.86305E+03
  6.68007E+03  1.17040E+03  3.81680E+03  4.29121E+03 -1.41182E+03  6.93297E+03 -5.60084E+03  5.24704E+03
