 $NMID ID='MM_0lb_SNR400_12hz_g60_93.RAW', FMTDAT='(8E13.5)'
 TRAMP=1., VOLUME=1. $END
  3.10073E+05  1.05900E+03  3.37661E+05  2.49761E+05  8.44613E+04  3.38116E+05 -1.32329E+05  2.52088E+05
 -1.91460E+05  8.36154E+04 -1.12168E+05 -3.28419E+04 -1.90201E+02 -5.03860E+04  5.39519E+04 -3.33015E+02
  3.52496E+04  5.31633E+04 -1.66353E+04  7.59267E+04 -6.14765E+04  6.39521E+04 -8.47749E+04  3.28976E+04
 -8.26176E+04 -1.11135E+04 -5.76127E+04 -5.16827E+04 -1.50560E+04 -7.09219E+04  2.85545E+04 -4.60619E+04
  4.10218E+04  3.75713E+03  1.63108E+04  4.86612E+04 -3.40993E+04  4.72929E+04 -6.79061E+04 -1.40651E+02
 -5.48128E+04 -5.73717E+04 -7.24231E+03 -7.91844E+04  3.44382E+04 -5.62051E+04  4.92308E+04 -1.73981E+04
  4.46520E+04  1.12977E+04  3.28730E+04  2.60390E+04  1.59398E+04  3.03718E+04 -6.25554E+03  2.81879E+04
 -2.25452E+04  1.22939E+04 -1.81528E+04 -5.19287E+03  6.43348E+03 -6.67803E+03  2.30448E+04  1.37760E+04
  7.58303E+03  3.67404E+04 -3.27315E+04  3.61135E+04 -6.50685E+04  2.00996E+03 -5.84255E+04 -4.44745E+04
 -1.22699E+04 -6.46524E+04  4.14901E+04 -4.64539E+04  5.98527E+04 -2.52567E+03  3.53587E+04  3.38455E+04
 -5.55146E+03  3.85634E+04 -3.10359E+04  1.80434E+04 -3.26094E+04 -4.20255E+03 -1.84656E+04 -1.13262E+04
 -8.80824E+03 -1.50839E+04 -4.04598E+02 -1.92047E+04  8.95808E+03 -2.38131E+04  1.59093E+04 -1.25129E+04
  1.00144E+04  6.12535E+03 -9.02673E+03  1.25225E+04 -2.19651E+04 -5.87948E+03 -8.31995E+03 -3.63487E+04
  2.41863E+04 -4.57319E+04  5.08661E+04 -2.04206E+04  4.81526E+04  2.04288E+04  1.72766E+04  4.62690E+04
 -1.71246E+04  3.57078E+04 -2.66824E+04  1.27297E+03 -1.10398E+04 -2.96080E+04  2.18920E+04 -3.59547E+04
  4.35960E+04 -1.01769E+04  3.86766E+04  2.44811E+04  2.01539E+04  4.93783E+04 -8.56676E+03  5.32634E+04
 -3.43050E+04  3.74595E+04 -4.58917E+04  1.07269E+04 -4.65741E+04 -1.84977E+04 -2.54636E+04 -4.05913E+04
  7.51197E+03 -4.12788E+04  3.32183E+04 -1.65831E+04  3.14009E+04  1.18629E+04  4.88522E+03  1.97291E+04
 -1.37802E+04  9.44449E+03 -1.13576E+04 -8.03449E+03  5.61848E+03 -1.13443E+04  1.88232E+04  5.70015E+03
  1.41993E+04  2.21731E+04 -5.89204E+03  2.59885E+04 -2.25841E+04  1.27183E+04 -3.07324E+04 -3.36836E+03
 -2.29863E+04 -1.84118E+04 -9.84295E+03 -2.32881E+04  4.27463E+03 -2.34382E+04  1.81021E+04 -2.10893E+04
  3.00732E+04 -1.40977E+04  3.59406E+04  4.12682E+03  2.56107E+04  2.31835E+04  4.32759E+03  3.95640E+04
 -1.85433E+04  3.23559E+04 -2.98804E+04  1.13687E+04 -2.18471E+04 -1.08205E+04 -5.33401E+03 -1.33898E+04
  1.18271E+03 -2.10337E+03 -6.26079E+03  7.89187E+03 -1.91019E+04  4.96771E+03 -1.87388E+04 -8.69725E+03
 -1.07382E+04 -2.15658E+04  5.36258E+03 -2.58709E+04  1.78630E+04 -1.84582E+04  2.08346E+04 -1.68662E+03
  1.37493E+04  1.48501E+04 -1.21450E+03  2.14624E+04 -1.56729E+04  1.25748E+04 -2.19867E+04 -4.10960E+03
 -1.61861E+04 -1.94365E+04 -2.08281E+03 -2.61222E+04  1.22984E+04 -2.20045E+04  2.18878E+04 -1.07259E+04
  2.08556E+04  3.65778E+02  1.47551E+04  4.58352E+03  7.96114E+03  1.21912E+03  1.07562E+04 -2.09969E+03
  2.02291E+04  3.12519E+03  2.31125E+04  1.66109E+04  1.58272E+04  3.48782E+04 -2.99399E+03  3.97752E+04
 -2.33266E+04  3.36830E+04 -3.85263E+04  1.74664E+04 -3.96721E+04 -3.14863E+03 -3.32669E+04 -2.37077E+04
 -1.30629E+04 -3.26217E+04  1.15732E+04 -3.01977E+04  2.50636E+04 -1.43994E+04  2.28970E+04  6.21912E+03
  7.82986E+03  1.72585E+04 -1.06460E+04  1.42011E+04 -1.87549E+04  2.35491E+03 -1.41533E+04 -1.19474E+04
 -4.75637E+02 -1.73945E+04  8.84090E+03 -1.35627E+04  1.26791E+04 -1.24753E+03  3.27908E+03  7.06720E+03
 -8.24661E+03  3.82383E+03 -7.74365E+03 -6.97238E+03 -1.91042E+03 -1.69818E+04  1.07271E+04 -1.76688E+04
  1.99920E+04 -9.66746E+03  2.30427E+04  3.33722E+03  1.99635E+04  1.67072E+04  9.57043E+03  2.57820E+04
 -5.04727E+03  2.71641E+04 -1.80868E+04  1.71049E+04 -1.92685E+04  3.70642E+03 -1.27786E+04 -5.03211E+03
 -5.83454E+03 -5.79262E+03 -5.10030E+02  6.15301E+02 -2.36956E+03  2.99204E+03 -6.87183E+03  5.38411E+03
 -1.25953E+04 -1.34338E+03 -1.38864E+04 -1.11070E+04 -4.44628E+03 -1.72086E+04  5.54156E+03 -1.39153E+04
  1.18551E+04 -5.72983E+03  8.20211E+03  3.87891E+03 -8.17305E+02  6.38104E+03 -7.05268E+03  2.13547E+02
 -6.59247E+03 -8.89334E+03 -1.25779E+03 -1.23325E+04  7.85069E+03 -1.40548E+04  1.69552E+04 -7.73398E+03
  2.07841E+04  2.02028E+03  1.43996E+04  1.32077E+04  2.77136E+03  1.67766E+04 -9.05741E+03  1.37852E+04
 -1.14663E+04  4.72918E+03 -5.58288E+03 -3.03497E+03  1.62065E+03 -3.47258E+03  7.27496E+03 -2.13110E+02
  6.62796E+03  5.55893E+03  9.81832E+02  1.13454E+04 -7.93595E+03  1.06664E+04 -1.34572E+04  3.04121E+03
 -9.52345E+03 -6.52724E+03  1.47688E+02 -1.18316E+04  7.85307E+03 -5.46023E+03  8.23100E+03  2.50435E+03
  1.88811E+03  7.77300E+03 -7.10519E+03  1.00198E+04 -1.13524E+04  5.10487E+03 -1.09812E+04 -3.54190E+03
 -6.24537E+03 -1.31670E+04  3.21945E+03 -1.47920E+04  1.23130E+04 -8.97945E+03  1.34549E+04  2.06566E+03
  8.09990E+03  1.12354E+04 -4.45542E+02  1.25734E+04 -9.09908E+03  8.13595E+03 -1.03144E+04 -1.25936E+03
 -1.01420E+04 -9.01487E+03 -1.68103E+03 -9.71320E+03  5.67551E+03 -7.80527E+03  6.93947E+03 -3.07683E+03
  4.45815E+03  9.64867E+02 -9.33027E+02  1.50523E+03 -6.51640E+01 -1.90650E+03  2.10965E+03 -6.10194E+03
  9.82588E+03 -3.19613E+03  1.31713E+04  1.84869E+03  1.17293E+04  8.12168E+03  8.91368E+03  1.61566E+04
 -4.24945E+03  1.88652E+04 -1.59857E+04  1.42764E+04 -2.13834E+04  2.99767E+03 -1.66245E+04 -5.80369E+03
 -8.48285E+03 -1.35727E+04 -1.99606E+01 -1.20245E+04  3.86879E+03 -5.36527E+03  4.10843E+03 -4.10678E+03
  3.17304E+03 -2.31372E+03  3.33633E+03 -4.22334E+03  5.42011E+03 -2.96655E+03  6.46415E+03 -7.28476E+02
  8.59380E+03  1.85894E+03  4.45114E+03  7.55035E+03 -1.63460E+03  9.34799E+03 -9.31679E+03  6.68437E+03
 -1.15270E+04 -1.80571E+03 -7.34086E+03 -8.61766E+03 -1.01254E+03 -1.22936E+04  6.69661E+03 -1.20338E+04
  1.26621E+04 -7.90988E+03  1.44294E+04  1.65074E+03  1.08721E+04  1.07408E+04  1.23435E+03  1.45259E+04
 -5.80140E+03  1.09408E+04 -8.18466E+03  3.51073E+03 -5.13436E+03 -2.29119E+03 -1.90771E+03 -1.54263E+03
 -1.63546E+03 -4.88638E+02 -1.63586E+03  2.49547E+03 -4.15159E+03  1.98163E+03 -8.76113E+03 -1.45206E+03
 -4.94424E+03 -7.94952E+03  5.10123E+02 -1.16613E+04  6.99024E+03 -1.06347E+04  1.16715E+04 -3.24622E+03
  1.03846E+04  5.27974E+03  4.84261E+03  1.00409E+04 -1.59391E+03  1.17265E+04 -7.70614E+03  6.44104E+03
 -1.00182E+04  7.05684E+02 -8.48379E+03 -6.81196E+03 -1.24162E+03 -9.07989E+03  4.92612E+03 -7.61184E+03
  6.85064E+03 -2.30501E+03  4.98831E+03  1.38076E+03  1.69292E+03  4.10636E+03  1.17390E+03  1.51541E+03
  2.85460E+03  1.35101E+03  2.76987E+03  1.94277E+03  2.48072E+03  4.30466E+03  3.40719E+03  5.66190E+03
 -2.40357E+03  8.63673E+03 -7.07892E+03  8.07513E+03 -1.11389E+04  2.17069E+03 -1.15304E+04 -3.74684E+03
 -5.19096E+03 -1.06871E+04  1.58846E+03 -1.22135E+04  6.00681E+03 -7.66382E+03  8.62437E+03 -2.03076E+03
  7.27082E+03  4.49756E+03  1.45897E+03  6.61725E+03 -2.95731E+03  4.31994E+03 -4.06468E+03 -5.55360E+02
 -1.98513E+03 -4.37145E+03  2.26275E+03 -4.56518E+03  4.92845E+03 -2.39139E+03  4.92917E+03  7.09362E+02
  2.68117E+03  1.84081E+03  6.79049E+02  1.62664E+03 -3.22115E+02  8.73913E+02  1.21848E+03 -1.22844E+03
  1.81821E+03 -1.57133E+03  4.94854E+03  1.27546E+03  2.62806E+03  5.89177E+03 -8.34466E+02  7.73542E+03
 -4.60674E+03  4.19122E+03 -6.81986E+03  1.83216E+03 -5.95128E+03 -2.96020E+03 -2.17960E+03 -3.85888E+03
  1.12233E+03 -3.74118E+03  2.43712E+03 -1.91364E+03  1.93774E+03  2.64859E+03 -1.41709E+03  4.28558E+03
 -3.81356E+03  1.72743E+03 -5.45835E+03 -3.45677E+03 -2.35766E+03 -5.80825E+03  8.89917E+02 -6.04239E+03
  3.19198E+03 -3.20850E+03  4.73538E+03 -1.01567E+03  3.81447E+03  1.85059E+03  1.18261E+03  3.29038E+03
 -2.30329E+03  9.76592E+02 -2.74642E+03 -1.97341E+03  2.03216E+03 -4.42392E+03  4.59784E+03 -3.43865E+03
  6.34530E+03  7.94006E+02  5.97372E+03  3.81402E+03  1.63565E+03  6.66838E+03 -2.10282E+03  6.48286E+03
 -4.99586E+03  2.45967E+03 -6.27544E+03 -4.92346E+02 -2.48549E+03 -4.65082E+03  4.67170E+02 -3.63291E+03
  4.54445E+03 -1.76374E+03  2.57151E+03  2.00660E+03  9.39030E+02  3.94689E+03  6.01393E+01  3.36629E+03
 -1.78369E+03  1.76930E+03 -9.77531E+02 -3.51504E+01 -7.09665E+02  2.41627E+02 -7.75363E+02  3.47147E+02
 -2.33497E+03  3.54198E+03 -4.41535E+03  2.04509E+03 -5.64296E+03  1.42393E+02 -7.31228E+03 -4.23324E+03
 -3.28844E+03 -8.41006E+03  1.47458E+03 -1.01839E+04  5.26465E+03 -8.05716E+03  9.42041E+03 -3.19844E+03
  8.77990E+03  1.60643E+03  5.54512E+03  5.97167E+03 -5.96476E+01  6.79850E+03 -2.78145E+03  4.98621E+03
 -3.46203E+03  2.10430E+03 -2.33860E+03 -3.19902E+02 -8.68258E+02 -1.08940E+03 -1.04175E+03 -4.24382E+02
 -1.73943E+03 -2.63998E+02 -1.25113E+03 -3.44861E+01 -3.12001E+02 -6.70035E+02 -2.50578E+02 -2.40030E+03
  2.78393E+03 -1.80251E+03  3.49533E+03 -2.86860E+02  4.85185E+03  3.53655E+03  2.78996E+02  6.55108E+03
 -2.85323E+03  6.95670E+03 -7.39542E+03  4.61636E+03 -7.83201E+03 -3.80220E+02 -5.69907E+03 -4.64908E+03
 -2.71546E+03 -6.16046E+03  1.60925E+03 -6.30559E+03  4.46998E+03 -3.28381E+03  3.85699E+03  3.69375E+02
  2.17581E+03  2.35421E+03 -4.40474E+02  1.89938E+03 -5.47102E+02 -3.38207E+02  3.75166E+02 -1.43251E+03
  2.81263E+03  3.20059E+02  1.97258E+03  7.78864E+02  1.97427E+03  2.18051E+03 -1.42445E+02  2.86884E+03
 -2.17555E+03  3.44788E+03 -2.94300E+03  5.89716E+02 -3.87406E+03 -2.54767E+03 -5.40184E+02 -4.29305E+03
  2.80394E+03 -3.57515E+03  5.13135E+03 -1.23900E+03  4.93648E+03  8.82565E+02  2.60340E+03  3.65208E+03
  7.42492E+02  3.98273E+03 -1.78438E+03  2.91547E+03 -2.41563E+03  1.94053E+03 -2.08733E+03  4.00629E+02
 -8.48755E+02 -5.22729E+02 -1.40734E+03  6.76673E+02 -2.29731E+03  6.58669E+02 -3.69461E+03 -6.04359E+02
 -3.55434E+03 -2.34335E+03 -1.12462E+03 -3.65076E+03  2.46555E+03 -4.01868E+03  3.79791E+03 -1.66376E+03
  3.43758E+03  9.86320E+02  1.97881E+03  2.97393E+03 -5.73604E+02  4.47089E+03 -2.99988E+03  2.76530E+03
