 $NMID ID='MM_0lb_SNR400_17hz_g55_17.RAW', FMTDAT='(8E13.5)'
 TRAMP=1., VOLUME=1. $END
  3.09934E+05 -3.53418E+01  3.36942E+05  2.49839E+05  8.40767E+04  3.38250E+05 -1.32998E+05  2.50645E+05
 -1.90011E+05  8.26956E+04 -1.11278E+05 -3.25775E+04  9.16934E+02 -5.01375E+04  5.40294E+04 -3.89967E+02
  3.50446E+04  5.28653E+04 -1.71608E+04  7.53153E+04 -6.04377E+04  6.29301E+04 -8.39677E+04  3.20272E+04
 -8.08820E+04 -1.09805E+04 -5.68844E+04 -5.14196E+04 -1.49887E+04 -6.94607E+04  2.71640E+04 -4.57545E+04
  3.96909E+04  3.45215E+03  1.60560E+04  4.77479E+04 -3.34411E+04  4.65985E+04 -6.63994E+04 -1.08960E+02
 -5.24010E+04 -5.68098E+04 -7.01574E+03 -7.69438E+04  3.35375E+04 -5.46310E+04  4.65169E+04 -1.69265E+04
  4.21572E+04  1.08188E+04  3.16752E+04  2.44527E+04  1.59135E+04  2.84559E+04 -5.31623E+03  2.70141E+04
 -2.22374E+04  1.33935E+04 -1.82626E+04 -4.92358E+03  4.85110E+03 -7.42031E+03  2.17445E+04  1.20535E+04
  6.95263E+03  3.43381E+04 -3.14169E+04  3.50910E+04 -6.28362E+04  2.25141E+03 -5.65250E+04 -4.25684E+04
 -1.24604E+04 -6.22007E+04  3.94820E+04 -4.42748E+04  5.75214E+04 -2.64423E+03  3.30672E+04  3.19603E+04
 -6.26255E+03  3.45548E+04 -2.91779E+04  1.50285E+04 -2.89411E+04 -4.83545E+03 -1.62661E+04 -1.03018E+04
 -7.77723E+03 -1.24658E+04 -7.72857E+02 -1.74360E+04  7.37540E+03 -2.27269E+04  1.49657E+04 -1.35120E+04
  1.19270E+04  4.50307E+03 -7.23668E+03  1.31510E+04 -2.01389E+04 -3.53411E+03 -8.11597E+03 -3.28612E+04
  2.16240E+04 -4.24693E+04  4.65020E+04 -1.91580E+04  4.33985E+04  1.91081E+04  1.51124E+04  4.25729E+04
 -1.54701E+04  3.25652E+04 -2.49320E+04  1.09543E+03 -8.74785E+03 -2.71237E+04  2.06853E+04 -3.24635E+04
  3.96163E+04 -7.87044E+03  3.44932E+04  2.32307E+04  1.68515E+04  4.47732E+04 -7.98780E+03  4.80148E+04
 -2.97427E+04  3.23635E+04 -4.00778E+04  8.99184E+03 -4.09277E+04 -1.55903E+04 -2.28474E+04 -3.61180E+04
  7.15220E+03 -3.63876E+04  3.05421E+04 -1.36778E+04  2.86317E+04  1.10349E+04  4.16407E+03  1.85207E+04
 -1.35399E+04  7.60028E+03 -9.44763E+03 -7.40471E+03  5.85985E+03 -1.03926E+04  1.81382E+04  5.54326E+03
  1.28212E+04  2.25836E+04 -6.22371E+03  2.41217E+04 -2.20239E+04  1.03797E+04 -2.66857E+04 -4.93746E+03
 -1.90448E+04 -1.69277E+04 -6.97976E+03 -1.87241E+04  4.26496E+03 -1.78206E+04  1.37957E+04 -1.67942E+04
  2.42254E+04 -1.21600E+04  3.04024E+04  2.17134E+03  2.25627E+04  1.80601E+04  4.50649E+03  3.51202E+04
 -1.69607E+04  2.96586E+04 -2.72074E+04  9.79850E+03 -2.05954E+04 -1.03245E+04 -4.54659E+03 -1.35482E+04
  2.34222E+03 -3.34829E+03 -4.71270E+03  6.00886E+03 -1.48684E+04  4.72955E+03 -1.55984E+04 -6.89760E+03
 -9.20918E+03 -1.67343E+04  5.34134E+03 -2.13055E+04  1.39779E+04 -1.53224E+04  1.60964E+04 -1.54031E+03
  9.92848E+03  1.22194E+04 -1.42607E+03  1.80307E+04 -1.16897E+04  9.95034E+03 -1.66558E+04 -4.18629E+03
 -1.30924E+04 -1.58695E+04 -1.28491E+03 -2.08268E+04  9.65871E+03 -1.72608E+04  1.72831E+04 -7.83858E+03
  1.60656E+04  1.01163E+03  1.18525E+04  4.03772E+03  6.14972E+03  1.05332E+03  8.69109E+03 -1.58796E+03
  1.60925E+04  3.33076E+03  1.71142E+04  1.40973E+04  1.10711E+04  2.71516E+04 -3.16936E+03  3.04791E+04
 -1.82619E+04  2.37257E+04 -2.86332E+04  1.12412E+04 -2.90618E+04 -1.62532E+03 -2.48354E+04 -1.64795E+04
 -1.08528E+04 -2.37400E+04  8.64666E+03 -2.18565E+04  1.90250E+04 -1.14750E+04  1.66741E+04  4.58137E+03
  6.99626E+03  1.29152E+04 -8.28474E+03  1.19353E+04 -1.48585E+04  2.63999E+03 -1.07301E+04 -8.69706E+03
  7.48648E+01 -1.38619E+04  6.84516E+03 -1.03635E+04  9.20393E+03 -1.56207E+03  2.11031E+03  5.78885E+03
 -6.26427E+03  2.32807E+03 -4.71465E+03 -5.17099E+03 -3.83373E+02 -1.17790E+04  8.62034E+03 -1.17538E+04
  1.41919E+04 -5.98777E+03  1.51068E+04  3.26065E+03  1.28342E+04  1.11794E+04  6.42254E+03  1.69376E+04
 -1.96444E+03  1.89865E+04 -1.15364E+04  1.18628E+04 -1.36909E+04  3.33293E+03 -1.01736E+04 -2.50901E+03
 -4.58742E+03 -4.32053E+03 -3.57905E+02  1.09860E+03 -2.30294E+03  1.98809E+03 -4.22062E+03  4.33444E+03
 -9.48120E+03 -8.38012E+02 -9.90571E+03 -7.86230E+03 -3.75174E+03 -1.31188E+04  3.77100E+03 -1.03466E+04
  8.44724E+03 -4.70934E+03  6.14691E+03  2.52959E+03  7.41553E+02  3.81563E+03 -4.02231E+03 -2.65513E+02
 -4.35716E+03 -5.84647E+03 -1.20999E+03 -8.39177E+03  4.71447E+03 -9.47268E+03  1.15780E+04 -4.48174E+03
  1.43119E+04  1.25469E+03  1.00914E+04  7.83421E+03  1.42146E+03  1.02315E+04 -5.85053E+03  9.82247E+03
 -7.63259E+03  3.36342E+03 -4.07112E+03 -1.47687E+03  1.25325E+03 -2.65264E+03  5.22786E+03 -1.21643E+03
  4.86950E+03  4.10787E+03  9.88611E+02  7.52724E+03 -4.82111E+03  6.67390E+03 -9.15177E+03  1.78447E+03
 -5.62742E+03 -4.80573E+03  4.06920E+02 -8.04207E+03  4.19138E+03 -3.81407E+03  4.10055E+03  1.22108E+03
  5.34073E+02  4.51337E+03 -4.92766E+03  6.07734E+03 -6.33060E+03  3.48178E+03 -6.39129E+03 -1.65227E+03
 -3.83387E+03 -7.65112E+03  1.85771E+03 -8.89660E+03  7.16447E+03 -5.75243E+03  7.94138E+03  1.23586E+03
  5.41269E+03  6.22177E+03 -6.43387E+02  8.75640E+03 -5.75728E+03  5.05725E+03 -6.89198E+03 -1.74872E+02
 -6.65416E+03 -6.11398E+03 -1.98153E+03 -5.57192E+03  3.14481E+03 -4.92087E+03  3.71809E+03 -2.51589E+03
  3.31894E+03  6.70477E+01 -4.90737E+02  1.58251E+03  2.90419E+02 -9.43348E+02  8.54301E+02 -2.88253E+03
  5.52958E+03 -1.85428E+03  7.38676E+03  3.97866E+02  6.78747E+03  4.85293E+03  5.64289E+03  9.37331E+03
 -1.90256E+03  1.07422E+04 -9.64011E+03  7.60477E+03 -1.21097E+04  9.85319E+02 -9.20969E+03 -3.76370E+03
 -4.87146E+03 -8.11196E+03 -6.53869E+02 -6.35993E+03  2.17475E+03 -3.18677E+03  2.26607E+03 -2.29384E+03
  2.04140E+03 -1.49608E+03  2.37922E+03 -2.42658E+03  4.15051E+03 -1.66929E+03  4.25550E+03  6.34910E+02
  5.64610E+03  1.28826E+03  2.13373E+03  4.77277E+03 -1.71213E+03  3.81126E+03 -5.54061E+03  3.91778E+03
 -6.46146E+03 -1.28978E+03 -2.50552E+03 -4.40639E+03  4.54862E+02 -6.56295E+03  3.96376E+03 -6.47498E+03
  6.25732E+03 -3.93312E+03  8.58417E+03  4.65161E+02  5.73919E+03  5.25242E+03  1.00295E+03  7.81283E+03
 -2.75444E+03  6.34266E+03 -4.38636E+03  2.26797E+03 -2.78169E+03 -1.63746E+03 -6.73224E+02 -6.19580E+02
 -5.51126E+02  3.67345E+02 -1.40269E+03  2.01355E+03 -3.33558E+03  1.26443E+03 -5.06329E+03 -7.71589E+02
 -2.15914E+03 -4.19305E+03  4.32561E+02 -5.64779E+03  3.32748E+03 -5.15782E+03  4.84679E+03 -1.35309E+03
  5.10132E+03  2.56871E+03  1.85213E+03  3.65295E+03 -1.15879E+03  6.03416E+03 -3.62894E+03  3.42880E+03
 -4.87891E+03  5.06045E+02 -4.41023E+03 -2.76942E+03 -4.65531E+02 -3.68318E+03  2.51301E+03 -3.09435E+03
  3.45952E+03 -1.27714E+03  1.96842E+03  6.80429E+02  1.07540E+02  2.23578E+03  2.82768E+02  5.48627E+02
  1.76287E+03  5.30286E+02  2.01729E+03  1.25061E+03  1.39568E+03  3.15776E+03  1.87316E+03  3.00875E+03
 -1.51056E+03  3.89656E+03 -3.24452E+03  4.86449E+03 -3.70233E+03  1.76639E+03 -5.88673E+03 -7.52043E+02
 -1.83034E+03 -4.86493E+03  1.20371E+03 -5.97080E+03  2.43635E+03 -3.36527E+03  4.36597E+03 -1.27775E+03
  3.02911E+03  2.87066E+03  3.21027E+02  2.90605E+03 -1.08029E+03  1.70461E+03 -1.43531E+03  2.48565E+02
 -1.03197E+03 -2.64650E+03  1.36240E+03 -1.69722E+03  1.86504E+03 -1.03880E+03  1.60263E+03  7.37726E+02
  1.43480E+03  3.96985E+02  1.31659E+03  4.18646E+02 -3.24009E+02  1.31942E+03  1.60105E+03 -2.85463E+02
 -2.59442E+02  1.60012E+02  2.15541E+03  6.87949E+02  1.01774E+03  2.70300E+03 -9.43514E+02  3.74597E+03
 -2.59451E+03  1.14575E+03 -2.42610E+03  2.41477E+02 -2.45542E+03 -9.82026E+02  7.37139E+00 -1.26112E+03
  2.52292E+02 -1.59361E+03  1.91867E+02 -1.01208E+03  1.12275E+03  1.63941E+03 -1.03353E+03  1.38800E+03
 -2.10981E+03  1.00314E+03 -1.58000E+03 -1.85050E+03 -8.40970E+02 -2.08807E+03  3.46629E+02 -2.34811E+03
  8.84694E+02 -5.53056E+02  1.49363E+03 -3.19498E+01  1.20620E+03  1.58228E+02  1.47300E+02  7.14363E+02
 -1.72884E+02 -1.82904E+02 -4.22577E+02 -4.72843E+02  6.99357E+02 -9.64301E+02  2.22934E+03 -1.45353E+03
  1.66224E+03 -1.49970E+02  2.77449E+03  1.22585E+03  1.20511E+03  2.68478E+03 -5.83636E+02  2.82691E+03
 -1.79483E+03  3.53904E+02 -2.49846E+03 -3.64449E+02 -8.49333E+02 -1.47158E+03  6.64152E+01 -1.33089E+03
  1.70439E+03 -1.15980E+03  1.58688E+03  1.17790E+03  9.19776E+02  1.59452E+03  3.45749E+01  1.67415E+03
  2.91374E+02  1.33811E+03 -5.72099E+02 -4.10933E+02 -2.35140E+01  3.53254E+02 -3.77290E+02  7.80445E+02
 -6.29529E+02  1.03910E+03 -2.48111E+03  4.33343E+02 -2.18952E+03 -1.39501E+02 -3.51149E+03 -8.82290E+02
 -1.29510E+03 -3.28056E+03  1.03806E+03 -3.48526E+03  1.64056E+03 -3.33221E+03  3.60982E+03 -1.08185E+03
  3.29334E+03 -1.01838E+02  1.26691E+03  1.92328E+03 -9.18172E+02  2.20745E+03 -7.65969E+02  1.52489E+03
 -1.39452E+03  8.62756E+02 -3.87175E+02 -1.03501E+02 -8.37504E+02  5.85408E+02 -8.95825E+02 -5.10401E+02
 -1.06230E+03  2.32093E+02 -9.57140E+02  1.24553E+02  3.66609E+02 -8.70831E+02 -4.44816E+02 -1.10564E+03
  1.36453E+03 -6.92904E+02  2.13741E+02  1.74178E+02  1.41448E+03  7.96049E+02 -1.97492E+02  1.89615E+03
 -1.33949E+03  2.70121E+03 -2.41736E+03  1.59966E+03 -2.51236E+03 -1.29000E+03 -1.75865E+03 -2.04907E+03
 -1.23827E+03 -1.69948E+03  2.92198E+02 -1.58070E+03  8.47719E+02 -6.00779E+02  4.65186E+02 -2.96870E+02
  9.33904E+02  8.65272E+02 -3.33808E+02  9.04026E+02 -2.20079E+02 -2.56786E+02  3.26826E+02 -7.62063E+01
  4.99123E+02  3.72630E+02  3.33109E+02  6.93476E+02  2.78828E+02  5.81351E+02  6.24008E+02  7.21287E+02
 -6.33386E+02  5.83008E+02 -1.21403E+03  3.12482E+02 -9.20914E+02 -3.07904E+02 -3.53416E+02 -1.67547E+03
  2.78029E+02 -9.35907E+02  6.12562E+02 -3.19574E+02  1.63921E+03 -3.50411E+02  6.81456E+02  1.07712E+03
  3.57744E+02  8.19108E+02 -4.37609E+02  6.37329E+02 -1.38731E+03  1.01461E+03 -8.13510E+02  1.20647E+02
 -1.81381E+02  7.37174E+01 -5.60077E+02 -7.51118E+01 -8.02240E+02  8.64853E+02 -1.49220E+03 -7.46405E+02
 -9.94390E+02 -4.76383E+01 -2.78672E+02 -9.28349E+02  1.07762E+03 -1.78380E+03  8.98953E+02 -3.84954E+01
  8.94860E+02 -3.27107E+02  4.13547E+02  1.00048E+03 -6.12310E+02  1.68870E+03 -9.26740E+02  8.47020E+02
