 $NMID ID='MM_0lb_SNR400_16hz_g45_56.RAW', FMTDAT='(8E13.5)'
 TRAMP=1., VOLUME=1. $END
  3.10060E+05 -6.54781E+01  3.37227E+05  2.50520E+05  8.44589E+04  3.37742E+05 -1.32891E+05  2.50484E+05
 -1.90154E+05  8.28490E+04 -1.11227E+05 -3.27203E+04  7.96694E+02 -5.01010E+04  5.39578E+04  6.57098E+01
  3.46383E+04  5.25716E+04 -1.71302E+04  7.55362E+04 -6.05591E+04  6.34015E+04 -8.36538E+04  3.21871E+04
 -7.99918E+04 -1.14044E+04 -5.70191E+04 -5.08437E+04 -1.48990E+04 -6.85302E+04  2.72036E+04 -4.53146E+04
  3.92937E+04  3.88223E+03  1.53262E+04  4.74905E+04 -3.41245E+04  4.65751E+04 -6.56154E+04 -4.32606E+02
 -5.25217E+04 -5.64378E+04 -6.48666E+03 -7.60735E+04  3.41445E+04 -5.38405E+04  4.66422E+04 -1.65083E+04
  4.18829E+04  1.14807E+04  3.13797E+04  2.48310E+04  1.57890E+04  2.93135E+04 -4.77376E+03  2.68548E+04
 -2.25883E+04  1.21851E+04 -1.85993E+04 -4.81176E+03  4.59480E+03 -7.54729E+03  2.19250E+04  1.19989E+04
  7.32717E+03  3.44525E+04 -3.10946E+04  3.44696E+04 -6.20907E+04  2.52264E+03 -5.61589E+04 -4.21531E+04
 -1.20727E+04 -6.22907E+04  3.86855E+04 -4.41268E+04  5.67676E+04 -2.22628E+03  3.29302E+04  3.15342E+04
 -5.79001E+03  3.47899E+04 -2.88016E+04  1.45910E+04 -2.86060E+04 -5.26015E+03 -1.55769E+04 -1.02277E+04
 -8.11126E+03 -1.20483E+04 -1.01786E+03 -1.76476E+04  6.22964E+03 -2.30273E+04  1.49321E+04 -1.36488E+04
  1.17110E+04  4.65244E+03 -6.89658E+03  1.31182E+04 -1.94837E+04 -3.19110E+03 -7.67815E+03 -3.15958E+04
  2.20743E+04 -4.19440E+04  4.63947E+04 -1.88083E+04  4.32455E+04  1.88764E+04  1.43927E+04  4.25031E+04
 -1.54143E+04  3.17821E+04 -2.48171E+04  1.43564E+03 -8.98548E+03 -2.70822E+04  2.03240E+04 -3.22533E+04
  3.96497E+04 -8.05061E+03  3.37797E+04  2.33063E+04  1.60881E+04  4.44060E+04 -8.19073E+03  4.72734E+04
 -3.01968E+04  3.11961E+04 -3.93792E+04  8.72604E+03 -4.02014E+04 -1.58421E+04 -2.20497E+04 -3.59361E+04
  6.85088E+03 -3.54322E+04  3.04080E+04 -1.37465E+04  2.69438E+04  1.10582E+04  3.00993E+03  1.83042E+04
 -1.27209E+04  7.74018E+03 -9.99904E+03 -8.00614E+03  5.54550E+03 -1.04036E+04  1.71591E+04  6.81614E+03
  1.32848E+04  2.21092E+04 -6.05088E+03  2.44372E+04 -2.18903E+04  1.03224E+04 -2.64912E+04 -5.66368E+03
 -1.83138E+04 -1.67661E+04 -7.03906E+03 -1.83420E+04  3.83507E+03 -1.68396E+04  1.40453E+04 -1.67563E+04
  2.31747E+04 -1.24341E+04  2.96915E+04  1.95184E+03  2.27738E+04  1.76747E+04  4.81985E+03  3.38706E+04
 -1.68530E+04  2.88058E+04 -2.65124E+04  9.60220E+03 -2.01367E+04 -1.03616E+04 -4.34493E+03 -1.32256E+04
  2.31953E+03 -3.71765E+03 -3.59803E+03  5.96455E+03 -1.46535E+04  5.02534E+03 -1.45031E+04 -5.68463E+03
 -9.65736E+03 -1.67383E+04  4.85764E+03 -2.10092E+04  1.39440E+04 -1.49296E+04  1.65020E+04 -1.60047E+03
  9.75704E+03  1.16554E+04 -6.08819E+02  1.76523E+04 -1.11003E+04  9.89777E+03 -1.69672E+04 -4.02647E+03
 -1.30043E+04 -1.58271E+04 -9.78804E+02 -2.07844E+04  9.38988E+03 -1.67640E+04  1.70994E+04 -7.89420E+03
  1.62116E+04  4.17751E+02  1.21211E+04  4.27820E+03  6.01954E+03  3.61497E+02  8.51965E+03 -1.75491E+03
  1.52121E+04  3.01710E+03  1.72108E+04  1.36497E+04  1.05179E+04  2.69952E+04 -2.85166E+03  3.00722E+04
 -1.75470E+04  2.36995E+04 -2.76299E+04  1.12680E+04 -2.91551E+04 -2.08909E+03 -2.42431E+04 -1.66993E+04
 -1.05166E+04 -2.42189E+04  8.11426E+03 -2.21174E+04  1.89668E+04 -1.13842E+04  1.69267E+04  3.92403E+03
  6.53634E+03  1.33290E+04 -7.77293E+03  1.08069E+04 -1.51049E+04  2.78740E+03 -1.16241E+04 -8.86650E+03
 -5.34802E+02 -1.35834E+04  6.27100E+03 -1.02225E+04  8.66772E+03 -1.81047E+03  2.07352E+03  5.86388E+03
 -6.45140E+03  1.92511E+03 -4.98024E+03 -5.22943E+03  9.62958E+01 -1.13897E+04  8.49700E+03 -1.19029E+04
  1.44681E+04 -6.17628E+03  1.44820E+04  2.86103E+03  1.25079E+04  1.14859E+04  6.30645E+03  1.71767E+04
 -2.64199E+03  1.85908E+04 -1.16354E+04  1.26540E+04 -1.35809E+04  3.04494E+03 -9.85338E+03 -2.19450E+03
 -4.89349E+03 -4.08493E+03 -7.84975E+02  1.38373E+03 -2.65387E+03  1.74066E+03 -4.33720E+03  3.26346E+03
 -9.43393E+03 -4.36837E+02 -9.40807E+03 -7.83939E+03 -3.70686E+03 -1.28492E+04  4.32386E+03 -1.00928E+04
  8.36913E+03 -4.38622E+03  6.30794E+03  3.00934E+03  1.43136E+02  3.93413E+03 -4.41938E+03  2.40419E+02
 -3.98288E+03 -5.83671E+03 -1.76495E+02 -8.82281E+03  4.58726E+03 -9.58002E+03  1.22792E+04 -4.52839E+03
  1.43302E+04  9.73792E+02  1.01277E+04  7.82285E+03  1.95851E+03  1.03584E+04 -5.87376E+03  9.80480E+03
 -7.67202E+03  3.18660E+03 -4.54927E+03 -1.37068E+03  1.61854E+03 -2.49049E+03  5.54797E+03 -7.12695E+02
  4.24392E+03  4.30894E+03  2.00846E+03  7.61012E+03 -5.14847E+03  7.25675E+03 -9.28557E+03  2.18540E+03
 -5.68866E+03 -5.06414E+03  2.63676E+02 -7.76109E+03  4.50474E+03 -4.00479E+03  4.68175E+03  1.38633E+03
  1.73197E+01  4.70899E+03 -4.91388E+03  5.99640E+03 -6.49863E+03  3.23996E+03 -5.85918E+03 -1.76192E+03
 -4.32253E+03 -7.74058E+03  1.40589E+03 -9.48256E+03  7.29106E+03 -6.29986E+03  8.78721E+03  1.56449E+03
  5.47843E+03  7.07319E+03  1.82077E+01  8.74204E+03 -6.28880E+03  4.74991E+03 -6.62293E+03 -2.12656E+02
 -6.50770E+03 -5.94247E+03 -1.14491E+03 -6.08456E+03  3.22399E+03 -5.70061E+03  3.78869E+03 -2.63393E+03
  3.02844E+03  4.88542E+02 -2.57677E+02  7.55871E+02  9.72482E+01 -5.62066E+02  7.65747E+02 -3.40240E+03
  5.09703E+03 -1.80027E+03  7.20285E+03  7.91759E+02  7.44270E+03  4.37838E+03  6.35313E+03  9.37942E+03
 -1.71878E+03  1.18308E+04 -9.97811E+03  8.36309E+03 -1.24378E+04  1.53225E+03 -9.96406E+03 -3.62089E+03
 -4.91588E+03 -8.72499E+03 -3.53055E+02 -6.83014E+03  2.92248E+03 -3.30022E+03  2.17699E+03 -2.30730E+03
  1.88413E+03 -1.96814E+03  2.54515E+03 -2.56340E+03  3.47213E+03 -1.05079E+03  4.62610E+03  1.91409E+02
  5.85812E+03  1.02891E+03  2.03426E+03  4.88727E+03 -1.45369E+03  4.59320E+03 -6.14825E+03  3.68560E+03
 -6.62377E+03 -9.96091E+02 -3.11059E+03 -4.46017E+03  4.40709E+01 -6.44195E+03  4.11835E+03 -7.38786E+03
  6.73304E+03 -4.52086E+03  8.56570E+03 -9.42664E+00  6.89875E+03  5.57828E+03  1.24713E+03  7.85892E+03
 -2.72887E+03  7.22773E+03 -4.78622E+03  2.69735E+03 -2.90425E+03 -1.75343E+03 -4.82803E+02 -4.36363E+02
 -6.94452E+02  8.07479E+01 -1.36104E+03  1.91146E+03 -3.36468E+03  1.24246E+03 -4.69978E+03 -9.65598E+02
 -2.25066E+03 -5.43875E+03  3.70962E+02 -6.32134E+03  3.58970E+03 -5.67266E+03  5.48619E+03 -2.54893E+03
  5.68922E+03  3.29022E+03  2.46185E+03  4.74188E+03 -1.02381E+03  6.22334E+03 -3.76983E+03  3.18135E+03
 -5.99138E+03 -4.15276E+01 -4.14271E+03 -3.63888E+03 -2.80060E+02 -4.64792E+03  1.97862E+03 -3.75240E+03
  3.34216E+03 -1.38366E+03  2.30064E+03  6.41573E+02 -3.09596E+01  2.33179E+03  2.91009E+02  4.54242E+02
  1.92523E+03  2.06401E+02  1.56644E+03  6.30015E+02  1.41326E+03  2.59708E+03  1.90162E+03  2.84854E+03
 -1.53500E+03  4.42348E+03 -2.92130E+03  5.36078E+03 -5.03514E+03  8.64925E+02 -6.22460E+03 -1.30430E+03
 -2.90249E+03 -4.80616E+03  5.12364E+02 -5.94233E+03  3.09053E+03 -4.45824E+03  4.08753E+03 -1.15381E+03
  3.28589E+03  2.50473E+03  1.90415E+02  3.56530E+03 -1.03507E+03  1.42570E+03 -1.96939E+03 -4.92372E+02
 -5.39708E+02 -1.84337E+03  9.98500E+02 -2.40181E+03  2.41332E+03 -1.49206E+03  1.24400E+03  6.14816E+02
  1.31799E+03  6.17634E+02  1.07952E+03  2.08471E+02  1.26639E+02  7.19899E+02  1.58887E+03  2.16122E+02
  2.90240E+02 -5.67335E+01  2.52019E+03  6.91376E+02  8.76204E+02  3.12045E+03 -6.26043E+02  3.72569E+03
 -2.41378E+03  1.64581E+03 -3.15335E+03  3.90745E+02 -2.90763E+03 -1.03006E+03 -1.41933E+02 -1.83425E+03
  6.56154E+02 -2.04471E+03  1.06204E+03 -8.59246E+02  1.52062E+03  1.70741E+03 -6.83355E+02  1.91448E+03
 -1.98789E+03  1.11378E+03 -1.61222E+03 -1.75923E+03 -1.19605E+03 -3.41476E+03  2.96548E+02 -2.54682E+03
  1.06085E+03 -1.39182E+03  1.43603E+03 -2.05672E+02  1.65841E+03  5.00263E+02  4.90475E+02  9.73570E+02
 -1.12131E+03 -8.70158E+01 -9.75069E+02 -7.01769E+02  5.15273E+02 -1.69998E+03  2.18450E+03 -1.27484E+03
  2.46425E+03  2.68843E+02  3.69432E+03  1.12865E+03  9.68360E+02  2.62600E+03 -5.06233E+02  2.48553E+03
 -2.28580E+03  9.28794E+02 -1.93374E+03  1.75801E+02 -1.33155E+03 -2.21452E+03  1.71874E+02 -1.03502E+03
  1.68842E+03 -1.16944E+03  1.93928E+03  1.13195E+03  3.54829E+02  1.86518E+03 -4.37093E+02  1.54997E+03
 -6.04132E+02  1.57525E+03  5.56825E+01  4.33800E+02 -2.74173E+02  1.19821E+03 -1.37475E+03  7.85679E+02
 -9.24248E+02  1.01801E+03 -2.60345E+03  8.17411E+02 -2.88983E+03 -2.22428E+02 -3.90818E+03 -1.71292E+03
 -1.46850E+03 -4.01859E+03  9.64105E+02 -4.70843E+03  2.48805E+03 -3.83908E+03  4.51172E+03 -1.52536E+03
  3.55155E+03  6.46341E+02  1.99458E+03  2.49972E+03 -6.52684E+02  3.07602E+03 -1.46211E+03  2.05464E+03
 -1.67927E+03  1.41423E+03 -5.96852E+02 -6.32449E+02 -5.38962E+02 -1.50591E+02 -7.06741E+02  6.82446E+02
 -1.50468E+03 -4.11797E+02 -9.87364E+02 -4.31328E+02  5.31119E+02 -6.61627E+02 -1.82873E+02 -1.75190E+03
  1.21952E+03 -1.05753E+03  8.55956E+02 -4.04806E+02  1.52187E+03  1.63762E+03  9.11551E+02  2.67872E+03
 -1.23127E+03  3.43182E+03 -2.62110E+03  1.69837E+03 -3.26638E+03 -1.47588E+02 -2.92169E+03 -2.08165E+03
 -1.71284E+03 -2.93806E+03  3.02897E+02 -2.89322E+03  8.72363E+02 -6.54439E+02  1.97501E+03  2.57883E+01
  8.60122E+02  3.98263E+02  3.12407E+02  9.64835E+02 -2.34116E+02 -5.97187E+02 -1.33358E+02 -3.77577E+02
  3.96359E+02  8.01607E+01  6.88598E+02  4.66803E+02  6.19810E+02  8.10810E+02  5.14366E+02  1.05275E+03
 -1.07750E+03  1.52443E+03 -1.21230E+03  6.94546E+02 -1.14190E+03 -1.40725E+03 -4.21812E+02 -2.13047E+03
  9.16986E+02 -1.47725E+03  9.86319E+02 -1.65056E+02  1.86860E+03 -6.11211E+02  6.37309E+02  1.08531E+03
  3.65718E+02  1.55662E+03 -1.73353E+02  7.59390E+02 -7.20730E+02  9.07441E+02 -4.43434E+02 -3.94411E+02
  9.95325E+01 -3.30962E+02 -3.92753E+02  3.39927E+01 -1.22640E+03  5.83615E+01 -8.76559E+02 -2.75235E+02
 -1.62231E+03 -7.53432E+02 -4.06184E+02 -1.39222E+03  7.57956E+02 -2.07633E+03  1.37566E+03 -4.47436E+02
  1.56626E+03 -4.97609E+02  4.61033E+02  4.21354E+02  2.36451E+02  1.68180E+03 -1.33941E+03  1.40022E+03
