 $NMID ID='MM_0lb_SNR400_17hz_g45_38.RAW', FMTDAT='(8E13.5)'
 TRAMP=1., VOLUME=1. $END
  3.10019E+05  2.44809E+02  3.37448E+05  2.50666E+05  8.39721E+04  3.37437E+05 -1.31850E+05  2.50647E+05
 -1.89584E+05  8.25631E+04 -1.11130E+05 -3.27181E+04  1.23427E+03 -4.97514E+04  5.39859E+04  3.52052E+02
  3.52462E+04  5.30500E+04 -1.75247E+04  7.51241E+04 -6.02547E+04  6.22988E+04 -8.28753E+04  3.15897E+04
 -7.98090E+04 -1.11201E+04 -5.69207E+04 -5.05424E+04 -1.45564E+04 -6.85336E+04  2.71568E+04 -4.47951E+04
  3.93596E+04  3.85767E+03  1.55342E+04  4.72876E+04 -3.36807E+04  4.69650E+04 -6.61823E+04 -1.14125E+03
 -5.22351E+04 -5.65189E+04 -6.15562E+03 -7.58242E+04  3.33900E+04 -5.37809E+04  4.66881E+04 -1.68027E+04
  4.20190E+04  1.11724E+04  3.10392E+04  2.45173E+04  1.52402E+04  2.85018E+04 -4.59790E+03  2.67206E+04
 -2.22368E+04  1.25505E+04 -1.91919E+04 -4.65420E+03  4.92128E+03 -7.31014E+03  2.10808E+04  1.12266E+04
  7.27910E+03  3.41609E+04 -3.07981E+04  3.43304E+04 -6.19588E+04  2.17198E+03 -5.57559E+04 -4.11782E+04
 -1.27012E+04 -6.14243E+04  3.82694E+04 -4.32720E+04  5.56705E+04 -2.18916E+03  3.21231E+04  3.10459E+04
 -6.34189E+03  3.36285E+04 -2.84557E+04  1.44132E+04 -2.80938E+04 -5.33809E+03 -1.53108E+04 -1.05063E+04
 -7.93657E+03 -1.18995E+04 -7.12962E+02 -1.67401E+04  6.78528E+03 -2.25770E+04  1.48974E+04 -1.40745E+04
  1.18682E+04  4.26916E+03 -6.74247E+03  1.29117E+04 -1.96032E+04 -2.99675E+03 -8.24465E+03 -3.12131E+04
  2.12569E+04 -4.14259E+04  4.57545E+04 -1.86153E+04  4.30209E+04  1.86643E+04  1.48626E+04  4.24986E+04
 -1.58590E+04  3.19186E+04 -2.37575E+04  1.15309E+03 -8.44077E+03 -2.70974E+04  2.04241E+04 -3.20414E+04
  3.92088E+04 -7.33569E+03  3.20906E+04  2.26428E+04  1.59629E+04  4.37809E+04 -7.60949E+03  4.58356E+04
 -2.92980E+04  3.07287E+04 -3.87761E+04  8.82438E+03 -3.92515E+04 -1.51498E+04 -2.15984E+04 -3.54159E+04
  7.12385E+03 -3.48441E+04  2.96411E+04 -1.34615E+04  2.74207E+04  1.07068E+04  3.64082E+03  1.80781E+04
 -1.30372E+04  7.27191E+03 -9.34082E+03 -7.60032E+03  5.49138E+03 -1.06630E+04  1.79009E+04  5.91263E+03
  1.27367E+04  2.19389E+04 -6.00075E+03  2.34357E+04 -2.15526E+04  9.96251E+03 -2.62692E+04 -5.66907E+03
 -1.78496E+04 -1.69010E+04 -6.19986E+03 -1.77479E+04  3.79954E+03 -1.63345E+04  1.32882E+04 -1.51185E+04
  2.26593E+04 -1.18120E+04  2.96938E+04  2.05744E+03  2.15129E+04  1.69160E+04  4.14259E+03  3.32558E+04
 -1.65842E+04  2.79767E+04 -2.61440E+04  1.00882E+04 -1.94787E+04 -1.05256E+04 -4.41449E+03 -1.38869E+04
  2.13060E+03 -3.83618E+03 -3.09285E+03  5.88575E+03 -1.40124E+04  5.49970E+03 -1.40499E+04 -5.81697E+03
 -9.06175E+03 -1.64549E+04  4.89376E+03 -2.04899E+04  1.30012E+04 -1.43828E+04  1.51001E+04 -1.34303E+03
  9.75071E+03  1.11560E+04 -7.58005E+02  1.61619E+04 -1.11638E+04  9.28781E+03 -1.62223E+04 -3.98909E+03
 -1.21706E+04 -1.56041E+04 -1.18505E+03 -2.02815E+04  9.00709E+03 -1.60312E+04  1.72516E+04 -7.75445E+03
  1.51118E+04  9.09165E+02  1.11391E+04  3.89784E+03  5.62722E+03  8.00518E+02  7.18863E+03 -1.52166E+03
  1.51375E+04  2.47364E+03  1.56393E+04  1.31771E+04  1.01212E+04  2.63025E+04 -2.95910E+03  2.82774E+04
 -1.66116E+04  2.20945E+04 -2.62356E+04  1.08109E+04 -2.71128E+04 -1.72026E+03 -2.32031E+04 -1.56592E+04
 -1.05085E+04 -2.20737E+04  7.99707E+03 -2.05159E+04  1.79301E+04 -1.09565E+04  1.62134E+04  4.02983E+03
  6.93884E+03  1.18888E+04 -7.48866E+03  1.18022E+04 -1.38620E+04  2.89476E+03 -1.06229E+04 -8.24168E+03
  1.40903E+01 -1.34438E+04  6.26499E+03 -9.97580E+03  8.88763E+03 -5.28802E+02  2.02237E+03  5.19463E+03
 -6.11538E+03  1.89584E+03 -4.29488E+03 -4.24801E+03  7.63605E+02 -1.09349E+04  7.84611E+03 -1.14295E+04
  1.35110E+04 -5.25673E+03  1.40856E+04  2.80749E+03  1.13528E+04  1.09330E+04  5.06414E+03  1.54372E+04
 -2.09972E+03  1.77155E+04 -1.06499E+04  1.16040E+04 -1.23057E+04  3.24990E+03 -9.22493E+03 -2.27192E+03
 -4.81488E+03 -3.49953E+03 -5.56853E+02  1.20713E+03 -1.84373E+03  2.30155E+03 -3.90045E+03  3.88426E+03
 -8.19560E+03 -4.65243E+02 -9.22309E+03 -7.57920E+03 -3.67944E+03 -1.17752E+04  4.15276E+03 -9.08338E+03
  7.69099E+03 -4.13311E+03  5.19624E+03  1.81929E+03  2.17893E+02  3.13732E+03 -3.60049E+03  3.50482E+02
 -3.01884E+03 -5.32357E+03 -1.23070E+03 -8.04664E+03  4.33782E+03 -8.75064E+03  1.12305E+04 -4.23434E+03
  1.28229E+04  7.23103E+02  9.38741E+03  7.12624E+03  1.61523E+03  1.04146E+04 -5.59051E+03  9.58975E+03
 -7.51327E+03  2.81938E+03 -4.23788E+03 -1.44333E+03  1.01744E+03 -1.76340E+03  5.67069E+03 -9.89657E+02
  4.36824E+03  3.86380E+03  6.16139E+02  7.29417E+03 -5.47589E+03  6.98583E+03 -8.86076E+03  1.65849E+03
 -5.40201E+03 -4.26353E+03  1.83340E+02 -7.08247E+03  4.22996E+03 -3.60313E+03  3.54316E+03  1.38235E+03
  3.70672E+02  3.36815E+03 -4.24344E+03  5.22823E+03 -5.72284E+03  2.83358E+03 -5.47581E+03 -1.55860E+03
 -4.01049E+03 -6.88384E+03  1.42434E+03 -8.59832E+03  6.36440E+03 -4.66431E+03  7.17934E+03  1.02538E+03
  5.04868E+03  6.11793E+03  4.76882E+02  8.18508E+03 -5.96405E+03  4.34025E+03 -5.77343E+03 -1.75520E+02
 -6.21528E+03 -5.27645E+03 -1.31524E+03 -5.53135E+03  2.63284E+03 -5.44064E+03  3.60659E+03 -2.86436E+03
  3.15520E+03  2.84862E+02  1.44000E+02  1.39667E+03 -1.85874E+00 -7.69471E+02  4.42132E+02 -2.21399E+03
  4.82064E+03 -1.35727E+03  5.78170E+03  3.91937E+02  6.67966E+03  3.98839E+03  5.66815E+03  8.69805E+03
 -1.37894E+03  9.94799E+03 -9.19817E+03  7.00225E+03 -1.21533E+04  1.51179E+03 -8.95343E+03 -2.91559E+03
 -4.93387E+03 -8.21384E+03 -8.18851E+01 -6.51030E+03  2.63461E+03 -2.62338E+03  1.99261E+03 -2.43154E+03
  1.02683E+03 -1.50068E+03  2.13349E+03 -2.79195E+03  3.54894E+03 -1.09884E+03  4.09282E+03  2.51653E+02
  4.60062E+03  1.43021E+03  1.68565E+03  4.00169E+03 -1.21803E+03  3.27329E+03 -5.27742E+03  2.80925E+03
 -5.72370E+03 -9.91980E+02 -2.25053E+03 -3.65032E+03 -2.72030E+02 -6.15971E+03  3.57672E+03 -6.27253E+03
  6.13642E+03 -3.59568E+03  7.74683E+03  7.45939E+02  5.64625E+03  5.13343E+03  1.28664E+03  6.63961E+03
 -2.93489E+03  6.29270E+03 -3.85148E+03  2.15417E+03 -1.84525E+03 -1.12612E+03 -8.00571E+02 -8.12077E+02
 -7.50099E+02  1.49855E+02 -6.84536E+02  1.82821E+03 -3.21097E+03  1.22604E+03 -4.81085E+03 -6.61051E+02
 -1.99864E+03 -4.68587E+03  1.93948E+02 -5.21042E+03  2.90841E+03 -5.21448E+03  4.31212E+03 -1.01348E+03
  5.30827E+03  2.89849E+03  2.19001E+03  3.94152E+03 -6.07563E+02  5.07429E+03 -3.00798E+03  3.38966E+03
 -5.16487E+03  5.76038E+02 -4.97460E+03 -3.49941E+03 -7.57144E+02 -3.85921E+03  1.92889E+03 -2.77658E+03
  2.98360E+03 -1.26319E+03  2.00259E+03  1.12994E+03  8.65046E+02  1.59999E+03  1.41266E+03  2.30464E+02
  1.72965E+03  5.64375E+02  1.14192E+03  1.34173E+03  1.44414E+03  2.67895E+03  8.54145E+02  1.62218E+03
 -1.11571E+03  4.10978E+03 -3.88493E+03  4.68229E+03 -3.63855E+03  1.54744E+03 -5.05826E+03 -9.82167E+02
 -1.46007E+03 -4.67061E+03  8.92638E+02 -6.11244E+03  2.69006E+03 -3.10850E+03  3.59643E+03 -1.13639E+03
  2.88260E+03  1.93302E+03  9.12070E+02  2.27447E+03 -5.50187E+02  1.07466E+03 -1.45484E+03 -5.36096E+02
 -9.75383E+02 -2.43758E+03  1.10808E+03 -1.81960E+03  1.89803E+03 -1.59672E+03  2.06478E+03  3.68408E+02
  6.62739E+02  5.47502E+02  6.96116E+02 -2.31486E+02 -8.73174E+02  1.05852E+03  1.46828E+03 -1.89322E+02
  2.80878E+02  2.51274E+02  2.47623E+03  6.46209E+02 -9.69815E+01  2.93557E+03 -5.56661E+02  3.56388E+03
 -2.38931E+03  1.71284E+03 -2.96084E+03  6.34314E+02 -2.39873E+03 -1.65149E+03 -8.74341E+02 -1.58815E+03
  4.24355E+02 -1.44246E+03  5.83967E+02 -7.60156E+02  4.33752E+02  1.59615E+03 -6.95850E+02  1.39849E+03
 -2.45802E+03  5.58307E+02 -1.40024E+03 -2.02220E+03 -1.24041E+03 -2.39626E+03  5.16477E+02 -2.26737E+03
  8.72953E+02 -9.14399E+02  5.76826E+02  2.74599E+01  1.54264E+03 -3.63023E+02  8.59638E+01  1.35446E+03
 -4.49784E+02 -2.73079E+02 -1.10480E+03 -6.81689E+02  1.16135E+03 -1.17748E+03  2.27370E+03 -1.24886E+03
  1.37266E+03  1.61561E+02  3.25618E+03  1.24608E+03  9.77927E+02  2.39695E+03  1.38139E+02  2.49467E+03
 -1.69081E+03  6.04016E+02 -1.79756E+03  1.14197E+02 -9.28934E+02 -1.98445E+03  7.45257E+02 -8.86747E+02
  1.36427E+03 -5.37450E+02  6.33797E+02  1.39626E+03  2.52830E+02  1.48621E+03  7.14776E+01  1.09808E+03
 -7.62237E+02  1.11706E+03 -6.22649E+02  4.11187E+02 -2.57443E+02  4.29171E+02 -3.00164E+02  7.22671E+02
 -7.99047E+02  1.31352E+03 -2.12387E+03  8.90461E+02 -2.09804E+03  3.40911E+02 -2.66175E+03 -1.86315E+03
 -1.19824E+03 -3.29017E+03  3.31627E+02 -3.63777E+03  1.59246E+03 -2.58344E+03  3.80302E+03 -1.36532E+03
  2.99832E+03 -1.52220E+02  2.26193E+03  2.31035E+03 -4.38585E+02  1.95527E+03 -4.65172E+02  1.62103E+03
 -1.72757E+03  1.26974E+03 -8.15537E+02 -1.18893E+02 -5.35519E+02  5.76075E+02 -9.33012E+02  2.03310E+00
 -1.54155E+03 -1.03243E+02 -6.06084E+02 -9.83539E+00 -5.35898E+01 -1.07066E+03 -4.11267E+02 -1.04694E+03
  9.01611E+02 -9.17651E+02  4.09913E+02  3.82215E+02  1.19881E+03  1.38272E+03 -4.70922E+02  2.31854E+03
 -1.28453E+03  3.13378E+03 -2.30535E+03  1.74021E+03 -2.23787E+03  1.02501E+02 -2.18158E+03 -1.97623E+03
 -9.33521E+02 -1.90424E+03 -7.89937E+01 -1.32282E+03  6.46463E+02 -1.07103E+03  1.35953E+03 -1.93249E+02
  1.67845E+03  3.99979E+02 -5.63959E+02  3.83982E+02 -2.54285E+02  2.47034E+02  1.78738E+02 -5.21063E+02
  7.20037E+02  9.01408E+01  6.16289E+02  6.60822E+02  8.28006E+02  1.02505E+03  3.38380E+02  7.39740E+02
 -6.68800E+02  7.62061E+02 -1.09093E+03  7.19571E+00 -1.30605E+03 -1.17890E+03 -4.52613E+02 -8.94098E+02
  9.47073E+02 -1.27710E+03  1.66549E+03 -3.41740E+02  1.73450E+03 -3.61785E+02  3.74236E+02  1.40972E+03
  5.11410E+02  5.80412E+02 -3.68956E+02  2.76503E+02 -6.56502E+02  9.71789E+02 -1.99157E+02 -5.40734E+02
 -2.15462E+02 -1.11740E+02 -2.94937E+02  2.65333E+02 -6.84350E+02  8.56919E+02 -1.00845E+03 -4.73252E+02
 -1.02824E+03 -9.87199E+01  6.31962E+01 -1.18350E+03  1.16019E+03 -1.87018E+03  1.08795E+03  2.98397E+02
  1.26068E+03 -2.54874E+02 -6.52128E+02  5.85063E+02 -2.14906E+02  8.89278E+02 -4.91725E+02  1.38922E+03
