 $NMID ID='MM_0lb_SNR400_7hz_g45_12.RAW', FMTDAT='(8E13.5)'
 TRAMP=1., VOLUME=1. $END
  3.09668E+05  5.03118E+02  3.38329E+05  2.50786E+05  8.49701E+04  3.38645E+05 -1.32947E+05  2.52812E+05
 -1.90403E+05  8.37595E+04 -1.12347E+05 -3.27609E+04  2.44906E+02 -5.05829E+04  5.34339E+04 -1.30278E+03
  3.57218E+04  5.29830E+04 -1.55592E+04  7.57483E+04 -6.12581E+04  6.43992E+04 -8.60805E+04  3.20144E+04
 -8.25291E+04 -1.18174E+04 -5.96403E+04 -5.26816E+04 -1.56302E+04 -7.19174E+04  2.76128E+04 -4.69052E+04
  4.14783E+04  3.39863E+03  1.79045E+04  4.88004E+04 -3.48324E+04  4.79532E+04 -6.89096E+04  3.57914E+01
 -5.51466E+04 -5.79629E+04 -6.72824E+03 -7.98779E+04  3.46238E+04 -5.75083E+04  5.08325E+04 -1.82463E+04
  4.60579E+04  1.17122E+04  3.28056E+04  2.68559E+04  1.63596E+04  3.03689E+04 -5.83308E+03  2.76407E+04
 -2.33355E+04  1.15182E+04 -1.88766E+04 -6.16280E+03  7.80018E+03 -7.80714E+03  2.45493E+04  1.34419E+04
  6.60403E+03  3.87667E+04 -3.46852E+04  3.77266E+04 -6.73154E+04  2.14947E+03 -5.99292E+04 -4.57274E+04
 -1.25254E+04 -6.68612E+04  4.18743E+04 -4.82595E+04  6.23311E+04 -2.94179E+03  3.71277E+04  3.46394E+04
 -5.04675E+03  4.06016E+04 -3.27499E+04  1.99848E+04 -3.43026E+04 -4.65174E+03 -2.00943E+04 -1.31091E+04
 -9.05049E+03 -1.60689E+04 -8.01290E+02 -1.94028E+04  9.55457E+03 -2.36050E+04  1.59826E+04 -1.28910E+04
  1.04097E+04  6.62799E+03 -1.11106E+04  1.22325E+04 -2.48821E+04 -7.30820E+03 -9.18778E+03 -3.95274E+04
  2.56132E+04 -4.82012E+04  5.26412E+04 -2.18218E+04  4.99546E+04  2.04724E+04  1.76548E+04  4.82024E+04
 -1.72534E+04  3.79003E+04 -2.86261E+04  2.47638E+03 -1.21053E+04 -2.97048E+04  2.23416E+04 -3.79696E+04
  4.52442E+04 -1.13037E+04  4.14274E+04  2.55854E+04  2.25616E+04  5.24449E+04 -8.21093E+03  5.78850E+04
 -3.73409E+04  3.98528E+04 -4.93095E+04  1.13230E+04 -4.92672E+04 -1.96518E+04 -2.58407E+04 -4.35809E+04
  7.75129E+03 -4.31481E+04  3.55823E+04 -1.76926E+04  3.25901E+04  1.22404E+04  5.60837E+03  2.14153E+04
 -1.41708E+04  9.87459E+03 -1.15535E+04 -7.42982E+03  6.43085E+03 -1.08594E+04  1.88318E+04  4.62011E+03
  1.67017E+04  2.32353E+04 -4.87351E+03  2.79310E+04 -2.35727E+04  1.68078E+04 -3.35117E+04 -2.39781E+03
 -2.75194E+04 -1.88464E+04 -1.18771E+04 -2.62348E+04  4.74579E+03 -2.73094E+04  2.14876E+04 -2.42526E+04
  3.43474E+04 -1.44384E+04  3.97372E+04  5.46250E+03  2.88389E+04  2.57853E+04  4.71515E+03  4.25858E+04
 -2.13300E+04  3.56558E+04 -3.04156E+04  1.23506E+04 -2.18315E+04 -1.04067E+04 -5.31134E+03 -1.25760E+04
  4.95301E+02 -4.45718E+02 -8.07919E+03  8.75723E+03 -2.19536E+04  5.84622E+03 -2.10431E+04 -1.00565E+04
 -1.26641E+04 -2.48550E+04  7.02880E+03 -2.89675E+04  2.06866E+04 -1.99501E+04  2.43325E+04 -2.34906E+03
  1.52567E+04  1.66573E+04 -1.24753E+03  2.49303E+04 -1.70212E+04  1.46425E+04 -2.59515E+04 -4.91996E+03
 -1.83080E+04 -2.26491E+04 -2.07558E+03 -3.08443E+04  1.39426E+04 -2.42971E+04  2.50224E+04 -1.42642E+04
  2.34217E+04 -6.58359E+02  1.74990E+04  6.07191E+03  1.01765E+04  1.16516E+03  1.36560E+04 -2.72639E+03
  2.30048E+04  3.07306E+03  2.82880E+04  2.01446E+04  1.90084E+04  3.97970E+04 -2.21644E+03  4.80443E+04
 -2.71365E+04  4.04745E+04 -4.55883E+04  2.12946E+04 -4.81528E+04 -3.61689E+03 -3.97828E+04 -2.88607E+04
 -1.61334E+04 -4.05041E+04  1.44452E+04 -3.57493E+04  3.17011E+04 -1.59472E+04  2.57271E+04  9.11900E+03
  8.84236E+03  2.00385E+04 -1.24192E+04  1.64820E+04 -2.23011E+04  3.88572E+03 -1.66991E+04 -1.41101E+04
 -1.11545E+03 -2.03142E+04  1.08733E+04 -1.58202E+04  1.43219E+04 -1.29753E+03  3.57168E+03  1.00313E+04
 -9.58672E+03  4.35940E+03 -1.10249E+04 -7.12487E+03 -2.98865E+03 -1.97777E+04  1.30384E+04 -2.18609E+04
  2.58526E+04 -1.30168E+04  2.89972E+04  3.46729E+03  2.55157E+04  2.05037E+04  1.20438E+04  3.21121E+04
 -8.02181E+03  3.45527E+04 -2.31979E+04  2.13196E+04 -2.57373E+04  5.02526E+03 -1.69246E+04 -6.43453E+03
 -6.32109E+03 -8.65102E+03 -1.20129E+03  5.40180E+02 -2.72264E+03  3.47468E+03 -7.51992E+03  5.04648E+03
 -1.57215E+04 -4.59547E+02 -1.66018E+04 -1.34542E+04 -6.48523E+03 -2.10061E+04  6.73792E+03 -1.71768E+04
  1.41313E+04 -6.70479E+03  9.62829E+03  5.16477E+03 -4.92206E+02  6.77597E+03 -9.31280E+03  6.23929E+01
 -8.35653E+03 -1.14081E+04 -1.12727E+03 -1.79998E+04  1.05808E+04 -1.81520E+04  2.28055E+04 -1.15958E+04
  2.61813E+04  2.78441E+03  1.88333E+04  1.60731E+04  3.79724E+03  2.21900E+04 -1.05114E+04  1.71758E+04
 -1.40230E+04  4.82580E+03 -7.04588E+03 -3.75112E+03  3.30501E+03 -5.04728E+03  8.95205E+03 -9.70465E+02
  7.52782E+03  7.90835E+03  1.02635E+03  1.42533E+04 -1.10156E+04  1.31722E+04 -1.83172E+04  2.96713E+03
 -1.24778E+04 -1.00594E+04 -2.82032E+02 -1.47024E+04  9.62795E+03 -8.18138E+03  1.08449E+04  3.42984E+03
  4.65084E+03  1.08499E+04 -9.78567E+03  1.30665E+04 -1.61166E+04  6.14637E+03 -1.55774E+04 -5.83087E+03
 -9.67345E+03 -1.78482E+04  4.65920E+03 -2.16676E+04  1.77202E+04 -1.27595E+04  2.00869E+04  3.13942E+03
  1.16087E+04  1.44226E+04 -1.73326E+03  1.78615E+04 -1.31971E+04  9.71112E+03 -1.52135E+04 -1.23325E+03
 -1.15081E+04 -1.23720E+04 -1.94864E+03 -1.37640E+04  7.37583E+03 -1.01739E+04  9.35828E+03 -3.96920E+03
  5.45237E+03  2.31214E+03 -1.51296E+03  2.51031E+03 -7.97421E+02 -3.90318E+03  4.09611E+03 -8.90890E+03
  1.43481E+04 -6.70651E+03  2.02273E+04  1.89550E+03  1.87209E+04  1.38811E+04  1.15935E+04  2.45131E+04
 -6.74112E+03  2.85776E+04 -2.24774E+04  2.05422E+04 -3.06028E+04  4.16214E+03 -2.48377E+04 -1.03180E+04
 -1.17393E+04 -1.97190E+04 -1.28717E+03 -1.82893E+04  6.07049E+03 -1.01160E+04  6.74047E+03 -6.25789E+03
  4.99510E+03 -3.79358E+03  4.25140E+03 -4.61868E+03  6.97951E+03 -3.76997E+03  9.24349E+03 -1.74607E+03
  1.25958E+04  2.41927E+03  7.54598E+03  1.10642E+04 -3.21448E+03  1.40559E+04 -1.36867E+04  1.03553E+04
 -1.73809E+04 -1.10664E+03 -1.11969E+04 -1.25081E+04 -1.15253E+03 -1.92203E+04  1.10742E+04 -1.91447E+04
  1.96376E+04 -1.07944E+04  2.32733E+04  3.67520E+03  1.55010E+04  1.64342E+04  2.70287E+03  2.13650E+04
 -8.91090E+03  1.65632E+04 -1.22495E+04  6.42433E+03 -9.18047E+03 -1.58133E+03 -3.84325E+03 -2.97405E+03
 -1.02631E+03 -6.97855E+01 -3.11492E+03  2.87293E+03 -7.52508E+03  3.01758E+03 -1.22542E+04 -1.72730E+03
 -9.45488E+03 -1.07401E+04 -1.13312E+02 -1.78409E+04  1.05951E+04 -1.57954E+04  1.77466E+04 -5.21851E+03
  1.83412E+04  9.02743E+03  8.34465E+03  1.62670E+04 -3.20769E+03  1.83401E+04 -1.24954E+04  1.17285E+04
 -1.80656E+04  8.30204E+02 -1.27122E+04 -1.00519E+04 -1.36315E+03 -1.56136E+04  8.76541E+03 -1.07876E+04
  1.07081E+04 -3.04504E+03  7.48962E+03  2.48513E+03  2.82633E+03  4.60774E+03  1.46689E+03  2.56636E+03
  3.80039E+03  5.31136E+02  4.02462E+03  2.51511E+03  5.10247E+03  6.56723E+03  4.56767E+03  9.57089E+03
 -4.07044E+03  1.47546E+04 -1.23257E+04  1.40328E+04 -1.88160E+04  3.32440E+03 -2.03210E+04 -7.91337E+03
 -9.75470E+03 -1.84101E+04  1.56795E+03 -2.00255E+04  1.12288E+04 -1.27902E+04  1.47451E+04 -3.94805E+03
  1.11652E+04  7.00902E+03  2.78832E+03  1.20926E+04 -5.63704E+03  6.96835E+03 -7.91283E+03 -9.41302E+02
 -4.95089E+03 -8.23068E+03  4.55996E+03 -8.90479E+03  8.18801E+03 -3.46725E+03  8.02922E+03  1.29606E+03
  4.70719E+03  3.67514E+03  1.81945E+03  3.65149E+03 -9.03696E+02  3.10026E+03  1.67113E+03 -8.60573E+02
  3.02180E+03 -2.18880E+03  8.78153E+03  2.92084E+03  4.68999E+03  9.66297E+03 -9.85342E+02  1.37567E+04
 -9.12626E+03  8.76003E+03 -1.26542E+04  1.84615E+03 -1.09863E+04 -4.64618E+03 -5.33764E+03 -8.54823E+03
  8.03397E+02 -7.74977E+03  5.96568E+03 -4.33068E+03  3.57190E+03  2.86210E+03 -4.45152E+02  6.15159E+03
 -7.25309E+03  3.37924E+03 -8.64587E+03 -3.61201E+03 -5.22225E+03 -1.01736E+04  1.69499E+03 -1.11491E+04
  6.33694E+03 -6.33643E+03  8.13163E+03 -1.11320E+03  6.31091E+03  2.95584E+03  1.33401E+03  6.30095E+03
 -3.95083E+03  1.76816E+03 -5.38131E+03 -3.78867E+03  1.19611E+03 -9.16664E+03  9.22230E+03 -6.33035E+03
  1.30156E+04  1.10364E+03  1.17839E+04  9.15633E+03  2.73849E+03  1.36048E+04 -4.35973E+03  1.26491E+04
 -1.17032E+04  5.44422E+03 -1.10481E+04 -1.92702E+03 -6.51084E+03 -8.90265E+03  1.36148E+03 -9.20241E+03
  8.59886E+03 -4.51330E+03  6.92819E+03  4.14853E+03  1.64527E+03  7.74314E+03 -1.29881E+03  7.28411E+03
 -4.44198E+03  4.08038E+03 -3.02180E+03  1.79362E+03 -9.05888E+02  1.25043E+03 -1.66861E+03  2.46049E+03
 -3.49478E+03  4.97234E+03 -8.45055E+03  5.16410E+03 -1.32622E+04  1.16364E+02 -1.43799E+04 -9.38518E+03
 -7.79474E+03 -1.75346E+04  4.25999E+03 -2.02056E+04  1.33637E+04 -1.64379E+04  1.98565E+04 -5.84492E+03
  1.91322E+04  3.54673E+03  1.08357E+04  1.22773E+04  2.00716E+03  1.41005E+04 -5.10612E+03  1.07857E+04
 -8.17168E+03  4.35621E+03 -4.75114E+03 -1.17686E+03 -1.23987E+03 -1.76070E+03 -6.28780E+02  5.92404E+00
 -2.17908E+03  8.61086E+02 -3.05384E+03 -2.46703E+01 -1.21786E+03 -4.17388E+03 -1.72646E+02 -5.27192E+03
  6.39689E+03 -4.81047E+03  9.51197E+03 -1.19005E+03  9.82769E+03  7.02894E+03  3.65456E+03  1.41268E+04
 -6.15709E+03  1.61447E+04 -1.53510E+04  8.53939E+03 -1.71113E+04 -1.36683E+03 -1.25825E+04 -1.08479E+04
 -5.28064E+03 -1.46458E+04  2.83357E+03 -1.42987E+04  9.82433E+03 -7.17393E+03  9.95330E+03  4.29618E+02
  5.09760E+03  4.74258E+03 -1.60437E+03  3.87860E+03 -2.71605E+03 -9.55397E+02  7.34607E+01 -3.75080E+03
  4.27605E+03 -1.13065E+03  5.69140E+03  2.13091E+03  4.71017E+03  5.97652E+03 -4.94848E+02  7.88676E+03
 -7.57263E+03  6.60707E+03 -1.07430E+04  3.40784E+02 -9.30538E+03 -6.94899E+03 -1.18037E+03 -1.27467E+04
  6.40575E+03 -9.97736E+03  1.16887E+04 -3.31089E+03  1.24847E+04  3.73363E+03  6.60035E+03  8.19262E+03
  1.77278E+03  9.56401E+03 -3.73502E+03  8.12340E+03 -6.66262E+03  4.53138E+03 -4.87705E+03 -2.60791E+02
 -2.83234E+03 -9.01244E+02 -2.47102E+03  1.17609E+03 -5.71433E+03  2.14643E+03 -7.31220E+03 -1.43100E+03
 -6.02815E+03 -5.57692E+03 -2.44019E+03 -1.02794E+04  4.82249E+03 -9.44147E+03  8.29192E+03 -4.13181E+03
  1.02250E+04  1.36652E+03  6.27583E+03  6.80304E+03 -6.14074E+02  9.83793E+03 -8.10292E+03  5.55508E+03
