 $NMID ID='MM_0lb_SNR400_18hz_g50_87.RAW', FMTDAT='(8E13.5)'
 TRAMP=1., VOLUME=1. $END
  3.09677E+05  7.18924E+02  3.37475E+05  2.50822E+05  8.46412E+04  3.37264E+05 -1.32868E+05  2.50492E+05
 -1.89706E+05  8.20672E+04 -1.11331E+05 -3.20857E+04  1.47182E+03 -5.02885E+04  5.35305E+04  2.63626E+01
  3.48931E+04  5.26943E+04 -1.70044E+04  7.51882E+04 -6.03445E+04  6.32152E+04 -8.28162E+04  3.19375E+04
 -8.02639E+04 -1.13155E+04 -5.67945E+04 -5.10044E+04 -1.43450E+04 -6.85115E+04  2.74341E+04 -4.53226E+04
  3.88206E+04  3.66213E+03  1.59611E+04  4.72895E+04 -3.45254E+04  4.65250E+04 -6.59514E+04 -1.07965E+02
 -5.20724E+04 -5.62706E+04 -6.33283E+03 -7.57554E+04  3.27310E+04 -5.35492E+04  4.65223E+04 -1.64742E+04
  4.22283E+04  1.11355E+04  3.11168E+04  2.48334E+04  1.56934E+04  2.86528E+04 -5.12089E+03  2.63543E+04
 -2.18340E+04  1.25760E+04 -1.91307E+04 -4.36476E+03  4.90320E+03 -7.16569E+03  2.09528E+04  1.11707E+04
  7.29163E+03  3.36010E+04 -3.07991E+04  3.41782E+04 -6.19614E+04  1.95856E+03 -5.55130E+04 -4.10489E+04
 -1.25483E+04 -6.21032E+04  3.81715E+04 -4.36636E+04  5.61643E+04 -2.28402E+03  3.27582E+04  3.15798E+04
 -6.04803E+03  3.39806E+04 -2.94248E+04  1.37371E+04 -2.86963E+04 -5.49980E+03 -1.53823E+04 -1.05827E+04
 -7.24447E+03 -1.21570E+04 -1.34849E+03 -1.70881E+04  6.74157E+03 -2.22609E+04  1.55736E+04 -1.33610E+04
  1.20251E+04  4.35808E+03 -7.05157E+03  1.30786E+04 -1.95423E+04 -2.75010E+03 -8.48117E+03 -3.14889E+04
  2.09477E+04 -4.09974E+04  4.55771E+04 -1.84234E+04  4.27374E+04  1.81849E+04  1.46142E+04  4.21274E+04
 -1.52850E+04  3.20202E+04 -2.40747E+04  1.72809E+03 -8.22980E+03 -2.69728E+04  2.05335E+04 -3.19803E+04
  3.85392E+04 -7.68864E+03  3.25301E+04  2.31322E+04  1.57293E+04  4.37186E+04 -7.62972E+03  4.63678E+04
 -2.96975E+04  3.03036E+04 -3.86184E+04  9.10376E+03 -3.90178E+04 -1.55403E+04 -2.16353E+04 -3.52306E+04
  8.00224E+03 -3.45735E+04  2.96659E+04 -1.31343E+04  2.77822E+04  1.05129E+04  3.38556E+03  1.81135E+04
 -1.33069E+04  7.39990E+03 -9.46399E+03 -7.63642E+03  6.29462E+03 -1.07743E+04  1.69636E+04  6.28462E+03
  1.26701E+04  2.19538E+04 -6.80044E+03  2.34524E+04 -2.17865E+04  9.63661E+03 -2.55183E+04 -6.00888E+03
 -1.76296E+04 -1.66457E+04 -6.28312E+03 -1.73826E+04  3.89420E+03 -1.52815E+04  1.29682E+04 -1.53596E+04
  2.20642E+04 -1.17219E+04  2.92347E+04  1.94564E+03  2.20562E+04  1.72839E+04  3.76492E+03  3.25594E+04
 -1.64297E+04  2.80269E+04 -2.65144E+04  9.30356E+03 -2.01598E+04 -1.03325E+04 -3.67806E+03 -1.40517E+04
  2.09118E+03 -3.92395E+03 -3.12318E+03  5.40988E+03 -1.37227E+04  5.56172E+03 -1.38441E+04 -5.45486E+03
 -8.68583E+03 -1.63259E+04  4.06595E+03 -2.01908E+04  1.30665E+04 -1.48404E+04  1.52944E+04 -1.76381E+03
  1.00197E+04  1.10206E+04 -8.29841E+02  1.66859E+04 -1.04795E+04  8.78238E+03 -1.62669E+04 -3.49738E+03
 -1.23746E+04 -1.45347E+04 -1.67969E+03 -1.98695E+04  9.00645E+03 -1.60760E+04  1.65150E+04 -7.72669E+03
  1.52476E+04  3.78018E+02  1.05094E+04  3.64736E+03  5.49701E+03  6.28280E+02  8.32476E+03 -6.41578E+02
  1.47795E+04  2.58408E+03  1.56603E+04  1.31052E+04  9.79259E+03  2.53647E+04 -2.75709E+03  2.79379E+04
 -1.64502E+04  2.13749E+04 -2.59853E+04  9.88940E+03 -2.61948E+04 -2.00928E+03 -2.21080E+04 -1.51685E+04
 -1.07748E+04 -2.22451E+04  6.85478E+03 -1.98087E+04  1.72260E+04 -1.14282E+04  1.61348E+04  3.56067E+03
  7.05344E+03  1.22714E+04 -7.42779E+03  1.01403E+04 -1.38480E+04  2.70989E+03 -1.08509E+04 -8.61487E+03
 -2.23868E+02 -1.29194E+04  6.35585E+03 -9.85202E+03  7.95679E+03 -1.89216E+03  1.56454E+03  5.71966E+03
 -4.97120E+03  9.83095E+02 -4.67004E+03 -4.44987E+03  6.60692E+02 -1.09964E+04  7.68140E+03 -1.09494E+04
  1.26620E+04 -5.66082E+03  1.25723E+04  2.69212E+03  1.11919E+04  1.02643E+04  5.28488E+03  1.48941E+04
 -1.94919E+03  1.70568E+04 -1.05424E+04  1.07196E+04 -1.21213E+04  3.01334E+03 -9.23142E+03 -2.41913E+03
 -4.88516E+03 -3.58108E+03 -8.47532E+02  1.68815E+03 -2.00336E+03  2.25575E+03 -3.50374E+03  4.03963E+03
 -8.80960E+03 -2.00329E+02 -8.81719E+03 -6.95290E+03 -3.48691E+03 -1.24407E+04  3.86417E+03 -9.41208E+03
  7.32158E+03 -3.85629E+03  5.57549E+03  2.19378E+03 -1.43436E+01  3.36562E+03 -3.60979E+03 -3.09810E+02
 -3.85354E+03 -6.28229E+03 -7.75017E+02 -7.39339E+03  4.98619E+03 -8.37310E+03  1.04446E+04 -3.80098E+03
  1.25827E+04  5.46742E+02  9.26798E+03  6.58659E+03  1.45107E+03  8.88314E+03 -5.54290E+03  8.44913E+03
 -7.66388E+03  2.84852E+03 -3.26832E+03 -1.33504E+03  1.70648E+03 -2.19714E+03  4.90165E+03 -9.27646E+02
  4.14566E+03  3.37667E+03  9.78338E+02  7.27020E+03 -4.69657E+03  7.00971E+03 -8.39073E+03  2.00965E+03
 -5.77462E+03 -4.05640E+03  6.21351E+02 -6.81141E+03  3.59313E+03 -3.59587E+03  3.60509E+03  1.32037E+03
  7.78879E+02  4.00474E+03 -4.41930E+03  4.68105E+03 -5.29205E+03  2.53483E+03 -5.13843E+03 -1.16095E+03
 -2.88533E+03 -6.52449E+03  1.22139E+03 -8.33891E+03  6.70132E+03 -5.00043E+03  7.04795E+03  8.85126E+02
  4.84034E+03  5.49203E+03 -1.94210E+02  7.70185E+03 -5.33152E+03  4.64009E+03 -5.05172E+03 -5.43903E+02
 -5.67127E+03 -5.32727E+03 -1.77225E+03 -5.14804E+03  2.40457E+03 -5.09660E+03  2.94287E+03 -3.01771E+03
  2.90842E+03  4.72692E+02  8.60239E+01  1.53806E+03  6.94452E+02 -6.70011E+02  1.53277E+02 -1.85165E+03
  4.29068E+03 -7.11509E+02  6.24963E+03  9.50216E+02  6.05892E+03  2.65870E+03  5.43725E+03  7.35102E+03
 -1.46776E+03  8.89195E+03 -8.58393E+03  6.81331E+03 -1.07945E+04  1.08187E+03 -7.88317E+03 -2.71270E+03
 -4.49945E+03 -6.09351E+03  7.49977E+01 -5.33313E+03  1.91058E+03 -2.29596E+03  1.92663E+03 -2.18358E+03
  1.47779E+03 -1.17977E+03  2.44858E+03 -2.15111E+03  4.03816E+03 -1.51986E+03  4.19905E+03  2.18948E+02
  4.88902E+03  1.49389E+03  1.60520E+03  3.21558E+03 -1.33792E+03  2.70529E+03 -4.64184E+03  2.82500E+03
 -4.69753E+03 -1.22185E+03 -1.93182E+03 -3.96193E+03  1.96471E+02 -5.69124E+03  4.30259E+03 -5.92232E+03
  5.38502E+03 -3.07535E+03  7.40641E+03  4.95228E+02  5.49251E+03  4.83803E+03  8.55664E+02  6.59424E+03
 -2.63723E+03  5.99481E+03 -3.51983E+03  2.28921E+03 -2.11602E+03 -1.05319E+03 -5.32907E+02 -4.00577E+02
 -6.94268E+02  1.02551E+03 -7.36800E+02  1.70563E+03 -2.87002E+03  1.03692E+03 -4.22165E+03 -5.02538E+02
 -1.64814E+03 -3.89844E+03  8.34681E+02 -4.53392E+03  2.58292E+03 -4.90200E+03  4.12559E+03 -1.27487E+03
  4.21774E+03  2.86494E+03  2.33397E+03  3.68323E+03 -5.85327E+02  4.52319E+03 -3.53508E+03  3.01618E+03
 -3.55316E+03  9.10364E+02 -3.78798E+03 -2.79365E+03 -2.06755E+02 -3.66570E+03  1.71935E+03 -2.72070E+03
  2.92719E+03 -1.35052E+03  2.30531E+03  1.12277E+02  1.55457E+02  1.61459E+03  1.21876E+03  9.91652E+02
  2.06867E+03  6.67036E+02  1.07432E+03  1.44780E+03  1.12981E+03  2.40426E+03  1.21390E+03  1.97448E+03
 -1.60085E+03  2.97299E+03 -2.95603E+03  4.49914E+03 -3.33862E+03  1.80274E+03 -4.87860E+03 -2.60176E+02
 -1.85022E+03 -4.00503E+03  7.43599E+02 -5.07831E+03  2.17332E+03 -2.98652E+03  2.78671E+03 -8.15278E+02
  2.09072E+03  2.14757E+03  1.38124E+02  1.89316E+03 -7.55535E+02  1.38147E+03 -1.59770E+03 -8.48774E+01
 -3.13718E+02 -1.48776E+03  1.55426E+03 -1.82098E+03  1.33470E+03 -7.55648E+02  7.40369E+02  4.23289E+02
  4.83934E+02  1.83345E+02  9.49673E+02 -4.29655E+02 -7.75390E+02  1.41078E+02  1.50113E+03 -5.97581E+02
  5.19242E+01 -2.78302E+02  2.09885E+03  5.53273E+02  3.40180E+02  2.90613E+03 -2.57163E+02  3.36176E+03
 -1.84743E+03  5.65821E+02 -2.03463E+03  2.86227E+02 -2.31408E+03 -5.42822E+02 -1.07925E+02 -1.39246E+03
  8.21998E+02 -1.36697E+03  1.19250E+03 -1.19899E+03  8.04841E+02  1.91678E+03 -6.90955E+02  1.73112E+03
 -1.27710E+03  1.20250E+03 -1.36949E+03 -1.52146E+03  2.30080E+01 -1.82739E+03  3.06634E+02 -1.80085E+03
  7.33611E+02 -8.85865E+02  9.13473E+02  2.53030E+02  1.41547E+03 -4.42213E+02  7.66413E+02  2.18116E+03
 -4.77052E+02  2.00756E+02 -1.22936E+03 -5.02409E+02  2.54306E+02 -1.12082E+03  1.44738E+03 -7.94229E+02
  1.53259E+03  7.57034E+02  2.30034E+03  1.09862E+03  1.16560E+03  1.84354E+03 -6.54291E+01  1.97455E+03
 -1.67224E+03  1.83578E+02 -1.65024E+03  7.33923E+01 -9.68256E+02 -1.76246E+03  5.79454E+02 -7.12205E+02
  1.49316E+03 -1.10868E+03  3.35700E+02  7.72233E+02  1.41951E+02  1.67058E+03  6.97520E+02  1.50321E+03
  7.91290E+01  1.08583E+03 -4.56065E+02 -7.79137E+01 -2.62172E+02  2.68814E+02 -8.64322E+02  6.04781E+02
 -3.40613E+02  8.86544E+02 -2.03118E+03  5.45926E+02 -1.68822E+03 -3.59858E+01 -2.74309E+03 -1.30171E+03
 -1.10885E+03 -2.30178E+03  5.06802E+02 -3.25039E+03  1.28690E+03 -2.80695E+03  2.66694E+03 -8.12516E+02
  2.80805E+03 -4.26379E+02  1.62664E+03  1.63596E+03 -6.57495E+02  1.16256E+03 -1.16632E+03  1.03058E+03
 -1.00364E+03  9.78172E+02 -9.37501E+02  1.72975E+02 -3.82660E+02  4.04011E+01 -6.38112E+02  5.06947E+02
 -6.11503E+02  1.26327E+02 -1.50656E+03  3.50880E+02  4.92971E+02 -6.03177E+02 -2.50944E+02 -8.01428E+02
  1.26785E+03 -5.01516E+02  5.58925E+01  2.69357E+02  1.29671E+03  1.91483E+03 -3.21385E+02  1.53477E+03
 -1.11694E+03  2.19648E+03 -1.90225E+03  1.32875E+03 -2.05719E+03 -1.40721E+01 -1.12809E+03 -9.92821E+02
 -1.12102E+03 -9.66133E+02  2.74434E+02 -1.26859E+03  7.57752E+02 -1.13486E+03  1.19257E+03  2.50421E+02
  8.79037E+02  5.87475E+02  4.45375E+01  5.57021E+02 -2.29833E+02  1.81535E+02 -2.34820E+02 -6.87334E+02
  8.75370E+02  3.02802E+02  1.20192E+03  6.99131E+02  2.38920E+02  5.22034E+02  5.62390E+02  2.67085E+02
 -1.35641E+02  7.82289E+02 -1.04145E+03 -2.08825E+02 -1.15975E+03 -2.46098E+02 -2.25773E+02 -7.58761E+02
  1.00811E+03 -7.45359E+02  1.14193E+03 -4.30060E+02  1.03822E+03 -6.60911E+02  4.15777E+02  4.03589E+02
  1.16708E+01  5.53800E+02 -3.81269E+01  5.76810E+02 -6.56297E+02  5.90583E+02 -4.90820E+02 -1.37060E+02
 -3.00187E+02 -9.27374E+00 -6.07672E+02  3.05441E+02 -1.33729E+02  4.51484E+02 -6.10687E+02 -3.82503E+02
 -7.91317E+02  1.33417E+02 -3.89479E+02 -7.25664E+02  8.60861E+02 -1.41758E+03  1.10967E+03 -7.15414E+01
  9.42764E+02  2.19153E+02  9.23841E+01  6.89457E+02 -2.29259E+02  1.50760E+03 -5.87054E+02  6.85804E+02
