 $NMID ID='MM_0lb_SNR400_16hz_g55_46.RAW', FMTDAT='(8E13.5)'
 TRAMP=1., VOLUME=1. $END
  3.10260E+05  3.46388E+02  3.37881E+05  2.50342E+05  8.51313E+04  3.37736E+05 -1.32306E+05  2.51426E+05
 -1.90349E+05  8.31378E+04 -1.11813E+05 -3.29509E+04  1.19043E+03 -5.05420E+04  5.31072E+04  1.19204E+02
  3.51691E+04  5.36066E+04 -1.73372E+04  7.53083E+04 -6.05420E+04  6.33803E+04 -8.41491E+04  3.24834E+04
 -8.06031E+04 -1.14233E+04 -5.70651E+04 -5.10364E+04 -1.50005E+04 -6.88923E+04  2.71335E+04 -4.60131E+04
  3.98563E+04  3.92231E+03  1.63687E+04  4.78190E+04 -3.45227E+04  4.70774E+04 -6.67784E+04 -3.61377E+02
 -5.30599E+04 -5.71240E+04 -6.84155E+03 -7.73352E+04  3.35315E+04 -5.44036E+04  4.78209E+04 -1.73924E+04
  4.33754E+04  1.15143E+04  3.17400E+04  2.53133E+04  1.60824E+04  2.91906E+04 -5.64957E+03  2.72612E+04
 -2.17225E+04  1.25095E+04 -1.86561E+04 -4.76258E+03  5.79199E+03 -7.32270E+03  2.25687E+04  1.18268E+04
  6.88724E+03  3.46107E+04 -3.17373E+04  3.50534E+04 -6.33593E+04  2.34531E+03 -5.65147E+04 -4.25857E+04
 -1.21764E+04 -6.28052E+04  3.91005E+04 -4.49876E+04  5.83736E+04 -1.30786E+03  3.44380E+04  3.15252E+04
 -6.17416E+03  3.55878E+04 -2.99713E+04  1.59997E+04 -2.93978E+04 -4.85441E+03 -1.62421E+04 -1.07649E+04
 -7.84057E+03 -1.34291E+04 -5.57200E+02 -1.77096E+04  7.06181E+03 -2.29540E+04  1.57814E+04 -1.34468E+04
  1.17406E+04  4.95373E+03 -7.52881E+03  1.30513E+04 -2.07830E+04 -4.11457E+03 -8.49180E+03 -3.30740E+04
  2.21294E+04 -4.25217E+04  4.72643E+04 -1.95238E+04  4.47035E+04  1.92346E+04  1.54956E+04  4.38072E+04
 -1.57535E+04  3.23533E+04 -2.48458E+04  1.27573E+03 -9.70132E+03 -2.76590E+04  2.07456E+04 -3.31018E+04
  4.02461E+04 -8.59493E+03  3.47669E+04  2.33884E+04  1.79524E+04  4.55397E+04 -8.03303E+03  4.91279E+04
 -3.07063E+04  3.30137E+04 -4.12170E+04  9.02054E+03 -4.14554E+04 -1.59257E+04 -2.30615E+04 -3.72988E+04
  7.15953E+03 -3.71993E+04  3.08112E+04 -1.41013E+04  2.92331E+04  1.08192E+04  3.68938E+03  1.90703E+04
 -1.28148E+04  8.71570E+03 -9.62977E+03 -7.14302E+03  5.75148E+03 -1.06239E+04  1.79000E+04  5.75242E+03
  1.23999E+04  2.14667E+04 -5.79861E+03  2.43793E+04 -2.20012E+04  1.17030E+04 -2.74331E+04 -5.41354E+03
 -1.99707E+04 -1.67875E+04 -7.31155E+03 -1.98285E+04  3.96180E+03 -1.87602E+04  1.48546E+04 -1.81051E+04
  2.52643E+04 -1.25102E+04  3.13747E+04  2.68391E+03  2.31414E+04  1.95252E+04  3.53760E+03  3.53772E+04
 -1.74995E+04  2.95096E+04 -2.78017E+04  1.01976E+04 -2.03256E+04 -1.02145E+04 -4.38552E+03 -1.38377E+04
  1.84326E+03 -2.95659E+03 -3.84634E+03  6.78887E+03 -1.53614E+04  5.36710E+03 -1.60841E+04 -6.58846E+03
 -9.72186E+03 -1.87325E+04  4.86348E+03 -2.17413E+04  1.47144E+04 -1.59224E+04  1.68139E+04 -1.51393E+03
  1.06287E+04  1.25206E+04 -1.43550E+03  1.81961E+04 -1.19010E+04  1.01694E+04 -1.79622E+04 -4.50471E+03
 -1.35332E+04 -1.58818E+04 -1.32428E+03 -2.24711E+04  1.04640E+04 -1.79191E+04  1.89070E+04 -7.96235E+03
  1.72508E+04  1.75051E+02  1.20480E+04  4.52046E+03  6.57864E+03  9.90045E+02  9.19854E+03 -1.69193E+03
  1.66683E+04  2.63485E+03  1.77065E+04  1.39701E+04  1.17801E+04  2.85722E+04 -2.98877E+03  3.22736E+04
 -1.87794E+04  2.62540E+04 -2.95963E+04  1.27310E+04 -3.12629E+04 -2.01415E+03 -2.58799E+04 -1.79008E+04
 -1.09727E+04 -2.57100E+04  8.89847E+03 -2.35402E+04  1.99861E+04 -1.23532E+04  1.79672E+04  5.19330E+03
  7.56971E+03  1.41191E+04 -8.47703E+03  1.22325E+04 -1.53813E+04  2.73695E+03 -1.19663E+04 -9.51478E+03
 -4.88342E+02 -1.37476E+04  7.33173E+03 -1.06652E+04  9.53049E+03 -1.56473E+03  2.01159E+03  6.17248E+03
 -6.55728E+03  2.10558E+03 -5.47375E+03 -4.93476E+03 -3.23869E+02 -1.20513E+04  9.01716E+03 -1.30931E+04
  1.51791E+04 -6.37098E+03  1.60069E+04  2.93308E+03  1.36360E+04  1.21146E+04  7.82680E+03  1.82897E+04
 -3.39365E+03  2.02136E+04 -1.27455E+04  1.29466E+04 -1.42479E+04  3.53201E+03 -1.10025E+04 -2.93666E+03
 -5.33310E+03 -4.49342E+03 -7.25571E+02  8.71958E+02 -2.65057E+03  2.42678E+03 -3.81671E+03  4.17635E+03
 -9.83018E+03 -4.90503E+02 -1.09400E+04 -8.24961E+03 -3.97887E+03 -1.35353E+04  4.41720E+03 -1.03348E+04
  8.40226E+03 -4.43516E+03  6.14017E+03  2.42755E+03  1.24386E+02  4.38814E+03 -4.99722E+03  2.14593E+02
 -4.58186E+03 -6.15388E+03 -1.60321E+03 -9.66275E+03  5.37300E+03 -1.01318E+04  1.24221E+04 -5.23419E+03
  1.45836E+04  1.33708E+03  1.05637E+04  8.42751E+03  1.88148E+03  1.09566E+04 -6.44776E+03  9.99170E+03
 -8.96094E+03  3.84668E+03 -4.27317E+03 -2.24090E+03  1.20413E+03 -2.81664E+03  5.58732E+03 -1.18030E+03
  4.86936E+03  4.28236E+03  5.57137E+02  7.90385E+03 -5.59492E+03  8.07772E+03 -1.07543E+04  2.28050E+03
 -6.22408E+03 -4.86427E+03 -1.13113E+02 -8.13399E+03  4.76756E+03 -3.84623E+03  4.92160E+03  1.93323E+03
  1.30544E+03  4.66821E+03 -5.70065E+03  6.46426E+03 -7.06850E+03  2.60812E+03 -6.95549E+03 -2.85181E+03
 -4.34009E+03 -8.08791E+03  2.17567E+03 -9.85735E+03  8.01197E+03 -5.89711E+03  8.80776E+03  1.55981E+03
  6.00590E+03  7.25718E+03 -6.11023E+02  9.30913E+03 -6.72153E+03  5.55139E+03 -7.04804E+03 -3.54313E+02
 -6.92405E+03 -5.92798E+03 -1.44007E+03 -6.59830E+03  4.07909E+03 -5.52544E+03  3.91992E+03 -3.03722E+03
  3.55273E+03  7.89098E+02 -2.92125E+00  1.25424E+03 -7.86673E+01 -1.08772E+03  6.09869E+02 -2.66192E+03
  5.33617E+03 -1.91531E+03  7.78706E+03  1.25816E+03  7.78939E+03  4.45209E+03  6.11916E+03  1.01593E+04
 -2.18050E+03  1.18258E+04 -1.00613E+04  9.03802E+03 -1.33243E+04  1.78404E+03 -1.02395E+04 -3.65948E+03
 -5.37349E+03 -8.70134E+03 -5.73536E+02 -7.53770E+03  2.91548E+03 -3.03802E+03  2.53136E+03 -2.96364E+03
  1.78332E+03 -1.90137E+03  2.63780E+03 -2.18150E+03  4.06346E+03 -9.15477E+02  4.74129E+03 -5.78496E+02
  5.63363E+03  1.22572E+03  2.07507E+03  4.66905E+03 -1.59576E+03  4.05668E+03 -5.09405E+03  3.52976E+03
 -7.11404E+03 -7.48798E+02 -3.89251E+03 -4.56847E+03 -2.16202E+02 -7.19741E+03  4.48492E+03 -6.96318E+03
  7.79713E+03 -4.23846E+03  9.40996E+03  4.86138E+02  7.12991E+03  6.00082E+03  1.27831E+03  8.30381E+03
 -3.34643E+03  7.66371E+03 -5.02358E+03  2.46694E+03 -3.02194E+03 -1.21038E+03 -7.16564E+02 -1.03619E+03
 -9.41076E+02 -3.37439E+01 -1.27730E+03  2.47551E+03 -3.09907E+03  1.58925E+03 -5.70017E+03 -9.83677E+02
 -3.16728E+03 -5.39092E+03  5.81607E+02 -6.32151E+03  4.06384E+03 -6.18821E+03  6.16304E+03 -2.01051E+03
  6.63548E+03  3.12082E+03  2.98354E+03  5.41398E+03 -1.28039E+03  6.69366E+03 -4.10254E+03  3.88357E+03
 -6.25510E+03  4.58263E+02 -5.14662E+03 -3.03680E+03 -1.56848E+02 -5.39881E+03  2.59930E+03 -3.58294E+03
  4.31268E+03 -1.72193E+03  2.81097E+03  5.50108E+02  9.46918E+02  2.51189E+03  1.18159E+03  8.60278E+02
  2.05561E+03  3.89889E+02  2.34516E+03  1.66497E+03  1.75805E+03  2.81856E+03  1.71338E+03  3.13738E+03
 -1.26985E+03  4.62188E+03 -3.99682E+03  5.23521E+03 -5.14164E+03  2.14704E+03 -5.86043E+03 -1.65426E+03
 -2.88813E+03 -5.99064E+03  1.34181E+03 -6.88387E+03  3.07662E+03 -3.62717E+03  4.50014E+03 -1.43050E+03
  3.77421E+03  2.27882E+03  5.97500E+02  2.99540E+03 -1.31126E+03  2.40140E+03 -1.63987E+03  1.62559E+01
 -1.37290E+03 -2.22612E+03  1.80559E+03 -2.80409E+03  2.19545E+03 -1.26685E+03  2.61198E+03  5.95983E+02
  1.60124E+03  8.10111E+01  1.08850E+03  2.50421E+02 -4.19111E+02  2.43991E+02  2.05739E+03 -2.04114E+02
  6.46713E+02  8.71007E+01  2.18963E+03  1.15384E+03  3.19025E+02  2.92788E+03 -4.91994E+02  4.17347E+03
 -2.46496E+03  1.93372E+03 -3.12817E+03  9.59357E+02 -3.00640E+03 -9.04348E+02 -9.66916E+02 -2.37852E+03
  7.80004E+02 -2.14550E+03  1.26158E+03 -1.58215E+03  9.20302E+02  1.04740E+03 -1.41920E+03  1.83706E+03
 -1.74622E+03  8.34546E+02 -2.45783E+03 -1.15584E+03 -1.20279E+03 -3.28931E+03  2.10925E+02 -2.84664E+03
  1.24240E+03 -1.65282E+03  1.42016E+03 -5.08358E+01  2.13903E+03 -7.89529E+01  6.97704E+02  1.95601E+03
 -1.10494E+03  3.05132E+02 -1.69384E+03 -1.36056E+03  6.67084E+02 -1.98714E+03  3.04340E+03 -1.11703E+03
  2.33959E+03  3.11030E+02  3.72732E+03  2.23163E+03  9.49280E+02  2.70226E+03 -1.10836E+03  3.02565E+03
 -2.69280E+03  8.83167E+02 -2.34122E+03 -5.80142E+02 -5.94379E+02 -1.87488E+03  3.73494E+02 -1.75516E+03
  2.30886E+03 -9.44335E+02  1.43225E+03  1.58396E+03  4.57041E+02  2.13775E+03  5.58880E+02  1.58168E+03
 -7.92088E+02  2.08452E+03 -4.21865E+02  3.32025E+02  2.85029E+02  2.87445E+02 -7.20381E+02  1.31534E+03
 -1.07088E+03  1.05685E+03 -2.66100E+03  7.42900E+02 -2.52273E+03  1.47787E+02 -4.02270E+03 -1.69261E+03
 -1.76477E+03 -4.16798E+03  8.93050E+02 -4.66284E+03  2.58491E+03 -4.01204E+03  3.90425E+03 -1.42606E+03
  3.75663E+03  8.25589E+02  2.05640E+03  3.00369E+03 -4.72293E+02  2.50518E+03 -9.96916E+02  2.25379E+03
 -2.10571E+03  7.39555E+02 -9.15051E+02 -7.14888E+02 -3.57801E+02  3.78883E+02 -9.71833E+02  1.54661E+02
 -1.66754E+03 -1.90372E+02 -8.08468E+02 -2.04475E+02  9.45786E-01 -8.78768E+02 -6.49045E+02 -1.49612E+03
  1.70448E+03 -1.14932E+03  1.32438E+03  3.32971E+02  2.65739E+03  1.50498E+03  2.02130E+02  2.54877E+03
 -2.02176E+03  3.26586E+03 -2.84993E+03  2.09877E+03 -2.86268E+03 -3.20976E+01 -1.87018E+03 -1.38622E+03
 -1.34941E+03 -2.75920E+03  7.51324E+02 -2.50449E+03  1.17364E+03 -1.66238E+03  1.23853E+03  2.98543E+02
  9.72194E+02  8.09089E+02  2.85811E+02  9.90761E+02 -6.09707E+02 -2.56176E+02  1.03111E+02 -4.55463E+02
  1.11411E+03 -1.79957E+02  7.23220E+01  7.35139E+02  3.40666E+02  1.39454E+03  1.54124E+02  1.54356E+03
 -1.35015E+03  7.53640E+02 -7.43306E+02  2.01436E+02 -1.43462E+03 -1.10762E+03  3.44006E+02 -1.94673E+03
  1.18911E+03 -1.26229E+03  8.88923E+02 -5.47863E+02  1.54543E+03 -6.08868E+02  9.51546E+02  1.11778E+03
  6.42999E+02  1.07818E+03 -6.51871E+02  1.50562E+03 -1.00735E+03  5.59189E+02 -7.01945E+02  3.42066E+02
 -2.27797E+02  1.56891E+02 -5.93066E+02 -6.16085E+01 -7.47782E+02  5.80093E+02 -1.45654E+03 -7.71534E+02
 -1.36820E+03 -7.48655E+02 -9.40350E+02 -1.36354E+03  5.73095E+02 -2.42795E+03  1.67671E+03 -1.50190E+03
  1.62425E+03  3.19578E+01 -1.11262E+02  5.36595E+02 -4.56819E+02  1.92675E+03 -8.41671E+02  4.63233E+02
