 $NMID ID='MM_0lb_SNR400_12hz_g55_75.RAW', FMTDAT='(8E13.5)'
 TRAMP=1., VOLUME=1. $END
  3.09381E+05  4.92350E+02  3.37515E+05  2.50451E+05  8.40444E+04  3.38850E+05 -1.32520E+05  2.51763E+05
 -1.90909E+05  8.42773E+04 -1.12525E+05 -3.27597E+04  7.34294E+02 -5.03370E+04  5.39894E+04 -1.02651E+02
  3.57374E+04  5.32068E+04 -1.62394E+04  7.55077E+04 -6.10781E+04  6.37846E+04 -8.50746E+04  3.22121E+04
 -8.20785E+04 -1.20388E+04 -5.79343E+04 -5.18822E+04 -1.56687E+04 -7.02125E+04  2.72027E+04 -4.67240E+04
  4.08005E+04  3.32814E+03  1.64051E+04  4.80935E+04 -3.40196E+04  4.81429E+04 -6.79773E+04 -1.28262E+02
 -5.40942E+04 -5.72239E+04 -6.80364E+03 -7.79082E+04  3.44444E+04 -5.65641E+04  4.84893E+04 -1.83803E+04
  4.41296E+04  1.14702E+04  3.25873E+04  2.58238E+04  1.57890E+04  2.99164E+04 -5.37087E+03  2.69602E+04
 -2.20608E+04  1.18668E+04 -1.81402E+04 -5.42766E+03  6.31427E+03 -7.85573E+03  2.24910E+04  1.29389E+04
  7.07325E+03  3.68757E+04 -3.38214E+04  3.60780E+04 -6.45833E+04  2.14379E+03 -5.84745E+04 -4.31437E+04
 -1.29348E+04 -6.43662E+04  4.05722E+04 -4.68008E+04  6.00002E+04 -2.54504E+03  3.53856E+04  3.30854E+04
 -6.01312E+03  3.77570E+04 -3.08743E+04  1.73440E+04 -3.22013E+04 -3.43315E+03 -1.82443E+04 -1.13756E+04
 -9.93518E+03 -1.43104E+04 -4.71778E+02 -1.98402E+04  7.59723E+03 -2.36951E+04  1.57800E+04 -1.27543E+04
  1.22623E+04  5.73758E+03 -9.67028E+03  1.30874E+04 -2.18130E+04 -5.34060E+03 -8.15749E+03 -3.59307E+04
  2.32574E+04 -4.61341E+04  4.93312E+04 -2.04690E+04  4.70520E+04  1.96416E+04  1.68177E+04  4.59416E+04
 -1.61586E+04  3.48070E+04 -2.66151E+04  2.39525E+03 -1.11980E+04 -2.89397E+04  2.12621E+04 -3.51455E+04
  4.31506E+04 -1.02270E+04  3.85186E+04  2.40776E+04  1.91133E+04  4.86599E+04 -8.50186E+03  5.30417E+04
 -3.38251E+04  3.55787E+04 -4.58442E+04  1.07687E+04 -4.61548E+04 -1.66628E+04 -2.48355E+04 -3.94896E+04
  8.12418E+03 -3.95560E+04  3.32029E+04 -1.57561E+04  3.11449E+04  1.10571E+04  4.72314E+03  1.99698E+04
 -1.36993E+04  8.61405E+03 -1.11837E+04 -7.71518E+03  5.44427E+03 -1.09835E+04  1.86174E+04  5.09288E+03
  1.37270E+04  2.30865E+04 -6.48272E+03  2.55736E+04 -2.28590E+04  1.25694E+04 -2.91166E+04 -3.77090E+03
 -2.33107E+04 -1.75003E+04 -9.69805E+03 -2.31296E+04  3.55850E+03 -2.27748E+04  1.77591E+04 -2.08484E+04
  2.90116E+04 -1.39861E+04  3.52347E+04  3.71658E+03  2.55454E+04  2.21861E+04  4.80832E+03  3.95593E+04
 -1.93376E+04  3.18437E+04 -2.95743E+04  1.12821E+04 -2.17731E+04 -9.98240E+03 -4.62315E+03 -1.30614E+04
  5.47024E+02 -1.95390E+03 -5.88949E+03  7.28179E+03 -1.81008E+04  5.27946E+03 -1.78802E+04 -8.79937E+03
 -1.11425E+04 -2.14395E+04  5.37365E+03 -2.58963E+04  1.75105E+04 -1.78265E+04  2.07608E+04 -1.94189E+03
  1.31430E+04  1.51102E+04 -1.32070E+03  2.14821E+04 -1.51369E+04  1.20083E+04 -2.09275E+04 -4.59199E+03
 -1.44734E+04 -1.94721E+04 -2.43504E+03 -2.57117E+04  1.13021E+04 -2.14507E+04  2.07929E+04 -1.08643E+04
  2.03591E+04 -4.42210E+02  1.45414E+04  5.25302E+03  7.60027E+03  1.51314E+03  1.04564E+04 -2.21424E+03
  1.90637E+04  2.71716E+03  2.15085E+04  1.70425E+04  1.47135E+04  3.37696E+04 -2.59769E+03  3.90060E+04
 -2.25350E+04  3.17708E+04 -3.68420E+04  1.54713E+04 -3.82117E+04 -2.81659E+03 -3.20556E+04 -2.27770E+04
 -1.34412E+04 -3.25367E+04  1.17012E+04 -2.86192E+04  2.55080E+04 -1.40813E+04  2.21076E+04  6.30045E+03
  7.50376E+03  1.66280E+04 -9.96574E+03  1.43385E+04 -1.81203E+04  2.58117E+03 -1.31611E+04 -1.19442E+04
 -5.07054E+02 -1.76519E+04  9.44534E+03 -1.34939E+04  1.12967E+04 -1.06727E+03  2.96269E+03  7.46919E+03
 -7.62210E+03  3.47754E+03 -7.63353E+03 -6.61423E+03 -1.61945E+03 -1.61232E+04  1.01355E+04 -1.65633E+04
  1.97439E+04 -9.15477E+03  2.19031E+04  3.22030E+03  1.88936E+04  1.64226E+04  8.82612E+03  2.42106E+04
 -4.66757E+03  2.65938E+04 -1.70985E+04  1.63125E+04 -1.95690E+04  4.25367E+03 -1.34778E+04 -5.04900E+03
 -6.09628E+03 -6.25163E+03 -8.86136E+02  4.69857E+02 -2.92442E+03  2.54250E+03 -6.50701E+03  4.95564E+03
 -1.23498E+04 -8.56159E+02 -1.28420E+04 -1.05326E+04 -5.04227E+03 -1.70466E+04  5.79948E+03 -1.38035E+04
  1.17002E+04 -5.10751E+03  7.82673E+03  3.27613E+03 -7.55860E+02  5.67876E+03 -6.92666E+03 -8.02963E+01
 -6.58693E+03 -8.84929E+03 -7.27368E+02 -1.32411E+04  7.15504E+03 -1.37898E+04  1.72049E+04 -7.12355E+03
  1.97493E+04  1.59173E+03  1.47699E+04  1.12499E+04  2.12286E+03  1.56968E+04 -8.27222E+03  1.34376E+04
 -1.09051E+04  3.22281E+03 -5.27755E+03 -2.56718E+03  1.68921E+03 -3.23908E+03  7.42441E+03 -5.00997E+02
  6.91550E+03  5.54622E+03  1.42129E+03  1.05608E+04 -7.24367E+03  9.92452E+03 -1.26819E+04  2.96920E+03
 -9.12878E+03 -6.69463E+03 -3.03479E+02 -1.11706E+04  6.98836E+03 -5.69651E+03  7.53452E+03  2.48755E+03
  1.48354E+03  7.12910E+03 -6.79562E+03  9.35823E+03 -1.06679E+04  5.08622E+03 -1.06257E+04 -4.08733E+03
 -6.52957E+03 -1.26933E+04  2.76291E+03 -1.42624E+04  1.14765E+04 -8.71987E+03  1.38342E+04  2.15826E+03
  7.92870E+03  1.08042E+04 -1.15992E+03  1.33318E+04 -9.39127E+03  7.41756E+03 -1.04039E+04 -9.91865E+02
 -9.43722E+03 -8.67685E+03 -1.84048E+03 -9.12328E+03  5.37477E+03 -8.36093E+03  6.76518E+03 -3.88091E+03
  4.03967E+03  1.38376E+03 -1.05510E+03  1.49058E+03 -3.25589E+02 -3.08357E+03  2.08625E+03 -5.98597E+03
  8.98039E+03 -3.17553E+03  1.27446E+04  1.24306E+03  1.25305E+04  8.32994E+03  8.82607E+03  1.66700E+04
 -3.83345E+03  1.88078E+04 -1.60577E+04  1.42924E+04 -2.08221E+04  2.36584E+03 -1.55658E+04 -6.92223E+03
 -7.88696E+03 -1.29652E+04 -8.73264E+02 -1.11863E+04  3.89613E+03 -6.20249E+03  4.53905E+03 -4.12548E+03
  3.80042E+03 -2.94967E+03  2.67708E+03 -3.75097E+03  4.85473E+03 -2.35505E+03  5.70161E+03 -3.77506E+01
  8.63279E+03  1.94403E+03  3.87568E+03  6.58531E+03 -2.30239E+03  7.45846E+03 -8.22543E+03  5.70778E+03
 -1.20599E+04 -1.25133E+03 -7.48381E+03 -7.95280E+03 -1.38825E+03 -1.22053E+04  6.39084E+03 -1.22633E+04
  1.27699E+04 -6.62216E+03  1.48802E+04  2.05929E+03  1.07894E+04  1.04173E+04  1.36652E+03  1.32036E+04
 -5.69580E+03  1.07649E+04 -7.93364E+03  3.51987E+03 -5.63951E+03 -1.37216E+03 -1.90361E+03 -1.52071E+03
 -8.44817E+02  1.89341E+02 -1.68443E+03  2.70325E+03 -4.55971E+03  2.30820E+03 -7.58242E+03 -1.21612E+03
 -5.14085E+03 -7.96023E+03  9.56005E+02 -1.02821E+04  6.57901E+03 -1.00266E+04  1.00242E+04 -3.05943E+03
  1.02987E+04  5.44767E+03  5.29180E+03  9.83741E+03 -2.02444E+03  1.11031E+04 -7.37778E+03  6.52015E+03
 -1.01280E+04  4.84612E+02 -7.60340E+03 -7.05086E+03 -1.26984E+03 -8.88211E+03  4.46338E+03 -6.47323E+03
  7.21501E+03 -2.32542E+03  4.45714E+03  1.07477E+03  1.75234E+03  2.53973E+03  1.33936E+03  1.76157E+03
  2.74533E+03  5.55973E+02  2.96536E+03  6.61116E+02  3.86216E+03  4.09375E+03  2.87882E+03  5.09161E+03
 -2.51711E+03  8.30490E+03 -7.64288E+03  9.01232E+03 -1.00422E+04  2.29949E+03 -1.13452E+04 -3.44543E+03
 -5.44527E+03 -1.06415E+04  1.77419E+03 -1.15907E+04  6.07935E+03 -7.13522E+03  9.50553E+03 -1.72776E+03
  6.24943E+03  3.35610E+03  1.31373E+03  5.17487E+03 -3.17909E+03  3.38737E+03 -4.57608E+03 -8.58377E+02
 -3.00586E+03 -4.15018E+03  2.54387E+03 -4.39670E+03  4.86317E+03 -2.25428E+03  3.80500E+03  1.00496E+03
  2.26393E+03  1.77173E+03  1.03119E+03  1.88404E+03 -1.29214E+03  1.55416E+03  1.95350E+03 -1.06481E+03
  1.25712E+03 -6.61378E+02  4.67050E+03  1.66373E+03  2.41233E+03  5.34698E+03 -8.65883E+02  7.09266E+03
 -5.37322E+03  4.39302E+03 -6.67280E+03  2.14567E+03 -6.10971E+03 -2.62029E+03 -1.24440E+03 -3.63144E+03
  9.46503E+02 -3.80270E+03  3.12640E+03 -2.66261E+03  1.98758E+03  2.59229E+03 -1.11430E+03  3.34238E+03
 -3.71526E+03  2.00023E+03 -4.46414E+03 -2.48319E+03 -2.97703E+03 -5.94948E+03  1.07040E+03 -6.05685E+03
  2.95610E+03 -3.05260E+03  3.93174E+03 -7.74978E+02  3.72993E+03  1.22810E+03  5.31923E+02  2.87965E+03
 -2.02408E+03  1.45781E+03 -2.49373E+03 -1.80541E+03  9.11132E+02 -4.02343E+03  5.51079E+03 -2.88051E+03
  5.68445E+03  4.10710E+02  6.78017E+03  4.61468E+03  1.79218E+03  6.53892E+03 -2.01103E+03  5.52977E+03
 -4.93726E+03  2.56231E+03 -6.13659E+03 -1.08025E+03 -3.35780E+03 -4.92002E+03  9.35440E+02 -3.73585E+03
  4.07999E+03 -2.52674E+03  3.76430E+03  2.30216E+03  8.90771E+02  3.87312E+03 -1.02293E+03  3.61641E+03
 -1.69716E+03  1.42644E+03 -1.43741E+03  6.49645E+02 -6.96862E+02  2.25267E+02 -1.32852E+03  1.23425E+03
 -1.76701E+03  2.36377E+03 -4.78290E+03  2.10418E+03 -6.44487E+03 -1.57537E+02 -6.83659E+03 -3.79205E+03
 -3.76472E+03 -8.12660E+03  1.65689E+03 -1.00456E+04  5.82778E+03 -7.92552E+03  8.10290E+03 -2.25630E+03
  7.99312E+03  1.49555E+03  5.26327E+03  6.03700E+03 -2.65811E+02  6.40709E+03 -2.20123E+03  4.87922E+03
 -3.97859E+03  1.02545E+03 -2.17806E+03 -4.63864E+02 -5.09360E+02 -7.51157E+02 -6.69708E+02  4.78849E+02
 -1.48687E+03  1.16667E+02 -2.03782E+03 -1.36208E+02 -4.04289E+02 -2.02945E+03 -1.21174E+02 -2.10815E+03
  3.41535E+03 -1.52046E+03  3.25673E+03 -1.96271E+02  4.41975E+03  3.61434E+03  8.35753E+02  5.81422E+03
 -2.83354E+03  7.68901E+03 -6.88155E+03  4.14977E+03 -7.49475E+03 -1.23807E+03 -5.66366E+03 -4.66815E+03
 -1.69556E+03 -6.23089E+03  7.95698E+02 -6.06594E+03  3.72874E+03 -3.35691E+03  3.07894E+03  1.02585E+02
  2.03981E+03  1.84938E+03  1.96940E+02  1.27555E+03 -9.33269E+02 -4.06285E+02 -1.71299E+02 -1.18988E+03
  1.27304E+03 -7.80904E+02  1.98254E+03  9.01325E+02  1.54780E+03  1.47033E+03  1.25312E+03  2.49665E+03
 -3.09972E+03  2.42443E+03 -3.77578E+03 -2.31989E+02 -3.94475E+03 -2.67302E+03 -4.67648E+02 -5.58773E+03
  3.01924E+03 -3.54887E+03  3.83056E+03 -1.25936E+03  4.74605E+03  1.23444E+03  2.14509E+03  3.76437E+03
  8.04972E+02  3.64030E+03 -1.92495E+03  3.05211E+03 -2.21926E+03  2.45833E+03 -1.63232E+03  1.62830E+02
 -1.42777E+03 -7.22877E+01 -1.08648E+03  5.18494E+01 -2.22489E+03  4.05517E+02 -3.08802E+03 -9.08444E+01
 -3.16524E+03 -1.63908E+03 -1.26715E+03 -3.50711E+03  1.88719E+03 -3.81815E+03  2.80036E+03 -1.84470E+03
  3.51735E+03  5.33152E+02  1.45670E+03  2.02928E+03  2.93208E+02  4.34028E+03 -2.22443E+03  2.60769E+03
