 $NMID ID='MM_0lb_SNR400_8hz_g60_87.RAW', FMTDAT='(8E13.5)'
 TRAMP=1., VOLUME=1. $END
  3.10319E+05  1.78475E+02  3.37981E+05  2.50685E+05  8.67427E+04  3.39553E+05 -1.32887E+05  2.52184E+05
 -1.91712E+05  8.39719E+04 -1.13074E+05 -3.21788E+04  6.53605E+02 -5.12025E+04  5.33041E+04 -9.46442E+02
  3.47299E+04  5.26431E+04 -1.65530E+04  7.65515E+04 -6.14064E+04  6.43400E+04 -8.57512E+04  3.25395E+04
 -8.39400E+04 -1.21849E+04 -5.81471E+04 -5.37768E+04 -1.53591E+04 -7.11795E+04  2.84480E+04 -4.77298E+04
  4.14869E+04  3.23294E+03  1.61140E+04  4.82778E+04 -3.52734E+04  4.82796E+04 -6.97527E+04  1.46068E+03
 -5.50460E+04 -5.83028E+04 -7.55732E+03 -7.97125E+04  3.52599E+04 -5.73187E+04  4.97204E+04 -1.94829E+04
  4.57129E+04  1.13714E+04  3.32762E+04  2.68747E+04  1.59831E+04  3.10322E+04 -5.28380E+03  2.72446E+04
 -2.28582E+04  1.15701E+04 -1.72692E+04 -5.92522E+03  8.39341E+03 -7.67252E+03  2.31947E+04  1.44216E+04
  6.77685E+03  3.84038E+04 -3.45848E+04  3.71839E+04 -6.69150E+04  2.05123E+03 -5.89764E+04 -4.58998E+04
 -1.21556E+04 -6.66445E+04  4.24574E+04 -4.69427E+04  6.30820E+04 -3.26323E+03  3.77843E+04  3.45899E+04
 -5.24621E+03  4.09524E+04 -3.23756E+04  2.00204E+04 -3.54655E+04 -2.88220E+03 -1.98031E+04 -1.25215E+04
 -9.40727E+03 -1.61186E+04 -5.93903E+02 -1.98720E+04  9.47714E+03 -2.35584E+04  1.64607E+04 -1.27929E+04
  1.09478E+04  7.03216E+03 -1.19313E+04  1.27728E+04 -2.48551E+04 -7.30450E+03 -7.94750E+03 -3.93855E+04
  2.72741E+04 -4.75277E+04  5.35202E+04 -2.18567E+04  4.97926E+04  2.07907E+04  1.80803E+04  4.78664E+04
 -1.69246E+04  3.83655E+04 -2.88325E+04  2.70392E+03 -1.30247E+04 -2.89599E+04  2.20063E+04 -3.78903E+04
  4.58789E+04 -1.20444E+04  4.10493E+04  2.59411E+04  2.23875E+04  5.34231E+04 -8.90757E+03  5.82819E+04
 -3.70088E+04  3.98461E+04 -5.04276E+04  1.11616E+04 -4.99891E+04 -1.91022E+04 -2.74601E+04 -4.33851E+04
  8.12499E+03 -4.45571E+04  3.55235E+04 -1.81914E+04  3.35254E+04  1.14437E+04  5.47862E+03  2.15404E+04
 -1.40011E+04  1.00716E+04 -1.15596E+04 -7.92443E+03  5.93245E+03 -1.12472E+04  1.90782E+04  5.98801E+03
  1.58537E+04  2.29384E+04 -4.44486E+03  2.84405E+04 -2.39167E+04  1.63227E+04 -3.27456E+04 -2.48608E+03
 -2.75990E+04 -1.93305E+04 -1.28365E+04 -2.70759E+04  5.12644E+03 -2.83405E+04  2.10170E+04 -2.46800E+04
  3.47188E+04 -1.46467E+04  4.06919E+04  6.14722E+03  2.80556E+04  2.59860E+04  4.29714E+03  4.31889E+04
 -2.10631E+04  3.45480E+04 -3.19532E+04  1.24866E+04 -2.38557E+04 -1.06619E+04 -5.67427E+03 -1.31279E+04
  7.96825E+01  6.17189E+01 -8.37746E+03  8.73658E+03 -2.17304E+04  5.45224E+03 -2.10186E+04 -9.92920E+03
 -1.30950E+04 -2.49410E+04  6.73754E+03 -2.94857E+04  2.08083E+04 -2.20878E+04  2.43042E+04 -1.99249E+03
  1.60140E+04  1.75122E+04 -7.63734E+02  2.49748E+04 -1.78441E+04  1.52478E+04 -2.55947E+04 -4.26366E+03
 -1.98521E+04 -2.23588E+04 -2.43860E+03 -3.07763E+04  1.42139E+04 -2.51303E+04  2.47667E+04 -1.36941E+04
  2.35417E+04 -7.29333E+02  1.79264E+04  4.94033E+03  1.01676E+04  2.73148E+03  1.28867E+04 -2.51181E+03
  2.37579E+04  3.01109E+03  2.81790E+04  1.95603E+04  1.98813E+04  4.10193E+04 -1.66859E+03  4.87416E+04
 -2.65604E+04  4.07574E+04 -4.55246E+04  2.13306E+04 -4.88982E+04 -3.33958E+03 -3.96923E+04 -2.92676E+04
 -1.52636E+04 -4.08669E+04  1.47472E+04 -3.75253E+04  3.12642E+04 -1.67621E+04  2.65544E+04  8.86675E+03
  8.73509E+03  1.97020E+04 -1.18641E+04  1.66155E+04 -2.19918E+04  2.52932E+03 -1.58028E+04 -1.40705E+04
 -1.47543E+03 -2.00721E+04  1.16026E+04 -1.56000E+04  1.46478E+04 -1.43449E+03  3.94434E+03  9.86436E+03
 -8.52546E+03  4.96265E+03 -1.06399E+04 -8.27442E+03 -2.77965E+03 -1.98911E+04  1.25381E+04 -2.26909E+04
  2.60302E+04 -1.25851E+04  3.00138E+04  3.05841E+03  2.60452E+04  2.06684E+04  1.13533E+04  3.36276E+04
 -7.31802E+03  3.46955E+04 -2.31636E+04  2.16833E+04 -2.56968E+04  3.96504E+03 -1.73403E+04 -7.50730E+03
 -6.40597E+03 -8.43374E+03 -4.76952E+02 -2.12363E+01 -2.56063E+03  4.23642E+03 -8.75766E+03  5.18044E+03
 -1.57653E+04 -6.34114E+02 -1.54445E+04 -1.36080E+04 -6.41738E+03 -2.03243E+04  7.17501E+03 -1.82135E+04
  1.35366E+04 -7.76748E+03  1.02584E+04  4.27210E+03  2.34342E+02  6.93031E+03 -9.42541E+03  6.38336E+02
 -8.50969E+03 -1.10800E+04 -7.59434E+02 -1.87401E+04  9.96063E+03 -1.88822E+04  2.17951E+04 -9.08122E+03
  2.62023E+04  2.93490E+03  1.95533E+04  1.69254E+04  3.64017E+03  2.15422E+04 -1.09618E+04  1.76174E+04
 -1.42597E+04  4.77282E+03 -7.59698E+03 -4.44160E+03  2.43243E+03 -5.21275E+03  8.93964E+03 -5.47010E+02
  8.54358E+03  8.03661E+03  8.50723E+02  1.44345E+04 -1.05999E+04  1.34993E+04 -1.68130E+04  2.56612E+03
 -1.28365E+04 -9.77163E+03  5.11432E+02 -1.44429E+04  1.03181E+04 -7.64802E+03  1.12267E+04  3.48384E+03
  1.85636E+03  1.19075E+04 -8.25813E+03  1.38911E+04 -1.59972E+04  5.97468E+03 -1.66020E+04 -6.21930E+03
 -9.50242E+03 -1.91572E+04  4.51775E+03 -2.06180E+04  1.74055E+04 -1.29288E+04  2.07272E+04  3.72040E+03
  1.12420E+04  1.60640E+04 -3.25493E+03  1.75143E+04 -1.30058E+04  9.99860E+03 -1.52921E+04 -1.30998E+03
 -1.28250E+04 -1.17015E+04 -1.91122E+03 -1.39227E+04  6.85480E+03 -1.07851E+04  9.25230E+03 -4.17650E+03
  6.34205E+03  2.58498E+03 -1.44197E+03  2.25512E+03 -1.71779E+03 -4.64441E+03  3.62268E+03 -9.20628E+03
  1.41896E+04 -6.11933E+03  1.86942E+04  1.46912E+03  1.82393E+04  1.32188E+04  1.17203E+04  2.46762E+04
 -6.81210E+03  2.82468E+04 -2.29974E+04  1.98207E+04 -3.03062E+04  4.60776E+03 -2.44825E+04 -1.10825E+04
 -1.26392E+04 -2.01450E+04 -4.43291E+02 -1.73620E+04  6.03157E+03 -1.01642E+04  5.37587E+03 -6.66531E+03
  5.75181E+03 -4.13413E+03  4.54538E+03 -3.99783E+03  6.63089E+03 -4.49259E+03  9.43302E+03 -1.59270E+03
  1.27892E+04  2.46144E+03  7.89438E+03  1.08330E+04 -3.04338E+03  1.41381E+04 -1.35702E+04  1.08970E+04
 -1.73413E+04 -5.49795E+02 -1.12657E+04 -1.27753E+04 -1.83083E+03 -1.87543E+04  1.02146E+04 -1.92768E+04
  2.02849E+04 -9.93315E+03  2.35155E+04  2.61528E+03  1.65471E+04  1.63017E+04  2.79829E+03  2.15282E+04
 -8.33737E+03  1.69749E+04 -1.28272E+04  5.67757E+03 -8.51647E+03 -3.07107E+03 -3.89744E+03 -1.64244E+03
 -9.63119E+02 -1.82871E+02 -2.38381E+03  3.54412E+03 -7.46205E+03  3.13439E+03 -1.15220E+04 -1.99730E+03
 -8.64954E+03 -1.16267E+04 -6.21348E+02 -1.79679E+04  1.15500E+04 -1.59077E+04  1.83984E+04 -5.28136E+03
  1.76169E+04  8.44323E+03  9.24494E+03  1.56891E+04 -2.96692E+03  1.79014E+04 -1.32410E+04  1.13048E+04
 -1.76112E+04  3.35778E+02 -1.26766E+04 -1.08863E+04 -1.60767E+03 -1.43979E+04  7.67819E+03 -1.10927E+04
  1.12646E+04 -3.37899E+03  7.18169E+03  3.03957E+03  2.20426E+03  4.50447E+03  1.54112E+03  3.53563E+03
  2.95468E+03  1.74271E+03  3.01306E+03  2.47493E+03  5.02245E+03  5.54450E+03  4.17565E+03  1.00813E+04
 -3.27628E+03  1.48353E+04 -1.36344E+04  1.38141E+04 -1.96589E+04  3.17094E+03 -1.90426E+04 -9.05029E+03
 -9.05315E+03 -1.80915E+04  3.18567E+03 -1.99445E+04  1.15171E+04 -1.27728E+04  1.53395E+04 -2.91631E+03
  1.20408E+04  6.09616E+03  3.45666E+03  1.10072E+04 -4.83068E+03  6.04150E+03 -8.08452E+03 -6.41009E+02
 -3.52167E+03 -7.57696E+03  3.82544E+03 -8.79054E+03  7.56670E+03 -3.48609E+03  7.48890E+03  1.69076E+03
  4.17847E+03  3.26589E+03  1.19924E+03  3.72049E+03 -5.01981E+02  2.12994E+03  2.03504E+03 -5.43960E+02
  2.92003E+03 -8.91340E+02  6.48525E+03  2.51988E+03  4.14863E+03  1.00330E+04 -1.64022E+03  1.27534E+04
 -8.45529E+03  9.49395E+03 -1.16713E+04  3.67894E+03 -1.07755E+04 -4.68888E+03 -4.05225E+03 -8.26696E+03
  6.91940E+02 -7.03354E+03  3.77286E+03 -3.92896E+03  3.25010E+03  3.88030E+03 -2.37787E+03  5.96382E+03
 -7.17695E+03  2.94463E+03 -1.01872E+04 -3.99921E+03 -4.60358E+03 -1.03554E+04  1.30689E+03 -1.08177E+04
  5.54470E+03 -6.51132E+03  8.32945E+03 -1.57050E+03  5.94818E+03  2.76925E+03  1.23830E+03  4.81005E+03
 -3.34678E+03  1.11382E+03 -4.36762E+03 -3.99785E+03  1.99532E+03 -8.97478E+03  9.24222E+03 -7.71011E+03
  1.22072E+04  6.89485E+02  1.08534E+04  8.25569E+03  4.14052E+03  1.35344E+04 -4.64946E+03  1.29546E+04
 -9.83566E+03  6.12139E+03 -1.18308E+04 -1.78733E+03 -6.46790E+03 -7.61512E+03  2.11089E+03 -8.15400E+03
  7.87584E+03 -3.90625E+03  6.01091E+03  4.11677E+03  1.34534E+03  6.18667E+03 -2.20815E+03  5.58903E+03
 -2.75346E+03  3.45362E+03 -3.89725E+03  8.08933E+02 -1.47932E+03  7.09945E+02 -1.87460E+03  2.05515E+03
 -2.72785E+03  5.02581E+03 -8.21604E+03  5.38160E+03 -1.36195E+04  2.35014E+02 -1.43674E+04 -8.82944E+03
 -8.33206E+03 -1.74102E+04  3.27679E+03 -1.99213E+04  1.26927E+04 -1.49285E+04  1.86634E+04 -5.78393E+03
  1.80311E+04  3.19598E+03  1.05646E+04  1.19448E+04  1.90952E+03  1.45478E+04 -5.59027E+03  1.03189E+04
 -7.19149E+03  3.82442E+03 -4.89872E+03 -1.98048E+03 -1.08500E+03 -1.11438E+03 -5.78222E+02 -2.64638E+02
 -1.79081E+03  5.50920E+02 -2.99665E+03 -6.55898E+02 -9.24454E+02 -3.14359E+03  1.15175E+03 -5.35224E+03
  5.65310E+03 -3.55693E+03  8.10016E+03  7.40452E+02  8.78083E+03  7.33248E+03  3.25763E+03  1.46382E+04
 -7.35729E+03  1.56687E+04 -1.51010E+04  1.00280E+04 -1.65555E+04 -1.16811E+03 -1.26988E+04 -1.00951E+04
 -5.45649E+03 -1.40069E+04  4.07978E+03 -1.30660E+04  8.52865E+03 -6.82632E+03  9.13916E+03 -2.49525E+02
  4.74618E+03  4.58650E+03 -6.36390E+02  4.35654E+03 -2.49364E+03 -8.50158E+02 -1.74842E+02 -3.11665E+03
  3.99113E+03 -2.25353E+03  6.49978E+03  1.04726E+03  4.22832E+03  6.04416E+03 -4.16115E+02  7.62704E+03
 -6.04725E+03  6.15428E+03 -9.75656E+03  9.60048E+02 -8.68044E+03 -7.71427E+03 -1.35988E+03 -1.14389E+04
  6.75424E+03 -9.72586E+03  1.13929E+04 -3.71648E+03  1.00778E+04  2.05509E+03  5.64912E+03  8.89691E+03
  1.29060E+03  9.28469E+03 -4.12745E+03  7.71940E+03 -6.39366E+03  4.42416E+03 -5.39837E+03  1.30740E+03
 -1.93709E+03 -2.48983E+01 -3.52005E+03  8.86138E+02 -4.90976E+03  2.33570E+03 -7.15149E+03 -1.39143E+03
 -6.65644E+03 -5.96682E+03 -3.08311E+03 -1.02979E+04  4.14913E+03 -1.02277E+04  8.36169E+03 -4.03842E+03
  8.76556E+03  1.94555E+03  5.46041E+03  6.29671E+03 -4.93697E+02  9.54624E+03 -5.62122E+03  6.26157E+03
