 $NMID ID='MM_0lb_SNR400_17hz_g40_51.RAW', FMTDAT='(8E13.5)'
 TRAMP=1., VOLUME=1. $END
  3.10203E+05 -9.50110E+01  3.37745E+05  2.50285E+05  8.43251E+04  3.37273E+05 -1.32679E+05  2.50749E+05
 -1.90029E+05  8.31816E+04 -1.11086E+05 -3.29660E+04  1.56403E+03 -5.07800E+04  5.40115E+04  1.11537E+02
  3.54407E+04  5.33265E+04 -1.73589E+04  7.51729E+04 -6.05815E+04  6.29102E+04 -8.29554E+04  3.16630E+04
 -7.96510E+04 -1.10769E+04 -5.63540E+04 -5.03769E+04 -1.49877E+04 -6.86563E+04  2.65651E+04 -4.51753E+04
  3.91759E+04  3.71040E+03  1.57107E+04  4.68126E+04 -3.40446E+04  4.60454E+04 -6.60329E+04 -7.04005E+02
 -5.26888E+04 -5.57352E+04 -6.64283E+03 -7.50424E+04  3.32398E+04 -5.34490E+04  4.66701E+04 -1.65821E+04
  4.20534E+04  1.12797E+04  3.07065E+04  2.43517E+04  1.61482E+04  2.91886E+04 -4.73797E+03  2.70949E+04
 -2.15088E+04  1.30029E+04 -1.85723E+04 -4.53528E+03  4.44353E+03 -6.95085E+03  2.13588E+04  1.11123E+04
  7.46136E+03  3.32172E+04 -3.04175E+04  3.40307E+04 -6.08655E+04  1.76308E+03 -5.59626E+04 -4.09430E+04
 -1.25677E+04 -6.12617E+04  3.87521E+04 -4.40587E+04  5.54626E+04 -1.99911E+03  3.17558E+04  3.06914E+04
 -5.71136E+03  3.34306E+04 -2.82806E+04  1.32852E+04 -2.82749E+04 -5.21974E+03 -1.47514E+04 -9.75528E+03
 -7.86798E+03 -1.10847E+04 -1.04540E+03 -1.66287E+04  6.29891E+03 -2.27391E+04  1.47197E+04 -1.30662E+04
  1.22759E+04  4.26580E+03 -6.82888E+03  1.27265E+04 -1.92203E+04 -2.12116E+03 -8.25735E+03 -3.07147E+04
  2.09335E+04 -4.07480E+04  4.48301E+04 -1.85121E+04  4.22201E+04  1.83151E+04  1.40785E+04  4.18515E+04
 -1.51232E+04  3.10492E+04 -2.32898E+04  9.22082E+02 -8.33259E+03 -2.67562E+04  2.10292E+04 -3.14297E+04
  3.83762E+04 -7.34114E+03  3.18838E+04  2.24877E+04  1.60148E+04  4.33511E+04 -8.08577E+03  4.59169E+04
 -2.90292E+04  3.03478E+04 -3.82383E+04  8.47104E+03 -3.91343E+04 -1.49583E+04 -2.16087E+04 -3.47157E+04
  6.65495E+03 -3.47851E+04  2.96714E+04 -1.26103E+04  2.72843E+04  1.10707E+04  3.63052E+03  1.80747E+04
 -1.30517E+04  7.49849E+03 -1.01083E+04 -7.40526E+03  6.06200E+03 -9.93696E+03  1.77061E+04  6.76181E+03
  1.21858E+04  2.18558E+04 -6.77938E+03  2.30218E+04 -2.17794E+04  9.33005E+03 -2.52549E+04 -5.99061E+03
 -1.69760E+04 -1.63177E+04 -5.78338E+03 -1.70114E+04  3.72088E+03 -1.44895E+04  1.30751E+04 -1.47944E+04
  2.19186E+04 -1.14915E+04  2.86780E+04  1.41554E+03  2.11506E+04  1.67359E+04  3.87662E+03  3.25109E+04
 -1.66943E+04  2.79028E+04 -2.59939E+04  1.00588E+04 -1.97111E+04 -1.04537E+04 -4.03500E+03 -1.40886E+04
  2.20766E+03 -3.99768E+03 -3.17596E+03  5.61829E+03 -1.36687E+04  5.60479E+03 -1.34900E+04 -5.40468E+03
 -9.25212E+03 -1.58278E+04  4.16170E+03 -2.03166E+04  1.30818E+04 -1.43297E+04  1.56253E+04 -1.28611E+03
  8.92460E+03  1.11317E+04 -1.23926E+03  1.69473E+04 -1.07327E+04  8.83470E+03 -1.57374E+04 -3.68494E+03
 -1.18238E+04 -1.45990E+04 -1.33404E+03 -1.95879E+04  8.52677E+03 -1.57487E+04  1.70169E+04 -7.43008E+03
  1.52077E+04  6.63429E+02  1.04672E+04  3.78790E+03  5.52148E+03  5.60724E+02  7.65817E+03 -1.46047E+03
  1.44105E+04  2.81718E+03  1.52739E+04  1.32497E+04  9.44609E+03  2.58311E+04 -3.06108E+03  2.74801E+04
 -1.72403E+04  2.14983E+04 -2.53722E+04  1.04876E+04 -2.58436E+04 -1.98276E+03 -2.26090E+04 -1.51667E+04
 -1.02917E+04 -2.15805E+04  7.02425E+03 -1.96930E+04  1.78092E+04 -1.07450E+04  1.65096E+04  4.42129E+03
  6.57412E+03  1.21964E+04 -7.36596E+03  1.06106E+04 -1.41296E+04  2.47644E+03 -1.00457E+04 -8.28644E+03
 -3.25707E+02 -1.30804E+04  6.56416E+03 -9.43969E+03  8.37890E+03 -9.26448E+02  1.62214E+03  5.67272E+03
 -5.77858E+03  1.48992E+03 -3.74924E+03 -4.58688E+03  5.35571E+02 -1.12304E+04  8.27254E+03 -1.06545E+04
  1.30670E+04 -4.41120E+03  1.31543E+04  2.84158E+03  1.16668E+04  1.01850E+04  4.89821E+03  1.51277E+04
 -1.57607E+03  1.69626E+04 -1.07933E+04  1.04842E+04 -1.17732E+04  2.76850E+03 -9.05511E+03 -1.59441E+03
 -4.06716E+03 -3.74843E+03 -1.30243E+03  1.52786E+03 -1.76136E+03  2.19775E+03 -4.31386E+03  4.11462E+03
 -8.69248E+03 -6.17568E+02 -9.43265E+03 -7.31367E+03 -3.43515E+03 -1.28212E+04  3.30405E+03 -9.24509E+03
  7.81135E+03 -4.06441E+03  5.41668E+03  2.74525E+03  8.07700E+02  3.17038E+03 -4.49043E+03 -3.11220E+02
 -3.85303E+03 -5.49928E+03 -6.72393E+02 -7.98271E+03  3.82741E+03 -8.68950E+03  1.03344E+04 -4.24376E+03
  1.25847E+04  8.77047E+02  9.36621E+03  6.51512E+03  1.62516E+03  9.47349E+03 -5.66614E+03  9.03311E+03
 -7.25898E+03  2.91338E+03 -3.95868E+03 -1.48730E+03  1.31251E+03 -1.37915E+03  5.22284E+03 -6.28303E+02
  3.90074E+03  3.87689E+03  1.01351E+03  6.54444E+03 -4.55020E+03  6.66780E+03 -8.21936E+03  1.92809E+03
 -4.92715E+03 -3.82264E+03  6.41610E+02 -7.47754E+03  3.66478E+03 -3.44550E+03  4.11049E+03  1.78675E+03
  4.43819E+02  3.59805E+03 -4.31602E+03  5.39003E+03 -5.88825E+03  2.35396E+03 -4.90067E+03 -1.79426E+03
 -3.66527E+03 -6.29193E+03  1.35281E+03 -8.17577E+03  6.72106E+03 -5.00790E+03  7.26494E+03  1.28300E+03
  4.84398E+03  6.02280E+03  3.98541E+02  7.86488E+03 -5.78455E+03  4.90645E+03 -5.98208E+03 -9.12179E+02
 -6.54079E+03 -5.40581E+03 -1.37909E+03 -5.27763E+03  2.84292E+03 -4.67651E+03  3.50583E+03 -2.77970E+03
  3.04252E+03  3.04016E+01 -2.92493E+02  1.72942E+03  5.99166E+02 -1.97927E+02  4.46278E+02 -2.12032E+03
  4.79377E+03 -6.98595E+02  5.79604E+03  1.18092E+03  6.61200E+03  3.33809E+03  5.66846E+03  8.24638E+03
 -1.74360E+03  9.66527E+03 -8.40101E+03  7.02244E+03 -1.08886E+04  1.32012E+03 -8.78557E+03 -3.26892E+03
 -5.02957E+03 -7.58278E+03 -6.94204E+02 -5.65849E+03  2.32338E+03 -2.17596E+03  2.37919E+03 -2.63033E+03
  1.84751E+03 -1.26122E+03  3.03273E+03 -2.77085E+03  3.61186E+03 -1.69510E+03  4.08639E+03  6.32894E+01
  5.01168E+03  1.44615E+03  1.32706E+03  4.15135E+03 -2.00065E+03  3.72322E+03 -4.93643E+03  3.02011E+03
 -5.88083E+03 -8.73415E+02 -2.95637E+03 -4.13550E+03  3.51335E+02 -5.63112E+03  3.60416E+03 -6.15387E+03
  5.95569E+03 -3.73632E+03  7.65623E+03  4.46401E+02  5.94615E+03  5.00204E+03  1.08597E+03  6.69437E+03
 -2.28472E+03  6.02295E+03 -3.27663E+03  2.15860E+03 -2.82906E+03 -8.18093E+02 -9.13005E+02 -7.18098E+02
 -7.84549E+02 -6.12633E+01 -6.53794E+02  2.17258E+03 -3.46080E+03  1.05980E+03 -4.34138E+03 -7.73251E+02
 -1.60363E+03 -4.29693E+03  6.60860E+02 -4.71454E+03  3.52367E+03 -5.15487E+03  4.30709E+03 -1.29296E+03
  4.42010E+03  2.65530E+03  1.99514E+03  3.69868E+03 -9.79731E+02  5.18437E+03 -3.57894E+03  3.00447E+03
 -4.56845E+03  6.42759E+02 -4.28980E+03 -3.65875E+03 -3.67930E+02 -3.92443E+03  2.07899E+03 -3.27549E+03
  2.84937E+03 -1.03696E+03  1.78369E+03  8.44166E+02  5.36613E+02  2.29542E+03  1.23822E+03  5.58421E+02
  1.85511E+03  6.15797E+02  1.67459E+03  8.20781E+02  1.52135E+03  2.59542E+03  2.04411E+03  2.49797E+03
 -1.04614E+03  4.01929E+03 -3.28973E+03  4.55528E+03 -3.23477E+03  1.20540E+03 -4.47005E+03 -3.86770E+02
 -1.97161E+03 -4.44671E+03  7.54844E+02 -5.85264E+03  2.16046E+03 -3.34330E+03  4.10021E+03 -1.57847E+02
  2.48704E+03  9.92394E+02  4.05451E+02  1.94851E+03 -1.13215E+03  1.09957E+03 -1.65690E+03 -4.70732E+02
 -7.01020E+02 -1.58547E+03  1.38476E+03 -2.09857E+03  1.80582E+03 -1.68633E+03  1.32481E+03  4.68948E+02
  1.78357E+03  5.08609E+02  1.35081E+03  3.66746E+00 -5.07469E+02  1.52608E+03  1.58799E+03 -2.32436E+02
  6.08861E+02 -6.58167E+02  2.27420E+03  1.11307E+03  7.40464E+02  2.74534E+03 -1.18664E+02  3.28482E+03
 -1.79416E+03  2.55637E+03 -2.40028E+03  1.98144E+02 -2.63090E+03 -9.55313E+02 -5.00712E+02 -1.55051E+03
  1.42031E+02 -1.87648E+03  1.06606E+03 -7.79273E+02  5.09810E+02  7.43073E+02 -1.01645E+03  1.22506E+03
 -1.38995E+03  1.19163E+03 -1.85212E+03 -1.24766E+03 -1.09233E+03 -2.40634E+03  3.87724E+02 -1.78505E+03
  4.05293E+02 -7.93738E+02  1.32583E+03  1.61246E+02  1.19108E+03  1.42383E+02  4.83922E+01  1.27333E+03
 -8.08155E+02  3.30541E+02 -1.00179E+03 -3.01831E+02  2.38538E+02 -1.08125E+03  2.08750E+03 -1.83672E+03
  1.95380E+03  4.50860E+02  3.00053E+03  6.52513E+02  1.37339E+03  1.67167E+03 -4.87017E+02  2.33370E+03
 -1.80880E+03  5.92705E+02 -2.08861E+03 -5.78862E+02 -1.47196E+03 -1.79500E+03  3.89305E+02 -7.80656E+02
  2.28174E+03 -8.02701E+02  1.33122E+03  1.06114E+03  6.24819E+02  1.46121E+03 -7.91525E+01  1.11204E+03
 -4.05891E+02  1.29072E+03 -5.60723E+02 -1.25976E+02 -5.56755E+00  1.38314E+03 -6.10356E+02  6.05405E+02
 -1.02888E+03  1.11994E+03 -2.19806E+03  8.46398E+02 -2.25119E+03  3.56478E+02 -2.88175E+03 -1.52889E+03
 -1.53997E+03 -2.89538E+03  6.33532E+02 -3.65040E+03  1.75231E+03 -3.28915E+03  3.47567E+03 -6.48629E+02
  3.13937E+03  9.24623E+01  1.82065E+03  1.85117E+03 -6.41103E+02  2.17088E+03 -7.66649E+02  1.84570E+03
 -7.19386E+02  6.82263E+02 -8.95406E+02 -8.18356E+02 -7.60906E+02  2.28125E+02 -7.39248E+02  8.19458E+01
 -8.49879E+02 -5.75978E+02 -5.11179E+02 -5.87406E+01 -2.54868E+02 -9.38759E+02 -5.88546E+02 -9.26128E+02
  1.19808E+03 -1.43230E+03  1.31109E+03  6.05004E+02  2.04388E+03  9.48671E+02 -4.92220E+02  2.00823E+03
 -1.16742E+03  3.36216E+03 -2.21535E+03  1.64280E+03 -2.21612E+03  1.16121E+02 -2.06414E+03 -1.39745E+03
 -6.63320E+02 -1.53925E+03  8.25038E+02 -1.97231E+03  7.24028E+02 -7.79883E+02  6.96147E+02 -1.79373E+02
  1.23386E+03  3.66113E+02  4.35207E+02  9.72040E+02 -5.21812E+02 -7.06291E+02 -3.39205E+02 -1.35075E+02
  7.66195E+02 -4.34478E+02  6.07730E+02  6.78774E+02  1.90661E+02  3.23301E+02 -4.27808E+02  6.33579E+02
 -1.11112E+03  1.26628E+03 -4.32137E+02  6.95087E+01 -1.71463E+03 -7.47665E+02  5.16579E+02 -1.18803E+03
  6.60363E+02 -8.01164E+02  1.07272E+03  2.56094E+02  1.42507E+03 -3.57591E+02  3.10321E+02  1.13366E+03
  6.86492E+02  1.48104E+03 -4.72578E+02  1.27457E+03 -8.63399E+02  1.04303E+03 -9.67972E+02  3.29613E+02
 -1.84631E+02 -2.99900E+02 -7.56222E+02  3.21107E+01 -7.88942E+02  2.51531E+02 -8.06903E+02 -7.96735E+02
 -1.49286E+03  1.53209E+01 -1.16991E+03 -1.53298E+03  1.06910E+03 -1.97890E+03  1.18675E+03 -2.33754E+02
  9.40452E+02  4.99154E+02 -8.48530E+01  1.07561E+03  1.35804E+01  9.27558E+02 -4.76213E+02  1.14228E+03
