 $NMID ID='MM_0lb_SNR400_17hz_g45_74.RAW', FMTDAT='(8E13.5)'
 TRAMP=1., VOLUME=1. $END
  3.09570E+05  1.05907E+02  3.37184E+05  2.50599E+05  8.47453E+04  3.37423E+05 -1.31825E+05  2.50173E+05
 -1.89596E+05  8.27625E+04 -1.10983E+05 -3.25300E+04  1.78477E+03 -5.06373E+04  5.34168E+04 -3.36677E+02
  3.49600E+04  5.32736E+04 -1.70095E+04  7.51409E+04 -5.99175E+04  6.29790E+04 -8.32321E+04  3.20230E+04
 -7.94810E+04 -1.16201E+04 -5.65999E+04 -5.04607E+04 -1.55845E+04 -6.82916E+04  2.72329E+04 -4.48866E+04
  3.99024E+04  3.81409E+03  1.54464E+04  4.72593E+04 -3.40076E+04  4.63666E+04 -6.58399E+04 -1.06159E+03
 -5.24479E+04 -5.60957E+04 -6.72261E+03 -7.55931E+04  3.31544E+04 -5.35923E+04  4.71559E+04 -1.69210E+04
  4.15520E+04  1.13172E+04  3.07295E+04  2.46080E+04  1.58098E+04  2.86877E+04 -4.86106E+03  2.65120E+04
 -2.22005E+04  1.22385E+04 -1.90004E+04 -4.51932E+03  4.68163E+03 -7.57451E+03  2.10601E+04  1.06780E+04
  7.17031E+03  3.42015E+04 -3.08499E+04  3.41722E+04 -6.15110E+04  1.99378E+03 -5.60130E+04 -4.19339E+04
 -1.18762E+04 -6.11667E+04  3.84511E+04 -4.36731E+04  5.62171E+04 -2.05734E+03  3.19568E+04  3.08592E+04
 -6.28021E+03  3.38068E+04 -2.85259E+04  1.37172E+04 -2.79941E+04 -4.83794E+03 -1.52287E+04 -1.07521E+04
 -7.30439E+03 -1.17136E+04 -5.63552E+02 -1.66685E+04  6.56373E+03 -2.23259E+04  1.49003E+04 -1.39448E+04
  1.19640E+04  4.86134E+03 -6.84284E+03  1.27677E+04 -1.97500E+04 -2.88244E+03 -8.13412E+03 -3.12775E+04
  2.14395E+04 -4.16028E+04  4.59281E+04 -1.89373E+04  4.29798E+04  1.85217E+04  1.46376E+04  4.24437E+04
 -1.55729E+04  3.15514E+04 -2.38174E+04  1.74628E+03 -8.66950E+03 -2.67170E+04  2.07818E+04 -3.20416E+04
  3.84956E+04 -8.05369E+03  3.24264E+04  2.25619E+04  1.65727E+04  4.35724E+04 -7.84917E+03  4.64180E+04
 -2.89386E+04  3.02724E+04 -3.89100E+04  8.91536E+03 -3.94716E+04 -1.54823E+04 -2.18254E+04 -3.59691E+04
  7.44603E+03 -3.46264E+04  2.92571E+04 -1.34096E+04  2.69336E+04  1.07308E+04  3.15808E+03  1.83664E+04
 -1.35959E+04  7.40677E+03 -9.93274E+03 -7.86352E+03  6.01810E+03 -1.03131E+04  1.73850E+04  6.30321E+03
  1.27218E+04  2.13610E+04 -6.76101E+03  2.35828E+04 -2.17309E+04  9.69515E+03 -2.56858E+04 -5.60637E+03
 -1.72559E+04 -1.63142E+04 -6.65899E+03 -1.74527E+04  3.91291E+03 -1.61343E+04  1.31650E+04 -1.55847E+04
  2.21654E+04 -1.22372E+04  2.94115E+04  1.52067E+03  2.22296E+04  1.68911E+04  4.41357E+03  3.39225E+04
 -1.64547E+04  2.87382E+04 -2.64111E+04  9.90625E+03 -1.96124E+04 -1.05390E+04 -3.67134E+03 -1.36265E+04
  2.03870E+03 -3.92990E+03 -2.49578E+03  5.84893E+03 -1.39895E+04  4.55930E+03 -1.43354E+04 -5.59511E+03
 -8.64359E+03 -1.65442E+04  4.93985E+03 -2.06187E+04  1.35003E+04 -1.48664E+04  1.58405E+04 -1.38398E+03
  9.82672E+03  1.08073E+04 -7.86462E+02  1.68449E+04 -1.09847E+04  9.88996E+03 -1.60529E+04 -3.66863E+03
 -1.21412E+04 -1.51435E+04 -1.49619E+03 -1.96724E+04  8.69316E+03 -1.63070E+04  1.71465E+04 -7.38526E+03
  1.51001E+04  2.84982E+02  1.08345E+04  3.87315E+03  5.12377E+03  6.71711E+02  7.88392E+03 -1.67926E+03
  1.43990E+04  2.74092E+03  1.57648E+04  1.34350E+04  9.77565E+03  2.62092E+04 -3.02282E+03  2.87057E+04
 -1.70070E+04  2.28785E+04 -2.61106E+04  1.07308E+04 -2.73666E+04 -1.97196E+03 -2.29136E+04 -1.53198E+04
 -1.01894E+04 -2.19052E+04  7.57139E+03 -2.04084E+04  1.81713E+04 -1.13689E+04  1.66857E+04  4.06810E+03
  6.49090E+03  1.21484E+04 -7.53462E+03  1.16125E+04 -1.42273E+04  3.03665E+03 -1.07759E+04 -8.12198E+03
 -3.77126E+02 -1.35284E+04  6.89213E+03 -9.94338E+03  8.04219E+03 -1.30818E+03  1.68762E+03  4.92328E+03
 -4.89350E+03  1.72050E+03 -4.07642E+03 -4.70691E+03  4.17380E+02 -1.16348E+04  8.11405E+03 -1.16346E+04
  1.30841E+04 -5.90528E+03  1.33636E+04  2.73664E+03  1.12830E+04  1.04008E+04  5.47483E+03  1.54726E+04
 -1.48434E+03  1.75144E+04 -1.08603E+04  1.08415E+04 -1.25817E+04  3.34367E+03 -8.93059E+03 -2.61199E+03
 -5.05772E+03 -4.16035E+03 -7.14870E+02  1.79465E+03 -1.52730E+03  2.03641E+03 -4.22866E+03  4.22853E+03
 -8.51017E+03 -3.01823E+02 -9.55188E+03 -7.45980E+03 -3.91498E+03 -1.18691E+04  3.75054E+03 -9.41063E+03
  7.64583E+03 -3.85834E+03  5.28435E+03  2.45825E+03  3.81601E+02  3.09886E+03 -3.61710E+03  2.42738E+02
 -5.08311E+03 -5.98881E+03 -4.38429E+02 -8.21862E+03  4.82793E+03 -9.15702E+03  1.14097E+04 -4.49302E+03
  1.25482E+04  9.77824E+02  9.47852E+03  7.16076E+03  1.58035E+03  9.60217E+03 -5.80239E+03  8.60476E+03
 -7.43124E+03  3.02587E+03 -4.07184E+03 -1.85655E+03  1.40320E+03 -1.81588E+03  5.20657E+03 -7.04558E+02
  3.95085E+03  3.37173E+03  1.39704E+03  6.69539E+03 -4.72489E+03  6.53215E+03 -8.51276E+03  2.27959E+03
 -5.76521E+03 -3.60660E+03 -1.70995E+02 -7.69877E+03  4.07038E+03 -3.12312E+03  4.40651E+03  1.32229E+03
  5.41970E+02  3.92095E+03 -4.29716E+03  5.68283E+03 -5.62067E+03  2.52262E+03 -5.67558E+03 -1.81645E+03
 -2.82007E+03 -7.22159E+03  1.44846E+03 -7.84492E+03  6.87763E+03 -5.41261E+03  7.63016E+03  1.10132E+03
  4.88561E+03  6.13139E+03  7.13467E+02  8.11652E+03 -5.61167E+03  4.90368E+03 -5.36182E+03 -5.83223E+02
 -6.29469E+03 -5.61973E+03 -1.38877E+03 -5.66988E+03  3.36533E+03 -5.02776E+03  3.90916E+03 -2.56932E+03
  2.73888E+03  9.76621E+02  3.71327E+02  1.60357E+03  3.65530E+01 -4.56139E+02  1.90663E+01 -2.69072E+03
  4.22736E+03 -1.48744E+03  6.67048E+03  5.23447E+02  6.55877E+03  4.13396E+03  5.59768E+03  8.73146E+03
 -1.48171E+03  9.60254E+03 -9.11676E+03  8.31987E+03 -1.11836E+04  1.50296E+03 -9.54366E+03 -3.28221E+03
 -5.43928E+03 -7.57136E+03 -1.92365E+02 -5.53457E+03  2.58244E+03 -2.51305E+03  2.20603E+03 -2.22348E+03
  1.34286E+03 -1.44745E+03  2.45168E+03 -2.42545E+03  3.23419E+03 -1.16465E+03  4.36440E+03 -1.67089E+02
  4.52111E+03  1.21748E+03  1.42136E+03  4.39348E+03 -1.01235E+03  3.85566E+03 -5.10681E+03  3.14464E+03
 -5.87234E+03 -6.23748E+02 -2.35115E+03 -3.65174E+03  4.52144E+02 -6.02345E+03  3.77114E+03 -6.44147E+03
  5.95278E+03 -3.30243E+03  8.23304E+03  6.73712E+02  5.78811E+03  5.31504E+03  1.64316E+03  6.76883E+03
 -2.72231E+03  6.30194E+03 -3.13988E+03  2.34606E+03 -2.45098E+03 -1.12226E+03 -1.00959E+03 -5.38954E+02
 -5.11439E+02  8.08350E+02 -8.56676E+02  1.58825E+03 -3.20408E+03  1.40783E+03 -4.35051E+03 -6.27938E+02
 -1.40961E+03 -4.45308E+03  7.51088E+02 -5.11904E+03  3.40764E+03 -5.33697E+03  5.14391E+03 -1.29963E+03
  4.58262E+03  2.64458E+03  2.75185E+03  3.77559E+03 -8.29453E+02  5.27552E+03 -3.83943E+03  3.33242E+03
 -4.87718E+03  1.76335E+03 -4.23606E+03 -3.46608E+03 -3.40991E+02 -4.04095E+03  2.18448E+03 -3.32160E+03
  3.35116E+03 -8.50462E+02  2.23980E+03  4.32873E+02  3.59406E+02  2.30325E+03  7.30531E+02  8.79862E+02
  1.99859E+03  8.04552E+02  1.38983E+03  6.86923E+02  1.40183E+03  2.06878E+03  1.01125E+03  2.08152E+03
 -1.98039E+03  3.81233E+03 -2.83116E+03  4.85541E+03 -4.31849E+03  1.76257E+03 -5.12235E+03 -1.00881E+03
 -2.29987E+03 -4.18267E+03  9.58703E+02 -5.77298E+03  2.77969E+03 -3.10540E+03  3.35584E+03 -6.38336E+02
  3.16874E+03  2.02521E+03  9.31170E+02  2.86416E+03 -8.24700E+02  1.12378E+03 -1.10162E+03 -4.86413E+02
 -2.19801E+02 -2.50146E+03  1.65231E+03 -2.12274E+03  1.20643E+03 -9.45007E+02  1.97163E+03  3.87589E+02
  1.01532E+03  1.02376E+03  7.17764E+02 -2.88015E+01 -2.46821E+02  8.05782E+02  1.42343E+03 -8.15477E+02
  1.63107E+02 -7.20161E+01  2.55769E+03  1.35773E+03  4.67743E+02  3.29968E+03 -5.30054E+02  3.72586E+03
 -2.00148E+03  1.32513E+03 -2.48518E+03  9.40981E+01 -2.67480E+03 -7.71322E+02 -3.46268E+02 -1.91489E+03
  6.30960E+02 -1.64300E+03  8.54183E+02 -9.79854E+02  1.08828E+03  8.78651E+02 -7.98969E+02  1.56792E+03
 -1.52819E+03  7.53630E+02 -1.40246E+03 -1.63549E+03 -3.99497E+02 -2.26308E+03  4.82808E+02 -1.65989E+03
  3.08191E+02 -9.97000E+02  1.33821E+03  3.92559E+02  2.01976E+03  3.72664E+02  3.32208E+02  1.11125E+03
 -1.01189E+03  8.83259E+02 -8.81156E+02 -4.62906E+02  1.30262E+03 -1.20648E+03  1.39878E+03 -9.37305E+02
  1.89937E+03  1.97102E+02  3.24667E+03  1.27166E+03  1.31718E+03  2.48728E+03 -3.51456E+02  2.61161E+03
 -2.08881E+03  2.70796E+02 -1.32017E+03 -3.26843E+02 -1.17960E+03 -2.14461E+03  1.77503E+02 -1.03244E+03
  1.78608E+03 -1.49407E+03  1.74428E+03  8.29879E+02  2.57204E+02  1.66923E+03  4.43597E+02  1.29754E+03
 -3.69045E+02  8.28851E+02 -4.14311E+02 -1.13733E+02  7.28577E+01  1.78425E+02 -1.44850E+03  9.89704E+02
 -5.66111E+02  7.52176E+02 -2.36085E+03  4.90319E+02 -2.38043E+03  3.66263E+02 -2.54031E+03 -1.66443E+03
 -1.28115E+03 -3.35191E+03  7.08892E+02 -3.59393E+03  1.74681E+03 -3.40068E+03  3.54600E+03 -1.36802E+03
  3.23191E+03  1.04820E+02  1.44311E+03  2.38680E+03 -6.88017E+02  2.14913E+03 -1.17579E+03  2.23525E+03
 -9.69435E+02  4.79808E+02 -4.13202E+02 -3.81366E+02 -1.15821E+03 -2.88121E+02 -4.76290E+02 -1.41728E+01
 -9.58892E+02 -2.36897E+02 -1.04761E+03  7.40088E+01  3.27602E+02 -3.61729E+02 -2.57127E+02 -9.29122E+02
  1.18764E+03 -1.04531E+03  7.10892E+02  1.57804E+02  1.47754E+03  1.10182E+03 -2.56680E+02  2.44435E+03
 -1.31777E+03  2.99053E+03 -1.79377E+03  1.05702E+03 -2.51060E+03  5.97956E+01 -2.11014E+03 -1.70838E+03
 -7.15976E+02 -1.96045E+03  5.10830E+02 -1.78604E+03  1.45261E+03 -1.03721E+03  1.02394E+03  4.11116E+02
  9.21929E+02  3.93046E+02 -4.08461E+02  2.80234E+02 -2.31045E+02  7.06541E+02 -4.26015E+01  7.21505E+01
  1.41184E+02  4.78015E+01  5.67700E+02  4.16555E+02  3.06254E+02  8.20782E+02  7.91968E+02  2.38468E+02
 -1.38147E+03  8.66566E+02 -1.16736E+03 -4.66436E+01 -1.21761E+03 -6.27841E+02  1.27697E+02 -1.70653E+03
  8.69920E+02 -1.40406E+03  8.81449E+02  2.15951E+02  1.39848E+03 -5.62992E+02  6.51500E+02  1.10527E+03
 -2.68372E+01  8.04574E+02 -3.21415E+02  1.22084E+03 -6.50182E+02  6.45155E+02 -6.74675E+01  7.37829E+02
 -8.45139E+02  4.83705E+01 -3.58853E+02  1.58983E+02 -9.38895E+02  4.27612E+00 -1.15656E+03 -2.25343E+02
 -1.35984E+03  3.32424E+00 -2.96946E+02 -1.18568E+03  5.86933E+02 -1.93784E+03  1.21712E+03 -5.53731E+02
  1.01840E+03  2.70767E+02 -3.27370E+02  5.45619E+02  6.15173E+01  1.20941E+03 -5.14063E+02  4.85024E+02
