 $NMID ID='MM_0lb_SNR400_20hz_g50_19.RAW', FMTDAT='(8E13.5)'
 TRAMP=1., VOLUME=1. $END
  3.10037E+05  8.92120E+01  3.37143E+05  2.50082E+05  8.47492E+04  3.37222E+05 -1.32546E+05  2.50762E+05
 -1.90294E+05  8.24466E+04 -1.11293E+05 -3.28375E+04  1.65801E+03 -5.03964E+04  5.36344E+04  2.30510E+02
  3.51584E+04  5.26242E+04 -1.71673E+04  7.51234E+04 -6.01831E+04  6.33836E+04 -8.30354E+04  3.13370E+04
 -7.95947E+04 -1.07878E+04 -5.60509E+04 -5.01126E+04 -1.52505E+04 -6.86064E+04  2.65440E+04 -4.49313E+04
  3.85814E+04  4.29658E+03  1.49188E+04  4.64447E+04 -3.42662E+04  4.58899E+04 -6.60728E+04 -3.01315E+02
 -5.19920E+04 -5.60637E+04 -6.47284E+03 -7.56256E+04  3.30892E+04 -5.27955E+04  4.61237E+04 -1.63540E+04
  4.10019E+04  1.15193E+04  3.03453E+04  2.45545E+04  1.58097E+04  2.77390E+04 -4.64392E+03  2.69289E+04
 -2.13712E+04  1.31669E+04 -1.92616E+04 -4.42855E+03  4.33188E+03 -7.25578E+03  2.06863E+04  1.07388E+04
  7.40220E+03  3.30553E+04 -3.05541E+04  3.38377E+04 -6.03339E+04  1.83206E+03 -5.48512E+04 -4.06671E+04
 -1.23381E+04 -6.00752E+04  3.77513E+04 -4.29636E+04  5.46065E+04 -1.71231E+03  3.14004E+04  3.04534E+04
 -6.58452E+03  3.23124E+04 -2.81215E+04  1.26151E+04 -2.68747E+04 -5.68538E+03 -1.40214E+04 -1.03666E+04
 -6.59935E+03 -1.10688E+04 -1.16401E+03 -1.63057E+04  5.93605E+03 -2.25491E+04  1.49137E+04 -1.41377E+04
  1.19762E+04  4.58367E+03 -6.10545E+03  1.32146E+04 -1.87797E+04 -1.97948E+03 -7.99937E+03 -3.00683E+04
  2.04754E+04 -3.99617E+04  4.42735E+04 -1.81036E+04  4.16076E+04  1.79545E+04  1.41709E+04  4.17284E+04
 -1.54538E+04  3.05112E+04 -2.27802E+04  1.33258E+03 -8.16098E+03 -2.61076E+04  2.05376E+04 -3.08393E+04
  3.74612E+04 -7.00617E+03  3.05983E+04  2.30950E+04  1.48415E+04  4.19459E+04 -7.75942E+03  4.45610E+04
 -2.77862E+04  2.90455E+04 -3.64760E+04  8.44625E+03 -3.73259E+04 -1.48224E+04 -2.09696E+04 -3.40849E+04
  6.67509E+03 -3.35542E+04  2.88061E+04 -1.26062E+04  2.59548E+04  1.06005E+04  2.74569E+03  1.70302E+04
 -1.34126E+04  7.25045E+03 -9.18671E+03 -7.08851E+03  5.73964E+03 -1.04154E+04  1.65180E+04  5.96972E+03
  1.26954E+04  2.16075E+04 -6.59901E+03  2.30245E+04 -2.14830E+04  8.38249E+03 -2.45644E+04 -6.42817E+03
 -1.56067E+04 -1.63086E+04 -4.56422E+03 -1.55672E+04  3.51785E+03 -1.35877E+04  1.15869E+04 -1.32716E+04
  2.03432E+04 -1.13788E+04  2.73601E+04  5.94751E+02  2.06216E+04  1.50379E+04  3.83370E+03  3.17143E+04
 -1.54020E+04  2.71366E+04 -2.58329E+04  9.28808E+03 -1.93380E+04 -1.08462E+04 -3.37689E+03 -1.41022E+04
  3.07882E+03 -4.19279E+03 -2.02029E+03  5.34408E+03 -1.19604E+04  5.25758E+03 -1.28348E+04 -4.82101E+03
 -8.59863E+03 -1.48651E+04  4.65556E+03 -1.82499E+04  1.18170E+04 -1.29620E+04  1.31103E+04 -1.43794E+03
  9.17472E+03  1.01698E+04 -9.79874E+02  1.49044E+04 -9.34166E+03  8.70911E+03 -1.44347E+04 -3.13524E+03
 -1.08959E+04 -1.35525E+04 -1.44830E+03 -1.79382E+04  8.00212E+03 -1.45971E+04  1.51099E+04 -6.76249E+03
  1.38806E+04  6.95364E+02  9.84798E+03  4.26841E+03  4.42765E+03  5.92377E+02  6.91857E+03 -9.60091E+02
  1.28811E+04  2.21695E+03  1.38807E+04  1.27304E+04  8.35732E+03  2.34237E+04 -3.22749E+03  2.44339E+04
 -1.52541E+04  1.89021E+04 -2.27987E+04  8.94895E+03 -2.28840E+04 -1.89016E+03 -2.03551E+04 -1.30373E+04
 -9.62765E+03 -1.84712E+04  6.28228E+03 -1.77738E+04  1.50597E+04 -1.08311E+04  1.54225E+04  3.19466E+03
  6.34881E+03  1.01907E+04 -6.60291E+03  9.95553E+03 -1.25072E+04  2.61282E+03 -9.70879E+03 -7.62417E+03
  5.52039E+01 -1.18441E+04  5.95514E+03 -9.00219E+03  7.21886E+03 -1.14458E+03  1.10093E+03  5.00974E+03
 -5.63043E+03  1.17842E+03 -3.14706E+03 -4.67486E+03  1.09787E+03 -9.42936E+03  7.32602E+03 -8.75708E+03
  1.14589E+04 -3.94411E+03  1.05722E+04  3.01975E+03  8.95767E+03  8.93808E+03  3.82976E+03  1.25072E+04
 -1.01766E+03  1.47936E+04 -8.55732E+03  9.09595E+03 -1.05952E+04  2.33668E+03 -7.48792E+03 -1.23531E+03
 -4.39422E+03 -2.96605E+03 -9.76225E+02  1.73923E+03 -1.63692E+03  2.39591E+03 -3.17803E+03  3.64090E+03
 -7.54140E+03 -7.97830E+02 -8.11322E+03 -6.95083E+03 -3.17384E+03 -1.05175E+04  3.02901E+03 -8.05650E+03
  6.84608E+03 -3.81153E+03  4.92565E+03  2.15717E+03  9.96029E+02  2.63597E+03 -2.57249E+03 -2.14710E+02
 -2.99592E+03 -5.01075E+03 -7.49446E+02 -7.24599E+03  3.22707E+03 -6.90923E+03  8.47473E+03 -3.31633E+03
  1.05902E+04 -3.49017E+01  7.88946E+03  5.97166E+03  1.73412E+03  7.61123E+03 -5.00839E+03  7.68194E+03
 -6.40957E+03  2.83237E+03 -3.35164E+03 -9.92708E+02  1.17588E+03 -1.51620E+03  4.01154E+03 -6.04645E+02
  3.84603E+03  3.17441E+03  1.05513E+03  5.66405E+03 -4.56461E+03  5.82860E+03 -7.24549E+03  1.72200E+03
 -4.08284E+03 -3.30696E+03  3.38484E+02 -6.05472E+03  3.94486E+03 -3.14151E+03  3.37644E+03  4.86499E+02
  4.53679E+02  2.56250E+03 -3.46375E+03  4.28726E+03 -4.32223E+03  2.06525E+03 -3.21489E+03 -2.88484E+02
 -2.33098E+03 -5.71960E+03  9.47953E+02 -6.51694E+03  4.84435E+03 -4.27202E+03  5.43171E+03  3.65044E+02
  3.69570E+03  4.46057E+03 -1.90336E+02  6.16598E+03 -4.47908E+03  3.90218E+03 -4.14928E+03  1.29727E+02
 -5.36325E+03 -4.82574E+03 -1.66430E+03 -4.79312E+03  1.63619E+03 -3.98575E+03  2.88923E+03 -2.77945E+03
  2.31023E+03 -1.95979E+02  1.24666E+02  1.24931E+03  1.20201E+03  6.13260E+01 -2.91301E+02 -2.05932E+03
  3.53664E+03 -4.94674E+02  3.80662E+03  5.23652E+02  4.75810E+03  2.02358E+03  4.45538E+03  5.69257E+03
 -1.08917E+03  7.10820E+03 -6.38376E+03  5.65274E+03 -8.42927E+03  1.10746E+03 -6.60294E+03 -1.22723E+03
 -2.89730E+03 -5.62685E+03 -5.08474E+02 -4.55685E+03  1.48370E+03 -1.67871E+03  1.69315E+03 -1.95583E+03
  1.22045E+03 -1.70605E+03  1.63054E+03 -2.19425E+03  3.45420E+03 -1.35576E+03  3.27410E+03  5.84540E+02
  3.95273E+03  6.98162E+02  7.51145E+02  2.51374E+03 -1.45511E+03  1.78881E+03 -3.89828E+03  2.32508E+03
 -4.27883E+03 -1.48203E+03 -1.30346E+03 -2.67364E+03  2.67532E+02 -4.01741E+03  1.96562E+03 -4.58862E+03
  4.27598E+03 -3.11134E+03  5.29131E+03 -2.31975E+02  4.35773E+03  3.51872E+03  1.19630E+03  4.46518E+03
 -2.13210E+03  4.74739E+03 -2.74819E+03  1.63642E+03 -1.61253E+03 -5.64964E+02  1.82359E+02 -6.32714E+02
 -3.57851E+02  9.15118E+02 -3.80243E+01  2.26991E+03 -2.62263E+03  1.21670E+03 -3.82748E+03 -1.50036E+02
 -6.34827E+02 -3.76443E+03  7.06419E+02 -3.40033E+03  2.40552E+03 -3.64304E+03  2.68092E+03 -7.85749E+02
  3.29599E+03  1.88692E+03  1.12343E+03  2.44709E+03 -7.80107E+02  3.58084E+03 -2.12461E+03  2.17869E+03
 -2.87469E+03  5.24997E+02 -2.45752E+03 -2.43442E+03 -1.87271E+02 -2.40068E+03  1.43122E+03 -1.84443E+03
  2.42103E+03 -1.26463E+03  1.69606E+03  8.34552E+02  1.66501E+02  1.66847E+03  8.48805E+02  1.74462E+02
  1.30340E+03  2.74114E+02  1.29500E+03  7.50050E+02  7.60020E+02  2.24743E+03  1.19969E+03  9.96479E+02
 -1.32184E+03  1.90423E+03 -1.71178E+03  3.61439E+03 -1.80463E+03  1.24856E+03 -3.78615E+03 -3.96004E+02
 -1.35731E+03 -3.06283E+03  2.50399E+02 -3.62524E+03  1.49188E+03 -2.48045E+03  2.28421E+03 -1.20576E+03
  1.87994E+03  1.80028E+03  3.99782E+02  1.56606E+03 -8.78233E+01  1.13074E+03 -9.92589E+02  9.77711E+00
 -9.76103E+02 -1.58021E+03  7.49775E+02 -1.13018E+03  9.44970E+02 -8.91373E+02  3.35656E+02  5.19545E+01
  1.13999E+01  3.82624E+02  7.22510E+02 -1.22733E+02 -7.13363E+02  9.95544E+02  1.44568E+03  2.96153E+01
 -2.75824E+02 -5.31302E+02  1.49778E+03  3.93542E+02  5.38925E+02  1.71767E+03 -1.88137E+02  2.19617E+03
 -7.90237E+02  1.23548E+02 -1.66349E+03  2.45437E+02 -1.74247E+03 -5.72634E+02 -2.28071E+02 -1.08200E+03
  4.16474E+02 -8.58301E+02  5.04514E+02 -3.21986E+02  3.84094E+02  1.13968E+03 -5.35868E+02  1.01353E+03
 -1.02614E+03  1.34378E+03 -9.99976E+02 -1.35258E+03 -1.10921E+03 -1.41772E+03 -1.65328E+02 -1.40689E+03
 -1.19075E+02 -1.29618E+02  3.59783E+02 -3.80817E+02  1.40815E+03 -4.56229E+02  4.92947E+02  1.30086E+03
 -3.35861E+01 -7.09160E+02 -5.98036E+02 -1.40764E+02  2.37336E+02 -8.04569E+02  1.71582E+03 -2.05370E+02
  1.16330E+02 -1.34319E+02  2.21458E+03  6.51563E+01  7.90959E+02  4.78548E+02  6.95413E+01  8.28434E+02
 -1.32998E+03  2.59449E+02 -1.52461E+03 -4.83195E+02 -6.58359E+02 -8.13423E+02  1.88936E+01 -1.13246E+02
  1.38825E+03 -1.94467E+02  4.98104E+02  5.15024E+02  4.41897E+02  1.04569E+03  1.99075E+02  5.51395E+02
 -1.07000E+02  7.29814E+02 -7.56201E+02  2.71915E+02  7.02327E+02  3.48040E+02 -9.74065E+02 -3.02110E+01
 -4.09527E+02  1.08326E+03 -1.56342E+03  4.18166E+02 -1.41663E+03 -2.54203E+01 -2.09866E+03 -1.37713E+02
 -1.02229E+03 -1.68906E+03  8.97174E+01 -2.38443E+03  5.11789E+02 -1.34124E+03  2.11082E+03 -7.71484E+02
  1.62884E+03 -5.17648E+02  9.51314E+02  1.03231E+03 -9.34774E+02  1.31706E+03 -3.62437E+02  1.22405E+03
 -1.92551E+02  9.99745E+02 -1.09726E+02 -2.52814E+02 -2.75970E+02  3.13274E+02 -1.07767E+03  3.40001E+02
 -1.29371E+03  4.26024E+02 -7.39537E+02  3.75214E+02 -2.99643E+02 -4.52416E+02  3.77860E+01 -9.49984E+02
  6.66548E+02 -7.04594E+02 -5.69532E+01  2.77442E+02  6.78803E+02  7.58810E+02 -4.51286E+02  8.91947E+02
 -1.10772E+03  1.39722E+03 -1.19952E+03  1.05363E+03 -1.44580E+03 -8.96620E+01 -6.30445E+02 -8.51897E+02
 -8.92567E+02 -8.45442E+02  2.15813E+01 -1.16404E+03  1.10920E+01 -3.13442E+02  4.29873E+02  2.75990E+02
  5.63898E+01  1.51292E+02  6.55472E+01  3.14487E+02 -4.66013E+02 -3.70919E+02  1.79009E+02 -6.18077E+02
  5.96087E+01  4.54690E+02  2.70485E+02  6.50426E+02 -2.68849E+02  4.57287E+02  5.55238E+02 -2.47064E+02
 -4.17340E+02  4.28272E+02 -2.02172E+02  5.70506E+02 -8.26804E+02 -2.00506E+02  9.00683E+01 -7.39248E+02
  3.33894E+02 -7.29465E+02 -2.68095E+02 -5.75162E+01 -4.30528E+01 -8.07249E+02 -3.45225E+02  7.84203E+02
  1.44331E+02  1.28094E+02  1.07507E+02  2.87582E+02 -3.12305E+02  5.85452E+02  1.88633E+02 -4.22097E+01
 -1.48959E+02 -5.89426E+02 -7.26639E+02 -2.37145E+02 -4.14979E+02  2.43616E+02 -6.80404E+01 -4.93573E+02
 -3.79914E+02  2.14850E+02 -3.96236E+02 -7.02072E+02  6.53421E+02 -1.00448E+03  5.20450E+02  1.29378E+01
  7.91207E+02  3.43497E+02 -1.43876E+02  2.78077E+02 -6.76392E+02  3.36113E+02 -8.89481E+00  5.12062E+02
