 $NMID ID='MM_0lb_SNR400_8hz_g55_68.RAW', FMTDAT='(8E13.5)'
 TRAMP=1., VOLUME=1. $END
  3.09889E+05  3.18356E+02  3.38304E+05  2.50282E+05  8.51745E+04  3.38427E+05 -1.32393E+05  2.51506E+05
 -1.90790E+05  8.38191E+04 -1.12572E+05 -3.20316E+04 -3.20202E+02 -5.07349E+04  5.35384E+04 -9.94628E+02
  3.59300E+04  5.42948E+04 -1.62223E+04  7.59852E+04 -6.18979E+04  6.48528E+04 -8.57653E+04  3.23804E+04
 -8.23945E+04 -1.18900E+04 -5.77307E+04 -5.24210E+04 -1.48535E+04 -7.13940E+04  2.76599E+04 -4.71662E+04
  4.12599E+04  3.67936E+03  1.70610E+04  4.90178E+04 -3.44495E+04  4.85635E+04 -6.77761E+04  4.54902E+02
 -5.47387E+04 -5.82273E+04 -7.89762E+03 -7.91897E+04  3.52243E+04 -5.77229E+04  5.02734E+04 -1.87164E+04
  4.65420E+04  1.11739E+04  3.34764E+04  2.71308E+04  1.60691E+04  3.13014E+04 -6.41828E+03  2.80753E+04
 -2.23572E+04  1.22327E+04 -1.80547E+04 -5.25095E+03  7.24614E+03 -7.68100E+03  2.46962E+04  1.37976E+04
  7.75096E+03  3.74765E+04 -3.43063E+04  3.64154E+04 -6.59093E+04  1.41337E+03 -5.90540E+04 -4.44318E+04
 -1.38814E+04 -6.64982E+04  4.31056E+04 -4.76393E+04  6.18247E+04 -2.48165E+03  3.71984E+04  3.55942E+04
 -5.00589E+03  4.00667E+04 -3.27903E+04  1.95975E+04 -3.43555E+04 -3.65913E+03 -2.04895E+04 -1.23778E+04
 -9.12580E+03 -1.66570E+04 -1.01544E+03 -2.03127E+04  9.07564E+03 -2.39719E+04  1.62128E+04 -1.31820E+04
  1.00795E+04  6.35821E+03 -1.14300E+04  1.25901E+04 -2.30845E+04 -6.10115E+03 -8.28400E+03 -3.78359E+04
  2.50471E+04 -4.80742E+04  5.25814E+04 -2.16060E+04  4.97179E+04  2.07714E+04  1.71048E+04  4.82089E+04
 -1.69379E+04  3.75814E+04 -2.83649E+04  3.47066E+03 -1.17904E+04 -2.94990E+04  2.18300E+04 -3.79161E+04
  4.59929E+04 -1.15435E+04  4.20765E+04  2.48567E+04  2.20236E+04  5.20414E+04 -7.59719E+03  5.76977E+04
 -3.71818E+04  3.89067E+04 -4.87631E+04  1.19082E+04 -4.82848E+04 -1.93218E+04 -2.69830E+04 -4.28141E+04
  7.64810E+03 -4.29887E+04  3.54399E+04 -1.71913E+04  3.24923E+04  1.14810E+04  5.29877E+03  2.10752E+04
 -1.34043E+04  1.03894E+04 -1.12197E+04 -8.42673E+03  5.50824E+03 -1.14900E+04  1.92161E+04  5.45104E+03
  1.49837E+04  2.22600E+04 -5.43109E+03  2.75987E+04 -2.35129E+04  1.43426E+04 -3.30784E+04 -2.97513E+03
 -2.60371E+04 -1.89252E+04 -1.28472E+04 -2.56581E+04  4.96459E+03 -2.69241E+04  2.17785E+04 -2.45150E+04
  3.46638E+04 -1.42353E+04  3.97439E+04  5.49755E+03  2.78417E+04  2.48227E+04  4.43000E+03  4.30172E+04
 -2.05660E+04  3.47884E+04 -3.14158E+04  1.10895E+04 -2.21716E+04 -1.10587E+04 -4.75019E+03 -1.25512E+04
  9.10378E+02 -4.74337E+02 -8.08156E+03  8.51271E+03 -2.11839E+04  5.37753E+03 -2.04400E+04 -1.03858E+04
 -1.26394E+04 -2.45538E+04  6.29053E+03 -3.01035E+04  1.99514E+04 -2.12839E+04  2.48755E+04 -1.64239E+03
  1.52132E+04  1.76054E+04 -1.18592E+03  2.40980E+04 -1.75060E+04  1.46845E+04 -2.50391E+04 -4.27434E+03
 -1.85581E+04 -2.19568E+04 -2.22960E+03 -2.91765E+04  1.37296E+04 -2.38935E+04  2.42758E+04 -1.21527E+04
  2.31028E+04 -8.00491E+02  1.62376E+04  5.20466E+03  9.63426E+03  2.28774E+03  1.32150E+04 -2.35252E+03
  2.28455E+04  2.40498E+03  2.74817E+04  1.92560E+04  1.91459E+04  4.02425E+04 -1.99673E+03  4.70757E+04
 -2.72861E+04  3.97580E+04 -4.55461E+04  2.07725E+04 -4.86448E+04 -3.33607E+03 -3.82040E+04 -2.79120E+04
 -1.47159E+04 -4.09416E+04  1.40483E+04 -3.52810E+04  3.04041E+04 -1.53989E+04  2.59943E+04  8.92503E+03
  8.39921E+03  2.01826E+04 -1.23391E+04  1.61777E+04 -2.12983E+04  2.37119E+03 -1.67081E+04 -1.35586E+04
  6.70340E+01 -2.10671E+04  1.16426E+04 -1.47875E+04  1.41389E+04 -9.59463E+02  3.41468E+03  9.69208E+03
 -9.85613E+03  4.34000E+03 -1.01700E+04 -8.04026E+03 -1.12894E+03 -2.00981E+04  1.23586E+04 -2.14947E+04
  2.52650E+04 -1.26567E+04  2.88033E+04  3.73941E+03  2.50663E+04  2.11793E+04  1.18091E+04  3.19411E+04
 -6.67045E+03  3.37473E+04 -2.29622E+04  2.10867E+04 -2.53218E+04  3.82128E+03 -1.68825E+04 -6.66729E+03
 -6.37947E+03 -7.68205E+03 -3.31927E+02 -2.77594E+02 -2.86516E+03  3.53943E+03 -8.85811E+03  6.28030E+03
 -1.60693E+04  6.35629E+01 -1.52144E+04 -1.29331E+04 -6.28629E+03 -2.03206E+04  7.77117E+03 -1.65022E+04
  1.29709E+04 -7.17380E+03  9.97054E+03  4.16836E+03 -6.72841E+02  5.97057E+03 -9.26895E+03 -1.78981E+02
 -8.59150E+03 -1.15301E+04 -2.32927E+03 -1.69129E+04  9.51128E+03 -1.74166E+04  2.21109E+04 -9.73631E+03
  2.56108E+04  2.75403E+03  1.89388E+04  1.64703E+04  3.30104E+03  2.17989E+04 -1.05140E+04  1.60225E+04
 -1.47528E+04  4.62684E+03 -6.54950E+03 -3.66810E+03  2.51617E+03 -4.29567E+03  8.61457E+03 -8.26413E+02
  8.13872E+03  7.95601E+03  1.43271E+03  1.35325E+04 -1.00923E+04  1.37908E+04 -1.72068E+04  3.67174E+03
 -1.25761E+04 -8.50661E+03  9.02450E+01 -1.48482E+04  9.31531E+03 -7.62718E+03  1.08637E+04  3.98224E+03
  3.30187E+03  1.16760E+04 -9.16054E+03  1.25283E+04 -1.48418E+04  5.66165E+03 -1.61900E+04 -5.66079E+03
 -8.95958E+03 -1.90570E+04  4.76070E+03 -1.96345E+04  1.77763E+04 -1.30346E+04  1.91497E+04  3.14170E+03
  1.08783E+04  1.52288E+04 -2.16667E+03  1.77286E+04 -1.32544E+04  1.01072E+04 -1.48183E+04 -2.22202E+03
 -1.08789E+04 -1.25247E+04 -1.95298E+03 -1.35517E+04  8.48237E+03 -1.00145E+04  8.64305E+03 -3.38385E+03
  5.38141E+03  2.87659E+03 -1.87782E+03  1.41714E+03 -7.36904E+02 -4.47102E+03  3.30530E+03 -8.60228E+03
  1.24179E+04 -6.24533E+03  1.83123E+04  2.17380E+03  1.81352E+04  1.38179E+04  1.15074E+04  2.38336E+04
 -5.47690E+03  2.71119E+04 -2.14903E+04  2.05328E+04 -2.96053E+04  3.28512E+03 -2.35119E+04 -9.55445E+03
 -1.15385E+04 -1.92366E+04  3.22855E+02 -1.64596E+04  5.99636E+03 -9.81693E+03  5.58954E+03 -5.98558E+03
  4.05559E+03 -2.77712E+03  5.14034E+03 -3.23284E+03  6.30298E+03 -4.60251E+03  8.46455E+03 -1.16774E+03
  1.14821E+04  2.38061E+03  7.10714E+03  1.15336E+04 -2.62118E+03  1.41262E+04 -1.33775E+04  1.04074E+04
 -1.59269E+04 -1.54681E+03 -1.09318E+04 -1.27341E+04 -1.17460E+03 -1.78096E+04  1.06564E+04 -1.75225E+04
  1.92206E+04 -9.78264E+03  2.29875E+04  2.70590E+03  1.52213E+04  1.61719E+04  2.42400E+03  1.96725E+04
 -7.48143E+03  1.72737E+04 -1.08247E+04  5.25013E+03 -8.49331E+03 -3.34081E+03 -3.14104E+03 -3.42642E+03
 -2.11605E+03 -8.82062E+02 -2.75646E+03  3.06042E+03 -6.05565E+03  2.45501E+03 -1.16905E+04 -1.00661E+03
 -8.77686E+03 -1.18310E+04 -4.98074E+02 -1.70944E+04  1.04696E+04 -1.55052E+04  1.73836E+04 -5.23241E+03
  1.69232E+04  8.05954E+03  7.57771E+03  1.58341E+04 -3.64186E+03  1.86120E+04 -1.30646E+04  1.12735E+04
 -1.61715E+04  4.22062E+02 -1.30681E+04 -1.07534E+04 -1.71598E+03 -1.51266E+04  7.21520E+03 -1.13340E+04
  1.05365E+04 -3.47553E+03  7.09044E+03  2.52127E+03  2.95368E+03  4.36862E+03  1.53369E+03  2.34975E+03
  3.40645E+03  1.62473E+03  3.90822E+03  2.15991E+03  4.96866E+03  6.07440E+03  4.79679E+03  9.25821E+03
 -3.90764E+03  1.42667E+04 -1.26001E+04  1.32849E+04 -1.88405E+04  3.72148E+03 -1.84961E+04 -9.07229E+03
 -8.50479E+03 -1.73058E+04  2.87810E+03 -1.92938E+04  1.10084E+04 -1.19769E+04  1.50531E+04 -3.52974E+03
  1.14797E+04  7.27175E+03  2.86605E+03  1.03412E+04 -4.38145E+03  6.63394E+03 -6.48112E+03 -6.80484E+02
 -3.92386E+03 -7.62384E+03  4.49738E+03 -7.67147E+03  8.15134E+03 -4.83613E+03  7.14462E+03  1.55756E+03
  4.29347E+03  4.21111E+03  1.62541E+03  2.94324E+03 -1.15335E+03  2.55222E+03  1.66054E+03 -9.55164E+02
  3.02146E+03 -9.14831E+02  7.17484E+03  2.62306E+03  3.80691E+03  1.02364E+04 -1.59216E+03  1.27213E+04
 -8.35162E+03  8.16203E+03 -1.17306E+04  2.54262E+03 -1.02726E+04 -3.47794E+03 -4.73525E+03 -7.73945E+03
  1.01816E+03 -7.10440E+03  5.49057E+03 -3.85254E+03  3.84121E+03  3.14074E+03 -1.86105E+03  6.91506E+03
 -7.80349E+03  3.03878E+03 -8.93636E+03 -4.40156E+03 -4.66045E+03 -1.01782E+04  1.79406E+03 -8.86042E+03
  5.71239E+03 -5.91836E+03  7.83520E+03  3.70735E+01  6.08246E+03  2.61157E+03  3.36879E+02  5.18236E+03
 -3.36660E+03  1.37029E+03 -4.53423E+03 -3.58461E+03  9.08762E+02 -8.61121E+03  9.23366E+03 -6.69774E+03
  1.17548E+04  1.24263E+03  1.11385E+04  8.29281E+03  3.71696E+03  1.19173E+04 -4.84502E+03  1.17093E+04
 -9.85818E+03  4.93688E+03 -1.08817E+04 -1.57426E+03 -5.12047E+03 -7.87612E+03  2.02170E+03 -6.69419E+03
  7.18023E+03 -3.54769E+03  6.45911E+03  3.52354E+03  2.17287E+03  5.96642E+03 -1.00048E+03  6.31069E+03
 -2.87662E+03  3.42548E+03 -3.30545E+03  4.75709E+02 -1.97938E+03 -1.02267E+02 -1.97090E+03  2.14113E+03
 -3.11636E+03  5.49600E+03 -8.71680E+03  5.00653E+03 -1.24938E+04 -9.46767E+00 -1.32592E+04 -8.07556E+03
 -6.95994E+03 -1.59599E+04  3.07880E+03 -1.87769E+04  1.26917E+04 -1.50682E+04  1.72266E+04 -6.61105E+03
  1.67760E+04  3.81544E+03  1.05033E+04  1.15562E+04  1.42575E+03  1.26554E+04 -5.23609E+03  9.56494E+03
 -7.27073E+03  3.89525E+03 -4.35734E+03 -2.53339E+03 -1.25203E+03 -2.25393E+03 -1.58872E+03 -1.91878E+02
 -2.54133E+03  1.07126E+03 -2.08561E+03 -6.95365E+02 -9.06517E+02 -3.82581E+03  7.35259E+02 -4.41167E+03
  6.02614E+03 -4.11914E+03  6.91262E+03  3.40384E+02  8.95229E+03  7.31242E+03  3.68114E+03  1.27940E+04
 -6.08513E+03  1.48026E+04 -1.46362E+04  8.41307E+03 -1.58029E+04 -1.59288E+03 -1.15646E+04 -9.72945E+03
 -5.33050E+03 -1.33608E+04  3.15042E+03 -1.26389E+04  8.47840E+03 -6.60112E+03  9.15250E+03 -7.55278E+02
  4.57190E+03  4.94399E+03 -5.42627E+02  3.87002E+03 -2.58686E+03  3.67879E+02  9.10081E+02 -3.01644E+03
  4.78555E+03 -1.97497E+03  5.63874E+03  2.28990E+03  3.30667E+03  5.21353E+03 -7.95379E+01  6.79926E+03
 -6.06321E+03  6.03245E+03 -8.76005E+03  4.07461E+02 -8.37410E+03 -6.20052E+03 -1.19298E+03 -1.10296E+04
  5.82286E+03 -9.64771E+03  1.05636E+04 -2.43796E+03  1.08114E+04  2.78829E+03  5.97769E+03  8.74494E+03
  1.26542E+03  9.11390E+03 -3.83134E+03  7.76769E+03 -5.79875E+03  3.16548E+03 -4.49798E+03  5.33593E+02
 -1.99176E+03  1.94102E+02 -1.93358E+03  1.90310E+03 -5.15329E+03  2.03773E+03 -6.81608E+03 -1.36374E+03
 -6.65282E+03 -4.40297E+03 -1.52432E+03 -9.99590E+03  3.26791E+03 -9.68043E+03  7.75774E+03 -4.76202E+03
  9.00097E+03  5.34021E+02  5.41741E+03  6.20810E+03 -1.54423E+03  8.66772E+03 -7.83812E+03  4.93675E+03
