 $NMID ID='MM_0lb_SNR400_19hz_g50_2.RAW', FMTDAT='(8E13.5)'
 TRAMP=1., VOLUME=1. $END
  3.10041E+05  1.36092E+02  3.37627E+05  2.49986E+05  8.38461E+04  3.38066E+05 -1.32719E+05  2.50333E+05
 -1.90181E+05  8.26084E+04 -1.11627E+05 -3.29359E+04  1.53658E+03 -4.99257E+04  5.39777E+04  3.05692E+02
  3.49347E+04  5.27214E+04 -1.69865E+04  7.51763E+04 -6.03709E+04  6.30595E+04 -8.32044E+04  3.12072E+04
 -8.04508E+04 -1.12544E+04 -5.60871E+04 -5.07082E+04 -1.52489E+04 -6.85099E+04  2.69263E+04 -4.48301E+04
  3.90400E+04  3.47787E+03  1.50102E+04  4.70769E+04 -3.43432E+04  4.67580E+04 -6.52949E+04 -7.29654E+02
 -5.20125E+04 -5.60632E+04 -6.02396E+03 -7.55140E+04  3.30108E+04 -5.34529E+04  4.65942E+04 -1.61909E+04
  4.20990E+04  1.13601E+04  3.13206E+04  2.44544E+04  1.59118E+04  2.87229E+04 -4.56278E+03  2.63344E+04
 -2.15617E+04  1.27261E+04 -1.92873E+04 -4.29031E+03  4.19477E+03 -7.75408E+03  2.18305E+04  1.07790E+04
  7.20339E+03  3.31322E+04 -3.01568E+04  3.35542E+04 -6.14385E+04  2.33972E+03 -5.53517E+04 -4.13654E+04
 -1.26953E+04 -6.06883E+04  3.79435E+04 -4.37391E+04  5.53617E+04 -1.42249E+03  3.20294E+04  3.04665E+04
 -6.46937E+03  3.30141E+04 -2.87028E+04  1.33392E+04 -2.74749E+04 -5.26283E+03 -1.45097E+04 -1.04374E+04
 -7.42070E+03 -1.14808E+04 -8.61355E+02 -1.64150E+04  6.45138E+03 -2.23242E+04  1.50013E+04 -1.35117E+04
  1.17777E+04  4.83891E+03 -6.24047E+03  1.31889E+04 -1.99510E+04 -2.52116E+03 -7.83867E+03 -3.04727E+04
  2.05909E+04 -4.05462E+04  4.47239E+04 -1.83092E+04  4.24417E+04  1.81022E+04  1.45242E+04  4.15766E+04
 -1.50952E+04  3.11989E+04 -2.33542E+04  1.62545E+03 -8.28061E+03 -2.66650E+04  2.05549E+04 -3.10698E+04
  3.82952E+04 -7.70941E+03  3.12982E+04  2.30759E+04  1.56762E+04  4.22406E+04 -8.06703E+03  4.55509E+04
 -2.87483E+04  2.98833E+04 -3.73974E+04  8.48434E+03 -3.79970E+04 -1.50776E+04 -2.15134E+04 -3.41663E+04
  6.54061E+03 -3.39600E+04  2.94353E+04 -1.28510E+04  2.68220E+04  1.09236E+04  2.78061E+03  1.73970E+04
 -1.26917E+04  7.69200E+03 -9.77511E+03 -7.43726E+03  6.17539E+03 -1.07853E+04  1.74162E+04  6.08624E+03
  1.22984E+04  2.17706E+04 -6.64061E+03  2.31355E+04 -2.14089E+04  9.43507E+03 -2.47799E+04 -6.47698E+03
 -1.69731E+04 -1.64247E+04 -6.06228E+03 -1.67994E+04  3.12460E+03 -1.44857E+04  1.22518E+04 -1.42713E+04
  2.11282E+04 -1.19033E+04  2.78045E+04  1.01522E+03  2.17235E+04  1.63829E+04  4.01476E+03  3.22228E+04
 -1.57482E+04  2.79238E+04 -2.62417E+04  9.67469E+03 -1.93346E+04 -9.78896E+03 -4.24783E+03 -1.41161E+04
  2.73325E+03 -4.39372E+03 -2.84999E+03  5.50208E+03 -1.30033E+04  5.99056E+03 -1.33738E+04 -4.97689E+03
 -8.77778E+03 -1.49303E+04  4.42006E+03 -1.94587E+04  1.27484E+04 -1.30895E+04  1.38444E+04 -1.30203E+03
  9.28240E+03  1.05226E+04 -1.01081E+03  1.56857E+04 -1.00997E+04  8.43976E+03 -1.45557E+04 -3.55339E+03
 -1.17990E+04 -1.36453E+04 -1.16511E+03 -1.91540E+04  8.54452E+03 -1.52607E+04  1.59852E+04 -6.80654E+03
  1.42096E+04  5.76070E+02  9.93354E+03  3.76080E+03  4.59631E+03  4.16131E+02  7.34503E+03 -1.60388E+03
  1.35698E+04  2.77836E+03  1.45537E+04  1.26765E+04  9.22609E+03  2.46857E+04 -3.26948E+03  2.59730E+04
 -1.60782E+04  2.02309E+04 -2.38939E+04  9.29643E+03 -2.46171E+04 -2.09629E+03 -2.14906E+04 -1.38890E+04
 -1.02460E+04 -2.02622E+04  6.04617E+03 -1.91427E+04  1.64406E+04 -1.08606E+04  1.52440E+04  3.90027E+03
  6.23740E+03  1.12858E+04 -6.61496E+03  1.03256E+04 -1.30135E+04  2.69188E+03 -1.07077E+04 -7.99157E+03
 -4.59009E+02 -1.24452E+04  6.40528E+03 -9.60483E+03  7.89535E+03 -1.73200E+03  1.17442E+03  5.13166E+03
 -5.33886E+03  1.07176E+03 -3.08509E+03 -4.33141E+03  9.27156E+02 -1.01410E+04  8.21587E+03 -9.76823E+03
  1.18205E+04 -4.66938E+03  1.15079E+04  2.63293E+03  1.04254E+04  9.16437E+03  5.11330E+03  1.37354E+04
 -1.91197E+03  1.55132E+04 -9.54614E+03  9.92245E+03 -1.12504E+04  3.03337E+03 -8.30979E+03 -1.61397E+03
 -4.62986E+03 -3.18355E+03 -6.32932E+02  1.57997E+03 -2.32152E+03  1.38073E+03 -3.34121E+03  3.60970E+03
 -7.66705E+03 -5.63397E+02 -8.50265E+03 -6.64874E+03 -3.64848E+03 -1.17529E+04  3.33901E+03 -8.35934E+03
  6.88450E+03 -3.27812E+03  5.28295E+03  1.75119E+03  4.03421E+02  2.85871E+03 -3.10238E+03 -4.39015E+02
 -3.42835E+03 -5.13874E+03 -2.92838E+02 -7.57904E+03  4.82473E+03 -7.78128E+03  9.41726E+03 -3.98985E+03
  1.16869E+04  8.42209E+02  9.07475E+03  5.95539E+03  1.35152E+03  8.70832E+03 -4.67088E+03  7.91196E+03
 -7.23773E+03  2.68488E+03 -3.34603E+03 -1.10915E+03  8.91494E+02 -1.90812E+03  4.63542E+03 -1.46881E+03
  3.88317E+03  3.47607E+03  1.32134E+03  6.61676E+03 -4.56837E+03  6.54479E+03 -7.88093E+03  2.24643E+03
 -4.76889E+03 -3.39072E+03  4.77292E+02 -6.31845E+03  3.93818E+03 -2.86669E+03  3.74200E+03  1.53516E+03
  1.66542E+01  3.05029E+03 -4.10510E+03  4.51566E+03 -4.50019E+03  2.39704E+03 -4.14484E+03 -1.13853E+03
 -2.97976E+03 -5.35696E+03  1.19460E+03 -6.75145E+03  6.18339E+03 -4.54176E+03  5.95287E+03  8.40031E+02
  3.95791E+03  5.09433E+03  1.32585E+02  6.69482E+03 -5.10803E+03  3.76930E+03 -4.64610E+03 -1.92355E+02
 -5.56066E+03 -4.99434E+03 -1.10482E+03 -5.04859E+03  2.31771E+03 -5.02118E+03  2.53632E+03 -3.32821E+03
  2.69456E+03  2.63174E+02  9.71281E+02  8.67259E+02  8.13179E+02 -3.30037E+02 -9.70233E+01 -1.73835E+03
  3.68266E+03 -1.09557E+03  4.88584E+03  7.86642E+02  4.74549E+03  2.61723E+03  5.16436E+03  6.98850E+03
 -1.10860E+03  8.45873E+03 -7.66157E+03  5.58206E+03 -9.46972E+03  1.23984E+03 -7.55019E+03 -2.32160E+03
 -3.59367E+03 -6.18782E+03 -2.65914E+02 -5.13032E+03  1.98713E+03 -1.97064E+03  1.30024E+03 -2.21084E+03
  1.28249E+03 -9.81585E+02  2.03419E+03 -2.64618E+03  3.31258E+03 -1.86227E+03  3.44371E+03  3.74375E+02
  4.47118E+03  1.00078E+03  7.70482E+02  2.70697E+03 -1.43397E+03  3.29534E+03 -3.66186E+03  2.44118E+03
 -4.98196E+03 -1.17520E+03 -1.58486E+03 -2.85026E+03  1.23050E+02 -4.22639E+03  2.88325E+03 -4.81873E+03
  4.71898E+03 -3.11449E+03  6.30599E+03  3.99005E+02  5.18760E+03  4.27024E+03  8.87022E+02  5.59869E+03
 -1.89773E+03  6.04548E+03 -2.95272E+03  1.55342E+03 -1.69677E+03 -8.02647E+02 -7.43536E+02 -4.36901E+02
 -7.42779E+02  3.74664E+02 -9.12288E+02  2.21242E+03 -2.35017E+03  4.26993E+02 -3.59183E+03 -7.06276E+01
 -1.42645E+03 -3.95744E+03  1.39696E+03 -4.63046E+03  1.95739E+03 -3.74322E+03  3.47757E+03 -1.37136E+03
  4.02749E+03  2.06434E+03  1.50511E+03  3.07330E+03 -8.21898E+02  4.44835E+03 -2.05417E+03  2.11553E+03
 -3.18997E+03  5.32384E+02 -3.14971E+03 -2.32032E+03  2.18005E+02 -2.67131E+03  5.75742E+02 -2.36100E+03
  2.41083E+03 -1.04915E+03  1.59516E+03 -1.45246E+02  2.31266E+02  1.20722E+03  9.91760E+02  1.07005E+03
  1.60602E+03  3.21978E+02  9.22460E+02  1.56005E+03  1.07397E+03  2.06084E+03  9.90674E+02  1.88336E+03
 -1.12481E+03  2.88265E+03 -2.56729E+03  3.63343E+03 -2.63651E+03  1.25177E+03 -4.34003E+03 -3.73473E+02
 -1.24391E+03 -3.67135E+03  4.32602E+02 -4.87382E+03  1.86478E+03 -2.06785E+03  2.52049E+03 -1.35935E+03
  2.48021E+03  1.81199E+03  6.44801E+02  1.91220E+03 -8.34431E+02  6.97769E+02 -4.54653E+02  2.73565E+02
 -5.00336E+02 -1.52330E+03  1.15894E+03 -1.50700E+03  1.30413E+03 -1.21707E+03  9.96219E+02 -1.10418E+02
  1.05297E+03  3.03728E+02  7.81187E+02 -8.51714E+01 -6.64742E+02  9.24338E+02  1.81128E+03 -3.94143E+01
  3.74897E+02 -2.25887E+02  1.90881E+03  9.09918E+02 -4.09266E+01  2.16136E+03 -2.88149E+02  2.63386E+03
 -1.33693E+03  8.79903E+02 -1.71969E+03  2.53797E+02 -2.11231E+03 -7.09455E+02 -1.67145E+01 -1.29481E+03
  5.66643E+02 -3.53984E+02  1.04323E+03 -9.53305E+02  8.17297E+02  9.79233E+02 -1.05283E+03  1.12262E+03
 -1.35295E+03  3.86964E+02 -4.36526E+02 -1.30157E+03 -3.61768E+02 -1.64011E+03  3.18223E+02 -1.16087E+03
  3.80154E+02 -1.04664E+01  7.06846E+02  4.01576E+02  9.11305E+02 -3.67058E+02  4.57972E+02  1.21629E+03
  1.81154E+02  1.99786E+02 -1.06920E+03 -4.24757E+02  5.85452E+02 -1.06704E+03  1.48918E+03 -2.63240E+02
  3.64063E+02  2.21205E+02  2.35515E+03  5.54640E+02  1.54624E+03  1.81231E+03 -1.97696E+02  1.15008E+03
 -1.31310E+03  1.37124E+02 -1.20077E+03 -2.87376E+02 -7.94983E+02 -9.69877E+02  3.77037E+02 -5.43942E+02
  1.51525E+03 -4.82817E+02  6.29257E+02  2.76711E+02  5.41840E+02  1.49338E+03  9.52024E+02  1.60852E+03
  5.16609E+01  1.52151E+03 -7.76603E+02  1.31826E+02  2.58516E+02 -5.01184E+01 -5.28046E+02  9.85811E+02
 -3.43684E+02  7.49868E+02 -1.68156E+03  4.18303E+02 -1.49292E+03  3.17587E+02 -1.75233E+03 -6.11685E+02
 -5.12130E+02 -1.87976E+03  7.36755E+02 -2.14703E+03  5.04995E+02 -2.33207E+03  2.70012E+03 -9.79302E+02
  2.02389E+03 -4.40680E+02  9.61315E+02  8.46280E+02 -1.04741E+03  1.43316E+03 -5.07481E+02  1.14180E+03
 -8.68616E+02  5.76119E+02 -5.13705E+02  2.66508E+02 -3.83869E+02  1.59778E+00 -5.92932E+02 -3.20131E+01
 -1.84730E+03 -1.89284E+02 -5.49368E+02 -5.61209E+01  6.62026E+02 -2.54096E+02 -4.51065E+02 -5.96284E+02
  8.59202E+02 -4.38094E+02 -4.03687E+02 -3.99314E+01  1.11950E+03  4.02758E+02 -1.66518E+02  1.16937E+03
 -5.35609E+02  2.21843E+03 -1.49408E+03  1.30052E+03 -9.33352E+02 -8.57040E+02 -1.40621E+03 -1.46536E+03
 -1.06489E+03 -1.43522E+03 -9.04781E+01 -2.22109E+02  3.49951E+02 -4.88294E+02  7.38425E+02  5.58154E+02
  3.79301E+02  2.88700E+01 -6.78120E+01  4.84468E+02 -4.95535E+02  1.19800E+02  2.14125E+02 -4.06760E+01
  9.75558E+01  2.46275E+02  4.22434E+02  4.62505E+02 -2.07137E+02  4.33061E+02  7.83239E+02  2.27701E+02
 -7.90285E+02  6.38687E+02 -3.45619E+02  1.81599E+02 -8.44758E+02  4.38119E+01  3.82161E+02 -8.64210E+02
  7.90819E+02 -3.99901E+02  8.37249E+02 -3.09049E+02  9.84964E+02 -7.81703E+02  1.67479E+02  3.73414E+02
  4.73639E+02  1.07594E+02 -6.84309E+00  5.34449E+02 -1.15167E+02  6.81504E+02 -7.69908E+01 -1.59738E+00
 -1.40064E+02 -1.94940E+02 -4.14461E+02 -7.76090E+01 -5.32807E+02 -3.04962E+02 -9.57177E+02 -5.64433E+02
 -9.70590E+02  7.58308E+01 -2.30903E+02 -1.19432E+03  5.69172E+02 -1.93618E+03  3.99537E+02 -2.15931E+02
  8.05263E+02  4.30497E+02 -5.57733E+01 -9.56959E+01 -1.90329E+01  3.64867E+02 -4.15883E+02  8.15303E+02
