 $NMID ID='MM_0lb_SNR400_11hz_g55_38.RAW', FMTDAT='(8E13.5)'
 TRAMP=1., VOLUME=1. $END
  3.09613E+05 -2.30814E+01  3.37960E+05  2.50744E+05  8.52882E+04  3.38566E+05 -1.33480E+05  2.51829E+05
 -1.91060E+05  8.29368E+04 -1.12024E+05 -3.18467E+04  4.74026E+02 -5.11014E+04  5.27585E+04 -9.54154E+02
  3.49280E+04  5.31704E+04 -1.63097E+04  7.55632E+04 -6.06996E+04  6.47466E+04 -8.51511E+04  3.22103E+04
 -8.20310E+04 -1.17417E+04 -5.81440E+04 -5.24669E+04 -1.46102E+04 -7.10591E+04  2.79693E+04 -4.63072E+04
  4.13757E+04  4.66010E+03  1.62129E+04  4.82682E+04 -3.46239E+04  4.77563E+04 -6.85394E+04 -4.88610E+02
 -5.44258E+04 -5.71118E+04 -7.35434E+03 -7.85690E+04  3.37728E+04 -5.64815E+04  4.92604E+04 -1.79704E+04
  4.52450E+04  1.09582E+04  3.21544E+04  2.67642E+04  1.54724E+04  3.06263E+04 -5.83117E+03  2.77104E+04
 -2.24277E+04  1.26097E+04 -1.84375E+04 -5.97120E+03  6.27838E+03 -7.87217E+03  2.32914E+04  1.33795E+04
  6.86020E+03  3.73881E+04 -3.33967E+04  3.65983E+04 -6.48424E+04  2.03918E+03 -5.79521E+04 -4.35603E+04
 -1.24068E+04 -6.49032E+04  4.12811E+04 -4.61787E+04  6.06184E+04 -2.58987E+03  3.60782E+04  3.32025E+04
 -6.08009E+03  3.87462E+04 -3.19636E+04  1.76316E+04 -3.24914E+04 -3.99017E+03 -1.88865E+04 -1.15542E+04
 -9.89459E+03 -1.45771E+04 -8.99868E+02 -1.93762E+04  8.24475E+03 -2.34490E+04  1.50525E+04 -1.23493E+04
  9.92416E+03  6.26106E+03 -9.91715E+03  1.24044E+04 -2.29774E+04 -5.88224E+03 -8.15808E+03 -3.59662E+04
  2.45240E+04 -4.55674E+04  5.07124E+04 -2.03444E+04  4.72679E+04  2.03877E+04  1.73160E+04  4.66192E+04
 -1.64876E+04  3.51279E+04 -2.77708E+04  1.57897E+03 -1.15194E+04 -2.84788E+04  2.13916E+04 -3.59914E+04
  4.41644E+04 -1.05297E+04  3.92854E+04  2.43697E+04  2.13226E+04  4.92532E+04 -7.93456E+03  5.49711E+04
 -3.47479E+04  3.69412E+04 -4.54375E+04  1.11392E+04 -4.62746E+04 -1.81931E+04 -2.54322E+04 -4.05705E+04
  7.37916E+03 -4.12691E+04  3.37848E+04 -1.64607E+04  3.10313E+04  1.07737E+04  4.71434E+03  2.07609E+04
 -1.37105E+04  8.94461E+03 -1.13710E+04 -6.98771E+03  5.39823E+03 -1.12951E+04  1.85111E+04  5.88971E+03
  1.39146E+04  2.19884E+04 -6.32529E+03  2.66377E+04 -2.34642E+04  1.37257E+04 -3.03278E+04 -3.19261E+03
 -2.35015E+04 -1.79906E+04 -1.07059E+04 -2.40517E+04  4.82507E+03 -2.38504E+04  1.83312E+04 -2.14815E+04
  3.03389E+04 -1.33551E+04  3.64994E+04  3.75133E+03  2.61185E+04  2.31699E+04  3.66874E+03  4.06639E+04
 -1.90995E+04  3.28208E+04 -2.95936E+04  1.14673E+04 -2.17538E+04 -9.91561E+03 -4.38065E+03 -1.29980E+04
  7.54522E+02 -1.80908E+03 -6.81499E+03  8.47990E+03 -1.87749E+04  4.40226E+03 -1.93778E+04 -8.46119E+03
 -1.07830E+04 -2.17811E+04  6.41446E+03 -2.74046E+04  1.72108E+04 -1.89989E+04  2.19253E+04 -1.46655E+03
  1.41126E+04  1.46267E+04 -5.14707E+02  2.22678E+04 -1.58953E+04  1.31065E+04 -2.27049E+04 -4.59495E+03
 -1.53962E+04 -1.91267E+04 -1.80468E+03 -2.58564E+04  1.25316E+04 -2.14819E+04  2.15857E+04 -1.08436E+04
  2.01291E+04  1.67805E+02  1.52106E+04  5.31667E+03  8.22996E+03  1.22358E+03  1.16542E+04 -1.97306E+03
  2.07658E+04  3.28817E+03  2.37439E+04  1.71727E+04  1.64213E+04  3.57613E+04 -3.24539E+03  4.14312E+04
 -2.38178E+04  3.38032E+04 -3.83712E+04  1.73325E+04 -4.03918E+04 -2.55529E+03 -3.35587E+04 -2.45439E+04
 -1.41355E+04 -3.45159E+04  1.15239E+04 -2.95392E+04  2.58944E+04 -1.48120E+04  2.19353E+04  6.87978E+03
  7.70447E+03  1.76452E+04 -1.02826E+04  1.48232E+04 -1.98171E+04  3.05346E+03 -1.45513E+04 -1.12726E+04
  2.09015E+01 -1.82872E+04  9.12915E+03 -1.32767E+04  1.26364E+04 -1.76823E+03  2.96666E+03  8.39208E+03
 -8.17914E+03  3.15083E+03 -7.29737E+03 -5.38365E+03 -1.17311E+03 -1.71072E+04  1.09853E+04 -1.78718E+04
  2.04659E+04 -9.64057E+03  2.34785E+04  3.45478E+03  2.08933E+04  1.64207E+04  9.54730E+03  2.63154E+04
 -4.85481E+03  2.79191E+04 -1.89472E+04  1.73593E+04 -2.03777E+04  3.88585E+03 -1.41554E+04 -5.04084E+03
 -6.21786E+03 -6.73681E+03 -3.06875E+02  7.10775E+02 -3.00701E+03  3.30079E+03 -7.03403E+03  4.84630E+03
 -1.34281E+04 -8.06630E+02 -1.37475E+04 -1.04977E+04 -5.80093E+03 -1.84661E+04  6.28059E+03 -1.41845E+04
  1.14912E+04 -5.80432E+03  8.06875E+03  3.87687E+03 -2.76559E+02  5.70976E+03 -7.01021E+03  4.60061E+02
 -6.25040E+03 -9.75483E+03 -1.28381E+03 -1.33024E+04  8.02930E+03 -1.43746E+04  1.81092E+04 -7.33117E+03
  2.14766E+04  2.40259E+03  1.59482E+04  1.28399E+04  3.07310E+03  1.74231E+04 -9.17263E+03  1.36837E+04
 -1.18552E+04  4.15655E+03 -5.97100E+03 -2.92335E+03  2.43204E+03 -4.01744E+03  7.21183E+03 -8.53638E+02
  6.77776E+03  6.52270E+03  1.48206E+03  1.13795E+04 -8.33124E+03  1.07322E+04 -1.42816E+04  2.59017E+03
 -9.26972E+03 -7.13788E+03  4.94761E+02 -1.20992E+04  8.59970E+03 -6.31681E+03  8.90426E+03  2.24917E+03
  1.94392E+03  8.96303E+03 -7.45427E+03  1.01840E+04 -1.17067E+04  4.85104E+03 -1.17810E+04 -3.75348E+03
 -6.67575E+03 -1.37366E+04  3.04540E+03 -1.65362E+04  1.33581E+04 -9.32642E+03  1.38361E+04  2.35806E+03
  8.26923E+03  1.19727E+04 -1.09860E+03  1.32192E+04 -1.04496E+04  8.01706E+03 -1.15853E+04 -1.69226E+03
 -1.00608E+04 -9.82802E+03 -1.86804E+03 -1.06605E+04  5.66896E+03 -8.50362E+03  6.31443E+03 -3.02699E+03
  4.08823E+03  1.96724E+03 -1.22080E+03  1.37829E+03 -9.71183E+02 -2.12276E+03  2.11015E+03 -6.12385E+03
  9.47950E+03 -4.76764E+03  1.35075E+04  1.56194E+03  1.35001E+04  8.95831E+03  8.61168E+03  1.73866E+04
 -3.76966E+03  2.01186E+04 -1.71507E+04  1.56685E+04 -2.26290E+04  3.00087E+03 -1.81463E+04 -7.71998E+03
 -8.77493E+03 -1.51940E+04 -7.85210E+01 -1.23882E+04  4.57570E+03 -7.15227E+03  4.11074E+03 -4.03423E+03
  3.05514E+03 -2.25665E+03  3.49683E+03 -2.87089E+03  4.85063E+03 -2.88979E+03  7.56373E+03 -6.30453E+02
  9.45523E+03  2.22671E+03  4.64287E+03  8.28666E+03 -2.19809E+03  9.34566E+03 -9.77647E+03  7.67902E+03
 -1.18291E+04 -1.16550E+03 -7.43433E+03 -8.44046E+03 -1.08089E+03 -1.38134E+04  7.24824E+03 -1.34268E+04
  1.39290E+04 -7.55623E+03  1.63215E+04  2.44030E+03  1.12665E+04  1.21497E+04  1.71437E+03  1.52892E+04
 -6.89331E+03  1.30448E+04 -8.46368E+03  4.99017E+03 -5.83210E+03 -1.07257E+03 -2.75926E+03 -2.51232E+03
 -5.61569E+02  4.24805E+02 -2.01503E+03  3.02657E+03 -4.74142E+03  2.33113E+03 -8.84602E+03 -1.25057E+03
 -5.92118E+03 -8.58889E+03  4.23400E+01 -1.21215E+04  7.45651E+03 -1.15021E+04  1.23344E+04 -3.39164E+03
  1.23813E+04  5.82048E+03  5.25692E+03  1.04813E+04 -2.50694E+03  1.23894E+04 -8.20711E+03  7.29309E+03
 -1.17580E+04  7.20503E+02 -8.96739E+03 -7.07139E+03 -1.18986E+03 -9.64774E+03  5.55172E+03 -7.79304E+03
  7.29412E+03 -2.79176E+03  5.48197E+03  1.84505E+03  2.11349E+03  3.28967E+03  1.10438E+03  1.32002E+03
  2.87446E+03  6.85932E+02  2.84711E+03  1.81621E+03  3.75526E+03  5.09204E+03  3.80060E+03  5.65280E+03
 -2.32106E+03  9.29090E+03 -8.13513E+03  9.12305E+03 -1.20861E+04  2.18817E+03 -1.30170E+04 -4.92145E+03
 -5.55416E+03 -1.27264E+04  1.84478E+03 -1.34503E+04  7.01271E+03 -9.11786E+03  1.04079E+04 -2.35526E+03
  7.97100E+03  4.64464E+03  1.56577E+03  6.96009E+03 -3.76464E+03  4.13039E+03 -3.93790E+03 -7.46437E+02
 -2.27716E+03 -4.95404E+03  3.09169E+03 -5.70321E+03  5.27471E+03 -2.95080E+03  4.75288E+03 -1.72660E+02
  3.25247E+03  2.19592E+03  1.04863E+03  2.44875E+03 -1.47299E+03  1.34612E+03  1.78670E+03 -1.00593E+03
  1.58947E+03 -2.95933E+02  5.80325E+03  2.08438E+03  2.45192E+03  6.35248E+03 -9.52432E+02  8.98607E+03
 -4.76487E+03  5.39228E+03 -7.31201E+03  1.87341E+03 -6.85965E+03 -2.95627E+03 -3.02117E+03 -4.11955E+03
  1.79330E+02 -4.79526E+03  3.57543E+03 -2.69034E+03  3.06289E+03  2.20705E+03 -9.01931E+02  4.52827E+03
 -4.29447E+03  2.51619E+03 -5.98614E+03 -3.15783E+03 -3.37535E+03 -6.39551E+03  3.67064E+02 -5.92334E+03
  4.01599E+03 -3.46469E+03  4.80270E+03  7.91158E+01  4.12752E+03  7.23505E+02  7.78655E+02  3.64110E+03
 -2.12164E+03  1.02963E+03 -3.45553E+03 -2.31106E+03  1.17528E+03 -4.70108E+03  6.12572E+03 -3.54491E+03
  6.75960E+03  7.46088E+02  7.51791E+03  5.15033E+03  2.35849E+03  7.40761E+03 -2.21204E+03  6.30589E+03
 -6.26841E+03  3.63025E+03 -6.12719E+03 -6.50540E+02 -3.53231E+03 -5.43837E+03  1.36215E+03 -5.50788E+03
  4.78090E+03 -2.72208E+03  3.58609E+03  1.95946E+03  1.49120E+03  4.16342E+03 -6.77530E+02  4.17558E+03
 -1.59189E+03  2.38031E+03 -1.74573E+03  9.58635E+02 -3.30261E+02  7.59081E+02 -1.39245E+03  1.11595E+03
 -2.29566E+03  3.01323E+03 -5.47001E+03  1.94007E+03 -7.42801E+03  2.66630E+02 -8.64146E+03 -4.40411E+03
 -4.10403E+03 -1.03715E+04  1.71942E+03 -1.20379E+04  7.38744E+03 -9.31460E+03  1.02516E+04 -3.57853E+03
  1.03642E+04  1.81722E+03  6.15326E+03  6.57059E+03  1.05826E+03  8.05237E+03 -3.60171E+03  5.71025E+03
 -4.22895E+03  3.29006E+03 -2.20607E+03 -1.51587E+03 -9.37286E+02 -1.41313E+03 -3.20011E+02  1.46036E+02
 -2.28508E+03  6.84323E+01 -1.79607E+03 -2.60184E+02 -4.61584E+02 -1.53032E+03 -3.20988E+02 -2.53763E+03
  3.41655E+03 -2.83900E+03  4.04282E+03  1.15683E+02  4.91661E+03  4.30224E+03  1.39518E+03  7.91471E+03
 -3.50469E+03  8.70288E+03 -7.81200E+03  5.06627E+03 -8.85810E+03 -8.79150E+02 -6.58868E+03 -5.33195E+03
 -2.94800E+03 -7.13635E+03  1.85926E+03 -6.94396E+03  5.40671E+03 -3.87552E+03  4.43854E+03  2.14601E+02
  2.64262E+03  2.99594E+03  4.16125E+02  2.28581E+03 -1.26059E+03 -1.00803E+03 -4.47705E+02 -1.57722E+03
  1.73412E+03 -8.41459E+02  2.68173E+03  7.68204E+02  2.05278E+03  3.59123E+03  4.85345E+02  3.73370E+03
 -3.26729E+03  3.12568E+03 -5.49910E+03 -5.72030E+01 -4.40008E+03 -3.42137E+03 -4.90485E+02 -5.87610E+03
  3.57799E+03 -4.62796E+03  6.10717E+03 -1.91604E+03  5.51601E+03  9.80533E+02  3.15585E+03  4.33272E+03
  3.80980E+02  4.46472E+03 -1.91790E+03  3.71559E+03 -3.60632E+03  2.68770E+03 -1.55341E+03 -2.48073E+02
 -1.96797E+03 -6.47118E+02 -1.37981E+03  6.95579E+02 -2.86027E+03  8.79289E+02 -3.78957E+03 -1.68175E+03
 -3.20156E+03 -2.69494E+03 -3.35650E+02 -5.40990E+03  3.20730E+03 -4.94668E+03  4.78780E+03 -2.35281E+03
  4.90690E+03  1.58661E+03  2.30191E+03  3.31257E+03  3.04620E+02  4.64599E+03 -3.29522E+03  3.17791E+03
