 $NMID ID='MM_0lb_SNR400_9hz_g40_19.RAW', FMTDAT='(8E13.5)'
 TRAMP=1., VOLUME=1. $END
  3.09439E+05  5.71043E+02  3.37993E+05  2.50848E+05  8.47030E+04  3.38747E+05 -1.32943E+05  2.52044E+05
 -1.91047E+05  8.44093E+04 -1.12575E+05 -3.26986E+04  7.71409E+02 -5.11167E+04  5.37942E+04 -3.79430E+02
  3.55273E+04  5.35099E+04 -1.64239E+04  7.60486E+04 -6.15639E+04  6.37838E+04 -8.42227E+04  3.29520E+04
 -8.14740E+04 -1.17841E+04 -5.81989E+04 -5.23838E+04 -1.43989E+04 -7.04429E+04  2.77834E+04 -4.68743E+04
  4.05931E+04  3.79280E+03  1.65327E+04  4.69706E+04 -3.49057E+04  4.75883E+04 -6.82351E+04  2.41536E+01
 -5.44392E+04 -5.82273E+04 -6.54440E+03 -7.85844E+04  3.37420E+04 -5.59254E+04  4.91905E+04 -1.77304E+04
  4.47042E+04  1.19451E+04  3.22346E+04  2.62108E+04  1.65985E+04  3.02364E+04 -5.97815E+03  2.73721E+04
 -2.26343E+04  1.14236E+04 -1.83560E+04 -6.07026E+03  7.03131E+03 -7.22049E+03  2.33376E+04  1.34026E+04
  6.94129E+03  3.74801E+04 -3.28851E+04  3.67444E+04 -6.50669E+04  2.12590E+03 -5.80083E+04 -4.38820E+04
 -1.31806E+04 -6.55045E+04  4.06051E+04 -4.60253E+04  6.08052E+04 -2.52564E+03  3.56454E+04  3.43250E+04
 -5.46678E+03  3.86932E+04 -3.21032E+04  1.84047E+04 -3.32782E+04 -3.60444E+03 -1.85708E+04 -1.16641E+04
 -9.01850E+03 -1.37212E+04 -1.12803E+03 -1.97191E+04  8.08108E+03 -2.32438E+04  1.61720E+04 -1.24153E+04
  1.03658E+04  5.49253E+03 -1.03120E+04  1.24710E+04 -2.26535E+04 -6.14663E+03 -8.09675E+03 -3.67984E+04
  2.44532E+04 -4.60362E+04  5.09576E+04 -2.15618E+04  4.90783E+04  2.03302E+04  1.69591E+04  4.67575E+04
 -1.68780E+04  3.53973E+04 -2.70119E+04  2.69654E+03 -1.14541E+04 -2.92939E+04  2.10138E+04 -3.65957E+04
  4.28595E+04 -1.05942E+04  4.02547E+04  2.49004E+04  2.15117E+04  5.02247E+04 -8.68833E+03  5.45984E+04
 -3.47138E+04  3.81817E+04 -4.67701E+04  1.10566E+04 -4.72083E+04 -1.77389E+04 -2.61693E+04 -4.09525E+04
  8.00641E+03 -4.14713E+04  3.27309E+04 -1.74616E+04  3.15670E+04  1.12469E+04  5.12299E+03  1.98878E+04
 -1.34636E+04  9.62726E+03 -1.13247E+04 -7.35319E+03  5.68759E+03 -1.11996E+04  1.84631E+04  4.72891E+03
  1.48014E+04  2.29403E+04 -5.77778E+03  2.69266E+04 -2.33625E+04  1.33524E+04 -3.06673E+04 -3.38318E+03
 -2.41798E+04 -1.82257E+04 -1.03813E+04 -2.45777E+04  3.85632E+03 -2.42361E+04  1.88108E+04 -2.25667E+04
  3.08423E+04 -1.40373E+04  3.68839E+04  4.41912E+03  2.60981E+04  2.33050E+04  4.52088E+03  4.03344E+04
 -1.92872E+04  3.24769E+04 -3.02980E+04  1.12735E+04 -2.18041E+04 -1.04639E+04 -4.67675E+03 -1.28379E+04
  1.70799E+03 -1.43694E+03 -8.44235E+03  8.19687E+03 -2.03108E+04  4.93701E+03 -1.85670E+04 -9.24314E+03
 -1.17679E+04 -2.22637E+04  6.07606E+03 -2.67705E+04  1.82058E+04 -1.99058E+04  2.10201E+04 -1.98638E+03
  1.37811E+04  1.54399E+04 -1.41413E+03  2.26540E+04 -1.61414E+04  1.29918E+04 -2.29631E+04 -4.67638E+03
 -1.62730E+04 -2.02278E+04 -2.65820E+03 -2.68027E+04  1.20172E+04 -2.35856E+04  2.24252E+04 -1.16179E+04
  2.11062E+04 -1.88995E+02  1.56622E+04  4.97479E+03  8.48663E+03  1.74970E+03  1.15546E+04 -1.52883E+03
  2.16744E+04  3.33221E+03  2.43325E+04  1.75950E+04  1.62979E+04  3.63374E+04 -2.49400E+03  4.24828E+04
 -2.50778E+04  3.53813E+04 -4.03353E+04  1.83945E+04 -4.25355E+04 -3.14750E+03 -3.45120E+04 -2.47333E+04
 -1.35606E+04 -3.58430E+04  1.32018E+04 -3.16309E+04  2.66861E+04 -1.54417E+04  2.33271E+04  7.51279E+03
  8.38559E+03  1.75883E+04 -1.17798E+04  1.53100E+04 -1.85256E+04  2.15356E+03 -1.44487E+04 -1.25202E+04
 -2.86605E+02 -1.87353E+04  1.00402E+04 -1.29491E+04  1.28803E+04 -1.65303E+03  2.98296E+03  8.48912E+03
 -8.27156E+03  3.53214E+03 -9.12383E+03 -6.18786E+03 -1.69877E+03 -1.67339E+04  1.14376E+04 -1.98998E+04
  2.16476E+04 -1.00437E+04  2.49069E+04  2.87616E+03  2.19987E+04  1.76229E+04  1.00257E+04  2.83095E+04
 -5.27881E+03  3.05514E+04 -1.89542E+04  1.90566E+04 -2.26687E+04  3.80469E+03 -1.47328E+04 -5.79669E+03
 -5.69442E+03 -6.54249E+03 -5.29501E+02  5.38874E+02 -3.29597E+03  3.13013E+03 -7.11190E+03  5.06547E+03
 -1.35158E+04 -1.45635E+03 -1.46815E+04 -1.20601E+04 -5.38060E+03 -1.82590E+04  6.47114E+03 -1.47072E+04
  1.22577E+04 -5.96637E+03  8.34309E+03  4.37130E+03  3.32103E+02  6.04893E+03 -7.64610E+03 -2.87864E+02
 -7.22459E+03 -8.71065E+03 -6.78420E+02 -1.52724E+04  8.35383E+03 -1.46098E+04  1.86278E+04 -7.62788E+03
  2.28618E+04  2.16915E+03  1.63333E+04  1.32068E+04  2.55389E+03  1.81277E+04 -8.93573E+03  1.47856E+04
 -1.11419E+04  4.14455E+03 -6.35304E+03 -3.59516E+03  1.99160E+03 -3.81377E+03  8.49496E+03 -1.43540E+03
  7.32090E+03  6.83377E+03  1.59795E+03  1.22446E+04 -9.37226E+03  1.21019E+04 -1.49145E+04  2.72658E+03
 -1.02979E+04 -7.55280E+03 -5.01870E+02 -1.28517E+04  8.60676E+03 -6.59715E+03  8.77842E+03  3.26285E+03
  2.12805E+03  9.40262E+03 -7.33283E+03  1.08360E+04 -1.26320E+04  5.42082E+03 -1.29482E+04 -4.66886E+03
 -7.68769E+03 -1.42807E+04  4.14493E+03 -1.77606E+04  1.46684E+04 -1.06988E+04  1.53600E+04  2.58165E+03
  9.73730E+03  1.27684E+04 -1.39540E+03  1.55279E+04 -1.11342E+04  8.42769E+03 -1.21425E+04 -1.49802E+03
 -1.02675E+04 -9.19142E+03 -2.15999E+03 -1.11617E+04  6.19352E+03 -8.59486E+03  7.95048E+03 -3.48087E+03
  4.52750E+03  1.54812E+03 -1.77234E+01  2.01886E+03 -9.71342E+02 -2.21878E+03  1.72344E+03 -6.91407E+03
  1.02120E+04 -5.24194E+03  1.53631E+04  1.23655E+03  1.51289E+04  1.05082E+04  1.01633E+04  2.00364E+04
 -4.13200E+03  2.20591E+04 -1.83982E+04  1.75618E+04 -2.51140E+04  3.70806E+03 -1.95898E+04 -8.81538E+03
 -9.36507E+03 -1.55221E+04 -4.06642E+02 -1.35592E+04  4.70067E+03 -7.97260E+03  4.80380E+03 -5.20060E+03
  4.02870E+03 -2.69881E+03  4.15190E+03 -3.34838E+03  6.00243E+03 -3.15660E+03  6.87676E+03 -1.10971E+03
  1.08415E+04  2.29513E+03  5.94271E+03  8.25330E+03 -1.86657E+03  1.00331E+04 -1.07918E+04  8.52749E+03
 -1.37657E+04 -1.20097E+03 -8.82879E+03 -9.07433E+03 -1.52350E+03 -1.45790E+04  8.75176E+03 -1.49460E+04
  1.55145E+04 -7.56123E+03  1.87605E+04  2.34574E+03  1.31708E+04  1.25154E+04  1.60041E+03  1.64723E+04
 -7.17201E+03  1.39207E+04 -9.90405E+03  5.46567E+03 -6.90675E+03 -1.14793E+03 -3.10730E+03 -2.12193E+03
 -1.57880E+03 -2.49492E+01 -1.85410E+03  2.91590E+03 -5.52707E+03  2.04978E+03 -9.14793E+03 -2.47582E+03
 -6.59549E+03 -9.66088E+03  2.19155E+02 -1.38287E+04  8.76429E+03 -1.30950E+04  1.36980E+04 -3.89806E+03
  1.35011E+04  6.01355E+03  6.59326E+03  1.29954E+04 -2.77950E+03  1.44820E+04 -1.00334E+04  8.40141E+03
 -1.33165E+04  4.64745E+02 -1.01401E+04 -8.15319E+03 -1.35886E+03 -1.08097E+04  5.73144E+03 -8.31739E+03
  8.51008E+03 -2.87687E+03  5.84515E+03  2.71863E+03  1.36983E+03  3.84986E+03  6.39136E+02  1.37308E+03
  3.10876E+03  2.01909E+03  3.40392E+03  1.67225E+03  3.86094E+03  4.72671E+03  2.91088E+03  7.69753E+03
 -3.25732E+03  1.06033E+04 -9.59103E+03  1.13481E+04 -1.43291E+04  3.20167E+03 -1.37485E+04 -6.50192E+03
 -6.36556E+03 -1.42578E+04  2.17777E+03 -1.52929E+04  8.48493E+03 -1.02892E+04  1.08319E+04 -2.68923E+03
  9.21897E+03  4.99211E+03  2.24776E+03  7.83385E+03 -3.75990E+03  5.28369E+03 -6.32662E+03 -9.18162E+02
 -2.26856E+03 -4.86747E+03  3.18840E+03 -6.73542E+03  5.99307E+03 -2.87581E+03  5.84856E+03  2.43304E+03
  3.74289E+03  2.75337E+03  1.57502E+03  1.93430E+03 -6.09292E+02  3.06851E+03  1.70047E+03 -7.22645E+02
  2.21649E+03 -5.42485E+02  5.51288E+03  2.27030E+03  3.16126E+03  7.32641E+03 -9.76463E+02  1.02537E+04
 -6.70815E+03  6.32244E+03 -9.41110E+03  1.84070E+03 -8.72848E+03 -2.89724E+03 -3.35260E+03 -6.03032E+03
  2.89163E+02 -5.75471E+03  3.75276E+03 -2.77794E+03  2.71223E+03  2.24335E+03 -7.71079E+02  4.49230E+03
 -4.94581E+03  2.38736E+03 -5.79838E+03 -3.61973E+03 -4.00178E+03 -7.21969E+03  1.38017E+03 -7.78544E+03
  4.15468E+03 -4.40994E+03  6.07069E+03 -5.62158E+02  4.98725E+03  1.11259E+03  4.08308E+02  3.48441E+03
 -2.58431E+03  7.42021E+02 -3.63314E+03 -2.96369E+03  1.37694E+03 -6.08595E+03  8.23352E+03 -4.61856E+03
  8.77148E+03  8.82515E+02  8.40944E+03  6.48817E+03  3.15387E+03  9.58467E+03 -3.29225E+03  8.66295E+03
 -8.00479E+03  4.45926E+03 -7.49604E+03 -7.80941E+02 -4.32923E+03 -6.17129E+03  2.53319E+02 -4.81226E+03
  5.92661E+03 -3.63244E+03  4.58249E+03  2.11788E+03  1.75981E+03  5.68479E+03 -4.54000E+02  4.12407E+03
 -1.94536E+03  2.15835E+03 -2.07278E+03  1.57460E+03 -1.27161E+03  1.12341E+03 -2.25285E+03  2.50765E+03
 -2.21970E+03  3.40759E+03 -6.64550E+03  3.70575E+03 -8.43390E+03 -1.60208E+02 -9.97711E+03 -6.62698E+03
 -5.48791E+03 -1.27244E+04  1.72449E+03 -1.44738E+04  7.92752E+03 -1.02692E+04  1.37215E+04 -5.01765E+03
  1.20868E+04  2.65074E+03  8.35899E+03  8.19971E+03  1.41968E+03  9.76459E+03 -3.66421E+03  6.93982E+03
 -5.12250E+03  3.16140E+03 -3.40786E+03 -1.88317E+03 -1.43144E+03 -8.00598E+02 -8.14876E+02  8.19676E+01
 -2.45628E+03  4.00181E+02 -2.34793E+03 -1.03471E+03  1.94382E+02 -2.11269E+03  1.42635E+02 -3.52588E+03
  3.80669E+03 -4.05576E+03  6.60194E+03  4.17521E+02  6.84484E+03  5.58167E+03  1.22992E+03  9.32495E+03
 -4.09889E+03  1.11958E+04 -1.04481E+04  6.49872E+03 -1.20264E+04 -8.03436E+02 -8.81630E+03 -7.60274E+03
 -3.83742E+03 -1.03450E+04  2.64165E+03 -9.33935E+03  6.03888E+03 -5.52749E+03  6.23330E+03 -2.44127E+02
  3.41908E+03  3.25784E+03 -6.66798E+02  2.78684E+03 -2.55371E+03  3.11290E+02  1.94681E+02 -1.83168E+03
  2.31160E+03 -1.77697E+03  4.06203E+03  1.17092E+03  1.51525E+03  4.40370E+03  8.79141E+02  5.22538E+03
 -3.50531E+03  5.42104E+03 -6.74831E+03  2.77966E+02 -5.60783E+03 -5.11753E+03 -1.60717E+03 -8.37352E+03
  4.27963E+03 -6.00928E+03  6.92091E+03 -1.47331E+03  7.44189E+03  1.22358E+03  3.73714E+03  5.90586E+03
  6.34947E+02  7.04659E+03 -2.73719E+03  5.52247E+03 -3.89492E+03  2.73110E+03 -3.42222E+03  2.69418E+02
 -1.89996E+03 -4.02557E+02 -2.68509E+03  4.50822E+02 -3.22121E+03  1.20054E+03 -5.07242E+03 -7.45571E+02
 -5.70620E+03 -3.33103E+03 -1.37618E+03 -6.94928E+03  3.12969E+03 -7.00868E+03  6.22402E+03 -2.42415E+03
  7.11870E+03  7.13229E+02  3.45358E+03  5.39927E+03 -6.88098E+02  7.14414E+03 -5.42364E+03  3.98182E+03
