 $NMID ID='MM_0lb_SNR400_9hz_g55_18.RAW', FMTDAT='(8E13.5)'
 TRAMP=1., VOLUME=1. $END
  3.09568E+05  3.05006E+02  3.37599E+05  2.51069E+05  8.43261E+04  3.39230E+05 -1.32713E+05  2.51707E+05
 -1.90677E+05  8.42439E+04 -1.12838E+05 -3.26680E+04  1.18806E+02 -5.08526E+04  5.45101E+04  2.55594E+02
  3.59523E+04  5.27765E+04 -1.61991E+04  7.69557E+04 -6.13046E+04  6.50865E+04 -8.56435E+04  3.27715E+04
 -8.25681E+04 -1.15832E+04 -5.84035E+04 -5.28222E+04 -1.44590E+04 -7.14990E+04  2.85652E+04 -4.73537E+04
  4.08731E+04  4.20095E+03  1.71291E+04  4.90345E+04 -3.51633E+04  4.80917E+04 -6.76188E+04  5.39313E+02
 -5.51701E+04 -5.83551E+04 -7.28253E+03 -7.99011E+04  3.53438E+04 -5.73627E+04  5.10060E+04 -1.84990E+04
  4.54425E+04  1.09803E+04  3.34220E+04  2.68004E+04  1.55788E+04  3.12470E+04 -6.31653E+03  2.85738E+04
 -2.16377E+04  1.24244E+04 -1.83659E+04 -5.61078E+03  6.22580E+03 -7.33460E+03  2.35659E+04  1.33313E+04
  6.94746E+03  3.81154E+04 -3.40958E+04  3.69677E+04 -6.62566E+04  2.52248E+03 -5.91785E+04 -4.56063E+04
 -1.31885E+04 -6.64123E+04  4.15772E+04 -4.78412E+04  6.18490E+04 -2.51819E+03  3.70337E+04  3.46023E+04
 -6.50016E+03  4.02708E+04 -3.13732E+04  1.99945E+04 -3.40494E+04 -3.01342E+03 -1.91952E+04 -1.19143E+04
 -9.68080E+03 -1.54024E+04 -9.37784E+01 -1.93541E+04  8.35008E+03 -2.35873E+04  1.68196E+04 -1.26356E+04
  1.06780E+04  6.09473E+03 -1.08554E+04  1.30467E+04 -2.33694E+04 -6.68173E+03 -8.56963E+03 -3.77676E+04
  2.52781E+04 -4.76927E+04  5.21721E+04 -2.16911E+04  4.88918E+04  2.04669E+04  1.75259E+04  4.63867E+04
 -1.69433E+04  3.60956E+04 -2.75905E+04  2.53595E+03 -1.17169E+04 -2.94583E+04  2.23788E+04 -3.76542E+04
  4.51878E+04 -1.10329E+04  4.17716E+04  2.53681E+04  2.09232E+04  5.12634E+04 -8.88344E+03  5.73709E+04
 -3.58551E+04  3.84608E+04 -4.79809E+04  1.13619E+04 -4.86501E+04 -1.89124E+04 -2.67616E+04 -4.24268E+04
  7.96691E+03 -4.18945E+04  3.46274E+04 -1.70429E+04  3.22908E+04  1.15555E+04  5.65000E+03  2.10945E+04
 -1.40291E+04  9.53923E+03 -1.09432E+04 -7.57477E+03  5.61513E+03 -1.20131E+04  1.85439E+04  5.72375E+03
  1.51565E+04  2.33243E+04 -5.98013E+03  2.72654E+04 -2.42798E+04  1.49118E+04 -3.08242E+04 -2.38858E+03
 -2.60191E+04 -1.82318E+04 -1.21849E+04 -2.46895E+04  4.01601E+03 -2.60220E+04  2.04789E+04 -2.37173E+04
  3.24434E+04 -1.44612E+04  3.91255E+04  4.75002E+03  2.73764E+04  2.51939E+04  4.43919E+03  4.19709E+04
 -2.05534E+04  3.49174E+04 -3.15230E+04  1.21338E+04 -2.33202E+04 -1.00747E+04 -5.12981E+03 -1.32946E+04
  4.84090E+02 -6.27724E+02 -7.11199E+03  9.00415E+03 -2.05390E+04  4.87543E+03 -1.98937E+04 -9.67209E+03
 -1.21046E+04 -2.39286E+04  5.63359E+03 -2.80354E+04  1.85259E+04 -1.96742E+04  2.35348E+04 -1.37490E+03
  1.52963E+04  1.65619E+04 -1.35500E+03  2.42432E+04 -1.68900E+04  1.41305E+04 -2.43980E+04 -4.75456E+03
 -1.75392E+04 -2.09306E+04 -1.70473E+03 -2.77530E+04  1.24295E+04 -2.38116E+04  2.42437E+04 -1.24995E+04
  2.23618E+04  9.37373E+01  1.64508E+04  5.17906E+03  8.86334E+03  1.43582E+03  1.19881E+04 -2.15013E+03
  2.26776E+04  2.83017E+03  2.61312E+04  1.80183E+04  1.87921E+04  3.75475E+04 -2.62288E+03  4.55757E+04
 -2.58984E+04  3.76288E+04 -4.25858E+04  2.02912E+04 -4.56608E+04 -3.59416E+03 -3.68379E+04 -2.65480E+04
 -1.49878E+04 -3.91281E+04  1.30215E+04 -3.40353E+04  2.79620E+04 -1.56593E+04  2.52647E+04  8.07659E+03
  8.08742E+03  1.87576E+04 -1.17438E+04  1.53213E+04 -2.14758E+04  2.19771E+03 -1.54838E+04 -1.31527E+04
 -4.35255E+02 -1.88457E+04  1.02299E+04 -1.48978E+04  1.38038E+04 -8.32897E+02  3.83463E+03  8.98851E+03
 -9.38871E+03  4.71345E+03 -9.85537E+03 -6.98076E+03 -1.90679E+03 -1.87899E+04  1.26263E+04 -2.05217E+04
  2.30451E+04 -1.15632E+04  2.73947E+04  3.87580E+03  2.36476E+04  1.91078E+04  1.12453E+04  2.93803E+04
 -6.10095E+03  3.21498E+04 -2.10932E+04  1.97545E+04 -2.34516E+04  4.13428E+03 -1.57390E+04 -6.59114E+03
 -7.15307E+03 -7.47443E+03 -6.70254E+02 -3.61017E+02 -2.94590E+03  3.40434E+03 -7.52351E+03  5.59546E+03
 -1.48096E+04 -9.19177E+02 -1.59892E+04 -1.19204E+04 -6.36065E+03 -2.01277E+04  6.38027E+03 -1.64237E+04
  1.40663E+04 -6.54446E+03  9.61131E+03  4.23393E+03 -5.73170E+02  6.06902E+03 -9.06536E+03  6.58624E+02
 -7.96590E+03 -1.02073E+04 -2.32134E+03 -1.59195E+04  1.05662E+04 -1.77607E+04  2.07340E+04 -8.93241E+03
  2.43012E+04  3.23484E+03  1.73048E+04  1.48603E+04  3.24201E+03  1.98390E+04 -9.58438E+03  1.67548E+04
 -1.35622E+04  4.23482E+03 -7.14298E+03 -3.73240E+03  1.92682E+03 -5.21130E+03  8.35198E+03 -1.34392E+03
  7.69856E+03  7.25023E+03  2.37842E+02  1.29291E+04 -9.24036E+03  1.21442E+04 -1.59938E+04  3.02386E+03
 -1.11715E+04 -8.71030E+03  1.23139E+03 -1.35196E+04  9.20993E+03 -6.62592E+03  9.65518E+03  3.60587E+03
  2.47741E+03  1.02750E+04 -8.18263E+03  1.14966E+04 -1.42713E+04  5.40151E+03 -1.42536E+04 -5.56516E+03
 -7.97045E+03 -1.59869E+04  3.96423E+03 -1.90922E+04  1.56506E+04 -1.06160E+04  1.75633E+04  2.80262E+03
  1.09055E+04  1.38208E+04 -1.30853E+03  1.64956E+04 -1.27481E+04  9.08240E+03 -1.26983E+04 -1.37070E+03
 -1.06411E+04 -1.11649E+04 -2.46396E+03 -1.25698E+04  6.59173E+03 -9.73206E+03  7.58124E+03 -4.04808E+03
  4.70321E+03  2.82165E+03 -2.65145E+02  1.47524E+03 -7.46526E+02 -4.17880E+03  2.02591E+03 -7.60632E+03
  1.22558E+04 -5.21908E+03  1.65243E+04  1.57070E+03  1.59530E+04  1.14949E+04  1.03788E+04  2.19180E+04
 -5.59758E+03  2.51524E+04 -2.10430E+04  1.82528E+04 -2.68938E+04  3.89444E+03 -2.12113E+04 -9.17599E+03
 -1.05726E+04 -1.81102E+04 -4.25571E+02 -1.51981E+04  5.30991E+03 -8.33426E+03  4.44879E+03 -5.38489E+03
  4.02485E+03 -3.40096E+03  5.73355E+03 -4.38298E+03  5.23049E+03 -3.72735E+03  8.08138E+03 -1.90289E+03
  1.15730E+04  2.74888E+03  6.07644E+03  1.02633E+04 -2.05295E+03  1.18880E+04 -1.13573E+04  8.97913E+03
 -1.54802E+04 -1.48121E+03 -1.04946E+04 -1.03181E+04 -7.13463E+02 -1.70813E+04  9.37686E+03 -1.67715E+04
  1.86099E+04 -9.95178E+03  2.05190E+04  2.45611E+03  1.37054E+04  1.41195E+04  2.45053E+03  1.90251E+04
 -7.98880E+03  1.44684E+04 -1.05544E+04  4.67163E+03 -7.06190E+03 -2.36612E+03 -3.57086E+03 -2.37696E+03
 -1.47174E+03  5.15368E+02 -2.37780E+03  3.02060E+03 -6.07541E+03  2.13660E+03 -1.09492E+04 -1.78304E+03
 -7.46544E+03 -9.85301E+03 -1.00624E+02 -1.45218E+04  9.88537E+03 -1.38232E+04  1.61442E+04 -3.66248E+03
  1.54057E+04  6.82566E+03  6.95980E+03  1.36726E+04 -2.91504E+03  1.56961E+04 -1.10424E+04  9.42314E+03
 -1.41511E+04  1.16128E+03 -1.04327E+04 -9.65804E+03 -1.15808E+03 -1.32528E+04  6.57440E+03 -9.03416E+03
  1.05408E+04 -3.49156E+03  6.26292E+03  2.69877E+03  2.26553E+03  4.67040E+03  2.30385E+03  1.88858E+03
  3.48200E+03  1.52392E+03  4.79683E+03  1.49840E+03  4.09091E+03  5.19252E+03  3.93461E+03  8.42052E+03
 -2.38573E+03  1.25727E+04 -1.02515E+04  1.25629E+04 -1.63011E+04  3.05569E+03 -1.62054E+04 -6.66193E+03
 -8.31250E+03 -1.60381E+04  2.18598E+03 -1.75570E+04  9.44617E+03 -1.05105E+04  1.28564E+04 -3.29778E+03
  1.08084E+04  6.07681E+03  2.44744E+03  9.65163E+03 -4.48810E+03  6.22153E+03 -6.55309E+03 -1.03810E+03
 -3.46790E+03 -5.92806E+03  3.71477E+03 -6.85983E+03  7.01036E+03 -4.89730E+03  6.19725E+03  1.49945E+03
  3.39607E+03  2.54286E+03  1.27297E+03  2.56779E+03 -8.50853E+02  2.32337E+03  3.95365E+02 -7.56278E+02
  2.40402E+03 -9.65774E+02  6.11553E+03  2.82206E+03  3.85230E+03  8.25998E+03 -1.63556E+03  1.03006E+04
 -7.62646E+03  7.14893E+03 -1.01380E+04  2.17874E+03 -8.81362E+03 -4.19640E+03 -3.25103E+03 -6.27335E+03
  5.38455E+02 -5.76576E+03  4.20184E+03 -3.11333E+03  3.18407E+03  2.29133E+03 -1.92489E+03  5.28067E+03
 -7.08471E+03  2.33362E+03 -7.30782E+03 -2.83699E+03 -5.08143E+03 -8.85507E+03  1.20978E+03 -7.87898E+03
  4.33012E+03 -5.67581E+03  6.65462E+03 -9.71419E+02  5.51225E+03  2.66433E+03  7.92859E+02  4.63798E+03
 -3.20800E+03  1.35950E+03 -3.72329E+03 -3.05990E+03  1.98607E+03 -6.55960E+03  7.94461E+03 -5.43203E+03
  1.09446E+04  8.13525E+02  1.02315E+04  6.82865E+03  2.88167E+03  1.13480E+04 -3.71087E+03  9.85662E+03
 -8.29245E+03  4.29877E+03 -8.49784E+03 -1.49374E+03 -4.71242E+03 -6.45035E+03  1.53934E+03 -6.20532E+03
  6.42102E+03 -2.91176E+03  5.78309E+03  1.98892E+03  1.64227E+03  5.54442E+03 -8.57547E+02  4.60790E+03
 -3.06266E+03  3.33696E+03 -3.10690E+03  1.54273E+03 -1.73702E+03  1.56104E+03 -1.37694E+03  2.00447E+03
 -3.30825E+03  4.09153E+03 -6.54604E+03  3.80684E+03 -1.01411E+04  1.29287E+02 -1.20170E+04 -6.95339E+03
 -5.74800E+03 -1.44111E+04  2.28009E+03 -1.69295E+04  1.02435E+04 -1.17512E+04  1.50609E+04 -4.55058E+03
  1.39565E+04  2.51864E+03  8.43783E+03  9.14722E+03  3.43610E+02  1.07474E+04 -4.45882E+03  8.11305E+03
 -6.17818E+03  3.08194E+03 -4.21820E+03 -1.40831E+03 -1.48514E+03 -1.96705E+03 -3.20980E+01  7.39248E+02
 -1.97138E+03  5.86958E+02 -1.91915E+03 -6.56693E+02 -7.34847E+02 -3.47603E+03  3.76156E+02 -3.84614E+03
  4.37364E+03 -3.49499E+03  7.30935E+03 -6.12043E+01  7.55145E+03  5.77819E+03  2.48557E+03  1.10389E+04
 -5.53863E+03  1.24366E+04 -1.17132E+04  7.17226E+03 -1.32445E+04 -2.22562E+03 -9.47100E+03 -7.91586E+03
 -3.79389E+03 -1.11812E+04  3.19441E+03 -9.38828E+03  6.64696E+03 -5.26632E+03  6.39212E+03  4.47885E+02
  3.48418E+03  4.41167E+03 -6.62933E+02  2.00472E+03 -2.19550E+03 -7.84451E+02  6.69008E+01 -2.40423E+03
  3.88795E+03 -1.87176E+03  4.42672E+03  1.10903E+03  2.94837E+03  4.07425E+03  5.21265E+02  5.88633E+03
 -4.42167E+03  5.33092E+03 -7.11608E+03  7.15259E+02 -6.09248E+03 -5.25060E+03 -7.45283E+02 -9.37488E+03
  4.98946E+03 -7.59915E+03  8.24535E+03 -2.45871E+03  9.37520E+03  1.88492E+03  5.37950E+03  6.47876E+03
  1.04992E+03  7.65748E+03 -2.80707E+03  6.25874E+03 -4.50348E+03  3.07440E+03 -4.44216E+03  1.01019E+03
 -1.94719E+03 -3.04327E+02 -2.14539E+03  1.86467E+03 -3.08190E+03  1.50140E+03 -5.85988E+03 -1.20364E+03
 -4.91185E+03 -3.84758E+03 -1.96160E+03 -8.17784E+03  3.59587E+03 -8.03166E+03  7.41227E+03 -4.67433E+03
  8.08354E+03  6.14106E+02  3.13794E+03  4.69222E+03  1.03381E+02  7.57935E+03 -5.85678E+03  4.52551E+03
