 $NMID ID='MM_0lb_SNR400_7hz_g40_31.RAW', FMTDAT='(8E13.5)'
 TRAMP=1., VOLUME=1. $END
  3.10401E+05  6.95370E+02  3.36945E+05  2.50008E+05  8.45667E+04  3.38759E+05 -1.32141E+05  2.52200E+05
 -1.90863E+05  8.36341E+04 -1.12172E+05 -3.22288E+04  7.49964E+02 -5.00370E+04  5.36498E+04 -4.10458E+02
  3.58410E+04  5.34417E+04 -1.57887E+04  7.64354E+04 -6.18849E+04  6.49950E+04 -8.50807E+04  3.30365E+04
 -8.24418E+04 -1.19859E+04 -5.94072E+04 -5.28069E+04 -1.52648E+04 -7.12368E+04  2.83077E+04 -4.68118E+04
  4.12564E+04  3.30525E+03  1.74310E+04  4.88784E+04 -3.42464E+04  4.85152E+04 -6.85063E+04 -4.81361E+02
 -5.46599E+04 -5.77003E+04 -7.41465E+03 -7.90145E+04  3.51020E+04 -5.73593E+04  5.06348E+04 -1.85170E+04
  4.55768E+04  1.21163E+04  3.26373E+04  2.68368E+04  1.57165E+04  3.07688E+04 -5.32312E+03  2.74061E+04
 -2.21388E+04  1.27191E+04 -1.76815E+04 -5.29206E+03  7.62663E+03 -7.59336E+03  2.38245E+04  1.42048E+04
  7.11284E+03  3.80441E+04 -3.55323E+04  3.71014E+04 -6.68038E+04  2.34500E+03 -5.98966E+04 -4.47034E+04
 -1.35062E+04 -6.60205E+04  4.20435E+04 -4.73187E+04  6.17499E+04 -2.89278E+03  3.75607E+04  3.50547E+04
 -5.80359E+03  4.00095E+04 -3.21793E+04  1.86661E+04 -3.35959E+04 -3.18905E+03 -1.99898E+04 -1.28123E+04
 -9.67500E+03 -1.52153E+04 -1.06177E+03 -1.99146E+04  8.86680E+03 -2.35561E+04  1.57444E+04 -1.18006E+04
  9.72410E+03  6.89262E+03 -1.04877E+04  1.33403E+04 -2.31264E+04 -6.66153E+03 -9.06807E+03 -3.83217E+04
  2.61070E+04 -4.72954E+04  5.36907E+04 -2.18630E+04  4.90507E+04  2.19385E+04  1.85901E+04  4.80474E+04
 -1.69991E+04  3.70452E+04 -2.83430E+04  2.41537E+03 -1.20846E+04 -2.99277E+04  2.21901E+04 -3.77766E+04
  4.52445E+04 -1.18644E+04  4.09047E+04  2.54693E+04  2.23827E+04  5.27305E+04 -8.62707E+03  5.74870E+04
 -3.65342E+04  3.88454E+04 -4.83408E+04  1.15016E+04 -4.82465E+04 -1.98767E+04 -2.66808E+04 -4.31442E+04
  7.74332E+03 -4.37025E+04  3.44158E+04 -1.73262E+04  3.36448E+04  1.05781E+04  5.73789E+03  2.18125E+04
 -1.45020E+04  1.00433E+04 -1.21290E+04 -6.59903E+03  5.55609E+03 -1.08415E+04  1.81672E+04  5.36700E+03
  1.45715E+04  2.30901E+04 -5.28573E+03  2.73293E+04 -2.33550E+04  1.50270E+04 -3.24413E+04 -2.18615E+03
 -2.65618E+04 -1.89042E+04 -1.21774E+04 -2.55152E+04  4.06607E+03 -2.72104E+04  2.10212E+04 -2.38130E+04
  3.46969E+04 -1.50952E+04  3.84619E+04  5.77979E+03  2.81538E+04  2.55934E+04  5.33951E+03  4.22059E+04
 -2.04464E+04  3.52937E+04 -3.21391E+04  1.16278E+04 -2.40649E+04 -1.04274E+04 -4.41700E+03 -1.22885E+04
 -5.67451E+01 -1.30791E+03 -8.63636E+03  9.07715E+03 -2.09617E+04  5.01077E+03 -2.21588E+04 -9.79607E+03
 -1.21993E+04 -2.47597E+04  6.38776E+03 -3.02370E+04  2.01813E+04 -2.10894E+04  2.38979E+04 -1.92258E+03
  1.49802E+04  1.70791E+04 -6.90180E+02  2.42222E+04 -1.68405E+04  1.43199E+04 -2.45578E+04 -4.90438E+03
 -1.82227E+04 -2.18102E+04 -2.62699E+03 -2.95951E+04  1.34414E+04 -2.41928E+04  2.35770E+04 -1.30707E+04
  2.34206E+04 -9.69284E+01  1.75443E+04  5.74896E+03  9.65888E+03  8.41564E+02  1.29099E+04 -2.35112E+03
  2.24973E+04  3.04117E+03  2.70445E+04  1.96373E+04  1.89065E+04  4.01588E+04 -1.35230E+03  4.71815E+04
 -2.73014E+04  3.93022E+04 -4.41083E+04  2.06971E+04 -4.83944E+04 -3.83219E+03 -3.73011E+04 -2.73814E+04
 -1.55943E+04 -3.90316E+04  1.47166E+04 -3.40834E+04  2.98933E+04 -1.65678E+04  2.53505E+04  8.59141E+03
  9.12579E+03  2.01669E+04 -1.23309E+04  1.63834E+04 -2.14526E+04  3.47513E+03 -1.57392E+04 -1.35620E+04
 -9.23644E+02 -1.99432E+04  1.06056E+04 -1.60620E+04  1.37974E+04 -1.96242E+03  3.53214E+03  1.02575E+04
 -9.94090E+03  4.88874E+03 -1.06942E+04 -7.55795E+03 -2.27855E+03 -2.04382E+04  1.26172E+04 -2.15702E+04
  2.54331E+04 -1.19808E+04  2.87168E+04  2.88412E+03  2.56922E+04  2.01931E+04  1.09672E+04  3.18895E+04
 -6.78205E+03  3.45401E+04 -2.27723E+04  2.13083E+04 -2.53320E+04  4.21154E+03 -1.69071E+04 -6.02870E+03
 -6.92401E+03 -7.59679E+03 -5.13269E+02 -2.27965E+02 -3.59747E+03  4.52906E+03 -8.07663E+03  5.84508E+03
 -1.53823E+04 -9.72903E+02 -1.61760E+04 -1.23905E+04 -5.72290E+03 -2.11099E+04  7.77768E+03 -1.76885E+04
  1.38715E+04 -6.64391E+03  9.85057E+03  5.02789E+03 -1.03479E+03  8.00545E+03 -7.39655E+03  7.31815E+02
 -9.34072E+03 -1.16162E+04 -1.16321E+03 -1.61114E+04  9.25397E+03 -1.85242E+04  2.29963E+04 -1.02913E+04
  2.57917E+04  2.67107E+03  1.94946E+04  1.70067E+04  3.09399E+03  2.16605E+04 -1.08450E+04  1.66593E+04
 -1.41113E+04  4.27669E+03 -7.37329E+03 -4.39921E+03  2.79393E+03 -5.92996E+03  9.32304E+03 -1.06453E+03
  8.06809E+03  7.35059E+03  1.55992E+03  1.47459E+04 -9.40303E+03  1.32072E+04 -1.69276E+04  3.34733E+03
 -1.24582E+04 -9.43203E+03 -3.70110E+02 -1.55149E+04  1.01560E+04 -7.61990E+03  1.04629E+04  3.93481E+03
  3.41391E+03  1.16507E+04 -9.30659E+03  1.30134E+04 -1.51135E+04  5.29387E+03 -1.53139E+04 -5.46914E+03
 -9.47232E+03 -1.83005E+04  5.08075E+03 -2.14896E+04  1.73538E+04 -1.17540E+04  1.89560E+04  3.48168E+03
  1.14346E+04  1.52612E+04 -2.08112E+03  1.80671E+04 -1.28614E+04  1.03123E+04 -1.46197E+04 -6.38694E+02
 -1.20705E+04 -1.15709E+04 -1.12727E+03 -1.41734E+04  8.56035E+03 -1.13667E+04  8.45789E+03 -3.82558E+03
  4.96854E+03  1.89071E+03 -1.01396E+03  2.87533E+03 -1.55804E+03 -4.06563E+03  3.45112E+03 -8.54817E+03
  1.30606E+04 -6.28700E+03  1.91227E+04  2.03111E+03  1.74094E+04  1.30524E+04  1.21406E+04  2.34867E+04
 -5.66910E+03  2.72908E+04 -2.37363E+04  2.04063E+04 -2.97178E+04  4.43464E+03 -2.37765E+04 -1.09890E+04
 -1.13212E+04 -1.90153E+04 -7.74245E+01 -1.69397E+04  6.08906E+03 -9.70570E+03  6.71002E+03 -6.26416E+03
  5.26458E+03 -3.53125E+03  4.50460E+03 -4.59616E+03  6.41150E+03 -4.38327E+03  8.33396E+03 -2.84237E+03
  1.24528E+04  2.44903E+03  6.94309E+03  1.10460E+04 -2.13570E+03  1.43142E+04 -1.39231E+04  9.82511E+03
 -1.61946E+04 -1.75760E+03 -1.05463E+04 -1.21628E+04 -2.61335E+03 -1.85371E+04  9.21766E+03 -1.79590E+04
  1.93965E+04 -1.10251E+04  2.21377E+04  2.71297E+03  1.54046E+04  1.58476E+04  2.54526E+03  2.14640E+04
 -8.72968E+03  1.66897E+04 -1.20257E+04  6.38189E+03 -8.38612E+03 -2.18786E+03 -4.00077E+03 -2.30496E+03
 -1.93829E+03 -1.17957E+02 -3.01032E+03  3.37676E+03 -7.08808E+03  2.58564E+03 -1.19748E+04 -1.65359E+03
 -9.73936E+03 -1.19142E+04 -3.67811E+01 -1.81197E+04  1.05353E+04 -1.66079E+04  1.75707E+04 -4.80277E+03
  1.78736E+04  7.55529E+03  8.13914E+03  1.66969E+04 -3.98490E+03  1.77059E+04 -1.26175E+04  1.10782E+04
 -1.71517E+04  2.75997E+02 -1.27833E+04 -1.17856E+04 -1.51795E+03 -1.50969E+04  8.76500E+03 -1.13722E+04
  1.12328E+04 -3.48172E+03  7.40408E+03  3.32609E+03  2.86565E+03  4.49278E+03  1.49740E+03  2.48220E+03
  2.99362E+03  5.25335E+02  4.72408E+03  1.93672E+03  5.96421E+03  5.40313E+03  5.04207E+03  9.62139E+03
 -3.67148E+03  1.44112E+04 -1.30667E+04  1.34494E+04 -1.90066E+04  3.80158E+03 -1.84509E+04 -8.19190E+03
 -9.06546E+03 -1.83997E+04  2.13046E+03 -1.85397E+04  1.10082E+04 -1.27204E+04  1.50912E+04 -2.59246E+03
  1.23581E+04  6.93213E+03  1.60846E+03  1.05232E+04 -4.71053E+03  7.40567E+03 -7.08015E+03 -2.01022E+03
 -3.60198E+03 -7.25347E+03  4.69295E+03 -8.23727E+03  7.77143E+03 -3.71721E+03  7.61363E+03  2.32370E+03
  4.41185E+03  3.37314E+03  6.97639E+02  2.10380E+03 -6.63097E+02  2.24617E+03  1.99297E+03 -9.22013E+02
  4.43236E+03 -3.36429E+02  8.77590E+03  3.61081E+03  3.39468E+03  9.83603E+03 -1.27865E+03  1.39011E+04
 -8.56492E+03  8.62591E+03 -1.24325E+04  2.62098E+03 -1.01703E+04 -4.24672E+03 -5.00409E+03 -8.10078E+03
  1.46536E+01 -7.81458E+03  4.45416E+03 -3.53252E+03  3.83616E+03  3.96010E+03 -1.26215E+03  6.07493E+03
 -7.81755E+03  3.63142E+03 -8.24971E+03 -4.88819E+03 -4.43529E+03 -1.08871E+04  2.13500E+03 -1.05384E+04
  6.33443E+03 -6.09964E+03  7.74741E+03 -1.38009E+03  7.52716E+03  3.72012E+03  1.07468E+03  5.53367E+03
 -3.72860E+03  1.37042E+03 -4.21400E+03 -3.93798E+03  7.35334E+02 -8.54127E+03  1.01485E+04 -7.19150E+03
  1.23927E+04  1.65881E+02  1.17020E+04  8.19330E+03  2.87331E+03  1.36527E+04 -4.88510E+03  1.25940E+04
 -1.10079E+04  5.50744E+03 -1.06844E+04 -2.03115E+03 -6.40405E+03 -7.99094E+03  1.67944E+03 -8.26705E+03
  8.22662E+03 -3.76876E+03  7.02481E+03  3.84333E+03  2.44454E+03  6.56151E+03 -1.76985E+03  6.35099E+03
 -2.86300E+03  3.49831E+03 -3.17537E+03  1.29912E+03 -1.77630E+03  7.29740E+02 -1.05311E+03  3.14861E+03
 -2.95336E+03  5.35753E+03 -8.37077E+03  4.99123E+03 -1.37269E+04  1.30604E+02 -1.43856E+04 -9.00833E+03
 -7.69414E+03 -1.68858E+04  3.63585E+03 -1.93153E+04  1.17534E+04 -1.51435E+04  1.89248E+04 -5.30785E+03
  1.74219E+04  3.77733E+03  1.12579E+04  1.18191E+04  8.50816E+02  1.37725E+04 -6.02061E+03  9.74666E+03
 -7.51058E+03  3.93341E+03 -4.61928E+03 -1.20762E+03 -1.02648E+03 -5.99764E+02 -6.01912E+02 -6.21162E+02
 -2.36055E+03 -5.08701E+01 -2.35576E+03 -7.60642E+02 -2.36864E+03 -2.73814E+03 -3.59848E+02 -5.15466E+03
  6.12219E+03 -4.11287E+03  8.24196E+03  6.92081E+01  9.56252E+03  7.59373E+03  3.24886E+03  1.36729E+04
 -5.94011E+03  1.55013E+04 -1.45412E+04  9.15262E+03 -1.72916E+04 -1.14784E+03 -1.19072E+04 -1.02948E+04
 -5.38071E+03 -1.49400E+04  3.82859E+03 -1.28237E+04  9.32548E+03 -8.05333E+03  8.72157E+03  5.90432E+02
  5.17182E+03  5.21654E+03 -7.26026E+02  4.19286E+03 -2.73185E+03 -7.86456E+02  7.36064E+02 -3.09987E+03
  4.86401E+03 -1.36423E+03  5.36577E+03  2.21228E+03  4.38219E+03  5.76241E+03 -4.06933E+01  6.83650E+03
 -6.53377E+03  6.41126E+03 -9.45347E+03  6.50112E+02 -8.45316E+03 -6.93849E+03 -1.37823E+03 -1.14743E+04
  6.74720E+03 -1.06273E+04  1.12135E+04 -3.43735E+03  1.02251E+04  3.18187E+03  6.53412E+03  8.47350E+03
  1.10365E+03  1.00511E+04 -3.33191E+03  7.85633E+03 -6.01697E+03  3.41224E+03 -4.88436E+03  1.06860E+03
 -2.96170E+03 -4.28644E+02 -2.06947E+03  1.42936E+03 -4.94351E+03  2.54576E+03 -7.58160E+03 -1.69014E+03
 -5.78648E+03 -5.20039E+03 -2.40634E+03 -9.40775E+03  4.70681E+03 -1.04337E+04  8.66229E+03 -4.89781E+03
  8.90916E+03  1.41403E+03  5.63486E+03  7.34176E+03 -4.29444E+02  1.01720E+04 -8.28315E+03  6.50287E+03
