 $NMID ID='MM_0lb_SNR400_14hz_g45_76.RAW', FMTDAT='(8E13.5)'
 TRAMP=1., VOLUME=1. $END
  3.08757E+05  7.02137E+02  3.38423E+05  2.50800E+05  8.46374E+04  3.37813E+05 -1.32109E+05  2.50520E+05
 -1.90244E+05  8.34277E+04 -1.11354E+05 -3.28473E+04  1.31357E+03 -5.04767E+04  5.32642E+04  2.63837E+02
  3.52355E+04  5.24398E+04 -1.63395E+04  7.56567E+04 -6.05021E+04  6.35107E+04 -8.40434E+04  3.18603E+04
 -8.02653E+04 -1.16116E+04 -5.69064E+04 -5.04291E+04 -1.58057E+04 -6.93834E+04  2.75826E+04 -4.50622E+04
  3.95242E+04  4.42868E+03  1.53830E+04  4.72649E+04 -3.48021E+04  4.73633E+04 -6.64184E+04 -1.63827E+02
 -5.32626E+04 -5.69817E+04 -6.15671E+03 -7.62716E+04  3.36694E+04 -5.48222E+04  4.76488E+04 -1.64090E+04
  4.29305E+04  1.15555E+04  3.06326E+04  2.53160E+04  1.55359E+04  2.92723E+04 -5.16404E+03  2.72663E+04
 -2.22970E+04  1.27221E+04 -1.84483E+04 -4.29680E+03  5.57112E+03 -7.00486E+03  2.21265E+04  1.21905E+04
  7.09742E+03  3.50854E+04 -3.28188E+04  3.54172E+04 -6.30123E+04  1.88932E+03 -5.69238E+04 -4.32087E+04
 -1.22882E+04 -6.25262E+04  3.96161E+04 -4.50972E+04  5.75470E+04 -1.90351E+03  3.45938E+04  3.22116E+04
 -6.25034E+03  3.55413E+04 -2.98973E+04  1.61877E+04 -2.99936E+04 -4.25228E+03 -1.60902E+04 -1.07330E+04
 -8.19701E+03 -1.30584E+04 -1.13190E+03 -1.75080E+04  6.62849E+03 -2.26035E+04  1.58399E+04 -1.35123E+04
  1.15145E+04  5.49320E+03 -7.62130E+03  1.31906E+04 -2.14773E+04 -4.40773E+03 -8.28529E+03 -3.34187E+04
  2.31663E+04 -4.37100E+04  4.77403E+04 -1.93785E+04  4.47569E+04  1.91609E+04  1.55285E+04  4.43094E+04
 -1.60509E+04  3.35432E+04 -2.51723E+04  1.66622E+03 -9.72460E+03 -2.78920E+04  2.00751E+04 -3.30119E+04
  4.06983E+04 -8.57410E+03  3.51444E+04  2.38141E+04  1.81679E+04  4.60958E+04 -8.19428E+03  4.95100E+04
 -3.08252E+04  3.28834E+04 -4.17657E+04  9.90503E+03 -4.22817E+04 -1.68601E+04 -2.30277E+04 -3.80972E+04
  7.04488E+03 -3.72271E+04  3.10087E+04 -1.49848E+04  2.87810E+04  1.11673E+04  3.75778E+03  1.88518E+04
 -1.40771E+04  8.48482E+03 -1.01995E+04 -7.11880E+03  6.06012E+03 -1.05147E+04  1.80895E+04  5.23957E+03
  1.39803E+04  2.17682E+04 -5.75879E+03  2.55475E+04 -2.23350E+04  1.10163E+04 -2.69841E+04 -5.04839E+03
 -2.01914E+04 -1.73952E+04 -8.29559E+03 -1.98789E+04  4.58073E+03 -1.94199E+04  1.52870E+04 -1.73504E+04
  2.58962E+04 -1.28543E+04  3.20637E+04  2.73102E+03  2.36533E+04  1.95081E+04  3.76507E+03  3.60746E+04
 -1.71182E+04  2.99434E+04 -2.77776E+04  1.00251E+04 -2.12538E+04 -1.03541E+04 -4.51536E+03 -1.35286E+04
  1.92800E+03 -3.30901E+03 -4.55367E+03  6.37672E+03 -1.63237E+04  4.75271E+03 -1.61413E+04 -6.71197E+03
 -9.76730E+03 -1.85408E+04  5.33748E+03 -2.30625E+04  1.49457E+04 -1.63788E+04  1.79329E+04 -9.86529E+02
  1.10025E+04  1.30411E+04 -5.59657E+02  1.82583E+04 -1.29718E+04  1.04829E+04 -1.89418E+04 -3.61608E+03
 -1.38387E+04 -1.66902E+04 -1.90893E+03 -2.20767E+04  1.06722E+04 -1.82091E+04  1.89496E+04 -9.27729E+03
  1.72914E+04  1.58832E+02  1.22816E+04  4.34339E+03  7.06098E+03  1.02112E+03  9.27961E+03 -1.76211E+03
  1.69094E+04  2.91957E+03  1.86543E+04  1.41177E+04  1.18490E+04  3.00213E+04 -3.12117E+03  3.31995E+04
 -1.93822E+04  2.62520E+04 -3.12020E+04  1.34316E+04 -3.29570E+04 -2.43794E+03 -2.70309E+04 -1.87246E+04
 -1.18153E+04 -2.65482E+04  8.79465E+03 -2.42438E+04  2.09130E+04 -1.25021E+04  1.93411E+04  5.56204E+03
  7.54397E+03  1.34768E+04 -9.51410E+03  1.27030E+04 -1.58821E+04  2.94324E+03 -1.22385E+04 -9.86401E+03
  2.96488E+02 -1.51583E+04  8.23287E+03 -1.09269E+04  1.03966E+04 -1.52223E+03  2.50998E+03  7.30320E+03
 -6.93282E+03  2.94390E+03 -6.11445E+03 -5.84442E+03 -6.10809E+02 -1.33364E+04  9.56648E+03 -1.33969E+04
  1.61329E+04 -7.32726E+03  1.69708E+04  2.91282E+03  1.53150E+04  1.30831E+04  6.88973E+03  1.99720E+04
 -2.72591E+03  2.11918E+04 -1.36235E+04  1.39370E+04 -1.59023E+04  3.75604E+03 -1.12336E+04 -3.30377E+03
 -5.35976E+03 -4.41506E+03 -3.93245E+02  1.17421E+03 -1.88784E+03  2.25544E+03 -4.97587E+03  4.21210E+03
 -1.05808E+04 -1.24770E+02 -1.14686E+04 -9.13042E+03 -4.99862E+03 -1.41226E+04  4.45527E+03 -1.12535E+04
  8.69691E+03 -4.32994E+03  6.61468E+03  3.32815E+03  9.14704E+02  3.86973E+03 -4.60686E+03  2.79160E+01
 -4.75125E+03 -6.92054E+03 -1.83918E+02 -1.04298E+04  5.65881E+03 -1.01159E+04  1.40209E+04 -5.74451E+03
  1.64088E+04  1.01209E+03  1.23744E+04  8.80006E+03  1.86616E+03  1.28000E+04 -7.20292E+03  1.01363E+04
 -9.03128E+03  3.33204E+03 -5.31574E+03 -2.06778E+03  1.96676E+03 -2.68663E+03  6.70408E+03 -1.22909E+03
  5.58814E+03  4.40340E+03  1.20367E+03  8.69541E+03 -6.90626E+03  8.50880E+03 -1.07700E+04  2.14295E+03
 -6.55075E+03 -5.62560E+03 -7.00688E+01 -9.35341E+03  5.19562E+03 -4.80540E+03  6.65175E+03  1.58792E+03
  7.73917E+02  6.13462E+03 -5.76691E+03  7.02764E+03 -8.22427E+03  3.24533E+03 -7.81446E+03 -2.80547E+03
 -4.85043E+03 -9.22733E+03  2.06203E+03 -1.06339E+04  9.56124E+03 -7.01746E+03  1.00563E+04  1.77529E+03
  6.77722E+03  8.14349E+03 -6.28184E+02  1.05044E+04 -7.32060E+03  6.10967E+03 -7.98166E+03 -3.11520E+02
 -7.45293E+03 -7.29839E+03 -1.52021E+03 -7.42603E+03  3.32779E+03 -6.88760E+03  4.48946E+03 -3.47484E+03
  3.60139E+03  1.35175E+03 -3.45810E+02  1.48648E+03  5.39444E+01 -1.48045E+03  1.05865E+03 -3.69839E+03
  6.89819E+03 -2.99841E+03  9.30057E+03  1.91887E+03  8.98131E+03  6.10998E+03  7.16331E+03  1.14920E+04
 -2.63184E+03  1.43532E+04 -1.17638E+04  1.04900E+04 -1.54628E+04  1.88679E+03 -1.25365E+04 -5.16766E+03
 -5.63425E+03 -9.96625E+03 -9.02494E+02 -8.33797E+03  2.83321E+03 -4.42443E+03  2.88789E+03 -3.22381E+03
  1.70620E+03 -1.55131E+03  2.77509E+03 -2.82377E+03  4.24325E+03 -1.92589E+03  5.10983E+03 -4.37705E+02
  6.75344E+03  1.40158E+03  2.72351E+03  5.81847E+03 -1.96088E+03  6.30861E+03 -6.30085E+03  4.66182E+03
 -8.25281E+03 -7.64317E+02 -4.17699E+03 -5.65795E+03 -5.34440E+02 -8.51852E+03  4.77058E+03 -9.07552E+03
  9.61571E+03 -5.12564E+03  1.09422E+04  1.75132E+03  7.34189E+03  7.60820E+03  1.15641E+03  9.92999E+03
 -3.66071E+03  8.62211E+03 -5.63041E+03  3.03826E+03 -3.23715E+03 -1.10849E+03 -1.76986E+03 -1.15925E+03
 -7.55607E+02 -1.84947E+02 -1.46818E+03  1.86489E+03 -3.47517E+03  1.36520E+03 -5.83184E+03 -7.89367E+02
 -3.39006E+03 -5.97562E+03  4.21886E+02 -7.96794E+03  4.84321E+03 -7.92457E+03  7.00333E+03 -2.44382E+03
  7.70276E+03  4.03058E+03  3.48017E+03  7.13103E+03 -1.31103E+03  7.91816E+03 -5.08642E+03  4.97465E+03
 -6.40507E+03  4.85726E+02 -5.91630E+03 -4.55165E+03 -1.15494E+03 -6.04351E+03  3.00355E+03 -4.25833E+03
  4.65010E+03 -1.36210E+03  2.74555E+03  1.03021E+03  1.29740E+03  2.38650E+03  1.01557E+03  9.36138E+02
  1.72883E+03  5.77670E+02  2.10078E+03  9.67693E+02  1.68652E+03  3.12520E+03  2.20423E+03  3.82168E+03
 -1.88748E+03  5.46355E+03 -5.06100E+03  5.78048E+03 -6.87528E+03  1.78719E+03 -7.12392E+03 -2.63395E+03
 -3.90186E+03 -7.10865E+03  1.12246E+03 -8.70331E+03  3.95851E+03 -4.72500E+03  5.85457E+03 -1.43640E+03
  4.34204E+03  3.19662E+03  1.55470E+03  5.03619E+03 -2.16733E+03  2.53206E+03 -2.31453E+03  1.28435E+02
 -1.36886E+03 -2.92842E+03  1.74278E+03 -3.03800E+03  2.80103E+03 -1.54177E+03  2.56114E+03  8.17152E+02
  1.62073E+03  1.38654E+03  6.96393E+02  8.04340E+02 -7.50514E+01  8.62457E+02  1.64461E+03 -5.88212E+02
  4.34949E+02 -2.91756E+02  3.44199E+03  1.44329E+03  1.01405E+03  3.83504E+03 -8.15379E+02  5.21612E+03
 -3.68713E+03  2.30523E+03 -4.06230E+03  8.73617E+02 -4.43102E+03 -1.66026E+03 -9.80020E+02 -2.88001E+03
  1.11677E+03 -2.01235E+03  2.37768E+03 -1.42964E+03  1.48426E+03  1.75896E+03 -9.91955E+02  1.70168E+03
 -3.22889E+03  9.95774E+02 -2.98801E+03 -1.94934E+03 -1.91678E+03 -4.24078E+03  7.78644E+02 -3.41626E+03
  1.53318E+03 -1.27735E+03  2.80972E+03 -3.99436E+02  2.49481E+03  3.46518E+02  2.08912E+02  1.88865E+03
 -1.19329E+03 -6.95596E+01 -1.78234E+03 -7.23432E+02  1.23379E+03 -2.83675E+03  3.66850E+03 -2.34029E+03
  3.56480E+03  6.23832E+01  4.33784E+03  2.57030E+03  2.22008E+03  3.99469E+03 -1.44758E+03  4.32014E+03
 -2.94933E+03  1.12016E+03 -3.84747E+03 -7.69179E+02 -2.16450E+03 -3.16076E+03  5.37980E+02 -1.55297E+03
  3.41857E+03 -1.69685E+03  2.27586E+03  7.36877E+02  4.06940E+02  2.04994E+03  2.84416E+02  2.41573E+03
 -1.58646E+03  2.37832E+03 -5.21482E+02  2.57677E+02 -1.25779E+02  1.12429E+03 -8.27696E+02  1.06348E+03
 -1.20788E+03  1.87662E+03 -3.21424E+03  9.37096E+02 -4.12335E+03  2.15921E+02 -5.23048E+03 -2.39221E+03
 -2.70395E+03 -4.98759E+03  5.48093E+02 -6.28940E+03  3.25506E+03 -4.70360E+03  5.76952E+03 -1.61727E+03
  5.58933E+03  3.72038E+02  3.47800E+03  3.48396E+03 -2.97309E+00  4.62107E+03 -2.16730E+03  3.04731E+03
 -2.27903E+03  1.44398E+03 -1.06644E+03 -3.32119E+02 -1.22273E+03 -4.18155E+02 -9.86255E+02 -6.34780E+01
 -1.48201E+03 -5.18100E+02 -5.12905E+02 -1.86713E+02 -3.84988E+01 -1.61538E+03  2.75019E+02 -1.69078E+03
  2.29908E+03 -1.45803E+03  2.33900E+03  6.49091E+02  3.30067E+03  2.11042E+03 -9.17656E+01  3.30005E+03
 -1.21164E+03  4.53987E+03 -4.83889E+03  3.32953E+03 -4.51551E+03 -4.82076E+02 -2.78669E+03 -3.30196E+03
 -2.02678E+03 -3.58627E+03  1.25597E+03 -3.55410E+03  2.43227E+03 -2.20049E+03  2.36899E+03  3.79572E+02
  1.75624E+03  1.92447E+03 -4.25378E+02  5.72430E+02 -5.58437E+02  3.91656E+02 -2.24545E+02 -5.02058E+02
  8.21414E+02 -1.93411E+02  1.28012E+03  1.27010E+03  7.55449E+02  1.49742E+03  5.05661E+02  1.24292E+03
 -1.43960E+03  1.89920E+03 -2.49354E+03 -4.29651E+02 -1.92913E+03 -1.60258E+03 -1.95059E+02 -3.84265E+03
  2.14138E+03 -2.64486E+03  2.10966E+03 -4.60807E+02  2.94045E+03 -4.65224E+02  1.59641E+03  1.66181E+03
  4.59752E+02  1.93248E+03 -5.18282E+02  1.93240E+03 -1.65044E+03  1.07485E+03 -1.55202E+03 -2.73267E+02
 -2.77685E+02 -2.11749E+02 -8.66032E+02  5.34153E+02 -1.30810E+03  7.14666E+02 -2.30046E+03 -2.00060E+02
 -2.18201E+03 -1.19691E+03 -5.50883E+02 -2.21384E+03  1.08855E+03 -3.19791E+03  2.17701E+03 -1.27936E+03
  2.03743E+03 -2.14002E+02  1.18357E+02  1.25363E+03 -3.82644E+02  2.43570E+03 -1.79881E+03  1.40376E+03
