 $NMID ID='MM_0lb_SNR400_11hz_g60_20.RAW', FMTDAT='(8E13.5)'
 TRAMP=1., VOLUME=1. $END
  3.09940E+05  7.74405E+02  3.37882E+05  2.50447E+05  8.44063E+04  3.38235E+05 -1.33029E+05  2.52098E+05
 -1.90929E+05  8.39754E+04 -1.12998E+05 -3.24102E+04  3.86564E+02 -5.12445E+04  5.37218E+04 -8.87147E+02
  3.51996E+04  5.29755E+04 -1.72996E+04  7.59225E+04 -6.06590E+04  6.49102E+04 -8.54885E+04  3.24530E+04
 -8.30549E+04 -1.22002E+04 -5.89286E+04 -5.26669E+04 -1.50936E+04 -7.10570E+04  2.76792E+04 -4.66603E+04
  4.11141E+04  3.28519E+03  1.62358E+04  4.86788E+04 -3.43317E+04  4.86643E+04 -6.74071E+04  1.75031E+02
 -5.43231E+04 -5.74980E+04 -7.02718E+03 -7.84579E+04  3.44695E+04 -5.66299E+04  4.93252E+04 -1.80577E+04
  4.47345E+04  1.15735E+04  3.26419E+04  2.66800E+04  1.56819E+04  3.00247E+04 -5.56195E+03  2.80594E+04
 -2.28585E+04  1.14756E+04 -1.79579E+04 -6.44125E+03  7.49575E+03 -7.01394E+03  2.33176E+04  1.35169E+04
  7.43656E+03  3.72999E+04 -3.36877E+04  3.73097E+04 -6.51658E+04  1.85517E+03 -5.83099E+04 -4.43711E+04
 -1.23799E+04 -6.48138E+04  4.10590E+04 -4.81038E+04  6.03578E+04 -2.61900E+03  3.70299E+04  3.45670E+04
 -5.57809E+03  3.88155E+04 -3.19020E+04  1.88957E+04 -3.30205E+04 -4.25046E+03 -1.89895E+04 -1.15889E+04
 -9.63041E+03 -1.48758E+04  1.60134E+02 -1.91652E+04  8.51386E+03 -2.42762E+04  1.53722E+04 -1.29965E+04
  1.04932E+04  6.16994E+03 -1.04135E+04  1.32443E+04 -2.32642E+04 -6.46305E+03 -8.32405E+03 -3.66042E+04
  2.45306E+04 -4.66891E+04  5.07770E+04 -2.05191E+04  4.86794E+04  2.12974E+04  1.71574E+04  4.72683E+04
 -1.69698E+04  3.64396E+04 -2.70526E+04  1.96042E+03 -1.19624E+04 -2.90455E+04  2.11641E+04 -3.72346E+04
  4.51794E+04 -1.07672E+04  3.98234E+04  2.41994E+04  2.01994E+04  5.09407E+04 -7.97542E+03  5.50129E+04
 -3.47965E+04  3.75116E+04 -4.68133E+04  1.05055E+04 -4.65789E+04 -1.79280E+04 -2.59287E+04 -4.20502E+04
  7.49960E+03 -4.16354E+04  3.32280E+04 -1.67185E+04  3.16136E+04  1.08505E+04  5.28626E+03  2.05296E+04
 -1.33676E+04  9.31115E+03 -1.10663E+04 -8.10831E+03  5.42236E+03 -1.13803E+04  1.85510E+04  6.39984E+03
  1.52562E+04  2.32956E+04 -4.75266E+03  2.64819E+04 -2.35132E+04  1.37851E+04 -3.07882E+04 -3.73122E+03
 -2.45813E+04 -1.85023E+04 -1.04266E+04 -2.47459E+04  4.34987E+03 -2.39467E+04  1.91690E+04 -2.17939E+04
  3.18394E+04 -1.33626E+04  3.70785E+04  4.84642E+03  2.64622E+04  2.40818E+04  4.93024E+03  4.03984E+04
 -1.91117E+04  3.36655E+04 -2.96558E+04  1.19067E+04 -2.20839E+04 -9.87696E+03 -3.95329E+03 -1.35784E+04
  5.81548E+02 -1.43376E+03 -7.35037E+03  8.13418E+03 -1.94054E+04  5.17598E+03 -1.96909E+04 -8.81093E+03
 -1.08345E+04 -2.23586E+04  6.93971E+03 -2.66192E+04  1.84844E+04 -1.89942E+04  2.17132E+04 -1.15429E+03
  1.48411E+04  1.54520E+04 -1.10020E+03  2.29114E+04 -1.60333E+04  1.35843E+04 -2.26657E+04 -4.04718E+03
 -1.71376E+04 -2.03533E+04 -2.15820E+03 -2.66764E+04  1.18717E+04 -2.32927E+04  2.23532E+04 -1.19389E+04
  2.11782E+04 -5.03502E+01  1.55983E+04  5.76924E+03  8.77049E+03  8.11081E+02  1.24409E+04 -1.65576E+03
  2.17019E+04  2.64178E+03  2.39280E+04  1.79640E+04  1.66659E+04  3.65673E+04 -2.35883E+03  4.29439E+04
 -2.42102E+04  3.51993E+04 -4.02968E+04  1.88343E+04 -4.21938E+04 -3.11219E+03 -3.42739E+04 -2.41297E+04
 -1.37475E+04 -3.52778E+04  1.22663E+04 -3.14665E+04  2.69665E+04 -1.49730E+04  2.27995E+04  6.88147E+03
  8.09829E+03  1.78062E+04 -1.05083E+04  1.50278E+04 -2.05319E+04  3.23298E+03 -1.52757E+04 -1.27034E+04
 -8.78280E+02 -1.91671E+04  1.00809E+04 -1.44587E+04  1.26158E+04 -7.48316E+02  2.90995E+03  8.93905E+03
 -8.45281E+03  3.88657E+03 -8.34390E+03 -6.52351E+03 -1.51487E+03 -1.67865E+04  1.12196E+04 -1.87723E+04
  2.16476E+04 -1.04391E+04  2.47913E+04  2.76496E+03  2.15717E+04  1.74632E+04  9.22867E+03  2.75965E+04
 -4.80357E+03  2.88623E+04 -1.86907E+04  1.80366E+04 -2.10020E+04  3.80888E+03 -1.50379E+04 -5.14746E+03
 -6.21942E+03 -6.00565E+03 -1.44593E+02  2.02762E+02 -2.38839E+03  3.06110E+03 -7.22651E+03  5.32668E+03
 -1.36399E+04 -1.53875E+03 -1.41366E+04 -1.14023E+04 -5.49871E+03 -1.83625E+04  5.73746E+03 -1.51116E+04
  1.19703E+04 -5.94483E+03  8.83610E+03  4.05065E+03 -5.52177E+02  5.94736E+03 -6.79065E+03 -1.87529E+02
 -6.72613E+03 -9.61275E+03 -6.13368E+02 -1.43118E+04  8.89746E+03 -1.45902E+04  1.85036E+04 -8.82188E+03
  2.21235E+04  2.36026E+03  1.58719E+04  1.32061E+04  2.91628E+03  1.77056E+04 -9.50257E+03  1.48320E+04
 -1.14370E+04  4.48366E+03 -6.16383E+03 -2.61154E+03  2.54534E+03 -4.49626E+03  8.05991E+03 -9.59187E+02
  6.65437E+03  6.47602E+03  3.14438E+02  1.14866E+04 -8.31564E+03  1.16038E+04 -1.42105E+04  2.57674E+03
 -9.85118E+03 -7.68429E+03 -6.30531E+02 -1.22736E+04  7.75538E+03 -5.77028E+03  7.98742E+03  2.95083E+03
  1.51747E+03  9.11370E+03 -8.14685E+03  1.09617E+04 -1.19204E+04  4.88370E+03 -1.26301E+04 -4.58461E+03
 -7.26709E+03 -1.46993E+04  3.42298E+03 -1.62084E+04  1.37436E+04 -9.35917E+03  1.53643E+04  2.30252E+03
  9.28965E+03  1.24445E+04 -1.63426E+03  1.42438E+04 -1.00423E+04  8.44707E+03 -1.18758E+04 -9.90777E+02
 -9.24496E+03 -9.62852E+03 -2.08658E+03 -1.11823E+04  5.34208E+03 -8.86348E+03  7.11876E+03 -4.04613E+03
  4.17467E+03  1.91856E+03 -1.22227E+03  1.81510E+03 -3.49947E+02 -2.73843E+03  2.04408E+03 -6.33830E+03
  8.96719E+03 -4.46223E+03  1.40040E+04  1.35827E+03  1.39276E+04  9.81687E+03  9.51456E+03  1.84649E+04
 -4.15133E+03  2.15718E+04 -1.69731E+04  1.59246E+04 -2.31184E+04  2.52206E+03 -1.89566E+04 -8.45278E+03
 -9.00352E+03 -1.47010E+04 -2.72151E+02 -1.24245E+04  4.28212E+03 -6.52056E+03  3.88465E+03 -5.11959E+03
  3.39200E+03 -3.25521E+03  4.01968E+03 -3.71579E+03  5.78645E+03 -3.61557E+03  7.71601E+03 -1.20364E+03
  1.00734E+04  1.62277E+03  5.65817E+03  8.66842E+03 -2.10456E+03  9.26246E+03 -1.06389E+04  7.37792E+03
 -1.25530E+04 -1.51828E+03 -7.66839E+03 -8.87312E+03 -1.91020E+02 -1.43998E+04  6.72618E+03 -1.41937E+04
  1.38130E+04 -7.13506E+03  1.76876E+04  2.75259E+03  1.14212E+04  1.14371E+04  2.11208E+03  1.53826E+04
 -6.48885E+03  1.27550E+04 -9.17118E+03  4.47021E+03 -6.82315E+03 -1.14254E+03 -2.90468E+03 -2.53606E+03
 -1.20424E+03 -3.44038E+01 -1.94265E+03  3.03728E+03 -5.30598E+03  2.14945E+03 -8.72076E+03 -1.33118E+03
 -6.59073E+03 -9.49229E+03 -6.59938E+01 -1.30278E+04  7.92870E+03 -1.18872E+04  1.24587E+04 -3.50693E+03
  1.21661E+04  6.02536E+03  6.68594E+03  1.13471E+04 -1.94321E+03  1.30708E+04 -8.93251E+03  8.37681E+03
 -1.10558E+04  3.36269E+02 -9.36499E+03 -7.04415E+03 -1.17784E+03 -9.73761E+03  5.60704E+03 -7.97005E+03
  8.61722E+03 -1.52524E+03  5.31945E+03  2.48614E+03  1.49392E+03  3.54180E+03  7.79266E+02  2.35215E+03
  2.97892E+03  5.75276E+02  3.24414E+03  1.52192E+03  3.76543E+03  4.26683E+03  3.17917E+03  6.94759E+03
 -1.64094E+03  9.58444E+03 -8.89108E+03  9.89121E+03 -1.31159E+04  2.41657E+03 -1.39608E+04 -4.67209E+03
 -6.49994E+03 -1.26195E+04  1.79193E+03 -1.36951E+04  7.95644E+03 -8.88251E+03  9.51440E+03 -2.91019E+03
  7.77228E+03  4.50940E+03  2.36228E+03  6.87536E+03 -3.21327E+03  4.73587E+03 -4.31572E+03 -6.55427E+02
 -2.33800E+03 -4.52696E+03  3.39563E+03 -5.16567E+03  4.59040E+03 -2.75542E+03  5.29960E+03  1.19235E+03
  2.78500E+03  2.41984E+03  9.74398E+02  2.39115E+03 -2.70671E+02  2.12921E+03  2.65656E+03 -9.17027E+02
  1.16577E+03 -1.03556E+03  5.17124E+03  2.45109E+03  2.51553E+03  6.49430E+03 -1.09865E+03  8.43484E+03
 -5.71079E+03  5.47404E+03 -7.49040E+03  1.50546E+03 -7.78308E+03 -3.04688E+03 -2.64553E+03 -4.68900E+03
  5.91073E+02 -5.12789E+03  3.35189E+03 -1.95284E+03  2.27635E+03  1.76302E+03 -5.09936E+02  4.07800E+03
 -5.15123E+03  1.71511E+03 -6.16864E+03 -2.58111E+03 -2.58557E+03 -7.12965E+03  2.64381E+02 -6.94455E+03
  3.43580E+03 -3.86340E+03  5.13139E+03 -6.93535E+02  4.72661E+03  1.65652E+03  7.74911E+02  2.89120E+03
 -2.00117E+03  1.32056E+03 -2.63663E+03 -2.50260E+03  8.36085E+02 -5.30297E+03  6.86210E+03 -4.14336E+03
  7.48121E+03  4.41210E+02  8.31080E+03  5.05472E+03  2.98476E+03  7.45244E+03 -2.01233E+03  8.28774E+03
 -6.34095E+03  3.67730E+03 -7.05385E+03 -6.00615E+02 -3.73653E+03 -4.53095E+03  1.26945E+03 -4.00929E+03
  4.08835E+03 -2.14129E+03  4.09146E+03  2.72945E+03  1.29637E+03  4.30510E+03 -8.45760E+00  4.12393E+03
 -2.37686E+03  3.15376E+03 -1.35515E+03  3.61510E+02 -7.04266E+02  5.06848E+02 -1.30912E+03  1.61082E+03
 -2.58154E+03  2.97784E+03 -5.29916E+03  2.55950E+03 -7.61825E+03  1.70616E+02 -8.87762E+03 -4.70789E+03
 -4.81873E+03 -1.02721E+04  1.77639E+03 -1.19153E+04  7.09518E+03 -9.75867E+03  1.12591E+04 -4.32501E+03
  1.01849E+04  1.91349E+03  6.97687E+03  7.10653E+03  1.49118E+02  7.58958E+03 -2.87400E+03  6.02178E+03
 -4.08047E+03  2.79957E+03 -2.47443E+03 -1.02588E+03 -1.88739E+03 -7.02105E+02 -1.54231E+02  1.26470E+02
 -1.47498E+03  4.79167E+02 -2.76817E+03 -5.52060E+02 -3.91009E+02 -1.74062E+03  4.39027E+00 -2.95109E+03
  3.67706E+03 -2.80922E+03  4.41298E+03 -9.43617E+01  5.89295E+03  4.42065E+03  1.73011E+03  7.90012E+03
 -4.04236E+03  9.72396E+03 -8.02187E+03  5.43138E+03 -9.09365E+03 -3.23240E+02 -7.06270E+03 -5.26963E+03
 -2.23808E+03 -8.67128E+03  2.38273E+03 -6.55184E+03  5.09176E+03 -3.93338E+03  4.70470E+03 -1.43649E+02
  3.60252E+03  2.43213E+03  4.57090E+01  1.92431E+03 -1.13145E+03 -3.46842E+02 -3.05140E+02 -1.33103E+03
  2.98947E+03 -6.32462E+02  2.60963E+03  1.25341E+03  1.75979E+03  3.05231E+03  2.84383E+02  3.77988E+03
 -3.28231E+03  3.65031E+03 -5.21473E+03  1.06461E+03 -4.10709E+03 -3.64318E+03 -8.36765E+02 -6.88397E+03
  4.70013E+03 -5.35057E+03  5.46020E+03 -1.34990E+03  5.79407E+03  1.00313E+03  3.26312E+03  4.15206E+03
  1.19013E+03  4.77685E+03 -2.66764E+03  4.48637E+03 -3.26822E+03  1.78202E+03 -2.24488E+03  6.27166E+02
 -1.69413E+03 -8.98796E+02 -9.74506E+02  1.14978E+03 -2.32511E+03  1.40990E+03 -3.32901E+03 -7.69107E+02
 -4.37236E+03 -3.00510E+03 -4.41827E+02 -4.80157E+03  2.51023E+03 -5.65348E+03  3.48994E+03 -2.63437E+03
  4.68668E+03  1.12814E+03  2.71595E+03  3.70354E+03 -5.82201E+02  5.00864E+03 -3.73965E+03  3.47119E+03
