 $NMID ID='MM_0lb_SNR400_12hz_g45_86.RAW', FMTDAT='(8E13.5)'
 TRAMP=1., VOLUME=1. $END
  3.10649E+05 -1.93899E+02  3.37650E+05  2.50072E+05  8.50999E+04  3.38136E+05 -1.32466E+05  2.51736E+05
 -1.90609E+05  8.29962E+04 -1.12975E+05 -3.22672E+04  7.55744E+02 -5.00258E+04  5.38598E+04  2.50513E+02
  3.57544E+04  5.28911E+04 -1.63128E+04  7.57596E+04 -6.07673E+04  6.36913E+04 -8.45635E+04  3.19686E+04
 -8.11586E+04 -1.11796E+04 -5.74021E+04 -5.17339E+04 -1.56762E+04 -6.97950E+04  2.69866E+04 -4.50804E+04
  4.04476E+04  3.92805E+03  1.62615E+04  4.77429E+04 -3.43512E+04  4.72796E+04 -6.72332E+04 -3.89130E+02
 -5.37219E+04 -5.71285E+04 -6.79826E+03 -7.80075E+04  3.42812E+04 -5.58228E+04  4.84310E+04 -1.74631E+04
  4.41886E+04  1.14763E+04  3.22082E+04  2.64365E+04  1.54586E+04  2.99990E+04 -4.86667E+03  2.78411E+04
 -2.24577E+04  1.19376E+04 -1.87739E+04 -4.68364E+03  6.06560E+03 -7.78242E+03  2.30839E+04  1.31058E+04
  7.96866E+03  3.63989E+04 -3.26990E+04  3.65732E+04 -6.41208E+04  2.25599E+03 -5.71416E+04 -4.30082E+04
 -1.28699E+04 -6.33298E+04  4.01180E+04 -4.62666E+04  5.90873E+04 -1.80675E+03  3.48406E+04  3.29001E+04
 -5.88851E+03  3.73558E+04 -3.07428E+04  1.65289E+04 -3.09115E+04 -4.76505E+03 -1.80208E+04 -1.16443E+04
 -7.98161E+03 -1.37661E+04 -6.13188E+02 -1.89766E+04  7.66213E+03 -2.22681E+04  1.49144E+04 -1.31245E+04
  1.05969E+04  5.59655E+03 -9.19278E+03  1.34071E+04 -2.16678E+04 -5.53097E+03 -8.25696E+03 -3.52269E+04
  2.35326E+04 -4.45040E+04  4.92070E+04 -1.90165E+04  4.53919E+04  2.05010E+04  1.67231E+04  4.49036E+04
 -1.60103E+04  3.37466E+04 -2.59897E+04  2.19080E+03 -1.07549E+04 -2.78318E+04  2.13177E+04 -3.46116E+04
  4.20261E+04 -9.51516E+03  3.70478E+04  2.41864E+04  1.86496E+04  4.74002E+04 -7.84360E+03  5.20402E+04
 -3.27861E+04  3.61105E+04 -4.38482E+04  1.03047E+04 -4.35385E+04 -1.67348E+04 -2.34814E+04 -3.92637E+04
  7.74465E+03 -3.92714E+04  3.19376E+04 -1.58100E+04  3.05498E+04  1.12960E+04  4.57373E+03  1.99928E+04
 -1.27396E+04  8.82679E+03 -1.08552E+04 -7.92910E+03  5.97529E+03 -1.12673E+04  1.85813E+04  6.01459E+03
  1.33667E+04  2.19782E+04 -6.03028E+03  2.58261E+04 -2.21734E+04  1.26858E+04 -2.96386E+04 -4.35562E+03
 -2.21271E+04 -1.82337E+04 -9.33454E+03 -2.16425E+04  4.03919E+03 -2.15080E+04  1.64480E+04 -1.91967E+04
  2.78299E+04 -1.33345E+04  3.41927E+04  3.45931E+03  2.48236E+04  2.11509E+04  4.47273E+03  3.73165E+04
 -1.81223E+04  3.16023E+04 -2.81413E+04  1.02283E+04 -2.15649E+04 -1.12076E+04 -3.72416E+03 -1.40152E+04
  1.93467E+03 -2.65451E+03 -5.90567E+03  7.33110E+03 -1.72777E+04  4.83448E+03 -1.75928E+04 -8.20519E+03
 -1.07434E+04 -1.95810E+04  5.66241E+03 -2.44106E+04  1.63855E+04 -1.79771E+04  1.94882E+04 -1.26067E+03
  1.28414E+04  1.48056E+04 -1.10551E+03  2.03554E+04 -1.43070E+04  1.18246E+04 -2.02685E+04 -4.04219E+03
 -1.48337E+04 -1.85056E+04 -1.95780E+03 -2.47780E+04  1.07491E+04 -2.00482E+04  2.08050E+04 -1.04602E+04
  1.91274E+04  4.77559E+02  1.34455E+04  4.67791E+03  7.08821E+03  1.27261E+03  1.03648E+04 -1.81898E+03
  1.90573E+04  2.34724E+03  2.08867E+04  1.61931E+04  1.43126E+04  3.18448E+04 -3.08001E+03  3.70038E+04
 -2.13336E+04  3.01800E+04 -3.44650E+04  1.51641E+04 -3.67145E+04 -3.29612E+03 -3.01987E+04 -2.17016E+04
 -1.24323E+04 -2.99424E+04  1.06932E+04 -2.71059E+04  2.34255E+04 -1.37605E+04  2.10036E+04  6.08527E+03
  7.11294E+03  1.57312E+04 -9.65072E+03  1.31370E+04 -1.68436E+04  2.86392E+03 -1.34763E+04 -1.05939E+04
  3.97737E+02 -1.71552E+04  8.89045E+03 -1.26835E+04  1.08770E+04 -1.09263E+03  2.54325E+03  7.38700E+03
 -7.46654E+03  2.73482E+03 -6.69634E+03 -6.77839E+03 -1.62924E+03 -1.49195E+04  1.00277E+04 -1.60584E+04
  1.85938E+04 -8.10541E+03  2.09648E+04  2.98720E+03  1.73836E+04  1.46520E+04  8.20458E+03  2.28344E+04
 -4.14358E+03  2.40307E+04 -1.60867E+04  1.53384E+04 -1.79919E+04  3.34113E+03 -1.21694E+04 -4.11827E+03
 -5.99034E+03 -5.71625E+03 -7.61032E+02  5.87159E+02 -2.14640E+03  3.08782E+03 -5.78165E+03  4.47884E+03
 -1.13588E+04 -3.35090E+02 -1.22312E+04 -9.62970E+03 -4.57531E+03 -1.59114E+04  5.21448E+03 -1.25821E+04
  1.06283E+04 -5.59662E+03  7.21783E+03  3.94835E+03  1.71910E+02  4.65728E+03 -5.73657E+03  3.16936E+02
 -5.82393E+03 -7.75800E+03 -1.11597E+03 -1.21623E+04  7.20952E+03 -1.23717E+04  1.52616E+04 -6.52808E+03
  1.88482E+04  1.84085E+03  1.35224E+04  1.07708E+04  1.86074E+03  1.53031E+04 -7.25853E+03  1.22525E+04
 -9.84213E+03  3.83511E+03 -5.99627E+03 -3.07592E+03  2.11368E+03 -3.70189E+03  6.53893E+03 -8.04948E+02
  6.21586E+03  4.89205E+03  1.38780E+03  9.11059E+03 -6.42549E+03  9.30218E+03 -1.22053E+04  2.75690E+03
 -8.46061E+03 -5.64075E+03  2.41029E+02 -1.06961E+04  6.65883E+03 -5.57692E+03  6.35196E+03  2.81489E+03
  1.75021E+03  6.85054E+03 -6.75615E+03  8.84127E+03 -1.02119E+04  3.64607E+03 -9.78645E+03 -3.24003E+03
 -5.97323E+03 -1.13090E+04  2.71388E+03 -1.29213E+04  1.09835E+04 -8.56590E+03  1.26524E+04  2.23391E+03
  7.67800E+03  1.06134E+04 -6.71705E+02  1.18122E+04 -8.81312E+03  7.36775E+03 -9.23769E+03 -9.74019E+02
 -7.93887E+03 -8.55042E+03 -1.24238E+03 -9.24080E+03  4.85268E+03 -7.76566E+03  6.07681E+03 -3.64162E+03
  3.21376E+03  9.58877E+02  7.01736E+01  1.69838E+03  5.28976E+01 -1.85832E+03  1.25623E+03 -5.20179E+03
  8.20919E+03 -2.70510E+03  1.12319E+04  9.10776E+02  1.14398E+04  7.24025E+03  7.80148E+03  1.42566E+04
 -3.38840E+03  1.67014E+04 -1.39031E+04  1.24230E+04 -1.84182E+04  2.72380E+03 -1.51295E+04 -6.46478E+03
 -7.46900E+03 -1.25274E+04 -5.38161E+02 -1.03009E+04  4.03110E+03 -5.78453E+03  3.51320E+03 -4.13139E+03
  3.09244E+03 -2.72357E+03  2.76869E+03 -3.08795E+03  4.47111E+03 -2.51333E+03  6.23162E+03 -4.89550E+02
  8.72697E+03  1.12098E+03  3.39890E+03  6.39121E+03 -1.27864E+03  7.81745E+03 -8.23543E+03  5.98753E+03
 -1.12543E+04 -1.56584E+03 -6.11722E+03 -7.23988E+03 -2.85364E+02 -1.15203E+04  5.80175E+03 -1.08071E+04
  1.15314E+04 -6.26496E+03  1.37892E+04  1.70784E+03  1.01143E+04  9.34341E+03  1.57515E+03  1.19402E+04
 -5.67982E+03  1.08495E+04 -7.44477E+03  3.97171E+03 -4.69976E+03 -1.87919E+03 -1.59530E+03 -1.42679E+03
 -1.48804E+03  3.80864E+02 -2.44710E+03  3.12213E+03 -4.48768E+03  2.01217E+03 -6.70631E+03 -6.24622E+02
 -4.89066E+03 -7.61557E+03 -1.63514E+02 -1.01455E+04  6.30474E+03 -9.08784E+03  9.51923E+03 -2.27368E+03
  9.41108E+03  4.45934E+03  4.11556E+03  8.48748E+03 -1.64024E+03  1.02157E+04 -7.39050E+03  5.67708E+03
 -9.64520E+03  1.09352E+03 -7.16312E+03 -5.82208E+03 -7.02521E+02 -8.62243E+03  4.67555E+03 -6.04152E+03
  6.25287E+03 -2.88090E+03  4.74252E+03  9.85441E+02  1.85219E+03  3.28556E+03  1.19061E+03  1.05593E+03
  1.97467E+03  8.45011E+02  2.76030E+03  2.34815E+03  3.42508E+03  4.07890E+03  2.30821E+03  5.43827E+03
 -2.55293E+03  8.05622E+03 -6.19125E+03  7.97011E+03 -1.01840E+04  2.03058E+03 -1.06111E+04 -3.22063E+03
 -5.35718E+03 -9.57712E+03  1.39726E+03 -1.08536E+04  5.82985E+03 -6.81327E+03  7.29445E+03 -2.14609E+03
  5.87697E+03  4.16102E+03  1.31520E+03  5.50149E+03 -2.17827E+03  3.68803E+03 -3.37284E+03 -5.96673E+02
 -1.65806E+03 -3.98133E+03  2.18852E+03 -4.26541E+03  4.24803E+03 -2.02428E+03  4.02783E+03  3.07878E+02
  2.71643E+03  1.11625E+03  1.31364E+03  1.23285E+03 -8.60414E+02  1.41424E+03  1.63852E+03 -9.82243E+00
  1.44779E+03 -3.30840E+02  4.22051E+03  1.45278E+03  2.21965E+03  4.81163E+03 -1.22511E+03  7.13803E+03
 -4.55531E+03  5.23055E+03 -6.30544E+03  1.31984E+03 -5.89290E+03 -2.28490E+03 -2.14893E+03 -3.54905E+03
  4.74211E+02 -3.75946E+03  2.43572E+03 -1.53620E+03  2.22022E+03  2.36062E+03 -8.09652E+02  2.76209E+03
 -4.01178E+03  2.05324E+03 -4.18122E+03 -3.21545E+03 -2.36603E+03 -5.55410E+03  1.02560E+03 -5.20858E+03
  3.31220E+03 -3.03186E+03  3.63017E+03 -6.45657E+02  2.97998E+03  9.42339E+02  4.89964E+02  2.63932E+03
 -2.04178E+03  8.95741E+02 -2.28878E+03 -1.61788E+03  4.46956E+02 -4.08802E+03  4.37219E+03 -3.66470E+03
  5.61098E+03  3.59888E+02  6.55601E+03  3.48374E+03  2.19067E+03  6.69903E+03 -2.61485E+03  5.72635E+03
 -5.19530E+03  2.41049E+03 -5.01117E+03  6.13011E+01 -2.86563E+03 -4.31987E+03  8.26194E+02 -3.30305E+03
  4.01197E+03 -2.32680E+03  3.36646E+03  1.32473E+03  1.73120E+03  3.25145E+03 -1.11784E+03  3.69105E+03
 -6.81526E+02  1.22774E+03 -1.30933E+03  1.43079E+03 -9.08248E+02  4.30295E+02 -1.08671E+03  1.40213E+03
 -1.78987E+03  2.26867E+03 -4.16008E+03  1.63797E+03 -5.85128E+03  1.24176E+02 -7.03784E+03 -3.70684E+03
 -3.69535E+03 -7.35057E+03  1.92156E+03 -8.51621E+03  5.42539E+03 -6.91492E+03  8.43123E+03 -2.31214E+03
  8.43049E+03  1.43854E+03  4.26364E+03  5.17932E+03  6.07306E+02  4.95709E+03 -3.10647E+03  4.11931E+03
 -3.06485E+03  2.22799E+03 -1.99964E+03 -4.08945E+02 -3.57363E+02 -1.73048E+02 -3.45416E+02 -5.78399E+02
 -1.26548E+03  5.60668E+02 -2.00362E+03  9.32885E+01 -4.71939E+02 -1.96154E+03  2.21637E+02 -2.65479E+03
  2.79666E+03 -2.52384E+03  2.73493E+03  2.37954E+02  4.23363E+03  2.83402E+03  6.16559E+02  6.08988E+03
 -3.62301E+03  6.55759E+03 -6.70246E+03  4.23510E+03 -6.84572E+03 -2.16453E+02 -4.62147E+03 -3.72841E+03
 -2.06290E+03 -5.50388E+03  1.55722E+03 -5.22904E+03  3.84648E+03 -2.50493E+03  3.93292E+03  1.88254E+02
  3.01931E+03  1.68440E+03  1.12208E+02  1.46221E+03 -9.83686E+02 -2.30505E+02 -1.56076E+02 -1.25716E+03
  1.58954E+03 -9.33700E+02  1.56704E+03  1.19857E+03  1.50711E+03  2.40486E+03 -4.72237E+02  2.71890E+03
 -2.49890E+03  2.18718E+03 -3.47032E+03  6.39757E+02 -3.28098E+03 -2.29793E+03 -7.03006E+02 -4.63757E+03
  2.46755E+03 -3.32239E+03  4.17140E+03 -8.36649E+02  4.55731E+03  2.12854E+02  2.15830E+03  3.20163E+03
  9.95407E+02  3.33444E+03 -9.25557E+02  2.93636E+03 -2.11973E+03  1.85395E+03 -2.25706E+03  3.10632E+02
 -9.99974E+02 -1.80605E+02 -1.19528E+03  2.10725E+02 -1.16358E+03  7.61089E+02 -2.28599E+03 -3.06879E+02
 -3.42318E+03 -1.43933E+03 -9.53487E+02 -3.80415E+03  1.98299E+03 -2.96557E+03  4.25969E+03 -2.56754E+03
  4.00448E+03  3.10570E+02  1.49886E+03  2.46231E+03 -7.14117E+02  3.82334E+03 -2.05758E+03  2.57470E+03
