 $NMID ID='MM_0lb_SNR400_10hz_g50_32.RAW', FMTDAT='(8E13.5)'
 TRAMP=1., VOLUME=1. $END
  3.09401E+05  1.88330E+02  3.37032E+05  2.50800E+05  8.53543E+04  3.38054E+05 -1.32243E+05  2.51898E+05
 -1.90629E+05  8.45706E+04 -1.12554E+05 -3.20289E+04  5.05721E+02 -5.07188E+04  5.39039E+04  2.50829E+02
  3.57876E+04  5.21236E+04 -1.71901E+04  7.57295E+04 -6.12424E+04  6.48954E+04 -8.52366E+04  3.23296E+04
 -8.18396E+04 -1.12747E+04 -5.82434E+04 -5.24684E+04 -1.44968E+04 -7.06427E+04  2.85799E+04 -4.69575E+04
  4.06251E+04  2.99645E+03  1.65766E+04  4.81137E+04 -3.40254E+04  4.79438E+04 -6.73820E+04  2.75966E+02
 -5.41992E+04 -5.76634E+04 -7.79112E+03 -7.93115E+04  3.44640E+04 -5.66491E+04  5.02167E+04 -1.76172E+04
  4.52590E+04  1.24747E+04  3.32632E+04  2.68493E+04  1.51941E+04  3.04952E+04 -5.87207E+03  2.76339E+04
 -2.25896E+04  1.23464E+04 -1.84897E+04 -5.13038E+03  6.60004E+03 -7.37754E+03  2.32199E+04  1.37091E+04
  7.01611E+03  3.69884E+04 -3.34370E+04  3.67477E+04 -6.51720E+04  2.00209E+03 -5.90245E+04 -4.47225E+04
 -1.30046E+04 -6.54008E+04  4.17818E+04 -4.69015E+04  6.12740E+04 -1.95458E+03  3.65473E+04  3.40621E+04
 -5.21353E+03  3.86286E+04 -3.15236E+04  1.77186E+04 -3.32258E+04 -4.32490E+03 -1.81188E+04 -1.16235E+04
 -9.74875E+03 -1.44774E+04 -8.74325E+02 -1.89195E+04  8.28179E+03 -2.33616E+04  1.57305E+04 -1.26820E+04
  9.65648E+03  5.49262E+03 -1.01691E+04  1.27473E+04 -2.30831E+04 -6.05780E+03 -8.48740E+03 -3.70468E+04
  2.44148E+04 -4.60858E+04  5.16986E+04 -2.07397E+04  4.80604E+04  2.03767E+04  1.62623E+04  4.66821E+04
 -1.63075E+04  3.56449E+04 -2.71807E+04  3.05399E+03 -1.19671E+04 -2.88606E+04  2.22306E+04 -3.67900E+04
  4.36599E+04 -1.09297E+04  3.90048E+04  2.49732E+04  2.04206E+04  5.05359E+04 -7.87308E+03  5.46138E+04
 -3.53066E+04  3.72032E+04 -4.71456E+04  1.04000E+04 -4.68093E+04 -1.79842E+04 -2.53797E+04 -4.10426E+04
  7.71406E+03 -4.04202E+04  3.43892E+04 -1.57877E+04  3.07284E+04  1.10339E+04  4.13717E+03  2.09124E+04
 -1.38394E+04  9.82190E+03 -1.12341E+04 -7.89867E+03  5.76823E+03 -1.14333E+04  1.88323E+04  5.80314E+03
  1.46859E+04  2.22503E+04 -5.29747E+03  2.70770E+04 -2.27983E+04  1.39074E+04 -3.03429E+04 -3.39020E+03
 -2.45862E+04 -1.86677E+04 -1.10907E+04 -2.42347E+04  4.40233E+03 -2.40802E+04  1.92628E+04 -2.22172E+04
  3.15112E+04 -1.33634E+04  3.66723E+04  4.80721E+03  2.59566E+04  2.26804E+04  4.45792E+03  4.01101E+04
 -1.94981E+04  3.31728E+04 -3.01493E+04  1.18517E+04 -2.26103E+04 -9.60714E+03 -4.43640E+03 -1.22785E+04
  1.77536E+03 -1.15848E+03 -6.64446E+03  8.38711E+03 -1.96360E+04  5.34510E+03 -1.90119E+04 -8.49969E+03
 -1.23137E+04 -2.16088E+04  6.01470E+03 -2.69090E+04  1.77982E+04 -1.82717E+04  2.20591E+04 -1.60364E+03
  1.44193E+04  1.58038E+04 -2.05605E+03  2.18150E+04 -1.53623E+04  1.27987E+04 -2.23861E+04 -4.49175E+03
 -1.69981E+04 -1.97577E+04 -1.93117E+03 -2.70712E+04  1.20744E+04 -2.19747E+04  2.24342E+04 -1.22665E+04
  2.09368E+04 -5.29279E+02  1.50212E+04  5.27954E+03  7.97554E+03  1.25035E+03  1.10400E+04 -1.57809E+03
  2.05434E+04  2.65184E+03  2.44988E+04  1.78487E+04  1.64096E+04  3.61516E+04 -3.11362E+03  4.21067E+04
 -2.41172E+04  3.53804E+04 -3.96763E+04  1.84919E+04 -4.23985E+04 -2.95029E+03 -3.44561E+04 -2.45029E+04
 -1.30509E+04 -3.51017E+04  1.30025E+04 -3.06443E+04  2.63365E+04 -1.46458E+04  2.29578E+04  7.75458E+03
  7.89107E+03  1.76357E+04 -1.05471E+04  1.54871E+04 -1.93287E+04  3.19396E+03 -1.44262E+04 -1.18184E+04
 -6.94880E+01 -1.78318E+04  9.92257E+03 -1.38120E+04  1.24888E+04 -6.25202E+02  3.15921E+03  7.56474E+03
 -7.77511E+03  3.76616E+03 -7.35119E+03 -7.13687E+03 -2.34986E+03 -1.73011E+04  1.13691E+04 -1.93978E+04
  2.17624E+04 -1.05217E+04  2.44390E+04  3.40190E+03  2.13486E+04  1.77884E+04  9.29031E+03  2.69570E+04
 -5.10415E+03  2.86608E+04 -1.88135E+04  1.73190E+04 -2.06377E+04  3.72788E+03 -1.47417E+04 -5.57054E+03
 -5.60533E+03 -6.98206E+03 -1.28192E+03  4.27138E+02 -2.89745E+03  3.36987E+03 -6.60052E+03  5.27397E+03
 -1.32316E+04 -8.06607E+02 -1.45553E+04 -1.14694E+04 -5.48061E+03 -1.83332E+04  5.66922E+03 -1.51515E+04
  1.25753E+04 -6.06698E+03  8.56126E+03  3.45516E+03  1.08996E+02  5.15404E+03 -7.64846E+03 -3.70714E+02
 -7.48898E+03 -9.85228E+03 -1.27074E+03 -1.35838E+04  8.52299E+03 -1.57458E+04  1.85554E+04 -8.22628E+03
  2.12371E+04  2.54932E+03  1.60538E+04  1.31151E+04  3.43199E+03  1.73722E+04 -9.43872E+03  1.46826E+04
 -1.16216E+04  3.56488E+03 -6.63721E+03 -2.64264E+03  1.88593E+03 -3.38575E+03  7.22979E+03 -4.99560E+02
  7.59785E+03  6.91953E+03  1.91311E+03  1.13235E+04 -8.86416E+03  1.18776E+04 -1.45538E+04  2.19245E+03
 -1.00711E+04 -7.30126E+03  4.40155E+02 -1.19941E+04  7.44451E+03 -6.14944E+03  8.65432E+03  3.45007E+03
  2.09108E+03  9.42577E+03 -8.19792E+03  9.98757E+03 -1.39523E+04  5.14239E+03 -1.20748E+04 -5.35700E+03
 -7.48623E+03 -1.40579E+04  3.32982E+03 -1.70324E+04  1.40737E+04 -9.57455E+03  1.57115E+04  2.25051E+03
  8.89820E+03  1.23595E+04 -1.61747E+03  1.44294E+04 -1.09684E+04  8.06194E+03 -1.15750E+04 -1.09139E+03
 -9.78276E+03 -9.80852E+03 -1.84695E+03 -1.08971E+04  5.42893E+03 -9.74624E+03  6.91007E+03 -3.37864E+03
  4.85691E+03  2.52033E+03 -6.43723E+02  2.08435E+03 -4.26632E+02 -2.70067E+03  2.38085E+03 -6.62191E+03
  1.07336E+04 -3.98277E+03  1.47513E+04  1.52660E+03  1.42935E+04  9.62254E+03  9.61720E+03  1.90795E+04
 -4.12461E+03  2.22028E+04 -1.75135E+04  1.67063E+04 -2.38704E+04  3.63596E+03 -1.85092E+04 -8.68708E+03
 -9.79637E+03 -1.57192E+04 -8.69139E+02 -1.41843E+04  5.57113E+03 -7.24595E+03  4.45572E+03 -4.86997E+03
  3.55309E+03 -2.28697E+03  3.03592E+03 -4.50022E+03  6.16653E+03 -3.40682E+03  7.00769E+03 -8.40244E+02
  9.81683E+03  2.16666E+03  4.58200E+03  9.08621E+03 -2.18922E+03  1.03300E+04 -9.78885E+03  7.91370E+03
 -1.33792E+04 -1.81872E+03 -8.76966E+03 -1.00050E+04 -1.81475E+03 -1.42384E+04  6.77296E+03 -1.45245E+04
  1.47252E+04 -7.29253E+03  1.78990E+04  2.96651E+03  1.23163E+04  1.16466E+04  1.80275E+03  1.58105E+04
 -7.13668E+03  1.32670E+04 -9.57401E+03  4.75505E+03 -5.82607E+03 -1.63645E+03 -2.86838E+03 -2.21330E+03
 -1.45297E+03 -4.47464E+02 -2.28975E+03  2.90437E+03 -5.91504E+03  1.17373E+03 -8.55552E+03 -1.72519E+03
 -6.38460E+03 -8.71698E+03  3.35087E+02 -1.21157E+04  7.83410E+03 -1.16997E+04  1.28586E+04 -2.89923E+03
  1.28395E+04  6.06719E+03  6.46735E+03  1.17410E+04 -2.23374E+03  1.32204E+04 -9.29986E+03  7.89844E+03
 -1.29068E+04  1.91743E+01 -9.43306E+03 -6.96125E+03 -6.87572E+02 -1.03987E+04  5.31766E+03 -8.03739E+03
  8.15668E+03 -2.82200E+03  6.30763E+03  1.84145E+03  2.57016E+03  4.27045E+03  6.19996E+02  2.09899E+03
  2.29711E+03  5.87689E+02  2.89519E+03  2.37370E+03  4.39227E+03  4.92525E+03  3.69646E+03  6.60240E+03
 -2.56355E+03  1.04964E+04 -9.08632E+03  1.07470E+04 -1.29280E+04  2.94249E+03 -1.36771E+04 -5.46322E+03
 -6.45150E+03 -1.33566E+04  2.67391E+03 -1.49836E+04  7.76557E+03 -9.06365E+03  1.14546E+04 -2.28871E+03
  9.10157E+03  4.75095E+03  2.08494E+03  7.30456E+03 -4.18736E+03  4.48137E+03 -5.56249E+03 -2.10559E+02
 -2.59194E+03 -6.13437E+03  3.36037E+03 -6.09088E+03  6.06811E+03 -2.57451E+03  6.01516E+03  1.03103E+03
  2.97917E+03  2.69643E+03  7.43234E+02  1.85757E+03 -1.27917E+02  9.61296E+02  2.11777E+03 -9.23980E+02
  2.19371E+03 -7.20407E+02  5.45816E+03  2.43211E+03  3.29899E+03  7.89600E+03 -1.17383E+03  9.47964E+03
 -6.75218E+03  5.86762E+03 -8.16117E+03  2.38486E+03 -7.68594E+03 -2.80934E+03 -2.68700E+03 -5.48307E+03
  1.02027E+03 -5.09873E+03  2.90279E+03 -3.01913E+03  3.04527E+03  2.53091E+03 -1.36597E+03  4.77191E+03
 -5.84904E+03  2.49743E+03 -6.36195E+03 -3.27167E+03 -4.04025E+03 -7.68369E+03  7.78991E+02 -6.98845E+03
  3.89730E+03 -4.46630E+03  5.21202E+03 -4.33417E+02  4.29218E+03  1.76356E+03  8.18356E+02  4.09970E+03
 -1.86224E+03  1.97919E+03 -2.93541E+03 -2.45441E+03  1.59448E+03 -5.60028E+03  6.30415E+03 -4.23349E+03
  8.30990E+03  1.02221E+03  8.72105E+03  6.08857E+03  3.03891E+03  9.17898E+03 -2.85726E+03  7.99829E+03
 -6.80014E+03  2.62937E+03 -7.42561E+03 -1.13840E+03 -3.82846E+03 -5.79203E+03  1.54797E+03 -4.69489E+03
  5.68915E+03 -2.55007E+03  3.54937E+03  2.20220E+03  1.51306E+03  4.14480E+03 -5.43674E+02  4.58586E+03
 -1.78729E+03  3.12912E+03 -2.64323E+03  3.29284E+02 -1.35479E+03  1.01149E+03 -1.73111E+03  1.80626E+03
 -2.25047E+03  2.75572E+03 -5.90772E+03  2.43779E+03 -8.27828E+03  4.26557E+02 -1.02148E+04 -5.99031E+03
 -4.53205E+03 -1.12460E+04  2.61134E+03 -1.33149E+04  7.71615E+03 -1.03033E+04  1.18703E+04 -3.77491E+03
  1.24957E+04  2.27313E+03  6.72441E+03  8.06805E+03  3.18583E+02  8.93438E+03 -3.53898E+03  6.26825E+03
 -5.47526E+03  2.80939E+03 -3.24089E+03 -1.86622E+03 -5.88347E+02 -1.07086E+03 -3.26140E+02  4.17916E+00
 -1.05602E+03 -1.27958E+02 -2.97784E+03 -1.33773E+02 -6.36705E+02 -1.88194E+03 -7.16213E+01 -3.67946E+03
  4.35102E+03 -2.69683E+03  5.27355E+03  6.34392E+02  5.99451E+03  5.69915E+03  1.80421E+03  7.88407E+03
 -4.36569E+03  1.01143E+04 -9.19066E+03  5.77515E+03 -1.06036E+04 -7.63752E+02 -7.67039E+03 -6.28424E+03
 -2.71558E+03 -9.04203E+03  2.07473E+03 -8.37530E+03  5.39075E+03 -4.79422E+03  6.32317E+03  4.48571E+02
  2.98860E+03  3.12927E+03  2.61200E+02  2.79128E+03 -1.74595E+03  2.37510E+01  4.49643E+02 -2.14950E+03
  2.45771E+03 -7.83022E+02  2.93493E+03  1.08800E+03  2.46767E+03  3.33173E+03 -1.43960E+02  4.14985E+03
 -3.46714E+03  3.83040E+03 -5.15339E+03  1.73334E+02 -5.18539E+03 -4.91760E+03 -1.14902E+03 -7.06978E+03
  3.72765E+03 -6.60136E+03  5.73250E+03 -2.10480E+03  6.97809E+03  1.35425E+03  4.05489E+03  5.46379E+03
  9.24400E+02  6.13169E+03 -2.18719E+03  5.21220E+03 -3.36742E+03  3.07521E+03 -3.21188E+03 -1.26371E+02
 -1.02879E+03 -3.25522E+02 -1.74088E+03 -1.01358E+02 -2.91269E+03  1.01948E+03 -5.35329E+03 -1.29702E+03
 -4.26461E+03 -2.99143E+03 -1.08518E+03 -5.48223E+03  3.45331E+03 -7.37263E+03  5.18038E+03 -3.39513E+03
  5.32802E+03  1.03090E+03  2.48750E+03  4.11676E+03 -6.09821E+02  5.07187E+03 -5.06622E+03  3.67080E+03
