 $NMID ID='MM_0lb_SNR400_14hz_g55_40.RAW', FMTDAT='(8E13.5)'
 TRAMP=1., VOLUME=1. $END
  3.09903E+05  7.51337E+02  3.37531E+05  2.50588E+05  8.48279E+04  3.37894E+05 -1.33193E+05  2.51613E+05
 -1.90335E+05  8.38132E+04 -1.12005E+05 -3.30372E+04  8.40455E+02 -5.02275E+04  5.36127E+04 -1.12027E+02
  3.53345E+04  5.22035E+04 -1.65747E+04  7.54215E+04 -6.07135E+04  6.42360E+04 -8.44907E+04  3.23207E+04
 -8.19239E+04 -1.13254E+04 -5.79539E+04 -5.20734E+04 -1.53367E+04 -6.98042E+04  2.79319E+04 -4.54346E+04
  4.03576E+04  3.29846E+03  1.67339E+04  4.79686E+04 -3.43155E+04  4.77638E+04 -6.72733E+04 -6.47549E+01
 -5.36931E+04 -5.70456E+04 -7.09591E+03 -7.70105E+04  3.40841E+04 -5.51729E+04  4.81830E+04 -1.72276E+04
  4.35779E+04  1.17838E+04  3.21902E+04  2.64589E+04  1.62962E+04  3.01084E+04 -5.38223E+03  2.75166E+04
 -2.15328E+04  1.23497E+04 -1.89490E+04 -4.54230E+03  5.88704E+03 -7.38507E+03  2.26829E+04  1.17895E+04
  7.15559E+03  3.53623E+04 -3.23121E+04  3.64584E+04 -6.39957E+04  2.18666E+03 -5.74056E+04 -4.31918E+04
 -1.23878E+04 -6.36496E+04  3.98476E+04 -4.55505E+04  5.85365E+04 -1.85107E+03  3.42587E+04  3.23857E+04
 -5.73401E+03  3.64899E+04 -3.06632E+04  1.65928E+04 -3.09956E+04 -4.37652E+03 -1.74240E+04 -1.10532E+04
 -8.71700E+03 -1.34128E+04 -9.08957E+02 -1.82614E+04  7.98341E+03 -2.31049E+04  1.50299E+04 -1.32455E+04
  1.17931E+04  5.37790E+03 -8.28795E+03  1.35766E+04 -2.18753E+04 -4.98659E+03 -8.76477E+03 -3.45312E+04
  2.24428E+04 -4.44149E+04  4.92150E+04 -1.99625E+04  4.56765E+04  1.93187E+04  1.53862E+04  4.48647E+04
 -1.62403E+04  3.42912E+04 -2.59048E+04  1.97612E+03 -1.05076E+04 -2.76930E+04  2.11176E+04 -3.48995E+04
  4.15325E+04 -9.88459E+03  3.67890E+04  2.39604E+04  1.90774E+04  4.67752E+04 -8.10488E+03  5.17350E+04
 -3.18785E+04  3.40326E+04 -4.26834E+04  9.27876E+03 -4.35377E+04 -1.66255E+04 -2.41239E+04 -3.82229E+04
  7.18048E+03 -3.91717E+04  3.18573E+04 -1.48334E+04  2.97909E+04  1.14952E+04  4.51881E+03  1.92714E+04
 -1.38745E+04  8.85198E+03 -1.12509E+04 -7.53607E+03  5.38758E+03 -1.07676E+04  1.84604E+04  5.84551E+03
  1.38270E+04  2.21253E+04 -5.46300E+03  2.54708E+04 -2.24377E+04  1.14711E+04 -2.85104E+04 -4.24486E+03
 -2.15890E+04 -1.73982E+04 -8.46451E+03 -2.08161E+04  4.20092E+03 -2.05518E+04  1.67022E+04 -1.89128E+04
  2.71048E+04 -1.29159E+04  3.34372E+04  3.23023E+03  2.41826E+04  2.09215E+04  3.93129E+03  3.72724E+04
 -1.81976E+04  3.07987E+04 -2.87640E+04  1.12897E+04 -2.14158E+04 -1.00510E+04 -5.06773E+03 -1.33720E+04
  1.61877E+03 -2.73036E+03 -4.92057E+03  6.65824E+03 -1.67896E+04  5.17426E+03 -1.71594E+04 -7.12614E+03
 -1.09504E+04 -1.94653E+04  5.51931E+03 -2.42413E+04  1.56212E+04 -1.70006E+04  1.84552E+04 -2.26074E+03
  1.17144E+04  1.36856E+04 -1.09202E+03  1.98326E+04 -1.36283E+04  1.11948E+04 -1.96999E+04 -4.52807E+03
 -1.45002E+04 -1.79480E+04 -1.56956E+03 -2.39397E+04  1.05120E+04 -1.93391E+04  2.03218E+04 -9.92216E+03
  1.86471E+04  1.64667E+02  1.35717E+04  4.06900E+03  6.72765E+03  6.09227E+02  1.01665E+04 -1.43212E+03
  1.82007E+04  2.84272E+03  2.01191E+04  1.59211E+04  1.30571E+04  3.07617E+04 -3.17246E+03  3.50454E+04
 -2.06519E+04  2.85782E+04 -3.31303E+04  1.48779E+04 -3.48745E+04 -2.48805E+03 -2.81976E+04 -2.08654E+04
 -1.21495E+04 -2.81516E+04  9.98231E+03 -2.56873E+04  2.22622E+04 -1.26983E+04  1.97711E+04  5.59751E+03
  7.43884E+03  1.44326E+04 -8.94620E+03  1.32123E+04 -1.61419E+04  2.94117E+03 -1.26075E+04 -1.07417E+04
 -3.46702E+02 -1.60687E+04  8.39493E+03 -1.20487E+04  1.07036E+04 -1.83656E+03  2.28934E+03  6.78493E+03
 -7.39992E+03  2.39948E+03 -6.52870E+03 -6.10621E+03 -5.73766E+02 -1.38870E+04  9.75230E+03 -1.47335E+04
  1.69986E+04 -8.16076E+03  1.87379E+04  3.28472E+03  1.64896E+04  1.35628E+04  7.62737E+03  2.16572E+04
 -3.91110E+03  2.29463E+04 -1.47304E+04  1.38387E+04 -1.66000E+04  3.31973E+03 -1.20386E+04 -3.73891E+03
 -5.39044E+03 -5.35243E+03 -3.67391E+02  1.02702E+03 -2.84878E+03  2.22885E+03 -5.21360E+03  4.32468E+03
 -1.09913E+04 -1.53516E+02 -1.15756E+04 -9.14154E+03 -4.83310E+03 -1.44455E+04  4.09503E+03 -1.17033E+04
  1.02514E+04 -5.10664E+03  6.68225E+03  2.93023E+03  8.27814E+01  4.52434E+03 -5.40774E+03 -3.13748E+02
 -5.68391E+03 -7.54991E+03 -9.19402E+02 -1.09868E+04  6.38946E+03 -1.19742E+04  1.42113E+04 -6.11617E+03
  1.70022E+04  1.29166E+03  1.28690E+04  1.01128E+04  2.63798E+03  1.39812E+04 -7.80583E+03  1.11451E+04
 -9.87398E+03  3.26364E+03 -5.01685E+03 -2.01182E+03  1.87036E+03 -2.58503E+03  6.24461E+03 -9.58604E+02
  5.78147E+03  4.97352E+03  1.48784E+03  8.40617E+03 -6.89991E+03  8.48813E+03 -1.15435E+04  1.78539E+03
 -7.57816E+03 -5.74034E+03  3.56844E+02 -9.59300E+03  5.47407E+03 -4.73458E+03  6.14544E+03  1.78477E+03
  1.68796E+03  6.06087E+03 -6.14545E+03  7.58552E+03 -9.00179E+03  2.80990E+03 -8.29080E+03 -2.51209E+03
 -5.60312E+03 -1.00938E+04  2.43586E+03 -1.18882E+04  9.45569E+03 -7.74307E+03  1.07914E+04  2.03336E+03
  6.96327E+03  8.57344E+03 -5.22778E+02  1.09719E+04 -7.50207E+03  6.11297E+03 -8.59198E+03 -3.36629E+02
 -7.89151E+03 -7.38811E+03 -1.87043E+03 -7.88841E+03  3.93060E+03 -6.83332E+03  5.20754E+03 -3.38566E+03
  4.00371E+03  9.14866E+02 -7.49596E+02  1.67703E+03  1.94014E+02 -1.88085E+03  1.00945E+03 -4.36640E+03
  7.42612E+03 -2.92880E+03  1.06216E+04  9.27322E+02  9.84724E+03  6.54489E+03  8.02628E+03  1.28886E+04
 -3.20967E+03  1.44831E+04 -1.25691E+04  1.12132E+04 -1.63635E+04  1.95420E+03 -1.29102E+04 -5.10643E+03
 -6.73548E+03 -1.18191E+04 -2.35202E+02 -9.40353E+03  2.93149E+03 -4.56236E+03  2.75277E+03 -3.24279E+03
  2.08578E+03 -2.43199E+03  2.74316E+03 -2.55873E+03  4.21517E+03 -2.15242E+03  4.85592E+03 -8.03525E+02
  7.21772E+03  1.60780E+03  2.63993E+03  5.51551E+03 -1.54349E+03  6.89877E+03 -7.09031E+03  4.84109E+03
 -8.60279E+03 -1.47330E+03 -4.60863E+03 -6.41388E+03  6.24852E+02 -9.84391E+03  5.16865E+03 -9.42410E+03
  9.60697E+03 -5.80794E+03  1.21090E+04  1.38653E+03  7.72332E+03  8.07634E+03  1.54709E+03  1.02906E+04
 -3.75855E+03  1.00271E+04 -6.19406E+03  3.15805E+03 -3.19800E+03 -1.35161E+03 -1.46145E+03 -8.87563E+02
 -8.09692E+02 -6.39399E+02 -1.48151E+03  2.34555E+03 -4.10890E+03  1.40778E+03 -6.17943E+03 -7.14983E+02
 -3.04796E+03 -6.56121E+03 -3.35502E+02 -8.62601E+03  5.00878E+03 -8.36391E+03  8.21916E+03 -2.94352E+03
  8.12200E+03  4.68016E+03  3.84985E+03  7.28269E+03 -1.25049E+03  8.65233E+03 -5.66423E+03  5.87440E+03
 -7.68131E+03  1.01353E+03 -6.41955E+03 -5.01016E+03 -8.98236E+02 -6.95118E+03  4.41482E+03 -4.79485E+03
  5.23740E+03 -2.22383E+03  3.17784E+03  7.90482E+02  1.13506E+03  3.06064E+03  1.14947E+03  8.88710E+02
  2.15736E+03  9.43125E+02  1.81128E+03  1.81858E+03  2.58455E+03  3.48538E+03  1.71967E+03  4.54695E+03
 -1.87124E+03  6.29065E+03 -5.65075E+03  6.89816E+03 -6.85391E+03  1.94537E+03 -8.48070E+03 -2.99107E+03
 -4.06782E+03 -7.61109E+03  1.29777E+03 -8.98648E+03  4.70599E+03 -5.70561E+03  6.26953E+03 -1.38533E+03
  4.79712E+03  3.24210E+03  1.04583E+03  5.09166E+03 -1.54669E+03  2.72261E+03 -2.97076E+03 -7.16001E+02
 -1.29355E+03 -3.62916E+03  2.23861E+03 -3.35323E+03  3.08660E+03 -1.48770E+03  3.54995E+03 -1.24610E+02
  1.92349E+03  9.53563E+02  1.11894E+03  1.15482E+03 -3.81850E+02  1.04588E+03  1.18475E+03 -7.15030E+02
  9.93925E+02 -4.91437E+02  2.76330E+03  1.21468E+03  1.39630E+03  4.12645E+03 -1.05458E+03  6.12652E+03
 -3.71439E+03  3.09223E+03 -4.66506E+03  8.58173E+02 -4.60121E+03 -1.67133E+03 -1.65696E+03 -3.30335E+03
  1.93382E+02 -3.14365E+03  1.78197E+03 -1.20090E+03  1.89384E+03  1.82043E+03 -9.71382E+02  1.74237E+03
 -2.89897E+03  1.32289E+03 -3.52318E+03 -2.72669E+03 -2.17548E+03 -3.98641E+03  2.04879E+02 -3.97049E+03
  1.61161E+03 -1.88638E+03  2.22762E+03  2.18044E+02  2.48083E+03  5.16393E+02  8.32174E+02  2.30070E+03
 -1.61700E+03  8.56196E+02 -2.40926E+03 -1.29444E+03  6.32710E+02 -3.09354E+03  4.38095E+03 -2.41322E+03
  3.98468E+03  8.15246E+02  5.10318E+03  2.26975E+03  1.72877E+03  4.31541E+03 -1.26295E+03  3.85730E+03
 -3.59343E+03  1.47446E+03 -3.88550E+03 -9.49486E+02 -1.91981E+03 -3.46097E+03  6.48857E+02 -2.77743E+03
  2.93058E+03 -1.70943E+03  1.83531E+03  1.42286E+03  1.03727E+03  2.92540E+03 -2.58867E+02  2.23728E+03
 -1.27171E+03  1.99128E+03 -1.23896E+03  5.45969E+02  2.94829E+02  4.58750E+02 -5.09974E+02  5.29947E+02
 -9.40431E+02  1.87620E+03 -3.33885E+03  1.15204E+03 -4.20550E+03 -3.24995E+01 -4.95561E+03 -2.82445E+03
 -2.70375E+03 -5.91593E+03  1.08695E+03 -6.77822E+03  3.83363E+03 -4.71724E+03  5.90883E+03 -1.40960E+03
  5.60915E+03  5.46606E+02  3.22237E+03  4.45402E+03 -6.30880E+02  3.92789E+03 -1.58896E+03  3.32875E+03
 -2.16295E+03  1.54267E+03 -1.12541E+03 -4.14484E+02 -4.27418E+02  1.02897E+01 -1.00009E+03  2.38734E+02
 -8.65223E+02  5.24504E+02 -1.80347E+03  5.70988E+02 -9.67632E+01 -1.21393E+03 -2.35412E+02 -1.67948E+03
  2.38821E+03 -1.36464E+03  1.83425E+03 -8.05915E+01  2.93014E+03  2.48873E+03  6.04080E+02  4.36176E+03
 -2.11454E+03  5.36537E+03 -4.63151E+03  3.36247E+03 -4.89411E+03 -1.01603E+03 -3.63919E+03 -3.21332E+03
 -2.23272E+03 -3.95871E+03  6.05351E+02 -3.12491E+03  2.32348E+03 -1.67536E+03  2.38744E+03 -6.39194E+01
  1.74707E+03  2.02353E+03 -1.50380E+02  1.06669E+03 -1.23075E+03 -2.41781E+02  1.57258E+02 -8.53964E+02
  1.97793E+03 -5.72768E+02  1.51528E+03  4.29034E+02  8.34496E+02  1.63906E+03  8.91886E+02  1.62857E+03
 -1.76063E+03  2.29258E+03 -3.55394E+03  1.67284E+02 -2.05236E+03 -1.49862E+03 -9.71488E+02 -3.57095E+03
  1.93894E+03 -2.68037E+03  2.59230E+03 -5.36002E+02  2.89661E+03 -2.59198E+02  1.09497E+03  3.14881E+03
  2.67013E+02  1.80151E+03 -6.78733E+02  1.70449E+03 -1.24194E+03  8.97059E+02 -1.12204E+03  3.08483E+02
 -9.28252E+02  1.05241E+02 -4.22330E+02 -3.75737E+02 -1.83944E+03  3.84736E+02 -1.57512E+03 -6.12435E+02
 -1.95884E+03 -1.66275E+02 -3.59942E+02 -2.72993E+03  1.56144E+03 -3.37757E+03  2.36298E+03 -7.76623E+02
  2.84565E+03  4.08040E+02  1.18602E+03  1.16993E+03 -2.42963E+02  2.39136E+03 -1.35310E+03  1.36220E+03
