 $NMID ID='MM_0lb_SNR400_12hz_g45_66.RAW', FMTDAT='(8E13.5)'
 TRAMP=1., VOLUME=1. $END
  3.09656E+05  2.42556E+02  3.37843E+05  2.50904E+05  8.51883E+04  3.38314E+05 -1.32019E+05  2.51304E+05
 -1.90062E+05  8.33498E+04 -1.12058E+05 -3.20678E+04  4.82173E+02 -5.08526E+04  5.45509E+04  3.18675E+02
  3.55475E+04  5.29442E+04 -1.73434E+04  7.53853E+04 -6.15488E+04  6.40078E+04 -8.42721E+04  3.20798E+04
 -8.15677E+04 -1.08894E+04 -5.73775E+04 -5.13747E+04 -1.45352E+04 -7.03804E+04  2.71898E+04 -4.56281E+04
  4.00469E+04  3.83507E+03  1.57256E+04  4.82730E+04 -3.44863E+04  4.69942E+04 -6.69646E+04 -2.74669E+02
 -5.34745E+04 -5.72048E+04 -6.87254E+03 -7.79461E+04  3.35858E+04 -5.56163E+04  4.82326E+04 -1.78927E+04
  4.42596E+04  1.11121E+04  3.16813E+04  2.54269E+04  1.60611E+04  3.03581E+04 -5.95737E+03  2.76377E+04
 -2.24145E+04  1.30874E+04 -1.86021E+04 -5.60663E+03  5.94048E+03 -7.05611E+03  2.23099E+04  1.31838E+04
  7.26656E+03  3.59556E+04 -3.27869E+04  3.58830E+04 -6.41836E+04  2.55017E+03 -5.84100E+04 -4.39037E+04
 -1.26651E+04 -6.38700E+04  4.03536E+04 -4.63616E+04  5.86820E+04 -2.30466E+03  3.52062E+04  3.28805E+04
 -5.87901E+03  3.68128E+04 -3.03894E+04  1.68505E+04 -3.14969E+04 -4.65551E+03 -1.65643E+04 -1.12498E+04
 -8.69927E+03 -1.40041E+04 -8.03234E+02 -1.87925E+04  7.41616E+03 -2.26774E+04  1.57877E+04 -1.36435E+04
  1.11236E+04  5.11701E+03 -8.86121E+03  1.32479E+04 -2.14355E+04 -4.44528E+03 -8.88212E+03 -3.47269E+04
  2.39792E+04 -4.47182E+04  4.95346E+04 -2.00608E+04  4.62659E+04  1.98329E+04  1.57735E+04  4.49783E+04
 -1.60426E+04  3.43314E+04 -2.62552E+04  1.91804E+03 -1.09009E+04 -2.83503E+04  2.13307E+04 -3.46526E+04
  4.23902E+04 -9.25078E+03  3.72273E+04  2.36849E+04  1.87414E+04  4.76900E+04 -8.41326E+03  5.17270E+04
 -3.23759E+04  3.51045E+04 -4.30223E+04  9.54146E+03 -4.35420E+04 -1.68720E+04 -2.44851E+04 -3.81973E+04
  6.85899E+03 -3.92423E+04  3.18343E+04 -1.51308E+04  2.95435E+04  1.16838E+04  4.40456E+03  1.99234E+04
 -1.30746E+04  8.65444E+03 -1.06950E+04 -7.26013E+03  5.76098E+03 -1.11999E+04  1.78047E+04  5.72707E+03
  1.35299E+04  2.23177E+04 -6.10759E+03  2.61698E+04 -2.30981E+04  1.16236E+04 -2.94008E+04 -3.84920E+03
 -2.23985E+04 -1.82083E+04 -9.42082E+03 -2.16681E+04  4.04804E+03 -2.12249E+04  1.67286E+04 -1.95013E+04
  2.78914E+04 -1.31795E+04  3.45869E+04  3.67969E+03  2.48299E+04  2.13082E+04  3.96401E+03  3.73890E+04
 -1.89349E+04  3.15728E+04 -2.82037E+04  1.07524E+04 -2.19999E+04 -1.07874E+04 -4.80358E+03 -1.37817E+04
  1.20136E+03 -1.78942E+03 -5.21094E+03  7.50537E+03 -1.79838E+04  5.65366E+03 -1.80559E+04 -7.56573E+03
 -1.07139E+04 -2.05796E+04  5.36213E+03 -2.46567E+04  1.69866E+04 -1.72188E+04  1.85900E+04 -1.56576E+03
  1.24159E+04  1.43386E+04 -1.17318E+03  2.01278E+04 -1.39445E+04  1.15000E+04 -2.14124E+04 -3.61575E+03
 -1.50146E+04 -1.81630E+04 -1.69749E+03 -2.45976E+04  1.08570E+04 -2.08457E+04  2.04040E+04 -1.00326E+04
  1.85515E+04  2.20292E+02  1.41057E+04  5.23540E+03  7.48371E+03  1.00924E+03  1.06600E+04 -1.61477E+03
  1.94087E+04  2.41899E+03  2.15539E+04  1.57017E+04  1.39933E+04  3.26168E+04 -3.16646E+03  3.70659E+04
 -2.15134E+04  3.04337E+04 -3.46923E+04  1.55989E+04 -3.69690E+04 -1.92312E+03 -2.99458E+04 -2.14142E+04
 -1.26587E+04 -2.98891E+04  1.09244E+04 -2.70948E+04  2.31597E+04 -1.33505E+04  2.04778E+04  6.02389E+03
  7.73214E+03  1.55843E+04 -9.58393E+03  1.40045E+04 -1.70763E+04  2.57664E+03 -1.26208E+04 -1.06791E+04
 -2.23231E+02 -1.64166E+04  8.04838E+03 -1.27069E+04  1.13155E+04 -1.44997E+03  2.27704E+03  6.96952E+03
 -7.05224E+03  3.13873E+03 -6.56384E+03 -5.66291E+03 -9.50970E+02 -1.46482E+04  1.05856E+04 -1.60518E+04
  1.83544E+04 -8.53846E+03  2.08451E+04  2.72684E+03  1.74139E+04  1.48618E+04  8.88978E+03  2.25977E+04
 -4.59097E+03  2.50932E+04 -1.61002E+04  1.61754E+04 -1.79863E+04  3.51402E+03 -1.20696E+04 -3.60870E+03
 -5.12090E+03 -6.02999E+03 -1.49680E+02  4.12287E+02 -2.47755E+03  2.45143E+03 -5.51385E+03  4.27129E+03
 -1.19465E+04 -9.16101E+02 -1.20232E+04 -1.05591E+04 -4.84013E+03 -1.59936E+04  5.23308E+03 -1.20879E+04
  1.07821E+04 -5.11948E+03  6.76065E+03  2.98597E+03 -1.34588E+02  5.00843E+03 -6.87120E+03  8.66824E+01
 -6.36689E+03 -8.19487E+03 -1.36739E+03 -1.20292E+04  6.00932E+03 -1.28218E+04  1.52864E+04 -6.25672E+03
  1.83729E+04  2.06173E+03  1.35575E+04  1.14296E+04  2.75825E+03  1.48159E+04 -7.90563E+03  1.19584E+04
 -1.03328E+04  3.62557E+03 -6.29789E+03 -1.98929E+03  1.46092E+03 -3.30743E+03  6.53346E+03 -8.86170E+02
  5.94273E+03  5.13203E+03  9.77120E+02  9.36693E+03 -6.95627E+03  9.13007E+03 -1.19978E+04  2.27332E+03
 -8.05014E+03 -6.88523E+03  3.42373E+02 -1.08309E+04  6.19357E+03 -4.53423E+03  6.81757E+03  2.53907E+03
  1.48422E+03  7.64828E+03 -6.26352E+03  8.56324E+03 -9.29418E+03  4.62310E+03 -9.98246E+03 -3.49727E+03
 -5.77948E+03 -1.12435E+04  2.49436E+03 -1.32284E+04  1.07562E+04 -9.07037E+03  1.25736E+04  1.97179E+03
  7.91050E+03  1.03712E+04 -2.83907E+02  1.22793E+04 -8.56175E+03  6.83787E+03 -1.01154E+04 -1.25486E+03
 -9.17997E+03 -8.32468E+03 -1.51268E+03 -8.88788E+03  4.77416E+03 -8.13059E+03  5.15621E+03 -3.32743E+03
  4.32504E+03  1.89527E+03 -3.67795E+02  1.64316E+03 -1.84120E+02 -1.84327E+03  1.74094E+03 -4.53844E+03
  8.04013E+03 -2.56438E+03  1.12800E+04  2.29788E+03  1.09143E+04  6.99563E+03  7.28484E+03  1.44392E+04
 -3.85076E+03  1.72935E+04 -1.44407E+04  1.26034E+04 -1.93656E+04  2.93847E+03 -1.50612E+04 -6.45719E+03
 -7.22029E+03 -1.26463E+04  2.67666E+02 -1.05700E+04  2.87865E+03 -5.17204E+03  3.72927E+03 -3.41465E+03
  2.14043E+03 -2.95624E+03  2.91783E+03 -3.48717E+03  5.32925E+03 -2.73664E+03  6.25717E+03 -2.56948E+02
  7.98109E+03  1.80394E+03  3.79883E+03  6.58124E+03 -2.05031E+03  7.73018E+03 -8.21365E+03  5.84003E+03
 -9.38844E+03 -4.80650E+02 -5.64947E+03 -6.84271E+03 -3.15217E+02 -1.15151E+04  5.71982E+03 -1.09780E+04
  1.17466E+04 -6.28157E+03  1.34468E+04  1.65686E+03  9.47994E+03  9.24720E+03  1.10277E+03  1.24348E+04
 -5.17920E+03  1.02238E+04 -6.66117E+03  2.69067E+03 -5.01018E+03 -1.88165E+03 -1.74782E+03 -9.37872E+02
 -1.53365E+03  1.91633E+02 -1.88049E+03  2.30793E+03 -4.41550E+03  2.28459E+03 -7.64168E+03 -1.14820E+03
 -4.73530E+03 -7.37520E+03  2.38209E+02 -1.02477E+04  5.88396E+03 -9.67381E+03  9.21705E+03 -2.58636E+03
  1.01544E+04  5.30392E+03  4.43105E+03  8.76665E+03 -2.51351E+03  1.02075E+04 -6.44837E+03  5.91311E+03
 -9.63405E+03  1.81703E+03 -6.46234E+03 -5.69244E+03 -9.46499E+02 -8.25068E+03  4.09761E+03 -6.60938E+03
  5.84572E+03 -2.44796E+03  4.40421E+03  1.90652E+03  1.42792E+03  3.54768E+03  1.28508E+03  1.37220E+03
  1.96871E+03  1.60241E+03  2.85942E+03  1.21021E+03  3.06612E+03  3.26789E+03  1.93519E+03  4.80997E+03
 -1.89774E+03  7.49314E+03 -6.75038E+03  7.96367E+03 -9.56398E+03  2.23710E+03 -1.07441E+04 -3.29954E+03
 -5.02473E+03 -9.81483E+03  2.03874E+03 -1.08396E+04  5.65360E+03 -7.19448E+03  8.79251E+03 -1.93147E+03
  6.58761E+03  3.45378E+03  1.78520E+03  5.47829E+03 -2.71350E+03  3.67294E+03 -3.69179E+03 -1.01901E+03
 -1.32876E+03 -3.72178E+03  2.35145E+03 -3.76915E+03  4.10417E+03 -2.72661E+03  3.86911E+03  5.80773E+02
  1.40059E+03  2.09142E+03  8.26806E+02  1.32036E+03 -3.10035E+02  9.73089E+02  1.56812E+03 -6.41514E+02
  1.84700E+03 -8.70881E+01  3.78181E+03  1.33634E+03  1.94902E+03  5.02338E+03 -1.27606E+03  6.85579E+03
 -3.65949E+03  3.49057E+03 -5.44757E+03  1.60655E+03 -4.71413E+03 -2.53271E+03 -1.60586E+03 -3.67208E+03
 -1.44776E+02 -3.62161E+03  2.63827E+03 -1.48953E+03  2.23691E+03  2.02871E+03 -6.89473E+02  3.28087E+03
 -3.82253E+03  1.99636E+03 -4.31973E+03 -2.56103E+03 -2.16833E+03 -6.30883E+03  5.97853E+02 -5.20141E+03
  3.05463E+03 -3.15413E+03  3.74553E+03 -4.05354E+02  3.43005E+03  1.29082E+03  9.46534E+02  3.08949E+03
 -1.58586E+03  1.75966E+02 -2.00769E+03 -2.13533E+03  2.00902E+03 -3.75281E+03  4.73820E+03 -4.29356E+03
  5.89846E+03  5.09242E+02  5.91470E+03  3.49227E+03  2.64164E+03  6.20731E+03 -1.89877E+03  5.58657E+03
 -5.06829E+03  2.23033E+03 -4.95223E+03 -1.68240E+02 -3.36964E+03 -4.16823E+03  6.14631E+02 -3.72083E+03
  3.52458E+03 -1.33945E+03  3.50281E+03  1.31289E+03  7.96056E+02  2.96964E+03 -3.37673E+02  4.29951E+03
 -1.87278E+03  1.68654E+03 -1.67320E+03  2.14215E+02 -9.58636E+02  5.30033E+02 -1.30240E+03  1.78104E+03
 -1.81754E+03  1.88457E+03 -4.31500E+03  2.33079E+03 -5.47922E+03  1.60774E+02 -7.24936E+03 -4.18394E+03
 -3.84919E+03 -7.76322E+03  1.67837E+03 -9.62700E+03  5.48406E+03 -6.53322E+03  8.19335E+03 -2.65083E+03
  7.45942E+03  1.30876E+03  4.99831E+03  6.15744E+03 -2.46176E+02  5.40241E+03 -2.17508E+03  4.66100E+03
 -3.98906E+03  1.72831E+03 -2.36430E+03  7.62689E+01 -8.51421E+02 -5.27621E+02 -7.87698E+02 -6.65063E+01
 -9.75181E+02  8.72963E+01 -4.61529E+02 -2.56832E+02 -2.48515E+02 -1.45605E+03 -8.86529E+01 -2.54607E+03
  2.83214E+03 -1.97669E+03  3.35688E+03 -6.98194E+01  3.77461E+03  3.63456E+03  1.00078E+03  5.48002E+03
 -2.33159E+03  6.45892E+03 -6.69333E+03  3.65828E+03 -7.20713E+03 -7.01497E+02 -4.89388E+03 -4.67257E+03
 -2.64219E+03 -5.70683E+03  1.02852E+03 -5.06124E+03  4.11408E+03 -2.87311E+03  3.30361E+03 -4.21849E+02
  2.00957E+03  1.81062E+03 -4.57793E+02  1.75549E+03 -1.00362E+03  3.01242E+02 -2.14377E+02 -1.08187E+03
  1.86393E+03 -3.68799E+02  1.73595E+03  5.22997E+02  9.97909E+02  2.42187E+03  8.87834E+02  2.72335E+03
 -2.66414E+03  2.48644E+03 -4.16067E+03  5.72914E+02 -3.13212E+03 -2.29618E+03 -6.35764E+02 -4.73516E+03
  2.55890E+03 -3.89342E+03  3.83315E+03 -1.30047E+03  4.35576E+03  5.19867E+02  2.43953E+03  3.29266E+03
  6.39430E+02  3.89696E+03 -1.51561E+03  2.52832E+03 -2.64155E+03  1.54038E+03 -1.74532E+03  6.63182E+01
 -1.43186E+03 -1.81485E+02 -1.02395E+03  3.99141E+02 -1.90795E+03  1.23786E+03 -2.94934E+03 -7.55514E+02
 -2.53810E+03 -1.53070E+03 -1.28880E+03 -4.44718E+03  1.67236E+03 -3.96629E+03  3.37868E+03 -1.47956E+03
  4.29438E+03  7.29828E+02  1.90886E+03  2.43532E+03 -4.66730E+02  3.49614E+03 -2.64537E+03  2.02298E+03
