 $NMID ID='MM_0lb_SNR400_18hz_g45_65.RAW', FMTDAT='(8E13.5)'
 TRAMP=1., VOLUME=1. $END
  3.09824E+05  2.69381E+02  3.37374E+05  2.50301E+05  8.44427E+04  3.36962E+05 -1.32348E+05  2.50292E+05
 -1.89727E+05  8.23306E+04 -1.11018E+05 -3.28496E+04  1.90302E+03 -4.98657E+04  5.38101E+04  6.10079E+01
  3.54894E+04  5.30092E+04 -1.70133E+04  7.51280E+04 -6.04023E+04  6.26827E+04 -8.30655E+04  3.15887E+04
 -7.97101E+04 -1.10410E+04 -5.63413E+04 -5.02401E+04 -1.45873E+04 -6.79743E+04  2.69288E+04 -4.49530E+04
  3.91125E+04  3.67142E+03  1.54729E+04  4.70909E+04 -3.40203E+04  4.60377E+04 -6.54431E+04 -9.92927E+02
 -5.24419E+04 -5.61432E+04 -6.11499E+03 -7.52381E+04  3.26825E+04 -5.29778E+04  4.66165E+04 -1.62102E+04
  4.21250E+04  1.14705E+04  3.05450E+04  2.47503E+04  1.57434E+04  2.86478E+04 -4.13973E+03  2.70861E+04
 -2.11944E+04  1.31157E+04 -1.89369E+04 -4.52338E+03  4.47869E+03 -7.36605E+03  2.17698E+04  1.08959E+04
  7.43445E+03  3.32721E+04 -3.06151E+04  3.39330E+04 -6.09980E+04  1.67622E+03 -5.49577E+04 -4.16191E+04
 -1.25445E+04 -6.07248E+04  3.79453E+04 -4.25910E+04  5.59621E+04 -2.37128E+03  3.20728E+04  3.05311E+04
 -6.28232E+03  3.34290E+04 -2.83416E+04  1.34477E+04 -2.82392E+04 -5.54534E+03 -1.51123E+04 -1.05016E+04
 -7.31539E+03 -1.14602E+04 -1.24661E+03 -1.62489E+04  6.25054E+03 -2.21434E+04  1.49474E+04 -1.36398E+04
  1.27509E+04  4.68105E+03 -6.32074E+03  1.30935E+04 -1.93513E+04 -2.71108E+03 -7.87107E+03 -3.07287E+04
  2.09725E+04 -4.05440E+04  4.52598E+04 -1.85069E+04  4.21500E+04  1.88035E+04  1.47658E+04  4.16528E+04
 -1.52070E+04  3.13666E+04 -2.38314E+04  9.22094E+02 -8.41214E+03 -2.61759E+04  2.04473E+04 -3.11642E+04
  3.81642E+04 -6.94947E+03  3.14453E+04  2.29720E+04  1.54083E+04  4.28870E+04 -7.89771E+03  4.57629E+04
 -2.88883E+04  2.96600E+04 -3.71887E+04  8.49580E+03 -3.88155E+04 -1.53271E+04 -2.12270E+04 -3.38888E+04
  6.87780E+03 -3.45158E+04  2.97449E+04 -1.26767E+04  2.75467E+04  1.08967E+04  2.95713E+03  1.74815E+04
 -1.26796E+04  7.17943E+03 -9.28535E+03 -7.13758E+03  6.17154E+03 -9.90293E+03  1.68008E+04  6.66691E+03
  1.26270E+04  2.17714E+04 -6.52032E+03  2.36762E+04 -2.12920E+04  8.96977E+03 -2.49539E+04 -5.94507E+03
 -1.70803E+04 -1.60069E+04 -5.47440E+03 -1.64100E+04  4.02357E+03 -1.50721E+04  1.26399E+04 -1.44079E+04
  2.15147E+04 -1.16672E+04  2.77605E+04  1.43419E+03  2.08604E+04  1.62161E+04  4.24364E+03  3.24516E+04
 -1.65704E+04  2.72761E+04 -2.56566E+04  9.30545E+03 -2.01784E+04 -1.00776E+04 -4.10558E+03 -1.40438E+04
  2.39264E+03 -4.15785E+03 -2.55069E+03  5.14670E+03 -1.27829E+04  5.11815E+03 -1.40893E+04 -4.94122E+03
 -8.91840E+03 -1.56528E+04  4.37310E+03 -1.95161E+04  1.26522E+04 -1.36053E+04  1.48830E+04 -1.02106E+03
  8.77150E+03  1.08878E+04 -1.01016E+03  1.60705E+04 -1.05541E+04  8.54907E+03 -1.61711E+04 -3.18810E+03
 -1.20010E+04 -1.44014E+04 -1.37090E+03 -1.92920E+04  9.29345E+03 -1.51807E+04  1.67686E+04 -6.93305E+03
  1.43686E+04  3.93312E+02  1.05237E+04  4.09680E+03  4.78863E+03  3.44821E+02  7.56448E+03 -9.79617E+02
  1.38130E+04  2.69459E+03  1.48397E+04  1.29185E+04  9.60772E+03  2.52523E+04 -2.95231E+03  2.74017E+04
 -1.52231E+04  2.01210E+04 -2.47472E+04  9.85535E+03 -2.55954E+04 -1.75658E+03 -2.21227E+04 -1.50387E+04
 -9.85299E+03 -2.06541E+04  6.80145E+03 -1.97882E+04  1.69703E+04 -1.08281E+04  1.56021E+04  4.13527E+03
  7.03758E+03  1.18816E+04 -6.84050E+03  1.04136E+04 -1.35321E+04  2.45377E+03 -1.00861E+04 -8.35057E+03
  4.02688E+02 -1.26241E+04  6.57150E+03 -9.67669E+03  7.81042E+03 -1.13612E+03  1.20765E+03  4.95890E+03
 -6.04194E+03  6.26179E+02 -4.19756E+03 -4.38921E+03  5.40722E+02 -1.04965E+04  7.76598E+03 -1.02108E+04
  1.26383E+04 -4.81381E+03  1.26261E+04  2.76320E+03  1.05288E+04  9.52994E+03  5.52160E+03  1.44543E+04
 -1.53527E+03  1.65765E+04 -1.04324E+04  1.07050E+04 -1.13073E+04  2.84142E+03 -8.42033E+03 -1.86502E+03
 -5.06620E+03 -2.99155E+03 -6.81952E+02  2.02149E+03 -1.93493E+03  2.00876E+03 -3.76860E+03  3.06591E+03
 -8.27409E+03 -6.60798E+02 -9.26575E+03 -7.67352E+03 -3.32017E+03 -1.18258E+04  3.55260E+03 -8.14929E+03
  7.12724E+03 -4.02090E+03  5.45180E+03  2.39375E+03  8.83222E+01  3.44590E+03 -3.80239E+03 -5.77016E+01
 -3.49492E+03 -4.83943E+03 -8.10937E+02 -7.17494E+03  4.23359E+03 -8.21920E+03  1.00844E+04 -4.10478E+03
  1.20790E+04  7.73252E+02  8.52496E+03  6.53144E+03  1.61602E+03  8.87166E+03 -5.29768E+03  8.07105E+03
 -7.56969E+03  2.62979E+03 -3.49437E+03 -1.39829E+03  9.24622E+02 -1.80661E+03  4.85389E+03 -9.85025E+02
  3.98663E+03  3.39630E+03  1.20852E+03  6.44117E+03 -4.43077E+03  6.26937E+03 -8.32091E+03  1.75086E+03
 -4.96097E+03 -4.20363E+03  6.72091E+02 -6.46133E+03  4.16325E+03 -3.00637E+03  3.91732E+03  1.27533E+03
  2.14327E+02  4.14618E+03 -4.72826E+03  4.73677E+03 -5.25675E+03  2.45956E+03 -4.41311E+03 -1.52986E+03
 -3.19009E+03 -6.46907E+03  2.48254E+02 -7.41610E+03  6.45461E+03 -4.41391E+03  6.69251E+03  1.00149E+03
  4.34557E+03  5.49145E+03 -2.38088E+02  6.92298E+03 -5.25016E+03  4.60377E+03 -5.29282E+03 -2.55403E+02
 -6.07861E+03 -5.43877E+03 -1.37429E+03 -4.82193E+03  2.37195E+03 -5.21426E+03  3.19137E+03 -3.66031E+03
  2.71696E+03  5.65743E+02 -1.15880E+02  1.22517E+03  1.13375E+02 -3.71268E+02 -2.09839E+02 -2.13783E+03
  3.92931E+03 -9.67891E+02  5.43913E+03  1.23895E+03  5.53614E+03  2.89314E+03  4.88073E+03  7.01974E+03
 -1.65019E+03  9.03925E+03 -7.72532E+03  7.06449E+03 -1.03673E+04  1.11481E+03 -8.31417E+03 -2.84238E+03
 -3.97014E+03 -7.10023E+03 -5.16532E+02 -5.24408E+03  2.17761E+03 -2.41599E+03  1.34024E+03 -2.39805E+03
  1.56484E+03 -1.17062E+03  1.85223E+03 -1.90128E+03  3.39387E+03 -1.78525E+03  4.00860E+03  6.06082E+02
  5.01775E+03  1.58391E+03  1.01850E+03  3.53427E+03 -1.39051E+03  2.88912E+03 -4.42728E+03  2.55685E+03
 -4.90874E+03 -8.40674E+02 -2.23320E+03 -3.49304E+03  6.63389E+02 -5.64758E+03  2.98454E+03 -5.98705E+03
  5.80207E+03 -3.35100E+03  7.13343E+03 -2.71754E+02  4.87922E+03  4.54654E+03  1.15269E+03  6.13225E+03
 -2.09353E+03  6.21924E+03 -3.64165E+03  1.76674E+03 -2.14015E+03 -1.29183E+03 -8.16399E+02 -8.39680E+02
 -5.03836E+02  4.50884E+02 -4.76383E+02  1.74535E+03 -2.98054E+03  1.16664E+03 -4.09711E+03 -7.04605E+02
 -1.61673E+03 -3.71570E+03  9.82256E+02 -5.33277E+03  3.59146E+03 -4.56129E+03  3.65662E+03 -1.12911E+03
  4.71536E+03  2.42386E+03  2.06050E+03  3.67510E+03 -7.27333E+02  4.35749E+03 -2.37368E+03  2.48899E+03
 -3.86884E+03  7.57180E+02 -3.79999E+03 -2.76161E+03 -5.20872E+02 -3.40451E+03  2.03986E+03 -2.35273E+03
  2.51270E+03 -1.72210E+03  2.03587E+03  5.09417E+02  4.61609E+02  1.73558E+03  5.69270E+02  7.71978E+02
  1.54319E+03  8.28817E+02  1.60549E+03  1.36468E+03  1.16209E+03  2.25062E+03  1.71399E+03  2.14909E+03
 -1.23785E+03  3.43911E+03 -2.50836E+03  4.31068E+03 -2.97562E+03  1.33060E+03 -4.48904E+03 -6.29863E+02
 -1.89790E+03 -4.16953E+03  6.07871E+02 -5.28098E+03  2.00762E+03 -2.67628E+03  3.68471E+03 -5.15684E+02
  2.78752E+03  1.64336E+03  3.84867E+02  2.62600E+03 -5.03530E+02  8.84022E+02 -6.66859E+02 -5.64533E+02
 -6.06650E+02 -1.61305E+03  1.17334E+03 -8.80020E+02  1.34966E+03 -1.16004E+03  1.81110E+03  2.79044E+02
  1.20971E+03  5.60039E+02  4.27521E+02 -4.26480E+02 -4.04266E+02  3.49813E+02  1.07815E+03 -3.37606E+02
  1.93475E+02 -2.84224E+02  1.97941E+03  7.77653E+02 -3.77741E+01  2.58716E+03  1.34251E+02  3.18878E+03
 -2.21425E+03  1.36037E+03 -2.32300E+03  9.14337E+00 -2.29450E+03 -1.05593E+03 -1.87757E+02 -9.50172E+02
  3.37144E+02 -9.56324E+02  6.40008E+02 -1.18480E+03  9.45649E+02  1.68287E+03 -3.67816E+02  1.37559E+03
 -2.08082E+03  9.91730E+02 -1.01655E+03 -1.09574E+03 -1.02230E+03 -2.17322E+03  4.79435E+02 -1.55018E+03
  7.45071E+02 -5.35842E+02  7.14314E+02  1.14622E+02  1.38015E+03  1.07912E+02  3.88802E+02  1.03727E+03
 -5.42906E+02  1.29144E+02 -1.21533E+03 -2.24309E+02  6.41037E+02 -1.09036E+03  2.02904E+03 -7.70310E+02
  1.61553E+03 -1.13335E+01  2.68928E+03  1.46838E+03  1.28659E+03  2.13720E+03 -7.28094E+01  2.26684E+03
 -1.17892E+03  3.86599E+02 -1.04531E+03 -2.64281E+02 -3.56806E+02 -1.55460E+03  3.08014E+02 -8.44800E+02
  1.67747E+03 -1.47252E+03  6.57110E+01  1.06623E+03  1.67160E+02  1.34731E+03  2.94367E+02  1.10715E+03
 -2.34920E+02  9.81540E+02 -5.84805E+02  2.83142E+01  2.65787E+02  7.33961E+02 -3.39616E+02  3.00636E+02
 -7.11095E+02  9.23218E+02 -1.62661E+03  7.31934E+02 -1.54422E+03  2.11394E+02 -2.77002E+03 -8.79138E+02
 -1.37528E+03 -1.95124E+03  1.83207E+02 -3.11055E+03  9.64429E+02 -2.03749E+03  2.83687E+03 -7.00596E+02
  2.40501E+03 -2.97395E+02  1.56978E+03  2.07892E+03 -1.15179E+03  1.90025E+03 -3.87356E+02  1.10751E+03
 -6.41423E+02  9.74113E+02 -4.11908E+02 -3.49103E+01 -6.30734E+02  2.57416E+02 -6.72089E+02  3.36142E+02
 -1.17356E+03 -2.56513E+02 -8.67452E+02  2.21704E+02 -9.17018E+01 -7.25317E+02 -2.97179E+02 -9.67188E+02
  1.55255E+03 -1.04738E+02  6.51210E+02 -2.68034E+02  1.14447E+03  7.68204E+02  9.47030E+01  1.32756E+03
 -8.70021E+02  1.56863E+03 -1.47277E+03  1.22716E+03 -1.52056E+03 -1.58289E+02 -1.16748E+03 -1.42551E+03
 -6.18480E+02 -1.53028E+03  5.57166E+02 -1.26126E+03  9.71952E+02 -3.69582E+02  1.12267E+03 -2.30826E+01
  5.91809E+02  3.82635E+02  4.18459E+02  3.12819E+02 -5.68286E+02  3.22503E+02 -4.74609E+01 -1.76716E+02
  6.75292E+02 -1.90751E+02  2.21863E+02  9.55549E+02 -3.38341E+02  6.67845E+02  4.78641E+02  4.88370E+02
 -5.95019E+02  4.77472E+02 -6.09785E+02  2.50410E+02 -5.10823E+02 -9.63484E+02  4.54252E+02 -1.48384E+03
  7.38120E+02 -1.03528E+03  7.09507E+02  1.10520E+02  5.97157E+02 -1.05673E+03 -2.57847E+02  1.27564E+03
  8.66336E+02  5.78731E+02 -6.84348E+02  1.47507E+02 -9.20208E+02 -2.07098E+02 -8.02873E+02  5.45540E+02
 -2.29898E+02 -1.20227E+01 -4.99980E+02  3.06459E+02 -9.06520E+02  7.74883E+02 -7.01798E+02 -1.67068E+02
 -1.34264E+03 -4.24977E+02 -3.77962E+02 -5.73280E+02  5.11726E+02 -1.78399E+03  7.38817E+02 -7.17260E+01
  9.10227E+02 -1.94257E+02 -5.12195E+02  5.19255E+02  5.68661E+01  6.30118E+02 -8.93976E+02  2.46403E+02
