 $NMID ID='MM_0lb_SNR400_15hz_g45_81.RAW', FMTDAT='(8E13.5)'
 TRAMP=1., VOLUME=1. $END
  3.10295E+05  4.70573E+02  3.37387E+05  2.50385E+05  8.45463E+04  3.37350E+05 -1.32924E+05  2.50616E+05
 -1.90249E+05  8.28579E+04 -1.11322E+05 -3.28588E+04  8.00060E+02 -5.04730E+04  5.43222E+04 -2.83572E+02
  3.55442E+04  5.29467E+04 -1.65452E+04  7.48345E+04 -6.06648E+04  6.27744E+04 -8.38680E+04  3.16597E+04
 -8.05667E+04 -1.13689E+04 -5.68511E+04 -5.11611E+04 -1.50055E+04 -6.90212E+04  2.75941E+04 -4.48755E+04
  3.97333E+04  3.76549E+03  1.59396E+04  4.76728E+04 -3.44308E+04  4.66661E+04 -6.61272E+04 -3.77564E+02
 -5.31686E+04 -5.70104E+04 -6.40244E+03 -7.70625E+04  3.32294E+04 -5.43786E+04  4.74036E+04 -1.68469E+04
  4.26284E+04  1.23041E+04  3.19582E+04  2.49391E+04  1.56488E+04  2.93637E+04 -5.61113E+03  2.74266E+04
 -2.26071E+04  1.29469E+04 -1.92634E+04 -4.96773E+03  5.61734E+03 -7.83370E+03  2.19557E+04  1.15928E+04
  7.21928E+03  3.44287E+04 -3.14026E+04  3.51392E+04 -6.29042E+04  2.50079E+03 -5.58509E+04 -4.23391E+04
 -1.26400E+04 -6.20557E+04  3.89077E+04 -4.42505E+04  5.71605E+04 -1.57240E+03  3.33536E+04  3.15596E+04
 -6.50519E+03  3.50172E+04 -2.95360E+04  1.46432E+04 -2.95280E+04 -4.46937E+03 -1.60417E+04 -1.03029E+04
 -7.95296E+03 -1.24618E+04 -7.05785E+02 -1.75173E+04  7.51832E+03 -2.21263E+04  1.51897E+04 -1.37474E+04
  1.18607E+04  4.50846E+03 -7.68949E+03  1.30930E+04 -2.05787E+04 -3.39240E+03 -8.05419E+03 -3.26911E+04
  2.17826E+04 -4.28090E+04  4.65454E+04 -1.90511E+04  4.43945E+04  1.91009E+04  1.46978E+04  4.34402E+04
 -1.60166E+04  3.26722E+04 -2.45993E+04  1.45270E+03 -9.23708E+03 -2.73888E+04  2.02501E+04 -3.29512E+04
  4.01152E+04 -8.67826E+03  3.45706E+04  2.37845E+04  1.75844E+04  4.51673E+04 -8.15122E+03  4.83423E+04
 -3.06462E+04  3.23057E+04 -4.07392E+04  8.79180E+03 -4.13432E+04 -1.63517E+04 -2.28110E+04 -3.68807E+04
  6.79444E+03 -3.68176E+04  3.08202E+04 -1.38011E+04  2.87622E+04  1.08518E+04  3.46265E+03  1.86842E+04
 -1.36940E+04  8.36899E+03 -9.88800E+03 -7.40958E+03  5.45794E+03 -1.09450E+04  1.70387E+04  5.22877E+03
  1.32638E+04  2.16254E+04 -6.31433E+03  2.42736E+04 -2.19393E+04  1.05822E+04 -2.67991E+04 -5.35507E+03
 -1.88920E+04 -1.69761E+04 -7.31549E+03 -1.91231E+04  4.48166E+03 -1.82150E+04  1.49068E+04 -1.72816E+04
  2.44617E+04 -1.25164E+04  3.07833E+04  1.89178E+03  2.25537E+04  1.83671E+04  4.37573E+03  3.53004E+04
 -1.73850E+04  2.98090E+04 -2.74259E+04  9.78078E+03 -2.05549E+04 -1.06697E+04 -4.29660E+03 -1.32873E+04
  1.62820E+03 -3.25943E+03 -3.54938E+03  6.50949E+03 -1.50695E+04  5.51769E+03 -1.45620E+04 -6.13627E+03
 -9.13270E+03 -1.77819E+04  4.27584E+03 -2.21213E+04  1.47193E+04 -1.56488E+04  1.70922E+04 -1.46519E+03
  1.06723E+04  1.25146E+04 -8.41185E+02  1.73280E+04 -1.28878E+04  9.88145E+03 -1.74373E+04 -3.90198E+03
 -1.32457E+04 -1.59517E+04 -2.44525E+03 -2.20036E+04  1.01527E+04 -1.75964E+04  1.81692E+04 -8.83932E+03
  1.73446E+04  4.22105E+02  1.24648E+04  3.76137E+03  5.61879E+03  9.36526E+02  8.69845E+03 -1.59574E+03
  1.67126E+04  2.32231E+03  1.79697E+04  1.43269E+04  1.15461E+04  2.79665E+04 -3.00732E+03  3.12329E+04
 -1.82106E+04  2.51159E+04 -2.89224E+04  1.29195E+04 -3.09825E+04 -1.77941E+03 -2.57510E+04 -1.75151E+04
 -1.04668E+04 -2.51230E+04  8.08883E+03 -2.29743E+04  1.97653E+04 -1.18784E+04  1.83037E+04  4.61413E+03
  6.89608E+03  1.35873E+04 -7.59495E+03  1.20992E+04 -1.55158E+04  2.43817E+03 -1.15165E+04 -9.27070E+03
 -5.88701E+02 -1.40682E+04  7.08389E+03 -1.09120E+04  9.10658E+03 -1.08292E+03  1.97385E+03  5.97151E+03
 -5.75686E+03  2.36525E+03 -5.33224E+03 -5.12565E+03 -1.02237E+01 -1.23488E+04  9.88019E+03 -1.29703E+04
  1.55072E+04 -6.79650E+03  1.62600E+04  2.59606E+03  1.43347E+04  1.25176E+04  6.73082E+03  1.81231E+04
 -2.26337E+03  1.99001E+04 -1.25428E+04  1.25679E+04 -1.48756E+04  3.62981E+03 -9.79779E+03 -3.29059E+03
 -4.61578E+03 -4.48772E+03 -6.61695E+02  1.11391E+03 -2.58217E+03  2.33954E+03 -4.06371E+03  3.84418E+03
 -9.16998E+03  4.02695E+01 -1.01989E+04 -8.20981E+03 -4.23766E+03 -1.36943E+04  3.85062E+03 -9.98159E+03
  8.87467E+03 -4.07301E+03  6.21311E+03  2.38163E+03  4.39124E+02  3.45060E+03 -4.77370E+03 -5.54530E+01
 -4.05883E+03 -6.78713E+03 -5.50218E+02 -9.60329E+03  5.57297E+03 -1.02143E+04  1.21712E+04 -5.60743E+03
  1.58794E+04  9.30579E+02  1.09693E+04  8.37561E+03  2.18339E+03  1.13044E+04 -6.62527E+03  1.01826E+04
 -8.66455E+03  2.96128E+03 -4.44710E+03 -2.20762E+03  1.82809E+03 -2.60317E+03  5.04218E+03 -9.49201E+02
  4.69621E+03  4.58165E+03  9.96398E+02  8.12138E+03 -5.44726E+03  8.31084E+03 -1.00586E+04  2.31802E+03
 -6.79861E+03 -5.01383E+03  1.13073E+02 -7.98203E+03  4.27201E+03 -4.27313E+03  5.47134E+03  1.40283E+03
  1.72866E+03  5.67851E+03 -4.96111E+03  6.96569E+03 -7.45966E+03  3.15204E+03 -6.99704E+03 -1.81347E+03
 -3.94715E+03 -8.30284E+03  1.69398E+03 -9.66669E+03  8.41932E+03 -6.71786E+03  9.18959E+03  1.97933E+03
  6.77801E+03  6.68208E+03 -1.41851E+01  9.34496E+03 -7.10224E+03  6.10020E+03 -6.76408E+03 -7.52345E+02
 -7.17471E+03 -6.86055E+03 -1.83384E+03 -7.14253E+03  4.20459E+03 -6.08345E+03  4.05534E+03 -3.37850E+03
  3.11194E+03  4.80779E+02 -1.52518E+01  9.09710E+02 -2.76223E+02 -1.09380E+03  9.58033E+02 -4.06338E+03
  6.32190E+03 -1.78145E+03  7.68328E+03  5.38066E+02  7.81275E+03  5.35505E+03  6.28335E+03  1.09236E+04
 -1.58291E+03  1.25234E+04 -1.04847E+04  9.36061E+03 -1.40627E+04  1.92334E+03 -1.08957E+04 -4.30022E+03
 -5.82293E+03 -9.34242E+03 -4.83365E+02 -7.77744E+03  2.63700E+03 -3.38064E+03  3.01588E+03 -3.37123E+03
  1.59945E+03 -1.59006E+03  2.69949E+03 -2.52010E+03  4.06299E+03 -2.47630E+03  5.06342E+03  3.82397E+02
  6.07745E+03  1.70190E+03  2.10609E+03  4.17687E+03 -1.39459E+03  4.68330E+03 -5.74897E+03  4.07342E+03
 -7.16125E+03 -4.94802E+02 -3.80806E+03 -5.24456E+03  1.20799E+02 -8.14778E+03  5.10768E+03 -7.89547E+03
  8.09588E+03 -4.63388E+03  9.84914E+03  1.29416E+03  7.32081E+03  6.66444E+03  1.14720E+03  8.59124E+03
 -3.46096E+03  8.22108E+03 -4.82809E+03  2.49957E+03 -2.99789E+03 -1.06385E+03 -1.25731E+03 -1.08278E+03
 -8.42889E+02 -4.22259E+02 -1.24705E+03  2.36314E+03 -3.00806E+03  1.01828E+03 -5.58478E+03 -7.54924E+02
 -2.78518E+03 -6.06791E+03  7.89236E+02 -6.84477E+03  4.42810E+03 -6.25306E+03  6.64836E+03 -2.12732E+03
  6.96534E+03  4.19633E+03  2.75246E+03  5.55316E+03 -1.31547E+03  7.31811E+03 -4.24318E+03  4.50356E+03
 -6.09943E+03  4.90318E+02 -5.31676E+03 -4.29605E+03 -3.54544E+02 -5.20859E+03  3.36473E+03 -3.97767E+03
  4.97255E+03 -1.81636E+03  2.31543E+03  8.86265E+02  9.09696E+02  2.32795E+03  8.70367E+02  8.52560E+02
  2.40827E+03  2.14993E+02  1.53288E+03  9.11613E+02  1.95856E+03  3.20053E+03  1.83665E+03  3.59597E+03
 -1.26537E+03  4.38456E+03 -4.02907E+03  5.75359E+03 -5.81413E+03  1.79995E+03 -6.65098E+03 -1.88702E+03
 -3.17778E+03 -6.28227E+03  1.10073E+03 -7.47137E+03  3.42578E+03 -4.63937E+03  4.89559E+03 -1.61363E+03
  3.95930E+03  2.48042E+03  1.02050E+03  3.80094E+03 -2.17181E+03  2.49574E+03 -2.49679E+03 -1.57318E+02
 -1.09538E+03 -2.69433E+03  1.81047E+03 -2.97735E+03  2.12193E+03 -1.37413E+03  2.04112E+03  3.76272E+02
  1.20741E+03  1.24678E+03  7.69654E+02  3.48828E+02 -5.74063E+02  5.42012E+02  1.28102E+03 -1.21055E+01
  7.29564E+02 -2.52576E+02  2.26736E+03  1.20405E+03  9.09436E+02  3.94008E+03 -7.48568E+02  4.23418E+03
 -2.38662E+03  2.77338E+03 -3.40701E+03  6.07227E+02 -3.52073E+03 -1.17190E+03 -4.47947E+02 -2.27068E+03
  2.99282E+02 -2.20505E+03  1.28013E+03 -9.65342E+02  9.97192E+02  1.20376E+03 -1.43959E+03  1.74978E+03
 -2.45044E+03  1.04721E+03 -2.50108E+03 -1.81651E+03 -1.10272E+03 -3.76970E+03  5.71039E+02 -2.95439E+03
  2.03794E+03 -1.91220E+03  1.92255E+03 -2.02529E+02  1.65679E+03  2.12266E+02  2.55063E+02  2.16213E+03
 -1.44549E+03  4.76685E+02 -7.14868E+02 -5.54977E+02  1.03097E+03 -2.07644E+03  2.79728E+03 -2.26611E+03
  3.18522E+03  3.55913E+02  4.56510E+03  2.43029E+03  1.39929E+03  3.09773E+03 -6.15613E+02  3.72671E+03
 -2.45867E+03  7.60303E+02 -2.45267E+03  1.14237E+02 -1.02900E+03 -2.65856E+03  9.06316E+02 -2.30545E+03
  2.81020E+03 -6.27362E+02  1.76787E+03  8.30486E+02  5.48428E+02  1.96093E+03  2.33138E+02  2.00824E+03
 -1.04762E+03  1.63619E+03 -6.62567E+02  1.14464E+01 -1.71566E+02  3.49127E+02 -8.80604E+02  1.36672E+03
 -6.54512E+02  1.45076E+03 -2.62563E+03  1.26225E+03 -3.06971E+03 -4.94679E+02 -4.50803E+03 -2.08465E+03
 -2.04185E+03 -4.15757E+03  7.08698E+02 -4.83169E+03  2.62775E+03 -4.31096E+03  5.34220E+03 -1.73984E+03
  3.85582E+03  5.52540E+02  2.81904E+03  3.48856E+03 -6.77540E+02  2.86737E+03 -9.12688E+02  2.40464E+03
 -1.86773E+03  8.45203E+02 -1.61411E+03 -1.69298E+02 -6.74231E+02 -3.53653E+01 -3.05057E+02  3.10785E+02
 -1.54657E+03  6.62573E+01 -1.09005E+03  5.02702E+02  6.49246E+00 -1.81686E+03 -4.65849E+02 -1.47172E+03
  1.44532E+03 -1.76195E+03  1.72307E+03 -1.89123E+02  2.51828E+03  2.34313E+03 -2.93257E+02  3.19539E+03
 -1.57098E+03  3.96934E+03 -3.87455E+03  2.71349E+03 -3.58398E+03 -1.12955E+03 -2.97597E+03 -2.40616E+03
 -1.52389E+03 -2.78790E+03  2.54507E+02 -2.73879E+03  1.71333E+03 -1.43962E+03  2.10248E+03  5.71889E+02
  7.63359E+02  6.65727E+02 -1.04323E+02  8.85206E+02 -8.23573E+02  2.45207E+02 -5.10967E+02 -7.18178E+02
  1.19593E+03  4.65753E+02  1.01931E+03  1.78197E+01  8.08157E+02  1.14583E+03 -4.46670E+01  1.01799E+03
 -1.36986E+03  1.58971E+03 -1.63575E+03 -3.93851E+02 -1.62436E+03 -1.19239E+03  2.46048E+02 -2.31209E+03
  1.14146E+03 -2.04488E+03  1.88770E+03 -4.32500E+02  2.60437E+03 -1.80352E+02  1.51468E+03  2.32345E+03
  3.68003E+02  1.99556E+03 -2.46571E+02  1.21511E+03 -1.08000E+03  1.10039E+03 -1.13320E+03  1.38160E+02
 -4.13741E+02  1.85945E+02 -1.01980E+03  1.49443E+02 -1.15752E+03  3.74932E+02 -9.06057E+02 -7.81188E+02
 -1.93057E+03 -1.38404E+03 -1.43296E+03 -2.21901E+03  1.76216E+03 -2.86483E+03  1.63025E+03 -9.02648E+02
  1.67765E+03  1.71766E+02  3.07183E+02  1.29273E+03 -2.65093E+02  2.40993E+03 -1.24588E+03  1.44274E+03
