 $NMID ID='MM_0lb_SNR400_14hz_g50_42.RAW', FMTDAT='(8E13.5)'
 TRAMP=1., VOLUME=1. $END
  3.09660E+05  7.62626E+02  3.37758E+05  2.51427E+05  8.42486E+04  3.37651E+05 -1.32261E+05  2.51132E+05
 -1.90847E+05  8.36428E+04 -1.11945E+05 -3.20589E+04  4.90085E+02 -5.05343E+04  5.36533E+04 -1.85544E+02
  3.54930E+04  5.36474E+04 -1.73975E+04  7.54048E+04 -6.06919E+04  6.35193E+04 -8.38801E+04  3.21327E+04
 -8.09495E+04 -1.15070E+04 -5.73639E+04 -5.14447E+04 -1.49105E+04 -6.95561E+04  2.80450E+04 -4.56784E+04
  4.03423E+04  4.19368E+03  1.67942E+04  4.76122E+04 -3.46916E+04  4.77421E+04 -6.68809E+04 -9.89246E+01
 -5.28679E+04 -5.64322E+04 -7.59235E+03 -7.66143E+04  3.36909E+04 -5.53394E+04  4.83037E+04 -1.71953E+04
  4.41785E+04  1.14119E+04  3.17494E+04  2.59041E+04  1.56591E+04  2.94593E+04 -4.97860E+03  2.71177E+04
 -2.11165E+04  1.23980E+04 -1.83566E+04 -5.04757E+03  5.90778E+03 -7.13550E+03  2.25886E+04  1.22833E+04
  7.14976E+03  3.47704E+04 -3.13629E+04  3.51706E+04 -6.30690E+04  1.88427E+03 -5.73647E+04 -4.27811E+04
 -1.24165E+04 -6.32260E+04  3.94146E+04 -4.51551E+04  5.89827E+04 -2.42283E+03  3.45130E+04  3.25333E+04
 -5.82106E+03  3.66081E+04 -3.03667E+04  1.66457E+04 -3.01656E+04 -4.40625E+03 -1.68231E+04 -1.06312E+04
 -8.60901E+03 -1.30766E+04 -1.06696E+03 -1.82122E+04  7.61719E+03 -2.34724E+04  1.54955E+04 -1.31083E+04
  1.10990E+04  5.44753E+03 -8.34136E+03  1.35559E+04 -2.14193E+04 -4.55824E+03 -7.99423E+03 -3.39170E+04
  2.29780E+04 -4.39540E+04  4.84142E+04 -1.93366E+04  4.51530E+04  1.97084E+04  1.58852E+04  4.42474E+04
 -1.58006E+04  3.38221E+04 -2.56335E+04  1.71304E+03 -9.94256E+03 -2.82230E+04  2.05467E+04 -3.39564E+04
  4.18871E+04 -9.89086E+03  3.56829E+04  2.35117E+04  1.81907E+04  4.68124E+04 -7.91649E+03  5.06153E+04
 -3.13588E+04  3.38059E+04 -4.22661E+04  9.89939E+03 -4.35308E+04 -1.70781E+04 -2.34526E+04 -3.78264E+04
  7.14890E+03 -3.72810E+04  3.21633E+04 -1.45274E+04  2.90627E+04  1.14368E+04  4.34023E+03  1.89214E+04
 -1.36876E+04  9.15741E+03 -1.05833E+04 -7.25660E+03  5.63138E+03 -1.06032E+04  1.77363E+04  5.83582E+03
  1.31583E+04  2.16602E+04 -5.42727E+03  2.52377E+04 -2.25843E+04  1.16428E+04 -2.77094E+04 -4.29695E+03
 -2.08337E+04 -1.74837E+04 -8.64497E+03 -2.04814E+04  3.58171E+03 -2.02502E+04  1.48188E+04 -1.74122E+04
  2.62245E+04 -1.32119E+04  3.24556E+04  3.27332E+03  2.35519E+04  1.99482E+04  3.69239E+03  3.62996E+04
 -1.72265E+04  2.99783E+04 -2.73003E+04  1.07689E+04 -2.10881E+04 -1.09278E+04 -4.27342E+03 -1.31708E+04
  1.67082E+03 -2.98241E+03 -4.60191E+03  6.61998E+03 -1.62610E+04  4.62313E+03 -1.67096E+04 -6.84555E+03
 -1.01938E+04 -1.91614E+04  5.29884E+03 -2.33203E+04  1.50982E+04 -1.65332E+04  1.77582E+04 -1.04811E+03
  1.17050E+04  1.32103E+04 -1.13744E+03  1.88289E+04 -1.33934E+04  1.09268E+04 -1.87380E+04 -3.74193E+03
 -1.42666E+04 -1.78505E+04 -2.12463E+03 -2.29226E+04  1.01641E+04 -1.89740E+04  1.88802E+04 -9.74929E+03
  1.81082E+04  3.99587E+02  1.30940E+04  4.28228E+03  7.09600E+03  6.38693E+02  9.78392E+03 -2.01899E+03
  1.77037E+04  3.54403E+03  2.03200E+04  1.53271E+04  1.31366E+04  3.03770E+04 -3.46578E+03  3.43512E+04
 -1.94586E+04  2.71304E+04 -3.25626E+04  1.40513E+04 -3.32040E+04 -2.74005E+03 -2.83306E+04 -1.94165E+04
 -1.22854E+04 -2.75510E+04  9.82303E+03 -2.57528E+04  2.17719E+04 -1.32974E+04  1.95631E+04  5.73038E+03
  7.39414E+03  1.42382E+04 -8.71483E+03  1.25798E+04 -1.64065E+04  2.68340E+03 -1.22749E+04 -9.50700E+03
 -2.65180E+02 -1.50401E+04  8.34315E+03 -1.18670E+04  1.05193E+04 -1.90663E+03  2.34063E+03  6.80697E+03
 -6.91510E+03  2.27661E+03 -5.81851E+03 -5.39306E+03 -4.13716E+02 -1.42513E+04  1.06335E+04 -1.39660E+04
  1.69201E+04 -7.12863E+03  1.79593E+04  2.41784E+03  1.58194E+04  1.32589E+04  7.03735E+03  2.05965E+04
 -3.32224E+03  2.19067E+04 -1.46990E+04  1.38612E+04 -1.59774E+04  3.13477E+03 -1.14437E+04 -3.75390E+03
 -4.70568E+03 -4.55464E+03 -9.68612E+02  1.11477E+03 -2.42015E+03  2.79835E+03 -5.32673E+03  3.56035E+03
 -1.06395E+04 -4.64350E+02 -1.17258E+04 -9.79969E+03 -5.08321E+03 -1.47110E+04  4.73284E+03 -1.21674E+04
  9.40547E+03 -4.97936E+03  6.67868E+03  3.01352E+03 -2.40711E+02  3.79484E+03 -5.87924E+03 -3.33873E+02
 -4.37144E+03 -7.44193E+03 -6.20214E+02 -1.11803E+04  5.89124E+03 -1.13549E+04  1.40014E+04 -5.97656E+03
  1.62691E+04  1.18414E+03  1.15303E+04  8.92809E+03  2.16747E+03  1.22955E+04 -7.65804E+03  1.10637E+04
 -9.40812E+03  3.59722E+03 -5.12001E+03 -2.54166E+03  1.51539E+03 -3.07151E+03  6.78946E+03 -1.79934E+03
  5.37969E+03  5.23383E+03  7.95952E+02  9.16853E+03 -6.09170E+03  8.85149E+03 -1.13465E+04  2.41697E+03
 -7.17149E+03 -5.19351E+03  3.23177E+01 -9.00434E+03  6.03501E+03 -5.55110E+03  6.67002E+03  1.98320E+03
  6.83373E+02  6.15371E+03 -6.13932E+03  7.65054E+03 -8.28703E+03  3.33922E+03 -7.84078E+03 -2.87479E+03
 -5.06942E+03 -9.13890E+03  3.02062E+03 -1.11905E+04  9.87254E+03 -6.16397E+03  1.00294E+04  1.53394E+03
  7.37303E+03  8.17823E+03 -9.28501E+02  1.09792E+04 -7.70715E+03  5.97606E+03 -8.13241E+03 -1.12590E+03
 -7.40403E+03 -7.02589E+03 -1.47114E+03 -7.46115E+03  4.07200E+03 -6.90915E+03  5.01782E+03 -3.08688E+03
  4.73986E+03  1.25595E+03  2.31804E+02  1.03963E+03  4.35302E+01 -1.23818E+03  1.28425E+03 -3.73460E+03
  6.84122E+03 -3.29715E+03  9.22290E+03  1.75458E+03  9.34963E+03  6.00112E+03  7.58047E+03  1.22203E+04
 -2.42773E+03  1.39540E+04 -1.26822E+04  1.05235E+04 -1.61220E+04  1.69698E+03 -1.28317E+04 -4.60420E+03
 -6.48597E+03 -1.06121E+04  4.30597E+02 -9.39130E+03  2.89424E+03 -4.52515E+03  2.91657E+03 -3.13912E+03
  2.55357E+03 -1.73561E+03  3.34189E+03 -2.38872E+03  4.23815E+03 -2.34125E+03  5.73554E+03 -2.89659E+02
  6.55595E+03  1.67661E+03  2.75914E+03  5.89075E+03 -2.05004E+03  5.93932E+03 -6.76288E+03  4.53895E+03
 -8.36849E+03 -1.23412E+03 -4.90321E+03 -5.51300E+03 -3.81838E+02 -9.15306E+03  4.69221E+03 -9.58184E+03
  8.97013E+03 -5.20551E+03  1.10998E+04  8.48134E+02  8.74507E+03  7.54544E+03  1.05811E+03  1.03324E+04
 -4.10877E+03  9.24336E+03 -6.05861E+03  2.65517E+03 -3.70827E+03 -9.03332E+02 -1.54022E+03 -7.51672E+02
 -6.60540E+02  4.49337E+02 -1.69933E+03  2.21700E+03 -3.65987E+03  2.10730E+03 -6.23571E+03 -5.11338E+02
 -3.43332E+03 -6.41513E+03  6.20417E+02 -8.37030E+03  4.95710E+03 -7.28238E+03  7.17547E+03 -1.89957E+03
  7.74869E+03  3.90281E+03  3.97321E+03  7.23833E+03 -1.16064E+03  8.05683E+03 -5.88620E+03  4.64094E+03
 -6.94307E+03  6.30433E+02 -5.79620E+03 -4.70082E+03 -1.58454E+02 -6.10877E+03  3.50561E+03 -4.39757E+03
  4.63772E+03 -2.06151E+03  3.77557E+03  1.18082E+03  1.40480E+03  2.47814E+03  1.17095E+03  1.16409E+03
  1.82258E+03  8.43709E+02  2.26819E+03  1.46258E+03  2.26848E+03  3.11522E+03  2.20314E+03  3.95522E+03
 -1.51373E+03  5.94637E+03 -5.39626E+03  6.56956E+03 -6.57776E+03  1.99216E+03 -7.86573E+03 -2.80683E+03
 -3.54524E+03 -7.67549E+03  1.43186E+03 -9.30923E+03  4.29209E+03 -5.41917E+03  6.23459E+03 -1.26817E+03
  4.95862E+03  3.17661E+03  8.32125E+02  4.49490E+03 -1.61717E+03  2.51487E+03 -3.05322E+03 -1.45499E+02
 -1.48470E+03 -3.50029E+03  1.48217E+03 -3.05953E+03  2.40097E+03 -1.99841E+03  2.88380E+03  6.25121E+02
  1.17001E+03  1.28566E+03  1.03380E+03  7.43640E+02 -2.04544E+02  1.27750E+03  1.70553E+03 -3.69017E+02
  5.87040E+02 -6.24507E+02  3.36205E+03  6.39969E+02  1.03851E+03  3.94064E+03 -6.39674E+02  5.05605E+03
 -3.16304E+03  2.80080E+03 -4.31558E+03  9.78003E+02 -4.04352E+03 -1.55755E+03 -1.34888E+03 -3.20869E+03
  8.67280E+01 -2.86006E+03  1.99250E+03 -9.24427E+02  1.15217E+03  1.44578E+03 -7.51834E+02  2.72381E+03
 -2.72712E+03  1.56972E+03 -2.86169E+03 -2.24633E+03 -1.49722E+03 -4.29458E+03  5.14438E+02 -3.62798E+03
  1.75922E+03 -1.78693E+03  2.48416E+03  1.84009E+02  2.89636E+03  2.67253E+02  1.91123E+02  2.27689E+03
 -7.75209E+02  5.16829E+02 -1.62517E+03 -9.07425E+02  9.91901E+01 -2.60308E+03  3.40234E+03 -2.50958E+03
  3.66763E+03  8.07441E+02  4.34905E+03  2.18638E+03  1.53926E+03  3.76851E+03 -1.40950E+03  4.04609E+03
 -3.59583E+03  1.13442E+03 -3.46737E+03 -6.91983E+02 -2.70143E+03 -2.79605E+03  2.06280E+02 -2.20335E+03
  2.90672E+03 -1.33249E+03  2.19978E+03  6.79774E+02  4.50914E+02  1.78518E+03 -6.50733E+01  2.11941E+03
 -4.19604E+02  1.63007E+03 -5.90849E+02  1.52770E+03 -4.50276E+00  7.88484E+02 -1.06010E+03  1.59653E+03
 -9.97386E+02  2.18978E+03 -3.61171E+03  1.32979E+03 -3.76112E+03  1.30258E+02 -4.51621E+03 -2.93399E+03
 -2.71490E+03 -5.77795E+03  1.07525E+03 -6.24664E+03  3.02792E+03 -5.13767E+03  6.22964E+03 -2.32195E+03
  5.73321E+03  7.86587E+02  2.85404E+03  3.91879E+03 -7.89298E+02  3.93249E+03 -2.39528E+03  3.59065E+03
 -2.29057E+03  1.61244E+03 -8.73830E+02 -2.35748E+02 -1.08674E+03 -6.96697E+01 -1.21531E+03  4.72316E+02
 -7.54984E+02 -8.61007E+01 -2.05841E+03 -3.32044E+02 -6.99916E+02 -3.25104E+02  1.41267E+02 -2.01372E+03
  2.80620E+03 -9.94361E+02  2.46273E+03  8.73297E+02  2.93315E+03  2.00127E+03  1.23895E+02  3.74484E+03
 -1.98310E+03  4.89750E+03 -4.47147E+03  2.89401E+03 -4.68752E+03 -3.97558E+02 -3.53612E+03 -3.51743E+03
 -2.39993E+03 -3.97466E+03  1.71078E+03 -4.22334E+03  2.18488E+03 -2.31298E+03  1.85785E+03  4.43637E+02
  1.63478E+03  1.08200E+03  2.60212E+02  1.14512E+03 -7.51464E+02 -2.13598E+02 -7.96900E+01 -9.78304E+02
  1.52542E+03  5.15699E+01  1.32922E+03  3.85147E+02  3.15281E+02  1.66863E+03 -1.05609E+02  1.87389E+03
 -1.41449E+03  1.58796E+03 -2.40083E+03  2.65759E+02 -2.14174E+03 -1.68155E+03 -1.70246E+02 -3.07507E+03
  1.14816E+03 -2.58125E+03  2.01166E+03 -6.41353E+02  3.21610E+03  8.67070E+02  1.61348E+03  2.17108E+03
  7.90064E+02  2.51316E+03 -5.61949E+02  1.39505E+03 -1.14982E+03  1.39309E+03 -1.07494E+03  1.12678E+02
 -4.88166E+02 -3.83004E+02 -2.58022E+02  4.36686E+02 -9.21278E+02  5.50025E+02 -1.79140E+03 -8.34983E+02
 -1.42341E+03 -5.08792E+02 -3.23594E+02 -3.14177E+03  1.16420E+03 -3.12000E+03  2.26251E+03 -6.95036E+02
  2.57853E+03  8.28299E+00  3.55495E+02  1.13425E+03 -3.67811E+02  2.19083E+03 -1.08868E+03  1.57151E+03
