 $NMID ID='MM_0lb_SNR400_16hz_g50_90.RAW', FMTDAT='(8E13.5)'
 TRAMP=1., VOLUME=1. $END
  3.09983E+05  6.21101E+01  3.37678E+05  2.50687E+05  8.47172E+04  3.38110E+05 -1.32629E+05  2.50986E+05
 -1.90239E+05  8.29582E+04 -1.11600E+05 -3.26331E+04  9.86267E+02 -5.08036E+04  5.40732E+04 -4.41829E+02
  3.52018E+04  5.24901E+04 -1.63804E+04  7.58712E+04 -6.08306E+04  6.38610E+04 -8.35054E+04  3.18777E+04
 -8.04795E+04 -1.11395E+04 -5.69226E+04 -5.11823E+04 -1.45270E+04 -6.92131E+04  2.76822E+04 -4.54791E+04
  3.99265E+04  4.24453E+03  1.56286E+04  4.70678E+04 -3.43774E+04  4.73740E+04 -6.66620E+04 -1.07194E+02
 -5.30543E+04 -5.69078E+04 -6.70888E+03 -7.65906E+04  3.32248E+04 -5.46516E+04  4.71317E+04 -1.67256E+04
  4.23583E+04  1.17376E+04  3.16394E+04  2.49045E+04  1.56121E+04  2.93244E+04 -4.83936E+03  2.67525E+04
 -2.18254E+04  1.26048E+04 -1.89913E+04 -4.58475E+03  5.31272E+03 -8.10900E+03  2.21842E+04  1.16843E+04
  8.13976E+03  3.49337E+04 -3.12163E+04  3.54373E+04 -6.32310E+04  2.43075E+03 -5.68695E+04 -4.17098E+04
 -1.28319E+04 -6.26057E+04  3.97183E+04 -4.48203E+04  5.65045E+04 -2.39853E+03  3.39502E+04  3.13370E+04
 -6.56943E+03  3.52587E+04 -2.96223E+04  1.50952E+04 -2.91449E+04 -4.91499E+03 -1.59841E+04 -1.06770E+04
 -7.98164E+03 -1.18465E+04 -1.35256E+03 -1.73857E+04  6.77070E+03 -2.32795E+04  1.50145E+04 -1.36418E+04
  1.12302E+04  4.83591E+03 -7.65552E+03  1.27523E+04 -2.02769E+04 -3.29941E+03 -8.09742E+03 -3.25796E+04
  2.20414E+04 -4.22512E+04  4.65681E+04 -1.92953E+04  4.38056E+04  1.91431E+04  1.52240E+04  4.32384E+04
 -1.58965E+04  3.20882E+04 -2.38006E+04  1.63988E+03 -9.33334E+03 -2.80511E+04  2.11424E+04 -3.22352E+04
  4.05942E+04 -8.81139E+03  3.32616E+04  2.36128E+04  1.71798E+04  4.52896E+04 -8.59415E+03  4.85508E+04
 -3.10613E+04  3.13872E+04 -4.00469E+04  9.26766E+03 -4.06497E+04 -1.65927E+04 -2.27895E+04 -3.66173E+04
  7.76615E+03 -3.67166E+04  3.05606E+04 -1.38621E+04  2.81703E+04  1.13636E+04  3.56823E+03  1.82401E+04
 -1.24720E+04  8.11207E+03 -1.00317E+04 -7.73466E+03  6.04206E+03 -1.06005E+04  1.76734E+04  5.98486E+03
  1.29781E+04  2.19616E+04 -5.65830E+03  2.39014E+04 -2.16613E+04  1.04878E+04 -2.68168E+04 -4.87262E+03
 -1.88561E+04 -1.67547E+04 -7.46558E+03 -1.90751E+04  3.95009E+03 -1.77063E+04  1.50926E+04 -1.64780E+04
  2.43425E+04 -1.22286E+04  3.07878E+04  1.57411E+03  2.23969E+04  1.85701E+04  3.73378E+03  3.48060E+04
 -1.69865E+04  2.90475E+04 -2.71853E+04  9.98665E+03 -2.04964E+04 -1.02663E+04 -4.09223E+03 -1.35324E+04
  1.68688E+03 -3.70674E+03 -4.11722E+03  6.33704E+03 -1.43201E+04  4.73653E+03 -1.55277E+04 -5.68315E+03
 -9.88756E+03 -1.69282E+04  4.94839E+03 -2.11702E+04  1.39392E+04 -1.53852E+04  1.62618E+04 -1.89919E+03
  1.02875E+04  1.19489E+04 -1.34350E+03  1.70341E+04 -1.18507E+04  9.89886E+03 -1.78892E+04 -3.25133E+03
 -1.25554E+04 -1.62065E+04 -1.84839E+03 -2.15606E+04  9.48387E+03 -1.72192E+04  1.75166E+04 -8.56483E+03
  1.60674E+04  1.17094E+03  1.20961E+04  4.71649E+03  6.63651E+03  8.73734E+02  8.78481E+03 -1.62450E+03
  1.56271E+04  2.94603E+03  1.74097E+04  1.43320E+04  1.11661E+04  2.77162E+04 -3.06577E+03  3.08204E+04
 -1.80640E+04  2.45441E+04 -2.91501E+04  1.19099E+04 -2.97359E+04 -2.17604E+03 -2.51153E+04 -1.72999E+04
 -1.10676E+04 -2.47311E+04  8.19950E+03 -2.22868E+04  1.93041E+04 -1.21205E+04  1.76496E+04  4.87259E+03
  6.87519E+03  1.30912E+04 -7.68917E+03  1.13142E+04 -1.50241E+04  3.01410E+03 -1.17208E+04 -8.97502E+03
 -1.18788E+02 -1.42481E+04  7.32650E+03 -1.05785E+04  9.48078E+03 -1.39705E+03  1.90161E+03  5.84172E+03
 -6.28280E+03  2.40677E+03 -4.76100E+03 -4.67238E+03  6.82867E+02 -1.23547E+04  8.49698E+03 -1.21935E+04
  1.48154E+04 -7.25770E+03  1.58792E+04  2.60304E+03  1.34153E+04  1.10375E+04  6.25009E+03  1.75294E+04
 -2.70682E+03  1.97348E+04 -1.26429E+04  1.26229E+04 -1.37331E+04  3.37160E+03 -9.61201E+03 -2.70982E+03
 -5.80436E+03 -4.02092E+03 -1.06376E+03  1.59988E+03 -2.61350E+03  1.77792E+03 -4.88664E+03  3.81378E+03
 -9.45876E+03 -4.65878E+02 -9.78902E+03 -7.99525E+03 -4.04600E+03 -1.31936E+04  3.98004E+03 -1.04716E+04
  8.18867E+03 -4.14513E+03  5.69845E+03  2.75638E+03  2.30314E+01  4.23685E+03 -4.12928E+03 -1.09929E+00
 -4.37026E+03 -6.13315E+03 -8.54726E+02 -9.26044E+03  5.31840E+03 -1.04340E+04  1.18526E+04 -4.38665E+03
  1.41152E+04  7.09020E+02  9.74397E+03  8.73194E+03  2.12733E+03  1.09815E+04 -6.44712E+03  1.01047E+04
 -8.08510E+03  2.89008E+03 -4.57621E+03 -1.85951E+03  1.49505E+03 -2.77069E+03  5.59793E+03 -1.32781E+03
  5.10393E+03  4.04971E+03  1.41329E+03  7.94966E+03 -5.07803E+03  8.07545E+03 -9.98706E+03  2.18475E+03
 -6.27253E+03 -4.28047E+03 -8.41820E+01 -8.11793E+03  4.88514E+03 -3.76927E+03  4.87460E+03  1.31986E+03
  1.23303E+03  4.81702E+03 -5.06851E+03  5.99889E+03 -7.64215E+03  3.11151E+03 -6.58700E+03 -2.10594E+03
 -3.85087E+03 -7.27666E+03  1.32414E+03 -9.31282E+03  7.68114E+03 -6.03773E+03  8.35106E+03  1.77146E+03
  6.20427E+03  6.59277E+03 -8.95491E+01  8.51355E+03 -6.46373E+03  5.87613E+03 -6.97715E+03 -8.30581E+02
 -7.21266E+03 -5.77893E+03 -1.49530E+03 -6.25385E+03  2.94516E+03 -6.03872E+03  3.88551E+03 -3.08989E+03
  3.02474E+03  1.10290E+03 -6.61796E+01  7.90370E+02  1.56318E+02 -6.85947E+02  4.26195E+02 -3.68253E+03
  5.35075E+03 -2.27977E+03  7.24719E+03  1.52370E+03  7.45910E+03  4.91876E+03  5.74430E+03  9.83193E+03
 -2.05646E+03  1.09680E+04 -1.03332E+04  8.98236E+03 -1.22463E+04  1.11778E+03 -1.02157E+04 -4.70774E+03
 -5.36530E+03 -8.32987E+03 -7.16476E+02 -7.37574E+03  2.71108E+03 -3.96892E+03  2.87657E+03 -2.32199E+03
  1.78652E+03 -1.61006E+03  2.32010E+03 -2.37223E+03  3.93388E+03 -2.39881E+03  4.81473E+03 -1.18249E+02
  5.94191E+03  8.29311E+02  1.77897E+03  5.11672E+03 -1.98567E+03  4.96306E+03 -5.62274E+03  4.04667E+03
 -6.94784E+03 -1.09233E+03 -3.05654E+03 -4.29801E+03  6.18530E+01 -7.09109E+03  4.16244E+03 -7.03150E+03
  7.49995E+03 -4.08838E+03  9.59915E+03  1.12274E+03  6.16411E+03  5.58712E+03  2.03727E+03  8.09597E+03
 -2.76001E+03  7.46016E+03 -4.66288E+03  2.84570E+03 -2.02633E+03 -1.39738E+03 -4.35138E+02 -9.67025E+02
 -1.04847E+03  4.00852E+02 -1.04971E+03  1.75576E+03 -3.17815E+03  1.31219E+03 -4.39836E+03 -1.15661E+03
 -2.38581E+03 -4.72758E+03  1.21582E+03 -6.37414E+03  3.95527E+03 -5.90826E+03  4.80704E+03 -1.29790E+03
  5.85786E+03  3.29837E+03  2.26269E+03  4.80176E+03 -8.54544E+02  5.98471E+03 -4.68941E+03  4.18995E+03
 -5.15694E+03  8.91367E+02 -4.08573E+03 -3.72795E+03 -7.53514E+02 -4.97656E+03  2.07571E+03 -3.80626E+03
  3.44938E+03 -1.68928E+03  2.33462E+03  6.84847E+02  5.48873E+02  1.85830E+03  6.32241E+02  8.88331E+02
  1.61273E+03  6.87200E+02  1.16981E+03  1.37147E+03  1.29883E+03  2.51672E+03  1.94346E+03  2.66349E+03
 -1.90292E+03  4.34632E+03 -3.86089E+03  5.87901E+03 -4.53883E+03  1.45956E+03 -6.27037E+03 -1.17843E+03
 -2.56529E+03 -5.46790E+03  7.84914E+02 -6.52407E+03  2.94756E+03 -4.25093E+03  4.85758E+03 -1.50994E+03
  3.75627E+03  2.42830E+03  3.35966E+02  3.53837E+03 -1.76456E+03  2.03247E+03 -2.28904E+03 -4.79864E+02
 -4.18243E+02 -2.83956E+03  1.64172E+03 -2.16348E+03  1.73363E+03 -1.46389E+03  2.48803E+03  5.26474E+02
  7.93636E+02  7.52977E+02  7.44217E+02  1.81422E+02 -2.57055E+02  8.21482E+02  1.48814E+03  3.50482E+02
  6.43644E+02 -8.81621E+02  2.37491E+03  1.40385E+03  6.31389E+02  3.59266E+03 -7.01653E+02  4.09468E+03
 -2.24402E+03  2.47373E+03 -2.89663E+03  4.96205E+02 -3.18798E+03 -1.56368E+03 -1.12302E+03 -2.00557E+03
  1.26310E+03 -1.25503E+03  9.65580E+02 -1.32910E+03  1.07766E+03  1.17607E+03 -2.75672E+02  1.45885E+03
 -2.24563E+03  1.03541E+03 -2.17974E+03 -1.41057E+03 -1.15868E+03 -3.00200E+03  2.19920E+02 -2.72083E+03
  1.28109E+03 -1.51588E+03  2.23669E+03  8.18035E+01  1.83741E+03 -3.52358E+02  5.09159E+02  1.56341E+03
 -8.28621E+02  3.75241E+02 -1.92206E+03 -2.56214E+02  6.53359E+02 -1.10258E+03  2.74449E+03 -1.58379E+03
  2.30413E+03  4.98459E+02  3.35357E+03  2.04042E+03  1.01135E+03  2.57640E+03 -8.61097E+02  2.93024E+03
 -2.14055E+03  1.06625E+03 -2.42131E+03 -9.20172E+01 -9.85750E+02 -1.94188E+03  1.04901E+02 -1.67857E+03
  1.66795E+03 -7.82008E+02  1.78779E+03  1.57633E+03  8.13992E+02  2.19777E+03  4.85011E+02  1.43314E+03
 -1.05048E+03  1.02491E+03 -1.05583E+03  1.81339E+02 -3.13915E+02  7.54082E+02 -1.31313E+03  1.01443E+03
 -9.81964E+02  1.27185E+03 -2.31268E+03  1.06570E+03 -2.26012E+03 -1.77115E+02 -2.96461E+03 -1.70665E+03
 -1.56899E+03 -4.27747E+03  6.25545E+02 -4.11035E+03  1.92100E+03 -3.63440E+03  4.47794E+03 -1.19218E+03
  4.15700E+03  2.35106E+02  2.36700E+03  3.19417E+03 -6.92709E+02  2.66924E+03 -1.14917E+03  1.34184E+03
 -1.43369E+03  1.56019E+03 -6.19757E+02 -2.56558E+02 -9.01023E+02 -5.13472E+02 -7.19056E+02  2.42497E+02
 -1.70308E+03  9.92153E+02 -1.46236E+03 -1.63835E+02  3.02505E+02 -1.02129E+03 -5.12537E+02 -1.46772E+03
  1.75964E+03 -1.34261E+03  1.04206E+03  4.38192E+02  1.82799E+03  1.38962E+03 -5.62019E+02  2.88420E+03
 -1.47754E+03  3.20362E+03 -2.61197E+03  1.90094E+03 -3.36899E+03  2.69789E+02 -2.36507E+03 -1.94088E+03
 -1.12697E+03 -2.73421E+03  4.60964E+02 -1.98679E+03  1.20860E+03 -1.18535E+03  1.15782E+03  2.99818E+02
  1.28989E+03  6.19693E+02  1.18794E+02  1.68742E+02 -2.40942E+02  7.67532E+01  9.42655E+01 -4.64112E+02
  1.06289E+03 -5.18291E+02  3.16208E+02  9.66594E+01  3.37171E+02  1.01808E+03  4.67598E+02  6.27420E+02
 -7.84574E+02  1.12850E+03 -1.37673E+03  4.60647E+02 -1.68171E+03 -7.83740E+02 -1.34205E+02 -2.28883E+03
  1.03771E+03 -7.96061E+02  2.10194E+03 -5.08361E+02  2.16224E+03 -5.42949E+02  1.07442E+03  1.33765E+03
  7.51819E+02  7.41639E+02 -5.22656E+02  1.29475E+03 -7.55578E+02  1.10058E+03 -4.89245E+02  2.36358E+02
 -6.14152E+02 -5.36584E+01 -8.45934E+02 -9.66676E+01 -1.03554E+03  3.11653E+02 -1.51207E+03 -5.84289E+02
 -1.08269E+03  6.05066E+00 -4.58062E+02 -1.57564E+03  1.08976E+03 -1.96702E+03  1.73529E+03 -5.19174E+02
  1.13748E+03  9.74490E+01  7.59315E+02  5.23363E+02 -3.15366E+02  1.95713E+03 -5.26362E+02  9.64108E+02
