 $NMID ID='MM_0lb_SNR400_13hz_g55_98.RAW', FMTDAT='(8E13.5)'
 TRAMP=1., VOLUME=1. $END
  3.10153E+05  7.38732E+02  3.37826E+05  2.50687E+05  8.47144E+04  3.38614E+05 -1.32648E+05  2.51482E+05
 -1.90890E+05  8.32059E+04 -1.12244E+05 -3.27978E+04  9.76919E+02 -5.06282E+04  5.36159E+04 -5.67549E+02
  3.52129E+04  5.29350E+04 -1.74087E+04  7.57290E+04 -6.13991E+04  6.36287E+04 -8.41835E+04  3.23778E+04
 -8.22877E+04 -1.14041E+04 -5.79153E+04 -5.20353E+04 -1.52630E+04 -7.01817E+04  2.78389E+04 -4.58933E+04
  4.05971E+04  3.77458E+03  1.67775E+04  4.70226E+04 -3.49762E+04  4.78959E+04 -6.76591E+04  7.87497E+01
 -5.41067E+04 -5.75114E+04 -7.35393E+03 -7.78505E+04  3.42237E+04 -5.53590E+04  4.92427E+04 -1.79932E+04
  4.42353E+04  1.07032E+04  3.18745E+04  2.54813E+04  1.64204E+04  2.99327E+04 -5.60168E+03  2.78973E+04
 -2.19889E+04  1.16732E+04 -1.83429E+04 -4.79123E+03  6.16694E+03 -7.69739E+03  2.24303E+04  1.26516E+04
  7.34549E+03  3.62205E+04 -3.24206E+04  3.57508E+04 -6.42314E+04  1.73620E+03 -5.82118E+04 -4.34185E+04
 -1.35509E+04 -6.39599E+04  4.08817E+04 -4.57049E+04  5.90244E+04 -1.99987E+03  3.50625E+04  3.32135E+04
 -5.84167E+03  3.76705E+04 -3.11871E+04  1.70683E+04 -3.20020E+04 -3.92938E+03 -1.78555E+04 -1.10480E+04
 -8.90100E+03 -1.38844E+04 -4.44179E+02 -1.90383E+04  7.59101E+03 -2.29886E+04  1.53042E+04 -1.33372E+04
  1.05971E+04  5.51271E+03 -9.01388E+03  1.35880E+04 -2.19462E+04 -5.24224E+03 -8.24643E+03 -3.45526E+04
  2.33781E+04 -4.44636E+04  4.94177E+04 -2.01150E+04  4.63057E+04  1.96582E+04  1.61151E+04  4.54915E+04
 -1.57629E+04  3.40560E+04 -2.65866E+04  2.13017E+03 -1.06514E+04 -2.84931E+04  2.09121E+04 -3.42029E+04
  4.21284E+04 -9.48720E+03  3.73582E+04  2.43907E+04  1.90779E+04  4.84006E+04 -8.23199E+03  5.21287E+04
 -3.31231E+04  3.50171E+04 -4.40161E+04  1.10276E+04 -4.49255E+04 -1.72346E+04 -2.44895E+04 -3.92920E+04
  7.49593E+03 -3.96167E+04  3.17170E+04 -1.63362E+04  3.02442E+04  1.09801E+04  4.83213E+03  1.94368E+04
 -1.36695E+04  9.06369E+03 -1.05986E+04 -8.13159E+03  6.55232E+03 -1.11457E+04  1.85281E+04  6.46268E+03
  1.40297E+04  2.25602E+04 -5.48864E+03  2.55702E+04 -2.32628E+04  1.27104E+04 -2.82621E+04 -4.31281E+03
 -2.23045E+04 -1.77340E+04 -9.62735E+03 -2.18548E+04  4.11780E+03 -2.15792E+04  1.70983E+04 -1.96408E+04
  2.85486E+04 -1.30706E+04  3.43796E+04  2.99664E+03  2.55768E+04  2.13048E+04  4.90897E+03  3.85501E+04
 -1.83692E+04  3.17210E+04 -2.91342E+04  1.12851E+04 -2.13228E+04 -1.00829E+04 -4.44947E+03 -1.37166E+04
  1.35805E+03 -2.49896E+03 -5.98510E+03  7.06936E+03 -1.75664E+04  4.64921E+03 -1.77001E+04 -7.84015E+03
 -1.02998E+04 -2.04102E+04  6.08001E+03 -2.49265E+04  1.59654E+04 -1.81660E+04  1.94713E+04 -1.97167E+03
  1.17987E+04  1.41268E+04 -1.79703E+03  2.02999E+04 -1.46212E+04  1.12897E+04 -1.99815E+04 -4.66360E+03
 -1.53227E+04 -1.80468E+04 -1.59895E+03 -2.42785E+04  1.11923E+04 -2.05295E+04  2.15963E+04 -9.99282E+03
  1.96746E+04  4.29467E+02  1.31752E+04  4.23119E+03  7.07379E+03  9.97511E+02  1.02651E+04 -2.06624E+03
  1.86994E+04  2.96695E+03  2.07908E+04  1.66790E+04  1.38613E+04  3.27586E+04 -2.71572E+03  3.74638E+04
 -2.20446E+04  3.05505E+04 -3.51072E+04  1.48016E+04 -3.64620E+04 -3.04485E+03 -3.04893E+04 -2.11987E+04
 -1.23702E+04 -3.05468E+04  1.02565E+04 -2.68181E+04  2.36241E+04 -1.36344E+04  2.04570E+04  6.25068E+03
  6.75905E+03  1.56734E+04 -9.36334E+03  1.36656E+04 -1.72628E+04  2.89985E+03 -1.32736E+04 -1.03246E+04
 -4.65721E+02 -1.66987E+04  8.29054E+03 -1.29607E+04  1.06459E+04 -1.47494E+03  2.12013E+03  6.90819E+03
 -7.64879E+03  2.69721E+03 -6.65275E+03 -5.69706E+03 -4.49957E+02 -1.46872E+04  9.89638E+03 -1.61724E+04
  1.88429E+04 -8.95268E+03  2.05041E+04  2.59238E+03  1.80113E+04  1.46478E+04  8.36918E+03  2.30365E+04
 -4.14036E+03  2.50073E+04 -1.58538E+04  1.50472E+04 -1.78996E+04  3.49284E+03 -1.24987E+04 -4.29590E+03
 -6.01793E+03 -5.94760E+03 -7.33831E+02  1.34439E+03 -2.47419E+03  3.01681E+03 -6.11645E+03  4.44203E+03
 -1.15861E+04 -5.36574E+02 -1.22314E+04 -9.71918E+03 -5.06364E+03 -1.58091E+04  4.93751E+03 -1.23278E+04
  1.06744E+04 -5.12733E+03  7.48755E+03  3.64456E+03 -7.75825E+02  5.24573E+03 -6.24816E+03 -2.25437E+02
 -5.64340E+03 -7.71236E+03 -7.27648E+02 -1.19324E+04  6.72997E+03 -1.17332E+04  1.60884E+04 -7.17252E+03
  1.85406E+04  1.38080E+03  1.42043E+04  1.00246E+04  2.51362E+03  1.41564E+04 -7.50505E+03  1.27990E+04
 -1.02898E+04  3.60083E+03 -5.12607E+03 -2.10601E+03  2.13391E+03 -3.39444E+03  6.56234E+03 -1.52847E+03
  5.92564E+03  5.45470E+03  1.37400E+03  9.97072E+03 -6.80130E+03  9.43412E+03 -1.23463E+04  2.47436E+03
 -7.52253E+03 -5.74365E+03  4.11827E+02 -1.02352E+04  6.33669E+03 -5.67967E+03  7.03607E+03  1.89940E+03
  1.09120E+03  7.57192E+03 -6.33611E+03  8.39453E+03 -1.01336E+04  3.90940E+03 -9.51333E+03 -3.22079E+03
 -5.79139E+03 -1.18449E+04  2.59513E+03 -1.39629E+04  1.11988E+04 -7.65087E+03  1.20671E+04  1.18949E+03
  7.20925E+03  1.00112E+04 -5.88650E+02  1.18755E+04 -8.45032E+03  6.41999E+03 -9.21333E+03 -1.40680E+03
 -8.38634E+03 -8.29160E+03 -2.21277E+03 -8.93521E+03  5.00553E+03 -7.15998E+03  5.57617E+03 -3.49281E+03
  3.33176E+03  1.09718E+03 -8.67412E+02  1.88155E+03  1.60650E+02 -1.38296E+03  1.87080E+03 -5.29826E+03
  8.06594E+03 -2.76882E+03  1.13295E+04  1.20364E+03  1.04291E+04  7.15801E+03  7.79617E+03  1.49324E+04
 -3.22981E+03  1.61781E+04 -1.40711E+04  1.18553E+04 -1.81362E+04  2.00868E+03 -1.44518E+04 -5.93917E+03
 -7.28880E+03 -1.26017E+04 -9.91407E+02 -1.02893E+04  3.47744E+03 -5.33701E+03  3.46391E+03 -3.61786E+03
  2.93077E+03 -2.61063E+03  3.08722E+03 -3.56230E+03  4.71365E+03 -2.73059E+03  5.76368E+03 -5.64378E+02
  7.97346E+03  1.70563E+03  3.74325E+03  6.98021E+03 -2.20535E+03  6.80158E+03 -7.65763E+03  5.75601E+03
 -9.90795E+03 -1.51571E+03 -5.15994E+03 -7.19071E+03 -6.97444E+01 -1.04010E+04  6.88187E+03 -1.07415E+04
  1.07941E+04 -6.44394E+03  1.32451E+04  1.87595E+03  9.08557E+03  9.43859E+03  1.16962E+03  1.13322E+04
 -5.24417E+03  1.01020E+04 -7.28113E+03  4.09851E+03 -5.06707E+03 -1.04982E+03 -2.13277E+03 -1.26260E+03
 -1.21954E+03  2.07118E+02 -1.80646E+03  2.04194E+03 -4.70841E+03  1.55146E+03 -7.27960E+03 -1.05422E+03
 -3.68300E+03 -7.07690E+03 -8.87657E+01 -9.68166E+03  5.25930E+03 -9.16563E+03  8.96768E+03 -2.85744E+03
  9.07297E+03  5.54927E+03  3.93291E+03  8.56724E+03 -2.27708E+03  9.64550E+03 -6.58340E+03  6.19975E+03
 -8.43134E+03  8.39730E+02 -7.18143E+03 -5.66524E+03 -1.06225E+03 -7.54278E+03  3.94804E+03 -5.66825E+03
  5.85903E+03 -2.70829E+03  3.96659E+03  1.56208E+03  1.38173E+03  2.60167E+03  9.84584E+02  8.03565E+02
  1.97105E+03  9.00098E+02  2.54149E+03  2.16265E+03  2.21953E+03  3.61914E+03  2.58763E+03  4.60234E+03
 -2.37807E+03  6.88345E+03 -6.80545E+03  7.70394E+03 -8.16456E+03  1.72376E+03 -9.67249E+03 -2.90170E+03
 -4.89120E+03 -9.49319E+03  1.17926E+03 -1.00277E+04  4.87971E+03 -6.92355E+03  7.79010E+03 -1.63029E+03
  5.56592E+03  3.72399E+03  1.60647E+03  5.30352E+03 -1.96127E+03  2.85856E+03 -3.17068E+03 -2.10520E+02
 -1.85845E+03 -3.64789E+03  2.02053E+03 -4.12856E+03  3.97569E+03 -1.50864E+03  3.15344E+03  6.69488E+02
  2.17848E+03  1.39762E+03  1.46893E+03  1.20440E+03 -5.33430E+02  1.73783E+03  1.69582E+03 -9.64989E+02
  1.06448E+03 -6.61620E+02  4.15661E+03  9.65065E+02  1.31357E+03  4.91584E+03 -1.28702E+03  6.24787E+03
 -4.21058E+03  3.37125E+03 -5.75540E+03  7.54124E+02 -4.93157E+03 -2.04079E+03 -1.08741E+03 -3.67029E+03
  8.73332E+02 -3.69126E+03  1.91272E+03 -1.67909E+03  2.21047E+03  1.73799E+03 -1.01766E+03  2.63441E+03
 -3.65587E+03  1.27188E+03 -3.63792E+03 -2.60988E+03 -2.20381E+03 -5.15516E+03  5.12839E+02 -4.49901E+03
  2.93498E+03 -2.98369E+03  3.80533E+03 -9.17646E+02  3.32147E+03  1.06045E+03  3.84602E+02  2.44521E+03
 -1.18720E+03  7.21718E+02 -2.26228E+03 -1.27889E+03  9.53906E+02 -3.24816E+03  4.67591E+03 -3.14775E+03
  4.98907E+03  1.54896E+02  5.67348E+03  3.70335E+03  1.88691E+03  5.23882E+03 -2.30620E+03  4.38592E+03
 -4.13911E+03  1.44003E+03 -4.42701E+03 -1.21212E+02 -3.18569E+03 -3.88850E+03  1.16443E+03 -3.08073E+03
  3.97206E+03 -1.69065E+03  2.40910E+03  1.01593E+03  7.55146E+02  3.25404E+03  1.76974E+02  2.41761E+03
 -1.48676E+03  1.60143E+03 -4.68274E+02  3.67245E+01 -1.31761E+02  2.01819E+02 -7.34518E+02  1.47352E+03
 -1.34047E+03  2.28021E+03 -4.45797E+03  1.66365E+03 -5.30049E+03  5.39254E+02 -6.00916E+03 -3.41593E+03
 -2.97933E+03 -6.36092E+03  1.18146E+03 -8.16926E+03  4.84998E+03 -6.27676E+03  7.81048E+03 -2.65901E+03
  6.98740E+03  8.09294E+02  3.93164E+03  4.29843E+03 -4.19027E+02  4.98412E+03 -1.46243E+03  3.95938E+03
 -2.41536E+03  2.01480E+03 -1.86774E+03 -4.69855E+02 -5.09474E+02 -3.07299E+01 -8.72765E+02  1.18379E+02
 -1.29096E+03  8.82335E+01 -1.50395E+03  5.22938E+01 -8.53000E+01 -1.04745E+03  3.45653E+01 -2.32151E+03
  2.48555E+03 -1.42986E+03  2.60147E+03  7.11777E+02  4.19245E+03  2.46177E+03  2.52345E+02  5.18776E+03
 -2.48193E+03  6.20968E+03 -5.79446E+03  3.46356E+03 -5.80551E+03 -6.49920E+02 -4.07037E+03 -3.85773E+03
 -2.08645E+03 -4.74708E+03  1.67761E+03 -4.44574E+03  4.31022E+03 -2.44175E+03  2.66580E+03 -2.06194E+02
  1.71789E+03  1.04460E+03 -5.25059E+02  1.25167E+03 -1.15436E+03  6.66629E+01  7.53629E+02 -5.53696E+02
  1.25582E+03 -1.89131E+02  2.30662E+03  4.97286E+02  1.19255E+03  1.37433E+03  3.19853E+02  1.97551E+03
 -2.20223E+03  1.53643E+03 -3.00543E+03  3.56961E+01 -2.84733E+03 -2.61741E+03 -5.22616E+02 -3.42225E+03
  1.70377E+03 -3.71684E+03  3.21783E+03 -4.79269E+02  3.62586E+03  4.03097E+02  1.92474E+03  3.58003E+03
  6.23641E+02  3.36747E+03 -1.41198E+03  2.02023E+03 -1.68260E+03  1.64207E+03 -2.21189E+03  8.61110E+02
 -9.89014E+02  8.80121E+01 -1.66825E+03  3.95612E+02 -1.49650E+03  3.13679E+02 -2.45138E+03 -1.72546E+02
 -3.17404E+03 -1.58639E+03 -6.01560E+02 -3.06278E+03  1.96021E+03 -4.03209E+03  2.42604E+03 -1.12187E+03
  2.93381E+03  1.29087E+03  1.09495E+03  1.52009E+03 -6.28076E+02  3.85619E+03 -1.51776E+03  2.30434E+03
