 $NMID ID='MM_0lb_SNR400_8hz_g60_35.RAW', FMTDAT='(8E13.5)'
 TRAMP=1., VOLUME=1. $END
  3.09744E+05 -4.93047E+02  3.38415E+05  2.50982E+05  8.49254E+04  3.36781E+05 -1.31827E+05  2.52672E+05
 -1.91010E+05  8.43333E+04 -1.12926E+05 -3.25002E+04  1.18042E+03 -5.01134E+04  5.23645E+04 -4.31162E-01
  3.57234E+04  5.22691E+04 -1.61523E+04  7.58005E+04 -6.09141E+04  6.48719E+04 -8.63293E+04  3.32598E+04
 -8.30874E+04 -1.13019E+04 -5.95562E+04 -5.23624E+04 -1.44447E+04 -7.21423E+04  2.90719E+04 -4.76305E+04
  4.24356E+04  3.74025E+03  1.67824E+04  4.92252E+04 -3.54759E+04  4.89254E+04 -6.87970E+04  1.76139E+02
 -5.53069E+04 -5.83636E+04 -7.63628E+03 -7.94163E+04  3.42636E+04 -5.77350E+04  5.08828E+04 -1.90470E+04
  4.64460E+04  1.20792E+04  3.41693E+04  2.73281E+04  1.59966E+04  3.12613E+04 -4.90497E+03  2.78043E+04
 -2.29800E+04  1.22580E+04 -1.83331E+04 -6.31418E+03  7.55242E+03 -7.94162E+03  2.30486E+04  1.40592E+04
  7.17845E+03  3.84432E+04 -3.49848E+04  3.73902E+04 -6.65775E+04  7.92636E+02 -5.98484E+04 -4.50382E+04
 -1.25573E+04 -6.66788E+04  4.24872E+04 -4.73489E+04  6.23130E+04 -3.34504E+03  3.72906E+04  3.51976E+04
 -5.54662E+03  4.01890E+04 -3.30224E+04  2.00365E+04 -3.41703E+04 -3.86366E+03 -2.01500E+04 -1.17948E+04
 -1.00592E+04 -1.57246E+04 -4.36873E+02 -1.93849E+04  8.87831E+03 -2.40290E+04  1.57150E+04 -1.22457E+04
  1.04990E+04  6.85806E+03 -1.12677E+04  1.28127E+04 -2.44214E+04 -7.78184E+03 -9.63637E+03 -3.89024E+04
  2.58246E+04 -4.89961E+04  5.39027E+04 -2.15188E+04  4.94071E+04  2.15596E+04  1.87614E+04  4.87832E+04
 -1.71345E+04  3.74411E+04 -2.83378E+04  2.67142E+03 -1.28283E+04 -3.05950E+04  2.10647E+04 -3.79056E+04
  4.62179E+04 -1.21562E+04  4.24831E+04  2.50324E+04  2.26806E+04  5.33808E+04 -8.59778E+03  5.89968E+04
 -3.70811E+04  4.07230E+04 -4.90315E+04  1.16335E+04 -4.99453E+04 -1.87319E+04 -2.64487E+04 -4.45620E+04
  8.29037E+03 -4.45773E+04  3.58377E+04 -1.82863E+04  3.35674E+04  1.10649E+04  6.30907E+03  2.15965E+04
 -1.42285E+04  1.00641E+04 -1.11590E+04 -8.34498E+03  4.87284E+03 -1.11993E+04  1.87708E+04  4.80011E+03
  1.46286E+04  2.36523E+04 -4.40405E+03  2.77400E+04 -2.38527E+04  1.58059E+04 -3.26132E+04 -2.47186E+03
 -2.81874E+04 -1.86790E+04 -1.28701E+04 -2.67235E+04  4.85353E+03 -2.96197E+04  2.20099E+04 -2.48571E+04
  3.48644E+04 -1.51107E+04  4.00161E+04  6.13425E+03  2.83808E+04  2.65884E+04  3.88099E+03  4.33553E+04
 -2.07569E+04  3.56078E+04 -3.15494E+04  1.18478E+04 -2.27084E+04 -1.08647E+04 -5.19018E+03 -1.25591E+04
  1.61557E+02 -3.70864E+02 -9.13546E+03  9.05627E+03 -2.15396E+04  4.85587E+03 -2.14545E+04 -1.00302E+04
 -1.19876E+04 -2.53801E+04  6.53121E+03 -3.06207E+04  1.95565E+04 -2.11771E+04  2.54364E+04 -1.77915E+03
  1.55747E+04  1.72331E+04 -1.38338E+03  2.51950E+04 -1.83193E+04  1.42665E+04 -2.58633E+04 -5.65027E+03
 -1.92040E+04 -2.32341E+04 -1.73938E+03 -3.05938E+04  1.33887E+04 -2.46605E+04  2.53659E+04 -1.37620E+04
  2.44191E+04 -1.09274E+03  1.66797E+04  5.82414E+03  9.83256E+03  1.74611E+03  1.33780E+04 -3.16687E+03
  2.35510E+04  2.40655E+03  2.83018E+04  1.95039E+04  1.95381E+04  4.09834E+04 -2.19962E+03  4.68043E+04
 -2.69947E+04  4.07456E+04 -4.61314E+04  2.14462E+04 -4.87713E+04 -3.12841E+03 -4.05840E+04 -2.90900E+04
 -1.59352E+04 -4.12785E+04  1.40521E+04 -3.51029E+04  3.03472E+04 -1.66430E+04  2.61071E+04  8.41110E+03
  8.85616E+03  1.99149E+04 -1.24145E+04  1.64087E+04 -2.19110E+04  2.37934E+03 -1.61356E+04 -1.36016E+04
 -3.52550E+02 -2.07348E+04  1.17115E+04 -1.52737E+04  1.58623E+04 -1.94396E+03  4.10417E+03  9.75268E+03
 -9.14772E+03  5.09543E+03 -9.97742E+03 -8.51583E+03 -2.83086E+03 -1.91388E+04  1.31038E+04 -2.24020E+04
  2.56603E+04 -1.37567E+04  3.00693E+04  2.76576E+03  2.63887E+04  2.01719E+04  1.18652E+04  3.26529E+04
 -7.29998E+03  3.46529E+04 -2.24991E+04  2.14015E+04 -2.50787E+04  4.76210E+03 -1.63573E+04 -6.91490E+03
 -7.38261E+03 -8.38283E+03 -3.79812E+02  2.02037E+02 -3.60847E+03  4.47841E+03 -8.28658E+03  5.82559E+03
 -1.60679E+04 -1.12387E+03 -1.62656E+04 -1.27627E+04 -5.87091E+03 -2.11907E+04  6.41970E+03 -1.81005E+04
  1.47022E+04 -7.12045E+03  1.02679E+04  4.99821E+03 -6.02957E+02  7.09249E+03 -9.13629E+03 -5.10736E+01
 -8.02002E+03 -1.13741E+04 -2.19106E+03 -1.79625E+04  1.04128E+04 -1.88568E+04  2.27141E+04 -9.01110E+03
  2.54630E+04  2.55981E+03  1.91294E+04  1.69191E+04  3.34560E+03  2.12561E+04 -1.09342E+04  1.80522E+04
 -1.42279E+04  5.01543E+03 -7.63052E+03 -5.24286E+03  2.48021E+03 -5.45620E+03  9.40137E+03 -1.93150E+03
  8.08758E+03  7.41137E+03  1.00908E+03  1.55612E+04 -1.05258E+04  1.39366E+04 -1.71817E+04  3.89524E+03
 -1.19433E+04 -1.00749E+04  4.35264E+02 -1.52708E+04  1.09937E+04 -8.32911E+03  1.06955E+04  3.24797E+03
  2.56454E+03  1.13535E+04 -8.75480E+03  1.29099E+04 -1.58880E+04  5.40918E+03 -1.71906E+04 -6.25925E+03
 -8.22647E+03 -1.84208E+04  4.75833E+03 -2.09783E+04  1.91607E+04 -1.20779E+04  2.01857E+04  2.51916E+03
  1.19418E+04  1.48574E+04 -1.58603E+03  1.82156E+04 -1.34296E+04  1.00879E+04 -1.51657E+04 -1.69804E+03
 -1.19896E+04 -1.19903E+04 -1.75356E+03 -1.36748E+04  7.69771E+03 -1.12732E+04  9.03368E+03 -4.65445E+03
  5.82530E+03  1.67051E+03 -1.82004E+03  2.32922E+03 -6.97439E+02 -4.06925E+03  2.78156E+03 -9.23905E+03
  1.42965E+04 -5.65953E+03  1.89910E+04  2.30490E+03  1.71465E+04  1.40267E+04  1.24790E+04  2.43489E+04
 -6.22915E+03  2.87974E+04 -2.40911E+04  2.09297E+04 -2.95982E+04  3.73076E+03 -2.40993E+04 -1.09170E+04
 -1.20065E+04 -2.02002E+04 -7.17562E+02 -1.73482E+04  5.45074E+03 -1.00296E+04  5.49911E+03 -5.53085E+03
  3.67525E+03 -3.60948E+03  4.95230E+03 -4.52150E+03  7.28852E+03 -4.41020E+03  8.70931E+03 -2.15402E+03
  1.24847E+04  1.78547E+03  7.09770E+03  1.10550E+04 -2.82997E+03  1.35987E+04 -1.31890E+04  1.04348E+04
 -1.71402E+04 -2.34257E+03 -1.15079E+04 -1.28492E+04 -1.45328E+03 -1.92633E+04  1.02287E+04 -1.81550E+04
  2.06489E+04 -1.01924E+04  2.29084E+04  3.05151E+03  1.60306E+04  1.69476E+04  2.82003E+03  2.05329E+04
 -8.68521E+03  1.68384E+04 -1.26644E+04  7.03463E+03 -7.58396E+03 -1.93100E+03 -3.76886E+03 -2.66084E+03
 -1.47408E+03 -9.17989E+02 -2.39608E+03  2.29165E+03 -7.53126E+03  3.39083E+03 -1.16562E+04 -2.11449E+03
 -8.47066E+03 -1.22613E+04 -7.41291E+02 -1.65606E+04  1.08009E+04 -1.59446E+04  1.78599E+04 -5.57599E+03
  1.78250E+04  8.31939E+03  9.08187E+03  1.65030E+04 -4.23111E+03  1.78617E+04 -1.29561E+04  1.08334E+04
 -1.63628E+04  1.22999E+03 -1.25391E+04 -1.10056E+04 -1.88145E+03 -1.50157E+04  8.53596E+03 -1.12113E+04
  1.10405E+04 -3.82476E+03  8.42418E+03  2.66431E+03  3.55139E+03  5.59591E+03  2.31762E+03  2.44696E+03
  2.80761E+03  5.55319E+02  4.28984E+03  2.17294E+03  5.40270E+03  5.85415E+03  4.82224E+03  8.79376E+03
 -3.89113E+03  1.43720E+04 -1.27092E+04  1.37750E+04 -1.98942E+04  2.87496E+03 -1.89556E+04 -7.72497E+03
 -9.94952E+03 -1.80995E+04  2.06113E+03 -2.02598E+04  1.11624E+04 -1.23352E+04  1.52430E+04 -3.64748E+03
  1.22204E+04  7.62927E+03  2.05780E+03  1.01895E+04 -5.82389E+03  7.00337E+03 -7.97128E+03 -7.75870E+02
 -3.08728E+03 -8.40241E+03  4.62883E+03 -8.49588E+03  7.53733E+03 -4.01136E+03  8.51612E+03  2.35613E+03
  5.28657E+03  4.62438E+03  1.08560E+03  3.74180E+03 -4.73273E+02  2.00512E+03  1.83133E+03 -4.81949E+02
  2.82916E+03 -8.67747E+02  7.08004E+03  2.65485E+03  4.53901E+03  9.44629E+03 -1.15041E+03  1.29691E+04
 -9.46537E+03  9.49900E+03 -1.22908E+04  2.43333E+03 -1.12046E+04 -5.10855E+03 -3.64488E+03 -6.69889E+03
  7.82608E+02 -7.67649E+03  4.16982E+03 -3.78274E+03  4.21476E+03  3.94613E+03 -1.12216E+03  6.26409E+03
 -7.16058E+03  3.56071E+03 -9.66592E+03 -4.38694E+03 -5.39365E+03 -9.48491E+03  2.80113E+03 -1.06402E+04
  6.28268E+03 -6.12954E+03  7.88491E+03 -9.13886E+02  6.48476E+03  2.99921E+03  2.47697E+02  6.10300E+03
 -3.63121E+03  1.07825E+03 -3.70301E+03 -3.20893E+03  1.60685E+03 -8.88325E+03  9.15000E+03 -6.06903E+03
  1.19906E+04  1.60413E+03  1.13464E+04  8.24963E+03  3.85047E+03  1.30200E+04 -4.70487E+03  1.19110E+04
 -1.02089E+04  5.91671E+03 -1.05080E+04 -2.51732E+03 -6.45465E+03 -8.37129E+03  1.60099E+03 -8.01442E+03
  8.01625E+03 -3.61145E+03  8.22655E+03  4.30911E+03  2.95413E+03  6.66741E+03 -1.05152E+03  6.40831E+03
 -3.29154E+03  3.75575E+03 -3.15256E+03  1.65801E+03 -1.28198E+03  9.07524E+02 -1.66283E+03  2.62562E+03
 -2.60446E+03  5.44549E+03 -8.92885E+03  4.87704E+03 -1.29575E+04 -3.04115E+01 -1.40648E+04 -7.84298E+03
 -7.42542E+03 -1.79952E+04  3.03310E+03 -2.02367E+04  1.26336E+04 -1.50829E+04  1.83592E+04 -5.60749E+03
  1.72498E+04  4.06006E+03  1.14208E+04  1.23750E+04  1.36421E+03  1.27215E+04 -4.86798E+03  1.05778E+04
 -7.17983E+03  3.63025E+03 -4.61930E+03 -7.03840E+02 -1.95357E+03 -2.17404E+03 -4.22830E+02  4.15147E+02
 -2.78639E+03  1.08401E+03 -1.87501E+03 -2.43881E+02 -6.90356E+02 -3.11396E+03  6.93388E+02 -5.03997E+03
  6.04518E+03 -3.57644E+03  8.10363E+03 -8.97825E+00  9.41231E+03  6.88991E+03  2.65391E+03  1.43722E+04
 -5.96978E+03  1.49372E+04 -1.39482E+04  8.53269E+03 -1.76657E+04 -1.36666E+03 -1.11380E+04 -9.13084E+03
 -5.04142E+03 -1.38856E+04  4.05135E+03 -1.31279E+04  8.35457E+03 -6.61590E+03  9.59763E+03 -1.69125E+02
  5.14208E+03  4.93629E+03  1.26532E+02  3.57080E+03 -2.89279E+03  5.91072E+00  3.24306E+02 -3.17714E+03
  4.30494E+03 -1.67927E+03  5.28418E+03  1.27789E+03  5.01964E+03  4.81784E+03 -9.86013E+02  7.26880E+03
 -6.09785E+03  6.89893E+03 -9.89953E+03  1.94108E+03 -8.50146E+03 -7.23649E+03 -8.10322E+02 -1.18086E+04
  6.44561E+03 -9.95617E+03  1.07101E+04 -2.77123E+03  1.08590E+04  2.64474E+03  5.87158E+03  8.52697E+03
  2.30852E+03  9.08903E+03 -3.31540E+03  7.96947E+03 -5.77974E+03  4.41847E+03 -4.60511E+03  5.40593E+02
 -3.24211E+03  1.62645E+02 -2.62756E+03  1.91532E+03 -4.61008E+03  1.70114E+03 -7.60216E+03 -1.51816E+03
 -6.65766E+03 -5.43827E+03 -1.34637E+03 -1.00286E+04  4.44644E+03 -9.48921E+03  8.77059E+03 -4.54601E+03
  1.01374E+04  1.76075E+03  4.41794E+03  7.51607E+03  5.48265E+01  1.01725E+04 -7.17936E+03  6.33766E+03
