 $NMID ID='MM_0lb_SNR400_18hz_g40_13.RAW', FMTDAT='(8E13.5)'
 TRAMP=1., VOLUME=1. $END
  3.09775E+05  3.52678E+02  3.37331E+05  2.49658E+05  8.42454E+04  3.37239E+05 -1.32624E+05  2.50348E+05
 -1.89401E+05  8.24710E+04 -1.10363E+05 -3.26416E+04  1.94706E+03 -5.00554E+04  5.41403E+04 -3.61760E+02
  3.38754E+04  5.28667E+04 -1.69437E+04  7.45663E+04 -6.04834E+04  6.29302E+04 -8.30631E+04  3.11365E+04
 -7.93362E+04 -1.10630E+04 -5.63652E+04 -4.97883E+04 -1.45124E+04 -6.76340E+04  2.63754E+04 -4.45734E+04
  3.88073E+04  3.80935E+03  1.55470E+04  4.69855E+04 -3.35616E+04  4.59775E+04 -6.53003E+04 -7.35336E+02
 -5.19025E+04 -5.59352E+04 -5.57895E+03 -7.48709E+04  3.29619E+04 -5.30101E+04  4.59827E+04 -1.57297E+04
  4.09950E+04  1.00171E+04  3.02297E+04  2.45911E+04  1.53875E+04  2.76194E+04 -4.77768E+03  2.65305E+04
 -2.14433E+04  1.30091E+04 -1.90168E+04 -4.31999E+03  4.16227E+03 -7.92252E+03  2.10512E+04  1.06981E+04
  8.20797E+03  3.31733E+04 -3.01380E+04  3.33473E+04 -6.08842E+04  2.37034E+03 -5.53222E+04 -4.10160E+04
 -1.31092E+04 -6.10331E+04  3.74166E+04 -4.32153E+04  5.57666E+04 -1.23655E+03  3.18756E+04  3.04548E+04
 -7.00126E+03  3.24832E+04 -2.88827E+04  1.29121E+04 -2.72667E+04 -5.86354E+03 -1.40670E+04 -9.97995E+03
 -7.30488E+03 -1.14438E+04 -1.71041E+03 -1.63176E+04  6.93276E+03 -2.26456E+04  1.51316E+04 -1.39967E+04
  1.24597E+04  4.10721E+03 -6.25520E+03  1.28774E+04 -1.90715E+04 -2.25072E+03 -8.02587E+03 -2.97310E+04
  2.07404E+04 -4.06579E+04  4.41757E+04 -1.83963E+04  4.18908E+04  1.79115E+04  1.39064E+04  4.14245E+04
 -1.56314E+04  3.07867E+04 -2.33266E+04  7.28519E+02 -8.39146E+03 -2.61352E+04  2.02997E+04 -3.06737E+04
  3.76170E+04 -7.11623E+03  3.09470E+04  2.26855E+04  1.54192E+04  4.24522E+04 -7.62647E+03  4.48414E+04
 -2.79576E+04  2.96347E+04 -3.72271E+04  8.04190E+03 -3.74552E+04 -1.47931E+04 -2.11498E+04 -3.45332E+04
  6.65103E+03 -3.39289E+04  2.86743E+04 -1.24036E+04  2.71137E+04  1.08254E+04  2.72778E+03  1.73101E+04
 -1.30728E+04  7.45503E+03 -9.58640E+03 -7.42853E+03  6.01389E+03 -9.84439E+03  1.68876E+04  6.58217E+03
  1.23753E+04  2.16515E+04 -6.67701E+03  2.27934E+04 -2.15407E+04  9.65299E+03 -2.49841E+04 -6.35684E+03
 -1.59004E+04 -1.62982E+04 -5.50236E+03 -1.60166E+04  4.08764E+03 -1.39440E+04  1.24032E+04 -1.48382E+04
  2.09452E+04 -1.13081E+04  2.76045E+04  1.30065E+03  2.09804E+04  1.65831E+04  4.23804E+03  3.23815E+04
 -1.60110E+04  2.70022E+04 -2.56227E+04  9.14958E+03 -1.94011E+04 -1.08027E+04 -4.29148E+03 -1.41100E+04
  2.65329E+03 -4.47354E+03 -2.44933E+03  5.51219E+03 -1.27191E+04  5.63608E+03 -1.29912E+04 -4.21443E+03
 -8.78060E+03 -1.57553E+04  4.21049E+03 -1.90693E+04  1.25431E+04 -1.39206E+04  1.45960E+04 -1.61399E+03
  8.96057E+03  1.11091E+04 -3.36821E+02  1.56497E+04 -9.70850E+03  8.91808E+03 -1.53339E+04 -3.51489E+03
 -1.11860E+04 -1.37903E+04 -1.33561E+03 -1.82785E+04  8.32126E+03 -1.54292E+04  1.56238E+04 -6.91274E+03
  1.40580E+04  2.51222E+02  1.02793E+04  3.97434E+03  4.68157E+03 -4.36580E+01  7.96396E+03 -1.58474E+03
  1.37145E+04  2.79848E+03  1.47580E+04  1.21270E+04  8.92668E+03  2.36668E+04 -2.89919E+03  2.65004E+04
 -1.59394E+04  1.94916E+04 -2.43328E+04  9.85778E+03 -2.47866E+04 -2.01700E+03 -2.10395E+04 -1.39552E+04
 -1.00465E+04 -1.99438E+04  6.77620E+03 -1.84143E+04  1.63365E+04 -1.05836E+04  1.54424E+04  3.44561E+03
  6.87188E+03  1.13020E+04 -6.68885E+03  1.02362E+04 -1.31558E+04  2.77325E+03 -1.00875E+04 -7.51978E+03
 -1.27149E+02 -1.25134E+04  5.84234E+03 -9.16979E+03  7.05685E+03 -1.13326E+03  1.33084E+03  4.92080E+03
 -5.68956E+03  1.82602E+03 -3.26681E+03 -3.79006E+03  5.45190E+02 -1.01269E+04  7.40796E+03 -9.80230E+03
  1.23484E+04 -4.26314E+03  1.20688E+04  2.85255E+03  9.86468E+03  8.64746E+03  5.17073E+03  1.42324E+04
 -1.18807E+03  1.55239E+04 -9.18519E+03  9.94905E+03 -1.08352E+04  2.63908E+03 -8.59334E+03 -2.26500E+03
 -4.31456E+03 -2.76524E+03 -9.90766E+02  1.72273E+03 -1.56696E+03  2.16138E+03 -3.85387E+03  3.38170E+03
 -8.12917E+03 -1.19324E+03 -8.44068E+03 -7.09736E+03 -3.44158E+03 -1.16849E+04  3.89666E+03 -7.82079E+03
  7.01444E+03 -3.69078E+03  5.11465E+03  2.86675E+03  3.51370E+02  2.78238E+03 -3.46778E+03 -1.43773E+02
 -3.36344E+03 -5.29055E+03 -1.28018E+03 -7.06863E+03  4.04516E+03 -8.04819E+03  9.37597E+03 -3.89134E+03
  1.13542E+04  2.65060E+02  8.74060E+03  6.81184E+03  1.95001E+03  8.54188E+03 -5.16504E+03  8.14452E+03
 -6.58314E+03  2.85735E+03 -3.17366E+03 -1.23552E+03  1.15526E+03 -1.95441E+03  4.74042E+03 -1.24585E+03
  3.76446E+03  3.07745E+03  9.22699E+02  5.82740E+03 -4.23825E+03  6.41729E+03 -7.69108E+03  1.51323E+03
 -4.57678E+03 -3.29452E+03  2.89210E+02 -6.18318E+03  3.75135E+03 -3.74546E+03  3.26279E+03  7.55844E+02
  3.83317E+01  3.22627E+03 -4.38124E+03  4.30596E+03 -5.16475E+03  2.21977E+03 -4.18037E+03 -1.22404E+03
 -3.48304E+03 -5.89779E+03  9.18909E+02 -7.16372E+03  5.89146E+03 -4.81703E+03  5.92765E+03  9.48741E+02
  4.59774E+03  4.97503E+03 -6.56061E+01  7.05305E+03 -5.41193E+03  4.43065E+03 -5.08994E+03 -6.92419E+02
 -6.07252E+03 -4.76234E+03 -5.13309E+02 -4.87436E+03  2.15279E+03 -4.37650E+03  2.98813E+03 -2.67146E+03
  3.00139E+03  1.90297E+02  4.56437E+01  7.47475E+02  8.78605E+02 -2.68078E+02  1.51882E+02 -2.23826E+03
  3.82710E+03 -1.05853E+03  5.27028E+03  1.40189E+03  5.59590E+03  3.39125E+03  4.96101E+03  7.38155E+03
 -9.47394E+02  8.57937E+03 -7.82910E+03  6.63352E+03 -9.80490E+03  1.55692E+03 -8.04127E+03 -2.62110E+03
 -4.17933E+03 -6.77866E+03 -1.63860E+02 -4.81248E+03  1.99555E+03 -1.92223E+03  1.54001E+03 -2.09039E+03
  1.40979E+03 -1.77787E+03  2.39744E+03 -2.72029E+03  3.81262E+03 -1.45940E+03  3.37254E+03  4.04090E+02
  4.46629E+03  1.51085E+03  1.84720E+03  3.67717E+03 -2.36678E+03  2.70994E+03 -4.22945E+03  2.24743E+03
 -4.65313E+03 -8.57390E+02 -1.43443E+03 -3.74880E+03 -2.27150E+02 -5.61069E+03  2.93646E+03 -5.17634E+03
  5.34161E+03 -3.58868E+03  6.49121E+03 -8.32487E+01  4.88720E+03  3.99948E+03  1.50937E+03  6.01439E+03
 -2.29072E+03  5.96843E+03 -3.28038E+03  1.80350E+03 -1.81484E+03 -1.13072E+03 -5.29832E+02 -6.63437E+02
 -1.63274E+02  4.12538E+02 -1.32009E+03  2.03486E+03 -2.85182E+03  9.32430E+02 -4.13608E+03 -6.69973E+02
 -1.37298E+03 -3.85958E+03  1.32076E+03 -4.81036E+03  2.78161E+03 -4.50212E+03  3.97932E+03 -1.29429E+03
  4.12959E+03  2.46859E+03  1.66910E+03  3.52235E+03 -1.33066E+03  4.79138E+03 -2.53038E+03  2.72391E+03
 -4.01947E+03  2.12550E+02 -3.27900E+03 -2.21191E+03 -3.28466E+02 -3.44958E+03  1.65950E+03 -2.82198E+03
  2.62740E+03 -2.27003E+03  1.19450E+03  1.09668E+03  4.23594E+02  1.66929E+03  7.62864E+02  4.00977E+02
  1.73322E+03  4.56444E+02  1.55964E+03  1.47140E+03  1.25032E+03  2.00515E+03  1.32195E+03  2.04309E+03
 -9.94717E+02  3.31506E+03 -2.73923E+03  4.03288E+03 -3.57524E+03  1.23275E+03 -4.32536E+03 -7.42008E+02
 -1.53988E+03 -4.09055E+03  8.31180E+02 -5.03613E+03  2.12267E+03 -2.35500E+03  3.11338E+03 -5.57135E+02
  2.76443E+03  1.56835E+03  3.09199E+02  2.26214E+03 -9.90426E+02  1.18884E+03 -1.07355E+03 -1.86295E+01
 -5.53101E+02 -1.69433E+03  1.72023E+03 -1.19945E+03  1.35638E+03 -4.56852E+02  9.42756E+02  9.56077E+02
  6.61378E+02  2.47065E+02  1.15360E+03 -2.09216E+02 -3.12921E+02  9.28279E+02  1.23315E+03 -9.82947E+01
 -6.26290E+01  1.03468E+02  1.57970E+03  4.15149E+02  4.71777E+02  2.91593E+03 -2.36460E+02  2.79286E+03
 -1.83196E+03  1.23544E+03 -2.64571E+03  3.94331E+02 -2.40361E+03 -8.16283E+02 -3.01786E+02 -1.18559E+03
  5.55430E+02 -9.39934E+02  1.40877E+03 -5.57890E+02  5.17726E+02  1.34083E+03 -1.11326E+03  1.31413E+03
 -2.07664E+03  6.48120E+02 -1.53262E+03 -1.33403E+03 -2.85389E+02 -2.54431E+03  1.61798E+02 -1.69203E+03
  1.08120E+03 -1.03858E+03  4.98364E+02  8.57460E+01  1.22839E+03 -6.50613E+01  4.32362E+02  8.76709E+02
 -3.69456E+02  2.00208E+02 -9.82707E+02 -1.00164E+02  7.71140E+02 -1.10693E+03  2.27392E+03 -1.24754E+03
  1.64026E+03  3.52794E+01  3.02989E+03  8.35967E+02  1.28938E+03  1.17439E+03 -2.26380E+02  1.93157E+03
 -1.95298E+03  8.04966E+02 -1.40634E+03  1.42689E+02 -9.15634E+02 -1.04208E+03  4.12158E+02 -5.92739E+02
  1.73039E+03 -6.33565E+02  1.22118E+03  9.17753E+02  2.68605E+02  1.77410E+03  4.24997E+02  1.59681E+03
 -2.98187E+01  1.33457E+03 -6.28237E+02  1.20721E+03  2.47865E+02  1.59023E+02 -8.27965E+02  9.65536E+02
 -8.43186E+02  1.28670E+03 -1.89695E+03  6.48864E+02 -1.42969E+03  1.67130E+02 -2.88207E+03 -1.19004E+03
 -1.21400E+03 -2.61877E+03  7.17906E+02 -2.97897E+03  1.25122E+03 -2.72902E+03  2.93248E+03 -9.50552E+02
  2.57177E+03  3.17791E+02  1.97821E+03  1.37935E+03 -6.52368E+02  1.73931E+03 -1.21726E+03  1.56471E+03
 -9.46354E+02  7.62894E+02 -3.89992E+02  6.34107E+01 -4.10574E+02  2.73239E+02 -4.43726E+02  2.67686E+02
 -8.19378E+02 -2.46473E+02 -7.00852E+02  1.92365E+02  3.26097E+02 -2.19828E+02  4.09269E+01 -7.30200E+02
  1.42146E+03 -7.10144E+02  6.80868E+02  3.47753E+02  1.67589E+03  9.97353E+02 -2.21690E+02  1.19027E+03
 -1.62988E+03  2.60413E+03 -2.13530E+03  1.55962E+03 -2.13411E+03  7.38632E+01 -1.69465E+03 -1.19105E+03
 -1.30340E+03 -1.70668E+03  2.57148E+02 -1.43730E+03  7.56466E+02 -1.22672E+03 -5.87544E+01  2.73637E+02
  1.03939E+03  1.27900E+03 -3.78437E+02  7.70465E+02  1.00647E+02  4.53077E+02 -2.94068E+02 -4.95233E+02
  4.28409E+02  4.19513E+02  6.63631E+01  5.98332E+02 -8.18525E+01  4.12249E+02  1.02265E+02  3.33537E+02
 -9.17200E+02  5.35540E+02 -1.51193E+03  2.65504E+02 -9.99094E+02 -5.34770E+02  4.93610E+02 -1.06205E+03
  2.76236E+02 -7.26687E+02  8.60050E+02  1.21106E+02  1.54645E+03 -8.15823E+02  4.19216E+02  1.23268E+03
  3.99799E+02  1.07034E+03 -4.71656E+02  8.16399E+02 -9.79033E+02  4.91279E+02 -5.20583E+02 -1.20648E+02
 -2.47000E+01 -1.48118E+02 -4.64742E+01  3.90724E+02 -7.45840E+02  1.48832E+02 -2.45765E+02 -1.21593E+02
 -1.39843E+03  3.39407E+02 -3.42213E+02 -1.40203E+03  6.66857E+02 -1.40882E+03  7.35581E+02 -1.99258E+02
  9.15077E+02  3.48556E+02  2.51898E+02  6.18036E+02 -3.64764E+01  9.58307E+02 -9.54032E+02 -3.49081E+01
