 $NMID ID='MM_0lb_SNR400_7hz_g55_26.RAW', FMTDAT='(8E13.5)'
 TRAMP=1., VOLUME=1. $END
  3.10665E+05  1.17690E+03  3.37690E+05  2.50767E+05  8.48399E+04  3.39189E+05 -1.33201E+05  2.52136E+05
 -1.91034E+05  8.37011E+04 -1.12783E+05 -3.32476E+04  5.55902E+02 -5.06590E+04  5.45742E+04 -5.08777E+02
  3.60689E+04  5.34313E+04 -1.67482E+04  7.59721E+04 -6.24263E+04  6.50198E+04 -8.49938E+04  3.28781E+04
 -8.37993E+04 -1.25170E+04 -5.85385E+04 -5.27755E+04 -1.50172E+04 -7.10723E+04  2.82649E+04 -4.79559E+04
  4.13565E+04  3.61267E+03  1.70285E+04  4.94708E+04 -3.46485E+04  4.88283E+04 -6.90084E+04  7.72987E+02
 -5.55447E+04 -5.82693E+04 -7.70266E+03 -7.96980E+04  3.53430E+04 -5.80269E+04  5.09197E+04 -1.89027E+04
  4.66851E+04  1.19691E+04  3.38851E+04  2.70716E+04  1.62797E+04  3.00562E+04 -6.24990E+03  2.78549E+04
 -2.24831E+04  1.07505E+04 -1.79111E+04 -6.04931E+03  7.59432E+03 -7.70479E+03  2.38300E+04  1.45757E+04
  5.69703E+03  3.84779E+04 -3.47372E+04  3.75332E+04 -6.75554E+04  2.86594E+03 -5.92753E+04 -4.56232E+04
 -1.24720E+04 -6.74076E+04  4.19653E+04 -4.79268E+04  6.26353E+04 -2.26345E+03  3.75145E+04  3.63049E+04
 -4.59955E+03  4.13512E+04 -3.28884E+04  1.95970E+04 -3.47689E+04 -3.52250E+03 -2.14658E+04 -1.22743E+04
 -1.11166E+04 -1.56699E+04 -2.14652E+02 -2.10453E+04  8.73677E+03 -2.44444E+04  1.60515E+04 -1.19611E+04
  1.01090E+04  6.82131E+03 -1.19805E+04  1.24357E+04 -2.37113E+04 -7.20009E+03 -8.72661E+03 -4.01686E+04
  2.57605E+04 -4.83557E+04  5.43741E+04 -2.08584E+04  5.06778E+04  2.11453E+04  1.83257E+04  4.88545E+04
 -1.68372E+04  3.72743E+04 -2.82370E+04  2.76493E+03 -1.21536E+04 -3.11600E+04  2.22029E+04 -3.93699E+04
  4.65080E+04 -1.18641E+04  4.14351E+04  2.56863E+04  2.31138E+04  5.37052E+04 -8.19607E+03  5.84455E+04
 -3.64873E+04  4.06742E+04 -5.02069E+04  1.25851E+04 -4.98018E+04 -1.93342E+04 -2.86211E+04 -4.41258E+04
  8.67078E+03 -4.45321E+04  3.59007E+04 -1.91067E+04  3.37424E+04  1.15279E+04  5.16464E+03  2.21668E+04
 -1.52819E+04  9.45135E+03 -1.14994E+04 -7.34798E+03  5.32201E+03 -1.12315E+04  1.89269E+04  6.20444E+03
  1.54781E+04  2.31380E+04 -5.04224E+03  2.83732E+04 -2.43987E+04  1.59071E+04 -3.33463E+04 -3.04345E+02
 -2.80184E+04 -1.98132E+04 -1.28567E+04 -2.76303E+04  5.07878E+03 -2.90509E+04  2.24030E+04 -2.49786E+04
  3.58947E+04 -1.44063E+04  4.10676E+04  6.47833E+03  2.84641E+04  2.69386E+04  4.12100E+03  4.39389E+04
 -2.03430E+04  3.55545E+04 -3.24656E+04  1.29679E+04 -2.30391E+04 -1.00155E+04 -5.27945E+03 -1.29334E+04
  7.82317E+02 -1.03230E+02 -8.93941E+03  8.78798E+03 -2.23461E+04  5.61177E+03 -2.13221E+04 -1.16389E+04
 -1.30643E+04 -2.53287E+04  6.93970E+03 -3.01184E+04  2.04733E+04 -2.25409E+04  2.52083E+04 -1.84024E+03
  1.67158E+04  1.84434E+04 -1.99693E+03  2.60698E+04 -1.83725E+04  1.58738E+04 -2.62124E+04 -4.99652E+03
 -1.84069E+04 -2.33479E+04 -2.01943E+03 -3.09382E+04  1.33986E+04 -2.49008E+04  2.57261E+04 -1.35904E+04
  2.36670E+04 -4.55224E+01  1.69452E+04  6.55901E+03  1.03589E+04  1.59780E+03  1.40999E+04 -2.30838E+03
  2.53875E+04  3.26728E+03  2.82516E+04  1.99782E+04  2.00663E+04  4.14239E+04 -2.61563E+03  4.88781E+04
 -2.79030E+04  4.20936E+04 -4.79297E+04  2.20448E+04 -5.02625E+04 -3.33536E+03 -3.99108E+04 -3.01466E+04
 -1.66391E+04 -4.23650E+04  1.54582E+04 -3.71768E+04  3.10340E+04 -1.63272E+04  2.60478E+04  9.31563E+03
  8.87635E+03  2.08730E+04 -1.39449E+04  1.68179E+04 -2.25207E+04  2.77621E+03 -1.62489E+04 -1.48499E+04
 -5.37846E+02 -2.19105E+04  1.23252E+04 -1.57984E+04  1.48984E+04 -2.02199E+03  3.46138E+03  9.92055E+03
 -1.00644E+04  5.78087E+03 -1.12250E+04 -8.55692E+03 -2.56170E+03 -2.09330E+04  1.35222E+04 -2.26499E+04
  2.64758E+04 -1.39196E+04  3.04213E+04  3.74308E+03  2.65169E+04  2.12375E+04  1.24029E+04  3.45088E+04
 -6.61111E+03  3.63885E+04 -2.38335E+04  2.13980E+04 -2.66772E+04  5.07962E+03 -1.69284E+04 -7.10119E+03
 -6.73365E+03 -8.20303E+03 -8.91549E+02 -3.89865E+02 -2.74474E+03  4.12466E+03 -8.90575E+03  6.12332E+03
 -1.50415E+04 -8.90761E+02 -1.66178E+04 -1.33604E+04 -6.88803E+03 -2.23509E+04  7.66188E+03 -1.77297E+04
  1.46716E+04 -7.65948E+03  1.03794E+04  4.34881E+03 -1.72999E+03  7.31470E+03 -9.04712E+03 -2.89740E+02
 -8.90174E+03 -1.12404E+04 -1.48185E+03 -1.90328E+04  1.00525E+04 -1.83758E+04  2.31098E+04 -1.03761E+04
  2.75142E+04  3.34200E+03  2.06310E+04  1.72118E+04  3.50137E+03  2.13509E+04 -1.14183E+04  1.79684E+04
 -1.42066E+04  4.86743E+03 -7.75462E+03 -4.14685E+03  2.25967E+03 -5.23133E+03  9.51064E+03 -1.45605E+03
  7.37109E+03  8.42016E+03  1.37958E+03  1.54803E+04 -1.07772E+04  1.42535E+04 -1.86675E+04  3.37007E+03
 -1.28913E+04 -1.02494E+04  7.92096E+01 -1.58373E+04  1.13250E+04 -8.30226E+03  1.19527E+04  4.09026E+03
  2.35880E+03  1.39121E+04 -9.92451E+03  1.28695E+04 -1.66697E+04  5.55806E+03 -1.67605E+04 -7.50063E+03
 -1.07964E+04 -1.96500E+04  5.42553E+03 -2.17339E+04  1.86230E+04 -1.30625E+04  2.11932E+04  2.98336E+03
  1.18438E+04  1.59494E+04 -2.04755E+03  1.86318E+04 -1.32318E+04  1.10093E+04 -1.60676E+04 -1.78242E+03
 -1.26975E+04 -1.29043E+04 -1.69364E+03 -1.39513E+04  7.91162E+03 -1.09769E+04  8.86270E+03 -3.57993E+03
  5.47521E+03  2.47966E+03 -9.16836E+02  1.84774E+03 -1.46315E+03 -4.90311E+03  2.91485E+03 -9.33201E+03
  1.50224E+04 -5.81612E+03  2.03382E+04  2.25762E+03  1.90309E+04  1.37585E+04  9.83004E+03  2.64521E+04
 -7.37402E+03  3.02259E+04 -2.34927E+04  2.24559E+04 -3.10198E+04  3.88595E+03 -2.57966E+04 -1.18649E+04
 -1.29381E+04 -2.00437E+04 -1.65468E+03 -1.83506E+04  6.04446E+03 -1.02867E+04  6.83589E+03 -6.20041E+03
  4.53062E+03 -3.85728E+03  5.44183E+03 -4.87616E+03  6.91842E+03 -3.92140E+03  1.01219E+04 -2.16777E+03
  1.28396E+04  2.81717E+03  8.27044E+03  1.24050E+04 -2.49171E+03  1.49990E+04 -1.43356E+04  1.05468E+04
 -1.88787E+04 -1.78872E+03 -1.23198E+04 -1.23452E+04 -3.04654E+03 -1.95330E+04  9.87588E+03 -2.04997E+04
  2.05591E+04 -1.20053E+04  2.44531E+04  3.54512E+03  1.64172E+04  1.80050E+04  3.02041E+03  2.26570E+04
 -8.78525E+03  1.79972E+04 -1.35131E+04  6.14423E+03 -9.70292E+03 -2.47703E+03 -3.88275E+03 -3.76277E+03
 -1.28639E+03 -4.86123E+02 -3.27346E+03  3.35315E+03 -6.86178E+03  2.97604E+03 -1.28863E+04 -2.12392E+03
 -9.58713E+03 -1.24107E+04 -2.80579E+02 -1.86383E+04  1.20984E+04 -1.69887E+04  1.90132E+04 -5.79922E+03
  1.86569E+04  8.03725E+03  9.30939E+03  1.71042E+04 -4.23115E+03  1.97143E+04 -1.36168E+04  1.20725E+04
 -1.81890E+04  1.24623E+02 -1.46011E+04 -1.21509E+04 -1.32768E+03 -1.56192E+04  8.27242E+03 -1.18676E+04
  1.29289E+04 -3.90748E+03  7.95005E+03  3.00164E+03  2.96525E+03  4.92048E+03  1.26093E+03  3.48973E+03
  3.46650E+03  1.49717E+03  4.57101E+03  2.46680E+03  5.78324E+03  6.03531E+03  4.44416E+03  1.07016E+04
 -4.03952E+03  1.64666E+04 -1.40811E+04  1.49736E+04 -2.13452E+04  5.36891E+03 -2.09901E+04 -8.80609E+03
 -9.93437E+03 -2.20169E+04  3.01310E+03 -2.21701E+04  1.26065E+04 -1.34090E+04  1.62215E+04 -3.43565E+03
  1.35891E+04  8.11541E+03  4.26257E+03  1.08705E+04 -6.21274E+03  6.62741E+03 -8.38620E+03 -4.58582E+02
 -4.47281E+03 -9.04537E+03  4.30302E+03 -8.71187E+03  7.67993E+03 -4.20023E+03  7.27484E+03  1.60816E+03
  5.15732E+03  4.24530E+03  1.12423E+03  4.44484E+03 -1.83406E+03  2.77682E+03  1.96441E+03 -4.80191E+02
  2.92528E+03 -1.97670E+03  8.34102E+03  3.84055E+03  5.05286E+03  1.12924E+04 -1.94837E+03  1.43117E+04
 -9.92712E+03  9.69447E+03 -1.39534E+04  2.68646E+03 -1.16802E+04 -5.86443E+03 -5.29132E+03 -7.15300E+03
  1.40166E+03 -9.19192E+03  5.64483E+03 -4.51145E+03  4.04321E+03  4.20738E+03 -1.52510E+03  6.57821E+03
 -8.11060E+03  3.60556E+03 -9.86171E+03 -4.96426E+03 -5.26120E+03 -1.18954E+04  1.68016E+03 -1.20240E+04
  6.61257E+03 -7.19368E+03  8.26932E+03 -1.51253E+03  7.47593E+03  3.91597E+03  9.26656E+02  6.19800E+03
 -4.48347E+03  1.87000E+03 -5.12127E+03 -4.20413E+03  1.64210E+03 -9.70351E+03  9.88806E+03 -7.37179E+03
  1.38702E+04  5.84358E+02  1.23974E+04  9.93274E+03  4.06541E+03  1.42568E+04 -6.82964E+03  1.33258E+04
 -1.20995E+04  5.99742E+03 -1.16695E+04 -1.93614E+03 -6.76418E+03 -8.82839E+03  2.70465E+03 -8.79332E+03
  8.72143E+03 -3.72134E+03  7.61004E+03  3.02469E+03  3.30260E+03  7.60939E+03 -1.89106E+03  6.95714E+03
 -4.40976E+03  4.70759E+03 -3.70813E+03  1.12357E+03 -1.84766E+03  6.08972E+02 -1.53588E+03  2.72490E+03
 -3.51813E+03  6.20055E+03 -1.01245E+04  5.49611E+03 -1.45305E+04  6.74478E+02 -1.56433E+04 -9.39572E+03
 -7.77033E+03 -1.89516E+04  4.63028E+03 -2.14144E+04  1.50618E+04 -1.79912E+04  2.14142E+04 -6.35482E+03
  1.90274E+04  4.74205E+03  1.26153E+04  1.36994E+04  1.66712E+03  1.52418E+04 -6.80999E+03  1.12766E+04
 -9.02687E+03  3.51626E+03 -4.59642E+03 -1.91726E+03 -2.08052E+03 -2.41536E+03 -5.68777E+02 -7.56876E+02
 -2.96255E+03  1.64470E+03 -3.37012E+03 -5.41315E+02 -1.24376E+03 -4.25344E+03  1.39714E+03 -5.36847E+03
  6.37373E+03 -4.75216E+03  1.02756E+04  6.33549E+02  1.03619E+04  8.37846E+03  2.49576E+03  1.67150E+04
 -6.47351E+03  1.73251E+04 -1.64191E+04  1.05321E+04 -1.94450E+04 -1.90421E+03 -1.43770E+04 -1.10190E+04
 -4.86847E+03 -1.55694E+04  4.04835E+03 -1.36540E+04  9.46540E+03 -8.62432E+03  1.00552E+04  6.28790E+02
  5.04315E+03  5.35543E+03 -1.18468E+03  4.52288E+03 -3.23391E+03 -6.39214E+02  4.35708E+02 -3.80619E+03
  3.89461E+03 -1.95257E+03  6.49956E+03  1.74970E+03  5.07589E+03  7.26244E+03 -3.24387E+02  9.08785E+03
 -7.67989E+03  6.90338E+03 -1.07946E+04  7.57704E+02 -9.23674E+03 -7.94423E+03 -1.91749E+03 -1.36887E+04
  7.72086E+03 -1.14196E+04  1.31961E+04 -3.13196E+03  1.21564E+04  2.98882E+03  7.57843E+03  9.92661E+03
  8.83106E+02  1.10309E+04 -3.91735E+03  8.32966E+03 -6.51645E+03  4.56672E+03 -5.82669E+03  7.38526E+02
 -2.97028E+03 -9.32210E+02 -2.32151E+03  1.31840E+03 -5.88033E+03  1.89604E+03 -9.28853E+03 -2.31698E+03
 -7.25324E+03 -6.81878E+03 -2.11613E+03 -1.03759E+04  4.87998E+03 -1.14535E+04  9.19597E+03 -4.90011E+03
  9.80963E+03  1.88322E+03  6.08617E+03  8.18024E+03 -9.44021E+02  1.10236E+04 -7.81926E+03  6.76352E+03
