 $NMID ID='MM_0lb_SNR400_9hz_g60_60.RAW', FMTDAT='(8E13.5)'
 TRAMP=1., VOLUME=1. $END
  3.10002E+05  7.35506E+01  3.38640E+05  2.50096E+05  8.48762E+04  3.39151E+05 -1.33248E+05  2.51679E+05
 -1.90734E+05  8.30386E+04 -1.12433E+05 -3.27159E+04  3.23535E+02 -5.08634E+04  5.35680E+04 -1.14743E+03
  3.62152E+04  5.34093E+04 -1.61891E+04  7.60169E+04 -6.21468E+04  6.47132E+04 -8.57053E+04  3.33127E+04
 -8.28219E+04 -1.14292E+04 -5.81523E+04 -5.32239E+04 -1.54854E+04 -7.17606E+04  2.83622E+04 -4.69230E+04
  4.17092E+04  3.84506E+03  1.68600E+04  4.96382E+04 -3.51733E+04  4.80962E+04 -6.88842E+04 -2.46628E+02
 -5.55029E+04 -5.80729E+04 -6.99389E+03 -7.96480E+04  3.53251E+04 -5.64560E+04  5.03777E+04 -1.86853E+04
  4.52240E+04  1.05847E+04  3.35459E+04  2.64670E+04  1.54372E+04  3.12036E+04 -6.24838E+03  2.76367E+04
 -2.32140E+04  1.17995E+04 -1.86216E+04 -5.60864E+03  6.87750E+03 -7.76096E+03  2.40084E+04  1.40118E+04
  7.62451E+03  3.87027E+04 -3.40901E+04  3.71778E+04 -6.66190E+04  1.64321E+03 -5.85789E+04 -4.50878E+04
 -1.26415E+04 -6.61788E+04  4.19549E+04 -4.79303E+04  6.22102E+04 -2.30472E+03  3.74767E+04  3.51064E+04
 -5.13792E+03  4.00716E+04 -3.28620E+04  1.93967E+04 -3.47505E+04 -3.63394E+03 -1.93441E+04 -1.24890E+04
 -1.01430E+04 -1.59525E+04  1.00048E+02 -1.99268E+04  8.68984E+03 -2.35512E+04  1.65176E+04 -1.26302E+04
  1.08163E+04  7.22532E+03 -1.05075E+04  1.29854E+04 -2.38213E+04 -7.57535E+03 -8.65846E+03 -3.76203E+04
  2.60087E+04 -4.77656E+04  5.27762E+04 -2.05902E+04  4.88543E+04  2.16369E+04  1.68397E+04  4.75791E+04
 -1.63215E+04  3.68093E+04 -2.77568E+04  2.17562E+03 -1.19489E+04 -3.07404E+04  2.19298E+04 -3.77386E+04
  4.59873E+04 -1.15670E+04  4.22462E+04  2.45762E+04  2.22228E+04  5.23233E+04 -7.86400E+03  5.70459E+04
 -3.64077E+04  3.95763E+04 -4.88248E+04  1.15010E+04 -4.87033E+04 -1.88194E+04 -2.62809E+04 -4.32800E+04
  7.41418E+03 -4.31904E+04  3.41528E+04 -1.78489E+04  3.18087E+04  1.14344E+04  5.77617E+03  2.08422E+04
 -1.37261E+04  1.01919E+04 -1.13823E+04 -7.51277E+03  5.73131E+03 -1.19278E+04  1.93789E+04  5.09703E+03
  1.51191E+04  2.21990E+04 -5.50982E+03  2.69027E+04 -2.36932E+04  1.45368E+04 -3.20348E+04 -2.53330E+03
 -2.64283E+04 -1.89448E+04 -1.26926E+04 -2.59456E+04  3.85243E+03 -2.73312E+04  2.06498E+04 -2.32799E+04
  3.34570E+04 -1.49440E+04  4.01796E+04  5.46918E+03  2.76643E+04  2.56387E+04  4.54499E+03  4.26541E+04
 -2.01294E+04  3.44725E+04 -3.10801E+04  1.23904E+04 -2.30911E+04 -9.79488E+03 -4.94070E+03 -1.24200E+04
  2.56088E+02 -8.53314E+02 -8.68912E+03  8.45182E+03 -2.17215E+04  5.43169E+03 -2.14323E+04 -1.00510E+04
 -1.21298E+04 -2.51344E+04  6.37522E+03 -2.89883E+04  1.98177E+04 -2.02199E+04  2.40201E+04 -9.04045E+02
  1.48327E+04  1.68772E+04 -6.76952E+02  2.39653E+04 -1.65110E+04  1.37120E+04 -2.51685E+04 -5.10651E+03
 -1.86364E+04 -2.14029E+04 -2.03875E+03 -2.86020E+04  1.30592E+04 -2.44613E+04  2.42412E+04 -1.27179E+04
  2.27866E+04 -2.32134E+01  1.67588E+04  5.10063E+03  9.19508E+03  1.26893E+03  1.22831E+04 -2.52395E+03
  2.32170E+04  2.79712E+03  2.74785E+04  1.85300E+04  1.89338E+04  3.99520E+04 -1.92262E+03  4.67625E+04
 -2.70337E+04  3.85504E+04 -4.38189E+04  1.99158E+04 -4.64612E+04 -3.12280E+03 -3.79609E+04 -2.82156E+04
 -1.47455E+04 -3.96359E+04  1.32247E+04 -3.49681E+04  2.93222E+04 -1.61386E+04  2.55259E+04  8.24368E+03
  8.30157E+03  2.00901E+04 -1.18240E+04  1.53365E+04 -2.06688E+04  2.62466E+03 -1.60055E+04 -1.30886E+04
 -2.73581E+02 -2.00605E+04  9.76329E+03 -1.44091E+04  1.43895E+04 -1.41716E+03  3.40513E+03  1.00226E+04
 -8.83259E+03  4.69830E+03 -9.98769E+03 -6.69337E+03 -2.51781E+03 -1.91351E+04  1.27702E+04 -2.09695E+04
  2.32015E+04 -1.13712E+04  2.74414E+04  3.87435E+03  2.50724E+04  1.92781E+04  1.15424E+04  3.16535E+04
 -6.82256E+03  3.28146E+04 -2.16038E+04  2.01718E+04 -2.44262E+04  3.94510E+03 -1.70184E+04 -6.36922E+03
 -7.45163E+03 -7.76952E+03 -8.97531E+02 -1.30067E+02 -2.64272E+03  3.41344E+03 -7.85084E+03  5.55540E+03
 -1.50338E+04 -1.52174E+03 -1.57641E+04 -1.22727E+04 -6.54898E+03 -2.05785E+04  6.74022E+03 -1.63798E+04
  1.40235E+04 -6.71578E+03  9.82422E+03  5.08137E+03 -6.18995E+02  6.56403E+03 -8.34339E+03  1.33553E+02
 -8.50570E+03 -1.00050E+04 -9.61767E+02 -1.58433E+04  9.86810E+03 -1.65579E+04  2.10272E+04 -9.24040E+03
  2.50468E+04  3.11389E+03  1.79900E+04  1.63803E+04  3.06329E+03  1.99671E+04 -9.93961E+03  1.63310E+04
 -1.32339E+04  5.58064E+03 -6.90189E+03 -3.70906E+03  2.67637E+03 -4.76585E+03  8.14992E+03 -4.96706E+02
  8.36186E+03  7.73410E+03  1.63410E+03  1.33153E+04 -1.02346E+04  1.20651E+04 -1.62382E+04  3.65738E+03
 -1.15347E+04 -8.50538E+03  9.34931E+02 -1.46151E+04  9.37618E+03 -7.03006E+03  1.03144E+04  3.65025E+03
  2.33911E+03  1.09114E+04 -8.08351E+03  1.22160E+04 -1.39687E+04  6.46602E+03 -1.50167E+04 -5.43125E+03
 -8.81075E+03 -1.69415E+04  4.11250E+03 -1.99261E+04  1.65805E+04 -1.24016E+04  1.81622E+04  3.42218E+03
  9.71587E+03  1.42470E+04 -2.41096E+03  1.75450E+04 -1.22610E+04  8.40444E+03 -1.27109E+04 -1.56688E+03
 -1.15102E+04 -1.09291E+04 -1.74201E+03 -1.33560E+04  7.80355E+03 -1.06755E+04  8.27096E+03 -3.56219E+03
  5.88464E+03  2.10116E+03 -9.60895E+02  2.30304E+03 -1.04164E+03 -3.86707E+03  3.20256E+03 -8.58316E+03
  1.23529E+04 -5.83131E+03  1.79665E+04  2.43120E+03  1.58828E+04  1.19495E+04  1.11463E+04  2.28342E+04
 -6.31259E+03  2.65659E+04 -2.09453E+04  1.82386E+04 -2.70065E+04  3.29511E+03 -2.18221E+04 -9.72091E+03
 -1.15387E+04 -1.82210E+04  5.72943E+02 -1.59616E+04  5.27319E+03 -8.80198E+03  5.36646E+03 -5.81945E+03
  4.71878E+03 -3.53806E+03  4.20358E+03 -3.67393E+03  6.43044E+03 -4.45226E+03  8.65185E+03 -8.94114E+02
  1.04195E+04  2.85517E+03  6.32594E+03  1.01272E+04 -2.01298E+03  1.24747E+04 -1.16780E+04  9.30718E+03
 -1.56889E+04 -9.79777E+02 -1.09739E+04 -1.13400E+04 -1.17319E+03 -1.65429E+04  9.50098E+03 -1.74630E+04
  1.77592E+04 -9.63504E+03  2.06547E+04  3.50581E+03  1.46419E+04  1.44978E+04  2.36194E+03  1.99017E+04
 -7.14280E+03  1.48413E+04 -1.09906E+04  5.81711E+03 -8.64368E+03 -2.02403E+03 -3.58593E+03 -2.52576E+03
 -1.52576E+03 -2.50548E+02 -1.71716E+03  2.27049E+03 -6.10024E+03  2.90209E+03 -1.09097E+04 -1.15992E+03
 -7.81028E+03 -1.09044E+04 -2.15190E+01 -1.57060E+04  9.47532E+03 -1.50047E+04  1.58221E+04 -4.13878E+03
  1.51171E+04  7.99060E+03  7.30999E+03  1.43657E+04 -3.78976E+03  1.65983E+04 -1.12573E+04  1.03159E+04
 -1.51301E+04 -3.59593E+02 -1.10790E+04 -1.05194E+04 -1.22107E+03 -1.35423E+04  7.28105E+03 -9.85464E+03
  1.00111E+04 -3.25763E+03  6.69558E+03  2.21831E+03  2.21931E+03  4.65309E+03  1.09097E+03  2.49412E+03
  3.44424E+03  1.43253E+03  3.84007E+03  2.20358E+03  4.80215E+03  6.61639E+03  4.45270E+03  9.01160E+03
 -3.40994E+03  1.37657E+04 -1.06790E+04  1.26760E+04 -1.68205E+04  2.88408E+03 -1.68980E+04 -7.41816E+03
 -8.21610E+03 -1.76322E+04  2.96668E+03 -1.77213E+04  9.28238E+03 -1.07815E+04  1.30457E+04 -2.99915E+03
  1.05189E+04  6.31976E+03  2.01970E+03  9.70926E+03 -4.81001E+03  6.10733E+03 -7.37147E+03 -1.23531E+03
 -3.28867E+03 -7.88579E+03  3.98797E+03 -6.84562E+03  6.40526E+03 -3.34784E+03  7.29211E+03  1.25309E+03
  3.99388E+03  3.06309E+03  2.21130E+03  2.44208E+03 -7.53544E+02  2.37199E+03  8.58175E+02 -1.50909E+03
  2.49223E+03 -1.39292E+02  6.81261E+03  2.69211E+03  3.87484E+03  8.14466E+03 -5.62285E+02  1.17746E+04
 -8.29131E+03  7.87855E+03 -9.99121E+03  1.95274E+03 -8.60745E+03 -4.52251E+03 -3.61886E+03 -6.85027E+03
  1.35100E+03 -6.16252E+03  4.24288E+03 -2.83316E+03  3.77127E+03  2.51895E+03 -1.52225E+03  6.42664E+03
 -6.83402E+03  3.15953E+03 -8.39473E+03 -4.35957E+03 -4.47206E+03 -9.30113E+03  1.51468E+03 -9.38610E+03
  5.14438E+03 -5.51135E+03  6.62804E+03 -1.30323E+03  5.41447E+03  2.68830E+03  1.28032E+03  4.72600E+03
 -3.33172E+03  1.36389E+03 -4.30176E+03 -3.41986E+03  1.74968E+03 -6.46193E+03  8.42189E+03 -6.38223E+03
  1.09320E+04  7.59595E+02  9.18723E+03  6.69525E+03  2.50179E+03  1.15630E+04 -3.31962E+03  1.00781E+04
 -9.31035E+03  5.07855E+03 -9.47108E+03 -2.24175E+03 -5.58170E+03 -6.39198E+03  1.76237E+03 -6.71577E+03
  7.70883E+03 -2.21093E+03  6.46328E+03  3.02561E+03  2.84811E+03  5.96379E+03 -1.32155E+03  5.04343E+03
 -2.32036E+03  3.30640E+03 -2.42569E+03  4.71171E+02 -1.10391E+03  7.82936E+02 -1.46100E+03  2.30711E+03
 -3.33928E+03  4.01202E+03 -7.32874E+03  4.57109E+03 -1.08471E+04  4.86263E+02 -1.23583E+04 -7.48509E+03
 -5.48205E+03 -1.39657E+04  2.49747E+03 -1.67593E+04  1.09397E+04 -1.28041E+04  1.56378E+04 -5.11245E+03
  1.41758E+04  3.10186E+03  9.00400E+03  1.01428E+04  1.45662E+03  1.16205E+04 -5.56107E+03  9.02629E+03
 -6.28432E+03  3.30709E+03 -3.67342E+03 -1.40014E+03 -1.75912E+03 -1.91249E+03 -6.83002E+02  4.64601E+02
 -1.94091E+03 -8.66216E+02 -2.58030E+03  5.98780E+00 -6.16709E+02 -2.17267E+03 -5.75616E+01 -4.28952E+03
  5.00512E+03 -3.87052E+03  7.17452E+03 -1.55005E+02  8.14736E+03  5.54823E+03  2.26310E+03  1.15039E+04
 -4.51058E+03  1.29749E+04 -1.20950E+04  7.96979E+03 -1.43759E+04 -1.39787E+03 -1.00316E+04 -8.12198E+03
 -4.29735E+03 -1.13425E+04  2.39540E+03 -9.97685E+03  7.54464E+03 -5.28907E+03  7.12341E+03  2.36624E+02
  4.76821E+03  4.37118E+03 -2.56401E+02  3.28492E+03 -1.99627E+03  4.75447E+02  2.40205E+02 -2.33655E+03
  2.71296E+03 -1.28707E+03  4.63338E+03  1.82752E+03  3.18285E+03  4.65681E+03  2.88501E+02  5.24178E+03
 -5.13391E+03  5.37234E+03 -7.27134E+03  1.16273E+03 -6.67848E+03 -5.03611E+03 -8.37764E+02 -9.61393E+03
  5.83711E+03 -7.07906E+03  9.57688E+03 -2.95279E+03  8.72458E+03  2.15757E+03  4.84855E+03  6.72566E+03
  8.94625E+02  7.19692E+03 -3.90453E+03  5.61059E+03 -4.77040E+03  3.00496E+03 -4.61826E+03  9.07820E+02
 -1.36457E+03 -4.25242E+02 -1.74672E+03  1.05600E+03 -4.18060E+03  1.08243E+03 -5.81083E+03 -1.66343E+02
 -5.37055E+03 -4.29121E+03 -7.98924E+02 -8.06412E+03  3.64565E+03 -8.21937E+03  7.03276E+03 -4.00424E+03
  7.37544E+03  1.22842E+03  4.83395E+03  6.00784E+03 -2.44340E+02  7.56715E+03 -5.82302E+03  5.03719E+03
