 $NMID ID='MM_0lb_SNR400_19hz_g40_34.RAW', FMTDAT='(8E13.5)'
 TRAMP=1., VOLUME=1. $END
  3.09869E+05  1.80195E+02  3.36663E+05  2.50261E+05  8.41933E+04  3.37343E+05 -1.32649E+05  2.49836E+05
 -1.89634E+05  8.27167E+04 -1.10627E+05 -3.36702E+04  2.10519E+03 -5.01514E+04  5.40193E+04  5.83086E+02
  3.52866E+04  5.29193E+04 -1.68138E+04  7.42576E+04 -5.97752E+04  6.23023E+04 -8.22835E+04  3.16308E+04
 -7.94363E+04 -1.10822E+04 -5.56144E+04 -4.98045E+04 -1.50169E+04 -6.74972E+04  2.61428E+04 -4.44492E+04
  3.92883E+04  4.13865E+03  1.56074E+04  4.68144E+04 -3.45399E+04  4.52681E+04 -6.52834E+04 -5.34783E+02
 -5.17344E+04 -5.52658E+04 -5.58934E+03 -7.47205E+04  3.28287E+04 -5.21696E+04  4.58852E+04 -1.59777E+04
  4.09582E+04  1.04031E+04  3.05851E+04  2.40972E+04  1.58178E+04  2.77243E+04 -4.28967E+03  2.63437E+04
 -2.17177E+04  1.26875E+04 -1.91701E+04 -4.22440E+03  4.26277E+03 -7.97527E+03  2.12569E+04  1.03597E+04
  7.31716E+03  3.29114E+04 -2.98021E+04  3.40120E+04 -5.99835E+04  2.05572E+03 -5.45839E+04 -4.05244E+04
 -1.23614E+04 -6.00661E+04  3.69323E+04 -4.30266E+04  5.45551E+04 -1.33377E+03  3.10149E+04  2.97620E+04
 -6.30064E+03  3.20831E+04 -2.79134E+04  1.22155E+04 -2.72487E+04 -6.15267E+03 -1.34167E+04 -1.00680E+04
 -6.95907E+03 -1.01082E+04 -1.65911E+03 -1.57355E+04  6.21472E+03 -2.19863E+04  1.44912E+04 -1.38928E+04
  1.20241E+04  4.07317E+03 -5.78060E+03  1.30439E+04 -1.85527E+04 -1.89472E+03 -8.12941E+03 -2.87808E+04
  1.99816E+04 -3.93640E+04  4.34855E+04 -1.86032E+04  4.11564E+04  1.80965E+04  1.35336E+04  4.12259E+04
 -1.51521E+04  3.01922E+04 -2.27563E+04  8.21404E+02 -7.78917E+03 -2.63533E+04  2.06667E+04 -3.07762E+04
  3.75235E+04 -6.69152E+03  3.02867E+04  2.25003E+04  1.47856E+04  4.09898E+04 -7.86294E+03  4.43041E+04
 -2.79401E+04  2.86049E+04 -3.55223E+04  8.21485E+03 -3.71200E+04 -1.49070E+04 -2.15021E+04 -3.35464E+04
  7.07325E+03 -3.31895E+04  2.83807E+04 -1.20127E+04  2.63229E+04  1.04538E+04  2.52543E+03  1.73330E+04
 -1.33635E+04  7.50527E+03 -8.94530E+03 -7.88587E+03  5.83589E+03 -9.82224E+03  1.72348E+04  6.91980E+03
  1.15542E+04  2.13675E+04 -6.77535E+03  2.31792E+04 -2.08382E+04  8.96403E+03 -2.41027E+04 -6.56401E+03
 -1.52294E+04 -1.62779E+04 -4.51574E+03 -1.58868E+04  3.55380E+03 -1.31236E+04  1.14672E+04 -1.37355E+04
  1.96886E+04 -1.10577E+04  2.68197E+04  8.62566E+02  2.04394E+04  1.52493E+04  4.05505E+03  3.11423E+04
 -1.51851E+04  2.69793E+04 -2.54740E+04  9.23435E+03 -1.91346E+04 -1.07039E+04 -3.32123E+03 -1.37937E+04
  2.63531E+03 -4.88514E+03 -1.98101E+03  4.87001E+03 -1.24323E+04  5.56763E+03 -1.31121E+04 -4.81225E+03
 -8.15046E+03 -1.43789E+04  4.60964E+03 -1.85823E+04  1.18427E+04 -1.36959E+04  1.30148E+04 -1.79048E+03
  8.55003E+03  1.01156E+04 -8.48288E+02  1.50141E+04 -8.97079E+03  8.20112E+03 -1.43464E+04 -3.82546E+03
 -1.09836E+04 -1.34572E+04 -1.73787E+03 -1.78795E+04  8.26386E+03 -1.43230E+04  1.53935E+04 -6.27683E+03
  1.41153E+04  6.93358E+02  9.57482E+03  3.31135E+03  4.96716E+03  5.68792E+02  7.16160E+03 -7.78710E+02
  1.28471E+04  3.08347E+03  1.38606E+04  1.22437E+04  8.23077E+03  2.33890E+04 -3.21597E+03  2.46949E+04
 -1.47855E+04  1.82084E+04 -2.23923E+04  8.81317E+03 -2.29567E+04 -1.74493E+03 -1.98647E+04 -1.28663E+04
 -9.44951E+03 -1.88592E+04  6.43196E+03 -1.83695E+04  1.53871E+04 -1.07792E+04  1.47173E+04  3.22774E+03
  6.28139E+03  1.09828E+04 -7.09661E+03  1.01657E+04 -1.27510E+04  2.42907E+03 -9.82771E+03 -6.87794E+03
  1.11091E+02 -1.18662E+04  6.01553E+03 -9.03841E+03  7.13928E+03 -1.05326E+03  9.12038E+02  4.35748E+03
 -5.83334E+03  1.05023E+03 -3.04379E+03 -4.58091E+03  6.33191E+02 -9.17397E+03  7.28063E+03 -9.11007E+03
  1.10406E+04 -3.82461E+03  1.07275E+04  3.04258E+03  9.52657E+03  8.41674E+03  4.51407E+03  1.31137E+04
 -1.24497E+03  1.44181E+04 -9.01291E+03  9.35964E+03 -1.01947E+04  3.03401E+03 -7.59812E+03 -1.30648E+03
 -4.66818E+03 -3.15012E+03 -6.25459E+02  1.53766E+03 -1.59598E+03  1.64735E+03 -3.12624E+03  2.66711E+03
 -7.59994E+03 -3.25273E+02 -8.44643E+03 -7.48361E+03 -3.45880E+03 -1.09747E+04  3.82792E+03 -7.68111E+03
  6.57781E+03 -3.40179E+03  4.83095E+03  1.88318E+03  8.02197E+02  2.54903E+03 -3.51024E+03 -1.78581E+01
 -2.87175E+03 -5.04232E+03 -8.67439E+02 -6.04235E+03  3.89654E+03 -7.01941E+03  9.27471E+03 -3.44826E+03
  1.11995E+04  4.78516E+02  8.53934E+03  5.02776E+03  1.73915E+03  8.37532E+03 -5.16020E+03  8.15931E+03
 -6.54486E+03  2.69515E+03 -3.65632E+03 -1.61284E+03  1.98902E+03 -1.87142E+03  4.37581E+03 -9.26931E+02
  4.01422E+03  3.14707E+03  1.46401E+03  5.98883E+03 -3.64107E+03  5.94490E+03 -7.38788E+03  1.95352E+03
 -4.44890E+03 -3.03114E+03  7.62435E+01 -6.21607E+03  3.41725E+03 -2.67894E+03  2.77780E+03  1.08853E+03
 -2.84253E+02  2.99563E+03 -4.30396E+03  4.25774E+03 -4.25037E+03  2.23513E+03 -4.11955E+03 -6.45363E+02
 -2.82354E+03 -5.00557E+03  1.45063E+03 -6.61128E+03  5.08165E+03 -4.67197E+03  5.95067E+03  1.02640E+03
  4.53174E+03  4.81059E+03 -1.79510E+02  6.21443E+03 -4.44864E+03  4.38904E+03 -5.37264E+03 -9.65464E+01
 -5.82357E+03 -4.75038E+03 -1.38175E+03 -4.58328E+03  2.28713E+03 -4.55032E+03  2.76348E+03 -3.30903E+03
  2.69118E+03 -1.04316E+02  2.56905E+02  1.18999E+03  6.61912E+02 -7.88729E+01  3.04724E+02 -1.09275E+03
  3.47388E+03 -4.97745E+02  4.79219E+03  5.25126E+02  5.17884E+03  2.81496E+03  4.71611E+03  6.30769E+03
 -1.32747E+03  7.40110E+03 -7.30218E+03  5.99304E+03 -8.59623E+03  1.21058E+03 -6.66451E+03 -2.44999E+03
 -4.00569E+03 -5.80236E+03 -4.12217E+02 -4.75887E+03  1.75518E+03 -2.00297E+03  1.27678E+03 -1.74214E+03
  9.06719E+02 -1.48536E+03  2.41332E+03 -2.02097E+03  3.16572E+03 -1.36757E+03  3.24251E+03  4.19277E+02
  4.14452E+03  9.75777E+02  1.07898E+03  2.73804E+03 -1.79344E+03  2.00133E+03 -4.45784E+03  2.26938E+03
 -4.18067E+03 -9.39737E+02 -1.47992E+03 -3.24731E+03  4.51058E+02 -4.55746E+03  2.31675E+03 -4.88053E+03
  4.39061E+03 -3.15876E+03  5.93977E+03 -3.30330E+02  4.58911E+03  4.28071E+03  1.31339E+03  4.81218E+03
 -2.15871E+03  5.52126E+03 -2.89444E+03  1.65720E+03 -1.67487E+03 -8.67935E+02 -1.09379E+02 -6.36969E+01
 -6.21866E+02  7.56908E+01 -5.53060E+02  1.89447E+03 -2.19938E+03  1.49392E+03 -3.59367E+03 -2.19130E+02
 -1.26539E+03 -4.34450E+03  8.74301E+02 -4.30659E+03  2.11915E+03 -4.21781E+03  3.23860E+03 -4.62607E+02
  3.69094E+03  2.18154E+03  1.41502E+03  2.97885E+03 -5.10542E+02  4.09717E+03 -2.17597E+03  2.21745E+03
 -3.18916E+03  7.78869E+02 -3.63523E+03 -2.30516E+03 -4.43832E+02 -2.47444E+03  2.03607E+03 -1.89180E+03
  2.02741E+03 -1.22429E+03  1.78972E+03  2.27617E+02  6.68683E+02  1.82696E+03  3.30096E+02  7.95579E+02
  1.24353E+03  3.25853E+02  1.47345E+03  9.60988E+02  1.38698E+03  2.31156E+03  1.64216E+03  1.83351E+03
 -1.35703E+03  2.86447E+03 -2.07771E+03  3.54790E+03 -2.57512E+03  1.23774E+03 -3.79132E+03 -6.02102E+02
 -1.50705E+03 -3.15139E+03  7.55798E+02 -4.26932E+03  1.25382E+03 -2.34597E+03  2.80777E+03 -4.71494E+02
  2.38221E+03  1.31979E+03  3.08775E+02  1.92963E+03 -7.52013E+02  6.83072E+02 -9.41753E+02 -1.59650E+02
 -1.15003E+03 -1.63766E+03  1.05795E+03 -1.34233E+03  7.95651E+02 -1.24390E+03  9.61984E+02  2.67019E+02
  5.40941E+02 -8.56629E+01  9.36704E+02 -3.71288E+02 -1.55322E+02  1.11109E+03  1.24933E+03 -9.00872E+01
  3.18897E+02  2.19057E+01  1.67561E+03 -1.16035E+01 -7.05982E+01  2.11388E+03 -3.46772E+02  2.31404E+03
 -2.32352E+03  9.63220E+02 -2.24400E+03  1.81011E+02 -1.68789E+03 -4.36647E+02 -4.33703E+02 -7.46476E+02
 -2.92798E+02 -1.26313E+03  9.45759E+02 -5.14641E+02  5.77667E+02  7.85039E+02 -7.71403E+02  1.13154E+03
 -9.96721E+02  4.92128E+02 -1.47126E+03 -5.41929E+02 -2.36691E+02 -1.93892E+03  4.92671E+02 -2.10953E+03
  3.58082E+02 -5.41431E+02  1.09966E+03 -2.17410E+02  1.66510E+03  1.78240E+02 -2.28465E+02  9.21963E+02
 -4.05329E+02 -2.66265E+01 -1.11924E+03  3.18585E+02  1.12771E+03 -5.21295E+02  1.98051E+03 -1.33504E+03
  8.00781E+02  2.15036E+01  2.24585E+03  7.03049E+02  1.12071E+03  1.40977E+03  2.19727E+02  1.38758E+03
 -7.83565E+02 -7.38208E+01 -1.06321E+03  2.78848E+02 -7.99677E+02 -1.26980E+03  4.73540E+02 -2.02081E+02
  1.26278E+03 -8.14911E+02  1.27854E+03 -1.83835E+02 -9.67560E+01  1.03753E+03  5.04558E+02  7.29178E+02
 -4.04085E+02  1.03048E+03 -3.34848E+02  4.05939E+02 -2.66838E+02  6.97494E+02 -1.19085E+03  3.24072E+02
 -8.44426E+02  7.82163E+02 -1.80418E+03  1.01704E+03 -1.44743E+03  7.70810E+01 -1.98429E+03 -1.09008E+03
 -9.22646E+02 -1.72877E+03  2.38620E+02 -2.57783E+03  1.24051E+03 -1.91130E+03  2.46869E+03 -7.63464E+02
  2.30759E+03 -3.45654E+02  1.25157E+03  1.61138E+03 -1.00839E+03  1.33259E+03 -4.01651E+02  1.10029E+03
 -1.27220E+03  1.17124E+03 -5.80426E+02 -6.07319E+01 -2.77092E+02  1.81941E+02 -2.17823E+02 -1.19760E+02
 -7.72511E+02  6.37778E+01 -1.00845E+03 -1.74169E+02  5.01168E+02 -3.15485E+02 -2.11906E+02 -8.07503E+02
  1.23468E+03 -6.89368E+02  1.02988E+01  3.02766E+02  7.44558E+02  1.26545E+03 -7.75234E+02  1.40931E+03
 -9.78664E+02  1.58712E+03 -1.52803E+03  8.65624E+02 -1.42670E+03 -8.73593E-01 -6.80602E+02 -1.06424E+03
 -3.33303E+02 -7.00296E+02  3.10415E+02 -1.13809E+03  2.85251E+02  2.42847E+01  9.71690E+02  3.58878E+02
 -1.61955E+02  1.57841E+02  2.39413E+02  1.79751E+02 -4.69796E+02  7.19939E+01  1.25830E+02 -1.15199E+02
  5.27837E+02  2.45011E+02  2.31461E+02  6.51655E+02  1.14835E+01  5.40252E+01  5.14866E+02  5.25454E+02
 -1.65456E+02  8.17141E+02 -2.73879E+02  8.49017E+01 -8.02198E+02 -5.56932E+02 -8.24240E+01 -1.51517E+03
  1.08506E+02 -4.73014E+02  4.73900E+02  4.74868E+02  9.63606E+02 -8.28074E+02  3.36319E+02  4.67567E+02
  7.61757E+02  5.74814E+02 -1.56574E+02  5.17902E+02 -4.49318E+02  1.07531E+02 -5.32736E+02  4.22270E+01
  1.51907E+01 -1.83945E+02 -3.57428E+02  1.61298E+02 -4.43864E+02  3.03452E+02 -6.90941E+02 -2.36316E+01
 -1.21474E+03  6.17682E+02 -3.97523E+02 -6.53613E+02  6.86024E+02 -1.66867E+03  7.03398E+02 -1.99799E+02
  3.73839E+02  2.26730E+02 -2.95223E+01  1.17248E+01  1.28063E+02  9.43350E+02 -5.70860E+02  1.08168E+03
