 $NMID ID='MM_0lb_SNR400_14hz_g60_100.RAW', FMTDAT='(8E13.5)'
 TRAMP=1., VOLUME=1. $END
  3.09765E+05  7.38465E+02  3.37673E+05  2.50579E+05  8.43715E+04  3.37846E+05 -1.32641E+05  2.51640E+05
 -1.90726E+05  8.37676E+04 -1.12754E+05 -3.22114E+04  8.28783E+02 -5.07653E+04  5.32469E+04 -2.39653E+02
  3.50483E+04  5.28058E+04 -1.67211E+04  7.52431E+04 -6.06088E+04  6.38269E+04 -8.49789E+04  3.21347E+04
 -8.16492E+04 -1.14255E+04 -5.76354E+04 -5.17453E+04 -1.52952E+04 -6.96159E+04  2.80109E+04 -4.59286E+04
  4.05986E+04  3.36437E+03  1.60883E+04  4.76056E+04 -3.39328E+04  4.75087E+04 -6.68269E+04 -6.22837E+01
 -5.42848E+04 -5.72646E+04 -7.28909E+03 -7.79080E+04  3.45660E+04 -5.56565E+04  4.84499E+04 -1.77326E+04
  4.45970E+04  1.16908E+04  3.24385E+04  2.64106E+04  1.58321E+04  2.99954E+04 -4.72316E+03  2.79097E+04
 -2.20056E+04  1.18105E+04 -1.90235E+04 -5.15840E+03  6.20867E+03 -7.32627E+03  2.31013E+04  1.28964E+04
  7.51540E+03  3.66605E+04 -3.25621E+04  3.61023E+04 -6.34142E+04  1.79824E+03 -5.74292E+04 -4.37753E+04
 -1.26568E+04 -6.40773E+04  4.03401E+04 -4.65404E+04  5.89257E+04 -2.80654E+03  3.46973E+04  3.27293E+04
 -6.05097E+03  3.67411E+04 -3.05190E+04  1.71919E+04 -3.20642E+04 -4.52076E+03 -1.71221E+04 -1.19265E+04
 -8.50288E+03 -1.35690E+04 -1.55375E+03 -1.87578E+04  8.58375E+03 -2.30245E+04  1.56531E+04 -1.32640E+04
  1.10166E+04  5.97165E+03 -9.44577E+03  1.24802E+04 -2.18154E+04 -5.44234E+03 -8.33060E+03 -3.46767E+04
  2.32849E+04 -4.51035E+04  4.97184E+04 -2.01078E+04  4.57791E+04  1.98665E+04  1.61687E+04  4.53001E+04
 -1.67715E+04  3.41158E+04 -2.65578E+04  1.92067E+03 -1.06986E+04 -2.82206E+04  2.11645E+04 -3.56241E+04
  4.28422E+04 -9.83902E+03  3.67148E+04  2.38452E+04  1.96405E+04  4.78055E+04 -8.61512E+03  5.22864E+04
 -3.29892E+04  3.55766E+04 -4.45194E+04  1.02863E+04 -4.36405E+04 -1.76399E+04 -2.46832E+04 -3.93537E+04
  7.51679E+03 -3.91756E+04  3.24837E+04 -1.51017E+04  2.97550E+04  1.14597E+04  4.62111E+03  1.96629E+04
 -1.36514E+04  9.24593E+03 -1.09334E+04 -7.67277E+03  4.99174E+03 -1.05686E+04  1.87033E+04  6.02530E+03
  1.35713E+04  2.16110E+04 -6.29270E+03  2.51597E+04 -2.34109E+04  1.21870E+04 -2.95311E+04 -4.01390E+03
 -2.17302E+04 -1.79804E+04 -9.48672E+03 -2.23532E+04  3.86171E+03 -2.15170E+04  1.67835E+04 -1.99310E+04
  2.78959E+04 -1.36432E+04  3.39813E+04  3.30305E+03  2.49191E+04  2.10790E+04  4.02857E+03  3.78153E+04
 -1.88341E+04  3.17904E+04 -2.89374E+04  1.07962E+04 -2.11661E+04 -1.05134E+04 -4.71159E+03 -1.31953E+04
  1.69266E+03 -2.33858E+03 -5.64967E+03  6.90065E+03 -1.70237E+04  4.50179E+03 -1.73028E+04 -7.80894E+03
 -1.05771E+04 -2.01959E+04  5.67089E+03 -2.47402E+04  1.62900E+04 -1.80379E+04  1.92941E+04 -1.73901E+03
  1.17846E+04  1.39769E+04 -1.04073E+03  2.00111E+04 -1.36601E+04  1.15453E+04 -2.04682E+04 -4.97612E+03
 -1.46620E+04 -1.73700E+04 -1.81879E+03 -2.39749E+04  1.07383E+04 -1.97052E+04  2.02508E+04 -1.01371E+04
  1.85452E+04 -3.09868E+02  1.32149E+04  4.35437E+03  7.30202E+03 -3.24604E+02  9.61882E+03 -1.31728E+03
  1.87335E+04  2.75744E+03  2.14332E+04  1.57931E+04  1.38399E+04  3.20902E+04 -2.77971E+03  3.71588E+04
 -2.12425E+04  2.99610E+04 -3.46525E+04  1.53990E+04 -3.59140E+04 -2.47861E+03 -3.00246E+04 -2.07942E+04
 -1.22969E+04 -2.97570E+04  1.03116E+04 -2.68578E+04  2.30523E+04 -1.37410E+04  2.04939E+04  5.62589E+03
  7.30723E+03  1.55196E+04 -9.76739E+03  1.33219E+04 -1.67274E+04  2.33084E+03 -1.27474E+04 -1.09023E+04
 -5.20870E+02 -1.60565E+04  8.26220E+03 -1.14808E+04  1.06308E+04 -7.63438E+02  3.02983E+03  6.59164E+03
 -6.26189E+03  2.66774E+03 -6.26477E+03 -6.08130E+03 -1.02159E+03 -1.49362E+04  9.72751E+03 -1.49837E+04
  1.80222E+04 -7.85020E+03  1.98345E+04  3.28205E+03  1.72388E+04  1.44946E+04  7.38265E+03  2.15198E+04
 -4.04774E+03  2.42915E+04 -1.53125E+04  1.53264E+04 -1.68430E+04  3.50471E+03 -1.19919E+04 -4.33458E+03
 -5.10424E+03 -5.52782E+03 -4.64616E+02  1.25573E+03 -2.20593E+03  2.65069E+03 -5.27400E+03  4.84837E+03
 -1.17741E+04 -1.50408E+02 -1.15967E+04 -9.93834E+03 -4.73346E+03 -1.54780E+04  4.37993E+03 -1.25915E+04
  9.56225E+03 -5.21356E+03  7.70639E+03  3.04554E+03 -5.41736E+02  5.41939E+03 -5.98829E+03  9.69632E+01
 -6.07356E+03 -7.81203E+03 -6.51602E+01 -1.16346E+04  5.89420E+03 -1.24158E+04  1.51240E+04 -6.08374E+03
  1.77616E+04  1.61732E+03  1.28328E+04  1.07929E+04  2.75091E+03  1.45163E+04 -8.19287E+03  1.20515E+04
 -1.04240E+04  3.15409E+03 -5.37998E+03 -2.60676E+03  2.23512E+03 -3.28566E+03  6.38586E+03 -1.05980E+03
  5.81144E+03  5.07922E+03  1.16207E+03  9.45343E+03 -7.06872E+03  8.95404E+03 -1.17633E+04  1.93632E+03
 -8.14355E+03 -5.71035E+03  3.72458E+02 -1.00907E+04  6.23641E+03 -5.31698E+03  6.93020E+03  2.09357E+03
  1.81153E+03  6.51364E+03 -6.45176E+03  8.54443E+03 -8.86733E+03  3.71404E+03 -9.12187E+03 -2.60723E+03
 -5.49268E+03 -1.06638E+04  2.37873E+03 -1.25036E+04  1.07185E+04 -7.32711E+03  1.16831E+04  2.04147E+03
  7.05662E+03  9.12081E+03 -5.38680E+02  1.19527E+04 -7.06746E+03  6.14925E+03 -8.80227E+03 -3.57255E+02
 -8.60594E+03 -7.81390E+03 -1.89755E+03 -8.62041E+03  4.76502E+03 -7.09008E+03  5.14723E+03 -3.31755E+03
  3.96107E+03  1.42755E+03 -6.43398E+02  1.18052E+03  8.60711E+02 -1.45186E+03  1.58501E+03 -4.26271E+03
  7.69877E+03 -2.61745E+03  1.07525E+04  1.07120E+03  1.07860E+04  6.87095E+03  6.88221E+03  1.36546E+04
 -3.34666E+03  1.51899E+04 -1.28438E+04  1.11984E+04 -1.73114E+04  2.11943E+03 -1.32937E+04 -4.88465E+03
 -6.64686E+03 -1.08722E+04  6.93773E+01 -9.20080E+03  4.00218E+03 -4.71854E+03  3.29079E+03 -3.66817E+03
  2.51880E+03 -1.82099E+03  2.76100E+03 -2.98198E+03  4.37827E+03 -2.26599E+03  5.87696E+03 -5.33819E+02
  7.40225E+03  1.79078E+03  2.98176E+03  5.95002E+03 -1.83802E+03  6.60125E+03 -7.26895E+03  5.48523E+03
 -9.00867E+03 -1.53115E+03 -4.77059E+03 -6.53360E+03 -3.78113E+02 -1.00822E+04  5.93011E+03 -9.77761E+03
  1.04686E+04 -5.64522E+03  1.20729E+04  1.96601E+03  8.74704E+03  7.92623E+03  1.28614E+03  1.06700E+04
 -4.07974E+03  9.28977E+03 -5.89019E+03  3.44096E+03 -4.22005E+03 -1.16291E+03 -1.26439E+03 -1.30838E+03
 -9.70083E+02 -1.10777E+02 -1.47736E+03  1.84060E+03 -4.48767E+03  1.49399E+03 -6.70708E+03 -3.88546E+02
 -4.53139E+03 -7.07851E+03  1.48674E+03 -8.90664E+03  4.98092E+03 -7.99976E+03  8.82205E+03 -3.04925E+03
  7.95454E+03  4.84162E+03  3.78147E+03  7.44920E+03 -1.63802E+03  8.80871E+03 -6.34500E+03  6.36566E+03
 -7.88082E+03  4.37294E+02 -6.07838E+03 -5.11537E+03 -2.19551E+02 -7.15805E+03  3.05408E+03 -5.32019E+03
  5.55452E+03 -2.38945E+03  3.85638E+03  4.57331E+02  7.78345E+02  2.06981E+03  1.10321E+03  1.45023E+03
  2.66450E+03  5.98264E+02  1.80789E+03  1.77401E+03  1.87573E+03  3.85174E+03  2.46428E+03  3.95189E+03
 -1.76915E+03  6.58719E+03 -6.06855E+03  7.14363E+03 -7.45387E+03  1.58674E+03 -8.65139E+03 -2.71857E+03
 -3.72256E+03 -8.22811E+03  1.56092E+03 -9.34020E+03  4.94089E+03 -5.34841E+03  6.64326E+03 -1.54321E+03
  5.17075E+03  3.15910E+03  1.14720E+03  4.96439E+03 -2.22958E+03  2.91532E+03 -2.86057E+03 -6.29092E+02
 -1.82721E+03 -3.88964E+03  2.81742E+03 -4.12135E+03  3.36020E+03 -6.79783E+02  3.10188E+03  8.70035E+02
  2.43970E+03  1.23696E+03  1.48199E+03  4.38625E+02  4.95003E+01  1.23631E+03  1.74534E+03 -2.91763E+02
  1.34278E+03 -3.89922E+02  3.29095E+03  1.32718E+03  1.30226E+03  4.27600E+03 -6.62272E+02  5.44363E+03
 -4.34263E+03  3.64475E+03 -4.86104E+03  8.04644E+02 -4.45425E+03 -1.95835E+03 -1.10720E+03 -3.13126E+03
  5.32871E+02 -2.83598E+03  1.91721E+03 -1.66456E+03  1.85981E+03  2.00124E+03 -1.19072E+03  2.50124E+03
 -3.95366E+03  1.39303E+03 -2.95150E+03 -1.39153E+03 -2.06635E+03 -3.30826E+03  3.99207E+02 -3.93084E+03
  1.66060E+03 -1.88812E+03  2.22751E+03 -1.38994E+02  2.84333E+03  4.16836E+02  6.41703E+02  2.20510E+03
 -7.76816E+02  7.68743E+02 -2.22772E+03 -7.23709E+02  7.26684E+02 -2.51820E+03  3.66636E+03 -2.05136E+03
  4.37671E+03  1.50559E+02  5.08751E+03  3.12842E+03  1.54477E+03  4.24679E+03 -1.78089E+03  4.62612E+03
 -3.41584E+03  1.83441E+03 -3.60760E+03 -2.25726E+02 -2.61194E+03 -2.92175E+03  5.97154E+02 -2.58230E+03
  2.98005E+03 -1.32006E+03  2.70259E+03  1.90250E+03  2.07628E+02  3.31268E+03  1.94385E+02  2.26896E+03
 -6.46447E+02  1.72117E+03 -1.02602E+03  9.37081E+02  5.70123E+02  6.37072E+02 -8.51871E+02  1.45622E+03
 -1.49042E+03  2.41270E+03 -3.49321E+03  1.44089E+03 -4.09757E+03 -4.77175E+02 -4.65707E+03 -3.29016E+03
 -2.42288E+03 -5.92857E+03  1.50918E+03 -6.78581E+03  3.68035E+03 -5.01619E+03  6.44759E+03 -1.51904E+03
  5.62044E+03  8.60972E+02  3.17657E+03  4.39425E+03 -4.80256E+02  3.83699E+03 -1.38087E+03  3.23980E+03
 -2.71655E+03  1.35116E+03 -1.10468E+03 -3.98130E+02 -6.91939E+02  2.24427E+02 -1.58192E+03 -1.58619E+02
 -1.15315E+03 -2.24354E+02 -1.13718E+03 -6.02107E+02 -7.50755E+01 -9.95344E+02 -6.03675E+02 -1.84313E+03
  1.97076E+03 -1.44353E+03  1.88000E+03 -7.92051E+01  3.40289E+03  1.92064E+03  2.29507E+02  4.11637E+03
 -2.07606E+03  5.33844E+03 -3.95508E+03  3.03376E+03 -4.95096E+03 -4.20258E+02 -3.65779E+03 -3.18683E+03
 -1.08219E+03 -4.23630E+03  8.58382E+02 -4.09458E+03  1.73091E+03 -1.38465E+03  2.75543E+03 -4.58836E+01
  1.64333E+03  1.18006E+03 -2.37836E+01  9.13506E+02 -6.68657E+02 -1.18439E+02 -2.32063E+02 -1.22384E+03
  1.52787E+03 -3.68990E+02  1.29978E+03 -1.32525E+02  7.58163E+02  9.47624E+02  7.73945E+02  2.18880E+03
 -1.87880E+03  1.80360E+03 -2.71972E+03 -7.08094E+01 -2.15077E+03 -1.55715E+03  1.69136E+02 -3.68929E+03
  1.21398E+03 -2.29449E+03  2.58208E+03 -8.90723E+02  2.36874E+03  8.93687E+01  1.71589E+03  2.49782E+03
  5.55375E+02  2.42561E+03 -4.59346E+02  1.65815E+03 -1.42931E+03  1.35673E+03 -1.38051E+03 -8.96652E+01
 -3.98784E+02 -3.68128E+02 -1.46277E+03 -5.21867E+02 -1.61360E+03  7.44445E+02 -1.65913E+03 -3.62055E+02
 -1.86123E+03 -1.52327E+03 -8.73297E+02 -2.31640E+03  1.71871E+03 -3.00886E+03  2.53561E+03 -1.47488E+03
  2.24165E+03  5.17319E+02  9.26022E+02  1.49091E+03 -3.05592E+02  1.57967E+03 -1.48986E+03  1.46343E+03
