 $NMID ID='MM_0lb_SNR400_19hz_g45_59.RAW', FMTDAT='(8E13.5)'
 TRAMP=1., VOLUME=1. $END
  3.10016E+05  3.17012E+02  3.36915E+05  2.50425E+05  8.41549E+04  3.37522E+05 -1.33057E+05  2.50318E+05
 -1.89597E+05  8.21867E+04 -1.10425E+05 -3.26783E+04  1.57083E+03 -4.98268E+04  5.35507E+04  5.51182E+02
  3.49575E+04  5.25282E+04 -1.66855E+04  7.48481E+04 -6.04302E+04  6.26989E+04 -8.23441E+04  3.08869E+04
 -7.95090E+04 -1.12009E+04 -5.62045E+04 -4.97972E+04 -1.46409E+04 -6.80020E+04  2.63687E+04 -4.42054E+04
  3.90122E+04  4.54655E+03  1.49757E+04  4.70388E+04 -3.40000E+04  4.62267E+04 -6.49599E+04 -6.43293E+02
 -5.18669E+04 -5.57325E+04 -5.81221E+03 -7.48303E+04  3.29496E+04 -5.27825E+04  4.61590E+04 -1.62148E+04
  4.14544E+04  1.06861E+04  3.08088E+04  2.42043E+04  1.57769E+04  2.77370E+04 -4.37699E+03  2.64267E+04
 -2.18925E+04  1.30392E+04 -1.97584E+04 -3.69514E+03  4.05419E+03 -7.22657E+03  2.08623E+04  1.01434E+04
  7.92955E+03  3.30921E+04 -3.02598E+04  3.37817E+04 -6.05360E+04  2.00974E+03 -5.51143E+04 -4.10544E+04
 -1.25362E+04 -6.04415E+04  3.71517E+04 -4.29627E+04  5.49073E+04 -1.88485E+03  3.19456E+04  3.02459E+04
 -6.65074E+03  3.22852E+04 -2.83564E+04  1.24922E+04 -2.77097E+04 -5.11237E+03 -1.40299E+04 -9.79400E+03
 -7.14531E+03 -1.09859E+04 -4.89830E+02 -1.69912E+04  6.23030E+03 -2.23780E+04  1.48027E+04 -1.42628E+04
  1.20381E+04  4.14941E+03 -6.29468E+03  1.30752E+04 -1.88421E+04 -2.04574E+03 -8.24535E+03 -2.99117E+04
  2.03822E+04 -4.00073E+04  4.46537E+04 -1.83020E+04  4.12835E+04  1.76654E+04  1.39381E+04  4.16545E+04
 -1.48388E+04  3.10693E+04 -2.27927E+04  4.17853E+02 -7.68007E+03 -2.59187E+04  2.05042E+04 -3.10688E+04
  3.77168E+04 -7.45318E+03  3.06820E+04  2.20046E+04  1.47896E+04  4.20870E+04 -7.64521E+03  4.41529E+04
 -2.81191E+04  2.92976E+04 -3.65616E+04  8.02125E+03 -3.76410E+04 -1.44446E+04 -2.14462E+04 -3.34103E+04
  6.72858E+03 -3.32348E+04  2.90077E+04 -1.20884E+04  2.60528E+04  1.04115E+04  3.07517E+03  1.74299E+04
 -1.29657E+04  7.11673E+03 -9.46838E+03 -7.28529E+03  5.98691E+03 -9.93668E+03  1.70729E+04  5.86123E+03
  1.19245E+04  2.20472E+04 -6.52813E+03  2.28886E+04 -2.11554E+04  9.22851E+03 -2.43137E+04 -7.38149E+03
 -1.61091E+04 -1.59102E+04 -4.79192E+03 -1.64831E+04  3.91102E+03 -1.39537E+04  1.16306E+04 -1.34174E+04
  2.07542E+04 -1.12533E+04  2.73844E+04  1.03904E+03  2.07504E+04  1.62550E+04  4.28369E+03  3.15608E+04
 -1.60395E+04  2.68599E+04 -2.51513E+04  8.96141E+03 -1.98514E+04 -1.05303E+04 -3.96355E+03 -1.40568E+04
  2.56990E+03 -4.23459E+03 -2.15979E+03  5.52337E+03 -1.22985E+04  5.26904E+03 -1.31241E+04 -4.54490E+03
 -8.35909E+03 -1.47322E+04  4.90493E+03 -1.84806E+04  1.24424E+04 -1.37036E+04  1.42156E+04 -1.48517E+03
  8.25266E+03  1.05936E+04 -3.66014E+02  1.52184E+04 -1.01158E+04  8.42194E+03 -1.48471E+04 -3.31270E+03
 -1.06489E+04 -1.38262E+04 -1.30880E+03 -1.82464E+04  7.86778E+03 -1.47438E+04  1.55809E+04 -6.52995E+03
  1.43166E+04  5.05064E+02  1.00156E+04  3.83625E+03  5.34760E+03  7.70542E+02  7.53407E+03 -9.75244E+02
  1.29721E+04  2.40852E+03  1.40322E+04  1.24469E+04  8.70771E+03  2.40462E+04 -3.03208E+03  2.54711E+04
 -1.45970E+04  1.98508E+04 -2.34149E+04  9.04345E+03 -2.39803E+04 -1.95685E+03 -2.04907E+04 -1.31194E+04
 -9.79034E+03 -1.95220E+04  6.70663E+03 -1.81956E+04  1.59820E+04 -1.09070E+04  1.50192E+04  3.24023E+03
  6.39229E+03  1.08755E+04 -6.66877E+03  1.03730E+04 -1.28127E+04  2.67218E+03 -1.05876E+04 -7.43508E+03
 -1.09195E+02 -1.18554E+04  5.84851E+03 -9.38509E+03  7.87846E+03 -1.52357E+03  7.34925E+02  4.78306E+03
 -5.73352E+03  1.16542E+03 -3.23065E+03 -3.84648E+03  6.61582E+02 -1.01550E+04  7.24510E+03 -9.74219E+03
  1.16981E+04 -4.04916E+03  1.16900E+04  2.54321E+03  9.78760E+03  8.85937E+03  4.56362E+03  1.29193E+04
 -1.54143E+03  1.55943E+04 -9.00292E+03  9.67926E+03 -1.08330E+04  2.75206E+03 -8.00631E+03 -1.98935E+03
 -4.08766E+03 -2.75859E+03 -5.08996E+02  9.60964E+02 -1.59857E+03  1.63101E+03 -3.62490E+03  3.51726E+03
 -7.84357E+03 -1.23389E+03 -8.44815E+03 -6.46736E+03 -3.49644E+03 -1.10834E+04  3.53605E+03 -8.02572E+03
  6.94541E+03 -3.86408E+03  5.12692E+03  1.85895E+03  6.34021E+02  2.64965E+03 -3.73834E+03  5.72217E+02
 -2.95646E+03 -5.31557E+03  3.33909E+00 -6.58002E+03  3.28854E+03 -7.36288E+03  9.72856E+03 -4.10090E+03
  1.07945E+04  3.15208E+02  8.75303E+03  5.55020E+03  1.71890E+03  8.16254E+03 -5.11702E+03  7.43713E+03
 -6.53321E+03  2.88596E+03 -3.50900E+03 -1.37536E+03  1.40198E+03 -1.52313E+03  4.66058E+03 -9.16747E+02
  4.34515E+03  3.22138E+03  1.37226E+03  6.50198E+03 -4.34097E+03  6.56792E+03 -7.84277E+03  2.09821E+03
 -4.60146E+03 -3.17636E+03  3.39702E+02 -6.18368E+03  3.29477E+03 -3.64552E+03  3.27699E+03  9.46956E+02
 -3.36927E+01  3.42334E+03 -3.86250E+03  4.21177E+03 -4.47555E+03  2.52708E+03 -4.08241E+03 -8.90483E+02
 -2.48334E+03 -5.03482E+03  1.23944E+03 -6.28689E+03  5.73621E+03 -4.38406E+03  5.39199E+03  8.35742E+02
  4.37223E+03  5.47551E+03  5.42656E+02  7.35711E+03 -4.59049E+03  4.02811E+03 -5.16314E+03 -2.80871E+02
 -5.17776E+03 -4.81526E+03 -7.96639E+02 -4.89222E+03  2.43561E+03 -4.59272E+03  2.90757E+03 -2.79057E+03
  3.05620E+03  2.79599E+02  3.45460E+02  1.78425E+03  5.33918E+02 -6.85694E+00 -3.86242E+02 -1.68168E+03
  3.15290E+03 -1.31545E+03  4.66949E+03  5.59484E+02  4.97247E+03  2.75343E+03  4.94032E+03  6.41748E+03
 -1.44409E+03  8.30666E+03 -7.08513E+03  6.04996E+03 -9.53475E+03  1.02028E+03 -7.26371E+03 -2.13314E+03
 -4.21675E+03 -6.14499E+03 -3.36463E+02 -5.17821E+03  2.31232E+03 -1.74963E+03  9.25477E+02 -2.20099E+03
  1.44491E+03 -1.76787E+03  2.59959E+03 -2.41688E+03  3.21641E+03 -1.02348E+03  3.71806E+03  1.08305E+03
  4.04232E+03  1.35673E+03  1.97421E+02  3.21754E+03 -1.42758E+03  3.33100E+03 -4.01954E+03  2.74431E+03
 -4.58312E+03 -9.76630E+02 -1.43517E+03 -3.48932E+03  6.11368E+02 -4.47033E+03  2.84050E+03 -4.80961E+03
  5.20751E+03 -3.19409E+03  6.05611E+03 -4.55576E+02  4.33906E+03  4.35835E+03  1.30909E+03  5.31625E+03
 -2.04725E+03  5.28367E+03 -3.05066E+03  1.41603E+03 -1.59653E+03 -8.03021E+02 -4.34660E+02 -2.51944E+02
 -2.77633E+02  3.06317E+02 -9.07364E+02  1.77727E+03 -2.73843E+03  1.25236E+03 -4.05769E+03 -4.62537E+02
 -9.17752E+02 -3.62068E+03  9.83302E+02 -4.02121E+03  2.67657E+03 -3.80782E+03  3.15287E+03 -1.49479E+03
  3.68165E+03  2.39415E+03  1.31713E+03  3.45967E+03 -5.14986E+02  4.46088E+03 -2.28041E+03  2.26856E+03
 -3.24147E+03  7.24720E+02 -3.39406E+03 -2.38751E+03  2.88818E+02 -2.52615E+03  1.03336E+03 -2.07631E+03
  2.20795E+03 -1.14231E+03  1.70962E+03  4.85827E+02  4.71604E+02  1.71155E+03  5.35944E+02  7.16355E+02
  1.59346E+03  1.39008E+02  1.14353E+03  6.47722E+02  7.55271E+02  2.47846E+03  1.48463E+03  1.92632E+03
 -1.27516E+03  3.29680E+03 -2.23239E+03  3.66322E+03 -2.73487E+03  1.48999E+03 -3.89486E+03 -4.76189E+02
 -1.16092E+03 -3.28487E+03  1.01371E+03 -4.07907E+03  1.43391E+03 -1.46075E+03  2.70872E+03 -1.05466E+03
  1.95140E+03  1.98284E+03  2.86970E+01  2.42671E+03 -6.68838E+02  7.99962E+02 -8.57060E+02 -3.47638E+02
 -2.48620E+02 -1.56766E+03  1.15684E+03 -1.33838E+03  6.64461E+02 -5.41121E+02  1.33244E+03  5.97781E+02
  9.41255E+02  3.54079E+02  7.66448E+02 -2.91043E+02 -6.72040E+00  2.82741E+02  1.57766E+03 -3.75493E+02
 -4.72676E+02 -3.76981E+02  1.77454E+03  7.00583E+02  1.67993E+02  2.43893E+03 -2.88779E+02  2.71640E+03
 -2.03316E+03  9.60330E+02 -1.56842E+03  3.28773E+02 -1.97846E+03 -6.82778E+02  2.07600E+01 -1.16150E+03
  3.17109E+02 -9.56729E+02  1.24812E+03 -8.64137E+02  2.15718E+02  1.56831E+03 -5.89973E+02  8.25730E+02
 -1.45525E+03  5.38257E+02 -1.29318E+03 -1.33712E+03 -5.20483E+02 -2.28351E+03 -2.08672E+02 -1.38411E+03
  2.94630E+02 -6.90170E+02  4.21948E+02  4.73250E+02  9.70895E+02  1.76759E+02  9.51859E+01  1.09631E+03
 -6.25782E+02  3.15489E+02 -8.49918E+02 -6.21309E+02  4.24282E+02 -8.98910E+02  1.93111E+03 -2.13071E+02
  1.55748E+02  2.11554E+02  2.61975E+03  2.40871E+02  8.18995E+02  1.21789E+03 -4.23795E+02  1.88530E+03
 -1.57874E+03  1.04326E+02 -1.43280E+03 -2.26868E+00 -1.05073E+03 -1.15928E+03 -3.65411E+02 -3.16391E+02
  1.21461E+03 -8.24449E+02  5.45764E+02  7.20919E+02  6.10132E+01  6.99863E+02  2.57734E+02  1.22761E+03
 -3.60462E+01  1.71138E+03 -5.02517E+02  4.27861E+01 -2.89452E+02  2.26267E+02 -7.07091E+02  8.14300E+02
 -6.37404E+02  7.43250E+02 -1.53402E+03  5.58374E+02 -1.87044E+03  2.21753E+02 -2.21784E+03 -3.37746E+02
 -1.29498E+03 -1.72588E+03  1.41468E+02 -2.91433E+03  9.15930E+02 -2.13862E+03  2.56935E+03 -8.38170E+02
  1.71756E+03 -3.25853E+02  1.51229E+03  1.51139E+03 -5.49963E+01  8.25872E+02 -7.31420E+02  8.95260E+02
 -6.96249E+02  1.19620E+03 -5.29737E+02 -7.98067E+02 -7.22637E+02  4.85481E+02 -6.37067E+02  5.43836E+02
 -1.95422E+03 -2.76470E+02 -1.15249E+03  2.98560E+02  4.21919E+02 -7.55134E+02 -4.75952E+02 -8.90045E+02
  1.46819E+03 -7.19150E+02  4.60901E+02  3.43361E+02  1.10450E+03  8.26755E+02 -6.69996E+02  1.34379E+03
 -5.83084E+02  1.93418E+03 -9.70460E+02  1.16016E+03 -8.20496E+02 -1.41312E+01 -7.14889E+02 -1.07720E+03
 -9.28530E+02 -1.17164E+03  5.36964E+02 -1.02778E+03  7.11511E+02 -1.92922E+02  2.92228E+02  4.72704E+02
  6.05982E+02  8.35594E+01  5.31215E+02  6.94794E+01 -2.96031E+01  9.98070E+01 -4.33645E+02  2.19878E+02
  2.51195E+02 -2.41719E+01  5.01937E+02  1.36732E+02 -1.31132E+02  3.18910E+02  2.98887E+02  1.53912E+01
 -6.79954E+01  1.18559E+03 -1.15626E+02  1.32970E+02 -1.04539E+03 -2.84561E+02 -1.35425E+02 -1.34171E+03
  4.68896E+02 -5.14695E+02 -4.84148E+01 -2.16781E+02  9.06385E+02 -3.95636E+02  8.74142E+02  6.57545E+02
  1.66838E+02  5.44951E+02 -2.68754E+02  2.90671E+02 -4.38196E+02  2.97056E+02 -6.81719E+02 -2.35847E+02
  2.34748E+02 -2.15724E+02 -2.33282E+02  1.45269E+02 -9.17157E+02 -1.47942E+02 -6.49328E+02 -3.11892E+02
 -8.76801E+02 -1.76417E+02 -1.90854E+02 -3.20681E+02  6.91565E+02 -2.02339E+03  7.05772E+02  1.37591E+02
  7.72278E+02  7.20841E+01 -4.52489E+02 -9.68839E+00  1.41566E+02  6.04545E+02 -2.86791E+02  2.25730E+02
