 $NMID ID='MM_0lb_SNR400_9hz_g50_89.RAW', FMTDAT='(8E13.5)'
 TRAMP=1., VOLUME=1. $END
  3.10511E+05  4.65852E+02  3.37998E+05  2.51722E+05  8.53322E+04  3.38518E+05 -1.32260E+05  2.51864E+05
 -1.90291E+05  8.36442E+04 -1.12395E+05 -3.25711E+04  6.80615E+02 -5.06404E+04  5.45460E+04 -7.69820E+02
  3.55882E+04  5.21100E+04 -1.68372E+04  7.55599E+04 -6.05202E+04  6.44473E+04 -8.59320E+04  3.29291E+04
 -8.29140E+04 -1.17879E+04 -5.76384E+04 -5.22136E+04 -1.54790E+04 -7.08140E+04  2.78110E+04 -4.62416E+04
  4.16483E+04  3.45867E+03  1.70541E+04  4.90278E+04 -3.45531E+04  4.89526E+04 -6.73008E+04 -3.75397E+02
 -5.48671E+04 -5.73008E+04 -7.87580E+03 -7.97300E+04  3.41049E+04 -5.66192E+04  4.97732E+04 -1.82591E+04
  4.54058E+04  1.15683E+04  3.33624E+04  2.68442E+04  1.56143E+04  3.03462E+04 -5.63792E+03  2.71904E+04
 -2.22762E+04  1.12944E+04 -1.78245E+04 -5.55453E+03  6.71386E+03 -7.62761E+03  2.28331E+04  1.33514E+04
  7.19669E+03  3.75783E+04 -3.44388E+04  3.70428E+04 -6.58853E+04  1.74030E+03 -5.86790E+04 -4.49979E+04
 -1.27020E+04 -6.65781E+04  4.15856E+04 -4.76046E+04  6.14580E+04 -3.05671E+03  3.65961E+04  3.39145E+04
 -6.18428E+03  3.89753E+04 -3.18469E+04  1.89545E+04 -3.37889E+04 -3.17161E+03 -1.89134E+04 -1.07992E+04
 -9.53496E+03 -1.51127E+04 -2.53530E+02 -2.03693E+04  8.46447E+03 -2.31161E+04  1.61701E+04 -1.26211E+04
  1.10402E+04  6.34468E+03 -9.84695E+03  1.25409E+04 -2.33345E+04 -6.36065E+03 -8.52207E+03 -3.70887E+04
  2.49126E+04 -4.69750E+04  5.25077E+04 -2.00213E+04  4.86195E+04  2.10245E+04  1.72352E+04  4.71743E+04
 -1.67420E+04  3.49227E+04 -2.73403E+04  1.98606E+03 -1.18777E+04 -2.93908E+04  2.21368E+04 -3.62563E+04
  4.40747E+04 -1.14508E+04  4.00543E+04  2.46808E+04  2.19418E+04  5.04334E+04 -8.37808E+03  5.60423E+04
 -3.44279E+04  3.77573E+04 -4.79459E+04  1.19317E+04 -4.75048E+04 -1.85644E+04 -2.62060E+04 -4.19585E+04
  8.15834E+03 -4.19972E+04  3.38037E+04 -1.68998E+04  3.18598E+04  1.12400E+04  5.06594E+03  2.03256E+04
 -1.38434E+04  1.00226E+04 -1.05495E+04 -7.14970E+03  5.49490E+03 -1.03513E+04  1.95023E+04  5.73716E+03
  1.53363E+04  2.35131E+04 -5.84860E+03  2.73435E+04 -2.27638E+04  1.40612E+04 -3.06661E+04 -2.28807E+03
 -2.55037E+04 -1.91337E+04 -1.11086E+04 -2.46091E+04  4.64124E+03 -2.49982E+04  1.94984E+04 -2.29070E+04
  3.24999E+04 -1.40921E+04  3.73652E+04  4.68603E+03  2.62065E+04  2.47763E+04  4.97867E+03  4.09457E+04
 -2.03708E+04  3.36822E+04 -3.06218E+04  1.18433E+04 -2.23700E+04 -1.00569E+04 -4.79279E+03 -1.34753E+04
  9.19637E+02 -1.21150E+03 -8.94469E+03  8.23411E+03 -1.92721E+04  4.52670E+03 -2.06470E+04 -8.99089E+03
 -1.15885E+04 -2.35718E+04  5.93038E+03 -2.75331E+04  1.92750E+04 -1.98461E+04  2.24049E+04 -1.46684E+03
  1.50211E+04  1.53189E+04 -1.54369E+03  2.35784E+04 -1.70747E+04  1.38200E+04 -2.35102E+04 -5.30827E+03
 -1.73020E+04 -2.06258E+04 -2.84321E+03 -2.78706E+04  1.22705E+04 -2.35295E+04  2.26200E+04 -1.19395E+04
  2.26904E+04 -1.02461E+03  1.56714E+04  5.22344E+03  9.67650E+03  1.51641E+03  1.22912E+04 -1.28097E+03
  2.24153E+04  3.00910E+03  2.57059E+04  1.83483E+04  1.73773E+04  3.78365E+04 -3.31064E+03  4.42764E+04
 -2.56627E+04  3.64957E+04 -4.19752E+04  1.91651E+04 -4.47450E+04 -2.78145E+03 -3.57587E+04 -2.59281E+04
 -1.45894E+04 -3.65098E+04  1.33859E+04 -3.18718E+04  2.70253E+04 -1.56709E+04  2.40426E+04  8.51223E+03
  8.73425E+03  1.89964E+04 -1.14605E+04  1.64994E+04 -2.01938E+04  1.45941E+03 -1.52819E+04 -1.30397E+04
 -5.50230E+02 -2.00668E+04  1.06516E+04 -1.42885E+04  1.34526E+04 -2.14458E+03  3.35374E+03  9.23039E+03
 -8.41828E+03  3.85222E+03 -9.64038E+03 -7.68367E+03 -2.51469E+03 -1.80339E+04  1.18999E+04 -1.90784E+04
  2.30586E+04 -1.10495E+04  2.66641E+04  4.18309E+03  2.31796E+04  1.82478E+04  1.06223E+04  2.87029E+04
 -5.30432E+03  3.11137E+04 -2.07812E+04  1.90638E+04 -2.32033E+04  4.73644E+03 -1.51145E+04 -5.58705E+03
 -6.20846E+03 -7.07488E+03 -3.95926E+02 -8.85923E+01 -3.06838E+03  4.14144E+03 -7.39495E+03  5.41202E+03
 -1.36824E+04 -1.19862E+03 -1.49899E+04 -1.13020E+04 -5.65467E+03 -1.87515E+04  6.64630E+03 -1.66173E+04
  1.34152E+04 -6.26753E+03  9.19422E+03  3.58866E+03 -7.28684E+02  5.50947E+03 -8.39253E+03 -1.73734E+02
 -7.45847E+03 -1.01636E+04 -9.49471E+02 -1.51749E+04  1.04327E+04 -1.67702E+04  2.03314E+04 -8.80629E+03
  2.31670E+04  2.70767E+03  1.63358E+04  1.35077E+04  2.95009E+03  1.96742E+04 -1.02706E+04  1.52806E+04
 -1.24825E+04  4.61792E+03 -6.78065E+03 -3.03266E+03  2.49739E+03 -4.30878E+03  8.50038E+03 -7.14286E+02
  7.21446E+03  6.91948E+03  1.48842E+03  1.24289E+04 -9.10128E+03  1.25340E+04 -1.62954E+04  2.12675E+03
 -1.02934E+04 -8.37551E+03 -3.81577E+01 -1.30665E+04  8.21978E+03 -6.73735E+03  8.86236E+03  2.69368E+03
  1.71452E+03  9.55851E+03 -8.46610E+03  1.25368E+04 -1.34717E+04  4.78108E+03 -1.48594E+04 -5.40426E+03
 -8.54495E+03 -1.58778E+04  4.19319E+03 -1.85406E+04  1.59805E+04 -1.15425E+04  1.71250E+04  3.24936E+03
  9.79669E+03  1.33393E+04 -1.89560E+03  1.61323E+04 -1.23989E+04  1.01121E+04 -1.31038E+04 -2.12019E+03
 -1.04286E+04 -9.91991E+03 -1.68652E+03 -1.22081E+04  6.05026E+03 -9.18380E+03  8.09291E+03 -3.96997E+03
  4.88907E+03  1.21386E+03 -3.82661E+02  1.81362E+03 -1.16847E+03 -3.15743E+03  2.23565E+03 -7.04187E+03
  1.22967E+04 -4.33334E+03  1.60415E+04  1.72378E+03  1.57399E+04  1.07341E+04  1.00584E+04  2.07906E+04
 -5.33462E+03  2.45333E+04 -1.95518E+04  1.69924E+04 -2.58403E+04  3.08995E+03 -2.06852E+04 -8.92730E+03
 -1.05372E+04 -1.67561E+04 -5.92928E+02 -1.40699E+04  4.63333E+03 -8.71336E+03  5.17840E+03 -4.98870E+03
  3.61608E+03 -3.63712E+03  4.07721E+03 -4.10446E+03  5.72315E+03 -4.06759E+03  7.93006E+03 -1.12941E+03
  1.05927E+04  2.11146E+03  6.66918E+03  1.01650E+04 -2.19094E+03  1.14360E+04 -1.19173E+04  8.75121E+03
 -1.48447E+04 -1.43645E+03 -9.95905E+03 -9.61535E+03 -1.41394E+03 -1.61879E+04  8.37287E+03 -1.56198E+04
  1.72504E+04 -8.75737E+03  1.98535E+04  3.12799E+03  1.38789E+04  1.41996E+04  2.02142E+03  1.83370E+04
 -6.72957E+03  1.41790E+04 -1.11368E+04  5.42124E+03 -6.88830E+03 -1.76566E+03 -2.45389E+03 -2.84869E+03
 -2.48149E+03 -2.92355E+02 -1.56512E+03  2.88310E+03 -6.24279E+03  2.91788E+03 -1.03020E+04 -2.66032E+03
 -7.58889E+03 -9.70521E+03 -2.95878E+02 -1.52189E+04  8.75506E+03 -1.44269E+04  1.51234E+04 -4.17992E+03
  1.44237E+04  6.99019E+03  6.25222E+03  1.36492E+04 -2.88833E+03  1.52661E+04 -1.07115E+04  9.97615E+03
 -1.45430E+04 -2.46762E+02 -1.13390E+04 -9.08159E+03 -1.08211E+03 -1.22098E+04  7.04177E+03 -9.35739E+03
  9.76961E+03 -2.94692E+03  6.98716E+03  2.77044E+03  2.32440E+03  5.19093E+03  9.00578E+02  1.94776E+03
  2.74847E+03  1.18149E+03  3.46353E+03  1.22635E+03  4.84999E+03  5.52442E+03  3.78144E+03  7.70922E+03
 -3.57187E+03  1.18438E+04 -1.00113E+04  1.12559E+04 -1.47528E+04  3.71829E+03 -1.52186E+04 -7.30210E+03
 -7.33764E+03 -1.54399E+04  2.08879E+03 -1.68965E+04  9.53263E+03 -1.08281E+04  1.26156E+04 -2.32534E+03
  9.98801E+03  6.79195E+03  1.87403E+03  8.30394E+03 -4.63163E+03  5.69533E+03 -6.14319E+03 -5.45937E+02
 -2.54996E+03 -6.66529E+03  3.35112E+03 -7.13897E+03  6.34600E+03 -3.63828E+03  5.89489E+03  1.18420E+03
  2.89453E+03  3.22666E+03  1.47578E+03  2.74329E+03 -6.89121E+02  1.84941E+03  1.35418E+03 -7.20552E+02
  2.25609E+03 -4.51754E+02  6.38920E+03  2.25617E+03  2.96068E+03  8.19328E+03 -1.44993E+03  1.00446E+04
 -6.93837E+03  6.49249E+03 -9.74460E+03  1.85074E+03 -8.00481E+03 -3.37671E+03 -4.00433E+03 -6.32263E+03
  1.41781E+03 -6.43535E+03  3.87847E+03 -2.99700E+03  3.22665E+03  2.51041E+03 -1.87169E+03  5.31152E+03
 -6.15549E+03  3.32723E+03 -7.82523E+03 -3.53042E+03 -3.91298E+03 -8.18191E+03  9.75331E+02 -8.83856E+03
  4.86539E+03 -4.74838E+03  5.79359E+03 -2.43138E+02  4.65534E+03  1.78441E+03  1.09987E+03  5.38872E+03
 -2.74302E+03  1.26364E+03 -3.68754E+03 -2.10395E+03  1.89286E+03 -6.75827E+03  7.91398E+03 -5.22241E+03
  9.58261E+03 -3.55700E+02  9.65374E+03  5.71118E+03  1.91880E+03  9.24689E+03 -3.48822E+03  9.40395E+03
 -8.47290E+03  3.86626E+03 -8.40607E+03 -1.15551E+03 -5.05725E+03 -6.77755E+03  1.44500E+03 -6.41617E+03
  5.74354E+03 -2.29034E+03  5.47185E+03  2.35763E+03  1.75403E+03  5.53924E+03 -4.49518E+02  4.09646E+03
 -3.73105E+03  3.25936E+03 -2.38588E+03  1.70449E+03 -1.01197E+03  1.27762E+03 -1.68375E+03  1.78363E+03
 -2.51468E+03  4.42877E+03 -7.23772E+03  3.15570E+03 -1.02294E+04 -2.82103E+02 -1.06463E+04 -6.48551E+03
 -6.03123E+03 -1.39598E+04  3.00550E+03 -1.57860E+04  1.03992E+04 -1.22499E+04  1.46058E+04 -4.84027E+03
  1.37199E+04  2.96486E+03  8.27653E+03  8.90648E+03  3.01597E+02  1.11057E+04 -3.63847E+03  8.55820E+03
 -5.45484E+03  2.97161E+03 -3.79623E+03 -9.17070E+02 -4.40834E+02 -9.18332E+02 -6.32186E+02 -1.10784E+02
 -2.27608E+03  4.55279E+02 -1.66290E+03 -9.66944E+02 -1.66431E+03 -2.61257E+03  6.61431E+00 -4.07066E+03
  5.04240E+03 -3.20751E+03  6.21609E+03 -3.49331E+02  7.45405E+03  5.64645E+03  1.72319E+03  1.05903E+04
 -4.83282E+03  1.25241E+04 -1.16365E+04  6.99758E+03 -1.20110E+04 -9.00655E+02 -9.66066E+03 -7.34208E+03
 -3.71823E+03 -1.06227E+04  2.95354E+03 -9.96293E+03  7.95603E+03 -4.69658E+03  6.91514E+03  1.96844E+02
  4.09548E+03  3.59770E+03  2.20742E+02  3.53092E+03 -2.09278E+03 -3.16468E+02  1.62427E+02 -2.05871E+03
  2.97729E+03 -1.63139E+03  4.12106E+03  1.76250E+03  2.51039E+03  4.19038E+03  6.17150E+02  5.70801E+03
 -3.82728E+03  5.12013E+03 -6.47145E+03  5.62581E+02 -5.90278E+03 -4.55942E+03 -1.68439E+03 -8.84307E+03
  4.52155E+03 -7.23989E+03  8.09471E+03 -1.83434E+03  7.71889E+03  1.81219E+03  4.29489E+03  6.79570E+03
  3.59076E+02  6.75946E+03 -2.63222E+03  5.71184E+03 -4.33282E+03  3.04168E+03 -3.39756E+03  1.95131E+01
 -1.73069E+03 -4.53643E+02 -2.34165E+03  1.43769E+03 -4.43279E+03  8.98693E+02 -5.00707E+03 -1.24641E+03
 -5.21581E+03 -4.64388E+03 -1.97746E+03 -7.37380E+03  3.49431E+03 -7.16591E+03  5.38878E+03 -3.60220E+03
  5.49737E+03  4.28056E+02  3.90655E+03  6.00249E+03 -3.05054E+02  6.85576E+03 -5.31931E+03  4.09377E+03
