 $NMID ID='MM_0lb_SNR400_7hz_g50_38.RAW', FMTDAT='(8E13.5)'
 TRAMP=1., VOLUME=1. $END
  3.10183E+05  1.29700E+03  3.38729E+05  2.51073E+05  8.57357E+04  3.38658E+05 -1.33133E+05  2.51999E+05
 -1.91140E+05  8.37791E+04 -1.12590E+05 -3.23350E+04  1.91057E+02 -5.02320E+04  5.42255E+04  1.17639E+02
  3.52879E+04  5.23872E+04 -1.67709E+04  7.62068E+04 -6.22897E+04  6.49018E+04 -8.58622E+04  3.23304E+04
 -8.37184E+04 -1.16117E+04 -5.80063E+04 -5.24510E+04 -1.45593E+04 -7.15023E+04  2.82273E+04 -4.71513E+04
  4.08113E+04  4.36518E+03  1.77806E+04  4.93454E+04 -3.52210E+04  4.82027E+04 -6.85860E+04  7.09786E+02
 -5.46353E+04 -5.79810E+04 -6.51567E+03 -7.96725E+04  3.41472E+04 -5.72909E+04  5.02758E+04 -1.81368E+04
  4.54617E+04  1.14296E+04  3.31921E+04  2.64155E+04  1.67405E+04  2.99131E+04 -5.85806E+03  2.80469E+04
 -2.28174E+04  1.15458E+04 -1.67215E+04 -6.39723E+03  9.33776E+03 -6.50410E+03  2.39752E+04  1.48642E+04
  6.82788E+03  3.77014E+04 -3.50579E+04  3.74234E+04 -6.59308E+04  2.42871E+03 -5.97675E+04 -4.52317E+04
 -1.24591E+04 -6.65691E+04  4.30241E+04 -4.83897E+04  6.23644E+04 -3.18352E+03  3.76109E+04  3.54647E+04
 -5.94602E+03  4.08178E+04 -3.25886E+04  2.06791E+04 -3.50420E+04 -3.67509E+03 -2.05360E+04 -1.21930E+04
 -8.72726E+03 -1.52465E+04  7.21366E+02 -2.01103E+04  8.73939E+03 -2.34001E+04  1.63878E+04 -1.18650E+04
  9.66032E+03  6.47333E+03 -1.23373E+04  1.27942E+04 -2.44286E+04 -6.79694E+03 -9.13664E+03 -3.87952E+04
  2.59437E+04 -4.85641E+04  5.35464E+04 -2.12109E+04  5.03479E+04  2.12074E+04  1.73818E+04  4.92967E+04
 -1.61998E+04  3.78391E+04 -2.78345E+04  3.40074E+03 -1.16797E+04 -3.08213E+04  2.25471E+04 -3.80473E+04
  4.63921E+04 -1.16901E+04  4.12958E+04  2.61205E+04  2.23721E+04  5.22191E+04 -8.39500E+03  5.83730E+04
 -3.69739E+04  3.98676E+04 -5.00325E+04  1.16662E+04 -4.95758E+04 -1.91999E+04 -2.73658E+04 -4.27980E+04
  9.19490E+03 -4.37408E+04  3.45817E+04 -1.75711E+04  3.32280E+04  1.08884E+04  5.34276E+03  2.15747E+04
 -1.34061E+04  1.14132E+04 -1.14925E+04 -6.65642E+03  5.55153E+03 -1.16199E+04  2.00556E+04  5.36349E+03
  1.44561E+04  2.44534E+04 -5.26388E+03  2.79686E+04 -2.31126E+04  1.48625E+04 -3.28761E+04 -1.97219E+03
 -2.69794E+04 -1.86337E+04 -1.25484E+04 -2.72304E+04  3.99821E+03 -2.79130E+04  2.10788E+04 -2.46872E+04
  3.42825E+04 -1.45795E+04  3.97593E+04  5.69213E+03  2.77619E+04  2.61596E+04  5.93189E+03  4.37170E+04
 -2.12325E+04  3.49804E+04 -3.26339E+04  1.16853E+04 -2.24569E+04 -9.90816E+03 -4.92127E+03 -1.28827E+04
  5.13511E+02 -7.32079E+02 -8.91982E+03  9.26265E+03 -2.17164E+04  4.27282E+03 -2.28567E+04 -1.03171E+04
 -1.25183E+04 -2.49834E+04  6.56179E+03 -3.02562E+04  1.94964E+04 -2.13057E+04  2.45370E+04 -1.50845E+03
  1.60389E+04  1.71840E+04 -9.11039E+02  2.56739E+04 -1.76837E+04  1.48806E+04 -2.56899E+04 -4.81973E+03
 -1.77470E+04 -2.26635E+04 -3.11732E+03 -3.09385E+04  1.34689E+04 -2.61893E+04  2.49600E+04 -1.31055E+04
  2.35575E+04 -6.29885E+02  1.75710E+04  6.32807E+03  1.02432E+04  1.49145E+03  1.38039E+04 -1.75553E+03
  2.43493E+04  2.10927E+03  2.82146E+04  1.95202E+04  2.00216E+04  4.02558E+04 -3.01951E+03  4.95567E+04
 -2.74091E+04  4.10456E+04 -4.55335E+04  2.17873E+04 -4.98905E+04 -3.41802E+03 -3.96306E+04 -2.86834E+04
 -1.50616E+04 -4.18259E+04  1.52222E+04 -3.66619E+04  3.14202E+04 -1.68132E+04  2.67443E+04  9.22592E+03
  8.25853E+03  1.99395E+04 -1.18476E+04  1.69445E+04 -2.21398E+04  2.22588E+03 -1.72684E+04 -1.43260E+04
 -9.07734E+02 -2.16890E+04  1.20947E+04 -1.59097E+04  1.44058E+04 -1.99984E+03  4.09857E+03  9.18347E+03
 -9.88937E+03  5.16731E+03 -1.06344E+04 -8.02246E+03 -2.53301E+03 -2.04279E+04  1.23746E+04 -2.25109E+04
  2.51213E+04 -1.33262E+04  3.02470E+04  3.01124E+03  2.61803E+04  2.21178E+04  1.13412E+04  3.43154E+04
 -5.79496E+03  3.42509E+04 -2.29782E+04  2.09520E+04 -2.52653E+04  4.93630E+03 -1.68362E+04 -6.27047E+03
 -6.79126E+03 -8.02573E+03 -5.98255E+02 -8.62509E+01 -3.86560E+03  3.07359E+03 -7.90446E+03  6.67815E+03
 -1.58492E+04 -3.69016E+02 -1.63430E+04 -1.28233E+04 -7.33204E+03 -2.15670E+04  8.15541E+03 -1.67108E+04
  1.42372E+04 -7.65595E+03  1.00807E+04  4.57748E+03 -8.16844E+02  7.53529E+03 -9.95211E+03  4.19334E+02
 -9.27306E+03 -1.17880E+04 -1.27107E+03 -1.79570E+04  1.13871E+04 -1.97140E+04  2.30516E+04 -1.03791E+04
  2.72325E+04  3.99555E+03  1.97625E+04  1.66434E+04  3.92811E+03  2.23937E+04 -9.93388E+03  1.70438E+04
 -1.44872E+04  4.72547E+03 -8.30817E+03 -4.53246E+03  2.52058E+03 -5.11837E+03  9.13018E+03 -9.22113E+02
  8.34974E+03  8.71170E+03  6.78738E+02  1.48674E+04 -9.74803E+03  1.33671E+04 -1.83707E+04  2.02264E+03
 -1.29546E+04 -9.88719E+03  1.22140E+02 -1.47818E+04  9.75144E+03 -7.67171E+03  1.13776E+04  3.55385E+03
  2.54419E+03  1.16673E+04 -9.09698E+03  1.29155E+04 -1.67866E+04  5.64393E+03 -1.66747E+04 -6.92561E+03
 -1.04229E+04 -2.00984E+04  4.77346E+03 -2.15789E+04  1.82116E+04 -1.22175E+04  1.98351E+04  3.59707E+03
  1.19908E+04  1.44799E+04 -2.06943E+03  1.86950E+04 -1.46244E+04  1.05430E+04 -1.51312E+04 -1.36135E+03
 -1.23199E+04 -1.16683E+04 -2.08135E+03 -1.44123E+04  7.54359E+03 -1.21809E+04  1.01969E+04 -3.72718E+03
  5.47024E+03  1.93778E+03 -1.75680E+03  2.55261E+03 -2.12620E+03 -4.31199E+03  3.16071E+03 -9.58327E+03
  1.35306E+04 -6.98468E+03  1.97402E+04  2.57008E+03  1.90395E+04  1.36493E+04  1.17745E+04  2.50631E+04
 -6.12939E+03  2.97367E+04 -2.49545E+04  2.13472E+04 -3.19501E+04  4.49662E+03 -2.48061E+04 -1.14611E+04
 -1.35276E+04 -2.04836E+04  1.49437E+02 -1.81273E+04  5.28525E+03 -1.03508E+04  5.67989E+03 -5.61941E+03
  3.56991E+03 -2.66045E+03  4.89973E+03 -3.89752E+03  6.27958E+03 -4.02173E+03  9.22978E+03 -1.67298E+03
  1.24435E+04  2.83922E+03  7.31099E+03  1.09525E+04 -1.17185E+03  1.46997E+04 -1.37599E+04  1.09463E+04
 -1.72236E+04 -1.75779E+03 -1.22123E+04 -1.25994E+04 -2.11153E+03 -1.91993E+04  1.10898E+04 -1.87818E+04
  2.01708E+04 -1.06464E+04  2.39071E+04  2.26846E+03  1.69283E+04  1.75942E+04  3.50011E+03  2.22634E+04
 -9.86260E+03  1.66506E+04 -1.25471E+04  6.60018E+03 -9.06571E+03 -1.74057E+03 -3.56427E+03 -2.81775E+03
 -2.52341E+03  2.46830E+02 -2.32822E+03  3.18471E+03 -7.67022E+03  3.34292E+03 -1.31462E+04 -2.45336E+03
 -9.91957E+03 -1.20230E+04  2.55554E+01 -1.87480E+04  9.63953E+03 -1.72920E+04  1.81616E+04 -4.30402E+03
  1.86760E+04  8.09048E+03  7.66524E+03  1.73632E+04 -4.38146E+03  1.85027E+04 -1.40481E+04  1.16486E+04
 -1.80402E+04  8.85822E+01 -1.29221E+04 -1.14876E+04 -1.34353E+03 -1.45029E+04  8.11823E+03 -1.10587E+04
  1.17392E+04 -3.46147E+03  8.41359E+03  3.09289E+03  2.91702E+03  6.17285E+03  1.36654E+03  2.75416E+03
  2.68843E+03  1.60139E+03  3.90494E+03  2.21118E+03  5.73627E+03  7.22387E+03  4.85155E+03  9.35105E+03
 -3.62380E+03  1.57069E+04 -1.31617E+04  1.43053E+04 -1.96107E+04  2.72955E+03 -2.02955E+04 -8.57836E+03
 -1.07108E+04 -1.99321E+04  2.55443E+03 -2.13870E+04  1.27869E+04 -1.41144E+04  1.63636E+04 -3.12286E+03
  1.27967E+04  6.70003E+03  2.89375E+03  1.14271E+04 -6.46657E+03  8.05470E+03 -8.63388E+03 -1.33789E+03
 -3.54701E+03 -9.38786E+03  4.59386E+03 -8.84098E+03  8.79618E+03 -3.98147E+03  7.32039E+03  2.08987E+03
  4.51110E+03  3.67465E+03  1.60822E+03  4.16427E+03 -9.13044E+02  3.44626E+03  2.63307E+03 -1.43228E+02
  2.63721E+03 -1.16474E+03  8.35260E+03  2.67843E+03  5.34222E+03  9.89591E+03 -7.77319E+02  1.33764E+04
 -9.59424E+03  1.07275E+04 -1.28830E+04  2.10252E+03 -1.14121E+04 -5.01903E+03 -4.55249E+03 -7.95967E+03
  1.25678E+03 -7.30548E+03  4.96123E+03 -3.54033E+03  4.12954E+03  3.67524E+03 -1.67252E+03  6.61292E+03
 -8.52392E+03  3.14119E+03 -1.04908E+04 -4.85207E+03 -5.80137E+03 -1.08350E+04  2.60658E+03 -1.11703E+04
  6.51454E+03 -7.04752E+03  8.28493E+03 -5.73022E+02  7.85598E+03  3.32069E+03  1.19141E+03  5.89892E+03
 -3.60895E+03  2.40424E+03 -4.94238E+03 -4.26708E+03  1.63879E+03 -9.06847E+03  9.47289E+03 -6.74245E+03
  1.36330E+04  9.47195E+02  1.19290E+04  8.41905E+03  3.97541E+03  1.39075E+04 -4.76425E+03  1.22844E+04
 -1.11654E+04  6.12293E+03 -1.14394E+04 -1.39653E+03 -5.26429E+03 -8.34969E+03  2.68519E+03 -8.78923E+03
  9.04204E+03 -4.85143E+03  7.54985E+03  2.86677E+03  3.24512E+03  7.56137E+03 -1.90431E+03  6.28008E+03
 -3.63186E+03  4.35620E+03 -3.11177E+03  9.14903E+02 -1.54103E+03  1.86848E+03 -2.01330E+03  2.14606E+03
 -3.63550E+03  4.74730E+03 -9.27152E+03  4.41540E+03 -1.30103E+04  1.56145E+02 -1.58149E+04 -9.38915E+03
 -9.52086E+03 -1.92506E+04  3.11378E+03 -2.10553E+04  1.35382E+04 -1.60599E+04  2.08148E+04 -5.64298E+03
  1.84605E+04  4.53934E+03  1.20848E+04  1.29441E+04  1.63623E+03  1.49327E+04 -6.13536E+03  1.07788E+04
 -8.20190E+03  2.77959E+03 -5.73262E+03 -1.49945E+03 -1.35773E+03 -1.14594E+03  1.93373E+01  4.01897E+00
 -1.22692E+03  7.33362E+02 -2.98322E+03 -5.74783E+02 -1.19962E+03 -3.20629E+03  2.80775E+02 -4.77862E+03
  6.65432E+03 -4.44325E+03  9.42115E+03  1.11468E+02  9.89047E+03  8.17391E+03  3.11346E+03  1.45405E+04
 -7.99876E+03  1.64620E+04 -1.55558E+04  9.56636E+03 -1.86212E+04 -1.13481E+03 -1.45281E+04 -1.10394E+04
 -5.98772E+03 -1.46784E+04  4.71373E+03 -1.44927E+04  1.04913E+04 -7.61432E+03  9.74545E+03  4.69237E+02
  4.91653E+03  5.06114E+03 -1.18252E+03  4.68930E+03 -3.77505E+03 -1.02262E+03  3.42176E+02 -3.01375E+03
  4.89743E+03 -3.14603E+03  6.45824E+03  1.60410E+03  4.12420E+03  5.53404E+03 -1.87139E+02  7.21136E+03
 -6.61552E+03  6.51988E+03 -1.01528E+04  6.08114E+02 -8.77531E+03 -7.26065E+03 -1.50592E+03 -1.31447E+04
  7.53962E+03 -1.13056E+04  1.19324E+04 -3.21259E+03  1.19700E+04  3.27426E+03  7.50400E+03  9.98530E+03
  8.59678E+02  1.02359E+04 -4.14909E+03  8.46318E+03 -6.20794E+03  4.41163E+03 -5.47347E+03  3.49350E+02
 -3.02329E+03 -9.50223E+02 -3.45775E+03  9.18686E+02 -5.88032E+03  5.91005E+02 -7.73314E+03 -9.41242E+02
 -6.94894E+03 -4.98080E+03 -2.67778E+03 -1.08818E+04  5.02474E+03 -1.06375E+04  1.01648E+04 -5.94680E+03
  1.06971E+04  1.27297E+03  6.31343E+03  7.70575E+03 -1.90222E+02  1.05023E+04 -8.31879E+03  7.15110E+03
