 $NMID ID='MM_0lb_SNR400_15hz_g55_29.RAW', FMTDAT='(8E13.5)'
 TRAMP=1., VOLUME=1. $END
  3.09759E+05  4.34671E+02  3.37981E+05  2.50441E+05  8.47331E+04  3.38485E+05 -1.32304E+05  2.51619E+05
 -1.90148E+05  8.33607E+04 -1.11534E+05 -3.27339E+04  7.96601E+02 -5.08130E+04  5.41174E+04 -8.45687E+01
  3.53172E+04  5.27305E+04 -1.68325E+04  7.59975E+04 -6.04594E+04  6.37278E+04 -8.46999E+04  3.23491E+04
 -8.09924E+04 -1.13281E+04 -5.73263E+04 -5.13871E+04 -1.56352E+04 -6.97352E+04  2.73792E+04 -4.59548E+04
  3.95717E+04  3.64318E+03  1.54077E+04  4.80421E+04 -3.41737E+04  4.74186E+04 -6.67225E+04 -4.73521E+02
 -5.32490E+04 -5.70526E+04 -6.56733E+03 -7.66071E+04  3.42881E+04 -5.57676E+04  4.76888E+04 -1.75308E+04
  4.30797E+04  1.11218E+04  3.22778E+04  2.53289E+04  1.56025E+04  2.90728E+04 -5.09148E+03  2.73904E+04
 -2.21695E+04  1.25826E+04 -1.89618E+04 -4.95925E+03  5.58014E+03 -7.59211E+03  2.25173E+04  1.18950E+04
  7.46437E+03  3.55814E+04 -3.20025E+04  3.52099E+04 -6.34899E+04  1.82573E+03 -5.68323E+04 -4.23951E+04
 -1.24768E+04 -6.31478E+04  3.98656E+04 -4.60683E+04  5.85383E+04 -2.34911E+03  3.43011E+04  3.27467E+04
 -6.06594E+03  3.55457E+04 -3.01284E+04  1.61260E+04 -3.06396E+04 -4.30271E+03 -1.64143E+04 -1.11645E+04
 -8.44582E+03 -1.30891E+04 -3.58147E+02 -1.78926E+04  7.64072E+03 -2.27818E+04  1.53104E+04 -1.31344E+04
  1.15527E+04  5.15722E+03 -8.09424E+03  1.27727E+04 -2.13394E+04 -4.40144E+03 -7.92980E+03 -3.32926E+04
  2.27674E+04 -4.34291E+04  4.82667E+04 -1.92414E+04  4.50737E+04  1.97862E+04  1.51444E+04  4.45558E+04
 -1.63253E+04  3.31117E+04 -2.52695E+04  1.97837E+03 -9.74431E+03 -2.83036E+04  2.14971E+04 -3.41053E+04
  4.01737E+04 -8.68598E+03  3.52829E+04  2.30497E+04  1.78775E+04  4.71120E+04 -8.50098E+03  4.99303E+04
 -3.17860E+04  3.35866E+04 -4.22214E+04  9.95476E+03 -4.29649E+04 -1.70118E+04 -2.35040E+04 -3.75502E+04
  6.94928E+03 -3.77766E+04  3.09680E+04 -1.46334E+04  2.94818E+04  1.12237E+04  3.31514E+03  1.95045E+04
 -1.36043E+04  8.34624E+03 -1.04596E+04 -7.88773E+03  5.79606E+03 -1.07705E+04  1.73103E+04  6.14319E+03
  1.31640E+04  2.26373E+04 -5.97941E+03  2.47278E+04 -2.21933E+04  1.11091E+04 -2.78267E+04 -4.82425E+03
 -2.06614E+04 -1.74076E+04 -7.73594E+03 -1.98955E+04  4.01977E+03 -1.94559E+04  1.54378E+04 -1.76909E+04
  2.62528E+04 -1.25870E+04  3.28337E+04  3.22610E+03  2.32879E+04  1.93446E+04  3.55337E+03  3.63918E+04
 -1.71556E+04  3.00251E+04 -2.79645E+04  1.04296E+04 -2.12133E+04 -1.08429E+04 -4.14531E+03 -1.35495E+04
  1.18861E+03 -2.34737E+03 -5.23438E+03  6.94982E+03 -1.60207E+04  5.10272E+03 -1.56923E+04 -6.94523E+03
 -9.65832E+03 -1.89495E+04  5.70358E+03 -2.28040E+04  1.50991E+04 -1.66380E+04  1.83766E+04 -1.72485E+03
  1.15457E+04  1.30480E+04 -1.38906E+03  1.84452E+04 -1.33124E+04  1.08130E+04 -1.90497E+04 -3.70393E+03
 -1.41477E+04 -1.69674E+04 -1.39959E+03 -2.24271E+04  1.01004E+04 -1.85561E+04  1.89425E+04 -9.16532E+03
  1.77094E+04  2.70240E+01  1.22437E+04  4.39233E+03  7.26784E+03  9.53005E+02  9.76735E+03 -1.51829E+03
  1.75871E+04  3.01381E+03  1.91668E+04  1.45080E+04  1.18320E+04  3.02093E+04 -3.23557E+03  3.37686E+04
 -1.96612E+04  2.71581E+04 -3.13129E+04  1.36671E+04 -3.29945E+04 -1.85369E+03 -2.71789E+04 -1.91979E+04
 -1.19452E+04 -2.71015E+04  8.58996E+03 -2.53399E+04  2.12201E+04 -1.28610E+04  1.88310E+04  5.02357E+03
  6.80381E+03  1.44415E+04 -8.21409E+03  1.21414E+04 -1.67437E+04  2.55021E+03 -1.27626E+04 -1.00898E+04
 -2.59344E+02 -1.47879E+04  7.80636E+03 -1.16350E+04  1.03345E+04 -1.72501E+03  1.91262E+03  6.55683E+03
 -7.16522E+03  3.19656E+03 -5.57059E+03 -5.73474E+03 -1.26258E+02 -1.34656E+04  9.41574E+03 -1.39746E+04
  1.64567E+04 -6.38166E+03  1.81578E+04  3.10765E+03  1.52730E+04  1.27044E+04  6.95566E+03  1.98595E+04
 -3.21591E+03  2.16678E+04 -1.41350E+04  1.33805E+04 -1.57753E+04  3.62930E+03 -1.08746E+04 -3.32134E+03
 -4.94944E+03 -5.28562E+03 -8.20895E+02  1.44394E+03 -3.44943E+03  2.13374E+03 -5.27339E+03  3.93874E+03
 -1.07905E+04 -4.69495E+02 -1.12726E+04 -9.37426E+03 -4.08729E+03 -1.44278E+04  4.40182E+03 -1.17343E+04
  9.69621E+03 -4.91315E+03  6.54313E+03  2.68343E+03  1.78090E+02  3.80323E+03 -5.21162E+03 -1.67820E+02
 -4.49000E+03 -6.57562E+03  9.58036E+01 -1.08418E+04  6.02379E+03 -1.12625E+04  1.33394E+04 -5.66119E+03
  1.60043E+04  7.95948E+02  1.13676E+04  9.18827E+03  1.78732E+03  1.22474E+04 -7.37946E+03  1.09247E+04
 -8.80840E+03  3.51718E+03 -4.48251E+03 -2.93705E+03  1.17815E+03 -3.13753E+03  6.49186E+03 -1.19601E+03
  5.24458E+03  5.15101E+03  1.31845E+03  8.10762E+03 -6.02701E+03  8.70084E+03 -1.04805E+04  2.16464E+03
 -7.32975E+03 -5.46106E+03  4.88918E+02 -9.31973E+03  6.06646E+03 -4.65685E+03  5.52411E+03  1.46897E+03
  1.31503E+03  5.73478E+03 -5.35414E+03  7.14398E+03 -8.03928E+03  3.79547E+03 -7.80748E+03 -2.79491E+03
 -4.63998E+03 -9.04840E+03  2.63005E+03 -1.04538E+04  1.01300E+04 -6.57903E+03  1.00457E+04  2.27446E+03
  6.47114E+03  8.03254E+03 -6.85510E+02  9.80460E+03 -7.64165E+03  6.11166E+03 -7.49010E+03 -4.68835E+02
 -7.67630E+03 -7.31266E+03 -1.40706E+03 -7.30390E+03  3.49960E+03 -6.40480E+03  4.64101E+03 -3.32393E+03
  3.79765E+03  1.04552E+03 -7.29647E+02  1.17600E+03  4.20004E+02 -1.35983E+03  6.66571E+02 -4.24398E+03
  6.78548E+03 -1.95908E+03  8.80294E+03  8.93790E+02  8.77860E+03  5.65451E+03  6.20625E+03  1.22712E+04
 -2.53679E+03  1.28269E+04 -1.17343E+04  1.01168E+04 -1.51082E+04  2.21242E+03 -1.26410E+04 -4.86242E+03
 -6.30258E+03 -1.00573E+04 -7.94129E+02 -8.79774E+03  3.27446E+03 -3.63276E+03  2.55521E+03 -3.71658E+03
  2.59669E+03 -1.20404E+03  2.62013E+03 -2.93006E+03  4.42796E+03 -2.10929E+03  4.59868E+03 -5.42755E+02
  6.51470E+03  1.55491E+03  2.94450E+03  5.64715E+03 -1.99997E+03  5.42310E+03 -6.49391E+03  4.15502E+03
 -7.70219E+03 -1.12068E+03 -3.98224E+03 -5.24432E+03  7.39988E+01 -7.93382E+03  4.55266E+03 -8.30575E+03
  8.14675E+03 -4.74945E+03  1.08064E+04  1.39351E+03  7.38972E+03  7.14144E+03  1.45566E+03  9.76980E+03
 -3.73895E+03  8.25681E+03 -5.32010E+03  2.85747E+03 -3.96833E+03 -7.49250E+02 -1.34626E+03 -1.41157E+03
 -3.47085E+02  2.83430E+02 -1.50099E+03  2.17235E+03 -2.89576E+03  1.99608E+03 -6.07277E+03 -5.75179E+02
 -3.14108E+03 -5.61935E+03  6.69531E+02 -7.28603E+03  4.72020E+03 -7.34751E+03  7.08365E+03 -1.49326E+03
  7.26831E+03  3.84016E+03  3.21839E+03  5.89093E+03 -1.31624E+03  7.70700E+03 -5.39641E+03  4.80093E+03
 -6.29912E+03  8.46584E+02 -5.67571E+03 -4.50802E+03 -6.06344E+02 -5.97040E+03  2.41750E+03 -4.51848E+03
  4.27636E+03 -1.61567E+03  3.00808E+03  1.33084E+03  1.63881E+03  2.66767E+03  7.87196E+02  6.52115E+02
  1.91102E+03  9.55881E+02  1.62717E+03  1.24365E+03  2.16238E+03  3.27523E+03  2.53894E+03  3.78872E+03
 -1.49014E+03  5.06739E+03 -4.80980E+03  6.28184E+03 -6.18618E+03  1.84034E+03 -7.23808E+03 -1.79964E+03
 -3.49853E+03 -6.70163E+03  1.48833E+03 -7.49968E+03  4.52800E+03 -4.34113E+03  6.33787E+03 -1.43705E+03
  4.26286E+03  2.72819E+03  4.32440E+02  3.85210E+03 -1.19585E+03  2.44206E+03 -2.47122E+03 -5.29336E+02
 -1.20818E+03 -2.81016E+03  1.73840E+03 -2.90996E+03  3.22472E+03 -1.44803E+03  2.42773E+03  5.99961E+02
  1.61298E+03  1.38032E+03  8.34653E+02  5.95150E+02 -1.55743E+02  1.08856E+03  1.01455E+03 -6.35212E+02
  7.25364E+02 -3.15351E+02  3.01822E+03  9.90451E+02  1.30830E+03  3.89680E+03 -6.70152E+02  4.66065E+03
 -2.98270E+03  2.75770E+03 -3.41782E+03 -2.61563E+00 -4.13084E+03 -1.81987E+03 -1.14894E+03 -1.40325E+03
  1.02221E+03 -2.59076E+03  1.53573E+03 -1.31518E+03  7.19578E+02  9.68069E+02 -9.53771E+02  1.17860E+03
 -2.44396E+03  1.46358E+03 -2.45020E+03 -2.31483E+03 -1.50365E+03 -3.27692E+03  4.45028E+02 -2.75107E+03
  1.45052E+03 -1.96414E+03  2.06603E+03 -5.03628E+01  2.42181E+03  7.30444E+02  8.61895E+02  1.81902E+03
 -1.24626E+03  8.14697E+02 -1.96282E+03 -3.30023E+02  5.97967E+02 -2.47370E+03  3.11312E+03 -2.51449E+03
  3.25067E+03  4.21838E+02  4.78310E+03  1.76474E+03  8.64031E+02  3.24030E+03 -1.13117E+03  3.49204E+03
 -3.36993E+03  7.97297E+02 -3.24587E+03 -6.58107E+02 -1.89281E+03 -3.13353E+03  5.59092E+02 -1.15095E+03
  2.46255E+03 -9.10646E+02  2.26968E+03  8.78261E+02  1.82354E+02  2.33513E+03 -8.02872E+02  1.67649E+03
 -7.99873E+02  1.12416E+03 -6.48004E+02  5.05899E+02  1.34501E+02 -1.51966E+02 -9.60617E+02  6.96735E+02
 -6.92526E+02  1.31404E+03 -2.49937E+03  1.79478E+03 -3.40582E+03  1.13369E+02 -4.06958E+03 -1.92976E+03
 -1.95698E+03 -4.46844E+03  1.24743E+03 -5.50802E+03  2.85673E+03 -4.53101E+03  5.20610E+03 -1.76832E+03
  4.51731E+03  8.34956E+02  2.41916E+03  3.08690E+03 -4.39025E+02  3.56466E+03 -1.38218E+03  2.97235E+03
 -2.46457E+03  1.14588E+03 -7.75207E+02  1.68908E+02 -8.31967E+02 -1.97509E+02 -1.03923E+03 -2.36827E+02
 -1.14030E+03 -8.46167E+01 -2.02952E+03 -4.21758E+02 -3.11766E+01 -8.86518E+02 -4.04752E+02 -1.55394E+03
  2.48051E+03 -5.81873E+02  1.27910E+03  3.92455E+02  2.55651E+03  1.92374E+03 -3.95498E+02  2.93112E+03
 -2.02020E+03  4.33782E+03 -3.08268E+03  1.71887E+03 -3.83620E+03 -9.87918E+02 -2.58201E+03 -2.74961E+03
 -1.36452E+03 -3.22037E+03  1.08878E+03 -3.17472E+03  1.15038E+03 -1.64004E+03  2.08241E+03 -2.54962E+01
  1.08600E+03  9.25219E+02  5.82667E+01  1.26582E+03 -4.59163E+02 -1.83343E+02  4.80854E+02 -7.62438E+02
  1.19553E+03 -3.61838E+02  4.32624E+02  6.87046E+02  1.34937E+03  1.08355E+03  9.87193E+02  1.25661E+03
 -1.29569E+03  9.36530E+02 -1.47424E+03  8.87616E+02 -1.77586E+03 -8.94345E+02  4.43944E+02 -2.96038E+03
  1.29045E+03 -2.17150E+03  1.47437E+03 -7.73922E+02  2.48287E+03 -1.83834E+02  1.25124E+03  1.52925E+03
  1.83942E+02  1.64783E+03 -3.85927E+02  1.47275E+03 -1.64880E+03  9.72033E+02 -9.77014E+02  5.30607E+02
 -9.21543E+02  6.26342E+02 -9.43225E+02 -5.14503E+01 -8.92438E+02  1.57803E+02 -1.47667E+03 -7.21236E+02
 -2.13531E+03 -1.52840E+02 -3.86729E+02 -1.69021E+03  1.31942E+03 -2.39326E+03  1.69866E+03 -8.15918E+02
  1.76734E+03 -6.47251E+01  2.81642E+02  9.77376E+02 -5.05636E+02  1.41849E+03 -1.56185E+03  8.24229E+02
