 $NMID ID='MM_0lb_SNR400_16hz_g55_18.RAW', FMTDAT='(8E13.5)'
 TRAMP=1., VOLUME=1. $END
  3.10480E+05  5.58211E+02  3.37728E+05  2.50743E+05  8.45300E+04  3.37912E+05 -1.32462E+05  2.50708E+05
 -1.89768E+05  8.31951E+04 -1.11604E+05 -3.27816E+04  3.51968E+02 -5.03429E+04  5.40029E+04 -5.63135E+02
  3.48592E+04  5.33039E+04 -1.64986E+04  7.56800E+04 -6.09242E+04  6.36919E+04 -8.38546E+04  3.19110E+04
 -8.11084E+04 -1.12818E+04 -5.70240E+04 -5.16031E+04 -1.51325E+04 -6.97318E+04  2.76379E+04 -4.56554E+04
  3.98083E+04  4.30661E+03  1.59404E+04  4.73663E+04 -3.43682E+04  4.72577E+04 -6.67218E+04 -4.36345E+02
 -5.26882E+04 -5.66585E+04 -6.93284E+03 -7.63378E+04  3.36411E+04 -5.45719E+04  4.72521E+04 -1.70339E+04
  4.28117E+04  1.19187E+04  3.18816E+04  2.55056E+04  1.55466E+04  2.95682E+04 -4.84171E+03  2.74968E+04
 -2.13534E+04  1.24773E+04 -1.92299E+04 -4.87456E+03  5.50150E+03 -7.10867E+03  2.18752E+04  1.21190E+04
  7.12648E+03  3.57612E+04 -3.18300E+04  3.48806E+04 -6.33120E+04  2.26718E+03 -5.72593E+04 -4.20831E+04
 -1.22786E+04 -6.34460E+04  3.89226E+04 -4.51500E+04  5.75658E+04 -2.89409E+03  3.40371E+04  3.25950E+04
 -6.03523E+03  3.47793E+04 -2.97578E+04  1.58403E+04 -2.94751E+04 -5.00243E+03 -1.63651E+04 -1.03058E+04
 -8.04214E+03 -1.28362E+04 -5.87038E+02 -1.76833E+04  6.99831E+03 -2.27356E+04  1.53253E+04 -1.36444E+04
  1.13144E+04  5.76465E+03 -7.37228E+03  1.28972E+04 -2.10025E+04 -3.91886E+03 -7.78457E+03 -3.28181E+04
  2.23397E+04 -4.29940E+04  4.76240E+04 -1.93637E+04  4.42949E+04  1.95634E+04  1.48421E+04  4.32329E+04
 -1.53840E+04  3.29949E+04 -2.52098E+04  1.30167E+03 -9.57043E+03 -2.74935E+04  2.10199E+04 -3.37200E+04
  4.05507E+04 -9.28779E+03  3.48530E+04  2.36634E+04  1.81909E+04  4.54962E+04 -8.04380E+03  4.86760E+04
 -3.08824E+04  3.34970E+04 -4.08018E+04  9.32485E+03 -4.18099E+04 -1.68277E+04 -2.30008E+04 -3.77610E+04
  7.11915E+03 -3.70737E+04  3.12774E+04 -1.45894E+04  2.88819E+04  1.05675E+04  3.66781E+03  1.87964E+04
 -1.36961E+04  8.54921E+03 -1.00644E+04 -7.70742E+03  5.43122E+03 -1.08894E+04  1.80913E+04  6.34676E+03
  1.30499E+04  2.20220E+04 -6.42221E+03  2.43627E+04 -2.19309E+04  1.05463E+04 -2.72655E+04 -4.57678E+03
 -2.01623E+04 -1.73046E+04 -7.60992E+03 -1.96292E+04  4.08008E+03 -1.79726E+04  1.51120E+04 -1.74972E+04
  2.51030E+04 -1.29337E+04  3.16520E+04  2.81867E+03  2.40612E+04  1.89683E+04  3.79636E+03  3.57493E+04
 -1.70724E+04  3.00064E+04 -2.72980E+04  1.02128E+04 -2.05568E+04 -1.07777E+04 -3.92032E+03 -1.34822E+04
  2.27582E+03 -3.23663E+03 -4.37872E+03  6.38824E+03 -1.47767E+04  5.17717E+03 -1.55009E+04 -6.55357E+03
 -9.59186E+03 -1.80626E+04  5.15292E+03 -2.22533E+04  1.44421E+04 -1.56389E+04  1.70296E+04 -1.24200E+03
  1.12357E+04  1.26279E+04 -6.81791E+02  1.81260E+04 -1.19888E+04  9.95383E+03 -1.80160E+04 -4.22191E+03
 -1.29937E+04 -1.64554E+04 -1.83739E+03 -2.19503E+04  9.71267E+03 -1.81363E+04  1.81897E+04 -9.35553E+03
  1.67740E+04  1.34459E+02  1.22595E+04  5.03498E+03  6.36267E+03  8.98478E+02  9.43039E+03 -1.62309E+03
  1.62006E+04  2.82883E+03  1.83545E+04  1.44532E+04  1.11778E+04  2.89526E+04 -2.39170E+03  3.16510E+04
 -1.84997E+04  2.50963E+04 -2.98678E+04  1.29953E+04 -3.15685E+04 -2.28317E+03 -2.54931E+04 -1.73333E+04
 -1.14819E+04 -2.51652E+04  8.32560E+03 -2.29562E+04  1.98563E+04 -1.21010E+04  1.81548E+04  5.26422E+03
  6.56894E+03  1.35132E+04 -8.50599E+03  1.19778E+04 -1.51292E+04  2.94737E+03 -1.13432E+04 -9.42800E+03
  9.19411E+00 -1.46851E+04  7.60629E+03 -1.06975E+04  9.89881E+03 -1.36765E+03  1.43450E+03  6.12773E+03
 -6.81184E+03  1.84498E+03 -5.53104E+03 -4.86583E+03  1.25983E+02 -1.24457E+04  8.71753E+03 -1.26466E+04
  1.54564E+04 -6.41437E+03  1.57934E+04  2.73102E+03  1.37828E+04  1.14255E+04  6.67021E+03  1.84058E+04
 -2.83982E+03  2.06754E+04 -1.25773E+04  1.28861E+04 -1.43238E+04  3.96614E+03 -9.75662E+03 -2.43364E+03
 -4.64400E+03 -4.58835E+03 -9.90843E+02  1.31894E+03 -2.15572E+03  2.31737E+03 -4.92021E+03  4.30792E+03
 -9.96417E+03 -4.06788E+02 -1.02858E+04 -8.79906E+03 -4.35858E+03 -1.38793E+04  4.63237E+03 -1.05958E+04
  8.46163E+03 -4.79419E+03  6.01327E+03  2.75657E+03  6.60698E+02  3.90164E+03 -4.35900E+03 -6.63187E+02
 -4.43046E+03 -6.09187E+03 -3.57833E+02 -9.33960E+03  5.92182E+03 -9.74366E+03  1.31374E+04 -5.27660E+03
  1.50199E+04  1.03853E+03  1.05626E+04  7.92060E+03  1.61099E+03  1.17950E+04 -6.35026E+03  1.06345E+04
 -8.75136E+03  3.46608E+03 -4.44075E+03 -1.85899E+03  1.69751E+03 -2.14937E+03  5.30930E+03 -1.54967E+03
  5.15109E+03  4.05841E+03  9.37706E+02  7.71485E+03 -5.31122E+03  7.77990E+03 -9.77268E+03  1.73264E+03
 -7.26311E+03 -5.12581E+03 -4.18005E+02 -8.55594E+03  5.37287E+03 -4.38012E+03  5.27028E+03  1.63025E+03
  6.53370E+02  4.84941E+03 -4.96827E+03  6.97873E+03 -6.83586E+03  3.13110E+03 -6.78583E+03 -2.24466E+03
 -4.10438E+03 -8.25455E+03  2.02548E+03 -9.26185E+03  8.85976E+03 -6.48065E+03  9.30892E+03  1.19062E+03
  5.46989E+03  7.70993E+03 -6.58840E+02  9.23375E+03 -6.85045E+03  5.82425E+03 -7.07000E+03 -8.32013E+02
 -6.69645E+03 -6.34714E+03 -5.35129E+02 -6.91679E+03  3.88221E+03 -5.90880E+03  4.71201E+03 -3.17169E+03
  3.42700E+03  8.67933E+02 -8.73401E+02  1.41522E+03  3.90864E+02 -4.56428E+02  5.84695E+01 -3.84392E+03
  5.36764E+03 -1.79564E+03  7.51194E+03  8.76390E+02  7.20941E+03  4.83212E+03  6.05895E+03  1.02942E+04
 -2.18187E+03  1.13978E+04 -9.99236E+03  8.69582E+03 -1.36717E+04  1.86031E+03 -1.11669E+04 -4.25610E+03
 -5.61961E+03 -9.76210E+03 -3.27271E+02 -7.10178E+03  2.21782E+03 -3.83238E+03  2.57490E+03 -2.59356E+03
  2.22856E+03 -2.26748E+03  2.46157E+03 -3.01098E+03  4.18754E+03 -1.71197E+03  4.28268E+03  1.18954E+02
  5.57537E+03  1.17244E+03  2.18795E+03  4.94345E+03 -2.01843E+03  4.43097E+03 -4.95285E+03  4.25053E+03
 -6.55427E+03 -5.40259E+02 -3.10599E+03 -4.45624E+03 -6.73193E+02 -7.52329E+03  4.63858E+03 -7.31738E+03
  7.76709E+03 -4.79707E+03  9.45202E+03  1.24446E+03  6.69084E+03  6.12610E+03  1.69813E+03  7.89467E+03
 -4.02485E+03  7.70093E+03 -4.00423E+03  2.86476E+03 -2.73459E+03 -1.32374E+03 -5.87498E+02 -1.34007E+03
 -2.00890E+02  4.11100E+02 -1.12935E+03  2.21451E+03 -3.26289E+03  1.60790E+03 -5.07107E+03 -7.14041E+02
 -3.09711E+03 -5.04776E+03  7.11375E+02 -6.49458E+03  3.61105E+03 -5.72946E+03  5.48690E+03 -1.44224E+03
  6.17149E+03  3.27566E+03  2.59762E+03  5.21923E+03 -1.19037E+03  6.43989E+03 -3.55430E+03  3.63993E+03
 -5.81218E+03  1.41228E+02 -4.55437E+03 -3.77771E+03 -8.26176E+02 -5.00039E+03  2.11575E+03 -3.68847E+03
  3.66424E+03 -2.35250E+03  2.77504E+03  1.15058E+03  6.89557E+02  2.28193E+03  9.22559E+02  4.90187E+02
  1.85399E+03  9.46679E+02  1.24562E+03  3.29419E+02  1.58393E+03  3.07142E+03  1.16977E+03  2.97245E+03
 -1.21358E+03  4.46092E+03 -3.91336E+03  5.35533E+03 -5.19345E+03  1.37931E+03 -6.49060E+03 -1.38336E+03
 -2.54428E+03 -6.14284E+03  8.87846E+02 -6.91422E+03  2.92033E+03 -4.41304E+03  4.86016E+03 -1.37888E+03
  3.40593E+03  2.34712E+03  1.08908E+03  3.20648E+03 -9.13469E+02  2.08914E+03 -2.05216E+03 -1.86177E+01
 -1.04611E+03 -2.32960E+03  1.52056E+03 -1.99631E+03  2.33252E+03 -1.32347E+03  2.49125E+03  4.64786E+02
  7.59124E+02  8.34075E+02  1.17475E+03 -4.93147E+02  2.52828E+02  6.49929E+02  1.44982E+03 -7.44619E+02
  5.58250E+02  8.50703E+01  2.59792E+03  6.71845E+02  4.99147E+02  2.68376E+03 -3.92902E+02  4.45598E+03
 -2.11364E+03  2.48422E+03 -3.46111E+03  5.74463E+02 -3.34835E+03 -1.19791E+03 -6.66753E+02 -1.65185E+03
  6.28777E+02 -1.86942E+03  1.64998E+03 -1.16936E+03  7.43511E+02  1.67500E+03 -5.71069E+02  1.91649E+03
 -2.70507E+03  9.39164E+02 -2.44819E+03 -2.32912E+03 -1.18384E+03 -2.99399E+03  7.98887E+02 -2.31642E+03
  8.37153E+02 -1.10537E+03  1.85448E+03  1.36512E+02  2.33269E+03  3.44967E+02  3.44196E+02  1.95392E+03
 -7.66995E+02 -2.01898E+02 -1.60945E+03 -6.04313E+02  9.19857E+02 -1.18481E+03  3.00417E+03 -1.51029E+03
  2.12803E+03  2.19198E+02  4.30284E+03  1.48274E+03  1.31362E+03  2.82013E+03 -1.30742E+03  3.05054E+03
 -2.53312E+03  8.24107E+02 -2.19969E+03 -4.01813E+02 -1.05435E+03 -2.54828E+03  5.65757E+02 -1.22030E+03
  1.45925E+03 -1.46485E+03  1.84487E+03  5.19448E+02 -1.25683E+01  1.60901E+03  6.17136E+01  1.33680E+03
 -9.27025E+02  1.53092E+03  2.15288E+02  7.98934E+02 -4.90012E+02  1.95401E+02 -9.64661E+02  6.27640E+02
 -1.15129E+03  1.92703E+03 -2.22317E+03  7.24407E+02 -1.96658E+03 -2.69758E+01 -4.12925E+03 -1.78722E+03
 -1.41361E+03 -3.75053E+03  4.04370E+02 -4.06121E+03  1.80349E+03 -4.20534E+03  4.30094E+03 -1.15001E+03
  3.67255E+03  2.96054E+02  1.99335E+03  3.03865E+03 -7.54237E+02  2.61058E+03 -1.43082E+03  1.91404E+03
 -1.70273E+03  1.28322E+03 -3.28451E+02 -6.31378E+02 -4.78001E+02  2.93505E+02 -3.07439E+02 -6.09033E+02
 -1.54726E+03  2.06753E+02 -1.03343E+03 -4.00005E+01  1.13496E+01 -4.93235E+02 -5.39309E+02 -9.24184E+02
  1.57398E+03 -6.15212E+02  1.39613E+03  5.74536E+00  1.61290E+03  1.69598E+03 -3.84340E+02  2.75059E+03
 -1.44063E+03  2.84969E+03 -2.56974E+03  1.98782E+03 -2.45658E+03 -2.37635E+02 -2.35848E+03 -1.64832E+03
 -1.65783E+03 -2.50678E+03  3.01242E+02 -1.46759E+03  1.59801E+03 -1.49957E+03  1.50306E+03  1.64851E+02
  1.41490E+03  1.05048E+03 -2.96328E+02  5.38341E+02 -2.70900E+02  8.84376E+01  2.71803E+02 -5.12469E+02
  8.45198E+02  9.52430E+01  8.88806E+02  7.11639E+01  3.14259E+02  5.65474E+02  1.16199E+02  1.34409E+03
 -8.78476E+02  5.26963E+02 -1.58105E+03  1.59146E+02 -1.51184E+03 -9.04299E+02 -6.06952E+02 -1.67791E+03
  1.29359E+03 -1.14898E+03  1.17470E+03  3.43236E+01  2.43025E+03 -2.03820E+02  8.99292E+02  1.56365E+03
  4.34538E+02  1.45938E+03 -1.36663E+02  1.34140E+03 -9.50796E+02  4.68339E+02 -3.73443E+02 -3.11331E+01
 -1.01029E+03 -3.61274E+02 -5.64757E+02 -3.37969E+01 -1.28119E+03  4.87431E+02 -1.24007E+03 -1.37070E+03
 -1.26844E+03 -3.42701E+02 -3.83058E+02 -1.20116E+03  4.96199E+02 -2.34000E+03  1.37191E+03 -5.89968E+02
  8.70598E+02  2.45434E+02  7.59588E+01  9.30790E+02 -4.06377E+02  1.68698E+03 -1.01960E+03  1.00607E+03
