 $NMID ID='MM_0lb_SNR400_11hz_g60_88.RAW', FMTDAT='(8E13.5)'
 TRAMP=1., VOLUME=1. $END
  3.10057E+05  3.88300E+02  3.38155E+05  2.50242E+05  8.51633E+04  3.39124E+05 -1.32728E+05  2.51649E+05
 -1.91409E+05  8.39658E+04 -1.13035E+05 -3.22933E+04  1.45398E+02 -4.98239E+04  5.27989E+04 -9.19056E+01
  3.58793E+04  5.21059E+04 -1.59727E+04  7.65376E+04 -6.10592E+04  6.44743E+04 -8.52290E+04  3.22594E+04
 -8.21587E+04 -1.22453E+04 -5.82824E+04 -5.14268E+04 -1.53505E+04 -7.13972E+04  2.81868E+04 -4.65993E+04
  4.11539E+04  3.45145E+03  1.60147E+04  4.81358E+04 -3.45546E+04  4.82217E+04 -6.75711E+04  4.27668E+02
 -5.41320E+04 -5.76610E+04 -7.47283E+03 -7.91308E+04  3.46819E+04 -5.59091E+04  4.93958E+04 -1.76105E+04
  4.47335E+04  1.14173E+04  3.26187E+04  2.62749E+04  1.53489E+04  3.08232E+04 -6.01532E+03  2.79141E+04
 -2.28567E+04  1.17893E+04 -1.81735E+04 -5.99661E+03  6.32049E+03 -7.54332E+03  2.32446E+04  1.33567E+04
  7.72329E+03  3.74490E+04 -3.39850E+04  3.75307E+04 -6.53061E+04  1.80798E+03 -5.87231E+04 -4.41084E+04
 -1.23707E+04 -6.60220E+04  4.14424E+04 -4.67232E+04  6.09839E+04 -2.73096E+03  3.60107E+04  3.45726E+04
 -5.69674E+03  3.90418E+04 -3.16336E+04  1.80762E+04 -3.26435E+04 -3.35711E+03 -1.94394E+04 -1.15545E+04
 -1.00706E+04 -1.47190E+04 -2.99100E+02 -1.96775E+04  8.02437E+03 -2.36237E+04  1.58644E+04 -1.25973E+04
  1.00219E+04  6.60113E+03 -1.09726E+04  1.27651E+04 -2.28148E+04 -6.78509E+03 -9.40982E+03 -3.78018E+04
  2.45762E+04 -4.68468E+04  5.13863E+04 -2.16634E+04  4.85057E+04  2.05626E+04  1.73313E+04  4.71724E+04
 -1.68863E+04  3.51767E+04 -2.76720E+04  1.34944E+03 -1.09867E+04 -2.96472E+04  2.07214E+04 -3.67164E+04
  4.37078E+04 -1.11473E+04  4.03081E+04  2.50107E+04  2.13546E+04  5.10256E+04 -8.42179E+03  5.58489E+04
 -3.54425E+04  3.78859E+04 -4.63607E+04  1.11561E+04 -4.74504E+04 -1.80652E+04 -2.55441E+04 -4.16752E+04
  7.63503E+03 -4.08405E+04  3.36432E+04 -1.64841E+04  3.20844E+04  1.09125E+04  4.81860E+03  2.10253E+04
 -1.35643E+04  9.74568E+03 -1.14834E+04 -7.83586E+03  5.83773E+03 -1.09674E+04  1.93963E+04  6.10813E+03
  1.50917E+04  2.23694E+04 -4.72189E+03  2.71348E+04 -2.33502E+04  1.44051E+04 -3.15085E+04 -2.95597E+03
 -2.51653E+04 -1.74085E+04 -1.13361E+04 -2.42949E+04  5.00862E+03 -2.48557E+04  1.91305E+04 -2.27571E+04
  3.15630E+04 -1.42441E+04  3.74195E+04  4.70086E+03  2.64410E+04  2.37012E+04  4.00890E+03  4.10546E+04
 -1.95288E+04  3.31170E+04 -2.99964E+04  1.11283E+04 -2.25830E+04 -1.00196E+04 -4.78804E+03 -1.32591E+04
  2.97562E+02 -1.77412E+03 -6.16199E+03  8.22422E+03 -2.07607E+04  4.89709E+03 -1.90551E+04 -8.88996E+03
 -1.22847E+04 -2.29236E+04  6.30196E+03 -2.74406E+04  1.80598E+04 -1.88606E+04  2.18278E+04 -1.75131E+03
  1.39967E+04  1.59502E+04 -1.11240E+03  2.26171E+04 -1.60870E+04  1.25581E+04 -2.35824E+04 -4.24382E+03
 -1.68055E+04 -2.09954E+04 -2.67878E+03 -2.67542E+04  1.16999E+04 -2.21502E+04  2.23352E+04 -1.22862E+04
  2.12978E+04 -1.34742E+02  1.53806E+04  5.05212E+03  8.52950E+03  1.84028E+03  1.18670E+04 -2.04514E+03
  2.10673E+04  3.13854E+03  2.34032E+04  1.72333E+04  1.60759E+04  3.56263E+04 -2.50925E+03  4.25339E+04
 -2.46637E+04  3.55653E+04 -3.91092E+04  1.84335E+04 -4.31501E+04 -3.46144E+03 -3.42812E+04 -2.45054E+04
 -1.44837E+04 -3.55900E+04  1.19158E+04 -3.10749E+04  2.64141E+04 -1.49244E+04  2.31103E+04  7.27047E+03
  8.26960E+03  1.76300E+04 -1.10427E+04  1.51152E+04 -1.97892E+04  1.89010E+03 -1.50301E+04 -1.23211E+04
  5.91347E+02 -1.96256E+04  1.02000E+04 -1.38665E+04  1.21761E+04 -1.25957E+03  3.34299E+03  8.72769E+03
 -8.56997E+03  3.59334E+03 -8.25788E+03 -7.22916E+03 -1.92430E+03 -1.73675E+04  1.11917E+04 -1.87661E+04
  2.14363E+04 -1.08267E+04  2.48730E+04  2.98173E+03  2.03419E+04  1.71837E+04  1.06451E+04  2.73601E+04
 -4.95358E+03  2.95188E+04 -1.91199E+04  1.78617E+04 -2.07905E+04  4.44664E+03 -1.42476E+04 -5.55730E+03
 -6.24466E+03 -6.97310E+03 -6.50451E+02  3.16043E+02 -2.46918E+03  3.04067E+03 -6.40318E+03  5.51037E+03
 -1.33446E+04 -1.48723E+03 -1.41677E+04 -1.04875E+04 -6.60971E+03 -1.86190E+04  5.49582E+03 -1.52936E+04
  1.19741E+04 -6.54994E+03  8.70941E+03  4.49334E+03  3.10865E+02  5.79580E+03 -8.21715E+03 -5.71300E+02
 -6.70093E+03 -9.23655E+03 -1.48092E+03 -1.46624E+04  8.10737E+03 -1.48254E+04  1.91653E+04 -7.62263E+03
  2.18523E+04  1.65774E+03  1.55990E+04  1.26756E+04  3.12950E+03  1.79187E+04 -9.06618E+03  1.46607E+04
 -1.16787E+04  4.11948E+03 -5.81672E+03 -3.55461E+03  2.45059E+03 -4.82216E+03  8.33808E+03 -8.55683E+02
  7.21995E+03  6.74904E+03  4.64047E+02  1.17574E+04 -8.74386E+03  1.14107E+04 -1.44881E+04  3.08279E+03
 -9.57166E+03 -7.35994E+03  6.64918E+00 -1.27759E+04  7.74175E+03 -5.67542E+03  8.76219E+03  3.56908E+03
  2.66952E+03  9.17355E+03 -7.50169E+03  1.07204E+04 -1.17717E+04  4.87017E+03 -1.11306E+04 -4.78143E+03
 -7.54435E+03 -1.49433E+04  3.71839E+03 -1.58107E+04  1.35856E+04 -1.00079E+04  1.50334E+04  2.35625E+03
  9.51103E+03  1.24342E+04 -1.00955E+03  1.41989E+04 -1.05256E+04  7.56756E+03 -1.15017E+04 -1.31179E+03
 -9.96708E+03 -1.00581E+04 -2.50480E+03 -1.05474E+04  5.93504E+03 -8.91264E+03  7.15204E+03 -3.54146E+03
  4.52321E+03  1.62215E+03 -8.86575E+02  2.25435E+03 -3.75748E+02 -3.41053E+03  1.84899E+03 -6.19130E+03
  1.00869E+04 -3.91429E+03  1.42257E+04  1.46897E+03  1.39103E+04  9.49066E+03  9.60184E+03  1.81148E+04
 -3.63904E+03  2.13529E+04 -1.67754E+04  1.53358E+04 -2.28026E+04  2.85270E+03 -1.85671E+04 -7.64189E+03
 -9.20656E+03 -1.45648E+04 -5.48950E+02 -1.25387E+04  4.97737E+03 -7.27075E+03  4.56368E+03 -4.94599E+03
  3.15978E+03 -2.38778E+03  2.65700E+03 -3.27983E+03  5.99659E+03 -3.02933E+03  7.18925E+03 -9.62036E+02
  9.50482E+03  2.49651E+03  4.62438E+03  8.66292E+03 -2.27158E+03  9.81135E+03 -9.99697E+03  7.54983E+03
 -1.20420E+04 -2.01330E+03 -8.00690E+03 -8.93319E+03 -7.15683E+02 -1.44558E+04  7.72447E+03 -1.42545E+04
  1.45638E+04 -6.67890E+03  1.71127E+04  2.34870E+03  1.15740E+04  1.15068E+04  1.74949E+03  1.57338E+04
 -6.25839E+03  1.30693E+04 -9.19187E+03  4.76397E+03 -5.83581E+03 -1.62649E+03 -2.44967E+03 -2.44656E+03
 -1.26328E+03  2.52348E+02 -2.03289E+03  3.36282E+03 -5.30808E+03  1.98643E+03 -9.52238E+03 -8.60541E+02
 -6.18336E+03 -8.80841E+03  2.24712E+02 -1.32019E+04  8.20583E+03 -1.16742E+04  1.26645E+04 -3.62550E+03
  1.30564E+04  6.37566E+03  6.28087E+03  1.15419E+04 -2.51704E+03  1.29683E+04 -8.71061E+03  8.68922E+03
 -1.15771E+04  1.09023E+03 -8.79501E+03 -7.03168E+03 -5.40788E+02 -1.00150E+04  5.83250E+03 -6.76008E+03
  8.08951E+03 -2.78580E+03  5.68988E+03  2.18320E+03  2.13953E+03  3.71263E+03  2.01929E+03  1.40992E+03
  2.55886E+03  1.09906E+03  2.73834E+03  5.41996E+02  4.30715E+03  5.03709E+03  3.90843E+03  6.69131E+03
 -2.38972E+03  1.00057E+04 -8.81831E+03  1.04446E+04 -1.27894E+04  2.26040E+03 -1.32738E+04 -5.47748E+03
 -6.17986E+03 -1.26718E+04  2.09961E+03 -1.32358E+04  7.20761E+03 -8.62655E+03  1.12297E+04 -2.47468E+03
  7.98390E+03  4.49986E+03  1.72295E+03  7.20038E+03 -3.73181E+03  4.66880E+03 -4.55335E+03 -6.25317E+02
 -2.73717E+03 -5.89332E+03  3.14079E+03 -5.60973E+03  4.89216E+03 -2.58368E+03  5.10882E+03  1.43633E+03
  2.93310E+03  2.40437E+03  1.07862E+03  2.37071E+03 -1.20604E+03  1.42413E+03  1.06116E+03 -2.34148E+02
  1.50899E+03 -1.10013E+03  5.33745E+03  1.92364E+03  2.30651E+03  6.63386E+03 -3.18874E+02  9.09865E+03
 -5.83081E+03  5.11631E+03 -7.38234E+03  1.49456E+03 -7.21412E+03 -2.33160E+03 -2.75750E+03 -4.96627E+03
  1.38986E+03 -5.08356E+03  2.18954E+03 -2.31266E+03  2.03287E+03  2.19291E+03 -1.33672E+03  4.85339E+03
 -4.44030E+03  2.56823E+03 -5.66283E+03 -2.51236E+03 -3.47531E+03 -6.72907E+03  1.25587E+03 -6.95689E+03
  3.47704E+03 -4.23529E+03  4.70725E+03 -3.40611E+02  3.96598E+03  2.45349E+03  8.98258E+02  3.63177E+03
 -2.40743E+03  1.71376E+03 -2.58361E+03 -1.54911E+03  1.21419E+03 -4.44396E+03  6.86327E+03 -3.78289E+03
  7.22063E+03  4.46322E+02  7.02404E+03  4.89438E+03  2.65334E+03  8.32649E+03 -2.78190E+03  7.97276E+03
 -7.44577E+03  4.01816E+03 -6.61341E+03 -1.16074E+03 -3.17363E+03 -6.05270E+03  1.22283E+03 -4.87916E+03
  5.38567E+03 -1.74685E+03  4.52089E+03  2.24149E+03  1.24402E+03  4.78121E+03 -7.18280E+02  4.33924E+03
 -2.10438E+03  2.55102E+03 -1.56513E+03  8.27294E+02 -1.17287E+02  8.27366E+02 -1.49392E+03  1.58324E+03
 -1.96147E+03  3.53686E+03 -5.76568E+03  2.05903E+03 -7.91393E+03 -2.42637E+02 -8.90892E+03 -4.66315E+03
 -4.74169E+03 -9.99602E+03  1.49100E+03 -1.20934E+04  6.93908E+03 -9.07086E+03  1.12813E+04 -3.06725E+03
  9.90498E+03  2.57140E+03  6.15879E+03  7.18429E+03  2.43812E+02  7.48146E+03 -3.04780E+03  6.33653E+03
 -4.42256E+03  2.61134E+03 -2.38854E+03 -8.40283E+02 -7.38733E+02 -1.14841E+03 -7.52582E+01  5.26805E+01
 -1.14982E+03  1.65261E+02 -2.55319E+03 -5.40092E+02 -2.05262E+02 -1.79137E+03 -3.13020E+02 -2.78875E+03
  3.51406E+03 -2.34725E+03  4.59938E+03  8.64008E+02  5.31002E+03  4.64095E+03  1.37808E+03  7.60555E+03
 -3.82306E+03  9.09326E+03 -8.78887E+03  5.41007E+03 -9.48358E+03 -4.22991E+02 -6.87419E+03 -6.07770E+03
 -3.08483E+03 -8.45162E+03  1.99945E+03 -7.51608E+03  4.58235E+03 -3.75321E+03  4.33102E+03  7.37607E+02
  2.88913E+03  2.68538E+03 -5.13360E+02  1.51819E+03 -2.45402E+03 -8.29897E+00  4.77581E+02 -1.89366E+03
  2.22373E+03 -5.71967E+02  2.76758E+03  1.04370E+03  2.26334E+03  3.34381E+03 -3.93917E+02  3.93110E+03
 -3.98275E+03  3.35031E+03 -4.08980E+03  1.03272E+03 -4.12159E+03 -3.52331E+03 -8.30837E+02 -6.54567E+03
  4.03390E+03 -5.20422E+03  5.94924E+03 -1.07246E+03  5.78733E+03  8.50409E+02  3.15107E+03  4.66999E+03
  5.12389E+02  4.89204E+03 -2.23934E+03  4.34056E+03 -3.44622E+03  2.60909E+03 -1.95827E+03  4.87724E+02
 -6.45568E+02  1.86898E-01 -1.13189E+03  3.84748E+02 -2.78612E+03  1.19348E+03 -4.49581E+03 -8.39219E+02
 -4.38818E+03 -2.41044E+03 -6.02113E+02 -5.02243E+03  2.47295E+03 -5.18831E+03  4.90687E+03 -2.36729E+03
  5.37989E+03  1.12206E+03  1.93581E+03  3.79903E+03  1.14572E+02  5.50717E+03 -3.66477E+03  2.84425E+03
