 $NMID ID='MM_0lb_SNR400_12hz_g60_26.RAW', FMTDAT='(8E13.5)'
 TRAMP=1., VOLUME=1. $END
  3.09420E+05  8.82684E+02  3.38290E+05  2.50527E+05  8.52414E+04  3.37796E+05 -1.33233E+05  2.51376E+05
 -1.90780E+05  8.32830E+04 -1.11917E+05 -3.18036E+04  7.56995E+01 -5.05729E+04  5.30547E+04 -1.07011E+02
  3.51092E+04  5.31896E+04 -1.72847E+04  7.60220E+04 -6.06769E+04  6.41762E+04 -8.50792E+04  3.25316E+04
 -8.19849E+04 -1.15644E+04 -5.76731E+04 -5.26793E+04 -1.46757E+04 -7.07525E+04  2.86054E+04 -4.63699E+04
  4.12012E+04  3.16390E+03  1.70179E+04  4.88227E+04 -3.49104E+04  4.85102E+04 -6.73321E+04 -6.28305E+01
 -5.42607E+04 -5.67895E+04 -6.91236E+03 -7.85214E+04  3.43895E+04 -5.66157E+04  4.95251E+04 -1.84289E+04
  4.47007E+04  1.10621E+04  3.25089E+04  2.58517E+04  1.58285E+04  3.04919E+04 -5.56514E+03  2.76794E+04
 -2.18272E+04  1.17473E+04 -1.84614E+04 -5.38066E+03  6.93809E+03 -6.74715E+03  2.31873E+04  1.30860E+04
  7.54261E+03  3.71559E+04 -3.31954E+04  3.67751E+04 -6.50491E+04  1.97035E+03 -5.80690E+04 -4.38685E+04
 -1.23225E+04 -6.51629E+04  4.11510E+04 -4.62667E+04  6.07756E+04 -3.06392E+03  3.63124E+04  3.41162E+04
 -6.12555E+03  3.78778E+04 -3.14151E+04  1.82066E+04 -3.28581E+04 -4.41641E+03 -1.84642E+04 -1.24012E+04
 -8.52595E+03 -1.49074E+04 -7.99303E+02 -2.05476E+04  7.91514E+03 -2.33603E+04  1.58254E+04 -1.24565E+04
  1.18360E+04  6.42692E+03 -9.25036E+03  1.28501E+04 -2.31584E+04 -5.56566E+03 -8.87774E+03 -3.70609E+04
  2.49184E+04 -4.57776E+04  5.05366E+04 -2.00498E+04  4.76957E+04  2.12114E+04  1.67403E+04  4.63550E+04
 -1.56954E+04  3.48673E+04 -2.65816E+04  2.13225E+03 -1.10415E+04 -2.89546E+04  2.12674E+04 -3.58075E+04
  4.34420E+04 -1.10216E+04  3.85199E+04  2.49690E+04  2.05790E+04  4.96382E+04 -8.16615E+03  5.38850E+04
 -3.42247E+04  3.71263E+04 -4.55635E+04  1.14829E+04 -4.55916E+04 -1.76903E+04 -2.56752E+04 -4.03151E+04
  7.97477E+03 -4.02962E+04  3.39849E+04 -1.60958E+04  3.11212E+04  1.14347E+04  4.32813E+03  2.01952E+04
 -1.42853E+04  8.64895E+03 -1.03799E+04 -7.94236E+03  5.42616E+03 -1.17886E+04  1.76204E+04  5.49984E+03
  1.38825E+04  2.23945E+04 -5.30699E+03  2.57489E+04 -2.29449E+04  1.39446E+04 -3.04121E+04 -4.35449E+03
 -2.39431E+04 -1.80439E+04 -1.11301E+04 -2.32039E+04  4.48850E+03 -2.37078E+04  1.84068E+04 -2.16016E+04
  3.03568E+04 -1.28213E+04  3.61777E+04  4.31780E+03  2.61670E+04  2.25315E+04  4.34943E+03  3.92074E+04
 -1.87536E+04  3.33603E+04 -2.93467E+04  1.20632E+04 -2.18819E+04 -1.00069E+04 -4.86923E+03 -1.35931E+04
  1.17400E+03 -6.70086E+02 -6.60094E+03  7.78137E+03 -1.91334E+04  5.22272E+03 -1.87715E+04 -9.17476E+03
 -1.06500E+04 -2.18380E+04  5.30036E+03 -2.54976E+04  1.70641E+04 -1.84079E+04  2.09341E+04 -1.32388E+03
  1.34186E+04  1.56832E+04 -1.63802E+03  2.27743E+04 -1.49789E+04  1.21701E+04 -2.19983E+04 -4.60130E+03
 -1.57618E+04 -1.95837E+04 -1.98739E+03 -2.61600E+04  1.15171E+04 -2.23912E+04  2.25626E+04 -1.14606E+04
  2.05742E+04  3.03152E+01  1.48429E+04  4.97093E+03  8.05345E+03  1.04831E+03  1.21100E+04 -1.72269E+03
  2.05424E+04  3.04327E+03  2.29379E+04  1.70001E+04  1.50987E+04  3.46635E+04 -3.10224E+03  4.02076E+04
 -2.34452E+04  3.27124E+04 -3.83189E+04  1.68626E+04 -4.01077E+04 -3.32472E+03 -3.29066E+04 -2.33883E+04
 -1.31886E+04 -3.38075E+04  1.11024E+04 -2.91835E+04  2.51539E+04 -1.45120E+04  2.22033E+04  6.63027E+03
  8.01569E+03  1.70664E+04 -1.05711E+04  1.44746E+04 -1.85823E+04  2.88863E+03 -1.48282E+04 -1.23117E+04
 -5.67232E+02 -1.72729E+04  9.05950E+03 -1.34117E+04  1.22779E+04 -1.24358E+03  3.75457E+03  8.12647E+03
 -7.53837E+03  3.13705E+03 -8.17737E+03 -6.54240E+03 -1.01476E+03 -1.62426E+04  1.06440E+04 -1.72520E+04
  2.10506E+04 -9.43939E+03  2.31251E+04  3.23970E+03  2.05913E+04  1.62872E+04  9.66929E+03  2.58121E+04
 -4.76857E+03  2.76721E+04 -1.74279E+04  1.74779E+04 -2.00825E+04  3.75255E+03 -1.30946E+04 -5.25117E+03
 -6.20296E+03 -6.68462E+03 -4.91414E+02  8.31178E+02 -2.18488E+03  3.30584E+03 -6.24392E+03  5.19936E+03
 -1.26811E+04 -5.32976E+02 -1.34737E+04 -1.08097E+04 -5.43960E+03 -1.74490E+04  5.28461E+03 -1.36239E+04
  1.12633E+04 -6.47754E+03  7.96932E+03  3.60016E+03 -2.95242E+02  5.19297E+03 -6.70956E+03  1.98231E+02
 -7.15817E+03 -8.68145E+03 -9.48075E+02 -1.38937E+04  7.64680E+03 -1.43393E+04  1.74135E+04 -7.29578E+03
  1.96997E+04  2.17875E+03  1.47752E+04  1.29531E+04  2.88042E+03  1.62169E+04 -8.15997E+03  1.39010E+04
 -1.17688E+04  4.16462E+03 -5.04038E+03 -2.82016E+03  1.95918E+03 -3.63591E+03  7.27353E+03 -8.67284E+02
  6.40530E+03  6.34120E+03  8.86078E+02  1.15731E+04 -8.45512E+03  1.11882E+04 -1.34462E+04  1.51562E+03
 -9.46395E+03 -7.68872E+03  1.77378E+02 -1.22933E+04  7.06983E+03 -5.88047E+03  7.72880E+03  2.39933E+03
  2.09752E+03  8.66987E+03 -5.97337E+03  9.31886E+03 -1.15133E+04  4.38970E+03 -1.13541E+04 -3.84417E+03
 -7.01068E+03 -1.29273E+04  3.03516E+03 -1.49082E+04  1.30168E+04 -9.49527E+03  1.38436E+04  2.15681E+03
  8.74649E+03  1.07639E+04 -7.69690E+02  1.32909E+04 -9.73090E+03  7.92921E+03 -9.79297E+03 -1.28266E+03
 -9.16720E+03 -8.53384E+03 -1.52347E+03 -1.00125E+04  5.58063E+03 -8.47489E+03  5.76269E+03 -3.35481E+03
  4.52603E+03  1.59444E+03 -4.22722E+02  2.02196E+03 -3.62992E+02 -2.46493E+03  1.88444E+03 -5.86849E+03
  9.82245E+03 -3.02987E+03  1.24196E+04  1.71950E+03  1.27268E+04  8.08152E+03  9.15428E+03  1.63816E+04
 -3.17307E+03  1.85699E+04 -1.59323E+04  1.44541E+04 -2.12140E+04  2.33710E+03 -1.61638E+04 -6.79541E+03
 -8.96106E+03 -1.38959E+04 -1.25795E+02 -1.20340E+04  3.54741E+03 -6.84173E+03  4.15401E+03 -4.03550E+03
  3.86065E+03 -2.83281E+03  3.96016E+03 -4.32303E+03  4.59718E+03 -3.31943E+03  6.35295E+03 -6.40296E+02
  9.64081E+03  2.23592E+03  3.75808E+03  7.50438E+03 -1.61576E+03  8.45796E+03 -9.35905E+03  6.57433E+03
 -1.16575E+04 -7.38932E+02 -6.93325E+03 -8.47676E+03 -9.76554E+02 -1.28856E+04  6.68566E+03 -1.33128E+04
  1.27800E+04 -6.45584E+03  1.49381E+04  2.45753E+03  1.10230E+04  9.91929E+03  1.56861E+03  1.36136E+04
 -5.50778E+03  1.18622E+04 -8.29808E+03  4.64320E+03 -5.15024E+03 -1.69076E+03 -2.27216E+03 -1.78058E+03
 -9.25791E+02 -3.69050E+01 -1.77597E+03  2.87199E+03 -5.68466E+03  2.13191E+03 -8.08727E+03 -1.41831E+03
 -5.32651E+03 -7.49770E+03  2.20160E+02 -1.10927E+04  7.08543E+03 -1.08250E+04  1.12128E+04 -2.29180E+03
  1.10452E+04  5.20084E+03  5.10587E+03  8.73705E+03 -2.02681E+03  1.08715E+04 -7.77517E+03  7.65939E+03
 -9.86531E+03  6.72218E+02 -8.02806E+03 -6.89204E+03 -1.22488E+03 -8.77978E+03  4.98125E+03 -7.01918E+03
  6.71586E+03 -2.57615E+03  5.29947E+03  1.49657E+03  1.87448E+03  3.30567E+03  5.60749E+02  1.12902E+03
  2.30361E+03  1.09622E+03  1.86996E+03  1.39273E+03  3.12666E+03  4.59114E+03  2.95511E+03  5.80052E+03
 -2.17461E+03  8.31078E+03 -7.08915E+03  9.26594E+03 -1.08869E+04  2.29585E+03 -1.14473E+04 -4.57125E+03
 -6.05002E+03 -1.04895E+04  1.59583E+03 -1.17909E+04  6.64482E+03 -6.91848E+03  8.86412E+03 -1.54222E+03
  6.19120E+03  3.65947E+03  1.13205E+03  6.91622E+03 -3.01178E+03  4.30281E+03 -4.10934E+03 -3.61053E+02
 -2.09599E+03 -5.08180E+03  2.79847E+03 -4.92726E+03  4.05369E+03 -2.41589E+03  4.03848E+03  4.04293E+02
  2.26526E+03  1.97958E+03  1.13488E+03  1.70294E+03 -1.01063E+03  1.50011E+03  1.36652E+03 -6.57363E+02
  4.69939E+02 -2.86532E+02  4.13911E+03  1.50523E+03  2.86181E+03  5.88750E+03 -1.54502E+03  7.23025E+03
 -5.22915E+03  4.20323E+03 -6.10169E+03  1.46837E+03 -6.95012E+03 -2.10385E+03 -1.77571E+03 -3.67031E+03
  1.10049E+03 -3.59781E+03  2.25436E+03 -1.69735E+03  2.39651E+03  2.46693E+03 -1.95435E+03  3.83279E+03
 -4.65376E+03  2.52765E+03 -5.01550E+03 -2.65737E+03 -3.83463E+03 -6.21664E+03  8.39407E+02 -6.30170E+03
  3.47963E+03 -2.61891E+03  3.67059E+03 -4.09206E+02  3.50649E+03  9.74717E+02  1.47477E+03  2.74916E+03
 -2.19483E+03  9.99359E+02 -2.79794E+03 -1.81320E+03  1.36739E+03 -4.51682E+03  5.88930E+03 -3.30658E+03
  6.37788E+03  2.57870E+02  6.69653E+03  3.88723E+03  2.05441E+03  7.11963E+03 -2.02463E+03  6.59842E+03
 -5.43533E+03  2.60283E+03 -5.42574E+03  1.13136E+02 -3.12994E+03 -4.03267E+03  7.86057E+02 -3.45466E+03
  4.29243E+03 -2.47161E+03  2.44591E+03  1.44004E+03  1.07014E+03  4.32885E+03 -6.08113E+01  3.25260E+03
 -1.10167E+03  2.50031E+03 -1.27733E+03  5.25039E+02 -3.71721E+01  5.62686E+02 -1.37137E+03  1.61518E+03
 -1.93798E+03  2.15823E+03 -4.50788E+03  2.51802E+03 -6.96593E+03 -5.54093E+02 -7.51465E+03 -4.04596E+03
 -3.52587E+03 -8.37331E+03  1.57185E+03 -1.00753E+04  5.91891E+03 -7.46757E+03  8.56559E+03 -3.48032E+03
  8.32532E+03  2.10340E+03  5.63582E+03  5.76677E+03 -8.43416E+01  6.97647E+03 -2.32447E+03  4.96808E+03
 -3.35316E+03  1.47746E+03 -2.59156E+03 -6.96723E+02 -1.04941E+03 -7.59038E+01 -7.19229E+02 -1.30199E+02
 -1.92235E+03  9.91566E+01 -1.59549E+03 -3.70143E+02 -2.43780E+02 -1.59315E+03 -2.95562E+02 -2.02002E+03
  3.23445E+03 -1.83143E+03  3.50842E+03  5.38788E+02  4.04991E+03  3.04333E+03  8.60041E+02  6.29601E+03
 -2.82311E+03  7.73664E+03 -6.44724E+03  5.06666E+03 -8.04072E+03 -9.42303E+02 -5.07365E+03 -5.48381E+03
 -2.13708E+03 -6.60211E+03  1.52678E+03 -6.08178E+03  3.75641E+03 -2.86396E+03  4.33998E+03  8.64858E+02
  2.36259E+03  3.04147E+03 -2.21423E+01  2.15533E+03 -6.64084E+02 -9.87014E+00  3.76351E+01 -1.15129E+03
  1.74810E+03 -8.29091E+02  2.64296E+03  1.15083E+03  2.09692E+03  2.53743E+03  6.18785E+02  3.68802E+03
 -3.05322E+03  3.08115E+03 -3.95845E+03  5.44042E+02 -3.91068E+03 -2.03657E+03 -7.35143E+02 -5.44000E+03
  2.23027E+03 -4.25488E+03  4.34154E+03 -1.17300E+03  5.29782E+03  9.06556E+02  2.35425E+03  2.94489E+03
  7.78702E+02  3.58039E+03 -1.62635E+03  2.78977E+03 -2.41952E+03  1.93133E+03 -1.88685E+03  3.04211E+02
 -1.06855E+03 -6.69789E+02 -2.85007E+02  5.18614E+02 -1.96327E+03  4.90242E+02 -3.19468E+03 -8.15716E+02
 -3.69705E+03 -2.34032E+03 -1.52650E+03 -4.63482E+03  1.93100E+03 -4.62886E+03  3.76561E+03 -1.97648E+03
  4.14277E+03  5.60066E+02  1.26362E+03  2.17557E+03 -3.54463E+02  4.55010E+03 -3.10528E+03  2.55338E+03
