 $NMID ID='MM_0lb_SNR400_9hz_g45_40.RAW', FMTDAT='(8E13.5)'
 TRAMP=1., VOLUME=1. $END
  3.10414E+05  7.45515E+01  3.37689E+05  2.51393E+05  8.52672E+04  3.38434E+05 -1.32364E+05  2.51753E+05
 -1.90189E+05  8.42354E+04 -1.12963E+05 -3.23425E+04  3.84059E+02 -5.11608E+04  5.37499E+04 -6.03586E+02
  3.54772E+04  5.37224E+04 -1.66292E+04  7.64439E+04 -6.15685E+04  6.44054E+04 -8.49550E+04  3.21407E+04
 -8.18073E+04 -1.12825E+04 -5.78197E+04 -5.23461E+04 -1.50447E+04 -7.05068E+04  2.76236E+04 -4.63018E+04
  4.06647E+04  3.90035E+03  1.60619E+04  4.87543E+04 -3.49076E+04  4.87324E+04 -6.75679E+04  4.19591E+02
 -5.41060E+04 -5.78544E+04 -6.87536E+03 -7.85754E+04  3.49473E+04 -5.61236E+04  4.91880E+04 -1.78860E+04
  4.56275E+04  1.08184E+04  3.26673E+04  2.60416E+04  1.52095E+04  3.02665E+04 -5.32459E+03  2.78442E+04
 -2.20320E+04  1.30732E+04 -1.81570E+04 -5.51560E+03  6.95592E+03 -7.43160E+03  2.36711E+04  1.36515E+04
  8.01512E+03  3.71214E+04 -3.37788E+04  3.67678E+04 -6.53393E+04  2.45642E+03 -5.86976E+04 -4.46255E+04
 -1.27785E+04 -6.56981E+04  4.14820E+04 -4.66133E+04  6.01720E+04 -2.47933E+03  3.68210E+04  3.46106E+04
 -6.19547E+03  3.94455E+04 -3.22739E+04  1.90973E+04 -3.25643E+04 -4.82227E+03 -1.95354E+04 -1.23115E+04
 -1.02198E+04 -1.54791E+04 -6.76257E+01 -1.87751E+04  8.62421E+03 -2.35685E+04  1.54266E+04 -1.35765E+04
  1.02865E+04  6.36568E+03 -1.07077E+04  1.28728E+04 -2.32546E+04 -5.39034E+03 -8.31758E+03 -3.70491E+04
  2.46060E+04 -4.62888E+04  5.16811E+04 -2.08131E+04  4.86747E+04  2.15812E+04  1.74964E+04  4.66785E+04
 -1.68751E+04  3.57253E+04 -2.77580E+04  3.03772E+03 -1.17980E+04 -2.96158E+04  2.16908E+04 -3.62956E+04
  4.51326E+04 -1.10963E+04  3.96305E+04  2.48159E+04  2.15119E+04  5.00663E+04 -8.69237E+03  5.61973E+04
 -3.46796E+04  3.77677E+04 -4.66545E+04  1.03114E+04 -4.64175E+04 -1.86005E+04 -2.56346E+04 -4.24230E+04
  7.11568E+03 -4.14243E+04  3.36294E+04 -1.74317E+04  3.25056E+04  1.12413E+04  4.90073E+03  2.00812E+04
 -1.46566E+04  9.56613E+03 -1.09189E+04 -7.58937E+03  5.91038E+03 -1.17398E+04  1.87266E+04  5.65120E+03
  1.35033E+04  2.25532E+04 -4.76149E+03  2.69179E+04 -2.29302E+04  1.39252E+04 -3.08923E+04 -2.66607E+03
 -2.53781E+04 -1.75892E+04 -1.20904E+04 -2.45179E+04  4.56271E+03 -2.51144E+04  1.99778E+04 -2.32258E+04
  3.18163E+04 -1.36002E+04  3.65845E+04  4.88782E+03  2.63001E+04  2.41468E+04  4.20070E+03  4.05005E+04
 -1.98503E+04  3.39323E+04 -2.96712E+04  1.14505E+04 -2.17122E+04 -1.03481E+04 -5.65196E+03 -1.32110E+04
  3.48106E+02 -1.03596E+03 -7.48671E+03  7.51482E+03 -1.97295E+04  4.83541E+03 -2.10454E+04 -9.10149E+03
 -1.18006E+04 -2.23230E+04  6.31317E+03 -2.79066E+04  1.76401E+04 -1.96947E+04  2.17309E+04 -1.92204E+03
  1.35274E+04  1.61678E+04 -2.40320E+03  2.18559E+04 -1.61922E+04  1.36275E+04 -2.34706E+04 -4.93400E+03
 -1.64529E+04 -2.03736E+04 -2.51746E+03 -2.72771E+04  1.29427E+04 -2.33403E+04  2.22583E+04 -1.19236E+04
  2.18747E+04 -4.45106E+02  1.55680E+04  5.08266E+03  8.10441E+03  7.34255E+02  1.22922E+04 -1.62249E+03
  2.15353E+04  2.58287E+03  2.46604E+04  1.80746E+04  1.67693E+04  3.75741E+04 -2.63895E+03  4.37532E+04
 -2.45330E+04  3.62462E+04 -4.06679E+04  1.81715E+04 -4.35713E+04 -2.92722E+03 -3.45177E+04 -2.59770E+04
 -1.46614E+04 -3.58757E+04  1.32863E+04 -3.21225E+04  2.74677E+04 -1.54369E+04  2.41208E+04  7.96203E+03
  7.46977E+03  1.81612E+04 -1.21110E+04  1.47296E+04 -2.00300E+04  2.80776E+03 -1.48080E+04 -1.30252E+04
 -1.72768E+02 -1.93789E+04  9.60063E+03 -1.40055E+04  1.25163E+04 -7.95249E+02  3.87649E+03  8.40951E+03
 -7.38913E+03  3.38683E+03 -8.57951E+03 -6.54408E+03 -1.72729E+03 -1.79288E+04  1.15387E+04 -1.92899E+04
  2.24301E+04 -1.09086E+04  2.54122E+04  2.80328E+03  2.19851E+04  1.77157E+04  1.02854E+04  2.84957E+04
 -4.94292E+03  2.95303E+04 -1.97163E+04  1.92081E+04 -2.14223E+04  4.04131E+03 -1.47830E+04 -5.65373E+03
 -5.70486E+03 -6.73892E+03 -4.06700E+02  4.33572E+02 -2.35496E+03  3.18831E+03 -7.49348E+03  4.69700E+03
 -1.32565E+04 -1.07446E+03 -1.43558E+04 -1.09199E+04 -6.28657E+03 -1.94932E+04  6.15503E+03 -1.51408E+04
  1.37026E+04 -5.26846E+03  9.28849E+03  3.63982E+03 -4.18339E+02  5.82675E+03 -7.49941E+03  3.37128E+02
 -7.28200E+03 -1.01297E+04 -1.48827E+03 -1.54831E+04  8.68112E+03 -1.64589E+04  2.00467E+04 -8.98012E+03
  2.32585E+04  2.30210E+03  1.65163E+04  1.43359E+04  2.58653E+03  1.89803E+04 -9.37462E+03  1.54829E+04
 -1.21707E+04  4.11014E+03 -5.95632E+03 -3.23865E+03  1.63151E+03 -4.99538E+03  8.62312E+03 -1.19276E+03
  7.28128E+03  6.71569E+03  9.64187E+02  1.32106E+04 -9.00993E+03  1.18855E+04 -1.49527E+04  2.59798E+03
 -1.08919E+04 -8.32417E+03 -4.00466E+00 -1.25967E+04  7.81781E+03 -6.68027E+03  9.00010E+03  3.32778E+03
  1.37278E+03  1.05154E+04 -7.81921E+03  1.09031E+04 -1.28269E+04  5.22202E+03 -1.40284E+04 -4.50325E+03
 -7.98522E+03 -1.51967E+04  3.15343E+03 -1.81367E+04  1.52531E+04 -1.03001E+04  1.63264E+04  2.82597E+03
  9.64838E+03  1.29308E+04 -1.36689E+03  1.55421E+04 -1.06033E+04  9.11017E+03 -1.18533E+04 -9.84184E+02
 -9.72671E+03 -1.06266E+04 -1.04301E+03 -1.16040E+04  5.65198E+03 -9.58405E+03  7.11238E+03 -3.51772E+03
  4.65928E+03  2.07040E+03 -1.91213E+02  2.19008E+03 -2.96419E+02 -3.29465E+03  2.30820E+03 -8.09356E+03
  1.09935E+04 -5.26093E+03  1.45231E+04  1.91848E+03  1.54798E+04  1.04954E+04  1.02887E+04  1.99193E+04
 -5.04066E+03  2.34162E+04 -1.92880E+04  1.78817E+04 -2.52286E+04  3.61374E+03 -1.99843E+04 -9.05136E+03
 -1.03904E+04 -1.66151E+04 -5.32017E+02 -1.41945E+04  4.66676E+03 -7.61734E+03  4.86510E+03 -5.82787E+03
  4.14942E+03 -3.52829E+03  4.81441E+03 -3.53921E+03  6.06488E+03 -4.02815E+03  7.53271E+03 -1.43770E+03
  1.01754E+04  2.47682E+03  5.43898E+03  9.23292E+03 -1.85902E+03  1.14275E+04 -1.10521E+04  8.40144E+03
 -1.36619E+04 -1.16944E+03 -8.66137E+03 -1.00884E+04 -1.12387E+03 -1.46446E+04  8.44314E+03 -1.59095E+04
  1.51438E+04 -8.16577E+03  1.96777E+04  1.81401E+03  1.28168E+04  1.28981E+04  1.65887E+03  1.73238E+04
 -6.71180E+03  1.37623E+04 -1.09452E+04  5.02317E+03 -7.56210E+03 -1.85897E+03 -2.53828E+03 -1.92281E+03
 -1.50895E+03  7.27947E+02 -3.01764E+03  3.07928E+03 -6.48540E+03  2.58612E+03 -1.06267E+04 -1.11264E+03
 -7.42487E+03 -9.91601E+03  1.40169E+02 -1.39097E+04  8.67787E+03 -1.33248E+04  1.36337E+04 -3.75295E+03
  1.44791E+04  6.88443E+03  6.69253E+03  1.26044E+04 -2.80172E+03  1.39755E+04 -1.01904E+04  9.79340E+03
 -1.36992E+04 -1.85714E+01 -1.06045E+04 -8.78428E+03 -1.09949E+03 -1.24508E+04  5.83184E+03 -9.43490E+03
  9.69806E+03 -2.72522E+03  6.55735E+03  2.35271E+03  2.50940E+03  4.13375E+03  1.12936E+03  3.01564E+03
  2.89182E+03  8.12216E+02  3.39837E+03  2.54820E+03  4.58901E+03  4.74321E+03  3.25457E+03  8.19282E+03
 -3.04990E+03  1.16721E+04 -9.80328E+03  1.10518E+04 -1.51140E+04  3.36759E+03 -1.54701E+04 -6.27331E+03
 -7.31453E+03 -1.42836E+04  2.49063E+03 -1.58379E+04  9.81147E+03 -1.07033E+04  1.14697E+04 -2.67283E+03
  8.28335E+03  5.53020E+03  2.23426E+03  8.51210E+03 -4.27423E+03  4.80886E+03 -5.48352E+03 -7.08304E+02
 -2.70821E+03 -5.95654E+03  3.02564E+03 -6.89723E+03  5.55778E+03 -3.49741E+03  5.98996E+03  1.26195E+03
  3.91954E+03  2.66065E+03  1.01945E+03  2.28964E+03 -1.06725E+03  2.10654E+03  1.62139E+03 -1.45010E+03
  2.29140E+03 -8.97872E+02  5.86789E+03  2.63050E+03  4.10911E+03  8.02349E+03 -1.77938E+03  9.93658E+03
 -7.40418E+03  6.49505E+03 -9.22170E+03  2.51985E+03 -8.35957E+03 -3.37591E+03 -3.17142E+03 -5.78787E+03
  1.30198E+03 -6.41428E+03  4.01932E+03 -2.74971E+03  2.47024E+03  2.93147E+03 -1.36422E+03  4.29880E+03
 -6.25164E+03  2.51790E+03 -7.21998E+03 -3.18834E+03 -3.73178E+03 -8.39187E+03  9.93477E+02 -7.90333E+03
  5.61934E+03 -5.28510E+03  6.78164E+03 -8.06292E+02  4.49656E+03  2.09090E+03  7.04391E+02  3.60969E+03
 -2.90783E+03  2.02959E+03 -4.52413E+03 -3.61693E+03  1.21915E+03 -6.64273E+03  7.48654E+03 -5.40740E+03
  9.42985E+03  5.10491E+02  9.19294E+03  5.56875E+03  3.12571E+03  9.48334E+03 -3.72804E+03  8.94688E+03
 -7.96940E+03  3.47415E+03 -8.52712E+03 -5.29537E+02 -4.47892E+03 -6.32754E+03  7.72629E+02 -5.75812E+03
  6.25459E+03 -3.29816E+03  5.31561E+03  2.47114E+03  1.81736E+03  5.28962E+03 -1.08632E+03  5.09142E+03
 -2.70019E+03  3.02085E+03 -2.54344E+03  8.99379E+02 -1.54911E+03  9.41654E+02 -1.94886E+03  1.75226E+03
 -3.37552E+03  3.29253E+03 -7.15287E+03  3.94450E+03 -9.29023E+03  7.11971E+02 -1.03653E+04 -6.41697E+03
 -6.05949E+03 -1.28880E+04  1.88251E+03 -1.50657E+04  9.51741E+03 -1.17160E+04  1.35801E+04 -4.72093E+03
  1.28316E+04  2.47257E+03  7.73400E+03  8.63294E+03  7.79732E+02  9.92357E+03 -2.81062E+03  7.89654E+03
 -5.64514E+03  2.61470E+03 -3.89050E+03 -1.53205E+03 -7.59541E+02 -1.30345E+03 -1.38146E+03  6.44293E+02
 -2.38864E+03  3.36694E+02 -2.05699E+03  9.70319E+01 -5.15278E+02 -2.69375E+03  1.47567E+02 -3.14168E+03
  5.39111E+03 -3.03048E+03  5.74057E+03  1.80328E+02  7.25841E+03  4.86105E+03  1.74762E+03  9.83851E+03
 -4.29057E+03  1.14738E+04 -9.93845E+03  7.30957E+03 -1.22666E+04 -9.38858E+02 -8.96945E+03 -8.24682E+03
 -3.54942E+03 -1.11224E+04  1.67953E+03 -9.58758E+03  6.53423E+03 -5.27510E+03  6.52056E+03  1.38515E+02
  3.74152E+03  2.85510E+03 -4.90783E+02  2.38536E+03 -1.33368E+03 -3.65660E+02  5.45099E+02 -2.41599E+03
  3.73168E+03 -1.15809E+03  4.12050E+03  1.01571E+03  2.77290E+03  4.37023E+03  1.78934E+02  5.49306E+03
 -3.91966E+03  5.15431E+03 -7.61428E+03  9.20867E+02 -6.65491E+03 -4.85053E+03 -8.04924E+02 -8.82610E+03
  5.21636E+03 -6.73533E+03  7.49675E+03 -2.66954E+03  7.51355E+03  1.35692E+03  3.81903E+03  6.42688E+03
  1.11196E+02  7.23477E+03 -2.74730E+03  6.14680E+03 -3.98254E+03  3.58680E+03 -3.79717E+03  1.51901E+02
 -1.99745E+03 -6.08066E+02 -2.36649E+03  1.07588E+03 -4.02067E+03  8.89184E+02 -5.15885E+03 -8.30235E+02
 -4.43221E+03 -3.06682E+03 -2.02275E+03 -6.75826E+03  3.16749E+03 -7.14269E+03  6.57090E+03 -3.26798E+03
  6.48506E+03  4.27685E+02  4.29635E+03  4.35442E+03 -1.25010E+03  6.41139E+03 -5.61252E+03  3.62098E+03
