 $NMID ID='MM_0lb_SNR400_20hz_g55_6.RAW', FMTDAT='(8E13.5)'
 TRAMP=1., VOLUME=1. $END
  3.10545E+05  9.14930E+01  3.37692E+05  2.50187E+05  8.40191E+04  3.37386E+05 -1.32344E+05  2.50775E+05
 -1.90081E+05  8.21471E+04 -1.11144E+05 -3.27254E+04  1.55126E+03 -5.00615E+04  5.39459E+04  2.44960E+02
  3.51752E+04  5.26862E+04 -1.68787E+04  7.52058E+04 -6.05984E+04  6.21674E+04 -8.30093E+04  3.18817E+04
 -7.97048E+04 -1.13628E+04 -5.64181E+04 -5.02196E+04 -1.49880E+04 -6.85565E+04  2.70039E+04 -4.48967E+04
  3.88777E+04  3.27310E+03  1.55185E+04  4.75137E+04 -3.40092E+04  4.61043E+04 -6.62342E+04 -4.45111E+02
 -5.26633E+04 -5.59201E+04 -6.21492E+03 -7.53629E+04  3.34490E+04 -5.35795E+04  4.64143E+04 -1.63139E+04
  4.16867E+04  1.15455E+04  3.10653E+04  2.44925E+04  1.56009E+04  2.88521E+04 -5.32751E+03  2.67655E+04
 -2.16897E+04  1.22454E+04 -1.88581E+04 -4.63522E+03  4.69758E+03 -7.77123E+03  2.12941E+04  1.12155E+04
  7.34286E+03  3.33922E+04 -3.05467E+04  3.39874E+04 -6.13586E+04  1.88614E+03 -5.62411E+04 -4.17255E+04
 -1.22674E+04 -6.13143E+04  3.81929E+04 -4.30459E+04  5.60198E+04 -1.90220E+03  3.24233E+04  3.04235E+04
 -7.06195E+03  3.30236E+04 -2.87042E+04  1.35070E+04 -2.76908E+04 -5.16707E+03 -1.49684E+04 -1.02548E+04
 -7.52988E+03 -1.10989E+04 -1.16966E+03 -1.68658E+04  7.42815E+03 -2.24330E+04  1.52146E+04 -1.40342E+04
  1.17863E+04  4.00182E+03 -6.42206E+03  1.29097E+04 -1.92253E+04 -2.73426E+03 -7.73238E+03 -3.04658E+04
  2.12648E+04 -4.04714E+04  4.54022E+04 -1.87523E+04  4.21354E+04  1.83566E+04  1.46962E+04  4.19681E+04
 -1.51902E+04  3.07489E+04 -2.33188E+04  1.64042E+03 -8.51484E+03 -2.67649E+04  2.07617E+04 -3.18336E+04
  3.84182E+04 -7.15904E+03  3.12401E+04  2.26295E+04  1.58234E+04  4.28213E+04 -7.90853E+03  4.52037E+04
 -2.86833E+04  2.98592E+04 -3.72852E+04  8.55302E+03 -3.83963E+04 -1.50015E+04 -2.12456E+04 -3.45106E+04
  6.56123E+03 -3.36775E+04  2.92756E+04 -1.25682E+04  2.66576E+04  1.02482E+04  3.14556E+03  1.76983E+04
 -1.36646E+04  6.81257E+03 -9.71977E+03 -7.51503E+03  6.48243E+03 -1.05254E+04  1.75291E+04  6.45940E+03
  1.28348E+04  2.17604E+04 -6.73399E+03  2.35963E+04 -2.13935E+04  8.73621E+03 -2.49719E+04 -6.02481E+03
 -1.68790E+04 -1.64766E+04 -6.16317E+03 -1.67295E+04  3.62629E+03 -1.45007E+04  1.21135E+04 -1.42405E+04
  2.12487E+04 -1.15319E+04  2.81237E+04  7.06529E+02  2.11787E+04  1.60874E+04  3.75086E+03  3.19691E+04
 -1.59038E+04  2.73117E+04 -2.55765E+04  9.51071E+03 -1.93987E+04 -1.08777E+04 -4.16409E+03 -1.36490E+04
  2.55478E+03 -4.08682E+03 -2.32111E+03  4.89948E+03 -1.26643E+04  5.24656E+03 -1.33544E+04 -4.62275E+03
 -8.75378E+03 -1.54172E+04  4.92669E+03 -1.89700E+04  1.25256E+04 -1.36188E+04  1.39684E+04 -1.42954E+03
  9.32391E+03  1.04318E+04 -1.08078E+03  1.56392E+04 -9.99371E+03  8.28055E+03 -1.52279E+04 -4.16797E+03
 -1.16002E+04 -1.39234E+04 -1.14689E+03 -1.87707E+04  8.27631E+03 -1.49963E+04  1.59623E+04 -7.10751E+03
  1.47066E+04  1.03067E+03  1.04711E+04  4.13571E+03  4.76660E+03  7.68786E+01  6.92767E+03 -8.89297E+02
  1.35537E+04  2.62401E+03  1.46343E+04  1.22777E+04  8.99830E+03  2.39511E+04 -3.18222E+03  2.61367E+04
 -1.57927E+04  1.90329E+04 -2.36925E+04  9.14183E+03 -2.39303E+04 -1.07370E+03 -2.04810E+04 -1.38215E+04
 -9.56214E+03 -1.91270E+04  6.18707E+03 -1.88984E+04  1.60074E+04 -1.06196E+04  1.52495E+04  3.27119E+03
  6.34849E+03  1.01895E+04 -6.81121E+03  1.08761E+04 -1.26736E+04  2.92573E+03 -1.02108E+04 -7.75439E+03
 -3.98530E+02 -1.21501E+04  5.99788E+03 -9.16075E+03  7.53479E+03 -1.33470E+03  1.23925E+03  4.46112E+03
 -5.26950E+03  6.79613E+02 -3.60353E+03 -4.65919E+03  8.20830E+02 -1.02530E+04  7.66064E+03 -9.45824E+03
  1.17421E+04 -4.57289E+03  1.13228E+04  2.71567E+03  9.42405E+03  9.22025E+03  4.62568E+03  1.31693E+04
 -1.61945E+03  1.52131E+04 -9.40479E+03  9.72829E+03 -1.02768E+04  3.17139E+03 -8.37312E+03 -2.22836E+03
 -4.63075E+03 -3.02093E+03 -6.82291E+02  1.48007E+03 -2.30481E+03  1.48356E+03 -3.76063E+03  3.86946E+03
 -7.55874E+03 -4.77550E+02 -8.45419E+03 -6.87125E+03 -3.13438E+03 -1.14066E+04  3.58417E+03 -8.05692E+03
  6.76688E+03 -3.51232E+03  5.15958E+03  2.00247E+03  2.93658E+02  2.62609E+03 -3.71103E+03 -6.13982E+02
 -2.75933E+03 -4.89791E+03 -4.65844E+02 -6.75521E+03  3.18100E+03 -7.67050E+03  9.96300E+03 -3.71642E+03
  1.11856E+04  8.50515E+02  8.20418E+03  5.53266E+03  1.42452E+03  7.92280E+03 -4.93173E+03  7.69717E+03
 -6.69086E+03  2.33195E+03 -3.25788E+03 -8.73808E+02  1.16194E+03 -1.67905E+03  5.04819E+03 -8.92672E+02
  4.05935E+03  2.67286E+03  6.14134E+02  5.72676E+03 -3.42613E+03  5.57878E+03 -7.07608E+03  1.53792E+03
 -4.43520E+03 -3.11256E+03  2.33552E+01 -6.02708E+03  3.49572E+03 -2.22538E+03  3.13412E+03  1.10076E+03
  9.49779E+02  3.04133E+03 -4.14570E+03  4.24559E+03 -3.91682E+03  2.24731E+03 -3.52772E+03 -6.42700E+02
 -2.94888E+03 -5.33578E+03  8.70199E+02 -6.29508E+03  4.49435E+03 -3.74933E+03  5.33558E+03  5.38743E+02
  4.17966E+03  4.30335E+03  5.39012E+02  6.52601E+03 -4.23885E+03  3.99279E+03 -5.06939E+03 -8.86752E+01
 -5.42820E+03 -4.91201E+03 -1.32755E+03 -4.23970E+03  2.52051E+03 -4.67616E+03  2.25329E+03 -2.87388E+03
  2.53050E+03 -1.11496E+01  3.24382E+02  1.46746E+03  2.80714E+02 -1.24545E+02  3.58300E+02 -1.40007E+03
  3.16655E+03 -5.67572E+02  4.83787E+03  8.58863E+02  5.41270E+03  2.08703E+03  4.79279E+03  6.28268E+03
 -7.73382E+02  7.31518E+03 -6.28160E+03  5.66916E+03 -8.89480E+03  1.20810E+03 -7.04678E+03 -2.04760E+03
 -3.82997E+03 -5.31044E+03 -3.88087E+02 -4.43810E+03  1.74768E+03 -1.54465E+03  1.63019E+03 -2.39644E+03
  5.37581E+02 -1.67973E+03  1.71333E+03 -1.90440E+03  3.32783E+03 -1.31861E+03  3.26843E+03  6.02899E+01
  3.86788E+03  4.92555E+02  1.37795E+03  3.13998E+03 -1.36874E+03  2.12978E+03 -4.11343E+03  1.90195E+03
 -3.86195E+03 -1.24095E+03 -6.75304E+02 -2.24806E+03  3.79520E+02 -4.63670E+03  3.01323E+03 -4.75177E+03
  4.49391E+03 -2.71028E+03  6.31920E+03 -1.10915E+02  4.77062E+03  3.32804E+03  6.82984E+02  5.03862E+03
 -1.72132E+03  5.01306E+03 -2.75909E+03  1.67593E+03 -1.40570E+03 -1.28570E+03 -6.45435E+02  3.50261E+01
 -1.86834E+02  1.31204E+02 -7.33282E+02  1.64634E+03 -2.44108E+03  8.39262E+02 -3.59500E+03 -2.43526E+02
 -9.27480E+02 -3.34502E+03  6.27862E+02 -4.62922E+03  2.18423E+03 -3.66248E+03  2.31141E+03 -9.40795E+02
  3.51901E+03  1.92571E+03  1.13440E+03  2.64015E+03 -1.12220E+03  3.91121E+03 -1.88751E+03  2.36903E+03
 -2.69866E+03  9.26770E+02 -2.77997E+03 -1.83649E+03  1.73041E+02 -2.19696E+03  1.82905E+03 -1.78728E+03
  2.88652E+03 -1.25710E+03  1.39547E+03  4.23854E+02  3.94226E+02  1.42857E+03  1.21677E+03  8.81552E+02
  1.45011E+03  6.23789E+02  7.89880E+02  1.21206E+03  3.45197E+02  1.78987E+03  8.42883E+02  4.55350E+02
 -1.51776E+03  2.69553E+03 -1.87232E+03  3.24388E+03 -2.00077E+03  1.12777E+03 -3.09948E+03  4.71492E+02
 -1.23644E+03 -2.96551E+03  1.16624E+03 -3.20912E+03  1.72348E+03 -1.85830E+03  2.15035E+03 -1.11370E+03
  1.89044E+03  8.08547E+02  1.54502E+02  1.94114E+03 -1.82609E+02  1.23103E+03 -9.41195E+02 -4.65232E+02
 -3.34151E+02 -1.53249E+03  1.13304E+03 -8.76513E+02  8.33278E+02 -1.27962E+03  8.47141E+02  4.39565E+02
  8.56454E+02 -2.56056E+02  1.42853E+03 -3.33358E+02  1.38951E+02  3.89538E+02  1.87388E+03 -4.71430E+02
 -3.79663E+02 -3.69747E+02  1.16573E+03  7.22684E+02  6.44915E+01  2.60573E+03 -3.43527E+02  1.90665E+03
 -1.27266E+03  9.97933E+02 -2.26344E+03  4.29106E+02 -1.57322E+03 -7.90861E+02 -3.44427E+02 -4.19644E+02
  5.53439E+02 -1.24553E+03  1.10245E+03  2.54319E+02  7.33122E+02  1.22165E+03  2.84623E+01  1.36657E+03
 -1.51023E+03  3.81293E+02 -1.19858E+03 -8.34615E+02 -7.70454E+02 -1.51151E+03 -1.51980E+02 -1.26463E+03
  5.15980E+02 -1.68197E+02  4.39888E+02 -4.67954E+01  1.50421E+03  4.59876E+01  3.55705E+02  1.20381E+03
 -4.88585E+02  1.72320E+02 -1.06676E+03 -5.63762E+02  3.60146E+02 -2.89677E+02  1.17008E+03 -3.73196E+02
  3.06487E+02  5.71830E+02  2.17502E+03  6.43429E+02  9.71876E+02  8.17314E+02 -4.97733E+01  1.23501E+03
 -1.10844E+03 -4.88637E+02 -1.21407E+03 -2.07400E+02 -8.78299E+02 -1.14377E+03 -4.71677E+02  7.39789E+00
  1.14478E+03 -7.19597E+02  6.32552E+02  1.41238E+02 -2.88787E+02  9.56897E+02  2.16563E+02  9.89531E+02
 -1.12716E+02  8.18176E+02  1.61037E+02  2.55358E+02  1.06134E+02  1.38612E+02 -1.40419E+03  7.22926E+02
 -8.70425E+02  1.34838E+03 -1.39352E+03  6.51416E+02 -1.31416E+03  1.81875E+02 -2.06108E+03 -5.08826E+02
 -4.82814E+02 -1.66485E+03  6.05191E+02 -2.33139E+03  7.39709E+02 -1.88947E+03  2.16191E+03 -7.02765E+02
  1.61312E+03 -1.30594E+01  1.13432E+03  7.19061E+02 -5.82946E+02 -4.57373E+01 -9.41251E+02  1.10827E+03
 -1.45984E+03  8.69744E+02 -2.59593E+02  3.77011E+02 -5.47813E+02  2.60825E+02 -1.05710E+03  6.87601E+01
 -1.62630E+03 -1.41129E+02 -6.49923E+02  5.27956E+02 -3.31321E+02  1.68165E+02 -9.29571E+01 -1.08591E+03
  6.60460E+02 -6.26068E+02 -3.67434E+02 -4.53900E+02  1.23438E+02  4.76772E+02 -4.29335E+02  1.19164E+03
 -8.79245E+02  1.35277E+03 -1.04015E+03  8.28312E+02 -1.09675E+03 -1.07542E+02 -7.26159E+02 -9.24967E+02
 -8.49945E+02 -4.99564E+02 -2.61550E+02 -1.23377E+03  6.03248E+02  8.34395E+01  1.44128E+02  4.14353E+02
  2.66186E+02  5.84957E+02  4.38877E+02  1.40185E+02 -1.59098E+02  1.23911E+01  4.47441E+01 -1.20880E+02
  2.03147E+01  8.74545E+02 -6.78682E+01  3.89141E+02  3.94598E+02  2.54340E+02 -2.86245E+02  1.11303E+02
  2.04893E+02  4.31359E+02  7.37085E+01 -1.17439E+01 -4.07213E+02 -1.82852E+02  4.92906E+01 -5.54113E+02
  2.02698E+02 -5.04603E+02  2.45579E+02 -3.13982E+02  4.03463E+02 -4.12097E+02  3.09347E+02  4.08117E+02
  8.86711E+02  4.62363E+02 -1.07513E+02  2.12165E+02 -1.03944E+03  1.28623E+02 -3.82020E+02 -4.72209E+01
  1.79016E+02  6.10730E+02 -5.49074E+02  2.67312E+02 -4.64752E+02  2.03335E+02 -6.03876E+02 -3.84659E+02
 -1.18915E+03  9.63945E+02  7.33785E+01 -7.67371E+02  9.36042E+00 -1.34797E+03  3.73034E+02 -2.03407E+02
  4.20054E+02  2.37965E+02 -1.12369E+03 -8.50384E+01 -7.60744E+02  3.53551E+02 -2.34682E+02  6.52433E+02
