 $NMID ID='MM_0lb_SNR400_10hz_g45_81.RAW', FMTDAT='(8E13.5)'
 TRAMP=1., VOLUME=1. $END
  3.09807E+05  1.13474E+03  3.37957E+05  2.51094E+05  8.44653E+04  3.38961E+05 -1.32168E+05  2.52842E+05
 -1.90579E+05  8.38143E+04 -1.11584E+05 -3.31654E+04  1.30868E+03 -5.05224E+04  5.39664E+04  8.35307E+02
  3.55575E+04  5.26248E+04 -1.73676E+04  7.58282E+04 -6.17630E+04  6.43039E+04 -8.42135E+04  3.26607E+04
 -8.22696E+04 -1.20624E+04 -5.82763E+04 -5.26304E+04 -1.55722E+04 -7.04857E+04  2.82244E+04 -4.68509E+04
  4.06857E+04  3.10118E+03  1.72216E+04  4.78293E+04 -3.52756E+04  4.79945E+04 -6.72197E+04  7.63012E+01
 -5.46949E+04 -5.73398E+04 -7.06235E+03 -7.88972E+04  3.43158E+04 -5.59589E+04  4.86639E+04 -1.86304E+04
  4.52671E+04  1.13305E+04  3.29464E+04  2.71100E+04  1.59727E+04  3.03234E+04 -6.56414E+03  2.75492E+04
 -2.22152E+04  1.17264E+04 -1.77848E+04 -5.62918E+03  7.32151E+03 -6.55135E+03  2.25739E+04  1.37655E+04
  7.64684E+03  3.64238E+04 -3.37154E+04  3.57866E+04 -6.50534E+04  1.53083E+03 -5.81090E+04 -4.37798E+04
 -1.30236E+04 -6.52209E+04  4.04282E+04 -4.75071E+04  6.04237E+04 -2.79327E+03  3.59423E+04  3.40656E+04
 -5.67761E+03  3.78942E+04 -3.11453E+04  1.85199E+04 -3.26409E+04 -3.79790E+03 -1.83220E+04 -1.18256E+04
 -8.67806E+03 -1.41761E+04 -4.66773E+02 -1.89892E+04  8.27886E+03 -2.24616E+04  1.61357E+04 -1.22218E+04
  1.12385E+04  6.01828E+03 -1.01239E+04  1.29251E+04 -2.25997E+04 -5.94035E+03 -8.52478E+03 -3.60387E+04
  2.44686E+04 -4.56627E+04  5.05416E+04 -2.03398E+04  4.71367E+04  2.06617E+04  1.66237E+04  4.60513E+04
 -1.58111E+04  3.55508E+04 -2.69897E+04  2.25025E+03 -1.07340E+04 -2.88553E+04  2.14653E+04 -3.53858E+04
  4.38198E+04 -1.03062E+04  3.84346E+04  2.38302E+04  1.94195E+04  4.94512E+04 -8.39331E+03  5.37398E+04
 -3.43729E+04  3.65398E+04 -4.57134E+04  1.08715E+04 -4.60411E+04 -1.72651E+04 -2.51989E+04 -4.12869E+04
  7.71360E+03 -4.07899E+04  3.34675E+04 -1.63393E+04  3.11991E+04  1.05533E+04  4.26642E+03  1.98218E+04
 -1.44382E+04  9.36476E+03 -1.13651E+04 -8.01723E+03  6.15747E+03 -1.16858E+04  1.85875E+04  5.56956E+03
  1.43183E+04  2.28952E+04 -5.60100E+03  2.59035E+04 -2.34082E+04  1.32735E+04 -3.01197E+04 -4.11094E+03
 -2.37018E+04 -1.77202E+04 -1.09855E+04 -2.36534E+04  4.22575E+03 -2.35140E+04  1.84140E+04 -2.20276E+04
  3.02972E+04 -1.42743E+04  3.66928E+04  4.31321E+03  2.57714E+04  2.25100E+04  4.59574E+03  4.04235E+04
 -1.93918E+04  3.35639E+04 -2.98296E+04  1.09767E+04 -2.20978E+04 -1.02496E+04 -4.42670E+03 -1.23561E+04
  8.52515E+02 -2.25449E+03 -6.85726E+03  7.47225E+03 -1.83710E+04  5.17028E+03 -1.85628E+04 -8.65417E+03
 -1.16757E+04 -2.25589E+04  5.95724E+03 -2.59893E+04  1.74637E+04 -1.87803E+04  2.18430E+04 -1.75297E+03
  1.38252E+04  1.53229E+04 -7.84566E+02  2.24904E+04 -1.61376E+04  1.26305E+04 -2.29026E+04 -4.68766E+03
 -1.49221E+04 -1.98371E+04 -2.48496E+03 -2.65227E+04  1.22195E+04 -2.17165E+04  2.32661E+04 -1.12168E+04
  2.00633E+04 -2.79137E+01  1.56761E+04  4.46062E+03  8.54225E+03  1.55783E+03  1.16739E+04 -1.87144E+03
  2.05200E+04  2.19993E+03  2.38112E+04  1.76402E+04  1.56069E+04  3.58643E+04 -2.61241E+03  4.04954E+04
 -2.40391E+04  3.46735E+04 -3.85562E+04  1.76158E+04 -4.13145E+04 -3.04412E+03 -3.39091E+04 -2.46089E+04
 -1.44586E+04 -3.38805E+04  1.23967E+04 -3.01183E+04  2.50497E+04 -1.45095E+04  2.30059E+04  6.76096E+03
  7.83515E+03  1.73791E+04 -1.00834E+04  1.40457E+04 -1.91320E+04  2.63121E+03 -1.44652E+04 -1.21371E+04
  1.65445E+01 -1.84221E+04  9.88272E+03 -1.29333E+04  1.20610E+04 -9.35360E+01  2.72585E+03  8.07002E+03
 -8.41173E+03  3.98417E+03 -8.66534E+03 -6.02342E+03 -1.50108E+03 -1.63328E+04  1.13093E+04 -1.89647E+04
  2.08344E+04 -1.07173E+04  2.31359E+04  2.99802E+03  2.08539E+04  1.74930E+04  9.26377E+03  2.60660E+04
 -4.44768E+03  2.81010E+04 -1.86355E+04  1.75543E+04 -2.06330E+04  3.58814E+03 -1.44075E+04 -5.05225E+03
 -6.12992E+03 -6.51422E+03 -3.98977E+02  5.54570E+02 -2.53306E+03  3.72856E+03 -7.33241E+03  5.03292E+03
 -1.28276E+04 -1.70717E+03 -1.37804E+04 -1.13877E+04 -5.40282E+03 -1.78431E+04  5.77212E+03 -1.43921E+04
  1.17503E+04 -5.81887E+03  8.36129E+03  4.08100E+03 -1.03698E+03  5.86834E+03 -7.04351E+03 -2.54596E+02
 -6.96417E+03 -9.82973E+03 -1.05393E+03 -1.40445E+04  7.92906E+03 -1.41940E+04  1.85431E+04 -7.88518E+03
  2.08813E+04  2.11621E+03  1.55378E+04  1.25230E+04  3.20173E+03  1.69870E+04 -9.40419E+03  1.39375E+04
 -1.13927E+04  4.12671E+03 -5.88568E+03 -3.12601E+03  2.09966E+03 -3.53520E+03  7.90522E+03 -1.33573E+03
  6.45377E+03  6.72437E+03  9.86394E+02  1.21083E+04 -7.54003E+03  1.02321E+04 -1.42576E+04  2.78333E+03
 -9.48292E+03 -7.24308E+03  1.05742E+02 -1.18457E+04  7.63224E+03 -6.23565E+03  8.74277E+03  2.56665E+03
  1.90511E+03  9.56944E+03 -6.97266E+03  9.86122E+03 -1.20935E+04  4.93388E+03 -1.22880E+04 -3.49014E+03
 -6.46529E+03 -1.41478E+04  3.09547E+03 -1.60033E+04  1.43224E+04 -9.69498E+03  1.47781E+04  2.45510E+03
  8.47452E+03  1.16676E+04 -1.33397E+03  1.41519E+04 -1.12275E+04  7.40198E+03 -1.16144E+04 -1.21652E+03
 -1.00682E+04 -9.71628E+03 -1.82301E+03 -1.02002E+04  5.82891E+03 -8.44744E+03  6.49215E+03 -4.27742E+03
  4.41847E+03  2.50170E+03  2.10590E+02  1.42105E+03  1.69047E+02 -2.91425E+03  2.69758E+03 -5.86510E+03
  9.73480E+03 -4.25495E+03  1.45422E+04  9.70862E+02  1.39528E+04  9.85614E+03  9.60280E+03  1.86457E+04
 -3.89034E+03  2.12234E+04 -1.79134E+04  1.56859E+04 -2.29373E+04  3.42399E+03 -1.81347E+04 -8.31169E+03
 -9.05673E+03 -1.52024E+04 -3.08517E+02 -1.24822E+04  4.97909E+03 -6.89969E+03  4.17948E+03 -4.21434E+03
  3.41263E+03 -3.07050E+03  3.47397E+03 -3.92385E+03  5.07366E+03 -3.39309E+03  6.95009E+03 -1.27764E+03
  9.38099E+03  2.46758E+03  5.91827E+03  7.41516E+03 -1.47352E+03  1.05495E+04 -9.15217E+03  7.78728E+03
 -1.28611E+04 -1.97532E+03 -8.53741E+03 -9.29406E+03 -1.06765E+03 -1.35640E+04  7.35297E+03 -1.47510E+04
  1.47638E+04 -8.21335E+03  1.70863E+04  1.71184E+03  1.23090E+04  1.16333E+04  2.83835E+03  1.65215E+04
 -6.24484E+03  1.27379E+04 -9.51564E+03  4.20785E+03 -6.29538E+03 -1.06021E+03 -2.35693E+03 -2.48026E+03
 -1.55594E+03 -5.28945E+01 -1.64144E+03  3.03444E+03 -5.82521E+03  2.69680E+03 -9.18239E+03 -1.49038E+03
 -6.86497E+03 -8.84420E+03 -1.62207E+02 -1.20400E+04  7.66940E+03 -1.08020E+04  1.24828E+04 -3.24336E+03
  1.26377E+04  5.83369E+03  5.50075E+03  1.19742E+04 -2.05145E+03  1.28374E+04 -9.29683E+03  8.10648E+03
 -1.17859E+04  6.76236E+02 -8.89739E+03 -7.47420E+03 -8.10748E+02 -1.09584E+04  5.86164E+03 -7.65685E+03
  8.18894E+03 -1.86408E+03  5.17074E+03  2.39758E+03  2.72335E+03  4.19215E+03  6.97320E+02  1.04571E+03
  2.46861E+03  8.19005E+02  3.31296E+03  1.29123E+03  3.27339E+03  5.30991E+03  3.57058E+03  6.78332E+03
 -3.38833E+03  9.83813E+03 -9.02737E+03  1.04241E+04 -1.26182E+04  3.14428E+03 -1.42212E+04 -4.96467E+03
 -6.43862E+03 -1.30954E+04  1.26433E+03 -1.41760E+04  8.21666E+03 -9.15415E+03  1.09097E+04 -2.27782E+03
  8.51316E+03  5.18377E+03  1.18886E+03  7.36966E+03 -3.84521E+03  4.41823E+03 -5.06329E+03 -6.40219E+02
 -2.45300E+03 -4.92598E+03  2.19724E+03 -5.60718E+03  4.60816E+03 -3.36072E+03  5.10104E+03  1.27335E+03
  2.89910E+03  2.57947E+03  1.14929E+03  2.21313E+03 -8.10821E+02  1.77914E+03  1.96242E+03 -1.16213E+03
  1.54585E+03 -6.09516E+02  6.49473E+03  1.76913E+03  2.95079E+03  6.89819E+03 -1.35417E+03  8.94356E+03
 -5.55452E+03  6.23500E+03 -8.14828E+03  1.61465E+03 -6.96142E+03 -2.71709E+03 -2.41099E+03 -4.34674E+03
  1.04686E+03 -4.33241E+03  3.37685E+03 -1.76577E+03  2.88086E+03  2.48748E+03 -1.58640E+03  3.88719E+03
 -5.42504E+03  3.28897E+03 -6.31393E+03 -3.49308E+03 -2.60382E+03 -7.45996E+03  4.10848E+02 -7.04728E+03
  4.60897E+03 -4.80476E+03  5.04160E+03  3.43504E+01  3.75754E+03  1.47202E+03 -1.45011E+02  3.75693E+03
 -3.18149E+03  1.32327E+03 -3.54936E+03 -1.82174E+03  1.16603E+03 -5.66587E+03  6.23327E+03 -4.57582E+03
  7.65463E+03 -3.80435E+02  7.72811E+03  5.58632E+03  2.09847E+03  8.02935E+03 -2.99580E+03  7.74973E+03
 -6.52811E+03  3.10668E+03 -7.42253E+03 -5.69223E+02 -3.91527E+03 -5.54988E+03  1.66447E+03 -4.51389E+03
  5.23386E+03 -1.66450E+03  4.30363E+03  2.00002E+03  1.34149E+03  4.47662E+03 -1.52101E+02  3.21416E+03
 -3.39153E+03  2.80804E+03 -1.06970E+03  9.23072E+02 -3.26994E+02  9.53405E+02 -1.90112E+03  1.25541E+03
 -1.89348E+03  3.19251E+03 -5.90191E+03  2.72425E+03 -8.07539E+03  3.37491E+02 -9.34593E+03 -4.50102E+03
 -4.76363E+03 -1.14823E+04  1.17441E+03 -1.29352E+04  7.89803E+03 -1.04245E+04  1.18002E+04 -3.19242E+03
  1.09227E+04  1.92786E+03  6.38246E+03  7.48586E+03  4.96070E+02  8.55172E+03 -3.83327E+03  6.23650E+03
 -5.56165E+03  2.41725E+03 -2.99623E+03 -1.27541E+03 -6.99038E+02 -1.08652E+03 -9.62894E+02  1.59381E+02
 -1.71951E+03  2.65708E+02 -2.05820E+03 -6.74753E+01 -4.96694E+02 -1.78470E+03  2.35606E+02 -3.45884E+03
  4.46976E+03 -3.04595E+03  5.26744E+03  8.92611E+01  6.71219E+03  4.64915E+03  1.27492E+03  8.62953E+03
 -3.55541E+03  9.23337E+03 -9.53702E+03  5.74056E+03 -1.03977E+04 -9.37754E+02 -7.97666E+03 -6.18952E+03
 -2.85203E+03 -8.77531E+03  2.33775E+03 -7.08624E+03  5.32993E+03 -4.15585E+03  4.92829E+03 -5.29682E+02
  3.47835E+03  2.75396E+03 -9.94750E+02  2.59499E+03 -1.38960E+03 -1.42453E+02 -2.46771E+02 -2.21978E+03
  2.74767E+03 -7.17047E+02  3.11622E+03  6.46686E+02  2.01361E+03  3.45281E+03  9.43840E+02  4.26790E+03
 -3.82688E+03  3.52204E+03 -5.28209E+03 -9.56499E+01 -4.28921E+03 -4.19363E+03 -7.79079E+02 -7.28596E+03
  3.66401E+03 -6.01135E+03  6.26471E+03 -1.32515E+03  6.77688E+03  8.21274E+02  3.33718E+03  5.77316E+03
  4.75944E+02  4.70899E+03 -2.28536E+03  4.43584E+03 -3.61122E+03  2.96038E+03 -2.32911E+03  6.19055E+02
 -1.27493E+03 -2.28086E+02 -1.85737E+03  1.29915E+03 -2.11064E+03  7.06399E+02 -4.21936E+03 -9.37564E+02
 -3.84796E+03 -3.38962E+03 -1.45607E+03 -5.02263E+03  2.51789E+03 -6.17912E+03  4.41344E+03 -3.34265E+03
  5.43880E+03  3.27881E+02  2.90587E+03  3.98639E+03 -7.33265E+02  5.72187E+03 -4.16245E+03  3.93969E+03
