 $NMID ID='MM_0lb_SNR400_11hz_g40_11.RAW', FMTDAT='(8E13.5)'
 TRAMP=1., VOLUME=1. $END
  3.09984E+05  7.67328E+01  3.37614E+05  2.50577E+05  8.43723E+04  3.37771E+05 -1.32275E+05  2.51291E+05
 -1.90056E+05  8.36932E+04 -1.11423E+05 -3.30961E+04  6.43678E+02 -5.10968E+04  5.38152E+04  1.20237E+02
  3.59007E+04  5.35507E+04 -1.67519E+04  7.64116E+04 -6.10717E+04  6.41957E+04 -8.46350E+04  3.26221E+04
 -8.15963E+04 -1.18721E+04 -5.79912E+04 -5.14526E+04 -1.47538E+04 -7.06041E+04  2.73313E+04 -4.63833E+04
  4.01225E+04  3.56140E+03  1.61987E+04  4.76771E+04 -3.45460E+04  4.69738E+04 -6.67844E+04  4.50068E+02
 -5.37304E+04 -5.71759E+04 -6.69748E+03 -7.71017E+04  3.43903E+04 -5.51314E+04  4.93601E+04 -1.77755E+04
  4.46683E+04  1.07341E+04  3.24999E+04  2.62453E+04  1.56207E+04  3.04437E+04 -6.16959E+03  2.71631E+04
 -2.21016E+04  1.18666E+04 -1.85179E+04 -5.48202E+03  6.04394E+03 -7.47728E+03  2.29091E+04  1.29026E+04
  7.32867E+03  3.60416E+04 -3.20759E+04  3.64228E+04 -6.42989E+04  2.60636E+03 -5.79503E+04 -4.44906E+04
 -1.29037E+04 -6.38314E+04  4.10475E+04 -4.55454E+04  5.88404E+04 -2.86231E+03  3.57574E+04  3.31882E+04
 -5.78048E+03  3.72029E+04 -3.07029E+04  1.68762E+04 -3.09120E+04 -4.21718E+03 -1.78775E+04 -1.16793E+04
 -9.03317E+03 -1.37188E+04 -8.17666E+02 -1.94749E+04  7.51636E+03 -2.32323E+04  1.58420E+04 -1.31754E+04
  1.06212E+04  5.65346E+03 -9.52035E+03  1.35575E+04 -2.17761E+04 -4.72698E+03 -8.21701E+03 -3.48038E+04
  2.27815E+04 -4.49712E+04  4.90051E+04 -2.02367E+04  4.63489E+04  2.00448E+04  1.69999E+04  4.60807E+04
 -1.61299E+04  3.49232E+04 -2.63274E+04  2.34468E+03 -1.00552E+04 -2.78361E+04  2.08569E+04 -3.58955E+04
  4.25619E+04 -9.72838E+03  3.76400E+04  2.51160E+04  1.93467E+04  4.79074E+04 -8.07202E+03  5.22626E+04
 -3.26909E+04  3.56738E+04 -4.41724E+04  1.00705E+04 -4.47984E+04 -1.82599E+04 -2.44580E+04 -3.92540E+04
  7.27329E+03 -3.93245E+04  3.26971E+04 -1.59066E+04  3.08974E+04  1.07282E+04  4.55108E+03  2.00559E+04
 -1.43182E+04  8.89222E+03 -1.07411E+04 -7.93952E+03  5.93285E+03 -1.17347E+04  1.82383E+04  5.99663E+03
  1.39257E+04  2.26672E+04 -5.82866E+03  2.59888E+04 -2.28547E+04  1.30881E+04 -2.95866E+04 -4.30520E+03
 -2.29418E+04 -1.75406E+04 -9.83435E+03 -2.24999E+04  4.71622E+03 -2.20632E+04  1.76178E+04 -1.97703E+04
  2.79114E+04 -1.36708E+04  3.40088E+04  3.61683E+03  2.49479E+04  2.06676E+04  4.14321E+03  3.83801E+04
 -1.84546E+04  3.19593E+04 -2.94790E+04  1.14796E+04 -2.19929E+04 -9.54617E+03 -4.67390E+03 -1.34522E+04
  1.88802E+03 -1.71537E+03 -6.38282E+03  7.59574E+03 -1.79318E+04  5.40866E+03 -1.88154E+04 -7.47428E+03
 -1.01403E+04 -2.10633E+04  5.50510E+03 -2.48246E+04  1.74511E+04 -1.79764E+04  2.02181E+04 -1.83151E+03
  1.36424E+04  1.42974E+04 -1.17316E+03  2.03645E+04 -1.41435E+04  1.16918E+04 -2.11574E+04 -4.36723E+03
 -1.47501E+04 -1.84243E+04 -1.79987E+03 -2.55567E+04  1.14823E+04 -2.10159E+04  2.05145E+04 -1.07407E+04
  1.94538E+04  4.52853E+01  1.36077E+04  5.12878E+03  6.87683E+03  1.56905E+03  1.04430E+04 -2.11931E+03
  1.95343E+04  2.29742E+03  2.17849E+04  1.66096E+04  1.48450E+04  3.42024E+04 -2.34880E+03  3.85477E+04
 -2.18376E+04  3.15319E+04 -3.56321E+04  1.56955E+04 -3.77858E+04 -3.03412E+03 -3.09862E+04 -2.16423E+04
 -1.32573E+04 -3.12889E+04  1.08357E+04 -2.83069E+04  2.50288E+04 -1.44356E+04  2.11218E+04  6.81547E+03
  7.62156E+03  1.64307E+04 -1.10993E+04  1.39097E+04 -1.79643E+04  2.44821E+03 -1.30150E+04 -1.13246E+04
 -1.44297E+02 -1.74536E+04  9.37686E+03 -1.25871E+04  1.11449E+04 -1.40656E+03  1.59883E+03  7.88072E+03
 -7.59354E+03  3.18270E+03 -7.01326E+03 -7.09260E+03 -6.19995E+02 -1.57750E+04  1.10786E+04 -1.68096E+04
  1.92321E+04 -9.31393E+03  2.18886E+04  2.75888E+03  1.94314E+04  1.57407E+04  9.50530E+03  2.40492E+04
 -3.78287E+03  2.59992E+04 -1.63325E+04  1.66069E+04 -1.84418E+04  3.82633E+03 -1.37621E+04 -4.72828E+03
 -6.65157E+03 -6.14437E+03 -7.88775E+02  6.98617E+02 -2.00364E+03  2.64953E+03 -5.87638E+03  4.58297E+03
 -1.21426E+04 -3.85385E+02 -1.29630E+04 -1.00390E+04 -5.48574E+03 -1.64794E+04  5.63162E+03 -1.29379E+04
  1.09541E+04 -6.43793E+03  7.70275E+03  3.33422E+03  3.33208E+02  5.63233E+03 -6.41040E+03 -8.27279E+02
 -6.33808E+03 -8.59369E+03 -1.45846E+03 -1.22304E+04  7.89402E+03 -1.31003E+04  1.62507E+04 -6.83831E+03
  1.91177E+04  1.34979E+03  1.45871E+04  1.12888E+04  2.89694E+03  1.55864E+04 -8.10617E+03  1.28126E+04
 -1.03634E+04  3.94245E+03 -5.90500E+03 -2.66619E+03  2.03821E+03 -3.50050E+03  6.59298E+03 -1.32013E+03
  5.98440E+03  6.00475E+03  1.05655E+03  1.11444E+04 -7.81640E+03  1.00218E+04 -1.30974E+04  2.75875E+03
 -8.52133E+03 -6.17387E+03  5.23944E+02 -1.11293E+04  7.41203E+03 -5.38639E+03  6.56789E+03  2.32367E+03
  1.69552E+03  7.84511E+03 -6.52517E+03  9.38199E+03 -1.07244E+04  4.72796E+03 -1.06827E+04 -2.95971E+03
 -5.71956E+03 -1.16685E+04  2.61189E+03 -1.40594E+04  1.20576E+04 -8.21447E+03  1.26928E+04  1.89424E+03
  7.91395E+03  1.06698E+04 -7.12657E+02  1.31731E+04 -1.02969E+04  6.88842E+03 -1.00347E+04 -1.12228E+03
 -9.15371E+03 -9.27928E+03 -1.38926E+03 -9.30384E+03  4.37559E+03 -8.03461E+03  5.58805E+03 -2.93191E+03
  3.48650E+03  1.58361E+03 -3.78726E+02  1.82030E+03  4.73691E+00 -2.08406E+03  1.57900E+03 -5.66627E+03
  8.66923E+03 -4.66847E+03  1.25929E+04  2.20799E+03  1.19667E+04  8.75136E+03  8.18413E+03  1.62409E+04
 -4.11788E+03  1.86178E+04 -1.54899E+04  1.42594E+04 -1.98718E+04  3.06587E+03 -1.62518E+04 -6.46062E+03
 -7.28301E+03 -1.26410E+04 -8.65824E+02 -1.11732E+04  4.29258E+03 -6.25898E+03  3.49955E+03 -4.13872E+03
  3.75005E+03 -2.44486E+03  3.74983E+03 -3.03374E+03  4.83425E+03 -3.05770E+03  6.48371E+03 -8.07941E+02
  8.21582E+03  1.88621E+03  4.37139E+03  6.49981E+03 -1.90177E+03  8.07933E+03 -8.85282E+03  6.64633E+03
 -1.11158E+04 -1.15185E+03 -6.64630E+03 -6.83543E+03 -9.36477E+02 -1.22514E+04  6.99675E+03 -1.25329E+04
  1.25533E+04 -6.78380E+03  1.43517E+04  1.92945E+03  9.88283E+03  1.00848E+04  1.60140E+03  1.32880E+04
 -5.17564E+03  1.07329E+04 -7.92361E+03  3.33252E+03 -5.67251E+03 -1.52750E+03 -1.21344E+03 -1.54710E+03
 -1.04430E+03 -4.79058E+02 -1.95524E+03  1.66062E+03 -4.62896E+03  1.33903E+03 -6.79295E+03 -2.02743E+03
 -5.20985E+03 -7.87419E+03  9.82422E+02 -1.11497E+04  7.10876E+03 -1.09589E+04  1.09061E+04 -2.62537E+03
  1.08346E+04  4.98910E+03  5.09225E+03  9.63603E+03 -1.66665E+03  1.15980E+04 -7.64138E+03  7.56770E+03
 -1.02668E+04  9.03328E+02 -7.55555E+03 -6.85605E+03 -2.52041E+02 -8.53920E+03  4.27033E+03 -7.05163E+03
  6.34686E+03 -3.30140E+03  4.97257E+03  1.80243E+03  1.75199E+03  3.67432E+03  1.26924E+03  9.91041E+02
  2.06809E+03  8.64214E+02  3.02865E+03  1.15678E+03  4.01116E+03  3.88132E+03  2.75698E+03  5.55425E+03
 -2.73564E+03  8.00337E+03 -7.64343E+03  9.00274E+03 -1.09553E+04  2.41986E+03 -1.09317E+04 -3.99757E+03
 -5.33463E+03 -1.10190E+04  1.31365E+03 -1.17133E+04  6.05179E+03 -7.11287E+03  9.02963E+03 -2.37121E+03
  7.10820E+03  4.11280E+03  1.37491E+03  6.48549E+03 -3.24045E+03  3.00077E+03 -4.17305E+03 -4.75393E+02
 -1.66982E+03 -4.89548E+03  1.78272E+03 -4.07222E+03  3.95958E+03 -1.68146E+03  3.99690E+03  1.21596E+03
  2.93727E+03  2.03260E+03  1.51135E+03  1.24741E+03 -8.14922E+01  1.57880E+03  1.84694E+03  1.67141E+02
  1.19840E+03 -4.45500E+02  4.72345E+03  1.70708E+03  2.07180E+03  5.47197E+03 -1.30016E+03  8.01321E+03
 -4.62865E+03  5.25985E+03 -6.41584E+03  1.00697E+03 -6.12312E+03 -1.77405E+03 -2.47446E+03 -3.76888E+03
  1.12922E+03 -4.86261E+03  3.31664E+03 -2.25388E+03  1.94654E+03  2.49202E+03 -9.27952E+02  4.25613E+03
 -4.24063E+03  1.80318E+03 -5.15399E+03 -3.91504E+03 -3.33146E+03 -6.60247E+03  2.35338E+02 -5.93430E+03
  3.03566E+03 -3.45170E+03  4.18775E+03 -4.38718E+02  3.62357E+03  7.58698E+02  1.30276E+03  2.56737E+03
 -2.23744E+03  6.45150E+02 -2.59696E+03 -1.88680E+03  1.44893E+03 -4.63798E+03  5.81507E+03 -3.18544E+03
  6.39585E+03  7.10288E+02  6.29888E+03  4.29232E+03  2.44385E+03  7.04731E+03 -2.49586E+03  6.70922E+03
 -5.75534E+03  3.11737E+03 -5.56685E+03 -1.11142E+03 -3.13122E+03 -4.45581E+03  7.29724E+02 -4.71433E+03
  4.86082E+03 -1.82889E+03  3.80392E+03  1.57144E+03  1.53714E+03  3.94916E+03 -8.82423E+02  3.25606E+03
 -7.95018E+02  1.96880E+03 -2.15212E+03  1.46076E+03  5.15534E+02  8.56735E+02 -1.73456E+03  9.79050E+02
 -1.85344E+03  2.49751E+03 -5.05447E+03  3.12537E+03 -6.92521E+03  3.19397E+02 -7.54436E+03 -4.78646E+03
 -4.21205E+03 -8.92077E+03  1.98659E+03 -1.05037E+04  6.27269E+03 -7.63979E+03  1.04453E+04 -3.09008E+03
  8.43213E+03  1.23249E+03  5.34241E+03  5.83387E+03 -1.11940E+02  6.44663E+03 -2.29226E+03  4.83404E+03
 -2.61113E+03  1.55537E+03 -2.19824E+03 -8.54097E+02 -9.51571E+02 -8.41739E+02 -4.79073E+02  5.75153E+02
 -1.55293E+03  1.50135E+02 -2.22966E+03 -2.87209E+01  3.87759E+02 -1.96622E+03  9.66140E+01 -2.54992E+03
  3.47069E+03 -2.31636E+03  3.76199E+03 -4.77478E+02  4.33887E+03  3.41580E+03  1.07800E+03  6.43441E+03
 -2.75291E+03  8.31307E+03 -7.25789E+03  5.07131E+03 -8.69028E+03 -2.92612E+02 -6.64706E+03 -5.07081E+03
 -2.84073E+03 -7.16076E+03  1.88562E+03 -6.52874E+03  4.69405E+03 -3.01386E+03  3.93396E+03  8.19255E+01
  2.87608E+03  2.49674E+03 -1.41340E+02  1.89129E+03 -1.79762E+03  9.56381E+01 -1.21122E+02 -1.85237E+03
  1.87619E+03 -7.59950E+02  2.11944E+03  1.02059E+03  1.68854E+03  2.71496E+03  2.73026E+02  3.31961E+03
 -2.89151E+03  3.08719E+03 -4.40108E+03 -1.87228E+01 -3.48745E+03 -3.50259E+03 -6.51354E+02 -5.93779E+03
  3.36467E+03 -4.67738E+03  4.35438E+03 -7.45624E+02  4.77820E+03  9.79066E+02  2.98342E+03  3.73124E+03
  8.32203E+02  3.92757E+03 -1.31701E+03  3.43531E+03 -3.08676E+03  1.63969E+03 -2.28311E+03  2.57739E+02
 -2.10903E+03  9.16568E+01 -1.03887E+03  5.15881E+02 -2.92632E+03  3.98009E+02 -3.64989E+03 -1.00734E+02
 -3.12119E+03 -2.29627E+03 -1.40481E+03 -5.29348E+03  2.22859E+03 -3.94197E+03  4.16366E+03 -2.68122E+03
  4.93140E+03  8.76223E+02  2.25110E+03  3.08904E+03 -1.85022E+02  4.48335E+03 -3.30055E+03  2.81764E+03
