 $NMID ID='MM_0lb_SNR400_7hz_g50_17.RAW', FMTDAT='(8E13.5)'
 TRAMP=1., VOLUME=1. $END
  3.09191E+05  2.89012E+02  3.38012E+05  2.51111E+05  8.43230E+04  3.39267E+05 -1.32762E+05  2.51552E+05
 -1.90996E+05  8.43237E+04 -1.13480E+05 -3.20964E+04  7.66291E+02 -4.98554E+04  5.34612E+04 -2.77043E+02
  3.54862E+04  5.27017E+04 -1.67625E+04  7.71506E+04 -6.19831E+04  6.47911E+04 -8.57609E+04  3.29974E+04
 -8.29066E+04 -1.16311E+04 -5.82918E+04 -5.26427E+04 -1.40406E+04 -7.18990E+04  2.87503E+04 -4.72395E+04
  4.07328E+04  2.90992E+03  1.69208E+04  4.94140E+04 -3.52690E+04  4.91458E+04 -6.85342E+04  9.03013E+01
 -5.62449E+04 -5.72570E+04 -8.78209E+03 -7.94375E+04  3.45712E+04 -5.76783E+04  5.12246E+04 -1.87139E+04
  4.56458E+04  1.13505E+04  3.39927E+04  2.68511E+04  1.59109E+04  3.13933E+04 -5.82107E+03  2.75033E+04
 -2.24473E+04  1.15622E+04 -1.77744E+04 -5.99497E+03  7.46739E+03 -7.33063E+03  2.29100E+04  1.39499E+04
  7.19260E+03  3.80925E+04 -3.46799E+04  3.67907E+04 -6.70674E+04  1.53011E+03 -5.92096E+04 -4.60112E+04
 -1.25158E+04 -6.65477E+04  4.18547E+04 -4.81144E+04  6.29826E+04 -3.54361E+03  3.77402E+04  3.44017E+04
 -5.89585E+03  4.06922E+04 -3.27326E+04  1.94420E+04 -3.42986E+04 -2.29173E+03 -2.03253E+04 -1.20136E+04
 -9.48602E+03 -1.55905E+04 -5.05108E+02 -2.02714E+04  8.08344E+03 -2.32385E+04  1.50835E+04 -1.17474E+04
  1.05307E+04  7.40843E+03 -1.18183E+04  1.36241E+04 -2.35776E+04 -7.71999E+03 -9.32609E+03 -3.89106E+04
  2.66508E+04 -4.84579E+04  5.30769E+04 -2.16026E+04  5.00885E+04  2.14795E+04  1.85062E+04  4.94895E+04
 -1.76377E+04  3.69931E+04 -2.77812E+04  2.41546E+03 -1.24069E+04 -2.95045E+04  2.22883E+04 -3.88129E+04
  4.50678E+04 -1.16513E+04  4.31000E+04  2.51279E+04  2.37991E+04  5.28151E+04 -8.14157E+03  5.87008E+04
 -3.75751E+04  4.03396E+04 -4.95359E+04  1.22584E+04 -4.99212E+04 -1.90253E+04 -2.72472E+04 -4.30085E+04
  7.81986E+03 -4.36302E+04  3.57828E+04 -1.91828E+04  3.34033E+04  1.08612E+04  6.11186E+03  2.07076E+04
 -1.41399E+04  1.01155E+04 -1.08891E+04 -7.31923E+03  6.07064E+03 -1.14259E+04  2.02639E+04  5.58926E+03
  1.53442E+04  2.31780E+04 -4.43116E+03  2.84388E+04 -2.32091E+04  1.54395E+04 -3.28086E+04 -2.47610E+03
 -2.81763E+04 -1.91392E+04 -1.31549E+04 -2.71989E+04  5.61352E+03 -2.84014E+04  2.18887E+04 -2.42930E+04
  3.42267E+04 -1.45556E+04  3.99292E+04  5.57284E+03  2.81678E+04  2.59701E+04  3.72757E+03  4.27148E+04
 -2.08595E+04  3.49915E+04 -3.24239E+04  1.16601E+04 -2.27900E+04 -1.01575E+04 -5.44268E+03 -1.30283E+04
  1.33103E+01 -2.06606E+01 -8.27786E+03  9.12003E+03 -2.16664E+04  4.38519E+03 -2.22587E+04 -1.01406E+04
 -1.21095E+04 -2.50564E+04  6.38291E+03 -3.00844E+04  2.04339E+04 -2.16909E+04  2.46499E+04 -2.03435E+03
  1.66388E+04  1.69549E+04 -1.93071E+03  2.61623E+04 -1.72457E+04  1.49028E+04 -2.53257E+04 -4.43622E+03
 -1.89538E+04 -2.21766E+04 -2.51295E+03 -3.00240E+04  1.33454E+04 -2.63915E+04  2.64056E+04 -1.36350E+04
  2.45041E+04 -6.94959E+02  1.71237E+04  5.17421E+03  9.70674E+03  2.26754E+03  1.24210E+04 -2.71393E+03
  2.42113E+04  3.31877E+03  2.81523E+04  1.90331E+04  1.96884E+04  4.09814E+04 -2.25286E+03  4.83439E+04
 -2.85093E+04  4.18085E+04 -4.63971E+04  2.17114E+04 -5.07996E+04 -3.38328E+03 -4.02098E+04 -2.89049E+04
 -1.57770E+04 -4.20586E+04  1.46780E+04 -3.63501E+04  3.22975E+04 -1.61784E+04  2.54116E+04  9.12511E+03
  8.60707E+03  2.02217E+04 -1.30831E+04  1.66520E+04 -2.23072E+04  2.34216E+03 -1.63374E+04 -1.43227E+04
 -5.48227E+02 -2.14414E+04  1.13711E+04 -1.55443E+04  1.43806E+04 -1.33359E+03  2.95143E+03  1.01581E+04
 -8.91708E+03  4.87950E+03 -1.10172E+04 -7.86012E+03 -2.92854E+03 -2.00259E+04  1.30585E+04 -2.23157E+04
  2.60124E+04 -1.35129E+04  2.97919E+04  2.86452E+03  2.69841E+04  2.08109E+04  1.27079E+04  3.35845E+04
 -7.22756E+03  3.53058E+04 -2.29462E+04  2.18113E+04 -2.50385E+04  5.29174E+03 -1.70311E+04 -6.58261E+03
 -6.96698E+03 -7.34976E+03 -2.93536E+02  8.43356E+02 -2.83822E+03  4.30317E+03 -8.52510E+03  5.89816E+03
 -1.67499E+04 -1.98365E+03 -1.55719E+04 -1.21397E+04 -5.65160E+03 -2.11805E+04  7.84424E+03 -1.74413E+04
  1.48965E+04 -7.24215E+03  9.88588E+03  4.61205E+03 -9.01044E+02  6.60896E+03 -9.05149E+03  4.99549E+01
 -9.01038E+03 -1.16484E+04 -1.88242E+03 -1.80789E+04  1.01769E+04 -1.93113E+04  2.18367E+04 -1.10652E+04
  2.72239E+04  2.74127E+03  1.90984E+04  1.67617E+04  4.17992E+03  2.24599E+04 -1.17391E+04  1.78160E+04
 -1.47103E+04  5.06737E+03 -7.54875E+03 -4.32094E+03  1.59301E+03 -5.29773E+03  9.20426E+03 -8.78057E+02
  8.61237E+03  7.96819E+03  9.52585E+02  1.55993E+04 -1.13287E+04  1.37566E+04 -1.84483E+04  3.75756E+03
 -1.24061E+04 -9.85118E+03  2.62883E+02 -1.47153E+04  1.01525E+04 -7.38549E+03  1.08312E+04  3.88968E+03
  3.07200E+03  1.25394E+04 -9.99882E+03  1.36005E+04 -1.61312E+04  7.07684E+03 -1.64150E+04 -6.22894E+03
 -1.05424E+04 -1.87687E+04  4.90117E+03 -2.15282E+04  1.80667E+04 -1.32195E+04  1.96370E+04  3.50335E+03
  1.24984E+04  1.57944E+04 -2.04761E+03  1.77394E+04 -1.37112E+04  1.07640E+04 -1.50693E+04 -1.95260E+03
 -1.23265E+04 -1.24324E+04 -1.56650E+03 -1.48120E+04  6.81672E+03 -1.08892E+04  9.04492E+03 -3.46799E+03
  5.70816E+03  3.11699E+03 -1.91316E+03  2.09417E+03 -1.78430E+03 -5.32699E+03  2.27128E+03 -9.01613E+03
  1.39919E+04 -5.82805E+03  1.97209E+04  1.93539E+03  1.86906E+04  1.37590E+04  1.23657E+04  2.63024E+04
 -5.82791E+03  2.92860E+04 -2.36561E+04  2.17329E+04 -3.07654E+04  4.70128E+03 -2.56372E+04 -1.14629E+04
 -1.19621E+04 -2.01387E+04 -4.49719E+02 -1.79819E+04  6.88096E+03 -1.09365E+04  6.60083E+03 -5.76459E+03
  4.49311E+03 -3.51249E+03  3.87105E+03 -4.20180E+03  6.58404E+03 -5.57620E+03  9.26709E+03 -2.11806E+03
  1.29639E+04  2.64701E+03  7.62602E+03  1.18843E+04 -2.34680E+03  1.41577E+04 -1.42043E+04  1.09467E+04
 -1.83340E+04 -1.62650E+03 -1.13507E+04 -1.27347E+04 -2.32862E+03 -1.96037E+04  1.06530E+04 -1.96443E+04
  1.95249E+04 -1.09983E+04  2.39563E+04  3.04999E+03  1.65971E+04  1.71666E+04  1.86043E+03  2.17812E+04
 -9.22413E+03  1.75860E+04 -1.21240E+04  5.64595E+03 -9.57040E+03 -2.66792E+03 -5.15822E+03 -2.70738E+03
 -2.19742E+03  3.17844E+01 -2.34213E+03  3.00743E+03 -6.97056E+03  3.20760E+03 -1.14484E+04 -1.44793E+03
 -9.43507E+03 -1.23141E+04 -5.45348E+02 -1.78913E+04  1.11746E+04 -1.72782E+04  1.89330E+04 -5.66974E+03
  1.86314E+04  9.04388E+03  9.28223E+03  1.55883E+04 -3.92961E+03  1.79690E+04 -1.39946E+04  1.21435E+04
 -1.62163E+04  6.57815E+02 -1.24892E+04 -1.21195E+04 -1.45632E+03 -1.45871E+04  8.33194E+03 -1.18501E+04
  1.13904E+04 -2.76210E+03  7.82485E+03  2.21736E+03  2.39601E+03  5.80903E+03  1.26575E+03  2.02785E+03
  2.95468E+03  1.10850E+03  5.47545E+03  1.88085E+03  5.84160E+03  6.74220E+03  4.08311E+03  9.54316E+03
 -3.67559E+03  1.44586E+04 -1.34643E+04  1.45879E+04 -1.98769E+04  3.71298E+03 -1.96435E+04 -8.87884E+03
 -1.00770E+04 -2.05554E+04  2.75250E+03 -2.14965E+04  1.09497E+04 -1.31298E+04  1.49836E+04 -2.53792E+03
  1.22984E+04  6.50846E+03  3.07880E+03  1.07627E+04 -5.35970E+03  6.77176E+03 -8.05084E+03 -1.33535E+03
 -3.62797E+03 -8.51413E+03  4.72843E+03 -8.53309E+03  8.49442E+03 -4.02460E+03  6.94576E+03  2.10226E+03
  4.34782E+03  4.15554E+03  2.14675E+03  3.59983E+03 -7.64997E+02  2.62982E+03  6.85715E+02 -9.12737E+02
  4.23310E+03 -1.09100E+03  8.72030E+03  2.59507E+03  4.82690E+03  9.91162E+03 -1.47252E+03  1.45216E+04
 -9.44112E+03  1.01576E+04 -1.29409E+04  2.15938E+03 -1.11788E+04 -3.99943E+03 -4.29922E+03 -7.86129E+03
  1.20755E+03 -7.63184E+03  5.61248E+03 -4.19496E+03  4.68258E+03  3.39656E+03 -1.38644E+03  7.00828E+03
 -7.89669E+03  4.78518E+03 -9.45836E+03 -4.51016E+03 -5.12994E+03 -1.11320E+04  1.99172E+03 -1.11466E+04
  6.24928E+03 -8.05954E+03  8.29741E+03 -5.99989E+02  6.80796E+03  3.11088E+03  1.37041E+03  6.25603E+03
 -4.48662E+03  2.06639E+03 -5.35714E+03 -3.16151E+03  2.17131E+03 -9.10280E+03  8.96963E+03 -7.41702E+03
  1.25279E+04  1.04284E+03  1.27801E+04  8.63189E+03  3.75103E+03  1.38403E+04 -4.12794E+03  1.32456E+04
 -1.09855E+04  5.82846E+03 -1.08968E+04 -1.52343E+03 -5.87142E+03 -9.13856E+03  2.16342E+03 -9.29987E+03
  8.33817E+03 -3.93963E+03  7.94720E+03  4.67680E+03  1.54332E+03  7.76478E+03 -2.09383E+03  6.74399E+03
 -3.80291E+03  3.32332E+03 -2.33584E+03  1.01370E+03 -1.78445E+03  1.39891E+03 -3.02639E+03  3.51034E+03
 -4.12515E+03  4.94936E+03 -9.30595E+03  4.37998E+03 -1.39975E+04 -3.76787E+02 -1.56481E+04 -9.28300E+03
 -8.51602E+03 -1.87013E+04  3.68125E+03 -2.12392E+04  1.29818E+04 -1.59506E+04  1.94446E+04 -6.62645E+03
  1.80745E+04  3.50222E+03  1.15410E+04  1.24234E+04  5.68359E+02  1.48482E+04 -6.10000E+03  1.15483E+04
 -8.33756E+03  4.40275E+03 -5.76544E+03 -1.51163E+03 -1.71796E+03 -1.58039E+03 -7.08183E+02 -4.16712E+02
 -1.73851E+03  5.63460E+02 -2.76449E+03 -1.39053E+03 -1.10134E+03 -4.17802E+03  1.66408E+03 -4.96663E+03
  6.12457E+03 -3.67434E+03  9.44011E+03 -9.82904E+02  1.08279E+04  7.80783E+03  3.33804E+03  1.52959E+04
 -6.87048E+03  1.67396E+04 -1.62821E+04  1.02721E+04 -1.77201E+04 -6.64431E+02 -1.36592E+04 -9.75845E+03
 -5.01529E+03 -1.54346E+04  4.23216E+03 -1.41405E+04  9.21751E+03 -8.56216E+03  9.22498E+03  7.77722E+01
  3.86558E+03  5.48460E+03 -1.70357E+02  4.12779E+03 -3.28114E+03 -1.43520E+02  6.44207E+02 -4.01431E+03
  5.52262E+03 -2.41987E+03  6.32346E+03  2.18213E+03  3.93943E+03  5.92510E+03 -6.00365E+02  7.62440E+03
 -7.14036E+03  7.80861E+03 -1.07727E+04  1.83440E+02 -9.54834E+03 -7.33203E+03 -1.34517E+03 -1.30021E+04
  7.08255E+03 -1.07847E+04  1.15481E+04 -3.46182E+03  1.19883E+04  3.24638E+03  6.49666E+03  9.87303E+03
  1.63410E+03  9.74069E+03 -4.18102E+03  7.51331E+03 -6.52394E+03  3.99293E+03 -5.24592E+03  7.90937E+02
 -2.22612E+03 -9.05921E+02 -3.30450E+03  8.85278E+02 -4.92735E+03  8.67113E+02 -7.96274E+03 -1.86691E+03
 -7.37861E+03 -5.87392E+03 -2.75695E+03 -9.89749E+03  4.45424E+03 -1.12532E+04  9.41651E+03 -5.91364E+03
  1.11154E+04  2.67580E+03  5.16136E+03  7.30564E+03 -1.07844E+03  1.06817E+04 -7.95845E+03  7.31198E+03
