 $NMID ID='MM_0lb_SNR400_7hz_g45_68.RAW', FMTDAT='(8E13.5)'
 TRAMP=1., VOLUME=1. $END
  3.08821E+05  5.16117E+02  3.38466E+05  2.50937E+05  8.45076E+04  3.39422E+05 -1.32256E+05  2.52586E+05
 -1.90941E+05  8.37189E+04 -1.12152E+05 -3.23864E+04 -2.68189E+02 -5.13535E+04  5.32722E+04 -5.35255E+02
  3.60779E+04  5.32840E+04 -1.70723E+04  7.60777E+04 -6.13341E+04  6.53328E+04 -8.68127E+04  3.11549E+04
 -8.36381E+04 -1.23299E+04 -5.82229E+04 -5.21166E+04 -1.50350E+04 -7.15573E+04  2.80971E+04 -4.80127E+04
  4.13796E+04  3.77583E+03  1.67477E+04  4.91337E+04 -3.48271E+04  4.80481E+04 -6.82075E+04  8.65861E+02
 -5.58806E+04 -5.85833E+04 -8.75492E+03 -8.02332E+04  3.43002E+04 -5.73061E+04  5.08011E+04 -1.87255E+04
  4.53774E+04  1.11878E+04  3.36620E+04  2.67817E+04  1.63489E+04  3.02352E+04 -5.16994E+03  2.71095E+04
 -2.22215E+04  1.16797E+04 -1.76210E+04 -4.82740E+03  8.11837E+03 -7.50962E+03  2.35615E+04  1.38038E+04
  6.67042E+03  3.78839E+04 -3.51629E+04  3.68175E+04 -6.63436E+04  1.03252E+03 -5.89832E+04 -4.51834E+04
 -1.17256E+04 -6.68698E+04  4.15693E+04 -4.83440E+04  6.13414E+04 -2.61737E+03  3.75438E+04  3.58604E+04
 -5.46614E+03  4.19903E+04 -3.22313E+04  1.97241E+04 -3.40811E+04 -3.76472E+03 -1.99639E+04 -1.22084E+04
 -1.00181E+04 -1.68074E+04 -3.21676E+02 -1.99366E+04  8.84015E+03 -2.26057E+04  1.64402E+04 -1.19817E+04
  1.02230E+04  6.26418E+03 -1.04823E+04  1.31110E+04 -2.40683E+04 -7.56211E+03 -8.79260E+03 -3.91812E+04
  2.53469E+04 -4.84213E+04  5.32532E+04 -2.15349E+04  4.93700E+04  2.14184E+04  1.81690E+04  4.69190E+04
 -1.64173E+04  3.78950E+04 -2.69751E+04  3.03695E+03 -1.19408E+04 -3.03379E+04  2.19833E+04 -3.70972E+04
  4.50881E+04 -1.18123E+04  4.12820E+04  2.49075E+04  2.29010E+04  5.19615E+04 -8.04952E+03  5.79451E+04
 -3.63823E+04  3.96282E+04 -4.94415E+04  1.16629E+04 -4.93556E+04 -1.96720E+04 -2.61354E+04 -4.26018E+04
  7.61751E+03 -4.35952E+04  3.62517E+04 -1.86245E+04  3.35569E+04  1.14567E+04  5.57928E+03  2.11138E+04
 -1.39655E+04  9.49102E+03 -1.17439E+04 -8.27304E+03  5.89242E+03 -1.18458E+04  2.05343E+04  4.93334E+03
  1.51724E+04  2.28388E+04 -5.67558E+03  2.74828E+04 -2.37815E+04  1.49767E+04 -3.27636E+04 -2.17666E+03
 -2.75135E+04 -1.94009E+04 -1.27598E+04 -2.66273E+04  4.54951E+03 -2.88062E+04  2.13500E+04 -2.45633E+04
  3.37237E+04 -1.49853E+04  3.92035E+04  6.09998E+03  2.74782E+04  2.62887E+04  4.62172E+03  4.25736E+04
 -2.08757E+04  3.56292E+04 -3.08336E+04  1.17219E+04 -2.24523E+04 -1.03058E+04 -5.27908E+03 -1.25459E+04
  5.59033E+02 -6.90808E+02 -8.49667E+03  8.48155E+03 -2.20030E+04  4.67797E+03 -2.10632E+04 -1.07016E+04
 -1.21661E+04 -2.46877E+04  6.66914E+03 -2.90477E+04  2.13270E+04 -2.04841E+04  2.45904E+04 -2.76608E+03
  1.60535E+04  1.65704E+04 -1.54429E+03  2.43973E+04 -1.73317E+04  1.46151E+04 -2.59055E+04 -4.48728E+03
 -1.83814E+04 -2.16067E+04 -3.34268E+03 -2.97880E+04  1.38044E+04 -2.52615E+04  2.49033E+04 -1.27048E+04
  2.37788E+04  1.25766E+02  1.71795E+04  5.82640E+03  9.80028E+03  1.40761E+03  1.34152E+04 -2.40018E+03
  2.44440E+04  2.34620E+03  2.85506E+04  1.96368E+04  1.84886E+04  4.02449E+04 -2.89103E+03  4.75063E+04
 -2.64111E+04  4.04110E+04 -4.46516E+04  2.11348E+04 -4.96199E+04 -2.86963E+03 -3.96867E+04 -2.86023E+04
 -1.53873E+04 -4.09257E+04  1.39564E+04 -3.58389E+04  3.09045E+04 -1.67738E+04  2.60203E+04  9.51543E+03
  8.87312E+03  2.05433E+04 -1.31777E+04  1.69257E+04 -2.17449E+04  3.17785E+03 -1.68017E+04 -1.37388E+04
 -4.85307E+02 -2.07446E+04  1.12122E+04 -1.56481E+04  1.39362E+04 -1.64123E+03  3.39421E+03  1.03851E+04
 -9.05971E+03  4.87613E+03 -9.87211E+03 -7.43331E+03 -1.71095E+03 -2.00695E+04  1.28996E+04 -2.20375E+04
  2.53181E+04 -1.27461E+04  2.87008E+04  3.56617E+03  2.53176E+04  2.01537E+04  1.14676E+04  3.25817E+04
 -6.49744E+03  3.40081E+04 -2.29925E+04  2.08438E+04 -2.51489E+04  4.49246E+03 -1.80354E+04 -6.89642E+03
 -6.49234E+03 -8.99255E+03 -5.63714E+02  6.26512E+01 -2.83265E+03  3.49898E+03 -8.39261E+03  6.68187E+03
 -1.57292E+04 -1.32292E+03 -1.61499E+04 -1.26297E+04 -6.47729E+03 -2.05663E+04  7.69777E+03 -1.71817E+04
  1.49991E+04 -6.78737E+03  1.04682E+04  4.46918E+03 -1.35533E+03  5.86336E+03 -8.62195E+03  5.43373E+02
 -9.25867E+03 -1.07283E+04 -7.96141E+02 -1.64196E+04  1.12596E+04 -1.91078E+04  2.15632E+04 -9.70224E+03
  2.65165E+04  2.76050E+03  1.95690E+04  1.66093E+04  4.40377E+03  2.16418E+04 -1.12137E+04  1.71046E+04
 -1.40732E+04  4.74275E+03 -8.07860E+03 -3.81799E+03  2.60008E+03 -4.79271E+03  8.73762E+03 -1.93321E+03
  9.52316E+03  8.70398E+03  1.16020E+03  1.47370E+04 -9.86937E+03  1.35524E+04 -1.91069E+04  3.68900E+03
 -1.24321E+04 -9.23416E+03 -5.40213E+02 -1.51071E+04  9.81514E+03 -7.44850E+03  1.07124E+04  3.56893E+03
  2.46899E+03  1.06177E+04 -9.43309E+03  1.27892E+04 -1.55695E+04  6.17113E+03 -1.58386E+04 -6.06476E+03
 -8.56278E+03 -1.85020E+04  4.03130E+03 -2.05568E+04  1.78135E+04 -1.25651E+04  1.96407E+04  2.87346E+03
  1.09545E+04  1.67197E+04 -2.74020E+03  1.82414E+04 -1.39617E+04  1.03285E+04 -1.55950E+04 -1.48460E+03
 -1.12332E+04 -1.18978E+04 -1.36514E+03 -1.34148E+04  7.60992E+03 -1.12155E+04  8.83282E+03 -3.94751E+03
  5.27972E+03  2.30473E+03 -1.39923E+03  2.10299E+03 -1.45207E+03 -4.64270E+03  2.71161E+03 -8.11096E+03
  1.39318E+04 -6.09693E+03  1.98539E+04  3.07520E+03  1.88388E+04  1.28993E+04  1.17758E+04  2.45645E+04
 -5.19286E+03  2.78789E+04 -2.31542E+04  2.01756E+04 -3.05056E+04  3.66784E+03 -2.43823E+04 -9.63011E+03
 -1.18757E+04 -2.08804E+04  2.04885E+02 -1.58524E+04  5.87958E+03 -9.68637E+03  6.22981E+03 -6.18115E+03
  3.78818E+03 -3.73340E+03  5.19523E+03 -4.27607E+03  5.74383E+03 -4.06076E+03  9.03415E+03 -2.06402E+03
  1.21713E+04  3.37930E+03  6.36839E+03  1.10025E+04 -1.96584E+03  1.39739E+04 -1.29381E+04  1.11030E+04
 -1.74246E+04 -1.78246E+03 -1.20129E+04 -1.25107E+04 -1.56267E+03 -1.88286E+04  1.05676E+04 -1.83712E+04
  1.92854E+04 -1.08268E+04  2.25526E+04  3.34997E+03  1.60170E+04  1.62737E+04  3.05653E+03  2.19741E+04
 -9.01497E+03  1.71131E+04 -1.21175E+04  5.68157E+03 -9.07779E+03 -2.75916E+03 -4.37541E+03 -3.71882E+03
 -2.10087E+03 -4.11504E+02 -3.12207E+03  2.06693E+03 -6.59209E+03  2.01521E+03 -1.27198E+04 -1.72665E+03
 -9.10127E+03 -1.23348E+04  3.20224E+02 -1.86059E+04  1.12021E+04 -1.62861E+04  1.79472E+04 -4.81752E+03
  1.82140E+04  8.41411E+03  8.30238E+03  1.65839E+04 -3.78865E+03  1.84649E+04 -1.33641E+04  1.16945E+04
 -1.68494E+04  1.16244E+03 -1.34705E+04 -1.09387E+04 -8.78572E+02 -1.62466E+04  8.49803E+03 -1.08926E+04
  1.09078E+04 -3.78153E+03  8.95883E+03  2.86830E+03  3.13776E+03  5.46033E+03  1.77321E+03  2.03734E+03
  2.57749E+03  1.22909E+03  4.60527E+03  1.19169E+03  5.10489E+03  5.66246E+03  4.42825E+03  9.65691E+03
 -3.45637E+03  1.58036E+04 -1.32127E+04  1.49550E+04 -1.99895E+04  3.65090E+03 -1.99333E+04 -9.47038E+03
 -1.01369E+04 -1.94807E+04  2.52604E+03 -1.91146E+04  1.17915E+04 -1.31284E+04  1.52029E+04 -3.39700E+03
  1.15591E+04  6.36929E+03  2.01590E+03  1.12827E+04 -5.50828E+03  7.24853E+03 -7.67864E+03 -1.90695E+03
 -3.28417E+03 -8.29907E+03  4.28845E+03 -8.82807E+03  7.80319E+03 -3.63416E+03  7.81615E+03  5.70013E+02
  4.47810E+03  3.76882E+03  1.13184E+03  2.70196E+03 -7.93336E+02  2.31949E+03  1.44530E+03 -7.43689E+02
  3.11031E+03 -1.74058E+03  7.27820E+03  3.54127E+03  4.96532E+03  1.00846E+04 -2.06806E+03  1.37100E+04
 -8.53521E+03  9.01403E+03 -1.32561E+04  2.98995E+03 -1.14227E+04 -3.31892E+03 -4.46529E+03 -7.75433E+03
  1.20404E+03 -8.29875E+03  4.85399E+03 -3.29297E+03  5.55463E+03  3.41440E+03 -1.27609E+03  7.27852E+03
 -8.66134E+03  4.42604E+03 -8.83014E+03 -4.51572E+03 -6.02359E+03 -9.86422E+03  1.30142E+03 -1.14205E+04
  6.03237E+03 -6.63006E+03  8.68846E+03 -9.44218E+02  6.83195E+03  2.70201E+03  4.14863E+02  4.86478E+03
 -4.18208E+03  1.60882E+03 -4.91068E+03 -4.17173E+03  1.04706E+03 -8.51659E+03  1.01535E+04 -7.94803E+03
  1.15244E+04  1.23641E+03  1.23345E+04  8.91225E+03  4.11071E+03  1.39130E+04 -4.70060E+03  1.29993E+04
 -1.16429E+04  5.72991E+03 -1.24866E+04 -1.51929E+03 -6.80024E+03 -9.41191E+03  1.67490E+03 -9.06474E+03
  7.09793E+03 -4.03038E+03  6.41808E+03  3.76821E+03  2.72141E+03  6.60895E+03 -1.48463E+03  6.56108E+03
 -4.07602E+03  2.74459E+03 -3.53347E+03  1.38645E+03 -1.81383E+03  8.17806E+02 -2.27039E+03  3.32981E+03
 -3.74726E+03  4.42952E+03 -7.96565E+03  5.26052E+03 -1.25549E+04 -1.22158E+02 -1.39330E+04 -8.59589E+03
 -8.02774E+03 -1.73781E+04  3.65349E+03 -2.06326E+04  1.22870E+04 -1.59549E+04  1.98102E+04 -6.18865E+03
  1.72887E+04  4.19231E+03  1.19480E+04  1.29377E+04  9.59409E+02  1.49182E+04 -5.45045E+03  1.05916E+04
 -8.13600E+03  3.48634E+03 -4.77689E+03 -1.25828E+03 -2.09742E+03 -2.01890E+03 -5.51807E+02  1.94445E+02
 -1.78920E+03 -6.34788E+02 -2.93174E+03  1.04676E+02 -1.37816E+03 -4.19626E+03  1.74388E+03 -5.43392E+03
  6.03941E+03 -3.65090E+03  9.27933E+03 -4.69992E+02  9.44080E+03  7.52839E+03  2.74634E+03  1.36036E+04
 -6.30881E+03  1.66338E+04 -1.53526E+04  9.92348E+03 -1.71154E+04 -1.88942E+03 -1.23731E+04 -1.00925E+04
 -5.49203E+03 -1.52466E+04  3.61894E+03 -1.36878E+04  9.54623E+03 -7.24771E+03  1.05042E+04  1.15581E+03
  5.34128E+03  5.57608E+03 -8.73332E+02  4.36298E+03 -2.84313E+03 -9.35038E+02 -3.85181E+02 -4.12680E+03
  4.46828E+03 -2.29819E+03  6.30154E+03  1.51932E+03  4.64622E+03  5.72263E+03 -3.41714E+02  7.22571E+03
 -7.18675E+03  7.09839E+03 -1.00291E+04  1.11202E+03 -8.64708E+03 -6.66948E+03 -1.37752E+03 -1.23131E+04
  6.65698E+03 -1.04823E+04  1.17760E+04 -3.69305E+03  1.19973E+04  2.96057E+03  7.43135E+03  8.97036E+03
  1.33963E+03  9.49171E+03 -4.01214E+03  7.73606E+03 -6.08231E+03  4.86367E+03 -5.12876E+03  3.24314E+01
 -3.07613E+03 -1.02412E+03 -2.26607E+03  1.94705E+03 -4.99745E+03  1.56093E+03 -7.35788E+03 -2.03534E+03
 -7.10005E+03 -6.01143E+03 -2.96809E+03 -1.10302E+04  5.34360E+03 -1.08170E+04  8.82330E+03 -5.13578E+03
  1.07949E+04  1.36859E+03  4.75306E+03  7.12563E+03 -5.07893E+02  9.04115E+03 -8.57201E+03  7.29238E+03
