 $NMID ID='MM_0lb_SNR400_8hz_g50_86.RAW', FMTDAT='(8E13.5)'
 TRAMP=1., VOLUME=1. $END
  3.09570E+05  3.16776E+02  3.37827E+05  2.51073E+05  8.44099E+04  3.38080E+05 -1.31810E+05  2.52183E+05
 -1.91649E+05  8.37495E+04 -1.12735E+05 -3.22658E+04 -4.50687E+02 -5.12579E+04  5.41820E+04 -6.27221E+02
  3.58710E+04  5.36332E+04 -1.70684E+04  7.66165E+04 -6.11087E+04  6.37681E+04 -8.51642E+04  3.25167E+04
 -8.32111E+04 -1.16535E+04 -5.91956E+04 -5.24794E+04 -1.56233E+04 -7.07810E+04  2.86095E+04 -4.70373E+04
  4.16750E+04  3.87869E+03  1.64393E+04  4.90266E+04 -3.58712E+04  4.76862E+04 -6.81154E+04 -4.47817E+02
 -5.53367E+04 -5.82463E+04 -7.67310E+03 -7.94012E+04  3.54239E+04 -5.70561E+04  5.08639E+04 -1.81859E+04
  4.54169E+04  1.15001E+04  3.36131E+04  2.71182E+04  1.62378E+04  3.07030E+04 -5.15285E+03  2.82315E+04
 -2.25329E+04  1.22397E+04 -1.86224E+04 -5.28178E+03  8.25700E+03 -6.86218E+03  2.45980E+04  1.43581E+04
  7.11698E+03  3.82324E+04 -3.46068E+04  3.78591E+04 -6.64593E+04  2.23931E+03 -5.87385E+04 -4.43189E+04
 -1.29196E+04 -6.68096E+04  4.24708E+04 -4.76974E+04  6.06727E+04 -2.83504E+03  3.72080E+04  3.54318E+04
 -5.10065E+03  4.02867E+04 -3.21200E+04  1.99019E+04 -3.40884E+04 -4.02707E+03 -2.01935E+04 -1.19172E+04
 -9.49920E+03 -1.58475E+04 -2.45725E+02 -1.94508E+04  8.99729E+03 -2.41472E+04  1.57651E+04 -1.28608E+04
  1.08165E+04  5.72328E+03 -1.05989E+04  1.18980E+04 -2.38262E+04 -7.44840E+03 -7.93645E+03 -3.84488E+04
  2.58483E+04 -4.75648E+04  5.21385E+04 -2.03519E+04  4.99287E+04  2.08100E+04  1.77677E+04  4.80299E+04
 -1.68106E+04  3.66556E+04 -2.78623E+04  3.36486E+03 -1.25691E+04 -2.97210E+04  2.15309E+04 -3.73089E+04
  4.53995E+04 -1.17384E+04  4.15853E+04  2.51271E+04  2.19254E+04  5.13974E+04 -8.43035E+03  5.76495E+04
 -3.54581E+04  3.92947E+04 -4.86049E+04  1.07101E+04 -4.85035E+04 -1.91766E+04 -2.63314E+04 -4.37622E+04
  8.59028E+03 -4.35257E+04  3.45631E+04 -1.72798E+04  3.29916E+04  1.15675E+04  4.55866E+03  2.05185E+04
 -1.42671E+04  1.07159E+04 -1.08171E+04 -7.63889E+03  5.13442E+03 -1.20220E+04  1.82478E+04  4.91142E+03
  1.46703E+04  2.29263E+04 -4.53744E+03  2.67939E+04 -2.42990E+04  1.53152E+04 -3.22773E+04 -2.74152E+03
 -2.69121E+04 -1.91190E+04 -1.21813E+04 -2.64551E+04  4.31915E+03 -2.64907E+04  2.10264E+04 -2.43348E+04
  3.30127E+04 -1.44547E+04  3.93902E+04  5.55826E+03  2.81687E+04  2.60356E+04  4.58689E+03  4.23374E+04
 -1.96515E+04  3.38081E+04 -3.13376E+04  1.24155E+04 -2.32166E+04 -1.03112E+04 -5.34357E+03 -1.38016E+04
  2.95484E+02 -6.00899E+02 -7.91590E+03  8.17537E+03 -2.14544E+04  4.53421E+03 -2.05521E+04 -1.01296E+04
 -1.16825E+04 -2.37103E+04  5.96271E+03 -2.87415E+04  2.03837E+04 -2.08408E+04  2.32076E+04 -2.86394E+03
  1.51276E+04  1.66038E+04 -9.30562E+02  2.50240E+04 -1.64261E+04  1.38914E+04 -2.49571E+04 -5.53097E+03
 -1.77772E+04 -2.10753E+04 -1.67740E+03 -2.91676E+04  1.35067E+04 -2.40890E+04  2.41696E+04 -1.24413E+04
  2.24966E+04 -1.35178E+03  1.72852E+04  5.66807E+03  9.80383E+03  1.66721E+03  1.28753E+04 -1.97546E+03
  2.29232E+04  3.80692E+03  2.65673E+04  1.88150E+04  1.71770E+04  3.86125E+04 -2.07999E+03  4.66561E+04
 -2.59686E+04  3.87665E+04 -4.43251E+04  2.02894E+04 -4.76644E+04 -4.01189E+03 -3.78843E+04 -2.75000E+04
 -1.50397E+04 -3.97216E+04  1.36457E+04 -3.51549E+04  2.85793E+04 -1.67082E+04  2.59413E+04  8.51931E+03
  8.57384E+03  1.96286E+04 -1.21256E+04  1.60900E+04 -2.04575E+04  2.63845E+03 -1.59889E+04 -1.36544E+04
 -9.11051E+02 -1.92525E+04  1.06053E+04 -1.53643E+04  1.43331E+04 -1.91149E+03  3.00277E+03  7.80068E+03
 -9.49193E+03  4.90568E+03 -9.78867E+03 -7.02060E+03 -2.29856E+03 -1.89316E+04  1.29268E+04 -2.08573E+04
  2.50299E+04 -1.17215E+04  2.82384E+04  3.44297E+03  2.43666E+04  1.93285E+04  1.15286E+04  3.14545E+04
 -5.32327E+03  3.29309E+04 -2.18817E+04  2.02492E+04 -2.39573E+04  3.99534E+03 -1.67247E+04 -5.67654E+03
 -6.84160E+03 -8.24784E+03 -1.27840E+03 -4.36927E+02 -2.65821E+03  3.95579E+03 -7.46487E+03  5.77068E+03
 -1.54683E+04 -1.23805E+03 -1.53132E+04 -1.29710E+04 -5.98185E+03 -2.04660E+04  6.21430E+03 -1.68093E+04
  1.29751E+04 -6.03101E+03  9.56638E+03  4.06555E+03  3.08857E+01  6.76244E+03 -8.14290E+03  2.07265E+02
 -7.89407E+03 -1.05244E+04 -7.88234E+02 -1.57737E+04  9.81598E+03 -1.81136E+04  2.17618E+04 -8.47774E+03
  2.61141E+04  2.71869E+03  1.82872E+04  1.66453E+04  3.97306E+03  2.11417E+04 -9.87401E+03  1.73017E+04
 -1.27795E+04  4.94422E+03 -7.02969E+03 -3.60699E+03  2.21518E+03 -4.90334E+03  8.58913E+03 -9.41660E+02
  7.86004E+03  8.10839E+03  5.83918E+02  1.39160E+04 -1.04557E+04  1.29783E+04 -1.73963E+04  2.15674E+03
 -1.13222E+04 -8.51991E+03 -4.48267E+02 -1.38418E+04  9.75670E+03 -6.54337E+03  1.06413E+04  3.73909E+03
  2.28071E+03  1.11205E+04 -8.65209E+03  1.24281E+04 -1.52090E+04  6.17810E+03 -1.51979E+04 -5.68402E+03
 -8.30274E+03 -1.74730E+04  5.50124E+03 -2.04482E+04  1.52480E+04 -1.18803E+04  1.88290E+04  3.34393E+03
  9.98123E+03  1.40874E+04 -1.12784E+03  1.70558E+04 -1.33789E+04  1.01460E+04 -1.37759E+04 -1.49690E+03
 -1.06171E+04 -1.21955E+04 -2.73740E+03 -1.34044E+04  6.77830E+03 -1.04301E+04  8.28523E+03 -4.76982E+03
  4.04926E+03  2.65796E+03 -7.79501E+02  2.49491E+03 -1.24850E+03 -2.95079E+03  3.84340E+03 -9.12438E+03
  1.32773E+04 -5.91289E+03  1.80030E+04  1.21340E+03  1.70261E+04  1.23382E+04  1.21199E+04  2.25648E+04
 -5.83549E+03  2.62422E+04 -2.17180E+04  1.93529E+04 -2.87318E+04  3.44027E+03 -2.27963E+04 -1.02175E+04
 -1.16426E+04 -1.88207E+04 -7.73659E+02 -1.66944E+04  5.57895E+03 -7.95222E+03  4.91820E+03 -5.82068E+03
  4.37930E+03 -3.83587E+03  4.79054E+03 -4.54988E+03  6.67982E+03 -3.58845E+03  8.86141E+03 -1.51383E+03
  1.24393E+04  3.31225E+03  6.71817E+03  1.01193E+04 -2.65949E+03  1.30742E+04 -1.27462E+04  9.68665E+03
 -1.72800E+04 -1.28340E+03 -1.07252E+04 -1.22547E+04 -1.43521E+03 -1.81516E+04  9.21350E+03 -1.75731E+04
  1.86070E+04 -1.01747E+04  2.18030E+04  2.80662E+03  1.51150E+04  1.53003E+04  2.28377E+03  2.03888E+04
 -7.78910E+03  1.60569E+04 -1.12317E+04  5.67041E+03 -8.77804E+03 -1.94029E+03 -3.45542E+03 -2.24464E+03
 -1.75066E+03 -7.21414E+02 -2.82127E+03  3.23534E+03 -6.66159E+03  2.78689E+03 -1.15042E+04 -2.05327E+03
 -8.21919E+03 -1.10613E+04 -1.64457E+02 -1.63465E+04  1.03728E+04 -1.52062E+04  1.72189E+04 -4.67664E+03
  1.62902E+04  7.76474E+03  8.52603E+03  1.38937E+04 -2.99307E+03  1.71877E+04 -1.18616E+04  1.09675E+04
 -1.55820E+04  8.05104E+02 -1.20948E+04 -1.01558E+04 -8.09268E+02 -1.43592E+04  6.48309E+03 -1.08868E+04
  1.04548E+04 -3.39436E+03  7.45804E+03  3.15364E+03  2.31387E+03  6.18075E+03  1.02219E+03  2.80784E+03
  3.35832E+03  1.48349E+03  3.85895E+03  1.69201E+03  5.87381E+03  5.90176E+03  4.48762E+03  9.64438E+03
 -3.47699E+03  1.32714E+04 -1.28113E+04  1.36390E+04 -1.77233E+04  2.67161E+03 -1.77237E+04 -7.54563E+03
 -8.66271E+03 -1.72306E+04  2.57032E+03 -1.83636E+04  1.07855E+04 -1.14687E+04  1.49474E+04 -2.58685E+03
  1.05729E+04  5.61744E+03  2.42052E+03  9.03524E+03 -4.91120E+03  7.14093E+03 -7.09172E+03 -8.17333E+02
 -3.59780E+03 -7.77451E+03  4.15452E+03 -7.97019E+03  7.48277E+03 -3.56800E+03  7.64819E+03  6.76523E+02
  4.37682E+03  2.72555E+03  2.24063E+03  3.16494E+03 -1.32897E+03  2.07197E+03  2.16563E+03 -1.51595E+02
  3.25503E+03 -9.33640E+02  7.43108E+03  2.43727E+03  3.89897E+03  8.65302E+03 -8.58196E+02  1.34519E+04
 -8.57445E+03  8.64423E+03 -1.18917E+04  2.62178E+03 -1.09686E+04 -3.51455E+03 -4.35810E+03 -7.24585E+03
  7.99182E+02 -6.45817E+03  5.03047E+03 -4.02654E+03  3.35252E+03  3.61209E+03 -1.16462E+03  5.21913E+03
 -7.17587E+03  3.03732E+03 -8.34753E+03 -3.68253E+03 -5.13619E+03 -9.16952E+03  1.68139E+03 -8.88131E+03
  5.37785E+03 -5.33310E+03  7.39946E+03 -2.79233E+02  6.07093E+03  1.79401E+03  2.31561E+02  5.32073E+03
 -3.96024E+03  2.35731E+03 -4.17170E+03 -4.04319E+03  1.81308E+03 -7.88563E+03  9.18350E+03 -6.58908E+03
  1.14671E+04  2.22292E+02  9.98072E+03  7.82862E+03  3.58696E+03  1.16868E+04 -4.37930E+03  1.16845E+04
 -9.35795E+03  4.25044E+03 -1.04087E+04 -1.71943E+03 -6.16854E+03 -8.09252E+03  1.27463E+03 -7.01581E+03
  7.34978E+03 -4.42213E+03  5.80936E+03  3.30538E+03  2.42099E+03  7.38946E+03 -4.59083E+02  6.12470E+03
 -3.86504E+03  4.05702E+03 -2.34779E+03  1.60922E+03 -1.80855E+03  1.82766E+03 -1.81165E+03  2.87909E+03
 -4.05472E+03  4.29939E+03 -7.53676E+03  3.37343E+03 -1.22397E+04  3.02231E+02 -1.31511E+04 -7.49168E+03
 -6.69412E+03 -1.59574E+04  2.84023E+03 -1.84454E+04  1.21082E+04 -1.39477E+04  1.68836E+04 -5.42758E+03
  1.66098E+04  2.41986E+03  9.78721E+03  1.06455E+04  1.61217E+03  1.22003E+04 -4.98375E+03  9.00368E+03
 -7.01340E+03  2.68030E+03 -4.70286E+03 -1.39925E+03 -6.99018E+02 -1.55524E+03 -4.56020E+02  1.97498E+02
 -2.42098E+03 -1.56634E+02 -2.95192E+03 -3.34794E+02 -5.94974E+02 -2.72761E+03  9.77652E+02 -4.36914E+03
  5.11516E+03 -3.54367E+03  8.36388E+03  1.90086E+01  9.22024E+03  6.31657E+03  3.76372E+03  1.13799E+04
 -5.75207E+03  1.35989E+04 -1.32462E+04  8.61980E+03 -1.54768E+04 -1.90177E+03 -1.15589E+04 -9.07741E+03
 -5.23485E+03 -1.26212E+04  3.02508E+03 -1.15456E+04  9.40333E+03 -6.28308E+03  7.36434E+03  2.89138E+02
  5.01766E+03  3.60210E+03 -3.16861E+02  2.69802E+03 -2.27970E+03 -2.84862E+02 -9.20850E+01 -2.46164E+03
  4.31648E+03 -1.69071E+03  4.67227E+03  1.70642E+03  2.91706E+03  5.29477E+03  4.58448E+02  6.90382E+03
 -6.14646E+03  5.91527E+03 -8.09911E+03  8.87615E+02 -7.39008E+03 -6.47111E+03 -1.25392E+03 -1.04158E+04
  6.82102E+03 -8.27324E+03  9.99154E+03 -2.88888E+03  9.90199E+03  2.12238E+03  5.38915E+03  8.00077E+03
  1.16177E+03  7.75628E+03 -3.12968E+03  7.01163E+03 -5.07131E+03  5.11868E+03 -4.80013E+03  5.41687E+02
 -2.43350E+03  7.31933E+01 -1.89501E+03  1.23921E+03 -3.24028E+03  1.51880E+03 -6.77821E+03 -9.33609E+02
 -6.77319E+03 -5.67265E+03 -2.32255E+03 -8.53017E+03  4.48388E+03 -9.16497E+03  7.43533E+03 -4.98666E+03
  8.39670E+03  7.45536E+02  4.59898E+03  6.74995E+03  4.39829E+01  8.09652E+03 -6.60283E+03  4.89653E+03
