 $NMID ID='MM_0lb_SNR400_10hz_g45_12.RAW', FMTDAT='(8E13.5)'
 TRAMP=1., VOLUME=1. $END
  3.09714E+05  5.44901E+02  3.37588E+05  2.50995E+05  8.59156E+04  3.37619E+05 -1.32583E+05  2.51490E+05
 -1.90216E+05  8.36302E+04 -1.12532E+05 -3.25447E+04  1.12849E+03 -5.04454E+04  5.36013E+04  4.43310E+02
  3.54253E+04  5.26216E+04 -1.67413E+04  7.55774E+04 -6.15723E+04  6.44365E+04 -8.55157E+04  3.28979E+04
 -8.16442E+04 -1.25318E+04 -5.78493E+04 -5.18416E+04 -1.56199E+04 -7.05115E+04  2.83000E+04 -4.62743E+04
  3.98099E+04  4.53716E+03  1.72094E+04  4.91770E+04 -3.41157E+04  4.82957E+04 -6.84061E+04  6.94058E+01
 -5.37349E+04 -5.74296E+04 -7.77175E+03 -7.77320E+04  3.48519E+04 -5.65664E+04  4.91778E+04 -1.82467E+04
  4.50359E+04  1.14706E+04  3.21690E+04  2.62884E+04  1.61008E+04  2.94661E+04 -5.00616E+03  2.68915E+04
 -2.15293E+04  1.17180E+04 -1.83463E+04 -5.64805E+03  6.13710E+03 -7.11543E+03  2.24962E+04  1.29803E+04
  6.83135E+03  3.77166E+04 -3.40664E+04  3.60011E+04 -6.50434E+04  2.90307E+03 -5.80357E+04 -4.43874E+04
 -1.29607E+04 -6.42558E+04  4.11440E+04 -4.66713E+04  6.00235E+04 -2.04471E+03  3.58807E+04  3.40831E+04
 -5.77436E+03  3.78309E+04 -3.13775E+04  1.76317E+04 -3.24543E+04 -3.54698E+03 -1.83692E+04 -1.13166E+04
 -9.60396E+03 -1.55744E+04 -1.11226E+03 -1.95061E+04  8.93047E+03 -2.32916E+04  1.54365E+04 -1.27428E+04
  1.13116E+04  5.58663E+03 -9.32714E+03  1.29788E+04 -2.31679E+04 -5.98980E+03 -8.89859E+03 -3.53804E+04
  2.43272E+04 -4.67864E+04  5.09951E+04 -1.98927E+04  4.76463E+04  2.04013E+04  1.62902E+04  4.61202E+04
 -1.66561E+04  3.53179E+04 -2.72182E+04  2.13504E+03 -1.12917E+04 -2.91821E+04  2.11566E+04 -3.57190E+04
  4.40363E+04 -1.06344E+04  3.86845E+04  2.51462E+04  1.95109E+04  4.99677E+04 -8.43861E+03  5.52175E+04
 -3.36040E+04  3.63634E+04 -4.56180E+04  1.07011E+04 -4.68536E+04 -1.80415E+04 -2.53393E+04 -4.09666E+04
  7.27174E+03 -4.07614E+04  3.27280E+04 -1.63304E+04  3.12884E+04  1.15020E+04  4.74922E+03  2.06182E+04
 -1.39530E+04  9.59619E+03 -1.16674E+04 -8.14730E+03  5.39796E+03 -1.17863E+04  1.85518E+04  5.34922E+03
  1.50668E+04  2.20283E+04 -5.40883E+03  2.64385E+04 -2.31773E+04  1.32648E+04 -3.08903E+04 -3.92888E+03
 -2.38257E+04 -1.89271E+04 -1.05165E+04 -2.40052E+04  4.88699E+03 -2.39248E+04  1.84124E+04 -2.16581E+04
  3.03973E+04 -1.43079E+04  3.68696E+04  4.44577E+03  2.55675E+04  2.29236E+04  4.10476E+03  4.03949E+04
 -1.91226E+04  3.25076E+04 -2.93030E+04  1.13195E+04 -2.16406E+04 -9.77260E+03 -4.57152E+03 -1.22036E+04
  1.43252E+03 -1.46207E+03 -6.51712E+03  7.01237E+03 -1.88289E+04  5.42626E+03 -1.89319E+04 -8.30161E+03
 -1.11807E+04 -2.22109E+04  5.61229E+03 -2.63610E+04  1.79505E+04 -1.93619E+04  2.11547E+04 -1.69048E+03
  1.40009E+04  1.60670E+04 -1.85490E+03  2.14171E+04 -1.57148E+04  1.22285E+04 -2.20701E+04 -4.92840E+03
 -1.64798E+04 -1.98280E+04 -1.60561E+03 -2.64604E+04  1.15913E+04 -2.25301E+04  2.21639E+04 -1.08786E+04
  2.07284E+04 -8.03831E+02  1.46045E+04  4.24429E+03  8.11994E+03  1.10157E+03  1.10366E+04 -1.46200E+03
  2.07700E+04  2.49693E+03  2.35707E+04  1.75940E+04  1.62393E+04  3.46330E+04 -2.87465E+03  4.09527E+04
 -2.37228E+04  3.40512E+04 -3.91510E+04  1.71890E+04 -4.17856E+04 -3.08877E+03 -3.37815E+04 -2.37488E+04
 -1.32977E+04 -3.48413E+04  1.18579E+04 -2.99522E+04  2.58052E+04 -1.45222E+04  2.25431E+04  7.22299E+03
  7.80797E+03  1.60031E+04 -1.12865E+04  1.42403E+04 -1.88008E+04  3.72136E+03 -1.45789E+04 -1.14611E+04
 -3.49752E+02 -1.77850E+04  1.00116E+04 -1.34926E+04  1.23169E+04 -9.52980E+02  2.74318E+03  7.36119E+03
 -7.72567E+03  3.58391E+03 -8.24007E+03 -6.69237E+03 -1.36351E+03 -1.68370E+04  1.14165E+04 -1.77415E+04
  2.18101E+04 -1.01372E+04  2.33008E+04  2.93733E+03  2.10448E+04  1.73580E+04  9.26592E+03  2.71414E+04
 -5.23276E+03  2.96297E+04 -1.89308E+04  1.78332E+04 -2.08799E+04  3.67037E+03 -1.39217E+04 -5.43878E+03
 -5.78313E+03 -7.07382E+03 -1.06187E+02 -2.10540E+02 -2.89580E+03  3.35349E+03 -6.95652E+03  5.06403E+03
 -1.28981E+04 -1.60124E+02 -1.34488E+04 -1.12377E+04 -6.02905E+03 -1.87092E+04  5.64022E+03 -1.40204E+04
  1.22115E+04 -6.28287E+03  9.28102E+03  3.73702E+03 -5.65176E+02  5.65974E+03 -7.33870E+03 -3.22698E+02
 -6.60622E+03 -9.71663E+03 -7.91298E+02 -1.39024E+04  8.81430E+03 -1.51955E+04  1.87019E+04 -8.92264E+03
  2.18443E+04  2.57207E+03  1.54684E+04  1.25611E+04  3.20162E+03  1.67546E+04 -9.16137E+03  1.45081E+04
 -1.20787E+04  3.98537E+03 -6.38189E+03 -2.86848E+03  2.73109E+03 -3.31810E+03  7.21605E+03 -1.22223E+03
  6.20845E+03  6.02129E+03  1.99825E+03  1.16856E+04 -8.23542E+03  1.13328E+04 -1.45863E+04  2.82527E+03
 -8.83493E+03 -6.41328E+03  5.32957E+02 -1.22870E+04  7.58679E+03 -6.24792E+03  8.27649E+03  3.60062E+03
  2.63244E+03  9.26460E+03 -8.16590E+03  1.00897E+04 -1.19922E+04  4.67251E+03 -1.18020E+04 -4.51370E+03
 -7.42584E+03 -1.41821E+04  3.71751E+03 -1.62845E+04  1.39897E+04 -9.40200E+03  1.41557E+04  2.77336E+03
  9.02903E+03  1.22511E+04 -2.04750E+03  1.36934E+04 -1.03697E+04  7.96434E+03 -1.08988E+04 -7.77592E+02
 -1.02038E+04 -9.47549E+03 -1.90514E+03 -1.09623E+04  5.43014E+03 -9.61981E+03  7.23118E+03 -2.89534E+03
  4.88119E+03  2.03817E+03 -1.28220E+03  2.20109E+03 -5.64001E+02 -2.60459E+03  2.08619E+03 -5.66052E+03
  1.03664E+04 -4.42330E+03  1.39585E+04  7.86757E+02  1.36213E+04  1.02531E+04  9.65848E+03  1.81167E+04
 -4.24669E+03  2.10812E+04 -1.78227E+04  1.56841E+04 -2.27235E+04  2.78182E+03 -1.80875E+04 -7.64714E+03
 -9.39118E+03 -1.51104E+04 -6.40143E+02 -1.37615E+04  5.39792E+03 -7.03066E+03  4.24575E+03 -4.90045E+03
  2.93226E+03 -3.66869E+03  4.04419E+03 -3.97558E+03  5.80845E+03 -2.89534E+03  7.13002E+03 -9.20339E+02
  9.98013E+03  1.55064E+03  4.72171E+03  8.52201E+03 -2.71312E+03  9.59177E+03 -9.73233E+03  7.39129E+03
 -1.25238E+04 -1.28670E+03 -7.96115E+03 -8.67368E+03  4.36185E+01 -1.36097E+04  8.39145E+03 -1.40907E+04
  1.43261E+04 -7.92653E+03  1.72940E+04  1.67376E+03  1.10941E+04  1.19854E+04  1.84515E+03  1.56731E+04
 -5.99840E+03  1.28409E+04 -9.43287E+03  4.37058E+03 -6.53405E+03 -1.10112E+03 -1.90676E+03 -1.99597E+03
 -1.01902E+03  2.13690E+02 -1.71269E+03  2.87642E+03 -5.37095E+03  1.72467E+03 -8.99307E+03 -9.54578E+02
 -6.29388E+03 -9.63276E+03 -5.07109E+02 -1.21141E+04  7.73032E+03 -1.17204E+04  1.26153E+04 -3.30354E+03
  1.23358E+04  6.38682E+03  6.28329E+03  1.04592E+04 -2.56553E+03  1.25784E+04 -8.75652E+03  8.54643E+03
 -1.20353E+04  7.66878E+02 -9.76182E+03 -7.43703E+03 -9.53706E+02 -1.03441E+04  5.45721E+03 -7.65305E+03
  8.47860E+03 -2.73683E+03  5.34599E+03  2.36819E+03  2.01884E+03  3.39659E+03  7.27673E+02  1.81762E+03
  2.33325E+03  6.64063E+02  3.16543E+03  1.20272E+03  3.37753E+03  4.40952E+03  3.12075E+03  7.45180E+03
 -2.58006E+03  1.01789E+04 -8.64756E+03  1.04689E+04 -1.28480E+04  1.94341E+03 -1.38630E+04 -4.61055E+03
 -6.43929E+03 -1.22758E+04  1.96876E+03 -1.35478E+04  7.92409E+03 -8.76689E+03  1.00366E+04 -1.91101E+03
  8.20692E+03  4.62338E+03  1.88583E+03  7.36323E+03 -3.95841E+03  4.54186E+03 -4.65653E+03 -9.76769E+02
 -3.20057E+03 -5.85416E+03  2.04690E+03 -5.76173E+03  5.38679E+03 -2.92088E+03  5.23282E+03  1.14227E+03
  3.24786E+03  2.83499E+03  1.88378E+03  1.93475E+03 -6.89882E+02  1.42338E+03  1.58990E+03  2.77882E+02
  1.87326E+03 -5.39129E+02  4.94980E+03  2.03101E+03  4.16793E+03  6.96677E+03 -1.26736E+03  9.50220E+03
 -6.23748E+03  6.62168E+03 -8.01924E+03  1.66384E+03 -6.93435E+03 -2.86295E+03 -2.72012E+03 -4.96037E+03
  1.37401E+03 -4.83976E+03  3.67141E+03 -2.52406E+03  3.61931E+03  3.20407E+03 -1.12321E+03  3.71930E+03
 -5.68012E+03  2.68979E+03 -6.51024E+03 -3.31123E+03 -3.44965E+03 -7.54558E+03  8.24400E+02 -7.34859E+03
  4.08628E+03 -4.04612E+03  4.78489E+03 -2.54025E+02  4.52292E+03  1.70678E+03  7.72491E+02  3.75195E+03
 -2.73474E+03  1.52314E+03 -3.38312E+03 -2.16131E+03  2.49524E+03 -4.49285E+03  5.87673E+03 -4.36609E+03
  8.02964E+03  1.57094E+00  7.30268E+03  6.01833E+03  2.96356E+03  8.16306E+03 -2.69931E+03  7.47050E+03
 -7.07887E+03  3.23287E+03 -5.91550E+03 -1.26859E+03 -3.32906E+03 -5.29106E+03  8.05399E+02 -5.33422E+03
  4.21952E+03 -2.21350E+03  4.48175E+03  1.91964E+03  1.40747E+03  4.05112E+03 -6.34371E+02  3.62214E+03
 -2.32602E+03  2.58574E+03 -1.48689E+03  7.15319E+02 -8.41219E+02  6.50047E+02 -2.01215E+03  1.57692E+03
 -2.39990E+03  3.27648E+03 -5.38910E+03  2.81982E+03 -8.28712E+03 -2.99397E+02 -9.22331E+03 -5.68097E+03
 -5.12375E+03 -1.12467E+04  1.91929E+03 -1.26843E+04  7.34217E+03 -8.77767E+03  1.16772E+04 -3.42601E+03
  1.09203E+04  2.96498E+03  6.99273E+03  6.92849E+03  3.42637E+02  8.56609E+03 -3.49770E+03  6.53792E+03
 -5.20621E+03  1.92550E+03 -2.59568E+03 -1.43441E+03 -9.92330E+02 -8.67811E+02 -4.52432E+02 -1.39114E+02
 -1.47222E+03  4.43539E+02 -2.04875E+03  1.76367E+02 -7.59810E+02 -2.58185E+03  5.41999E+01 -3.78763E+03
  3.63967E+03 -3.48597E+03  4.47577E+03 -1.99949E+02  6.44265E+03  5.60558E+03  1.48025E+03  9.21631E+03
 -3.56246E+03  9.38369E+03 -8.71683E+03  5.47923E+03 -1.00861E+04 -5.80150E+02 -7.24682E+03 -6.06822E+03
 -3.55918E+03 -8.05190E+03  1.94758E+03 -8.40226E+03  5.43973E+03 -4.79019E+03  4.56505E+03  5.16953E+02
  2.64243E+03  2.62580E+03  2.85167E+02  2.65800E+03 -1.65307E+03  5.49642E+02  4.57267E+01 -2.31342E+03
  2.63739E+03 -1.19348E+03  2.62760E+03  1.42218E+03  1.76228E+03  3.02279E+03  2.34404E+02  3.97520E+03
 -4.05982E+03  2.92222E+03 -5.96861E+03  4.73872E+02 -5.13571E+03 -3.82764E+03 -1.09285E+03 -6.73817E+03
  3.37594E+03 -6.21030E+03  6.42493E+03 -2.46007E+03  6.82733E+03  1.32661E+03  4.05793E+03  6.10690E+03
  1.27759E+03  5.53319E+03 -2.20695E+03  4.63843E+03 -4.17455E+03  2.63476E+03 -2.92274E+03  3.17653E+02
 -1.67175E+03 -4.30541E+02 -1.33124E+03  1.36981E+03 -3.53464E+03  4.64274E+02 -4.04659E+03 -8.54076E+02
 -4.24773E+03 -2.49726E+03 -1.44670E+03 -5.58145E+03  3.25565E+03 -5.36301E+03  4.91783E+03 -2.63823E+03
  5.24984E+03  8.02260E+02  2.37033E+03  3.81314E+03 -7.46262E+02  6.08343E+03 -3.53965E+03  2.84111E+03
