 $NMID ID='MM_0lb_SNR400_15hz_g55_76.RAW', FMTDAT='(8E13.5)'
 TRAMP=1., VOLUME=1. $END
  3.09251E+05 -2.45574E+02  3.37506E+05  2.51093E+05  8.49094E+04  3.37737E+05 -1.33298E+05  2.51284E+05
 -1.89875E+05  8.31964E+04 -1.11995E+05 -3.26324E+04  7.87698E+02 -5.03917E+04  5.31361E+04 -1.90242E+02
  3.54538E+04  5.28716E+04 -1.66035E+04  7.53127E+04 -6.07626E+04  6.38114E+04 -8.40682E+04  3.26372E+04
 -8.14573E+04 -1.13847E+04 -5.71814E+04 -5.07059E+04 -1.57240E+04 -7.00803E+04  2.72200E+04 -4.57889E+04
  4.01123E+04  3.97109E+03  1.67246E+04  4.82707E+04 -3.42023E+04  4.70035E+04 -6.66639E+04 -4.67069E+02
 -5.38088E+04 -5.69334E+04 -6.53570E+03 -7.63555E+04  3.37623E+04 -5.51939E+04  4.78205E+04 -1.71770E+04
  4.41013E+04  1.05883E+04  3.21394E+04  2.50915E+04  1.59719E+04  2.90943E+04 -5.09556E+03  2.62537E+04
 -2.21168E+04  1.24482E+04 -1.80586E+04 -5.44612E+03  5.53748E+03 -7.55158E+03  2.28634E+04  1.22208E+04
  7.83556E+03  3.50694E+04 -3.22566E+04  3.55931E+04 -6.33756E+04  2.97470E+03 -5.71543E+04 -4.27930E+04
 -1.21957E+04 -6.34549E+04  3.99985E+04 -4.54039E+04  5.84721E+04 -2.19925E+03  3.39845E+04  3.18886E+04
 -5.96553E+03  3.62925E+04 -3.04694E+04  1.56191E+04 -3.02876E+04 -4.57355E+03 -1.70356E+04 -1.10112E+04
 -8.61463E+03 -1.28552E+04 -2.42645E+02 -1.85842E+04  7.85362E+03 -2.32856E+04  1.51600E+04 -1.35389E+04
  1.19036E+04  5.53844E+03 -8.40468E+03  1.27870E+04 -2.10256E+04 -4.49442E+03 -8.78479E+03 -3.32349E+04
  2.28098E+04 -4.37019E+04  4.78318E+04 -1.95827E+04  4.44712E+04  1.87033E+04  1.53987E+04  4.37647E+04
 -1.60452E+04  3.33188E+04 -2.50892E+04  1.66805E+03 -9.50083E+03 -2.78354E+04  2.09297E+04 -3.37593E+04
  4.09256E+04 -9.20156E+03  3.54248E+04  2.45405E+04  1.83447E+04  4.58441E+04 -8.42096E+03  5.06648E+04
 -3.14130E+04  3.42515E+04 -4.19432E+04  9.84736E+03 -4.28309E+04 -1.70126E+04 -2.35282E+04 -3.76158E+04
  6.93181E+03 -3.80222E+04  3.14719E+04 -1.50614E+04  2.93321E+04  1.10720E+04  3.80127E+03  1.85912E+04
 -1.37908E+04  8.24348E+03 -1.03089E+04 -8.31888E+03  6.49561E+03 -1.05466E+04  1.74998E+04  5.84255E+03
  1.36254E+04  2.19834E+04 -5.73991E+03  2.46744E+04 -2.22917E+04  1.12346E+04 -2.85756E+04 -4.48406E+03
 -2.10158E+04 -1.68155E+04 -8.12525E+03 -2.02545E+04  4.37358E+03 -2.01323E+04  1.58076E+04 -1.79943E+04
  2.63293E+04 -1.25811E+04  3.20845E+04  2.54196E+03  2.39192E+04  2.00377E+04  4.42276E+03  3.62646E+04
 -1.71867E+04  3.04268E+04 -2.71083E+04  1.06456E+04 -2.08367E+04 -9.90498E+03 -4.42365E+03 -1.29315E+04
  1.75686E+03 -2.89665E+03 -4.65802E+03  6.56438E+03 -1.63632E+04  4.47268E+03 -1.59875E+04 -6.92948E+03
 -1.00854E+04 -1.81182E+04  4.91076E+03 -2.28547E+04  1.55603E+04 -1.58262E+04  1.80331E+04 -1.71396E+03
  1.11495E+04  1.23145E+04 -1.25653E+03  1.85116E+04 -1.35614E+04  1.05711E+04 -1.91025E+04 -3.72824E+03
 -1.37535E+04 -1.76140E+04 -1.60820E+03 -2.23698E+04  9.99188E+03 -1.81547E+04  1.93727E+04 -9.25072E+03
  1.76794E+04  2.94412E+02  1.28256E+04  4.76206E+03  6.86861E+03  6.38949E+02  9.17832E+03 -1.30275E+03
  1.75948E+04  2.96839E+03  1.84184E+04  1.52626E+04  1.20781E+04  2.96192E+04 -3.31424E+03  3.39901E+04
 -1.96097E+04  2.71474E+04 -3.16611E+04  1.27928E+04 -3.25435E+04 -2.13129E+03 -2.72926E+04 -1.85308E+04
 -1.17158E+04 -2.72659E+04  9.02666E+03 -2.45640E+04  2.12586E+04 -1.19805E+04  1.92267E+04  5.39777E+03
  7.08231E+03  1.40233E+04 -8.95372E+03  1.23552E+04 -1.57223E+04  2.61314E+03 -1.23383E+04 -9.48720E+03
 -3.39661E+02 -1.48620E+04  8.18228E+03 -1.15373E+04  9.94831E+03 -1.40082E+03  2.10451E+03  6.39080E+03
 -6.72687E+03  2.32644E+03 -6.25038E+03 -5.24142E+03 -2.20830E+01 -1.37683E+04  9.35785E+03 -1.35413E+04
  1.64648E+04 -6.93310E+03  1.73763E+04  2.87696E+03  1.52823E+04  1.22850E+04  7.33098E+03  1.98217E+04
 -3.60277E+03  2.14982E+04 -1.37994E+04  1.35398E+04 -1.53633E+04  3.34274E+03 -1.10137E+04 -3.86762E+03
 -5.45164E+03 -5.02997E+03 -2.92232E+02  1.05514E+03 -1.95876E+03  2.05992E+03 -4.56215E+03  4.46540E+03
 -9.92197E+03 -4.17190E+02 -1.08863E+04 -9.16471E+03 -4.25892E+03 -1.49345E+04  5.13604E+03 -1.10668E+04
  9.34376E+03 -4.68466E+03  7.13293E+03  2.66430E+03  1.23211E+02  3.81728E+03 -4.83718E+03  4.13470E+01
 -5.23315E+03 -7.20509E+03 -1.14463E+03 -1.02907E+04  5.48482E+03 -1.06840E+04  1.33028E+04 -5.57942E+03
  1.47387E+04  1.16242E+03  1.14185E+04  9.14441E+03  2.16966E+03  1.22258E+04 -6.70717E+03  1.10840E+04
 -8.81137E+03  3.66577E+03 -4.57889E+03 -1.82540E+03  1.72592E+03 -1.79791E+03  6.21503E+03 -7.83292E+02
  5.18854E+03  4.46445E+03  9.41672E+02  9.10757E+03 -5.67308E+03  8.56058E+03 -1.01423E+04  2.19757E+03
 -7.41532E+03 -5.21115E+03  5.63954E+02 -9.48446E+03  5.31586E+03 -4.07825E+03  5.92033E+03  2.05712E+03
  1.59642E+03  5.34674E+03 -5.32337E+03  7.18677E+03 -8.54927E+03  2.85522E+03 -7.88987E+03 -2.21763E+03
 -4.60593E+03 -8.93635E+03  2.15365E+03 -1.01926E+04  9.58367E+03 -6.68011E+03  9.65783E+03  1.79332E+03
  6.16386E+03  7.93216E+03 -4.04174E+02  1.04736E+04 -7.03566E+03  5.84156E+03 -8.04322E+03 -8.46685E+02
 -7.56494E+03 -7.07707E+03 -1.89167E+03 -7.63521E+03  3.87437E+03 -5.94601E+03  4.63436E+03 -3.21070E+03
  3.68989E+03  3.54415E+02  7.24668E+00  2.22882E+03  7.19362E+01 -1.63738E+03  1.38921E+03 -3.36298E+03
  6.11830E+03 -2.04397E+03  9.32292E+03  2.01309E+03  8.76018E+03  5.46619E+03  6.86025E+03  1.17358E+04
 -3.01538E+03  1.34818E+04 -1.20075E+04  9.86692E+03 -1.48767E+04  1.54551E+03 -1.19627E+04 -4.25948E+03
 -5.85020E+03 -9.51094E+03 -5.86809E+02 -8.09472E+03  2.69511E+03 -4.65231E+03  2.22220E+03 -3.08690E+03
  2.42645E+03 -2.22101E+03  2.97729E+03 -2.54760E+03  4.46603E+03 -2.44447E+03  5.40286E+03 -4.42091E+02
  6.70263E+03  1.09847E+03  2.34242E+03  5.13034E+03 -1.92255E+03  5.31953E+03 -6.37171E+03  4.48063E+03
 -8.39457E+03 -9.35397E+02 -4.49944E+03 -5.18757E+03 -1.42100E+01 -8.42109E+03  4.99427E+03 -7.94750E+03
  8.72017E+03 -4.65136E+03  1.01919E+04  1.35736E+03  7.62591E+03  6.46858E+03  1.42788E+03  9.49859E+03
 -3.71269E+03  8.84166E+03 -5.06358E+03  3.02082E+03 -3.10752E+03 -1.26901E+03 -9.04980E+02 -7.95765E+02
 -4.37350E+02  4.50352E+02 -2.14202E+03  1.48271E+03 -3.98135E+03  1.64385E+03 -5.72881E+03 -4.04182E+02
 -3.17504E+03 -6.31148E+03  1.97213E+02 -7.55103E+03  3.60524E+03 -6.86380E+03  6.39461E+03 -2.14440E+03
  7.57066E+03  3.74927E+03  3.21905E+03  6.39983E+03 -1.50006E+03  7.16418E+03 -4.73655E+03  4.67994E+03
 -6.43024E+03  3.65346E+02 -5.78167E+03 -3.94074E+03 -8.32435E+02 -5.75942E+03  2.63775E+03 -4.20145E+03
  3.91655E+03 -1.58492E+03  2.99630E+03  9.58658E+02  7.58303E+02  2.60736E+03  9.92318E+02  1.01795E+03
  1.71502E+03  4.60351E+02  2.20875E+03  7.31851E+02  1.28568E+03  2.40988E+03  2.01973E+03  2.88186E+03
 -1.74637E+03  5.21824E+03 -4.82732E+03  5.98047E+03 -5.97189E+03  2.14929E+03 -7.26197E+03 -2.13477E+03
 -2.72521E+03 -6.80889E+03  1.05564E+03 -7.75722E+03  4.22081E+03 -4.89474E+03  5.39785E+03 -1.47560E+03
  3.81213E+03  3.45106E+03  1.00082E+03  3.11035E+03 -1.21776E+03  2.41262E+03 -2.24922E+03 -7.66552E+02
 -8.31971E+02 -3.11146E+03  1.32267E+03 -2.81331E+03  2.58942E+03 -1.05543E+03  2.19156E+03  4.94227E+02
  1.82342E+03  1.26904E+03  1.36185E+03  7.94048E+02 -5.06738E+02  9.71670E+02  1.93175E+03 -4.02788E+02
  6.43375E+02 -5.84793E+02  2.69703E+03  1.69687E+03  1.62160E+03  3.27637E+03 -3.91710E+02  4.68069E+03
 -2.89106E+03  2.31935E+03 -3.68390E+03  5.42528E+02 -3.56685E+03 -1.72773E+03 -9.41384E+02 -2.88839E+03
  2.89765E+02 -2.06763E+03  1.78602E+03 -9.57149E+02  9.00736E+02  1.86322E+03 -7.86509E+02  1.47473E+03
 -2.42107E+03  8.94258E+02 -2.81546E+03 -2.50604E+03 -1.42090E+03 -3.42978E+03  7.18138E+01 -3.88601E+03
  1.54270E+03 -1.95247E+03  2.47693E+03 -2.36737E+01  2.13430E+03  7.73246E+02  5.08449E+02  2.22277E+03
 -8.94253E+02  2.88416E+02 -2.00941E+03 -9.08924E+02  2.99178E+02 -1.98905E+03  3.13735E+03 -1.81247E+03
  3.26775E+03  3.57813E+02  4.82850E+03  2.83725E+03  1.77226E+03  3.67883E+03 -6.80142E+02  3.42413E+03
 -3.40975E+03  1.11011E+03 -2.79807E+03 -4.88642E+02 -1.41084E+03 -2.57326E+03  1.05190E+03 -2.36114E+03
  3.05132E+03 -9.89265E+02  1.92106E+03  9.81552E+02  4.90470E+02  1.98282E+03  9.31427E+01  2.17761E+03
 -9.93576E+02  2.12505E+03 -6.26740E+02  2.10418E+02 -3.02299E+02  5.57001E+02 -5.46534E+02  9.41760E+02
 -9.99142E+02  1.23021E+03 -2.70841E+03  1.22018E+03 -3.49333E+03 -1.33303E+02 -4.12476E+03 -2.15606E+03
 -2.50869E+03 -4.42064E+03  6.28361E+02 -5.35075E+03  3.31835E+03 -4.61889E+03  5.19323E+03 -1.37146E+03
  4.44115E+03  8.45798E+02  2.41956E+03  2.91562E+03 -5.21856E+02  3.46334E+03 -1.29004E+03  2.65742E+03
 -1.70238E+03  1.71249E+03 -1.45764E+03 -7.95939E+02  1.72334E+02  9.31458E+01 -8.97577E+02 -2.28515E+02
 -1.45317E+03  3.15048E+02 -1.07118E+03 -2.46997E+02 -3.35108E+02 -6.79098E+02  4.92599E+01 -1.65007E+03
  1.68259E+03 -1.02392E+03  2.01242E+03  8.74138E+00  2.67836E+03  2.13099E+03  7.82107E+02  3.04076E+03
 -1.62221E+03  4.27532E+03 -3.37320E+03  2.71449E+03 -3.61198E+03 -4.04460E+02 -2.64094E+03 -2.74044E+03
 -1.15741E+03 -2.82639E+03  7.60329E+02 -2.83058E+03  1.75664E+03 -1.82246E+03  2.12118E+03  1.70514E+02
  1.15938E+03  1.48834E+03 -4.49421E+02  4.12953E+02 -1.82128E+01  3.03184E+02 -2.84798E+02 -5.37050E+02
  7.29234E+02 -3.89690E+00  7.58191E+02  1.11835E+02  9.11383E+02  1.26754E+03  5.70288E+02  6.33295E+02
 -9.05287E+02  1.55859E+03 -1.32785E+03  4.37826E+02 -2.10571E+03 -1.17408E+03 -5.23686E+02 -2.49829E+03
  1.50271E+03 -1.73236E+03  2.37500E+03 -1.05178E+03  2.02379E+03  3.23954E+02  1.26372E+03  1.95560E+03
  3.36960E+01  2.17197E+03 -5.87502E+02  1.42715E+03 -9.33774E+02  8.97370E+02 -1.43906E+03  6.65516E+01
 -9.59849E+02  1.01859E+02 -1.29190E+03  3.51884E+02 -1.43427E+03  7.16775E+02 -1.82357E+03 -3.57146E+02
 -2.68692E+03 -7.30276E+02  3.46861E+01 -1.68522E+03  1.14334E+03 -2.16830E+03  1.54505E+03 -8.63369E+02
  1.61387E+03  2.03072E+02  5.57332E+02  1.19920E+03 -5.14451E+02  1.97119E+03 -7.63155E+02  1.02985E+03
