 $NMID ID='MM_0lb_SNR400_12hz_g40_3.RAW', FMTDAT='(8E13.5)'
 TRAMP=1., VOLUME=1. $END
  3.09396E+05  6.41959E+02  3.37796E+05  2.50932E+05  8.44289E+04  3.37470E+05 -1.32975E+05  2.50795E+05
 -1.90839E+05  8.24939E+04 -1.12580E+05 -3.24916E+04  4.54548E+02 -5.05443E+04  5.35839E+04  4.81542E+01
  3.51994E+04  5.19917E+04 -1.64618E+04  7.58449E+04 -6.05721E+04  6.40345E+04 -8.41428E+04  3.23115E+04
 -8.14890E+04 -1.18316E+04 -5.73147E+04 -5.14360E+04 -1.44547E+04 -6.90206E+04  2.72809E+04 -4.60686E+04
  4.00986E+04  3.65385E+03  1.62512E+04  4.78657E+04 -3.45011E+04  4.77959E+04 -6.72259E+04 -3.64643E+02
 -5.39008E+04 -5.69412E+04 -6.60666E+03 -7.70553E+04  3.35758E+04 -5.54618E+04  4.79177E+04 -1.73262E+04
  4.31495E+04  1.19173E+04  3.15419E+04  2.51386E+04  1.57739E+04  2.85898E+04 -5.22403E+03  2.76362E+04
 -2.16620E+04  1.23143E+04 -1.83056E+04 -5.16166E+03  5.69196E+03 -7.58974E+03  2.23375E+04  1.25383E+04
  7.20998E+03  3.56013E+04 -3.24724E+04  3.57672E+04 -6.35915E+04  2.19114E+03 -5.72460E+04 -4.34243E+04
 -1.23133E+04 -6.38559E+04  3.96498E+04 -4.54692E+04  5.83765E+04 -2.06305E+03  3.52873E+04  3.25294E+04
 -5.63910E+03  3.62452E+04 -3.06289E+04  1.71172E+04 -3.07096E+04 -4.73964E+03 -1.74241E+04 -1.12782E+04
 -9.06393E+03 -1.37757E+04 -1.23606E+03 -1.88104E+04  7.68365E+03 -2.30607E+04  1.49790E+04 -1.31739E+04
  1.12709E+04  4.96676E+03 -8.35415E+03  1.29604E+04 -2.15096E+04 -4.09020E+03 -7.94446E+03 -3.46387E+04
  2.27557E+04 -4.40173E+04  4.86780E+04 -2.03487E+04  4.52984E+04  1.94157E+04  1.64844E+04  4.46575E+04
 -1.68399E+04  3.41810E+04 -2.59255E+04  2.16162E+03 -1.05725E+04 -2.76380E+04  2.13717E+04 -3.38999E+04
  4.15957E+04 -9.61113E+03  3.63002E+04  2.42672E+04  1.83700E+04  4.68874E+04 -7.86560E+03  5.08954E+04
 -3.22722E+04  3.46303E+04 -4.28909E+04  9.88248E+03 -4.42333E+04 -1.70537E+04 -2.39456E+04 -3.87624E+04
  7.15502E+03 -3.85572E+04  3.20949E+04 -1.53280E+04  3.02103E+04  1.12728E+04  4.71003E+03  2.02640E+04
 -1.33358E+04  8.71358E+03 -1.05732E+04 -7.86285E+03  6.13410E+03 -1.08397E+04  1.77512E+04  5.66536E+03
  1.36762E+04  2.20647E+04 -5.52354E+03  2.60066E+04 -2.27804E+04  1.21468E+04 -2.90762E+04 -4.26658E+03
 -2.19305E+04 -1.71664E+04 -8.75214E+03 -2.12580E+04  4.32905E+03 -2.08320E+04  1.64700E+04 -1.96933E+04
  2.72769E+04 -1.32982E+04  3.30898E+04  3.94107E+03  2.49356E+04  2.12098E+04  3.76683E+03  3.74516E+04
 -1.77909E+04  3.07617E+04 -2.88050E+04  1.08083E+04 -2.10184E+04 -1.05275E+04 -4.53835E+03 -1.33086E+04
  1.80403E+03 -2.13536E+03 -5.06602E+03  7.27993E+03 -1.70861E+04  5.47895E+03 -1.73748E+04 -7.38302E+03
 -1.05128E+04 -2.00198E+04  4.78007E+03 -2.38803E+04  1.62908E+04 -1.65681E+04  1.87582E+04 -1.25668E+03
  1.22241E+04  1.36671E+04 -6.22178E+02  1.95176E+04 -1.35434E+04  1.10760E+04 -1.98248E+04 -4.40851E+03
 -1.38363E+04 -1.81039E+04 -1.88195E+03 -2.42310E+04  1.07747E+04 -1.97837E+04  2.00242E+04 -1.02435E+04
  1.92628E+04  3.46577E+02  1.40815E+04  4.83282E+03  7.44720E+03  8.67538E+02  1.00715E+04 -1.83608E+03
  1.83165E+04  2.83939E+03  2.07257E+04  1.57999E+04  1.33029E+04  3.17276E+04 -2.56544E+03  3.61526E+04
 -2.13203E+04  2.93381E+04 -3.39452E+04  1.42660E+04 -3.58088E+04 -2.67342E+03 -2.95810E+04 -2.07753E+04
 -1.27547E+04 -2.99246E+04  1.03581E+04 -2.61456E+04  2.31854E+04 -1.32777E+04  2.08830E+04  6.86701E+03
  6.91960E+03  1.60645E+04 -8.89139E+03  1.34091E+04 -1.68049E+04  2.50711E+03 -1.33028E+04 -1.11236E+04
  6.34007E+02 -1.59746E+04  8.13223E+03 -1.22099E+04  1.09369E+04 -2.07018E+03  2.64304E+03  7.13870E+03
 -7.58997E+03  3.04361E+03 -6.29383E+03 -6.38900E+03 -9.27308E+02 -1.47000E+04  9.79733E+03 -1.51518E+04
  1.76643E+04 -8.06502E+03  1.98298E+04  3.49955E+03  1.68226E+04  1.41969E+04  7.72667E+03  2.19178E+04
 -3.84966E+03  2.38914E+04 -1.57229E+04  1.49572E+04 -1.70240E+04  2.97869E+03 -1.21508E+04 -3.76928E+03
 -5.62622E+03 -5.78846E+03 -1.14090E+03  8.09755E+02 -2.64029E+03  3.46366E+03 -5.28688E+03  4.30926E+03
 -1.11369E+04 -1.24402E+03 -1.17779E+04 -9.73034E+03 -4.89624E+03 -1.59392E+04  5.19239E+03 -1.20000E+04
  1.03053E+04 -5.79277E+03  6.98079E+03  3.25479E+03  3.15493E+02  5.28801E+03 -5.77446E+03  2.10807E+02
 -5.55278E+03 -7.59830E+03 -7.48977E+02 -1.15743E+04  6.75566E+03 -1.24461E+04  1.52666E+04 -6.59136E+03
  1.75167E+04  2.08864E+03  1.35875E+04  1.00671E+04  2.17766E+03  1.38228E+04 -7.01829E+03  1.23328E+04
 -1.01579E+04  3.52383E+03 -5.21817E+03 -2.24633E+03  2.14310E+03 -3.84330E+03  6.87361E+03 -1.06487E+03
  5.48092E+03  5.85457E+03  1.73991E+03  9.59374E+03 -6.94142E+03  9.45558E+03 -1.23142E+04  2.74798E+03
 -8.71152E+03 -6.07087E+03  7.40555E+02 -9.93213E+03  6.82687E+03 -5.04027E+03  5.82862E+03  2.40433E+03
  9.44885E+02  6.78867E+03 -7.02190E+03  8.94147E+03 -9.01307E+03  3.47178E+03 -9.19706E+03 -3.13756E+03
 -5.46390E+03 -1.07206E+04  2.82748E+03 -1.29374E+04  1.09150E+04 -7.31168E+03  1.18636E+04  2.05538E+03
  6.90289E+03  9.71763E+03 -1.35894E+02  1.14060E+04 -8.54575E+03  7.30493E+03 -9.61240E+03 -6.79870E+02
 -8.07951E+03 -7.90360E+03 -1.53737E+03 -8.69115E+03  4.66552E+03 -7.18792E+03  5.70490E+03 -3.24063E+03
  4.36790E+03  6.63606E+02 -6.20166E+02  1.35211E+03 -3.22327E+01 -2.56011E+03  2.01808E+03 -4.76670E+03
  8.31832E+03 -2.91641E+03  1.12679E+04  1.64323E+03  1.04550E+04  7.84453E+03  7.83226E+03  1.43627E+04
 -3.55773E+03  1.72199E+04 -1.40647E+04  1.21900E+04 -1.82141E+04  1.87557E+03 -1.49889E+04 -5.92687E+03
 -7.22816E+03 -1.20496E+04 -9.95501E+02 -9.56684E+03  3.42049E+03 -5.94753E+03  3.96495E+03 -3.93074E+03
  2.60132E+03 -1.82993E+03  2.58323E+03 -2.68922E+03  4.55749E+03 -3.37861E+03  6.04988E+03 -3.62970E+02
  7.07339E+03  1.83643E+03  4.19753E+03  5.96206E+03 -2.20541E+03  7.12806E+03 -7.98945E+03  5.81164E+03
 -1.00453E+04 -7.47739E+02 -6.01000E+03 -6.54572E+03 -4.55403E+02 -1.13293E+04  6.36632E+03 -1.09744E+04
  1.03776E+04 -5.75039E+03  1.30806E+04  1.29006E+03  9.63533E+03  8.97902E+03  1.41544E+03  1.22994E+04
 -4.34557E+03  1.04142E+04 -6.87034E+03  3.77039E+03 -4.39428E+03 -1.57722E+03 -1.48673E+03 -9.56026E+02
 -1.07924E+03  3.64492E+02 -7.80952E+02  2.73295E+03 -4.50361E+03  1.57574E+03 -6.66961E+03 -1.33333E+03
 -4.58911E+03 -7.01046E+03  5.42925E+02 -1.01874E+04  5.98586E+03 -9.08917E+03  9.50940E+03 -3.24172E+03
  9.11509E+03  5.18958E+03  4.26474E+03  8.59144E+03 -2.07659E+03  9.98343E+03 -6.83530E+03  5.67058E+03
 -9.29756E+03  7.84659E+02 -7.53579E+03 -5.64606E+03 -8.38322E+02 -8.02144E+03  3.84737E+03 -5.88877E+03
  5.75518E+03 -2.31384E+03  4.02122E+03  1.42765E+03  1.28298E+03  2.97254E+03  1.67200E+03  1.21100E+03
  2.07498E+03  4.32509E+02  2.04034E+03  1.30473E+03  3.05208E+03  4.13416E+03  2.82140E+03  4.59978E+03
 -2.38741E+03  7.20286E+03 -6.22939E+03  8.07337E+03 -8.70385E+03  1.87140E+03 -1.02268E+04 -3.43645E+03
 -4.13661E+03 -9.11584E+03  1.05240E+03 -1.02028E+04  5.44461E+03 -6.90862E+03  7.87324E+03 -1.95623E+03
  6.36883E+03  4.06675E+03  1.60133E+03  5.33045E+03 -2.33178E+03  3.36721E+03 -3.85399E+03 -2.70079E+02
 -1.40880E+03 -3.83082E+03  2.42701E+03 -3.89232E+03  4.51075E+03 -1.78456E+03  3.39729E+03  9.60654E+02
  1.65972E+03  2.09191E+03  7.52448E+02  6.78558E+02 -4.15733E+02  1.85234E+03  1.08064E+03  1.56671E+02
  1.17611E+03 -8.15672E+01  3.62584E+03  2.08922E+03  1.96171E+03  5.30170E+03 -6.78805E+02  6.45916E+03
 -4.57217E+03  3.62667E+03 -5.45550E+03  1.49843E+03 -5.43140E+03 -1.85612E+03 -1.35128E+03 -4.01050E+03
  9.80318E+02 -3.68489E+03  2.20911E+03 -2.41616E+03  1.94951E+03  2.03510E+03 -1.32204E+03  3.36295E+03
 -3.98538E+03  1.56581E+03 -4.31652E+03 -2.59260E+03 -2.58711E+03 -5.04474E+03  1.08712E+03 -4.78845E+03
  3.09491E+03 -2.66656E+03  3.14280E+03 -1.57982E+02  2.97429E+03  9.80652E+02  3.70956E+02  2.69715E+03
 -1.22987E+03  4.01750E+02 -2.41544E+03 -1.31628E+03  9.03504E+02 -3.35002E+03  3.92291E+03 -3.07926E+03
  4.61268E+03  9.38824E+02  5.68520E+03  3.29526E+03  2.08123E+03  5.69429E+03 -1.82961E+03  5.44916E+03
 -3.94905E+03  2.09557E+03 -5.20896E+03 -2.39784E+02 -2.46755E+03 -3.53765E+03  1.15206E+03 -2.91956E+03
  3.43528E+03 -1.59104E+03  3.72179E+03  1.22008E+03  8.93581E+02  3.12341E+03 -4.45968E+02  3.00978E+03
 -1.33713E+03  2.51400E+03 -1.35340E+03 -3.65432E+01 -8.22646E+02  5.80841E+02 -1.00876E+03  1.54282E+03
 -1.44062E+03  2.38612E+03 -4.18464E+03  1.56647E+03 -5.72170E+03 -1.27596E+01 -6.95830E+03 -4.12450E+03
 -2.44989E+03 -7.62214E+03  1.65701E+03 -9.01788E+03  5.17071E+03 -6.99234E+03  7.86662E+03 -3.17624E+03
  7.59786E+03  8.32854E+02  4.64592E+03  5.31716E+03 -4.13354E+02  5.41907E+03 -2.77482E+03  4.68330E+03
 -3.09133E+03  1.38508E+03 -2.11182E+03 -4.41291E+02 -8.18855E+02 -2.07198E+02 -9.40784E+02 -5.12646E+01
 -1.74356E+03 -1.31360E+01 -9.71099E+02  5.11022E+01  1.05715E+02 -1.03688E+03  1.35243E+02 -2.49498E+03
  3.08040E+03 -2.04703E+03  2.53637E+03 -9.95382E+01  4.06513E+03  2.91244E+03  3.40824E+02  6.03158E+03
 -2.78483E+03  6.51126E+03 -6.25352E+03  4.11612E+03 -6.55510E+03  5.98329E+00 -5.45840E+03 -4.33934E+03
 -1.86393E+03 -6.17413E+03  1.29968E+03 -5.37734E+03  4.56402E+03 -2.86278E+03  3.67942E+03  2.18524E+02
  2.72679E+03  2.30348E+03 -2.03720E+02  1.15975E+03 -7.12196E+02  3.30430E+02  5.05744E+02 -1.69219E+03
  1.56652E+03 -4.97359E+02  1.72957E+03  1.30698E+03  8.26700E+02  2.23688E+03  3.43038E+02  2.86898E+03
 -2.64750E+03  2.54344E+03 -3.12616E+03  7.65021E+02 -3.09833E+03 -2.47677E+03  1.36910E+02 -4.60861E+03
  2.07123E+03 -4.15621E+03  4.20778E+03 -7.70564E+02  4.74672E+03 -7.49068E+01  2.85929E+03  3.12669E+03
  3.78069E+02  3.75107E+03 -1.33307E+03  2.58209E+03 -2.16849E+03  2.08580E+03 -1.71342E+03  1.11917E+03
 -8.49268E+02  1.78226E+02 -1.18657E+03  4.49284E+02 -2.28334E+03  8.37366E+02 -2.91620E+03 -7.63809E+02
 -3.12027E+03 -1.16841E+03 -1.09166E+03 -3.32589E+03  1.87059E+03 -4.65221E+03  3.06097E+03 -1.36516E+03
  3.53274E+03  4.14869E+02  1.80831E+03  2.37180E+03 -1.57369E+02  4.17364E+03 -2.34015E+03  2.27397E+03
