 $NMID ID='MM_0lb_SNR400_12hz_g60_91.RAW', FMTDAT='(8E13.5)'
 TRAMP=1., VOLUME=1. $END
  3.09161E+05  1.27034E+03  3.37519E+05  2.51100E+05  8.40956E+04  3.38466E+05 -1.32766E+05  2.51689E+05
 -1.91160E+05  8.33601E+04 -1.12199E+05 -3.18369E+04  6.88265E+02 -5.06077E+04  5.39914E+04 -1.64343E+01
  3.48784E+04  5.27845E+04 -1.63317E+04  7.57297E+04 -6.17878E+04  6.42137E+04 -8.52477E+04  3.23683E+04
 -8.18796E+04 -1.13322E+04 -5.71195E+04 -5.17175E+04 -1.52082E+04 -7.06736E+04  2.79648E+04 -4.68754E+04
  4.10430E+04  3.31781E+03  1.62223E+04  4.87266E+04 -3.50862E+04  4.89375E+04 -6.77209E+04 -4.14990E+02
 -5.48550E+04 -5.70055E+04 -7.33457E+03 -7.82544E+04  3.41923E+04 -5.70179E+04  4.90900E+04 -1.83231E+04
  4.47085E+04  1.16507E+04  3.25207E+04  2.66665E+04  1.56967E+04  2.96394E+04 -6.20901E+03  2.73520E+04
 -2.24298E+04  1.21554E+04 -1.83822E+04 -5.52389E+03  5.90655E+03 -7.75537E+03  2.38731E+04  1.37402E+04
  7.37700E+03  3.70901E+04 -3.40251E+04  3.68790E+04 -6.51344E+04  1.78703E+03 -5.77442E+04 -4.40014E+04
 -1.26513E+04 -6.49229E+04  4.10968E+04 -4.71025E+04  6.03524E+04 -3.01632E+03  3.63755E+04  3.36335E+04
 -5.78017E+03  3.91750E+04 -3.15779E+04  1.81762E+04 -3.29125E+04 -3.88798E+03 -1.83823E+04 -1.09742E+04
 -9.04495E+03 -1.40236E+04 -9.99076E+02 -1.95965E+04  8.27362E+03 -2.25763E+04  1.53870E+04 -1.26774E+04
  1.06491E+04  6.55700E+03 -9.86158E+03  1.25207E+04 -2.21680E+04 -5.90719E+03 -8.84552E+03 -3.66186E+04
  2.44900E+04 -4.53078E+04  5.09382E+04 -2.05832E+04  4.73512E+04  2.02465E+04  1.65500E+04  4.57167E+04
 -1.71029E+04  3.53759E+04 -2.73677E+04  2.48631E+03 -1.18281E+04 -2.88235E+04  2.11154E+04 -3.59481E+04
  4.34087E+04 -1.07223E+04  3.92132E+04  2.39547E+04  2.03458E+04  5.00649E+04 -8.19093E+03  5.42995E+04
 -3.41694E+04  3.69193E+04 -4.61686E+04  1.03002E+04 -4.63145E+04 -1.71752E+04 -2.49627E+04 -4.02899E+04
  7.44232E+03 -4.09108E+04  3.33314E+04 -1.65523E+04  3.17970E+04  1.15786E+04  4.82780E+03  1.96891E+04
 -1.38950E+04  9.27812E+03 -1.13674E+04 -7.81066E+03  6.22726E+03 -1.13399E+04  1.85928E+04  6.17505E+03
  1.53029E+04  2.25565E+04 -5.61302E+03  2.63200E+04 -2.30225E+04  1.36236E+04 -3.02455E+04 -3.53490E+03
 -2.44647E+04 -1.87280E+04 -1.01768E+04 -2.41990E+04  3.80651E+03 -2.35195E+04  1.81562E+04 -2.08391E+04
  3.04048E+04 -1.37908E+04  3.58624E+04  4.19529E+03  2.56076E+04  2.31853E+04  4.23443E+03  3.97741E+04
 -1.96767E+04  3.23441E+04 -3.03090E+04  1.11359E+04 -2.23467E+04 -9.89886E+03 -4.59814E+03 -1.33821E+04
  8.86418E+02 -2.22483E+03 -7.04392E+03  8.10890E+03 -1.92452E+04  5.13239E+03 -1.83866E+04 -8.80098E+03
 -1.14975E+04 -2.20742E+04  6.27099E+03 -2.65673E+04  1.76189E+04 -1.83674E+04  2.08791E+04 -1.28612E+03
  1.30451E+04  1.55634E+04 -9.73484E+02  2.13212E+04 -1.47253E+04  1.20845E+04 -2.15338E+04 -4.65826E+03
 -1.51863E+04 -1.89536E+04 -1.64177E+03 -2.60133E+04  1.16887E+04 -2.15704E+04  2.16777E+04 -1.09688E+04
  2.01048E+04  5.90562E+02  1.45514E+04  4.40787E+03  8.44043E+03  1.71944E+03  1.17811E+04 -2.15825E+03
  2.05252E+04  2.91355E+03  2.33071E+04  1.69148E+04  1.57640E+04  3.46749E+04 -3.26709E+03  3.98263E+04
 -2.34260E+04  3.41291E+04 -3.77898E+04  1.68782E+04 -4.18178E+04 -2.38365E+03 -3.24205E+04 -2.33602E+04
 -1.30891E+04 -3.39494E+04  1.17786E+04 -2.94929E+04  2.52673E+04 -1.50516E+04  2.18413E+04  7.13548E+03
  7.73682E+03  1.65301E+04 -1.04367E+04  1.45309E+04 -1.86246E+04  2.93361E+03 -1.40408E+04 -1.12852E+04
  3.90603E+02 -1.78318E+04  9.68958E+03 -1.27259E+04  1.20305E+04 -1.71595E+03  2.77278E+03  8.00888E+03
 -8.55832E+03  4.28753E+03 -7.73717E+03 -6.83947E+03 -1.41216E+03 -1.61803E+04  1.05559E+04 -1.74829E+04
  2.02827E+04 -9.39607E+03  2.29792E+04  3.42874E+03  2.03043E+04  1.57108E+04  9.70812E+03  2.58328E+04
 -5.15028E+03  2.77056E+04 -1.76431E+04  1.70369E+04 -2.06309E+04  3.84363E+03 -1.31100E+04 -4.58630E+03
 -5.60790E+03 -6.54635E+03 -6.55788E+02  4.53047E+02 -2.98035E+03  3.37079E+03 -6.27303E+03  4.97632E+03
 -1.22926E+04 -6.04389E+02 -1.31040E+04 -1.05704E+04 -4.58389E+03 -1.66312E+04  5.37642E+03 -1.41032E+04
  1.15410E+04 -6.09374E+03  7.82293E+03  3.08029E+03  1.48885E+02  5.94597E+03 -7.17272E+03 -1.62759E+02
 -6.73292E+03 -8.70611E+03 -1.09960E+03 -1.35267E+04  7.69437E+03 -1.45113E+04  1.68966E+04 -7.00614E+03
  2.08718E+04  1.80214E+03  1.50678E+04  1.28235E+04  2.41334E+03  1.62467E+04 -8.17912E+03  1.36476E+04
 -1.13348E+04  4.40434E+03 -6.11111E+03 -2.61914E+03  1.81783E+03 -3.99490E+03  7.66672E+03 -7.64129E+02
  6.45821E+03  6.03469E+03  1.23270E+03  1.12376E+04 -8.64686E+03  1.05185E+04 -1.31348E+04  2.10620E+03
 -9.64380E+03 -7.24003E+03  3.98867E+02 -1.12155E+04  7.46479E+03 -5.25446E+03  6.86300E+03  2.87996E+03
  1.91314E+03  8.35180E+03 -7.15697E+03  9.99686E+03 -1.19473E+04  5.30057E+03 -1.17860E+04 -3.69592E+03
 -6.28311E+03 -1.25897E+04  3.50205E+03 -1.48717E+04  1.28500E+04 -9.23166E+03  1.40327E+04  1.88085E+03
  8.31897E+03  1.13970E+04 -7.05496E+02  1.35735E+04 -9.58937E+03  6.98072E+03 -1.04950E+04 -1.12825E+03
 -9.45925E+03 -8.82283E+03 -2.19355E+03 -1.01896E+04  5.54806E+03 -8.37634E+03  6.51515E+03 -3.26543E+03
  4.92366E+03  1.86097E+03 -4.57651E+02  1.70464E+03 -6.18953E+02 -2.34764E+03  1.93213E+03 -6.02468E+03
  9.21010E+03 -3.79399E+03  1.32418E+04  1.39266E+03  1.23107E+04  8.93278E+03  8.45668E+03  1.68002E+04
 -4.01133E+03  1.97864E+04 -1.57908E+04  1.39034E+04 -2.12193E+04  2.32098E+03 -1.70370E+04 -7.26753E+03
 -8.82758E+03 -1.38072E+04 -1.09289E+03 -1.13165E+04  4.44418E+03 -6.57589E+03  4.11113E+03 -4.72967E+03
  3.36618E+03 -2.41283E+03  3.26601E+03 -3.64960E+03  5.09709E+03 -2.93414E+03  6.41043E+03 -3.76421E+02
  8.13765E+03  2.35784E+03  4.42552E+03  7.17778E+03 -1.51839E+03  8.63906E+03 -8.92501E+03  7.53655E+03
 -1.22678E+04 -1.26291E+03 -7.21215E+03 -8.03899E+03 -6.16920E+02 -1.22373E+04  6.39604E+03 -1.20840E+04
  1.38333E+04 -7.75375E+03  1.55909E+04  1.52302E+03  1.08666E+04  1.11705E+04  1.79259E+03  1.42606E+04
 -5.99112E+03  1.19433E+04 -8.55510E+03  3.40163E+03 -6.10734E+03 -1.45514E+03 -1.89339E+03 -1.80002E+03
 -9.08546E+02 -4.98202E+02 -1.22719E+03  2.87631E+03 -4.42077E+03  1.60991E+03 -8.24763E+03 -1.59766E+03
 -5.12339E+03 -7.71796E+03  2.95990E+02 -1.10708E+04  6.31060E+03 -1.04220E+04  1.11827E+04 -3.02113E+03
  1.15476E+04  5.20274E+03  4.80837E+03  8.83801E+03 -2.40004E+03  1.21887E+04 -7.94010E+03  7.00946E+03
 -1.05839E+04  3.38778E+02 -8.55336E+03 -6.60024E+03 -6.95816E+02 -9.00597E+03  4.67006E+03 -6.86519E+03
  7.19722E+03 -2.59323E+03  4.56765E+03  2.79587E+03  1.23568E+03  3.70370E+03  1.76445E+03  1.41283E+03
  2.41166E+03  1.05829E+03  2.37261E+03  1.81906E+03  2.73992E+03  4.19280E+03  3.07189E+03  5.79179E+03
 -2.01409E+03  8.33170E+03 -7.50593E+03  8.91814E+03 -1.09889E+04  2.04161E+03 -1.18805E+04 -4.00103E+03
 -5.22337E+03 -1.00408E+04  1.27207E+03 -1.19025E+04  5.79776E+03 -7.91803E+03  8.87742E+03 -2.43022E+03
  7.49311E+03  4.24008E+03  2.00023E+03  5.91298E+03 -2.59138E+03  4.19992E+03 -3.97588E+03 -9.29457E+02
 -2.23469E+03 -5.64281E+03  2.85390E+03 -4.09379E+03  4.22263E+03 -2.78484E+03  4.54935E+03  1.15281E+03
  2.56242E+03  1.50002E+03  6.81301E+02  6.78791E+02 -8.26633E+02  7.43095E+02  2.59655E+03 -5.57810E+02
  1.44791E+03 -6.89127E+02  4.36714E+03  2.48930E+03  2.67620E+03  5.98989E+03 -7.92601E+02  7.28133E+03
 -5.12662E+03  4.80765E+03 -6.50535E+03  1.18271E+03 -6.14334E+03 -2.23430E+03 -1.73570E+03 -4.02799E+03
  5.21224E+01 -3.80358E+03  2.53216E+03 -2.37176E+03  1.43554E+03  2.29515E+03 -1.64442E+03  3.96059E+03
 -3.77854E+03  2.20879E+03 -5.10451E+03 -2.77405E+03 -2.45709E+03 -5.59681E+03  4.15472E+02 -5.85253E+03
  3.22990E+03 -3.42729E+03  4.07981E+03  1.62160E+02  4.17422E+03  1.33948E+03  6.70221E+02  3.36725E+03
 -2.34774E+03  1.07281E+03 -2.60278E+03 -2.09855E+03  1.44116E+03 -4.42212E+03  5.09084E+03 -3.44231E+03
  6.24714E+03  1.74358E+02  7.03244E+03  4.01488E+03  2.59458E+03  6.53253E+03 -1.99837E+03  6.11940E+03
 -5.26100E+03  2.86433E+03 -5.02683E+03 -3.54488E+02 -3.43924E+03 -4.27693E+03  6.52588E+02 -3.54320E+03
  4.90312E+03 -1.61440E+03  4.07226E+03  1.08436E+03  1.48873E+03  3.82189E+03 -2.70638E+02  2.76287E+03
 -2.21870E+03  1.56860E+03 -9.69843E+02  8.47376E+02 -3.19529E+02  1.21229E+03 -1.05176E+03  2.11863E+03
 -2.02212E+03  2.29578E+03 -5.40223E+03  2.52172E+03 -5.82854E+03  3.88622E+02 -8.27388E+03 -4.58290E+03
 -3.80006E+03 -8.21091E+03  1.14506E+03 -9.77690E+03  5.54495E+03 -7.60516E+03  9.54961E+03 -2.68230E+03
  8.42202E+03  1.45140E+03  5.05854E+03  6.51095E+03  1.89569E+02  7.34452E+03 -3.12474E+03  4.64160E+03
 -4.05696E+03  1.24046E+03 -2.25882E+03 -7.90464E+02 -1.08005E+03 -4.02420E+01 -1.01357E+03 -7.18100E+02
 -1.80375E+03 -2.75062E+02 -1.55781E+03  1.99072E+02  9.95199E+00 -2.06165E+03 -5.49778E+02 -2.57125E+03
  3.14757E+03 -2.28711E+03  3.66516E+03 -4.34726E+02  4.03698E+03  3.10909E+03  7.28294E+02  6.23811E+03
 -3.35663E+03  7.48049E+03 -6.64838E+03  3.30337E+03 -7.66404E+03 -6.07463E+02 -6.03443E+03 -4.22790E+03
 -2.24344E+03 -6.96503E+03  1.85462E+03 -5.76322E+03  4.19277E+03 -3.01166E+03  3.91934E+03  1.15751E+03
  2.80532E+03  1.74046E+03 -1.00612E+03  2.20075E+03 -1.61210E+03  1.74954E+02 -3.12577E+02 -1.00043E+03
  1.79847E+03 -1.96967E+02  2.00989E+03  9.66684E+02  2.05339E+03  3.24486E+03  1.06658E+02  2.68176E+03
 -2.48406E+03  2.92994E+03 -4.29893E+03  1.52271E+02 -3.98594E+03 -2.65410E+03 -1.03308E+03 -5.62725E+03
  2.32477E+03 -4.56097E+03  4.33033E+03 -1.29037E+03  4.52027E+03  3.97985E+02  2.81601E+03  3.61226E+03
  7.76417E+02  3.40000E+03 -1.86091E+03  2.75111E+03 -2.19887E+03  1.59508E+03 -1.37404E+03  8.01346E+02
 -6.79117E+02  6.11791E+01 -1.75742E+03  6.21601E+01 -1.96951E+03  7.83126E+02 -3.42127E+03 -1.04567E+02
 -3.40987E+03 -1.38535E+03 -9.60005E+02 -3.94114E+03  2.10216E+03 -4.80630E+03  3.22203E+03 -1.80363E+03
  3.53912E+03 -2.73629E+02  2.10179E+03  2.15462E+03 -4.43059E+02  3.50846E+03 -3.14573E+03  2.52981E+03
