 $NMID ID='MM_0lb_SNR400_15hz_g45_91.RAW', FMTDAT='(8E13.5)'
 TRAMP=1., VOLUME=1. $END
  3.09782E+05  5.13196E+02  3.37785E+05  2.50628E+05  8.45851E+04  3.37572E+05 -1.32334E+05  2.51433E+05
 -1.90244E+05  8.33912E+04 -1.11235E+05 -3.26739E+04  1.14153E+03 -5.06775E+04  5.39575E+04 -3.62440E+02
  3.54061E+04  5.29725E+04 -1.68281E+04  7.55790E+04 -6.07660E+04  6.30349E+04 -8.35869E+04  3.14105E+04
 -8.05194E+04 -1.10608E+04 -5.67553E+04 -5.11448E+04 -1.49647E+04 -6.91064E+04  2.72618E+04 -4.44222E+04
  3.93078E+04  4.17270E+03  1.57791E+04  4.72754E+04 -3.38845E+04  4.65492E+04 -6.67267E+04 -4.65988E+02
 -5.28314E+04 -5.68725E+04 -6.54573E+03 -7.65775E+04  3.36216E+04 -5.42549E+04  4.69258E+04 -1.65094E+04
  4.19840E+04  1.10276E+04  3.09001E+04  2.58331E+04  1.59970E+04  2.88924E+04 -5.04891E+03  2.72797E+04
 -2.18891E+04  1.26680E+04 -1.87465E+04 -4.62442E+03  4.72040E+03 -7.89785E+03  2.17189E+04  1.18388E+04
  7.56537E+03  3.49485E+04 -3.20020E+04  3.50088E+04 -6.30564E+04  2.04183E+03 -5.73444E+04 -4.20901E+04
 -1.31682E+04 -6.20874E+04  3.93466E+04 -4.46506E+04  5.70176E+04 -1.44962E+03  3.32506E+04  3.17671E+04
 -5.94229E+03  3.46570E+04 -2.93923E+04  1.53190E+04 -2.97281E+04 -4.70834E+03 -1.66245E+04 -1.06536E+04
 -7.97475E+03 -1.21066E+04 -8.85361E+02 -1.76735E+04  7.68433E+03 -2.31894E+04  1.49632E+04 -1.36606E+04
  1.24900E+04  5.28462E+03 -8.00648E+03  1.33155E+04 -2.04213E+04 -3.83720E+03 -8.55318E+03 -3.30691E+04
  2.23183E+04 -4.26195E+04  4.70338E+04 -1.97959E+04  4.43931E+04  1.88671E+04  1.47175E+04  4.33866E+04
 -1.62885E+04  3.28104E+04 -2.49622E+04  2.14943E+03 -8.96922E+03 -2.75706E+04  2.13552E+04 -3.24651E+04
  3.99790E+04 -8.06309E+03  3.44722E+04  2.35288E+04  1.70941E+04  4.54365E+04 -8.01405E+03  4.85771E+04
 -3.02436E+04  3.29053E+04 -4.04358E+04  1.01010E+04 -4.09131E+04 -1.57770E+04 -2.29057E+04 -3.66367E+04
  6.61088E+03 -3.56022E+04  3.10202E+04 -1.44621E+04  2.87801E+04  1.09647E+04  3.89287E+03  1.89544E+04
 -1.35160E+04  8.16656E+03 -1.04880E+04 -7.71395E+03  6.62609E+03 -1.03656E+04  1.74567E+04  6.14858E+03
  1.33502E+04  2.25406E+04 -5.62952E+03  2.54420E+04 -2.25323E+04  1.04814E+04 -2.66379E+04 -5.30605E+03
 -1.91942E+04 -1.73209E+04 -8.20748E+03 -1.99041E+04  4.34733E+03 -1.81794E+04  1.50006E+04 -1.75274E+04
  2.47874E+04 -1.24218E+04  3.12767E+04  2.49588E+03  2.23856E+04  1.83201E+04  4.44315E+03  3.46923E+04
 -1.67428E+04  2.91671E+04 -2.78620E+04  1.04047E+04 -2.06994E+04 -1.03724E+04 -4.60898E+03 -1.34173E+04
  2.41651E+03 -3.17903E+03 -4.56600E+03  6.34138E+03 -1.56288E+04  4.97171E+03 -1.52737E+04 -6.11071E+03
 -9.85533E+03 -1.79206E+04  4.75137E+03 -2.15516E+04  1.38777E+04 -1.57451E+04  1.73250E+04 -1.73434E+03
  1.07827E+04  1.23474E+04 -7.50594E+02  1.83241E+04 -1.14280E+04  9.60568E+03 -1.81042E+04 -3.44289E+03
 -1.29496E+04 -1.57868E+04 -1.59775E+03 -2.15899E+04  1.02749E+04 -1.70065E+04  1.79460E+04 -8.51142E+03
  1.68562E+04  3.90594E+02  1.31601E+04  3.96821E+03  6.35989E+03  1.05615E+03  8.93513E+03 -1.40089E+03
  1.56597E+04  3.29885E+03  1.77556E+04  1.43283E+04  1.13119E+04  2.83209E+04 -2.94015E+03  3.15389E+04
 -1.84190E+04  2.50384E+04 -2.97744E+04  1.30824E+04 -2.99725E+04 -2.85269E+03 -2.53694E+04 -1.77153E+04
 -1.12927E+04 -2.55303E+04  8.67160E+03 -2.32360E+04  2.04110E+04 -1.20670E+04  1.83875E+04  4.71605E+03
  7.44415E+03  1.30638E+04 -9.06279E+03  1.15381E+04 -1.54629E+04  2.59242E+03 -1.17263E+04 -9.61635E+03
 -5.63185E+02 -1.42154E+04  8.05520E+03 -1.08156E+04  9.89791E+03 -1.81717E+03  2.17350E+03  6.34065E+03
 -5.90079E+03  1.96433E+03 -5.48022E+03 -5.24389E+03 -9.95819E+01 -1.26001E+04  8.37805E+03 -1.23551E+04
  1.50029E+04 -6.79051E+03  1.65060E+04  2.49938E+03  1.38458E+04  1.21914E+04  6.59786E+03  1.81913E+04
 -2.73817E+03  2.03924E+04 -1.30327E+04  1.30639E+04 -1.47146E+04  3.67105E+03 -1.03334E+04 -3.31546E+03
 -5.35293E+03 -4.07386E+03 -8.52919E+02  1.38120E+03 -2.47380E+03  2.53471E+03 -4.30547E+03  3.90905E+03
 -9.41563E+03 -5.38885E+02 -1.01545E+04 -8.03483E+03 -4.46513E+03 -1.39402E+04  4.44845E+03 -1.02585E+04
  8.70857E+03 -4.53460E+03  6.10835E+03  2.28822E+03  3.67843E+02  3.24084E+03 -4.53338E+03 -3.67976E+02
 -4.79740E+03 -6.70345E+03 -6.57873E+02 -9.29654E+03  5.53701E+03 -1.07218E+04  1.25643E+04 -5.52583E+03
  1.53164E+04  1.40007E+03  1.14232E+04  8.27929E+03  2.33649E+03  1.20405E+04 -6.24508E+03  1.04857E+04
 -8.72934E+03  3.13783E+03 -3.79741E+03 -1.41418E+03  1.04010E+03 -2.58502E+03  5.77585E+03 -1.74551E+03
  5.11172E+03  4.33521E+03  1.34519E+03  8.44177E+03 -5.94284E+03  7.92077E+03 -9.73187E+03  2.15944E+03
 -6.43028E+03 -5.45554E+03  4.58696E+02 -7.83042E+03  4.84442E+03 -4.11623E+03  5.25777E+03  1.14224E+03
  9.85828E+02  5.18539E+03 -5.72789E+03  6.18540E+03 -7.08643E+03  3.20285E+03 -6.74106E+03 -2.43763E+03
 -4.32733E+03 -8.42051E+03  1.76203E+03 -9.85143E+03  8.70972E+03 -6.45868E+03  9.07488E+03  1.71965E+03
  6.60097E+03  7.86862E+03  4.10316E+02  9.76757E+03 -6.73296E+03  5.29982E+03 -7.13979E+03 -6.74524E+02
 -7.19709E+03 -6.63718E+03 -1.75947E+03 -6.30764E+03  3.50539E+03 -6.02556E+03  4.19345E+03 -3.03994E+03
  3.91110E+03  3.73068E+02 -2.68633E+02  1.30043E+03 -8.48776E+00 -1.38662E+03  1.16301E+03 -2.88653E+03
  6.29538E+03 -2.50403E+03  7.75629E+03  4.60996E+02  7.96650E+03  4.48672E+03  6.45919E+03  1.07314E+04
 -2.07880E+03  1.21713E+04 -1.10639E+04  9.27367E+03 -1.43494E+04  1.69605E+03 -1.10869E+04 -4.65063E+03
 -6.43145E+03 -8.91460E+03  1.97977E+02 -7.14804E+03  2.66090E+03 -3.35339E+03  2.59614E+03 -3.61212E+03
  1.88826E+03 -2.02228E+03  2.63457E+03 -2.99213E+03  4.14628E+03 -1.90468E+03  4.42079E+03  3.93380E+02
  5.79948E+03  1.42695E+03  2.26962E+03  5.13420E+03 -1.94324E+03  5.14728E+03 -6.34553E+03  3.51272E+03
 -7.65485E+03 -1.29286E+03 -3.26994E+03 -4.94236E+03  1.32299E+02 -7.88185E+03  4.92790E+03 -7.95938E+03
  8.33555E+03 -4.48168E+03  9.60293E+03  8.25701E+02  6.77530E+03  6.13837E+03  1.93330E+03  8.78678E+03
 -3.16518E+03  8.23522E+03 -4.97473E+03  2.87575E+03 -3.33391E+03 -1.30165E+03 -8.12989E+02 -9.13574E+02
 -4.04505E+02 -9.12833E+01 -7.17509E+02  1.94228E+03 -3.70439E+03  1.41819E+03 -4.89629E+03 -1.23872E+03
 -2.70730E+03 -5.86299E+03  6.84157E+02 -7.08194E+03  4.26232E+03 -6.85476E+03  6.31802E+03 -2.09123E+03
  6.04498E+03  3.70612E+03  2.63308E+03  5.29967E+03 -1.45944E+03  7.12338E+03 -4.39204E+03  3.99751E+03
 -6.18589E+03  8.38899E+02 -4.79020E+03 -4.11558E+03 -6.15297E+02 -5.50094E+03  2.49493E+03 -3.99968E+03
  3.80602E+03 -1.44744E+03  3.12890E+03  8.16181E+02  1.36170E+03  2.03085E+03  1.14951E+03  7.83362E+02
  2.11107E+03  3.83311E+02  1.79437E+03  1.26882E+03  2.06216E+03  2.79803E+03  1.82122E+03  2.94088E+03
 -8.92181E+02  5.43089E+03 -5.35492E+03  5.15215E+03 -5.96445E+03  1.41651E+03 -7.11023E+03 -1.93009E+03
 -3.11743E+03 -5.82765E+03  7.44012E+02 -6.98275E+03  3.52067E+03 -4.29415E+03  5.20028E+03 -1.81892E+03
  4.00166E+03  2.45851E+03  8.37458E+02  3.98313E+03 -1.19956E+03  1.97485E+03 -2.26889E+03 -1.63196E+02
 -1.07610E+03 -2.57008E+03  1.90949E+03 -2.52929E+03  2.24421E+03 -1.48114E+03  2.13967E+03  4.30964E+02
  8.42865E+02  9.50241E+02  8.87727E+02  4.02084E+02 -7.69534E+02  1.00313E+03  1.88379E+03 -3.55208E+02
  4.80506E+02 -5.83942E+02  3.14960E+03  1.42097E+03  6.21436E+02  3.08198E+03 -5.19923E+02  5.04398E+03
 -2.31934E+03  2.20705E+03 -3.68284E+03  1.18409E+03 -3.46984E+03 -1.84288E+03 -7.50826E+02 -2.22253E+03
  2.82536E+02 -1.71883E+03  1.96751E+03 -1.38901E+03  1.52472E+03  1.47916E+03 -1.02015E+03  1.54044E+03
 -2.34497E+03  1.82129E+03 -2.46501E+03 -2.40581E+03 -8.59210E+02 -3.69504E+03  3.71987E+02 -3.05521E+03
  1.41929E+03 -1.15818E+03  1.71988E+03  5.20764E+02  2.27496E+03  2.39742E+02  5.14907E+02  2.03977E+03
 -8.77691E+02  3.99335E+02 -1.51264E+03 -9.73737E+02  1.46105E+03 -2.11013E+03  2.26511E+03 -2.10068E+03
  2.51358E+03 -4.80846E+02  4.38987E+03  2.00889E+03  1.34027E+03  3.63116E+03 -7.06239E+02  3.64386E+03
 -2.31376E+03  1.31264E+03 -2.94197E+03 -4.57716E+02 -1.05277E+03 -2.22195E+03  9.68875E+02 -1.76275E+03
  2.41604E+03 -1.37943E+03  1.26673E+03  6.63435E+02  3.57624E+02  2.14212E+03 -1.37123E+01  2.36004E+03
 -6.78356E+02  1.33685E+03 -7.78056E+02  3.91776E+02 -1.34673E+02  4.14382E+02 -7.45531E+02  1.00569E+03
 -9.31098E+02  1.66877E+03 -3.58401E+03  8.36598E+02 -2.91218E+03  9.08528E+01 -4.74794E+03 -1.80019E+03
 -1.98501E+03 -4.69122E+03  8.11267E+02 -5.49131E+03  2.58124E+03 -5.31576E+03  5.37434E+03 -1.61716E+03
  5.07817E+03  1.37715E+03  2.25963E+03  3.05090E+03  8.05660E+01  2.88728E+03 -1.68982E+03  2.58947E+03
 -1.99389E+03  9.81634E+02 -1.47116E+03 -4.49727E+02 -1.37844E+03  1.01120E+02 -4.30967E+02  5.64672E+02
 -1.07053E+03 -3.93868E+02 -1.24539E+03  2.53484E+01  8.19822E+01 -4.55808E+02  2.36973E+02 -1.53441E+03
  1.70205E+03 -1.45669E+03  1.20693E+03 -3.10486E+02  3.00816E+03  1.92761E+03 -5.04301E+02  2.13434E+03
 -1.35533E+03  4.55475E+03 -3.39998E+03  2.10002E+03 -3.55644E+03  2.71368E+02 -2.60737E+03 -2.18793E+03
 -1.26512E+03 -2.61752E+03  8.08141E+02 -3.01462E+03  1.97191E+03 -1.76332E+03  1.25111E+03  1.43202E+02
  1.04572E+03  6.70393E+02  3.35706E+02  5.08138E+02 -5.53790E+02 -2.81033E+02  1.67879E+02 -7.90871E+02
  6.51761E+02  4.65224E+02  1.45120E+03  2.73096E+02  9.47058E+02  1.44215E+03  8.11698E+01  1.38897E+03
 -1.37911E+03  7.38758E+02 -1.97535E+03 -2.96217E+01 -2.34072E+03 -1.65247E+03 -4.79847E+02 -2.26121E+03
  1.51392E+03 -1.51633E+03  1.99687E+03 -2.08119E+02  1.81280E+03 -1.32664E+02  1.52521E+03  1.44005E+03
  3.87433E+02  1.29713E+03 -5.14792E+02  2.10024E+03 -1.26220E+03  1.28938E+03 -8.13769E+02  3.15636E+02
 -1.16441E+03  3.57275E+02 -2.72817E+02  3.71969E+02 -6.07649E+02  1.66084E+02 -1.61702E+03 -3.41043E+02
 -2.11019E+03 -2.37899E+02 -6.23168E+02 -2.10474E+03  1.68385E+03 -1.89415E+03  1.52877E+03 -6.69078E+02
  1.34881E+03 -3.12575E+02  9.85641E+01  3.08946E+02  3.68477E+00  1.43316E+03 -1.41357E+03  5.58664E+02
