 $NMID ID='MM_0lb_SNR400_20hz_g50_21.RAW', FMTDAT='(8E13.5)'
 TRAMP=1., VOLUME=1. $END
  3.09598E+05 -8.58059E+01  3.37502E+05  2.50721E+05  8.41029E+04  3.37408E+05 -1.32305E+05  2.50085E+05
 -1.89773E+05  8.23688E+04 -1.10611E+05 -3.35530E+04  1.43842E+03 -5.00461E+04  5.36000E+04  2.82963E+02
  3.40993E+04  5.30277E+04 -1.70665E+04  7.45175E+04 -5.98694E+04  6.26860E+04 -8.24894E+04  3.12755E+04
 -7.94073E+04 -1.10348E+04 -5.59317E+04 -4.98726E+04 -1.48725E+04 -6.82473E+04  2.66767E+04 -4.47807E+04
  3.90447E+04  4.34010E+03  1.51521E+04  4.73473E+04 -3.40651E+04  4.62805E+04 -6.55036E+04 -2.11330E+01
 -5.17063E+04 -5.57221E+04 -5.82935E+03 -7.51292E+04  3.28796E+04 -5.22039E+04  4.59847E+04 -1.61081E+04
  4.13517E+04  1.10477E+04  3.09197E+04  2.42785E+04  1.53011E+04  2.82033E+04 -5.01926E+03  2.64287E+04
 -2.14539E+04  1.27175E+04 -1.95322E+04 -4.39787E+03  4.13313E+03 -7.59445E+03  2.13185E+04  1.00443E+04
  7.81007E+03  3.33008E+04 -3.03221E+04  3.40857E+04 -6.12661E+04  1.96906E+03 -5.49373E+04 -4.07242E+04
 -1.23426E+04 -6.04685E+04  3.78770E+04 -4.30871E+04  5.52583E+04 -2.16390E+03  3.20155E+04  3.03195E+04
 -6.87786E+03  3.30481E+04 -2.82972E+04  1.28165E+04 -2.70568E+04 -5.36481E+03 -1.40729E+04 -9.70963E+03
 -7.05482E+03 -1.12536E+04 -1.28782E+03 -1.64711E+04  6.79200E+03 -2.20514E+04  1.51332E+04 -1.41440E+04
  1.24330E+04  4.21332E+03 -5.79288E+03  1.29019E+04 -1.89535E+04 -2.34525E+03 -8.21030E+03 -3.02422E+04
  2.10260E+04 -4.01583E+04  4.39760E+04 -1.81258E+04  4.15575E+04  1.81529E+04  1.41988E+04  4.12350E+04
 -1.52513E+04  3.04603E+04 -2.35525E+04  1.00802E+03 -8.16407E+03 -2.62865E+04  2.04019E+04 -3.12318E+04
  3.79734E+04 -7.10775E+03  3.08449E+04  2.27171E+04  1.54848E+04  4.24953E+04 -7.70364E+03  4.44224E+04
 -2.74944E+04  2.96297E+04 -3.65075E+04  7.50166E+03 -3.79926E+04 -1.54889E+04 -2.05973E+04 -3.34578E+04
  7.13850E+03 -3.37042E+04  2.90593E+04 -1.23452E+04  2.62066E+04  1.10767E+04  2.29688E+03  1.81554E+04
 -1.28414E+04  7.00068E+03 -9.57922E+03 -7.51905E+03  5.41269E+03 -1.03478E+04  1.67796E+04  6.73074E+03
  1.18430E+04  2.15471E+04 -6.81552E+03  2.29015E+04 -2.12802E+04  8.05805E+03 -2.48310E+04 -6.47886E+03
 -1.67273E+04 -1.62885E+04 -4.57960E+03 -1.63715E+04  3.85831E+03 -1.36199E+04  1.20086E+04 -1.37793E+04
  2.02671E+04 -1.15373E+04  2.72723E+04  4.92826E+02  2.08209E+04  1.58111E+04  4.39324E+03  3.19064E+04
 -1.58528E+04  2.71114E+04 -2.57486E+04  9.25665E+03 -1.93396E+04 -1.00862E+04 -3.85794E+03 -1.39063E+04
  2.62420E+03 -4.39107E+03 -2.36187E+03  5.51120E+03 -1.20879E+04  5.73454E+03 -1.28173E+04 -4.01326E+03
 -8.29909E+03 -1.50126E+04  4.51526E+03 -1.84754E+04  1.21880E+04 -1.36046E+04  1.38668E+04 -9.02635E+02
  8.46223E+03  1.04033E+04 -1.11049E+03  1.43009E+04 -9.60175E+03  8.27097E+03 -1.51231E+04 -3.05169E+03
 -1.05659E+04 -1.35858E+04 -1.44339E+03 -1.80328E+04  8.52047E+03 -1.46846E+04  1.56602E+04 -6.87928E+03
  1.40265E+04  7.71312E+02  9.96257E+03  3.73399E+03  4.30554E+03  1.36137E+02  7.27811E+03 -1.04536E+03
  1.27201E+04  2.63296E+03  1.41228E+04  1.20899E+04  8.05874E+03  2.35027E+04 -3.34019E+03  2.49899E+04
 -1.51714E+04  1.85334E+04 -2.28609E+04  8.47974E+03 -2.34426E+04 -1.91522E+03 -2.03086E+04 -1.26754E+04
 -9.26699E+03 -1.91952E+04  6.68449E+03 -1.80198E+04  1.58086E+04 -1.06103E+04  1.46765E+04  3.11711E+03
  6.25162E+03  1.04693E+04 -6.45499E+03  1.03655E+04 -1.29307E+04  2.34246E+03 -9.93622E+03 -7.37812E+03
 -2.70795E+02 -1.16927E+04  5.58134E+03 -8.92060E+03  7.10541E+03 -1.30994E+03  1.01652E+03  4.62967E+03
 -5.28245E+03  7.91688E+02 -3.02232E+03 -4.70109E+03  8.70193E+02 -9.29426E+03  7.43503E+03 -9.40168E+03
  1.12325E+04 -4.36219E+03  1.06288E+04  2.56089E+03  9.27237E+03  8.95375E+03  4.39096E+03  1.29463E+04
 -1.02335E+03  1.46420E+04 -8.66118E+03  9.07326E+03 -1.00751E+04  2.74405E+03 -7.17495E+03 -1.93365E+03
 -4.21229E+03 -2.89718E+03 -9.79540E+02  1.92947E+03 -1.78249E+03  1.61959E+03 -3.67697E+03  3.14540E+03
 -8.12564E+03 -5.96396E+02 -7.49380E+03 -6.26379E+03 -3.24995E+03 -1.04544E+04  3.13226E+03 -8.34420E+03
  6.93947E+03 -3.65270E+03  4.84952E+03  1.59915E+03  9.35549E+01  2.59746E+03 -2.42066E+03 -1.03397E+02
 -3.35422E+03 -4.68829E+03 -5.62189E+02 -6.15105E+03  3.21053E+03 -7.74302E+03  8.89442E+03 -3.63973E+03
  1.08608E+04  3.09704E+02  7.73619E+03  5.71139E+03  1.53712E+03  7.90240E+03 -5.12884E+03  8.07306E+03
 -6.33965E+03  2.53485E+03 -3.36002E+03 -1.44028E+03  1.63253E+03 -1.58691E+03  4.66078E+03 -1.38774E+03
  4.21444E+03  3.01296E+03  8.23158E+02  5.75757E+03 -3.86455E+03  5.51559E+03 -7.25811E+03  1.38261E+03
 -4.38280E+03 -3.12443E+03 -2.07301E+01 -6.04497E+03  3.06411E+03 -3.30161E+03  2.99336E+03  1.25993E+03
 -6.22247E+01  2.30663E+03 -3.35769E+03  4.28320E+03 -3.99366E+03  2.39831E+03 -3.95345E+03 -1.04620E+03
 -3.08609E+03 -4.79301E+03  8.24695E+02 -6.20538E+03  5.64905E+03 -4.66338E+03  5.67006E+03  8.07067E+02
  4.20636E+03  4.71524E+03 -2.83047E+01  6.52212E+03 -4.54879E+03  3.33144E+03 -4.97461E+03 -7.65427E+02
 -5.73322E+03 -4.99958E+03 -1.31311E+03 -3.98928E+03  2.56278E+03 -4.44252E+03  2.65097E+03 -2.62163E+03
  2.56023E+03  1.85156E+02  4.08174E+02  9.99864E+02  9.47365E+02  3.74982E+02  3.11290E+02 -1.46025E+03
  3.17328E+03 -3.92794E+02  4.43598E+03  9.11534E+01  5.36433E+03  2.42446E+03  4.92358E+03  6.15658E+03
 -7.18183E+01  6.90079E+03 -6.80171E+03  5.28809E+03 -8.76552E+03  8.10187E+02 -6.71118E+03 -2.22974E+03
 -4.14173E+03 -5.66625E+03 -2.61428E+02 -4.43786E+03  2.11764E+03 -1.85231E+03  1.46295E+03 -2.03025E+03
  9.37577E+02 -1.53318E+03  1.97429E+03 -1.84759E+03  3.92355E+03 -8.82747E+02  3.83176E+03  4.16596E+02
  4.63558E+03  7.50044E+02  2.47308E+02  2.92500E+03 -1.12304E+03  1.96650E+03 -3.66173E+03  2.04978E+03
 -4.13055E+03 -8.88767E+02 -1.49311E+03 -2.99410E+03  1.93282E+02 -4.15375E+03  2.73421E+03 -4.28098E+03
  4.21596E+03 -3.08838E+03  5.55270E+03  2.42650E+02  4.19859E+03  3.13636E+03  1.33196E+03  4.74834E+03
 -2.04617E+03  5.14190E+03 -2.96848E+03  1.59368E+03 -1.13178E+03 -6.74059E+02 -2.03781E+02 -6.18834E+02
 -6.36155E+02  4.77931E+02 -1.23089E+03  1.70257E+03 -2.29425E+03  7.61913E+02 -3.36005E+03 -2.32048E+02
 -1.41768E+03 -3.59071E+03  9.47564E+02 -3.93593E+03  2.33109E+03 -4.13986E+03  2.56682E+03 -5.42444E+02
  3.38694E+03  2.01991E+03  1.36120E+03  2.72218E+03 -6.73312E+02  3.47157E+03 -2.23592E+03  1.69467E+03
 -3.12153E+03  4.18220E+02 -2.49873E+03 -2.12442E+03  2.29102E+02 -2.44910E+03  8.01476E+02 -1.73765E+03
  2.03931E+03 -1.17530E+03  1.31955E+03  2.33253E+02  1.05127E+02  1.21255E+03  8.28802E+02  2.77522E+02
  1.76270E+03  9.26135E+02  1.11482E+03  9.99317E+02  5.48413E+02  2.25976E+03  7.77338E+02  1.30750E+03
 -1.26398E+03  2.05148E+03 -1.32288E+03  3.93965E+03 -2.44146E+03  1.12822E+03 -2.91533E+03 -4.63433E+02
 -1.28468E+03 -3.08743E+03  1.74369E+02 -3.77364E+03  1.64865E+03 -1.59262E+03  2.10984E+03 -1.13072E+03
  2.15315E+03  1.23241E+03 -1.86303E+01  1.90760E+03 -8.04049E+02  1.02023E+03 -3.08175E+02 -2.71206E+02
 -4.59329E+02 -1.20875E+03  1.34657E+03 -1.38726E+03  8.00278E+02 -1.00516E+03  1.18627E+03  3.13309E+02
  4.85855E+02 -7.71477E+01  3.99004E+02 -8.81598E+02 -5.36394E+02  6.18696E+02  1.33948E+03 -4.42140E+02
 -3.14286E+02  2.17567E+01  1.63353E+03  5.98844E+02  1.33491E+02  2.26010E+03 -2.08284E+02  2.26000E+03
 -1.18523E+03  4.48237E+02 -1.31802E+03  5.39940E+01 -1.91531E+03 -9.27543E+02  5.43147E+02 -3.67102E+02
  1.10441E+03 -7.37597E+02  8.48161E+02  6.17997E+01  6.65174E+02  7.05702E+02  5.10979E+01  8.03394E+02
 -7.45139E+02  8.06367E+02 -4.92259E+02 -1.58863E+03 -9.64921E+02 -1.66737E+03  4.82348E+01 -9.00657E+02
  1.50297E+02 -1.02962E+03  9.08614E+01  1.68525E+01  1.31774E+03  1.04528E+02  2.31974E+02  9.57285E+02
 -6.75322E+02 -9.26511E+01 -1.04144E+03  3.24655E+02  9.55586E+02 -7.45609E+02  8.78606E+02 -9.68547E+02
  7.11468E+02 -1.14045E+02  2.72879E+03  7.97265E+02  1.36726E+03  9.49234E+02  2.68409E+01  1.44158E+03
 -1.03256E+03 -2.71286E+02 -1.29820E+03 -2.98647E+02 -7.65362E+02 -1.05986E+03  6.76187E+02 -8.72193E+01
  9.74656E+02 -4.01678E+01  7.43276E+02 -1.71570E+02  1.44716E+02  9.25630E+02  4.66220E+02  2.98690E+02
  1.89942E+02  1.13957E+03 -2.29525E+02 -3.85055E+02  1.02050E+02  3.34172E+02 -1.03988E+03  7.43420E+02
 -5.34414E+02  1.09298E+03 -1.86099E+03  7.49277E+02 -5.59738E+02  1.30021E+02 -1.51979E+03 -8.73527E+02
 -1.00565E+03 -1.63266E+03  6.31135E+02 -2.37839E+03  4.30681E+02 -1.33773E+03  2.50511E+03 -7.05504E+02
  1.82596E+03 -3.11851E+02  9.56504E+02  1.24073E+03 -1.17105E+03  7.55629E+02 -4.70587E+02  1.52253E+03
 -6.90285E+02  1.12796E+03 -3.39522E+02 -2.05445E+02 -7.94012E+02  2.79838E+02 -7.56931E+02 -3.16769E+01
 -1.03553E+03 -4.78987E+02 -4.25680E+02  2.34464E+02 -2.16999E+02 -1.12764E+03  1.34184E+02 -7.45384E+02
  7.77171E+02 -3.55927E+02  4.13531E+02  5.51505E+02  1.02041E+03  6.21130E+02 -5.88037E+02  5.00749E+02
 -1.19937E+03  1.83372E+03 -1.09614E+03  9.78797E+02 -7.74845E+02  4.71756E+01 -7.68108E+02 -1.02030E+03
 -5.23147E+02 -6.18977E+02  7.12597E+02 -7.10469E+02  9.04760E+01  1.17315E+00  1.81583E+02  4.82309E+02
  2.68315E+02 -9.74197E+02  5.15054E+00  6.32943E+02 -4.51507E+02 -1.54803E+02 -7.43447E+01 -1.01257E+02
  2.88052E+02  2.65224E+02  1.02974E+02  1.28155E+02 -2.80339E+02 -3.70676E+02  4.36357E+02  2.34940E+02
 -4.04068E+02  5.68505E+02  8.38676E+01 -2.07993E+02  3.76545E+01 -4.53707E+02  3.22791E+02 -2.27577E+02
 -2.44960E+02 -7.85354E+01  7.52644E+02  2.22198E+02  9.68519E+02 -1.10791E+03  1.69159E+02  9.37969E+02
  3.06894E+02  6.23131E+02  3.06468E+01  8.19928E+01  3.53644E+02  3.46178E+02 -3.65559E+02  9.33105E+02
 -2.43168E+02  4.20787E+02 -2.64580E+02 -2.10048E+02 -2.67623E+02  1.09422E+02 -5.10519E+02 -2.90146E+01
 -8.09720E+02  5.06105E+02 -5.00759E+02 -1.27538E+03  6.27136E+02 -1.03566E+03  3.75902E+02  2.20675E+02
  3.10726E+02  5.57682E+01 -3.20594E+02 -2.13732E+02  2.27366E+02  3.63633E+02 -3.81909E+02  1.05367E+03
