 $NMID ID='MM_0lb_SNR400_14hz_g45_41.RAW', FMTDAT='(8E13.5)'
 TRAMP=1., VOLUME=1. $END
  3.09452E+05  7.02749E+02  3.37222E+05  2.50366E+05  8.40251E+04  3.37397E+05 -1.31959E+05  2.51393E+05
 -1.90057E+05  8.29904E+04 -1.11995E+05 -3.23618E+04  7.62884E+02 -5.01896E+04  5.38780E+04 -4.43405E+02
  3.48757E+04  5.19599E+04 -1.66090E+04  7.57925E+04 -6.05967E+04  6.28786E+04 -8.39437E+04  3.20902E+04
 -8.08348E+04 -1.14292E+04 -5.70096E+04 -5.16595E+04 -1.48424E+04 -6.88515E+04  2.72378E+04 -4.51232E+04
  4.02509E+04  3.99298E+03  1.62915E+04  4.76479E+04 -3.49429E+04  4.68879E+04 -6.70497E+04 -5.74754E+02
 -5.33607E+04 -5.66170E+04 -6.26460E+03 -7.62912E+04  3.31276E+04 -5.48483E+04  4.71393E+04 -1.74992E+04
  4.28016E+04  1.12716E+04  3.15317E+04  2.57798E+04  1.59131E+04  2.91761E+04 -5.15891E+03  2.74665E+04
 -2.19122E+04  1.27965E+04 -1.91955E+04 -5.24140E+03  5.20278E+03 -8.02069E+03  2.23054E+04  1.15669E+04
  6.89575E+03  3.48725E+04 -3.19113E+04  3.52073E+04 -6.27548E+04  2.34011E+03 -5.58591E+04 -4.26948E+04
 -1.24563E+04 -6.32122E+04  3.95673E+04 -4.52659E+04  5.76740E+04 -2.16650E+03  3.40797E+04  3.24262E+04
 -6.37171E+03  3.55049E+04 -2.95958E+04  1.53557E+04 -2.98603E+04 -4.26810E+03 -1.67032E+04 -1.08411E+04
 -8.76401E+03 -1.31216E+04 -9.54977E+02 -1.79309E+04  7.55053E+03 -2.31523E+04  1.55283E+04 -1.30683E+04
  1.15755E+04  4.70037E+03 -8.25808E+03  1.30600E+04 -2.09916E+04 -4.01557E+03 -8.39381E+03 -3.36888E+04
  2.23049E+04 -4.31868E+04  4.80110E+04 -1.89622E+04  4.46159E+04  1.93970E+04  1.52390E+04  4.41767E+04
 -1.55295E+04  3.29511E+04 -2.47163E+04  1.83961E+03 -9.36595E+03 -2.74822E+04  2.09846E+04 -3.31476E+04
  4.08653E+04 -9.02306E+03  3.52599E+04  2.40212E+04  1.81957E+04  4.60202E+04 -7.45476E+03  4.90677E+04
 -3.07910E+04  3.35262E+04 -4.14091E+04  8.79784E+03 -4.18651E+04 -1.64181E+04 -2.31956E+04 -3.70947E+04
  7.57868E+03 -3.75061E+04  3.06481E+04 -1.46174E+04  2.90297E+04  1.08484E+04  3.68059E+03  1.90249E+04
 -1.31967E+04  8.17571E+03 -1.04094E+04 -7.36835E+03  5.39224E+03 -1.07417E+04  1.76257E+04  5.94314E+03
  1.31935E+04  2.16212E+04 -5.95097E+03  2.52617E+04 -2.26510E+04  1.08352E+04 -2.71903E+04 -4.86328E+03
 -2.03605E+04 -1.73028E+04 -8.56917E+03 -2.01450E+04  4.15708E+03 -1.85139E+04  1.51540E+04 -1.78433E+04
  2.59268E+04 -1.26095E+04  3.21183E+04  2.91644E+03  2.38049E+04  1.94432E+04  3.82463E+03  3.62255E+04
 -1.78346E+04  2.95724E+04 -2.76780E+04  1.00101E+04 -2.10344E+04 -9.73133E+03 -4.20067E+03 -1.38737E+04
  2.01365E+03 -2.13615E+03 -4.64693E+03  6.07456E+03 -1.61677E+04  5.43851E+03 -1.58730E+04 -6.67867E+03
 -9.82467E+03 -1.84183E+04  5.15387E+03 -2.26354E+04  1.49367E+04 -1.65194E+04  1.80287E+04 -2.02310E+03
  1.10198E+04  1.27959E+04 -7.48850E+02  1.88747E+04 -1.25191E+04  1.00799E+04 -1.86586E+04 -3.88296E+03
 -1.36090E+04 -1.68406E+04 -1.82914E+03 -2.23640E+04  1.03642E+04 -1.90782E+04  1.90501E+04 -9.28974E+03
  1.70821E+04  8.76990E+02  1.28836E+04  4.47258E+03  5.90662E+03  8.38560E+02  9.30583E+03 -1.49551E+03
  1.67949E+04  2.75568E+03  1.83330E+04  1.45014E+04  1.22802E+04  3.00224E+04 -3.33318E+03  3.38647E+04
 -1.93029E+04  2.67642E+04 -3.11341E+04  1.27002E+04 -3.22020E+04 -2.40845E+03 -2.71198E+04 -1.89930E+04
 -1.18430E+04 -2.70834E+04  9.29882E+03 -2.46057E+04  2.07865E+04 -1.26673E+04  1.90323E+04  5.67910E+03
  6.70851E+03  1.48042E+04 -9.41185E+03  1.27846E+04 -1.63271E+04  3.14455E+03 -1.20270E+04 -9.91233E+03
  2.69907E+02 -1.51100E+04  8.12864E+03 -1.12827E+04  9.55413E+03 -1.74197E+03  1.56124E+03  6.71781E+03
 -6.84464E+03  1.65322E+03 -5.73575E+03 -5.31246E+03 -1.61955E+02 -1.34354E+04  9.51290E+03 -1.37277E+04
  1.63269E+04 -7.27833E+03  1.68001E+04  2.71956E+03  1.52397E+04  1.26418E+04  7.16346E+03  1.93967E+04
 -3.44907E+03  2.20027E+04 -1.36473E+04  1.32822E+04 -1.51818E+04  3.39681E+03 -1.11474E+04 -3.41532E+03
 -5.66653E+03 -4.66267E+03 -6.56874E+02  1.41701E+03 -2.60591E+03  1.96166E+03 -4.88972E+03  4.30486E+03
 -9.68062E+03 -3.86912E+02 -1.03579E+04 -8.36749E+03 -4.47853E+03 -1.50115E+04  4.46250E+03 -1.07740E+04
  9.56410E+03 -4.68161E+03  7.47122E+03  2.55019E+03  9.10225E+02  4.05409E+03 -5.19136E+03 -2.49739E+02
 -4.42111E+03 -6.76996E+03 -1.21083E+03 -1.07537E+04  6.12817E+03 -1.01815E+04  1.35965E+04 -6.20117E+03
  1.59520E+04  1.08774E+03  1.14488E+04  9.32836E+03  1.75875E+03  1.24174E+04 -6.46028E+03  1.05329E+04
 -8.84007E+03  3.46207E+03 -4.74365E+03 -1.97450E+03  1.43099E+03 -2.31935E+03  5.75919E+03 -7.12508E+02
  5.27988E+03  4.77967E+03  7.74590E+02  8.07442E+03 -6.59107E+03  9.30945E+03 -1.06206E+04  2.06152E+03
 -7.46954E+03 -5.73553E+03  1.72194E+02 -9.21326E+03  5.56898E+03 -4.52855E+03  5.89758E+03  1.33486E+03
  8.87201E+02  5.81327E+03 -6.30303E+03  7.42049E+03 -7.56814E+03  2.66052E+03 -7.37667E+03 -2.40273E+03
 -3.87792E+03 -1.00082E+04  2.26810E+03 -1.09248E+04  9.44303E+03 -6.05900E+03  1.04052E+04  1.90570E+03
  6.57123E+03  8.15342E+03 -3.76974E+02  1.02659E+04 -7.33168E+03  6.26949E+03 -7.28991E+03 -8.13537E+02
 -7.84871E+03 -7.21500E+03 -1.64779E+03 -7.08685E+03  3.44834E+03 -6.51251E+03  4.37186E+03 -3.62419E+03
  4.33510E+03  2.46848E+02 -1.81793E+02  1.96350E+03  5.49777E+02 -8.17179E+02  7.23006E+02 -3.35366E+03
  6.69994E+03 -2.35472E+03  8.80877E+03  1.09738E+03  8.90591E+03  6.31045E+03  7.33304E+03  1.15437E+04
 -2.10272E+03  1.32670E+04 -1.18025E+04  1.04932E+04 -1.60711E+04  2.09016E+03 -1.19129E+04 -4.13767E+03
 -6.09470E+03 -1.05762E+04 -3.92190E+02 -8.22241E+03  2.85929E+03 -4.09058E+03  3.40494E+03 -2.74882E+03
  2.31632E+03 -2.51591E+03  2.47789E+03 -2.06037E+03  4.39451E+03 -2.01226E+03  5.37976E+03 -3.20582E+02
  7.08831E+03  1.41399E+03  2.89466E+03  5.43263E+03 -1.84805E+03  5.40871E+03 -6.38135E+03  4.47437E+03
 -8.15657E+03 -6.35000E+02 -4.14924E+03 -5.68011E+03 -2.69649E+02 -8.37721E+03  4.30770E+03 -8.46318E+03
  8.94042E+03 -5.73386E+03  1.15386E+04  1.00402E+03  7.17871E+03  7.23624E+03  1.65734E+03  9.68448E+03
 -4.16755E+03  8.62850E+03 -5.44980E+03  3.25281E+03 -3.80500E+03 -1.67007E+03 -1.26028E+03 -9.13583E+02
 -1.17122E+03  2.22092E+02 -1.31163E+03  2.53951E+03 -3.74258E+03  1.40763E+03 -6.15426E+03 -8.22843E+02
 -2.89193E+03 -6.08878E+03  5.34463E+02 -7.73053E+03  4.98304E+03 -7.45401E+03  7.31440E+03 -1.84315E+03
  7.61401E+03  4.30786E+03  3.36112E+03  6.74158E+03 -1.04839E+03  7.98660E+03 -4.87739E+03  4.37260E+03
 -7.12696E+03  4.13204E+02 -5.03349E+03 -4.04302E+03 -1.24864E+02 -6.21946E+03  2.91925E+03 -5.23168E+03
  4.96745E+03 -1.49785E+03  3.04454E+03  9.49202E+02  5.72980E+02  2.67998E+03  1.18361E+03  9.52418E+02
  1.93038E+03  4.30141E+02  1.76552E+03  1.03249E+03  2.20156E+03  3.26260E+03  2.55884E+03  3.83965E+03
 -2.68846E+03  5.85735E+03 -4.69770E+03  6.04767E+03 -7.63466E+03  1.95221E+03 -7.80340E+03 -2.31420E+03
 -3.20506E+03 -7.41035E+03  9.53795E+02 -8.43716E+03  4.18293E+03 -4.84094E+03  6.40258E+03 -1.32826E+03
  4.38283E+03  2.81622E+03  8.33848E+02  4.27262E+03 -1.75763E+03  2.44870E+03 -2.63682E+03 -5.77548E+02
 -1.82556E+03 -2.94389E+03  1.67424E+03 -3.66139E+03  2.83676E+03 -2.20160E+03  2.74289E+03  1.10367E+02
  1.94115E+03  1.10774E+03  9.86026E+02  9.11204E+02 -4.36383E+02  1.49299E+03  1.59889E+03  2.00755E+02
  8.73379E+02 -6.04509E+02  2.85172E+03  1.91541E+03  1.39864E+03  4.36950E+03 -9.82081E+02  5.69276E+03
 -3.65408E+03  2.88436E+03 -4.90026E+03  9.83306E+02 -4.29543E+03 -1.36882E+03 -1.33700E+03 -2.97425E+03
  5.25528E+02 -2.98937E+03  1.69212E+03 -1.40918E+03  1.15659E+03  1.77873E+03 -1.18662E+03  1.84073E+03
 -2.90337E+03  1.05616E+03 -3.11062E+03 -1.54109E+03 -2.61795E+03 -4.10970E+03  3.17494E+02 -3.69398E+03
  2.15069E+03 -1.95449E+03  2.62606E+03  5.01979E+02  2.61843E+03  3.81713E+02  4.71858E+02  2.34050E+03
 -1.52568E+03  7.54044E+02 -2.21117E+03 -1.46111E+03  4.26515E+02 -2.88450E+03  2.71198E+03 -2.06371E+03
  3.47595E+03  4.92299E+02  4.23457E+03  2.43899E+03  1.75233E+03  3.84808E+03 -8.82873E+02  4.51407E+03
 -3.12417E+03  1.44721E+03 -3.34336E+03 -4.00465E+02 -2.18839E+03 -2.42445E+03  9.37068E+02 -2.74670E+03
  3.09120E+03 -1.09438E+03  1.64991E+03  7.71922E+02  4.79078E+02  2.88585E+03 -5.56656E+02  1.35826E+03
 -5.96101E+02  1.75288E+03 -1.07250E+03  6.82154E+02  4.55344E+01  7.17906E+02 -2.28573E+02  8.86253E+02
 -8.12021E+02  1.85711E+03 -3.65498E+03  8.84791E+02 -4.33484E+03 -4.87342E+02 -4.55046E+03 -3.37689E+03
 -1.94364E+03 -5.50231E+03  1.05138E+03 -5.88215E+03  3.60125E+03 -5.31214E+03  6.06726E+03 -2.20750E+03
  6.11208E+03  5.19407E+02  2.94068E+03  3.65893E+03 -1.69346E+02  4.00789E+03 -2.15097E+03  3.14337E+03
 -2.85411E+03  9.20425E+02 -1.16840E+03  8.28181E+01 -6.05219E+02  3.09908E+02 -1.16637E+03  2.61865E+02
 -1.37287E+03 -6.79361E+02 -8.23856E+02 -1.18594E+02 -3.00484E+02 -9.08922E+02  2.39298E+02 -1.74910E+03
  1.87279E+03 -1.15927E+03  2.21979E+03 -2.24583E+02  2.37605E+03  2.16310E+03  1.78531E+02  3.80341E+03
 -2.19863E+03  4.77780E+03 -3.91314E+03  3.17325E+03 -4.93369E+03 -4.96930E+02 -3.22391E+03 -2.78243E+03
 -1.99024E+03 -3.99378E+03  1.12553E+03 -3.63726E+03  1.90514E+03 -1.58677E+03  2.77896E+03  2.48369E+02
  1.99123E+03  1.37992E+03  3.23552E+02  1.37524E+03 -8.88665E+02  2.05112E+02  3.70979E+00 -7.58251E+02
  1.12386E+03 -7.21486E+02  1.46886E+03  9.79544E+02  7.41462E+02  1.31090E+03 -4.77410E+00  2.19979E+03
 -1.08408E+03  1.35883E+03 -2.66193E+03  1.00309E+02 -2.32492E+03 -1.63582E+03 -1.79051E+02 -3.32874E+03
  1.09712E+03 -2.85360E+03  2.47412E+03 -6.64602E+02  2.60354E+03  2.24674E+01  1.35397E+03  1.76300E+03
  3.70622E+02  1.60428E+03 -7.53932E+02  1.48370E+03 -1.77221E+03  1.30624E+03 -1.34131E+03  6.10120E+02
 -2.38072E+02 -2.93291E+02 -7.71789E+02  2.97223E+02 -1.45791E+03  7.78060E+02 -1.25234E+03 -7.93511E+02
 -2.55305E+03 -2.83123E+02 -1.80295E+02 -2.01298E+03  1.50656E+03 -2.35940E+03  2.32652E+03 -8.95851E+02
  2.34076E+03  2.15011E+02  1.00488E+03  1.60055E+03 -8.67239E+01  2.67043E+03 -1.87791E+03  1.38517E+03
