 $NMID ID='MM_0lb_SNR400_15hz_g40_17.RAW', FMTDAT='(8E13.5)'
 TRAMP=1., VOLUME=1. $END
  3.09135E+05  6.40237E+02  3.37362E+05  2.50398E+05  8.43242E+04  3.37774E+05 -1.32219E+05  2.51004E+05
 -1.89822E+05  8.34187E+04 -1.11182E+05 -3.28430E+04  7.89417E+02 -5.07265E+04  5.41035E+04 -8.25369E+01
  3.47614E+04  5.33969E+04 -1.71774E+04  7.49647E+04 -6.00726E+04  6.29435E+04 -8.37538E+04  3.15302E+04
 -8.10157E+04 -1.09072E+04 -5.60016E+04 -5.09857E+04 -1.46826E+04 -6.88573E+04  2.71489E+04 -4.50962E+04
  3.98929E+04  4.04197E+03  1.56597E+04  4.74399E+04 -3.42575E+04  4.64691E+04 -6.63134E+04 -6.05044E+02
 -5.24243E+04 -5.59501E+04 -6.53198E+03 -7.60664E+04  3.34942E+04 -5.41547E+04  4.69233E+04 -1.65636E+04
  4.21215E+04  1.11434E+04  3.17924E+04  2.51118E+04  1.54052E+04  2.87105E+04 -4.64183E+03  2.73140E+04
 -2.21682E+04  1.28283E+04 -1.88500E+04 -4.81986E+03  5.11755E+03 -7.53733E+03  2.17427E+04  1.12313E+04
  7.70776E+03  3.41007E+04 -3.10272E+04  3.46788E+04 -6.19283E+04  2.21100E+03 -5.62389E+04 -4.20920E+04
 -1.27821E+04 -6.19583E+04  3.91330E+04 -4.36847E+04  5.68787E+04 -1.70029E+03  3.30043E+04  3.14065E+04
 -6.37679E+03  3.42962E+04 -2.86674E+04  1.46326E+04 -2.88152E+04 -5.12013E+03 -1.61714E+04 -1.07386E+04
 -8.38849E+03 -1.16949E+04 -1.32154E+03 -1.73688E+04  6.84612E+03 -2.26425E+04  1.56544E+04 -1.37240E+04
  1.21381E+04  4.37087E+03 -7.38661E+03  1.31427E+04 -2.07652E+04 -3.11161E+03 -7.95273E+03 -3.25938E+04
  2.17945E+04 -4.25093E+04  4.68146E+04 -1.93999E+04  4.33349E+04  1.88710E+04  1.53657E+04  4.34203E+04
 -1.49718E+04  3.20590E+04 -2.44564E+04  1.68060E+03 -9.14769E+03 -2.78459E+04  2.08176E+04 -3.25570E+04
  3.97564E+04 -8.19856E+03  3.35210E+04  2.32555E+04  1.70097E+04  4.44432E+04 -7.82925E+03  4.79988E+04
 -3.01393E+04  3.21617E+04 -3.94567E+04  9.07206E+03 -4.09787E+04 -1.56808E+04 -2.26185E+04 -3.65304E+04
  7.09612E+03 -3.60821E+04  3.04743E+04 -1.35408E+04  2.83771E+04  1.13656E+04  3.78794E+03  1.91739E+04
 -1.38293E+04  8.36895E+03 -1.01140E+04 -7.63879E+03  6.01273E+03 -1.08070E+04  1.76042E+04  6.37908E+03
  1.26493E+04  2.16943E+04 -6.92176E+03  2.45348E+04 -2.20968E+04  1.05330E+04 -2.68352E+04 -5.91844E+03
 -1.93630E+04 -1.72423E+04 -7.18802E+03 -1.91705E+04  3.85562E+03 -1.77636E+04  1.45223E+04 -1.63970E+04
  2.44081E+04 -1.22737E+04  3.04992E+04  1.74403E+03  2.24688E+04  1.83933E+04  4.56937E+03  3.48625E+04
 -1.72416E+04  2.87633E+04 -2.70097E+04  9.71194E+03 -2.05323E+04 -1.01056E+04 -3.80930E+03 -1.37027E+04
  2.10630E+03 -3.29092E+03 -4.40846E+03  6.14749E+03 -1.47110E+04  5.64772E+03 -1.46879E+04 -6.07867E+03
 -9.27253E+03 -1.78553E+04  5.01588E+03 -2.11084E+04  1.41531E+04 -1.53141E+04  1.65269E+04 -1.30461E+03
  1.03468E+04  1.22761E+04 -8.29701E+02  1.74487E+04 -1.18447E+04  9.71925E+03 -1.70910E+04 -3.22518E+03
 -1.31098E+04 -1.61830E+04 -1.97457E+03 -2.12777E+04  9.73421E+03 -1.74650E+04  1.79223E+04 -8.46952E+03
  1.69282E+04  3.69473E+02  1.17288E+04  4.48015E+03  6.68406E+03  3.10730E+02  8.86983E+03 -1.29236E+03
  1.56124E+04  3.28136E+03  1.74596E+04  1.37717E+04  1.08249E+04  2.78513E+04 -3.13728E+03  3.11875E+04
 -1.85366E+04  2.50409E+04 -2.82945E+04  1.21922E+04 -2.97454E+04 -1.94374E+03 -2.44165E+04 -1.74489E+04
 -1.14083E+04 -2.46031E+04  8.45458E+03 -2.22762E+04  1.98390E+04 -1.23600E+04  1.72773E+04  4.88510E+03
  7.12729E+03  1.34515E+04 -7.92948E+03  1.15948E+04 -1.47964E+04  2.81482E+03 -1.19179E+04 -9.12292E+03
 -3.71197E+02 -1.42093E+04  7.40789E+03 -1.08714E+04  8.98751E+03 -1.71324E+03  1.74002E+03  6.09324E+03
 -6.15921E+03  1.35464E+03 -5.21460E+03 -5.27227E+03 -2.14114E+02 -1.19710E+04  8.59761E+03 -1.22186E+04
  1.51019E+04 -5.90979E+03  1.57186E+04  2.66185E+03  1.28000E+04  1.19663E+04  6.47979E+03  1.76090E+04
 -2.82199E+03  1.94025E+04 -1.25287E+04  1.15784E+04 -1.42996E+04  3.56241E+03 -1.03726E+04 -3.01865E+03
 -5.18001E+03 -4.63821E+03 -1.02522E+03  2.02500E+03 -2.25128E+03  2.41965E+03 -4.38264E+03  4.14636E+03
 -9.21840E+03 -4.91086E+02 -9.48352E+03 -8.43168E+03 -3.56896E+03 -1.31421E+04  4.18527E+03 -1.04686E+04
  8.21716E+03 -4.76235E+03  6.62559E+03  2.59337E+03  5.33786E+02  4.12818E+03 -3.88012E+03 -8.23378E+01
 -4.59655E+03 -6.00600E+03 -6.37711E+02 -9.37894E+03  5.35266E+03 -9.62292E+03  1.25573E+04 -5.13121E+03
  1.47327E+04  6.01029E+02  1.12166E+04  8.31076E+03  2.63499E+03  1.10424E+04 -6.35905E+03  1.03779E+04
 -8.00172E+03  2.88454E+03 -3.79584E+03 -2.00835E+03  1.07775E+03 -2.11590E+03  4.84941E+03 -1.20016E+03
  3.95616E+03  4.14285E+03  2.78175E+02  7.80372E+03 -5.51446E+03  8.26877E+03 -9.17185E+03  1.77484E+03
 -6.49312E+03 -4.31268E+03  2.77260E+02 -8.80813E+03  5.09544E+03 -3.71848E+03  4.80128E+03  1.02048E+03
  8.29576E+02  4.50970E+03 -5.37378E+03  6.35309E+03 -6.74319E+03  3.16526E+03 -6.66390E+03 -2.13750E+03
 -4.90695E+03 -8.09164E+03  1.80117E+03 -9.38354E+03  8.21591E+03 -6.29537E+03  8.85584E+03  1.49767E+03
  6.19120E+03  6.48455E+03 -7.40287E+02  9.76168E+03 -7.09953E+03  5.12353E+03 -7.09137E+03 -7.36474E+02
 -6.56823E+03 -6.58119E+03 -9.60338E+02 -6.44594E+03  3.95778E+03 -6.05513E+03  3.76141E+03 -3.12235E+03
  3.50257E+03  9.10419E+02 -1.77502E+02  1.23101E+03  8.83921E+01 -1.58422E+03  9.11727E+02 -2.87636E+03
  6.06901E+03 -1.64575E+03  7.63757E+03  6.79153E+02  7.94907E+03  4.93094E+03  6.34294E+03  1.02820E+04
 -2.31233E+03  1.19461E+04 -1.06195E+04  8.99239E+03 -1.36266E+04  1.62969E+03 -1.07967E+04 -3.84290E+03
 -5.30839E+03 -9.32516E+03 -3.56987E+02 -8.28674E+03  3.15823E+03 -3.70357E+03  2.32668E+03 -2.80828E+03
  1.73207E+03 -2.48483E+03  2.40865E+03 -2.18224E+03  3.88455E+03 -1.63059E+03  4.75119E+03 -1.58314E+02
  6.33294E+03  1.23439E+03  2.38958E+03  4.69380E+03 -1.64593E+03  4.65176E+03 -5.81744E+03  4.39623E+03
 -7.48036E+03 -1.09680E+03 -3.55140E+03 -4.93885E+03 -3.08025E+02 -7.39298E+03  4.62081E+03 -7.95080E+03
  8.08343E+03 -4.66619E+03  9.28242E+03  3.40347E+02  7.69340E+03  6.46599E+03  1.21001E+03  8.82190E+03
 -3.39122E+03  8.34670E+03 -5.10746E+03  2.54953E+03 -3.25605E+03 -1.67815E+03 -8.44669E+02 -1.33013E+02
 -3.76521E+02 -7.55330E+00 -1.04818E+03  2.34194E+03 -2.76408E+03  1.65250E+03 -5.35556E+03 -7.47131E+02
 -2.18467E+03 -5.34883E+03  1.13420E+03 -6.94795E+03  4.13663E+03 -6.41534E+03  6.11629E+03 -1.96159E+03
  6.28512E+03  3.22855E+03  2.98365E+03  6.16862E+03 -1.03232E+03  6.94952E+03 -4.28957E+03  3.88682E+03
 -5.70351E+03  7.14860E+02 -4.11189E+03 -3.49108E+03 -4.80154E+02 -5.21333E+03  2.68885E+03 -3.62623E+03
  4.17477E+03 -1.61706E+03  3.11895E+03  7.27041E+02  7.54826E+02  1.93493E+03  6.15262E+02  5.55210E+02
  2.45482E+03  1.06525E+03  1.63586E+03  7.95399E+02  1.72294E+03  2.46666E+03  2.13493E+03  3.14995E+03
 -1.61319E+03  5.44800E+03 -3.80835E+03  5.43900E+03 -5.79118E+03  1.73326E+03 -6.42017E+03 -1.57216E+03
 -3.28908E+03 -6.38672E+03  8.75654E+02 -6.71391E+03  4.06732E+03 -4.27329E+03  5.05258E+03 -1.35428E+03
  4.19370E+03  2.58672E+03  8.11884E+02  3.74266E+03 -1.46653E+03  1.41639E+03 -1.93922E+03 -3.61029E+02
 -1.10224E+03 -2.66177E+03  1.23884E+03 -2.41649E+03  1.75071E+03 -1.67932E+03  2.06224E+03  2.67663E+02
  8.95388E+02  1.67067E+03  8.08277E+02  6.83101E+02 -1.06114E+03  9.09845E+02  1.36728E+03 -1.28286E+02
  8.67914E+02 -2.14971E+02  2.28846E+03  8.07171E+02  7.93641E+02  3.72507E+03 -6.77155E+02  4.72772E+03
 -2.59101E+03  2.35390E+03 -3.82005E+03  6.09443E+02 -3.20335E+03 -9.79166E+02 -4.74326E+02 -2.42536E+03
  6.00044E+02 -1.81322E+03  1.51054E+03 -1.61509E+03  1.32407E+03  1.59384E+03 -4.44748E+02  2.30632E+03
 -2.40781E+03  1.36461E+03 -2.78594E+03 -1.87770E+03 -1.32245E+03 -3.79191E+03  9.05308E+01 -3.16193E+03
  1.14996E+03 -1.04338E+03  1.80374E+03  6.29753E+00  2.56460E+03  4.33107E+02  8.87198E+02  1.39684E+03
 -8.40889E+02  2.96771E+02 -2.15825E+03 -9.73323E+02  2.51480E+02 -1.79918E+03  2.45507E+03 -2.34695E+03
  3.78890E+03  3.31170E+01  3.90753E+03  1.61292E+03  2.30011E+03  3.35040E+03 -1.06335E+03  3.48609E+03
 -2.31358E+03  9.96194E+02 -2.44418E+03 -2.49563E+02 -1.86749E+03 -2.23762E+03  1.11657E+02 -1.58711E+03
  2.11439E+03 -1.07418E+03  1.15058E+03  8.24478E+02  3.76961E+02  2.09168E+03 -5.46401E+02  2.04164E+03
 -6.95644E+02  2.07738E+03 -7.82108E+02  9.69668E+02 -3.65662E+02  4.56103E+02 -1.04869E+03  1.05119E+03
 -8.70863E+02  1.91576E+03 -2.61058E+03  1.18801E+03 -3.04333E+03  3.82728E+02 -4.30630E+03 -2.04155E+03
 -2.17943E+03 -4.31602E+03  6.40367E+02 -5.11583E+03  2.83355E+03 -3.82533E+03  4.90616E+03 -1.56161E+03
  4.37530E+03  3.61995E+02  2.43169E+03  2.93442E+03 -4.16261E+02  3.17034E+03 -1.73364E+03  2.21413E+03
 -2.21319E+03  7.60570E+02 -8.44805E+02 -7.20789E+01 -1.74812E+01 -1.13899E+02 -5.73896E+02  7.35727E+02
 -1.25762E+03  1.36045E+02 -6.05831E+02 -3.93297E+02  3.35204E+02 -8.06303E+02 -3.49435E+01 -1.48471E+03
  1.86194E+03 -1.08515E+03  1.28679E+03 -5.10895E+02  2.23948E+03  2.13649E+03 -3.08811E+02  3.75321E+03
 -1.87128E+03  4.01282E+03 -2.92548E+03  3.05197E+03 -4.05697E+03 -5.54228E+02 -2.54754E+03 -2.41694E+03
 -8.54504E+02 -3.46766E+03  6.56607E+02 -2.69164E+03  1.82341E+03 -1.50673E+03  1.42696E+03  3.87670E+02
  1.33239E+03  1.01014E+03  9.14685E+01  1.06157E+03 -4.33690E+02 -3.90651E+02 -4.25864E+02 -8.89838E+02
  5.25292E+02  3.97285E+02  1.85106E+03  7.79461E+02  8.27521E+02  1.02180E+03  5.96898E+02  1.42714E+03
 -1.50919E+03  7.72168E+02 -2.19844E+03  6.69701E+02 -1.88520E+03 -1.57796E+03  1.71489E+01 -2.89898E+03
  1.41158E+03 -1.53028E+03  1.29580E+03 -8.20488E+02  2.03135E+03  8.95363E+01  1.08673E+03  1.25870E+03
  3.57137E+02  1.65256E+03 -7.18384E+02  1.12356E+03 -9.14563E+02  8.84160E+02 -8.35902E+02  6.26245E+01
 -5.40953E+02 -4.28590E+02 -7.00278E+02  2.45851E+02 -1.35988E+03  6.05398E+02 -1.47782E+03 -6.43767E+02
 -1.63619E+03 -5.37174E+02 -6.38213E+01 -1.32026E+03  9.38582E+02 -2.77180E+03  1.60852E+03 -8.95637E+02
  1.65381E+03  6.19476E+02 -7.39710E+01  8.40314E+02 -2.91263E+02  2.05772E+03 -1.06759E+03  8.45121E+02
