 $NMID ID='MM_0lb_SNR400_14hz_g50_63.RAW', FMTDAT='(8E13.5)'
 TRAMP=1., VOLUME=1. $END
  3.10192E+05  3.88133E+02  3.37139E+05  2.50738E+05  8.51203E+04  3.38779E+05 -1.32268E+05  2.51604E+05
 -1.90721E+05  8.26658E+04 -1.12095E+05 -3.27595E+04  4.44872E+02 -5.00565E+04  5.41314E+04  9.54178E-01
  3.58696E+04  5.29959E+04 -1.69513E+04  7.53070E+04 -6.06183E+04  6.43677E+04 -8.37909E+04  3.21959E+04
 -8.12302E+04 -1.04503E+04 -5.75751E+04 -5.16693E+04 -1.44686E+04 -6.99542E+04  2.72924E+04 -4.55713E+04
  4.02509E+04  3.89199E+03  1.59152E+04  4.76064E+04 -3.39565E+04  4.70751E+04 -6.65860E+04 -2.99217E+02
 -5.39716E+04 -5.65844E+04 -7.10971E+03 -7.72684E+04  3.33752E+04 -5.51723E+04  4.82804E+04 -1.76235E+04
  4.33606E+04  1.13454E+04  3.18615E+04  2.57844E+04  1.64020E+04  2.92276E+04 -5.68532E+03  2.77710E+04
 -2.23127E+04  1.19191E+04 -1.87903E+04 -4.81510E+03  6.05736E+03 -7.03893E+03  2.27470E+04  1.30137E+04
  7.28864E+03  3.53210E+04 -3.23240E+04  3.56113E+04 -6.39164E+04  1.62728E+03 -5.71007E+04 -4.29402E+04
 -1.24577E+04 -6.38111E+04  3.99467E+04 -4.53707E+04  5.83591E+04 -2.71207E+03  3.37195E+04  3.20294E+04
 -5.99943E+03  3.58102E+04 -2.99768E+04  1.58861E+04 -3.01443E+04 -3.98087E+03 -1.67380E+04 -1.08454E+04
 -7.96544E+03 -1.32822E+04 -8.90748E+02 -1.78373E+04  7.34017E+03 -2.35968E+04  1.58444E+04 -1.33254E+04
  1.13530E+04  5.00699E+03 -8.53362E+03  1.30686E+04 -2.15681E+04 -4.18583E+03 -8.56625E+03 -3.41079E+04
  2.26948E+04 -4.40294E+04  4.82138E+04 -1.96960E+04  4.49928E+04  1.87949E+04  1.63245E+04  4.44665E+04
 -1.65022E+04  3.32354E+04 -2.53163E+04  1.66764E+03 -1.03948E+04 -2.87363E+04  2.06518E+04 -3.39701E+04
  4.16369E+04 -8.71813E+03  3.57228E+04  2.35406E+04  1.88877E+04  4.63616E+04 -8.32346E+03  5.11855E+04
 -3.15771E+04  3.37296E+04 -4.22057E+04  9.80344E+03 -4.26960E+04 -1.71152E+04 -2.34298E+04 -3.82471E+04
  7.30837E+03 -3.81433E+04  3.16429E+04 -1.43340E+04  2.95718E+04  1.04873E+04  3.88117E+03  1.94322E+04
 -1.35718E+04  7.90085E+03 -1.01915E+04 -7.74953E+03  5.58485E+03 -1.05363E+04  1.83423E+04  5.75185E+03
  1.33892E+04  2.15380E+04 -6.10991E+03  2.50457E+04 -2.22198E+04  1.14644E+04 -2.79349E+04 -4.44271E+03
 -2.04383E+04 -1.77027E+04 -8.78604E+03 -2.03174E+04  4.11108E+03 -1.99530E+04  1.60210E+04 -1.87334E+04
  2.65923E+04 -1.30000E+04  3.30242E+04  2.75626E+03  2.36068E+04  1.97226E+04  4.02846E+03  3.64222E+04
 -1.79021E+04  3.01975E+04 -2.82384E+04  9.96916E+03 -2.11348E+04 -1.05855E+04 -4.89735E+03 -1.37782E+04
  1.98729E+03 -2.78300E+03 -4.49993E+03  6.74107E+03 -1.64872E+04  5.43094E+03 -1.63146E+04 -6.90355E+03
 -1.07252E+04 -1.93224E+04  4.52371E+03 -2.33996E+04  1.50874E+04 -1.67160E+04  1.76773E+04 -1.95758E+03
  1.12541E+04  1.33714E+04 -1.13946E+03  1.91297E+04 -1.31390E+04  1.06495E+04 -1.90660E+04 -3.87040E+03
 -1.42253E+04 -1.72719E+04 -2.16049E+03 -2.28912E+04  9.72941E+03 -1.89749E+04  1.88483E+04 -9.71732E+03
  1.80905E+04  5.39229E+02  1.27989E+04  4.91796E+03  6.62542E+03  6.52188E+02  9.51861E+03 -1.96448E+03
  1.73529E+04  2.55837E+03  1.94923E+04  1.53223E+04  1.25498E+04  3.02154E+04 -2.46986E+03  3.48156E+04
 -1.98284E+04  2.78214E+04 -3.16855E+04  1.39947E+04 -3.32253E+04 -1.83811E+03 -2.78581E+04 -1.93645E+04
 -1.25631E+04 -2.72365E+04  9.50177E+03 -2.47458E+04  2.13504E+04 -1.25364E+04  1.95628E+04  6.19147E+03
  7.18600E+03  1.45667E+04 -9.25590E+03  1.29638E+04 -1.66945E+04  3.00300E+03 -1.27324E+04 -9.57823E+03
 -3.23784E+02 -1.51991E+04  7.97838E+03 -1.17663E+04  1.00265E+04 -1.40960E+03  2.09596E+03  6.49594E+03
 -7.55348E+03  2.46622E+03 -6.07431E+03 -5.99039E+03 -4.21463E+02 -1.33114E+04  9.96533E+03 -1.49495E+04
  1.75306E+04 -7.89512E+03  1.83326E+04  3.39929E+03  1.62810E+04  1.33523E+04  7.16788E+03  2.04474E+04
 -3.25240E+03  2.20343E+04 -1.42331E+04  1.36762E+04 -1.55373E+04  3.42788E+03 -1.16207E+04 -3.80265E+03
 -5.37822E+03 -4.80034E+03 -1.02111E+03  1.02523E+03 -2.49672E+03  2.20426E+03 -4.78040E+03  4.48241E+03
 -1.07738E+04 -2.48715E+02 -1.12355E+04 -9.49162E+03 -4.23354E+03 -1.48032E+04  5.02531E+03 -1.14973E+04
  9.45694E+03 -4.95142E+03  6.62680E+03  2.83946E+03  2.49049E+01  4.03916E+03 -4.90727E+03 -2.56750E+02
 -5.19199E+03 -6.91954E+03 -9.60382E+02 -1.09496E+04  6.14757E+03 -1.14929E+04  1.40461E+04 -6.39753E+03
  1.64170E+04  1.76822E+03  1.25499E+04  9.76238E+03  2.77990E+03  1.27618E+04 -6.84368E+03  1.12659E+04
 -9.79489E+03  3.38296E+03 -4.69089E+03 -1.91728E+03  2.01695E+03 -3.44523E+03  6.19199E+03 -7.19865E+02
  5.78238E+03  5.13859E+03  1.49422E+03  9.17095E+03 -6.52135E+03  8.94104E+03 -1.10781E+04  2.49733E+03
 -7.18598E+03 -5.55894E+03  1.82062E+02 -9.67629E+03  5.72880E+03 -5.17698E+03  5.95045E+03  1.34810E+03
  6.72468E+02  5.60968E+03 -6.00541E+03  7.21945E+03 -8.13697E+03  3.28311E+03 -8.09116E+03 -3.19587E+03
 -5.21583E+03 -9.93057E+03  2.04602E+03 -1.12844E+04  9.86657E+03 -7.41211E+03  1.07435E+04  2.08031E+03
  6.80180E+03  8.50439E+03 -9.00467E+02  1.07427E+04 -7.64785E+03  6.19087E+03 -8.23977E+03 -1.35600E+03
 -7.38332E+03 -7.08668E+03 -1.19749E+03 -6.83526E+03  4.14591E+03 -6.74217E+03  5.30078E+03 -2.75881E+03
  3.40419E+03  1.42438E+03 -2.78188E+02  1.14113E+03  1.06609E+02 -1.51263E+03  9.06821E+02 -3.82378E+03
  7.16120E+03 -2.23169E+03  1.02286E+04  7.59832E+02  9.93771E+03  5.85154E+03  6.93104E+03  1.19081E+04
 -3.33905E+03  1.45528E+04 -1.26939E+04  1.08728E+04 -1.58678E+04  2.24603E+03 -1.21873E+04 -5.30160E+03
 -5.92481E+03 -1.07850E+04 -9.83691E+01 -8.21811E+03  3.65560E+03 -4.01838E+03  2.46679E+03 -3.56348E+03
  2.65079E+03 -2.05360E+03  2.16034E+03 -2.81511E+03  4.49473E+03 -2.03056E+03  5.26868E+03 -4.79061E+02
  6.75359E+03  1.35970E+03  2.93833E+03  5.60444E+03 -1.76610E+03  5.79539E+03 -7.00117E+03  5.08908E+03
 -8.71677E+03 -8.14737E+02 -5.10296E+03 -5.86596E+03  2.36650E+02 -9.08531E+03  4.90297E+03 -8.48947E+03
  8.72609E+03 -5.49104E+03  1.05907E+04  1.04945E+03  7.79374E+03  8.14878E+03  1.59388E+03  9.96360E+03
 -4.22482E+03  8.88256E+03 -6.29691E+03  3.22103E+03 -3.26775E+03 -1.21364E+03 -1.37936E+03 -1.87978E+03
 -9.81673E+02 -1.81959E+01 -2.04754E+03  2.52348E+03 -4.27269E+03  1.57772E+03 -6.57832E+03 -1.08390E+03
 -3.35721E+03 -5.85066E+03  7.17061E+02 -8.50281E+03  4.61862E+03 -7.52858E+03  7.38744E+03 -2.44925E+03
  8.48593E+03  4.13196E+03  3.80463E+03  6.86400E+03 -1.66998E+03  7.81644E+03 -5.20835E+03  4.30158E+03
 -7.22569E+03  6.29509E+02 -6.04394E+03 -5.23962E+03 -7.99011E+02 -6.23224E+03  3.77956E+03 -5.00875E+03
  5.33989E+03 -2.16917E+03  3.57822E+03  1.42101E+03  1.72602E+03  2.01430E+03  7.85902E+02  1.06792E+03
  2.33351E+03  1.62810E+02  2.42384E+03  1.37432E+03  2.76785E+03  3.34816E+03  2.85551E+03  3.71167E+03
 -1.76654E+03  6.43394E+03 -5.17663E+03  7.08451E+03 -7.32800E+03  1.25821E+03 -8.31795E+03 -2.39637E+03
 -3.44493E+03 -7.00472E+03  1.45963E+03 -9.13193E+03  4.28251E+03 -5.27075E+03  6.72944E+03 -1.50767E+03
  4.67681E+03  3.45052E+03  1.14853E+03  4.33103E+03 -1.59502E+03  2.38390E+03 -3.00391E+03 -5.64488E+02
 -1.16627E+03 -3.20043E+03  1.86067E+03 -3.66828E+03  2.93526E+03 -1.40648E+03  3.06499E+03  2.12420E+02
  1.61594E+03  1.22878E+03  1.04434E+03  6.57379E+02 -9.28773E+02  1.25079E+03  9.05101E+02 -7.60292E+02
  1.60909E+03 -1.88273E+02  2.87064E+03  1.30679E+03  1.44875E+03  3.71456E+03 -2.95566E+02  5.64436E+03
 -3.35477E+03  3.20711E+03 -4.56377E+03  6.14185E+02 -4.55638E+03 -1.92393E+03 -2.04085E+03 -2.16732E+03
  9.89591E+02 -2.58746E+03  2.48916E+03 -1.31400E+03  1.58252E+03  1.93445E+03 -7.03885E+02  2.75648E+03
 -2.88407E+03  1.84512E+03 -3.19802E+03 -2.29280E+03 -1.91447E+03 -4.42315E+03  1.88176E+02 -3.91895E+03
  2.08813E+03 -1.97531E+03  2.58903E+03  1.77611E+02  3.25172E+03  1.80943E+02  1.85134E+02  1.60342E+03
 -1.31765E+03  5.82933E+02 -1.91106E+03 -9.67573E+02  9.90827E+02 -2.58762E+03  3.57496E+03 -2.55169E+03
  3.83457E+03  3.34026E+02  4.87136E+03  3.02142E+03  1.55282E+03  4.86836E+03 -1.16472E+03  4.10178E+03
 -2.96503E+03  1.44451E+03 -3.78707E+03 -5.79180E+02 -1.82800E+03 -2.43512E+03  5.13615E+02 -2.30068E+03
  2.63404E+03 -1.08994E+03  2.18688E+03  1.19192E+03  1.33706E+03  2.23366E+03 -2.27219E+02  2.77657E+03
 -8.72572E+02  1.54634E+03 -1.01808E+03  8.74641E+02 -7.14089E+02  7.24439E+02 -1.26555E+03  1.54440E+03
 -1.13801E+03  2.00606E+03 -3.23417E+03  1.13934E+03 -4.12820E+03  2.17000E+02 -5.12249E+03 -3.10372E+03
 -2.48315E+03 -5.63187E+03  1.26724E+03 -6.51361E+03  3.69694E+03 -5.56255E+03  6.35782E+03 -2.19663E+03
  5.64265E+03  3.93757E+02  2.91434E+03  3.36600E+03 -2.25535E+02  4.32323E+03 -1.46790E+03  3.32546E+03
 -2.01825E+03  1.08332E+03 -1.88209E+03 -2.93317E+02 -8.09753E+01 -6.05378E+02 -5.13432E+02 -2.92101E+02
 -1.82934E+03  2.17229E+02 -2.05694E+03 -5.16306E+02  1.69112E+02 -1.70662E+03  1.94933E+02 -9.83522E+02
  2.51792E+03 -1.60864E+03  2.15923E+03  3.64867E+02  2.69521E+03  2.61653E+03  4.43723E+02  4.02559E+03
 -2.07757E+03  4.87173E+03 -4.32511E+03  3.01784E+03 -5.21639E+03 -8.29687E+02 -3.59327E+03 -2.97282E+03
 -2.32054E+03 -4.41561E+03  1.19146E+03 -3.47470E+03  2.45938E+03 -2.52105E+03  2.54797E+03  3.86538E+02
  1.26832E+03  1.21404E+03 -4.89696E+01  3.63487E+02 -9.69631E+02 -1.94035E+02 -3.94147E+01 -2.86607E+02
  4.08843E+02 -2.92386E+02  1.08882E+03  1.35016E+03  6.88943E+02  1.41889E+03  2.01398E+02  1.69745E+03
 -1.83155E+03  1.60575E+03 -1.71393E+03 -7.52315E+00 -2.13712E+03 -1.42986E+03 -4.72655E+02 -3.24395E+03
  1.71910E+03 -1.33857E+03  2.27370E+03 -7.28651E+02  2.43325E+03  9.98023E+01  1.78978E+03  2.60783E+03
 -1.10149E+02  2.79054E+03 -3.23462E+02  2.49852E+03 -1.88578E+03  1.38365E+03 -1.25677E+03  5.77907E+02
 -6.50710E+02 -6.14325E+02 -5.09243E+02  1.43274E+02 -1.57833E+03  7.50093E+02 -1.46449E+03 -6.92604E+02
 -2.61097E+03 -8.57967E+02 -1.34015E+03 -2.07803E+03  9.49291E+02 -2.87024E+03  1.88999E+03 -2.38644E+02
  2.05620E+03  2.53057E+02  9.62208E+02  1.27534E+03 -1.31550E+02  2.68038E+03 -7.04524E+02  1.79920E+03
