 $NMID ID='MM_0lb_SNR400_12hz_g40_35.RAW', FMTDAT='(8E13.5)'
 TRAMP=1., VOLUME=1. $END
  3.09559E+05  3.37861E+02  3.37667E+05  2.50529E+05  8.48479E+04  3.37638E+05 -1.32484E+05  2.50852E+05
 -1.90467E+05  8.35474E+04 -1.11652E+05 -3.23831E+04  5.46445E+02 -5.06273E+04  5.32207E+04 -4.16139E+02
  3.56231E+04  5.28144E+04 -1.67094E+04  7.53820E+04 -6.06795E+04  6.39019E+04 -8.41414E+04  3.19736E+04
 -8.14498E+04 -1.22113E+04 -5.74682E+04 -5.12337E+04 -1.50659E+04 -7.04869E+04  2.82768E+04 -4.59658E+04
  3.95775E+04  4.24737E+03  1.61634E+04  4.75693E+04 -3.43349E+04  4.79573E+04 -6.65787E+04 -2.76192E+02
 -5.39514E+04 -5.63904E+04 -6.72970E+03 -7.79600E+04  3.34766E+04 -5.49336E+04  4.77864E+04 -1.81730E+04
  4.40057E+04  1.13744E+04  3.24106E+04  2.58180E+04  1.56993E+04  2.97202E+04 -4.47439E+03  2.72629E+04
 -2.22183E+04  1.28420E+04 -1.82316E+04 -5.32894E+03  5.70009E+03 -7.74324E+03  2.30706E+04  1.23255E+04
  7.35648E+03  3.58166E+04 -3.16179E+04  3.58503E+04 -6.41730E+04  1.66109E+03 -5.68461E+04 -4.32328E+04
 -1.27536E+04 -6.35218E+04  3.94738E+04 -4.57021E+04  5.91002E+04 -2.17891E+03  3.45784E+04  3.31702E+04
 -6.15492E+03  3.67994E+04 -2.99626E+04  1.63018E+04 -3.06031E+04 -4.10529E+03 -1.74693E+04 -1.14903E+04
 -8.35308E+03 -1.31849E+04 -5.77517E+02 -1.78893E+04  8.14377E+03 -2.36210E+04  1.57061E+04 -1.28970E+04
  1.15795E+04  4.73467E+03 -9.28416E+03  1.30730E+04 -2.17747E+04 -4.69209E+03 -8.46607E+03 -3.43916E+04
  2.40746E+04 -4.45165E+04  4.87632E+04 -1.97485E+04  4.55958E+04  2.01400E+04  1.56022E+04  4.49208E+04
 -1.58230E+04  3.41771E+04 -2.48761E+04  1.89305E+03 -9.78192E+03 -2.76608E+04  2.06894E+04 -3.50142E+04
  4.14305E+04 -9.50095E+03  3.59782E+04  2.37982E+04  1.83398E+04  4.82739E+04 -8.52431E+03  5.18054E+04
 -3.20298E+04  3.47391E+04 -4.23674E+04  1.01671E+04 -4.35435E+04 -1.73768E+04 -2.44110E+04 -3.94884E+04
  7.94064E+03 -3.82927E+04  3.22097E+04 -1.49654E+04  2.98694E+04  1.09328E+04  3.92709E+03  1.92962E+04
 -1.33952E+04  8.84003E+03 -1.08677E+04 -7.52791E+03  5.49253E+03 -1.05738E+04  1.85684E+04  5.89533E+03
  1.37073E+04  2.13905E+04 -6.00330E+03  2.53949E+04 -2.27308E+04  1.17151E+04 -2.89656E+04 -4.15919E+03
 -2.19528E+04 -1.73507E+04 -8.84196E+03 -2.13471E+04  3.88334E+03 -2.09612E+04  1.60425E+04 -1.90744E+04
  2.70971E+04 -1.32356E+04  3.42128E+04  2.87196E+03  2.39573E+04  2.15148E+04  4.40952E+03  3.77504E+04
 -1.80212E+04  3.12367E+04 -2.85878E+04  1.06884E+04 -2.07136E+04 -1.01572E+04 -4.34726E+03 -1.40738E+04
  1.40808E+03 -2.30603E+03 -4.98607E+03  7.15735E+03 -1.70995E+04  4.73496E+03 -1.63342E+04 -7.42500E+03
 -1.10459E+04 -2.00699E+04  5.44198E+03 -2.46476E+04  1.57545E+04 -1.75757E+04  1.86073E+04 -1.99665E+03
  1.29350E+04  1.41019E+04 -1.25510E+03  1.96939E+04 -1.42725E+04  1.15594E+04 -2.00855E+04 -4.34126E+03
 -1.42984E+04 -1.83838E+04 -1.41330E+03 -2.41052E+04  1.17743E+04 -2.00174E+04  2.01754E+04 -1.04291E+04
  1.88732E+04  2.59931E+02  1.37540E+04  4.88525E+03  7.29654E+03  1.57879E+03  9.68180E+03 -2.49319E+03
  1.78117E+04  2.57854E+03  2.14530E+04  1.64536E+04  1.43011E+04  3.25405E+04 -2.46770E+03  3.62989E+04
 -2.17715E+04  2.98563E+04 -3.39673E+04  1.53736E+04 -3.63046E+04 -2.51917E+03 -2.92705E+04 -2.02899E+04
 -1.26993E+04 -2.98614E+04  1.01263E+04 -2.67248E+04  2.26923E+04 -1.35550E+04  2.02582E+04  6.21292E+03
  8.15438E+03  1.56380E+04 -9.25774E+03  1.30071E+04 -1.75851E+04  2.11029E+03 -1.27715E+04 -1.06376E+04
 -5.73065E+02 -1.59803E+04  8.69344E+03 -1.26105E+04  1.14885E+04 -1.38250E+03  1.92740E+03  7.36281E+03
 -7.48304E+03  2.75338E+03 -6.17275E+03 -5.92193E+03  3.92257E+02 -1.48374E+04  1.02875E+04 -1.60065E+04
  1.80126E+04 -8.15144E+03  2.02085E+04  3.26704E+03  1.74220E+04  1.37469E+04  8.47307E+03  2.25100E+04
 -3.86816E+03  2.41770E+04 -1.51279E+04  1.48491E+04 -1.75249E+04  3.46972E+03 -1.20390E+04 -3.97572E+03
 -5.46908E+03 -5.53992E+03 -1.06912E+03  6.14058E+02 -2.15790E+03  2.90090E+03 -5.29605E+03  4.97364E+03
 -1.10730E+04 -5.44945E+02 -1.17009E+04 -9.91508E+03 -4.53779E+03 -1.56641E+04  5.66306E+03 -1.22834E+04
  1.00535E+04 -5.29046E+03  7.47376E+03  3.53549E+03  8.22559E+02  5.01177E+03 -6.13839E+03  3.34708E+02
 -5.30953E+03 -7.97995E+03 -7.01896E+02 -1.15722E+04  6.75119E+03 -1.25042E+04  1.55242E+04 -6.37342E+03
  1.83696E+04  1.33517E+03  1.32590E+04  1.01364E+04  2.51460E+03  1.38509E+04 -7.68636E+03  1.24968E+04
 -1.03002E+04  4.21727E+03 -5.20643E+03 -2.95032E+03  1.67957E+03 -3.38742E+03  5.88408E+03 -7.04960E+02
  5.59139E+03  5.66243E+03  9.63751E+02  9.13401E+03 -6.88009E+03  9.46767E+03 -1.21461E+04  1.98746E+03
 -7.92348E+03 -6.30025E+03  3.18095E+02 -9.43935E+03  6.50171E+03 -5.23502E+03  6.89250E+03  1.84659E+03
  9.77353E+02  6.82043E+03 -5.98493E+03  8.42832E+03 -9.76209E+03  3.66204E+03 -9.27489E+03 -3.31148E+03
 -5.38869E+03 -1.12957E+04  2.33589E+03 -1.28007E+04  1.08330E+04 -7.90382E+03  1.19836E+04  2.10172E+03
  7.48477E+03  8.35148E+03 -6.05122E+02  1.11495E+04 -8.20643E+03  6.75475E+03 -9.16360E+03 -1.20002E+03
 -8.05079E+03 -8.07160E+03 -2.05885E+03 -8.93701E+03  3.94164E+03 -7.47954E+03  5.82267E+03 -3.11647E+03
  4.20049E+03  9.70327E+02 -4.55765E+02  2.10817E+03  2.73377E+02 -2.10945E+03  9.08048E+02 -5.15136E+03
  7.75158E+03 -2.96153E+03  1.11935E+04  9.47876E+02  1.10862E+04  7.44582E+03  7.81803E+03  1.44839E+04
 -3.37788E+03  1.67272E+04 -1.44817E+04  1.19022E+04 -1.85057E+04  2.50691E+03 -1.39099E+04 -5.88475E+03
 -8.08910E+03 -1.17775E+04 -3.42230E+02 -9.26073E+03  3.03206E+03 -6.22050E+03  3.61997E+03 -3.37158E+03
  3.03506E+03 -2.43190E+03  2.54993E+03 -3.12754E+03  4.14569E+03 -2.57051E+03  5.80457E+03 -7.05455E+02
  7.24203E+03  1.66998E+03  4.39340E+03  5.73408E+03 -1.30764E+03  7.33947E+03 -7.99003E+03  5.53847E+03
 -9.86453E+03 -8.38193E+02 -5.89788E+03 -6.90601E+03 -4.07940E+02 -1.03940E+04  6.61843E+03 -1.11117E+04
  1.05218E+04 -5.72276E+03  1.36191E+04  6.06750E+02  9.04194E+03  9.65903E+03  1.93986E+03  1.24277E+04
 -5.23515E+03  9.43763E+03 -6.84068E+03  3.94111E+03 -4.52522E+03 -1.50506E+03 -1.58685E+03 -1.79725E+03
 -2.68725E+02  7.41631E+02 -1.39865E+03  1.75756E+03 -4.07215E+03  1.69596E+03 -7.76819E+03 -6.25136E+02
 -3.75745E+03 -7.21342E+03  2.58628E+02 -1.02811E+04  5.90584E+03 -9.24859E+03  9.97734E+03 -2.16841E+03
  9.14363E+03  4.80062E+03  4.58196E+03  8.11909E+03 -2.26904E+03  1.02119E+04 -6.52382E+03  5.80224E+03
 -8.84379E+03  3.30770E+02 -6.92975E+03 -5.63380E+03 -4.99095E+02 -8.33856E+03  3.89036E+03 -5.50903E+03
  6.23646E+03 -1.11329E+03  4.14408E+03  1.10861E+03  1.19037E+03  3.37172E+03  7.03992E+02  1.31147E+03
  1.94763E+03  1.26494E+03  2.81141E+03  1.72233E+03  2.44620E+03  2.54483E+03  2.00368E+03  5.06527E+03
 -2.53371E+03  6.94302E+03 -6.51372E+03  7.39650E+03 -9.77227E+03  2.04964E+03 -1.04684E+04 -2.80126E+03
 -4.47698E+03 -9.00621E+03  1.43481E+03 -1.07739E+04  5.54053E+03 -6.53307E+03  8.09176E+03 -1.53822E+03
  5.58785E+03  4.14674E+03  5.16394E+02  5.14815E+03 -2.82536E+03  3.99097E+03 -3.45890E+03 -7.59671E+02
 -1.11601E+03 -3.86958E+03  2.26962E+03 -4.31112E+03  3.90794E+03 -1.75869E+03  3.56747E+03  6.94656E+02
  2.20401E+03  1.36274E+03  7.07601E+02  1.55583E+03 -7.89760E+02  1.52668E+03  2.24581E+03 -8.73716E+02
  1.72205E+03 -9.91379E+02  3.36375E+03  9.84644E+02  2.22862E+03  5.19615E+03 -1.22388E+03  7.09078E+03
 -4.18542E+03  3.62032E+03 -6.11262E+03  1.31259E+03 -5.77166E+03 -2.04303E+03 -1.41395E+03 -3.22893E+03
  4.51408E+02 -3.75523E+03  1.82719E+03 -1.57167E+03  2.52774E+03  2.26342E+03 -1.33478E+03  2.52482E+03
 -4.07657E+03  1.64925E+03 -3.40990E+03 -2.19139E+03 -2.23896E+03 -5.70520E+03  1.50893E+03 -5.41473E+03
  3.07039E+03 -3.13070E+03  3.11595E+03 -4.01912E+02  2.54870E+03  1.32944E+03  3.40669E+02  2.69286E+03
 -1.47522E+03  7.27248E+02 -2.59633E+03 -1.43396E+03  5.86057E+02 -3.01932E+03  4.57253E+03 -3.13254E+03
  4.73815E+03  6.11900E+02  6.02533E+03  3.50649E+03  2.19025E+03  5.55027E+03 -1.80110E+03  5.51340E+03
 -4.53999E+03  2.30794E+03 -5.57387E+03 -1.27921E+03 -2.56858E+03 -3.11331E+03  7.10912E+02 -3.08971E+03
  4.64208E+03 -2.29977E+03  3.10714E+03  1.47466E+03  6.22067E+02  3.28957E+03  7.73035E+02  2.80375E+03
 -1.65827E+03  1.48867E+03 -1.50247E+03  5.56163E+02 -6.02433E+01 -1.17671E+01 -1.41385E+03  1.75336E+03
 -1.47470E+03  2.96693E+03 -3.55099E+03  2.09939E+03 -5.02439E+03  6.71685E+01 -7.06152E+03 -3.51590E+03
 -3.25020E+03 -7.62121E+03  1.68032E+03 -8.94674E+03  4.85989E+03 -7.43633E+03  8.41130E+03 -2.84486E+03
  8.60023E+03  1.11282E+03  4.26793E+03  4.88071E+03 -1.28511E+02  5.74046E+03 -2.38219E+03  4.56675E+03
 -3.21765E+03  1.80701E+03 -1.57238E+03 -2.65534E+02 -7.99274E+02 -5.79360E+02 -4.62221E+02 -7.22300E+01
 -1.24881E+03 -1.64676E+01 -1.48365E+03 -2.60495E+02 -1.29351E+02 -1.00809E+03 -2.48540E+02 -2.26806E+03
  3.42537E+03 -1.45641E+03  2.96711E+03  3.78312E+02  4.06894E+03  2.53785E+03  7.87829E+02  5.09943E+03
 -3.11394E+03  6.84273E+03 -5.78795E+03  3.62221E+03 -6.81739E+03 -6.96802E+02 -5.42837E+03 -4.52052E+03
 -1.89815E+03 -5.75311E+03  6.65984E+02 -4.54924E+03  3.40659E+03 -2.67917E+03  3.82320E+03  2.41604E+02
  2.14425E+03  2.16509E+03 -3.41663E+02  1.58744E+03 -1.25913E+03 -1.61731E+02  3.73498E+02 -1.19264E+03
  1.96888E+03 -5.37943E+02  2.43418E+03  5.08173E+02  1.78901E+03  2.06334E+03  6.68422E+02  2.62539E+03
 -2.07294E+03  1.93429E+03 -3.62976E+03  4.22584E+02 -3.09285E+03 -2.42911E+03 -9.38013E+02 -4.57575E+03
  1.98737E+03 -3.59088E+03  3.88057E+03 -7.42713E+02  4.59506E+03 -5.35517E+02  2.27457E+03  3.21024E+03
  1.15134E+03  2.79875E+03 -1.51384E+03  2.54035E+03 -2.14855E+03  1.32934E+03 -1.63155E+03  7.36579E+02
 -1.55921E+02  7.30876E+01 -1.29029E+03  3.56181E+02 -2.08914E+03  1.00223E+03 -2.30969E+03 -3.81526E+02
 -3.11704E+03 -2.09337E+03 -1.41151E+03 -3.91938E+03  1.80482E+03 -4.15105E+03  3.17975E+03 -1.99866E+03
  3.36297E+03  3.92226E+02  1.37433E+03  2.36506E+03 -1.58806E+02  3.29841E+03 -2.87163E+03  2.25236E+03
