 $NMID ID='MM_0lb_SNR400_8hz_g55_53.RAW', FMTDAT='(8E13.5)'
 TRAMP=1., VOLUME=1. $END
  3.09690E+05  5.22211E+00  3.37671E+05  2.50216E+05  8.59074E+04  3.38971E+05 -1.33189E+05  2.52117E+05
 -1.91188E+05  8.41275E+04 -1.12559E+05 -3.15020E+04  3.29698E+02 -5.05112E+04  5.38221E+04 -9.00127E+02
  3.53723E+04  5.23847E+04 -1.68782E+04  7.62156E+04 -6.08187E+04  6.48590E+04 -8.53990E+04  3.27987E+04
 -8.31428E+04 -1.16257E+04 -5.87113E+04 -5.28071E+04 -1.51927E+04 -7.25045E+04  2.87885E+04 -4.68562E+04
  4.12651E+04  3.72787E+03  1.74415E+04  4.92765E+04 -3.50583E+04  4.86757E+04 -6.93269E+04 -1.68814E+01
 -5.53455E+04 -5.85551E+04 -7.02690E+03 -8.00298E+04  3.47253E+04 -5.75681E+04  5.11648E+04 -1.81741E+04
  4.59511E+04  1.16128E+04  3.33384E+04  2.65120E+04  1.61821E+04  3.03966E+04 -6.29733E+03  2.87487E+04
 -2.22556E+04  1.21183E+04 -1.83596E+04 -5.93360E+03  8.02254E+03 -7.21339E+03  2.33811E+04  1.42992E+04
  7.22283E+03  3.81460E+04 -3.48813E+04  3.81540E+04 -6.50999E+04  1.88489E+03 -5.88403E+04 -4.44365E+04
 -1.24793E+04 -6.71820E+04  4.21418E+04 -4.83192E+04  6.11153E+04 -3.38338E+03  3.76145E+04  3.55617E+04
 -4.67069E+03  4.08616E+04 -3.24082E+04  1.93258E+04 -3.49137E+04 -3.98191E+03 -1.90973E+04 -1.13404E+04
 -9.57508E+03 -1.56076E+04 -5.96539E+02 -2.02578E+04  9.00363E+03 -2.35231E+04  1.63904E+04 -1.25896E+04
  1.01815E+04  6.76667E+03 -1.10700E+04  1.27945E+04 -2.35758E+04 -7.81664E+03 -8.74252E+03 -3.91258E+04
  2.57441E+04 -4.81874E+04  5.26214E+04 -2.03589E+04  4.86579E+04  2.09283E+04  1.75308E+04  4.76554E+04
 -1.67060E+04  3.66306E+04 -2.85612E+04  2.82283E+03 -1.19288E+04 -3.02784E+04  2.15697E+04 -3.76074E+04
  4.54453E+04 -1.21531E+04  4.03454E+04  2.48143E+04  2.22997E+04  5.16265E+04 -8.43074E+03  5.78716E+04
 -3.72217E+04  4.02793E+04 -4.93013E+04  1.15124E+04 -4.94630E+04 -1.88201E+04 -2.64305E+04 -4.42360E+04
  7.48236E+03 -4.29972E+04  3.61223E+04 -1.72845E+04  3.33557E+04  1.19036E+04  5.83094E+03  2.19129E+04
 -1.46592E+04  1.02917E+04 -1.09697E+04 -7.35165E+03  5.30174E+03 -1.11212E+04  1.92333E+04  5.47121E+03
  1.53319E+04  2.25445E+04 -4.23424E+03  2.73831E+04 -2.44001E+04  1.46583E+04 -3.26762E+04 -2.67786E+03
 -2.65064E+04 -1.89441E+04 -1.25811E+04 -2.70141E+04  3.89159E+03 -2.71832E+04  2.09649E+04 -2.43713E+04
  3.38769E+04 -1.43185E+04  3.91131E+04  5.42284E+03  2.82466E+04  2.58418E+04  4.46203E+03  4.30485E+04
 -2.05203E+04  3.54904E+04 -3.12187E+04  1.27416E+04 -2.27908E+04 -9.65339E+03 -4.73054E+03 -1.30366E+04
  4.18499E+02 -7.75507E+02 -9.16127E+03  9.75124E+03 -2.14087E+04  4.52956E+03 -2.14883E+04 -9.90232E+03
 -1.27701E+04 -2.48377E+04  6.84710E+03 -2.85916E+04  2.02294E+04 -2.03513E+04  2.32933E+04 -2.37262E+03
  1.56517E+04  1.71225E+04 -1.51683E+03  2.48629E+04 -1.73527E+04  1.41928E+04 -2.53903E+04 -4.93836E+03
 -1.78513E+04 -2.29124E+04 -1.67656E+03 -2.88334E+04  1.35511E+04 -2.48406E+04  2.46586E+04 -1.32966E+04
  2.35263E+04  3.49096E+01  1.72605E+04  5.40847E+03  9.45536E+03  9.17893E+02  1.35444E+04 -2.36536E+03
  2.30331E+04  2.46472E+03  2.76867E+04  1.87178E+04  1.89991E+04  3.98188E+04 -2.12443E+03  4.78992E+04
 -2.66741E+04  3.97682E+04 -4.51314E+04  2.05251E+04 -4.77442E+04 -3.82276E+03 -3.87394E+04 -2.90215E+04
 -1.53848E+04 -4.04575E+04  1.41939E+04 -3.52649E+04  3.00116E+04 -1.64911E+04  2.57970E+04  8.46887E+03
  8.64974E+03  2.08864E+04 -1.26964E+04  1.62298E+04 -2.11028E+04  2.57048E+03 -1.65710E+04 -1.42814E+04
 -1.27990E+02 -2.06197E+04  1.01685E+04 -1.45094E+04  1.33898E+04 -1.02606E+03  4.58119E+03  9.43380E+03
 -9.60293E+03  4.33647E+03 -1.06925E+04 -6.77196E+03 -3.09776E+03 -1.80702E+04  1.28255E+04 -2.18215E+04
  2.49304E+04 -1.09270E+04  2.82991E+04  3.80312E+03  2.60174E+04  2.07149E+04  1.19270E+04  3.18931E+04
 -6.68036E+03  3.38883E+04 -2.22663E+04  2.10479E+04 -2.47151E+04  3.49544E+03 -1.62116E+04 -6.15403E+03
 -7.31954E+03 -7.47574E+03  1.15476E+02 -8.09123E+01 -2.54122E+03  3.91799E+03 -8.27584E+03  5.43461E+03
 -1.58061E+04 -1.06145E+03 -1.54101E+04 -1.21522E+04 -6.40651E+03 -2.11391E+04  6.57795E+03 -1.76516E+04
  1.42029E+04 -6.69192E+03  1.05496E+04  5.68344E+03 -4.70100E+02  7.48841E+03 -9.18270E+03  1.34825E+02
 -8.20330E+03 -1.07842E+04 -1.07844E+03 -1.68817E+04  1.07327E+04 -1.82791E+04  2.21204E+04 -9.53221E+03
  2.61787E+04  2.03611E+03  1.85339E+04  1.56946E+04  3.11120E+03  2.04818E+04 -1.05529E+04  1.79111E+04
 -1.41667E+04  5.40108E+03 -8.03872E+03 -4.29975E+03  1.69236E+03 -5.00786E+03  8.50868E+03 -1.17305E+03
  7.18951E+03  7.98277E+03  1.30875E+03  1.30858E+04 -9.41169E+03  1.33036E+04 -1.80501E+04  2.36686E+03
 -1.18679E+04 -9.34615E+03  7.45744E+01 -1.47055E+04  9.78365E+03 -7.70265E+03  9.90157E+03  4.07301E+03
  3.57316E+03  1.12665E+04 -8.13277E+03  1.39423E+04 -1.62446E+04  5.95024E+03 -1.64832E+04 -5.59006E+03
 -8.74835E+03 -1.73188E+04  4.21029E+03 -2.04342E+04  1.73160E+04 -1.17333E+04  1.87139E+04  3.95504E+03
  1.06933E+04  1.56076E+04 -1.02314E+03  1.76209E+04 -1.34304E+04  1.00476E+04 -1.48591E+04 -1.69018E+03
 -1.29055E+04 -1.22188E+04 -3.33008E+02 -1.31909E+04  7.56526E+03 -1.15620E+04  8.43813E+03 -3.72892E+03
  5.44821E+03  2.39216E+03 -1.87048E+03  1.64690E+03 -8.76636E+02 -3.97916E+03  4.14045E+03 -8.56178E+03
  1.32279E+04 -6.05673E+03  1.76721E+04  2.18836E+03  1.75058E+04  1.33741E+04  1.03051E+04  2.43810E+04
 -5.63788E+03  2.67797E+04 -2.19732E+04  1.91229E+04 -2.97038E+04  4.20497E+03 -2.35844E+04 -1.08479E+04
 -1.12562E+04 -1.91654E+04 -5.33662E+01 -1.63054E+04  5.52662E+03 -8.91120E+03  5.82601E+03 -6.38275E+03
  4.28656E+03 -3.56710E+03  4.57990E+03 -4.00360E+03  5.77814E+03 -3.16569E+03  8.35030E+03 -1.91616E+03
  1.25998E+04  2.71610E+03  7.07069E+03  1.08896E+04 -2.51057E+03  1.35237E+04 -1.28307E+04  8.87112E+03
 -1.60578E+04 -1.67669E+03 -1.23747E+04 -1.20443E+04 -2.31974E+03 -1.87893E+04  1.13395E+04 -1.82980E+04
  1.93308E+04 -9.28573E+03  2.18515E+04  3.78132E+03  1.52647E+04  1.62749E+04  2.37803E+03  1.97796E+04
 -9.63023E+03  1.64713E+04 -1.12046E+04  5.32617E+03 -8.29835E+03 -1.79344E+03 -3.63089E+03 -3.04610E+03
 -1.75213E+03  2.67365E+02 -3.55294E+03  3.84931E+03 -6.38029E+03  2.94311E+03 -1.19800E+04 -2.08239E+03
 -8.23572E+03 -1.11058E+04  6.86546E+01 -1.67221E+04  1.06314E+04 -1.60020E+04  1.76160E+04 -4.67355E+03
  1.72440E+04  8.01677E+03  7.45588E+03  1.56405E+04 -4.14398E+03  1.80443E+04 -1.15218E+04  1.08336E+04
 -1.63396E+04  2.45976E+00 -1.22316E+04 -1.03667E+04 -9.60474E+02 -1.41931E+04  8.16127E+03 -9.89880E+03
  1.07752E+04 -3.81197E+03  8.28521E+03  3.63884E+03  3.22773E+03  4.65104E+03  1.37793E+03  3.14901E+03
  1.95259E+03  7.30704E+02  4.46234E+03  2.44027E+03  4.05948E+03  6.51067E+03  4.33205E+03  1.00355E+04
 -2.69467E+03  1.31986E+04 -1.30322E+04  1.20779E+04 -1.82732E+04  3.07246E+03 -1.82533E+04 -8.29107E+03
 -9.18546E+03 -1.81251E+04  2.48036E+03 -1.95170E+04  1.06623E+04 -1.25401E+04  1.46101E+04 -3.04054E+03
  1.13960E+04  6.97041E+03  2.13893E+03  1.03117E+04 -5.48112E+03  5.35660E+03 -7.38162E+03 -6.19879E+02
 -4.13697E+03 -8.15900E+03  4.27550E+03 -7.57882E+03  7.44124E+03 -4.11254E+03  7.15439E+03  1.35217E+03
  3.70825E+03  4.00959E+03  2.57596E+03  3.28219E+03 -1.66534E+03  2.34053E+03  1.89688E+03 -2.18538E+02
  3.21870E+03 -1.06221E+03  7.24476E+03  2.20560E+03  3.47996E+03  1.03869E+04 -2.03562E+03  1.23247E+04
 -8.63907E+03  8.81609E+03 -1.14851E+04  2.35644E+03 -1.07656E+04 -3.80683E+03 -4.07471E+03 -7.75367E+03
  4.12180E+02 -7.07643E+03  4.85047E+03 -1.97933E+03  4.47226E+03  2.89186E+03 -1.67852E+03  5.92653E+03
 -7.47187E+03  3.16128E+03 -8.90189E+03 -4.89026E+03 -4.77809E+03 -9.89136E+03  1.36695E+03 -9.85863E+03
  5.59386E+03 -6.13490E+03  8.29601E+03 -1.60678E+03  4.89943E+03  2.19378E+03  8.80816E+02  5.71122E+03
 -3.13427E+03  1.73262E+03 -4.91111E+03 -3.77544E+03  2.16328E+03 -8.00454E+03  9.70645E+03 -6.75720E+03
  1.19724E+04  8.52387E+02  1.10274E+04  8.53907E+03  3.45620E+03  1.19619E+04 -5.02738E+03  1.16509E+04
 -9.60371E+03  6.26675E+03 -1.00290E+04 -2.19582E+03 -5.29695E+03 -8.14151E+03  2.04345E+03 -7.45196E+03
  8.11243E+03 -3.86717E+03  5.97360E+03  3.46535E+03  1.36163E+03  6.09329E+03 -1.93041E+03  6.44431E+03
 -3.86300E+03  3.39619E+03 -2.92359E+03  7.50176E+02 -1.90866E+03  1.18320E+03 -2.15200E+03  2.55265E+03
 -3.62270E+03  4.42366E+03 -8.15145E+03  3.45242E+03 -1.25501E+04  2.29245E+01 -1.37340E+04 -8.59655E+03
 -7.16438E+03 -1.59930E+04  4.25470E+03 -2.00829E+04  1.12538E+04 -1.50309E+04  1.78314E+04 -5.73806E+03
  1.58688E+04  3.55848E+03  1.12769E+04  1.11738E+04  8.45369E+02  1.28095E+04 -5.61701E+03  9.82204E+03
 -7.53409E+03  3.23976E+03 -4.86511E+03 -1.69591E+03 -1.50350E+03 -9.16306E+02 -7.60645E+02 -4.50338E+01
 -1.34602E+03  7.56417E+02 -2.36493E+03 -6.11764E+02 -5.56354E+02 -3.62093E+03  4.75240E+02 -4.43024E+03
  5.42480E+03 -4.36515E+03  8.70136E+03 -7.86910E+01  9.01363E+03  6.88026E+03  3.03549E+03  1.25468E+04
 -6.40324E+03  1.45931E+04 -1.39802E+04  8.67629E+03 -1.53065E+04 -9.57839E+02 -1.24977E+04 -9.89493E+03
 -4.32438E+03 -1.27729E+04  3.24514E+03 -1.15497E+04  9.43949E+03 -6.94037E+03  8.64085E+03 -4.43367E+02
  4.98443E+03  4.31779E+03 -6.36638E+02  3.06748E+03 -2.92919E+03 -8.57684E+02  3.39908E+02 -3.70001E+03
  5.01697E+03 -3.13136E+03  5.08888E+03  2.18631E+03  4.38906E+03  5.12880E+03 -7.58461E+02  7.03225E+03
 -4.68637E+03  5.83199E+03 -9.38237E+03  1.31110E+03 -8.11212E+03 -6.59979E+03 -3.10449E+02 -1.14080E+04
  5.75615E+03 -9.30530E+03  1.01467E+04 -2.29256E+03  1.05173E+04  3.45788E+03  6.16082E+03  8.17667E+03
  1.62937E+03  8.89382E+03 -3.82106E+03  7.66287E+03 -5.01125E+03  3.89255E+03 -4.13960E+03 -4.41212E+02
 -2.22717E+03 -1.46349E+02 -2.21374E+03  5.44259E+02 -4.30714E+03  1.58509E+03 -6.98914E+03 -9.20823E+02
 -6.39078E+03 -4.75959E+03 -2.59370E+03 -8.91604E+03  4.24332E+03 -8.60972E+03  7.59047E+03 -3.87211E+03
  8.66857E+03  4.43575E+02  5.50187E+03  6.56795E+03 -1.56067E+03  9.14274E+03 -6.30341E+03  5.01039E+03
