 $NMID ID='MM_0lb_SNR400_11hz_g60_48.RAW', FMTDAT='(8E13.5)'
 TRAMP=1., VOLUME=1. $END
  3.10031E+05 -7.80825E+01  3.38091E+05  2.51142E+05  8.52742E+04  3.38443E+05 -1.33062E+05  2.51516E+05
 -1.90603E+05  8.35171E+04 -1.12822E+05 -3.23387E+04  2.15338E+01 -4.94063E+04  5.34376E+04 -3.39982E+02
  3.47083E+04  5.27334E+04 -1.69086E+04  7.52353E+04 -6.12674E+04  6.42171E+04 -8.50874E+04  3.21038E+04
 -8.29067E+04 -1.17151E+04 -5.87547E+04 -5.25789E+04 -1.55778E+04 -7.10302E+04  2.75098E+04 -4.71597E+04
  4.09522E+04  3.60687E+03  1.66268E+04  4.92244E+04 -3.43970E+04  4.80888E+04 -6.66663E+04 -1.13946E+02
 -5.52073E+04 -5.74646E+04 -6.30521E+03 -7.93154E+04  3.41964E+04 -5.68786E+04  4.91758E+04 -1.85672E+04
  4.47243E+04  1.15580E+04  3.39617E+04  2.56780E+04  1.53503E+04  3.03079E+04 -6.15987E+03  2.77652E+04
 -2.24226E+04  1.21186E+04 -1.82913E+04 -6.07599E+03  6.34361E+03 -7.25940E+03  2.27535E+04  1.33361E+04
  7.15796E+03  3.72273E+04 -3.39616E+04  3.67919E+04 -6.57029E+04  2.76937E+03 -5.88523E+04 -4.39557E+04
 -1.22192E+04 -6.52602E+04  4.09347E+04 -4.68410E+04  6.11561E+04 -2.38332E+03  3.66472E+04  3.40381E+04
 -4.87451E+03  3.91918E+04 -3.13467E+04  1.86572E+04 -3.27477E+04 -3.06737E+03 -1.81719E+04 -1.18096E+04
 -8.74926E+03 -1.49296E+04  4.95350E+01 -1.91495E+04  8.59253E+03 -2.30986E+04  1.57192E+04 -1.29391E+04
  1.06804E+04  6.81275E+03 -1.03501E+04  1.32402E+04 -2.33929E+04 -6.12919E+03 -8.96181E+03 -3.63032E+04
  2.41234E+04 -4.66722E+04  5.11742E+04 -2.07426E+04  4.78816E+04  2.06423E+04  1.66513E+04  4.72370E+04
 -1.65752E+04  3.60434E+04 -2.71618E+04  3.10946E+03 -1.13606E+04 -2.90878E+04  2.21220E+04 -3.64591E+04
  4.45031E+04 -1.10579E+04  4.00006E+04  2.48512E+04  2.05637E+04  5.03863E+04 -9.03133E+03  5.46600E+04
 -3.51722E+04  3.74173E+04 -4.68382E+04  1.06848E+04 -4.68849E+04 -1.75521E+04 -2.50779E+04 -4.21016E+04
  7.80628E+03 -4.20830E+04  3.44151E+04 -1.71900E+04  3.14888E+04  1.16496E+04  5.32312E+03  2.04389E+04
 -1.40434E+04  9.36520E+03 -1.10541E+04 -7.72034E+03  5.96169E+03 -1.17480E+04  1.86343E+04  5.40673E+03
  1.49362E+04  2.28693E+04 -4.98904E+03  2.65879E+04 -2.30246E+04  1.36469E+04 -3.10902E+04 -2.93486E+03
 -2.53303E+04 -1.77693E+04 -1.19349E+04 -2.40439E+04  3.90917E+03 -2.43328E+04  1.84474E+04 -2.19420E+04
  3.12929E+04 -1.38213E+04  3.81921E+04  4.80086E+03  2.66658E+04  2.37286E+04  3.76567E+03  4.05998E+04
 -1.99201E+04  3.34411E+04 -3.01073E+04  1.17027E+04 -2.21279E+04 -9.90674E+03 -4.67972E+03 -1.28628E+04
  8.73091E+02 -1.48013E+03 -7.27499E+03  7.72348E+03 -1.93842E+04  5.58413E+03 -1.95741E+04 -9.26414E+03
 -1.17320E+04 -2.32176E+04  6.38253E+03 -2.70794E+04  1.75350E+04 -1.92577E+04  2.18525E+04 -1.24489E+03
  1.43038E+04  1.62360E+04 -7.34144E+02  2.22889E+04 -1.56810E+04  1.29968E+04 -2.33359E+04 -3.85131E+03
 -1.60957E+04 -2.04866E+04 -1.88100E+03 -2.63907E+04  1.17690E+04 -2.26267E+04  2.28920E+04 -1.15711E+04
  2.03430E+04  6.00969E+01  1.51968E+04  5.12425E+03  8.35546E+03  1.11355E+03  1.14454E+04 -1.77484E+03
  2.21687E+04  3.30807E+03  2.40345E+04  1.80386E+04  1.70017E+04  3.61887E+04 -2.90618E+03  4.24323E+04
 -2.47234E+04  3.53170E+04 -3.97657E+04  1.76098E+04 -4.23994E+04 -2.43970E+03 -3.50924E+04 -2.41976E+04
 -1.39105E+04 -3.50906E+04  1.21894E+04 -3.11473E+04  2.59265E+04 -1.47593E+04  2.27913E+04  7.27132E+03
  7.97386E+03  1.83332E+04 -1.14568E+04  1.48844E+04 -1.95463E+04  3.28335E+03 -1.50435E+04 -1.21244E+04
 -1.04453E+02 -1.81290E+04  1.02550E+04 -1.36266E+04  1.27590E+04 -1.08553E+03  3.05465E+03  8.00114E+03
 -7.89378E+03  4.39870E+03 -8.29915E+03 -6.97293E+03 -1.84504E+03 -1.68429E+04  1.01732E+04 -1.81550E+04
  2.12592E+04 -1.07104E+04  2.44127E+04  3.23038E+03  2.16765E+04  1.72381E+04  9.53390E+03  2.77797E+04
 -5.95929E+03  2.88859E+04 -1.94227E+04  1.69823E+04 -2.10521E+04  3.64306E+03 -1.51860E+04 -5.75359E+03
 -5.96019E+03 -6.67024E+03 -9.14564E+02  8.66550E+02 -3.11835E+03  3.39989E+03 -7.04378E+03  5.36229E+03
 -1.30222E+04 -8.64466E+02 -1.38726E+04 -1.12445E+04 -5.65832E+03 -1.88557E+04  5.16447E+03 -1.48719E+04
  1.21115E+04 -5.93623E+03  8.50401E+03  3.86336E+03 -4.27081E+02  5.82095E+03 -7.26796E+03  1.50787E+02
 -7.20891E+03 -8.81016E+03 -1.12224E+03 -1.44510E+04  8.88243E+03 -1.53035E+04  1.87107E+04 -8.24894E+03
  2.21700E+04  2.58554E+03  1.63530E+04  1.27808E+04  2.99105E+03  1.69251E+04 -8.48059E+03  1.43593E+04
 -1.21535E+04  3.53854E+03 -5.55656E+03 -2.87597E+03  2.41638E+03 -3.99120E+03  7.50175E+03 -9.02396E+02
  6.73947E+03  6.96532E+03  8.89806E+02  1.11318E+04 -7.91464E+03  1.05214E+04 -1.45891E+04  2.53982E+03
 -1.01980E+04 -7.85600E+03  2.50625E+02 -1.29114E+04  6.85838E+03 -5.70753E+03  8.54940E+03  3.19980E+03
  2.30783E+03  9.02482E+03 -7.09197E+03  1.11610E+04 -1.26741E+04  5.20388E+03 -1.22559E+04 -3.94023E+03
 -6.93300E+03 -1.41174E+04  3.66024E+03 -1.63371E+04  1.36121E+04 -1.04837E+04  1.50996E+04  3.07363E+03
  9.36735E+03  1.23024E+04 -1.42092E+03  1.42119E+04 -1.09447E+04  8.45371E+03 -1.11298E+04 -1.43736E+03
 -9.54802E+03 -9.65262E+03 -2.09763E+03 -1.10859E+04  5.88552E+03 -8.82388E+03  6.88810E+03 -3.33437E+03
  4.51725E+03  1.17508E+03 -4.60603E+02  1.50344E+03 -5.09295E+02 -3.33462E+03  2.20947E+03 -6.65663E+03
  1.00297E+04 -4.11111E+03  1.42086E+04  9.69424E+02  1.34567E+04  9.87770E+03  9.12066E+03  1.82116E+04
 -4.91778E+03  2.06148E+04 -1.90314E+04  1.54160E+04 -2.25430E+04  3.38811E+03 -1.82441E+04 -8.32628E+03
 -8.59330E+03 -1.51466E+04 -9.62718E+01 -1.25269E+04  5.01794E+03 -7.59979E+03  4.71623E+03 -4.95216E+03
  2.95243E+03 -3.08156E+03  3.81373E+03 -3.85849E+03  5.12341E+03 -3.20221E+03  7.02934E+03 -6.54522E+02
  9.51775E+03  1.97532E+03  5.83479E+03  9.03885E+03 -2.55080E+03  1.07578E+04 -9.66315E+03  7.20062E+03
 -1.32068E+04 -2.10516E+03 -8.52516E+03 -9.05739E+03 -5.91987E+02 -1.44039E+04  7.08194E+03 -1.32034E+04
  1.42650E+04 -7.42675E+03  1.74176E+04  2.19262E+03  1.19200E+04  1.21499E+04  1.90745E+03  1.56043E+04
 -6.42202E+03  1.31218E+04 -8.26888E+03  4.22026E+03 -6.40264E+03 -2.47175E+03 -2.46953E+03 -1.65829E+03
 -7.58392E+02 -1.34011E+02 -1.69563E+03  2.91706E+03 -5.17956E+03  3.07018E+03 -9.04855E+03 -1.33158E+03
 -5.60593E+03 -8.61865E+03 -8.80353E+02 -1.26848E+04  7.97280E+03 -1.20048E+04  1.26593E+04 -4.25297E+03
  1.23322E+04  6.65393E+03  6.45214E+03  1.17760E+04 -2.69204E+03  1.24010E+04 -8.78188E+03  8.02193E+03
 -1.17306E+04  2.19065E+01 -9.06531E+03 -8.28015E+03 -9.52865E+02 -1.06226E+04  5.31097E+03 -7.09648E+03
  8.21360E+03 -2.30150E+03  5.52353E+03  1.31546E+03  1.49614E+03  3.72665E+03  1.36479E+03  1.55444E+03
  2.65985E+03  1.39157E+03  3.18524E+03  1.68232E+03  4.32338E+03  4.63518E+03  3.35880E+03  6.94748E+03
 -2.38847E+03  8.88710E+03 -8.90261E+03  9.32486E+03 -1.22415E+04  3.00598E+03 -1.32871E+04 -4.68783E+03
 -5.52049E+03 -1.22513E+04  2.34982E+03 -1.45233E+04  7.40274E+03 -9.04759E+03  1.05981E+04 -2.21142E+03
  7.76341E+03  4.77973E+03  2.85841E+03  7.23912E+03 -3.24933E+03  4.54807E+03 -5.03194E+03 -7.32221E+02
 -3.55870E+03 -4.80444E+03  3.62191E+03 -5.10501E+03  5.30833E+03 -3.27064E+03  5.06972E+03  1.49665E+03
  3.11828E+03  2.74245E+03  1.01884E+03  1.98973E+03 -5.79389E+02  1.84517E+03  2.09897E+03 -1.62254E+02
  1.73923E+03 -1.03921E+03  5.38898E+03  2.36706E+03  2.74997E+03  6.77794E+03 -2.04374E+03  9.33805E+03
 -5.25462E+03  5.56132E+03 -7.71450E+03  1.31107E+03 -6.79683E+03 -2.87765E+03 -2.44106E+03 -4.77009E+03
  5.79172E+02 -5.51137E+03  3.54940E+03 -2.18610E+03  3.13495E+03  2.76504E+03 -1.91637E+03  4.03348E+03
 -5.10193E+03  1.65702E+03 -5.14832E+03 -2.93641E+03 -3.59606E+03 -6.95186E+03  1.44675E+03 -6.30189E+03
  4.13552E+03 -4.06110E+03  5.23621E+03 -3.61511E+01  4.40357E+03  2.04040E+03  1.30958E+03  3.41965E+03
 -2.30974E+03  9.32572E+02 -3.19127E+03 -2.38826E+03  1.85088E+03 -5.03914E+03  6.00476E+03 -4.28884E+03
  7.36838E+03  3.33381E+02  7.95977E+03  4.36255E+03  2.53571E+03  7.70507E+03 -2.49435E+03  8.06148E+03
 -6.44538E+03  3.01503E+03 -6.92636E+03 -1.50912E+03 -3.49527E+03 -4.88185E+03  1.22025E+03 -4.95524E+03
  4.78549E+03 -1.72313E+03  4.24134E+03  2.78556E+03  2.24129E+03  4.58209E+03 -9.24223E+02  3.56523E+03
 -1.76274E+03  2.66915E+03 -2.18403E+03  4.49200E+02 -5.63963E+02  1.67968E+03 -1.26290E+03  1.60623E+03
 -1.35370E+03  3.45613E+03 -4.35408E+03  2.14501E+03 -7.81286E+03  3.76390E+02 -8.18024E+03 -4.89754E+03
 -4.42843E+03 -1.04035E+04  2.26329E+03 -1.21507E+04  7.37843E+03 -8.76929E+03  1.14250E+04 -3.21050E+03
  1.05108E+04  2.33856E+03  5.77197E+03  6.65021E+03  2.83014E+02  7.95649E+03 -3.46655E+03  6.41232E+03
 -5.47859E+03  3.06809E+03 -2.75325E+03 -7.01778E+02 -3.74492E+02 -1.62976E+02 -1.02799E+03  5.80138E+02
 -1.46189E+03 -3.83577E+01 -1.33634E+03 -7.53555E+02 -4.40293E+02 -9.95420E+02 -3.31433E+02 -2.85815E+03
  3.24754E+03 -2.84496E+03  5.03715E+03  7.62184E+01  5.40809E+03  4.06247E+03  1.36272E+03  7.56892E+03
 -4.36947E+03  9.04916E+03 -8.40896E+03  5.55904E+03 -9.92760E+03 -1.14229E+03 -6.94553E+03 -5.65606E+03
 -2.57301E+03 -7.64176E+03  1.33480E+03 -6.92797E+03  5.29953E+03 -4.12566E+03  4.57989E+03  1.50078E+03
  3.01568E+03  2.75383E+03  4.53047E+02  1.90978E+03 -4.54634E+02  4.32187E+02  5.19855E+02 -1.38601E+03
  2.66143E+03 -7.21184E+02  3.69675E+03  1.05083E+03  2.56808E+03  2.58322E+03  5.48121E+02  3.58595E+03
 -3.68255E+03  3.66537E+03 -4.93975E+03  5.46499E+02 -4.26184E+03 -3.97481E+03 -4.99923E+02 -6.41329E+03
  4.00977E+03 -5.95227E+03  5.74637E+03 -1.21335E+03  5.81419E+03  5.03825E+02  3.85635E+03  5.00432E+03
  9.21126E+02  4.53919E+03 -1.83928E+03  4.38936E+03 -2.54207E+03  2.69346E+03 -2.29561E+03  6.63780E+02
 -1.13566E+03 -2.52536E+02 -1.82911E+03  1.29599E+03 -3.44172E+03  9.70291E+02 -4.03645E+03 -9.73242E+02
 -3.84012E+03 -2.00042E+03 -1.61360E+03 -5.33838E+03  2.56990E+03 -5.92859E+03  3.66131E+03 -1.86805E+03
  4.81494E+03  1.17407E+03  2.28304E+03  4.11044E+03 -4.35228E+02  4.81482E+03 -3.99350E+03  3.15616E+03
