 $NMID ID='MM_0lb_SNR400_17hz_g55_77.RAW', FMTDAT='(8E13.5)'
 TRAMP=1., VOLUME=1. $END
  3.09374E+05  4.36433E+02  3.37382E+05  2.50228E+05  8.38965E+04  3.37721E+05 -1.32813E+05  2.50824E+05
 -1.89989E+05  8.33065E+04 -1.11718E+05 -3.23766E+04  1.00329E+03 -5.07400E+04  5.36456E+04  1.70919E+02
  3.56792E+04  5.26045E+04 -1.74484E+04  7.51286E+04 -6.06388E+04  6.31154E+04 -8.36616E+04  3.16695E+04
 -8.01619E+04 -1.16001E+04 -5.73339E+04 -5.05050E+04 -1.46291E+04 -6.89194E+04  2.74446E+04 -4.57622E+04
  3.98758E+04  3.69227E+03  1.57615E+04  4.74576E+04 -3.35003E+04  4.64631E+04 -6.59652E+04 -6.06365E+02
 -5.24890E+04 -5.65540E+04 -6.94522E+03 -7.61194E+04  3.36688E+04 -5.43330E+04  4.77368E+04 -1.68898E+04
  4.29857E+04  1.16551E+04  3.14790E+04  2.59879E+04  1.59408E+04  2.88456E+04 -5.21813E+03  2.69744E+04
 -2.16114E+04  1.24218E+04 -1.82260E+04 -5.40990E+03  5.24131E+03 -7.66668E+03  2.21440E+04  1.22362E+04
  6.93816E+03  3.45885E+04 -3.12647E+04  3.53730E+04 -6.30536E+04  2.38648E+03 -5.66876E+04 -4.24211E+04
 -1.20791E+04 -6.22284E+04  3.93512E+04 -4.49331E+04  5.73972E+04 -2.05048E+03  3.36378E+04  3.18295E+04
 -5.93594E+03  3.51837E+04 -2.93450E+04  1.50952E+04 -2.95518E+04 -4.76238E+03 -1.60233E+04 -1.05544E+04
 -8.54601E+03 -1.20370E+04 -3.40320E+02 -1.73941E+04  7.07696E+03 -2.28890E+04  1.54252E+04 -1.34760E+04
  1.18293E+04  5.12284E+03 -8.02753E+03  1.28009E+04 -2.06379E+04 -3.59188E+03 -8.05143E+03 -3.25752E+04
  2.23370E+04 -4.19666E+04  4.69404E+04 -1.91782E+04  4.35516E+04  1.91719E+04  1.52598E+04  4.30718E+04
 -1.55340E+04  3.24331E+04 -2.52312E+04  1.68641E+03 -9.01177E+03 -2.72706E+04  2.04738E+04 -3.26532E+04
  4.00729E+04 -8.47896E+03  3.40524E+04  2.32662E+04  1.67668E+04  4.46753E+04 -7.69819E+03  4.76549E+04
 -3.05385E+04  3.24392E+04 -3.98821E+04  9.25723E+03 -4.08910E+04 -1.61708E+04 -2.26415E+04 -3.68572E+04
  7.23176E+03 -3.63052E+04  3.01668E+04 -1.40226E+04  2.79946E+04  1.04969E+04  3.40512E+03  1.83304E+04
 -1.38470E+04  7.84137E+03 -9.83861E+03 -7.72631E+03  5.95342E+03 -1.03008E+04  1.72220E+04  6.33100E+03
  1.28755E+04  2.18494E+04 -6.05357E+03  2.39503E+04 -2.17399E+04  1.08259E+04 -2.68964E+04 -5.52404E+03
 -1.89875E+04 -1.64884E+04 -7.23530E+03 -1.91433E+04  3.94639E+03 -1.75463E+04  1.43407E+04 -1.66747E+04
  2.40648E+04 -1.23309E+04  3.00487E+04  2.04423E+03  2.27672E+04  1.81716E+04  4.24748E+03  3.47552E+04
 -1.71313E+04  2.90215E+04 -2.67977E+04  1.02297E+04 -2.02090E+04 -1.00061E+04 -3.99996E+03 -1.41058E+04
  1.50538E+03 -3.68062E+03 -4.52861E+03  5.54243E+03 -1.46245E+04  5.23821E+03 -1.53321E+04 -6.17838E+03
 -9.51856E+03 -1.73798E+04  5.04776E+03 -2.15500E+04  1.38855E+04 -1.54517E+04  1.63743E+04 -1.52140E+03
  1.03316E+04  1.19327E+04 -5.37512E+02  1.77508E+04 -1.10998E+04  1.01296E+04 -1.73035E+04 -3.33841E+03
 -1.23957E+04 -1.55959E+04 -1.88510E+03 -2.13987E+04  9.13301E+03 -1.69373E+04  1.69503E+04 -8.55877E+03
  1.58394E+04  5.52997E+02  1.16290E+04  3.99662E+03  5.96181E+03  4.81760E+02  8.83906E+03 -1.42288E+03
  1.58618E+04  2.62641E+03  1.71706E+04  1.36988E+04  1.08184E+04  2.71324E+04 -2.50272E+03  3.00963E+04
 -1.71172E+04  2.44567E+04 -2.82364E+04  1.18633E+04 -2.94168E+04 -2.49140E+03 -2.45918E+04 -1.70065E+04
 -1.02199E+04 -2.37908E+04  8.07996E+03 -2.17608E+04  1.91158E+04 -1.14377E+04  1.69949E+04  4.19454E+03
  6.76525E+03  1.28954E+04 -7.80290E+03  1.14518E+04 -1.43372E+04  2.89542E+03 -1.18019E+04 -8.74868E+03
 -7.56482E+02 -1.41145E+04  6.67408E+03 -1.03016E+04  8.97493E+03 -1.09017E+03  1.11894E+03  5.56523E+03
 -5.89028E+03  1.07551E+03 -4.40882E+03 -5.43279E+03  3.13540E+02 -1.20401E+04  8.80238E+03 -1.23938E+04
  1.44917E+04 -5.83524E+03  1.44997E+04  3.19786E+03  1.25386E+04  1.11639E+04  5.42023E+03  1.67006E+04
 -2.77666E+03  1.94904E+04 -1.15488E+04  1.11454E+04 -1.33008E+04  3.28464E+03 -9.63221E+03 -2.38316E+03
 -4.79169E+03 -3.71958E+03 -9.53929E+02  1.12611E+03 -2.13578E+03  1.51298E+03 -4.69739E+03  4.10264E+03
 -9.44016E+03 -8.70211E+02 -1.02788E+04 -8.12887E+03 -4.17349E+03 -1.30191E+04  3.63325E+03 -9.71117E+03
  7.79540E+03 -4.19433E+03  6.11670E+03  1.89886E+03  7.20055E+02  3.28438E+03 -4.75901E+03  6.78977E+01
 -4.00912E+03 -6.19715E+03 -6.53316E+02 -8.92821E+03  4.83137E+03 -9.24654E+03  1.15164E+04 -4.71810E+03
  1.38997E+04  2.29873E+02  1.06245E+04  7.04198E+03  1.49951E+03  1.04266E+04 -6.08122E+03  9.72102E+03
 -7.89291E+03  3.47182E+03 -4.24858E+03 -1.61141E+03  2.95276E+03 -2.47049E+03  5.14985E+03 -1.08185E+03
  4.32251E+03  3.96592E+03  1.14560E+03  7.70551E+03 -4.47222E+03  7.56629E+03 -9.60035E+03  1.78700E+03
 -6.12749E+03 -4.80507E+03 -4.36657E+01 -7.83581E+03  4.19061E+03 -4.04740E+03  4.92916E+03  1.19394E+03
  1.17997E+03  4.39356E+03 -4.24443E+03  5.44914E+03 -6.36423E+03  2.70423E+03 -5.97221E+03 -2.03083E+03
 -4.30711E+03 -7.29640E+03  1.15889E+03 -9.07612E+03  7.31470E+03 -5.55780E+03  7.74323E+03  1.31196E+03
  5.88518E+03  6.79240E+03  1.61730E+02  8.31887E+03 -6.28268E+03  4.96623E+03 -6.50633E+03 -6.30754E+01
 -6.52959E+03 -6.00194E+03 -1.58139E+03 -5.62372E+03  3.43740E+03 -5.26652E+03  3.78121E+03 -3.55093E+03
  3.26255E+03  2.53751E+02 -5.61536E+02  1.47933E+03  3.21284E+02 -3.91030E+02 -2.13299E+01 -2.73657E+03
  4.68937E+03 -1.87018E+03  7.17372E+03  5.16932E+02  7.65374E+03  4.14127E+03  5.92315E+03  8.96556E+03
 -2.32233E+03  1.04757E+04 -9.47400E+03  7.82127E+03 -1.16348E+04  1.21707E+03 -9.70007E+03 -2.97948E+03
 -5.03738E+03 -7.97533E+03 -3.49153E+01 -6.74562E+03  2.83821E+03 -2.84811E+03  2.22004E+03 -2.85417E+03
  2.21137E+03 -1.83691E+03  2.36355E+03 -2.21997E+03  3.55733E+03 -1.94720E+03  4.53333E+03  2.11739E+01
  5.23919E+03  1.72460E+03  1.59577E+03  4.38726E+03 -1.75070E+03  3.91001E+03 -5.90103E+03  3.58020E+03
 -6.20099E+03 -8.29763E+02 -3.17693E+03 -4.01197E+03 -5.93880E+02 -6.49732E+03  3.96361E+03 -6.71071E+03
  6.53707E+03 -3.72902E+03  8.66812E+03  8.94235E+02  5.91034E+03  5.50058E+03  9.47023E+02  7.29205E+03
 -2.36819E+03  6.68124E+03 -3.27807E+03  2.21560E+03 -2.41394E+03 -1.37994E+03 -5.99337E+02 -1.08980E+03
 -1.56116E+02  2.66538E+02 -1.00446E+03  1.77463E+03 -2.46208E+03  1.84047E+03 -4.47593E+03 -9.81089E+02
 -2.12317E+03 -4.75974E+03  1.06790E+03 -6.27536E+03  3.55826E+03 -5.43364E+03  5.38028E+03 -1.96988E+03
  5.28433E+03  2.79219E+03  2.36624E+03  3.97341E+03 -9.18486E+02  5.78702E+03 -3.61935E+03  3.53415E+03
 -4.53292E+03  1.22257E+02 -4.34772E+03 -3.10538E+03 -8.16457E+01 -4.10569E+03  2.58512E+03 -2.78183E+03
  3.69103E+03 -1.97556E+03  1.95898E+03  1.00986E+03  8.80197E+02  2.12139E+03  1.34215E+03  4.24191E+02
  1.47163E+03  6.85204E+02  1.61392E+03  1.46347E+03  1.68841E+03  2.70683E+03  1.37866E+03  2.89609E+03
 -1.76575E+03  3.67699E+03 -3.31827E+03  5.16401E+03 -3.87777E+03  1.76994E+03 -5.31951E+03 -1.15773E+03
 -1.64488E+03 -5.27013E+03  3.96761E+02 -5.80690E+03  2.74397E+03 -3.56683E+03  4.62453E+03 -8.01118E+02
  3.19443E+03  2.23670E+03  5.88288E+02  3.07392E+03 -1.60190E+03  1.80282E+03 -1.47044E+03  7.45587E+01
 -7.35527E+02 -2.27056E+03  1.52128E+03 -1.90386E+03  1.78932E+03 -9.20620E+02  2.01849E+03  1.23550E+02
  1.45262E+03  1.09358E+02  1.28826E+03  2.61777E+02 -5.34722E+02  9.98036E+02  1.63550E+03 -2.32016E+02
  2.00761E+02 -5.23137E+01  1.93043E+03  8.69494E+02  9.06709E+02  3.19193E+03 -3.77708E+02  3.32339E+03
 -2.25405E+03  1.30798E+03 -2.49874E+03  3.14357E+02 -2.66425E+03 -1.43714E+03 -1.09256E+03 -9.26899E+02
  6.12985E+02 -1.70041E+03  8.41105E+02 -1.57481E+03  8.72320E+02  1.80034E+03 -5.70121E+02  1.53315E+03
 -2.12158E+03  1.15703E+03 -1.64940E+03 -1.82067E+03 -8.53736E+02 -2.50650E+03  3.99469E+02 -2.58240E+03
  4.03574E+02 -6.27007E+02  7.30468E+02 -1.91661E+02  1.37763E+03  5.08398E+02 -5.43749E+01  1.16188E+03
 -2.28678E+02  5.90898E+02 -9.87203E+02 -1.29327E+02  5.13086E+02 -9.08318E+02  1.82906E+03 -1.52594E+03
  1.30528E+03  1.21374E+02  3.17207E+03  8.88652E+02  1.09026E+03  2.39342E+03 -5.68581E+02  2.30894E+03
 -1.89257E+03  4.09855E+02 -2.29535E+03  2.08554E+02 -7.77540E+02 -2.20665E+03  3.58789E+02 -1.13754E+03
  1.47109E+03 -5.75094E+02  1.04317E+03  9.30883E+02 -1.72123E+02  1.54177E+03 -1.44067E+02  1.48034E+03
  2.56197E+02  1.16257E+03 -6.00681E+02  3.03592E+02  3.17970E+01  5.06971E+02 -4.56388E+02  8.19426E+01
 -6.72601E+02  1.15796E+03 -2.35187E+03  9.53727E+02 -2.71930E+03  5.19148E+02 -2.97238E+03 -1.13610E+03
 -9.45013E+02 -3.49280E+03  4.48841E+02 -3.53156E+03  1.79750E+03 -3.58316E+03  4.24867E+03 -1.54828E+03
  2.66327E+03 -6.90255E+02  1.36000E+03  1.83648E+03 -6.11524E+02  2.11147E+03 -8.59675E+02  1.19384E+03
 -1.22645E+03  9.88919E+02 -1.10444E+03  2.76507E+02 -8.05130E+02  4.60939E+02 -3.75392E+02  2.06496E+02
 -2.21915E+03 -5.79074E+01 -9.82808E+02 -5.73662E+01  1.79745E+02 -9.77222E+02 -8.36975E+02 -1.14401E+03
  1.53104E+03 -1.00967E+03  6.26930E+02  3.45245E+02  1.74273E+03  1.50686E+03 -5.84503E+02  1.66563E+03
 -6.56136E+02  3.24952E+03 -1.90728E+03  1.68677E+03 -2.12229E+03  3.36789E+01 -1.87662E+03 -1.51655E+03
 -1.01260E+03 -1.93420E+03  2.81241E+02 -1.87819E+03  9.56441E+02 -9.24743E+02  1.63299E+03  8.47133E+02
  1.09548E+03 -3.75064E+01 -3.77561E+02  2.86196E+02 -7.69316E+02 -1.83719E+02 -8.88021E+01 -6.63789E+02
  1.00945E+03 -6.10110E+01  6.22591E+02  5.03347E+02  4.23176E+02  7.51077E+02  4.49218E+02  9.03711E+02
 -2.81112E+02  9.58697E+02 -5.00357E+02 -5.69818E+01 -7.05733E+02 -5.05088E+02 -6.03844E+02 -1.79645E+03
  6.10766E+02 -1.00191E+03  9.67166E+02 -2.25545E+02  1.29935E+03 -1.78820E+02  4.96788E+02  1.27491E+03
  5.60330E+02  1.32372E+03  1.41107E+02  8.79268E+02 -4.77882E+02  4.94003E+02 -5.45209E+02 -3.34869E+00
 -4.66562E+02 -3.65078E+01 -1.29399E+01 -2.41868E+02 -6.93817E+02  1.76857E+02 -1.12237E+03 -2.88967E+02
 -1.92005E+03  5.58783E+02 -9.91812E+02 -1.24724E+03  1.16873E+03 -1.40566E+03  1.78355E+03 -7.00747E+01
  1.39210E+03  7.84815E+02  2.67585E+02  6.78552E+02 -3.60209E+02  1.15510E+03 -4.64835E+02  8.68492E+02
