 $NMID ID='MM_0lb_SNR400_16hz_g40_42.RAW', FMTDAT='(8E13.5)'
 TRAMP=1., VOLUME=1. $END
  3.09481E+05  1.23844E+02  3.37322E+05  2.50570E+05  8.43317E+04  3.37326E+05 -1.32815E+05  2.49825E+05
 -1.88988E+05  8.22033E+04 -1.11399E+05 -3.27055E+04  1.31745E+03 -5.04373E+04  5.39565E+04  5.97738E+01
  3.49668E+04  5.28923E+04 -1.72441E+04  7.53243E+04 -6.03590E+04  6.36101E+04 -8.31653E+04  3.19881E+04
 -8.00118E+04 -1.10305E+04 -5.59233E+04 -5.10128E+04 -1.45003E+04 -6.86045E+04  2.68047E+04 -4.49877E+04
  3.95222E+04  3.98523E+03  1.52456E+04  4.69783E+04 -3.45278E+04  4.54817E+04 -6.51661E+04 -2.61108E+02
 -5.24724E+04 -5.64233E+04 -7.02756E+03 -7.59947E+04  3.31536E+04 -5.38162E+04  4.68715E+04 -1.66116E+04
  4.21287E+04  1.13748E+04  3.08093E+04  2.49082E+04  1.60457E+04  2.77945E+04 -5.04250E+03  2.73301E+04
 -2.20018E+04  1.27433E+04 -1.85415E+04 -4.39898E+03  4.75469E+03 -7.19448E+03  2.18885E+04  1.12395E+04
  7.80446E+03  3.36826E+04 -3.05929E+04  3.39711E+04 -6.24518E+04  2.19450E+03 -5.57926E+04 -4.19556E+04
 -1.25373E+04 -6.16314E+04  3.85891E+04 -4.38531E+04  5.59896E+04 -2.24099E+03  3.26422E+04  3.14925E+04
 -6.59121E+03  3.40184E+04 -2.86953E+04  1.41943E+04 -2.84484E+04 -4.61171E+03 -1.54659E+04 -1.03513E+04
 -7.72295E+03 -1.19294E+04 -1.03257E+03 -1.71269E+04  6.07834E+03 -2.29107E+04  1.53630E+04 -1.34142E+04
  1.25611E+04  4.93189E+03 -6.92401E+03  1.35110E+04 -2.06153E+04 -3.21073E+03 -8.39067E+03 -3.15182E+04
  2.17528E+04 -4.13563E+04  4.60578E+04 -1.95985E+04  4.26664E+04  1.87428E+04  1.48957E+04  4.25436E+04
 -1.57266E+04  3.20327E+04 -2.37913E+04  1.33401E+03 -8.85763E+03 -2.71291E+04  2.09378E+04 -3.16081E+04
  3.86778E+04 -7.49777E+03  3.30013E+04  2.31962E+04  1.60484E+04  4.37005E+04 -7.89751E+03  4.66731E+04
 -2.98984E+04  3.11824E+04 -3.87055E+04  8.99849E+03 -3.96766E+04 -1.55873E+04 -2.15771E+04 -3.61132E+04
  7.36570E+03 -3.55185E+04  2.97515E+04 -1.36727E+04  2.77331E+04  1.07821E+04  3.46750E+03  1.84470E+04
 -1.30828E+04  7.63038E+03 -9.58669E+03 -7.04703E+03  5.92370E+03 -1.02081E+04  1.71223E+04  6.55924E+03
  1.30978E+04  2.17305E+04 -6.13373E+03  2.38187E+04 -2.17767E+04  9.83382E+03 -2.58462E+04 -5.43073E+03
 -1.84840E+04 -1.63534E+04 -6.74843E+03 -1.76863E+04  3.95483E+03 -1.60400E+04  1.40590E+04 -1.52934E+04
  2.30561E+04 -1.17469E+04  2.97183E+04  1.17053E+03  2.15122E+04  1.75905E+04  4.03175E+03  3.38117E+04
 -1.61426E+04  2.92290E+04 -2.66751E+04  9.94751E+03 -1.99098E+04 -1.00105E+04 -3.98841E+03 -1.40769E+04
  2.83212E+03 -3.69376E+03 -3.35555E+03  6.22679E+03 -1.44284E+04  5.12951E+03 -1.41286E+04 -5.40115E+03
 -9.61902E+03 -1.67500E+04  4.85528E+03 -2.05244E+04  1.32351E+04 -1.53468E+04  1.56129E+04 -1.73967E+03
  1.00456E+04  1.17896E+04 -5.63398E+02  1.68188E+04 -1.09915E+04  9.42122E+03 -1.68424E+04 -3.30636E+03
 -1.23361E+04 -1.50869E+04 -1.63602E+03 -2.03814E+04  9.51744E+03 -1.67171E+04  1.75603E+04 -8.29805E+03
  1.52866E+04  6.45941E+02  1.16491E+04  4.01685E+03  5.51832E+03  4.91441E+02  8.23719E+03 -1.26531E+03
  1.50555E+04  2.48434E+03  1.59285E+04  1.32163E+04  1.06897E+04  2.69044E+04 -3.48196E+03  2.95458E+04
 -1.72189E+04  2.30674E+04 -2.76532E+04  1.17147E+04 -2.84396E+04 -1.42929E+03 -2.34541E+04 -1.58516E+04
 -1.08006E+04 -2.34417E+04  7.95287E+03 -2.10376E+04  1.84568E+04 -1.14939E+04  1.70485E+04  4.39460E+03
  6.24209E+03  1.21237E+04 -7.59499E+03  1.15045E+04 -1.40502E+04  2.73723E+03 -1.13043E+04 -8.43742E+03
 -5.57715E+02 -1.36644E+04  6.74070E+03 -1.05965E+04  8.67961E+03 -1.35401E+03  1.52777E+03  5.49425E+03
 -6.22836E+03  1.71887E+03 -4.33657E+03 -5.04833E+03  1.56429E+02 -1.16902E+04  8.36905E+03 -1.17339E+04
  1.38058E+04 -6.06131E+03  1.42635E+04  2.38500E+03  1.23795E+04  1.12404E+04  5.37550E+03  1.65765E+04
 -2.11244E+03  1.85609E+04 -1.15289E+04  1.13940E+04 -1.32103E+04  3.21777E+03 -9.36689E+03 -2.67640E+03
 -5.20088E+03 -3.97958E+03 -1.34419E+03  1.32206E+03 -2.05728E+03  2.35753E+03 -4.24940E+03  3.14852E+03
 -9.05059E+03 -9.55193E+02 -1.01320E+04 -8.38939E+03 -3.86128E+03 -1.31771E+04  3.74551E+03 -9.97710E+03
  7.53125E+03 -4.54238E+03  5.54512E+03  2.18588E+03  1.25194E+02  3.40332E+03 -4.59823E+03  1.34508E+02
 -3.94591E+03 -6.13329E+03 -1.04042E+03 -8.34588E+03  4.41608E+03 -9.20611E+03  1.14984E+04 -4.21454E+03
  1.33165E+04  1.27769E+03  9.96555E+03  7.14089E+03  2.09732E+03  1.03613E+04 -5.79202E+03  9.17313E+03
 -7.50612E+03  3.10923E+03 -4.16037E+03 -1.27319E+03  1.21137E+03 -1.52018E+03  5.69163E+03 -1.21185E+03
  5.06611E+03  4.25068E+03  1.16448E+03  7.61825E+03 -5.11588E+03  7.48937E+03 -9.20356E+03  1.87334E+03
 -5.86095E+03 -4.39470E+03  8.93469E+01 -7.66861E+03  4.54689E+03 -3.63993E+03  4.83313E+03  1.73687E+03
  1.33035E+03  4.21504E+03 -5.90721E+03  5.40433E+03 -6.04307E+03  2.40670E+03 -4.92867E+03 -1.63708E+03
 -3.58792E+03 -7.21907E+03  2.16130E+03 -9.36127E+03  7.40343E+03 -5.22035E+03  7.87251E+03  9.58700E+02
  5.07903E+03  5.99392E+03 -7.40831E+01  8.52149E+03 -5.95589E+03  5.01337E+03 -6.77618E+03 -5.31134E+02
 -5.96984E+03 -6.43709E+03 -1.64965E+03 -5.77708E+03  2.91051E+03 -5.56360E+03  4.14880E+03 -2.93596E+03
  3.23101E+03  5.79595E+02 -1.04792E+02  8.48284E+02  3.41474E+02 -6.83295E+02  6.59452E+02 -2.79593E+03
  4.90396E+03 -1.34175E+03  6.38620E+03  4.21342E+02  6.74929E+03  4.59714E+03  6.21381E+03  9.28264E+03
 -2.09192E+03  1.04064E+04 -9.42844E+03  8.57213E+03 -1.19889E+04  1.49809E+03 -9.42128E+03 -3.21267E+03
 -5.25730E+03 -8.29034E+03 -8.34312E+02 -6.21004E+03  2.63384E+03 -3.08887E+03  2.35074E+03 -2.15593E+03
  1.63724E+03 -1.96734E+03  2.90829E+03 -2.17907E+03  4.13828E+03 -1.99357E+03  4.44510E+03 -3.92940E+02
  4.96513E+03  1.52393E+03  2.24809E+03  4.34337E+03 -1.55034E+03  4.43945E+03 -5.50892E+03  3.46437E+03
 -6.09512E+03 -1.67656E+03 -3.07627E+03 -4.61187E+03  2.62061E+01 -6.23400E+03  3.95574E+03 -6.95925E+03
  6.96841E+03 -4.50916E+03  8.93030E+03  5.40623E+01  5.63392E+03  5.70299E+03  7.73876E+02  7.86271E+03
 -2.78793E+03  7.01346E+03 -4.37990E+03  2.41640E+03 -3.26357E+03 -8.28853E+02 -9.91676E+02 -1.01415E+03
 -6.25705E+01  4.09528E+02 -1.47080E+03  1.78686E+03 -3.02785E+03  1.32749E+03 -5.33157E+03 -5.59612E+02
 -2.36917E+03 -4.07329E+03  4.50182E+02 -5.93565E+03  3.11852E+03 -5.35274E+03  4.94300E+03 -1.98792E+03
  5.76532E+03  3.25188E+03  2.46683E+03  4.37267E+03 -1.85876E+03  5.94297E+03 -3.70566E+03  3.68131E+03
 -5.27983E+03  3.01875E+02 -4.73136E+03 -3.08572E+03 -6.23628E+02 -3.91233E+03  2.70987E+03 -3.11215E+03
  3.42107E+03 -1.14445E+03  2.18809E+03  2.84899E+01  8.32770E+02  1.81326E+03  1.51745E+03  4.08487E+02
  1.34067E+03  8.42635E+02  1.38602E+03  6.50078E+02  1.76327E+03  2.93697E+03  1.88257E+03  2.69564E+03
 -1.94224E+03  4.27362E+03 -3.06788E+03  5.07066E+03 -4.53686E+03  9.59239E+02 -5.26144E+03 -1.38819E+03
 -2.74308E+03 -5.25371E+03  8.38805E+02 -6.51552E+03  2.74596E+03 -3.57255E+03  4.61380E+03 -9.17658E+02
  2.77005E+03  2.00116E+03  7.22416E+02  3.29857E+03 -1.34942E+03  1.74309E+03 -1.41923E+03 -4.99911E+02
 -9.86491E+02 -2.50690E+03  1.41122E+03 -2.41157E+03  2.31290E+03 -1.42254E+03  2.04463E+03  5.11768E+02
  5.94108E+02  4.72637E+02  7.74322E+02  1.90624E+02 -9.20594E+02  7.21686E+02  1.68610E+03 -2.93040E+02
  5.28376E+02 -6.89079E+02  2.83274E+03  8.52423E+02  3.14989E+02  3.61309E+03 -4.84070E+02  3.78312E+03
 -2.23437E+03  1.67080E+03 -2.86291E+03  8.34432E+02 -3.17741E+03 -7.80824E+02 -5.27604E+02 -1.57031E+03
 -3.45795E+02 -2.04126E+03  1.40707E+03 -7.60157E+02  8.97780E+02  1.07691E+03 -9.38229E+02  1.80681E+03
 -1.68426E+03  1.25385E+03 -1.76071E+03 -1.87793E+03 -1.13415E+03 -2.78405E+03 -5.04860E+00 -2.48463E+03
  1.15310E+03 -3.57660E+02  1.69200E+03  2.74806E+02  1.94848E+03  2.60858E+01  6.60166E+01  1.16153E+03
 -5.21722E+02 -1.76259E+02 -1.63888E+03 -5.25598E+02  6.46942E+02 -1.90242E+03  2.29758E+03 -1.40142E+03
  2.75568E+03 -1.79101E+01  3.50923E+03  1.27497E+03  1.38834E+03  2.48636E+03 -1.13622E+03  2.85831E+03
 -2.26341E+03  1.33093E+02 -2.45322E+03 -8.19069E+02 -1.39552E+03 -1.84031E+03  2.90199E+02 -1.62368E+03
  1.81640E+03 -8.64109E+02  1.11627E+03  1.20674E+03  5.05271E+02  1.49288E+03  1.69047E+02  1.62496E+03
 -5.78017E+02  1.22295E+03 -8.08087E+02 -1.67255E+02  1.01694E+02  1.91057E+02 -6.46015E+02  7.13738E+02
 -1.47951E+03  2.09397E+03 -2.50341E+03  9.54806E+02 -3.11555E+03  1.95025E+02 -3.50053E+03 -2.16214E+03
 -1.58273E+03 -3.50907E+03  7.69352E+02 -4.59031E+03  2.56086E+03 -3.23157E+03  4.26710E+03 -1.30171E+03
  3.87046E+03 -3.18434E+02  1.79248E+03  2.62183E+03 -7.44241E+02  2.59910E+03 -8.22546E+02  1.98984E+03
 -1.39108E+03  1.11136E+03 -7.07563E+02 -5.44124E+02 -1.96394E+02  3.43563E+02 -8.05849E+02  1.46400E+02
 -1.69027E+03  3.46481E+02 -9.78018E+02 -1.32890E+02 -1.68734E+02 -8.29487E+02 -8.22675E+00 -1.17747E+03
  1.71713E+03 -9.72193E+02  1.37903E+03 -2.80714E+01  1.77351E+03  1.88617E+03  3.55174E+01  2.35928E+03
 -1.54802E+03  3.64896E+03 -3.03583E+03  1.40139E+03 -3.42254E+03  5.26557E+02 -2.06398E+03 -1.83480E+03
 -1.10423E+03 -1.85118E+03  4.11125E+02 -1.98256E+03  2.07937E+03 -1.12241E+03  1.37214E+03  2.62389E+02
  1.40428E+03  6.75814E+02 -1.94112E+02  7.97715E+02 -6.66130E+02  1.35356E+02 -4.17040E+02 -8.57964E+01
  1.38629E+03 -2.60410E+02  1.08476E+03  8.24827E+02  7.82901E+02  6.14467E+02  6.04294E+02  4.55180E+02
 -1.20096E+03  1.67182E+03 -1.04187E+03  1.45678E+02 -1.35423E+03 -1.80700E+03 -5.62172E+02 -2.34375E+03
  6.63850E+02 -9.01841E+02  1.50481E+03 -4.19691E+02  1.11379E+03 -6.95732E+01  1.74181E+03  1.39024E+03
  1.58887E+02  1.11610E+03 -5.93265E+02  1.31332E+03 -1.15138E+03  1.06899E+03 -1.14249E+03 -4.07006E+02
 -9.38174E+01 -1.73453E+02 -1.06678E+03 -2.97026E+02 -9.21429E+02 -3.97396E+01 -6.62104E+02 -4.74386E+01
 -1.62322E+03 -1.87054E+02 -9.55086E+02 -1.70577E+03  9.20606E+02 -2.94748E+03  1.87096E+03 -7.64720E+02
  1.60580E+03  3.15403E+02  3.90417E+02  1.17486E+03  4.75735E+02  1.55282E+03 -4.17325E+02  1.08863E+03
