 $NMID ID='MM_0lb_SNR400_16hz_g45_93.RAW', FMTDAT='(8E13.5)'
 TRAMP=1., VOLUME=1. $END
  3.10013E+05  1.44836E+02  3.38171E+05  2.51099E+05  8.42515E+04  3.36844E+05 -1.32309E+05  2.50049E+05
 -1.90421E+05  8.35125E+04 -1.11207E+05 -3.35582E+04  8.20211E+02 -5.03376E+04  5.31191E+04 -2.72208E+02
  3.50976E+04  5.29237E+04 -1.70717E+04  7.49815E+04 -6.05277E+04  6.35203E+04 -8.36061E+04  3.18750E+04
 -7.99404E+04 -1.08928E+04 -5.62838E+04 -5.09800E+04 -1.47615E+04 -6.89177E+04  2.72541E+04 -4.56507E+04
  3.98867E+04  3.50608E+03  1.61289E+04  4.79327E+04 -3.42294E+04  4.64542E+04 -6.61263E+04 -4.53865E+02
 -5.27229E+04 -5.64816E+04 -6.76265E+03 -7.56415E+04  3.37104E+04 -5.35591E+04  4.74154E+04 -1.65557E+04
  4.23484E+04  1.12810E+04  3.12792E+04  2.52921E+04  1.58301E+04  2.90053E+04 -4.84219E+03  2.64214E+04
 -2.18147E+04  1.29082E+04 -1.80315E+04 -4.83003E+03  4.63827E+03 -6.95876E+03  2.15635E+04  1.16737E+04
  7.04933E+03  3.46021E+04 -3.14197E+04  3.41994E+04 -6.21536E+04  1.99479E+03 -5.56629E+04 -4.17930E+04
 -1.21444E+04 -6.23306E+04  3.97402E+04 -4.44413E+04  5.65264E+04 -2.19103E+03  3.32371E+04  3.20306E+04
 -6.77742E+03  3.42224E+04 -2.97525E+04  1.45970E+04 -2.88519E+04 -5.28628E+03 -1.58797E+04 -1.01846E+04
 -7.28375E+03 -1.26134E+04 -7.50479E+02 -1.68460E+04  7.24651E+03 -2.24569E+04  1.49856E+04 -1.32552E+04
  1.19037E+04  4.11325E+03 -7.60307E+03  1.27518E+04 -2.05996E+04 -3.39403E+03 -7.32610E+03 -3.16434E+04
  2.16395E+04 -4.13855E+04  4.61677E+04 -1.86911E+04  4.33169E+04  1.88990E+04  1.53704E+04  4.27342E+04
 -1.55683E+04  3.21252E+04 -2.44269E+04  1.35870E+03 -8.63766E+03 -2.70403E+04  2.08487E+04 -3.24058E+04
  3.98056E+04 -7.48238E+03  3.36477E+04  2.34909E+04  1.70000E+04  4.46185E+04 -8.08144E+03  4.70704E+04
 -2.97244E+04  3.14045E+04 -3.91976E+04  8.33674E+03 -4.08599E+04 -1.55266E+04 -2.20798E+04 -3.60205E+04
  6.47435E+03 -3.58627E+04  3.06505E+04 -1.37142E+04  2.82258E+04  1.02990E+04  3.44999E+03  1.82175E+04
 -1.35955E+04  8.07997E+03 -9.98498E+03 -7.85109E+03  5.62959E+03 -1.03132E+04  1.82976E+04  5.78058E+03
  1.28926E+04  2.15286E+04 -6.51092E+03  2.37883E+04 -2.18435E+04  1.02348E+04 -2.67230E+04 -6.20480E+03
 -1.89596E+04 -1.67559E+04 -6.36361E+03 -1.92978E+04  4.14949E+03 -1.70285E+04  1.38855E+04 -1.64332E+04
  2.33712E+04 -1.21390E+04  2.97220E+04  2.26362E+03  2.20633E+04  1.82106E+04  3.60887E+03  3.39487E+04
 -1.65806E+04  2.84836E+04 -2.66412E+04  1.01297E+04 -1.95095E+04 -1.00394E+04 -3.53213E+03 -1.39656E+04
  1.87593E+03 -3.41510E+03 -3.21360E+03  5.88996E+03 -1.46061E+04  5.14341E+03 -1.49194E+04 -6.08194E+03
 -9.64283E+03 -1.71653E+04  5.30719E+03 -2.10443E+04  1.43802E+04 -1.53918E+04  1.63416E+04 -1.46678E+03
  1.04826E+04  1.19548E+04 -3.26282E+02  1.69362E+04 -1.11981E+04  9.57603E+03 -1.74335E+04 -3.62205E+03
 -1.24388E+04 -1.49372E+04 -1.74399E+03 -2.09948E+04  9.07108E+03 -1.63249E+04  1.72569E+04 -8.56392E+03
  1.57501E+04  5.72824E+02  1.18295E+04  3.69982E+03  5.83604E+03  9.82243E+02  8.94382E+03 -1.14555E+03
  1.58773E+04  2.51837E+03  1.72780E+04  1.36662E+04  1.07661E+04  2.74525E+04 -3.73006E+03  3.00929E+04
 -1.70936E+04  2.39979E+04 -2.77968E+04  1.11082E+04 -2.94259E+04 -1.48987E+03 -2.47989E+04 -1.67587E+04
 -1.05405E+04 -2.35171E+04  7.73725E+03 -2.14351E+04  1.86236E+04 -1.23019E+04  1.76758E+04  4.23819E+03
  7.43155E+03  1.26878E+04 -8.10558E+03  1.12467E+04 -1.42736E+04  2.73434E+03 -1.14556E+04 -8.58684E+03
 -2.45152E+02 -1.35480E+04  7.16139E+03 -1.03779E+04  9.47746E+03 -1.78974E+03  1.77111E+03  5.88184E+03
 -6.01260E+03  1.36608E+03 -4.78422E+03 -5.03281E+03  5.76017E+00 -1.17294E+04  8.64576E+03 -1.17408E+04
  1.42125E+04 -6.19600E+03  1.46239E+04  3.34755E+03  1.28386E+04  1.13847E+04  5.71189E+03  1.65485E+04
 -2.38532E+03  1.85747E+04 -1.18684E+04  1.12782E+04 -1.35899E+04  3.59865E+03 -9.45435E+03 -2.90182E+03
 -5.30682E+03 -3.29111E+03 -1.01441E+03  1.87306E+03 -1.62264E+03  2.24347E+03 -4.20781E+03  4.28383E+03
 -9.39376E+03 -5.55571E+02 -9.25858E+03 -7.88607E+03 -4.11641E+03 -1.27656E+04  3.62227E+03 -1.02556E+04
  8.26716E+03 -4.26098E+03  5.68582E+03  3.05341E+03  2.03135E+01  4.23498E+03 -4.12550E+03 -3.18707E+02
 -4.02590E+03 -6.05009E+03 -6.07997E+02 -8.65165E+03  4.73996E+03 -8.84671E+03  1.21139E+04 -4.71673E+03
  1.34330E+04  7.83081E+02  1.01366E+04  7.46872E+03  2.24815E+03  1.05964E+04 -5.94528E+03  9.90616E+03
 -8.29609E+03  3.02695E+03 -4.42537E+03 -1.61964E+03  1.41459E+03 -2.41340E+03  4.93140E+03 -9.18508E+02
  4.35623E+03  3.59543E+03  8.24871E+02  7.58105E+03 -5.09733E+03  8.05342E+03 -9.14627E+03  2.07824E+03
 -5.77602E+03 -4.70932E+03  1.64205E+02 -7.75748E+03  4.92031E+03 -4.04317E+03  4.59938E+03  1.40415E+03
  1.15125E+03  3.97519E+03 -4.40168E+03  5.89977E+03 -6.49979E+03  2.37824E+03 -6.45946E+03 -1.83383E+03
 -3.68003E+03 -7.82301E+03  1.49192E+03 -9.12099E+03  7.36848E+03 -5.41998E+03  8.46077E+03  1.84856E+03
  5.64414E+03  6.01896E+03 -1.87797E+02  8.03647E+03 -6.66598E+03  4.56251E+03 -6.52059E+03 -9.39358E+02
 -6.84377E+03 -5.83337E+03 -1.71209E+03 -6.67899E+03  3.17700E+03 -5.50802E+03  3.70558E+03 -2.73729E+03
  3.56956E+03  6.21552E+02 -3.21754E+02  1.24604E+03  2.35374E+02 -1.21928E+03  8.89643E+02 -3.30354E+03
  5.14763E+03 -1.78536E+03  7.19164E+03  7.54910E+02  7.49722E+03  4.21568E+03  5.73098E+03  9.54970E+03
 -1.92220E+03  1.12536E+04 -9.65203E+03  8.66994E+03 -1.31032E+04  1.28559E+03 -9.93903E+03 -3.38810E+03
 -5.15888E+03 -8.38305E+03 -3.53199E+02 -6.42243E+03  3.14533E+03 -3.20912E+03  2.20752E+03 -2.25609E+03
  1.61100E+03 -1.62465E+03  2.57029E+03 -2.23348E+03  3.86449E+03 -1.18737E+03  4.67452E+03  5.82003E+02
  5.32025E+03  1.35566E+03  2.33797E+03  4.28812E+03 -1.85769E+03  4.18215E+03 -5.06643E+03  3.20198E+03
 -6.41935E+03 -7.85153E+02 -2.96231E+03 -4.95041E+03 -2.18656E+02 -6.38766E+03  4.20049E+03 -7.10716E+03
  6.55453E+03 -3.89125E+03  8.83559E+03  7.27337E+02  6.33483E+03  5.60148E+03  1.24453E+03  7.92334E+03
 -2.95968E+03  7.01497E+03 -4.39159E+03  2.46358E+03 -2.61196E+03 -1.35452E+03 -6.46566E+02 -2.69069E+02
 -1.74944E+02 -1.77323E+02 -1.49463E+03  2.61970E+03 -3.33519E+03  1.23961E+03 -5.28869E+03 -9.02998E+02
 -2.49002E+03 -5.11253E+03  8.28023E+02 -6.56457E+03  3.71906E+03 -6.55342E+03  4.90229E+03 -2.06657E+03
  5.95088E+03  2.91378E+03  2.45796E+03  5.24946E+03 -1.72076E+03  6.49761E+03 -4.17871E+03  3.94632E+03
 -5.38157E+03  7.49403E+02 -5.15548E+03 -3.60201E+03 -2.65023E+02 -4.64737E+03  2.73366E+03 -3.35397E+03
  3.41612E+03 -1.77541E+03  2.44851E+03  8.37653E+02  7.26165E+02  2.22621E+03  1.18656E+03  6.05308E+02
  1.73290E+03  6.31914E+02  1.50848E+03  5.66217E+02  1.79982E+03  2.29618E+03  2.18183E+03  2.29220E+03
 -1.57549E+03  4.53991E+03 -3.53801E+03  5.05213E+03 -4.95936E+03  2.01913E+03 -5.24128E+03 -1.31817E+03
 -2.35205E+03 -5.55918E+03  1.11036E+03 -6.06572E+03  2.58994E+03 -3.80973E+03  4.64846E+03 -7.57635E+02
  2.86517E+03  2.02740E+03  6.26306E+02  3.06550E+03 -1.72065E+03  2.05870E+03 -1.89439E+03 -7.82231E+01
 -1.75123E+03 -2.44143E+03  1.78268E+03 -2.32992E+03  1.84439E+03 -1.51692E+03  2.00075E+03  5.28964E+02
  1.18095E+03  1.14680E+03  1.50811E+03 -4.32756E+01 -3.17994E+02  4.78481E+02  1.13328E+03 -7.79724E+02
  4.25259E+02 -4.87502E+02  2.39096E+03  5.43773E+02  4.32561E+02  3.74047E+03 -1.16200E+03  3.86668E+03
 -2.74856E+03  2.58918E+03 -3.46154E+03  7.76278E+02 -3.34470E+03 -1.63371E+03 -6.60145E+02 -1.40894E+03
  5.39696E+02 -2.11233E+03  1.54845E+03 -9.44496E+02  8.61362E+02  1.76980E+03 -6.88222E+02  1.47942E+03
 -2.49252E+03  1.45300E+03 -1.93654E+03 -1.48879E+03 -1.56535E+03 -2.72283E+03  1.66554E+02 -2.20933E+03
  1.28793E+03 -1.57455E+03  1.46429E+03 -1.51696E+02  2.12633E+03  6.28734E+02  9.33277E+01  2.13103E+03
 -7.66666E+02  1.37495E+02 -1.66532E+03 -7.94516E+01  2.48845E+02 -1.14038E+03  3.34325E+03 -1.23650E+03
  2.09558E+03  1.86645E+02  4.52358E+03  1.18518E+03  7.65576E+02  3.06671E+03 -8.11295E+02  3.16210E+03
 -2.64156E+03  8.88248E+02 -2.28040E+03 -6.64856E+02 -1.48483E+03 -1.76389E+03  1.56639E+02 -1.07256E+03
  1.83105E+03 -1.00942E+03  7.76782E+02  1.18315E+03  6.41694E+02  1.91799E+03  7.71340E+01  1.24656E+03
 -7.56435E+02  1.25462E+03 -5.97405E+02  3.46653E+02 -2.03058E+02  9.00719E+02 -7.62856E+02  5.58586E+02
 -4.46165E+02  2.01138E+03 -2.59931E+03  8.66280E+02 -2.79333E+03  6.26604E+01 -3.82717E+03 -2.03241E+03
 -1.75138E+03 -3.71786E+03  8.23125E+02 -4.65658E+03  1.41997E+03 -3.26617E+03  4.29372E+03 -1.32231E+03
  3.49135E+03  6.03631E+02  2.01507E+03  2.45850E+03  2.02594E+02  3.05231E+03 -1.96693E+03  2.23685E+03
 -1.44648E+03  8.53527E+02 -9.78188E+02 -7.56346E+02 -6.16307E+02  2.12949E+02 -6.33514E+02 -1.41375E+02
 -9.32350E+02 -5.14514E+02 -1.42246E+03 -3.25556E+01 -3.14931E+01 -7.77872E+02 -2.17499E+02 -9.01641E+02
  1.43869E+03 -1.27745E+03  8.08234E+02  4.06551E+01  1.32799E+03  1.13582E+03 -2.96792E+02  2.39338E+03
 -1.65586E+03  3.23954E+03 -2.64297E+03  1.73686E+03 -3.87571E+03  6.99714E+01 -2.70266E+03 -2.05881E+03
 -1.34091E+03 -2.70837E+03  9.91210E+02 -1.90219E+03  1.22561E+03 -1.14306E+03  9.24033E+02  8.86051E+01
  9.56997E+02  9.46007E+02  2.87819E+02  1.10404E+03 -2.00638E+02  4.12417E+01  1.53394E+02 -3.40980E+02
  1.23154E+03 -5.58984E+02  2.98928E+02  5.71419E+02  3.56698E+02  1.06201E+03  3.76864E+02  4.76197E+02
 -9.75495E+02  6.94381E+02 -1.54892E+03 -2.27631E+02 -1.70025E+03 -8.67654E+02  7.28884E+02 -1.69600E+03
  8.21025E+02 -1.53566E+03  1.34305E+03 -4.59236E+02  2.07266E+03  2.60240E+02  8.98674E+02  1.68868E+03
  6.89725E+02  1.64150E+03 -1.58458E+02  8.78843E+02 -1.18408E+03  8.43473E+02 -1.43194E+03  7.31611E+02
 -3.15731E+02 -1.28397E+02 -1.17536E+03  4.19718E+02 -1.54172E+03  4.74893E+02 -1.47687E+03 -2.14289E+02
 -1.67184E+03 -2.25057E+02 -3.38991E+02 -1.76624E+03  7.61373E+02 -2.12576E+03  1.74523E+03 -4.15884E+02
  1.19781E+03  3.69278E+02  5.91830E+00  8.78680E+02 -1.90552E+01  1.36046E+03 -9.11343E+02  7.76694E+02
