 $NMID ID='MM_0lb_SNR400_14hz_g60_79.RAW', FMTDAT='(8E13.5)'
 TRAMP=1., VOLUME=1. $END
  3.10024E+05  4.92469E+01  3.37204E+05  2.50889E+05  8.44881E+04  3.38356E+05 -1.32758E+05  2.51738E+05
 -1.89898E+05  8.28580E+04 -1.11889E+05 -3.26637E+04  7.86461E+02 -5.02553E+04  5.33774E+04 -4.66778E+02
  3.53060E+04  5.23685E+04 -1.65206E+04  7.55110E+04 -6.07416E+04  6.39631E+04 -8.42429E+04  3.22985E+04
 -8.17713E+04 -1.11873E+04 -5.78687E+04 -5.13396E+04 -1.47372E+04 -7.03934E+04  2.74459E+04 -4.58346E+04
  4.04393E+04  3.81138E+03  1.67484E+04  4.75925E+04 -3.51584E+04  4.77000E+04 -6.75062E+04 -2.85060E+02
 -5.35480E+04 -5.71477E+04 -7.89231E+03 -7.75122E+04  3.42561E+04 -5.56091E+04  4.90368E+04 -1.72925E+04
  4.41827E+04  1.10438E+04  3.23986E+04  2.64768E+04  1.55433E+04  3.01696E+04 -5.26218E+03  2.79350E+04
 -2.23840E+04  1.15834E+04 -1.85068E+04 -5.09869E+03  6.53270E+03 -6.91913E+03  2.32499E+04  1.34573E+04
  7.09428E+03  3.60471E+04 -3.24022E+04  3.60486E+04 -6.43247E+04  2.24980E+03 -5.81800E+04 -4.28607E+04
 -1.27027E+04 -6.43009E+04  4.09655E+04 -4.61155E+04  5.94655E+04 -2.63103E+03  3.48798E+04  3.29340E+04
 -6.39389E+03  3.78342E+04 -3.06049E+04  1.68124E+04 -3.16474E+04 -4.20568E+03 -1.76638E+04 -1.13528E+04
 -8.97679E+03 -1.37778E+04 -8.36944E+02 -1.86025E+04  7.57149E+03 -2.37028E+04  1.58714E+04 -1.31570E+04
  1.06242E+04  5.52671E+03 -8.56910E+03  1.28678E+04 -2.19366E+04 -5.17963E+03 -8.25897E+03 -3.45840E+04
  2.39024E+04 -4.46668E+04  4.93834E+04 -2.02376E+04  4.62493E+04  2.03142E+04  1.60765E+04  4.49916E+04
 -1.63653E+04  3.43506E+04 -2.60497E+04  2.06144E+03 -1.05692E+04 -2.86611E+04  2.09976E+04 -3.46499E+04
  4.25236E+04 -9.49613E+03  3.72343E+04  2.44434E+04  1.91998E+04  4.76331E+04 -8.00330E+03  5.22956E+04
 -3.25568E+04  3.47361E+04 -4.33843E+04  1.04283E+04 -4.39963E+04 -1.72284E+04 -2.35797E+04 -3.89320E+04
  7.72809E+03 -3.90668E+04  3.29068E+04 -1.54780E+04  2.99854E+04  1.13172E+04  4.33426E+03  1.98010E+04
 -1.41551E+04  8.78560E+03 -1.10527E+04 -7.97582E+03  5.56493E+03 -1.06154E+04  1.81219E+04  6.00842E+03
  1.37800E+04  2.17769E+04 -6.09663E+03  2.54163E+04 -2.23706E+04  1.22760E+04 -2.86157E+04 -4.07126E+03
 -2.28561E+04 -1.78346E+04 -1.00939E+04 -2.15096E+04  4.87644E+03 -2.13123E+04  1.74367E+04 -1.96886E+04
  2.77984E+04 -1.34393E+04  3.40396E+04  3.64336E+03  2.47587E+04  2.11824E+04  4.47425E+03  3.82726E+04
 -1.78378E+04  3.10830E+04 -2.85950E+04  1.11289E+04 -2.15171E+04 -1.03335E+04 -4.85038E+03 -1.29484E+04
  1.66872E+03 -2.52249E+03 -5.83821E+03  7.46972E+03 -1.74868E+04  4.97077E+03 -1.71408E+04 -8.15576E+03
 -1.06819E+04 -2.00517E+04  4.94394E+03 -2.43000E+04  1.60692E+04 -1.77815E+04  1.97305E+04 -1.48777E+03
  1.25101E+04  1.41123E+04 -7.82256E+02  2.04405E+04 -1.32963E+04  1.09083E+04 -1.98621E+04 -4.34753E+03
 -1.47991E+04 -1.76944E+04 -1.53192E+03 -2.43440E+04  1.03297E+04 -1.95800E+04  2.01894E+04 -1.03159E+04
  1.88799E+04 -6.10652E+02  1.30114E+04  4.83878E+03  7.30925E+03  1.23953E+03  9.82792E+03 -1.72745E+03
  1.92036E+04  2.50774E+03  2.08391E+04  1.58103E+04  1.37272E+04  3.25658E+04 -2.73479E+03  3.71343E+04
 -2.10661E+04  2.97349E+04 -3.41518E+04  1.46403E+04 -3.62837E+04 -2.60559E+03 -2.97721E+04 -2.09522E+04
 -1.31357E+04 -2.95631E+04  1.02028E+04 -2.64200E+04  2.34802E+04 -1.39402E+04  2.00546E+04  6.10816E+03
  7.51965E+03  1.55456E+04 -9.82571E+03  1.28470E+04 -1.72828E+04  2.20120E+03 -1.28343E+04 -1.10811E+04
 -5.99553E+02 -1.59485E+04  8.23244E+03 -1.23638E+04  1.05507E+04 -1.20658E+03  2.24573E+03  7.39927E+03
 -7.41292E+03  2.84635E+03 -6.71534E+03 -5.91270E+03 -9.41751E+02 -1.41261E+04  1.04445E+04 -1.52582E+04
  1.78260E+04 -8.16739E+03  1.95302E+04  2.65651E+03  1.68349E+04  1.44913E+04  7.89169E+03  2.24943E+04
 -3.90079E+03  2.42080E+04 -1.61929E+04  1.56900E+04 -1.67867E+04  3.61747E+03 -1.20948E+04 -3.71793E+03
 -5.72768E+03 -5.83085E+03 -1.00871E+03  1.43605E+03 -2.31508E+03  2.79311E+03 -5.53294E+03  4.69664E+03
 -1.12541E+04 -1.31678E+03 -1.14304E+04 -9.59676E+03 -4.27655E+03 -1.58809E+04  4.68494E+03 -1.27122E+04
  1.03445E+04 -5.24181E+03  7.18209E+03  2.86500E+03  4.49714E+02  4.48013E+03 -6.40481E+03 -1.36065E+02
 -5.25899E+03 -8.19280E+03 -1.15991E+03 -1.13941E+04  7.14448E+03 -1.18309E+04  1.45417E+04 -7.11884E+03
  1.83328E+04  1.43986E+03  1.28983E+04  9.97656E+03  2.50562E+03  1.35285E+04 -7.15112E+03  1.20457E+04
 -9.83539E+03  3.57629E+03 -4.85753E+03 -2.38587E+03  1.73248E+03 -2.99086E+03  6.42423E+03 -5.64143E+02
  5.66669E+03  5.62813E+03  1.38608E+03  9.36368E+03 -7.05179E+03  9.22939E+03 -1.15938E+04  1.88447E+03
 -8.07240E+03 -5.93588E+03  9.49726E+01 -1.00972E+04  6.11845E+03 -5.34229E+03  6.00844E+03  2.40989E+03
  9.92750E+02  6.69870E+03 -5.39929E+03  8.36210E+03 -9.67708E+03  3.62007E+03 -9.13227E+03 -2.60530E+03
 -5.48371E+03 -1.06434E+04  2.63677E+03 -1.20820E+04  9.98504E+03 -7.57343E+03  1.14730E+04  1.98474E+03
  7.76932E+03  8.94377E+03 -5.34624E+02  1.07438E+04 -7.92018E+03  6.18436E+03 -8.96910E+03 -4.95092E+02
 -8.59647E+03 -7.81977E+03 -1.40961E+03 -7.80670E+03  4.33681E+03 -7.51321E+03  4.88715E+03 -2.96688E+03
  4.14630E+03  1.33756E+03 -7.64336E+02  1.49806E+03  1.32900E+02 -1.88637E+03  7.18434E+02 -4.71846E+03
  7.95491E+03 -3.06435E+03  1.02859E+04  9.50092E+02  1.03127E+04  6.35961E+03  7.36678E+03  1.32636E+04
 -3.48159E+03  1.51242E+04 -1.27197E+04  1.18690E+04 -1.78171E+04  2.36472E+03 -1.33131E+04 -5.50677E+03
 -6.79704E+03 -1.09699E+04 -6.51640E+02 -9.20830E+03  3.72369E+03 -4.63378E+03  3.69932E+03 -3.13318E+03
  2.36814E+03 -2.53148E+03  3.05122E+03 -2.94865E+03  5.09780E+03 -2.50762E+03  5.94429E+03 -6.36677E+01
  7.23021E+03  2.23009E+03  3.87684E+03  5.37747E+03 -1.58816E+03  6.71451E+03 -7.59804E+03  5.41112E+03
 -9.70243E+03 -1.33142E+03 -5.60727E+03 -7.05064E+03 -2.87479E+02 -9.26063E+03  5.67433E+03 -1.00655E+04
  9.31321E+03 -5.51438E+03  1.19270E+04  8.24186E+02  8.64281E+03  8.66120E+03  1.44083E+03  1.14635E+04
 -3.72330E+03  8.58910E+03 -6.51631E+03  3.92593E+03 -4.32352E+03 -1.14933E+03 -1.02467E+03 -1.14465E+03
 -7.14390E+02 -4.49766E+02 -1.51911E+03  2.37746E+03 -4.49745E+03  2.48998E+03 -6.24664E+03 -1.18399E+03
 -3.89505E+03 -6.06875E+03  1.94185E+00 -8.23406E+03  5.00349E+03 -8.58171E+03  8.35822E+03 -2.17747E+03
  8.42567E+03  3.63990E+03  4.14188E+03  7.02469E+03 -2.04860E+03  8.45820E+03 -6.28590E+03  5.36762E+03
 -8.34508E+03  7.73017E+02 -5.91742E+03 -5.10172E+03 -5.68461E+02 -7.00780E+03  3.67289E+03 -5.46473E+03
  5.83175E+03 -1.85802E+03  3.54523E+03  9.75128E+02  1.27853E+03  2.19992E+03  1.31820E+03  1.21934E+03
  2.36147E+03  9.63349E+02  2.16750E+03  1.50555E+03  1.84124E+03  3.51419E+03  2.35702E+03  3.73026E+03
 -2.76707E+03  6.55975E+03 -5.26898E+03  7.57213E+03 -7.72387E+03  2.44663E+03 -8.42339E+03 -2.61481E+03
 -4.16028E+03 -8.16681E+03  8.90529E+02 -8.78776E+03  5.08176E+03 -6.13954E+03  6.12649E+03 -1.77268E+03
  5.41348E+03  3.07744E+03  1.43046E+03  4.89061E+03 -2.04269E+03  2.97237E+03 -3.53398E+03 -3.67228E+02
 -2.02554E+03 -3.55513E+03  1.87418E+03 -3.24853E+03  3.40966E+03 -1.96852E+03  3.27045E+03  4.06174E+02
  1.49335E+03  2.08150E+03  6.66533E+02  5.02086E+02 -4.09666E+02  1.30289E+03  1.16406E+03  3.39093E+02
  2.20464E+03  9.28234E+01  2.90843E+03  8.60866E+02  1.64908E+03  4.24197E+03  4.96370E+01  5.63119E+03
 -3.19067E+03  3.29855E+03 -4.42816E+03  9.28262E+02 -4.44201E+03 -2.11366E+03 -1.10237E+03 -2.35855E+03
  1.61082E+02 -2.89969E+03  1.94325E+03 -8.58924E+02  2.11728E+03  1.33782E+03 -1.26242E+03  2.98945E+03
 -3.21035E+03  1.31151E+03 -2.98394E+03 -2.29198E+03 -1.52452E+03 -3.86844E+03  6.33244E+02 -5.14136E+03
  2.51404E+03 -1.84212E+03  3.33543E+03 -1.51071E+02  2.92963E+03  1.21729E+03  3.69891E+02  1.98785E+03
 -1.75950E+03  4.68981E+02 -1.94548E+03 -1.19008E+03  1.15797E+03 -2.90090E+03  3.85674E+03 -1.78272E+03
  3.66907E+03  1.67390E+02  6.02678E+03  2.16752E+03  1.75783E+03  4.63129E+03 -1.35201E+03  4.41681E+03
 -3.64257E+03  1.49645E+03 -3.72128E+03 -6.82009E+02 -2.29489E+03 -3.13643E+03  5.94618E+01 -2.49741E+03
  2.48891E+03 -1.30055E+03  2.60346E+03  8.35857E+02  6.73086E+02  2.76929E+03  5.92751E+02  2.22778E+03
 -5.10001E+02  1.91801E+03 -1.00955E+03  8.83411E+02 -5.00300E+02  9.29613E+02 -7.60680E+02  1.12988E+03
 -1.39202E+03  2.02810E+03 -2.72887E+03  1.60748E+03 -4.68707E+03  2.12845E+02 -5.77968E+03 -2.43836E+03
 -1.85788E+03 -6.20792E+03  1.34271E+03 -7.03943E+03  3.85693E+03 -5.43480E+03  6.64705E+03 -2.50781E+03
  6.61810E+03  1.90717E+02  3.43429E+03  3.71976E+03 -3.41205E+02  4.27807E+03 -1.65373E+03  2.81036E+03
 -2.59303E+03  1.26621E+03 -1.38313E+03 -4.30766E+02 -4.16987E+02  2.13688E+02 -1.66910E+03  8.18304E+01
 -1.30523E+03 -6.77669E+02 -9.75362E+02 -3.15640E+02  5.57287E+01 -1.50066E+03  1.23417E+02 -1.67362E+03
  2.18539E+03 -1.03961E+03  2.44253E+03  4.29961E+01  2.92819E+03  3.14965E+03  1.14257E+02  4.69319E+03
 -2.15984E+03  4.92487E+03 -4.17745E+03  3.20309E+03 -5.09724E+03 -3.39386E+02 -3.74841E+03 -3.13456E+03
 -1.53624E+03 -4.21733E+03  1.18410E+03 -3.94201E+03  1.65787E+03 -1.87584E+03  2.17989E+03  1.18927E+02
  2.25447E+03  1.94989E+03 -7.91611E+02  1.00206E+03 -8.57411E+02  5.16723E+02  3.07575E+02 -1.23085E+03
  9.89086E+02 -6.18222E+02  1.54493E+03  9.37071E+02  5.74457E+02  1.54092E+03  3.52387E+02  1.43066E+03
 -2.30125E+03  1.29329E+03 -2.32021E+03  3.41048E+02 -2.74226E+03 -1.42020E+03 -2.07827E+02 -3.68414E+03
  1.55119E+03 -2.20441E+03  2.95589E+03 -9.75762E+02  2.57431E+03 -1.53003E+02  1.76619E+03  2.53731E+03
  3.05206E+02  1.84828E+03 -4.49331E+02  1.76544E+03 -1.71432E+03  1.78756E+03 -1.54372E+03 -1.26102E+02
 -4.69191E+02 -3.20892E+02 -6.15855E+02 -1.68928E+02 -1.49605E+03  6.81683E+02 -1.71405E+03 -1.67039E+02
 -1.90944E+03 -5.50798E+02 -9.30297E+02 -2.21247E+03  9.67174E+02 -2.91310E+03  1.44229E+03 -7.66265E+02
  2.72014E+03  8.45381E+02  2.03990E+02  1.51834E+03 -2.97289E+02  2.45927E+03 -1.43373E+03  1.81767E+03
