 $NMID ID='MM_0lb_SNR400_14hz_g55_83.RAW', FMTDAT='(8E13.5)'
 TRAMP=1., VOLUME=1. $END
  3.10516E+05 -1.53695E+02  3.37707E+05  2.50834E+05  8.46505E+04  3.38386E+05 -1.32435E+05  2.51788E+05
 -1.90253E+05  8.35923E+04 -1.12176E+05 -3.27346E+04  8.51153E+02 -5.08906E+04  5.42769E+04 -4.00649E+02
  3.55120E+04  5.27640E+04 -1.66199E+04  7.61875E+04 -6.04558E+04  6.38978E+04 -8.39421E+04  3.20814E+04
 -8.11967E+04 -1.06496E+04 -5.76521E+04 -5.13670E+04 -1.48904E+04 -6.99815E+04  2.75673E+04 -4.51652E+04
  4.07034E+04  3.65804E+03  1.65334E+04  4.84616E+04 -3.38253E+04  4.69200E+04 -6.71475E+04  2.05886E+02
 -5.31408E+04 -5.67754E+04 -6.53410E+03 -7.77231E+04  3.27675E+04 -5.53301E+04  4.80125E+04 -1.70326E+04
  4.39000E+04  1.18675E+04  3.21240E+04  2.53474E+04  1.52364E+04  2.97268E+04 -4.91535E+03  2.76992E+04
 -2.21153E+04  1.23294E+04 -1.84105E+04 -5.14957E+03  5.90515E+03 -7.84099E+03  2.21156E+04  1.21277E+04
  7.46070E+03  3.50072E+04 -3.24999E+04  3.57120E+04 -6.42194E+04  2.49831E+03 -5.74697E+04 -4.32523E+04
 -1.22835E+04 -6.36222E+04  3.91436E+04 -4.57300E+04  5.86433E+04 -2.16230E+03  3.48893E+04  3.25577E+04
 -6.38626E+03  3.65598E+04 -2.98411E+04  1.63854E+04 -3.07011E+04 -4.49221E+03 -1.72453E+04 -1.03806E+04
 -9.06606E+03 -1.33475E+04 -7.39121E+02 -1.86988E+04  7.74996E+03 -2.28212E+04  1.52247E+04 -1.32845E+04
  1.14968E+04  5.14030E+03 -7.83278E+03  1.30102E+04 -2.12579E+04 -5.06033E+03 -8.65870E+03 -3.43033E+04
  2.32817E+04 -4.39667E+04  4.87511E+04 -1.96991E+04  4.59594E+04  1.95046E+04  1.54244E+04  4.49093E+04
 -1.59891E+04  3.43573E+04 -2.62467E+04  1.82551E+03 -1.04506E+04 -2.83636E+04  2.15391E+04 -3.45960E+04
  4.22348E+04 -9.30707E+03  3.65800E+04  2.39966E+04  1.86633E+04  4.75777E+04 -8.23337E+03  5.10436E+04
 -3.24562E+04  3.45257E+04 -4.34855E+04  1.03454E+04 -4.32035E+04 -1.66750E+04 -2.41260E+04 -3.86828E+04
  7.79227E+03 -3.85586E+04  3.14849E+04 -1.51687E+04  2.94835E+04  1.12580E+04  4.33349E+03  1.94750E+04
 -1.31025E+04  8.01888E+03 -1.01297E+04 -7.02873E+03  5.69014E+03 -1.10240E+04  1.76884E+04  5.57124E+03
  1.35713E+04  2.27507E+04 -6.01659E+03  2.58286E+04 -2.23165E+04  1.18353E+04 -2.83302E+04 -4.11075E+03
 -2.20249E+04 -1.72667E+04 -8.61364E+03 -2.17047E+04  3.71441E+03 -2.06847E+04  1.69470E+04 -1.90284E+04
  2.70111E+04 -1.27731E+04  3.33861E+04  2.76628E+03  2.41855E+04  2.08029E+04  3.52913E+03  3.72176E+04
 -1.76060E+04  3.13187E+04 -2.82657E+04  1.10244E+04 -2.09685E+04 -1.03382E+04 -4.16446E+03 -1.34168E+04
  2.06114E+03 -1.85860E+03 -5.99358E+03  6.77180E+03 -1.72170E+04  4.86501E+03 -1.75329E+04 -7.86658E+03
 -1.01772E+04 -2.00053E+04  5.28456E+03 -2.33985E+04  1.60658E+04 -1.67224E+04  1.90869E+04 -1.95979E+03
  1.19169E+04  1.30859E+04 -8.81859E+02  1.98938E+04 -1.33224E+04  1.13488E+04 -1.97026E+04 -4.39777E+03
 -1.47765E+04 -1.72370E+04 -1.76608E+03 -2.37989E+04  1.08032E+04 -1.92649E+04  1.94659E+04 -9.75689E+03
  1.87803E+04 -4.80341E+02  1.30785E+04  4.82083E+03  7.41511E+03  6.99340E+02  1.01340E+04 -1.53806E+03
  1.75537E+04  2.52574E+03  2.02406E+04  1.52317E+04  1.33992E+04  3.13764E+04 -2.79564E+03  3.55667E+04
 -2.02294E+04  2.92606E+04 -3.31555E+04  1.40396E+04 -3.45345E+04 -2.47579E+03 -2.88686E+04 -2.04925E+04
 -1.22052E+04 -2.86787E+04  9.61247E+03 -2.56308E+04  2.19249E+04 -1.25182E+04  1.99119E+04  5.59500E+03
  7.67765E+03  1.50416E+04 -9.89679E+03  1.33283E+04 -1.62874E+04  2.35589E+03 -1.23001E+04 -1.06107E+04
 -1.37796E+02 -1.56073E+04  7.70565E+03 -1.18970E+04  1.06834E+04 -9.22078E+02  2.56993E+03  6.97053E+03
 -6.87165E+03  2.49071E+03 -6.29434E+03 -6.08165E+03 -5.99347E+02 -1.40816E+04  9.38855E+03 -1.47895E+04
  1.76092E+04 -7.66910E+03  1.91411E+04  2.77308E+03  1.64812E+04  1.44485E+04  7.60879E+03  2.15202E+04
 -2.94234E+03  2.31245E+04 -1.46603E+04  1.46043E+04 -1.65673E+04  3.68177E+03 -1.16195E+04 -3.61271E+03
 -5.23268E+03 -5.34429E+03 -6.24543E+02  1.30262E+03 -2.43921E+03  3.04687E+03 -5.23973E+03  5.01242E+03
 -1.08461E+04 -1.32843E+02 -1.13878E+04 -1.03578E+04 -4.51260E+03 -1.57073E+04  4.82204E+03 -1.17886E+04
  9.66778E+03 -4.37609E+03  6.94590E+03  3.43465E+03  8.77473E+01  4.58217E+03 -5.86758E+03 -2.76664E+02
 -5.60750E+03 -8.22715E+03 -4.06740E+02 -1.08748E+04  5.67154E+03 -1.21250E+04  1.44709E+04 -6.84012E+03
  1.72489E+04  1.09298E+03  1.28252E+04  1.00697E+04  2.01650E+03  1.28364E+04 -6.93544E+03  1.18224E+04
 -9.30721E+03  4.10218E+03 -4.81181E+03 -2.41456E+03  1.65635E+03 -3.41697E+03  5.92042E+03 -8.71335E+02
  5.35148E+03  5.49951E+03  9.02197E+02  9.26195E+03 -7.12077E+03  8.58459E+03 -1.12466E+04  1.86180E+03
 -7.41246E+03 -6.07191E+03 -5.01120E-01 -9.99913E+03  6.21736E+03 -4.67605E+03  6.09297E+03  2.73151E+03
  1.29669E+03  6.73728E+03 -6.35690E+03  7.23400E+03 -8.56145E+03  3.63129E+03 -9.65418E+03 -2.54613E+03
 -5.51128E+03 -1.03422E+04  3.26524E+03 -1.18330E+04  9.81243E+03 -7.38989E+03  1.13109E+04  1.60226E+03
  6.81963E+03  9.02136E+03 -6.23524E+02  1.10852E+04 -7.44854E+03  6.75239E+03 -7.66058E+03 -9.10428E+01
 -7.43841E+03 -7.64395E+03 -1.50872E+03 -8.16734E+03  4.26418E+03 -6.83812E+03  5.39236E+03 -3.28418E+03
  4.06115E+03  1.49505E+03 -3.14738E+02  1.56207E+03  4.43768E+02 -9.45767E+02  7.96150E+02 -3.92597E+03
  7.49173E+03 -2.35388E+03  9.49072E+03  1.27809E+03  9.60229E+03  6.71095E+03  7.09682E+03  1.27624E+04
 -3.16633E+03  1.53066E+04 -1.30806E+04  1.13881E+04 -1.62695E+04  2.66005E+03 -1.24966E+04 -4.99715E+03
 -7.14706E+03 -1.08407E+04 -8.86423E+02 -9.14307E+03  3.70216E+03 -4.76803E+03  3.15512E+03 -3.53158E+03
  1.59337E+03 -2.57672E+03  2.77211E+03 -3.24331E+03  4.45363E+03 -2.39266E+03  5.30840E+03 -3.67937E+02
  7.30217E+03  2.08279E+03  3.20322E+03  5.55571E+03 -2.09929E+03  5.90197E+03 -7.38958E+03  5.04388E+03
 -8.71818E+03 -1.25147E+03 -4.93061E+03 -5.68178E+03 -7.81554E+02 -9.37635E+03  5.11843E+03 -9.67495E+03
  9.43235E+03 -5.43807E+03  1.16871E+04  8.81831E+02  8.28507E+03  8.22192E+03  1.87252E+03  1.07546E+04
 -3.59550E+03  9.67611E+03 -6.64149E+03  3.55221E+03 -4.47739E+03 -1.21166E+03 -1.45974E+03 -1.39987E+03
 -1.22367E+02  1.83644E+02 -1.47479E+03  2.17478E+03 -3.83806E+03  1.36793E+03 -6.10736E+03 -8.48898E+02
 -4.21906E+03 -6.66311E+03  2.41144E+02 -8.55227E+03  5.10528E+03 -7.63422E+03  7.61432E+03 -1.71798E+03
  7.81614E+03  4.25169E+03  3.67828E+03  7.32270E+03 -1.62353E+03  8.32130E+03 -6.25526E+03  5.42857E+03
 -7.40044E+03  7.45439E+02 -6.28935E+03 -4.34410E+03 -9.32652E+01 -6.66313E+03  3.32078E+03 -4.91435E+03
  4.96761E+03 -1.79336E+03  3.40646E+03  1.08133E+03  6.16805E+02  2.22183E+03  1.44902E+03  1.75168E+03
  2.27793E+03  4.65229E+02  2.11832E+03  1.01117E+03  2.61595E+03  2.96218E+03  2.55937E+03  4.27216E+03
 -2.36533E+03  6.80007E+03 -5.50542E+03  7.03875E+03 -7.72076E+03  1.50507E+03 -8.48778E+03 -3.13844E+03
 -3.71882E+03 -8.35607E+03  6.64856E+02 -8.14470E+03  4.50640E+03 -4.81907E+03  6.88989E+03 -1.33139E+03
  4.69000E+03  3.23951E+03  1.34349E+03  4.74771E+03 -1.78817E+03  2.84334E+03 -3.07202E+03 -8.94394E+02
 -6.84912E+02 -3.34340E+03  1.80348E+03 -3.55031E+03  2.93390E+03 -1.04004E+03  2.74727E+03  1.04093E+03
  1.69103E+03  1.00100E+03  1.53875E+03  1.14365E+03 -4.98469E+02  1.30684E+03  1.99700E+03 -9.25065E+02
  7.91130E+02 -6.79966E+02  4.10447E+03  1.65804E+03  1.37674E+03  4.17448E+03 -7.80369E+02  5.36462E+03
 -3.18588E+03  3.55328E+03 -5.18273E+03  1.21612E+03 -4.47606E+03 -1.36472E+03 -1.28885E+03 -2.97205E+03
  3.28006E+02 -2.68132E+03  2.29381E+03 -1.65694E+03  1.43650E+03  2.26759E+03 -5.12550E+02  2.86958E+03
 -2.94198E+03  1.29992E+03 -3.32438E+03 -2.39122E+03 -1.73519E+03 -4.01049E+03  5.73928E+02 -3.42865E+03
  2.38414E+03 -2.04031E+03  2.35402E+03 -6.88409E+01  2.54235E+03  7.74481E+02  1.00008E+03  2.34500E+03
 -9.16723E+02 -1.23205E+02 -2.27344E+03 -1.02838E+03  6.77709E+02 -2.32330E+03  3.37070E+03 -2.30959E+03
  4.05550E+03 -1.67353E+02  5.64639E+03  2.70565E+03  1.67119E+03  4.05431E+03 -1.26551E+03  4.60202E+03
 -3.40399E+03  1.01550E+03 -3.69384E+03 -1.96477E+02 -2.40103E+03 -2.93858E+03  4.59026E+02 -2.46527E+03
  2.85818E+03 -1.55823E+03  1.89889E+03  1.35436E+03  1.11561E+03  1.78153E+03 -2.71761E+01  2.20061E+03
 -5.11413E+02  1.35096E+03 -1.21906E+03  9.01004E+02  2.90614E+02  1.12733E+03 -9.05226E+02  1.30438E+03
 -1.57955E+03  1.88647E+03 -3.34579E+03  5.24540E+02 -3.88877E+03  2.59055E+02 -4.47160E+03 -3.41614E+03
 -2.13198E+03 -5.79921E+03  8.42801E+02 -6.77438E+03  3.93881E+03 -5.54824E+03  6.75809E+03 -2.19798E+03
  5.59478E+03  5.54322E+02  2.65795E+03  3.81224E+03 -3.46827E+02  3.74070E+03 -2.37411E+03  2.46940E+03
 -2.29957E+03  1.30125E+03 -1.41855E+03 -6.82236E+02 -9.51476E+02 -4.54495E+02 -4.43415E+02 -4.97101E+02
 -1.59345E+03  6.27142E+01 -1.35361E+03 -7.19411E+02 -5.04483E+02 -1.02877E+03 -4.87528E+02 -1.13831E+03
  2.92806E+03 -1.15143E+03  2.42595E+03 -1.64504E+02  3.21495E+03  1.86340E+03  1.68552E+02  4.20302E+03
 -2.02432E+03  5.20920E+03 -4.65747E+03  3.49515E+03 -4.92116E+03 -9.46258E+02 -2.73622E+03 -2.87465E+03
 -1.10985E+03 -4.31689E+03  1.20805E+03 -3.34241E+03  2.01029E+03 -1.97167E+03  2.71129E+03  7.67170E+02
  5.94832E+02  1.48502E+03  2.84199E+02  1.31961E+03 -8.03549E+01  2.02308E+02  1.90165E+02 -3.04060E+02
  1.82167E+03 -7.63644E+02  8.73642E+02  1.26189E+03  1.58028E+03  1.63701E+03  4.30281E+02  2.22176E+03
 -2.01427E+03  1.99147E+03 -2.38268E+03  1.58506E+02 -2.28878E+03 -1.51948E+03 -2.20842E+02 -3.17696E+03
  1.56735E+03 -2.53256E+03  1.71179E+03 -4.81914E+02  3.09505E+03  2.41798E+02  1.25115E+03  2.27223E+03
  1.04584E+03  1.84459E+03 -9.79640E+02  2.69856E+03 -8.79928E+02  1.67118E+03 -1.07604E+03  2.35236E+02
 -4.41186E+02  2.42806E+02 -1.22934E+03  8.18699E+02 -1.56699E+03  6.03795E+02 -2.32528E+03 -1.37846E+03
 -2.57407E+03 -2.20545E+02 -3.45048E+02 -2.41858E+03  1.34762E+03 -2.73016E+03  1.32703E+03 -9.61777E+02
  2.91521E+03  1.68143E+02  1.14239E+03  1.35729E+03 -7.13069E+01  2.74335E+03 -1.65549E+03  1.46004E+03
