 $NMID ID='MM_0lb_SNR400_17hz_g45_77.RAW', FMTDAT='(8E13.5)'
 TRAMP=1., VOLUME=1. $END
  3.10003E+05  4.58110E+02  3.37493E+05  2.49737E+05  8.47241E+04  3.37899E+05 -1.32142E+05  2.50062E+05
 -1.89514E+05  8.26333E+04 -1.11025E+05 -3.26437E+04  1.17840E+03 -5.00536E+04  5.37225E+04 -2.87687E+02
  3.46959E+04  5.26148E+04 -1.65063E+04  7.50250E+04 -6.03854E+04  6.30801E+04 -8.38037E+04  3.13372E+04
 -7.94800E+04 -1.10719E+04 -5.59505E+04 -5.03739E+04 -1.50610E+04 -6.88506E+04  2.69423E+04 -4.45230E+04
  3.90594E+04  4.01858E+03  1.58997E+04  4.74747E+04 -3.40108E+04  4.69145E+04 -6.65066E+04 -9.62807E+02
 -5.19300E+04 -5.60366E+04 -6.49642E+03 -7.59820E+04  3.31028E+04 -5.36557E+04  4.67002E+04 -1.69268E+04
  4.19402E+04  1.08494E+04  3.08189E+04  2.50218E+04  1.60147E+04  2.85205E+04 -4.76216E+03  2.69095E+04
 -2.17335E+04  1.26920E+04 -1.93468E+04 -3.92848E+03  4.72950E+03 -7.41819E+03  2.12412E+04  1.13280E+04
  7.58025E+03  3.39488E+04 -3.08012E+04  3.42560E+04 -6.18828E+04  2.08270E+03 -5.56006E+04 -4.19475E+04
 -1.15991E+04 -6.11198E+04  3.84091E+04 -4.34727E+04  5.64647E+04 -2.07899E+03  3.22438E+04  3.09303E+04
 -6.14688E+03  3.40198E+04 -2.91559E+04  1.44207E+04 -2.84968E+04 -5.33865E+03 -1.50424E+04 -9.81098E+03
 -7.72445E+03 -1.15549E+04 -1.14960E+03 -1.66703E+04  6.76687E+03 -2.22124E+04  1.52086E+04 -1.36701E+04
  1.19734E+04  4.29631E+03 -6.45807E+03  1.29393E+04 -1.98459E+04 -2.58795E+03 -7.90641E+03 -3.15636E+04
  2.12129E+04 -4.15731E+04  4.56052E+04 -1.93503E+04  4.29182E+04  1.86782E+04  1.44679E+04  4.22221E+04
 -1.56087E+04  3.16370E+04 -2.38621E+04  1.24584E+03 -8.52390E+03 -2.67589E+04  2.03769E+04 -3.14562E+04
  3.87730E+04 -7.80772E+03  3.18106E+04  2.29936E+04  1.57029E+04  4.34018E+04 -7.65640E+03  4.63060E+04
 -2.92576E+04  3.09693E+04 -3.86797E+04  8.27548E+03 -4.01441E+04 -1.53739E+04 -2.14186E+04 -3.59435E+04
  6.50641E+03 -3.56090E+04  2.96135E+04 -1.35154E+04  2.67231E+04  1.07230E+04  2.93941E+03  1.84852E+04
 -1.34315E+04  8.07578E+03 -9.90483E+03 -7.62306E+03  5.47211E+03 -1.03780E+04  1.71361E+04  6.46961E+03
  1.24159E+04  2.17389E+04 -6.06492E+03  2.41560E+04 -2.18665E+04  1.00319E+04 -2.61369E+04 -6.36200E+03
 -1.80097E+04 -1.66186E+04 -5.65402E+03 -1.78553E+04  4.34848E+03 -1.64817E+04  1.32934E+04 -1.57136E+04
  2.26205E+04 -1.21369E+04  2.95853E+04  1.50432E+03  2.18675E+04  1.68100E+04  4.57424E+03  3.34346E+04
 -1.68230E+04  2.80902E+04 -2.61503E+04  9.46217E+03 -1.97692E+04 -1.07051E+04 -4.75627E+03 -1.38699E+04
  2.18502E+03 -3.61086E+03 -2.95502E+03  5.55350E+03 -1.39805E+04  5.43813E+03 -1.35971E+04 -5.63307E+03
 -8.68088E+03 -1.64384E+04  5.30598E+03 -1.97761E+04  1.34018E+04 -1.44570E+04  1.59385E+04 -1.79289E+03
  9.44107E+03  1.10475E+04 -1.61602E+03  1.66920E+04 -1.10027E+04  9.12129E+03 -1.64670E+04 -3.49277E+03
 -1.20707E+04 -1.52969E+04 -1.85402E+03 -1.98607E+04  9.29944E+03 -1.59898E+04  1.66832E+04 -7.58752E+03
  1.53398E+04  6.39545E+02  1.03540E+04  4.06997E+03  5.17473E+03  4.44472E+02  8.37951E+03 -1.17802E+03
  1.44223E+04  2.79915E+03  1.58525E+04  1.32394E+04  9.91576E+03  2.65900E+04 -3.29516E+03  2.77346E+04
 -1.69646E+04  2.17864E+04 -2.62168E+04  1.09046E+04 -2.71503E+04 -1.92629E+03 -2.28238E+04 -1.59558E+04
 -1.05052E+04 -2.23650E+04  7.34966E+03 -2.00019E+04  1.78015E+04 -1.10783E+04  1.63072E+04  3.70329E+03
  6.32324E+03  1.20819E+04 -7.69566E+03  1.06295E+04 -1.41837E+04  2.50852E+03 -1.09040E+04 -8.91113E+03
 -2.63203E+02 -1.34207E+04  6.89097E+03 -9.80471E+03  8.64765E+03 -1.09254E+03  1.69501E+03  5.65988E+03
 -5.80852E+03  1.54744E+03 -4.47252E+03 -5.10581E+03 -6.26320E+01 -1.09982E+04  8.39165E+03 -1.10495E+04
  1.35398E+04 -5.35980E+03  1.36870E+04  2.47671E+03  1.13938E+04  1.04532E+04  5.74162E+03  1.58618E+04
 -2.38108E+03  1.77312E+04 -1.08653E+04  1.11732E+04 -1.24955E+04  3.02596E+03 -9.43678E+03 -2.11231E+03
 -4.38917E+03 -4.09271E+03 -7.22760E+02  1.66044E+03 -2.40640E+03  2.20287E+03 -4.68368E+03  3.49021E+03
 -8.50087E+03 -4.36541E+02 -9.13408E+03 -7.58457E+03 -4.11304E+03 -1.25222E+04  4.55162E+03 -9.25788E+03
  7.84000E+03 -3.87785E+03  5.13999E+03  2.59923E+03  7.27309E+02  3.64015E+03 -3.42670E+03  1.36697E+02
 -4.49870E+03 -6.28078E+03 -1.06948E+03 -8.57134E+03  4.59062E+03 -9.21869E+03  1.10301E+04 -4.87110E+03
  1.31379E+04  1.01072E+03  9.54170E+03  6.81885E+03  2.40156E+03  9.34970E+03 -5.34610E+03  8.69302E+03
 -7.63077E+03  3.12067E+03 -4.51112E+03 -1.69723E+03  1.70622E+03 -1.97633E+03  5.07222E+03 -1.14621E+03
  4.54903E+03  3.66086E+03  6.42817E+02  7.02572E+03 -5.27210E+03  7.10878E+03 -8.70225E+03  1.91324E+03
 -5.38924E+03 -4.02834E+03  1.64073E+02 -7.61531E+03  4.11867E+03 -3.86725E+03  4.39657E+03  1.75266E+03
  6.36171E+02  3.99351E+03 -4.62629E+03  5.20721E+03 -6.07035E+03  2.40889E+03 -5.53219E+03 -1.27351E+03
 -3.14940E+03 -6.88919E+03  1.35220E+03 -7.25585E+03  6.74195E+03 -5.08664E+03  7.52218E+03  1.07574E+03
  5.36640E+03  6.38004E+03 -1.98996E+02  8.26905E+03 -5.82459E+03  5.18810E+03 -6.54233E+03 -4.42242E+02
 -6.11860E+03 -5.35955E+03 -1.24544E+03 -5.43895E+03  2.99131E+03 -5.02869E+03  3.57484E+03 -2.58392E+03
  3.32022E+03  6.57142E+02 -4.15054E+02  9.17670E+02  2.32022E+02 -3.80075E+02  3.18195E+02 -2.39853E+03
  4.29112E+03 -1.10340E+03  6.31043E+03  1.20591E+03  6.31532E+03  4.05905E+03  5.92867E+03  8.68837E+03
 -1.80981E+03  9.77517E+03 -9.11004E+03  7.17104E+03 -1.08097E+04  1.61880E+03 -8.87962E+03 -3.33640E+03
 -4.44811E+03 -7.82199E+03 -2.57018E+02 -5.87520E+03  2.21335E+03 -2.60503E+03  1.32917E+03 -2.35150E+03
  1.29716E+03 -1.85331E+03  2.48147E+03 -2.10936E+03  3.60827E+03 -1.44888E+03  4.53722E+03  4.30073E+01
  4.62235E+03  1.45863E+03  2.28799E+03  3.66377E+03 -1.65041E+03  3.00128E+03 -5.29749E+03  2.90349E+03
 -6.08943E+03 -1.29240E+03 -1.80132E+03 -4.21381E+03  1.57150E+02 -6.43497E+03  3.52669E+03 -6.85061E+03
  6.04997E+03 -3.87362E+03  7.94967E+03 -1.73449E+02  5.66077E+03  5.29002E+03  1.16592E+03  7.12040E+03
 -2.77037E+03  6.35569E+03 -4.30058E+03  2.02250E+03 -1.86135E+03 -1.28271E+03 -9.50899E+02 -2.24131E+02
 -1.20977E+02  4.85539E+02 -1.11908E+03  2.39368E+03 -2.82594E+03  1.14678E+03 -4.77954E+03 -2.48606E+02
 -2.29243E+03 -4.56677E+03  1.25583E+03 -5.62490E+03  3.60636E+03 -5.27092E+03  4.88689E+03 -8.49283E+02
  4.73279E+03  2.90407E+03  2.67801E+03  3.96744E+03 -1.55823E+03  5.22793E+03 -3.03506E+03  3.12017E+03
 -4.66280E+03  6.82274E+02 -3.71193E+03 -3.56761E+03 -7.61207E+01 -4.15758E+03  1.86465E+03 -2.93294E+03
  2.93970E+03 -1.07244E+03  2.17732E+03  8.89480E+02  1.00553E+03  1.48976E+03  1.26379E+03  8.29711E+02
  1.65024E+03  4.61784E+02  1.34560E+03  9.59858E+02  1.26717E+03  2.32391E+03  2.02887E+03  2.12696E+03
 -1.54727E+03  4.09378E+03 -3.06965E+03  4.86433E+03 -3.67906E+03  1.20869E+03 -4.98914E+03 -4.32434E+02
 -1.90920E+03 -4.36224E+03  5.65373E+02 -5.18773E+03  2.67576E+03 -3.46420E+03  3.43598E+03 -1.22141E+03
  3.68954E+03  1.81233E+03  3.30041E+01  2.59786E+03 -8.69284E+02  1.96105E+03 -1.54394E+03  6.20811E+02
 -6.98803E+02 -2.62405E+03  1.51319E+03 -1.96270E+03  1.88751E+03 -8.48365E+02  1.97857E+03  3.64749E+02
  9.19155E+02  9.71014E+02  5.21497E+02  1.31275E+02 -2.00927E+02  9.54481E+02  1.15724E+03 -4.51900E+01
  2.09929E+02 -3.07366E+02  2.13170E+03  7.55049E+02  2.67863E+02  3.01700E+03 -4.94528E+01  3.44179E+03
 -2.22757E+03  1.38616E+03 -2.96101E+03  5.76251E+02 -2.88401E+03 -1.24120E+03 -5.63276E+02 -5.60326E+02
  2.26586E+02 -1.47650E+03  1.28891E+03 -1.08175E+03  5.52346E+02  1.70951E+03 -5.51504E+02  1.39963E+03
 -1.57490E+03  1.52324E+03 -8.66543E+02 -1.88743E+03 -8.80482E+02 -2.22503E+03  6.99813E+01 -2.24127E+03
  5.07728E+02 -3.13682E+02  1.22642E+03 -2.75981E+02  1.78299E+03 -2.56356E+02  8.14702E+01  1.16938E+03
 -1.07510E+03 -2.83258E+02 -1.10350E+03 -3.56838E+02  8.31835E+02 -7.25212E+02  1.71969E+03 -1.32597E+03
  1.27056E+03  3.41282E+02  3.02037E+03  1.28593E+03  1.57227E+03  2.43676E+03 -5.61344E+02  2.33639E+03
 -1.62257E+03  6.33192E+02 -2.49077E+03 -3.46467E+02 -7.05456E+02 -1.55187E+03  2.37426E+02 -5.84864E+02
  2.15120E+03 -1.13663E+03  1.19562E+03  1.35814E+03  1.21507E+02  1.05473E+03 -1.61812E+02  1.30791E+03
 -3.29591E+02  8.06463E+02 -5.83445E+02  5.02739E+02 -1.44982E+02  6.03248E+02 -7.13903E+02  9.90930E+02
 -1.07456E+03  1.44087E+03 -1.66028E+03  6.64936E+02 -2.41191E+03  7.72702E+02 -2.83911E+03 -1.32224E+03
 -1.56818E+03 -3.15212E+03  2.52949E+02 -3.44987E+03  1.47804E+03 -2.51774E+03  3.56634E+03 -1.11326E+03
  3.53602E+03  1.20123E+02  1.46119E+03  1.90118E+03 -1.01202E+02  1.67925E+03 -1.12123E+03  1.65585E+03
 -1.27995E+03  3.31205E+02 -9.40865E+02 -2.65527E+02 -6.23815E+02  2.24349E+02 -9.64522E+02 -7.75135E+01
 -1.54105E+03  2.09821E+00 -1.46135E+03  4.42115E+02  1.16572E+02 -2.94910E+02 -2.67864E+02 -9.06317E+02
  1.65886E+03 -6.92255E+02  1.52799E+03  7.36870E+02  2.02314E+03  1.71536E+03  9.34308E+01  2.00169E+03
 -1.83723E+03  3.08442E+03 -2.20762E+03  1.50631E+03 -2.51948E+03 -8.95492E+02 -1.61239E+03 -1.98705E+03
 -1.19045E+03 -1.90315E+03  9.03636E+02 -1.42699E+03  1.38324E+03 -7.73396E+02  9.20672E+02  7.95076E+01
  3.69412E+02  9.33666E+02  5.09412E+02  1.02051E+03 -2.51589E+02 -2.15753E+02 -4.59666E+02 -3.31771E+02
  6.17957E+02 -4.81482E+02  2.63413E+02  3.20026E+02  2.16105E+02  5.64885E+02  5.97973E+02  6.59716E+02
 -1.41059E+03  7.45465E+02 -7.27965E+02  5.62002E+02 -1.12002E+03 -1.03125E+03  1.12189E+02 -2.08925E+03
  1.07817E+03 -9.93559E+02  8.32412E+02 -2.80290E+02  1.40871E+03 -9.44315E+02 -3.65874E+01  1.47319E+03
  5.49571E+02  2.81111E+02 -6.02251E+02  9.86288E+02 -1.10192E+03  4.91653E+02 -3.95876E+02  2.40506E+02
 -3.14870E+02  5.60374E+02 -7.92420E+02 -4.40558E+01 -9.63434E+02  5.11728E+02 -1.01557E+03 -6.87622E+02
 -1.63211E+03  7.79685E+01 -1.43580E+02 -1.11008E+03  9.93725E+02 -1.93433E+03  1.30312E+03 -4.65083E+02
  1.66853E+03 -9.55635E+02  5.84597E+02  2.27929E+02  1.47527E+02  1.34299E+03 -5.03150E+02  1.82142E+03
