 $NMID ID='MM_0lb_SNR400_17hz_g45_23.RAW', FMTDAT='(8E13.5)'
 TRAMP=1., VOLUME=1. $END
  3.09770E+05  8.17776E+02  3.37314E+05  2.50715E+05  8.45430E+04  3.37314E+05 -1.32607E+05  2.50161E+05
 -1.89701E+05  8.26963E+04 -1.11794E+05 -3.27282E+04  1.21413E+03 -5.05881E+04  5.38146E+04  1.16352E+02
  3.52066E+04  5.27310E+04 -1.68429E+04  7.48742E+04 -6.03716E+04  6.30465E+04 -8.32406E+04  3.21086E+04
 -7.99258E+04 -1.11006E+04 -5.66462E+04 -5.09131E+04 -1.47490E+04 -6.85170E+04  2.62866E+04 -4.46141E+04
  3.98322E+04  4.18967E+03  1.54698E+04  4.74615E+04 -3.42464E+04  4.64425E+04 -6.52420E+04 -9.08719E+02
 -5.25242E+04 -5.63179E+04 -6.33492E+03 -7.54813E+04  3.25109E+04 -5.36806E+04  4.64313E+04 -1.65965E+04
  4.19901E+04  1.11089E+04  3.10494E+04  2.51823E+04  1.49785E+04  2.88164E+04 -5.67319E+03  2.64710E+04
 -2.20154E+04  1.22452E+04 -1.86199E+04 -4.21292E+03  4.76062E+03 -6.89808E+03  2.12954E+04  1.14080E+04
  6.96686E+03  3.32747E+04 -3.10011E+04  3.42492E+04 -6.18826E+04  1.98530E+03 -5.59663E+04 -4.12359E+04
 -1.25088E+04 -6.16880E+04  3.84531E+04 -4.37298E+04  5.69591E+04 -2.26696E+03  3.24587E+04  3.12708E+04
 -6.26911E+03  3.37830E+04 -2.86424E+04  1.38327E+04 -2.77301E+04 -5.42965E+03 -1.45702E+04 -1.03968E+04
 -7.50473E+03 -1.15989E+04 -1.24749E+03 -1.67343E+04  6.61502E+03 -2.27902E+04  1.52361E+04 -1.38456E+04
  1.17545E+04  5.12761E+03 -6.84117E+03  1.28893E+04 -1.99115E+04 -3.07661E+03 -8.30936E+03 -3.12917E+04
  2.12607E+04 -4.14802E+04  4.56372E+04 -1.91702E+04  4.25309E+04  1.83659E+04  1.47983E+04  4.21582E+04
 -1.57094E+04  3.21058E+04 -2.41012E+04  1.47272E+03 -8.62337E+03 -2.67569E+04  2.08468E+04 -3.18399E+04
  3.88603E+04 -7.94589E+03  3.22072E+04  2.30049E+04  1.58123E+04  4.29400E+04 -8.22747E+03  4.69758E+04
 -2.94182E+04  3.04709E+04 -3.90863E+04  9.12960E+03 -3.94494E+04 -1.53409E+04 -2.18714E+04 -3.53747E+04
  7.06213E+03 -3.53162E+04  3.01294E+04 -1.36964E+04  2.74477E+04  1.06111E+04  3.60285E+03  1.83298E+04
 -1.27409E+04  7.87596E+03 -9.71036E+03 -7.27351E+03  6.49332E+03 -1.01285E+04  1.75111E+04  6.36185E+03
  1.27822E+04  2.23047E+04 -5.95798E+03  2.38383E+04 -2.16357E+04  1.00285E+04 -2.55523E+04 -5.37091E+03
 -1.71661E+04 -1.64542E+04 -6.63130E+03 -1.80524E+04  3.65163E+03 -1.60691E+04  1.33452E+04 -1.53194E+04
  2.24294E+04 -1.21171E+04  2.94412E+04  1.58152E+03  2.20472E+04  1.70819E+04  4.08711E+03  3.32561E+04
 -1.68176E+04  2.81999E+04 -2.66840E+04  9.96551E+03 -1.97940E+04 -1.05646E+04 -4.26630E+03 -1.34982E+04
  2.44760E+03 -4.10463E+03 -3.00221E+03  5.34672E+03 -1.38865E+04  5.20692E+03 -1.39492E+04 -5.45210E+03
 -9.26441E+03 -1.69791E+04  4.90792E+03 -2.01914E+04  1.32901E+04 -1.46836E+04  1.56196E+04 -1.17338E+03
  9.40754E+03  1.18332E+04 -7.10468E+02  1.63538E+04 -1.15660E+04  8.98111E+03 -1.62518E+04 -3.61281E+03
 -1.21133E+04 -1.47168E+04 -1.33598E+03 -2.08421E+04  9.61382E+03 -1.65296E+04  1.71699E+04 -7.78602E+03
  1.50671E+04  8.32674E+02  1.13800E+04  3.76818E+03  5.34370E+03  9.42454E+02  7.84923E+03 -7.71867E+02
  1.44575E+04  3.09676E+03  1.61197E+04  1.34713E+04  1.01988E+04  2.62255E+04 -2.78658E+03  2.83665E+04
 -1.66383E+04  2.20027E+04 -2.59915E+04  1.07981E+04 -2.73549E+04 -1.90284E+03 -2.36038E+04 -1.56460E+04
 -1.08321E+04 -2.20935E+04  7.32783E+03 -2.06664E+04  1.78366E+04 -1.13417E+04  1.65451E+04  4.29044E+03
  6.66004E+03  1.23286E+04 -7.84099E+03  1.08574E+04 -1.38259E+04  2.47879E+03 -1.07965E+04 -8.31495E+03
 -2.83952E+02 -1.38770E+04  6.51295E+03 -9.67285E+03  8.90529E+03 -1.89146E+03  2.10152E+03  5.56339E+03
 -6.06180E+03  1.61932E+03 -4.01677E+03 -4.62484E+03  6.75668E+02 -1.06112E+04  8.79340E+03 -1.11188E+04
  1.31784E+04 -5.07809E+03  1.32394E+04  2.85208E+03  1.13829E+04  1.04505E+04  5.76136E+03  1.61042E+04
 -1.94074E+03  1.67886E+04 -1.07515E+04  1.14698E+04 -1.25206E+04  3.24222E+03 -8.65150E+03 -2.13712E+03
 -4.80021E+03 -4.18154E+03 -3.22555E+02  1.77298E+03 -1.87862E+03  1.97786E+03 -4.06975E+03  3.95057E+03
 -8.52061E+03 -1.34599E+02 -8.35673E+03 -7.59379E+03 -4.16708E+03 -1.20876E+04  3.73255E+03 -9.18481E+03
  7.79042E+03 -3.80450E+03  5.49544E+03  1.98056E+03  7.06122E+02  3.69809E+03 -3.42789E+03  3.79119E+02
 -3.38830E+03 -5.94283E+03 -3.22743E+02 -7.91132E+03  4.01883E+03 -8.66442E+03  1.08535E+04 -4.40854E+03
  1.24053E+04  4.56365E+02  1.01066E+04  7.15563E+03  1.93367E+03  9.95644E+03 -5.39526E+03  8.68591E+03
 -7.08453E+03  2.79942E+03 -3.52976E+03 -1.56945E+03  1.48899E+03 -2.31314E+03  5.10628E+03 -1.25616E+03
  4.55324E+03  3.54013E+03  1.04428E+03  6.78309E+03 -4.54336E+03  6.65936E+03 -8.71082E+03  2.06451E+03
 -5.65582E+03 -4.11914E+03  4.52942E+02 -7.48448E+03  4.53797E+03 -3.37894E+03  3.71812E+03  1.19024E+03
  3.36074E+02  4.17461E+03 -4.22609E+03  5.52600E+03 -5.82415E+03  2.69257E+03 -5.28822E+03 -1.76990E+03
 -3.46798E+03 -6.81499E+03  1.72436E+03 -8.12460E+03  6.79101E+03 -4.91796E+03  7.56798E+03  1.42582E+03
  5.25913E+03  6.15938E+03 -1.06407E+02  7.93009E+03 -5.48574E+03  4.32980E+03 -6.11824E+03 -4.55537E+02
 -6.16759E+03 -6.14350E+03 -9.67594E+02 -6.01020E+03  2.86780E+03 -5.00625E+03  3.63125E+03 -2.97927E+03
  3.06330E+03  7.56644E+02 -4.46052E+01  6.13868E+02  8.33154E+02 -4.52644E+02 -2.47889E+02 -2.01289E+03
  4.72132E+03 -1.47984E+03  5.88577E+03  1.09921E+03  6.51333E+03  3.88271E+03  5.79469E+03  8.00237E+03
 -1.67830E+03  9.84767E+03 -8.69545E+03  8.08897E+03 -1.16260E+04  1.67889E+03 -8.92021E+03 -3.53545E+03
 -4.49084E+03 -7.64078E+03 -5.53856E+02 -5.87547E+03  2.63997E+03 -2.09329E+03  2.15948E+03 -2.30236E+03
  1.05450E+03 -1.58978E+03  2.08536E+03 -2.56383E+03  3.78406E+03 -2.03290E+03  3.99009E+03  1.23556E+02
  4.61879E+03  1.46021E+03  1.02969E+03  4.01743E+03 -1.89327E+03  3.75546E+03 -5.09621E+03  3.42484E+03
 -6.06626E+03 -9.41529E+02 -2.16638E+03 -3.90885E+03  4.01561E+02 -6.10157E+03  3.03144E+03 -6.35773E+03
  6.88242E+03 -3.28548E+03  7.66145E+03 -8.41432E+01  5.44532E+03  5.11215E+03  1.17180E+03  7.18823E+03
 -2.79616E+03  6.93159E+03 -4.04496E+03  2.21128E+03 -2.27957E+03 -7.07575E+02 -3.79957E+02 -4.65441E+02
 -7.37396E+02  1.63904E+02 -1.17319E+03  2.17719E+03 -2.82518E+03  1.62410E+03 -4.88173E+03 -3.41940E+02
 -1.55145E+03 -3.91524E+03  8.22549E+02 -5.76712E+03  3.29382E+03 -5.21999E+03  4.28804E+03 -1.86024E+03
  5.62952E+03  3.01780E+03  1.87032E+03  4.39521E+03 -6.35873E+02  5.26849E+03 -3.22686E+03  2.96531E+03
 -4.39204E+03  3.59538E+02 -4.42729E+03 -3.19870E+03 -8.12582E+02 -3.68398E+03  1.94841E+03 -3.78655E+03
  3.34919E+03 -1.56878E+03  2.45069E+03  2.83938E+01  5.20958E+02  2.57983E+03  6.33669E+02  6.08846E+02
  1.73175E+03  1.45265E+02  1.41285E+03  1.08651E+03  1.70801E+03  2.34510E+03  1.66315E+03  1.91203E+03
 -9.15885E+02  3.36312E+03 -2.87478E+03  4.25708E+03 -3.71843E+03  5.95503E+02 -5.17697E+03 -5.47383E+02
 -1.73167E+03 -5.07055E+03  6.87626E+02 -6.10227E+03  2.10707E+03 -3.28293E+03  3.85713E+03 -1.15551E+03
  2.87117E+03  2.34735E+03  5.66902E+02  2.80611E+03 -7.25315E+02  2.02589E+03 -1.35646E+03 -2.57340E+02
 -8.71900E+02 -2.04464E+03  1.22568E+03 -2.38038E+03  1.16318E+03 -1.05025E+03  1.76910E+03  5.58797E+02
  1.01334E+03  4.16320E+02  1.06453E+03  1.87542E+02 -8.96424E+02  4.14658E+02  1.63282E+03 -4.66943E+02
  5.63057E+02 -7.47641E+02  1.62842E+03  5.38274E+02  6.52600E+02  2.70900E+03 -3.06902E+02  3.50106E+03
 -2.47295E+03  1.22759E+03 -2.84326E+03  3.96665E+02 -2.68165E+03 -1.31164E+03 -3.62725E+02 -1.42233E+03
  8.14190E+02 -1.16690E+03  1.42784E+03 -1.49810E+03  5.46956E+02  1.69933E+03 -1.41617E+03  1.67604E+03
 -2.03983E+03  1.54236E+03 -1.58361E+03 -1.20381E+03 -1.05196E+03 -2.48909E+03 -2.09462E+02 -2.10288E+03
  1.26754E+03 -6.61837E+02  1.18888E+03  1.66793E+02  1.96013E+03 -6.15654E+02  3.48074E+02  1.11551E+03
 -7.03974E+01  2.27548E+02 -8.34543E+02 -5.96256E+02  4.32872E+02 -1.25951E+03  1.78769E+03 -9.50344E+02
  1.58971E+03  2.94593E+02  3.48721E+03  1.05347E+03  1.32551E+03  2.21959E+03 -4.46060E+02  1.99358E+03
 -2.28338E+03  8.77806E+02 -1.80206E+03 -7.90194E+01 -1.13843E+03 -1.29233E+03  7.97133E+02 -1.06043E+03
  1.84799E+03 -8.65105E+02  1.13212E+03  4.35849E+02 -5.30238E+01  1.39136E+03  1.91982E+02  1.55372E+03
 -4.63365E+02  1.33095E+03 -4.77432E+02  2.69320E+02 -1.78106E+02  4.44669E+02 -2.92698E+02  1.00484E+03
 -1.06787E+03  7.75415E+02 -2.13249E+03  5.78202E+02 -2.21189E+03  3.17248E+02 -2.99740E+03 -1.27097E+03
 -1.38598E+03 -3.06760E+03  6.75408E+02 -3.63350E+03  1.68540E+03 -3.83035E+03  3.89163E+03 -1.63799E+03
  3.18178E+03  4.80211E+02  1.50239E+03  2.18569E+03 -4.91759E+02  1.96560E+03 -9.65722E+02  1.88361E+03
 -9.56713E+02  7.99895E+02 -8.52546E+02 -2.72171E+02 -3.96280E+02  3.14886E+02 -1.16702E+03  8.33568E+01
 -1.03416E+03 -2.07958E+02 -8.39424E+02 -2.09620E+01  4.23703E+02 -5.06344E+02 -4.05867E+02 -1.11610E+03
  1.67867E+03 -1.25831E+03  2.83951E+02  1.63224E+02  1.32186E+03  1.24612E+03 -3.53446E+02  1.49418E+03
 -1.04716E+03  3.08472E+03 -2.10000E+03  1.43311E+03 -2.78893E+03 -4.52890E+02 -2.03694E+03 -1.18347E+03
 -1.28631E+03 -2.25029E+03  4.31792E+02 -1.38042E+03  1.06903E+03 -1.09500E+03  2.31267E+03  1.66276E+02
  1.16372E+03  6.40900E+02 -6.10391E+01  6.11675E+02 -9.86247E+01 -6.16038E+02  2.13276E+02  1.44921E+02
  8.25696E+02  1.78835E+01  3.95962E+02  4.79658E+02 -1.88387E+02  6.91223E+02  6.94453E+02  6.32309E+02
 -8.51435E+02  8.51588E+02 -6.30695E+02 -1.09798E+02 -1.15837E+03 -6.33725E+02  3.80672E+02 -1.09115E+03
  6.88932E+02 -1.53893E+03  8.65683E+02 -9.17403E+02  1.14710E+03 -8.65699E+02  4.07285E+02  1.09914E+03
  1.88923E+02  9.32274E+02 -1.98694E+02  1.56011E+03 -1.49615E+02  6.61973E+02 -2.34626E+02  2.47146E+02
 -1.87856E+01  8.99276E+01 -5.60312E+02  7.09926E+02 -4.11465E+02  3.78173E+02 -1.16890E+03 -3.14248E+02
 -1.35939E+03 -1.49936E+02 -4.74370E+02 -1.33084E+03  7.30740E+02 -1.79173E+03  1.22298E+03 -1.41421E+02
  7.50352E+02  1.47117E+02 -1.12130E+02  1.29527E+02 -5.45153E+02  1.20345E+03 -6.99304E+02  1.10606E+03
