 $NMID ID='MM_0lb_SNR400_12hz_g45_32.RAW', FMTDAT='(8E13.5)'
 TRAMP=1., VOLUME=1. $END
  3.09703E+05  6.56693E+02  3.37281E+05  2.50540E+05  8.52643E+04  3.38257E+05 -1.32846E+05  2.51080E+05
 -1.90808E+05  8.31170E+04 -1.11771E+05 -3.25328E+04  5.10554E+02 -5.04914E+04  5.39360E+04 -4.93612E+02
  3.50341E+04  5.36862E+04 -1.62985E+04  7.55683E+04 -6.08309E+04  6.35970E+04 -8.46072E+04  3.22682E+04
 -8.17391E+04 -1.07814E+04 -5.70183E+04 -5.12312E+04 -1.52244E+04 -7.03671E+04  2.77343E+04 -4.57628E+04
  4.01474E+04  3.13085E+03  1.60466E+04  4.84004E+04 -3.44029E+04  4.76099E+04 -6.76110E+04 -4.62270E+02
 -5.38867E+04 -5.70316E+04 -6.87012E+03 -7.73725E+04  3.32538E+04 -5.54604E+04  4.85531E+04 -1.78852E+04
  4.40411E+04  1.20459E+04  3.17893E+04  2.48689E+04  1.57045E+04  2.96274E+04 -5.64944E+03  2.77963E+04
 -2.20859E+04  1.22674E+04 -1.84962E+04 -5.38328E+03  6.25785E+03 -7.46405E+03  2.25970E+04  1.25593E+04
  7.42813E+03  3.63686E+04 -3.28928E+04  3.60466E+04 -6.44777E+04  2.99157E+03 -5.75555E+04 -4.34384E+04
 -1.24380E+04 -6.50658E+04  3.99925E+04 -4.61253E+04  5.86453E+04 -2.26668E+03  3.49134E+04  3.31747E+04
 -5.72316E+03  3.64654E+04 -3.06451E+04  1.64924E+04 -3.01647E+04 -3.81570E+03 -1.76040E+04 -1.08132E+04
 -8.70891E+03 -1.36444E+04 -6.76797E+02 -1.84628E+04  8.26871E+03 -2.30471E+04  1.53334E+04 -1.35707E+04
  1.15109E+04  5.33782E+03 -9.19104E+03  1.31611E+04 -2.17847E+04 -4.82778E+03 -7.26254E+03 -3.48442E+04
  2.35718E+04 -4.48725E+04  4.91685E+04 -1.95299E+04  4.61962E+04  2.00923E+04  1.61442E+04  4.51588E+04
 -1.70757E+04  3.45657E+04 -2.61520E+04  2.33716E+03 -1.05756E+04 -2.84510E+04  2.09674E+04 -3.55379E+04
  4.19790E+04 -9.25474E+03  3.74240E+04  2.40485E+04  1.87179E+04  4.76225E+04 -8.09127E+03  5.13256E+04
 -3.24162E+04  3.50245E+04 -4.36961E+04  1.00750E+04 -4.46120E+04 -1.74025E+04 -2.45039E+04 -3.89292E+04
  7.25003E+03 -3.88993E+04  3.21093E+04 -1.51689E+04  2.92045E+04  1.07990E+04  4.46329E+03  2.00814E+04
 -1.30479E+04  9.25529E+03 -1.13094E+04 -7.60682E+03  5.31974E+03 -1.08878E+04  1.80438E+04  5.48808E+03
  1.41653E+04  2.27529E+04 -5.15281E+03  2.56038E+04 -2.32857E+04  1.31126E+04 -2.92069E+04 -4.43020E+03
 -2.23770E+04 -1.75896E+04 -9.54942E+03 -2.12778E+04  4.34751E+03 -2.09471E+04  1.72053E+04 -1.92191E+04
  2.75767E+04 -1.28479E+04  3.47123E+04  3.93953E+03  2.46011E+04  2.13225E+04  4.37422E+03  3.73680E+04
 -1.85276E+04  3.11114E+04 -2.92337E+04  1.05340E+04 -2.12081E+04 -1.04885E+04 -5.25183E+03 -1.25167E+04
  1.66843E+03 -1.88372E+03 -5.99884E+03  7.29709E+03 -1.70041E+04  5.17066E+03 -1.78605E+04 -7.58748E+03
 -1.05512E+04 -2.09609E+04  5.30137E+03 -2.47023E+04  1.60096E+04 -1.74952E+04  1.95812E+04 -1.16983E+03
  1.23499E+04  1.44757E+04 -1.19264E+03  2.02931E+04 -1.40368E+04  1.19015E+04 -2.03672E+04 -4.88754E+03
 -1.50384E+04 -1.81534E+04 -1.96352E+03 -2.49122E+04  1.09466E+04 -2.03594E+04  2.04811E+04 -1.04324E+04
  1.83092E+04  2.52717E+02  1.38163E+04  4.89228E+03  7.53036E+03  1.05602E+03  1.01841E+04 -1.60669E+03
  1.85700E+04  3.39301E+03  2.12323E+04  1.57570E+04  1.40582E+04  3.22450E+04 -3.29942E+03  3.65600E+04
 -2.08596E+04  2.99672E+04 -3.49445E+04  1.62249E+04 -3.68576E+04 -2.33410E+03 -3.03956E+04 -2.15639E+04
 -1.20650E+04 -3.05021E+04  1.05773E+04 -2.72446E+04  2.41246E+04 -1.36890E+04  2.00251E+04  6.37068E+03
  7.94570E+03  1.62183E+04 -9.88984E+03  1.39310E+04 -1.83273E+04  3.14736E+03 -1.30196E+04 -1.08750E+04
 -5.70876E+02 -1.61740E+04  8.16968E+03 -1.21721E+04  1.11038E+04 -8.30395E+02  2.85531E+03  7.35593E+03
 -7.65554E+03  2.84624E+03 -6.78472E+03 -5.56595E+03 -5.21481E+02 -1.43155E+04  1.01585E+04 -1.60619E+04
  1.81232E+04 -8.20233E+03  2.03270E+04  3.23239E+03  1.76407E+04  1.40139E+04  8.52873E+03  2.22813E+04
 -4.00486E+03  2.52947E+04 -1.62220E+04  1.53548E+04 -1.79969E+04  3.49189E+03 -1.26609E+04 -4.66997E+03
 -5.49443E+03 -5.50360E+03 -3.54621E+02  1.27477E+03 -1.97209E+03  3.17127E+03 -5.87738E+03  4.53142E+03
 -1.22119E+04 -9.69190E+02 -1.23612E+04 -9.58239E+03 -4.99923E+03 -1.64374E+04  5.12085E+03 -1.28974E+04
  1.01174E+04 -4.80552E+03  6.79861E+03  3.33827E+03  3.38180E+02  4.59633E+03 -5.56529E+03 -2.01886E+01
 -6.28554E+03 -7.93248E+03 -7.94057E+02 -1.20807E+04  7.09406E+03 -1.29345E+04  1.59534E+04 -6.64125E+03
  1.88310E+04  1.59402E+03  1.35303E+04  1.11461E+04  2.39288E+03  1.48055E+04 -7.57456E+03  1.27916E+04
 -1.04180E+04  3.35511E+03 -5.38266E+03 -2.37280E+03  1.61514E+03 -3.79537E+03  6.64302E+03 -1.35163E+03
  6.12966E+03  5.05031E+03  1.90292E+03  1.04746E+04 -7.00808E+03  9.29047E+03 -1.26775E+04  1.88537E+03
 -8.01679E+03 -6.25054E+03  3.59568E+02 -1.09646E+04  6.49794E+03 -5.17409E+03  6.80977E+03  2.63742E+03
  2.23424E+03  7.01699E+03 -7.05664E+03  8.72629E+03 -9.83417E+03  3.87441E+03 -1.04251E+04 -3.26516E+03
 -6.66371E+03 -1.13330E+04  2.69536E+03 -1.36540E+04  1.17221E+04 -7.77471E+03  1.24565E+04  2.24076E+03
  7.10760E+03  1.04692E+04 -4.51231E+02  1.25379E+04 -8.39789E+03  6.57508E+03 -9.61349E+03 -1.26791E+03
 -9.11539E+03 -7.87817E+03 -2.14050E+03 -8.69980E+03  4.79040E+03 -6.91197E+03  5.71616E+03 -3.41702E+03
  3.56012E+03  9.31994E+02 -7.97695E+02  1.57943E+03 -6.62017E+01 -2.31733E+03  1.84903E+03 -5.10932E+03
  8.20812E+03 -3.82045E+03  1.20694E+04  1.95685E+03  1.14394E+04  7.09211E+03  8.04483E+03  1.52684E+04
 -3.31122E+03  1.70065E+04 -1.51699E+04  1.25891E+04 -1.91459E+04  2.01533E+03 -1.50655E+04 -5.37443E+03
 -7.99197E+03 -1.26770E+04 -6.52096E+01 -1.01528E+04  4.19852E+03 -4.83499E+03  3.47691E+03 -3.77605E+03
  2.31230E+03 -1.95486E+03  3.67054E+03 -2.58875E+03  5.42641E+03 -1.55133E+03  5.79228E+03 -1.24825E+02
  7.87549E+03  1.72090E+03  3.37559E+03  6.55910E+03 -8.23876E+02  7.23254E+03 -8.40596E+03  5.59196E+03
 -1.06187E+04 -1.02669E+03 -5.98369E+03 -7.67127E+03 -7.42613E+02 -1.09058E+04  6.39343E+03 -1.09962E+04
  1.13805E+04 -6.91635E+03  1.36510E+04  2.13765E+03  1.01500E+04  9.84281E+03  1.68754E+03  1.23070E+04
 -5.44392E+03  1.01788E+04 -8.15983E+03  3.10359E+03 -4.85326E+03 -1.81789E+03 -2.22253E+03 -1.57416E+03
 -1.15386E+03  5.75011E+01 -1.23177E+03  2.22960E+03 -4.14689E+03  1.62978E+03 -7.36352E+03 -5.97296E+02
 -5.24262E+03 -7.20115E+03  1.23133E+03 -1.02957E+04  6.75130E+03 -9.53143E+03  9.93692E+03 -2.63843E+03
  1.00921E+04  5.14674E+03  4.19548E+03  8.57412E+03 -2.10290E+03  1.04519E+04 -6.84496E+03  6.20167E+03
 -8.80913E+03  9.43570E+01 -6.98818E+03 -6.21271E+03 -1.19670E+03 -7.84321E+03  3.50364E+03 -5.60304E+03
  6.33491E+03 -1.74884E+03  3.48068E+03  1.41399E+03  1.51782E+03  3.08459E+03  1.34713E+03  1.38642E+03
  2.31775E+03  4.44338E+02  2.96898E+03  1.79305E+03  3.70119E+03  3.63726E+03  3.03073E+03  4.47630E+03
 -2.88958E+03  8.11868E+03 -7.08200E+03  8.58291E+03 -1.00818E+04  2.90768E+03 -9.89691E+03 -3.35818E+03
 -4.66775E+03 -9.49266E+03  1.46255E+03 -1.15992E+04  5.25823E+03 -6.49920E+03  7.77382E+03 -1.84622E+03
  6.13444E+03  4.32457E+03  1.75465E+03  5.65128E+03 -2.35840E+03  3.04390E+03 -4.45953E+03 -1.19045E+03
 -2.38575E+03 -4.04839E+03  2.24894E+03 -3.99902E+03  4.16163E+03 -2.16247E+03  3.89188E+03  1.28758E+03
  1.93596E+03  2.06700E+03  1.55750E+03  1.56968E+03 -1.87293E+02  1.97905E+03  1.91333E+03  1.62090E+01
  1.96004E+03 -1.65620E+01  4.00482E+03  1.69015E+03  2.23557E+03  5.72592E+03 -9.36516E+02  7.17182E+03
 -4.84394E+03  3.80531E+03 -5.87151E+03  1.19597E+03 -5.57001E+03 -1.73060E+03 -2.51141E+03 -3.68461E+03
  7.58887E+02 -3.54329E+03  2.56030E+03 -1.66440E+03  1.82208E+03  2.08082E+03 -1.32887E+03  3.12875E+03
 -4.07820E+03  1.72969E+03 -3.98224E+03 -3.00339E+03 -2.95462E+03 -5.52456E+03  1.37298E+03 -5.03200E+03
  2.64302E+03 -3.23901E+03  3.36924E+03  3.13483E+02  2.65425E+03  1.02438E+03  5.75100E+02  3.27090E+03
 -1.44848E+03  9.38560E+02 -2.71735E+03 -1.64686E+03  1.22787E+03 -3.25699E+03  4.90276E+03 -2.64111E+03
  5.53593E+03  5.72927E+02  6.03841E+03  3.44957E+03  2.21544E+03  5.23580E+03 -2.05756E+03  5.61188E+03
 -4.61211E+03  2.37899E+03 -4.72538E+03 -3.41926E+02 -2.46933E+03 -4.23913E+03  1.33958E+03 -3.55144E+03
  3.64835E+03 -1.17268E+03  3.15278E+03  1.72354E+03  1.24636E+03  3.73575E+03 -3.87464E+02  2.76968E+03
 -1.95188E+03  2.18175E+03 -1.62952E+03  1.20295E+03 -7.33414E+02  5.51985E+02 -1.46718E+03  1.97735E+03
 -1.08786E+03  2.62515E+03 -3.32803E+03  1.44406E+03 -5.88305E+03  2.61270E+01 -6.36382E+03 -3.94152E+03
 -3.44291E+03 -6.99489E+03  2.14540E+03 -9.01707E+03  4.91524E+03 -7.15120E+03  8.69186E+03 -2.81586E+03
  7.85098E+03  1.68756E+03  4.11083E+03  5.48210E+03 -5.58721E+02  5.28482E+03 -2.81624E+03  4.71713E+03
 -3.01146E+03  1.42264E+03 -1.80444E+03 -8.63436E+02 -9.29758E+02 -7.10213E+02 -5.48075E+01 -1.91037E+01
 -1.39369E+03  4.98148E+01 -1.56230E+03 -1.77344E+02  8.25523E+01 -1.19558E+03 -1.01077E+02 -2.25184E+03
  2.58040E+03 -2.36564E+03  3.77723E+03  8.20912E+02  3.43322E+03  2.99054E+03  8.30637E+02  5.51538E+03
 -2.99734E+03  6.46984E+03 -5.14269E+03  4.64036E+03 -6.78889E+03 -7.96565E+02 -5.17211E+03 -4.07859E+03
 -2.80921E+03 -5.38467E+03  1.51076E+03 -5.63665E+03  3.55435E+03 -2.69930E+03  3.34471E+03  1.23980E+01
  2.05678E+03  2.49535E+03 -5.10608E+02  1.70704E+03 -6.35740E+02  4.31667E+02  4.02017E+01 -9.90730E+02
  1.84001E+03 -1.12442E+03  1.50464E+03  6.50180E+02  1.11306E+03  2.10857E+03  1.31719E+03  2.80211E+03
 -2.45973E+03  2.36640E+03 -4.28744E+03 -1.35536E+02 -3.92394E+03 -2.87239E+03 -2.27887E+02 -4.25731E+03
  2.39235E+03 -3.74988E+03  4.53081E+03 -5.59833E+02  4.43528E+03  4.08608E+01  2.81706E+03  3.78217E+03
  6.38436E+02  3.63862E+03 -1.33792E+03  3.01850E+03 -2.36204E+03  1.51691E+03 -1.74469E+03  7.99617E+02
 -1.17023E+03  2.74430E+02 -1.20574E+03  8.45544E+02 -2.27351E+03  3.23746E+02 -2.94699E+03 -5.47355E+02
 -2.71843E+03 -1.49500E+03 -5.77348E+02 -4.27643E+03  1.80929E+03 -4.37362E+03  2.60855E+03 -1.61086E+03
  4.37406E+03  6.56105E+02  2.19587E+03  2.45639E+03  8.80620E+01  3.92121E+03 -3.11955E+03  1.92810E+03
