 $NMID ID='MM_0lb_SNR400_11hz_g45_44.RAW', FMTDAT='(8E13.5)'
 TRAMP=1., VOLUME=1. $END
  3.10353E+05  5.99522E+02  3.37877E+05  2.50833E+05  8.43273E+04  3.38550E+05 -1.32379E+05  2.51706E+05
 -1.91344E+05  8.38327E+04 -1.12358E+05 -3.31125E+04  8.56076E+02 -5.08204E+04  5.43108E+04 -2.45673E+02
  3.59163E+04  5.20089E+04 -1.65399E+04  7.60219E+04 -6.11134E+04  6.45404E+04 -8.44050E+04  3.26683E+04
 -8.10682E+04 -1.11195E+04 -5.76861E+04 -5.12713E+04 -1.53248E+04 -7.04697E+04  2.76272E+04 -4.60244E+04
  4.01413E+04  4.19583E+03  1.61199E+04  4.76324E+04 -3.51932E+04  4.77302E+04 -6.71671E+04  2.21691E+02
 -5.38241E+04 -5.70983E+04 -7.71805E+03 -7.88977E+04  3.47599E+04 -5.62531E+04  4.83983E+04 -1.70505E+04
  4.43507E+04  1.14330E+04  3.24428E+04  2.61891E+04  1.57010E+04  2.96304E+04 -5.78107E+03  2.70151E+04
 -2.22726E+04  1.21772E+04 -1.86787E+04 -4.92141E+03  5.94499E+03 -7.36084E+03  2.23754E+04  1.28316E+04
  7.12999E+03  3.60099E+04 -3.20836E+04  3.68147E+04 -6.44848E+04  1.65471E+03 -5.80345E+04 -4.39438E+04
 -1.31569E+04 -6.37497E+04  3.99409E+04 -4.64014E+04  5.93368E+04 -2.54837E+03  3.49002E+04  3.29657E+04
 -5.90097E+03  3.79521E+04 -3.05462E+04  1.66479E+04 -3.14729E+04 -3.65101E+03 -1.76108E+04 -1.10425E+04
 -8.31013E+03 -1.42623E+04 -1.31553E+03 -1.87616E+04  7.95792E+03 -2.37083E+04  1.53383E+04 -1.27045E+04
  1.10791E+04  5.33898E+03 -9.67593E+03  1.32639E+04 -2.16744E+04 -5.72638E+03 -9.01767E+03 -3.52831E+04
  2.41330E+04 -4.60680E+04  4.97128E+04 -2.08949E+04  4.69521E+04  1.99445E+04  1.63238E+04  4.62435E+04
 -1.73547E+04  3.56864E+04 -2.62200E+04  2.39875E+03 -1.07236E+04 -2.84835E+04  2.09655E+04 -3.59499E+04
  4.27120E+04 -1.06815E+04  3.82334E+04  2.37718E+04  2.03548E+04  4.87333E+04 -8.50091E+03  5.39551E+04
 -3.31934E+04  3.61665E+04 -4.43967E+04  1.01748E+04 -4.53038E+04 -1.74875E+04 -2.41564E+04 -3.96019E+04
  8.57895E+03 -4.00992E+04  3.32310E+04 -1.63970E+04  3.07625E+04  1.04849E+04  4.52162E+03  1.99719E+04
 -1.34332E+04  8.62940E+03 -1.09710E+04 -7.29297E+03  5.48717E+03 -1.11867E+04  1.81281E+04  6.71228E+03
  1.32685E+04  2.23486E+04 -5.78480E+03  2.59054E+04 -2.31556E+04  1.30688E+04 -2.98228E+04 -4.18683E+03
 -2.26987E+04 -1.71617E+04 -9.78849E+03 -2.27522E+04  4.50214E+03 -2.22913E+04  1.73829E+04 -2.01006E+04
  2.90066E+04 -1.30174E+04  3.49127E+04  3.82811E+03  2.55686E+04  2.29554E+04  5.13403E+03  3.83733E+04
 -1.91783E+04  3.22188E+04 -2.87394E+04  1.12816E+04 -2.19462E+04 -1.03466E+04 -4.62902E+03 -1.33443E+04
  9.35256E+02 -1.99522E+03 -5.94561E+03  7.52068E+03 -1.85528E+04  5.18228E+03 -1.84591E+04 -7.85895E+03
 -1.09408E+04 -2.13017E+04  5.80134E+03 -2.56734E+04  1.68802E+04 -1.82145E+04  2.04888E+04 -1.42205E+03
  1.26540E+04  1.49695E+04 -7.43350E+02  2.12220E+04 -1.50550E+04  1.18700E+04 -2.15366E+04 -4.54335E+03
 -1.54953E+04 -1.86677E+04 -1.82570E+03 -2.55732E+04  1.13773E+04 -2.11890E+04  2.12863E+04 -1.02738E+04
  1.97145E+04 -3.07093E+02  1.46707E+04  5.30716E+03  7.64061E+03  1.92835E+03  1.09090E+04 -1.85882E+03
  2.00704E+04  3.01975E+03  2.26470E+04  1.67744E+04  1.44377E+04  3.34447E+04 -2.85321E+03  3.91510E+04
 -2.31784E+04  3.18640E+04 -3.63113E+04  1.67208E+04 -3.88491E+04 -2.61391E+03 -3.17969E+04 -2.26217E+04
 -1.31360E+04 -3.17620E+04  1.18293E+04 -2.79189E+04  2.38068E+04 -1.37825E+04  2.16662E+04  6.70902E+03
  7.91914E+03  1.67202E+04 -1.03236E+04  1.42210E+04 -1.78341E+04  3.13627E+03 -1.35281E+04 -1.14447E+04
 -3.75893E+02 -1.72948E+04  9.10136E+03 -1.24879E+04  1.18384E+04 -1.60988E+03  2.69021E+03  7.21098E+03
 -8.26514E+03  3.02671E+03 -7.60462E+03 -6.46239E+03 -1.24197E+03 -1.54770E+04  1.10827E+04 -1.68637E+04
  2.01810E+04 -8.59394E+03  2.18565E+04  2.94600E+03  1.95631E+04  1.56970E+04  9.21788E+03  2.43722E+04
 -4.47499E+03  2.63777E+04 -1.76858E+04  1.66041E+04 -1.90664E+04  3.18006E+03 -1.29086E+04 -4.74482E+03
 -5.71933E+03 -6.24967E+03 -8.87463E+02  1.09064E+03 -2.87941E+03  3.26535E+03 -6.14519E+03  4.56629E+03
 -1.25525E+04 -3.05147E+02 -1.28444E+04 -9.45007E+03 -4.68917E+03 -1.69217E+04  5.55777E+03 -1.28531E+04
  1.17120E+04 -5.15330E+03  7.88111E+03  3.35091E+03  3.09621E+02  5.14038E+03 -6.48246E+03 -7.67634E+01
 -5.90803E+03 -8.39617E+03 -1.35097E+03 -1.28484E+04  8.14858E+03 -1.36289E+04  1.67982E+04 -7.06911E+03
  1.94198E+04  1.56949E+03  1.35310E+04  1.22615E+04  2.75143E+03  1.55653E+04 -8.34879E+03  1.32809E+04
 -1.08512E+04  4.12615E+03 -5.74251E+03 -2.83594E+03  1.48443E+03 -3.89262E+03  6.44784E+03 -1.26049E+03
  5.80275E+03  5.90713E+03  1.35306E+03  1.09956E+04 -7.63768E+03  1.04120E+04 -1.25945E+04  2.62487E+03
 -9.80854E+03 -6.82080E+03  6.07684E+01 -1.13391E+04  7.18209E+03 -6.13485E+03  7.73867E+03  2.60406E+03
  1.45628E+03  7.89982E+03 -6.65580E+03  9.92406E+03 -1.05171E+04  4.91675E+03 -1.16076E+04 -4.18506E+03
 -6.46231E+03 -1.27320E+04  3.28706E+03 -1.41172E+04  1.25165E+04 -9.50116E+03  1.34041E+04  2.50885E+03
  8.29990E+03  1.04892E+04 -8.46964E+02  1.38691E+04 -1.04201E+04  7.29109E+03 -1.02251E+04 -7.44799E+02
 -9.48579E+03 -8.90054E+03 -1.41124E+03 -9.75039E+03  4.35311E+03 -8.82642E+03  6.53879E+03 -3.75762E+03
  4.96070E+03  1.05263E+03 -2.77014E+02  1.82795E+03 -8.65021E+02 -2.27997E+03  1.83989E+03 -5.85770E+03
  8.85656E+03 -3.35502E+03  1.23989E+04  1.05780E+03  1.27776E+04  9.03883E+03  8.86606E+03  1.67931E+04
 -4.11103E+03  1.88869E+04 -1.64892E+04  1.48104E+04 -2.02137E+04  2.74729E+03 -1.66872E+04 -6.66861E+03
 -8.89784E+03 -1.39853E+04 -8.43345E+01 -1.19563E+04  3.99509E+03 -5.97351E+03  3.94054E+03 -3.76289E+03
  2.60791E+03 -2.60523E+03  3.78221E+03 -3.47782E+03  4.52471E+03 -2.79512E+03  6.51459E+03  4.85596E+02
  8.46537E+03  2.44085E+03  3.57089E+03  7.53699E+03 -1.89253E+03  7.79598E+03 -8.93863E+03  6.58752E+03
 -1.20909E+04 -1.42627E+03 -7.21128E+03 -8.11296E+03 -1.46414E+02 -1.20695E+04  6.96669E+03 -1.24405E+04
  1.29265E+04 -7.13307E+03  1.46254E+04  1.79767E+03  9.64798E+03  1.10317E+04  1.69814E+03  1.35344E+04
 -5.65833E+03  1.14909E+04 -7.36240E+03  3.84398E+03 -5.16093E+03 -1.52948E+03 -2.08836E+03 -2.03144E+03
 -1.52167E+03 -6.91981E+02 -9.38127E+02  2.87776E+03 -4.23021E+03  1.58343E+03 -8.00295E+03 -1.29854E+03
 -5.31007E+03 -8.23926E+03  1.16113E+03 -1.12216E+04  6.63010E+03 -1.07658E+04  1.08558E+04 -3.42782E+03
  1.18420E+04  5.74455E+03  4.89238E+03  1.00175E+04 -2.29507E+03  1.10222E+04 -7.66163E+03  7.25164E+03
 -1.06795E+04  9.89769E+02 -8.02132E+03 -7.10148E+03 -3.20554E+02 -9.80196E+03  4.92772E+03 -6.67931E+03
  7.10212E+03 -2.59563E+03  4.28890E+03  2.53296E+03  1.57854E+03  3.29340E+03  5.09162E+02  2.19420E+03
  2.64243E+03  9.56488E+02  2.62126E+03  1.92251E+03  2.99798E+03  3.97242E+03  2.40113E+03  6.16377E+03
 -2.39969E+03  8.28192E+03 -7.21155E+03  9.33440E+03 -1.14947E+04  2.26429E+03 -1.19903E+04 -4.68395E+03
 -5.68933E+03 -1.15380E+04  1.62359E+03 -1.23487E+04  6.45649E+03 -7.84193E+03  9.00101E+03 -2.76962E+03
  7.79863E+03  4.89381E+03  1.48761E+03  6.48257E+03 -2.97755E+03  4.23021E+03 -4.63229E+03 -6.58965E+02
 -1.88341E+03 -4.67643E+03  2.87517E+03 -5.19718E+03  5.28358E+03 -2.67644E+03  4.57877E+03  1.29290E+03
  2.82255E+03  2.29214E+03  1.33076E+03  1.52373E+03 -6.49281E+02  1.77625E+03  1.26748E+03 -3.28541E+02
  1.18112E+03 -8.01622E+02  4.69914E+03  2.31500E+03  2.36768E+03  6.13725E+03 -5.56934E+02  7.81559E+03
 -5.06134E+03  5.39203E+03 -6.66535E+03  5.56397E+02 -6.18029E+03 -3.00001E+03 -2.18525E+03 -3.59015E+03
  1.21444E+03 -3.96189E+03  3.13684E+03 -2.08581E+03  2.63636E+03  2.11616E+03 -1.42841E+03  4.17867E+03
 -5.29817E+03  2.09051E+03 -4.94871E+03 -3.19666E+03 -3.37955E+03 -6.81615E+03  1.69002E+03 -6.07594E+03
  3.00899E+03 -3.72492E+03  4.66378E+03 -1.40522E+01  3.83069E+03  1.51335E+03  8.36058E+02  3.13249E+03
 -2.68099E+03  1.60916E+03 -2.37925E+03 -2.51971E+03  1.20108E+03 -4.72413E+03  6.01962E+03 -4.05919E+03
  7.13230E+03 -2.70692E+02  7.43163E+03  4.99343E+03  1.96901E+03  6.92765E+03 -2.69100E+03  6.73148E+03
 -5.87765E+03  2.56247E+03 -5.44203E+03 -1.64960E+03 -2.82616E+03 -4.23359E+03  7.91643E+02 -4.00709E+03
  4.41654E+03 -1.71669E+03  3.60181E+03  2.16742E+03  6.96641E+02  3.65486E+03 -7.20159E+02  3.29337E+03
 -1.78313E+03  2.29917E+03 -1.51046E+03  5.04579E+02 -3.80657E+02  1.39456E+03 -8.87459E+02  1.44028E+03
 -1.35875E+03  3.31301E+03 -5.37728E+03  1.95036E+03 -7.39156E+03  4.91449E+02 -8.15874E+03 -4.62082E+03
 -3.94488E+03 -9.03918E+03  2.80747E+03 -1.08691E+04  5.89953E+03 -8.44316E+03  1.05817E+04 -3.29326E+03
  8.50251E+03  1.73794E+03  6.03863E+03  7.08192E+03  1.83222E+02  7.32725E+03 -2.70850E+03  4.94201E+03
 -3.73787E+03  2.40883E+03 -3.22129E+03 -1.16853E+03 -1.36363E+03 -3.72817E+02 -4.56590E+02 -3.45742E+02
 -1.48843E+03  2.02140E+02 -1.82930E+03 -1.03417E+03 -4.43046E+02 -1.78865E+03  4.04390E+02 -3.11963E+03
  3.16454E+03 -2.00789E+03  3.92280E+03  2.64534E+02  5.63326E+03  2.94624E+03  1.86523E+03  6.92477E+03
 -3.37557E+03  7.97600E+03 -8.08415E+03  4.68219E+03 -9.23086E+03 -4.49631E+02 -6.54418E+03 -4.80610E+03
 -2.58536E+03 -7.14243E+03  1.82191E+03 -6.54342E+03  3.58397E+03 -3.46089E+03  5.04059E+03  2.28705E+02
  1.84923E+03  2.63709E+03 -7.42889E+02  1.64970E+03 -1.30333E+03  1.01332E+02 -4.12675E+02 -1.61901E+03
  1.84172E+03 -9.08896E+02  2.24439E+03  1.11105E+03  1.98475E+03  2.57840E+03  7.66453E+02  2.86994E+03
 -3.87366E+03  2.33921E+03 -4.36078E+03  6.39074E+01 -4.09247E+03 -2.88470E+03 -8.71834E+02 -5.39753E+03
  3.64102E+03 -4.73157E+03  5.07813E+03 -1.08625E+03  5.37647E+03  1.10637E+03  3.23353E+03  4.41761E+03
  3.48249E+02  4.68453E+03 -2.20413E+03  3.27272E+03 -2.57278E+03  1.81608E+03 -2.47826E+03  7.52692E+02
 -1.70836E+03  1.69156E+02 -1.28134E+03  2.10442E+02 -2.50949E+03  7.40459E+02 -3.53996E+03 -1.21352E+03
 -3.37915E+03 -1.37026E+03 -1.67064E+03 -4.76507E+03  3.19503E+03 -4.83127E+03  4.30655E+03 -2.33877E+03
  4.50163E+03  4.48494E+02  2.38572E+03  2.44460E+03 -6.43667E+01  4.27165E+03 -3.34194E+03  2.41310E+03
