 $NMID ID='MM_0lb_SNR400_16hz_g45_68.RAW', FMTDAT='(8E13.5)'
 TRAMP=1., VOLUME=1. $END
  3.09024E+05  8.65245E+01  3.37250E+05  2.50521E+05  8.40384E+04  3.37817E+05 -1.32676E+05  2.50434E+05
 -1.89580E+05  8.33457E+04 -1.11396E+05 -3.19974E+04  1.11813E+03 -5.00099E+04  5.36391E+04 -2.54944E+02
  3.48310E+04  5.28305E+04 -1.66470E+04  7.49591E+04 -6.01804E+04  6.30443E+04 -8.35504E+04  3.19322E+04
 -7.98757E+04 -1.13169E+04 -5.63995E+04 -4.98380E+04 -1.49492E+04 -6.90748E+04  2.66096E+04 -4.51607E+04
  3.95006E+04  3.97376E+03  1.61951E+04  4.76808E+04 -3.36200E+04  4.69314E+04 -6.61194E+04 -2.97199E+02
 -5.25334E+04 -5.62143E+04 -6.16100E+03 -7.56846E+04  3.35517E+04 -5.39251E+04  4.67808E+04 -1.67316E+04
  4.24062E+04  1.12948E+04  3.15498E+04  2.47437E+04  1.55256E+04  2.79035E+04 -4.73282E+03  2.68561E+04
 -2.18323E+04  1.23787E+04 -1.95654E+04 -4.64676E+03  4.25614E+03 -7.50919E+03  2.24308E+04  1.18425E+04
  7.81266E+03  3.44587E+04 -3.16242E+04  3.46036E+04 -6.20934E+04  1.88446E+03 -5.63302E+04 -4.25870E+04
 -1.24599E+04 -6.15686E+04  3.92368E+04 -4.43169E+04  5.69114E+04 -1.95269E+03  3.32414E+04  3.09859E+04
 -6.14976E+03  3.42209E+04 -2.92792E+04  1.46510E+04 -2.91366E+04 -4.65821E+03 -1.49941E+04 -1.05558E+04
 -8.11811E+03 -1.23167E+04 -4.70000E+02 -1.66125E+04  7.13988E+03 -2.29164E+04  1.48787E+04 -1.39733E+04
  1.11867E+04  5.01409E+03 -7.61788E+03  1.32960E+04 -1.95951E+04 -3.67050E+03 -8.06818E+03 -3.17484E+04
  2.14946E+04 -4.16945E+04  4.63329E+04 -1.92059E+04  4.37899E+04  1.85872E+04  1.52877E+04  4.29510E+04
 -1.61060E+04  3.17797E+04 -2.40382E+04  1.52633E+03 -9.54583E+03 -2.71555E+04  2.10134E+04 -3.24858E+04
  3.93505E+04 -8.45822E+03  3.29173E+04  2.35336E+04  1.63125E+04  4.46441E+04 -7.79369E+03  4.63959E+04
 -3.00148E+04  3.24359E+04 -3.92820E+04  8.92734E+03 -3.96667E+04 -1.63269E+04 -2.20126E+04 -3.56782E+04
  6.85270E+03 -3.60930E+04  3.04679E+04 -1.38368E+04  2.82300E+04  1.09315E+04  3.77988E+03  1.85265E+04
 -1.33001E+04  7.30327E+03 -9.24750E+03 -7.78063E+03  6.10218E+03 -1.06978E+04  1.75583E+04  6.58086E+03
  1.29212E+04  2.22534E+04 -6.44482E+03  2.42527E+04 -2.21359E+04  9.93783E+03 -2.67421E+04 -6.05175E+03
 -1.84937E+04 -1.72088E+04 -6.46321E+03 -1.88647E+04  3.72529E+03 -1.74094E+04  1.38866E+04 -1.60543E+04
  2.35946E+04 -1.28002E+04  3.05459E+04  2.00799E+03  2.21378E+04  1.78438E+04  4.28065E+03  3.42585E+04
 -1.70111E+04  2.80214E+04 -2.68409E+04  1.05579E+04 -2.01061E+04 -1.05086E+04 -4.11430E+03 -1.37502E+04
  2.29968E+03 -3.45134E+03 -3.76828E+03  5.77924E+03 -1.47314E+04  5.13672E+03 -1.46989E+04 -5.74790E+03
 -8.78177E+03 -1.73039E+04  4.30786E+03 -2.08959E+04  1.37928E+04 -1.50603E+04  1.58055E+04 -1.65847E+03
  1.03500E+04  1.19962E+04 -1.25349E+03  1.74641E+04 -1.14201E+04  9.52749E+03 -1.66979E+04 -4.25619E+03
 -1.23268E+04 -1.53932E+04 -1.22023E+03 -2.07588E+04  9.42523E+03 -1.71477E+04  1.76753E+04 -8.07791E+03
  1.61320E+04  7.35119E+02  1.16385E+04  4.11056E+03  6.35267E+03  9.61021E+02  8.63167E+03 -1.38230E+03
  1.63128E+04  3.16153E+03  1.67377E+04  1.42048E+04  1.10644E+04  2.74884E+04 -2.95347E+03  3.01851E+04
 -1.80517E+04  2.37692E+04 -2.76868E+04  1.14524E+04 -2.87713E+04 -1.96870E+03 -2.41991E+04 -1.63910E+04
 -1.04459E+04 -2.39058E+04  7.99069E+03 -2.17156E+04  1.84779E+04 -1.21148E+04  1.70111E+04  4.57372E+03
  6.93801E+03  1.23736E+04 -7.93515E+03  1.18076E+04 -1.48182E+04  2.77590E+03 -1.14281E+04 -9.02990E+03
 -7.49520E+02 -1.36303E+04  7.02882E+03 -1.07811E+04  9.04083E+03 -9.33033E+02  1.62686E+03  5.85131E+03
 -5.91823E+03  1.49995E+03 -4.87637E+03 -4.57209E+03  8.60222E+02 -1.14706E+04  8.54485E+03 -1.10563E+04
  1.40341E+04 -5.86369E+03  1.46256E+04  2.34875E+03  1.29652E+04  1.12136E+04  5.74389E+03  1.63093E+04
 -2.53576E+03  1.82960E+04 -1.20492E+04  1.23579E+04 -1.34934E+04  3.30511E+03 -9.64245E+03 -2.35345E+03
 -4.85101E+03 -3.78351E+03 -6.52767E+02  1.74192E+03 -2.55558E+03  2.28063E+03 -4.25784E+03  3.92808E+03
 -8.98747E+03 -6.42143E+02 -1.00382E+04 -7.83075E+03 -4.24100E+03 -1.28629E+04  4.18452E+03 -1.02228E+04
  7.98427E+03 -4.44946E+03  6.24386E+03  2.14650E+03  4.73192E+02  3.66049E+03 -4.82306E+03  2.42957E+01
 -4.00294E+03 -5.63081E+03 -8.38170E+02 -8.90256E+03  4.88284E+03 -9.42621E+03  1.24179E+04 -5.32391E+03
  1.39277E+04  4.30327E+02  1.05366E+04  7.50164E+03  2.52411E+03  1.09991E+04 -5.79061E+03  1.00262E+04
 -8.28181E+03  2.91492E+03 -4.56954E+03 -1.61516E+03  1.64292E+03 -1.69073E+03  5.27050E+03 -7.43455E+02
  4.57256E+03  3.77293E+03  1.26902E+03  8.03298E+03 -4.93873E+03  7.33567E+03 -8.65682E+03  1.95923E+03
 -6.20228E+03 -4.39147E+03  4.26714E+02 -7.40063E+03  4.73403E+03 -4.00856E+03  4.72411E+03  1.02956E+03
  5.18670E+02  4.89110E+03 -4.77672E+03  6.10284E+03 -6.40172E+03  2.70636E+03 -5.86211E+03 -6.93339E+02
 -3.26918E+03 -7.92101E+03  1.68753E+03 -9.31284E+03  8.07962E+03 -5.68103E+03  7.91557E+03  9.39103E+02
  6.10154E+03  6.46331E+03 -2.40921E+02  9.05052E+03 -5.69462E+03  5.05095E+03 -6.82353E+03 -4.90041E+02
 -6.41978E+03 -6.28448E+03 -1.97683E+03 -5.89550E+03  3.67029E+03 -5.37212E+03  3.87562E+03 -2.89885E+03
  3.35107E+03  1.23812E+03 -1.64093E+02  1.14127E+03  1.78893E+02 -3.06498E+02  4.71096E+01 -2.71694E+03
  4.60382E+03 -1.44964E+03  6.81191E+03  6.85567E+02  8.12033E+03  4.28328E+03  6.78724E+03  9.44998E+03
 -2.17198E+03  1.12115E+04 -9.89252E+03  8.30088E+03 -1.25792E+04  1.56899E+03 -9.68339E+03 -3.48993E+03
 -5.74382E+03 -8.29548E+03  3.12982E+01 -6.71249E+03  2.80200E+03 -3.04021E+03  2.49761E+03 -2.78887E+03
  1.39952E+03 -1.19689E+03  2.03642E+03 -2.53563E+03  4.44862E+03 -1.96244E+03  4.48808E+03  4.26209E+02
  5.15228E+03  1.60842E+03  2.14888E+03  5.01951E+03 -1.78330E+03  4.31624E+03 -5.09070E+03  3.37560E+03
 -6.85928E+03 -1.36839E+03 -2.86184E+03 -4.65155E+03 -2.28898E+02 -6.79687E+03  3.80980E+03 -6.91717E+03
  6.78203E+03 -4.24410E+03  8.55244E+03  7.60986E+02  5.86698E+03  6.52051E+03  1.69071E+03  7.86665E+03
 -3.15344E+03  7.82979E+03 -4.36770E+03  2.98353E+03 -2.67984E+03 -1.19023E+03 -6.29264E+02 -3.47225E+02
 -5.76031E+02  2.34397E+02 -5.19499E+02  2.31388E+03 -3.23887E+03  1.60091E+03 -5.00540E+03 -4.48793E+02
 -2.51097E+03 -5.32476E+03  9.32002E+02 -6.58326E+03  3.92002E+03 -6.00334E+03  5.24014E+03 -2.03209E+03
  5.34385E+03  2.87602E+03  2.56202E+03  4.52965E+03 -7.00003E+02  6.34764E+03 -3.63579E+03  3.75517E+03
 -5.68802E+03  4.48393E+02 -4.44790E+03 -3.41617E+03 -4.72677E+02 -5.04623E+03  1.70871E+03 -3.23398E+03
  3.60532E+03 -1.30892E+03  2.46085E+03  1.11812E+03  8.12854E+02  2.13979E+03  9.90161E+02  7.10690E+02
  1.93512E+03  7.66886E+02  1.43934E+03  2.98035E+02  8.18251E+02  2.89069E+03  2.24449E+03  2.93444E+03
 -1.74247E+03  4.05313E+03 -3.47313E+03  5.64117E+03 -4.89050E+03  2.04550E+03 -5.94609E+03 -1.14861E+03
 -2.51656E+03 -5.13346E+03  7.60944E+02 -7.18291E+03  3.19265E+03 -3.65289E+03  4.84396E+03 -1.15640E+03
  3.62429E+03  2.54176E+03  3.94546E+01  2.92495E+03 -1.49232E+03  2.24298E+03 -1.59904E+03 -3.38827E+02
 -8.71104E+02 -1.96012E+03  9.71053E+02 -2.03065E+03  2.20773E+03 -1.68068E+03  2.06551E+03  7.29933E+02
  1.31120E+03  8.39152E+02  8.41833E+02  1.75329E+02 -4.25025E+02  9.73960E+02  1.50284E+03 -4.79984E+02
  6.37444E+02 -3.61055E+02  2.18404E+03  1.34315E+03  7.01568E+02  3.13397E+03 -7.02460E+02  3.48107E+03
 -2.54982E+03  1.66330E+03 -3.07159E+03  5.00217E+02 -3.14632E+03 -1.64105E+03 -2.24009E+02 -1.73239E+03
  9.12700E+02 -1.76422E+03  1.24459E+03 -1.27387E+03  3.55142E+02  1.81621E+03 -5.50119E+02  1.88185E+03
 -2.09471E+03  7.91212E+02 -2.16835E+03 -1.43874E+03 -1.27225E+03 -2.81388E+03 -2.49198E+02 -2.04775E+03
  1.30375E+03 -8.06840E+02  1.94577E+03 -1.28348E+02  1.75956E+03  2.46233E+02  1.63312E+02  9.01465E+02
 -9.88653E+02  3.86210E+02 -1.33990E+03 -1.95860E+02  9.42577E+02 -1.31551E+03  2.90667E+03 -1.64813E+03
  2.12678E+03  3.12738E+02  3.83529E+03  1.06629E+03  9.99279E+02  3.36748E+03 -7.22401E+02  2.50079E+03
 -2.27346E+03  3.62546E+02 -2.48231E+03 -2.54822E+02 -9.89518E+02 -2.33775E+03  7.48282E+02 -2.01241E+03
  2.03185E+03 -1.02421E+03  1.20177E+03  7.66839E+02  3.40397E+01  2.34552E+03  1.47735E+02  1.97214E+03
 -1.77129E+03  1.05957E+03 -9.17288E+02 -1.73943E+02  4.68151E+01  1.77375E+02 -5.21898E+02  1.13005E+03
 -7.66789E+02  2.12676E+03 -3.01813E+03  9.21757E+02 -2.79469E+03  2.61777E+02 -3.56790E+03 -1.46856E+03
 -2.06408E+03 -3.83399E+03  6.49741E+02 -4.64359E+03  2.20552E+03 -3.92269E+03  4.15262E+03 -9.29302E+02
  3.91633E+03  4.69581E+02  1.72389E+03  2.66614E+03 -4.01921E+02  3.18734E+03 -9.11115E+02  2.58569E+03
 -1.66590E+03  1.17980E+03 -6.74887E+02 -9.20866E+01 -4.50413E+02  4.36564E+02 -3.89258E+02 -8.60328E+01
 -1.46521E+03  9.99915E+01 -1.36406E+03 -3.35820E+02  1.90747E+02 -6.77793E+02  1.86874E+02 -1.85154E+03
  1.23043E+03 -4.91141E+02  8.70625E+02 -1.91810E+02  2.07807E+03  1.34646E+03 -3.08935E+02  2.21344E+03
 -1.59446E+03  3.66704E+03 -2.63547E+03  1.66759E+03 -2.68946E+03 -1.71141E+02 -2.22020E+03 -2.31584E+03
 -1.24395E+03 -2.47107E+03  6.03518E+02 -2.11589E+03  1.14936E+03 -1.34595E+03  1.59520E+03  2.85102E+02
  1.08595E+03  6.95865E+02  5.36712E+02  5.60501E+02 -4.04394E+02  2.68208E+02 -3.58661E+02 -3.19741E+02
  5.40506E+02 -1.07592E+02  1.20177E+03  9.75188E+02  6.14446E+02  7.09588E+02  2.71827E+01  7.10797E+02
 -5.53803E+02  8.78655E+02 -1.37145E+03  3.17654E+02 -9.30460E+02 -3.47609E+02 -5.66642E+01 -1.87648E+03
  9.07825E+02 -1.07347E+03  1.63470E+03  9.09272E+01  1.45064E+03 -4.84278E+02  8.29362E+02  1.39307E+03
  8.78337E+02  1.40591E+03 -5.85793E+02  8.77199E+02 -1.02795E+03  9.76948E+02 -1.20597E+03 -4.53113E+02
 -4.89527E+02 -7.98062E+01 -5.66233E+02  2.65522E+02 -1.09105E+03  6.62603E+02 -1.52352E+03 -3.25640E+02
 -1.85365E+03 -3.73036E+02 -3.28864E+02 -1.18365E+03  8.12394E+02 -2.21777E+03  1.33733E+03 -5.16296E+02
  1.50195E+03 -3.49403E+02  4.80962E+02  1.09929E+03 -8.03441E+02  1.10132E+03 -5.75765E+02  1.71022E+03
