 $NMID ID='MM_0lb_SNR400_17hz_g40_67.RAW', FMTDAT='(8E13.5)'
 TRAMP=1., VOLUME=1. $END
  3.09723E+05 -1.51636E+02  3.37326E+05  2.50747E+05  8.44770E+04  3.37374E+05 -1.32251E+05  2.50269E+05
 -1.89311E+05  8.24568E+04 -1.10933E+05 -3.28610E+04  6.61889E+02 -4.98525E+04  5.45610E+04  4.38853E+02
  3.49524E+04  5.28630E+04 -1.71054E+04  7.49927E+04 -6.01189E+04  6.25994E+04 -8.26589E+04  3.16395E+04
 -7.96672E+04 -1.05589E+04 -5.62333E+04 -5.05585E+04 -1.48220E+04 -6.84919E+04  2.66455E+04 -4.46373E+04
  3.85323E+04  3.95590E+03  1.49133E+04  4.68814E+04 -3.41872E+04  4.57511E+04 -6.55833E+04 -6.37591E+02
 -5.19527E+04 -5.55717E+04 -6.39519E+03 -7.51611E+04  3.31924E+04 -5.34975E+04  4.61388E+04 -1.57201E+04
  4.14691E+04  1.18113E+04  3.08258E+04  2.43457E+04  1.59439E+04  2.80657E+04 -5.00339E+03  2.68470E+04
 -2.12415E+04  1.29301E+04 -1.88446E+04 -4.43849E+03  4.23991E+03 -7.07970E+03  2.14412E+04  1.11042E+04
  6.83519E+03  3.34819E+04 -3.14312E+04  3.37931E+04 -6.12602E+04  2.01394E+03 -5.57938E+04 -4.14231E+04
 -1.23462E+04 -6.12848E+04  3.82499E+04 -4.31844E+04  5.57211E+04 -1.96734E+03  3.24787E+04  3.05633E+04
 -6.32416E+03  3.30937E+04 -2.84026E+04  1.33753E+04 -2.79679E+04 -5.43534E+03 -1.45448E+04 -9.53328E+03
 -7.18220E+03 -1.09093E+04 -1.48970E+03 -1.66937E+04  7.67673E+03 -2.22287E+04  1.48410E+04 -1.43324E+04
  1.22585E+04  3.99648E+03 -6.42711E+03  1.26150E+04 -1.94048E+04 -2.50648E+03 -7.90710E+03 -3.02541E+04
  2.08937E+04 -4.08117E+04  4.50565E+04 -1.85351E+04  4.27392E+04  1.77277E+04  1.42439E+04  4.21005E+04
 -1.51113E+04  3.11233E+04 -2.31491E+04  1.36385E+03 -8.81921E+03 -2.63763E+04  2.08954E+04 -3.17090E+04
  3.84035E+04 -7.58678E+03  3.14091E+04  2.27176E+04  1.60272E+04  4.27152E+04 -7.58350E+03  4.58331E+04
 -2.89640E+04  3.02070E+04 -3.80824E+04  7.71421E+03 -3.89501E+04 -1.47695E+04 -2.15939E+04 -3.50136E+04
  6.74971E+03 -3.44883E+04  2.95117E+04 -1.29119E+04  2.68817E+04  1.06772E+04  2.66068E+03  1.77116E+04
 -1.35678E+04  7.42642E+03 -9.94834E+03 -7.45721E+03  6.24312E+03 -1.07562E+04  1.74598E+04  7.19593E+03
  1.20361E+04  2.15978E+04 -6.73794E+03  2.37090E+04 -2.15129E+04  9.65249E+03 -2.50959E+04 -5.94485E+03
 -1.68836E+04 -1.64776E+04 -6.11877E+03 -1.72734E+04  3.73238E+03 -1.52589E+04  1.28857E+04 -1.45109E+04
  2.11936E+04 -1.20423E+04  2.92646E+04  1.04572E+03  2.13854E+04  1.67331E+04  4.03490E+03  3.32942E+04
 -1.62739E+04  2.78484E+04 -2.58146E+04  9.99388E+03 -2.02175E+04 -1.02387E+04 -3.78992E+03 -1.39729E+04
  2.57764E+03 -4.46964E+03 -3.12660E+03  5.19918E+03 -1.33718E+04  4.98482E+03 -1.37649E+04 -5.45159E+03
 -8.93359E+03 -1.61338E+04  4.64916E+03 -1.95641E+04  1.32432E+04 -1.43168E+04  1.50545E+04 -1.31880E+03
  9.34860E+03  1.10916E+04 -9.79625E+02  1.64497E+04 -1.06187E+04  9.48168E+03 -1.60855E+04 -3.79447E+03
 -1.17035E+04 -1.48893E+04 -1.49336E+03 -1.90419E+04  8.81960E+03 -1.60302E+04  1.68644E+04 -7.46074E+03
  1.52004E+04  1.09376E+03  1.13263E+04  3.82668E+03  5.47729E+03  5.55411E+02  7.85908E+03 -1.37651E+03
  1.36528E+04  2.55143E+03  1.54271E+04  1.32624E+04  9.84811E+03  2.53865E+04 -3.19139E+03  2.78816E+04
 -1.64433E+04  2.18866E+04 -2.56865E+04  9.99372E+03 -2.54896E+04 -1.97809E+03 -2.25383E+04 -1.49711E+04
 -1.02733E+04 -2.17865E+04  7.59290E+03 -1.96446E+04  1.74267E+04 -1.14985E+04  1.61047E+04  3.48616E+03
  6.10975E+03  1.20545E+04 -7.48093E+03  1.09895E+04 -1.29787E+04  2.82309E+03 -1.04287E+04 -8.41906E+03
 -5.89595E+02 -1.29785E+04  6.33391E+03 -1.02968E+04  7.87514E+03 -1.07334E+03  1.16172E+03  5.30249E+03
 -6.15759E+03  1.13586E+03 -4.22015E+03 -4.69538E+03  1.04032E+03 -1.04933E+04  8.07401E+03 -1.06723E+04
  1.31662E+04 -5.33056E+03  1.28249E+04  2.57963E+03  1.13064E+04  1.03168E+04  5.10792E+03  1.51989E+04
 -1.59316E+03  1.73782E+04 -1.10394E+04  1.12548E+04 -1.21129E+04  3.00391E+03 -9.11362E+03 -1.97347E+03
 -5.07168E+03 -3.52463E+03 -1.01755E+03  1.24325E+03 -2.12070E+03  2.30428E+03 -3.51106E+03  3.45377E+03
 -8.66874E+03 -7.95360E+02 -8.95893E+03 -7.63643E+03 -3.59345E+03 -1.21163E+04  3.62032E+03 -8.93694E+03
  7.61619E+03 -3.87478E+03  5.83244E+03  2.18985E+03  6.06243E+02  3.18747E+03 -4.30861E+03 -2.88229E+02
 -3.61833E+03 -5.56237E+03 -6.99046E+02 -8.16262E+03  4.49076E+03 -9.05120E+03  1.11673E+04 -4.57333E+03
  1.21455E+04  8.00054E+02  9.79564E+03  6.77260E+03  1.76728E+03  8.88975E+03 -5.46648E+03  9.07667E+03
 -6.99626E+03  3.01797E+03 -4.16711E+03 -1.02201E+03  1.26693E+03 -1.62318E+03  5.59034E+03 -1.11219E+03
  3.69040E+03  3.50678E+03  1.44055E+03  6.54668E+03 -4.91174E+03  7.27644E+03 -8.65121E+03  2.53899E+03
 -5.52814E+03 -4.01134E+03 -9.02347E+01 -7.35544E+03  4.02407E+03 -3.88673E+03  3.81520E+03  1.27228E+03
  4.14664E+02  3.76308E+03 -4.47609E+03  5.15623E+03 -5.83864E+03  2.90858E+03 -5.23390E+03 -1.55926E+03
 -3.47454E+03 -6.90053E+03  1.30304E+03 -7.68252E+03  6.12002E+03 -5.04489E+03  7.38471E+03  9.67475E+02
  5.51847E+03  5.69518E+03 -8.24390E+00  7.92728E+03 -5.72055E+03  4.20807E+03 -5.99021E+03 -6.38318E+02
 -5.94638E+03 -5.76967E+03 -1.71592E+03 -5.72359E+03  2.59592E+03 -5.10763E+03  3.04951E+03 -2.73090E+03
  2.80773E+03  3.06233E+02  1.47216E+02  1.73284E+03  3.25859E+02 -1.21105E+03  3.52442E+02 -2.54857E+03
  4.28036E+03 -1.14645E+03  5.95676E+03  9.69679E+02  6.54583E+03  3.55629E+03  6.11827E+03  7.88856E+03
 -1.38912E+03  9.69270E+03 -8.39108E+03  7.26596E+03 -1.07756E+04  1.84711E+03 -8.78153E+03 -3.22498E+03
 -5.09428E+03 -7.36763E+03  7.30710E+00 -5.15658E+03  2.38405E+03 -2.50558E+03  2.58004E+03 -2.64878E+03
  1.34430E+03 -1.73680E+03  2.38237E+03 -2.23517E+03  3.39510E+03 -1.48845E+03  3.84706E+03 -1.50380E+02
  4.88350E+03  1.13399E+03  1.50089E+03  3.93042E+03 -1.76474E+03  3.17526E+03 -5.58740E+03  2.85314E+03
 -5.36700E+03 -1.19196E+03 -2.42799E+03 -3.41759E+03  8.79342E+02 -6.20844E+03  3.82746E+03 -5.79814E+03
  6.00088E+03 -3.64315E+03  7.87373E+03  8.07922E+02  5.91105E+03  4.30796E+03  6.81438E+02  7.21681E+03
 -2.27089E+03  6.98080E+03 -3.52442E+03  2.23698E+03 -2.47238E+03 -1.33067E+03 -3.28869E+02 -1.12453E+03
 -3.19173E+02 -8.21465E+01 -7.98076E+02  2.08694E+03 -2.64699E+03  1.77310E+03 -4.44896E+03 -7.88922E+02
 -1.85268E+03 -5.07031E+03  7.16815E+02 -5.47463E+03  3.01999E+03 -4.83846E+03  4.30805E+03 -1.38919E+03
  5.01225E+03  2.90175E+03  2.67706E+03  3.76214E+03 -1.18598E+03  5.24254E+03 -3.53984E+03  2.64271E+03
 -4.36148E+03  6.71028E+02 -4.61633E+03 -2.87135E+03 -2.77336E+02 -4.20442E+03  1.87427E+03 -3.11354E+03
  2.81801E+03 -1.64118E+03  1.94496E+03  7.21050E+02  4.97633E+02  2.20357E+03  6.46926E+02  7.78474E+02
  2.03864E+03  7.34671E+02  8.55854E+02  6.94493E+02  1.00507E+03  2.16319E+03  1.94628E+03  1.92186E+03
 -1.16603E+03  3.56583E+03 -3.57124E+03  4.49696E+03 -3.86191E+03  1.65122E+03 -5.00864E+03 -1.44259E+03
 -1.97988E+03 -4.78625E+03  7.47505E+02 -5.42834E+03  2.41064E+03 -2.93314E+03  3.43030E+03 -9.89653E+02
  2.91074E+03  1.59734E+03  5.00721E+02  2.41290E+03 -8.26388E+02  1.75242E+03 -1.42870E+03 -2.96571E+02
 -4.81007E+02 -1.54991E+03  1.55659E+03 -1.95260E+03  1.94470E+03 -6.43409E+02  1.54087E+03  6.86387E+02
  6.14179E+02  5.97303E+02  7.84203E+02  1.15080E+02 -5.00705E+02  9.54154E+02  1.57559E+03  3.41016E+01
  6.93788E+02 -6.99104E+02  2.03756E+03  7.76369E+02  9.02088E+02  2.97627E+03 -4.54484E+02  3.63682E+03
 -2.38741E+03  1.30279E+03 -2.02143E+03  1.23542E+03 -3.15553E+03 -9.32844E+02 -7.42636E+02 -1.51333E+03
  7.66979E+01 -1.67947E+03  1.00221E+03 -5.19345E+02  9.36160E+02  1.76371E+03 -2.19507E+02  1.00054E+03
 -1.61285E+03  1.24137E+03 -1.09227E+03 -2.16216E+03 -9.41898E+02 -2.62904E+03  4.35699E+02 -2.28071E+03
  8.93041E+02 -9.55250E+02  1.17199E+03  9.96891E+01  1.46238E+03 -1.48538E+02  3.51850E+02  1.80105E+03
 -3.37166E+02 -2.26392E+02 -1.73916E+03 -5.94653E+02  1.24066E+03 -9.15656E+02  2.26599E+03 -6.22172E+02
  1.45447E+03  2.58358E+02  3.18281E+03  9.93489E+02  1.02625E+03  1.89168E+03 -6.17733E+02  2.46992E+03
 -1.78195E+03  4.75031E+02 -2.06032E+03 -1.04051E+02 -1.19330E+03 -2.24144E+03 -2.35051E+02 -7.66457E+02
  1.51707E+03 -7.80682E+02  6.20073E+02  1.10799E+03  1.46743E+02  1.63625E+03  2.70742E+02  1.23306E+03
 -4.87738E+02  1.25542E+03 -9.30409E+02  4.08773E+02  4.19116E+02  5.40487E+02 -7.12710E+02  2.63702E+02
 -1.30186E+03  7.36445E+02 -2.30550E+03  5.84458E+02 -2.16782E+03  1.76655E+02 -2.37824E+03 -8.11950E+02
 -1.52250E+03 -2.92087E+03  5.93000E+02 -3.28566E+03  1.79094E+03 -2.96868E+03  3.64168E+03 -1.07517E+03
  3.44582E+03  7.47534E+02  1.36421E+03  1.78314E+03 -4.85696E+02  1.39594E+03 -9.73588E+02  1.86805E+03
 -1.60263E+03  9.68375E+02 -3.29365E+02 -2.57421E+01 -1.07622E+03  1.75154E+02 -8.45964E+02  2.58359E+02
 -1.63121E+03  1.63267E+02 -8.67349E+02  2.90093E+02  5.91932E+02 -1.13050E+03 -2.71139E+02 -1.45297E+03
  1.74929E+03 -3.85149E+02  5.14619E+02  4.80807E+02  1.83052E+03  9.46387E+02 -7.47298E+01  1.77133E+03
 -1.23424E+03  2.59606E+03 -3.01156E+03  1.24016E+03 -2.84424E+03 -1.21658E+02 -1.90052E+03 -1.65503E+03
 -9.84565E+02 -2.18500E+03  3.26838E+02 -1.53962E+03  9.41738E+02 -8.84705E+02  1.19606E+03  2.17633E+02
  1.41834E+03  4.71638E+02  2.93721E+02  8.36116E+02 -6.10739E+02  1.55278E+02  8.91122E+01 -6.96664E+02
  8.34172E+02  8.45627E+01  4.16729E+02  7.63911E+02  4.67387E+02  1.80645E+02  1.47682E+02  3.01657E+02
 -9.71786E+02  1.37217E+03 -1.26192E+03  4.50567E+02 -1.46811E+03 -7.74967E+01  2.32761E+02 -1.99896E+03
  4.54733E+02 -1.15376E+03  1.15594E+03 -2.68917E+02  1.10736E+03 -6.06674E+02  1.06220E+03  1.26615E+03
  5.14477E+02  1.45779E+03 -5.51333E+02  8.68260E+02 -1.15876E+03  4.14749E+02 -2.61386E+02  1.26807E+02
 -7.20263E+02 -1.01540E+02 -5.79710E+02  2.07667E+02 -7.56773E+02  1.62655E+02 -9.64766E+02 -2.19211E+02
 -1.33070E+03  2.70872E+02 -1.01811E+03 -1.89829E+03  1.06526E+03 -1.99320E+03  8.13673E+02 -5.85930E+02
  9.80004E+02  5.42802E+02 -1.19963E+02  7.77477E+02 -2.84323E+02  1.27006E+03 -7.51374E+02  1.30885E+03
