 $NMID ID='MM_0lb_SNR400_8hz_g50_14.RAW', FMTDAT='(8E13.5)'
 TRAMP=1., VOLUME=1. $END
  3.09842E+05 -5.64758E+02  3.38066E+05  2.51336E+05  8.48386E+04  3.38846E+05 -1.32503E+05  2.52478E+05
 -1.91273E+05  8.39751E+04 -1.12577E+05 -3.24656E+04  4.78267E+02 -5.07456E+04  5.45152E+04  6.79733E+01
  3.53641E+04  5.26200E+04 -1.71652E+04  7.67154E+04 -6.12499E+04  6.41305E+04 -8.53165E+04  3.26281E+04
 -8.26695E+04 -1.22310E+04 -5.89049E+04 -5.33919E+04 -1.49281E+04 -7.09564E+04  2.86854E+04 -4.64996E+04
  4.16772E+04  3.45595E+03  1.74353E+04  4.97994E+04 -3.44046E+04  4.87369E+04 -6.79197E+04  7.66787E+02
 -5.51297E+04 -5.78377E+04 -7.04257E+03 -7.83220E+04  3.46685E+04 -5.76424E+04  4.95798E+04 -1.80521E+04
  4.55723E+04  1.18315E+04  3.26569E+04  2.63069E+04  1.57517E+04  3.03972E+04 -5.23024E+03  2.79633E+04
 -2.27889E+04  1.16119E+04 -1.81651E+04 -5.21930E+03  7.21122E+03 -7.89042E+03  2.42334E+04  1.46794E+04
  6.33812E+03  3.75635E+04 -3.39753E+04  3.72073E+04 -6.60006E+04  2.56495E+03 -5.95470E+04 -4.41869E+04
 -1.27553E+04 -6.63424E+04  4.17076E+04 -4.80084E+04  6.19746E+04 -3.17261E+03  3.65943E+04  3.53075E+04
 -5.90422E+03  3.89938E+04 -3.23435E+04  1.88414E+04 -3.34339E+04 -2.62176E+03 -1.91267E+04 -1.17832E+04
 -9.18747E+03 -1.49597E+04 -3.22128E+02 -1.98381E+04  8.26153E+03 -2.32552E+04  1.69385E+04 -1.15327E+04
  1.04801E+04  6.19040E+03 -1.10013E+04  1.24209E+04 -2.46585E+04 -6.93137E+03 -9.45418E+03 -3.74584E+04
  2.56422E+04 -4.82250E+04  5.29012E+04 -2.16176E+04  4.92373E+04  2.04917E+04  1.73559E+04  4.80637E+04
 -1.70074E+04  3.70685E+04 -2.74480E+04  2.99468E+03 -1.19003E+04 -2.96685E+04  2.15771E+04 -3.68894E+04
  4.55952E+04 -1.19184E+04  4.21914E+04  2.51326E+04  2.12333E+04  5.19446E+04 -8.58398E+03  5.72478E+04
 -3.63923E+04  3.90836E+04 -4.91872E+04  1.14178E+04 -4.83228E+04 -1.91674E+04 -2.58373E+04 -4.24802E+04
  8.46796E+03 -4.27267E+04  3.47529E+04 -1.71533E+04  3.17453E+04  1.14565E+04  5.36990E+03  2.22152E+04
 -1.35583E+04  1.01332E+04 -1.14110E+04 -8.73976E+03  5.85424E+03 -1.14508E+04  1.86871E+04  5.28193E+03
  1.39921E+04  2.31326E+04 -5.86800E+03  2.78283E+04 -2.38050E+04  1.47130E+04 -3.20024E+04 -2.75743E+03
 -2.59341E+04 -1.88086E+04 -1.24014E+04 -2.62037E+04  5.31254E+03 -2.67208E+04  1.98069E+04 -2.37311E+04
  3.32445E+04 -1.43866E+04  3.89400E+04  5.78106E+03  2.75683E+04  2.47988E+04  4.37016E+03  4.28468E+04
 -1.95745E+04  3.50539E+04 -3.15146E+04  1.19343E+04 -2.24741E+04 -9.93562E+03 -5.12614E+03 -1.32259E+04
  1.36392E+03 -9.17790E+02 -7.44802E+03  8.83236E+03 -2.09752E+04  5.31345E+03 -2.13983E+04 -1.04538E+04
 -1.20750E+04 -2.46926E+04  6.83627E+03 -2.89589E+04  1.94129E+04 -2.05266E+04  2.40309E+04 -1.69529E+03
  1.51315E+04  1.62538E+04 -1.25566E+03  2.48654E+04 -1.70521E+04  1.42273E+04 -2.45766E+04 -4.83713E+03
 -1.71727E+04 -2.16552E+04 -2.41168E+03 -2.97989E+04  1.33117E+04 -2.43875E+04  2.39660E+04 -1.24857E+04
  2.21923E+04  5.10872E+02  1.64863E+04  5.29404E+03  9.47222E+03  1.44015E+03  1.27520E+04 -2.19075E+03
  2.21110E+04  3.03864E+03  2.57981E+04  1.87742E+04  1.85109E+04  4.00902E+04 -2.09009E+03  4.64165E+04
 -2.65912E+04  3.89901E+04 -4.45610E+04  1.98728E+04 -4.71478E+04 -3.11722E+03 -3.78321E+04 -2.68934E+04
 -1.52257E+04 -3.91474E+04  1.52457E+04 -3.36849E+04  2.88938E+04 -1.68871E+04  2.52934E+04  8.49934E+03
  7.74133E+03  1.95218E+04 -1.16763E+04  1.69460E+04 -2.03606E+04  2.96903E+03 -1.59388E+04 -1.34528E+04
 -1.04486E+03 -2.08600E+04  1.12406E+04 -1.53192E+04  1.39218E+04 -7.83203E+02  3.14390E+03  9.02448E+03
 -9.48631E+03  5.01684E+03 -9.44793E+03 -7.79933E+03 -3.04886E+03 -1.89271E+04  1.27875E+04 -2.02936E+04
  2.43306E+04 -1.20525E+04  2.79213E+04  3.48008E+03  2.44747E+04  1.94241E+04  1.16735E+04  3.14370E+04
 -5.97817E+03  3.30698E+04 -2.12822E+04  2.00721E+04 -2.46761E+04  4.24395E+03 -1.58995E+04 -5.82813E+03
 -7.00966E+03 -7.49939E+03 -1.41778E+03  9.99309E+02 -2.62961E+03  3.28197E+03 -7.67287E+03  5.65145E+03
 -1.44083E+04 -1.21814E+03 -1.56672E+04 -1.21396E+04 -6.53187E+03 -2.06529E+04  6.63996E+03 -1.68168E+04
  1.37405E+04 -7.04334E+03  9.10619E+03  3.99908E+03 -7.50804E+02  6.15312E+03 -8.66203E+03 -2.68321E+02
 -7.58192E+03 -1.16381E+04 -1.41422E+03 -1.69256E+04  9.58614E+03 -1.79476E+04  2.04504E+04 -1.04573E+04
  2.60471E+04  2.21407E+03  1.77773E+04  1.53559E+04  3.29005E+03  2.03485E+04 -1.05019E+04  1.64715E+04
 -1.29668E+04  4.70986E+03 -6.28716E+03 -4.09434E+03  2.83875E+03 -5.03904E+03  8.98696E+03 -1.35766E+03
  8.49733E+03  7.18319E+03  1.13406E+03  1.34734E+04 -9.66098E+03  1.34208E+04 -1.67309E+04  3.39877E+03
 -1.22057E+04 -9.68358E+03  1.19801E+02 -1.50654E+04  9.16247E+03 -6.87737E+03  1.05913E+04  3.83529E+03
  3.63903E+03  1.04189E+04 -9.42096E+03  1.30052E+04 -1.51350E+04  5.37458E+03 -1.57732E+04 -4.89166E+03
 -8.61689E+03 -1.71625E+04  4.21079E+03 -1.98630E+04  1.64730E+04 -1.16691E+04  1.87846E+04  3.57688E+03
  1.09550E+04  1.44423E+04 -9.85826E+02  1.72805E+04 -1.24309E+04  9.00650E+03 -1.50320E+04 -5.11801E+02
 -1.07552E+04 -1.09535E+04 -2.05524E+03 -1.38648E+04  6.92669E+03 -1.12098E+04  8.49312E+03 -4.54639E+03
  5.36770E+03  1.54514E+03 -1.93896E+03  2.07866E+03 -1.57870E+03 -4.19225E+03  3.06097E+03 -8.22961E+03
  1.25522E+04 -5.64360E+03  1.84828E+04  2.47349E+03  1.62694E+04  1.21367E+04  1.05824E+04  2.24628E+04
 -5.08268E+03  2.60409E+04 -2.21152E+04  1.99506E+04 -2.84113E+04  3.29813E+03 -2.24602E+04 -1.08361E+04
 -1.16112E+04 -1.88413E+04 -2.65075E+02 -1.66542E+04  6.05816E+03 -8.23243E+03  6.47792E+03 -5.56282E+03
  3.63514E+03 -2.74149E+03  4.61087E+03 -3.84676E+03  6.13304E+03 -3.98412E+03  8.85230E+03 -1.91340E+03
  1.22879E+04  3.33976E+03  7.59545E+03  1.06262E+04 -1.72435E+03  1.27954E+04 -1.17022E+04  1.00582E+04
 -1.67142E+04 -1.73276E+03 -1.17884E+04 -1.07005E+04 -2.64163E+03 -1.76584E+04  1.05715E+04 -1.77688E+04
  1.82383E+04 -1.00496E+04  2.11255E+04  2.88155E+03  1.47570E+04  1.46317E+04  3.30524E+03  1.96261E+04
 -8.30352E+03  1.54013E+04 -1.22306E+04  5.14724E+03 -8.07282E+03 -2.17250E+03 -3.95525E+03 -2.71141E+03
 -2.05450E+03 -6.38665E+01 -2.29451E+03  3.10027E+03 -6.43137E+03  2.60276E+03 -1.13580E+04 -2.37498E+03
 -8.38421E+03 -1.10352E+04 -1.57445E+02 -1.61536E+04  1.07149E+04 -1.47389E+04  1.64728E+04 -5.00605E+03
  1.60383E+04  9.14015E+03  8.14405E+03  1.54992E+04 -2.99211E+03  1.69440E+04 -1.21490E+04  1.09994E+04
 -1.59211E+04  4.70518E+02 -1.16342E+04 -9.44598E+03 -6.54662E+02 -1.33435E+04  7.40177E+03 -1.06766E+04
  1.06966E+04 -2.92847E+03  7.17583E+03  3.46981E+03  2.42032E+03  5.02158E+03  8.50588E+02  2.29447E+03
  2.78967E+03  1.68008E+03  3.93953E+03  2.56838E+03  4.18770E+03  6.26025E+03  4.17906E+03  9.17671E+03
 -3.21996E+03  1.31341E+04 -1.20484E+04  1.26442E+04 -1.82765E+04  3.99490E+03 -1.74944E+04 -7.71994E+03
 -9.45187E+03 -1.61390E+04  1.46123E+03 -1.94662E+04  1.12632E+04 -1.22382E+04  1.47378E+04 -1.88189E+03
  1.02324E+04  6.63936E+03  2.38845E+03  9.53468E+03 -5.42569E+03  6.67642E+03 -7.52666E+03 -1.52293E+03
 -3.04124E+03 -6.68086E+03  4.26135E+03 -8.57015E+03  6.79790E+03 -3.83390E+03  8.17084E+03  1.62766E+03
  3.55032E+03  3.94898E+03  1.62426E+03  3.31709E+03 -1.90536E+03  2.94558E+03  1.93044E+03 -1.18946E+03
  3.15548E+03 -1.32785E+03  7.54307E+03  2.96032E+03  3.87924E+03  8.73514E+03 -7.76754E+02  1.15373E+04
 -8.40170E+03  8.52190E+03 -1.15221E+04  2.00803E+03 -1.00911E+04 -4.40269E+03 -3.56405E+03 -7.24683E+03
  1.55002E+03 -6.58366E+03  4.63629E+03 -3.65313E+03  3.66086E+03  3.07517E+03 -3.62887E+02  5.83360E+03
 -7.61051E+03  2.37624E+03 -8.42511E+03 -4.53150E+03 -5.07450E+03 -9.53884E+03  1.65535E+03 -1.02114E+04
  6.08046E+03 -6.05087E+03  6.88567E+03 -1.74759E+02  5.85217E+03  2.46088E+03  7.56684E+02  5.45118E+03
 -3.92011E+03  1.18661E+03 -4.77370E+03 -3.53210E+03  9.95994E+02 -7.08996E+03  7.85690E+03 -6.71577E+03
  1.05193E+04  1.10829E+03  1.02771E+04  7.71138E+03  3.41022E+03  1.16126E+04 -3.70510E+03  1.06632E+04
 -9.46400E+03  5.61665E+03 -1.05207E+04 -1.02756E+03 -5.84852E+03 -8.12914E+03  1.17638E+03 -7.42963E+03
  6.17193E+03 -2.60599E+03  5.91739E+03  3.70692E+03  1.67357E+03  6.53154E+03 -1.13950E+03  5.82664E+03
 -3.31591E+03  3.78306E+03 -2.51564E+03  1.72918E+03 -1.02550E+03  1.20961E+03 -2.04492E+03  2.48054E+03
 -2.49993E+03  4.38006E+03 -7.40646E+03  4.06321E+03 -1.09717E+04  1.95724E+02 -1.35830E+04 -7.66678E+03
 -7.36901E+03 -1.66100E+04  2.46219E+03 -1.79033E+04  1.22018E+04 -1.34263E+04  1.76205E+04 -5.40938E+03
  1.67413E+04  2.91795E+03  1.04657E+04  1.11227E+04  1.07488E+03  1.28024E+04 -4.98245E+03  9.03556E+03
 -7.34669E+03  3.37451E+03 -4.90932E+03 -1.58092E+03 -9.28584E+02 -5.79246E+02 -1.28039E+03  1.05507E+02
 -2.67362E+03  3.15890E+02 -3.07641E+03 -1.43584E+03 -6.83246E+02 -2.83193E+03  8.08954E+02 -4.55005E+03
  6.30571E+03 -3.39993E+03  8.55567E+03  3.31981E+02  9.11947E+03  7.40924E+03  2.22708E+03  1.23109E+04
 -5.84842E+03  1.39884E+04 -1.41896E+04  8.08635E+03 -1.53960E+04 -1.02087E+03 -1.22686E+04 -9.77210E+03
 -4.78412E+03 -1.30132E+04  3.75814E+03 -1.18092E+04  8.65820E+03 -6.07264E+03  8.46266E+03  1.27877E+03
  4.67550E+03  3.63173E+03  1.85084E+02  3.24872E+03 -2.46448E+03 -5.89447E+02  1.67787E+02 -2.84450E+03
  3.04520E+03 -1.79633E+03  5.21624E+03  2.64503E+03  3.38630E+03  4.69765E+03  1.32847E+01  5.89562E+03
 -4.99155E+03  5.87392E+03 -8.40665E+03  8.13399E+02 -8.10033E+03 -5.40671E+03 -9.15690E+02 -1.16683E+04
  5.95528E+03 -8.87178E+03  1.04615E+04 -3.36211E+03  1.02374E+04  2.00976E+03  4.99031E+03  8.01722E+03
  1.80159E+03  8.57988E+03 -3.83706E+03  7.14497E+03 -5.68453E+03  3.47671E+03 -4.27160E+03  4.85728E+02
 -2.97470E+03 -5.20262E+01 -2.15842E+03  1.72839E+03 -5.02819E+03  8.87293E+02 -6.32249E+03 -1.49942E+03
 -6.50100E+03 -4.83660E+03 -2.41680E+03 -8.61349E+03  3.14241E+03 -9.47767E+03  7.31222E+03 -4.09485E+03
  9.22791E+03  1.40451E+03  4.52709E+03  7.43796E+03 -4.93943E+02  8.03740E+03 -7.22512E+03  6.67214E+03
