 $NMID ID='MM_0lb_SNR400_10hz_g40_24.RAW', FMTDAT='(8E13.5)'
 TRAMP=1., VOLUME=1. $END
  3.10534E+05  2.10451E+02  3.38277E+05  2.50623E+05  8.52853E+04  3.38634E+05 -1.32568E+05  2.51905E+05
 -1.90421E+05  8.35614E+04 -1.12398E+05 -3.23564E+04  2.86768E+02 -5.02228E+04  5.29899E+04 -7.88501E+02
  3.55502E+04  5.26021E+04 -1.65165E+04  7.58312E+04 -6.07084E+04  6.43841E+04 -8.43997E+04  3.22062E+04
 -8.19181E+04 -1.14658E+04 -5.78627E+04 -5.21203E+04 -1.56555E+04 -7.03252E+04  2.80872E+04 -4.64426E+04
  4.05796E+04  3.90673E+03  1.67047E+04  4.83287E+04 -3.37073E+04  4.74035E+04 -6.79349E+04 -7.79112E+01
 -5.41849E+04 -5.74966E+04 -6.84404E+03 -7.73208E+04  3.40377E+04 -5.61459E+04  4.89239E+04 -1.73523E+04
  4.47035E+04  1.14999E+04  3.18121E+04  2.63298E+04  1.54066E+04  2.92907E+04 -5.39589E+03  2.87163E+04
 -2.18793E+04  1.20556E+04 -1.83514E+04 -4.93464E+03  6.36522E+03 -7.99612E+03  2.28172E+04  1.31257E+04
  7.14794E+03  3.61728E+04 -3.30325E+04  3.67394E+04 -6.42391E+04  2.13187E+03 -5.75685E+04 -4.36028E+04
 -1.25426E+04 -6.43040E+04  4.16774E+04 -4.63571E+04  5.99299E+04 -2.67301E+03  3.56675E+04  3.32138E+04
 -5.17544E+03  3.70255E+04 -3.06382E+04  1.87120E+04 -3.23590E+04 -3.82249E+03 -1.84469E+04 -1.13018E+04
 -9.68432E+03 -1.43178E+04 -1.01905E+03 -1.91957E+04  8.41541E+03 -2.32137E+04  1.50808E+04 -1.30662E+04
  1.07755E+04  5.73742E+03 -9.73627E+03  1.27088E+04 -2.24973E+04 -5.91068E+03 -8.58859E+03 -3.61456E+04
  2.38983E+04 -4.57636E+04  5.09442E+04 -2.02267E+04  4.75826E+04  2.06625E+04  1.61878E+04  4.62043E+04
 -1.65329E+04  3.50511E+04 -2.64691E+04  2.72481E+03 -1.08359E+04 -2.81570E+04  2.13964E+04 -3.47060E+04
  4.29980E+04 -9.82543E+03  3.73601E+04  2.44550E+04  2.04608E+04  4.87813E+04 -8.24463E+03  5.37765E+04
 -3.41970E+04  3.60907E+04 -4.54963E+04  1.05937E+04 -4.51202E+04 -1.76161E+04 -2.49226E+04 -3.98168E+04
  7.96774E+03 -4.06357E+04  3.24067E+04 -1.64747E+04  3.10799E+04  1.19010E+04  4.18389E+03  2.01182E+04
 -1.27693E+04  9.04961E+03 -1.08948E+04 -7.01836E+03  5.88424E+03 -1.14634E+04  1.77271E+04  5.54973E+03
  1.38182E+04  2.23466E+04 -5.33882E+03  2.62165E+04 -2.34542E+04  1.28973E+04 -3.00762E+04 -4.16393E+03
 -2.36675E+04 -1.87376E+04 -1.02180E+04 -2.35090E+04  4.67436E+03 -2.31766E+04  1.82827E+04 -2.17187E+04
  2.97465E+04 -1.36163E+04  3.61186E+04  3.83833E+03  2.60170E+04  2.19776E+04  3.83422E+03  3.96684E+04
 -1.91646E+04  3.26477E+04 -2.84885E+04  1.16578E+04 -2.16286E+04 -1.07241E+04 -4.65162E+03 -1.31985E+04
  1.17645E+03 -1.46195E+03 -6.96992E+03  7.59635E+03 -1.87036E+04  5.40196E+03 -1.95899E+04 -8.70472E+03
 -1.06918E+04 -2.16672E+04  5.98378E+03 -2.61515E+04  1.66599E+04 -1.81135E+04  2.03406E+04 -1.67998E+03
  1.29473E+04  1.54094E+04 -1.57972E+03  2.16613E+04 -1.55799E+04  1.21770E+04 -2.16167E+04 -4.02935E+03
 -1.58686E+04 -1.91651E+04 -2.31734E+03 -2.64138E+04  1.15551E+04 -2.17136E+04  2.10995E+04 -1.10015E+04
  1.99603E+04 -4.98324E+02  1.46541E+04  5.19969E+03  7.63481E+03  7.07278E+02  1.14634E+04 -1.69925E+03
  2.00698E+04  2.91779E+03  2.27595E+04  1.64590E+04  1.57482E+04  3.47177E+04 -2.03388E+03  3.99139E+04
 -2.27233E+04  3.31784E+04 -3.80856E+04  1.72345E+04 -4.05299E+04 -3.78083E+03 -3.22118E+04 -2.36924E+04
 -1.36279E+04 -3.31704E+04  1.18474E+04 -2.95471E+04  2.52877E+04 -1.41455E+04  2.25235E+04  7.21277E+03
  7.82104E+03  1.72545E+04 -9.83873E+03  1.46963E+04 -1.93995E+04  3.35213E+03 -1.44508E+04 -1.10071E+04
 -6.90199E+02 -1.70022E+04  9.60298E+03 -1.38622E+04  1.23637E+04 -1.23274E+03  3.27514E+03  7.85689E+03
 -8.01762E+03  3.03808E+03 -7.32890E+03 -6.57344E+03 -1.28593E+03 -1.64165E+04  1.09670E+04 -1.73820E+04
  2.03468E+04 -1.04188E+04  2.23945E+04  2.90275E+03  2.06525E+04  1.63902E+04  9.08581E+03  2.56980E+04
 -4.61140E+03  2.73418E+04 -1.79886E+04  1.68594E+04 -1.96541E+04  2.82410E+03 -1.37549E+04 -4.35460E+03
 -5.01987E+03 -6.75298E+03 -7.55293E+02 -1.11031E+02 -2.59623E+03  2.61532E+03 -6.82219E+03  4.80083E+03
 -1.22193E+04 -1.35377E+02 -1.32567E+04 -1.08934E+04 -5.11352E+03 -1.74010E+04  5.90523E+03 -1.40871E+04
  1.16329E+04 -5.36263E+03  8.86272E+03  3.52272E+03 -6.71564E+02  5.47145E+03 -6.53980E+03  4.56482E+02
 -6.16536E+03 -9.60295E+03 -9.18251E+02 -1.36617E+04  7.85968E+03 -1.48453E+04  1.76054E+04 -8.04128E+03
  2.09526E+04  2.24369E+03  1.41398E+04  1.29645E+04  2.88146E+03  1.63044E+04 -8.85320E+03  1.38192E+04
 -1.17424E+04  4.23489E+03 -6.16010E+03 -3.53108E+03  2.32728E+03 -3.86530E+03  8.15179E+03 -9.25478E+02
  7.16144E+03  6.01904E+03  1.26489E+03  1.08260E+04 -7.60311E+03  1.01294E+04 -1.37614E+04  2.74797E+03
 -9.54075E+03 -7.41827E+03 -3.71578E+02 -1.16535E+04  7.74582E+03 -6.13970E+03  7.60191E+03  3.13740E+03
  1.44931E+03  8.61200E+03 -6.53945E+03  1.00772E+04 -1.10256E+04  4.98786E+03 -1.22200E+04 -4.43078E+03
 -6.81525E+03 -1.41718E+04  3.49693E+03 -1.57735E+04  1.35096E+04 -9.90147E+03  1.47969E+04  2.32919E+03
  8.85171E+03  1.14195E+04 -6.31533E+02  1.36111E+04 -9.54378E+03  8.05675E+03 -1.07380E+04 -5.22631E+02
 -9.81321E+03 -9.32451E+03 -1.63112E+03 -1.05209E+04  5.01293E+03 -9.57189E+03  6.32049E+03 -3.54814E+03
  4.47071E+03  2.37196E+03 -1.54686E+03  1.92307E+03 -5.36296E+02 -4.31839E+03  1.98839E+03 -6.04492E+03
  9.95070E+03 -3.94275E+03  1.41586E+04  1.55420E+03  1.34096E+04  8.29545E+03  9.50302E+03  1.81815E+04
 -3.77069E+03  2.04581E+04 -1.73410E+04  1.52258E+04 -2.26514E+04  2.57489E+03 -1.81033E+04 -7.70643E+03
 -9.18747E+03 -1.54440E+04 -5.64602E+02 -1.25197E+04  3.78186E+03 -6.76028E+03  4.43865E+03 -4.33999E+03
  2.76876E+03 -2.70269E+03  3.69168E+03 -3.86457E+03  5.40896E+03 -3.56294E+03  6.04930E+03 -1.29656E+03
  9.28174E+03  1.35104E+03  5.09191E+03  7.48571E+03 -2.23038E+03  9.89645E+03 -9.84436E+03  7.01133E+03
 -1.25127E+04 -1.18682E+03 -7.64447E+03 -7.81189E+03 -1.29813E+03 -1.27964E+04  8.04685E+03 -1.29219E+04
  1.36299E+04 -7.56598E+03  1.66881E+04  2.75003E+03  1.17838E+04  1.17368E+04  1.40203E+03  1.55191E+04
 -6.50962E+03  1.16529E+04 -8.36193E+03  4.87013E+03 -5.32435E+03 -1.73820E+03 -2.26148E+03 -1.82115E+03
 -1.02231E+03 -1.58034E+02 -1.31135E+03  2.81621E+03 -5.17913E+03  2.06920E+03 -8.84006E+03 -1.35790E+03
 -5.80946E+03 -8.15786E+03  3.13815E+02 -1.29384E+04  7.95769E+03 -1.11674E+04  1.15002E+04 -3.29302E+03
  1.23925E+04  6.03591E+03  5.30320E+03  1.08371E+04 -2.03218E+03  1.25775E+04 -9.23933E+03  7.65143E+03
 -1.18715E+04  7.22570E+02 -9.26965E+03 -7.23608E+03 -4.66412E+02 -1.02240E+04  5.07081E+03 -7.96202E+03
  8.48848E+03 -2.17320E+03  5.07120E+03  2.49171E+03  1.42928E+03  3.56902E+03  1.32970E+03  2.05414E+03
  2.71860E+03  9.38382E+02  2.79456E+03  1.28525E+03  3.46553E+03  4.81770E+03  3.54212E+03  6.72394E+03
 -2.77531E+03  8.90549E+03 -8.69012E+03  1.05648E+04 -1.33123E+04  2.54693E+03 -1.31679E+04 -5.25881E+03
 -5.75713E+03 -1.28800E+04  2.32159E+03 -1.35513E+04  7.00967E+03 -8.60945E+03  1.07042E+04 -2.27562E+03
  7.82240E+03  4.13307E+03  1.86480E+03  7.53657E+03 -3.75660E+03  4.45591E+03 -5.38941E+03 -2.93243E+02
 -2.59044E+03 -5.04518E+03  2.92001E+03 -5.91565E+03  4.74064E+03 -2.58044E+03  5.12424E+03  6.74451E+02
  3.86789E+03  2.75725E+03  1.13949E+03  1.93499E+03 -6.30569E+02  1.50375E+03  1.21277E+03 -5.72685E+02
  9.80033E+02 -7.80159E+02  5.21339E+03  1.72528E+03  2.87411E+03  6.87215E+03 -1.14604E+03  8.22849E+03
 -4.91357E+03  6.01035E+03 -8.01012E+03  1.32923E+03 -6.30921E+03 -2.13987E+03 -2.52882E+03 -4.99393E+03
  2.50544E+02 -5.32402E+03  3.07262E+03 -2.22327E+03  2.83558E+03  2.63779E+03 -6.62622E+02  4.28170E+03
 -5.02042E+03  2.58932E+03 -5.13000E+03 -2.96907E+03 -3.91583E+03 -6.63115E+03  1.00491E+03 -6.66289E+03
  4.27043E+03 -4.27743E+03  4.69785E+03 -9.28979E+02  4.13608E+03  1.83564E+03  4.48465E+02  3.40999E+03
 -2.13128E+03  1.49319E+03 -2.84563E+03 -1.71887E+03  1.66866E+03 -5.26216E+03  6.55443E+03 -3.56695E+03
  7.17109E+03  1.10295E+03  8.30242E+03  5.09866E+03  2.53276E+03  8.19114E+03 -2.89732E+03  6.63394E+03
 -6.62932E+03  3.29863E+03 -7.50351E+03 -1.03818E+02 -4.45625E+03 -4.75772E+03  9.99332E+02 -4.56563E+03
  5.19906E+03 -1.99643E+03  3.59717E+03  2.37814E+03  1.24068E+03  5.11814E+03 -7.29798E+02  3.89439E+03
 -2.31556E+03  2.89898E+03 -1.95275E+03  9.69447E+02 -1.26717E+02  7.33738E+02 -1.37748E+03  2.16217E+03
 -2.80167E+03  2.87314E+03 -5.69384E+03  2.53376E+03 -7.98422E+03  2.67857E+02 -9.10201E+03 -5.18752E+03
 -4.81962E+03 -1.05222E+04  1.15415E+03 -1.23163E+04  7.78470E+03 -9.61623E+03  1.22542E+04 -2.88486E+03
  1.13262E+04  2.13776E+03  6.54876E+03  7.72658E+03  2.17681E+02  8.95514E+03 -3.05310E+03  6.14754E+03
 -4.88507E+03  1.89093E+03 -2.62478E+03 -9.29618E+02 -8.47635E+02 -8.14591E+02 -4.50507E+02  5.60082E+02
 -1.14553E+03  3.70628E+02 -1.18559E+03 -7.06925E+02 -4.53215E+02 -1.96806E+03  9.48954E+01 -3.63266E+03
  3.26737E+03 -2.64712E+03  4.58520E+03 -6.23404E+02  5.57440E+03  4.60255E+03  1.02347E+03  8.47711E+03
 -4.05604E+03  9.72570E+03 -8.44290E+03  5.50931E+03 -1.04989E+04 -3.14397E+02 -7.23945E+03 -6.13575E+03
 -4.03382E+03 -8.04054E+03  1.69692E+03 -7.50226E+03  5.08854E+03 -4.09070E+03  5.03310E+03  4.28444E+02
  2.77191E+03  2.68925E+03  6.50396E+01  2.15780E+03 -1.43650E+03 -5.87398E+02  7.36132E+02 -2.54655E+03
  2.24192E+03 -9.94095E+02  4.27720E+03  1.86562E+03  2.40258E+03  3.21920E+03 -1.45025E+02  3.45717E+03
 -3.42381E+03  2.85296E+03 -5.08425E+03  1.88961E+02 -4.57016E+03 -4.19653E+03 -9.58143E+02 -6.92580E+03
  3.32469E+03 -5.42656E+03  5.95293E+03 -2.21602E+03  6.52152E+03  1.40574E+03  3.82443E+03  4.89333E+03
  7.63115E+02  4.90766E+03 -1.86814E+03  4.44102E+03 -2.59660E+03  2.47996E+03 -2.95897E+03 -1.26894E+02
 -1.38531E+03 -4.32951E+02 -1.59352E+03  4.18996E+02 -2.47277E+03  9.83854E+02 -4.53728E+03 -1.73427E+03
 -3.81137E+03 -3.30508E+03 -1.71947E+03 -4.99080E+03  2.52233E+03 -5.88023E+03  5.10595E+03 -2.70233E+03
  5.13023E+03  5.96735E+02  2.25209E+03  3.82745E+03 -9.62306E+02  6.01571E+03 -4.48001E+03  3.49745E+03
