 $NMID ID='MM_0lb_SNR400_13hz_g55_29.RAW', FMTDAT='(8E13.5)'
 TRAMP=1., VOLUME=1. $END
  3.09869E+05  1.06776E+02  3.38173E+05  2.50933E+05  8.48030E+04  3.38500E+05 -1.31965E+05  2.51134E+05
 -1.89761E+05  8.27516E+04 -1.11947E+05 -3.33694E+04  6.53682E+02 -5.09791E+04  5.34428E+04 -1.17559E+02
  3.54966E+04  5.27796E+04 -1.73283E+04  7.61254E+04 -6.08527E+04  6.40097E+04 -8.45309E+04  3.19436E+04
 -8.12907E+04 -1.15662E+04 -5.77709E+04 -5.19774E+04 -1.53047E+04 -7.05199E+04  2.78951E+04 -4.59202E+04
  4.06230E+04  4.49220E+03  1.61945E+04  4.80892E+04 -3.38904E+04  4.80711E+04 -6.73295E+04 -6.15453E+02
 -5.44786E+04 -5.74804E+04 -6.62651E+03 -7.74187E+04  3.37892E+04 -5.60095E+04  4.83715E+04 -1.78619E+04
  4.41467E+04  1.08273E+04  3.22830E+04  2.53380E+04  1.58577E+04  2.95795E+04 -5.08253E+03  2.72951E+04
 -2.21034E+04  1.24359E+04 -1.88015E+04 -4.94883E+03  6.05780E+03 -6.97737E+03  2.29159E+04  1.31506E+04
  7.40263E+03  3.67590E+04 -3.20765E+04  3.62766E+04 -6.45192E+04  1.67007E+03 -5.74612E+04 -4.38888E+04
 -1.24385E+04 -6.39866E+04  4.03262E+04 -4.61685E+04  5.96012E+04 -2.48654E+03  3.56295E+04  3.33678E+04
 -6.19151E+03  3.67870E+04 -3.03609E+04  1.76796E+04 -3.19057E+04 -4.46126E+03 -1.72615E+04 -1.19284E+04
 -8.73994E+03 -1.38757E+04 -2.97468E+02 -1.84515E+04  7.25550E+03 -2.29364E+04  1.53613E+04 -1.31057E+04
  1.10971E+04  5.26061E+03 -9.16422E+03  1.26756E+04 -2.20046E+04 -5.46040E+03 -7.95911E+03 -3.48131E+04
  2.38932E+04 -4.47995E+04  5.00656E+04 -2.05956E+04  4.63891E+04  1.95648E+04  1.64334E+04  4.59725E+04
 -1.67436E+04  3.43990E+04 -2.64394E+04  1.84057E+03 -1.02734E+04 -2.81418E+04  2.13590E+04 -3.46917E+04
  4.25411E+04 -1.03380E+04  3.74631E+04  2.43679E+04  1.98493E+04  4.78450E+04 -8.13046E+03  5.29983E+04
 -3.27876E+04  3.49412E+04 -4.37609E+04  9.32258E+03 -4.47871E+04 -1.76342E+04 -2.39660E+04 -4.00984E+04
  7.30752E+03 -3.98321E+04  3.25593E+04 -1.54990E+04  2.98391E+04  1.16801E+04  4.81011E+03  1.95851E+04
 -1.30436E+04  8.35188E+03 -1.06428E+04 -7.34386E+03  5.99559E+03 -1.08726E+04  1.86480E+04  5.79373E+03
  1.39963E+04  2.18594E+04 -5.70762E+03  2.60838E+04 -2.26621E+04  1.20864E+04 -2.92156E+04 -3.88417E+03
 -2.25183E+04 -1.78015E+04 -9.34621E+03 -2.20326E+04  4.73409E+03 -2.13083E+04  1.66078E+04 -1.93803E+04
  2.82329E+04 -1.38282E+04  3.41367E+04  3.32552E+03  2.48586E+04  2.10695E+04  3.82308E+03  3.75425E+04
 -1.80484E+04  3.18431E+04 -2.85121E+04  1.00777E+04 -2.15617E+04 -1.02952E+04 -4.62856E+03 -1.30587E+04
  1.60756E+03 -2.43481E+03 -5.90607E+03  7.31848E+03 -1.73568E+04  4.59512E+03 -1.79566E+04 -7.89478E+03
 -1.09341E+04 -1.98790E+04  5.30094E+03 -2.50294E+04  1.70454E+04 -1.73127E+04  1.97397E+04 -2.25901E+03
  1.20106E+04  1.43806E+04 -1.29150E+03  2.08824E+04 -1.44157E+04  1.14937E+04 -2.02069E+04 -3.91722E+03
 -1.49428E+04 -1.82086E+04 -2.19913E+03 -2.43154E+04  1.11649E+04 -2.11045E+04  2.03348E+04 -1.05030E+04
  1.94391E+04  6.60144E+02  1.32953E+04  4.39514E+03  7.15338E+03  1.10022E+03  1.02466E+04 -2.31886E+03
  1.85188E+04  2.64901E+03  2.14904E+04  1.62503E+04  1.44841E+04  3.23439E+04 -2.91764E+03  3.72596E+04
 -2.11565E+04  3.03877E+04 -3.48865E+04  1.52166E+04 -3.69736E+04 -2.52711E+03 -3.00412E+04 -2.11878E+04
 -1.29264E+04 -3.05665E+04  1.06117E+04 -2.73325E+04  2.32224E+04 -1.35561E+04  1.99239E+04  5.98571E+03
  7.84719E+03  1.55397E+04 -1.03586E+04  1.38759E+04 -1.79601E+04  3.08804E+03 -1.31692E+04 -1.09488E+04
  1.97940E+01 -1.67042E+04  9.36310E+03 -1.13249E+04  1.10199E+04 -1.25999E+03  3.30546E+03  7.74813E+03
 -7.14242E+03  2.51917E+03 -7.21269E+03 -6.02513E+03 -1.07063E+03 -1.51147E+04  9.89740E+03 -1.59918E+04
  1.79763E+04 -8.34566E+03  1.96529E+04  2.95439E+03  1.77130E+04  1.50422E+04  7.72593E+03  2.24829E+04
 -4.41815E+03  2.42930E+04 -1.60615E+04  1.50186E+04 -1.74019E+04  2.83324E+03 -1.24779E+04 -4.15858E+03
 -5.42534E+03 -5.20222E+03 -1.59382E+02 -2.70407E+02 -2.34626E+03  3.18629E+03 -5.75479E+03  4.71052E+03
 -1.12915E+04 -1.37592E+03 -1.25178E+04 -9.51785E+03 -4.29742E+03 -1.62896E+04  5.21821E+03 -1.24234E+04
  1.09858E+04 -5.00769E+03  7.63624E+03  3.34064E+03 -3.16169E+02  4.08154E+03 -6.38746E+03 -2.33821E+02
 -5.70983E+03 -7.34871E+03 -9.23908E+02 -1.19938E+04  7.24436E+03 -1.25274E+04  1.55269E+04 -6.47054E+03
  1.82165E+04  1.25111E+03  1.35474E+04  1.04434E+04  2.22281E+03  1.40906E+04 -7.72073E+03  1.23990E+04
 -9.97582E+03  3.47195E+03 -4.88143E+03 -2.36305E+03  1.80195E+03 -3.79093E+03  6.17887E+03 -1.59393E+03
  6.05379E+03  5.31763E+03  1.44714E+03  9.47582E+03 -7.40651E+03  9.92783E+03 -1.18509E+04  2.50256E+03
 -8.62730E+03 -6.53226E+03  6.53768E+02 -1.07335E+04  5.44101E+03 -5.43450E+03  6.39198E+03  2.70222E+03
  9.17109E+02  6.90499E+03 -6.45247E+03  8.37554E+03 -9.76256E+03  3.49735E+03 -9.49412E+03 -3.28250E+03
 -5.74891E+03 -1.16038E+04  3.70466E+03 -1.30697E+04  1.09643E+04 -8.43732E+03  1.28078E+04  1.23762E+03
  7.55869E+03  9.67689E+03 -1.27593E+03  1.12761E+04 -8.04805E+03  6.51613E+03 -9.97844E+03 -4.28047E+02
 -7.93219E+03 -7.69983E+03 -1.81227E+03 -8.17249E+03  4.83489E+03 -7.56369E+03  5.89695E+03 -3.95967E+03
  3.43802E+03  1.49538E+03 -8.58135E+02  1.89837E+03  1.23404E+02 -1.77257E+03  1.34606E+03 -4.82082E+03
  8.68395E+03 -2.97347E+03  1.12933E+04  1.73846E+03  1.13191E+04  6.87837E+03  7.42123E+03  1.46504E+04
 -3.02581E+03  1.67499E+04 -1.42104E+04  1.23849E+04 -1.82077E+04  2.56656E+03 -1.42885E+04 -6.20399E+03
 -7.38250E+03 -1.25107E+04 -9.23783E+01 -9.38327E+03  3.15128E+03 -6.01072E+03  3.73992E+03 -3.25940E+03
  2.51697E+03 -2.31512E+03  3.77943E+03 -3.49073E+03  4.48879E+03 -2.32792E+03  6.32705E+03 -5.49316E+02
  7.64681E+03  1.77328E+03  3.81754E+03  6.66919E+03 -1.11252E+03  6.94694E+03 -7.80259E+03  5.59877E+03
 -1.03082E+04 -8.87675E+02 -5.43346E+03 -6.66688E+03  9.76227E+00 -1.07583E+04  5.81656E+03 -1.06140E+04
  1.10262E+04 -6.11219E+03  1.26305E+04  7.70699E+02  9.61392E+03  9.18426E+03  2.00293E+03  1.15786E+04
 -5.33731E+03  9.86835E+03 -7.21113E+03  2.90955E+03 -4.41448E+03 -1.88276E+03 -1.52126E+03 -1.17619E+03
 -1.00926E+03  7.26465E+02 -2.01357E+03  2.12201E+03 -4.78319E+03  2.26420E+03 -7.17227E+03 -1.09986E+03
 -4.57989E+03 -7.15226E+03  6.74856E+02 -9.99785E+03  6.79605E+03 -8.96022E+03  8.66787E+03 -2.42904E+03
  9.16150E+03  4.72927E+03  4.86070E+03  7.97871E+03 -2.00625E+03  9.40631E+03 -6.16975E+03  5.51264E+03
 -8.46462E+03 -1.24838E+02 -7.29407E+03 -5.32770E+03 -2.72720E+02 -7.20674E+03  4.10470E+03 -5.56582E+03
  6.58425E+03 -2.69142E+03  4.45164E+03  2.14187E+03  2.39910E+02  2.72871E+03  9.62036E+02  1.38601E+03
  2.10164E+03  7.09395E+02  2.77363E+03  1.31390E+03  2.82350E+03  3.61943E+03  2.64412E+03  4.50150E+03
 -1.93438E+03  7.03157E+03 -6.63153E+03  7.86279E+03 -8.77704E+03  2.68441E+03 -9.48239E+03 -3.28993E+03
 -4.06695E+03 -8.80459E+03  8.62215E+02 -1.00431E+04  5.62975E+03 -6.13156E+03  7.73646E+03 -1.78263E+03
  6.24723E+03  3.50946E+03  1.03371E+03  4.91829E+03 -2.50947E+03  2.73573E+03 -3.36965E+03 -4.67793E+02
 -1.18417E+03 -3.68473E+03  2.72908E+03 -4.34071E+03  3.69068E+03 -2.39555E+03  4.03787E+03  7.32444E+02
  1.87712E+03  2.11276E+03  1.00725E+03  1.07323E+03 -8.47780E+02  1.59709E+03  1.92069E+03 -5.65639E+02
  1.41239E+03 -6.13702E+02  3.70083E+03  8.66824E+02  1.63054E+03  4.51381E+03 -1.14175E+03  6.76012E+03
 -4.16562E+03  4.02378E+03 -5.57326E+03  1.50919E+03 -5.01367E+03 -1.60587E+03 -1.13676E+03 -3.65208E+03
  5.45805E+01 -3.45531E+03  1.81996E+03 -1.13947E+03  1.15399E+03  2.27844E+03 -1.14205E+03  3.27780E+03
 -3.70948E+03  1.46509E+03 -3.97436E+03 -2.34592E+03 -1.80617E+03 -5.31384E+03  1.22351E+02 -4.48656E+03
  2.93854E+03 -2.78708E+03  2.39399E+03 -3.23633E+02  2.67726E+03  7.40888E+02  2.34112E+02  1.95889E+03
 -1.99345E+03  7.37574E+02 -2.10672E+03 -1.79576E+03 -1.28401E+02 -2.85892E+03  3.75020E+03 -2.49461E+03
  5.36263E+03  1.00134E+03  5.67048E+03  2.71157E+03  2.28051E+03  4.76869E+03 -1.67128E+03  5.57159E+03
 -4.41052E+03  2.63850E+03 -4.28833E+03 -1.03308E+03 -2.26234E+03 -3.65907E+03  4.29926E+02 -2.92470E+03
  3.67353E+03 -1.34165E+03  1.85369E+03  1.67890E+03  1.17364E+03  2.49262E+03 -4.72294E+02  3.11714E+03
 -9.35345E+02  1.28558E+03 -9.25124E+02  3.57982E+02 -9.20269E+02  1.50296E+03 -1.27481E+02  1.00928E+03
 -1.12356E+03  2.16862E+03 -4.27343E+03  1.64149E+03 -5.29916E+03 -1.41587E+02 -5.72571E+03 -3.65420E+03
 -3.20350E+03 -6.49730E+03  1.40280E+03 -8.02628E+03  4.16964E+03 -6.10279E+03  7.17580E+03 -2.43290E+03
  6.87372E+03  1.56654E+03  4.39730E+03  4.37060E+03 -1.20228E+02  4.86358E+03 -1.96525E+03  4.80484E+03
 -3.24152E+03  1.77120E+03 -2.00646E+03  6.54045E+01 -9.47003E+02 -6.79094E+02 -1.74938E+02  8.68066E+01
 -1.45339E+03  1.90389E+01 -1.93417E+03 -1.32946E+02 -6.64629E+02 -1.56697E+03  2.50013E+02 -2.08232E+03
  2.54201E+03 -1.77255E+03  2.58685E+03 -2.95435E+02  4.28523E+03  2.81341E+03  3.77821E+02  5.61738E+03
 -2.32673E+03  5.37971E+03 -5.26331E+03  3.52407E+03 -6.33325E+03 -7.91798E+02 -4.29545E+03 -3.59551E+03
 -2.63555E+03 -4.95378E+03  1.06349E+03 -4.36069E+03  2.41062E+03 -2.11801E+03  2.71299E+03  7.15989E+01
  2.12806E+03  1.28353E+03 -1.43913E+02  2.08858E+03 -7.80670E+02  3.06130E+02  6.18233E+02 -4.38070E+02
  1.73820E+03 -7.67235E+02  1.60343E+03  9.45379E+02  9.37197E+02  1.86118E+03  6.60462E+02  2.71820E+03
 -2.00745E+03  1.96082E+03 -3.38000E+03 -2.04793E+02 -3.11929E+03 -2.13431E+03  3.03514E+02 -4.11855E+03
  2.31658E+03 -3.28789E+03  2.67368E+03 -4.03364E+02  3.11701E+03  1.60292E+00  1.94309E+03  2.17759E+03
  1.00666E+03  2.66055E+03 -7.86721E+02  1.72872E+03 -2.55096E+03  1.42519E+03 -1.93848E+03  1.13279E+02
 -1.13118E+03  1.99233E+02 -9.59986E+02  5.96304E+02 -1.86127E+03  2.23656E+02 -2.49628E+03 -1.06655E+03
 -2.63230E+03 -1.29828E+03 -1.16635E+03 -3.26391E+03  1.50078E+03 -4.11109E+03  3.13867E+03 -1.60770E+03
  3.43005E+03  1.10425E+03  1.20284E+03  1.86557E+03 -4.31025E+02  2.25238E+03 -2.47404E+03  2.25864E+03
