 $NMID ID='MM_0lb_SNR400_16hz_g40_90.RAW', FMTDAT='(8E13.5)'
 TRAMP=1., VOLUME=1. $END
  3.09772E+05  5.35507E+02  3.37216E+05  2.50709E+05  8.39653E+04  3.37698E+05 -1.33108E+05  2.50188E+05
 -1.88942E+05  8.27536E+04 -1.11302E+05 -3.28542E+04  1.34187E+03 -4.98786E+04  5.34294E+04 -2.12581E+02
  3.48644E+04  5.24836E+04 -1.67518E+04  7.45608E+04 -6.08905E+04  6.34261E+04 -8.33360E+04  3.16408E+04
 -8.02614E+04 -1.06429E+04 -5.65232E+04 -5.08527E+04 -1.46133E+04 -6.85317E+04  2.65004E+04 -4.51818E+04
  3.90461E+04  4.30931E+03  1.57063E+04  4.75662E+04 -3.44608E+04  4.68385E+04 -6.52382E+04 -3.78775E+02
 -5.21457E+04 -5.59987E+04 -6.39168E+03 -7.54612E+04  3.30075E+04 -5.34124E+04  4.63802E+04 -1.66291E+04
  4.17570E+04  1.12523E+04  3.11178E+04  2.46363E+04  1.61425E+04  2.87381E+04 -4.87184E+03  2.71661E+04
 -2.17337E+04  1.22727E+04 -1.88609E+04 -4.59439E+03  4.66651E+03 -8.11219E+03  2.15239E+04  1.15459E+04
  7.77346E+03  3.38984E+04 -3.12491E+04  3.40037E+04 -6.16899E+04  2.58282E+03 -5.57043E+04 -4.15655E+04
 -1.22716E+04 -6.14489E+04  3.86351E+04 -4.45647E+04  5.65522E+04 -2.11398E+03  3.20799E+04  3.10035E+04
 -6.73477E+03  3.44067E+04 -2.83813E+04  1.38379E+04 -2.83015E+04 -4.83962E+03 -1.57467E+04 -1.09461E+04
 -7.41790E+03 -1.16682E+04 -8.26669E+02 -1.75278E+04  6.91766E+03 -2.24712E+04  1.51711E+04 -1.37324E+04
  1.28395E+04  4.68422E+03 -6.66157E+03  1.33618E+04 -2.01910E+04 -2.91535E+03 -8.21949E+03 -3.07132E+04
  2.10911E+04 -4.08900E+04  4.54171E+04 -1.90830E+04  4.34983E+04  1.85010E+04  1.46480E+04  4.28449E+04
 -1.59721E+04  3.15218E+04 -2.45598E+04  1.36354E+03 -9.09412E+03 -2.73112E+04  2.06456E+04 -3.18785E+04
  3.88765E+04 -7.77587E+03  3.20144E+04  2.26623E+04  1.59882E+04  4.38527E+04 -8.49714E+03  4.70957E+04
 -2.97496E+04  3.14935E+04 -3.89480E+04  8.94031E+03 -3.97433E+04 -1.54690E+04 -2.23136E+04 -3.57799E+04
  7.02844E+03 -3.60287E+04  3.03937E+04 -1.31533E+04  2.85132E+04  1.08846E+04  3.46728E+03  1.81208E+04
 -1.31963E+04  8.06313E+03 -9.31605E+03 -7.61140E+03  5.94780E+03 -1.07836E+04  1.72227E+04  6.71163E+03
  1.24829E+04  2.18320E+04 -6.63447E+03  2.40423E+04 -2.17016E+04  9.89326E+03 -2.61465E+04 -5.88905E+03
 -1.78150E+04 -1.63341E+04 -6.51868E+03 -1.75503E+04  4.09483E+03 -1.60695E+04  1.37832E+04 -1.53945E+04
  2.27865E+04 -1.20455E+04  2.94668E+04  1.80506E+03  2.21471E+04  1.76296E+04  4.13561E+03  3.39929E+04
 -1.70478E+04  2.90377E+04 -2.70185E+04  9.76371E+03 -2.05470E+04 -1.06421E+04 -3.96412E+03 -1.38113E+04
  2.38773E+03 -3.39115E+03 -3.42960E+03  5.58307E+03 -1.37210E+04  5.97324E+03 -1.41758E+04 -6.26605E+03
 -9.00190E+03 -1.63460E+04  4.90243E+03 -2.10564E+04  1.34139E+04 -1.45287E+04  1.57889E+04 -1.67330E+03
  1.00455E+04  1.12003E+04 -1.34923E+03  1.66914E+04 -1.15750E+04  9.30859E+03 -1.67828E+04 -3.75900E+03
 -1.29876E+04 -1.52565E+04 -1.63604E+03 -2.04182E+04  8.63943E+03 -1.63125E+04  1.73303E+04 -8.14566E+03
  1.56344E+04  3.57356E+02  1.17307E+04  4.16191E+03  5.64502E+03  7.03311E+02  7.94179E+03 -1.67947E+03
  1.53391E+04  2.69248E+03  1.69843E+04  1.37103E+04  1.06143E+04  2.67483E+04 -3.36593E+03  2.94746E+04
 -1.70304E+04  2.32383E+04 -2.76780E+04  1.03855E+04 -2.77714E+04 -2.66553E+03 -2.41599E+04 -1.62620E+04
 -1.11298E+04 -2.27503E+04  7.77820E+03 -2.08749E+04  1.80231E+04 -1.18280E+04  1.66612E+04  4.85816E+03
  7.34150E+03  1.22950E+04 -7.74277E+03  1.13459E+04 -1.43873E+04  2.43409E+03 -1.11440E+04 -9.26428E+03
 -8.49583E+01 -1.36733E+04  6.75828E+03 -1.03557E+04  8.91332E+03 -1.45512E+03  1.80697E+03  5.14576E+03
 -6.29140E+03  1.42588E+03 -4.99406E+03 -5.21664E+03 -1.88275E+02 -1.14135E+04  7.71304E+03 -1.15286E+04
  1.38902E+04 -5.46476E+03  1.46111E+04  2.70036E+03  1.14743E+04  1.10061E+04  6.38966E+03  1.53477E+04
 -1.84474E+03  1.82719E+04 -1.16346E+04  1.18625E+04 -1.25820E+04  3.25226E+03 -9.79083E+03 -2.66911E+03
 -4.77522E+03 -3.53041E+03 -1.31936E+03  6.11561E+02 -2.08401E+03  2.09686E+03 -4.13129E+03  3.82692E+03
 -8.44080E+03 -6.72480E+02 -9.86609E+03 -7.78236E+03 -3.38269E+03 -1.28162E+04  3.90262E+03 -9.53035E+03
  7.98043E+03 -3.90238E+03  5.90293E+03  2.72657E+03  3.08299E+02  3.36377E+03 -4.11629E+03 -2.93715E+02
 -4.82966E+03 -6.45260E+03 -8.85241E+02 -8.45478E+03  4.60268E+03 -9.40072E+03  1.12884E+04 -4.46562E+03
  1.35177E+04  8.49907E+02  9.92771E+03  7.22260E+03  2.07273E+03  1.05619E+04 -5.64648E+03  9.28538E+03
 -7.68880E+03  3.01878E+03 -4.24786E+03 -1.95687E+03  1.22599E+03 -2.62107E+03  4.66026E+03 -1.27721E+03
  4.92393E+03  4.49525E+03  1.03618E+03  6.91469E+03 -5.63160E+03  7.44387E+03 -9.06295E+03  2.50521E+03
 -5.94668E+03 -4.35845E+03  7.98077E+02 -7.78520E+03  3.94501E+03 -3.52497E+03  4.65013E+03  1.37934E+03
  4.79659E+02  3.78633E+03 -4.74956E+03  6.09791E+03 -6.52419E+03  2.09498E+03 -5.50735E+03 -1.90949E+03
 -3.86842E+03 -7.49208E+03  1.81378E+03 -8.68928E+03  7.28002E+03 -5.58615E+03  8.29021E+03  1.10869E+03
  5.45510E+03  6.65995E+03 -2.65995E+02  8.55161E+03 -6.23983E+03  5.46328E+03 -6.10681E+03 -1.70244E+02
 -6.64196E+03 -6.16012E+03 -1.36925E+03 -5.80157E+03  2.65875E+03 -5.57482E+03  3.35147E+03 -2.86684E+03
  3.29422E+03  5.98584E+02 -6.88136E+02  1.70966E+03  7.13588E+02 -7.65304E+02  8.91291E+02 -2.44011E+03
  5.50466E+03 -2.12484E+03  6.98801E+03  1.22069E+03  7.46746E+03  4.21037E+03  6.20849E+03  8.90712E+03
 -1.49760E+03  1.07631E+04 -9.85474E+03  8.59125E+03 -1.23030E+04  1.44365E+03 -1.01837E+04 -3.55522E+03
 -4.67519E+03 -7.96841E+03 -7.95388E+02 -6.04015E+03  2.60459E+03 -3.06542E+03  2.15476E+03 -3.10701E+03
  1.43227E+03 -2.12495E+03  2.35074E+03 -2.90523E+03  3.63091E+03 -1.69938E+03  4.07614E+03 -1.62945E+02
  5.70155E+03  1.25645E+03  1.39586E+03  4.08347E+03 -1.74949E+03  4.15048E+03 -5.89765E+03  3.15055E+03
 -7.03515E+03 -8.49381E+02 -2.73148E+03 -4.62286E+03  7.61621E+02 -6.88274E+03  4.10369E+03 -7.10612E+03
  7.43534E+03 -3.83055E+03  8.18178E+03  7.01712E+02  5.85644E+03  5.65465E+03  1.01564E+03  7.69171E+03
 -3.08886E+03  6.69961E+03 -4.55656E+03  2.39909E+03 -2.49734E+03 -7.63698E+02 -5.38375E+02 -9.34582E+02
 -6.41640E+02  4.48058E+02 -1.40447E+03  2.43260E+03 -3.21295E+03  4.48123E+02 -4.71848E+03 -5.68444E+02
 -2.91934E+03 -4.48232E+03  6.48130E+02 -6.01022E+03  3.71785E+03 -5.93600E+03  5.37706E+03 -1.81491E+03
  5.27151E+03  3.13070E+03  2.68064E+03  4.56982E+03 -7.90542E+02  6.07464E+03 -3.78152E+03  3.11903E+03
 -5.27784E+03  3.49493E+02 -4.59040E+03 -3.69908E+03 -4.93425E+02 -4.15552E+03  2.61279E+03 -3.09712E+03
  3.52025E+03 -1.46138E+03  2.81901E+03  4.74963E+02  4.97767E+02  2.33425E+03  5.62876E+02  9.17048E+02
  1.62872E+03  2.04775E+02  1.73267E+03  2.32801E+02  1.55510E+03  2.46682E+03  1.34995E+03  2.44083E+03
 -2.22527E+03  3.88743E+03 -3.41214E+03  4.90362E+03 -4.54341E+03  1.24174E+03 -5.68446E+03 -1.57822E+03
 -2.46348E+03 -5.06738E+03  1.31724E+03 -6.02134E+03  3.42230E+03 -4.07175E+03  4.33997E+03 -8.13645E+02
  2.61023E+03  1.89880E+03  8.06549E+02  2.66774E+03 -1.39768E+03  2.01352E+03 -1.94276E+03 -1.86911E+02
 -1.05489E+03 -2.30062E+03  1.71910E+03 -2.65033E+03  2.33897E+03 -1.01069E+03  2.44660E+03  2.99499E+01
  1.38146E+03  4.52142E+02  1.12468E+03  1.45548E+02 -1.00392E+02  5.18286E+02  1.69004E+03 -1.51540E+02
  5.80651E+01 -8.96859E+02  2.25750E+03  1.10060E+03  4.03536E+02  3.30361E+03  4.04714E+01  3.41381E+03
 -2.45988E+03  1.70426E+03 -3.27027E+03  1.16821E+03 -2.87983E+03 -1.73725E+02 -4.19890E+01 -1.51293E+03
  5.68445E+02 -1.38205E+03  1.13875E+03 -1.07793E+03  1.39883E+03  1.16615E+03 -2.10689E+02  2.07844E+03
 -1.95500E+03  1.08848E+03 -1.44952E+03 -1.67955E+03 -1.44889E+03 -2.92571E+03  6.59821E+02 -2.34099E+03
  1.30368E+03 -7.07577E+02  1.67152E+03 -1.95245E+02  1.94300E+03  4.23937E+02  2.99660E+02  9.45620E+02
 -6.59843E+02  1.14756E+02 -1.69783E+03 -5.22586E+02  6.36839E+02 -1.14868E+03  2.70110E+03 -1.14479E+03
  1.98004E+03  5.95730E+02  3.36984E+03  1.51450E+03  1.32577E+03  2.18090E+03 -6.25350E+02  3.22468E+03
 -2.38630E+03  3.90596E+02 -2.09547E+03 -3.41178E+02 -1.09712E+03 -1.46322E+03  3.00170E+02 -1.27337E+03
  1.71114E+03 -9.18241E+02  1.50861E+03  7.97794E+02  3.10579E+02  2.11377E+03  4.13507E+02  1.88536E+03
 -7.67859E+02  1.42650E+03 -4.10232E+02  2.08457E+02  1.61640E+01  6.99712E+02 -5.84755E+02  5.40871E+02
 -8.63849E+02  1.10667E+03 -2.87620E+03  2.24819E+02 -2.94585E+03  4.47081E+02 -3.51101E+03 -1.73777E+03
 -1.51812E+03 -3.66137E+03  1.34372E+03 -3.91213E+03  2.10678E+03 -3.84856E+03  4.09648E+03 -1.83982E+03
  4.07968E+03 -4.18852E+02  1.97153E+03  2.20410E+03 -7.54447E+02  3.18331E+03 -9.66822E+02  2.30056E+03
 -1.72647E+03  7.73849E+02 -1.01919E+03 -5.14760E+02 -7.11241E+02  9.50239E+01 -5.30443E+02  1.50973E+02
 -3.55098E+02  2.72234E+02 -1.14969E+03  7.93484E+01  6.19941E+02 -7.06384E+02 -3.07587E+02 -1.34825E+03
  1.80008E+03 -8.65916E+02  1.27518E+03  2.94533E+02  1.69101E+03  1.38082E+03 -2.63446E+02  1.46493E+03
 -1.10853E+03  3.29956E+03 -2.87275E+03  1.48001E+03 -2.65615E+03 -7.66378E+02 -2.02752E+03 -2.49433E+03
 -1.41274E+03 -2.31408E+03  3.62612E+02 -2.35117E+03  1.52697E+03 -7.29056E+02  9.01268E+02  8.45899E+01
  1.15237E+03  8.91262E+02 -5.60381E+01  6.83156E+02 -3.59090E+02 -8.13516E+01  1.24666E+02 -1.96403E+02
  1.42086E+03 -1.06750E+02  4.58952E+02  7.24605E+02 -2.58430E+02  9.21699E+02  4.45341E+02  7.61000E+02
 -9.67139E+02  6.82822E+02 -1.94875E+03  3.92169E+02 -1.20122E+03 -7.19283E+02 -1.69939E+02 -2.27814E+03
  1.05208E+03 -1.49412E+03  1.84635E+03  1.35640E+02  1.54981E+03 -1.22648E+02  1.21138E+03  1.46193E+03
  1.29679E+02  1.10270E+03 -1.85752E+02  1.58104E+03 -1.64988E+02  7.65495E+02 -9.98121E+02  2.69838E+01
 -1.52740E+02  2.17011E+02 -1.02936E+03  4.43839E+02 -5.42961E+02 -3.21377E+01 -9.55214E+02 -9.12922E+02
 -1.37811E+03 -1.66900E+02 -8.76853E+02 -1.47668E+03  1.05494E+03 -1.98491E+03  1.09366E+03 -8.84893E+02
  1.21847E+03  5.88883E+02 -9.09420E+01  6.37278E+02 -1.56233E+02  1.86537E+03 -9.93420E+02  8.64068E+02
