 $NMID ID='MM_0lb_SNR400_8hz_g60_53.RAW', FMTDAT='(8E13.5)'
 TRAMP=1., VOLUME=1. $END
  3.09501E+05  5.84151E+02  3.37350E+05  2.51143E+05  8.43287E+04  3.38857E+05 -1.33072E+05  2.51299E+05
 -1.91256E+05  8.49585E+04 -1.13402E+05 -3.21686E+04 -1.49280E+02 -5.06553E+04  5.38372E+04 -6.98761E+01
  3.55008E+04  5.32657E+04 -1.69493E+04  7.58027E+04 -6.13121E+04  6.49323E+04 -8.52685E+04  3.24539E+04
 -8.23309E+04 -1.16474E+04 -5.85744E+04 -5.27277E+04 -1.56270E+04 -7.21195E+04  2.86390E+04 -4.80184E+04
  4.22671E+04  3.53244E+03  1.76465E+04  4.88860E+04 -3.54698E+04  4.84766E+04 -6.83092E+04  2.68127E+02
 -5.54977E+04 -5.81980E+04 -7.37510E+03 -7.96326E+04  3.52722E+04 -5.77887E+04  5.05568E+04 -1.89939E+04
  4.62874E+04  1.14782E+04  3.42322E+04  2.65727E+04  1.54857E+04  3.08832E+04 -6.02739E+03  2.76623E+04
 -2.25805E+04  1.16161E+04 -1.81938E+04 -5.42120E+03  6.98629E+03 -8.14199E+03  2.31503E+04  1.42368E+04
  7.69160E+03  3.83960E+04 -3.43466E+04  3.76700E+04 -6.59864E+04  1.55638E+03 -6.03104E+04 -4.45743E+04
 -1.27102E+04 -6.70389E+04  4.22896E+04 -4.77553E+04  6.31445E+04 -3.11216E+03  3.72895E+04  3.49514E+04
 -5.34943E+03  4.08980E+04 -3.20181E+04  1.99707E+04 -3.42150E+04 -3.46167E+03 -2.06931E+04 -1.23695E+04
 -9.72064E+03 -1.60246E+04 -1.95246E+02 -1.96664E+04  9.64627E+03 -2.42259E+04  1.59017E+04 -1.31994E+04
  1.02858E+04  6.00783E+03 -1.14591E+04  1.33074E+04 -2.46918E+04 -7.67125E+03 -8.63342E+03 -3.92696E+04
  2.62119E+04 -4.85588E+04  5.41947E+04 -2.13719E+04  5.03692E+04  2.14112E+04  1.76864E+04  4.81506E+04
 -1.65959E+04  3.75304E+04 -2.87882E+04  2.81427E+03 -1.22579E+04 -3.05031E+04  2.11642E+04 -3.82239E+04
  4.62696E+04 -1.19364E+04  4.17389E+04  2.54344E+04  2.25644E+04  5.22136E+04 -8.04237E+03  5.84301E+04
 -3.73849E+04  4.09391E+04 -5.00309E+04  1.20800E+04 -4.95417E+04 -1.93333E+04 -2.77285E+04 -4.41323E+04
  8.59795E+03 -4.33101E+04  3.58459E+04 -1.82013E+04  3.30974E+04  1.14020E+04  5.46371E+03  2.18415E+04
 -1.32943E+04  1.10528E+04 -1.21270E+04 -8.41658E+03  6.58527E+03 -1.15734E+04  1.90759E+04  5.11185E+03
  1.51680E+04  2.21968E+04 -4.70224E+03  2.86040E+04 -2.32261E+04  1.51199E+04 -3.22298E+04 -2.12299E+03
 -2.77451E+04 -1.85478E+04 -1.33735E+04 -2.70605E+04  3.91355E+03 -2.85324E+04  2.09001E+04 -2.48227E+04
  3.43897E+04 -1.50773E+04  4.15197E+04  7.25090E+03  2.78034E+04  2.65160E+04  4.56659E+03  4.43896E+04
 -1.97857E+04  3.53866E+04 -3.11362E+04  1.18813E+04 -2.29953E+04 -9.86104E+03 -5.68842E+03 -1.28337E+04
  1.06060E+02 -8.08007E+02 -8.32570E+03  9.66551E+03 -2.22593E+04  4.34854E+03 -2.19240E+04 -9.80255E+03
 -1.32106E+04 -2.51942E+04  5.99141E+03 -2.98993E+04  2.07816E+04 -2.11348E+04  2.38937E+04 -1.44009E+03
  1.58252E+04  1.83273E+04 -9.65950E+02  2.48643E+04 -1.81449E+04  1.47835E+04 -2.55275E+04 -5.91420E+03
 -1.87074E+04 -2.29806E+04 -2.49427E+03 -3.05423E+04  1.41278E+04 -2.57046E+04  2.44001E+04 -1.31610E+04
  2.41730E+04  1.20532E+02  1.76530E+04  6.15076E+03  1.00449E+04  2.15714E+03  1.29253E+04 -1.77506E+03
  2.46320E+04  2.42233E+03  2.77800E+04  1.93865E+04  1.91562E+04  4.01048E+04 -3.16469E+03  4.87881E+04
 -2.85409E+04  4.12054E+04 -4.66071E+04  2.12404E+04 -4.98679E+04 -3.66669E+03 -3.93421E+04 -2.88745E+04
 -1.50951E+04 -3.98480E+04  1.47156E+04 -3.62888E+04  3.09181E+04 -1.61004E+04  2.60805E+04  9.06764E+03
  8.74928E+03  2.05762E+04 -1.22109E+04  1.65338E+04 -2.11803E+04  2.42247E+03 -1.68317E+04 -1.42419E+04
 -3.70907E+02 -2.10670E+04  1.17515E+04 -1.57300E+04  1.43863E+04 -1.93315E+03  2.63351E+03  1.00926E+04
 -9.54374E+03  4.50908E+03 -1.10231E+04 -7.55277E+03 -3.15762E+03 -2.03938E+04  1.35458E+04 -2.35622E+04
  2.57290E+04 -1.33054E+04  2.95379E+04  3.19282E+03  2.63509E+04  2.02056E+04  1.25652E+04  3.29262E+04
 -6.12898E+03  3.49748E+04 -2.36010E+04  2.15470E+04 -2.46815E+04  4.26339E+03 -1.68930E+04 -6.58877E+03
 -7.31833E+03 -7.70488E+03 -1.14796E+02 -3.20991E+02 -3.12127E+03  3.85771E+03 -7.81867E+03  6.22910E+03
 -1.59170E+04 -1.64181E+03 -1.65074E+04 -1.34769E+04 -6.46027E+03 -2.19779E+04  7.16174E+03 -1.73179E+04
  1.38038E+04 -7.74969E+03  1.04919E+04  3.61075E+03 -5.98832E+02  7.53076E+03 -9.40319E+03 -1.49955E+03
 -9.23513E+03 -1.07284E+04 -9.71862E+02 -1.72361E+04  9.95477E+03 -1.82679E+04  2.22193E+04 -1.05909E+04
  2.69845E+04  3.50621E+03  1.98312E+04  1.68006E+04  4.05533E+03  2.09197E+04 -1.07126E+04  1.73116E+04
 -1.49034E+04  5.03752E+03 -7.49585E+03 -4.12385E+03  2.58865E+03 -4.84775E+03  9.70838E+03 -5.68500E+02
  9.09833E+03  7.72063E+03  1.03032E+03  1.49127E+04 -1.02668E+04  1.29366E+04 -1.76711E+04  3.78150E+03
 -1.22448E+04 -9.89861E+03  5.99998E+02 -1.64367E+04  1.03879E+04 -7.36292E+03  1.01422E+04  3.82553E+03
  2.45702E+03  1.16970E+04 -9.18739E+03  1.34193E+04 -1.68143E+04  6.88127E+03 -1.57789E+04 -5.36869E+03
 -9.85535E+03 -1.92415E+04  5.77959E+03 -2.05189E+04  1.83847E+04 -1.28101E+04  1.95661E+04  3.56556E+03
  1.14008E+04  1.54353E+04 -1.37191E+03  1.85942E+04 -1.30008E+04  9.88635E+03 -1.49757E+04 -1.40971E+03
 -1.19827E+04 -1.18024E+04 -1.59551E+03 -1.43403E+04  7.86568E+03 -1.07106E+04  9.02347E+03 -4.09862E+03
  6.06529E+03  2.81313E+03 -9.95875E+02  1.92605E+03 -6.68969E+02 -4.50316E+03  3.96135E+03 -8.63236E+03
  1.42502E+04 -6.44130E+03  1.88765E+04  2.14031E+03  1.89014E+04  1.32009E+04  1.10229E+04  2.46863E+04
 -5.17985E+03  2.81196E+04 -2.39891E+04  2.13334E+04 -3.02631E+04  4.62039E+03 -2.42600E+04 -1.04864E+04
 -1.29674E+04 -2.05772E+04 -2.70758E+02 -1.71792E+04  6.16882E+03 -1.03189E+04  6.26598E+03 -7.27415E+03
  4.33712E+03 -3.02328E+03  4.98552E+03 -3.71391E+03  5.66695E+03 -4.52264E+03  9.61258E+03 -2.10291E+03
  1.22050E+04  2.48253E+03  6.78467E+03  1.13915E+04 -2.23938E+03  1.36070E+04 -1.39854E+04  1.05410E+04
 -1.77850E+04 -9.75591E+02 -1.18205E+04 -1.14314E+04 -1.93965E+03 -1.88275E+04  9.82603E+03 -1.89365E+04
  1.90623E+04 -1.06258E+04  2.30564E+04  2.99070E+03  1.60193E+04  1.65917E+04  2.18158E+03  2.04730E+04
 -8.43148E+03  1.66034E+04 -1.27507E+04  5.04980E+03 -8.62072E+03 -2.17083E+03 -4.69918E+03 -3.02362E+03
 -1.66491E+03  1.27286E+02 -3.02179E+03  3.14042E+03 -7.49748E+03  1.78096E+03 -1.11579E+04 -1.76867E+03
 -9.93297E+03 -1.14057E+04  4.12808E+02 -1.77208E+04  1.16775E+04 -1.64428E+04  1.77455E+04 -4.88673E+03
  1.70970E+04  8.29846E+03  8.47674E+03  1.64161E+04 -4.00868E+03  1.80439E+04 -1.33166E+04  1.14543E+04
 -1.72598E+04  2.83468E+02 -1.25840E+04 -1.09088E+04 -1.65422E+03 -1.55017E+04  8.55179E+03 -1.11466E+04
  1.14631E+04 -3.31357E+03  7.03083E+03  3.94360E+03  3.32985E+03  4.98083E+03  1.19762E+03  1.77802E+03
  2.33913E+03  1.98381E+03  4.87943E+03  2.42384E+03  6.04092E+03  5.97068E+03  4.91785E+03  9.41176E+03
 -3.45755E+03  1.50642E+04 -1.27879E+04  1.45126E+04 -1.84919E+04  3.12662E+03 -1.99197E+04 -8.49030E+03
 -9.53129E+03 -1.89405E+04  2.57021E+03 -1.97888E+04  1.22993E+04 -1.31397E+04  1.46385E+04 -3.65621E+03
  1.22241E+04  6.79889E+03  2.55515E+03  1.08636E+04 -5.69374E+03  7.36440E+03 -8.11948E+03 -7.39896E+02
 -3.61191E+03 -7.92337E+03  4.46587E+03 -7.98898E+03  7.48424E+03 -4.38708E+03  6.68042E+03  1.90785E+03
  4.74346E+03  3.91336E+03  2.07810E+03  3.23249E+03 -7.97511E+01  2.05638E+03  2.41834E+03  3.45336E+02
  3.13542E+03 -4.39035E+02  7.24266E+03  2.26600E+03  4.72604E+03  9.69987E+03 -1.13524E+03  1.27421E+04
 -8.39233E+03  8.43068E+03 -1.23267E+04  2.72371E+03 -1.05412E+04 -3.45440E+03 -4.56553E+03 -7.58531E+03
  5.45950E+02 -6.72802E+03  5.80658E+03 -3.13124E+03  4.36994E+03  3.91563E+03 -9.74969E+02  6.51229E+03
 -7.52768E+03  2.95607E+03 -9.12061E+03 -4.55464E+03 -5.37964E+03 -1.05730E+04  1.56184E+03 -1.11394E+04
  6.47640E+03 -6.99298E+03  7.31785E+03 -2.96337E+02  6.99236E+03  2.42977E+03  5.59900E+02  5.73690E+03
 -3.70958E+03  2.23036E+03 -4.66649E+03 -3.77675E+03  2.09667E+03 -7.75573E+03  9.91419E+03 -7.21942E+03
  1.22589E+04  7.92687E+02  1.16725E+04  7.64255E+03  4.34840E+03  1.23932E+04 -5.05673E+03  1.16298E+04
 -9.73035E+03  5.45939E+03 -1.13267E+04 -1.74301E+03 -6.98345E+03 -8.60530E+03  2.39203E+03 -8.27821E+03
  7.39180E+03 -3.99001E+03  6.43127E+03  3.58732E+03  2.53455E+03  7.30389E+03 -7.32610E+02  6.15394E+03
 -3.92101E+03  3.55926E+03 -3.01820E+03  1.12631E+03 -2.37083E+03  1.54534E+03 -2.51481E+03  2.99006E+03
 -3.28140E+03  4.34132E+03 -8.47452E+03  4.35025E+03 -1.14709E+04 -3.30105E+02 -1.39778E+04 -8.31028E+03
 -7.21111E+03 -1.63424E+04  3.29711E+03 -1.97810E+04  1.34494E+04 -1.56496E+04  1.87538E+04 -6.19175E+03
  1.78391E+04  4.11024E+03  1.07232E+04  1.15916E+04  1.01271E+03  1.41607E+04 -5.83347E+03  9.41513E+03
 -8.03104E+03  3.07209E+03 -5.42578E+03 -1.71173E+03 -1.49656E+03 -1.43385E+03  5.88923E+01  2.49838E+01
 -2.26200E+03  8.64301E+02 -2.14922E+03  2.72655E+02 -1.08596E+03 -3.20019E+03 -5.64982E+01 -5.19514E+03
  5.39854E+03 -4.15907E+03  9.23192E+03 -4.71902E+02  9.18165E+03  6.95354E+03  3.10554E+03  1.29133E+04
 -6.75049E+03  1.55971E+04 -1.50082E+04  9.32536E+03 -1.61631E+04 -1.55062E+03 -1.26161E+04 -1.03306E+04
 -4.59255E+03 -1.44014E+04  3.51086E+03 -1.27487E+04  9.47840E+03 -6.99654E+03  9.98047E+03  3.26803E+02
  6.26424E+03  4.49702E+03 -1.29764E+03  4.01954E+03 -2.58299E+03  4.09679E+02  7.92134E+01 -2.53116E+03
  4.35111E+03 -1.65717E+03  6.12120E+03  1.07858E+03  3.97968E+03  5.24875E+03 -5.24747E+02  7.12793E+03
 -5.55900E+03  6.95481E+03 -9.79717E+03  6.40550E+02 -8.47805E+03 -6.66186E+03 -2.59855E+03 -1.11163E+04
  5.39164E+03 -9.50426E+03  1.03365E+04 -2.57216E+03  1.11852E+04  3.65233E+03  6.26549E+03  7.88535E+03
  9.86579E+02  9.64256E+03 -3.44950E+03  7.78377E+03 -5.71486E+03  4.03894E+03 -5.31049E+03  4.07090E+02
 -2.74669E+03 -6.18975E+01 -2.77639E+03  1.15710E+03 -5.34606E+03  1.51107E+03 -8.26088E+03 -7.21211E+02
 -6.42948E+03 -5.32956E+03 -1.97414E+03 -9.57113E+03  3.87747E+03 -8.74567E+03  8.15147E+03 -4.98488E+03
  8.56117E+03 -6.44665E+02  6.16138E+03  6.39859E+03 -2.92198E+02  1.04587E+04 -6.61530E+03  6.38853E+03
