 $NMID ID='MM_0lb_SNR400_17hz_g45_32.RAW', FMTDAT='(8E13.5)'
 TRAMP=1., VOLUME=1. $END
  3.09900E+05 -1.44223E+02  3.37129E+05  2.50648E+05  8.46436E+04  3.37017E+05 -1.32191E+05  2.49966E+05
 -1.89358E+05  8.28142E+04 -1.11485E+05 -3.27732E+04  9.32720E+02 -5.04895E+04  5.43176E+04  7.80694E+01
  3.47025E+04  5.34434E+04 -1.71214E+04  7.47883E+04 -6.04372E+04  6.32032E+04 -8.28110E+04  3.16612E+04
 -8.00749E+04 -1.07856E+04 -5.64245E+04 -5.03690E+04 -1.46149E+04 -6.87232E+04  2.70884E+04 -4.45377E+04
  3.91699E+04  4.13529E+03  1.56409E+04  4.68460E+04 -3.33352E+04  4.62324E+04 -6.56435E+04 -1.70507E+02
 -5.15233E+04 -5.60148E+04 -5.99647E+03 -7.58643E+04  3.32419E+04 -5.40506E+04  4.64045E+04 -1.65342E+04
  4.19817E+04  1.14121E+04  3.09091E+04  2.48105E+04  1.58232E+04  2.84905E+04 -5.25669E+03  2.69053E+04
 -2.18362E+04  1.27499E+04 -1.93399E+04 -4.30701E+03  5.43462E+03 -7.60295E+03  2.14109E+04  1.08803E+04
  7.08610E+03  3.44003E+04 -3.11312E+04  3.51322E+04 -6.10089E+04  2.16674E+03 -5.53880E+04 -4.19930E+04
 -1.21148E+04 -6.12718E+04  3.84138E+04 -4.41133E+04  5.63244E+04 -1.67467E+03  3.27029E+04  3.12212E+04
 -6.45855E+03  3.37794E+04 -2.89679E+04  1.38885E+04 -2.88719E+04 -5.42115E+03 -1.49834E+04 -1.02229E+04
 -7.77630E+03 -1.21928E+04 -1.20602E+03 -1.69805E+04  6.81526E+03 -2.25655E+04  1.49423E+04 -1.35493E+04
  1.21881E+04  4.79467E+03 -6.84574E+03  1.25413E+04 -1.99589E+04 -2.38571E+03 -8.29917E+03 -3.15060E+04
  2.11941E+04 -4.15816E+04  4.54927E+04 -1.85432E+04  4.29495E+04  1.83438E+04  1.46185E+04  4.20424E+04
 -1.56034E+04  3.13014E+04 -2.38509E+04  1.17546E+03 -8.73319E+03 -2.68879E+04  1.98170E+04 -3.18323E+04
  3.90345E+04 -7.55281E+03  3.27759E+04  2.31364E+04  1.62414E+04  4.40435E+04 -7.58102E+03  4.63453E+04
 -2.90912E+04  3.08506E+04 -3.85371E+04  8.15678E+03 -3.91967E+04 -1.56863E+04 -2.20657E+04 -3.56071E+04
  6.87926E+03 -3.54063E+04  2.97326E+04 -1.30622E+04  2.75915E+04  1.09828E+04  2.79215E+03  1.79957E+04
 -1.29093E+04  7.42448E+03 -9.62094E+03 -8.53506E+03  5.62518E+03 -9.88111E+03  1.72044E+04  6.21198E+03
  1.33168E+04  2.19410E+04 -7.10899E+03  2.39795E+04 -2.13661E+04  1.00685E+04 -2.58935E+04 -6.54382E+03
 -1.80037E+04 -1.66292E+04 -6.75283E+03 -1.74392E+04  3.72320E+03 -1.56721E+04  1.31559E+04 -1.51450E+04
  2.27268E+04 -1.16274E+04  2.87014E+04  1.44121E+03  2.24942E+04  1.76724E+04  4.22302E+03  3.37182E+04
 -1.68246E+04  2.81694E+04 -2.67097E+04  9.67969E+03 -2.01907E+04 -1.02383E+04 -4.09345E+03 -1.37725E+04
  2.36046E+03 -3.92569E+03 -2.85404E+03  5.77617E+03 -1.36767E+04  4.90388E+03 -1.45751E+04 -5.60755E+03
 -9.20943E+03 -1.66295E+04  4.05422E+03 -2.06816E+04  1.35431E+04 -1.49513E+04  1.50961E+04 -1.28020E+03
  9.36395E+03  1.18373E+04 -5.19054E+02  1.63129E+04 -1.05890E+04  9.38353E+03 -1.64526E+04 -4.04241E+03
 -1.21621E+04 -1.51858E+04 -1.45798E+03 -2.01752E+04  8.51709E+03 -1.66502E+04  1.68203E+04 -7.96694E+03
  1.54263E+04  6.30108E+02  1.08267E+04  3.73452E+03  5.50514E+03  6.69718E+02  8.08007E+03 -1.29257E+03
  1.45679E+04  2.97343E+03  1.58598E+04  1.27264E+04  9.47537E+03  2.58577E+04 -3.32290E+03  2.82180E+04
 -1.67764E+04  2.21602E+04 -2.64361E+04  1.11749E+04 -2.67390E+04 -2.54500E+03 -2.29890E+04 -1.51855E+04
 -1.05756E+04 -2.20158E+04  7.73747E+03 -1.98373E+04  1.79531E+04 -1.17974E+04  1.61194E+04  3.65917E+03
  7.09592E+03  1.18013E+04 -7.95441E+03  1.08436E+04 -1.40660E+04  2.73361E+03 -1.08707E+04 -8.77797E+03
 -5.09947E+02 -1.30953E+04  7.10834E+03 -9.46269E+03  8.37065E+03 -9.82176E+02  1.91266E+03  5.28513E+03
 -5.87100E+03  1.12537E+03 -4.78020E+03 -4.98620E+03  7.75189E+02 -1.08560E+04  8.69403E+03 -1.10581E+04
  1.31920E+04 -5.34621E+03  1.37637E+04  2.85981E+03  1.13517E+04  9.99758E+03  5.20140E+03  1.58085E+04
 -1.86137E+03  1.70060E+04 -1.07729E+04  1.12078E+04 -1.18063E+04  2.76793E+03 -8.94230E+03 -2.34807E+03
 -4.77269E+03 -3.33446E+03 -9.18801E+02  1.42615E+03 -2.40018E+03  2.53648E+03 -3.63984E+03  3.71391E+03
 -8.84553E+03 -7.39645E+02 -9.71316E+03 -7.68273E+03 -3.68306E+03 -1.21998E+04  3.85001E+03 -9.26869E+03
  8.02628E+03 -4.06446E+03  5.67002E+03  2.53725E+03  6.21361E+02  3.57869E+03 -3.74959E+03  8.60141E+02
 -3.66420E+03 -5.63446E+03 -9.32743E+02 -7.94462E+03  4.37327E+03 -9.02217E+03  1.08197E+04 -4.34004E+03
  1.26763E+04  2.86039E+02  9.71935E+03  6.52648E+03  2.05936E+03  9.36087E+03 -5.88125E+03  9.09800E+03
 -7.32316E+03  2.90917E+03 -4.00875E+03 -1.87122E+03  9.26760E+02 -2.43463E+03  4.75327E+03 -6.31941E+02
  4.40563E+03  4.04789E+03  9.38906E+02  6.94948E+03 -4.26024E+03  7.11995E+03 -8.72027E+03  1.70322E+03
 -5.15832E+03 -4.30676E+03  4.64736E+02 -7.02540E+03  4.09012E+03 -3.51520E+03  4.20141E+03  1.16377E+03
  3.96088E+02  3.48821E+03 -4.65443E+03  5.28719E+03 -6.20956E+03  2.62931E+03 -5.37015E+03 -1.19830E+03
 -3.27026E+03 -6.97792E+03  8.20602E+02 -7.98490E+03  6.07876E+03 -5.07809E+03  7.36841E+03  1.91090E+03
  5.11695E+03  5.92024E+03  6.36396E+02  8.61874E+03 -5.86249E+03  4.20553E+03 -5.89738E+03 -7.51282E+02
 -6.66602E+03 -5.65001E+03 -1.57382E+03 -6.09518E+03  2.94737E+03 -4.98721E+03  3.46910E+03 -2.32749E+03
  2.99939E+03  7.50157E+02 -3.02983E+02  1.62816E+03 -1.84265E+02 -1.21175E+03  1.12117E+02 -2.58396E+03
  4.22755E+03 -1.49773E+03  6.72054E+03  5.90699E+02  6.61780E+03  3.87094E+03  5.22211E+03  8.11228E+03
 -1.20713E+03  9.44621E+03 -9.04026E+03  7.87281E+03 -1.14281E+04  1.02292E+03 -8.66997E+03 -2.41175E+03
 -4.92803E+03 -8.11758E+03 -9.42850E+02 -6.16723E+03  2.31267E+03 -2.69792E+03  1.79919E+03 -1.82321E+03
  1.65820E+03 -1.18888E+03  2.50285E+03 -2.41515E+03  3.72564E+03 -1.51437E+03  3.45162E+03 -5.47029E+01
  4.89718E+03  1.17284E+03  1.29481E+03  3.97316E+03 -1.69808E+03  3.77964E+03 -5.14865E+03  2.81123E+03
 -5.77046E+03 -1.78764E+03 -2.69577E+03 -3.94814E+03  1.93612E+02 -6.03271E+03  3.54997E+03 -6.12806E+03
  5.77342E+03 -3.71968E+03  7.72477E+03  5.42935E+02  5.17980E+03  4.84860E+03  1.41945E+03  7.32127E+03
 -2.21721E+03  6.11490E+03 -4.57254E+03  1.79214E+03 -2.86917E+03 -1.17923E+03 -7.28096E+02 -7.98593E+02
 -3.71938E+02  2.61773E+02 -6.88236E+02  1.86427E+03 -3.29226E+03  7.26988E+02 -4.33954E+03  1.13267E+01
 -2.39353E+03 -4.61892E+03  7.37898E+02 -5.48845E+03  3.20766E+03 -5.61335E+03  4.38533E+03 -1.12569E+03
  4.81507E+03  2.48804E+03  1.70753E+03  4.17635E+03 -6.72256E+02  5.64474E+03 -3.31268E+03  3.30075E+03
 -4.41274E+03  5.20501E+02 -4.45509E+03 -2.73209E+03 -1.70476E+02 -3.98639E+03  2.00005E+03 -2.74020E+03
  3.21432E+03 -1.21565E+03  2.08924E+03  3.73789E+02  5.11737E+02  1.73259E+03  1.11257E+03  3.95848E+02
  1.86685E+03  1.28252E+03  1.19102E+03  1.27409E+03  1.64436E+03  2.09754E+03  1.46966E+03  2.38267E+03
 -1.43381E+03  3.08796E+03 -2.76370E+03  4.58608E+03 -4.19672E+03  1.08548E+03 -4.79881E+03 -6.72114E+02
 -2.29088E+03 -4.69074E+03  9.91748E+02 -5.18508E+03  2.60183E+03 -3.07723E+03  3.89825E+03 -1.34651E+03
  2.78169E+03  1.64640E+03  4.05450E+02  2.45279E+03 -9.98725E+02  1.57791E+03 -2.14195E+03 -3.31139E+02
 -8.29328E+02 -1.54171E+03  1.35888E+03 -2.67938E+03  2.13375E+03 -1.41826E+03  1.96864E+03  5.47049E+02
  9.46402E+02  4.37297E+02  6.68932E+02  2.97301E+02 -7.60849E+02  7.32337E+02  1.05432E+03  2.08625E+01
  8.37265E+01  2.34814E+02  2.27663E+03  8.22286E+02  6.48672E+02  3.09964E+03 -1.02722E+03  3.40151E+03
 -1.96996E+03  1.76632E+03 -2.94928E+03  2.88830E+02 -2.92486E+03 -6.85265E+02 -2.24199E+02 -1.19554E+03
  1.33047E+02 -1.73627E+03  1.05634E+03 -1.00348E+03  8.52240E+02  1.51365E+03 -1.18642E+03  1.63728E+03
 -1.64439E+03  8.39772E+02 -1.92366E+03 -1.79417E+03 -1.07029E+03 -2.19622E+03  6.41116E+02 -2.00254E+03
  8.31810E+02 -1.09389E+03  1.47109E+03  4.37437E+02  1.94708E+03  2.46112E+02  2.06674E+02  1.18982E+03
 -3.16014E+02  4.24000E+02 -1.35002E+03 -5.01363E+01  5.64275E+02 -6.05578E+02  2.54500E+03 -1.27762E+03
  1.87325E+03  5.07808E+02  3.40735E+03  1.25117E+03  5.63495E+02  2.09471E+03 -6.41504E+02  1.98320E+03
 -2.00062E+03  4.89846E+01 -1.64301E+03 -7.27728E+02 -8.67289E+02 -2.06512E+03 -2.72568E+01 -7.38306E+02
  1.26857E+03 -7.39714E+02  1.21060E+03  2.65969E+02 -2.31414E+02  1.60248E+03  3.34449E+02  1.29679E+03
 -2.30935E+02  1.01086E+03 -2.20746E+02  1.49115E+02 -4.37621E+02  4.90053E+02 -1.08884E+03  1.26967E+03
 -7.08013E+02  9.36097E+02 -1.74385E+03  7.04494E+02 -2.41031E+03  2.48239E+02 -3.56114E+03 -1.06586E+03
 -1.83930E+03 -3.38231E+03  3.26727E+02 -3.85617E+03  1.52454E+03 -3.24045E+03  3.01043E+03 -1.30844E+03
  2.96263E+03  7.31226E+00  1.68181E+03  2.02334E+03 -4.22464E+02  2.22054E+03 -7.02054E+02  1.24631E+03
 -1.13195E+03  1.11085E+03 -6.30379E+02 -1.69334E+02 -7.09724E+02 -1.23741E+02 -9.63905E+02 -3.69579E+02
 -1.02241E+03 -4.97129E+02 -9.19359E+02  1.66954E+02  1.59030E+02 -3.27396E+02 -4.76542E+02 -1.09745E+03
  1.52159E+03 -3.36235E+02  3.63727E+01  3.26793E+02  1.19763E+03  1.05940E+03 -1.22716E+02  2.46366E+03
 -1.09570E+03  2.88658E+03 -2.15463E+03  1.66241E+03 -1.90697E+03 -4.51267E+02 -1.35341E+03 -1.89788E+03
 -8.66338E+02 -2.60159E+03  3.82636E+02 -1.95047E+03  8.68021E+02 -1.74926E+02  1.28825E+03  2.39494E+02
  5.46565E+02  8.45116E+02  2.17697E+02  6.57520E+02 -3.72446E+02 -1.37322E+02  1.81128E+02 -9.70148E+02
  5.67358E+02  8.41084E+01  5.79356E+02  1.08803E+03  1.74896E+02  2.20839E+02  4.56216E+02  5.16131E+02
 -5.80164E+02  5.33428E+02 -1.14249E+03 -7.64221E+02 -1.00718E+03 -8.43019E+02 -4.26908E+02 -1.21634E+03
  1.13735E+03 -1.02329E+03  1.03924E+03  3.21076E+02  2.05568E+03 -3.49195E+02  6.88851E+02  8.48780E+02
 -4.89322E+01  1.10877E+03 -3.72286E+02  6.20391E+02 -1.08712E+03  5.19131E+02 -9.84750E+02  4.57013E+02
 -3.81694E+02 -3.77496E+02 -1.02895E+03  1.64368E+02 -7.84151E+02 -3.32193E+01 -9.24925E+02 -6.89519E+02
 -9.54167E+02  8.57434E+02 -1.62818E+02 -1.62764E+03  8.35708E+02 -1.77218E+03  1.00214E+03 -1.47337E+02
  6.48211E+02 -3.86681E+02 -2.47920E+02 -1.89832E+02 -1.67225E+02  1.06961E+03 -6.07713E+02  7.57899E+02
