 $NMID ID='MM_0lb_SNR400_12hz_g45_54.RAW', FMTDAT='(8E13.5)'
 TRAMP=1., VOLUME=1. $END
  3.09943E+05  4.95216E+02  3.37442E+05  2.50533E+05  8.51755E+04  3.37624E+05 -1.32362E+05  2.51452E+05
 -1.90001E+05  8.32342E+04 -1.12160E+05 -3.25856E+04  1.26764E+03 -5.03562E+04  5.42671E+04 -6.70596E+02
  3.56925E+04  5.19943E+04 -1.67727E+04  7.50893E+04 -6.06610E+04  6.33553E+04 -8.36328E+04  3.28254E+04
 -8.11352E+04 -1.11833E+04 -5.70592E+04 -5.24372E+04 -1.54612E+04 -6.96376E+04  2.76894E+04 -4.58241E+04
  4.02786E+04  3.94836E+03  1.66481E+04  4.83761E+04 -3.47196E+04  4.75920E+04 -6.69572E+04  2.47178E+02
 -5.40307E+04 -5.66562E+04 -7.28211E+03 -7.84621E+04  3.36508E+04 -5.59408E+04  4.91442E+04 -1.71177E+04
  4.38945E+04  1.15017E+04  3.15815E+04  2.59275E+04  1.61900E+04  2.98075E+04 -5.79048E+03  2.70067E+04
 -2.25006E+04  1.24581E+04 -1.91324E+04 -4.37572E+03  6.29874E+03 -6.98248E+03  2.27177E+04  1.27594E+04
  7.05136E+03  3.55263E+04 -3.26414E+04  3.62691E+04 -6.40820E+04  2.33025E+03 -5.68240E+04 -4.28330E+04
 -1.24972E+04 -6.46054E+04  3.99285E+04 -4.53126E+04  5.87114E+04 -2.26238E+03  3.49074E+04  3.31527E+04
 -6.33099E+03  3.61893E+04 -3.02105E+04  1.68934E+04 -3.12713E+04 -4.81883E+03 -1.68832E+04 -1.10452E+04
 -8.64194E+03 -1.31515E+04 -7.08284E+01 -1.90024E+04  7.51273E+03 -2.37386E+04  1.50885E+04 -1.30202E+04
  1.08527E+04  6.06354E+03 -9.35965E+03  1.34348E+04 -2.19720E+04 -5.21507E+03 -8.20663E+03 -3.47473E+04
  2.36331E+04 -4.42170E+04  4.95139E+04 -2.01900E+04  4.56785E+04  1.97176E+04  1.66361E+04  4.52255E+04
 -1.65544E+04  3.44781E+04 -2.60860E+04  1.30356E+03 -1.02402E+04 -2.85711E+04  2.10523E+04 -3.41984E+04
  4.23093E+04 -1.02325E+04  3.65698E+04  2.38611E+04  1.94288E+04  4.77116E+04 -7.81519E+03  5.20351E+04
 -3.24943E+04  3.49572E+04 -4.32181E+04  9.82787E+03 -4.47614E+04 -1.74288E+04 -2.44341E+04 -3.88199E+04
  7.79101E+03 -3.87159E+04  3.21664E+04 -1.53981E+04  2.98310E+04  1.19371E+04  4.55935E+03  1.91181E+04
 -1.36000E+04  9.21572E+03 -1.07908E+04 -7.37855E+03  5.53966E+03 -1.13839E+04  1.83300E+04  6.05936E+03
  1.36935E+04  2.24404E+04 -4.89649E+03  2.54665E+04 -2.31734E+04  1.26086E+04 -2.94514E+04 -4.29963E+03
 -2.23168E+04 -1.72290E+04 -9.63129E+03 -2.17381E+04  3.62134E+03 -2.12700E+04  1.70979E+04 -1.91459E+04
  2.81252E+04 -1.32625E+04  3.37771E+04  3.40322E+03  2.47184E+04  2.13718E+04  4.63233E+03  3.74983E+04
 -1.87488E+04  3.21813E+04 -2.89911E+04  1.12441E+04 -2.10099E+04 -1.03323E+04 -4.66712E+03 -1.38594E+04
  1.08525E+03 -2.57787E+03 -5.32094E+03  7.44111E+03 -1.76740E+04  5.20957E+03 -1.72930E+04 -7.58540E+03
 -1.06787E+04 -2.04049E+04  5.18723E+03 -2.43776E+04  1.66571E+04 -1.82242E+04  1.95795E+04 -1.84235E+03
  1.30672E+04  1.33715E+04 -1.38918E+03  2.05182E+04 -1.44739E+04  1.21015E+04 -2.07973E+04 -4.18577E+03
 -1.50008E+04 -1.80347E+04 -1.81384E+03 -2.47497E+04  1.16934E+04 -1.97600E+04  2.06940E+04 -9.59371E+03
  1.87442E+04 -2.73761E+02  1.30732E+04  4.41111E+03  7.72135E+03  1.17489E+03  1.10407E+04 -1.12435E+03
  1.84708E+04  2.48475E+03  2.06068E+04  1.59689E+04  1.41371E+04  3.20315E+04 -3.33183E+03  3.70278E+04
 -2.11637E+04  2.98733E+04 -3.50240E+04  1.51711E+04 -3.62900E+04 -3.38839E+03 -3.11972E+04 -2.10790E+04
 -1.24506E+04 -2.99624E+04  1.04905E+04 -2.82508E+04  2.33632E+04 -1.33166E+04  2.12136E+04  5.78174E+03
  7.67923E+03  1.51099E+04 -9.51524E+03  1.25989E+04 -1.69118E+04  2.61436E+03 -1.31443E+04 -1.16284E+04
 -3.39535E+02 -1.64718E+04  8.83769E+03 -1.27079E+04  1.11521E+04 -1.61520E+03  2.41670E+03  7.27394E+03
 -7.87552E+03  2.78863E+03 -7.10388E+03 -6.19164E+03 -1.18866E+03 -1.46451E+04  9.76177E+03 -1.58566E+04
  1.83694E+04 -8.18590E+03  2.05300E+04  2.88410E+03  1.79172E+04  1.45646E+04  7.77143E+03  2.29711E+04
 -3.83651E+03  2.46963E+04 -1.58897E+04  1.54292E+04 -1.81895E+04  3.40571E+03 -1.29652E+04 -4.80666E+03
 -6.26670E+03 -5.93236E+03 -1.01978E+03  8.13751E+02 -3.26928E+03  2.35759E+03 -5.97887E+03  5.40010E+03
 -1.17592E+04 -1.14674E+03 -1.25788E+04 -9.77926E+03 -4.98474E+03 -1.57328E+04  5.52613E+03 -1.28690E+04
  1.06622E+04 -5.48657E+03  7.93304E+03  2.49875E+03  8.43720E+02  4.91174E+03 -6.00816E+03 -1.85810E+02
 -6.47649E+03 -7.67347E+03 -7.65019E+02 -1.17775E+04  7.24608E+03 -1.28493E+04  1.53802E+04 -6.67939E+03
  1.90723E+04  2.19630E+03  1.39824E+04  1.08746E+04  3.03682E+03  1.51106E+04 -7.65176E+03  1.21267E+04
 -9.35993E+03  3.85129E+03 -4.87392E+03 -2.52616E+03  1.84758E+03 -3.27550E+03  6.78524E+03 -7.93317E+02
  6.04307E+03  4.83487E+03  7.95524E+02  9.77770E+03 -6.82222E+03  9.45854E+03 -1.22138E+04  2.84516E+03
 -8.15826E+03 -5.93245E+03  5.96596E+02 -9.82393E+03  7.06425E+03 -5.55690E+03  6.74087E+03  2.51438E+03
  1.37808E+03  6.90353E+03 -6.74862E+03  8.54596E+03 -9.36116E+03  4.18949E+03 -9.45694E+03 -3.98208E+03
 -5.26429E+03 -1.17273E+04  3.13953E+03 -1.32664E+04  1.13964E+04 -8.10922E+03  1.36123E+04  2.28043E+03
  7.79389E+03  9.24657E+03 -3.48686E+02  1.26568E+04 -8.66869E+03  6.74461E+03 -9.00179E+03 -9.95830E+02
 -8.39892E+03 -8.58445E+03 -1.04801E+03 -9.09705E+03  4.66069E+03 -7.50949E+03  5.35816E+03 -4.08326E+03
  3.98083E+03  1.03077E+03 -7.49683E+02  1.41520E+03 -4.03446E+02 -1.59119E+03  9.32576E+02 -5.15500E+03
  8.39718E+03 -3.30275E+03  1.16782E+04  1.01538E+03  1.04708E+04  7.61305E+03  8.19003E+03  1.44274E+04
 -2.72256E+03  1.69378E+04 -1.48374E+04  1.35060E+04 -1.86541E+04  2.76619E+03 -1.52758E+04 -6.05736E+03
 -7.71581E+03 -1.31062E+04 -1.17767E+03 -1.02672E+04  4.05364E+03 -5.98372E+03  4.04693E+03 -3.85755E+03
  2.38464E+03 -2.04017E+03  3.31346E+03 -3.65196E+03  4.58108E+03 -2.64589E+03  6.24000E+03 -5.90108E+01
  8.12047E+03  2.01382E+03  3.70232E+03  6.49492E+03 -1.89822E+03  7.47792E+03 -8.14717E+03  6.55407E+03
 -1.02442E+04 -1.32454E+03 -6.55215E+03 -6.53202E+03 -7.71024E+02 -1.02066E+04  6.17653E+03 -1.08192E+04
  1.12342E+04 -6.50449E+03  1.42349E+04  1.48905E+03  9.45905E+03  9.08740E+03  2.35903E+03  1.27420E+04
 -6.05358E+03  1.09856E+04 -7.92130E+03  3.84231E+03 -4.90420E+03 -9.63918E+02 -2.11970E+03 -1.89101E+03
 -6.17434E+02 -1.50611E+02 -1.05387E+03  1.93724E+03 -4.88908E+03  1.71507E+03 -7.96029E+03 -1.09428E+03
 -4.15612E+03 -6.87658E+03  4.42211E+02 -9.82181E+03  5.99345E+03 -9.05362E+03  9.64544E+03 -3.62572E+03
  9.85513E+03  4.70720E+03  4.37101E+03  8.44456E+03 -1.98365E+03  1.04465E+04 -7.19390E+03  5.81662E+03
 -9.50229E+03  7.82161E+02 -7.49459E+03 -5.76984E+03 -1.16204E+03 -8.62492E+03  3.88710E+03 -5.69177E+03
  6.20796E+03 -2.48019E+03  5.07524E+03  1.58537E+03  1.24047E+03  2.81492E+03  1.35089E+03  1.50460E+03
  2.51870E+03  8.82534E+02  1.97276E+03  1.23746E+03  3.23375E+03  4.23180E+03  2.49807E+03  5.48075E+03
 -2.65290E+03  6.64194E+03 -6.72610E+03  7.82542E+03 -9.92393E+03  3.08040E+03 -1.03612E+04 -4.14457E+03
 -4.85481E+03 -9.38780E+03  1.21892E+03 -1.14600E+04  6.16837E+03 -6.67334E+03  8.03709E+03 -1.93380E+03
  7.17797E+03  3.39181E+03  1.67487E+03  6.46588E+03 -2.39493E+03  4.07736E+03 -3.78508E+03  1.55061E+02
 -1.74643E+03 -3.87638E+03  2.77223E+03 -4.89128E+03  4.71291E+03 -1.90493E+03  3.44390E+03  1.06765E+03
  1.89093E+03  1.98849E+03  7.52400E+02  1.82795E+03 -6.30375E+02  1.57926E+03  1.94793E+03 -3.00044E+02
  9.35486E+02 -5.66713E+02  4.09755E+03  1.08047E+03  1.99287E+03  4.99099E+03 -6.90384E+02  6.97121E+03
 -4.62920E+03  4.48102E+03 -5.62159E+03  1.56420E+03 -5.22282E+03 -2.09006E+03 -1.69622E+03 -3.68228E+03
  4.84779E+02 -3.58283E+03  1.89807E+03 -1.59855E+03  2.49779E+03  1.60469E+03 -8.89824E+02  3.57923E+03
 -3.57055E+03  2.01939E+03 -4.30076E+03 -3.04136E+03 -2.29138E+03 -4.85697E+03  7.37421E+02 -5.40136E+03
  2.82898E+03 -2.54851E+03  3.97986E+03  2.89096E+01  3.48300E+03  9.18243E+02  2.93119E+02  2.83191E+03
 -1.66955E+03  7.00308E+02 -2.72491E+03 -1.38777E+03  1.72848E+03 -3.74701E+03  5.12586E+03 -3.03528E+03
  5.66624E+03  4.80490E+01  5.99454E+03  3.43748E+03  1.94154E+03  6.11988E+03 -1.64115E+03  6.04801E+03
 -4.71683E+03  2.41896E+03 -5.56181E+03 -9.80300E+02 -3.07453E+03 -3.82199E+03  1.08003E+03 -3.10888E+03
  4.19215E+03 -1.36860E+03  3.76279E+03  1.64295E+03  9.10246E+02  3.76126E+03 -2.70611E+02  3.73036E+03
 -1.57938E+03  2.34457E+03 -1.23073E+03  6.22242E+02 -6.48303E+02  1.02426E+03 -1.34524E+03  8.65660E+02
 -1.66546E+03  2.32237E+03 -4.43496E+03  1.05649E+03 -5.84352E+03  5.12971E+02 -6.70188E+03 -3.30796E+03
 -3.51766E+03 -7.86776E+03  1.69334E+03 -9.07407E+03  5.16354E+03 -7.22747E+03  8.01733E+03 -2.46612E+03
  8.33571E+03  9.97832E+02  4.14919E+03  5.93448E+03  5.82144E+02  5.58820E+03 -2.52581E+03  4.80855E+03
 -3.58060E+03  2.09127E+03 -1.82454E+03 -6.17811E+02 -6.90491E+02 -6.64969E+02 -7.17186E+02 -1.01189E+02
 -9.04565E+02 -1.75098E+02 -1.78754E+03 -4.37717E+02 -7.72564E+02 -1.51027E+03  6.98724E+02 -2.76887E+03
  3.11617E+03 -2.06484E+03  3.62961E+03 -1.20675E+02  4.09336E+03  2.89781E+03  1.06843E+02  5.95522E+03
 -2.89993E+03  7.20951E+03 -6.26242E+03  3.87915E+03 -7.39429E+03 -1.09044E+03 -5.63218E+03 -4.45590E+03
 -2.39605E+03 -6.03000E+03  1.91267E+03 -6.39473E+03  3.22781E+03 -2.54750E+03  3.41046E+03  5.67686E+02
  2.43112E+03  1.49633E+03 -2.04911E+01  1.31465E+03 -1.40379E+03 -9.55722E+01 -1.65040E+02 -9.83104E+02
  1.52225E+03 -6.08616E+02  2.06185E+03  8.00967E+02  2.88351E+02  2.38730E+03  3.93254E+02  3.06713E+03
 -3.03661E+03  2.21309E+03 -3.69727E+03 -1.09922E+01 -2.95311E+03 -3.10630E+03 -1.79543E+02 -5.53196E+03
  3.12038E+03 -2.84117E+03  3.93279E+03 -1.22765E+03  4.87669E+03  3.62888E+02  2.30686E+03  3.13904E+03
  3.12177E+02  3.61472E+03 -1.46161E+03  3.04022E+03 -2.11402E+03  1.64566E+03 -1.91624E+03  5.33411E+02
 -1.13401E+03  6.01961E+02 -7.97693E+02  6.22842E+02 -1.86754E+03  9.60294E+02 -2.66367E+03 -1.27681E+03
 -2.98037E+03 -1.56462E+03 -1.58151E+02 -4.06993E+03  1.49850E+03 -4.22669E+03  3.09126E+03 -1.31904E+03
  4.08712E+03  3.23322E+02  1.83299E+03  2.60421E+03 -1.33738E+03  3.44034E+03 -2.36904E+03  2.22572E+03
