 $NMID ID='MM_0lb_SNR400_9hz_g45_5.RAW', FMTDAT='(8E13.5)'
 TRAMP=1., VOLUME=1. $END
  3.09862E+05  9.08415E+02  3.37943E+05  2.50728E+05  8.42402E+04  3.38154E+05 -1.32608E+05  2.51581E+05
 -1.90593E+05  8.38014E+04 -1.12172E+05 -3.26343E+04  9.51315E+01 -5.06758E+04  5.37051E+04 -3.34002E+02
  3.58349E+04  5.31143E+04 -1.67730E+04  7.63834E+04 -6.06694E+04  6.35111E+04 -8.47594E+04  3.26077E+04
 -8.18216E+04 -1.16239E+04 -5.72607E+04 -5.25545E+04 -1.57104E+04 -7.14560E+04  2.79660E+04 -4.73156E+04
  4.10663E+04  3.93349E+03  1.70376E+04  4.83759E+04 -3.43539E+04  4.84156E+04 -6.78791E+04 -5.49314E+02
 -5.52978E+04 -5.79584E+04 -7.70082E+03 -7.87955E+04  3.40865E+04 -5.70893E+04  4.91859E+04 -1.83529E+04
  4.40400E+04  1.08512E+04  3.31929E+04  2.65717E+04  1.55367E+04  3.02530E+04 -5.16862E+03  2.73953E+04
 -2.27315E+04  1.22704E+04 -1.83014E+04 -5.73544E+03  7.28019E+03 -7.77956E+03  2.28587E+04  1.43732E+04
  7.03038E+03  3.66727E+04 -3.33785E+04  3.68145E+04 -6.51113E+04  2.26460E+03 -5.83508E+04 -4.46057E+04
 -1.28865E+04 -6.58231E+04  4.17822E+04 -4.67706E+04  6.07899E+04 -2.08371E+03  3.67788E+04  3.48138E+04
 -6.29338E+03  3.85911E+04 -3.12857E+04  1.82089E+04 -3.33889E+04 -3.50680E+03 -1.86776E+04 -1.19639E+04
 -8.96665E+03 -1.47357E+04 -1.53031E+03 -2.00433E+04  8.49092E+03 -2.32995E+04  1.59246E+04 -1.29183E+04
  1.09647E+04  5.78515E+03 -1.08863E+04  1.26292E+04 -2.31111E+04 -6.49246E+03 -8.09054E+03 -3.70949E+04
  2.39706E+04 -4.77204E+04  5.02532E+04 -2.03927E+04  4.84299E+04  2.08061E+04  1.71088E+04  4.64436E+04
 -1.65147E+04  3.54825E+04 -2.73947E+04  2.98164E+03 -1.20326E+04 -2.92763E+04  2.10493E+04 -3.66176E+04
  4.40585E+04 -1.11760E+04  3.93839E+04  2.46437E+04  2.12562E+04  5.02239E+04 -8.22534E+03  5.50084E+04
 -3.51658E+04  3.84695E+04 -4.76672E+04  1.03453E+04 -4.70633E+04 -1.84740E+04 -2.61041E+04 -4.17059E+04
  8.20244E+03 -4.16156E+04  3.34548E+04 -1.68463E+04  3.13019E+04  1.11420E+04  4.15814E+03  2.10784E+04
 -1.38273E+04  9.27087E+03 -1.16408E+04 -7.15399E+03  5.85335E+03 -1.08579E+04  1.92969E+04  5.36701E+03
  1.45718E+04  2.26384E+04 -4.23657E+03  2.72053E+04 -2.35253E+04  1.43625E+04 -3.03298E+04 -3.20984E+03
 -2.48046E+04 -1.82794E+04 -1.22363E+04 -2.38817E+04  4.26602E+03 -2.54613E+04  1.89892E+04 -2.24462E+04
  3.13861E+04 -1.48679E+04  3.82368E+04  4.08583E+03  2.66439E+04  2.37800E+04  4.17548E+03  4.03225E+04
 -1.97372E+04  3.40191E+04 -3.01680E+04  1.23657E+04 -2.25156E+04 -9.79128E+03 -5.04414E+03 -1.35091E+04
  9.32096E+02 -1.43263E+03 -7.67658E+03  8.51633E+03 -1.97511E+04  4.90637E+03 -2.01372E+04 -9.75162E+03
 -1.17925E+04 -2.25769E+04  5.83966E+03 -2.79716E+04  1.85769E+04 -1.97729E+04  2.17416E+04 -1.13962E+03
  1.48260E+04  1.52511E+04 -9.86163E+02  2.29719E+04 -1.71813E+04  1.32866E+04 -2.30134E+04 -4.57715E+03
 -1.73137E+04 -2.09271E+04 -2.55343E+03 -2.71417E+04  1.25428E+04 -2.21981E+04  2.23786E+04 -1.18686E+04
  2.09160E+04 -4.33167E+02  1.54578E+04  5.36012E+03  7.95801E+03  1.12306E+03  1.27274E+04 -2.29879E+03
  2.18545E+04  3.08901E+03  2.53950E+04  1.78725E+04  1.70592E+04  3.66888E+04 -2.34379E+03  4.27272E+04
 -2.52400E+04  3.55254E+04 -4.08778E+04  1.88516E+04 -4.28909E+04 -2.82167E+03 -3.48758E+04 -2.53257E+04
 -1.38792E+04 -3.59580E+04  1.23425E+04 -3.22938E+04  2.63598E+04 -1.49681E+04  2.40642E+04  7.67816E+03
  8.70611E+03  1.85005E+04 -1.03402E+04  1.52025E+04 -1.99375E+04  2.19744E+03 -1.57189E+04 -1.20674E+04
 -4.06584E+02 -1.89427E+04  9.62155E+03 -1.39211E+04  1.21718E+04 -3.65864E+02  4.03023E+03  8.71354E+03
 -8.39544E+03  4.04858E+03 -9.05134E+03 -6.95399E+03 -1.00751E+03 -1.83571E+04  1.16320E+04 -1.89143E+04
  2.28319E+04 -1.07521E+04  2.48232E+04  3.44090E+03  2.20483E+04  1.85020E+04  1.00406E+04  2.88670E+04
 -5.65469E+03  3.10269E+04 -1.97766E+04  1.82497E+04 -2.19064E+04  3.93447E+03 -1.53455E+04 -5.62490E+03
 -7.03298E+03 -7.54890E+03 -9.16687E+02  6.46693E+02 -3.25272E+03  4.07600E+03 -6.72003E+03  5.85622E+03
 -1.39525E+04 -1.15405E+03 -1.44919E+04 -1.19982E+04 -4.98818E+03 -1.91420E+04  6.45866E+03 -1.50306E+04
  1.23678E+04 -6.36816E+03  8.89963E+03  4.31060E+03 -6.78833E+01  5.67586E+03 -7.13456E+03  3.45843E+02
 -7.87639E+03 -9.42547E+03 -1.09127E+03 -1.53721E+04  8.46519E+03 -1.59181E+04  1.89900E+04 -8.67378E+03
  2.27874E+04  2.08791E+03  1.67039E+04  1.46133E+04  3.42647E+03  1.81611E+04 -1.00200E+04  1.46121E+04
 -1.23681E+04  4.83133E+03 -6.21729E+03 -3.02586E+03  2.51888E+03 -4.38276E+03  7.31807E+03 -1.23131E+03
  7.42980E+03  6.55764E+03  1.49850E+03  1.21796E+04 -9.95950E+03  1.17670E+04 -1.48123E+04  2.58085E+03
 -9.69337E+03 -8.03352E+03  1.40969E+02 -1.20448E+04  8.44363E+03 -7.07649E+03  9.70325E+03  3.56686E+03
  2.36923E+03  9.93616E+03 -9.29684E+03  1.07240E+04 -1.27743E+04  4.91672E+03 -1.36980E+04 -4.40943E+03
 -7.35995E+03 -1.50465E+04  4.15590E+03 -1.83786E+04  1.48208E+04 -1.03704E+04  1.62762E+04  2.51132E+03
  9.30972E+03  1.30377E+04 -1.14165E+03  1.55328E+04 -1.08186E+04  8.99611E+03 -1.16459E+04 -2.00865E+03
 -1.02294E+04 -9.68790E+03 -1.97700E+03 -1.19332E+04  7.24875E+03 -8.67421E+03  7.73529E+03 -4.30613E+03
  5.05621E+03  1.48636E+03 -8.46928E+02  1.36351E+03 -3.38740E+02 -2.72762E+03  2.80806E+03 -7.56531E+03
  1.21292E+04 -5.31759E+03  1.43560E+04  2.63283E+03  1.58084E+04  1.12488E+04  1.01965E+04  2.01648E+04
 -4.80658E+03  2.37961E+04 -1.98131E+04  1.69249E+04 -2.49899E+04  2.90699E+03 -2.02627E+04 -1.00370E+04
 -9.97427E+03 -1.66397E+04  3.20622E+02 -1.39407E+04  5.32391E+03 -7.60419E+03  5.56344E+03 -4.60674E+03
  4.13716E+03 -3.60174E+03  3.67502E+03 -4.12475E+03  6.08376E+03 -3.56576E+03  7.65868E+03 -1.13316E+03
  1.03360E+04  2.33921E+03  5.33585E+03  9.08870E+03 -2.52866E+03  1.12684E+04 -1.04453E+04  8.31978E+03
 -1.43675E+04 -1.52052E+03 -8.80352E+03 -9.58316E+03 -1.25691E+03 -1.47673E+04  9.05733E+03 -1.52155E+04
  1.58370E+04 -8.09206E+03  1.89594E+04  2.86287E+03  1.32384E+04  1.28397E+04  2.38546E+03  1.74077E+04
 -7.20664E+03  1.44045E+04 -1.03005E+04  4.68024E+03 -6.78845E+03 -1.51714E+03 -3.04923E+03 -1.60938E+03
 -3.09521E+02 -4.73360E+02 -1.65750E+03  2.98611E+03 -5.95596E+03  1.59790E+03 -9.06836E+03 -1.46395E+03
 -6.90945E+03 -9.36200E+03  2.44443E+01 -1.41805E+04  9.15845E+03 -1.33794E+04  1.38032E+04 -3.80768E+03
  1.47627E+04  7.29236E+03  6.65552E+03  1.24281E+04 -3.37347E+03  1.44282E+04 -1.05400E+04  8.17642E+03
 -1.29728E+04  1.53103E+02 -9.46015E+03 -8.47548E+03 -1.15684E+03 -1.17254E+04  6.39907E+03 -9.05223E+03
  8.99121E+03 -3.40654E+03  6.25396E+03  2.84687E+03  2.23489E+03  5.04910E+03  1.14885E+03  3.03716E+03
  2.98497E+03  2.74274E+02  3.86527E+03  1.70295E+03  5.18475E+03  4.82850E+03  4.63384E+03  7.46133E+03
 -3.40876E+03  1.20649E+04 -1.05028E+04  1.16770E+04 -1.53666E+04  2.89614E+03 -1.55123E+04 -6.06796E+03
 -6.88573E+03 -1.48260E+04  1.35489E+03 -1.55384E+04  9.14632E+03 -1.04402E+04  1.23484E+04 -1.87492E+03
  8.99348E+03  5.49742E+03  1.92511E+03  7.93641E+03 -4.09807E+03  4.86060E+03 -6.46084E+03 -8.49365E+02
 -2.49533E+03 -6.68702E+03  3.69560E+03 -5.95966E+03  5.78402E+03 -3.10673E+03  6.08811E+03  1.07262E+03
  3.46967E+03  2.98068E+03  5.40683E+02  2.18283E+03 -8.90018E+02  2.63129E+03  1.64646E+03 -6.92730E+01
  3.40881E+03 -8.92154E+02  6.72515E+03  1.94222E+03  3.24933E+03  7.99790E+03 -6.78287E+02  9.83100E+03
 -6.46223E+03  7.46468E+03 -9.73589E+03  1.44446E+03 -8.68229E+03 -2.98806E+03 -3.37287E+03 -5.14851E+03
  1.37420E+03 -5.56171E+03  4.03549E+03 -2.24184E+03  3.40217E+03  3.29709E+03 -4.35278E+02  5.65301E+03
 -6.61073E+03  2.98961E+03 -7.04677E+03 -4.77238E+03 -4.25234E+03 -7.86582E+03  1.30685E+03 -8.09161E+03
  4.32555E+03 -5.35316E+03  5.53659E+03 -5.00702E+02  5.11462E+03  1.64770E+03  1.15595E+03  4.09199E+03
 -4.16581E+03  2.00528E+03 -3.69946E+03 -2.99024E+03  1.84535E+03 -6.17158E+03  7.20469E+03 -5.49944E+03
  9.55422E+03  1.30702E+03  8.72763E+03  7.19188E+03  2.99511E+03  9.87253E+03 -3.07067E+03  8.60082E+03
 -7.52983E+03  4.34323E+03 -7.95041E+03 -1.31019E+03 -4.34061E+03 -6.92215E+03  1.09158E+03 -5.74712E+03
  6.11460E+03 -3.03816E+03  5.73581E+03  2.85479E+03  1.33393E+03  4.85166E+03 -1.06548E+03  5.33305E+03
 -2.93798E+03  3.36682E+03 -2.23878E+03  4.52263E+02 -1.49543E+03  6.12662E+02 -1.13517E+03  2.93086E+03
 -2.62394E+03  4.22814E+03 -6.38189E+03  3.78667E+03 -9.69279E+03 -2.89383E+02 -1.12958E+04 -6.01146E+03
 -5.79001E+03 -1.26872E+04  3.10490E+03 -1.55335E+04  8.31521E+03 -1.14524E+04  1.40903E+04 -4.56948E+03
  1.28679E+04  3.00279E+03  7.99380E+03  9.65276E+03  4.79862E+02  1.05304E+04 -3.62840E+03  7.22957E+03
 -6.06141E+03  3.03570E+03 -3.67066E+03 -9.78293E+02 -1.59797E+03 -9.35010E+02 -1.42827E+03 -1.48993E+02
 -1.18742E+03  8.74666E+02 -1.70313E+03  3.60260E+01 -8.45203E+02 -2.51483E+03 -1.53006E+02 -3.33119E+03
  4.53793E+03 -3.19587E+03  5.93960E+03 -1.93429E+01  6.99464E+03  4.93597E+03  2.08701E+03  9.63313E+03
 -5.10063E+03  1.17400E+04 -1.06825E+04  6.72713E+03 -1.24404E+04 -8.42354E+02 -9.15725E+03 -7.33729E+03
 -3.75116E+03 -1.03427E+04  2.01742E+03 -9.14327E+03  6.75233E+03 -4.52558E+03  6.38801E+03  5.24303E+01
  3.29888E+03  3.65238E+03 -4.06277E+02  2.92770E+03 -1.38132E+03  9.20303E+01  1.55325E+02 -2.52558E+03
  3.00038E+03 -2.13677E+03  4.16034E+03  1.38050E+03  2.33107E+03  4.06828E+03 -2.60664E+02  4.91054E+03
 -3.74615E+03  4.77596E+03 -6.59583E+03 -6.09774E+01 -6.02365E+03 -4.38306E+03 -1.07771E+03 -8.97866E+03
  4.87265E+03 -7.22661E+03  7.93306E+03 -2.27401E+03  7.12194E+03  2.32469E+03  4.42512E+03  5.91750E+03
  1.55299E+03  6.04676E+03 -2.41275E+03  4.63263E+03 -4.92151E+03  2.71748E+03 -3.77248E+03  1.75443E+02
 -2.28009E+03  2.28362E+02 -1.85838E+03  6.45260E+02 -2.35447E+03  1.33325E+03 -5.56000E+03 -1.00430E+03
 -5.49373E+03 -3.92569E+03 -1.46780E+03 -6.68096E+03  2.74001E+03 -7.48345E+03  5.79489E+03 -3.46291E+03
  6.93630E+03  6.31890E+02  3.33331E+03  4.93182E+03 -5.19914E+02  6.62337E+03 -5.14136E+03  5.12706E+03
