 $NMID ID='MM_0lb_SNR400_19hz_g50_87.RAW', FMTDAT='(8E13.5)'
 TRAMP=1., VOLUME=1. $END
  3.09935E+05  4.55721E+02  3.37403E+05  2.50376E+05  8.44147E+04  3.37452E+05 -1.32562E+05  2.50201E+05
 -1.89941E+05  8.25657E+04 -1.11420E+05 -3.32239E+04  1.52138E+03 -5.04777E+04  5.39295E+04 -5.28515E+02
  3.43121E+04  5.33430E+04 -1.68237E+04  7.48394E+04 -6.02251E+04  6.29782E+04 -8.32537E+04  3.19930E+04
 -7.96658E+04 -1.08242E+04 -5.59592E+04 -5.08841E+04 -1.46917E+04 -6.85314E+04  2.67838E+04 -4.48324E+04
  3.91445E+04  3.42578E+03  1.51065E+04  4.74135E+04 -3.37795E+04  4.61011E+04 -6.60169E+04 -3.21956E+02
 -5.20010E+04 -5.59842E+04 -6.24682E+03 -7.55248E+04  3.36950E+04 -5.34741E+04  4.62792E+04 -1.61627E+04
  4.21798E+04  1.08268E+04  3.10652E+04  2.42341E+04  1.60093E+04  2.87884E+04 -5.03338E+03  2.67513E+04
 -2.20074E+04  1.29808E+04 -1.89815E+04 -4.38181E+03  4.11928E+03 -7.49601E+03  2.13108E+04  1.10982E+04
  7.31000E+03  3.29989E+04 -3.07843E+04  3.39026E+04 -6.13888E+04  2.28971E+03 -5.55429E+04 -4.18606E+04
 -1.27753E+04 -6.12316E+04  3.78831E+04 -4.34038E+04  5.54809E+04 -2.70435E+03  3.22914E+04  3.03440E+04
 -6.56504E+03  3.29135E+04 -2.89065E+04  1.33399E+04 -2.80599E+04 -5.31782E+03 -1.44072E+04 -1.02317E+04
 -7.91841E+03 -1.19124E+04 -7.79375E+02 -1.71696E+04  6.61280E+03 -2.25448E+04  1.50060E+04 -1.38483E+04
  1.21371E+04  4.22194E+03 -6.51908E+03  1.27652E+04 -1.95244E+04 -2.51520E+03 -8.21194E+03 -3.00387E+04
  2.12298E+04 -4.09277E+04  4.50964E+04 -1.92897E+04  4.21943E+04  1.80752E+04  1.42371E+04  4.19120E+04
 -1.53509E+04  3.10165E+04 -2.33605E+04  6.28502E+02 -7.54433E+03 -2.61861E+04  2.04920E+04 -3.13010E+04
  3.87229E+04 -7.57036E+03  3.17000E+04  2.25243E+04  1.49926E+04  4.27473E+04 -7.90285E+03  4.53557E+04
 -2.90309E+04  3.01303E+04 -3.74462E+04  8.56670E+03 -3.80330E+04 -1.48600E+04 -2.13584E+04 -3.38248E+04
  7.07114E+03 -3.40726E+04  2.93699E+04 -1.26349E+04  2.74799E+04  1.05324E+04  2.72355E+03  1.75789E+04
 -1.31043E+04  7.63219E+03 -9.51552E+03 -7.86266E+03  5.95806E+03 -1.01605E+04  1.70766E+04  6.75377E+03
  1.25164E+04  2.11152E+04 -7.14659E+03  2.35494E+04 -2.13422E+04  8.90973E+03 -2.53320E+04 -6.34099E+03
 -1.65394E+04 -1.58572E+04 -5.74442E+03 -1.67605E+04  3.87265E+03 -1.44626E+04  1.28120E+04 -1.44853E+04
  2.11539E+04 -1.20092E+04  2.80891E+04  8.06766E+02  2.11843E+04  1.58139E+04  4.27248E+03  3.31004E+04
 -1.61138E+04  2.76941E+04 -2.59717E+04  9.38713E+03 -1.99848E+04 -1.02934E+04 -3.06875E+03 -1.44314E+04
  2.54699E+03 -4.08294E+03 -2.35282E+03  5.95007E+03 -1.26459E+04  4.93408E+03 -1.33595E+04 -4.16998E+03
 -8.58076E+03 -1.56594E+04  4.45752E+03 -1.92081E+04  1.28805E+04 -1.43084E+04  1.43442E+04 -1.22842E+03
  8.59678E+03  1.06857E+04 -6.81168E+02  1.51524E+04 -1.03570E+04  8.66375E+03 -1.53428E+04 -3.63630E+03
 -1.12607E+04 -1.44277E+04 -1.15076E+03 -1.88732E+04  8.79887E+03 -1.55459E+04  1.63544E+04 -6.83580E+03
  1.42715E+04  1.20906E+03  1.02695E+04  3.84248E+03  5.17302E+03  8.97346E+02  7.76675E+03 -1.67362E+03
  1.38460E+04  3.29476E+03  1.51386E+04  1.21755E+04  8.81450E+03  2.46917E+04 -2.95728E+03  2.61872E+04
 -1.56999E+04  2.05440E+04 -2.42364E+04  9.36982E+03 -2.47213E+04 -2.09194E+03 -2.17708E+04 -1.39206E+04
 -1.03440E+04 -2.01421E+04  6.54603E+03 -1.86363E+04  1.64050E+04 -1.07639E+04  1.58300E+04  3.26794E+03
  6.66163E+03  1.13806E+04 -7.33248E+03  1.03435E+04 -1.32809E+04  2.93960E+03 -1.07820E+04 -7.88268E+03
 -1.05401E+02 -1.25821E+04  6.89340E+03 -8.89064E+03  8.15268E+03 -1.08000E+03  1.06324E+03  4.62675E+03
 -5.82909E+03  1.21264E+03 -3.47519E+03 -4.27528E+03  4.03239E+02 -1.02370E+04  7.71134E+03 -1.04212E+04
  1.19541E+04 -4.24504E+03  1.21299E+04  2.87394E+03  9.32855E+03  9.21199E+03  4.54609E+03  1.39211E+04
 -1.57242E+03  1.54677E+04 -9.37044E+03  1.01244E+04 -1.12562E+04  2.72599E+03 -8.36492E+03 -1.86795E+03
 -4.37231E+03 -2.99156E+03 -6.09342E+02  1.45667E+03 -1.87892E+03  2.01597E+03 -3.41569E+03  3.76564E+03
 -7.96142E+03 -4.39692E+02 -8.21045E+03 -6.81845E+03 -3.08346E+03 -1.12511E+04  3.48032E+03 -8.38166E+03
  7.05664E+03 -3.61333E+03  5.41618E+03  2.55400E+03  3.77304E+02  2.99823E+03 -3.43670E+03 -2.59342E+01
 -3.08326E+03 -4.96838E+03 -8.84146E+02 -6.96300E+03  3.81804E+03 -7.53955E+03  9.64395E+03 -3.64112E+03
  1.12745E+04  7.08125E+02  9.01404E+03  5.66836E+03  1.92369E+03  8.59755E+03 -5.18531E+03  8.16769E+03
 -6.60339E+03  3.10224E+03 -3.64070E+03 -1.14866E+03  1.52991E+03 -1.93101E+03  4.64382E+03 -8.56125E+02
  4.18328E+03  3.62812E+03  1.53001E+03  6.41924E+03 -4.51203E+03  6.28932E+03 -7.48353E+03  1.84366E+03
 -4.58461E+03 -3.48708E+03  5.10459E+02 -6.79583E+03  3.25612E+03 -3.29136E+03  3.41617E+03  1.96474E+03
  7.13927E+02  3.36747E+03 -4.01229E+03  4.99166E+03 -4.85031E+03  2.43282E+03 -4.24883E+03 -7.34008E+02
 -2.67431E+03 -6.39217E+03  1.00284E+03 -6.86320E+03  5.69881E+03 -4.49671E+03  6.48683E+03  9.79078E+02
  5.11848E+03  5.30107E+03  1.94377E+02  6.71715E+03 -4.45671E+03  4.27864E+03 -5.66992E+03 -3.26330E+02
 -5.72449E+03 -4.83537E+03 -1.61736E+03 -5.01268E+03  2.86918E+03 -4.58142E+03  2.90970E+03 -2.70276E+03
  2.60392E+03 -1.66648E+02 -1.29022E+01  1.71313E+03  5.74147E+02 -2.96259E+02 -4.17547E+02 -1.80021E+03
  3.41056E+03 -7.59230E+02  5.38371E+03  5.87074E+02  5.63026E+03  2.97325E+03  4.70351E+03  7.00383E+03
 -1.05468E+03  8.64020E+03 -7.47134E+03  6.63692E+03 -9.41078E+03  9.19639E+02 -7.55304E+03 -2.31152E+03
 -4.18236E+03 -5.86490E+03 -6.93966E+02 -4.80427E+03  2.18562E+03 -1.90617E+03  1.82258E+03 -2.30068E+03
  1.41634E+03 -1.73831E+03  1.54277E+03 -2.02142E+03  3.75113E+03 -1.22266E+03  3.52119E+03  1.03203E+02
  4.64370E+03  8.51720E+02  9.20911E+02  2.86478E+03 -1.69278E+03  3.23356E+03 -4.69336E+03  2.40455E+03
 -4.63272E+03 -9.54498E+02 -1.79350E+03 -3.36750E+03  6.97355E+02 -5.00968E+03  3.37411E+03 -5.25769E+03
  5.23056E+03 -2.76167E+03  6.76170E+03  1.11523E+02  5.02311E+03  3.47848E+03  1.17331E+03  6.13183E+03
 -1.77305E+03  5.35380E+03 -3.63868E+03  1.90404E+03 -1.45230E+03 -9.27716E+02 -4.27917E+02 -4.83127E+02
 -7.35625E+02  3.97713E+02 -7.01245E+02  2.68384E+03 -2.29509E+03  1.27986E+03 -4.27058E+03 -3.58276E+02
 -1.58814E+03 -4.83091E+03  9.28654E+02 -4.50540E+03  3.45735E+03 -3.74510E+03  3.87706E+03 -6.02585E+02
  3.70275E+03  2.40074E+03  2.26587E+03  3.00130E+03 -9.18128E+02  4.18237E+03 -2.15174E+03  2.75206E+03
 -3.77545E+03  8.54912E+02 -2.92324E+03 -2.24809E+03 -4.59172E+02 -2.98475E+03  1.62636E+03 -2.54213E+03
  2.63438E+03 -1.31526E+03  2.14273E+03  2.57823E+02  5.78742E+02  1.35579E+03  1.36010E+03  4.30919E+02
  1.22924E+03  3.02955E+02  1.25334E+03  1.20013E+03  1.16726E+03  2.09797E+03  8.43182E+02  1.50592E+03
 -8.76532E+02  2.95375E+03 -2.46176E+03  3.92284E+03 -2.47895E+03  9.33118E+02 -3.87885E+03 -7.51070E+02
 -2.04124E+03 -3.60224E+03  6.74137E+02 -3.95741E+03  2.17076E+03 -2.51884E+03  2.56542E+03 -8.21046E+02
  2.38646E+03  1.19134E+03  4.03384E+02  2.34674E+03 -9.99689E+02  1.13907E+03 -1.29768E+03  2.47260E+01
 -1.76432E+02 -1.13096E+03  1.04721E+03 -1.28483E+03  1.47023E+03 -3.11767E+02  1.07811E+03  6.60350E+02
  1.47605E+03  8.78098E+01  7.23485E+02 -1.40066E+02 -6.94157E+02  7.59208E+02  1.17359E+03  5.45109E+01
  1.03848E+02 -1.16898E+02  1.63449E+03  6.35355E+02 -3.95596E+00  2.40969E+03 -1.23313E+02  2.93872E+03
 -1.36954E+03  1.25576E+03 -2.23844E+03  5.19537E+01 -2.27215E+03  3.02104E+00 -9.13845E+01 -7.33498E+02
  4.63307E+02 -1.50490E+03  6.20889E+02 -5.16322E+02  2.01084E+02  1.60047E+03 -1.03604E+03  1.37082E+03
 -1.02184E+03  9.23391E+02 -9.47937E+02 -1.30367E+03 -3.41133E+02 -1.92507E+03  6.96353E+02 -1.17651E+03
  1.81451E+02 -6.93909E+02  1.66206E+02  3.17780E+02  8.70429E+02  4.32265E+02  2.06893E+02  6.90560E+02
 -6.62373E+02 -6.88721E+01 -5.17271E+02 -1.37566E+02  8.45043E+02 -2.00839E+02  1.76424E+03 -2.52313E+02
  1.13096E+03  4.86001E+01  2.80530E+03  3.06378E+02  5.42615E+02  1.42875E+03  9.79540E+01  1.84516E+03
 -1.64191E+03  6.15604E+02 -1.63299E+03 -7.54309E+00 -9.43926E+02 -1.39246E+03  1.78614E+02 -2.42866E+02
  1.81145E+03 -1.05699E+03  7.57175E+02  5.93837E+02  3.78692E+02  1.54979E+03  6.95571E+02  9.29365E+02
  4.07419E+02  6.51287E+02 -4.12453E+02  6.35155E+02 -8.11725E+01  7.32552E+01 -7.54825E+02  5.32705E+02
 -7.29699E+02  7.09229E+02 -2.44452E+03  4.16619E+02 -2.06255E+03  2.39227E+02 -2.46530E+03 -9.22218E+02
 -1.07965E+03 -2.11492E+03  3.42776E+02 -2.28740E+03  7.78143E+02 -2.83523E+03  2.50553E+03 -1.13702E+03
  2.33515E+03  3.36268E+02  8.87102E+02  1.30359E+03 -3.71284E+02  6.13919E+02 -9.54820E+02  9.58592E+02
 -9.21172E+02  1.15458E+03 -6.47574E+02 -5.03875E+02 -4.66759E+02  1.02615E+02 -1.09513E+03  3.73642E+02
 -7.99259E+02  2.17193E+01 -1.21466E+03  4.52176E+02 -4.07777E+02 -1.14362E+03 -3.89216E+02 -4.74096E+02
  1.28900E+03 -1.44440E+02  3.49928E+02  5.46308E+02  1.08432E+03  3.04871E+02 -4.36609E+02  1.43707E+03
 -8.95697E+02  1.83065E+03 -1.46628E+03  1.67888E+03 -1.10311E+03 -5.75432E+02 -1.14472E+03 -1.13176E+03
 -1.03378E+03 -8.33924E+02  4.00844E+02 -9.69154E+02  2.14308E+02 -4.24496E+02  9.57628E+01  2.66679E+02
  5.18709E+02  1.24258E+02  4.34747E+02  5.37413E+02 -3.09011E+02 -2.13049E+01 -5.96401E+01 -2.29214E+02
  3.12331E+02  4.10953E+02 -6.95497E+00  2.45043E+02  1.87670E+02  2.85260E+02  1.59207E+02 -3.20055E+02
 -8.27520E+02  9.55312E+02 -7.08649E+02 -2.28407E+02 -7.43315E+02  5.81564E+00 -2.51513E+01 -7.76390E+02
  6.75244E+02 -5.04646E+02  2.22251E+02  1.92983E+02  3.54365E+02 -6.67916E+02 -1.21862E+02  1.03772E+03
  1.47884E+01  8.31504E+02  2.19447E+02  6.62687E+02 -3.31750E+02  8.43624E+02 -4.63010E+02  5.93460E+02
 -3.07106E+01  4.17572E+02 -4.27963E+02  4.55536E+02 -1.85993E+02  2.07181E+02 -7.47947E+02 -5.43807E+02
 -1.08534E+03  7.19708E+02 -1.91084E+02 -1.22972E+03  6.76691E+02 -1.15121E+03  9.35910E+02 -3.36674E+02
  4.27762E+02  2.92377E+02 -2.48908E+02  3.06099E+02 -5.01400E+02  1.29679E+02 -3.55369E+02  4.11598E+02
