 $NMID ID='MM_0lb_SNR400_9hz_g50_93.RAW', FMTDAT='(8E13.5)'
 TRAMP=1., VOLUME=1. $END
  3.09179E+05  1.53577E+02  3.37806E+05  2.49821E+05  8.50470E+04  3.38975E+05 -1.32760E+05  2.52749E+05
 -1.91434E+05  8.45089E+04 -1.11701E+05 -3.29838E+04 -2.45958E+02 -5.04657E+04  5.31324E+04 -8.97252E+02
  3.59340E+04  5.27850E+04 -1.71894E+04  7.56992E+04 -6.08939E+04  6.42879E+04 -8.54776E+04  3.26424E+04
 -8.20207E+04 -1.22707E+04 -5.80374E+04 -5.15247E+04 -1.48734E+04 -7.12656E+04  2.77711E+04 -4.63014E+04
  4.09926E+04  3.60302E+03  1.64481E+04  4.82399E+04 -3.52442E+04  4.89485E+04 -6.80755E+04  6.60040E+02
 -5.47841E+04 -5.80362E+04 -6.80586E+03 -7.96645E+04  3.50078E+04 -5.71675E+04  4.98253E+04 -1.86253E+04
  4.49854E+04  1.15573E+04  3.26383E+04  2.68473E+04  1.68767E+04  3.07986E+04 -5.87241E+03  2.75829E+04
 -2.21446E+04  1.15973E+04 -1.80419E+04 -5.40535E+03  6.49573E+03 -8.18182E+03  2.27332E+04  1.38577E+04
  6.23711E+03  3.72313E+04 -3.42081E+04  3.72376E+04 -6.50241E+04  1.21937E+03 -5.88071E+04 -4.50809E+04
 -1.32499E+04 -6.54282E+04  4.13527E+04 -4.74468E+04  6.09659E+04 -2.79902E+03  3.64415E+04  3.40021E+04
 -5.48525E+03  4.00605E+04 -3.14952E+04  1.86161E+04 -3.33392E+04 -4.46107E+03 -1.93855E+04 -1.23477E+04
 -9.43448E+03 -1.51657E+04 -4.36846E+02 -2.02511E+04  7.88952E+03 -2.45532E+04  1.57779E+04 -1.20330E+04
  1.09220E+04  6.32637E+03 -1.01546E+04  1.27125E+04 -2.34038E+04 -6.30142E+03 -9.08139E+03 -3.72512E+04
  2.47894E+04 -4.77552E+04  5.26002E+04 -2.13649E+04  4.83236E+04  2.18946E+04  1.74352E+04  4.75679E+04
 -1.73782E+04  3.62733E+04 -2.76129E+04  3.03908E+03 -1.16565E+04 -2.99448E+04  2.21301E+04 -3.69424E+04
  4.41272E+04 -1.06568E+04  4.00444E+04  2.50513E+04  2.16940E+04  5.03348E+04 -8.45763E+03  5.57325E+04
 -3.52468E+04  3.83898E+04 -4.74914E+04  1.16138E+04 -4.72552E+04 -1.83720E+04 -2.47495E+04 -4.20631E+04
  8.22629E+03 -4.13358E+04  3.39081E+04 -1.69315E+04  3.21723E+04  1.08968E+04  5.09572E+03  2.01705E+04
 -1.45508E+04  1.02744E+04 -1.18348E+04 -8.09534E+03  5.66205E+03 -1.12987E+04  1.88081E+04  5.17738E+03
  1.45834E+04  2.24118E+04 -5.24443E+03  2.73439E+04 -2.26999E+04  1.46836E+04 -3.07191E+04 -1.67213E+03
 -2.47705E+04 -1.92008E+04 -1.19911E+04 -2.56754E+04  4.91883E+03 -2.55096E+04  1.98278E+04 -2.37018E+04
  3.22892E+04 -1.33455E+04  3.75618E+04  4.35369E+03  2.70506E+04  2.45261E+04  5.12097E+03  4.15994E+04
 -2.02266E+04  3.37609E+04 -3.06261E+04  1.26175E+04 -2.25790E+04 -9.80768E+03 -4.97187E+03 -1.27671E+04
  1.45052E+03 -1.75080E+03 -8.16346E+03  9.02863E+03 -2.05417E+04  4.82664E+03 -1.96140E+04 -9.78912E+03
 -1.19363E+04 -2.29632E+04  5.40789E+03 -2.77123E+04  1.87547E+04 -1.97983E+04  2.22034E+04 -1.89400E+03
  1.50670E+04  1.62625E+04 -1.55318E+03  2.35231E+04 -1.64330E+04  1.37033E+04 -2.33330E+04 -5.49225E+03
 -1.72928E+04 -2.12134E+04 -2.35463E+03 -2.83387E+04  1.22643E+04 -2.28020E+04  2.28691E+04 -1.25055E+04
  2.23670E+04  2.48887E+02  1.59712E+04  4.84571E+03  9.26753E+03  1.62815E+03  1.18854E+04 -2.81332E+03
  2.25296E+04  3.08998E+03  2.56022E+04  1.78734E+04  1.77909E+04  3.70507E+04 -2.67412E+03  4.45797E+04
 -2.53465E+04  3.69624E+04 -4.17270E+04  1.95895E+04 -4.40564E+04 -3.94940E+03 -3.54880E+04 -2.62214E+04
 -1.43955E+04 -3.72472E+04  1.27282E+04 -3.23362E+04  2.79031E+04 -1.52763E+04  2.46262E+04  8.24721E+03
  8.41646E+03  1.87716E+04 -1.15918E+04  1.53552E+04 -1.94471E+04  3.15454E+03 -1.51681E+04 -1.31303E+04
 -9.16932E+02 -1.89659E+04  1.04130E+04 -1.34706E+04  1.34780E+04 -1.07820E+03  3.80884E+03  9.45862E+03
 -8.40761E+03  4.09254E+03 -9.00177E+03 -7.45792E+03 -2.68154E+03 -1.86129E+04  1.15803E+04 -2.01780E+04
  2.28416E+04 -1.06382E+04  2.61600E+04  2.68107E+03  2.30443E+04  1.85157E+04  1.03609E+04  2.91933E+04
 -5.52654E+03  3.12912E+04 -2.02684E+04  1.92376E+04 -2.24827E+04  3.92857E+03 -1.57556E+04 -5.62964E+03
 -6.53457E+03 -7.62348E+03 -5.94713E+02 -3.59169E+02 -2.67932E+03  2.70381E+03 -6.75210E+03  5.50034E+03
 -1.44660E+04 -1.33871E+03 -1.58777E+04 -1.09871E+04 -5.83732E+03 -1.93435E+04  6.48562E+03 -1.63330E+04
  1.29560E+04 -6.72360E+03  9.36225E+03  4.31578E+03  1.13925E+02  6.26759E+03 -8.40295E+03 -2.60306E+02
 -6.64776E+03 -1.00686E+04 -1.72869E+03 -1.50637E+04  9.23846E+03 -1.64895E+04  1.96169E+04 -8.09674E+03
  2.39077E+04  2.80759E+03  1.73766E+04  1.44296E+04  2.72647E+03  1.91319E+04 -9.18165E+03  1.49790E+04
 -1.35005E+04  5.15517E+03 -6.14311E+03 -3.40941E+03  1.78862E+03 -5.24570E+03  7.79292E+03 -9.81639E+02
  8.05049E+03  7.40901E+03  1.68906E+03  1.35046E+04 -9.14953E+03  1.20281E+04 -1.53981E+04  2.17742E+03
 -1.15307E+04 -8.15393E+03  4.33964E+02 -1.35943E+04  8.99566E+03 -7.20973E+03  8.63895E+03  2.82917E+03
  2.06133E+03  1.01717E+04 -8.40608E+03  1.21532E+04 -1.33545E+04  4.54918E+03 -1.42596E+04 -5.38396E+03
 -8.60266E+03 -1.55556E+04  3.43840E+03 -1.83646E+04  1.58451E+04 -1.13411E+04  1.65498E+04  2.85843E+03
  1.09719E+04  1.36160E+04 -7.94615E+02  1.65000E+04 -1.17247E+04  9.22128E+03 -1.31734E+04 -4.40729E+02
 -1.06760E+04 -1.06606E+04 -1.48769E+03 -1.26273E+04  5.90868E+03 -9.57904E+03  8.24421E+03 -2.70449E+03
  5.14642E+03  1.78836E+03 -2.22486E+03  1.70910E+03 -5.12106E+02 -2.93849E+03  2.51877E+03 -7.09427E+03
  1.16573E+04 -5.31468E+03  1.61989E+04  2.11883E+03  1.61758E+04  1.10446E+04  1.03849E+04  2.20242E+04
 -5.24751E+03  2.40067E+04 -1.99135E+04  1.78980E+04 -2.61121E+04  4.03702E+03 -2.09733E+04 -8.91486E+03
 -1.06618E+04 -1.68705E+04 -9.26445E+01 -1.46046E+04  5.68590E+03 -8.07805E+03  5.22619E+03 -5.29213E+03
  4.26449E+03 -3.13083E+03  4.45081E+03 -3.57990E+03  5.74363E+03 -2.74304E+03  8.16709E+03 -1.42457E+03
  1.00859E+04  2.12349E+03  5.96291E+03  1.02878E+04 -1.73419E+03  1.14580E+04 -1.22702E+04  8.74726E+03
 -1.43365E+04 -1.43279E+03 -9.93520E+03 -1.02397E+04 -2.03930E+03 -1.66039E+04  8.21437E+03 -1.61992E+04
  1.58680E+04 -8.19815E+03  1.92640E+04  2.69151E+03  1.35074E+04  1.52103E+04  1.96367E+03  1.75394E+04
 -7.79230E+03  1.47183E+04 -1.03843E+04  5.32286E+03 -6.98997E+03 -1.39045E+03 -3.63969E+03 -1.21139E+03
 -1.59401E+03  1.10578E+02 -1.98255E+03  2.55393E+03 -6.26982E+03  2.54622E+03 -1.00341E+04 -1.22756E+03
 -7.92928E+03 -9.64100E+03 -3.52077E+02 -1.49721E+04  8.90016E+03 -1.40783E+04  1.54922E+04 -3.93237E+03
  1.40608E+04  7.38392E+03  7.29573E+03  1.30251E+04 -2.87820E+03  1.44078E+04 -1.02978E+04  9.17658E+03
 -1.42735E+04  1.21057E+03 -1.02060E+04 -9.24650E+03 -1.33834E+03 -1.34142E+04  6.98376E+03 -9.22341E+03
  9.46767E+03 -3.16097E+03  6.30470E+03  2.84206E+03  2.03581E+03  4.58955E+03  1.48086E+03  2.58437E+03
  2.53639E+03  1.44655E+03  3.56342E+03  2.30841E+03  4.50682E+03  4.99247E+03  3.52480E+03  7.40918E+03
 -3.61377E+03  1.16221E+04 -1.01698E+04  1.20659E+04 -1.63664E+04  3.24892E+03 -1.58109E+04 -7.09127E+03
 -7.65262E+03 -1.58928E+04  2.71885E+03 -1.60579E+04  8.66649E+03 -1.05682E+04  1.20661E+04 -3.30330E+03
  1.01060E+04  5.41932E+03  1.41673E+03  8.41916E+03 -4.52025E+03  5.80086E+03 -5.55807E+03 -1.42216E+03
 -2.57688E+03 -6.81813E+03  3.73610E+03 -7.34891E+03  6.34019E+03 -2.85329E+03  5.71182E+03  2.15124E+03
  3.48300E+03  3.15532E+03  1.90318E+03  2.61180E+03  2.02458E+02  2.55070E+03  2.39138E+03 -7.91643E+02
  2.66813E+03 -8.23638E+02  5.44192E+03  2.42849E+03  3.51990E+03  8.53964E+03 -9.24065E+02  1.05486E+04
 -7.13593E+03  8.11241E+03 -9.38955E+03  2.30925E+03 -8.63593E+03 -3.16366E+03 -3.63924E+03 -5.26858E+03
  6.82455E+02 -5.70918E+03  3.86850E+03 -2.03367E+03  3.34060E+03  2.87373E+03 -1.91716E+03  5.15738E+03
 -6.31971E+03  3.59390E+03 -7.65400E+03 -3.57898E+03 -4.22216E+03 -8.38561E+03  1.10054E+03 -8.87119E+03
  5.80729E+03 -5.38893E+03  5.54399E+03 -4.44287E+02  5.20641E+03  2.65618E+03  5.44151E+02  4.16389E+03
 -2.64393E+03  1.32973E+03 -4.24339E+03 -3.74567E+03  8.37426E+02 -6.22721E+03  8.38572E+03 -3.96960E+03
  1.02439E+04  1.18485E+03  9.22568E+03  6.64050E+03  3.61501E+03  9.68434E+03 -3.65935E+03  9.57982E+03
 -8.30061E+03  4.75171E+03 -8.35052E+03 -1.67437E+03 -4.35005E+03 -6.62841E+03  1.74596E+03 -6.52673E+03
  7.17623E+03 -2.87699E+03  5.37812E+03  2.29180E+03  1.24556E+03  4.94887E+03 -1.56122E+02  4.61357E+03
 -2.72103E+03  2.91715E+03 -2.92169E+03  1.38863E+03 -5.34795E+02  9.12466E+02 -1.65961E+03  1.96864E+03
 -3.03380E+03  4.03990E+03 -6.92306E+03  3.19919E+03 -9.62379E+03 -1.28935E+02 -1.17847E+04 -7.20874E+03
 -6.23668E+03 -1.35601E+04  2.63237E+03 -1.52553E+04  9.11016E+03 -1.23133E+04  1.56220E+04 -3.96268E+03
  1.35371E+04  2.58677E+03  7.76827E+03  9.18593E+03  1.54583E+03  1.02929E+04 -4.48846E+03  8.53982E+03
 -5.63577E+03  3.04067E+03 -3.62994E+03 -1.51114E+03 -1.96669E+03 -9.14951E+02 -1.53714E+02  2.54399E+02
 -1.68266E+03  7.21916E+02 -2.00668E+03 -3.87155E+02 -1.58383E+03 -2.35780E+03  6.97689E+02 -4.79679E+03
  4.48953E+03 -3.71243E+03  6.21014E+03  6.14922E+02  7.58978E+03  5.25275E+03  1.41792E+03  1.00242E+04
 -4.97969E+03  1.27503E+04 -1.16201E+04  7.04862E+03 -1.22136E+04  1.96752E+02 -9.81348E+03 -7.03733E+03
 -4.37661E+03 -1.07230E+04  2.78596E+03 -9.60241E+03  6.46820E+03 -4.52650E+03  7.46430E+03  5.25007E+02
  3.36977E+03  2.80652E+03 -2.03499E+02  3.01773E+03 -1.71029E+03 -2.01332E+02 -6.03265E+02 -3.07861E+03
  3.33340E+03 -1.84797E+03  3.78132E+03  5.76673E+02  2.96349E+03  5.06354E+03 -1.67221E+02  5.63794E+03
 -4.79192E+03  4.38074E+03 -7.41487E+03 -7.08478E+01 -6.31526E+03 -4.93746E+03 -1.38741E+03 -8.84548E+03
  4.55005E+03 -7.09536E+03  8.70598E+03 -1.89318E+03  8.19980E+03  2.40502E+03  4.74579E+03  7.03462E+03
  2.33491E+02  7.01089E+03 -2.93902E+03  5.85619E+03 -4.70706E+03  3.04681E+03 -3.43796E+03  1.30501E+03
 -1.45321E+03 -2.18394E+02 -2.00574E+03  1.53941E+03 -2.97038E+03  9.54890E+02 -5.89147E+03 -9.45236E+02
 -4.83004E+03 -3.02322E+03 -1.18008E+03 -7.22333E+03  3.33200E+03 -8.36095E+03  6.02786E+03 -3.69244E+03
  7.28483E+03  1.01003E+03  4.03962E+03  4.59794E+03  5.21131E+02  7.25451E+03 -4.55839E+03  4.38114E+03
