 $NMID ID='MM_0lb_SNR400_16hz_g55_64.RAW', FMTDAT='(8E13.5)'
 TRAMP=1., VOLUME=1. $END
  3.09620E+05  4.82135E+02  3.37295E+05  2.50731E+05  8.42316E+04  3.37901E+05 -1.32530E+05  2.50877E+05
 -1.90079E+05  8.31856E+04 -1.11232E+05 -3.23205E+04  8.40149E+02 -5.01956E+04  5.35805E+04  3.37433E+02
  3.53462E+04  5.24530E+04 -1.73340E+04  7.48321E+04 -6.02931E+04  6.35513E+04 -8.42320E+04  3.25216E+04
 -8.01364E+04 -1.15534E+04 -5.75588E+04 -5.08269E+04 -1.51378E+04 -6.99141E+04  2.77637E+04 -4.58440E+04
  3.98932E+04  3.81818E+03  1.61837E+04  4.77053E+04 -3.42250E+04  4.74538E+04 -6.66422E+04 -2.60268E+02
 -5.30779E+04 -5.69564E+04 -6.83307E+03 -7.63785E+04  3.39780E+04 -5.50307E+04  4.74592E+04 -1.72594E+04
  4.28480E+04  1.15623E+04  3.22242E+04  2.58595E+04  1.55250E+04  2.93592E+04 -5.27052E+03  2.66023E+04
 -2.22426E+04  1.25515E+04 -1.90700E+04 -4.01750E+03  4.97185E+03 -7.35401E+03  2.19315E+04  1.21326E+04
  7.14954E+03  3.49303E+04 -3.21178E+04  3.54377E+04 -6.32461E+04  2.12704E+03 -5.69463E+04 -4.23180E+04
 -1.22426E+04 -6.26316E+04  3.93738E+04 -4.58399E+04  5.73316E+04 -2.31865E+03  3.42514E+04  3.19818E+04
 -5.98000E+03  3.55849E+04 -2.98722E+04  1.58968E+04 -3.04302E+04 -4.87566E+03 -1.67454E+04 -1.11922E+04
 -8.49638E+03 -1.29165E+04 -1.45422E+03 -1.77198E+04  7.84727E+03 -2.28398E+04  1.51100E+04 -1.36220E+04
  1.13810E+04  4.61536E+03 -8.15973E+03  1.28215E+04 -2.11371E+04 -4.60122E+03 -8.24390E+03 -3.34465E+04
  2.29709E+04 -4.32009E+04  4.81336E+04 -1.98515E+04  4.45254E+04  1.94705E+04  1.52551E+04  4.39538E+04
 -1.60255E+04  3.29270E+04 -2.47794E+04  1.93681E+03 -9.88040E+03 -2.73942E+04  2.16140E+04 -3.30488E+04
  4.08445E+04 -8.74348E+03  3.49666E+04  2.38517E+04  1.78721E+04  4.54066E+04 -8.03480E+03  4.94127E+04
 -3.08804E+04  3.32626E+04 -4.12161E+04  9.35523E+03 -4.13098E+04 -1.62214E+04 -2.31050E+04 -3.71932E+04
  7.34952E+03 -3.69698E+04  3.08021E+04 -1.44450E+04  2.83763E+04  1.11625E+04  3.87924E+03  1.87619E+04
 -1.34411E+04  8.16642E+03 -1.03045E+04 -7.83258E+03  5.70413E+03 -1.02559E+04  1.82470E+04  5.79157E+03
  1.29559E+04  2.18710E+04 -6.58645E+03  2.46915E+04 -2.25731E+04  1.06019E+04 -2.75774E+04 -4.96933E+03
 -2.00819E+04 -1.72435E+04 -8.02168E+03 -1.98724E+04  4.10797E+03 -1.89797E+04  1.46923E+04 -1.81107E+04
  2.47109E+04 -1.26197E+04  3.19842E+04  1.88056E+03  2.30377E+04  1.92857E+04  4.56651E+03  3.50639E+04
 -1.76621E+04  2.94299E+04 -2.73574E+04  1.01977E+04 -2.09973E+04 -1.06547E+04 -4.17393E+03 -1.40759E+04
  1.82843E+03 -2.67439E+03 -3.93218E+03  5.89604E+03 -1.52161E+04  5.42131E+03 -1.56714E+04 -6.84622E+03
 -9.70683E+03 -1.82379E+04  4.84675E+03 -2.21363E+04  1.45597E+04 -1.57545E+04  1.67659E+04 -1.70961E+03
  1.03616E+04  1.31040E+04 -1.50962E+03  1.79627E+04 -1.22598E+04  1.07652E+04 -1.85027E+04 -4.11310E+03
 -1.30408E+04 -1.66583E+04 -1.56990E+03 -2.20036E+04  1.00538E+04 -1.75967E+04  1.80048E+04 -8.67963E+03
  1.70557E+04  8.56887E+01  1.22577E+04  4.54388E+03  6.55550E+03  1.04494E+03  9.04144E+03 -1.04165E+03
  1.61005E+04  3.46573E+03  1.77800E+04  1.52099E+04  1.15862E+04  2.93729E+04 -3.74209E+03  3.22947E+04
 -1.87495E+04  2.53209E+04 -2.94742E+04  1.22157E+04 -3.10897E+04 -2.32372E+03 -2.51903E+04 -1.82918E+04
 -1.11493E+04 -2.52714E+04  8.73193E+03 -2.37221E+04  1.97024E+04 -1.28434E+04  1.83027E+04  5.34198E+03
  7.12224E+03  1.37107E+04 -8.65793E+03  1.17774E+04 -1.54681E+04  2.36029E+03 -1.18725E+04 -9.35991E+03
 -3.78104E+02 -1.48847E+04  7.38458E+03 -1.11914E+04  9.64242E+03 -1.26606E+03  1.76024E+03  6.00803E+03
 -7.05611E+03  1.70599E+03 -4.86733E+03 -5.30906E+03  2.80652E+01 -1.31757E+04  9.05390E+03 -1.24266E+04
  1.52279E+04 -6.21075E+03  1.60228E+04  2.67287E+03  1.39558E+04  1.31038E+04  6.32033E+03  1.81702E+04
 -2.45076E+03  2.01782E+04 -1.30766E+04  1.26667E+04 -1.46814E+04  3.30818E+03 -1.07422E+04 -3.28586E+03
 -4.73731E+03 -4.85510E+03 -1.50618E+03  1.14625E+03 -2.07234E+03  2.60585E+03 -4.72814E+03  4.01759E+03
 -9.68168E+03 -4.26227E+02 -1.04253E+04 -8.69843E+03 -4.09794E+03 -1.42099E+04  3.84189E+03 -9.73998E+03
  8.89190E+03 -5.24385E+03  6.39553E+03  2.99899E+03  3.11470E+01  3.91467E+03 -5.29197E+03  3.24905E+02
 -4.59140E+03 -6.18257E+03 -1.36351E+03 -9.77961E+03  5.77530E+03 -1.02007E+04  1.26473E+04 -5.17217E+03
  1.51044E+04  9.15834E+02  1.12623E+04  8.45063E+03  1.93140E+03  1.13868E+04 -6.19717E+03  1.06909E+04
 -8.57010E+03  2.49204E+03 -4.39219E+03 -1.88810E+03  1.33866E+03 -2.39301E+03  5.67880E+03 -3.75234E+02
  5.17193E+03  4.00783E+03  1.45456E+03  8.51998E+03 -6.03437E+03  7.99802E+03 -9.54735E+03  2.19927E+03
 -6.47369E+03 -5.30830E+03 -2.67831E+02 -8.30454E+03  4.59359E+03 -4.14583E+03  5.20906E+03  1.05148E+03
  1.20057E+03  5.34995E+03 -4.66707E+03  6.72853E+03 -7.26552E+03  3.26778E+03 -6.64662E+03 -1.59903E+03
 -4.17319E+03 -8.48999E+03  2.09322E+03 -9.06726E+03  7.81375E+03 -6.26767E+03  9.24585E+03  7.30063E+02
  5.41595E+03  7.38841E+03 -6.29841E+02  9.52420E+03 -7.32761E+03  5.16695E+03 -7.39050E+03 -5.90920E+02
 -7.61384E+03 -6.28021E+03 -1.24022E+03 -7.04904E+03  3.60872E+03 -5.43713E+03  3.83306E+03 -3.37221E+03
  3.49232E+03  7.39455E+02 -1.50453E+02  1.01797E+03  5.40122E+02 -1.19805E+03  7.19665E+02 -3.24128E+03
  5.62624E+03 -2.29734E+03  7.89312E+03  9.76038E+02  8.24939E+03  5.07631E+03  5.85408E+03  1.00567E+04
 -2.55459E+03  1.17939E+04 -1.04835E+04  8.93215E+03 -1.32857E+04  1.26505E+03 -1.13676E+04 -4.38450E+03
 -5.73882E+03 -9.12146E+03 -2.08562E+02 -7.48274E+03  2.58594E+03 -3.27653E+03  2.51853E+03 -2.73796E+03
  1.84168E+03 -1.67896E+03  3.06602E+03 -2.65065E+03  4.10721E+03 -1.54364E+03  4.10422E+03  3.28467E+02
  5.70361E+03  1.99563E+03  2.10446E+03  4.95913E+03 -1.10288E+03  5.01410E+03 -5.81904E+03  3.87500E+03
 -6.87276E+03 -1.02660E+03 -3.60893E+03 -4.63216E+03  2.93423E+00 -7.46509E+03  4.61760E+03 -7.74116E+03
  7.20626E+03 -4.52291E+03  9.07130E+03  1.31269E+03  6.94490E+03  6.38955E+03  1.49806E+03  8.87460E+03
 -3.22903E+03  7.78980E+03 -4.62625E+03  2.29294E+03 -3.40611E+03 -1.42638E+03 -1.26605E+03 -6.07939E+02
 -4.37147E+02  2.72962E+02 -1.21686E+03  2.26826E+03 -3.54442E+03  1.30164E+03 -5.33572E+03 -1.02623E+03
 -2.53753E+03 -5.61299E+03  7.75894E+02 -6.50289E+03  4.21798E+03 -6.39118E+03  5.88649E+03 -1.44284E+03
  6.49203E+03  3.15795E+03  2.73448E+03  5.06012E+03 -1.40514E+03  7.05201E+03 -3.79106E+03  4.07973E+03
 -5.66551E+03  6.55687E+02 -4.88713E+03 -3.48114E+03 -2.53720E+02 -4.83714E+03  2.88619E+03 -3.13193E+03
  3.96195E+03 -1.39781E+03  2.88228E+03  7.31321E+02  6.02759E+02  2.20140E+03  6.96122E+02  8.18089E+02
  1.76576E+03  7.57413E+02  1.60799E+03  1.21403E+03  1.34642E+03  2.02159E+03  1.69789E+03  3.79454E+03
 -1.86005E+03  4.52094E+03 -4.22521E+03  5.36324E+03 -4.85562E+03  1.89513E+03 -6.43714E+03 -1.75055E+03
 -2.51783E+03 -5.65804E+03  7.57405E+02 -7.72090E+03  3.18027E+03 -4.25181E+03  4.86695E+03 -7.89436E+02
  3.53645E+03  2.59138E+03  1.36369E+03  3.51853E+03 -1.44504E+03  1.94619E+03 -1.54952E+03 -2.12264E+02
 -2.31137E+02 -2.68451E+03  9.15677E+02 -2.10813E+03  2.62809E+03 -1.30179E+03  2.71306E+03  4.70329E+02
  1.92874E+03  4.71109E+02  1.05273E+03  2.83316E+02 -4.60148E+02  8.09410E+02  1.75686E+03 -6.38845E+02
 -1.71064E+01 -1.11264E+02  1.89527E+03  7.57165E+02  5.10518E+02  3.57058E+03 -4.79366E+02  3.77176E+03
 -3.19594E+03  1.95922E+03 -3.35189E+03  1.21541E+03 -3.09115E+03 -8.55836E+02 -1.03553E+03 -1.55599E+03
  5.74110E+02 -2.40806E+03  1.58128E+03 -1.12100E+03  1.05174E+03  1.74288E+03 -1.28814E+03  1.58987E+03
 -2.07658E+03  1.20016E+03 -1.79149E+03 -1.33372E+03 -1.18635E+03 -2.99891E+03  4.08351E+02 -2.93010E+03
  1.13974E+03 -1.44993E+03  1.75418E+03  1.32020E+02  1.96985E+03  6.73148E+02  4.30620E+02  1.02371E+03
 -7.26540E+02  1.02334E+02 -1.84747E+03 -2.86254E+02  8.06061E+02 -1.75306E+03  2.06878E+03 -1.69074E+03
  2.52713E+03 -2.37060E+02  3.70440E+03  1.20647E+03  1.77512E+03  2.89447E+03 -7.55231E+02  3.39230E+03
 -2.09402E+03  3.25650E+02 -2.26221E+03 -8.37614E+02 -8.75087E+02 -1.73597E+03 -8.96412E+01 -1.72819E+03
  2.28423E+03 -1.58263E+03  1.58314E+03  5.76483E+02 -3.46890E+02  1.95507E+03  8.88496E+01  1.75460E+03
 -6.25053E+02  1.19985E+03 -1.04328E+03  1.25119E+02  1.28444E+02  6.07867E+02 -1.15187E+03  8.14527E+02
 -1.67848E+03  4.76521E+02 -1.64446E+03  1.09097E+03 -2.95130E+03  2.84175E+02 -3.65004E+03 -1.48898E+03
 -1.40931E+03 -4.02610E+03  9.30834E+02 -4.82594E+03  2.31691E+03 -3.39903E+03  4.07262E+03 -1.39232E+03
  4.18277E+03  5.44418E+02  1.86339E+03  2.62412E+03 -8.23361E+02  2.44031E+03 -1.02287E+03  2.09105E+03
 -1.56969E+03  1.21967E+03 -6.07068E+02 -1.49601E+02 -2.23275E+02  2.68970E+02 -1.12737E+03  3.17471E+02
 -1.02879E+03 -1.66630E+02 -1.04274E+03 -2.83605E+02 -6.55171E+01 -1.07030E+02 -3.83685E+02 -9.35111E+02
  1.76793E+03 -6.25211E+02  1.00124E+03  2.55516E+02  2.20585E+03  1.31413E+03 -3.42362E+01  2.50337E+03
 -9.38402E+02  3.49227E+03 -2.22986E+03  2.44707E+03 -3.03751E+03  1.58911E+02 -2.43810E+03 -1.78374E+03
 -1.28916E+03 -2.30666E+03  4.61625E+02 -2.45381E+03  1.53403E+03 -1.17664E+03  1.21261E+03  2.41794E+02
  1.43312E+03  2.23853E+02 -3.17166E+02  2.39278E+02 -5.84831E+02  4.23050E+02 -3.59540E+02 -7.93462E+02
  4.48494E+02  9.16815E+01  4.35107E+02  8.89542E+02  6.04325E+02  8.44670E+02  7.97678E+01  8.10668E+02
 -8.09760E+02  7.82267E+02 -2.31957E+03 -1.93461E+02 -1.67042E+03 -8.01762E+02  6.99467E+01 -2.33567E+03
  9.73233E+02 -1.46982E+03  1.01705E+03 -9.77414E+02  1.99976E+03  1.52079E+02  9.87802E+02  9.50116E+02
  4.54529E+02  1.49784E+03 -2.99891E+02  8.91654E+02 -4.48750E+02  7.24986E+02 -9.06649E+02  3.70260E+02
 -5.40161E+01 -4.70516E+01 -2.93182E+02  1.99408E+02 -6.69357E+02  3.67166E+02 -1.41869E+03 -1.17862E+02
 -1.64455E+03  4.41426E+01 -9.67428E+02 -1.78218E+03  4.42507E+02 -2.55658E+03  1.13704E+03 -3.67100E+02
  1.68227E+03  2.95971E+02 -3.62283E+02  9.49761E+02 -2.89961E+02  1.44832E+03 -1.45642E+03  1.55442E+03
