 $NMID ID='MM_0lb_SNR400_11hz_g40_80.RAW', FMTDAT='(8E13.5)'
 TRAMP=1., VOLUME=1. $END
  3.09514E+05 -4.46695E+02  3.38008E+05  2.50510E+05  8.48960E+04  3.38031E+05 -1.32697E+05  2.51531E+05
 -1.90482E+05  8.38116E+04 -1.12236E+05 -3.27504E+04  5.93027E+02 -4.99811E+04  5.37083E+04  3.36358E+01
  3.55360E+04  5.32338E+04 -1.67431E+04  7.57624E+04 -6.09300E+04  6.39396E+04 -8.45060E+04  3.20562E+04
 -8.13809E+04 -1.18406E+04 -5.70972E+04 -5.16931E+04 -1.50202E+04 -6.98197E+04  2.81426E+04 -4.62846E+04
  4.06179E+04  4.32537E+03  1.66116E+04  4.85919E+04 -3.45140E+04  4.76512E+04 -6.69757E+04 -7.80342E+02
 -5.34533E+04 -5.78744E+04 -6.80700E+03 -7.79807E+04  3.39175E+04 -5.57937E+04  4.84594E+04 -1.79637E+04
  4.37040E+04  1.16823E+04  3.20655E+04  2.57653E+04  1.55351E+04  2.97784E+04 -5.67536E+03  2.79294E+04
 -2.32655E+04  1.21764E+04 -1.82391E+04 -4.83947E+03  5.75230E+03 -7.75468E+03  2.27596E+04  1.30215E+04
  7.16806E+03  3.59443E+04 -3.26408E+04  3.55179E+04 -6.48504E+04  2.55817E+03 -5.79634E+04 -4.38026E+04
 -1.26925E+04 -6.38335E+04  4.06977E+04 -4.63759E+04  6.01160E+04 -2.63241E+03  3.49997E+04  3.28751E+04
 -5.81089E+03  3.78426E+04 -3.06059E+04  1.69359E+04 -3.18453E+04 -3.94307E+03 -1.75463E+04 -1.15271E+04
 -8.80054E+03 -1.40498E+04 -4.57385E+02 -1.92772E+04  7.68944E+03 -2.33621E+04  1.48373E+04 -1.33161E+04
  1.11672E+04  5.89002E+03 -8.46112E+03  1.27695E+04 -2.18787E+04 -4.91538E+03 -8.92334E+03 -3.56508E+04
  2.36957E+04 -4.42308E+04  4.97192E+04 -2.02716E+04  4.63290E+04  1.99868E+04  1.64993E+04  4.56556E+04
 -1.67760E+04  3.42830E+04 -2.60229E+04  2.62807E+03 -1.02886E+04 -2.82858E+04  2.11309E+04 -3.47956E+04
  4.25022E+04 -9.94179E+03  3.69210E+04  2.50076E+04  1.97186E+04  4.80778E+04 -8.22671E+03  5.23707E+04
 -3.34047E+04  3.56387E+04 -4.40047E+04  9.91670E+03 -4.45377E+04 -1.76470E+04 -2.42896E+04 -3.99866E+04
  6.85092E+03 -3.94640E+04  3.24640E+04 -1.57200E+04  3.04111E+04  1.04536E+04  4.62366E+03  2.12528E+04
 -1.41392E+04  9.07980E+03 -1.04744E+04 -7.44528E+03  5.56284E+03 -1.19171E+04  1.84761E+04  5.43569E+03
  1.36975E+04  2.25739E+04 -5.86254E+03  2.61649E+04 -2.31000E+04  1.26574E+04 -2.86129E+04 -3.97639E+03
 -2.23219E+04 -1.81281E+04 -9.96086E+03 -2.23037E+04  4.28685E+03 -2.16864E+04  1.79019E+04 -2.10538E+04
  2.85484E+04 -1.30818E+04  3.45371E+04  4.14249E+03  2.54217E+04  2.13456E+04  4.77684E+03  3.78240E+04
 -1.85714E+04  3.22776E+04 -2.90160E+04  1.06510E+04 -2.27427E+04 -9.79799E+03 -5.02726E+03 -1.40326E+04
  2.10241E+03 -2.28949E+03 -6.60519E+03  6.74573E+03 -1.81375E+04  5.13454E+03 -1.80053E+04 -8.47651E+03
 -1.00221E+04 -2.15912E+04  5.57633E+03 -2.46564E+04  1.66000E+04 -1.81504E+04  2.07066E+04 -1.55392E+03
  1.23103E+04  1.44743E+04 -1.09907E+03  1.98253E+04 -1.45727E+04  1.18360E+04 -2.10186E+04 -4.57331E+03
 -1.60041E+04 -1.85802E+04 -2.16554E+03 -2.49427E+04  1.11422E+04 -2.03154E+04  2.13514E+04 -1.11020E+04
  1.95087E+04  6.60190E+02  1.38760E+04  4.93653E+03  7.86278E+03  5.34264E+02  1.04005E+04 -1.72191E+03
  1.88749E+04  2.55475E+03  2.11985E+04  1.66075E+04  1.46205E+04  3.34153E+04 -3.92408E+03  3.82339E+04
 -2.21723E+04  3.10233E+04 -3.57462E+04  1.60552E+04 -3.78267E+04 -3.05364E+03 -3.15265E+04 -2.22049E+04
 -1.30523E+04 -3.13655E+04  1.08999E+04 -2.82925E+04  2.41496E+04 -1.40186E+04  2.11063E+04  6.22746E+03
  8.07953E+03  1.58813E+04 -9.42450E+03  1.34165E+04 -1.84033E+04  2.21823E+03 -1.39021E+04 -1.12152E+04
 -2.31808E+02 -1.73313E+04  8.49199E+03 -1.27426E+04  1.16433E+04 -1.20528E+03  2.66276E+03  7.25985E+03
 -8.00338E+03  2.93039E+03 -6.90344E+03 -6.83926E+03 -1.19135E+03 -1.55746E+04  1.05436E+04 -1.65628E+04
  1.87046E+04 -9.33091E+03  2.13437E+04  2.66791E+03  1.87486E+04  1.52333E+04  8.60049E+03  2.38746E+04
 -3.80524E+03  2.63662E+04 -1.71814E+04  1.59382E+04 -1.84015E+04  3.85104E+03 -1.26453E+04 -3.93583E+03
 -6.07080E+03 -5.94973E+03 -6.98348E+02  1.28812E+03 -2.62161E+03  2.72639E+03 -5.44956E+03  4.88511E+03
 -1.24594E+04 -1.32677E+03 -1.19773E+04 -1.00721E+04 -4.60495E+03 -1.69908E+04  5.18987E+03 -1.36279E+04
  1.11052E+04 -5.53180E+03  7.72148E+03  3.60256E+03  2.29868E+01  4.75764E+03 -6.51802E+03 -5.18198E+02
 -5.75756E+03 -7.93320E+03 -9.01984E+02 -1.22843E+04  7.32911E+03 -1.31190E+04  1.58670E+04 -7.37090E+03
  1.90001E+04  2.34715E+03  1.38805E+04  1.18591E+04  3.10565E+03  1.54452E+04 -8.72530E+03  1.28431E+04
 -1.08578E+04  3.97752E+03 -5.61603E+03 -2.84807E+03  2.03995E+03 -3.57263E+03  7.31641E+03 -1.71949E+03
  5.85403E+03  5.63941E+03  6.07231E+02  9.94302E+03 -7.74640E+03  1.04063E+04 -1.32573E+04  2.51097E+03
 -8.95681E+03 -6.77990E+03  7.97705E+02 -1.14902E+04  7.76033E+03 -5.59793E+03  7.50631E+03  2.73277E+03
  1.17370E+03  7.83037E+03 -6.32542E+03  8.93432E+03 -1.04733E+04  4.40120E+03 -9.99157E+03 -3.64844E+03
 -6.31878E+03 -1.30406E+04  2.64148E+03 -1.36025E+04  1.18877E+04 -8.81714E+03  1.32679E+04  2.82081E+03
  8.26492E+03  1.07062E+04 -1.18521E+03  1.28204E+04 -8.84217E+03  6.80549E+03 -1.01201E+04 -1.30233E+03
 -8.86250E+03 -8.20484E+03 -1.36671E+03 -1.04425E+04  5.27264E+03 -7.67571E+03  6.28847E+03 -3.89782E+03
  4.68170E+03  1.86467E+03 -1.27450E+03  1.44100E+03 -4.89556E+02 -2.61234E+03  2.48161E+03 -5.68001E+03
  8.30277E+03 -3.44396E+03  1.27067E+04  1.90793E+03  1.16745E+04  8.48277E+03  8.85061E+03  1.64334E+04
 -4.14357E+03  1.85017E+04 -1.48522E+04  1.38754E+04 -2.01565E+04  1.60679E+03 -1.64708E+04 -7.26126E+03
 -7.72067E+03 -1.34683E+04 -3.46397E+02 -1.12072E+04  3.72802E+03 -5.49450E+03  3.89792E+03 -4.75415E+03
  3.09537E+03 -2.70035E+03  3.37041E+03 -3.17886E+03  5.28261E+03 -3.06397E+03  7.65867E+03 -1.19812E+03
  8.53214E+03  1.80137E+03  3.84888E+03  7.41192E+03 -1.71036E+03  8.30251E+03 -9.17041E+03  6.03077E+03
 -1.21363E+04 -1.30692E+03 -5.99142E+03 -7.98634E+03 -4.45712E+02 -1.17878E+04  6.56529E+03 -1.24950E+04
  1.23133E+04 -6.94285E+03  1.46773E+04  1.46564E+03  1.08730E+04  1.06344E+04  1.73440E+03  1.36119E+04
 -5.50195E+03  1.17032E+04 -7.91216E+03  4.63146E+03 -5.44122E+03 -9.79049E+02 -1.50131E+03 -1.76633E+03
 -1.45218E+03  8.48305E+01 -1.70852E+03  2.54847E+03 -4.99974E+03  2.53902E+03 -8.28578E+03 -1.32424E+03
 -5.29283E+03 -7.80648E+03  5.52067E+02 -1.08297E+04  6.50898E+03 -1.04896E+04  1.03364E+04 -2.71455E+03
  1.01725E+04  5.83561E+03  4.11566E+03  1.01701E+04 -2.42914E+03  1.07531E+04 -8.13807E+03  6.98837E+03
 -1.02314E+04 -3.68621E+01 -7.84931E+03 -6.43958E+03 -1.18328E+03 -8.53157E+03  4.08035E+03 -7.41011E+03
  6.61489E+03 -1.94170E+03  4.59636E+03  1.32036E+03  2.25402E+03  2.97376E+03  1.08763E+03  1.45743E+03
  2.99639E+03  7.68007E+02  2.79986E+03  1.66267E+03  4.55937E+03  4.28907E+03  3.26115E+03  4.82168E+03
 -2.26691E+03  8.53690E+03 -7.64420E+03  9.07180E+03 -1.13369E+04  2.52438E+03 -1.23167E+04 -4.31330E+03
 -4.97996E+03 -1.09807E+04  1.63949E+03 -1.15174E+04  6.03888E+03 -7.92999E+03  8.06245E+03 -2.73353E+03
  6.53674E+03  4.83656E+03  1.18141E+03  5.89051E+03 -2.82393E+03  3.95224E+03 -4.03155E+03 -1.87541E+02
 -1.94002E+03 -5.30086E+03  2.80936E+03 -5.04317E+03  4.65530E+03 -3.01022E+03  4.80294E+03  8.37124E+02
  2.28037E+03  2.70531E+03  8.96002E+02  1.06706E+03 -1.10261E+03  1.21401E+03  2.03246E+03 -1.50841E+02
  1.07625E+03 -9.78911E+02  5.34194E+03  2.05116E+03  1.91581E+03  6.44832E+03 -8.08508E+02  8.19061E+03
 -4.47928E+03  4.80585E+03 -7.07256E+03  1.54617E+03 -6.24634E+03 -1.99708E+03 -1.66025E+03 -4.49612E+03
  4.22327E+02 -4.78584E+03  2.56091E+03 -1.83953E+03  1.70609E+03  1.50333E+03 -1.10281E+03  3.10746E+03
 -4.84417E+03  2.16565E+03 -5.01095E+03 -2.96148E+03 -2.43721E+03 -4.93192E+03  1.13673E+03 -5.28605E+03
  3.24979E+03 -3.43381E+03  4.25339E+03 -5.31042E+01  4.30214E+03  1.09161E+03  9.94928E+02  3.08502E+03
 -1.85324E+03  1.04690E+03 -2.40652E+03 -1.19727E+03  2.74381E+02 -4.20647E+03  5.31767E+03 -3.54460E+03
  5.95659E+03  2.73657E+02  6.83411E+03  4.77025E+03  2.33738E+03  7.14600E+03 -2.17947E+03  5.84961E+03
 -4.97124E+03  2.17298E+03 -5.00621E+03 -1.44658E+03 -3.05754E+03 -4.28876E+03  1.35274E+03 -3.23300E+03
  4.10684E+03 -2.27158E+03  4.14761E+03  1.88658E+03  1.74371E+03  4.11346E+03 -4.41507E+02  3.82157E+03
 -1.63541E+03  2.50500E+03 -1.94925E+03  1.09111E+03 -2.99112E+02  2.10794E+02 -1.50957E+03  1.36142E+03
 -2.21192E+03  2.30790E+03 -5.01402E+03  2.05334E+03 -7.47246E+03  1.80076E+02 -7.57331E+03 -4.78623E+03
 -4.69186E+03 -8.13236E+03  1.93017E+03 -1.04343E+04  6.76722E+03 -8.41956E+03  9.94407E+03 -3.28912E+03
  9.55433E+03  1.42726E+03  5.18422E+03  6.20344E+03  1.12237E+02  6.60578E+03 -2.43881E+03  5.00700E+03
 -4.02466E+03  1.61395E+03 -2.29296E+03 -8.27024E+02 -1.49832E+03 -1.61388E+02 -4.71101E+02 -6.03670E+02
 -1.65325E+03  2.97275E+02 -1.93521E+03 -4.92865E+02 -3.89011E+02 -1.62403E+03 -4.73287E+02 -2.49315E+03
  3.39215E+03 -2.73488E+03  3.77355E+03  5.86818E+01  4.39287E+03  4.38467E+03  5.90974E+02  7.07807E+03
 -2.94225E+03  7.32319E+03 -7.33556E+03  4.99786E+03 -8.41514E+03 -1.13034E+03 -6.40210E+03 -4.73626E+03
 -3.01676E+03 -7.53446E+03  1.68494E+03 -5.83941E+03  4.01788E+03 -2.99704E+03  4.39805E+03  5.77407E+02
  2.15737E+03  2.72073E+03  3.19982E+02  2.05448E+03 -7.66884E+02  3.92395E+02  3.48814E+02 -1.58545E+03
  1.92014E+03 -5.45133E+02  2.45643E+03  1.29686E+03  2.16549E+03  3.11947E+03  8.47791E+02  2.83438E+03
 -2.56424E+03  3.74903E+03 -4.55030E+03  5.44198E+02 -4.09808E+03 -4.21309E+03 -6.06001E+02 -6.03468E+03
  2.90245E+03 -4.64193E+03  5.20173E+03 -1.22405E+03  5.47229E+03  2.69046E+02  2.31271E+03  4.24295E+03
  1.16735E+03  4.38398E+03 -1.68826E+03  3.55336E+03 -3.23731E+03  2.66034E+03 -2.36240E+03  2.22740E+02
 -8.00311E+02  3.47981E+02 -1.31208E+03  1.14275E+03 -2.19312E+03  1.71887E+03 -3.46599E+03 -1.40292E+03
 -3.07369E+03 -1.49359E+03 -7.62642E+02 -4.52103E+03  1.97456E+03 -5.33418E+03  3.70389E+03 -1.70851E+03
  3.69925E+03  6.49463E+02  3.18074E+03  2.96000E+03 -3.18132E+02  4.61741E+03 -3.06227E+03  2.68018E+03
