 $NMID ID='MM_0lb_SNR400_12hz_g60_4.RAW', FMTDAT='(8E13.5)'
 TRAMP=1., VOLUME=1. $END
  3.09683E+05  7.01346E+02  3.38385E+05  2.50553E+05  8.50208E+04  3.37989E+05 -1.32596E+05  2.51603E+05
 -1.90598E+05  8.38174E+04 -1.12608E+05 -3.16962E+04  9.70241E+02 -5.00255E+04  5.45268E+04 -6.12092E-01
  3.59608E+04  5.26862E+04 -1.61417E+04  7.60376E+04 -6.10427E+04  6.47266E+04 -8.42114E+04  3.29554E+04
 -8.31293E+04 -1.09282E+04 -5.82729E+04 -5.18841E+04 -1.47852E+04 -7.16862E+04  2.79491E+04 -4.65419E+04
  4.04876E+04  4.02084E+03  1.62602E+04  4.81262E+04 -3.50793E+04  4.78748E+04 -6.72589E+04 -1.08591E+02
 -5.46362E+04 -5.75306E+04 -7.27668E+03 -7.87806E+04  3.48918E+04 -5.61679E+04  4.91717E+04 -1.79979E+04
  4.47093E+04  1.15155E+04  3.34612E+04  2.59394E+04  1.54248E+04  3.06877E+04 -5.91459E+03  2.83260E+04
 -2.23262E+04  1.20107E+04 -1.77929E+04 -5.14240E+03  6.22938E+03 -6.73800E+03  2.33988E+04  1.39376E+04
  6.98614E+03  3.72350E+04 -3.33332E+04  3.69639E+04 -6.49404E+04  2.60123E+03 -5.87823E+04 -4.35680E+04
 -1.30235E+04 -6.50811E+04  4.06288E+04 -4.70729E+04  6.07503E+04 -2.88712E+03  3.56653E+04  3.36256E+04
 -5.16510E+03  3.80892E+04 -3.15262E+04  1.82915E+04 -3.26140E+04 -4.52379E+03 -1.90935E+04 -1.14331E+04
 -9.38898E+03 -1.55132E+04 -1.20865E+01 -1.92349E+04  8.33709E+03 -2.34512E+04  1.56517E+04 -1.26957E+04
  1.07341E+04  5.89696E+03 -9.94669E+03  1.28953E+04 -2.25093E+04 -5.41151E+03 -8.66052E+03 -3.60919E+04
  2.47342E+04 -4.57801E+04  5.08273E+04 -2.04903E+04  4.76572E+04  2.04893E+04  1.72386E+04  4.65093E+04
 -1.72869E+04  3.51664E+04 -2.70213E+04  2.82533E+03 -1.12126E+04 -2.84178E+04  2.10346E+04 -3.55420E+04
  4.29491E+04 -1.01915E+04  3.87867E+04  2.45626E+04  2.00621E+04  4.93772E+04 -7.99611E+03  5.38025E+04
 -3.40418E+04  3.70177E+04 -4.59167E+04  1.03329E+04 -4.62668E+04 -1.80371E+04 -2.56422E+04 -4.03233E+04
  8.02836E+03 -4.11227E+04  3.29197E+04 -1.66720E+04  3.21798E+04  1.14730E+04  4.98292E+03  2.07779E+04
 -1.34968E+04  9.60601E+03 -1.11763E+04 -7.50775E+03  4.98404E+03 -1.17756E+04  1.83861E+04  6.51399E+03
  1.45211E+04  2.16479E+04 -5.50114E+03  2.69555E+04 -2.34916E+04  1.35834E+04 -3.03086E+04 -4.16233E+03
 -2.40933E+04 -1.80855E+04 -1.01645E+04 -2.39929E+04  4.37630E+03 -2.39535E+04  1.87181E+04 -2.19005E+04
  3.12201E+04 -1.39190E+04  3.60236E+04  3.91111E+03  2.64082E+04  2.28523E+04  4.15102E+03  3.92831E+04
 -1.92791E+04  3.31009E+04 -2.96843E+04  1.11887E+04 -2.21702E+04 -1.05627E+04 -4.90899E+03 -1.29436E+04
  1.26388E+03 -1.98819E+03 -6.77756E+03  7.86519E+03 -1.84140E+04  4.77301E+03 -1.86169E+04 -8.58191E+03
 -1.10822E+04 -2.18245E+04  5.78085E+03 -2.64390E+04  1.80100E+04 -1.86623E+04  2.11948E+04 -1.54857E+03
  1.41411E+04  1.52487E+04 -1.84820E+02  2.13537E+04 -1.54064E+04  1.18870E+04 -2.16948E+04 -4.24553E+03
 -1.61687E+04 -1.96825E+04 -2.36385E+03 -2.64690E+04  1.20779E+04 -2.16155E+04  2.16545E+04 -1.06720E+04
  2.04872E+04  2.67801E+02  1.45299E+04  4.97833E+03  8.27202E+03  2.08649E+01  1.13816E+04 -2.39034E+03
  2.07633E+04  3.67036E+03  2.36123E+04  1.66669E+04  1.55625E+04  3.47657E+04 -2.13676E+03  4.04107E+04
 -2.35633E+04  3.31050E+04 -3.85678E+04  1.71065E+04 -4.04879E+04 -2.75201E+03 -3.21840E+04 -2.31371E+04
 -1.40386E+04 -3.34986E+04  1.14107E+04 -2.98638E+04  2.55868E+04 -1.48533E+04  2.24308E+04  7.51195E+03
  8.03702E+03  1.71471E+04 -1.02480E+04  1.47938E+04 -1.87765E+04  2.34306E+03 -1.43964E+04 -1.16915E+04
 -3.68626E+02 -1.79296E+04  9.53491E+03 -1.23093E+04  1.21915E+04 -1.86491E+03  2.59797E+03  7.95949E+03
 -7.85339E+03  3.17739E+03 -8.34256E+03 -6.10715E+03 -1.47628E+03 -1.63103E+04  1.14090E+04 -1.77700E+04
  2.03553E+04 -9.41523E+03  2.31427E+04  3.38266E+03  1.98668E+04  1.61903E+04  9.26233E+03  2.58827E+04
 -4.78531E+03  2.73952E+04 -1.77841E+04  1.69097E+04 -1.90928E+04  4.35424E+03 -1.34369E+04 -4.88476E+03
 -5.52868E+03 -6.41136E+03 -6.51256E+02  1.00857E+03 -3.21213E+03  2.62077E+03 -6.48305E+03  4.58727E+03
 -1.19502E+04  8.22373E+01 -1.36032E+04 -1.03126E+04 -4.78303E+03 -1.71856E+04  6.13217E+03 -1.43595E+04
  1.16584E+04 -5.22224E+03  8.66473E+03  3.49005E+03 -3.94106E+02  5.42455E+03 -7.23194E+03  4.51008E+02
 -7.42043E+03 -9.25545E+03 -1.07897E+03 -1.33230E+04  7.91023E+03 -1.44232E+04  1.70083E+04 -7.27284E+03
  1.98613E+04  1.95589E+03  1.57368E+04  1.23167E+04  3.06808E+03  1.66187E+04 -8.10920E+03  1.32347E+04
 -1.12499E+04  4.52701E+03 -5.54552E+03 -3.08232E+03  2.13424E+03 -4.01636E+03  7.19760E+03 -1.02295E+03
  6.45320E+03  5.60477E+03  3.08371E+02  1.05983E+04 -7.49997E+03  9.66544E+03 -1.33854E+04  2.51338E+03
 -9.11462E+03 -6.38435E+03  7.04824E+02 -1.12184E+04  7.77976E+03 -5.26673E+03  7.78940E+03  2.69754E+03
  2.75541E+03  7.38491E+03 -8.10185E+03  9.78229E+03 -1.12383E+04  4.74040E+03 -1.13582E+04 -3.97966E+03
 -6.24729E+03 -1.32260E+04  3.38850E+03 -1.51731E+04  1.25560E+04 -8.87774E+03  1.29252E+04  2.57873E+03
  8.33143E+03  1.11961E+04 -1.46134E+03  1.33056E+04 -9.51350E+03  7.53810E+03 -1.07336E+04 -6.26483E+02
 -9.33652E+03 -9.26213E+03 -1.28658E+03 -1.03218E+04  4.54897E+03 -8.57217E+03  5.51094E+03 -3.49684E+03
  4.16090E+03  1.85365E+03 -1.09824E+03  2.11970E+03 -3.00790E+02 -1.44495E+03  1.72262E+03 -5.94504E+03
  8.90769E+03 -3.87731E+03  1.30439E+04  1.77646E+03  1.26232E+04  8.92765E+03  8.76894E+03  1.65426E+04
 -4.16872E+03  1.88501E+04 -1.63817E+04  1.41968E+04 -2.09133E+04  3.27766E+03 -1.61311E+04 -7.10570E+03
 -8.43524E+03 -1.35212E+04 -1.03030E+03 -1.14377E+04  3.96242E+03 -6.54776E+03  4.24032E+03 -3.87641E+03
  3.44293E+03 -2.48964E+03  3.29184E+03 -3.93380E+03  4.99363E+03 -2.75337E+03  7.39385E+03  3.50154E+01
  8.98170E+03  2.40423E+03  4.74829E+03  8.12273E+03 -1.52812E+03  8.54087E+03 -9.69189E+03  6.34637E+03
 -1.13585E+04 -1.38081E+03 -6.20497E+03 -7.96110E+03 -1.09949E+02 -1.13352E+04  6.49217E+03 -1.22614E+04
  1.32298E+04 -6.62342E+03  1.47975E+04  2.20151E+03  1.15887E+04  1.06230E+04  1.25517E+03  1.42064E+04
 -5.69986E+03  1.08390E+04 -8.28277E+03  3.71320E+03 -5.56629E+03 -1.77311E+03 -2.25322E+03 -1.49549E+03
 -1.00820E+03 -3.93700E+02 -2.16737E+03  2.94917E+03 -4.46863E+03  2.36924E+03 -7.93225E+03 -1.46717E+03
 -5.32674E+03 -7.67987E+03 -1.13317E+02 -1.19032E+04  6.91316E+03 -9.15483E+03  1.01951E+04 -3.31571E+03
  1.05996E+04  5.76021E+03  5.17989E+03  9.63771E+03 -2.30121E+03  1.17746E+04 -8.08097E+03  7.11680E+03
 -1.00776E+04  8.35716E+02 -7.79657E+03 -7.16105E+03 -1.19139E+03 -9.08073E+03  4.38625E+03 -7.19681E+03
  7.44015E+03 -2.66937E+03  5.46216E+03  1.74088E+03  2.01067E+03  4.07145E+03  2.20500E+03  1.33393E+03
  1.83863E+03  6.52557E+02  2.35583E+03  1.19165E+03  3.57687E+03  3.67763E+03  2.57336E+03  5.39515E+03
 -1.96619E+03  8.91927E+03 -7.67517E+03  8.90550E+03 -1.13919E+04  2.26620E+03 -1.17855E+04 -4.18931E+03
 -5.02993E+03 -1.13693E+04  1.42248E+03 -1.17194E+04  6.38263E+03 -7.04567E+03  9.26445E+03 -2.47385E+03
  6.49366E+03  4.33092E+03  1.59556E+03  6.49176E+03 -2.81089E+03  4.40826E+03 -4.41380E+03 -8.48611E+02
 -1.67431E+03 -4.38478E+03  2.91217E+03 -4.25523E+03  4.94581E+03 -2.13176E+03  5.03153E+03  5.56541E+02
  2.39812E+03  2.08431E+03  7.89547E+02  2.08309E+03 -8.52364E+02  1.71128E+03  1.12129E+03 -2.74555E+02
  1.36405E+03 -2.26745E+02  4.84425E+03  1.47302E+03  2.64560E+03  5.55623E+03 -1.49647E+03  6.91026E+03
 -5.04777E+03  4.57186E+03 -6.90024E+03  1.24660E+03 -6.13525E+03 -2.52802E+03 -2.41912E+03 -4.26768E+03
  1.10684E+03 -4.26318E+03  3.13212E+03 -2.26151E+03  1.77202E+03  2.40560E+03 -1.21938E+03  3.19663E+03
 -4.11612E+03  1.89750E+03 -4.06993E+03 -1.84406E+03 -2.42376E+03 -6.00787E+03  7.96398E+02 -5.25881E+03
  3.40913E+03 -3.15158E+03  3.82090E+03 -3.89157E+01  2.92541E+03  1.43400E+03  1.51277E+02  2.92248E+03
 -2.03388E+03  5.56360E+02 -2.52714E+03 -2.03761E+03  1.44379E+03 -3.99149E+03  4.64110E+03 -2.97944E+03
  6.12085E+03  5.03477E+02  7.09812E+03  3.89372E+03  1.85067E+03  6.72915E+03 -2.03377E+03  6.82221E+03
 -5.19624E+03  2.69438E+03 -5.25678E+03 -4.03815E+02 -2.69881E+03 -4.26866E+03  1.30132E+03 -3.48811E+03
  3.84766E+03 -1.73358E+03  3.23255E+03  2.22087E+03  1.23340E+03  3.91413E+03 -4.76447E+02  3.38632E+03
 -1.57042E+03  2.44666E+03 -1.85993E+03  9.69888E+02  1.33901E+02  7.49405E+02 -1.01034E+03  1.10581E+03
 -2.01835E+03  2.58743E+03 -4.72511E+03  2.24385E+03 -5.43582E+03  2.44388E+02 -6.46449E+03 -4.20323E+03
 -3.10416E+03 -8.40733E+03  2.12676E+03 -9.85984E+03  6.14443E+03 -7.88667E+03  9.31194E+03 -3.25008E+03
  8.50458E+03  1.71617E+03  5.48509E+03  5.52847E+03  3.26630E+02  6.52626E+03 -2.91418E+03  4.78216E+03
 -3.53222E+03  1.33938E+03 -2.10029E+03 -1.78435E+02 -6.81579E+02 -6.24413E+02 -5.51683E+00  2.96759E+02
 -9.86444E+02 -4.90710E+02 -2.07503E+03 -4.28960E+02 -1.15927E+03 -1.29292E+03 -4.77653E+01 -2.64169E+03
  2.83612E+03 -2.79225E+03  2.87405E+03 -1.61334E+02  3.94817E+03  3.87176E+03  6.20531E+02  6.62480E+03
 -3.58982E+03  7.97383E+03 -7.28925E+03  4.37933E+03 -7.53101E+03 -1.08818E+02 -5.20849E+03 -5.00245E+03
 -3.46525E+03 -5.88588E+03  1.47329E+03 -5.56050E+03  4.26108E+03 -3.61339E+03  3.90016E+03  2.43591E+02
  2.10426E+03  2.10745E+03 -1.63196E+02  1.91603E+03 -1.24291E+03  1.82356E+02 -4.83168E+02 -1.47272E+03
  1.89555E+03 -5.55464E+02  2.26920E+03  8.75403E+02  1.27515E+03  2.47142E+03  8.67974E+02  3.54528E+03
 -2.49253E+03  2.75783E+03 -4.64172E+03  4.48299E+02 -3.68488E+03 -2.90477E+03 -9.15243E+01 -5.12526E+03
  2.93876E+03 -3.63179E+03  4.46752E+03 -8.22913E+02  4.07053E+03  1.35019E+03  2.71737E+03  3.38065E+03
  5.08681E+02  3.51339E+03 -5.61812E+02  3.96901E+03 -2.21421E+03  2.38510E+03 -2.31462E+03  7.51034E+02
 -1.37339E+03 -3.26350E+02 -1.30178E+03  6.94177E+02 -1.95446E+03  1.36576E+02 -2.54057E+03 -2.74934E+02
 -3.61471E+03 -1.34545E+03 -4.50805E+02 -4.70554E+03  2.00250E+03 -4.69913E+03  3.44667E+03 -2.08299E+03
  4.42028E+03  9.28328E+02  1.92415E+03  2.68838E+03 -5.48621E+02  4.06456E+03 -3.18413E+03  2.11658E+03
