 $NMID ID='MM_0lb_SNR400_14hz_g50_1.RAW', FMTDAT='(8E13.5)'
 TRAMP=1., VOLUME=1. $END
  3.09205E+05 -6.76075E+01  3.38314E+05  2.50446E+05  8.52643E+04  3.37808E+05 -1.32714E+05  2.50992E+05
 -1.90045E+05  8.35638E+04 -1.11535E+05 -3.26288E+04  9.84494E+02 -5.07151E+04  5.40552E+04 -2.37126E+02
  3.54735E+04  5.30161E+04 -1.66679E+04  7.55342E+04 -6.10915E+04  6.30089E+04 -8.44795E+04  3.19900E+04
 -8.15839E+04 -1.08152E+04 -5.75394E+04 -5.13304E+04 -1.48128E+04 -6.98103E+04  2.77183E+04 -4.60891E+04
  4.07881E+04  4.59057E+03  1.57805E+04  4.78950E+04 -3.38748E+04  4.72205E+04 -6.68716E+04 -1.99148E+02
 -5.41753E+04 -5.64133E+04 -6.73566E+03 -7.67535E+04  3.40303E+04 -5.47947E+04  4.79710E+04 -1.74905E+04
  4.30767E+04  1.06467E+04  3.16474E+04  2.56293E+04  1.60774E+04  2.92799E+04 -5.27616E+03  2.70556E+04
 -2.20643E+04  1.24052E+04 -1.90017E+04 -4.55235E+03  5.45647E+03 -7.47040E+03  2.27720E+04  1.25538E+04
  7.27444E+03  3.51741E+04 -3.21930E+04  3.59233E+04 -6.33874E+04  2.34746E+03 -5.75378E+04 -4.22063E+04
 -1.26929E+04 -6.33169E+04  4.01928E+04 -4.55863E+04  5.80871E+04 -2.39720E+03  3.46467E+04  3.26390E+04
 -6.06925E+03  3.67121E+04 -2.92271E+04  1.67590E+04 -3.02413E+04 -4.28617E+03 -1.65617E+04 -1.17105E+04
 -9.33370E+03 -1.29439E+04 -9.95002E+02 -1.77522E+04  7.65502E+03 -2.26041E+04  1.55008E+04 -1.31312E+04
  1.16943E+04  5.83471E+03 -7.88768E+03  1.33192E+04 -2.15163E+04 -4.46042E+03 -8.89706E+03 -3.39988E+04
  2.25859E+04 -4.41010E+04  4.80261E+04 -1.92573E+04  4.54749E+04  1.92300E+04  1.59773E+04  4.34935E+04
 -1.61440E+04  3.32559E+04 -2.55689E+04  1.69187E+03 -9.92182E+03 -2.76542E+04  2.10059E+04 -3.36243E+04
  4.15484E+04 -8.94614E+03  3.58054E+04  2.40368E+04  1.79684E+04  4.61083E+04 -8.21302E+03  5.04755E+04
 -3.22557E+04  3.43280E+04 -4.14983E+04  9.90406E+03 -4.32665E+04 -1.71133E+04 -2.37692E+04 -3.78838E+04
  8.02922E+03 -3.74133E+04  3.14734E+04 -1.44074E+04  2.91119E+04  1.04256E+04  4.12143E+03  1.89390E+04
 -1.36664E+04  8.52223E+03 -1.01942E+04 -8.06275E+03  6.26453E+03 -1.04711E+04  1.80604E+04  6.00713E+03
  1.34002E+04  2.24580E+04 -6.08773E+03  2.51800E+04 -2.16863E+04  1.14034E+04 -2.80347E+04 -4.64554E+03
 -2.09150E+04 -1.74240E+04 -8.38617E+03 -1.97320E+04  4.42860E+03 -1.99647E+04  1.57166E+04 -1.83448E+04
  2.59874E+04 -1.28141E+04  3.30701E+04  3.38542E+03  2.43842E+04  1.99517E+04  4.15556E+03  3.63251E+04
 -1.79070E+04  2.99697E+04 -2.77977E+04  1.10281E+04 -2.08277E+04 -1.00690E+04 -4.22097E+03 -1.39642E+04
  1.33768E+03 -2.97506E+03 -5.44510E+03  6.55290E+03 -1.62735E+04  5.22649E+03 -1.66443E+04 -6.85954E+03
 -9.55667E+03 -1.91811E+04  4.93663E+03 -2.36857E+04  1.56540E+04 -1.58287E+04  1.80789E+04 -1.50040E+03
  1.14964E+04  1.25580E+04 -1.04255E+03  1.92441E+04 -1.30914E+04  1.09023E+04 -1.85934E+04 -3.82866E+03
 -1.49583E+04 -1.69668E+04 -1.70054E+03 -2.35467E+04  1.03155E+04 -1.88939E+04  1.91965E+04 -9.42320E+03
  1.76086E+04  5.93160E+02  1.25244E+04  4.78903E+03  6.61789E+03  9.15364E+02  9.52295E+03 -1.31431E+03
  1.71744E+04  2.62575E+03  2.03373E+04  1.45878E+04  1.26938E+04  3.06107E+04 -3.04504E+03  3.50429E+04
 -2.04612E+04  2.76335E+04 -3.22793E+04  1.31432E+04 -3.32899E+04 -2.10743E+03 -2.79366E+04 -1.92081E+04
 -1.20263E+04 -2.76239E+04  9.73387E+03 -2.55365E+04  2.15173E+04 -1.22077E+04  1.96354E+04  5.40773E+03
  7.19250E+03  1.43469E+04 -9.12495E+03  1.25868E+04 -1.65149E+04  2.42127E+03 -1.24535E+04 -1.02976E+04
 -1.92719E+02 -1.57650E+04  7.84315E+03 -1.14703E+04  1.05835E+04 -1.43316E+03  2.13838E+03  6.59226E+03
 -6.59496E+03  2.33146E+03 -6.47365E+03 -5.69407E+03 -2.08535E+02 -1.36004E+04  9.49582E+03 -1.46270E+04
  1.69797E+04 -7.72534E+03  1.77407E+04  3.37669E+03  1.51825E+04  1.36014E+04  6.87071E+03  2.03241E+04
 -2.24603E+03  2.31272E+04 -1.36415E+04  1.39012E+04 -1.59504E+04  3.31813E+03 -1.07308E+04 -3.10260E+03
 -5.43381E+03 -4.88729E+03 -4.42451E+02  9.10072E+02 -2.15592E+03  3.10238E+03 -4.78779E+03  3.88895E+03
 -1.06701E+04 -6.57370E+02 -1.13311E+04 -8.80265E+03 -4.63748E+03 -1.45284E+04  3.74153E+03 -1.18331E+04
  9.55449E+03 -4.66389E+03  6.73190E+03  2.69700E+03  1.65931E+02  4.64053E+03 -5.62253E+03  1.20514E+01
 -5.45550E+03 -7.11519E+03 -9.17835E+02 -1.07246E+04  6.20551E+03 -1.22185E+04  1.45395E+04 -5.50895E+03
  1.72471E+04  1.42880E+03  1.23020E+04  9.14942E+03  2.35408E+03  1.25762E+04 -6.45915E+03  1.15777E+04
 -9.34991E+03  2.94052E+03 -4.03884E+03 -1.84991E+03  1.64759E+03 -2.83063E+03  5.90096E+03 -1.11870E+03
  5.47189E+03  4.37888E+03  1.07988E+03  8.86791E+03 -6.14577E+03  9.03393E+03 -1.10793E+04  2.21573E+03
 -7.40014E+03 -5.62766E+03  1.07912E+02 -9.43388E+03  5.72184E+03 -4.34299E+03  5.51231E+03  2.03356E+03
  1.04517E+03  5.99438E+03 -6.12133E+03  7.50073E+03 -7.85974E+03  3.63255E+03 -7.52908E+03 -2.80880E+03
 -4.92580E+03 -9.99313E+03  2.20863E+03 -1.15902E+04  9.42850E+03 -7.03909E+03  1.04149E+04  1.18764E+03
  6.89374E+03  8.42742E+03 -2.53972E+01  1.07140E+04 -7.81767E+03  5.39635E+03 -7.97899E+03 -2.32246E+01
 -7.10625E+03 -6.97672E+03 -1.57014E+03 -7.62830E+03  4.14041E+03 -6.61638E+03  5.48863E+03 -2.92357E+03
  3.13550E+03  9.24817E+02 -9.47676E+02  1.05794E+03  4.71321E+02 -1.73363E+03  5.47173E+02 -3.34256E+03
  6.73070E+03 -2.35346E+03  9.44932E+03  9.81658E+02  1.04307E+04  6.06909E+03  7.35371E+03  1.24707E+04
 -3.05665E+03  1.44800E+04 -1.22422E+04  1.13952E+04 -1.62579E+04  2.16013E+03 -1.23095E+04 -5.37818E+03
 -6.85812E+03 -1.06986E+04 -9.15654E+02 -8.14156E+03  3.66569E+03 -4.42766E+03  3.76470E+03 -3.98418E+03
  2.30192E+03 -2.46188E+03  2.17223E+03 -2.66696E+03  4.60836E+03 -2.12083E+03  5.06904E+03 -1.70649E+02
  6.82626E+03  1.31658E+03  3.19417E+03  5.93648E+03 -2.40537E+03  6.21682E+03 -7.06719E+03  4.90591E+03
 -8.58045E+03 -1.10253E+03 -4.01834E+03 -5.64390E+03 -1.01964E+02 -8.43691E+03  5.33267E+03 -9.08559E+03
  9.33734E+03 -4.72521E+03  1.12673E+04  1.25956E+03  8.32398E+03  7.15929E+03  1.49229E+03  1.05377E+04
 -4.36355E+03  8.36422E+03 -5.74976E+03  2.88817E+03 -4.42847E+03 -1.37679E+03 -2.00534E+03 -1.27404E+03
 -6.90462E+02 -4.83151E+01 -1.26426E+03  2.16510E+03 -3.49350E+03  1.53742E+03 -6.43861E+03 -5.35267E+02
 -3.59646E+03 -6.71840E+03  3.54393E+02 -8.13753E+03  4.37687E+03 -7.04778E+03  6.65491E+03 -2.09927E+03
  8.01424E+03  4.41108E+03  3.85041E+03  7.51622E+03 -1.55214E+03  8.86128E+03 -6.02883E+03  5.28905E+03
 -7.71688E+03  7.23928E+02 -5.68618E+03 -5.13461E+03 -5.16528E+02 -6.49057E+03  3.02676E+03 -5.26563E+03
  5.10560E+03 -2.13086E+03  2.89575E+03  1.31940E+03  1.12998E+03  2.22297E+03  1.23628E+03  1.21823E+03
  2.04989E+03  1.76755E+02  1.82089E+03  1.53453E+03  2.23475E+03  3.65307E+03  2.05261E+03  4.00147E+03
 -1.93873E+03  6.31877E+03 -4.88149E+03  6.55138E+03 -7.57124E+03  1.87910E+03 -7.85736E+03 -2.97948E+03
 -3.59179E+03 -7.37495E+03  1.57433E+03 -8.81526E+03  3.96733E+03 -5.28897E+03  6.52823E+03 -1.95035E+03
  4.47315E+03  2.44773E+03  7.97737E+02  4.54972E+03 -1.60423E+03  2.27029E+03 -2.35243E+03 -5.06912E+02
 -1.81854E+03 -4.04670E+03  2.18121E+03 -3.43932E+03  2.70709E+03 -1.57752E+03  2.83230E+03  8.34800E+02
  1.35807E+03  1.79130E+03  5.19476E+02  3.13051E+02 -5.47965E+02  8.45391E+02  8.63982E+02  1.22144E+02
  1.03791E+03 -6.77222E+02  3.55876E+03  3.23970E+02  1.59793E+03  4.17884E+03 -6.11239E+02  5.17269E+03
 -3.75922E+03  2.80405E+03 -4.40614E+03  6.69492E+02 -4.05640E+03 -1.54951E+03 -8.92343E+02 -2.76328E+03
  1.13498E+03 -2.41778E+03  1.54764E+03 -1.39929E+03  9.36899E+02  1.99511E+03 -1.18007E+03  1.85781E+03
 -3.00782E+03  1.19888E+03 -3.43573E+03 -1.64362E+03 -1.95002E+03 -4.25006E+03  4.14247E+02 -3.10556E+03
  1.98560E+03 -1.07945E+03  2.75077E+03  1.22296E+02  2.10010E+03  1.00580E+03  8.08070E+02  1.85650E+03
 -1.31693E+03  5.64341E+02 -1.29942E+03 -1.25498E+03  1.48561E+03 -3.17133E+03  3.69714E+03 -1.85084E+03
  3.90007E+03  3.81651E+02  4.59176E+03  1.94373E+03  1.59628E+03  4.29253E+03 -1.50097E+03  3.81777E+03
 -3.54545E+03  9.91911E+02 -4.07273E+03 -2.63469E+02 -1.33519E+03 -3.06150E+03  6.67451E+02 -2.98566E+03
  3.48164E+03 -1.84617E+03  1.85933E+03  1.74564E+03  9.40248E+02  2.01179E+03  6.57769E+01  2.22585E+03
 -1.31888E+03  1.53368E+03 -1.30301E+03  4.93611E+02 -8.75384E+02  3.57350E+02 -1.36913E+03  1.05610E+03
 -1.26851E+03  1.97614E+03 -2.91055E+03  1.22361E+03 -3.56109E+03  5.45359E+01 -4.16682E+03 -2.10773E+03
 -2.28096E+03 -5.54135E+03  1.75950E+03 -6.87551E+03  3.36686E+03 -5.27806E+03  6.53489E+03 -2.01063E+03
  5.92094E+03  7.54816E+02  2.52871E+03  3.82978E+03 -7.99637E+01  3.87642E+03 -6.60496E+02  3.56312E+03
 -1.88071E+03  1.19405E+03 -1.16387E+03 -6.93237E+02 -1.11060E+03 -1.58413E+02 -5.44184E+02  4.36131E+02
 -1.20469E+03  2.23569E+02 -1.61064E+03 -4.68260E+01  1.19158E+02 -1.66388E+03 -1.44763E+02 -1.80889E+03
  2.69125E+03 -7.59398E+02  2.28982E+03 -2.14988E+02  3.31973E+03  2.10081E+03  1.51795E+02  4.32264E+03
 -1.95831E+03  4.77280E+03 -4.70934E+03  2.20445E+03 -5.28765E+03 -8.30393E+02 -3.51030E+03 -3.19368E+03
 -1.80897E+03 -3.91245E+03  1.51124E+02 -3.59049E+03  2.33399E+03 -1.88025E+03  2.08267E+03  3.80995E+02
  1.52470E+03  1.01381E+03 -3.74695E+01  1.02137E+03 -4.71582E+02 -8.85092E+01  1.26288E+02 -5.21558E+02
  1.73331E+03 -6.24334E+02  1.24939E+03  6.57416E+02  9.60818E+02  1.67589E+03 -2.63486E+02  2.56678E+03
 -1.88146E+03  1.60398E+03 -1.98739E+03  8.60699E+02 -1.72486E+03 -2.17887E+03 -1.09118E+02 -3.32410E+03
  2.12073E+03 -2.27941E+03  2.57606E+03 -8.93552E+02  3.49346E+03 -5.43280E+02  7.53092E+02  2.83708E+03
  6.28451E+02  2.98909E+03 -7.36156E+02  1.92114E+03 -1.26164E+03  8.04246E+02 -1.85913E+03  9.31998E+02
 -6.42514E+02 -4.35980E+02 -9.95879E+02 -4.61159E+02 -1.36320E+03  5.02407E+02 -1.66478E+03 -4.44502E+02
 -1.95836E+03 -3.72515E+02 -4.71776E+02 -2.47048E+03  1.17285E+03 -2.56189E+03  1.99510E+03 -9.49795E+02
  2.06101E+03 -1.59570E+02  9.53465E+02  7.12430E+02 -2.50120E+02  2.14422E+03 -1.41368E+03  1.64823E+03
