 $NMID ID='MM_0lb_SNR400_20hz_g55_100.RAW', FMTDAT='(8E13.5)'
 TRAMP=1., VOLUME=1. $END
  3.10275E+05  3.30418E+02  3.37700E+05  2.50599E+05  8.44081E+04  3.37484E+05 -1.32369E+05  2.50537E+05
 -1.89514E+05  8.23953E+04 -1.11480E+05 -3.32289E+04  1.13019E+03 -5.02207E+04  5.40058E+04  6.40887E+02
  3.55166E+04  5.26866E+04 -1.69337E+04  7.48159E+04 -6.01592E+04  6.31200E+04 -8.35657E+04  3.14992E+04
 -8.07638E+04 -1.15451E+04 -5.64275E+04 -5.04958E+04 -1.52269E+04 -6.86902E+04  2.70453E+04 -4.44863E+04
  3.89810E+04  3.49085E+03  1.53797E+04  4.66119E+04 -3.41517E+04  4.60988E+04 -6.58348E+04 -6.49658E+02
 -5.20250E+04 -5.55875E+04 -6.19547E+03 -7.49608E+04  3.32538E+04 -5.33827E+04  4.63143E+04 -1.63621E+04
  4.15495E+04  1.14305E+04  3.04439E+04  2.42772E+04  1.53341E+04  2.78475E+04 -4.70335E+03  2.73592E+04
 -2.16028E+04  1.29918E+04 -1.93992E+04 -3.97453E+03  5.25594E+03 -7.82644E+03  2.16381E+04  1.13350E+04
  7.01990E+03  3.32798E+04 -3.06243E+04  3.39214E+04 -6.11118E+04  1.76672E+03 -5.46679E+04 -4.08537E+04
 -1.21221E+04 -6.07409E+04  3.78812E+04 -4.33593E+04  5.49553E+04 -2.04243E+03  3.21852E+04  3.02940E+04
 -6.79690E+03  3.33168E+04 -2.83357E+04  1.37623E+04 -2.77208E+04 -5.12037E+03 -1.39747E+04 -9.85760E+03
 -7.41914E+03 -1.11873E+04 -9.68416E+02 -1.64480E+04  6.75435E+03 -2.26723E+04  1.49734E+04 -1.44611E+04
  1.23598E+04  4.31053E+03 -6.17599E+03  1.27947E+04 -1.91411E+04 -2.50609E+03 -7.68232E+03 -3.08403E+04
  2.09975E+04 -4.11789E+04  4.50618E+04 -1.95137E+04  4.26057E+04  1.83379E+04  1.40171E+04  4.15887E+04
 -1.52258E+04  3.09894E+04 -2.30207E+04  1.18699E+03 -8.17820E+03 -2.62722E+04  2.10236E+04 -3.08256E+04
  3.81078E+04 -7.21868E+03  3.13463E+04  2.27915E+04  1.53223E+04  4.26399E+04 -8.05484E+03  4.55430E+04
 -2.81872E+04  3.00688E+04 -3.73050E+04  8.52180E+03 -3.78014E+04 -1.53274E+04 -2.14989E+04 -3.45551E+04
  6.69538E+03 -3.45300E+04  2.94765E+04 -1.26687E+04  2.60748E+04  1.06489E+04  2.71880E+03  1.82271E+04
 -1.29542E+04  6.94623E+03 -9.99637E+03 -7.55487E+03  6.21006E+03 -9.96295E+03  1.77650E+04  6.36559E+03
  1.22353E+04  2.14134E+04 -6.90477E+03  2.36707E+04 -2.12246E+04  9.33827E+03 -2.51095E+04 -6.08346E+03
 -1.63560E+04 -1.66098E+04 -6.16085E+03 -1.64534E+04  4.02692E+03 -1.46426E+04  1.25116E+04 -1.46406E+04
  2.05855E+04 -1.16749E+04  2.86948E+04  1.23398E+03  2.12576E+04  1.62273E+04  3.84207E+03  3.26513E+04
 -1.62548E+04  2.73406E+04 -2.50278E+04  9.61091E+03 -1.96188E+04 -1.01785E+04 -4.02197E+03 -1.38648E+04
  2.91432E+03 -4.34117E+03 -2.99463E+03  5.78814E+03 -1.28282E+04  4.63717E+03 -1.29209E+04 -5.34735E+03
 -8.69771E+03 -1.48857E+04  4.79249E+03 -1.94291E+04  1.25548E+04 -1.40896E+04  1.45089E+04 -1.71882E+03
  8.97617E+03  1.09038E+04 -9.21793E+02  1.57167E+04 -1.01112E+04  9.24735E+03 -1.53317E+04 -3.56518E+03
 -1.19110E+04 -1.46005E+04 -1.48659E+03 -1.85236E+04  8.19993E+03 -1.49478E+04  1.58936E+04 -6.94342E+03
  1.50558E+04  5.31461E+02  1.01855E+04  3.17154E+03  5.30708E+03  1.07449E+03  7.44523E+03 -1.51304E+03
  1.33746E+04  2.48070E+03  1.39629E+04  1.24517E+04  8.82341E+03  2.44794E+04 -3.77957E+03  2.62310E+04
 -1.57916E+04  1.97861E+04 -2.36952E+04  9.40574E+03 -2.43851E+04 -1.19605E+03 -2.10843E+04 -1.38385E+04
 -9.94571E+03 -1.97475E+04  6.40327E+03 -1.92779E+04  1.62482E+04 -1.01330E+04  1.50020E+04  3.40976E+03
  6.29496E+03  1.09283E+04 -7.02461E+03  1.05374E+04 -1.32557E+04  2.46498E+03 -1.02790E+04 -8.17856E+03
 -5.00752E+02 -1.25454E+04  5.90380E+03 -9.57197E+03  7.70645E+03 -1.07782E+03  7.68811E+02  4.95404E+03
 -5.69948E+03  1.45654E+03 -3.57292E+03 -4.32173E+03  3.10955E+02 -9.88077E+03  7.82164E+03 -9.37663E+03
  1.15124E+04 -4.44143E+03  1.10407E+04  3.16170E+03  9.58922E+03  9.45674E+03  4.92377E+03  1.37377E+04
 -1.51441E+03  1.57957E+04 -9.55975E+03  9.54879E+03 -1.10603E+04  2.39849E+03 -8.25731E+03 -1.80835E+03
 -4.24865E+03 -2.82354E+03 -1.08971E+03  1.63797E+03 -2.24760E+03  1.54701E+03 -2.70388E+03  3.95920E+03
 -8.04849E+03 -7.85581E+02 -8.13699E+03 -7.21755E+03 -3.47894E+03 -1.06913E+04  3.33663E+03 -7.76300E+03
  6.96837E+03 -3.14327E+03  4.78309E+03  1.73140E+03  8.73871E+02  2.69507E+03 -3.42799E+03  2.76247E+02
 -2.91178E+03 -4.59753E+03 -8.78283E+02 -6.89771E+03  3.27772E+03 -7.03710E+03  9.21661E+03 -4.04184E+03
  1.14776E+04  2.76919E+02  8.13958E+03  5.42106E+03  1.77395E+03  7.90244E+03 -4.93102E+03  8.04059E+03
 -6.45885E+03  2.96680E+03 -3.45471E+03 -1.33675E+03  1.38651E+03 -1.36884E+03  4.74695E+03 -6.31759E+02
  4.80189E+03  2.95596E+03  9.92567E+02  5.59024E+03 -4.37294E+03  5.65417E+03 -7.03440E+03  1.84247E+03
 -4.48796E+03 -3.30182E+03  1.63829E+02 -5.72545E+03  3.44085E+03 -3.04064E+03  2.91766E+03  5.14692E+02
  2.82037E+02  2.96162E+03 -3.28114E+03  4.73410E+03 -4.17456E+03  2.44731E+03 -3.58369E+03 -9.91148E+02
 -2.01083E+03 -5.55383E+03  1.11891E+03 -5.72001E+03  5.68303E+03 -4.42115E+03  5.80821E+03  6.94145E+02
  4.03198E+03  4.61475E+03  1.50324E+02  6.62711E+03 -4.89871E+03  3.76812E+03 -4.36768E+03 -2.88477E+02
 -5.34810E+03 -4.62742E+03 -1.29697E+03 -4.90694E+03  2.49469E+03 -4.20152E+03  2.14834E+03 -2.60751E+03
  2.58454E+03 -1.22111E+02 -9.34259E+01  1.44621E+03  7.07864E+02  4.61615E+02 -2.23288E+02 -1.62740E+03
  2.94958E+03 -5.79106E+02  4.18597E+03  5.52461E+02  5.19207E+03  2.46832E+03  4.60483E+03  6.38349E+03
 -9.29767E+02  7.61226E+03 -6.45423E+03  5.93902E+03 -8.46763E+03  9.57098E+02 -6.90616E+03 -2.41156E+03
 -4.06430E+03 -5.30895E+03 -4.00361E+02 -4.36728E+03  2.22895E+03 -1.54631E+03  1.67599E+03 -1.80322E+03
  7.60095E+02 -7.54730E+02  2.13561E+03 -2.16620E+03  3.61049E+03 -1.25006E+03  3.22583E+03  8.69071E+02
  4.12323E+03  1.33547E+03  1.03635E+03  3.11845E+03 -1.28816E+03  2.33262E+03 -3.43462E+03  2.61679E+03
 -4.01367E+03 -1.13856E+03 -1.17993E+03 -3.20741E+03  4.40791E+02 -3.95933E+03  2.53674E+03 -4.83145E+03
  4.46668E+03 -2.92424E+03  5.65951E+03 -4.87049E+01  4.17475E+03  3.53461E+03  9.58895E+02  4.71835E+03
 -1.99034E+03  5.64439E+03 -2.98575E+03  1.44316E+03 -1.54819E+03 -1.18341E+03 -6.28285E+01 -7.53245E+02
 -3.66636E+02  3.55028E+02 -4.31861E+02  1.67064E+03 -2.55965E+03  7.28972E+02 -3.49869E+03 -2.09606E+02
 -1.16996E+03 -3.32988E+03  8.74567E+02 -3.90122E+03  2.05722E+03 -3.35028E+03  2.67319E+03 -6.78002E+02
  3.18498E+03  1.60326E+03  1.30988E+03  3.26279E+03 -5.28423E+02  2.86680E+03 -1.54550E+03  1.84463E+03
 -3.45336E+03  6.49892E+02 -2.93935E+03 -1.98112E+03 -3.29883E+02 -1.98741E+03  1.28167E+03 -2.47980E+03
  1.91339E+03 -1.01144E+03  1.44940E+03 -2.43145E+02  4.61567E+02  1.36080E+03  7.88568E+02  4.38530E+02
  1.59092E+03  1.88139E+02  7.96766E+02  1.07874E+03  1.14977E+03  1.43661E+03  9.86481E+02  1.42986E+03
 -8.38474E+02  2.29619E+03 -1.99859E+03  3.23966E+03 -1.60698E+03  9.27060E+02 -3.35179E+03  3.30455E+02
 -1.26768E+03 -2.70639E+03  3.23555E+02 -3.78881E+03  1.44939E+03 -2.02429E+03  2.22170E+03 -3.88089E+02
  2.02344E+03  1.41889E+03  3.66097E+02  2.04988E+03 -3.13846E+02  4.80154E+02 -6.31876E+02  3.07473E+02
 -9.27939E+02 -1.50374E+03  9.79645E+02 -1.05418E+03  9.59928E+02 -4.13727E+02  1.17706E+03  2.02647E+02
  6.61273E+02  1.12095E+02  3.62683E+02 -6.58908E+02 -3.29978E+02  4.98147E+02  1.64775E+03 -7.10146E+01
 -6.38928E+02 -5.89027E+02  1.78293E+03  9.96711E+02  2.60601E+02  2.34564E+03  1.81554E+02  1.99914E+03
 -1.63015E+03  5.11579E+02 -1.94777E+03  1.58323E+02 -1.95317E+03 -8.75474E+02  3.76089E+01 -3.75512E+02
  1.39337E+02 -1.01703E+03  7.57777E+02 -7.41009E+02  2.18892E+02  1.10428E+03 -7.70291E+02  3.95966E+02
 -6.20781E+02  5.11478E+02 -3.46414E+02 -1.42990E+03 -6.67824E+02 -2.12172E+03 -1.25966E+02 -1.20522E+03
  2.37514E+02  3.30975E+02  8.46939E+02 -1.08456E+02  7.57302E+02 -1.29933E+02  5.86736E+01  1.59383E+03
 -1.39517E+02  2.37831E+02 -8.89598E+02  1.43924E+02 -1.94747E+01 -4.64906E+02  9.89048E+02 -1.22935E+02
  4.92034E+02  4.08833E+02  2.34069E+03  5.57351E+01  8.62839E+02  8.06149E+02 -1.89574E+01  1.31546E+03
 -1.09299E+03  1.99451E+01 -9.05559E+02 -1.58013E+01 -6.13738E+02 -8.58552E+02  3.82935E+01  2.37008E+01
  1.02192E+03 -4.03608E+02  5.98708E+02  4.99311E+02  8.43708E+01  1.32537E+03  7.51071E+02  9.39147E+02
 -9.84167E+01  5.78068E+02 -7.14426E+01 -2.19602E+02  1.72369E+02 -2.13986E+01 -9.80234E+02  8.69375E+02
 -6.00308E+02  1.09616E+03 -2.10441E+03  5.88497E+02 -1.35223E+03  3.91956E+01 -1.89990E+03 -4.91419E+02
 -1.01364E+03 -2.19025E+03  2.51857E+02 -1.99596E+03  1.01822E+03 -1.26553E+03  1.64048E+03 -9.01759E+02
  1.11157E+03 -2.48995E+02  7.65312E+02  1.05403E+03 -3.24455E+02  1.22696E+03 -2.58088E+02  2.81428E+02
 -8.28548E+02  8.63653E+02 -1.96088E+02 -5.97811E+02 -3.73074E+02 -4.81765E+02 -1.40502E+03  3.97458E+01
 -1.09303E+03 -3.17128E+02 -5.57714E+02 -1.43731E+02 -6.29993E+01 -1.04145E+03 -5.28126E+02 -5.85846E+02
  1.15804E+03 -1.22612E+02 -1.30451E+02 -2.39825E+02  6.25546E+02  4.87864E+02 -9.56578E+02  1.30694E+03
 -6.41950E+02  1.70869E+03 -1.14448E+03  9.55446E+02 -9.54386E+02 -2.94409E+02  3.16056E+02 -7.02712E+02
 -3.04103E+02 -9.65423E+02  4.14613E+02 -6.96108E+02  2.94985E+02 -7.31753E+02 -1.05133E+02  4.00540E+01
  5.13332E+02  1.02651E+02  3.81784E+02  7.99669E+02 -3.22596E+02 -1.80750E+02 -2.31338E+02 -4.01200E+02
  2.98012E+02  3.29917E+02 -3.39911E+02  1.72868E+01  9.42722E+01  2.37601E+02  4.02202E+02  2.03873E+02
 -5.43493E+02 -1.59774E+02 -8.66015E+01 -1.36423E+02 -3.82681E+02  1.20233E+02  1.58614E+02 -3.99345E+02
 -3.70158E+02 -5.44308E+02  2.93197E+02  1.00285E+02  6.96668E+02 -8.06290E+02  2.49440E+02  3.92500E+02
  4.13951E+02  1.91118E+02  1.32868E+02  1.88018E+02 -7.45356E+02  1.58787E+02  1.62679E+02  4.70617E+02
  2.27144E+02  1.01990E+02 -4.43490E+02  2.48131E+02 -7.38259E+02 -1.84570E+02 -6.65013E+02 -5.32444E+02
 -8.65165E+02  4.31523E+02  1.41157E+02 -8.22875E+02  2.56362E+02 -1.04023E+03  3.76750E+02 -4.53339E+01
  5.55974E+02 -1.82891E+02 -6.68262E+02 -1.41195E+02  6.23785E+01  8.80927E+02  1.45652E+02  5.25671E+02
