 $NMID ID='MM_0lb_SNR400_20hz_g60_69.RAW', FMTDAT='(8E13.5)'
 TRAMP=1., VOLUME=1. $END
  3.09666E+05  6.87859E+02  3.37469E+05  2.49883E+05  8.45877E+04  3.38031E+05 -1.32084E+05  2.50384E+05
 -1.90183E+05  8.26505E+04 -1.11464E+05 -3.28960E+04  1.41091E+03 -4.99923E+04  5.39123E+04 -2.08238E+02
  3.53222E+04  5.29077E+04 -1.69996E+04  7.54536E+04 -5.98479E+04  6.31449E+04 -8.32517E+04  3.18759E+04
 -8.02080E+04 -1.06598E+04 -5.64199E+04 -5.11152E+04 -1.48486E+04 -6.83746E+04  2.72196E+04 -4.53539E+04
  3.94666E+04  4.22116E+03  1.58108E+04  4.75659E+04 -3.44374E+04  4.65587E+04 -6.61707E+04  1.40683E+02
 -5.20571E+04 -5.66312E+04 -6.57022E+03 -7.63845E+04  3.37059E+04 -5.36978E+04  4.68023E+04 -1.63698E+04
  4.29826E+04  1.06504E+04  3.10857E+04  2.42036E+04  1.57145E+04  2.84372E+04 -4.78752E+03  2.68326E+04
 -2.19715E+04  1.27361E+04 -1.93991E+04 -4.59854E+03  4.43727E+03 -7.45483E+03  2.10745E+04  1.18014E+04
  7.44220E+03  3.38897E+04 -3.09380E+04  3.45150E+04 -6.25134E+04  2.24980E+03 -5.62771E+04 -4.13890E+04
 -1.25712E+04 -6.16434E+04  3.87527E+04 -4.42254E+04  5.60883E+04 -2.09269E+03  3.24760E+04  3.16140E+04
 -6.32509E+03  3.38699E+04 -2.91032E+04  1.41403E+04 -2.88036E+04 -5.17103E+03 -1.52298E+04 -1.03722E+04
 -7.71929E+03 -1.18474E+04 -1.13993E+03 -1.75650E+04  6.71974E+03 -2.27835E+04  1.49168E+04 -1.40631E+04
  1.17255E+04  4.60101E+03 -7.43704E+03  1.34428E+04 -1.96263E+04 -3.27257E+03 -8.27313E+03 -3.09186E+04
  2.15217E+04 -4.15872E+04  4.57454E+04 -1.92341E+04  4.27281E+04  1.85792E+04  1.49367E+04  4.25810E+04
 -1.57029E+04  3.21392E+04 -2.40481E+04  1.58279E+03 -8.49757E+03 -2.74589E+04  2.07233E+04 -3.14046E+04
  3.86427E+04 -7.43098E+03  3.22823E+04  2.25944E+04  1.60877E+04  4.34622E+04 -7.68346E+03  4.68989E+04
 -2.90220E+04  3.08020E+04 -3.92523E+04  8.82218E+03 -3.95133E+04 -1.55259E+04 -2.16176E+04 -3.49106E+04
  6.82499E+03 -3.52622E+04  2.94636E+04 -1.28938E+04  2.74399E+04  1.05153E+04  3.22919E+03  1.83596E+04
 -1.27771E+04  7.78745E+03 -9.53673E+03 -7.48284E+03  6.03778E+03 -9.86107E+03  1.76057E+04  6.07325E+03
  1.29201E+04  2.15735E+04 -6.90554E+03  2.37301E+04 -2.14624E+04  9.35377E+03 -2.57288E+04 -5.95732E+03
 -1.71569E+04 -1.58988E+04 -6.12353E+03 -1.73595E+04  4.08037E+03 -1.56024E+04  1.30727E+04 -1.43055E+04
  2.23286E+04 -1.14253E+04  2.84975E+04  1.23601E+03  2.13589E+04  1.73422E+04  3.68855E+03  3.24891E+04
 -1.61957E+04  2.78330E+04 -2.58705E+04  9.42343E+03 -2.00852E+04 -1.08140E+04 -4.31075E+03 -1.36418E+04
  2.03337E+03 -3.82480E+03 -2.79816E+03  5.58059E+03 -1.32911E+04  5.63721E+03 -1.31575E+04 -5.40206E+03
 -8.63222E+03 -1.58814E+04  4.72801E+03 -1.96130E+04  1.27957E+04 -1.42470E+04  1.49514E+04 -1.35405E+03
  8.90456E+03  1.09718E+04 -4.66447E+02  1.58537E+04 -1.05111E+04  9.46899E+03 -1.57839E+04 -3.31146E+03
 -1.18924E+04 -1.46709E+04 -1.52804E+03 -1.89051E+04  8.72858E+03 -1.55819E+04  1.63574E+04 -7.30850E+03
  1.50101E+04  2.87376E+02  1.06633E+04  3.64091E+03  5.61314E+03  2.56845E+02  6.93061E+03 -8.99521E+02
  1.42152E+04  2.56467E+03  1.48348E+04  1.29148E+04  8.97648E+03  2.50421E+04 -3.03903E+03  2.66541E+04
 -1.55860E+04  2.03611E+04 -2.48203E+04  1.01070E+04 -2.57521E+04 -1.90958E+03 -2.17953E+04 -1.42139E+04
 -1.00035E+04 -2.00941E+04  6.48478E+03 -1.91922E+04  1.69125E+04 -1.09159E+04  1.56836E+04  3.01620E+03
  6.54370E+03  1.12652E+04 -7.21795E+03  1.07758E+04 -1.31729E+04  2.96778E+03 -1.02015E+04 -8.21422E+03
 -3.30964E+02 -1.22847E+04  5.87069E+03 -9.77238E+03  7.77563E+03 -1.29033E+03  1.18086E+03  4.50799E+03
 -5.58604E+03  1.32439E+03 -3.69361E+03 -4.77357E+03  4.68525E+02 -9.92063E+03  8.04411E+03 -1.00564E+04
  1.20812E+04 -4.55605E+03  1.19269E+04  3.29025E+03  1.04393E+04  9.80611E+03  4.65203E+03  1.40854E+04
 -1.66438E+03  1.57579E+04 -9.50027E+03  1.01776E+04 -1.13917E+04  3.09586E+03 -8.40762E+03 -2.03251E+03
 -4.06902E+03 -3.04935E+03 -7.24686E+02  1.98210E+03 -1.49407E+03  2.44701E+03 -3.86901E+03  3.56634E+03
 -7.29555E+03 -9.71655E+02 -8.83669E+03 -6.99856E+03 -3.35801E+03 -1.06780E+04  3.70402E+03 -7.99903E+03
  7.24651E+03 -3.59530E+03  4.81538E+03  2.46085E+03  1.19453E+03  2.69034E+03 -3.23508E+03 -4.28528E+02
 -3.49842E+03 -5.22636E+03 -1.39682E+03 -6.73879E+03  3.86605E+03 -8.19166E+03  9.67822E+03 -4.23205E+03
  1.22366E+04  4.79544E+02  8.72511E+03  6.14491E+03  1.05703E+03  8.42743E+03 -4.93641E+03  8.07483E+03
 -6.45523E+03  2.95312E+03 -3.26946E+03 -7.90143E+02  1.49148E+03 -2.04922E+03  4.73176E+03 -1.13176E+03
  4.00711E+03  3.54010E+03  9.29980E+02  5.74689E+03 -4.36470E+03  6.34651E+03 -7.23431E+03  1.90460E+03
 -4.63802E+03 -3.25727E+03  4.72120E+02 -6.28458E+03  3.27732E+03 -3.00744E+03  3.30010E+03  2.75397E+02
  1.97003E+02  3.07938E+03 -3.55041E+03  4.66034E+03 -4.05429E+03  2.39567E+03 -3.98465E+03 -5.06824E+02
 -2.76148E+03 -5.55076E+03  9.80984E+02 -6.53508E+03  5.46910E+03 -4.01527E+03  6.10127E+03  7.83820E+02
  4.11932E+03  4.61041E+03  4.33329E+02  7.23363E+03 -5.14244E+03  3.60471E+03 -5.00962E+03 -5.81634E+02
 -5.31554E+03 -4.86851E+03 -1.21400E+03 -4.53674E+03  2.41065E+03 -4.69139E+03  2.64207E+03 -2.39686E+03
  2.71711E+03  1.51163E+02 -1.39094E+01  1.20525E+03  2.65045E+02 -8.93247E+01  1.17864E+02 -1.70071E+03
  3.21635E+03 -7.79476E+02  4.50557E+03  3.86930E+02  5.31003E+03  2.98191E+03  4.62784E+03  6.15290E+03
 -6.04194E+02  7.87797E+03 -6.80645E+03  5.77076E+03 -9.15660E+03  1.08878E+03 -7.14489E+03 -2.66789E+03
 -4.00238E+03 -5.54722E+03 -7.49942E+02 -4.91780E+03  2.31182E+03 -1.74421E+03  1.52641E+03 -1.86429E+03
  8.05439E+02 -1.76913E+03  2.12283E+03 -1.82908E+03  3.56098E+03 -9.51839E+02  2.79693E+03  1.76274E+02
  4.34924E+03  3.64381E+02  6.65378E+02  2.56963E+03 -2.34915E+03  2.30314E+03 -4.74801E+03  2.53124E+03
 -4.21742E+03 -7.24419E+02 -1.43448E+03 -2.72828E+03  7.63217E+02 -4.38864E+03  2.92607E+03 -4.28905E+03
  4.09836E+03 -3.20598E+03  6.02646E+03  1.92506E+01  4.15522E+03  2.96390E+03  1.20027E+03  5.39670E+03
 -2.12037E+03  5.14522E+03 -3.38123E+03  1.76530E+03 -1.45961E+03 -1.74811E+03  1.25179E+02 -3.01257E+02
 -4.19296E+02  6.13855E+02 -6.40436E+02  2.06476E+03 -2.38397E+03  1.29717E+03 -3.95527E+03 -6.27414E+01
 -1.19811E+03 -3.56560E+03  7.25756E+02 -4.12903E+03  2.31820E+03 -3.55600E+03  2.92828E+03 -1.05615E+03
  3.26741E+03  2.41857E+03  1.72047E+03  2.64676E+03 -4.23276E+02  3.54046E+03 -1.89812E+03  1.81090E+03
 -2.94502E+03  4.72109E+02 -2.97542E+03 -2.06316E+03 -4.85360E+02 -2.51501E+03  1.17969E+03 -2.22925E+03
  2.07718E+03 -1.21888E+03  1.06914E+03  5.31938E+02  1.28662E+02  1.57328E+03  7.30409E+02  1.54010E+02
  1.75300E+03  2.05199E+02  8.15423E+02  1.03685E+03  1.14399E+03  1.56794E+03  1.14366E+03  1.06771E+03
 -7.14365E+02  1.72851E+03 -1.95722E+03  3.67204E+03 -1.65687E+03  1.07049E+03 -3.26768E+03 -2.13016E+01
 -1.09835E+03 -2.39741E+03  4.47159E+02 -3.71513E+03  1.12435E+03 -2.17460E+03  2.27110E+03 -7.66147E+01
  2.63704E+03  1.63203E+03  2.41268E+02  1.45796E+03 -9.59872E+02  1.34537E+03 -4.18366E+02  2.53533E+02
  1.71498E+02 -1.27408E+03  1.18593E+03 -1.34722E+03  1.01456E+03 -7.00359E+02  1.24026E+03  4.03767E+02
  6.61971E+02 -9.70583E+01  6.26469E+02 -2.05114E+02  1.40175E+02  7.17220E+02  1.59988E+03 -6.83152E+02
 -1.42931E+02 -2.08435E+02  1.34073E+03  2.65008E+02 -6.02009E+01  2.49612E+03 -5.46430E+02  2.53204E+03
 -9.72691E+02  5.64789E+02 -1.84770E+03  2.79604E+02 -1.95952E+03 -6.76145E+02  6.09101E+01 -5.67279E+02
  2.56315E+02 -1.02977E+03  7.72007E+02 -4.00026E+02  3.40783E+02  1.02446E+03 -5.67661E+02  5.57673E+02
 -1.13682E+03  6.17380E+02 -7.39258E+02 -1.36480E+03 -5.20420E+02 -1.87222E+03  3.97680E+02 -2.45885E+02
 -2.73721E+01 -2.04982E+02  6.51103E+02 -3.73666E+02  6.54619E+02 -1.10335E+02  1.64645E+02  9.17707E+02
 -2.58032E+02  1.17032E+02 -6.25189E+02  1.77676E+02  4.39984E+02 -5.55996E+02  2.03678E+03 -5.25745E+02
  1.02878E+03  2.47174E+02  2.01098E+03  9.87658E+01  7.26382E+02  1.42367E+03  4.31890E+01  2.15335E+03
 -7.25533E+02 -1.25702E+02 -4.58982E+02  1.99428E+02 -7.01373E+02 -1.41885E+03 -1.50659E+01 -4.80594E+02
  1.21914E+03 -4.92773E+02  4.98862E+02  4.67561E+02  3.74461E+01  1.05160E+03  4.90300E+02  4.50137E+02
  9.84354E+01  1.17050E+03 -1.73662E+02  1.13105E+02 -1.05327E+02  2.16157E+02 -2.18838E+02  5.27370E+02
 -1.06454E+03  3.79397E+02 -1.38171E+03  5.61450E+02 -4.17066E+02 -2.42664E+01 -1.89693E+03 -5.22917E+02
 -8.77386E+02 -1.78517E+03  5.54929E+02 -2.10406E+03  3.82485E+02 -1.54695E+03  2.10464E+03 -5.53953E+02
  1.83796E+03 -2.93196E+02  7.06044E+02  1.05290E+03 -1.40448E+03  7.04520E+02 -3.09697E+02  8.23857E+02
 -1.08678E+03  5.09754E+02 -1.32414E+02 -2.85466E+02 -3.76352E+02  2.51937E+02 -7.42681E+02  1.50949E+01
 -1.08094E+03 -3.05399E+02 -4.55236E+02  2.17157E+02  2.52644E+02 -1.36469E+02 -6.27966E+02 -2.89323E+02
  1.16354E+03 -7.51958E+02  2.20986E+02  5.24554E+02  7.49712E+02  8.54487E+01 -3.25875E+02  1.31889E+03
 -1.01203E+03  1.98329E+03 -1.30147E+03  1.17360E+03 -8.51837E+02 -1.48945E+02 -4.78282E+02 -7.76741E+02
 -6.10206E+02 -7.59249E+02  1.26455E+02 -1.05044E+03  4.86570E-01 -8.80135E+01 -2.31169E+02  1.77904E+02
  4.70527E+02  2.27879E+02  1.82295E+02  2.20835E+02 -4.77826E+02  2.05190E+02 -1.93953E+02 -3.99095E+02
  2.40111E+02  2.20827E+02 -4.07559E+02  1.20868E+02 -3.47655E+01  5.95743E+02  1.57929E+02 -8.75821E+01
 -1.57690E+02 -2.33781E+02  2.23665E+01 -2.20259E+02 -5.41946E+02 -5.13653E+02  7.83829E+02 -1.01379E+03
  4.32221E+02 -1.19112E+02  7.81992E+02 -1.34428E+02  3.44906E+02 -1.02308E+03  2.29118E+02  3.17566E+02
  4.76630E+02  3.83798E+02 -3.76750E+02 -4.74078E+01 -7.62727E+02  7.24163E+02 -1.03263E+02 -2.31857E+02
  5.54413E+02 -3.83176E+02 -3.88521E+02 -1.53195E+02 -4.35094E+02  2.50673E+02 -9.63513E+02 -9.22670E+00
 -7.13984E+02  6.35885E+02 -1.18517E+02 -9.23970E+01  4.71481E+02 -8.58952E+02  6.45609E+01 -5.73693E+02
  6.08428E+02  1.90346E+02 -8.02965E+01  6.21319E+00 -4.55965E+02  1.00085E+03 -2.16933E+02  9.02293E+02
