 $NMID ID='MM_0lb_SNR400_11hz_g40_30.RAW', FMTDAT='(8E13.5)'
 TRAMP=1., VOLUME=1. $END
  3.09628E+05 -1.26996E+02  3.36895E+05  2.50754E+05  8.52970E+04  3.38042E+05 -1.32036E+05  2.51105E+05
 -1.91316E+05  8.38345E+04 -1.11953E+05 -3.30785E+04  3.52687E+02 -5.02491E+04  5.40012E+04 -1.80103E+02
  3.56442E+04  5.25537E+04 -1.67816E+04  7.61216E+04 -6.12768E+04  6.35228E+04 -8.45013E+04  3.16610E+04
 -8.15534E+04 -1.13506E+04 -5.74380E+04 -5.16731E+04 -1.48904E+04 -6.98220E+04  2.82512E+04 -4.66808E+04
  4.11809E+04  4.07965E+03  1.59011E+04  4.77947E+04 -3.44461E+04  4.68115E+04 -6.72305E+04 -5.20391E+01
 -5.39711E+04 -5.69778E+04 -6.87810E+03 -7.75449E+04  3.40428E+04 -5.59174E+04  4.80235E+04 -1.79512E+04
  4.42063E+04  1.13409E+04  3.16447E+04  2.54071E+04  1.61954E+04  3.03692E+04 -5.53483E+03  2.76318E+04
 -2.17096E+04  1.28262E+04 -1.82778E+04 -5.15650E+03  6.16917E+03 -7.91489E+03  2.23707E+04  1.26886E+04
  7.37553E+03  3.60101E+04 -3.28603E+04  3.61754E+04 -6.39307E+04  1.92924E+03 -5.73528E+04 -4.30547E+04
 -1.22675E+04 -6.48412E+04  4.04207E+04 -4.53769E+04  5.92884E+04 -2.19813E+03  3.50998E+04  3.34134E+04
 -6.07553E+03  3.70551E+04 -3.06893E+04  1.61914E+04 -3.16901E+04 -3.57633E+03 -1.79767E+04 -1.16297E+04
 -8.92082E+03 -1.37140E+04 -2.40151E+02 -1.92177E+04  7.27624E+03 -2.33697E+04  1.62881E+04 -1.26518E+04
  1.11039E+04  4.98555E+03 -9.47884E+03  1.38850E+04 -2.23987E+04 -5.15543E+03 -8.50769E+03 -3.44221E+04
  2.39830E+04 -4.45397E+04  4.93604E+04 -2.00990E+04  4.63992E+04  1.98500E+04  1.61262E+04  4.53899E+04
 -1.57680E+04  3.41603E+04 -2.57849E+04  2.58477E+03 -1.09379E+04 -2.84252E+04  2.09934E+04 -3.47068E+04
  4.26104E+04 -9.83496E+03  3.75454E+04  2.45182E+04  1.94610E+04  4.90604E+04 -8.05252E+03  5.17536E+04
 -3.25365E+04  3.52606E+04 -4.40785E+04  1.02109E+04 -4.49660E+04 -1.81259E+04 -2.43896E+04 -3.95197E+04
  7.71322E+03 -3.89266E+04  3.18617E+04 -1.59248E+04  2.96829E+04  1.10273E+04  3.73610E+03  1.97103E+04
 -1.31442E+04  8.95795E+03 -1.05102E+04 -7.57816E+03  6.03267E+03 -1.07721E+04  1.78784E+04  5.25558E+03
  1.39265E+04  2.22824E+04 -5.02266E+03  2.51579E+04 -2.29813E+04  1.27543E+04 -2.96730E+04 -4.67290E+03
 -2.25677E+04 -1.76056E+04 -9.93039E+03 -2.16885E+04  4.83596E+03 -2.18354E+04  1.70199E+04 -1.98423E+04
  2.83690E+04 -1.36025E+04  3.44601E+04  3.21532E+03  2.54419E+04  2.15279E+04  4.09578E+03  3.84552E+04
 -1.92040E+04  3.17571E+04 -2.84491E+04  1.01674E+04 -2.13317E+04 -1.09619E+04 -4.54120E+03 -1.36476E+04
  9.52359E+02 -2.21714E+03 -6.28064E+03  7.34960E+03 -1.82713E+04  5.19060E+03 -1.71668E+04 -8.22645E+03
 -1.15155E+04 -2.07812E+04  5.55684E+03 -2.45248E+04  1.68560E+04 -1.73721E+04  1.98901E+04 -1.89966E+03
  1.30959E+04  1.50131E+04 -1.05870E+03  2.08576E+04 -1.34532E+04  1.21008E+04 -2.11270E+04 -3.70897E+03
 -1.56261E+04 -1.90921E+04 -1.20322E+03 -2.43846E+04  1.14335E+04 -2.00961E+04  2.01371E+04 -1.07625E+04
  1.96373E+04 -2.07993E+01  1.35887E+04  4.18321E+03  7.15674E+03  1.40564E+03  1.03902E+04 -1.22231E+03
  1.91555E+04  3.30928E+03  2.12263E+04  1.62856E+04  1.52384E+04  3.34796E+04 -2.35294E+03  3.80254E+04
 -2.18483E+04  3.14178E+04 -3.61608E+04  1.61661E+04 -3.75621E+04 -3.12539E+03 -3.11310E+04 -2.21387E+04
 -1.33654E+04 -3.18672E+04  1.08043E+04 -2.82284E+04  2.42326E+04 -1.35035E+04  2.11800E+04  6.23624E+03
  7.31460E+03  1.64377E+04 -1.02835E+04  1.38036E+04 -1.75828E+04  2.05109E+03 -1.34379E+04 -1.11366E+04
 -5.28310E+02 -1.61834E+04  8.73009E+03 -1.21409E+04  1.18154E+04 -6.12786E+02  2.91534E+03  7.42818E+03
 -6.94513E+03  2.57441E+03 -6.80059E+03 -5.98772E+03 -7.83053E+02 -1.55427E+04  1.08253E+04 -1.64692E+04
  1.89551E+04 -8.59014E+03  2.13336E+04  2.92602E+03  1.82523E+04  1.57676E+04  8.98061E+03  2.45194E+04
 -4.48348E+03  2.59321E+04 -1.67827E+04  1.59493E+04 -1.85746E+04  3.88994E+03 -1.32296E+04 -4.82167E+03
 -5.38092E+03 -6.20914E+03 -5.08657E+02  3.50115E+02 -2.69499E+03  2.57189E+03 -6.31533E+03  4.64568E+03
 -1.22479E+04 -8.87081E+02 -1.27212E+04 -9.85327E+03 -4.69104E+03 -1.65914E+04  6.06130E+03 -1.31271E+04
  1.11498E+04 -5.27539E+03  7.15233E+03  3.78854E+03 -7.27411E+02  5.19689E+03 -6.00753E+03  7.27007E+01
 -6.02621E+03 -8.39988E+03 -1.33790E+03 -1.25399E+04  7.01682E+03 -1.32274E+04  1.64820E+04 -7.07042E+03
  1.89720E+04  2.03066E+03  1.39091E+04  1.17037E+04  2.60555E+03  1.55901E+04 -8.50672E+03  1.30282E+04
 -1.09781E+04  3.92524E+03 -5.90401E+03 -2.60566E+03  2.10070E+03 -4.03484E+03  7.26991E+03  1.49951E+02
  6.51453E+03  5.32834E+03  1.14090E+03  1.10384E+04 -7.30657E+03  9.86443E+03 -1.27622E+04  2.48412E+03
 -8.50200E+03 -7.02881E+03  4.32916E+02 -1.18886E+04  7.00271E+03 -5.84977E+03  7.42180E+03  2.18697E+03
  1.67701E+03  8.40046E+03 -6.02744E+03  9.63062E+03 -1.04524E+04  4.91769E+03 -1.08023E+04 -3.86362E+03
 -6.29073E+03 -1.24093E+04  3.36241E+03 -1.45455E+04  1.24444E+04 -9.28452E+03  1.27675E+04  2.07095E+03
  8.89675E+03  1.02748E+04 -1.17323E+03  1.21186E+04 -9.44326E+03  7.34389E+03 -1.00537E+04 -8.33895E+02
 -9.00533E+03 -8.45779E+03 -2.18237E+03 -9.96849E+03  5.06799E+03 -8.70968E+03  6.31948E+03 -3.14663E+03
  4.24350E+03  1.83361E+03 -6.45414E+02  2.09301E+03 -9.84080E+01 -2.78407E+03  1.89444E+03 -5.12563E+03
  8.50129E+03 -2.93259E+03  1.24504E+04  1.45243E+03  1.16641E+04  7.80489E+03  8.43461E+03  1.62648E+04
 -3.82454E+03  1.85089E+04 -1.47791E+04  1.33864E+04 -2.03639E+04  3.03188E+03 -1.62876E+04 -6.93426E+03
 -8.24138E+03 -1.28551E+04 -9.01521E+02 -1.14709E+04  3.86738E+03 -5.91488E+03  3.62058E+03 -4.01358E+03
  2.85628E+03 -3.13063E+03  3.47638E+03 -3.49203E+03  4.96337E+03 -2.88739E+03  6.11369E+03 -6.57961E+02
  8.58851E+03  1.43053E+03  4.42202E+03  7.36380E+03 -2.44052E+03  8.85849E+03 -9.08741E+03  6.46184E+03
 -1.12749E+04 -1.10570E+03 -6.78988E+03 -7.38317E+03 -2.98376E+02 -1.21114E+04  7.27283E+03 -1.14519E+04
  1.27466E+04 -6.46034E+03  1.41913E+04  1.75917E+03  1.07605E+04  1.09899E+04  1.53301E+03  1.32881E+04
 -5.66322E+03  1.07468E+04 -7.62752E+03  4.15393E+03 -5.14060E+03 -7.77683E+02 -2.87496E+03 -1.88687E+03
 -1.13084E+03 -3.21521E+02 -1.63087E+03  2.95803E+03 -5.03310E+03  2.24927E+03 -8.40641E+03 -1.42376E+03
 -5.18856E+03 -7.39261E+03  5.36768E+02 -1.09506E+04  6.54086E+03 -1.00715E+04  1.03335E+04 -2.93916E+03
  1.06202E+04  5.13835E+03  4.88506E+03  1.02461E+04 -1.90086E+03  1.13644E+04 -7.79289E+03  6.82789E+03
 -1.03033E+04  3.93433E+02 -7.92326E+03 -7.07350E+03 -8.46269E+02 -9.34089E+03  4.41229E+03 -7.13425E+03
  6.69019E+03 -3.09890E+03  4.40615E+03  1.92542E+03  1.89191E+03  3.64296E+03  8.42281E+02  1.39680E+03
  2.54427E+03  9.76204E+02  2.60753E+03  2.36116E+03  3.19701E+03  4.14319E+03  3.08045E+03  5.99360E+03
 -2.68200E+03  8.57892E+03 -7.92994E+03  8.85772E+03 -1.08337E+04  2.96533E+03 -1.16233E+04 -3.82204E+03
 -5.00288E+03 -1.05160E+04  1.39118E+03 -1.28279E+04  6.66141E+03 -7.09391E+03  9.03863E+03 -2.10809E+03
  6.62142E+03  3.64587E+03  1.67758E+03  6.05887E+03 -3.25233E+03  4.25622E+03 -4.26600E+03 -9.54211E+02
 -1.63728E+03 -4.74576E+03  2.36711E+03 -5.39388E+03  4.38116E+03 -2.28790E+03  4.17852E+03  1.17971E+03
  2.52913E+03  2.58261E+03  1.64100E+03  1.33401E+03 -6.90119E+02  1.47601E+03  9.63318E+02 -4.09886E+02
  1.20438E+03  1.63991E+01  4.36558E+03  1.17741E+03  2.48301E+03  5.82552E+03 -9.64682E+02  7.84221E+03
 -4.38834E+03  4.59685E+03 -6.93285E+03  1.22313E+03 -5.85608E+03 -2.30250E+03 -1.73670E+03 -3.96364E+03
  1.33084E+03 -3.80314E+03  2.37846E+03 -1.19052E+03  2.01789E+03  2.54834E+03 -1.79731E+03  3.60409E+03
 -4.16738E+03  2.07797E+03 -4.97246E+03 -2.51124E+03 -3.58898E+03 -5.88310E+03  1.04321E+03 -5.59763E+03
  3.47794E+03 -2.65939E+03  4.53894E+03  7.00226E+01  3.47450E+03  8.17215E+02 -7.30101E+01  2.76461E+03
 -1.79680E+03  1.26784E+03 -3.12292E+03 -2.05549E+03  1.39262E+03 -4.60167E+03  5.09146E+03 -3.37125E+03
  6.06977E+03  1.04093E+03  6.58335E+03  4.45864E+03  2.77727E+03  6.43220E+03 -2.23826E+03  6.27553E+03
 -5.47706E+03  2.80289E+03 -5.53004E+03 -7.46074E+02 -3.52733E+03 -4.11344E+03  1.23545E+03 -4.20145E+03
  4.41599E+03 -1.23858E+03  3.40587E+03  1.53856E+03  1.53127E+03  3.86246E+03 -7.35049E+02  3.54332E+03
 -2.07352E+03  2.69799E+03 -1.75366E+03  2.74572E+02 -9.41238E+02  9.14643E+02 -1.34956E+03  1.84782E+03
 -1.03708E+03  2.87385E+03 -5.36382E+03  2.06848E+03 -6.15440E+03 -1.90275E+02 -8.20598E+03 -4.38138E+03
 -4.20581E+03 -9.06648E+03  1.69619E+03 -1.07140E+04  6.07979E+03 -8.28479E+03  9.61145E+03 -2.74135E+03
  9.89762E+03  1.27073E+03  5.17391E+03  6.40136E+03  2.07621E+02  7.24528E+03 -2.97050E+03  5.17934E+03
 -4.51983E+03  1.52379E+03 -2.40803E+03 -1.04669E+03 -7.98789E+02 -1.84680E+02 -1.28063E+03 -3.92954E+02
 -1.64245E+03  7.21106E+02 -2.44687E+03  4.09869E+02 -1.77836E+02 -2.14629E+03  3.43691E+02 -2.87975E+03
  3.16687E+03 -1.96139E+03  4.31758E+03  6.29992E+02  4.99800E+03  2.84566E+03  1.64851E+03  6.71469E+03
 -2.91820E+03  8.44135E+03 -7.41966E+03  4.56986E+03 -8.91504E+03 -5.80756E+02 -5.96282E+03 -5.06298E+03
 -2.49019E+03 -7.32459E+03  1.22018E+03 -6.15941E+03  4.42271E+03 -3.02229E+03  4.32150E+03 -5.69638E+01
  2.65614E+03  1.50306E+03 -7.57689E+01  2.07614E+03 -1.35446E+03  2.96643E+01 -4.29307E+02 -9.09367E+02
  2.33207E+03 -2.32224E+02  3.04373E+03  1.33153E+03  2.14518E+03  2.65363E+03  3.40184E+01  3.37333E+03
 -2.87976E+03  3.18492E+03 -4.17819E+03  3.74980E+02 -4.05019E+03 -3.01679E+03 -8.04648E+02 -5.68891E+03
  3.00410E+03 -4.68140E+03  5.54927E+03 -1.38680E+03  5.04618E+03  1.02380E+03  3.01105E+03  4.12668E+03
  7.67221E+02  4.55482E+03 -1.90825E+03  3.06453E+03 -2.65009E+03  2.29215E+03 -2.53729E+03  4.02629E+02
 -1.49661E+03 -4.60677E+02 -1.45585E+03  3.25343E+02 -2.05925E+03  1.97721E+02 -3.02392E+03 -1.30854E+03
 -3.12441E+03 -1.70421E+03 -1.45932E+03 -4.35165E+03  2.16626E+03 -4.94022E+03  3.59334E+03 -2.37176E+03
  3.54341E+03  9.23280E+02  2.11235E+03  2.75636E+03 -1.75835E+02  4.83879E+03 -3.60153E+03  2.58741E+03
